# OpenSignals Text File Format. Version 1
# {"00:07:80:4B:15:F7": {"position": 0, "device": "biosignalsplux", "device name": "00:07:80:4B:15:F7", "device connection": "BTH00:07:80:4B:15:F7", "sampling rate": 1000, "resolution": [16], "firmware version": 775, "comments": "", "keywords": "", "mode": 0, "sync interval": 2, "date": "2023-3-2", "time": "17:2:3.633", "channels": [1], "sensor": ["ECG"], "label": ["CH1"], "column": ["nSeq", "DI", "CH1"], "special": [{"SpO2": [80, 40, 5, 4, 3, 3]}, {"SpO2": [80, 40, 5, 4, 3, 3]}, {"SpO2": [80, 40, 5, 4, 3, 3]}, {"SpO2": [80, 40, 5, 4, 3, 3]}, {"SpO2": [80, 40, 5, 4, 3, 3]}, {"SpO2": [80, 40, 5, 4, 3, 3]}, {"SpO2": [80, 40, 5, 4, 3, 3]}, {"SpO2": [80, 40, 5, 4, 3, 3]}], "digital IO": [0, 1], "sleeve color": [""], "convertedValues": 0}}
# EndOfHeader
0	0	26416	
1	0	26822	
2	0	27210	
3	0	27738	
4	0	28308	
5	0	28842	
6	0	29336	
7	0	29730	
8	0	30088	
9	0	30426	
10	0	30674	
11	0	30840	
12	0	30900	
13	0	30946	
14	0	30952	
15	0	30920	
16	0	30804	
17	0	30732	
18	0	30656	
19	0	30610	
20	0	30676	
21	0	30582	
22	0	30416	
23	0	30372	
24	0	30420	
25	0	30484	
26	0	30464	
27	0	30408	
28	0	30372	
29	0	30376	
30	0	30408	
31	0	30428	
32	0	30440	
33	0	30458	
34	0	30488	
35	0	30496	
36	0	30560	
37	0	30600	
38	0	30588	
39	0	30592	
40	0	30656	
41	0	30700	
42	0	30688	
43	0	30628	
44	0	30648	
45	0	30706	
46	0	30770	
47	0	30820	
48	0	30853	
49	0	30864	
50	0	30856	
51	0	30864	
52	0	30860	
53	0	30892	
54	0	30940	
55	0	30972	
56	0	31016	
57	0	31068	
58	0	31112	
59	0	31106	
60	0	31124	
61	0	31184	
62	0	31212	
63	0	31172	
64	0	31120	
65	0	31140	
66	0	31172	
67	0	31180	
68	0	31232	
69	0	31348	
70	0	31462	
71	0	31516	
72	0	31556	
73	0	31622	
74	0	31680	
75	0	31640	
76	0	31568	
77	0	31532	
78	0	31560	
79	0	31612	
80	0	31752	
81	0	31760	
82	0	31740	
83	0	31732	
84	0	31772	
85	0	31836	
86	0	31877	
87	0	31856	
88	0	31898	
89	0	31976	
90	0	32072	
91	0	32096	
92	0	32104	
93	0	32112	
94	0	32152	
95	0	32228	
96	0	32300	
97	0	32312	
98	0	32296	
99	0	32260	
100	0	32300	
101	0	32396	
102	0	32452	
103	0	32528	
104	0	32536	
105	0	32476	
106	0	32480	
107	0	32488	
108	0	32460	
109	0	32478	
110	0	32546	
111	0	32612	
112	0	32612	
113	0	32544	
114	0	32508	
115	0	32530	
116	0	32560	
117	0	32658	
118	0	32752	
119	0	32808	
120	0	32808	
121	0	32860	
122	0	32876	
123	0	32872	
124	0	32884	
125	0	32912	
126	0	32996	
127	0	33056	
128	0	33080	
129	0	33056	
130	0	33092	
131	0	33164	
132	0	33204	
133	0	33228	
134	0	33292	
135	0	33400	
136	0	33438	
137	0	33488	
138	0	33500	
139	0	33456	
140	0	33464	
141	0	33476	
142	0	33512	
143	0	33588	
144	0	33624	
145	0	33716	
146	0	33868	
147	0	33984	
148	0	34016	
149	0	33976	
150	0	33984	
151	0	34036	
152	0	34076	
153	0	34172	
154	0	34264	
155	0	34332	
156	0	34336	
157	0	34356	
158	0	34360	
159	0	34400	
160	0	34484	
161	0	34548	
162	0	34548	
163	0	34556	
164	0	34640	
165	0	34764	
166	0	34788	
167	0	34856	
168	0	35028	
169	0	35146	
170	0	35152	
171	0	35204	
172	0	35244	
173	0	35256	
174	0	35352	
175	0	35440	
176	0	35504	
177	0	35616	
178	0	35732	
179	0	35856	
180	0	35924	
181	0	35972	
182	0	36000	
183	0	36040	
184	0	36108	
185	0	36216	
186	0	36304	
187	0	36384	
188	0	36448	
189	0	36504	
190	0	36588	
191	0	36724	
192	0	36896	
193	0	36996	
194	0	37028	
195	0	37044	
196	0	37052	
197	0	37132	
198	0	37244	
199	0	37324	
200	0	37408	
201	0	37496	
202	0	37508	
203	0	37500	
204	0	37564	
205	0	37656	
206	0	37724	
207	0	37792	
208	0	37876	
209	0	37920	
210	0	37946	
211	0	37972	
212	0	38024	
213	0	38108	
214	0	38188	
215	0	38240	
216	0	38272	
217	0	38256	
218	0	38240	
219	0	38264	
220	0	38304	
221	0	38360	
222	0	38320	
223	0	38324	
224	0	38244	
225	0	38268	
226	0	38296	
227	0	38234	
228	0	38168	
229	0	38050	
230	0	37928	
231	0	37868	
232	0	37812	
233	0	37660	
234	0	37512	
235	0	37404	
236	0	37304	
237	0	37196	
238	0	37128	
239	0	37028	
240	0	36860	
241	0	36636	
242	0	36416	
243	0	36232	
244	0	36080	
245	0	35880	
246	0	35652	
247	0	35460	
248	0	35236	
249	0	35024	
250	0	34816	
251	0	34568	
252	0	34294	
253	0	34082	
254	0	33940	
255	0	33812	
256	0	33672	
257	0	33480	
258	0	33256	
259	0	33104	
260	0	32968	
261	0	32832	
262	0	32644	
263	0	32416	
264	0	32240	
265	0	32068	
266	0	31888	
267	0	31652	
268	0	31502	
269	0	31408	
270	0	31272	
271	0	31144	
272	0	31088	
273	0	30988	
274	0	30896	
275	0	30856	
276	0	30784	
277	0	30672	
278	0	30600	
279	0	30512	
280	0	30368	
281	0	30272	
282	0	30160	
283	0	30076	
284	0	30052	
285	0	30012	
286	0	29968	
287	0	29932	
288	0	29892	
289	0	29892	
290	0	29864	
291	0	29856	
292	0	29880	
293	0	29916	
294	0	29928	
295	0	29844	
296	0	29772	
297	0	29752	
298	0	29732	
299	0	29748	
300	0	29720	
301	0	29720	
302	0	29764	
303	0	29800	
304	0	29812	
305	0	29816	
306	0	29816	
307	0	29796	
308	0	29836	
309	0	29820	
310	0	29828	
311	0	29816	
312	0	29790	
313	0	29752	
314	0	29756	
315	0	29800	
316	0	29874	
317	0	29904	
318	0	29940	
319	0	29952	
320	0	29988	
321	0	30032	
322	0	30084	
323	0	30116	
324	0	30122	
325	0	30192	
326	0	30232	
327	0	30244	
328	0	30196	
329	0	30224	
330	0	30232	
331	0	30240	
332	0	30280	
333	0	30332	
334	0	30320	
335	0	30272	
336	0	30304	
337	0	30364	
338	0	30396	
339	0	30426	
340	0	30500	
341	0	30492	
342	0	30472	
343	0	30520	
344	0	30524	
345	0	30520	
346	0	30548	
347	0	30594	
348	0	30560	
349	0	30596	
350	0	30656	
351	0	30748	
352	0	30776	
353	0	30836	
354	0	30842	
355	0	30832	
356	0	30824	
357	0	30864	
358	0	30820	
359	0	30768	
360	0	30808	
361	0	30824	
362	0	30840	
363	0	30864	
364	0	30912	
365	0	30928	
366	0	30952	
367	0	30952	
368	0	30938	
369	0	30980	
370	0	31028	
371	0	31036	
372	0	31026	
373	0	31028	
374	0	31048	
375	0	31112	
376	0	31112	
377	0	31108	
378	0	31096	
379	0	31122	
380	0	31164	
381	0	31164	
382	0	31152	
383	0	31164	
384	0	31176	
385	0	31196	
386	0	31228	
387	0	31256	
388	0	31264	
389	0	31256	
390	0	31208	
391	0	31224	
392	0	31312	
393	0	31404	
394	0	31456	
395	0	31476	
396	0	31464	
397	0	31428	
398	0	31388	
399	0	31424	
400	0	31396	
401	0	31388	
402	0	31440	
403	0	31486	
404	0	31538	
405	0	31528	
406	0	31504	
407	0	31488	
408	0	31448	
409	0	31468	
410	0	31482	
411	0	31444	
412	0	31464	
413	0	31512	
414	0	31548	
415	0	31536	
416	0	31496	
417	0	31472	
418	0	31484	
419	0	31508	
420	0	31520	
421	0	31464	
422	0	31424	
423	0	31416	
424	0	31472	
425	0	31540	
426	0	31546	
427	0	31572	
428	0	31608	
429	0	31604	
430	0	31520	
431	0	31444	
432	0	31364	
433	0	31348	
434	0	31420	
435	0	31500	
436	0	31544	
437	0	31564	
438	0	31596	
439	0	31592	
440	0	31576	
441	0	31588	
442	0	31604	
443	0	31632	
444	0	31644	
445	0	31680	
446	0	31684	
447	0	31718	
448	0	31736	
449	0	31732	
450	0	31720	
451	0	31720	
452	0	31690	
453	0	31724	
454	0	31748	
455	0	31760	
456	0	31716	
457	0	31676	
458	0	31624	
459	0	31600	
460	0	31632	
461	0	31688	
462	0	31708	
463	0	31751	
464	0	31712	
465	0	31692	
466	0	31672	
467	0	31664	
468	0	31736	
469	0	31776	
470	0	31762	
471	0	31740	
472	0	31760	
473	0	31768	
474	0	31770	
475	0	31792	
476	0	31808	
477	0	31922	
478	0	31956	
479	0	31812	
480	0	31692	
481	0	31664	
482	0	31634	
483	0	31712	
484	0	31780	
485	0	31804	
486	0	31824	
487	0	31812	
488	0	31888	
489	0	31940	
490	0	31976	
491	0	32008	
492	0	32104	
493	0	32208	
494	0	32244	
495	0	32308	
496	0	32408	
497	0	32572	
498	0	32764	
499	0	32960	
500	0	33260	
501	0	33504	
502	0	33576	
503	0	33640	
504	0	33784	
505	0	33888	
506	0	33964	
507	0	33952	
508	0	33896	
509	0	33916	
510	0	34004	
511	0	34088	
512	0	34112	
513	0	34060	
514	0	34054	
515	0	34092	
516	0	34132	
517	0	34181	
518	0	34256	
519	0	34396	
520	0	34432	
521	0	34456	
522	0	34512	
523	0	34508	
524	0	34556	
525	0	34612	
526	0	34600	
527	0	34600	
528	0	34632	
529	0	34732	
530	0	34760	
531	0	34794	
532	0	34908	
533	0	35088	
534	0	35228	
535	0	35328	
536	0	35344	
537	0	35180	
538	0	34994	
539	0	34862	
540	0	34720	
541	0	34548	
542	0	34328	
543	0	34084	
544	0	33906	
545	0	33736	
546	0	33556	
547	0	33448	
548	0	33388	
549	0	33252	
550	0	33080	
551	0	33004	
552	0	32992	
553	0	32914	
554	0	32828	
555	0	32836	
556	0	32810	
557	0	32760	
558	0	32680	
559	0	32592	
560	0	32496	
561	0	32456	
562	0	32416	
563	0	32360	
564	0	32308	
565	0	32252	
566	0	32216	
567	0	32140	
568	0	32060	
569	0	31946	
570	0	31820	
571	0	31724	
572	0	31700	
573	0	31640	
574	0	31552	
575	0	31456	
576	0	31332	
577	0	31224	
578	0	31136	
579	0	31072	
580	0	31028	
581	0	31008	
582	0	31008	
583	0	31036	
584	0	31124	
585	0	31140	
586	0	31088	
587	0	31044	
588	0	31044	
589	0	31088	
590	0	31088	
591	0	31060	
592	0	31042	
593	0	31016	
594	0	30980	
595	0	30960	
596	0	31024	
597	0	31104	
598	0	31120	
599	0	31102	
600	0	31108	
601	0	31104	
602	0	31096	
603	0	31068	
604	0	31136	
605	0	31208	
606	0	31248	
607	0	31220	
608	0	31140	
609	0	31132	
610	0	31136	
611	0	31120	
612	0	31124	
613	0	31142	
614	0	31188	
615	0	31240	
616	0	31236	
617	0	31272	
618	0	31332	
619	0	31272	
620	0	31256	
621	0	31264	
622	0	31284	
623	0	31340	
624	0	31360	
625	0	31392	
626	0	31380	
627	0	31412	
628	0	31444	
629	0	31489	
630	0	31560	
631	0	31584	
632	0	31592	
633	0	31600	
634	0	31640	
635	0	31684	
636	0	31662	
637	0	31656	
638	0	31696	
639	0	31736	
640	0	31778	
641	0	31812	
642	0	31832	
643	0	31868	
644	0	31896	
645	0	31896	
646	0	31884	
647	0	31796	
648	0	31712	
649	0	31584	
650	0	31416	
651	0	31248	
652	0	31124	
653	0	31028	
654	0	31048	
655	0	31144	
656	0	31288	
657	0	31528	
658	0	31920	
659	0	32500	
660	0	33136	
661	0	33840	
662	0	34656	
663	0	35588	
664	0	36590	
665	0	37756	
666	0	39104	
667	0	40566	
668	0	41960	
669	0	43296	
670	0	44724	
671	0	46168	
672	0	47664	
673	0	49236	
674	0	50744	
675	0	52092	
676	0	53304	
677	0	54496	
678	0	55788	
679	0	57024	
680	0	57944	
681	0	58676	
682	0	59144	
683	0	59344	
684	0	58708	
685	0	56920	
686	0	54352	
687	0	51204	
688	0	47816	
689	0	44440	
690	0	40896	
691	0	36984	
692	0	33034	
693	0	29714	
694	0	27488	
695	0	26172	
696	0	25480	
697	0	25180	
698	0	25184	
699	0	25404	
700	0	25736	
701	0	26100	
702	0	26580	
703	0	27200	
704	0	27804	
705	0	28364	
706	0	28956	
707	0	29500	
708	0	29974	
709	0	30408	
710	0	30784	
711	0	31052	
712	0	31230	
713	0	31236	
714	0	31180	
715	0	31156	
716	0	31092	
717	0	30976	
718	0	30872	
719	0	30820	
720	0	30752	
721	0	30640	
722	0	30612	
723	0	30620	
724	0	30656	
725	0	30724	
726	0	30736	
727	0	30704	
728	0	30670	
729	0	30604	
730	0	30572	
731	0	30590	
732	0	30652	
733	0	30704	
734	0	30720	
735	0	30732	
736	0	30796	
737	0	30816	
738	0	30764	
739	0	30728	
740	0	30732	
741	0	30752	
742	0	30772	
743	0	30801	
744	0	30828	
745	0	30856	
746	0	30858	
747	0	30840	
748	0	30826	
749	0	30844	
750	0	30860	
751	0	30912	
752	0	30920	
753	0	30930	
754	0	30964	
755	0	31028	
756	0	31068	
757	0	31040	
758	0	31056	
759	0	31088	
760	0	31112	
761	0	31020	
762	0	31008	
763	0	31024	
764	0	31020	
765	0	31050	
766	0	31096	
767	0	31168	
768	0	31258	
769	0	31332	
770	0	31380	
771	0	31428	
772	0	31492	
773	0	31534	
774	0	31464	
775	0	31480	
776	0	31496	
777	0	31528	
778	0	31576	
779	0	31620	
780	0	31630	
781	0	31676	
782	0	31684	
783	0	31708	
784	0	31776	
785	0	31808	
786	0	31840	
787	0	31812	
788	0	31840	
789	0	31856	
790	0	31928	
791	0	31968	
792	0	32012	
793	0	32040	
794	0	32040	
795	0	31996	
796	0	31986	
797	0	32056	
798	0	32200	
799	0	32356	
800	0	32404	
801	0	32386	
802	0	32358	
803	0	32384	
804	0	32412	
805	0	32456	
806	0	32546	
807	0	32604	
808	0	32604	
809	0	32596	
810	0	32596	
811	0	32632	
812	0	32632	
813	0	32644	
814	0	32644	
815	0	32688	
816	0	32740	
817	0	32748	
818	0	32796	
819	0	32820	
820	0	32796	
821	0	32760	
822	0	32824	
823	0	32876	
824	0	32886	
825	0	32848	
826	0	32840	
827	0	32888	
828	0	32958	
829	0	32996	
830	0	33004	
831	0	33028	
832	0	33096	
833	0	33148	
834	0	33190	
835	0	33212	
836	0	33252	
837	0	33280	
838	0	33348	
839	0	33460	
840	0	33540	
841	0	33572	
842	0	33556	
843	0	33548	
844	0	33620	
845	0	33672	
846	0	33664	
847	0	33656	
848	0	33764	
849	0	33838	
850	0	33844	
851	0	33820	
852	0	33816	
853	0	33832	
854	0	33872	
855	0	33972	
856	0	34080	
857	0	34200	
858	0	34312	
859	0	34392	
860	0	34408	
861	0	34428	
862	0	34476	
863	0	34504	
864	0	34544	
865	0	34600	
866	0	34632	
867	0	34740	
868	0	34848	
869	0	34880	
870	0	34952	
871	0	34992	
872	0	35000	
873	0	35086	
874	0	35200	
875	0	35234	
876	0	35290	
877	0	35404	
878	0	35512	
879	0	35544	
880	0	35592	
881	0	35648	
882	0	35710	
883	0	35768	
884	0	35908	
885	0	36000	
886	0	36096	
887	0	36208	
888	0	36264	
889	0	36332	
890	0	36404	
891	0	36512	
892	0	36586	
893	0	36632	
894	0	36636	
895	0	36684	
896	0	36720	
897	0	36848	
898	0	36968	
899	0	37048	
900	0	37092	
901	0	37174	
902	0	37244	
903	0	37272	
904	0	37308	
905	0	37344	
906	0	37416	
907	0	37480	
908	0	37532	
909	0	37540	
910	0	37552	
911	0	37612	
912	0	37692	
913	0	37788	
914	0	37800	
915	0	37804	
916	0	37816	
917	0	37824	
918	0	37820	
919	0	37860	
920	0	37896	
921	0	37952	
922	0	38072	
923	0	38208	
924	0	38176	
925	0	38072	
926	0	38072	
927	0	38096	
928	0	38056	
929	0	37948	
930	0	37872	
931	0	37848	
932	0	37768	
933	0	37676	
934	0	37600	
935	0	37506	
936	0	37440	
937	0	37324	
938	0	37172	
939	0	37100	
940	0	36960	
941	0	36808	
942	0	36608	
943	0	36380	
944	0	36136	
945	0	35960	
946	0	35816	
947	0	35676	
948	0	35538	
949	0	35360	
950	0	35144	
951	0	34852	
952	0	34640	
953	0	34508	
954	0	34348	
955	0	34138	
956	0	33928	
957	0	33696	
958	0	33512	
959	0	33392	
960	0	33212	
961	0	32972	
962	0	32744	
963	0	32514	
964	0	32324	
965	0	32184	
966	0	32080	
967	0	31898	
968	0	31704	
969	0	31504	
970	0	31336	
971	0	31176	
972	0	31056	
973	0	30976	
974	0	30848	
975	0	30732	
976	0	30592	
977	0	30488	
978	0	30400	
979	0	30296	
980	0	30132	
981	0	29992	
982	0	29948	
983	0	29904	
984	0	29816	
985	0	29756	
986	0	29760	
987	0	29748	
988	0	29712	
989	0	29696	
990	0	29628	
991	0	29564	
992	0	29536	
993	0	29532	
994	0	29496	
995	0	29464	
996	0	29424	
997	0	29344	
998	0	29324	
999	0	29372	
1000	0	29398	
1001	0	29324	
1002	0	29288	
1003	0	29272	
1004	0	29308	
1005	0	29282	
1006	0	29320	
1007	0	29344	
1008	0	29348	
1009	0	29416	
1010	0	29520	
1011	0	29596	
1012	0	29632	
1013	0	29624	
1014	0	29646	
1015	0	29592	
1016	0	29484	
1017	0	29408	
1018	0	29464	
1019	0	29556	
1020	0	29648	
1021	0	29660	
1022	0	29660	
1023	0	29728	
1024	0	29760	
1025	0	29820	
1026	0	29838	
1027	0	29788	
1028	0	29748	
1029	0	29744	
1030	0	29760	
1031	0	29852	
1032	0	29912	
1033	0	29930	
1034	0	29972	
1035	0	30024	
1036	0	30052	
1037	0	30044	
1038	0	30036	
1039	0	30040	
1040	0	30056	
1041	0	30064	
1042	0	30080	
1043	0	30122	
1044	0	30148	
1045	0	30176	
1046	0	30220	
1047	0	30252	
1048	0	30288	
1049	0	30396	
1050	0	30488	
1051	0	30450	
1052	0	30400	
1053	0	30400	
1054	0	30380	
1055	0	30400	
1056	0	30408	
1057	0	30440	
1058	0	30496	
1059	0	30510	
1060	0	30482	
1061	0	30508	
1062	0	30616	
1063	0	30716	
1064	0	30769	
1065	0	30824	
1066	0	30816	
1067	0	30780	
1068	0	30744	
1069	0	30728	
1070	0	30728	
1071	0	30740	
1072	0	30728	
1073	0	30744	
1074	0	30784	
1075	0	30796	
1076	0	30820	
1077	0	30806	
1078	0	30828	
1079	0	30872	
1080	0	30880	
1081	0	30924	
1082	0	30936	
1083	0	30940	
1084	0	30946	
1085	0	31004	
1086	0	31044	
1087	0	31064	
1088	0	31112	
1089	0	31136	
1090	0	31148	
1091	0	31108	
1092	0	31056	
1093	0	31028	
1094	0	31036	
1095	0	31040	
1096	0	31060	
1097	0	31158	
1098	0	31226	
1099	0	31252	
1100	0	31236	
1101	0	31236	
1102	0	31236	
1103	0	31224	
1104	0	31180	
1105	0	31160	
1106	0	31164	
1107	0	31208	
1108	0	31240	
1109	0	31268	
1110	0	31310	
1111	0	31376	
1112	0	31412	
1113	0	31400	
1114	0	31400	
1115	0	31430	
1116	0	31452	
1117	0	31436	
1118	0	31424	
1119	0	31392	
1120	0	31364	
1121	0	31328	
1122	0	31360	
1123	0	31392	
1124	0	31394	
1125	0	31384	
1126	0	31362	
1127	0	31392	
1128	0	31424	
1129	0	31472	
1130	0	31492	
1131	0	31440	
1132	0	31400	
1133	0	31404	
1134	0	31398	
1135	0	31442	
1136	0	31460	
1137	0	31456	
1138	0	31416	
1139	0	31448	
1140	0	31536	
1141	0	31496	
1142	0	31424	
1143	0	31422	
1144	0	31476	
1145	0	31480	
1146	0	31524	
1147	0	31584	
1148	0	31628	
1149	0	31604	
1150	0	31592	
1151	0	31640	
1152	0	31652	
1153	0	31676	
1154	0	31640	
1155	0	31628	
1156	0	31608	
1157	0	31600	
1158	0	31638	
1159	0	31624	
1160	0	31560	
1161	0	31560	
1162	0	31616	
1163	0	31656	
1164	0	31656	
1165	0	31648	
1166	0	31652	
1167	0	31660	
1168	0	31660	
1169	0	31620	
1170	0	31640	
1171	0	31676	
1172	0	31672	
1173	0	31700	
1174	0	31724	
1175	0	31748	
1176	0	31768	
1177	0	31792	
1178	0	31796	
1179	0	31770	
1180	0	31792	
1181	0	31820	
1182	0	31840	
1183	0	31828	
1184	0	31830	
1185	0	31842	
1186	0	31880	
1187	0	31880	
1188	0	31808	
1189	0	31764	
1190	0	31728	
1191	0	31724	
1192	0	31708	
1193	0	31712	
1194	0	31744	
1195	0	31756	
1196	0	31724	
1197	0	31712	
1198	0	31714	
1199	0	31712	
1200	0	31732	
1201	0	31724	
1202	0	31756	
1203	0	31832	
1204	0	31872	
1205	0	31864	
1206	0	31860	
1207	0	31892	
1208	0	31960	
1209	0	31982	
1210	0	31944	
1211	0	31930	
1212	0	31930	
1213	0	31940	
1214	0	31984	
1215	0	32000	
1216	0	32016	
1217	0	32040	
1218	0	32056	
1219	0	32080	
1220	0	32044	
1221	0	31972	
1222	0	31964	
1223	0	31972	
1224	0	32010	
1225	0	32048	
1226	0	32020	
1227	0	32048	
1228	0	32148	
1229	0	32224	
1230	0	32224	
1231	0	32192	
1232	0	32192	
1233	0	32204	
1234	0	32200	
1235	0	32224	
1236	0	32186	
1237	0	32108	
1238	0	32128	
1239	0	32192	
1240	0	32228	
1241	0	32238	
1242	0	32284	
1243	0	32328	
1244	0	32372	
1245	0	32484	
1246	0	32600	
1247	0	32644	
1248	0	32656	
1249	0	32724	
1250	0	32844	
1251	0	32996	
1252	0	33160	
1253	0	33324	
1254	0	33520	
1255	0	33760	
1256	0	33956	
1257	0	34116	
1258	0	34248	
1259	0	34276	
1260	0	34232	
1261	0	34208	
1262	0	34188	
1263	0	34212	
1264	0	34308	
1265	0	34388	
1266	0	34392	
1267	0	34412	
1268	0	34456	
1269	0	34496	
1270	0	34516	
1271	0	34560	
1272	0	34652	
1273	0	34744	
1274	0	34892	
1275	0	35008	
1276	0	35120	
1277	0	35210	
1278	0	35224	
1279	0	35204	
1280	0	35220	
1281	0	35208	
1282	0	35152	
1283	0	35144	
1284	0	35264	
1285	0	35380	
1286	0	35444	
1287	0	35472	
1288	0	35564	
1289	0	35656	
1290	0	35632	
1291	0	35540	
1292	0	35368	
1293	0	35252	
1294	0	35164	
1295	0	35052	
1296	0	34874	
1297	0	34636	
1298	0	34428	
1299	0	34260	
1300	0	34084	
1301	0	33932	
1302	0	33820	
1303	0	33706	
1304	0	33628	
1305	0	33536	
1306	0	33508	
1307	0	33504	
1308	0	33540	
1309	0	33532	
1310	0	33556	
1311	0	33522	
1312	0	33440	
1313	0	33288	
1314	0	33180	
1315	0	33100	
1316	0	32992	
1317	0	32884	
1318	0	32780	
1319	0	32704	
1320	0	32624	
1321	0	32564	
1322	0	32526	
1323	0	32494	
1324	0	32408	
1325	0	32288	
1326	0	32136	
1327	0	32036	
1328	0	31992	
1329	0	31960	
1330	0	31792	
1331	0	31584	
1332	0	31424	
1333	0	31360	
1334	0	31340	
1335	0	31348	
1336	0	31420	
1337	0	31420	
1338	0	31340	
1339	0	31248	
1340	0	31280	
1341	0	31312	
1342	0	31316	
1343	0	31354	
1344	0	31312	
1345	0	31296	
1346	0	31324	
1347	0	31364	
1348	0	31428	
1349	0	31452	
1350	0	31412	
1351	0	31432	
1352	0	31468	
1353	0	31488	
1354	0	31500	
1355	0	31508	
1356	0	31540	
1357	0	31584	
1358	0	31570	
1359	0	31540	
1360	0	31464	
1361	0	31440	
1362	0	31445	
1363	0	31432	
1364	0	31432	
1365	0	31432	
1366	0	31480	
1367	0	31472	
1368	0	31452	
1369	0	31492	
1370	0	31504	
1371	0	31488	
1372	0	31520	
1373	0	31572	
1374	0	31632	
1375	0	31680	
1376	0	31704	
1377	0	31720	
1378	0	31740	
1379	0	31751	
1380	0	31784	
1381	0	31784	
1382	0	31832	
1383	0	31892	
1384	0	31930	
1385	0	31968	
1386	0	31962	
1387	0	31944	
1388	0	31952	
1389	0	31892	
1390	0	31820	
1391	0	31800	
1392	0	31844	
1393	0	31898	
1394	0	31920	
1395	0	31920	
1396	0	31940	
1397	0	31996	
1398	0	32020	
1399	0	31980	
1400	0	31906	
1401	0	31820	
1402	0	31684	
1403	0	31544	
1404	0	31300	
1405	0	31176	
1406	0	31236	
1407	0	31356	
1408	0	31514	
1409	0	31760	
1410	0	32124	
1411	0	32632	
1412	0	33136	
1413	0	33772	
1414	0	34572	
1415	0	35500	
1416	0	36500	
1417	0	37588	
1418	0	38884	
1419	0	40292	
1420	0	41676	
1421	0	43024	
1422	0	44432	
1423	0	45860	
1424	0	47310	
1425	0	48856	
1426	0	50384	
1427	0	51856	
1428	0	53160	
1429	0	54328	
1430	0	55516	
1431	0	56688	
1432	0	57592	
1433	0	58280	
1434	0	58716	
1435	0	58956	
1436	0	58464	
1437	0	56848	
1438	0	54480	
1439	0	51528	
1440	0	48192	
1441	0	44844	
1442	0	41392	
1443	0	37644	
1444	0	33764	
1445	0	30384	
1446	0	28040	
1447	0	26672	
1448	0	26012	
1449	0	25692	
1450	0	25580	
1451	0	25736	
1452	0	26040	
1453	0	26488	
1454	0	27014	
1455	0	27608	
1456	0	28128	
1457	0	28676	
1458	0	29240	
1459	0	29748	
1460	0	30216	
1461	0	30656	
1462	0	30992	
1463	0	31128	
1464	0	31248	
1465	0	31328	
1466	0	31320	
1467	0	31226	
1468	0	31164	
1469	0	31132	
1470	0	31088	
1471	0	31044	
1472	0	31052	
1473	0	31032	
1474	0	30908	
1475	0	30828	
1476	0	30792	
1477	0	30776	
1478	0	30784	
1479	0	30764	
1480	0	30778	
1481	0	30736	
1482	0	30624	
1483	0	30616	
1484	0	30656	
1485	0	30712	
1486	0	30740	
1487	0	30736	
1488	0	30722	
1489	0	30744	
1490	0	30740	
1491	0	30744	
1492	0	30744	
1493	0	30784	
1494	0	30816	
1495	0	30864	
1496	0	30888	
1497	0	30864	
1498	0	30880	
1499	0	30836	
1500	0	30836	
1501	0	30900	
1502	0	30976	
1503	0	31000	
1504	0	30996	
1505	0	31008	
1506	0	31000	
1507	0	30976	
1508	0	30968	
1509	0	31036	
1510	0	31072	
1511	0	31018	
1512	0	30996	
1513	0	31048	
1514	0	31132	
1515	0	31216	
1516	0	31276	
1517	0	31236	
1518	0	31220	
1519	0	31228	
1520	0	31296	
1521	0	31388	
1522	0	31376	
1523	0	31376	
1524	0	31408	
1525	0	31436	
1526	0	31444	
1527	0	31488	
1528	0	31494	
1529	0	31456	
1530	0	31512	
1531	0	31616	
1532	0	31660	
1533	0	31692	
1534	0	31780	
1535	0	31848	
1536	0	31916	
1537	0	31904	
1538	0	31868	
1539	0	31808	
1540	0	31832	
1541	0	31920	
1542	0	31968	
1543	0	31996	
1544	0	32048	
1545	0	32156	
1546	0	32248	
1547	0	32288	
1548	0	32236	
1549	0	32204	
1550	0	32212	
1551	0	32296	
1552	0	32344	
1553	0	32296	
1554	0	32262	
1555	0	32276	
1556	0	32316	
1557	0	32346	
1558	0	32354	
1559	0	32346	
1560	0	32352	
1561	0	32424	
1562	0	32490	
1563	0	32548	
1564	0	32608	
1565	0	32616	
1566	0	32580	
1567	0	32618	
1568	0	32704	
1569	0	32744	
1570	0	32748	
1571	0	32780	
1572	0	32808	
1573	0	32852	
1574	0	32920	
1575	0	32994	
1576	0	33024	
1577	0	33012	
1578	0	33028	
1579	0	33026	
1580	0	33036	
1581	0	33040	
1582	0	33028	
1583	0	33048	
1584	0	33096	
1585	0	33104	
1586	0	33164	
1587	0	33220	
1588	0	33252	
1589	0	33264	
1590	0	33276	
1591	0	33312	
1592	0	33320	
1593	0	33380	
1594	0	33444	
1595	0	33492	
1596	0	33546	
1597	0	33584	
1598	0	33610	
1599	0	33624	
1600	0	33640	
1601	0	33696	
1602	0	33720	
1603	0	33728	
1604	0	33776	
1605	0	33848	
1606	0	33908	
1607	0	33928	
1608	0	33972	
1609	0	34016	
1610	0	34100	
1611	0	34176	
1612	0	34220	
1613	0	34212	
1614	0	34228	
1615	0	34328	
1616	0	34436	
1617	0	34496	
1618	0	34508	
1619	0	34508	
1620	0	34596	
1621	0	34744	
1622	0	34886	
1623	0	35008	
1624	0	35024	
1625	0	34992	
1626	0	35010	
1627	0	35100	
1628	0	35224	
1629	0	35320	
1630	0	35368	
1631	0	35400	
1632	0	35448	
1633	0	35496	
1634	0	35504	
1635	0	35568	
1636	0	35664	
1637	0	35752	
1638	0	35852	
1639	0	35932	
1640	0	35988	
1641	0	36058	
1642	0	36132	
1643	0	36228	
1644	0	36244	
1645	0	36304	
1646	0	36404	
1647	0	36528	
1648	0	36604	
1649	0	36668	
1650	0	36666	
1651	0	36732	
1652	0	36864	
1653	0	36960	
1654	0	37032	
1655	0	37084	
1656	0	37180	
1657	0	37280	
1658	0	37372	
1659	0	37448	
1660	0	37462	
1661	0	37464	
1662	0	37484	
1663	0	37532	
1664	0	37612	
1665	0	37692	
1666	0	37784	
1667	0	37844	
1668	0	37920	
1669	0	38000	
1670	0	38068	
1671	0	38116	
1672	0	38184	
1673	0	38164	
1674	0	38097	
1675	0	38114	
1676	0	38152	
1677	0	38222	
1678	0	38240	
1679	0	38240	
1680	0	38200	
1681	0	38164	
1682	0	38120	
1683	0	38084	
1684	0	38024	
1685	0	38020	
1686	0	37952	
1687	0	37808	
1688	0	37680	
1689	0	37572	
1690	0	37484	
1691	0	37400	
1692	0	37300	
1693	0	37120	
1694	0	36934	
1695	0	36792	
1696	0	36636	
1697	0	36476	
1698	0	36304	
1699	0	36124	
1700	0	35980	
1701	0	35832	
1702	0	35632	
1703	0	35404	
1704	0	35192	
1705	0	34992	
1706	0	34756	
1707	0	34548	
1708	0	34384	
1709	0	34228	
1710	0	34076	
1711	0	33860	
1712	0	33636	
1713	0	33426	
1714	0	33216	
1715	0	33044	
1716	0	32860	
1717	0	32700	
1718	0	32580	
1719	0	32412	
1720	0	32154	
1721	0	31944	
1722	0	31780	
1723	0	31644	
1724	0	31520	
1725	0	31392	
1726	0	31232	
1727	0	31068	
1728	0	30922	
1729	0	30788	
1730	0	30682	
1731	0	30568	
1732	0	30506	
1733	0	30448	
1734	0	30332	
1735	0	30228	
1736	0	30144	
1737	0	30048	
1738	0	29984	
1739	0	29912	
1740	0	29856	
1741	0	29836	
1742	0	29822	
1743	0	29772	
1744	0	29684	
1745	0	29608	
1746	0	29524	
1747	0	29508	
1748	0	29524	
1749	0	29528	
1750	0	29496	
1751	0	29410	
1752	0	29356	
1753	0	29380	
1754	0	29372	
1755	0	29348	
1756	0	29368	
1757	0	29440	
1758	0	29466	
1759	0	29456	
1760	0	29448	
1761	0	29460	
1762	0	29464	
1763	0	29472	
1764	0	29456	
1765	0	29492	
1766	0	29482	
1767	0	29456	
1768	0	29486	
1769	0	29516	
1770	0	29560	
1771	0	29594	
1772	0	29620	
1773	0	29644	
1774	0	29664	
1775	0	29700	
1776	0	29680	
1777	0	29696	
1778	0	29788	
1779	0	29860	
1780	0	29844	
1781	0	29808	
1782	0	29820	
1783	0	29860	
1784	0	29890	
1785	0	29892	
1786	0	29892	
1787	0	29908	
1788	0	30000	
1789	0	30084	
1790	0	30056	
1791	0	30032	
1792	0	30012	
1793	0	30002	
1794	0	30036	
1795	0	30074	
1796	0	30084	
1797	0	30152	
1798	0	30224	
1799	0	30280	
1800	0	30352	
1801	0	30432	
1802	0	30476	
1803	0	30444	
1804	0	30444	
1805	0	30462	
1806	0	30480	
1807	0	30496	
1808	0	30472	
1809	0	30432	
1810	0	30448	
1811	0	30500	
1812	0	30528	
1813	0	30532	
1814	0	30592	
1815	0	30616	
1816	0	30616	
1817	0	30576	
1818	0	30572	
1819	0	30548	
1820	0	30564	
1821	0	30596	
1822	0	30624	
1823	0	30668	
1824	0	30696	
1825	0	30742	
1826	0	30780	
1827	0	30792	
1828	0	30814	
1829	0	30856	
1830	0	30892	
1831	0	30900	
1832	0	30892	
1833	0	30876	
1834	0	30856	
1835	0	30872	
1836	0	30872	
1837	0	30840	
1838	0	30856	
1839	0	30894	
1840	0	30892	
1841	0	30904	
1842	0	30916	
1843	0	30948	
1844	0	30996	
1845	0	31040	
1846	0	31044	
1847	0	31044	
1848	0	31012	
1849	0	31068	
1850	0	31140	
1851	0	31104	
1852	0	31076	
1853	0	31068	
1854	0	31124	
1855	0	31200	
1856	0	31240	
1857	0	31232	
1858	0	31200	
1859	0	31148	
1860	0	31140	
1861	0	31136	
1862	0	31168	
1863	0	31128	
1864	0	31074	
1865	0	31052	
1866	0	31160	
1867	0	31212	
1868	0	31232	
1869	0	31220	
1870	0	31200	
1871	0	31196	
1872	0	31232	
1873	0	31176	
1874	0	31140	
1875	0	31152	
1876	0	31236	
1877	0	31264	
1878	0	31228	
1879	0	31248	
1880	0	31312	
1881	0	31320	
1882	0	31276	
1883	0	31228	
1884	0	31168	
1885	0	31176	
1886	0	31256	
1887	0	31358	
1888	0	31400	
1889	0	31376	
1890	0	31368	
1891	0	31388	
1892	0	31388	
1893	0	31346	
1894	0	31300	
1895	0	31312	
1896	0	31376	
1897	0	31336	
1898	0	31344	
1899	0	31352	
1900	0	31332	
1901	0	31370	
1902	0	31404	
1903	0	31424	
1904	0	31471	
1905	0	31496	
1906	0	31496	
1907	0	31492	
1908	0	31486	
1909	0	31516	
1910	0	31508	
1911	0	31452	
1912	0	31424	
1913	0	31456	
1914	0	31460	
1915	0	31392	
1916	0	31380	
1917	0	31432	
1918	0	31440	
1919	0	31436	
1920	0	31460	
1921	0	31508	
1922	0	31520	
1923	0	31520	
1924	0	31502	
1925	0	31554	
1926	0	31572	
1927	0	31556	
1928	0	31536	
1929	0	31504	
1930	0	31528	
1931	0	31601	
1932	0	31672	
1933	0	31692	
1934	0	31738	
1935	0	31744	
1936	0	31712	
1937	0	31688	
1938	0	31668	
1939	0	31680	
1940	0	31720	
1941	0	31772	
1942	0	31752	
1943	0	31700	
1944	0	31656	
1945	0	31656	
1946	0	31646	
1947	0	31600	
1948	0	31636	
1949	0	31712	
1950	0	31788	
1951	0	31812	
1952	0	31816	
1953	0	31808	
1954	0	31808	
1955	0	31800	
1956	0	31808	
1957	0	31844	
1958	0	31834	
1959	0	31844	
1960	0	31838	
1961	0	31820	
1962	0	31824	
1963	0	31800	
1964	0	31784	
1965	0	31796	
1966	0	31800	
1967	0	31792	
1968	0	31820	
1969	0	31860	
1970	0	31866	
1971	0	31826	
1972	0	31848	
1973	0	31892	
1974	0	31940	
1975	0	31968	
1976	0	31928	
1977	0	31896	
1978	0	31920	
1979	0	32000	
1980	0	32064	
1981	0	32052	
1982	0	32088	
1983	0	32024	
1984	0	31952	
1985	0	31924	
1986	0	31936	
1987	0	31968	
1988	0	32030	
1989	0	32096	
1990	0	32120	
1991	0	32116	
1992	0	32120	
1993	0	32184	
1994	0	32200	
1995	0	32168	
1996	0	32144	
1997	0	32144	
1998	0	32248	
1999	0	32224	
2000	0	32204	
2001	0	32216	
2002	0	32216	
2003	0	32240	
2004	0	32308	
2005	0	32348	
2006	0	32320	
2007	0	32312	
2008	0	32296	
2009	0	32272	
2010	0	32288	
2011	0	32312	
2012	0	32298	
2013	0	32284	
2014	0	32352	
2015	0	32388	
2016	0	32364	
2017	0	32338	
2018	0	32368	
2019	0	32376	
2020	0	32376	
2021	0	32396	
2022	0	32424	
2023	0	32382	
2024	0	32348	
2025	0	32352	
2026	0	32320	
2027	0	32320	
2028	0	32372	
2029	0	32376	
2030	0	32364	
2031	0	32380	
2032	0	32496	
2033	0	32620	
2034	0	32680	
2035	0	32744	
2036	0	32804	
2037	0	32928	
2038	0	33080	
2039	0	33208	
2040	0	33376	
2041	0	33612	
2042	0	33772	
2043	0	33928	
2044	0	34100	
2045	0	34240	
2046	0	34304	
2047	0	34280	
2048	0	34212	
2049	0	34168	
2050	0	34170	
2051	0	34216	
2052	0	34348	
2053	0	34376	
2054	0	34368	
2055	0	34416	
2056	0	34456	
2057	0	34492	
2058	0	34508	
2059	0	34512	
2060	0	34634	
2061	0	34808	
2062	0	34900	
2063	0	35018	
2064	0	35208	
2065	0	35304	
2066	0	35300	
2067	0	35296	
2068	0	35320	
2069	0	35244	
2070	0	35156	
2071	0	35180	
2072	0	35268	
2073	0	35432	
2074	0	35580	
2075	0	35644	
2076	0	35756	
2077	0	35844	
2078	0	35836	
2079	0	35744	
2080	0	35580	
2081	0	35446	
2082	0	35244	
2083	0	34980	
2084	0	34710	
2085	0	34526	
2086	0	34336	
2087	0	34160	
2088	0	33944	
2089	0	33876	
2090	0	33848	
2091	0	33768	
2092	0	33728	
2093	0	33660	
2094	0	33576	
2095	0	33540	
2096	0	33516	
2097	0	33528	
2098	0	33556	
2099	0	33560	
2100	0	33504	
2101	0	33390	
2102	0	33240	
2103	0	33172	
2104	0	33068	
2105	0	33000	
2106	0	32956	
2107	0	32912	
2108	0	32772	
2109	0	32612	
2110	0	32460	
2111	0	32392	
2112	0	32352	
2113	0	32276	
2114	0	32204	
2115	0	32056	
2116	0	31852	
2117	0	31656	
2118	0	31556	
2119	0	31426	
2120	0	31356	
2121	0	31316	
2122	0	31312	
2123	0	31320	
2124	0	31400	
2125	0	31412	
2126	0	31380	
2127	0	31436	
2128	0	31476	
2129	0	31496	
2130	0	31524	
2131	0	31532	
2132	0	31520	
2133	0	31472	
2134	0	31464	
2135	0	31480	
2136	0	31544	
2137	0	31582	
2138	0	31564	
2139	0	31560	
2140	0	31520	
2141	0	31520	
2142	0	31536	
2143	0	31540	
2144	0	31584	
2145	0	31630	
2146	0	31676	
2147	0	31662	
2148	0	31660	
2149	0	31672	
2150	0	31668	
2151	0	31658	
2152	0	31668	
2153	0	31652	
2154	0	31644	
2155	0	31664	
2156	0	31640	
2157	0	31600	
2158	0	31556	
2159	0	31552	
2160	0	31580	
2161	0	31584	
2162	0	31652	
2163	0	31664	
2164	0	31668	
2165	0	31672	
2166	0	31696	
2167	0	31762	
2168	0	31836	
2169	0	31868	
2170	0	31872	
2171	0	31912	
2172	0	31936	
2173	0	31996	
2174	0	32032	
2175	0	32040	
2176	0	32008	
2177	0	31992	
2178	0	32028	
2179	0	32080	
2180	0	32104	
2181	0	32148	
2182	0	32264	
2183	0	32232	
2184	0	32160	
2185	0	32104	
2186	0	32056	
2187	0	31952	
2188	0	31816	
2189	0	31668	
2190	0	31508	
2191	0	31358	
2192	0	31244	
2193	0	31240	
2194	0	31368	
2195	0	31508	
2196	0	31704	
2197	0	32048	
2198	0	32568	
2199	0	33152	
2200	0	33752	
2201	0	34508	
2202	0	35396	
2203	0	36376	
2204	0	37472	
2205	0	38796	
2206	0	40256	
2207	0	41692	
2208	0	43068	
2209	0	44468	
2210	0	45952	
2211	0	47464	
2212	0	48996	
2213	0	50512	
2214	0	51928	
2215	0	53256	
2216	0	54536	
2217	0	55804	
2218	0	56948	
2219	0	57828	
2220	0	58528	
2221	0	58928	
2222	0	59080	
2223	0	58404	
2224	0	56748	
2225	0	54304	
2226	0	51200	
2227	0	47784	
2228	0	44488	
2229	0	41072	
2230	0	37352	
2231	0	33580	
2232	0	30340	
2233	0	28044	
2234	0	26704	
2235	0	26052	
2236	0	25780	
2237	0	25810	
2238	0	25968	
2239	0	26196	
2240	0	26592	
2241	0	27028	
2242	0	27488	
2243	0	27984	
2244	0	28568	
2245	0	29112	
2246	0	29540	
2247	0	29948	
2248	0	30336	
2249	0	30664	
2250	0	30928	
2251	0	31120	
2252	0	31230	
2253	0	31292	
2254	0	31320	
2255	0	31240	
2256	0	31084	
2257	0	31000	
2258	0	31000	
2259	0	30958	
2260	0	30852	
2261	0	30792	
2262	0	30768	
2263	0	30756	
2264	0	30712	
2265	0	30692	
2266	0	30676	
2267	0	30698	
2268	0	30672	
2269	0	30656	
2270	0	30650	
2271	0	30672	
2272	0	30668	
2273	0	30696	
2274	0	30772	
2275	0	30820	
2276	0	30788	
2277	0	30772	
2278	0	30746	
2279	0	30730	
2280	0	30712	
2281	0	30758	
2282	0	30744	
2283	0	30736	
2284	0	30776	
2285	0	30816	
2286	0	30848	
2287	0	30864	
2288	0	30848	
2289	0	30820	
2290	0	30776	
2291	0	30768	
2292	0	30778	
2293	0	30840	
2294	0	30956	
2295	0	31044	
2296	0	31108	
2297	0	31136	
2298	0	31138	
2299	0	31108	
2300	0	31076	
2301	0	31124	
2302	0	31188	
2303	0	31240	
2304	0	31272	
2305	0	31284	
2306	0	31280	
2307	0	31364	
2308	0	31416	
2309	0	31404	
2310	0	31442	
2311	0	31456	
2312	0	31494	
2313	0	31564	
2314	0	31572	
2315	0	31528	
2316	0	31532	
2317	0	31572	
2318	0	31636	
2319	0	31680	
2320	0	31700	
2321	0	31692	
2322	0	31682	
2323	0	31640	
2324	0	31696	
2325	0	31776	
2326	0	31860	
2327	0	31904	
2328	0	31908	
2329	0	31900	
2330	0	31924	
2331	0	31932	
2332	0	31956	
2333	0	32072	
2334	0	32152	
2335	0	32168	
2336	0	32160	
2337	0	32138	
2338	0	32160	
2339	0	32172	
2340	0	32220	
2341	0	32312	
2342	0	32420	
2343	0	32420	
2344	0	32328	
2345	0	32304	
2346	0	32364	
2347	0	32408	
2348	0	32412	
2349	0	32392	
2350	0	32346	
2351	0	32398	
2352	0	32504	
2353	0	32628	
2354	0	32668	
2355	0	32632	
2356	0	32616	
2357	0	32608	
2358	0	32588	
2359	0	32568	
2360	0	32612	
2361	0	32692	
2362	0	32832	
2363	0	32908	
2364	0	32880	
2365	0	32824	
2366	0	32788	
2367	0	32788	
2368	0	32832	
2369	0	32896	
2370	0	32976	
2371	0	33024	
2372	0	33064	
2373	0	33120	
2374	0	33148	
2375	0	33166	
2376	0	33192	
2377	0	33212	
2378	0	33234	
2379	0	33324	
2380	0	33332	
2381	0	33316	
2382	0	33332	
2383	0	33420	
2384	0	33436	
2385	0	33464	
2386	0	33496	
2387	0	33532	
2388	0	33568	
2389	0	33610	
2390	0	33616	
2391	0	33616	
2392	0	33660	
2393	0	33672	
2394	0	33724	
2395	0	33824	
2396	0	33880	
2397	0	33952	
2398	0	34012	
2399	0	34056	
2400	0	34098	
2401	0	34176	
2402	0	34224	
2403	0	34300	
2404	0	34352	
2405	0	34396	
2406	0	34456	
2407	0	34468	
2408	0	34532	
2409	0	34600	
2410	0	34660	
2411	0	34720	
2412	0	34760	
2413	0	34850	
2414	0	34932	
2415	0	35008	
2416	0	35100	
2417	0	35220	
2418	0	35312	
2419	0	35388	
2420	0	35452	
2421	0	35476	
2422	0	35552	
2423	0	35612	
2424	0	35652	
2425	0	35680	
2426	0	35712	
2427	0	35784	
2428	0	35880	
2429	0	35944	
2430	0	36008	
2431	0	36084	
2432	0	36176	
2433	0	36224	
2434	0	36272	
2435	0	36330	
2436	0	36412	
2437	0	36452	
2438	0	36496	
2439	0	36564	
2440	0	36668	
2441	0	36860	
2442	0	36944	
2443	0	36972	
2444	0	37012	
2445	0	37076	
2446	0	37160	
2447	0	37276	
2448	0	37332	
2449	0	37352	
2450	0	37296	
2451	0	37272	
2452	0	37372	
2453	0	37472	
2454	0	37504	
2455	0	37520	
2456	0	37536	
2457	0	37584	
2458	0	37648	
2459	0	37712	
2460	0	37732	
2461	0	37768	
2462	0	37800	
2463	0	37888	
2464	0	37976	
2465	0	38016	
2466	0	37984	
2467	0	37964	
2468	0	37940	
2469	0	37868	
2470	0	37820	
2471	0	37746	
2472	0	37728	
2473	0	37732	
2474	0	37672	
2475	0	37604	
2476	0	37552	
2477	0	37468	
2478	0	37380	
2479	0	37284	
2480	0	37164	
2481	0	37028	
2482	0	36824	
2483	0	36668	
2484	0	36476	
2485	0	36280	
2486	0	36096	
2487	0	35876	
2488	0	35680	
2489	0	35512	
2490	0	35320	
2491	0	35120	
2492	0	34924	
2493	0	34784	
2494	0	34594	
2495	0	34406	
2496	0	34188	
2497	0	33956	
2498	0	33768	
2499	0	33602	
2500	0	33356	
2501	0	33092	
2502	0	32896	
2503	0	32740	
2504	0	32606	
2505	0	32464	
2506	0	32280	
2507	0	32090	
2508	0	31936	
2509	0	31752	
2510	0	31592	
2511	0	31436	
2512	0	31316	
2513	0	31200	
2514	0	31072	
2515	0	30928	
2516	0	30792	
2517	0	30658	
2518	0	30560	
2519	0	30468	
2520	0	30364	
2521	0	30272	
2522	0	30144	
2523	0	30040	
2524	0	29984	
2525	0	29972	
2526	0	29848	
2527	0	29740	
2528	0	29724	
2529	0	29608	
2530	0	29484	
2531	0	29496	
2532	0	29476	
2533	0	29408	
2534	0	29410	
2535	0	29416	
2536	0	29364	
2537	0	29332	
2538	0	29304	
2539	0	29300	
2540	0	29248	
2541	0	29240	
2542	0	29264	
2543	0	29216	
2544	0	29162	
2545	0	29180	
2546	0	29188	
2547	0	29210	
2548	0	29240	
2549	0	29284	
2550	0	29296	
2551	0	29296	
2552	0	29312	
2553	0	29280	
2554	0	29210	
2555	0	29166	
2556	0	29200	
2557	0	29248	
2558	0	29268	
2559	0	29280	
2560	0	29332	
2561	0	29368	
2562	0	29384	
2563	0	29436	
2564	0	29492	
2565	0	29498	
2566	0	29550	
2567	0	29572	
2568	0	29570	
2569	0	29592	
2570	0	29658	
2571	0	29728	
2572	0	29780	
2573	0	29756	
2574	0	29748	
2575	0	29788	
2576	0	29788	
2577	0	29784	
2578	0	29820	
2579	0	29914	
2580	0	29976	
2581	0	30004	
2582	0	30036	
2583	0	30036	
2584	0	30028	
2585	0	30048	
2586	0	30076	
2587	0	30060	
2588	0	30068	
2589	0	30096	
2590	0	30140	
2591	0	30160	
2592	0	30168	
2593	0	30196	
2594	0	30256	
2595	0	30280	
2596	0	30296	
2597	0	30312	
2598	0	30300	
2599	0	30276	
2600	0	30294	
2601	0	30312	
2602	0	30364	
2603	0	30432	
2604	0	30480	
2605	0	30520	
2606	0	30504	
2607	0	30508	
2608	0	30548	
2609	0	30656	
2610	0	30682	
2611	0	30564	
2612	0	30468	
2613	0	30476	
2614	0	30522	
2615	0	30584	
2616	0	30608	
2617	0	30588	
2618	0	30624	
2619	0	30752	
2620	0	30828	
2621	0	30796	
2622	0	30744	
2623	0	30732	
2624	0	30796	
2625	0	30848	
2626	0	30876	
2627	0	30856	
2628	0	30788	
2629	0	30780	
2630	0	30860	
2631	0	30912	
2632	0	30944	
2633	0	30960	
2634	0	30944	
2635	0	30964	
2636	0	31002	
2637	0	31024	
2638	0	31016	
2639	0	30988	
2640	0	31064	
2641	0	31108	
2642	0	31024	
2643	0	30964	
2644	0	30980	
2645	0	31016	
2646	0	31060	
2647	0	31120	
2648	0	31152	
2649	0	31132	
2650	0	31088	
2651	0	31108	
2652	0	31064	
2653	0	30992	
2654	0	31072	
2655	0	31188	
2656	0	31208	
2657	0	31184	
2658	0	31176	
2659	0	31164	
2660	0	31168	
2661	0	31192	
2662	0	31216	
2663	0	31256	
2664	0	31288	
2665	0	31292	
2666	0	31314	
2667	0	31336	
2668	0	31336	
2669	0	31376	
2670	0	31396	
2671	0	31426	
2672	0	31456	
2673	0	31404	
2674	0	31320	
2675	0	31320	
2676	0	31280	
2677	0	31256	
2678	0	31264	
2679	0	31312	
2680	0	31340	
2681	0	31320	
2682	0	31280	
2683	0	31348	
2684	0	31400	
2685	0	31384	
2686	0	31416	
2687	0	31444	
2688	0	31420	
2689	0	31424	
2690	0	31376	
2691	0	31344	
2692	0	31360	
2693	0	31408	
2694	0	31520	
2695	0	31588	
2696	0	31576	
2697	0	31536	
2698	0	31528	
2699	0	31508	
2700	0	31484	
2701	0	31456	
2702	0	31432	
2703	0	31452	
2704	0	31448	
2705	0	31528	
2706	0	31628	
2707	0	31664	
2708	0	31656	
2709	0	31642	
2710	0	31676	
2711	0	31760	
2712	0	31776	
2713	0	31756	
2714	0	31712	
2715	0	31696	
2716	0	31740	
2717	0	31716	
2718	0	31636	
2719	0	31642	
2720	0	31620	
2721	0	31584	
2722	0	31592	
2723	0	31656	
2724	0	31656	
2725	0	31608	
2726	0	31630	
2727	0	31688	
2728	0	31700	
2729	0	31704	
2730	0	31732	
2731	0	31766	
2732	0	31808	
2733	0	31832	
2734	0	31812	
2735	0	31780	
2736	0	31792	
2737	0	31748	
2738	0	31664	
2739	0	31656	
2740	0	31676	
2741	0	31704	
2742	0	31736	
2743	0	31776	
2744	0	31762	
2745	0	31762	
2746	0	31808	
2747	0	31856	
2748	0	31872	
2749	0	31904	
2750	0	31936	
2751	0	31928	
2752	0	31858	
2753	0	31884	
2754	0	31896	
2755	0	31900	
2756	0	31932	
2757	0	31948	
2758	0	31957	
2759	0	31980	
2760	0	31876	
2761	0	31824	
2762	0	31916	
2763	0	31944	
2764	0	31928	
2765	0	31948	
2766	0	31964	
2767	0	31984	
2768	0	31984	
2769	0	32008	
2770	0	32032	
2771	0	32020	
2772	0	31976	
2773	0	31976	
2774	0	31990	
2775	0	31984	
2776	0	32016	
2777	0	32064	
2778	0	32084	
2779	0	32096	
2780	0	32176	
2781	0	32208	
2782	0	32220	
2783	0	32260	
2784	0	32260	
2785	0	32304	
2786	0	32352	
2787	0	32292	
2788	0	32232	
2789	0	32212	
2790	0	32192	
2791	0	32208	
2792	0	32260	
2793	0	32314	
2794	0	32353	
2795	0	32348	
2796	0	32336	
2797	0	32424	
2798	0	32504	
2799	0	32412	
2800	0	32320	
2801	0	32304	
2802	0	32340	
2803	0	32400	
2804	0	32444	
2805	0	32456	
2806	0	32448	
2807	0	32404	
2808	0	32328	
2809	0	32304	
2810	0	32312	
2811	0	32320	
2812	0	32368	
2813	0	32400	
2814	0	32420	
2815	0	32468	
2816	0	32544	
2817	0	32628	
2818	0	32661	
2819	0	32696	
2820	0	32796	
2821	0	32968	
2822	0	33124	
2823	0	33268	
2824	0	33476	
2825	0	33684	
2826	0	33856	
2827	0	34040	
2828	0	34196	
2829	0	34272	
2830	0	34272	
2831	0	34192	
2832	0	34170	
2833	0	34204	
2834	0	34216	
2835	0	34250	
2836	0	34256	
2837	0	34276	
2838	0	34312	
2839	0	34380	
2840	0	34456	
2841	0	34544	
2842	0	34656	
2843	0	34748	
2844	0	34816	
2845	0	34888	
2846	0	34984	
2847	0	35068	
2848	0	35156	
2849	0	35172	
2850	0	35200	
2851	0	35234	
2852	0	35234	
2853	0	35220	
2854	0	35220	
2855	0	35282	
2856	0	35372	
2857	0	35436	
2858	0	35560	
2859	0	35704	
2860	0	35776	
2861	0	35736	
2862	0	35624	
2863	0	35480	
2864	0	35428	
2865	0	35352	
2866	0	35128	
2867	0	34832	
2868	0	34664	
2869	0	34504	
2870	0	34300	
2871	0	34156	
2872	0	34064	
2873	0	33976	
2874	0	33892	
2875	0	33740	
2876	0	33664	
2877	0	33592	
2878	0	33504	
2879	0	33480	
2880	0	33492	
2881	0	33492	
2882	0	33436	
2883	0	33320	
2884	0	33148	
2885	0	33024	
2886	0	32940	
2887	0	32868	
2888	0	32812	
2889	0	32792	
2890	0	32760	
2891	0	32720	
2892	0	32660	
2893	0	32584	
2894	0	32448	
2895	0	32376	
2896	0	32296	
2897	0	32172	
2898	0	32042	
2899	0	31952	
2900	0	31876	
2901	0	31802	
2902	0	31672	
2903	0	31548	
2904	0	31488	
2905	0	31380	
2906	0	31312	
2907	0	31300	
2908	0	31364	
2909	0	31440	
2910	0	31472	
2911	0	31476	
2912	0	31522	
2913	0	31548	
2914	0	31514	
2915	0	31440	
2916	0	31456	
2917	0	31528	
2918	0	31584	
2919	0	31592	
2920	0	31584	
2921	0	31552	
2922	0	31504	
2923	0	31518	
2924	0	31592	
2925	0	31596	
2926	0	31618	
2927	0	31648	
2928	0	31692	
2929	0	31724	
2930	0	31658	
2931	0	31528	
2932	0	31552	
2933	0	31576	
2934	0	31540	
2935	0	31588	
2936	0	31632	
2937	0	31630	
2938	0	31628	
2939	0	31668	
2940	0	31760	
2941	0	31796	
2942	0	31820	
2943	0	31820	
2944	0	31796	
2945	0	31776	
2946	0	31748	
2947	0	31792	
2948	0	31812	
2949	0	31780	
2950	0	31734	
2951	0	31782	
2952	0	31840	
2953	0	31864	
2954	0	31876	
2955	0	31880	
2956	0	31980	
2957	0	32048	
2958	0	32076	
2959	0	32116	
2960	0	32100	
2961	0	32000	
2962	0	31948	
2963	0	31970	
2964	0	31992	
2965	0	32096	
2966	0	32196	
2967	0	32212	
2968	0	32176	
2969	0	32058	
2970	0	31928	
2971	0	31802	
2972	0	31636	
2973	0	31480	
2974	0	31304	
2975	0	31254	
2976	0	31232	
2977	0	31316	
2978	0	31514	
2979	0	31804	
2980	0	32204	
2981	0	32736	
2982	0	33280	
2983	0	33912	
2984	0	34714	
2985	0	35616	
2986	0	36632	
2987	0	37804	
2988	0	39138	
2989	0	40608	
2990	0	42060	
2991	0	43452	
2992	0	44884	
2993	0	46352	
2994	0	47860	
2995	0	49384	
2996	0	50824	
2997	0	52192	
2998	0	53440	
2999	0	54664	
3000	0	55940	
3001	0	57056	
3002	0	58048	
3003	0	58812	
3004	0	59212	
3005	0	59200	
3006	0	58292	
3007	0	56344	
3008	0	53728	
3009	0	50496	
3010	0	47088	
3011	0	43720	
3012	0	40212	
3013	0	36472	
3014	0	32732	
3015	0	29636	
3016	0	27514	
3017	0	26340	
3018	0	25752	
3019	0	25612	
3020	0	25794	
3021	0	26016	
3022	0	26241	
3023	0	26570	
3024	0	27000	
3025	0	27452	
3026	0	27892	
3027	0	28384	
3028	0	28832	
3029	0	29258	
3030	0	29812	
3031	0	30240	
3032	0	30546	
3033	0	30800	
3034	0	30960	
3035	0	31040	
3036	0	31120	
3037	0	31248	
3038	0	31268	
3039	0	31128	
3040	0	31036	
3041	0	30924	
3042	0	30852	
3043	0	30860	
3044	0	30796	
3045	0	30716	
3046	0	30640	
3047	0	30613	
3048	0	30576	
3049	0	30516	
3050	0	30416	
3051	0	30404	
3052	0	30488	
3053	0	30540	
3054	0	30528	
3055	0	30480	
3056	0	30400	
3057	0	30404	
3058	0	30484	
3059	0	30540	
3060	0	30492	
3061	0	30472	
3062	0	30480	
3063	0	30468	
3064	0	30522	
3065	0	30604	
3066	0	30648	
3067	0	30636	
3068	0	30616	
3069	0	30568	
3070	0	30576	
3071	0	30612	
3072	0	30628	
3073	0	30660	
3074	0	30756	
3075	0	30812	
3076	0	30861	
3077	0	30928	
3078	0	30952	
3079	0	30988	
3080	0	31008	
3081	0	30988	
3082	0	30976	
3083	0	31034	
3084	0	31108	
3085	0	31104	
3086	0	31056	
3087	0	31092	
3088	0	31112	
3089	0	31144	
3090	0	31216	
3091	0	31272	
3092	0	31336	
3093	0	31356	
3094	0	31328	
3095	0	31368	
3096	0	31392	
3097	0	31372	
3098	0	31368	
3099	0	31452	
3100	0	31572	
3101	0	31600	
3102	0	31604	
3103	0	31596	
3104	0	31556	
3105	0	31552	
3106	0	31572	
3107	0	31560	
3108	0	31584	
3109	0	31668	
3110	0	31752	
3111	0	31776	
3112	0	31812	
3113	0	31896	
3114	0	31940	
3115	0	32000	
3116	0	32008	
3117	0	32038	
3118	0	32012	
3119	0	31970	
3120	0	32000	
3121	0	32056	
3122	0	32176	
3123	0	32308	
3124	0	32300	
3125	0	32276	
3126	0	32268	
3127	0	32292	
3128	0	32280	
3129	0	32224	
3130	0	32196	
3131	0	32206	
3132	0	32180	
3133	0	32224	
3134	0	32288	
3135	0	32280	
3136	0	32332	
3137	0	32408	
3138	0	32452	
3139	0	32516	
3140	0	32546	
3141	0	32570	
3142	0	32616	
3143	0	32608	
3144	0	32592	
3145	0	32600	
3146	0	32574	
3147	0	32588	
3148	0	32636	
3149	0	32584	
3150	0	32524	
3151	0	32548	
3152	0	32612	
3153	0	32628	
3154	0	32696	
3155	0	32784	
3156	0	32832	
3157	0	32876	
3158	0	32932	
3159	0	32980	
3160	0	33016	
3161	0	33060	
3162	0	33164	
3163	0	33284	
3164	0	33292	
3165	0	33314	
3166	0	33412	
3167	0	33426	
3168	0	33356	
3169	0	33290	
3170	0	33340	
3171	0	33412	
3172	0	33452	
3173	0	33480	
3174	0	33404	
3175	0	33352	
3176	0	33392	
3177	0	33520	
3178	0	33632	
3179	0	33690	
3180	0	33696	
3181	0	33748	
3182	0	33792	
3183	0	33888	
3184	0	34068	
3185	0	34180	
3186	0	34256	
3187	0	34322	
3188	0	34356	
3189	0	34344	
3190	0	34376	
3191	0	34500	
3192	0	34604	
3193	0	34720	
3194	0	34744	
3195	0	34744	
3196	0	34832	
3197	0	34892	
3198	0	34940	
3199	0	34992	
3200	0	35066	
3201	0	35164	
3202	0	35312	
3203	0	35452	
3204	0	35576	
3205	0	35648	
3206	0	35696	
3207	0	35748	
3208	0	35816	
3209	0	35816	
3210	0	35804	
3211	0	35884	
3212	0	36030	
3213	0	36136	
3214	0	36196	
3215	0	36252	
3216	0	36288	
3217	0	36320	
3218	0	36392	
3219	0	36358	
3220	0	36372	
3221	0	36516	
3222	0	36616	
3223	0	36720	
3224	0	36786	
3225	0	36850	
3226	0	36976	
3227	0	37044	
3228	0	37164	
3229	0	37220	
3230	0	37256	
3231	0	37348	
3232	0	37408	
3233	0	37504	
3234	0	37542	
3235	0	37560	
3236	0	37652	
3237	0	37732	
3238	0	37760	
3239	0	37770	
3240	0	37818	
3241	0	37848	
3242	0	37844	
3243	0	37840	
3244	0	37860	
3245	0	37908	
3246	0	38000	
3247	0	38040	
3248	0	38048	
3249	0	38020	
3250	0	38052	
3251	0	38032	
3252	0	37962	
3253	0	37912	
3254	0	37884	
3255	0	37840	
3256	0	37856	
3257	0	37884	
3258	0	37836	
3259	0	37764	
3260	0	37596	
3261	0	37404	
3262	0	37240	
3263	0	37100	
3264	0	36968	
3265	0	36832	
3266	0	36704	
3267	0	36580	
3268	0	36468	
3269	0	36360	
3270	0	36240	
3271	0	36064	
3272	0	35820	
3273	0	35596	
3274	0	35424	
3275	0	35264	
3276	0	35040	
3277	0	34936	
3278	0	34828	
3279	0	34632	
3280	0	34432	
3281	0	34172	
3282	0	33880	
3283	0	33584	
3284	0	33316	
3285	0	33116	
3286	0	32880	
3287	0	32728	
3288	0	32584	
3289	0	32404	
3290	0	32180	
3291	0	32000	
3292	0	31892	
3293	0	31692	
3294	0	31448	
3295	0	31248	
3296	0	31124	
3297	0	30964	
3298	0	30804	
3299	0	30692	
3300	0	30652	
3301	0	30560	
3302	0	30400	
3303	0	30284	
3304	0	30180	
3305	0	30068	
3306	0	30012	
3307	0	29968	
3308	0	29900	
3309	0	29812	
3310	0	29716	
3311	0	29600	
3312	0	29514	
3313	0	29460	
3314	0	29440	
3315	0	29432	
3316	0	29376	
3317	0	29332	
3318	0	29372	
3319	0	29332	
3320	0	29298	
3321	0	29208	
3322	0	29184	
3323	0	29236	
3324	0	29264	
3325	0	29300	
3326	0	29340	
3327	0	29340	
3328	0	29348	
3329	0	29378	
3330	0	29308	
3331	0	29236	
3332	0	29172	
3333	0	29120	
3334	0	29128	
3335	0	29116	
3336	0	29060	
3337	0	29104	
3338	0	29176	
3339	0	29200	
3340	0	29166	
3341	0	29168	
3342	0	29176	
3343	0	29208	
3344	0	29316	
3345	0	29376	
3346	0	29372	
3347	0	29416	
3348	0	29500	
3349	0	29592	
3350	0	29584	
3351	0	29548	
3352	0	29632	
3353	0	29676	
3354	0	29640	
3355	0	29604	
3356	0	29632	
3357	0	29664	
3358	0	29740	
3359	0	29796	
3360	0	29848	
3361	0	29916	
3362	0	29944	
3363	0	29948	
3364	0	29940	
3365	0	29970	
3366	0	29950	
3367	0	29916	
3368	0	29932	
3369	0	29964	
3370	0	29960	
3371	0	29968	
3372	0	30008	
3373	0	30018	
3374	0	30020	
3375	0	30016	
3376	0	30080	
3377	0	30140	
3378	0	30196	
3379	0	30192	
3380	0	30164	
3381	0	30213	
3382	0	30272	
3383	0	30244	
3384	0	30252	
3385	0	30328	
3386	0	30424	
3387	0	30416	
3388	0	30412	
3389	0	30376	
3390	0	30348	
3391	0	30368	
3392	0	30360	
3393	0	30376	
3394	0	30360	
3395	0	30284	
3396	0	30340	
3397	0	30378	
3398	0	30368	
3399	0	30384	
3400	0	30448	
3401	0	30514	
3402	0	30604	
3403	0	30664	
3404	0	30664	
3405	0	30596	
3406	0	30596	
3407	0	30672	
3408	0	30730	
3409	0	30796	
3410	0	30820	
3411	0	30874	
3412	0	30952	
3413	0	31000	
3414	0	30992	
3415	0	30952	
3416	0	30884	
3417	0	30888	
3418	0	30922	
3419	0	30852	
3420	0	30800	
3421	0	30848	
3422	0	30824	
3423	0	30768	
3424	0	30732	
3425	0	30816	
3426	0	30848	
3427	0	30868	
3428	0	30920	
3429	0	30936	
3430	0	31034	
3431	0	31148	
3432	0	31072	
3433	0	30944	
3434	0	30928	
3435	0	30913	
3436	0	30940	
3437	0	31024	
3438	0	31092	
3439	0	31132	
3440	0	31148	
3441	0	31128	
3442	0	31080	
3443	0	31056	
3444	0	31040	
3445	0	31084	
3446	0	31104	
3447	0	31112	
3448	0	31160	
3449	0	31188	
3450	0	31232	
3451	0	31242	
3452	0	31216	
3453	0	31164	
3454	0	31096	
3455	0	30992	
3456	0	31096	
3457	0	31216	
3458	0	31224	
3459	0	31176	
3460	0	31120	
3461	0	31016	
3462	0	30960	
3463	0	30980	
3464	0	31020	
3465	0	31072	
3466	0	31074	
3467	0	31064	
3468	0	31064	
3469	0	31068	
3470	0	31104	
3471	0	31152	
3472	0	31132	
3473	0	31112	
3474	0	31144	
3475	0	31160	
3476	0	31168	
3477	0	31256	
3478	0	31298	
3479	0	31248	
3480	0	31196	
3481	0	31200	
3482	0	31252	
3483	0	31248	
3484	0	31244	
3485	0	31272	
3486	0	31368	
3487	0	31388	
3488	0	31376	
3489	0	31336	
3490	0	31312	
3491	0	31224	
3492	0	31192	
3493	0	31244	
3494	0	31332	
3495	0	31328	
3496	0	31304	
3497	0	31312	
3498	0	31390	
3499	0	31468	
3500	0	31472	
3501	0	31444	
3502	0	31404	
3503	0	31372	
3504	0	31378	
3505	0	31392	
3506	0	31392	
3507	0	31400	
3508	0	31468	
3509	0	31596	
3510	0	31584	
3511	0	31608	
3512	0	31680	
3513	0	31724	
3514	0	31644	
3515	0	31572	
3516	0	31532	
3517	0	31512	
3518	0	31588	
3519	0	31576	
3520	0	31552	
3521	0	31592	
3522	0	31596	
3523	0	31524	
3524	0	31488	
3525	0	31452	
3526	0	31500	
3527	0	31568	
3528	0	31592	
3529	0	31608	
3530	0	31512	
3531	0	31436	
3532	0	31416	
3533	0	31384	
3534	0	31360	
3535	0	31436	
3536	0	31448	
3537	0	31484	
3538	0	31556	
3539	0	31684	
3540	0	31664	
3541	0	31504	
3542	0	31508	
3543	0	31608	
3544	0	31700	
3545	0	31780	
3546	0	31828	
3547	0	31778	
3548	0	31744	
3549	0	31704	
3550	0	31744	
3551	0	31928	
3552	0	32124	
3553	0	32292	
3554	0	32452	
3555	0	32522	
3556	0	32664	
3557	0	32836	
3558	0	32948	
3559	0	33000	
3560	0	33132	
3561	0	33248	
3562	0	33218	
3563	0	33216	
3564	0	33276	
3565	0	33308	
3566	0	33372	
3567	0	33410	
3568	0	33432	
3569	0	33444	
3570	0	33540	
3571	0	33652	
3572	0	33688	
3573	0	33772	
3574	0	33824	
3575	0	33904	
3576	0	34068	
3577	0	34294	
3578	0	34468	
3579	0	34560	
3580	0	34656	
3581	0	34644	
3582	0	34600	
3583	0	34596	
3584	0	34688	
3585	0	34736	
3586	0	34778	
3587	0	34816	
3588	0	34852	
3589	0	34988	
3590	0	35184	
3591	0	35413	
3592	0	35568	
3593	0	35506	
3594	0	35352	
3595	0	35168	
3596	0	34960	
3597	0	34728	
3598	0	34456	
3599	0	34208	
3600	0	33988	
3601	0	33804	
3602	0	33620	
3603	0	33588	
3604	0	33616	
3605	0	33648	
3606	0	33624	
3607	0	33584	
3608	0	33552	
3609	0	33484	
3610	0	33380	
3611	0	33324	
3612	0	33240	
3613	0	33200	
3614	0	33208	
3615	0	33092	
3616	0	32916	
3617	0	32760	
3618	0	32600	
3619	0	32484	
3620	0	32364	
3621	0	32258	
3622	0	32224	
3623	0	32252	
3624	0	32282	
3625	0	32256	
3626	0	32158	
3627	0	32100	
3628	0	32052	
3629	0	31956	
3630	0	31862	
3631	0	31788	
3632	0	31664	
3633	0	31576	
3634	0	31496	
3635	0	31420	
3636	0	31368	
3637	0	31268	
3638	0	31152	
3639	0	31100	
3640	0	31048	
3641	0	31024	
3642	0	31036	
3643	0	31000	
3644	0	31028	
3645	0	31058	
3646	0	31100	
3647	0	31128	
3648	0	31152	
3649	0	31176	
3650	0	31232	
3651	0	31284	
3652	0	31276	
3653	0	31264	
3654	0	31288	
3655	0	31296	
3656	0	31300	
3657	0	31330	
3658	0	31348	
3659	0	31392	
3660	0	31424	
3661	0	31364	
3662	0	31308	
3663	0	31288	
3664	0	31304	
3665	0	31376	
3666	0	31436	
3667	0	31456	
3668	0	31440	
3669	0	31456	
3670	0	31436	
3671	0	31384	
3672	0	31350	
3673	0	31320	
3674	0	31360	
3675	0	31432	
3676	0	31528	
3677	0	31560	
3678	0	31518	
3679	0	31576	
3680	0	31664	
3681	0	31616	
3682	0	31512	
3683	0	31448	
3684	0	31512	
3685	0	31520	
3686	0	31488	
3687	0	31528	
3688	0	31568	
3689	0	31572	
3690	0	31536	
3691	0	31592	
3692	0	31688	
3693	0	31764	
3694	0	31770	
3695	0	31714	
3696	0	31732	
3697	0	31816	
3698	0	31876	
3699	0	31888	
3700	0	31824	
3701	0	31704	
3702	0	31564	
3703	0	31504	
3704	0	31428	
3705	0	31322	
3706	0	31256	
3707	0	31168	
3708	0	31044	
3709	0	31024	
3710	0	31088	
3711	0	31212	
3712	0	31288	
3713	0	31546	
3714	0	32084	
3715	0	32688	
3716	0	33324	
3717	0	34096	
3718	0	35068	
3719	0	36160	
3720	0	37380	
3721	0	38800	
3722	0	40200	
3723	0	41608	
3724	0	43144	
3725	0	44644	
3726	0	46116	
3727	0	47672	
3728	0	49196	
3729	0	50652	
3730	0	51944	
3731	0	53152	
3732	0	54304	
3733	0	55556	
3734	0	56768	
3735	0	57924	
3736	0	58960	
3737	0	59612	
3738	0	59760	
3739	0	59088	
3740	0	57512	
3741	0	55056	
3742	0	51844	
3743	0	48432	
3744	0	45060	
3745	0	41532	
3746	0	37740	
3747	0	33844	
3748	0	30440	
3749	0	27804	
3750	0	26108	
3751	0	25244	
3752	0	24932	
3753	0	24976	
3754	0	25268	
3755	0	25612	
3756	0	25892	
3757	0	26140	
3758	0	26432	
3759	0	26748	
3760	0	27016	
3761	0	27388	
3762	0	27842	
3763	0	28260	
3764	0	28636	
3765	0	28972	
3766	0	29324	
3767	0	29644	
3768	0	30040	
3769	0	30424	
3770	0	30682	
3771	0	30760	
3772	0	30784	
3773	0	30836	
3774	0	30822	
3775	0	30746	
3776	0	30680	
3777	0	30612	
3778	0	30532	
3779	0	30508	
3780	0	30454	
3781	0	30352	
3782	0	30312	
3783	0	30268	
3784	0	30280	
3785	0	30320	
3786	0	30344	
3787	0	30356	
3788	0	30378	
3789	0	30412	
3790	0	30428	
3791	0	30408	
3792	0	30388	
3793	0	30416	
3794	0	30440	
3795	0	30524	
3796	0	30564	
3797	0	30568	
3798	0	30612	
3799	0	30696	
3800	0	30744	
3801	0	30744	
3802	0	30684	
3803	0	30684	
3804	0	30760	
3805	0	30820	
3806	0	30808	
3807	0	30730	
3808	0	30696	
3809	0	30636	
3810	0	30600	
3811	0	30544	
3812	0	30484	
3813	0	30504	
3814	0	30560	
3815	0	30592	
3816	0	30656	
3817	0	30768	
3818	0	30816	
3819	0	30896	
3820	0	30996	
3821	0	31088	
3822	0	31140	
3823	0	31228	
3824	0	31284	
3825	0	31304	
3826	0	31328	
3827	0	31352	
3828	0	31360	
3829	0	31394	
3830	0	31396	
3831	0	31448	
3832	0	31506	
3833	0	31556	
3834	0	31584	
3835	0	31592	
3836	0	31592	
3837	0	31624	
3838	0	31664	
3839	0	31684	
3840	0	31616	
3841	0	31560	
3842	0	31516	
3843	0	31604	
3844	0	31680	
3845	0	31676	
3846	0	31636	
3847	0	31684	
3848	0	31764	
3849	0	31802	
3850	0	31844	
3851	0	31892	
3852	0	31882	
3853	0	31808	
3854	0	31788	
3855	0	31816	
3856	0	31880	
3857	0	31992	
3858	0	32068	
3859	0	32144	
3860	0	32220	
3861	0	32288	
3862	0	32352	
3863	0	32384	
3864	0	32396	
3865	0	32422	
3866	0	32380	
3867	0	32344	
3868	0	32312	
3869	0	32392	
3870	0	32504	
3871	0	32568	
3872	0	32554	
3873	0	32530	
3874	0	32528	
3875	0	32544	
3876	0	32568	
3877	0	32602	
3878	0	32660	
3879	0	32656	
3880	0	32568	
3881	0	32544	
3882	0	32576	
3883	0	32596	
3884	0	32632	
3885	0	32736	
3886	0	32792	
3887	0	32832	
3888	0	32884	
3889	0	32948	
3890	0	32976	
3891	0	32960	
3892	0	32956	
3893	0	32968	
3894	0	32994	
3895	0	32976	
3896	0	33044	
3897	0	33116	
3898	0	33180	
3899	0	33186	
3900	0	33220	
3901	0	33300	
3902	0	33296	
3903	0	33332	
3904	0	33420	
3905	0	33440	
3906	0	33448	
3907	0	33500	
3908	0	33588	
3909	0	33676	
3910	0	33732	
3911	0	33744	
3912	0	33736	
3913	0	33806	
3914	0	33868	
3915	0	33930	
3916	0	34066	
3917	0	34164	
3918	0	34136	
3919	0	34152	
3920	0	34252	
3921	0	34336	
3922	0	34412	
3923	0	34496	
3924	0	34560	
3925	0	34664	
3926	0	34776	
3927	0	34836	
3928	0	34836	
3929	0	34872	
3930	0	34904	
3931	0	34964	
3932	0	35036	
3933	0	35108	
3934	0	35180	
3935	0	35220	
3936	0	35264	
3937	0	35364	
3938	0	35488	
3939	0	35576	
3940	0	35664	
3941	0	35756	
3942	0	35824	
3943	0	35992	
3944	0	36080	
3945	0	36076	
3946	0	36092	
3947	0	36140	
3948	0	36176	
3949	0	36296	
3950	0	36424	
3951	0	36524	
3952	0	36594	
3953	0	36632	
3954	0	36704	
3955	0	36804	
3956	0	36796	
3957	0	36832	
3958	0	36840	
3959	0	36880	
3960	0	36940	
3961	0	37072	
3962	0	37220	
3963	0	37296	
3964	0	37356	
3965	0	37440	
3966	0	37564	
3967	0	37636	
3968	0	37644	
3969	0	37664	
3970	0	37722	
3971	0	37720	
3972	0	37732	
3973	0	37822	
3974	0	37868	
3975	0	37920	
3976	0	37948	
3977	0	37900	
3978	0	37864	
3979	0	37852	
3980	0	37900	
3981	0	37940	
3982	0	37892	
3983	0	37796	
3984	0	37756	
3985	0	37736	
3986	0	37672	
3987	0	37604	
3988	0	37550	
3989	0	37516	
3990	0	37396	
3991	0	37320	
3992	0	37252	
3993	0	37168	
3994	0	37092	
3995	0	36957	
3996	0	36808	
3997	0	36696	
3998	0	36558	
3999	0	36404	
4000	0	36256	
4001	0	36116	
4002	0	35968	
4003	0	35816	
4004	0	35576	
4005	0	35372	
4006	0	35220	
4007	0	35052	
4008	0	34880	
4009	0	34640	
4010	0	34400	
4011	0	34144	
4012	0	33940	
4013	0	33704	
4014	0	33488	
4015	0	33306	
4016	0	33128	
4017	0	32988	
4018	0	32796	
4019	0	32544	
4020	0	32364	
4021	0	32176	
4022	0	31992	
4023	0	31748	
4024	0	31540	
4025	0	31428	
4026	0	31368	
4027	0	31336	
4028	0	31276	
4029	0	31172	
4030	0	31060	
4031	0	30960	
4032	0	30864	
4033	0	30724	
4034	0	30554	
4035	0	30340	
4036	0	30192	
4037	0	30120	
4038	0	30036	
4039	0	29966	
4040	0	29776	
4041	0	29580	
4042	0	29480	
4043	0	29496	
4044	0	29420	
4045	0	29316	
4046	0	29336	
4047	0	29354	
4048	0	29280	
4049	0	29192	
4050	0	29192	
4051	0	29186	
4052	0	29112	
4053	0	29060	
4054	0	29012	
4055	0	28992	
4056	0	29016	
4057	0	29044	
4058	0	29052	
4059	0	28984	
4060	0	28944	
4061	0	28988	
4062	0	29004	
4063	0	28972	
4064	0	28936	
4065	0	28988	
4066	0	29064	
4067	0	29096	
4068	0	29110	
4069	0	29108	
4070	0	29072	
4071	0	28996	
4072	0	29012	
4073	0	28992	
4074	0	29000	
4075	0	29104	
4076	0	29156	
4077	0	29224	
4078	0	29240	
4079	0	29140	
4080	0	29024	
4081	0	28996	
4082	0	29020	
4083	0	29048	
4084	0	29084	
4085	0	29116	
4086	0	29184	
4087	0	29216	
4088	0	29262	
4089	0	29336	
4090	0	29424	
4091	0	29512	
4092	0	29484	
4093	0	29484	
4094	0	29560	
4095	0	29584	
4096	0	29660	
4097	0	29728	
4098	0	29714	
4099	0	29704	
4100	0	29740	
4101	0	29730	
4102	0	29700	
4103	0	29712	
4104	0	29712	
4105	0	29800	
4106	0	29872	
4107	0	29930	
4108	0	30010	
4109	0	30056	
4110	0	30072	
4111	0	30052	
4112	0	30100	
4113	0	30164	
4114	0	30220	
4115	0	30264	
4116	0	30316	
4117	0	30308	
4118	0	30316	
4119	0	30352	
4120	0	30402	
4121	0	30388	
4122	0	30412	
4123	0	30364	
4124	0	30296	
4125	0	30252	
4126	0	30312	
4127	0	30344	
4128	0	30346	
4129	0	30348	
4130	0	30417	
4131	0	30560	
4132	0	30616	
4133	0	30564	
4134	0	30536	
4135	0	30540	
4136	0	30644	
4137	0	30656	
4138	0	30612	
4139	0	30600	
4140	0	30628	
4141	0	30620	
4142	0	30612	
4143	0	30556	
4144	0	30572	
4145	0	30624	
4146	0	30652	
4147	0	30688	
4148	0	30704	
4149	0	30700	
4150	0	30684	
4151	0	30744	
4152	0	30792	
4153	0	30848	
4154	0	30924	
4155	0	30932	
4156	0	30924	
4157	0	30976	
4158	0	31004	
4159	0	31008	
4160	0	30998	
4161	0	31038	
4162	0	31036	
4163	0	31000	
4164	0	30996	
4165	0	31004	
4166	0	31000	
4167	0	30996	
4168	0	30940	
4169	0	30904	
4170	0	30980	
4171	0	31044	
4172	0	31092	
4173	0	31168	
4174	0	31212	
4175	0	31204	
4176	0	31176	
4177	0	31108	
4178	0	31132	
4179	0	31108	
4180	0	31104	
4181	0	31192	
4182	0	31200	
4183	0	31160	
4184	0	31120	
4185	0	31164	
4186	0	31168	
4187	0	31188	
4188	0	31202	
4189	0	31200	
4190	0	31292	
4191	0	31364	
4192	0	31322	
4193	0	31356	
4194	0	31464	
4195	0	31424	
4196	0	31348	
4197	0	31280	
4198	0	31290	
4199	0	31296	
4200	0	31320	
4201	0	31352	
4202	0	31328	
4203	0	31248	
4204	0	31224	
4205	0	31268	
4206	0	31268	
4207	0	31264	
4208	0	31248	
4209	0	31256	
4210	0	31336	
4211	0	31356	
4212	0	31348	
4213	0	31316	
4214	0	31280	
4215	0	31282	
4216	0	31260	
4217	0	31232	
4218	0	31252	
4219	0	31274	
4220	0	31278	
4221	0	31248	
4222	0	31296	
4223	0	31340	
4224	0	31348	
4225	0	31294	
4226	0	31264	
4227	0	31224	
4228	0	31216	
4229	0	31252	
4230	0	31236	
4231	0	31216	
4232	0	31260	
4233	0	31272	
4234	0	31308	
4235	0	31356	
4236	0	31310	
4237	0	31360	
4238	0	31468	
4239	0	31428	
4240	0	31328	
4241	0	31264	
4242	0	31232	
4243	0	31264	
4244	0	31296	
4245	0	31274	
4246	0	31304	
4247	0	31328	
4248	0	31338	
4249	0	31328	
4250	0	31328	
4251	0	31348	
4252	0	31384	
4253	0	31428	
4254	0	31460	
4255	0	31420	
4256	0	31406	
4257	0	31468	
4258	0	31544	
4259	0	31616	
4260	0	31680	
4261	0	31740	
4262	0	31812	
4263	0	31878	
4264	0	31860	
4265	0	31800	
4266	0	31808	
4267	0	31832	
4268	0	31776	
4269	0	31684	
4270	0	31672	
4271	0	31752	
4272	0	31896	
4273	0	32064	
4274	0	32200	
4275	0	32324	
4276	0	32560	
4277	0	32816	
4278	0	33000	
4279	0	33108	
4280	0	33208	
4281	0	33240	
4282	0	33240	
4283	0	33152	
4284	0	33044	
4285	0	33044	
4286	0	33140	
4287	0	33234	
4288	0	33328	
4289	0	33368	
4290	0	33388	
4291	0	33444	
4292	0	33480	
4293	0	33560	
4294	0	33692	
4295	0	33818	
4296	0	33868	
4297	0	33928	
4298	0	33988	
4299	0	34116	
4300	0	34240	
4301	0	34248	
4302	0	34240	
4303	0	34292	
4304	0	34344	
4305	0	34320	
4306	0	34372	
4307	0	34504	
4308	0	34658	
4309	0	34760	
4310	0	34832	
4311	0	34964	
4312	0	35088	
4313	0	35046	
4314	0	34912	
4315	0	34776	
4316	0	34692	
4317	0	34568	
4318	0	34356	
4319	0	34176	
4320	0	34014	
4321	0	33764	
4322	0	33522	
4323	0	33316	
4324	0	33216	
4325	0	33124	
4326	0	33092	
4327	0	33040	
4328	0	33012	
4329	0	33012	
4330	0	33066	
4331	0	32968	
4332	0	32912	
4333	0	32912	
4334	0	32862	
4335	0	32800	
4336	0	32740	
4337	0	32664	
4338	0	32524	
4339	0	32422	
4340	0	32276	
4341	0	32168	
4342	0	32140	
4343	0	32048	
4344	0	31968	
4345	0	31864	
4346	0	31748	
4347	0	31664	
4348	0	31604	
4349	0	31532	
4350	0	31476	
4351	0	31402	
4352	0	31368	
4353	0	31240	
4354	0	31108	
4355	0	31056	
4356	0	30968	
4357	0	30912	
4358	0	30928	
4359	0	31012	
4360	0	31024	
4361	0	30954	
4362	0	30940	
4363	0	30968	
4364	0	31056	
4365	0	31072	
4366	0	30976	
4367	0	30912	
4368	0	30852	
4369	0	30824	
4370	0	30868	
4371	0	30892	
4372	0	30912	
4373	0	30912	
4374	0	30900	
4375	0	30896	
4376	0	30920	
4377	0	30970	
4378	0	30984	
4379	0	30958	
4380	0	30932	
4381	0	30980	
4382	0	31018	
4383	0	31068	
4384	0	31088	
4385	0	31088	
4386	0	31100	
4387	0	31076	
4388	0	31042	
4389	0	31012	
4390	0	31012	
4391	0	31008	
4392	0	31044	
4393	0	31088	
4394	0	31138	
4395	0	31164	
4396	0	31148	
4397	0	31108	
4398	0	31184	
4399	0	31256	
4400	0	31266	
4401	0	31228	
4402	0	31272	
4403	0	31368	
4404	0	31360	
4405	0	31364	
4406	0	31392	
4407	0	31448	
4408	0	31512	
4409	0	31576	
4410	0	31624	
4411	0	31620	
4412	0	31620	
4413	0	31676	
4414	0	31748	
4415	0	31836	
4416	0	31916	
4417	0	31876	
4418	0	31784	
4419	0	31720	
4420	0	31712	
4421	0	31664	
4422	0	31628	
4423	0	31604	
4424	0	31494	
4425	0	31364	
4426	0	31244	
4427	0	31126	
4428	0	30932	
4429	0	30788	
4430	0	30828	
4431	0	30984	
4432	0	31116	
4433	0	31364	
4434	0	31900	
4435	0	32516	
4436	0	33104	
4437	0	33844	
4438	0	34778	
4439	0	35932	
4440	0	37156	
4441	0	38532	
4442	0	40028	
4443	0	41492	
4444	0	42992	
4445	0	44528	
4446	0	46032	
4447	0	47576	
4448	0	49104	
4449	0	50504	
4450	0	51816	
4451	0	53048	
4452	0	54208	
4453	0	55416	
4454	0	56612	
4455	0	57744	
4456	0	58776	
4457	0	59468	
4458	0	59720	
4459	0	59320	
4460	0	57863	
4461	0	55632	
4462	0	52648	
4463	0	49248	
4464	0	45856	
4465	0	42436	
4466	0	38728	
4467	0	34896	
4468	0	31240	
4469	0	28352	
4470	0	26484	
4471	0	25504	
4472	0	25100	
4473	0	25088	
4474	0	25356	
4475	0	25694	
4476	0	25960	
4477	0	26200	
4478	0	26560	
4479	0	26972	
4480	0	27288	
4481	0	27616	
4482	0	28008	
4483	0	28462	
4484	0	28964	
4485	0	29432	
4486	0	29768	
4487	0	30080	
4488	0	30412	
4489	0	30664	
4490	0	30778	
4491	0	30872	
4492	0	30880	
4493	0	30884	
4494	0	30832	
4495	0	30704	
4496	0	30548	
4497	0	30448	
4498	0	30468	
4499	0	30504	
4500	0	30520	
4501	0	30456	
4502	0	30432	
4503	0	30460	
4504	0	30440	
4505	0	30376	
4506	0	30360	
4507	0	30380	
4508	0	30368	
4509	0	30484	
4510	0	30528	
4511	0	30516	
4512	0	30492	
4513	0	30484	
4514	0	30474	
4515	0	30490	
4516	0	30484	
4517	0	30466	
4518	0	30484	
4519	0	30564	
4520	0	30592	
4521	0	30596	
4522	0	30584	
4523	0	30644	
4524	0	30668	
4525	0	30656	
4526	0	30676	
4527	0	30754	
4528	0	30788	
4529	0	30768	
4530	0	30764	
4531	0	30752	
4532	0	30772	
4533	0	30788	
4534	0	30800	
4535	0	30840	
4536	0	30872	
4537	0	30960	
4538	0	31082	
4539	0	31124	
4540	0	31146	
4541	0	31192	
4542	0	31216	
4543	0	31228	
4544	0	31276	
4545	0	31348	
4546	0	31364	
4547	0	31368	
4548	0	31352	
4549	0	31340	
4550	0	31364	
4551	0	31392	
4552	0	31384	
4553	0	31396	
4554	0	31424	
4555	0	31458	
4556	0	31396	
4557	0	31408	
4558	0	31468	
4559	0	31492	
4560	0	31480	
4561	0	31472	
4562	0	31516	
4563	0	31616	
4564	0	31728	
4565	0	31804	
4566	0	31850	
4567	0	31880	
4568	0	31920	
4569	0	31984	
4570	0	32068	
4571	0	32104	
4572	0	32084	
4573	0	32104	
4574	0	32160	
4575	0	32176	
4576	0	32184	
4577	0	32164	
4578	0	32164	
4579	0	32152	
4580	0	32184	
4581	0	32216	
4582	0	32276	
4583	0	32324	
4584	0	32308	
4585	0	32326	
4586	0	32378	
4587	0	32400	
4588	0	32413	
4589	0	32368	
4590	0	32344	
4591	0	32416	
4592	0	32492	
4593	0	32516	
4594	0	32526	
4595	0	32564	
4596	0	32596	
4597	0	32536	
4598	0	32544	
4599	0	32484	
4600	0	32536	
4601	0	32624	
4602	0	32730	
4603	0	32788	
4604	0	32862	
4605	0	32900	
4606	0	32888	
4607	0	32908	
4608	0	32996	
4609	0	33128	
4610	0	33120	
4611	0	33088	
4612	0	33140	
4613	0	33140	
4614	0	33116	
4615	0	33148	
4616	0	33172	
4617	0	33272	
4618	0	33314	
4619	0	33340	
4620	0	33462	
4621	0	33564	
4622	0	33632	
4623	0	33656	
4624	0	33616	
4625	0	33624	
4626	0	33640	
4627	0	33680	
4628	0	33704	
4629	0	33668	
4630	0	33708	
4631	0	33768	
4632	0	33860	
4633	0	34028	
4634	0	34106	
4635	0	34128	
4636	0	34160	
4637	0	34204	
4638	0	34312	
4639	0	34320	
4640	0	34380	
4641	0	34472	
4642	0	34540	
4643	0	34576	
4644	0	34716	
4645	0	34776	
4646	0	34776	
4647	0	34844	
4648	0	34940	
4649	0	34984	
4650	0	35024	
4651	0	35068	
4652	0	35134	
4653	0	35208	
4654	0	35276	
4655	0	35362	
4656	0	35472	
4657	0	35580	
4658	0	35704	
4659	0	35748	
4660	0	35764	
4661	0	35784	
4662	0	35872	
4663	0	35936	
4664	0	36072	
4665	0	36212	
4666	0	36388	
4667	0	36524	
4668	0	36592	
4669	0	36684	
4670	0	36772	
4671	0	36828	
4672	0	36896	
4673	0	36980	
4674	0	37028	
4675	0	37172	
4676	0	37252	
4677	0	37340	
4678	0	37368	
4679	0	37416	
4680	0	37504	
4681	0	37592	
4682	0	37706	
4683	0	37760	
4684	0	37776	
4685	0	37820	
4686	0	37860	
4687	0	37894	
4688	0	37960	
4689	0	38108	
4690	0	38208	
4691	0	38196	
4692	0	38220	
4693	0	38260	
4694	0	38224	
4695	0	38248	
4696	0	38292	
4697	0	38304	
4698	0	38340	
4699	0	38360	
4700	0	38404	
4701	0	38420	
4702	0	38384	
4703	0	38328	
4704	0	38284	
4705	0	38240	
4706	0	38264	
4707	0	38272	
4708	0	38212	
4709	0	38048	
4710	0	37920	
4711	0	37792	
4712	0	37708	
4713	0	37664	
4714	0	37540	
4715	0	37416	
4716	0	37314	
4717	0	37172	
4718	0	36996	
4719	0	36804	
4720	0	36564	
4721	0	36352	
4722	0	36184	
4723	0	36052	
4724	0	35880	
4725	0	35708	
4726	0	35516	
4727	0	35316	
4728	0	35108	
4729	0	34924	
4730	0	34732	
4731	0	34540	
4732	0	34344	
4733	0	34144	
4734	0	33956	
4735	0	33764	
4736	0	33580	
4737	0	33372	
4738	0	33132	
4739	0	32928	
4740	0	32756	
4741	0	32596	
4742	0	32436	
4743	0	32296	
4744	0	32176	
4745	0	32020	
4746	0	31836	
4747	0	31584	
4748	0	31380	
4749	0	31200	
4750	0	31040	
4751	0	30928	
4752	0	30852	
4753	0	30732	
4754	0	30544	
4755	0	30380	
4756	0	30252	
4757	0	30200	
4758	0	30180	
4759	0	30164	
4760	0	30144	
4761	0	30080	
4762	0	29984	
4763	0	29872	
4764	0	29776	
4765	0	29644	
4766	0	29538	
4767	0	29552	
4768	0	29548	
4769	0	29536	
4770	0	29560	
4771	0	29576	
4772	0	29580	
4773	0	29534	
4774	0	29504	
4775	0	29492	
4776	0	29438	
4777	0	29416	
4778	0	29410	
4779	0	29424	
4780	0	29448	
4781	0	29392	
4782	0	29328	
4783	0	29280	
4784	0	29296	
4785	0	29356	
4786	0	29396	
4787	0	29358	
4788	0	29340	
4789	0	29324	
4790	0	29296	
4791	0	29312	
4792	0	29440	
4793	0	29476	
4794	0	29448	
4795	0	29448	
4796	0	29468	
4797	0	29472	
4798	0	29460	
4799	0	29458	
4800	0	29532	
4801	0	29640	
4802	0	29676	
4803	0	29658	
4804	0	29664	
4805	0	29672	
4806	0	29660	
4807	0	29728	
4808	0	29792	
4809	0	29768	
4810	0	29700	
4811	0	29704	
4812	0	29708	
4813	0	29704	
4814	0	29660	
4815	0	29620	
4816	0	29704	
4817	0	29772	
4818	0	29789	
4819	0	29852	
4820	0	29904	
4821	0	29980	
4822	0	30016	
4823	0	30036	
4824	0	30076	
4825	0	30116	
4826	0	30148	
4827	0	30168	
4828	0	30156	
4829	0	30148	
4830	0	30172	
4831	0	30192	
4832	0	30224	
4833	0	30264	
4834	0	30280	
4835	0	30304	
4836	0	30360	
4837	0	30384	
4838	0	30368	
4839	0	30380	
4840	0	30426	
4841	0	30492	
4842	0	30508	
4843	0	30484	
4844	0	30524	
4845	0	30560	
4846	0	30584	
4847	0	30544	
4848	0	30496	
4849	0	30532	
4850	0	30560	
4851	0	30572	
4852	0	30536	
4853	0	30524	
4854	0	30542	
4855	0	30516	
4856	0	30528	
4857	0	30572	
4858	0	30672	
4859	0	30724	
4860	0	30724	
4861	0	30778	
4862	0	30824	
4863	0	30836	
4864	0	30836	
4865	0	30856	
4866	0	30850	
4867	0	30876	
4868	0	30936	
4869	0	30956	
4870	0	30960	
4871	0	30912	
4872	0	30868	
4873	0	30868	
4874	0	30880	
4875	0	30904	
4876	0	30964	
4877	0	31072	
4878	0	31140	
4879	0	31158	
4880	0	31176	
4881	0	31212	
4882	0	31224	
4883	0	31180	
4884	0	31180	
4885	0	31232	
4886	0	31216	
4887	0	31216	
4888	0	31200	
4889	0	31204	
4890	0	31212	
4891	0	31200	
4892	0	31124	
4893	0	31084	
4894	0	31096	
4895	0	31116	
4896	0	31080	
4897	0	31134	
4898	0	31184	
4899	0	31244	
4900	0	31272	
4901	0	31272	
4902	0	31256	
4903	0	31324	
4904	0	31356	
4905	0	31336	
4906	0	31326	
4907	0	31310	
4908	0	31316	
4909	0	31324	
4910	0	31376	
4911	0	31406	
4912	0	31376	
4913	0	31376	
4914	0	31376	
4915	0	31368	
4916	0	31376	
4917	0	31364	
4918	0	31352	
4919	0	31364	
4920	0	31352	
4921	0	31304	
4922	0	31292	
4923	0	31312	
4924	0	31368	
4925	0	31448	
4926	0	31520	
4927	0	31504	
4928	0	31476	
4929	0	31460	
4930	0	31516	
4931	0	31552	
4932	0	31550	
4933	0	31564	
4934	0	31538	
4935	0	31504	
4936	0	31520	
4937	0	31532	
4938	0	31560	
4939	0	31580	
4940	0	31572	
4941	0	31584	
4942	0	31580	
4943	0	31596	
4944	0	31608	
4945	0	31604	
4946	0	31588	
4947	0	31584	
4948	0	31580	
4949	0	31604	
4950	0	31666	
4951	0	31692	
4952	0	31668	
4953	0	31628	
4954	0	31632	
4955	0	31664	
4956	0	31712	
4957	0	31728	
4958	0	31712	
4959	0	31700	
4960	0	31688	
4961	0	31706	
4962	0	31732	
4963	0	31736	
4964	0	31732	
4965	0	31684	
4966	0	31692	
4967	0	31696	
4968	0	31644	
4969	0	31640	
4970	0	31656	
4971	0	31660	
4972	0	31704	
4973	0	31732	
4974	0	31784	
4975	0	31794	
4976	0	31772	
4977	0	31800	
4978	0	31794	
4979	0	31812	
4980	0	31884	
4981	0	31874	
4982	0	31880	
4983	0	31880	
4984	0	31928	
4985	0	31964	
4986	0	32004	
4987	0	32008	
4988	0	32044	
4989	0	32104	
4990	0	32140	
4991	0	32140	
4992	0	32096	
4993	0	32032	
4994	0	32004	
4995	0	32040	
4996	0	32122	
4997	0	32144	
4998	0	32148	
4999	0	32136	
5000	0	32152	
5001	0	32164	
5002	0	32152	
5003	0	32192	
5004	0	32280	
5005	0	32360	
5006	0	32312	
5007	0	32260	
5008	0	32248	
5009	0	32288	
5010	0	32340	
5011	0	32394	
5012	0	32416	
5013	0	32424	
5014	0	32400	
5015	0	32392	
5016	0	32442	
5017	0	32508	
5018	0	32588	
5019	0	32596	
5020	0	32592	
5021	0	32576	
5022	0	32580	
5023	0	32632	
5024	0	32720	
5025	0	32796	
5026	0	32922	
5027	0	33057	
5028	0	33212	
5029	0	33444	
5030	0	33620	
5031	0	33812	
5032	0	33968	
5033	0	34076	
5034	0	34128	
5035	0	34132	
5036	0	34176	
5037	0	34208	
5038	0	34196	
5039	0	34188	
5040	0	34260	
5041	0	34360	
5042	0	34424	
5043	0	34458	
5044	0	34528	
5045	0	34588	
5046	0	34684	
5047	0	34736	
5048	0	34796	
5049	0	34884	
5050	0	34942	
5051	0	35008	
5052	0	35130	
5053	0	35216	
5054	0	35284	
5055	0	35328	
5056	0	35376	
5057	0	35364	
5058	0	35296	
5059	0	35240	
5060	0	35272	
5061	0	35384	
5062	0	35520	
5063	0	35608	
5064	0	35716	
5065	0	35792	
5066	0	35796	
5067	0	35704	
5068	0	35572	
5069	0	35484	
5070	0	35420	
5071	0	35296	
5072	0	35080	
5073	0	34828	
5074	0	34616	
5075	0	34452	
5076	0	34316	
5077	0	34232	
5078	0	34156	
5079	0	34048	
5080	0	33932	
5081	0	33800	
5082	0	33748	
5083	0	33676	
5084	0	33608	
5085	0	33572	
5086	0	33524	
5087	0	33488	
5088	0	33488	
5089	0	33468	
5090	0	33434	
5091	0	33418	
5092	0	33336	
5093	0	33156	
5094	0	33000	
5095	0	32932	
5096	0	32904	
5097	0	32844	
5098	0	32720	
5099	0	32576	
5100	0	32456	
5101	0	32392	
5102	0	32356	
5103	0	32344	
5104	0	32224	
5105	0	32056	
5106	0	31924	
5107	0	31788	
5108	0	31704	
5109	0	31596	
5110	0	31520	
5111	0	31504	
5112	0	31528	
5113	0	31560	
5114	0	31568	
5115	0	31552	
5116	0	31568	
5117	0	31546	
5118	0	31500	
5119	0	31548	
5120	0	31610	
5121	0	31576	
5122	0	31536	
5123	0	31492	
5124	0	31502	
5125	0	31480	
5126	0	31468	
5127	0	31484	
5128	0	31470	
5129	0	31468	
5130	0	31504	
5131	0	31528	
5132	0	31532	
5133	0	31552	
5134	0	31604	
5135	0	31656	
5136	0	31668	
5137	0	31644	
5138	0	31568	
5139	0	31552	
5140	0	31546	
5141	0	31564	
5142	0	31596	
5143	0	31596	
5144	0	31604	
5145	0	31638	
5146	0	31648	
5147	0	31680	
5148	0	31740	
5149	0	31768	
5150	0	31784	
5151	0	31740	
5152	0	31704	
5153	0	31656	
5154	0	31692	
5155	0	31728	
5156	0	31768	
5157	0	31836	
5158	0	31888	
5159	0	31860	
5160	0	31792	
5161	0	31836	
5162	0	31884	
5163	0	31938	
5164	0	32024	
5165	0	32132	
5166	0	32104	
5167	0	32032	
5168	0	32034	
5169	0	31960	
5170	0	31944	
5171	0	31932	
5172	0	31872	
5173	0	31820	
5174	0	31768	
5175	0	31736	
5176	0	31660	
5177	0	31532	
5178	0	31352	
5179	0	31216	
5180	0	31116	
5181	0	31124	
5182	0	31264	
5183	0	31476	
5184	0	31800	
5185	0	32224	
5186	0	32740	
5187	0	33336	
5188	0	34052	
5189	0	34956	
5190	0	35924	
5191	0	36898	
5192	0	38040	
5193	0	39460	
5194	0	40980	
5195	0	42298	
5196	0	43648	
5197	0	45024	
5198	0	46452	
5199	0	47996	
5200	0	49560	
5201	0	51044	
5202	0	52364	
5203	0	53604	
5204	0	54832	
5205	0	56088	
5206	0	57244	
5207	0	58180	
5208	0	58912	
5209	0	59352	
5210	0	59536	
5211	0	58868	
5212	0	57128	
5213	0	54616	
5214	0	51472	
5215	0	48072	
5216	0	44616	
5217	0	41004	
5218	0	37088	
5219	0	33124	
5220	0	29752	
5221	0	27408	
5222	0	26030	
5223	0	25288	
5224	0	25004	
5225	0	25036	
5226	0	25206	
5227	0	25448	
5228	0	25788	
5229	0	26200	
5230	0	26680	
5231	0	27200	
5232	0	27760	
5233	0	28284	
5234	0	28784	
5235	0	29296	
5236	0	29760	
5237	0	30096	
5238	0	30378	
5239	0	30592	
5240	0	30676	
5241	0	30732	
5242	0	30764	
5243	0	30744	
5244	0	30672	
5245	0	30564	
5246	0	30552	
5247	0	30632	
5248	0	30600	
5249	0	30576	
5250	0	30496	
5251	0	30428	
5252	0	30372	
5253	0	30332	
5254	0	30316	
5255	0	30337	
5256	0	30352	
5257	0	30388	
5258	0	30440	
5259	0	30460	
5260	0	30424	
5261	0	30424	
5262	0	30392	
5263	0	30344	
5264	0	30304	
5265	0	30292	
5266	0	30292	
5267	0	30356	
5268	0	30428	
5269	0	30480	
5270	0	30560	
5271	0	30604	
5272	0	30604	
5273	0	30584	
5274	0	30580	
5275	0	30600	
5276	0	30616	
5277	0	30616	
5278	0	30612	
5279	0	30640	
5280	0	30660	
5281	0	30616	
5282	0	30552	
5283	0	30562	
5284	0	30592	
5285	0	30672	
5286	0	30744	
5287	0	30824	
5288	0	30896	
5289	0	30948	
5290	0	31008	
5291	0	31034	
5292	0	31016	
5293	0	31034	
5294	0	31104	
5295	0	31152	
5296	0	31240	
5297	0	31312	
5298	0	31338	
5299	0	31392	
5300	0	31440	
5301	0	31420	
5302	0	31436	
5303	0	31464	
5304	0	31512	
5305	0	31568	
5306	0	31628	
5307	0	31646	
5308	0	31664	
5309	0	31728	
5310	0	31732	
5311	0	31692	
5312	0	31696	
5313	0	31724	
5314	0	31754	
5315	0	31800	
5316	0	31784	
5317	0	31808	
5318	0	31856	
5319	0	31888	
5320	0	31949	
5321	0	31992	
5322	0	32008	
5323	0	32068	
5324	0	32156	
5325	0	32224	
5326	0	32228	
5327	0	32196	
5328	0	32160	
5329	0	32172	
5330	0	32212	
5331	0	32220	
5332	0	32308	
5333	0	32440	
5334	0	32468	
5335	0	32488	
5336	0	32512	
5337	0	32584	
5338	0	32648	
5339	0	32720	
5340	0	32804	
5341	0	32860	
5342	0	32864	
5343	0	32836	
5344	0	32840	
5345	0	32904	
5346	0	32960	
5347	0	33014	
5348	0	32960	
5349	0	32960	
5350	0	33000	
5351	0	33020	
5352	0	33096	
5353	0	33140	
5354	0	33108	
5355	0	33076	
5356	0	33088	
5357	0	33116	
5358	0	33128	
5359	0	33194	
5360	0	33316	
5361	0	33464	
5362	0	33508	
5363	0	33512	
5364	0	33484	
5365	0	33508	
5366	0	33460	
5367	0	33432	
5368	0	33504	
5369	0	33632	
5370	0	33728	
5371	0	33764	
5372	0	33728	
5373	0	33732	
5374	0	33752	
5375	0	33796	
5376	0	33884	
5377	0	33970	
5378	0	34024	
5379	0	34020	
5380	0	34072	
5381	0	34144	
5382	0	34144	
5383	0	34204	
5384	0	34274	
5385	0	34304	
5386	0	34310	
5387	0	34396	
5388	0	34542	
5389	0	34624	
5390	0	34612	
5391	0	34604	
5392	0	34676	
5393	0	34740	
5394	0	34784	
5395	0	34872	
5396	0	34972	
5397	0	35032	
5398	0	35092	
5399	0	35154	
5400	0	35224	
5401	0	35348	
5402	0	35364	
5403	0	35396	
5404	0	35440	
5405	0	35508	
5406	0	35704	
5407	0	35848	
5408	0	35956	
5409	0	35954	
5410	0	35968	
5411	0	36016	
5412	0	36064	
5413	0	36152	
5414	0	36272	
5415	0	36444	
5416	0	36512	
5417	0	36512	
5418	0	36578	
5419	0	36664	
5420	0	36768	
5421	0	36828	
5422	0	36872	
5423	0	37008	
5424	0	37176	
5425	0	37304	
5426	0	37344	
5427	0	37304	
5428	0	37292	
5429	0	37352	
5430	0	37328	
5431	0	37416	
5432	0	37456	
5433	0	37484	
5434	0	37592	
5435	0	37668	
5436	0	37664	
5437	0	37744	
5438	0	37895	
5439	0	38092	
5440	0	38300	
5441	0	38436	
5442	0	38424	
5443	0	38388	
5444	0	38442	
5445	0	38522	
5446	0	38520	
5447	0	38524	
5448	0	38512	
5449	0	38536	
5450	0	38604	
5451	0	38680	
5452	0	38716	
5453	0	38744	
5454	0	38672	
5455	0	38572	
5456	0	38520	
5457	0	38560	
5458	0	38472	
5459	0	38308	
5460	0	38200	
5461	0	38080	
5462	0	37972	
5463	0	37876	
5464	0	37812	
5465	0	37764	
5466	0	37720	
5467	0	37680	
5468	0	37608	
5469	0	37380	
5470	0	37208	
5471	0	37140	
5472	0	37008	
5473	0	36740	
5474	0	36500	
5475	0	36332	
5476	0	36076	
5477	0	35856	
5478	0	35668	
5479	0	35424	
5480	0	35192	
5481	0	34992	
5482	0	34828	
5483	0	34648	
5484	0	34408	
5485	0	34136	
5486	0	33928	
5487	0	33720	
5488	0	33540	
5489	0	33388	
5490	0	33220	
5491	0	32996	
5492	0	32808	
5493	0	32628	
5494	0	32472	
5495	0	32288	
5496	0	32156	
5497	0	32000	
5498	0	31844	
5499	0	31672	
5500	0	31464	
5501	0	31320	
5502	0	31224	
5503	0	31152	
5504	0	31004	
5505	0	30840	
5506	0	30724	
5507	0	30628	
5508	0	30542	
5509	0	30456	
5510	0	30440	
5511	0	30388	
5512	0	30260	
5513	0	30220	
5514	0	30168	
5515	0	30044	
5516	0	29954	
5517	0	29916	
5518	0	29840	
5519	0	29812	
5520	0	29720	
5521	0	29704	
5522	0	29688	
5523	0	29556	
5524	0	29416	
5525	0	29344	
5526	0	29356	
5527	0	29378	
5528	0	29296	
5529	0	29360	
5530	0	29472	
5531	0	29492	
5532	0	29456	
5533	0	29482	
5534	0	29516	
5535	0	29500	
5536	0	29480	
5537	0	29504	
5538	0	29512	
5539	0	29584	
5540	0	29567	
5541	0	29472	
5542	0	29392	
5543	0	29340	
5544	0	29392	
5545	0	29416	
5546	0	29532	
5547	0	29564	
5548	0	29592	
5549	0	29624	
5550	0	29640	
5551	0	29736	
5552	0	29784	
5553	0	29788	
5554	0	29772	
5555	0	29784	
5556	0	29904	
5557	0	30046	
5558	0	30088	
5559	0	30020	
5560	0	29944	
5561	0	29920	
5562	0	29900	
5563	0	29864	
5564	0	29872	
5565	0	29980	
5566	0	30064	
5567	0	30114	
5568	0	30180	
5569	0	30244	
5570	0	30316	
5571	0	30396	
5572	0	30362	
5573	0	30362	
5574	0	30300	
5575	0	30340	
5576	0	30372	
5577	0	30432	
5578	0	30496	
5579	0	30464	
5580	0	30428	
5581	0	30420	
5582	0	30402	
5583	0	30372	
5584	0	30388	
5585	0	30418	
5586	0	30428	
5587	0	30456	
5588	0	30468	
5589	0	30500	
5590	0	30544	
5591	0	30624	
5592	0	30658	
5593	0	30676	
5594	0	30656	
5595	0	30684	
5596	0	30768	
5597	0	30808	
5598	0	30840	
5599	0	30856	
5600	0	30884	
5601	0	30880	
5602	0	30836	
5603	0	30864	
5604	0	30960	
5605	0	31048	
5606	0	31080	
5607	0	31068	
5608	0	31080	
5609	0	31116	
5610	0	31112	
5611	0	31028	
5612	0	31064	
5613	0	31160	
5614	0	31284	
5615	0	31350	
5616	0	31332	
5617	0	31306	
5618	0	31318	
5619	0	31276	
5620	0	31208	
5621	0	31212	
5622	0	31176	
5623	0	31180	
5624	0	31200	
5625	0	31216	
5626	0	31264	
5627	0	31332	
5628	0	31376	
5629	0	31368	
5630	0	31362	
5631	0	31480	
5632	0	31596	
5633	0	31624	
5634	0	31616	
5635	0	31628	
5636	0	31676	
5637	0	31728	
5638	0	31712	
5639	0	31628	
5640	0	31588	
5641	0	31656	
5642	0	31680	
5643	0	31676	
5644	0	31624	
5645	0	31600	
5646	0	31612	
5647	0	31620	
5648	0	31592	
5649	0	31614	
5650	0	31652	
5651	0	31688	
5652	0	31724	
5653	0	31784	
5654	0	31844	
5655	0	31820	
5656	0	31800	
5657	0	31784	
5658	0	31816	
5659	0	31856	
5660	0	31880	
5661	0	31920	
5662	0	31930	
5663	0	31864	
5664	0	31830	
5665	0	31892	
5666	0	31936	
5667	0	31930	
5668	0	31924	
5669	0	31940	
5670	0	31996	
5671	0	32000	
5672	0	31946	
5673	0	31952	
5674	0	32020	
5675	0	32072	
5676	0	32056	
5677	0	32068	
5678	0	32056	
5679	0	32064	
5680	0	32104	
5681	0	32132	
5682	0	32144	
5683	0	32164	
5684	0	32192	
5685	0	32154	
5686	0	32132	
5687	0	32104	
5688	0	32096	
5689	0	32080	
5690	0	32096	
5691	0	32116	
5692	0	32124	
5693	0	32068	
5694	0	32044	
5695	0	32124	
5696	0	32176	
5697	0	32212	
5698	0	32188	
5699	0	32120	
5700	0	32096	
5701	0	32084	
5702	0	32096	
5703	0	32168	
5704	0	32272	
5705	0	32276	
5706	0	32236	
5707	0	32276	
5708	0	32320	
5709	0	32264	
5710	0	32232	
5711	0	32228	
5712	0	32224	
5713	0	32208	
5714	0	32228	
5715	0	32248	
5716	0	32300	
5717	0	32432	
5718	0	32536	
5719	0	32464	
5720	0	32440	
5721	0	32502	
5722	0	32416	
5723	0	32340	
5724	0	32344	
5725	0	32352	
5726	0	32272	
5727	0	32146	
5728	0	32144	
5729	0	32120	
5730	0	32100	
5731	0	32128	
5732	0	32120	
5733	0	32124	
5734	0	32128	
5735	0	32092	
5736	0	32170	
5737	0	32264	
5738	0	32262	
5739	0	32284	
5740	0	32372	
5741	0	32416	
5742	0	32440	
5743	0	32452	
5744	0	32460	
5745	0	32456	
5746	0	32456	
5747	0	32456	
5748	0	32420	
5749	0	32436	
5750	0	32460	
5751	0	32444	
5752	0	32484	
5753	0	32492	
5754	0	32400	
5755	0	32384	
5756	0	32452	
5757	0	32460	
5758	0	32456	
5759	0	32480	
5760	0	32506	
5761	0	32484	
5762	0	32432	
5763	0	32456	
5764	0	32480	
5765	0	32472	
5766	0	32500	
5767	0	32508	
5768	0	32496	
5769	0	32484	
5770	0	32496	
5771	0	32512	
5772	0	32468	
5773	0	32436	
5774	0	32452	
5775	0	32516	
5776	0	32616	
5777	0	32660	
5778	0	32676	
5779	0	32700	
5780	0	32692	
5781	0	32648	
5782	0	32604	
5783	0	32578	
5784	0	32608	
5785	0	32636	
5786	0	32640	
5787	0	32608	
5788	0	32628	
5789	0	32608	
5790	0	32552	
5791	0	32536	
5792	0	32598	
5793	0	32648	
5794	0	32674	
5795	0	32624	
5796	0	32580	
5797	0	32592	
5798	0	32672	
5799	0	32846	
5800	0	32916	
5801	0	32968	
5802	0	33056	
5803	0	33132	
5804	0	33252	
5805	0	33428	
5806	0	33608	
5807	0	33880	
5808	0	34072	
5809	0	34200	
5810	0	34400	
5811	0	34562	
5812	0	34688	
5813	0	34772	
5814	0	34776	
5815	0	34740	
5816	0	34784	
5817	0	34792	
5818	0	34788	
5819	0	34832	
5820	0	34872	
5821	0	34928	
5822	0	34992	
5823	0	35070	
5824	0	35116	
5825	0	35148	
5826	0	35188	
5827	0	35322	
5828	0	35316	
5829	0	35328	
5830	0	35420	
5831	0	35512	
5832	0	35468	
5833	0	35456	
5834	0	35492	
5835	0	35544	
5836	0	35576	
5837	0	35572	
5838	0	35576	
5839	0	35600	
5840	0	35620	
5841	0	35704	
5842	0	35860	
5843	0	35956	
5844	0	35952	
5845	0	35856	
5846	0	35696	
5847	0	35520	
5848	0	35352	
5849	0	35200	
5850	0	34956	
5851	0	34736	
5852	0	34528	
5853	0	34324	
5854	0	34156	
5855	0	34040	
5856	0	33928	
5857	0	33780	
5858	0	33600	
5859	0	33470	
5860	0	33448	
5861	0	33360	
5862	0	33312	
5863	0	33328	
5864	0	33368	
5865	0	33364	
5866	0	33376	
5867	0	33408	
5868	0	33400	
5869	0	33292	
5870	0	33176	
5871	0	33036	
5872	0	32912	
5873	0	32840	
5874	0	32856	
5875	0	32772	
5876	0	32648	
5877	0	32584	
5878	0	32468	
5879	0	32332	
5880	0	32192	
5881	0	32032	
5882	0	31870	
5883	0	31788	
5884	0	31696	
5885	0	31560	
5886	0	31376	
5887	0	31288	
5888	0	31228	
5889	0	31248	
5890	0	31310	
5891	0	31340	
5892	0	31312	
5893	0	31272	
5894	0	31284	
5895	0	31280	
5896	0	31236	
5897	0	31224	
5898	0	31252	
5899	0	31272	
5900	0	31292	
5901	0	31280	
5902	0	31272	
5903	0	31260	
5904	0	31272	
5905	0	31332	
5906	0	31304	
5907	0	31328	
5908	0	31404	
5909	0	31428	
5910	0	31436	
5911	0	31432	
5912	0	31412	
5913	0	31404	
5914	0	31428	
5915	0	31440	
5916	0	31412	
5917	0	31400	
5918	0	31396	
5919	0	31368	
5920	0	31288	
5921	0	31248	
5922	0	31284	
5923	0	31284	
5924	0	31296	
5925	0	31296	
5926	0	31328	
5927	0	31390	
5928	0	31434	
5929	0	31496	
5930	0	31548	
5931	0	31524	
5932	0	31452	
5933	0	31472	
5934	0	31544	
5935	0	31680	
5936	0	31752	
5937	0	31820	
5938	0	31864	
5939	0	31844	
5940	0	31856	
5941	0	31832	
5942	0	31800	
5943	0	31810	
5944	0	31816	
5945	0	31824	
5946	0	31868	
5947	0	31880	
5948	0	31888	
5949	0	31816	
5950	0	31744	
5951	0	31696	
5952	0	31652	
5953	0	31550	
5954	0	31320	
5955	0	31080	
5956	0	30968	
5957	0	31060	
5958	0	31188	
5959	0	31372	
5960	0	31612	
5961	0	31984	
5962	0	32528	
5963	0	33168	
5964	0	33788	
5965	0	34512	
5966	0	35308	
5967	0	36268	
5968	0	37336	
5969	0	38594	
5970	0	40016	
5971	0	41356	
5972	0	42648	
5973	0	44032	
5974	0	45520	
5975	0	47064	
5976	0	48666	
5977	0	50256	
5978	0	51704	
5979	0	53056	
5980	0	54360	
5981	0	55556	
5982	0	56640	
5983	0	57524	
5984	0	58228	
5985	0	58820	
5986	0	59224	
5987	0	59192	
5988	0	58080	
5989	0	56004	
5990	0	53168	
5991	0	49800	
5992	0	46360	
5993	0	42868	
5994	0	39060	
5995	0	35136	
5996	0	31616	
5997	0	28938	
5998	0	27124	
5999	0	26024	
6000	0	25428	
6001	0	25256	
6002	0	25412	
6003	0	25716	
6004	0	26104	
6005	0	26584	
6006	0	27176	
6007	0	27804	
6008	0	28424	
6009	0	29108	
6010	0	29728	
6011	0	30218	
6012	0	30604	
6013	0	30900	
6014	0	31018	
6015	0	31012	
6016	0	31036	
6017	0	31044	
6018	0	30956	
6019	0	30900	
6020	0	30874	
6021	0	30832	
6022	0	30792	
6023	0	30672	
6024	0	30532	
6025	0	30472	
6026	0	30492	
6027	0	30440	
6028	0	30392	
6029	0	30410	
6030	0	30416	
6031	0	30440	
6032	0	30438	
6033	0	30360	
6034	0	30288	
6035	0	30304	
6036	0	30352	
6037	0	30380	
6038	0	30350	
6039	0	30368	
6040	0	30416	
6041	0	30456	
6042	0	30500	
6043	0	30532	
6044	0	30460	
6045	0	30464	
6046	0	30568	
6047	0	30656	
6048	0	30572	
6049	0	30496	
6050	0	30541	
6051	0	30602	
6052	0	30588	
6053	0	30572	
6054	0	30624	
6055	0	30656	
6056	0	30672	
6057	0	30692	
6058	0	30752	
6059	0	30800	
6060	0	30784	
6061	0	30732	
6062	0	30680	
6063	0	30672	
6064	0	30728	
6065	0	30792	
6066	0	30868	
6067	0	30940	
6068	0	31004	
6069	0	31036	
6070	0	30992	
6071	0	31004	
6072	0	31064	
6073	0	31096	
6074	0	31116	
6075	0	31092	
6076	0	31108	
6077	0	31144	
6078	0	31184	
6079	0	31128	
6080	0	31096	
6081	0	31076	
6082	0	31104	
6083	0	31200	
6084	0	31340	
6085	0	31398	
6086	0	31404	
6087	0	31408	
6088	0	31428	
6089	0	31496	
6090	0	31612	
6091	0	31664	
6092	0	31654	
6093	0	31660	
6094	0	31674	
6095	0	31664	
6096	0	31684	
6097	0	31692	
6098	0	31712	
6099	0	31752	
6100	0	31800	
6101	0	31852	
6102	0	31840	
6103	0	31868	
6104	0	31904	
6105	0	31916	
6106	0	31958	
6107	0	31972	
6108	0	31996	
6109	0	32034	
6110	0	32060	
6111	0	32122	
6112	0	32184	
6113	0	32240	
6114	0	32244	
6115	0	32212	
6116	0	32252	
6117	0	32280	
6118	0	32324	
6119	0	32412	
6120	0	32436	
6121	0	32416	
6122	0	32420	
6123	0	32448	
6124	0	32464	
6125	0	32464	
6126	0	32504	
6127	0	32544	
6128	0	32532	
6129	0	32552	
6130	0	32592	
6131	0	32660	
6132	0	32628	
6133	0	32608	
6134	0	32608	
6135	0	32740	
6136	0	32840	
6137	0	32872	
6138	0	32882	
6139	0	32928	
6140	0	32896	
6141	0	32892	
6142	0	32936	
6143	0	32932	
6144	0	32964	
6145	0	33002	
6146	0	33032	
6147	0	33104	
6148	0	33208	
6149	0	33256	
6150	0	33248	
6151	0	33244	
6152	0	33256	
6153	0	33304	
6154	0	33408	
6155	0	33400	
6156	0	33312	
6157	0	33326	
6158	0	33416	
6159	0	33496	
6160	0	33568	
6161	0	33688	
6162	0	33780	
6163	0	33744	
6164	0	33744	
6165	0	33760	
6166	0	33844	
6167	0	33956	
6168	0	34004	
6169	0	34068	
6170	0	34168	
6171	0	34200	
6172	0	34260	
6173	0	34364	
6174	0	34468	
6175	0	34498	
6176	0	34572	
6177	0	34628	
6178	0	34620	
6179	0	34632	
6180	0	34746	
6181	0	34880	
6182	0	34978	
6183	0	35072	
6184	0	35152	
6185	0	35192	
6186	0	35280	
6187	0	35376	
6188	0	35424	
6189	0	35480	
6190	0	35592	
6191	0	35668	
6192	0	35756	
6193	0	35866	
6194	0	35944	
6195	0	36036	
6196	0	36080	
6197	0	36096	
6198	0	36188	
6199	0	36216	
6200	0	36296	
6201	0	36386	
6202	0	36472	
6203	0	36588	
6204	0	36654	
6205	0	36724	
6206	0	36836	
6207	0	36916	
6208	0	37016	
6209	0	37040	
6210	0	37044	
6211	0	37184	
6212	0	37276	
6213	0	37376	
6214	0	37476	
6215	0	37480	
6216	0	37480	
6217	0	37508	
6218	0	37540	
6219	0	37600	
6220	0	37612	
6221	0	37656	
6222	0	37712	
6223	0	37740	
6224	0	37812	
6225	0	37888	
6226	0	37936	
6227	0	37944	
6228	0	37884	
6229	0	37888	
6230	0	37948	
6231	0	37892	
6232	0	37900	
6233	0	37896	
6234	0	37880	
6235	0	37860	
6236	0	37856	
6237	0	37828	
6238	0	37764	
6239	0	37660	
6240	0	37568	
6241	0	37500	
6242	0	37454	
6243	0	37328	
6244	0	37136	
6245	0	36968	
6246	0	36808	
6247	0	36676	
6248	0	36484	
6249	0	36300	
6250	0	36176	
6251	0	36068	
6252	0	35864	
6253	0	35520	
6254	0	35276	
6255	0	35092	
6256	0	34888	
6257	0	34664	
6258	0	34472	
6259	0	34288	
6260	0	34072	
6261	0	33832	
6262	0	33612	
6263	0	33436	
6264	0	33264	
6265	0	33088	
6266	0	32884	
6267	0	32666	
6268	0	32432	
6269	0	32172	
6270	0	31980	
6271	0	31832	
6272	0	31668	
6273	0	31512	
6274	0	31384	
6275	0	31256	
6276	0	31124	
6277	0	31016	
6278	0	30888	
6279	0	30780	
6280	0	30692	
6281	0	30584	
6282	0	30472	
6283	0	30356	
6284	0	30200	
6285	0	30012	
6286	0	29892	
6287	0	29862	
6288	0	29812	
6289	0	29634	
6290	0	29552	
6291	0	29528	
6292	0	29468	
6293	0	29444	
6294	0	29440	
6295	0	29378	
6296	0	29292	
6297	0	29322	
6298	0	29336	
6299	0	29300	
6300	0	29240	
6301	0	29204	
6302	0	29120	
6303	0	29024	
6304	0	29042	
6305	0	29040	
6306	0	29028	
6307	0	28944	
6308	0	28928	
6309	0	28976	
6310	0	28984	
6311	0	29028	
6312	0	29040	
6313	0	28988	
6314	0	29024	
6315	0	29064	
6316	0	29072	
6317	0	29104	
6318	0	29122	
6319	0	29116	
6320	0	29076	
6321	0	29024	
6322	0	29072	
6323	0	29112	
6324	0	29200	
6325	0	29236	
6326	0	29308	
6327	0	29324	
6328	0	29296	
6329	0	29308	
6330	0	29304	
6331	0	29340	
6332	0	29424	
6333	0	29468	
6334	0	29520	
6335	0	29568	
6336	0	29560	
6337	0	29506	
6338	0	29508	
6339	0	29536	
6340	0	29556	
6341	0	29552	
6342	0	29616	
6343	0	29652	
6344	0	29732	
6345	0	29776	
6346	0	29856	
6347	0	29884	
6348	0	29864	
6349	0	29848	
6350	0	29844	
6351	0	29836	
6352	0	29768	
6353	0	29776	
6354	0	29864	
6355	0	29856	
6356	0	29856	
6357	0	29924	
6358	0	29998	
6359	0	30088	
6360	0	30082	
6361	0	30076	
6362	0	30082	
6363	0	30076	
6364	0	30096	
6365	0	30208	
6366	0	30328	
6367	0	30376	
6368	0	30360	
6369	0	30366	
6370	0	30392	
6371	0	30392	
6372	0	30384	
6373	0	30360	
6374	0	30348	
6375	0	30400	
6376	0	30480	
6377	0	30528	
6378	0	30552	
6379	0	30556	
6380	0	30544	
6381	0	30624	
6382	0	30664	
6383	0	30748	
6384	0	30794	
6385	0	30752	
6386	0	30722	
6387	0	30736	
6388	0	30788	
6389	0	30808	
6390	0	30861	
6391	0	30910	
6392	0	30888	
6393	0	30876	
6394	0	30864	
6395	0	30884	
6396	0	30916	
6397	0	30920	
6398	0	30944	
6399	0	30984	
6400	0	30932	
6401	0	30892	
6402	0	30868	
6403	0	30896	
6404	0	30924	
6405	0	30912	
6406	0	30904	
6407	0	30965	
6408	0	31004	
6409	0	30988	
6410	0	31020	
6411	0	31040	
6412	0	31068	
6413	0	31116	
6414	0	31070	
6415	0	31024	
6416	0	31002	
6417	0	31052	
6418	0	31022	
6419	0	31008	
6420	0	30990	
6421	0	31000	
6422	0	31012	
6423	0	31020	
6424	0	31088	
6425	0	31148	
6426	0	31192	
6427	0	31204	
6428	0	31216	
6429	0	31236	
6430	0	31210	
6431	0	31188	
6432	0	31188	
6433	0	31228	
6434	0	31242	
6435	0	31240	
6436	0	31272	
6437	0	31256	
6438	0	31216	
6439	0	31216	
6440	0	31194	
6441	0	31152	
6442	0	31160	
6443	0	31264	
6444	0	31364	
6445	0	31324	
6446	0	31344	
6447	0	31376	
6448	0	31328	
6449	0	31236	
6450	0	31232	
6451	0	31256	
6452	0	31232	
6453	0	31216	
6454	0	31288	
6455	0	31360	
6456	0	31380	
6457	0	31348	
6458	0	31332	
6459	0	31336	
6460	0	31364	
6461	0	31388	
6462	0	31362	
6463	0	31360	
6464	0	31392	
6465	0	31424	
6466	0	31400	
6467	0	31380	
6468	0	31388	
6469	0	31328	
6470	0	31302	
6471	0	31336	
6472	0	31400	
6473	0	31418	
6474	0	31432	
6475	0	31452	
6476	0	31432	
6477	0	31428	
6478	0	31464	
6479	0	31488	
6480	0	31520	
6481	0	31520	
6482	0	31544	
6483	0	31616	
6484	0	31676	
6485	0	31648	
6486	0	31596	
6487	0	31496	
6488	0	31466	
6489	0	31472	
6490	0	31492	
6491	0	31472	
6492	0	31480	
6493	0	31522	
6494	0	31556	
6495	0	31564	
6496	0	31528	
6497	0	31504	
6498	0	31560	
6499	0	31636	
6500	0	31668	
6501	0	31664	
6502	0	31604	
6503	0	31548	
6504	0	31610	
6505	0	31684	
6506	0	31688	
6507	0	31680	
6508	0	31668	
6509	0	31688	
6510	0	31644	
6511	0	31592	
6512	0	31648	
6513	0	31722	
6514	0	31708	
6515	0	31636	
6516	0	31620	
6517	0	31644	
6518	0	31644	
6519	0	31648	
6520	0	31688	
6521	0	31740	
6522	0	31788	
6523	0	31776	
6524	0	31792	
6525	0	31820	
6526	0	31840	
6527	0	31848	
6528	0	31926	
6529	0	31952	
6530	0	31916	
6531	0	31892	
6532	0	31868	
6533	0	31866	
6534	0	31862	
6535	0	31910	
6536	0	31932	
6537	0	31912	
6538	0	31876	
6539	0	31892	
6540	0	31936	
6541	0	31948	
6542	0	31880	
6543	0	31864	
6544	0	31900	
6545	0	31942	
6546	0	32032	
6547	0	32116	
6548	0	32140	
6549	0	32124	
6550	0	32116	
6551	0	32116	
6552	0	32116	
6553	0	32072	
6554	0	32064	
6555	0	32124	
6556	0	32172	
6557	0	32136	
6558	0	32120	
6559	0	32156	
6560	0	32180	
6561	0	32160	
6562	0	32164	
6563	0	32164	
6564	0	32184	
6565	0	32236	
6566	0	32224	
6567	0	32220	
6568	0	32212	
6569	0	32192	
6570	0	32168	
6571	0	32154	
6572	0	32178	
6573	0	32250	
6574	0	32296	
6575	0	32280	
6576	0	32232	
6577	0	32216	
6578	0	32244	
6579	0	32260	
6580	0	32304	
6581	0	32372	
6582	0	32356	
6583	0	32320	
6584	0	32320	
6585	0	32384	
6586	0	32478	
6587	0	32524	
6588	0	32552	
6589	0	32608	
6590	0	32662	
6591	0	32764	
6592	0	32892	
6593	0	33036	
6594	0	33148	
6595	0	33276	
6596	0	33436	
6597	0	33696	
6598	0	33952	
6599	0	34108	
6600	0	34172	
6601	0	34208	
6602	0	34236	
6603	0	34204	
6604	0	34158	
6605	0	34144	
6606	0	34242	
6607	0	34360	
6608	0	34364	
6609	0	34400	
6610	0	34512	
6611	0	34596	
6612	0	34672	
6613	0	34784	
6614	0	34816	
6615	0	34844	
6616	0	34924	
6617	0	34996	
6618	0	35132	
6619	0	35196	
6620	0	35220	
6621	0	35210	
6622	0	35224	
6623	0	35232	
6624	0	35212	
6625	0	35232	
6626	0	35288	
6627	0	35386	
6628	0	35532	
6629	0	35680	
6630	0	35828	
6631	0	35896	
6632	0	35828	
6633	0	35720	
6634	0	35624	
6635	0	35544	
6636	0	35402	
6637	0	35192	
6638	0	34896	
6639	0	34632	
6640	0	34428	
6641	0	34304	
6642	0	34240	
6643	0	34148	
6644	0	34040	
6645	0	33976	
6646	0	33892	
6647	0	33784	
6648	0	33712	
6649	0	33608	
6650	0	33552	
6651	0	33552	
6652	0	33612	
6653	0	33600	
6654	0	33540	
6655	0	33464	
6656	0	33364	
6657	0	33248	
6658	0	33114	
6659	0	33008	
6660	0	32900	
6661	0	32844	
6662	0	32824	
6663	0	32772	
6664	0	32672	
6665	0	32576	
6666	0	32460	
6667	0	32384	
6668	0	32312	
6669	0	32234	
6670	0	32108	
6671	0	31928	
6672	0	31792	
6673	0	31692	
6674	0	31568	
6675	0	31488	
6676	0	31432	
6677	0	31432	
6678	0	31504	
6679	0	31552	
6680	0	31544	
6681	0	31512	
6682	0	31528	
6683	0	31564	
6684	0	31568	
6685	0	31568	
6686	0	31516	
6687	0	31496	
6688	0	31561	
6689	0	31620	
6690	0	31616	
6691	0	31616	
6692	0	31592	
6693	0	31604	
6694	0	31624	
6695	0	31636	
6696	0	31700	
6697	0	31728	
6698	0	31724	
6699	0	31760	
6700	0	31844	
6701	0	31856	
6702	0	31800	
6703	0	31752	
6704	0	31772	
6705	0	31772	
6706	0	31688	
6707	0	31714	
6708	0	31776	
6709	0	31820	
6710	0	31776	
6711	0	31700	
6712	0	31706	
6713	0	31708	
6714	0	31712	
6715	0	31736	
6716	0	31744	
6717	0	31776	
6718	0	31856	
6719	0	31880	
6720	0	31892	
6721	0	31920	
6722	0	31900	
6723	0	31836	
6724	0	31846	
6725	0	31928	
6726	0	31968	
6727	0	32012	
6728	0	32076	
6729	0	32160	
6730	0	32188	
6731	0	32184	
6732	0	32178	
6733	0	32224	
6734	0	32280	
6735	0	32266	
6736	0	32184	
6737	0	32142	
6738	0	32100	
6739	0	32048	
6740	0	31908	
6741	0	31688	
6742	0	31460	
6743	0	31328	
6744	0	31312	
6745	0	31388	
6746	0	31482	
6747	0	31616	
6748	0	31780	
6749	0	32068	
6750	0	32576	
6751	0	33162	
6752	0	33768	
6753	0	34532	
6754	0	35408	
6755	0	36302	
6756	0	37344	
6757	0	38648	
6758	0	40124	
6759	0	41532	
6760	0	42916	
6761	0	44360	
6762	0	45824	
6763	0	47284	
6764	0	48776	
6765	0	50280	
6766	0	51752	
6767	0	53104	
6768	0	54360	
6769	0	55624	
6770	0	56776	
6771	0	57684	
6772	0	58380	
6773	0	58864	
6774	0	59124	
6775	0	58612	
6776	0	56980	
6777	0	54592	
6778	0	51520	
6779	0	48132	
6780	0	44784	
6781	0	41312	
6782	0	37556	
6783	0	33764	
6784	0	30540	
6785	0	28272	
6786	0	26824	
6787	0	26032	
6788	0	25728	
6789	0	25792	
6790	0	26008	
6791	0	26260	
6792	0	26660	
6793	0	27140	
6794	0	27724	
6795	0	28246	
6796	0	28780	
6797	0	29304	
6798	0	29776	
6799	0	30228	
6800	0	30696	
6801	0	31092	
6802	0	31348	
6803	0	31404	
6804	0	31372	
6805	0	31356	
6806	0	31340	
6807	0	31296	
6808	0	31242	
6809	0	31160	
6810	0	31096	
6811	0	31012	
6812	0	30968	
6813	0	30936	
6814	0	30896	
6815	0	30880	
6816	0	30856	
6817	0	30798	
6818	0	30714	
6819	0	30652	
6820	0	30652	
6821	0	30644	
6822	0	30616	
6823	0	30640	
6824	0	30624	
6825	0	30624	
6826	0	30688	
6827	0	30808	
6828	0	30900	
6829	0	30992	
6830	0	31008	
6831	0	30988	
6832	0	30980	
6833	0	30992	
6834	0	31032	
6835	0	31044	
6836	0	30960	
6837	0	30952	
6838	0	30976	
6839	0	30946	
6840	0	30920	
6841	0	30892	
6842	0	30912	
6843	0	30944	
6844	0	31036	
6845	0	31132	
6846	0	31168	
6847	0	31156	
6848	0	31160	
6849	0	31164	
6850	0	31176	
6851	0	31196	
6852	0	31236	
6853	0	31248	
6854	0	31256	
6855	0	31292	
6856	0	31360	
6857	0	31424	
6858	0	31472	
6859	0	31460	
6860	0	31448	
6861	0	31480	
6862	0	31500	
6863	0	31508	
6864	0	31484	
6865	0	31496	
6866	0	31548	
6867	0	31608	
6868	0	31672	
6869	0	31674	
6870	0	31640	
6871	0	31636	
6872	0	31648	
6873	0	31644	
6874	0	31656	
6875	0	31624	
6876	0	31636	
6877	0	31672	
6878	0	31696	
6879	0	31704	
6880	0	31708	
6881	0	31780	
6882	0	31904	
6883	0	31960	
6884	0	31972	
6885	0	31956	
6886	0	31932	
6887	0	31968	
6888	0	32074	
6889	0	32144	
6890	0	32156	
6891	0	32172	
6892	0	32220	
6893	0	32220	
6894	0	32196	
6895	0	32204	
6896	0	32236	
6897	0	32284	
6898	0	32308	
6899	0	32336	
6900	0	32360	
6901	0	32400	
6902	0	32452	
6903	0	32484	
6904	0	32524	
6905	0	32548	
6906	0	32592	
6907	0	32644	
6908	0	32708	
6909	0	32784	
6910	0	32826	
6911	0	32824	
6912	0	32772	
6913	0	32768	
6914	0	32736	
6915	0	32768	
6916	0	32860	
6917	0	32880	
6918	0	32888	
6919	0	32884	
6920	0	32876	
6921	0	32820	
6922	0	32824	
6923	0	32840	
6924	0	32888	
6925	0	32940	
6926	0	32962	
6927	0	32944	
6928	0	32908	
6929	0	32988	
6930	0	33064	
6931	0	33096	
6932	0	33132	
6933	0	33184	
6934	0	33204	
6935	0	33236	
6936	0	33284	
6937	0	33340	
6938	0	33432	
6939	0	33508	
6940	0	33556	
6941	0	33520	
6942	0	33504	
6943	0	33516	
6944	0	33596	
6945	0	33644	
6946	0	33660	
6947	0	33688	
6948	0	33740	
6949	0	33864	
6950	0	34000	
6951	0	33960	
6952	0	33944	
6953	0	33952	
6954	0	33960	
6955	0	33972	
6956	0	34052	
6957	0	34152	
6958	0	34264	
6959	0	34308	
6960	0	34368	
6961	0	34452	
6962	0	34520	
6963	0	34592	
6964	0	34592	
6965	0	34656	
6966	0	34708	
6967	0	34744	
6968	0	34816	
6969	0	34866	
6970	0	34880	
6971	0	34928	
6972	0	35040	
6973	0	35140	
6974	0	35224	
6975	0	35324	
6976	0	35336	
6977	0	35372	
6978	0	35476	
6979	0	35570	
6980	0	35656	
6981	0	35736	
6982	0	35752	
6983	0	35784	
6984	0	35892	
6985	0	36076	
6986	0	36192	
6987	0	36232	
6988	0	36362	
6989	0	36424	
6990	0	36516	
6991	0	36616	
6992	0	36628	
6993	0	36656	
6994	0	36676	
6995	0	36752	
6996	0	36852	
6997	0	36930	
6998	0	37016	
6999	0	37096	
7000	0	37124	
7001	0	37156	
7002	0	37228	
7003	0	37296	
7004	0	37322	
7005	0	37368	
7006	0	37440	
7007	0	37504	
7008	0	37536	
7009	0	37496	
7010	0	37512	
7011	0	37536	
7012	0	37576	
7013	0	37620	
7014	0	37692	
7015	0	37776	
7016	0	37852	
7017	0	37880	
7018	0	37860	
7019	0	37816	
7020	0	37812	
7021	0	37820	
7022	0	37824	
7023	0	37820	
7024	0	37760	
7025	0	37696	
7026	0	37600	
7027	0	37464	
7028	0	37452	
7029	0	37460	
7030	0	37328	
7031	0	37150	
7032	0	37000	
7033	0	36844	
7034	0	36676	
7035	0	36492	
7036	0	36264	
7037	0	36156	
7038	0	36052	
7039	0	35884	
7040	0	35704	
7041	0	35620	
7042	0	35440	
7043	0	35184	
7044	0	34940	
7045	0	34696	
7046	0	34452	
7047	0	34272	
7048	0	34114	
7049	0	33908	
7050	0	33676	
7051	0	33436	
7052	0	33240	
7053	0	33084	
7054	0	32904	
7055	0	32690	
7056	0	32492	
7057	0	32328	
7058	0	32176	
7059	0	31936	
7060	0	31778	
7061	0	31616	
7062	0	31408	
7063	0	31196	
7064	0	31008	
7065	0	30836	
7066	0	30740	
7067	0	30672	
7068	0	30596	
7069	0	30530	
7070	0	30356	
7071	0	30102	
7072	0	29888	
7073	0	29772	
7074	0	29784	
7075	0	29800	
7076	0	29736	
7077	0	29656	
7078	0	29604	
7079	0	29540	
7080	0	29476	
7081	0	29342	
7082	0	29240	
7083	0	29188	
7084	0	29124	
7085	0	29092	
7086	0	29048	
7087	0	28948	
7088	0	28876	
7089	0	28888	
7090	0	28822	
7091	0	28768	
7092	0	28808	
7093	0	28784	
7094	0	28764	
7095	0	28816	
7096	0	28890	
7097	0	28856	
7098	0	28788	
7099	0	28760	
7100	0	28754	
7101	0	28800	
7102	0	28900	
7103	0	28912	
7104	0	28876	
7105	0	28960	
7106	0	29020	
7107	0	29052	
7108	0	29116	
7109	0	29176	
7110	0	29160	
7111	0	29228	
7112	0	29220	
7113	0	29112	
7114	0	29010	
7115	0	28956	
7116	0	28954	
7117	0	28988	
7118	0	29000	
7119	0	29004	
7120	0	29024	
7121	0	29056	
7122	0	29048	
7123	0	29098	
7124	0	29200	
7125	0	29228	
7126	0	29218	
7127	0	29296	
7128	0	29352	
7129	0	29346	
7130	0	29352	
7131	0	29460	
7132	0	29512	
7133	0	29548	
7134	0	29596	
7135	0	29604	
7136	0	29648	
7137	0	29652	
7138	0	29586	
7139	0	29546	
7140	0	29540	
7141	0	29596	
7142	0	29658	
7143	0	29640	
7144	0	29656	
7145	0	29720	
7146	0	29752	
7147	0	29744	
7148	0	29752	
7149	0	29764	
7150	0	29768	
7151	0	29840	
7152	0	29844	
7153	0	29872	
7154	0	29912	
7155	0	29940	
7156	0	30040	
7157	0	30128	
7158	0	30140	
7159	0	30168	
7160	0	30136	
7161	0	30100	
7162	0	30094	
7163	0	30124	
7164	0	30160	
7165	0	30156	
7166	0	30140	
7167	0	30128	
7168	0	30220	
7169	0	30312	
7170	0	30324	
7171	0	30248	
7172	0	30236	
7173	0	30288	
7174	0	30372	
7175	0	30408	
7176	0	30420	
7177	0	30404	
7178	0	30364	
7179	0	30348	
7180	0	30446	
7181	0	30488	
7182	0	30460	
7183	0	30468	
7184	0	30504	
7185	0	30562	
7186	0	30500	
7187	0	30424	
7188	0	30440	
7189	0	30490	
7190	0	30528	
7191	0	30562	
7192	0	30500	
7193	0	30448	
7194	0	30528	
7195	0	30624	
7196	0	30680	
7197	0	30630	
7198	0	30570	
7199	0	30538	
7200	0	30496	
7201	0	30492	
7202	0	30624	
7203	0	30776	
7204	0	30708	
7205	0	30716	
7206	0	30792	
7207	0	30810	
7208	0	30782	
7209	0	30784	
7210	0	30844	
7211	0	30916	
7212	0	30928	
7213	0	30860	
7214	0	30840	
7215	0	30836	
7216	0	30836	
7217	0	30820	
7218	0	30822	
7219	0	30792	
7220	0	30720	
7221	0	30800	
7222	0	30848	
7223	0	30824	
7224	0	30812	
7225	0	30824	
7226	0	30908	
7227	0	30972	
7228	0	30980	
7229	0	31052	
7230	0	31044	
7231	0	30926	
7232	0	30840	
7233	0	30872	
7234	0	30964	
7235	0	31040	
7236	0	30988	
7237	0	30908	
7238	0	30888	
7239	0	30960	
7240	0	31036	
7241	0	31104	
7242	0	31152	
7243	0	31272	
7244	0	31296	
7245	0	31260	
7246	0	31212	
7247	0	31164	
7248	0	31190	
7249	0	31168	
7250	0	31140	
7251	0	31134	
7252	0	31136	
7253	0	31074	
7254	0	31040	
7255	0	31052	
7256	0	31096	
7257	0	31118	
7258	0	31092	
7259	0	31120	
7260	0	31188	
7261	0	31220	
7262	0	31280	
7263	0	31316	
7264	0	31288	
7265	0	31260	
7266	0	31252	
7267	0	31260	
7268	0	31204	
7269	0	31116	
7270	0	31068	
7271	0	31084	
7272	0	31092	
7273	0	31072	
7274	0	31072	
7275	0	31084	
7276	0	31128	
7277	0	31144	
7278	0	31116	
7279	0	31140	
7280	0	31100	
7281	0	31116	
7282	0	31226	
7283	0	31282	
7284	0	31316	
7285	0	31394	
7286	0	31432	
7287	0	31434	
7288	0	31496	
7289	0	31518	
7290	0	31484	
7291	0	31464	
7292	0	31444	
7293	0	31468	
7294	0	31508	
7295	0	31552	
7296	0	31536	
7297	0	31572	
7298	0	31572	
7299	0	31560	
7300	0	31544	
7301	0	31536	
7302	0	31584	
7303	0	31548	
7304	0	31536	
7305	0	31616	
7306	0	31660	
7307	0	31648	
7308	0	31592	
7309	0	31600	
7310	0	31648	
7311	0	31672	
7312	0	31696	
7313	0	31688	
7314	0	31684	
7315	0	31660	
7316	0	31676	
7317	0	31700	
7318	0	31680	
7319	0	31652	
7320	0	31672	
7321	0	31650	
7322	0	31618	
7323	0	31604	
7324	0	31564	
7325	0	31528	
7326	0	31544	
7327	0	31536	
7328	0	31524	
7329	0	31576	
7330	0	31604	
7331	0	31672	
7332	0	31738	
7333	0	31744	
7334	0	31744	
7335	0	31724	
7336	0	31716	
7337	0	31748	
7338	0	31808	
7339	0	31824	
7340	0	31834	
7341	0	31744	
7342	0	31712	
7343	0	31808	
7344	0	31872	
7345	0	31928	
7346	0	31964	
7347	0	31940	
7348	0	31868	
7349	0	31860	
7350	0	31912	
7351	0	31972	
7352	0	31934	
7353	0	31920	
7354	0	31934	
7355	0	31992	
7356	0	31972	
7357	0	31900	
7358	0	31796	
7359	0	31820	
7360	0	31944	
7361	0	32012	
7362	0	32064	
7363	0	32140	
7364	0	32122	
7365	0	32172	
7366	0	32172	
7367	0	32104	
7368	0	32132	
7369	0	32232	
7370	0	32304	
7371	0	32372	
7372	0	32336	
7373	0	32232	
7374	0	32224	
7375	0	32272	
7376	0	32388	
7377	0	32590	
7378	0	32746	
7379	0	32904	
7380	0	33044	
7381	0	33168	
7382	0	33320	
7383	0	33442	
7384	0	33564	
7385	0	33584	
7386	0	33450	
7387	0	33400	
7388	0	33472	
7389	0	33552	
7390	0	33644	
7391	0	33720	
7392	0	33796	
7393	0	33824	
7394	0	33856	
7395	0	33908	
7396	0	33984	
7397	0	34132	
7398	0	34216	
7399	0	34252	
7400	0	34376	
7401	0	34572	
7402	0	34796	
7403	0	34992	
7404	0	35032	
7405	0	35056	
7406	0	35152	
7407	0	35200	
7408	0	35308	
7409	0	35352	
7410	0	35296	
7411	0	35230	
7412	0	35188	
7413	0	35296	
7414	0	35476	
7415	0	35588	
7416	0	35640	
7417	0	35536	
7418	0	35352	
7419	0	35192	
7420	0	35096	
7421	0	35032	
7422	0	34844	
7423	0	34580	
7424	0	34324	
7425	0	33976	
7426	0	33744	
7427	0	33618	
7428	0	33584	
7429	0	33562	
7430	0	33492	
7431	0	33464	
7432	0	33416	
7433	0	33316	
7434	0	33154	
7435	0	33208	
7436	0	33364	
7437	0	33512	
7438	0	33608	
7439	0	33580	
7440	0	33460	
7441	0	33308	
7442	0	33108	
7443	0	32886	
7444	0	32756	
7445	0	32796	
7446	0	32672	
7447	0	32476	
7448	0	32332	
7449	0	32244	
7450	0	32122	
7451	0	32040	
7452	0	31968	
7453	0	31872	
7454	0	31714	
7455	0	31564	
7456	0	31456	
7457	0	31436	
7458	0	31464	
7459	0	31400	
7460	0	31282	
7461	0	31232	
7462	0	31180	
7463	0	31194	
7464	0	31230	
7465	0	31208	
7466	0	31224	
7467	0	31220	
7468	0	31240	
7469	0	31308	
7470	0	31388	
7471	0	31368	
7472	0	31356	
7473	0	31288	
7474	0	31260	
7475	0	31284	
7476	0	31292	
7477	0	31360	
7478	0	31424	
7479	0	31508	
7480	0	31636	
7481	0	31658	
7482	0	31644	
7483	0	31648	
7484	0	31700	
7485	0	31712	
7486	0	31648	
7487	0	31644	
7488	0	31636	
7489	0	31620	
7490	0	31552	
7491	0	31528	
7492	0	31496	
7493	0	31468	
7494	0	31488	
7495	0	31512	
7496	0	31560	
7497	0	31592	
7498	0	31560	
7499	0	31520	
7500	0	31566	
7501	0	31560	
7502	0	31612	
7503	0	31612	
7504	0	31576	
7505	0	31512	
7506	0	31532	
7507	0	31584	
7508	0	31652	
7509	0	31648	
7510	0	31658	
7511	0	31740	
7512	0	31808	
7513	0	31828	
7514	0	31828	
7515	0	31872	
7516	0	31940	
7517	0	32000	
7518	0	32076	
7519	0	32112	
7520	0	32072	
7521	0	32088	
7522	0	32140	
7523	0	32154	
7524	0	32100	
7525	0	31988	
7526	0	31834	
7527	0	31808	
7528	0	31712	
7529	0	31504	
7530	0	31368	
7531	0	31296	
7532	0	31232	
7533	0	31216	
7534	0	31256	
7535	0	31424	
7536	0	31788	
7537	0	32414	
7538	0	33080	
7539	0	33704	
7540	0	34484	
7541	0	35424	
7542	0	36512	
7543	0	37804	
7544	0	39300	
7545	0	40756	
7546	0	42196	
7547	0	43700	
7548	0	45200	
7549	0	46752	
7550	0	48280	
7551	0	49696	
7552	0	51080	
7553	0	52448	
7554	0	53772	
7555	0	55092	
7556	0	56344	
7557	0	57446	
7558	0	58424	
7559	0	59178	
7560	0	59552	
7561	0	59492	
7562	0	58476	
7563	0	56568	
7564	0	53868	
7565	0	50496	
7566	0	47094	
7567	0	43742	
7568	0	40112	
7569	0	36260	
7570	0	32432	
7571	0	29154	
7572	0	26850	
7573	0	25568	
7574	0	25112	
7575	0	25130	
7576	0	25428	
7577	0	25760	
7578	0	26064	
7579	0	26388	
7580	0	26704	
7581	0	27000	
7582	0	27328	
7583	0	27780	
7584	0	28320	
7585	0	28772	
7586	0	29172	
7587	0	29504	
7588	0	29804	
7589	0	30116	
7590	0	30396	
7591	0	30618	
7592	0	30756	
7593	0	30824	
7594	0	30876	
7595	0	30864	
7596	0	30798	
7597	0	30776	
7598	0	30770	
7599	0	30708	
7600	0	30656	
7601	0	30628	
7602	0	30672	
7603	0	30696	
7604	0	30640	
7605	0	30536	
7606	0	30532	
7607	0	30572	
7608	0	30592	
7609	0	30600	
7610	0	30634	
7611	0	30644	
7612	0	30660	
7613	0	30608	
7614	0	30584	
7615	0	30612	
7616	0	30584	
7617	0	30516	
7618	0	30584	
7619	0	30672	
7620	0	30708	
7621	0	30652	
7622	0	30592	
7623	0	30602	
7624	0	30576	
7625	0	30640	
7626	0	30762	
7627	0	30868	
7628	0	30906	
7629	0	30890	
7630	0	30880	
7631	0	30836	
7632	0	30824	
7633	0	30912	
7634	0	30992	
7635	0	31072	
7636	0	31168	
7637	0	31148	
7638	0	31168	
7639	0	31284	
7640	0	31360	
7641	0	31376	
7642	0	31364	
7643	0	31272	
7644	0	31198	
7645	0	31140	
7646	0	31116	
7647	0	31070	
7648	0	31124	
7649	0	31196	
7650	0	31188	
7651	0	31204	
7652	0	31292	
7653	0	31360	
7654	0	31480	
7655	0	31556	
7656	0	31596	
7657	0	31564	
7658	0	31680	
7659	0	31794	
7660	0	31828	
7661	0	31850	
7662	0	31896	
7663	0	31936	
7664	0	32004	
7665	0	32028	
7666	0	32120	
7667	0	31994	
7668	0	31832	
7669	0	31788	
7670	0	31724	
7671	0	31728	
7672	0	31764	
7673	0	31778	
7674	0	31776	
7675	0	31844	
7676	0	32000	
7677	0	32044	
7678	0	32092	
7679	0	32200	
7680	0	32212	
7681	0	32180	
7682	0	32168	
7683	0	32212	
7684	0	32272	
7685	0	32248	
7686	0	32244	
7687	0	32332	
7688	0	32380	
7689	0	32392	
7690	0	32432	
7691	0	32460	
7692	0	32448	
7693	0	32436	
7694	0	32492	
7695	0	32572	
7696	0	32612	
7697	0	32570	
7698	0	32506	
7699	0	32472	
7700	0	32468	
7701	0	32452	
7702	0	32468	
7703	0	32520	
7704	0	32612	
7705	0	32636	
7706	0	32664	
7707	0	32702	
7708	0	32744	
7709	0	32772	
7710	0	32870	
7711	0	32904	
7712	0	32934	
7713	0	33028	
7714	0	33128	
7715	0	33216	
7716	0	33328	
7717	0	33396	
7718	0	33436	
7719	0	33528	
7720	0	33528	
7721	0	33496	
7722	0	33564	
7723	0	33684	
7724	0	33712	
7725	0	33700	
7726	0	33704	
7727	0	33668	
7728	0	33696	
7729	0	33776	
7730	0	33824	
7731	0	33912	
7732	0	33964	
7733	0	34002	
7734	0	33992	
7735	0	33984	
7736	0	34052	
7737	0	34116	
7738	0	34144	
7739	0	34112	
7740	0	34128	
7741	0	34260	
7742	0	34340	
7743	0	34316	
7744	0	34322	
7745	0	34324	
7746	0	34392	
7747	0	34464	
7748	0	34564	
7749	0	34760	
7750	0	34952	
7751	0	34938	
7752	0	34942	
7753	0	35036	
7754	0	35180	
7755	0	35288	
7756	0	35400	
7757	0	35468	
7758	0	35520	
7759	0	35576	
7760	0	35676	
7761	0	35768	
7762	0	35920	
7763	0	35952	
7764	0	35920	
7765	0	35924	
7766	0	35914	
7767	0	35884	
7768	0	35902	
7769	0	35936	
7770	0	36048	
7771	0	36216	
7772	0	36296	
7773	0	36404	
7774	0	36532	
7775	0	36612	
7776	0	36596	
7777	0	36726	
7778	0	36896	
7779	0	37032	
7780	0	37064	
7781	0	37074	
7782	0	37056	
7783	0	37056	
7784	0	37192	
7785	0	37334	
7786	0	37456	
7787	0	37600	
7788	0	37668	
7789	0	37760	
7790	0	37836	
7791	0	37848	
7792	0	37844	
7793	0	37840	
7794	0	37868	
7795	0	37912	
7796	0	38060	
7797	0	38208	
7798	0	38298	
7799	0	38348	
7800	0	38384	
7801	0	38402	
7802	0	38408	
7803	0	38400	
7804	0	38388	
7805	0	38424	
7806	0	38444	
7807	0	38424	
7808	0	38292	
7809	0	38116	
7810	0	38016	
7811	0	38004	
7812	0	37932	
7813	0	37828	
7814	0	37754	
7815	0	37676	
7816	0	37620	
7817	0	37568	
7818	0	37504	
7819	0	37448	
7820	0	37332	
7821	0	37192	
7822	0	37030	
7823	0	36868	
7824	0	36656	
7825	0	36496	
7826	0	36244	
7827	0	35996	
7828	0	35788	
7829	0	35648	
7830	0	35568	
7831	0	35492	
7832	0	35240	
7833	0	34928	
7834	0	34696	
7835	0	34512	
7836	0	34300	
7837	0	34076	
7838	0	33824	
7839	0	33584	
7840	0	33344	
7841	0	33164	
7842	0	33052	
7843	0	32856	
7844	0	32680	
7845	0	32480	
7846	0	32296	
7847	0	32104	
7848	0	31888	
7849	0	31688	
7850	0	31536	
7851	0	31400	
7852	0	31272	
7853	0	31088	
7854	0	30892	
7855	0	30772	
7856	0	30740	
7857	0	30672	
7858	0	30536	
7859	0	30274	
7860	0	30076	
7861	0	30028	
7862	0	29996	
7863	0	29992	
7864	0	29922	
7865	0	29860	
7866	0	29784	
7867	0	29704	
7868	0	29612	
7869	0	29456	
7870	0	29376	
7871	0	29412	
7872	0	29404	
7873	0	29366	
7874	0	29372	
7875	0	29348	
7876	0	29268	
7877	0	29191	
7878	0	29120	
7879	0	29056	
7880	0	29068	
7881	0	29064	
7882	0	29030	
7883	0	29060	
7884	0	29168	
7885	0	29248	
7886	0	29248	
7887	0	29232	
7888	0	29236	
7889	0	29208	
7890	0	29188	
7891	0	29212	
7892	0	29240	
7893	0	29272	
7894	0	29332	
7895	0	29330	
7896	0	29312	
7897	0	29248	
7898	0	29212	
7899	0	29152	
7900	0	29224	
7901	0	29280	
7902	0	29280	
7903	0	29348	
7904	0	29372	
7905	0	29402	
7906	0	29488	
7907	0	29600	
7908	0	29624	
7909	0	29588	
7910	0	29548	
7911	0	29540	
7912	0	29662	
7913	0	29676	
7914	0	29640	
7915	0	29624	
7916	0	29568	
7917	0	29624	
7918	0	29660	
7919	0	29644	
7920	0	29688	
7921	0	29712	
7922	0	29704	
7923	0	29676	
7924	0	29708	
7925	0	29792	
7926	0	29864	
7927	0	29896	
7928	0	29896	
7929	0	29860	
7930	0	29828	
7931	0	29836	
7932	0	29868	
7933	0	29908	
7934	0	29936	
7935	0	29992	
7936	0	29932	
7937	0	29928	
7938	0	29924	
7939	0	29948	
7940	0	29972	
7941	0	30032	
7942	0	30136	
7943	0	30248	
7944	0	30298	
7945	0	30308	
7946	0	30288	
7947	0	30252	
7948	0	30284	
7949	0	30304	
7950	0	30304	
7951	0	30320	
7952	0	30368	
7953	0	30424	
7954	0	30472	
7955	0	30460	
7956	0	30456	
7957	0	30564	
7958	0	30624	
7959	0	30576	
7960	0	30514	
7961	0	30480	
7962	0	30528	
7963	0	30556	
7964	0	30552	
7965	0	30588	
7966	0	30584	
7967	0	30626	
7968	0	30686	
7969	0	30696	
7970	0	30708	
7971	0	30684	
7972	0	30650	
7973	0	30672	
7974	0	30736	
7975	0	30806	
7976	0	30816	
7977	0	30780	
7978	0	30808	
7979	0	30892	
7980	0	30956	
7981	0	30880	
7982	0	30808	
7983	0	30840	
7984	0	30892	
7985	0	30908	
7986	0	31036	
7987	0	31144	
7988	0	31072	
7989	0	31000	
7990	0	31036	
7991	0	30994	
7992	0	30928	
7993	0	30912	
7994	0	30900	
7995	0	30976	
7996	0	31104	
7997	0	31176	
7998	0	31232	
7999	0	31208	
8000	0	31176	
8001	0	31116	
8002	0	31128	
8003	0	31148	
8004	0	31176	
8005	0	31172	
8006	0	31208	
8007	0	31312	
8008	0	31396	
8009	0	31440	
8010	0	31418	
8011	0	31328	
8012	0	31328	
8013	0	31408	
8014	0	31444	
8015	0	31500	
8016	0	31514	
8017	0	31452	
8018	0	31372	
8019	0	31298	
