# OpenSignals Text File Format. Version 1
# {"00:07:80:4B:15:F7": {"position": 0, "device": "biosignalsplux", "device name": "00:07:80:4B:15:F7", "device connection": "BTH00:07:80:4B:15:F7", "sampling rate": 1000, "resolution": [16], "firmware version": 775, "comments": "", "keywords": "", "mode": 0, "sync interval": 2, "date": "2023-3-2", "time": "17:36:7.115", "channels": [1], "sensor": ["ECG"], "label": ["CH1"], "column": ["nSeq", "DI", "CH1"], "special": [{"SpO2": [80, 40, 5, 4, 3, 3]}, {"SpO2": [80, 40, 5, 4, 3, 3]}, {"SpO2": [80, 40, 5, 4, 3, 3]}, {"SpO2": [80, 40, 5, 4, 3, 3]}, {"SpO2": [80, 40, 5, 4, 3, 3]}, {"SpO2": [80, 40, 5, 4, 3, 3]}, {"SpO2": [80, 40, 5, 4, 3, 3]}, {"SpO2": [80, 40, 5, 4, 3, 3]}], "digital IO": [0, 1], "sleeve color": [""], "convertedValues": 0}}
# EndOfHeader
0	0	30648	
1	0	30572	
2	0	30516	
3	0	30534	
4	0	30568	
5	0	30652	
6	0	30716	
7	0	30784	
8	0	30888	
9	0	30936	
10	0	30972	
11	0	30972	
12	0	31004	
13	0	31060	
14	0	30988	
15	0	31020	
16	0	31016	
17	0	30956	
18	0	30984	
19	0	30964	
20	0	30946	
21	0	31040	
22	0	30978	
23	0	31032	
24	0	31040	
25	0	31032	
26	0	31048	
27	0	31180	
28	0	31384	
29	0	31448	
30	0	31388	
31	0	31376	
32	0	31420	
33	0	31428	
34	0	31456	
35	0	31408	
36	0	31290	
37	0	31128	
38	0	31212	
39	0	31392	
40	0	31384	
41	0	31310	
42	0	31240	
43	0	31288	
44	0	31348	
45	0	31364	
46	0	31412	
47	0	31458	
48	0	31448	
49	0	31444	
50	0	31440	
51	0	31544	
52	0	31628	
53	0	31696	
54	0	31736	
55	0	31648	
56	0	31656	
57	0	31744	
58	0	31676	
59	0	31622	
60	0	31508	
61	0	31500	
62	0	31516	
63	0	31604	
64	0	31668	
65	0	31640	
66	0	31628	
67	0	31696	
68	0	31730	
69	0	31784	
70	0	31884	
71	0	31856	
72	0	31732	
73	0	31712	
74	0	31776	
75	0	31800	
76	0	31772	
77	0	31772	
78	0	31732	
79	0	31744	
80	0	31648	
81	0	31534	
82	0	31560	
83	0	31680	
84	0	31792	
85	0	31836	
86	0	31866	
87	0	31908	
88	0	31864	
89	0	31904	
90	0	32016	
91	0	32096	
92	0	32092	
93	0	32000	
94	0	31824	
95	0	31784	
96	0	31768	
97	0	31728	
98	0	31714	
99	0	31784	
100	0	31812	
101	0	31764	
102	0	31780	
103	0	31860	
104	0	31828	
105	0	31748	
106	0	31730	
107	0	31832	
108	0	31928	
109	0	31944	
110	0	31964	
111	0	31944	
112	0	32008	
113	0	32004	
114	0	31968	
115	0	31884	
116	0	31778	
117	0	31792	
118	0	31856	
119	0	31888	
120	0	31876	
121	0	31880	
122	0	31876	
123	0	31956	
124	0	32104	
125	0	32040	
126	0	31952	
127	0	31948	
128	0	32060	
129	0	32157	
130	0	32244	
131	0	32276	
132	0	32312	
133	0	32324	
134	0	32404	
135	0	32536	
136	0	32581	
137	0	32548	
138	0	32586	
139	0	32744	
140	0	32856	
141	0	32960	
142	0	33120	
143	0	33344	
144	0	33448	
145	0	33556	
146	0	33696	
147	0	33840	
148	0	33976	
149	0	34136	
150	0	34184	
151	0	34204	
152	0	34312	
153	0	34412	
154	0	34356	
155	0	34224	
156	0	34172	
157	0	34172	
158	0	34124	
159	0	34144	
160	0	34276	
161	0	34424	
162	0	34592	
163	0	34680	
164	0	34688	
165	0	34768	
166	0	34836	
167	0	34920	
168	0	34992	
169	0	35036	
170	0	35040	
171	0	34988	
172	0	35008	
173	0	35072	
174	0	35104	
175	0	35052	
176	0	35092	
177	0	35268	
178	0	35380	
179	0	35318	
180	0	35072	
181	0	34832	
182	0	34756	
183	0	34600	
184	0	34420	
185	0	34416	
186	0	34324	
187	0	34058	
188	0	33874	
189	0	33724	
190	0	33626	
191	0	33513	
192	0	33404	
193	0	33412	
194	0	33320	
195	0	33096	
196	0	32888	
197	0	32720	
198	0	32644	
199	0	32716	
200	0	32737	
201	0	32672	
202	0	32640	
203	0	32582	
204	0	32564	
205	0	32592	
206	0	32664	
207	0	32764	
208	0	32768	
209	0	32616	
210	0	32478	
211	0	32360	
212	0	32220	
213	0	32136	
214	0	32078	
215	0	31992	
216	0	31868	
217	0	31788	
218	0	31648	
219	0	31562	
220	0	31488	
221	0	31440	
222	0	31408	
223	0	31352	
224	0	31308	
225	0	31194	
226	0	31124	
227	0	31152	
228	0	31284	
229	0	31456	
230	0	31540	
231	0	31536	
232	0	31500	
233	0	31424	
234	0	31328	
235	0	31308	
236	0	31380	
237	0	31418	
238	0	31360	
239	0	31268	
240	0	31400	
241	0	31464	
242	0	31424	
243	0	31442	
244	0	31396	
245	0	31384	
246	0	31312	
247	0	31316	
248	0	31392	
249	0	31362	
250	0	31424	
251	0	31546	
252	0	31620	
253	0	31594	
254	0	31650	
255	0	31700	
256	0	31576	
257	0	31572	
258	0	31636	
259	0	31636	
260	0	31664	
261	0	31660	
262	0	31640	
263	0	31624	
264	0	31620	
265	0	31656	
266	0	31768	
267	0	31908	
268	0	31988	
269	0	31860	
270	0	31648	
271	0	31672	
272	0	31808	
273	0	31896	
274	0	31948	
275	0	31984	
276	0	31954	
277	0	31912	
278	0	32008	
279	0	32136	
280	0	32208	
281	0	32240	
282	0	32220	
283	0	32160	
284	0	32172	
285	0	32220	
286	0	32136	
287	0	31968	
288	0	32080	
289	0	32218	
290	0	32292	
291	0	32216	
292	0	32192	
293	0	32116	
294	0	31976	
295	0	31800	
296	0	31560	
297	0	31284	
298	0	31264	
299	0	31656	
300	0	31913	
301	0	32096	
302	0	32452	
303	0	32984	
304	0	33576	
305	0	34104	
306	0	34920	
307	0	35820	
308	0	36808	
309	0	38004	
310	0	39332	
311	0	40748	
312	0	42184	
313	0	43380	
314	0	44616	
315	0	45940	
316	0	47280	
317	0	48684	
318	0	50074	
319	0	51280	
320	0	52516	
321	0	53780	
322	0	54976	
323	0	56152	
324	0	57268	
325	0	58056	
326	0	58560	
327	0	59044	
328	0	59216	
329	0	58172	
330	0	56216	
331	0	53640	
332	0	50552	
333	0	47328	
334	0	44108	
335	0	40432	
336	0	36430	
337	0	32688	
338	0	29800	
339	0	27884	
340	0	26730	
341	0	26086	
342	0	25696	
343	0	25524	
344	0	25672	
345	0	26004	
346	0	26464	
347	0	27084	
348	0	27688	
349	0	28172	
350	0	28592	
351	0	29036	
352	0	29444	
353	0	29856	
354	0	30240	
355	0	30488	
356	0	30588	
357	0	30598	
358	0	30600	
359	0	30636	
360	0	30804	
361	0	30912	
362	0	30932	
363	0	30676	
364	0	30556	
365	0	30520	
366	0	30568	
367	0	30504	
368	0	30404	
369	0	30432	
370	0	30472	
371	0	30512	
372	0	30484	
373	0	30480	
374	0	30524	
375	0	30524	
376	0	30572	
377	0	30564	
378	0	30468	
379	0	30452	
380	0	30464	
381	0	30440	
382	0	30448	
383	0	30460	
384	0	30428	
385	0	30516	
386	0	30632	
387	0	30636	
388	0	30580	
389	0	30640	
390	0	30660	
391	0	30646	
392	0	30800	
393	0	30892	
394	0	30912	
395	0	30888	
396	0	30792	
397	0	30736	
398	0	30700	
399	0	30636	
400	0	30676	
401	0	30736	
402	0	30816	
403	0	30916	
404	0	30900	
405	0	30916	
406	0	30976	
407	0	31048	
408	0	31040	
409	0	31084	
410	0	31128	
411	0	31134	
412	0	31160	
413	0	31188	
414	0	31136	
415	0	31048	
416	0	30972	
417	0	31040	
418	0	31264	
419	0	31380	
420	0	31324	
421	0	31308	
422	0	31396	
423	0	31456	
424	0	31380	
425	0	31256	
426	0	31288	
427	0	31372	
428	0	31402	
429	0	31400	
430	0	31416	
431	0	31504	
432	0	31576	
433	0	31652	
434	0	31772	
435	0	31822	
436	0	31728	
437	0	31708	
438	0	31856	
439	0	31824	
440	0	31628	
441	0	31536	
442	0	31628	
443	0	31686	
444	0	31696	
445	0	31808	
446	0	31960	
447	0	32004	
448	0	31992	
449	0	31944	
450	0	31924	
451	0	32024	
452	0	32162	
453	0	32218	
454	0	32168	
455	0	32012	
456	0	32052	
457	0	32084	
458	0	32104	
459	0	32262	
460	0	32260	
461	0	32160	
462	0	32124	
463	0	32156	
464	0	32284	
465	0	32336	
466	0	32288	
467	0	32304	
468	0	32320	
469	0	32380	
470	0	32492	
471	0	32584	
472	0	32684	
473	0	32760	
474	0	32644	
475	0	32632	
476	0	32684	
477	0	32684	
478	0	32720	
479	0	32656	
480	0	32592	
481	0	32668	
482	0	32848	
483	0	32980	
484	0	33004	
485	0	33072	
486	0	33140	
487	0	33192	
488	0	33144	
489	0	33160	
490	0	33184	
491	0	33192	
492	0	33200	
493	0	33260	
494	0	33400	
495	0	33436	
496	0	33408	
497	0	33472	
498	0	33540	
499	0	33532	
500	0	33448	
501	0	33474	
502	0	33640	
503	0	33720	
504	0	33682	
505	0	33668	
506	0	33792	
507	0	33952	
508	0	34136	
509	0	34208	
510	0	34204	
511	0	34216	
512	0	34272	
513	0	34350	
514	0	34384	
515	0	34344	
516	0	34388	
517	0	34456	
518	0	34516	
519	0	34580	
520	0	34684	
521	0	34820	
522	0	34900	
523	0	34968	
524	0	35032	
525	0	35072	
526	0	35128	
527	0	35224	
528	0	35296	
529	0	35380	
530	0	35594	
531	0	35816	
532	0	35908	
533	0	35866	
534	0	35884	
535	0	35960	
536	0	36044	
537	0	36108	
538	0	36232	
539	0	36444	
540	0	36548	
541	0	36384	
542	0	36416	
543	0	36540	
544	0	36576	
545	0	36640	
546	0	36788	
547	0	36844	
548	0	36860	
549	0	36842	
550	0	37012	
551	0	37160	
552	0	37216	
553	0	37320	
554	0	37380	
555	0	37380	
556	0	37392	
557	0	37400	
558	0	37408	
559	0	37480	
560	0	37560	
561	0	37696	
562	0	37808	
563	0	37824	
564	0	37820	
565	0	37944	
566	0	38040	
567	0	38020	
568	0	37936	
569	0	37896	
570	0	37976	
571	0	38056	
572	0	38076	
573	0	38116	
574	0	38048	
575	0	38020	
576	0	38020	
577	0	37904	
578	0	37812	
579	0	37752	
580	0	37576	
581	0	37400	
582	0	37200	
583	0	37076	
584	0	37008	
585	0	36864	
586	0	36706	
587	0	36580	
588	0	36392	
589	0	36268	
590	0	36206	
591	0	36060	
592	0	35856	
593	0	35608	
594	0	35436	
595	0	35272	
596	0	35032	
597	0	34744	
598	0	34504	
599	0	34292	
600	0	34120	
601	0	33904	
602	0	33692	
603	0	33402	
604	0	33168	
605	0	33050	
606	0	32908	
607	0	32756	
608	0	32588	
609	0	32396	
610	0	32252	
611	0	32172	
612	0	32016	
613	0	31772	
614	0	31552	
615	0	31304	
616	0	31124	
617	0	30996	
618	0	30880	
619	0	30754	
620	0	30616	
621	0	30498	
622	0	30448	
623	0	30324	
624	0	30128	
625	0	30050	
626	0	29984	
627	0	29936	
628	0	29948	
629	0	29832	
630	0	29740	
631	0	29648	
632	0	29560	
633	0	29536	
634	0	29572	
635	0	29584	
636	0	29408	
637	0	29196	
638	0	29018	
639	0	28948	
640	0	28924	
641	0	28960	
642	0	29044	
643	0	29072	
644	0	29030	
645	0	29016	
646	0	29056	
647	0	28962	
648	0	28912	
649	0	29016	
650	0	29092	
651	0	29144	
652	0	29172	
653	0	29185	
654	0	29200	
655	0	29156	
656	0	29172	
657	0	29216	
658	0	29210	
659	0	29186	
660	0	29196	
661	0	29216	
662	0	29292	
663	0	29352	
664	0	29400	
665	0	29432	
666	0	29552	
667	0	29614	
668	0	29580	
669	0	29608	
670	0	29658	
671	0	29716	
672	0	29748	
673	0	29690	
674	0	29741	
675	0	29792	
676	0	29856	
677	0	29794	
678	0	29704	
679	0	29658	
680	0	29744	
681	0	29864	
682	0	29936	
683	0	29882	
684	0	29856	
685	0	29952	
686	0	30012	
687	0	30064	
688	0	30016	
689	0	29864	
690	0	29882	
691	0	29952	
692	0	29992	
693	0	30048	
694	0	30064	
695	0	30024	
696	0	30106	
697	0	30156	
698	0	30116	
699	0	30044	
700	0	29988	
701	0	29992	
702	0	30080	
703	0	30220	
704	0	30400	
705	0	30424	
706	0	30302	
707	0	30284	
708	0	30378	
709	0	30484	
710	0	30448	
711	0	30432	
712	0	30436	
713	0	30444	
714	0	30416	
715	0	30376	
716	0	30368	
717	0	30360	
718	0	30384	
719	0	30416	
720	0	30464	
721	0	30584	
722	0	30688	
723	0	30672	
724	0	30656	
725	0	30624	
726	0	30608	
727	0	30642	
728	0	30732	
729	0	30786	
730	0	30680	
731	0	30808	
732	0	30854	
733	0	30814	
734	0	30776	
735	0	30788	
736	0	30768	
737	0	30780	
738	0	30828	
739	0	30896	
740	0	30954	
741	0	30952	
742	0	30920	
743	0	31040	
744	0	31060	
745	0	31048	
746	0	31132	
747	0	31184	
748	0	31252	
749	0	31352	
750	0	31416	
751	0	31436	
752	0	31440	
753	0	31348	
754	0	31236	
755	0	31226	
756	0	31272	
757	0	31292	
758	0	31308	
759	0	31336	
760	0	31284	
761	0	31216	
762	0	31308	
763	0	31356	
764	0	31252	
765	0	31196	
766	0	31096	
767	0	31120	
768	0	31132	
769	0	31129	
770	0	31252	
771	0	31350	
772	0	31344	
773	0	31304	
774	0	31232	
775	0	31192	
776	0	31216	
777	0	31200	
778	0	31192	
779	0	31208	
780	0	31232	
781	0	31266	
782	0	31240	
783	0	31164	
784	0	31176	
785	0	31168	
786	0	31168	
787	0	31244	
788	0	31304	
789	0	31392	
790	0	31552	
791	0	31610	
792	0	31576	
793	0	31592	
794	0	31692	
795	0	31916	
796	0	32178	
797	0	32408	
798	0	32592	
799	0	32776	
800	0	32864	
801	0	32834	
802	0	32878	
803	0	33052	
804	0	33172	
805	0	33292	
806	0	33440	
807	0	33476	
808	0	33498	
809	0	33668	
810	0	33708	
811	0	33732	
812	0	33768	
813	0	33848	
814	0	33936	
815	0	33940	
816	0	33928	
817	0	33980	
818	0	34106	
819	0	34184	
820	0	34284	
821	0	34330	
822	0	34416	
823	0	34476	
824	0	34640	
825	0	34872	
826	0	34948	
827	0	34860	
828	0	34752	
829	0	34776	
830	0	34808	
831	0	34850	
832	0	34924	
833	0	34932	
834	0	34938	
835	0	34944	
836	0	34964	
837	0	35008	
838	0	35000	
839	0	34856	
840	0	34712	
841	0	34612	
842	0	34532	
843	0	34404	
844	0	34064	
845	0	33816	
846	0	33652	
847	0	33540	
848	0	33380	
849	0	33196	
850	0	33088	
851	0	32900	
852	0	32804	
853	0	32700	
854	0	32456	
855	0	32320	
856	0	32220	
857	0	32256	
858	0	32364	
859	0	32444	
860	0	32428	
861	0	32360	
862	0	32336	
863	0	32376	
864	0	32398	
865	0	32192	
866	0	32136	
867	0	32172	
868	0	32180	
869	0	32272	
870	0	32350	
871	0	32084	
872	0	31780	
873	0	31636	
874	0	31600	
875	0	31576	
876	0	31388	
877	0	31180	
878	0	30980	
879	0	30748	
880	0	30546	
881	0	30468	
882	0	30480	
883	0	30448	
884	0	30564	
885	0	30572	
886	0	30648	
887	0	30664	
888	0	30648	
889	0	30728	
890	0	30640	
891	0	30552	
892	0	30576	
893	0	30648	
894	0	30680	
895	0	30608	
896	0	30704	
897	0	30902	
898	0	30872	
899	0	30728	
900	0	30860	
901	0	30868	
902	0	30632	
903	0	30524	
904	0	30516	
905	0	30504	
906	0	30732	
907	0	30984	
908	0	31156	
909	0	31254	
910	0	31248	
911	0	31264	
912	0	31380	
913	0	31596	
914	0	31604	
915	0	31572	
916	0	31520	
917	0	31472	
918	0	31408	
919	0	31350	
920	0	31328	
921	0	31288	
922	0	31220	
923	0	31104	
924	0	30928	
925	0	30906	
926	0	30984	
927	0	31172	
928	0	31148	
929	0	31164	
930	0	31272	
931	0	31288	
932	0	31226	
933	0	31400	
934	0	31624	
935	0	31664	
936	0	31620	
937	0	31576	
938	0	31700	
939	0	31960	
940	0	32244	
941	0	32256	
942	0	32132	
943	0	32088	
944	0	32056	
945	0	31956	
946	0	31816	
947	0	31724	
948	0	31620	
949	0	31288	
950	0	30960	
951	0	30868	
952	0	30752	
953	0	30588	
954	0	30496	
955	0	30484	
956	0	30740	
957	0	31044	
958	0	31376	
959	0	31860	
960	0	32296	
961	0	32972	
962	0	33816	
963	0	34640	
964	0	35684	
965	0	36884	
966	0	38128	
967	0	39556	
968	0	41092	
969	0	42532	
970	0	43824	
971	0	45158	
972	0	46520	
973	0	47972	
974	0	49496	
975	0	50980	
976	0	52328	
977	0	53708	
978	0	54904	
979	0	56144	
980	0	57316	
981	0	58156	
982	0	58776	
983	0	59112	
984	0	59188	
985	0	58680	
986	0	57148	
987	0	54692	
988	0	51816	
989	0	48660	
990	0	45480	
991	0	42176	
992	0	38484	
993	0	34668	
994	0	31328	
995	0	29054	
996	0	27412	
997	0	26458	
998	0	25964	
999	0	25816	
1000	0	25944	
1001	0	26160	
1002	0	26452	
1003	0	26916	
1004	0	27376	
1005	0	27928	
1006	0	28532	
1007	0	29082	
1008	0	29600	
1009	0	30114	
1010	0	30524	
1011	0	30576	
1012	0	30556	
1013	0	30476	
1014	0	30352	
1015	0	30284	
1016	0	30452	
1017	0	30596	
1018	0	30616	
1019	0	30442	
1020	0	30352	
1021	0	30356	
1022	0	30376	
1023	0	30376	
1024	0	30480	
1025	0	30632	
1026	0	30444	
1027	0	30236	
1028	0	30220	
1029	0	30202	
1030	0	30216	
1031	0	30280	
1032	0	30316	
1033	0	30226	
1034	0	30202	
1035	0	30112	
1036	0	30060	
1037	0	29992	
1038	0	29956	
1039	0	30024	
1040	0	30144	
1041	0	30132	
1042	0	30120	
1043	0	30192	
1044	0	30276	
1045	0	30520	
1046	0	30786	
1047	0	30928	
1048	0	30884	
1049	0	30884	
1050	0	30908	
1051	0	30908	
1052	0	30888	
1053	0	30812	
1054	0	30764	
1055	0	30832	
1056	0	30960	
1057	0	30932	
1058	0	30924	
1059	0	30940	
1060	0	30928	
1061	0	31048	
1062	0	31140	
1063	0	31096	
1064	0	31212	
1065	0	31372	
1066	0	31220	
1067	0	31196	
1068	0	31220	
1069	0	31248	
1070	0	31312	
1071	0	31356	
1072	0	31412	
1073	0	31516	
1074	0	31496	
1075	0	31500	
1076	0	31672	
1077	0	31644	
1078	0	31596	
1079	0	31506	
1080	0	31380	
1081	0	31584	
1082	0	31680	
1083	0	31568	
1084	0	31732	
1085	0	31840	
1086	0	31762	
1087	0	31694	
1088	0	31744	
1089	0	31748	
1090	0	31758	
1091	0	31892	
1092	0	31868	
1093	0	31960	
1094	0	32180	
1095	0	32248	
1096	0	32142	
1097	0	32088	
1098	0	32196	
1099	0	32256	
1100	0	32158	
1101	0	32048	
1102	0	32028	
1103	0	32188	
1104	0	32262	
1105	0	32308	
1106	0	32448	
1107	0	32596	
1108	0	32612	
1109	0	32552	
1110	0	32520	
1111	0	32564	
1112	0	32624	
1113	0	32696	
1114	0	32750	
1115	0	32644	
1116	0	32528	
1117	0	32532	
1118	0	32592	
1119	0	32692	
1120	0	32668	
1121	0	32540	
1122	0	32512	
1123	0	32468	
1124	0	32600	
1125	0	32896	
1126	0	33016	
1127	0	33020	
1128	0	32956	
1129	0	33036	
1130	0	33136	
1131	0	33224	
1132	0	33376	
1133	0	33484	
1134	0	33580	
1135	0	33514	
1136	0	33560	
1137	0	33648	
1138	0	33816	
1139	0	33840	
1140	0	33804	
1141	0	33768	
1142	0	33836	
1143	0	33856	
1144	0	33680	
1145	0	33556	
1146	0	33544	
1147	0	33716	
1148	0	33840	
1149	0	33720	
1150	0	33746	
1151	0	33760	
1152	0	33568	
1153	0	33584	
1154	0	33764	
1155	0	33844	
1156	0	33840	
1157	0	33932	
1158	0	34076	
1159	0	34088	
1160	0	34216	
1161	0	34384	
1162	0	34368	
1163	0	34344	
1164	0	34412	
1165	0	34700	
1166	0	34820	
1167	0	34916	
1168	0	34940	
1169	0	34880	
1170	0	34908	
1171	0	35096	
1172	0	35188	
1173	0	35104	
1174	0	35016	
1175	0	34904	
1176	0	34828	
1177	0	34992	
1178	0	35232	
1179	0	35430	
1180	0	35556	
1181	0	35748	
1182	0	35880	
1183	0	35996	
1184	0	36068	
1185	0	36060	
1186	0	36032	
1187	0	36116	
1188	0	36228	
1189	0	36420	
1190	0	36480	
1191	0	36508	
1192	0	36680	
1193	0	36772	
1194	0	36852	
1195	0	37104	
1196	0	37316	
1197	0	37228	
1198	0	37084	
1199	0	37004	
1200	0	37120	
1201	0	37348	
1202	0	37540	
1203	0	37608	
1204	0	37496	
1205	0	37392	
1206	0	37404	
1207	0	37640	
1208	0	37772	
1209	0	37824	
1210	0	37936	
1211	0	37980	
1212	0	38068	
1213	0	38024	
1214	0	37804	
1215	0	37672	
1216	0	37600	
1217	0	37776	
1218	0	37964	
1219	0	38108	
1220	0	38310	
1221	0	38344	
1222	0	38392	
1223	0	38498	
1224	0	38460	
1225	0	38364	
1226	0	38332	
1227	0	38288	
1228	0	38348	
1229	0	38332	
1230	0	38256	
1231	0	38248	
1232	0	38336	
1233	0	38280	
1234	0	38116	
1235	0	38004	
1236	0	37656	
1237	0	37338	
1238	0	37268	
1239	0	37264	
1240	0	37056	
1241	0	36796	
1242	0	36856	
1243	0	36802	
1244	0	36848	
1245	0	36648	
1246	0	36336	
1247	0	36232	
1248	0	36244	
1249	0	35844	
1250	0	35520	
1251	0	35432	
1252	0	35220	
1253	0	34908	
1254	0	34676	
1255	0	34516	
1256	0	34272	
1257	0	33852	
1258	0	33580	
1259	0	33464	
1260	0	33552	
1261	0	33632	
1262	0	33460	
1263	0	33112	
1264	0	32820	
1265	0	32448	
1266	0	32112	
1267	0	31872	
1268	0	31732	
1269	0	31776	
1270	0	31596	
1271	0	31156	
1272	0	30932	
1273	0	30804	
1274	0	30632	
1275	0	30404	
1276	0	30288	
1277	0	30464	
1278	0	30432	
1279	0	30304	
1280	0	30132	
1281	0	29980	
1282	0	30100	
1283	0	30236	
1284	0	30000	
1285	0	29658	
1286	0	29564	
1287	0	29544	
1288	0	29210	
1289	0	29260	
1290	0	29174	
1291	0	29052	
1292	0	29004	
1293	0	29076	
1294	0	28860	
1295	0	28532	
1296	0	28432	
1297	0	28392	
1298	0	28624	
1299	0	28810	
1300	0	28928	
1301	0	28688	
1302	0	28454	
1303	0	28708	
1304	0	28756	
1305	0	28916	
1306	0	29076	
1307	0	28772	
1308	0	28600	
1309	0	28602	
1310	0	28576	
1311	0	28544	
1312	0	28474	
1313	0	28428	
1314	0	28578	
1315	0	28440	
1316	0	28184	
1317	0	28184	
1318	0	28244	
1319	0	28208	
1320	0	28168	
1321	0	28264	
1322	0	28708	
1323	0	28812	
1324	0	28444	
1325	0	28422	
1326	0	28648	
1327	0	28912	
1328	0	28872	
1329	0	28776	
1330	0	28762	
1331	0	28780	
1332	0	28732	
1333	0	28548	
1334	0	28448	
1335	0	28512	
1336	0	28592	
1337	0	28792	
1338	0	28628	
1339	0	28400	
1340	0	28266	
1341	0	28364	
1342	0	28424	
1343	0	28520	
1344	0	28561	
1345	0	28436	
1346	0	28368	
1347	0	28290	
1348	0	28244	
1349	0	28412	
1350	0	28592	
1351	0	28652	
1352	0	28372	
1353	0	28256	
1354	0	28310	
1355	0	28400	
1356	0	28460	
1357	0	28480	
1358	0	28620	
1359	0	28626	
1360	0	28524	
1361	0	28632	
1362	0	28744	
1363	0	29024	
1364	0	28976	
1365	0	28852	
1366	0	29016	
1367	0	29120	
1368	0	29020	
1369	0	29024	
1370	0	29272	
1371	0	29240	
1372	0	29332	
1373	0	29252	
1374	0	29192	
1375	0	29050	
1376	0	28904	
1377	0	28652	
1378	0	28562	
1379	0	28736	
1380	0	29076	
1381	0	29144	
1382	0	29012	
1383	0	29028	
1384	0	29228	
1385	0	29248	
1386	0	29392	
1387	0	29632	
1388	0	29472	
1389	0	29364	
1390	0	29520	
1391	0	29620	
1392	0	29548	
1393	0	29736	
1394	0	29912	
1395	0	29800	
1396	0	29640	
1397	0	29644	
1398	0	29760	
1399	0	29936	
1400	0	30104	
1401	0	30144	
1402	0	30128	
1403	0	30256	
1404	0	30136	
1405	0	29864	
1406	0	29908	
1407	0	30020	
1408	0	30140	
1409	0	30296	
1410	0	30432	
1411	0	30458	
1412	0	30484	
1413	0	30700	
1414	0	30836	
1415	0	31022	
1416	0	31192	
1417	0	31376	
1418	0	31632	
1419	0	31704	
1420	0	31572	
1421	0	31444	
1422	0	31532	
1423	0	31736	
1424	0	31592	
1425	0	31676	
1426	0	31968	
1427	0	32212	
1428	0	32002	
1429	0	32124	
1430	0	32288	
1431	0	32416	
1432	0	32576	
1433	0	32432	
1434	0	32280	
1435	0	32136	
1436	0	32260	
1437	0	32516	
1438	0	32900	
1439	0	33276	
1440	0	33492	
1441	0	33560	
1442	0	33748	
1443	0	33468	
1444	0	33216	
1445	0	33344	
1446	0	33376	
1447	0	33580	
1448	0	33796	
1449	0	33916	
1450	0	34120	
1451	0	33900	
1452	0	33876	
1453	0	33892	
1454	0	33876	
1455	0	33904	
1456	0	33576	
1457	0	33464	
1458	0	33596	
1459	0	33904	
1460	0	33904	
1461	0	33580	
1462	0	33160	
1463	0	32852	
1464	0	32640	
1465	0	32532	
1466	0	32780	
1467	0	32688	
1468	0	32704	
1469	0	32776	
1470	0	32832	
1471	0	32946	
1472	0	32956	
1473	0	32736	
1474	0	32616	
1475	0	32676	
1476	0	32736	
1477	0	32624	
1478	0	32472	
1479	0	32336	
1480	0	32032	
1481	0	31908	
1482	0	32248	
1483	0	32296	
1484	0	32156	
1485	0	32056	
1486	0	31910	
1487	0	31716	
1488	0	31468	
1489	0	31256	
1490	0	31208	
1491	0	31500	
1492	0	31512	
1493	0	31264	
1494	0	31076	
1495	0	31060	
1496	0	31540	
1497	0	31560	
1498	0	31010	
1499	0	30680	
1500	0	30464	
1501	0	30332	
1502	0	30312	
1503	0	30324	
1504	0	30556	
1505	0	30456	
1506	0	30408	
1507	0	30344	
1508	0	30420	
1509	0	30336	
1510	0	30516	
1511	0	30500	
1512	0	30816	
1513	0	30986	
1514	0	31048	
1515	0	30916	
1516	0	31154	
1517	0	31474	
1518	0	31072	
1519	0	30848	
1520	0	31200	
1521	0	31348	
1522	0	31070	
1523	0	31002	
1524	0	31200	
1525	0	31280	
1526	0	31056	
1527	0	31080	
1528	0	31108	
1529	0	31060	
1530	0	31188	
1531	0	31208	
1532	0	31136	
1533	0	31200	
1534	0	31252	
1535	0	31248	
1536	0	31332	
1537	0	31228	
1538	0	31048	
1539	0	31152	
1540	0	31160	
1541	0	31081	
1542	0	31412	
1543	0	31480	
1544	0	31420	
1545	0	31532	
1546	0	31638	
1547	0	31608	
1548	0	31432	
1549	0	31384	
1550	0	31436	
1551	0	31524	
1552	0	31586	
1553	0	31532	
1554	0	31460	
1555	0	31540	
1556	0	31676	
1557	0	31780	
1558	0	31564	
1559	0	31128	
1560	0	30828	
1561	0	30780	
1562	0	30840	
1563	0	30952	
1564	0	31008	
1565	0	31088	
1566	0	31004	
1567	0	31128	
1568	0	31320	
1569	0	31396	
1570	0	31492	
1571	0	31604	
1572	0	31620	
1573	0	31616	
1574	0	31310	
1575	0	31184	
1576	0	31004	
1577	0	30976	
1578	0	31220	
1579	0	31570	
1580	0	32078	
1581	0	32484	
1582	0	33108	
1583	0	33896	
1584	0	34764	
1585	0	35796	
1586	0	37280	
1587	0	38904	
1588	0	40564	
1589	0	42344	
1590	0	44104	
1591	0	45740	
1592	0	47298	
1593	0	48928	
1594	0	50488	
1595	0	52104	
1596	0	53624	
1597	0	54776	
1598	0	55930	
1599	0	56984	
1600	0	58064	
1601	0	59244	
1602	0	60304	
1603	0	61236	
1604	0	61728	
1605	0	61044	
1606	0	59312	
1607	0	56992	
1608	0	54132	
1609	0	50672	
1610	0	47552	
1611	0	44308	
1612	0	40480	
1613	0	36642	
1614	0	33272	
1615	0	30440	
1616	0	28284	
1617	0	27200	
1618	0	26584	
1619	0	26272	
1620	0	26288	
1621	0	26754	
1622	0	26836	
1623	0	26912	
1624	0	27236	
1625	0	27652	
1626	0	27884	
1627	0	28200	
1628	0	28224	
1629	0	28320	
1630	0	28322	
1631	0	28296	
1632	0	28400	
1633	0	28620	
1634	0	29176	
1635	0	29648	
1636	0	29900	
1637	0	30128	
1638	0	30632	
1639	0	30760	
1640	0	30472	
1641	0	30460	
1642	0	30732	
1643	0	30676	
1644	0	30608	
1645	0	30744	
1646	0	30712	
1647	0	30480	
1648	0	30448	
1649	0	30452	
1650	0	30506	
1651	0	30408	
1652	0	30164	
1653	0	29936	
1654	0	29920	
1655	0	30040	
1656	0	30144	
1657	0	30380	
1658	0	30288	
1659	0	30376	
1660	0	30344	
1661	0	30112	
1662	0	29828	
1663	0	30144	
1664	0	30304	
1665	0	30200	
1666	0	30256	
1667	0	30364	
1668	0	30352	
1669	0	30292	
1670	0	30144	
1671	0	30248	
1672	0	30568	
1673	0	30896	
1674	0	31216	
1675	0	31176	
1676	0	31100	
1677	0	30964	
1678	0	30888	
1679	0	30844	
1680	0	30952	
1681	0	30844	
1682	0	30268	
1683	0	29856	
1684	0	30116	
1685	0	30360	
1686	0	30526	
1687	0	30592	
1688	0	30652	
1689	0	30520	
1690	0	30808	
1691	0	30936	
1692	0	30872	
1693	0	30808	
1694	0	30880	
1695	0	31070	
1696	0	30928	
1697	0	30972	
1698	0	30932	
1699	0	31136	
1700	0	31202	
1701	0	31164	
1702	0	31340	
1703	0	31056	
1704	0	31080	
1705	0	31344	
1706	0	31552	
1707	0	31528	
1708	0	31208	
1709	0	31300	
1710	0	31516	
1711	0	31836	
1712	0	32112	
1713	0	31748	
1714	0	31340	
1715	0	31316	
1716	0	31120	
1717	0	30812	
1718	0	30748	
1719	0	30714	
1720	0	30756	
1721	0	30904	
1722	0	30950	
1723	0	31300	
1724	0	31696	
1725	0	31854	
1726	0	31796	
1727	0	31836	
1728	0	32120	
1729	0	32336	
1730	0	32248	
1731	0	32208	
1732	0	32336	
1733	0	32052	
1734	0	32018	
1735	0	31816	
1736	0	31484	
1737	0	31464	
1738	0	31636	
1739	0	31960	
1740	0	31964	
1741	0	32144	
1742	0	32172	
1743	0	32448	
1744	0	32712	
1745	0	32728	
1746	0	32940	
1747	0	32912	
1748	0	32688	
1749	0	32784	
1750	0	32936	
1751	0	32824	
1752	0	32486	
1753	0	32596	
1754	0	32888	
1755	0	33060	
1756	0	32936	
1757	0	33256	
1758	0	33348	
1759	0	33480	
1760	0	33228	
1761	0	32864	
1762	0	32736	
1763	0	32744	
1764	0	32804	
1765	0	32984	
1766	0	33228	
1767	0	33152	
1768	0	33220	
1769	0	33416	
1770	0	33368	
1771	0	33404	
1772	0	33408	
1773	0	33604	
1774	0	33910	
1775	0	33664	
1776	0	33540	
1777	0	33552	
1778	0	33504	
1779	0	33604	
1780	0	33764	
1781	0	33854	
1782	0	33688	
1783	0	33528	
1784	0	33488	
1785	0	33656	
1786	0	33920	
1787	0	34272	
1788	0	34336	
1789	0	34740	
1790	0	35184	
1791	0	35088	
1792	0	35084	
1793	0	35240	
1794	0	35200	
1795	0	34980	
1796	0	34800	
1797	0	34764	
1798	0	34908	
1799	0	34744	
1800	0	34780	
1801	0	35256	
1802	0	35488	
1803	0	35432	
1804	0	35344	
1805	0	35508	
1806	0	35936	
1807	0	36096	
1808	0	36028	
1809	0	36180	
1810	0	36232	
1811	0	36548	
1812	0	36728	
1813	0	36464	
1814	0	36008	
1815	0	35822	
1816	0	36196	
1817	0	36204	
1818	0	35984	
1819	0	36236	
1820	0	36620	
1821	0	36764	
1822	0	36824	
1823	0	36594	
1824	0	36616	
1825	0	36628	
1826	0	36616	
1827	0	36852	
1828	0	36914	
1829	0	37196	
1830	0	37756	
1831	0	38368	
1832	0	38348	
1833	0	37816	
1834	0	37492	
1835	0	37700	
1836	0	37552	
1837	0	37236	
1838	0	37260	
1839	0	37400	
1840	0	37236	
1841	0	37140	
1842	0	37348	
1843	0	37584	
1844	0	37944	
1845	0	38280	
1846	0	38248	
1847	0	38176	
1848	0	37824	
1849	0	37612	
1850	0	37876	
1851	0	38096	
1852	0	38144	
1853	0	37684	
1854	0	37412	
1855	0	37372	
1856	0	37276	
1857	0	37060	
1858	0	36848	
1859	0	36320	
1860	0	35928	
1861	0	35824	
1862	0	36048	
1863	0	36032	
1864	0	36032	
1865	0	36032	
1866	0	35952	
1867	0	35748	
1868	0	35524	
1869	0	35464	
1870	0	35378	
1871	0	35052	
1872	0	34832	
1873	0	34516	
1874	0	34004	
1875	0	33824	
1876	0	33596	
1877	0	33288	
1878	0	33168	
1879	0	32906	
1880	0	32532	
1881	0	32216	
1882	0	32072	
1883	0	32096	
1884	0	32048	
1885	0	31944	
1886	0	31860	
1887	0	31800	
1888	0	31776	
1889	0	31844	
1890	0	31424	
1891	0	31200	
1892	0	31272	
1893	0	31500	
1894	0	31424	
1895	0	31176	
1896	0	31092	
1897	0	30882	
1898	0	30518	
1899	0	29984	
1900	0	30000	
1901	0	30408	
1902	0	30604	
1903	0	30712	
1904	0	30496	
1905	0	30380	
1906	0	30128	
1907	0	29864	
1908	0	29372	
1909	0	29072	
1910	0	29036	
1911	0	29472	
1912	0	29546	
1913	0	29704	
1914	0	29700	
1915	0	29872	
1916	0	29740	
1917	0	29492	
1918	0	29340	
1919	0	29168	
1920	0	28972	
1921	0	28888	
1922	0	29068	
1923	0	29092	
1924	0	29112	
1925	0	28984	
1926	0	29016	
1927	0	29276	
1928	0	29344	
1929	0	29480	
1930	0	29408	
1931	0	29736	
1932	0	29752	
1933	0	29682	
1934	0	29696	
1935	0	29794	
1936	0	30120	
1937	0	30484	
1938	0	30584	
1939	0	30372	
1940	0	30356	
1941	0	30304	
1942	0	30524	
1943	0	30440	
1944	0	30386	
1945	0	30368	
1946	0	30102	
1947	0	30104	
1948	0	30080	
1949	0	29854	
1950	0	29844	
1951	0	30002	
1952	0	30324	
1953	0	30476	
1954	0	30334	
1955	0	30234	
1956	0	30350	
1957	0	30680	
1958	0	30528	
1959	0	30136	
1960	0	30356	
1961	0	30540	
1962	0	30492	
1963	0	30452	
1964	0	30392	
1965	0	30308	
1966	0	30428	
1967	0	30600	
1968	0	30872	
1969	0	30912	
1970	0	30708	
1971	0	30672	
1972	0	30824	
1973	0	30988	
1974	0	30756	
1975	0	30436	
1976	0	30436	
1977	0	30652	
1978	0	31036	
1979	0	31148	
1980	0	30770	
1981	0	30464	
1982	0	30536	
1983	0	30532	
1984	0	30524	
1985	0	30604	
1986	0	30680	
1987	0	30816	
1988	0	31006	
1989	0	31022	
1990	0	31044	
1991	0	31132	
1992	0	31188	
1993	0	31198	
1994	0	31052	
1995	0	30988	
1996	0	30956	
1997	0	30864	
1998	0	31084	
1999	0	31344	
2000	0	31600	
2001	0	31368	
2002	0	31336	
2003	0	31340	
2004	0	31304	
2005	0	31162	
2006	0	31144	
2007	0	31176	
2008	0	31192	
2009	0	31296	
2010	0	31122	
2011	0	31008	
2012	0	31300	
2013	0	31600	
2014	0	31644	
2015	0	31548	
2016	0	31476	
2017	0	31408	
2018	0	31498	
2019	0	31594	
2020	0	31516	
2021	0	31424	
2022	0	31436	
2023	0	31596	
2024	0	31692	
2025	0	31656	
2026	0	31996	
2027	0	32386	
2028	0	32432	
2029	0	32546	
2030	0	32416	
2031	0	32516	
2032	0	32788	
2033	0	32558	
2034	0	32380	
2035	0	32368	
2036	0	32592	
2037	0	33116	
2038	0	33264	
2039	0	33092	
2040	0	33248	
2041	0	33236	
2042	0	33008	
2043	0	32880	
2044	0	33016	
2045	0	33028	
2046	0	33276	
2047	0	33316	
2048	0	33496	
2049	0	33656	
2050	0	33800	
2051	0	33836	
2052	0	34060	
2053	0	34376	
2054	0	34284	
2055	0	34296	
2056	0	34320	
2057	0	34420	
2058	0	34608	
2059	0	34817	
2060	0	34852	
2061	0	34784	
2062	0	34720	
2063	0	34848	
2064	0	34942	
2065	0	34852	
2066	0	34732	
2067	0	34636	
2068	0	34544	
2069	0	34684	
2070	0	34736	
2071	0	34928	
2072	0	34832	
2073	0	34322	
2074	0	33768	
2075	0	33400	
2076	0	33404	
2077	0	33364	
2078	0	33264	
2079	0	33100	
2080	0	33064	
2081	0	32864	
2082	0	32692	
2083	0	32632	
2084	0	32412	
2085	0	32296	
2086	0	32728	
2087	0	32988	
2088	0	32888	
2089	0	32948	
2090	0	33140	
2091	0	33344	
2092	0	33460	
2093	0	33640	
2094	0	33472	
2095	0	33140	
2096	0	32936	
2097	0	32952	
2098	0	32916	
2099	0	32708	
2100	0	32640	
2101	0	32656	
2102	0	32256	
2103	0	31980	
2104	0	31866	
2105	0	31808	
2106	0	31816	
2107	0	31708	
2108	0	31584	
2109	0	31360	
2110	0	31428	
2111	0	31456	
2112	0	31408	
2113	0	31368	
2114	0	31060	
2115	0	31012	
2116	0	31128	
2117	0	31308	
2118	0	31524	
2119	0	31384	
2120	0	31220	
2121	0	31024	
2122	0	31008	
2123	0	30890	
2124	0	31000	
2125	0	31032	
2126	0	30896	
2127	0	30904	
2128	0	31024	
2129	0	31100	
2130	0	30908	
2131	0	30884	
2132	0	31008	
2133	0	31226	
2134	0	31244	
2135	0	31388	
2136	0	31388	
2137	0	31468	
2138	0	31616	
2139	0	31556	
2140	0	31404	
2141	0	31240	
2142	0	31216	
2143	0	31394	
2144	0	31828	
2145	0	31896	
2146	0	31620	
2147	0	31504	
2148	0	31432	
2149	0	31524	
2150	0	31712	
2151	0	31772	
2152	0	31676	
2153	0	31668	
2154	0	31616	
2155	0	31664	
2156	0	31676	
2157	0	31696	
2158	0	31584	
2159	0	31280	
2160	0	31216	
2161	0	31264	
2162	0	31252	
2163	0	31416	
2164	0	31242	
2165	0	31068	
2166	0	30940	
2167	0	30940	
2168	0	31080	
2169	0	31164	
2170	0	31284	
2171	0	31384	
2172	0	31472	
2173	0	31616	
2174	0	31664	
2175	0	31886	
2176	0	32076	
2177	0	32252	
2178	0	32276	
2179	0	32288	
2180	0	32030	
2181	0	31976	
2182	0	32176	
2183	0	31936	
2184	0	31652	
2185	0	31596	
2186	0	31524	
2187	0	31344	
2188	0	31264	
2189	0	31136	
2190	0	30980	
2191	0	30864	
2192	0	30832	
2193	0	30904	
2194	0	30948	
2195	0	31118	
2196	0	31628	
2197	0	32092	
2198	0	32548	
2199	0	33416	
2200	0	34480	
2201	0	35768	
2202	0	37148	
2203	0	38652	
2204	0	40128	
2205	0	41556	
2206	0	43060	
2207	0	44712	
2208	0	46624	
2209	0	48516	
2210	0	50104	
2211	0	51610	
2212	0	53088	
2213	0	54496	
2214	0	55900	
2215	0	57200	
2216	0	58304	
2217	0	59536	
2218	0	60820	
2219	0	61744	
2220	0	62468	
2221	0	62648	
2222	0	61784	
2223	0	60196	
2224	0	57496	
2225	0	53840	
2226	0	50176	
2227	0	46560	
2228	0	42844	
2229	0	38912	
2230	0	34952	
2231	0	31664	
2232	0	29324	
2233	0	27482	
2234	0	26290	
2235	0	25652	
2236	0	25560	
2237	0	25616	
2238	0	25890	
2239	0	26044	
2240	0	26204	
2241	0	26504	
2242	0	26956	
2243	0	27328	
2244	0	27616	
2245	0	27872	
2246	0	28144	
2247	0	28372	
2248	0	28596	
2249	0	29004	
2250	0	29106	
2251	0	29108	
2252	0	29628	
2253	0	30348	
2254	0	30606	
2255	0	30658	
2256	0	30688	
2257	0	30756	
2258	0	30700	
2259	0	30512	
2260	0	30400	
2261	0	30380	
2262	0	30360	
2263	0	30456	
2264	0	30540	
2265	0	30588	
2266	0	30636	
2267	0	30452	
2268	0	30284	
2269	0	30472	
2270	0	30836	
2271	0	30880	
2272	0	30956	
2273	0	31040	
2274	0	30992	
2275	0	30908	
2276	0	31152	
2277	0	31184	
2278	0	30968	
2279	0	30828	
2280	0	30752	
2281	0	30664	
2282	0	30612	
2283	0	30700	
2284	0	30748	
2285	0	30648	
2286	0	30652	
2287	0	30740	
2288	0	30832	
2289	0	30864	
2290	0	30890	
2291	0	30952	
2292	0	31012	
2293	0	30848	
2294	0	30800	
2295	0	30872	
2296	0	30876	
2297	0	30700	
2298	0	30836	
2299	0	31068	
2300	0	31192	
2301	0	31220	
2302	0	31324	
2303	0	31404	
2304	0	31500	
2305	0	31628	
2306	0	31540	
2307	0	31364	
2308	0	31264	
2309	0	31102	
2310	0	30968	
2311	0	30900	
2312	0	30848	
2313	0	30916	
2314	0	31040	
2315	0	31004	
2316	0	30912	
2317	0	30940	
2318	0	31132	
2319	0	31080	
2320	0	31088	
2321	0	31312	
2322	0	31542	
2323	0	31712	
2324	0	31748	
2325	0	31812	
2326	0	31848	
2327	0	31786	
2328	0	31876	
2329	0	32016	
2330	0	32076	
2331	0	32028	
2332	0	32060	
2333	0	31996	
2334	0	31812	
2335	0	31740	
2336	0	31868	
2337	0	32116	
2338	0	32140	
2339	0	32100	
2340	0	32032	
2341	0	31912	
2342	0	31776	
2343	0	31612	
2344	0	31552	
2345	0	31604	
2346	0	31616	
2347	0	31736	
2348	0	31928	
2349	0	32128	
2350	0	32208	
2351	0	32228	
2352	0	32148	
2353	0	32298	
2354	0	32468	
2355	0	32510	
2356	0	32596	
2357	0	32626	
2358	0	32492	
2359	0	32418	
2360	0	32452	
2361	0	32550	
2362	0	32776	
2363	0	32828	
2364	0	32716	
2365	0	32612	
2366	0	32832	
2367	0	33050	
2368	0	33004	
2369	0	32976	
2370	0	32917	
2371	0	32980	
2372	0	33096	
2373	0	33220	
2374	0	33296	
2375	0	33148	
2376	0	33048	
2377	0	33068	
2378	0	33204	
2379	0	33328	
2380	0	33380	
2381	0	33360	
2382	0	33306	
2383	0	33244	
2384	0	33344	
2385	0	33504	
2386	0	33660	
2387	0	33688	
2388	0	33624	
2389	0	33568	
2390	0	33608	
2391	0	33648	
2392	0	33720	
2393	0	33794	
2394	0	33872	
2395	0	33838	
2396	0	33848	
2397	0	34010	
2398	0	34332	
2399	0	34600	
2400	0	34628	
2401	0	34592	
2402	0	34428	
2403	0	34544	
2404	0	34680	
2405	0	34778	
2406	0	34922	
2407	0	35032	
2408	0	34952	
2409	0	35040	
2410	0	35028	
2411	0	34928	
2412	0	34900	
2413	0	35016	
2414	0	35096	
2415	0	35008	
2416	0	35036	
2417	0	35284	
2418	0	35172	
2419	0	34996	
2420	0	35004	
2421	0	35012	
2422	0	35168	
2423	0	35324	
2424	0	35516	
2425	0	35800	
2426	0	36048	
2427	0	36212	
2428	0	36168	
2429	0	36276	
2430	0	36504	
2431	0	36628	
2432	0	36660	
2433	0	36736	
2434	0	36804	
2435	0	36828	
2436	0	36884	
2437	0	36880	
2438	0	36868	
2439	0	37032	
2440	0	37192	
2441	0	37312	
2442	0	37440	
2443	0	37504	
2444	0	37434	
2445	0	37434	
2446	0	37472	
2447	0	37374	
2448	0	37328	
2449	0	37412	
2450	0	37452	
2451	0	37548	
2452	0	37508	
2453	0	37452	
2454	0	37412	
2455	0	37368	
2456	0	37400	
2457	0	37460	
2458	0	37516	
2459	0	37748	
2460	0	37804	
2461	0	37672	
2462	0	37508	
2463	0	37436	
2464	0	37392	
2465	0	37432	
2466	0	37476	
2467	0	37504	
2468	0	37470	
2469	0	37392	
2470	0	37308	
2471	0	37128	
2472	0	37012	
2473	0	36936	
2474	0	36908	
2475	0	36684	
2476	0	36436	
2477	0	36384	
2478	0	36380	
2479	0	36048	
2480	0	35744	
2481	0	35584	
2482	0	35488	
2483	0	35294	
2484	0	35032	
2485	0	35008	
2486	0	34960	
2487	0	34772	
2488	0	34572	
2489	0	34296	
2490	0	34076	
2491	0	33896	
2492	0	33872	
2493	0	33824	
2494	0	33550	
2495	0	33240	
2496	0	32996	
2497	0	32800	
2498	0	32586	
2499	0	32360	
2500	0	32116	
2501	0	31996	
2502	0	31736	
2503	0	31492	
2504	0	31344	
2505	0	31096	
2506	0	30936	
2507	0	30844	
2508	0	30752	
2509	0	30724	
2510	0	30780	
2511	0	30768	
2512	0	30720	
2513	0	30636	
2514	0	30614	
2515	0	30524	
2516	0	30440	
2517	0	30300	
2518	0	30224	
2519	0	30232	
2520	0	30192	
2521	0	30152	
2522	0	30084	
2523	0	30040	
2524	0	29892	
2525	0	29828	
2526	0	29772	
2527	0	29700	
2528	0	29738	
2529	0	29664	
2530	0	29560	
2531	0	29460	
2532	0	29444	
2533	0	29418	
2534	0	29504	
2535	0	29504	
2536	0	29256	
2537	0	28992	
2538	0	28964	
2539	0	29128	
2540	0	29388	
2541	0	29552	
2542	0	29524	
2543	0	29444	
2544	0	29480	
2545	0	29528	
2546	0	29620	
2547	0	29740	
2548	0	29796	
2549	0	29800	
2550	0	29760	
2551	0	29736	
2552	0	29728	
2553	0	29764	
2554	0	29754	
2555	0	29732	
2556	0	29636	
2557	0	29592	
2558	0	29648	
2559	0	29822	
2560	0	29952	
2561	0	29988	
2562	0	29944	
2563	0	29856	
2564	0	29828	
2565	0	29856	
2566	0	29922	
2567	0	29809	
2568	0	29820	
2569	0	29784	
2570	0	29914	
2571	0	29988	
2572	0	29932	
2573	0	29956	
2574	0	29984	
2575	0	29857	
2576	0	29688	
2577	0	29732	
2578	0	29760	
2579	0	29580	
2580	0	29640	
2581	0	29860	
2582	0	29920	
2583	0	29992	
2584	0	30128	
2585	0	30184	
2586	0	30216	
2587	0	30232	
2588	0	30258	
2589	0	30360	
2590	0	30396	
2591	0	30340	
2592	0	30320	
2593	0	30308	
2594	0	30410	
2595	0	30536	
2596	0	30576	
2597	0	30472	
2598	0	30278	
2599	0	30268	
2600	0	30396	
2601	0	30596	
2602	0	30900	
2603	0	30764	
2604	0	30496	
2605	0	30452	
2606	0	30548	
2607	0	30588	
2608	0	30480	
2609	0	30488	
2610	0	30616	
2611	0	30652	
2612	0	30664	
2613	0	30632	
2614	0	30638	
2615	0	30624	
2616	0	30392	
2617	0	30372	
2618	0	30456	
2619	0	30496	
2620	0	30652	
2621	0	30792	
2622	0	30756	
2623	0	30636	
2624	0	30608	
2625	0	30704	
2626	0	30808	
2627	0	30924	
2628	0	30924	
2629	0	31006	
2630	0	31088	
2631	0	31088	
2632	0	31024	
2633	0	31064	
2634	0	31052	
2635	0	31116	
2636	0	31188	
2637	0	31080	
2638	0	31036	
2639	0	31132	
2640	0	31216	
2641	0	31088	
2642	0	31012	
2643	0	31080	
2644	0	31140	
2645	0	31156	
2646	0	31220	
2647	0	31260	
2648	0	31260	
2649	0	31288	
2650	0	31240	
2651	0	31196	
2652	0	31144	
2653	0	31208	
2654	0	31244	
2655	0	31200	
2656	0	31148	
2657	0	31016	
2658	0	31068	
2659	0	31092	
2660	0	31084	
2661	0	31076	
2662	0	31132	
2663	0	31208	
2664	0	31340	
2665	0	31500	
2666	0	31748	
2667	0	32138	
2668	0	32504	
2669	0	32684	
2670	0	32776	
2671	0	32848	
2672	0	32956	
2673	0	32912	
2674	0	32936	
2675	0	33104	
2676	0	33172	
2677	0	33116	
2678	0	33136	
2679	0	33208	
2680	0	33160	
2681	0	33036	
2682	0	33024	
2683	0	33056	
2684	0	33128	
2685	0	33232	
2686	0	33232	
2687	0	33326	
2688	0	33444	
2689	0	33516	
2690	0	33513	
2691	0	33596	
2692	0	33764	
2693	0	34004	
2694	0	34092	
2695	0	34056	
2696	0	34068	
2697	0	34112	
2698	0	34074	
2699	0	34104	
2700	0	34288	
2701	0	34464	
2702	0	34412	
2703	0	34404	
2704	0	34548	
2705	0	34620	
2706	0	34656	
2707	0	34556	
2708	0	34340	
2709	0	34268	
2710	0	34336	
2711	0	34220	
2712	0	33986	
2713	0	33732	
2714	0	33388	
2715	0	33140	
2716	0	32964	
2717	0	32762	
2718	0	32652	
2719	0	32672	
2720	0	32600	
2721	0	32384	
2722	0	32200	
2723	0	32192	
2724	0	32240	
2725	0	32288	
2726	0	32328	
2727	0	32320	
2728	0	32264	
2729	0	32088	
2730	0	32092	
2731	0	31976	
2732	0	31834	
2733	0	31738	
2734	0	31696	
2735	0	31600	
2736	0	31332	
2737	0	31208	
2738	0	31176	
2739	0	31024	
2740	0	30968	
2741	0	31008	
2742	0	31044	
2743	0	30948	
2744	0	30784	
2745	0	30748	
2746	0	30724	
2747	0	30672	
2748	0	30568	
2749	0	30552	
2750	0	30472	
2751	0	30338	
2752	0	30232	
2753	0	30196	
2754	0	30154	
2755	0	30088	
2756	0	30130	
2757	0	30240	
2758	0	30240	
2759	0	30256	
2760	0	30292	
2761	0	30288	
2762	0	30304	
2763	0	30328	
2764	0	30306	
2765	0	30272	
2766	0	30368	
2767	0	30444	
2768	0	30512	
2769	0	30596	
2770	0	30620	
2771	0	30556	
2772	0	30462	
2773	0	30376	
2774	0	30292	
2775	0	30272	
2776	0	30352	
2777	0	30352	
2778	0	30320	
2779	0	30280	
2780	0	30321	
2781	0	30360	
2782	0	30388	
2783	0	30376	
2784	0	30340	
2785	0	30400	
2786	0	30536	
2787	0	30576	
2788	0	30612	
2789	0	30684	
2790	0	30608	
2791	0	30548	
2792	0	30576	
2793	0	30496	
2794	0	30348	
2795	0	30320	
2796	0	30228	
2797	0	30236	
2798	0	30260	
2799	0	30264	
2800	0	30352	
2801	0	30392	
2802	0	30476	
2803	0	30596	
2804	0	30668	
2805	0	30664	
2806	0	30584	
2807	0	30536	
2808	0	30568	
2809	0	30888	
2810	0	31190	
2811	0	31312	
2812	0	31290	
2813	0	31272	
2814	0	31264	
2815	0	31164	
2816	0	31140	
2817	0	31186	
2818	0	31160	
2819	0	31148	
2820	0	31226	
2821	0	31296	
2822	0	31332	
2823	0	31322	
2824	0	31354	
2825	0	31348	
2826	0	31220	
2827	0	31066	
2828	0	30904	
2829	0	30740	
2830	0	30658	
2831	0	30556	
2832	0	30516	
2833	0	30604	
2834	0	30664	
2835	0	30872	
2836	0	31412	
2837	0	32192	
2838	0	32860	
2839	0	33564	
2840	0	34528	
2841	0	35616	
2842	0	36820	
2843	0	38136	
2844	0	39650	
2845	0	41256	
2846	0	42880	
2847	0	44466	
2848	0	46048	
2849	0	47652	
2850	0	49096	
2851	0	50536	
2852	0	51928	
2853	0	53220	
2854	0	54436	
2855	0	55652	
2856	0	56896	
2857	0	58136	
2858	0	59298	
2859	0	60240	
2860	0	60832	
2861	0	61044	
2862	0	60296	
2863	0	58512	
2864	0	56016	
2865	0	52880	
2866	0	49432	
2867	0	45976	
2868	0	42324	
2869	0	38424	
2870	0	34440	
2871	0	30848	
2872	0	28016	
2873	0	26164	
2874	0	25192	
2875	0	24852	
2876	0	24804	
2877	0	25004	
2878	0	25298	
2879	0	25544	
2880	0	25812	
2881	0	26268	
2882	0	26708	
2883	0	27008	
2884	0	27312	
2885	0	27718	
2886	0	28162	
2887	0	28620	
2888	0	29112	
2889	0	29492	
2890	0	29772	
2891	0	29976	
2892	0	30128	
2893	0	30176	
2894	0	30152	
2895	0	30144	
2896	0	30128	
2897	0	29856	
2898	0	29736	
2899	0	29708	
2900	0	29756	
2901	0	29728	
2902	0	29732	
2903	0	29784	
2904	0	29796	
2905	0	29860	
2906	0	29988	
2907	0	30138	
2908	0	30250	
2909	0	30240	
2910	0	30124	
2911	0	30072	
2912	0	30034	
2913	0	30028	
2914	0	29924	
2915	0	29876	
2916	0	29888	
2917	0	29884	
2918	0	29896	
2919	0	29916	
2920	0	30002	
2921	0	30024	
2922	0	30000	
2923	0	30034	
2924	0	30088	
2925	0	30184	
2926	0	30220	
2927	0	30144	
2928	0	30112	
2929	0	30252	
2930	0	30276	
2931	0	30304	
2932	0	30356	
2933	0	30300	
2934	0	30148	
2935	0	30128	
2936	0	30128	
2937	0	30116	
2938	0	30192	
2939	0	30260	
2940	0	30336	
2941	0	30442	
2942	0	30444	
2943	0	30442	
2944	0	30440	
2945	0	30428	
2946	0	30472	
2947	0	30596	
2948	0	30688	
2949	0	30744	
2950	0	30728	
2951	0	30732	
2952	0	30696	
2953	0	30660	
2954	0	30672	
2955	0	30716	
2956	0	30740	
2957	0	30740	
2958	0	30712	
2959	0	30720	
2960	0	30744	
2961	0	30844	
2962	0	30932	
2963	0	30988	
2964	0	31064	
2965	0	31104	
2966	0	31156	
2967	0	31256	
2968	0	31440	
2969	0	31484	
2970	0	31476	
2971	0	31428	
2972	0	31396	
2973	0	31340	
2974	0	31220	
2975	0	31184	
2976	0	31252	
2977	0	31396	
2978	0	31488	
2979	0	31512	
2980	0	31380	
2981	0	31428	
2982	0	31608	
2983	0	31672	
2984	0	31628	
2985	0	31628	
2986	0	31740	
2987	0	31808	
2988	0	31824	
2989	0	31824	
2990	0	31800	
2991	0	31916	
2992	0	31904	
2993	0	31868	
2994	0	31884	
2995	0	32044	
2996	0	32184	
2997	0	32208	
2998	0	32240	
2999	0	32344	
3000	0	32408	
3001	0	32404	
3002	0	32448	
3003	0	32512	
3004	0	32476	
3005	0	32464	
3006	0	32568	
3007	0	32632	
3008	0	32600	
3009	0	32544	
3010	0	32570	
3011	0	32560	
3012	0	32520	
3013	0	32568	
3014	0	32548	
3015	0	32528	
3016	0	32596	
3017	0	32708	
3018	0	32834	
3019	0	32864	
3020	0	32780	
3021	0	32824	
3022	0	32944	
3023	0	32936	
3024	0	32900	
3025	0	32932	
3026	0	33096	
3027	0	33244	
3028	0	33392	
3029	0	33364	
3030	0	33152	
3031	0	33084	
3032	0	33150	
3033	0	33300	
3034	0	33416	
3035	0	33420	
3036	0	33340	
3037	0	33292	
3038	0	33326	
3039	0	33264	
3040	0	33304	
3041	0	33400	
3042	0	33488	
3043	0	33448	
3044	0	33456	
3045	0	33528	
3046	0	33592	
3047	0	33680	
3048	0	33732	
3049	0	33804	
3050	0	33980	
3051	0	34096	
3052	0	34216	
3053	0	34284	
3054	0	34324	
3055	0	34474	
3056	0	34592	
3057	0	34692	
3058	0	34812	
3059	0	34824	
3060	0	34852	
3061	0	34992	
3062	0	35060	
3063	0	35136	
3064	0	35196	
3065	0	35264	
3066	0	35368	
3067	0	35456	
3068	0	35616	
3069	0	35716	
3070	0	35838	
3071	0	36032	
3072	0	36076	
3073	0	36026	
3074	0	36020	
3075	0	36124	
3076	0	36220	
3077	0	36324	
3078	0	36420	
3079	0	36452	
3080	0	36572	
3081	0	36644	
3082	0	36684	
3083	0	36752	
3084	0	36896	
3085	0	37016	
3086	0	37120	
3087	0	37248	
3088	0	37320	
3089	0	37320	
3090	0	37216	
3091	0	37208	
3092	0	37308	
3093	0	37172	
3094	0	37104	
3095	0	37244	
3096	0	37364	
3097	0	37432	
3098	0	37440	
3099	0	37388	
3100	0	37392	
3101	0	37364	
3102	0	37340	
3103	0	37392	
3104	0	37532	
3105	0	37600	
3106	0	37572	
3107	0	37452	
3108	0	37312	
3109	0	37220	
3110	0	37116	
3111	0	37074	
3112	0	37060	
3113	0	36948	
3114	0	36768	
3115	0	36656	
3116	0	36544	
3117	0	36370	
3118	0	36152	
3119	0	35960	
3120	0	35852	
3121	0	35784	
3122	0	35616	
3123	0	35396	
3124	0	35216	
3125	0	35080	
3126	0	34920	
3127	0	34820	
3128	0	34696	
3129	0	34436	
3130	0	34184	
3131	0	33960	
3132	0	33780	
3133	0	33564	
3134	0	33336	
3135	0	33060	
3136	0	32844	
3137	0	32620	
3138	0	32510	
3139	0	32352	
3140	0	32140	
3141	0	32072	
3142	0	31936	
3143	0	31680	
3144	0	31424	
3145	0	31276	
3146	0	31240	
3147	0	31144	
3148	0	30996	
3149	0	30880	
3150	0	30772	
3151	0	30660	
3152	0	30412	
3153	0	30128	
3154	0	29998	
3155	0	29974	
3156	0	29964	
3157	0	29972	
3158	0	29892	
3159	0	29852	
3160	0	29840	
3161	0	29900	
3162	0	29936	
3163	0	29920	
3164	0	29768	
3165	0	29652	
3166	0	29600	
3167	0	29524	
3168	0	29464	
3169	0	29480	
3170	0	29468	
3171	0	29530	
3172	0	29588	
3173	0	29608	
3174	0	29508	
3175	0	29412	
3176	0	29336	
3177	0	29308	
3178	0	29352	
3179	0	29348	
3180	0	29368	
3181	0	29380	
3182	0	29324	
3183	0	29376	
3184	0	29432	
3185	0	29544	
3186	0	29594	
3187	0	29608	
3188	0	29636	
3189	0	29628	
3190	0	29626	
3191	0	29644	
3192	0	29656	
3193	0	29624	
3194	0	29610	
3195	0	29608	
3196	0	29592	
3197	0	29596	
3198	0	29620	
3199	0	29696	
3200	0	29644	
3201	0	29600	
3202	0	29626	
3203	0	29746	
3204	0	29890	
3205	0	30020	
3206	0	30096	
3207	0	30136	
3208	0	30110	
3209	0	30144	
3210	0	30210	
3211	0	30240	
3212	0	30222	
3213	0	30208	
3214	0	30170	
3215	0	30136	
3216	0	30148	
3217	0	30244	
3218	0	30304	
3219	0	30272	
3220	0	30232	
3221	0	30260	
3222	0	30352	
3223	0	30404	
3224	0	30408	
3225	0	30412	
3226	0	30398	
3227	0	30464	
3228	0	30542	
3229	0	30512	
3230	0	30500	
3231	0	30576	
3232	0	30680	
3233	0	30788	
3234	0	30824	
3235	0	30746	
3236	0	30720	
3237	0	30724	
3238	0	30796	
3239	0	30876	
3240	0	30892	
3241	0	30908	
3242	0	31016	
3243	0	31056	
3244	0	31042	
3245	0	31004	
3246	0	31048	
3247	0	31032	
3248	0	31008	
3249	0	31088	
3250	0	31220	
3251	0	31324	
3252	0	31208	
3253	0	31156	
3254	0	31160	
3255	0	31180	
3256	0	31168	
3257	0	31136	
3258	0	31136	
3259	0	31056	
3260	0	31072	
3261	0	31176	
3262	0	31192	
3263	0	31108	
3264	0	31056	
3265	0	31196	
3266	0	31324	
3267	0	31412	
3268	0	31452	
3269	0	31450	
3270	0	31460	
3271	0	31424	
3272	0	31300	
3273	0	31180	
3274	0	31208	
3275	0	31264	
3276	0	31324	
3277	0	31384	
3278	0	31408	
3279	0	31340	
3280	0	31332	
3281	0	31320	
3282	0	31322	
3283	0	31382	
3284	0	31420	
3285	0	31342	
3286	0	31328	
3287	0	31432	
3288	0	31520	
3289	0	31568	
3290	0	31560	
3291	0	31498	
3292	0	31464	
3293	0	31524	
3294	0	31548	
3295	0	31564	
3296	0	31456	
3297	0	31296	
3298	0	31312	
3299	0	31314	
3300	0	31328	
3301	0	31429	
3302	0	31520	
3303	0	31544	
3304	0	31536	
3305	0	31488	
3306	0	31468	
3307	0	31508	
3308	0	31516	
3309	0	31584	
3310	0	31656	
3311	0	31620	
3312	0	31604	
3313	0	31538	
3314	0	31416	
3315	0	31392	
3316	0	31428	
3317	0	31476	
3318	0	31520	
3319	0	31520	
3320	0	31496	
3321	0	31476	
3322	0	31450	
3323	0	31408	
3324	0	31328	
3325	0	31388	
3326	0	31498	
3327	0	31532	
3328	0	31516	
3329	0	31484	
3330	0	31456	
3331	0	31488	
3332	0	31524	
3333	0	31524	
3334	0	31512	
3335	0	31520	
3336	0	31534	
3337	0	31500	
3338	0	31456	
3339	0	31428	
3340	0	31500	
3341	0	31560	
3342	0	31636	
3343	0	31644	
3344	0	31592	
3345	0	31632	
3346	0	31684	
3347	0	31664	
3348	0	31680	
3349	0	31724	
3350	0	31706	
3351	0	31716	
3352	0	31612	
3353	0	31668	
3354	0	31712	
3355	0	31756	
3356	0	31816	
3357	0	31832	
3358	0	31836	
3359	0	31840	
3360	0	31788	
3361	0	31792	
3362	0	31828	
3363	0	31898	
3364	0	32084	
3365	0	32244	
3366	0	32476	
3367	0	32808	
3368	0	33112	
3369	0	33356	
3370	0	33472	
3371	0	33624	
3372	0	33648	
3373	0	33704	
3374	0	33696	
3375	0	33668	
3376	0	33688	
3377	0	33768	
3378	0	33820	
3379	0	33932	
3380	0	34004	
3381	0	34008	
3382	0	34044	
3383	0	34056	
3384	0	34156	
3385	0	34256	
3386	0	34364	
3387	0	34428	
3388	0	34452	
3389	0	34464	
3390	0	34448	
3391	0	34520	
3392	0	34544	
3393	0	34468	
3394	0	34400	
3395	0	34310	
3396	0	34216	
3397	0	34228	
3398	0	34252	
3399	0	34276	
3400	0	34360	
3401	0	34492	
3402	0	34608	
3403	0	34684	
3404	0	34732	
3405	0	34814	
3406	0	34820	
3407	0	34732	
3408	0	34636	
3409	0	34440	
3410	0	34152	
3411	0	33860	
3412	0	33592	
3413	0	33400	
3414	0	33298	
3415	0	33172	
3416	0	33016	
3417	0	32856	
3418	0	32756	
3419	0	32620	
3420	0	32516	
3421	0	32456	
3422	0	32364	
3423	0	32300	
3424	0	32304	
3425	0	32408	
3426	0	32484	
3427	0	32488	
3428	0	32420	
3429	0	32288	
3430	0	32220	
3431	0	32208	
3432	0	32160	
3433	0	32088	
3434	0	32040	
3435	0	32020	
3436	0	31924	
3437	0	31792	
3438	0	31624	
3439	0	31564	
3440	0	31588	
3441	0	31558	
3442	0	31520	
3443	0	31352	
3444	0	31208	
3445	0	31144	
3446	0	31128	
3447	0	30964	
3448	0	30848	
3449	0	30792	
3450	0	30752	
3451	0	30714	
3452	0	30712	
3453	0	30660	
3454	0	30588	
3455	0	30536	
3456	0	30618	
3457	0	30672	
3458	0	30664	
3459	0	30652	
3460	0	30676	
3461	0	30708	
3462	0	30720	
3463	0	30784	
3464	0	30748	
3465	0	30716	
3466	0	30852	
3467	0	30974	
3468	0	30988	
3469	0	31000	
3470	0	31024	
3471	0	30928	
3472	0	30820	
3473	0	30800	
3474	0	30880	
3475	0	30920	
3476	0	30960	
3477	0	30976	
3478	0	30942	
3479	0	30888	
3480	0	30892	
3481	0	30888	
3482	0	30952	
3483	0	31012	
3484	0	31084	
3485	0	31144	
3486	0	31172	
3487	0	31180	
3488	0	31192	
3489	0	31172	
3490	0	31132	
3491	0	31128	
3492	0	31120	
3493	0	31160	
3494	0	31228	
3495	0	31256	
3496	0	31300	
3497	0	31344	
3498	0	31372	
3499	0	31360	
3500	0	31372	
3501	0	31392	
3502	0	31372	
3503	0	31380	
3504	0	31408	
3505	0	31412	
3506	0	31452	
3507	0	31576	
3508	0	31684	
3509	0	31828	
3510	0	31936	
3511	0	31944	
3512	0	31924	
3513	0	31952	
3514	0	31924	
3515	0	31796	
3516	0	31776	
3517	0	31824	
3518	0	31820	
3519	0	31796	
3520	0	31792	
3521	0	31740	
3522	0	31664	
3523	0	31568	
3524	0	31380	
3525	0	31252	
3526	0	31220	
3527	0	31240	
3528	0	31414	
3529	0	31664	
3530	0	31988	
3531	0	32372	
3532	0	32844	
3533	0	33380	
3534	0	34008	
3535	0	34760	
3536	0	35628	
3537	0	36552	
3538	0	37636	
3539	0	39028	
3540	0	40488	
3541	0	41900	
3542	0	43244	
3543	0	44580	
3544	0	45932	
3545	0	47348	
3546	0	48844	
3547	0	50360	
3548	0	51676	
3549	0	52992	
3550	0	54228	
3551	0	55444	
3552	0	56556	
3553	0	57476	
3554	0	58276	
3555	0	58952	
3556	0	59384	
3557	0	59328	
3558	0	58140	
3559	0	56064	
3560	0	53344	
3561	0	50196	
3562	0	46864	
3563	0	43424	
3564	0	39648	
3565	0	35692	
3566	0	32144	
3567	0	29304	
3568	0	27336	
3569	0	26274	
3570	0	25698	
3571	0	25382	
3572	0	25408	
3573	0	25670	
3574	0	26046	
3575	0	26456	
3576	0	27090	
3577	0	27760	
3578	0	28378	
3579	0	28904	
3580	0	29356	
3581	0	29838	
3582	0	30372	
3583	0	30812	
3584	0	31132	
3585	0	31272	
3586	0	31296	
3587	0	31292	
3588	0	31276	
3589	0	31216	
3590	0	31164	
3591	0	31156	
3592	0	31076	
3593	0	30956	
3594	0	30928	
3595	0	30848	
3596	0	30728	
3597	0	30688	
3598	0	30680	
3599	0	30696	
3600	0	30720	
3601	0	30752	
3602	0	30768	
3603	0	30746	
3604	0	30704	
3605	0	30700	
3606	0	30776	
3607	0	30760	
3608	0	30796	
3609	0	30862	
3610	0	30936	
3611	0	30952	
3612	0	30904	
3613	0	30876	
3614	0	30820	
3615	0	30788	
3616	0	30800	
3617	0	30860	
3618	0	30958	
3619	0	30996	
3620	0	31016	
3621	0	31056	
3622	0	31140	
3623	0	31172	
3624	0	31160	
3625	0	31172	
3626	0	31176	
3627	0	31216	
3628	0	31212	
3629	0	31224	
3630	0	31188	
3631	0	31160	
3632	0	31184	
3633	0	31232	
3634	0	31256	
3635	0	31304	
3636	0	31338	
3637	0	31328	
3638	0	31392	
3639	0	31512	
3640	0	31596	
3641	0	31624	
3642	0	31600	
3643	0	31600	
3644	0	31636	
3645	0	31640	
3646	0	31644	
3647	0	31672	
3648	0	31728	
3649	0	31788	
3650	0	31784	
3651	0	31720	
3652	0	31656	
3653	0	31652	
3654	0	31694	
3655	0	31660	
3656	0	31608	
3657	0	31538	
3658	0	31488	
3659	0	31456	
3660	0	31532	
3661	0	31616	
3662	0	31664	
3663	0	31692	
3664	0	31778	
3665	0	31918	
3666	0	32036	
3667	0	32152	
3668	0	32208	
3669	0	32272	
3670	0	32352	
3671	0	32384	
3672	0	32328	
3673	0	32240	
3674	0	32240	
3675	0	32280	
3676	0	32334	
3677	0	32416	
3678	0	32608	
3679	0	32712	
3680	0	32732	
3681	0	32724	
3682	0	32712	
3683	0	32688	
3684	0	32616	
3685	0	32488	
3686	0	32418	
3687	0	32452	
3688	0	32516	
3689	0	32508	
3690	0	32572	
3691	0	32684	
3692	0	32876	
3693	0	33000	
3694	0	33044	
3695	0	33056	
3696	0	33116	
3697	0	33121	
3698	0	33076	
3699	0	33016	
3700	0	32968	
3701	0	33088	
3702	0	33200	
3703	0	33152	
3704	0	33176	
3705	0	33228	
3706	0	33284	
3707	0	33304	
3708	0	33280	
3709	0	33292	
3710	0	33317	
3711	0	33326	
3712	0	33368	
3713	0	33412	
3714	0	33416	
3715	0	33388	
3716	0	33386	
3717	0	33384	
3718	0	33428	
3719	0	33436	
3720	0	33388	
3721	0	33388	
3722	0	33472	
3723	0	33504	
3724	0	33552	
3725	0	33640	
3726	0	33776	
3727	0	33840	
3728	0	33904	
3729	0	33956	
3730	0	33942	
3731	0	33978	
3732	0	34060	
3733	0	34140	
3734	0	34206	
3735	0	34272	
3736	0	34320	
3737	0	34340	
3738	0	34408	
3739	0	34428	
3740	0	34440	
3741	0	34460	
3742	0	34492	
3743	0	34560	
3744	0	34628	
3745	0	34716	
3746	0	34824	
3747	0	34948	
3748	0	35056	
3749	0	35120	
3750	0	35148	
3751	0	35180	
3752	0	35188	
3753	0	35350	
3754	0	35460	
3755	0	35456	
3756	0	35462	
3757	0	35450	
3758	0	35504	
3759	0	35596	
3760	0	35732	
3761	0	35868	
3762	0	35964	
3763	0	36060	
3764	0	36160	
3765	0	36268	
3766	0	36340	
3767	0	36448	
3768	0	36560	
3769	0	36644	
3770	0	36696	
3771	0	36748	
3772	0	36796	
3773	0	36832	
3774	0	36864	
3775	0	36876	
3776	0	36936	
3777	0	36944	
3778	0	36968	
3779	0	37040	
3780	0	37040	
3781	0	37084	
3782	0	37168	
3783	0	37248	
3784	0	37352	
3785	0	37444	
3786	0	37488	
3787	0	37556	
3788	0	37626	
3789	0	37640	
3790	0	37636	
3791	0	37632	
3792	0	37636	
3793	0	37644	
3794	0	37664	
3795	0	37648	
3796	0	37680	
3797	0	37692	
3798	0	37700	
3799	0	37708	
3800	0	37728	
3801	0	37764	
3802	0	37788	
3803	0	37804	
3804	0	37772	
3805	0	37732	
3806	0	37688	
3807	0	37652	
3808	0	37600	
3809	0	37512	
3810	0	37392	
3811	0	37232	
3812	0	37088	
3813	0	36948	
3814	0	36790	
3815	0	36616	
3816	0	36472	
3817	0	36304	
3818	0	36096	
3819	0	35898	
3820	0	35700	
3821	0	35572	
3822	0	35440	
3823	0	35292	
3824	0	35104	
3825	0	34880	
3826	0	34704	
3827	0	34568	
3828	0	34392	
3829	0	34188	
3830	0	33904	
3831	0	33624	
3832	0	33416	
3833	0	33244	
3834	0	33096	
3835	0	32928	
3836	0	32768	
3837	0	32644	
3838	0	32476	
3839	0	32244	
3840	0	32032	
3841	0	31972	
3842	0	31868	
3843	0	31728	
3844	0	31588	
3845	0	31464	
3846	0	31372	
3847	0	31296	
3848	0	31188	
3849	0	31012	
3850	0	30880	
3851	0	30714	
3852	0	30588	
3853	0	30524	
3854	0	30504	
3855	0	30416	
3856	0	30324	
3857	0	30304	
3858	0	30284	
3859	0	30228	
3860	0	30132	
3861	0	30080	
3862	0	30048	
3863	0	30000	
3864	0	29960	
3865	0	29964	
3866	0	29980	
3867	0	30012	
3868	0	30032	
3869	0	30032	
3870	0	30048	
3871	0	30016	
3872	0	29976	
3873	0	29948	
3874	0	29874	
3875	0	29860	
3876	0	29840	
3877	0	29800	
3878	0	29796	
3879	0	29848	
3880	0	29840	
3881	0	29800	
3882	0	29792	
3883	0	29840	
3884	0	29928	
3885	0	29932	
3886	0	29968	
3887	0	29984	
3888	0	29960	
3889	0	29960	
3890	0	29940	
3891	0	29960	
3892	0	29984	
3893	0	30000	
3894	0	30056	
3895	0	30076	
3896	0	30100	
3897	0	30136	
3898	0	30176	
3899	0	30180	
3900	0	30146	
3901	0	30068	
3902	0	30028	
3903	0	30064	
3904	0	30128	
3905	0	30156	
3906	0	30232	
3907	0	30264	
3908	0	30272	
3909	0	30344	
3910	0	30448	
3911	0	30520	
3912	0	30542	
3913	0	30518	
3914	0	30492	
3915	0	30484	
3916	0	30368	
3917	0	30308	
3918	0	30302	
3919	0	30356	
3920	0	30384	
3921	0	30392	
3922	0	30520	
3923	0	30628	
3924	0	30688	
3925	0	30696	
3926	0	30624	
3927	0	30552	
3928	0	30564	
3929	0	30568	
3930	0	30524	
3931	0	30560	
3932	0	30592	
3933	0	30616	
3934	0	30778	
3935	0	30900	
3936	0	30984	
3937	0	31040	
3938	0	31036	
3939	0	31028	
3940	0	31072	
3941	0	31134	
3942	0	31184	
3943	0	31280	
3944	0	31328	
3945	0	31396	
3946	0	31472	
3947	0	31480	
3948	0	31532	
3949	0	31528	
3950	0	31480	
3951	0	31504	
3952	0	31476	
3953	0	31408	
3954	0	31410	
3955	0	31392	
3956	0	31356	
3957	0	31376	
3958	0	31420	
3959	0	31484	
3960	0	31500	
3961	0	31440	
3962	0	31428	
3963	0	31440	
3964	0	31488	
3965	0	31564	
3966	0	31596	
3967	0	31580	
3968	0	31576	
3969	0	31624	
3970	0	31680	
3971	0	31652	
3972	0	31584	
3973	0	31520	
3974	0	31496	
3975	0	31508	
3976	0	31520	
3977	0	31528	
3978	0	31570	
3979	0	31596	
3980	0	31592	
3981	0	31628	
3982	0	31660	
3983	0	31640	
3984	0	31532	
3985	0	31616	
3986	0	31736	
3987	0	31748	
3988	0	31760	
3989	0	31744	
3990	0	31756	
3991	0	31720	
3992	0	31676	
3993	0	31660	
3994	0	31624	
3995	0	31608	
3996	0	31636	
3997	0	31684	
3998	0	31680	
3999	0	31640	
4000	0	31652	
4001	0	31692	
4002	0	31762	
4003	0	31784	
4004	0	31796	
4005	0	31800	
4006	0	31808	
4007	0	31802	
4008	0	31792	
4009	0	31808	
4010	0	31820	
4011	0	31812	
4012	0	31772	
4013	0	31699	
4014	0	31664	
4015	0	31680	
4016	0	31672	
4017	0	31676	
4018	0	31666	
4019	0	31672	
4020	0	31672	
4021	0	31692	
4022	0	31736	
4023	0	31748	
4024	0	31688	
4025	0	31660	
4026	0	31696	
4027	0	31744	
4028	0	31788	
4029	0	31812	
4030	0	31812	
4031	0	31812	
4032	0	31832	
4033	0	31748	
4034	0	31716	
4035	0	31744	
4036	0	31724	
4037	0	31736	
4038	0	31756	
4039	0	31784	
4040	0	31832	
4041	0	31876	
4042	0	31892	
4043	0	31892	
4044	0	31896	
4045	0	31880	
4046	0	31852	
4047	0	31868	
4048	0	31868	
4049	0	31912	
4050	0	31928	
4051	0	31940	
4052	0	31918	
4053	0	31900	
4054	0	31858	
4055	0	31804	
4056	0	31784	
4057	0	31792	
4058	0	31752	
4059	0	31768	
4060	0	31806	
4061	0	31860	
4062	0	31892	
4063	0	31928	
4064	0	31960	
4065	0	32008	
4066	0	32064	
4067	0	32122	
4068	0	32160	
4069	0	32136	
4070	0	32040	
4071	0	31960	
4072	0	31948	
4073	0	31936	
4074	0	31928	
4075	0	31892	
4076	0	31856	
4077	0	31856	
4078	0	31832	
4079	0	31844	
4080	0	31876	
4081	0	31934	
4082	0	32008	
4083	0	31988	
4084	0	32000	
4085	0	32104	
4086	0	32252	
4087	0	32336	
4088	0	32404	
4089	0	32460	
4090	0	32464	
4091	0	32448	
4092	0	32538	
4093	0	32640	
4094	0	32744	
4095	0	32922	
4096	0	33112	
4097	0	33306	
4098	0	33504	
4099	0	33744	
4100	0	33920	
4101	0	34004	
4102	0	34008	
4103	0	33988	
4104	0	33944	
4105	0	33972	
4106	0	34048	
4107	0	34148	
4108	0	34280	
4109	0	34356	
4110	0	34400	
4111	0	34432	
4112	0	34468	
4113	0	34484	
4114	0	34488	
4115	0	34550	
4116	0	34640	
4117	0	34664	
4118	0	34668	
4119	0	34752	
4120	0	34888	
4121	0	34964	
4122	0	34928	
4123	0	34888	
4124	0	34848	
4125	0	34804	
4126	0	34764	
4127	0	34772	
4128	0	34900	
4129	0	35072	
4130	0	35140	
4131	0	35152	
4132	0	35304	
4133	0	35448	
4134	0	35528	
4135	0	35460	
4136	0	35292	
4137	0	35180	
4138	0	35024	
4139	0	34836	
4140	0	34648	
4141	0	34448	
4142	0	34288	
4143	0	34084	
4144	0	33916	
4145	0	33798	
4146	0	33696	
4147	0	33624	
4148	0	33560	
4149	0	33536	
4150	0	33464	
4151	0	33364	
4152	0	33260	
4153	0	33208	
4154	0	33136	
4155	0	33032	
4156	0	32952	
4157	0	32872	
4158	0	32832	
4159	0	32792	
4160	0	32736	
4161	0	32688	
4162	0	32644	
4163	0	32576	
4164	0	32528	
4165	0	32480	
4166	0	32392	
4167	0	32324	
4168	0	32264	
4169	0	32124	
4170	0	31960	
4171	0	31952	
4172	0	31888	
4173	0	31776	
4174	0	31772	
4175	0	31680	
4176	0	31534	
4177	0	31360	
4178	0	31182	
4179	0	31096	
4180	0	31078	
4181	0	31120	
4182	0	31128	
4183	0	31176	
4184	0	31216	
4185	0	31229	
4186	0	31280	
4187	0	31372	
4188	0	31420	
4189	0	31380	
4190	0	31320	
4191	0	31288	
4192	0	31288	
4193	0	31342	
4194	0	31364	
4195	0	31360	
4196	0	31328	
4197	0	31280	
4198	0	31258	
4199	0	31260	
4200	0	31264	
4201	0	31256	
4202	0	31258	
4203	0	31332	
4204	0	31384	
4205	0	31416	
4206	0	31472	
4207	0	31514	
4208	0	31520	
4209	0	31508	
4210	0	31488	
4211	0	31460	
4212	0	31428	
4213	0	31372	
4214	0	31328	
4215	0	31336	
4216	0	31350	
4217	0	31348	
4218	0	31350	
4219	0	31336	
4220	0	31404	
4221	0	31462	
4222	0	31544	
4223	0	31580	
4224	0	31628	
4225	0	31680	
4226	0	31720	
4227	0	31748	
4228	0	31768	
4229	0	31784	
4230	0	31780	
4231	0	31812	
4232	0	31844	
4233	0	31848	
4234	0	31860	
4235	0	31908	
4236	0	31904	
4237	0	31844	
4238	0	31824	
4239	0	31808	
4240	0	31840	
4241	0	31888	
4242	0	31936	
4243	0	31940	
4244	0	31952	
4245	0	32004	
4246	0	32064	
4247	0	32056	
4248	0	32048	
4249	0	31972	
4250	0	31852	
4251	0	31684	
4252	0	31488	
4253	0	31320	
4254	0	31272	
4255	0	31376	
4256	0	31536	
4257	0	31640	
4258	0	31808	
4259	0	32152	
4260	0	32616	
4261	0	33166	
4262	0	33800	
4263	0	34444	
4264	0	35212	
4265	0	36072	
4266	0	37088	
4267	0	38400	
4268	0	39880	
4269	0	41272	
4270	0	42570	
4271	0	43892	
4272	0	45212	
4273	0	46616	
4274	0	48020	
4275	0	49344	
4276	0	50600	
4277	0	51888	
4278	0	53072	
4279	0	54216	
4280	0	55264	
4281	0	56136	
4282	0	56880	
4283	0	57392	
4284	0	57722	
4285	0	57568	
4286	0	56344	
4287	0	54304	
4288	0	51688	
4289	0	48600	
4290	0	45416	
4291	0	42180	
4292	0	38680	
4293	0	34984	
4294	0	31720	
4295	0	29320	
4296	0	27768	
4297	0	26849	
4298	0	26336	
4299	0	26120	
4300	0	26168	
4301	0	26424	
4302	0	26764	
4303	0	27160	
4304	0	27616	
4305	0	28126	
4306	0	28682	
4307	0	29182	
4308	0	29664	
4309	0	30144	
4310	0	30520	
4311	0	30824	
4312	0	31052	
4313	0	31216	
4314	0	31288	
4315	0	31322	
4316	0	31336	
4317	0	31268	
4318	0	31094	
4319	0	30912	
4320	0	30862	
4321	0	30812	
4322	0	30808	
4323	0	30784	
4324	0	30772	
4325	0	30776	
4326	0	30756	
4327	0	30756	
4328	0	30730	
4329	0	30708	
4330	0	30668	
4331	0	30636	
4332	0	30612	
4333	0	30600	
4334	0	30648	
4335	0	30636	
4336	0	30544	
4337	0	30532	
4338	0	30506	
4339	0	30552	
4340	0	30742	
4341	0	30832	
4342	0	30872	
4343	0	30876	
4344	0	30824	
4345	0	30804	
4346	0	30852	
4347	0	30926	
4348	0	30940	
4349	0	30912	
4350	0	30944	
4351	0	31016	
4352	0	31004	
4353	0	31016	
4354	0	31112	
4355	0	31200	
4356	0	31240	
4357	0	31208	
4358	0	31172	
4359	0	31174	
4360	0	31208	
4361	0	31264	
4362	0	31280	
4363	0	31288	
4364	0	31280	
4365	0	31290	
4366	0	31396	
4367	0	31450	
4368	0	31484	
4369	0	31492	
4370	0	31456	
4371	0	31476	
4372	0	31484	
4373	0	31428	
4374	0	31368	
4375	0	31424	
4376	0	31470	
4377	0	31496	
4378	0	31552	
4379	0	31556	
4380	0	31568	
4381	0	31596	
4382	0	31576	
4383	0	31636	
4384	0	31776	
4385	0	31816	
4386	0	31856	
4387	0	31844	
4388	0	31820	
4389	0	31880	
4390	0	31956	
4391	0	32004	
4392	0	31968	
4393	0	32012	
4394	0	32068	
4395	0	32068	
4396	0	32080	
4397	0	32148	
4398	0	32204	
4399	0	32288	
4400	0	32376	
4401	0	32448	
4402	0	32488	
4403	0	32504	
4404	0	32424	
4405	0	32400	
4406	0	32404	
4407	0	32360	
4408	0	32360	
4409	0	32416	
4410	0	32448	
4411	0	32428	
4412	0	32334	
4413	0	32280	
4414	0	32332	
4415	0	32388	
4416	0	32456	
4417	0	32500	
4418	0	32468	
4419	0	32472	
4420	0	32510	
4421	0	32568	
4422	0	32620	
4423	0	32668	
4424	0	32736	
4425	0	32796	
4426	0	32876	
4427	0	32944	
4428	0	33032	
4429	0	33096	
4430	0	33136	
4431	0	33188	
4432	0	33172	
4433	0	33093	
4434	0	33036	
4435	0	32948	
4436	0	32944	
4437	0	33088	
4438	0	33216	
4439	0	33316	
4440	0	33408	
4441	0	33460	
4442	0	33500	
4443	0	33540	
4444	0	33584	
4445	0	33640	
4446	0	33716	
4447	0	33720	
4448	0	33632	
4449	0	33588	
4450	0	33516	
4451	0	33484	
4452	0	33514	
4453	0	33532	
4454	0	33580	
4455	0	33664	
4456	0	33756	
4457	0	33832	
4458	0	33904	
4459	0	33940	
4460	0	34036	
4461	0	34132	
4462	0	34232	
4463	0	34336	
4464	0	34376	
4465	0	34464	
4466	0	34620	
4467	0	34640	
4468	0	34596	
4469	0	34704	
4470	0	34840	
4471	0	34744	
4472	0	34578	
4473	0	34532	
4474	0	34586	
4475	0	34640	
4476	0	34720	
4477	0	34788	
4478	0	34944	
4479	0	35112	
4480	0	35076	
4481	0	35016	
4482	0	35088	
4483	0	35224	
4484	0	35392	
4485	0	35400	
4486	0	35420	
4487	0	35580	
4488	0	35704	
4489	0	35800	
4490	0	35828	
4491	0	35824	
4492	0	35876	
4493	0	35992	
4494	0	36044	
4495	0	36016	
4496	0	36052	
4497	0	36212	
4498	0	36276	
4499	0	36394	
4500	0	36560	
4501	0	36760	
4502	0	36842	
4503	0	36796	
4504	0	36816	
4505	0	36948	
4506	0	37048	
4507	0	37064	
4508	0	37080	
4509	0	37040	
4510	0	37048	
4511	0	37088	
4512	0	37164	
4513	0	37228	
4514	0	37256	
4515	0	37348	
4516	0	37354	
4517	0	37280	
4518	0	37232	
4519	0	37296	
4520	0	37408	
4521	0	37530	
4522	0	37616	
4523	0	37664	
4524	0	37724	
4525	0	37732	
4526	0	37740	
4527	0	37736	
4528	0	37692	
4529	0	37724	
4530	0	37836	
4531	0	37964	
4532	0	38024	
4533	0	38020	
4534	0	37888	
4535	0	37792	
4536	0	37692	
4537	0	37540	
4538	0	37436	
4539	0	37392	
4540	0	37300	
4541	0	37200	
4542	0	37100	
4543	0	36968	
4544	0	36868	
4545	0	36768	
4546	0	36608	
4547	0	36428	
4548	0	36204	
4549	0	35984	
4550	0	35704	
4551	0	35424	
4552	0	35306	
4553	0	35160	
4554	0	34946	
4555	0	34808	
4556	0	34652	
4557	0	34528	
4558	0	34472	
4559	0	34336	
4560	0	34012	
4561	0	33764	
4562	0	33572	
4563	0	33352	
4564	0	33164	
4565	0	33076	
4566	0	32904	
4567	0	32704	
4568	0	32556	
4569	0	32376	
4570	0	32136	
4571	0	31956	
4572	0	31844	
4573	0	31760	
4574	0	31642	
4575	0	31512	
4576	0	31328	
4577	0	31128	
4578	0	30944	
4579	0	30832	
4580	0	30744	
4581	0	30656	
4582	0	30600	
4583	0	30560	
4584	0	30400	
4585	0	30204	
4586	0	30156	
4587	0	30216	
4588	0	30210	
4589	0	30068	
4590	0	29912	
4591	0	29808	
4592	0	29776	
4593	0	29760	
4594	0	29836	
4595	0	29880	
4596	0	29824	
4597	0	29792	
4598	0	29766	
4599	0	29744	
4600	0	29732	
4601	0	29720	
4602	0	29760	
4603	0	29808	
4604	0	29808	
4605	0	29712	
4606	0	29714	
4607	0	29772	
4608	0	29832	
4609	0	29764	
4610	0	29632	
4611	0	29660	
4612	0	29746	
4613	0	29816	
4614	0	29818	
4615	0	29816	
4616	0	29872	
4617	0	29884	
4618	0	29888	
4619	0	29916	
4620	0	29856	
4621	0	29840	
4622	0	29832	
4623	0	29784	
4624	0	29776	
4625	0	29664	
4626	0	29624	
4627	0	29690	
4628	0	29844	
4629	0	29896	
4630	0	29900	
4631	0	29904	
4632	0	29956	
4633	0	30056	
4634	0	30016	
4635	0	29936	
4636	0	29888	
4637	0	29856	
4638	0	29850	
4639	0	29864	
4640	0	29920	
4641	0	29880	
4642	0	29884	
4643	0	30048	
4644	0	30280	
4645	0	30472	
4646	0	30416	
4647	0	30292	
4648	0	30248	
4649	0	30224	
4650	0	30192	
4651	0	30128	
4652	0	30116	
4653	0	30178	
4654	0	30256	
4655	0	30308	
4656	0	30316	
4657	0	30404	
4658	0	30460	
4659	0	30432	
4660	0	30440	
4661	0	30416	
4662	0	30480	
4663	0	30544	
4664	0	30476	
4665	0	30460	
4666	0	30626	
4667	0	30800	
4668	0	30876	
4669	0	30870	
4670	0	30808	
4671	0	30760	
4672	0	30712	
4673	0	30676	
4674	0	30680	
4675	0	30712	
4676	0	30732	
4677	0	30756	
4678	0	30812	
4679	0	30944	
4680	0	31008	
4681	0	31000	
4682	0	31002	
4683	0	30996	
4684	0	30926	
4685	0	30960	
4686	0	31072	
4687	0	31056	
4688	0	30956	
4689	0	30938	
4690	0	31008	
4691	0	31024	
4692	0	31016	
4693	0	31056	
4694	0	31072	
4695	0	31028	
4696	0	31008	
4697	0	31172	
4698	0	31348	
4699	0	31352	
4700	0	31316	
4701	0	31440	
4702	0	31440	
4703	0	31220	
4704	0	31024	
4705	0	31004	
4706	0	31044	
4707	0	31140	
4708	0	31316	
4709	0	31376	
4710	0	31360	
4711	0	31344	
4712	0	31280	
4713	0	31264	
4714	0	31284	
4715	0	31208	
4716	0	31120	
4717	0	31170	
4718	0	31256	
4719	0	31266	
4720	0	31292	
4721	0	31280	
4722	0	31288	
4723	0	31284	
4724	0	31228	
4725	0	31184	
4726	0	31144	
4727	0	31176	
4728	0	31208	
4729	0	31120	
4730	0	31072	
4731	0	31116	
4732	0	31100	
4733	0	31004	
4734	0	31076	
4735	0	31126	
4736	0	31148	
4737	0	31218	
4738	0	31132	
4739	0	31104	
4740	0	31176	
4741	0	31252	
4742	0	31256	
4743	0	31202	
4744	0	31266	
4745	0	31458	
4746	0	31616	
4747	0	31576	
4748	0	31416	
4749	0	31376	
4750	0	31368	
4751	0	31376	
4752	0	31308	
4753	0	31276	
4754	0	31252	
4755	0	31272	
4756	0	31296	
4757	0	31258	
4758	0	31204	
4759	0	31164	
4760	0	31052	
4761	0	30956	
4762	0	31036	
4763	0	31156	
4764	0	31256	
4765	0	31328	
4766	0	31360	
4767	0	31312	
4768	0	31420	
4769	0	31596	
4770	0	31704	
4771	0	31712	
4772	0	31576	
4773	0	31570	
4774	0	31696	
4775	0	31752	
4776	0	31736	
4777	0	31648	
4778	0	31680	
4779	0	31794	
4780	0	31964	
4781	0	32092	
4782	0	32156	
4783	0	32068	
4784	0	32160	
4785	0	32506	
4786	0	32686	
4787	0	32872	
4788	0	33004	
4789	0	33096	
4790	0	33148	
4791	0	33156	
4792	0	33056	
4793	0	32962	
4794	0	32964	
4795	0	33064	
4796	0	33154	
4797	0	33292	
4798	0	33404	
4799	0	33396	
4800	0	33440	
4801	0	33608	
4802	0	33804	
4803	0	33932	
4804	0	34064	
4805	0	34146	
4806	0	34208	
4807	0	34284	
4808	0	34288	
4809	0	34324	
4810	0	34376	
4811	0	34360	
4812	0	34300	
4813	0	34348	
4814	0	34350	
4815	0	34288	
4816	0	34276	
4817	0	34276	
4818	0	34380	
4819	0	34628	
4820	0	34748	
4821	0	34860	
4822	0	34984	
4823	0	35000	
4824	0	34892	
4825	0	34792	
4826	0	34692	
4827	0	34608	
4828	0	34416	
4829	0	34092	
4830	0	33864	
4831	0	33696	
4832	0	33520	
4833	0	33344	
4834	0	33176	
4835	0	33076	
4836	0	33072	
4837	0	32976	
4838	0	32916	
4839	0	32840	
4840	0	32744	
4841	0	32720	
4842	0	32772	
4843	0	32808	
4844	0	32696	
4845	0	32584	
4846	0	32536	
4847	0	32458	
4848	0	32272	
4849	0	32048	
4850	0	31840	
4851	0	31660	
4852	0	31528	
4853	0	31512	
4854	0	31496	
4855	0	31360	
4856	0	31288	
4857	0	31216	
4858	0	31120	
4859	0	31104	
4860	0	31078	
4861	0	31008	
4862	0	30864	
4863	0	30801	
4864	0	30936	
4865	0	30992	
4866	0	30904	
4867	0	30648	
4868	0	30508	
4869	0	30516	
4870	0	30456	
4871	0	30352	
4872	0	30318	
4873	0	30380	
4874	0	30528	
4875	0	30632	
4876	0	30604	
4877	0	30612	
4878	0	30616	
4879	0	30592	
4880	0	30602	
4881	0	30676	
4882	0	30648	
4883	0	30460	
4884	0	30510	
4885	0	30588	
4886	0	30532	
4887	0	30536	
4888	0	30596	
4889	0	30540	
4890	0	30508	
4891	0	30556	
4892	0	30664	
4893	0	30724	
4894	0	30600	
4895	0	30480	
4896	0	30412	
4897	0	30490	
4898	0	30620	
4899	0	30600	
4900	0	30612	
4901	0	30660	
4902	0	30624	
4903	0	30644	
4904	0	30708	
4905	0	30736	
4906	0	30806	
4907	0	30828	
4908	0	30856	
4909	0	30844	
4910	0	30868	
4911	0	30828	
4912	0	30832	
4913	0	30936	
4914	0	31048	
4915	0	30900	
4916	0	30766	
4917	0	30836	
4918	0	30900	
4919	0	30880	
4920	0	30900	
4921	0	30976	
4922	0	31040	
4923	0	31108	
4924	0	31162	
4925	0	31212	
4926	0	31224	
4927	0	31188	
4928	0	31242	
4929	0	31330	
4930	0	31242	
4931	0	31142	
4932	0	31092	
4933	0	31056	
4934	0	31088	
4935	0	31130	
4936	0	31116	
4937	0	31148	
4938	0	31184	
4939	0	31180	
4940	0	31164	
4941	0	31072	
4942	0	31028	
4943	0	30916	
4944	0	30888	
4945	0	30764	
4946	0	30676	
4947	0	30700	
4948	0	30736	
4949	0	30860	
4950	0	31204	
4951	0	31736	
4952	0	32496	
4953	0	33296	
4954	0	33980	
4955	0	34736	
4956	0	35760	
4957	0	36876	
4958	0	38216	
4959	0	39648	
4960	0	41196	
4961	0	42736	
4962	0	44130	
4963	0	45564	
4964	0	47148	
4965	0	48700	
4966	0	50152	
4967	0	51476	
4968	0	52664	
4969	0	53728	
4970	0	54756	
4971	0	55876	
4972	0	57060	
4973	0	58092	
4974	0	58684	
4975	0	58948	
4976	0	58176	
4977	0	56472	
4978	0	54208	
4979	0	51384	
4980	0	48220	
4981	0	45044	
4982	0	41800	
4983	0	38228	
4984	0	34436	
4985	0	31036	
4986	0	28292	
4987	0	26638	
4988	0	25812	
4989	0	25508	
4990	0	25324	
4991	0	25414	
4992	0	25616	
4993	0	25704	
4994	0	25648	
4995	0	25818	
4996	0	26128	
4997	0	26348	
4998	0	26660	
4999	0	27076	
5000	0	27556	
5001	0	27988	
5002	0	28424	
5003	0	28808	
5004	0	29096	
5005	0	29272	
5006	0	29352	
5007	0	29478	
5008	0	29592	
5009	0	29740	
5010	0	29852	
5011	0	29908	
5012	0	29752	
5013	0	29624	
5014	0	29548	
5015	0	29496	
5016	0	29454	
5017	0	29532	
5018	0	29488	
5019	0	29440	
5020	0	29544	
5021	0	29560	
5022	0	29504	
5023	0	29712	
5024	0	29762	
5025	0	29546	
5026	0	29576	
5027	0	29610	
5028	0	29636	
5029	0	29728	
5030	0	29728	
5031	0	29712	
5032	0	29616	
5033	0	29684	
5034	0	29722	
5035	0	29548	
5036	0	29472	
5037	0	29460	
5038	0	29480	
5039	0	29544	
5040	0	29396	
5041	0	29228	
5042	0	29272	
5043	0	29420	
5044	0	29540	
5045	0	29592	
5046	0	29728	
5047	0	29836	
5048	0	29796	
5049	0	29784	
5050	0	30014	
5051	0	30052	
5052	0	29892	
5053	0	29864	
5054	0	29908	
5055	0	30074	
5056	0	30272	
5057	0	30256	
5058	0	30196	
5059	0	30204	
5060	0	30240	
5061	0	30240	
5062	0	30292	
5063	0	30272	
5064	0	30188	
5065	0	30088	
5066	0	30152	
5067	0	30196	
5068	0	30212	
5069	0	30144	
5070	0	30132	
5071	0	30100	
5072	0	30052	
5073	0	30032	
5074	0	30000	
5075	0	30036	
5076	0	30176	
5077	0	30384	
5078	0	30592	
5079	0	30720	
5080	0	30748	
5081	0	30832	
5082	0	30842	
5083	0	31108	
5084	0	31236	
5085	0	31384	
5086	0	31608	
5087	0	31560	
5088	0	31430	
5089	0	31384	
5090	0	31192	
5091	0	31168	
5092	0	31198	
5093	0	31162	
5094	0	31116	
5095	0	31064	
5096	0	31052	
5097	0	31028	
5098	0	31092	
5099	0	31208	
5100	0	31152	
5101	0	31224	
5102	0	31168	
5103	0	31192	
5104	0	31452	
5105	0	31748	
5106	0	31712	
5107	0	31512	
5108	0	31456	
5109	0	31540	
5110	0	31418	
5111	0	31444	
5112	0	31544	
5113	0	31636	
5114	0	31884	
5115	0	31912	
5116	0	31852	
5117	0	31736	
5118	0	31754	
5119	0	31940	
5120	0	32120	
5121	0	32136	
5122	0	32272	
5123	0	32344	
5124	0	32396	
5125	0	32600	
5126	0	32794	
5127	0	32960	
5128	0	32964	
5129	0	32956	
5130	0	32992	
5131	0	33064	
5132	0	32964	
5133	0	32936	
5134	0	32968	
5135	0	32992	
5136	0	32900	
5137	0	32832	
5138	0	32836	
5139	0	32900	
5140	0	32948	
5141	0	33060	
5142	0	33078	
5143	0	33032	
5144	0	33000	
5145	0	33078	
5146	0	33220	
5147	0	33320	
5148	0	33496	
5149	0	33548	
5150	0	33632	
5151	0	33768	
5152	0	33824	
5153	0	34020	
5154	0	34252	
5155	0	34344	
5156	0	34440	
5157	0	34552	
5158	0	34516	
5159	0	34508	
5160	0	34620	
5161	0	34632	
5162	0	34488	
5163	0	34364	
5164	0	34428	
5165	0	34504	
5166	0	34600	
5167	0	34900	
5168	0	35002	
5169	0	34946	
5170	0	35116	
5171	0	35224	
5172	0	35224	
5173	0	35172	
5174	0	35272	
5175	0	35456	
5176	0	35712	
5177	0	35792	
5178	0	35872	
5179	0	35972	
5180	0	35916	
5181	0	35948	
5182	0	36052	
5183	0	36300	
5184	0	36540	
5185	0	36500	
5186	0	36392	
5187	0	36456	
5188	0	36570	
5189	0	36708	
5190	0	36836	
5191	0	36756	
5192	0	36624	
5193	0	36720	
5194	0	36876	
5195	0	37040	
5196	0	37168	
5197	0	37124	
5198	0	37096	
5199	0	37000	
5200	0	36964	
5201	0	36980	
5202	0	37156	
5203	0	37224	
5204	0	37340	
5205	0	37440	
5206	0	37508	
5207	0	37516	
5208	0	37604	
5209	0	37648	
5210	0	37596	
5211	0	37624	
5212	0	37740	
5213	0	37896	
5214	0	37814	
5215	0	37620	
5216	0	37690	
5217	0	37772	
5218	0	37784	
5219	0	37984	
5220	0	38156	
5221	0	38144	
5222	0	38044	
5223	0	38004	
5224	0	37860	
5225	0	37848	
5226	0	37856	
5227	0	37848	
5228	0	37828	
5229	0	37796	
5230	0	37560	
5231	0	37344	
5232	0	37124	
5233	0	36756	
5234	0	36448	
5235	0	36220	
5236	0	36008	
5237	0	35776	
5238	0	35720	
5239	0	35748	
5240	0	35644	
5241	0	35464	
5242	0	35364	
5243	0	35320	
5244	0	35180	
5245	0	34940	
5246	0	34804	
5247	0	34632	
5248	0	34440	
5249	0	34284	
5250	0	34180	
5251	0	33912	
5252	0	33572	
5253	0	33508	
5254	0	33480	
5255	0	33440	
5256	0	33264	
5257	0	32904	
5258	0	32552	
5259	0	32388	
5260	0	32260	
5261	0	32040	
5262	0	31828	
5263	0	31740	
5264	0	31556	
5265	0	31272	
5266	0	31080	
5267	0	30916	
5268	0	30792	
5269	0	30704	
5270	0	30572	
5271	0	30292	
5272	0	29948	
5273	0	29936	
5274	0	29992	
5275	0	29864	
5276	0	29754	
5277	0	29788	
5278	0	29852	
5279	0	29772	
5280	0	29580	
5281	0	29400	
5282	0	29340	
5283	0	29332	
5284	0	29304	
5285	0	29210	
5286	0	29160	
5287	0	29156	
5288	0	29136	
5289	0	29206	
5290	0	29304	
5291	0	29296	
5292	0	29360	
5293	0	29320	
5294	0	29304	
5295	0	29338	
5296	0	29336	
5297	0	29300	
5298	0	29196	
5299	0	29052	
5300	0	28996	
5301	0	28976	
5302	0	29052	
5303	0	29100	
5304	0	29104	
5305	0	29048	
5306	0	28998	
5307	0	29024	
5308	0	28956	
5309	0	28968	
5310	0	29192	
5311	0	29220	
5312	0	29088	
5313	0	29036	
5314	0	29108	
5315	0	29054	
5316	0	29032	
5317	0	29152	
5318	0	29292	
5319	0	29306	
5320	0	29200	
5321	0	29168	
5322	0	29220	
5323	0	29313	
5324	0	29408	
5325	0	29552	
5326	0	29624	
5327	0	29548	
5328	0	29464	
5329	0	29416	
5330	0	29524	
5331	0	29542	
5332	0	29618	
5333	0	29632	
5334	0	29428	
5335	0	29556	
5336	0	29594	
5337	0	29472	
5338	0	29368	
5339	0	29472	
5340	0	29592	
5341	0	29754	
5342	0	29888	
5343	0	29994	
5344	0	30040	
5345	0	29984	
5346	0	29964	
5347	0	29854	
5348	0	29884	
5349	0	29944	
5350	0	29920	
5351	0	29928	
5352	0	29968	
5353	0	30072	
5354	0	30180	
5355	0	30496	
5356	0	30432	
5357	0	30340	
5358	0	30256	
5359	0	30012	
5360	0	30028	
5361	0	30184	
5362	0	30416	
5363	0	30528	
5364	0	30418	
5365	0	30500	
5366	0	30644	
5367	0	30640	
5368	0	30580	
5369	0	30560	
5370	0	30636	
5371	0	30708	
5372	0	30376	
5373	0	30076	
5374	0	29972	
5375	0	29996	
5376	0	30028	
5377	0	30100	
5378	0	30264	
5379	0	30372	
5380	0	30372	
5381	0	30468	
5382	0	30560	
5383	0	30524	
5384	0	30606	
5385	0	30856	
5386	0	31040	
5387	0	31100	
5388	0	31064	
5389	0	31116	
5390	0	31120	
5391	0	31060	
5392	0	30968	
5393	0	30880	
5394	0	30884	
5395	0	30842	
5396	0	30592	
5397	0	30560	
5398	0	30564	
5399	0	30568	
5400	0	30682	
5401	0	30848	
5402	0	30862	
5403	0	30960	
5404	0	30892	
5405	0	30810	
5406	0	30808	
5407	0	30844	
5408	0	30938	
5409	0	31064	
5410	0	31096	
5411	0	31124	
5412	0	31256	
5413	0	31090	
5414	0	30808	
5415	0	30804	
5416	0	31024	
5417	0	31128	
5418	0	30912	
5419	0	30784	
5420	0	30808	
5421	0	31056	
5422	0	31238	
5423	0	31466	
5424	0	31440	
5425	0	31428	
5426	0	31488	
5427	0	31572	
5428	0	31580	
5429	0	31500	
5430	0	31448	
5431	0	31448	
5432	0	31256	
5433	0	31372	
5434	0	31520	
5435	0	31790	
5436	0	31984	
5437	0	32100	
5438	0	32216	
5439	0	32452	
5440	0	32652	
5441	0	32716	
5442	0	32896	
5443	0	33152	
5444	0	33320	
5445	0	33738	
5446	0	33856	
5447	0	33440	
5448	0	32984	
5449	0	32788	
5450	0	32744	
5451	0	32704	
5452	0	32808	
5453	0	33248	
5454	0	33364	
5455	0	33404	
5456	0	33256	
5457	0	33468	
5458	0	33648	
5459	0	33584	
5460	0	33530	
5461	0	33580	
5462	0	33528	
5463	0	33756	
5464	0	34188	
5465	0	34580	
5466	0	34760	
5467	0	34852	
5468	0	34856	
5469	0	34616	
5470	0	34592	
5471	0	34530	
5472	0	34424	
5473	0	34556	
5474	0	34796	
5475	0	34824	
5476	0	34660	
5477	0	34524	
5478	0	34404	
5479	0	34088	
5480	0	34156	
5481	0	34272	
5482	0	34424	
5483	0	34472	
5484	0	34072	
5485	0	33912	
5486	0	33688	
5487	0	33552	
5488	0	33580	
5489	0	33496	
5490	0	33396	
5491	0	33468	
5492	0	33396	
5493	0	33080	
5494	0	32804	
5495	0	32776	
5496	0	32916	
5497	0	32840	
5498	0	32568	
5499	0	32536	
5500	0	32440	
5501	0	32508	
5502	0	32288	
5503	0	31856	
5504	0	31484	
5505	0	31480	
5506	0	31568	
5507	0	31440	
5508	0	31384	
5509	0	31316	
5510	0	31252	
5511	0	31210	
5512	0	31138	
5513	0	31114	
5514	0	31104	
5515	0	31092	
5516	0	31176	
5517	0	31384	
5518	0	31632	
5519	0	31232	
5520	0	30972	
5521	0	31076	
5522	0	31144	
5523	0	30888	
5524	0	30684	
5525	0	30648	
5526	0	30444	
5527	0	30460	
5528	0	30660	
5529	0	30824	
5530	0	30836	
5531	0	30632	
5532	0	30532	
5533	0	30628	
5534	0	30788	
5535	0	30604	
5536	0	30580	
5537	0	30664	
5538	0	30840	
5539	0	31108	
5540	0	31200	
5541	0	31308	
5542	0	31216	
5543	0	31012	
5544	0	30992	
5545	0	30980	
5546	0	30904	
5547	0	31024	
5548	0	31072	
5549	0	31040	
5550	0	31002	
5551	0	30856	
5552	0	30680	
5553	0	30744	
5554	0	30752	
5555	0	30560	
5556	0	30552	
5557	0	30640	
5558	0	30632	
5559	0	30560	
5560	0	30732	
5561	0	30888	
5562	0	30936	
5563	0	31132	
5564	0	31328	
5565	0	31522	
5566	0	31636	
5567	0	31748	
5568	0	31596	
5569	0	31392	
5570	0	31444	
5571	0	31486	
5572	0	31344	
5573	0	31040	
5574	0	30848	
5575	0	30868	
5576	0	30956	
5577	0	31160	
5578	0	31136	
5579	0	31104	
5580	0	31128	
5581	0	31236	
5582	0	31236	
5583	0	31300	
5584	0	31268	
5585	0	31336	
5586	0	31228	
5587	0	31236	
5588	0	31172	
5589	0	31292	
5590	0	31352	
5591	0	31328	
5592	0	31340	
5593	0	31308	
5594	0	31368	
5595	0	31436	
5596	0	31308	
5597	0	31140	
5598	0	31100	
5599	0	30924	
5600	0	30626	
5601	0	30584	
5602	0	30564	
5603	0	30760	
5604	0	30952	
5605	0	31240	
5606	0	31860	
5607	0	32826	
5608	0	33844	
5609	0	34728	
5610	0	35624	
5611	0	36648	
5612	0	38128	
5613	0	39952	
5614	0	41464	
5615	0	43032	
5616	0	44560	
5617	0	46184	
5618	0	47968	
5619	0	49584	
5620	0	51096	
5621	0	52512	
5622	0	53832	
5623	0	55060	
5624	0	56156	
5625	0	57400	
5626	0	58544	
5627	0	59596	
5628	0	60472	
5629	0	60992	
5630	0	61028	
5631	0	60340	
5632	0	58588	
5633	0	55700	
5634	0	52216	
5635	0	48510	
5636	0	45280	
5637	0	42068	
5638	0	38356	
5639	0	34452	
5640	0	31076	
5641	0	28604	
5642	0	26996	
5643	0	26244	
5644	0	25920	
5645	0	25828	
5646	0	26126	
5647	0	26336	
5648	0	26392	
5649	0	26838	
5650	0	27088	
5651	0	27232	
5652	0	27472	
5653	0	27472	
5654	0	27450	
5655	0	27756	
5656	0	27940	
5657	0	28148	
5658	0	28444	
5659	0	28844	
5660	0	29264	
5661	0	29712	
5662	0	30276	
5663	0	30600	
5664	0	30528	
5665	0	30532	
5666	0	30588	
5667	0	30508	
5668	0	30560	
5669	0	30609	
5670	0	30632	
5671	0	30560	
5672	0	30596	
5673	0	30656	
5674	0	30736	
5675	0	30784	
5676	0	30584	
5677	0	30364	
5678	0	30308	
5679	0	30328	
5680	0	30464	
5681	0	30560	
5682	0	30524	
5683	0	30344	
5684	0	30482	
5685	0	30680	
5686	0	30752	
5687	0	30812	
5688	0	30872	
5689	0	30784	
5690	0	30656	
5691	0	30460	
5692	0	30272	
5693	0	30180	
5694	0	30220	
5695	0	30232	
5696	0	30300	
5697	0	30288	
5698	0	30380	
5699	0	30792	
5700	0	31068	
5701	0	31082	
5702	0	31392	
5703	0	31288	
5704	0	31056	
5705	0	30872	
5706	0	30788	
5707	0	30912	
5708	0	30868	
5709	0	30654	
5710	0	30561	
5711	0	30712	
5712	0	30864	
5713	0	30920	
5714	0	30928	
5715	0	30972	
5716	0	31136	
5717	0	31216	
5718	0	31380	
5719	0	31344	
5720	0	31184	
5721	0	31408	
5722	0	31428	
5723	0	31322	
5724	0	31392	
5725	0	31428	
5726	0	31516	
5727	0	31656	
5728	0	31544	
5729	0	31400	
5730	0	31356	
5731	0	31576	
5732	0	31816	
5733	0	31672	
5734	0	31648	
5735	0	31600	
5736	0	31508	
5737	0	31440	
5738	0	31504	
5739	0	31668	
5740	0	31984	
5741	0	32076	
5742	0	31984	
5743	0	32092	
5744	0	32412	
5745	0	32484	
5746	0	32468	
5747	0	32444	
5748	0	32416	
5749	0	32368	
5750	0	32240	
5751	0	32252	
5752	0	32400	
5753	0	32512	
5754	0	32532	
5755	0	32568	
5756	0	32504	
5757	0	32376	
5758	0	32202	
5759	0	32300	
5760	0	32430	
5761	0	32434	
5762	0	32376	
5763	0	32140	
5764	0	32274	
5765	0	32656	
5766	0	32880	
5767	0	32934	
5768	0	32996	
5769	0	32940	
5770	0	32928	
5771	0	32976	
5772	0	32944	
5773	0	33092	
5774	0	33184	
5775	0	33140	
5776	0	33108	
5777	0	33012	
5778	0	33120	
5779	0	33104	
5780	0	32988	
5781	0	32956	
5782	0	32992	
5783	0	33228	
5784	0	33420	
5785	0	33432	
5786	0	33504	
5787	0	33720	
5788	0	33608	
5789	0	33676	
5790	0	33890	
5791	0	33856	
5792	0	33656	
5793	0	33742	
5794	0	33708	
5795	0	33684	
5796	0	33652	
5797	0	33658	
5798	0	33784	
5799	0	33834	
5800	0	33960	
5801	0	34162	
5802	0	34312	
5803	0	34608	
5804	0	34856	
5805	0	34816	
5806	0	34684	
5807	0	34740	
5808	0	34980	
5809	0	35084	
5810	0	35112	
5811	0	34960	
5812	0	34720	
5813	0	34744	
5814	0	34848	
5815	0	34920	
5816	0	35040	
5817	0	35334	
5818	0	35576	
5819	0	35470	
5820	0	35320	
5821	0	35268	
5822	0	35240	
5823	0	35304	
5824	0	35496	
5825	0	35602	
5826	0	35460	
5827	0	35230	
5828	0	35440	
5829	0	35544	
5830	0	35676	
5831	0	35868	
5832	0	36108	
5833	0	36184	
5834	0	36336	
5835	0	36490	
5836	0	36424	
5837	0	36464	
5838	0	36576	
5839	0	36644	
5840	0	36732	
5841	0	36824	
5842	0	37082	
5843	0	37248	
5844	0	37260	
5845	0	37428	
5846	0	37480	
5847	0	37440	
5848	0	37328	
5849	0	37324	
5850	0	37384	
5851	0	37312	
5852	0	37400	
5853	0	37440	
5854	0	37504	
5855	0	37810	
5856	0	37982	
5857	0	37900	
5858	0	37848	
5859	0	37968	
5860	0	38136	
5861	0	38088	
5862	0	37972	
5863	0	37928	
5864	0	38178	
5865	0	38176	
5866	0	37896	
5867	0	37760	
5868	0	37832	
5869	0	38016	
5870	0	38380	
5871	0	38402	
5872	0	38340	
5873	0	38304	
5874	0	38224	
5875	0	38076	
5876	0	37980	
5877	0	38012	
5878	0	38112	
5879	0	38120	
5880	0	38016	
5881	0	37802	
5882	0	37462	
5883	0	37104	
5884	0	36736	
5885	0	36876	
5886	0	36876	
5887	0	36776	
5888	0	36820	
5889	0	36640	
5890	0	36356	
5891	0	36164	
5892	0	36140	
5893	0	36092	
5894	0	35980	
5895	0	35808	
5896	0	35312	
5897	0	34960	
5898	0	34784	
5899	0	34448	
5900	0	34298	
5901	0	34304	
5902	0	34196	
5903	0	33908	
5904	0	34028	
5905	0	33980	
5906	0	33720	
5907	0	33458	
5908	0	33032	
5909	0	32548	
5910	0	32336	
5911	0	31992	
5912	0	31728	
5913	0	31648	
5914	0	31534	
5915	0	31500	
5916	0	31472	
5917	0	31384	
5918	0	31144	
5919	0	30984	
5920	0	30960	
5921	0	30692	
5922	0	30484	
5923	0	30676	
5924	0	30756	
5925	0	30808	
5926	0	30700	
5927	0	30562	
5928	0	30488	
5929	0	30688	
5930	0	30624	
5931	0	30304	
5932	0	30116	
5933	0	29860	
5934	0	29248	
5935	0	29316	
5936	0	29488	
5937	0	29520	
5938	0	29406	
5939	0	29130	
5940	0	29196	
5941	0	29242	
5942	0	29464	
5943	0	29544	
5944	0	29884	
5945	0	30064	
5946	0	30098	
5947	0	29816	
5948	0	29576	
5949	0	29548	
5950	0	29608	
5951	0	29552	
5952	0	29464	
5953	0	29368	
5954	0	29468	
5955	0	29496	
5956	0	29404	
5957	0	29268	
5958	0	29257	
5959	0	29444	
5960	0	29356	
5961	0	29173	
5962	0	29160	
5963	0	29172	
5964	0	29240	
5965	0	29332	
5966	0	29488	
5967	0	29526	
5968	0	29760	
5969	0	29984	
5970	0	30012	
5971	0	29876	
5972	0	29988	
5973	0	29882	
5974	0	29892	
5975	0	30004	
5976	0	29880	
5977	0	29924	
5978	0	29916	
5979	0	29764	
5980	0	29792	
5981	0	29876	
5982	0	29696	
5983	0	29800	
5984	0	29952	
5985	0	30028	
5986	0	30068	
5987	0	29924	
5988	0	29854	
5989	0	29804	
5990	0	29820	
5991	0	30052	
5992	0	30240	
5993	0	30124	
5994	0	30096	
5995	0	30202	
5996	0	30346	
5997	0	30458	
5998	0	30516	
5999	0	30368	
6000	0	30312	
6001	0	30396	
6002	0	30256	
6003	0	30290	
6004	0	30488	
6005	0	30560	
6006	0	30604	
6007	0	30640	
6008	0	30532	
6009	0	30496	
6010	0	30416	
6011	0	30372	
6012	0	30348	
6013	0	30424	
6014	0	30624	
6015	0	30516	
6016	0	30460	
6017	0	30480	
6018	0	30548	
6019	0	30636	
6020	0	30560	
6021	0	30348	
6022	0	30342	
6023	0	30584	
6024	0	30764	
6025	0	30764	
6026	0	30760	
6027	0	30916	
6028	0	31024	
6029	0	30992	
6030	0	30892	
6031	0	30876	
6032	0	31216	
6033	0	31368	
6034	0	31402	
6035	0	31344	
6036	0	31468	
6037	0	31712	
6038	0	31738	
6039	0	31496	
6040	0	31332	
6041	0	31180	
6042	0	30948	
6043	0	30816	
6044	0	30818	
6045	0	30970	
6046	0	31037	
6047	0	31048	
6048	0	31004	
6049	0	31000	
6050	0	31208	
6051	0	31272	
6052	0	31248	
6053	0	31116	
6054	0	31174	
6055	0	31336	
6056	0	31426	
6057	0	31472	
6058	0	31392	
6059	0	31348	
6060	0	31624	
6061	0	31876	
6062	0	32052	
6063	0	32012	
6064	0	31796	
6065	0	31652	
6066	0	31784	
6067	0	31892	
6068	0	32036	
6069	0	32236	
6070	0	32564	
6071	0	32820	
6072	0	32956	
6073	0	33080	
6074	0	33248	
6075	0	33172	
6076	0	32980	
6077	0	32848	
6078	0	32720	
6079	0	32728	
6080	0	32692	
6081	0	32684	
6082	0	32850	
6083	0	33040	
6084	0	33128	
6085	0	33212	
6086	0	33324	
6087	0	33482	
6088	0	33640	
6089	0	33648	
6090	0	33692	
6091	0	33800	
6092	0	34040	
6093	0	34308	
6094	0	34380	
6095	0	34400	
6096	0	34376	
6097	0	34508	
6098	0	34632	
6099	0	34692	
6100	0	34640	
6101	0	34672	
6102	0	34824	
6103	0	34920	
6104	0	34920	
6105	0	34748	
6106	0	34744	
6107	0	34788	
6108	0	34784	
6109	0	34668	
6110	0	34536	
6111	0	34612	
6112	0	34696	
6113	0	34692	
6114	0	34460	
6115	0	34164	
6116	0	33872	
6117	0	33566	
6118	0	33472	
6119	0	33458	
6120	0	33416	
6121	0	33408	
6122	0	33328	
6123	0	33368	
6124	0	33620	
6125	0	33798	
6126	0	33888	
6127	0	33736	
6128	0	33504	
6129	0	33576	
6130	0	33532	
6131	0	33304	
6132	0	33008	
6133	0	32796	
6134	0	32640	
6135	0	32508	
6136	0	32336	
6137	0	32368	
6138	0	32242	
6139	0	31988	
6140	0	31840	
6141	0	31784	
6142	0	31618	
6143	0	31616	
6144	0	31652	
6145	0	31392	
6146	0	31068	
6147	0	30984	
6148	0	30952	
6149	0	30740	
6150	0	30788	
6151	0	30756	
6152	0	30688	
6153	0	30672	
6154	0	30720	
6155	0	31000	
6156	0	31172	
6157	0	31196	
6158	0	31296	
6159	0	31320	
6160	0	31196	
6161	0	30980	
6162	0	31020	
6163	0	31092	
6164	0	31044	
6165	0	31044	
6166	0	30992	
6167	0	30792	
6168	0	30664	
6169	0	30582	
6170	0	30632	
6171	0	30752	
6172	0	30760	
6173	0	30744	
6174	0	30728	
6175	0	30752	
6176	0	30992	
6177	0	31112	
6178	0	31188	
6179	0	31312	
6180	0	31308	
6181	0	31296	
6182	0	31252	
6183	0	31228	
6184	0	31196	
6185	0	31160	
6186	0	31032	
6187	0	30784	
6188	0	30700	
6189	0	30824	
6190	0	30796	
6191	0	30952	
6192	0	31004	
6193	0	30992	
6194	0	31052	
6195	0	31086	
6196	0	31148	
6197	0	31224	
6198	0	31258	
6199	0	31124	
6200	0	30984	
6201	0	31032	
6202	0	31032	
6203	0	30896	
6204	0	30960	
6205	0	30966	
6206	0	31040	
6207	0	31108	
6208	0	31332	
6209	0	31408	
6210	0	31250	
6211	0	31200	
6212	0	31304	
6213	0	31412	
6214	0	31480	
6215	0	31440	
6216	0	31512	
6217	0	31596	
6218	0	31740	
6219	0	31740	
6220	0	31688	
6221	0	31648	
6222	0	31664	
6223	0	31736	
6224	0	31848	
6225	0	31884	
6226	0	31936	
6227	0	31784	
6228	0	31476	
6229	0	31404	
6230	0	31376	
6231	0	31160	
6232	0	30872	
6233	0	30776	
6234	0	30844	
6235	0	30956	
6236	0	31172	
6237	0	31648	
6238	0	32414	
6239	0	33196	
6240	0	33988	
6241	0	34840	
6242	0	36016	
6243	0	37440	
6244	0	39088	
6245	0	40784	
6246	0	42444	
6247	0	44072	
6248	0	45602	
6249	0	47208	
6250	0	48956	
6251	0	50588	
6252	0	52000	
6253	0	53416	
6254	0	54728	
6255	0	56008	
6256	0	57320	
6257	0	58520	
6258	0	59616	
6259	0	60748	
6260	0	61752	
6261	0	62384	
6262	0	62360	
6263	0	61292	
6264	0	59312	
6265	0	56288	
6266	0	52576	
6267	0	48816	
6268	0	45188	
6269	0	41440	
6270	0	37632	
6271	0	33914	
6272	0	30608	
6273	0	28244	
6274	0	26880	
6275	0	26080	
6276	0	25724	
6277	0	25620	
6278	0	25748	
6279	0	25976	
6280	0	26136	
6281	0	26220	
6282	0	26412	
6283	0	26728	
6284	0	27016	
6285	0	27272	
6286	0	27584	
6287	0	27796	
6288	0	27872	
6289	0	28188	
6290	0	28526	
6291	0	28872	
6292	0	29284	
6293	0	29784	
6294	0	30068	
6295	0	30226	
6296	0	30272	
6297	0	30280	
6298	0	30300	
6299	0	30268	
6300	0	30216	
6301	0	30180	
6302	0	30074	
6303	0	29980	
6304	0	29978	
6305	0	30156	
6306	0	30160	
6307	0	29896	
6308	0	29826	
6309	0	30000	
6310	0	30138	
6311	0	30192	
6312	0	30036	
6313	0	29936	
6314	0	30172	
6315	0	30260	
6316	0	30308	
6317	0	30480	
6318	0	30522	
6319	0	30532	
6320	0	30440	
6321	0	30448	
6322	0	30448	
6323	0	30548	
6324	0	30388	
6325	0	30292	
6326	0	30612	
6327	0	30648	
6328	0	30452	
6329	0	30304	
6330	0	30488	
6331	0	30624	
6332	0	30812	
6333	0	30932	
6334	0	30692	
6335	0	30396	
6336	0	30570	
6337	0	30556	
6338	0	30476	
6339	0	30592	
6340	0	30588	
6341	0	30488	
6342	0	30484	
6343	0	30672	
6344	0	30772	
6345	0	30772	
6346	0	30628	
6347	0	30560	
6348	0	30680	
6349	0	30872	
6350	0	30930	
6351	0	30810	
6352	0	30712	
6353	0	30796	
6354	0	30932	
6355	0	31008	
6356	0	30904	
6357	0	30844	
6358	0	30968	
6359	0	31048	
6360	0	31180	
6361	0	31156	
6362	0	31044	
6363	0	31056	
6364	0	31208	
6365	0	31336	
6366	0	31400	
6367	0	31320	
6368	0	31280	
6369	0	31268	
6370	0	31368	
6371	0	31568	
6372	0	31664	
6373	0	31728	
6374	0	31820	
6375	0	31936	
6376	0	31994	
6377	0	31996	
6378	0	31992	
6379	0	31956	
6380	0	31944	
6381	0	31908	
6382	0	31918	
6383	0	32016	
6384	0	32056	
6385	0	32164	
6386	0	32286	
6387	0	32300	
6388	0	32320	
6389	0	32344	
6390	0	32380	
6391	0	32328	
6392	0	32380	
6393	0	32384	
6394	0	32420	
6395	0	32468	
6396	0	32480	
6397	0	32440	
6398	0	32486	
6399	0	32492	
6400	0	32568	
6401	0	32680	
6402	0	32882	
6403	0	32948	
6404	0	32972	
6405	0	33072	
6406	0	33092	
6407	0	33032	
6408	0	33068	
6409	0	33200	
6410	0	33196	
6411	0	33224	
6412	0	33318	
6413	0	33488	
6414	0	33404	
6415	0	33364	
6416	0	33426	
6417	0	33452	
6418	0	33520	
6419	0	33556	
6420	0	33600	
6421	0	33776	
6422	0	33896	
6423	0	33984	
6424	0	33980	
6425	0	33892	
6426	0	33946	
6427	0	34040	
6428	0	34232	
6429	0	34178	
6430	0	34106	
6431	0	34060	
6432	0	34152	
6433	0	34268	
6434	0	34300	
6435	0	34232	
6436	0	34240	
6437	0	34260	
6438	0	34336	
6439	0	34456	
6440	0	34536	
6441	0	34508	
6442	0	34368	
6443	0	34440	
6444	0	34640	
6445	0	34792	
6446	0	34882	
6447	0	34984	
6448	0	34996	
6449	0	34908	
6450	0	34866	
6451	0	34892	
6452	0	35052	
6453	0	35290	
6454	0	35320	
6455	0	35324	
6456	0	35536	
6457	0	35600	
6458	0	35616	
6459	0	35664	
6460	0	35764	
6461	0	35664	
6462	0	35772	
6463	0	35968	
6464	0	36000	
6465	0	36004	
6466	0	36116	
6467	0	36176	
6468	0	36168	
6469	0	36232	
6470	0	36416	
6471	0	36570	
6472	0	36544	
6473	0	36612	
6474	0	36640	
6475	0	36652	
6476	0	36652	
6477	0	36464	
6478	0	36468	
6479	0	36724	
6480	0	36904	
6481	0	36980	
6482	0	37172	
6483	0	37184	
6484	0	37128	
6485	0	37000	
6486	0	37072	
6487	0	37176	
6488	0	37204	
6489	0	37312	
6490	0	37492	
6491	0	37504	
6492	0	37496	
6493	0	37628	
6494	0	37704	
6495	0	37776	
6496	0	37856	
6497	0	37816	
6498	0	37824	
6499	0	37880	
6500	0	37928	
6501	0	37980	
6502	0	38052	
6503	0	38116	
6504	0	38188	
6505	0	38146	
6506	0	38064	
6507	0	38016	
6508	0	37992	
6509	0	38020	
6510	0	38024	
6511	0	37976	
6512	0	37780	
6513	0	37628	
6514	0	37484	
6515	0	37324	
6516	0	37096	
6517	0	36920	
6518	0	36732	
6519	0	36632	
6520	0	36496	
6521	0	36120	
6522	0	35800	
6523	0	35564	
6524	0	35292	
6525	0	34988	
6526	0	34832	
6527	0	34856	
6528	0	34784	
6529	0	34656	
6530	0	34528	
6531	0	34360	
6532	0	34104	
6533	0	33818	
6534	0	33708	
6535	0	33616	
6536	0	33480	
6537	0	33332	
6538	0	33144	
6539	0	32924	
6540	0	32764	
6541	0	32672	
6542	0	32564	
6543	0	32406	
6544	0	32140	
6545	0	31898	
6546	0	31676	
6547	0	31480	
6548	0	31200	
6549	0	30964	
6550	0	30854	
6551	0	30816	
6552	0	30754	
6553	0	30776	
6554	0	30676	
6555	0	30472	
6556	0	30104	
6557	0	30028	
6558	0	30196	
6559	0	30172	
6560	0	30012	
6561	0	30004	
6562	0	30072	
6563	0	30028	
6564	0	29892	
6565	0	29828	
6566	0	29784	
6567	0	29604	
6568	0	29540	
6569	0	29616	
6570	0	29524	
6571	0	29412	
6572	0	29488	
6573	0	29400	
6574	0	29420	
6575	0	29528	
6576	0	29532	
6577	0	29584	
6578	0	29632	
6579	0	29600	
6580	0	29604	
6581	0	29680	
6582	0	29692	
6583	0	29780	
6584	0	29728	
6585	0	29632	
6586	0	29560	
6587	0	29496	
6588	0	29456	
6589	0	29504	
6590	0	29644	
6591	0	29696	
6592	0	29620	
6593	0	29468	
6594	0	29368	
6595	0	29484	
6596	0	29584	
6597	0	29540	
6598	0	29480	
6599	0	29492	
6600	0	29556	
6601	0	29640	
6602	0	29696	
6603	0	29856	
6604	0	29796	
6605	0	29708	
6606	0	29812	
6607	0	29848	
6608	0	29784	
6609	0	29624	
6610	0	29588	
6611	0	29600	
6612	0	29512	
6613	0	29616	
6614	0	29692	
6615	0	29588	
6616	0	29620	
6617	0	29708	
6618	0	29680	
6619	0	29676	
6620	0	29844	
6621	0	30038	
6622	0	30020	
6623	0	29980	
6624	0	29920	
6625	0	29908	
6626	0	29900	
6627	0	29892	
6628	0	29880	
6629	0	29970	
6630	0	30060	
6631	0	30140	
6632	0	30164	
6633	0	30122	
6634	0	30132	
6635	0	30200	
6636	0	30296	
6637	0	30322	
6638	0	30290	
6639	0	30288	
6640	0	30268	
6641	0	30180	
6642	0	30228	
6643	0	30276	
6644	0	30272	
6645	0	30424	
6646	0	30520	
6647	0	30432	
6648	0	30272	
6649	0	30344	
6650	0	30344	
6651	0	30308	
6652	0	30356	
6653	0	30424	
6654	0	30484	
6655	0	30592	
6656	0	30556	
6657	0	30560	
6658	0	30596	
6659	0	30592	
6660	0	30656	
6661	0	30680	
6662	0	30708	
6663	0	30796	
6664	0	30792	
6665	0	30728	
6666	0	30696	
6667	0	30676	
6668	0	30704	
6669	0	30728	
6670	0	30640	
6671	0	30676	
6672	0	30800	
6673	0	30812	
6674	0	30826	
6675	0	30816	
6676	0	30888	
6677	0	30912	
6678	0	30972	
6679	0	30982	
6680	0	30884	
6681	0	30856	
6682	0	30896	
6683	0	30988	
6684	0	31148	
6685	0	31284	
6686	0	31164	
6687	0	31136	
6688	0	31132	
6689	0	31050	
6690	0	30996	
6691	0	31096	
6692	0	31184	
6693	0	31236	
6694	0	31208	
6695	0	31222	
6696	0	31200	
6697	0	31204	
6698	0	31296	
6699	0	31404	
6700	0	31428	
6701	0	31296	
6702	0	31212	
6703	0	31216	
6704	0	31224	
6705	0	31268	
6706	0	31340	
6707	0	31274	
6708	0	31204	
6709	0	31188	
6710	0	31156	
6711	0	31172	
6712	0	31192	
6713	0	31216	
6714	0	31240	
6715	0	31290	
6716	0	31296	
6717	0	31288	
6718	0	31368	
6719	0	31404	
6720	0	31442	
6721	0	31512	
6722	0	31520	
6723	0	31532	
6724	0	31520	
6725	0	31496	
6726	0	31534	
6727	0	31516	
6728	0	31520	
6729	0	31544	
6730	0	31592	
6731	0	31712	
6732	0	31728	
6733	0	31748	
6734	0	31824	
6735	0	31720	
6736	0	31596	
6737	0	31616	
6738	0	31612	
6739	0	31678	
6740	0	31800	
6741	0	31912	
6742	0	32034	
6743	0	32036	
6744	0	32050	
6745	0	32064	
6746	0	32088	
6747	0	32110	
6748	0	32176	
6749	0	32316	
6750	0	32544	
6751	0	32776	
6752	0	32848	
6753	0	32968	
6754	0	33264	
6755	0	33448	
6756	0	33456	
6757	0	33416	
6758	0	33420	
6759	0	33472	
6760	0	33508	
6761	0	33536	
6762	0	33620	
6763	0	33664	
6764	0	33600	
6765	0	33628	
6766	0	33708	
6767	0	33720	
6768	0	33780	
6769	0	33840	
6770	0	33964	
6771	0	34032	
6772	0	34064	
6773	0	34044	
6774	0	34080	
6775	0	34176	
6776	0	34244	
6777	0	34254	
6778	0	34196	
6779	0	34160	
6780	0	34232	
6781	0	34364	
6782	0	34474	
6783	0	34588	
6784	0	34628	
6785	0	34644	
6786	0	34764	
6787	0	34886	
6788	0	34692	
6789	0	34472	
6790	0	34348	
6791	0	34208	
6792	0	34192	
6793	0	34178	
6794	0	34036	
6795	0	33868	
6796	0	33572	
6797	0	33362	
6798	0	33248	
6799	0	33092	
6800	0	32928	
6801	0	32856	
6802	0	32878	
6803	0	32858	
6804	0	32761	
6805	0	32716	
6806	0	32636	
6807	0	32604	
6808	0	32488	
6809	0	32360	
6810	0	32126	
6811	0	31848	
6812	0	31840	
6813	0	31920	
6814	0	31960	
6815	0	31912	
6816	0	31880	
6817	0	31868	
6818	0	31804	
6819	0	31700	
6820	0	31560	
6821	0	31476	
6822	0	31554	
6823	0	31560	
6824	0	31508	
6825	0	31428	
6826	0	31332	
6827	0	31164	
6828	0	31044	
6829	0	30872	
6830	0	30632	
6831	0	30476	
6832	0	30376	
6833	0	30214	
6834	0	30196	
6835	0	30236	
6836	0	30292	
6837	0	30328	
6838	0	30350	
6839	0	30376	
6840	0	30324	
6841	0	30364	
6842	0	30428	
6843	0	30412	
6844	0	30297	
6845	0	30344	
6846	0	30476	
6847	0	30512	
6848	0	30448	
6849	0	30362	
6850	0	30286	
6851	0	30224	
6852	0	30208	
6853	0	30108	
6854	0	30072	
6855	0	30180	
6856	0	30304	
6857	0	30370	
6858	0	30436	
6859	0	30396	
6860	0	30352	
6861	0	30440	
6862	0	30604	
6863	0	30624	
6864	0	30460	
6865	0	30368	
6866	0	30266	
6867	0	30244	
6868	0	30372	
6869	0	30420	
6870	0	30424	
6871	0	30430	
6872	0	30472	
6873	0	30568	
6874	0	30600	
6875	0	30588	
6876	0	30692	
6877	0	30652	
6878	0	30593	
6879	0	30590	
6880	0	30640	
6881	0	30728	
6882	0	30776	
6883	0	30780	
6884	0	30692	
6885	0	30668	
6886	0	30744	
6887	0	30746	
6888	0	30780	
6889	0	30860	
6890	0	30906	
6891	0	30892	
6892	0	30888	
6893	0	30908	
6894	0	30934	
6895	0	30940	
6896	0	30924	
6897	0	31020	
6898	0	31120	
6899	0	31136	
6900	0	31136	
6901	0	31214	
6902	0	31230	
6903	0	31156	
6904	0	30988	
6905	0	30946	
6906	0	30760	
6907	0	30520	
6908	0	30466	
6909	0	30432	
6910	0	30460	
6911	0	30588	
6912	0	30752	
6913	0	30968	
6914	0	31360	
6915	0	31872	
6916	0	32474	
6917	0	33124	
6918	0	34008	
6919	0	35056	
6920	0	36128	
6921	0	37288	
6922	0	38656	
6923	0	40256	
6924	0	41720	
6925	0	43072	
6926	0	44520	
6927	0	45912	
6928	0	47396	
6929	0	48888	
6930	0	50302	
6931	0	51664	
6932	0	53032	
6933	0	54332	
6934	0	55696	
6935	0	56956	
6936	0	57956	
6937	0	58848	
6938	0	59504	
6939	0	59968	
6940	0	59932	
6941	0	58712	
6942	0	56648	
6943	0	53912	
6944	0	50576	
6945	0	47100	
6946	0	43548	
6947	0	39676	
6948	0	35536	
6949	0	31604	
6950	0	28528	
6951	0	26554	
6952	0	25384	
6953	0	24804	
6954	0	24576	
6955	0	24570	
6956	0	24788	
6957	0	25120	
6958	0	25526	
6959	0	25988	
6960	0	26524	
6961	0	27060	
6962	0	27500	
6963	0	27892	
6964	0	28364	
6965	0	28960	
6966	0	29496	
6967	0	29812	
6968	0	30040	
6969	0	30176	
6970	0	30176	
6971	0	30196	
6972	0	30200	
6973	0	30188	
6974	0	30216	
6975	0	30128	
6976	0	30048	
6977	0	30064	
6978	0	30124	
6979	0	30072	
6980	0	30052	
6981	0	30072	
6982	0	30108	
6983	0	30188	
6984	0	30124	
6985	0	30008	
6986	0	29882	
6987	0	29888	
6988	0	29884	
6989	0	29932	
6990	0	30052	
6991	0	30012	
6992	0	29944	
6993	0	29952	
6994	0	29920	
6995	0	29936	
6996	0	29912	
6997	0	29920	
6998	0	29984	
6999	0	30080	
7000	0	30176	
7001	0	30224	
7002	0	30248	
7003	0	30266	
7004	0	30304	
7005	0	30328	
7006	0	30302	
7007	0	30304	
7008	0	30272	
7009	0	30286	
7010	0	30388	
7011	0	30404	
7012	0	30352	
7013	0	30360	
7014	0	30256	
7015	0	30372	
7016	0	30476	
7017	0	30472	
7018	0	30548	
7019	0	30604	
7020	0	30600	
7021	0	30692	
7022	0	30828	
7023	0	30792	
7024	0	30708	
7025	0	30616	
7026	0	30668	
7027	0	30756	
7028	0	30792	
7029	0	30848	
7030	0	30930	
7031	0	31000	
7032	0	31052	
7033	0	31052	
7034	0	31044	
7035	0	31040	
7036	0	31144	
7037	0	31238	
7038	0	31176	
7039	0	31128	
7040	0	31168	
7041	0	31188	
7042	0	31232	
7043	0	31348	
7044	0	31512	
7045	0	31570	
7046	0	31548	
7047	0	31528	
7048	0	31608	
7049	0	31560	
7050	0	31640	
7051	0	31800	
7052	0	31906	
7053	0	31932	
7054	0	31896	
7055	0	31866	
7056	0	31928	
7057	0	31992	
7058	0	32128	
7059	0	32212	
7060	0	32184	
7061	0	32188	
7062	0	32308	
7063	0	32420	
7064	0	32444	
7065	0	32414	
7066	0	32420	
7067	0	32462	
7068	0	32492	
7069	0	32548	
7070	0	32548	
7071	0	32552	
7072	0	32716	
7073	0	32748	
7074	0	32656	
7075	0	32580	
7076	0	32570	
7077	0	32524	
7078	0	32532	
7079	0	32540	
7080	0	32568	
7081	0	32600	
7082	0	32628	
7083	0	32844	
7084	0	33004	
7085	0	32904	
7086	0	32764	
7087	0	32752	
7088	0	32744	
7089	0	32732	
7090	0	32700	
7091	0	32752	
7092	0	32864	
7093	0	32936	
7094	0	32952	
7095	0	32936	
7096	0	32948	
7097	0	32944	
7098	0	32944	
7099	0	33004	
7100	0	33068	
7101	0	33108	
7102	0	33092	
7103	0	33150	
7104	0	33136	
7105	0	33020	
7106	0	32960	
7107	0	33018	
7108	0	33132	
7109	0	33132	
7110	0	33120	
7111	0	33216	
7112	0	33288	
7113	0	33180	
7114	0	33096	
7115	0	33164	
7116	0	33300	
7117	0	33412	
7118	0	33456	
7119	0	33488	
7120	0	33554	
7121	0	33648	
7122	0	33728	
7123	0	33792	
7124	0	33824	
7125	0	33824	
7126	0	33876	
7127	0	33888	
7128	0	33904	
7129	0	34052	
7130	0	34240	
7131	0	34414	
7132	0	34556	
7133	0	34572	
7134	0	34584	
7135	0	34656	
7136	0	34712	
7137	0	34864	
7138	0	34956	
7139	0	35009	
7140	0	35124	
7141	0	35292	
7142	0	35432	
7143	0	35520	
7144	0	35604	
7145	0	35712	
7146	0	35768	
7147	0	35816	
7148	0	35834	
7149	0	35852	
7150	0	35848	
7151	0	35842	
7152	0	35884	
7153	0	35992	
7154	0	36104	
7155	0	36248	
7156	0	36388	
7157	0	36464	
7158	0	36520	
7159	0	36636	
7160	0	36720	
7161	0	36848	
7162	0	36848	
7163	0	36964	
7164	0	37088	
7165	0	37140	
7166	0	37156	
7167	0	37236	
7168	0	37312	
7169	0	37460	
7170	0	37512	
7171	0	37556	
7172	0	37584	
7173	0	37580	
7174	0	37492	
7175	0	37472	
7176	0	37528	
7177	0	37588	
7178	0	37638	
7179	0	37712	
7180	0	37724	
7181	0	37800	
7182	0	37836	
7183	0	37836	
7184	0	37800	
7185	0	37784	
7186	0	37716	
7187	0	37618	
7188	0	37528	
7189	0	37424	
7190	0	37312	
7191	0	37244	
7192	0	37228	
7193	0	37072	
7194	0	36872	
7195	0	36732	
7196	0	36624	
7197	0	36516	
7198	0	36400	
7199	0	36272	
7200	0	36116	
7201	0	35980	
7202	0	35856	
7203	0	35652	
7204	0	35504	
7205	0	35440	
7206	0	35316	
7207	0	35076	
7208	0	34844	
7209	0	34496	
7210	0	34148	
7211	0	34032	
7212	0	33928	
7213	0	33712	
7214	0	33576	
7215	0	33484	
7216	0	33306	
7217	0	33056	
7218	0	32824	
7219	0	32588	
7220	0	32324	
7221	0	32196	
7222	0	32142	
7223	0	32092	
7224	0	31920	
7225	0	31768	
7226	0	31612	
7227	0	31426	
7228	0	31268	
7229	0	31140	
7230	0	31024	
7231	0	30824	
7232	0	30616	
7233	0	30490	
7234	0	30410	
7235	0	30280	
7236	0	30120	
7237	0	30144	
7238	0	30232	
7239	0	30272	
7240	0	30120	
7241	0	29940	
7242	0	29856	
7243	0	29780	
7244	0	29804	
7245	0	29840	
7246	0	29804	
7247	0	29712	
7248	0	29664	
7249	0	29620	
7250	0	29684	
7251	0	29690	
7252	0	29652	
7253	0	29656	
7254	0	29656	
7255	0	29680	
7256	0	29674	
7257	0	29728	
7258	0	29784	
7259	0	29812	
7260	0	29648	
7261	0	29472	
7262	0	29504	
7263	0	29668	
7264	0	29824	
7265	0	29868	
7266	0	29824	
7267	0	29788	
7268	0	29832	
7269	0	29836	
7270	0	29788	
7271	0	29764	
7272	0	29788	
7273	0	29840	
7274	0	29836	
7275	0	29844	
7276	0	29872	
7277	0	29968	
7278	0	30088	
7279	0	30196	
7280	0	30180	
7281	0	30104	
7282	0	30096	
7283	0	30104	
7284	0	30208	
7285	0	30304	
7286	0	30280	
7287	0	30296	
7288	0	30286	
7289	0	30268	
7290	0	30236	
7291	0	30212	
7292	0	30248	
7293	0	30316	
7294	0	30348	
7295	0	30360	
7296	0	30398	
7297	0	30376	
7298	0	30344	
7299	0	30360	
7300	0	30452	
7301	0	30558	
7302	0	30580	
7303	0	30520	
7304	0	30516	
7305	0	30492	
7306	0	30512	
7307	0	30548	
7308	0	30644	
7309	0	30716	
7310	0	30708	
7311	0	30688	
7312	0	30696	
7313	0	30726	
7314	0	30762	
7315	0	30808	
7316	0	30856	
7317	0	30880	
7318	0	30890	
7319	0	30896	
7320	0	30922	
7321	0	30952	
7322	0	30940	
7323	0	30948	
7324	0	30968	
7325	0	30988	
7326	0	31024	
7327	0	30978	
7328	0	30954	
7329	0	31012	
7330	0	31048	
7331	0	31050	
7332	0	31052	
7333	0	30996	
7334	0	31036	
7335	0	31104	
7336	0	31124	
7337	0	31188	
7338	0	31248	
7339	0	31212	
7340	0	31176	
7341	0	31228	
7342	0	31332	
7343	0	31440	
7344	0	31532	
7345	0	31580	
7346	0	31600	
7347	0	31628	
7348	0	31660	
7349	0	31604	
7350	0	31540	
7351	0	31508	
7352	0	31488	
7353	0	31520	
7354	0	31524	
7355	0	31544	
7356	0	31606	
7357	0	31688	
7358	0	31744	
7359	0	31764	
7360	0	31744	
7361	0	31696	
7362	0	31732	
7363	0	31854	
7364	0	31944	
7365	0	31976	
7366	0	31968	
7367	0	32008	
7368	0	32080	
7369	0	32072	
7370	0	31996	
7371	0	31908	
7372	0	31868	
7373	0	31844	
7374	0	31852	
7375	0	31844	
7376	0	31814	
7377	0	31828	
7378	0	31872	
7379	0	31876	
7380	0	31920	
7381	0	32008	
7382	0	32038	
7383	0	32008	
7384	0	31984	
7385	0	32076	
7386	0	32176	
7387	0	32196	
7388	0	32168	
7389	0	32160	
7390	0	32196	
7391	0	32204	
7392	0	32240	
7393	0	32192	
7394	0	32160	
7395	0	32218	
7396	0	32316	
7397	0	32256	
7398	0	32132	
7399	0	32096	
7400	0	32164	
7401	0	32336	
7402	0	32412	
7403	0	32332	
7404	0	32284	
7405	0	32332	
7406	0	32362	
7407	0	32382	
7408	0	32280	
7409	0	32160	
7410	0	32072	
7411	0	32080	
7412	0	32128	
7413	0	32176	
7414	0	32168	
7415	0	32172	
7416	0	32200	
7417	0	32232	
7418	0	32236	
7419	0	32212	
7420	0	32202	
7421	0	32276	
7422	0	32316	
7423	0	32312	
7424	0	32364	
7425	0	32378	
7426	0	32308	
7427	0	32282	
7428	0	32290	
7429	0	32248	
7430	0	32236	
7431	0	32328	
7432	0	32410	
7433	0	32352	
7434	0	32196	
7435	0	32200	
7436	0	32282	
7437	0	32294	
7438	0	32272	
7439	0	32272	
7440	0	32290	
7441	0	32376	
7442	0	32448	
7443	0	32432	
7444	0	32376	
7445	0	32340	
7446	0	32316	
7447	0	32256	
7448	0	32168	
7449	0	32160	
7450	0	32204	
7451	0	32204	
7452	0	32256	
7453	0	32296	
7454	0	32288	
7455	0	32224	
7456	0	32224	
7457	0	32288	
7458	0	32336	
7459	0	32320	
7460	0	32320	
7461	0	32372	
7462	0	32380	
7463	0	32364	
7464	0	32388	
7465	0	32416	
7466	0	32426	
7467	0	32352	
7468	0	32396	
7469	0	32388	
7470	0	32324	
7471	0	32320	
7472	0	32368	
7473	0	32400	
7474	0	32450	
7475	0	32512	
7476	0	32560	
7477	0	32520	
7478	0	32604	
7479	0	32720	
7480	0	32832	
7481	0	32946	
7482	0	33044	
7483	0	33152	
7484	0	33258	
7485	0	33456	
7486	0	33818	
7487	0	34032	
7488	0	34100	
7489	0	34164	
7490	0	34292	
7491	0	34476	
7492	0	34588	
7493	0	34616	
7494	0	34536	
7495	0	34480	
7496	0	34468	
7497	0	34554	
7498	0	34692	
7499	0	34816	
7500	0	34880	
7501	0	34912	
7502	0	34952	
7503	0	35016	
7504	0	35084	
7505	0	35116	
7506	0	35100	
7507	0	35144	
7508	0	35274	
7509	0	35376	
7510	0	35264	
7511	0	35116	
7512	0	35084	
7513	0	35144	
7514	0	35168	
7515	0	35128	
7516	0	35088	
7517	0	35076	
7518	0	35092	
7519	0	35088	
7520	0	35108	
7521	0	35192	
7522	0	35392	
7523	0	35584	
7524	0	35642	
7525	0	35640	
7526	0	35648	
7527	0	35532	
7528	0	35400	
7529	0	35312	
7530	0	35164	
7531	0	34964	
7532	0	34748	
7533	0	34576	
7534	0	34388	
7535	0	34220	
7536	0	34084	
7537	0	33984	
7538	0	33892	
7539	0	33808	
7540	0	33716	
7541	0	33600	
7542	0	33456	
7543	0	33296	
7544	0	33320	
7545	0	33312	
7546	0	33296	
7547	0	33300	
7548	0	33296	
7549	0	33244	
7550	0	33196	
7551	0	33184	
7552	0	33104	
7553	0	32988	
7554	0	32944	
7555	0	32860	
7556	0	32768	
7557	0	32704	
7558	0	32648	
7559	0	32540	
7560	0	32448	
7561	0	32424	
7562	0	32402	
7563	0	32392	
7564	0	32298	
7565	0	32208	
7566	0	32124	
7567	0	32024	
7568	0	31905	
7569	0	31824	
7570	0	31706	
7571	0	31596	
7572	0	31532	
7573	0	31524	
7574	0	31540	
7575	0	31520	
7576	0	31512	
7577	0	31552	
7578	0	31548	
7579	0	31468	
7580	0	31436	
7581	0	31528	
7582	0	31560	
7583	0	31510	
7584	0	31552	
7585	0	31600	
7586	0	31576	
7587	0	31540	
7588	0	31612	
7589	0	31616	
7590	0	31600	
7591	0	31640	
7592	0	31772	
7593	0	31908	
7594	0	31904	
7595	0	31768	
7596	0	31668	
7597	0	31696	
7598	0	31728	
7599	0	31772	
7600	0	31808	
7601	0	31796	
7602	0	31808	
7603	0	31868	
7604	0	31874	
7605	0	31876	
7606	0	31844	
7607	0	31800	
7608	0	31784	
7609	0	31808	
7610	0	31856	
7611	0	31864	
7612	0	31864	
7613	0	31932	
7614	0	31888	
7615	0	31788	
7616	0	31776	
7617	0	31832	
7618	0	31904	
7619	0	32014	
7620	0	32096	
7621	0	32124	
7622	0	32144	
7623	0	32144	
7624	0	32228	
7625	0	32332	
7626	0	32380	
7627	0	32488	
7628	0	32506	
7629	0	32468	
7630	0	32416	
7631	0	32362	
7632	0	32304	
7633	0	32292	
7634	0	32384	
7635	0	32376	
7636	0	32180	
7637	0	32068	
7638	0	31996	
7639	0	31952	
7640	0	31860	
7641	0	31736	
7642	0	31632	
7643	0	31612	
7644	0	31672	
7645	0	31740	
7646	0	31917	
7647	0	32156	
7648	0	32500	
7649	0	32970	
7650	0	33572	
7651	0	34296	
7652	0	34992	
7653	0	35800	
7654	0	36684	
7655	0	37756	
7656	0	39156	
7657	0	40604	
7658	0	41914	
7659	0	43158	
7660	0	44456	
7661	0	45816	
7662	0	47304	
7663	0	48840	
7664	0	50320	
7665	0	51660	
7666	0	52916	
7667	0	54124	
7668	0	55264	
7669	0	56248	
7670	0	57024	
7671	0	57672	
7672	0	58148	
7673	0	58424	
7674	0	57980	
7675	0	56444	
7676	0	54168	
7677	0	51392	
7678	0	48288	
7679	0	45172	
7680	0	41872	
7681	0	38260	
7682	0	34536	
7683	0	31372	
7684	0	29002	
7685	0	27458	
7686	0	26524	
7687	0	26024	
7688	0	25912	
7689	0	26032	
7690	0	26292	
7691	0	26682	
7692	0	27236	
7693	0	27892	
7694	0	28512	
7695	0	29052	
7696	0	29472	
7697	0	29916	
7698	0	30344	
7699	0	30680	
7700	0	31008	
7701	0	31228	
7702	0	31284	
7703	0	31320	
7704	0	31308	
7705	0	31304	
7706	0	31272	
7707	0	31248	
7708	0	31190	
7709	0	31028	
7710	0	30880	
7711	0	30740	
7712	0	30682	
7713	0	30584	
7714	0	30508	
7715	0	30522	
7716	0	30640	
7717	0	30720	
7718	0	30637	
7719	0	30536	
7720	0	30528	
7721	0	30588	
7722	0	30680	
7723	0	30688	
7724	0	30714	
7725	0	30732	
7726	0	30728	
7727	0	30732	
7728	0	30688	
7729	0	30656	
7730	0	30632	
7731	0	30624	
7732	0	30664	
7733	0	30688	
7734	0	30740	
7735	0	30740	
7736	0	30600	
7737	0	30584	
7738	0	30668	
7739	0	30770	
7740	0	30884	
7741	0	31016	
7742	0	31024	
7743	0	31024	
7744	0	31008	
7745	0	31016	
7746	0	31032	
7747	0	31012	
7748	0	31056	
7749	0	31012	
7750	0	31104	
7751	0	31198	
7752	0	31176	
7753	0	31172	
7754	0	31164	
7755	0	31052	
7756	0	31048	
7757	0	31112	
7758	0	31148	
7759	0	31100	
7760	0	31116	
7761	0	31220	
7762	0	31316	
7763	0	31394	
7764	0	31404	
7765	0	31500	
7766	0	31584	
7767	0	31586	
7768	0	31524	
7769	0	31472	
7770	0	31464	
7771	0	31416	
7772	0	31422	
7773	0	31432	
7774	0	31464	
7775	0	31528	
7776	0	31632	
7777	0	31676	
7778	0	31752	
7779	0	31802	
7780	0	31888	
7781	0	31882	
7782	0	31888	
7783	0	31936	
7784	0	32040	
7785	0	32098	
7786	0	32088	
7787	0	32108	
7788	0	32138	
7789	0	32126	
7790	0	32092	
7791	0	32072	
7792	0	32072	
7793	0	32108	
7794	0	32200	
7795	0	32172	
7796	0	32156	
7797	0	32184	
7798	0	32244	
7799	0	32368	
7800	0	32408	
7801	0	32448	
7802	0	32456	
7803	0	32500	
7804	0	32508	
7805	0	32544	
7806	0	32538	
7807	0	32512	
7808	0	32570	
7809	0	32652	
7810	0	32640	
7811	0	32620	
7812	0	32626	
7813	0	32692	
7814	0	32768	
7815	0	32784	
7816	0	32760	
7817	0	32872	
7818	0	32956	
7819	0	32864	
7820	0	32800	
7821	0	32844	
7822	0	32936	
7823	0	32980	
7824	0	33004	
7825	0	33056	
7826	0	33112	
7827	0	33188	
7828	0	33248	
7829	0	33160	
7830	0	33076	
7831	0	33000	
7832	0	33052	
7833	0	33144	
7834	0	33220	
7835	0	33396	
7836	0	33520	
7837	0	33448	
7838	0	33396	
7839	0	33456	
7840	0	33516	
7841	0	33580	
7842	0	33616	
7843	0	33688	
7844	0	33812	
7845	0	33760	
7846	0	33760	
7847	0	33792	
7848	0	33836	
7849	0	33820	
7850	0	33784	
7851	0	33816	
7852	0	33860	
7853	0	33904	
7854	0	33968	
7855	0	34048	
7856	0	34088	
7857	0	34124	
7858	0	34240	
7859	0	34332	
7860	0	34388	
7861	0	34500	
7862	0	34640	
7863	0	34668	
7864	0	34686	
7865	0	34720	
7866	0	34796	
7867	0	34880	
7868	0	34984	
7869	0	35016	
7870	0	35072	
7871	0	35116	
7872	0	35224	
7873	0	35244	
7874	0	35232	
7875	0	35264	
7876	0	35376	
7877	0	35568	
7878	0	35692	
7879	0	35696	
7880	0	35732	
7881	0	35856	
7882	0	35996	
7883	0	36116	
7884	0	36088	
7885	0	36056	
7886	0	36100	
7887	0	36192	
7888	0	36260	
7889	0	36304	
7890	0	36312	
7891	0	36468	
7892	0	36640	
7893	0	36704	
7894	0	36724	
7895	0	36744	
7896	0	36772	
7897	0	36868	
7898	0	36954	
7899	0	37004	
7900	0	37028	
7901	0	37108	
7902	0	37230	
7903	0	37312	
7904	0	37412	
7905	0	37500	
7906	0	37564	
7907	0	37600	
7908	0	37592	
7909	0	37536	
7910	0	37556	
7911	0	37588	
7912	0	37568	
7913	0	37568	
7914	0	37556	
7915	0	37532	
7916	0	37552	
7917	0	37612	
7918	0	37736	
7919	0	37776	
7920	0	37776	
7921	0	37696	
7922	0	37652	
7923	0	37624	
7924	0	37544	
7925	0	37452	
7926	0	37372	
7927	0	37292	
7928	0	37196	
7929	0	37032	
7930	0	36944	
7931	0	36880	
7932	0	36692	
7933	0	36456	
7934	0	36216	
7935	0	36080	
7936	0	36050	
7937	0	35904	
7938	0	35660	
7939	0	35454	
7940	0	35256	
7941	0	35072	
7942	0	34964	
7943	0	34872	
7944	0	34756	
7945	0	34560	
7946	0	34236	
7947	0	34056	
7948	0	33944	
7949	0	33752	
7950	0	33544	
7951	0	33276	
7952	0	33036	
7953	0	32816	
7954	0	32632	
7955	0	32448	
7956	0	32332	
7957	0	32208	
7958	0	32096	
7959	0	31904	
7960	0	31760	
7961	0	31592	
7962	0	31564	
7963	0	31538	
7964	0	31424	
7965	0	31232	
7966	0	31084	
7967	0	30962	
7968	0	30844	
7969	0	30760	
7970	0	30656	
7971	0	30572	
7972	0	30384	
7973	0	30256	
7974	0	30184	
7975	0	30136	
7976	0	30104	
7977	0	30156	
7978	0	30040	
7979	0	29904	
7980	0	29900	
7981	0	29946	
7982	0	29948	
7983	0	29934	
7984	0	29868	
7985	0	29784	
7986	0	29712	
7987	0	29644	
7988	0	29534	
7989	0	29492	
7990	0	29576	
7991	0	29680	
7992	0	29728	
7993	0	29652	
7994	0	29576	
7995	0	29556	
7996	0	29560	
7997	0	29548	
7998	0	29532	
7999	0	29496	
8000	0	29520	
8001	0	29668	
8002	0	29688	
8003	0	29608	
8004	0	29628	
8005	0	29664	
8006	0	29696	
8007	0	29668	
8008	0	29634	
8009	0	29600	
8010	0	29576	
8011	0	29608	
8012	0	29656	
8013	0	29716	
8014	0	29744	
8015	0	29760	
8016	0	29792	
8017	0	29750	
8018	0	29830	
8019	0	29920	
