# OpenSignals Text File Format. Version 1
# {"00:07:80:4B:15:F7": {"position": 0, "device": "biosignalsplux", "device name": "00:07:80:4B:15:F7", "device connection": "BTH00:07:80:4B:15:F7", "sampling rate": 1000, "resolution": [16], "firmware version": 775, "comments": "", "keywords": "", "mode": 0, "sync interval": 2, "date": "2023-3-2", "time": "16:55:15.145", "channels": [1], "sensor": ["ECG"], "label": ["CH1"], "column": ["nSeq", "DI", "CH1"], "special": [{"SpO2": [80, 40, 5, 4, 3, 3]}, {"SpO2": [80, 40, 5, 4, 3, 3]}, {"SpO2": [80, 40, 5, 4, 3, 3]}, {"SpO2": [80, 40, 5, 4, 3, 3]}, {"SpO2": [80, 40, 5, 4, 3, 3]}, {"SpO2": [80, 40, 5, 4, 3, 3]}, {"SpO2": [80, 40, 5, 4, 3, 3]}, {"SpO2": [80, 40, 5, 4, 3, 3]}], "digital IO": [0, 1], "sleeve color": [""], "convertedValues": 0}}
# EndOfHeader
0	0	31104	
1	0	31098	
2	0	31120	
3	0	31172	
4	0	31116	
5	0	31008	
6	0	30992	
7	0	30986	
8	0	31008	
9	0	31048	
10	0	31092	
11	0	31084	
12	0	31064	
13	0	31080	
14	0	31076	
15	0	31200	
16	0	31296	
17	0	31322	
18	0	31328	
19	0	31314	
20	0	31292	
21	0	31296	
22	0	31324	
23	0	31332	
24	0	31328	
25	0	31344	
26	0	31408	
27	0	31464	
28	0	31452	
29	0	31456	
30	0	31432	
31	0	31484	
32	0	31524	
33	0	31540	
34	0	31588	
35	0	31614	
36	0	31620	
37	0	31604	
38	0	31608	
39	0	31576	
40	0	31548	
41	0	31572	
42	0	31572	
43	0	31500	
44	0	31428	
45	0	31442	
46	0	31568	
47	0	31564	
48	0	31460	
49	0	31418	
50	0	31408	
51	0	31432	
52	0	31512	
53	0	31568	
54	0	31508	
55	0	31464	
56	0	31504	
57	0	31552	
58	0	31572	
59	0	31574	
60	0	31610	
61	0	31692	
62	0	31776	
63	0	31756	
64	0	31714	
65	0	31696	
66	0	31704	
67	0	31748	
68	0	31750	
69	0	31736	
70	0	31704	
71	0	31722	
72	0	31800	
73	0	31904	
74	0	32008	
75	0	32176	
76	0	32320	
77	0	32492	
78	0	32656	
79	0	32868	
80	0	33056	
81	0	33224	
82	0	33368	
83	0	33588	
84	0	33724	
85	0	33532	
86	0	33348	
87	0	33436	
88	0	33576	
89	0	33676	
90	0	33640	
91	0	33576	
92	0	33728	
93	0	33860	
94	0	33912	
95	0	34016	
96	0	34156	
97	0	34310	
98	0	34408	
99	0	34544	
100	0	34692	
101	0	34856	
102	0	34980	
103	0	35076	
104	0	35136	
105	0	35120	
106	0	35104	
107	0	35058	
108	0	34968	
109	0	34924	
110	0	34956	
111	0	35020	
112	0	35218	
113	0	35432	
114	0	35524	
115	0	35508	
116	0	35428	
117	0	35172	
118	0	34876	
119	0	34712	
120	0	34520	
121	0	34364	
122	0	34192	
123	0	33988	
124	0	33804	
125	0	33584	
126	0	33444	
127	0	33372	
128	0	33248	
129	0	33106	
130	0	33024	
131	0	33028	
132	0	32984	
133	0	32900	
134	0	32880	
135	0	32828	
136	0	32760	
137	0	32706	
138	0	32644	
139	0	32584	
140	0	32520	
141	0	32456	
142	0	32368	
143	0	32364	
144	0	32376	
145	0	32248	
146	0	32112	
147	0	32024	
148	0	31952	
149	0	31832	
150	0	31660	
151	0	31484	
152	0	31364	
153	0	31304	
154	0	31264	
155	0	31216	
156	0	31170	
157	0	31048	
158	0	31008	
159	0	31042	
160	0	31076	
161	0	31108	
162	0	31144	
163	0	31060	
164	0	30936	
165	0	30844	
166	0	30772	
167	0	30792	
168	0	30860	
169	0	30948	
170	0	31116	
171	0	31308	
172	0	31336	
173	0	31418	
174	0	31520	
175	0	31532	
176	0	31348	
177	0	31176	
178	0	31056	
179	0	30932	
180	0	30936	
181	0	31044	
182	0	31148	
183	0	31192	
184	0	31104	
185	0	30968	
186	0	30988	
187	0	30976	
188	0	30964	
189	0	31056	
190	0	31232	
191	0	31316	
192	0	31352	
193	0	31368	
194	0	31432	
195	0	31504	
196	0	31492	
197	0	31472	
198	0	31380	
199	0	31080	
200	0	30993	
201	0	31148	
202	0	31290	
203	0	31332	
204	0	31268	
205	0	31212	
206	0	31178	
207	0	31176	
208	0	31264	
209	0	31368	
210	0	31364	
211	0	31296	
212	0	31312	
213	0	31332	
214	0	31368	
215	0	31442	
216	0	31532	
217	0	31580	
218	0	31560	
219	0	31604	
220	0	31636	
221	0	31604	
222	0	31608	
223	0	31614	
224	0	31612	
225	0	31618	
226	0	31656	
227	0	31628	
228	0	31592	
229	0	31528	
230	0	31420	
231	0	31304	
232	0	31144	
233	0	30980	
234	0	30768	
235	0	30592	
236	0	30580	
237	0	30666	
238	0	30816	
239	0	31036	
240	0	31408	
241	0	31968	
242	0	32596	
243	0	33244	
244	0	34082	
245	0	35180	
246	0	36424	
247	0	37740	
248	0	39280	
249	0	40856	
250	0	42312	
251	0	43764	
252	0	45272	
253	0	46784	
254	0	48284	
255	0	49728	
256	0	51048	
257	0	52288	
258	0	53480	
259	0	54604	
260	0	55760	
261	0	56920	
262	0	57976	
263	0	58860	
264	0	59384	
265	0	59548	
266	0	58800	
267	0	57108	
268	0	54688	
269	0	51576	
270	0	48144	
271	0	44724	
272	0	41084	
273	0	37192	
274	0	33248	
275	0	29800	
276	0	27272	
277	0	25772	
278	0	25008	
279	0	24760	
280	0	24840	
281	0	25090	
282	0	25300	
283	0	25492	
284	0	25828	
285	0	26260	
286	0	26712	
287	0	27176	
288	0	27660	
289	0	28146	
290	0	28528	
291	0	28948	
292	0	29440	
293	0	29900	
294	0	30320	
295	0	30536	
296	0	30616	
297	0	30632	
298	0	30652	
299	0	30688	
300	0	30672	
301	0	30648	
302	0	30608	
303	0	30588	
304	0	30536	
305	0	30488	
306	0	30428	
307	0	30304	
308	0	30292	
309	0	30346	
310	0	30324	
311	0	30342	
312	0	30292	
313	0	30274	
314	0	30292	
315	0	30304	
316	0	30278	
317	0	30298	
318	0	30240	
319	0	30264	
320	0	30332	
321	0	30384	
322	0	30432	
323	0	30442	
324	0	30456	
325	0	30512	
326	0	30570	
327	0	30628	
328	0	30706	
329	0	30656	
330	0	30576	
331	0	30548	
332	0	30574	
333	0	30620	
334	0	30644	
335	0	30584	
336	0	30564	
337	0	30626	
338	0	30700	
339	0	30722	
340	0	30692	
341	0	30624	
342	0	30620	
343	0	30676	
344	0	30748	
345	0	30784	
346	0	30832	
347	0	30892	
348	0	30932	
349	0	31000	
350	0	31116	
351	0	31196	
352	0	31176	
353	0	31134	
354	0	31128	
355	0	31108	
356	0	31104	
357	0	31128	
358	0	31164	
359	0	31184	
360	0	31204	
361	0	31288	
362	0	31340	
363	0	31384	
364	0	31416	
365	0	31464	
366	0	31488	
367	0	31484	
368	0	31496	
369	0	31536	
370	0	31572	
371	0	31520	
372	0	31484	
373	0	31480	
374	0	31532	
375	0	31530	
376	0	31590	
377	0	31696	
378	0	31732	
379	0	31758	
380	0	31784	
381	0	31840	
382	0	31892	
383	0	31972	
384	0	32064	
385	0	32128	
386	0	32168	
387	0	32212	
388	0	32248	
389	0	32284	
390	0	32312	
391	0	32354	
392	0	32368	
393	0	32396	
394	0	32400	
395	0	32448	
396	0	32512	
397	0	32556	
398	0	32544	
399	0	32516	
400	0	32576	
401	0	32692	
402	0	32762	
403	0	32784	
404	0	32800	
405	0	32776	
406	0	32782	
407	0	32886	
408	0	33016	
409	0	33072	
410	0	33164	
411	0	33184	
412	0	33096	
413	0	33080	
414	0	33164	
415	0	33268	
416	0	33344	
417	0	33330	
418	0	33376	
419	0	33384	
420	0	33412	
421	0	33490	
422	0	33568	
423	0	33588	
424	0	33552	
425	0	33576	
426	0	33600	
427	0	33594	
428	0	33608	
429	0	33656	
430	0	33690	
431	0	33730	
432	0	33778	
433	0	33856	
434	0	33972	
435	0	33900	
436	0	33836	
437	0	33896	
438	0	33960	
439	0	34040	
440	0	34128	
441	0	34264	
442	0	34336	
443	0	34312	
444	0	34280	
445	0	34336	
446	0	34436	
447	0	34452	
448	0	34544	
449	0	34712	
450	0	34812	
451	0	34864	
452	0	34920	
453	0	34976	
454	0	35004	
455	0	35036	
456	0	35092	
457	0	35124	
458	0	35136	
459	0	35148	
460	0	35200	
461	0	35290	
462	0	35408	
463	0	35482	
464	0	35508	
465	0	35520	
466	0	35584	
467	0	35680	
468	0	35772	
469	0	35898	
470	0	36004	
471	0	36076	
472	0	36150	
473	0	36232	
474	0	36346	
475	0	36452	
476	0	36560	
477	0	36644	
478	0	36716	
479	0	36800	
480	0	36896	
481	0	36976	
482	0	37024	
483	0	37080	
484	0	37176	
485	0	37252	
486	0	37348	
487	0	37508	
488	0	37600	
489	0	37524	
490	0	37452	
491	0	37488	
492	0	37576	
493	0	37664	
494	0	37724	
495	0	37784	
496	0	37832	
497	0	37936	
498	0	38028	
499	0	38044	
500	0	38088	
501	0	38200	
502	0	38288	
503	0	38260	
504	0	38268	
505	0	38372	
506	0	38406	
507	0	38276	
508	0	38188	
509	0	38176	
510	0	38272	
511	0	38412	
512	0	38424	
513	0	38332	
514	0	38220	
515	0	38108	
516	0	38004	
517	0	37914	
518	0	37824	
519	0	37712	
520	0	37520	
521	0	37380	
522	0	37322	
523	0	37212	
524	0	36956	
525	0	36746	
526	0	36564	
527	0	36396	
528	0	36248	
529	0	36076	
530	0	35872	
531	0	35688	
532	0	35488	
533	0	35292	
534	0	35152	
535	0	34924	
536	0	34664	
537	0	34428	
538	0	34204	
539	0	34000	
540	0	33836	
541	0	33632	
542	0	33408	
543	0	33160	
544	0	32924	
545	0	32706	
546	0	32544	
547	0	32380	
548	0	32184	
549	0	32000	
550	0	31788	
551	0	31532	
552	0	31332	
553	0	31200	
554	0	31196	
555	0	31168	
556	0	31118	
557	0	30996	
558	0	30874	
559	0	30756	
560	0	30632	
561	0	30460	
562	0	30308	
563	0	30168	
564	0	30032	
565	0	29972	
566	0	29878	
567	0	29772	
568	0	29720	
569	0	29680	
570	0	29668	
571	0	29576	
572	0	29516	
573	0	29500	
574	0	29472	
575	0	29432	
576	0	29400	
577	0	29428	
578	0	29388	
579	0	29324	
580	0	29272	
581	0	29220	
582	0	29224	
583	0	29232	
584	0	29192	
585	0	29132	
586	0	29092	
587	0	29052	
588	0	29076	
589	0	29184	
590	0	29244	
591	0	29296	
592	0	29464	
593	0	29584	
594	0	29424	
595	0	29244	
596	0	29244	
597	0	29280	
598	0	29326	
599	0	29370	
600	0	29420	
601	0	29424	
602	0	29440	
603	0	29528	
604	0	29624	
605	0	29692	
606	0	29738	
607	0	29752	
608	0	29792	
609	0	29816	
610	0	29856	
611	0	29868	
612	0	29780	
613	0	29696	
614	0	29700	
615	0	29756	
616	0	29756	
617	0	29796	
618	0	29848	
619	0	29857	
620	0	29884	
621	0	29926	
622	0	29976	
623	0	29996	
624	0	30008	
625	0	30032	
626	0	30082	
627	0	30100	
628	0	30128	
629	0	30096	
630	0	30072	
631	0	30096	
632	0	30100	
633	0	30104	
634	0	30140	
635	0	30220	
636	0	30288	
637	0	30346	
638	0	30376	
639	0	30456	
640	0	30544	
641	0	30628	
642	0	30718	
643	0	30752	
644	0	30740	
645	0	30684	
646	0	30666	
647	0	30664	
648	0	30704	
649	0	30776	
650	0	30856	
651	0	30900	
652	0	30884	
653	0	30848	
654	0	30868	
655	0	30944	
656	0	31048	
657	0	31124	
658	0	31186	
659	0	31204	
660	0	31212	
661	0	31236	
662	0	31248	
663	0	31232	
664	0	31208	
665	0	31240	
666	0	31272	
667	0	31316	
668	0	31432	
669	0	31464	
670	0	31432	
671	0	31460	
672	0	31504	
673	0	31428	
674	0	31404	
675	0	31444	
676	0	31480	
677	0	31376	
678	0	31300	
679	0	31290	
680	0	31296	
681	0	31336	
682	0	31364	
683	0	31400	
684	0	31468	
685	0	31524	
686	0	31568	
687	0	31632	
688	0	31680	
689	0	31730	
690	0	31724	
691	0	31724	
692	0	31712	
693	0	31684	
694	0	31680	
695	0	31668	
696	0	31692	
697	0	31784	
698	0	31836	
699	0	31872	
700	0	31872	
701	0	31834	
702	0	31866	
703	0	31904	
704	0	31940	
705	0	31956	
706	0	31952	
707	0	31912	
708	0	31832	
709	0	31808	
710	0	31816	
711	0	31840	
712	0	31892	
713	0	31924	
714	0	31940	
715	0	31908	
716	0	31884	
717	0	31840	
718	0	31808	
719	0	31764	
720	0	31712	
721	0	31736	
722	0	31784	
723	0	31876	
724	0	31936	
725	0	31968	
726	0	32000	
727	0	31986	
728	0	32000	
729	0	32088	
730	0	32146	
731	0	32164	
732	0	32144	
733	0	32116	
734	0	32060	
735	0	32048	
736	0	32012	
737	0	32008	
738	0	32024	
739	0	32036	
740	0	32008	
741	0	31984	
742	0	31992	
743	0	32096	
744	0	32216	
745	0	32152	
746	0	32084	
747	0	32072	
748	0	32056	
749	0	32028	
750	0	32076	
751	0	32220	
752	0	32320	
753	0	32364	
754	0	32372	
755	0	32352	
756	0	32236	
757	0	32100	
758	0	32048	
759	0	32036	
760	0	32056	
761	0	32092	
762	0	32096	
763	0	32084	
764	0	32096	
765	0	32060	
766	0	32076	
767	0	32152	
768	0	32170	
769	0	32142	
770	0	32176	
771	0	32232	
772	0	32260	
773	0	32240	
774	0	32208	
775	0	32232	
776	0	32288	
777	0	32386	
778	0	32440	
779	0	32432	
780	0	32512	
781	0	32526	
782	0	32488	
783	0	32516	
784	0	32548	
785	0	32452	
786	0	32288	
787	0	32156	
788	0	32068	
789	0	32052	
790	0	32084	
791	0	32204	
792	0	32324	
793	0	32428	
794	0	32472	
795	0	32516	
796	0	32544	
797	0	32560	
798	0	32600	
799	0	32700	
800	0	32792	
801	0	32772	
802	0	32754	
803	0	32772	
804	0	32704	
805	0	32616	
806	0	32612	
807	0	32652	
808	0	32700	
809	0	32704	
810	0	32737	
811	0	32776	
812	0	32784	
813	0	32764	
814	0	32760	
815	0	32760	
816	0	32768	
817	0	32756	
818	0	32672	
819	0	32648	
820	0	32666	
821	0	32656	
822	0	32656	
823	0	32752	
824	0	32996	
825	0	33120	
826	0	33160	
827	0	33208	
828	0	33304	
829	0	33440	
830	0	33488	
831	0	33588	
832	0	33720	
833	0	33760	
834	0	33820	
835	0	33968	
836	0	34144	
837	0	34356	
838	0	34588	
839	0	34772	
840	0	34904	
841	0	34932	
842	0	34900	
843	0	34928	
844	0	34952	
845	0	34920	
846	0	34928	
847	0	34948	
848	0	35000	
849	0	35024	
850	0	35050	
851	0	35104	
852	0	35192	
853	0	35280	
854	0	35300	
855	0	35328	
856	0	35428	
857	0	35452	
858	0	35520	
859	0	35628	
860	0	35680	
861	0	35702	
862	0	35708	
863	0	35728	
864	0	35746	
865	0	35748	
866	0	35800	
867	0	35828	
868	0	35894	
869	0	35968	
870	0	36064	
871	0	36196	
872	0	36192	
873	0	36068	
874	0	35876	
875	0	35760	
876	0	35670	
877	0	35488	
878	0	35240	
879	0	34976	
880	0	34784	
881	0	34576	
882	0	34360	
883	0	34200	
884	0	34104	
885	0	34060	
886	0	34056	
887	0	34020	
888	0	33924	
889	0	33824	
890	0	33772	
891	0	33768	
892	0	33784	
893	0	33840	
894	0	33904	
895	0	33904	
896	0	33896	
897	0	33804	
898	0	33660	
899	0	33592	
900	0	33624	
901	0	33536	
902	0	33424	
903	0	33292	
904	0	33128	
905	0	33036	
906	0	32968	
907	0	32848	
908	0	32728	
909	0	32588	
910	0	32482	
911	0	32448	
912	0	32392	
913	0	32296	
914	0	32208	
915	0	32080	
916	0	31844	
917	0	31716	
918	0	31750	
919	0	31752	
920	0	31748	
921	0	31744	
922	0	31768	
923	0	31812	
924	0	31848	
925	0	31844	
926	0	31840	
927	0	31884	
928	0	31904	
929	0	31920	
930	0	31960	
931	0	31972	
932	0	31984	
933	0	32038	
934	0	32128	
935	0	32188	
936	0	32224	
937	0	32280	
938	0	32320	
939	0	32372	
940	0	32416	
941	0	32460	
942	0	32448	
943	0	32388	
944	0	32336	
945	0	32328	
946	0	32316	
947	0	32312	
948	0	32312	
949	0	32332	
950	0	32380	
951	0	32436	
952	0	32480	
953	0	32504	
954	0	32550	
955	0	32624	
956	0	32716	
957	0	32760	
958	0	32768	
959	0	32844	
960	0	32900	
961	0	32852	
962	0	32872	
963	0	32950	
964	0	32952	
965	0	32976	
966	0	33032	
967	0	33112	
968	0	33216	
969	0	33268	
970	0	33336	
971	0	33356	
972	0	33358	
973	0	33364	
974	0	33416	
975	0	33452	
976	0	33496	
977	0	33560	
978	0	33620	
979	0	33632	
980	0	33572	
981	0	33496	
982	0	33472	
983	0	33476	
984	0	33472	
985	0	33354	
986	0	33088	
987	0	33016	
988	0	33204	
989	0	33372	
990	0	33372	
991	0	33428	
992	0	33772	
993	0	34348	
994	0	34932	
995	0	35560	
996	0	36336	
997	0	37232	
998	0	38152	
999	0	39232	
1000	0	40592	
1001	0	42112	
1002	0	43624	
1003	0	45060	
1004	0	46504	
1005	0	48060	
1006	0	49638	
1007	0	51040	
1008	0	52440	
1009	0	53800	
1010	0	55040	
1011	0	56192	
1012	0	57424	
1013	0	58672	
1014	0	59744	
1015	0	60572	
1016	0	61048	
1017	0	61284	
1018	0	60888	
1019	0	59356	
1020	0	56988	
1021	0	53952	
1022	0	50560	
1023	0	47136	
1024	0	43664	
1025	0	39812	
1026	0	35760	
1027	0	32280	
1028	0	29792	
1029	0	28156	
1030	0	27196	
1031	0	26756	
1032	0	26656	
1033	0	26720	
1034	0	26864	
1035	0	27132	
1036	0	27532	
1037	0	28040	
1038	0	28576	
1039	0	29120	
1040	0	29664	
1041	0	30124	
1042	0	30518	
1043	0	30924	
1044	0	31288	
1045	0	31544	
1046	0	31720	
1047	0	31800	
1048	0	31744	
1049	0	31724	
1050	0	31680	
1051	0	31528	
1052	0	31328	
1053	0	31188	
1054	0	31116	
1055	0	31034	
1056	0	30944	
1057	0	30880	
1058	0	30820	
1059	0	30870	
1060	0	30900	
1061	0	30840	
1062	0	30748	
1063	0	30748	
1064	0	30862	
1065	0	31008	
1066	0	30924	
1067	0	30740	
1068	0	30680	
1069	0	30716	
1070	0	30764	
1071	0	30696	
1072	0	30612	
1073	0	30572	
1074	0	30628	
1075	0	30766	
1076	0	30764	
1077	0	30616	
1078	0	30432	
1079	0	30404	
1080	0	30536	
1081	0	30652	
1082	0	30672	
1083	0	30676	
1084	0	30708	
1085	0	30712	
1086	0	30708	
1087	0	30668	
1088	0	30608	
1089	0	30574	
1090	0	30530	
1091	0	30528	
1092	0	30540	
1093	0	30576	
1094	0	30654	
1095	0	30724	
1096	0	30816	
1097	0	30848	
1098	0	30806	
1099	0	30716	
1100	0	30760	
1101	0	30792	
1102	0	30864	
1103	0	30892	
1104	0	30844	
1105	0	30756	
1106	0	30712	
1107	0	30720	
1108	0	30664	
1109	0	30628	
1110	0	30688	
1111	0	30760	
1112	0	30800	
1113	0	30864	
1114	0	30908	
1115	0	30928	
1116	0	30952	
1117	0	30912	
1118	0	30856	
1119	0	30820	
1120	0	30828	
1121	0	30880	
1122	0	30940	
1123	0	30968	
1124	0	30960	
1125	0	30942	
1126	0	30950	
1127	0	30984	
1128	0	31024	
1129	0	31092	
1130	0	31160	
1131	0	31180	
1132	0	31092	
1133	0	31096	
1134	0	31144	
1135	0	31176	
1136	0	31188	
1137	0	31224	
1138	0	31292	
1139	0	31340	
1140	0	31348	
1141	0	31402	
1142	0	31480	
1143	0	31404	
1144	0	31340	
1145	0	31516	
1146	0	31700	
1147	0	31690	
1148	0	31648	
1149	0	31628	
1150	0	31676	
1151	0	31740	
1152	0	31792	
1153	0	31782	
1154	0	31734	
1155	0	31688	
1156	0	31680	
1157	0	31676	
1158	0	31764	
1159	0	31920	
1160	0	32136	
1161	0	32224	
1162	0	32212	
1163	0	32300	
1164	0	32448	
1165	0	32444	
1166	0	32368	
1167	0	32344	
1168	0	32344	
1169	0	32374	
1170	0	32468	
1171	0	32536	
1172	0	32568	
1173	0	32564	
1174	0	32540	
1175	0	32492	
1176	0	32432	
1177	0	32400	
1178	0	32372	
1179	0	32388	
1180	0	32456	
1181	0	32508	
1182	0	32524	
1183	0	32560	
1184	0	32596	
1185	0	32608	
1186	0	32664	
1187	0	32808	
1188	0	32900	
1189	0	32952	
1190	0	32924	
1191	0	32906	
1192	0	32912	
1193	0	33012	
1194	0	33128	
1195	0	33092	
1196	0	33032	
1197	0	33020	
1198	0	33076	
1199	0	33188	
1200	0	33296	
1201	0	33392	
1202	0	33500	
1203	0	33618	
1204	0	33688	
1205	0	33740	
1206	0	33744	
1207	0	33760	
1208	0	33872	
1209	0	33962	
1210	0	33978	
1211	0	33992	
1212	0	34016	
1213	0	34048	
1214	0	34100	
1215	0	34172	
1216	0	34180	
1217	0	34188	
1218	0	34200	
1219	0	34316	
1220	0	34488	
1221	0	34536	
1222	0	34452	
1223	0	34444	
1224	0	34472	
1225	0	34576	
1226	0	34624	
1227	0	34642	
1228	0	34688	
1229	0	34776	
1230	0	34872	
1231	0	34928	
1232	0	35006	
1233	0	35090	
1234	0	35136	
1235	0	35252	
1236	0	35448	
1237	0	35592	
1238	0	35596	
1239	0	35608	
1240	0	35716	
1241	0	35856	
1242	0	35952	
1243	0	35984	
1244	0	36056	
1245	0	36092	
1246	0	36132	
1247	0	36162	
1248	0	36292	
1249	0	36400	
1250	0	36488	
1251	0	36572	
1252	0	36616	
1253	0	36640	
1254	0	36592	
1255	0	36556	
1256	0	36608	
1257	0	36612	
1258	0	36624	
1259	0	36626	
1260	0	36632	
1261	0	36616	
1262	0	36604	
1263	0	36580	
1264	0	36536	
1265	0	36540	
1266	0	36588	
1267	0	36672	
1268	0	36664	
1269	0	36596	
1270	0	36496	
1271	0	36412	
1272	0	36348	
1273	0	36260	
1274	0	36220	
1275	0	36132	
1276	0	35924	
1277	0	35716	
1278	0	35504	
1279	0	35352	
1280	0	35160	
1281	0	34976	
1282	0	34812	
1283	0	34684	
1284	0	34528	
1285	0	34288	
1286	0	34072	
1287	0	33888	
1288	0	33632	
1289	0	33468	
1290	0	33312	
1291	0	33100	
1292	0	32860	
1293	0	32712	
1294	0	32456	
1295	0	32176	
1296	0	31956	
1297	0	31832	
1298	0	31608	
1299	0	31352	
1300	0	31132	
1301	0	30948	
1302	0	30748	
1303	0	30564	
1304	0	30400	
1305	0	30226	
1306	0	29988	
1307	0	29896	
1308	0	29848	
1309	0	29712	
1310	0	29593	
1311	0	29480	
1312	0	29260	
1313	0	29044	
1314	0	28916	
1315	0	28834	
1316	0	28760	
1317	0	28664	
1318	0	28572	
1319	0	28520	
1320	0	28436	
1321	0	28384	
1322	0	28308	
1323	0	28188	
1324	0	28170	
1325	0	28160	
1326	0	28112	
1327	0	28000	
1328	0	27956	
1329	0	27952	
1330	0	27928	
1331	0	27840	
1332	0	27728	
1333	0	27628	
1334	0	27616	
1335	0	27656	
1336	0	27648	
1337	0	27544	
1338	0	27444	
1339	0	27448	
1340	0	27468	
1341	0	27502	
1342	0	27532	
1343	0	27496	
1344	0	27548	
1345	0	27592	
1346	0	27642	
1347	0	27774	
1348	0	27712	
1349	0	27560	
1350	0	27572	
1351	0	27612	
1352	0	27628	
1353	0	27640	
1354	0	27642	
1355	0	27680	
1356	0	27680	
1357	0	27660	
1358	0	27676	
1359	0	27680	
1360	0	27704	
1361	0	27740	
1362	0	27752	
1363	0	27820	
1364	0	27904	
1365	0	27880	
1366	0	27824	
1367	0	27868	
1368	0	27832	
1369	0	27764	
1370	0	27820	
1371	0	27960	
1372	0	28092	
1373	0	28120	
1374	0	28096	
1375	0	28084	
1376	0	28132	
1377	0	28228	
1378	0	28284	
1379	0	28264	
1380	0	28256	
1381	0	28273	
1382	0	28340	
1383	0	28320	
1384	0	28340	
1385	0	28320	
1386	0	28312	
1387	0	28384	
1388	0	28420	
1389	0	28432	
1390	0	28468	
1391	0	28564	
1392	0	28672	
1393	0	28696	
1394	0	28710	
1395	0	28762	
1396	0	28812	
1397	0	28768	
1398	0	28752	
1399	0	28798	
1400	0	28808	
1401	0	28776	
1402	0	28772	
1403	0	28752	
1404	0	28848	
1405	0	28984	
1406	0	29104	
1407	0	29216	
1408	0	29316	
1409	0	29364	
1410	0	29260	
1411	0	29204	
1412	0	29184	
1413	0	29216	
1414	0	29232	
1415	0	29260	
1416	0	29300	
1417	0	29410	
1418	0	29506	
1419	0	29540	
1420	0	29528	
1421	0	29514	
1422	0	29432	
1423	0	29432	
1424	0	29516	
1425	0	29634	
1426	0	29728	
1427	0	29680	
1428	0	29660	
1429	0	29680	
1430	0	29708	
1431	0	29664	
1432	0	29716	
1433	0	29794	
1434	0	29828	
1435	0	29844	
1436	0	29920	
1437	0	29984	
1438	0	29982	
1439	0	29940	
1440	0	29908	
1441	0	29928	
1442	0	30040	
1443	0	30104	
1444	0	30116	
1445	0	30148	
1446	0	30228	
1447	0	30280	
1448	0	30240	
1449	0	30226	
1450	0	30292	
1451	0	30380	
1452	0	30412	
1453	0	30360	
1454	0	30312	
1455	0	30316	
1456	0	30312	
1457	0	30336	
1458	0	30324	
1459	0	30356	
1460	0	30432	
1461	0	30488	
1462	0	30504	
1463	0	30576	
1464	0	30620	
1465	0	30572	
1466	0	30532	
1467	0	30606	
1468	0	30734	
1469	0	30756	
1470	0	30728	
1471	0	30692	
1472	0	30688	
1473	0	30658	
1474	0	30666	
1475	0	30636	
1476	0	30576	
1477	0	30584	
1478	0	30624	
1479	0	30648	
1480	0	30676	
1481	0	30712	
1482	0	30724	
1483	0	30664	
1484	0	30648	
1485	0	30698	
1486	0	30752	
1487	0	30840	
1488	0	30864	
1489	0	30820	
1490	0	30800	
1491	0	30796	
1492	0	30772	
1493	0	30696	
1494	0	30600	
1495	0	30612	
1496	0	30666	
1497	0	30688	
1498	0	30668	
1499	0	30712	
1500	0	30788	
1501	0	30768	
1502	0	30724	
1503	0	30700	
1504	0	30772	
1505	0	30856	
1506	0	30828	
1507	0	30838	
1508	0	30936	
1509	0	31010	
1510	0	31022	
1511	0	31080	
1512	0	31036	
1513	0	30972	
1514	0	31032	
1515	0	31060	
1516	0	31028	
1517	0	30996	
1518	0	30992	
1519	0	31002	
1520	0	31004	
1521	0	31044	
1522	0	31028	
1523	0	31004	
1524	0	31024	
1525	0	31044	
1526	0	31020	
1527	0	30992	
1528	0	30976	
1529	0	30996	
1530	0	31018	
1531	0	31146	
1532	0	31224	
1533	0	31248	
1534	0	31260	
1535	0	31264	
1536	0	31304	
1537	0	31300	
1538	0	31276	
1539	0	31236	
1540	0	31210	
1541	0	31168	
1542	0	31212	
1543	0	31248	
1544	0	31276	
1545	0	31350	
1546	0	31340	
1547	0	31228	
1548	0	31176	
1549	0	31232	
1550	0	31316	
1551	0	31380	
1552	0	31456	
1553	0	31452	
1554	0	31396	
1555	0	31380	
1556	0	31340	
1557	0	31312	
1558	0	31320	
1559	0	31348	
1560	0	31448	
1561	0	31472	
1562	0	31440	
1563	0	31460	
1564	0	31464	
1565	0	31456	
1566	0	31456	
1567	0	31474	
1568	0	31532	
1569	0	31512	
1570	0	31504	
1571	0	31576	
1572	0	31570	
1573	0	31460	
1574	0	31500	
1575	0	31500	
1576	0	31521	
1577	0	31644	
1578	0	31600	
1579	0	31484	
1580	0	31484	
1581	0	31528	
1582	0	31536	
1583	0	31586	
1584	0	31600	
1585	0	31528	
1586	0	31496	
1587	0	31488	
1588	0	31554	
1589	0	31600	
1590	0	31778	
1591	0	31888	
1592	0	31824	
1593	0	31712	
1594	0	31720	
1595	0	31756	
1596	0	31768	
1597	0	31804	
1598	0	31856	
1599	0	31884	
1600	0	31836	
1601	0	31776	
1602	0	31764	
1603	0	31764	
1604	0	31776	
1605	0	31888	
1606	0	31928	
1607	0	31946	
1608	0	31956	
1609	0	32008	
1610	0	32052	
1611	0	32044	
1612	0	32028	
1613	0	31988	
1614	0	31968	
1615	0	31984	
1616	0	32012	
1617	0	32036	
1618	0	32120	
1619	0	32268	
1620	0	32396	
1621	0	32508	
1622	0	32672	
1623	0	32848	
1624	0	32992	
1625	0	33108	
1626	0	33200	
1627	0	33356	
1628	0	33530	
1629	0	33710	
1630	0	33832	
1631	0	33922	
1632	0	33910	
1633	0	33904	
1634	0	34008	
1635	0	34072	
1636	0	34144	
1637	0	34256	
1638	0	34292	
1639	0	34296	
1640	0	34320	
1641	0	34336	
1642	0	34424	
1643	0	34468	
1644	0	34468	
1645	0	34508	
1646	0	34624	
1647	0	34680	
1648	0	34704	
1649	0	34724	
1650	0	34820	
1651	0	34920	
1652	0	35008	
1653	0	35040	
1654	0	34974	
1655	0	34884	
1656	0	34932	
1657	0	34988	
1658	0	35080	
1659	0	35288	
1660	0	35388	
1661	0	35424	
1662	0	35396	
1663	0	35296	
1664	0	35192	
1665	0	35066	
1666	0	34912	
1667	0	34740	
1668	0	34664	
1669	0	34536	
1670	0	34388	
1671	0	34160	
1672	0	33832	
1673	0	33564	
1674	0	33404	
1675	0	33400	
1676	0	33432	
1677	0	33292	
1678	0	33184	
1679	0	33060	
1680	0	32976	
1681	0	33006	
1682	0	33100	
1683	0	33156	
1684	0	33160	
1685	0	33154	
1686	0	33080	
1687	0	32940	
1688	0	32880	
1689	0	32936	
1690	0	32888	
1691	0	32780	
1692	0	32752	
1693	0	32712	
1694	0	32680	
1695	0	32624	
1696	0	32408	
1697	0	32228	
1698	0	32084	
1699	0	31948	
1700	0	31752	
1701	0	31600	
1702	0	31480	
1703	0	31344	
1704	0	31280	
1705	0	31256	
1706	0	31284	
1707	0	31304	
1708	0	31310	
1709	0	31240	
1710	0	31300	
1711	0	31360	
1712	0	31338	
1713	0	31272	
1714	0	31228	
1715	0	31192	
1716	0	31240	
1717	0	31348	
1718	0	31452	
1719	0	31500	
1720	0	31540	
1721	0	31560	
1722	0	31648	
1723	0	31770	
1724	0	31776	
1725	0	31664	
1726	0	31568	
1727	0	31534	
1728	0	31552	
1729	0	31648	
1730	0	31732	
1731	0	31696	
1732	0	31640	
1733	0	31620	
1734	0	31612	
1735	0	31656	
1736	0	31750	
1737	0	31696	
1738	0	31624	
1739	0	31628	
1740	0	31684	
1741	0	31716	
1742	0	31664	
1743	0	31662	
1744	0	31692	
1745	0	31720	
1746	0	31796	
1747	0	31816	
1748	0	31776	
1749	0	31780	
1750	0	31804	
1751	0	31792	
1752	0	31784	
1753	0	31776	
1754	0	31776	
1755	0	31926	
1756	0	31970	
1757	0	31882	
1758	0	31832	
1759	0	31860	
1760	0	31940	
1761	0	32028	
1762	0	32064	
1763	0	32064	
1764	0	32140	
1765	0	32176	
1766	0	32126	
1767	0	32096	
1768	0	32160	
1769	0	32152	
1770	0	32124	
1771	0	32076	
1772	0	31940	
1773	0	31828	
1774	0	31708	
1775	0	31556	
1776	0	31464	
1777	0	31508	
1778	0	31672	
1779	0	31824	
1780	0	31964	
1781	0	32254	
1782	0	32672	
1783	0	33152	
1784	0	33780	
1785	0	34600	
1786	0	35380	
1787	0	36138	
1788	0	37024	
1789	0	38204	
1790	0	39608	
1791	0	41036	
1792	0	42408	
1793	0	43760	
1794	0	45088	
1795	0	46576	
1796	0	48010	
1797	0	49492	
1798	0	50904	
1799	0	52240	
1800	0	53528	
1801	0	54736	
1802	0	55908	
1803	0	56920	
1804	0	57708	
1805	0	58416	
1806	0	58980	
1807	0	59200	
1808	0	58420	
1809	0	56612	
1810	0	54048	
1811	0	50768	
1812	0	47344	
1813	0	44016	
1814	0	40426	
1815	0	36580	
1816	0	32960	
1817	0	30188	
1818	0	28296	
1819	0	27064	
1820	0	26336	
1821	0	26004	
1822	0	25998	
1823	0	26284	
1824	0	26648	
1825	0	27084	
1826	0	27692	
1827	0	28292	
1828	0	28804	
1829	0	29356	
1830	0	29808	
1831	0	30184	
1832	0	30562	
1833	0	30916	
1834	0	31352	
1835	0	31568	
1836	0	31480	
1837	0	31426	
1838	0	31456	
1839	0	31352	
1840	0	31248	
1841	0	31168	
1842	0	31054	
1843	0	30972	
1844	0	30932	
1845	0	30886	
1846	0	30880	
1847	0	30870	
1848	0	30800	
1849	0	30746	
1850	0	30676	
1851	0	30676	
1852	0	30672	
1853	0	30688	
1854	0	30736	
1855	0	30812	
1856	0	30872	
1857	0	30896	
1858	0	30868	
1859	0	30836	
1860	0	30932	
1861	0	30996	
1862	0	31028	
1863	0	31120	
1864	0	31136	
1865	0	30952	
1866	0	30844	
1867	0	30856	
1868	0	30914	
1869	0	30956	
1870	0	31048	
1871	0	31060	
1872	0	30944	
1873	0	30896	
1874	0	30914	
1875	0	30956	
1876	0	31020	
1877	0	31092	
1878	0	31160	
1879	0	31208	
1880	0	31232	
1881	0	31316	
1882	0	31360	
1883	0	31432	
1884	0	31482	
1885	0	31532	
1886	0	31544	
1887	0	31580	
1888	0	31664	
1889	0	31760	
1890	0	31804	
1891	0	31784	
1892	0	31824	
1893	0	31840	
1894	0	31900	
1895	0	31972	
1896	0	31972	
1897	0	31930	
1898	0	31932	
1899	0	31936	
1900	0	31996	
1901	0	32024	
1902	0	31960	
1903	0	31906	
1904	0	31948	
1905	0	32016	
1906	0	32032	
1907	0	31960	
1908	0	31988	
1909	0	32044	
1910	0	32066	
1911	0	32004	
1912	0	31936	
1913	0	31964	
1914	0	32032	
1915	0	32076	
1916	0	32208	
1917	0	32456	
1918	0	32580	
1919	0	32504	
1920	0	32512	
1921	0	32548	
1922	0	32624	
1923	0	32670	
1924	0	32672	
1925	0	32672	
1926	0	32672	
1927	0	32736	
1928	0	32820	
1929	0	32826	
1930	0	32774	
1931	0	32760	
1932	0	32976	
1933	0	33076	
1934	0	33092	
1935	0	33050	
1936	0	33024	
1937	0	33088	
1938	0	33240	
1939	0	33324	
1940	0	33321	
1941	0	33380	
1942	0	33480	
1943	0	33612	
1944	0	33664	
1945	0	33776	
1946	0	33980	
1947	0	33956	
1948	0	33848	
1949	0	33840	
1950	0	33908	
1951	0	33984	
1952	0	34084	
1953	0	34212	
1954	0	34330	
1955	0	34424	
1956	0	34452	
1957	0	34460	
1958	0	34468	
1959	0	34500	
1960	0	34520	
1961	0	34544	
1962	0	34644	
1963	0	34668	
1964	0	34670	
1965	0	34676	
1966	0	34708	
1967	0	34768	
1968	0	34824	
1969	0	34796	
1970	0	34892	
1971	0	35004	
1972	0	34910	
1973	0	34880	
1974	0	34944	
1975	0	34896	
1976	0	34916	
1977	0	35008	
1978	0	35056	
1979	0	35108	
1980	0	35176	
1981	0	35240	
1982	0	35320	
1983	0	35380	
1984	0	35344	
1985	0	35376	
1986	0	35450	
1987	0	35524	
1988	0	35572	
1989	0	35588	
1990	0	35604	
1991	0	35704	
1992	0	35840	
1993	0	35804	
1994	0	35736	
1995	0	35744	
1996	0	35776	
1997	0	35888	
1998	0	35920	
1999	0	35980	
2000	0	36108	
2001	0	36248	
2002	0	36160	
2003	0	36112	
2004	0	36184	
2005	0	36324	
2006	0	36304	
2007	0	36240	
2008	0	36282	
2009	0	36348	
2010	0	36448	
2011	0	36556	
2012	0	36640	
2013	0	36672	
2014	0	36632	
2015	0	36608	
2016	0	36672	
2017	0	36772	
2018	0	36944	
2019	0	37040	
2020	0	37100	
2021	0	37172	
2022	0	37216	
2023	0	37216	
2024	0	37244	
2025	0	37412	
2026	0	37408	
2027	0	37418	
2028	0	37516	
2029	0	37634	
2030	0	37696	
2031	0	37732	
2032	0	37804	
2033	0	37868	
2034	0	37924	
2035	0	37832	
2036	0	37866	
2037	0	37940	
2038	0	38004	
2039	0	38080	
2040	0	38124	
2041	0	38132	
2042	0	38194	
2043	0	38316	
2044	0	38382	
2045	0	38436	
2046	0	38560	
2047	0	38616	
2048	0	38616	
2049	0	38664	
2050	0	38632	
2051	0	38580	
2052	0	38596	
2053	0	38648	
2054	0	38704	
2055	0	38588	
2056	0	38504	
2057	0	38472	
2058	0	38414	
2059	0	38304	
2060	0	38260	
2061	0	38228	
2062	0	38244	
2063	0	38282	
2064	0	38176	
2065	0	38112	
2066	0	38032	
2067	0	37876	
2068	0	37744	
2069	0	37520	
2070	0	37336	
2071	0	37172	
2072	0	36988	
2073	0	36704	
2074	0	36456	
2075	0	36276	
2076	0	36104	
2077	0	36056	
2078	0	36024	
2079	0	35892	
2080	0	35724	
2081	0	35568	
2082	0	35376	
2083	0	35100	
2084	0	34868	
2085	0	34708	
2086	0	34536	
2087	0	34380	
2088	0	34242	
2089	0	34024	
2090	0	33760	
2091	0	33508	
2092	0	33212	
2093	0	33108	
2094	0	33076	
2095	0	32996	
2096	0	32856	
2097	0	32620	
2098	0	32408	
2099	0	32236	
2100	0	32068	
2101	0	31900	
2102	0	31760	
2103	0	31672	
2104	0	31564	
2105	0	31466	
2106	0	31382	
2107	0	31288	
2108	0	31088	
2109	0	30904	
2110	0	30776	
2111	0	30712	
2112	0	30660	
2113	0	30654	
2114	0	30692	
2115	0	30696	
2116	0	30648	
2117	0	30504	
2118	0	30340	
2119	0	30200	
2120	0	30168	
2121	0	30208	
2122	0	30232	
2123	0	30240	
2124	0	30238	
2125	0	30240	
2126	0	30276	
2127	0	30304	
2128	0	30360	
2129	0	30424	
2130	0	30348	
2131	0	30260	
2132	0	30204	
2133	0	30168	
2134	0	30152	
2135	0	30176	
2136	0	30242	
2137	0	30340	
2138	0	30350	
2139	0	30396	
2140	0	30436	
2141	0	30336	
2142	0	30340	
2143	0	30336	
2144	0	30424	
2145	0	30528	
2146	0	30508	
2147	0	30468	
2148	0	30480	
2149	0	30576	
2150	0	30776	
2151	0	30864	
2152	0	30908	
2153	0	30944	
2154	0	30937	
2155	0	30968	
2156	0	31000	
2157	0	31016	
2158	0	31000	
2159	0	30896	
2160	0	30760	
2161	0	30728	
2162	0	30756	
2163	0	30784	
2164	0	30808	
2165	0	30792	
2166	0	30738	
2167	0	30690	
2168	0	30712	
2169	0	30696	
2170	0	30684	
2171	0	30736	
2172	0	30772	
2173	0	30784	
2174	0	30788	
2175	0	30786	
2176	0	30852	
2177	0	30904	
2178	0	30864	
2179	0	30804	
2180	0	30780	
2181	0	30722	
2182	0	30696	
2183	0	30724	
2184	0	30712	
2185	0	30740	
2186	0	30816	
2187	0	30876	
2188	0	30920	
2189	0	30960	
2190	0	31044	
2191	0	31136	
2192	0	31224	
2193	0	31348	
2194	0	31236	
2195	0	31226	
2196	0	31304	
2197	0	31328	
2198	0	31316	
2199	0	31308	
2200	0	31268	
2201	0	31192	
2202	0	31180	
2203	0	31226	
2204	0	31280	
2205	0	31220	
2206	0	31132	
2207	0	31052	
2208	0	31052	
2209	0	31088	
2210	0	31076	
2211	0	31108	
2212	0	31100	
2213	0	31132	
2214	0	31184	
2215	0	31266	
2216	0	31284	
2217	0	31164	
2218	0	31056	
2219	0	31016	
2220	0	30948	
2221	0	30892	
2222	0	30940	
2223	0	30980	
2224	0	30912	
2225	0	30860	
2226	0	30824	
2227	0	30836	
2228	0	30882	
2229	0	30912	
2230	0	31008	
2231	0	31076	
2232	0	31112	
2233	0	31104	
2234	0	31084	
2235	0	31076	
2236	0	31084	
2237	0	31184	
2238	0	31248	
2239	0	31284	
2240	0	31416	
2241	0	31500	
2242	0	31536	
2243	0	31552	
2244	0	31520	
2245	0	31444	
2246	0	31392	
2247	0	31360	
2248	0	31560	
2249	0	31592	
2250	0	31442	
2251	0	31392	
2252	0	31468	
2253	0	31604	
2254	0	31614	
2255	0	31520	
2256	0	31620	
2257	0	31712	
2258	0	31728	
2259	0	31812	
2260	0	31892	
2261	0	31868	
2262	0	31848	
2263	0	31892	
2264	0	32016	
2265	0	32102	
2266	0	32128	
2267	0	32120	
2268	0	32092	
2269	0	32040	
2270	0	31952	
2271	0	31962	
2272	0	32040	
2273	0	31950	
2274	0	31764	
2275	0	31632	
2276	0	31528	
2277	0	31472	
2278	0	31440	
2279	0	31484	
2280	0	31584	
2281	0	31648	
2282	0	31636	
2283	0	31584	
2284	0	31498	
2285	0	31472	
2286	0	31390	
2287	0	31376	
2288	0	31256	
2289	0	31084	
2290	0	31108	
2291	0	31100	
2292	0	31012	
2293	0	31064	
2294	0	31204	
2295	0	31228	
2296	0	31164	
2297	0	31092	
2298	0	31066	
2299	0	31024	
2300	0	30972	
2301	0	30936	
2302	0	31026	
2303	0	31188	
2304	0	31192	
2305	0	31050	
2306	0	30942	
2307	0	30960	
2308	0	30984	
2309	0	30928	
2310	0	30872	
2311	0	30816	
2312	0	30814	
2313	0	30856	
2314	0	30800	
2315	0	30684	
2316	0	30628	
2317	0	30568	
2318	0	30528	
2319	0	30442	
2320	0	30372	
2321	0	30420	
2322	0	30540	
2323	0	30572	
2324	0	30528	
2325	0	30676	
2326	0	30768	
2327	0	30746	
2328	0	30752	
2329	0	30740	
2330	0	30732	
2331	0	30728	
2332	0	30724	
2333	0	30700	
2334	0	30696	
2335	0	30764	
2336	0	30816	
2337	0	30812	
2338	0	30828	
2339	0	30860	
2340	0	30872	
2341	0	30776	
2342	0	30744	
2343	0	30788	
2344	0	30800	
2345	0	30800	
2346	0	30780	
2347	0	30816	
2348	0	30896	
2349	0	30944	
2350	0	30964	
2351	0	30960	
2352	0	30996	
2353	0	31028	
2354	0	31024	
2355	0	30980	
2356	0	31006	
2357	0	31084	
2358	0	31092	
2359	0	31060	
2360	0	31028	
2361	0	30952	
2362	0	31008	
2363	0	31028	
2364	0	31008	
2365	0	31060	
2366	0	31125	
2367	0	31188	
2368	0	31228	
2369	0	31284	
2370	0	31432	
2371	0	31484	
2372	0	31398	
2373	0	31388	
2374	0	31400	
2375	0	31404	
2376	0	31372	
2377	0	31312	
2378	0	31288	
2379	0	31224	
2380	0	31156	
2381	0	31148	
2382	0	31196	
2383	0	31284	
2384	0	31200	
2385	0	31132	
2386	0	31128	
2387	0	31144	
2388	0	31156	
2389	0	31120	
2390	0	31152	
2391	0	31184	
2392	0	31200	
2393	0	31168	
2394	0	31136	
2395	0	31144	
2396	0	31232	
2397	0	31380	
2398	0	31424	
2399	0	31380	
2400	0	31352	
2401	0	31408	
2402	0	31388	
2403	0	31256	
2404	0	31216	
2405	0	31272	
2406	0	31332	
2407	0	31400	
2408	0	31520	
2409	0	31608	
2410	0	31468	
2411	0	31320	
2412	0	31296	
2413	0	31332	
2414	0	31440	
2415	0	31512	
2416	0	31546	
2417	0	31528	
2418	0	31532	
2419	0	31568	
2420	0	31592	
2421	0	31612	
2422	0	31640	
2423	0	31696	
2424	0	31778	
2425	0	31804	
2426	0	31868	
2427	0	32000	
2428	0	32088	
2429	0	32176	
2430	0	32224	
2431	0	32388	
2432	0	32540	
2433	0	32656	
2434	0	32776	
2435	0	32878	
2436	0	33050	
2437	0	33192	
2438	0	33320	
2439	0	33416	
2440	0	33496	
2441	0	33576	
2442	0	33486	
2443	0	33394	
2444	0	33456	
2445	0	33642	
2446	0	33784	
2447	0	33796	
2448	0	33852	
2449	0	33920	
2450	0	34012	
2451	0	34104	
2452	0	34072	
2453	0	33968	
2454	0	33996	
2455	0	34144	
2456	0	34304	
2457	0	34408	
2458	0	34512	
2459	0	34604	
2460	0	34624	
2461	0	34668	
2462	0	34636	
2463	0	34584	
2464	0	34584	
2465	0	34608	
2466	0	34684	
2467	0	34696	
2468	0	34696	
2469	0	34724	
2470	0	34812	
2471	0	34940	
2472	0	34892	
2473	0	34692	
2474	0	34510	
2475	0	34348	
2476	0	34228	
2477	0	34076	
2478	0	33890	
2479	0	33668	
2480	0	33448	
2481	0	33268	
2482	0	33144	
2483	0	33008	
2484	0	32816	
2485	0	32688	
2486	0	32672	
2487	0	32652	
2488	0	32600	
2489	0	32600	
2490	0	32564	
2491	0	32528	
2492	0	32596	
2493	0	32792	
2494	0	32804	
2495	0	32572	
2496	0	32424	
2497	0	32364	
2498	0	32274	
2499	0	32188	
2500	0	32148	
2501	0	32088	
2502	0	32032	
2503	0	31956	
2504	0	31948	
2505	0	31968	
2506	0	31800	
2507	0	31548	
2508	0	31488	
2509	0	31404	
2510	0	31212	
2511	0	31012	
2512	0	30908	
2513	0	30816	
2514	0	30688	
2515	0	30740	
2516	0	30840	
2517	0	30880	
2518	0	30904	
2519	0	30952	
2520	0	30804	
2521	0	30708	
2522	0	30740	
2523	0	30772	
2524	0	30764	
2525	0	30784	
2526	0	30772	
2527	0	30720	
2528	0	30792	
2529	0	30936	
2530	0	31044	
2531	0	31136	
2532	0	31212	
2533	0	31202	
2534	0	31164	
2535	0	31184	
2536	0	31244	
2537	0	31292	
2538	0	31296	
2539	0	31242	
2540	0	31396	
2541	0	31420	
2542	0	31208	
2543	0	31088	
2544	0	31072	
2545	0	31064	
2546	0	31104	
2547	0	31136	
2548	0	31132	
2549	0	31116	
2550	0	31060	
2551	0	30974	
2552	0	31012	
2553	0	31064	
2554	0	31122	
2555	0	31140	
2556	0	31108	
2557	0	31092	
2558	0	31136	
2559	0	31176	
2560	0	31224	
2561	0	31244	
2562	0	31308	
2563	0	31398	
2564	0	31572	
2565	0	31752	
2566	0	31792	
2567	0	31636	
2568	0	31372	
2569	0	31348	
2570	0	31424	
2571	0	31528	
2572	0	31624	
2573	0	31572	
2574	0	31544	
2575	0	31536	
2576	0	31488	
2577	0	31400	
2578	0	31408	
2579	0	31394	
2580	0	31236	
2581	0	31076	
2582	0	30928	
2583	0	30860	
2584	0	30848	
2585	0	30944	
2586	0	31120	
2587	0	31298	
2588	0	31568	
2589	0	32008	
2590	0	32472	
2591	0	32948	
2592	0	33464	
2593	0	34124	
2594	0	34912	
2595	0	35760	
2596	0	36840	
2597	0	38216	
2598	0	39648	
2599	0	41048	
2600	0	42512	
2601	0	43944	
2602	0	45296	
2603	0	46768	
2604	0	48316	
2605	0	49890	
2606	0	51244	
2607	0	52444	
2608	0	53588	
2609	0	54826	
2610	0	55968	
2611	0	56928	
2612	0	57656	
2613	0	58096	
2614	0	58380	
2615	0	57888	
2616	0	56352	
2617	0	54000	
2618	0	50944	
2619	0	47472	
2620	0	44128	
2621	0	40780	
2622	0	37088	
2623	0	33440	
2624	0	30420	
2625	0	28192	
2626	0	26796	
2627	0	26174	
2628	0	25932	
2629	0	25908	
2630	0	26152	
2631	0	26476	
2632	0	26788	
2633	0	27244	
2634	0	27712	
2635	0	28162	
2636	0	28742	
2637	0	29352	
2638	0	29816	
2639	0	30244	
2640	0	30632	
2641	0	30964	
2642	0	31192	
2643	0	31280	
2644	0	31320	
2645	0	31288	
2646	0	31176	
2647	0	31102	
2648	0	31092	
2649	0	31092	
2650	0	31016	
2651	0	30996	
2652	0	30960	
2653	0	30764	
2654	0	30596	
2655	0	30508	
2656	0	30544	
2657	0	30530	
2658	0	30512	
2659	0	30536	
2660	0	30568	
2661	0	30688	
2662	0	30814	
2663	0	30824	
2664	0	30656	
2665	0	30508	
2666	0	30476	
2667	0	30564	
2668	0	30632	
2669	0	30632	
2670	0	30646	
2671	0	30740	
2672	0	30900	
2673	0	30948	
2674	0	30838	
2675	0	30784	
2676	0	30752	
2677	0	30756	
2678	0	30828	
2679	0	30816	
2680	0	30768	
2681	0	30872	
2682	0	30984	
2683	0	30932	
2684	0	30916	
2685	0	30924	
2686	0	30880	
2687	0	30840	
2688	0	30948	
2689	0	31068	
2690	0	31164	
2691	0	31152	
2692	0	31044	
2693	0	30954	
2694	0	30988	
2695	0	31028	
2696	0	31052	
2697	0	31108	
2698	0	31140	
2699	0	31184	
2700	0	31262	
2701	0	31384	
2702	0	31420	
2703	0	31424	
2704	0	31436	
2705	0	31480	
2706	0	31536	
2707	0	31536	
2708	0	31456	
2709	0	31440	
2710	0	31484	
2711	0	31532	
2712	0	31564	
2713	0	31584	
2714	0	31648	
2715	0	31712	
2716	0	31700	
2717	0	31700	
2718	0	31712	
2719	0	31736	
2720	0	31724	
2721	0	31696	
2722	0	31732	
2723	0	31816	
2724	0	31896	
2725	0	32050	
2726	0	32064	
2727	0	32032	
2728	0	32072	
2729	0	32108	
2730	0	32112	
2731	0	32140	
2732	0	32136	
2733	0	32128	
2734	0	32180	
2735	0	32236	
2736	0	32244	
2737	0	32280	
2738	0	32344	
2739	0	32416	
2740	0	32472	
2741	0	32522	
2742	0	32508	
2743	0	32578	
2744	0	32544	
2745	0	32432	
2746	0	32376	
2747	0	32456	
2748	0	32524	
2749	0	32568	
2750	0	32636	
2751	0	32680	
2752	0	32674	
2753	0	32644	
2754	0	32648	
2755	0	32752	
2756	0	33024	
2757	0	33032	
2758	0	32976	
2759	0	33024	
2760	0	33044	
2761	0	33076	
2762	0	33224	
2763	0	33196	
2764	0	33132	
2765	0	33136	
2766	0	33172	
2767	0	33184	
2768	0	33184	
2769	0	33204	
2770	0	33296	
2771	0	33252	
2772	0	33224	
2773	0	33248	
2774	0	33260	
2775	0	33368	
2776	0	33440	
2777	0	33420	
2778	0	33412	
2779	0	33420	
2780	0	33436	
2781	0	33512	
2782	0	33600	
2783	0	33688	
2784	0	33768	
2785	0	33824	
2786	0	33888	
2787	0	34012	
2788	0	34132	
2789	0	34106	
2790	0	34152	
2791	0	34216	
2792	0	34184	
2793	0	34112	
2794	0	34116	
2795	0	34144	
2796	0	34164	
2797	0	34224	
2798	0	34248	
2799	0	34324	
2800	0	34344	
2801	0	34288	
2802	0	34256	
2803	0	34316	
2804	0	34424	
2805	0	34536	
2806	0	34624	
2807	0	34672	
2808	0	34752	
2809	0	34880	
2810	0	34984	
2811	0	35200	
2812	0	35468	
2813	0	35392	
2814	0	35244	
2815	0	35320	
2816	0	35436	
2817	0	35472	
2818	0	35492	
2819	0	35636	
2820	0	35736	
2821	0	35765	
2822	0	35944	
2823	0	36124	
2824	0	36173	
2825	0	36272	
2826	0	36394	
2827	0	36484	
2828	0	36492	
2829	0	36484	
2830	0	36428	
2831	0	36400	
2832	0	36468	
2833	0	36520	
2834	0	36614	
2835	0	36684	
2836	0	36754	
2837	0	36772	
2838	0	36796	
2839	0	36864	
2840	0	36968	
2841	0	37012	
2842	0	37024	
2843	0	37120	
2844	0	37254	
2845	0	37340	
2846	0	37488	
2847	0	37572	
2848	0	37496	
2849	0	37480	
2850	0	37488	
2851	0	37574	
2852	0	37752	
2853	0	37820	
2854	0	37840	
2855	0	37880	
2856	0	37968	
2857	0	38016	
2858	0	38096	
2859	0	38112	
2860	0	38036	
2861	0	37980	
2862	0	37944	
2863	0	37896	
2864	0	37880	
2865	0	37868	
2866	0	37804	
2867	0	37744	
2868	0	37640	
2869	0	37492	
2870	0	37424	
2871	0	37332	
2872	0	37246	
2873	0	37164	
2874	0	37116	
2875	0	37080	
2876	0	37044	
2877	0	36768	
2878	0	36538	
2879	0	36320	
2880	0	36128	
2881	0	36036	
2882	0	35978	
2883	0	35800	
2884	0	35580	
2885	0	35528	
2886	0	35380	
2887	0	35072	
2888	0	34752	
2889	0	34504	
2890	0	34328	
2891	0	34250	
2892	0	34088	
2893	0	33818	
2894	0	33496	
2895	0	33300	
2896	0	33172	
2897	0	32904	
2898	0	32696	
2899	0	32564	
2900	0	32448	
2901	0	32212	
2902	0	31962	
2903	0	31748	
2904	0	31572	
2905	0	31484	
2906	0	31388	
2907	0	31232	
2908	0	31176	
2909	0	30984	
2910	0	30680	
2911	0	30500	
2912	0	30400	
2913	0	30304	
2914	0	30222	
2915	0	30128	
2916	0	30042	
2917	0	29964	
2918	0	29848	
2919	0	29740	
2920	0	29744	
2921	0	29728	
2922	0	29588	
2923	0	29492	
2924	0	29418	
2925	0	29424	
2926	0	29424	
2927	0	29392	
2928	0	29328	
2929	0	29216	
2930	0	29140	
2931	0	29008	
2932	0	28984	
2933	0	29000	
2934	0	28976	
2935	0	29072	
2936	0	29088	
2937	0	29112	
2938	0	29150	
2939	0	29180	
2940	0	29220	
2941	0	29248	
2942	0	29152	
2943	0	29124	
2944	0	29196	
2945	0	29276	
2946	0	29324	
2947	0	29328	
2948	0	29212	
2949	0	29200	
2950	0	29192	
2951	0	29180	
2952	0	29096	
2953	0	29066	
2954	0	29080	
2955	0	29156	
2956	0	29150	
2957	0	29040	
2958	0	29016	
2959	0	29088	
2960	0	29144	
2961	0	29168	
2962	0	29252	
2963	0	29396	
2964	0	29448	
2965	0	29432	
2966	0	29392	
2967	0	29448	
2968	0	29484	
2969	0	29514	
2970	0	29576	
2971	0	29632	
2972	0	29698	
2973	0	29696	
2974	0	29660	
2975	0	29624	
2976	0	29616	
2977	0	29680	
2978	0	29844	
2979	0	29904	
2980	0	29836	
2981	0	29752	
2982	0	29752	
2983	0	29824	
2984	0	29884	
2985	0	29946	
2986	0	29908	
2987	0	29920	
2988	0	30042	
2989	0	30180	
2990	0	30300	
2991	0	30284	
2992	0	30240	
2993	0	30196	
2994	0	30160	
2995	0	30172	
2996	0	30224	
2997	0	30286	
2998	0	30370	
2999	0	30404	
3000	0	30408	
3001	0	30468	
3002	0	30480	
3003	0	30496	
3004	0	30536	
3005	0	30540	
3006	0	30572	
3007	0	30656	
3008	0	30752	
3009	0	30868	
3010	0	30892	
3011	0	30780	
3012	0	30738	
3013	0	30772	
3014	0	30797	
3015	0	30872	
3016	0	30821	
3017	0	30664	
3018	0	30644	
3019	0	30688	
3020	0	30704	
3021	0	30714	
3022	0	30724	
3023	0	30688	
3024	0	30740	
3025	0	30808	
3026	0	30784	
3027	0	30864	
3028	0	30944	
3029	0	30992	
3030	0	31058	
3031	0	31092	
3032	0	31148	
3033	0	31128	
3034	0	31016	
3035	0	31020	
3036	0	31060	
3037	0	31044	
3038	0	31120	
3039	0	31164	
3040	0	31104	
3041	0	31096	
3042	0	31144	
3043	0	31180	
3044	0	31236	
3045	0	31288	
3046	0	31310	
3047	0	31262	
3048	0	31280	
3049	0	31300	
3050	0	31332	
3051	0	31352	
3052	0	31352	
3053	0	31416	
3054	0	31454	
3055	0	31432	
3056	0	31406	
3057	0	31416	
3058	0	31432	
3059	0	31416	
3060	0	31384	
3061	0	31376	
3062	0	31368	
3063	0	31364	
3064	0	31444	
3065	0	31460	
3066	0	31440	
3067	0	31404	
3068	0	31464	
3069	0	31608	
3070	0	31696	
3071	0	31680	
3072	0	31620	
3073	0	31632	
3074	0	31656	
3075	0	31664	
3076	0	31680	
3077	0	31776	
3078	0	31752	
3079	0	31706	
3080	0	31788	
3081	0	31812	
3082	0	31688	
3083	0	31668	
3084	0	31848	
3085	0	31848	
3086	0	31764	
3087	0	31672	
3088	0	31688	
3089	0	31760	
3090	0	31712	
3091	0	31666	
3092	0	31700	
3093	0	31704	
3094	0	31656	
3095	0	31664	
3096	0	31676	
3097	0	31594	
3098	0	31552	
3099	0	31556	
3100	0	31592	
3101	0	31604	
3102	0	31624	
3103	0	31712	
3104	0	31764	
3105	0	31760	
3106	0	31776	
3107	0	31828	
3108	0	31880	
3109	0	31896	
3110	0	31880	
3111	0	31792	
3112	0	31688	
3113	0	31684	
3114	0	31744	
3115	0	31808	
3116	0	31808	
3117	0	31750	
3118	0	31752	
3119	0	31728	
3120	0	31664	
3121	0	31660	
3122	0	31716	
3123	0	31750	
3124	0	31714	
3125	0	31724	
3126	0	31712	
3127	0	31692	
3128	0	31614	
3129	0	31602	
3130	0	31656	
3131	0	31644	
3132	0	31576	
3133	0	31496	
3134	0	31452	
3135	0	31484	
3136	0	31468	
3137	0	31520	
3138	0	31528	
3139	0	31456	
3140	0	31520	
3141	0	31618	
3142	0	31674	
3143	0	31754	
3144	0	31820	
3145	0	31832	
3146	0	31804	
3147	0	31756	
3148	0	31680	
3149	0	31628	
3150	0	31700	
3151	0	31836	
3152	0	31908	
3153	0	31736	
3154	0	31630	
3155	0	31680	
3156	0	31796	
3157	0	31840	
3158	0	31736	
3159	0	31636	
3160	0	31636	
3161	0	31644	
3162	0	31628	
3163	0	31576	
3164	0	31536	
3165	0	31568	
3166	0	31660	
3167	0	31728	
3168	0	31768	
3169	0	31768	
3170	0	31800	
3171	0	31820	
3172	0	31778	
3173	0	31748	
3174	0	31748	
3175	0	31712	
3176	0	31712	
3177	0	31744	
3178	0	31792	
3179	0	31816	
3180	0	31882	
3181	0	31964	
3182	0	31960	
3183	0	31940	
3184	0	31938	
3185	0	31936	
3186	0	31968	
3187	0	31964	
3188	0	31968	
3189	0	31960	
3190	0	31940	
3191	0	31936	
3192	0	31892	
3193	0	31948	
3194	0	32026	
3195	0	32076	
3196	0	32008	
3197	0	31896	
3198	0	31801	
3199	0	31768	
3200	0	31796	
3201	0	31824	
3202	0	31912	
3203	0	31988	
3204	0	32084	
3205	0	32156	
3206	0	32272	
3207	0	32412	
3208	0	32552	
3209	0	32704	
3210	0	32928	
3211	0	33044	
3212	0	33024	
3213	0	33056	
3214	0	33252	
3215	0	33308	
3216	0	33232	
3217	0	33184	
3218	0	33184	
3219	0	33276	
3220	0	33428	
3221	0	33588	
3222	0	33548	
3223	0	33544	
3224	0	33732	
3225	0	33892	
3226	0	33964	
3227	0	34000	
3228	0	34022	
3229	0	34068	
3230	0	34228	
3231	0	34348	
3232	0	34372	
3233	0	34428	
3234	0	34648	
3235	0	34832	
3236	0	34956	
3237	0	35024	
3238	0	35104	
3239	0	35120	
3240	0	35088	
3241	0	35068	
3242	0	35132	
3243	0	35104	
3244	0	35148	
3245	0	35296	
3246	0	35476	
3247	0	35648	
3248	0	35768	
3249	0	35688	
3250	0	35618	
3251	0	35610	
3252	0	35492	
3253	0	35408	
3254	0	35216	
3255	0	34812	
3256	0	34588	
3257	0	34556	
3258	0	34436	
3259	0	34276	
3260	0	34156	
3261	0	34092	
3262	0	34056	
3263	0	34052	
3264	0	33968	
3265	0	33848	
3266	0	33744	
3267	0	33616	
3268	0	33532	
3269	0	33464	
3270	0	33484	
3271	0	33456	
3272	0	33344	
3273	0	33344	
3274	0	33332	
3275	0	33340	
3276	0	33332	
3277	0	33292	
3278	0	33228	
3279	0	33030	
3280	0	32804	
3281	0	32684	
3282	0	32632	
3283	0	32578	
3284	0	32404	
3285	0	32268	
3286	0	32112	
3287	0	31976	
3288	0	31846	
3289	0	31786	
3290	0	31776	
3291	0	31608	
3292	0	31472	
3293	0	31404	
3294	0	31400	
3295	0	31512	
3296	0	31504	
3297	0	31372	
3298	0	31228	
3299	0	31216	
3300	0	31200	
3301	0	31276	
3302	0	31384	
3303	0	31480	
3304	0	31548	
3305	0	31550	
3306	0	31496	
3307	0	31456	
3308	0	31468	
3309	0	31564	
3310	0	31632	
3311	0	31636	
3312	0	31544	
3313	0	31480	
3314	0	31460	
3315	0	31484	
3316	0	31564	
3317	0	31564	
3318	0	31480	
3319	0	31416	
3320	0	31424	
3321	0	31464	
3322	0	31506	
3323	0	31560	
3324	0	31588	
3325	0	31584	
3326	0	31528	
3327	0	31580	
3328	0	31740	
3329	0	31840	
3330	0	31808	
3331	0	31744	
3332	0	31656	
3333	0	31636	
3334	0	31728	
3335	0	31752	
3336	0	31748	
3337	0	31754	
3338	0	31680	
3339	0	31636	
3340	0	31632	
3341	0	31716	
3342	0	31890	
3343	0	31906	
3344	0	31640	
3345	0	31548	
3346	0	31658	
3347	0	31788	
3348	0	31808	
3349	0	31784	
3350	0	31808	
3351	0	31848	
3352	0	31884	
3353	0	31916	
3354	0	31932	
3355	0	31888	
3356	0	31884	
3357	0	31812	
3358	0	31632	
3359	0	31500	
3360	0	31484	
3361	0	31448	
3362	0	31288	
3363	0	31184	
3364	0	31188	
3365	0	31296	
3366	0	31480	
3367	0	31684	
3368	0	32088	
3369	0	32740	
3370	0	33392	
3371	0	33988	
3372	0	34748	
3373	0	35664	
3374	0	36716	
3375	0	37888	
3376	0	39232	
3377	0	40544	
3378	0	41928	
3379	0	43372	
3380	0	44824	
3381	0	46324	
3382	0	47844	
3383	0	49164	
3384	0	50512	
3385	0	51816	
3386	0	53008	
3387	0	54224	
3388	0	55488	
3389	0	56744	
3390	0	57860	
3391	0	58704	
3392	0	59184	
3393	0	59212	
3394	0	58208	
3395	0	56264	
3396	0	53664	
3397	0	50464	
3398	0	47172	
3399	0	43872	
3400	0	40248	
3401	0	36428	
3402	0	32636	
3403	0	29420	
3404	0	27100	
3405	0	25860	
3406	0	25492	
3407	0	25404	
3408	0	25568	
3409	0	25880	
3410	0	26072	
3411	0	26168	
3412	0	26458	
3413	0	26792	
3414	0	27216	
3415	0	27712	
3416	0	28054	
3417	0	28448	
3418	0	28840	
3419	0	29180	
3420	0	29536	
3421	0	29932	
3422	0	30248	
3423	0	30430	
3424	0	30530	
3425	0	30588	
3426	0	30640	
3427	0	30658	
3428	0	30664	
3429	0	30660	
3430	0	30548	
3431	0	30588	
3432	0	30640	
3433	0	30648	
3434	0	30662	
3435	0	30706	
3436	0	30628	
3437	0	30432	
3438	0	30416	
3439	0	30512	
3440	0	30480	
3441	0	30448	
3442	0	30440	
3443	0	30432	
3444	0	30368	
3445	0	30376	
3446	0	30496	
3447	0	30640	
3448	0	30704	
3449	0	30684	
3450	0	30688	
3451	0	30612	
3452	0	30636	
3453	0	30648	
3454	0	30620	
3455	0	30614	
3456	0	30592	
3457	0	30620	
3458	0	30592	
3459	0	30520	
3460	0	30548	
3461	0	30796	
3462	0	30968	
3463	0	30764	
3464	0	30544	
3465	0	30608	
3466	0	30780	
3467	0	30932	
3468	0	31026	
3469	0	31072	
3470	0	31004	
3471	0	30920	
3472	0	30936	
3473	0	31044	
3474	0	31076	
3475	0	31032	
3476	0	31000	
3477	0	31074	
3478	0	31258	
3479	0	31300	
3480	0	31280	
3481	0	31316	
3482	0	31402	
3483	0	31400	
3484	0	31380	
3485	0	31372	
3486	0	31444	
3487	0	31568	
3488	0	31664	
3489	0	31716	
3490	0	31768	
3491	0	31750	
3492	0	31732	
3493	0	31756	
3494	0	31624	
3495	0	31612	
3496	0	31704	
3497	0	31640	
3498	0	31552	
3499	0	31584	
3500	0	31696	
3501	0	31792	
3502	0	31800	
3503	0	31820	
3504	0	31840	
3505	0	31834	
3506	0	31784	
3507	0	31744	
3508	0	31706	
3509	0	31828	
3510	0	31964	
3511	0	31976	
3512	0	32028	
3513	0	32044	
3514	0	32064	
3515	0	32048	
3516	0	32004	
3517	0	32008	
3518	0	32112	
3519	0	32164	
3520	0	32164	
3521	0	32228	
3522	0	32376	
3523	0	32504	
3524	0	32404	
3525	0	32236	
3526	0	32270	
3527	0	32256	
3528	0	32150	
3529	0	32120	
3530	0	32194	
3531	0	32248	
3532	0	32260	
3533	0	32268	
3534	0	32272	
3535	0	32348	
3536	0	32456	
3537	0	32552	
3538	0	32654	
3539	0	32744	
3540	0	32784	
3541	0	32824	
3542	0	32880	
3543	0	32932	
3544	0	33018	
3545	0	33176	
3546	0	33304	
3547	0	33388	
3548	0	33376	
3549	0	33416	
3550	0	33536	
3551	0	33440	
3552	0	33284	
3553	0	33156	
3554	0	33104	
3555	0	33106	
3556	0	33204	
3557	0	33264	
3558	0	33324	
3559	0	33392	
3560	0	33492	
3561	0	33580	
3562	0	33536	
3563	0	33546	
3564	0	33632	
3565	0	33754	
3566	0	33716	
3567	0	33712	
3568	0	33774	
3569	0	33804	
3570	0	33816	
3571	0	33848	
3572	0	33868	
3573	0	33900	
3574	0	33968	
3575	0	33984	
3576	0	34044	
3577	0	34132	
3578	0	34174	
3579	0	34212	
3580	0	34308	
3581	0	34432	
3582	0	34520	
3583	0	34452	
3584	0	34472	
3585	0	34672	
3586	0	34944	
3587	0	35034	
3588	0	35000	
3589	0	34948	
3590	0	35060	
3591	0	35240	
3592	0	35404	
3593	0	35508	
3594	0	35472	
3595	0	35352	
3596	0	35498	
3597	0	35534	
3598	0	35520	
3599	0	35560	
3600	0	35648	
3601	0	35792	
3602	0	35984	
3603	0	36036	
3604	0	36108	
3605	0	36112	
3606	0	36108	
3607	0	36276	
3608	0	36388	
3609	0	36464	
3610	0	36636	
3611	0	36716	
3612	0	36840	
3613	0	36988	
3614	0	36984	
3615	0	37016	
3616	0	37092	
3617	0	37108	
3618	0	37090	
3619	0	37184	
3620	0	37292	
3621	0	37400	
3622	0	37476	
3623	0	37500	
3624	0	37444	
3625	0	37452	
3626	0	37488	
3627	0	37504	
3628	0	37596	
3629	0	37710	
3630	0	37832	
3631	0	37892	
3632	0	37936	
3633	0	37976	
3634	0	38016	
3635	0	38124	
3636	0	38172	
3637	0	38164	
3638	0	38140	
3639	0	38144	
3640	0	38160	
3641	0	38236	
3642	0	38320	
3643	0	38432	
3644	0	38300	
3645	0	37988	
3646	0	37760	
3647	0	37756	
3648	0	37764	
3649	0	37732	
3650	0	37682	
3651	0	37652	
3652	0	37552	
3653	0	37332	
3654	0	36992	
3655	0	36732	
3656	0	36624	
3657	0	36568	
3658	0	36464	
3659	0	36356	
3660	0	36108	
3661	0	35968	
3662	0	35756	
3663	0	35416	
3664	0	35180	
3665	0	34944	
3666	0	34774	
3667	0	34636	
3668	0	34464	
3669	0	34296	
3670	0	34144	
3671	0	33904	
3672	0	33740	
3673	0	33596	
3674	0	33424	
3675	0	33212	
3676	0	33036	
3677	0	32828	
3678	0	32720	
3679	0	32532	
3680	0	32316	
3681	0	32144	
3682	0	32028	
3683	0	31770	
3684	0	31544	
3685	0	31440	
3686	0	31268	
3687	0	31118	
3688	0	31004	
3689	0	30908	
3690	0	30832	
3691	0	30842	
3692	0	30804	
3693	0	30756	
3694	0	30704	
3695	0	30530	
3696	0	30368	
3697	0	30220	
3698	0	30116	
3699	0	30040	
3700	0	29880	
3701	0	29724	
3702	0	29600	
3703	0	29466	
3704	0	29410	
3705	0	29376	
3706	0	29380	
3707	0	29376	
3708	0	29260	
3709	0	29172	
3710	0	29130	
3711	0	29120	
3712	0	29048	
3713	0	29016	
3714	0	29092	
3715	0	29104	
3716	0	29076	
3717	0	29044	
3718	0	29108	
3719	0	29200	
3720	0	29224	
3721	0	29210	
3722	0	29224	
3723	0	29252	
3724	0	29212	
3725	0	29196	
3726	0	29300	
3727	0	29468	
3728	0	29500	
3729	0	29288	
3730	0	29180	
3731	0	29160	
3732	0	29180	
3733	0	29168	
3734	0	29200	
3735	0	29196	
3736	0	29176	
3737	0	29116	
3738	0	29248	
3739	0	29376	
3740	0	29504	
3741	0	29500	
3742	0	29466	
3743	0	29460	
3744	0	29344	
3745	0	29376	
3746	0	29508	
3747	0	29562	
3748	0	29530	
3749	0	29548	
3750	0	29606	
3751	0	29616	
3752	0	29656	
3753	0	29688	
3754	0	29652	
3755	0	29752	
3756	0	30000	
3757	0	30032	
3758	0	29804	
3759	0	29756	
3760	0	29784	
3761	0	29816	
3762	0	29844	
3763	0	29892	
3764	0	29888	
3765	0	29880	
3766	0	29888	
3767	0	29872	
3768	0	29904	
3769	0	29968	
3770	0	30004	
3771	0	30012	
3772	0	29980	
3773	0	29964	
3774	0	30016	
3775	0	30004	
3776	0	30048	
3777	0	30120	
3778	0	30088	
3779	0	30052	
3780	0	30068	
3781	0	30144	
3782	0	30216	
3783	0	30184	
3784	0	30194	
3785	0	30244	
3786	0	30232	
3787	0	30252	
3788	0	30304	
3789	0	30336	
3790	0	30352	
3791	0	30360	
3792	0	30324	
3793	0	30384	
3794	0	30380	
3795	0	30356	
3796	0	30330	
3797	0	30344	
3798	0	30436	
3799	0	30448	
3800	0	30344	
3801	0	30332	
3802	0	30392	
3803	0	30436	
3804	0	30484	
3805	0	30592	
3806	0	30716	
3807	0	30732	
3808	0	30608	
3809	0	30528	
3810	0	30500	
3811	0	30552	
3812	0	30604	
3813	0	30658	
3814	0	30600	
3815	0	30432	
3816	0	30476	
3817	0	30634	
3818	0	30764	
3819	0	30856	
3820	0	30880	
3821	0	30912	
3822	0	31044	
3823	0	31156	
3824	0	30996	
3825	0	30768	
3826	0	30682	
3827	0	30740	
3828	0	30896	
3829	0	31004	
3830	0	31114	
3831	0	31128	
3832	0	30944	
3833	0	30816	
3834	0	30804	
3835	0	30768	
3836	0	30744	
3837	0	30760	
3838	0	30756	
3839	0	30724	
3840	0	30760	
3841	0	30788	
3842	0	30816	
3843	0	30928	
3844	0	30980	
3845	0	31000	
3846	0	31044	
3847	0	31120	
3848	0	31212	
3849	0	31300	
3850	0	31368	
3851	0	31290	
3852	0	31272	
3853	0	31328	
3854	0	31424	
3855	0	31572	
3856	0	31596	
3857	0	31560	
3858	0	31612	
3859	0	31644	
3860	0	31616	
3861	0	31620	
3862	0	31620	
3863	0	31524	
3864	0	31660	
3865	0	31564	
3866	0	31280	
3867	0	31162	
3868	0	31208	
3869	0	31288	
3870	0	31320	
3871	0	31333	
3872	0	31360	
3873	0	31368	
3874	0	31488	
3875	0	31552	
3876	0	31528	
3877	0	31612	
3878	0	31748	
3879	0	31784	
3880	0	31696	
3881	0	31600	
3882	0	31680	
3883	0	31704	
3884	0	31684	
3885	0	31676	
3886	0	31682	
3887	0	31696	
3888	0	31630	
3889	0	31684	
3890	0	31744	
3891	0	31816	
3892	0	31868	
3893	0	31912	
3894	0	32036	
3895	0	32148	
3896	0	32026	
3897	0	31968	
3898	0	31972	
3899	0	31904	
3900	0	31960	
3901	0	31992	
3902	0	31976	
3903	0	31816	
3904	0	31704	
3905	0	31664	
3906	0	31708	
3907	0	31728	
3908	0	31644	
3909	0	31622	
3910	0	31648	
3911	0	31652	
3912	0	31628	
3913	0	31664	
3914	0	31754	
3915	0	31780	
3916	0	31788	
3917	0	31816	
3918	0	31876	
3919	0	31900	
3920	0	31908	
3921	0	31974	
3922	0	32176	
3923	0	32220	
3924	0	32090	
3925	0	31936	
3926	0	32048	
3927	0	32128	
3928	0	32188	
3929	0	32156	
3930	0	32152	
3931	0	32090	
3932	0	31996	
3933	0	31960	
3934	0	32012	
3935	0	32024	
3936	0	32004	
3937	0	32048	
3938	0	32074	
3939	0	32176	
3940	0	32332	
3941	0	32489	
3942	0	32660	
3943	0	32920	
3944	0	33172	
3945	0	33292	
3946	0	33432	
3947	0	33528	
3948	0	33616	
3949	0	33564	
3950	0	33432	
3951	0	33396	
3952	0	33424	
3953	0	33426	
3954	0	33456	
3955	0	33528	
3956	0	33640	
3957	0	33680	
3958	0	33776	
3959	0	33892	
3960	0	33970	
3961	0	34068	
3962	0	34244	
3963	0	34324	
3964	0	34338	
3965	0	34364	
3966	0	34404	
3967	0	34482	
3968	0	34554	
3969	0	34582	
3970	0	34596	
3971	0	34588	
3972	0	34564	
3973	0	34604	
3974	0	34716	
3975	0	34864	
3976	0	34988	
3977	0	35096	
3978	0	35180	
3979	0	35144	
3980	0	34970	
3981	0	34916	
3982	0	34832	
3983	0	34622	
3984	0	34400	
3985	0	34196	
3986	0	34032	
3987	0	33888	
3988	0	33652	
3989	0	33396	
3990	0	33296	
3991	0	33264	
3992	0	33188	
3993	0	33192	
3994	0	33280	
3995	0	33264	
3996	0	33172	
3997	0	33044	
3998	0	33036	
3999	0	33048	
4000	0	33056	
4001	0	33148	
4002	0	33172	
4003	0	32992	
4004	0	32836	
4005	0	32720	
4006	0	32548	
4007	0	32448	
4008	0	32368	
4009	0	32236	
4010	0	32104	
4011	0	32016	
4012	0	31876	
4013	0	31820	
4014	0	31764	
4015	0	31640	
4016	0	31528	
4017	0	31420	
4018	0	31384	
4019	0	31288	
4020	0	31212	
4021	0	31160	
4022	0	31061	
4023	0	31032	
4024	0	31068	
4025	0	31074	
4026	0	31016	
4027	0	31008	
4028	0	30972	
4029	0	30944	
4030	0	30928	
4031	0	30960	
4032	0	30982	
4033	0	31016	
4034	0	31078	
4035	0	31124	
4036	0	31232	
4037	0	31304	
4038	0	31178	
4039	0	31136	
4040	0	31216	
4041	0	31306	
4042	0	31284	
4043	0	31188	
4044	0	31096	
4045	0	31012	
4046	0	31008	
4047	0	31072	
4048	0	31164	
4049	0	31112	
4050	0	31008	
4051	0	30984	
4052	0	31024	
4053	0	31076	
4054	0	31152	
4055	0	31320	
4056	0	31356	
4057	0	31296	
4058	0	31344	
4059	0	31400	
4060	0	31400	
4061	0	31424	
4062	0	31444	
4063	0	31440	
4064	0	31452	
4065	0	31488	
4066	0	31500	
4067	0	31488	
4068	0	31492	
4069	0	31484	
4070	0	31492	
4071	0	31572	
4072	0	31684	
4073	0	31808	
4074	0	31676	
4075	0	31588	
4076	0	31564	
4077	0	31542	
4078	0	31576	
4079	0	31756	
4080	0	31792	
4081	0	31644	
4082	0	31664	
4083	0	31732	
4084	0	31844	
4085	0	31982	
4086	0	31970	
4087	0	31792	
4088	0	31658	
4089	0	31640	
4090	0	31584	
4091	0	31450	
4092	0	31320	
4093	0	31164	
4094	0	31034	
4095	0	30988	
4096	0	31012	
4097	0	31140	
4098	0	31324	
4099	0	31608	
4100	0	32120	
4101	0	32784	
4102	0	33584	
4103	0	34428	
4104	0	35336	
4105	0	36384	
4106	0	37576	
4107	0	38980	
4108	0	40480	
4109	0	41928	
4110	0	43396	
4111	0	44860	
4112	0	46368	
4113	0	47972	
4114	0	49520	
4115	0	50836	
4116	0	52204	
4117	0	53432	
4118	0	54548	
4119	0	55720	
4120	0	56836	
4121	0	57904	
4122	0	59040	
4123	0	59836	
4124	0	60252	
4125	0	59872	
4126	0	58412	
4127	0	56236	
4128	0	53348	
4129	0	50084	
4130	0	46936	
4131	0	43649	
4132	0	39884	
4133	0	35888	
4134	0	32248	
4135	0	29296	
4136	0	27268	
4137	0	26142	
4138	0	25694	
4139	0	25652	
4140	0	25932	
4141	0	26152	
4142	0	26294	
4143	0	26532	
4144	0	26816	
4145	0	27044	
4146	0	27330	
4147	0	27656	
4148	0	28036	
4149	0	28400	
4150	0	28728	
4151	0	29032	
4152	0	29410	
4153	0	29846	
4154	0	30200	
4155	0	30520	
4156	0	30784	
4157	0	30936	
4158	0	30976	
4159	0	31014	
4160	0	31028	
4161	0	30976	
4162	0	30984	
4163	0	31004	
4164	0	30940	
4165	0	31004	
4166	0	31120	
4167	0	31088	
4168	0	30888	
4169	0	30742	
4170	0	30640	
4171	0	30640	
4172	0	30664	
4173	0	30656	
4174	0	30688	
4175	0	30768	
4176	0	30860	
4177	0	30832	
4178	0	30832	
4179	0	30864	
4180	0	30868	
4181	0	30864	
4182	0	30876	
4183	0	30924	
4184	0	31040	
4185	0	31160	
4186	0	31184	
4187	0	31206	
4188	0	31308	
4189	0	31356	
4190	0	31400	
4191	0	31416	
4192	0	31434	
4193	0	31464	
4194	0	31484	
4195	0	31464	
4196	0	31392	
4197	0	31394	
4198	0	31488	
4199	0	31460	
4200	0	31404	
4201	0	31392	
4202	0	31464	
4203	0	31496	
4204	0	31552	
4205	0	31576	
4206	0	31560	
4207	0	31604	
4208	0	31732	
4209	0	31784	
4210	0	31792	
4211	0	31788	
4212	0	31788	
4213	0	31848	
4214	0	31908	
4215	0	31908	
4216	0	31892	
4217	0	31980	
4218	0	32204	
4219	0	32228	
4220	0	32122	
4221	0	32080	
4222	0	32100	
4223	0	32106	
4224	0	32200	
4225	0	32324	
4226	0	32312	
4227	0	32244	
4228	0	32284	
4229	0	32276	
4230	0	32224	
4231	0	32216	
4232	0	32220	
4233	0	32208	
4234	0	32204	
4235	0	32160	
4236	0	32124	
4237	0	32036	
4238	0	32092	
4239	0	32196	
4240	0	32312	
4241	0	32388	
4242	0	32504	
4243	0	32556	
4244	0	32468	
4245	0	32460	
4246	0	32502	
4247	0	32544	
4248	0	32584	
4249	0	32662	
4250	0	32692	
4251	0	32728	
4252	0	32800	
4253	0	32868	
4254	0	32886	
4255	0	32856	
4256	0	32856	
4257	0	32840	
4258	0	32848	
4259	0	32892	
4260	0	32912	
4261	0	32960	
4262	0	32976	
4263	0	32974	
4264	0	33016	
4265	0	33042	
4266	0	33080	
4267	0	33144	
4268	0	33238	
4269	0	33152	
4270	0	33090	
4271	0	33134	
4272	0	33164	
4273	0	33128	
4274	0	33120	
4275	0	33120	
4276	0	33186	
4277	0	33272	
4278	0	33348	
4279	0	33480	
4280	0	33560	
4281	0	33492	
4282	0	33428	
4283	0	33408	
4284	0	33492	
4285	0	33580	
4286	0	33632	
4287	0	33688	
4288	0	33761	
4289	0	33824	
4290	0	33912	
4291	0	33888	
4292	0	33904	
4293	0	33852	
4294	0	33812	
4295	0	33842	
4296	0	33920	
4297	0	33912	
4298	0	33908	
4299	0	34128	
4300	0	34188	
4301	0	34116	
4302	0	34128	
4303	0	34180	
4304	0	34292	
4305	0	34276	
4306	0	34240	
4307	0	34176	
4308	0	34148	
4309	0	34200	
4310	0	34258	
4311	0	34352	
4312	0	34404	
4313	0	34452	
4314	0	34540	
4315	0	34640	
4316	0	34688	
4317	0	34736	
4318	0	34812	
4319	0	34944	
4320	0	35024	
4321	0	35160	
4322	0	35296	
4323	0	35364	
4324	0	35344	
4325	0	35332	
4326	0	35440	
4327	0	35568	
4328	0	35660	
4329	0	35744	
4330	0	35872	
4331	0	35848	
4332	0	35790	
4333	0	35860	
4334	0	35932	
4335	0	36026	
4336	0	36098	
4337	0	36180	
4338	0	36196	
4339	0	36236	
4340	0	36304	
4341	0	36320	
4342	0	36380	
4343	0	36456	
4344	0	36516	
4345	0	36592	
4346	0	36728	
4347	0	36848	
4348	0	36928	
4349	0	37052	
4350	0	37240	
4351	0	37368	
4352	0	37416	
4353	0	37456	
4354	0	37548	
4355	0	37584	
4356	0	37604	
4357	0	37644	
4358	0	37694	
4359	0	37716	
4360	0	37780	
4361	0	37772	
4362	0	37800	
4363	0	37938	
4364	0	37936	
4365	0	37868	
4366	0	37864	
4367	0	37876	
4368	0	37892	
4369	0	37880	
4370	0	37844	
4371	0	37860	
4372	0	37824	
4373	0	37876	
4374	0	37792	
4375	0	37696	
4376	0	37616	
4377	0	37544	
4378	0	37480	
4379	0	37448	
4380	0	37460	
4381	0	37472	
4382	0	37300	
4383	0	37108	
4384	0	37004	
4385	0	36871	
4386	0	36726	
4387	0	36606	
4388	0	36396	
4389	0	36088	
4390	0	35820	
4391	0	35648	
4392	0	35444	
4393	0	35256	
4394	0	35136	
4395	0	34952	
4396	0	34748	
4397	0	34602	
4398	0	34464	
4399	0	34320	
4400	0	34140	
4401	0	34012	
4402	0	33850	
4403	0	33572	
4404	0	33276	
4405	0	32994	
4406	0	32744	
4407	0	32532	
4408	0	32380	
4409	0	32216	
4410	0	32056	
4411	0	32016	
4412	0	31984	
4413	0	31688	
4414	0	31384	
4415	0	31152	
4416	0	30972	
4417	0	30848	
4418	0	30780	
4419	0	30652	
4420	0	30496	
4421	0	30432	
4422	0	30432	
4423	0	30305	
4424	0	30168	
4425	0	30072	
4426	0	30028	
4427	0	29912	
4428	0	29790	
4429	0	29690	
4430	0	29632	
4431	0	29536	
4432	0	29460	
4433	0	29456	
4434	0	29472	
4435	0	29514	
4436	0	29520	
4437	0	29352	
4438	0	29232	
4439	0	29162	
4440	0	29140	
4441	0	29126	
4442	0	29088	
4443	0	29069	
4444	0	29048	
4445	0	29076	
4446	0	29088	
4447	0	29076	
4448	0	29084	
4449	0	29064	
4450	0	29088	
4451	0	29044	
4452	0	28980	
4453	0	28956	
4454	0	28944	
4455	0	28974	
4456	0	28992	
4457	0	28994	
4458	0	28972	
4459	0	29040	
4460	0	29080	
4461	0	29138	
4462	0	29200	
4463	0	29212	
4464	0	29166	
4465	0	29340	
4466	0	29376	
4467	0	29252	
4468	0	29196	
4469	0	29276	
4470	0	29306	
4471	0	29332	
4472	0	29248	
4473	0	29312	
4474	0	29444	
4475	0	29428	
4476	0	29440	
4477	0	29440	
4478	0	29504	
4479	0	29564	
4480	0	29624	
4481	0	29644	
4482	0	29720	
4483	0	29812	
4484	0	29796	
4485	0	29760	
4486	0	29758	
4487	0	29752	
4488	0	29742	
4489	0	29770	
4490	0	29824	
4491	0	29845	
4492	0	29852	
4493	0	29800	
4494	0	29904	
4495	0	30008	
4496	0	29952	
4497	0	29876	
4498	0	29800	
4499	0	29840	
4500	0	29912	
4501	0	29964	
4502	0	30032	
4503	0	30020	
4504	0	29922	
4505	0	29864	
4506	0	29884	
4507	0	29936	
4508	0	29928	
4509	0	30018	
4510	0	30084	
4511	0	30128	
4512	0	30184	
4513	0	30232	
4514	0	30234	
4515	0	30280	
4516	0	30242	
4517	0	30236	
4518	0	30264	
4519	0	30336	
4520	0	30388	
4521	0	30432	
4522	0	30396	
4523	0	30324	
4524	0	30324	
4525	0	30428	
4526	0	30428	
4527	0	30368	
4528	0	30340	
4529	0	30312	
4530	0	30304	
4531	0	30330	
4532	0	30344	
4533	0	30388	
4534	0	30428	
4535	0	30506	
4536	0	30578	
4537	0	30596	
4538	0	30604	
4539	0	30616	
4540	0	30604	
4541	0	30700	
4542	0	30680	
4543	0	30648	
4544	0	30664	
4545	0	30696	
4546	0	30748	
4547	0	30788	
4548	0	30778	
4549	0	30772	
4550	0	30880	
4551	0	30896	
4552	0	30852	
4553	0	30828	
4554	0	30824	
4555	0	30896	
4556	0	30932	
4557	0	30924	
4558	0	30984	
4559	0	31000	
4560	0	30984	
4561	0	31012	
4562	0	30990	
4563	0	30996	
4564	0	31052	
4565	0	31106	
4566	0	31072	
4567	0	30936	
4568	0	30904	
4569	0	30972	
4570	0	30996	
4571	0	31016	
4572	0	31032	
4573	0	31112	
4574	0	31160	
4575	0	31104	
4576	0	31076	
4577	0	31104	
4578	0	31188	
4579	0	31212	
4580	0	31104	
4581	0	31080	
4582	0	31060	
4583	0	31124	
4584	0	31164	
4585	0	31216	
4586	0	31284	
4587	0	31376	
4588	0	31428	
4589	0	31330	
4590	0	31280	
4591	0	31244	
4592	0	31182	
4593	0	31176	
4594	0	31204	
4595	0	31264	
4596	0	31356	
4597	0	31436	
4598	0	31368	
4599	0	31260	
4600	0	31292	
4601	0	31360	
4602	0	31408	
4603	0	31428	
4604	0	31372	
4605	0	31288	
4606	0	31368	
4607	0	31464	
4608	0	31440	
4609	0	31428	
4610	0	31538	
4611	0	31536	
4612	0	31356	
4613	0	31266	
4614	0	31256	
4615	0	31222	
4616	0	31240	
4617	0	31232	
4618	0	31220	
4619	0	31200	
4620	0	31224	
4621	0	31352	
4622	0	31416	
4623	0	31392	
4624	0	31368	
4625	0	31376	
4626	0	31356	
4627	0	31360	
4628	0	31384	
4629	0	31464	
4630	0	31544	
4631	0	31560	
4632	0	31564	
4633	0	31624	
4634	0	31652	
4635	0	31648	
4636	0	31664	
4637	0	31748	
4638	0	31776	
4639	0	31730	
4640	0	31752	
4641	0	31792	
4642	0	31764	
4643	0	31768	
4644	0	31792	
4645	0	31813	
4646	0	31852	
4647	0	31916	
4648	0	31944	
4649	0	31936	
4650	0	31964	
4651	0	31974	
4652	0	32000	
4653	0	32010	
4654	0	31904	
4655	0	31861	
4656	0	31856	
4657	0	31908	
4658	0	31940	
4659	0	32020	
4660	0	32084	
4661	0	32132	
4662	0	32188	
4663	0	32208	
4664	0	32244	
4665	0	32320	
4666	0	32424	
4667	0	32628	
4668	0	32636	
4669	0	32544	
4670	0	32552	
4671	0	32616	
4672	0	32704	
4673	0	32888	
4674	0	33164	
4675	0	33400	
4676	0	33544	
4677	0	33612	
4678	0	33616	
4679	0	33608	
4680	0	33684	
4681	0	33760	
4682	0	33818	
4683	0	33848	
4684	0	33872	
4685	0	33912	
4686	0	33960	
4687	0	34000	
4688	0	34002	
4689	0	34018	
4690	0	34128	
4691	0	34248	
4692	0	34348	
4693	0	34508	
4694	0	34752	
4695	0	34832	
4696	0	34880	
4697	0	34936	
4698	0	34968	
4699	0	34948	
4700	0	34892	
4701	0	34864	
4702	0	34904	
4703	0	34960	
4704	0	35040	
4705	0	35136	
4706	0	35280	
4707	0	35424	
4708	0	35524	
4709	0	35492	
4710	0	35352	
4711	0	35216	
4712	0	35108	
4713	0	34956	
4714	0	34784	
4715	0	34560	
4716	0	34368	
4717	0	34144	
4718	0	33948	
4719	0	33800	
4720	0	33716	
4721	0	33664	
4722	0	33608	
4723	0	33556	
4724	0	33556	
4725	0	33516	
4726	0	33452	
4727	0	33364	
4728	0	33320	
4729	0	33276	
4730	0	33172	
4731	0	33104	
4732	0	33012	
4733	0	32956	
4734	0	32888	
4735	0	32816	
4736	0	32792	
4737	0	32716	
4738	0	32652	
4739	0	32636	
4740	0	32624	
4741	0	32568	
4742	0	32434	
4743	0	32292	
4744	0	32142	
4745	0	32018	
4746	0	31934	
4747	0	31876	
4748	0	31794	
4749	0	31708	
4750	0	31592	
4751	0	31472	
4752	0	31392	
4753	0	31378	
4754	0	31400	
4755	0	31376	
4756	0	31416	
4757	0	31524	
4758	0	31592	
4759	0	31588	
4760	0	31564	
4761	0	31588	
4762	0	31592	
4763	0	31528	
4764	0	31496	
4765	0	31516	
4766	0	31528	
4767	0	31532	
4768	0	31480	
4769	0	31500	
4770	0	31524	
4771	0	31500	
4772	0	31476	
4773	0	31496	
4774	0	31556	
4775	0	31564	
4776	0	31584	
4777	0	31588	
4778	0	31576	
4779	0	31586	
4780	0	31560	
4781	0	31552	
4782	0	31552	
4783	0	31552	
4784	0	31540	
4785	0	31564	
4786	0	31594	
4787	0	31624	
4788	0	31642	
4789	0	31696	
4790	0	31736	
4791	0	31736	
4792	0	31752	
4793	0	31748	
4794	0	31720	
4795	0	31680	
4796	0	31616	
4797	0	31604	
4798	0	31624	
4799	0	31692	
4800	0	31724	
4801	0	31736	
4802	0	31728	
4803	0	31740	
4804	0	31788	
4805	0	31824	
4806	0	31872	
4807	0	31944	
4808	0	31976	
4809	0	32004	
4810	0	32044	
4811	0	32132	
4812	0	32188	
4813	0	32168	
4814	0	32128	
4815	0	32000	
4816	0	31868	
4817	0	31796	
4818	0	31768	
4819	0	31754	
4820	0	31660	
4821	0	31528	
4822	0	31376	
4823	0	31292	
4824	0	31256	
4825	0	31244	
4826	0	31376	
4827	0	31568	
4828	0	31936	
4829	0	32588	
4830	0	33180	
4831	0	33680	
4832	0	34424	
4833	0	35372	
4834	0	36380	
4835	0	37480	
4836	0	38808	
4837	0	40256	
4838	0	41724	
4839	0	43124	
4840	0	44570	
4841	0	46084	
4842	0	47588	
4843	0	49072	
4844	0	50544	
4845	0	51936	
4846	0	53172	
4847	0	54240	
4848	0	55400	
4849	0	56640	
4850	0	57756	
4851	0	58616	
4852	0	59096	
4853	0	59328	
4854	0	58896	
4855	0	57476	
4856	0	55232	
4857	0	52320	
4858	0	49136	
4859	0	45876	
4860	0	42448	
4861	0	38684	
4862	0	34704	
4863	0	31104	
4864	0	28364	
4865	0	26612	
4866	0	25692	
4867	0	25312	
4868	0	25312	
4869	0	25560	
4870	0	25780	
4871	0	25980	
4872	0	26284	
4873	0	26700	
4874	0	27160	
4875	0	27608	
4876	0	28062	
4877	0	28540	
4878	0	29048	
4879	0	29440	
4880	0	29788	
4881	0	30128	
4882	0	30436	
4883	0	30668	
4884	0	30820	
4885	0	30898	
4886	0	30932	
4887	0	30936	
4888	0	30896	
4889	0	30796	
4890	0	30724	
4891	0	30652	
4892	0	30612	
4893	0	30608	
4894	0	30656	
4895	0	30756	
4896	0	30704	
4897	0	30580	
4898	0	30560	
4899	0	30656	
4900	0	30608	
4901	0	30462	
4902	0	30426	
4903	0	30452	
4904	0	30520	
4905	0	30596	
4906	0	30664	
4907	0	30752	
4908	0	30664	
4909	0	30588	
4910	0	30632	
4911	0	30696	
4912	0	30728	
4913	0	30804	
4914	0	30896	
4915	0	31024	
4916	0	31016	
4917	0	30866	
4918	0	30776	
4919	0	30744	
4920	0	30840	
4921	0	30952	
4922	0	31042	
4923	0	31056	
4924	0	31044	
4925	0	31040	
4926	0	31012	
4927	0	30984	
4928	0	31004	
4929	0	31032	
4930	0	31044	
4931	0	31066	
4932	0	31140	
4933	0	31236	
4934	0	31332	
4935	0	31384	
4936	0	31408	
4937	0	31412	
4938	0	31432	
4939	0	31492	
4940	0	31552	
4941	0	31600	
4942	0	31612	
4943	0	31616	
4944	0	31660	
4945	0	31708	
4946	0	31732	
4947	0	31680	
4948	0	31680	
4949	0	31716	
4950	0	31796	
4951	0	31852	
4952	0	31896	
4953	0	31956	
4954	0	31908	
4955	0	31908	
4956	0	31956	
4957	0	31964	
4958	0	31998	
4959	0	32068	
4960	0	32088	
4961	0	32056	
4962	0	32056	
4963	0	32032	
4964	0	32044	
4965	0	32152	
4966	0	32232	
4967	0	32322	
4968	0	32352	
4969	0	32328	
4970	0	32304	
4971	0	32296	
4972	0	32316	
4973	0	32352	
4974	0	32396	
4975	0	32426	
4976	0	32468	
4977	0	32576	
4978	0	32668	
4979	0	32632	
4980	0	32596	
4981	0	32632	
4982	0	32676	
4983	0	32772	
4984	0	32936	
4985	0	32884	
4986	0	32736	
4987	0	32716	
4988	0	32784	
4989	0	32844	
4990	0	32856	
4991	0	32848	
4992	0	32844	
4993	0	32934	
4994	0	33024	
4995	0	33060	
4996	0	33104	
4997	0	33204	
4998	0	33268	
4999	0	33276	
5000	0	33286	
5001	0	33304	
5002	0	33344	
5003	0	33332	
5004	0	33304	
5005	0	33332	
5006	0	33294	
5007	0	33236	
5008	0	33256	
5009	0	33328	
5010	0	33356	
5011	0	33344	
5012	0	33344	
5013	0	33376	
5014	0	33456	
5015	0	33494	
5016	0	33648	
5017	0	33728	
5018	0	33660	
5019	0	33570	
5020	0	33600	
5021	0	33664	
5022	0	33692	
5023	0	33748	
5024	0	33780	
5025	0	33802	
5026	0	33844	
5027	0	33900	
5028	0	33908	
5029	0	33962	
5030	0	34112	
5031	0	34272	
5032	0	34364	
5033	0	34292	
5034	0	34248	
5035	0	34332	
5036	0	34424	
5037	0	34488	
5038	0	34532	
5039	0	34600	
5040	0	34606	
5041	0	34572	
5042	0	34628	
5043	0	34786	
5044	0	34908	
5045	0	34984	
5046	0	35040	
5047	0	35060	
5048	0	35048	
5049	0	35020	
5050	0	35092	
5051	0	35272	
5052	0	35388	
5053	0	35480	
5054	0	35608	
5055	0	35628	
5056	0	35616	
5057	0	35716	
5058	0	35816	
5059	0	35932	
5060	0	36068	
5061	0	36188	
5062	0	36160	
5063	0	36192	
5064	0	36252	
5065	0	36368	
5066	0	36528	
5067	0	36584	
5068	0	36604	
5069	0	36656	
5070	0	36748	
5071	0	36800	
5072	0	36844	
5073	0	36880	
5074	0	36888	
5075	0	36988	
5076	0	37096	
5077	0	37178	
5078	0	37264	
5079	0	37348	
5080	0	37344	
5081	0	37340	
5082	0	37460	
5083	0	37468	
5084	0	37504	
5085	0	37628	
5086	0	37784	
5087	0	37860	
5088	0	37878	
5089	0	37920	
5090	0	37984	
5091	0	38068	
5092	0	38104	
5093	0	38124	
5094	0	38144	
5095	0	38176	
5096	0	38200	
5097	0	38192	
5098	0	38176	
5099	0	38188	
5100	0	38152	
5101	0	38136	
5102	0	38180	
5103	0	38204	
5104	0	38040	
5105	0	37904	
5106	0	37860	
5107	0	37786	
5108	0	37688	
5109	0	37592	
5110	0	37496	
5111	0	37360	
5112	0	37192	
5113	0	36974	
5114	0	36728	
5115	0	36520	
5116	0	36368	
5117	0	36292	
5118	0	36188	
5119	0	36024	
5120	0	35868	
5121	0	35688	
5122	0	35530	
5123	0	35392	
5124	0	35216	
5125	0	34976	
5126	0	34690	
5127	0	34456	
5128	0	34208	
5129	0	33960	
5130	0	33754	
5131	0	33572	
5132	0	33368	
5133	0	33128	
5134	0	32960	
5135	0	32864	
5136	0	32708	
5137	0	32540	
5138	0	32340	
5139	0	32064	
5140	0	31888	
5141	0	31784	
5142	0	31698	
5143	0	31588	
5144	0	31436	
5145	0	31284	
5146	0	31132	
5147	0	30988	
5148	0	30904	
5149	0	30756	
5150	0	30552	
5151	0	30406	
5152	0	30272	
5153	0	30192	
5154	0	30128	
5155	0	30108	
5156	0	30096	
5157	0	29948	
5158	0	29760	
5159	0	29658	
5160	0	29628	
5161	0	29584	
5162	0	29550	
5163	0	29504	
5164	0	29480	
5165	0	29420	
5166	0	29414	
5167	0	29396	
5168	0	29310	
5169	0	29248	
5170	0	29236	
5171	0	29252	
5172	0	29212	
5173	0	29164	
5174	0	29186	
5175	0	29220	
5176	0	29276	
5177	0	29348	
5178	0	29348	
5179	0	29384	
5180	0	29336	
5181	0	29292	
5182	0	29280	
5183	0	29272	
5184	0	29324	
5185	0	29248	
5186	0	29248	
5187	0	29288	
5188	0	29332	
5189	0	29352	
5190	0	29332	
5191	0	29336	
5192	0	29368	
5193	0	29376	
5194	0	29436	
5195	0	29454	
5196	0	29432	
5197	0	29400	
5198	0	29410	
5199	0	29420	
5200	0	29440	
5201	0	29520	
5202	0	29604	
5203	0	29640	
5204	0	29658	
5205	0	29692	
5206	0	29712	
5207	0	29716	
5208	0	29852	
5209	0	29984	
5210	0	29952	
5211	0	29860	
5212	0	29896	
5213	0	29904	
5214	0	29950	
5215	0	29964	
5216	0	29976	
5217	0	30024	
5218	0	30098	
5219	0	30144	
5220	0	30180	
5221	0	30176	
5222	0	30204	
5223	0	30250	
5224	0	30242	
5225	0	30260	
5226	0	30308	
5227	0	30356	
5228	0	30280	
5229	0	30220	
5230	0	30360	
5231	0	30552	
5232	0	30504	
5233	0	30420	
5234	0	30384	
5235	0	30404	
5236	0	30490	
5237	0	30576	
5238	0	30616	
5239	0	30588	
5240	0	30572	
5241	0	30622	
5242	0	30752	
5243	0	30836	
5244	0	30872	
5245	0	30962	
5246	0	30916	
5247	0	30764	
5248	0	30712	
5249	0	30696	
5250	0	30788	
5251	0	30844	
5252	0	30830	
5253	0	30828	
5254	0	30848	
5255	0	30852	
5256	0	30848	
5257	0	30860	
5258	0	30868	
5259	0	30912	
5260	0	30948	
5261	0	30996	
5262	0	31032	
5263	0	31070	
5264	0	31050	
5265	0	31046	
5266	0	31062	
5267	0	31114	
5268	0	31144	
5269	0	31144	
5270	0	31136	
5271	0	31136	
5272	0	31104	
5273	0	31084	
5274	0	31128	
5275	0	31164	
5276	0	31196	
5277	0	31264	
5278	0	31416	
5279	0	31444	
5280	0	31320	
5281	0	31264	
5282	0	31224	
5283	0	31268	
5284	0	31304	
5285	0	31210	
5286	0	31256	
5287	0	31360	
5288	0	31484	
5289	0	31440	
5290	0	31356	
5291	0	31372	
5292	0	31416	
5293	0	31388	
5294	0	31392	
5295	0	31480	
5296	0	31460	
5297	0	31308	
5298	0	31272	
5299	0	31256	
5300	0	31384	
5301	0	31452	
5302	0	31348	
5303	0	31336	
5304	0	31360	
5305	0	31376	
5306	0	31396	
5307	0	31438	
5308	0	31388	
5309	0	31396	
5310	0	31420	
5311	0	31416	
5312	0	31392	
5313	0	31400	
5314	0	31390	
5315	0	31360	
5316	0	31344	
5317	0	31372	
5318	0	31388	
5319	0	31360	
5320	0	31384	
5321	0	31428	
5322	0	31424	
5323	0	31454	
5324	0	31464	
5325	0	31472	
5326	0	31580	
5327	0	31624	
5328	0	31668	
5329	0	31684	
5330	0	31652	
5331	0	31628	
5332	0	31608	
5333	0	31632	
5334	0	31636	
5335	0	31668	
5336	0	31648	
5337	0	31644	
5338	0	31676	
5339	0	31680	
5340	0	31662	
5341	0	31656	
5342	0	31644	
5343	0	31600	
5344	0	31556	
5345	0	31584	
5346	0	31680	
5347	0	31760	
5348	0	31708	
5349	0	31532	
5350	0	31486	
5351	0	31516	
5352	0	31576	
5353	0	31716	
5354	0	31842	
5355	0	31776	
5356	0	31764	
5357	0	31824	
5358	0	31852	
5359	0	31856	
5360	0	31852	
5361	0	31796	
5362	0	31776	
5363	0	31768	
5364	0	31764	
5365	0	31812	
5366	0	31868	
5367	0	31908	
5368	0	31895	
5369	0	31868	
5370	0	31880	
5371	0	31860	
5372	0	31852	
5373	0	31848	
5374	0	31840	
5375	0	31856	
5376	0	31916	
5377	0	31930	
5378	0	31952	
5379	0	32022	
5380	0	32044	
5381	0	32056	
5382	0	32080	
5383	0	32072	
5384	0	32064	
5385	0	32188	
5386	0	32196	
5387	0	32096	
5388	0	32104	
5389	0	32200	
5390	0	32276	
5391	0	32320	
5392	0	32396	
5393	0	32356	
5394	0	32432	
5395	0	32612	
5396	0	32828	
5397	0	33060	
5398	0	33296	
5399	0	33456	
5400	0	33588	
5401	0	33728	
5402	0	33912	
5403	0	34000	
5404	0	33980	
5405	0	33920	
5406	0	33912	
5407	0	33936	
5408	0	34000	
5409	0	34096	
5410	0	34168	
5411	0	34236	
5412	0	34284	
5413	0	34340	
5414	0	34360	
5415	0	34380	
5416	0	34440	
5417	0	34508	
5418	0	34528	
5419	0	34572	
5420	0	34654	
5421	0	34750	
5422	0	34844	
5423	0	34920	
5424	0	34968	
5425	0	34952	
5426	0	34916	
5427	0	34852	
5428	0	34844	
5429	0	34920	
5430	0	35000	
5431	0	35124	
5432	0	35296	
5433	0	35404	
5434	0	35484	
5435	0	35448	
5436	0	35280	
5437	0	35120	
5438	0	35038	
5439	0	34932	
5440	0	34736	
5441	0	34492	
5442	0	34256	
5443	0	34100	
5444	0	33952	
5445	0	33764	
5446	0	33656	
5447	0	33568	
5448	0	33408	
5449	0	33232	
5450	0	33184	
5451	0	33184	
5452	0	33196	
5453	0	33184	
5454	0	33168	
5455	0	33164	
5456	0	33124	
5457	0	33076	
5458	0	33036	
5459	0	33028	
5460	0	33076	
5461	0	32948	
5462	0	32800	
5463	0	32732	
5464	0	32660	
5465	0	32592	
5466	0	32524	
5467	0	32476	
5468	0	32452	
5469	0	32352	
5470	0	32256	
5471	0	32128	
5472	0	32029	
5473	0	31928	
5474	0	31768	
5475	0	31600	
5476	0	31504	
5477	0	31434	
5478	0	31396	
5479	0	31508	
5480	0	31428	
5481	0	31216	
5482	0	31136	
5483	0	31184	
5484	0	31216	
5485	0	31200	
5486	0	31236	
5487	0	31196	
5488	0	31184	
5489	0	31253	
5490	0	31340	
5491	0	31364	
5492	0	31428	
5493	0	31516	
5494	0	31424	
5495	0	31396	
5496	0	31428	
5497	0	31448	
5498	0	31490	
5499	0	31468	
5500	0	31416	
5501	0	31436	
5502	0	31520	
5503	0	31520	
5504	0	31480	
5505	0	31448	
5506	0	31428	
5507	0	31380	
5508	0	31384	
5509	0	31400	
5510	0	31396	
5511	0	31428	
5512	0	31460	
5513	0	31484	
5514	0	31464	
5515	0	31450	
5516	0	31456	
5517	0	31468	
5518	0	31436	
5519	0	31396	
5520	0	31464	
5521	0	31482	
5522	0	31488	
5523	0	31520	
5524	0	31528	
5525	0	31588	
5526	0	31628	
5527	0	31624	
5528	0	31708	
5529	0	31728	
5530	0	31744	
5531	0	31784	
5532	0	31796	
5533	0	31866	
5534	0	31948	
5535	0	31964	
5536	0	31944	
5537	0	32016	
5538	0	32088	
5539	0	32076	
5540	0	32048	
5541	0	32072	
5542	0	32140	
5543	0	32008	
5544	0	31912	
5545	0	31802	
5546	0	31640	
5547	0	31472	
5548	0	31330	
5549	0	31276	
5550	0	31340	
5551	0	31452	
5552	0	31610	
5553	0	31908	
5554	0	32316	
5555	0	32848	
5556	0	33480	
5557	0	34132	
5558	0	34906	
5559	0	35876	
5560	0	36800	
5561	0	37818	
5562	0	39180	
5563	0	40612	
5564	0	41992	
5565	0	43356	
5566	0	44760	
5567	0	46224	
5568	0	47728	
5569	0	49248	
5570	0	50696	
5571	0	52048	
5572	0	53364	
5573	0	54608	
5574	0	55820	
5575	0	56908	
5576	0	57816	
5577	0	58476	
5578	0	58864	
5579	0	59004	
5580	0	58200	
5581	0	56360	
5582	0	53736	
5583	0	50584	
5584	0	47292	
5585	0	44048	
5586	0	40556	
5587	0	36672	
5588	0	32824	
5589	0	29792	
5590	0	27772	
5591	0	26552	
5592	0	25896	
5593	0	25628	
5594	0	25660	
5595	0	25860	
5596	0	26176	
5597	0	26574	
5598	0	27028	
5599	0	27568	
5600	0	28136	
5601	0	28680	
5602	0	29140	
5603	0	29652	
5604	0	30078	
5605	0	30480	
5606	0	30804	
5607	0	31072	
5608	0	31272	
5609	0	31220	
5610	0	31248	
5611	0	31232	
5612	0	31104	
5613	0	30984	
5614	0	30912	
5615	0	30864	
5616	0	30852	
5617	0	30816	
5618	0	30710	
5619	0	30652	
5620	0	30596	
5621	0	30552	
5622	0	30508	
5623	0	30476	
5624	0	30468	
5625	0	30502	
5626	0	30490	
5627	0	30484	
5628	0	30528	
5629	0	30552	
5630	0	30640	
5631	0	30752	
5632	0	30836	
5633	0	30932	
5634	0	30844	
5635	0	30720	
5636	0	30682	
5637	0	30712	
5638	0	30732	
5639	0	30844	
5640	0	30904	
5641	0	30797	
5642	0	30670	
5643	0	30660	
5644	0	30764	
5645	0	30852	
5646	0	30904	
5647	0	30952	
5648	0	31016	
5649	0	31024	
5650	0	31032	
5651	0	31044	
5652	0	31104	
5653	0	31154	
5654	0	31180	
5655	0	31188	
5656	0	31248	
5657	0	31226	
5658	0	31212	
5659	0	31248	
5660	0	31246	
5661	0	31192	
5662	0	31212	
5663	0	31268	
5664	0	31340	
5665	0	31356	
5666	0	31360	
5667	0	31428	
5668	0	31544	
5669	0	31624	
5670	0	31668	
5671	0	31720	
5672	0	31776	
5673	0	31792	
5674	0	31760	
5675	0	31724	
5676	0	31766	
5677	0	31848	
5678	0	31912	
5679	0	31908	
5680	0	31906	
5681	0	31904	
5682	0	31920	
5683	0	31980	
5684	0	32020	
5685	0	32032	
5686	0	32000	
5687	0	31996	
5688	0	32016	
5689	0	32048	
5690	0	32128	
5691	0	32160	
5692	0	32208	
5693	0	32296	
5694	0	32324	
5695	0	32332	
5696	0	32310	
5697	0	32328	
5698	0	32380	
5699	0	32392	
5700	0	32396	
5701	0	32416	
5702	0	32442	
5703	0	32466	
5704	0	32532	
5705	0	32560	
5706	0	32520	
5707	0	32448	
5708	0	32554	
5709	0	32676	
5710	0	32712	
5711	0	32722	
5712	0	32718	
5713	0	32800	
5714	0	32896	
5715	0	33024	
5716	0	33116	
5717	0	33052	
5718	0	33028	
5719	0	33056	
5720	0	33104	
5721	0	33122	
5722	0	33184	
5723	0	33186	
5724	0	33096	
5725	0	33112	
5726	0	33216	
5727	0	33360	
5728	0	33480	
5729	0	33436	
5730	0	33360	
5731	0	33308	
5732	0	33328	
5733	0	33384	
5734	0	33448	
5735	0	33484	
5736	0	33484	
5737	0	33536	
5738	0	33608	
5739	0	33672	
5740	0	33640	
5741	0	33576	
5742	0	33600	
5743	0	33648	
5744	0	33740	
5745	0	33816	
5746	0	33824	
5747	0	33836	
5748	0	33856	
5749	0	33880	
5750	0	33892	
5751	0	33932	
5752	0	34032	
5753	0	34132	
5754	0	34164	
5755	0	34192	
5756	0	34228	
5757	0	34264	
5758	0	34264	
5759	0	34290	
5760	0	34308	
5761	0	34356	
5762	0	34420	
5763	0	34472	
5764	0	34576	
5765	0	34680	
5766	0	34688	
5767	0	34688	
5768	0	34692	
5769	0	34712	
5770	0	34784	
5771	0	34856	
5772	0	34892	
5773	0	35048	
5774	0	35132	
5775	0	35204	
5776	0	35320	
5777	0	35384	
5778	0	35440	
5779	0	35500	
5780	0	35584	
5781	0	35700	
5782	0	35808	
5783	0	35892	
5784	0	35932	
5785	0	35960	
5786	0	35984	
5787	0	36060	
5788	0	36100	
5789	0	36152	
5790	0	36248	
5791	0	36336	
5792	0	36444	
5793	0	36524	
5794	0	36628	
5795	0	36680	
5796	0	36728	
5797	0	36836	
5798	0	36944	
5799	0	37008	
5800	0	37096	
5801	0	37184	
5802	0	37236	
5803	0	37306	
5804	0	37380	
5805	0	37436	
5806	0	37468	
5807	0	37504	
5808	0	37594	
5809	0	37644	
5810	0	37696	
5811	0	37764	
5812	0	37802	
5813	0	37808	
5814	0	37888	
5815	0	37944	
5816	0	37880	
5817	0	37864	
5818	0	37872	
5819	0	37892	
5820	0	37976	
5821	0	38072	
5822	0	38136	
5823	0	38152	
5824	0	38144	
5825	0	38144	
5826	0	38116	
5827	0	38056	
5828	0	38040	
5829	0	38016	
5830	0	37918	
5831	0	37820	
5832	0	37864	
5833	0	37808	
5834	0	37632	
5835	0	37512	
5836	0	37360	
5837	0	37192	
5838	0	37044	
5839	0	36900	
5840	0	36732	
5841	0	36540	
5842	0	36392	
5843	0	36256	
5844	0	36064	
5845	0	35900	
5846	0	35748	
5847	0	35572	
5848	0	35332	
5849	0	35048	
5850	0	34836	
5851	0	34742	
5852	0	34496	
5853	0	34184	
5854	0	33948	
5855	0	33816	
5856	0	33672	
5857	0	33518	
5858	0	33278	
5859	0	33076	
5860	0	32908	
5861	0	32652	
5862	0	32410	
5863	0	32188	
5864	0	31946	
5865	0	31764	
5866	0	31636	
5867	0	31500	
5868	0	31418	
5869	0	31304	
5870	0	31200	
5871	0	31072	
5872	0	30880	
5873	0	30752	
5874	0	30696	
5875	0	30586	
5876	0	30512	
5877	0	30454	
5878	0	30308	
5879	0	30152	
5880	0	30032	
5881	0	29978	
5882	0	29906	
5883	0	29868	
5884	0	29836	
5885	0	29808	
5886	0	29760	
5887	0	29620	
5888	0	29516	
5889	0	29472	
5890	0	29480	
5891	0	29432	
5892	0	29382	
5893	0	29368	
5894	0	29320	
5895	0	29300	
5896	0	29352	
5897	0	29396	
5898	0	29344	
5899	0	29276	
5900	0	29240	
5901	0	29292	
5902	0	29352	
5903	0	29356	
5904	0	29280	
5905	0	29264	
5906	0	29344	
5907	0	29384	
5908	0	29408	
5909	0	29426	
5910	0	29456	
5911	0	29506	
5912	0	29516	
5913	0	29452	
5914	0	29476	
5915	0	29544	
5916	0	29594	
5917	0	29616	
5918	0	29610	
5919	0	29580	
5920	0	29577	
5921	0	29572	
5922	0	29568	
5923	0	29600	
5924	0	29606	
5925	0	29700	
5926	0	29648	
5927	0	29632	
5928	0	29632	
5929	0	29636	
5930	0	29668	
5931	0	29696	
5932	0	29730	
5933	0	29760	
5934	0	29736	
5935	0	29724	
5936	0	29740	
5937	0	29836	
5938	0	29904	
5939	0	29984	
5940	0	30000	
5941	0	30032	
5942	0	30056	
5943	0	30096	
5944	0	30148	
5945	0	30120	
5946	0	30142	
5947	0	30272	
5948	0	30352	
5949	0	30228	
5950	0	30160	
5951	0	30136	
5952	0	30146	
5953	0	30184	
5954	0	30272	
5955	0	30372	
5956	0	30472	
5957	0	30528	
5958	0	30504	
5959	0	30460	
5960	0	30444	
5961	0	30456	
5962	0	30524	
5963	0	30564	
5964	0	30590	
5965	0	30612	
5966	0	30604	
5967	0	30616	
5968	0	30628	
5969	0	30672	
5970	0	30714	
5971	0	30724	
5972	0	30738	
5973	0	30708	
5974	0	30762	
5975	0	30828	
5976	0	30844	
5977	0	30912	
5978	0	30936	
5979	0	30836	
5980	0	30836	
5981	0	30874	
5982	0	30920	
5983	0	30920	
5984	0	30926	
5985	0	30898	
5986	0	30848	
5987	0	30964	
5988	0	30936	
5989	0	30860	
5990	0	30894	
5991	0	30918	
5992	0	30988	
5993	0	31030	
5994	0	31028	
5995	0	31052	
5996	0	31072	
5997	0	31066	
5998	0	31068	
5999	0	31076	
6000	0	31100	
6001	0	31112	
6002	0	31144	
6003	0	31164	
6004	0	31148	
6005	0	31152	
6006	0	31184	
6007	0	31156	
6008	0	31188	
6009	0	31288	
6010	0	31180	
6011	0	31140	
6012	0	31196	
6013	0	31220	
6014	0	31186	
6015	0	31158	
6016	0	31216	
6017	0	31252	
6018	0	31266	
6019	0	31296	
6020	0	31312	
6021	0	31248	
6022	0	31208	
6023	0	31248	
6024	0	31264	
6025	0	31328	
6026	0	31376	
6027	0	31344	
6028	0	31316	
6029	0	31352	
6030	0	31464	
6031	0	31524	
6032	0	31482	
6033	0	31408	
6034	0	31384	
6035	0	31364	
6036	0	31340	
6037	0	31322	
6038	0	31342	
6039	0	31476	
6040	0	31576	
6041	0	31436	
6042	0	31296	
6043	0	31256	
6044	0	31280	
6045	0	31364	
6046	0	31400	
6047	0	31428	
6048	0	31464	
6049	0	31488	
6050	0	31556	
6051	0	31620	
6052	0	31580	
6053	0	31552	
6054	0	31520	
6055	0	31482	
6056	0	31478	
6057	0	31512	
6058	0	31528	
6059	0	31568	
6060	0	31566	
6061	0	31580	
6062	0	31532	
6063	0	31516	
6064	0	31484	
6065	0	31484	
6066	0	31506	
6067	0	31508	
6068	0	31568	
6069	0	31644	
6070	0	31662	
6071	0	31662	
6072	0	31592	
6073	0	31452	
6074	0	31436	
6075	0	31460	
6076	0	31440	
6077	0	31506	
6078	0	31592	
6079	0	31684	
6080	0	31652	
6081	0	31636	
6082	0	31680	
6083	0	31736	
6084	0	31796	
6085	0	31724	
6086	0	31696	
6087	0	31696	
6088	0	31696	
6089	0	31672	
6090	0	31696	
6091	0	31716	
6092	0	31768	
6093	0	31824	
6094	0	31828	
6095	0	31818	
6096	0	31800	
6097	0	31796	
6098	0	31808	
6099	0	31848	
6100	0	31872	
6101	0	31852	
6102	0	31872	
6103	0	31896	
6104	0	31936	
6105	0	31950	
6106	0	31958	
6107	0	31960	
6108	0	31956	
6109	0	32016	
6110	0	32092	
6111	0	32100	
6112	0	32016	
6113	0	32008	
6114	0	32056	
6115	0	32084	
6116	0	32116	
6117	0	32116	
6118	0	32124	
6119	0	32144	
6120	0	32160	
6121	0	32144	
6122	0	32140	
6123	0	32128	
6124	0	32124	
6125	0	32164	
6126	0	32160	
6127	0	32152	
6128	0	32160	
6129	0	32220	
6130	0	32240	
6131	0	32208	
6132	0	32180	
6133	0	32202	
6134	0	32300	
6135	0	32300	
6136	0	32272	
6137	0	32256	
6138	0	32268	
6139	0	32276	
6140	0	32304	
6141	0	32344	
6142	0	32332	
6143	0	32252	
6144	0	32202	
6145	0	32232	
6146	0	32332	
6147	0	32544	
6148	0	32664	
6149	0	32604	
6150	0	32526	
6151	0	32568	
6152	0	32680	
6153	0	32840	
6154	0	33056	
6155	0	33284	
6156	0	33504	
6157	0	33696	
6158	0	33868	
6159	0	34036	
6160	0	34184	
6161	0	34316	
6162	0	34352	
6163	0	34316	
6164	0	34232	
6165	0	34184	
6166	0	34184	
6167	0	34204	
6168	0	34256	
6169	0	34256	
6170	0	34208	
6171	0	34248	
6172	0	34330	
6173	0	34400	
6174	0	34544	
6175	0	34702	
6176	0	34836	
6177	0	35024	
6178	0	35200	
6179	0	35244	
6180	0	35300	
6181	0	35360	
6182	0	35392	
6183	0	35368	
6184	0	35288	
6185	0	35140	
6186	0	35006	
6187	0	34977	
6188	0	35064	
6189	0	35198	
6190	0	35408	
6191	0	35578	
6192	0	35686	
6193	0	35674	
6194	0	35576	
6195	0	35420	
6196	0	35272	
6197	0	35200	
6198	0	35064	
6199	0	34836	
6200	0	34536	
6201	0	34332	
6202	0	34168	
6203	0	34060	
6204	0	33960	
6205	0	33880	
6206	0	33860	
6207	0	33676	
6208	0	33488	
6209	0	33360	
6210	0	33260	
6211	0	33268	
6212	0	33268	
6213	0	33242	
6214	0	33208	
6215	0	33188	
6216	0	33152	
6217	0	33092	
6218	0	32996	
6219	0	32962	
6220	0	32980	
6221	0	32916	
6222	0	32842	
6223	0	32740	
6224	0	32676	
6225	0	32656	
6226	0	32636	
6227	0	32622	
6228	0	32512	
6229	0	32224	
6230	0	32040	
6231	0	31944	
6232	0	31884	
6233	0	31776	
6234	0	31592	
6235	0	31472	
6236	0	31332	
6237	0	31264	
6238	0	31236	
6239	0	31216	
6240	0	31176	
6241	0	31172	
6242	0	31220	
6243	0	31224	
6244	0	31216	
6245	0	31232	
6246	0	31224	
6247	0	31194	
6248	0	31188	
6249	0	31208	
6250	0	31236	
6251	0	31264	
6252	0	31252	
6253	0	31212	
6254	0	31184	
6255	0	31224	
6256	0	31284	
6257	0	31336	
6258	0	31272	
6259	0	31233	
6260	0	31296	
6261	0	31412	
6262	0	31456	
6263	0	31428	
6264	0	31438	
6265	0	31480	
6266	0	31540	
6267	0	31568	
6268	0	31520	
6269	0	31492	
6270	0	31532	
6271	0	31496	
6272	0	31440	
6273	0	31444	
6274	0	31424	
6275	0	31396	
6276	0	31416	
6277	0	31420	
6278	0	31408	
6279	0	31412	
6280	0	31440	
6281	0	31468	
6282	0	31540	
6283	0	31604	
6284	0	31656	
6285	0	31674	
6286	0	31674	
6287	0	31770	
6288	0	31818	
6289	0	31762	
6290	0	31716	
6291	0	31716	
6292	0	31748	
6293	0	31868	
6294	0	31832	
6295	0	31764	
6296	0	31840	
6297	0	31940	
6298	0	32020	
6299	0	32076	
6300	0	32084	
6301	0	32016	
6302	0	31940	
6303	0	31800	
6304	0	31632	
6305	0	31504	
6306	0	31322	
6307	0	31264	
6308	0	31320	
6309	0	31468	
6310	0	31608	
6311	0	31800	
6312	0	32108	
6313	0	32528	
6314	0	33024	
6315	0	33624	
6316	0	34312	
6317	0	35136	
6318	0	36120	
6319	0	37144	
6320	0	38416	
6321	0	39852	
6322	0	41240	
6323	0	42644	
6324	0	44016	
6325	0	45340	
6326	0	46784	
6327	0	48352	
6328	0	49912	
6329	0	51328	
6330	0	52636	
6331	0	53844	
6332	0	55096	
6333	0	56292	
6334	0	57240	
6335	0	57980	
6336	0	58496	
6337	0	58868	
6338	0	58688	
6339	0	57416	
6340	0	55240	
6341	0	52424	
6342	0	49144	
6343	0	45800	
6344	0	42482	
6345	0	38808	
6346	0	34944	
6347	0	31528	
6348	0	29028	
6349	0	27388	
6350	0	26520	
6351	0	26048	
6352	0	25812	
6353	0	25876	
6354	0	26180	
6355	0	26520	
6356	0	26972	
6357	0	27576	
6358	0	28092	
6359	0	28588	
6360	0	29108	
6361	0	29596	
6362	0	30024	
6363	0	30412	
6364	0	30776	
6365	0	31016	
6366	0	31156	
6367	0	31172	
6368	0	31092	
6369	0	31024	
6370	0	30924	
6371	0	30880	
6372	0	30858	
6373	0	30822	
6374	0	30752	
6375	0	30668	
6376	0	30581	
6377	0	30500	
6378	0	30442	
6379	0	30404	
6380	0	30372	
6381	0	30394	
6382	0	30444	
6383	0	30492	
6384	0	30504	
6385	0	30468	
6386	0	30474	
6387	0	30488	
6388	0	30492	
6389	0	30516	
6390	0	30586	
6391	0	30660	
6392	0	30712	
6393	0	30744	
6394	0	30826	
6395	0	30796	
6396	0	30756	
6397	0	30726	
6398	0	30612	
6399	0	30580	
6400	0	30632	
6401	0	30696	
6402	0	30712	
6403	0	30644	
6404	0	30672	
6405	0	30744	
6406	0	30800	
6407	0	30832	
6408	0	30848	
6409	0	30848	
6410	0	30848	
6411	0	30882	
6412	0	30913	
6413	0	30940	
6414	0	30960	
6415	0	31016	
6416	0	31120	
6417	0	31212	
6418	0	31281	
6419	0	31304	
6420	0	31332	
6421	0	31372	
6422	0	31388	
6423	0	31348	
6424	0	31400	
6425	0	31536	
6426	0	31548	
6427	0	31570	
6428	0	31676	
6429	0	31634	
6430	0	31518	
6431	0	31512	
6432	0	31528	
6433	0	31604	
6434	0	31660	
6435	0	31652	
6436	0	31650	
6437	0	31676	
6438	0	31656	
6439	0	31652	
6440	0	31732	
6441	0	31888	
6442	0	31996	
6443	0	31926	
6444	0	31856	
6445	0	31896	
6446	0	31992	
6447	0	32068	
6448	0	32080	
6449	0	32104	
6450	0	32156	
6451	0	32220	
6452	0	32280	
6453	0	32240	
6454	0	32198	
6455	0	32256	
6456	0	32320	
6457	0	32356	
6458	0	32332	
6459	0	32348	
6460	0	32436	
6461	0	32452	
6462	0	32456	
6463	0	32484	
6464	0	32516	
6465	0	32525	
6466	0	32534	
6467	0	32510	
6468	0	32528	
6469	0	32544	
6470	0	32548	
6471	0	32628	
6472	0	32718	
6473	0	32734	
6474	0	32772	
6475	0	32808	
6476	0	32800	
6477	0	32848	
6478	0	32917	
6479	0	32980	
6480	0	32972	
6481	0	32992	
6482	0	33068	
6483	0	33124	
6484	0	33164	
6485	0	33160	
6486	0	33132	
6487	0	33112	
6488	0	33136	
6489	0	33156	
6490	0	33160	
6491	0	33244	
6492	0	33376	
6493	0	33456	
6494	0	33456	
6495	0	33448	
6496	0	33464	
6497	0	33492	
6498	0	33556	
6499	0	33600	
6500	0	33608	
6501	0	33576	
6502	0	33608	
6503	0	33572	
6504	0	33528	
6505	0	33520	
6506	0	33588	
6507	0	33702	
6508	0	33740	
6509	0	33816	
6510	0	33876	
6511	0	33968	
6512	0	34008	
6513	0	34048	
6514	0	34168	
6515	0	34236	
6516	0	34108	
6517	0	34020	
6518	0	34124	
6519	0	34236	
6520	0	34324	
6521	0	34324	
6522	0	34330	
6523	0	34376	
6524	0	34492	
6525	0	34488	
6526	0	34512	
6527	0	34576	
6528	0	34724	
6529	0	34816	
6530	0	34884	
6531	0	34936	
6532	0	34978	
6533	0	35032	
6534	0	35076	
6535	0	35144	
6536	0	35240	
6537	0	35312	
6538	0	35368	
6539	0	35412	
6540	0	35504	
6541	0	35572	
6542	0	35632	
6543	0	35724	
6544	0	35796	
6545	0	35872	
6546	0	35968	
6547	0	36100	
6548	0	36236	
6549	0	36314	
6550	0	36376	
6551	0	36364	
6552	0	36386	
6553	0	36432	
6554	0	36508	
6555	0	36608	
6556	0	36674	
6557	0	36732	
6558	0	36780	
6559	0	36850	
6560	0	36968	
6561	0	37072	
6562	0	37144	
6563	0	37224	
6564	0	37280	
6565	0	37300	
6566	0	37344	
6567	0	37384	
6568	0	37416	
6569	0	37476	
6570	0	37544	
6571	0	37584	
6572	0	37680	
6573	0	37696	
6574	0	37718	
6575	0	37748	
6576	0	37784	
6577	0	37856	
6578	0	37928	
6579	0	37960	
6580	0	37936	
6581	0	37904	
6582	0	37952	
6583	0	37984	
6584	0	37982	
6585	0	37988	
6586	0	37956	
6587	0	37956	
6588	0	37912	
6589	0	37872	
6590	0	37824	
6591	0	37732	
6592	0	37624	
6593	0	37520	
6594	0	37396	
6595	0	37272	
6596	0	37144	
6597	0	36968	
6598	0	36814	
6599	0	36696	
6600	0	36636	
6601	0	36552	
6602	0	36356	
6603	0	36076	
6604	0	35820	
6605	0	35632	
6606	0	35448	
6607	0	35262	
6608	0	35128	
6609	0	34920	
6610	0	34612	
6611	0	34352	
6612	0	34224	
6613	0	34164	
6614	0	34024	
6615	0	33696	
6616	0	33348	
6617	0	33076	
6618	0	32802	
6619	0	32648	
6620	0	32512	
6621	0	32364	
6622	0	32228	
6623	0	32068	
6624	0	31892	
6625	0	31696	
6626	0	31556	
6627	0	31420	
6628	0	31278	
6629	0	31120	
6630	0	30952	
6631	0	30820	
6632	0	30688	
6633	0	30570	
6634	0	30416	
6635	0	30288	
6636	0	30212	
6637	0	30180	
6638	0	30104	
6639	0	29952	
6640	0	29856	
6641	0	29780	
6642	0	29732	
6643	0	29652	
6644	0	29596	
6645	0	29626	
6646	0	29617	
6647	0	29552	
6648	0	29506	
6649	0	29448	
6650	0	29368	
6651	0	29328	
6652	0	29272	
6653	0	29296	
6654	0	29368	
6655	0	29336	
6656	0	29212	
6657	0	29162	
6658	0	29144	
6659	0	29122	
6660	0	29128	
6661	0	29166	
6662	0	29228	
6663	0	29212	
6664	0	29144	
6665	0	29196	
6666	0	29208	
6667	0	29230	
6668	0	29228	
6669	0	29204	
6670	0	29228	
6671	0	29264	
6672	0	29296	
6673	0	29312	
6674	0	29330	
6675	0	29304	
6676	0	29276	
6677	0	29324	
6678	0	29400	
6679	0	29464	
6680	0	29498	
6681	0	29496	
6682	0	29504	
6683	0	29536	
6684	0	29572	
6685	0	29644	
6686	0	29738	
6687	0	29672	
6688	0	29648	
6689	0	29664	
6690	0	29660	
6691	0	29692	
6692	0	29730	
6693	0	29724	
6694	0	29716	
6695	0	29768	
6696	0	29742	
6697	0	29720	
6698	0	29772	
6699	0	29848	
6700	0	29872	
6701	0	29880	
6702	0	29888	
6703	0	29948	
6704	0	29984	
6705	0	30064	
6706	0	30090	
6707	0	30050	
6708	0	30052	
6709	0	30080	
6710	0	30080	
6711	0	30094	
6712	0	30116	
6713	0	30104	
6714	0	30240	
6715	0	30340	
6716	0	30340	
6717	0	30296	
6718	0	30328	
6719	0	30412	
6720	0	30436	
6721	0	30440	
6722	0	30442	
6723	0	30472	
6724	0	30460	
6725	0	30452	
6726	0	30488	
6727	0	30444	
6728	0	30516	
6729	0	30604	
6730	0	30658	
6731	0	30704	
6732	0	30690	
6733	0	30668	
6734	0	30648	
6735	0	30584	
6736	0	30600	
6737	0	30746	
6738	0	30844	
6739	0	30872	
6740	0	30884	
6741	0	30856	
6742	0	30820	
6743	0	30878	
6744	0	30968	
6745	0	30976	
6746	0	30940	
6747	0	30848	
6748	0	30812	
6749	0	30896	
6750	0	30964	
6751	0	31088	
6752	0	31104	
6753	0	30972	
6754	0	30892	
6755	0	30896	
6756	0	30924	
6757	0	30952	
6758	0	31004	
6759	0	30996	
6760	0	30996	
6761	0	30992	
6762	0	30936	
6763	0	30896	
6764	0	30928	
6765	0	31028	
6766	0	31092	
6767	0	31076	
6768	0	31032	
6769	0	31080	
6770	0	31156	
6771	0	31196	
6772	0	31216	
6773	0	31168	
6774	0	31116	
6775	0	31164	
6776	0	31168	
6777	0	31118	
6778	0	31088	
6779	0	31108	
6780	0	31148	
6781	0	31240	
6782	0	31320	
6783	0	31176	
6784	0	31148	
6785	0	31154	
6786	0	31080	
6787	0	31124	
6788	0	31252	
6789	0	31296	
6790	0	31264	
6791	0	31208	
6792	0	31208	
6793	0	31266	
6794	0	31316	
6795	0	31372	
6796	0	31374	
6797	0	31416	
6798	0	31456	
6799	0	31464	
6800	0	31458	
6801	0	31488	
6802	0	31458	
6803	0	31436	
6804	0	31452	
6805	0	31436	
6806	0	31352	
6807	0	31364	
6808	0	31440	
6809	0	31540	
6810	0	31440	
6811	0	31364	
6812	0	31396	
6813	0	31444	
6814	0	31448	
6815	0	31416	
6816	0	31432	
6817	0	31356	
6818	0	31296	
6819	0	31276	
6820	0	31272	
6821	0	31300	
6822	0	31328	
6823	0	31388	
6824	0	31448	
6825	0	31464	
6826	0	31504	
6827	0	31596	
6828	0	31664	
6829	0	31556	
6830	0	31456	
6831	0	31460	
6832	0	31484	
6833	0	31508	
6834	0	31580	
6835	0	31610	
6836	0	31640	
6837	0	31660	
6838	0	31672	
6839	0	31684	
6840	0	31636	
6841	0	31588	
6842	0	31552	
6843	0	31540	
6844	0	31580	
6845	0	31572	
6846	0	31556	
6847	0	31564	
6848	0	31628	
6849	0	31652	
6850	0	31640	
6851	0	31624	
6852	0	31652	
6853	0	31696	
6854	0	31760	
6855	0	31792	
6856	0	31760	
6857	0	31752	
6858	0	31720	
6859	0	31704	
6860	0	31696	
6861	0	31744	
6862	0	31684	
6863	0	31672	
6864	0	31732	
6865	0	31792	
6866	0	31808	
6867	0	31816	
6868	0	31786	
6869	0	31792	
6870	0	31924	
6871	0	31948	
6872	0	31852	
6873	0	31770	
6874	0	31740	
6875	0	31748	
6876	0	31800	
6877	0	31916	
6878	0	31960	
6879	0	31920	
6880	0	32002	
6881	0	31988	
6882	0	31952	
6883	0	31920	
6884	0	31954	
6885	0	32056	
6886	0	32106	
6887	0	32124	
6888	0	32130	
6889	0	32052	
6890	0	32084	
6891	0	32112	
6892	0	32104	
6893	0	32096	
6894	0	32064	
6895	0	32052	
6896	0	32076	
6897	0	32136	
6898	0	32112	
6899	0	32088	
6900	0	32072	
6901	0	32072	
6902	0	32040	
6903	0	32076	
6904	0	32144	
6905	0	32136	
6906	0	32144	
6907	0	32176	
6908	0	32252	
6909	0	32288	
6910	0	32320	
6911	0	32364	
6912	0	32440	
6913	0	32564	
6914	0	32660	
6915	0	32834	
6916	0	33044	
6917	0	33248	
6918	0	33374	
6919	0	33552	
6920	0	33798	
6921	0	33980	
6922	0	34036	
6923	0	34068	
6924	0	34060	
6925	0	34042	
6926	0	34080	
6927	0	34108	
6928	0	34164	
6929	0	34364	
6930	0	34452	
6931	0	34320	
6932	0	34252	
6933	0	34308	
6934	0	34412	
6935	0	34484	
6936	0	34572	
6937	0	34680	
6938	0	34748	
6939	0	34832	
6940	0	34912	
6941	0	34992	
6942	0	35012	
6943	0	34972	
6944	0	34976	
6945	0	34996	
6946	0	35008	
6947	0	35008	
6948	0	35040	
6949	0	35148	
6950	0	35232	
6951	0	35280	
6952	0	35396	
6953	0	35544	
6954	0	35616	
6955	0	35528	
6956	0	35380	
6957	0	35224	
6958	0	35096	
6959	0	34976	
6960	0	34824	
6961	0	34594	
6962	0	34400	
6963	0	34248	
6964	0	34080	
6965	0	33920	
6966	0	33758	
6967	0	33604	
6968	0	33468	
6969	0	33436	
6970	0	33448	
6971	0	33416	
6972	0	33336	
6973	0	33236	
6974	0	33184	
6975	0	33320	
6976	0	33316	
6977	0	33172	
6978	0	33064	
6979	0	33064	
6980	0	33050	
6981	0	32996	
6982	0	32856	
6983	0	32716	
6984	0	32596	
6985	0	32492	
6986	0	32434	
6987	0	32384	
6988	0	32296	
6989	0	32162	
6990	0	32072	
6991	0	32040	
6992	0	31976	
6993	0	31844	
6994	0	31698	
6995	0	31496	
6996	0	31368	
6997	0	31292	
6998	0	31256	
6999	0	31316	
7000	0	31284	
7001	0	31188	
7002	0	31170	
7003	0	31184	
7004	0	31288	
7005	0	31314	
7006	0	31296	
7007	0	31226	
7008	0	31232	
7009	0	31240	
7010	0	31298	
7011	0	31348	
7012	0	31364	
7013	0	31320	
7014	0	31296	
7015	0	31264	
7016	0	31288	
7017	0	31340	
7018	0	31384	
7019	0	31452	
7020	0	31544	
7021	0	31472	
7022	0	31360	
7023	0	31376	
7024	0	31476	
7025	0	31568	
7026	0	31556	
7027	0	31580	
7028	0	31624	
7029	0	31636	
7030	0	31616	
7031	0	31612	
7032	0	31672	
7033	0	31684	
7034	0	31620	
7035	0	31556	
7036	0	31528	
7037	0	31544	
7038	0	31620	
7039	0	31634	
7040	0	31620	
7041	0	31572	
7042	0	31524	
7043	0	31548	
7044	0	31636	
7045	0	31688	
7046	0	31652	
7047	0	31648	
7048	0	31670	
7049	0	31680	
7050	0	31680	
7051	0	31706	
7052	0	31812	
7053	0	31896	
7054	0	31932	
7055	0	31960	
7056	0	31938	
7057	0	31984	
7058	0	31980	
7059	0	31948	
7060	0	31992	
7061	0	32058	
7062	0	31956	
7063	0	31900	
7064	0	31864	
7065	0	31714	
7066	0	31508	
7067	0	31380	
7068	0	31320	
7069	0	31360	
7070	0	31456	
7071	0	31604	
7072	0	31860	
7073	0	32140	
7074	0	32504	
7075	0	32992	
7076	0	33616	
7077	0	34368	
7078	0	35050	
7079	0	35872	
7080	0	36788	
7081	0	37984	
7082	0	39472	
7083	0	40912	
7084	0	42262	
7085	0	43708	
7086	0	45154	
7087	0	46668	
7088	0	48228	
7089	0	49796	
7090	0	51272	
7091	0	52716	
7092	0	54042	
7093	0	55284	
7094	0	56320	
7095	0	57264	
7096	0	58020	
7097	0	58504	
7098	0	58836	
7099	0	58692	
7100	0	57440	
7101	0	55276	
7102	0	52524	
7103	0	49320	
7104	0	46092	
7105	0	42696	
7106	0	38956	
7107	0	35032	
7108	0	31568	
7109	0	29076	
7110	0	27456	
7111	0	26528	
7112	0	26054	
7113	0	25868	
7114	0	25952	
7115	0	26190	
7116	0	26570	
7117	0	27017	
7118	0	27560	
7119	0	28198	
7120	0	28748	
7121	0	29288	
7122	0	29776	
7123	0	30220	
7124	0	30628	
7125	0	30892	
7126	0	31064	
7127	0	31196	
7128	0	31272	
7129	0	31284	
7130	0	31256	
7131	0	31248	
7132	0	31112	
7133	0	30962	
7134	0	30888	
7135	0	30832	
7136	0	30812	
7137	0	30750	
7138	0	30712	
7139	0	30606	
7140	0	30508	
7141	0	30456	
7142	0	30412	
7143	0	30420	
7144	0	30456	
7145	0	30560	
7146	0	30572	
7147	0	30520	
7148	0	30568	
7149	0	30682	
7150	0	30721	
7151	0	30656	
7152	0	30600	
7153	0	30620	
7154	0	30656	
7155	0	30648	
7156	0	30626	
7157	0	30596	
7158	0	30600	
7159	0	30648	
7160	0	30704	
7161	0	30688	
7162	0	30712	
7163	0	30756	
7164	0	30832	
7165	0	30916	
7166	0	30960	
7167	0	30944	
7168	0	30892	
7169	0	30940	
7170	0	30960	
7171	0	30976	
7172	0	31012	
7173	0	31048	
7174	0	31066	
7175	0	31032	
7176	0	31024	
7177	0	31064	
7178	0	31108	
7179	0	31188	
7180	0	31252	
7181	0	31312	
7182	0	31404	
7183	0	31458	
7184	0	31380	
7185	0	31364	
7186	0	31364	
7187	0	31288	
7188	0	31220	
7189	0	31266	
7190	0	31376	
7191	0	31520	
7192	0	31646	
7193	0	31552	
7194	0	31456	
7195	0	31528	
7196	0	31612	
7197	0	31700	
7198	0	31704	
7199	0	31640	
7200	0	31668	
7201	0	31740	
7202	0	31768	
7203	0	31784	
7204	0	31860	
7205	0	31920	
7206	0	32004	
7207	0	32040	
7208	0	31944	
7209	0	31856	
7210	0	31876	
7211	0	31968	
7212	0	32012	
7213	0	32036	
7214	0	32104	
7215	0	32136	
7216	0	32148	
7217	0	32212	
7218	0	32254	
7219	0	32220	
7220	0	32208	
7221	0	32236	
7222	0	32304	
7223	0	32340	
7224	0	32328	
7225	0	32400	
7226	0	32476	
7227	0	32492	
7228	0	32460	
7229	0	32476	
7230	0	32512	
7231	0	32568	
7232	0	32656	
7233	0	32736	
7234	0	32712	
7235	0	32648	
7236	0	32624	
7237	0	32712	
7238	0	32808	
7239	0	32944	
7240	0	33004	
7241	0	32908	
7242	0	32844	
7243	0	32804	
7244	0	32840	
7245	0	32932	
7246	0	33000	
7247	0	33060	
7248	0	33088	
7249	0	33072	
7250	0	33096	
7251	0	33152	
7252	0	33248	
7253	0	33352	
7254	0	33400	
7255	0	33416	
7256	0	33372	
7257	0	33328	
7258	0	33336	
7259	0	33300	
7260	0	33356	
7261	0	33412	
7262	0	33452	
7263	0	33500	
7264	0	33568	
7265	0	33632	
7266	0	33616	
7267	0	33628	
7268	0	33724	
7269	0	33828	
7270	0	33876	
7271	0	33884	
7272	0	33892	
7273	0	33946	
7274	0	34014	
7275	0	34032	
7276	0	34024	
7277	0	34064	
7278	0	34172	
7279	0	34296	
7280	0	34376	
7281	0	34236	
7282	0	34160	
7283	0	34248	
7284	0	34340	
7285	0	34368	
7286	0	34336	
7287	0	34416	
7288	0	34542	
7289	0	34588	
7290	0	34668	
7291	0	34780	
7292	0	34832	
7293	0	34892	
7294	0	34960	
7295	0	34980	
7296	0	35008	
7297	0	35064	
7298	0	35184	
7299	0	35308	
7300	0	35404	
7301	0	35504	
7302	0	35584	
7303	0	35636	
7304	0	35724	
7305	0	35832	
7306	0	35864	
7307	0	35838	
7308	0	35880	
7309	0	36004	
7310	0	36168	
7311	0	36316	
7312	0	36436	
7313	0	36512	
7314	0	36568	
7315	0	36600	
7316	0	36624	
7317	0	36700	
7318	0	36792	
7319	0	36872	
7320	0	36900	
7321	0	36976	
7322	0	37112	
7323	0	37156	
7324	0	37144	
7325	0	37204	
7326	0	37252	
7327	0	37304	
7328	0	37352	
7329	0	37420	
7330	0	37502	
7331	0	37532	
7332	0	37556	
7333	0	37640	
7334	0	37752	
7335	0	37780	
7336	0	37824	
7337	0	37960	
7338	0	38048	
7339	0	38056	
7340	0	38016	
7341	0	37960	
7342	0	37944	
7343	0	38008	
7344	0	38052	
7345	0	38116	
7346	0	38048	
7347	0	37948	
7348	0	37852	
7349	0	37760	
7350	0	37756	
7351	0	37716	
7352	0	37628	
7353	0	37568	
7354	0	37528	
7355	0	37428	
7356	0	37300	
7357	0	37192	
7358	0	37096	
7359	0	36968	
7360	0	36848	
7361	0	36804	
7362	0	36740	
7363	0	36436	
7364	0	36084	
7365	0	35848	
7366	0	35672	
7367	0	35512	
7368	0	35352	
7369	0	35164	
7370	0	34976	
7371	0	34824	
7372	0	34660	
7373	0	34432	
7374	0	34236	
7375	0	34004	
7376	0	33752	
7377	0	33512	
7378	0	33308	
7379	0	33080	
7380	0	32880	
7381	0	32700	
7382	0	32526	
7383	0	32384	
7384	0	32276	
7385	0	32078	
7386	0	31836	
7387	0	31702	
7388	0	31548	
7389	0	31364	
7390	0	31280	
7391	0	31094	
7392	0	30946	
7393	0	30760	
7394	0	30612	
7395	0	30536	
7396	0	30468	
7397	0	30436	
7398	0	30368	
7399	0	30240	
7400	0	30084	
7401	0	29966	
7402	0	29876	
7403	0	29768	
7404	0	29705	
7405	0	29696	
7406	0	29692	
7407	0	29672	
7408	0	29720	
7409	0	29616	
7410	0	29516	
7411	0	29480	
7412	0	29456	
7413	0	29372	
7414	0	29320	
7415	0	29272	
7416	0	29248	
7417	0	29244	
7418	0	29220	
7419	0	29232	
7420	0	29308	
7421	0	29344	
7422	0	29340	
7423	0	29324	
7424	0	29288	
7425	0	29284	
7426	0	29296	
7427	0	29292	
7428	0	29300	
7429	0	29358	
7430	0	29364	
7431	0	29292	
7432	0	29256	
7433	0	29384	
7434	0	29474	
7435	0	29444	
7436	0	29424	
7437	0	29416	
7438	0	29432	
7439	0	29480	
7440	0	29518	
7441	0	29492	
7442	0	29504	
7443	0	29560	
7444	0	29592	
7445	0	29602	
7446	0	29628	
7447	0	29632	
7448	0	29648	
7449	0	29688	
7450	0	29744	
7451	0	29748	
7452	0	29706	
7453	0	29732	
7454	0	29752	
7455	0	29780	
7456	0	29816	
7457	0	29820	
7458	0	29844	
7459	0	29900	
7460	0	29988	
7461	0	30024	
7462	0	30116	
7463	0	30224	
7464	0	30128	
7465	0	29980	
7466	0	29992	
7467	0	30032	
7468	0	30080	
7469	0	30136	
7470	0	30188	
7471	0	30264	
7472	0	30284	
7473	0	30180	
7474	0	30144	
7475	0	30184	
7476	0	30246	
7477	0	30284	
7478	0	30272	
7479	0	30288	
7480	0	30268	
7481	0	30244	
7482	0	30308	
7483	0	30408	
7484	0	30482	
7485	0	30584	
7486	0	30620	
7487	0	30604	
7488	0	30612	
7489	0	30596	
7490	0	30656	
7491	0	30680	
7492	0	30624	
7493	0	30636	
7494	0	30744	
7495	0	30736	
7496	0	30652	
7497	0	30648	
7498	0	30764	
7499	0	30828	
7500	0	30828	
7501	0	30860	
7502	0	30868	
7503	0	30896	
7504	0	30944	
7505	0	30960	
7506	0	30944	
7507	0	30956	
7508	0	30964	
7509	0	30972	
7510	0	31004	
7511	0	31036	
7512	0	31024	
7513	0	30996	
7514	0	31008	
7515	0	31024	
7516	0	31016	
7517	0	31032	
7518	0	31072	
7519	0	31168	
7520	0	31212	
7521	0	31172	
7522	0	31148	
7523	0	31168	
7524	0	31202	
7525	0	31228	
7526	0	31200	
7527	0	31200	
7528	0	31232	
7529	0	31204	
7530	0	31204	
7531	0	31274	
7532	0	31228	
7533	0	31196	
7534	0	31264	
7535	0	31288	
7536	0	31260	
7537	0	31240	
7538	0	31232	
7539	0	31194	
7540	0	31188	
7541	0	31226	
7542	0	31268	
7543	0	31212	
7544	0	31160	
7545	0	31288	
7546	0	31394	
7547	0	31476	
7548	0	31480	
7549	0	31392	
7550	0	31340	
7551	0	31368	
7552	0	31392	
7553	0	31328	
7554	0	31304	
7555	0	31308	
7556	0	31280	
7557	0	31236	
7558	0	31214	
7559	0	31276	
7560	0	31388	
7561	0	31434	
7562	0	31336	
7563	0	31316	
7564	0	31324	
7565	0	31356	
7566	0	31360	
7567	0	31376	
7568	0	31424	
7569	0	31528	
7570	0	31624	
7571	0	31476	
7572	0	31376	
7573	0	31351	
7574	0	31352	
7575	0	31376	
7576	0	31340	
7577	0	31328	
7578	0	31400	
7579	0	31428	
7580	0	31436	
7581	0	31504	
7582	0	31504	
7583	0	31444	
7584	0	31400	
7585	0	31456	
7586	0	31500	
7587	0	31554	
7588	0	31556	
7589	0	31564	
7590	0	31564	
7591	0	31538	
7592	0	31524	
7593	0	31584	
7594	0	31652	
7595	0	31692	
7596	0	31692	
7597	0	31680	
7598	0	31652	
7599	0	31528	
7600	0	31544	
7601	0	31584	
7602	0	31578	
7603	0	31564	
7604	0	31584	
7605	0	31600	
7606	0	31692	
7607	0	31728	
7608	0	31760	
7609	0	31764	
7610	0	31720	
7611	0	31712	
7612	0	31780	
7613	0	31848	
7614	0	31861	
7615	0	31856	
7616	0	31844	
7617	0	31872	
7618	0	31984	
7619	0	32080	
7620	0	31956	
7621	0	31840	
7622	0	31804	
7623	0	31824	
7624	0	31816	
7625	0	31840	
7626	0	31844	
7627	0	31832	
7628	0	31780	
7629	0	31768	
7630	0	31800	
7631	0	31844	
7632	0	31852	
7633	0	31840	
7634	0	31874	
7635	0	31960	
7636	0	31992	
7637	0	31920	
7638	0	31922	
7639	0	31990	
7640	0	31944	
7641	0	31896	
7642	0	31956	
7643	0	32032	
7644	0	32110	
7645	0	32232	
7646	0	32176	
7647	0	32088	
7648	0	32096	
7649	0	32048	
7650	0	32036	
7651	0	32044	
7652	0	32048	
7653	0	32052	
7654	0	32008	
7655	0	32002	
7656	0	32064	
7657	0	32088	
7658	0	32144	
7659	0	32276	
7660	0	32280	
7661	0	32316	
7662	0	32384	
7663	0	32450	
7664	0	32492	
7665	0	32580	
7666	0	32720	
7667	0	32872	
7668	0	33012	
7669	0	33210	
7670	0	33416	
7671	0	33628	
7672	0	33832	
7673	0	34024	
7674	0	34170	
7675	0	34204	
7676	0	34112	
7677	0	34016	
7678	0	34016	
7679	0	34120	
7680	0	34224	
7681	0	34316	
7682	0	34356	
7683	0	34372	
7684	0	34380	
7685	0	34420	
7686	0	34452	
7687	0	34536	
7688	0	34652	
7689	0	34788	
7690	0	34876	
7691	0	34980	
7692	0	35140	
7693	0	35184	
7694	0	35194	
7695	0	35172	
7696	0	35144	
7697	0	35068	
7698	0	34978	
7699	0	35008	
7700	0	35080	
7701	0	35089	
7702	0	35212	
7703	0	35384	
7704	0	35512	
7705	0	35544	
7706	0	35496	
7707	0	35452	
7708	0	35468	
7709	0	35404	
7710	0	35136	
7711	0	34800	
7712	0	34488	
7713	0	34242	
7714	0	34032	
7715	0	33820	
7716	0	33676	
7717	0	33640	
7718	0	33604	
7719	0	33492	
7720	0	33388	
7721	0	33312	
7722	0	33244	
7723	0	33180	
7724	0	33092	
7725	0	33048	
7726	0	33100	
7727	0	33136	
7728	0	33050	
7729	0	32916	
7730	0	32760	
7731	0	32730	
7732	0	32716	
7733	0	32632	
7734	0	32544	
7735	0	32480	
7736	0	32418	
7737	0	32388	
7738	0	32264	
7739	0	32112	
7740	0	32008	
7741	0	31912	
7742	0	31760	
7743	0	31648	
7744	0	31532	
7745	0	31412	
7746	0	31292	
7747	0	31160	
7748	0	31196	
7749	0	31240	
7750	0	31212	
7751	0	31152	
7752	0	31072	
7753	0	31084	
7754	0	31116	
7755	0	31120	
7756	0	31102	
7757	0	31156	
7758	0	31228	
7759	0	31232	
7760	0	31196	
7761	0	31160	
7762	0	31156	
7763	0	31136	
7764	0	31176	
7765	0	31212	
7766	0	31232	
7767	0	31200	
7768	0	31136	
7769	0	31144	
7770	0	31184	
7771	0	31228	
7772	0	31344	
7773	0	31420	
7774	0	31408	
7775	0	31358	
7776	0	31276	
7777	0	31264	
7778	0	31308	
7779	0	31388	
7780	0	31388	
7781	0	31356	
7782	0	31364	
7783	0	31316	
7784	0	31296	
7785	0	31316	
7786	0	31348	
7787	0	31380	
7788	0	31486	
7789	0	31468	
7790	0	31340	
7791	0	31276	
7792	0	31296	
7793	0	31408	
7794	0	31504	
7795	0	31560	
7796	0	31632	
7797	0	31656	
7798	0	31640	
7799	0	31632	
7800	0	31652	
7801	0	31616	
7802	0	31560	
7803	0	31580	
7804	0	31668	
7805	0	31744	
7806	0	31768	
7807	0	31800	
7808	0	31788	
7809	0	31804	
7810	0	31836	
7811	0	31826	
7812	0	31824	
7813	0	31772	
7814	0	31688	
7815	0	31592	
7816	0	31488	
7817	0	31330	
7818	0	31160	
7819	0	31084	
7820	0	31108	
7821	0	31200	
7822	0	31384	
7823	0	31636	
7824	0	32048	
7825	0	32560	
7826	0	33028	
7827	0	33540	
7828	0	34224	
7829	0	35036	
7830	0	35888	
7831	0	36912	
7832	0	38256	
7833	0	39712	
7834	0	41136	
7835	0	42484	
7836	0	43846	
7837	0	45276	
7838	0	46780	
7839	0	48352	
7840	0	49912	
7841	0	51376	
7842	0	52776	
7843	0	54144	
7844	0	55488	
7845	0	56720	
7846	0	57728	
7847	0	58448	
7848	0	58812	
7849	0	58996	
7850	0	58372	
7851	0	56696	
7852	0	54332	
7853	0	51292	
7854	0	47904	
7855	0	44548	
7856	0	41056	
7857	0	37224	
7858	0	33324	
7859	0	30224	
7860	0	28096	
7861	0	26784	
7862	0	26098	
7863	0	25772	
7864	0	25762	
7865	0	25972	
7866	0	26238	
7867	0	26568	
7868	0	27052	
7869	0	27664	
7870	0	28232	
7871	0	28848	
7872	0	29412	
7873	0	29868	
7874	0	30284	
7875	0	30780	
7876	0	31032	
7877	0	31072	
7878	0	31136	
7879	0	31196	
7880	0	31172	
7881	0	31128	
7882	0	31092	
7883	0	31060	
7884	0	30988	
7885	0	30864	
7886	0	30780	
7887	0	30640	
7888	0	30608	
7889	0	30618	
7890	0	30548	
7891	0	30404	
7892	0	30352	
7893	0	30328	
7894	0	30360	
7895	0	30426	
7896	0	30532	
7897	0	30588	
7898	0	30564	
7899	0	30480	
7900	0	30392	
7901	0	30392	
7902	0	30520	
7903	0	30588	
7904	0	30532	
7905	0	30512	
7906	0	30560	
7907	0	30664	
7908	0	30664	
7909	0	30592	
7910	0	30564	
7911	0	30590	
7912	0	30676	
7913	0	30708	
7914	0	30744	
7915	0	30748	
7916	0	30752	
7917	0	30806	
7918	0	30766	
7919	0	30736	
7920	0	30786	
7921	0	30816	
7922	0	30832	
7923	0	30898	
7924	0	30924	
7925	0	31000	
7926	0	31120	
7927	0	31168	
7928	0	31152	
7929	0	31096	
7930	0	31112	
7931	0	31152	
7932	0	31160	
7933	0	31184	
7934	0	31213	
7935	0	31252	
7936	0	31280	
7937	0	31320	
7938	0	31364	
7939	0	31384	
7940	0	31412	
7941	0	31432	
7942	0	31472	
7943	0	31434	
7944	0	31490	
7945	0	31532	
7946	0	31556	
7947	0	31536	
7948	0	31520	
7949	0	31536	
7950	0	31568	
7951	0	31578	
7952	0	31592	
7953	0	31604	
7954	0	31618	
7955	0	31648	
7956	0	31704	
7957	0	31772	
7958	0	31812	
7959	0	31832	
7960	0	31844	
7961	0	31912	
7962	0	32050	
7963	0	32068	
7964	0	31918	
7965	0	31876	
7966	0	31912	
7967	0	31984	
7968	0	32084	
7969	0	32196	
7970	0	32308	
7971	0	32332	
7972	0	32252	
7973	0	32304	
7974	0	32408	
7975	0	32372	
7976	0	32316	
7977	0	32340	
7978	0	32444	
7979	0	32464	
7980	0	32472	
7981	0	32570	
7982	0	32668	
7983	0	32764	
7984	0	32836	
7985	0	32844	
7986	0	32800	
7987	0	32736	
7988	0	32724	
7989	0	32844	
7990	0	32920	
7991	0	32952	
7992	0	32904	
7993	0	32846	
7994	0	32836	
7995	0	32872	
7996	0	32938	
7997	0	33056	
7998	0	33028	
7999	0	32976	
8000	0	33040	
8001	0	33132	
8002	0	33204	
8003	0	33224	
8004	0	33236	
8005	0	33256	
8006	0	33308	
8007	0	33388	
8008	0	33458	
8009	0	33512	
8010	0	33504	
8011	0	33544	
8012	0	33556	
8013	0	33568	
8014	0	33588	
8015	0	33668	
8016	0	33780	
8017	0	33868	
8018	0	33872	
8019	0	33816	
