# OpenSignals Text File Format. Version 1
# {"00:07:80:4B:15:F7": {"position": 0, "device": "biosignalsplux", "device name": "00:07:80:4B:15:F7", "device connection": "BTH00:07:80:4B:15:F7", "sampling rate": 1000, "resolution": [16], "firmware version": 775, "comments": "", "keywords": "", "mode": 0, "sync interval": 2, "date": "2023-3-2", "time": "16:49:11.788", "channels": [1], "sensor": ["ECG"], "label": ["CH1"], "column": ["nSeq", "DI", "CH1"], "special": [{"SpO2": [80, 40, 5, 4, 3, 3]}, {"SpO2": [80, 40, 5, 4, 3, 3]}, {"SpO2": [80, 40, 5, 4, 3, 3]}, {"SpO2": [80, 40, 5, 4, 3, 3]}, {"SpO2": [80, 40, 5, 4, 3, 3]}, {"SpO2": [80, 40, 5, 4, 3, 3]}, {"SpO2": [80, 40, 5, 4, 3, 3]}, {"SpO2": [80, 40, 5, 4, 3, 3]}], "digital IO": [0, 1], "sleeve color": [""], "convertedValues": 0}}
# EndOfHeader
0	0	31424	
1	0	31364	
2	0	31444	
3	0	31516	
4	0	31580	
5	0	31600	
6	0	31324	
7	0	31120	
8	0	31244	
9	0	31480	
10	0	31760	
11	0	32032	
12	0	31960	
13	0	31808	
14	0	31674	
15	0	31588	
16	0	31632	
17	0	31628	
18	0	31436	
19	0	31448	
20	0	31188	
21	0	30992	
22	0	31136	
23	0	31684	
24	0	32060	
25	0	32356	
26	0	32396	
27	0	32132	
28	0	32160	
29	0	32184	
30	0	32252	
31	0	32132	
32	0	31960	
33	0	31840	
34	0	31720	
35	0	31592	
36	0	31456	
37	0	31416	
38	0	31572	
39	0	31536	
40	0	31550	
41	0	31508	
42	0	31372	
43	0	31644	
44	0	31828	
45	0	31784	
46	0	31700	
47	0	31844	
48	0	32068	
49	0	32200	
50	0	32296	
51	0	32396	
52	0	32504	
53	0	32372	
54	0	32382	
55	0	32444	
56	0	32624	
57	0	32808	
58	0	33024	
59	0	32980	
60	0	32804	
61	0	32688	
62	0	32808	
63	0	33040	
64	0	33100	
65	0	33220	
66	0	33464	
67	0	33756	
68	0	33788	
69	0	33760	
70	0	33572	
71	0	33364	
72	0	33448	
73	0	33376	
74	0	33344	
75	0	33584	
76	0	33592	
77	0	33632	
78	0	33820	
79	0	33996	
80	0	34416	
81	0	34944	
82	0	35124	
83	0	35228	
84	0	35396	
85	0	35520	
86	0	35244	
87	0	34984	
88	0	34720	
89	0	34852	
90	0	35132	
91	0	35304	
92	0	35428	
93	0	35196	
94	0	35016	
95	0	34940	
96	0	34688	
97	0	34340	
98	0	34280	
99	0	34088	
100	0	33754	
101	0	33498	
102	0	33412	
103	0	33386	
104	0	33248	
105	0	33144	
106	0	33040	
107	0	33040	
108	0	32996	
109	0	32876	
110	0	32736	
111	0	32716	
112	0	32896	
113	0	32936	
114	0	32956	
115	0	33120	
116	0	33160	
117	0	33316	
118	0	33100	
119	0	32784	
120	0	32704	
121	0	32740	
122	0	32724	
123	0	32632	
124	0	32600	
125	0	32396	
126	0	32164	
127	0	32204	
128	0	32268	
129	0	32064	
130	0	31856	
131	0	31692	
132	0	31504	
133	0	31456	
134	0	31556	
135	0	31536	
136	0	31562	
137	0	31720	
138	0	31648	
139	0	31576	
140	0	31558	
141	0	31632	
142	0	31796	
143	0	31910	
144	0	32092	
145	0	32176	
146	0	31738	
147	0	31526	
148	0	31468	
149	0	31520	
150	0	31388	
151	0	31220	
152	0	31216	
153	0	31296	
154	0	31428	
155	0	31536	
156	0	31580	
157	0	31612	
158	0	31630	
159	0	31560	
160	0	31560	
161	0	31620	
162	0	31692	
163	0	31872	
164	0	31928	
165	0	31816	
166	0	31668	
167	0	31576	
168	0	31536	
169	0	31472	
170	0	31556	
171	0	31584	
172	0	31676	
173	0	31620	
174	0	31684	
175	0	31808	
176	0	31736	
177	0	31628	
178	0	31604	
179	0	31564	
180	0	31612	
181	0	31572	
182	0	31668	
183	0	31800	
184	0	31788	
185	0	31860	
186	0	31822	
187	0	31652	
188	0	31696	
189	0	31660	
190	0	31590	
191	0	31732	
192	0	31808	
193	0	31926	
194	0	32012	
195	0	32188	
196	0	32176	
197	0	31920	
198	0	31768	
199	0	31784	
200	0	31808	
201	0	31844	
202	0	31872	
203	0	31744	
204	0	31384	
205	0	31058	
206	0	30948	
207	0	30820	
208	0	30780	
209	0	30936	
210	0	31160	
211	0	31328	
212	0	31592	
213	0	31992	
214	0	32608	
215	0	33346	
216	0	34252	
217	0	35384	
218	0	36666	
219	0	37920	
220	0	39456	
221	0	41008	
222	0	42452	
223	0	43992	
224	0	45656	
225	0	47404	
226	0	49004	
227	0	50476	
228	0	51812	
229	0	53228	
230	0	54532	
231	0	55664	
232	0	56920	
233	0	58068	
234	0	59192	
235	0	60328	
236	0	61164	
237	0	61532	
238	0	61260	
239	0	59688	
240	0	57320	
241	0	54104	
242	0	50564	
243	0	47060	
244	0	43560	
245	0	39824	
246	0	35920	
247	0	32268	
248	0	29276	
249	0	27042	
250	0	25793	
251	0	25184	
252	0	25160	
253	0	25468	
254	0	25810	
255	0	26076	
256	0	26292	
257	0	26426	
258	0	26536	
259	0	26708	
260	0	26984	
261	0	27252	
262	0	27596	
263	0	27872	
264	0	28044	
265	0	28212	
266	0	28620	
267	0	28941	
268	0	29336	
269	0	29788	
270	0	29960	
271	0	29984	
272	0	30094	
273	0	30008	
274	0	30000	
275	0	29916	
276	0	29866	
277	0	29900	
278	0	30004	
279	0	29966	
280	0	30064	
281	0	30016	
282	0	30004	
283	0	30040	
284	0	29956	
285	0	29824	
286	0	29968	
287	0	29996	
288	0	30008	
289	0	30124	
290	0	30146	
291	0	30264	
292	0	30214	
293	0	30112	
294	0	30036	
295	0	29950	
296	0	29968	
297	0	30124	
298	0	30308	
299	0	30336	
300	0	30392	
301	0	30338	
302	0	30324	
303	0	30306	
304	0	30272	
305	0	30280	
306	0	30410	
307	0	30444	
308	0	30468	
309	0	30672	
310	0	30776	
311	0	30672	
312	0	30602	
313	0	30748	
314	0	30872	
315	0	30934	
316	0	31000	
317	0	30896	
318	0	30804	
319	0	30577	
320	0	30368	
321	0	30488	
322	0	30754	
323	0	30848	
324	0	30916	
325	0	31004	
326	0	30908	
327	0	30876	
328	0	30784	
329	0	30792	
330	0	30800	
331	0	30906	
332	0	31152	
333	0	31372	
334	0	31608	
335	0	31728	
336	0	31514	
337	0	31384	
338	0	31320	
339	0	31364	
340	0	31432	
341	0	31432	
342	0	31428	
343	0	31536	
344	0	31608	
345	0	31524	
346	0	31556	
347	0	31596	
348	0	31656	
349	0	31708	
350	0	31664	
351	0	31556	
352	0	31600	
353	0	31632	
354	0	31632	
355	0	31705	
356	0	31808	
357	0	31790	
358	0	31952	
359	0	32044	
360	0	32050	
361	0	32072	
362	0	31984	
363	0	31888	
364	0	31852	
365	0	31944	
366	0	31972	
367	0	31894	
368	0	31824	
369	0	31764	
370	0	31656	
371	0	31628	
372	0	31792	
373	0	31894	
374	0	31706	
375	0	31584	
376	0	31652	
377	0	31928	
378	0	32208	
379	0	32276	
380	0	32352	
381	0	32240	
382	0	32180	
383	0	32272	
384	0	32502	
385	0	32634	
386	0	32756	
387	0	32786	
388	0	32884	
389	0	32816	
390	0	32888	
391	0	32936	
392	0	32956	
393	0	32968	
394	0	33052	
395	0	33076	
396	0	33160	
397	0	33148	
398	0	33134	
399	0	33140	
400	0	33250	
401	0	33416	
402	0	33492	
403	0	33496	
404	0	33390	
405	0	33236	
406	0	33156	
407	0	33122	
408	0	33180	
409	0	33302	
410	0	33604	
411	0	33824	
412	0	33952	
413	0	33986	
414	0	34020	
415	0	33976	
416	0	33980	
417	0	34068	
418	0	34120	
419	0	34124	
420	0	34240	
421	0	34476	
422	0	34554	
423	0	34444	
424	0	34484	
425	0	34552	
426	0	34668	
427	0	34766	
428	0	34996	
429	0	35264	
430	0	35514	
431	0	35608	
432	0	35336	
433	0	35132	
434	0	34992	
435	0	35200	
436	0	35424	
437	0	35576	
438	0	35744	
439	0	35820	
440	0	35876	
441	0	36000	
442	0	36220	
443	0	36396	
444	0	36360	
445	0	36296	
446	0	36380	
447	0	36642	
448	0	36876	
449	0	36992	
450	0	37000	
451	0	36884	
452	0	36800	
453	0	36960	
454	0	37216	
455	0	37188	
456	0	37276	
457	0	37344	
458	0	37424	
459	0	37496	
460	0	37604	
461	0	37628	
462	0	37608	
463	0	37648	
464	0	37732	
465	0	37740	
466	0	37808	
467	0	38052	
468	0	38380	
469	0	38276	
470	0	38256	
471	0	38444	
472	0	38492	
473	0	38492	
474	0	38484	
475	0	38548	
476	0	38596	
477	0	38608	
478	0	38600	
479	0	38592	
480	0	38612	
481	0	38572	
482	0	38528	
483	0	38484	
484	0	38464	
485	0	38416	
486	0	38408	
487	0	38316	
488	0	38224	
489	0	38136	
490	0	38024	
491	0	37920	
492	0	37688	
493	0	37476	
494	0	37336	
495	0	37272	
496	0	37092	
497	0	36948	
498	0	36840	
499	0	36620	
500	0	36468	
501	0	36244	
502	0	35912	
503	0	35684	
504	0	35524	
505	0	35276	
506	0	35036	
507	0	34792	
508	0	34454	
509	0	34260	
510	0	34036	
511	0	33888	
512	0	33724	
513	0	33456	
514	0	33128	
515	0	32808	
516	0	32478	
517	0	32224	
518	0	32116	
519	0	31980	
520	0	31904	
521	0	31720	
522	0	31470	
523	0	31236	
524	0	31116	
525	0	31080	
526	0	30828	
527	0	30596	
528	0	30338	
529	0	30152	
530	0	29960	
531	0	29930	
532	0	30092	
533	0	30024	
534	0	29884	
535	0	29730	
536	0	29596	
537	0	29412	
538	0	29236	
539	0	29144	
540	0	29040	
541	0	28888	
542	0	28768	
543	0	28800	
544	0	28864	
545	0	28800	
546	0	28756	
547	0	28720	
548	0	28688	
549	0	28532	
550	0	28356	
551	0	28404	
552	0	28406	
553	0	28512	
554	0	28558	
555	0	28540	
556	0	28604	
557	0	28584	
558	0	28564	
559	0	28656	
560	0	28732	
561	0	28816	
562	0	28844	
563	0	28788	
564	0	28892	
565	0	28948	
566	0	28776	
567	0	28708	
568	0	28688	
569	0	28640	
570	0	28652	
571	0	28740	
572	0	28864	
573	0	28824	
574	0	28796	
575	0	28796	
576	0	28788	
577	0	28816	
578	0	28916	
579	0	28944	
580	0	28920	
581	0	28922	
582	0	29042	
583	0	29116	
584	0	29078	
585	0	29082	
586	0	29156	
587	0	29260	
588	0	29252	
589	0	29172	
590	0	29184	
591	0	29276	
592	0	29232	
593	0	29060	
594	0	29080	
595	0	29084	
596	0	29104	
597	0	29132	
598	0	29012	
599	0	28976	
600	0	28972	
601	0	28984	
602	0	29144	
603	0	29202	
604	0	29298	
605	0	29352	
606	0	29504	
607	0	29594	
608	0	29556	
609	0	29452	
610	0	29480	
611	0	29532	
612	0	29452	
613	0	29392	
614	0	29398	
615	0	29428	
616	0	29452	
617	0	29516	
618	0	29624	
619	0	29702	
620	0	29772	
621	0	29848	
622	0	29882	
623	0	29902	
624	0	29792	
625	0	29872	
626	0	29936	
627	0	29926	
628	0	30004	
629	0	29952	
630	0	29904	
631	0	29952	
632	0	30092	
633	0	30160	
634	0	30124	
635	0	30060	
636	0	30080	
637	0	30146	
638	0	30152	
639	0	30124	
640	0	30196	
641	0	30172	
642	0	29984	
643	0	30040	
644	0	30208	
645	0	30336	
646	0	30448	
647	0	30528	
648	0	30468	
649	0	30420	
650	0	30376	
651	0	30386	
652	0	30500	
653	0	30568	
654	0	30456	
655	0	30296	
656	0	30212	
657	0	30336	
658	0	30384	
659	0	30506	
660	0	30660	
661	0	30652	
662	0	30636	
663	0	30624	
664	0	30580	
665	0	30632	
666	0	30760	
667	0	30854	
668	0	30944	
669	0	31054	
670	0	31004	
671	0	31000	
672	0	31012	
673	0	31010	
674	0	31116	
675	0	31172	
676	0	31192	
677	0	31168	
678	0	31184	
679	0	31060	
680	0	30924	
681	0	30836	
682	0	30864	
683	0	30944	
684	0	30968	
685	0	30984	
686	0	31024	
687	0	31060	
688	0	31120	
689	0	31136	
690	0	31080	
691	0	31056	
692	0	31100	
693	0	31184	
694	0	31372	
695	0	31408	
696	0	31432	
697	0	31400	
698	0	31342	
699	0	31264	
700	0	31264	
701	0	31292	
702	0	31192	
703	0	31096	
704	0	31189	
705	0	31160	
706	0	31144	
707	0	31240	
708	0	31324	
709	0	31424	
710	0	31408	
711	0	31464	
712	0	31452	
713	0	31448	
714	0	31438	
715	0	31344	
716	0	31262	
717	0	31268	
718	0	31388	
719	0	31448	
720	0	31396	
721	0	31422	
722	0	31440	
723	0	31440	
724	0	31460	
725	0	31420	
726	0	31448	
727	0	31504	
728	0	31584	
729	0	31644	
730	0	31672	
731	0	31658	
732	0	31700	
733	0	31728	
734	0	31684	
735	0	31720	
736	0	31688	
737	0	31640	
738	0	31696	
739	0	31656	
740	0	31660	
741	0	31620	
742	0	31556	
743	0	31524	
744	0	31584	
745	0	31572	
746	0	31672	
747	0	31860	
748	0	31980	
749	0	31984	
750	0	32028	
751	0	31992	
752	0	31896	
753	0	32012	
754	0	32108	
755	0	31936	
756	0	31800	
757	0	31712	
758	0	31652	
759	0	31652	
760	0	31732	
761	0	31840	
762	0	31928	
763	0	32000	
764	0	32012	
765	0	31924	
766	0	31912	
767	0	31868	
768	0	31848	
769	0	31892	
770	0	32024	
771	0	32008	
772	0	31912	
773	0	31792	
774	0	31712	
775	0	31784	
776	0	31912	
777	0	31882	
778	0	31868	
779	0	31888	
780	0	31952	
781	0	31994	
782	0	32064	
783	0	32068	
784	0	32108	
785	0	32172	
786	0	32136	
787	0	32072	
788	0	32144	
789	0	32116	
790	0	32108	
791	0	32064	
792	0	32004	
793	0	32072	
794	0	32116	
795	0	32192	
796	0	32128	
797	0	32140	
798	0	32184	
799	0	32164	
800	0	32100	
801	0	32044	
802	0	32012	
803	0	31976	
804	0	31976	
805	0	32044	
806	0	32056	
807	0	32082	
808	0	32120	
809	0	32188	
810	0	32256	
811	0	32288	
812	0	32256	
813	0	32324	
814	0	32496	
815	0	32462	
816	0	32452	
817	0	32600	
818	0	32652	
819	0	32672	
820	0	32732	
821	0	32860	
822	0	33072	
823	0	33240	
824	0	33492	
825	0	33696	
826	0	33880	
827	0	33936	
828	0	33912	
829	0	33928	
830	0	33940	
831	0	33944	
832	0	34036	
833	0	34128	
834	0	34112	
835	0	34136	
836	0	34116	
837	0	34162	
838	0	34272	
839	0	34284	
840	0	34280	
841	0	34380	
842	0	34452	
843	0	34432	
844	0	34496	
845	0	34676	
846	0	34896	
847	0	35104	
848	0	35196	
849	0	35132	
850	0	35048	
851	0	34992	
852	0	35040	
853	0	35114	
854	0	35308	
855	0	35412	
856	0	35364	
857	0	35378	
858	0	35476	
859	0	35500	
860	0	35438	
861	0	35296	
862	0	35084	
863	0	34868	
864	0	34604	
865	0	34400	
866	0	34292	
867	0	34104	
868	0	33852	
869	0	33568	
870	0	33276	
871	0	33292	
872	0	33344	
873	0	33266	
874	0	33172	
875	0	33068	
876	0	32808	
877	0	32650	
878	0	32576	
879	0	32448	
880	0	32416	
881	0	32496	
882	0	32496	
883	0	32448	
884	0	32360	
885	0	32208	
886	0	32064	
887	0	32018	
888	0	31960	
889	0	31960	
890	0	31988	
891	0	31786	
892	0	31552	
893	0	31368	
894	0	31128	
895	0	30998	
896	0	30928	
897	0	30876	
898	0	30812	
899	0	30808	
900	0	30780	
901	0	30744	
902	0	30649	
903	0	30522	
904	0	30506	
905	0	30528	
906	0	30580	
907	0	30596	
908	0	30532	
909	0	30496	
910	0	30544	
911	0	30594	
912	0	30636	
913	0	30658	
914	0	30676	
915	0	30688	
916	0	30682	
917	0	30620	
918	0	30604	
919	0	30704	
920	0	30784	
921	0	30900	
922	0	30944	
923	0	30940	
924	0	30918	
925	0	30900	
926	0	30968	
927	0	30932	
928	0	30932	
929	0	30952	
930	0	30916	
931	0	30920	
932	0	31000	
933	0	31124	
934	0	31200	
935	0	31284	
936	0	31332	
937	0	31330	
938	0	31384	
939	0	31482	
940	0	31520	
941	0	31556	
942	0	31588	
943	0	31704	
944	0	31684	
945	0	31720	
946	0	31748	
947	0	31600	
948	0	31540	
949	0	31700	
950	0	31912	
951	0	32040	
952	0	32164	
953	0	32308	
954	0	32340	
955	0	32308	
956	0	32276	
957	0	32236	
958	0	32232	
959	0	32280	
960	0	32324	
961	0	32356	
962	0	32444	
963	0	32488	
964	0	32516	
965	0	32596	
966	0	32584	
967	0	32488	
968	0	32282	
969	0	32024	
970	0	31896	
971	0	31760	
972	0	31720	
973	0	31844	
974	0	31968	
975	0	32076	
976	0	32364	
977	0	32804	
978	0	33224	
979	0	33764	
980	0	34384	
981	0	35204	
982	0	36144	
983	0	37268	
984	0	38608	
985	0	40064	
986	0	41682	
987	0	43324	
988	0	44780	
989	0	46260	
990	0	47692	
991	0	49184	
992	0	50664	
993	0	52052	
994	0	53376	
995	0	54660	
996	0	55832	
997	0	57032	
998	0	58312	
999	0	59580	
1000	0	60580	
1001	0	61372	
1002	0	61868	
1003	0	62108	
1004	0	61208	
1005	0	59280	
1006	0	56592	
1007	0	53356	
1008	0	49832	
1009	0	46176	
1010	0	42380	
1011	0	38356	
1012	0	34312	
1013	0	30894	
1014	0	28346	
1015	0	26704	
1016	0	25864	
1017	0	25562	
1018	0	25642	
1019	0	25856	
1020	0	25988	
1021	0	26228	
1022	0	26610	
1023	0	27088	
1024	0	27452	
1025	0	27848	
1026	0	28320	
1027	0	28844	
1028	0	29372	
1029	0	29728	
1030	0	30124	
1031	0	30412	
1032	0	30712	
1033	0	30960	
1034	0	31148	
1035	0	31356	
1036	0	31432	
1037	0	31348	
1038	0	31268	
1039	0	31212	
1040	0	31168	
1041	0	31172	
1042	0	31180	
1043	0	31162	
1044	0	31088	
1045	0	31076	
1046	0	31060	
1047	0	30888	
1048	0	30864	
1049	0	30958	
1050	0	31016	
1051	0	31064	
1052	0	31088	
1053	0	31136	
1054	0	31208	
1055	0	31196	
1056	0	31228	
1057	0	31268	
1058	0	31328	
1059	0	31360	
1060	0	31352	
1061	0	31328	
1062	0	31236	
1063	0	31114	
1064	0	31108	
1065	0	31192	
1066	0	31282	
1067	0	31312	
1068	0	31306	
1069	0	31312	
1070	0	31364	
1071	0	31384	
1072	0	31368	
1073	0	31388	
1074	0	31460	
1075	0	31476	
1076	0	31448	
1077	0	31496	
1078	0	31576	
1079	0	31624	
1080	0	31640	
1081	0	31632	
1082	0	31648	
1083	0	31696	
1084	0	31740	
1085	0	31764	
1086	0	31788	
1087	0	31808	
1088	0	31748	
1089	0	31634	
1090	0	31520	
1091	0	31584	
1092	0	31622	
1093	0	31680	
1094	0	31796	
1095	0	31888	
1096	0	31916	
1097	0	31896	
1098	0	31878	
1099	0	31840	
1100	0	31816	
1101	0	31882	
1102	0	31968	
1103	0	32064	
1104	0	32112	
1105	0	32048	
1106	0	32030	
1107	0	32108	
1108	0	32164	
1109	0	32140	
1110	0	32128	
1111	0	32180	
1112	0	32180	
1113	0	32090	
1114	0	32084	
1115	0	32160	
1116	0	32232	
1117	0	32272	
1118	0	32180	
1119	0	32126	
1120	0	32200	
1121	0	32316	
1122	0	32480	
1123	0	32576	
1124	0	32600	
1125	0	32648	
1126	0	32648	
1127	0	32708	
1128	0	32764	
1129	0	32744	
1130	0	32752	
1131	0	32748	
1132	0	32780	
1133	0	32820	
1134	0	32856	
1135	0	32956	
1136	0	33016	
1137	0	33016	
1138	0	33096	
1139	0	33140	
1140	0	33116	
1141	0	33136	
1142	0	33192	
1143	0	33196	
1144	0	33128	
1145	0	33112	
1146	0	33160	
1147	0	33180	
1148	0	33204	
1149	0	33262	
1150	0	33272	
1151	0	33168	
1152	0	33116	
1153	0	33204	
1154	0	33316	
1155	0	33408	
1156	0	33380	
1157	0	33376	
1158	0	33424	
1159	0	33444	
1160	0	33506	
1161	0	33520	
1162	0	33540	
1163	0	33572	
1164	0	33552	
1165	0	33544	
1166	0	33472	
1167	0	33328	
1168	0	33268	
1169	0	33328	
1170	0	33448	
1171	0	33594	
1172	0	33656	
1173	0	33760	
1174	0	33836	
1175	0	33824	
1176	0	33824	
1177	0	33788	
1178	0	33820	
1179	0	33900	
1180	0	33952	
1181	0	33952	
1182	0	34048	
1183	0	34116	
1184	0	34152	
1185	0	34156	
1186	0	34172	
1187	0	34152	
1188	0	34240	
1189	0	34360	
1190	0	34364	
1191	0	34336	
1192	0	34360	
1193	0	34496	
1194	0	34636	
1195	0	34704	
1196	0	34812	
1197	0	34924	
1198	0	34938	
1199	0	35040	
1200	0	35250	
1201	0	35368	
1202	0	35356	
1203	0	35380	
1204	0	35492	
1205	0	35656	
1206	0	35800	
1207	0	35936	
1208	0	36064	
1209	0	36156	
1210	0	36180	
1211	0	36200	
1212	0	36212	
1213	0	36320	
1214	0	36472	
1215	0	36628	
1216	0	36724	
1217	0	36756	
1218	0	36874	
1219	0	37080	
1220	0	37092	
1221	0	37116	
1222	0	37218	
1223	0	37332	
1224	0	37468	
1225	0	37616	
1226	0	37652	
1227	0	37684	
1228	0	37764	
1229	0	37824	
1230	0	37844	
1231	0	37868	
1232	0	37906	
1233	0	37900	
1234	0	37964	
1235	0	38120	
1236	0	38300	
1237	0	38412	
1238	0	38528	
1239	0	38588	
1240	0	38612	
1241	0	38592	
1242	0	38636	
1243	0	38788	
1244	0	38912	
1245	0	38936	
1246	0	38904	
1247	0	38860	
1248	0	38864	
1249	0	38876	
1250	0	38804	
1251	0	38748	
1252	0	38788	
1253	0	38720	
1254	0	38580	
1255	0	38436	
1256	0	38284	
1257	0	38168	
1258	0	38100	
1259	0	37980	
1260	0	37824	
1261	0	37728	
1262	0	37684	
1263	0	37672	
1264	0	37580	
1265	0	37368	
1266	0	37100	
1267	0	36856	
1268	0	36560	
1269	0	36292	
1270	0	36040	
1271	0	35880	
1272	0	35688	
1273	0	35420	
1274	0	35192	
1275	0	34976	
1276	0	34772	
1277	0	34580	
1278	0	34324	
1279	0	34046	
1280	0	33844	
1281	0	33684	
1282	0	33516	
1283	0	33360	
1284	0	33181	
1285	0	32940	
1286	0	32612	
1287	0	32296	
1288	0	32076	
1289	0	31920	
1290	0	31848	
1291	0	31724	
1292	0	31424	
1293	0	31208	
1294	0	31074	
1295	0	30912	
1296	0	30746	
1297	0	30586	
1298	0	30450	
1299	0	30348	
1300	0	30256	
1301	0	30164	
1302	0	30072	
1303	0	29964	
1304	0	29812	
1305	0	29676	
1306	0	29592	
1307	0	29544	
1308	0	29448	
1309	0	29356	
1310	0	29336	
1311	0	29324	
1312	0	29304	
1313	0	29300	
1314	0	29256	
1315	0	29164	
1316	0	29116	
1317	0	29120	
1318	0	29122	
1319	0	29068	
1320	0	28984	
1321	0	28980	
1322	0	28996	
1323	0	28920	
1324	0	28888	
1325	0	28936	
1326	0	28992	
1327	0	28944	
1328	0	28892	
1329	0	28920	
1330	0	28852	
1331	0	28832	
1332	0	28848	
1333	0	28828	
1334	0	28826	
1335	0	28872	
1336	0	28964	
1337	0	29068	
1338	0	29152	
1339	0	29210	
1340	0	29220	
1341	0	29128	
1342	0	29104	
1343	0	29092	
1344	0	29136	
1345	0	29172	
1346	0	29208	
1347	0	29292	
1348	0	29308	
1349	0	29248	
1350	0	29300	
1351	0	29400	
1352	0	29432	
1353	0	29496	
1354	0	29512	
1355	0	29516	
1356	0	29474	
1357	0	29404	
1358	0	29376	
1359	0	29414	
1360	0	29476	
1361	0	29464	
1362	0	29476	
1363	0	29488	
1364	0	29466	
1365	0	29460	
1366	0	29460	
1367	0	29536	
1368	0	29604	
1369	0	29632	
1370	0	29664	
1371	0	29604	
1372	0	29636	
1373	0	29724	
1374	0	29812	
1375	0	29892	
1376	0	29892	
1377	0	29886	
1378	0	29952	
1379	0	30020	
1380	0	30060	
1381	0	30048	
1382	0	30048	
1383	0	30080	
1384	0	30120	
1385	0	30084	
1386	0	30092	
1387	0	30154	
1388	0	30192	
1389	0	30248	
1390	0	30308	
1391	0	30304	
1392	0	30332	
1393	0	30376	
1394	0	30440	
1395	0	30444	
1396	0	30488	
1397	0	30548	
1398	0	30564	
1399	0	30522	
1400	0	30544	
1401	0	30612	
1402	0	30664	
1403	0	30686	
1404	0	30792	
1405	0	30880	
1406	0	30832	
1407	0	30752	
1408	0	30792	
1409	0	30900	
1410	0	31000	
1411	0	31000	
1412	0	30852	
1413	0	30804	
1414	0	30812	
1415	0	30800	
1416	0	30784	
1417	0	30784	
1418	0	30772	
1419	0	30708	
1420	0	30728	
1421	0	30836	
1422	0	31048	
1423	0	31168	
1424	0	31176	
1425	0	31104	
1426	0	31092	
1427	0	31040	
1428	0	31020	
1429	0	31054	
1430	0	31090	
1431	0	31112	
1432	0	31156	
1433	0	31204	
1434	0	31216	
1435	0	31200	
1436	0	31113	
1437	0	31036	
1438	0	30996	
1439	0	31008	
1440	0	31048	
1441	0	31136	
1442	0	31112	
1443	0	31084	
1444	0	31120	
1445	0	31180	
1446	0	31180	
1447	0	31128	
1448	0	31128	
1449	0	31190	
1450	0	31258	
1451	0	31252	
1452	0	31184	
1453	0	31120	
1454	0	31104	
1455	0	31096	
1456	0	31104	
1457	0	31120	
1458	0	31172	
1459	0	31224	
1460	0	31224	
1461	0	31196	
1462	0	31192	
1463	0	31180	
1464	0	31156	
1465	0	31116	
1466	0	31140	
1467	0	31200	
1468	0	31290	
1469	0	31348	
1470	0	31332	
1471	0	31304	
1472	0	31320	
1473	0	31364	
1474	0	31388	
1475	0	31360	
1476	0	31384	
1477	0	31356	
1478	0	31292	
1479	0	31304	
1480	0	31280	
1481	0	31176	
1482	0	31136	
1483	0	31144	
1484	0	31136	
1485	0	31168	
1486	0	31204	
1487	0	31272	
1488	0	31288	
1489	0	31281	
1490	0	31344	
1491	0	31416	
1492	0	31424	
1493	0	31430	
1494	0	31424	
1495	0	31400	
1496	0	31390	
1497	0	31444	
1498	0	31532	
1499	0	31560	
1500	0	31552	
1501	0	31580	
1502	0	31540	
1503	0	31540	
1504	0	31564	
1505	0	31516	
1506	0	31504	
1507	0	31492	
1508	0	31492	
1509	0	31424	
1510	0	31412	
1511	0	31428	
1512	0	31480	
1513	0	31504	
1514	0	31496	
1515	0	31536	
1516	0	31600	
1517	0	31644	
1518	0	31616	
1519	0	31568	
1520	0	31546	
1521	0	31544	
1522	0	31632	
1523	0	31720	
1524	0	31716	
1525	0	31652	
1526	0	31584	
1527	0	31576	
1528	0	31604	
1529	0	31680	
1530	0	31704	
1531	0	31684	
1532	0	31680	
1533	0	31696	
1534	0	31692	
1535	0	31728	
1536	0	31772	
1537	0	31812	
1538	0	31860	
1539	0	31880	
1540	0	31848	
1541	0	31776	
1542	0	31756	
1543	0	31746	
1544	0	31752	
1545	0	31764	
1546	0	31792	
1547	0	31828	
1548	0	31832	
1549	0	31856	
1550	0	31880	
1551	0	31876	
1552	0	31912	
1553	0	31896	
1554	0	31844	
1555	0	31864	
1556	0	31880	
1557	0	31908	
1558	0	31916	
1559	0	31864	
1560	0	31880	
1561	0	31968	
1562	0	31976	
1563	0	31968	
1564	0	31960	
1565	0	31940	
1566	0	31918	
1567	0	31932	
1568	0	31944	
1569	0	31992	
1570	0	32020	
1571	0	32014	
1572	0	32036	
1573	0	31984	
1574	0	31972	
1575	0	31974	
1576	0	32004	
1577	0	31920	
1578	0	31920	
1579	0	31972	
1580	0	32098	
1581	0	32184	
1582	0	32172	
1583	0	32144	
1584	0	32128	
1585	0	32024	
1586	0	31964	
1587	0	32020	
1588	0	32066	
1589	0	32036	
1590	0	32032	
1591	0	32040	
1592	0	32072	
1593	0	32072	
1594	0	32048	
1595	0	32042	
1596	0	32036	
1597	0	32056	
1598	0	32076	
1599	0	32072	
1600	0	32110	
1601	0	32124	
1602	0	32064	
1603	0	32036	
1604	0	32020	
1605	0	32060	
1606	0	32100	
1607	0	32168	
1608	0	32248	
1609	0	32280	
1610	0	32304	
1611	0	32368	
1612	0	32421	
1613	0	32432	
1614	0	32372	
1615	0	32360	
1616	0	32404	
1617	0	32480	
1618	0	32516	
1619	0	32544	
1620	0	32620	
1621	0	32728	
1622	0	32844	
1623	0	32944	
1624	0	33036	
1625	0	33188	
1626	0	33336	
1627	0	33492	
1628	0	33650	
1629	0	33812	
1630	0	34052	
1631	0	34220	
1632	0	34256	
1633	0	34296	
1634	0	34272	
1635	0	34252	
1636	0	34240	
1637	0	34280	
1638	0	34416	
1639	0	34468	
1640	0	34480	
1641	0	34484	
1642	0	34544	
1643	0	34546	
1644	0	34480	
1645	0	34476	
1646	0	34628	
1647	0	34788	
1648	0	34872	
1649	0	34964	
1650	0	35064	
1651	0	35112	
1652	0	35156	
1653	0	35152	
1654	0	35124	
1655	0	35084	
1656	0	35064	
1657	0	35064	
1658	0	35084	
1659	0	35136	
1660	0	35196	
1661	0	35300	
1662	0	35406	
1663	0	35516	
1664	0	35532	
1665	0	35458	
1666	0	35334	
1667	0	35200	
1668	0	35080	
1669	0	34976	
1670	0	34848	
1671	0	34700	
1672	0	34564	
1673	0	34396	
1674	0	34200	
1675	0	34008	
1676	0	33856	
1677	0	33708	
1678	0	33584	
1679	0	33492	
1680	0	33424	
1681	0	33324	
1682	0	33250	
1683	0	33242	
1684	0	33280	
1685	0	33392	
1686	0	33484	
1687	0	33492	
1688	0	33452	
1689	0	33440	
1690	0	33426	
1691	0	33376	
1692	0	33324	
1693	0	33292	
1694	0	33204	
1695	0	33076	
1696	0	32992	
1697	0	32912	
1698	0	32788	
1699	0	32608	
1700	0	32472	
1701	0	32336	
1702	0	32256	
1703	0	32244	
1704	0	32240	
1705	0	32224	
1706	0	32184	
1707	0	32094	
1708	0	32036	
1709	0	31968	
1710	0	31832	
1711	0	31700	
1712	0	31664	
1713	0	31660	
1714	0	31728	
1715	0	31672	
1716	0	31596	
1717	0	31560	
1718	0	31588	
1719	0	31624	
1720	0	31656	
1721	0	31690	
1722	0	31716	
1723	0	31716	
1724	0	31720	
1725	0	31738	
1726	0	31728	
1727	0	31760	
1728	0	31744	
1729	0	31728	
1730	0	31688	
1731	0	31706	
1732	0	31784	
1733	0	31856	
1734	0	31924	
1735	0	31936	
1736	0	31904	
1737	0	31900	
1738	0	31868	
1739	0	31808	
1740	0	31760	
1741	0	31792	
1742	0	31812	
1743	0	31804	
1744	0	31800	
1745	0	31752	
1746	0	31708	
1747	0	31728	
1748	0	31772	
1749	0	31824	
1750	0	31876	
1751	0	31900	
1752	0	31932	
1753	0	31924	
1754	0	31880	
1755	0	31888	
1756	0	31904	
1757	0	31948	
1758	0	32008	
1759	0	32052	
1760	0	32096	
1761	0	32108	
1762	0	32132	
1763	0	32164	
1764	0	32140	
1765	0	32132	
1766	0	32128	
1767	0	32100	
1768	0	32040	
1769	0	31936	
1770	0	31852	
1771	0	31816	
1772	0	31728	
1773	0	31544	
1774	0	31460	
1775	0	31500	
1776	0	31528	
1777	0	31632	
1778	0	31788	
1779	0	32040	
1780	0	32464	
1781	0	32956	
1782	0	33552	
1783	0	34268	
1784	0	35056	
1785	0	35900	
1786	0	36908	
1787	0	38024	
1788	0	39416	
1789	0	40892	
1790	0	42324	
1791	0	43688	
1792	0	45108	
1793	0	46576	
1794	0	48112	
1795	0	49648	
1796	0	51136	
1797	0	52496	
1798	0	53836	
1799	0	55068	
1800	0	56264	
1801	0	57324	
1802	0	58184	
1803	0	58884	
1804	0	59436	
1805	0	59740	
1806	0	59384	
1807	0	57940	
1808	0	55608	
1809	0	52604	
1810	0	49168	
1811	0	45820	
1812	0	42276	
1813	0	38384	
1814	0	34508	
1815	0	31196	
1816	0	28768	
1817	0	27160	
1818	0	26202	
1819	0	25741	
1820	0	25600	
1821	0	25772	
1822	0	26032	
1823	0	26392	
1824	0	26908	
1825	0	27528	
1826	0	28112	
1827	0	28584	
1828	0	29040	
1829	0	29512	
1830	0	30004	
1831	0	30466	
1832	0	30812	
1833	0	30964	
1834	0	31016	
1835	0	31008	
1836	0	30980	
1837	0	30948	
1838	0	30980	
1839	0	30960	
1840	0	30888	
1841	0	30796	
1842	0	30724	
1843	0	30672	
1844	0	30688	
1845	0	30708	
1846	0	30716	
1847	0	30672	
1848	0	30586	
1849	0	30448	
1850	0	30388	
1851	0	30372	
1852	0	30356	
1853	0	30348	
1854	0	30368	
1855	0	30376	
1856	0	30361	
1857	0	30372	
1858	0	30400	
1859	0	30436	
1860	0	30456	
1861	0	30468	
1862	0	30472	
1863	0	30498	
1864	0	30536	
1865	0	30552	
1866	0	30508	
1867	0	30516	
1868	0	30536	
1869	0	30556	
1870	0	30556	
1871	0	30592	
1872	0	30580	
1873	0	30548	
1874	0	30540	
1875	0	30556	
1876	0	30544	
1877	0	30496	
1878	0	30508	
1879	0	30528	
1880	0	30548	
1881	0	30588	
1882	0	30702	
1883	0	30792	
1884	0	30860	
1885	0	30900	
1886	0	30912	
1887	0	30896	
1888	0	30880	
1889	0	30872	
1890	0	30858	
1891	0	30880	
1892	0	30888	
1893	0	30914	
1894	0	30910	
1895	0	30904	
1896	0	30908	
1897	0	30894	
1898	0	30912	
1899	0	30940	
1900	0	30982	
1901	0	31040	
1902	0	31088	
1903	0	31108	
1904	0	31128	
1905	0	31146	
1906	0	31180	
1907	0	31208	
1908	0	31244	
1909	0	31264	
1910	0	31292	
1911	0	31348	
1912	0	31364	
1913	0	31404	
1914	0	31456	
1915	0	31472	
1916	0	31512	
1917	0	31568	
1918	0	31666	
1919	0	31742	
1920	0	31770	
1921	0	31812	
1922	0	31796	
1923	0	31760	
1924	0	31736	
1925	0	31732	
1926	0	31728	
1927	0	31802	
1928	0	31892	
1929	0	31936	
1930	0	31960	
1931	0	31956	
1932	0	31970	
1933	0	32012	
1934	0	32052	
1935	0	32092	
1936	0	32156	
1937	0	32188	
1938	0	32196	
1939	0	32176	
1940	0	32190	
1941	0	32296	
1942	0	32416	
1943	0	32504	
1944	0	32564	
1945	0	32582	
1946	0	32620	
1947	0	32656	
1948	0	32640	
1949	0	32636	
1950	0	32652	
1951	0	32648	
1952	0	32628	
1953	0	32640	
1954	0	32720	
1955	0	32760	
1956	0	32784	
1957	0	32836	
1958	0	32880	
1959	0	32948	
1960	0	32988	
1961	0	32992	
1962	0	32958	
1963	0	32944	
1964	0	32962	
1965	0	33040	
1966	0	33120	
1967	0	33172	
1968	0	33200	
1969	0	33250	
1970	0	33314	
1971	0	33352	
1972	0	33380	
1973	0	33400	
1974	0	33464	
1975	0	33572	
1976	0	33640	
1977	0	33676	
1978	0	33700	
1979	0	33772	
1980	0	33808	
1981	0	33840	
1982	0	33908	
1983	0	33928	
1984	0	33924	
1985	0	33968	
1986	0	34024	
1987	0	34052	
1988	0	34128	
1989	0	34196	
1990	0	34260	
1991	0	34350	
1992	0	34416	
1993	0	34472	
1994	0	34518	
1995	0	34588	
1996	0	34676	
1997	0	34732	
1998	0	34784	
1999	0	34808	
2000	0	34820	
2001	0	34876	
2002	0	34946	
2003	0	34992	
2004	0	35024	
2005	0	35108	
2006	0	35216	
2007	0	35316	
2008	0	35420	
2009	0	35528	
2010	0	35644	
2011	0	35780	
2012	0	35932	
2013	0	36072	
2014	0	36176	
2015	0	36220	
2016	0	36272	
2017	0	36356	
2018	0	36440	
2019	0	36536	
2020	0	36584	
2021	0	36660	
2022	0	36740	
2023	0	36864	
2024	0	36952	
2025	0	37044	
2026	0	37116	
2027	0	37192	
2028	0	37270	
2029	0	37336	
2030	0	37383	
2031	0	37440	
2032	0	37472	
2033	0	37556	
2034	0	37656	
2035	0	37728	
2036	0	37804	
2037	0	37862	
2038	0	37912	
2039	0	37932	
2040	0	37936	
2041	0	38020	
2042	0	38092	
2043	0	38176	
2044	0	38244	
2045	0	38256	
2046	0	38312	
2047	0	38300	
2048	0	38326	
2049	0	38404	
2050	0	38424	
2051	0	38424	
2052	0	38408	
2053	0	38372	
2054	0	38360	
2055	0	38364	
2056	0	38336	
2057	0	38272	
2058	0	38216	
2059	0	38164	
2060	0	38120	
2061	0	38018	
2062	0	37888	
2063	0	37768	
2064	0	37608	
2065	0	37444	
2066	0	37280	
2067	0	37092	
2068	0	36936	
2069	0	36752	
2070	0	36548	
2071	0	36384	
2072	0	36188	
2073	0	35992	
2074	0	35780	
2075	0	35564	
2076	0	35324	
2077	0	35124	
2078	0	34932	
2079	0	34728	
2080	0	34496	
2081	0	34248	
2082	0	34008	
2083	0	33804	
2084	0	33596	
2085	0	33344	
2086	0	33112	
2087	0	32880	
2088	0	32652	
2089	0	32408	
2090	0	32188	
2091	0	31980	
2092	0	31792	
2093	0	31620	
2094	0	31520	
2095	0	31364	
2096	0	31240	
2097	0	31088	
2098	0	30912	
2099	0	30764	
2100	0	30645	
2101	0	30570	
2102	0	30476	
2103	0	30348	
2104	0	30224	
2105	0	30060	
2106	0	29896	
2107	0	29788	
2108	0	29676	
2109	0	29560	
2110	0	29464	
2111	0	29416	
2112	0	29332	
2113	0	29280	
2114	0	29336	
2115	0	29414	
2116	0	29440	
2117	0	29404	
2118	0	29316	
2119	0	29154	
2120	0	29024	
2121	0	28956	
2122	0	28968	
2123	0	29040	
2124	0	29080	
2125	0	29056	
2126	0	29008	
2127	0	28992	
2128	0	28968	
2129	0	28908	
2130	0	28888	
2131	0	28920	
2132	0	28928	
2133	0	28952	
2134	0	28988	
2135	0	28988	
2136	0	29020	
2137	0	29032	
2138	0	29056	
2139	0	29108	
2140	0	29116	
2141	0	29104	
2142	0	29120	
2143	0	29124	
2144	0	29124	
2145	0	29140	
2146	0	29168	
2147	0	29248	
2148	0	29292	
2149	0	29304	
2150	0	29284	
2151	0	29258	
2152	0	29240	
2153	0	29304	
2154	0	29404	
2155	0	29496	
2156	0	29536	
2157	0	29556	
2158	0	29580	
2159	0	29616	
2160	0	29664	
2161	0	29690	
2162	0	29728	
2163	0	29748	
2164	0	29804	
2165	0	29848	
2166	0	29876	
2167	0	29904	
2168	0	29928	
2169	0	29936	
2170	0	29936	
2171	0	29916	
2172	0	29956	
2173	0	30036	
2174	0	30112	
2175	0	30136	
2176	0	30116	
2177	0	30076	
2178	0	30062	
2179	0	30080	
2180	0	30134	
2181	0	30176	
2182	0	30244	
2183	0	30316	
2184	0	30340	
2185	0	30324	
2186	0	30324	
2187	0	30350	
2188	0	30404	
2189	0	30370	
2190	0	30312	
2191	0	30312	
2192	0	30320	
2193	0	30392	
2194	0	30484	
2195	0	30584	
2196	0	30616	
2197	0	30648	
2198	0	30650	
2199	0	30584	
2200	0	30588	
2201	0	30592	
2202	0	30580	
2203	0	30544	
2204	0	30568	
2205	0	30664	
2206	0	30746	
2207	0	30784	
2208	0	30812	
2209	0	30836	
2210	0	30832	
2211	0	30828	
2212	0	30872	
2213	0	30890	
2214	0	30916	
2215	0	30932	
2216	0	30890	
2217	0	30852	
2218	0	30812	
2219	0	30804	
2220	0	30796	
2221	0	30824	
2222	0	30864	
2223	0	30896	
2224	0	30924	
2225	0	30948	
2226	0	30954	
2227	0	30996	
2228	0	31042	
2229	0	31040	
2230	0	31048	
2231	0	31024	
2232	0	31052	
2233	0	31052	
2234	0	31048	
2235	0	31040	
2236	0	31040	
2237	0	31076	
2238	0	31104	
2239	0	31152	
2240	0	31172	
2241	0	31108	
2242	0	31088	
2243	0	31116	
2244	0	31152	
2245	0	31150	
2246	0	31140	
2247	0	31135	
2248	0	31136	
2249	0	31148	
2250	0	31192	
2251	0	31248	
2252	0	31258	
2253	0	31256	
2254	0	31272	
2255	0	31288	
2256	0	31296	
2257	0	31276	
2258	0	31210	
2259	0	31164	
2260	0	31136	
2261	0	31136	
2262	0	31204	
2263	0	31288	
2264	0	31376	
2265	0	31408	
2266	0	31370	
2267	0	31416	
2268	0	31408	
2269	0	31380	
2270	0	31368	
2271	0	31368	
2272	0	31372	
2273	0	31400	
2274	0	31438	
2275	0	31480	
2276	0	31520	
2277	0	31566	
2278	0	31602	
2279	0	31608	
2280	0	31556	
2281	0	31538	
2282	0	31540	
2283	0	31552	
2284	0	31600	
2285	0	31656	
2286	0	31724	
2287	0	31776	
2288	0	31784	
2289	0	31800	
2290	0	31868	
2291	0	31904	
2292	0	31872	
2293	0	31840	
2294	0	31848	
2295	0	31848	
2296	0	31796	
2297	0	31752	
2298	0	31764	
2299	0	31808	
2300	0	31836	
2301	0	31864	
2302	0	31872	
2303	0	31884	
2304	0	31884	
2305	0	31884	
2306	0	31868	
2307	0	31862	
2308	0	31900	
2309	0	31936	
2310	0	31972	
2311	0	32024	
2312	0	32036	
2313	0	32028	
2314	0	32028	
2315	0	32084	
2316	0	32100	
2317	0	32076	
2318	0	32060	
2319	0	32092	
2320	0	32122	
2321	0	32168	
2322	0	32196	
2323	0	32202	
2324	0	32188	
2325	0	32154	
2326	0	32144	
2327	0	32156	
2328	0	32182	
2329	0	32232	
2330	0	32272	
2331	0	32264	
2332	0	32204	
2333	0	32160	
2334	0	32190	
2335	0	32236	
2336	0	32264	
2337	0	32304	
2338	0	32345	
2339	0	32344	
2340	0	32300	
2341	0	32256	
2342	0	32244	
2343	0	32263	
2344	0	32268	
2345	0	32284	
2346	0	32280	
2347	0	32236	
2348	0	32220	
2349	0	32220	
2350	0	32208	
2351	0	32196	
2352	0	32204	
2353	0	32200	
2354	0	32220	
2355	0	32248	
2356	0	32280	
2357	0	32292	
2358	0	32252	
2359	0	32232	
2360	0	32292	
2361	0	32368	
2362	0	32428	
2363	0	32500	
2364	0	32522	
2365	0	32512	
2366	0	32516	
2367	0	32510	
2368	0	32504	
2369	0	32526	
2370	0	32576	
2371	0	32624	
2372	0	32608	
2373	0	32620	
2374	0	32648	
2375	0	32668	
2376	0	32696	
2377	0	32740	
2378	0	32780	
2379	0	32840	
2380	0	32928	
2381	0	33012	
2382	0	33058	
2383	0	33120	
2384	0	33236	
2385	0	33360	
2386	0	33492	
2387	0	33628	
2388	0	33816	
2389	0	33964	
2390	0	34112	
2391	0	34272	
2392	0	34400	
2393	0	34536	
2394	0	34680	
2395	0	34784	
2396	0	34786	
2397	0	34780	
2398	0	34804	
2399	0	34820	
2400	0	34856	
2401	0	34920	
2402	0	34936	
2403	0	34964	
2404	0	34980	
2405	0	34996	
2406	0	35040	
2407	0	35144	
2408	0	35264	
2409	0	35276	
2410	0	35288	
2411	0	35348	
2412	0	35464	
2413	0	35592	
2414	0	35664	
2415	0	35672	
2416	0	35680	
2417	0	35680	
2418	0	35652	
2419	0	35624	
2420	0	35652	
2421	0	35756	
2422	0	35864	
2423	0	35980	
2424	0	36096	
2425	0	36192	
2426	0	36216	
2427	0	36108	
2428	0	35936	
2429	0	35847	
2430	0	35768	
2431	0	35672	
2432	0	35468	
2433	0	35228	
2434	0	35048	
2435	0	34872	
2436	0	34672	
2437	0	34556	
2438	0	34464	
2439	0	34344	
2440	0	34232	
2441	0	34144	
2442	0	34088	
2443	0	34000	
2444	0	33928	
2445	0	33896	
2446	0	33896	
2447	0	33920	
2448	0	33972	
2449	0	34024	
2450	0	33980	
2451	0	33868	
2452	0	33788	
2453	0	33710	
2454	0	33644	
2455	0	33610	
2456	0	33552	
2457	0	33468	
2458	0	33328	
2459	0	33172	
2460	0	33032	
2461	0	32976	
2462	0	32972	
2463	0	32932	
2464	0	32868	
2465	0	32792	
2466	0	32674	
2467	0	32520	
2468	0	32356	
2469	0	32232	
2470	0	32164	
2471	0	32144	
2472	0	32162	
2473	0	32252	
2474	0	32300	
2475	0	32344	
2476	0	32370	
2477	0	32336	
2478	0	32304	
2479	0	32280	
2480	0	32284	
2481	0	32272	
2482	0	32284	
2483	0	32312	
2484	0	32304	
2485	0	32264	
2486	0	32240	
2487	0	32240	
2488	0	32276	
2489	0	32314	
2490	0	32324	
2491	0	32296	
2492	0	32280	
2493	0	32280	
2494	0	32316	
2495	0	32354	
2496	0	32392	
2497	0	32376	
2498	0	32368	
2499	0	32388	
2500	0	32380	
2501	0	32412	
2502	0	32460	
2503	0	32512	
2504	0	32548	
2505	0	32500	
2506	0	32456	
2507	0	32448	
2508	0	32468	
2509	0	32508	
2510	0	32488	
2511	0	32448	
2512	0	32448	
2513	0	32472	
2514	0	32504	
2515	0	32524	
2516	0	32592	
2517	0	32664	
2518	0	32712	
2519	0	32720	
2520	0	32704	
2521	0	32716	
2522	0	32736	
2523	0	32752	
2524	0	32792	
2525	0	32844	
2526	0	32880	
2527	0	32840	
2528	0	32780	
2529	0	32708	
2530	0	32620	
2531	0	32508	
2532	0	32420	
2533	0	32380	
2534	0	32332	
2535	0	32252	
2536	0	32180	
2537	0	32162	
2538	0	32196	
2539	0	32272	
2540	0	32356	
2541	0	32644	
2542	0	33088	
2543	0	33660	
2544	0	34288	
2545	0	34980	
2546	0	35748	
2547	0	36564	
2548	0	37532	
2549	0	38720	
2550	0	40160	
2551	0	41548	
2552	0	42852	
2553	0	44180	
2554	0	45580	
2555	0	47072	
2556	0	48604	
2557	0	50144	
2558	0	51584	
2559	0	52976	
2560	0	54320	
2561	0	55564	
2562	0	56724	
2563	0	57664	
2564	0	58496	
2565	0	59120	
2566	0	59548	
2567	0	59608	
2568	0	58568	
2569	0	56556	
2570	0	53884	
2571	0	50696	
2572	0	47392	
2573	0	44060	
2574	0	40488	
2575	0	36664	
2576	0	33154	
2577	0	30492	
2578	0	28644	
2579	0	27508	
2580	0	26944	
2581	0	26752	
2582	0	26864	
2583	0	27106	
2584	0	27392	
2585	0	27760	
2586	0	28244	
2587	0	28776	
2588	0	29316	
2589	0	29844	
2590	0	30308	
2591	0	30760	
2592	0	31228	
2593	0	31572	
2594	0	31820	
2595	0	31944	
2596	0	32020	
2597	0	32008	
2598	0	31976	
2599	0	31938	
2600	0	31900	
2601	0	31880	
2602	0	31864	
2603	0	31800	
2604	0	31700	
2605	0	31596	
2606	0	31560	
2607	0	31542	
2608	0	31546	
2609	0	31540	
2610	0	31560	
2611	0	31568	
2612	0	31584	
2613	0	31536	
2614	0	31500	
2615	0	31498	
2616	0	31560	
2617	0	31552	
2618	0	31580	
2619	0	31652	
2620	0	31700	
2621	0	31720	
2622	0	31712	
2623	0	31712	
2624	0	31720	
2625	0	31724	
2626	0	31740	
2627	0	31808	
2628	0	31808	
2629	0	31796	
2630	0	31776	
2631	0	31784	
2632	0	31814	
2633	0	31848	
2634	0	31860	
2635	0	31880	
2636	0	31880	
2637	0	31852	
2638	0	31802	
2639	0	31756	
2640	0	31764	
2641	0	31796	
2642	0	31848	
2643	0	31888	
2644	0	31892	
2645	0	31932	
2646	0	31976	
2647	0	32032	
2648	0	32076	
2649	0	32090	
2650	0	32108	
2651	0	32130	
2652	0	32146	
2653	0	32146	
2654	0	32100	
2655	0	32112	
2656	0	32100	
2657	0	32080	
2658	0	32080	
2659	0	32100	
2660	0	32152	
2661	0	32164	
2662	0	32184	
2663	0	32160	
2664	0	32216	
2665	0	32296	
2666	0	32328	
2667	0	32336	
2668	0	32324	
2669	0	32320	
2670	0	32324	
2671	0	32320	
2672	0	32316	
2673	0	32326	
2674	0	32352	
2675	0	32368	
2676	0	32404	
2677	0	32428	
2678	0	32436	
2679	0	32452	
2680	0	32476	
2681	0	32496	
2682	0	32506	
2683	0	32556	
2684	0	32588	
2685	0	32600	
2686	0	32592	
2687	0	32572	
2688	0	32576	
2689	0	32532	
2690	0	32568	
2691	0	32636	
2692	0	32666	
2693	0	32684	
2694	0	32716	
2695	0	32736	
2696	0	32730	
2697	0	32728	
2698	0	32784	
2699	0	32864	
2700	0	32904	
2701	0	32912	
2702	0	32974	
2703	0	33048	
2704	0	33096	
2705	0	33092	
2706	0	33072	
2707	0	33088	
2708	0	33124	
2709	0	33168	
2710	0	33204	
2711	0	33216	
2712	0	33216	
2713	0	33200	
2714	0	33184	
2715	0	33188	
2716	0	33260	
2717	0	33308	
2718	0	33310	
2719	0	33332	
2720	0	33360	
2721	0	33388	
2722	0	33436	
2723	0	33492	
2724	0	33576	
2725	0	33632	
2726	0	33664	
2727	0	33692	
2728	0	33720	
2729	0	33728	
2730	0	33730	
2731	0	33744	
2732	0	33684	
2733	0	33648	
2734	0	33664	
2735	0	33724	
2736	0	33788	
2737	0	33844	
2738	0	33948	
2739	0	34030	
2740	0	34096	
2741	0	34152	
2742	0	34192	
2743	0	34256	
2744	0	34312	
2745	0	34352	
2746	0	34338	
2747	0	34352	
2748	0	34404	
2749	0	34456	
2750	0	34474	
2751	0	34480	
2752	0	34520	
2753	0	34584	
2754	0	34628	
2755	0	34682	
2756	0	34740	
2757	0	34812	
2758	0	34876	
2759	0	34980	
2760	0	35072	
2761	0	35152	
2762	0	35232	
2763	0	35308	
2764	0	35334	
2765	0	35352	
2766	0	35412	
2767	0	35500	
2768	0	35592	
2769	0	35620	
2770	0	35636	
2771	0	35680	
2772	0	35736	
2773	0	35804	
2774	0	35912	
2775	0	36024	
2776	0	36128	
2777	0	36220	
2778	0	36288	
2779	0	36396	
2780	0	36480	
2781	0	36548	
2782	0	36644	
2783	0	36784	
2784	0	36956	
2785	0	37100	
2786	0	37152	
2787	0	37192	
2788	0	37220	
2789	0	37264	
2790	0	37312	
2791	0	37440	
2792	0	37560	
2793	0	37668	
2794	0	37672	
2795	0	37696	
2796	0	37746	
2797	0	37818	
2798	0	37864	
2799	0	37894	
2800	0	37952	
2801	0	38008	
2802	0	38048	
2803	0	38080	
2804	0	38104	
2805	0	38120	
2806	0	38148	
2807	0	38200	
2808	0	38198	
2809	0	38210	
2810	0	38212	
2811	0	38208	
2812	0	38224	
2813	0	38266	
2814	0	38316	
2815	0	38288	
2816	0	38296	
2817	0	38240	
2818	0	38156	
2819	0	38100	
2820	0	38072	
2821	0	38017	
2822	0	37880	
2823	0	37756	
2824	0	37636	
2825	0	37472	
2826	0	37360	
2827	0	37288	
2828	0	37168	
2829	0	37040	
2830	0	36924	
2831	0	36740	
2832	0	36544	
2833	0	36296	
2834	0	36032	
2835	0	35800	
2836	0	35552	
2837	0	35320	
2838	0	35118	
2839	0	34896	
2840	0	34660	
2841	0	34400	
2842	0	34144	
2843	0	33920	
2844	0	33768	
2845	0	33588	
2846	0	33364	
2847	0	33188	
2848	0	33056	
2849	0	32908	
2850	0	32724	
2851	0	32508	
2852	0	32290	
2853	0	32088	
2854	0	31880	
2855	0	31660	
2856	0	31464	
2857	0	31296	
2858	0	31152	
2859	0	31009	
2860	0	30864	
2861	0	30712	
2862	0	30580	
2863	0	30460	
2864	0	30348	
2865	0	30248	
2866	0	30160	
2867	0	30048	
2868	0	29912	
2869	0	29778	
2870	0	29724	
2871	0	29680	
2872	0	29640	
2873	0	29560	
2874	0	29474	
2875	0	29412	
2876	0	29352	
2877	0	29306	
2878	0	29232	
2879	0	29156	
2880	0	29092	
2881	0	29012	
2882	0	28976	
2883	0	28956	
2884	0	28962	
2885	0	28952	
2886	0	28928	
2887	0	28908	
2888	0	28948	
2889	0	29008	
2890	0	29016	
2891	0	29018	
2892	0	28994	
2893	0	28984	
2894	0	29008	
2895	0	28964	
2896	0	28952	
2897	0	28968	
2898	0	28952	
2899	0	28972	
2900	0	28992	
2901	0	28960	
2902	0	28968	
2903	0	28996	
2904	0	29008	
2905	0	29024	
2906	0	29036	
2907	0	29100	
2908	0	29160	
2909	0	29184	
2910	0	29164	
2911	0	29140	
2912	0	29096	
2913	0	29056	
2914	0	29040	
2915	0	29056	
2916	0	29148	
2917	0	29208	
2918	0	29224	
2919	0	29198	
2920	0	29216	
2921	0	29256	
2922	0	29320	
2923	0	29398	
2924	0	29452	
2925	0	29444	
2926	0	29420	
2927	0	29408	
2928	0	29430	
2929	0	29452	
2930	0	29492	
2931	0	29540	
2932	0	29558	
2933	0	29530	
2934	0	29472	
2935	0	29488	
2936	0	29520	
2937	0	29580	
2938	0	29660	
2939	0	29728	
2940	0	29748	
2941	0	29740	
2942	0	29716	
2943	0	29728	
2944	0	29792	
2945	0	29836	
2946	0	29848	
2947	0	29824	
2948	0	29800	
2949	0	29788	
2950	0	29832	
2951	0	29920	
2952	0	29972	
2953	0	30000	
2954	0	30030	
2955	0	30036	
2956	0	30072	
2957	0	30090	
2958	0	30168	
2959	0	30236	
2960	0	30280	
2961	0	30276	
2962	0	30268	
2963	0	30264	
2964	0	30240	
2965	0	30220	
2966	0	30258	
2967	0	30332	
2968	0	30412	
2969	0	30434	
2970	0	30432	
2971	0	30426	
2972	0	30408	
2973	0	30376	
2974	0	30300	
2975	0	30290	
2976	0	30328	
2977	0	30344	
2978	0	30348	
2979	0	30392	
2980	0	30388	
2981	0	30412	
2982	0	30476	
2983	0	30492	
2984	0	30474	
2985	0	30420	
2986	0	30380	
2987	0	30412	
2988	0	30436	
2989	0	30434	
2990	0	30428	
2991	0	30416	
2992	0	30448	
2993	0	30508	
2994	0	30528	
2995	0	30532	
2996	0	30508	
2997	0	30508	
2998	0	30524	
2999	0	30572	
3000	0	30592	
3001	0	30560	
3002	0	30532	
3003	0	30568	
3004	0	30578	
3005	0	30572	
3006	0	30620	
3007	0	30684	
3008	0	30684	
3009	0	30652	
3010	0	30584	
3011	0	30540	
3012	0	30560	
3013	0	30640	
3014	0	30652	
3015	0	30628	
3016	0	30664	
3017	0	30708	
3018	0	30656	
3019	0	30632	
3020	0	30640	
3021	0	30664	
3022	0	30684	
3023	0	30676	
3024	0	30668	
3025	0	30656	
3026	0	30624	
3027	0	30592	
3028	0	30564	
3029	0	30548	
3030	0	30520	
3031	0	30552	
3032	0	30576	
3033	0	30564	
3034	0	30576	
3035	0	30624	
3036	0	30652	
3037	0	30664	
3038	0	30672	
3039	0	30736	
3040	0	30800	
3041	0	30824	
3042	0	30834	
3043	0	30824	
3044	0	30788	
3045	0	30728	
3046	0	30700	
3047	0	30720	
3048	0	30784	
3049	0	30836	
3050	0	30868	
3051	0	30856	
3052	0	30822	
3053	0	30788	
3054	0	30752	
3055	0	30756	
3056	0	30796	
3057	0	30806	
3058	0	30812	
3059	0	30820	
3060	0	30828	
3061	0	30864	
3062	0	30900	
3063	0	30944	
3064	0	30944	
3065	0	30972	
3066	0	30984	
3067	0	31000	
3068	0	31092	
3069	0	31140	
3070	0	31048	
3071	0	31004	
3072	0	31038	
3073	0	31052	
3074	0	31028	
3075	0	30992	
3076	0	30960	
3077	0	30948	
3078	0	30944	
3079	0	30936	
3080	0	30916	
3081	0	30972	
3082	0	31052	
3083	0	31088	
3084	0	31104	
3085	0	31100	
3086	0	31032	
3087	0	30964	
3088	0	30944	
3089	0	31028	
3090	0	31072	
3091	0	31100	
3092	0	31138	
3093	0	31152	
3094	0	31136	
3095	0	31132	
3096	0	31076	
3097	0	31028	
3098	0	31048	
3099	0	31092	
3100	0	31136	
3101	0	31176	
3102	0	31212	
3103	0	31216	
3104	0	31220	
3105	0	31316	
3106	0	31492	
3107	0	31720	
3108	0	31928	
3109	0	32112	
3110	0	32308	
3111	0	32540	
3112	0	32740	
3113	0	32932	
3114	0	33088	
3115	0	33172	
3116	0	33164	
3117	0	33132	
3118	0	33160	
3119	0	33188	
3120	0	33204	
3121	0	33240	
3122	0	33300	
3123	0	33352	
3124	0	33444	
3125	0	33568	
3126	0	33672	
3127	0	33748	
3128	0	33820	
3129	0	33856	
3130	0	33868	
3131	0	33876	
3132	0	33968	
3133	0	34068	
3134	0	34144	
3135	0	34196	
3136	0	34204	
3137	0	34208	
3138	0	34216	
3139	0	34160	
3140	0	34104	
3141	0	34112	
3142	0	34220	
3143	0	34346	
3144	0	34504	
3145	0	34688	
3146	0	34754	
3147	0	34708	
3148	0	34562	
3149	0	34388	
3150	0	34242	
3151	0	34104	
3152	0	33900	
3153	0	33672	
3154	0	33472	
3155	0	33280	
3156	0	33132	
3157	0	33076	
3158	0	32992	
3159	0	32872	
3160	0	32780	
3161	0	32760	
3162	0	32698	
3163	0	32592	
3164	0	32448	
3165	0	32388	
3166	0	32344	
3167	0	32296	
3168	0	32208	
3169	0	32220	
3170	0	32240	
3171	0	32208	
3172	0	32132	
3173	0	32020	
3174	0	31860	
3175	0	31702	
3176	0	31600	
3177	0	31528	
3178	0	31452	
3179	0	31348	
3180	0	31262	
3181	0	31208	
3182	0	31132	
3183	0	31056	
3184	0	30916	
3185	0	30788	
3186	0	30700	
3187	0	30656	
3188	0	30612	
3189	0	30500	
3190	0	30402	
3191	0	30356	
3192	0	30328	
3193	0	30324	
3194	0	30328	
3195	0	30316	
3196	0	30352	
3197	0	30340	
3198	0	30352	
3199	0	30384	
3200	0	30344	
3201	0	30416	
3202	0	30510	
3203	0	30520	
3204	0	30496	
3205	0	30436	
3206	0	30400	
3207	0	30392	
3208	0	30428	
3209	0	30444	
3210	0	30400	
3211	0	30344	
3212	0	30336	
3213	0	30364	
3214	0	30392	
3215	0	30420	
3216	0	30464	
3217	0	30496	
3218	0	30516	
3219	0	30520	
3220	0	30540	
3221	0	30560	
3222	0	30576	
3223	0	30616	
3224	0	30640	
3225	0	30644	
3226	0	30624	
3227	0	30624	
3228	0	30640	
3229	0	30680	
3230	0	30656	
3231	0	30628	
3232	0	30614	
3233	0	30642	
3234	0	30672	
3235	0	30696	
3236	0	30712	
3237	0	30708	
3238	0	30708	
3239	0	30688	
3240	0	30692	
3241	0	30768	
3242	0	30848	
3243	0	30924	
3244	0	30944	
3245	0	30952	
3246	0	30972	
3247	0	31024	
3248	0	31068	
3249	0	31060	
3250	0	31056	
3251	0	31000	
3252	0	30900	
3253	0	30804	
3254	0	30700	
3255	0	30572	
3256	0	30396	
3257	0	30288	
3258	0	30260	
3259	0	30320	
3260	0	30360	
3261	0	30400	
3262	0	30578	
3263	0	30968	
3264	0	31504	
3265	0	32132	
3266	0	32824	
3267	0	33596	
3268	0	34452	
3269	0	35376	
3270	0	36530	
3271	0	37948	
3272	0	39396	
3273	0	40784	
3274	0	42160	
3275	0	43552	
3276	0	45024	
3277	0	46560	
3278	0	48122	
3279	0	49600	
3280	0	50936	
3281	0	52224	
3282	0	53444	
3283	0	54688	
3284	0	55800	
3285	0	56732	
3286	0	57440	
3287	0	57860	
3288	0	57992	
3289	0	57184	
3290	0	55352	
3291	0	52812	
3292	0	49664	
3293	0	46256	
3294	0	42892	
3295	0	39320	
3296	0	35502	
3297	0	31796	
3298	0	28896	
3299	0	26974	
3300	0	25868	
3301	0	25312	
3302	0	25018	
3303	0	25020	
3304	0	25232	
3305	0	25512	
3306	0	25900	
3307	0	26352	
3308	0	26892	
3309	0	27416	
3310	0	27902	
3311	0	28368	
3312	0	28792	
3313	0	29216	
3314	0	29632	
3315	0	29956	
3316	0	30104	
3317	0	30120	
3318	0	30072	
3319	0	30048	
3320	0	30048	
3321	0	30010	
3322	0	29968	
3323	0	29896	
3324	0	29864	
3325	0	29800	
3326	0	29754	
3327	0	29696	
3328	0	29652	
3329	0	29604	
3330	0	29574	
3331	0	29548	
3332	0	29524	
3333	0	29444	
3334	0	29392	
3335	0	29384	
3336	0	29448	
3337	0	29508	
3338	0	29560	
3339	0	29600	
3340	0	29664	
3341	0	29724	
3342	0	29732	
3343	0	29716	
3344	0	29720	
3345	0	29712	
3346	0	29728	
3347	0	29794	
3348	0	29840	
3349	0	29812	
3350	0	29756	
3351	0	29752	
3352	0	29712	
3353	0	29762	
3354	0	29832	
3355	0	29848	
3356	0	29820	
3357	0	29848	
3358	0	29876	
3359	0	29920	
3360	0	29960	
3361	0	30008	
3362	0	30088	
3363	0	30164	
3364	0	30180	
3365	0	30182	
3366	0	30180	
3367	0	30188	
3368	0	30176	
3369	0	30180	
3370	0	30200	
3371	0	30264	
3372	0	30244	
3373	0	30244	
3374	0	30232	
3375	0	30248	
3376	0	30300	
3377	0	30328	
3378	0	30340	
3379	0	30356	
3380	0	30392	
3381	0	30432	
3382	0	30456	
3383	0	30464	
3384	0	30464	
3385	0	30504	
3386	0	30516	
3387	0	30504	
3388	0	30512	
3389	0	30552	
3390	0	30596	
3391	0	30640	
3392	0	30648	
3393	0	30688	
3394	0	30736	
3395	0	30764	
3396	0	30788	
3397	0	30788	
3398	0	30796	
3399	0	30836	
3400	0	30872	
3401	0	30912	
3402	0	30968	
3403	0	31024	
3404	0	31108	
3405	0	31160	
3406	0	31212	
3407	0	31256	
3408	0	31236	
3409	0	31196	
3410	0	31222	
3411	0	31256	
3412	0	31264	
3413	0	31292	
3414	0	31328	
3415	0	31388	
3416	0	31474	
3417	0	31520	
3418	0	31492	
3419	0	31476	
3420	0	31448	
3421	0	31456	
3422	0	31504	
3423	0	31616	
3424	0	31704	
3425	0	31768	
3426	0	31764	
3427	0	31776	
3428	0	31792	
3429	0	31828	
3430	0	31806	
3431	0	31770	
3432	0	31784	
3433	0	31824	
3434	0	31916	
3435	0	32020	
3436	0	32084	
3437	0	32076	
3438	0	32066	
3439	0	32068	
3440	0	32132	
3441	0	32188	
3442	0	32296	
3443	0	32396	
3444	0	32416	
3445	0	32392	
3446	0	32424	
3447	0	32484	
3448	0	32532	
3449	0	32556	
3450	0	32588	
3451	0	32636	
3452	0	32676	
3453	0	32720	
3454	0	32756	
3455	0	32778	
3456	0	32804	
3457	0	32816	
3458	0	32844	
3459	0	32852	
3460	0	32896	
3461	0	32950	
3462	0	32980	
3463	0	33008	
3464	0	33024	
3465	0	33076	
3466	0	33152	
3467	0	33236	
3468	0	33312	
3469	0	33408	
3470	0	33506	
3471	0	33580	
3472	0	33644	
3473	0	33664	
3474	0	33696	
3475	0	33788	
3476	0	33872	
3477	0	33926	
3478	0	33988	
3479	0	34096	
3480	0	34198	
3481	0	34312	
3482	0	34416	
3483	0	34474	
3484	0	34522	
3485	0	34612	
3486	0	34712	
3487	0	34784	
3488	0	34864	
3489	0	34924	
3490	0	34988	
3491	0	35072	
3492	0	35192	
3493	0	35280	
3494	0	35344	
3495	0	35420	
3496	0	35504	
3497	0	35576	
3498	0	35668	
3499	0	35788	
3500	0	35890	
3501	0	35958	
3502	0	36050	
3503	0	36080	
3504	0	36124	
3505	0	36202	
3506	0	36328	
3507	0	36492	
3508	0	36620	
3509	0	36632	
3510	0	36664	
3511	0	36712	
3512	0	36768	
3513	0	36828	
3514	0	36904	
3515	0	36960	
3516	0	37064	
3517	0	37180	
3518	0	37236	
3519	0	37292	
3520	0	37306	
3521	0	37316	
3522	0	37356	
3523	0	37408	
3524	0	37508	
3525	0	37640	
3526	0	37674	
3527	0	37648	
3528	0	37664	
3529	0	37676	
3530	0	37680	
3531	0	37664	
3532	0	37656	
3533	0	37648	
3534	0	37644	
3535	0	37656	
3536	0	37664	
3537	0	37664	
3538	0	37632	
3539	0	37532	
3540	0	37440	
3541	0	37348	
3542	0	37216	
3543	0	37136	
3544	0	37072	
3545	0	36952	
3546	0	36808	
3547	0	36692	
3548	0	36544	
3549	0	36368	
3550	0	36180	
3551	0	36004	
3552	0	35784	
3553	0	35508	
3554	0	35216	
3555	0	34960	
3556	0	34714	
3557	0	34484	
3558	0	34272	
3559	0	34060	
3560	0	33880	
3561	0	33712	
3562	0	33504	
3563	0	33256	
3564	0	33024	
3565	0	32816	
3566	0	32608	
3567	0	32428	
3568	0	32250	
3569	0	32056	
3570	0	31836	
3571	0	31604	
3572	0	31376	
3573	0	31200	
3574	0	31072	
3575	0	30932	
3576	0	30784	
3577	0	30664	
3578	0	30512	
3579	0	30360	
3580	0	30192	
3581	0	30060	
3582	0	29956	
3583	0	29872	
3584	0	29776	
3585	0	29672	
3586	0	29620	
3587	0	29584	
3588	0	29480	
3589	0	29356	
3590	0	29276	
3591	0	29194	
3592	0	29128	
3593	0	29056	
3594	0	28996	
3595	0	28924	
3596	0	28888	
3597	0	28864	
3598	0	28810	
3599	0	28732	
3600	0	28668	
3601	0	28628	
3602	0	28632	
3603	0	28632	
3604	0	28616	
3605	0	28600	
3606	0	28586	
3607	0	28576	
3608	0	28576	
3609	0	28640	
3610	0	28710	
3611	0	28718	
3612	0	28680	
3613	0	28608	
3614	0	28572	
3615	0	28556	
3616	0	28542	
3617	0	28538	
3618	0	28576	
3619	0	28632	
3620	0	28640	
3621	0	28620	
3622	0	28660	
3623	0	28716	
3624	0	28788	
3625	0	28842	
3626	0	28820	
3627	0	28824	
3628	0	28882	
3629	0	28952	
3630	0	28968	
3631	0	28996	
3632	0	29076	
3633	0	29132	
3634	0	29128	
3635	0	29168	
3636	0	29228	
3637	0	29264	
3638	0	29324	
3639	0	29388	
3640	0	29466	
3641	0	29516	
3642	0	29564	
3643	0	29592	
3644	0	29596	
3645	0	29592	
3646	0	29562	
3647	0	29536	
3648	0	29578	
3649	0	29604	
3650	0	29624	
3651	0	29632	
3652	0	29604	
3653	0	29636	
3654	0	29668	
3655	0	29704	
3656	0	29736	
3657	0	29724	
3658	0	29740	
3659	0	29760	
3660	0	29792	
3661	0	29820	
3662	0	29836	
3663	0	29864	
3664	0	29892	
3665	0	29936	
3666	0	29966	
3667	0	29948	
3668	0	29968	
3669	0	30032	
3670	0	30096	
3671	0	30136	
3672	0	30196	
3673	0	30218	
3674	0	30240	
3675	0	30248	
3676	0	30256	
3677	0	30232	
3678	0	30196	
3679	0	30188	
3680	0	30184	
3681	0	30188	
3682	0	30212	
3683	0	30250	
3684	0	30280	
3685	0	30288	
3686	0	30336	
3687	0	30400	
3688	0	30448	
3689	0	30456	
3690	0	30416	
3691	0	30348	
3692	0	30340	
3693	0	30348	
3694	0	30368	
3695	0	30380	
3696	0	30380	
3697	0	30410	
3698	0	30432	
3699	0	30456	
3700	0	30484	
3701	0	30516	
3702	0	30552	
3703	0	30584	
3704	0	30576	
3705	0	30588	
3706	0	30648	
3707	0	30708	
3708	0	30676	
3709	0	30632	
3710	0	30584	
3711	0	30568	
3712	0	30568	
3713	0	30616	
3714	0	30712	
3715	0	30798	
3716	0	30824	
3717	0	30814	
3718	0	30812	
3719	0	30804	
3720	0	30836	
3721	0	30904	
3722	0	30904	
3723	0	30868	
3724	0	30836	
3725	0	30788	
3726	0	30864	
3727	0	30928	
3728	0	30914	
3729	0	30872	
3730	0	30918	
3731	0	30964	
3732	0	31016	
3733	0	31024	
3734	0	31070	
3735	0	31076	
3736	0	31088	
3737	0	31110	
3738	0	31104	
3739	0	31124	
3740	0	31120	
3741	0	31100	
3742	0	31148	
3743	0	31152	
3744	0	31112	
3745	0	31138	
3746	0	31204	
3747	0	31184	
3748	0	31188	
3749	0	31100	
3750	0	31028	
3751	0	30996	
3752	0	31072	
3753	0	31136	
3754	0	31170	
3755	0	31196	
3756	0	31188	
3757	0	31156	
3758	0	31104	
3759	0	31026	
3760	0	30960	
3761	0	30936	
3762	0	30924	
3763	0	30960	
3764	0	30960	
3765	0	30980	
3766	0	31116	
3767	0	31328	
3768	0	31484	
3769	0	31640	
3770	0	31682	
3771	0	31632	
3772	0	31528	
3773	0	31460	
3774	0	31520	
3775	0	31672	
3776	0	31856	
3777	0	32040	
3778	0	32180	
3779	0	32320	
3780	0	32424	
3781	0	32612	
3782	0	32908	
3783	0	33100	
3784	0	33204	
3785	0	33232	
3786	0	33216	
3787	0	33260	
3788	0	33304	
3789	0	33360	
3790	0	33480	
3791	0	33600	
3792	0	33602	
3793	0	33568	
3794	0	33540	
3795	0	33536	
3796	0	33572	
3797	0	33666	
3798	0	33740	
3799	0	33836	
3800	0	33892	
3801	0	33972	
3802	0	34096	
3803	0	34196	
3804	0	34282	
3805	0	34324	
3806	0	34256	
3807	0	34200	
3808	0	34166	
3809	0	34176	
3810	0	34200	
3811	0	34308	
3812	0	34398	
3813	0	34496	
3814	0	34624	
3815	0	34756	
3816	0	34808	
3817	0	34696	
3818	0	34520	
3819	0	34344	
3820	0	34172	
3821	0	33996	
3822	0	33822	
3823	0	33672	
3824	0	33496	
3825	0	33340	
3826	0	33204	
3827	0	33112	
3828	0	33066	
3829	0	33016	
3830	0	32936	
3831	0	32868	
3832	0	32736	
3833	0	32648	
3834	0	32592	
3835	0	32620	
3836	0	32712	
3837	0	32600	
3838	0	32453	
3839	0	32252	
3840	0	31976	
3841	0	31784	
3842	0	31756	
3843	0	31860	
3844	0	31962	
3845	0	31976	
3846	0	31920	
3847	0	31860	
3848	0	31784	
3849	0	31728	
3850	0	31688	
3851	0	31624	
3852	0	31504	
3853	0	31320	
3854	0	31168	
3855	0	31100	
3856	0	31026	
3857	0	30964	
3858	0	30880	
3859	0	30888	
3860	0	30898	
3861	0	30916	
3862	0	30936	
3863	0	30900	
3864	0	30928	
3865	0	30956	
3866	0	30984	
3867	0	31012	
3868	0	31008	
3869	0	30996	
3870	0	31040	
3871	0	31108	
3872	0	31116	
3873	0	31076	
3874	0	31088	
3875	0	31181	
3876	0	31244	
3877	0	31292	
3878	0	31348	
3879	0	31396	
3880	0	31456	
3881	0	31508	
3882	0	31440	
3883	0	31380	
3884	0	31388	
3885	0	31372	
3886	0	31352	
3887	0	31376	
3888	0	31420	
3889	0	31492	
3890	0	31472	
3891	0	31440	
3892	0	31304	
3893	0	31176	
3894	0	31104	
3895	0	31216	
3896	0	31346	
3897	0	31384	
3898	0	31412	
3899	0	31500	
3900	0	31528	
3901	0	31524	
3902	0	31530	
3903	0	31580	
3904	0	31608	
3905	0	31612	
3906	0	31672	
3907	0	31718	
3908	0	31760	
3909	0	31856	
3910	0	31938	
3911	0	31908	
3912	0	31750	
3913	0	31704	
3914	0	31772	
3915	0	31844	
3916	0	31888	
3917	0	31916	
3918	0	31972	
3919	0	32048	
3920	0	32140	
3921	0	32124	
3922	0	32040	
3923	0	31872	
3924	0	31544	
3925	0	31264	
3926	0	31128	
3927	0	31112	
3928	0	31180	
3929	0	31300	
3930	0	31456	
3931	0	31662	
3932	0	32004	
3933	0	32476	
3934	0	33076	
3935	0	33920	
3936	0	34888	
3937	0	35872	
3938	0	36868	
3939	0	38100	
3940	0	39504	
3941	0	41016	
3942	0	42522	
3943	0	43952	
3944	0	45332	
3945	0	46840	
3946	0	48360	
3947	0	49888	
3948	0	51400	
3949	0	52820	
3950	0	54152	
3951	0	55504	
3952	0	56812	
3953	0	57928	
3954	0	58788	
3955	0	59376	
3956	0	59640	
3957	0	59228	
3958	0	57690	
3959	0	55288	
3960	0	52320	
3961	0	48996	
3962	0	45712	
3963	0	42472	
3964	0	38960	
3965	0	35096	
3966	0	31584	
3967	0	29012	
3968	0	27496	
3969	0	26696	
3970	0	26416	
3971	0	26444	
3972	0	26600	
3973	0	26692	
3974	0	26880	
3975	0	27284	
3976	0	27824	
3977	0	28328	
3978	0	28728	
3979	0	29176	
3980	0	29656	
3981	0	30120	
3982	0	30560	
3983	0	30972	
3984	0	31332	
3985	0	31532	
3986	0	31576	
3987	0	31652	
3988	0	31708	
3989	0	31664	
3990	0	31716	
3991	0	31760	
3992	0	31600	
3993	0	31512	
3994	0	31476	
3995	0	31450	
3996	0	31404	
3997	0	31432	
3998	0	31508	
3999	0	31518	
4000	0	31460	
4001	0	31396	
4002	0	31308	
4003	0	31244	
4004	0	31204	
4005	0	31274	
4006	0	31388	
4007	0	31380	
4008	0	31304	
4009	0	31308	
4010	0	31352	
4011	0	31412	
4012	0	31412	
4013	0	31396	
4014	0	31436	
4015	0	31508	
4016	0	31644	
4017	0	31776	
4018	0	31828	
4019	0	31812	
4020	0	31796	
4021	0	31738	
4022	0	31652	
4023	0	31736	
4024	0	31832	
4025	0	31932	
4026	0	32032	
4027	0	32000	
4028	0	32000	
4029	0	31940	
4030	0	31944	
4031	0	31992	
4032	0	32140	
4033	0	32144	
4034	0	32026	
4035	0	31948	
4036	0	31948	
4037	0	31992	
4038	0	32024	
4039	0	32008	
4040	0	31900	
4041	0	31876	
4042	0	31996	
4043	0	32128	
4044	0	32226	
4045	0	32412	
4046	0	32520	
4047	0	32556	
4048	0	32556	
4049	0	32580	
4050	0	32580	
4051	0	32556	
4052	0	32640	
4053	0	32778	
4054	0	32836	
4055	0	32728	
4056	0	32556	
4057	0	32380	
4058	0	32468	
4059	0	32616	
4060	0	32608	
4061	0	32544	
4062	0	32484	
4063	0	32472	
4064	0	32556	
4065	0	32520	
4066	0	32596	
4067	0	32700	
4068	0	32768	
4069	0	32852	
4070	0	32896	
4071	0	32968	
4072	0	33112	
4073	0	33184	
4074	0	33164	
4075	0	33180	
4076	0	33128	
4077	0	33128	
4078	0	33172	
4079	0	33112	
4080	0	33186	
4081	0	33232	
4082	0	33216	
4083	0	33160	
4084	0	33192	
4085	0	33392	
4086	0	33556	
4087	0	33608	
4088	0	33572	
4089	0	33624	
4090	0	33756	
4091	0	33776	
4092	0	33776	
4093	0	33844	
4094	0	33908	
4095	0	34052	
4096	0	34120	
4097	0	34084	
4098	0	33984	
4099	0	33944	
4100	0	33992	
4101	0	34028	
4102	0	34024	
4103	0	34088	
4104	0	34096	
4105	0	34064	
4106	0	34062	
4107	0	34112	
4108	0	34212	
4109	0	34228	
4110	0	34260	
4111	0	34308	
4112	0	34286	
4113	0	34308	
4114	0	34338	
4115	0	34344	
4116	0	34480	
4117	0	34564	
4118	0	34556	
4119	0	34544	
4120	0	34592	
4121	0	34684	
4122	0	34796	
4123	0	34964	
4124	0	35080	
4125	0	35176	
4126	0	35296	
4127	0	35312	
4128	0	35272	
4129	0	35232	
4130	0	35244	
4131	0	35288	
4132	0	35196	
4133	0	35212	
4134	0	35280	
4135	0	35380	
4136	0	35536	
4137	0	35666	
4138	0	35672	
4139	0	35616	
4140	0	35728	
4141	0	35940	
4142	0	36112	
4143	0	36132	
4144	0	36112	
4145	0	36216	
4146	0	36344	
4147	0	36304	
4148	0	36280	
4149	0	36352	
4150	0	36448	
4151	0	36512	
4152	0	36584	
4153	0	36648	
4154	0	36632	
4155	0	36616	
4156	0	36632	
4157	0	36676	
4158	0	36836	
4159	0	37112	
4160	0	37256	
4161	0	37328	
4162	0	37520	
4163	0	37612	
4164	0	37720	
4165	0	37720	
4166	0	37724	
4167	0	37824	
4168	0	37924	
4169	0	38020	
4170	0	38152	
4171	0	38248	
4172	0	38324	
4173	0	38332	
4174	0	38324	
4175	0	38464	
4176	0	38572	
4177	0	38580	
4178	0	38524	
4179	0	38460	
4180	0	38492	
4181	0	38540	
4182	0	38564	
4183	0	38624	
4184	0	38756	
4185	0	38920	
4186	0	39108	
4187	0	39198	
4188	0	39296	
4189	0	39448	
4190	0	39528	
4191	0	39640	
4192	0	39720	
4193	0	39820	
4194	0	39888	
4195	0	39892	
4196	0	39732	
4197	0	39596	
4198	0	39596	
4199	0	39500	
4200	0	39408	
4201	0	39408	
4202	0	39508	
4203	0	39532	
4204	0	39552	
4205	0	39552	
4206	0	39440	
4207	0	39328	
4208	0	39288	
4209	0	39228	
4210	0	39056	
4211	0	38928	
4212	0	38832	
4213	0	38688	
4214	0	38512	
4215	0	38316	
4216	0	38224	
4217	0	38136	
4218	0	38044	
4219	0	37912	
4220	0	37716	
4221	0	37582	
4222	0	37356	
4223	0	37104	
4224	0	36888	
4225	0	36714	
4226	0	36532	
4227	0	36272	
4228	0	36112	
4229	0	35952	
4230	0	35648	
4231	0	35460	
4232	0	35432	
4233	0	35324	
4234	0	35260	
4235	0	35000	
4236	0	34488	
4237	0	34042	
4238	0	33784	
4239	0	33592	
4240	0	33448	
4241	0	33356	
4242	0	33228	
4243	0	33092	
4244	0	32900	
4245	0	32740	
4246	0	32620	
4247	0	32492	
4248	0	32392	
4249	0	32280	
4250	0	32152	
4251	0	31984	
4252	0	31792	
4253	0	31568	
4254	0	31424	
4255	0	31386	
4256	0	31324	
4257	0	31296	
4258	0	31272	
4259	0	31108	
4260	0	30924	
4261	0	30856	
4262	0	30868	
4263	0	30764	
4264	0	30704	
4265	0	30708	
4266	0	30632	
4267	0	30492	
4268	0	30424	
4269	0	30384	
4270	0	30320	
4271	0	30316	
4272	0	30334	
4273	0	30260	
4274	0	30176	
4275	0	30188	
4276	0	30168	
4277	0	30168	
4278	0	30112	
4279	0	30148	
4280	0	30228	
4281	0	30264	
4282	0	30302	
4283	0	30278	
4284	0	30160	
4285	0	30004	
4286	0	29924	
4287	0	29920	
4288	0	29934	
4289	0	30020	
4290	0	30216	
4291	0	30260	
4292	0	30244	
4293	0	30120	
4294	0	30028	
4295	0	30032	
4296	0	30144	
4297	0	30344	
4298	0	30314	
4299	0	30320	
4300	0	30288	
4301	0	30260	
4302	0	30112	
4303	0	30072	
4304	0	30196	
4305	0	30272	
4306	0	30300	
4307	0	30416	
4308	0	30512	
4309	0	30504	
4310	0	30428	
4311	0	30408	
4312	0	30344	
4313	0	30384	
4314	0	30492	
4315	0	30450	
4316	0	30368	
4317	0	30284	
4318	0	30396	
4319	0	30464	
4320	0	30516	
4321	0	30548	
4322	0	30560	
4323	0	30596	
4324	0	30648	
4325	0	30746	
4326	0	30812	
4327	0	30756	
4328	0	30792	
4329	0	30744	
4330	0	30727	
4331	0	30812	
4332	0	30792	
4333	0	30752	
4334	0	30760	
4335	0	30692	
4336	0	30608	
4337	0	30584	
4338	0	30516	
4339	0	30460	
4340	0	30520	
4341	0	30666	
4342	0	30708	
4343	0	30660	
4344	0	30624	
4345	0	30604	
4346	0	30738	
4347	0	30984	
4348	0	31040	
4349	0	31128	
4350	0	31268	
4351	0	31392	
4352	0	31378	
4353	0	31264	
4354	0	31076	
4355	0	30952	
4356	0	30680	
4357	0	30580	
4358	0	30616	
4359	0	30640	
4360	0	30640	
4361	0	30584	
4362	0	30616	
4363	0	30650	
4364	0	30704	
4365	0	30792	
4366	0	30920	
4367	0	30968	
4368	0	31040	
4369	0	31176	
4370	0	31200	
4371	0	31156	
4372	0	31152	
4373	0	31176	
4374	0	31116	
4375	0	31120	
4376	0	31040	
4377	0	30908	
4378	0	30908	
4379	0	30936	
4380	0	30856	
4381	0	30928	
4382	0	30936	
4383	0	30992	
4384	0	31068	
4385	0	31216	
4386	0	31416	
4387	0	31460	
4388	0	31688	
4389	0	31924	
4390	0	32064	
4391	0	32160	
4392	0	32260	
4393	0	32284	
4394	0	32212	
4395	0	32196	
4396	0	32352	
4397	0	32520	
4398	0	32536	
4399	0	32552	
4400	0	32676	
4401	0	32754	
4402	0	32802	
4403	0	32816	
4404	0	32812	
4405	0	32884	
4406	0	32920	
4407	0	32944	
4408	0	33084	
4409	0	33172	
4410	0	33248	
4411	0	33392	
4412	0	33624	
4413	0	33808	
4414	0	33760	
4415	0	33752	
4416	0	33792	
4417	0	33870	
4418	0	33784	
4419	0	33716	
4420	0	33676	
4421	0	33592	
4422	0	33532	
4423	0	33552	
4424	0	33632	
4425	0	33728	
4426	0	33820	
4427	0	33844	
4428	0	33796	
4429	0	33656	
4430	0	33348	
4431	0	33144	
4432	0	32944	
4433	0	32688	
4434	0	32472	
4435	0	32296	
4436	0	32072	
4437	0	31936	
4438	0	31912	
4439	0	31900	
4440	0	31836	
4441	0	31888	
4442	0	31864	
4443	0	31866	
4444	0	31928	
4445	0	31872	
4446	0	31714	
4447	0	31792	
4448	0	31812	
4449	0	31672	
4450	0	31568	
4451	0	31484	
4452	0	31296	
4453	0	31196	
4454	0	31104	
4455	0	30952	
4456	0	30864	
4457	0	30986	
4458	0	31072	
4459	0	31060	
4460	0	30880	
4461	0	30720	
4462	0	30748	
4463	0	30624	
4464	0	30528	
4465	0	30344	
4466	0	30220	
4467	0	30200	
4468	0	29984	
4469	0	29784	
4470	0	29624	
4471	0	29516	
4472	0	29356	
4473	0	29216	
4474	0	29188	
4475	0	29248	
4476	0	29434	
4477	0	29530	
4478	0	29554	
4479	0	29728	
4480	0	29770	
4481	0	29634	
4482	0	29476	
4483	0	29496	
4484	0	29620	
4485	0	29592	
4486	0	29540	
4487	0	29568	
4488	0	29584	
4489	0	29680	
4490	0	29762	
4491	0	29824	
4492	0	29920	
4493	0	29782	
4494	0	29636	
4495	0	29568	
4496	0	29548	
4497	0	29584	
4498	0	29712	
4499	0	29768	
4500	0	29764	
4501	0	29880	
4502	0	29912	
4503	0	29808	
4504	0	29800	
4505	0	29744	
4506	0	29676	
4507	0	29680	
4508	0	29892	
4509	0	30056	
4510	0	30148	
4511	0	30212	
4512	0	30266	
4513	0	30240	
4514	0	30144	
4515	0	30216	
4516	0	30240	
4517	0	30336	
4518	0	30454	
4519	0	30500	
4520	0	30512	
4521	0	30526	
4522	0	30496	
4523	0	30440	
4524	0	30448	
4525	0	30444	
4526	0	30480	
4527	0	30496	
4528	0	30528	
4529	0	30512	
4530	0	30600	
4531	0	30556	
4532	0	30440	
4533	0	30386	
4534	0	30362	
4535	0	30432	
4536	0	30450	
4537	0	30338	
4538	0	30108	
4539	0	29904	
4540	0	29920	
4541	0	29992	
4542	0	29940	
4543	0	29888	
4544	0	29980	
4545	0	30210	
4546	0	30672	
4547	0	31284	
4548	0	32140	
4549	0	32964	
4550	0	33912	
4551	0	35040	
4552	0	36244	
4553	0	37724	
4554	0	39158	
4555	0	40632	
4556	0	42240	
4557	0	43976	
4558	0	45556	
4559	0	47152	
4560	0	48812	
4561	0	50388	
4562	0	51856	
4563	0	53226	
4564	0	54524	
4565	0	55824	
4566	0	57032	
4567	0	58146	
4568	0	59160	
4569	0	59876	
4570	0	59844	
4571	0	58840	
4572	0	57064	
4573	0	54624	
4574	0	51404	
4575	0	48020	
4576	0	44740	
4577	0	41236	
4578	0	37344	
4579	0	33312	
4580	0	29976	
4581	0	27386	
4582	0	25768	
4583	0	24896	
4584	0	24500	
4585	0	24570	
4586	0	24944	
4587	0	25316	
4588	0	25658	
4589	0	25840	
4590	0	25924	
4591	0	26176	
4592	0	26444	
4593	0	26676	
4594	0	27010	
4595	0	27254	
4596	0	27376	
4597	0	27758	
4598	0	28162	
4599	0	28638	
4600	0	29044	
4601	0	29420	
4602	0	29688	
4603	0	29838	
4604	0	29844	
4605	0	29780	
4606	0	29700	
4607	0	29697	
4608	0	29837	
4609	0	29884	
4610	0	29820	
4611	0	29688	
4612	0	29520	
4613	0	29384	
4614	0	29440	
4615	0	29496	
4616	0	29500	
4617	0	29436	
4618	0	29352	
4619	0	29284	
4620	0	29348	
4621	0	29284	
4622	0	29084	
4623	0	28896	
4624	0	28892	
4625	0	28924	
4626	0	28972	
4627	0	29024	
4628	0	29020	
4629	0	29148	
4630	0	29252	
4631	0	29248	
4632	0	29296	
4633	0	29242	
4634	0	29306	
4635	0	29496	
4636	0	29656	
4637	0	29664	
4638	0	29650	
4639	0	29676	
4640	0	29832	
4641	0	29888	
4642	0	29752	
4643	0	29712	
4644	0	29664	
4645	0	29736	
4646	0	29868	
4647	0	29856	
4648	0	29778	
4649	0	29808	
4650	0	29904	
4651	0	29868	
4652	0	29828	
4653	0	29816	
4654	0	29680	
4655	0	29576	
4656	0	29600	
4657	0	29780	
4658	0	30044	
4659	0	30096	
4660	0	30136	
4661	0	30236	
4662	0	30202	
4663	0	30176	
4664	0	30300	
4665	0	30440	
4666	0	30528	
4667	0	30608	
4668	0	30620	
4669	0	30628	
4670	0	30564	
4671	0	30464	
4672	0	30338	
4673	0	30318	
4674	0	30428	
4675	0	30468	
4676	0	30432	
4677	0	30480	
4678	0	30558	
4679	0	30724	
4680	0	30898	
4681	0	30904	
4682	0	30920	
4683	0	30954	
4684	0	30852	
4685	0	30896	
4686	0	31012	
4687	0	31124	
4688	0	31184	
4689	0	31264	
4690	0	31192	
4691	0	31119	
4692	0	31064	
4693	0	31168	
4694	0	31398	
4695	0	31528	
4696	0	31456	
4697	0	31340	
4698	0	31264	
4699	0	31288	
4700	0	31172	
4701	0	31136	
4702	0	31312	
4703	0	31504	
4704	0	31540	
4705	0	31612	
4706	0	31684	
4707	0	31840	
4708	0	31884	
4709	0	31904	
4710	0	31800	
4711	0	31760	
4712	0	31780	
4713	0	31876	
4714	0	31864	
4715	0	31828	
4716	0	31744	
4717	0	31808	
4718	0	31970	
4719	0	32092	
4720	0	32244	
4721	0	32384	
4722	0	32552	
4723	0	32708	
4724	0	32864	
4725	0	33036	
4726	0	32974	
4727	0	32872	
4728	0	32794	
4729	0	32696	
4730	0	32712	
4731	0	32720	
4732	0	32608	
4733	0	32652	
4734	0	32868	
4735	0	32908	
4736	0	32740	
4737	0	32720	
4738	0	32914	
4739	0	32928	
4740	0	32976	
4741	0	33176	
4742	0	33356	
4743	0	33524	
4744	0	33644	
4745	0	33620	
4746	0	33844	
4747	0	33896	
4748	0	33764	
4749	0	33876	
4750	0	34090	
4751	0	34180	
4752	0	34164	
4753	0	34084	
4754	0	34132	
4755	0	34078	
4756	0	34124	
4757	0	34144	
4758	0	34202	
4759	0	34292	
4760	0	34548	
4761	0	34756	
4762	0	34856	
4763	0	34908	
4764	0	34916	
4765	0	35004	
4766	0	35048	
4767	0	35036	
4768	0	35064	
4769	0	35120	
4770	0	35192	
4771	0	35180	
4772	0	35268	
4773	0	35452	
4774	0	35616	
4775	0	35750	
4776	0	35966	
4777	0	36096	
4778	0	36228	
4779	0	36296	
4780	0	36484	
4781	0	36688	
4782	0	36700	
4783	0	36748	
4784	0	36676	
4785	0	36544	
4786	0	36376	
4787	0	36420	
4788	0	36748	
4789	0	37028	
4790	0	37218	
4791	0	37280	
4792	0	37372	
4793	0	37432	
4794	0	37516	
4795	0	37620	
4796	0	37760	
4797	0	37904	
4798	0	38040	
4799	0	38184	
4800	0	38140	
4801	0	38304	
4802	0	38407	
4803	0	38580	
4804	0	38596	
4805	0	38512	
4806	0	38452	
4807	0	38416	
4808	0	38416	
4809	0	38428	
4810	0	38432	
4811	0	38424	
4812	0	38400	
4813	0	38356	
4814	0	38202	
4815	0	38120	
4816	0	37964	
4817	0	37808	
4818	0	37744	
4819	0	37768	
4820	0	37668	
4821	0	37620	
4822	0	37528	
4823	0	37456	
4824	0	37436	
4825	0	37212	
4826	0	37132	
4827	0	36892	
4828	0	36776	
4829	0	36620	
4830	0	36532	
4831	0	36356	
4832	0	36200	
4833	0	36068	
4834	0	35984	
4835	0	35808	
4836	0	35716	
4837	0	35452	
4838	0	34968	
4839	0	34568	
4840	0	34284	
4841	0	34052	
4842	0	33808	
4843	0	33690	
4844	0	33732	
4845	0	33548	
4846	0	33280	
4847	0	33120	
4848	0	32956	
4849	0	32948	
4850	0	32751	
4851	0	32652	
4852	0	32504	
4853	0	32280	
4854	0	32000	
4855	0	31740	
4856	0	31536	
4857	0	31352	
4858	0	31188	
4859	0	30920	
4860	0	30530	
4861	0	30360	
4862	0	30224	
4863	0	30270	
4864	0	30336	
4865	0	30220	
4866	0	29972	
4867	0	29888	
4868	0	29932	
4869	0	29966	
4870	0	29876	
4871	0	29780	
4872	0	29700	
4873	0	29656	
4874	0	29760	
4875	0	29892	
4876	0	29924	
4877	0	29776	
4878	0	29612	
4879	0	29590	
4880	0	29680	
4881	0	29664	
4882	0	29708	
4883	0	29788	
4884	0	29882	
4885	0	29808	
4886	0	29696	
4887	0	29852	
4888	0	29716	
4889	0	29492	
4890	0	29380	
4891	0	29344	
4892	0	29272	
4893	0	29216	
4894	0	29400	
4895	0	29590	
4896	0	29600	
4897	0	29524	
4898	0	29488	
4899	0	29484	
4900	0	29410	
4901	0	29408	
4902	0	29640	
4903	0	29772	
4904	0	29738	
4905	0	29650	
4906	0	29712	
4907	0	29870	
4908	0	29984	
4909	0	30068	
4910	0	30148	
4911	0	30138	
4912	0	30132	
4913	0	30328	
4914	0	30524	
4915	0	30592	
4916	0	30496	
4917	0	30428	
4918	0	30416	
4919	0	30312	
4920	0	30312	
4921	0	30370	
4922	0	30380	
4923	0	30256	
4924	0	30296	
4925	0	30580	
4926	0	30560	
4927	0	30400	
4928	0	30432	
4929	0	30520	
4930	0	30580	
4931	0	30608	
4932	0	30604	
4933	0	30640	
4934	0	30856	
4935	0	30960	
4936	0	30808	
4937	0	30712	
4938	0	30692	
4939	0	30464	
4940	0	30412	
4941	0	30532	
4942	0	30748	
4943	0	30952	
4944	0	31120	
4945	0	30932	
4946	0	30900	
4947	0	31022	
4948	0	31064	
4949	0	30976	
4950	0	31080	
4951	0	31308	
4952	0	31300	
4953	0	31144	
4954	0	31380	
4955	0	31692	
4956	0	31600	
4957	0	31514	
4958	0	31596	
4959	0	31638	
4960	0	31682	
4961	0	31696	
4962	0	31572	
4963	0	31364	
4964	0	31392	
4965	0	31472	
4966	0	31648	
4967	0	31868	
4968	0	31932	
4969	0	32056	
4970	0	32068	
4971	0	32116	
4972	0	32164	
4973	0	32120	
4974	0	32244	
4975	0	32428	
4976	0	32448	
4977	0	32496	
4978	0	32564	
4979	0	32544	
4980	0	32496	
4981	0	32476	
4982	0	32584	
4983	0	32818	
4984	0	32996	
4985	0	33120	
4986	0	33192	
4987	0	33128	
4988	0	33088	
4989	0	33104	
4990	0	33304	
4991	0	33400	
4992	0	33472	
4993	0	33444	
4994	0	33384	
4995	0	33568	
4996	0	33684	
4997	0	33912	
4998	0	34048	
4999	0	33988	
5000	0	33968	
5001	0	34112	
5002	0	34180	
5003	0	34248	
5004	0	34554	
5005	0	34728	
5006	0	34792	
5007	0	34872	
5008	0	35048	
5009	0	35308	
5010	0	35416	
5011	0	35444	
5012	0	35420	
5013	0	35312	
5014	0	35230	
5015	0	35136	
5016	0	35056	
5017	0	35068	
5018	0	35120	
5019	0	35248	
5020	0	35300	
5021	0	35392	
5022	0	35452	
5023	0	35488	
5024	0	35608	
5025	0	35708	
5026	0	35680	
5027	0	35762	
5028	0	35748	
5029	0	35524	
5030	0	35224	
5031	0	34896	
5032	0	34592	
5033	0	34384	
5034	0	34188	
5035	0	34012	
5036	0	33900	
5037	0	33860	
5038	0	33704	
5039	0	33740	
5040	0	33888	
5041	0	33888	
5042	0	33808	
5043	0	33780	
5044	0	33768	
5045	0	33836	
5046	0	33976	
5047	0	33968	
5048	0	33980	
5049	0	33820	
5050	0	33564	
5051	0	33356	
5052	0	33216	
5053	0	33120	
5054	0	33120	
5055	0	33116	
5056	0	33092	
5057	0	33008	
5058	0	32900	
5059	0	32960	
5060	0	32852	
5061	0	32628	
5062	0	32562	
5063	0	32556	
5064	0	32392	
5065	0	32232	
5066	0	32124	
5067	0	32040	
5068	0	31744	
5069	0	31520	
5070	0	31464	
5071	0	31496	
5072	0	31468	
5073	0	31512	
5074	0	31550	
5075	0	31438	
5076	0	31460	
5077	0	31544	
5078	0	31496	
5079	0	31460	
5080	0	31566	
5081	0	31664	
5082	0	31932	
5083	0	32040	
5084	0	32072	
5085	0	32042	
5086	0	31962	
5087	0	31976	
5088	0	32036	
5089	0	31982	
5090	0	31936	
5091	0	31956	
5092	0	32016	
5093	0	31994	
5094	0	32080	
5095	0	32128	
5096	0	32196	
5097	0	32268	
5098	0	32248	
5099	0	32202	
5100	0	32120	
5101	0	32052	
5102	0	32112	
5103	0	32288	
5104	0	32384	
5105	0	32296	
5106	0	32032	
5107	0	31936	
5108	0	32000	
5109	0	32016	
5110	0	32200	
5111	0	32384	
5112	0	32372	
5113	0	32340	
5114	0	32250	
5115	0	32180	
5116	0	32132	
5117	0	32196	
5118	0	32192	
5119	0	32320	
5120	0	32344	
5121	0	32416	
5122	0	32688	
5123	0	32756	
5124	0	32926	
5125	0	32944	
5126	0	32742	
5127	0	32536	
5128	0	32332	
5129	0	32402	
5130	0	32484	
5131	0	32284	
5132	0	32232	
5133	0	32152	
5134	0	32236	
5135	0	32328	
5136	0	32412	
5137	0	32456	
5138	0	32398	
5139	0	32160	
5140	0	31972	
5141	0	32076	
5142	0	32096	
5143	0	31928	
5144	0	32000	
5145	0	32156	
5146	0	32332	
5147	0	32696	
5148	0	33292	
5149	0	33908	
5150	0	34536	
5151	0	35394	
5152	0	36392	
5153	0	37484	
5154	0	38792	
5155	0	40260	
5156	0	41840	
5157	0	43356	
5158	0	44840	
5159	0	46616	
5160	0	48408	
5161	0	49968	
5162	0	51416	
5163	0	52704	
5164	0	54036	
5165	0	55312	
5166	0	56664	
5167	0	57872	
5168	0	58780	
5169	0	59804	
5170	0	60660	
5171	0	61088	
5172	0	61112	
5173	0	60256	
5174	0	58232	
5175	0	55292	
5176	0	51916	
5177	0	48624	
5178	0	45448	
5179	0	41748	
5180	0	37792	
5181	0	33840	
5182	0	30666	
5183	0	28276	
5184	0	26750	
5185	0	26044	
5186	0	25876	
5187	0	25924	
5188	0	26024	
5189	0	26220	
5190	0	26524	
5191	0	26864	
5192	0	27220	
5193	0	27388	
5194	0	27554	
5195	0	27756	
5196	0	28012	
5197	0	28260	
5198	0	28596	
5199	0	28948	
5200	0	29240	
5201	0	29594	
5202	0	29932	
5203	0	30240	
5204	0	30564	
5205	0	30880	
5206	0	31076	
5207	0	31056	
5208	0	30988	
5209	0	30952	
5210	0	31020	
5211	0	31020	
5212	0	30912	
5213	0	30768	
5214	0	30640	
5215	0	30540	
5216	0	30472	
5217	0	30436	
5218	0	30372	
5219	0	30336	
5220	0	30384	
5221	0	30496	
5222	0	30468	
5223	0	30492	
5224	0	30420	
5225	0	30462	
5226	0	30656	
5227	0	30480	
5228	0	30248	
5229	0	30184	
5230	0	30184	
5231	0	30260	
5232	0	30424	
5233	0	30532	
5234	0	30452	
5235	0	30468	
5236	0	30536	
5237	0	30712	
5238	0	30868	
5239	0	30784	
5240	0	30804	
5241	0	30872	
5242	0	30784	
5243	0	30676	
5244	0	30740	
5245	0	30846	
5246	0	30876	
5247	0	30818	
5248	0	30844	
5249	0	30772	
5250	0	30768	
5251	0	30852	
5252	0	31016	
5253	0	31156	
5254	0	31188	
5255	0	31132	
5256	0	31176	
5257	0	31202	
5258	0	31060	
5259	0	30960	
5260	0	30940	
5261	0	31080	
5262	0	31212	
5263	0	31160	
5264	0	31200	
5265	0	31332	
5266	0	31440	
5267	0	31328	
5268	0	31262	
5269	0	31256	
5270	0	31372	
5271	0	31552	
5272	0	31728	
5273	0	31768	
5274	0	31620	
5275	0	31456	
5276	0	31436	
5277	0	31468	
5278	0	31400	
5279	0	31422	
5280	0	31496	
5281	0	31518	
5282	0	31428	
5283	0	31288	
5284	0	31312	
5285	0	31568	
5286	0	31772	
5287	0	31864	
5288	0	31808	
5289	0	31724	
5290	0	31752	
5291	0	32074	
5292	0	32308	
5293	0	32252	
5294	0	32240	
5295	0	32346	
5296	0	32388	
5297	0	32364	
5298	0	32542	
5299	0	32608	
5300	0	32420	
5301	0	32288	
5302	0	32384	
5303	0	32464	
5304	0	32400	
5305	0	32372	
5306	0	32432	
5307	0	32504	
5308	0	32576	
5309	0	32568	
5310	0	32606	
5311	0	32624	
5312	0	32684	
5313	0	32658	
5314	0	32678	
5315	0	32928	
5316	0	33056	
5317	0	32976	
5318	0	32952	
5319	0	32952	
5320	0	32980	
5321	0	33100	
5322	0	33180	
5323	0	33188	
5324	0	33280	
5325	0	33252	
5326	0	33144	
5327	0	33076	
5328	0	33242	
5329	0	33168	
5330	0	33064	
5331	0	32988	
5332	0	33008	
5333	0	33064	
5334	0	33136	
5335	0	33141	
5336	0	33076	
5337	0	33048	
5338	0	33184	
5339	0	33364	
5340	0	33388	
5341	0	33372	
5342	0	33492	
5343	0	33664	
5344	0	33824	
5345	0	33884	
5346	0	33888	
5347	0	33888	
5348	0	33916	
5349	0	33904	
5350	0	33948	
5351	0	34016	
5352	0	34108	
5353	0	34220	
5354	0	34220	
5355	0	34340	
5356	0	34588	
5357	0	34656	
5358	0	34700	
5359	0	34692	
5360	0	34756	
5361	0	34812	
5362	0	34804	
5363	0	34712	
5364	0	34720	
5365	0	34960	
5366	0	35280	
5367	0	35372	
5368	0	35436	
5369	0	35458	
5370	0	35492	
5371	0	35620	
5372	0	35744	
5373	0	35728	
5374	0	35680	
5375	0	35648	
5376	0	35732	
5377	0	35828	
5378	0	35834	
5379	0	35912	
5380	0	36074	
5381	0	36240	
5382	0	36372	
5383	0	36436	
5384	0	36400	
5385	0	36488	
5386	0	36720	
5387	0	36784	
5388	0	36836	
5389	0	36876	
5390	0	36890	
5391	0	36996	
5392	0	37144	
5393	0	37248	
5394	0	37360	
5395	0	37416	
5396	0	37440	
5397	0	37488	
5398	0	37518	
5399	0	37468	
5400	0	37448	
5401	0	37524	
5402	0	37596	
5403	0	37520	
5404	0	37476	
5405	0	37490	
5406	0	37524	
5407	0	37644	
5408	0	37770	
5409	0	37856	
5410	0	38108	
5411	0	38266	
5412	0	38228	
5413	0	38132	
5414	0	38264	
5415	0	38380	
5416	0	38264	
5417	0	38100	
5418	0	37998	
5419	0	37948	
5420	0	37880	
5421	0	37792	
5422	0	37760	
5423	0	37644	
5424	0	37408	
5425	0	37164	
5426	0	36992	
5427	0	36808	
5428	0	36536	
5429	0	36244	
5430	0	36068	
5431	0	35820	
5432	0	35592	
5433	0	35364	
5434	0	35216	
5435	0	34984	
5436	0	34728	
5437	0	34548	
5438	0	34236	
5439	0	34020	
5440	0	33864	
5441	0	33740	
5442	0	33576	
5443	0	33412	
5444	0	33264	
5445	0	33220	
5446	0	33016	
5447	0	32744	
5448	0	32600	
5449	0	32464	
5450	0	32282	
5451	0	32002	
5452	0	31816	
5453	0	31712	
5454	0	31536	
5455	0	31324	
5456	0	31172	
5457	0	30852	
5458	0	30592	
5459	0	30548	
5460	0	30348	
5461	0	30208	
5462	0	30072	
5463	0	29956	
5464	0	29832	
5465	0	29778	
5466	0	29728	
5467	0	29632	
5468	0	29604	
5469	0	29716	
5470	0	29696	
5471	0	29504	
5472	0	29372	
5473	0	29392	
5474	0	29380	
5475	0	29360	
5476	0	29232	
5477	0	29044	
5478	0	29004	
5479	0	28896	
5480	0	28932	
5481	0	29036	
5482	0	29134	
5483	0	29200	
5484	0	29148	
5485	0	29092	
5486	0	29120	
5487	0	29104	
5488	0	28968	
5489	0	28908	
5490	0	28924	
5491	0	28820	
5492	0	28748	
5493	0	28698	
5494	0	28612	
5495	0	28584	
5496	0	28592	
5497	0	28752	
5498	0	28736	
5499	0	28612	
5500	0	28564	
5501	0	28560	
5502	0	28580	
5503	0	28580	
5504	0	28632	
5505	0	28652	
5506	0	28714	
5507	0	28652	
5508	0	28578	
5509	0	28620	
5510	0	28656	
5511	0	28756	
5512	0	28928	
5513	0	29092	
5514	0	29232	
5515	0	29236	
5516	0	29240	
5517	0	29280	
5518	0	29428	
5519	0	29373	
5520	0	29400	
5521	0	29538	
5522	0	29632	
5523	0	29610	
5524	0	29448	
5525	0	29252	
5526	0	29096	
5527	0	29026	
5528	0	29060	
5529	0	29224	
5530	0	29360	
5531	0	29434	
5532	0	29428	
5533	0	29338	
5534	0	29460	
5535	0	29480	
5536	0	29496	
5537	0	29606	
5538	0	29636	
5539	0	29610	
5540	0	29676	
5541	0	29824	
5542	0	29936	
5543	0	29934	
5544	0	29936	
5545	0	29984	
5546	0	29956	
5547	0	29832	
5548	0	29812	
5549	0	29882	
5550	0	29912	
5551	0	29928	
5552	0	30028	
5553	0	30234	
5554	0	30264	
5555	0	30240	
5556	0	30244	
5557	0	30302	
5558	0	30388	
5559	0	30420	
5560	0	30332	
5561	0	30176	
5562	0	30040	
5563	0	30016	
5564	0	30112	
5565	0	30256	
5566	0	30406	
5567	0	30436	
5568	0	30444	
5569	0	30530	
5570	0	30596	
5571	0	30560	
5572	0	30524	
5573	0	30420	
5574	0	30424	
5575	0	30436	
5576	0	30500	
5577	0	30518	
5578	0	30602	
5579	0	30684	
5580	0	30700	
5581	0	30740	
5582	0	30796	
5583	0	30860	
5584	0	30832	
5585	0	30812	
5586	0	30850	
5587	0	30852	
5588	0	30784	
5589	0	30736	
5590	0	30688	
5591	0	30708	
5592	0	30760	
5593	0	30760	
5594	0	30748	
5595	0	30808	
5596	0	30932	
5597	0	30960	
5598	0	31106	
5599	0	31296	
5600	0	31472	
5601	0	31700	
5602	0	31880	
5603	0	32112	
5604	0	32160	
5605	0	32144	
5606	0	32104	
5607	0	32088	
5608	0	32112	
5609	0	32176	
5610	0	32204	
5611	0	32250	
5612	0	32314	
5613	0	32420	
5614	0	32620	
5615	0	32676	
5616	0	32672	
5617	0	32736	
5618	0	32824	
5619	0	32790	
5620	0	32672	
5621	0	32564	
5622	0	32548	
5623	0	32816	
5624	0	33044	
5625	0	33368	
5626	0	33700	
5627	0	33866	
5628	0	33796	
5629	0	33740	
5630	0	33676	
5631	0	33626	
5632	0	33636	
5633	0	33760	
5634	0	33880	
5635	0	33888	
5636	0	33920	
5637	0	33996	
5638	0	34084	
5639	0	34196	
5640	0	34280	
5641	0	34208	
5642	0	34144	
5643	0	34016	
5644	0	33760	
5645	0	33528	
5646	0	33364	
5647	0	33262	
5648	0	33200	
5649	0	33000	
5650	0	32660	
5651	0	32496	
5652	0	32420	
5653	0	32380	
5654	0	32340	
5655	0	32268	
5656	0	32184	
5657	0	32152	
5658	0	32076	
5659	0	32012	
5660	0	32116	
5661	0	32248	
5662	0	32244	
5663	0	32112	
5664	0	32040	
5665	0	31936	
5666	0	31760	
5667	0	31660	
5668	0	31560	
5669	0	31408	
5670	0	31352	
5671	0	31384	
5672	0	31428	
5673	0	31368	
5674	0	31308	
5675	0	31086	
5676	0	30900	
5677	0	30768	
5678	0	30720	
5679	0	30520	
5680	0	30312	
5681	0	30280	
5682	0	30332	
5683	0	30362	
5684	0	30312	
5685	0	30248	
5686	0	30144	
5687	0	30130	
5688	0	30144	
5689	0	30144	
5690	0	30228	
5691	0	30204	
5692	0	30164	
5693	0	30136	
5694	0	30104	
5695	0	30128	
5696	0	30172	
5697	0	30196	
5698	0	30188	
5699	0	30092	
5700	0	30082	
5701	0	30178	
5702	0	30264	
5703	0	30224	
5704	0	30200	
5705	0	30196	
5706	0	30152	
5707	0	30216	
5708	0	30450	
5709	0	30672	
5710	0	30596	
5711	0	30564	
5712	0	30572	
5713	0	30494	
5714	0	30416	
5715	0	30432	
5716	0	30448	
5717	0	30384	
5718	0	30448	
5719	0	30532	
5720	0	30664	
5721	0	30754	
5722	0	30768	
5723	0	30744	
5724	0	30668	
5725	0	30656	
5726	0	30688	
5727	0	30676	
5728	0	30588	
5729	0	30584	
5730	0	30604	
5731	0	30728	
5732	0	30760	
5733	0	30796	
5734	0	30844	
5735	0	30784	
5736	0	30812	
5737	0	30880	
5738	0	30812	
5739	0	30738	
5740	0	30872	
5741	0	30948	
5742	0	30944	
5743	0	30940	
5744	0	30856	
5745	0	30776	
5746	0	30780	
5747	0	30864	
5748	0	30988	
5749	0	31060	
5750	0	31060	
5751	0	31078	
5752	0	31140	
5753	0	31116	
5754	0	31028	
5755	0	30792	
5756	0	30604	
5757	0	30410	
5758	0	30352	
5759	0	30170	
5760	0	30020	
5761	0	30040	
5762	0	30124	
5763	0	30125	
5764	0	30154	
5765	0	30496	
5766	0	31072	
5767	0	31792	
5768	0	32524	
5769	0	33380	
5770	0	34504	
5771	0	35768	
5772	0	37104	
5773	0	38676	
5774	0	40176	
5775	0	41596	
5776	0	43124	
5777	0	44672	
5778	0	46304	
5779	0	47912	
5780	0	49460	
5781	0	51024	
5782	0	52448	
5783	0	53736	
5784	0	54880	
5785	0	56020	
5786	0	57276	
5787	0	58508	
5788	0	59536	
5789	0	60152	
5790	0	60296	
5791	0	59544	
5792	0	57844	
5793	0	55388	
5794	0	52192	
5795	0	48684	
5796	0	45152	
5797	0	41344	
5798	0	37280	
5799	0	33250	
5800	0	29788	
5801	0	27200	
5802	0	25524	
5803	0	24652	
5804	0	24356	
5805	0	24420	
5806	0	24608	
5807	0	24788	
5808	0	24988	
5809	0	25300	
5810	0	25700	
5811	0	26084	
5812	0	26444	
5813	0	26850	
5814	0	27288	
5815	0	27672	
5816	0	28100	
5817	0	28564	
5818	0	28920	
5819	0	29220	
5820	0	29436	
5821	0	29618	
5822	0	29704	
5823	0	29824	
5824	0	29904	
5825	0	29936	
5826	0	29864	
5827	0	29768	
5828	0	29608	
5829	0	29586	
5830	0	29584	
5831	0	29602	
5832	0	29476	
5833	0	29364	
5834	0	29340	
5835	0	29332	
5836	0	29324	
5837	0	29300	
5838	0	29348	
5839	0	29352	
5840	0	29300	
5841	0	29372	
5842	0	29444	
5843	0	29538	
5844	0	29584	
5845	0	29492	
5846	0	29516	
5847	0	29644	
5848	0	29818	
5849	0	29964	
5850	0	30056	
5851	0	29992	
5852	0	29876	
5853	0	29812	
5854	0	29764	
5855	0	29744	
5856	0	29800	
5857	0	29864	
5858	0	29836	
5859	0	29840	
5860	0	29928	
5861	0	30036	
5862	0	30064	
5863	0	30040	
5864	0	29976	
5865	0	29948	
5866	0	30018	
5867	0	30092	
5868	0	30172	
5869	0	30212	
5870	0	30186	
5871	0	30084	
5872	0	30032	
5873	0	30052	
5874	0	30104	
5875	0	30084	
5876	0	30136	
5877	0	30312	
5878	0	30436	
5879	0	30488	
5880	0	30408	
5881	0	30416	
5882	0	30432	
5883	0	30504	
5884	0	30496	
5885	0	30468	
5886	0	30564	
5887	0	30680	
5888	0	30700	
5889	0	30720	
5890	0	30652	
5891	0	30468	
5892	0	30396	
5893	0	30492	
5894	0	30682	
5895	0	30844	
5896	0	30936	
5897	0	30956	
5898	0	30920	
5899	0	30908	
5900	0	30900	
5901	0	30932	
5902	0	31040	
5903	0	31092	
5904	0	30972	
5905	0	30964	
5906	0	31084	
5907	0	31180	
5908	0	31204	
5909	0	31184	
5910	0	31240	
5911	0	31336	
5912	0	31340	
5913	0	31268	
5914	0	31204	
5915	0	31156	
5916	0	31172	
5917	0	31332	
5918	0	31538	
5919	0	31572	
5920	0	31652	
5921	0	31764	
5922	0	31856	
5923	0	31864	
5924	0	31738	
5925	0	31652	
5926	0	31672	
5927	0	31750	
5928	0	31780	
5929	0	31772	
5930	0	31824	
5931	0	31980	
5932	0	32092	
5933	0	32056	
5934	0	32032	
5935	0	32068	
5936	0	32092	
5937	0	32120	
5938	0	32140	
5939	0	32200	
5940	0	32176	
5941	0	32160	
5942	0	32168	
5943	0	32130	
5944	0	32172	
5945	0	32216	
5946	0	32288	
5947	0	32352	
5948	0	32408	
5949	0	32500	
5950	0	32500	
5951	0	32464	
5952	0	32404	
5953	0	32432	
5954	0	32576	
5955	0	32756	
5956	0	32820	
5957	0	32808	
5958	0	32828	
5959	0	32852	
5960	0	32924	
5961	0	33020	
5962	0	33080	
5963	0	33120	
5964	0	33176	
5965	0	33224	
5966	0	33160	
5967	0	33140	
5968	0	33252	
5969	0	33412	
5970	0	33512	
5971	0	33636	
5972	0	33748	
5973	0	33800	
5974	0	33858	
5975	0	33932	
5976	0	33936	
5977	0	33992	
5978	0	34070	
5979	0	34224	
5980	0	34276	
5981	0	34340	
5982	0	34416	
5983	0	34492	
5984	0	34496	
5985	0	34508	
5986	0	34636	
5987	0	34704	
5988	0	34784	
5989	0	34832	
5990	0	34840	
5991	0	34936	
5992	0	35028	
5993	0	35016	
5994	0	35104	
5995	0	35168	
5996	0	35280	
5997	0	35452	
5998	0	35560	
5999	0	35620	
6000	0	35656	
6001	0	35728	
6002	0	35780	
6003	0	35904	
6004	0	35984	
6005	0	36064	
6006	0	36156	
6007	0	36184	
6008	0	36216	
6009	0	36276	
6010	0	36300	
6011	0	36372	
6012	0	36440	
6013	0	36514	
6014	0	36636	
6015	0	36736	
6016	0	36912	
6017	0	36972	
6018	0	36988	
6019	0	37038	
6020	0	37124	
6021	0	37100	
6022	0	37048	
6023	0	37084	
6024	0	37136	
6025	0	37216	
6026	0	37308	
6027	0	37248	
6028	0	37156	
6029	0	37136	
6030	0	37104	
6031	0	37032	
6032	0	37036	
6033	0	37124	
6034	0	37140	
6035	0	37084	
6036	0	37024	
6037	0	37028	
6038	0	37012	
6039	0	36924	
6040	0	36796	
6041	0	36640	
6042	0	36500	
6043	0	36340	
6044	0	36156	
6045	0	36052	
6046	0	35962	
6047	0	35692	
6048	0	35456	
6049	0	35224	
6050	0	35012	
6051	0	34862	
6052	0	34640	
6053	0	34428	
6054	0	34252	
6055	0	34044	
6056	0	33896	
6057	0	33784	
6058	0	33632	
6059	0	33424	
6060	0	33242	
6061	0	33052	
6062	0	32800	
6063	0	32520	
6064	0	32296	
6065	0	32088	
6066	0	31928	
6067	0	31780	
6068	0	31688	
6069	0	31504	
6070	0	31332	
6071	0	31152	
6072	0	30976	
6073	0	30828	
6074	0	30594	
6075	0	30400	
6076	0	30240	
6077	0	30068	
6078	0	29888	
6079	0	29712	
6080	0	29516	
6081	0	29408	
6082	0	29380	
6083	0	29360	
6084	0	29320	
6085	0	29320	
6086	0	29234	
6087	0	29114	
6088	0	29000	
6089	0	28884	
6090	0	28732	
6091	0	28608	
6092	0	28680	
6093	0	28722	
6094	0	28580	
6095	0	28564	
6096	0	28496	
6097	0	28452	
6098	0	28440	
6099	0	28352	
6100	0	28256	
6101	0	28290	
6102	0	28364	
6103	0	28382	
6104	0	28340	
6105	0	28332	
6106	0	28352	
6107	0	28456	
6108	0	28536	
6109	0	28506	
6110	0	28592	
6111	0	28624	
6112	0	28596	
6113	0	28612	
6114	0	28684	
6115	0	28776	
6116	0	28744	
6117	0	28648	
6118	0	28688	
6119	0	28768	
6120	0	28800	
6121	0	28808	
6122	0	28784	
6123	0	28776	
6124	0	28836	
6125	0	28968	
6126	0	29004	
6127	0	28948	
6128	0	28928	
6129	0	28996	
6130	0	28952	
6131	0	28928	
6132	0	28904	
6133	0	28928	
6134	0	29032	
6135	0	29144	
6136	0	29276	
6137	0	29312	
6138	0	29380	
6139	0	29390	
6140	0	29372	
6141	0	29572	
6142	0	29740	
6143	0	29748	
6144	0	29682	
6145	0	29638	
6146	0	29648	
6147	0	29776	
6148	0	29860	
6149	0	29932	
6150	0	29992	
6151	0	30096	
6152	0	30136	
6153	0	30116	
6154	0	30120	
6155	0	30096	
6156	0	30120	
6157	0	30216	
6158	0	30272	
6159	0	30344	
6160	0	30388	
6161	0	30500	
6162	0	30576	
6163	0	30652	
6164	0	30720	
6165	0	30744	
6166	0	30752	
6167	0	30816	
6168	0	30880	
6169	0	30804	
6170	0	30824	
6171	0	30928	
6172	0	31012	
6173	0	31020	
6174	0	31004	
6175	0	30932	
6176	0	30900	
6177	0	30900	
6178	0	30976	
6179	0	31008	
6180	0	31024	
6181	0	31040	
6182	0	31006	
6183	0	31068	
6184	0	31072	
6185	0	31044	
6186	0	31048	
6187	0	31080	
6188	0	31120	
6189	0	31186	
6190	0	31216	
6191	0	31184	
6192	0	31224	
6193	0	31288	
6194	0	31316	
6195	0	31264	
6196	0	31172	
6197	0	31160	
6198	0	31234	
6199	0	31308	
6200	0	31216	
6201	0	31136	
6202	0	31172	
6203	0	31300	
6204	0	31476	
6205	0	31538	
6206	0	31476	
6207	0	31436	
6208	0	31372	
6209	0	31326	
6210	0	31420	
6211	0	31432	
6212	0	31300	
6213	0	31340	
6214	0	31441	
6215	0	31484	
6216	0	31492	
6217	0	31520	
6218	0	31504	
6219	0	31516	
6220	0	31512	
6221	0	31504	
6222	0	31552	
6223	0	31624	
6224	0	31636	
6225	0	31600	
6226	0	31616	
6227	0	31584	
6228	0	31552	
6229	0	31524	
6230	0	31504	
6231	0	31440	
6232	0	31416	
6233	0	31532	
6234	0	31648	
6235	0	31532	
6236	0	31532	
6237	0	31556	
6238	0	31564	
6239	0	31612	
6240	0	31720	
6241	0	31776	
6242	0	31704	
6243	0	31672	
6244	0	31582	
6245	0	31504	
6246	0	31508	
6247	0	31620	
6248	0	31712	
6249	0	31764	
6250	0	31872	
6251	0	31904	
6252	0	31836	
6253	0	31828	
6254	0	31848	
6255	0	31804	
6256	0	31732	
6257	0	31736	
6258	0	31774	
6259	0	31744	
6260	0	31714	
6261	0	31654	
6262	0	31648	
6263	0	31696	
6264	0	31694	
6265	0	31692	
6266	0	31696	
6267	0	31780	
6268	0	31824	
6269	0	31880	
6270	0	31884	
6271	0	31820	
6272	0	31780	
6273	0	31782	
6274	0	31690	
6275	0	31552	
6276	0	31548	
6277	0	31476	
6278	0	31460	
6279	0	31428	
6280	0	31468	
6281	0	31504	
6282	0	31528	
6283	0	31560	
6284	0	31620	
6285	0	31740	
6286	0	31912	
6287	0	32088	
6288	0	32284	
6289	0	32412	
6290	0	32472	
6291	0	32604	
6292	0	32764	
6293	0	32874	
6294	0	32960	
6295	0	33032	
6296	0	33152	
6297	0	33292	
6298	0	33444	
6299	0	33560	
6300	0	33640	
6301	0	33748	
6302	0	33864	
6303	0	33948	
6304	0	34024	
6305	0	34114	
6306	0	34128	
6307	0	34108	
6308	0	33992	
6309	0	34052	
6310	0	34268	
6311	0	34394	
6312	0	34520	
6313	0	34640	
6314	0	34656	
6315	0	34596	
6316	0	34568	
6317	0	34548	
6318	0	34528	
6319	0	34516	
6320	0	34516	
6321	0	34472	
6322	0	34488	
6323	0	34504	
6324	0	34548	
6325	0	34636	
6326	0	34636	
6327	0	34580	
6328	0	34512	
6329	0	34328	
6330	0	34016	
6331	0	33728	
6332	0	33444	
6333	0	33244	
6334	0	33042	
6335	0	32904	
6336	0	32752	
6337	0	32520	
6338	0	32284	
6339	0	32144	
6340	0	32076	
6341	0	31968	
6342	0	31968	
6343	0	31936	
6344	0	31992	
6345	0	32056	
6346	0	32016	
6347	0	31952	
6348	0	31800	
6349	0	31764	
6350	0	31788	
6351	0	31784	
6352	0	31714	
6353	0	31560	
6354	0	31540	
6355	0	31552	
6356	0	31518	
6357	0	31404	
6358	0	31320	
6359	0	31200	
6360	0	31150	
6361	0	31108	
6362	0	31006	
6363	0	30824	
6364	0	30700	
6365	0	30656	
6366	0	30588	
6367	0	30520	
6368	0	30540	
6369	0	30592	
6370	0	30592	
6371	0	30616	
6372	0	30600	
6373	0	30580	
6374	0	30552	
6375	0	30520	
6376	0	30512	
6377	0	30584	
6378	0	30682	
6379	0	30772	
6380	0	30778	
6381	0	30746	
6382	0	30724	
6383	0	30704	
6384	0	30680	
6385	0	30786	
6386	0	30896	
6387	0	30976	
6388	0	31000	
6389	0	30952	
6390	0	30896	
6391	0	30812	
6392	0	30804	
6393	0	30940	
6394	0	31036	
6395	0	31056	
6396	0	31160	
6397	0	31160	
6398	0	31188	
6399	0	31232	
6400	0	31200	
6401	0	31148	
6402	0	31194	
6403	0	31300	
6404	0	31336	
6405	0	31328	
6406	0	31216	
6407	0	31264	
6408	0	31268	
6409	0	31256	
6410	0	31268	
6411	0	31244	
6412	0	31252	
6413	0	31304	
6414	0	31378	
6415	0	31456	
6416	0	31524	
6417	0	31649	
6418	0	31736	
6419	0	31756	
6420	0	31720	
6421	0	31676	
6422	0	31628	
6423	0	31568	
6424	0	31580	
6425	0	31740	
6426	0	31960	
6427	0	32052	
6428	0	32032	
6429	0	32052	
6430	0	32132	
6431	0	32148	
6432	0	32092	
6433	0	32036	
6434	0	32076	
6435	0	32176	
6436	0	32172	
6437	0	32068	
6438	0	31976	
6439	0	31896	
6440	0	31794	
6441	0	31664	
6442	0	31640	
6443	0	31680	
6444	0	31742	
6445	0	31824	
6446	0	31996	
6447	0	32200	
6448	0	32616	
6449	0	33152	
6450	0	33744	
6451	0	34304	
6452	0	35140	
6453	0	36184	
6454	0	37268	
6455	0	38436	
6456	0	39812	
6457	0	41324	
6458	0	42860	
6459	0	44264	
6460	0	45684	
6461	0	47208	
6462	0	48772	
6463	0	50328	
6464	0	51800	
6465	0	53156	
6466	0	54480	
6467	0	55846	
6468	0	57236	
6469	0	58416	
6470	0	59364	
6471	0	60088	
6472	0	60704	
6473	0	61064	
6474	0	60676	
6475	0	59076	
6476	0	56700	
6477	0	53604	
6478	0	50104	
6479	0	46572	
6480	0	42864	
6481	0	38780	
6482	0	34608	
6483	0	31076	
6484	0	28556	
6485	0	27012	
6486	0	26156	
6487	0	25742	
6488	0	25632	
6489	0	25764	
6490	0	26000	
6491	0	26396	
6492	0	26860	
6493	0	27432	
6494	0	28080	
6495	0	28612	
6496	0	29152	
6497	0	29740	
6498	0	30258	
6499	0	30648	
6500	0	30968	
6501	0	31192	
6502	0	31356	
6503	0	31452	
6504	0	31560	
6505	0	31612	
6506	0	31612	
6507	0	31528	
6508	0	31428	
6509	0	31376	
6510	0	31340	
6511	0	31232	
6512	0	31120	
6513	0	31068	
6514	0	31020	
6515	0	31024	
6516	0	31056	
6517	0	31120	
6518	0	31112	
6519	0	31080	
6520	0	31172	
6521	0	31252	
6522	0	31304	
6523	0	31304	
6524	0	31244	
6525	0	31192	
6526	0	31204	
6527	0	31172	
6528	0	31172	
6529	0	31200	
6530	0	31312	
6531	0	31396	
6532	0	31468	
6533	0	31460	
6534	0	31392	
6535	0	31240	
6536	0	31160	
6537	0	31264	
6538	0	31320	
6539	0	31340	
6540	0	31416	
6541	0	31492	
6542	0	31536	
6543	0	31552	
6544	0	31560	
6545	0	31584	
6546	0	31620	
6547	0	31736	
6548	0	31854	
6549	0	31904	
6550	0	31892	
6551	0	31856	
6552	0	31832	
6553	0	31870	
6554	0	31912	
6555	0	31972	
6556	0	32000	
6557	0	31984	
6558	0	31984	
6559	0	31964	
6560	0	31936	
6561	0	31928	
6562	0	31968	
6563	0	32016	
6564	0	32056	
6565	0	32084	
6566	0	32084	
6567	0	32152	
6568	0	32192	
6569	0	32252	
6570	0	32308	
6571	0	32364	
6572	0	32336	
6573	0	32276	
6574	0	32264	
6575	0	32236	
6576	0	32240	
6577	0	32320	
6578	0	32464	
6579	0	32592	
6580	0	32588	
6581	0	32572	
6582	0	32664	
6583	0	32712	
6584	0	32672	
6585	0	32628	
6586	0	32620	
6587	0	32608	
6588	0	32608	
6589	0	32636	
6590	0	32652	
6591	0	32584	
6592	0	32540	
6593	0	32544	
6594	0	32656	
6595	0	32800	
6596	0	32896	
6597	0	32904	
6598	0	32908	
6599	0	32904	
6600	0	32892	
6601	0	32904	
6602	0	32908	
6603	0	32996	
6604	0	33120	
6605	0	33086	
6606	0	33040	
6607	0	33092	
6608	0	33180	
6609	0	33284	
6610	0	33376	
6611	0	33376	
6612	0	33316	
6613	0	33262	
6614	0	33328	
6615	0	33384	
6616	0	33432	
6617	0	33406	
6618	0	33432	
6619	0	33572	
6620	0	33596	
6621	0	33588	
6622	0	33620	
6623	0	33642	
6624	0	33656	
6625	0	33684	
6626	0	33692	
6627	0	33748	
6628	0	33832	
6629	0	33810	
6630	0	33764	
6631	0	33808	
6632	0	33884	
6633	0	33952	
6634	0	33952	
6635	0	33904	
6636	0	33916	
6637	0	33956	
6638	0	34016	
6639	0	34092	
6640	0	34216	
6641	0	34286	
6642	0	34388	
6643	0	34444	
6644	0	34484	
6645	0	34528	
6646	0	34532	
6647	0	34544	
6648	0	34560	
6649	0	34602	
6650	0	34700	
6651	0	34794	
6652	0	34884	
6653	0	34920	
6654	0	34960	
6655	0	34970	
6656	0	35000	
6657	0	35036	
6658	0	35102	
6659	0	35144	
6660	0	35128	
6661	0	35208	
6662	0	35296	
6663	0	35296	
6664	0	35360	
6665	0	35480	
6666	0	35584	
6667	0	35654	
6668	0	35740	
6669	0	35868	
6670	0	35952	
6671	0	36004	
6672	0	36092	
6673	0	36180	
6674	0	36288	
6675	0	36352	
6676	0	36424	
6677	0	36532	
6678	0	36648	
6679	0	36708	
6680	0	36760	
6681	0	36800	
6682	0	36888	
6683	0	36940	
6684	0	37020	
6685	0	37196	
6686	0	37284	
6687	0	37336	
6688	0	37400	
6689	0	37504	
6690	0	37570	
6691	0	37608	
6692	0	37672	
6693	0	37784	
6694	0	37850	
6695	0	37930	
6696	0	38000	
6697	0	38056	
6698	0	38130	
6699	0	38200	
6700	0	38236	
6701	0	38328	
6702	0	38308	
6703	0	38324	
6704	0	38330	
6705	0	38364	
6706	0	38436	
6707	0	38472	
6708	0	38452	
6709	0	38428	
6710	0	38432	
6711	0	38504	
6712	0	38584	
6713	0	38658	
6714	0	38680	
6715	0	38724	
6716	0	38740	
6717	0	38756	
6718	0	38688	
6719	0	38624	
6720	0	38572	
6721	0	38532	
6722	0	38516	
6723	0	38484	
6724	0	38368	
6725	0	38168	
6726	0	38008	
6727	0	37912	
6728	0	37868	
6729	0	37728	
6730	0	37568	
6731	0	37408	
6732	0	37232	
6733	0	37052	
6734	0	36900	
6735	0	36704	
6736	0	36424	
6737	0	36096	
6738	0	35828	
6739	0	35656	
6740	0	35452	
6741	0	35210	
6742	0	34948	
6743	0	34724	
6744	0	34564	
6745	0	34364	
6746	0	34088	
6747	0	33840	
6748	0	33632	
6749	0	33460	
6750	0	33356	
6751	0	33188	
6752	0	32984	
6753	0	32764	
6754	0	32572	
6755	0	32354	
6756	0	32262	
6757	0	32256	
6758	0	32156	
6759	0	31937	
6760	0	31740	
6761	0	31584	
6762	0	31416	
6763	0	31288	
6764	0	31122	
6765	0	30958	
6766	0	30784	
6767	0	30684	
6768	0	30600	
6769	0	30552	
6770	0	30504	
6771	0	30440	
6772	0	30348	
6773	0	30304	
6774	0	30222	
6775	0	30088	
6776	0	30040	
6777	0	29890	
6778	0	29740	
6779	0	29704	
6780	0	29700	
6781	0	29700	
6782	0	29720	
6783	0	29776	
6784	0	29804	
6785	0	29760	
6786	0	29756	
6787	0	29676	
6788	0	29552	
6789	0	29544	
6790	0	29558	
6791	0	29564	
6792	0	29568	
6793	0	29556	
6794	0	29552	
6795	0	29580	
6796	0	29572	
6797	0	29608	
6798	0	29596	
6799	0	29560	
6800	0	29584	
6801	0	29637	
6802	0	29722	
6803	0	29746	
6804	0	29736	
6805	0	29768	
6806	0	29796	
6807	0	29706	
6808	0	29668	
6809	0	29736	
6810	0	29848	
6811	0	29854	
6812	0	29848	
6813	0	29854	
6814	0	29824	
6815	0	29840	
6816	0	29904	
6817	0	29972	
6818	0	30076	
6819	0	30142	
6820	0	30128	
6821	0	30078	
6822	0	30072	
6823	0	30064	
6824	0	30120	
6825	0	30160	
6826	0	30252	
6827	0	30290	
6828	0	30226	
6829	0	30196	
6830	0	30216	
6831	0	30264	
6832	0	30292	
6833	0	30328	
6834	0	30380	
6835	0	30380	
6836	0	30396	
6837	0	30412	
6838	0	30410	
6839	0	30458	
6840	0	30568	
6841	0	30604	
6842	0	30616	
6843	0	30656	
6844	0	30696	
6845	0	30754	
6846	0	30812	
6847	0	30778	
6848	0	30740	
6849	0	30805	
6850	0	30880	
6851	0	30932	
6852	0	30936	
6853	0	30912	
6854	0	30892	
6855	0	30904	
6856	0	30904	
6857	0	30892	
6858	0	30928	
6859	0	30964	
6860	0	30984	
6861	0	30976	
6862	0	31024	
6863	0	31040	
6864	0	31020	
6865	0	31072	
6866	0	31104	
6867	0	31124	
6868	0	31160	
6869	0	31190	
6870	0	31212	
6871	0	31236	
6872	0	31280	
6873	0	31220	
6874	0	31176	
6875	0	31156	
6876	0	31168	
6877	0	31144	
6878	0	31136	
6879	0	31136	
6880	0	31164	
6881	0	31188	
6882	0	31232	
6883	0	31216	
6884	0	31148	
6885	0	31096	
6886	0	31168	
6887	0	31232	
6888	0	31232	
6889	0	31244	
6890	0	31232	
6891	0	31208	
6892	0	31232	
6893	0	31272	
6894	0	31288	
6895	0	31256	
6896	0	31248	
6897	0	31264	
6898	0	31268	
6899	0	31220	
6900	0	31092	
6901	0	31024	
6902	0	31040	
6903	0	31072	
6904	0	31112	
6905	0	31208	
6906	0	31276	
6907	0	31290	
6908	0	31272	
6909	0	31204	
6910	0	31156	
6911	0	31164	
6912	0	31188	
6913	0	31204	
6914	0	31144	
6915	0	31168	
6916	0	31172	
6917	0	31162	
6918	0	31152	
6919	0	31164	
6920	0	31140	
6921	0	31148	
6922	0	31172	
6923	0	31192	
6924	0	31204	
6925	0	31236	
6926	0	31224	
6927	0	31196	
6928	0	31196	
6929	0	31192	
6930	0	31188	
6931	0	31184	
6932	0	31152	
6933	0	31128	
6934	0	31176	
6935	0	31272	
6936	0	31372	
6937	0	31360	
6938	0	31392	
6939	0	31456	
6940	0	31496	
6941	0	31568	
6942	0	31588	
6943	0	31588	
6944	0	31616	
6945	0	31588	
6946	0	31498	
6947	0	31444	
6948	0	31480	
6949	0	31588	
6950	0	31584	
6951	0	31520	
6952	0	31540	
6953	0	31592	
6954	0	31588	
6955	0	31572	
6956	0	31592	
6957	0	31656	
6958	0	31632	
6959	0	31610	
6960	0	31616	
6961	0	31648	
6962	0	31652	
6963	0	31708	
6964	0	31740	
6965	0	31752	
6966	0	31792	
6967	0	31816	
6968	0	31780	
6969	0	31776	
6970	0	31730	
6971	0	31778	
6972	0	31776	
6973	0	31800	
6974	0	31856	
6975	0	31876	
6976	0	31856	
6977	0	31792	
6978	0	31776	
6979	0	31788	
6980	0	31836	
6981	0	31824	
6982	0	31788	
6983	0	31740	
6984	0	31760	
6985	0	31808	
6986	0	31860	
6987	0	31928	
6988	0	31976	
6989	0	31948	
6990	0	31868	
6991	0	31832	
6992	0	31840	
6993	0	31844	
6994	0	31864	
6995	0	31928	
6996	0	31968	
6997	0	31944	
6998	0	31944	
6999	0	31984	
7000	0	32094	
7001	0	32112	
7002	0	32100	
7003	0	32052	
7004	0	31968	
7005	0	31980	
7006	0	31964	
7007	0	31816	
7008	0	31696	
7009	0	31745	
7010	0	31872	
7011	0	32056	
7012	0	32140	
7013	0	32108	
7014	0	32036	
7015	0	31968	
7016	0	31924	
7017	0	31948	
7018	0	31996	
7019	0	32080	
7020	0	32104	
7021	0	32092	
7022	0	32152	
7023	0	32200	
7024	0	32180	
7025	0	32232	
7026	0	32308	
7027	0	32304	
7028	0	32272	
7029	0	32282	
7030	0	32264	
7031	0	32188	
7032	0	32208	
7033	0	32324	
7034	0	32344	
7035	0	32336	
7036	0	32384	
7037	0	32456	
7038	0	32512	
7039	0	32592	
7040	0	32700	
7041	0	32848	
7042	0	32972	
7043	0	33096	
7044	0	33252	
7045	0	33440	
7046	0	33656	
7047	0	33936	
7048	0	34092	
7049	0	34144	
7050	0	34196	
7051	0	34196	
7052	0	34208	
7053	0	34232	
7054	0	34256	
7055	0	34392	
7056	0	34484	
7057	0	34472	
7058	0	34444	
7059	0	34496	
7060	0	34528	
7061	0	34568	
7062	0	34594	
7063	0	34686	
7064	0	34784	
7065	0	34840	
7066	0	34936	
7067	0	35004	
7068	0	35044	
7069	0	35024	
7070	0	34972	
7071	0	34920	
7072	0	34864	
7073	0	34880	
7074	0	34948	
7075	0	34976	
7076	0	35060	
7077	0	35192	
7078	0	35288	
7079	0	35384	
7080	0	35424	
7081	0	35412	
7082	0	35376	
7083	0	35280	
7084	0	35060	
7085	0	34796	
7086	0	34616	
7087	0	34448	
7088	0	34256	
7089	0	34076	
7090	0	33890	
7091	0	33740	
7092	0	33660	
7093	0	33632	
7094	0	33556	
7095	0	33420	
7096	0	33268	
7097	0	33212	
7098	0	33216	
7099	0	33234	
7100	0	33248	
7101	0	33316	
7102	0	33416	
7103	0	33380	
7104	0	33288	
7105	0	33210	
7106	0	33064	
7107	0	32986	
7108	0	32952	
7109	0	32940	
7110	0	32884	
7111	0	32784	
7112	0	32640	
7113	0	32504	
7114	0	32380	
7115	0	32249	
7116	0	32244	
7117	0	32222	
7118	0	32072	
7119	0	31872	
7120	0	31708	
7121	0	31592	
7122	0	31530	
7123	0	31528	
7124	0	31588	
7125	0	31620	
7126	0	31652	
7127	0	31680	
7128	0	31660	
7129	0	31616	
7130	0	31564	
7131	0	31520	
7132	0	31536	
7133	0	31540	
7134	0	31556	
7135	0	31568	
7136	0	31564	
7137	0	31604	
7138	0	31584	
7139	0	31520	
7140	0	31584	
7141	0	31624	
7142	0	31608	
7143	0	31588	
7144	0	31616	
7145	0	31672	
7146	0	31736	
7147	0	31772	
7148	0	31792	
7149	0	31648	
7150	0	31588	
7151	0	31616	
7152	0	31676	
7153	0	31660	
7154	0	31668	
7155	0	31674	
7156	0	31612	
7157	0	31588	
7158	0	31604	
7159	0	31610	
7160	0	31632	
7161	0	31656	
7162	0	31638	
7163	0	31632	
7164	0	31648	
7165	0	31688	
7166	0	31700	
7167	0	31748	
7168	0	31912	
7169	0	32068	
7170	0	32092	
7171	0	32098	
7172	0	32100	
7173	0	32052	
7174	0	32084	
7175	0	32096	
7176	0	32096	
7177	0	32184	
7178	0	32248	
7179	0	32296	
7180	0	32316	
7181	0	32260	
7182	0	32264	
7183	0	32234	
7184	0	32152	
7185	0	32148	
7186	0	32229	
7187	0	32328	
7188	0	32328	
7189	0	32336	
7190	0	32276	
7191	0	32124	
7192	0	31956	
7193	0	31868	
7194	0	31780	
7195	0	31732	
7196	0	31764	
7197	0	31828	
7198	0	32024	
7199	0	32414	
7200	0	32948	
7201	0	33490	
7202	0	34072	
7203	0	34816	
7204	0	35664	
7205	0	36596	
7206	0	37680	
7207	0	39032	
7208	0	40584	
7209	0	42080	
7210	0	43508	
7211	0	44956	
7212	0	46392	
7213	0	47840	
7214	0	49320	
7215	0	50804	
7216	0	52240	
7217	0	53592	
7218	0	54924	
7219	0	56276	
7220	0	57516	
7221	0	58464	
7222	0	59168	
7223	0	59736	
7224	0	60108	
7225	0	59984	
7226	0	58760	
7227	0	56620	
7228	0	53736	
7229	0	50368	
7230	0	46952	
7231	0	43456	
7232	0	39616	
7233	0	35552	
7234	0	31984	
7235	0	29408	
7236	0	27740	
7237	0	26732	
7238	0	26184	
7239	0	26008	
7240	0	26124	
7241	0	26384	
7242	0	26725	
7243	0	27120	
7244	0	27672	
7245	0	28244	
7246	0	28728	
7247	0	29216	
7248	0	29720	
7249	0	30164	
7250	0	30608	
7251	0	30944	
7252	0	31140	
7253	0	31244	
7254	0	31224	
7255	0	31156	
7256	0	31140	
7257	0	31146	
7258	0	31148	
7259	0	31052	
7260	0	30956	
7261	0	30884	
7262	0	30868	
7263	0	30834	
7264	0	30828	
7265	0	30804	
7266	0	30768	
7267	0	30752	
7268	0	30730	
7269	0	30730	
7270	0	30700	
7271	0	30660	
7272	0	30644	
7273	0	30712	
7274	0	30792	
7275	0	30792	
7276	0	30802	
7277	0	30788	
7278	0	30772	
7279	0	30804	
7280	0	30852	
7281	0	30936	
7282	0	30960	
7283	0	30904	
7284	0	30864	
7285	0	30864	
7286	0	30872	
7287	0	30996	
7288	0	31080	
7289	0	31080	
7290	0	30996	
7291	0	30928	
7292	0	30972	
7293	0	31040	
7294	0	31072	
7295	0	31112	
7296	0	31116	
7297	0	31140	
7298	0	31212	
7299	0	31280	
7300	0	31288	
7301	0	31288	
7302	0	31336	
7303	0	31404	
7304	0	31488	
7305	0	31480	
7306	0	31472	
7307	0	31428	
7308	0	31416	
7309	0	31452	
7310	0	31476	
7311	0	31548	
7312	0	31616	
7313	0	31688	
7314	0	31724	
7315	0	31716	
7316	0	31706	
7317	0	31688	
7318	0	31700	
7319	0	31704	
7320	0	31720	
7321	0	31736	
7322	0	31770	
7323	0	31860	
7324	0	31932	
7325	0	31936	
7326	0	31940	
7327	0	31968	
7328	0	32016	
7329	0	32080	
7330	0	32084	
7331	0	32116	
7332	0	32096	
7333	0	32108	
7334	0	32156	
7335	0	32212	
7336	0	32232	
7337	0	32236	
7338	0	32288	
7339	0	32298	
7340	0	32324	
7341	0	32420	
7342	0	32448	
7343	0	32440	
7344	0	32544	
7345	0	32696	
7346	0	32775	
7347	0	32776	
7348	0	32764	
7349	0	32736	
7350	0	32780	
7351	0	32836	
7352	0	32912	
7353	0	32988	
7354	0	33000	
7355	0	33090	
7356	0	33176	
7357	0	33166	
7358	0	33144	
7359	0	33204	
7360	0	33232	
7361	0	33224	
7362	0	33204	
7363	0	33196	
7364	0	33256	
7365	0	33284	
7366	0	33312	
7367	0	33336	
7368	0	33380	
7369	0	33410	
7370	0	33444	
7371	0	33496	
7372	0	33568	
7373	0	33636	
7374	0	33696	
7375	0	33692	
7376	0	33628	
7377	0	33620	
7378	0	33676	
7379	0	33730	
7380	0	33684	
7381	0	33680	
7382	0	33736	
7383	0	33856	
7384	0	33936	
7385	0	33992	
7386	0	34016	
7387	0	34080	
7388	0	34104	
7389	0	34110	
7390	0	34228	
7391	0	34252	
7392	0	34180	
7393	0	34152	
7394	0	34168	
7395	0	34228	
7396	0	34280	
7397	0	34336	
7398	0	34404	
7399	0	34476	
7400	0	34584	
7401	0	34564	
7402	0	34504	
7403	0	34492	
7404	0	34532	
7405	0	34628	
7406	0	34696	
7407	0	34800	
7408	0	34884	
7409	0	34948	
7410	0	34976	
7411	0	34964	
7412	0	35058	
7413	0	35144	
7414	0	35184	
7415	0	35216	
7416	0	35264	
7417	0	35354	
7418	0	35416	
7419	0	35536	
7420	0	35624	
7421	0	35672	
7422	0	35740	
7423	0	35840	
7424	0	35900	
7425	0	35892	
7426	0	35904	
7427	0	36008	
7428	0	36108	
7429	0	36204	
7430	0	36296	
7431	0	36416	
7432	0	36500	
7433	0	36562	
7434	0	36628	
7435	0	36728	
7436	0	36816	
7437	0	36880	
7438	0	36996	
7439	0	37072	
7440	0	37184	
7441	0	37328	
7442	0	37428	
7443	0	37472	
7444	0	37536	
7445	0	37560	
7446	0	37628	
7447	0	37684	
7448	0	37708	
7449	0	37748	
7450	0	37840	
7451	0	37916	
7452	0	37992	
7453	0	38084	
7454	0	38112	
7455	0	38074	
7456	0	38076	
7457	0	38144	
7458	0	38240	
7459	0	38304	
7460	0	38304	
7461	0	38292	
7462	0	38372	
7463	0	38460	
7464	0	38500	
7465	0	38548	
7466	0	38644	
7467	0	38652	
7468	0	38608	
7469	0	38592	
7470	0	38632	
7471	0	38686	
7472	0	38664	
7473	0	38572	
7474	0	38500	
7475	0	38376	
7476	0	38260	
7477	0	38212	
7478	0	38092	
7479	0	37920	
7480	0	37786	
7481	0	37626	
7482	0	37516	
7483	0	37404	
7484	0	37204	
7485	0	37000	
7486	0	36864	
7487	0	36700	
7488	0	36488	
7489	0	36320	
7490	0	36196	
7491	0	36004	
7492	0	35764	
7493	0	35460	
7494	0	35208	
7495	0	35072	
7496	0	34884	
7497	0	34658	
7498	0	34476	
7499	0	34296	
7500	0	34096	
7501	0	33888	
7502	0	33672	
7503	0	33438	
7504	0	33206	
7505	0	33044	
7506	0	32920	
7507	0	32692	
7508	0	32520	
7509	0	32360	
7510	0	32124	
7511	0	31976	
7512	0	31872	
7513	0	31730	
7514	0	31532	
7515	0	31360	
7516	0	31248	
7517	0	30984	
7518	0	30820	
7519	0	30772	
7520	0	30698	
7521	0	30584	
7522	0	30472	
7523	0	30356	
7524	0	30196	
7525	0	30088	
7526	0	30064	
7527	0	30136	
7528	0	30168	
7529	0	30096	
7530	0	30016	
7531	0	29868	
7532	0	29760	
7533	0	29680	
7534	0	29588	
7535	0	29572	
7536	0	29580	
7537	0	29532	
7538	0	29460	
7539	0	29400	
7540	0	29420	
7541	0	29472	
7542	0	29446	
7543	0	29384	
7544	0	29356	
7545	0	29312	
7546	0	29300	
7547	0	29366	
7548	0	29368	
7549	0	29348	
7550	0	29332	
7551	0	29354	
7552	0	29328	
7553	0	29276	
7554	0	29300	
7555	0	29386	
7556	0	29410	
7557	0	29372	
7558	0	29340	
7559	0	29346	
7560	0	29388	
7561	0	29456	
7562	0	29496	
7563	0	29544	
7564	0	29524	
7565	0	29500	
7566	0	29564	
7567	0	29636	
7568	0	29652	
7569	0	29588	
7570	0	29608	
7571	0	29656	
7572	0	29684	
7573	0	29720	
7574	0	29744	
7575	0	29752	
7576	0	29764	
7577	0	29808	
7578	0	29788	
7579	0	29756	
7580	0	29808	
7581	0	29856	
7582	0	29900	
7583	0	29948	
7584	0	29960	
7585	0	29968	
7586	0	29986	
7587	0	30020	
7588	0	30008	
7589	0	30016	
7590	0	30040	
7591	0	30036	
7592	0	30024	
7593	0	30094	
7594	0	30186	
7595	0	30240	
7596	0	30284	
7597	0	30308	
7598	0	30256	
7599	0	30273	
7600	0	30234	
7601	0	30202	
7602	0	30172	
7603	0	30272	
7604	0	30316	
7605	0	30356	
7606	0	30432	
7607	0	30416	
7608	0	30464	
7609	0	30522	
7610	0	30424	
7611	0	30336	
7612	0	30396	
7613	0	30432	
7614	0	30432	
7615	0	30414	
7616	0	30398	
7617	0	30364	
7618	0	30420	
7619	0	30496	
7620	0	30528	
7621	0	30608	
7622	0	30592	
7623	0	30568	
7624	0	30604	
7625	0	30664	
7626	0	30632	
7627	0	30796	
7628	0	30912	
7629	0	30852	
7630	0	30724	
7631	0	30632	
7632	0	30604	
7633	0	30624	
7634	0	30688	
7635	0	30698	
7636	0	30696	
7637	0	30676	
7638	0	30738	
7639	0	30820	
7640	0	30888	
7641	0	30924	
7642	0	30924	
7643	0	30932	
7644	0	30908	
7645	0	30876	
7646	0	30908	
7647	0	30988	
7648	0	30948	
7649	0	30828	
7650	0	30792	
7651	0	30868	
7652	0	30924	
7653	0	30936	
7654	0	30946	
7655	0	30856	
7656	0	30760	
7657	0	30768	
7658	0	30920	
7659	0	31092	
7660	0	31020	
7661	0	30894	
7662	0	30888	
7663	0	31012	
7664	0	31098	
7665	0	31156	
7666	0	31124	
7667	0	31056	
7668	0	31048	
7669	0	31024	
7670	0	31040	
7671	0	31016	
7672	0	31016	
7673	0	31010	
7674	0	31056	
7675	0	31216	
7676	0	31304	
7677	0	31218	
7678	0	31114	
7679	0	31072	
7680	0	31108	
7681	0	31146	
7682	0	31144	
7683	0	31132	
7684	0	31264	
7685	0	31336	
7686	0	31272	
7687	0	31176	
7688	0	31096	
7689	0	31156	
7690	0	31252	
7691	0	31284	
7692	0	31274	
7693	0	31128	
7694	0	31152	
7695	0	31218	
7696	0	31212	
7697	0	31192	
7698	0	31280	
7699	0	31376	
7700	0	31310	
7701	0	31280	
7702	0	31340	
7703	0	31372	
7704	0	31332	
7705	0	31360	
7706	0	31440	
7707	0	31440	
7708	0	31402	
7709	0	31424	
7710	0	31452	
7711	0	31426	
7712	0	31416	
7713	0	31464	
7714	0	31524	
7715	0	31560	
7716	0	31584	
7717	0	31564	
7718	0	31578	
7719	0	31580	
7720	0	31484	
7721	0	31512	
7722	0	31704	
7723	0	31732	
7724	0	31664	
7725	0	31516	
7726	0	31450	
7727	0	31424	
7728	0	31416	
7729	0	31400	
7730	0	31432	
7731	0	31496	
7732	0	31606	
7733	0	31680	
7734	0	31650	
7735	0	31592	
7736	0	31728	
7737	0	31912	
7738	0	31880	
7739	0	31956	
7740	0	32017	
7741	0	31958	
7742	0	31952	
7743	0	31948	
7744	0	32014	
7745	0	32080	
7746	0	32088	
7747	0	32048	
7748	0	32004	
7749	0	32172	
7750	0	32304	
7751	0	32232	
7752	0	32072	
7753	0	32000	
7754	0	31932	
7755	0	31952	
7756	0	31976	
7757	0	31916	
7758	0	31844	
7759	0	31840	
7760	0	31876	
7761	0	31824	
7762	0	31876	
7763	0	32020	
7764	0	32116	
7765	0	32092	
7766	0	31964	
7767	0	31904	
7768	0	31972	
7769	0	32008	
7770	0	32056	
7771	0	32130	
7772	0	32280	
7773	0	32352	
7774	0	32368	
7775	0	32340	
7776	0	32376	
7777	0	32412	
7778	0	32432	
7779	0	32448	
7780	0	32464	
7781	0	32480	
7782	0	32522	
7783	0	32492	
7784	0	32436	
7785	0	32396	
7786	0	32464	
7787	0	32520	
7788	0	32504	
7789	0	32522	
7790	0	32530	
7791	0	32616	
7792	0	32644	
7793	0	32652	
7794	0	32638	
7795	0	32600	
7796	0	32724	
7797	0	32796	
7798	0	32816	
7799	0	32876	
7800	0	32872	
7801	0	32812	
7802	0	32818	
7803	0	32816	
7804	0	32722	
7805	0	32654	
7806	0	32640	
7807	0	32664	
7808	0	32720	
7809	0	32868	
7810	0	32876	
7811	0	32764	
7812	0	32712	
7813	0	32600	
7814	0	32640	
7815	0	32704	
7816	0	32796	
7817	0	32880	
7818	0	32964	
7819	0	33000	
7820	0	33000	
7821	0	32928	
7822	0	32792	
7823	0	32792	
7824	0	32816	
7825	0	32800	
7826	0	32840	
7827	0	32956	
7828	0	32912	
7829	0	32868	
7830	0	33044	
7831	0	33248	
7832	0	33242	
7833	0	33144	
7834	0	33152	
7835	0	33122	
7836	0	33104	
7837	0	33140	
7838	0	33208	
7839	0	33284	
7840	0	33364	
7841	0	33492	
7842	0	33460	
7843	0	33448	
7844	0	33720	
7845	0	33980	
7846	0	34092	
7847	0	34168	
7848	0	34290	
7849	0	34488	
7850	0	34728	
7851	0	34904	
7852	0	34960	
7853	0	35012	
7854	0	34992	
7855	0	34900	
7856	0	34916	
7857	0	34916	
7858	0	34928	
7859	0	34952	
7860	0	34920	
7861	0	34928	
7862	0	34980	
7863	0	35068	
7864	0	35128	
7865	0	35156	
7866	0	35264	
7867	0	35304	
7868	0	35432	
7869	0	35608	
7870	0	35652	
7871	0	35716	
7872	0	35768	
7873	0	35748	
7874	0	35732	
7875	0	35644	
7876	0	35616	
7877	0	35704	
7878	0	35772	
7879	0	35808	
7880	0	35848	
7881	0	35936	
7882	0	36064	
7883	0	36216	
7884	0	36198	
7885	0	36144	
7886	0	36060	
7887	0	35836	
7888	0	35592	
7889	0	35312	
7890	0	35088	
7891	0	34800	
7892	0	34648	
7893	0	34464	
7894	0	34320	
7895	0	34192	
7896	0	34062	
7897	0	33940	
7898	0	33868	
7899	0	33752	
7900	0	33668	
7901	0	33638	
7902	0	33588	
7903	0	33548	
7904	0	33536	
7905	0	33492	
7906	0	33504	
7907	0	33496	
7908	0	33496	
7909	0	33472	
7910	0	33368	
7911	0	33292	
7912	0	33282	
7913	0	33316	
7914	0	33232	
7915	0	33188	
7916	0	33204	
7917	0	33112	
7918	0	33048	
7919	0	32896	
7920	0	32692	
7921	0	32420	
7922	0	32364	
7923	0	32368	
7924	0	32320	
7925	0	32120	
7926	0	31936	
7927	0	31944	
7928	0	32042	
7929	0	32076	
7930	0	32126	
7931	0	32156	
7932	0	32122	
7933	0	32149	
7934	0	32148	
7935	0	32060	
7936	0	32060	
7937	0	31940	
7938	0	31744	
7939	0	31672	
7940	0	31704	
7941	0	31934	
7942	0	32132	
7943	0	32084	
7944	0	31792	
7945	0	31584	
7946	0	31504	
7947	0	31534	
7948	0	31550	
7949	0	31504	
7950	0	31468	
7951	0	31432	
7952	0	31556	
7953	0	31684	
7954	0	31868	
7955	0	32112	
7956	0	32216	
7957	0	32168	
7958	0	32032	
7959	0	32044	
7960	0	32100	
7961	0	32200	
7962	0	32236	
7963	0	32172	
7964	0	32228	
7965	0	32268	
7966	0	32224	
7967	0	32180	
7968	0	32154	
7969	0	32134	
7970	0	32142	
7971	0	32192	
7972	0	32218	
7973	0	32240	
7974	0	32224	
7975	0	32128	
7976	0	32112	
7977	0	32186	
7978	0	32316	
7979	0	32368	
7980	0	32504	
7981	0	32492	
7982	0	32468	
7983	0	32508	
7984	0	32488	
7985	0	32532	
7986	0	32452	
7987	0	32284	
7988	0	32210	
7989	0	32156	
7990	0	32080	
7991	0	31968	
7992	0	31840	
7993	0	31688	
7994	0	31512	
7995	0	31452	
7996	0	31444	
7997	0	31576	
7998	0	31692	
7999	0	31900	
8000	0	32316	
8001	0	32876	
8002	0	33504	
8003	0	34282	
8004	0	35280	
8005	0	36284	
8006	0	37308	
8007	0	38570	
8008	0	40036	
8009	0	41664	
8010	0	43292	
8011	0	44788	
8012	0	46136	
8013	0	47484	
8014	0	48984	
8015	0	50520	
8016	0	51992	
8017	0	53392	
8018	0	54596	
8019	0	55776	
