# OpenSignals Text File Format. Version 1
# {"00:07:80:4B:15:F7": {"position": 0, "device": "biosignalsplux", "device name": "00:07:80:4B:15:F7", "device connection": "BTH00:07:80:4B:15:F7", "sampling rate": 1000, "resolution": [16], "firmware version": 775, "comments": "", "keywords": "", "mode": 0, "sync interval": 2, "date": "2023-4-11", "time": "15:41:48.870", "channels": [1], "sensor": ["ECG"], "label": ["CH1"], "column": ["nSeq", "DI", "CH1"], "special": [{"SpO2": [80, 40, 5, 4, 3, 3]}, {"SpO2": [80, 40, 5, 4, 3, 3]}, {"SpO2": [80, 40, 5, 4, 3, 3]}, {"SpO2": [80, 40, 5, 4, 3, 3]}, {"SpO2": [80, 40, 5, 4, 3, 3]}, {"SpO2": [80, 40, 5, 4, 3, 3]}, {"SpO2": [80, 40, 5, 4, 3, 3]}, {"SpO2": [80, 40, 5, 4, 3, 3]}], "digital IO": [0, 1], "sleeve color": ["green"], "convertedValues": 0}}
# EndOfHeader
0	0	31940	
1	0	31924	
2	0	31936	
3	0	31930	
4	0	31884	
5	0	31860	
6	0	31896	
7	0	31960	
8	0	32012	
9	0	32086	
10	0	32110	
11	0	32088	
12	0	32040	
13	0	32008	
14	0	31988	
15	0	32056	
16	0	32040	
17	0	32084	
18	0	32150	
19	0	32192	
20	0	32212	
21	0	32276	
22	0	32322	
23	0	32336	
24	0	32304	
25	0	32248	
26	0	32108	
27	0	31888	
28	0	31708	
29	0	31624	
30	0	31772	
31	0	32088	
32	0	32464	
33	0	32856	
34	0	33320	
35	0	33760	
36	0	34104	
37	0	34404	
38	0	34524	
39	0	34600	
40	0	34848	
41	0	35344	
42	0	36080	
43	0	36952	
44	0	38120	
45	0	39472	
46	0	41052	
47	0	42724	
48	0	44500	
49	0	46344	
50	0	48252	
51	0	50196	
52	0	52048	
53	0	53760	
54	0	55276	
55	0	56628	
56	0	57816	
57	0	59176	
58	0	60616	
59	0	61784	
60	0	62470	
61	0	62360	
62	0	61128	
63	0	58682	
64	0	55224	
65	0	51072	
66	0	46568	
67	0	42192	
68	0	38428	
69	0	35412	
70	0	33192	
71	0	31588	
72	0	30496	
73	0	29704	
74	0	29136	
75	0	28840	
76	0	28780	
77	0	28772	
78	0	28826	
79	0	28924	
80	0	29076	
81	0	29248	
82	0	29454	
83	0	29664	
84	0	29824	
85	0	30048	
86	0	30224	
87	0	30368	
88	0	30488	
89	0	30624	
90	0	30700	
91	0	30720	
92	0	30698	
93	0	30676	
94	0	30668	
95	0	30596	
96	0	30532	
97	0	30512	
98	0	30504	
99	0	30508	
100	0	30540	
101	0	30548	
102	0	30552	
103	0	30560	
104	0	30564	
105	0	30584	
106	0	30576	
107	0	30544	
108	0	30484	
109	0	30432	
110	0	30404	
111	0	30372	
112	0	30400	
113	0	30432	
114	0	30480	
115	0	30508	
116	0	30556	
117	0	30608	
118	0	30624	
119	0	30632	
120	0	30596	
121	0	30584	
122	0	30580	
123	0	30580	
124	0	30572	
125	0	30584	
126	0	30616	
127	0	30636	
128	0	30692	
129	0	30744	
130	0	30792	
131	0	30824	
132	0	30868	
133	0	30862	
134	0	30876	
135	0	30912	
136	0	30944	
137	0	31000	
138	0	31040	
139	0	31088	
140	0	31096	
141	0	31064	
142	0	31028	
143	0	31004	
144	0	31040	
145	0	31052	
146	0	31068	
147	0	31084	
148	0	31132	
149	0	31184	
150	0	31244	
151	0	31240	
152	0	31288	
153	0	31348	
154	0	31388	
155	0	31420	
156	0	31384	
157	0	31372	
158	0	31392	
159	0	31468	
160	0	31504	
161	0	31524	
162	0	31568	
163	0	31616	
164	0	31652	
165	0	31744	
166	0	31804	
167	0	31808	
168	0	31782	
169	0	31792	
170	0	31860	
171	0	31960	
172	0	32056	
173	0	32096	
174	0	32108	
175	0	32136	
176	0	32152	
177	0	32184	
178	0	32284	
179	0	32380	
180	0	32384	
181	0	32380	
182	0	32356	
183	0	32332	
184	0	32288	
185	0	32296	
186	0	32272	
187	0	32280	
188	0	32320	
189	0	32348	
190	0	32384	
191	0	32442	
192	0	32476	
193	0	32498	
194	0	32508	
195	0	32492	
196	0	32544	
197	0	32592	
198	0	32576	
199	0	32536	
200	0	32542	
201	0	32584	
202	0	32604	
203	0	32636	
204	0	32680	
205	0	32740	
206	0	32784	
207	0	32792	
208	0	32816	
209	0	32854	
210	0	32860	
211	0	32872	
212	0	32892	
213	0	32920	
214	0	32948	
215	0	32988	
216	0	33000	
217	0	33032	
218	0	33080	
219	0	33108	
220	0	33108	
221	0	33112	
222	0	33104	
223	0	33128	
224	0	33148	
225	0	33164	
226	0	33158	
227	0	33124	
228	0	33140	
229	0	33188	
230	0	33220	
231	0	33249	
232	0	33248	
233	0	33260	
234	0	33272	
235	0	33264	
236	0	33252	
237	0	33300	
238	0	33356	
239	0	33416	
240	0	33452	
241	0	33432	
242	0	33426	
243	0	33464	
244	0	33508	
245	0	33544	
246	0	33548	
247	0	33528	
248	0	33548	
249	0	33588	
250	0	33632	
251	0	33708	
252	0	33772	
253	0	33841	
254	0	33864	
255	0	33916	
256	0	33988	
257	0	34072	
258	0	34184	
259	0	34232	
260	0	34222	
261	0	34232	
262	0	34240	
263	0	34260	
264	0	34272	
265	0	34260	
266	0	34276	
267	0	34356	
268	0	34444	
269	0	34524	
270	0	34584	
271	0	34648	
272	0	34672	
273	0	34676	
274	0	34672	
275	0	34700	
276	0	34724	
277	0	34720	
278	0	34698	
279	0	34680	
280	0	34676	
281	0	34660	
282	0	34664	
283	0	34644	
284	0	34640	
285	0	34652	
286	0	34688	
287	0	34684	
288	0	34652	
289	0	34648	
290	0	34708	
291	0	34784	
292	0	34864	
293	0	34876	
294	0	34880	
295	0	34872	
296	0	34872	
297	0	34900	
298	0	34900	
299	0	34920	
300	0	34936	
301	0	34960	
302	0	34960	
303	0	34952	
304	0	34980	
305	0	34984	
306	0	34956	
307	0	34968	
308	0	35040	
309	0	35072	
310	0	35040	
311	0	35056	
312	0	35032	
313	0	35016	
314	0	35060	
315	0	35112	
316	0	35156	
317	0	35184	
318	0	35180	
319	0	35148	
320	0	35100	
321	0	35000	
322	0	34932	
323	0	34848	
324	0	34768	
325	0	34742	
326	0	34708	
327	0	34610	
328	0	34496	
329	0	34388	
330	0	34284	
331	0	34208	
332	0	34172	
333	0	34116	
334	0	34024	
335	0	33892	
336	0	33728	
337	0	33568	
338	0	33448	
339	0	33312	
340	0	33164	
341	0	33000	
342	0	32844	
343	0	32680	
344	0	32528	
345	0	32424	
346	0	32292	
347	0	32152	
348	0	32068	
349	0	32052	
350	0	32016	
351	0	31896	
352	0	31856	
353	0	31780	
354	0	31672	
355	0	31552	
356	0	31432	
357	0	31336	
358	0	31224	
359	0	31144	
360	0	31060	
361	0	31024	
362	0	30996	
363	0	30884	
364	0	30772	
365	0	30722	
366	0	30732	
367	0	30716	
368	0	30700	
369	0	30636	
370	0	30568	
371	0	30540	
372	0	30512	
373	0	30464	
374	0	30398	
375	0	30330	
376	0	30264	
377	0	30200	
378	0	30152	
379	0	30124	
380	0	30064	
381	0	30008	
382	0	29936	
383	0	29892	
384	0	29940	
385	0	30032	
386	0	30088	
387	0	30096	
388	0	30088	
389	0	30064	
390	0	30062	
391	0	30068	
392	0	30108	
393	0	30148	
394	0	30140	
395	0	30110	
396	0	30080	
397	0	30016	
398	0	29996	
399	0	29960	
400	0	29941	
401	0	29926	
402	0	29920	
403	0	29924	
404	0	29944	
405	0	29976	
406	0	29996	
407	0	30012	
408	0	30034	
409	0	30072	
410	0	30088	
411	0	30100	
412	0	30096	
413	0	30104	
414	0	30092	
415	0	30088	
416	0	30128	
417	0	30168	
418	0	30214	
419	0	30256	
420	0	30320	
421	0	30388	
422	0	30436	
423	0	30508	
424	0	30524	
425	0	30504	
426	0	30516	
427	0	30520	
428	0	30520	
429	0	30550	
430	0	30584	
431	0	30624	
432	0	30632	
433	0	30664	
434	0	30692	
435	0	30676	
436	0	30632	
437	0	30672	
438	0	30704	
439	0	30696	
440	0	30692	
441	0	30728	
442	0	30764	
443	0	30780	
444	0	30804	
445	0	30864	
446	0	30892	
447	0	30852	
448	0	30762	
449	0	30680	
450	0	30706	
451	0	30746	
452	0	30776	
453	0	30752	
454	0	30780	
455	0	30848	
456	0	30924	
457	0	31004	
458	0	31028	
459	0	31044	
460	0	31094	
461	0	31136	
462	0	31128	
463	0	31192	
464	0	31184	
465	0	31128	
466	0	31132	
467	0	31128	
468	0	31152	
469	0	31180	
470	0	31200	
471	0	31176	
472	0	31164	
473	0	31204	
474	0	31186	
475	0	31184	
476	0	31184	
477	0	31176	
478	0	31172	
479	0	31218	
480	0	31240	
481	0	31220	
482	0	31272	
483	0	31344	
484	0	31348	
485	0	31348	
486	0	31332	
487	0	31328	
488	0	31312	
489	0	31298	
490	0	31316	
491	0	31384	
492	0	31456	
493	0	31540	
494	0	31584	
495	0	31616	
496	0	31628	
497	0	31660	
498	0	31680	
499	0	31664	
500	0	31676	
501	0	31664	
502	0	31596	
503	0	31560	
504	0	31524	
505	0	31488	
506	0	31476	
507	0	31456	
508	0	31396	
509	0	31360	
510	0	31400	
511	0	31468	
512	0	31512	
513	0	31476	
514	0	31452	
515	0	31440	
516	0	31432	
517	0	31452	
518	0	31440	
519	0	31440	
520	0	31464	
521	0	31476	
522	0	31488	
523	0	31476	
524	0	31476	
525	0	31444	
526	0	31396	
527	0	31392	
528	0	31416	
529	0	31388	
530	0	31376	
531	0	31408	
532	0	31456	
533	0	31508	
534	0	31540	
535	0	31576	
536	0	31616	
537	0	31616	
538	0	31616	
539	0	31612	
540	0	31616	
541	0	31600	
542	0	31568	
543	0	31588	
544	0	31620	
545	0	31664	
546	0	31716	
547	0	31756	
548	0	31776	
549	0	31764	
550	0	31768	
551	0	31800	
552	0	31832	
553	0	31792	
554	0	31732	
555	0	31744	
556	0	31792	
557	0	31820	
558	0	31868	
559	0	31868	
560	0	31868	
561	0	31856	
562	0	31784	
563	0	31720	
564	0	31688	
565	0	31712	
566	0	31736	
567	0	31800	
568	0	31848	
569	0	31872	
570	0	31872	
571	0	31904	
572	0	31904	
573	0	31924	
574	0	31964	
575	0	32024	
576	0	32096	
577	0	32144	
578	0	32186	
579	0	32192	
580	0	32232	
581	0	32260	
582	0	32224	
583	0	32196	
584	0	32176	
585	0	32160	
586	0	32200	
587	0	32188	
588	0	32120	
589	0	32012	
590	0	31960	
591	0	31996	
592	0	32016	
593	0	32060	
594	0	32132	
595	0	32260	
596	0	32376	
597	0	32528	
598	0	32714	
599	0	32896	
600	0	33090	
601	0	33236	
602	0	33344	
603	0	33452	
604	0	33580	
605	0	33712	
606	0	33800	
607	0	33896	
608	0	33888	
609	0	33896	
610	0	33968	
611	0	34028	
612	0	34037	
613	0	34080	
614	0	34064	
615	0	34000	
616	0	33920	
617	0	33852	
618	0	33720	
619	0	33612	
620	0	33496	
621	0	33352	
622	0	33184	
623	0	33016	
624	0	32928	
625	0	32888	
626	0	32832	
627	0	32740	
628	0	32648	
629	0	32616	
630	0	32588	
631	0	32552	
632	0	32512	
633	0	32512	
634	0	32508	
635	0	32516	
636	0	32512	
637	0	32492	
638	0	32482	
639	0	32504	
640	0	32544	
641	0	32528	
642	0	32508	
643	0	32472	
644	0	32416	
645	0	32368	
646	0	32292	
647	0	32272	
648	0	32296	
649	0	32268	
650	0	32216	
651	0	32184	
652	0	32128	
653	0	32064	
654	0	32060	
655	0	32068	
656	0	32056	
657	0	32008	
658	0	31988	
659	0	31956	
660	0	31920	
661	0	31912	
662	0	31932	
663	0	31956	
664	0	31962	
665	0	31896	
666	0	31840	
667	0	31792	
668	0	31792	
669	0	31764	
670	0	31748	
671	0	31728	
672	0	31732	
673	0	31740	
674	0	31712	
675	0	31696	
676	0	31744	
677	0	31800	
678	0	31828	
679	0	31866	
680	0	31896	
681	0	31936	
682	0	31938	
683	0	31932	
684	0	31976	
685	0	32016	
686	0	31988	
687	0	31924	
688	0	31908	
689	0	31936	
690	0	31952	
691	0	31930	
692	0	31904	
693	0	31804	
694	0	31832	
695	0	31944	
696	0	32024	
697	0	32018	
698	0	32052	
699	0	32056	
700	0	32064	
701	0	32064	
702	0	32068	
703	0	32074	
704	0	32084	
705	0	32112	
706	0	32144	
707	0	32124	
708	0	32096	
709	0	32096	
710	0	32116	
711	0	32132	
712	0	32132	
713	0	32136	
714	0	32116	
715	0	32156	
716	0	32232	
717	0	32280	
718	0	32226	
719	0	32180	
720	0	32216	
721	0	32260	
722	0	32272	
723	0	32240	
724	0	32204	
725	0	32220	
726	0	32264	
727	0	32340	
728	0	32436	
729	0	32512	
730	0	32612	
731	0	32730	
732	0	32796	
733	0	32812	
734	0	32796	
735	0	32736	
736	0	32644	
737	0	32496	
738	0	32344	
739	0	32158	
740	0	31980	
741	0	31840	
742	0	31800	
743	0	31964	
744	0	32248	
745	0	32552	
746	0	32940	
747	0	33296	
748	0	33636	
749	0	33940	
750	0	34108	
751	0	34282	
752	0	34532	
753	0	35016	
754	0	35740	
755	0	36608	
756	0	37684	
757	0	38932	
758	0	40336	
759	0	41848	
760	0	43368	
761	0	44960	
762	0	46648	
763	0	48376	
764	0	50048	
765	0	51584	
766	0	52976	
767	0	54240	
768	0	55356	
769	0	56552	
770	0	57840	
771	0	58968	
772	0	59720	
773	0	59716	
774	0	58512	
775	0	56072	
776	0	52764	
777	0	48796	
778	0	44576	
779	0	40528	
780	0	37082	
781	0	34444	
782	0	32592	
783	0	31372	
784	0	30616	
785	0	30160	
786	0	29852	
787	0	29746	
788	0	29732	
789	0	29732	
790	0	29744	
791	0	29828	
792	0	29928	
793	0	30000	
794	0	30084	
795	0	30168	
796	0	30268	
797	0	30408	
798	0	30592	
799	0	30804	
800	0	30992	
801	0	31116	
802	0	31168	
803	0	31244	
804	0	31284	
805	0	31280	
806	0	31276	
807	0	31192	
808	0	31100	
809	0	31032	
810	0	30960	
811	0	30920	
812	0	30896	
813	0	30880	
814	0	30868	
815	0	30880	
816	0	30848	
817	0	30820	
818	0	30804	
819	0	30788	
820	0	30768	
821	0	30772	
822	0	30788	
823	0	30784	
824	0	30760	
825	0	30772	
826	0	30796	
827	0	30820	
828	0	30824	
829	0	30828	
830	0	30828	
831	0	30840	
832	0	30816	
833	0	30840	
834	0	30896	
835	0	30952	
836	0	30976	
837	0	31000	
838	0	30996	
839	0	30976	
840	0	31064	
841	0	31192	
842	0	31320	
843	0	31356	
844	0	31332	
845	0	31304	
846	0	31252	
847	0	31236	
848	0	31288	
849	0	31328	
850	0	31336	
851	0	31324	
852	0	31352	
853	0	31388	
854	0	31424	
855	0	31432	
856	0	31464	
857	0	31508	
858	0	31544	
859	0	31568	
860	0	31604	
861	0	31608	
862	0	31656	
863	0	31720	
864	0	31764	
865	0	31752	
866	0	31728	
867	0	31728	
868	0	31768	
869	0	31832	
870	0	31896	
871	0	31912	
872	0	31922	
873	0	31982	
874	0	32068	
875	0	32138	
876	0	32156	
877	0	32120	
878	0	32100	
879	0	32132	
880	0	32172	
881	0	32196	
882	0	32224	
883	0	32276	
884	0	32348	
885	0	32380	
886	0	32396	
887	0	32420	
888	0	32444	
889	0	32456	
890	0	32442	
891	0	32472	
892	0	32484	
893	0	32480	
894	0	32516	
895	0	32564	
896	0	32604	
897	0	32616	
898	0	32552	
899	0	32504	
900	0	32590	
901	0	32628	
902	0	32612	
903	0	32592	
904	0	32646	
905	0	32736	
906	0	32808	
907	0	32802	
908	0	32772	
909	0	32748	
910	0	32784	
911	0	32820	
912	0	32864	
913	0	32896	
914	0	32928	
915	0	32944	
916	0	32968	
917	0	33008	
918	0	33064	
919	0	33128	
920	0	33180	
921	0	33192	
922	0	33198	
923	0	33196	
924	0	33216	
925	0	33244	
926	0	33248	
927	0	33264	
928	0	33256	
929	0	33256	
930	0	33264	
931	0	33232	
932	0	33192	
933	0	33152	
934	0	33154	
935	0	33172	
936	0	33208	
937	0	33250	
938	0	33316	
939	0	33356	
940	0	33404	
941	0	33440	
942	0	33452	
943	0	33456	
944	0	33440	
945	0	33476	
946	0	33568	
947	0	33636	
948	0	33680	
949	0	33730	
950	0	33696	
951	0	33660	
952	0	33616	
953	0	33588	
954	0	33568	
955	0	33544	
956	0	33546	
957	0	33520	
958	0	33480	
959	0	33436	
960	0	33504	
961	0	33600	
962	0	33692	
963	0	33744	
964	0	33812	
965	0	33868	
966	0	33888	
967	0	33852	
968	0	33844	
969	0	33884	
970	0	33952	
971	0	34008	
972	0	34040	
973	0	34032	
974	0	34054	
975	0	34040	
976	0	34012	
977	0	33960	
978	0	33962	
979	0	34052	
980	0	34128	
981	0	34128	
982	0	34136	
983	0	34100	
984	0	34070	
985	0	34100	
986	0	34144	
987	0	34196	
988	0	34208	
989	0	34220	
990	0	34264	
991	0	34272	
992	0	34272	
993	0	34266	
994	0	34316	
995	0	34364	
996	0	34416	
997	0	34432	
998	0	34458	
999	0	34484	
1000	0	34472	
1001	0	34484	
1002	0	34508	
1003	0	34520	
1004	0	34512	
1005	0	34528	
1006	0	34634	
1007	0	34712	
1008	0	34728	
1009	0	34736	
1010	0	34724	
1011	0	34720	
1012	0	34752	
1013	0	34776	
1014	0	34728	
1015	0	34760	
1016	0	34788	
1017	0	34868	
1018	0	34888	
1019	0	34920	
1020	0	34964	
1021	0	34984	
1022	0	35010	
1023	0	35052	
1024	0	35088	
1025	0	35072	
1026	0	35048	
1027	0	35048	
1028	0	35020	
1029	0	34976	
1030	0	34948	
1031	0	34944	
1032	0	34954	
1033	0	34900	
1034	0	34872	
1035	0	34816	
1036	0	34764	
1037	0	34724	
1038	0	34680	
1039	0	34628	
1040	0	34580	
1041	0	34488	
1042	0	34346	
1043	0	34232	
1044	0	34176	
1045	0	34120	
1046	0	34096	
1047	0	33996	
1048	0	33860	
1049	0	33728	
1050	0	33628	
1051	0	33508	
1052	0	33408	
1053	0	33332	
1054	0	33236	
1055	0	33136	
1056	0	33016	
1057	0	32874	
1058	0	32744	
1059	0	32572	
1060	0	32440	
1061	0	32320	
1062	0	32184	
1063	0	32064	
1064	0	32000	
1065	0	31924	
1066	0	31832	
1067	0	31778	
1068	0	31684	
1069	0	31604	
1070	0	31552	
1071	0	31508	
1072	0	31376	
1073	0	31300	
1074	0	31252	
1075	0	31192	
1076	0	31108	
1077	0	31008	
1078	0	30956	
1079	0	30844	
1080	0	30778	
1081	0	30720	
1082	0	30688	
1083	0	30612	
1084	0	30584	
1085	0	30608	
1086	0	30624	
1087	0	30624	
1088	0	30628	
1089	0	30592	
1090	0	30568	
1091	0	30544	
1092	0	30536	
1093	0	30592	
1094	0	30628	
1095	0	30648	
1096	0	30632	
1097	0	30594	
1098	0	30528	
1099	0	30478	
1100	0	30428	
1101	0	30408	
1102	0	30408	
1103	0	30396	
1104	0	30388	
1105	0	30416	
1106	0	30420	
1107	0	30432	
1108	0	30400	
1109	0	30380	
1110	0	30392	
1111	0	30400	
1112	0	30424	
1113	0	30440	
1114	0	30440	
1115	0	30432	
1116	0	30464	
1117	0	30496	
1118	0	30528	
1119	0	30532	
1120	0	30522	
1121	0	30504	
1122	0	30496	
1123	0	30512	
1124	0	30552	
1125	0	30588	
1126	0	30632	
1127	0	30680	
1128	0	30724	
1129	0	30712	
1130	0	30668	
1131	0	30654	
1132	0	30696	
1133	0	30704	
1134	0	30720	
1135	0	30688	
1136	0	30652	
1137	0	30636	
1138	0	30700	
1139	0	30762	
1140	0	30786	
1141	0	30836	
1142	0	30844	
1143	0	30820	
1144	0	30836	
1145	0	30826	
1146	0	30828	
1147	0	30816	
1148	0	30832	
1149	0	30860	
1150	0	30889	
1151	0	30900	
1152	0	30892	
1153	0	30864	
1154	0	30896	
1155	0	30944	
1156	0	30980	
1157	0	30976	
1158	0	31016	
1159	0	31048	
1160	0	31084	
1161	0	31080	
1162	0	31056	
1163	0	31016	
1164	0	31036	
1165	0	31068	
1166	0	31040	
1167	0	31036	
1168	0	31028	
1169	0	31012	
1170	0	31020	
1171	0	31006	
1172	0	31036	
1173	0	31076	
1174	0	31096	
1175	0	31116	
1176	0	31100	
1177	0	31120	
1178	0	31176	
1179	0	31216	
1180	0	31232	
1181	0	31184	
1182	0	31124	
1183	0	31096	
1184	0	31080	
1185	0	31118	
1186	0	31140	
1187	0	31124	
1188	0	31136	
1189	0	31148	
1190	0	31180	
1191	0	31212	
1192	0	31224	
1193	0	31233	
1194	0	31260	
1195	0	31280	
1196	0	31328	
1197	0	31366	
1198	0	31380	
1199	0	31416	
1200	0	31432	
1201	0	31412	
1202	0	31408	
1203	0	31400	
1204	0	31352	
1205	0	31340	
1206	0	31400	
1207	0	31432	
1208	0	31436	
1209	0	31432	
1210	0	31440	
1211	0	31416	
1212	0	31416	
1213	0	31384	
1214	0	31360	
1215	0	31392	
1216	0	31440	
1217	0	31456	
1218	0	31450	
1219	0	31472	
1220	0	31532	
1221	0	31580	
1222	0	31572	
1223	0	31504	
1224	0	31452	
1225	0	31432	
1226	0	31432	
1227	0	31472	
1228	0	31508	
1229	0	31544	
1230	0	31544	
1231	0	31532	
1232	0	31568	
1233	0	31572	
1234	0	31520	
1235	0	31488	
1236	0	31440	
1237	0	31412	
1238	0	31436	
1239	0	31488	
1240	0	31500	
1241	0	31404	
1242	0	31336	
1243	0	31314	
1244	0	31312	
1245	0	31328	
1246	0	31292	
1247	0	31264	
1248	0	31296	
1249	0	31352	
1250	0	31404	
1251	0	31436	
1252	0	31432	
1253	0	31416	
1254	0	31440	
1255	0	31472	
1256	0	31500	
1257	0	31500	
1258	0	31500	
1259	0	31504	
1260	0	31500	
1261	0	31496	
1262	0	31500	
1263	0	31524	
1264	0	31544	
1265	0	31552	
1266	0	31520	
1267	0	31568	
1268	0	31584	
1269	0	31624	
1270	0	31660	
1271	0	31688	
1272	0	31684	
1273	0	31692	
1274	0	31724	
1275	0	31740	
1276	0	31736	
1277	0	31740	
1278	0	31752	
1279	0	31772	
1280	0	31824	
1281	0	31864	
1282	0	31912	
1283	0	31892	
1284	0	31872	
1285	0	31924	
1286	0	32026	
1287	0	32100	
1288	0	32156	
1289	0	32204	
1290	0	32208	
1291	0	32180	
1292	0	32212	
1293	0	32236	
1294	0	32220	
1295	0	32216	
1296	0	32160	
1297	0	32092	
1298	0	32024	
1299	0	31984	
1300	0	31996	
1301	0	32024	
1302	0	32090	
1303	0	32168	
1304	0	32200	
1305	0	32224	
1306	0	32252	
1307	0	32276	
1308	0	32256	
1309	0	32288	
1310	0	32392	
1311	0	32484	
1312	0	32608	
1313	0	32748	
1314	0	32884	
1315	0	33036	
1316	0	33184	
1317	0	33352	
1318	0	33556	
1319	0	33740	
1320	0	33880	
1321	0	33976	
1322	0	34020	
1323	0	34080	
1324	0	34136	
1325	0	34248	
1326	0	34352	
1327	0	34384	
1328	0	34368	
1329	0	34296	
1330	0	34208	
1331	0	34084	
1332	0	34008	
1333	0	33914	
1334	0	33796	
1335	0	33664	
1336	0	33492	
1337	0	33352	
1338	0	33276	
1339	0	33196	
1340	0	33132	
1341	0	33064	
1342	0	33004	
1343	0	32944	
1344	0	32920	
1345	0	32888	
1346	0	32848	
1347	0	32832	
1348	0	32812	
1349	0	32788	
1350	0	32748	
1351	0	32704	
1352	0	32692	
1353	0	32654	
1354	0	32636	
1355	0	32636	
1356	0	32600	
1357	0	32520	
1358	0	32500	
1359	0	32484	
1360	0	32460	
1361	0	32434	
1362	0	32372	
1363	0	32312	
1364	0	32296	
1365	0	32260	
1366	0	32152	
1367	0	32076	
1368	0	31972	
1369	0	31868	
1370	0	31832	
1371	0	31808	
1372	0	31788	
1373	0	31752	
1374	0	31752	
1375	0	31780	
1376	0	31792	
1377	0	31808	
1378	0	31818	
1379	0	31808	
1380	0	31824	
1381	0	31824	
1382	0	31840	
1383	0	31832	
1384	0	31836	
1385	0	31816	
1386	0	31828	
1387	0	31854	
1388	0	31824	
1389	0	31796	
1390	0	31832	
1391	0	31848	
1392	0	31864	
1393	0	31888	
1394	0	31872	
1395	0	31900	
1396	0	31952	
1397	0	31988	
1398	0	31992	
1399	0	31976	
1400	0	32004	
1401	0	32004	
1402	0	31992	
1403	0	32004	
1404	0	31988	
1405	0	32008	
1406	0	32004	
1407	0	32008	
1408	0	32010	
1409	0	32012	
1410	0	32024	
1411	0	32048	
1412	0	32034	
1413	0	32034	
1414	0	32024	
1415	0	32002	
1416	0	32000	
1417	0	31996	
1418	0	32024	
1419	0	32064	
1420	0	32064	
1421	0	32040	
1422	0	32064	
1423	0	32108	
1424	0	32128	
1425	0	32148	
1426	0	32204	
1427	0	32226	
1428	0	32184	
1429	0	32128	
1430	0	32128	
1431	0	32172	
1432	0	32216	
1433	0	32268	
1434	0	32296	
1435	0	32316	
1436	0	32312	
1437	0	32288	
1438	0	32240	
1439	0	32248	
1440	0	32216	
1441	0	32184	
1442	0	32184	
1443	0	32192	
1444	0	32256	
1445	0	32352	
1446	0	32476	
1447	0	32568	
1448	0	32604	
1449	0	32576	
1450	0	32568	
1451	0	32576	
1452	0	32536	
1453	0	32418	
1454	0	32282	
1455	0	32108	
1456	0	31952	
1457	0	31856	
1458	0	31812	
1459	0	31876	
1460	0	32106	
1461	0	32360	
1462	0	32668	
1463	0	33048	
1464	0	33382	
1465	0	33692	
1466	0	33912	
1467	0	34092	
1468	0	34324	
1469	0	34672	
1470	0	35228	
1471	0	35952	
1472	0	36828	
1473	0	37896	
1474	0	39120	
1475	0	40504	
1476	0	41928	
1477	0	43436	
1478	0	44960	
1479	0	46584	
1480	0	48196	
1481	0	49702	
1482	0	51080	
1483	0	52296	
1484	0	53380	
1485	0	54412	
1486	0	55616	
1487	0	56848	
1488	0	57824	
1489	0	58188	
1490	0	57520	
1491	0	55648	
1492	0	52752	
1493	0	49192	
1494	0	45252	
1495	0	41304	
1496	0	37728	
1497	0	34828	
1498	0	32740	
1499	0	31404	
1500	0	30648	
1501	0	30220	
1502	0	29912	
1503	0	29740	
1504	0	29648	
1505	0	29620	
1506	0	29600	
1507	0	29620	
1508	0	29724	
1509	0	29848	
1510	0	29940	
1511	0	30020	
1512	0	30076	
1513	0	30176	
1514	0	30346	
1515	0	30540	
1516	0	30728	
1517	0	30884	
1518	0	30996	
1519	0	31088	
1520	0	31144	
1521	0	31164	
1522	0	31160	
1523	0	31176	
1524	0	31124	
1525	0	31108	
1526	0	31068	
1527	0	31032	
1528	0	31008	
1529	0	30980	
1530	0	30920	
1531	0	30848	
1532	0	30834	
1533	0	30848	
1534	0	30844	
1535	0	30896	
1536	0	30924	
1537	0	30962	
1538	0	31000	
1539	0	31008	
1540	0	31036	
1541	0	31092	
1542	0	31136	
1543	0	31168	
1544	0	31086	
1545	0	31094	
1546	0	31136	
1547	0	31180	
1548	0	31148	
1549	0	31120	
1550	0	31120	
1551	0	31120	
1552	0	31094	
1553	0	31070	
1554	0	31016	
1555	0	31032	
1556	0	31080	
1557	0	31138	
1558	0	31184	
1559	0	31200	
1560	0	31200	
1561	0	31204	
1562	0	31236	
1563	0	31272	
1564	0	31312	
1565	0	31396	
1566	0	31464	
1567	0	31552	
1568	0	31600	
1569	0	31616	
1570	0	31604	
1571	0	31620	
1572	0	31656	
1573	0	31724	
1574	0	31740	
1575	0	31788	
1576	0	31776	
1577	0	31776	
1578	0	31756	
1579	0	31792	
1580	0	31864	
1581	0	31928	
1582	0	31972	
1583	0	32028	
1584	0	32032	
1585	0	31992	
1586	0	31976	
1587	0	31954	
1588	0	31936	
1589	0	31940	
1590	0	31952	
1591	0	31964	
1592	0	31992	
1593	0	32000	
1594	0	32008	
1595	0	32008	
1596	0	32044	
1597	0	32116	
1598	0	32212	
1599	0	32304	
1600	0	32336	
1601	0	32348	
1602	0	32346	
1603	0	32380	
1604	0	32414	
1605	0	32432	
1606	0	32472	
1607	0	32584	
1608	0	32592	
1609	0	32624	
1610	0	32702	
1611	0	32736	
1612	0	32736	
1613	0	32724	
1614	0	32720	
1615	0	32744	
1616	0	32796	
1617	0	32868	
1618	0	32948	
1619	0	33032	
1620	0	33104	
1621	0	33160	
1622	0	33164	
1623	0	33132	
1624	0	33120	
1625	0	33124	
1626	0	33140	
1627	0	33116	
1628	0	33112	
1629	0	33118	
1630	0	33100	
1631	0	33104	
1632	0	33088	
1633	0	33128	
1634	0	33164	
1635	0	33204	
1636	0	33212	
1637	0	33250	
1638	0	33316	
1639	0	33348	
1640	0	33360	
1641	0	33396	
1642	0	33404	
1643	0	33452	
1644	0	33472	
1645	0	33488	
1646	0	33496	
1647	0	33508	
1648	0	33576	
1649	0	33676	
1650	0	33792	
1651	0	33836	
1652	0	33888	
1653	0	33936	
1654	0	33956	
1655	0	33936	
1656	0	33908	
1657	0	33864	
1658	0	33800	
1659	0	33776	
1660	0	33776	
1661	0	33732	
1662	0	33728	
1663	0	33692	
1664	0	33660	
1665	0	33644	
1666	0	33698	
1667	0	33776	
1668	0	33832	
1669	0	33872	
1670	0	33916	
1671	0	33970	
1672	0	33968	
1673	0	34000	
1674	0	34052	
1675	0	34068	
1676	0	34096	
1677	0	34084	
1678	0	34056	
1679	0	34028	
1680	0	34036	
1681	0	34000	
1682	0	34016	
1683	0	34088	
1684	0	34170	
1685	0	34252	
1686	0	34284	
1687	0	34288	
1688	0	34280	
1689	0	34320	
1690	0	34292	
1691	0	34304	
1692	0	34340	
1693	0	34368	
1694	0	34376	
1695	0	34400	
1696	0	34444	
1697	0	34464	
1698	0	34472	
1699	0	34472	
1700	0	34472	
1701	0	34452	
1702	0	34428	
1703	0	34448	
1704	0	34472	
1705	0	34456	
1706	0	34440	
1707	0	34440	
1708	0	34416	
1709	0	34372	
1710	0	34380	
1711	0	34448	
1712	0	34488	
1713	0	34508	
1714	0	34520	
1715	0	34560	
1716	0	34576	
1717	0	34564	
1718	0	34560	
1719	0	34616	
1720	0	34668	
1721	0	34728	
1722	0	34768	
1723	0	34823	
1724	0	34820	
1725	0	34864	
1726	0	34884	
1727	0	34840	
1728	0	34800	
1729	0	34792	
1730	0	34808	
1731	0	34800	
1732	0	34768	
1733	0	34712	
1734	0	34664	
1735	0	34652	
1736	0	34680	
1737	0	34716	
1738	0	34732	
1739	0	34792	
1740	0	34840	
1741	0	34844	
1742	0	34928	
1743	0	35040	
1744	0	35092	
1745	0	35104	
1746	0	35088	
1747	0	35080	
1748	0	35066	
1749	0	35048	
1750	0	35008	
1751	0	34960	
1752	0	34932	
1753	0	34884	
1754	0	34802	
1755	0	34696	
1756	0	34568	
1757	0	34472	
1758	0	34376	
1759	0	34292	
1760	0	34188	
1761	0	34052	
1762	0	33924	
1763	0	33816	
1764	0	33760	
1765	0	33712	
1766	0	33664	
1767	0	33614	
1768	0	33516	
1769	0	33422	
1770	0	33336	
1771	0	33256	
1772	0	33178	
1773	0	33048	
1774	0	32912	
1775	0	32816	
1776	0	32696	
1777	0	32564	
1778	0	32436	
1779	0	32330	
1780	0	32248	
1781	0	32144	
1782	0	32024	
1783	0	31880	
1784	0	31768	
1785	0	31652	
1786	0	31572	
1787	0	31516	
1788	0	31458	
1789	0	31376	
1790	0	31308	
1791	0	31220	
1792	0	31188	
1793	0	31184	
1794	0	31140	
1795	0	31072	
1796	0	30978	
1797	0	30936	
1798	0	30858	
1799	0	30816	
1800	0	30786	
1801	0	30728	
1802	0	30708	
1803	0	30672	
1804	0	30588	
1805	0	30496	
1806	0	30472	
1807	0	30504	
1808	0	30488	
1809	0	30416	
1810	0	30404	
1811	0	30390	
1812	0	30384	
1813	0	30384	
1814	0	30416	
1815	0	30388	
1816	0	30348	
1817	0	30344	
1818	0	30372	
1819	0	30388	
1820	0	30380	
1821	0	30352	
1822	0	30348	
1823	0	30356	
1824	0	30432	
1825	0	30512	
1826	0	30532	
1827	0	30568	
1828	0	30592	
1829	0	30584	
1830	0	30536	
1831	0	30512	
1832	0	30512	
1833	0	30512	
1834	0	30568	
1835	0	30624	
1836	0	30676	
1837	0	30728	
1838	0	30736	
1839	0	30732	
1840	0	30720	
1841	0	30752	
1842	0	30780	
1843	0	30738	
1844	0	30686	
1845	0	30680	
1846	0	30752	
1847	0	30804	
1848	0	30852	
1849	0	30896	
1850	0	30898	
1851	0	30912	
1852	0	30920	
1853	0	30908	
1854	0	30916	
1855	0	30968	
1856	0	30972	
1857	0	30962	
1858	0	30944	
1859	0	30912	
1860	0	30880	
1861	0	30872	
1862	0	30908	
1863	0	30916	
1864	0	30896	
1865	0	30832	
1866	0	30804	
1867	0	30776	
1868	0	30744	
1869	0	30756	
1870	0	30808	
1871	0	30852	
1872	0	30932	
1873	0	30984	
1874	0	30988	
1875	0	30964	
1876	0	30968	
1877	0	30996	
1878	0	31032	
1879	0	31040	
1880	0	31080	
1881	0	31096	
1882	0	31080	
1883	0	31108	
1884	0	31130	
1885	0	31120	
1886	0	31076	
1887	0	31032	
1888	0	31040	
1889	0	31044	
1890	0	31080	
1891	0	31096	
1892	0	31120	
1893	0	31140	
1894	0	31177	
1895	0	31208	
1896	0	31260	
1897	0	31276	
1898	0	31284	
1899	0	31280	
1900	0	31322	
1901	0	31328	
1902	0	31320	
1903	0	31328	
1904	0	31356	
1905	0	31352	
1906	0	31374	
1907	0	31360	
1908	0	31380	
1909	0	31394	
1910	0	31412	
1911	0	31448	
1912	0	31476	
1913	0	31500	
1914	0	31516	
1915	0	31516	
1916	0	31504	
1917	0	31448	
1918	0	31420	
1919	0	31404	
1920	0	31400	
1921	0	31376	
1922	0	31372	
1923	0	31404	
1924	0	31400	
1925	0	31360	
1926	0	31344	
1927	0	31360	
1928	0	31420	
1929	0	31432	
1930	0	31448	
1931	0	31440	
1932	0	31476	
1933	0	31572	
1934	0	31608	
1935	0	31664	
1936	0	31692	
1937	0	31708	
1938	0	31716	
1939	0	31720	
1940	0	31704	
1941	0	31712	
1942	0	31704	
1943	0	31704	
1944	0	31696	
1945	0	31688	
1946	0	31676	
1947	0	31656	
1948	0	31624	
1949	0	31648	
1950	0	31656	
1951	0	31696	
1952	0	31716	
1953	0	31688	
1954	0	31640	
1955	0	31592	
1956	0	31580	
1957	0	31634	
1958	0	31712	
1959	0	31744	
1960	0	31804	
1961	0	31820	
1962	0	31808	
1963	0	31802	
1964	0	31792	
1965	0	31762	
1966	0	31776	
1967	0	31796	
1968	0	31822	
1969	0	31836	
1970	0	31786	
1971	0	31764	
1972	0	31730	
1973	0	31738	
1974	0	31732	
1975	0	31676	
1976	0	31632	
1977	0	31628	
1978	0	31652	
1979	0	31692	
1980	0	31768	
1981	0	31820	
1982	0	31856	
1983	0	31880	
1984	0	31884	
1985	0	31894	
1986	0	31876	
1987	0	31868	
1988	0	31848	
1989	0	31832	
1990	0	31824	
1991	0	31832	
1992	0	31824	
1993	0	31784	
1994	0	31772	
1995	0	31736	
1996	0	31720	
1997	0	31744	
1998	0	31770	
1999	0	31840	
2000	0	31900	
2001	0	31968	
2002	0	31988	
2003	0	32012	
2004	0	32004	
2005	0	31968	
2006	0	31944	
2007	0	31988	
2008	0	32008	
2009	0	32020	
2010	0	32068	
2011	0	32104	
2012	0	32100	
2013	0	32092	
2014	0	32096	
2015	0	32124	
2016	0	32136	
2017	0	32112	
2018	0	32160	
2019	0	32180	
2020	0	32172	
2021	0	32152	
2022	0	32192	
2023	0	32212	
2024	0	32240	
2025	0	32258	
2026	0	32268	
2027	0	32232	
2028	0	32212	
2029	0	32192	
2030	0	32136	
2031	0	32072	
2032	0	32002	
2033	0	31970	
2034	0	32008	
2035	0	32080	
2036	0	32112	
2037	0	32184	
2038	0	32244	
2039	0	32274	
2040	0	32216	
2041	0	32152	
2042	0	32124	
2043	0	32112	
2044	0	32084	
2045	0	32064	
2046	0	32096	
2047	0	32144	
2048	0	32172	
2049	0	32228	
2050	0	32320	
2051	0	32396	
2052	0	32480	
2053	0	32568	
2054	0	32634	
2055	0	32704	
2056	0	32776	
2057	0	32800	
2058	0	32824	
2059	0	32852	
2060	0	32898	
2061	0	32906	
2062	0	32900	
2063	0	32848	
2064	0	32768	
2065	0	32676	
2066	0	32628	
2067	0	32652	
2068	0	32720	
2069	0	32748	
2070	0	32736	
2071	0	32664	
2072	0	32610	
2073	0	32628	
2074	0	32724	
2075	0	32816	
2076	0	32886	
2077	0	33036	
2078	0	33152	
2079	0	33272	
2080	0	33368	
2081	0	33472	
2082	0	33552	
2083	0	33620	
2084	0	33716	
2085	0	33824	
2086	0	33932	
2087	0	34064	
2088	0	34132	
2089	0	34176	
2090	0	34284	
2091	0	34368	
2092	0	34380	
2093	0	34348	
2094	0	34352	
2095	0	34428	
2096	0	34396	
2097	0	34304	
2098	0	34200	
2099	0	34128	
2100	0	34044	
2101	0	33936	
2102	0	33792	
2103	0	33656	
2104	0	33528	
2105	0	33440	
2106	0	33320	
2107	0	33200	
2108	0	33108	
2109	0	32996	
2110	0	32928	
2111	0	32896	
2112	0	32868	
2113	0	32844	
2114	0	32844	
2115	0	32848	
2116	0	32864	
2117	0	32844	
2118	0	32824	
2119	0	32842	
2120	0	32864	
2121	0	32956	
2122	0	33008	
2123	0	32968	
2124	0	32936	
2125	0	32900	
2126	0	32876	
2127	0	32872	
2128	0	32800	
2129	0	32700	
2130	0	32692	
2131	0	32670	
2132	0	32576	
2133	0	32508	
2134	0	32456	
2135	0	32400	
2136	0	32288	
2137	0	32232	
2138	0	32184	
2139	0	32176	
2140	0	32192	
2141	0	32218	
2142	0	32232	
2143	0	32240	
2144	0	32232	
2145	0	32260	
2146	0	32304	
2147	0	32296	
2148	0	32240	
2149	0	32180	
2150	0	32108	
2151	0	32032	
2152	0	32044	
2153	0	32052	
2154	0	32064	
2155	0	32128	
2156	0	32200	
2157	0	32260	
2158	0	32290	
2159	0	32304	
2160	0	32340	
2161	0	32356	
2162	0	32304	
2163	0	32232	
2164	0	32200	
2165	0	32200	
2166	0	32228	
2167	0	32264	
2168	0	32274	
2169	0	32272	
2170	0	32296	
2171	0	32300	
2172	0	32288	
2173	0	32316	
2174	0	32320	
2175	0	32288	
2176	0	32288	
2177	0	32320	
2178	0	32332	
2179	0	32328	
2180	0	32320	
2181	0	32336	
2182	0	32332	
2183	0	32312	
2184	0	32316	
2185	0	32348	
2186	0	32316	
2187	0	32272	
2188	0	32300	
2189	0	32300	
2190	0	32292	
2191	0	32282	
2192	0	32276	
2193	0	32308	
2194	0	32300	
2195	0	32288	
2196	0	32288	
2197	0	32244	
2198	0	32220	
2199	0	32222	
2200	0	32272	
2201	0	32320	
2202	0	32344	
2203	0	32384	
2204	0	32416	
2205	0	32432	
2206	0	32470	
2207	0	32532	
2208	0	32622	
2209	0	32692	
2210	0	32756	
2211	0	32865	
2212	0	32912	
2213	0	32904	
2214	0	32856	
2215	0	32788	
2216	0	32686	
2217	0	32558	
2218	0	32336	
2219	0	32120	
2220	0	31936	
2221	0	31820	
2222	0	31840	
2223	0	32056	
2224	0	32288	
2225	0	32568	
2226	0	32892	
2227	0	33172	
2228	0	33464	
2229	0	33660	
2230	0	33796	
2231	0	34036	
2232	0	34426	
2233	0	35088	
2234	0	35880	
2235	0	36824	
2236	0	37984	
2237	0	39296	
2238	0	40768	
2239	0	42280	
2240	0	43800	
2241	0	45368	
2242	0	46992	
2243	0	48672	
2244	0	50312	
2245	0	51792	
2246	0	53040	
2247	0	54076	
2248	0	55048	
2249	0	56168	
2250	0	57332	
2251	0	58232	
2252	0	58616	
2253	0	58080	
2254	0	56324	
2255	0	53504	
2256	0	49984	
2257	0	46120	
2258	0	42204	
2259	0	38552	
2260	0	35528	
2261	0	33376	
2262	0	32042	
2263	0	31208	
2264	0	30648	
2265	0	30240	
2266	0	29972	
2267	0	29880	
2268	0	29920	
2269	0	29992	
2270	0	30064	
2271	0	30176	
2272	0	30234	
2273	0	30304	
2274	0	30372	
2275	0	30408	
2276	0	30476	
2277	0	30656	
2278	0	30932	
2279	0	31164	
2280	0	31276	
2281	0	31392	
2282	0	31476	
2283	0	31524	
2284	0	31544	
2285	0	31560	
2286	0	31544	
2287	0	31452	
2288	0	31396	
2289	0	31348	
2290	0	31284	
2291	0	31196	
2292	0	31164	
2293	0	31152	
2294	0	31152	
2295	0	31072	
2296	0	31020	
2297	0	30960	
2298	0	30916	
2299	0	30928	
2300	0	30944	
2301	0	30960	
2302	0	30968	
2303	0	30984	
2304	0	30984	
2305	0	30996	
2306	0	31008	
2307	0	31032	
2308	0	31056	
2309	0	31060	
2310	0	31060	
2311	0	31116	
2312	0	31152	
2313	0	31148	
2314	0	31124	
2315	0	31116	
2316	0	31137	
2317	0	31128	
2318	0	31136	
2319	0	31146	
2320	0	31196	
2321	0	31256	
2322	0	31258	
2323	0	31224	
2324	0	31204	
2325	0	31214	
2326	0	31244	
2327	0	31276	
2328	0	31288	
2329	0	31300	
2330	0	31328	
2331	0	31424	
2332	0	31516	
2333	0	31576	
2334	0	31648	
2335	0	31664	
2336	0	31660	
2337	0	31672	
2338	0	31708	
2339	0	31752	
2340	0	31784	
2341	0	31824	
2342	0	31856	
2343	0	31912	
2344	0	31950	
2345	0	32012	
2346	0	32064	
2347	0	32122	
2348	0	32148	
2349	0	32148	
2350	0	32152	
2351	0	32152	
2352	0	32184	
2353	0	32268	
2354	0	32304	
2355	0	32352	
2356	0	32360	
2357	0	32380	
2358	0	32356	
2359	0	32324	
2360	0	32288	
2361	0	32268	
2362	0	32288	
2363	0	32292	
2364	0	32320	
2365	0	32332	
2366	0	32312	
2367	0	32304	
2368	0	32356	
2369	0	32392	
2370	0	32392	
2371	0	32400	
2372	0	32392	
2373	0	32436	
2374	0	32476	
2375	0	32516	
2376	0	32556	
2377	0	32588	
2378	0	32600	
2379	0	32640	
2380	0	32664	
2381	0	32668	
2382	0	32672	
2383	0	32704	
2384	0	32740	
2385	0	32754	
2386	0	32758	
2387	0	32768	
2388	0	32848	
2389	0	32920	
2390	0	32944	
2391	0	33024	
2392	0	33130	
2393	0	33172	
2394	0	33152	
2395	0	33184	
2396	0	33236	
2397	0	33272	
2398	0	33248	
2399	0	33264	
2400	0	33312	
2401	0	33340	
2402	0	33340	
2403	0	33360	
2404	0	33388	
2405	0	33432	
2406	0	33472	
2407	0	33504	
2408	0	33512	
2409	0	33528	
2410	0	33560	
2411	0	33616	
2412	0	33588	
2413	0	33568	
2414	0	33540	
2415	0	33548	
2416	0	33608	
2417	0	33668	
2418	0	33688	
2419	0	33688	
2420	0	33672	
2421	0	33672	
2422	0	33648	
2423	0	33620	
2424	0	33608	
2425	0	33616	
2426	0	33658	
2427	0	33696	
2428	0	33760	
2429	0	33772	
2430	0	33780	
2431	0	33796	
2432	0	33832	
2433	0	33840	
2434	0	33864	
2435	0	33880	
2436	0	33916	
2437	0	33956	
2438	0	33992	
2439	0	34044	
2440	0	34036	
2441	0	34056	
2442	0	34104	
2443	0	34168	
2444	0	34224	
2445	0	34256	
2446	0	34280	
2447	0	34300	
2448	0	34272	
2449	0	34264	
2450	0	34288	
2451	0	34272	
2452	0	34276	
2453	0	34332	
2454	0	34368	
2455	0	34360	
2456	0	34368	
2457	0	34408	
2458	0	34456	
2459	0	34480	
2460	0	34512	
2461	0	34588	
2462	0	34608	
2463	0	34624	
2464	0	34640	
2465	0	34620	
2466	0	34596	
2467	0	34564	
2468	0	34564	
2469	0	34532	
2470	0	34468	
2471	0	34440	
2472	0	34480	
2473	0	34528	
2474	0	34548	
2475	0	34560	
2476	0	34564	
2477	0	34560	
2478	0	34572	
2479	0	34592	
2480	0	34592	
2481	0	34556	
2482	0	34560	
2483	0	34556	
2484	0	34568	
2485	0	34604	
2486	0	34628	
2487	0	34648	
2488	0	34644	
2489	0	34644	
2490	0	34696	
2491	0	34752	
2492	0	34768	
2493	0	34748	
2494	0	34744	
2495	0	34744	
2496	0	34720	
2497	0	34666	
2498	0	34672	
2499	0	34784	
2500	0	34836	
2501	0	34834	
2502	0	34876	
2503	0	34928	
2504	0	34924	
2505	0	34940	
2506	0	34940	
2507	0	34912	
2508	0	34932	
2509	0	34952	
2510	0	34944	
2511	0	34920	
2512	0	34892	
2513	0	34896	
2514	0	34884	
2515	0	34820	
2516	0	34780	
2517	0	34760	
2518	0	34752	
2519	0	34752	
2520	0	34728	
2521	0	34644	
2522	0	34560	
2523	0	34472	
2524	0	34384	
2525	0	34288	
2526	0	34248	
2527	0	34200	
2528	0	34136	
2529	0	34096	
2530	0	34032	
2531	0	33960	
2532	0	33908	
2533	0	33824	
2534	0	33696	
2535	0	33532	
2536	0	33376	
2537	0	33252	
2538	0	33176	
2539	0	33068	
2540	0	32936	
2541	0	32816	
2542	0	32680	
2543	0	32600	
2544	0	32488	
2545	0	32380	
2546	0	32278	
2547	0	32224	
2548	0	32192	
2549	0	32084	
2550	0	31992	
2551	0	31920	
2552	0	31840	
2553	0	31776	
2554	0	31656	
2555	0	31556	
2556	0	31532	
2557	0	31472	
2558	0	31384	
2559	0	31320	
2560	0	31280	
2561	0	31240	
2562	0	31184	
2563	0	31088	
2564	0	30996	
2565	0	30948	
2566	0	30936	
2567	0	30908	
2568	0	30892	
2569	0	30880	
2570	0	30896	
2571	0	30936	
2572	0	30920	
2573	0	30876	
2574	0	30824	
2575	0	30740	
2576	0	30668	
2577	0	30634	
2578	0	30640	
2579	0	30632	
2580	0	30612	
2581	0	30592	
2582	0	30604	
2583	0	30612	
2584	0	30608	
2585	0	30604	
2586	0	30596	
2587	0	30592	
2588	0	30592	
2589	0	30592	
2590	0	30576	
2591	0	30544	
2592	0	30524	
2593	0	30538	
2594	0	30560	
2595	0	30572	
2596	0	30572	
2597	0	30584	
2598	0	30616	
2599	0	30630	
2600	0	30672	
2601	0	30744	
2602	0	30796	
2603	0	30776	
2604	0	30772	
2605	0	30760	
2606	0	30746	
2607	0	30732	
2608	0	30726	
2609	0	30720	
2610	0	30680	
2611	0	30688	
2612	0	30700	
2613	0	30708	
2614	0	30736	
2615	0	30696	
2616	0	30692	
2617	0	30724	
2618	0	30728	
2619	0	30796	
2620	0	30836	
2621	0	30856	
2622	0	30864	
2623	0	30858	
2624	0	30824	
2625	0	30828	
2626	0	30860	
2627	0	30860	
2628	0	30856	
2629	0	30876	
2630	0	30862	
2631	0	30864	
2632	0	30868	
2633	0	30908	
2634	0	30936	
2635	0	30968	
2636	0	31020	
2637	0	31072	
2638	0	31076	
2639	0	31048	
2640	0	30984	
2641	0	30932	
2642	0	30956	
2643	0	30948	
2644	0	30924	
2645	0	30956	
2646	0	30980	
2647	0	30984	
2648	0	30992	
2649	0	30984	
2650	0	30972	
2651	0	30996	
2652	0	31036	
2653	0	31036	
2654	0	31008	
2655	0	30980	
2656	0	30964	
2657	0	30996	
2658	0	31016	
2659	0	31028	
2660	0	31074	
2661	0	31108	
2662	0	31138	
2663	0	31160	
2664	0	31168	
2665	0	31156	
2666	0	31148	
2667	0	31140	
2668	0	31136	
2669	0	31124	
2670	0	31172	
2671	0	31208	
2672	0	31228	
2673	0	31236	
2674	0	31256	
2675	0	31252	
2676	0	31188	
2677	0	31176	
2678	0	31212	
2679	0	31292	
2680	0	31352	
2681	0	31328	
2682	0	31288	
2683	0	31220	
2684	0	31140	
2685	0	31120	
2686	0	31096	
2687	0	31124	
2688	0	31160	
2689	0	31188	
2690	0	31216	
2691	0	31280	
2692	0	31312	
2693	0	31296	
2694	0	31308	
2695	0	31296	
2696	0	31292	
2697	0	31298	
2698	0	31340	
2699	0	31356	
2700	0	31372	
2701	0	31409	
2702	0	31412	
2703	0	31424	
2704	0	31440	
2705	0	31456	
2706	0	31484	
2707	0	31498	
2708	0	31508	
2709	0	31538	
2710	0	31584	
2711	0	31560	
2712	0	31576	
2713	0	31560	
2714	0	31552	
2715	0	31584	
2716	0	31604	
2717	0	31616	
2718	0	31602	
2719	0	31576	
2720	0	31520	
2721	0	31444	
2722	0	31388	
2723	0	31384	
2724	0	31392	
2725	0	31432	
2726	0	31452	
2727	0	31472	
2728	0	31472	
2729	0	31504	
2730	0	31472	
2731	0	31472	
2732	0	31520	
2733	0	31580	
2734	0	31608	
2735	0	31616	
2736	0	31604	
2737	0	31600	
2738	0	31568	
2739	0	31552	
2740	0	31576	
2741	0	31620	
2742	0	31624	
2743	0	31624	
2744	0	31640	
2745	0	31668	
2746	0	31676	
2747	0	31662	
2748	0	31640	
2749	0	31596	
2750	0	31592	
2751	0	31592	
2752	0	31570	
2753	0	31576	
2754	0	31600	
2755	0	31620	
2756	0	31628	
2757	0	31616	
2758	0	31604	
2759	0	31570	
2760	0	31544	
2761	0	31592	
2762	0	31600	
2763	0	31584	
2764	0	31604	
2765	0	31616	
2766	0	31612	
2767	0	31652	
2768	0	31704	
2769	0	31732	
2770	0	31776	
2771	0	31828	
2772	0	31916	
2773	0	31968	
2774	0	32020	
2775	0	32088	
2776	0	32132	
2777	0	32148	
2778	0	32144	
2779	0	32132	
2780	0	32116	
2781	0	32092	
2782	0	32032	
2783	0	31996	
2784	0	31952	
2785	0	31968	
2786	0	31968	
2787	0	31968	
2788	0	31932	
2789	0	31920	
2790	0	31914	
2791	0	31964	
2792	0	31992	
2793	0	31992	
2794	0	31968	
2795	0	31960	
2796	0	31916	
2797	0	31936	
2798	0	31940	
2799	0	32004	
2800	0	32036	
2801	0	32032	
2802	0	32008	
2803	0	32012	
2804	0	32040	
2805	0	32024	
2806	0	32004	
2807	0	31960	
2808	0	31932	
2809	0	31920	
2810	0	31908	
2811	0	31904	
2812	0	31904	
2813	0	31916	
2814	0	31952	
2815	0	31978	
2816	0	31984	
2817	0	32058	
2818	0	32132	
2819	0	32168	
2820	0	32192	
2821	0	32232	
2822	0	32288	
2823	0	32376	
2824	0	32432	
2825	0	32444	
2826	0	32428	
2827	0	32420	
2828	0	32442	
2829	0	32460	
2830	0	32444	
2831	0	32416	
2832	0	32380	
2833	0	32376	
2834	0	32388	
2835	0	32376	
2836	0	32340	
2837	0	32344	
2838	0	32344	
2839	0	32280	
2840	0	32240	
2841	0	32288	
2842	0	32362	
2843	0	32468	
2844	0	32584	
2845	0	32730	
2846	0	32876	
2847	0	32980	
2848	0	33048	
2849	0	33176	
2850	0	33356	
2851	0	33520	
2852	0	33664	
2853	0	33788	
2854	0	33952	
2855	0	34088	
2856	0	34208	
2857	0	34292	
2858	0	34376	
2859	0	34452	
2860	0	34504	
2861	0	34512	
2862	0	34512	
2863	0	34464	
2864	0	34324	
2865	0	34164	
2866	0	34080	
2867	0	33984	
2868	0	33900	
2869	0	33780	
2870	0	33672	
2871	0	33524	
2872	0	33412	
2873	0	33312	
2874	0	33248	
2875	0	33176	
2876	0	33104	
2877	0	33040	
2878	0	32992	
2879	0	32918	
2880	0	32864	
2881	0	32852	
2882	0	32896	
2883	0	32900	
2884	0	32924	
2885	0	32916	
2886	0	32848	
2887	0	32828	
2888	0	32856	
2889	0	32860	
2890	0	32876	
2891	0	32844	
2892	0	32856	
2893	0	32876	
2894	0	32848	
2895	0	32780	
2896	0	32684	
2897	0	32600	
2898	0	32620	
2899	0	32640	
2900	0	32604	
2901	0	32520	
2902	0	32456	
2903	0	32436	
2904	0	32372	
2905	0	32344	
2906	0	32292	
2907	0	32264	
2908	0	32204	
2909	0	32144	
2910	0	32064	
2911	0	32040	
2912	0	32064	
2913	0	32116	
2914	0	32148	
2915	0	32176	
2916	0	32204	
2917	0	32196	
2918	0	32162	
2919	0	32148	
2920	0	32124	
2921	0	32080	
2922	0	32020	
2923	0	31976	
2924	0	31948	
2925	0	31912	
2926	0	31936	
2927	0	32036	
2928	0	32116	
2929	0	32178	
2930	0	32188	
2931	0	32216	
2932	0	32228	
2933	0	32240	
2934	0	32248	
2935	0	32252	
2936	0	32252	
2937	0	32232	
2938	0	32236	
2939	0	32248	
2940	0	32290	
2941	0	32312	
2942	0	32260	
2943	0	32208	
2944	0	32232	
2945	0	32276	
2946	0	32296	
2947	0	32308	
2948	0	32332	
2949	0	32378	
2950	0	32384	
2951	0	32328	
2952	0	32284	
2953	0	32248	
2954	0	32224	
2955	0	32204	
2956	0	32192	
2957	0	32144	
2958	0	32160	
2959	0	32180	
2960	0	32204	
2961	0	32216	
2962	0	32212	
2963	0	32205	
2964	0	32180	
2965	0	32194	
2966	0	32184	
2967	0	32188	
2968	0	32204	
2969	0	32212	
2970	0	32260	
2971	0	32312	
2972	0	32360	
2973	0	32378	
2974	0	32344	
2975	0	32292	
2976	0	32320	
2977	0	32452	
2978	0	32592	
2979	0	32656	
2980	0	32684	
2981	0	32692	
2982	0	32668	
2983	0	32616	
2984	0	32514	
2985	0	32324	
2986	0	32124	
2987	0	31940	
2988	0	31786	
2989	0	31760	
2990	0	31912	
2991	0	32164	
2992	0	32380	
2993	0	32616	
2994	0	32872	
2995	0	33120	
2996	0	33306	
2997	0	33420	
2998	0	33624	
2999	0	33968	
3000	0	34460	
3001	0	35144	
3002	0	36024	
3003	0	37088	
3004	0	38204	
3005	0	39492	
3006	0	40944	
3007	0	42488	
3008	0	44036	
3009	0	45608	
3010	0	47300	
3011	0	49080	
3012	0	50712	
3013	0	52160	
3014	0	53376	
3015	0	54448	
3016	0	55516	
3017	0	56656	
3018	0	57804	
3019	0	58536	
3020	0	58624	
3021	0	57740	
3022	0	55672	
3023	0	52612	
3024	0	48888	
3025	0	44848	
3026	0	40960	
3027	0	37500	
3028	0	34692	
3029	0	32760	
3030	0	31560	
3031	0	30768	
3032	0	30210	
3033	0	29824	
3034	0	29590	
3035	0	29520	
3036	0	29608	
3037	0	29772	
3038	0	29912	
3039	0	30040	
3040	0	30152	
3041	0	30304	
3042	0	30408	
3043	0	30504	
3044	0	30600	
3045	0	30744	
3046	0	30944	
3047	0	31084	
3048	0	31184	
3049	0	31256	
3050	0	31320	
3051	0	31344	
3052	0	31354	
3053	0	31368	
3054	0	31336	
3055	0	31356	
3056	0	31336	
3057	0	31300	
3058	0	31256	
3059	0	31224	
3060	0	31188	
3061	0	31184	
3062	0	31162	
3063	0	31120	
3064	0	31050	
3065	0	31008	
3066	0	30940	
3067	0	30880	
3068	0	30832	
3069	0	30796	
3070	0	30804	
3071	0	30856	
3072	0	30912	
3073	0	30936	
3074	0	30998	
3075	0	31032	
3076	0	31088	
3077	0	31148	
3078	0	31180	
3079	0	31192	
3080	0	31192	
3081	0	31220	
3082	0	31272	
3083	0	31320	
3084	0	31360	
3085	0	31360	
3086	0	31416	
3087	0	31432	
3088	0	31426	
3089	0	31428	
3090	0	31492	
3091	0	31560	
3092	0	31628	
3093	0	31650	
3094	0	31680	
3095	0	31676	
3096	0	31692	
3097	0	31680	
3098	0	31704	
3099	0	31732	
3100	0	31740	
3101	0	31700	
3102	0	31676	
3103	0	31696	
3104	0	31772	
3105	0	31816	
3106	0	31842	
3107	0	31830	
3108	0	31816	
3109	0	31844	
3110	0	31848	
3111	0	31840	
3112	0	31888	
3113	0	31916	
3114	0	31884	
3115	0	31880	
3116	0	31904	
3117	0	31956	
3118	0	32008	
3119	0	32000	
3120	0	32006	
3121	0	32040	
3122	0	32080	
3123	0	32128	
3124	0	32168	
3125	0	32192	
3126	0	32212	
3127	0	32216	
3128	0	32232	
3129	0	32332	
3130	0	32468	
3131	0	32528	
3132	0	32556	
3133	0	32576	
3134	0	32588	
3135	0	32600	
3136	0	32560	
3137	0	32548	
3138	0	32544	
3139	0	32560	
3140	0	32568	
3141	0	32640	
3142	0	32708	
3143	0	32708	
3144	0	32688	
3145	0	32716	
3146	0	32776	
3147	0	32834	
3148	0	32872	
3149	0	32904	
3150	0	32944	
3151	0	32960	
3152	0	32980	
3153	0	32960	
3154	0	32908	
3155	0	32928	
3156	0	32954	
3157	0	32956	
3158	0	32976	
3159	0	33016	
3160	0	33074	
3161	0	33092	
3162	0	33120	
3163	0	33174	
3164	0	33164	
3165	0	33196	
3166	0	33224	
3167	0	33244	
3168	0	33260	
3169	0	33248	
3170	0	33292	
3171	0	33284	
3172	0	33292	
3173	0	33334	
3174	0	33344	
3175	0	33344	
3176	0	33368	
3177	0	33376	
3178	0	33364	
3179	0	33382	
3180	0	33408	
3181	0	33400	
3182	0	33408	
3183	0	33386	
3184	0	33356	
3185	0	33316	
3186	0	33272	
3187	0	33300	
3188	0	33348	
3189	0	33432	
3190	0	33492	
3191	0	33516	
3192	0	33536	
3193	0	33560	
3194	0	33600	
3195	0	33658	
3196	0	33696	
3197	0	33720	
3198	0	33706	
3199	0	33720	
3200	0	33752	
3201	0	33732	
3202	0	33704	
3203	0	33736	
3204	0	33724	
3205	0	33690	
3206	0	33684	
3207	0	33708	
3208	0	33748	
3209	0	33800	
3210	0	33824	
3211	0	33804	
3212	0	33792	
3213	0	33866	
3214	0	33952	
3215	0	34036	
3216	0	34080	
3217	0	34080	
3218	0	34044	
3219	0	34008	
3220	0	34008	
3221	0	34024	
3222	0	34076	
3223	0	34148	
3224	0	34184	
3225	0	34208	
3226	0	34216	
3227	0	34184	
3228	0	34202	
3229	0	34200	
3230	0	34184	
3231	0	34180	
3232	0	34148	
3233	0	34156	
3234	0	34136	
3235	0	34108	
3236	0	34072	
3237	0	34080	
3238	0	34092	
3239	0	34130	
3240	0	34176	
3241	0	34208	
3242	0	34240	
3243	0	34308	
3244	0	34352	
3245	0	34368	
3246	0	34370	
3247	0	34360	
3248	0	34272	
3249	0	34192	
3250	0	34128	
3251	0	34052	
3252	0	34058	
3253	0	34142	
3254	0	34208	
3255	0	34276	
3256	0	34312	
3257	0	34336	
3258	0	34344	
3259	0	34336	
3260	0	34328	
3261	0	34300	
3262	0	34272	
3263	0	34280	
3264	0	34314	
3265	0	34320	
3266	0	34376	
3267	0	34424	
3268	0	34424	
3269	0	34404	
3270	0	34392	
3271	0	34400	
3272	0	34412	
3273	0	34412	
3274	0	34456	
3275	0	34464	
3276	0	34476	
3277	0	34500	
3278	0	34480	
3279	0	34436	
3280	0	34416	
3281	0	34340	
3282	0	34300	
3283	0	34324	
3284	0	34304	
3285	0	34240	
3286	0	34216	
3287	0	34242	
3288	0	34248	
3289	0	34152	
3290	0	34064	
3291	0	33988	
3292	0	33914	
3293	0	33864	
3294	0	33788	
3295	0	33696	
3296	0	33664	
3297	0	33608	
3298	0	33528	
3299	0	33464	
3300	0	33388	
3301	0	33280	
3302	0	33168	
3303	0	33088	
3304	0	32992	
3305	0	32912	
3306	0	32856	
3307	0	32764	
3308	0	32636	
3309	0	32520	
3310	0	32426	
3311	0	32304	
3312	0	32208	
3313	0	32152	
3314	0	32068	
3315	0	31936	
3316	0	31834	
3317	0	31760	
3318	0	31656	
3319	0	31568	
3320	0	31500	
3321	0	31436	
3322	0	31352	
3323	0	31272	
3324	0	31172	
3325	0	31112	
3326	0	31100	
3327	0	31076	
3328	0	31050	
3329	0	30984	
3330	0	30900	
3331	0	30842	
3332	0	30804	
3333	0	30780	
3334	0	30728	
3335	0	30692	
3336	0	30660	
3337	0	30636	
3338	0	30616	
3339	0	30604	
3340	0	30576	
3341	0	30568	
3342	0	30536	
3343	0	30480	
3344	0	30404	
3345	0	30330	
3346	0	30324	
3347	0	30372	
3348	0	30428	
3349	0	30464	
3350	0	30512	
3351	0	30540	
3352	0	30568	
3353	0	30604	
3354	0	30620	
3355	0	30624	
3356	0	30620	
3357	0	30612	
3358	0	30626	
3359	0	30636	
3360	0	30576	
3361	0	30544	
3362	0	30584	
3363	0	30616	
3364	0	30648	
3365	0	30650	
3366	0	30648	
3367	0	30624	
3368	0	30602	
3369	0	30592	
3370	0	30586	
3371	0	30604	
3372	0	30676	
3373	0	30736	
3374	0	30752	
3375	0	30788	
3376	0	30784	
3377	0	30800	
3378	0	30804	
3379	0	30812	
3380	0	30808	
3381	0	30788	
3382	0	30798	
3383	0	30808	
3384	0	30772	
3385	0	30792	
3386	0	30864	
3387	0	30844	
3388	0	30820	
3389	0	30828	
3390	0	30809	
3391	0	30828	
3392	0	30848	
3393	0	30896	
3394	0	30928	
3395	0	30964	
3396	0	30992	
3397	0	31004	
3398	0	31008	
3399	0	31044	
3400	0	31084	
3401	0	31156	
3402	0	31154	
3403	0	31128	
3404	0	31104	
3405	0	31080	
3406	0	31120	
3407	0	31164	
3408	0	31200	
3409	0	31192	
3410	0	31182	
3411	0	31184	
3412	0	31184	
3413	0	31196	
3414	0	31176	
3415	0	31200	
3416	0	31320	
3417	0	31448	
3418	0	31500	
3419	0	31532	
3420	0	31520	
3421	0	31476	
3422	0	31424	
3423	0	31396	
3424	0	31372	
3425	0	31428	
3426	0	31480	
3427	0	31508	
3428	0	31478	
3429	0	31436	
3430	0	31456	
3431	0	31452	
3432	0	31388	
3433	0	31324	
3434	0	31320	
3435	0	31352	
3436	0	31380	
3437	0	31392	
3438	0	31368	
3439	0	31370	
3440	0	31400	
3441	0	31456	
3442	0	31472	
3443	0	31456	
3444	0	31456	
3445	0	31444	
3446	0	31442	
3447	0	31484	
3448	0	31544	
3449	0	31560	
3450	0	31584	
3451	0	31588	
3452	0	31624	
3453	0	31672	
3454	0	31700	
3455	0	31744	
3456	0	31764	
3457	0	31732	
3458	0	31656	
3459	0	31590	
3460	0	31564	
3461	0	31532	
3462	0	31516	
3463	0	31522	
3464	0	31512	
3465	0	31536	
3466	0	31592	
3467	0	31584	
3468	0	31552	
3469	0	31508	
3470	0	31480	
3471	0	31440	
3472	0	31408	
3473	0	31448	
3474	0	31490	
3475	0	31520	
3476	0	31540	
3477	0	31560	
3478	0	31568	
3479	0	31572	
3480	0	31580	
3481	0	31576	
3482	0	31540	
3483	0	31568	
3484	0	31612	
3485	0	31640	
3486	0	31660	
3487	0	31700	
3488	0	31708	
3489	0	31680	
3490	0	31668	
3491	0	31656	
3492	0	31644	
3493	0	31616	
3494	0	31628	
3495	0	31650	
3496	0	31640	
3497	0	31616	
3498	0	31552	
3499	0	31548	
3500	0	31508	
3501	0	31436	
3502	0	31432	
3503	0	31460	
3504	0	31516	
3505	0	31600	
3506	0	31660	
3507	0	31724	
3508	0	31752	
3509	0	31776	
3510	0	31832	
3511	0	31844	
3512	0	31822	
3513	0	31834	
3514	0	31840	
3515	0	31832	
3516	0	31800	
3517	0	31800	
3518	0	31796	
3519	0	31816	
3520	0	31820	
3521	0	31800	
3522	0	31752	
3523	0	31720	
3524	0	31762	
3525	0	31770	
3526	0	31748	
3527	0	31744	
3528	0	31800	
3529	0	31808	
3530	0	31780	
3531	0	31764	
3532	0	31770	
3533	0	31768	
3534	0	31736	
3535	0	31752	
3536	0	31848	
3537	0	31872	
3538	0	31872	
3539	0	31880	
3540	0	31920	
3541	0	31928	
3542	0	31952	
3543	0	31936	
3544	0	31936	
3545	0	31900	
3546	0	31868	
3547	0	31896	
3548	0	31936	
3549	0	32012	
3550	0	32088	
3551	0	32176	
3552	0	32236	
3553	0	32290	
3554	0	32332	
3555	0	32340	
3556	0	32384	
3557	0	32432	
3558	0	32460	
3559	0	32450	
3560	0	32400	
3561	0	32356	
3562	0	32384	
3563	0	32428	
3564	0	32472	
3565	0	32512	
3566	0	32508	
3567	0	32508	
3568	0	32476	
3569	0	32464	
3570	0	32524	
3571	0	32596	
3572	0	32676	
3573	0	32808	
3574	0	32956	
3575	0	33092	
3576	0	33220	
3577	0	33344	
3578	0	33512	
3579	0	33724	
3580	0	33844	
3581	0	33936	
3582	0	34048	
3583	0	34136	
3584	0	34172	
3585	0	34180	
3586	0	34152	
3587	0	34116	
3588	0	34152	
3589	0	34256	
3590	0	34344	
3591	0	34328	
3592	0	34200	
3593	0	34064	
3594	0	33968	
3595	0	33844	
3596	0	33720	
3597	0	33556	
3598	0	33366	
3599	0	33224	
3600	0	33114	
3601	0	33034	
3602	0	32948	
3603	0	32880	
3604	0	32858	
3605	0	32840	
3606	0	32800	
3607	0	32784	
3608	0	32780	
3609	0	32744	
3610	0	32760	
3611	0	32812	
3612	0	32824	
3613	0	32828	
3614	0	32794	
3615	0	32780	
3616	0	32752	
3617	0	32772	
3618	0	32736	
3619	0	32680	
3620	0	32606	
3621	0	32548	
3622	0	32472	
3623	0	32408	
3624	0	32364	
3625	0	32288	
3626	0	32192	
3627	0	32120	
3628	0	32012	
3629	0	31952	
3630	0	31928	
3631	0	31916	
3632	0	31962	
3633	0	31972	
3634	0	31886	
3635	0	31844	
3636	0	31820	
3637	0	31776	
3638	0	31796	
3639	0	31858	
3640	0	31944	
3641	0	31996	
3642	0	31952	
3643	0	31888	
3644	0	31844	
3645	0	31856	
3646	0	31844	
3647	0	31824	
3648	0	31802	
3649	0	31796	
3650	0	31836	
3651	0	31864	
3652	0	31876	
3653	0	31860	
3654	0	31872	
3655	0	31880	
3656	0	31888	
3657	0	31932	
3658	0	31960	
3659	0	31928	
3660	0	31912	
3661	0	31922	
3662	0	31920	
3663	0	31920	
3664	0	31968	
3665	0	32008	
3666	0	32036	
3667	0	32033	
3668	0	32064	
3669	0	32120	
3670	0	32172	
3671	0	32164	
3672	0	32104	
3673	0	32084	
3674	0	32114	
3675	0	32106	
3676	0	32080	
3677	0	32040	
3678	0	32004	
3679	0	32026	
3680	0	32080	
3681	0	32104	
3682	0	32036	
3683	0	32032	
3684	0	32040	
3685	0	32028	
3686	0	32038	
3687	0	32046	
3688	0	32048	
3689	0	32088	
3690	0	32092	
3691	0	32072	
3692	0	32084	
3693	0	32096	
3694	0	32074	
3695	0	32056	
3696	0	32052	
3697	0	32088	
3698	0	32128	
3699	0	32160	
3700	0	32224	
3701	0	32224	
3702	0	32212	
3703	0	32204	
3704	0	32192	
3705	0	32190	
3706	0	32248	
3707	0	32320	
3708	0	32372	
3709	0	32384	
3710	0	32400	
3711	0	32400	
3712	0	32384	
3713	0	32320	
3714	0	32172	
3715	0	31952	
3716	0	31776	
3717	0	31632	
3718	0	31604	
3719	0	31744	
3720	0	31992	
3721	0	32204	
3722	0	32524	
3723	0	32800	
3724	0	33012	
3725	0	33176	
3726	0	33256	
3727	0	33452	
3728	0	33756	
3729	0	34228	
3730	0	34880	
3731	0	35684	
3732	0	36628	
3733	0	37764	
3734	0	39132	
3735	0	40688	
3736	0	42256	
3737	0	43788	
3738	0	45372	
3739	0	47028	
3740	0	48784	
3741	0	50424	
3742	0	51904	
3743	0	53100	
3744	0	54196	
3745	0	55304	
3746	0	56504	
3747	0	57576	
3748	0	58264	
3749	0	58256	
3750	0	57152	
3751	0	54840	
3752	0	51624	
3753	0	47832	
3754	0	43788	
3755	0	39944	
3756	0	36548	
3757	0	33912	
3758	0	32128	
3759	0	30992	
3760	0	30248	
3761	0	29732	
3762	0	29356	
3763	0	29112	
3764	0	29032	
3765	0	29132	
3766	0	29288	
3767	0	29434	
3768	0	29560	
3769	0	29644	
3770	0	29760	
3771	0	29896	
3772	0	29992	
3773	0	30120	
3774	0	30280	
3775	0	30452	
3776	0	30604	
3777	0	30740	
3778	0	30824	
3779	0	30840	
3780	0	30848	
3781	0	30824	
3782	0	30824	
3783	0	30804	
3784	0	30804	
3785	0	30784	
3786	0	30788	
3787	0	30812	
3788	0	30800	
3789	0	30792	
3790	0	30780	
3791	0	30840	
3792	0	30848	
3793	0	30848	
3794	0	30836	
3795	0	30792	
3796	0	30784	
3797	0	30784	
3798	0	30730	
3799	0	30680	
3800	0	30688	
3801	0	30768	
3802	0	30880	
3803	0	30956	
3804	0	31004	
3805	0	31052	
3806	0	31120	
3807	0	31168	
3808	0	31182	
3809	0	31194	
3810	0	31232	
3811	0	31248	
3812	0	31224	
3813	0	31212	
3814	0	31240	
3815	0	31272	
3816	0	31296	
3817	0	31288	
3818	0	31288	
3819	0	31296	
3820	0	31296	
3821	0	31314	
3822	0	31324	
3823	0	31312	
3824	0	31320	
3825	0	31368	
3826	0	31420	
3827	0	31472	
3828	0	31492	
3829	0	31540	
3830	0	31612	
3831	0	31656	
3832	0	31712	
3833	0	31760	
3834	0	31776	
3835	0	31760	
3836	0	31808	
3837	0	31888	
3838	0	31936	
3839	0	31976	
3840	0	32016	
3841	0	32028	
3842	0	32064	
3843	0	32096	
3844	0	32106	
3845	0	32088	
3846	0	32072	
3847	0	32088	
3848	0	32084	
3849	0	32096	
3850	0	32132	
3851	0	32204	
3852	0	32280	
3853	0	32314	
3854	0	32364	
3855	0	32426	
3856	0	32460	
3857	0	32450	
3858	0	32416	
3859	0	32414	
3860	0	32480	
3861	0	32548	
3862	0	32596	
3863	0	32600	
3864	0	32568	
3865	0	32576	
3866	0	32676	
3867	0	32716	
3868	0	32720	
3869	0	32770	
3870	0	32812	
3871	0	32800	
3872	0	32812	
3873	0	32864	
3874	0	32904	
3875	0	32952	
3876	0	33012	
3877	0	33018	
3878	0	33028	
3879	0	33036	
3880	0	33064	
3881	0	33112	
3882	0	33148	
3883	0	33152	
3884	0	33104	
3885	0	33056	
3886	0	33060	
3887	0	33104	
3888	0	33140	
3889	0	33156	
3890	0	33148	
3891	0	33204	
3892	0	33296	
3893	0	33344	
3894	0	33344	
3895	0	33352	
3896	0	33408	
3897	0	33444	
3898	0	33440	
3899	0	33408	
3900	0	33392	
3901	0	33420	
3902	0	33392	
3903	0	33328	
3904	0	33340	
3905	0	33396	
3906	0	33440	
3907	0	33442	
3908	0	33464	
3909	0	33472	
3910	0	33572	
3911	0	33644	
3912	0	33688	
3913	0	33704	
3914	0	33708	
3915	0	33728	
3916	0	33736	
3917	0	33712	
3918	0	33704	
3919	0	33700	
3920	0	33704	
3921	0	33688	
3922	0	33650	
3923	0	33620	
3924	0	33628	
3925	0	33656	
3926	0	33692	
3927	0	33728	
3928	0	33770	
3929	0	33804	
3930	0	33796	
3931	0	33760	
3932	0	33744	
3933	0	33744	
3934	0	33756	
3935	0	33800	
3936	0	33848	
3937	0	33872	
3938	0	33896	
3939	0	33920	
3940	0	33976	
3941	0	34008	
3942	0	34056	
3943	0	34024	
3944	0	33976	
3945	0	33972	
3946	0	33992	
3947	0	34056	
3948	0	34104	
3949	0	34096	
3950	0	34080	
3951	0	34104	
3952	0	34108	
3953	0	34080	
3954	0	34044	
3955	0	34064	
3956	0	34088	
3957	0	34100	
3958	0	34080	
3959	0	34082	
3960	0	34128	
3961	0	34180	
3962	0	34224	
3963	0	34260	
3964	0	34272	
3965	0	34296	
3966	0	34356	
3967	0	34432	
3968	0	34436	
3969	0	34452	
3970	0	34452	
3971	0	34424	
3972	0	34420	
3973	0	34444	
3974	0	34452	
3975	0	34460	
3976	0	34464	
3977	0	34496	
3978	0	34504	
3979	0	34508	
3980	0	34488	
3981	0	34460	
3982	0	34484	
3983	0	34540	
3984	0	34580	
3985	0	34596	
3986	0	34632	
3987	0	34666	
3988	0	34688	
3989	0	34708	
3990	0	34728	
3991	0	34744	
3992	0	34720	
3993	0	34732	
3994	0	34784	
3995	0	34772	
3996	0	34736	
3997	0	34740	
3998	0	34788	
3999	0	34848	
4000	0	34876	
4001	0	34852	
4002	0	34848	
4003	0	34872	
4004	0	34900	
4005	0	34900	
4006	0	34888	
4007	0	34900	
4008	0	34888	
4009	0	34864	
4010	0	34828	
4011	0	34792	
4012	0	34736	
4013	0	34716	
4014	0	34708	
4015	0	34688	
4016	0	34600	
4017	0	34528	
4018	0	34484	
4019	0	34428	
4020	0	34408	
4021	0	34400	
4022	0	34312	
4023	0	34192	
4024	0	34032	
4025	0	33904	
4026	0	33760	
4027	0	33632	
4028	0	33514	
4029	0	33376	
4030	0	33244	
4031	0	33080	
4032	0	32928	
4033	0	32824	
4034	0	32728	
4035	0	32632	
4036	0	32552	
4037	0	32452	
4038	0	32384	
4039	0	32304	
4040	0	32212	
4041	0	32164	
4042	0	32176	
4043	0	32144	
4044	0	32060	
4045	0	31996	
4046	0	31908	
4047	0	31840	
4048	0	31760	
4049	0	31696	
4050	0	31596	
4051	0	31472	
4052	0	31380	
4053	0	31256	
4054	0	31124	
4055	0	31020	
4056	0	30928	
4057	0	30900	
4058	0	30886	
4059	0	30876	
4060	0	30872	
4061	0	30860	
4062	0	30864	
4063	0	30872	
4064	0	30812	
4065	0	30784	
4066	0	30756	
4067	0	30748	
4068	0	30728	
4069	0	30672	
4070	0	30628	
4071	0	30560	
4072	0	30532	
4073	0	30564	
4074	0	30616	
4075	0	30644	
4076	0	30678	
4077	0	30712	
4078	0	30768	
4079	0	30794	
4080	0	30788	
4081	0	30804	
4082	0	30788	
4083	0	30756	
4084	0	30752	
4085	0	30752	
4086	0	30768	
4087	0	30844	
4088	0	30928	
4089	0	31004	
4090	0	31016	
4091	0	30988	
4092	0	30960	
4093	0	30954	
4094	0	30904	
4095	0	30864	
4096	0	30844	
4097	0	30864	
4098	0	30880	
4099	0	30876	
4100	0	30824	
4101	0	30812	
4102	0	30848	
4103	0	30872	
4104	0	30882	
4105	0	30924	
4106	0	30960	
4107	0	30996	
4108	0	31008	
4109	0	30984	
4110	0	30944	
4111	0	30944	
4112	0	30940	
4113	0	30972	
4114	0	31024	
4115	0	31070	
4116	0	31074	
4117	0	31076	
4118	0	31088	
4119	0	31160	
4120	0	31212	
4121	0	31208	
4122	0	31204	
4123	0	31208	
4124	0	31200	
4125	0	31188	
4126	0	31180	
4127	0	31200	
4128	0	31172	
4129	0	31096	
4130	0	31052	
4131	0	31032	
4132	0	30980	
4133	0	30932	
4134	0	30976	
4135	0	31024	
4136	0	31100	
4137	0	31164	
4138	0	31144	
4139	0	31088	
4140	0	31104	
4141	0	31112	
4142	0	31136	
4143	0	31144	
4144	0	31136	
4145	0	31156	
4146	0	31192	
4147	0	31188	
4148	0	31264	
4149	0	31312	
4150	0	31348	
4151	0	31368	
4152	0	31360	
4153	0	31350	
4154	0	31332	
4155	0	31308	
4156	0	31334	
4157	0	31360	
4158	0	31352	
4159	0	31384	
4160	0	31440	
4161	0	31476	
4162	0	31472	
4163	0	31476	
4164	0	31464	
4165	0	31500	
4166	0	31540	
4167	0	31540	
4168	0	31548	
4169	0	31500	
4170	0	31490	
4171	0	31536	
4172	0	31584	
4173	0	31616	
4174	0	31592	
4175	0	31608	
4176	0	31600	
4177	0	31564	
4178	0	31516	
4179	0	31520	
4180	0	31548	
4181	0	31528	
4182	0	31512	
4183	0	31504	
4184	0	31512	
4185	0	31474	
4186	0	31492	
4187	0	31516	
4188	0	31568	
4189	0	31624	
4190	0	31640	
4191	0	31616	
4192	0	31632	
4193	0	31652	
4194	0	31656	
4195	0	31652	
4196	0	31664	
4197	0	31684	
4198	0	31714	
4199	0	31728	
4200	0	31696	
4201	0	31664	
4202	0	31640	
4203	0	31656	
4204	0	31688	
4205	0	31696	
4206	0	31656	
4207	0	31632	
4208	0	31624	
4209	0	31676	
4210	0	31736	
4211	0	31744	
4212	0	31666	
4213	0	31624	
4214	0	31616	
4215	0	31604	
4216	0	31588	
4217	0	31608	
4218	0	31596	
4219	0	31572	
4220	0	31556	
4221	0	31522	
4222	0	31504	
4223	0	31556	
4224	0	31608	
4225	0	31600	
4226	0	31592	
4227	0	31600	
4228	0	31624	
4229	0	31642	
4230	0	31648	
4231	0	31646	
4232	0	31640	
4233	0	31646	
4234	0	31660	
4235	0	31624	
4236	0	31556	
4237	0	31536	
4238	0	31548	
4239	0	31586	
4240	0	31592	
4241	0	31564	
4242	0	31572	
4243	0	31576	
4244	0	31580	
4245	0	31632	
4246	0	31648	
4247	0	31648	
4248	0	31660	
4249	0	31676	
4250	0	31672	
4251	0	31652	
4252	0	31652	
4253	0	31648	
4254	0	31648	
4255	0	31632	
4256	0	31640	
4257	0	31632	
4258	0	31676	
4259	0	31700	
4260	0	31692	
4261	0	31688	
4262	0	31664	
4263	0	31628	
4264	0	31596	
4265	0	31600	
4266	0	31640	
4267	0	31664	
4268	0	31656	
4269	0	31642	
4270	0	31664	
4271	0	31712	
4272	0	31796	
4273	0	31864	
4274	0	31914	
4275	0	31928	
4276	0	31912	
4277	0	31968	
4278	0	31994	
4279	0	32016	
4280	0	32000	
4281	0	32032	
4282	0	32088	
4283	0	32152	
4284	0	32228	
4285	0	32304	
4286	0	32372	
4287	0	32452	
4288	0	32464	
4289	0	32460	
4290	0	32456	
4291	0	32464	
4292	0	32480	
4293	0	32490	
4294	0	32484	
4295	0	32488	
4296	0	32488	
4297	0	32536	
4298	0	32568	
4299	0	32530	
4300	0	32512	
4301	0	32512	
4302	0	32508	
4303	0	32512	
4304	0	32592	
4305	0	32696	
4306	0	32788	
4307	0	32912	
4308	0	33072	
4309	0	33216	
4310	0	33360	
4311	0	33528	
4312	0	33696	
4313	0	33818	
4314	0	33908	
4315	0	33996	
4316	0	34112	
4317	0	34168	
4318	0	34196	
4319	0	34240	
4320	0	34268	
4321	0	34332	
4322	0	34420	
4323	0	34496	
4324	0	34528	
4325	0	34460	
4326	0	34320	
4327	0	34204	
4328	0	34116	
4329	0	34004	
4330	0	33892	
4331	0	33732	
4332	0	33556	
4333	0	33376	
4334	0	33292	
4335	0	33256	
4336	0	33232	
4337	0	33168	
4338	0	33090	
4339	0	33042	
4340	0	33036	
4341	0	32976	
4342	0	32900	
4343	0	32856	
4344	0	32828	
4345	0	32784	
4346	0	32784	
4347	0	32764	
4348	0	32788	
4349	0	32808	
4350	0	32832	
4351	0	32832	
4352	0	32796	
4353	0	32784	
4354	0	32768	
4355	0	32680	
4356	0	32600	
4357	0	32532	
4358	0	32460	
4359	0	32424	
4360	0	32404	
4361	0	32324	
4362	0	32192	
4363	0	32088	
4364	0	32044	
4365	0	32036	
4366	0	32004	
4367	0	31968	
4368	0	31948	
4369	0	31944	
4370	0	31936	
4371	0	31950	
4372	0	31964	
4373	0	32004	
4374	0	32032	
4375	0	32026	
4376	0	32024	
4377	0	32012	
4378	0	31992	
4379	0	31996	
4380	0	32008	
4381	0	32024	
4382	0	32024	
4383	0	32004	
4384	0	31980	
4385	0	31972	
4386	0	31952	
4387	0	31904	
4388	0	31864	
4389	0	31928	
4390	0	31976	
4391	0	31948	
4392	0	31916	
4393	0	31920	
4394	0	31912	
4395	0	31888	
4396	0	31892	
4397	0	31904	
4398	0	31928	
4399	0	31972	
4400	0	31992	
4401	0	32010	
4402	0	32008	
4403	0	32032	
4404	0	31980	
4405	0	31972	
4406	0	32064	
4407	0	32150	
4408	0	32176	
4409	0	32120	
4410	0	32072	
4411	0	32080	
4412	0	32064	
4413	0	32058	
4414	0	32076	
4415	0	32085	
4416	0	32064	
4417	0	32052	
4418	0	32068	
4419	0	32076	
4420	0	32084	
4421	0	32076	
4422	0	32138	
4423	0	32212	
4424	0	32240	
4425	0	32244	
4426	0	32252	
4427	0	32276	
4428	0	32304	
4429	0	32304	
4430	0	32296	
4431	0	32344	
4432	0	32368	
4433	0	32357	
4434	0	32328	
4435	0	32336	
4436	0	32344	
4437	0	32320	
4438	0	32360	
4439	0	32436	
4440	0	32480	
4441	0	32480	
4442	0	32480	
4443	0	32492	
4444	0	32508	
4445	0	32532	
4446	0	32468	
4447	0	32356	
4448	0	32200	
4449	0	32064	
4450	0	31924	
4451	0	31880	
4452	0	31972	
4453	0	32244	
4454	0	32544	
4455	0	32924	
4456	0	33232	
4457	0	33488	
4458	0	33708	
4459	0	33852	
4460	0	34076	
4461	0	34372	
4462	0	34820	
4463	0	35464	
4464	0	36232	
4465	0	37172	
4466	0	38244	
4467	0	39520	
4468	0	40980	
4469	0	42528	
4470	0	44052	
4471	0	45636	
4472	0	47328	
4473	0	49040	
4474	0	50620	
4475	0	52032	
4476	0	53220	
4477	0	54264	
4478	0	55312	
4479	0	56500	
4480	0	57576	
4481	0	58344	
4482	0	58368	
4483	0	57308	
4484	0	54988	
4485	0	51808	
4486	0	48084	
4487	0	44128	
4488	0	40336	
4489	0	36950	
4490	0	34256	
4491	0	32448	
4492	0	31380	
4493	0	30708	
4494	0	30252	
4495	0	29920	
4496	0	29768	
4497	0	29792	
4498	0	29820	
4499	0	29864	
4500	0	29928	
4501	0	30036	
4502	0	30154	
4503	0	30240	
4504	0	30268	
4505	0	30336	
4506	0	30488	
4507	0	30680	
4508	0	30880	
4509	0	31044	
4510	0	31168	
4511	0	31256	
4512	0	31288	
4513	0	31324	
4514	0	31336	
4515	0	31324	
4516	0	31328	
4517	0	31262	
4518	0	31192	
4519	0	31156	
4520	0	31136	
4521	0	31124	
4522	0	31084	
4523	0	31068	
4524	0	31044	
4525	0	31044	
4526	0	31036	
4527	0	31032	
4528	0	30996	
4529	0	30956	
4530	0	30928	
4531	0	30930	
4532	0	30924	
4533	0	30888	
4534	0	30880	
4535	0	30918	
4536	0	30944	
4537	0	30976	
4538	0	30976	
4539	0	30996	
4540	0	31012	
4541	0	31048	
4542	0	31072	
4543	0	31136	
4544	0	31184	
4545	0	31232	
4546	0	31268	
4547	0	31280	
4548	0	31288	
4549	0	31256	
4550	0	31256	
4551	0	31316	
4552	0	31400	
4553	0	31450	
4554	0	31468	
4555	0	31496	
4556	0	31552	
4557	0	31604	
4558	0	31620	
4559	0	31656	
4560	0	31712	
4561	0	31732	
4562	0	31772	
4563	0	31856	
4564	0	31896	
4565	0	31914	
4566	0	31936	
4567	0	31928	
4568	0	31916	
4569	0	31914	
4570	0	31916	
4571	0	31924	
4572	0	31916	
4573	0	31936	
4574	0	31968	
4575	0	32000	
4576	0	32058	
4577	0	32116	
4578	0	32108	
4579	0	32156	
4580	0	32212	
4581	0	32216	
4582	0	32254	
4583	0	32252	
4584	0	32240	
4585	0	32252	
4586	0	32248	
4587	0	32280	
4588	0	32320	
4589	0	32372	
4590	0	32432	
4591	0	32480	
4592	0	32512	
4593	0	32480	
4594	0	32428	
4595	0	32416	
4596	0	32396	
4597	0	32384	
4598	0	32420	
4599	0	32492	
4600	0	32584	
4601	0	32654	
4602	0	32644	
4603	0	32656	
4604	0	32740	
4605	0	32800	
4606	0	32840	
4607	0	32886	
4608	0	32960	
4609	0	33002	
4610	0	33008	
4611	0	32992	
4612	0	33008	
4613	0	33056	
4614	0	33080	
4615	0	33080	
4616	0	33050	
4617	0	33036	
4618	0	33028	
4619	0	33004	
4620	0	33004	
4621	0	33072	
4622	0	33116	
4623	0	33180	
4624	0	33272	
4625	0	33288	
4626	0	33268	
4627	0	33268	
4628	0	33304	
4629	0	33352	
4630	0	33368	
4631	0	33376	
4632	0	33392	
4633	0	33400	
4634	0	33364	
4635	0	33376	
4636	0	33396	
4637	0	33404	
4638	0	33456	
4639	0	33528	
4640	0	33532	
4641	0	33524	
4642	0	33532	
4643	0	33544	
4644	0	33500	
4645	0	33502	
4646	0	33512	
4647	0	33516	
4648	0	33492	
4649	0	33560	
4650	0	33690	
4651	0	33736	
4652	0	33728	
4653	0	33682	
4654	0	33588	
4655	0	33588	
4656	0	33616	
4657	0	33644	
4658	0	33692	
4659	0	33720	
4660	0	33720	
4661	0	33724	
4662	0	33720	
4663	0	33740	
4664	0	33768	
4665	0	33780	
4666	0	33798	
4667	0	33820	
4668	0	33832	
4669	0	33824	
4670	0	33852	
4671	0	33868	
4672	0	33860	
4673	0	33834	
4674	0	33848	
4675	0	33890	
4676	0	33968	
4677	0	33992	
4678	0	33954	
4679	0	33948	
4680	0	33944	
4681	0	33932	
4682	0	33876	
4683	0	33888	
4684	0	33940	
4685	0	33980	
4686	0	34016	
4687	0	34028	
4688	0	34054	
4689	0	34116	
4690	0	34192	
4691	0	34274	
4692	0	34328	
4693	0	34290	
4694	0	34248	
4695	0	34244	
4696	0	34208	
4697	0	34180	
4698	0	34160	
4699	0	34172	
4700	0	34224	
4701	0	34280	
4702	0	34268	
4703	0	34256	
4704	0	34224	
4705	0	34224	
4706	0	34228	
4707	0	34236	
4708	0	34280	
4709	0	34308	
4710	0	34312	
4711	0	34304	
4712	0	34308	
4713	0	34352	
4714	0	34368	
4715	0	34328	
4716	0	34280	
4717	0	34256	
4718	0	34260	
4719	0	34248	
4720	0	34240	
4721	0	34264	
4722	0	34320	
4723	0	34360	
4724	0	34360	
4725	0	34372	
4726	0	34362	
4727	0	34316	
4728	0	34324	
4729	0	34336	
4730	0	34352	
4731	0	34396	
4732	0	34448	
4733	0	34480	
4734	0	34464	
4735	0	34444	
4736	0	34500	
4737	0	34612	
4738	0	34644	
4739	0	34652	
4740	0	34636	
4741	0	34624	
4742	0	34580	
4743	0	34568	
4744	0	34600	
4745	0	34652	
4746	0	34664	
4747	0	34584	
4748	0	34448	
4749	0	34312	
4750	0	34244	
4751	0	34160	
4752	0	34090	
4753	0	34000	
4754	0	33896	
4755	0	33784	
4756	0	33676	
4757	0	33588	
4758	0	33496	
4759	0	33408	
4760	0	33300	
4761	0	33152	
4762	0	33012	
4763	0	32868	
4764	0	32704	
4765	0	32576	
4766	0	32468	
4767	0	32344	
4768	0	32228	
4769	0	32120	
4770	0	32072	
4771	0	32092	
4772	0	32116	
4773	0	32096	
4774	0	32008	
4775	0	31920	
4776	0	31790	
4777	0	31610	
4778	0	31540	
4779	0	31520	
4780	0	31480	
4781	0	31428	
4782	0	31344	
4783	0	31280	
4784	0	31228	
4785	0	31188	
4786	0	31150	
4787	0	31112	
4788	0	31068	
4789	0	31020	
4790	0	30964	
4791	0	30924	
4792	0	30896	
4793	0	30856	
4794	0	30840	
4795	0	30780	
4796	0	30738	
4797	0	30716	
4798	0	30700	
4799	0	30656	
4800	0	30612	
4801	0	30604	
4802	0	30564	
4803	0	30496	
4804	0	30472	
4805	0	30476	
4806	0	30500	
4807	0	30484	
4808	0	30468	
4809	0	30460	
4810	0	30488	
4811	0	30492	
4812	0	30458	
4813	0	30392	
4814	0	30378	
4815	0	30364	
4816	0	30384	
4817	0	30400	
4818	0	30424	
4819	0	30396	
4820	0	30400	
4821	0	30480	
4822	0	30568	
4823	0	30624	
4824	0	30682	
4825	0	30720	
4826	0	30712	
4827	0	30692	
4828	0	30704	
4829	0	30732	
4830	0	30732	
4831	0	30674	
4832	0	30672	
4833	0	30696	
4834	0	30752	
4835	0	30768	
4836	0	30792	
4837	0	30820	
4838	0	30820	
4839	0	30816	
4840	0	30816	
4841	0	30824	
4842	0	30776	
4843	0	30804	
4844	0	30840	
4845	0	30880	
4846	0	30884	
4847	0	30920	
4848	0	30964	
4849	0	30996	
4850	0	31040	
4851	0	31100	
4852	0	31128	
4853	0	31178	
4854	0	31240	
4855	0	31248	
4856	0	31240	
4857	0	31264	
4858	0	31252	
4859	0	31220	
4860	0	31184	
4861	0	31192	
4862	0	31216	
4863	0	31232	
4864	0	31244	
4865	0	31236	
4866	0	31232	
4867	0	31216	
4868	0	31196	
4869	0	31200	
4870	0	31208	
4871	0	31224	
4872	0	31268	
4873	0	31290	
4874	0	31310	
4875	0	31340	
4876	0	31364	
4877	0	31396	
4878	0	31416	
4879	0	31452	
4880	0	31480	
4881	0	31464	
4882	0	31428	
4883	0	31384	
4884	0	31352	
4885	0	31348	
4886	0	31372	
4887	0	31376	
4888	0	31384	
4889	0	31362	
4890	0	31332	
4891	0	31346	
4892	0	31364	
4893	0	31394	
4894	0	31420	
4895	0	31456	
4896	0	31520	
4897	0	31564	
4898	0	31560	
4899	0	31536	
4900	0	31502	
4901	0	31520	
4902	0	31514	
4903	0	31518	
4904	0	31540	
4905	0	31572	
4906	0	31572	
4907	0	31544	
4908	0	31490	
4909	0	31468	
4910	0	31480	
4911	0	31514	
4912	0	31548	
4913	0	31544	
4914	0	31520	
4915	0	31500	
4916	0	31504	
4917	0	31540	
4918	0	31552	
4919	0	31528	
4920	0	31508	
4921	0	31496	
4922	0	31482	
4923	0	31488	
4924	0	31456	
4925	0	31456	
4926	0	31448	
4927	0	31446	
4928	0	31440	
4929	0	31490	
4930	0	31520	
4931	0	31500	
4932	0	31476	
4933	0	31480	
4934	0	31502	
4935	0	31564	
4936	0	31588	
4937	0	31568	
4938	0	31568	
4939	0	31528	
4940	0	31496	
4941	0	31516	
4942	0	31508	
4943	0	31476	
4944	0	31448	
4945	0	31440	
4946	0	31484	
4947	0	31528	
4948	0	31560	
4949	0	31592	
4950	0	31636	
4951	0	31640	
4952	0	31624	
4953	0	31640	
4954	0	31668	
4955	0	31692	
4956	0	31668	
4957	0	31648	
4958	0	31640	
4959	0	31640	
4960	0	31680	
4961	0	31680	
4962	0	31680	
4963	0	31660	
4964	0	31648	
4965	0	31672	
4966	0	31680	
4967	0	31680	
4968	0	31668	
4969	0	31636	
4970	0	31648	
4971	0	31648	
4972	0	31628	
4973	0	31624	
4974	0	31650	
4975	0	31724	
4976	0	31808	
4977	0	31852	
4978	0	31856	
4979	0	31848	
4980	0	31876	
4981	0	31892	
4982	0	31924	
4983	0	31952	
4984	0	31952	
4985	0	31948	
4986	0	31964	
4987	0	31936	
4988	0	31912	
4989	0	31936	
4990	0	31984	
4991	0	32008	
4992	0	32040	
4993	0	32064	
4994	0	32100	
4995	0	32104	
4996	0	32116	
4997	0	32084	
4998	0	32096	
4999	0	32112	
5000	0	32112	
5001	0	32120	
5002	0	32148	
5003	0	32176	
5004	0	32216	
5005	0	32272	
5006	0	32332	
5007	0	32376	
5008	0	32428	
5009	0	32464	
5010	0	32524	
5011	0	32584	
5012	0	32644	
5013	0	32666	
5014	0	32624	
5015	0	32520	
5016	0	32472	
5017	0	32468	
5018	0	32488	
5019	0	32512	
5020	0	32464	
5021	0	32408	
5022	0	32412	
5023	0	32468	
5024	0	32512	
5025	0	32544	
5026	0	32548	
5027	0	32556	
5028	0	32584	
5029	0	32580	
5030	0	32624	
5031	0	32720	
5032	0	32836	
5033	0	32980	
5034	0	33060	
5035	0	33164	
5036	0	33292	
5037	0	33426	
5038	0	33520	
5039	0	33604	
5040	0	33744	
5041	0	33880	
5042	0	33964	
5043	0	34012	
5044	0	34020	
5045	0	34054	
5046	0	34056	
5047	0	34048	
5048	0	34056	
5049	0	34040	
5050	0	34040	
5051	0	34036	
5052	0	34004	
5053	0	33946	
5054	0	33888	
5055	0	33788	
5056	0	33656	
5057	0	33496	
5058	0	33336	
5059	0	33220	
5060	0	33164	
5061	0	33120	
5062	0	33064	
5063	0	33028	
5064	0	32992	
5065	0	32964	
5066	0	32928	
5067	0	32888	
5068	0	32880	
5069	0	32872	
5070	0	32872	
5071	0	32864	
5072	0	32848	
5073	0	32784	
5074	0	32796	
5075	0	32866	
5076	0	32912	
5077	0	32936	
5078	0	32972	
5079	0	32936	
5080	0	32868	
5081	0	32748	
5082	0	32620	
5083	0	32520	
5084	0	32448	
5085	0	32380	
5086	0	32304	
5087	0	32204	
5088	0	32108	
5089	0	31996	
5090	0	31944	
5091	0	31904	
5092	0	31868	
5093	0	31832	
5094	0	31840	
5095	0	31820	
5096	0	31820	
5097	0	31808	
5098	0	31824	
5099	0	31840	
5100	0	31868	
5101	0	31840	
5102	0	31784	
5103	0	31764	
5104	0	31772	
5105	0	31764	
5106	0	31776	
5107	0	31772	
5108	0	31790	
5109	0	31876	
5110	0	31912	
5111	0	31892	
5112	0	31872	
5113	0	31872	
5114	0	31900	
5115	0	31924	
5116	0	31908	
5117	0	31928	
5118	0	31976	
5119	0	31986	
5120	0	32032	
5121	0	32104	
5122	0	32080	
5123	0	32024	
5124	0	32008	
5125	0	32012	
5126	0	32020	
5127	0	32048	
5128	0	32120	
5129	0	32168	
5130	0	32164	
5131	0	32108	
5132	0	32068	
5133	0	32092	
5134	0	32144	
5135	0	32228	
5136	0	32304	
5137	0	32308	
5138	0	32314	
5139	0	32352	
5140	0	32368	
5141	0	32432	
5142	0	32432	
5143	0	32404	
5144	0	32432	
5145	0	32456	
5146	0	32448	
5147	0	32420	
5148	0	32384	
5149	0	32392	
5150	0	32372	
5151	0	32364	
5152	0	32368	
5153	0	32352	
5154	0	32340	
5155	0	32336	
5156	0	32356	
5157	0	32364	
5158	0	32388	
5159	0	32420	
5160	0	32468	
5161	0	32508	
5162	0	32564	
5163	0	32592	
5164	0	32632	
5165	0	32672	
5166	0	32724	
5167	0	32792	
5168	0	32868	
5169	0	32944	
5170	0	32988	
5171	0	32928	
5172	0	32836	
5173	0	32688	
5174	0	32520	
5175	0	32356	
5176	0	32230	
5177	0	32220	
5178	0	32368	
5179	0	32586	
5180	0	32864	
5181	0	33244	
5182	0	33620	
5183	0	33900	
5184	0	34084	
5185	0	34272	
5186	0	34504	
5187	0	34820	
5188	0	35392	
5189	0	36148	
5190	0	37008	
5191	0	38008	
5192	0	39144	
5193	0	40488	
5194	0	41880	
5195	0	43360	
5196	0	44900	
5197	0	46552	
5198	0	48224	
5199	0	49848	
5200	0	51320	
5201	0	52592	
5202	0	53644	
5203	0	54592	
5204	0	55704	
5205	0	56944	
5206	0	57984	
5207	0	58492	
5208	0	58084	
5209	0	56416	
5210	0	53752	
5211	0	50368	
5212	0	46544	
5213	0	42668	
5214	0	39136	
5215	0	36096	
5216	0	33860	
5217	0	32392	
5218	0	31524	
5219	0	31016	
5220	0	30592	
5221	0	30348	
5222	0	30212	
5223	0	30184	
5224	0	30224	
5225	0	30276	
5226	0	30320	
5227	0	30388	
5228	0	30500	
5229	0	30636	
5230	0	30732	
5231	0	30836	
5232	0	30980	
5233	0	31192	
5234	0	31356	
5235	0	31512	
5236	0	31676	
5237	0	31812	
5238	0	31868	
5239	0	31900	
5240	0	31924	
5241	0	31920	
5242	0	31904	
5243	0	31916	
5244	0	31948	
5245	0	31936	
5246	0	31916	
5247	0	31832	
5248	0	31720	
5249	0	31700	
5250	0	31668	
5251	0	31576	
5252	0	31484	
5253	0	31476	
5254	0	31466	
5255	0	31424	
5256	0	31392	
5257	0	31388	
5258	0	31424	
5259	0	31436	
5260	0	31450	
5261	0	31520	
5262	0	31508	
5263	0	31432	
5264	0	31370	
5265	0	31356	
5266	0	31312	
5267	0	31244	
5268	0	31216	
5269	0	31212	
5270	0	31232	
5271	0	31290	
5272	0	31364	
5273	0	31370	
5274	0	31340	
5275	0	31378	
5276	0	31466	
5277	0	31586	
5278	0	31672	
5279	0	31720	
5280	0	31692	
5281	0	31676	
5282	0	31680	
5283	0	31684	
5284	0	31648	
5285	0	31692	
5286	0	31848	
5287	0	31986	
5288	0	32048	
5289	0	32128	
5290	0	32248	
5291	0	32368	
5292	0	32424	
5293	0	32424	
5294	0	32496	
5295	0	32586	
5296	0	32660	
5297	0	32716	
5298	0	32800	
5299	0	32840	
5300	0	32764	
5301	0	32536	
5302	0	32324	
5303	0	32288	
5304	0	32312	
5305	0	32308	
5306	0	32340	
5307	0	32368	
5308	0	32348	
5309	0	32324	
5310	0	32384	
5311	0	32392	
5312	0	32392	
5313	0	32392	
5314	0	32472	
5315	0	32616	
5316	0	32716	
5317	0	32736	
5318	0	32732	
5319	0	32692	
5320	0	32674	
5321	0	32688	
5322	0	32704	
5323	0	32708	
5324	0	32692	
5325	0	32682	
5326	0	32724	
5327	0	32744	
5328	0	32712	
5329	0	32668	
5330	0	32664	
5331	0	32776	
5332	0	32880	
5333	0	32920	
5334	0	32968	
5335	0	33060	
5336	0	33168	
5337	0	33272	
5338	0	33352	
5339	0	33356	
5340	0	33288	
5341	0	33232	
5342	0	33236	
5343	0	33212	
5344	0	33160	
5345	0	33096	
5346	0	33088	
5347	0	33120	
5348	0	33216	
5349	0	33316	
5350	0	33348	
5351	0	33292	
5352	0	33324	
5353	0	33432	
5354	0	33588	
5355	0	33688	
5356	0	33784	
5357	0	33916	
5358	0	33888	
5359	0	33832	
5360	0	33760	
5361	0	33728	
5362	0	33732	
5363	0	33732	
5364	0	33680	
5365	0	33604	
5366	0	33548	
5367	0	33488	
5368	0	33392	
5369	0	33328	
5370	0	33340	
5371	0	33406	
5372	0	33424	
5373	0	33410	
5374	0	33424	
5375	0	33480	
5376	0	33536	
5377	0	33528	
5378	0	33440	
5379	0	33364	
5380	0	33312	
5381	0	33376	
5382	0	33468	
5383	0	33520	
5384	0	33540	
5385	0	33664	
5386	0	33856	
5387	0	33972	
5388	0	34052	
5389	0	34088	
5390	0	34120	
5391	0	34104	
5392	0	34092	
5393	0	34080	
5394	0	33996	
5395	0	33960	
5396	0	33916	
5397	0	33976	
5398	0	34004	
5399	0	33948	
5400	0	33836	
5401	0	33760	
5402	0	33688	
5403	0	33676	
5404	0	33596	
5405	0	33480	
5406	0	33568	
5407	0	33676	
5408	0	33728	
5409	0	33804	
5410	0	33916	
5411	0	33928	
5412	0	33916	
5413	0	33964	
5414	0	33920	
5415	0	33864	
5416	0	33880	
5417	0	33960	
5418	0	33908	
5419	0	33910	
5420	0	34052	
5421	0	34180	
5422	0	34240	
5423	0	34260	
5424	0	34276	
5425	0	34264	
5426	0	34264	
5427	0	34144	
5428	0	33976	
5429	0	33792	
5430	0	33732	
5431	0	33700	
5432	0	33636	
5433	0	33672	
5434	0	33756	
5435	0	33824	
5436	0	33792	
5437	0	33700	
5438	0	33616	
5439	0	33620	
5440	0	33658	
5441	0	33754	
5442	0	33784	
5443	0	33720	
5444	0	33652	
5445	0	33652	
5446	0	33716	
5447	0	33752	
5448	0	33776	
5449	0	33720	
5450	0	33760	
5451	0	33788	
5452	0	33876	
5453	0	33992	
5454	0	34080	
5455	0	34136	
5456	0	34140	
5457	0	34084	
5458	0	34136	
5459	0	34232	
5460	0	34208	
5461	0	34138	
5462	0	34064	
5463	0	34072	
5464	0	34032	
5465	0	34000	
5466	0	34012	
5467	0	33940	
5468	0	33890	
5469	0	33856	
5470	0	33792	
5471	0	33664	
5472	0	33524	
5473	0	33444	
5474	0	33368	
5475	0	33344	
5476	0	33312	
5477	0	33372	
5478	0	33436	
5479	0	33376	
5480	0	33216	
5481	0	33028	
5482	0	32884	
5483	0	32720	
5484	0	32556	
5485	0	32404	
5486	0	32288	
5487	0	32234	
5488	0	32200	
5489	0	32156	
5490	0	32160	
5491	0	32096	
5492	0	32036	
5493	0	31936	
5494	0	31816	
5495	0	31744	
5496	0	31648	
5497	0	31500	
5498	0	31348	
5499	0	31240	
5500	0	31212	
5501	0	31108	
5502	0	30952	
5503	0	30868	
5504	0	30796	
5505	0	30736	
5506	0	30672	
5507	0	30588	
5508	0	30504	
5509	0	30404	
5510	0	30340	
5511	0	30288	
5512	0	30248	
5513	0	30168	
5514	0	30088	
5515	0	30022	
5516	0	30004	
5517	0	29996	
5518	0	30000	
5519	0	30008	
5520	0	29984	
5521	0	29956	
5522	0	29936	
5523	0	30000	
5524	0	30052	
5525	0	30080	
5526	0	30080	
5527	0	30072	
5528	0	30056	
5529	0	30040	
5530	0	30032	
5531	0	30028	
5532	0	29968	
5533	0	29912	
5534	0	29932	
5535	0	29940	
5536	0	29968	
5537	0	29984	
5538	0	29960	
5539	0	29984	
5540	0	29992	
5541	0	29992	
5542	0	29980	
5543	0	29998	
5544	0	29992	
5545	0	30016	
5546	0	30064	
5547	0	30112	
5548	0	30136	
5549	0	30216	
5550	0	30264	
5551	0	30232	
5552	0	30248	
5553	0	30332	
5554	0	30372	
5555	0	30416	
5556	0	30472	
5557	0	30516	
5558	0	30592	
5559	0	30632	
5560	0	30680	
5561	0	30696	
5562	0	30676	
5563	0	30688	
5564	0	30724	
5565	0	30760	
5566	0	30804	
5567	0	30852	
5568	0	30884	
5569	0	30896	
5570	0	30920	
5571	0	30988	
5572	0	31056	
5573	0	31076	
5574	0	31088	
5575	0	31100	
5576	0	31132	
5577	0	31120	
5578	0	31140	
5579	0	31176	
5580	0	31160	
5581	0	31104	
5582	0	31060	
5583	0	31052	
5584	0	31056	
5585	0	31072	
5586	0	31108	
5587	0	31148	
5588	0	31176	
5589	0	31182	
5590	0	31184	
5591	0	31160	
5592	0	31168	
5593	0	31224	
5594	0	31296	
5595	0	31336	
5596	0	31360	
5597	0	31376	
5598	0	31384	
5599	0	31320	
5600	0	31280	
5601	0	31256	
5602	0	31240	
5603	0	31260	
5604	0	31276	
5605	0	31248	
5606	0	31204	
5607	0	31216	
5608	0	31266	
5609	0	31284	
5610	0	31308	
5611	0	31352	
5612	0	31372	
5613	0	31372	
5614	0	31396	
5615	0	31424	
5616	0	31392	
5617	0	31352	
5618	0	31412	
5619	0	31444	
5620	0	31464	
5621	0	31504	
5622	0	31560	
5623	0	31600	
5624	0	31624	
5625	0	31600	
5626	0	31562	
5627	0	31504	
5628	0	31484	
5629	0	31504	
5630	0	31556	
5631	0	31564	
5632	0	31564	
5633	0	31594	
5634	0	31608	
5635	0	31608	
5636	0	31620	
5637	0	31648	
5638	0	31712	
5639	0	31660	
5640	0	31572	
5641	0	31552	
5642	0	31548	
5643	0	31588	
5644	0	31680	
5645	0	31772	
5646	0	31866	
5647	0	31944	
5648	0	31966	
5649	0	31986	
5650	0	32008	
5651	0	31964	
5652	0	31932	
5653	0	31932	
5654	0	31840	
5655	0	31712	
5656	0	31616	
5657	0	31584	
5658	0	31612	
5659	0	31640	
5660	0	31640	
5661	0	31616	
5662	0	31640	
5663	0	31680	
5664	0	31672	
5665	0	31644	
5666	0	31640	
5667	0	31656	
5668	0	31636	
5669	0	31656	
5670	0	31680	
5671	0	31716	
5672	0	31784	
5673	0	31822	
5674	0	31840	
5675	0	31864	
5676	0	31876	
5677	0	31892	
5678	0	31896	
5679	0	31908	
5680	0	31888	
5681	0	31808	
5682	0	31760	
5683	0	31780	
5684	0	31840	
5685	0	31876	
5686	0	31832	
5687	0	31752	
5688	0	31696	
5689	0	31660	
5690	0	31700	
5691	0	31720	
5692	0	31664	
5693	0	31648	
5694	0	31668	
5695	0	31728	
5696	0	31848	
5697	0	32004	
5698	0	32160	
5699	0	32264	
5700	0	32280	
5701	0	32280	
5702	0	32324	
5703	0	32356	
5704	0	32388	
5705	0	32372	
5706	0	32348	
5707	0	32348	
5708	0	32344	
5709	0	32288	
5710	0	32196	
5711	0	32112	
5712	0	32052	
5713	0	31992	
5714	0	31980	
5715	0	31988	
5716	0	32036	
5717	0	32088	
5718	0	32172	
5719	0	32280	
5720	0	32412	
5721	0	32564	
5722	0	32768	
5723	0	32968	
5724	0	33164	
5725	0	33372	
5726	0	33528	
5727	0	33665	
5728	0	33840	
5729	0	34040	
5730	0	34172	
5731	0	34328	
5732	0	34368	
5733	0	34350	
5734	0	34292	
5735	0	34236	
5736	0	34196	
5737	0	34108	
5738	0	34008	
5739	0	33888	
5740	0	33760	
5741	0	33620	
5742	0	33504	
5743	0	33376	
5744	0	33236	
5745	0	33128	
5746	0	33056	
5747	0	33012	
5748	0	32984	
5749	0	32952	
5750	0	32888	
5751	0	32824	
5752	0	32772	
5753	0	32792	
5754	0	32832	
5755	0	32820	
5756	0	32776	
5757	0	32714	
5758	0	32720	
5759	0	32732	
5760	0	32776	
5761	0	32848	
5762	0	32924	
5763	0	32960	
5764	0	32976	
5765	0	32978	
5766	0	32940	
5767	0	32844	
5768	0	32740	
5769	0	32612	
5770	0	32532	
5771	0	32484	
5772	0	32364	
5773	0	32188	
5774	0	32028	
5775	0	31952	
5776	0	31906	
5777	0	31892	
5778	0	31864	
5779	0	31840	
5780	0	31772	
5781	0	31712	
5782	0	31704	
5783	0	31732	
5784	0	31822	
5785	0	31876	
5786	0	31944	
5787	0	31988	
5788	0	32040	
5789	0	32080	
5790	0	32084	
5791	0	32048	
5792	0	32000	
5793	0	32000	
5794	0	31960	
5795	0	31940	
5796	0	31912	
5797	0	31960	
5798	0	32032	
5799	0	32072	
5800	0	32084	
5801	0	32128	
5802	0	32132	
5803	0	32140	
5804	0	32146	
5805	0	32144	
5806	0	32096	
5807	0	32028	
5808	0	32008	
5809	0	31984	
5810	0	31980	
5811	0	32000	
5812	0	32056	
5813	0	32116	
5814	0	32104	
5815	0	32080	
5816	0	32044	
5817	0	31980	
5818	0	31888	
5819	0	31832	
5820	0	31856	
5821	0	31920	
5822	0	32000	
5823	0	32116	
5824	0	32218	
5825	0	32288	
5826	0	32372	
5827	0	32416	
5828	0	32448	
5829	0	32456	
5830	0	32440	
5831	0	32344	
5832	0	32276	
5833	0	32240	
5834	0	32216	
5835	0	32180	
5836	0	32152	
5837	0	32160	
5838	0	32164	
5839	0	32148	
5840	0	32064	
5841	0	32040	
5842	0	31992	
5843	0	31896	
5844	0	31808	
5845	0	31836	
5846	0	31904	
5847	0	31936	
5848	0	31972	
5849	0	32028	
5850	0	32060	
5851	0	32120	
5852	0	32172	
5853	0	32212	
5854	0	32280	
5855	0	32272	
5856	0	32218	
5857	0	32136	
5858	0	32008	
5859	0	31820	
5860	0	31648	
5861	0	31568	
5862	0	31664	
5863	0	31912	
5864	0	32232	
5865	0	32564	
5866	0	32944	
5867	0	33352	
5868	0	33704	
5869	0	33908	
5870	0	34040	
5871	0	34260	
5872	0	34644	
5873	0	35244	
5874	0	36064	
5875	0	37024	
5876	0	38156	
5877	0	39440	
5878	0	40932	
5879	0	42564	
5880	0	44224	
5881	0	45964	
5882	0	47708	
5883	0	49484	
5884	0	51368	
5885	0	53188	
5886	0	54788	
5887	0	56096	
5888	0	57304	
5889	0	58528	
5890	0	59744	
5891	0	60700	
5892	0	61160	
5893	0	60744	
5894	0	59216	
5895	0	56592	
5896	0	53072	
5897	0	48956	
5898	0	44560	
5899	0	40420	
5900	0	36792	
5901	0	33922	
5902	0	31860	
5903	0	30460	
5904	0	29464	
5905	0	28772	
5906	0	28344	
5907	0	28100	
5908	0	28064	
5909	0	28232	
5910	0	28488	
5911	0	28756	
5912	0	29024	
5913	0	29292	
5914	0	29520	
5915	0	29700	
5916	0	29880	
5917	0	30124	
5918	0	30408	
5919	0	30616	
5920	0	30796	
5921	0	30914	
5922	0	30970	
5923	0	31024	
5924	0	31076	
5925	0	31108	
5926	0	31056	
5927	0	31004	
5928	0	30968	
5929	0	30960	
5930	0	30972	
5931	0	30906	
5932	0	30856	
5933	0	30892	
5934	0	30906	
5935	0	30944	
5936	0	30936	
5937	0	30892	
5938	0	30924	
5939	0	30972	
5940	0	31028	
5941	0	31044	
5942	0	31036	
5943	0	31064	
5944	0	31080	
5945	0	31088	
5946	0	31100	
5947	0	31126	
5948	0	31108	
5949	0	31082	
5950	0	31096	
5951	0	31064	
5952	0	31052	
5953	0	31072	
5954	0	31156	
5955	0	31220	
5956	0	31242	
5957	0	31224	
5958	0	31232	
5959	0	31240	
5960	0	31224	
5961	0	31240	
5962	0	31276	
5963	0	31336	
5964	0	31368	
5965	0	31400	
5966	0	31440	
5967	0	31460	
5968	0	31536	
5969	0	31580	
5970	0	31624	
5971	0	31612	
5972	0	31552	
5973	0	31560	
5974	0	31560	
5975	0	31584	
5976	0	31674	
5977	0	31720	
5978	0	31776	
5979	0	31840	
5980	0	31856	
5981	0	31840	
5982	0	31840	
5983	0	31852	
5984	0	31816	
5985	0	31820	
5986	0	31836	
5987	0	31868	
5988	0	31908	
5989	0	31936	
5990	0	31960	
5991	0	31976	
5992	0	31976	
5993	0	31984	
5994	0	31992	
5995	0	31984	
5996	0	32012	
5997	0	32046	
5998	0	32080	
5999	0	32100	
6000	0	32136	
6001	0	32184	
6002	0	32216	
6003	0	32280	
6004	0	32316	
6005	0	32308	
6006	0	32296	
6007	0	32352	
6008	0	32432	
6009	0	32530	
6010	0	32648	
6011	0	32680	
6012	0	32672	
6013	0	32682	
6014	0	32664	
6015	0	32668	
6016	0	32708	
6017	0	32728	
6018	0	32738	
6019	0	32768	
6020	0	32808	
6021	0	32852	
6022	0	32832	
6023	0	32786	
6024	0	32728	
6025	0	32684	
6026	0	32664	
6027	0	32704	
6028	0	32756	
6029	0	32792	
6030	0	32808	
6031	0	32824	
6032	0	32852	
6033	0	32904	
6034	0	32924	
6035	0	32920	
6036	0	32960	
6037	0	32992	
6038	0	33012	
6039	0	33076	
6040	0	33116	
6041	0	33120	
6042	0	33144	
6043	0	33184	
6044	0	33184	
6045	0	33200	
6046	0	33196	
6047	0	33178	
6048	0	33200	
6049	0	33284	
6050	0	33340	
6051	0	33408	
6052	0	33436	
6053	0	33402	
6054	0	33416	
6055	0	33416	
6056	0	33412	
6057	0	33440	
6058	0	33464	
6059	0	33544	
6060	0	33600	
6061	0	33584	
6062	0	33544	
6063	0	33520	
6064	0	33568	
6065	0	33616	
6066	0	33632	
6067	0	33652	
6068	0	33712	
6069	0	33772	
6070	0	33812	
6071	0	33844	
6072	0	33820	
6073	0	33804	
6074	0	33768	
6075	0	33764	
6076	0	33752	
6077	0	33752	
6078	0	33764	
6079	0	33810	
6080	0	33840	
6081	0	33844	
6082	0	33840	
6083	0	33866	
6084	0	33920	
6085	0	33996	
6086	0	34036	
6087	0	34064	
6088	0	34104	
6089	0	34112	
6090	0	34122	
6091	0	34160	
6092	0	34196	
6093	0	34168	
6094	0	34142	
6095	0	34112	
6096	0	34106	
6097	0	34092	
6098	0	34104	
6099	0	34116	
6100	0	34168	
6101	0	34268	
6102	0	34368	
6103	0	34412	
6104	0	34444	
6105	0	34444	
6106	0	34452	
6107	0	34488	
6108	0	34556	
6109	0	34616	
6110	0	34648	
6111	0	34672	
6112	0	34656	
6113	0	34644	
6114	0	34616	
6115	0	34636	
6116	0	34692	
6117	0	34698	
6118	0	34684	
6119	0	34652	
6120	0	34620	
6121	0	34592	
6122	0	34570	
6123	0	34540	
6124	0	34504	
6125	0	34508	
6126	0	34528	
6127	0	34552	
6128	0	34548	
6129	0	34528	
6130	0	34520	
6131	0	34508	
6132	0	34456	
6133	0	34400	
6134	0	34352	
6135	0	34364	
6136	0	34408	
6137	0	34458	
6138	0	34516	
6139	0	34528	
6140	0	34548	
6141	0	34576	
6142	0	34604	
6143	0	34708	
6144	0	34744	
6145	0	34700	
6146	0	34672	
6147	0	34684	
6148	0	34680	
6149	0	34694	
6150	0	34640	
6151	0	34564	
6152	0	34520	
6153	0	34438	
6154	0	34356	
6155	0	34252	
6156	0	34156	
6157	0	34044	
6158	0	33912	
6159	0	33844	
6160	0	33738	
6161	0	33632	
6162	0	33552	
6163	0	33514	
6164	0	33504	
6165	0	33460	
6166	0	33416	
6167	0	33356	
6168	0	33270	
6169	0	33168	
6170	0	33056	
6171	0	32916	
6172	0	32788	
6173	0	32676	
6174	0	32608	
6175	0	32504	
6176	0	32384	
6177	0	32228	
6178	0	32036	
6179	0	31840	
6180	0	31736	
6181	0	31648	
6182	0	31584	
6183	0	31424	
6184	0	31268	
6185	0	31192	
6186	0	31156	
6187	0	31088	
6188	0	30966	
6189	0	30880	
6190	0	30824	
6191	0	30776	
6192	0	30712	
6193	0	30610	
6194	0	30568	
6195	0	30564	
6196	0	30572	
6197	0	30554	
6198	0	30528	
6199	0	30496	
6200	0	30472	
6201	0	30448	
6202	0	30432	
6203	0	30456	
6204	0	30480	
6205	0	30464	
6206	0	30424	
6207	0	30408	
6208	0	30388	
6209	0	30344	
6210	0	30308	
6211	0	30280	
6212	0	30268	
6213	0	30268	
6214	0	30276	
6215	0	30256	
6216	0	30252	
6217	0	30258	
6218	0	30226	
6219	0	30220	
6220	0	30228	
6221	0	30200	
6222	0	30200	
6223	0	30194	
6224	0	30152	
6225	0	30072	
6226	0	30032	
6227	0	30072	
6228	0	30140	
6229	0	30196	
6230	0	30180	
6231	0	30200	
6232	0	30244	
6233	0	30284	
6234	0	30340	
6235	0	30396	
6236	0	30450	
6237	0	30516	
6238	0	30592	
6239	0	30648	
6240	0	30656	
6241	0	30652	
6242	0	30620	
6243	0	30588	
6244	0	30608	
6245	0	30656	
6246	0	30668	
6247	0	30708	
6248	0	30764	
6249	0	30788	
6250	0	30784	
6251	0	30800	
6252	0	30808	
6253	0	30796	
6254	0	30872	
6255	0	30940	
6256	0	30944	
6257	0	30924	
6258	0	30956	
6259	0	30980	
6260	0	30984	
6261	0	30980	
6262	0	30988	
6263	0	30964	
6264	0	30928	
6265	0	30928	
6266	0	30944	
6267	0	30996	
6268	0	31080	
6269	0	31164	
6270	0	31160	
6271	0	31108	
6272	0	31092	
6273	0	31088	
6274	0	31092	
6275	0	31092	
6276	0	31092	
6277	0	31136	
6278	0	31192	
6279	0	31168	
6280	0	31060	
6281	0	31016	
6282	0	31032	
6283	0	31088	
6284	0	31144	
6285	0	31136	
6286	0	31108	
6287	0	31084	
6288	0	31044	
6289	0	31040	
6290	0	31072	
6291	0	31116	
6292	0	31172	
6293	0	31196	
6294	0	31216	
6295	0	31250	
6296	0	31232	
6297	0	31184	
6298	0	31156	
6299	0	31088	
6300	0	31052	
6301	0	31024	
6302	0	31010	
6303	0	31008	
6304	0	30992	
6305	0	30984	
6306	0	30960	
6307	0	30956	
6308	0	31000	
6309	0	31052	
6310	0	31088	
6311	0	31136	
6312	0	31184	
6313	0	31252	
6314	0	31336	
6315	0	31404	
6316	0	31424	
6317	0	31456	
6318	0	31426	
6319	0	31486	
6320	0	31544	
6321	0	31552	
6322	0	31540	
6323	0	31488	
6324	0	31440	
6325	0	31384	
6326	0	31328	
6327	0	31332	
6328	0	31332	
6329	0	31292	
6330	0	31256	
6331	0	31320	
6332	0	31328	
6333	0	31304	
6334	0	31264	
6335	0	31240	
6336	0	31252	
6337	0	31312	
6338	0	31322	
6339	0	31336	
6340	0	31288	
6341	0	31244	
6342	0	31248	
6343	0	31304	
6344	0	31390	
6345	0	31416	
6346	0	31404	
6347	0	31432	
6348	0	31480	
6349	0	31480	
6350	0	31464	
6351	0	31440	
6352	0	31392	
6353	0	31364	
6354	0	31388	
6355	0	31412	
6356	0	31456	
6357	0	31496	
6358	0	31520	
6359	0	31536	
6360	0	31556	
6361	0	31604	
6362	0	31636	
6363	0	31692	
6364	0	31724	
6365	0	31808	
6366	0	31916	
6367	0	31976	
6368	0	32032	
6369	0	32016	
6370	0	31992	
6371	0	31972	
6372	0	31968	
6373	0	31968	
6374	0	31928	
6375	0	31900	
6376	0	31856	
6377	0	31808	
6378	0	31736	
6379	0	31708	
6380	0	31680	
6381	0	31668	
6382	0	31660	
6383	0	31664	
6384	0	31720	
6385	0	31828	
6386	0	31976	
6387	0	32152	
6388	0	32314	
6389	0	32440	
6390	0	32540	
6391	0	32624	
6392	0	32700	
6393	0	32808	
6394	0	32944	
6395	0	33076	
6396	0	33146	
6397	0	33184	
6398	0	33232	
6399	0	33312	
6400	0	33408	
6401	0	33496	
6402	0	33548	
6403	0	33532	
6404	0	33576	
6405	0	33672	
6406	0	33704	
6407	0	33632	
6408	0	33528	
6409	0	33464	
6410	0	33408	
6411	0	33292	
6412	0	33140	
6413	0	32972	
6414	0	32800	
6415	0	32682	
6416	0	32624	
6417	0	32610	
6418	0	32612	
6419	0	32584	
6420	0	32564	
6421	0	32538	
6422	0	32448	
6423	0	32336	
6424	0	32224	
6425	0	32104	
6426	0	32000	
6427	0	31920	
6428	0	31860	
6429	0	31816	
6430	0	31836	
6431	0	31848	
6432	0	31844	
6433	0	31888	
6434	0	31936	
6435	0	31996	
6436	0	32096	
6437	0	32112	
6438	0	32016	
6439	0	31964	
6440	0	31928	
6441	0	31856	
6442	0	31788	
6443	0	31668	
6444	0	31568	
6445	0	31512	
6446	0	31500	
6447	0	31508	
6448	0	31520	
6449	0	31500	
6450	0	31500	
6451	0	31488	
6452	0	31512	
6453	0	31520	
6454	0	31490	
6455	0	31512	
6456	0	31540	
6457	0	31560	
6458	0	31532	
6459	0	31464	
6460	0	31420	
6461	0	31364	
6462	0	31312	
6463	0	31274	
6464	0	31250	
6465	0	31204	
6466	0	31228	
6467	0	31260	
6468	0	31248	
6469	0	31258	
6470	0	31276	
6471	0	31312	
6472	0	31372	
6473	0	31432	
6474	0	31452	
6475	0	31444	
6476	0	31452	
6477	0	31476	
6478	0	31508	
6479	0	31528	
6480	0	31568	
6481	0	31588	
6482	0	31560	
6483	0	31544	
6484	0	31552	
6485	0	31584	
6486	0	31608	
6487	0	31580	
6488	0	31520	
6489	0	31492	
6490	0	31484	
6491	0	31564	
6492	0	31672	
6493	0	31700	
6494	0	31664	
6495	0	31652	
6496	0	31648	
6497	0	31696	
6498	0	31732	
6499	0	31780	
6500	0	31836	
6501	0	31872	
6502	0	31876	
6503	0	31808	
6504	0	31736	
6505	0	31744	
6506	0	31812	
6507	0	31876	
6508	0	31916	
6509	0	31948	
6510	0	31956	
6511	0	31984	
6512	0	32024	
6513	0	32016	
6514	0	31996	
6515	0	31984	
6516	0	31992	
6517	0	32004	
6518	0	32048	
6519	0	32096	
6520	0	32180	
6521	0	32280	
6522	0	32320	
6523	0	32296	
6524	0	32312	
6525	0	32336	
6526	0	32336	
6527	0	32288	
6528	0	32152	
6529	0	31984	
6530	0	31876	
6531	0	31884	
6532	0	31988	
6533	0	32248	
6534	0	32548	
6535	0	32888	
6536	0	33344	
6537	0	33812	
6538	0	34236	
6539	0	34552	
6540	0	34760	
6541	0	34984	
6542	0	35368	
6543	0	35968	
6544	0	36788	
6545	0	37744	
6546	0	38880	
6547	0	40208	
6548	0	41756	
6549	0	43352	
6550	0	45032	
6551	0	46744	
6552	0	48528	
6553	0	50330	
6554	0	52088	
6555	0	53716	
6556	0	55148	
6557	0	56344	
6558	0	57496	
6559	0	58864	
6560	0	60104	
6561	0	61032	
6562	0	61312	
6563	0	60584	
6564	0	58556	
6565	0	55484	
6566	0	51644	
6567	0	47428	
6568	0	43168	
6569	0	39360	
6570	0	36248	
6571	0	33952	
6572	0	32328	
6573	0	31202	
6574	0	30476	
6575	0	29961	
6576	0	29676	
6577	0	29562	
6578	0	29484	
6579	0	29476	
6580	0	29508	
6581	0	29648	
6582	0	29860	
6583	0	30064	
6584	0	30232	
6585	0	30400	
6586	0	30528	
6587	0	30618	
6588	0	30752	
6589	0	30936	
6590	0	31052	
6591	0	31100	
6592	0	31160	
6593	0	31184	
6594	0	31168	
6595	0	31144	
6596	0	31160	
6597	0	31144	
6598	0	31104	
6599	0	31100	
6600	0	31068	
6601	0	31040	
6602	0	30972	
6603	0	30964	
6604	0	30964	
6605	0	30932	
6606	0	30852	
6607	0	30760	
6608	0	30756	
6609	0	30800	
6610	0	30800	
6611	0	30820	
6612	0	30888	
6613	0	30944	
6614	0	30940	
6615	0	30880	
6616	0	30880	
6617	0	30886	
6618	0	30844	
6619	0	30816	
6620	0	30836	
6621	0	30844	
6622	0	30860	
6623	0	30864	
6624	0	30852	
6625	0	30844	
6626	0	30836	
6627	0	30860	
6628	0	30920	
6629	0	30992	
6630	0	31008	
6631	0	31020	
6632	0	31112	
6633	0	31200	
6634	0	31188	
6635	0	31156	
6636	0	31176	
6637	0	31232	
6638	0	31298	
6639	0	31372	
6640	0	31424	
6641	0	31480	
6642	0	31544	
6643	0	31604	
6644	0	31720	
6645	0	31816	
6646	0	31848	
6647	0	31808	
6648	0	31818	
6649	0	31800	
6650	0	31768	
6651	0	31768	
6652	0	31792	
6653	0	31808	
6654	0	31792	
6655	0	31816	
6656	0	31872	
6657	0	31900	
6658	0	31978	
6659	0	32036	
6660	0	32064	
6661	0	32128	
6662	0	32172	
6663	0	32148	
6664	0	32088	
6665	0	32060	
6666	0	32000	
6667	0	32008	
6668	0	32020	
6669	0	31992	
6670	0	31946	
6671	0	31968	
6672	0	32076	
6673	0	32156	
6674	0	32180	
6675	0	32208	
6676	0	32190	
6677	0	32192	
6678	0	32232	
6679	0	32300	
6680	0	32356	
6681	0	32396	
6682	0	32420	
6683	0	32392	
6684	0	32376	
6685	0	32404	
6686	0	32464	
6687	0	32508	
6688	0	32480	
6689	0	32474	
6690	0	32472	
6691	0	32480	
6692	0	32532	
6693	0	32584	
6694	0	32644	
6695	0	32724	
6696	0	32796	
6697	0	32820	
6698	0	32846	
6699	0	32836	
6700	0	32848	
6701	0	32872	
6702	0	32860	
6703	0	32840	
6704	0	32900	
6705	0	32980	
6706	0	33052	
6707	0	33072	
6708	0	33080	
6709	0	33088	
6710	0	33128	
6711	0	33196	
6712	0	33204	
6713	0	33192	
6714	0	33184	
6715	0	33172	
6716	0	33192	
6717	0	33160	
6718	0	33126	
6719	0	33152	
6720	0	33264	
6721	0	33308	
6722	0	33376	
6723	0	33386	
6724	0	33376	
6725	0	33360	
6726	0	33400	
6727	0	33416	
6728	0	33422	
6729	0	33424	
6730	0	33408	
6731	0	33400	
6732	0	33412	
6733	0	33394	
6734	0	33412	
6735	0	33472	
6736	0	33502	
6737	0	33512	
6738	0	33552	
6739	0	33626	
6740	0	33648	
6741	0	33636	
6742	0	33602	
6743	0	33664	
6744	0	33720	
6745	0	33760	
6746	0	33776	
6747	0	33824	
6748	0	33840	
6749	0	33856	
6750	0	33912	
6751	0	33944	
6752	0	33936	
6753	0	33876	
6754	0	33888	
6755	0	33996	
6756	0	34064	
6757	0	34088	
6758	0	34080	
6759	0	34148	
6760	0	34204	
6761	0	34228	
6762	0	34248	
6763	0	34284	
6764	0	34304	
6765	0	34284	
6766	0	34288	
6767	0	34306	
6768	0	34384	
6769	0	34448	
6770	0	34476	
6771	0	34532	
6772	0	34580	
6773	0	34596	
6774	0	34568	
6775	0	34536	
6776	0	34506	
6777	0	34532	
6778	0	34570	
6779	0	34568	
6780	0	34572	
6781	0	34596	
6782	0	34616	
6783	0	34608	
6784	0	34592	
6785	0	34628	
6786	0	34648	
6787	0	34660	
6788	0	34628	
6789	0	34644	
6790	0	34676	
6791	0	34692	
6792	0	34656	
6793	0	34664	
6794	0	34706	
6795	0	34720	
6796	0	34704	
6797	0	34692	
6798	0	34700	
6799	0	34688	
6800	0	34722	
6801	0	34752	
6802	0	34768	
6803	0	34780	
6804	0	34784	
6805	0	34784	
6806	0	34778	
6807	0	34800	
6808	0	34776	
6809	0	34748	
6810	0	34760	
6811	0	34820	
6812	0	34876	
6813	0	34864	
6814	0	34848	
6815	0	34836	
6816	0	34804	
6817	0	34780	
6818	0	34752	
6819	0	34748	
6820	0	34732	
6821	0	34684	
6822	0	34624	
6823	0	34548	
6824	0	34468	
6825	0	34400	
6826	0	34302	
6827	0	34184	
6828	0	34160	
6829	0	34184	
6830	0	34132	
6831	0	34056	
6832	0	33980	
6833	0	33880	
6834	0	33754	
6835	0	33584	
6836	0	33404	
6837	0	33268	
6838	0	33188	
6839	0	33096	
6840	0	32960	
6841	0	32820	
6842	0	32748	
6843	0	32632	
6844	0	32516	
6845	0	32444	
6846	0	32352	
6847	0	32240	
6848	0	32112	
6849	0	32020	
6850	0	31904	
6851	0	31792	
6852	0	31680	
6853	0	31612	
6854	0	31548	
6855	0	31424	
6856	0	31288	
6857	0	31208	
6858	0	31152	
6859	0	31044	
6860	0	30952	
6861	0	30840	
6862	0	30748	
6863	0	30752	
6864	0	30788	
6865	0	30816	
6866	0	30788	
6867	0	30696	
6868	0	30612	
6869	0	30564	
6870	0	30544	
6871	0	30572	
6872	0	30560	
6873	0	30512	
6874	0	30440	
6875	0	30424	
6876	0	30432	
6877	0	30414	
6878	0	30388	
6879	0	30312	
6880	0	30268	
6881	0	30260	
6882	0	30248	
6883	0	30232	
6884	0	30228	
6885	0	30204	
6886	0	30152	
6887	0	30124	
6888	0	30088	
6889	0	30080	
6890	0	30096	
6891	0	30136	
6892	0	30160	
6893	0	30196	
6894	0	30244	
6895	0	30228	
6896	0	30266	
6897	0	30324	
6898	0	30344	
6899	0	30348	
6900	0	30340	
6901	0	30328	
6902	0	30376	
6903	0	30460	
6904	0	30516	
6905	0	30528	
6906	0	30496	
6907	0	30468	
6908	0	30440	
6909	0	30400	
6910	0	30344	
6911	0	30344	
6912	0	30376	
6913	0	30416	
6914	0	30452	
6915	0	30496	
6916	0	30564	
6917	0	30632	
6918	0	30716	
6919	0	30800	
6920	0	30840	
6921	0	30868	
6922	0	30920	
6923	0	30980	
6924	0	31040	
6925	0	31034	
6926	0	31076	
6927	0	31042	
6928	0	30952	
6929	0	30848	
6930	0	30808	
6931	0	30836	
6932	0	30908	
6933	0	31012	
6934	0	31072	
6935	0	31128	
6936	0	31212	
6937	0	31240	
6938	0	31240	
6939	0	31230	
6940	0	31292	
6941	0	31357	
6942	0	31442	
6943	0	31512	
6944	0	31544	
6945	0	31532	
6946	0	31562	
6947	0	31612	
6948	0	31680	
6949	0	31704	
6950	0	31696	
6951	0	31680	
6952	0	31704	
6953	0	31700	
6954	0	31676	
6955	0	31656	
6956	0	31640	
6957	0	31588	
6958	0	31616	
6959	0	31624	
6960	0	31652	
6961	0	31664	
6962	0	31680	
6963	0	31696	
6964	0	31684	
6965	0	31648	
6966	0	31660	
6967	0	31668	
6968	0	31624	
6969	0	31584	
6970	0	31576	
6971	0	31572	
6972	0	31564	
6973	0	31572	
6974	0	31572	
6975	0	31584	
6976	0	31616	
6977	0	31632	
6978	0	31648	
6979	0	31646	
6980	0	31604	
6981	0	31552	
6982	0	31524	
6983	0	31484	
6984	0	31400	
6985	0	31308	
6986	0	31320	
6987	0	31384	
6988	0	31424	
6989	0	31412	
6990	0	31404	
6991	0	31458	
6992	0	31532	
6993	0	31580	
6994	0	31570	
6995	0	31570	
6996	0	31568	
6997	0	31574	
6998	0	31584	
6999	0	31596	
7000	0	31596	
7001	0	31592	
7002	0	31600	
7003	0	31600	
7004	0	31592	
7005	0	31588	
7006	0	31632	
7007	0	31640	
7008	0	31656	
7009	0	31664	
7010	0	31684	
7011	0	31648	
7012	0	31652	
7013	0	31696	
7014	0	31736	
7015	0	31740	
7016	0	31728	
7017	0	31672	
7018	0	31608	
7019	0	31556	
7020	0	31548	
7021	0	31564	
7022	0	31548	
7023	0	31544	
7024	0	31532	
7025	0	31494	
7026	0	31448	
7027	0	31496	
7028	0	31572	
7029	0	31588	
7030	0	31568	
7031	0	31582	
7032	0	31648	
7033	0	31692	
7034	0	31764	
7035	0	31840	
7036	0	31908	
7037	0	31968	
7038	0	31984	
7039	0	31980	
7040	0	32014	
7041	0	32032	
7042	0	32052	
7043	0	32064	
7044	0	32084	
7045	0	32108	
7046	0	32112	
7047	0	32132	
7048	0	32120	
7049	0	32064	
7050	0	32036	
7051	0	32052	
7052	0	32108	
7053	0	32156	
7054	0	32220	
7055	0	32344	
7056	0	32476	
7057	0	32664	
7058	0	32824	
7059	0	32976	
7060	0	33104	
7061	0	33220	
7062	0	33292	
7063	0	33320	
7064	0	33396	
7065	0	33440	
7066	0	33460	
7067	0	33498	
7068	0	33568	
7069	0	33608	
7070	0	33636	
7071	0	33672	
7072	0	33696	
7073	0	33754	
7074	0	33799	
7075	0	33684	
7076	0	33548	
7077	0	33448	
7078	0	33344	
7079	0	33226	
7080	0	33104	
7081	0	32980	
7082	0	32888	
7083	0	32812	
7084	0	32740	
7085	0	32728	
7086	0	32684	
7087	0	32618	
7088	0	32568	
7089	0	32540	
7090	0	32576	
7091	0	32552	
7092	0	32520	
7093	0	32472	
7094	0	32428	
7095	0	32424	
7096	0	32452	
7097	0	32472	
7098	0	32480	
7099	0	32568	
7100	0	32648	
7101	0	32664	
7102	0	32642	
7103	0	32640	
7104	0	32608	
7105	0	32572	
7106	0	32504	
7107	0	32380	
7108	0	32272	
7109	0	32216	
7110	0	32192	
7111	0	32128	
7112	0	32044	
7113	0	31992	
7114	0	31948	
7115	0	31860	
7116	0	31772	
7117	0	31728	
7118	0	31740	
7119	0	31744	
7120	0	31746	
7121	0	31748	
7122	0	31776	
7123	0	31832	
7124	0	31804	
7125	0	31764	
7126	0	31768	
7127	0	31784	
7128	0	31788	
7129	0	31744	
7130	0	31728	
7131	0	31744	
7132	0	31762	
7133	0	31760	
7134	0	31772	
7135	0	31772	
7136	0	31794	
7137	0	31864	
7138	0	31864	
7139	0	31872	
7140	0	31876	
7141	0	31900	
7142	0	31912	
7143	0	31908	
7144	0	31888	
7145	0	31884	
7146	0	31936	
7147	0	31944	
7148	0	31944	
7149	0	31952	
7150	0	32024	
7151	0	32108	
7152	0	32164	
7153	0	32184	
7154	0	32176	
7155	0	32148	
7156	0	32152	
7157	0	32132	
7158	0	32108	
7159	0	32084	
7160	0	32088	
7161	0	32120	
7162	0	32200	
7163	0	32244	
7164	0	32296	
7165	0	32352	
7166	0	32396	
7167	0	32408	
7168	0	32418	
7169	0	32416	
7170	0	32424	
7171	0	32456	
7172	0	32456	
7173	0	32414	
7174	0	32344	
7175	0	32288	
7176	0	32244	
7177	0	32240	
7178	0	32284	
7179	0	32314	
7180	0	32320	
7181	0	32288	
7182	0	32280	
7183	0	32372	
7184	0	32480	
7185	0	32576	
7186	0	32688	
7187	0	32796	
7188	0	32900	
7189	0	32912	
7190	0	32954	
7191	0	32984	
7192	0	32984	
7193	0	32964	
7194	0	32942	
7195	0	32848	
7196	0	32692	
7197	0	32504	
7198	0	32348	
7199	0	32272	
7200	0	32384	
7201	0	32620	
7202	0	32868	
7203	0	33172	
7204	0	33580	
7205	0	34000	
7206	0	34346	
7207	0	34588	
7208	0	34752	
7209	0	35040	
7210	0	35488	
7211	0	36208	
7212	0	37068	
7213	0	38056	
7214	0	39236	
7215	0	40656	
7216	0	42284	
7217	0	43940	
7218	0	45620	
7219	0	47360	
7220	0	49148	
7221	0	50872	
7222	0	52576	
7223	0	54120	
7224	0	55436	
7225	0	56560	
7226	0	57748	
7227	0	59128	
7228	0	60320	
7229	0	61144	
7230	0	61312	
7231	0	60200	
7232	0	57804	
7233	0	54448	
7234	0	50448	
7235	0	46156	
7236	0	42040	
7237	0	38488	
7238	0	35720	
7239	0	33720	
7240	0	32324	
7241	0	31428	
7242	0	30784	
7243	0	30284	
7244	0	30016	
7245	0	29832	
7246	0	29724	
7247	0	29684	
7248	0	29684	
7249	0	29760	
7250	0	29874	
7251	0	30012	
7252	0	30178	
7253	0	30312	
7254	0	30492	
7255	0	30744	
7256	0	30948	
7257	0	31052	
7258	0	31128	
7259	0	31176	
7260	0	31200	
7261	0	31216	
7262	0	31184	
7263	0	31104	
7264	0	31072	
7265	0	31012	
7266	0	30938	
7267	0	30884	
7268	0	30828	
7269	0	30764	
7270	0	30730	
7271	0	30732	
7272	0	30812	
7273	0	30892	
7274	0	30932	
7275	0	30976	
7276	0	31004	
7277	0	31028	
7278	0	31004	
7279	0	30956	
7280	0	30948	
7281	0	30952	
7282	0	30948	
7283	0	30968	
7284	0	30968	
7285	0	30960	
7286	0	30978	
7287	0	31024	
7288	0	31026	
7289	0	31048	
7290	0	31032	
7291	0	31020	
7292	0	30988	
7293	0	30976	
7294	0	30976	
7295	0	30972	
7296	0	30962	
7297	0	31000	
7298	0	31036	
7299	0	31072	
7300	0	31088	
7301	0	31112	
7302	0	31133	
7303	0	31132	
7304	0	31132	
7305	0	31192	
7306	0	31236	
7307	0	31232	
7308	0	31216	
7309	0	31176	
7310	0	31160	
7311	0	31248	
7312	0	31376	
7313	0	31418	
7314	0	31476	
7315	0	31592	
7316	0	31664	
7317	0	31680	
7318	0	31728	
7319	0	31776	
7320	0	31824	
7321	0	31850	
7322	0	31828	
7323	0	31800	
7324	0	31800	
7325	0	31804	
7326	0	31788	
7327	0	31774	
7328	0	31800	
7329	0	31844	
7330	0	31904	
7331	0	31930	
7332	0	31984	
7333	0	32024	
7334	0	32004	
7335	0	31980	
7336	0	32000	
7337	0	32012	
7338	0	32048	
7339	0	32084	
7340	0	32124	
7341	0	32184	
7342	0	32252	
7343	0	32316	
7344	0	32352	
7345	0	32392	
7346	0	32420	
7347	0	32440	
7348	0	32456	
7349	0	32484	
7350	0	32508	
7351	0	32480	
7352	0	32488	
7353	0	32568	
7354	0	32628	
7355	0	32648	
7356	0	32664	
7357	0	32674	
7358	0	32736	
7359	0	32784	
7360	0	32800	
7361	0	32812	
7362	0	32808	
7363	0	32872	
7364	0	32944	
7365	0	32996	
7366	0	33036	
7367	0	33068	
7368	0	33116	
7369	0	33124	
7370	0	33108	
7371	0	33152	
7372	0	33156	
7373	0	33132	
7374	0	33144	
7375	0	33176	
7376	0	33188	
7377	0	33152	
7378	0	33140	
7379	0	33168	
7380	0	33160	
7381	0	33168	
7382	0	33162	
7383	0	33208	
7384	0	33240	
7385	0	33264	
7386	0	33300	
7387	0	33336	
7388	0	33376	
7389	0	33392	
7390	0	33428	
7391	0	33460	
7392	0	33482	
7393	0	33528	
7394	0	33528	
7395	0	33512	
7396	0	33544	
7397	0	33644	
7398	0	33704	
7399	0	33692	
7400	0	33648	
7401	0	33652	
7402	0	33644	
7403	0	33644	
7404	0	33660	
7405	0	33680	
7406	0	33798	
7407	0	33896	
7408	0	33944	
7409	0	33954	
7410	0	33976	
7411	0	33984	
7412	0	33980	
7413	0	33940	
7414	0	33944	
7415	0	33952	
7416	0	33952	
7417	0	33928	
7418	0	33880	
7419	0	33864	
7420	0	33876	
7421	0	33940	
7422	0	33980	
7423	0	33992	
7424	0	34000	
7425	0	34048	
7426	0	34084	
7427	0	34104	
7428	0	34112	
7429	0	34132	
7430	0	34152	
7431	0	34160	
7432	0	34136	
7433	0	34156	
7434	0	34196	
7435	0	34178	
7436	0	34128	
7437	0	34136	
7438	0	34164	
7439	0	34228	
7440	0	34292	
7441	0	34360	
7442	0	34400	
7443	0	34462	
7444	0	34504	
7445	0	34536	
7446	0	34536	
7447	0	34528	
7448	0	34552	
7449	0	34592	
7450	0	34624	
7451	0	34656	
7452	0	34650	
7453	0	34616	
7454	0	34624	
7455	0	34628	
7456	0	34594	
7457	0	34560	
7458	0	34544	
7459	0	34536	
7460	0	34556	
7461	0	34596	
7462	0	34596	
7463	0	34568	
7464	0	34512	
7465	0	34476	
7466	0	34440	
7467	0	34476	
7468	0	34504	
7469	0	34520	
7470	0	34528	
7471	0	34500	
7472	0	34496	
7473	0	34576	
7474	0	34624	
7475	0	34656	
7476	0	34648	
7477	0	34608	
7478	0	34604	
7479	0	34588	
7480	0	34580	
7481	0	34564	
7482	0	34600	
7483	0	34640	
7484	0	34664	
7485	0	34648	
7486	0	34612	
7487	0	34584	
7488	0	34560	
7489	0	34528	
7490	0	34440	
7491	0	34392	
7492	0	34356	
7493	0	34284	
7494	0	34152	
7495	0	33984	
7496	0	33836	
7497	0	33728	
7498	0	33640	
7499	0	33514	
7500	0	33364	
7501	0	33232	
7502	0	33128	
7503	0	33000	
7504	0	32860	
7505	0	32752	
7506	0	32584	
7507	0	32422	
7508	0	32304	
7509	0	32156	
7510	0	31984	
7511	0	31862	
7512	0	31792	
7513	0	31744	
7514	0	31700	
7515	0	31640	
7516	0	31548	
7517	0	31488	
7518	0	31440	
7519	0	31344	
7520	0	31208	
7521	0	31100	
7522	0	31036	
7523	0	30960	
7524	0	30868	
7525	0	30812	
7526	0	30722	
7527	0	30640	
7528	0	30552	
7529	0	30472	
7530	0	30408	
7531	0	30320	
7532	0	30216	
7533	0	30188	
7534	0	30160	
7535	0	30088	
7536	0	30052	
7537	0	29988	
7538	0	29920	
7539	0	29872	
7540	0	29864	
7541	0	29856	
7542	0	29848	
7543	0	29888	
7544	0	29872	
7545	0	29866	
7546	0	29874	
7547	0	29884	
7548	0	29904	
7549	0	29900	
7550	0	29904	
7551	0	29908	
7552	0	29940	
7553	0	29944	
7554	0	29924	
7555	0	29858	
7556	0	29836	
7557	0	29872	
7558	0	29952	
7559	0	30016	
7560	0	30044	
7561	0	30052	
7562	0	30054	
7563	0	30052	
7564	0	30064	
7565	0	30064	
7566	0	30042	
7567	0	30024	
7568	0	30016	
7569	0	29992	
7570	0	30024	
7571	0	30060	
7572	0	30074	
7573	0	30136	
7574	0	30160	
7575	0	30164	
7576	0	30133	
7577	0	30120	
7578	0	30100	
7579	0	30092	
7580	0	30120	
7581	0	30160	
7582	0	30240	
7583	0	30300	
7584	0	30324	
7585	0	30376	
7586	0	30448	
7587	0	30464	
7588	0	30448	
7589	0	30468	
7590	0	30492	
7591	0	30504	
7592	0	30494	
7593	0	30464	
7594	0	30464	
7595	0	30512	
7596	0	30560	
7597	0	30612	
7598	0	30672	
7599	0	30748	
7600	0	30778	
7601	0	30828	
7602	0	30892	
7603	0	30900	
7604	0	30924	
7605	0	30952	
7606	0	30976	
7607	0	30996	
7608	0	31048	
7609	0	31080	
7610	0	31108	
7611	0	31128	
7612	0	31128	
7613	0	31112	
7614	0	31076	
7615	0	31076	
7616	0	31080	
7617	0	31108	
7618	0	31152	
7619	0	31164	
7620	0	31156	
7621	0	31192	
7622	0	31258	
7623	0	31288	
7624	0	31296	
7625	0	31304	
7626	0	31284	
7627	0	31300	
7628	0	31322	
7629	0	31324	
7630	0	31296	
7631	0	31332	
7632	0	31386	
7633	0	31396	
7634	0	31336	
7635	0	31256	
7636	0	31200	
7637	0	31200	
7638	0	31236	
7639	0	31284	
7640	0	31340	
7641	0	31380	
7642	0	31394	
7643	0	31424	
7644	0	31408	
7645	0	31368	
7646	0	31360	
7647	0	31380	
7648	0	31396	
7649	0	31406	
7650	0	31404	
7651	0	31376	
7652	0	31328	
7653	0	31312	
7654	0	31312	
7655	0	31308	
7656	0	31328	
7657	0	31344	
7658	0	31372	
7659	0	31396	
7660	0	31468	
7661	0	31512	
7662	0	31518	
7663	0	31516	
7664	0	31500	
7665	0	31500	
7666	0	31492	
7667	0	31484	
7668	0	31480	
7669	0	31520	
7670	0	31550	
7671	0	31572	
7672	0	31564	
7673	0	31544	
7674	0	31552	
7675	0	31568	
7676	0	31604	
7677	0	31644	
7678	0	31676	
7679	0	31700	
7680	0	31724	
7681	0	31708	
7682	0	31648	
7683	0	31612	
7684	0	31568	
7685	0	31528	
7686	0	31508	
7687	0	31488	
7688	0	31496	
7689	0	31458	
7690	0	31472	
7691	0	31592	
7692	0	31704	
7693	0	31732	
7694	0	31804	
7695	0	31912	
7696	0	32016	
7697	0	32096	
7698	0	32140	
7699	0	32144	
7700	0	32132	
7701	0	32152	
7702	0	32140	
7703	0	32128	
7704	0	32108	
7705	0	32096	
7706	0	32028	
7707	0	31984	
7708	0	31972	
7709	0	31972	
7710	0	32048	
7711	0	32084	
7712	0	32088	
7713	0	32068	
7714	0	32070	
7715	0	32100	
7716	0	32144	
7717	0	32186	
7718	0	32272	
7719	0	32368	
7720	0	32512	
7721	0	32696	
7722	0	32844	
7723	0	32972	
7724	0	33080	
7725	0	33189	
7726	0	33310	
7727	0	33388	
7728	0	33460	
7729	0	33508	
7730	0	33544	
7731	0	33588	
7732	0	33664	
7733	0	33708	
7734	0	33768	
7735	0	33788	
7736	0	33760	
7737	0	33668	
7738	0	33560	
7739	0	33468	
7740	0	33408	
7741	0	33308	
7742	0	33186	
7743	0	33096	
7744	0	32992	
7745	0	32892	
7746	0	32816	
7747	0	32768	
7748	0	32748	
7749	0	32716	
7750	0	32692	
7751	0	32644	
7752	0	32588	
7753	0	32512	
7754	0	32488	
7755	0	32472	
7756	0	32476	
7757	0	32450	
7758	0	32452	
7759	0	32440	
7760	0	32416	
7761	0	32440	
7762	0	32508	
7763	0	32548	
7764	0	32560	
7765	0	32496	
7766	0	32468	
7767	0	32412	
7768	0	32320	
7769	0	32252	
7770	0	32128	
7771	0	31968	
7772	0	31884	
7773	0	31852	
7774	0	31812	
7775	0	31756	
7776	0	31644	
7777	0	31548	
7778	0	31536	
7779	0	31538	
7780	0	31536	
7781	0	31532	
7782	0	31504	
7783	0	31508	
7784	0	31492	
7785	0	31464	
7786	0	31404	
7787	0	31372	
7788	0	31416	
7789	0	31468	
7790	0	31488	
7791	0	31464	
7792	0	31476	
7793	0	31514	
7794	0	31496	
7795	0	31468	
7796	0	31476	
7797	0	31520	
7798	0	31505	
7799	0	31468	
7800	0	31492	
7801	0	31500	
7802	0	31560	
7803	0	31634	
7804	0	31680	
7805	0	31664	
7806	0	31636	
7807	0	31616	
7808	0	31616	
7809	0	31642	
7810	0	31652	
7811	0	31656	
7812	0	31600	
7813	0	31568	
7814	0	31512	
7815	0	31432	
7816	0	31416	
7817	0	31416	
7818	0	31424	
7819	0	31456	
7820	0	31504	
7821	0	31536	
7822	0	31548	
7823	0	31580	
7824	0	31624	
7825	0	31640	
7826	0	31612	
7827	0	31568	
7828	0	31524	
7829	0	31564	
7830	0	31604	
7831	0	31648	
7832	0	31720	
7833	0	31812	
7834	0	31868	
7835	0	31888	
7836	0	31856	
7837	0	31868	
7838	0	31936	
7839	0	31964	
7840	0	31962	
7841	0	31944	
7842	0	31948	
7843	0	31984	
7844	0	31972	
7845	0	31936	
7846	0	31960	
7847	0	32012	
7848	0	32032	
7849	0	32036	
7850	0	32040	
7851	0	32060	
7852	0	32088	
7853	0	32132	
7854	0	32200	
7855	0	32264	
7856	0	32300	
7857	0	32272	
7858	0	32216	
7859	0	32112	
7860	0	31952	
7861	0	31756	
7862	0	31552	
7863	0	31472	
7864	0	31508	
7865	0	31712	
7866	0	31944	
7867	0	32248	
7868	0	32672	
7869	0	33088	
7870	0	33416	
7871	0	33584	
7872	0	33704	
7873	0	33904	
7874	0	34252	
7875	0	34888	
7876	0	35704	
7877	0	36644	
7878	0	37764	
7879	0	39056	
7880	0	40504	
7881	0	42008	
7882	0	43536	
7883	0	45156	
7884	0	46872	
7885	0	48552	
7886	0	50128	
7887	0	51536	
7888	0	52768	
7889	0	53792	
7890	0	54944	
7891	0	56224	
7892	0	57424	
7893	0	58280	
7894	0	58492	
7895	0	57528	
7896	0	55364	
7897	0	52264	
7898	0	48568	
7899	0	44664	
7900	0	40856	
7901	0	37556	
7902	0	34936	
7903	0	33084	
7904	0	31884	
7905	0	31184	
7906	0	30700	
7907	0	30388	
7908	0	30224	
7909	0	30112	
7910	0	30028	
7911	0	29940	
7912	0	29880	
7913	0	29908	
7914	0	29984	
7915	0	30072	
7916	0	30224	
7917	0	30412	
7918	0	30612	
7919	0	30856	
7920	0	31060	
7921	0	31208	
7922	0	31300	
7923	0	31344	
7924	0	31348	
7925	0	31328	
7926	0	31288	
7927	0	31276	
7928	0	31248	
7929	0	31200	
7930	0	31164	
7931	0	31088	
7932	0	31034	
7933	0	30996	
7934	0	30948	
7935	0	30972	
7936	0	31000	
7937	0	31004	
7938	0	31004	
7939	0	30976	
7940	0	30964	
7941	0	31004	
7942	0	31080	
7943	0	31100	
7944	0	31108	
7945	0	31128	
7946	0	31168	
7947	0	31256	
7948	0	31270	
7949	0	31276	
7950	0	31352	
7951	0	31352	
7952	0	31372	
7953	0	31340	
7954	0	31320	
7955	0	31368	
7956	0	31400	
7957	0	31432	
7958	0	31488	
7959	0	31536	
7960	0	31528	
7961	0	31510	
7962	0	31564	
7963	0	31596	
7964	0	31608	
7965	0	31632	
7966	0	31648	
7967	0	31668	
7968	0	31724	
7969	0	31752	
7970	0	31784	
7971	0	31808	
7972	0	31812	
7973	0	31804	
7974	0	31764	
7975	0	31784	
7976	0	31828	
7977	0	31860	
7978	0	31890	
7979	0	31904	
7980	0	31928	
7981	0	31964	
7982	0	31984	
7983	0	32018	
7984	0	32064	
7985	0	32136	
7986	0	32216	
7987	0	32276	
7988	0	32260	
7989	0	32228	
7990	0	32244	
7991	0	32244	
7992	0	32240	
7993	0	32212	
7994	0	32184	
7995	0	32204	
7996	0	32312	
7997	0	32440	
7998	0	32458	
7999	0	32448	
8000	0	32488	
8001	0	32544	
8002	0	32576	
8003	0	32636	
8004	0	32664	
8005	0	32656	
8006	0	32616	
8007	0	32556	
8008	0	32560	
8009	0	32610	
8010	0	32648	
8011	0	32676	
8012	0	32714	
8013	0	32752	
8014	0	32744	
8015	0	32820	
8016	0	32916	
8017	0	32936	
8018	0	32922	
8019	0	32928	
8020	0	32960	
8021	0	33016	
8022	0	33104	
8023	0	33128	
8024	0	33168	
8025	0	33228	
8026	0	33256	
8027	0	33232	
8028	0	33192	
8029	0	33204	
8030	0	33238	
8031	0	33308	
8032	0	33324	
8033	0	33336	
8034	0	33362	
8035	0	33338	
8036	0	33284	
8037	0	33272	
8038	0	33256	
8039	0	33240	
8040	0	33296	
8041	0	33378	
8042	0	33392	
8043	0	33400	
8044	0	33452	
8045	0	33496	
8046	0	33498	
8047	0	33500	
8048	0	33528	
8049	0	33540	
8050	0	33544	
8051	0	33562	
8052	0	33540	
8053	0	33552	
8054	0	33616	
8055	0	33640	
8056	0	33652	
8057	0	33656	
8058	0	33664	
8059	0	33634	
8060	0	33624	
8061	0	33640	
8062	0	33656	
8063	0	33664	
8064	0	33640	
8065	0	33632	
8066	0	33680	
8067	0	33728	
8068	0	33764	
8069	0	33832	
8070	0	33896	
8071	0	33940	
8072	0	33980	
8073	0	34000	
8074	0	34012	
8075	0	34060	
8076	0	34080	
8077	0	34124	
8078	0	34136	
8079	0	34136	
8080	0	34120	
8081	0	34084	
8082	0	34096	
8083	0	34092	
8084	0	34088	
8085	0	34116	
8086	0	34138	
8087	0	34104	
8088	0	34084	
8089	0	34098	
8090	0	34128	
8091	0	34208	
8092	0	34228	
8093	0	34264	
8094	0	34316	
8095	0	34360	
8096	0	34360	
8097	0	34354	
8098	0	34354	
8099	0	34390	
8100	0	34440	
8101	0	34492	
8102	0	34536	
8103	0	34594	
8104	0	34600	
8105	0	34596	
8106	0	34576	
8107	0	34576	
8108	0	34572	
8109	0	34580	
8110	0	34528	
8111	0	34524	
8112	0	34592	
8113	0	34624	
8114	0	34612	
8115	0	34586	
8116	0	34592	
8117	0	34600	
8118	0	34636	
8119	0	34600	
8120	0	34612	
8121	0	34712	
8122	0	34728	
8123	0	34702	
8124	0	34656	
8125	0	34656	
8126	0	34668	
8127	0	34660	
8128	0	34656	
8129	0	34660	
8130	0	34648	
8131	0	34648	
8132	0	34672	
8133	0	34704	
8134	0	34744	
8135	0	34754	
8136	0	34760	
8137	0	34788	
8138	0	34788	
8139	0	34784	
8140	0	34752	
8141	0	34720	
8142	0	34688	
8143	0	34716	
8144	0	34768	
8145	0	34810	
8146	0	34788	
8147	0	34740	
8148	0	34704	
8149	0	34664	
8150	0	34618	
8151	0	34504	
8152	0	34424	
8153	0	34396	
8154	0	34328	
8155	0	34284	
8156	0	34280	
8157	0	34200	
8158	0	34064	
8159	0	33976	
8160	0	33932	
8161	0	33872	
8162	0	33764	
8163	0	33648	
8164	0	33544	
8165	0	33432	
8166	0	33250	
8167	0	33068	
8168	0	32956	
8169	0	32836	
8170	0	32744	
8171	0	32688	
8172	0	32614	
8173	0	32512	
8174	0	32408	
8175	0	32280	
8176	0	32128	
8177	0	31984	
8178	0	31896	
8179	0	31848	
8180	0	31768	
8181	0	31664	
8182	0	31564	
8183	0	31456	
8184	0	31388	
8185	0	31304	
8186	0	31216	
8187	0	31124	
8188	0	31022	
8189	0	30920	
8190	0	30852	
8191	0	30796	
8192	0	30712	
8193	0	30640	
8194	0	30560	
8195	0	30526	
8196	0	30484	
8197	0	30448	
8198	0	30440	
8199	0	30412	
8200	0	30356	
8201	0	30256	
8202	0	30164	
8203	0	30112	
8204	0	30080	
8205	0	30080	
8206	0	30016	
8207	0	29984	
8208	0	30000	
8209	0	30030	
8210	0	30052	
8211	0	30042	
8212	0	30008	
8213	0	29972	
8214	0	29952	
8215	0	29944	
8216	0	29980	
8217	0	30028	
8218	0	30036	
8219	0	29984	
8220	0	29948	
8221	0	29952	
8222	0	29984	
8223	0	30028	
8224	0	30044	
8225	0	30072	
8226	0	30048	
8227	0	30000	
8228	0	30016	
8229	0	29996	
8230	0	30024	
8231	0	30060	
8232	0	30084	
8233	0	30084	
8234	0	30090	
8235	0	30124	
8236	0	30144	
8237	0	30180	
8238	0	30228	
8239	0	30220	
8240	0	30236	
8241	0	30264	
8242	0	30272	
8243	0	30352	
8244	0	30392	
8245	0	30436	
8246	0	30520	
8247	0	30592	
8248	0	30664	
8249	0	30680	
8250	0	30664	
8251	0	30644	
8252	0	30688	
8253	0	30700	
8254	0	30688	
8255	0	30656	
8256	0	30668	
8257	0	30668	
8258	0	30680	
8259	0	30736	
8260	0	30808	
8261	0	30880	
8262	0	30936	
8263	0	30960	
8264	0	31008	
8265	0	31021	
8266	0	31050	
8267	0	31076	
8268	0	31064	
8269	0	31056	
8270	0	31088	
8271	0	31068	
8272	0	31092	
8273	0	31164	
8274	0	31220	
8275	0	31232	
8276	0	31176	
8277	0	31160	
8278	0	31148	
8279	0	31176	
8280	0	31232	
8281	0	31296	
8282	0	31328	
8283	0	31308	
8284	0	31284	
8285	0	31296	
8286	0	31264	
8287	0	31260	
8288	0	31260	
8289	0	31272	
8290	0	31272	
8291	0	31292	
8292	0	31328	
8293	0	31380	
8294	0	31424	
8295	0	31440	
8296	0	31468	
8297	0	31468	
8298	0	31456	
8299	0	31480	
8300	0	31528	
8301	0	31584	
8302	0	31584	
8303	0	31552	
8304	0	31528	
8305	0	31508	
8306	0	31516	
8307	0	31536	
8308	0	31544	
8309	0	31528	
8310	0	31560	
8311	0	31564	
8312	0	31536	
8313	0	31572	
8314	0	31604	
8315	0	31616	
8316	0	31624	
8317	0	31632	
8318	0	31624	
8319	0	31628	
8320	0	31604	
8321	0	31536	
8322	0	31468	
8323	0	31472	
8324	0	31492	
8325	0	31524	
8326	0	31560	
8327	0	31600	
8328	0	31600	
8329	0	31584	
8330	0	31582	
8331	0	31580	
8332	0	31564	
8333	0	31588	
8334	0	31616	
8335	0	31640	
8336	0	31660	
8337	0	31676	
8338	0	31684	
8339	0	31684	
8340	0	31692	
8341	0	31720	
8342	0	31740	
8343	0	31720	
8344	0	31680	
8345	0	31672	
8346	0	31644	
8347	0	31616	
8348	0	31608	
8349	0	31568	
8350	0	31552	
8351	0	31520	
8352	0	31482	
8353	0	31512	
8354	0	31540	
8355	0	31572	
8356	0	31592	
8357	0	31610	
8358	0	31612	
8359	0	31608	
8360	0	31592	
8361	0	31584	
8362	0	31636	
8363	0	31696	
8364	0	31708	
8365	0	31738	
8366	0	31764	
8367	0	31792	
8368	0	31800	
8369	0	31818	
8370	0	31840	
8371	0	31824	
8372	0	31788	
8373	0	31808	
8374	0	31840	
8375	0	31840	
8376	0	31848	
8377	0	31856	
8378	0	31840	
8379	0	31868	
8380	0	31864	
8381	0	31844	
8382	0	31874	
8383	0	31896	
8384	0	31904	
8385	0	31904	
8386	0	31912	
8387	0	31872	
8388	0	31808	
8389	0	31748	
8390	0	31800	
8391	0	31840	
8392	0	31824	
8393	0	31828	
8394	0	31904	
8395	0	31936	
8396	0	31968	
8397	0	31994	
8398	0	32064	
8399	0	32124	
8400	0	32224	
8401	0	32352	
8402	0	32408	
8403	0	32456	
8404	0	32474	
8405	0	32468	
8406	0	32452	
8407	0	32388	
8408	0	32320	
8409	0	32276	
8410	0	32308	
8411	0	32300	
8412	0	32296	
8413	0	32320	
8414	0	32324	
8415	0	32352	
8416	0	32388	
8417	0	32424	
8418	0	32464	
8419	0	32440	
8420	0	32392	
8421	0	32356	
8422	0	32378	
8423	0	32456	
8424	0	32568	
8425	0	32736	
8426	0	32848	
8427	0	32924	
8428	0	33008	
8429	0	33060	
8430	0	33146	
8431	0	33248	
8432	0	33373	
8433	0	33500	
8434	0	33608	
8435	0	33680	
8436	0	33680	
8437	0	33644	
8438	0	33668	
8439	0	33776	
8440	0	33888	
8441	0	33944	
8442	0	33932	
8443	0	33904	
8444	0	33904	
8445	0	33844	
8446	0	33764	
8447	0	33720	
8448	0	33656	
8449	0	33540	
8450	0	33388	
8451	0	33224	
8452	0	33080	
8453	0	33024	
8454	0	32952	
8455	0	32932	
8456	0	32900	
8457	0	32864	
8458	0	32812	
8459	0	32774	
8460	0	32760	
8461	0	32760	
8462	0	32772	
8463	0	32776	
8464	0	32768	
8465	0	32760	
8466	0	32748	
8467	0	32716	
8468	0	32730	
8469	0	32802	
8470	0	32858	
8471	0	32880	
8472	0	32900	
8473	0	32874	
8474	0	32784	
8475	0	32712	
8476	0	32652	
8477	0	32496	
8478	0	32348	
8479	0	32266	
8480	0	32172	
8481	0	32148	
8482	0	32144	
8483	0	32128	
8484	0	32102	
8485	0	32092	
8486	0	32040	
8487	0	31960	
8488	0	31952	
8489	0	32024	
8490	0	32064	
8491	0	32088	
8492	0	32084	
8493	0	32056	
8494	0	32032	
8495	0	32024	
8496	0	32004	
8497	0	31936	
8498	0	31840	
8499	0	31784	
8500	0	31776	
8501	0	31766	
8502	0	31792	
8503	0	31834	
8504	0	31860	
8505	0	31874	
8506	0	31880	
8507	0	31876	
8508	0	31888	
8509	0	31914	
8510	0	31946	
8511	0	31960	
8512	0	31968	
8513	0	31952	
8514	0	31920	
8515	0	31872	
8516	0	31924	
8517	0	31988	
8518	0	32032	
8519	0	32104	
8520	0	32112	
8521	0	32108	
8522	0	32116	
8523	0	32128	
8524	0	32112	
8525	0	32064	
8526	0	32052	
8527	0	32104	
8528	0	32124	
8529	0	32116	
8530	0	32076	
8531	0	32024	
8532	0	32008	
8533	0	32056	
8534	0	32096	
8535	0	32100	
8536	0	32072	
8537	0	32068	
8538	0	32074	
8539	0	32088	
8540	0	32084	
8541	0	32100	
8542	0	32128	
8543	0	32144	
8544	0	32160	
8545	0	32184	
8546	0	32160	
8547	0	32160	
8548	0	32168	
8549	0	32160	
8550	0	32112	
8551	0	32088	
8552	0	32064	
8553	0	32096	
8554	0	32156	
8555	0	32224	
8556	0	32252	
8557	0	32328	
8558	0	32408	
8559	0	32448	
8560	0	32500	
8561	0	32520	
8562	0	32500	
8563	0	32480	
8564	0	32388	
8565	0	32216	
8566	0	32008	
8567	0	31876	
8568	0	31808	
8569	0	31876	
8570	0	32088	
8571	0	32328	
8572	0	32632	
8573	0	32968	
8574	0	33305	
8575	0	33594	
8576	0	33812	
8577	0	34066	
8578	0	34384	
8579	0	34828	
8580	0	35468	
8581	0	36236	
8582	0	37120	
8583	0	38148	
8584	0	39360	
8585	0	40720	
8586	0	42128	
8587	0	43540	
8588	0	45060	
8589	0	46596	
8590	0	48136	
8591	0	49560	
