# OpenSignals Text File Format. Version 1
# {"00:07:80:4B:15:F7": {"position": 0, "device": "biosignalsplux", "device name": "00:07:80:4B:15:F7", "device connection": "BTH00:07:80:4B:15:F7", "sampling rate": 1000, "resolution": [16], "firmware version": 775, "comments": "", "keywords": "", "mode": 0, "sync interval": 2, "date": "2023-4-11", "time": "15:57:5.679", "channels": [1], "sensor": ["ECG"], "label": ["CH1"], "column": ["nSeq", "DI", "CH1"], "special": [{"SpO2": [80, 40, 5, 4, 3, 3]}, {"SpO2": [80, 40, 5, 4, 3, 3]}, {"SpO2": [80, 40, 5, 4, 3, 3]}, {"SpO2": [80, 40, 5, 4, 3, 3]}, {"SpO2": [80, 40, 5, 4, 3, 3]}, {"SpO2": [80, 40, 5, 4, 3, 3]}, {"SpO2": [80, 40, 5, 4, 3, 3]}, {"SpO2": [80, 40, 5, 4, 3, 3]}], "digital IO": [0, 1], "sleeve color": ["green"], "convertedValues": 0}}
# EndOfHeader
0	0	42368	
1	0	43200	
2	0	44112	
3	0	44932	
4	0	45792	
5	0	46880	
6	0	48040	
7	0	49304	
8	0	50508	
9	0	51636	
10	0	52860	
11	0	54012	
12	0	55208	
13	0	56452	
14	0	57724	
15	0	58812	
16	0	59420	
17	0	59708	
18	0	59816	
19	0	59852	
20	0	59820	
21	0	59748	
22	0	59336	
23	0	53960	
24	0	48608	
25	0	43202	
26	0	38154	
27	0	33836	
28	0	30304	
29	0	27328	
30	0	24864	
31	0	22940	
32	0	21680	
33	0	21064	
34	0	20824	
35	0	20855	
36	0	20984	
37	0	21060	
38	0	21084	
39	0	21090	
40	0	21076	
41	0	21056	
42	0	21012	
43	0	21180	
44	0	21354	
45	0	21442	
46	0	21766	
47	0	22220	
48	0	22520	
49	0	22646	
50	0	22646	
51	0	22736	
52	0	22840	
53	0	22862	
54	0	22992	
55	0	23224	
56	0	23300	
57	0	23176	
58	0	23086	
59	0	22928	
60	0	22656	
61	0	22312	
62	0	21940	
63	0	21586	
64	0	21360	
65	0	21176	
66	0	21058	
67	0	20968	
68	0	21024	
69	0	21372	
70	0	21528	
71	0	21392	
72	0	21092	
73	0	20716	
74	0	20154	
75	0	19336	
76	0	18232	
77	0	16952	
78	0	15576	
79	0	14248	
80	0	12952	
81	0	11499	
82	0	9920	
83	0	8260	
84	0	6648	
85	0	5596	
86	0	4865	
87	0	4064	
88	0	3165	
89	0	2108	
90	0	744	
91	0	23	
92	0	22	
93	0	22	
94	0	23	
95	0	23	
96	0	23	
97	0	23	
98	0	22	
99	0	22	
100	0	23	
101	0	24	
102	0	23	
103	0	22	
104	0	22	
105	0	23	
106	0	23	
107	0	4410	
108	0	9864	
109	0	13320	
110	0	15068	
111	0	15412	
112	0	14402	
113	0	12258	
114	0	9628	
115	0	7192	
116	0	5532	
117	0	4794	
118	0	4800	
119	0	5211	
120	0	5742	
121	0	6411	
122	0	7128	
123	0	7944	
124	0	8819	
125	0	9822	
126	0	10945	
127	0	12122	
128	0	13212	
129	0	14232	
130	0	15340	
131	0	16396	
132	0	17317	
133	0	18196	
134	0	19140	
135	0	19884	
136	0	20222	
137	0	20312	
138	0	20276	
139	0	20248	
140	0	20444	
141	0	20826	
142	0	21220	
143	0	21556	
144	0	21802	
145	0	21956	
146	0	21860	
147	0	21448	
148	0	20430	
149	0	18792	
150	0	16952	
151	0	15180	
152	0	13538	
153	0	12100	
154	0	11002	
155	0	10406	
156	0	10382	
157	0	10956	
158	0	12090	
159	0	13892	
160	0	16216	
161	0	18952	
162	0	22076	
163	0	25468	
164	0	28876	
165	0	32280	
166	0	35552	
167	0	38452	
168	0	40712	
169	0	42512	
170	0	43784	
171	0	44524	
172	0	44756	
173	0	44674	
174	0	44376	
175	0	43876	
176	0	43240	
177	0	42664	
178	0	42336	
179	0	42436	
180	0	43148	
181	0	44328	
182	0	45612	
183	0	46956	
184	0	48236	
185	0	49328	
186	0	50088	
187	0	50476	
188	0	50424	
189	0	49844	
190	0	49048	
191	0	48232	
192	0	47296	
193	0	46192	
194	0	44848	
195	0	43240	
196	0	41780	
197	0	40456	
198	0	39264	
199	0	38428	
200	0	38000	
201	0	38084	
202	0	38648	
203	0	39472	
204	0	40516	
205	0	41648	
206	0	42784	
207	0	44044	
208	0	45388	
209	0	46912	
210	0	48348	
211	0	49480	
212	0	50220	
213	0	50624	
214	0	50836	
215	0	50820	
216	0	50680	
217	0	50416	
218	0	50182	
219	0	50032	
220	0	49752	
221	0	49384	
222	0	49092	
223	0	48920	
224	0	48596	
225	0	48252	
226	0	48008	
227	0	47660	
228	0	47156	
229	0	46684	
230	0	46180	
231	0	45536	
232	0	44868	
233	0	44132	
234	0	43428	
235	0	42920	
236	0	42416	
237	0	41996	
238	0	41832	
239	0	41720	
240	0	41984	
241	0	42512	
242	0	42944	
243	0	43204	
244	0	43488	
245	0	43972	
246	0	44340	
247	0	44888	
248	0	45432	
249	0	45900	
250	0	46264	
251	0	46644	
252	0	47024	
253	0	47380	
254	0	47576	
255	0	47488	
256	0	47372	
257	0	47320	
258	0	47072	
259	0	46480	
260	0	45772	
261	0	45204	
262	0	44808	
263	0	44620	
264	0	44228	
265	0	43804	
266	0	43522	
267	0	43136	
268	0	42324	
269	0	41288	
270	0	40192	
271	0	39288	
272	0	38624	
273	0	38192	
274	0	37740	
275	0	37332	
276	0	37092	
277	0	36764	
278	0	36196	
279	0	35680	
280	0	34984	
281	0	34232	
282	0	33516	
283	0	32752	
284	0	32088	
285	0	31552	
286	0	31056	
287	0	30632	
288	0	30272	
289	0	30194	
290	0	30472	
291	0	31060	
292	0	31816	
293	0	32424	
294	0	33044	
295	0	33884	
296	0	34728	
297	0	35592	
298	0	36808	
299	0	38184	
300	0	39344	
301	0	40172	
302	0	40724	
303	0	41086	
304	0	41424	
305	0	41716	
306	0	41710	
307	0	41636	
308	0	41468	
309	0	41392	
310	0	41340	
311	0	41384	
312	0	41596	
313	0	42024	
314	0	42724	
315	0	43560	
316	0	44456	
317	0	45360	
318	0	46220	
319	0	47296	
320	0	48284	
321	0	49200	
322	0	49688	
323	0	50360	
324	0	51236	
325	0	52076	
326	0	53048	
327	0	54232	
328	0	55472	
329	0	56686	
330	0	57724	
331	0	58768	
332	0	59788	
333	0	60416	
334	0	60728	
335	0	60960	
336	0	61060	
337	0	61056	
338	0	61008	
339	0	60956	
340	0	60862	
341	0	60772	
342	0	60688	
343	0	60600	
344	0	60508	
345	0	60412	
346	0	60304	
347	0	60208	
348	0	60104	
349	0	57952	
350	0	56380	
351	0	55128	
352	0	54056	
353	0	53044	
354	0	52040	
355	0	51152	
356	0	50412	
357	0	49816	
358	0	49280	
359	0	48708	
360	0	48060	
361	0	47512	
362	0	47456	
363	0	47704	
364	0	48004	
365	0	48188	
366	0	48320	
367	0	48600	
368	0	48952	
369	0	49128	
370	0	49284	
371	0	49256	
372	0	49220	
373	0	49272	
374	0	49172	
375	0	48832	
376	0	48336	
377	0	47888	
378	0	47344	
379	0	46808	
380	0	46204	
381	0	45496	
382	0	44668	
383	0	43906	
384	0	43192	
385	0	42592	
386	0	42040	
387	0	41312	
388	0	40386	
389	0	39456	
390	0	38612	
391	0	37828	
392	0	36986	
393	0	36304	
394	0	35756	
395	0	35264	
396	0	34848	
397	0	34464	
398	0	34120	
399	0	33672	
400	0	33016	
401	0	32264	
402	0	31552	
403	0	30996	
404	0	30656	
405	0	30268	
406	0	29632	
407	0	28936	
408	0	28236	
409	0	27692	
410	0	27476	
411	0	27716	
412	0	28064	
413	0	28340	
414	0	28312	
415	0	28230	
416	0	28200	
417	0	28260	
418	0	28476	
419	0	28884	
420	0	29516	
421	0	30200	
422	0	30952	
423	0	31452	
424	0	31592	
425	0	31728	
426	0	31880	
427	0	31944	
428	0	31900	
429	0	31792	
430	0	31808	
431	0	31712	
432	0	31512	
433	0	31116	
434	0	30560	
435	0	29920	
436	0	29320	
437	0	29052	
438	0	28984	
439	0	29344	
440	0	29920	
441	0	30164	
442	0	30248	
443	0	30444	
444	0	30676	
445	0	30420	
446	0	29964	
447	0	29784	
448	0	29560	
449	0	29260	
450	0	29164	
451	0	29152	
452	0	29004	
453	0	28472	
454	0	27556	
455	0	26476	
456	0	25612	
457	0	25208	
458	0	25488	
459	0	26492	
460	0	27616	
461	0	28344	
462	0	28594	
463	0	28624	
464	0	28480	
465	0	28240	
466	0	28156	
467	0	27932	
468	0	27548	
469	0	26924	
470	0	26248	
471	0	25396	
472	0	24540	
473	0	24032	
474	0	24016	
475	0	24704	
476	0	25876	
477	0	27244	
478	0	28688	
479	0	29902	
480	0	31164	
481	0	32724	
482	0	34352	
483	0	36168	
484	0	38112	
485	0	40000	
486	0	41528	
487	0	42904	
488	0	43992	
489	0	44816	
490	0	45256	
491	0	45300	
492	0	45076	
493	0	44932	
494	0	44560	
495	0	43890	
496	0	43400	
497	0	42730	
498	0	41640	
499	0	40300	
500	0	38876	
501	0	37140	
502	0	35352	
503	0	33688	
504	0	32100	
505	0	30672	
506	0	29228	
507	0	27932	
508	0	26656	
509	0	25402	
510	0	24184	
511	0	23120	
512	0	22196	
513	0	21216	
514	0	20288	
515	0	19540	
516	0	18924	
517	0	18474	
518	0	18306	
519	0	18356	
520	0	18532	
521	0	18622	
522	0	18828	
523	0	19102	
524	0	19552	
525	0	20260	
526	0	20976	
527	0	21624	
528	0	22162	
529	0	22556	
530	0	23012	
531	0	23252	
532	0	22910	
533	0	22124	
534	0	21392	
535	0	20680	
536	0	19980	
537	0	19333	
538	0	18864	
539	0	18620	
540	0	18444	
541	0	18340	
542	0	18480	
543	0	19208	
544	0	20572	
545	0	21988	
546	0	23304	
547	0	24804	
548	0	26522	
549	0	28338	
550	0	30116	
551	0	31832	
552	0	33460	
553	0	34736	
554	0	35396	
555	0	35992	
556	0	36800	
557	0	37480	
558	0	37502	
559	0	36628	
560	0	34714	
561	0	31820	
562	0	27780	
563	0	22740	
564	0	17512	
565	0	12680	
566	0	8586	
567	0	5816	
568	0	4578	
569	0	4848	
570	0	6529	
571	0	9084	
572	0	12178	
573	0	15868	
574	0	20164	
575	0	24472	
576	0	27988	
577	0	30712	
578	0	32804	
579	0	33988	
580	0	34256	
581	0	33796	
582	0	32664	
583	0	30924	
584	0	28792	
585	0	26332	
586	0	23548	
587	0	20520	
588	0	17388	
589	0	14104	
590	0	10788	
591	0	7696	
592	0	4978	
593	0	2772	
594	0	1213	
595	0	490	
596	0	598	
597	0	1332	
598	0	2600	
599	0	4432	
600	0	6542	
601	0	8764	
602	0	10908	
603	0	12812	
604	0	14680	
605	0	16448	
606	0	18126	
607	0	19688	
608	0	20908	
609	0	21768	
610	0	22020	
611	0	21972	
612	0	21938	
613	0	21792	
614	0	21596	
615	0	21460	
616	0	21152	
617	0	20814	
618	0	20942	
619	0	21708	
620	0	23348	
621	0	25136	
622	0	26860	
623	0	28768	
624	0	30680	
625	0	32596	
626	0	34464	
627	0	36428	
628	0	38488	
629	0	40572	
630	0	42754	
631	0	44776	
632	0	46528	
633	0	48116	
634	0	49696	
635	0	51312	
636	0	52964	
637	0	54504	
638	0	55656	
639	0	56408	
640	0	56908	
641	0	57656	
642	0	58496	
643	0	59096	
644	0	59504	
645	0	59960	
646	0	60216	
647	0	59968	
648	0	59392	
649	0	58892	
650	0	59032	
651	0	59288	
652	0	59404	
653	0	59428	
654	0	59480	
655	0	59268	
656	0	58912	
657	0	58292	
658	0	57248	
659	0	55944	
660	0	54556	
661	0	53124	
662	0	51480	
663	0	49968	
664	0	48580	
665	0	46944	
666	0	45036	
667	0	43048	
668	0	41056	
669	0	39232	
670	0	37576	
671	0	36108	
672	0	34624	
673	0	32848	
674	0	30740	
675	0	28826	
676	0	27588	
677	0	26722	
678	0	25644	
679	0	24436	
680	0	23060	
681	0	21202	
682	0	19192	
683	0	17344	
684	0	15734	
685	0	14356	
686	0	13500	
687	0	12788	
688	0	12293	
689	0	12180	
690	0	12196	
691	0	12456	
692	0	12924	
693	0	13448	
694	0	14132	
695	0	14928	
696	0	15645	
697	0	16384	
698	0	17238	
699	0	18218	
700	0	18956	
701	0	19360	
702	0	19512	
703	0	19644	
704	0	19940	
705	0	19936	
706	0	19726	
707	0	19424	
708	0	19118	
709	0	18644	
710	0	18176	
711	0	17812	
712	0	17420	
713	0	17152	
714	0	16852	
715	0	16666	
716	0	16740	
717	0	17058	
718	0	17572	
719	0	18068	
720	0	18530	
721	0	19060	
722	0	19898	
723	0	20880	
724	0	21812	
725	0	22648	
726	0	23430	
727	0	23956	
728	0	24360	
729	0	25024	
730	0	26096	
731	0	27336	
732	0	28484	
733	0	29286	
734	0	29864	
735	0	30216	
736	0	30376	
737	0	30544	
738	0	30932	
739	0	31556	
740	0	32396	
741	0	33396	
742	0	34384	
743	0	35312	
744	0	35988	
745	0	36492	
746	0	36832	
747	0	37340	
748	0	37980	
749	0	38672	
750	0	39216	
751	0	39652	
752	0	39972	
753	0	40236	
754	0	40672	
755	0	41200	
756	0	41570	
757	0	41848	
758	0	42032	
759	0	42072	
760	0	42000	
761	0	41832	
762	0	41728	
763	0	41696	
764	0	41802	
765	0	42112	
766	0	42288	
767	0	41904	
768	0	41390	
769	0	41084	
770	0	40996	
771	0	40884	
772	0	40800	
773	0	40928	
774	0	41072	
775	0	41432	
776	0	41652	
777	0	41860	
778	0	42028	
779	0	41984	
780	0	41948	
781	0	41996	
782	0	41852	
783	0	41484	
784	0	41116	
785	0	40900	
786	0	40752	
787	0	40656	
788	0	40520	
789	0	40584	
790	0	40504	
791	0	40225	
792	0	39896	
793	0	39692	
794	0	39608	
795	0	39520	
796	0	39040	
797	0	38428	
798	0	38040	
799	0	37952	
800	0	38080	
801	0	38108	
802	0	37860	
803	0	37512	
804	0	37284	
805	0	37256	
806	0	37336	
807	0	37442	
808	0	37424	
809	0	37232	
810	0	36992	
811	0	36688	
812	0	36372	
813	0	36116	
814	0	35740	
815	0	35096	
816	0	34292	
817	0	33612	
818	0	33200	
819	0	33074	
820	0	33292	
821	0	33792	
822	0	34284	
823	0	34608	
824	0	34798	
825	0	34944	
826	0	34952	
827	0	34912	
828	0	34760	
829	0	34546	
830	0	34428	
831	0	34380	
832	0	34380	
833	0	34352	
834	0	34374	
835	0	34192	
836	0	33592	
837	0	33096	
838	0	32960	
839	0	33116	
840	0	33092	
841	0	32766	
842	0	32364	
843	0	31988	
844	0	31396	
845	0	30780	
846	0	30676	
847	0	31140	
848	0	31732	
849	0	32328	
850	0	32778	
851	0	33096	
852	0	33240	
853	0	33388	
854	0	33592	
855	0	34088	
856	0	34592	
857	0	34876	
858	0	35056	
859	0	35100	
860	0	35112	
861	0	35356	
862	0	35718	
863	0	36276	
864	0	36716	
865	0	37042	
866	0	37036	
867	0	36828	
868	0	36660	
869	0	36556	
870	0	36408	
871	0	36392	
872	0	36624	
873	0	37040	
874	0	37408	
875	0	37872	
876	0	38388	
877	0	39020	
878	0	39744	
879	0	40376	
880	0	41036	
881	0	41628	
882	0	41624	
883	0	41288	
884	0	41400	
885	0	41904	
886	0	42416	
887	0	42572	
888	0	42352	
889	0	42088	
890	0	42040	
891	0	42084	
892	0	42104	
893	0	41580	
894	0	40716	
895	0	39888	
896	0	39380	
897	0	39192	
898	0	39196	
899	0	39200	
900	0	39040	
901	0	38916	
902	0	38848	
903	0	38760	
904	0	38784	
905	0	38704	
906	0	38272	
907	0	37960	
908	0	37716	
909	0	37344	
910	0	36984	
911	0	36796	
912	0	36672	
913	0	36532	
914	0	36304	
915	0	35648	
916	0	35060	
917	0	34816	
918	0	35048	
919	0	35504	
920	0	35696	
921	0	35568	
922	0	35508	
923	0	35572	
924	0	35208	
925	0	34696	
926	0	34624	
927	0	35004	
928	0	35536	
929	0	35744	
930	0	35980	
931	0	36368	
932	0	36792	
933	0	37048	
934	0	36940	
935	0	36812	
936	0	36914	
937	0	37444	
938	0	38096	
939	0	38624	
940	0	38880	
941	0	38880	
942	0	38588	
943	0	37892	
944	0	36978	
945	0	36752	
946	0	37004	
947	0	37872	
948	0	38876	
949	0	39332	
950	0	39728	
951	0	39920	
952	0	39524	
953	0	38928	
954	0	38536	
955	0	38044	
956	0	37448	
957	0	36940	
958	0	36628	
959	0	36692	
960	0	36932	
961	0	37204	
962	0	37568	
963	0	38244	
964	0	38848	
965	0	39024	
966	0	38704	
967	0	37944	
968	0	36956	
969	0	35360	
970	0	33276	
971	0	31000	
972	0	28656	
973	0	26620	
974	0	24796	
975	0	22984	
976	0	21101	
977	0	19366	
978	0	17956	
979	0	16750	
980	0	15936	
981	0	15323	
982	0	14574	
983	0	13520	
984	0	12038	
985	0	10480	
986	0	8836	
987	0	6894	
988	0	4876	
989	0	3044	
990	0	1445	
991	0	128	
992	0	24	
993	0	24	
994	0	23	
995	0	24	
996	0	23	
997	0	22	
998	0	23	
999	0	23	
1000	0	24	
1001	0	23	
1002	0	22	
1003	0	584	
1004	0	1934	
1005	0	3637	
1006	0	5307	
1007	0	7220	
1008	0	9460	
1009	0	11840	
1010	0	14172	
1011	0	16458	
1012	0	18688	
1013	0	20816	
1014	0	22804	
1015	0	24572	
1016	0	26010	
1017	0	27080	
1018	0	28064	
1019	0	28960	
1020	0	29760	
1021	0	30188	
1022	0	30028	
1023	0	29332	
1024	0	28604	
1025	0	27824	
1026	0	26980	
1027	0	26356	
1028	0	25614	
1029	0	24532	
1030	0	23496	
1031	0	22608	
1032	0	21904	
1033	0	21296	
1034	0	21042	
1035	0	21056	
1036	0	21008	
1037	0	21028	
1038	0	21312	
1039	0	21828	
1040	0	22556	
1041	0	23488	
1042	0	24448	
1043	0	25356	
1044	0	26436	
1045	0	27924	
1046	0	29744	
1047	0	31604	
1048	0	33216	
1049	0	34848	
1050	0	36544	
1051	0	38176	
1052	0	39928	
1053	0	41780	
1054	0	43540	
1055	0	45248	
1056	0	46920	
1057	0	48824	
1058	0	51284	
1059	0	54424	
1060	0	57636	
1061	0	60120	
1062	0	61472	
1063	0	62212	
1064	0	62528	
1065	0	62672	
1066	0	62688	
1067	0	62656	
1068	0	62580	
1069	0	62496	
1070	0	62392	
1071	0	62300	
1072	0	62192	
1073	0	62068	
1074	0	61964	
1075	0	61864	
1076	0	61756	
1077	0	61624	
1078	0	61536	
1079	0	61408	
1080	0	61308	
1081	0	61200	
1082	0	61084	
1083	0	60992	
1084	0	60876	
1085	0	60760	
1086	0	59976	
1087	0	55584	
1088	0	52316	
1089	0	49840	
1090	0	47880	
1091	0	46368	
1092	0	45448	
1093	0	45018	
1094	0	45116	
1095	0	45632	
1096	0	46276	
1097	0	46980	
1098	0	47608	
1099	0	48032	
1100	0	48352	
1101	0	48732	
1102	0	48712	
1103	0	47912	
1104	0	46288	
1105	0	44384	
1106	0	42728	
1107	0	41344	
1108	0	39828	
1109	0	38156	
1110	0	36472	
1111	0	35068	
1112	0	33980	
1113	0	32888	
1114	0	31954	
1115	0	31136	
1116	0	30264	
1117	0	29404	
1118	0	28376	
1119	0	27280	
1120	0	26208	
1121	0	25244	
1122	0	24540	
1123	0	24452	
1124	0	24664	
1125	0	24476	
1126	0	23912	
1127	0	23400	
1128	0	22576	
1129	0	21676	
1130	0	20704	
1131	0	19868	
1132	0	18932	
1133	0	18092	
1134	0	17944	
1135	0	18050	
1136	0	18058	
1137	0	17856	
1138	0	17544	
1139	0	17108	
1140	0	16548	
1141	0	16424	
1142	0	16770	
1143	0	17376	
1144	0	17894	
1145	0	18289	
1146	0	18792	
1147	0	19468	
1148	0	20124	
1149	0	20322	
1150	0	20098	
1151	0	19708	
1152	0	19536	
1153	0	19908	
1154	0	20642	
1155	0	21940	
1156	0	24352	
1157	0	25712	
1158	0	25064	
1159	0	23420	
1160	0	21793	
1161	0	20454	
1162	0	19028	
1163	0	17208	
1164	0	15264	
1165	0	13332	
1166	0	11512	
1167	0	9864	
1168	0	9028	
1169	0	9516	
1170	0	10148	
1171	0	10582	
1172	0	10474	
1173	0	10004	
1174	0	10474	
1175	0	11582	
1176	0	13242	
1177	0	14878	
1178	0	16274	
1179	0	17502	
1180	0	18496	
1181	0	19680	
1182	0	21008	
1183	0	22028	
1184	0	22624	
1185	0	22956	
1186	0	23340	
1187	0	23788	
1188	0	24122	
1189	0	24488	
1190	0	25292	
1191	0	26164	
1192	0	27268	
1193	0	28084	
1194	0	28784	
1195	0	29568	
1196	0	30612	
1197	0	32052	
1198	0	33620	
1199	0	35010	
1200	0	36476	
1201	0	37884	
1202	0	39116	
1203	0	40236	
1204	0	41564	
1205	0	43156	
1206	0	44532	
1207	0	45740	
1208	0	46598	
1209	0	46744	
1210	0	46376	
1211	0	45928	
1212	0	45600	
1213	0	45328	
1214	0	44768	
1215	0	44144	
1216	0	43404	
1217	0	42400	
1218	0	41304	
1219	0	40588	
1220	0	39840	
1221	0	39520	
1222	0	39160	
1223	0	38990	
1224	0	38988	
1225	0	38876	
1226	0	39044	
1227	0	39236	
1228	0	38704	
1229	0	38112	
1230	0	37784	
1231	0	37722	
1232	0	37824	
1233	0	37472	
1234	0	36788	
1235	0	36376	
1236	0	36196	
1237	0	36466	
1238	0	37196	
1239	0	38152	
1240	0	39072	
1241	0	39848	
1242	0	40668	
1243	0	41516	
1244	0	42340	
1245	0	42716	
1246	0	42640	
1247	0	42456	
1248	0	42202	
1249	0	41892	
1250	0	41676	
1251	0	41324	
1252	0	40640	
1253	0	39888	
1254	0	39550	
1255	0	39376	
1256	0	39134	
1257	0	38644	
1258	0	38184	
1259	0	38056	
1260	0	38028	
1261	0	38080	
1262	0	38276	
1263	0	38576	
1264	0	38776	
1265	0	38748	
1266	0	38688	
1267	0	38624	
1268	0	38384	
1269	0	38096	
1270	0	37836	
1271	0	37492	
1272	0	37272	
1273	0	37120	
1274	0	37008	
1275	0	36916	
1276	0	36704	
1277	0	36368	
1278	0	35968	
1279	0	35632	
1280	0	35420	
1281	0	35096	
1282	0	34704	
1283	0	34340	
1284	0	33824	
1285	0	33000	
1286	0	32164	
1287	0	31464	
1288	0	31028	
1289	0	30852	
1290	0	30776	
1291	0	30904	
1292	0	31184	
1293	0	31552	
1294	0	31804	
1295	0	31604	
1296	0	30992	
1297	0	30508	
1298	0	30016	
1299	0	29472	
1300	0	28876	
1301	0	28424	
1302	0	28224	
1303	0	28248	
1304	0	28468	
1305	0	28618	
1306	0	28656	
1307	0	29144	
1308	0	30000	
1309	0	30672	
1310	0	30852	
1311	0	30364	
1312	0	29560	
1313	0	28928	
1314	0	28638	
1315	0	28504	
1316	0	28472	
1317	0	28544	
1318	0	28340	
1319	0	28028	
1320	0	28092	
1321	0	28260	
1322	0	28092	
1323	0	27774	
1324	0	27564	
1325	0	27520	
1326	0	27932	
1327	0	28424	
1328	0	28468	
1329	0	28472	
1330	0	28706	
1331	0	28872	
1332	0	28832	
1333	0	28436	
1334	0	27792	
1335	0	27260	
1336	0	26794	
1337	0	26148	
1338	0	25208	
1339	0	23824	
1340	0	22336	
1341	0	20970	
1342	0	20119	
1343	0	20012	
1344	0	20318	
1345	0	20796	
1346	0	21352	
1347	0	22012	
1348	0	22648	
1349	0	22704	
1350	0	22353	
1351	0	21964	
1352	0	21824	
1353	0	22188	
1354	0	22960	
1355	0	23720	
1356	0	24202	
1357	0	24360	
1358	0	23836	
1359	0	23084	
1360	0	22976	
1361	0	23600	
1362	0	24204	
1363	0	24498	
1364	0	24920	
1365	0	25512	
1366	0	26330	
1367	0	27212	
1368	0	28080	
1369	0	28656	
1370	0	29120	
1371	0	29400	
1372	0	29600	
1373	0	29852	
1374	0	30326	
1375	0	31004	
1376	0	31800	
1377	0	32716	
1378	0	33484	
1379	0	33976	
1380	0	34156	
1381	0	34480	
1382	0	35020	
1383	0	35624	
1384	0	36384	
1385	0	37272	
1386	0	38384	
1387	0	39500	
1388	0	40496	
1389	0	41480	
1390	0	42224	
1391	0	42788	
1392	0	43320	
1393	0	43760	
1394	0	44028	
1395	0	44092	
1396	0	44180	
1397	0	44260	
1398	0	44320	
1399	0	44368	
1400	0	44356	
1401	0	44092	
1402	0	43484	
1403	0	43184	
1404	0	43148	
1405	0	42952	
1406	0	42348	
1407	0	41184	
1408	0	39836	
1409	0	38624	
1410	0	37712	
1411	0	37416	
1412	0	37732	
1413	0	38492	
1414	0	39316	
1415	0	40056	
1416	0	40628	
1417	0	40808	
1418	0	41058	
1419	0	41692	
1420	0	42744	
1421	0	43868	
1422	0	44756	
1423	0	45408	
1424	0	45776	
1425	0	45888	
1426	0	45964	
1427	0	46264	
1428	0	46656	
1429	0	46824	
1430	0	46776	
1431	0	46544	
1432	0	46304	
1433	0	46412	
1434	0	46632	
1435	0	46624	
1436	0	46444	
1437	0	45976	
1438	0	45200	
1439	0	44612	
1440	0	44196	
1441	0	43624	
1442	0	42684	
1443	0	41864	
1444	0	41344	
1445	0	40688	
1446	0	39360	
1447	0	37536	
1448	0	35872	
1449	0	34668	
1450	0	33856	
1451	0	33536	
1452	0	33458	
1453	0	33612	
1454	0	33880	
1455	0	34684	
1456	0	36034	
1457	0	37676	
1458	0	39468	
1459	0	41562	
1460	0	44008	
1461	0	46960	
1462	0	50068	
1463	0	53512	
1464	0	56408	
1465	0	57984	
1466	0	58824	
1467	0	59228	
1468	0	59399	
1469	0	59468	
1470	0	59456	
1471	0	59408	
1472	0	59340	
1473	0	59260	
1474	0	59180	
1475	0	56560	
1476	0	52888	
1477	0	48808	
1478	0	44668	
1479	0	40648	
1480	0	36864	
1481	0	33312	
1482	0	30128	
1483	0	27504	
1484	0	25524	
1485	0	24118	
1486	0	23204	
1487	0	22536	
1488	0	21696	
1489	0	20688	
1490	0	19976	
1491	0	19616	
1492	0	19490	
1493	0	19596	
1494	0	20192	
1495	0	21192	
1496	0	22776	
1497	0	24752	
1498	0	26682	
1499	0	27832	
1500	0	26938	
1501	0	24460	
1502	0	21480	
1503	0	18602	
1504	0	15940	
1505	0	13560	
1506	0	11364	
1507	0	9128	
1508	0	6978	
1509	0	5101	
1510	0	3631	
1511	0	2678	
1512	0	2018	
1513	0	1162	
1514	0	23	
1515	0	23	
1516	0	24	
1517	0	23	
1518	0	24	
1519	0	24	
1520	0	23	
1521	0	23	
1522	0	22	
1523	0	23	
1524	0	23	
1525	0	22	
1526	0	23	
1527	0	22	
1528	0	24	
1529	0	24	
1530	0	1837	
1531	0	3901	
1532	0	6081	
1533	0	8825	
1534	0	11332	
1535	0	13928	
1536	0	16296	
1537	0	18464	
1538	0	20248	
1539	0	22084	
1540	0	23906	
1541	0	25832	
1542	0	27912	
1543	0	30208	
1544	0	32588	
1545	0	34694	
1546	0	36612	
1547	0	38444	
1548	0	39996	
1549	0	41004	
1550	0	41792	
1551	0	42568	
1552	0	43636	
1553	0	44772	
1554	0	45652	
1555	0	46108	
1556	0	46290	
1557	0	45776	
1558	0	44876	
1559	0	43588	
1560	0	42060	
1561	0	40628	
1562	0	39396	
1563	0	38104	
1564	0	36724	
1565	0	35408	
1566	0	34200	
1567	0	33080	
1568	0	32092	
1569	0	31512	
1570	0	31372	
1571	0	31494	
1572	0	31960	
1573	0	32658	
1574	0	33328	
1575	0	33768	
1576	0	34296	
1577	0	34670	
1578	0	34532	
1579	0	34424	
1580	0	34132	
1581	0	33792	
1582	0	33504	
1583	0	33272	
1584	0	33312	
1585	0	33424	
1586	0	33508	
1587	0	33636	
1588	0	33912	
1589	0	34350	
1590	0	34796	
1591	0	34976	
1592	0	35140	
1593	0	35504	
1594	0	35992	
1595	0	36440	
1596	0	36592	
1597	0	36432	
1598	0	35888	
1599	0	35374	
1600	0	34972	
1601	0	34628	
1602	0	34280	
1603	0	33620	
1604	0	32564	
1605	0	30424	
1606	0	27118	
1607	0	23024	
1608	0	18544	
1609	0	14142	
1610	0	10040	
1611	0	6451	
1612	0	3790	
1613	0	2146	
1614	0	1447	
1615	0	1206	
1616	0	1501	
1617	0	2069	
1618	0	2808	
1619	0	3804	
1620	0	5108	
1621	0	6500	
1622	0	7951	
1623	0	9483	
1624	0	10904	
1625	0	12500	
1626	0	14216	
1627	0	15950	
1628	0	17722	
1629	0	19432	
1630	0	21224	
1631	0	23088	
1632	0	24964	
1633	0	26648	
1634	0	28248	
1635	0	29768	
1636	0	31284	
1637	0	32974	
1638	0	34968	
1639	0	37252	
1640	0	39536	
1641	0	41868	
1642	0	44368	
1643	0	46788	
1644	0	49000	
1645	0	51192	
1646	0	52980	
1647	0	54068	
1648	0	54616	
1649	0	54840	
1650	0	54920	
1651	0	54896	
1652	0	54992	
1653	0	55140	
1654	0	55104	
1655	0	54708	
1656	0	54036	
1657	0	53324	
1658	0	52644	
1659	0	51792	
1660	0	50840	
1661	0	49764	
1662	0	48724	
1663	0	47800	
1664	0	46880	
1665	0	46094	
1666	0	45236	
1667	0	44424	
1668	0	43572	
1669	0	42644	
1670	0	41760	
1671	0	41068	
1672	0	40488	
1673	0	39916	
1674	0	39536	
1675	0	39104	
1676	0	38452	
1677	0	37684	
1678	0	36912	
1679	0	36004	
1680	0	35064	
1681	0	34204	
1682	0	33244	
1683	0	32324	
1684	0	31616	
1685	0	31232	
1686	0	30704	
1687	0	30080	
1688	0	29520	
1689	0	28968	
1690	0	28522	
1691	0	28040	
1692	0	27520	
1693	0	26944	
1694	0	26288	
1695	0	25644	
1696	0	25032	
1697	0	24336	
1698	0	23680	
1699	0	22740	
1700	0	21420	
1701	0	20200	
1702	0	19228	
1703	0	18540	
1704	0	18104	
1705	0	17764	
1706	0	17344	
1707	0	17126	
1708	0	17108	
1709	0	17000	
1710	0	16929	
1711	0	16966	
1712	0	16880	
1713	0	16760	
1714	0	16738	
1715	0	16866	
1716	0	16976	
1717	0	17158	
1718	0	17668	
1719	0	18512	
1720	0	19548	
1721	0	20736	
1722	0	21872	
1723	0	22844	
1724	0	23772	
1725	0	24544	
1726	0	25376	
1727	0	26198	
1728	0	26988	
1729	0	27616	
1730	0	27988	
1731	0	28362	
1732	0	28824	
1733	0	29372	
1734	0	30060	
1735	0	30648	
1736	0	31120	
1737	0	31450	
1738	0	31736	
1739	0	32012	
1740	0	32176	
1741	0	32264	
1742	0	32320	
1743	0	32404	
1744	0	32572	
1745	0	32788	
1746	0	33040	
1747	0	33386	
1748	0	33752	
1749	0	34112	
1750	0	34424	
1751	0	34626	
1752	0	34808	
1753	0	35176	
1754	0	35572	
1755	0	35832	
1756	0	36236	
1757	0	36764	
1758	0	37348	
1759	0	37964	
1760	0	38516	
1761	0	38976	
1762	0	39412	
1763	0	39932	
1764	0	40676	
1765	0	41460	
1766	0	42216	
1767	0	42724	
1768	0	42976	
1769	0	43080	
1770	0	43136	
1771	0	43332	
1772	0	43440	
1773	0	43352	
1774	0	43172	
1775	0	43096	
1776	0	43024	
1777	0	42658	
1778	0	42348	
1779	0	42096	
1780	0	41676	
1781	0	41184	
1782	0	40808	
1783	0	40760	
1784	0	41116	
1785	0	41536	
1786	0	41980	
1787	0	42460	
1788	0	42896	
1789	0	43116	
1790	0	43116	
1791	0	43120	
1792	0	43164	
1793	0	43192	
1794	0	43156	
1795	0	42980	
1796	0	42700	
1797	0	42084	
1798	0	41292	
1799	0	40596	
1800	0	39916	
1801	0	39452	
1802	0	39212	
1803	0	39112	
1804	0	39080	
1805	0	39056	
1806	0	38940	
1807	0	38624	
1808	0	38140	
1809	0	37492	
1810	0	36840	
1811	0	36416	
1812	0	36086	
1813	0	35700	
1814	0	35252	
1815	0	34700	
1816	0	34136	
1817	0	33522	
1818	0	32940	
1819	0	32672	
1820	0	32596	
1821	0	32512	
1822	0	31952	
1823	0	31162	
1824	0	30404	
1825	0	29952	
1826	0	29816	
1827	0	29932	
1828	0	29976	
1829	0	30072	
1830	0	30276	
1831	0	30456	
1832	0	30388	
1833	0	30228	
1834	0	29960	
1835	0	29788	
1836	0	29976	
1837	0	30280	
1838	0	30568	
1839	0	30920	
1840	0	31056	
1841	0	31064	
1842	0	31024	
1843	0	31120	
1844	0	31192	
1845	0	31120	
1846	0	31068	
1847	0	30852	
1848	0	30436	
1849	0	30128	
1850	0	29916	
1851	0	29712	
1852	0	29692	
1853	0	29656	
1854	0	29564	
1855	0	29568	
1856	0	29484	
1857	0	29588	
1858	0	29812	
1859	0	29992	
1860	0	30008	
1861	0	29724	
1862	0	29064	
1863	0	28204	
1864	0	27072	
1865	0	25784	
1866	0	24292	
1867	0	22712	
1868	0	20864	
1869	0	18900	
1870	0	17000	
1871	0	15064	
1872	0	13090	
1873	0	10972	
1874	0	8824	
1875	0	6678	
1876	0	4435	
1877	0	2318	
1878	0	1015	
1879	0	386	
1880	0	110	
1881	0	24	
1882	0	24	
1883	0	97	
1884	0	190	
1885	0	296	
1886	0	409	
1887	0	530	
1888	0	646	
1889	0	768	
1890	0	890	
1891	0	1003	
1892	0	1126	
1893	0	1250	
1894	0	1369	
1895	0	1484	
1896	0	1602	
1897	0	1718	
1898	0	1843	
1899	0	1952	
1900	0	2060	
1901	0	2186	
1902	0	2301	
1903	0	2413	
1904	0	2529	
1905	0	2633	
1906	0	2749	
1907	0	2860	
1908	0	2969	
1909	0	4184	
1910	0	10869	
1911	0	16944	
1912	0	22816	
1913	0	28368	
1914	0	33096	
1915	0	36380	
1916	0	37960	
1917	0	38144	
1918	0	36964	
1919	0	34704	
1920	0	31524	
1921	0	28064	
1922	0	25204	
1923	0	23148	
1924	0	21474	
1925	0	20244	
1926	0	19564	
1927	0	19368	
1928	0	19502	
1929	0	19904	
1930	0	20632	
1931	0	21570	
1932	0	22516	
1933	0	23580	
1934	0	24868	
1935	0	26544	
1936	0	28720	
1937	0	31320	
1938	0	34168	
1939	0	37272	
1940	0	40432	
1941	0	43488	
1942	0	46490	
1943	0	49192	
1944	0	51624	
1945	0	54000	
1946	0	56236	
1947	0	58256	
1948	0	60208	
1949	0	62016	
1950	0	63704	
1951	0	65056	
1952	0	65535	
1953	0	65535	
1954	0	65535	
1955	0	65535	
1956	0	65535	
1957	0	64772	
1958	0	63936	
1959	0	63204	
1960	0	62648	
1961	0	62028	
1962	0	61468	
1963	0	61060	
1964	0	60948	
1965	0	60744	
1966	0	59996	
1967	0	58660	
1968	0	56096	
1969	0	52440	
1970	0	48384	
1971	0	44332	
1972	0	40468	
1973	0	36752	
1974	0	33368	
1975	0	30280	
1976	0	27452	
1977	0	25152	
1978	0	23340	
1979	0	21681	
1980	0	20332	
1981	0	19496	
1982	0	19224	
1983	0	19332	
1984	0	19404	
1985	0	19586	
1986	0	19918	
1987	0	20304	
1988	0	20828	
1989	0	21424	
1990	0	22088	
1991	0	22740	
1992	0	23280	
1993	0	23644	
1994	0	23626	
1995	0	23536	
1996	0	23512	
1997	0	23564	
1998	0	23968	
1999	0	24632	
2000	0	25290	
2001	0	25698	
2002	0	25816	
2003	0	25664	
2004	0	25450	
2005	0	25424	
2006	0	25674	
2007	0	25948	
2008	0	25936	
2009	0	25588	
2010	0	25208	
2011	0	24948	
2012	0	24800	
2013	0	24632	
2014	0	24296	
2015	0	23644	
2016	0	22782	
2017	0	22092	
2018	0	21524	
2019	0	21300	
2020	0	21328	
2021	0	21368	
2022	0	21460	
2023	0	21902	
2024	0	22896	
2025	0	24300	
2026	0	25960	
2027	0	28020	
2028	0	30072	
2029	0	31892	
2030	0	33316	
2031	0	34368	
2032	0	35248	
2033	0	36140	
2034	0	37128	
2035	0	38472	
2036	0	40072	
2037	0	42008	
2038	0	44028	
2039	0	46004	
2040	0	47656	
2041	0	48924	
2042	0	50004	
2043	0	50890	
2044	0	51860	
2045	0	52936	
2046	0	53832	
2047	0	54264	
2048	0	54588	
2049	0	54780	
2050	0	54576	
2051	0	54212	
2052	0	53884	
2053	0	53348	
2054	0	52984	
2055	0	53092	
2056	0	53440	
2057	0	53536	
2058	0	53172	
2059	0	52716	
2060	0	52372	
2061	0	51936	
2062	0	51520	
2063	0	51152	
2064	0	50772	
2065	0	50624	
2066	0	50880	
2067	0	51120	
2068	0	50920	
2069	0	50256	
2070	0	49630	
2071	0	49020	
2072	0	48544	
2073	0	48228	
2074	0	48064	
2075	0	47584	
2076	0	46656	
2077	0	45616	
2078	0	44524	
2079	0	43480	
2080	0	42400	
2081	0	41312	
2082	0	40216	
2083	0	39464	
2084	0	39020	
2085	0	38696	
2086	0	38344	
2087	0	38080	
2088	0	37984	
2089	0	37972	
2090	0	37964	
2091	0	37788	
2092	0	37704	
2093	0	37672	
2094	0	37656	
2095	0	37712	
2096	0	37816	
2097	0	38168	
2098	0	38508	
2099	0	38554	
2100	0	38652	
2101	0	38584	
2102	0	38624	
2103	0	39032	
2104	0	39598	
2105	0	40516	
2106	0	42018	
2107	0	43808	
2108	0	45672	
2109	0	47316	
2110	0	48528	
2111	0	49112	
2112	0	48872	
2113	0	48480	
2114	0	48180	
2115	0	47392	
2116	0	45868	
2117	0	43374	
2118	0	39646	
2119	0	34920	
2120	0	29702	
2121	0	24284	
2122	0	19344	
2123	0	15168	
2124	0	12250	
2125	0	10678	
2126	0	10456	
2127	0	11052	
2128	0	12156	
2129	0	13840	
2130	0	16032	
2131	0	18508	
2132	0	21114	
2133	0	23648	
2134	0	26078	
2135	0	28440	
2136	0	30724	
2137	0	32852	
2138	0	34724	
2139	0	36436	
2140	0	38004	
2141	0	39608	
2142	0	41236	
2143	0	42632	
2144	0	43604	
2145	0	44232	
2146	0	44396	
2147	0	44028	
2148	0	43308	
2149	0	42372	
2150	0	41256	
2151	0	40224	
2152	0	39220	
2153	0	38276	
2154	0	37160	
2155	0	35884	
2156	0	34716	
2157	0	33804	
2158	0	32972	
2159	0	32050	
2160	0	31012	
2161	0	30100	
2162	0	29436	
2163	0	28876	
2164	0	28452	
2165	0	28096	
2166	0	27652	
2167	0	26976	
2168	0	26524	
2169	0	26352	
2170	0	26448	
2171	0	26685	
2172	0	26896	
2173	0	27110	
2174	0	27504	
2175	0	28184	
2176	0	29092	
2177	0	30030	
2178	0	30726	
2179	0	31292	
2180	0	31760	
2181	0	32080	
2182	0	32360	
2183	0	32680	
2184	0	33156	
2185	0	33804	
2186	0	34656	
2187	0	35424	
2188	0	35998	
2189	0	36304	
2190	0	36474	
2191	0	36450	
2192	0	36288	
2193	0	35956	
2194	0	35616	
2195	0	35300	
2196	0	34960	
2197	0	34852	
2198	0	34872	
2199	0	34756	
2200	0	34388	
2201	0	34078	
2202	0	33964	
2203	0	33904	
2204	0	33908	
2205	0	33940	
2206	0	33916	
2207	0	33820	
2208	0	33776	
2209	0	33812	
2210	0	33664	
2211	0	33484	
2212	0	33616	
2213	0	33736	
2214	0	33696	
2215	0	33640	
2216	0	33680	
2217	0	33748	
2218	0	33624	
2219	0	33400	
2220	0	33260	
2221	0	32928	
2222	0	32772	
2223	0	32922	
2224	0	33112	
2225	0	33152	
2226	0	33188	
2227	0	32956	
2228	0	32448	
2229	0	32012	
2230	0	31632	
2231	0	31332	
2232	0	31044	
2233	0	30696	
2234	0	30260	
2235	0	29696	
2236	0	28970	
2237	0	28328	
2238	0	27856	
2239	0	27424	
2240	0	26856	
2241	0	26304	
2242	0	25588	
2243	0	24988	
2244	0	24500	
2245	0	24125	
2246	0	23928	
2247	0	23896	
2248	0	24012	
2249	0	24022	
2250	0	23861	
2251	0	23576	
2252	0	23432	
2253	0	23568	
2254	0	23644	
2255	0	23684	
2256	0	23724	
2257	0	23728	
2258	0	23568	
2259	0	23292	
2260	0	23062	
2261	0	22978	
2262	0	22908	
2263	0	22852	
2264	0	22976	
2265	0	23308	
2266	0	23722	
2267	0	24092	
2268	0	24404	
2269	0	24744	
2270	0	25128	
2271	0	25400	
2272	0	25568	
2273	0	25612	
2274	0	25696	
2275	0	25976	
2276	0	26158	
2277	0	26368	
2278	0	26800	
2279	0	27320	
2280	0	27716	
2281	0	27728	
2282	0	27560	
2283	0	27380	
2284	0	27300	
2285	0	27388	
2286	0	27536	
2287	0	27688	
2288	0	27864	
2289	0	28232	
2290	0	28748	
2291	0	29312	
2292	0	29840	
2293	0	30104	
2294	0	30408	
2295	0	30704	
2296	0	31104	
2297	0	31562	
2298	0	31808	
2299	0	31936	
2300	0	31864	
2301	0	31864	
2302	0	32088	
2303	0	32656	
2304	0	33488	
2305	0	34512	
2306	0	35476	
2307	0	36620	
2308	0	37744	
2309	0	38580	
2310	0	39060	
2311	0	39080	
2312	0	38812	
2313	0	38604	
2314	0	38556	
2315	0	38544	
2316	0	38532	
2317	0	38664	
2318	0	38780	
2319	0	38732	
2320	0	38484	
2321	0	37848	
2322	0	37020	
2323	0	36344	
2324	0	35824	
2325	0	35136	
2326	0	34352	
2327	0	33496	
2328	0	32472	
2329	0	31140	
2330	0	29460	
2331	0	27924	
2332	0	26592	
2333	0	24960	
2334	0	22804	
2335	0	20256	
2336	0	17322	
2337	0	13962	
2338	0	10194	
2339	0	6295	
2340	0	3749	
2341	0	2435	
2342	0	1781	
2343	0	1482	
2344	0	1385	
2345	0	1383	
2346	0	1441	
2347	0	1523	
2348	0	1621	
2349	0	1735	
2350	0	1844	
2351	0	1966	
2352	0	2077	
2353	0	2191	
2354	0	2310	
2355	0	2428	
2356	0	2544	
2357	0	2671	
2358	0	2782	
2359	0	2894	
2360	0	3008	
2361	0	3130	
2362	0	3234	
2363	0	3350	
2364	0	3456	
2365	0	3572	
2366	0	3683	
2367	0	3794	
2368	0	3898	
2369	0	3997	
2370	0	7810	
2371	0	12796	
2372	0	17596	
2373	0	22029	
2374	0	25792	
2375	0	28760	
2376	0	30856	
2377	0	32242	
2378	0	33212	
2379	0	33832	
2380	0	34428	
2381	0	35168	
2382	0	35928	
2383	0	36708	
2384	0	37208	
2385	0	36512	
2386	0	34280	
2387	0	30792	
2388	0	26624	
2389	0	22292	
2390	0	17808	
2391	0	13460	
2392	0	9660	
2393	0	7320	
2394	0	6144	
2395	0	5565	
2396	0	5314	
2397	0	5228	
2398	0	5220	
2399	0	5269	
2400	0	5337	
2401	0	7010	
2402	0	10354	
2403	0	13758	
2404	0	17376	
2405	0	21012	
2406	0	24372	
2407	0	27418	
2408	0	29952	
2409	0	31856	
2410	0	33224	
2411	0	34054	
2412	0	34148	
2413	0	33764	
2414	0	32934	
2415	0	31812	
2416	0	30604	
2417	0	29272	
2418	0	27568	
2419	0	25432	
2420	0	23072	
2421	0	20678	
2422	0	18442	
2423	0	16762	
2424	0	15649	
2425	0	14816	
2426	0	14158	
2427	0	13772	
2428	0	13481	
2429	0	13553	
2430	0	13920	
2431	0	14302	
2432	0	14658	
2433	0	15012	
2434	0	15580	
2435	0	16584	
2436	0	17840	
2437	0	19276	
2438	0	20784	
2439	0	22462	
2440	0	24448	
2441	0	26588	
2442	0	28712	
2443	0	31120	
2444	0	33912	
2445	0	36696	
2446	0	39224	
2447	0	41512	
2448	0	43652	
2449	0	45536	
2450	0	47484	
2451	0	49580	
2452	0	51628	
2453	0	53836	
2454	0	56456	
2455	0	59398	
2456	0	61944	
2457	0	63588	
2458	0	64192	
2459	0	64132	
2460	0	63664	
2461	0	62928	
2462	0	61960	
2463	0	60768	
2464	0	59336	
2465	0	58020	
2466	0	56732	
2467	0	55644	
2468	0	54732	
2469	0	53916	
2470	0	53516	
2471	0	53872	
2472	0	55712	
2473	0	57616	
2474	0	58736	
2475	0	59340	
2476	0	59364	
2477	0	59060	
2478	0	59132	
2479	0	59856	
2480	0	60976	
2481	0	62296	
2482	0	63520	
2483	0	64696	
2484	0	65535	
2485	0	65535	
2486	0	65535	
2487	0	65535	
2488	0	65535	
2489	0	65535	
2490	0	65535	
2491	0	65535	
2492	0	65535	
2493	0	65535	
2494	0	65535	
2495	0	62752	
2496	0	60228	
2497	0	57934	
2498	0	55556	
2499	0	53164	
2500	0	50960	
2501	0	48792	
2502	0	46784	
2503	0	45192	
2504	0	43708	
2505	0	42288	
2506	0	41048	
2507	0	39880	
2508	0	38980	
2509	0	38272	
2510	0	37816	
2511	0	37588	
2512	0	37464	
2513	0	37422	
2514	0	37448	
2515	0	37220	
2516	0	37004	
2517	0	36674	
2518	0	36062	
2519	0	35226	
2520	0	34266	
2521	0	33156	
2522	0	32052	
2523	0	31104	
2524	0	30200	
2525	0	29168	
2526	0	28354	
2527	0	27816	
2528	0	27516	
2529	0	27456	
2530	0	27552	
2531	0	27818	
2532	0	28046	
2533	0	28136	
2534	0	28052	
2535	0	27616	
2536	0	27056	
2537	0	26416	
2538	0	25844	
2539	0	25294	
2540	0	24804	
2541	0	24488	
2542	0	24326	
2543	0	24177	
2544	0	24080	
2545	0	24032	
2546	0	24028	
2547	0	24092	
2548	0	24324	
2549	0	24508	
2550	0	24478	
2551	0	24260	
2552	0	24076	
2553	0	24000	
2554	0	23980	
2555	0	24200	
2556	0	24508	
2557	0	24842	
2558	0	25076	
2559	0	25360	
2560	0	25832	
2561	0	26274	
2562	0	26594	
2563	0	26930	
2564	0	27328	
2565	0	27776	
2566	0	28312	
2567	0	28740	
2568	0	29006	
2569	0	29132	
2570	0	29444	
2571	0	29916	
2572	0	30412	
2573	0	30824	
2574	0	31100	
2575	0	31316	
2576	0	31392	
2577	0	31176	
2578	0	30896	
2579	0	30556	
2580	0	30388	
2581	0	30292	
2582	0	30016	
2583	0	29700	
2584	0	29496	
2585	0	29456	
2586	0	29684	
2587	0	29864	
2588	0	29692	
2589	0	29284	
2590	0	28696	
2591	0	28276	
2592	0	27884	
2593	0	27464	
2594	0	26936	
2595	0	26416	
2596	0	26128	
2597	0	25908	
2598	0	25668	
2599	0	25696	
2600	0	26128	
2601	0	26624	
2602	0	27204	
2603	0	27796	
2604	0	28460	
2605	0	29004	
2606	0	29528	
2607	0	30232	
2608	0	30992	
2609	0	31808	
2610	0	32858	
2611	0	34164	
2612	0	35488	
2613	0	36840	
2614	0	38384	
2615	0	40056	
2616	0	41752	
2617	0	43450	
2618	0	45248	
2619	0	47028	
2620	0	48784	
2621	0	50346	
2622	0	51612	
2623	0	52464	
2624	0	53156	
2625	0	53628	
2626	0	53692	
2627	0	53136	
2628	0	51472	
2629	0	48328	
2630	0	43564	
2631	0	37542	
2632	0	30792	
2633	0	24012	
2634	0	18114	
2635	0	13316	
2636	0	9596	
2637	0	6972	
2638	0	5176	
2639	0	4188	
2640	0	3886	
2641	0	3974	
2642	0	4428	
2643	0	5220	
2644	0	6168	
2645	0	7080	
2646	0	7785	
2647	0	8120	
2648	0	8051	
2649	0	8044	
2650	0	8448	
2651	0	9290	
2652	0	10198	
2653	0	11014	
2654	0	11752	
2655	0	12268	
2656	0	12574	
2657	0	12864	
2658	0	13272	
2659	0	13768	
2660	0	14244	
2661	0	14858	
2662	0	15360	
2663	0	15744	
2664	0	16258	
2665	0	16866	
2666	0	17576	
2667	0	18224	
2668	0	18882	
2669	0	19680	
2670	0	20616	
2671	0	21656	
2672	0	22708	
2673	0	23804	
2674	0	24854	
2675	0	25956	
2676	0	27200	
2677	0	28344	
2678	0	29412	
2679	0	30536	
2680	0	31612	
2681	0	32672	
2682	0	33658	
2683	0	34700	
2684	0	35760	
2685	0	36688	
2686	0	37500	
2687	0	38304	
2688	0	38960	
2689	0	39428	
2690	0	39752	
2691	0	40000	
2692	0	40228	
2693	0	40532	
2694	0	40780	
2695	0	41012	
2696	0	41140	
2697	0	41064	
2698	0	40852	
2699	0	40516	
2700	0	40328	
2701	0	40236	
2702	0	40064	
2703	0	39866	
2704	0	39592	
2705	0	39516	
2706	0	39596	
2707	0	39696	
2708	0	39930	
2709	0	40362	
2710	0	40768	
2711	0	41016	
2712	0	41074	
2713	0	41000	
2714	0	40928	
2715	0	41052	
2716	0	41356	
2717	0	41916	
2718	0	42476	
2719	0	43004	
2720	0	43616	
2721	0	44248	
2722	0	44896	
2723	0	45624	
2724	0	46632	
2725	0	47980	
2726	0	49096	
2727	0	49728	
2728	0	49960	
2729	0	49944	
2730	0	49814	
2731	0	49896	
2732	0	50228	
2733	0	50632	
2734	0	50884	
2735	0	50736	
2736	0	50472	
2737	0	50068	
2738	0	49652	
2739	0	49308	
2740	0	49080	
2741	0	48948	
2742	0	48852	
2743	0	48828	
2744	0	48752	
2745	0	48600	
2746	0	48532	
2747	0	48464	
2748	0	48292	
2749	0	48044	
2750	0	47768	
2751	0	47656	
2752	0	47748	
2753	0	48112	
2754	0	48508	
2755	0	48952	
2756	0	49264	
2757	0	49328	
2758	0	49160	
2759	0	48844	
2760	0	48512	
2761	0	48200	
2762	0	47924	
2763	0	47524	
2764	0	47324	
2765	0	47224	
2766	0	47220	
2767	0	47176	
2768	0	47108	
2769	0	47116	
2770	0	47424	
2771	0	47940	
2772	0	48480	
2773	0	48992	
2774	0	49528	
2775	0	49888	
2776	0	49896	
2777	0	49600	
2778	0	49236	
2779	0	49080	
2780	0	49248	
2781	0	49808	
2782	0	50540	
2783	0	51436	
2784	0	52376	
2785	0	53264	
2786	0	54060	
2787	0	54900	
2788	0	55824	
2789	0	56924	
2790	0	58100	
2791	0	59092	
2792	0	59920	
2793	0	60516	
2794	0	60844	
2795	0	60848	
2796	0	60600	
2797	0	60204	
2798	0	59488	
2799	0	58344	
2800	0	56904	
2801	0	55136	
2802	0	53120	
2803	0	50996	
2804	0	48620	
2805	0	45528	
2806	0	41396	
2807	0	36364	
2808	0	30628	
2809	0	23904	
2810	0	17526	
2811	0	12534	
2812	0	9336	
2813	0	7376	
2814	0	6152	
2815	0	5736	
2816	0	5822	
2817	0	5958	
2818	0	6081	
2819	0	6512	
2820	0	8292	
2821	0	11416	
2822	0	14636	
2823	0	17785	
2824	0	20852	
2825	0	23788	
2826	0	26552	
2827	0	29252	
2828	0	31970	
2829	0	34632	
2830	0	37088	
2831	0	39424	
2832	0	41760	
2833	0	44152	
2834	0	46552	
2835	0	49146	
2836	0	52160	
2837	0	55476	
2838	0	58832	
2839	0	60992	
2840	0	62144	
2841	0	62708	
2842	0	62240	
2843	0	57520	
2844	0	53152	
2845	0	48556	
2846	0	43620	
2847	0	38508	
2848	0	33562	
2849	0	28896	
2850	0	24706	
2851	0	21314	
2852	0	18540	
2853	0	16156	
2854	0	13994	
2855	0	11706	
2856	0	9154	
2857	0	6312	
2858	0	3346	
2859	0	1356	
2860	0	355	
2861	0	22	
2862	0	22	
2863	0	24	
2864	0	24	
2865	0	23	
2866	0	24	
2867	0	23	
2868	0	24	
2869	0	571	
2870	0	4371	
2871	0	7356	
2872	0	10156	
2873	0	12936	
2874	0	15858	
2875	0	18692	
2876	0	21142	
2877	0	23548	
2878	0	25788	
2879	0	27688	
2880	0	29320	
2881	0	30624	
2882	0	31296	
2883	0	31462	
2884	0	31316	
2885	0	30880	
2886	0	30168	
2887	0	29256	
2888	0	28056	
2889	0	26664	
2890	0	25108	
2891	0	23608	
2892	0	22354	
2893	0	21348	
2894	0	20546	
2895	0	19982	
2896	0	19680	
2897	0	19712	
2898	0	20197	
2899	0	20968	
2900	0	21916	
2901	0	23192	
2902	0	24866	
2903	0	26532	
2904	0	27988	
2905	0	29268	
2906	0	30420	
2907	0	31616	
2908	0	32692	
2909	0	33568	
2910	0	34384	
2911	0	35292	
2912	0	36272	
2913	0	37208	
2914	0	38064	
2915	0	38760	
2916	0	39368	
2917	0	39984	
2918	0	40692	
2919	0	41584	
2920	0	42632	
2921	0	43744	
2922	0	44708	
2923	0	45562	
2924	0	46404	
2925	0	47284	
2926	0	48008	
2927	0	48516	
2928	0	48852	
2929	0	48972	
2930	0	48952	
2931	0	48866	
2932	0	48904	
2933	0	49020	
2934	0	49152	
2935	0	49460	
2936	0	49612	
2937	0	49400	
2938	0	49016	
2939	0	48620	
2940	0	48272	
2941	0	47856	
2942	0	47624	
2943	0	47492	
2944	0	47352	
2945	0	47052	
2946	0	46568	
2947	0	46104	
2948	0	45676	
2949	0	45160	
2950	0	44508	
2951	0	43692	
2952	0	42636	
2953	0	41320	
2954	0	40064	
2955	0	38928	
2956	0	37884	
2957	0	37104	
2958	0	36440	
2959	0	35804	
2960	0	35400	
2961	0	35176	
2962	0	35040	
2963	0	34884	
2964	0	34672	
2965	0	34768	
2966	0	35136	
2967	0	35500	
2968	0	35852	
2969	0	36216	
2970	0	36696	
2971	0	37100	
2972	0	37352	
2973	0	37616	
2974	0	38136	
2975	0	38620	
2976	0	38918	
2977	0	39208	
2978	0	39724	
2979	0	40276	
2980	0	40628	
2981	0	40624	
2982	0	40828	
2983	0	41124	
2984	0	41600	
2985	0	42120	
2986	0	42764	
2987	0	43580	
2988	0	44412	
2989	0	45104	
2990	0	45704	
2991	0	46376	
2992	0	46892	
2993	0	47188	
2994	0	47456	
2995	0	47744	
2996	0	47872	
2997	0	48176	
2998	0	48592	
2999	0	49100	
3000	0	49728	
3001	0	50032	
3002	0	50062	
3003	0	49980	
3004	0	49724	
3005	0	49360	
3006	0	48960	
3007	0	48428	
3008	0	47892	
3009	0	47456	
3010	0	47036	
3011	0	46520	
3012	0	45748	
3013	0	44988	
3014	0	43984	
3015	0	42768	
3016	0	41316	
3017	0	39524	
3018	0	37884	
3019	0	36176	
3020	0	34668	
3021	0	33300	
3022	0	31976	
3023	0	30684	
3024	0	29204	
3025	0	27712	
3026	0	26476	
3027	0	25252	
3028	0	24080	
3029	0	22796	
3030	0	21456	
3031	0	20144	
3032	0	18776	
3033	0	17552	
3034	0	16672	
3035	0	15716	
3036	0	14910	
3037	0	14724	
3038	0	15024	
3039	0	15304	
3040	0	15400	
3041	0	15554	
3042	0	15796	
3043	0	15896	
3044	0	15972	
3045	0	15994	
3046	0	16304	
3047	0	16874	
3048	0	17400	
3049	0	17870	
3050	0	18372	
3051	0	19032	
3052	0	19888	
3053	0	20848	
3054	0	22136	
3055	0	23316	
3056	0	24128	
3057	0	24740	
3058	0	25288	
3059	0	25864	
3060	0	26268	
3061	0	26668	
3062	0	27000	
3063	0	27296	
3064	0	27556	
3065	0	27792	
3066	0	28024	
3067	0	28224	
3068	0	28428	
3069	0	28552	
3070	0	28566	
3071	0	28504	
3072	0	28416	
3073	0	28368	
3074	0	28116	
3075	0	27584	
3076	0	26972	
3077	0	26392	
3078	0	26088	
3079	0	25976	
3080	0	26148	
3081	0	26460	
3082	0	26640	
3083	0	26728	
3084	0	26924	
3085	0	27148	
3086	0	27364	
3087	0	27444	
3088	0	27440	
3089	0	27520	
3090	0	27580	
3091	0	27588	
3092	0	27646	
3093	0	27860	
3094	0	28120	
3095	0	28192	
3096	0	28166	
3097	0	28128	
3098	0	28000	
3099	0	27960	
3100	0	28056	
3101	0	28228	
3102	0	28564	
3103	0	28980	
3104	0	29496	
3105	0	30180	
3106	0	30804	
3107	0	31350	
3108	0	31744	
3109	0	32032	
3110	0	32306	
3111	0	32608	
3112	0	33096	
3113	0	33764	
3114	0	34652	
3115	0	35644	
3116	0	36848	
3117	0	38320	
3118	0	39988	
3119	0	41568	
3120	0	43074	
3121	0	44776	
3122	0	46640	
3123	0	48648	
3124	0	50712	
3125	0	52704	
3126	0	54472	
3127	0	55920	
3128	0	57188	
3129	0	58452	
3130	0	59676	
3131	0	60540	
3132	0	60900	
3133	0	60492	
3134	0	58720	
3135	0	55380	
3136	0	50788	
3137	0	45332	
3138	0	39296	
3139	0	33440	
3140	0	28160	
3141	0	23952	
3142	0	20970	
3143	0	18877	
3144	0	17354	
3145	0	16260	
3146	0	15628	
3147	0	15400	
3148	0	15508	
3149	0	15980	
3150	0	16636	
3151	0	17228	
3152	0	17802	
3153	0	18290	
3154	0	18634	
3155	0	18998	
3156	0	19432	
3157	0	20001	
3158	0	20544	
3159	0	20990	
3160	0	21292	
3161	0	21584	
3162	0	21832	
3163	0	21950	
3164	0	22250	
3165	0	22848	
3166	0	23474	
3167	0	24052	
3168	0	24240	
3169	0	23928	
3170	0	23392	
3171	0	23072	
3172	0	22880	
3173	0	22652	
3174	0	22540	
3175	0	22556	
3176	0	22664	
3177	0	22908	
3178	0	23166	
3179	0	23420	
3180	0	23524	
3181	0	23708	
3182	0	24076	
3183	0	24530	
3184	0	24760	
3185	0	24988	
3186	0	25226	
3187	0	25466	
3188	0	25656	
3189	0	25930	
3190	0	26188	
3191	0	26548	
3192	0	27012	
3193	0	27628	
3194	0	28420	
3195	0	29016	
3196	0	29244	
3197	0	29076	
3198	0	28932	
3199	0	29144	
3200	0	29546	
3201	0	29922	
3202	0	30160	
3203	0	30328	
3204	0	30604	
3205	0	31056	
3206	0	31728	
3207	0	32618	
3208	0	33500	
3209	0	34292	
3210	0	34932	
3211	0	35608	
3212	0	36200	
3213	0	36762	
3214	0	37304	
3215	0	37812	
3216	0	38192	
3217	0	38708	
3218	0	39344	
3219	0	39994	
3220	0	40664	
3221	0	41348	
3222	0	41900	
3223	0	42060	
3224	0	42204	
3225	0	42544	
3226	0	43128	
3227	0	43802	
3228	0	44324	
3229	0	44556	
3230	0	44520	
3231	0	44504	
3232	0	44652	
3233	0	45072	
3234	0	45852	
3235	0	46880	
3236	0	47956	
3237	0	49064	
3238	0	50056	
3239	0	50732	
3240	0	51296	
3241	0	51684	
3242	0	51904	
3243	0	52048	
3244	0	52192	
3245	0	52256	
3246	0	52256	
3247	0	52112	
3248	0	51880	
3249	0	51644	
3250	0	51256	
3251	0	50732	
3252	0	49896	
3253	0	48288	
3254	0	45662	
3255	0	42276	
3256	0	38394	
3257	0	34388	
3258	0	30328	
3259	0	26122	
3260	0	21940	
3261	0	17948	
3262	0	14136	
3263	0	10314	
3264	0	6204	
3265	0	2960	
3266	0	1270	
3267	0	417	
3268	0	26	
3269	0	24	
3270	0	25	
3271	0	23	
3272	0	24	
3273	0	24	
3274	0	200	
3275	0	323	
3276	0	451	
3277	0	578	
3278	0	707	
3279	0	837	
3280	0	965	
3281	0	1096	
3282	0	1218	
3283	0	1348	
3284	0	1477	
3285	0	1602	
3286	0	1721	
3287	0	1843	
3288	0	1958	
3289	0	2088	
3290	0	9090	
3291	0	17528	
3292	0	23964	
3293	0	28772	
3294	0	31464	
3295	0	32232	
3296	0	31642	
3297	0	30744	
3298	0	30226	
3299	0	30488	
3300	0	31760	
3301	0	34538	
3302	0	38648	
3303	0	42910	
3304	0	46528	
3305	0	49192	
3306	0	50832	
3307	0	50916	
3308	0	49484	
3309	0	47450	
3310	0	45800	
3311	0	45292	
3312	0	45176	
3313	0	45164	
3314	0	44392	
3315	0	42640	
3316	0	39856	
3317	0	36308	
3318	0	32468	
3319	0	28504	
3320	0	24572	
3321	0	20808	
3322	0	17376	
3323	0	14400	
3324	0	11966	
3325	0	10178	
3326	0	9032	
3327	0	8188	
3328	0	7721	
3329	0	7600	
3330	0	7850	
3331	0	8458	
3332	0	9238	
3333	0	10242	
3334	0	11440	
3335	0	12806	
3336	0	14200	
3337	0	15784	
3338	0	17576	
3339	0	19316	
3340	0	20884	
3341	0	22208	
3342	0	23316	
3343	0	24364	
3344	0	25490	
3345	0	26800	
3346	0	28336	
3347	0	30040	
3348	0	31768	
3349	0	33512	
3350	0	35204	
3351	0	36856	
3352	0	38320	
3353	0	39736	
3354	0	41124	
3355	0	42484	
3356	0	43832	
3357	0	45132	
3358	0	46640	
3359	0	48260	
3360	0	49784	
3361	0	51120	
3362	0	52404	
3363	0	53696	
3364	0	55292	
3365	0	57116	
3366	0	59080	
3367	0	61008	
3368	0	62936	
3369	0	64648	
3370	0	65535	
3371	0	65535	
3372	0	65535	
3373	0	64688	
3374	0	62792	
3375	0	60488	
3376	0	58240	
3377	0	55940	
3378	0	53504	
3379	0	51264	
3380	0	49124	
3381	0	46796	
3382	0	44396	
3383	0	42160	
3384	0	40240	
3385	0	38356	
3386	0	36452	
3387	0	34676	
3388	0	33256	
3389	0	32168	
3390	0	31388	
3391	0	30512	
3392	0	29544	
3393	0	28520	
3394	0	27372	
3395	0	26072	
3396	0	24816	
3397	0	23880	
3398	0	23184	
3399	0	22292	
3400	0	21260	
3401	0	20014	
3402	0	18776	
3403	0	17668	
3404	0	16634	
3405	0	15852	
3406	0	15348	
3407	0	15051	
3408	0	15226	
3409	0	15744	
3410	0	16626	
3411	0	17744	
3412	0	18652	
3413	0	19222	
3414	0	19626	
3415	0	19952	
3416	0	20548	
3417	0	21460	
3418	0	22504	
3419	0	23696	
3420	0	25060	
3421	0	26448	
3422	0	27976	
3423	0	29480	
3424	0	31052	
3425	0	32540	
3426	0	33996	
3427	0	35284	
3428	0	36248	
3429	0	36890	
3430	0	37252	
3431	0	37508	
3432	0	37804	
3433	0	38020	
3434	0	38120	
3435	0	38312	
3436	0	38642	
3437	0	39072	
3438	0	39496	
3439	0	39668	
3440	0	39664	
3441	0	39368	
3442	0	39080	
3443	0	39056	
3444	0	39280	
3445	0	39480	
3446	0	39392	
3447	0	39340	
3448	0	39392	
3449	0	39452	
3450	0	39316	
3451	0	38882	
3452	0	38488	
3453	0	38208	
3454	0	38188	
3455	0	38392	
3456	0	38516	
3457	0	38426	
3458	0	38132	
3459	0	37820	
3460	0	37612	
3461	0	37504	
3462	0	37488	
3463	0	37484	
3464	0	37208	
3465	0	36916	
3466	0	36900	
3467	0	36784	
3468	0	36567	
3469	0	36460	
3470	0	36448	
3471	0	36618	
3472	0	36684	
3473	0	36768	
3474	0	36760	
3475	0	36648	
3476	0	36392	
3477	0	36132	
3478	0	36096	
3479	0	36116	
3480	0	36062	
3481	0	35856	
3482	0	35632	
3483	0	35396	
3484	0	34964	
3485	0	34488	
3486	0	33968	
3487	0	33600	
3488	0	33436	
3489	0	33184	
3490	0	33148	
3491	0	33228	
3492	0	33388	
3493	0	33480	
3494	0	33496	
3495	0	33326	
3496	0	32996	
3497	0	32736	
3498	0	32608	
3499	0	32570	
3500	0	32660	
3501	0	32816	
3502	0	32816	
3503	0	32720	
3504	0	32638	
3505	0	32540	
3506	0	32472	
3507	0	32360	
3508	0	32130	
3509	0	31828	
3510	0	31480	
3511	0	31072	
3512	0	30698	
3513	0	30434	
3514	0	30332	
3515	0	30316	
3516	0	30154	
3517	0	30100	
3518	0	30310	
3519	0	30976	
3520	0	31404	
3521	0	31696	
3522	0	31844	
3523	0	32100	
3524	0	32418	
3525	0	32792	
3526	0	33060	
3527	0	32968	
3528	0	32620	
3529	0	32032	
3530	0	31148	
3531	0	30116	
3532	0	29136	
3533	0	28368	
3534	0	27820	
3535	0	27172	
3536	0	26340	
3537	0	25664	
3538	0	25234	
3539	0	24936	
3540	0	24604	
3541	0	24304	
3542	0	24048	
3543	0	23896	
3544	0	23890	
3545	0	23944	
3546	0	24032	
3547	0	24100	
3548	0	24288	
3549	0	24314	
3550	0	24198	
3551	0	24108	
3552	0	23960	
3553	0	23756	
3554	0	23364	
3555	0	22920	
3556	0	22434	
3557	0	22284	
3558	0	22576	
3559	0	23050	
3560	0	23628	
3561	0	24440	
3562	0	25156	
3563	0	25568	
3564	0	25760	
3565	0	25738	
3566	0	25284	
3567	0	24730	
3568	0	24334	
3569	0	23952	
3570	0	23576	
3571	0	23294	
3572	0	23172	
3573	0	23234	
3574	0	23428	
3575	0	23712	
3576	0	24196	
3577	0	24736	
3578	0	25144	
3579	0	25484	
3580	0	25884	
3581	0	26536	
3582	0	27432	
3583	0	28664	
3584	0	30240	
3585	0	31964	
3586	0	33568	
3587	0	34900	
3588	0	35892	
3589	0	36448	
3590	0	36576	
3591	0	36440	
3592	0	36216	
3593	0	36060	
3594	0	36000	
3595	0	36152	
3596	0	36540	
3597	0	37016	
3598	0	37176	
3599	0	37084	
3600	0	37000	
3601	0	37020	
3602	0	37188	
3603	0	37512	
3604	0	38024	
3605	0	38528	
3606	0	38876	
3607	0	39136	
3608	0	39392	
3609	0	39528	
3610	0	39432	
3611	0	39384	
3612	0	39524	
3613	0	39696	
3614	0	39960	
3615	0	40564	
3616	0	41576	
3617	0	42944	
3618	0	44736	
3619	0	46808	
3620	0	48600	
3621	0	50216	
3622	0	51960	
3623	0	53736	
3624	0	55552	
3625	0	57520	
3626	0	59488	
3627	0	61648	
3628	0	63616	
3629	0	64696	
3630	0	65248	
3631	0	65500	
3632	0	65535	
3633	0	65520	
3634	0	65472	
3635	0	59488	
3636	0	54640	
3637	0	51372	
3638	0	48040	
3639	0	45104	
3640	0	43000	
3641	0	41860	
3642	0	41272	
3643	0	40728	
3644	0	40040	
3645	0	39300	
3646	0	38500	
3647	0	37832	
3648	0	37380	
3649	0	36892	
3650	0	36736	
3651	0	37020	
3652	0	37508	
3653	0	38188	
3654	0	38716	
3655	0	39120	
3656	0	39120	
3657	0	38900	
3658	0	38868	
3659	0	38724	
3660	0	38164	
3661	0	37568	
3662	0	37160	
3663	0	36732	
3664	0	36308	
3665	0	35856	
3666	0	35472	
3667	0	34940	
3668	0	34348	
3669	0	33616	
3670	0	33000	
3671	0	32400	
3672	0	31724	
3673	0	30946	
3674	0	30154	
3675	0	29400	
3676	0	28624	
3677	0	28024	
3678	0	27696	
3679	0	27624	
3680	0	27628	
3681	0	27706	
3682	0	27880	
3683	0	27948	
3684	0	27840	
3685	0	27744	
3686	0	27756	
3687	0	27854	
3688	0	28068	
3689	0	28288	
3690	0	28452	
3691	0	28666	
3692	0	28892	
3693	0	29232	
3694	0	29832	
3695	0	30652	
3696	0	31556	
3697	0	32640	
3698	0	33804	
3699	0	35156	
3700	0	36600	
3701	0	37848	
3702	0	38980	
3703	0	40180	
3704	0	41664	
3705	0	43296	
3706	0	45056	
3707	0	46904	
3708	0	48728	
3709	0	50160	
3710	0	51080	
3711	0	51648	
3712	0	52040	
3713	0	52474	
3714	0	52984	
3715	0	53432	
3716	0	53824	
3717	0	54240	
3718	0	54712	
3719	0	54964	
3720	0	55020	
3721	0	55236	
3722	0	55588	
3723	0	56304	
3724	0	57232	
3725	0	57696	
3726	0	57568	
3727	0	56856	
3728	0	55728	
3729	0	54172	
3730	0	52384	
3731	0	50140	
3732	0	47476	
3733	0	44520	
3734	0	41264	
3735	0	37980	
3736	0	34568	
3737	0	30972	
3738	0	27424	
3739	0	24300	
3740	0	21616	
3741	0	18608	
3742	0	14928	
3743	0	10384	
3744	0	5136	
3745	0	1936	
3746	0	262	
3747	0	24	
3748	0	23	
3749	0	24	
3750	0	24	
3751	0	23	
3752	0	23	
3753	0	23	
3754	0	23	
3755	0	23	
3756	0	1838	
3757	0	6498	
3758	0	10818	
3759	0	14894	
3760	0	18494	
3761	0	21072	
3762	0	22506	
3763	0	23082	
3764	0	23692	
3765	0	24924	
3766	0	26492	
3767	0	28052	
3768	0	29196	
3769	0	29980	
3770	0	30486	
3771	0	30728	
3772	0	30564	
3773	0	30076	
3774	0	30240	
3775	0	30784	
3776	0	31440	
3777	0	32172	
3778	0	33008	
3779	0	33730	
3780	0	33784	
3781	0	33236	
3782	0	32644	
3783	0	32520	
3784	0	33228	
3785	0	34842	
3786	0	37148	
3787	0	40000	
3788	0	43088	
3789	0	46432	
3790	0	50192	
3791	0	54220	
3792	0	58100	
3793	0	60948	
3794	0	62508	
3795	0	63288	
3796	0	63696	
3797	0	63844	
3798	0	62816	
3799	0	58208	
3800	0	53968	
3801	0	50020	
3802	0	46328	
3803	0	42784	
3804	0	39480	
3805	0	36536	
3806	0	33880	
3807	0	31556	
3808	0	29772	
3809	0	28704	
3810	0	28132	
3811	0	28248	
3812	0	29136	
3813	0	30688	
3814	0	33016	
3815	0	36208	
3816	0	39756	
3817	0	42748	
3818	0	44920	
3819	0	46396	
3820	0	46764	
3821	0	45260	
3822	0	41904	
3823	0	37620	
3824	0	32768	
3825	0	27352	
3826	0	22112	
3827	0	17042	
3828	0	12400	
3829	0	8614	
3830	0	5949	
3831	0	3946	
3832	0	2344	
3833	0	1315	
3834	0	777	
3835	0	341	
3836	0	25	
3837	0	25	
3838	0	23	
3839	0	24	
3840	0	23	
3841	0	199	
3842	0	320	
3843	0	1882	
3844	0	3658	
3845	0	5476	
3846	0	7436	
3847	0	9474	
3848	0	11606	
3849	0	14024	
3850	0	16432	
3851	0	18748	
3852	0	21236	
3853	0	23910	
3854	0	26744	
3855	0	29584	
3856	0	32496	
3857	0	35624	
3858	0	38696	
3859	0	41632	
3860	0	44412	
3861	0	47200	
3862	0	49876	
3863	0	52312	
3864	0	54140	
3865	0	55424	
3866	0	55964	
3867	0	56032	
3868	0	55952	
3869	0	55384	
3870	0	54236	
3871	0	52912	
3872	0	51728	
3873	0	50640	
3874	0	49532	
3875	0	48704	
3876	0	48400	
3877	0	48592	
3878	0	48584	
3879	0	48388	
3880	0	48316	
3881	0	48228	
3882	0	48008	
3883	0	47284	
3884	0	46400	
3885	0	45696	
3886	0	44808	
3887	0	43680	
3888	0	42468	
3889	0	41268	
3890	0	40362	
3891	0	40080	
3892	0	40144	
3893	0	40308	
3894	0	40408	
3895	0	40224	
3896	0	40176	
3897	0	40420	
3898	0	40788	
3899	0	40928	
3900	0	41144	
3901	0	41664	
3902	0	42396	
3903	0	42976	
3904	0	43552	
3905	0	44324	
3906	0	45128	
3907	0	45820	
3908	0	46408	
3909	0	47072	
3910	0	47888	
3911	0	48384	
3912	0	48788	
3913	0	49220	
3914	0	49476	
3915	0	49636	
3916	0	49740	
3917	0	49768	
3918	0	49788	
3919	0	49664	
3920	0	49264	
3921	0	48740	
3922	0	48432	
3923	0	48228	
3924	0	47712	
3925	0	47088	
3926	0	46300	
3927	0	45088	
3928	0	44016	
3929	0	43076	
3930	0	42152	
3931	0	41288	
3932	0	40380	
3933	0	39252	
3934	0	37936	
3935	0	36580	
3936	0	35432	
3937	0	33948	
3938	0	32480	
3939	0	31168	
3940	0	30140	
3941	0	29236	
3942	0	28440	
3943	0	27996	
3944	0	27696	
3945	0	27320	
3946	0	27128	
3947	0	26818	
3948	0	26480	
3949	0	25992	
3950	0	25668	
3951	0	25464	
3952	0	25274	
3953	0	24912	
3954	0	24430	
3955	0	24084	
3956	0	23692	
3957	0	23180	
3958	0	22688	
3959	0	22192	
3960	0	21936	
3961	0	21922	
3962	0	21976	
3963	0	22204	
3964	0	22576	
3965	0	22928	
3966	0	23424	
3967	0	23900	
3968	0	24276	
3969	0	24640	
3970	0	24920	
3971	0	25148	
3972	0	25488	
3973	0	25856	
3974	0	25926	
3975	0	25828	
3976	0	25688	
3977	0	25546	
3978	0	25312	
3979	0	24825	
3980	0	24292	
3981	0	24000	
3982	0	23980	
3983	0	24120	
3984	0	24076	
3985	0	23905	
3986	0	23861	
3987	0	23970	
3988	0	24224	
3989	0	24476	
3990	0	24536	
3991	0	24556	
3992	0	24756	
3993	0	25172	
3994	0	25748	
3995	0	26320	
3996	0	26736	
3997	0	26978	
3998	0	27204	
3999	0	27456	
4000	0	27652	
4001	0	27700	
4002	0	27684	
4003	0	27872	
4004	0	28010	
4005	0	27948	
4006	0	27872	
4007	0	27900	
4008	0	27912	
4009	0	27968	
4010	0	27944	
4011	0	27976	
4012	0	27944	
4013	0	27812	
4014	0	27788	
4015	0	27892	
4016	0	27992	
4017	0	28136	
4018	0	28258	
4019	0	28300	
4020	0	28200	
4021	0	27852	
4022	0	27536	
4023	0	27300	
4024	0	26944	
4025	0	26560	
4026	0	26304	
4027	0	26272	
4028	0	26512	
4029	0	27000	
4030	0	27544	
4031	0	28032	
4032	0	28528	
4033	0	28984	
4034	0	29316	
4035	0	29428	
4036	0	29484	
4037	0	29344	
4038	0	29080	
4039	0	28868	
4040	0	28812	
4041	0	28680	
4042	0	28408	
4043	0	28200	
4044	0	28328	
4045	0	28636	
4046	0	28940	
4047	0	29104	
4048	0	29320	
4049	0	29316	
4050	0	29102	
4051	0	29004	
4052	0	28912	
4053	0	29048	
4054	0	29160	
4055	0	29224	
4056	0	29344	
4057	0	29372	
4058	0	29236	
4059	0	29018	
4060	0	28864	
4061	0	28768	
4062	0	28620	
4063	0	28320	
4064	0	28236	
4065	0	28024	
4066	0	27736	
4067	0	27756	
4068	0	27836	
4069	0	27912	
4070	0	28064	
4071	0	27944	
4072	0	27566	
4073	0	27460	
4074	0	27204	
4075	0	26752	
4076	0	26392	
4077	0	26156	
4078	0	25934	
4079	0	25658	
4080	0	25356	
4081	0	24858	
4082	0	24692	
4083	0	24836	
4084	0	24932	
4085	0	24908	
4086	0	25058	
4087	0	25604	
4088	0	26112	
4089	0	26730	
4090	0	27192	
4091	0	27720	
4092	0	27980	
4093	0	28112	
4094	0	28166	
4095	0	28344	
4096	0	28624	
4097	0	29104	
4098	0	29856	
4099	0	30720	
4100	0	31576	
4101	0	32192	
4102	0	32700	
4103	0	33236	
4104	0	33672	
4105	0	34272	
4106	0	35016	
4107	0	35620	
4108	0	36376	
4109	0	37592	
4110	0	39296	
4111	0	41280	
4112	0	43412	
4113	0	45716	
4114	0	47988	
4115	0	50072	
4116	0	52196	
4117	0	54248	
4118	0	56096	
4119	0	57752	
4120	0	59224	
4121	0	60696	
4122	0	62240	
4123	0	63344	
4124	0	63876	
4125	0	64132	
4126	0	64208	
4127	0	64212	
4128	0	64152	
4129	0	64056	
4130	0	59724	
4131	0	54400	
4132	0	48912	
4133	0	43648	
4134	0	38904	
4135	0	34768	
4136	0	31712	
4137	0	29824	
4138	0	28464	
4139	0	27724	
4140	0	27582	
4141	0	27772	
4142	0	28300	
4143	0	29120	
4144	0	29864	
4145	0	30180	
4146	0	30476	
4147	0	31120	
4148	0	31684	
4149	0	32048	
4150	0	32480	
4151	0	32900	
4152	0	33104	
4153	0	33248	
4154	0	33520	
4155	0	34256	
4156	0	35854	
4157	0	38300	
4158	0	39560	
4159	0	38296	
4160	0	35116	
4161	0	31088	
4162	0	27014	
4163	0	24020	
4164	0	21962	
4165	0	20764	
4166	0	20220	
4167	0	20173	
4168	0	20304	
4169	0	20096	
4170	0	19628	
4171	0	18808	
4172	0	18452	
4173	0	19232	
4174	0	20812	
4175	0	22316	
4176	0	23156	
4177	0	23390	
4178	0	23108	
4179	0	22432	
4180	0	21444	
4181	0	21088	
4182	0	21808	
4183	0	23456	
4184	0	25312	
4185	0	26420	
4186	0	26204	
4187	0	24756	
4188	0	22688	
4189	0	20604	
4190	0	18445	
4191	0	16485	
4192	0	14880	
4193	0	13793	
4194	0	13500	
4195	0	13772	
4196	0	14214	
4197	0	15150	
4198	0	17046	
4199	0	19856	
4200	0	23512	
4201	0	28284	
4202	0	34544	
4203	0	42140	
4204	0	49772	
4205	0	56260	
4206	0	60300	
4207	0	62496	
4208	0	63660	
4209	0	64256	
4210	0	64518	
4211	0	64604	
4212	0	64580	
4213	0	64536	
4214	0	64436	
4215	0	64272	
4216	0	57412	
4217	0	50732	
4218	0	44200	
4219	0	37720	
4220	0	30820	
4221	0	23180	
4222	0	15772	
4223	0	9248	
4224	0	4804	
4225	0	2431	
4226	0	1197	
4227	0	589	
4228	0	324	
4229	0	239	
4230	0	255	
4231	0	323	
4232	0	417	
4233	0	530	
4234	0	645	
4235	0	770	
4236	0	895	
4237	0	1022	
4238	0	1152	
4239	0	1278	
4240	0	1402	
4241	0	1530	
4242	0	2216	
4243	0	4865	
4244	0	6721	
4245	0	7906	
4246	0	8516	
4247	0	8254	
4248	0	6864	
4249	0	4604	
4250	0	3504	
4251	0	3068	
4252	0	2938	
4253	0	2940	
4254	0	3004	
4255	0	3096	
4256	0	3196	
4257	0	3300	
4258	0	3404	
4259	0	4373	
4260	0	10044	
4261	0	15724	
4262	0	21452	
4263	0	26868	
4264	0	31744	
4265	0	35956	
4266	0	39600	
4267	0	42808	
4268	0	45504	
4269	0	47600	
4270	0	49224	
4271	0	50600	
4272	0	51572	
4273	0	52264	
4274	0	52768	
4275	0	53420	
4276	0	54200	
4277	0	54944	
4278	0	56044	
4279	0	57612	
4280	0	59112	
4281	0	60228	
4282	0	61124	
4283	0	61752	
4284	0	62208	
4285	0	62648	
4286	0	62914	
4287	0	62976	
4288	0	62604	
4289	0	62208	
4290	0	61744	
4291	0	61048	
4292	0	60264	
4293	0	59324	
4294	0	58144	
4295	0	56912	
4296	0	55872	
4297	0	54848	
4298	0	53740	
4299	0	52384	
4300	0	50928	
4301	0	49600	
4302	0	48264	
4303	0	46764	
4304	0	45344	
4305	0	43896	
4306	0	42628	
4307	0	41760	
4308	0	41280	
4309	0	41128	
4310	0	41280	
4311	0	41792	
4312	0	42860	
4313	0	44468	
4314	0	45180	
4315	0	44696	
4316	0	43216	
4317	0	41368	
4318	0	39620	
4319	0	38176	
4320	0	36900	
4321	0	35908	
4322	0	34984	
4323	0	34088	
4324	0	33416	
4325	0	32824	
4326	0	32392	
4327	0	32100	
4328	0	31872	
4329	0	31668	
4330	0	31594	
4331	0	31472	
4332	0	31368	
4333	0	31312	
4334	0	31378	
4335	0	31536	
4336	0	31684	
4337	0	31952	
4338	0	32308	
4339	0	32668	
4340	0	32886	
4341	0	32784	
4342	0	32700	
4343	0	32632	
4344	0	32816	
4345	0	33052	
4346	0	33220	
4347	0	33328	
4348	0	33412	
4349	0	33520	
4350	0	33680	
4351	0	34036	
4352	0	34172	
4353	0	33992	
4354	0	33864	
4355	0	33648	
4356	0	33456	
4357	0	33312	
4358	0	33108	
4359	0	32872	
4360	0	32664	
4361	0	32456	
4362	0	32160	
4363	0	31888	
4364	0	31564	
4365	0	31244	
4366	0	30876	
4367	0	30588	
4368	0	30456	
4369	0	30316	
4370	0	30004	
4371	0	29780	
4372	0	29604	
4373	0	29504	
4374	0	29302	
4375	0	29148	
4376	0	29048	
4377	0	28852	
4378	0	28548	
4379	0	28304	
4380	0	28144	
4381	0	27928	
4382	0	27824	
4383	0	27768	
4384	0	27496	
4385	0	27100	
4386	0	26708	
4387	0	26548	
4388	0	26404	
4389	0	25652	
4390	0	25088	
4391	0	24680	
4392	0	24268	
4393	0	23894	
4394	0	23760	
4395	0	23800	
4396	0	23932	
4397	0	24176	
4398	0	24256	
4399	0	24108	
4400	0	23984	
4401	0	24036	
4402	0	24096	
4403	0	24172	
4404	0	24236	
4405	0	24604	
4406	0	25076	
4407	0	25680	
4408	0	26298	
4409	0	26612	
4410	0	26692	
4411	0	26768	
4412	0	26656	
4413	0	26512	
4414	0	26394	
4415	0	26428	
4416	0	26456	
4417	0	26408	
4418	0	26260	
4419	0	26016	
4420	0	25952	
4421	0	25916	
4422	0	25876	
4423	0	26164	
4424	0	26560	
4425	0	26702	
4426	0	26492	
4427	0	26216	
4428	0	25976	
4429	0	25884	
4430	0	25701	
4431	0	25364	
4432	0	25164	
4433	0	25060	
4434	0	25130	
4435	0	25374	
4436	0	25502	
4437	0	25608	
4438	0	25688	
4439	0	25528	
4440	0	25432	
4441	0	25396	
4442	0	25408	
4443	0	25524	
4444	0	25672	
4445	0	25844	
4446	0	25980	
4447	0	26072	
4448	0	25916	
4449	0	25564	
4450	0	25340	
4451	0	25356	
4452	0	25700	
4453	0	26028	
4454	0	26292	
4455	0	26576	
4456	0	26788	
4457	0	26836	
4458	0	26984	
4459	0	27298	
4460	0	27680	
4461	0	27904	
4462	0	28256	
4463	0	28668	
4464	0	29084	
4465	0	29512	
4466	0	29880	
4467	0	29972	
4468	0	29936	
4469	0	29768	
4470	0	29432	
4471	0	28992	
4472	0	28552	
4473	0	28120	
4474	0	27680	
4475	0	27130	
4476	0	26624	
4477	0	26200	
4478	0	25920	
4479	0	25724	
4480	0	25360	
4481	0	24917	
4482	0	24596	
4483	0	24496	
4484	0	24560	
4485	0	24602	
4486	0	24656	
4487	0	24672	
4488	0	24760	
4489	0	24964	
4490	0	25096	
4491	0	25226	
4492	0	25464	
4493	0	25832	
4494	0	26236	
4495	0	26492	
4496	0	26452	
4497	0	26192	
4498	0	25974	
4499	0	25800	
4500	0	25488	
4501	0	24932	
4502	0	24352	
4503	0	24088	
4504	0	24076	
4505	0	24236	
4506	0	24480	
4507	0	24544	
4508	0	24560	
4509	0	24608	
4510	0	24704	
4511	0	24884	
4512	0	24952	
4513	0	25020	
4514	0	25208	
4515	0	25346	
4516	0	25412	
4517	0	25504	
4518	0	25840	
4519	0	26348	
4520	0	26924	
4521	0	27586	
4522	0	28212	
4523	0	28712	
4524	0	29132	
4525	0	29616	
4526	0	30152	
4527	0	30660	
4528	0	31132	
4529	0	31576	
4530	0	32208	
4531	0	32756	
4532	0	33256	
4533	0	33632	
4534	0	33916	
4535	0	34156	
4536	0	34498	
4537	0	34760	
4538	0	35056	
4539	0	35336	
4540	0	35696	
4541	0	35984	
4542	0	36394	
4543	0	36848	
4544	0	37344	
4545	0	37740	
4546	0	38120	
4547	0	38484	
4548	0	38768	
4549	0	39156	
4550	0	39680	
4551	0	40224	
4552	0	40616	
4553	0	40844	
4554	0	40904	
4555	0	40832	
4556	0	40684	
4557	0	40512	
4558	0	40372	
4559	0	40288	
4560	0	40216	
4561	0	40236	
4562	0	40232	
4563	0	40004	
4564	0	39680	
4565	0	39464	
4566	0	39332	
4567	0	39200	
4568	0	39004	
4569	0	38760	
4570	0	38272	
4571	0	37584	
4572	0	36824	
4573	0	36172	
4574	0	35680	
4575	0	35404	
4576	0	35464	
4577	0	35688	
4578	0	36072	
4579	0	36520	
4580	0	37036	
4581	0	37460	
4582	0	37728	
4583	0	37696	
4584	0	37592	
4585	0	37624	
4586	0	37696	
4587	0	37800	
4588	0	38056	
4589	0	38480	
4590	0	39064	
4591	0	39884	
4592	0	41078	
4593	0	42384	
4594	0	43736	
4595	0	45096	
4596	0	46428	
4597	0	47844	
4598	0	49464	
4599	0	51316	
4600	0	53444	
4601	0	55776	
4602	0	58220	
4603	0	60824	
4604	0	63320	
4605	0	64756	
4606	0	65472	
4607	0	65535	
4608	0	65535	
4609	0	65535	
4610	0	65535	
4611	0	65535	
4612	0	65535	
4613	0	65535	
4614	0	65535	
4615	0	65376	
4616	0	65240	
4617	0	65116	
4618	0	64984	
4619	0	64864	
4620	0	64736	
4621	0	64604	
4622	0	64480	
4623	0	64368	
4624	0	64232	
4625	0	64104	
4626	0	61092	
4627	0	57444	
4628	0	54648	
4629	0	52072	
4630	0	49372	
4631	0	46344	
4632	0	42800	
4633	0	40040	
4634	0	38560	
4635	0	37932	
4636	0	37876	
4637	0	38128	
4638	0	37600	
4639	0	36272	
4640	0	34496	
4641	0	32476	
4642	0	30408	
4643	0	28452	
4644	0	26592	
4645	0	24778	
4646	0	22836	
4647	0	20964	
4648	0	19314	
4649	0	17860	
4650	0	16608	
4651	0	15613	
4652	0	14980	
4653	0	14758	
4654	0	14828	
4655	0	14828	
4656	0	14442	
4657	0	13538	
4658	0	12456	
4659	0	11740	
4660	0	11936	
4661	0	13106	
4662	0	14932	
4663	0	16929	
4664	0	19152	
4665	0	21644	
4666	0	24488	
4667	0	27644	
4668	0	30916	
4669	0	34416	
4670	0	37972	
4671	0	41144	
4672	0	44108	
4673	0	47276	
4674	0	49748	
4675	0	50896	
4676	0	50816	
4677	0	49768	
4678	0	48464	
4679	0	47776	
4680	0	47576	
4681	0	47832	
4682	0	48488	
4683	0	49376	
4684	0	50784	
4685	0	52424	
4686	0	53760	
4687	0	54408	
4688	0	54488	
4689	0	54104	
4690	0	53320	
4691	0	52032	
4692	0	49892	
4693	0	46752	
4694	0	42504	
4695	0	37480	
4696	0	32080	
4697	0	26792	
4698	0	22232	
4699	0	18412	
4700	0	15138	
4701	0	12292	
4702	0	9812	
4703	0	7930	
4704	0	6818	
4705	0	6504	
4706	0	6698	
4707	0	7724	
4708	0	9340	
4709	0	11208	
4710	0	13256	
4711	0	15080	
4712	0	16006	
4713	0	16056	
4714	0	15576	
4715	0	14988	
4716	0	14476	
4717	0	13986	
4718	0	13304	
4719	0	12424	
4720	0	11510	
4721	0	10576	
4722	0	9445	
4723	0	8220	
4724	0	7011	
4725	0	5780	
4726	0	4619	
4727	0	3917	
4728	0	3829	
4729	0	4228	
4730	0	5447	
4731	0	7773	
4732	0	9736	
4733	0	11441	
4734	0	13304	
4735	0	15428	
4736	0	17596	
4737	0	19800	
4738	0	21836	
4739	0	23748	
4740	0	25474	
4741	0	26968	
4742	0	28216	
4743	0	29408	
4744	0	30604	
4745	0	32048	
4746	0	33736	
4747	0	35684	
4748	0	37596	
4749	0	39252	
4750	0	40516	
4751	0	41392	
4752	0	42004	
4753	0	42432	
4754	0	42730	
4755	0	42988	
4756	0	43364	
4757	0	43928	
4758	0	44612	
4759	0	45280	
4760	0	45904	
4761	0	46620	
4762	0	47420	
4763	0	48336	
4764	0	49168	
4765	0	49880	
4766	0	50328	
4767	0	50752	
4768	0	51256	
4769	0	51528	
4770	0	51420	
4771	0	50932	
4772	0	50340	
4773	0	49748	
4774	0	49320	
4775	0	49132	
4776	0	48880	
4777	0	48200	
4778	0	47328	
4779	0	46372	
4780	0	45636	
4781	0	44996	
4782	0	44444	
4783	0	43828	
4784	0	43188	
4785	0	42736	
4786	0	42052	
4787	0	41288	
4788	0	40640	
4789	0	40368	
4790	0	40104	
4791	0	39848	
4792	0	39652	
4793	0	39732	
4794	0	40024	
4795	0	40124	
4796	0	40064	
4797	0	40192	
4798	0	40596	
4799	0	40976	
4800	0	40956	
4801	0	40452	
4802	0	40108	
4803	0	40024	
4804	0	40196	
4805	0	40468	
4806	0	40708	
4807	0	41096	
4808	0	41404	
4809	0	41528	
4810	0	41688	
4811	0	41732	
4812	0	41728	
4813	0	41812	
4814	0	42104	
4815	0	42556	
4816	0	43024	
4817	0	43328	
4818	0	43488	
4819	0	43600	
4820	0	43564	
4821	0	43274	
4822	0	42712	
4823	0	42148	
4824	0	41784	
4825	0	41472	
4826	0	41164	
4827	0	40896	
4828	0	40552	
4829	0	40176	
4830	0	39648	
4831	0	38984	
4832	0	38400	
4833	0	37812	
4834	0	37244	
4835	0	36760	
4836	0	36312	
4837	0	35876	
4838	0	35392	
4839	0	34964	
4840	0	34480	
4841	0	33956	
4842	0	33472	
4843	0	33144	
4844	0	32820	
4845	0	32570	
4846	0	32376	
4847	0	32236	
4848	0	31916	
4849	0	31436	
4850	0	30896	
4851	0	30488	
4852	0	30200	
4853	0	30080	
4854	0	29816	
4855	0	29484	
4856	0	29208	
4857	0	28844	
4858	0	28350	
4859	0	27844	
4860	0	27384	
4861	0	26980	
4862	0	26544	
4863	0	26196	
4864	0	26052	
4865	0	25908	
4866	0	25824	
4867	0	25772	
4868	0	25572	
4869	0	25188	
4870	0	24776	
4871	0	24348	
4872	0	23808	
4873	0	23272	
4874	0	22888	
4875	0	22580	
4876	0	22362	
4877	0	22280	
4878	0	22192	
4879	0	22060	
4880	0	21666	
4881	0	21256	
4882	0	20956	
4883	0	20824	
4884	0	20712	
4885	0	20528	
4886	0	20448	
4887	0	20396	
4888	0	20576	
4889	0	20756	
4890	0	20836	
4891	0	20910	
4892	0	21084	
4893	0	21320	
4894	0	21500	
4895	0	21772	
4896	0	22162	
4897	0	22586	
4898	0	22956	
4899	0	23264	
4900	0	23464	
4901	0	23584	
4902	0	23596	
4903	0	23628	
4904	0	23988	
4905	0	24276	
4906	0	24410	
4907	0	24576	
4908	0	24820	
4909	0	25068	
4910	0	25240	
4911	0	25264	
4912	0	25164	
4913	0	25004	
4914	0	24872	
4915	0	24760	
4916	0	24664	
4917	0	24584	
4918	0	24588	
4919	0	24760	
4920	0	24980	
4921	0	25148	
4922	0	25308	
4923	0	25550	
4924	0	25760	
4925	0	26028	
4926	0	26368	
4927	0	26668	
4928	0	26878	
4929	0	27028	
4930	0	27024	
4931	0	26926	
4932	0	26850	
4933	0	26820	
4934	0	26976	
4935	0	27108	
4936	0	27184	
4937	0	27322	
4938	0	27584	
4939	0	27960	
4940	0	28396	
4941	0	28848	
4942	0	29232	
4943	0	29528	
4944	0	29764	
4945	0	30052	
4946	0	30528	
4947	0	31204	
4948	0	31732	
4949	0	32012	
4950	0	32122	
4951	0	32224	
4952	0	32228	
4953	0	32124	
4954	0	32000	
4955	0	31996	
4956	0	32164	
4957	0	32356	
4958	0	32392	
4959	0	32372	
4960	0	32256	
4961	0	32136	
4962	0	32076	
4963	0	31992	
4964	0	31640	
4965	0	31348	
4966	0	31120	
4967	0	30848	
4968	0	30568	
4969	0	30392	
4970	0	30108	
4971	0	29760	
4972	0	29512	
4973	0	29318	
4974	0	29280	
4975	0	29402	
4976	0	29452	
4977	0	29308	
4978	0	29304	
4979	0	29364	
4980	0	29312	
4981	0	29356	
4982	0	29460	
4983	0	29616	
4984	0	29800	
4985	0	30140	
4986	0	30696	
4987	0	31352	
4988	0	31868	
4989	0	32136	
4990	0	32540	
4991	0	33216	
4992	0	33976	
4993	0	34440	
4994	0	34920	
4995	0	35284	
4996	0	35520	
4997	0	35708	
4998	0	35740	
4999	0	35789	
5000	0	36032	
5001	0	36452	
5002	0	37108	
5003	0	37748	
5004	0	38408	
5005	0	39048	
5006	0	39342	
5007	0	39236	
5008	0	39052	
5009	0	38864	
5010	0	38604	
5011	0	38552	
5012	0	38676	
5013	0	38932	
5014	0	39456	
5015	0	39832	
5016	0	40256	
5017	0	40816	
5018	0	41032	
5019	0	41108	
5020	0	41308	
5021	0	41444	
5022	0	41400	
5023	0	41288	
5024	0	41400	
5025	0	42016	
5026	0	42756	
5027	0	43312	
5028	0	43588	
5029	0	43704	
5030	0	43880	
5031	0	44036	
5032	0	44164	
5033	0	44324	
5034	0	44500	
5035	0	44444	
5036	0	44096	
5037	0	43752	
5038	0	43616	
5039	0	43584	
5040	0	43388	
5041	0	43084	
5042	0	42732	
5043	0	42488	
5044	0	42256	
5045	0	41908	
5046	0	41380	
5047	0	40704	
5048	0	39872	
5049	0	39028	
5050	0	38088	
5051	0	36880	
5052	0	35632	
5053	0	34380	
5054	0	33132	
5055	0	32000	
5056	0	31152	
5057	0	30792	
5058	0	30996	
5059	0	31952	
5060	0	33252	
5061	0	35024	
5062	0	36896	
5063	0	38876	
5064	0	40868	
5065	0	42784	
5066	0	44372	
5067	0	45560	
5068	0	46492	
5069	0	47152	
5070	0	47560	
5071	0	47520	
5072	0	47192	
5073	0	46576	
5074	0	45572	
5075	0	44308	
5076	0	43232	
5077	0	42328	
5078	0	41410	
5079	0	40424	
5080	0	39680	
5081	0	39564	
5082	0	39712	
5083	0	39960	
5084	0	40020	
5085	0	39816	
5086	0	39200	
5087	0	38232	
5088	0	37028	
5089	0	35708	
5090	0	34036	
5091	0	32012	
5092	0	29460	
5093	0	26652	
5094	0	24352	
5095	0	23184	
5096	0	23020	
5097	0	23650	
5098	0	25120	
5099	0	27448	
5100	0	30620	
5101	0	34196	
5102	0	37672	
5103	0	40980	
5104	0	44464	
5105	0	48186	
5106	0	51864	
5107	0	55328	
5108	0	58512	
5109	0	60612	
5110	0	61740	
5111	0	62304	
5112	0	62564	
5113	0	62666	
5114	0	62672	
5115	0	62624	
5116	0	62544	
5117	0	62456	
5118	0	62376	
5119	0	62264	
5120	0	58880	
5121	0	51728	
5122	0	44512	
5123	0	37160	
5124	0	29904	
5125	0	22892	
5126	0	16492	
5127	0	10648	
5128	0	5308	
5129	0	1759	
5130	0	24	
5131	0	22	
5132	0	24	
5133	0	25	
5134	0	24	
5135	0	23	
5136	0	22	
5137	0	23	
5138	0	23	
5139	0	23	
5140	0	24	
5141	0	24	
5142	0	22	
5143	0	24	
5144	0	23	
5145	0	23	
5146	0	23	
5147	0	23	
5148	0	23	
5149	0	24	
5150	0	212	
5151	0	343	
5152	0	477	
5153	0	3392	
5154	0	5755	
5155	0	7690	
5156	0	9348	
5157	0	11096	
5158	0	13034	
5159	0	14580	
5160	0	15524	
5161	0	16152	
5162	0	16650	
5163	0	16972	
5164	0	17120	
5165	0	16952	
5166	0	16437	
5167	0	15908	
5168	0	15552	
5169	0	15266	
5170	0	15004	
5171	0	14753	
5172	0	14638	
5173	0	14776	
5174	0	14874	
5175	0	14808	
5176	0	14641	
5177	0	14604	
5178	0	14941	
5179	0	15412	
5180	0	15956	
5181	0	16548	
5182	0	17292	
5183	0	18188	
5184	0	19300	
5185	0	20552	
5186	0	21856	
5187	0	23188	
5188	0	24622	
5189	0	26208	
5190	0	28012	
5191	0	29692	
5192	0	31056	
5193	0	32312	
5194	0	33448	
5195	0	34604	
5196	0	35880	
5197	0	37060	
5198	0	38100	
5199	0	39052	
5200	0	39956	
5201	0	40832	
5202	0	41372	
5203	0	41724	
5204	0	41920	
5205	0	41748	
5206	0	41460	
5207	0	41032	
5208	0	40644	
5209	0	40224	
5210	0	39920	
5211	0	39864	
5212	0	39698	
5213	0	39264	
5214	0	38872	
5215	0	38674	
5216	0	38616	
5217	0	38240	
5218	0	37616	
5219	0	36936	
5220	0	36040	
5221	0	35028	
5222	0	34092	
5223	0	33444	
5224	0	33016	
5225	0	32760	
5226	0	32404	
5227	0	32004	
5228	0	31592	
5229	0	31212	
5230	0	30884	
5231	0	30476	
5232	0	29988	
5233	0	29632	
5234	0	29318	
5235	0	28836	
5236	0	28388	
5237	0	28216	
5238	0	28352	
5239	0	28532	
5240	0	28732	
5241	0	28956	
5242	0	29224	
5243	0	29648	
5244	0	30062	
5245	0	30408	
5246	0	30688	
5247	0	31016	
5248	0	31280	
5249	0	31512	
5250	0	31824	
5251	0	32108	
5252	0	32324	
5253	0	32472	
5254	0	32616	
5255	0	32760	
5256	0	33050	
5257	0	33316	
5258	0	33668	
5259	0	34252	
5260	0	34912	
5261	0	35760	
5262	0	36448	
5263	0	36756	
5264	0	36876	
5265	0	36996	
5266	0	37096	
5267	0	37196	
5268	0	37376	
5269	0	37600	
5270	0	37912	
5271	0	38128	
5272	0	38316	
5273	0	38594	
5274	0	38864	
5275	0	39112	
5276	0	39456	
5277	0	39876	
5278	0	40304	
5279	0	40492	
5280	0	40552	
5281	0	40616	
5282	0	40660	
5283	0	40800	
5284	0	41016	
5285	0	41240	
5286	0	41456	
5287	0	41440	
5288	0	41284	
5289	0	41064	
5290	0	40844	
5291	0	40704	
5292	0	40562	
5293	0	40424	
5294	0	40292	
5295	0	40116	
5296	0	40020	
5297	0	39960	
5298	0	39992	
5299	0	39912	
5300	0	39780	
5301	0	39580	
5302	0	39300	
5303	0	39016	
5304	0	38884	
5305	0	38848	
5306	0	38832	
5307	0	38852	
5308	0	38924	
5309	0	38906	
5310	0	38596	
5311	0	38330	
5312	0	38148	
5313	0	38068	
5314	0	37950	
5315	0	37880	
5316	0	37764	
5317	0	37556	
5318	0	37316	
5319	0	37048	
5320	0	36782	
5321	0	36568	
5322	0	36460	
5323	0	36436	
5324	0	36358	
5325	0	36368	
5326	0	36484	
5327	0	36480	
5328	0	36328	
5329	0	35982	
5330	0	35440	
5331	0	34984	
5332	0	34704	
5333	0	34520	
5334	0	34184	
5335	0	33840	
5336	0	33424	
5337	0	33000	
5338	0	32642	
5339	0	32364	
5340	0	32176	
5341	0	31980	
5342	0	31788	
5343	0	31700	
5344	0	31608	
5345	0	31452	
5346	0	30928	
5347	0	30008	
5348	0	29060	
5349	0	28240	
5350	0	27692	
5351	0	27304	
5352	0	27006	
5353	0	26744	
5354	0	26588	
5355	0	26696	
5356	0	26922	
5357	0	27130	
5358	0	27324	
5359	0	27632	
5360	0	27872	
5361	0	27856	
5362	0	27770	
5363	0	27668	
5364	0	27520	
5365	0	27520	
5366	0	27492	
5367	0	27296	
5368	0	27008	
5369	0	26812	
5370	0	26778	
5371	0	26894	
5372	0	27080	
5373	0	27124	
5374	0	26852	
5375	0	26404	
5376	0	26208	
5377	0	26140	
5378	0	26076	
5379	0	25948	
5380	0	25948	
5381	0	26032	
5382	0	26030	
5383	0	25832	
5384	0	25488	
5385	0	25324	
5386	0	25386	
5387	0	25504	
5388	0	25800	
5389	0	25948	
5390	0	25896	
5391	0	25802	
5392	0	25636	
5393	0	25240	
5394	0	24872	
5395	0	24544	
5396	0	24120	
5397	0	24044	
5398	0	24308	
5399	0	24514	
5400	0	24350	
5401	0	24016	
5402	0	23748	
5403	0	23408	
5404	0	23096	
5405	0	22916	
5406	0	22796	
5407	0	22728	
5408	0	22560	
5409	0	22402	
5410	0	22254	
5411	0	22252	
5412	0	22180	
5413	0	22080	
5414	0	22124	
5415	0	22216	
5416	0	22472	
5417	0	22772	
5418	0	23192	
5419	0	23708	
5420	0	24192	
5421	0	24526	
5422	0	24661	
5423	0	24952	
5424	0	25276	
5425	0	25376	
5426	0	25472	
5427	0	25568	
5428	0	25768	
5429	0	26036	
5430	0	26576	
5431	0	27172	
5432	0	27732	
5433	0	28624	
5434	0	29472	
5435	0	30164	
5436	0	30644	
5437	0	30968	
5438	0	31276	
5439	0	31708	
5440	0	32220	
5441	0	32424	
5442	0	32264	
5443	0	32000	
5444	0	31860	
5445	0	32240	
5446	0	32892	
5447	0	33680	
5448	0	34444	
5449	0	35274	
5450	0	36052	
5451	0	37038	
5452	0	38128	
5453	0	38968	
5454	0	39712	
5455	0	40412	
5456	0	41038	
5457	0	41544	
5458	0	41888	
5459	0	42096	
5460	0	42222	
5461	0	42488	
5462	0	42796	
5463	0	43172	
5464	0	43628	
5465	0	44048	
5466	0	44320	
5467	0	44504	
5468	0	44556	
5469	0	44608	
5470	0	44896	
5471	0	45208	
5472	0	45228	
5473	0	45124	
5474	0	44992	
5475	0	44850	
5476	0	44676	
5477	0	44486	
5478	0	44260	
5479	0	44124	
5480	0	43984	
5481	0	44038	
5482	0	44572	
5483	0	45252	
5484	0	45812	
5485	0	46220	
5486	0	46580	
5487	0	46736	
5488	0	46776	
5489	0	46932	
5490	0	47428	
5491	0	48164	
5492	0	49056	
5493	0	50052	
5494	0	50928	
5495	0	51504	
5496	0	51892	
5497	0	52216	
5498	0	52544	
5499	0	52912	
5500	0	53172	
5501	0	53520	
5502	0	53904	
5503	0	54392	
5504	0	54848	
5505	0	55076	
5506	0	55080	
5507	0	54900	
5508	0	54720	
5509	0	54976	
5510	0	55624	
5511	0	56472	
5512	0	57204	
5513	0	57696	
5514	0	57800	
5515	0	57336	
5516	0	56348	
5517	0	55292	
5518	0	54712	
5519	0	54628	
5520	0	54440	
5521	0	53656	
5522	0	52248	
5523	0	50076	
5524	0	47584	
5525	0	45012	
5526	0	42308	
5527	0	39400	
5528	0	36280	
5529	0	33280	
5530	0	30972	
5531	0	29400	
5532	0	28096	
5533	0	26912	
5534	0	25936	
5535	0	24916	
5536	0	23732	
5537	0	22428	
5538	0	21064	
5539	0	19524	
5540	0	17796	
5541	0	15993	
5542	0	13816	
5543	0	10628	
5544	0	6101	
5545	0	3184	
5546	0	2552	
5547	0	4262	
5548	0	7010	
5549	0	9946	
5550	0	12361	
5551	0	13776	
5552	0	13976	
5553	0	13004	
5554	0	11556	
5555	0	10396	
5556	0	9774	
5557	0	9566	
5558	0	9568	
5559	0	9460	
5560	0	8903	
5561	0	7755	
5562	0	6066	
5563	0	4392	
5564	0	3523	
5565	0	3568	
5566	0	4133	
5567	0	4539	
5568	0	4530	
5569	0	4110	
5570	0	3704	
5571	0	3614	
5572	0	3392	
5573	0	3028	
5574	0	2911	
5575	0	2907	
5576	0	2962	
5577	0	3044	
5578	0	3136	
5579	0	3236	
5580	0	3344	
5581	0	3455	
5582	0	3560	
5583	0	3667	
5584	0	3779	
5585	0	3888	
5586	0	3993	
5587	0	4106	
5588	0	4216	
5589	0	4314	
5590	0	4422	
5591	0	4526	
5592	0	4630	
5593	0	4736	
5594	0	4832	
5595	0	4932	
5596	0	5039	
5597	0	5139	
5598	0	5237	
5599	0	7806	
5600	0	10404	
5601	0	12457	
5602	0	14690	
5603	0	17456	
5604	0	20800	
5605	0	24816	
5606	0	29156	
5607	0	33452	
5608	0	37552	
5609	0	41444	
5610	0	45008	
5611	0	48232	
5612	0	50900	
5613	0	52864	
5614	0	53840	
5615	0	53784	
5616	0	52416	
5617	0	49716	
5618	0	46076	
5619	0	42084	
5620	0	38096	
5621	0	34132	
5622	0	30528	
5623	0	27584	
5624	0	25476	
5625	0	23925	
5626	0	23188	
5627	0	23372	
5628	0	24288	
5629	0	25500	
5630	0	26838	
5631	0	28432	
5632	0	30284	
5633	0	32132	
5634	0	33816	
5635	0	35272	
5636	0	36576	
5637	0	37552	
5638	0	38300	
5639	0	38928	
5640	0	39488	
5641	0	40092	
5642	0	40884	
5643	0	41804	
5644	0	42644	
5645	0	43456	
5646	0	44348	
5647	0	45196	
5648	0	46000	
5649	0	46828	
5650	0	47704	
5651	0	48560	
5652	0	49536	
5653	0	50676	
5654	0	51868	
5655	0	52920	
5656	0	54056	
5657	0	55460	
5658	0	56872	
5659	0	58172	
5660	0	59240	
5661	0	60120	
5662	0	60936	
5663	0	61520	
5664	0	61904	
5665	0	62368	
5666	0	62800	
5667	0	62640	
5668	0	61736	
5669	0	60478	
5670	0	58944	
5671	0	57184	
5672	0	55196	
5673	0	53184	
5674	0	51228	
5675	0	49120	
5676	0	46988	
5677	0	45096	
5678	0	43256	
5679	0	41580	
5680	0	39942	
5681	0	38666	
5682	0	37808	
5683	0	37200	
5684	0	36682	
5685	0	36148	
5686	0	35568	
5687	0	34980	
5688	0	34352	
5689	0	33900	
5690	0	33800	
5691	0	33896	
5692	0	34068	
5693	0	34484	
5694	0	35044	
5695	0	35536	
5696	0	35956	
5697	0	36208	
5698	0	36220	
5699	0	35988	
5700	0	35948	
5701	0	36104	
5702	0	36536	
5703	0	37300	
5704	0	38192	
5705	0	39392	
5706	0	40628	
5707	0	41620	
5708	0	42452	
5709	0	43144	
5710	0	43808	
5711	0	44324	
5712	0	44504	
5713	0	44296	
5714	0	43788	
5715	0	43276	
5716	0	42936	
5717	0	42620	
5718	0	42072	
5719	0	41532	
5720	0	41216	
5721	0	41352	
5722	0	42012	
5723	0	43072	
5724	0	44404	
5725	0	45436	
5726	0	46184	
5727	0	46696	
5728	0	47032	
5729	0	47148	
5730	0	46852	
5731	0	46188	
5732	0	45796	
5733	0	46388	
5734	0	47416	
5735	0	48108	
5736	0	47976	
5737	0	46900	
5738	0	45072	
5739	0	42528	
5740	0	39924	
5741	0	37344	
5742	0	34804	
5743	0	32896	
5744	0	31908	
5745	0	31532	
5746	0	31640	
5747	0	32344	
5748	0	33588	
5749	0	35232	
5750	0	36704	
5751	0	37692	
5752	0	38080	
5753	0	37900	
5754	0	36988	
5755	0	35472	
5756	0	33528	
5757	0	31596	
5758	0	30200	
5759	0	29424	
5760	0	29336	
5761	0	29676	
5762	0	30140	
5763	0	30652	
5764	0	31408	
5765	0	32412	
5766	0	33340	
5767	0	34060	
5768	0	34500	
5769	0	34808	
5770	0	35144	
5771	0	35632	
5772	0	36300	
5773	0	36964	
5774	0	37488	
5775	0	37892	
5776	0	38280	
5777	0	38520	
5778	0	38636	
5779	0	38712	
5780	0	39040	
5781	0	39184	
5782	0	39156	
5783	0	39216	
5784	0	39556	
5785	0	39944	
5786	0	40644	
5787	0	41324	
5788	0	41688	
5789	0	41784	
5790	0	41648	
5791	0	41276	
5792	0	40578	
5793	0	39532	
5794	0	38384	
5795	0	37304	
5796	0	36348	
5797	0	35908	
5798	0	35904	
5799	0	36072	
5800	0	36520	
5801	0	37212	
5802	0	37636	
5803	0	37576	
5804	0	37108	
5805	0	36096	
5806	0	34656	
5807	0	33148	
5808	0	31682	
5809	0	30756	
5810	0	30228	
5811	0	29700	
5812	0	29168	
5813	0	28852	
5814	0	28688	
5815	0	28800	
5816	0	29218	
5817	0	29728	
5818	0	30328	
5819	0	30656	
5820	0	30704	
5821	0	30476	
5822	0	30020	
5823	0	29184	
5824	0	28128	
5825	0	27148	
5826	0	26388	
5827	0	25968	
5828	0	25836	
5829	0	25768	
5830	0	25812	
5831	0	25920	
5832	0	26048	
5833	0	26236	
5834	0	26392	
5835	0	26548	
5836	0	26680	
5837	0	26824	
5838	0	27048	
5839	0	27228	
5840	0	27320	
5841	0	27324	
5842	0	27116	
5843	0	27000	
5844	0	26932	
5845	0	26812	
5846	0	26464	
5847	0	25848	
5848	0	25488	
5849	0	25472	
5850	0	25648	
5851	0	25792	
5852	0	25700	
5853	0	25452	
5854	0	25356	
5855	0	25296	
5856	0	25296	
5857	0	25348	
5858	0	25320	
5859	0	25396	
5860	0	25496	
5861	0	25478	
5862	0	25356	
5863	0	25228	
5864	0	25096	
5865	0	25016	
5866	0	25048	
5867	0	25028	
5868	0	25312	
5869	0	25648	
5870	0	26120	
5871	0	26704	
5872	0	27072	
5873	0	27580	
5874	0	28357	
5875	0	28856	
5876	0	28616	
5877	0	27868	
5878	0	27272	
5879	0	27100	
5880	0	26928	
5881	0	26348	
5882	0	25844	
5883	0	25792	
5884	0	25868	
5885	0	25754	
5886	0	24960	
5887	0	24056	
5888	0	23248	
5889	0	22742	
5890	0	22942	
5891	0	23496	
5892	0	23938	
5893	0	24216	
5894	0	24416	
5895	0	24748	
5896	0	25120	
5897	0	25392	
5898	0	25776	
5899	0	26592	
5900	0	27404	
5901	0	27668	
5902	0	27848	
5903	0	28216	
5904	0	28588	
5905	0	29220	
5906	0	29980	
5907	0	30576	
5908	0	30880	
5909	0	30660	
5910	0	30116	
5911	0	29250	
5912	0	28552	
5913	0	28040	
5914	0	27424	
5915	0	27124	
5916	0	27072	
5917	0	27440	
5918	0	28684	
5919	0	30272	
5920	0	31644	
5921	0	32776	
5922	0	33408	
5923	0	32988	
5924	0	31494	
5925	0	29144	
5926	0	26356	
5927	0	24106	
5928	0	22524	
5929	0	21578	
5930	0	21268	
5931	0	21496	
5932	0	21969	
5933	0	22544	
5934	0	23436	
5935	0	24410	
5936	0	25362	
5937	0	26088	
5938	0	26748	
5939	0	27592	
5940	0	28542	
5941	0	29672	
5942	0	31076	
5943	0	32436	
5944	0	33688	
5945	0	34820	
5946	0	35694	
5947	0	36312	
5948	0	37006	
5949	0	37812	
5950	0	38532	
5951	0	39384	
5952	0	40616	
5953	0	41900	
5954	0	43108	
5955	0	44280	
5956	0	45328	
5957	0	46044	
5958	0	46512	
5959	0	46636	
5960	0	46240	
5961	0	45700	
5962	0	45332	
5963	0	44964	
5964	0	44748	
5965	0	44896	
5966	0	44464	
5967	0	43360	
5968	0	41812	
5969	0	40028	
5970	0	37872	
5971	0	35136	
5972	0	31728	
5973	0	28454	
5974	0	25972	
5975	0	24380	
5976	0	23324	
5977	0	22496	
5978	0	21873	
5979	0	21540	
5980	0	21304	
5981	0	21184	
5982	0	21036	
5983	0	20684	
5984	0	20128	
5985	0	19260	
5986	0	18112	
5987	0	16724	
5988	0	15420	
5989	0	14644	
5990	0	14174	
5991	0	13774	
5992	0	13352	
5993	0	12801	
5994	0	11904	
5995	0	10826	
5996	0	9805	
5997	0	8698	
5998	0	7576	
5999	0	6382	
6000	0	5114	
6001	0	4457	
6002	0	4160	
6003	0	4046	
6004	0	4035	
6005	0	4080	
6006	0	4150	
6007	0	4240	
6008	0	4329	
6009	0	4428	
6010	0	4524	
6011	0	4624	
6012	0	4728	
6013	0	4828	
6014	0	4931	
6015	0	5032	
6016	0	5132	
6017	0	5229	
6018	0	5333	
6019	0	5430	
6020	0	5540	
6021	0	5635	
6022	0	5731	
6023	0	5826	
6024	0	5930	
6025	0	6018	
6026	0	6116	
6027	0	6214	
6028	0	6306	
6029	0	6402	
6030	0	6488	
6031	0	6588	
6032	0	6684	
6033	0	6769	
6034	0	6860	
6035	0	6952	
6036	0	7043	
6037	0	7129	
6038	0	7214	
6039	0	7316	
6040	0	7392	
6041	0	7481	
6042	0	7568	
6043	0	7650	
6044	0	9718	
6045	0	12975	
6046	0	15968	
6047	0	18524	
6048	0	20356	
6049	0	21316	
6050	0	21868	
6051	0	22228	
6052	0	22728	
6053	0	23384	
6054	0	24060	
6055	0	24608	
6056	0	25141	
6057	0	25652	
6058	0	26032	
6059	0	26472	
6060	0	26774	
6061	0	27168	
6062	0	28052	
6063	0	29328	
6064	0	30768	
6065	0	32332	
6066	0	34120	
6067	0	36136	
6068	0	38240	
6069	0	40224	
6070	0	41548	
6071	0	42028	
6072	0	41788	
6073	0	40980	
6074	0	39728	
6075	0	38368	
6076	0	37452	
6077	0	37040	
6078	0	36948	
6079	0	37120	
6080	0	37520	
6081	0	38260	
6082	0	39132	
6083	0	39964	
6084	0	40616	
6085	0	41336	
6086	0	42256	
6087	0	43456	
6088	0	44868	
6089	0	46304	
6090	0	47576	
6091	0	48892	
6092	0	50224	
6093	0	51516	
6094	0	53144	
6095	0	55508	
6096	0	58696	
6097	0	62108	
6098	0	65088	
6099	0	65535	
6100	0	65535	
6101	0	65535	
6102	0	65535	
6103	0	65535	
6104	0	65535	
6105	0	65535	
6106	0	65535	
6107	0	65535	
6108	0	65535	
6109	0	65535	
6110	0	65535	
6111	0	65535	
6112	0	65535	
6113	0	65535	
6114	0	61732	
6115	0	57432	
6116	0	53824	
6117	0	50992	
6118	0	49284	
6119	0	48124	
6120	0	46840	
6121	0	45344	
6122	0	44012	
6123	0	43028	
6124	0	42312	
6125	0	41820	
6126	0	41306	
6127	0	40896	
6128	0	40924	
6129	0	41156	
6130	0	41272	
6131	0	41384	
6132	0	41216	
6133	0	40916	
6134	0	40728	
6135	0	40060	
6136	0	38896	
6137	0	37264	
6138	0	35112	
6139	0	32800	
6140	0	30924	
6141	0	29628	
6142	0	28948	
6143	0	28884	
6144	0	29484	
6145	0	30640	
6146	0	32108	
6147	0	33552	
6148	0	34868	
6149	0	36020	
6150	0	36492	
6151	0	36324	
6152	0	35420	
6153	0	33768	
6154	0	31840	
6155	0	29748	
6156	0	27864	
6157	0	26234	
6158	0	24930	
6159	0	24180	
6160	0	23904	
6161	0	23898	
6162	0	24128	
6163	0	24232	
6164	0	24164	
6165	0	24064	
6166	0	24064	
6167	0	24188	
6168	0	24280	
6169	0	24268	
6170	0	24294	
6171	0	24152	
6172	0	24068	
6173	0	23976	
6174	0	23568	
6175	0	23008	
6176	0	22449	
6177	0	21864	
6178	0	21350	
6179	0	21216	
6180	0	21728	
6181	0	22538	
6182	0	23588	
6183	0	25144	
6184	0	26790	
6185	0	28160	
6186	0	29180	
6187	0	29712	
6188	0	29712	
6189	0	29648	
6190	0	29582	
6191	0	29498	
6192	0	29144	
6193	0	28608	
6194	0	28212	
6195	0	28276	
6196	0	29008	
6197	0	30308	
6198	0	31448	
6199	0	32596	
6200	0	33776	
6201	0	34654	
6202	0	35172	
6203	0	35308	
6204	0	34784	
6205	0	33820	
6206	0	32868	
6207	0	32372	
6208	0	32002	
6209	0	31572	
6210	0	31384	
6211	0	31560	
6212	0	31856	
6213	0	31828	
6214	0	31776	
6215	0	32016	
6216	0	32356	
6217	0	32592	
6218	0	32912	
6219	0	33436	
6220	0	34136	
6221	0	34528	
6222	0	34492	
6223	0	34168	
6224	0	34062	
6225	0	33992	
6226	0	33668	
6227	0	33308	
6228	0	33120	
6229	0	32988	
6230	0	32808	
6231	0	32456	
6232	0	32084	
6233	0	31712	
6234	0	31560	
6235	0	31604	
6236	0	31764	
6237	0	32300	
6238	0	33056	
6239	0	33860	
6240	0	34528	
6241	0	34780	
6242	0	34712	
6243	0	34676	
6244	0	34786	
6245	0	34836	
6246	0	34684	
6247	0	34336	
6248	0	33856	
6249	0	33480	
6250	0	33380	
6251	0	33712	
6252	0	34228	
6253	0	34804	
6254	0	35184	
6255	0	35504	
6256	0	35752	
6257	0	35692	
6258	0	35424	
6259	0	35216	
6260	0	35290	
6261	0	35660	
6262	0	36184	
6263	0	36524	
6264	0	36312	
6265	0	35868	
6266	0	35368	
6267	0	34600	
6268	0	34176	
6269	0	34180	
6270	0	34352	
6271	0	34276	
6272	0	33632	
6273	0	32712	
6274	0	31716	
6275	0	30724	
6276	0	30060	
6277	0	29792	
6278	0	29792	
6279	0	30364	
6280	0	31266	
6281	0	32144	
6282	0	33416	
6283	0	34724	
6284	0	35604	
6285	0	35796	
6286	0	35172	
6287	0	33956	
6288	0	32532	
6289	0	31356	
6290	0	30696	
6291	0	30528	
6292	0	30672	
6293	0	31024	
6294	0	31904	
6295	0	33320	
6296	0	34588	
6297	0	35204	
6298	0	35352	
6299	0	35060	
6300	0	34436	
6301	0	33288	
6302	0	31594	
6303	0	30280	
6304	0	30048	
6305	0	30328	
6306	0	30732	
6307	0	31328	
6308	0	31976	
6309	0	32232	
6310	0	32056	
6311	0	31604	
6312	0	31120	
6313	0	30768	
6314	0	30712	
6315	0	30956	
6316	0	31560	
6317	0	32250	
6318	0	33024	
6319	0	33892	
6320	0	34314	
6321	0	33872	
6322	0	32884	
6323	0	32136	
6324	0	31724	
6325	0	31856	
6326	0	32620	
6327	0	33472	
6328	0	34104	
6329	0	34652	
6330	0	34528	
6331	0	33716	
6332	0	32872	
6333	0	32188	
6334	0	31532	
6335	0	30876	
6336	0	30116	
6337	0	29664	
6338	0	29784	
6339	0	30348	
6340	0	31252	
6341	0	32252	
6342	0	33040	
6343	0	33600	
6344	0	33996	
6345	0	34212	
6346	0	34124	
6347	0	33848	
6348	0	33444	
6349	0	33088	
6350	0	33036	
6351	0	33428	
6352	0	34304	
6353	0	35356	
6354	0	36344	
6355	0	37344	
6356	0	38388	
6357	0	38640	
6358	0	37984	
6359	0	36892	
6360	0	36044	
6361	0	35256	
6362	0	34248	
6363	0	33728	
6364	0	33792	
6365	0	34112	
6366	0	34346	
6367	0	34252	
6368	0	34336	
6369	0	34906	
6370	0	36264	
6371	0	37976	
6372	0	39308	
6373	0	39564	
6374	0	38810	
6375	0	37364	
6376	0	35168	
6377	0	32824	
6378	0	31488	
6379	0	31632	
6380	0	32320	
6381	0	32756	
6382	0	32784	
6383	0	32428	
6384	0	31624	
6385	0	30616	
6386	0	30196	
6387	0	30272	
6388	0	30728	
6389	0	31328	
6390	0	31760	
6391	0	32304	
6392	0	33262	
6393	0	35052	
6394	0	37262	
6395	0	39568	
6396	0	41364	
6397	0	42268	
6398	0	42100	
6399	0	41088	
6400	0	39864	
6401	0	38348	
6402	0	36484	
6403	0	34272	
6404	0	32132	
6405	0	29908	
6406	0	28148	
6407	0	27216	
6408	0	26804	
6409	0	26852	
6410	0	27400	
6411	0	28186	
6412	0	28464	
6413	0	28252	
6414	0	27716	
6415	0	27092	
6416	0	26036	
6417	0	24536	
6418	0	23250	
6419	0	22368	
6420	0	21144	
6421	0	19352	
6422	0	17049	
6423	0	14492	
6424	0	12240	
6425	0	10860	
6426	0	10650	
6427	0	11576	
6428	0	13080	
6429	0	14662	
6430	0	16204	
6431	0	17624	
6432	0	18736	
6433	0	19796	
6434	0	20628	
6435	0	21492	
6436	0	22464	
6437	0	23304	
6438	0	23988	
6439	0	24180	
6440	0	24288	
6441	0	24414	
6442	0	24726	
6443	0	25380	
6444	0	25902	
6445	0	26020	
6446	0	25796	
6447	0	26128	
6448	0	27204	
6449	0	28944	
6450	0	31084	
6451	0	33512	
6452	0	35964	
6453	0	37912	
6454	0	39512	
6455	0	41076	
6456	0	42560	
6457	0	43808	
6458	0	44624	
6459	0	44724	
6460	0	44108	
6461	0	42900	
6462	0	40612	
6463	0	37984	
6464	0	35488	
6465	0	33116	
6466	0	30736	
6467	0	28560	
6468	0	26940	
6469	0	25824	
6470	0	24952	
6471	0	24417	
6472	0	24284	
6473	0	24652	
6474	0	25248	
6475	0	25720	
6476	0	25908	
6477	0	25862	
6478	0	25524	
6479	0	25108	
6480	0	24904	
6481	0	24964	
6482	0	25386	
6483	0	25976	
6484	0	26610	
6485	0	27220	
6486	0	27636	
6487	0	28296	
6488	0	29348	
6489	0	30400	
6490	0	31500	
6491	0	32776	
6492	0	34532	
6493	0	36420	
6494	0	38064	
6495	0	39412	
6496	0	40092	
6497	0	39844	
6498	0	38336	
6499	0	35776	
6500	0	33116	
6501	0	31124	
6502	0	30240	
6503	0	30460	
6504	0	31344	
6505	0	32416	
6506	0	32956	
6507	0	32852	
6508	0	32436	
6509	0	31948	
6510	0	31248	
6511	0	30402	
6512	0	29834	
6513	0	29488	
6514	0	29440	
6515	0	29722	
6516	0	30302	
6517	0	31008	
6518	0	31984	
6519	0	33124	
6520	0	34440	
6521	0	35624	
6522	0	36336	
6523	0	36476	
6524	0	36248	
6525	0	35728	
6526	0	35296	
6527	0	35416	
6528	0	36172	
6529	0	37012	
6530	0	37684	
6531	0	38244	
6532	0	38272	
6533	0	37620	
6534	0	36928	
6535	0	36836	
6536	0	37088	
6537	0	37512	
6538	0	37940	
6539	0	37852	
6540	0	37452	
6541	0	36876	
6542	0	36272	
6543	0	36388	
6544	0	37352	
6545	0	38672	
6546	0	40104	
6547	0	41256	
6548	0	42040	
6549	0	42636	
6550	0	43036	
6551	0	43236	
6552	0	43336	
6553	0	43456	
6554	0	43832	
6555	0	44080	
6556	0	44080	
6557	0	43848	
6558	0	43640	
6559	0	43684	
6560	0	43632	
6561	0	43664	
6562	0	43840	
6563	0	43956	
6564	0	44032	
6565	0	43928	
6566	0	43704	
6567	0	43536	
6568	0	43828	
6569	0	44480	
6570	0	45256	
6571	0	45876	
6572	0	46004	
6573	0	45336	
6574	0	44092	
6575	0	42488	
6576	0	40644	
6577	0	39220	
6578	0	39088	
6579	0	40284	
6580	0	41676	
6581	0	42268	
6582	0	42200	
6583	0	41664	
6584	0	40488	
6585	0	39130	
6586	0	39056	
6587	0	40352	
6588	0	42332	
6589	0	44480	
6590	0	46632	
6591	0	48768	
6592	0	51108	
6593	0	54048	
6594	0	57488	
6595	0	60744	
6596	0	63060	
6597	0	63704	
6598	0	63492	
6599	0	63404	
6600	0	63260	
6601	0	62984	
6602	0	63132	
6603	0	63816	
6604	0	64328	
6605	0	63514	
6606	0	60976	
6607	0	57280	
6608	0	52836	
6609	0	48300	
6610	0	43880	
6611	0	40008	
6612	0	37456	
6613	0	35988	
6614	0	35052	
6615	0	34212	
6616	0	33504	
6617	0	33304	
6618	0	33884	
6619	0	34804	
6620	0	35636	
6621	0	36104	
6622	0	35956	
6623	0	35364	
6624	0	35044	
6625	0	34976	
6626	0	34740	
6627	0	34860	
6628	0	35648	
6629	0	36800	
6630	0	37880	
6631	0	38752	
6632	0	39636	
6633	0	40280	
6634	0	40836	
6635	0	41064	
6636	0	40648	
6637	0	39898	
6638	0	39128	
6639	0	38100	
6640	0	36256	
6641	0	33828	
6642	0	31796	
6643	0	30768	
6644	0	30240	
6645	0	30036	
6646	0	30764	
6647	0	31980	
6648	0	33044	
6649	0	33772	
6650	0	33940	
6651	0	33136	
6652	0	31212	
6653	0	29048	
6654	0	27408	
6655	0	26344	
6656	0	25824	
6657	0	26418	
6658	0	28820	
6659	0	31802	
6660	0	34420	
6661	0	36288	
6662	0	37088	
6663	0	36384	
6664	0	34240	
6665	0	31408	
6666	0	29874	
6667	0	29388	
6668	0	28708	
6669	0	27616	
6670	0	26224	
6671	0	24416	
6672	0	22260	
6673	0	20444	
6674	0	19365	
6675	0	18832	
6676	0	18450	
6677	0	18318	
6678	0	18152	
6679	0	17920	
6680	0	18288	
6681	0	19484	
6682	0	21156	
6683	0	23592	
6684	0	26836	
6685	0	30692	
6686	0	34692	
6687	0	37408	
6688	0	37544	
6689	0	35112	
6690	0	30844	
6691	0	26256	
6692	0	21856	
6693	0	17996	
6694	0	15688	
6695	0	15652	
6696	0	17694	
6697	0	20712	
6698	0	23548	
6699	0	25872	
6700	0	27608	
6701	0	28004	
6702	0	26648	
6703	0	24332	
6704	0	22465	
6705	0	21780	
6706	0	22516	
6707	0	25532	
6708	0	30480	
6709	0	35708	
6710	0	40592	
6711	0	44372	
6712	0	46192	
6713	0	45004	
6714	0	41340	
6715	0	37104	
6716	0	33624	
6717	0	31248	
6718	0	30076	
6719	0	30004	
6720	0	30832	
6721	0	32412	
6722	0	34108	
6723	0	35050	
6724	0	34900	
6725	0	33660	
6726	0	32400	
6727	0	31564	
6728	0	31736	
6729	0	32708	
6730	0	34276	
6731	0	35796	
6732	0	37008	
6733	0	37828	
6734	0	37528	
6735	0	35988	
6736	0	34490	
6737	0	34212	
6738	0	35224	
6739	0	36868	
6740	0	38476	
6741	0	39476	
6742	0	38950	
6743	0	36796	
6744	0	33772	
6745	0	31240	
6746	0	29288	
6747	0	27876	
6748	0	27408	
6749	0	27564	
6750	0	28004	
6751	0	28440	
6752	0	29338	
6753	0	31104	
6754	0	34592	
6755	0	38432	
6756	0	41232	
6757	0	42400	
6758	0	41044	
6759	0	37204	
6760	0	32192	
6761	0	27492	
6762	0	24232	
6763	0	23064	
6764	0	23680	
6765	0	25260	
6766	0	26508	
6767	0	26880	
6768	0	26828	
6769	0	27128	
6770	0	28682	
6771	0	31184	
6772	0	34444	
6773	0	37788	
6774	0	40576	
6775	0	42824	
6776	0	43384	
6777	0	41664	
6778	0	38660	
6779	0	36152	
6780	0	34584	
6781	0	33196	
6782	0	31424	
6783	0	30152	
6784	0	29636	
6785	0	29876	
6786	0	31976	
6787	0	35400	
6788	0	38920	
6789	0	41884	
6790	0	44296	
6791	0	45920	
6792	0	46800	
6793	0	45632	
6794	0	42836	
6795	0	39812	
6796	0	36468	
6797	0	32704	
6798	0	29248	
6799	0	27392	
6800	0	27936	
6801	0	30008	
6802	0	31780	
6803	0	32876	
6804	0	33320	
6805	0	32490	
6806	0	30848	
6807	0	28864	
6808	0	26844	
6809	0	25584	
6810	0	25066	
6811	0	25488	
6812	0	27092	
6813	0	29700	
6814	0	32568	
6815	0	34832	
6816	0	36416	
6817	0	37772	
6818	0	38272	
6819	0	37120	
6820	0	34880	
6821	0	31788	
6822	0	28920	
6823	0	27156	
6824	0	26520	
6825	0	26908	
6826	0	28060	
6827	0	30316	
6828	0	33244	
6829	0	35788	
6830	0	38106	
6831	0	40696	
6832	0	43052	
6833	0	43804	
6834	0	42020	
6835	0	38648	
6836	0	34488	
6837	0	29338	
6838	0	23852	
6839	0	19236	
6840	0	16992	
6841	0	16746	
6842	0	17740	
6843	0	19394	
6844	0	21092	
6845	0	22896	
6846	0	25324	
6847	0	28776	
6848	0	33240	
6849	0	36944	
6850	0	39176	
6851	0	39728	
6852	0	38760	
6853	0	36572	
6854	0	34232	
6855	0	33138	
6856	0	33240	
6857	0	33584	
6858	0	33540	
6859	0	33276	
6860	0	33226	
6861	0	33500	
6862	0	33856	
6863	0	34632	
6864	0	35716	
6865	0	37096	
6866	0	39048	
6867	0	41148	
6868	0	42772	
6869	0	43688	
6870	0	44056	
6871	0	43880	
6872	0	43156	
6873	0	42456	
6874	0	42932	
6875	0	44644	
6876	0	46636	
6877	0	48652	
6878	0	49996	
6879	0	50668	
6880	0	50568	
6881	0	50088	
6882	0	49776	
6883	0	49404	
6884	0	49500	
6885	0	50324	
6886	0	50604	
6887	0	49324	
6888	0	46396	
6889	0	42472	
6890	0	38168	
6891	0	34004	
6892	0	30500	
6893	0	28110	
6894	0	26800	
6895	0	26004	
6896	0	25640	
6897	0	25448	
6898	0	25068	
6899	0	24513	
6900	0	24028	
6901	0	23652	
6902	0	23316	
6903	0	22938	
6904	0	22644	
6905	0	22494	
6906	0	22588	
6907	0	22990	
6908	0	23608	
6909	0	24244	
6910	0	24880	
6911	0	25468	
6912	0	25884	
6913	0	26252	
6914	0	27060	
6915	0	28352	
6916	0	29784	
6917	0	30936	
6918	0	31584	
6919	0	31804	
6920	0	31904	
6921	0	32012	
6922	0	32104	
6923	0	32228	
6924	0	32300	
6925	0	32268	
6926	0	32044	
6927	0	31578	
6928	0	31040	
6929	0	30504	
6930	0	29868	
6931	0	29168	
6932	0	28420	
6933	0	27728	
6934	0	27112	
6935	0	26508	
6936	0	25972	
6937	0	25456	
6938	0	25022	
6939	0	24648	
6940	0	24360	
6941	0	24184	
6942	0	23968	
6943	0	23640	
6944	0	23342	
6945	0	23128	
6946	0	22985	
6947	0	23012	
6948	0	23156	
6949	0	23244	
6950	0	23404	
6951	0	23780	
6952	0	24084	
6953	0	24360	
6954	0	24660	
6955	0	25068	
6956	0	25436	
6957	0	25716	
6958	0	25904	
6959	0	26076	
6960	0	26260	
6961	0	26364	
6962	0	26396	
6963	0	26476	
6964	0	26620	
6965	0	26890	
6966	0	27172	
6967	0	27424	
6968	0	27780	
6969	0	28250	
6970	0	28748	
6971	0	29198	
6972	0	29640	
6973	0	29962	
6974	0	30104	
6975	0	30116	
6976	0	30168	
6977	0	30312	
6978	0	30612	
6979	0	30968	
6980	0	31304	
6981	0	31448	
6982	0	31348	
6983	0	31064	
6984	0	30812	
6985	0	30604	
6986	0	30272	
6987	0	30056	
6988	0	29872	
6989	0	29568	
6990	0	29344	
6991	0	29296	
6992	0	29180	
6993	0	29054	
6994	0	29032	
6995	0	29260	
6996	0	29564	
6997	0	29676	
6998	0	29632	
6999	0	29480	
7000	0	29164	
7001	0	28608	
7002	0	27928	
7003	0	27220	
7004	0	26604	
7005	0	26120	
7006	0	25664	
7007	0	25180	
7008	0	24864	
7009	0	24404	
7010	0	23908	
7011	0	23628	
7012	0	23500	
7013	0	23496	
7014	0	23648	
7015	0	23864	
7016	0	24066	
7017	0	24360	
7018	0	24548	
7019	0	24636	
7020	0	24652	
7021	0	24704	
7022	0	24676	
7023	0	24528	
7024	0	24368	
7025	0	24122	
7026	0	23760	
7027	0	23396	
7028	0	23106	
7029	0	22974	
7030	0	22940	
7031	0	22902	
7032	0	22876	
7033	0	22872	
7034	0	23022	
7035	0	23544	
7036	0	24186	
7037	0	24576	
7038	0	24954	
7039	0	25416	
7040	0	26040	
7041	0	26792	
7042	0	27564	
7043	0	28310	
7044	0	28820	
7045	0	29268	
7046	0	29703	
7047	0	30112	
7048	0	30404	
7049	0	30668	
7050	0	31076	
7051	0	31646	
7052	0	32162	
7053	0	32384	
7054	0	32328	
7055	0	32252	
7056	0	32084	
7057	0	31764	
7058	0	31388	
7059	0	31004	
7060	0	30560	
7061	0	30184	
7062	0	30020	
7063	0	30088	
7064	0	30102	
7065	0	29760	
7066	0	29268	
7067	0	28716	
7068	0	28120	
7069	0	27632	
7070	0	27296	
7071	0	27256	
7072	0	27380	
7073	0	27584	
7074	0	27964	
7075	0	28400	
7076	0	28772	
7077	0	29084	
7078	0	29456	
7079	0	29896	
7080	0	30232	
7081	0	30616	
7082	0	31296	
7083	0	32396	
7084	0	33692	
7085	0	35088	
7086	0	36580	
7087	0	38456	
7088	0	40616	
7089	0	42936	
7090	0	45292	
7091	0	47660	
7092	0	50008	
7093	0	52184	
7094	0	54268	
7095	0	56156	
7096	0	57896	
7097	0	59892	
7098	0	62416	
7099	0	64968	
7100	0	65535	
7101	0	65535	
7102	0	65535	
7103	0	65535	
7104	0	63208	
7105	0	59472	
7106	0	55228	
7107	0	51028	
7108	0	47248	
7109	0	44352	
7110	0	42460	
7111	0	41388	
7112	0	40844	
7113	0	40780	
7114	0	41124	
7115	0	41708	
7116	0	42400	
7117	0	43412	
7118	0	44568	
7119	0	45668	
7120	0	46652	
7121	0	47288	
7122	0	47656	
7123	0	48012	
7124	0	48276	
7125	0	48408	
7126	0	48268	
7127	0	47996	
7128	0	47728	
7129	0	47552	
7130	0	47236	
7131	0	46952	
7132	0	46592	
7133	0	45928	
7134	0	45052	
7135	0	44060	
7136	0	42932	
7137	0	41876	
7138	0	40816	
7139	0	39680	
7140	0	38600	
7141	0	37520	
7142	0	36212	
7143	0	35032	
7144	0	33952	
7145	0	32836	
7146	0	31504	
7147	0	29968	
7148	0	28636	
7149	0	27344	
7150	0	25796	
7151	0	23964	
7152	0	22120	
7153	0	20346	
7154	0	18821	
7155	0	17644	
7156	0	16834	
7157	0	16352	
7158	0	16100	
7159	0	16040	
7160	0	15992	
7161	0	15948	
7162	0	15580	
7163	0	14920	
7164	0	14061	
7165	0	13345	
7166	0	12988	
7167	0	12834	
7168	0	12888	
7169	0	13080	
7170	0	13234	
7171	0	13448	
7172	0	14000	
7173	0	14876	
7174	0	16092	
7175	0	17404	
7176	0	18764	
7177	0	20122	
7178	0	21388	
7179	0	22368	
7180	0	22656	
7181	0	22068	
7182	0	21290	
7183	0	20968	
7184	0	21088	
7185	0	21500	
7186	0	22112	
7187	0	22964	
7188	0	23984	
7189	0	25232	
7190	0	26632	
7191	0	27996	
7192	0	29210	
7193	0	30244	
7194	0	31000	
7195	0	31508	
7196	0	31768	
7197	0	31888	
7198	0	31880	
7199	0	31564	
7200	0	31052	
7201	0	30296	
7202	0	29528	
7203	0	29260	
7204	0	29552	
7205	0	30132	
7206	0	30940	
7207	0	31752	
7208	0	32528	
7209	0	33324	
7210	0	34332	
7211	0	35468	
7212	0	36500	
7213	0	37352	
7214	0	38112	
7215	0	38704	
7216	0	39164	
7217	0	39420	
7218	0	39498	
7219	0	39436	
7220	0	39288	
7221	0	39008	
7222	0	38748	
7223	0	38848	
7224	0	39076	
7225	0	39288	
7226	0	39524	
7227	0	39716	
7228	0	39988	
7229	0	40448	
7230	0	41208	
7231	0	42144	
7232	0	43168	
7233	0	44224	
7234	0	45188	
7235	0	45940	
7236	0	46492	
7237	0	46964	
7238	0	47304	
7239	0	47428	
7240	0	47484	
7241	0	47408	
7242	0	47312	
7243	0	47172	
7244	0	47020	
7245	0	46788	
7246	0	46344	
7247	0	45788	
7248	0	45268	
7249	0	44752	
7250	0	44120	
7251	0	43380	
7252	0	42464	
7253	0	41496	
7254	0	40524	
7255	0	39572	
7256	0	38728	
7257	0	38228	
7258	0	38032	
7259	0	37972	
7260	0	37792	
7261	0	37672	
7262	0	37800	
7263	0	37992	
7264	0	38124	
7265	0	38240	
7266	0	38176	
7267	0	37980	
7268	0	37776	
7269	0	37556	
7270	0	37308	
7271	0	37092	
7272	0	36908	
7273	0	36800	
7274	0	36868	
7275	0	37048	
7276	0	37276	
7277	0	37444	
7278	0	37440	
7279	0	37332	
7280	0	37212	
7281	0	37136	
7282	0	37112	
7283	0	37114	
7284	0	37052	
7285	0	36832	
7286	0	36592	
7287	0	36408	
7288	0	36308	
7289	0	36298	
7290	0	36328	
7291	0	36292	
7292	0	36136	
7293	0	35968	
7294	0	35940	
7295	0	35852	
7296	0	35768	
7297	0	35644	
7298	0	35440	
7299	0	35224	
7300	0	34946	
7301	0	34464	
7302	0	34036	
7303	0	33796	
7304	0	33444	
7305	0	32944	
7306	0	32372	
7307	0	31956	
7308	0	31658	
7309	0	31616	
7310	0	31772	
7311	0	32184	
7312	0	32890	
7313	0	33666	
7314	0	34500	
7315	0	35324	
7316	0	35860	
7317	0	36254	
7318	0	36640	
7319	0	36940	
7320	0	37314	
7321	0	37716	
7322	0	38088	
7323	0	38248	
7324	0	38212	
7325	0	37946	
7326	0	37724	
7327	0	37568	
7328	0	37608	
7329	0	37832	
7330	0	38104	
7331	0	38304	
7332	0	38506	
7333	0	38724	
7334	0	39016	
7335	0	39300	
7336	0	39748	
7337	0	40348	
7338	0	41084	
7339	0	41825	
7340	0	42352	
7341	0	42608	
7342	0	42756	
7343	0	42976	
7344	0	43248	
7345	0	43527	
7346	0	43656	
7347	0	43784	
7348	0	43956	
7349	0	44120	
7350	0	44276	
7351	0	44348	
7352	0	44276	
7353	0	44168	
7354	0	44084	
7355	0	44016	
7356	0	44100	
7357	0	44340	
7358	0	44616	
7359	0	44836	
7360	0	45048	
7361	0	45120	
7362	0	44904	
7363	0	44492	
7364	0	44039	
7365	0	43596	
7366	0	43116	
7367	0	42660	
7368	0	42264	
7369	0	41988	
7370	0	41712	
7371	0	41660	
7372	0	41592	
7373	0	41432	
7374	0	41232	
7375	0	41120	
7376	0	40988	
7377	0	40880	
7378	0	40788	
7379	0	40688	
7380	0	40664	
7381	0	40720	
7382	0	40836	
7383	0	40984	
7384	0	41044	
7385	0	40996	
7386	0	40924	
7387	0	40892	
7388	0	40844	
7389	0	40844	
7390	0	40928	
7391	0	40856	
7392	0	40640	
7393	0	40336	
7394	0	40052	
7395	0	39832	
7396	0	39708	
7397	0	39720	
7398	0	39800	
7399	0	39672	
7400	0	39432	
7401	0	39288	
7402	0	39228	
7403	0	39270	
7404	0	39296	
7405	0	39280	
7406	0	39368	
7407	0	39424	
7408	0	39512	
7409	0	39644	
7410	0	39644	
7411	0	39568	
7412	0	39488	
7413	0	39464	
7414	0	39552	
7415	0	39640	
7416	0	39640	
7417	0	39672	
7418	0	39540	
7419	0	39296	
7420	0	39048	
7421	0	38832	
7422	0	38692	
7423	0	38624	
7424	0	38508	
7425	0	38364	
7426	0	38332	
7427	0	38312	
7428	0	38284	
7429	0	38148	
7430	0	38168	
7431	0	38464	
7432	0	38864	
7433	0	39200	
7434	0	39340	
7435	0	39336	
7436	0	39236	
7437	0	39208	
7438	0	39348	
7439	0	39498	
7440	0	39592	
7441	0	39584	
7442	0	39404	
7443	0	39104	
7444	0	38836	
7445	0	38600	
7446	0	38356	
7447	0	38056	
7448	0	37800	
7449	0	37612	
7450	0	37400	
7451	0	37216	
7452	0	37040	
7453	0	36840	
7454	0	36744	
7455	0	36728	
7456	0	36716	
7457	0	36588	
7458	0	36396	
7459	0	36188	
7460	0	35962	
7461	0	35720	
7462	0	35512	
7463	0	35324	
7464	0	35136	
7465	0	34876	
7466	0	34526	
7467	0	34386	
7468	0	34248	
7469	0	34104	
7470	0	33976	
7471	0	34004	
7472	0	34052	
7473	0	33936	
7474	0	33520	
7475	0	33056	
7476	0	32624	
7477	0	32272	
7478	0	31960	
7479	0	31690	
7480	0	31488	
7481	0	31532	
7482	0	31804	
7483	0	32284	
7484	0	32444	
7485	0	32506	
7486	0	32488	
7487	0	32220	
7488	0	31976	
7489	0	31832	
7490	0	31808	
7491	0	31936	
7492	0	32088	
7493	0	32184	
7494	0	32196	
7495	0	32136	
7496	0	32224	
7497	0	32668	
7498	0	33308	
7499	0	33864	
7500	0	34240	
7501	0	34446	
7502	0	34620	
7503	0	34824	
7504	0	34872	
7505	0	34888	
7506	0	34892	
7507	0	34764	
7508	0	34794	
7509	0	35188	
7510	0	35832	
7511	0	36592	
7512	0	37392	
7513	0	38052	
7514	0	38662	
7515	0	39072	
7516	0	39440	
7517	0	39984	
7518	0	40568	
7519	0	40712	
7520	0	40112	
7521	0	38812	
7522	0	37056	
7523	0	35128	
7524	0	33232	
7525	0	31528	
7526	0	29780	
7527	0	27868	
7528	0	25888	
7529	0	23992	
7530	0	22284	
7531	0	20912	
7532	0	19744	
7533	0	18684	
7534	0	17860	
7535	0	17312	
7536	0	16744	
7537	0	15854	
7538	0	14824	
7539	0	13856	
7540	0	12990	
7541	0	12181	
7542	0	11574	
7543	0	11005	
7544	0	10318	
7545	0	9685	
7546	0	9162	
7547	0	8664	
7548	0	8246	
7549	0	7945	
7550	0	7894	
7551	0	8022	
7552	0	8113	
7553	0	8372	
7554	0	8748	
7555	0	9017	
7556	0	9216	
7557	0	9618	
7558	0	9826	
7559	0	9770	
7560	0	9544	
7561	0	9228	
7562	0	9096	
7563	0	9181	
7564	0	9421	
7565	0	9834	
7566	0	10622	
7567	0	11450	
7568	0	12356	
7569	0	13268	
7570	0	14048	
7571	0	14664	
7572	0	15352	
7573	0	16204	
7574	0	17248	
7575	0	18608	
7576	0	20284	
7577	0	22220	
7578	0	24288	
7579	0	26408	
7580	0	28696	
7581	0	31204	
7582	0	33784	
7583	0	36528	
7584	0	39264	
7585	0	41800	
7586	0	44092	
7587	0	46148	
7588	0	48016	
7589	0	49896	
7590	0	51864	
7591	0	53620	
7592	0	54932	
7593	0	55668	
7594	0	55584	
7595	0	54184	
7596	0	51244	
7597	0	47288	
7598	0	42656	
7599	0	37908	
7600	0	33676	
7601	0	30216	
7602	0	27792	
7603	0	26312	
7604	0	25548	
7605	0	25220	
7606	0	25408	
7607	0	25912	
7608	0	26408	
7609	0	26982	
7610	0	27734	
7611	0	28708	
7612	0	29958	
7613	0	31224	
7614	0	32448	
7615	0	33268	
7616	0	33680	
7617	0	33932	
7618	0	34200	
7619	0	34460	
7620	0	34788	
7621	0	35064	
7622	0	35138	
7623	0	35168	
7624	0	35152	
7625	0	35180	
7626	0	35440	
7627	0	35852	
7628	0	36308	
7629	0	36704	
7630	0	37128	
7631	0	37668	
7632	0	38224	
7633	0	38736	
7634	0	39248	
7635	0	39776	
7636	0	40240	
7637	0	40380	
7638	0	40364	
7639	0	40304	
7640	0	39984	
7641	0	39504	
7642	0	39068	
7643	0	38596	
7644	0	38076	
7645	0	37468	
7646	0	36944	
7647	0	36516	
7648	0	36056	
7649	0	35450	
7650	0	35056	
7651	0	34740	
7652	0	34332	
7653	0	33944	
7654	0	33800	
7655	0	33720	
7656	0	33592	
7657	0	33530	
7658	0	33548	
7659	0	33568	
7660	0	33548	
7661	0	33612	
7662	0	33652	
7663	0	33796	
7664	0	33968	
7665	0	34100	
7666	0	34128	
7667	0	34148	
7668	0	34188	
7669	0	34288	
7670	0	34496	
7671	0	34752	
7672	0	35072	
7673	0	35404	
7674	0	35696	
7675	0	35940	
7676	0	36180	
7677	0	36588	
7678	0	37024	
7679	0	37416	
7680	0	37604	
7681	0	37600	
7682	0	37792	
7683	0	38028	
7684	0	38256	
7685	0	38488	
7686	0	38648	
7687	0	38716	
7688	0	38676	
7689	0	38724	
7690	0	38896	
7691	0	39120	
7692	0	39188	
7693	0	39144	
7694	0	39024	
7695	0	38752	
7696	0	38588	
7697	0	38496	
7698	0	38288	
7699	0	38088	
7700	0	37888	
7701	0	37672	
7702	0	37484	
7703	0	37456	
7704	0	37478	
7705	0	37492	
7706	0	37440	
7707	0	37376	
7708	0	37296	
7709	0	37112	
7710	0	36948	
7711	0	36722	
7712	0	36424	
7713	0	36200	
7714	0	36076	
7715	0	36026	
7716	0	36076	
7717	0	36168	
7718	0	36228	
7719	0	36244	
7720	0	36248	
7721	0	36224	
7722	0	36112	
7723	0	35996	
7724	0	35880	
7725	0	35744	
7726	0	35664	
7727	0	35640	
7728	0	35704	
7729	0	35818	
7730	0	35978	
7731	0	36078	
7732	0	36108	
7733	0	36120	
7734	0	36100	
7735	0	35966	
7736	0	35900	
7737	0	36040	
7738	0	36264	
7739	0	36450	
7740	0	36564	
7741	0	36588	
7742	0	36600	
7743	0	36744	
7744	0	36954	
7745	0	37060	
7746	0	36980	
7747	0	36892	
7748	0	36752	
7749	0	36602	
7750	0	36520	
7751	0	36608	
7752	0	36820	
7753	0	37088	
7754	0	37376	
7755	0	37596	
7756	0	37728	
7757	0	37716	
7758	0	37656	
7759	0	37612	
7760	0	37500	
7761	0	37452	
7762	0	37528	
7763	0	37758	
7764	0	38100	
7765	0	38408	
7766	0	38480	
7767	0	38420	
7768	0	38326	
7769	0	38204	
7770	0	38084	
7771	0	37968	
7772	0	37796	
7773	0	37644	
7774	0	37568	
7775	0	37552	
7776	0	37464	
7777	0	37336	
7778	0	37116	
7779	0	36892	
7780	0	36798	
7781	0	36724	
7782	0	36684	
7783	0	36673	
7784	0	36628	
7785	0	36568	
7786	0	36456	
7787	0	36296	
7788	0	36072	
7789	0	35796	
7790	0	35676	
7791	0	35476	
7792	0	35208	
7793	0	34826	
7794	0	34596	
7795	0	34480	
7796	0	34480	
7797	0	34536	
7798	0	34640	
7799	0	34760	
7800	0	34960	
7801	0	35176	
7802	0	35360	
7803	0	35340	
7804	0	35206	
7805	0	35004	
7806	0	34756	
7807	0	34768	
7808	0	34824	
7809	0	34828	
7810	0	34728	
7811	0	34696	
7812	0	34860	
7813	0	34896	
7814	0	34828	
7815	0	34712	
7816	0	34584	
7817	0	34424	
7818	0	34416	
7819	0	34560	
7820	0	34656	
7821	0	34688	
7822	0	34720	
7823	0	34796	
7824	0	34926	
7825	0	35096	
7826	0	35264	
7827	0	35468	
7828	0	35514	
7829	0	35512	
7830	0	35580	
7831	0	35668	
7832	0	35616	
7833	0	35496	
7834	0	35440	
7835	0	35336	
7836	0	35148	
7837	0	35156	
7838	0	35316	
7839	0	35328	
7840	0	35296	
7841	0	35120	
7842	0	34808	
7843	0	34660	
7844	0	34672	
7845	0	34744	
7846	0	34796	
7847	0	34972	
7848	0	34980	
7849	0	34812	
7850	0	34674	
7851	0	34564	
7852	0	34484	
7853	0	34416	
7854	0	34352	
7855	0	34272	
7856	0	34136	
7857	0	34084	
7858	0	34030	
7859	0	33996	
7860	0	33712	
7861	0	33248	
7862	0	32836	
7863	0	32472	
7864	0	32132	
7865	0	31860	
7866	0	31972	
7867	0	32004	
7868	0	31684	
7869	0	31308	
7870	0	31032	
7871	0	30714	
7872	0	30588	
7873	0	30530	
7874	0	30208	
7875	0	29896	
7876	0	29712	
7877	0	29514	
7878	0	29272	
7879	0	29012	
7880	0	28876	
7881	0	28794	
7882	0	28776	
7883	0	28768	
7884	0	28812	
7885	0	28712	
7886	0	28672	
7887	0	28640	
7888	0	28528	
7889	0	28424	
7890	0	28492	
7891	0	28564	
7892	0	28544	
7893	0	28456	
7894	0	28408	
7895	0	28292	
7896	0	28036	
7897	0	27864	
7898	0	27800	
7899	0	27904	
7900	0	27988	
7901	0	27948	
7902	0	27792	
7903	0	27688	
7904	0	27520	
7905	0	27236	
7906	0	26988	
7907	0	26740	
7908	0	26460	
7909	0	26276	
7910	0	26184	
7911	0	26120	
7912	0	26172	
7913	0	26272	
7914	0	26332	
7915	0	26412	
7916	0	26508	
7917	0	26512	
7918	0	26592	
7919	0	26692	
7920	0	26672	
7921	0	26732	
7922	0	26824	
7923	0	27004	
7924	0	27244	
7925	0	27436	
7926	0	27606	
7927	0	27736	
7928	0	27826	
7929	0	27852	
7930	0	27896	
7931	0	28052	
7932	0	28082	
7933	0	28080	
7934	0	28116	
7935	0	28028	
7936	0	27992	
7937	0	28084	
7938	0	28180	
7939	0	28448	
7940	0	28824	
7941	0	29108	
7942	0	29204	
7943	0	29332	
7944	0	29492	
7945	0	29698	
7946	0	30000	
7947	0	30344	
7948	0	30804	
7949	0	31460	
7950	0	32256	
7951	0	33072	
7952	0	33792	
7953	0	34368	
7954	0	34892	
7955	0	35412	
7956	0	35952	
7957	0	36348	
7958	0	36520	
7959	0	36560	
7960	0	36548	
7961	0	36416	
7962	0	36180	
7963	0	35848	
7964	0	35296	
7965	0	34860	
7966	0	34708	
7967	0	34884	
7968	0	35360	
7969	0	35868	
7970	0	36400	
7971	0	37112	
7972	0	37724	
7973	0	38172	
7974	0	38458	
7975	0	38500	
7976	0	38336	
7977	0	38168	
7978	0	38012	
7979	0	37792	
7980	0	37712	
7981	0	37768	
7982	0	37772	
7983	0	37628	
7984	0	37400	
7985	0	37164	
7986	0	37020	
7987	0	36932	
7988	0	36872	
7989	0	36856	
7990	0	36880	
7991	0	36836	
7992	0	36656	
7993	0	36448	
7994	0	36264	
7995	0	36116	
7996	0	35960	
7997	0	35816	
7998	0	35756	
7999	0	35808	
8000	0	35984	
8001	0	36024	
8002	0	35928	
8003	0	35880	
8004	0	35932	
8005	0	36068	
8006	0	36140	
8007	0	36160	
8008	0	36160	
8009	0	36144	
8010	0	36144	
8011	0	36264	
8012	0	36504	
8013	0	36720	
8014	0	36860	
8015	0	36836	
8016	0	36660	
8017	0	36476	
8018	0	36384	
8019	0	36258	
8020	0	36000	
8021	0	35712	
8022	0	35420	
8023	0	35212	
8024	0	34874	
8025	0	34552	
8026	0	34256	
8027	0	33956	
8028	0	33665	
8029	0	33456	
8030	0	33252	
8031	0	33024	
8032	0	32784	
8033	0	32560	
8034	0	32416	
8035	0	32248	
8036	0	31848	
8037	0	31464	
8038	0	31244	
8039	0	31244	
8040	0	31144	
8041	0	30970	
8042	0	30782	
8043	0	30668	
8044	0	30426	
8045	0	30226	
8046	0	29892	
8047	0	29576	
8048	0	29242	
8049	0	29000	
8050	0	28968	
8051	0	28860	
8052	0	28648	
8053	0	28496	
8054	0	28400	
8055	0	28300	
8056	0	28120	
8057	0	28012	
8058	0	27884	
8059	0	27776	
8060	0	27708	
8061	0	27636	
8062	0	27524	
8063	0	27488	
8064	0	27408	
8065	0	27392	
8066	0	27332	
8067	0	27200	
8068	0	27128	
8069	0	27128	
8070	0	27120	
8071	0	27028	
8072	0	26836	
8073	0	26720	
8074	0	26640	
8075	0	26576	
8076	0	26608	
8077	0	26588	
8078	0	26588	
8079	0	26588	
8080	0	26672	
8081	0	26860	
8082	0	27012	
8083	0	26988	
8084	0	26852	
8085	0	26648	
8086	0	26460	
8087	0	26448	
8088	0	26540	
8089	0	26756	
8090	0	27096	
8091	0	27552	
8092	0	28008	
8093	0	28392	
8094	0	28692	
8095	0	29016	
8096	0	29248	
8097	0	29368	
8098	0	29536	
8099	0	29812	
8100	0	30428	
8101	0	31360	
8102	0	32560	
8103	0	33990	
8104	0	35588	
8105	0	37144	
8106	0	38720	
8107	0	40396	
8108	0	42072	
8109	0	43724	
8110	0	45350	
8111	0	46832	
8112	0	48204	
8113	0	49452	
8114	0	50612	
8115	0	51836	
8116	0	53248	
8117	0	54540	
8118	0	55488	
8119	0	55784	
8120	0	55036	
8121	0	53208	
8122	0	50208	
8123	0	46296	
8124	0	42080	
8125	0	37976	
8126	0	34360	
8127	0	31410	
8128	0	29204	
8129	0	27704	
8130	0	26876	
8131	0	26400	
8132	0	26088	
8133	0	25998	
8134	0	26112	
8135	0	26372	
8136	0	26624	
8137	0	27076	
8138	0	27488	
8139	0	27804	
8140	0	28256	
8141	0	28776	
8142	0	29156	
8143	0	29584	
8144	0	30044	
8145	0	30484	
8146	0	30932	
8147	0	31276	
8148	0	31780	
8149	0	32421	
8150	0	33144	
8151	0	33868	
8152	0	34504	
8153	0	35104	
8154	0	35596	
8155	0	35992	
8156	0	36416	
8157	0	36772	
8158	0	37146	
8159	0	37340	
8160	0	37424	
8161	0	37556	
8162	0	37642	
8163	0	37608	
8164	0	37480	
8165	0	37284	
8166	0	37056	
8167	0	36836	
8168	0	36672	
8169	0	36436	
8170	0	36012	
8171	0	35584	
8172	0	35352	
8173	0	35348	
8174	0	35564	
8175	0	35824	
8176	0	36052	
8177	0	36336	
8178	0	36532	
8179	0	36562	
8180	0	36524	
8181	0	36572	
8182	0	36564	
8183	0	36464	
8184	0	36216	
8185	0	35908	
8186	0	35580	
8187	0	35256	
8188	0	35112	
8189	0	34948	
8190	0	34756	
8191	0	34432	
8192	0	34124	
8193	0	33948	
8194	0	33898	
8195	0	33932	
8196	0	34056	
8197	0	34168	
8198	0	34088	
8199	0	33972	
8200	0	33760	
8201	0	33578	
8202	0	33404	
8203	0	33166	
8204	0	32832	
8205	0	32544	
8206	0	32272	
8207	0	32064	
8208	0	31932	
8209	0	31488	
8210	0	31016	
8211	0	30690	
8212	0	30324	
8213	0	30136	
8214	0	29948	
8215	0	29772	
8216	0	29672	
8217	0	29684	
8218	0	29780	
8219	0	29846	
8220	0	29752	
8221	0	29648	
8222	0	29572	
8223	0	29704	
8224	0	29924	
8225	0	30232	
8226	0	30416	
8227	0	30596	
8228	0	30808	
8229	0	31072	
8230	0	31456	
8231	0	31840	
8232	0	32276	
8233	0	32717	
8234	0	33216	
8235	0	33680	
8236	0	34112	
8237	0	34544	
8238	0	35012	
8239	0	35468	
8240	0	35874	
8241	0	36060	
8242	0	36384	
8243	0	36834	
8244	0	37256	
8245	0	37626	
8246	0	38088	
8247	0	38608	
8248	0	38960	
8249	0	39156	
8250	0	39304	
8251	0	39410	
8252	0	39488	
8253	0	39540	
8254	0	39468	
8255	0	39224	
8256	0	38912	
8257	0	38570	
8258	0	38184	
8259	0	37784	
8260	0	37284	
8261	0	36736	
8262	0	36164	
8263	0	35604	
8264	0	34972	
8265	0	34268	
8266	0	33596	
8267	0	33064	
8268	0	32600	
8269	0	32098	
8270	0	31492	
8271	0	31008	
8272	0	30636	
8273	0	30434	
8274	0	30488	
8275	0	30636	
8276	0	30764	
8277	0	30744	
8278	0	30676	
8279	0	30512	
8280	0	30312	
8281	0	30216	
8282	0	30168	
8283	0	30100	
8284	0	29980	
8285	0	29658	
8286	0	29160	
8287	0	28672	
8288	0	28284	
8289	0	28032	
8290	0	27812	
8291	0	27360	
8292	0	27004	
8293	0	26780	
8294	0	26702	
8295	0	26560	
8296	0	26308	
8297	0	26016	
8298	0	25756	
8299	0	25506	
8300	0	25264	
8301	0	24996	
8302	0	24720	
8303	0	24384	
8304	0	24056	
8305	0	23778	
8306	0	23564	
8307	0	23370	
8308	0	23125	
8309	0	22984	
8310	0	22948	
8311	0	22936	
8312	0	23032	
8313	0	23148	
8314	0	23296	
8315	0	23464	
8316	0	23600	
8317	0	23752	
8318	0	23964	
8319	0	24268	
8320	0	24566	
8321	0	24796	
8322	0	24982	
8323	0	25208	
8324	0	25384	
8325	0	25562	
8326	0	25724	
8327	0	25820	
8328	0	25904	
8329	0	26136	
8330	0	26396	
8331	0	26612	
8332	0	26836	
8333	0	27112	
8334	0	27340	
8335	0	27594	
8336	0	27844	
8337	0	28128	
8338	0	28520	
8339	0	28880	
8340	0	29104	
8341	0	29400	
8342	0	29628	
8343	0	29860	
8344	0	30044	
8345	0	30284	
8346	0	30586	
8347	0	30860	
8348	0	31120	
8349	0	31368	
8350	0	31620	
8351	0	31872	
8352	0	32148	
8353	0	32464	
8354	0	32866	
8355	0	33312	
8356	0	33756	
8357	0	34236	
8358	0	34816	
8359	0	35404	
8360	0	36000	
8361	0	36604	
8362	0	37184	
8363	0	37636	
8364	0	38048	
8365	0	38444	
8366	0	38696	
8367	0	38976	
8368	0	39236	
8369	0	39468	
8370	0	39640	
8371	0	39772	
8372	0	39924	
8373	0	39984	
8374	0	40000	
8375	0	39992	
8376	0	39952	
8377	0	39952	
8378	0	39812	
8379	0	39526	
8380	0	39332	
8381	0	39152	
8382	0	38944	
8383	0	38712	
8384	0	38552	
8385	0	38376	
8386	0	38188	
8387	0	37888	
8388	0	37492	
8389	0	36978	
8390	0	36424	
8391	0	36016	
8392	0	35632	
8393	0	35240	
8394	0	35074	
8395	0	34928	
8396	0	34672	
8397	0	34296	
8398	0	33866	
8399	0	33448	
8400	0	33080	
8401	0	32736	
8402	0	32520	
8403	0	32284	
8404	0	31888	
8405	0	31548	
8406	0	31220	
8407	0	30900	
8408	0	30684	
8409	0	30488	
8410	0	30344	
8411	0	30240	
8412	0	30124	
8413	0	30048	
8414	0	29992	
8415	0	29872	
8416	0	29788	
8417	0	29692	
8418	0	29468	
8419	0	29214	
8420	0	28988	
8421	0	28744	
8422	0	28568	
8423	0	28402	
8424	0	28124	
8425	0	27808	
8426	0	27552	
8427	0	27400	
8428	0	27092	
8429	0	26732	
8430	0	26434	
8431	0	26084	
8432	0	25844	
8433	0	25764	
8434	0	25700	
8435	0	25544	
8436	0	25396	
8437	0	25360	
8438	0	25452	
8439	0	25556	
8440	0	25634	
8441	0	25726	
8442	0	25880	
8443	0	26012	
8444	0	26132	
8445	0	26288	
8446	0	26476	
8447	0	26576	
8448	0	26612	
8449	0	26748	
8450	0	27052	
8451	0	27304	
8452	0	27444	
8453	0	27664	
8454	0	27968	
8455	0	28200	
8456	0	28384	
8457	0	28608	
8458	0	28912	
8459	0	29252	
8460	0	29546	
8461	0	29764	
8462	0	29872	
8463	0	29938	
8464	0	30024	
8465	0	30152	
8466	0	30240	
8467	0	30268	
8468	0	30360	
8469	0	30476	
8470	0	30580	
8471	0	30604	
8472	0	30584	
8473	0	30680	
8474	0	30804	
8475	0	30888	
8476	0	30894	
8477	0	30922	
8478	0	30984	
8479	0	31048	
8480	0	31000	
8481	0	30856	
8482	0	30784	
8483	0	30688	
8484	0	30634	
8485	0	30532	
8486	0	30500	
8487	0	30530	
8488	0	30632	
8489	0	30826	
8490	0	31104	
8491	0	31252	
8492	0	31404	
8493	0	31600	
8494	0	31668	
8495	0	31660	
8496	0	31608	
8497	0	31540	
8498	0	31468	
8499	0	31468	
8500	0	31528	
8501	0	31684	
8502	0	31778	
8503	0	31724	
8504	0	31612	
8505	0	31426	
8506	0	31148	
8507	0	30828	
8508	0	30568	
8509	0	30320	
8510	0	30276	
8511	0	30268	
8512	0	30280	
8513	0	30326	
8514	0	30412	
8515	0	30504	
8516	0	30548	
8517	0	30368	
8518	0	30196	
8519	0	30076	
8520	0	30136	
8521	0	30332	
8522	0	30656	
8523	0	31018	
8524	0	31214	
8525	0	31366	
8526	0	31402	
8527	0	31336	
8528	0	31368	
8529	0	31440	
8530	0	31480	
8531	0	31548	
8532	0	31660	
8533	0	31778	
8534	0	31896	
8535	0	31956	
8536	0	31976	
8537	0	31980	
8538	0	31972	
8539	0	32076	
8540	0	32074	
8541	0	32080	
8542	0	32192	
8543	0	32336	
8544	0	32372	
8545	0	32464	
8546	0	32534	
8547	0	32664	
8548	0	32640	
8549	0	32560	
8550	0	32442	
8551	0	32384	
8552	0	32404	
8553	0	32364	
8554	0	32290	
8555	0	32288	
8556	0	32352	
8557	0	32344	
8558	0	32212	
8559	0	32152	
8560	0	32192	
8561	0	32324	
8562	0	32456	
8563	0	32526	
8564	0	32624	
8565	0	32652	
8566	0	32592	
8567	0	32596	
8568	0	32684	
8569	0	32724	
8570	0	32744	
8571	0	32616	
8572	0	32552	
8573	0	32538	
8574	0	32520	
8575	0	32604	
8576	0	32728	
8577	0	32808	
8578	0	32888	
8579	0	32972	
8580	0	32972	
8581	0	32984	
8582	0	33020	
8583	0	32988	
8584	0	32988	
8585	0	33058	
8586	0	33124	
8587	0	33156	
8588	0	33156	
8589	0	32986	
8590	0	32808	
8591	0	32608	
8592	0	32348	
8593	0	32132	
8594	0	31936	
8595	0	31820	
8596	0	31648	
8597	0	31588	
8598	0	31580	
8599	0	31538	
8600	0	31516	
8601	0	31520	
8602	0	31476	
8603	0	31426	
8604	0	31392	
8605	0	31312	
8606	0	31296	
8607	0	31300	
8608	0	31266	
8609	0	31208	
8610	0	31104	
8611	0	30872	
8612	0	30692	
8613	0	30532	
8614	0	30402	
8615	0	30344	
8616	0	30336	
8617	0	30164	
8618	0	29984	
8619	0	29832	
8620	0	29592	
8621	0	29392	
8622	0	29188	
8623	0	29050	
8624	0	28912	
8625	0	28870	
8626	0	28924	
8627	0	28926	
8628	0	28876	
8629	0	28768	
8630	0	28688	
8631	0	28644	
8632	0	28672	
8633	0	28696	
8634	0	28716	
8635	0	28692	
8636	0	28640	
8637	0	28624	
8638	0	28696	
8639	0	28748	
8640	0	28728	
8641	0	28712	
8642	0	28616	
8643	0	28428	
8644	0	28232	
8645	0	28072	
