# OpenSignals Text File Format. Version 1
# {"00:07:80:4B:15:F7": {"position": 0, "device": "biosignalsplux", "device name": "00:07:80:4B:15:F7", "device connection": "BTH00:07:80:4B:15:F7", "sampling rate": 1000, "resolution": [16], "firmware version": 775, "comments": "", "keywords": "", "mode": 0, "sync interval": 2, "date": "2023-4-11", "time": "15:52:19.77", "channels": [1], "sensor": ["ECG"], "label": ["CH1"], "column": ["nSeq", "DI", "CH1"], "special": [{"SpO2": [80, 40, 5, 4, 3, 3]}, {"SpO2": [80, 40, 5, 4, 3, 3]}, {"SpO2": [80, 40, 5, 4, 3, 3]}, {"SpO2": [80, 40, 5, 4, 3, 3]}, {"SpO2": [80, 40, 5, 4, 3, 3]}, {"SpO2": [80, 40, 5, 4, 3, 3]}, {"SpO2": [80, 40, 5, 4, 3, 3]}, {"SpO2": [80, 40, 5, 4, 3, 3]}], "digital IO": [0, 1], "sleeve color": ["green"], "convertedValues": 0}}
# EndOfHeader
0	0	31524	
1	0	31504	
2	0	31520	
3	0	31576	
4	0	31616	
5	0	31634	
6	0	31618	
7	0	31592	
8	0	31584	
9	0	31528	
10	0	31488	
11	0	31524	
12	0	31540	
13	0	31588	
14	0	31636	
15	0	31640	
16	0	31616	
17	0	31632	
18	0	31652	
19	0	31680	
20	0	31704	
21	0	31712	
22	0	31688	
23	0	31700	
24	0	31760	
25	0	31792	
26	0	31796	
27	0	31792	
28	0	31788	
29	0	31792	
30	0	31808	
31	0	31844	
32	0	31876	
33	0	31900	
34	0	31876	
35	0	31860	
36	0	31856	
37	0	31924	
38	0	31976	
39	0	32032	
40	0	32040	
41	0	32006	
42	0	31960	
43	0	31936	
44	0	31960	
45	0	31984	
46	0	31976	
47	0	31984	
48	0	32008	
49	0	31992	
50	0	32008	
51	0	32024	
52	0	32040	
53	0	32024	
54	0	32012	
55	0	32028	
56	0	32052	
57	0	32044	
58	0	32052	
59	0	32092	
60	0	32152	
61	0	32144	
62	0	32116	
63	0	32144	
64	0	32176	
65	0	32218	
66	0	32248	
67	0	32248	
68	0	32276	
69	0	32266	
70	0	32244	
71	0	32244	
72	0	32244	
73	0	32244	
74	0	32244	
75	0	32236	
76	0	32176	
77	0	32088	
78	0	32084	
79	0	32132	
80	0	32184	
81	0	32192	
82	0	32180	
83	0	32176	
84	0	32208	
85	0	32244	
86	0	32256	
87	0	32240	
88	0	32224	
89	0	32154	
90	0	32068	
91	0	32032	
92	0	32068	
93	0	32160	
94	0	32252	
95	0	32280	
96	0	32344	
97	0	32432	
98	0	32492	
99	0	32542	
100	0	32604	
101	0	32636	
102	0	32612	
103	0	32592	
104	0	32576	
105	0	32544	
106	0	32512	
107	0	32504	
108	0	32512	
109	0	32508	
110	0	32484	
111	0	32432	
112	0	32420	
113	0	32416	
114	0	32430	
115	0	32414	
116	0	32420	
117	0	32444	
118	0	32484	
119	0	32592	
120	0	32720	
121	0	32850	
122	0	32916	
123	0	32940	
124	0	32948	
125	0	33020	
126	0	33100	
127	0	33212	
128	0	33344	
129	0	33500	
130	0	33656	
131	0	33792	
132	0	33872	
133	0	33936	
134	0	33976	
135	0	34024	
136	0	34072	
137	0	34138	
138	0	34200	
139	0	34160	
140	0	34076	
141	0	33956	
142	0	33880	
143	0	33788	
144	0	33728	
145	0	33660	
146	0	33584	
147	0	33468	
148	0	33372	
149	0	33312	
150	0	33272	
151	0	33252	
152	0	33216	
153	0	33178	
154	0	33152	
155	0	33112	
156	0	33060	
157	0	33056	
158	0	33052	
159	0	33044	
160	0	33024	
161	0	32976	
162	0	32928	
163	0	32904	
164	0	32908	
165	0	32912	
166	0	32908	
167	0	32896	
168	0	32864	
169	0	32846	
170	0	32828	
171	0	32800	
172	0	32736	
173	0	32664	
174	0	32612	
175	0	32532	
176	0	32476	
177	0	32474	
178	0	32464	
179	0	32400	
180	0	32316	
181	0	32276	
182	0	32244	
183	0	32212	
184	0	32180	
185	0	32136	
186	0	32108	
187	0	32116	
188	0	32140	
189	0	32148	
190	0	32168	
191	0	32188	
192	0	32220	
193	0	32220	
194	0	32184	
195	0	32144	
196	0	32112	
197	0	32128	
198	0	32156	
199	0	32152	
200	0	32120	
201	0	32088	
202	0	32008	
203	0	32036	
204	0	32068	
205	0	32106	
206	0	32132	
207	0	32112	
208	0	32100	
209	0	32096	
210	0	32136	
211	0	32172	
212	0	32164	
213	0	32132	
214	0	32112	
215	0	32088	
216	0	32096	
217	0	32136	
218	0	32164	
219	0	32216	
220	0	32276	
221	0	32272	
222	0	32224	
223	0	32264	
224	0	32324	
225	0	32372	
226	0	32400	
227	0	32420	
228	0	32412	
229	0	32428	
230	0	32424	
231	0	32416	
232	0	32416	
233	0	32444	
234	0	32428	
235	0	32416	
236	0	32432	
237	0	32432	
238	0	32416	
239	0	32440	
240	0	32432	
241	0	32388	
242	0	32364	
243	0	32354	
244	0	32362	
245	0	32376	
246	0	32392	
247	0	32428	
248	0	32464	
249	0	32484	
250	0	32504	
251	0	32540	
252	0	32584	
253	0	32656	
254	0	32732	
255	0	32744	
256	0	32732	
257	0	32748	
258	0	32744	
259	0	32708	
260	0	32652	
261	0	32536	
262	0	32440	
263	0	32316	
264	0	32220	
265	0	32300	
266	0	32544	
267	0	32848	
268	0	33136	
269	0	33424	
270	0	33712	
271	0	34000	
272	0	34272	
273	0	34444	
274	0	34672	
275	0	34986	
276	0	35480	
277	0	36184	
278	0	36996	
279	0	38032	
280	0	39180	
281	0	40468	
282	0	41880	
283	0	43396	
284	0	44948	
285	0	46612	
286	0	48304	
287	0	49924	
288	0	51372	
289	0	52668	
290	0	53768	
291	0	54830	
292	0	55976	
293	0	57204	
294	0	58256	
295	0	58960	
296	0	58824	
297	0	57460	
298	0	54924	
299	0	51616	
300	0	47768	
301	0	43784	
302	0	39960	
303	0	36676	
304	0	34164	
305	0	32420	
306	0	31360	
307	0	30736	
308	0	30370	
309	0	30172	
310	0	30104	
311	0	30072	
312	0	30028	
313	0	30020	
314	0	30052	
315	0	30076	
316	0	30084	
317	0	30076	
318	0	30080	
319	0	30144	
320	0	30240	
321	0	30392	
322	0	30596	
323	0	30788	
324	0	30920	
325	0	31000	
326	0	31072	
327	0	31098	
328	0	31138	
329	0	31172	
330	0	31176	
331	0	31120	
332	0	31084	
333	0	31040	
334	0	31034	
335	0	31024	
336	0	30984	
337	0	30956	
338	0	30968	
339	0	30968	
340	0	30912	
341	0	30836	
342	0	30812	
343	0	30812	
344	0	30840	
345	0	30864	
346	0	30856	
347	0	30836	
348	0	30812	
349	0	30792	
350	0	30796	
351	0	30832	
352	0	30876	
353	0	30916	
354	0	30952	
355	0	30996	
356	0	31016	
357	0	31048	
358	0	31060	
359	0	31080	
360	0	31084	
361	0	31096	
362	0	31128	
363	0	31136	
364	0	31144	
365	0	31144	
366	0	31124	
367	0	31096	
368	0	31084	
369	0	31088	
370	0	31114	
371	0	31188	
372	0	31228	
373	0	31270	
374	0	31296	
375	0	31316	
376	0	31320	
377	0	31328	
378	0	31346	
379	0	31384	
380	0	31418	
381	0	31408	
382	0	31432	
383	0	31480	
384	0	31496	
385	0	31480	
386	0	31488	
387	0	31510	
388	0	31520	
389	0	31536	
390	0	31572	
391	0	31624	
392	0	31692	
393	0	31756	
394	0	31800	
395	0	31840	
396	0	31860	
397	0	31872	
398	0	31908	
399	0	31964	
400	0	32004	
401	0	32032	
402	0	32052	
403	0	32048	
404	0	32026	
405	0	32020	
406	0	32020	
407	0	32084	
408	0	32128	
409	0	32122	
410	0	32128	
411	0	32156	
412	0	32180	
413	0	32208	
414	0	32276	
415	0	32366	
416	0	32392	
417	0	32400	
418	0	32380	
419	0	32368	
420	0	32400	
421	0	32396	
422	0	32364	
423	0	32362	
424	0	32420	
425	0	32492	
426	0	32504	
427	0	32536	
428	0	32600	
429	0	32640	
430	0	32672	
431	0	32712	
432	0	32716	
433	0	32716	
434	0	32736	
435	0	32792	
436	0	32836	
437	0	32922	
438	0	32992	
439	0	33016	
440	0	33028	
441	0	33032	
442	0	33024	
443	0	33018	
444	0	33020	
445	0	33024	
446	0	33024	
447	0	33016	
448	0	33024	
449	0	33024	
450	0	33032	
451	0	33036	
452	0	33044	
453	0	33074	
454	0	33096	
455	0	33124	
456	0	33116	
457	0	33100	
458	0	33074	
459	0	33052	
460	0	33056	
461	0	33038	
462	0	33032	
463	0	33048	
464	0	33056	
465	0	33056	
466	0	33048	
467	0	33052	
468	0	33096	
469	0	33152	
470	0	33172	
471	0	33196	
472	0	33232	
473	0	33280	
474	0	33304	
475	0	33312	
476	0	33332	
477	0	33368	
478	0	33376	
479	0	33392	
480	0	33400	
481	0	33420	
482	0	33464	
483	0	33476	
484	0	33544	
485	0	33582	
486	0	33632	
487	0	33684	
488	0	33720	
489	0	33736	
490	0	33696	
491	0	33664	
492	0	33668	
493	0	33704	
494	0	33726	
495	0	33736	
496	0	33732	
497	0	33796	
498	0	33856	
499	0	33892	
500	0	33900	
501	0	33940	
502	0	33992	
503	0	34032	
504	0	34072	
505	0	34124	
506	0	34192	
507	0	34260	
508	0	34296	
509	0	34304	
510	0	34316	
511	0	34360	
512	0	34396	
513	0	34440	
514	0	34492	
515	0	34528	
516	0	34560	
517	0	34576	
518	0	34588	
519	0	34552	
520	0	34560	
521	0	34616	
522	0	34664	
523	0	34680	
524	0	34708	
525	0	34716	
526	0	34736	
527	0	34760	
528	0	34800	
529	0	34816	
530	0	34836	
531	0	34856	
532	0	34872	
533	0	34888	
534	0	34912	
535	0	34968	
536	0	35010	
537	0	35064	
538	0	35100	
539	0	35148	
540	0	35224	
541	0	35264	
542	0	35268	
543	0	35260	
544	0	35288	
545	0	35282	
546	0	35272	
547	0	35272	
548	0	35240	
549	0	35232	
550	0	35228	
551	0	35216	
552	0	35208	
553	0	35192	
554	0	35152	
555	0	35136	
556	0	35134	
557	0	35124	
558	0	35104	
559	0	35092	
560	0	35008	
561	0	34892	
562	0	34816	
563	0	34708	
564	0	34624	
565	0	34532	
566	0	34448	
567	0	34376	
568	0	34292	
569	0	34196	
570	0	34084	
571	0	33960	
572	0	33804	
573	0	33692	
574	0	33568	
575	0	33416	
576	0	33264	
577	0	33154	
578	0	33056	
579	0	32932	
580	0	32788	
581	0	32684	
582	0	32600	
583	0	32480	
584	0	32372	
585	0	32272	
586	0	32148	
587	0	32028	
588	0	31900	
589	0	31800	
590	0	31688	
591	0	31556	
592	0	31404	
593	0	31296	
594	0	31184	
595	0	31092	
596	0	31008	
597	0	30932	
598	0	30868	
599	0	30816	
600	0	30680	
601	0	30548	
602	0	30426	
603	0	30368	
604	0	30352	
605	0	30360	
606	0	30348	
607	0	30304	
608	0	30280	
609	0	30272	
610	0	30250	
611	0	30208	
612	0	30160	
613	0	30112	
614	0	30088	
615	0	30068	
616	0	30036	
617	0	29992	
618	0	29956	
619	0	29916	
620	0	29896	
621	0	29880	
622	0	29860	
623	0	29828	
624	0	29824	
625	0	29864	
626	0	29928	
627	0	29976	
628	0	29976	
629	0	29952	
630	0	29928	
631	0	29952	
632	0	29984	
633	0	29996	
634	0	30008	
635	0	30000	
636	0	29992	
637	0	30008	
638	0	30064	
639	0	30066	
640	0	30064	
641	0	30092	
642	0	30120	
643	0	30138	
644	0	30168	
645	0	30208	
646	0	30244	
647	0	30244	
648	0	30248	
649	0	30228	
650	0	30260	
651	0	30304	
652	0	30320	
653	0	30352	
654	0	30360	
655	0	30362	
656	0	30364	
657	0	30404	
658	0	30440	
659	0	30476	
660	0	30496	
661	0	30524	
662	0	30536	
663	0	30560	
664	0	30592	
665	0	30644	
666	0	30696	
667	0	30736	
668	0	30772	
669	0	30792	
670	0	30792	
671	0	30776	
672	0	30744	
673	0	30760	
674	0	30784	
675	0	30812	
676	0	30840	
677	0	30872	
678	0	30896	
679	0	30924	
680	0	30920	
681	0	30888	
682	0	30892	
683	0	30936	
684	0	30968	
685	0	30976	
686	0	31020	
687	0	31016	
688	0	30984	
689	0	30976	
690	0	31036	
691	0	31098	
692	0	31128	
693	0	31120	
694	0	31124	
695	0	31128	
696	0	31152	
697	0	31192	
698	0	31200	
699	0	31220	
700	0	31236	
701	0	31220	
702	0	31244	
703	0	31252	
704	0	31264	
705	0	31292	
706	0	31328	
707	0	31360	
708	0	31368	
709	0	31372	
710	0	31344	
711	0	31308	
712	0	31288	
713	0	31300	
714	0	31328	
715	0	31324	
716	0	31280	
717	0	31296	
718	0	31316	
719	0	31388	
720	0	31440	
721	0	31448	
722	0	31436	
723	0	31450	
724	0	31466	
725	0	31452	
726	0	31460	
727	0	31436	
728	0	31448	
729	0	31404	
730	0	31390	
731	0	31428	
732	0	31488	
733	0	31584	
734	0	31680	
735	0	31728	
736	0	31744	
737	0	31746	
738	0	31738	
739	0	31764	
740	0	31784	
741	0	31812	
742	0	31842	
743	0	31848	
744	0	31884	
745	0	31872	
746	0	31872	
747	0	31860	
748	0	31848	
749	0	31856	
750	0	31880	
751	0	31920	
752	0	31944	
753	0	31968	
754	0	31940	
755	0	31916	
756	0	31932	
757	0	31948	
758	0	31984	
759	0	32048	
760	0	32092	
761	0	32120	
762	0	32128	
763	0	32072	
764	0	32032	
765	0	31992	
766	0	31968	
767	0	31948	
768	0	31952	
769	0	31956	
770	0	31956	
771	0	31972	
772	0	31992	
773	0	32008	
774	0	32040	
775	0	32056	
776	0	32092	
777	0	32048	
778	0	32028	
779	0	32042	
780	0	32072	
781	0	32080	
782	0	32064	
783	0	32044	
784	0	32072	
785	0	32092	
786	0	32100	
787	0	32120	
788	0	32168	
789	0	32208	
790	0	32236	
791	0	32242	
792	0	32260	
793	0	32256	
794	0	32248	
795	0	32224	
796	0	32248	
797	0	32232	
798	0	32224	
799	0	32212	
800	0	32208	
801	0	32208	
802	0	32220	
803	0	32228	
804	0	32232	
805	0	32212	
806	0	32234	
807	0	32236	
808	0	32188	
809	0	32144	
810	0	32170	
811	0	32212	
812	0	32244	
813	0	32264	
814	0	32292	
815	0	32304	
816	0	32280	
817	0	32268	
818	0	32264	
819	0	32280	
820	0	32356	
821	0	32388	
822	0	32396	
823	0	32440	
824	0	32480	
825	0	32560	
826	0	32649	
827	0	32728	
828	0	32756	
829	0	32736	
830	0	32696	
831	0	32684	
832	0	32676	
833	0	32672	
834	0	32640	
835	0	32616	
836	0	32596	
837	0	32584	
838	0	32632	
839	0	32688	
840	0	32684	
841	0	32672	
842	0	32644	
843	0	32600	
844	0	32608	
845	0	32648	
846	0	32688	
847	0	32764	
848	0	32892	
849	0	33058	
850	0	33168	
851	0	33252	
852	0	33356	
853	0	33452	
854	0	33576	
855	0	33728	
856	0	33836	
857	0	33924	
858	0	33976	
859	0	34044	
860	0	34128	
861	0	34180	
862	0	34224	
863	0	34256	
864	0	34276	
865	0	34296	
866	0	34288	
867	0	34232	
868	0	34132	
869	0	34028	
870	0	33936	
871	0	33832	
872	0	33708	
873	0	33594	
874	0	33500	
875	0	33400	
876	0	33308	
877	0	33276	
878	0	33280	
879	0	33280	
880	0	33256	
881	0	33216	
882	0	33180	
883	0	33132	
884	0	33116	
885	0	33084	
886	0	33044	
887	0	33008	
888	0	32972	
889	0	32952	
890	0	32944	
891	0	32968	
892	0	33000	
893	0	33008	
894	0	32996	
895	0	32980	
896	0	32960	
897	0	32944	
898	0	32948	
899	0	32906	
900	0	32824	
901	0	32752	
902	0	32672	
903	0	32580	
904	0	32452	
905	0	32340	
906	0	32248	
907	0	32160	
908	0	32120	
909	0	32104	
910	0	32128	
911	0	32112	
912	0	32092	
913	0	32096	
914	0	32112	
915	0	32148	
916	0	32170	
917	0	32136	
918	0	32100	
919	0	32080	
920	0	32080	
921	0	32108	
922	0	32092	
923	0	32032	
924	0	32016	
925	0	32002	
926	0	32010	
927	0	32008	
928	0	32020	
929	0	32036	
930	0	32074	
931	0	32104	
932	0	32096	
933	0	32064	
934	0	32044	
935	0	32056	
936	0	32094	
937	0	32078	
938	0	32056	
939	0	32088	
940	0	32112	
941	0	32088	
942	0	32064	
943	0	32032	
944	0	31984	
945	0	31956	
946	0	31956	
947	0	31980	
948	0	31984	
949	0	32000	
950	0	32064	
951	0	32116	
952	0	32140	
953	0	32144	
954	0	32112	
955	0	32098	
956	0	32096	
957	0	32128	
958	0	32152	
959	0	32196	
960	0	32264	
961	0	32312	
962	0	32320	
963	0	32336	
964	0	32320	
965	0	32292	
966	0	32272	
967	0	32298	
968	0	32312	
969	0	32304	
970	0	32268	
971	0	32264	
972	0	32248	
973	0	32252	
974	0	32264	
975	0	32292	
976	0	32308	
977	0	32328	
978	0	32336	
979	0	32340	
980	0	32352	
981	0	32384	
982	0	32444	
983	0	32516	
984	0	32556	
985	0	32580	
986	0	32584	
987	0	32560	
988	0	32556	
989	0	32516	
990	0	32488	
991	0	32400	
992	0	32272	
993	0	32144	
994	0	32040	
995	0	32072	
996	0	32256	
997	0	32552	
998	0	32852	
999	0	33204	
1000	0	33562	
1001	0	33856	
1002	0	34052	
1003	0	34180	
1004	0	34432	
1005	0	34784	
1006	0	35340	
1007	0	36036	
1008	0	36820	
1009	0	37768	
1010	0	38868	
1011	0	40136	
1012	0	41528	
1013	0	43000	
1014	0	44524	
1015	0	46132	
1016	0	47720	
1017	0	49296	
1018	0	50720	
1019	0	51916	
1020	0	52976	
1021	0	53984	
1022	0	55112	
1023	0	56296	
1024	0	57280	
1025	0	57840	
1026	0	57544	
1027	0	55952	
1028	0	53272	
1029	0	49912	
1030	0	46156	
1031	0	42308	
1032	0	38740	
1033	0	35716	
1034	0	33460	
1035	0	31988	
1036	0	31040	
1037	0	30484	
1038	0	30140	
1039	0	29900	
1040	0	29816	
1041	0	29808	
1042	0	29788	
1043	0	29788	
1044	0	29816	
1045	0	29856	
1046	0	29932	
1047	0	30020	
1048	0	30100	
1049	0	30216	
1050	0	30392	
1051	0	30564	
1052	0	30744	
1053	0	30880	
1054	0	30960	
1055	0	30996	
1056	0	31024	
1057	0	31032	
1058	0	30996	
1059	0	30964	
1060	0	30924	
1061	0	30888	
1062	0	30852	
1063	0	30776	
1064	0	30744	
1065	0	30744	
1066	0	30720	
1067	0	30692	
1068	0	30656	
1069	0	30624	
1070	0	30592	
1071	0	30588	
1072	0	30616	
1073	0	30644	
1074	0	30680	
1075	0	30696	
1076	0	30712	
1077	0	30732	
1078	0	30752	
1079	0	30752	
1080	0	30760	
1081	0	30776	
1082	0	30796	
1083	0	30832	
1084	0	30866	
1085	0	30892	
1086	0	30888	
1087	0	30912	
1088	0	30976	
1089	0	31008	
1090	0	31036	
1091	0	31060	
1092	0	31056	
1093	0	31100	
1094	0	31120	
1095	0	31116	
1096	0	31104	
1097	0	31112	
1098	0	31076	
1099	0	31072	
1100	0	31084	
1101	0	31100	
1102	0	31132	
1103	0	31160	
1104	0	31192	
1105	0	31208	
1106	0	31236	
1107	0	31272	
1108	0	31336	
1109	0	31404	
1110	0	31416	
1111	0	31484	
1112	0	31536	
1113	0	31580	
1114	0	31620	
1115	0	31664	
1116	0	31692	
1117	0	31722	
1118	0	31760	
1119	0	31824	
1120	0	31874	
1121	0	31916	
1122	0	31940	
1123	0	31940	
1124	0	31940	
1125	0	31928	
1126	0	31944	
1127	0	32008	
1128	0	32028	
1129	0	32020	
1130	0	32000	
1131	0	32028	
1132	0	32064	
1133	0	32104	
1134	0	32128	
1135	0	32176	
1136	0	32184	
1137	0	32180	
1138	0	32192	
1139	0	32184	
1140	0	32208	
1141	0	32248	
1142	0	32296	
1143	0	32304	
1144	0	32256	
1145	0	32268	
1146	0	32344	
1147	0	32388	
1148	0	32448	
1149	0	32496	
1150	0	32572	
1151	0	32616	
1152	0	32624	
1153	0	32632	
1154	0	32636	
1155	0	32656	
1156	0	32664	
1157	0	32708	
1158	0	32720	
1159	0	32728	
1160	0	32732	
1161	0	32740	
1162	0	32764	
1163	0	32792	
1164	0	32840	
1165	0	32886	
1166	0	32908	
1167	0	32940	
1168	0	32984	
1169	0	32964	
1170	0	32944	
1171	0	32936	
1172	0	32972	
1173	0	33020	
1174	0	33052	
1175	0	33102	
1176	0	33168	
1177	0	33128	
1178	0	33080	
1179	0	33096	
1180	0	33120	
1181	0	33116	
1182	0	33138	
1183	0	33188	
1184	0	33248	
1185	0	33304	
1186	0	33352	
1187	0	33392	
1188	0	33456	
1189	0	33504	
1190	0	33512	
1191	0	33468	
1192	0	33420	
1193	0	33400	
1194	0	33404	
1195	0	33420	
1196	0	33424	
1197	0	33426	
1198	0	33480	
1199	0	33558	
1200	0	33628	
1201	0	33648	
1202	0	33664	
1203	0	33672	
1204	0	33704	
1205	0	33744	
1206	0	33768	
1207	0	33780	
1208	0	33780	
1209	0	33812	
1210	0	33816	
1211	0	33808	
1212	0	33824	
1213	0	33852	
1214	0	33872	
1215	0	33888	
1216	0	33904	
1217	0	33944	
1218	0	33976	
1219	0	34000	
1220	0	33992	
1221	0	33992	
1222	0	34008	
1223	0	34056	
1224	0	34080	
1225	0	34100	
1226	0	34152	
1227	0	34248	
1228	0	34302	
1229	0	34330	
1230	0	34320	
1231	0	34320	
1232	0	34320	
1233	0	34320	
1234	0	34352	
1235	0	34400	
1236	0	34456	
1237	0	34508	
1238	0	34548	
1239	0	34592	
1240	0	34612	
1241	0	34624	
1242	0	34648	
1243	0	34672	
1244	0	34672	
1245	0	34696	
1246	0	34718	
1247	0	34744	
1248	0	34764	
1249	0	34784	
1250	0	34804	
1251	0	34832	
1252	0	34860	
1253	0	34872	
1254	0	34868	
1255	0	34896	
1256	0	34920	
1257	0	34952	
1258	0	34948	
1259	0	34940	
1260	0	34924	
1261	0	34920	
1262	0	34912	
1263	0	34904	
1264	0	34896	
1265	0	34920	
1266	0	34940	
1267	0	34976	
1268	0	35016	
1269	0	35064	
1270	0	35124	
1271	0	35232	
1272	0	35308	
1273	0	35368	
1274	0	35392	
1275	0	35364	
1276	0	35316	
1277	0	35280	
1278	0	35280	
1279	0	35280	
1280	0	35288	
1281	0	35260	
1282	0	35220	
1283	0	35200	
1284	0	35156	
1285	0	35100	
1286	0	35046	
1287	0	35012	
1288	0	34992	
1289	0	34946	
1290	0	34890	
1291	0	34796	
1292	0	34688	
1293	0	34592	
1294	0	34476	
1295	0	34336	
1296	0	34216	
1297	0	34088	
1298	0	33988	
1299	0	33874	
1300	0	33778	
1301	0	33692	
1302	0	33584	
1303	0	33476	
1304	0	33384	
1305	0	33280	
1306	0	33172	
1307	0	33066	
1308	0	32960	
1309	0	32808	
1310	0	32648	
1311	0	32560	
1312	0	32484	
1313	0	32408	
1314	0	32324	
1315	0	32208	
1316	0	32104	
1317	0	31996	
1318	0	31884	
1319	0	31784	
1320	0	31668	
1321	0	31572	
1322	0	31456	
1323	0	31340	
1324	0	31220	
1325	0	31088	
1326	0	31008	
1327	0	30932	
1328	0	30876	
1329	0	30840	
1330	0	30802	
1331	0	30736	
1332	0	30650	
1333	0	30592	
1334	0	30548	
1335	0	30508	
1336	0	30444	
1337	0	30400	
1338	0	30356	
1339	0	30328	
1340	0	30288	
1341	0	30272	
1342	0	30248	
1343	0	30240	
1344	0	30204	
1345	0	30180	
1346	0	30172	
1347	0	30148	
1348	0	30120	
1349	0	30132	
1350	0	30124	
1351	0	30096	
1352	0	30080	
1353	0	30104	
1354	0	30080	
1355	0	30092	
1356	0	30116	
1357	0	30128	
1358	0	30120	
1359	0	30088	
1360	0	30076	
1361	0	30068	
1362	0	30068	
1363	0	30044	
1364	0	30024	
1365	0	30034	
1366	0	30064	
1367	0	30112	
1368	0	30156	
1369	0	30232	
1370	0	30276	
1371	0	30320	
1372	0	30376	
1373	0	30416	
1374	0	30440	
1375	0	30448	
1376	0	30476	
1377	0	30496	
1378	0	30504	
1379	0	30568	
1380	0	30616	
1381	0	30628	
1382	0	30656	
1383	0	30712	
1384	0	30720	
1385	0	30728	
1386	0	30804	
1387	0	30832	
1388	0	30856	
1389	0	30872	
1390	0	30888	
1391	0	30924	
1392	0	30944	
1393	0	30992	
1394	0	30972	
1395	0	30944	
1396	0	30912	
1397	0	30896	
1398	0	30912	
1399	0	30912	
1400	0	30916	
1401	0	30948	
1402	0	31020	
1403	0	31088	
1404	0	31136	
1405	0	31154	
1406	0	31164	
1407	0	31172	
1408	0	31222	
1409	0	31256	
1410	0	31260	
1411	0	31264	
1412	0	31256	
1413	0	31264	
1414	0	31252	
1415	0	31266	
1416	0	31274	
1417	0	31300	
1418	0	31298	
1419	0	31296	
1420	0	31296	
1421	0	31316	
1422	0	31312	
1423	0	31320	
1424	0	31332	
1425	0	31328	
1426	0	31340	
1427	0	31350	
1428	0	31360	
1429	0	31442	
1430	0	31512	
1431	0	31512	
1432	0	31528	
1433	0	31544	
1434	0	31568	
1435	0	31618	
1436	0	31632	
1437	0	31640	
1438	0	31650	
1439	0	31676	
1440	0	31660	
1441	0	31652	
1442	0	31660	
1443	0	31668	
1444	0	31648	
1445	0	31636	
1446	0	31644	
1447	0	31640	
1448	0	31648	
1449	0	31664	
1450	0	31674	
1451	0	31692	
1452	0	31704	
1453	0	31728	
1454	0	31736	
1455	0	31732	
1456	0	31760	
1457	0	31764	
1458	0	31760	
1459	0	31794	
1460	0	31788	
1461	0	31756	
1462	0	31720	
1463	0	31712	
1464	0	31692	
1465	0	31672	
1466	0	31680	
1467	0	31714	
1468	0	31784	
1469	0	31800	
1470	0	31832	
1471	0	31890	
1472	0	31920	
1473	0	31904	
1474	0	31932	
1475	0	31928	
1476	0	31928	
1477	0	31956	
1478	0	31976	
1479	0	31984	
1480	0	32026	
1481	0	32040	
1482	0	32000	
1483	0	31956	
1484	0	31960	
1485	0	31932	
1486	0	31940	
1487	0	31972	
1488	0	31972	
1489	0	31936	
1490	0	31940	
1491	0	31912	
1492	0	31872	
1493	0	31856	
1494	0	31872	
1495	0	31872	
1496	0	31848	
1497	0	31872	
1498	0	31908	
1499	0	31972	
1500	0	32020	
1501	0	32032	
1502	0	32000	
1503	0	31936	
1504	0	31916	
1505	0	31884	
1506	0	31864	
1507	0	31848	
1508	0	31844	
1509	0	31864	
1510	0	31896	
1511	0	31896	
1512	0	31872	
1513	0	31840	
1514	0	31800	
1515	0	31756	
1516	0	31764	
1517	0	31824	
1518	0	31876	
1519	0	31906	
1520	0	31908	
1521	0	31954	
1522	0	31992	
1523	0	32016	
1524	0	32040	
1525	0	32012	
1526	0	32000	
1527	0	32024	
1528	0	32028	
1529	0	31998	
1530	0	31968	
1531	0	31948	
1532	0	31948	
1533	0	31956	
1534	0	31954	
1535	0	31968	
1536	0	31972	
1537	0	31984	
1538	0	31996	
1539	0	31976	
1540	0	31960	
1541	0	31968	
1542	0	32008	
1543	0	32044	
1544	0	32072	
1545	0	32068	
1546	0	32032	
1547	0	32028	
1548	0	32052	
1549	0	32064	
1550	0	32120	
1551	0	32168	
1552	0	32160	
1553	0	32088	
1554	0	32072	
1555	0	32128	
1556	0	32252	
1557	0	32328	
1558	0	32368	
1559	0	32360	
1560	0	32320	
1561	0	32280	
1562	0	32256	
1563	0	32232	
1564	0	32204	
1565	0	32200	
1566	0	32182	
1567	0	32164	
1568	0	32148	
1569	0	32148	
1570	0	32176	
1571	0	32200	
1572	0	32220	
1573	0	32258	
1574	0	32304	
1575	0	32304	
1576	0	32336	
1577	0	32388	
1578	0	32392	
1579	0	32344	
1580	0	32272	
1581	0	32196	
1582	0	32136	
1583	0	32100	
1584	0	32080	
1585	0	32100	
1586	0	32156	
1587	0	32216	
1588	0	32240	
1589	0	32312	
1590	0	32424	
1591	0	32508	
1592	0	32580	
1593	0	32628	
1594	0	32648	
1595	0	32664	
1596	0	32668	
1597	0	32662	
1598	0	32620	
1599	0	32544	
1600	0	32560	
1601	0	32608	
1602	0	32604	
1603	0	32520	
1604	0	32464	
1605	0	32444	
1606	0	32496	
1607	0	32542	
1608	0	32504	
1609	0	32420	
1610	0	32444	
1611	0	32464	
1612	0	32480	
1613	0	32548	
1614	0	32664	
1615	0	32792	
1616	0	32904	
1617	0	33052	
1618	0	33162	
1619	0	33252	
1620	0	33320	
1621	0	33412	
1622	0	33554	
1623	0	33632	
1624	0	33704	
1625	0	33736	
1626	0	33764	
1627	0	33808	
1628	0	33880	
1629	0	33944	
1630	0	33936	
1631	0	33890	
1632	0	33884	
1633	0	33836	
1634	0	33776	
1635	0	33744	
1636	0	33692	
1637	0	33616	
1638	0	33512	
1639	0	33356	
1640	0	33232	
1641	0	33124	
1642	0	33064	
1643	0	33060	
1644	0	33036	
1645	0	33000	
1646	0	32964	
1647	0	32896	
1648	0	32836	
1649	0	32800	
1650	0	32776	
1651	0	32760	
1652	0	32796	
1653	0	32840	
1654	0	32852	
1655	0	32824	
1656	0	32772	
1657	0	32780	
1658	0	32816	
1659	0	32868	
1660	0	32896	
1661	0	32890	
1662	0	32860	
1663	0	32788	
1664	0	32704	
1665	0	32577	
1666	0	32544	
1667	0	32548	
1668	0	32576	
1669	0	32576	
1670	0	32560	
1671	0	32516	
1672	0	32428	
1673	0	32288	
1674	0	32228	
1675	0	32170	
1676	0	32120	
1677	0	32058	
1678	0	31992	
1679	0	31928	
1680	0	31916	
1681	0	31948	
1682	0	31984	
1683	0	32012	
1684	0	32056	
1685	0	32096	
1686	0	32080	
1687	0	32052	
1688	0	32028	
1689	0	32012	
1690	0	31992	
1691	0	31988	
1692	0	31920	
1693	0	31824	
1694	0	31772	
1695	0	31760	
1696	0	31768	
1697	0	31852	
1698	0	31960	
1699	0	32028	
1700	0	32072	
1701	0	32048	
1702	0	32028	
1703	0	32028	
1704	0	32032	
1705	0	32058	
1706	0	32096	
1707	0	32148	
1708	0	32168	
1709	0	32172	
1710	0	32196	
1711	0	32216	
1712	0	32244	
1713	0	32272	
1714	0	32264	
1715	0	32248	
1716	0	32208	
1717	0	32204	
1718	0	32184	
1719	0	32192	
1720	0	32154	
1721	0	32144	
1722	0	32148	
1723	0	32156	
1724	0	32164	
1725	0	32164	
1726	0	32144	
1727	0	32156	
1728	0	32180	
1729	0	32180	
1730	0	32176	
1731	0	32180	
1732	0	32220	
1733	0	32248	
1734	0	32322	
1735	0	32416	
1736	0	32444	
1737	0	32392	
1738	0	32360	
1739	0	32324	
1740	0	32304	
1741	0	32256	
1742	0	32268	
1743	0	32274	
1744	0	32280	
1745	0	32292	
1746	0	32344	
1747	0	32392	
1748	0	32416	
1749	0	32408	
1750	0	32408	
1751	0	32412	
1752	0	32400	
1753	0	32352	
1754	0	32248	
1755	0	32068	
1756	0	31932	
1757	0	31860	
1758	0	31920	
1759	0	32136	
1760	0	32444	
1761	0	32716	
1762	0	33044	
1763	0	33368	
1764	0	33664	
1765	0	33836	
1766	0	33968	
1767	0	34196	
1768	0	34520	
1769	0	35056	
1770	0	35800	
1771	0	36724	
1772	0	37748	
1773	0	38864	
1774	0	40196	
1775	0	41680	
1776	0	43192	
1777	0	44776	
1778	0	46392	
1779	0	48052	
1780	0	49776	
1781	0	51296	
1782	0	52648	
1783	0	53764	
1784	0	54800	
1785	0	55888	
1786	0	57024	
1787	0	58040	
1788	0	58608	
1789	0	58388	
1790	0	57024	
1791	0	54528	
1792	0	51226	
1793	0	47448	
1794	0	43472	
1795	0	39680	
1796	0	36364	
1797	0	33724	
1798	0	31932	
1799	0	30816	
1800	0	30100	
1801	0	29580	
1802	0	29168	
1803	0	28932	
1804	0	28956	
1805	0	29104	
1806	0	29324	
1807	0	29480	
1808	0	29588	
1809	0	29646	
1810	0	29696	
1811	0	29776	
1812	0	29860	
1813	0	30028	
1814	0	30232	
1815	0	30448	
1816	0	30656	
1817	0	30796	
1818	0	30880	
1819	0	30944	
1820	0	31016	
1821	0	31086	
1822	0	31128	
1823	0	31184	
1824	0	31224	
1825	0	31256	
1826	0	31210	
1827	0	31192	
1828	0	31136	
1829	0	31024	
1830	0	30884	
1831	0	30800	
1832	0	30754	
1833	0	30760	
1834	0	30768	
1835	0	30776	
1836	0	30728	
1837	0	30732	
1838	0	30752	
1839	0	30752	
1840	0	30788	
1841	0	30808	
1842	0	30816	
1843	0	30868	
1844	0	30888	
1845	0	30932	
1846	0	30920	
1847	0	30908	
1848	0	30916	
1849	0	30964	
1850	0	31004	
1851	0	31032	
1852	0	31080	
1853	0	31096	
1854	0	31128	
1855	0	31144	
1856	0	31184	
1857	0	31220	
1858	0	31248	
1859	0	31248	
1860	0	31252	
1861	0	31236	
1862	0	31194	
1863	0	31176	
1864	0	31200	
1865	0	31232	
1866	0	31320	
1867	0	31380	
1868	0	31416	
1869	0	31464	
1870	0	31516	
1871	0	31508	
1872	0	31520	
1873	0	31532	
1874	0	31552	
1875	0	31580	
1876	0	31632	
1877	0	31636	
1878	0	31676	
1879	0	31692	
1880	0	31708	
1881	0	31720	
1882	0	31728	
1883	0	31744	
1884	0	31736	
1885	0	31712	
1886	0	31738	
1887	0	31822	
1888	0	31868	
1889	0	31916	
1890	0	31948	
1891	0	31968	
1892	0	31992	
1893	0	32000	
1894	0	32004	
1895	0	32020	
1896	0	32064	
1897	0	32112	
1898	0	32140	
1899	0	32144	
1900	0	32184	
1901	0	32256	
1902	0	32336	
1903	0	32408	
1904	0	32436	
1905	0	32444	
1906	0	32444	
1907	0	32456	
1908	0	32452	
1909	0	32404	
1910	0	32384	
1911	0	32390	
1912	0	32436	
1913	0	32464	
1914	0	32490	
1915	0	32476	
1916	0	32504	
1917	0	32576	
1918	0	32624	
1919	0	32644	
1920	0	32686	
1921	0	32736	
1922	0	32708	
1923	0	32720	
1924	0	32768	
1925	0	32764	
1926	0	32720	
1927	0	32704	
1928	0	32744	
1929	0	32764	
1930	0	32736	
1931	0	32704	
1932	0	32672	
1933	0	32664	
1934	0	32708	
1935	0	32748	
1936	0	32744	
1937	0	32792	
1938	0	32890	
1939	0	32960	
1940	0	33020	
1941	0	33064	
1942	0	33116	
1943	0	33152	
1944	0	33184	
1945	0	33192	
1946	0	33200	
1947	0	33216	
1948	0	33228	
1949	0	33236	
1950	0	33232	
1951	0	33280	
1952	0	33300	
1953	0	33300	
1954	0	33328	
1955	0	33364	
1956	0	33412	
1957	0	33432	
1958	0	33428	
1959	0	33428	
1960	0	33468	
1961	0	33508	
1962	0	33568	
1963	0	33632	
1964	0	33688	
1965	0	33704	
1966	0	33664	
1967	0	33600	
1968	0	33524	
1969	0	33504	
1970	0	33520	
1971	0	33556	
1972	0	33560	
1973	0	33568	
1974	0	33632	
1975	0	33704	
1976	0	33688	
1977	0	33640	
1978	0	33638	
1979	0	33696	
1980	0	33728	
1981	0	33752	
1982	0	33788	
1983	0	33808	
1984	0	33818	
1985	0	33780	
1986	0	33792	
1987	0	33824	
1988	0	33840	
1989	0	33816	
1990	0	33788	
1991	0	33770	
1992	0	33760	
1993	0	33772	
1994	0	33804	
1995	0	33764	
1996	0	33780	
1997	0	33832	
1998	0	33876	
1999	0	33948	
2000	0	34024	
2001	0	34028	
2002	0	34056	
2003	0	34092	
2004	0	34136	
2005	0	34164	
2006	0	34180	
2007	0	34196	
2008	0	34228	
2009	0	34252	
2010	0	34260	
2011	0	34288	
2012	0	34312	
2013	0	34368	
2014	0	34432	
2015	0	34464	
2016	0	34468	
2017	0	34468	
2018	0	34464	
2019	0	34458	
2020	0	34420	
2021	0	34372	
2022	0	34352	
2023	0	34408	
2024	0	34452	
2025	0	34480	
2026	0	34500	
2027	0	34528	
2028	0	34552	
2029	0	34564	
2030	0	34608	
2031	0	34636	
2032	0	34660	
2033	0	34672	
2034	0	34696	
2035	0	34736	
2036	0	34756	
2037	0	34754	
2038	0	34728	
2039	0	34736	
2040	0	34752	
2041	0	34760	
2042	0	34752	
2043	0	34728	
2044	0	34736	
2045	0	34748	
2046	0	34736	
2047	0	34716	
2048	0	34736	
2049	0	34768	
2050	0	34764	
2051	0	34728	
2052	0	34612	
2053	0	34528	
2054	0	34460	
2055	0	34404	
2056	0	34400	
2057	0	34370	
2058	0	34336	
2059	0	34290	
2060	0	34188	
2061	0	34056	
2062	0	33940	
2063	0	33880	
2064	0	33776	
2065	0	33704	
2066	0	33612	
2067	0	33464	
2068	0	33332	
2069	0	33268	
2070	0	33208	
2071	0	33040	
2072	0	32872	
2073	0	32756	
2074	0	32680	
2075	0	32524	
2076	0	32372	
2077	0	32228	
2078	0	32152	
2079	0	32104	
2080	0	32056	
2081	0	31960	
2082	0	31848	
2083	0	31776	
2084	0	31708	
2085	0	31634	
2086	0	31548	
2087	0	31432	
2088	0	31310	
2089	0	31180	
2090	0	31024	
2091	0	30848	
2092	0	30720	
2093	0	30624	
2094	0	30572	
2095	0	30528	
2096	0	30504	
2097	0	30484	
2098	0	30500	
2099	0	30488	
2100	0	30424	
2101	0	30372	
2102	0	30360	
2103	0	30326	
2104	0	30282	
2105	0	30240	
2106	0	30208	
2107	0	30240	
2108	0	30240	
2109	0	30208	
2110	0	30120	
2111	0	30104	
2112	0	30136	
2113	0	30164	
2114	0	30168	
2115	0	30208	
2116	0	30208	
2117	0	30192	
2118	0	30182	
2119	0	30136	
2120	0	30120	
2121	0	30140	
2122	0	30140	
2123	0	30088	
2124	0	30088	
2125	0	30112	
2126	0	30164	
2127	0	30152	
2128	0	30172	
2129	0	30208	
2130	0	30192	
2131	0	30144	
2132	0	30100	
2133	0	30130	
2134	0	30192	
2135	0	30240	
2136	0	30284	
2137	0	30324	
2138	0	30380	
2139	0	30428	
2140	0	30436	
2141	0	30442	
2142	0	30424	
2143	0	30378	
2144	0	30360	
2145	0	30356	
2146	0	30380	
2147	0	30408	
2148	0	30436	
2149	0	30472	
2150	0	30496	
2151	0	30496	
2152	0	30512	
2153	0	30560	
2154	0	30592	
2155	0	30616	
2156	0	30616	
2157	0	30628	
2158	0	30692	
2159	0	30772	
2160	0	30816	
2161	0	30848	
2162	0	30868	
2163	0	30908	
2164	0	30972	
2165	0	30996	
2166	0	30944	
2167	0	30896	
2168	0	30896	
2169	0	30916	
2170	0	30948	
2171	0	30932	
2172	0	30912	
2173	0	30956	
2174	0	30968	
2175	0	30944	
2176	0	30956	
2177	0	30984	
2178	0	31040	
2179	0	31056	
2180	0	31068	
2181	0	31112	
2182	0	31152	
2183	0	31152	
2184	0	31160	
2185	0	31156	
2186	0	31196	
2187	0	31244	
2188	0	31320	
2189	0	31380	
2190	0	31360	
2191	0	31378	
2192	0	31424	
2193	0	31456	
2194	0	31440	
2195	0	31472	
2196	0	31544	
2197	0	31580	
2198	0	31552	
2199	0	31580	
2200	0	31596	
2201	0	31576	
2202	0	31552	
2203	0	31514	
2204	0	31464	
2205	0	31420	
2206	0	31392	
2207	0	31394	
2208	0	31400	
2209	0	31408	
2210	0	31400	
2211	0	31388	
2212	0	31376	
2213	0	31348	
2214	0	31362	
2215	0	31404	
2216	0	31448	
2217	0	31468	
2218	0	31440	
2219	0	31424	
2220	0	31372	
2221	0	31328	
2222	0	31292	
2223	0	31272	
2224	0	31304	
2225	0	31368	
2226	0	31444	
2227	0	31468	
2228	0	31448	
2229	0	31404	
2230	0	31360	
2231	0	31336	
2232	0	31320	
2233	0	31352	
2234	0	31424	
2235	0	31472	
2236	0	31508	
2237	0	31536	
2238	0	31556	
2239	0	31528	
2240	0	31548	
2241	0	31594	
2242	0	31628	
2243	0	31616	
2244	0	31580	
2245	0	31544	
2246	0	31544	
2247	0	31568	
2248	0	31608	
2249	0	31648	
2250	0	31688	
2251	0	31712	
2252	0	31712	
2253	0	31708	
2254	0	31724	
2255	0	31728	
2256	0	31704	
2257	0	31696	
2258	0	31724	
2259	0	31720	
2260	0	31688	
2261	0	31688	
2262	0	31692	
2263	0	31672	
2264	0	31676	
2265	0	31684	
2266	0	31688	
2267	0	31680	
2268	0	31650	
2269	0	31617	
2270	0	31596	
2271	0	31624	
2272	0	31636	
2273	0	31660	
2274	0	31648	
2275	0	31652	
2276	0	31676	
2277	0	31664	
2278	0	31660	
2279	0	31688	
2280	0	31692	
2281	0	31648	
2282	0	31612	
2283	0	31612	
2284	0	31612	
2285	0	31612	
2286	0	31618	
2287	0	31640	
2288	0	31644	
2289	0	31640	
2290	0	31632	
2291	0	31640	
2292	0	31660	
2293	0	31664	
2294	0	31656	
2295	0	31648	
2296	0	31664	
2297	0	31680	
2298	0	31696	
2299	0	31684	
2300	0	31698	
2301	0	31712	
2302	0	31752	
2303	0	31840	
2304	0	31936	
2305	0	32020	
2306	0	32068	
2307	0	32116	
2308	0	32140	
2309	0	32140	
2310	0	32116	
2311	0	32100	
2312	0	32056	
2313	0	32088	
2314	0	32116	
2315	0	32152	
2316	0	32124	
2317	0	32140	
2318	0	32136	
2319	0	32136	
2320	0	32168	
2321	0	32224	
2322	0	32296	
2323	0	32392	
2324	0	32522	
2325	0	32656	
2326	0	32792	
2327	0	32896	
2328	0	33016	
2329	0	33152	
2330	0	33300	
2331	0	33404	
2332	0	33448	
2333	0	33504	
2334	0	33536	
2335	0	33596	
2336	0	33680	
2337	0	33752	
2338	0	33858	
2339	0	33944	
2340	0	34024	
2341	0	34088	
2342	0	34100	
2343	0	34072	
2344	0	33990	
2345	0	33888	
2346	0	33792	
2347	0	33676	
2348	0	33532	
2349	0	33376	
2350	0	33196	
2351	0	33096	
2352	0	33032	
2353	0	33008	
2354	0	32960	
2355	0	32916	
2356	0	32880	
2357	0	32800	
2358	0	32668	
2359	0	32576	
2360	0	32492	
2361	0	32448	
2362	0	32428	
2363	0	32412	
2364	0	32384	
2365	0	32410	
2366	0	32514	
2367	0	32652	
2368	0	32720	
2369	0	32738	
2370	0	32712	
2371	0	32632	
2372	0	32578	
2373	0	32524	
2374	0	32456	
2375	0	32384	
2376	0	32332	
2377	0	32296	
2378	0	32280	
2379	0	32232	
2380	0	32136	
2381	0	32072	
2382	0	32002	
2383	0	31968	
2384	0	31992	
2385	0	32000	
2386	0	31960	
2387	0	31924	
2388	0	31912	
2389	0	31924	
2390	0	31912	
2391	0	31920	
2392	0	31956	
2393	0	31976	
2394	0	31924	
2395	0	31890	
2396	0	31920	
2397	0	31916	
2398	0	31928	
2399	0	31962	
2400	0	31988	
2401	0	32024	
2402	0	32076	
2403	0	32106	
2404	0	32076	
2405	0	32024	
2406	0	32040	
2407	0	32044	
2408	0	32072	
2409	0	32056	
2410	0	32056	
2411	0	32052	
2412	0	32036	
2413	0	32024	
2414	0	32002	
2415	0	31980	
2416	0	31988	
2417	0	32000	
2418	0	31968	
2419	0	31960	
2420	0	31980	
2421	0	32026	
2422	0	32064	
2423	0	32112	
2424	0	32124	
2425	0	32108	
2426	0	32148	
2427	0	32168	
2428	0	32156	
2429	0	32164	
2430	0	32180	
2431	0	32192	
2432	0	32208	
2433	0	32216	
2434	0	32272	
2435	0	32290	
2436	0	32324	
2437	0	32380	
2438	0	32356	
2439	0	32344	
2440	0	32314	
2441	0	32324	
2442	0	32384	
2443	0	32410	
2444	0	32408	
2445	0	32416	
2446	0	32436	
2447	0	32456	
2448	0	32500	
2449	0	32528	
2450	0	32544	
2451	0	32512	
2452	0	32496	
2453	0	32480	
2454	0	32524	
2455	0	32536	
2456	0	32528	
2457	0	32556	
2458	0	32628	
2459	0	32676	
2460	0	32692	
2461	0	32740	
2462	0	32744	
2463	0	32708	
2464	0	32630	
2465	0	32512	
2466	0	32384	
2467	0	32264	
2468	0	32128	
2469	0	32116	
2470	0	32292	
2471	0	32568	
2472	0	32868	
2473	0	33128	
2474	0	33472	
2475	0	33832	
2476	0	34160	
2477	0	34380	
2478	0	34544	
2479	0	34788	
2480	0	35164	
2481	0	35756	
2482	0	36580	
2483	0	37528	
2484	0	38628	
2485	0	39864	
2486	0	41296	
2487	0	42864	
2488	0	44556	
2489	0	46252	
2490	0	47976	
2491	0	49712	
2492	0	51456	
2493	0	53076	
2494	0	54452	
2495	0	55612	
2496	0	56732	
2497	0	57960	
2498	0	59304	
2499	0	60380	
2500	0	60888	
2501	0	60432	
2502	0	58772	
2503	0	55992	
2504	0	52360	
2505	0	48212	
2506	0	43872	
2507	0	39872	
2508	0	36440	
2509	0	33816	
2510	0	31970	
2511	0	30696	
2512	0	29812	
2513	0	29196	
2514	0	28752	
2515	0	28452	
2516	0	28384	
2517	0	28548	
2518	0	28780	
2519	0	29000	
2520	0	29220	
2521	0	29416	
2522	0	29640	
2523	0	29880	
2524	0	30080	
2525	0	30240	
2526	0	30452	
2527	0	30632	
2528	0	30804	
2529	0	30904	
2530	0	30992	
2531	0	31056	
2532	0	31088	
2533	0	31108	
2534	0	31108	
2535	0	31136	
2536	0	31168	
2537	0	31190	
2538	0	31158	
2539	0	31116	
2540	0	31128	
2541	0	31116	
2542	0	31106	
2543	0	31130	
2544	0	31160	
2545	0	31180	
2546	0	31232	
2547	0	31248	
2548	0	31228	
2549	0	31202	
2550	0	31168	
2551	0	31100	
2552	0	31044	
2553	0	31018	
2554	0	30960	
2555	0	30944	
2556	0	30984	
2557	0	31036	
2558	0	31100	
2559	0	31136	
2560	0	31164	
2561	0	31228	
2562	0	31304	
2563	0	31360	
2564	0	31380	
2565	0	31328	
2566	0	31332	
2567	0	31328	
2568	0	31332	
2569	0	31352	
2570	0	31400	
2571	0	31388	
2572	0	31404	
2573	0	31416	
2574	0	31452	
2575	0	31484	
2576	0	31468	
2577	0	31504	
2578	0	31562	
2579	0	31596	
2580	0	31656	
2581	0	31732	
2582	0	31816	
2583	0	31820	
2584	0	31820	
2585	0	31840	
2586	0	31880	
2587	0	31864	
2588	0	31856	
2589	0	31862	
2590	0	31868	
2591	0	31884	
2592	0	31874	
2593	0	31892	
2594	0	31930	
2595	0	31970	
2596	0	32000	
2597	0	32004	
2598	0	31984	
2599	0	31986	
2600	0	31998	
2601	0	32024	
2602	0	32088	
2603	0	32148	
2604	0	32152	
2605	0	32146	
2606	0	32176	
2607	0	32216	
2608	0	32236	
2609	0	32220	
2610	0	32208	
2611	0	32224	
2612	0	32256	
2613	0	32308	
2614	0	32352	
2615	0	32388	
2616	0	32380	
2617	0	32384	
2618	0	32436	
2619	0	32488	
2620	0	32484	
2621	0	32490	
2622	0	32506	
2623	0	32532	
2624	0	32556	
2625	0	32602	
2626	0	32628	
2627	0	32656	
2628	0	32690	
2629	0	32672	
2630	0	32632	
2631	0	32642	
2632	0	32704	
2633	0	32788	
2634	0	32848	
2635	0	32900	
2636	0	32944	
2637	0	32976	
2638	0	32972	
2639	0	32932	
2640	0	32904	
2641	0	32864	
2642	0	32868	
2643	0	32912	
2644	0	32936	
2645	0	32922	
2646	0	32956	
2647	0	33008	
2648	0	33032	
2649	0	33064	
2650	0	33092	
2651	0	33116	
2652	0	33182	
2653	0	33292	
2654	0	33344	
2655	0	33360	
2656	0	33324	
2657	0	33328	
2658	0	33344	
2659	0	33336	
2660	0	33352	
2661	0	33380	
2662	0	33400	
2663	0	33440	
2664	0	33460	
2665	0	33474	
2666	0	33492	
2667	0	33498	
2668	0	33508	
2669	0	33532	
2670	0	33604	
2671	0	33636	
2672	0	33676	
2673	0	33720	
2674	0	33748	
2675	0	33792	
2676	0	33836	
2677	0	33828	
2678	0	33824	
2679	0	33818	
2680	0	33848	
2681	0	33844	
2682	0	33836	
2683	0	33812	
2684	0	33864	
2685	0	33960	
2686	0	34004	
2687	0	34028	
2688	0	34060	
2689	0	34068	
2690	0	34092	
2691	0	34108	
2692	0	34090	
2693	0	34072	
2694	0	34104	
2695	0	34144	
2696	0	34180	
2697	0	34252	
2698	0	34272	
2699	0	34300	
2700	0	34344	
2701	0	34336	
2702	0	34316	
2703	0	34328	
2704	0	34378	
2705	0	34416	
2706	0	34428	
2707	0	34452	
2708	0	34520	
2709	0	34572	
2710	0	34640	
2711	0	34668	
2712	0	34664	
2713	0	34640	
2714	0	34656	
2715	0	34722	
2716	0	34736	
2717	0	34732	
2718	0	34760	
2719	0	34828	
2720	0	34880	
2721	0	34940	
2722	0	34928	
2723	0	34948	
2724	0	34960	
2725	0	34996	
2726	0	35024	
2727	0	35016	
2728	0	35036	
2729	0	35052	
2730	0	35080	
2731	0	35116	
2732	0	35124	
2733	0	35114	
2734	0	35120	
2735	0	35116	
2736	0	35104	
2737	0	35148	
2738	0	35196	
2739	0	35244	
2740	0	35254	
2741	0	35272	
2742	0	35300	
2743	0	35335	
2744	0	35352	
2745	0	35368	
2746	0	35360	
2747	0	35348	
2748	0	35352	
2749	0	35392	
2750	0	35456	
2751	0	35504	
2752	0	35528	
2753	0	35512	
2754	0	35512	
2755	0	35524	
2756	0	35492	
2757	0	35436	
2758	0	35396	
2759	0	35344	
2760	0	35296	
2761	0	35264	
2762	0	35264	
2763	0	35196	
2764	0	35088	
2765	0	34956	
2766	0	34876	
2767	0	34832	
2768	0	34792	
2769	0	34688	
2770	0	34562	
2771	0	34424	
2772	0	34264	
2773	0	34092	
2774	0	33952	
2775	0	33796	
2776	0	33644	
2777	0	33520	
2778	0	33448	
2779	0	33344	
2780	0	33200	
2781	0	33072	
2782	0	32932	
2783	0	32832	
2784	0	32684	
2785	0	32566	
2786	0	32472	
2787	0	32360	
2788	0	32228	
2789	0	32148	
2790	0	32032	
2791	0	31912	
2792	0	31812	
2793	0	31696	
2794	0	31600	
2795	0	31488	
2796	0	31356	
2797	0	31244	
2798	0	31176	
2799	0	31136	
2800	0	31088	
2801	0	31044	
2802	0	30940	
2803	0	30840	
2804	0	30784	
2805	0	30672	
2806	0	30600	
2807	0	30528	
2808	0	30464	
2809	0	30352	
2810	0	30254	
2811	0	30200	
2812	0	30220	
2813	0	30190	
2814	0	30180	
2815	0	30136	
2816	0	30106	
2817	0	30080	
2818	0	30068	
2819	0	30062	
2820	0	30024	
2821	0	30005	
2822	0	29946	
2823	0	29920	
2824	0	29912	
2825	0	29904	
2826	0	29938	
2827	0	29948	
2828	0	29920	
2829	0	29888	
2830	0	29864	
2831	0	29884	
2832	0	29948	
2833	0	30040	
2834	0	30088	
2835	0	30148	
2836	0	30164	
2837	0	30148	
2838	0	30120	
2839	0	30096	
2840	0	30076	
2841	0	30076	
2842	0	30080	
2843	0	30088	
2844	0	30096	
2845	0	30168	
2846	0	30200	
2847	0	30208	
2848	0	30216	
2849	0	30216	
2850	0	30276	
2851	0	30334	
2852	0	30356	
2853	0	30340	
2854	0	30336	
2855	0	30332	
2856	0	30312	
2857	0	30364	
2858	0	30360	
2859	0	30364	
2860	0	30368	
2861	0	30392	
2862	0	30408	
2863	0	30436	
2864	0	30458	
2865	0	30480	
2866	0	30496	
2867	0	30460	
2868	0	30464	
2869	0	30468	
2870	0	30480	
2871	0	30512	
2872	0	30572	
2873	0	30580	
2874	0	30560	
2875	0	30604	
2876	0	30656	
2877	0	30684	
2878	0	30732	
2879	0	30784	
2880	0	30848	
2881	0	30928	
2882	0	30940	
2883	0	30908	
2884	0	30908	
2885	0	30936	
2886	0	30972	
2887	0	31036	
2888	0	31120	
2889	0	31160	
2890	0	31148	
2891	0	31112	
2892	0	31088	
2893	0	31100	
2894	0	31088	
2895	0	31106	
2896	0	31104	
2897	0	31112	
2898	0	31136	
2899	0	31144	
2900	0	31170	
2901	0	31168	
2902	0	31168	
2903	0	31168	
2904	0	31164	
2905	0	31216	
2906	0	31296	
2907	0	31326	
2908	0	31328	
2909	0	31320	
2910	0	31330	
2911	0	31328	
2912	0	31304	
2913	0	31316	
2914	0	31380	
2915	0	31456	
2916	0	31520	
2917	0	31560	
2918	0	31618	
2919	0	31636	
2920	0	31600	
2921	0	31572	
2922	0	31520	
2923	0	31472	
2924	0	31416	
2925	0	31378	
2926	0	31372	
2927	0	31406	
2928	0	31440	
2929	0	31424	
2930	0	31400	
2931	0	31360	
2932	0	31348	
2933	0	31342	
2934	0	31356	
2935	0	31394	
2936	0	31440	
2937	0	31490	
2938	0	31528	
2939	0	31544	
2940	0	31552	
2941	0	31598	
2942	0	31616	
2943	0	31584	
2944	0	31536	
2945	0	31488	
2946	0	31500	
2947	0	31512	
2948	0	31508	
2949	0	31484	
2950	0	31460	
2951	0	31442	
2952	0	31456	
2953	0	31480	
2954	0	31508	
2955	0	31540	
2956	0	31580	
2957	0	31600	
2958	0	31610	
2959	0	31652	
2960	0	31684	
2961	0	31688	
2962	0	31624	
2963	0	31600	
2964	0	31576	
2965	0	31532	
2966	0	31516	
2967	0	31484	
2968	0	31528	
2969	0	31576	
2970	0	31548	
2971	0	31504	
2972	0	31512	
2973	0	31484	
2974	0	31464	
2975	0	31500	
2976	0	31504	
2977	0	31500	
2978	0	31488	
2979	0	31456	
2980	0	31480	
2981	0	31532	
2982	0	31560	
2983	0	31536	
2984	0	31544	
2985	0	31570	
2986	0	31624	
2987	0	31660	
2988	0	31652	
2989	0	31660	
2990	0	31660	
2991	0	31652	
2992	0	31680	
2993	0	31740	
2994	0	31812	
2995	0	31900	
2996	0	31956	
2997	0	31992	
2998	0	31996	
2999	0	31988	
3000	0	31984	
3001	0	31988	
3002	0	31994	
3003	0	31984	
3004	0	31996	
3005	0	32004	
3006	0	32016	
3007	0	32020	
3008	0	31992	
3009	0	32044	
3010	0	32132	
3011	0	32168	
3012	0	32168	
3013	0	32194	
3014	0	32224	
3015	0	32210	
3016	0	32224	
3017	0	32264	
3018	0	32276	
3019	0	32284	
3020	0	32256	
3021	0	32250	
3022	0	32272	
3023	0	32288	
3024	0	32288	
3025	0	32276	
3026	0	32256	
3027	0	32248	
3028	0	32264	
3029	0	32284	
3030	0	32228	
3031	0	32136	
3032	0	32080	
3033	0	32120	
3034	0	32186	
3035	0	32288	
3036	0	32420	
3037	0	32504	
3038	0	32528	
3039	0	32588	
3040	0	32692	
3041	0	32828	
3042	0	32924	
3043	0	33056	
3044	0	33220	
3045	0	33388	
3046	0	33500	
3047	0	33576	
3048	0	33708	
3049	0	33828	
3050	0	33892	
3051	0	33932	
3052	0	33936	
3053	0	33984	
3054	0	33984	
3055	0	33952	
3056	0	33852	
3057	0	33752	
3058	0	33696	
3059	0	33616	
3060	0	33504	
3061	0	33372	
3062	0	33232	
3063	0	33092	
3064	0	33000	
3065	0	33012	
3066	0	33036	
3067	0	33032	
3068	0	32992	
3069	0	32944	
3070	0	32896	
3071	0	32880	
3072	0	32864	
3073	0	32764	
3074	0	32692	
3075	0	32624	
3076	0	32588	
3077	0	32576	
3078	0	32596	
3079	0	32648	
3080	0	32648	
3081	0	32618	
3082	0	32532	
3083	0	32524	
3084	0	32596	
3085	0	32634	
3086	0	32616	
3087	0	32544	
3088	0	32500	
3089	0	32488	
3090	0	32480	
3091	0	32440	
3092	0	32372	
3093	0	32256	
3094	0	32148	
3095	0	32076	
3096	0	32040	
3097	0	31980	
3098	0	31900	
3099	0	31832	
3100	0	31818	
3101	0	31840	
3102	0	31912	
3103	0	31980	
3104	0	32008	
3105	0	32040	
3106	0	32068	
3107	0	32048	
3108	0	32020	
3109	0	31976	
3110	0	31932	
3111	0	31900	
3112	0	31876	
3113	0	31908	
3114	0	31966	
3115	0	31966	
3116	0	31944	
3117	0	31906	
3118	0	31864	
3119	0	31870	
3120	0	31872	
3121	0	31876	
3122	0	31874	
3123	0	31892	
3124	0	31914	
3125	0	31960	
3126	0	31972	
3127	0	31952	
3128	0	31936	
3129	0	31920	
3130	0	31900	
3131	0	31892	
3132	0	31896	
3133	0	31932	
3134	0	32036	
3135	0	32064	
3136	0	32056	
3137	0	32052	
3138	0	32024	
3139	0	32032	
3140	0	32084	
3141	0	32152	
3142	0	32188	
3143	0	32212	
3144	0	32238	
3145	0	32224	
3146	0	32200	
3147	0	32248	
3148	0	32268	
3149	0	32280	
3150	0	32260	
3151	0	32260	
3152	0	32240	
3153	0	32220	
3154	0	32180	
3155	0	32172	
3156	0	32160	
3157	0	32104	
3158	0	32068	
3159	0	32088	
3160	0	32088	
3161	0	32084	
3162	0	32132	
3163	0	32212	
3164	0	32288	
3165	0	32328	
3166	0	32316	
3167	0	32332	
3168	0	32356	
3169	0	32404	
3170	0	32460	
3171	0	32524	
3172	0	32576	
3173	0	32620	
3174	0	32688	
3175	0	32744	
3176	0	32688	
3177	0	32632	
3178	0	32540	
3179	0	32380	
3180	0	32232	
3181	0	32168	
3182	0	32308	
3183	0	32610	
3184	0	32904	
3185	0	33270	
3186	0	33676	
3187	0	34052	
3188	0	34432	
3189	0	34716	
3190	0	34928	
3191	0	35208	
3192	0	35696	
3193	0	36376	
3194	0	37192	
3195	0	38184	
3196	0	39364	
3197	0	40768	
3198	0	42304	
3199	0	43952	
3200	0	45624	
3201	0	47336	
3202	0	49124	
3203	0	50868	
3204	0	52536	
3205	0	54016	
3206	0	55264	
3207	0	56344	
3208	0	57584	
3209	0	59044	
3210	0	60320	
3211	0	61216	
3212	0	61504	
3213	0	60584	
3214	0	58336	
3215	0	55108	
3216	0	51160	
3217	0	46844	
3218	0	42560	
3219	0	38780	
3220	0	35724	
3221	0	33456	
3222	0	31824	
3223	0	30728	
3224	0	29994	
3225	0	29482	
3226	0	29200	
3227	0	29084	
3228	0	29040	
3229	0	29048	
3230	0	29092	
3231	0	29208	
3232	0	29340	
3233	0	29532	
3234	0	29708	
3235	0	29868	
3236	0	30048	
3237	0	30208	
3238	0	30368	
3239	0	30522	
3240	0	30596	
3241	0	30664	
3242	0	30736	
3243	0	30768	
3244	0	30772	
3245	0	30778	
3246	0	30760	
3247	0	30744	
3248	0	30696	
3249	0	30660	
3250	0	30652	
3251	0	30624	
3252	0	30632	
3253	0	30636	
3254	0	30652	
3255	0	30656	
3256	0	30674	
3257	0	30664	
3258	0	30676	
3259	0	30684	
3260	0	30684	
3261	0	30696	
3262	0	30704	
3263	0	30680	
3264	0	30656	
3265	0	30600	
3266	0	30564	
3267	0	30552	
3268	0	30566	
3269	0	30608	
3270	0	30668	
3271	0	30748	
3272	0	30828	
3273	0	30872	
3274	0	30938	
3275	0	31032	
3276	0	31112	
3277	0	31132	
3278	0	31140	
3279	0	31136	
3280	0	31124	
3281	0	31112	
3282	0	31128	
3283	0	31168	
3284	0	31200	
3285	0	31204	
3286	0	31208	
3287	0	31216	
3288	0	31268	
3289	0	31340	
3290	0	31400	
3291	0	31432	
3292	0	31452	
3293	0	31490	
3294	0	31528	
3295	0	31592	
3296	0	31624	
3297	0	31600	
3298	0	31580	
3299	0	31612	
3300	0	31624	
3301	0	31624	
3302	0	31632	
3303	0	31620	
3304	0	31644	
3305	0	31684	
3306	0	31712	
3307	0	31752	
3308	0	31816	
3309	0	31884	
3310	0	31916	
3311	0	31928	
3312	0	31960	
3313	0	32024	
3314	0	32042	
3315	0	32060	
3316	0	32100	
3317	0	32144	
3318	0	32192	
3319	0	32228	
3320	0	32308	
3321	0	32352	
3322	0	32372	
3323	0	32372	
3324	0	32380	
3325	0	32348	
3326	0	32324	
3327	0	32300	
3328	0	32288	
3329	0	32264	
3330	0	32284	
3331	0	32296	
3332	0	32288	
3333	0	32288	
3334	0	32296	
3335	0	32304	
3336	0	32340	
3337	0	32356	
3338	0	32392	
3339	0	32464	
3340	0	32512	
3341	0	32536	
3342	0	32540	
3343	0	32568	
3344	0	32632	
3345	0	32664	
3346	0	32696	
3347	0	32752	
3348	0	32840	
3349	0	32920	
3350	0	32936	
3351	0	32964	
3352	0	33000	
3353	0	32996	
3354	0	33040	
3355	0	33048	
3356	0	33032	
3357	0	33028	
3358	0	33012	
3359	0	33048	
3360	0	33048	
3361	0	33056	
3362	0	33088	
3363	0	33128	
3364	0	33164	
3365	0	33144	
3366	0	33136	
3367	0	33144	
3368	0	33160	
3369	0	33224	
3370	0	33284	
3371	0	33344	
3372	0	33392	
3373	0	33404	
3374	0	33424	
3375	0	33356	
3376	0	33320	
3377	0	33332	
3378	0	33400	
3379	0	33496	
3380	0	33552	
3381	0	33600	
3382	0	33628	
3383	0	33624	
3384	0	33652	
3385	0	33680	
3386	0	33696	
3387	0	33716	
3388	0	33752	
3389	0	33752	
3390	0	33788	
3391	0	33808	
3392	0	33860	
3393	0	33914	
3394	0	33946	
3395	0	33948	
3396	0	33936	
3397	0	33981	
3398	0	34076	
3399	0	34170	
3400	0	34208	
3401	0	34188	
3402	0	34218	
3403	0	34232	
3404	0	34264	
3405	0	34320	
3406	0	34344	
3407	0	34364	
3408	0	34432	
3409	0	34464	
3410	0	34468	
3411	0	34480	
3412	0	34488	
3413	0	34480	
3414	0	34452	
3415	0	34444	
3416	0	34460	
3417	0	34472	
3418	0	34492	
3419	0	34512	
3420	0	34496	
3421	0	34512	
3422	0	34536	
3423	0	34532	
3424	0	34552	
3425	0	34568	
3426	0	34580	
3427	0	34604	
3428	0	34600	
3429	0	34648	
3430	0	34700	
3431	0	34746	
3432	0	34764	
3433	0	34788	
3434	0	34796	
3435	0	34772	
3436	0	34792	
3437	0	34840	
3438	0	34906	
3439	0	34944	
3440	0	34988	
3441	0	35044	
3442	0	35072	
3443	0	35072	
3444	0	35088	
3445	0	35104	
3446	0	35104	
3447	0	35104	
3448	0	35132	
3449	0	35148	
3450	0	35208	
3451	0	35220	
3452	0	35248	
3453	0	35284	
3454	0	35288	
3455	0	35264	
3456	0	35236	
3457	0	35220	
3458	0	35240	
3459	0	35284	
3460	0	35296	
3461	0	35344	
3462	0	35364	
3463	0	35372	
3464	0	35360	
3465	0	35372	
3466	0	35364	
3467	0	35332	
3468	0	35312	
3469	0	35252	
3470	0	35176	
3471	0	35124	
3472	0	35096	
3473	0	35040	
3474	0	35004	
3475	0	34964	
3476	0	34896	
3477	0	34836	
3478	0	34752	
3479	0	34680	
3480	0	34584	
3481	0	34480	
3482	0	34400	
3483	0	34288	
3484	0	34172	
3485	0	34032	
3486	0	33920	
3487	0	33804	
3488	0	33674	
3489	0	33572	
3490	0	33474	
3491	0	33372	
3492	0	33248	
3493	0	33134	
3494	0	32992	
3495	0	32848	
3496	0	32706	
3497	0	32584	
3498	0	32456	
3499	0	32348	
3500	0	32228	
3501	0	32060	
3502	0	31936	
3503	0	31842	
3504	0	31744	
3505	0	31674	
3506	0	31576	
3507	0	31470	
3508	0	31404	
3509	0	31352	
3510	0	31320	
3511	0	31216	
3512	0	31144	
3513	0	31084	
3514	0	31016	
3515	0	30952	
3516	0	30858	
3517	0	30768	
3518	0	30712	
3519	0	30652	
3520	0	30612	
3521	0	30552	
3522	0	30484	
3523	0	30440	
3524	0	30376	
3525	0	30344	
3526	0	30344	
3527	0	30328	
3528	0	30276	
3529	0	30240	
3530	0	30180	
3531	0	30122	
3532	0	30112	
3533	0	30096	
3534	0	30100	
3535	0	30112	
3536	0	30092	
3537	0	30084	
3538	0	30108	
3539	0	30164	
3540	0	30192	
3541	0	30188	
3542	0	30136	
3543	0	30100	
3544	0	30104	
3545	0	30100	
3546	0	30088	
3547	0	30084	
3548	0	30148	
3549	0	30160	
3550	0	30202	
3551	0	30228	
3552	0	30264	
3553	0	30288	
3554	0	30336	
3555	0	30356	
3556	0	30356	
3557	0	30408	
3558	0	30460	
3559	0	30468	
3560	0	30464	
3561	0	30452	
3562	0	30466	
3563	0	30532	
3564	0	30580	
3565	0	30626	
3566	0	30696	
3567	0	30720	
3568	0	30736	
3569	0	30708	
3570	0	30712	
3571	0	30760	
3572	0	30812	
3573	0	30856	
3574	0	30848	
3575	0	30824	
3576	0	30836	
3577	0	30852	
3578	0	30836	
3579	0	30816	
3580	0	30820	
3581	0	30848	
3582	0	30892	
3583	0	30912	
3584	0	30912	
3585	0	30944	
3586	0	30964	
3587	0	31002	
3588	0	31004	
3589	0	30952	
3590	0	30920	
3591	0	30928	
3592	0	30956	
3593	0	30996	
3594	0	31048	
3595	0	31100	
3596	0	31108	
3597	0	31136	
3598	0	31148	
3599	0	31184	
3600	0	31202	
3601	0	31228	
3602	0	31232	
3603	0	31212	
3604	0	31156	
3605	0	31136	
3606	0	31132	
3607	0	31160	
3608	0	31184	
3609	0	31156	
3610	0	31120	
3611	0	31140	
3612	0	31168	
3613	0	31192	
3614	0	31216	
3615	0	31228	
3616	0	31238	
3617	0	31224	
3618	0	31218	
3619	0	31216	
3620	0	31252	
3621	0	31288	
3622	0	31290	
3623	0	31308	
3624	0	31336	
3625	0	31316	
3626	0	31296	
3627	0	31266	
3628	0	31256	
3629	0	31292	
3630	0	31308	
3631	0	31324	
3632	0	31316	
3633	0	31296	
3634	0	31276	
3635	0	31264	
3636	0	31272	
3637	0	31292	
3638	0	31300	
3639	0	31296	
3640	0	31332	
3641	0	31360	
3642	0	31378	
3643	0	31384	
3644	0	31400	
3645	0	31400	
3646	0	31420	
3647	0	31480	
3648	0	31536	
3649	0	31572	
3650	0	31600	
3651	0	31560	
3652	0	31592	
3653	0	31630	
3654	0	31688	
3655	0	31736	
3656	0	31724	
3657	0	31700	
3658	0	31708	
3659	0	31720	
3660	0	31712	
3661	0	31712	
3662	0	31732	
3663	0	31724	
3664	0	31680	
3665	0	31668	
3666	0	31684	
3667	0	31648	
3668	0	31644	
3669	0	31656	
3670	0	31668	
3671	0	31662	
3672	0	31668	
3673	0	31706	
3674	0	31724	
3675	0	31716	
3676	0	31704	
3677	0	31660	
3678	0	31624	
3679	0	31596	
3680	0	31608	
3681	0	31640	
3682	0	31696	
3683	0	31744	
3684	0	31764	
3685	0	31760	
3686	0	31738	
3687	0	31732	
3688	0	31732	
3689	0	31712	
3690	0	31696	
3691	0	31680	
3692	0	31680	
3693	0	31648	
3694	0	31640	
3695	0	31648	
3696	0	31656	
3697	0	31660	
3698	0	31692	
3699	0	31728	
3700	0	31744	
3701	0	31732	
3702	0	31750	
3703	0	31802	
3704	0	31844	
3705	0	31840	
3706	0	31816	
3707	0	31828	
3708	0	31848	
3709	0	31832	
3710	0	31810	
3711	0	31808	
3712	0	31872	
3713	0	31964	
3714	0	32056	
3715	0	32128	
3716	0	32172	
3717	0	32244	
3718	0	32244	
3719	0	32236	
3720	0	32244	
3721	0	32224	
3722	0	32200	
3723	0	32172	
3724	0	32154	
3725	0	32148	
3726	0	32140	
3727	0	32164	
3728	0	32148	
3729	0	32120	
3730	0	32072	
3731	0	32040	
3732	0	32040	
3733	0	32064	
3734	0	32088	
3735	0	32112	
3736	0	32180	
3737	0	32308	
3738	0	32464	
3739	0	32600	
3740	0	32712	
3741	0	32824	
3742	0	32928	
3743	0	33016	
3744	0	33124	
3745	0	33224	
3746	0	33338	
3747	0	33432	
3748	0	33520	
3749	0	33604	
3750	0	33616	
3751	0	33674	
3752	0	33784	
3753	0	33882	
3754	0	33952	
3755	0	34000	
3756	0	33964	
3757	0	33888	
3758	0	33816	
3759	0	33704	
3760	0	33588	
3761	0	33464	
3762	0	33340	
3763	0	33216	
3764	0	33104	
3765	0	33032	
3766	0	32972	
3767	0	32928	
3768	0	32856	
3769	0	32768	
3770	0	32736	
3771	0	32700	
3772	0	32672	
3773	0	32624	
3774	0	32604	
3775	0	32608	
3776	0	32644	
3777	0	32656	
3778	0	32688	
3779	0	32708	
3780	0	32732	
3781	0	32732	
3782	0	32688	
3783	0	32628	
3784	0	32592	
3785	0	32564	
3786	0	32536	
3787	0	32496	
3788	0	32424	
3789	0	32328	
3790	0	32256	
3791	0	32196	
3792	0	32124	
3793	0	32064	
3794	0	31988	
3795	0	31944	
3796	0	31912	
3797	0	31896	
3798	0	31888	
3799	0	31882	
3800	0	31860	
3801	0	31848	
3802	0	31880	
3803	0	31888	
3804	0	31872	
3805	0	31844	
3806	0	31842	
3807	0	31832	
3808	0	31820	
3809	0	31812	
3810	0	31796	
3811	0	31776	
3812	0	31780	
3813	0	31784	
3814	0	31784	
3815	0	31788	
3816	0	31808	
3817	0	31836	
3818	0	31812	
3819	0	31812	
3820	0	31820	
3821	0	31828	
3822	0	31796	
3823	0	31776	
3824	0	31764	
3825	0	31760	
3826	0	31748	
3827	0	31768	
3828	0	31800	
3829	0	31826	
3830	0	31844	
3831	0	31804	
3832	0	31768	
3833	0	31772	
3834	0	31760	
3835	0	31768	
3836	0	31796	
3837	0	31800	
3838	0	31824	
3839	0	31844	
3840	0	31822	
3841	0	31808	
3842	0	31808	
3843	0	31824	
3844	0	31820	
3845	0	31840	
3846	0	31852	
3847	0	31880	
3848	0	31876	
3849	0	31920	
3850	0	31948	
3851	0	31944	
3852	0	31964	
3853	0	31972	
3854	0	31980	
3855	0	32000	
3856	0	32008	
3857	0	32036	
3858	0	32066	
3859	0	32064	
3860	0	32072	
3861	0	32052	
3862	0	32028	
3863	0	32028	
3864	0	32044	
3865	0	32072	
3866	0	32128	
3867	0	32110	
3868	0	32120	
3869	0	32172	
3870	0	32240	
3871	0	32328	
3872	0	32392	
3873	0	32412	
3874	0	32436	
3875	0	32460	
3876	0	32460	
3877	0	32436	
3878	0	32380	
3879	0	32280	
3880	0	32092	
3881	0	31932	
3882	0	31780	
3883	0	31760	
3884	0	31916	
3885	0	32256	
3886	0	32620	
3887	0	33018	
3888	0	33346	
3889	0	33636	
3890	0	33888	
3891	0	34104	
3892	0	34328	
3893	0	34668	
3894	0	35148	
3895	0	35856	
3896	0	36684	
3897	0	37648	
3898	0	38800	
3899	0	40144	
3900	0	41652	
3901	0	43200	
3902	0	44724	
3903	0	46332	
3904	0	47960	
3905	0	49560	
3906	0	51084	
3907	0	52440	
3908	0	53560	
3909	0	54592	
3910	0	55816	
3911	0	57168	
3912	0	58336	
3913	0	59088	
3914	0	59036	
3915	0	57744	
3916	0	55176	
3917	0	51824	
3918	0	47940	
3919	0	43808	
3920	0	39840	
3921	0	36476	
3922	0	33888	
3923	0	32122	
3924	0	31024	
3925	0	30396	
3926	0	30008	
3927	0	29834	
3928	0	29708	
3929	0	29656	
3930	0	29624	
3931	0	29640	
3932	0	29732	
3933	0	29836	
3934	0	29944	
3935	0	30048	
3936	0	30124	
3937	0	30268	
3938	0	30456	
3939	0	30648	
3940	0	30832	
3941	0	30996	
3942	0	31084	
3943	0	31154	
3944	0	31196	
3945	0	31212	
3946	0	31200	
3947	0	31188	
3948	0	31160	
3949	0	31168	
3950	0	31164	
3951	0	31116	
3952	0	31028	
3953	0	30944	
3954	0	30888	
3955	0	30864	
3956	0	30876	
3957	0	30924	
3958	0	30952	
3959	0	30964	
3960	0	30980	
3961	0	30976	
3962	0	30956	
3963	0	30916	
3964	0	30896	
3965	0	30896	
3966	0	30922	
3967	0	30980	
3968	0	31040	
3969	0	31092	
3970	0	31096	
3971	0	31072	
3972	0	31096	
3973	0	31104	
3974	0	31096	
3975	0	31112	
3976	0	31137	
3977	0	31212	
3978	0	31290	
3979	0	31344	
3980	0	31356	
3981	0	31344	
3982	0	31408	
3983	0	31512	
3984	0	31596	
3985	0	31630	
3986	0	31656	
3987	0	31640	
3988	0	31632	
3989	0	31660	
3990	0	31688	
3991	0	31712	
3992	0	31728	
3993	0	31776	
3994	0	31800	
3995	0	31824	
3996	0	31840	
3997	0	31860	
3998	0	31890	
3999	0	31904	
4000	0	31876	
4001	0	31884	
4002	0	31888	
4003	0	31872	
4004	0	31862	
4005	0	31904	
4006	0	31976	
4007	0	32044	
4008	0	32072	
4009	0	32062	
4010	0	32124	
4011	0	32196	
4012	0	32188	
4013	0	32176	
4014	0	32176	
4015	0	32184	
4016	0	32202	
4017	0	32236	
4018	0	32224	
4019	0	32248	
4020	0	32252	
4021	0	32276	
4022	0	32306	
4023	0	32356	
4024	0	32412	
4025	0	32416	
4026	0	32404	
4027	0	32412	
4028	0	32460	
4029	0	32520	
4030	0	32524	
4031	0	32528	
4032	0	32576	
4033	0	32602	
4034	0	32612	
4035	0	32630	
4036	0	32652	
4037	0	32672	
4038	0	32676	
4039	0	32676	
4040	0	32696	
4041	0	32704	
4042	0	32736	
4043	0	32782	
4044	0	32840	
4045	0	32900	
4046	0	32960	
4047	0	32992	
4048	0	33032	
4049	0	33040	
4050	0	33044	
4051	0	33026	
4052	0	33016	
4053	0	32996	
4054	0	32984	
4055	0	32992	
4056	0	33036	
4057	0	33058	
4058	0	33128	
4059	0	33188	
4060	0	33218	
4061	0	33224	
4062	0	33248	
4063	0	33282	
4064	0	33292	
4065	0	33312	
4066	0	33320	
4067	0	33296	
4068	0	33296	
4069	0	33332	
4070	0	33368	
4071	0	33392	
4072	0	33416	
4073	0	33440	
4074	0	33452	
4075	0	33452	
4076	0	33444	
4077	0	33456	
4078	0	33476	
4079	0	33524	
4080	0	33572	
4081	0	33572	
4082	0	33592	
4083	0	33584	
4084	0	33568	
4085	0	33576	
4086	0	33546	
4087	0	33532	
4088	0	33568	
4089	0	33608	
4090	0	33652	
4091	0	33664	
4092	0	33684	
4093	0	33720	
4094	0	33716	
4095	0	33712	
4096	0	33752	
4097	0	33820	
4098	0	33856	
4099	0	33888	
4100	0	33872	
4101	0	33876	
4102	0	33888	
4103	0	33872	
4104	0	33904	
4105	0	33928	
4106	0	33960	
4107	0	33948	
4108	0	33920	
4109	0	33924	
4110	0	33956	
4111	0	34040	
4112	0	34112	
4113	0	34168	
4114	0	34192	
4115	0	34216	
4116	0	34228	
4117	0	34224	
4118	0	34200	
4119	0	34220	
4120	0	34256	
4121	0	34288	
4122	0	34330	
4123	0	34372	
4124	0	34436	
4125	0	34464	
4126	0	34476	
4127	0	34528	
4128	0	34564	
4129	0	34548	
4130	0	34496	
4131	0	34476	
4132	0	34472	
4133	0	34520	
4134	0	34558	
4135	0	34636	
4136	0	34656	
4137	0	34636	
4138	0	34600	
4139	0	34616	
4140	0	34656	
4141	0	34688	
4142	0	34716	
4143	0	34740	
4144	0	34752	
4145	0	34760	
4146	0	34792	
4147	0	34796	
4148	0	34792	
4149	0	34764	
4150	0	34768	
4151	0	34804	
4152	0	34828	
4153	0	34882	
4154	0	34940	
4155	0	34980	
4156	0	35004	
4157	0	35000	
4158	0	35024	
4159	0	35004	
4160	0	35000	
4161	0	35008	
4162	0	35036	
4163	0	35060	
4164	0	35064	
4165	0	35072	
4166	0	35076	
4167	0	35088	
4168	0	35064	
4169	0	35024	
4170	0	34988	
4171	0	34984	
4172	0	34976	
4173	0	34920	
4174	0	34856	
4175	0	34784	
4176	0	34700	
4177	0	34644	
4178	0	34592	
4179	0	34528	
4180	0	34444	
4181	0	34360	
4182	0	34248	
4183	0	34172	
4184	0	34096	
4185	0	34024	
4186	0	33908	
4187	0	33768	
4188	0	33664	
4189	0	33544	
4190	0	33404	
4191	0	33240	
4192	0	33088	
4193	0	32976	
4194	0	32896	
4195	0	32824	
4196	0	32700	
4197	0	32560	
4198	0	32440	
4199	0	32352	
4200	0	32256	
4201	0	32168	
4202	0	32068	
4203	0	31980	
4204	0	31924	
4205	0	31832	
4206	0	31724	
4207	0	31624	
4208	0	31528	
4209	0	31452	
4210	0	31404	
4211	0	31358	
4212	0	31276	
4213	0	31176	
4214	0	31060	
4215	0	30972	
4216	0	30928	
4217	0	30880	
4218	0	30832	
4219	0	30756	
4220	0	30708	
4221	0	30652	
4222	0	30636	
4223	0	30612	
4224	0	30572	
4225	0	30530	
4226	0	30466	
4227	0	30432	
4228	0	30424	
4229	0	30392	
4230	0	30376	
4231	0	30370	
4232	0	30308	
4233	0	30276	
4234	0	30288	
4235	0	30256	
4236	0	30212	
4237	0	30128	
4238	0	30108	
4239	0	30100	
4240	0	30100	
4241	0	30116	
4242	0	30100	
4243	0	30132	
4244	0	30184	
4245	0	30202	
4246	0	30192	
4247	0	30216	
4248	0	30272	
4249	0	30324	
4250	0	30348	
4251	0	30316	
4252	0	30332	
4253	0	30362	
4254	0	30394	
4255	0	30400	
4256	0	30400	
4257	0	30400	
4258	0	30434	
4259	0	30452	
4260	0	30448	
4261	0	30420	
4262	0	30400	
4263	0	30408	
4264	0	30450	
4265	0	30508	
4266	0	30520	
4267	0	30504	
4268	0	30492	
4269	0	30488	
4270	0	30520	
4271	0	30584	
4272	0	30640	
4273	0	30644	
4274	0	30656	
4275	0	30676	
4276	0	30696	
4277	0	30720	
4278	0	30720	
4279	0	30720	
4280	0	30730	
4281	0	30736	
4282	0	30738	
4283	0	30748	
4284	0	30768	
4285	0	30800	
4286	0	30840	
4287	0	30876	
4288	0	30888	
4289	0	30928	
4290	0	30952	
4291	0	30986	
4292	0	31016	
4293	0	31016	
4294	0	31080	
4295	0	31108	
4296	0	31098	
4297	0	31154	
4298	0	31200	
4299	0	31220	
4300	0	31248	
4301	0	31266	
4302	0	31264	
4303	0	31248	
4304	0	31250	
4305	0	31256	
4306	0	31260	
4307	0	31256	
4308	0	31236	
4309	0	31256	
4310	0	31256	
4311	0	31234	
4312	0	31276	
4313	0	31350	
4314	0	31416	
4315	0	31440	
4316	0	31424	
4317	0	31432	
4318	0	31456	
4319	0	31460	
4320	0	31452	
4321	0	31436	
4322	0	31440	
4323	0	31440	
4324	0	31426	
4325	0	31418	
4326	0	31448	
4327	0	31466	
4328	0	31432	
4329	0	31412	
4330	0	31400	
4331	0	31384	
4332	0	31376	
4333	0	31400	
4334	0	31456	
4335	0	31524	
4336	0	31508	
4337	0	31434	
4338	0	31408	
4339	0	31428	
4340	0	31484	
4341	0	31530	
4342	0	31544	
4343	0	31540	
4344	0	31508	
4345	0	31508	
4346	0	31528	
4347	0	31568	
4348	0	31588	
4349	0	31616	
4350	0	31636	
4351	0	31636	
4352	0	31596	
4353	0	31580	
4354	0	31608	
4355	0	31616	
4356	0	31616	
4357	0	31636	
4358	0	31660	
4359	0	31652	
4360	0	31662	
4361	0	31692	
4362	0	31680	
4363	0	31664	
4364	0	31652	
4365	0	31652	
4366	0	31656	
4367	0	31660	
4368	0	31694	
4369	0	31700	
4370	0	31720	
4371	0	31724	
4372	0	31736	
4373	0	31722	
4374	0	31736	
4375	0	31736	
4376	0	31704	
4377	0	31680	
4378	0	31672	
4379	0	31668	
4380	0	31664	
4381	0	31616	
4382	0	31620	
4383	0	31628	
4384	0	31664	
4385	0	31668	
4386	0	31616	
4387	0	31608	
4388	0	31628	
4389	0	31624	
4390	0	31612	
4391	0	31636	
4392	0	31656	
4393	0	31674	
4394	0	31664	
4395	0	31656	
4396	0	31664	
4397	0	31700	
4398	0	31732	
4399	0	31808	
4400	0	31848	
4401	0	31840	
4402	0	31816	
4403	0	31804	
4404	0	31832	
4405	0	31884	
4406	0	31896	
4407	0	31888	
4408	0	31908	
4409	0	31928	
4410	0	31960	
4411	0	31952	
4412	0	31960	
4413	0	31988	
4414	0	32016	
4415	0	32032	
4416	0	32056	
4417	0	32064	
4418	0	32080	
4419	0	32084	
4420	0	32080	
4421	0	32112	
4422	0	32176	
4423	0	32236	
4424	0	32320	
4425	0	32396	
4426	0	32448	
4427	0	32512	
4428	0	32568	
4429	0	32588	
4430	0	32564	
4431	0	32544	
4432	0	32544	
4433	0	32544	
4434	0	32532	
4435	0	32496	
4436	0	32500	
4437	0	32512	
4438	0	32524	
4439	0	32556	
4440	0	32560	
4441	0	32536	
4442	0	32488	
4443	0	32496	
4444	0	32552	
4445	0	32640	
4446	0	32752	
4447	0	32892	
4448	0	33018	
4449	0	33116	
4450	0	33224	
4451	0	33352	
4452	0	33466	
4453	0	33564	
4454	0	33660	
4455	0	33784	
4456	0	33888	
4457	0	33940	
4458	0	34024	
4459	0	34080	
4460	0	34108	
4461	0	34140	
4462	0	34172	
4463	0	34196	
4464	0	34212	
4465	0	34224	
4466	0	34192	
4467	0	34132	
4468	0	34052	
4469	0	33962	
4470	0	33824	
4471	0	33680	
4472	0	33508	
4473	0	33356	
4474	0	33256	
4475	0	33244	
4476	0	33244	
4477	0	33232	
4478	0	33184	
4479	0	33108	
4480	0	33064	
4481	0	33012	
4482	0	32948	
4483	0	32928	
4484	0	32912	
4485	0	32896	
4486	0	32856	
4487	0	32812	
4488	0	32772	
4489	0	32736	
4490	0	32728	
4491	0	32712	
4492	0	32688	
4493	0	32640	
4494	0	32600	
4495	0	32576	
4496	0	32536	
4497	0	32460	
4498	0	32372	
4499	0	32344	
4500	0	32346	
4501	0	32312	
4502	0	32266	
4503	0	32180	
4504	0	32100	
4505	0	32048	
4506	0	31988	
4507	0	31932	
4508	0	31920	
4509	0	31908	
4510	0	31864	
4511	0	31836	
4512	0	31828	
4513	0	31848	
4514	0	31852	
4515	0	31888	
4516	0	31920	
4517	0	31916	
4518	0	31856	
4519	0	31802	
4520	0	31794	
4521	0	31770	
4522	0	31776	
4523	0	31792	
4524	0	31796	
4525	0	31800	
4526	0	31800	
4527	0	31836	
4528	0	31868	
4529	0	31888	
4530	0	31904	
4531	0	31884	
4532	0	31864	
4533	0	31826	
4534	0	31836	
4535	0	31824	
4536	0	31812	
4537	0	31828	
4538	0	31828	
4539	0	31832	
4540	0	31836	
4541	0	31808	
4542	0	31812	
4543	0	31820	
4544	0	31836	
4545	0	31816	
4546	0	31812	
4547	0	31832	
4548	0	31864	
4549	0	31868	
4550	0	31872	
4551	0	31872	
4552	0	31904	
4553	0	31912	
4554	0	31936	
4555	0	31968	
4556	0	31952	
4557	0	31944	
4558	0	32000	
4559	0	32060	
4560	0	32088	
4561	0	32068	
4562	0	32052	
4563	0	32080	
4564	0	32108	
4565	0	32128	
4566	0	32132	
4567	0	32128	
4568	0	32156	
4569	0	32192	
4570	0	32212	
4571	0	32168	
4572	0	32144	
4573	0	32114	
4574	0	32124	
4575	0	32132	
4576	0	32140	
4577	0	32132	
4578	0	32192	
4579	0	32264	
4580	0	32296	
4581	0	32336	
4582	0	32400	
4583	0	32404	
4584	0	32420	
4585	0	32428	
4586	0	32424	
4587	0	32428	
4588	0	32416	
4589	0	32384	
4590	0	32304	
4591	0	32148	
4592	0	31978	
4593	0	31876	
4594	0	31916	
4595	0	32096	
4596	0	32316	
4597	0	32560	
4598	0	32928	
4599	0	33272	
4600	0	33600	
4601	0	33840	
4602	0	34008	
4603	0	34220	
4604	0	34536	
4605	0	35056	
4606	0	35792	
4607	0	36632	
4608	0	37608	
4609	0	38712	
4610	0	40012	
4611	0	41404	
4612	0	42848	
4613	0	44340	
4614	0	45904	
4615	0	47448	
4616	0	48912	
4617	0	50208	
4618	0	51356	
4619	0	52352	
4620	0	53368	
4621	0	54576	
4622	0	55800	
4623	0	56776	
4624	0	57232	
4625	0	56592	
4626	0	54676	
4627	0	51788	
4628	0	48232	
4629	0	44444	
4630	0	40660	
4631	0	37272	
4632	0	34528	
4633	0	32548	
4634	0	31264	
4635	0	30568	
4636	0	30160	
4637	0	29928	
4638	0	29824	
4639	0	29820	
4640	0	29864	
4641	0	29882	
4642	0	29872	
4643	0	29888	
4644	0	29952	
4645	0	30012	
4646	0	30048	
4647	0	30148	
4648	0	30336	
4649	0	30544	
4650	0	30722	
4651	0	30878	
4652	0	31000	
4653	0	31060	
4654	0	31100	
4655	0	31132	
4656	0	31140	
4657	0	31158	
4658	0	31182	
4659	0	31180	
4660	0	31200	
4661	0	31200	
4662	0	31160	
4663	0	31048	
4664	0	30980	
4665	0	30944	
4666	0	30926	
4667	0	30904	
4668	0	30892	
4669	0	30912	
4670	0	30952	
4671	0	30970	
4672	0	30972	
4673	0	31004	
4674	0	31008	
4675	0	31016	
4676	0	31040	
4677	0	31064	
4678	0	31080	
4679	0	31093	
4680	0	31136	
4681	0	31180	
4682	0	31194	
4683	0	31180	
4684	0	31192	
4685	0	31224	
4686	0	31256	
4687	0	31300	
4688	0	31356	
4689	0	31396	
4690	0	31420	
4691	0	31408	
4692	0	31428	
4693	0	31464	
4694	0	31464	
4695	0	31452	
4696	0	31456	
4697	0	31512	
4698	0	31568	
4699	0	31628	
4700	0	31684	
4701	0	31720	
4702	0	31778	
4703	0	31784	
4704	0	31804	
4705	0	31832	
4706	0	31800	
4707	0	31768	
4708	0	31732	
4709	0	31732	
4710	0	31712	
4711	0	31696	
4712	0	31704	
4713	0	31778	
4714	0	31872	
4715	0	31920	
4716	0	31928	
4717	0	31920	
4718	0	31964	
4719	0	31988	
4720	0	31992	
4721	0	31980	
4722	0	31968	
4723	0	31976	
4724	0	32008	
4725	0	32020	
4726	0	32050	
4727	0	32126	
4728	0	32190	
4729	0	32224	
4730	0	32256	
4731	0	32264	
4732	0	32260	
4733	0	32232	
4734	0	32252	
4735	0	32264	
4736	0	32304	
4737	0	32368	
4738	0	32420	
4739	0	32472	
4740	0	32460	
4741	0	32448	
4742	0	32432	
4743	0	32436	
4744	0	32468	
4745	0	32508	
4746	0	32520	
4747	0	32508	
4748	0	32498	
4749	0	32500	
4750	0	32504	
4751	0	32500	
4752	0	32512	
4753	0	32524	
4754	0	32540	
4755	0	32544	
4756	0	32544	
4757	0	32584	
4758	0	32648	
4759	0	32720	
4760	0	32748	
4761	0	32788	
4762	0	32868	
4763	0	32888	
4764	0	32888	
4765	0	32904	
4766	0	32920	
4767	0	32952	
4768	0	32988	
4769	0	33024	
4770	0	33056	
4771	0	33072	
4772	0	33120	
4773	0	33140	
4774	0	33144	
4775	0	33144	
4776	0	33128	
4777	0	33124	
4778	0	33120	
4779	0	33096	
4780	0	33108	
4781	0	33144	
4782	0	33200	
4783	0	33220	
4784	0	33242	
4785	0	33288	
4786	0	33320	
4787	0	33332	
4788	0	33360	
4789	0	33416	
4790	0	33456	
4791	0	33440	
4792	0	33448	
4793	0	33472	
4794	0	33504	
4795	0	33508	
4796	0	33504	
4797	0	33504	
4798	0	33538	
4799	0	33584	
4800	0	33604	
4801	0	33596	
4802	0	33596	
4803	0	33606	
4804	0	33588	
4805	0	33566	
4806	0	33576	
4807	0	33592	
4808	0	33612	
4809	0	33652	
4810	0	33696	
4811	0	33740	
4812	0	33760	
4813	0	33768	
4814	0	33724	
4815	0	33720	
4816	0	33748	
4817	0	33796	
4818	0	33836	
4819	0	33868	
4820	0	33880	
4821	0	33892	
4822	0	33956	
4823	0	34000	
4824	0	34068	
4825	0	34092	
4826	0	34080	
4827	0	34076	
4828	0	34068	
4829	0	34096	
4830	0	34132	
4831	0	34192	
4832	0	34224	
4833	0	34268	
4834	0	34304	
4835	0	34306	
4836	0	34284	
4837	0	34296	
4838	0	34360	
4839	0	34384	
4840	0	34382	
4841	0	34392	
4842	0	34392	
4843	0	34398	
4844	0	34344	
4845	0	34324	
4846	0	34360	
4847	0	34436	
4848	0	34528	
4849	0	34536	
4850	0	34572	
4851	0	34572	
4852	0	34564	
4853	0	34536	
4854	0	34568	
4855	0	34582	
4856	0	34604	
4857	0	34616	
4858	0	34648	
4859	0	34672	
4860	0	34666	
4861	0	34668	
4862	0	34700	
4863	0	34752	
4864	0	34780	
4865	0	34808	
4866	0	34840	
4867	0	34888	
4868	0	34900	
4869	0	34868	
4870	0	34808	
4871	0	34748	
4872	0	34740	
4873	0	34752	
4874	0	34752	
4875	0	34744	
4876	0	34740	
4877	0	34728	
4878	0	34726	
4879	0	34752	
4880	0	34760	
4881	0	34764	
4882	0	34736	
4883	0	34700	
4884	0	34640	
4885	0	34600	
4886	0	34528	
4887	0	34444	
4888	0	34430	
4889	0	34444	
4890	0	34400	
4891	0	34332	
4892	0	34280	
4893	0	34180	
4894	0	34060	
4895	0	33940	
4896	0	33872	
4897	0	33798	
4898	0	33710	
4899	0	33600	
4900	0	33518	
4901	0	33404	
4902	0	33268	
4903	0	33140	
4904	0	33004	
4905	0	32896	
4906	0	32800	
4907	0	32748	
4908	0	32652	
4909	0	32552	
4910	0	32416	
4911	0	32252	
4912	0	32136	
4913	0	32032	
4914	0	31956	
4915	0	31896	
4916	0	31804	
4917	0	31720	
4918	0	31646	
4919	0	31544	
4920	0	31424	
4921	0	31320	
4922	0	31228	
4923	0	31132	
4924	0	31036	
4925	0	30968	
4926	0	30888	
4927	0	30808	
4928	0	30724	
4929	0	30690	
4930	0	30616	
4931	0	30520	
4932	0	30470	
4933	0	30448	
4934	0	30432	
4935	0	30448	
4936	0	30468	
4937	0	30448	
4938	0	30426	
4939	0	30412	
4940	0	30344	
4941	0	30272	
4942	0	30264	
4943	0	30226	
4944	0	30196	
4945	0	30172	
4946	0	30144	
4947	0	30112	
4948	0	30092	
4949	0	30084	
4950	0	30108	
4951	0	30086	
4952	0	30030	
4953	0	29978	
4954	0	29942	
4955	0	29880	
4956	0	29860	
4957	0	29880	
4958	0	29866	
4959	0	29880	
4960	0	29944	
4961	0	30004	
4962	0	30080	
4963	0	30136	
4964	0	30176	
4965	0	30192	
4966	0	30168	
4967	0	30116	
4968	0	30080	
4969	0	30080	
4970	0	30120	
4971	0	30168	
4972	0	30192	
4973	0	30232	
4974	0	30288	
4975	0	30340	
4976	0	30368	
4977	0	30424	
4978	0	30436	
4979	0	30468	
4980	0	30496	
4981	0	30544	
4982	0	30548	
4983	0	30540	
4984	0	30520	
4985	0	30500	
4986	0	30500	
4987	0	30528	
4988	0	30588	
4989	0	30628	
4990	0	30658	
4991	0	30688	
4992	0	30712	
4993	0	30772	
4994	0	30784	
4995	0	30844	
4996	0	30896	
4997	0	30944	
4998	0	31016	
4999	0	31052	
5000	0	31052	
5001	0	31064	
5002	0	31064	
5003	0	31072	
5004	0	31072	
5005	0	31080	
5006	0	31136	
5007	0	31168	
5008	0	31200	
5009	0	31217	
5010	0	31204	
5011	0	31188	
5012	0	31176	
5013	0	31168	
5014	0	31180	
5015	0	31212	
5016	0	31272	
5017	0	31332	
5018	0	31384	
5019	0	31440	
5020	0	31464	
5021	0	31432	
5022	0	31408	
5023	0	31376	
5024	0	31364	
5025	0	31336	
5026	0	31324	
5027	0	31312	
5028	0	31272	
5029	0	31252	
5030	0	31280	
5031	0	31324	
5032	0	31344	
5033	0	31372	
5034	0	31404	
5035	0	31440	
5036	0	31482	
5037	0	31532	
5038	0	31584	
5039	0	31600	
5040	0	31540	
5041	0	31544	
5042	0	31592	
5043	0	31632	
5044	0	31644	
5045	0	31664	
5046	0	31680	
5047	0	31672	
5048	0	31672	
5049	0	31648	
5050	0	31624	
5051	0	31584	
5052	0	31536	
5053	0	31508	
5054	0	31488	
5055	0	31464	
5056	0	31426	
5057	0	31448	
5058	0	31504	
5059	0	31520	
5060	0	31524	
5061	0	31504	
5062	0	31500	
5063	0	31492	
5064	0	31452	
5065	0	31440	
5066	0	31472	
5067	0	31486	
5068	0	31496	
5069	0	31554	
5070	0	31616	
5071	0	31704	
5072	0	31764	
5073	0	31804	
5074	0	31812	
5075	0	31766	
5076	0	31744	
5077	0	31770	
5078	0	31800	
5079	0	31800	
5080	0	31770	
5081	0	31744	
5082	0	31792	
5083	0	31872	
5084	0	31924	
5085	0	31916	
5086	0	31896	
5087	0	31924	
5088	0	31920	
5089	0	31904	
5090	0	31898	
5091	0	31856	
5092	0	31800	
5093	0	31764	
5094	0	31796	
5095	0	31788	
5096	0	31784	
5097	0	31780	
5098	0	31816	
5099	0	31868	
5100	0	31868	
5101	0	31848	
5102	0	31820	
5103	0	31816	
5104	0	31776	
5105	0	31748	
5106	0	31760	
5107	0	31778	
5108	0	31808	
5109	0	31792	
5110	0	31804	
5111	0	31796	
5112	0	31800	
5113	0	31776	
5114	0	31768	
5115	0	31736	
5116	0	31740	
5117	0	31712	
5118	0	31684	
5119	0	31688	
5120	0	31712	
5121	0	31760	
5122	0	31804	
5123	0	31824	
5124	0	31832	
5125	0	31872	
5126	0	31944	
5127	0	32004	
5128	0	32020	
5129	0	32028	
5130	0	32056	
5131	0	32020	
5132	0	32016	
5133	0	32036	
5134	0	32020	
5135	0	31980	
5136	0	31992	
5137	0	32058	
5138	0	32104	
5139	0	32076	
5140	0	32068	
5141	0	32096	
5142	0	32108	
5143	0	32116	
5144	0	32128	
5145	0	32120	
5146	0	32112	
5147	0	32136	
5148	0	32138	
5149	0	32168	
5150	0	32164	
5151	0	32160	
5152	0	32180	
5153	0	32264	
5154	0	32352	
5155	0	32408	
5156	0	32392	
5157	0	32386	
5158	0	32440	
5159	0	32552	
5160	0	32576	
5161	0	32580	
5162	0	32588	
5163	0	32576	
5164	0	32544	
5165	0	32536	
5166	0	32492	
5167	0	32472	
5168	0	32452	
5169	0	32456	
5170	0	32512	
5171	0	32572	
5172	0	32624	
5173	0	32676	
5174	0	32704	
5175	0	32768	
5176	0	32828	
5177	0	32884	
5178	0	32932	
5179	0	32988	
5180	0	33040	
5181	0	33108	
5182	0	33180	
5183	0	33264	
5184	0	33400	
5185	0	33548	
5186	0	33692	
5187	0	33828	
5188	0	33976	
5189	0	34084	
5190	0	34184	
5191	0	34264	
5192	0	34350	
5193	0	34402	
5194	0	34428	
5195	0	34460	
5196	0	34504	
5197	0	34570	
5198	0	34600	
5199	0	34536	
5200	0	34432	
5201	0	34316	
5202	0	34144	
5203	0	33972	
5204	0	33860	
5205	0	33714	
5206	0	33540	
5207	0	33392	
5208	0	33344	
5209	0	33348	
5210	0	33320	
5211	0	33216	
5212	0	33104	
5213	0	32996	
5214	0	32880	
5215	0	32852	
5216	0	32836	
5217	0	32820	
5218	0	32768	
5219	0	32732	
5220	0	32676	
5221	0	32604	
5222	0	32532	
5223	0	32560	
5224	0	32594	
5225	0	32636	
5226	0	32642	
5227	0	32632	
5228	0	32628	
5229	0	32548	
5230	0	32440	
5231	0	32416	
5232	0	32400	
5233	0	32404	
5234	0	32344	
5235	0	32296	
5236	0	32212	
5237	0	32128	
5238	0	32098	
5239	0	32096	
5240	0	32096	
5241	0	32084	
5242	0	32036	
5243	0	32004	
5244	0	32024	
5245	0	32008	
5246	0	32000	
5247	0	32000	
5248	0	32024	
5249	0	32012	
5250	0	31960	
5251	0	31950	
5252	0	31928	
5253	0	31920	
5254	0	31948	
5255	0	31968	
5256	0	31956	
5257	0	31960	
5258	0	31984	
5259	0	32012	
5260	0	32032	
5261	0	32060	
5262	0	32036	
5263	0	32042	
5264	0	32060	
5265	0	32064	
5266	0	32064	
5267	0	32110	
5268	0	32092	
5269	0	32082	
5270	0	32076	
5271	0	32088	
5272	0	32124	
5273	0	32132	
5274	0	32120	
5275	0	32084	
5276	0	32028	
5277	0	32040	
5278	0	32096	
5279	0	32104	
5280	0	32080	
5281	0	32100	
5282	0	32116	
5283	0	32128	
5284	0	32166	
5285	0	32208	
5286	0	32210	
5287	0	32232	
5288	0	32240	
5289	0	32228	
5290	0	32264	
5291	0	32320	
5292	0	32400	
5293	0	32424	
5294	0	32392	
5295	0	32296	
5296	0	32236	
5297	0	32228	
5298	0	32272	
5299	0	32304	
5300	0	32312	
5301	0	32304	
5302	0	32356	
5303	0	32376	
5304	0	32344	
5305	0	32324	
5306	0	32328	
5307	0	32380	
5308	0	32424	
5309	0	32404	
5310	0	32364	
5311	0	32368	
5312	0	32408	
5313	0	32440	
5314	0	32540	
5315	0	32608	
5316	0	32592	
5317	0	32560	
5318	0	32580	
5319	0	32620	
5320	0	32560	
5321	0	32412	
5322	0	32264	
5323	0	32154	
5324	0	32120	
5325	0	32184	
5326	0	32364	
5327	0	32656	
5328	0	32882	
5329	0	33120	
5330	0	33388	
5331	0	33664	
5332	0	33824	
5333	0	33872	
5334	0	33968	
5335	0	34196	
5336	0	34610	
5337	0	35288	
5338	0	36080	
5339	0	37044	
5340	0	38116	
5341	0	39368	
5342	0	40788	
5343	0	42324	
5344	0	43882	
5345	0	45460	
5346	0	47088	
5347	0	48848	
5348	0	50564	
5349	0	52096	
5350	0	53344	
5351	0	54432	
5352	0	55556	
5353	0	56752	
5354	0	57932	
5355	0	58756	
5356	0	58988	
5357	0	58200	
5358	0	56164	
5359	0	53072	
5360	0	49316	
5361	0	45232	
5362	0	41220	
5363	0	37552	
5364	0	34500	
5365	0	32340	
5366	0	30980	
5367	0	30070	
5368	0	29412	
5369	0	29000	
5370	0	28716	
5371	0	28628	
5372	0	28784	
5373	0	29072	
5374	0	29308	
5375	0	29509	
5376	0	29688	
5377	0	29812	
5378	0	29936	
5379	0	30080	
5380	0	30240	
5381	0	30398	
5382	0	30578	
5383	0	30760	
5384	0	30912	
5385	0	31020	
5386	0	31080	
5387	0	31116	
5388	0	31160	
5389	0	31192	
5390	0	31168	
5391	0	31200	
5392	0	31216	
5393	0	31208	
5394	0	31168	
5395	0	31116	
5396	0	31080	
5397	0	31048	
5398	0	31008	
5399	0	30956	
5400	0	30944	
5401	0	30928	
5402	0	30896	
5403	0	30896	
5404	0	30864	
5405	0	30836	
5406	0	30840	
5407	0	30844	
5408	0	30844	
5409	0	30872	
5410	0	30868	
5411	0	30870	
5412	0	30912	
5413	0	30980	
5414	0	31024	
5415	0	31040	
5416	0	31056	
5417	0	31088	
5418	0	31104	
5419	0	31120	
5420	0	31092	
5421	0	31080	
5422	0	31052	
5423	0	31064	
5424	0	31064	
5425	0	31096	
5426	0	31140	
5427	0	31148	
5428	0	31168	
5429	0	31228	
5430	0	31336	
5431	0	31428	
5432	0	31528	
5433	0	31568	
5434	0	31616	
5435	0	31648	
5436	0	31672	
5437	0	31640	
5438	0	31618	
5439	0	31652	
5440	0	31672	
5441	0	31696	
5442	0	31756	
5443	0	31796	
5444	0	31840	
5445	0	31860	
5446	0	31868	
5447	0	31880	
5448	0	31920	
5449	0	31992	
5450	0	32088	
5451	0	32164	
5452	0	32240	
5453	0	32236	
5454	0	32194	
5455	0	32188	
5456	0	32152	
5457	0	32116	
5458	0	32088	
5459	0	32068	
5460	0	32040	
5461	0	31952	
5462	0	31888	
5463	0	31896	
5464	0	31912	
5465	0	31928	
5466	0	31976	
5467	0	32068	
5468	0	32100	
5469	0	32122	
5470	0	32122	
5471	0	32152	
5472	0	32176	
5473	0	32192	
5474	0	32226	
5475	0	32272	
5476	0	32352	
5477	0	32450	
5478	0	32456	
5479	0	32448	
5480	0	32492	
5481	0	32584	
5482	0	32684	
5483	0	32762	
5484	0	32824	
5485	0	32912	
5486	0	33008	
5487	0	33108	
5488	0	33100	
5489	0	33068	
5490	0	33092	
5491	0	33140	
5492	0	33104	
5493	0	33024	
5494	0	32954	
5495	0	32880	
5496	0	32808	
5497	0	32792	
5498	0	32748	
5499	0	32732	
5500	0	32760	
5501	0	32800	
5502	0	32840	
5503	0	32832	
5504	0	32820	
5505	0	32832	
5506	0	32848	
5507	0	32900	
5508	0	32944	
5509	0	33002	
5510	0	33044	
5511	0	33040	
5512	0	33056	
5513	0	33040	
5514	0	32968	
5515	0	32964	
5516	0	32992	
5517	0	33008	
5518	0	33016	
5519	0	33040	
5520	0	33120	
5521	0	33200	
5522	0	33272	
5523	0	33336	
5524	0	33360	
5525	0	33368	
5526	0	33396	
5527	0	33420	
5528	0	33456	
5529	0	33472	
5530	0	33506	
5531	0	33492	
5532	0	33512	
5533	0	33540	
5534	0	33532	
5535	0	33556	
5536	0	33588	
5537	0	33632	
5538	0	33688	
5539	0	33764	
5540	0	33808	
5541	0	33884	
5542	0	33952	
5543	0	33888	
5544	0	33784	
5545	0	33728	
5546	0	33688	
5547	0	33664	
5548	0	33692	
5549	0	33732	
5550	0	33760	
5551	0	33748	
5552	0	33744	
5553	0	33764	
5554	0	33808	
5555	0	33824	
5556	0	33884	
5557	0	33932	
5558	0	33936	
5559	0	33940	
5560	0	33978	
5561	0	34000	
5562	0	34032	
5563	0	34100	
5564	0	34160	
5565	0	34152	
5566	0	34120	
5567	0	34080	
5568	0	34012	
5569	0	33964	
5570	0	33920	
5571	0	33888	
5572	0	33840	
5573	0	33846	
5574	0	33928	
5575	0	34040	
5576	0	34144	
5577	0	34252	
5578	0	34348	
5579	0	34364	
5580	0	34328	
5581	0	34360	
5582	0	34354	
5583	0	34320	
5584	0	34264	
5585	0	34208	
5586	0	34176	
5587	0	34176	
5588	0	34208	
5589	0	34240	
5590	0	34160	
5591	0	34148	
5592	0	34176	
5593	0	34224	
5594	0	34240	
5595	0	34248	
5596	0	34288	
5597	0	34348	
5598	0	34444	
5599	0	34544	
5600	0	34588	
5601	0	34648	
5602	0	34736	
5603	0	34776	
5604	0	34700	
5605	0	34684	
5606	0	34648	
5607	0	34600	
5608	0	34580	
5609	0	34596	
5610	0	34588	
5611	0	34608	
5612	0	34592	
5613	0	34544	
5614	0	34448	
5615	0	34356	
5616	0	34296	
5617	0	34312	
5618	0	34260	
5619	0	34120	
5620	0	34016	
5621	0	34020	
5622	0	34044	
5623	0	34080	
5624	0	34080	
5625	0	34080	
5626	0	34096	
5627	0	34040	
5628	0	33912	
5629	0	33818	
5630	0	33764	
5631	0	33700	
5632	0	33596	
5633	0	33456	
5634	0	33332	
5635	0	33232	
5636	0	33108	
5637	0	32996	
5638	0	32928	
5639	0	32860	
5640	0	32736	
5641	0	32644	
5642	0	32556	
5643	0	32456	
5644	0	32336	
5645	0	32188	
5646	0	32096	
5647	0	32040	
5648	0	31936	
5649	0	31812	
5650	0	31760	
5651	0	31696	
5652	0	31596	
5653	0	31496	
5654	0	31464	
5655	0	31388	
5656	0	31336	
5657	0	31276	
5658	0	31192	
5659	0	31094	
5660	0	30976	
5661	0	30890	
5662	0	30800	
5663	0	30746	
5664	0	30672	
5665	0	30592	
5666	0	30536	
5667	0	30492	
5668	0	30484	
5669	0	30432	
5670	0	30378	
5671	0	30304	
5672	0	30200	
5673	0	30164	
5674	0	30176	
5675	0	30172	
5676	0	30204	
5677	0	30228	
5678	0	30248	
5679	0	30268	
5680	0	30320	
5681	0	30340	
5682	0	30344	
5683	0	30380	
5684	0	30320	
5685	0	30158	
5686	0	30030	
5687	0	29944	
5688	0	29928	
5689	0	29928	
5690	0	29960	
5691	0	30048	
5692	0	30048	
5693	0	30020	
5694	0	30052	
5695	0	30060	
5696	0	30128	
5697	0	30232	
5698	0	30404	
5699	0	30480	
5700	0	30516	
5701	0	30540	
5702	0	30570	
5703	0	30608	
5704	0	30588	
5705	0	30580	
5706	0	30572	
5707	0	30576	
5708	0	30540	
5709	0	30448	
5710	0	30408	
5711	0	30452	
5712	0	30528	
5713	0	30594	
5714	0	30652	
5715	0	30700	
5716	0	30748	
5717	0	30792	
5718	0	30904	
5719	0	31028	
5720	0	31048	
5721	0	31024	
5722	0	30964	
5723	0	30864	
5724	0	30798	
5725	0	30752	
5726	0	30776	
5727	0	30860	
5728	0	30952	
5729	0	30980	
5730	0	30980	
5731	0	30960	
5732	0	30876	
5733	0	30828	
5734	0	30824	
5735	0	30888	
5736	0	30964	
5737	0	31112	
5738	0	31224	
5739	0	31248	
5740	0	31272	
5741	0	31276	
5742	0	31284	
5743	0	31264	
5744	0	31188	
5745	0	31120	
5746	0	31116	
5747	0	31040	
5748	0	30920	
5749	0	30824	
5750	0	30728	
5751	0	30704	
5752	0	30796	
5753	0	30888	
5754	0	30976	
5755	0	31076	
5756	0	31212	
5757	0	31316	
5758	0	31392	
5759	0	31432	
5760	0	31496	
5761	0	31584	
5762	0	31600	
5763	0	31556	
5764	0	31508	
5765	0	31512	
5766	0	31508	
5767	0	31468	
5768	0	31376	
5769	0	31208	
5770	0	31112	
5771	0	31056	
5772	0	31032	
5773	0	31016	
5774	0	31008	
5775	0	31064	
5776	0	31120	
5777	0	31130	
5778	0	31176	
5779	0	31216	
5780	0	31248	
5781	0	31340	
5782	0	31400	
5783	0	31424	
5784	0	31468	
5785	0	31528	
5786	0	31602	
5787	0	31596	
5788	0	31464	
5789	0	31324	
5790	0	31270	
5791	0	31300	
5792	0	31448	
5793	0	31484	
5794	0	31432	
5795	0	31372	
5796	0	31396	
5797	0	31472	
5798	0	31524	
5799	0	31524	
5800	0	31584	
5801	0	31628	
5802	0	31620	
5803	0	31524	
5804	0	31412	
5805	0	31284	
5806	0	31180	
5807	0	31104	
5808	0	31048	
5809	0	31020	
5810	0	30996	
5811	0	30956	
5812	0	30984	
5813	0	31040	
5814	0	31104	
5815	0	31208	
5816	0	31328	
5817	0	31384	
5818	0	31432	
5819	0	31596	
5820	0	31752	
5821	0	31812	
5822	0	31800	
5823	0	31784	
5824	0	31724	
5825	0	31660	
5826	0	31608	
5827	0	31620	
5828	0	31604	
5829	0	31624	
5830	0	31568	
5831	0	31418	
5832	0	31388	
5833	0	31432	
5834	0	31468	
5835	0	31372	
5836	0	31312	
5837	0	31328	
5838	0	31368	
5839	0	31380	
5840	0	31412	
5841	0	31408	
5842	0	31320	
5843	0	31252	
5844	0	31220	
5845	0	31256	
5846	0	31260	
5847	0	31244	
5848	0	31244	
5849	0	31260	
5850	0	31298	
5851	0	31312	
5852	0	31392	
5853	0	31564	
5854	0	31800	
5855	0	31928	
5856	0	32064	
5857	0	32128	
5858	0	32032	
5859	0	31928	
5860	0	31832	
5861	0	31792	
5862	0	31688	
5863	0	31604	
5864	0	31640	
5865	0	31792	
5866	0	31908	
5867	0	31892	
5868	0	31824	
5869	0	31712	
5870	0	31596	
5871	0	31500	
5872	0	31492	
5873	0	31564	
5874	0	31660	
5875	0	31672	
5876	0	31768	
5877	0	31928	
5878	0	31992	
5879	0	31968	
5880	0	32008	
5881	0	32028	
5882	0	32012	
5883	0	32088	
5884	0	32192	
5885	0	32368	
5886	0	32438	
5887	0	32444	
5888	0	32500	
5889	0	32676	
5890	0	32880	
5891	0	32996	
5892	0	33220	
5893	0	33444	
5894	0	33660	
5895	0	33808	
5896	0	33856	
5897	0	33864	
5898	0	33860	
5899	0	33864	
5900	0	33756	
5901	0	33628	
5902	0	33616	
5903	0	33612	
5904	0	33488	
5905	0	33290	
5906	0	33192	
5907	0	33152	
5908	0	33214	
5909	0	33400	
5910	0	33392	
5911	0	33248	
5912	0	33106	
5913	0	33000	
5914	0	32892	
5915	0	32704	
5916	0	32524	
5917	0	32372	
5918	0	32280	
5919	0	32282	
5920	0	32336	
5921	0	32376	
5922	0	32352	
5923	0	32260	
5924	0	32192	
5925	0	32164	
5926	0	32232	
5927	0	32340	
5928	0	32392	
5929	0	32460	
5930	0	32510	
5931	0	32424	
5932	0	32392	
5933	0	32412	
5934	0	32396	
5935	0	32400	
5936	0	32412	
5937	0	32384	
5938	0	32408	
5939	0	32280	
5940	0	32028	
5941	0	31808	
5942	0	31584	
5943	0	31504	
5944	0	31592	
5945	0	31776	
5946	0	31896	
5947	0	31912	
5948	0	31872	
5949	0	31936	
5950	0	31992	
5951	0	32024	
5952	0	32194	
5953	0	32268	
5954	0	32116	
5955	0	31900	
5956	0	31728	
5957	0	31624	
5958	0	31552	
5959	0	31516	
5960	0	31548	
5961	0	31552	
5962	0	31540	
5963	0	31508	
5964	0	31476	
5965	0	31400	
5966	0	31368	
5967	0	31416	
5968	0	31460	
5969	0	31516	
5970	0	31608	
5971	0	31738	
5972	0	31840	
5973	0	31836	
5974	0	31876	
5975	0	31944	
5976	0	32048	
5977	0	32128	
5978	0	32080	
5979	0	31948	
5980	0	31956	
5981	0	32048	
5982	0	32016	
5983	0	31968	
5984	0	31880	
5985	0	31804	
5986	0	31764	
5987	0	31736	
5988	0	31652	
5989	0	31498	
5990	0	31464	
5991	0	31452	
5992	0	31432	
5993	0	31384	
5994	0	31272	
5995	0	31192	
5996	0	31116	
5997	0	31148	
5998	0	31260	
5999	0	31440	
6000	0	31644	
6001	0	31842	
6002	0	31928	
6003	0	32068	
6004	0	32234	
6005	0	32408	
6006	0	32416	
6007	0	32396	
6008	0	32356	
6009	0	32336	
6010	0	32356	
6011	0	32388	
6012	0	32428	
6013	0	32364	
6014	0	32256	
6015	0	32152	
6016	0	32224	
6017	0	32368	
6018	0	32384	
6019	0	32414	
6020	0	32520	
6021	0	32588	
6022	0	32576	
6023	0	32532	
6024	0	32416	
6025	0	32060	
6026	0	31680	
6027	0	31464	
6028	0	31380	
6029	0	31464	
6030	0	31752	
6031	0	32112	
6032	0	32536	
6033	0	32960	
6034	0	33560	
6035	0	34156	
6036	0	34664	
6037	0	34940	
6038	0	35148	
6039	0	35474	
6040	0	36052	
6041	0	36896	
6042	0	37856	
6043	0	39140	
6044	0	40664	
6045	0	42368	
6046	0	44376	
6047	0	46624	
6048	0	48880	
6049	0	51080	
6050	0	53288	
6051	0	55392	
6052	0	57280	
6053	0	58912	
6054	0	60320	
6055	0	61556	
6056	0	62648	
6057	0	63772	
6058	0	64396	
6059	0	64688	
6060	0	64772	
6061	0	63752	
6062	0	60464	
6063	0	56620	
6064	0	52212	
6065	0	47264	
6066	0	42172	
6067	0	37480	
6068	0	33776	
6069	0	31020	
6070	0	29016	
6071	0	27696	
6072	0	26876	
6073	0	26452	
6074	0	26384	
6075	0	26524	
6076	0	26880	
6077	0	27304	
6078	0	27776	
6079	0	28156	
6080	0	28472	
6081	0	28732	
6082	0	29012	
6083	0	29308	
6084	0	29616	
6085	0	29882	
6086	0	30124	
6087	0	30288	
6088	0	30452	
6089	0	30668	
6090	0	30724	
6091	0	30664	
6092	0	30624	
6093	0	30644	
6094	0	30544	
6095	0	30288	
6096	0	30064	
6097	0	30014	
6098	0	29984	
6099	0	30036	
6100	0	30168	
6101	0	30402	
6102	0	30664	
6103	0	30940	
6104	0	31136	
6105	0	31160	
6106	0	30944	
6107	0	30560	
6108	0	30196	
6109	0	30036	
6110	0	29924	
6111	0	29952	
6112	0	29900	
6113	0	29780	
6114	0	29828	
6115	0	29968	
6116	0	30044	
6117	0	29992	
6118	0	29920	
6119	0	29992	
6120	0	30030	
6121	0	30044	
6122	0	30008	
6123	0	30052	
6124	0	30136	
6125	0	30252	
6126	0	30408	
6127	0	30524	
6128	0	30488	
6129	0	30356	
6130	0	30280	
6131	0	30240	
6132	0	30146	
6133	0	30100	
6134	0	30218	
6135	0	30336	
6136	0	30412	
6137	0	30532	
6138	0	30626	
6139	0	30848	
6140	0	31040	
6141	0	31144	
6142	0	31108	
6143	0	31010	
6144	0	30876	
6145	0	30676	
6146	0	30786	
6147	0	30952	
6148	0	31120	
6149	0	31196	
6150	0	31258	
6151	0	31304	
6152	0	31258	
6153	0	31296	
6154	0	31344	
6155	0	31396	
6156	0	31306	
6157	0	31192	
6158	0	31196	
6159	0	31232	
6160	0	31332	
6161	0	31416	
6162	0	31504	
6163	0	31604	
6164	0	31668	
6165	0	31676	
6166	0	31614	
6167	0	31630	
6168	0	31840	
6169	0	32168	
6170	0	32384	
6171	0	32408	
6172	0	32360	
6173	0	32416	
6174	0	32520	
6175	0	32448	
6176	0	32392	
6177	0	32414	
6178	0	32460	
6179	0	32292	
6180	0	32120	
6181	0	32008	
6182	0	31904	
6183	0	31948	
6184	0	32090	
6185	0	32092	
6186	0	32000	
6187	0	31960	
6188	0	31988	
6189	0	32120	
6190	0	32224	
6191	0	32492	
6192	0	32832	
6193	0	32988	
6194	0	32944	
6195	0	32960	
6196	0	32980	
6197	0	32988	
6198	0	32930	
6199	0	32808	
6200	0	32706	
6201	0	32728	
6202	0	32792	
6203	0	32848	
6204	0	32852	
6205	0	32868	
6206	0	32876	
6207	0	32864	
6208	0	32878	
6209	0	32904	
6210	0	32824	
6211	0	32810	
6212	0	32844	
6213	0	32820	
6214	0	32728	
6215	0	32684	
6216	0	32848	
6217	0	33108	
6218	0	33304	
6219	0	33436	
6220	0	33584	
6221	0	33616	
6222	0	33624	
6223	0	33604	
6224	0	33424	
6225	0	33268	
6226	0	33180	
6227	0	33132	
6228	0	33240	
6229	0	33476	
6230	0	33696	
6231	0	33840	
6232	0	33932	
6233	0	33976	
6234	0	34060	
6235	0	34056	
6236	0	33952	
6237	0	33736	
6238	0	33588	
6239	0	33548	
6240	0	33568	
6241	0	33760	
6242	0	33978	
6243	0	34056	
6244	0	34124	
6245	0	34248	
6246	0	34172	
6247	0	34164	
6248	0	34240	
6249	0	34336	
6250	0	34344	
6251	0	34328	
6252	0	34304	
6253	0	34288	
6254	0	34412	
6255	0	34572	
6256	0	34528	
6257	0	34428	
6258	0	34348	
6259	0	34292	
6260	0	34344	
6261	0	34328	
6262	0	34330	
6263	0	34432	
6264	0	34508	
6265	0	34564	
6266	0	34676	
6267	0	34720	
6268	0	34640	
6269	0	34596	
6270	0	34736	
6271	0	34844	
6272	0	34920	
6273	0	35098	
6274	0	35260	
6275	0	35280	
6276	0	35224	
6277	0	35108	
6278	0	34932	
6279	0	34708	
6280	0	34516	
6281	0	34392	
6282	0	34400	
6283	0	34364	
6284	0	34336	
6285	0	34420	
6286	0	34564	
6287	0	34740	
6288	0	34868	
6289	0	34972	
6290	0	34980	
6291	0	34864	
6292	0	34804	
6293	0	34752	
6294	0	34720	
6295	0	34732	
6296	0	34788	
6297	0	34848	
6298	0	34896	
6299	0	34976	
6300	0	35092	
6301	0	35172	
6302	0	35360	
6303	0	35512	
6304	0	35440	
6305	0	35300	
6306	0	35048	
6307	0	34720	
6308	0	34560	
6309	0	34452	
6310	0	34364	
6311	0	34320	
6312	0	34322	
6313	0	34448	
6314	0	34612	
6315	0	34880	
6316	0	35002	
6317	0	34992	
6318	0	34896	
6319	0	34732	
6320	0	34592	
6321	0	34416	
6322	0	34216	
6323	0	34092	
6324	0	34068	
6325	0	34056	
6326	0	34016	
6327	0	33792	
6328	0	33568	
6329	0	33392	
6330	0	33344	
6331	0	33300	
6332	0	33192	
6333	0	33084	
6334	0	33034	
6335	0	33004	
6336	0	32888	
6337	0	32880	
6338	0	32756	
6339	0	32660	
6340	0	32664	
6341	0	32666	
6342	0	32544	
6343	0	32396	
6344	0	32184	
6345	0	32034	
6346	0	31948	
6347	0	31824	
6348	0	31672	
6349	0	31528	
6350	0	31248	
6351	0	30964	
6352	0	30696	
6353	0	30476	
6354	0	30372	
6355	0	30444	
6356	0	30548	
6357	0	30568	
6358	0	30448	
6359	0	30272	
6360	0	30088	
6361	0	29804	
6362	0	29416	
6363	0	29098	
6364	0	28896	
6365	0	28848	
6366	0	28916	
6367	0	29096	
6368	0	29280	
6369	0	29376	
6370	0	29456	
6371	0	29592	
6372	0	29672	
6373	0	29724	
6374	0	29756	
6375	0	29646	
6376	0	29496	
6377	0	29408	
6378	0	29184	
6379	0	28964	
6380	0	28912	
6381	0	28992	
6382	0	29028	
6383	0	29044	
6384	0	29112	
6385	0	29136	
6386	0	29084	
6387	0	29132	
6388	0	29156	
6389	0	29148	
6390	0	29248	
6391	0	29356	
6392	0	29488	
6393	0	29632	
6394	0	29856	
6395	0	30096	
6396	0	30180	
6397	0	30260	
6398	0	30268	
6399	0	30084	
6400	0	29884	
6401	0	29744	
6402	0	29628	
6403	0	29592	
6404	0	29504	
6405	0	29484	
6406	0	29548	
6407	0	29680	
6408	0	29932	
6409	0	30194	
6410	0	30376	
6411	0	30432	
6412	0	30480	
6413	0	30394	
6414	0	30344	
6415	0	30308	
6416	0	30248	
6417	0	30188	
6418	0	30192	
6419	0	30216	
6420	0	30280	
6421	0	30440	
6422	0	30592	
6423	0	30653	
6424	0	30732	
6425	0	30844	
6426	0	30940	
6427	0	31040	
6428	0	31124	
6429	0	31060	
6430	0	30904	
6431	0	30792	
6432	0	30752	
6433	0	30860	
6434	0	30964	
6435	0	31164	
6436	0	31360	
6437	0	31536	
6438	0	31702	
6439	0	31844	
6440	0	31884	
6441	0	31864	
6442	0	31768	
6443	0	31520	
6444	0	31336	
6445	0	31196	
6446	0	31248	
6447	0	31400	
6448	0	31552	
6449	0	31704	
6450	0	31856	
6451	0	31924	
6452	0	31904	
6453	0	31760	
6454	0	31656	
6455	0	31636	
6456	0	31492	
6457	0	31306	
6458	0	31128	
6459	0	31156	
6460	0	31260	
6461	0	31356	
6462	0	31472	
6463	0	31584	
6464	0	31672	
6465	0	31740	
6466	0	31760	
6467	0	31716	
6468	0	31528	
6469	0	31516	
6470	0	31600	
6471	0	31680	
6472	0	31770	
6473	0	31816	
6474	0	31868	
6475	0	31980	
6476	0	31996	
6477	0	31960	
6478	0	31936	
6479	0	31912	
6480	0	31898	
6481	0	31778	
6482	0	31696	
6483	0	31568	
6484	0	31548	
6485	0	31576	
6486	0	31600	
6487	0	31792	
6488	0	31988	
6489	0	32204	
6490	0	32348	
6491	0	32376	
6492	0	32352	
6493	0	32388	
6494	0	32488	
6495	0	32500	
6496	0	32484	
6497	0	32408	
6498	0	32264	
6499	0	32152	
6500	0	32082	
6501	0	32108	
6502	0	32176	
6503	0	32182	
6504	0	32056	
6505	0	31992	
6506	0	31924	
6507	0	31824	
6508	0	31760	
6509	0	31848	
6510	0	31912	
6511	0	32000	
6512	0	32040	
6513	0	32012	
6514	0	32012	
6515	0	31928	
6516	0	31864	
6517	0	31852	
6518	0	31894	
6519	0	32020	
6520	0	32048	
6521	0	32020	
6522	0	32168	
6523	0	32280	
6524	0	32280	
6525	0	32240	
6526	0	32056	
6527	0	31900	
6528	0	31768	
6529	0	31660	
6530	0	31600	
6531	0	31568	
6532	0	31562	
6533	0	31576	
6534	0	31568	
6535	0	31522	
6536	0	31524	
6537	0	31604	
6538	0	31702	
6539	0	31884	
6540	0	32000	
6541	0	32032	
6542	0	32080	
6543	0	32212	
6544	0	32304	
6545	0	32320	
6546	0	32332	
6547	0	32312	
6548	0	32408	
6549	0	32448	
6550	0	32336	
6551	0	32168	
6552	0	32008	
6553	0	31872	
6554	0	31828	
6555	0	31784	
6556	0	31844	
6557	0	31988	
6558	0	32096	
6559	0	32076	
6560	0	31996	
6561	0	31956	
6562	0	32000	
6563	0	32160	
6564	0	32336	
6565	0	32440	
6566	0	32588	
6567	0	32752	
6568	0	32904	
6569	0	32988	
6570	0	33021	
6571	0	33148	
6572	0	33280	
6573	0	33400	
6574	0	33460	
6575	0	33508	
6576	0	33456	
6577	0	33352	
6578	0	33304	
6579	0	33358	
6580	0	33472	
6581	0	33664	
6582	0	33774	
6583	0	33812	
6584	0	33848	
6585	0	33880	
6586	0	33952	
6587	0	33972	
6588	0	33852	
6589	0	33524	
6590	0	33152	
6591	0	32888	
6592	0	32672	
6593	0	32492	
6594	0	32376	
6595	0	32256	
6596	0	32160	
6597	0	32128	
6598	0	32172	
6599	0	32284	
6600	0	32368	
6601	0	32480	
6602	0	32508	
6603	0	32544	
6604	0	32600	
6605	0	32672	
6606	0	32608	
6607	0	32428	
6608	0	32300	
6609	0	32268	
6610	0	32240	
6611	0	32224	
6612	0	32216	
6613	0	32264	
6614	0	32320	
6615	0	32344	
6616	0	32416	
6617	0	32504	
6618	0	32512	
6619	0	32468	
6620	0	32440	
6621	0	32354	
6622	0	32280	
6623	0	32302	
6624	0	32324	
6625	0	32300	
6626	0	32268	
6627	0	32160	
6628	0	31988	
6629	0	31840	
6630	0	31744	
6631	0	31704	
6632	0	31724	
6633	0	31692	
6634	0	31712	
6635	0	31756	
6636	0	31840	
6637	0	31968	
6638	0	32008	
6639	0	31992	
6640	0	31912	
6641	0	31844	
6642	0	31696	
6643	0	31712	
6644	0	31848	
6645	0	32020	
6646	0	32024	
6647	0	32032	
6648	0	32068	
6649	0	32088	
6650	0	32090	
6651	0	32128	
6652	0	32164	
6653	0	32200	
6654	0	32216	
6655	0	32120	
6656	0	31940	
6657	0	31840	
6658	0	31812	
6659	0	31788	
6660	0	31816	
6661	0	31832	
6662	0	31928	
6663	0	32016	
6664	0	32022	
6665	0	32008	
6666	0	32016	
6667	0	32100	
6668	0	32172	
6669	0	32184	
6670	0	32148	
6671	0	32132	
6672	0	32156	
6673	0	32200	
6674	0	32192	
6675	0	32184	
6676	0	32274	
6677	0	32280	
6678	0	32328	
6679	0	32380	
6680	0	32376	
6681	0	32280	
6682	0	32232	
6683	0	32240	
6684	0	32268	
6685	0	32208	
6686	0	32200	
6687	0	32170	
6688	0	32104	
6689	0	32104	
6690	0	32152	
6691	0	32336	
6692	0	32512	
6693	0	32632	
6694	0	32662	
6695	0	32576	
6696	0	32528	
6697	0	32504	
6698	0	32424	
6699	0	32340	
6700	0	32188	
6701	0	32084	
6702	0	32034	
6703	0	31936	
6704	0	31852	
6705	0	31932	
6706	0	32092	
6707	0	32416	
6708	0	32776	
6709	0	33208	
6710	0	33676	
6711	0	34154	
6712	0	34688	
6713	0	35316	
6714	0	35888	
6715	0	36336	
6716	0	36896	
6717	0	37642	
6718	0	38644	
6719	0	39860	
6720	0	41256	
6721	0	42896	
6722	0	44840	
6723	0	46964	
6724	0	49132	
6725	0	51496	
6726	0	54040	
6727	0	56744	
6728	0	59500	
6729	0	61988	
6730	0	63604	
6731	0	64432	
6732	0	64802	
6733	0	64960	
6734	0	64976	
6735	0	64936	
6736	0	64856	
6737	0	64748	
6738	0	64624	
6739	0	64496	
6740	0	59104	
6741	0	53168	
6742	0	46920	
6743	0	41040	
6744	0	36140	
6745	0	32376	
6746	0	29644	
6747	0	27656	
6748	0	26526	
6749	0	26044	
6750	0	25960	
6751	0	26192	
6752	0	26748	
6753	0	27464	
6754	0	28144	
6755	0	28720	
6756	0	29112	
6757	0	29344	
6758	0	29472	
6759	0	29504	
6760	0	29588	
6761	0	29728	
6762	0	29882	
6763	0	29992	
6764	0	30066	
6765	0	30170	
6766	0	30292	
6767	0	30312	
6768	0	30420	
6769	0	30516	
6770	0	30508	
6771	0	30452	
6772	0	30448	
6773	0	30448	
6774	0	30456	
6775	0	30460	
6776	0	30434	
6777	0	30332	
6778	0	30306	
6779	0	30334	
6780	0	30344	
6781	0	30352	
6782	0	30328	
6783	0	30360	
6784	0	30416	
6785	0	30458	
6786	0	30464	
6787	0	30488	
6788	0	30412	
6789	0	30292	
6790	0	30224	
6791	0	30184	
6792	0	30176	
6793	0	30148	
6794	0	30160	
6795	0	30204	
6796	0	30298	
6797	0	30444	
6798	0	30628	
6799	0	30776	
6800	0	30938	
6801	0	30961	
6802	0	30954	
6803	0	30920	
6804	0	30836	
6805	0	30760	
6806	0	30744	
6807	0	30888	
6808	0	31024	
6809	0	31164	
6810	0	31282	
6811	0	31202	
6812	0	31056	
6813	0	30924	
6814	0	30868	
6815	0	30854	
6816	0	30908	
6817	0	30908	
6818	0	30916	
6819	0	30956	
6820	0	31026	
6821	0	31088	
6822	0	31180	
6823	0	31368	
6824	0	31572	
6825	0	31688	
6826	0	31852	
6827	0	31968	
6828	0	32020	
6829	0	32144	
6830	0	32216	
6831	0	32240	
6832	0	32288	
6833	0	32326	
6834	0	32288	
6835	0	32130	
6836	0	31948	
6837	0	31840	
6838	0	31828	
6839	0	31912	
6840	0	32064	
6841	0	32081	
6842	0	32012	
6843	0	32012	
6844	0	32080	
6845	0	32020	
6846	0	31964	
6847	0	31888	
6848	0	31848	
6849	0	31908	
6850	0	31996	
6851	0	32028	
6852	0	32064	
6853	0	32188	
6854	0	32312	
6855	0	32416	
6856	0	32508	
6857	0	32592	
6858	0	32712	
6859	0	32768	
6860	0	32736	
6861	0	32660	
6862	0	32592	
6863	0	32608	
6864	0	32632	
6865	0	32640	
6866	0	32720	
6867	0	32860	
6868	0	32932	
6869	0	32940	
6870	0	32880	
6871	0	32904	
6872	0	32976	
6873	0	33020	
6874	0	32962	
6875	0	32932	
6876	0	32960	
6877	0	33120	
6878	0	33224	
6879	0	33240	
6880	0	33216	
6881	0	33124	
6882	0	32996	
6883	0	32926	
6884	0	32952	
6885	0	32928	
6886	0	32884	
6887	0	32920	
6888	0	33076	
6889	0	33200	
6890	0	33322	
6891	0	33468	
6892	0	33592	
6893	0	33612	
6894	0	33632	
6895	0	33588	
6896	0	33508	
6897	0	33448	
6898	0	33440	
6899	0	33440	
6900	0	33444	
6901	0	33520	
6902	0	33648	
6903	0	33768	
6904	0	33880	
6905	0	33964	
6906	0	34034	
6907	0	34092	
6908	0	34100	
6909	0	34076	
6910	0	34084	
6911	0	34096	
6912	0	34000	
6913	0	33908	
6914	0	33904	
6915	0	33868	
6916	0	33864	
6917	0	33884	
6918	0	33964	
6919	0	34020	
6920	0	33984	
6921	0	33988	
6922	0	34048	
6923	0	34152	
6924	0	34208	
6925	0	34192	
6926	0	34076	
6927	0	34024	
6928	0	34120	
6929	0	34240	
6930	0	34356	
6931	0	34404	
6932	0	34380	
6933	0	34296	
6934	0	34240	
6935	0	34316	
6936	0	34452	
6937	0	34520	
6938	0	34560	
6939	0	34640	
6940	0	34672	
6941	0	34632	
6942	0	34556	
6943	0	34528	
6944	0	34548	
6945	0	34640	
6946	0	34732	
6947	0	34900	
6948	0	35104	
6949	0	35308	
6950	0	35416	
6951	0	35436	
6952	0	35404	
6953	0	35280	
6954	0	35074	
6955	0	34848	
6956	0	34592	
6957	0	34408	
6958	0	34306	
6959	0	34328	
6960	0	34400	
6961	0	34440	
6962	0	34568	
6963	0	34768	
6964	0	35018	
6965	0	35222	
6966	0	35320	
6967	0	35304	
6968	0	35224	
6969	0	35188	
6970	0	35162	
6971	0	35000	
6972	0	34780	
6973	0	34644	
6974	0	34608	
6975	0	34620	
6976	0	34760	
6977	0	34880	
6978	0	34982	
6979	0	35088	
6980	0	35180	
6981	0	35236	
6982	0	35192	
6983	0	35112	
6984	0	35028	
6985	0	34948	
6986	0	34852	
6987	0	34772	
6988	0	34716	
6989	0	34650	
6990	0	34560	
6991	0	34490	
6992	0	34464	
6993	0	34464	
6994	0	34424	
6995	0	34352	
6996	0	34260	
6997	0	34156	
6998	0	34136	
6999	0	34008	
7000	0	33908	
7001	0	33800	
7002	0	33640	
7003	0	33460	
7004	0	33184	
7005	0	32972	
7006	0	32764	
7007	0	32562	
7008	0	32456	
7009	0	32392	
7010	0	32308	
7011	0	32252	
7012	0	32134	
7013	0	32020	
7014	0	31908	
7015	0	31848	
7016	0	31890	
7017	0	31904	
7018	0	31828	
7019	0	31752	
7020	0	31600	
7021	0	31400	
7022	0	31200	
7023	0	31060	
7024	0	31002	
7025	0	30852	
7026	0	30664	
7027	0	30500	
7028	0	30416	
7029	0	30360	
7030	0	30284	
7031	0	30288	
7032	0	30304	
7033	0	30234	
7034	0	30096	
7035	0	30020	
7036	0	30000	
7037	0	29996	
7038	0	29944	
7039	0	29848	
7040	0	29672	
7041	0	29568	
7042	0	29530	
7043	0	29472	
7044	0	29464	
7045	0	29534	
7046	0	29540	
7047	0	29456	
7048	0	29372	
7049	0	29376	
7050	0	29448	
7051	0	29460	
7052	0	29524	
7053	0	29608	
7054	0	29622	
7055	0	29660	
7056	0	29580	
7057	0	29508	
7058	0	29534	
7059	0	29520	
7060	0	29488	
7061	0	29472	
7062	0	29368	
7063	0	29308	
7064	0	29288	
7065	0	29344	
7066	0	29358	
7067	0	29352	
7068	0	29316	
7069	0	29210	
7070	0	29160	
7071	0	29272	
7072	0	29420	
7073	0	29538	
7074	0	29516	
7075	0	29474	
7076	0	29528	
7077	0	29642	
7078	0	29744	
7079	0	29852	
7080	0	29968	
7081	0	30012	
7082	0	30040	
7083	0	30080	
7084	0	30144	
7085	0	30256	
7086	0	30312	
7087	0	30240	
7088	0	30156	
7089	0	30036	
7090	0	29992	
7091	0	30052	
7092	0	30120	
7093	0	30160	
7094	0	30208	
7095	0	30282	
7096	0	30300	
7097	0	30352	
7098	0	30400	
7099	0	30432	
7100	0	30540	
7101	0	30676	
7102	0	30840	
7103	0	30936	
7104	0	30984	
7105	0	31008	
7106	0	31012	
7107	0	31000	
7108	0	30964	
7109	0	30908	
7110	0	30900	
7111	0	31016	
7112	0	31140	
7113	0	31232	
7114	0	31296	
7115	0	31328	
7116	0	31320	
7117	0	31320	
7118	0	31304	
7119	0	31240	
7120	0	31232	
7121	0	31200	
7122	0	31224	
7123	0	31252	
7124	0	31296	
7125	0	31352	
7126	0	31445	
7127	0	31576	
7128	0	31604	
7129	0	31520	
7130	0	31420	
7131	0	31360	
7132	0	31336	
7133	0	31308	
7134	0	31272	
7135	0	31216	
7136	0	31236	
7137	0	31282	
7138	0	31388	
7139	0	31532	
7140	0	31680	
7141	0	31864	
7142	0	31980	
7143	0	32076	
7144	0	32096	
7145	0	32100	
7146	0	32076	
7147	0	32032	
7148	0	31936	
7149	0	31848	
7150	0	31752	
7151	0	31776	
7152	0	31868	
7153	0	31952	
7154	0	31944	
7155	0	31960	
7156	0	31992	
7157	0	31988	
7158	0	31960	
7159	0	31968	
7160	0	32008	
7161	0	32000	
7162	0	31952	
7163	0	32056	
7164	0	32184	
7165	0	32208	
7166	0	32184	
7167	0	32072	
7168	0	31996	
7169	0	31960	
7170	0	31876	
7171	0	31856	
7172	0	31852	
7173	0	31784	
7174	0	31688	
7175	0	31640	
7176	0	31632	
7177	0	31616	
7178	0	31646	
7179	0	31708	
7180	0	31800	
7181	0	31820	
7182	0	31920	
7183	0	31968	
7184	0	32024	
7185	0	32040	
7186	0	32008	
7187	0	32012	
7188	0	32016	
7189	0	31908	
7190	0	31834	
7191	0	31760	
7192	0	31676	
7193	0	31704	
7194	0	31832	
7195	0	31880	
7196	0	31924	
7197	0	31952	
7198	0	31964	
7199	0	31920	
7200	0	31986	
7201	0	32076	
7202	0	32128	
7203	0	32040	
7204	0	31928	
7205	0	31828	
7206	0	31768	
7207	0	31708	
7208	0	31696	
7209	0	31684	
7210	0	31716	
7211	0	31720	
7212	0	31732	
7213	0	31776	
7214	0	31840	
7215	0	31888	
7216	0	31928	
7217	0	31964	
7218	0	31968	
7219	0	31868	
7220	0	31776	
7221	0	31776	
7222	0	31812	
7223	0	31876	
7224	0	31822	
7225	0	31776	
7226	0	31872	
7227	0	31994	
7228	0	32124	
7229	0	32168	
7230	0	32152	
7231	0	32168	
7232	0	32136	
7233	0	32136	
7234	0	32184	
7235	0	32188	
7236	0	32188	
7237	0	32248	
7238	0	32352	
7239	0	32396	
7240	0	32408	
7241	0	32384	
7242	0	32364	
7243	0	32304	
7244	0	32296	
7245	0	32340	
7246	0	32432	
7247	0	32556	
7248	0	32640	
7249	0	32720	
7250	0	32792	
7251	0	32756	
7252	0	32708	
7253	0	32772	
7254	0	32896	
7255	0	33044	
7256	0	33192	
7257	0	33336	
7258	0	33504	
7259	0	33680	
7260	0	33692	
7261	0	33600	
7262	0	33640	
7263	0	33712	
7264	0	33830	
7265	0	33980	
7266	0	34056	
7267	0	34064	
7268	0	34068	
7269	0	34024	
7270	0	33928	
7271	0	33744	
7272	0	33472	
7273	0	33236	
7274	0	33040	
7275	0	32872	
7276	0	32712	
7277	0	32612	
7278	0	32644	
7279	0	32666	
7280	0	32672	
7281	0	32688	
7282	0	32768	
7283	0	32820	
7284	0	32848	
7285	0	32864	
7286	0	32864	
7287	0	32804	
7288	0	32672	
7289	0	32568	
7290	0	32564	
7291	0	32576	
7292	0	32644	
7293	0	32680	
7294	0	32648	
7295	0	32580	
7296	0	32516	
7297	0	32464	
7298	0	32396	
7299	0	32376	
7300	0	32384	
7301	0	32384	
7302	0	32346	
7303	0	32304	
7304	0	32248	
7305	0	32204	
7306	0	32158	
7307	0	32164	
7308	0	32124	
7309	0	32112	
7310	0	32004	
7311	0	31838	
7312	0	31744	
7313	0	31778	
7314	0	31736	
7315	0	31660	
7316	0	31632	
7317	0	31648	
7318	0	31660	
7319	0	31696	
7320	0	31692	
7321	0	31768	
7322	0	31840	
7323	0	31816	
7324	0	31780	
7325	0	31756	
7326	0	31776	
7327	0	31752	
7328	0	31764	
7329	0	31788	
7330	0	31768	
7331	0	31760	
7332	0	31740	
7333	0	31716	
7334	0	31768	
7335	0	31960	
7336	0	32052	
7337	0	32044	
7338	0	31968	
7339	0	31892	
7340	0	31856	
7341	0	31880	
7342	0	31936	
7343	0	32096	
7344	0	32168	
7345	0	32132	
7346	0	32096	
7347	0	32036	
7348	0	31980	
7349	0	31884	
7350	0	31752	
7351	0	31648	
7352	0	31680	
7353	0	31780	
7354	0	31880	
7355	0	32032	
7356	0	32132	
7357	0	32156	
7358	0	32204	
7359	0	32220	
7360	0	32188	
7361	0	32120	
7362	0	32088	
7363	0	32100	
7364	0	32152	
7365	0	32204	
7366	0	32172	
7367	0	32136	
7368	0	32140	
7369	0	32208	
7370	0	32280	
7371	0	32284	
7372	0	32192	
7373	0	32160	
7374	0	32164	
7375	0	32184	
7376	0	32248	
7377	0	32380	
7378	0	32552	
7379	0	32716	
7380	0	32794	
7381	0	32724	
7382	0	32572	
7383	0	32372	
7384	0	32024	
7385	0	31704	
7386	0	31580	
7387	0	31604	
7388	0	31708	
7389	0	31956	
7390	0	32360	
7391	0	32856	
7392	0	33368	
7393	0	33932	
7394	0	34432	
7395	0	34928	
7396	0	35380	
7397	0	35720	
7398	0	35996	
7399	0	36464	
7400	0	37180	
7401	0	38232	
7402	0	39472	
7403	0	40968	
7404	0	42628	
7405	0	44532	
7406	0	46576	
7407	0	48752	
7408	0	51120	
7409	0	53528	
7410	0	56128	
7411	0	58752	
7412	0	61096	
7413	0	62944	
7414	0	63924	
7415	0	64400	
7416	0	64608	
7417	0	64656	
7418	0	64612	
7419	0	64536	
7420	0	64440	
7421	0	64340	
7422	0	62368	
7423	0	56648	
7424	0	50688	
7425	0	44516	
7426	0	38920	
7427	0	34476	
7428	0	31208	
7429	0	28790	
7430	0	27116	
7431	0	26328	
7432	0	26032	
7433	0	26060	
7434	0	26352	
7435	0	26908	
7436	0	27500	
7437	0	28032	
7438	0	28512	
7439	0	28944	
7440	0	29338	
7441	0	29604	
7442	0	29752	
7443	0	29864	
7444	0	30000	
7445	0	30184	
7446	0	30336	
7447	0	30382	
7448	0	30424	
7449	0	30440	
7450	0	30432	
7451	0	30496	
7452	0	30592	
7453	0	30608	
7454	0	30604	
7455	0	30604	
7456	0	30580	
7457	0	30474	
7458	0	30336	
7459	0	30264	
7460	0	30172	
7461	0	30112	
7462	0	30062	
7463	0	30052	
7464	0	30072	
7465	0	30116	
7466	0	30248	
7467	0	30306	
7468	0	30296	
7469	0	30292	
7470	0	30268	
7471	0	30240	
7472	0	30156	
7473	0	30144	
7474	0	30168	
7475	0	30272	
7476	0	30336	
7477	0	30428	
7478	0	30560	
7479	0	30688	
7480	0	30770	
7481	0	30884	
7482	0	30914	
7483	0	30784	
7484	0	30668	
7485	0	30580	
7486	0	30522	
7487	0	30556	
7488	0	30572	
7489	0	30528	
7490	0	30592	
7491	0	30652	
7492	0	30704	
7493	0	30792	
7494	0	30832	
7495	0	30856	
7496	0	30872	
7497	0	30944	
7498	0	30932	
7499	0	30922	
7500	0	30964	
7501	0	31140	
7502	0	31280	
7503	0	31392	
7504	0	31540	
7505	0	31636	
7506	0	31760	
7507	0	31840	
7508	0	31872	
7509	0	31960	
7510	0	31908	
7511	0	31768	
7512	0	31640	
7513	0	31660	
7514	0	31688	
7515	0	31712	
7516	0	31684	
7517	0	31680	
7518	0	31628	
7519	0	31614	
7520	0	31656	
7521	0	31808	
7522	0	31956	
7523	0	32074	
7524	0	32192	
7525	0	32304	
7526	0	32372	
7527	0	32348	
7528	0	32282	
7529	0	32240	
7530	0	32232	
7531	0	32148	
7532	0	32072	
7533	0	32080	
7534	0	32132	
7535	0	32200	
7536	0	32232	
7537	0	32304	
7538	0	32400	
7539	0	32452	
7540	0	32456	
7541	0	32428	
7542	0	32372	
7543	0	32372	
7544	0	32356	
7545	0	32274	
7546	0	32228	
7547	0	32248	
7548	0	32304	
7549	0	32436	
7550	0	32572	
7551	0	32602	
7552	0	32568	
7553	0	32592	
7554	0	32636	
7555	0	32592	
7556	0	32588	
7557	0	32688	
7558	0	32792	
7559	0	32832	
7560	0	32892	
7561	0	32968	
7562	0	32994	
7563	0	33024	
7564	0	32988	
7565	0	32932	
7566	0	32918	
7567	0	32944	
7568	0	33012	
7569	0	33128	
7570	0	33224	
7571	0	33280	
7572	0	33220	
7573	0	33080	
7574	0	33028	
7575	0	33008	
7576	0	32972	
7577	0	33000	
7578	0	33040	
7579	0	33064	
7580	0	33116	
7581	0	33188	
7582	0	33232	
7583	0	33240	
7584	0	33288	
7585	0	33332	
7586	0	33356	
7587	0	33440	
7588	0	33564	
7589	0	33676	
7590	0	33808	
7591	0	33856	
7592	0	33888	
7593	0	33840	
7594	0	33780	
7595	0	33704	
7596	0	33636	
7597	0	33572	
7598	0	33524	
7599	0	33498	
7600	0	33568	
7601	0	33664	
7602	0	33832	
7603	0	33980	
7604	0	34022	
7605	0	33904	
7606	0	33712	
7607	0	33580	
7608	0	33540	
7609	0	33556	
7610	0	33596	
7611	0	33690	
7612	0	33824	
7613	0	33928	
7614	0	34024	
7615	0	34136	
7616	0	34276	
7617	0	34396	
7618	0	34408	
7619	0	34292	
7620	0	34140	
7621	0	34028	
7622	0	33976	
7623	0	34044	
7624	0	34146	
7625	0	34240	
7626	0	34268	
7627	0	34296	
7628	0	34378	
7629	0	34448	
7630	0	34432	
7631	0	34424	
7632	0	34420	
7633	0	34396	
7634	0	34292	
7635	0	34272	
7636	0	34284	
7637	0	34380	
7638	0	34390	
7639	0	34344	
7640	0	34360	
7641	0	34432	
7642	0	34516	
7643	0	34520	
7644	0	34506	
7645	0	34536	
7646	0	34552	
7647	0	34544	
7648	0	34562	
7649	0	34556	
7650	0	34468	
7651	0	34400	
7652	0	34372	
7653	0	34448	
7654	0	34480	
7655	0	34468	
7656	0	34408	
7657	0	34380	
7658	0	34340	
7659	0	34320	
7660	0	34312	
7661	0	34444	
7662	0	34560	
7663	0	34604	
7664	0	34600	
7665	0	34592	
7666	0	34616	
7667	0	34634	
7668	0	34632	
7669	0	34548	
7670	0	34476	
7671	0	34372	
7672	0	34320	
7673	0	34280	
7674	0	34236	
7675	0	34208	
7676	0	34188	
7677	0	34140	
7678	0	34008	
7679	0	33848	
7680	0	33776	
7681	0	33636	
7682	0	33496	
7683	0	33380	
7684	0	33332	
7685	0	33304	
7686	0	33280	
7687	0	33240	
7688	0	33128	
7689	0	32968	
7690	0	32764	
7691	0	32672	
7692	0	32656	
7693	0	32560	
7694	0	32412	
7695	0	32256	
7696	0	32136	
7697	0	32004	
7698	0	31836	
7699	0	31648	
7700	0	31480	
7701	0	31388	
7702	0	31272	
7703	0	31164	
7704	0	31080	
7705	0	31016	
7706	0	30948	
7707	0	30864	
7708	0	30804	
7709	0	30752	
7710	0	30596	
7711	0	30400	
7712	0	30312	
7713	0	30268	
7714	0	30240	
7715	0	30214	
7716	0	30244	
7717	0	30280	
7718	0	30322	
7719	0	30316	
7720	0	30292	
7721	0	30168	
7722	0	30012	
7723	0	29936	
7724	0	29841	
7725	0	29812	
7726	0	29808	
7727	0	29856	
7728	0	29920	
7729	0	29916	
7730	0	29844	
7731	0	29848	
7732	0	29812	
7733	0	29776	
7734	0	29752	
7735	0	29752	
7736	0	29728	
7737	0	29668	
7738	0	29592	
7739	0	29616	
7740	0	29644	
7741	0	29704	
7742	0	29780	
7743	0	29788	
7744	0	29800	
7745	0	29908	
7746	0	29976	
7747	0	29956	
7748	0	29968	
7749	0	29992	
7750	0	29984	
7751	0	30060	
7752	0	30156	
7753	0	30216	
7754	0	30280	
7755	0	30340	
7756	0	30272	
7757	0	30168	
7758	0	30044	
7759	0	29972	
7760	0	29940	
7761	0	29988	
7762	0	30160	
7763	0	30320	
7764	0	30460	
7765	0	30572	
7766	0	30776	
7767	0	31004	
7768	0	31060	
7769	0	31044	
7770	0	30964	
7771	0	30808	
7772	0	30728	
7773	0	30748	
7774	0	30736	
7775	0	30640	
7776	0	30634	
7777	0	30716	
7778	0	30764	
7779	0	30808	
7780	0	30848	
7781	0	30916	
7782	0	30996	
7783	0	31056	
7784	0	31096	
7785	0	31120	
7786	0	31064	
7787	0	31000	
7788	0	31064	
7789	0	31124	
7790	0	31148	
7791	0	31174	
7792	0	31200	
7793	0	31216	
7794	0	31276	
7795	0	31292	
7796	0	31264	
7797	0	31404	
7798	0	31592	
7799	0	31588	
7800	0	31556	
7801	0	31488	
7802	0	31468	
7803	0	31540	
7804	0	31664	
7805	0	31780	
7806	0	31860	
7807	0	31928	
7808	0	32024	
7809	0	32080	
7810	0	32012	
7811	0	31828	
7812	0	31596	
7813	0	31368	
7814	0	31282	
7815	0	31256	
7816	0	31270	
7817	0	31356	
7818	0	31452	
7819	0	31520	
7820	0	31596	
7821	0	31776	
7822	0	31892	
7823	0	31920	
7824	0	31924	
7825	0	31964	
7826	0	32020	
7827	0	32080	
7828	0	32100	
7829	0	32056	
7830	0	31850	
7831	0	31636	
7832	0	31516	
7833	0	31500	
7834	0	31596	
7835	0	31636	
7836	0	31640	
7837	0	31660	
7838	0	31720	
7839	0	31740	
7840	0	31808	
7841	0	31920	
7842	0	32060	
7843	0	32128	
7844	0	32048	
7845	0	31888	
7846	0	31778	
7847	0	31672	
7848	0	31596	
7849	0	31576	
7850	0	31548	
7851	0	31584	
7852	0	31636	
7853	0	31712	
7854	0	31744	
7855	0	31724	
7856	0	31722	
7857	0	31680	
7858	0	31680	
7859	0	31712	
7860	0	31744	
7861	0	31770	
7862	0	31876	
7863	0	32040	
7864	0	32092	
7865	0	32072	
7866	0	32008	
7867	0	31962	
7868	0	31940	
7869	0	31884	
7870	0	31862	
7871	0	31740	
7872	0	31544	
7873	0	31408	
7874	0	31400	
7875	0	31424	
7876	0	31504	
7877	0	31576	
7878	0	31648	
7879	0	31752	
7880	0	31836	
7881	0	31900	
7882	0	31916	
7883	0	31860	
7884	0	31820	
7885	0	31752	
7886	0	31704	
7887	0	31704	
7888	0	31760	
7889	0	31804	
7890	0	31844	
7891	0	31812	
7892	0	31720	
7893	0	31680	
7894	0	31720	
7895	0	31756	
7896	0	31780	
7897	0	31824	
7898	0	31936	
7899	0	32008	
7900	0	32008	
7901	0	31914	
7902	0	31828	
7903	0	31788	
7904	0	31756	
7905	0	31736	
7906	0	31788	
7907	0	31852	
7908	0	31848	
7909	0	31756	
7910	0	31720	
7911	0	31832	
7912	0	32048	
7913	0	32192	
7914	0	32176	
7915	0	32096	
7916	0	32016	
7917	0	31948	
7918	0	31914	
7919	0	31868	
7920	0	31802	
7921	0	31840	
7922	0	31816	
7923	0	31869	
7924	0	31960	
7925	0	32044	
7926	0	32044	
7927	0	32052	
7928	0	32104	
7929	0	32048	
7930	0	31960	
7931	0	31920	
7932	0	31868	
7933	0	31860	
7934	0	31856	
7935	0	31776	
7936	0	31720	
7937	0	31793	
7938	0	31924	
7939	0	31944	
7940	0	31888	
7941	0	31912	
7942	0	31952	
7943	0	31984	
7944	0	32020	
7945	0	32016	
7946	0	31976	
7947	0	31968	
7948	0	31888	
7949	0	31808	
7950	0	31794	
7951	0	31880	
7952	0	31952	
7953	0	32048	
7954	0	32176	
7955	0	32320	
7956	0	32414	
7957	0	32532	
7958	0	32652	
7959	0	32680	
7960	0	32692	
7961	0	32656	
7962	0	32628	
7963	0	32696	
7964	0	32792	
7965	0	32924	
7966	0	33088	
7967	0	33228	
7968	0	33424	
7969	0	33696	
7970	0	33984	
7971	0	34220	
7972	0	34400	
7973	0	34500	
7974	0	34636	
7975	0	34712	
7976	0	34600	
7977	0	34368	
7978	0	34196	
7979	0	34122	
7980	0	34020	
7981	0	33896	
7982	0	33740	
7983	0	33612	
7984	0	33488	
7985	0	33416	
7986	0	33388	
7987	0	33296	
7988	0	33248	
7989	0	33208	
7990	0	33212	
7991	0	33240	
7992	0	33160	
7993	0	32948	
7994	0	32772	
7995	0	32628	
7996	0	32584	
7997	0	32520	
7998	0	32452	
7999	0	32432	
8000	0	32436	
8001	0	32552	
8002	0	32728	
8003	0	32852	
8004	0	32880	
8005	0	32804	
8006	0	32628	
8007	0	32444	
8008	0	32372	
8009	0	32386	
8010	0	32472	
8011	0	32530	
8012	0	32538	
8013	0	32568	
8014	0	32584	
8015	0	32570	
8016	0	32572	
8017	0	32436	
8018	0	32302	
8019	0	32152	
8020	0	32100	
8021	0	32056	
8022	0	32040	
8023	0	32068	
8024	0	32052	
8025	0	32024	
8026	0	32018	
8027	0	31980	
8028	0	31908	
8029	0	31874	
8030	0	31880	
8031	0	31932	
8032	0	32056	
8033	0	32180	
8034	0	32284	
8035	0	32312	
8036	0	32272	
8037	0	32272	
8038	0	32216	
8039	0	32176	
8040	0	32204	
8041	0	32288	
8042	0	32308	
8043	0	32296	
8044	0	32304	
8045	0	32248	
8046	0	32248	
8047	0	32320	
8048	0	32388	
8049	0	32452	
8050	0	32456	
8051	0	32380	
8052	0	32256	
8053	0	32144	
8054	0	32104	
8055	0	32128	
8056	0	32228	
8057	0	32324	
8058	0	32378	
8059	0	32488	
8060	0	32646	
8061	0	32744	
8062	0	32764	
8063	0	32668	
8064	0	32608	
8065	0	32500	
8066	0	32384	
8067	0	32296	
8068	0	32288	
8069	0	32328	
8070	0	32320	
8071	0	32328	
8072	0	32448	
8073	0	32496	
8074	0	32448	
8075	0	32384	
8076	0	32376	
8077	0	32368	
8078	0	32384	
8079	0	32448	
8080	0	32512	
8081	0	32580	
8082	0	32768	
8083	0	32924	
8084	0	33000	
8085	0	33040	
8086	0	33068	
8087	0	33136	
8088	0	33172	
8089	0	33128	
8090	0	32992	
8091	0	32810	
8092	0	32664	
8093	0	32602	
8094	0	32448	
8095	0	32298	
8096	0	32288	
8097	0	32380	
8098	0	32628	
8099	0	32972	
8100	0	33372	
8101	0	33768	
8102	0	34204	
8103	0	34684	
8104	0	35172	
8105	0	35648	
8106	0	36036	
8107	0	36404	
8108	0	36928	
8109	0	37728	
8110	0	38840	
8111	0	40200	
8112	0	41808	
8113	0	43648	
8114	0	45576	
8115	0	47584	
8116	0	49736	
8117	0	52016	
8118	0	54416	
8119	0	56984	
8120	0	59608	
8121	0	61848	
8122	0	63256	
8123	0	63984	
8124	0	64320	
8125	0	64424	
8126	0	64432	
8127	0	64376	
8128	0	64288	
8129	0	64176	
8130	0	64072	
8131	0	60192	
8132	0	54708	
8133	0	48748	
8134	0	42848	
8135	0	37748	
8136	0	33768	
8137	0	30860	
8138	0	28712	
8139	0	27274	
8140	0	26588	
8141	0	26348	
8142	0	26468	
8143	0	26840	
8144	0	27336	
8145	0	27906	
8146	0	28452	
8147	0	28920	
8148	0	29240	
8149	0	29540	
8150	0	29724	
8151	0	29832	
8152	0	30048	
8153	0	30234	
8154	0	30380	
8155	0	30498	
8156	0	30616	
8157	0	30684	
8158	0	30764	
8159	0	30772	
8160	0	30740	
8161	0	30676	
8162	0	30540	
8163	0	30480	
8164	0	30524	
8165	0	30544	
8166	0	30416	
8167	0	30248	
8168	0	30132	
8169	0	30072	
8170	0	30072	
8171	0	30110	
8172	0	30136	
8173	0	30192	
8174	0	30310	
8175	0	30396	
8176	0	30442	
8177	0	30416	
8178	0	30416	
8179	0	30364	
8180	0	30328	
8181	0	30318	
8182	0	30300	
8183	0	30274	
8184	0	30294	
8185	0	30370	
8186	0	30416	
8187	0	30416	
8188	0	30420	
8189	0	30434	
8190	0	30488	
8191	0	30536	
8192	0	30596	
8193	0	30712	
8194	0	30808	
8195	0	30900	
8196	0	31052	
8197	0	31172	
8198	0	31248	
8199	0	31324	
8200	0	31360	
8201	0	31436	
8202	0	31488	
8203	0	31424	
8204	0	31244	
8205	0	31072	
8206	0	30984	
8207	0	30970	
8208	0	30976	
8209	0	31008	
8210	0	31004	
8211	0	30968	
8212	0	30946	
8213	0	30920	
8214	0	30944	
8215	0	30972	
8216	0	31076	
8217	0	31210	
8218	0	31256	
8219	0	31356	
8220	0	31436	
8221	0	31528	
8222	0	31596	
8223	0	31640	
8224	0	31736	
8225	0	31776	
8226	0	31786	
8227	0	31754	
8228	0	31688	
8229	0	31648	
8230	0	31636	
8231	0	31628	
8232	0	31642	
8233	0	31776	
8234	0	32032	
8235	0	32192	
8236	0	32264	
8237	0	32336	
8238	0	32404	
8239	0	32416	
8240	0	32404	
8241	0	32408	
8242	0	32404	
8243	0	32288	
8244	0	32172	
8245	0	32088	
8246	0	32088	
8247	0	32188	
8248	0	32364	
8249	0	32480	
8250	0	32588	
8251	0	32648	
8252	0	32728	
8253	0	32852	
8254	0	32896	
8255	0	32802	
8256	0	32660	
8257	0	32464	
8258	0	32248	
8259	0	32172	
8260	0	32160	
8261	0	32224	
8262	0	32320	
8263	0	32336	
8264	0	32336	
8265	0	32384	
8266	0	32480	
8267	0	32568	
8268	0	32688	
8269	0	32944	
8270	0	33134	
8271	0	33156	
8272	0	33156	
8273	0	33184	
8274	0	33160	
8275	0	33120	
8276	0	33112	
8277	0	33148	
8278	0	33196	
8279	0	33264	
8280	0	33280	
8281	0	33312	
8282	0	33368	
8283	0	33392	
8284	0	33432	
8285	0	33416	
8286	0	33306	
8287	0	33128	
8288	0	33028	
8289	0	32956	
8290	0	32956	
8291	0	32968	
8292	0	33040	
8293	0	33132	
8294	0	33244	
8295	0	33324	
8296	0	33444	
8297	0	33480	
8298	0	33472	
8299	0	33464	
8300	0	33564	
8301	0	33604	
8302	0	33592	
8303	0	33604	
8304	0	33656	
8305	0	33708	
8306	0	33768	
8307	0	33824	
8308	0	33840	
8309	0	33760	
8310	0	33720	
8311	0	33688	
8312	0	33640	
8313	0	33600	
8314	0	33632	
8315	0	33724	
8316	0	33828	
8317	0	34004	
8318	0	34194	
8319	0	34340	
8320	0	34350	
8321	0	34236	
8322	0	34136	
8323	0	34040	
8324	0	33976	
8325	0	33952	
8326	0	33968	
8327	0	33944	
8328	0	34000	
8329	0	34080	
8330	0	34076	
8331	0	34080	
8332	0	34144	
8333	0	34268	
8334	0	34344	
8335	0	34428	
8336	0	34440	
8337	0	34416	
8338	0	34310	
8339	0	34116	
8340	0	34016	
8341	0	33992	
8342	0	33944	
8343	0	33888	
8344	0	33920	
8345	0	34004	
8346	0	34104	
8347	0	34240	
8348	0	34368	
8349	0	34532	
8350	0	34660	
8351	0	34656	
8352	0	34594	
8353	0	34472	
8354	0	34282	
8355	0	34104	
8356	0	34020	
8357	0	33912	
8358	0	33912	
8359	0	33994	
8360	0	34124	
8361	0	34164	
8362	0	34208	
8363	0	34240	
8364	0	34240	
8365	0	34196	
8366	0	34112	
8367	0	34056	
8368	0	34054	
8369	0	34036	
8370	0	34040	
8371	0	34076	
8372	0	34172	
8373	0	34280	
8374	0	34368	
8375	0	34380	
8376	0	34360	
8377	0	34308	
8378	0	34264	
8379	0	34168	
8380	0	34072	
8381	0	34032	
8382	0	33980	
8383	0	33944	
8384	0	33912	
8385	0	33808	
8386	0	33728	
8387	0	33648	
8388	0	33536	
8389	0	33448	
8390	0	33442	
8391	0	33436	
8392	0	33384	
8393	0	33272	
8394	0	33164	
8395	0	33104	
8396	0	33000	
8397	0	32964	
8398	0	32961	
8399	0	32944	
8400	0	32888	
8401	0	32792	
8402	0	32688	
8403	0	32560	
8404	0	32456	
8405	0	32324	
8406	0	32136	
8407	0	31940	
8408	0	31824	
8409	0	31808	
8410	0	31768	
8411	0	31660	
8412	0	31476	
8413	0	31268	
8414	0	31224	
8415	0	31244	
8416	0	31208	
8417	0	31108	
8418	0	30968	
8419	0	30880	
8420	0	30898	
8421	0	30904	
8422	0	30860	
8423	0	30776	
8424	0	30746	
8425	0	30732	
8426	0	30624	
8427	0	30572	
8428	0	30548	
8429	0	30584	
8430	0	30536	
8431	0	30456	
8432	0	30324	
8433	0	30168	
8434	0	30032	
8435	0	29996	
8436	0	29984	
8437	0	30044	
8438	0	30088	
8439	0	30160	
8440	0	30218	
8441	0	30192	
8442	0	30112	
8443	0	30016	
8444	0	29896	
8445	0	29780	
8446	0	29684	
8447	0	29632	
8448	0	29660	
8449	0	29688	
8450	0	29744	
8451	0	29816	
8452	0	29968	
8453	0	30060	
8454	0	30072	
8455	0	30112	
8456	0	30076	
8457	0	30000	
8458	0	29880	
8459	0	29792	
8460	0	29848	
8461	0	29940	
8462	0	30016	
8463	0	30026	
8464	0	30056	
8465	0	30144	
8466	0	30266	
8467	0	30390	
8468	0	30488	
8469	0	30568	
8470	0	30544	
8471	0	30552	
8472	0	30608	
8473	0	30604	
8474	0	30452	
8475	0	30312	
8476	0	30248	
8477	0	30200	
8478	0	30172	
8479	0	30208	
8480	0	30256	
8481	0	30372	
8482	0	30612	
8483	0	30852	
8484	0	31020	
8485	0	31144	
8486	0	31236	
8487	0	31216	
8488	0	31104	
8489	0	31016	
8490	0	30884	
8491	0	30868	
8492	0	30892	
8493	0	30948	
8494	0	30944	
8495	0	30868	
8496	0	30904	
8497	0	30952	
8498	0	31096	
8499	0	31344	
8500	0	31544	
8501	0	31712	
8502	0	31788	
8503	0	31772	
8504	0	31636	
8505	0	31492	
8506	0	31292	
8507	0	31244	
8508	0	31280	
8509	0	31316	
8510	0	31372	
8511	0	31444	
8512	0	31508	
8513	0	31564	
8514	0	31528	
8515	0	31556	
8516	0	31632	
8517	0	31680	
8518	0	31752	
8519	0	31880	
8520	0	31860	
8521	0	31796	
8522	0	31770	
8523	0	31712	
8524	0	31644	
8525	0	31628	
8526	0	31634	
8527	0	31560	
8528	0	31448	
8529	0	31416	
8530	0	31542	
8531	0	31716	
8532	0	31812	
8533	0	31768	
8534	0	31628	
8535	0	31592	
8536	0	31536	
8537	0	31620	
8538	0	31632	
8539	0	31528	
8540	0	31536	
8541	0	31644	
8542	0	31756	
8543	0	31800	
8544	0	31888	
8545	0	32016	
8546	0	32208	
8547	0	32296	
8548	0	32244	
8549	0	32120	
8550	0	32008	
8551	0	31872	
8552	0	31752	
8553	0	31688	
8554	0	31632	
8555	0	31620	
8556	0	31660	
8557	0	31674	
8558	0	31696	
8559	0	31628	
8560	0	31584	
8561	0	31728	
8562	0	31864	
8563	0	31820	
8564	0	31808	
8565	0	31836	
8566	0	31804	
8567	0	31720	
8568	0	31656	
8569	0	31624	
8570	0	31592	
8571	0	31612	
8572	0	31628	
8573	0	31588	
8574	0	31656	
8575	0	31772	
8576	0	31880	
8577	0	31928	
8578	0	31928	
8579	0	31928	
8580	0	31948	
8581	0	31984	
8582	0	31948	
8583	0	31868	
8584	0	31820	
8585	0	31728	
8586	0	31640	
8587	0	31652	
8588	0	31681	
8589	0	31720	
8590	0	31780	
8591	0	31908	
8592	0	31932	
