# OpenSignals Text File Format. Version 1
# {"00:07:80:4B:15:F7": {"position": 0, "device": "biosignalsplux", "device name": "00:07:80:4B:15:F7", "device connection": "BTH00:07:80:4B:15:F7", "sampling rate": 1000, "resolution": [16], "firmware version": 775, "comments": "", "keywords": "", "mode": 0, "sync interval": 2, "date": "2023-4-11", "time": "15:55:4.642", "channels": [1], "sensor": ["ECG"], "label": ["CH1"], "column": ["nSeq", "DI", "CH1"], "special": [{"SpO2": [80, 40, 5, 4, 3, 3]}, {"SpO2": [80, 40, 5, 4, 3, 3]}, {"SpO2": [80, 40, 5, 4, 3, 3]}, {"SpO2": [80, 40, 5, 4, 3, 3]}, {"SpO2": [80, 40, 5, 4, 3, 3]}, {"SpO2": [80, 40, 5, 4, 3, 3]}, {"SpO2": [80, 40, 5, 4, 3, 3]}, {"SpO2": [80, 40, 5, 4, 3, 3]}], "digital IO": [0, 1], "sleeve color": ["green"], "convertedValues": 0}}
# EndOfHeader
0	0	33356	
1	0	33296	
2	0	33236	
3	0	33188	
4	0	33164	
5	0	33104	
6	0	33104	
7	0	33160	
8	0	33226	
9	0	33288	
10	0	33340	
11	0	33336	
12	0	33292	
13	0	33242	
14	0	33184	
15	0	33112	
16	0	33048	
17	0	33020	
18	0	33038	
19	0	33152	
20	0	33324	
21	0	33468	
22	0	33584	
23	0	33684	
24	0	33744	
25	0	33873	
26	0	34088	
27	0	34292	
28	0	34426	
29	0	34508	
30	0	34560	
31	0	34624	
32	0	34718	
33	0	34800	
34	0	34948	
35	0	35048	
36	0	35064	
37	0	35020	
38	0	34952	
39	0	34848	
40	0	34620	
41	0	34408	
42	0	34256	
43	0	34060	
44	0	33824	
45	0	33720	
46	0	33644	
47	0	33556	
48	0	33472	
49	0	33468	
50	0	33524	
51	0	33606	
52	0	33640	
53	0	33660	
54	0	33704	
55	0	33760	
56	0	33752	
57	0	33568	
58	0	33352	
59	0	33180	
60	0	33088	
61	0	33044	
62	0	32984	
63	0	32920	
64	0	32848	
65	0	32784	
66	0	32728	
67	0	32592	
68	0	32504	
69	0	32460	
70	0	32412	
71	0	32396	
72	0	32400	
73	0	32432	
74	0	32464	
75	0	32508	
76	0	32532	
77	0	32572	
78	0	32608	
79	0	32576	
80	0	32560	
81	0	32584	
82	0	32608	
83	0	32554	
84	0	32560	
85	0	32688	
86	0	32828	
87	0	32896	
88	0	32916	
89	0	32892	
90	0	32776	
91	0	32652	
92	0	32552	
93	0	32500	
94	0	32504	
95	0	32544	
96	0	32588	
97	0	32592	
98	0	32600	
99	0	32640	
100	0	32748	
101	0	32768	
102	0	32708	
103	0	32620	
104	0	32500	
105	0	32396	
106	0	32308	
107	0	32276	
108	0	32280	
109	0	32288	
110	0	32268	
111	0	32280	
112	0	32330	
113	0	32332	
114	0	32324	
115	0	32304	
116	0	32252	
117	0	32216	
118	0	32288	
119	0	32388	
120	0	32472	
121	0	32560	
122	0	32664	
123	0	32714	
124	0	32712	
125	0	32704	
126	0	32688	
127	0	32632	
128	0	32602	
129	0	32612	
130	0	32652	
131	0	32762	
132	0	32868	
133	0	32968	
134	0	32992	
135	0	32944	
136	0	32932	
137	0	32860	
138	0	32780	
139	0	32652	
140	0	32524	
141	0	32440	
142	0	32452	
143	0	32496	
144	0	32570	
145	0	32628	
146	0	32632	
147	0	32632	
148	0	32654	
149	0	32680	
150	0	32708	
151	0	32736	
152	0	32800	
153	0	32876	
154	0	32928	
155	0	32912	
156	0	32848	
157	0	32660	
158	0	32448	
159	0	32212	
160	0	32076	
161	0	32032	
162	0	32172	
163	0	32480	
164	0	32860	
165	0	33184	
166	0	33548	
167	0	33916	
168	0	34272	
169	0	34552	
170	0	34720	
171	0	34924	
172	0	35204	
173	0	35732	
174	0	36456	
175	0	37244	
176	0	38144	
177	0	39152	
178	0	40394	
179	0	41896	
180	0	43576	
181	0	45316	
182	0	47072	
183	0	48868	
184	0	50772	
185	0	52536	
186	0	54096	
187	0	55360	
188	0	56464	
189	0	57496	
190	0	58612	
191	0	59672	
192	0	60384	
193	0	60368	
194	0	59236	
195	0	56924	
196	0	53716	
197	0	49948	
198	0	45912	
199	0	41980	
200	0	38408	
201	0	35408	
202	0	33196	
203	0	31676	
204	0	30636	
205	0	29936	
206	0	29488	
207	0	29176	
208	0	28956	
209	0	28890	
210	0	28960	
211	0	29102	
212	0	29236	
213	0	29392	
214	0	29548	
215	0	29702	
216	0	29888	
217	0	30024	
218	0	30144	
219	0	30260	
220	0	30420	
221	0	30580	
222	0	30680	
223	0	30764	
224	0	30856	
225	0	30944	
226	0	31034	
227	0	31104	
228	0	31116	
229	0	31136	
230	0	31084	
231	0	31008	
232	0	30936	
233	0	30856	
234	0	30788	
235	0	30764	
236	0	30752	
237	0	30676	
238	0	30600	
239	0	30588	
240	0	30612	
241	0	30600	
242	0	30560	
243	0	30556	
244	0	30632	
245	0	30760	
246	0	30888	
247	0	30996	
248	0	31056	
249	0	31124	
250	0	31196	
251	0	31272	
252	0	31368	
253	0	31420	
254	0	31440	
255	0	31484	
256	0	31512	
257	0	31492	
258	0	31476	
259	0	31444	
260	0	31460	
261	0	31472	
262	0	31392	
263	0	31280	
264	0	31172	
265	0	31080	
266	0	31004	
267	0	30906	
268	0	30912	
269	0	30996	
270	0	31044	
271	0	31064	
272	0	31072	
273	0	31104	
274	0	31172	
275	0	31292	
276	0	31440	
277	0	31544	
278	0	31604	
279	0	31660	
280	0	31704	
281	0	31692	
282	0	31684	
283	0	31724	
284	0	31788	
285	0	31834	
286	0	31848	
287	0	31840	
288	0	31864	
289	0	31916	
290	0	31976	
291	0	31980	
292	0	31900	
293	0	31844	
294	0	31822	
295	0	31812	
296	0	31788	
297	0	31744	
298	0	31716	
299	0	31692	
300	0	31740	
301	0	31824	
302	0	31912	
303	0	32036	
304	0	32184	
305	0	32256	
306	0	32356	
307	0	32488	
308	0	32556	
309	0	32536	
310	0	32506	
311	0	32474	
312	0	32424	
313	0	32340	
314	0	32268	
315	0	32280	
316	0	32368	
317	0	32500	
318	0	32584	
319	0	32624	
320	0	32688	
321	0	32712	
322	0	32680	
323	0	32608	
324	0	32530	
325	0	32472	
326	0	32452	
327	0	32482	
328	0	32520	
329	0	32628	
330	0	32800	
331	0	32960	
332	0	33104	
333	0	33160	
334	0	33176	
335	0	33136	
336	0	33060	
337	0	32956	
338	0	32876	
339	0	32836	
340	0	32832	
341	0	32850	
342	0	32876	
343	0	32940	
344	0	32992	
345	0	33072	
346	0	33156	
347	0	33132	
348	0	33052	
349	0	33012	
350	0	32992	
351	0	32940	
352	0	32924	
353	0	32948	
354	0	32984	
355	0	33044	
356	0	33088	
357	0	33108	
358	0	33162	
359	0	33218	
360	0	33282	
361	0	33388	
362	0	33416	
363	0	33344	
364	0	33260	
365	0	33204	
366	0	33218	
367	0	33256	
368	0	33268	
369	0	33332	
370	0	33464	
371	0	33604	
372	0	33744	
373	0	33840	
374	0	33984	
375	0	34088	
376	0	34096	
377	0	34060	
378	0	33984	
379	0	33880	
380	0	33780	
381	0	33724	
382	0	33644	
383	0	33576	
384	0	33512	
385	0	33528	
386	0	33692	
387	0	33864	
388	0	33980	
389	0	34028	
390	0	34054	
391	0	34052	
392	0	34018	
393	0	34048	
394	0	34100	
395	0	34192	
396	0	34310	
397	0	34408	
398	0	34532	
399	0	34624	
400	0	34680	
401	0	34720	
402	0	34744	
403	0	34738	
404	0	34744	
405	0	34756	
406	0	34796	
407	0	34804	
408	0	34764	
409	0	34728	
410	0	34688	
411	0	34724	
412	0	34760	
413	0	34784	
414	0	34786	
415	0	34748	
416	0	34708	
417	0	34732	
418	0	34752	
419	0	34784	
420	0	34840	
421	0	34920	
422	0	34968	
423	0	34952	
424	0	34932	
425	0	34940	
426	0	34884	
427	0	34832	
428	0	34888	
429	0	35000	
430	0	35096	
431	0	35192	
432	0	35288	
433	0	35306	
434	0	35180	
435	0	35064	
436	0	34972	
437	0	34928	
438	0	34968	
439	0	35040	
440	0	35104	
441	0	35124	
442	0	35160	
443	0	35216	
444	0	35248	
445	0	35248	
446	0	35252	
447	0	35284	
448	0	35300	
449	0	35244	
450	0	35138	
451	0	35048	
452	0	34976	
453	0	34956	
454	0	34976	
455	0	34952	
456	0	34912	
457	0	34912	
458	0	35000	
459	0	35028	
460	0	35004	
461	0	34984	
462	0	34912	
463	0	34874	
464	0	34852	
465	0	34804	
466	0	34784	
467	0	34784	
468	0	34768	
469	0	34752	
470	0	34752	
471	0	34736	
472	0	34602	
473	0	34416	
474	0	34272	
475	0	34080	
476	0	33920	
477	0	33724	
478	0	33548	
479	0	33448	
480	0	33408	
481	0	33320	
482	0	33216	
483	0	33152	
484	0	33096	
485	0	33024	
486	0	32884	
487	0	32764	
488	0	32648	
489	0	32492	
490	0	32324	
491	0	32104	
492	0	31840	
493	0	31632	
494	0	31480	
495	0	31380	
496	0	31284	
497	0	31204	
498	0	31132	
499	0	31056	
500	0	30936	
501	0	30800	
502	0	30716	
503	0	30680	
504	0	30690	
505	0	30632	
506	0	30528	
507	0	30532	
508	0	30672	
509	0	30797	
510	0	30884	
511	0	30872	
512	0	30816	
513	0	30688	
514	0	30496	
515	0	30314	
516	0	30200	
517	0	30140	
518	0	30148	
519	0	30134	
520	0	30010	
521	0	29864	
522	0	29768	
523	0	29672	
524	0	29600	
525	0	29578	
526	0	29594	
527	0	29664	
528	0	29706	
529	0	29754	
530	0	29792	
531	0	29848	
532	0	29948	
533	0	30040	
534	0	30092	
535	0	30136	
536	0	30208	
537	0	30252	
538	0	30224	
539	0	30144	
540	0	30020	
541	0	29888	
542	0	29792	
543	0	29776	
544	0	29804	
545	0	29856	
546	0	29920	
547	0	29952	
548	0	30040	
549	0	30088	
550	0	30080	
551	0	30132	
552	0	30212	
553	0	30236	
554	0	30220	
555	0	30132	
556	0	30040	
557	0	29984	
558	0	29962	
559	0	29972	
560	0	30024	
561	0	30052	
562	0	30128	
563	0	30270	
564	0	30380	
565	0	30440	
566	0	30468	
567	0	30418	
568	0	30364	
569	0	30352	
570	0	30360	
571	0	30380	
572	0	30372	
573	0	30404	
574	0	30444	
575	0	30504	
576	0	30572	
577	0	30684	
578	0	30748	
579	0	30784	
580	0	30768	
581	0	30740	
582	0	30740	
583	0	30752	
584	0	30784	
585	0	30848	
586	0	30916	
587	0	30944	
588	0	30928	
589	0	30856	
590	0	30824	
591	0	30880	
592	0	30912	
593	0	30930	
594	0	30938	
595	0	30980	
596	0	31092	
597	0	31208	
598	0	31300	
599	0	31364	
600	0	31416	
601	0	31456	
602	0	31424	
603	0	31300	
604	0	31220	
605	0	31216	
606	0	31260	
607	0	31320	
608	0	31328	
609	0	31264	
610	0	31280	
611	0	31320	
612	0	31312	
613	0	31272	
614	0	31304	
615	0	31364	
616	0	31452	
617	0	31466	
618	0	31424	
619	0	31408	
620	0	31422	
621	0	31396	
622	0	31312	
623	0	31296	
624	0	31276	
625	0	31264	
626	0	31328	
627	0	31472	
628	0	31644	
629	0	31756	
630	0	31840	
631	0	31864	
632	0	31836	
633	0	31764	
634	0	31720	
635	0	31652	
636	0	31568	
637	0	31524	
638	0	31500	
639	0	31444	
640	0	31432	
641	0	31400	
642	0	31404	
643	0	31444	
644	0	31468	
645	0	31528	
646	0	31568	
647	0	31600	
648	0	31624	
649	0	31680	
650	0	31740	
651	0	31824	
652	0	31844	
653	0	31860	
654	0	31828	
655	0	31824	
656	0	31880	
657	0	31984	
658	0	32114	
659	0	32216	
660	0	32312	
661	0	32416	
662	0	32572	
663	0	32688	
664	0	32696	
665	0	32620	
666	0	32524	
667	0	32408	
668	0	32224	
669	0	31916	
670	0	31620	
671	0	31412	
672	0	31324	
673	0	31272	
674	0	31236	
675	0	31194	
676	0	31160	
677	0	31172	
678	0	31180	
679	0	31196	
680	0	31212	
681	0	31208	
682	0	31208	
683	0	31238	
684	0	31320	
685	0	31416	
686	0	31476	
687	0	31528	
688	0	31580	
689	0	31608	
690	0	31588	
691	0	31624	
692	0	31784	
693	0	31972	
694	0	32156	
695	0	32360	
696	0	32548	
697	0	32712	
698	0	32856	
699	0	32876	
700	0	32764	
701	0	32528	
702	0	32264	
703	0	32048	
704	0	31892	
705	0	31684	
706	0	31520	
707	0	31352	
708	0	31260	
709	0	31224	
710	0	31216	
711	0	31236	
712	0	31280	
713	0	31324	
714	0	31382	
715	0	31440	
716	0	31464	
717	0	31464	
718	0	31516	
719	0	31588	
720	0	31658	
721	0	31736	
722	0	31810	
723	0	31852	
724	0	31864	
725	0	31880	
726	0	31904	
727	0	31876	
728	0	31772	
729	0	31720	
730	0	31706	
731	0	31736	
732	0	31788	
733	0	31860	
734	0	31908	
735	0	31936	
736	0	31944	
737	0	31946	
738	0	31964	
739	0	32036	
740	0	32108	
741	0	32104	
742	0	32088	
743	0	32032	
744	0	32012	
745	0	32028	
746	0	32048	
747	0	32060	
748	0	32034	
749	0	31956	
750	0	31854	
751	0	31814	
752	0	31760	
753	0	31712	
754	0	31708	
755	0	31762	
756	0	31820	
757	0	31840	
758	0	31852	
759	0	31864	
760	0	31880	
761	0	31948	
762	0	32040	
763	0	32172	
764	0	32352	
765	0	32512	
766	0	32644	
767	0	32808	
768	0	32960	
769	0	33052	
770	0	33028	
771	0	32936	
772	0	32768	
773	0	32576	
774	0	32392	
775	0	32256	
776	0	32096	
777	0	31944	
778	0	31808	
779	0	31752	
780	0	31796	
781	0	31888	
782	0	31988	
783	0	32092	
784	0	32220	
785	0	32328	
786	0	32412	
787	0	32492	
788	0	32520	
789	0	32496	
790	0	32428	
791	0	32420	
792	0	32408	
793	0	32404	
794	0	32380	
795	0	32352	
796	0	32296	
797	0	32248	
798	0	32300	
799	0	32384	
800	0	32472	
801	0	32512	
802	0	32556	
803	0	32624	
804	0	32712	
805	0	32768	
806	0	32824	
807	0	32856	
808	0	32896	
809	0	32928	
810	0	32956	
811	0	33000	
812	0	33012	
813	0	33024	
814	0	32976	
815	0	32906	
816	0	32886	
817	0	32864	
818	0	32824	
819	0	32776	
820	0	32764	
821	0	32792	
822	0	32780	
823	0	32740	
824	0	32692	
825	0	32672	
826	0	32668	
827	0	32592	
828	0	32568	
829	0	32516	
830	0	32488	
831	0	32436	
832	0	32396	
833	0	32458	
834	0	32484	
835	0	32492	
836	0	32620	
837	0	32816	
838	0	32936	
839	0	33020	
840	0	33064	
841	0	33100	
842	0	33104	
843	0	33116	
844	0	33084	
845	0	33000	
846	0	32816	
847	0	32618	
848	0	32448	
849	0	32392	
850	0	32372	
851	0	32362	
852	0	32448	
853	0	32532	
854	0	32544	
855	0	32576	
856	0	32620	
857	0	32676	
858	0	32704	
859	0	32760	
860	0	32800	
861	0	32780	
862	0	32728	
863	0	32652	
864	0	32548	
865	0	32508	
866	0	32512	
867	0	32522	
868	0	32544	
869	0	32592	
870	0	32684	
871	0	32744	
872	0	32772	
873	0	32800	
874	0	32864	
875	0	32956	
876	0	33056	
877	0	33132	
878	0	33144	
879	0	33152	
880	0	33208	
881	0	33212	
882	0	33192	
883	0	33170	
884	0	33156	
885	0	33096	
886	0	33080	
887	0	33096	
888	0	33072	
889	0	33008	
890	0	32960	
891	0	32884	
892	0	32848	
893	0	32858	
894	0	32832	
895	0	32816	
896	0	32896	
897	0	33104	
898	0	33324	
899	0	33504	
900	0	33708	
901	0	33868	
902	0	33992	
903	0	34104	
904	0	34164	
905	0	34176	
906	0	34164	
907	0	34164	
908	0	34226	
909	0	34400	
910	0	34576	
911	0	34708	
912	0	34716	
913	0	34628	
914	0	34576	
915	0	34516	
916	0	34364	
917	0	34208	
918	0	34104	
919	0	34052	
920	0	33952	
921	0	33896	
922	0	33788	
923	0	33620	
924	0	33480	
925	0	33384	
926	0	33308	
927	0	33274	
928	0	33244	
929	0	33240	
930	0	33248	
931	0	33216	
932	0	33128	
933	0	33040	
934	0	33040	
935	0	33076	
936	0	33096	
937	0	33072	
938	0	33008	
939	0	32920	
940	0	32876	
941	0	32856	
942	0	32926	
943	0	33040	
944	0	33180	
945	0	33240	
946	0	33292	
947	0	33380	
948	0	33460	
949	0	33496	
950	0	33476	
951	0	33372	
952	0	33232	
953	0	33104	
954	0	32988	
955	0	32832	
956	0	32660	
957	0	32532	
958	0	32420	
959	0	32312	
960	0	32260	
961	0	32232	
962	0	32188	
963	0	32160	
964	0	32176	
965	0	32282	
966	0	32360	
967	0	32416	
968	0	32492	
969	0	32572	
970	0	32524	
971	0	32428	
972	0	32428	
973	0	32458	
974	0	32384	
975	0	32224	
976	0	32088	
977	0	31980	
978	0	31948	
979	0	31952	
980	0	31992	
981	0	32060	
982	0	32112	
983	0	32136	
984	0	32164	
985	0	32218	
986	0	32304	
987	0	32416	
988	0	32544	
989	0	32672	
990	0	32764	
991	0	32748	
992	0	32744	
993	0	32644	
994	0	32524	
995	0	32428	
996	0	32400	
997	0	32408	
998	0	32420	
999	0	32396	
1000	0	32392	
1001	0	32400	
1002	0	32448	
1003	0	32482	
1004	0	32532	
1005	0	32576	
1006	0	32624	
1007	0	32632	
1008	0	32592	
1009	0	32512	
1010	0	32492	
1011	0	32528	
1012	0	32576	
1013	0	32612	
1014	0	32576	
1015	0	32544	
1016	0	32512	
1017	0	32416	
1018	0	32320	
1019	0	32252	
1020	0	32192	
1021	0	32164	
1022	0	32170	
1023	0	32194	
1024	0	32232	
1025	0	32368	
1026	0	32524	
1027	0	32624	
1028	0	32768	
1029	0	32924	
1030	0	33056	
1031	0	33148	
1032	0	33180	
1033	0	33184	
1034	0	33172	
1035	0	33048	
1036	0	32776	
1037	0	32460	
1038	0	32184	
1039	0	32064	
1040	0	32080	
1041	0	32204	
1042	0	32478	
1043	0	32800	
1044	0	33124	
1045	0	33524	
1046	0	33912	
1047	0	34320	
1048	0	34636	
1049	0	34880	
1050	0	35192	
1051	0	35604	
1052	0	36172	
1053	0	36840	
1054	0	37648	
1055	0	38648	
1056	0	39820	
1057	0	41260	
1058	0	42840	
1059	0	44544	
1060	0	46272	
1061	0	48088	
1062	0	49968	
1063	0	51768	
1064	0	53360	
1065	0	54720	
1066	0	55872	
1067	0	56920	
1068	0	58044	
1069	0	59116	
1070	0	59872	
1071	0	60106	
1072	0	59460	
1073	0	57676	
1074	0	54832	
1075	0	51308	
1076	0	47404	
1077	0	43344	
1078	0	39520	
1079	0	36224	
1080	0	33714	
1081	0	32068	
1082	0	30952	
1083	0	30208	
1084	0	29792	
1085	0	29500	
1086	0	29312	
1087	0	29216	
1088	0	29192	
1089	0	29312	
1090	0	29452	
1091	0	29580	
1092	0	29732	
1093	0	29844	
1094	0	29936	
1095	0	30016	
1096	0	30172	
1097	0	30314	
1098	0	30460	
1099	0	30588	
1100	0	30664	
1101	0	30748	
1102	0	30840	
1103	0	30936	
1104	0	30972	
1105	0	31012	
1106	0	31088	
1107	0	31166	
1108	0	31172	
1109	0	31128	
1110	0	31040	
1111	0	30912	
1112	0	30752	
1113	0	30648	
1114	0	30652	
1115	0	30616	
1116	0	30561	
1117	0	30512	
1118	0	30472	
1119	0	30544	
1120	0	30620	
1121	0	30684	
1122	0	30708	
1123	0	30692	
1124	0	30720	
1125	0	30808	
1126	0	30856	
1127	0	30904	
1128	0	30960	
1129	0	31012	
1130	0	31056	
1131	0	31100	
1132	0	31136	
1133	0	31168	
1134	0	31228	
1135	0	31292	
1136	0	31280	
1137	0	31268	
1138	0	31296	
1139	0	31328	
1140	0	31332	
1141	0	31320	
1142	0	31320	
1143	0	31288	
1144	0	31192	
1145	0	31164	
1146	0	31184	
1147	0	31184	
1148	0	31156	
1149	0	31128	
1150	0	31124	
1151	0	31212	
1152	0	31304	
1153	0	31384	
1154	0	31488	
1155	0	31610	
1156	0	31696	
1157	0	31684	
1158	0	31572	
1159	0	31424	
1160	0	31308	
1161	0	31292	
1162	0	31304	
1163	0	31352	
1164	0	31360	
1165	0	31364	
1166	0	31424	
1167	0	31536	
1168	0	31600	
1169	0	31596	
1170	0	31576	
1171	0	31600	
1172	0	31672	
1173	0	31762	
1174	0	31852	
1175	0	31916	
1176	0	32008	
1177	0	32088	
1178	0	32168	
1179	0	32202	
1180	0	32160	
1181	0	32104	
1182	0	32084	
1183	0	32064	
1184	0	32072	
1185	0	32080	
1186	0	32118	
1187	0	32226	
1188	0	32296	
1189	0	32324	
1190	0	32404	
1191	0	32452	
1192	0	32480	
1193	0	32488	
1194	0	32524	
1195	0	32576	
1196	0	32632	
1197	0	32664	
1198	0	32640	
1199	0	32660	
1200	0	32752	
1201	0	32872	
1202	0	33012	
1203	0	33176	
1204	0	33244	
1205	0	33268	
1206	0	33268	
1207	0	33224	
1208	0	33108	
1209	0	32952	
1210	0	32764	
1211	0	32668	
1212	0	32584	
1213	0	32548	
1214	0	32586	
1215	0	32620	
1216	0	32668	
1217	0	32720	
1218	0	32728	
1219	0	32692	
1220	0	32636	
1221	0	32580	
1222	0	32538	
1223	0	32520	
1224	0	32568	
1225	0	32688	
1226	0	32820	
1227	0	32916	
1228	0	32964	
1229	0	32992	
1230	0	33072	
1231	0	33096	
1232	0	33120	
1233	0	33148	
1234	0	33162	
1235	0	33128	
1236	0	33056	
1237	0	33024	
1238	0	32984	
1239	0	33008	
1240	0	33080	
1241	0	33112	
1242	0	33104	
1243	0	33096	
1244	0	33184	
1245	0	33312	
1246	0	33416	
1247	0	33520	
1248	0	33592	
1249	0	33576	
1250	0	33604	
1251	0	33708	
1252	0	33776	
1253	0	33792	
1254	0	33820	
1255	0	33860	
1256	0	33812	
1257	0	33772	
1258	0	33764	
1259	0	33768	
1260	0	33720	
1261	0	33704	
1262	0	33716	
1263	0	33700	
1264	0	33692	
1265	0	33716	
1266	0	33824	
1267	0	33926	
1268	0	33976	
1269	0	34008	
1270	0	34036	
1271	0	34044	
1272	0	34000	
1273	0	33936	
1274	0	33904	
1275	0	33884	
1276	0	33864	
1277	0	33848	
1278	0	33916	
1279	0	33992	
1280	0	34068	
1281	0	34148	
1282	0	34264	
1283	0	34320	
1284	0	34372	
1285	0	34412	
1286	0	34432	
1287	0	34452	
1288	0	34432	
1289	0	34408	
1290	0	34364	
1291	0	34328	
1292	0	34312	
1293	0	34312	
1294	0	34324	
1295	0	34368	
1296	0	34436	
1297	0	34484	
1298	0	34520	
1299	0	34612	
1300	0	34772	
1301	0	34992	
1302	0	35216	
1303	0	35412	
1304	0	35548	
1305	0	35572	
1306	0	35556	
1307	0	35472	
1308	0	35336	
1309	0	35096	
1310	0	34908	
1311	0	34748	
1312	0	34668	
1313	0	34704	
1314	0	34768	
1315	0	34816	
1316	0	34908	
1317	0	34980	
1318	0	35008	
1319	0	35056	
1320	0	35100	
1321	0	35138	
1322	0	35176	
1323	0	35236	
1324	0	35328	
1325	0	35436	
1326	0	35512	
1327	0	35564	
1328	0	35564	
1329	0	35544	
1330	0	35548	
1331	0	35536	
1332	0	35496	
1333	0	35452	
1334	0	35404	
1335	0	35392	
1336	0	35368	
1337	0	35400	
1338	0	35408	
1339	0	35356	
1340	0	35260	
1341	0	35128	
1342	0	35028	
1343	0	34968	
1344	0	34920	
1345	0	34852	
1346	0	34768	
1347	0	34680	
1348	0	34576	
1349	0	34432	
1350	0	34308	
1351	0	34208	
1352	0	34112	
1353	0	33968	
1354	0	33800	
1355	0	33640	
1356	0	33464	
1357	0	33340	
1358	0	33312	
1359	0	33248	
1360	0	33152	
1361	0	33024	
1362	0	32904	
1363	0	32824	
1364	0	32744	
1365	0	32616	
1366	0	32480	
1367	0	32356	
1368	0	32244	
1369	0	32128	
1370	0	32032	
1371	0	31900	
1372	0	31756	
1373	0	31672	
1374	0	31568	
1375	0	31464	
1376	0	31364	
1377	0	31272	
1378	0	31128	
1379	0	31000	
1380	0	30896	
1381	0	30772	
1382	0	30712	
1383	0	30660	
1384	0	30536	
1385	0	30376	
1386	0	30348	
1387	0	30348	
1388	0	30376	
1389	0	30424	
1390	0	30456	
1391	0	30448	
1392	0	30428	
1393	0	30388	
1394	0	30308	
1395	0	30176	
1396	0	30072	
1397	0	29992	
1398	0	29972	
1399	0	30000	
1400	0	29968	
1401	0	29856	
1402	0	29748	
1403	0	29652	
1404	0	29648	
1405	0	29706	
1406	0	29728	
1407	0	29714	
1408	0	29724	
1409	0	29684	
1410	0	29648	
1411	0	29680	
1412	0	29722	
1413	0	29712	
1414	0	29632	
1415	0	29536	
1416	0	29518	
1417	0	29520	
1418	0	29500	
1419	0	29500	
1420	0	29512	
1421	0	29516	
1422	0	29528	
1423	0	29600	
1424	0	29728	
1425	0	29884	
1426	0	30020	
1427	0	30088	
1428	0	30192	
1429	0	30258	
1430	0	30284	
1431	0	30216	
1432	0	30120	
1433	0	30040	
1434	0	29976	
1435	0	29916	
1436	0	29816	
1437	0	29738	
1438	0	29772	
1439	0	29844	
1440	0	29904	
1441	0	29916	
1442	0	29960	
1443	0	30004	
1444	0	30060	
1445	0	30144	
1446	0	30212	
1447	0	30256	
1448	0	30288	
1449	0	30284	
1450	0	30316	
1451	0	30376	
1452	0	30408	
1453	0	30456	
1454	0	30496	
1455	0	30510	
1456	0	30492	
1457	0	30440	
1458	0	30448	
1459	0	30528	
1460	0	30618	
1461	0	30656	
1462	0	30652	
1463	0	30696	
1464	0	30704	
1465	0	30704	
1466	0	30712	
1467	0	30732	
1468	0	30816	
1469	0	30912	
1470	0	31012	
1471	0	31092	
1472	0	31178	
1473	0	31272	
1474	0	31360	
1475	0	31388	
1476	0	31416	
1477	0	31484	
1478	0	31516	
1479	0	31484	
1480	0	31404	
1481	0	31388	
1482	0	31384	
1483	0	31400	
1484	0	31372	
1485	0	31320	
1486	0	31288	
1487	0	31192	
1488	0	31092	
1489	0	31048	
1490	0	31012	
1491	0	30984	
1492	0	30940	
1493	0	30920	
1494	0	30948	
1495	0	31004	
1496	0	31060	
1497	0	31136	
1498	0	31176	
1499	0	31180	
1500	0	31208	
1501	0	31272	
1502	0	31296	
1503	0	31268	
1504	0	31240	
1505	0	31290	
1506	0	31400	
1507	0	31490	
1508	0	31568	
1509	0	31680	
1510	0	31740	
1511	0	31804	
1512	0	31840	
1513	0	31860	
1514	0	31862	
1515	0	31856	
1516	0	31808	
1517	0	31700	
1518	0	31568	
1519	0	31464	
1520	0	31344	
1521	0	31250	
1522	0	31212	
1523	0	31192	
1524	0	31220	
1525	0	31276	
1526	0	31364	
1527	0	31410	
1528	0	31452	
1529	0	31488	
1530	0	31508	
1531	0	31500	
1532	0	31464	
1533	0	31464	
1534	0	31468	
1535	0	31432	
1536	0	31424	
1537	0	31464	
1538	0	31484	
1539	0	31500	
1540	0	31488	
1541	0	31528	
1542	0	31592	
1543	0	31624	
1544	0	31664	
1545	0	31672	
1546	0	31676	
1547	0	31688	
1548	0	31672	
1549	0	31700	
1550	0	31744	
1551	0	31796	
1552	0	31824	
1553	0	31812	
1554	0	31764	
1555	0	31754	
1556	0	31800	
1557	0	31904	
1558	0	31996	
1559	0	32064	
1560	0	32132	
1561	0	32204	
1562	0	32228	
1563	0	32194	
1564	0	32080	
1565	0	31904	
1566	0	31784	
1567	0	31704	
1568	0	31596	
1569	0	31484	
1570	0	31396	
1571	0	31424	
1572	0	31464	
1573	0	31468	
1574	0	31392	
1575	0	31412	
1576	0	31512	
1577	0	31620	
1578	0	31724	
1579	0	31844	
1580	0	31908	
1581	0	31968	
1582	0	32028	
1583	0	32088	
1584	0	32104	
1585	0	32004	
1586	0	31928	
1587	0	31800	
1588	0	31620	
1589	0	31480	
1590	0	31378	
1591	0	31392	
1592	0	31456	
1593	0	31500	
1594	0	31520	
1595	0	31538	
1596	0	31572	
1597	0	31576	
1598	0	31564	
1599	0	31608	
1600	0	31668	
1601	0	31700	
1602	0	31712	
1603	0	31736	
1604	0	31748	
1605	0	31748	
1606	0	31744	
1607	0	31788	
1608	0	31788	
1609	0	31748	
1610	0	31680	
1611	0	31656	
1612	0	31668	
1613	0	31664	
1614	0	31660	
1615	0	31732	
1616	0	31784	
1617	0	31802	
1618	0	31824	
1619	0	31848	
1620	0	31904	
1621	0	31942	
1622	0	31960	
1623	0	31960	
1624	0	31972	
1625	0	32016	
1626	0	32076	
1627	0	32148	
1628	0	32224	
1629	0	32320	
1630	0	32348	
1631	0	32336	
1632	0	32336	
1633	0	32364	
1634	0	32368	
1635	0	32324	
1636	0	32284	
1637	0	32224	
1638	0	32168	
1639	0	32120	
1640	0	32136	
1641	0	32152	
1642	0	32156	
1643	0	32112	
1644	0	32044	
1645	0	32012	
1646	0	32012	
1647	0	32028	
1648	0	32044	
1649	0	32060	
1650	0	32108	
1651	0	32156	
1652	0	32200	
1653	0	32324	
1654	0	32456	
1655	0	32564	
1656	0	32712	
1657	0	32816	
1658	0	32848	
1659	0	32820	
1660	0	32712	
1661	0	32608	
1662	0	32492	
1663	0	32420	
1664	0	32400	
1665	0	32408	
1666	0	32392	
1667	0	32368	
1668	0	32312	
1669	0	32274	
1670	0	32260	
1671	0	32272	
1672	0	32268	
1673	0	32268	
1674	0	32296	
1675	0	32352	
1676	0	32440	
1677	0	32492	
1678	0	32520	
1679	0	32536	
1680	0	32544	
1681	0	32504	
1682	0	32488	
1683	0	32464	
1684	0	32344	
1685	0	32232	
1686	0	32180	
1687	0	32144	
1688	0	32136	
1689	0	32116	
1690	0	32088	
1691	0	32032	
1692	0	31976	
1693	0	31968	
1694	0	31984	
1695	0	32068	
1696	0	32160	
1697	0	32224	
1698	0	32264	
1699	0	32336	
1700	0	32412	
1701	0	32480	
1702	0	32562	
1703	0	32640	
1704	0	32736	
1705	0	32828	
1706	0	32904	
1707	0	32912	
1708	0	32844	
1709	0	32776	
1710	0	32740	
1711	0	32708	
1712	0	32708	
1713	0	32688	
1714	0	32636	
1715	0	32584	
1716	0	32560	
1717	0	32508	
1718	0	32472	
1719	0	32460	
1720	0	32440	
1721	0	32514	
1722	0	32596	
1723	0	32654	
1724	0	32692	
1725	0	32704	
1726	0	32716	
1727	0	32780	
1728	0	32824	
1729	0	32844	
1730	0	32900	
1731	0	32918	
1732	0	32832	
1733	0	32736	
1734	0	32682	
1735	0	32674	
1736	0	32640	
1737	0	32584	
1738	0	32528	
1739	0	32564	
1740	0	32636	
1741	0	32684	
1742	0	32704	
1743	0	32692	
1744	0	32760	
1745	0	32856	
1746	0	32964	
1747	0	33074	
1748	0	33128	
1749	0	33152	
1750	0	33148	
1751	0	33144	
1752	0	33060	
1753	0	32970	
1754	0	32960	
1755	0	32946	
1756	0	32904	
1757	0	32792	
1758	0	32680	
1759	0	32640	
1760	0	32632	
1761	0	32644	
1762	0	32672	
1763	0	32720	
1764	0	32712	
1765	0	32696	
1766	0	32680	
1767	0	32676	
1768	0	32696	
1769	0	32760	
1770	0	32808	
1771	0	32864	
1772	0	32920	
1773	0	32980	
1774	0	33056	
1775	0	33116	
1776	0	33184	
1777	0	33212	
1778	0	33220	
1779	0	33216	
1780	0	33204	
1781	0	33224	
1782	0	33316	
1783	0	33380	
1784	0	33448	
1785	0	33488	
1786	0	33512	
1787	0	33534	
1788	0	33480	
1789	0	33444	
1790	0	33440	
1791	0	33416	
1792	0	33420	
1793	0	33432	
1794	0	33392	
1795	0	33304	
1796	0	33224	
1797	0	33200	
1798	0	33240	
1799	0	33216	
1800	0	33180	
1801	0	33136	
1802	0	33040	
1803	0	32940	
1804	0	32872	
1805	0	32776	
1806	0	32708	
1807	0	32744	
1808	0	32856	
1809	0	32960	
1810	0	32992	
1811	0	33016	
1812	0	33096	
1813	0	33172	
1814	0	33196	
1815	0	33220	
1816	0	33160	
1817	0	33088	
1818	0	33088	
1819	0	33116	
1820	0	33116	
1821	0	33072	
1822	0	32960	
1823	0	32904	
1824	0	32968	
1825	0	33064	
1826	0	33092	
1827	0	33112	
1828	0	33120	
1829	0	33136	
1830	0	33180	
1831	0	33228	
1832	0	33276	
1833	0	33272	
1834	0	33248	
1835	0	33208	
1836	0	33164	
1837	0	33086	
1838	0	33056	
1839	0	33058	
1840	0	33104	
1841	0	33184	
1842	0	33192	
1843	0	33108	
1844	0	33068	
1845	0	33066	
1846	0	33076	
1847	0	33092	
1848	0	33100	
1849	0	33156	
1850	0	33272	
1851	0	33384	
1852	0	33500	
1853	0	33600	
1854	0	33684	
1855	0	33760	
1856	0	33852	
1857	0	33856	
1858	0	33816	
1859	0	33744	
1860	0	33676	
1861	0	33620	
1862	0	33556	
1863	0	33496	
1864	0	33424	
1865	0	33448	
1866	0	33540	
1867	0	33664	
1868	0	33796	
1869	0	33868	
1870	0	33920	
1871	0	34008	
1872	0	34144	
1873	0	34284	
1874	0	34432	
1875	0	34596	
1876	0	34718	
1877	0	34752	
1878	0	34752	
1879	0	34692	
1880	0	34672	
1881	0	34712	
1882	0	34792	
1883	0	34824	
1884	0	34780	
1885	0	34680	
1886	0	34572	
1887	0	34470	
1888	0	34432	
1889	0	34448	
1890	0	34484	
1891	0	34484	
1892	0	34400	
1893	0	34284	
1894	0	34200	
1895	0	34112	
1896	0	33994	
1897	0	33872	
1898	0	33728	
1899	0	33600	
1900	0	33504	
1901	0	33508	
1902	0	33560	
1903	0	33584	
1904	0	33580	
1905	0	33480	
1906	0	33464	
1907	0	33480	
1908	0	33460	
1909	0	33392	
1910	0	33344	
1911	0	33356	
1912	0	33368	
1913	0	33352	
1914	0	33308	
1915	0	33268	
1916	0	33208	
1917	0	33164	
1918	0	33136	
1919	0	33154	
1920	0	33208	
1921	0	33256	
1922	0	33260	
1923	0	33242	
1924	0	33228	
1925	0	33120	
1926	0	32960	
1927	0	32824	
1928	0	32728	
1929	0	32636	
1930	0	32576	
1931	0	32544	
1932	0	32544	
1933	0	32560	
1934	0	32588	
1935	0	32624	
1936	0	32660	
1937	0	32620	
1938	0	32536	
1939	0	32416	
1940	0	32276	
1941	0	32216	
1942	0	32296	
1943	0	32392	
1944	0	32456	
1945	0	32512	
1946	0	32560	
1947	0	32568	
1948	0	32532	
1949	0	32488	
1950	0	32444	
1951	0	32352	
1952	0	32304	
1953	0	32280	
1954	0	32292	
1955	0	32356	
1956	0	32440	
1957	0	32516	
1958	0	32604	
1959	0	32700	
1960	0	32800	
1961	0	32944	
1962	0	33038	
1963	0	33108	
1964	0	33112	
1965	0	33048	
1966	0	32976	
1967	0	32956	
1968	0	32888	
1969	0	32752	
1970	0	32672	
1971	0	32688	
1972	0	32780	
1973	0	32928	
1974	0	33092	
1975	0	33176	
1976	0	33182	
1977	0	33084	
1978	0	32960	
1979	0	32800	
1980	0	32664	
1981	0	32552	
1982	0	32396	
1983	0	32264	
1984	0	32224	
1985	0	32248	
1986	0	32308	
1987	0	32396	
1988	0	32484	
1989	0	32592	
1990	0	32744	
1991	0	32888	
1992	0	33034	
1993	0	33112	
1994	0	33148	
1995	0	33140	
1996	0	33096	
1997	0	33056	
1998	0	33024	
1999	0	33036	
2000	0	33060	
2001	0	33000	
2002	0	32940	
2003	0	32932	
2004	0	32936	
2005	0	32896	
2006	0	32832	
2007	0	32724	
2008	0	32660	
2009	0	32592	
2010	0	32544	
2011	0	32632	
2012	0	32876	
2013	0	33152	
2014	0	33368	
2015	0	33654	
2016	0	33952	
2017	0	34252	
2018	0	34556	
2019	0	34780	
2020	0	35048	
2021	0	35402	
2022	0	35888	
2023	0	36508	
2024	0	37324	
2025	0	38288	
2026	0	39316	
2027	0	40572	
2028	0	41988	
2029	0	43536	
2030	0	45148	
2031	0	46784	
2032	0	48524	
2033	0	50176	
2034	0	51668	
2035	0	52864	
2036	0	53904	
2037	0	54800	
2038	0	55804	
2039	0	56976	
2040	0	58008	
2041	0	58668	
2042	0	58548	
2043	0	57228	
2044	0	54776	
2045	0	51636	
2046	0	47944	
2047	0	44064	
2048	0	40432	
2049	0	37240	
2050	0	34784	
2051	0	33128	
2052	0	32080	
2053	0	31456	
2054	0	31200	
2055	0	31080	
2056	0	30956	
2057	0	30832	
2058	0	30740	
2059	0	30640	
2060	0	30456	
2061	0	30292	
2062	0	30160	
2063	0	30092	
2064	0	30080	
2065	0	30120	
2066	0	30200	
2067	0	30384	
2068	0	30672	
2069	0	31004	
2070	0	31240	
2071	0	31372	
2072	0	31492	
2073	0	31588	
2074	0	31616	
2075	0	31544	
2076	0	31380	
2077	0	31184	
2078	0	31024	
2079	0	30908	
2080	0	30830	
2081	0	30760	
2082	0	30792	
2083	0	30832	
2084	0	30836	
2085	0	30794	
2086	0	30808	
2087	0	30852	
2088	0	30856	
2089	0	30872	
2090	0	30900	
2091	0	30964	
2092	0	31036	
2093	0	31048	
2094	0	31072	
2095	0	31100	
2096	0	31012	
2097	0	30936	
2098	0	30964	
2099	0	31032	
2100	0	31100	
2101	0	31168	
2102	0	31244	
2103	0	31312	
2104	0	31324	
2105	0	31280	
2106	0	31344	
2107	0	31424	
2108	0	31496	
2109	0	31532	
2110	0	31516	
2111	0	31504	
2112	0	31520	
2113	0	31584	
2114	0	31644	
2115	0	31672	
2116	0	31676	
2117	0	31672	
2118	0	31648	
2119	0	31600	
2120	0	31524	
2121	0	31492	
2122	0	31516	
2123	0	31620	
2124	0	31722	
2125	0	31784	
2126	0	31808	
2127	0	31848	
2128	0	31796	
2129	0	31780	
2130	0	31784	
2131	0	31770	
2132	0	31612	
2133	0	31476	
2134	0	31456	
2135	0	31536	
2136	0	31600	
2137	0	31584	
2138	0	31592	
2139	0	31586	
2140	0	31564	
2141	0	31492	
2142	0	31450	
2143	0	31444	
2144	0	31436	
2145	0	31504	
2146	0	31600	
2147	0	31684	
2148	0	31764	
2149	0	31816	
2150	0	31872	
2151	0	31940	
2152	0	31958	
2153	0	31940	
2154	0	31948	
2155	0	31998	
2156	0	32084	
2157	0	32204	
2158	0	32292	
2159	0	32338	
2160	0	32392	
2161	0	32380	
2162	0	32352	
2163	0	32320	
2164	0	32288	
2165	0	32268	
2166	0	32252	
2167	0	32224	
2168	0	32224	
2169	0	32212	
2170	0	32236	
2171	0	32288	
2172	0	32288	
2173	0	32284	
2174	0	32380	
2175	0	32432	
2176	0	32452	
2177	0	32476	
2178	0	32484	
2179	0	32492	
2180	0	32540	
2181	0	32610	
2182	0	32692	
2183	0	32776	
2184	0	32792	
2185	0	32816	
2186	0	32860	
2187	0	32892	
2188	0	32840	
2189	0	32720	
2190	0	32668	
2191	0	32672	
2192	0	32656	
2193	0	32648	
2194	0	32700	
2195	0	32768	
2196	0	32756	
2197	0	32736	
2198	0	32776	
2199	0	32864	
2200	0	32948	
2201	0	32996	
2202	0	33056	
2203	0	33118	
2204	0	33208	
2205	0	33316	
2206	0	33400	
2207	0	33488	
2208	0	33576	
2209	0	33616	
2210	0	33624	
2211	0	33612	
2212	0	33484	
2213	0	33240	
2214	0	32972	
2215	0	32796	
2216	0	32740	
2217	0	32780	
2218	0	32900	
2219	0	33016	
2220	0	33036	
2221	0	33020	
2222	0	33008	
2223	0	33058	
2224	0	33204	
2225	0	33364	
2226	0	33508	
2227	0	33660	
2228	0	33794	
2229	0	33968	
2230	0	34112	
2231	0	34176	
2232	0	34180	
2233	0	34192	
2234	0	34156	
2235	0	34112	
2236	0	34034	
2237	0	33968	
2238	0	33944	
2239	0	33986	
2240	0	34008	
2241	0	34041	
2242	0	34048	
2243	0	34012	
2244	0	33960	
2245	0	33904	
2246	0	33872	
2247	0	33832	
2248	0	33824	
2249	0	33804	
2250	0	33812	
2251	0	33856	
2252	0	33880	
2253	0	33920	
2254	0	33952	
2255	0	33956	
2256	0	33960	
2257	0	33992	
2258	0	34068	
2259	0	34184	
2260	0	34304	
2261	0	34400	
2262	0	34432	
2263	0	34412	
2264	0	34448	
2265	0	34492	
2266	0	34484	
2267	0	34452	
2268	0	34404	
2269	0	34408	
2270	0	34416	
2271	0	34424	
2272	0	34424	
2273	0	34438	
2274	0	34488	
2275	0	34556	
2276	0	34608	
2277	0	34668	
2278	0	34696	
2279	0	34712	
2280	0	34770	
2281	0	34816	
2282	0	34884	
2283	0	34912	
2284	0	35008	
2285	0	35088	
2286	0	35168	
2287	0	35204	
2288	0	35232	
2289	0	35280	
2290	0	35340	
2291	0	35376	
2292	0	35344	
2293	0	35196	
2294	0	35096	
2295	0	35012	
2296	0	34896	
2297	0	34826	
2298	0	34772	
2299	0	34732	
2300	0	34736	
2301	0	34722	
2302	0	34700	
2303	0	34680	
2304	0	34684	
2305	0	34736	
2306	0	34812	
2307	0	34880	
2308	0	34936	
2309	0	35000	
2310	0	35152	
2311	0	35248	
2312	0	35316	
2313	0	35316	
2314	0	35230	
2315	0	35056	
2316	0	34864	
2317	0	34634	
2318	0	34416	
2319	0	34220	
2320	0	34120	
2321	0	34036	
2322	0	34020	
2323	0	33992	
2324	0	33920	
2325	0	33848	
2326	0	33808	
2327	0	33808	
2328	0	33828	
2329	0	33796	
2330	0	33668	
2331	0	33544	
2332	0	33424	
2333	0	33268	
2334	0	33100	
2335	0	32928	
2336	0	32764	
2337	0	32652	
2338	0	32576	
2339	0	32532	
2340	0	32448	
2341	0	32364	
2342	0	32304	
2343	0	32212	
2344	0	32088	
2345	0	31904	
2346	0	31708	
2347	0	31536	
2348	0	31436	
2349	0	31340	
2350	0	31184	
2351	0	31040	
2352	0	30900	
2353	0	30744	
2354	0	30594	
2355	0	30500	
2356	0	30452	
2357	0	30440	
2358	0	30432	
2359	0	30432	
2360	0	30448	
2361	0	30484	
2362	0	30512	
2363	0	30496	
2364	0	30476	
2365	0	30396	
2366	0	30250	
2367	0	30088	
2368	0	29988	
2369	0	29912	
2370	0	29882	
2371	0	29840	
2372	0	29832	
2373	0	29844	
2374	0	29808	
2375	0	29792	
2376	0	29756	
2377	0	29700	
2378	0	29680	
2379	0	29716	
2380	0	29754	
2381	0	29746	
2382	0	29720	
2383	0	29684	
2384	0	29672	
2385	0	29720	
2386	0	29792	
2387	0	29868	
2388	0	29924	
2389	0	29944	
2390	0	29960	
2391	0	29980	
2392	0	29984	
2393	0	29976	
2394	0	29916	
2395	0	29820	
2396	0	29768	
2397	0	29780	
2398	0	29828	
2399	0	29868	
2400	0	29866	
2401	0	29828	
2402	0	29800	
2403	0	29792	
2404	0	29788	
2405	0	29760	
2406	0	29776	
2407	0	29760	
2408	0	29800	
2409	0	29836	
2410	0	29846	
2411	0	29824	
2412	0	29856	
2413	0	29881	
2414	0	29940	
2415	0	30016	
2416	0	30116	
2417	0	30236	
2418	0	30328	
2419	0	30452	
2420	0	30560	
2421	0	30592	
2422	0	30544	
2423	0	30420	
2424	0	30256	
2425	0	30136	
2426	0	30052	
2427	0	30016	
2428	0	30020	
2429	0	30042	
2430	0	30092	
2431	0	30160	
2432	0	30202	
2433	0	30320	
2434	0	30484	
2435	0	30596	
2436	0	30688	
2437	0	30752	
2438	0	30820	
2439	0	30836	
2440	0	30848	
2441	0	30904	
2442	0	30920	
2443	0	30880	
2444	0	30816	
2445	0	30688	
2446	0	30600	
2447	0	30626	
2448	0	30724	
2449	0	30784	
2450	0	30832	
2451	0	30888	
2452	0	30900	
2453	0	30904	
2454	0	30876	
2455	0	30836	
2456	0	30844	
2457	0	30796	
2458	0	30772	
2459	0	30764	
2460	0	30752	
2461	0	30800	
2462	0	30868	
2463	0	30924	
2464	0	30964	
2465	0	31036	
2466	0	31146	
2467	0	31224	
2468	0	31308	
2469	0	31360	
2470	0	31400	
2471	0	31450	
2472	0	31476	
2473	0	31464	
2474	0	31432	
2475	0	31440	
2476	0	31428	
2477	0	31368	
2478	0	31340	
2479	0	31360	
2480	0	31376	
2481	0	31296	
2482	0	31264	
2483	0	31232	
2484	0	31196	
2485	0	31192	
2486	0	31272	
2487	0	31400	
2488	0	31520	
2489	0	31600	
2490	0	31676	
2491	0	31736	
2492	0	31824	
2493	0	31864	
2494	0	31872	
2495	0	31868	
2496	0	31832	
2497	0	31744	
2498	0	31616	
2499	0	31556	
2500	0	31458	
2501	0	31332	
2502	0	31264	
2503	0	31266	
2504	0	31320	
2505	0	31380	
2506	0	31456	
2507	0	31548	
2508	0	31632	
2509	0	31712	
2510	0	31792	
2511	0	31780	
2512	0	31768	
2513	0	31800	
2514	0	31876	
2515	0	31916	
2516	0	31892	
2517	0	31840	
2518	0	31813	
2519	0	31816	
2520	0	31736	
2521	0	31648	
2522	0	31552	
2523	0	31508	
2524	0	31496	
2525	0	31436	
2526	0	31384	
2527	0	31360	
2528	0	31396	
2529	0	31472	
2530	0	31518	
2531	0	31504	
2532	0	31444	
2533	0	31456	
2534	0	31496	
2535	0	31556	
2536	0	31600	
2537	0	31636	
2538	0	31684	
2539	0	31742	
2540	0	31756	
2541	0	31744	
2542	0	31752	
2543	0	31748	
2544	0	31738	
2545	0	31712	
2546	0	31720	
2547	0	31668	
2548	0	31640	
2549	0	31704	
2550	0	31756	
2551	0	31800	
2552	0	31832	
2553	0	31872	
2554	0	32028	
2555	0	32128	
2556	0	32136	
2557	0	32104	
2558	0	32100	
2559	0	32112	
2560	0	32080	
2561	0	32024	
2562	0	31968	
2563	0	31890	
2564	0	31760	
2565	0	31656	
2566	0	31660	
2567	0	31680	
2568	0	31676	
2569	0	31598	
2570	0	31536	
2571	0	31528	
2572	0	31574	
2573	0	31612	
2574	0	31528	
2575	0	31464	
2576	0	31448	
2577	0	31512	
2578	0	31596	
2579	0	31682	
2580	0	31836	
2581	0	31920	
2582	0	31964	
2583	0	31976	
2584	0	31992	
2585	0	32008	
2586	0	31944	
2587	0	31852	
2588	0	31800	
2589	0	31764	
2590	0	31768	
2591	0	31776	
2592	0	31808	
2593	0	31872	
2594	0	31956	
2595	0	32010	
2596	0	31988	
2597	0	31968	
2598	0	31928	
2599	0	31904	
2600	0	31964	
2601	0	32032	
2602	0	32064	
2603	0	32076	
2604	0	32108	
2605	0	32144	
2606	0	32212	
2607	0	32282	
2608	0	32304	
2609	0	32290	
2610	0	32296	
2611	0	32288	
2612	0	32296	
2613	0	32364	
2614	0	32360	
2615	0	32232	
2616	0	32106	
2617	0	31992	
2618	0	31900	
2619	0	31874	
2620	0	31896	
2621	0	31940	
2622	0	31956	
2623	0	31932	
2624	0	31904	
2625	0	31936	
2626	0	31964	
2627	0	32000	
2628	0	31984	
2629	0	31968	
2630	0	32000	
2631	0	32044	
2632	0	32128	
2633	0	32196	
2634	0	32232	
2635	0	32256	
2636	0	32268	
2637	0	32268	
2638	0	32260	
2639	0	32226	
2640	0	32196	
2641	0	32192	
2642	0	32196	
2643	0	32176	
2644	0	32192	
2645	0	32248	
2646	0	32280	
2647	0	32340	
2648	0	32448	
2649	0	32508	
2650	0	32480	
2651	0	32456	
2652	0	32468	
2653	0	32468	
2654	0	32364	
2655	0	32268	
2656	0	32192	
2657	0	32156	
2658	0	32104	
2659	0	32040	
2660	0	32036	
2661	0	32044	
2662	0	32064	
2663	0	32064	
2664	0	32104	
2665	0	32205	
2666	0	32298	
2667	0	32340	
2668	0	32352	
2669	0	32344	
2670	0	32356	
2671	0	32416	
2672	0	32488	
2673	0	32540	
2674	0	32578	
2675	0	32564	
2676	0	32484	
2677	0	32372	
2678	0	32324	
2679	0	32312	
2680	0	32320	
2681	0	32296	
2682	0	32220	
2683	0	32136	
2684	0	32088	
2685	0	32122	
2686	0	32168	
2687	0	32218	
2688	0	32342	
2689	0	32464	
2690	0	32576	
2691	0	32724	
2692	0	32864	
2693	0	32912	
2694	0	32936	
2695	0	32888	
2696	0	32788	
2697	0	32672	
2698	0	32472	
2699	0	32192	
2700	0	32042	
2701	0	32008	
2702	0	32020	
2703	0	32028	
2704	0	32028	
2705	0	32044	
2706	0	32064	
2707	0	32120	
2708	0	32184	
2709	0	32236	
2710	0	32288	
2711	0	32400	
2712	0	32546	
2713	0	32644	
2714	0	32736	
2715	0	32788	
2716	0	32828	
2717	0	32836	
2718	0	32824	
2719	0	32810	
2720	0	32720	
2721	0	32624	
2722	0	32548	
2723	0	32420	
2724	0	32308	
2725	0	32280	
2726	0	32314	
2727	0	32344	
2728	0	32404	
2729	0	32486	
2730	0	32552	
2731	0	32632	
2732	0	32708	
2733	0	32744	
2734	0	32776	
2735	0	32804	
2736	0	32840	
2737	0	32856	
2738	0	32824	
2739	0	32748	
2740	0	32752	
2741	0	32792	
2742	0	32808	
2743	0	32784	
2744	0	32808	
2745	0	32844	
2746	0	32800	
2747	0	32744	
2748	0	32688	
2749	0	32688	
2750	0	32704	
2751	0	32716	
2752	0	32768	
2753	0	32832	
2754	0	32900	
2755	0	32986	
2756	0	32984	
2757	0	32924	
2758	0	32868	
2759	0	32840	
2760	0	32812	
2761	0	32820	
2762	0	32834	
2763	0	32840	
2764	0	32800	
2765	0	32816	
2766	0	32872	
2767	0	32992	
2768	0	33096	
2769	0	33204	
2770	0	33272	
2771	0	33348	
2772	0	33380	
2773	0	33340	
2774	0	33256	
2775	0	33148	
2776	0	33008	
2777	0	32952	
2778	0	32984	
2779	0	33056	
2780	0	33136	
2781	0	33184	
2782	0	33144	
2783	0	33056	
2784	0	33016	
2785	0	33024	
2786	0	33036	
2787	0	33020	
2788	0	33008	
2789	0	33056	
2790	0	33080	
2791	0	33116	
2792	0	33221	
2793	0	33376	
2794	0	33528	
2795	0	33680	
2796	0	33772	
2797	0	33912	
2798	0	34068	
2799	0	34164	
2800	0	34300	
2801	0	34368	
2802	0	34416	
2803	0	34540	
2804	0	34688	
2805	0	34756	
2806	0	34764	
2807	0	34688	
2808	0	34528	
2809	0	34332	
2810	0	34132	
2811	0	33952	
2812	0	33792	
2813	0	33720	
2814	0	33696	
2815	0	33660	
2816	0	33616	
2817	0	33536	
2818	0	33516	
2819	0	33512	
2820	0	33504	
2821	0	33442	
2822	0	33372	
2823	0	33320	
2824	0	33344	
2825	0	33420	
2826	0	33364	
2827	0	33208	
2828	0	33216	
2829	0	33210	
2830	0	33156	
2831	0	33048	
2832	0	32940	
2833	0	32904	
2834	0	32898	
2835	0	32888	
2836	0	32840	
2837	0	32760	
2838	0	32744	
2839	0	32720	
2840	0	32756	
2841	0	32820	
2842	0	32872	
2843	0	32856	
2844	0	32842	
2845	0	32840	
2846	0	32864	
2847	0	32808	
2848	0	32692	
2849	0	32572	
2850	0	32444	
2851	0	32282	
2852	0	32188	
2853	0	32164	
2854	0	32208	
2855	0	32272	
2856	0	32312	
2857	0	32324	
2858	0	32304	
2859	0	32304	
2860	0	32352	
2861	0	32448	
2862	0	32506	
2863	0	32562	
2864	0	32628	
2865	0	32664	
2866	0	32612	
2867	0	32524	
2868	0	32428	
2869	0	32352	
2870	0	32296	
2871	0	32264	
2872	0	32236	
2873	0	32232	
2874	0	32248	
2875	0	32236	
2876	0	32208	
2877	0	32212	
2878	0	32226	
2879	0	32248	
2880	0	32288	
2881	0	32308	
2882	0	32296	
2883	0	32220	
2884	0	32192	
2885	0	32186	
2886	0	32186	
2887	0	32186	
2888	0	32216	
2889	0	32244	
2890	0	32304	
2891	0	32372	
2892	0	32432	
2893	0	32476	
2894	0	32488	
2895	0	32456	
2896	0	32448	
2897	0	32448	
2898	0	32464	
2899	0	32492	
2900	0	32548	
2901	0	32620	
2902	0	32672	
2903	0	32760	
2904	0	32886	
2905	0	32996	
2906	0	33052	
2907	0	33088	
2908	0	33136	
2909	0	33184	
2910	0	33200	
2911	0	33192	
2912	0	33184	
2913	0	33120	
2914	0	33012	
2915	0	32940	
2916	0	32816	
2917	0	32640	
2918	0	32452	
2919	0	32360	
2920	0	32314	
2921	0	32344	
2922	0	32404	
2923	0	32444	
2924	0	32552	
2925	0	32680	
2926	0	32756	
2927	0	32812	
2928	0	32864	
2929	0	32864	
2930	0	32816	
2931	0	32665	
2932	0	32568	
2933	0	32632	
2934	0	32812	
2935	0	33048	
2936	0	33284	
2937	0	33604	
2938	0	33936	
2939	0	34208	
2940	0	34400	
2941	0	34460	
2942	0	34576	
2943	0	34888	
2944	0	35504	
2945	0	36344	
2946	0	37392	
2947	0	38548	
2948	0	39736	
2949	0	41080	
2950	0	42564	
2951	0	44156	
2952	0	45892	
2953	0	47664	
2954	0	49404	
2955	0	51160	
2956	0	52840	
2957	0	54368	
2958	0	55672	
2959	0	56832	
2960	0	57972	
2961	0	59080	
2962	0	60104	
2963	0	60704	
2964	0	60504	
2965	0	59220	
2966	0	56896	
2967	0	53684	
2968	0	49920	
2969	0	45840	
2970	0	41880	
2971	0	38256	
2972	0	35236	
2973	0	32996	
2974	0	31480	
2975	0	30392	
2976	0	29636	
2977	0	29218	
2978	0	28986	
2979	0	28916	
2980	0	28984	
2981	0	29136	
2982	0	29384	
2983	0	29588	
2984	0	29700	
2985	0	29778	
2986	0	29892	
2987	0	30048	
2988	0	30160	
2989	0	30304	
2990	0	30512	
2991	0	30704	
2992	0	30872	
2993	0	30966	
2994	0	31064	
2995	0	31152	
2996	0	31188	
2997	0	31238	
2998	0	31288	
2999	0	31232	
3000	0	31120	
3001	0	31020	
3002	0	30868	
3003	0	30712	
3004	0	30592	
3005	0	30540	
3006	0	30496	
3007	0	30492	
3008	0	30484	
3009	0	30416	
3010	0	30376	
3011	0	30320	
3012	0	30328	
3013	0	30362	
3014	0	30380	
3015	0	30394	
3016	0	30456	
3017	0	30504	
3018	0	30624	
3019	0	30808	
3020	0	31004	
3021	0	31172	
3022	0	31312	
3023	0	31444	
3024	0	31524	
3025	0	31536	
3026	0	31474	
3027	0	31308	
3028	0	31144	
3029	0	31016	
3030	0	30904	
3031	0	30784	
3032	0	30692	
3033	0	30596	
3034	0	30528	
3035	0	30536	
3036	0	30592	
3037	0	30698	
3038	0	30786	
3039	0	30840	
3040	0	30868	
3041	0	30852	
3042	0	30858	
3043	0	30896	
3044	0	30960	
3045	0	31072	
3046	0	31168	
3047	0	31200	
3048	0	31186	
3049	0	31224	
3050	0	31256	
3051	0	31320	
3052	0	31352	
3053	0	31392	
3054	0	31396	
3055	0	31360	
3056	0	31344	
3057	0	31360	
3058	0	31396	
3059	0	31436	
3060	0	31492	
3061	0	31560	
3062	0	31608	
3063	0	31644	
3064	0	31712	
3065	0	31800	
3066	0	31876	
3067	0	31952	
3068	0	32024	
3069	0	32120	
3070	0	32172	
3071	0	32192	
3072	0	32232	
3073	0	32264	
3074	0	32304	
3075	0	32348	
3076	0	32464	
3077	0	32584	
3078	0	32640	
3079	0	32704	
3080	0	32688	
3081	0	32554	
3082	0	32404	
3083	0	32256	
3084	0	32100	
3085	0	31916	
3086	0	31776	
3087	0	31672	
3088	0	31632	
3089	0	31644	
3090	0	31720	
3091	0	31802	
3092	0	31844	
3093	0	31884	
3094	0	31954	
3095	0	32036	
3096	0	32092	
3097	0	32096	
3098	0	32104	
3099	0	32160	
3100	0	32240	
3101	0	32352	
3102	0	32468	
3103	0	32560	
3104	0	32600	
3105	0	32616	
3106	0	32636	
3107	0	32696	
3108	0	32692	
3109	0	32712	
3110	0	32816	
3111	0	32948	
3112	0	33052	
3113	0	33056	
3114	0	32984	
3115	0	32912	
3116	0	32900	
3117	0	32948	
3118	0	32992	
3119	0	33024	
3120	0	33042	
3121	0	33092	
3122	0	33104	
3123	0	33104	
3124	0	33130	
3125	0	33128	
3126	0	33080	
3127	0	33060	
3128	0	33044	
3129	0	33056	
3130	0	33038	
3131	0	33038	
3132	0	33040	
3133	0	32972	
3134	0	32888	
3135	0	32856	
3136	0	32860	
3137	0	32912	
3138	0	32964	
3139	0	32986	
3140	0	33012	
3141	0	33028	
3142	0	33024	
3143	0	33096	
3144	0	33212	
3145	0	33340	
3146	0	33468	
3147	0	33648	
3148	0	33816	
3149	0	33908	
3150	0	33952	
3151	0	33960	
3152	0	33936	
3153	0	33932	
3154	0	33946	
3155	0	33980	
3156	0	33920	
3157	0	33828	
3158	0	33736	
3159	0	33672	
3160	0	33632	
3161	0	33600	
3162	0	33620	
3163	0	33612	
3164	0	33636	
3165	0	33696	
3166	0	33840	
3167	0	33952	
3168	0	34052	
3169	0	34164	
3170	0	34300	
3171	0	34396	
3172	0	34464	
3173	0	34492	
3174	0	34468	
3175	0	34344	
3176	0	34224	
3177	0	34148	
3178	0	34088	
3179	0	33984	
3180	0	33920	
3181	0	33864	
3182	0	33824	
3183	0	33832	
3184	0	33900	
3185	0	33968	
3186	0	34028	
3187	0	34104	
3188	0	34196	
3189	0	34284	
3190	0	34404	
3191	0	34464	
3192	0	34540	
3193	0	34576	
3194	0	34612	
3195	0	34644	
3196	0	34742	
3197	0	34900	
3198	0	35000	
3199	0	35048	
3200	0	34992	
3201	0	34880	
3202	0	34852	
3203	0	34924	
3204	0	34944	
3205	0	34992	
3206	0	35028	
3207	0	35024	
3208	0	35000	
3209	0	35012	
3210	0	34992	
3211	0	34952	
3212	0	34912	
3213	0	34926	
3214	0	34932	
3215	0	34936	
3216	0	34912	
3217	0	34876	
3218	0	34900	
3219	0	34904	
3220	0	34892	
3221	0	34884	
3222	0	34924	
3223	0	34960	
3224	0	34972	
3225	0	35008	
3226	0	35032	
3227	0	35044	
3228	0	35004	
3229	0	34976	
3230	0	34992	
3231	0	34964	
3232	0	34908	
3233	0	34828	
3234	0	34762	
3235	0	34688	
3236	0	34624	
3237	0	34612	
3238	0	34568	
3239	0	34524	
3240	0	34488	
3241	0	34368	
3242	0	34220	
3243	0	34048	
3244	0	33928	
3245	0	33824	
3246	0	33692	
3247	0	33568	
3248	0	33396	
3249	0	33246	
3250	0	33104	
3251	0	32984	
3252	0	32884	
3253	0	32784	
3254	0	32652	
3255	0	32540	
3256	0	32444	
3257	0	32320	
3258	0	32204	
3259	0	32096	
3260	0	32020	
3261	0	31924	
3262	0	31780	
3263	0	31584	
3264	0	31410	
3265	0	31288	
3266	0	31200	
3267	0	31128	
3268	0	31028	
3269	0	30932	
3270	0	30832	
3271	0	30712	
3272	0	30568	
3273	0	30380	
3274	0	30176	
3275	0	30040	
3276	0	29980	
3277	0	29964	
3278	0	29964	
3279	0	29964	
3280	0	29920	
3281	0	29832	
3282	0	29750	
3283	0	29680	
3284	0	29600	
3285	0	29536	
3286	0	29512	
3287	0	29508	
3288	0	29492	
3289	0	29456	
3290	0	29452	
3291	0	29456	
3292	0	29408	
3293	0	29396	
3294	0	29480	
3295	0	29616	
3296	0	29668	
3297	0	29680	
3298	0	29664	
3299	0	29680	
3300	0	29668	
3301	0	29576	
3302	0	29504	
3303	0	29400	
3304	0	29332	
3305	0	29308	
3306	0	29344	
3307	0	29378	
3308	0	29420	
3309	0	29452	
3310	0	29460	
3311	0	29428	
3312	0	29432	
3313	0	29452	
3314	0	29484	
3315	0	29466	
3316	0	29448	
3317	0	29480	
3318	0	29568	
3319	0	29644	
3320	0	29684	
3321	0	29648	
3322	0	29600	
3323	0	29584	
3324	0	29600	
3325	0	29612	
3326	0	29598	
3327	0	29568	
3328	0	29570	
3329	0	29632	
3330	0	29710	
3331	0	29762	
3332	0	29832	
3333	0	29868	
3334	0	29904	
3335	0	29912	
3336	0	29900	
3337	0	29900	
3338	0	29936	
3339	0	30010	
3340	0	30128	
3341	0	30244	
3342	0	30338	
3343	0	30466	
3344	0	30592	
3345	0	30712	
3346	0	30764	
3347	0	30764	
3348	0	30728	
3349	0	30676	
3350	0	30592	
3351	0	30420	
3352	0	30316	
3353	0	30248	
3354	0	30172	
3355	0	30156	
3356	0	30176	
3357	0	30208	
3358	0	30236	
3359	0	30296	
3360	0	30362	
3361	0	30424	
3362	0	30464	
3363	0	30496	
3364	0	30556	
3365	0	30584	
3366	0	30688	
3367	0	30808	
3368	0	30882	
3369	0	30960	
3370	0	31000	
3371	0	31020	
3372	0	31064	
3373	0	31096	
3374	0	31072	
3375	0	31024	
3376	0	30984	
3377	0	31010	
3378	0	31056	
3379	0	31104	
3380	0	31152	
3381	0	31184	
3382	0	31200	
3383	0	31256	
3384	0	31300	
3385	0	31300	
3386	0	31272	
3387	0	31280	
3388	0	31320	
3389	0	31360	
3390	0	31388	
3391	0	31440	
3392	0	31569	
3393	0	31732	
3394	0	31880	
3395	0	31936	
3396	0	31960	
3397	0	32004	
3398	0	32064	
3399	0	32004	
3400	0	31836	
3401	0	31632	
3402	0	31488	
3403	0	31416	
3404	0	31376	
3405	0	31376	
3406	0	31400	
3407	0	31348	
3408	0	31292	
3409	0	31256	
3410	0	31280	
3411	0	31288	
3412	0	31312	
3413	0	31348	
3414	0	31344	
3415	0	31364	
3416	0	31400	
3417	0	31472	
3418	0	31584	
3419	0	31644	
3420	0	31676	
3421	0	31680	
3422	0	31664	
3423	0	31620	
3424	0	31632	
3425	0	31676	
3426	0	31728	
3427	0	31736	
3428	0	31720	
3429	0	31708	
3430	0	31724	
3431	0	31736	
3432	0	31762	
3433	0	31780	
3434	0	31792	
3435	0	31780	
3436	0	31752	
3437	0	31760	
3438	0	31792	
3439	0	31856	
3440	0	31912	
3441	0	31940	
3442	0	31980	
3443	0	32040	
3444	0	32096	
3445	0	32156	
3446	0	32200	
3447	0	32132	
3448	0	31976	
3449	0	31864	
3450	0	31824	
3451	0	31800	
3452	0	31748	
3453	0	31692	
3454	0	31668	
3455	0	31612	
3456	0	31572	
3457	0	31560	
3458	0	31560	
3459	0	31596	
3460	0	31588	
3461	0	31546	
3462	0	31536	
3463	0	31560	
3464	0	31634	
3465	0	31668	
3466	0	31732	
3467	0	31856	
3468	0	31968	
3469	0	32088	
3470	0	32180	
3471	0	32240	
3472	0	32304	
3473	0	32352	
3474	0	32404	
3475	0	32416	
3476	0	32328	
3477	0	32152	
3478	0	32000	
3479	0	31822	
3480	0	31704	
3481	0	31636	
3482	0	31576	
3483	0	31520	
3484	0	31516	
3485	0	31544	
3486	0	31656	
3487	0	31760	
3488	0	31792	
3489	0	31764	
3490	0	31744	
3491	0	31768	
3492	0	31822	
3493	0	31888	
3494	0	31968	
3495	0	32056	
3496	0	32132	
3497	0	32128	
3498	0	32088	
3499	0	32064	
3500	0	32028	
3501	0	31956	
3502	0	31868	
3503	0	31808	
3504	0	31832	
3505	0	31924	
3506	0	31992	
3507	0	32060	
3508	0	32040	
3509	0	31992	
3510	0	31960	
3511	0	32000	
3512	0	32088	
3513	0	32180	
3514	0	32204	
3515	0	32212	
3516	0	32224	
3517	0	32200	
3518	0	32192	
3519	0	32218	
3520	0	32228	
3521	0	32248	
3522	0	32276	
3523	0	32332	
3524	0	32392	
3525	0	32428	
3526	0	32468	
3527	0	32488	
3528	0	32472	
3529	0	32444	
3530	0	32364	
3531	0	32268	
3532	0	32192	
3533	0	32124	
3534	0	32064	
3535	0	32020	
3536	0	31972	
3537	0	32004	
3538	0	32020	
3539	0	31936	
3540	0	31852	
3541	0	31836	
3542	0	31908	
3543	0	32028	
3544	0	32084	
3545	0	32104	
3546	0	32140	
3547	0	32160	
3548	0	32180	
3549	0	32260	
3550	0	32360	
3551	0	32440	
3552	0	32504	
3553	0	32602	
3554	0	32644	
3555	0	32698	
3556	0	32692	
3557	0	32656	
3558	0	32606	
3559	0	32612	
3560	0	32508	
3561	0	32412	
3562	0	32376	
3563	0	32360	
3564	0	32372	
3565	0	32436	
3566	0	32482	
3567	0	32492	
3568	0	32468	
3569	0	32432	
3570	0	32442	
3571	0	32456	
3572	0	32440	
3573	0	32424	
3574	0	32496	
3575	0	32560	
3576	0	32586	
3577	0	32612	
3578	0	32612	
3579	0	32572	
3580	0	32520	
3581	0	32464	
3582	0	32464	
3583	0	32540	
3584	0	32628	
3585	0	32668	
3586	0	32704	
3587	0	32730	
3588	0	32734	
3589	0	32704	
3590	0	32644	
3591	0	32556	
3592	0	32520	
3593	0	32484	
3594	0	32460	
3595	0	32408	
3596	0	32412	
3597	0	32440	
3598	0	32448	
3599	0	32514	
3600	0	32544	
3601	0	32578	
3602	0	32616	
3603	0	32644	
3604	0	32634	
3605	0	32660	
3606	0	32740	
3607	0	32824	
3608	0	32888	
3609	0	32884	
3610	0	32880	
3611	0	32876	
3612	0	32856	
3613	0	32856	
3614	0	32840	
3615	0	32864	
3616	0	32872	
3617	0	32868	
3618	0	32876	
3619	0	32860	
3620	0	32884	
3621	0	32876	
3622	0	32824	
3623	0	32816	
3624	0	32836	
3625	0	32910	
3626	0	32962	
3627	0	33012	
3628	0	33034	
3629	0	33028	
3630	0	33024	
3631	0	33006	
3632	0	32968	
3633	0	32928	
3634	0	32896	
3635	0	32896	
3636	0	32864	
3637	0	32810	
3638	0	32812	
3639	0	32832	
3640	0	32872	
3641	0	32920	
3642	0	32968	
3643	0	32980	
3644	0	33012	
3645	0	33096	
3646	0	33192	
3647	0	33296	
3648	0	33428	
3649	0	33504	
3650	0	33504	
3651	0	33416	
3652	0	33312	
3653	0	33212	
3654	0	33166	
3655	0	33168	
3656	0	33128	
3657	0	33076	
3658	0	32964	
3659	0	32854	
3660	0	32832	
3661	0	32840	
3662	0	32828	
3663	0	32782	
3664	0	32772	
3665	0	32776	
3666	0	32824	
3667	0	32864	
3668	0	32896	
3669	0	32908	
3670	0	32852	
3671	0	32780	
3672	0	32812	
3673	0	32864	
3674	0	32928	
3675	0	32952	
3676	0	32974	
3677	0	33012	
3678	0	33128	
3679	0	33236	
3680	0	33332	
3681	0	33376	
3682	0	33372	
3683	0	33340	
3684	0	33256	
3685	0	33220	
3686	0	33216	
3687	0	33248	
3688	0	33272	
3689	0	33336	
3690	0	33376	
3691	0	33400	
3692	0	33420	
3693	0	33472	
3694	0	33560	
3695	0	33552	
3696	0	33444	
3697	0	33384	
3698	0	33396	
3699	0	33432	
3700	0	33520	
3701	0	33616	
3702	0	33692	
3703	0	33736	
3704	0	33812	
3705	0	33892	
3706	0	33964	
3707	0	34048	
3708	0	34156	
3709	0	34328	
3710	0	34592	
3711	0	34804	
3712	0	34984	
3713	0	35052	
3714	0	35088	
3715	0	35100	
3716	0	35124	
3717	0	35080	
3718	0	34960	
3719	0	34848	
3720	0	34760	
3721	0	34690	
3722	0	34645	
3723	0	34576	
3724	0	34452	
3725	0	34264	
3726	0	34108	
3727	0	34000	
3728	0	33948	
3729	0	33880	
3730	0	33768	
3731	0	33680	
3732	0	33688	
3733	0	33768	
3734	0	33832	
3735	0	33856	
3736	0	33858	
3737	0	33824	
3738	0	33784	
3739	0	33748	
3740	0	33744	
3741	0	33748	
3742	0	33724	
3743	0	33690	
3744	0	33660	
3745	0	33624	
3746	0	33656	
3747	0	33656	
3748	0	33636	
3749	0	33616	
3750	0	33596	
3751	0	33556	
3752	0	33404	
3753	0	33208	
3754	0	33104	
3755	0	33032	
3756	0	32912	
3757	0	32808	
3758	0	32796	
3759	0	32816	
3760	0	32788	
3761	0	32736	
3762	0	32640	
3763	0	32570	
3764	0	32496	
3765	0	32484	
3766	0	32484	
3767	0	32536	
3768	0	32600	
3769	0	32640	
3770	0	32688	
3771	0	32708	
3772	0	32712	
3773	0	32736	
3774	0	32788	
3775	0	32876	
3776	0	32948	
3777	0	32976	
3778	0	32912	
3779	0	32832	
3780	0	32796	
3781	0	32780	
3782	0	32832	
3783	0	32860	
3784	0	32876	
3785	0	32840	
3786	0	32744	
3787	0	32700	
3788	0	32684	
3789	0	32644	
3790	0	32576	
3791	0	32548	
3792	0	32520	
3793	0	32500	
3794	0	32472	
3795	0	32460	
3796	0	32472	
3797	0	32532	
3798	0	32552	
3799	0	32594	
3800	0	32632	
3801	0	32676	
3802	0	32700	
3803	0	32680	
3804	0	32620	
3805	0	32552	
3806	0	32500	
3807	0	32516	
3808	0	32568	
3809	0	32636	
3810	0	32736	
3811	0	32824	
3812	0	32904	
3813	0	32916	
3814	0	32872	
3815	0	32808	
3816	0	32772	
3817	0	32712	
3818	0	32688	
3819	0	32676	
3820	0	32664	
3821	0	32612	
3822	0	32540	
3823	0	32434	
3824	0	32348	
3825	0	32328	
3826	0	32324	
3827	0	32372	
3828	0	32420	
3829	0	32488	
3830	0	32570	
3831	0	32684	
3832	0	32776	
3833	0	32878	
3834	0	33000	
3835	0	33088	
3836	0	33160	
3837	0	33208	
3838	0	33184	
3839	0	33128	
3840	0	33024	
3841	0	32908	
3842	0	32816	
3843	0	32744	
3844	0	32704	
3845	0	32792	
3846	0	33032	
3847	0	33348	
3848	0	33626	
3849	0	33972	
3850	0	34344	
3851	0	34696	
3852	0	35052	
3853	0	35280	
3854	0	35420	
3855	0	35640	
3856	0	36032	
3857	0	36564	
3858	0	37240	
3859	0	38084	
3860	0	39076	
3861	0	40288	
3862	0	41672	
3863	0	43176	
3864	0	44804	
3865	0	46400	
3866	0	48104	
3867	0	49828	
3868	0	51452	
3869	0	52900	
3870	0	54164	
3871	0	55216	
3872	0	56256	
3873	0	57400	
3874	0	58524	
3875	0	59360	
3876	0	59656	
3877	0	58960	
3878	0	57016	
3879	0	54136	
3880	0	50700	
3881	0	46816	
3882	0	42872	
3883	0	39300	
3884	0	36328	
3885	0	34112	
3886	0	32576	
3887	0	31456	
3888	0	30664	
3889	0	30156	
3890	0	29822	
3891	0	29628	
3892	0	29580	
3893	0	29572	
3894	0	29620	
3895	0	29656	
3896	0	29708	
3897	0	29812	
3898	0	29920	
3899	0	30068	
3900	0	30244	
3901	0	30468	
3902	0	30632	
3903	0	30728	
3904	0	30776	
3905	0	30780	
3906	0	30804	
3907	0	30864	
3908	0	30964	
3909	0	31076	
3910	0	31144	
3911	0	31140	
3912	0	31116	
3913	0	31072	
3914	0	31000	
3915	0	30868	
3916	0	30712	
3917	0	30630	
3918	0	30640	
3919	0	30648	
3920	0	30644	
3921	0	30656	
3922	0	30714	
3923	0	30806	
3924	0	30900	
3925	0	31024	
3926	0	31140	
3927	0	31216	
3928	0	31272	
3929	0	31324	
3930	0	31308	
3931	0	31224	
3932	0	31148	
3933	0	31072	
3934	0	31018	
3935	0	30974	
3936	0	30964	
3937	0	30968	
3938	0	30932	
3939	0	30872	
3940	0	30848	
3941	0	30848	
3942	0	30872	
3943	0	30940	
3944	0	31020	
3945	0	31108	
3946	0	31148	
3947	0	31224	
3948	0	31248	
3949	0	31248	
3950	0	31288	
3951	0	31376	
3952	0	31444	
3953	0	31448	
3954	0	31416	
3955	0	31328	
3956	0	31288	
3957	0	31284	
3958	0	31324	
3959	0	31400	
3960	0	31468	
3961	0	31528	
3962	0	31584	
3963	0	31592	
3964	0	31628	
3965	0	31692	
3966	0	31776	
3967	0	31856	
3968	0	31904	
3969	0	31882	
3970	0	31864	
3971	0	31820	
3972	0	31760	
3973	0	31736	
3974	0	31712	
3975	0	31704	
3976	0	31676	
3977	0	31732	
3978	0	31792	
3979	0	31856	
3980	0	31932	
3981	0	31972	
3982	0	31992	
3983	0	32024	
3984	0	32052	
3985	0	32112	
3986	0	32142	
3987	0	32132	
3988	0	32112	
3989	0	32136	
3990	0	32144	
3991	0	32192	
3992	0	32290	
3993	0	32324	
3994	0	32372	
3995	0	32440	
3996	0	32508	
3997	0	32552	
3998	0	32548	
3999	0	32572	
4000	0	32616	
4001	0	32652	
4002	0	32672	
4003	0	32644	
4004	0	32628	
4005	0	32596	
4006	0	32556	
4007	0	32476	
4008	0	32440	
4009	0	32428	
4010	0	32410	
4011	0	32396	
4012	0	32388	
4013	0	32396	
4014	0	32412	
4015	0	32460	
4016	0	32488	
4017	0	32534	
4018	0	32628	
4019	0	32712	
4020	0	32820	
4021	0	32920	
4022	0	33012	
4023	0	33098	
4024	0	33114	
4025	0	33136	
4026	0	33216	
4027	0	33336	
4028	0	33384	
4029	0	33332	
4030	0	33216	
4031	0	33080	
4032	0	33002	
4033	0	33000	
4034	0	33080	
4035	0	33156	
4036	0	33136	
4037	0	33112	
4038	0	33124	
4039	0	33192	
4040	0	33292	
4041	0	33380	
4042	0	33424	
4043	0	33456	
4044	0	33528	
4045	0	33588	
4046	0	33616	
4047	0	33616	
4048	0	33570	
4049	0	33544	
4050	0	33544	
4051	0	33576	
4052	0	33580	
4053	0	33608	
4054	0	33624	
4055	0	33676	
4056	0	33720	
4057	0	33736	
4058	0	33748	
4059	0	33700	
4060	0	33664	
4061	0	33712	
4062	0	33736	
4063	0	33772	
4064	0	33812	
4065	0	33824	
4066	0	33868	
4067	0	33906	
4068	0	33944	
4069	0	33956	
4070	0	33940	
4071	0	33916	
4072	0	33964	
4073	0	33994	
4074	0	34040	
4075	0	34136	
4076	0	34200	
4077	0	34256	
4078	0	34300	
4079	0	34364	
4080	0	34424	
4081	0	34552	
4082	0	34664	
4083	0	34770	
4084	0	34824	
4085	0	34832	
4086	0	34812	
4087	0	34720	
4088	0	34608	
4089	0	34488	
4090	0	34500	
4091	0	34560	
4092	0	34648	
4093	0	34688	
4094	0	34712	
4095	0	34736	
4096	0	34728	
4097	0	34656	
4098	0	34572	
4099	0	34592	
4100	0	34688	
4101	0	34768	
4102	0	34816	
4103	0	34852	
4104	0	34888	
4105	0	34968	
4106	0	35024	
4107	0	35044	
4108	0	35128	
4109	0	35256	
4110	0	35344	
4111	0	35400	
4112	0	35484	
4113	0	35528	
4114	0	35516	
4115	0	35492	
4116	0	35490	
4117	0	35484	
4118	0	35392	
4119	0	35280	
4120	0	35148	
4121	0	35040	
4122	0	34980	
4123	0	35000	
4124	0	34996	
4125	0	34960	
4126	0	34952	
4127	0	34976	
4128	0	35032	
4129	0	35116	
4130	0	35208	
4131	0	35316	
4132	0	35392	
4133	0	35480	
4134	0	35552	
4135	0	35624	
4136	0	35672	
4137	0	35736	
4138	0	35820	
4139	0	35846	
4140	0	35796	
4141	0	35712	
4142	0	35596	
4143	0	35500	
4144	0	35376	
4145	0	35212	
4146	0	35072	
4147	0	34984	
4148	0	34892	
4149	0	34864	
4150	0	34872	
4151	0	34824	
4152	0	34780	
4153	0	34688	
4154	0	34602	
4155	0	34564	
4156	0	34516	
4157	0	34432	
4158	0	34360	
4159	0	34184	
4160	0	34016	
4161	0	33892	
4162	0	33760	
4163	0	33608	
4164	0	33402	
4165	0	33196	
4166	0	33068	
4167	0	32954	
4168	0	32832	
4169	0	32696	
4170	0	32632	
4171	0	32624	
4172	0	32664	
4173	0	32728	
4174	0	32704	
4175	0	32608	
4176	0	32500	
4177	0	32384	
4178	0	32288	
4179	0	32192	
4180	0	32048	
4181	0	31796	
4182	0	31564	
4183	0	31420	
4184	0	31248	
4185	0	31064	
4186	0	30928	
4187	0	30824	
4188	0	30692	
4189	0	30594	
4190	0	30552	
4191	0	30524	
4192	0	30520	
4193	0	30492	
4194	0	30468	
4195	0	30468	
4196	0	30434	
4197	0	30332	
4198	0	30204	
4199	0	30044	
4200	0	29960	
4201	0	29908	
4202	0	29840	
4203	0	29804	
4204	0	29808	
4205	0	29818	
4206	0	29844	
4207	0	29872	
4208	0	29876	
4209	0	29884	
4210	0	29868	
4211	0	29848	
4212	0	29820	
4213	0	29820	
4214	0	29844	
4215	0	29900	
4216	0	29916	
4217	0	29908	
4218	0	29836	
4219	0	29772	
4220	0	29754	
4221	0	29776	
4222	0	29792	
4223	0	29828	
4224	0	29888	
4225	0	30012	
4226	0	30060	
4227	0	30090	
4228	0	30096	
4229	0	30084	
4230	0	29984	
4231	0	29956	
4232	0	29976	
4233	0	29944	
4234	0	29884	
4235	0	29852	
4236	0	29834	
4237	0	29820	
4238	0	29820	
4239	0	29856	
4240	0	29928	
4241	0	29968	
4242	0	29924	
4243	0	29928	
4244	0	29968	
4245	0	30020	
4246	0	30032	
4247	0	30048	
4248	0	29996	
4249	0	29936	
4250	0	29964	
4251	0	29980	
4252	0	30016	
4253	0	30100	
4254	0	30232	
4255	0	30336	
4256	0	30356	
4257	0	30400	
4258	0	30452	
4259	0	30476	
4260	0	30468	
4261	0	30416	
4262	0	30344	
4263	0	30336	
4264	0	30364	
4265	0	30428	
4266	0	30476	
4267	0	30492	
4268	0	30492	
4269	0	30506	
4270	0	30564	
4271	0	30624	
4272	0	30696	
4273	0	30800	
4274	0	30892	
4275	0	30924	
4276	0	30964	
4277	0	30936	
4278	0	30898	
4279	0	30888	
4280	0	30872	
4281	0	30852	
4282	0	30802	
4283	0	30736	
4284	0	30684	
4285	0	30708	
4286	0	30740	
4287	0	30752	
4288	0	30780	
4289	0	30836	
4290	0	30922	
4291	0	31040	
4292	0	31068	
4293	0	31084	
4294	0	31136	
4295	0	31168	
4296	0	31208	
4297	0	31256	
4298	0	31280	
4299	0	31240	
4300	0	31200	
4301	0	31220	
4302	0	31276	
4303	0	31302	
4304	0	31312	
4305	0	31328	
4306	0	31360	
4307	0	31400	
4308	0	31488	
4309	0	31604	
4310	0	31720	
4311	0	31750	
4312	0	31664	
4313	0	31540	
4314	0	31426	
4315	0	31340	
4316	0	31344	
4317	0	31440	
4318	0	31544	
4319	0	31564	
4320	0	31544	
4321	0	31544	
4322	0	31570	
4323	0	31604	
4324	0	31584	
4325	0	31540	
4326	0	31496	
4327	0	31396	
4328	0	31300	
4329	0	31312	
4330	0	31392	
4331	0	31456	
4332	0	31504	
4333	0	31524	
4334	0	31576	
4335	0	31562	
4336	0	31556	
4337	0	31524	
4338	0	31492	
4339	0	31428	
4340	0	31392	
4341	0	31366	
4342	0	31384	
4343	0	31444	
4344	0	31536	
4345	0	31564	
4346	0	31560	
4347	0	31544	
4348	0	31540	
4349	0	31600	
4350	0	31684	
4351	0	31736	
4352	0	31780	
4353	0	31778	
4354	0	31834	
4355	0	31840	
4356	0	31812	
4357	0	31752	
4358	0	31712	
4359	0	31648	
4360	0	31552	
4361	0	31482	
4362	0	31408	
4363	0	31424	
4364	0	31464	
4365	0	31576	
4366	0	31716	
4367	0	31816	
4368	0	31828	
4369	0	31800	
4370	0	31760	
4371	0	31700	
4372	0	31672	
4373	0	31692	
4374	0	31714	
4375	0	31728	
4376	0	31760	
4377	0	31732	
4378	0	31712	
4379	0	31712	
4380	0	31728	
4381	0	31720	
4382	0	31704	
4383	0	31740	
4384	0	31772	
4385	0	31824	
4386	0	31872	
4387	0	31890	
4388	0	31904	
4389	0	31920	
4390	0	31930	
4391	0	31868	
4392	0	31748	
4393	0	31704	
4394	0	31720	
4395	0	31744	
4396	0	31748	
4397	0	31720	
4398	0	31660	
4399	0	31608	
4400	0	31616	
4401	0	31608	
4402	0	31592	
4403	0	31616	
4404	0	31714	
4405	0	31776	
4406	0	31784	
4407	0	31824	
4408	0	31876	
4409	0	31916	
4410	0	31912	
4411	0	31892	
4412	0	31832	
4413	0	31772	
4414	0	31720	
4415	0	31640	
4416	0	31612	
4417	0	31660	
4418	0	31724	
4419	0	31742	
4420	0	31744	
4421	0	31732	
4422	0	31704	
4423	0	31652	
4424	0	31648	
4425	0	31648	
4426	0	31660	
4427	0	31704	
4428	0	31744	
4429	0	31784	
4430	0	31844	
4431	0	31896	
4432	0	31900	
4433	0	31908	
4434	0	31900	
4435	0	31936	
4436	0	32012	
4437	0	32100	
4438	0	32232	
4439	0	32360	
4440	0	32416	
4441	0	32472	
4442	0	32496	
4443	0	32448	
4444	0	32288	
4445	0	32098	
4446	0	31964	
4447	0	31928	
4448	0	31880	
4449	0	31856	
4450	0	31844	
4451	0	31840	
4452	0	31868	
4453	0	31920	
4454	0	31984	
4455	0	32044	
4456	0	32080	
4457	0	32172	
4458	0	32308	
4459	0	32368	
4460	0	32392	
4461	0	32388	
4462	0	32396	
4463	0	32404	
4464	0	32384	
4465	0	32372	
4466	0	32366	
4467	0	32340	
4468	0	32228	
4469	0	32116	
4470	0	32080	
4471	0	32080	
4472	0	32128	
4473	0	32188	
4474	0	32256	
4475	0	32336	
4476	0	32388	
4477	0	32448	
4478	0	32544	
4479	0	32672	
4480	0	32772	
4481	0	32836	
4482	0	32804	
4483	0	32750	
4484	0	32700	
4485	0	32620	
4486	0	32532	
4487	0	32460	
4488	0	32416	
4489	0	32384	
4490	0	32352	
4491	0	32320	
4492	0	32256	
4493	0	32196	
4494	0	32138	
4495	0	32154	
4496	0	32232	
4497	0	32300	
4498	0	32320	
4499	0	32418	
4500	0	32528	
4501	0	32580	
4502	0	32612	
4503	0	32570	
4504	0	32428	
4505	0	32320	
4506	0	32292	
4507	0	32272	
4508	0	32192	
4509	0	32096	
4510	0	31994	
4511	0	31976	
4512	0	32032	
4513	0	32124	
4514	0	32200	
4515	0	32274	
4516	0	32296	
4517	0	32344	
4518	0	32460	
4519	0	32586	
4520	0	32664	
4521	0	32674	
4522	0	32656	
4523	0	32668	
4524	0	32712	
4525	0	32668	
4526	0	32576	
4527	0	32548	
4528	0	32576	
4529	0	32556	
4530	0	32548	
4531	0	32564	
4532	0	32552	
4533	0	32564	
4534	0	32624	
4535	0	32640	
4536	0	32600	
4537	0	32564	
4538	0	32620	
4539	0	32704	
4540	0	32740	
4541	0	32704	
4542	0	32644	
4543	0	32634	
4544	0	32644	
4545	0	32628	
4546	0	32600	
4547	0	32516	
4548	0	32420	
4549	0	32376	
4550	0	32400	
4551	0	32392	
4552	0	32408	
4553	0	32416	
4554	0	32448	
4555	0	32472	
4556	0	32496	
4557	0	32552	
4558	0	32552	
4559	0	32552	
4560	0	32532	
4561	0	32544	
4562	0	32588	
4563	0	32684	
4564	0	32760	
4565	0	32858	
4566	0	33008	
4567	0	33148	
4568	0	33260	
4569	0	33344	
4570	0	33380	
4571	0	33384	
4572	0	33304	
4573	0	33200	
4574	0	33076	
4575	0	32988	
4576	0	32956	
4577	0	32864	
4578	0	32712	
4579	0	32568	
4580	0	32444	
4581	0	32400	
4582	0	32524	
4583	0	32720	
4584	0	32852	
4585	0	32952	
4586	0	33096	
4587	0	33236	
4588	0	33312	
4589	0	33296	
4590	0	33224	
4591	0	33110	
4592	0	32972	
4593	0	32874	
4594	0	32792	
4595	0	32684	
4596	0	32538	
4597	0	32412	
4598	0	32368	
4599	0	32356	
4600	0	32416	
4601	0	32496	
4602	0	32576	
4603	0	32564	
4604	0	32540	
4605	0	32572	
4606	0	32564	
4607	0	32556	
4608	0	32596	
4609	0	32688	
4610	0	32760	
4611	0	32868	
4612	0	32942	
4613	0	32988	
4614	0	33008	
4615	0	33108	
4616	0	33156	
4617	0	33136	
4618	0	33120	
4619	0	33096	
4620	0	33068	
4621	0	33040	
4622	0	33028	
4623	0	32988	
4624	0	32892	
4625	0	32836	
4626	0	32852	
4627	0	32904	
4628	0	33004	
4629	0	33112	
4630	0	33152	
4631	0	33168	
4632	0	33128	
4633	0	33064	
4634	0	33004	
4635	0	32956	
4636	0	32920	
4637	0	32894	
4638	0	32852	
4639	0	32828	
4640	0	32904	
4641	0	32948	
4642	0	32992	
4643	0	33044	
4644	0	33008	
4645	0	32972	
4646	0	32976	
4647	0	33024	
4648	0	33092	
4649	0	33170	
4650	0	33256	
4651	0	33306	
4652	0	33208	
4653	0	33048	
4654	0	32944	
4655	0	32876	
4656	0	32840	
4657	0	32796	
4658	0	32738	
4659	0	32648	
4660	0	32576	
4661	0	32564	
4662	0	32610	
4663	0	32656	
4664	0	32700	
4665	0	32720	
4666	0	32754	
4667	0	32824	
4668	0	32912	
4669	0	33008	
4670	0	33088	
4671	0	33166	
4672	0	33252	
4673	0	33320	
4674	0	33404	
4675	0	33456	
4676	0	33498	
4677	0	33456	
4678	0	33392	
4679	0	33332	
4680	0	33308	
4681	0	33320	
4682	0	33312	
4683	0	33306	
4684	0	33312	
4685	0	33280	
4686	0	33248	
4687	0	33260	
4688	0	33316	
4689	0	33412	
4690	0	33528	
4691	0	33676	
4692	0	33876	
4693	0	34020	
4694	0	34152	
4695	0	34260	
4696	0	34388	
4697	0	34512	
4698	0	34576	
4699	0	34628	
4700	0	34770	
4701	0	34896	
4702	0	34912	
4703	0	34892	
4704	0	34912	
4705	0	34948	
4706	0	35008	
4707	0	35040	
4708	0	35004	
4709	0	34840	
4710	0	34664	
4711	0	34500	
4712	0	34350	
4713	0	34216	
4714	0	34104	
4715	0	34026	
4716	0	34024	
4717	0	33968	
4718	0	33932	
4719	0	33886	
4720	0	33824	
4721	0	33792	
4722	0	33732	
4723	0	33608	
4724	0	33432	
4725	0	33268	
4726	0	33164	
4727	0	33128	
4728	0	33084	
4729	0	33080	
4730	0	33048	
4731	0	33024	
4732	0	33096	
4733	0	33140	
4734	0	33168	
4735	0	33172	
4736	0	33148	
4737	0	33080	
4738	0	33020	
4739	0	32976	
4740	0	32972	
4741	0	32964	
4742	0	32996	
4743	0	33040	
4744	0	33008	
4745	0	32954	
4746	0	32928	
4747	0	32874	
4748	0	32800	
4749	0	32816	
4750	0	32848	
4751	0	32828	
4752	0	32802	
4753	0	32752	
4754	0	32716	
4755	0	32662	
4756	0	32564	
4757	0	32448	
4758	0	32436	
4759	0	32428	
4760	0	32424	
4761	0	32424	
4762	0	32432	
4763	0	32408	
4764	0	32392	
4765	0	32384	
4766	0	32372	
4767	0	32364	
4768	0	32328	
4769	0	32280	
4770	0	32252	
4771	0	32192	
4772	0	32160	
4773	0	32128	
4774	0	32196	
4775	0	32288	
4776	0	32340	
4777	0	32384	
4778	0	32376	
4779	0	32416	
4780	0	32548	
4781	0	32620	
4782	0	32600	
4783	0	32544	
4784	0	32496	
4785	0	32398	
4786	0	32344	
4787	0	32320	
4788	0	32304	
4789	0	32224	
4790	0	32180	
4791	0	32264	
4792	0	32328	
4793	0	32408	
4794	0	32540	
4795	0	32668	
4796	0	32772	
4797	0	32864	
4798	0	32932	
4799	0	32938	
4800	0	32900	
4801	0	32784	
4802	0	32676	
4803	0	32592	
4804	0	32568	
4805	0	32540	
4806	0	32524	
4807	0	32528	
4808	0	32506	
4809	0	32476	
4810	0	32416	
4811	0	32380	
4812	0	32392	
4813	0	32448	
4814	0	32528	
4815	0	32628	
4816	0	32684	
4817	0	32752	
4818	0	32856	
4819	0	32972	
4820	0	33096	
4821	0	33136	
4822	0	33164	
4823	0	33204	
4824	0	33232	
4825	0	33178	
4826	0	33068	
4827	0	32940	
4828	0	32752	
4829	0	32568	
4830	0	32434	
4831	0	32416	
4832	0	32528	
4833	0	32836	
4834	0	33172	
4835	0	33464	
4836	0	33784	
4837	0	34138	
4838	0	34536	
4839	0	34744	
4840	0	34932	
4841	0	35220	
4842	0	35676	
4843	0	36316	
4844	0	37104	
4845	0	38088	
4846	0	39224	
4847	0	40468	
4848	0	41896	
4849	0	43408	
4850	0	45014	
4851	0	46728	
4852	0	48480	
4853	0	50360	
4854	0	52216	
4855	0	53848	
4856	0	55228	
4857	0	56416	
4858	0	57560	
4859	0	58604	
4860	0	59552	
4861	0	60364	
4862	0	60608	
4863	0	59844	
4864	0	57916	
4865	0	54968	
4866	0	51408	
4867	0	47456	
4868	0	43464	
4869	0	39756	
4870	0	36548	
4871	0	34080	
4872	0	32368	
4873	0	31144	
4874	0	30272	
4875	0	29728	
4876	0	29364	
4877	0	29120	
4878	0	29016	
4879	0	29116	
4880	0	29300	
4881	0	29384	
4882	0	29416	
4883	0	29480	
4884	0	29588	
4885	0	29680	
4886	0	29800	
4887	0	29928	
4888	0	30092	
4889	0	30304	
4890	0	30544	
4891	0	30736	
4892	0	30820	
4893	0	30876	
4894	0	30920	
4895	0	30924	
4896	0	30912	
4897	0	30936	
4898	0	30988	
4899	0	30984	
4900	0	30924	
4901	0	30880	
4902	0	30828	
4903	0	30816	
4904	0	30784	
4905	0	30720	
4906	0	30692	
4907	0	30668	
4908	0	30620	
4909	0	30608	
4910	0	30620	
4911	0	30660	
4912	0	30720	
4913	0	30768	
4914	0	30808	
4915	0	30824	
4916	0	30800	
4917	0	30784	
4918	0	30848	
4919	0	30892	
4920	0	30888	
4921	0	30884	
4922	0	30916	
4923	0	30928	
4924	0	30924	
4925	0	30912	
4926	0	30944	
4927	0	31016	
4928	0	31036	
4929	0	31012	
4930	0	31048	
4931	0	31108	
4932	0	31144	
4933	0	31104	
4934	0	31044	
4935	0	30940	
4936	0	30834	
4937	0	30816	
4938	0	30904	
4939	0	30952	
4940	0	30992	
4941	0	31040	
4942	0	31052	
4943	0	31080	
4944	0	31188	
4945	0	31332	
4946	0	31426	
4947	0	31444	
4948	0	31472	
4949	0	31528	
4950	0	31572	
4951	0	31636	
4952	0	31720	
4953	0	31816	
4954	0	31880	
4955	0	31912	
4956	0	31940	
4957	0	31976	
4958	0	31964	
4959	0	31948	
4960	0	31904	
4961	0	31812	
4962	0	31656	
4963	0	31532	
4964	0	31448	
4965	0	31480	
4966	0	31560	
4967	0	31684	
4968	0	31792	
4969	0	31876	
4970	0	31992	
4971	0	32160	
4972	0	32274	
4973	0	32328	
4974	0	32320	
4975	0	32288	
4976	0	32192	
4977	0	32116	
4978	0	32132	
4979	0	32192	
4980	0	32248	
4981	0	32260	
4982	0	32288	
4983	0	32272	
4984	0	32228	
4985	0	32192	
4986	0	32196	
4987	0	32184	
4988	0	32192	
4989	0	32244	
4990	0	32232	
4991	0	32244	
4992	0	32288	
4993	0	32284	
4994	0	32272	
4995	0	32280	
4996	0	32256	
4997	0	32284	
4998	0	32376	
4999	0	32496	
5000	0	32576	
5001	0	32636	
5002	0	32692	
5003	0	32786	
5004	0	32872	
5005	0	32976	
5006	0	33120	
5007	0	33216	
5008	0	33300	
5009	0	33324	
5010	0	33300	
5011	0	33264	
5012	0	33184	
5013	0	33052	
5014	0	33012	
5015	0	33008	
5016	0	32948	
5017	0	32936	
5018	0	32976	
5019	0	33012	
5020	0	33024	
5021	0	32972	
5022	0	32944	
5023	0	32944	
5024	0	32932	
5025	0	32904	
5026	0	32884	
5027	0	32960	
5028	0	33072	
5029	0	33168	
5030	0	33224	
5031	0	33272	
5032	0	33320	
5033	0	33376	
5034	0	33412	
5035	0	33432	
5036	0	33468	
5037	0	33536	
5038	0	33504	
5039	0	33432	
5040	0	33416	
5041	0	33428	
5042	0	33424	
5043	0	33404	
5044	0	33396	
5045	0	33368	
5046	0	33316	
5047	0	33280	
5048	0	33292	
5049	0	33336	
5050	0	33392	
5051	0	33448	
5052	0	33472	
5053	0	33504	
5054	0	33604	
5055	0	33696	
5056	0	33808	
5057	0	33900	
5058	0	33912	
5059	0	33940	
5060	0	33968	
5061	0	34016	
5062	0	34032	
5063	0	34004	
5064	0	34008	
5065	0	34056	
5066	0	34128	
5067	0	34140	
5068	0	34100	
5069	0	34012	
5070	0	33936	
5071	0	33976	
5072	0	34076	
5073	0	34144	
5074	0	34160	
5075	0	34154	
5076	0	34192	
5077	0	34296	
5078	0	34404	
5079	0	34504	
5080	0	34624	
5081	0	34736	
5082	0	34820	
5083	0	34872	
5084	0	34868	
5085	0	34764	
5086	0	34656	
5087	0	34560	
5088	0	34400	
5089	0	34280	
5090	0	34272	
5091	0	34312	
5092	0	34400	
5093	0	34436	
5094	0	34440	
5095	0	34384	
5096	0	34396	
5097	0	34480	
5098	0	34552	
5099	0	34668	
5100	0	34756	
5101	0	34824	
5102	0	34848	
5103	0	34864	
5104	0	34920	
5105	0	34932	
5106	0	34928	
5107	0	34916	
5108	0	34920	
5109	0	34856	
5110	0	34784	
5111	0	34700	
5112	0	34620	
5113	0	34568	
5114	0	34560	
5115	0	34568	
5116	0	34556	
5117	0	34624	
5118	0	34700	
5119	0	34788	
5120	0	34900	
5121	0	34940	
5122	0	34944	
5123	0	34956	
5124	0	34972	
5125	0	34992	
5126	0	35040	
5127	0	35056	
5128	0	35020	
5129	0	35008	
5130	0	35044	
5131	0	35072	
5132	0	35120	
5133	0	35148	
5134	0	35136	
5135	0	35136	
5136	0	35096	
5137	0	35024	
5138	0	34968	
5139	0	34920	
5140	0	34828	
5141	0	34712	
5142	0	34560	
5143	0	34448	
5144	0	34340	
5145	0	34216	
5146	0	34088	
5147	0	34016	
5148	0	33976	
5149	0	33920	
5150	0	33828	
5151	0	33696	
5152	0	33554	
5153	0	33436	
5154	0	33338	
5155	0	33172	
5156	0	33048	
5157	0	32944	
5158	0	32816	
5159	0	32580	
5160	0	32324	
5161	0	32160	
5162	0	32048	
5163	0	31924	
5164	0	31802	
5165	0	31668	
5166	0	31572	
5167	0	31404	
5168	0	31252	
5169	0	31104	
5170	0	31084	
5171	0	31048	
5172	0	31044	
5173	0	31093	
5174	0	31116	
5175	0	31080	
5176	0	30996	
5177	0	30896	
5178	0	30748	
5179	0	30640	
5180	0	30548	
5181	0	30528	
5182	0	30484	
5183	0	30400	
5184	0	30292	
5185	0	30172	
5186	0	30028	
5187	0	29908	
5188	0	29904	
5189	0	29896	
5190	0	29904	
5191	0	29900	
5192	0	29856	
5193	0	29832	
5194	0	29872	
5195	0	29920	
5196	0	29936	
5197	0	29988	
5198	0	30048	
5199	0	30082	
5200	0	30072	
5201	0	29952	
5202	0	29832	
5203	0	29728	
5204	0	29588	
5205	0	29452	
5206	0	29422	
5207	0	29428	
5208	0	29480	
5209	0	29572	
5210	0	29688	
5211	0	29772	
5212	0	29764	
5213	0	29744	
5214	0	29776	
5215	0	29784	
5216	0	29752	
5217	0	29768	
5218	0	29816	
5219	0	29796	
5220	0	29860	
5221	0	29932	
5222	0	29980	
5223	0	30064	
5224	0	30140	
5225	0	30196	
5226	0	30236	
5227	0	30252	
5228	0	30204	
5229	0	30164	
5230	0	30176	
5231	0	30192	
5232	0	30220	
5233	0	30180	
5234	0	30116	
5235	0	30088	
5236	0	30052	
5237	0	30016	
5238	0	30032	
5239	0	30060	
5240	0	30034	
5241	0	29992	
5242	0	29966	
5243	0	30000	
5244	0	30084	
5245	0	30152	
5246	0	30224	
5247	0	30304	
5248	0	30408	
5249	0	30528	
5250	0	30664	
5251	0	30788	
5252	0	30900	
5253	0	31028	
5254	0	31136	
5255	0	31200	
5256	0	31256	
5257	0	31160	
5258	0	30992	
5259	0	30828	
5260	0	30748	
5261	0	30696	
5262	0	30672	
5263	0	30684	
5264	0	30700	
5265	0	30710	
5266	0	30712	
5267	0	30732	
5268	0	30752	
5269	0	30796	
5270	0	30796	
5271	0	30840	
5272	0	30868	
5273	0	30888	
5274	0	30942	
5275	0	31012	
5276	0	31098	
5277	0	31236	
5278	0	31328	
5279	0	31416	
5280	0	31552	
5281	0	31676	
5282	0	31760	
5283	0	31784	
5284	0	31768	
5285	0	31696	
5286	0	31676	
5287	0	31636	
5288	0	31612	
5289	0	31576	
5290	0	31528	
5291	0	31576	
5292	0	31584	
5293	0	31512	
5294	0	31484	
5295	0	31504	
5296	0	31520	
5297	0	31488	
5298	0	31432	
5299	0	31472	
5300	0	31572	
5301	0	31656	
5302	0	31720	
5303	0	31784	
5304	0	31876	
5305	0	31972	
5306	0	32052	
5307	0	32112	
5308	0	32108	
5309	0	32024	
5310	0	31972	
5311	0	31920	
5312	0	31908	
5313	0	31892	
5314	0	31908	
5315	0	31916	
5316	0	31904	
5317	0	31888	
5318	0	31820	
5319	0	31724	
5320	0	31652	
5321	0	31608	
5322	0	31572	
5323	0	31666	
5324	0	31724	
5325	0	31712	
5326	0	31688	
5327	0	31680	
5328	0	31688	
5329	0	31636	
5330	0	31584	
5331	0	31540	
5332	0	31496	
5333	0	31488	
5334	0	31532	
5335	0	31624	
5336	0	31640	
5337	0	31600	
5338	0	31636	
5339	0	31696	
5340	0	31796	
5341	0	31876	
5342	0	31912	
5343	0	31872	
5344	0	31880	
5345	0	31852	
5346	0	31708	
5347	0	31628	
5348	0	31572	
5349	0	31544	
5350	0	31560	
5351	0	31598	
5352	0	31684	
5353	0	31760	
5354	0	31828	
5355	0	31864	
5356	0	31918	
5357	0	31978	
5358	0	32008	
5359	0	32040	
5360	0	32040	
5361	0	32000	
5362	0	31912	
5363	0	31836	
5364	0	31836	
5365	0	31856	
5366	0	31872	
5367	0	31952	
5368	0	32016	
5369	0	32064	
5370	0	32104	
5371	0	32108	
5372	0	32048	
5373	0	31932	
5374	0	31836	
5375	0	31778	
5376	0	31820	
5377	0	31924	
5378	0	32020	
5379	0	32080	
5380	0	32164	
5381	0	32212	
5382	0	32132	
5383	0	32028	
5384	0	31956	
5385	0	31920	
5386	0	31888	
5387	0	31916	
5388	0	31994	
5389	0	32016	
5390	0	32024	
5391	0	32042	
5392	0	32064	
5393	0	32088	
5394	0	32100	
5395	0	32116	
5396	0	32140	
5397	0	32144	
5398	0	32104	
5399	0	32064	
5400	0	32058	
5401	0	32008	
5402	0	31932	
5403	0	31920	
5404	0	31948	
5405	0	31992	
5406	0	32004	
5407	0	32072	
5408	0	32152	
5409	0	32252	
5410	0	32364	
5411	0	32448	
5412	0	32544	
5413	0	32616	
5414	0	32556	
5415	0	32388	
5416	0	32192	
5417	0	32032	
5418	0	31932	
5419	0	31868	
5420	0	31808	
5421	0	31752	
5422	0	31728	
5423	0	31726	
5424	0	31756	
5425	0	31752	
5426	0	31784	
5427	0	31876	
5428	0	31952	
5429	0	32032	
5430	0	32104	
5431	0	32204	
5432	0	32300	
5433	0	32384	
5434	0	32464	
5435	0	32512	
5436	0	32540	
5437	0	32530	
5438	0	32480	
5439	0	32436	
5440	0	32440	
5441	0	32472	
5442	0	32468	
5443	0	32366	
5444	0	32248	
5445	0	32204	
5446	0	32204	
5447	0	32232	
5448	0	32224	
5449	0	32152	
5450	0	32168	
5451	0	32160	
5452	0	32124	
5453	0	32152	
5454	0	32212	
5455	0	32240	
5456	0	32248	
5457	0	32300	
5458	0	32396	
5459	0	32492	
5460	0	32570	
5461	0	32664	
5462	0	32744	
5463	0	32816	
5464	0	32856	
5465	0	32856	
5466	0	32820	
5467	0	32760	
5468	0	32632	
5469	0	32528	
5470	0	32476	
5471	0	32472	
5472	0	32452	
5473	0	32432	
5474	0	32410	
5475	0	32424	
5476	0	32472	
5477	0	32516	
5478	0	32570	
5479	0	32636	
5480	0	32636	
5481	0	32604	
5482	0	32612	
5483	0	32604	
5484	0	32584	
5485	0	32632	
5486	0	32728	
5487	0	32764	
5488	0	32764	
5489	0	32740	
5490	0	32712	
5491	0	32716	
5492	0	32684	
5493	0	32600	
5494	0	32544	
5495	0	32536	
5496	0	32552	
5497	0	32652	
5498	0	32736	
5499	0	32752	
5500	0	32732	
5501	0	32744	
5502	0	32880	
5503	0	32992	
5504	0	33044	
5505	0	33048	
5506	0	32984	
5507	0	32932	
5508	0	32880	
5509	0	32816	
5510	0	32740	
5511	0	32708	
5512	0	32736	
5513	0	32716	
5514	0	32708	
5515	0	32712	
5516	0	32704	
5517	0	32656	
5518	0	32664	
5519	0	32692	
5520	0	32684	
5521	0	32656	
5522	0	32692	
5523	0	32748	
5524	0	32864	
5525	0	32968	
5526	0	32992	
5527	0	32968	
5528	0	32912	
5529	0	32864	
5530	0	32856	
5531	0	32788	
5532	0	32656	
5533	0	32640	
5534	0	32696	
5535	0	32700	
5536	0	32684	
5537	0	32636	
5538	0	32624	
5539	0	32692	
5540	0	32828	
5541	0	32928	
5542	0	33024	
5543	0	33120	
5544	0	33184	
5545	0	33200	
5546	0	33240	
5547	0	33272	
5548	0	33264	
5549	0	33252	
5550	0	33224	
5551	0	33208	
5552	0	33220	
5553	0	33272	
5554	0	33292	
5555	0	33272	
5556	0	33220	
5557	0	33108	
5558	0	33004	
5559	0	33024	
5560	0	33072	
5561	0	33160	
5562	0	33292	
5563	0	33432	
5564	0	33584	
5565	0	33710	
5566	0	33882	
5567	0	34008	
5568	0	34092	
5569	0	34176	
5570	0	34296	
5571	0	34404	
5572	0	34496	
5573	0	34580	
5574	0	34672	
5575	0	34776	
5576	0	34854	
5577	0	34848	
5578	0	34804	
5579	0	34700	
5580	0	34580	
5581	0	34484	
5582	0	34356	
5583	0	34172	
5584	0	33956	
5585	0	33824	
5586	0	33824	
5587	0	33832	
5588	0	33799	
5589	0	33728	
5590	0	33632	
5591	0	33576	
5592	0	33524	
5593	0	33504	
5594	0	33548	
5595	0	33584	
5596	0	33612	
5597	0	33628	
5598	0	33612	
5599	0	33560	
5600	0	33556	
5601	0	33464	
5602	0	33268	
5603	0	33092	
5604	0	33004	
5605	0	32984	
5606	0	33034	
5607	0	33140	
5608	0	33208	
5609	0	33286	
5610	0	33328	
5611	0	33336	
5612	0	33296	
5613	0	33272	
5614	0	33240	
5615	0	33236	
5616	0	33194	
5617	0	33092	
5618	0	32996	
5619	0	33032	
5620	0	33074	
5621	0	33040	
5622	0	32932	
5623	0	32788	
5624	0	32676	
5625	0	32592	
5626	0	32584	
5627	0	32652	
5628	0	32712	
5629	0	32780	
5630	0	32824	
5631	0	32784	
5632	0	32684	
5633	0	32600	
5634	0	32576	
5635	0	32616	
5636	0	32644	
5637	0	32576	
5638	0	32452	
5639	0	32288	
5640	0	32112	
5641	0	31960	
5642	0	31928	
5643	0	31984	
5644	0	32052	
5645	0	32104	
5646	0	32140	
5647	0	32200	
5648	0	32264	
5649	0	32304	
5650	0	32328	
5651	0	32368	
5652	0	32448	
5653	0	32456	
5654	0	32360	
5655	0	32252	
5656	0	32160	
5657	0	32176	
5658	0	32264	
5659	0	32360	
5660	0	32448	
5661	0	32496	
5662	0	32526	
5663	0	32544	
5664	0	32584	
5665	0	32624	
5666	0	32600	
5667	0	32525	
5668	0	32420	
5669	0	32312	
5670	0	32320	
5671	0	32416	
5672	0	32516	
5673	0	32600	
5674	0	32648	
5675	0	32684	
5676	0	32652	
5677	0	32578	
5678	0	32516	
5679	0	32480	
5680	0	32476	
5681	0	32544	
5682	0	32668	
5683	0	32704	
5684	0	32668	
5685	0	32632	
5686	0	32640	
5687	0	32665	
5688	0	32692	
5689	0	32728	
5690	0	32764	
5691	0	32775	
5692	0	32800	
5693	0	32848	
5694	0	32896	
5695	0	32916	
5696	0	32914	
5697	0	32904	
5698	0	32904	
5699	0	32912	
5700	0	32906	
5701	0	32868	
5702	0	32758	
5703	0	32616	
5704	0	32452	
5705	0	32276	
5706	0	32192	
5707	0	32360	
5708	0	32716	
5709	0	33096	
5710	0	33524	
5711	0	33976	
5712	0	34392	
5713	0	34752	
5714	0	35100	
5715	0	35352	
5716	0	35598	
5717	0	35888	
5718	0	36352	
5719	0	36948	
5720	0	37716	
5721	0	38704	
5722	0	39804	
5723	0	41136	
5724	0	42628	
5725	0	44216	
5726	0	45872	
5727	0	47576	
5728	0	49382	
5729	0	51112	
5730	0	52664	
5731	0	53944	
5732	0	55076	
5733	0	56112	
5734	0	57232	
5735	0	58428	
5736	0	59458	
5737	0	60064	
5738	0	59896	
5739	0	58544	
5740	0	56000	
5741	0	52660	
5742	0	48872	
5743	0	44848	
5744	0	40992	
5745	0	37656	
5746	0	35058	
5747	0	33280	
5748	0	32088	
5749	0	31296	
5750	0	30818	
5751	0	30500	
5752	0	30256	
5753	0	30092	
5754	0	29976	
5755	0	29956	
5756	0	30000	
5757	0	30036	
5758	0	29984	
5759	0	29860	
5760	0	29728	
5761	0	29616	
5762	0	29640	
5763	0	29766	
5764	0	29972	
5765	0	30184	
5766	0	30396	
5767	0	30580	
5768	0	30696	
5769	0	30784	
5770	0	30860	
5771	0	30916	
5772	0	30972	
5773	0	30998	
5774	0	30966	
5775	0	30916	
5776	0	30896	
5777	0	30880	
5778	0	30820	
5779	0	30812	
5780	0	30852	
5781	0	30908	
5782	0	30914	
5783	0	30888	
5784	0	30832	
5785	0	30764	
5786	0	30740	
5787	0	30788	
5788	0	30916	
5789	0	31044	
5790	0	31136	
5791	0	31264	
5792	0	31424	
5793	0	31516	
5794	0	31504	
5795	0	31420	
5796	0	31332	
5797	0	31232	
5798	0	31086	
5799	0	30952	
5800	0	30908	
5801	0	30900	
5802	0	30932	
5803	0	30944	
5804	0	30908	
5805	0	30884	
5806	0	30904	
5807	0	30880	
5808	0	30808	
5809	0	30736	
5810	0	30760	
5811	0	30808	
5812	0	30840	
5813	0	30876	
5814	0	30908	
5815	0	30972	
5816	0	31016	
5817	0	31080	
5818	0	31136	
5819	0	31236	
5820	0	31328	
5821	0	31480	
5822	0	31666	
5823	0	31824	
5824	0	31924	
5825	0	31992	
5826	0	32058	
5827	0	32136	
5828	0	32128	
5829	0	32032	
5830	0	31956	
5831	0	31944	
5832	0	31936	
5833	0	31908	
5834	0	31768	
5835	0	31644	
5836	0	31584	
5837	0	31552	
5838	0	31508	
5839	0	31528	
5840	0	31544	
5841	0	31584	
5842	0	31668	
5843	0	31780	
5844	0	31868	
5845	0	31936	
5846	0	32004	
5847	0	32036	
5848	0	32084	
5849	0	32156	
5850	0	32232	
5851	0	32320	
5852	0	32352	
5853	0	32360	
5854	0	32306	
5855	0	32272	
5856	0	32248	
5857	0	32256	
5858	0	32276	
5859	0	32304	
5860	0	32308	
5861	0	32288	
5862	0	32296	
5863	0	32336	
5864	0	32392	
5865	0	32472	
5866	0	32536	
5867	0	32624	
5868	0	32736	
5869	0	32792	
5870	0	32800	
5871	0	32800	
5872	0	32794	
5873	0	32808	
5874	0	32816	
5875	0	32800	
5876	0	32748	
5877	0	32660	
5878	0	32588	
5879	0	32540	
5880	0	32550	
5881	0	32596	
5882	0	32644	
5883	0	32700	
5884	0	32700	
5885	0	32672	
5886	0	32680	
5887	0	32720	
5888	0	32736	
5889	0	32688	
5890	0	32656	
5891	0	32672	
5892	0	32660	
5893	0	32664	
5894	0	32700	
5895	0	32736	
5896	0	32800	
5897	0	32872	
5898	0	32920	
5899	0	32920	
5900	0	32912	
5901	0	32896	
5902	0	32970	
5903	0	33076	
5904	0	33224	
5905	0	33360	
5906	0	33424	
5907	0	33432	
5908	0	33432	
5909	0	33444	
5910	0	33472	
5911	0	33502	
5912	0	33504	
5913	0	33456	
5914	0	33436	
5915	0	33416	
5916	0	33364	
5917	0	33352	
5918	0	33360	
5919	0	33420	
5920	0	33504	
5921	0	33604	
5922	0	33728	
5923	0	33808	
5924	0	33776	
5925	0	33674	
5926	0	33516	
5927	0	33376	
5928	0	33336	
5929	0	33364	
5930	0	33412	
5931	0	33440	
5932	0	33448	
5933	0	33460	
5934	0	33496	
5935	0	33600	
5936	0	33728	
5937	0	33840	
5938	0	33936	
5939	0	34018	
5940	0	34096	
5941	0	34244	
5942	0	34320	
5943	0	34340	
5944	0	34336	
5945	0	34304	
5946	0	34236	
5947	0	34208	
5948	0	34164	
5949	0	34112	
5950	0	34030	
5951	0	33972	
5952	0	33976	
5953	0	34028	
5954	0	34092	
5955	0	34182	
5956	0	34284	
5957	0	34356	
5958	0	34436	
5959	0	34520	
5960	0	34570	
5961	0	34620	
5962	0	34740	
5963	0	34880	
5964	0	34964	
5965	0	35080	
5966	0	35128	
5967	0	35072	
5968	0	35008	
5969	0	34912	
5970	0	34760	
5971	0	34709	
5972	0	34768	
5973	0	34844	
5974	0	34876	
5975	0	34908	
5976	0	34988	
5977	0	35136	
5978	0	35244	
5979	0	35340	
5980	0	35436	
5981	0	35512	
5982	0	35520	
5983	0	35456	
5984	0	35412	
5985	0	35392	
5986	0	35340	
5987	0	35316	
5988	0	35268	
5989	0	35140	
5990	0	34984	
5991	0	34916	
5992	0	34912	
5993	0	34944	
5994	0	34988	
5995	0	35040	
5996	0	35124	
5997	0	35116	
5998	0	35088	
5999	0	35044	
6000	0	35064	
6001	0	35084	
6002	0	35116	
6003	0	35168	
6004	0	35236	
6005	0	35280	
6006	0	35276	
6007	0	35204	
6008	0	35068	
6009	0	34932	
6010	0	34816	
6011	0	34764	
6012	0	34700	
6013	0	34708	
6014	0	34732	
6015	0	34680	
6016	0	34560	
6017	0	34392	
6018	0	34256	
6019	0	34140	
6020	0	33992	
6021	0	33888	
6022	0	33856	
6023	0	33820	
6024	0	33792	
6025	0	33752	
6026	0	33632	
6027	0	33472	
6028	0	33246	
6029	0	33024	
6030	0	32810	
6031	0	32604	
6032	0	32394	
6033	0	32208	
6034	0	32076	
6035	0	31964	
6036	0	31872	
6037	0	31762	
6038	0	31648	
6039	0	31512	
6040	0	31392	
6041	0	31320	
6042	0	31232	
6043	0	31168	
6044	0	31116	
6045	0	31080	
6046	0	31010	
6047	0	30916	
6048	0	30768	
6049	0	30556	
6050	0	30332	
6051	0	30216	
6052	0	30184	
6053	0	30160	
6054	0	30156	
6055	0	30184	
6056	0	30208	
6057	0	30184	
6058	0	30184	
6059	0	30172	
6060	0	30144	
6061	0	30124	
6062	0	30120	
6063	0	30112	
6064	0	30056	
6065	0	29944	
6066	0	29818	
6067	0	29726	
6068	0	29736	
6069	0	29752	
6070	0	29808	
6071	0	29880	
6072	0	29896	
6073	0	29856	
6074	0	29840	
6075	0	29844	
6076	0	29836	
6077	0	29816	
6078	0	29776	
6079	0	29730	
6080	0	29708	
6081	0	29686	
6082	0	29664	
6083	0	29612	
6084	0	29564	
6085	0	29548	
6086	0	29568	
6087	0	29652	
6088	0	29688	
6089	0	29724	
6090	0	29792	
6091	0	29880	
6092	0	29952	
6093	0	29984	
6094	0	29980	
6095	0	29936	
6096	0	29912	
6097	0	29868	
6098	0	29740	
6099	0	29612	
6100	0	29634	
6101	0	29744	
6102	0	29848	
6103	0	29940	
6104	0	29998	
6105	0	30048	
6106	0	30050	
6107	0	30040	
6108	0	30044	
6109	0	30104	
6110	0	30124	
6111	0	30124	
6112	0	30104	
6113	0	30112	
6114	0	30144	
6115	0	30162	
6116	0	30168	
6117	0	30208	
6118	0	30252	
6119	0	30304	
6120	0	30376	
6121	0	30434	
6122	0	30520	
6123	0	30600	
6124	0	30690	
6125	0	30784	
6126	0	30868	
6127	0	30900	
6128	0	30864	
6129	0	30836	
6130	0	30852	
6131	0	30860	
6132	0	30856	
6133	0	30900	
6134	0	30940	
6135	0	31016	
6136	0	31064	
6137	0	31096	
6138	0	31116	
6139	0	31124	
6140	0	31176	
6141	0	31188	
6142	0	31176	
6143	0	31112	
6144	0	31060	
6145	0	31052	
6146	0	31064	
6147	0	31032	
6148	0	30952	
6149	0	30940	
6150	0	31016	
6151	0	31066	
6152	0	31080	
6153	0	31072	
6154	0	31092	
6155	0	31096	
6156	0	31060	
6157	0	31032	
6158	0	31024	
6159	0	31020	
6160	0	31048	
6161	0	31124	
6162	0	31208	
6163	0	31288	
6164	0	31364	
6165	0	31392	
6166	0	31396	
6167	0	31468	
6168	0	31552	
6169	0	31604	
6170	0	31656	
6171	0	31708	
6172	0	31760	
6173	0	31848	
6174	0	31880	
6175	0	31892	
6176	0	31860	
6177	0	31832	
6178	0	31820	
6179	0	31808	
6180	0	31772	
6181	0	31776	
6182	0	31788	
6183	0	31776	
6184	0	31688	
6185	0	31680	
6186	0	31720	
6187	0	31784	
6188	0	31876	
6189	0	31882	
6190	0	31820	
6191	0	31712	
6192	0	31588	
6193	0	31504	
6194	0	31480	
6195	0	31508	
6196	0	31548	
6197	0	31592	
6198	0	31632	
6199	0	31664	
6200	0	31732	
6201	0	31784	
6202	0	31760	
6203	0	31744	
6204	0	31824	
6205	0	31860	
6206	0	31856	
6207	0	31876	
6208	0	31890	
6209	0	31852	
6210	0	31816	
6211	0	31756	
6212	0	31704	
6213	0	31632	
6214	0	31628	
6215	0	31674	
6216	0	31712	
6217	0	31724	
6218	0	31728	
6219	0	31780	
6220	0	31844	
6221	0	31852	
6222	0	31856	
6223	0	31888	
6224	0	31908	
6225	0	31904	
6226	0	31852	
6227	0	31844	
6228	0	31860	
6229	0	31844	
6230	0	31848	
6231	0	31844	
6232	0	31916	
6233	0	32000	
6234	0	32084	
6235	0	32132	
6236	0	32108	
6237	0	32012	
6238	0	31908	
6239	0	31784	
6240	0	31680	
6241	0	31616	
6242	0	31556	
6243	0	31536	
6244	0	31588	
6245	0	31690	
6246	0	31740	
6247	0	31756	
6248	0	31728	
6249	0	31704	
6250	0	31760	
6251	0	31832	
6252	0	31932	
6253	0	32088	
6254	0	32232	
6255	0	32280	
6256	0	32296	
6257	0	32330	
6258	0	32244	
6259	0	32072	
6260	0	31924	
6261	0	31854	
6262	0	31864	
6263	0	31852	
6264	0	31820	
6265	0	31746	
6266	0	31672	
6267	0	31680	
6268	0	31756	
6269	0	31840	
6270	0	31868	
6271	0	31892	
6272	0	31944	
6273	0	32060	
6274	0	32128	
6275	0	32164	
6276	0	32192	
6277	0	32182	
6278	0	32176	
6279	0	32156	
6280	0	32112	
6281	0	32024	
6282	0	31932	
6283	0	31868	
6284	0	31776	
6285	0	31684	
6286	0	31684	
6287	0	31736	
6288	0	31800	
6289	0	31852	
6290	0	31916	
6291	0	31976	
6292	0	32024	
6293	0	32048	
6294	0	32052	
6295	0	32024	
6296	0	32032	
6297	0	32088	
6298	0	32170	
6299	0	32208	
6300	0	32232	
6301	0	32238	
6302	0	32224	
6303	0	32206	
6304	0	32204	
6305	0	32196	
6306	0	32180	
6307	0	32160	
6308	0	32240	
6309	0	32368	
6310	0	32456	
6311	0	32472	
6312	0	32484	
6313	0	32520	
6314	0	32520	
6315	0	32488	
6316	0	32422	
6317	0	32276	
6318	0	32140	
6319	0	32144	
6320	0	32154	
6321	0	32170	
6322	0	32172	
6323	0	32160	
6324	0	32200	
6325	0	32240	
6326	0	32280	
6327	0	32334	
6328	0	32382	
6329	0	32372	
6330	0	32354	
6331	0	32324	
6332	0	32260	
6333	0	32236	
6334	0	32268	
6335	0	32360	
6336	0	32460	
6337	0	32564	
6338	0	32664	
6339	0	32700	
6340	0	32676	
6341	0	32632	
6342	0	32588	
6343	0	32572	
6344	0	32536	
6345	0	32464	
6346	0	32420	
6347	0	32376	
6348	0	32376	
6349	0	32416	
6350	0	32440	
6351	0	32428	
6352	0	32384	
6353	0	32336	
6354	0	32264	
6355	0	32272	
6356	0	32302	
6357	0	32324	
6358	0	32396	
6359	0	32488	
6360	0	32560	
6361	0	32592	
6362	0	32672	
6363	0	32736	
6364	0	32704	
6365	0	32632	
6366	0	32596	
6367	0	32592	
6368	0	32584	
6369	0	32540	
6370	0	32484	
6371	0	32448	
6372	0	32424	
6373	0	32376	
6374	0	32348	
6375	0	32320	
6376	0	32312	
6377	0	32324	
6378	0	32354	
6379	0	32470	
6380	0	32632	
6381	0	32724	
6382	0	32796	
6383	0	32892	
6384	0	32962	
6385	0	33000	
6386	0	33060	
6387	0	33084	
6388	0	33028	
6389	0	32940	
6390	0	32888	
6391	0	32864	
6392	0	32820	
6393	0	32784	
6394	0	32768	
6395	0	32764	
6396	0	32716	
6397	0	32684	
6398	0	32652	
6399	0	32672	
6400	0	32712	
6401	0	32764	
6402	0	32792	
6403	0	32800	
6404	0	32778	
6405	0	32792	
6406	0	32820	
6407	0	32836	
6408	0	32784	
6409	0	32704	
6410	0	32640	
6411	0	32588	
6412	0	32576	
6413	0	32564	
6414	0	32560	
6415	0	32552	
6416	0	32636	
6417	0	32744	
6418	0	32894	
6419	0	33016	
6420	0	33096	
6421	0	33200	
6422	0	33248	
6423	0	33304	
6424	0	33332	
6425	0	33220	
6426	0	33080	
6427	0	32968	
6428	0	32904	
6429	0	32876	
6430	0	32832	
6431	0	32784	
6432	0	32800	
6433	0	32808	
6434	0	32720	
6435	0	32640	
6436	0	32576	
6437	0	32536	
6438	0	32520	
6439	0	32520	
6440	0	32524	
6441	0	32560	
6442	0	32640	
6443	0	32736	
6444	0	32816	
6445	0	32856	
6446	0	32884	
6447	0	32892	
6448	0	32864	
6449	0	32868	
6450	0	32864	
6451	0	32904	
6452	0	32936	
6453	0	32960	
6454	0	32996	
6455	0	33056	
6456	0	33064	
6457	0	33040	
6458	0	33012	
6459	0	33012	
6460	0	33040	
6461	0	33044	
6462	0	33000	
6463	0	32948	
6464	0	32924	
6465	0	32952	
6466	0	33004	
6467	0	33128	
6468	0	33216	
6469	0	33184	
6470	0	33092	
6471	0	33048	
6472	0	33084	
6473	0	33108	
6474	0	33096	
6475	0	33088	
6476	0	33060	
6477	0	33040	
6478	0	32988	
6479	0	33020	
6480	0	33100	
6481	0	33184	
6482	0	33196	
6483	0	33168	
6484	0	33216	
6485	0	33276	
6486	0	33296	
6487	0	33268	
6488	0	33220	
6489	0	33124	
6490	0	33044	
6491	0	32976	
6492	0	32880	
6493	0	32880	
6494	0	32900	
6495	0	32920	
6496	0	32942	
6497	0	32960	
6498	0	32956	
6499	0	32872	
6500	0	32788	
6501	0	32714	
6502	0	32672	
6503	0	32724	
6504	0	32816	
6505	0	32896	
6506	0	32992	
6507	0	33112	
6508	0	33224	
6509	0	33280	
6510	0	33236	
6511	0	33104	
6512	0	32928	
6513	0	32808	
6514	0	32704	
6515	0	32664	
6516	0	32686	
6517	0	32764	
6518	0	32872	
6519	0	32936	
6520	0	32964	
6521	0	33012	
6522	0	33096	
6523	0	33196	
6524	0	33288	
6525	0	33396	
6526	0	33520	
6527	0	33628	
6528	0	33716	
6529	0	33728	
6530	0	33684	
6531	0	33644	
6532	0	33624	
6533	0	33632	
6534	0	33596	
6535	0	33550	
6536	0	33560	
6537	0	33636	
6538	0	33660	
6539	0	33676	
6540	0	33658	
6541	0	33608	
6542	0	33608	
6543	0	33664	
6544	0	33698	
6545	0	33748	
6546	0	33780	
6547	0	33848	
6548	0	33972	
6549	0	34104	
6550	0	34272	
6551	0	34408	
6552	0	34512	
6553	0	34612	
6554	0	34680	
6555	0	34740	
6556	0	34808	
6557	0	34832	
6558	0	34864	
6559	0	34912	
6560	0	34856	
6561	0	34692	
6562	0	34538	
6563	0	34432	
6564	0	34336	
6565	0	34208	
6566	0	34088	
6567	0	34048	
6568	0	34056	
6569	0	34072	
6570	0	34140	
6571	0	34180	
6572	0	34176	
6573	0	34108	
6574	0	33984	
6575	0	33808	
6576	0	33632	
6577	0	33488	
6578	0	33396	
6579	0	33348	
6580	0	33304	
6581	0	33308	
6582	0	33268	
6583	0	33216	
6584	0	33172	
6585	0	33164	
6586	0	33208	
6587	0	33232	
6588	0	33292	
6589	0	33348	
6590	0	33308	
6591	0	33220	
6592	0	33168	
6593	0	33104	
6594	0	33016	
6595	0	32980	
6596	0	32964	
6597	0	32928	
6598	0	32900	
6599	0	32868	
6600	0	32792	
6601	0	32736	
6602	0	32716	
6603	0	32720	
6604	0	32744	
6605	0	32764	
6606	0	32804	
6607	0	32828	
6608	0	32848	
6609	0	32804	
6610	0	32760	
6611	0	32744	
6612	0	32712	
6613	0	32684	
6614	0	32624	
6615	0	32584	
6616	0	32560	
6617	0	32536	
6618	0	32520	
6619	0	32504	
6620	0	32492	
6621	0	32512	
6622	0	32520	
6623	0	32504	
6624	0	32480	
6625	0	32464	
6626	0	32468	
6627	0	32434	
6628	0	32380	
6629	0	32360	
6630	0	32416	
6631	0	32512	
6632	0	32628	
6633	0	32696	
6634	0	32720	
6635	0	32724	
6636	0	32736	
6637	0	32756	
6638	0	32748	
6639	0	32668	
6640	0	32624	
6641	0	32584	
6642	0	32520	
6643	0	32392	
6644	0	32264	
6645	0	32178	
6646	0	32172	
6647	0	32228	
6648	0	32289	
6649	0	32272	
6650	0	32232	
6651	0	32216	
6652	0	32224	
6653	0	32300	
6654	0	32358	
6655	0	32368	
6656	0	32352	
6657	0	32388	
6658	0	32392	
6659	0	32400	
6660	0	32396	
6661	0	32376	
6662	0	32344	
6663	0	32316	
6664	0	32320	
6665	0	32348	
6666	0	32380	
6667	0	32424	
6668	0	32452	
6669	0	32456	
6670	0	32476	
6671	0	32532	
6672	0	32588	
6673	0	32596	
6674	0	32624	
6675	0	32684	
6676	0	32744	
6677	0	32780	
6678	0	32784	
6679	0	32716	
6680	0	32724	
6681	0	32740	
6682	0	32724	
6683	0	32648	
6684	0	32540	
6685	0	32380	
6686	0	32290	
6687	0	32336	
6688	0	32516	
6689	0	32792	
6690	0	33176	
6691	0	33616	
6692	0	34096	
6693	0	34584	
6694	0	35068	
6695	0	35436	
6696	0	35744	
6697	0	36064	
6698	0	36544	
6699	0	37160	
6700	0	37872	
6701	0	38712	
6702	0	39656	
6703	0	40800	
6704	0	42080	
6705	0	43500	
6706	0	45016	
6707	0	46586	
6708	0	48264	
6709	0	49920	
6710	0	51400	
6711	0	52640	
6712	0	53712	
6713	0	54688	
6714	0	55724	
6715	0	56808	
6716	0	57720	
6717	0	58340	
6718	0	58400	
6719	0	57360	
6720	0	55128	
6721	0	52108	
6722	0	48608	
6723	0	44836	
6724	0	41176	
6725	0	37920	
6726	0	35300	
6727	0	33440	
6728	0	32184	
6729	0	31406	
6730	0	30912	
6731	0	30592	
6732	0	30372	
6733	0	30208	
6734	0	30100	
6735	0	30024	
6736	0	29884	
6737	0	29820	
6738	0	29872	
6739	0	29908	
6740	0	29888	
6741	0	29976	
6742	0	30104	
6743	0	30284	
6744	0	30480	
6745	0	30688	
6746	0	30868	
6747	0	31028	
6748	0	31160	
6749	0	31252	
6750	0	31316	
6751	0	31290	
6752	0	31216	
6753	0	31124	
6754	0	31072	
6755	0	31020	
6756	0	30924	
6757	0	30868	
6758	0	30864	
6759	0	30868	
6760	0	30876	
6761	0	30848	
6762	0	30804	
6763	0	30748	
6764	0	30696	
6765	0	30736	
6766	0	30832	
6767	0	30952	
6768	0	31056	
6769	0	31152	
6770	0	31176	
6771	0	31188	
6772	0	31208	
6773	0	31196	
6774	0	31152	
6775	0	31136	
6776	0	31104	
6777	0	31026	
6778	0	30932	
6779	0	30840	
6780	0	30784	
6781	0	30760	
6782	0	30756	
6783	0	30800	
6784	0	30816	
6785	0	30860	
6786	0	30904	
6787	0	30952	
6788	0	31028	
6789	0	31096	
6790	0	31144	
6791	0	31216	
6792	0	31272	
6793	0	31348	
6794	0	31412	
6795	0	31448	
6796	0	31480	
6797	0	31560	
6798	0	31652	
6799	0	31692	
6800	0	31732	
6801	0	31792	
6802	0	31844	
6803	0	31876	
6804	0	31852	
6805	0	31804	
6806	0	31752	
6807	0	31728	
6808	0	31728	
6809	0	31738	
6810	0	31762	
6811	0	31772	
6812	0	31752	
6813	0	31752	
6814	0	31732	
6815	0	31748	
6816	0	31708	
6817	0	31616	
6818	0	31528	
6819	0	31432	
6820	0	31384	
6821	0	31424	
6822	0	31500	
6823	0	31544	
6824	0	31538	
6825	0	31468	
6826	0	31396	
6827	0	31344	
6828	0	31368	
6829	0	31440	
6830	0	31540	
6831	0	31648	
6832	0	31768	
6833	0	31812	
6834	0	31840	
6835	0	31888	
6836	0	31960	
6837	0	32124	
6838	0	32292	
6839	0	32400	
6840	0	32484	
6841	0	32484	
6842	0	32448	
6843	0	32432	
6844	0	32400	
6845	0	32340	
6846	0	32336	
6847	0	32388	
6848	0	32428	
6849	0	32444	
6850	0	32488	
6851	0	32512	
6852	0	32510	
6853	0	32540	
6854	0	32600	
6855	0	32650	
6856	0	32680	
6857	0	32712	
6858	0	32724	
6859	0	32716	
6860	0	32648	
6861	0	32596	
6862	0	32624	
6863	0	32730	
6864	0	32836	
6865	0	32948	
6866	0	33008	
6867	0	33044	
6868	0	33020	
6869	0	32944	
6870	0	32840	
6871	0	32776	
6872	0	32704	
6873	0	32600	
6874	0	32584	
6875	0	32608	
6876	0	32648	
6877	0	32664	
6878	0	32696	
6879	0	32740	
6880	0	32788	
6881	0	32876	
6882	0	32968	
6883	0	33072	
6884	0	33172	
6885	0	33284	
6886	0	33376	
6887	0	33388	
6888	0	33380	
6889	0	33356	
6890	0	33316	
6891	0	33324	
6892	0	33392	
6893	0	33440	
6894	0	33448	
6895	0	33416	
6896	0	33316	
6897	0	33232	
6898	0	33224	
6899	0	33196	
6900	0	33128	
6901	0	33064	
6902	0	33056	
6903	0	33108	
6904	0	33096	
6905	0	33036	
6906	0	33004	
6907	0	33024	
6908	0	33112	
6909	0	33200	
6910	0	33248	
6911	0	33280	
6912	0	33296	
6913	0	33296	
6914	0	33324	
6915	0	33344	
6916	0	33312	
6917	0	33274	
6918	0	33328	
6919	0	33376	
6920	0	33420	
6921	0	33444	
6922	0	33472	
6923	0	33508	
6924	0	33572	
6925	0	33616	
6926	0	33648	
6927	0	33692	
6928	0	33752	
6929	0	33788	
6930	0	33812	
6931	0	33848	
6932	0	33896	
6933	0	33964	
6934	0	33980	
6935	0	33984	
6936	0	34012	
6937	0	34072	
6938	0	34128	
6939	0	34180	
6940	0	34208	
6941	0	34208	
6942	0	34208	
6943	0	34248	
6944	0	34312	
6945	0	34420	
6946	0	34484	
6947	0	34512	
6948	0	34548	
6949	0	34668	
6950	0	34776	
6951	0	34884	
6952	0	34924	
6953	0	34890	
6954	0	34840	
6955	0	34824	
6956	0	34824	
6957	0	34784	
6958	0	34724	
6959	0	34696	
6960	0	34740	
6961	0	34800	
6962	0	34792	
6963	0	34764	
6964	0	34760	
6965	0	34788	
6966	0	34800	
6967	0	34768	
6968	0	34732	
6969	0	34712	
6970	0	34724	
6971	0	34740	
6972	0	34732	
6973	0	34696	
6974	0	34636	
6975	0	34628	
6976	0	34636	
6977	0	34704	
6978	0	34780	
6979	0	34808	
6980	0	34828	
6981	0	34868	
6982	0	34928	
6983	0	35000	
6984	0	35032	
6985	0	35068	
6986	0	35100	
6987	0	35068	
6988	0	34984	
6989	0	34872	
6990	0	34784	
6991	0	34652	
6992	0	34580	
6993	0	34540	
6994	0	34468	
6995	0	34376	
6996	0	34320	
6997	0	34248	
6998	0	34200	
6999	0	34128	
7000	0	34032	
7001	0	33930	
7002	0	33828	
7003	0	33696	
7004	0	33584	
7005	0	33466	
7006	0	33364	
7007	0	33208	
7008	0	33040	
7009	0	32864	
7010	0	32744	
7011	0	32656	
7012	0	32632	
7013	0	32632	
7014	0	32644	
7015	0	32640	
7016	0	32680	
7017	0	32732	
7018	0	32712	
7019	0	32616	
7020	0	32436	
7021	0	32200	
7022	0	32004	
7023	0	31788	
7024	0	31552	
7025	0	31308	
7026	0	31144	
7027	0	31034	
7028	0	30960	
7029	0	30880	
7030	0	30808	
7031	0	30664	
7032	0	30540	
7033	0	30428	
7034	0	30328	
7035	0	30308	
7036	0	30276	
7037	0	30296	
7038	0	30360	
7039	0	30368	
7040	0	30330	
7041	0	30316	
7042	0	30280	
7043	0	30204	
7044	0	30112	
7045	0	30016	
7046	0	29916	
7047	0	29828	
7048	0	29760	
7049	0	29692	
7050	0	29632	
7051	0	29568	
7052	0	29572	
7053	0	29586	
7054	0	29556	
7055	0	29488	
7056	0	29464	
7057	0	29508	
7058	0	29584	
7059	0	29620	
7060	0	29660	
7061	0	29712	
7062	0	29752	
7063	0	29796	
7064	0	29800	
7065	0	29776	
7066	0	29728	
7067	0	29708	
7068	0	29738	
7069	0	29728	
7070	0	29704	
7071	0	29688	
7072	0	29704	
7073	0	29712	
7074	0	29720	
7075	0	29700	
7076	0	29688	
7077	0	29684	
7078	0	29688	
7079	0	29792	
7080	0	29888	
7081	0	29986	
7082	0	30008	
7083	0	29972	
7084	0	29884	
7085	0	29876	
7086	0	29916	
7087	0	30014	
7088	0	30144	
7089	0	30312	
7090	0	30436	
7091	0	30532	
7092	0	30592	
7093	0	30568	
7094	0	30508	
7095	0	30420	
7096	0	30308	
7097	0	30164	
7098	0	30066	
7099	0	30056	
7100	0	30086	
7101	0	30080	
7102	0	30056	
7103	0	30060	
7104	0	30080	
7105	0	30112	
7106	0	30136	
7107	0	30156	
7108	0	30172	
7109	0	30192	
7110	0	30252	
7111	0	30316	
7112	0	30424	
7113	0	30556	
7114	0	30688	
7115	0	30764	
7116	0	30860	
7117	0	30904	
7118	0	30936	
7119	0	30992	
7120	0	30992	
7121	0	30940	
7122	0	30882	
7123	0	30848	
7124	0	30848	
7125	0	30866	
7126	0	30892	
7127	0	30936	
7128	0	31040	
7129	0	31116	
7130	0	31112	
7131	0	31088	
7132	0	31108	
7133	0	31116	
7134	0	31140	
7135	0	31164	
7136	0	31128	
7137	0	31112	
7138	0	31120	
7139	0	31160	
7140	0	31228	
7141	0	31288	
7142	0	31426	
7143	0	31544	
7144	0	31584	
7145	0	31596	
7146	0	31580	
7147	0	31480	
7148	0	31340	
7149	0	31280	
7150	0	31256	
7151	0	31216	
7152	0	31144	
7153	0	31140	
7154	0	31150	
7155	0	31176	
7156	0	31156	
7157	0	31116	
7158	0	31174	
7159	0	31264	
7160	0	31380	
7161	0	31456	
7162	0	31512	
7163	0	31588	
7164	0	31648	
7165	0	31680	
7166	0	31704	
7167	0	31752	
7168	0	31868	
7169	0	31976	
7170	0	31952	
7171	0	31812	
7172	0	31704	
7173	0	31668	
7174	0	31560	
7175	0	31432	
7176	0	31304	
7177	0	31194	
7178	0	31120	
7179	0	31076	
7180	0	31088	
7181	0	31132	
7182	0	31164	
7183	0	31190	
7184	0	31204	
7185	0	31228	
7186	0	31256	
7187	0	31256	
7188	0	31304	
7189	0	31336	
7190	0	31356	
7191	0	31366	
7192	0	31436	
7193	0	31496	
7194	0	31538	
7195	0	31624	
7196	0	31608	
7197	0	31600	
7198	0	31640	
7199	0	31704	
7200	0	31732	
7201	0	31740	
7202	0	31724	
7203	0	31706	
7204	0	31712	
7205	0	31676	
7206	0	31616	
7207	0	31556	
7208	0	31472	
7209	0	31396	
7210	0	31340	
7211	0	31340	
7212	0	31316	
7213	0	31312	
7214	0	31348	
7215	0	31396	
7216	0	31432	
7217	0	31488	
7218	0	31572	
7219	0	31668	
7220	0	31681	
7221	0	31652	
7222	0	31624	
7223	0	31576	
7224	0	31560	
7225	0	31592	
7226	0	31620	
7227	0	31624	
7228	0	31648	
7229	0	31692	
7230	0	31752	
7231	0	31766	
7232	0	31744	
7233	0	31720	
7234	0	31724	
7235	0	31748	
7236	0	31752	
7237	0	31780	
7238	0	31818	
7239	0	31788	
7240	0	31728	
7241	0	31692	
7242	0	31684	
7243	0	31768	
7244	0	31880	
7245	0	31980	
7246	0	32024	
7247	0	31992	
7248	0	31824	
7249	0	31676	
7250	0	31588	
7251	0	31548	
7252	0	31532	
7253	0	31536	
7254	0	31556	
7255	0	31644	
7256	0	31776	
7257	0	31892	
7258	0	31952	
7259	0	31956	
7260	0	31938	
7261	0	31912	
7262	0	31862	
7263	0	31808	
7264	0	31776	
7265	0	31690	
7266	0	31700	
7267	0	31762	
7268	0	31792	
7269	0	31798	
7270	0	31832	
7271	0	31876	
7272	0	31892	
7273	0	31848	
7274	0	31816	
7275	0	31836	
7276	0	31876	
7277	0	31900	
7278	0	31912	
7279	0	31940	
7280	0	32004	
7281	0	32080	
7282	0	32096	
7283	0	32060	
7284	0	32056	
7285	0	32064	
7286	0	32092	
7287	0	32188	
7288	0	32272	
7289	0	32360	
7290	0	32404	
7291	0	32440	
7292	0	32456	
7293	0	32428	
7294	0	32380	
7295	0	32394	
7296	0	32480	
7297	0	32580	
7298	0	32680	
7299	0	32720	
7300	0	32752	
7301	0	32812	
7302	0	32804	
7303	0	32726	
7304	0	32616	
7305	0	32496	
7306	0	32360	
7307	0	32188	
7308	0	32074	
7309	0	31996	
7310	0	31948	
7311	0	31928	
7312	0	31952	
7313	0	31960	
7314	0	31952	
7315	0	31900	
7316	0	31860	
7317	0	31782	
7318	0	31716	
7319	0	31684	
7320	0	31704	
7321	0	31788	
7322	0	31836	
7323	0	31816	
7324	0	31820	
7325	0	31826	
7326	0	31888	
7327	0	31968	
7328	0	32018	
7329	0	32088	
7330	0	32100	
7331	0	32120	
7332	0	32196	
7333	0	32296	
7334	0	32332	
7335	0	32378	
7336	0	32388	
7337	0	32368	
7338	0	32338	
7339	0	32428	
7340	0	32488	
7341	0	32520	
7342	0	32570	
7343	0	32640	
7344	0	32696	
7345	0	32720	
7346	0	32684	
7347	0	32592	
7348	0	32452	
7349	0	32340	
7350	0	32296	
7351	0	32292	
7352	0	32344	
7353	0	32372	
7354	0	32376	
7355	0	32364	
7356	0	32324	
7357	0	32320	
7358	0	32338	
7359	0	32368	
7360	0	32380	
7361	0	32360	
7362	0	32376	
7363	0	32432	
7364	0	32444	
7365	0	32368	
7366	0	32360	
7367	0	32392	
7368	0	32430	
7369	0	32472	
7370	0	32532	
7371	0	32664	
7372	0	32812	
7373	0	32944	
7374	0	33096	
7375	0	33220	
7376	0	33260	
7377	0	33200	
7378	0	33068	
7379	0	32836	
7380	0	32632	
7381	0	32450	
7382	0	32336	
7383	0	32316	
7384	0	32312	
7385	0	32364	
7386	0	32432	
7387	0	32496	
7388	0	32560	
7389	0	32552	
7390	0	32556	
7391	0	32660	
7392	0	32884	
7393	0	33112	
7394	0	33332	
7395	0	33504	
7396	0	33632	
7397	0	33628	
7398	0	33564	
7399	0	33556	
7400	0	33568	
7401	0	33608	
7402	0	33658	
7403	0	33700	
7404	0	33780	
7405	0	33824	
7406	0	33868	
7407	0	33976	
7408	0	34088	
7409	0	34132	
7410	0	34146	
7411	0	34168	
7412	0	34152	
7413	0	34104	
7414	0	34064	
7415	0	34032	
7416	0	33960	
7417	0	33864	
7418	0	33820	
7419	0	33698	
7420	0	33536	
7421	0	33416	
7422	0	33360	
7423	0	33340	
7424	0	33308	
7425	0	33216	
7426	0	33100	
7427	0	33088	
7428	0	33060	
7429	0	33048	
7430	0	33074	
7431	0	33084	
7432	0	33064	
7433	0	33032	
7434	0	33016	
7435	0	32976	
7436	0	33000	
7437	0	33080	
7438	0	33190	
7439	0	33304	
7440	0	33416	
7441	0	33466	
7442	0	33436	
7443	0	33312	
7444	0	33160	
7445	0	33008	
7446	0	32824	
7447	0	32644	
7448	0	32532	
7449	0	32444	
7450	0	32356	
7451	0	32282	
7452	0	32232	
7453	0	32194	
7454	0	32184	
7455	0	32184	
7456	0	32164	
7457	0	32160	
7458	0	32176	
7459	0	32130	
7460	0	32100	
7461	0	32144	
7462	0	32200	
7463	0	32264	
7464	0	32328	
7465	0	32376	
7466	0	32372	
7467	0	32372	
7468	0	32352	
7469	0	32344	
7470	0	32304	
7471	0	32340	
7472	0	32432	
7473	0	32488	
7474	0	32488	
7475	0	32472	
7476	0	32420	
7477	0	32368	
7478	0	32304	
7479	0	32248	
7480	0	32196	
7481	0	32124	
7482	0	32120	
7483	0	32144	
7484	0	32124	
7485	0	32096	
7486	0	32128	
7487	0	32228	
7488	0	32288	
7489	0	32250	
7490	0	32188	
7491	0	32200	
7492	0	32248	
7493	0	32320	
7494	0	32368	
7495	0	32416	
7496	0	32474	
7497	0	32544	
7498	0	32620	
7499	0	32692	
7500	0	32720	
7501	0	32744	
7502	0	32716	
7503	0	32654	
7504	0	32500	
7505	0	32334	
7506	0	32246	
7507	0	32224	
7508	0	32224	
7509	0	32280	
7510	0	32444	
7511	0	32588	
7512	0	32684	
7513	0	32780	
7514	0	32808	
7515	0	32800	
7516	0	32776	
7517	0	32788	
7518	0	32760	
7519	0	32732	
7520	0	32704	
7521	0	32620	
7522	0	32528	
7523	0	32508	
7524	0	32548	
7525	0	32584	
7526	0	32604	
7527	0	32652	
7528	0	32668	
7529	0	32658	
7530	0	32680	
7531	0	32720	
7532	0	32704	
7533	0	32684	
7534	0	32692	
7535	0	32716	
7536	0	32720	
7537	0	32832	
7538	0	33048	
7539	0	33352	
7540	0	33584	
7541	0	33784	
7542	0	34072	
7543	0	34352	
7544	0	34572	
7545	0	34640	
7546	0	34736	
7547	0	34940	
7548	0	35264	
7549	0	35888	
7550	0	36684	
7551	0	37648	
7552	0	38760	
7553	0	39956	
7554	0	41380	
7555	0	42968	
7556	0	44652	
7557	0	46464	
7558	0	48296	
7559	0	50144	
7560	0	51964	
7561	0	53640	
7562	0	55136	
7563	0	56392	
7564	0	57528	
7565	0	58712	
7566	0	59896	
7567	0	60832	
7568	0	61176	
7569	0	60564	
7570	0	58848	
7571	0	56072	
7572	0	52512	
7573	0	48480	
7574	0	44366	
7575	0	40464	
7576	0	37016	
7577	0	34284	
7578	0	32312	
7579	0	30980	
7580	0	30084	
7581	0	29476	
7582	0	29114	
7583	0	28936	
7584	0	28908	
7585	0	28964	
7586	0	29105	
7587	0	29312	
7588	0	29504	
7589	0	29680	
7590	0	29840	
7591	0	29988	
7592	0	30104	
7593	0	30244	
7594	0	30428	
7595	0	30616	
7596	0	30800	
7597	0	30960	
7598	0	31056	
7599	0	31072	
7600	0	31072	
7601	0	31116	
7602	0	31172	
7603	0	31256	
7604	0	31260	
7605	0	31200	
7606	0	31092	
7607	0	30972	
7608	0	30892	
7609	0	30856	
7610	0	30808	
7611	0	30816	
7612	0	30816	
7613	0	30848	
7614	0	30892	
7615	0	30868	
7616	0	30800	
7617	0	30740	
7618	0	30704	
7619	0	30704	
7620	0	30648	
7621	0	30564	
7622	0	30492	
7623	0	30476	
7624	0	30452	
7625	0	30496	
7626	0	30668	
7627	0	30864	
7628	0	31050	
7629	0	31248	
7630	0	31416	
7631	0	31536	
7632	0	31564	
7633	0	31492	
7634	0	31380	
7635	0	31224	
7636	0	31096	
7637	0	30956	
7638	0	30834	
7639	0	30768	
7640	0	30692	
7641	0	30624	
7642	0	30636	
7643	0	30736	
7644	0	30828	
7645	0	30924	
7646	0	31044	
7647	0	31204	
7648	0	31360	
7649	0	31476	
7650	0	31584	
7651	0	31676	
7652	0	31748	
7653	0	31792	
7654	0	31792	
7655	0	31760	
7656	0	31700	
7657	0	31704	
7658	0	31702	
7659	0	31716	
7660	0	31676	
7661	0	31592	
7662	0	31548	
7663	0	31546	
7664	0	31584	
7665	0	31628	
7666	0	31640	
7667	0	31724	
7668	0	31844	
7669	0	31930	
7670	0	31976	
7671	0	31968	
7672	0	31968	
7673	0	32016	
7674	0	32028	
7675	0	31980	
7676	0	31932	
7677	0	31944	
7678	0	31972	
7679	0	32008	
7680	0	32036	
7681	0	32076	
7682	0	32092	
7683	0	32124	
7684	0	32184	
7685	0	32224	
7686	0	32264	
7687	0	32312	
7688	0	32372	
7689	0	32474	
7690	0	32592	
7691	0	32676	
7692	0	32700	
7693	0	32658	
7694	0	32632	
7695	0	32688	
7696	0	32720	
7697	0	32628	
7698	0	32508	
7699	0	32428	
7700	0	32400	
7701	0	32396	
7702	0	32416	
7703	0	32476	
7704	0	32532	
7705	0	32570	
7706	0	32594	
7707	0	32608	
7708	0	32642	
7709	0	32648	
7710	0	32704	
7711	0	32792	
7712	0	32836	
7713	0	32820	
7714	0	32816	
7715	0	32792	
7716	0	32728	
7717	0	32672	
7718	0	32624	
7719	0	32612	
7720	0	32680	
7721	0	32808	
7722	0	32940	
7723	0	33036	
7724	0	33072	
7725	0	33048	
7726	0	33074	
7727	0	33108	
7728	0	33150	
7729	0	33146	
7730	0	33112	
7731	0	33056	
7732	0	33088	
7733	0	33142	
7734	0	33144	
7735	0	33152	
7736	0	33248	
7737	0	33376	
7738	0	33508	
7739	0	33600	
7740	0	33704	
7741	0	33828	
7742	0	33886	
7743	0	33950	
7744	0	33944	
7745	0	33872	
7746	0	33736	
7747	0	33642	
7748	0	33684	
7749	0	33712	
7750	0	33620	
7751	0	33556	
7752	0	33544	
7753	0	33498	
7754	0	33440	
7755	0	33364	
7756	0	33388	
7757	0	33432	
7758	0	33516	
7759	0	33632	
7760	0	33754	
7761	0	33840	
7762	0	33868	
7763	0	33928	
7764	0	34000	
7765	0	34072	
7766	0	34172	
7767	0	34252	
7768	0	34280	
7769	0	34308	
7770	0	34316	
7771	0	34360	
7772	0	34432	
7773	0	34420	
7774	0	34368	
7775	0	34348	
7776	0	34420	
7777	0	34528	
7778	0	34592	
7779	0	34592	
7780	0	34552	
7781	0	34544	
7782	0	34508	
7783	0	34456	
7784	0	34464	
7785	0	34512	
7786	0	34520	
7787	0	34560	
7788	0	34658	
7789	0	34760	
7790	0	34816	
7791	0	34840	
7792	0	34960	
7793	0	35084	
7794	0	35160	
7795	0	35220	
7796	0	35200	
7797	0	35104	
7798	0	34992	
7799	0	34964	
7800	0	34980	
7801	0	35026	
7802	0	35056	
7803	0	35076	
7804	0	35080	
7805	0	35084	
7806	0	35080	
7807	0	35080	
7808	0	35108	
7809	0	35204	
7810	0	35228	
7811	0	35280	
7812	0	35328	
7813	0	35386	
7814	0	35440	
7815	0	35488	
7816	0	35512	
7817	0	35514	
7818	0	35476	
7819	0	35428	
7820	0	35424	
7821	0	35488	
7822	0	35524	
7823	0	35584	
7824	0	35684	
7825	0	35720	
7826	0	35748	
7827	0	35728	
7828	0	35704	
7829	0	35668	
7830	0	35592	
7831	0	35484	
7832	0	35364	
7833	0	35200	
7834	0	35112	
7835	0	35032	
7836	0	34944	
7837	0	34862	
7838	0	34800	
7839	0	34712	
7840	0	34628	
7841	0	34552	
7842	0	34448	
7843	0	34400	
7844	0	34380	
7845	0	34352	
7846	0	34264	
7847	0	34184	
7848	0	34180	
7849	0	34168	
7850	0	34184	
7851	0	34118	
7852	0	33948	
7853	0	33804	
7854	0	33660	
7855	0	33428	
7856	0	33184	
7857	0	32984	
7858	0	32854	
7859	0	32744	
7860	0	32672	
7861	0	32592	
7862	0	32556	
7863	0	32568	
7864	0	32564	
7865	0	32476	
7866	0	32364	
7867	0	32212	
7868	0	32012	
7869	0	31712	
7870	0	31360	
7871	0	31056	
7872	0	30848	
7873	0	30708	
7874	0	30586	
7875	0	30424	
7876	0	30252	
7877	0	30168	
7878	0	30128	
7879	0	30080	
7880	0	30124	
7881	0	30192	
7882	0	30180	
7883	0	30168	
7884	0	30188	
7885	0	30244	
7886	0	30232	
7887	0	30160	
7888	0	30118	
7889	0	30062	
7890	0	29992	
7891	0	29940	
7892	0	29888	
7893	0	29836	
7894	0	29772	
7895	0	29792	
7896	0	29796	
7897	0	29784	
7898	0	29760	
7899	0	29728	
7900	0	29704	
7901	0	29716	
7902	0	29744	
7903	0	29748	
7904	0	29716	
7905	0	29736	
7906	0	29788	
7907	0	29836	
7908	0	29884	
7909	0	29960	
7910	0	29992	
7911	0	29986	
7912	0	29924	
7913	0	29840	
7914	0	29768	
7915	0	29636	
7916	0	29552	
7917	0	29532	
7918	0	29512	
7919	0	29500	
7920	0	29496	
7921	0	29488	
7922	0	29472	
7923	0	29556	
7924	0	29644	
7925	0	29712	
7926	0	29772	
7927	0	29840	
7928	0	29900	
7929	0	29988	
7930	0	30136	
7931	0	30248	
7932	0	30276	
7933	0	30268	
7934	0	30280	
7935	0	30296	
7936	0	30300	
7937	0	30300	
7938	0	30240	
7939	0	30216	
7940	0	30240	
7941	0	30308	
7942	0	30408	
7943	0	30496	
7944	0	30560	
7945	0	30576	
7946	0	30580	
7947	0	30596	
7948	0	30596	
7949	0	30576	
7950	0	30538	
7951	0	30492	
7952	0	30480	
7953	0	30528	
7954	0	30612	
7955	0	30652	
7956	0	30680	
7957	0	30728	
7958	0	30816	
7959	0	30864	
7960	0	30872	
7961	0	30888	
7962	0	30904	
7963	0	30944	
7964	0	30956	
7965	0	30906	
7966	0	30860	
7967	0	30884	
7968	0	30912	
7969	0	30862	
7970	0	30784	
7971	0	30754	
7972	0	30760	
7973	0	30816	
7974	0	30852	
7975	0	30872	
7976	0	30916	
7977	0	31008	
7978	0	31052	
7979	0	31056	
7980	0	31020	
7981	0	31026	
7982	0	31108	
7983	0	31176	
7984	0	31160	
7985	0	31124	
7986	0	31104	
7987	0	31108	
7988	0	31148	
7989	0	31164	
7990	0	31216	
7991	0	31296	
7992	0	31360	
7993	0	31376	
7994	0	31348	
7995	0	31316	
7996	0	31368	
7997	0	31436	
7998	0	31480	
7999	0	31480	
8000	0	31480	
8001	0	31560	
8002	0	31602	
8003	0	31596	
8004	0	31592	
8005	0	31532	
8006	0	31456	
8007	0	31408	
8008	0	31396	
8009	0	31438	
8010	0	31500	
8011	0	31596	
8012	0	31676	
8013	0	31704	
8014	0	31712	
8015	0	31720	
8016	0	31744	
8017	0	31780	
8018	0	31792	
8019	0	31800	
8020	0	31836	
8021	0	31848	
8022	0	31840	
8023	0	31840	
8024	0	31868	
8025	0	31888	
8026	0	31904	
8027	0	31936	
8028	0	31924	
8029	0	31900	
8030	0	31936	
8031	0	31976	
8032	0	32028	
8033	0	32120	
8034	0	32186	
8035	0	32216	
8036	0	32192	
8037	0	32124	
8038	0	32072	
8039	0	32096	
8040	0	32058	
8041	0	31974	
8042	0	31832	
8043	0	31704	
8044	0	31628	
8045	0	31614	
8046	0	31642	
8047	0	31732	
8048	0	31820	
8049	0	31888	
8050	0	31976	
8051	0	32036	
8052	0	32064	
8053	0	31992	
8054	0	31936	
8055	0	31916	
8056	0	31916	
8057	0	31904	
8058	0	31848	
8059	0	31802	
8060	0	31808	
8061	0	31804	
8062	0	31808	
8063	0	31824	
8064	0	31804	
8065	0	31832	
8066	0	31922	
8067	0	32044	
8068	0	32124	
8069	0	32192	
8070	0	32224	
8071	0	32272	
8072	0	32312	
8073	0	32296	
8074	0	32248	
8075	0	32220	
8076	0	32112	
8077	0	31986	
8078	0	31860	
8079	0	31768	
8080	0	31732	
8081	0	31784	
8082	0	31856	
8083	0	31924	
8084	0	31988	
8085	0	32000	
8086	0	32032	
8087	0	32032	
8088	0	32008	
8089	0	31972	
8090	0	31872	
8091	0	31854	
8092	0	31888	
8093	0	31944	
8094	0	31988	
8095	0	32024	
8096	0	32040	
8097	0	31960	
8098	0	31888	
8099	0	31864	
8100	0	31864	
8101	0	31882	
8102	0	31944	
8103	0	31960	
8104	0	31920	
8105	0	31908	
8106	0	31936	
8107	0	31992	
8108	0	32032	
8109	0	32008	
8110	0	32034	
8111	0	32120	
8112	0	32208	
8113	0	32304	
8114	0	32372	
8115	0	32372	
8116	0	32392	
8117	0	32452	
8118	0	32588	
8119	0	32700	
8120	0	32756	
8121	0	32760	
8122	0	32656	
8123	0	32492	
8124	0	32360	
8125	0	32220	
8126	0	32112	
8127	0	32056	
8128	0	32060	
8129	0	32124	
8130	0	32190	
8131	0	32264	
8132	0	32348	
8133	0	32392	
8134	0	32400	
8135	0	32384	
8136	0	32366	
8137	0	32388	
8138	0	32416	
8139	0	32428	
8140	0	32444	
8141	0	32432	
8142	0	32428	
8143	0	32448	
8144	0	32472	
8145	0	32476	
8146	0	32472	
8147	0	32504	
8148	0	32536	
8149	0	32548	
8150	0	32512	
8151	0	32480	
8152	0	32456	
8153	0	32442	
8154	0	32480	
8155	0	32484	
8156	0	32512	
8157	0	32512	
8158	0	32536	
8159	0	32588	
8160	0	32624	
8161	0	32600	
8162	0	32596	
8163	0	32620	
8164	0	32632	
8165	0	32668	
8166	0	32744	
8167	0	32800	
8168	0	32832	
8169	0	32896	
8170	0	33004	
8171	0	33096	
8172	0	33108	
8173	0	33108	
8174	0	33064	
8175	0	33032	
8176	0	32960	
8177	0	32882	
8178	0	32800	
8179	0	32688	
8180	0	32644	
8181	0	32680	
8182	0	32772	
8183	0	32844	
8184	0	32876	
8185	0	32828	
8186	0	32788	
8187	0	32752	
8188	0	32696	
8189	0	32684	
8190	0	32696	
8191	0	32674	
8192	0	32680	
8193	0	32664	
8194	0	32660	
8195	0	32660	
8196	0	32656	
8197	0	32656	
8198	0	32728	
8199	0	32894	
8200	0	33012	
8201	0	33092	
8202	0	33140	
8203	0	33164	
8204	0	33188	
8205	0	33220	
8206	0	33160	
8207	0	33066	
8208	0	33004	
8209	0	33016	
8210	0	33060	
8211	0	33048	
8212	0	32992	
8213	0	32940	
8214	0	32916	
8215	0	32896	
8216	0	32860	
8217	0	32880	
8218	0	32876	
8219	0	32852	
8220	0	32824	
8221	0	32788	
8222	0	32810	
8223	0	32876	
8224	0	32936	
8225	0	32964	
8226	0	32992	
8227	0	33000	
8228	0	33028	
8229	0	33068	
8230	0	33088	
8231	0	33072	
8232	0	33050	
8233	0	33056	
8234	0	33092	
8235	0	33132	
8236	0	33168	
8237	0	33160	
8238	0	33120	
8239	0	33068	
8240	0	33006	
8241	0	32924	
8242	0	32832	
8243	0	32832	
8244	0	32904	
8245	0	32996	
8246	0	33016	
8247	0	33028	
8248	0	33040	
8249	0	33052	
8250	0	33072	
8251	0	33080	
8252	0	33120	
8253	0	33096	
8254	0	33048	
8255	0	32992	
8256	0	32948	
8257	0	32936	
8258	0	32964	
8259	0	33028	
8260	0	33088	
8261	0	33132	
8262	0	33184	
8263	0	33264	
8264	0	33360	
8265	0	33456	
8266	0	33524	
8267	0	33552	
8268	0	33560	
8269	0	33548	
8270	0	33492	
8271	0	33420	
8272	0	33344	
8273	0	33208	
8274	0	33096	
8275	0	33008	
8276	0	32960	
8277	0	32986	
8278	0	33044	
8279	0	33052	
8280	0	33016	
8281	0	33016	
8282	0	32986	
8283	0	32960	
8284	0	33016	
8285	0	33064	
8286	0	33112	
8287	0	33160	
8288	0	33204	
8289	0	33236	
8290	0	33280	
8291	0	33296	
8292	0	33220	
8293	0	33160	
8294	0	33092	
8295	0	33056	
8296	0	33154	
8297	0	33248	
8298	0	33308	
8299	0	33396	
8300	0	33504	
8301	0	33636	
8302	0	33784	
8303	0	33880	
8304	0	33900	
8305	0	33976	
8306	0	34104	
8307	0	34188	
8308	0	34256	
8309	0	34288	
8310	0	34364	
8311	0	34468	
8312	0	34592	
8313	0	34692	
8314	0	34744	
8315	0	34776	
8316	0	34736	
8317	0	34656	
8318	0	34548	
8319	0	34420	
8320	0	34260	
8321	0	34096	
8322	0	33964	
8323	0	33888	
8324	0	33824	
8325	0	33768	
8326	0	33736	
8327	0	33664	
8328	0	33556	
8329	0	33380	
8330	0	33216	
8331	0	33160	
8332	0	33184	
8333	0	33268	
8334	0	33328	
8335	0	33336	
8336	0	33296	
8337	0	33328	
8338	0	33360	
8339	0	33376	
8340	0	33384	
8341	0	33460	
8342	0	33516	
8343	0	33536	
8344	0	33624	
8345	0	33704	
8346	0	33688	
8347	0	33636	
8348	0	33572	
8349	0	33468	
8350	0	33348	
8351	0	33212	
8352	0	33052	
8353	0	32940	
8354	0	32896	
8355	0	32932	
8356	0	32914	
8357	0	32880	
8358	0	32848	
8359	0	32800	
8360	0	32756	
8361	0	32780	
8362	0	32844	
8363	0	32876	
8364	0	32890	
8365	0	32886	
8366	0	32812	
8367	0	32688	
8368	0	32608	
8369	0	32572	
8370	0	32576	
8371	0	32600	
8372	0	32658	
8373	0	32676	
8374	0	32688	
8375	0	32682	
8376	0	32656	
8377	0	32664	
8378	0	32688	
8379	0	32650	
8380	0	32590	
8381	0	32616	
8382	0	32668	
8383	0	32662	
8384	0	32592	
8385	0	32538	
8386	0	32544	
8387	0	32552	
8388	0	32560	
8389	0	32536	
8390	0	32484	
8391	0	32388	
8392	0	32328	
8393	0	32352	
8394	0	32410	
8395	0	32408	
8396	0	32408	
8397	0	32432	
8398	0	32460	
8399	0	32504	
8400	0	32536	
8401	0	32548	
8402	0	32492	
8403	0	32452	
8404	0	32412	
8405	0	32426	
8406	0	32464	
8407	0	32496	
8408	0	32532	
8409	0	32528	
8410	0	32572	
8411	0	32608	
8412	0	32640	
8413	0	32680	
8414	0	32736	
8415	0	32784	
8416	0	32844	
8417	0	32916	
8418	0	32928	
8419	0	32884	
8420	0	32864	
8421	0	32832	
8422	0	32762	
8423	0	32704	
8424	0	32664	
8425	0	32636	
8426	0	32640	
8427	0	32640	
8428	0	32666	
8429	0	32712	
8430	0	32748	
8431	0	32772	
8432	0	32820	
8433	0	32920	
8434	0	32936	
8435	0	32826	
8436	0	32672	
8437	0	32564	
8438	0	32488	
8439	0	32400	
8440	0	32368	
8441	0	32502	
8442	0	32828	
8443	0	33228	
8444	0	33640	
8445	0	34088	
8446	0	34536	
8447	0	34912	
8448	0	35160	
8449	0	35260	
8450	0	35380	
8451	0	35618	
8452	0	35984	
8453	0	36538	
8454	0	37248	
8455	0	38148	
8456	0	39216	
8457	0	40500	
8458	0	41936	
8459	0	43480	
8460	0	45080	
8461	0	46660	
8462	0	48352	
8463	0	50024	
8464	0	51584	
8465	0	52984	
8466	0	54184	
8467	0	55248	
8468	0	56320	
8469	0	57568	
8470	0	58670	
8471	0	59448	
8472	0	59576	
8473	0	58632	
8474	0	56360	
8475	0	53264	
8476	0	49636	
8477	0	45680	
8478	0	41784	
8479	0	38280	
8480	0	35456	
8481	0	33448	
8482	0	32092	
8483	0	31184	
8484	0	30644	
8485	0	30316	
8486	0	30080	
8487	0	29980	
8488	0	29932	
8489	0	29928	
8490	0	29972	
8491	0	30072	
8492	0	30164	
8493	0	30224	
8494	0	30260	
8495	0	30316	
8496	0	30436	
8497	0	30632	
8498	0	30804	
8499	0	30932	
8500	0	30948	
8501	0	30976	
8502	0	31072	
8503	0	31144	
8504	0	31184	
8505	0	31184	
8506	0	31172	
8507	0	31196	
8508	0	31132	
8509	0	31028	
8510	0	30912	
8511	0	30860	
8512	0	30872	
8513	0	30984	
8514	0	31136	
8515	0	31280	
8516	0	31336	
8517	0	31332	
8518	0	31338	
8519	0	31324	
8520	0	31228	
8521	0	31084	
8522	0	30924	
8523	0	30812	
8524	0	30728	
8525	0	30640	
8526	0	30564	
8527	0	30464	
8528	0	30416	
8529	0	30400	
8530	0	30400	
8531	0	30404	
8532	0	30432	
8533	0	30448	
8534	0	30464	
8535	0	30548	
8536	0	30620	
8537	0	30644	
8538	0	30650	
8539	0	30668	
8540	0	30696	
8541	0	30732	
8542	0	30776	
8543	0	30812	
8544	0	30852	
8545	0	30916	
8546	0	30936	
8547	0	30948	
8548	0	31024	
8549	0	31096	
8550	0	31168	
8551	0	31240	
8552	0	31296	
8553	0	31346	
8554	0	31356	
8555	0	31400	
8556	0	31400	
8557	0	31412	
8558	0	31480	
8559	0	31508	
8560	0	31520	
8561	0	31496	
8562	0	31508	
8563	0	31544	
8564	0	31584	
8565	0	31632	
8566	0	31636	
8567	0	31660	
8568	0	31720	
8569	0	31760	
8570	0	31788	
8571	0	31840	
8572	0	31864	
8573	0	31900	
8574	0	31956	
8575	0	32006	
8576	0	32056	
8577	0	32086	
8578	0	32120	
8579	0	32132	
8580	0	32096	
8581	0	32128	
8582	0	32188	
8583	0	32240	
8584	0	32324	
8585	0	32372	
8586	0	32308	
8587	0	32232	
8588	0	32200	
8589	0	32188	
8590	0	32168	
8591	0	32144	
8592	0	32144	
