# OpenSignals Text File Format. Version 1
# {"00:07:80:4B:15:F7": {"position": 0, "device": "biosignalsplux", "device name": "00:07:80:4B:15:F7", "device connection": "BTH00:07:80:4B:15:F7", "sampling rate": 1000, "resolution": [16], "firmware version": 775, "comments": "", "keywords": "", "mode": 0, "sync interval": 2, "date": "2023-4-11", "time": "15:43:50.773", "channels": [1], "sensor": ["ECG"], "label": ["CH1"], "column": ["nSeq", "DI", "CH1"], "special": [{"SpO2": [80, 40, 5, 4, 3, 3]}, {"SpO2": [80, 40, 5, 4, 3, 3]}, {"SpO2": [80, 40, 5, 4, 3, 3]}, {"SpO2": [80, 40, 5, 4, 3, 3]}, {"SpO2": [80, 40, 5, 4, 3, 3]}, {"SpO2": [80, 40, 5, 4, 3, 3]}, {"SpO2": [80, 40, 5, 4, 3, 3]}, {"SpO2": [80, 40, 5, 4, 3, 3]}], "digital IO": [0, 1], "sleeve color": ["green"], "convertedValues": 0}}
# EndOfHeader
0	0	33868	
1	0	33892	
2	0	33900	
3	0	33936	
4	0	33962	
5	0	34080	
6	0	34148	
7	0	34144	
8	0	34100	
9	0	33996	
10	0	33948	
11	0	33908	
12	0	33858	
13	0	33832	
14	0	33860	
15	0	33920	
16	0	34056	
17	0	34170	
18	0	34256	
19	0	34264	
20	0	34304	
21	0	34384	
22	0	34448	
23	0	34476	
24	0	34488	
25	0	34540	
26	0	34632	
27	0	34676	
28	0	34672	
29	0	34610	
30	0	34568	
31	0	34616	
32	0	34636	
33	0	34664	
34	0	34704	
35	0	34716	
36	0	34660	
37	0	34612	
38	0	34584	
39	0	34572	
40	0	34624	
41	0	34678	
42	0	34748	
43	0	34798	
44	0	34780	
45	0	34800	
46	0	34800	
47	0	34808	
48	0	34892	
49	0	34936	
50	0	34940	
51	0	34930	
52	0	34968	
53	0	35044	
54	0	35128	
55	0	35180	
56	0	35209	
57	0	35244	
58	0	35304	
59	0	35332	
60	0	35396	
61	0	35496	
62	0	35508	
63	0	35508	
64	0	35476	
65	0	35448	
66	0	35412	
67	0	35402	
68	0	35448	
69	0	35424	
70	0	35362	
71	0	35308	
72	0	35256	
73	0	35196	
74	0	35156	
75	0	35128	
76	0	35104	
77	0	35060	
78	0	34996	
79	0	34880	
80	0	34752	
81	0	34632	
82	0	34544	
83	0	34464	
84	0	34396	
85	0	34304	
86	0	34172	
87	0	34052	
88	0	33928	
89	0	33848	
90	0	33712	
91	0	33616	
92	0	33448	
93	0	33288	
94	0	33160	
95	0	33056	
96	0	33020	
97	0	32944	
98	0	32860	
99	0	32776	
100	0	32690	
101	0	32620	
102	0	32520	
103	0	32416	
104	0	32344	
105	0	32240	
106	0	32148	
107	0	32049	
108	0	31928	
109	0	31800	
110	0	31688	
111	0	31528	
112	0	31412	
113	0	31288	
114	0	31160	
115	0	31056	
116	0	30948	
117	0	30840	
118	0	30720	
119	0	30668	
120	0	30640	
121	0	30620	
122	0	30600	
123	0	30600	
124	0	30580	
125	0	30516	
126	0	30456	
127	0	30444	
128	0	30420	
129	0	30362	
130	0	30360	
131	0	30344	
132	0	30310	
133	0	30248	
134	0	30154	
135	0	30168	
136	0	30214	
137	0	30196	
138	0	30200	
139	0	30168	
140	0	30124	
141	0	30080	
142	0	30036	
143	0	30020	
144	0	30010	
145	0	29984	
146	0	29952	
147	0	29960	
148	0	30000	
149	0	30036	
150	0	30068	
151	0	30072	
152	0	30056	
153	0	30032	
154	0	30048	
155	0	30088	
156	0	30144	
157	0	30184	
158	0	30212	
159	0	30240	
160	0	30256	
161	0	30280	
162	0	30280	
163	0	30308	
164	0	30324	
165	0	30328	
166	0	30288	
167	0	30292	
168	0	30296	
169	0	30284	
170	0	30304	
171	0	30336	
172	0	30382	
173	0	30396	
174	0	30408	
175	0	30424	
176	0	30500	
177	0	30548	
178	0	30574	
179	0	30584	
180	0	30584	
181	0	30522	
182	0	30524	
183	0	30544	
184	0	30572	
185	0	30624	
186	0	30664	
187	0	30716	
188	0	30746	
189	0	30756	
190	0	30784	
191	0	30880	
192	0	30932	
193	0	30960	
194	0	30956	
195	0	30960	
196	0	30968	
197	0	30952	
198	0	30984	
199	0	30994	
200	0	30996	
201	0	30996	
202	0	31036	
203	0	31108	
204	0	31156	
205	0	31184	
206	0	31212	
207	0	31236	
208	0	31256	
209	0	31260	
210	0	31296	
211	0	31332	
212	0	31336	
213	0	31372	
214	0	31328	
215	0	31260	
216	0	31248	
217	0	31258	
218	0	31212	
219	0	31104	
220	0	31022	
221	0	30984	
222	0	30992	
223	0	31076	
224	0	31160	
225	0	31164	
226	0	31164	
227	0	31212	
228	0	31322	
229	0	31360	
230	0	31356	
231	0	31332	
232	0	31340	
233	0	31364	
234	0	31412	
235	0	31452	
236	0	31496	
237	0	31496	
238	0	31472	
239	0	31488	
240	0	31532	
241	0	31588	
242	0	31652	
243	0	31632	
244	0	31576	
245	0	31576	
246	0	31618	
247	0	31686	
248	0	31764	
249	0	31808	
250	0	31816	
251	0	31844	
252	0	31864	
253	0	31840	
254	0	31848	
255	0	31824	
256	0	31728	
257	0	31678	
258	0	31648	
259	0	31652	
260	0	31632	
261	0	31564	
262	0	31508	
263	0	31516	
264	0	31530	
265	0	31500	
266	0	31440	
267	0	31452	
268	0	31488	
269	0	31496	
270	0	31476	
271	0	31508	
272	0	31552	
273	0	31628	
274	0	31676	
275	0	31688	
276	0	31712	
277	0	31692	
278	0	31676	
279	0	31712	
280	0	31720	
281	0	31724	
282	0	31764	
283	0	31844	
284	0	31832	
285	0	31776	
286	0	31696	
287	0	31692	
288	0	31748	
289	0	31740	
290	0	31722	
291	0	31720	
292	0	31700	
293	0	31680	
294	0	31680	
295	0	31700	
296	0	31728	
297	0	31770	
298	0	31824	
299	0	31848	
300	0	31860	
301	0	31892	
302	0	31936	
303	0	31948	
304	0	31924	
305	0	31888	
306	0	31798	
307	0	31732	
308	0	31740	
309	0	31804	
310	0	31852	
311	0	31840	
312	0	31792	
313	0	31740	
314	0	31752	
315	0	31792	
316	0	31764	
317	0	31716	
318	0	31712	
319	0	31708	
320	0	31724	
321	0	31768	
322	0	31824	
323	0	31824	
324	0	31760	
325	0	31796	
326	0	31870	
327	0	31936	
328	0	31944	
329	0	31984	
330	0	32036	
331	0	32080	
332	0	32108	
333	0	32120	
334	0	32096	
335	0	32088	
336	0	32112	
337	0	32124	
338	0	32128	
339	0	32132	
340	0	32120	
341	0	32068	
342	0	32016	
343	0	32032	
344	0	32080	
345	0	32164	
346	0	32192	
347	0	32136	
348	0	32084	
349	0	32092	
350	0	32132	
351	0	32156	
352	0	32096	
353	0	32032	
354	0	31996	
355	0	31976	
356	0	31964	
357	0	31952	
358	0	31992	
359	0	32036	
360	0	31972	
361	0	31936	
362	0	31960	
363	0	31964	
364	0	32072	
365	0	32154	
366	0	32176	
367	0	32152	
368	0	32120	
369	0	32100	
370	0	32120	
371	0	32156	
372	0	32244	
373	0	32320	
374	0	32332	
375	0	32304	
376	0	32288	
377	0	32288	
378	0	32316	
379	0	32392	
380	0	32472	
381	0	32422	
382	0	32344	
383	0	32288	
384	0	32264	
385	0	32256	
386	0	32232	
387	0	32200	
388	0	32164	
389	0	32132	
390	0	32136	
391	0	32136	
392	0	32088	
393	0	32084	
394	0	32064	
395	0	32064	
396	0	32092	
397	0	32096	
398	0	32080	
399	0	32092	
400	0	32122	
401	0	32168	
402	0	32144	
403	0	32104	
404	0	32032	
405	0	32032	
406	0	32068	
407	0	32140	
408	0	32288	
409	0	32396	
410	0	32468	
411	0	32524	
412	0	32564	
413	0	32548	
414	0	32480	
415	0	32442	
416	0	32444	
417	0	32440	
418	0	32444	
419	0	32472	
420	0	32496	
421	0	32528	
422	0	32544	
423	0	32526	
424	0	32536	
425	0	32532	
426	0	32565	
427	0	32604	
428	0	32628	
429	0	32624	
430	0	32656	
431	0	32666	
432	0	32668	
433	0	32684	
434	0	32688	
435	0	32676	
436	0	32624	
437	0	32564	
438	0	32528	
439	0	32524	
440	0	32530	
441	0	32586	
442	0	32668	
443	0	32724	
444	0	32752	
445	0	32780	
446	0	32832	
447	0	32864	
448	0	32906	
449	0	32980	
450	0	32964	
451	0	32940	
452	0	32944	
453	0	32964	
454	0	32900	
455	0	32836	
456	0	32808	
457	0	32792	
458	0	32828	
459	0	32936	
460	0	32996	
461	0	33000	
462	0	32992	
463	0	32928	
464	0	32864	
465	0	32852	
466	0	32884	
467	0	32992	
468	0	33144	
469	0	33276	
470	0	33400	
471	0	33512	
472	0	33568	
473	0	33600	
474	0	33676	
475	0	33800	
476	0	33936	
477	0	34040	
478	0	34112	
479	0	34240	
480	0	34336	
481	0	34384	
482	0	34428	
483	0	34496	
484	0	34476	
485	0	34452	
486	0	34428	
487	0	34392	
488	0	34292	
489	0	34208	
490	0	34144	
491	0	34060	
492	0	33992	
493	0	33948	
494	0	33880	
495	0	33762	
496	0	33668	
497	0	33588	
498	0	33508	
499	0	33448	
500	0	33392	
501	0	33314	
502	0	33220	
503	0	33148	
504	0	33136	
505	0	33172	
506	0	33208	
507	0	33184	
508	0	33148	
509	0	33132	
510	0	33092	
511	0	33024	
512	0	32940	
513	0	32912	
514	0	32940	
515	0	32986	
516	0	33012	
517	0	33036	
518	0	32996	
519	0	32944	
520	0	32922	
521	0	32872	
522	0	32880	
523	0	32876	
524	0	32834	
525	0	32792	
526	0	32764	
527	0	32748	
528	0	32712	
529	0	32634	
530	0	32552	
531	0	32484	
532	0	32440	
533	0	32404	
534	0	32380	
535	0	32404	
536	0	32420	
537	0	32396	
538	0	32340	
539	0	32280	
540	0	32202	
541	0	32148	
542	0	32144	
543	0	32180	
544	0	32196	
545	0	32168	
546	0	32144	
547	0	32096	
548	0	32088	
549	0	32088	
550	0	32076	
551	0	32048	
552	0	32016	
553	0	32032	
554	0	32044	
555	0	32028	
556	0	32016	
557	0	32056	
558	0	32172	
559	0	32232	
560	0	32248	
561	0	32252	
562	0	32280	
563	0	32364	
564	0	32384	
565	0	32440	
566	0	32488	
567	0	32484	
568	0	32496	
569	0	32504	
570	0	32544	
571	0	32552	
572	0	32542	
573	0	32456	
574	0	32392	
575	0	32344	
576	0	32336	
577	0	32336	
578	0	32320	
579	0	32308	
580	0	32316	
581	0	32320	
582	0	32324	
583	0	32352	
584	0	32384	
585	0	32372	
586	0	32396	
587	0	32396	
588	0	32356	
589	0	32324	
590	0	32314	
591	0	32296	
592	0	32320	
593	0	32364	
594	0	32384	
595	0	32364	
596	0	32368	
597	0	32426	
598	0	32488	
599	0	32532	
600	0	32564	
601	0	32610	
602	0	32676	
603	0	32760	
604	0	32804	
605	0	32832	
606	0	32836	
607	0	32824	
608	0	32792	
609	0	32692	
610	0	32544	
611	0	32392	
612	0	32280	
613	0	32212	
614	0	32226	
615	0	32376	
616	0	32612	
617	0	32880	
618	0	33252	
619	0	33656	
620	0	34048	
621	0	34396	
622	0	34652	
623	0	34864	
624	0	35132	
625	0	35576	
626	0	36304	
627	0	37144	
628	0	38128	
629	0	39192	
630	0	40432	
631	0	41740	
632	0	43108	
633	0	44496	
634	0	45932	
635	0	47376	
636	0	48768	
637	0	50084	
638	0	51244	
639	0	52280	
640	0	53236	
641	0	54304	
642	0	55508	
643	0	56496	
644	0	57136	
645	0	57016	
646	0	55672	
647	0	53184	
648	0	49952	
649	0	46304	
650	0	42488	
651	0	38908	
652	0	35856	
653	0	33520	
654	0	31936	
655	0	30936	
656	0	30392	
657	0	30124	
658	0	30036	
659	0	30060	
660	0	30080	
661	0	30084	
662	0	30056	
663	0	30036	
664	0	30100	
665	0	30252	
666	0	30352	
667	0	30388	
668	0	30480	
669	0	30592	
670	0	30784	
671	0	31040	
672	0	31216	
673	0	31300	
674	0	31328	
675	0	31340	
676	0	31324	
677	0	31292	
678	0	31240	
679	0	31200	
680	0	31176	
681	0	31180	
682	0	31212	
683	0	31188	
684	0	31164	
685	0	31160	
686	0	31120	
687	0	31124	
688	0	31138	
689	0	31160	
690	0	31172	
691	0	31168	
692	0	31152	
693	0	31096	
694	0	31072	
695	0	31068	
696	0	31060	
697	0	31060	
698	0	31096	
699	0	31128	
700	0	31120	
701	0	31136	
702	0	31120	
703	0	31116	
704	0	31092	
705	0	31116	
706	0	31168	
707	0	31204	
708	0	31232	
709	0	31252	
710	0	31264	
711	0	31288	
712	0	31328	
713	0	31344	
714	0	31364	
715	0	31364	
716	0	31368	
717	0	31408	
718	0	31432	
719	0	31446	
720	0	31476	
721	0	31552	
722	0	31604	
723	0	31680	
724	0	31764	
725	0	31808	
726	0	31824	
727	0	31860	
728	0	31900	
729	0	31964	
730	0	31984	
731	0	31960	
732	0	31936	
733	0	31956	
734	0	31984	
735	0	31988	
736	0	31964	
737	0	31944	
738	0	31952	
739	0	32012	
740	0	32092	
741	0	32120	
742	0	32152	
743	0	32154	
744	0	32188	
745	0	32188	
746	0	32172	
747	0	32212	
748	0	32196	
749	0	32180	
750	0	32184	
751	0	32196	
752	0	32196	
753	0	32228	
754	0	32312	
755	0	32404	
756	0	32492	
757	0	32542	
758	0	32592	
759	0	32628	
760	0	32644	
761	0	32664	
762	0	32640	
763	0	32560	
764	0	32580	
765	0	32572	
766	0	32580	
767	0	32584	
768	0	32608	
769	0	32612	
770	0	32612	
771	0	32608	
772	0	32584	
773	0	32648	
774	0	32740	
775	0	32816	
776	0	32820	
777	0	32800	
778	0	32804	
779	0	32864	
780	0	32908	
781	0	32900	
782	0	32856	
783	0	32840	
784	0	32888	
785	0	32976	
786	0	33052	
787	0	33092	
788	0	33100	
789	0	33120	
790	0	33116	
791	0	33128	
792	0	33120	
793	0	33121	
794	0	33088	
795	0	33108	
796	0	33176	
797	0	33216	
798	0	33258	
799	0	33296	
800	0	33340	
801	0	33416	
802	0	33472	
803	0	33500	
804	0	33484	
805	0	33448	
806	0	33418	
807	0	33376	
808	0	33328	
809	0	33348	
810	0	33342	
811	0	33312	
812	0	33298	
813	0	33312	
814	0	33348	
815	0	33352	
816	0	33370	
817	0	33364	
818	0	33340	
819	0	33340	
820	0	33372	
821	0	33424	
822	0	33412	
823	0	33468	
824	0	33524	
825	0	33568	
826	0	33612	
827	0	33644	
828	0	33684	
829	0	33736	
830	0	33748	
831	0	33720	
832	0	33684	
833	0	33664	
834	0	33632	
835	0	33624	
836	0	33668	
837	0	33732	
838	0	33784	
839	0	33804	
840	0	33840	
841	0	33884	
842	0	33928	
843	0	33972	
844	0	34048	
845	0	34112	
846	0	34200	
847	0	34320	
848	0	34464	
849	0	34612	
850	0	34652	
851	0	34688	
852	0	34698	
853	0	34720	
854	0	34732	
855	0	34720	
856	0	34720	
857	0	34688	
858	0	34688	
859	0	34736	
860	0	34744	
861	0	34704	
862	0	34676	
863	0	34660	
864	0	34624	
865	0	34608	
866	0	34640	
867	0	34668	
868	0	34672	
869	0	34696	
870	0	34752	
871	0	34796	
872	0	34828	
873	0	34864	
874	0	34904	
875	0	34920	
876	0	34916	
877	0	34936	
878	0	34978	
879	0	35056	
880	0	35088	
881	0	35096	
882	0	35128	
883	0	35112	
884	0	35100	
885	0	35072	
886	0	35064	
887	0	35040	
888	0	35004	
889	0	34992	
890	0	34968	
891	0	34952	
892	0	34960	
893	0	35008	
894	0	35036	
895	0	35092	
896	0	35148	
897	0	35180	
898	0	35152	
899	0	35096	
900	0	35044	
901	0	34980	
902	0	34964	
903	0	34920	
904	0	34820	
905	0	34752	
906	0	34688	
907	0	34664	
908	0	34624	
909	0	34624	
910	0	34616	
911	0	34592	
912	0	34568	
913	0	34480	
914	0	34392	
915	0	34304	
916	0	34208	
917	0	34088	
918	0	33914	
919	0	33792	
920	0	33720	
921	0	33658	
922	0	33552	
923	0	33476	
924	0	33352	
925	0	33236	
926	0	33152	
927	0	33072	
928	0	32986	
929	0	32880	
930	0	32760	
931	0	32636	
932	0	32504	
933	0	32360	
934	0	32240	
935	0	32136	
936	0	32016	
937	0	31922	
938	0	31824	
939	0	31748	
940	0	31620	
941	0	31464	
942	0	31298	
943	0	31108	
944	0	30984	
945	0	30968	
946	0	30982	
947	0	30984	
948	0	30944	
949	0	30848	
950	0	30700	
951	0	30572	
952	0	30456	
953	0	30340	
954	0	30308	
955	0	30312	
956	0	30276	
957	0	30144	
958	0	30016	
959	0	29908	
960	0	29856	
961	0	29884	
962	0	29936	
963	0	29948	
964	0	29952	
965	0	29976	
966	0	29962	
967	0	29968	
968	0	30000	
969	0	30000	
970	0	29920	
971	0	29816	
972	0	29786	
973	0	29784	
974	0	29760	
975	0	29760	
976	0	29764	
977	0	29744	
978	0	29724	
979	0	29704	
980	0	29740	
981	0	29818	
982	0	29896	
983	0	29948	
984	0	29972	
985	0	29984	
986	0	29986	
987	0	30004	
988	0	30016	
989	0	30076	
990	0	30108	
991	0	30104	
992	0	30132	
993	0	30156	
994	0	30112	
995	0	30084	
996	0	30112	
997	0	30120	
998	0	30128	
999	0	30096	
1000	0	30076	
1001	0	30036	
1002	0	30024	
1003	0	29976	
1004	0	30018	
1005	0	30088	
1006	0	30096	
1007	0	30082	
1008	0	30080	
1009	0	30082	
1010	0	30132	
1011	0	30190	
1012	0	30272	
1013	0	30328	
1014	0	30416	
1015	0	30496	
1016	0	30556	
1017	0	30584	
1018	0	30596	
1019	0	30556	
1020	0	30520	
1021	0	30468	
1022	0	30504	
1023	0	30496	
1024	0	30452	
1025	0	30448	
1026	0	30456	
1027	0	30484	
1028	0	30556	
1029	0	30636	
1030	0	30648	
1031	0	30608	
1032	0	30608	
1033	0	30634	
1034	0	30664	
1035	0	30664	
1036	0	30712	
1037	0	30756	
1038	0	30796	
1039	0	30842	
1040	0	30860	
1041	0	30856	
1042	0	30880	
1043	0	30916	
1044	0	30992	
1045	0	31044	
1046	0	31108	
1047	0	31184	
1048	0	31228	
1049	0	31212	
1050	0	31168	
1051	0	31196	
1052	0	31256	
1053	0	31320	
1054	0	31356	
1055	0	31364	
1056	0	31360	
1057	0	31376	
1058	0	31380	
1059	0	31352	
1060	0	31312	
1061	0	31328	
1062	0	31340	
1063	0	31328	
1064	0	31336	
1065	0	31320	
1066	0	31304	
1067	0	31276	
1068	0	31228	
1069	0	31188	
1070	0	31156	
1071	0	31144	
1072	0	31176	
1073	0	31204	
1074	0	31232	
1075	0	31248	
1076	0	31282	
1077	0	31340	
1078	0	31368	
1079	0	31420	
1080	0	31432	
1081	0	31409	
1082	0	31426	
1083	0	31450	
1084	0	31454	
1085	0	31464	
1086	0	31544	
1087	0	31592	
1088	0	31608	
1089	0	31576	
1090	0	31536	
1091	0	31498	
1092	0	31532	
1093	0	31588	
1094	0	31548	
1095	0	31516	
1096	0	31504	
1097	0	31496	
1098	0	31472	
1099	0	31428	
1100	0	31428	
1101	0	31440	
1102	0	31408	
1103	0	31352	
1104	0	31332	
1105	0	31374	
1106	0	31388	
1107	0	31416	
1108	0	31464	
1109	0	31482	
1110	0	31444	
1111	0	31418	
1112	0	31456	
1113	0	31476	
1114	0	31552	
1115	0	31620	
1116	0	31680	
1117	0	31680	
1118	0	31660	
1119	0	31598	
1120	0	31520	
1121	0	31456	
1122	0	31432	
1123	0	31440	
1124	0	31442	
1125	0	31508	
1126	0	31528	
1127	0	31584	
1128	0	31652	
1129	0	31708	
1130	0	31696	
1131	0	31664	
1132	0	31616	
1133	0	31548	
1134	0	31500	
1135	0	31440	
1136	0	31456	
1137	0	31472	
1138	0	31460	
1139	0	31476	
1140	0	31472	
1141	0	31476	
1142	0	31480	
1143	0	31496	
1144	0	31536	
1145	0	31552	
1146	0	31584	
1147	0	31644	
1148	0	31660	
1149	0	31688	
1150	0	31720	
1151	0	31704	
1152	0	31676	
1153	0	31672	
1154	0	31648	
1155	0	31604	
1156	0	31520	
1157	0	31456	
1158	0	31428	
1159	0	31456	
1160	0	31496	
1161	0	31564	
1162	0	31588	
1163	0	31604	
1164	0	31640	
1165	0	31700	
1166	0	31700	
1167	0	31710	
1168	0	31744	
1169	0	31760	
1170	0	31752	
1171	0	31676	
1172	0	31608	
1173	0	31620	
1174	0	31628	
1175	0	31584	
1176	0	31624	
1177	0	31674	
1178	0	31722	
1179	0	31800	
1180	0	31812	
1181	0	31776	
1182	0	31722	
1183	0	31672	
1184	0	31704	
1185	0	31800	
1186	0	31868	
1187	0	31900	
1188	0	31876	
1189	0	31844	
1190	0	31840	
1191	0	31832	
1192	0	31816	
1193	0	31760	
1194	0	31716	
1195	0	31716	
1196	0	31732	
1197	0	31788	
1198	0	31864	
1199	0	31880	
1200	0	31898	
1201	0	31928	
1202	0	31944	
1203	0	31946	
1204	0	31976	
1205	0	32052	
1206	0	32100	
1207	0	32120	
1208	0	32136	
1209	0	32116	
1210	0	32064	
1211	0	32024	
1212	0	32016	
1213	0	32060	
1214	0	32156	
1215	0	32224	
1216	0	32240	
1217	0	32268	
1218	0	32288	
1219	0	32304	
1220	0	32312	
1221	0	32288	
1222	0	32216	
1223	0	32168	
1224	0	32080	
1225	0	32008	
1226	0	32058	
1227	0	32120	
1228	0	32186	
1229	0	32216	
1230	0	32296	
1231	0	32392	
1232	0	32488	
1233	0	32536	
1234	0	32608	
1235	0	32648	
1236	0	32700	
1237	0	32756	
1238	0	32786	
1239	0	32772	
1240	0	32756	
1241	0	32744	
1242	0	32732	
1243	0	32680	
1244	0	32612	
1245	0	32572	
1246	0	32544	
1247	0	32556	
1248	0	32532	
1249	0	32474	
1250	0	32356	
1251	0	32296	
1252	0	32260	
1253	0	32292	
1254	0	32380	
1255	0	32496	
1256	0	32664	
1257	0	32832	
1258	0	32960	
1259	0	33036	
1260	0	33100	
1261	0	33176	
1262	0	33292	
1263	0	33402	
1264	0	33516	
1265	0	33656	
1266	0	33816	
1267	0	33944	
1268	0	34012	
1269	0	34120	
1270	0	34178	
1271	0	34228	
1272	0	34274	
1273	0	34340	
1274	0	34372	
1275	0	34336	
1276	0	34232	
1277	0	34124	
1278	0	34066	
1279	0	33980	
1280	0	33906	
1281	0	33816	
1282	0	33696	
1283	0	33608	
1284	0	33524	
1285	0	33440	
1286	0	33394	
1287	0	33308	
1288	0	33188	
1289	0	33136	
1290	0	33012	
1291	0	32888	
1292	0	32808	
1293	0	32794	
1294	0	32752	
1295	0	32740	
1296	0	32764	
1297	0	32740	
1298	0	32704	
1299	0	32688	
1300	0	32672	
1301	0	32672	
1302	0	32660	
1303	0	32660	
1304	0	32664	
1305	0	32672	
1306	0	32616	
1307	0	32568	
1308	0	32500	
1309	0	32410	
1310	0	32420	
1311	0	32456	
1312	0	32468	
1313	0	32484	
1314	0	32458	
1315	0	32336	
1316	0	32280	
1317	0	32224	
1318	0	32148	
1319	0	32064	
1320	0	31960	
1321	0	31906	
1322	0	31912	
1323	0	31980	
1324	0	32016	
1325	0	32012	
1326	0	32020	
1327	0	32036	
1328	0	32056	
1329	0	32058	
1330	0	32026	
1331	0	31984	
1332	0	32060	
1333	0	32100	
1334	0	32148	
1335	0	32180	
1336	0	32172	
1337	0	32172	
1338	0	32180	
1339	0	32212	
1340	0	32208	
1341	0	32168	
1342	0	32124	
1343	0	32112	
1344	0	32120	
1345	0	32132	
1346	0	32108	
1347	0	32044	
1348	0	32008	
1349	0	31992	
1350	0	31960	
1351	0	31992	
1352	0	32052	
1353	0	32114	
1354	0	32176	
1355	0	32208	
1356	0	32216	
1357	0	32282	
1358	0	32376	
1359	0	32394	
1360	0	32404	
1361	0	32380	
1362	0	32328	
1363	0	32256	
1364	0	32204	
1365	0	32184	
1366	0	32188	
1367	0	32196	
1368	0	32196	
1369	0	32172	
1370	0	32160	
1371	0	32220	
1372	0	32300	
1373	0	32360	
1374	0	32368	
1375	0	32372	
1376	0	32352	
1377	0	32280	
1378	0	32256	
1379	0	32272	
1380	0	32296	
1381	0	32348	
1382	0	32440	
1383	0	32474	
1384	0	32424	
1385	0	32388	
1386	0	32400	
1387	0	32416	
1388	0	32392	
1389	0	32412	
1390	0	32516	
1391	0	32632	
1392	0	32740	
1393	0	32760	
1394	0	32732	
1395	0	32656	
1396	0	32554	
1397	0	32480	
1398	0	32382	
1399	0	32244	
1400	0	32128	
1401	0	31988	
1402	0	31984	
1403	0	32128	
1404	0	32388	
1405	0	32616	
1406	0	32936	
1407	0	33344	
1408	0	33752	
1409	0	34064	
1410	0	34224	
1411	0	34416	
1412	0	34720	
1413	0	35172	
1414	0	35808	
1415	0	36592	
1416	0	37556	
1417	0	38660	
1418	0	39936	
1419	0	41408	
1420	0	42996	
1421	0	44576	
1422	0	46156	
1423	0	47776	
1424	0	49440	
1425	0	51040	
1426	0	52596	
1427	0	53952	
1428	0	55088	
1429	0	56208	
1430	0	57392	
1431	0	58544	
1432	0	59416	
1433	0	59656	
1434	0	58956	
1435	0	57016	
1436	0	54008	
1437	0	50280	
1438	0	46176	
1439	0	42080	
1440	0	38352	
1441	0	35192	
1442	0	32856	
1443	0	31320	
1444	0	30294	
1445	0	29572	
1446	0	29080	
1447	0	28752	
1448	0	28608	
1449	0	28640	
1450	0	28842	
1451	0	29114	
1452	0	29320	
1453	0	29520	
1454	0	29676	
1455	0	29864	
1456	0	30036	
1457	0	30148	
1458	0	30316	
1459	0	30584	
1460	0	30812	
1461	0	30988	
1462	0	31068	
1463	0	31176	
1464	0	31280	
1465	0	31320	
1466	0	31348	
1467	0	31358	
1468	0	31368	
1469	0	31372	
1470	0	31372	
1471	0	31322	
1472	0	31212	
1473	0	31148	
1474	0	31104	
1475	0	31000	
1476	0	30928	
1477	0	30936	
1478	0	30952	
1479	0	30988	
1480	0	30992	
1481	0	30976	
1482	0	30972	
1483	0	30992	
1484	0	31000	
1485	0	31024	
1486	0	31024	
1487	0	31072	
1488	0	31164	
1489	0	31256	
1490	0	31328	
1491	0	31340	
1492	0	31280	
1493	0	31252	
1494	0	31266	
1495	0	31296	
1496	0	31338	
1497	0	31328	
1498	0	31280	
1499	0	31280	
1500	0	31316	
1501	0	31340	
1502	0	31388	
1503	0	31406	
1504	0	31392	
1505	0	31378	
1506	0	31436	
1507	0	31476	
1508	0	31528	
1509	0	31600	
1510	0	31624	
1511	0	31664	
1512	0	31740	
1513	0	31720	
1514	0	31680	
1515	0	31692	
1516	0	31722	
1517	0	31772	
1518	0	31784	
1519	0	31716	
1520	0	31672	
1521	0	31640	
1522	0	31592	
1523	0	31628	
1524	0	31648	
1525	0	31636	
1526	0	31668	
1527	0	31720	
1528	0	31780	
1529	0	31880	
1530	0	31936	
1531	0	31952	
1532	0	32016	
1533	0	32052	
1534	0	32092	
1535	0	32110	
1536	0	32104	
1537	0	32148	
1538	0	32128	
1539	0	32096	
1540	0	32118	
1541	0	32160	
1542	0	32198	
1543	0	32236	
1544	0	32264	
1545	0	32320	
1546	0	32380	
1547	0	32436	
1548	0	32480	
1549	0	32508	
1550	0	32560	
1551	0	32604	
1552	0	32652	
1553	0	32668	
1554	0	32664	
1555	0	32676	
1556	0	32680	
1557	0	32684	
1558	0	32704	
1559	0	32700	
1560	0	32692	
1561	0	32688	
1562	0	32708	
1563	0	32740	
1564	0	32810	
1565	0	32860	
1566	0	32908	
1567	0	32880	
1568	0	32872	
1569	0	32900	
1570	0	32956	
1571	0	33020	
1572	0	33056	
1573	0	33068	
1574	0	33072	
1575	0	33096	
1576	0	33140	
1577	0	33124	
1578	0	33100	
1579	0	33116	
1580	0	33148	
1581	0	33112	
1582	0	33106	
1583	0	33112	
1584	0	33140	
1585	0	33212	
1586	0	33256	
1587	0	33316	
1588	0	33384	
1589	0	33424	
1590	0	33484	
1591	0	33604	
1592	0	33688	
1593	0	33708	
1594	0	33676	
1595	0	33616	
1596	0	33592	
1597	0	33552	
1598	0	33504	
1599	0	33452	
1600	0	33424	
1601	0	33448	
1602	0	33424	
1603	0	33392	
1604	0	33364	
1605	0	33360	
1606	0	33412	
1607	0	33440	
1608	0	33448	
1609	0	33464	
1610	0	33480	
1611	0	33536	
1612	0	33600	
1613	0	33660	
1614	0	33696	
1615	0	33732	
1616	0	33736	
1617	0	33704	
1618	0	33712	
1619	0	33792	
1620	0	33888	
1621	0	33976	
1622	0	34040	
1623	0	34044	
1624	0	34080	
1625	0	34152	
1626	0	34178	
1627	0	34140	
1628	0	34096	
1629	0	34082	
1630	0	34148	
1631	0	34212	
1632	0	34248	
1633	0	34256	
1634	0	34232	
1635	0	34236	
1636	0	34308	
1637	0	34392	
1638	0	34468	
1639	0	34512	
1640	0	34628	
1641	0	34716	
1642	0	34778	
1643	0	34832	
1644	0	34864	
1645	0	34864	
1646	0	34860	
1647	0	34852	
1648	0	34796	
1649	0	34784	
1650	0	34832	
1651	0	34880	
1652	0	34916	
1653	0	34912	
1654	0	34956	
1655	0	34972	
1656	0	34952	
1657	0	34972	
1658	0	35040	
1659	0	35076	
1660	0	35044	
1661	0	35056	
1662	0	35084	
1663	0	35128	
1664	0	35140	
1665	0	35144	
1666	0	35176	
1667	0	35220	
1668	0	35228	
1669	0	35232	
1670	0	35240	
1671	0	35228	
1672	0	35200	
1673	0	35200	
1674	0	35220	
1675	0	35258	
1676	0	35264	
1677	0	35244	
1678	0	35224	
1679	0	35200	
1680	0	35168	
1681	0	35132	
1682	0	35092	
1683	0	35104	
1684	0	35140	
1685	0	35180	
1686	0	35212	
1687	0	35208	
1688	0	35184	
1689	0	35148	
1690	0	35104	
1691	0	35072	
1692	0	35068	
1693	0	35060	
1694	0	35016	
1695	0	34956	
1696	0	34912	
1697	0	34844	
1698	0	34722	
1699	0	34596	
1700	0	34496	
1701	0	34416	
1702	0	34416	
1703	0	34388	
1704	0	34280	
1705	0	34170	
1706	0	34136	
1707	0	34108	
1708	0	33988	
1709	0	33864	
1710	0	33668	
1711	0	33428	
1712	0	33208	
1713	0	33036	
1714	0	32940	
1715	0	32872	
1716	0	32752	
1717	0	32612	
1718	0	32512	
1719	0	32428	
1720	0	32304	
1721	0	32192	
1722	0	32020	
1723	0	31868	
1724	0	31722	
1725	0	31628	
1726	0	31544	
1727	0	31480	
1728	0	31400	
1729	0	31280	
1730	0	31210	
1731	0	31168	
1732	0	31072	
1733	0	30984	
1734	0	30912	
1735	0	30840	
1736	0	30764	
1737	0	30720	
1738	0	30672	
1739	0	30588	
1740	0	30516	
1741	0	30460	
1742	0	30356	
1743	0	30266	
1744	0	30208	
1745	0	30170	
1746	0	30136	
1747	0	30084	
1748	0	30032	
1749	0	29984	
1750	0	29960	
1751	0	29928	
1752	0	29832	
1753	0	29724	
1754	0	29628	
1755	0	29608	
1756	0	29552	
1757	0	29528	
1758	0	29504	
1759	0	29552	
1760	0	29628	
1761	0	29696	
1762	0	29748	
1763	0	29760	
1764	0	29742	
1765	0	29768	
1766	0	29800	
1767	0	29862	
1768	0	29898	
1769	0	29848	
1770	0	29760	
1771	0	29732	
1772	0	29744	
1773	0	29752	
1774	0	29820	
1775	0	29920	
1776	0	29916	
1777	0	29912	
1778	0	29920	
1779	0	29912	
1780	0	29896	
1781	0	29872	
1782	0	29888	
1783	0	29948	
1784	0	30004	
1785	0	30012	
1786	0	29984	
1787	0	29992	
1788	0	29978	
1789	0	29960	
1790	0	30000	
1791	0	30056	
1792	0	30108	
1793	0	30176	
1794	0	30232	
1795	0	30308	
1796	0	30340	
1797	0	30324	
1798	0	30320	
1799	0	30292	
1800	0	30272	
1801	0	30280	
1802	0	30324	
1803	0	30396	
1804	0	30530	
1805	0	30592	
1806	0	30628	
1807	0	30672	
1808	0	30702	
1809	0	30796	
1810	0	30824	
1811	0	30812	
1812	0	30780	
1813	0	30728	
1814	0	30696	
1815	0	30624	
1816	0	30616	
1817	0	30672	
1818	0	30760	
1819	0	30824	
1820	0	30880	
1821	0	30872	
1822	0	30882	
1823	0	30874	
1824	0	30876	
1825	0	30860	
1826	0	30880	
1827	0	30912	
1828	0	30916	
1829	0	30924	
1830	0	30880	
1831	0	30876	
1832	0	30908	
1833	0	30928	
1834	0	30960	
1835	0	31000	
1836	0	31028	
1837	0	31076	
1838	0	31144	
1839	0	31192	
1840	0	31232	
1841	0	31264	
1842	0	31304	
1843	0	31312	
1844	0	31340	
1845	0	31364	
1846	0	31368	
1847	0	31388	
1848	0	31400	
1849	0	31388	
1850	0	31360	
1851	0	31296	
1852	0	31188	
1853	0	31124	
1854	0	31112	
1855	0	31116	
1856	0	31100	
1857	0	31092	
1858	0	31080	
1859	0	31088	
1860	0	31116	
1861	0	31160	
1862	0	31228	
1863	0	31208	
1864	0	31180	
1865	0	31192	
1866	0	31268	
1867	0	31324	
1868	0	31332	
1869	0	31352	
1870	0	31408	
1871	0	31472	
1872	0	31488	
1873	0	31500	
1874	0	31492	
1875	0	31496	
1876	0	31480	
1877	0	31460	
1878	0	31472	
1879	0	31464	
1880	0	31472	
1881	0	31450	
1882	0	31472	
1883	0	31472	
1884	0	31456	
1885	0	31452	
1886	0	31440	
1887	0	31456	
1888	0	31488	
1889	0	31468	
1890	0	31426	
1891	0	31424	
1892	0	31432	
1893	0	31436	
1894	0	31420	
1895	0	31426	
1896	0	31432	
1897	0	31436	
1898	0	31456	
1899	0	31512	
1900	0	31592	
1901	0	31680	
1902	0	31720	
1903	0	31728	
1904	0	31756	
1905	0	31740	
1906	0	31680	
1907	0	31668	
1908	0	31688	
1909	0	31725	
1910	0	31778	
1911	0	31766	
1912	0	31768	
1913	0	31808	
1914	0	31770	
1915	0	31696	
1916	0	31636	
1917	0	31608	
1918	0	31572	
1919	0	31604	
1920	0	31664	
1921	0	31712	
1922	0	31746	
1923	0	31748	
1924	0	31744	
1925	0	31744	
1926	0	31796	
1927	0	31828	
1928	0	31840	
1929	0	31808	
1930	0	31712	
1931	0	31676	
1932	0	31692	
1933	0	31740	
1934	0	31780	
1935	0	31768	
1936	0	31752	
1937	0	31752	
1938	0	31744	
1939	0	31708	
1940	0	31672	
1941	0	31668	
1942	0	31680	
1943	0	31728	
1944	0	31792	
1945	0	31852	
1946	0	31892	
1947	0	31904	
1948	0	31928	
1949	0	31924	
1950	0	31908	
1951	0	31888	
1952	0	31908	
1953	0	31944	
1954	0	31960	
1955	0	31968	
1956	0	31976	
1957	0	31938	
1958	0	31896	
1959	0	31864	
1960	0	31860	
1961	0	31840	
1962	0	31872	
1963	0	31956	
1964	0	32004	
1965	0	32012	
1966	0	32002	
1967	0	31984	
1968	0	31972	
1969	0	32012	
1970	0	32016	
1971	0	31996	
1972	0	31968	
1973	0	31954	
1974	0	31980	
1975	0	32028	
1976	0	32076	
1977	0	32080	
1978	0	32132	
1979	0	32192	
1980	0	32224	
1981	0	32256	
1982	0	32244	
1983	0	32228	
1984	0	32184	
1985	0	32144	
1986	0	32164	
1987	0	32252	
1988	0	32280	
1989	0	32244	
1990	0	32200	
1991	0	32200	
1992	0	32256	
1993	0	32280	
1994	0	32288	
1995	0	32312	
1996	0	32340	
1997	0	32348	
1998	0	32316	
1999	0	32316	
2000	0	32288	
2001	0	32260	
2002	0	32268	
2003	0	32308	
2004	0	32296	
2005	0	32320	
2006	0	32372	
2007	0	32468	
2008	0	32560	
2009	0	32644	
2010	0	32692	
2011	0	32728	
2012	0	32760	
2013	0	32760	
2014	0	32704	
2015	0	32660	
2016	0	32640	
2017	0	32628	
2018	0	32608	
2019	0	32560	
2020	0	32536	
2021	0	32544	
2022	0	32564	
2023	0	32564	
2024	0	32516	
2025	0	32424	
2026	0	32356	
2027	0	32428	
2028	0	32624	
2029	0	32804	
2030	0	32942	
2031	0	33066	
2032	0	33160	
2033	0	33260	
2034	0	33406	
2035	0	33552	
2036	0	33664	
2037	0	33849	
2038	0	34020	
2039	0	34170	
2040	0	34268	
2041	0	34368	
2042	0	34432	
2043	0	34484	
2044	0	34544	
2045	0	34544	
2046	0	34540	
2047	0	34504	
2048	0	34428	
2049	0	34288	
2050	0	34124	
2051	0	34008	
2052	0	33936	
2053	0	33882	
2054	0	33776	
2055	0	33688	
2056	0	33632	
2057	0	33532	
2058	0	33392	
2059	0	33264	
2060	0	33212	
2061	0	33208	
2062	0	33180	
2063	0	33092	
2064	0	33042	
2065	0	33044	
2066	0	33064	
2067	0	33100	
2068	0	33208	
2069	0	33268	
2070	0	33234	
2071	0	33154	
2072	0	33116	
2073	0	33120	
2074	0	33116	
2075	0	33136	
2076	0	33120	
2077	0	33096	
2078	0	32984	
2079	0	32856	
2080	0	32794	
2081	0	32736	
2082	0	32684	
2083	0	32640	
2084	0	32608	
2085	0	32604	
2086	0	32560	
2087	0	32480	
2088	0	32436	
2089	0	32398	
2090	0	32356	
2091	0	32312	
2092	0	32304	
2093	0	32288	
2094	0	32252	
2095	0	32240	
2096	0	32252	
2097	0	32248	
2098	0	32208	
2099	0	32196	
2100	0	32224	
2101	0	32256	
2102	0	32296	
2103	0	32332	
2104	0	32300	
2105	0	32272	
2106	0	32290	
2107	0	32320	
2108	0	32356	
2109	0	32388	
2110	0	32404	
2111	0	32424	
2112	0	32456	
2113	0	32428	
2114	0	32412	
2115	0	32432	
2116	0	32472	
2117	0	32484	
2118	0	32500	
2119	0	32516	
2120	0	32512	
2121	0	32532	
2122	0	32572	
2123	0	32596	
2124	0	32608	
2125	0	32580	
2126	0	32552	
2127	0	32520	
2128	0	32504	
2129	0	32448	
2130	0	32408	
2131	0	32352	
2132	0	32280	
2133	0	32224	
2134	0	32240	
2135	0	32260	
2136	0	32228	
2137	0	32188	
2138	0	32192	
2139	0	32216	
2140	0	32256	
2141	0	32284	
2142	0	32280	
2143	0	32308	
2144	0	32336	
2145	0	32336	
2146	0	32372	
2147	0	32432	
2148	0	32468	
2149	0	32472	
2150	0	32464	
2151	0	32496	
2152	0	32524	
2153	0	32544	
2154	0	32496	
2155	0	32464	
2156	0	32428	
2157	0	32408	
2158	0	32400	
2159	0	32404	
2160	0	32400	
2161	0	32416	
2162	0	32448	
2163	0	32528	
2164	0	32612	
2165	0	32688	
2166	0	32730	
2167	0	32780	
2168	0	32880	
2169	0	32872	
2170	0	32788	
2171	0	32640	
2172	0	32464	
2173	0	32284	
2174	0	32120	
2175	0	32112	
2176	0	32256	
2177	0	32480	
2178	0	32732	
2179	0	33076	
2180	0	33440	
2181	0	33808	
2182	0	34116	
2183	0	34338	
2184	0	34608	
2185	0	34988	
2186	0	35516	
2187	0	36256	
2188	0	37160	
2189	0	38208	
2190	0	39392	
2191	0	40812	
2192	0	42352	
2193	0	43996	
2194	0	45672	
2195	0	47432	
2196	0	49184	
2197	0	50832	
2198	0	52320	
2199	0	53620	
2200	0	54752	
2201	0	55840	
2202	0	57040	
2203	0	58292	
2204	0	59320	
2205	0	59910	
2206	0	59712	
2207	0	58296	
2208	0	55724	
2209	0	52244	
2210	0	48192	
2211	0	43984	
2212	0	39984	
2213	0	36552	
2214	0	33916	
2215	0	32116	
2216	0	30948	
2217	0	30216	
2218	0	29752	
2219	0	29424	
2220	0	29248	
2221	0	29228	
2222	0	29276	
2223	0	29338	
2224	0	29364	
2225	0	29508	
2226	0	29712	
2227	0	29904	
2228	0	30012	
2229	0	30084	
2230	0	30208	
2231	0	30356	
2232	0	30516	
2233	0	30680	
2234	0	30780	
2235	0	30864	
2236	0	30960	
2237	0	31048	
2238	0	31092	
2239	0	31096	
2240	0	31084	
2241	0	31036	
2242	0	30928	
2243	0	30896	
2244	0	30848	
2245	0	30768	
2246	0	30716	
2247	0	30680	
2248	0	30652	
2249	0	30648	
2250	0	30640	
2251	0	30672	
2252	0	30684	
2253	0	30648	
2254	0	30608	
2255	0	30620	
2256	0	30668	
2257	0	30732	
2258	0	30810	
2259	0	30852	
2260	0	30920	
2261	0	30976	
2262	0	31025	
2263	0	31080	
2264	0	31108	
2265	0	31064	
2266	0	30984	
2267	0	30970	
2268	0	30972	
2269	0	30944	
2270	0	30938	
2271	0	30964	
2272	0	30992	
2273	0	31008	
2274	0	31020	
2275	0	31072	
2276	0	31104	
2277	0	31144	
2278	0	31176	
2279	0	31208	
2280	0	31256	
2281	0	31304	
2282	0	31352	
2283	0	31426	
2284	0	31540	
2285	0	31596	
2286	0	31600	
2287	0	31568	
2288	0	31562	
2289	0	31484	
2290	0	31432	
2291	0	31520	
2292	0	31620	
2293	0	31668	
2294	0	31688	
2295	0	31684	
2296	0	31680	
2297	0	31672	
2298	0	31668	
2299	0	31696	
2300	0	31740	
2301	0	31768	
2302	0	31826	
2303	0	31864	
2304	0	31860	
2305	0	31868	
2306	0	31960	
2307	0	32124	
2308	0	32224	
2309	0	32272	
2310	0	32284	
2311	0	32268	
2312	0	32236	
2313	0	32208	
2314	0	32240	
2315	0	32272	
2316	0	32304	
2317	0	32320	
2318	0	32344	
2319	0	32392	
2320	0	32444	
2321	0	32484	
2322	0	32520	
2323	0	32576	
2324	0	32640	
2325	0	32690	
2326	0	32716	
2327	0	32730	
2328	0	32756	
2329	0	32764	
2330	0	32784	
2331	0	32796	
2332	0	32776	
2333	0	32744	
2334	0	32776	
2335	0	32832	
2336	0	32832	
2337	0	32816	
2338	0	32800	
2339	0	32832	
2340	0	32820	
2341	0	32836	
2342	0	32836	
2343	0	32852	
2344	0	32832	
2345	0	32848	
2346	0	32932	
2347	0	33020	
2348	0	33080	
2349	0	33120	
2350	0	33200	
2351	0	33248	
2352	0	33276	
2353	0	33328	
2354	0	33384	
2355	0	33444	
2356	0	33488	
2357	0	33536	
2358	0	33572	
2359	0	33588	
2360	0	33656	
2361	0	33680	
2362	0	33688	
2363	0	33664	
2364	0	33644	
2365	0	33640	
2366	0	33640	
2367	0	33640	
2368	0	33624	
2369	0	33600	
2370	0	33600	
2371	0	33608	
2372	0	33624	
2373	0	33656	
2374	0	33688	
2375	0	33696	
2376	0	33720	
2377	0	33772	
2378	0	33812	
2379	0	33792	
2380	0	33800	
2381	0	33800	
2382	0	33836	
2383	0	33836	
2384	0	33820	
2385	0	33872	
2386	0	33972	
2387	0	34008	
2388	0	34004	
2389	0	33992	
2390	0	33960	
2391	0	33964	
2392	0	33984	
2393	0	34004	
2394	0	34016	
2395	0	34088	
2396	0	34164	
2397	0	34224	
2398	0	34284	
2399	0	34336	
2400	0	34372	
2401	0	34392	
2402	0	34412	
2403	0	34432	
2404	0	34448	
2405	0	34416	
2406	0	34384	
2407	0	34384	
2408	0	34362	
2409	0	34330	
2410	0	34328	
2411	0	34344	
2412	0	34368	
2413	0	34382	
2414	0	34400	
2415	0	34404	
2416	0	34380	
2417	0	34344	
2418	0	34360	
2419	0	34460	
2420	0	34544	
2421	0	34640	
2422	0	34748	
2423	0	34788	
2424	0	34828	
2425	0	34904	
2426	0	34960	
2427	0	35008	
2428	0	35052	
2429	0	35096	
2430	0	35104	
2431	0	35036	
2432	0	34956	
2433	0	34912	
2434	0	34912	
2435	0	34884	
2436	0	34912	
2437	0	34960	
2438	0	34996	
2439	0	35052	
2440	0	35100	
2441	0	35136	
2442	0	35176	
2443	0	35220	
2444	0	35298	
2445	0	35300	
2446	0	35208	
2447	0	35164	
2448	0	35196	
2449	0	35253	
2450	0	35292	
2451	0	35310	
2452	0	35332	
2453	0	35354	
2454	0	35372	
2455	0	35392	
2456	0	35392	
2457	0	35356	
2458	0	35320	
2459	0	35264	
2460	0	35204	
2461	0	35144	
2462	0	35160	
2463	0	35112	
2464	0	35064	
2465	0	35032	
2466	0	34940	
2467	0	34840	
2468	0	34784	
2469	0	34756	
2470	0	34676	
2471	0	34584	
2472	0	34516	
2473	0	34472	
2474	0	34436	
2475	0	34368	
2476	0	34288	
2477	0	34192	
2478	0	34104	
2479	0	33992	
2480	0	33888	
2481	0	33748	
2482	0	33608	
2483	0	33472	
2484	0	33376	
2485	0	33276	
2486	0	33148	
2487	0	32996	
2488	0	32860	
2489	0	32732	
2490	0	32602	
2491	0	32504	
2492	0	32406	
2493	0	32312	
2494	0	32174	
2495	0	31984	
2496	0	31840	
2497	0	31778	
2498	0	31694	
2499	0	31628	
2500	0	31564	
2501	0	31488	
2502	0	31384	
2503	0	31252	
2504	0	31132	
2505	0	31020	
2506	0	30952	
2507	0	30892	
2508	0	30824	
2509	0	30734	
2510	0	30648	
2511	0	30560	
2512	0	30484	
2513	0	30456	
2514	0	30424	
2515	0	30336	
2516	0	30256	
2517	0	30232	
2518	0	30216	
2519	0	30184	
2520	0	30176	
2521	0	30160	
2522	0	30128	
2523	0	30072	
2524	0	30064	
2525	0	30124	
2526	0	30176	
2527	0	30170	
2528	0	30136	
2529	0	30096	
2530	0	30048	
2531	0	29988	
2532	0	29992	
2533	0	30024	
2534	0	30032	
2535	0	29976	
2536	0	29916	
2537	0	29888	
2538	0	29892	
2539	0	29900	
2540	0	29952	
2541	0	29992	
2542	0	29978	
2543	0	29956	
2544	0	29992	
2545	0	30036	
2546	0	30036	
2547	0	30028	
2548	0	30068	
2549	0	30112	
2550	0	30144	
2551	0	30200	
2552	0	30244	
2553	0	30226	
2554	0	30192	
2555	0	30196	
2556	0	30224	
2557	0	30212	
2558	0	30204	
2559	0	30196	
2560	0	30220	
2561	0	30224	
2562	0	30216	
2563	0	30220	
2564	0	30224	
2565	0	30206	
2566	0	30240	
2567	0	30276	
2568	0	30260	
2569	0	30268	
2570	0	30328	
2571	0	30384	
2572	0	30388	
2573	0	30380	
2574	0	30416	
2575	0	30488	
2576	0	30506	
2577	0	30540	
2578	0	30580	
2579	0	30644	
2580	0	30716	
2581	0	30772	
2582	0	30844	
2583	0	30920	
2584	0	30976	
2585	0	31008	
2586	0	31024	
2587	0	31056	
2588	0	31116	
2589	0	31180	
2590	0	31256	
2591	0	31344	
2592	0	31440	
2593	0	31448	
2594	0	31400	
2595	0	31352	
2596	0	31316	
2597	0	31264	
2598	0	31204	
2599	0	31228	
2600	0	31258	
2601	0	31274	
2602	0	31260	
2603	0	31296	
2604	0	31386	
2605	0	31472	
2606	0	31512	
2607	0	31500	
2608	0	31464	
2609	0	31428	
2610	0	31448	
2611	0	31498	
2612	0	31540	
2613	0	31548	
2614	0	31528	
2615	0	31490	
2616	0	31512	
2617	0	31592	
2618	0	31656	
2619	0	31696	
2620	0	31724	
2621	0	31740	
2622	0	31708	
2623	0	31740	
2624	0	31788	
2625	0	31820	
2626	0	31868	
2627	0	31920	
2628	0	31880	
2629	0	31772	
2630	0	31736	
2631	0	31736	
2632	0	31692	
2633	0	31656	
2634	0	31652	
2635	0	31664	
2636	0	31696	
2637	0	31720	
2638	0	31672	
2639	0	31668	
2640	0	31672	
2641	0	31728	
2642	0	31768	
2643	0	31812	
2644	0	31832	
2645	0	31844	
2646	0	31840	
2647	0	31828	
2648	0	31776	
2649	0	31760	
2650	0	31720	
2651	0	31700	
2652	0	31748	
2653	0	31816	
2654	0	31872	
2655	0	31916	
2656	0	31912	
2657	0	31964	
2658	0	32010	
2659	0	32000	
2660	0	31964	
2661	0	31910	
2662	0	31856	
2663	0	31844	
2664	0	31828	
2665	0	31760	
2666	0	31732	
2667	0	31744	
2668	0	31744	
2669	0	31756	
2670	0	31786	
2671	0	31800	
2672	0	31810	
2673	0	31822	
2674	0	31840	
2675	0	31804	
2676	0	31772	
2677	0	31772	
2678	0	31736	
2679	0	31768	
2680	0	31740	
2681	0	31744	
2682	0	31776	
2683	0	31808	
2684	0	31836	
2685	0	31932	
2686	0	32012	
2687	0	32004	
2688	0	31968	
2689	0	31976	
2690	0	32004	
2691	0	32032	
2692	0	32048	
2693	0	32068	
2694	0	32128	
2695	0	32136	
2696	0	32068	
2697	0	31992	
2698	0	31968	
2699	0	31968	
2700	0	31932	
2701	0	31912	
2702	0	31904	
2703	0	31908	
2704	0	31920	
2705	0	31970	
2706	0	32016	
2707	0	32032	
2708	0	32052	
2709	0	32096	
2710	0	32096	
2711	0	32064	
2712	0	32016	
2713	0	32024	
2714	0	32048	
2715	0	32108	
2716	0	32196	
2717	0	32300	
2718	0	32376	
2719	0	32412	
2720	0	32416	
2721	0	32426	
2722	0	32400	
2723	0	32340	
2724	0	32280	
2725	0	32204	
2726	0	32124	
2727	0	32068	
2728	0	32048	
2729	0	32040	
2730	0	31996	
2731	0	32000	
2732	0	32032	
2733	0	32048	
2734	0	32024	
2735	0	31948	
2736	0	31900	
2737	0	31868	
2738	0	31896	
2739	0	31912	
2740	0	31912	
2741	0	31956	
2742	0	31962	
2743	0	31948	
2744	0	31944	
2745	0	31984	
2746	0	32064	
2747	0	32100	
2748	0	32128	
2749	0	32112	
2750	0	32096	
2751	0	32080	
2752	0	32060	
2753	0	32024	
2754	0	31960	
2755	0	31896	
2756	0	31868	
2757	0	31904	
2758	0	31912	
2759	0	31916	
2760	0	31989	
2761	0	31976	
2762	0	31972	
2763	0	31972	
2764	0	31976	
2765	0	31992	
2766	0	32040	
2767	0	32088	
2768	0	32136	
2769	0	32184	
2770	0	32180	
2771	0	32156	
2772	0	32186	
2773	0	32236	
2774	0	32260	
2775	0	32290	
2776	0	32296	
2777	0	32268	
2778	0	32232	
2779	0	32232	
2780	0	32280	
2781	0	32336	
2782	0	32352	
2783	0	32392	
2784	0	32456	
2785	0	32478	
2786	0	32492	
2787	0	32464	
2788	0	32445	
2789	0	32448	
2790	0	32480	
2791	0	32484	
2792	0	32464	
2793	0	32424	
2794	0	32420	
2795	0	32420	
2796	0	32404	
2797	0	32440	
2798	0	32472	
2799	0	32520	
2800	0	32524	
2801	0	32480	
2802	0	32456	
2803	0	32512	
2804	0	32600	
2805	0	32620	
2806	0	32594	
2807	0	32576	
2808	0	32548	
2809	0	32508	
2810	0	32464	
2811	0	32468	
2812	0	32480	
2813	0	32508	
2814	0	32468	
2815	0	32480	
2816	0	32524	
2817	0	32572	
2818	0	32588	
2819	0	32600	
2820	0	32644	
2821	0	32696	
2822	0	32732	
2823	0	32774	
2824	0	32796	
2825	0	32816	
2826	0	32816	
2827	0	32816	
2828	0	32832	
2829	0	32828	
2830	0	32844	
2831	0	32904	
2832	0	32960	
2833	0	32960	
2834	0	32940	
2835	0	32944	
2836	0	32936	
2837	0	32888	
2838	0	32794	
2839	0	32704	
2840	0	32640	
2841	0	32570	
2842	0	32512	
2843	0	32478	
2844	0	32470	
2845	0	32488	
2846	0	32520	
2847	0	32578	
2848	0	32592	
2849	0	32604	
2850	0	32676	
2851	0	32756	
2852	0	32828	
2853	0	32896	
2854	0	32992	
2855	0	33068	
2856	0	33124	
2857	0	33188	
2858	0	33200	
2859	0	33148	
2860	0	33140	
2861	0	33160	
2862	0	33180	
2863	0	33184	
2864	0	33204	
2865	0	33164	
2866	0	33120	
2867	0	33080	
2868	0	33004	
2869	0	32912	
2870	0	32888	
2871	0	32872	
2872	0	32928	
2873	0	33064	
2874	0	33240	
2875	0	33380	
2876	0	33498	
2877	0	33592	
2878	0	33680	
2879	0	33772	
2880	0	33890	
2881	0	34028	
2882	0	34140	
2883	0	34232	
2884	0	34344	
2885	0	34432	
2886	0	34520	
2887	0	34592	
2888	0	34640	
2889	0	34648	
2890	0	34632	
2891	0	34624	
2892	0	34644	
2893	0	34628	
2894	0	34576	
2895	0	34452	
2896	0	34352	
2897	0	34266	
2898	0	34156	
2899	0	34052	
2900	0	33936	
2901	0	33760	
2902	0	33616	
2903	0	33488	
2904	0	33408	
2905	0	33392	
2906	0	33392	
2907	0	33372	
2908	0	33352	
2909	0	33320	
2910	0	33304	
2911	0	33258	
2912	0	33192	
2913	0	33152	
2914	0	33112	
2915	0	33104	
2916	0	33060	
2917	0	33054	
2918	0	33036	
2919	0	33018	
2920	0	33028	
2921	0	33048	
2922	0	33016	
2923	0	32944	
2924	0	32892	
2925	0	32896	
2926	0	32928	
2927	0	32912	
2928	0	32872	
2929	0	32800	
2930	0	32776	
2931	0	32776	
2932	0	32742	
2933	0	32654	
2934	0	32620	
2935	0	32602	
2936	0	32592	
2937	0	32556	
2938	0	32512	
2939	0	32428	
2940	0	32320	
2941	0	32272	
2942	0	32244	
2943	0	32224	
2944	0	32252	
2945	0	32296	
2946	0	32332	
2947	0	32372	
2948	0	32392	
2949	0	32420	
2950	0	32448	
2951	0	32456	
2952	0	32448	
2953	0	32412	
2954	0	32376	
2955	0	32354	
2956	0	32360	
2957	0	32388	
2958	0	32420	
2959	0	32408	
2960	0	32400	
2961	0	32412	
2962	0	32444	
2963	0	32488	
2964	0	32520	
2965	0	32496	
2966	0	32488	
2967	0	32460	
2968	0	32412	
2969	0	32400	
2970	0	32436	
2971	0	32448	
2972	0	32486	
2973	0	32484	
2974	0	32450	
2975	0	32452	
2976	0	32460	
2977	0	32424	
2978	0	32413	
2979	0	32448	
2980	0	32448	
2981	0	32374	
2982	0	32320	
2983	0	32320	
2984	0	32344	
2985	0	32364	
2986	0	32352	
2987	0	32400	
2988	0	32416	
2989	0	32432	
2990	0	32492	
2991	0	32536	
2992	0	32568	
2993	0	32576	
2994	0	32564	
2995	0	32538	
2996	0	32466	
2997	0	32448	
2998	0	32456	
2999	0	32432	
3000	0	32480	
3001	0	32546	
3002	0	32624	
3003	0	32696	
3004	0	32740	
3005	0	32760	
3006	0	32768	
3007	0	32756	
3008	0	32704	
3009	0	32652	
3010	0	32628	
3011	0	32636	
3012	0	32628	
3013	0	32600	
3014	0	32504	
3015	0	32416	
3016	0	32356	
3017	0	32312	
3018	0	32362	
3019	0	32588	
3020	0	32858	
3021	0	33188	
3022	0	33604	
3023	0	33944	
3024	0	34236	
3025	0	34480	
3026	0	34692	
3027	0	34968	
3028	0	35288	
3029	0	35868	
3030	0	36628	
3031	0	37440	
3032	0	38336	
3033	0	39364	
3034	0	40672	
3035	0	42124	
3036	0	43616	
3037	0	45088	
3038	0	46696	
3039	0	48320	
3040	0	49896	
3041	0	51372	
3042	0	52640	
3043	0	53688	
3044	0	54624	
3045	0	55736	
3046	0	56908	
3047	0	57920	
3048	0	58484	
3049	0	58216	
3050	0	56708	
3051	0	54088	
3052	0	50768	
3053	0	47016	
3054	0	43152	
3055	0	39528	
3056	0	36444	
3057	0	34128	
3058	0	32576	
3059	0	31596	
3060	0	31044	
3061	0	30732	
3062	0	30528	
3063	0	30428	
3064	0	30424	
3065	0	30436	
3066	0	30392	
3067	0	30368	
3068	0	30412	
3069	0	30484	
3070	0	30544	
3071	0	30590	
3072	0	30648	
3073	0	30812	
3074	0	31024	
3075	0	31228	
3076	0	31392	
3077	0	31484	
3078	0	31552	
3079	0	31598	
3080	0	31624	
3081	0	31608	
3082	0	31576	
3083	0	31520	
3084	0	31488	
3085	0	31444	
3086	0	31376	
3087	0	31244	
3088	0	31072	
3089	0	30944	
3090	0	30928	
3091	0	30932	
3092	0	30960	
3093	0	30944	
3094	0	30896	
3095	0	30848	
3096	0	30788	
3097	0	30776	
3098	0	30786	
3099	0	30808	
3100	0	30800	
3101	0	30836	
3102	0	30944	
3103	0	31048	
3104	0	31096	
3105	0	31076	
3106	0	31048	
3107	0	31108	
3108	0	31192	
3109	0	31240	
3110	0	31224	
3111	0	31224	
3112	0	31208	
3113	0	31196	
3114	0	31208	
3115	0	31232	
3116	0	31252	
3117	0	31282	
3118	0	31332	
3119	0	31364	
3120	0	31368	
3121	0	31392	
3122	0	31448	
3123	0	31520	
3124	0	31520	
3125	0	31504	
3126	0	31464	
3127	0	31412	
3128	0	31448	
3129	0	31464	
3130	0	31472	
3131	0	31456	
3132	0	31440	
3133	0	31468	
3134	0	31504	
3135	0	31504	
3136	0	31516	
3137	0	31600	
3138	0	31660	
3139	0	31696	
3140	0	31716	
3141	0	31712	
3142	0	31748	
3143	0	31800	
3144	0	31820	
3145	0	31866	
3146	0	31904	
3147	0	31924	
3148	0	31980	
3149	0	32024	
3150	0	32048	
3151	0	32096	
3152	0	32112	
3153	0	32096	
3154	0	32108	
3155	0	32140	
3156	0	32176	
3157	0	32224	
3158	0	32252	
3159	0	32332	
3160	0	32408	
3161	0	32464	
3162	0	32472	
3163	0	32448	
3164	0	32392	
3165	0	32376	
3166	0	32396	
3167	0	32444	
3168	0	32504	
3169	0	32544	
3170	0	32640	
3171	0	32676	
3172	0	32716	
3173	0	32748	
3174	0	32774	
3175	0	32832	
3176	0	32876	
3177	0	32940	
3178	0	32972	
3179	0	32988	
3180	0	33036	
3181	0	33024	
3182	0	33020	
3183	0	32980	
3184	0	32976	
3185	0	32964	
3186	0	32968	
3187	0	33024	
3188	0	33018	
3189	0	33024	
3190	0	33008	
3191	0	32984	
3192	0	32972	
3193	0	32976	
3194	0	33016	
3195	0	33048	
3196	0	33092	
3197	0	33144	
3198	0	33152	
3199	0	33148	
3200	0	33168	
3201	0	33218	
3202	0	33248	
3203	0	33304	
3204	0	33332	
3205	0	33396	
3206	0	33452	
3207	0	33504	
3208	0	33504	
3209	0	33516	
3210	0	33548	
3211	0	33536	
3212	0	33508	
3213	0	33458	
3214	0	33444	
3215	0	33472	
3216	0	33492	
3217	0	33498	
3218	0	33520	
3219	0	33524	
3220	0	33564	
3221	0	33640	
3222	0	33680	
3223	0	33680	
3224	0	33656	
3225	0	33616	
3226	0	33608	
3227	0	33608	
3228	0	33656	
3229	0	33740	
3230	0	33878	
3231	0	33956	
3232	0	33960	
3233	0	33944	
3234	0	33920	
3235	0	33952	
3236	0	33960	
3237	0	33946	
3238	0	33976	
3239	0	34064	
3240	0	34148	
3241	0	34216	
3242	0	34272	
3243	0	34304	
3244	0	34308	
3245	0	34296	
3246	0	34316	
3247	0	34368	
3248	0	34400	
3249	0	34390	
3250	0	34378	
3251	0	34372	
3252	0	34352	
3253	0	34344	
3254	0	34324	
3255	0	34316	
3256	0	34336	
3257	0	34352	
3258	0	34376	
3259	0	34368	
3260	0	34400	
3261	0	34444	
3262	0	34468	
3263	0	34494	
3264	0	34512	
3265	0	34512	
3266	0	34540	
3267	0	34568	
3268	0	34568	
3269	0	34588	
3270	0	34552	
3271	0	34532	
3272	0	34568	
3273	0	34592	
3274	0	34652	
3275	0	34740	
3276	0	34792	
3277	0	34776	
3278	0	34772	
3279	0	34772	
3280	0	34788	
3281	0	34876	
3282	0	34952	
3283	0	35004	
3284	0	35028	
3285	0	35016	
3286	0	35012	
3287	0	35052	
3288	0	35092	
3289	0	35100	
3290	0	35092	
3291	0	35080	
3292	0	35068	
3293	0	35008	
3294	0	34984	
3295	0	35024	
3296	0	35064	
3297	0	35064	
3298	0	35112	
3299	0	35120	
3300	0	35084	
3301	0	35056	
3302	0	35020	
3303	0	35012	
3304	0	35028	
3305	0	35052	
3306	0	35088	
3307	0	35112	
3308	0	35072	
3309	0	35004	
3310	0	34986	
3311	0	34994	
3312	0	34972	
3313	0	34970	
3314	0	34944	
3315	0	34916	
3316	0	34848	
3317	0	34748	
3318	0	34628	
3319	0	34536	
3320	0	34448	
3321	0	34348	
3322	0	34240	
3323	0	34116	
3324	0	34016	
3325	0	33910	
3326	0	33772	
3327	0	33660	
3328	0	33540	
3329	0	33408	
3330	0	33272	
3331	0	33152	
3332	0	33064	
3333	0	33004	
3334	0	32884	
3335	0	32744	
3336	0	32648	
3337	0	32520	
3338	0	32392	
3339	0	32256	
3340	0	32180	
3341	0	32128	
3342	0	32064	
3343	0	31980	
3344	0	31896	
3345	0	31768	
3346	0	31630	
3347	0	31522	
3348	0	31496	
3349	0	31484	
3350	0	31442	
3351	0	31396	
3352	0	31272	
3353	0	31124	
3354	0	31070	
3355	0	31056	
3356	0	31008	
3357	0	30920	
3358	0	30792	
3359	0	30664	
3360	0	30616	
3361	0	30600	
3362	0	30624	
3363	0	30652	
3364	0	30624	
3365	0	30528	
3366	0	30464	
3367	0	30440	
3368	0	30452	
3369	0	30440	
3370	0	30412	
3371	0	30388	
3372	0	30380	
3373	0	30324	
3374	0	30276	
3375	0	30240	
3376	0	30200	
3377	0	30180	
3378	0	30224	
3379	0	30316	
3380	0	30364	
3381	0	30380	
3382	0	30392	
3383	0	30400	
3384	0	30416	
3385	0	30372	
3386	0	30340	
3387	0	30288	
3388	0	30248	
3389	0	30210	
3390	0	30220	
3391	0	30236	
3392	0	30268	
3393	0	30292	
3394	0	30272	
3395	0	30248	
3396	0	30192	
3397	0	30170	
3398	0	30192	
3399	0	30240	
3400	0	30240	
3401	0	30240	
3402	0	30260	
3403	0	30296	
3404	0	30304	
3405	0	30328	
3406	0	30344	
3407	0	30344	
3408	0	30376	
3409	0	30428	
3410	0	30504	
3411	0	30576	
3412	0	30628	
3413	0	30664	
3414	0	30740	
3415	0	30804	
3416	0	30820	
3417	0	30788	
3418	0	30784	
3419	0	30780	
3420	0	30784	
3421	0	30768	
3422	0	30724	
3423	0	30700	
3424	0	30688	
3425	0	30696	
3426	0	30728	
3427	0	30824	
3428	0	30920	
3429	0	30928	
3430	0	30904	
3431	0	30900	
3432	0	30832	
3433	0	30816	
3434	0	30844	
3435	0	30896	
3436	0	30924	
3437	0	30904	
3438	0	30900	
3439	0	30896	
3440	0	30900	
3441	0	30936	
3442	0	31020	
3443	0	31092	
3444	0	31136	
3445	0	31160	
3446	0	31168	
3447	0	31164	
3448	0	31180	
3449	0	31184	
3450	0	31176	
3451	0	31124	
3452	0	31132	
3453	0	31168	
3454	0	31232	
3455	0	31296	
3456	0	31336	
3457	0	31352	
3458	0	31308	
3459	0	31308	
3460	0	31344	
3461	0	31420	
3462	0	31480	
3463	0	31496	
3464	0	31428	
3465	0	31360	
3466	0	31316	
3467	0	31308	
3468	0	31328	
3469	0	31412	
3470	0	31440	
3471	0	31436	
3472	0	31404	
3473	0	31280	
3474	0	31192	
3475	0	31208	
3476	0	31290	
3477	0	31324	
3478	0	31320	
3479	0	31312	
3480	0	31312	
3481	0	31288	
3482	0	31280	
3483	0	31296	
3484	0	31332	
3485	0	31420	
3486	0	31484	
3487	0	31488	
3488	0	31476	
3489	0	31472	
3490	0	31472	
3491	0	31500	
3492	0	31480	
3493	0	31468	
3494	0	31466	
3495	0	31440	
3496	0	31374	
3497	0	31352	
3498	0	31316	
3499	0	31274	
3500	0	31296	
3501	0	31320	
3502	0	31328	
3503	0	31392	
3504	0	31400	
3505	0	31400	
3506	0	31400	
3507	0	31456	
3508	0	31568	
3509	0	31624	
3510	0	31656	
3511	0	31628	
3512	0	31592	
3513	0	31648	
3514	0	31672	
3515	0	31656	
3516	0	31604	
3517	0	31588	
3518	0	31560	
3519	0	31528	
3520	0	31504	
3521	0	31476	
3522	0	31460	
3523	0	31508	
3524	0	31520	
3525	0	31440	
3526	0	31368	
3527	0	31344	
3528	0	31372	
3529	0	31424	
3530	0	31500	
3531	0	31592	
3532	0	31660	
3533	0	31708	
3534	0	31728	
3535	0	31724	
3536	0	31726	
3537	0	31736	
3538	0	31740	
3539	0	31716	
3540	0	31720	
3541	0	31764	
3542	0	31788	
3543	0	31808	
3544	0	31848	
3545	0	31848	
3546	0	31856	
3547	0	31892	
3548	0	31896	
3549	0	31868	
3550	0	31848	
3551	0	31864	
3552	0	31896	
3553	0	31908	
3554	0	31952	
3555	0	32040	
3556	0	32064	
3557	0	32072	
3558	0	32020	
3559	0	32010	
3560	0	31996	
3561	0	32004	
3562	0	32016	
3563	0	31996	
3564	0	31952	
3565	0	31972	
3566	0	32016	
3567	0	32016	
3568	0	32024	
3569	0	32052	
3570	0	32042	
3571	0	32016	
3572	0	31968	
3573	0	31916	
3574	0	31860	
3575	0	31872	
3576	0	31928	
3577	0	31962	
3578	0	31968	
3579	0	31968	
3580	0	31936	
3581	0	31852	
3582	0	31800	
3583	0	31808	
3584	0	31800	
3585	0	31784	
3586	0	31800	
3587	0	31796	
3588	0	31788	
3589	0	31812	
3590	0	31856	
3591	0	31884	
3592	0	31904	
3593	0	31984	
3594	0	32032	
3595	0	32032	
3596	0	32016	
3597	0	31972	
3598	0	31976	
3599	0	32080	
3600	0	32128	
3601	0	32122	
3602	0	32112	
3603	0	32092	
3604	0	32084	
3605	0	32088	
3606	0	32122	
3607	0	32182	
3608	0	32200	
3609	0	32186	
3610	0	32212	
3611	0	32268	
3612	0	32304	
3613	0	32312	
3614	0	32336	
3615	0	32356	
3616	0	32384	
3617	0	32408	
3618	0	32364	
3619	0	32276	
3620	0	32226	
3621	0	32168	
3622	0	32160	
3623	0	32192	
3624	0	32180	
3625	0	32148	
3626	0	32104	
3627	0	32100	
3628	0	32104	
3629	0	32104	
3630	0	32100	
3631	0	32088	
3632	0	32084	
3633	0	32092	
3634	0	32116	
3635	0	32208	
3636	0	32296	
3637	0	32372	
3638	0	32396	
3639	0	32432	
3640	0	32460	
3641	0	32432	
3642	0	32436	
3643	0	32460	
3644	0	32492	
3645	0	32492	
3646	0	32472	
3647	0	32472	
3648	0	32520	
3649	0	32564	
3650	0	32554	
3651	0	32488	
3652	0	32482	
3653	0	32488	
3654	0	32496	
3655	0	32536	
3656	0	32576	
3657	0	32590	
3658	0	32616	
3659	0	32636	
3660	0	32620	
3661	0	32628	
3662	0	32634	
3663	0	32624	
3664	0	32612	
3665	0	32600	
3666	0	32600	
3667	0	32648	
3668	0	32676	
3669	0	32640	
3670	0	32600	
3671	0	32620	
3672	0	32624	
3673	0	32640	
3674	0	32644	
3675	0	32624	
3676	0	32616	
3677	0	32608	
3678	0	32598	
3679	0	32660	
3680	0	32712	
3681	0	32736	
3682	0	32708	
3683	0	32664	
3684	0	32660	
3685	0	32680	
3686	0	32700	
3687	0	32712	
3688	0	32712	
3689	0	32760	
3690	0	32768	
3691	0	32788	
3692	0	32796	
3693	0	32792	
3694	0	32762	
3695	0	32716	
3696	0	32688	
3697	0	32666	
3698	0	32640	
3699	0	32684	
3700	0	32800	
3701	0	32920	
3702	0	33002	
3703	0	33052	
3704	0	33096	
3705	0	33098	
3706	0	33104	
3707	0	33104	
3708	0	33180	
3709	0	33316	
3710	0	33452	
3711	0	33560	
3712	0	33648	
3713	0	33704	
3714	0	33776	
3715	0	33892	
3716	0	34024	
3717	0	34092	
3718	0	34156	
3719	0	34244	
3720	0	34324	
3721	0	34400	
3722	0	34504	
3723	0	34590	
3724	0	34604	
3725	0	34512	
3726	0	34436	
3727	0	34404	
3728	0	34396	
3729	0	34368	
3730	0	34288	
3731	0	34196	
3732	0	34088	
3733	0	34000	
3734	0	33920	
3735	0	33752	
3736	0	33616	
3737	0	33508	
3738	0	33412	
3739	0	33368	
3740	0	33328	
3741	0	33292	
3742	0	33256	
3743	0	33228	
3744	0	33224	
3745	0	33240	
3746	0	33232	
3747	0	33196	
3748	0	33180	
3749	0	33158	
3750	0	33100	
3751	0	33048	
3752	0	33004	
3753	0	32968	
3754	0	32990	
3755	0	33048	
3756	0	33060	
3757	0	33072	
3758	0	33072	
3759	0	33050	
3760	0	33036	
3761	0	33016	
3762	0	32968	
3763	0	32880	
3764	0	32770	
3765	0	32692	
3766	0	32596	
3767	0	32492	
3768	0	32412	
3769	0	32344	
3770	0	32276	
3771	0	32224	
3772	0	32108	
3773	0	32056	
3774	0	32056	
3775	0	32044	
3776	0	32032	
3777	0	32040	
3778	0	32064	
3779	0	32076	
3780	0	32072	
3781	0	32060	
3782	0	32060	
3783	0	32016	
3784	0	32008	
3785	0	32072	
3786	0	32132	
3787	0	32160	
3788	0	32164	
3789	0	32124	
3790	0	32132	
3791	0	32190	
3792	0	32248	
3793	0	32292	
3794	0	32268	
3795	0	32232	
3796	0	32236	
3797	0	32236	
3798	0	32200	
3799	0	32181	
3800	0	32160	
3801	0	32092	
3802	0	32072	
3803	0	32036	
3804	0	32060	
3805	0	32080	
3806	0	32080	
3807	0	32044	
3808	0	32052	
3809	0	32064	
3810	0	32088	
3811	0	32132	
3812	0	32160	
3813	0	32140	
3814	0	32156	
3815	0	32184	
3816	0	32188	
3817	0	32216	
3818	0	32220	
3819	0	32196	
3820	0	32188	
3821	0	32224	
3822	0	32276	
3823	0	32324	
3824	0	32328	
3825	0	32306	
3826	0	32328	
3827	0	32372	
3828	0	32340	
3829	0	32328	
3830	0	32360	
3831	0	32384	
3832	0	32324	
3833	0	32280	
3834	0	32288	
3835	0	32312	
3836	0	32330	
3837	0	32340	
3838	0	32368	
3839	0	32368	
3840	0	32368	
3841	0	32424	
3842	0	32508	
3843	0	32618	
3844	0	32684	
3845	0	32704	
3846	0	32760	
3847	0	32832	
3848	0	32864	
3849	0	32792	
3850	0	32576	
3851	0	32372	
3852	0	32228	
3853	0	32200	
3854	0	32332	
3855	0	32652	
3856	0	32928	
3857	0	33216	
3858	0	33548	
3859	0	33858	
3860	0	34128	
3861	0	34248	
3862	0	34324	
3863	0	34488	
3864	0	34816	
3865	0	35400	
3866	0	36170	
3867	0	37096	
3868	0	38200	
3869	0	39412	
3870	0	40856	
3871	0	42436	
3872	0	44064	
3873	0	45748	
3874	0	47448	
3875	0	49204	
3876	0	51068	
3877	0	52732	
3878	0	54196	
3879	0	55422	
3880	0	56488	
3881	0	57568	
3882	0	58636	
3883	0	59572	
3884	0	59996	
3885	0	59584	
3886	0	58080	
3887	0	55436	
3888	0	51944	
3889	0	47976	
3890	0	43840	
3891	0	39952	
3892	0	36492	
3893	0	33748	
3894	0	31880	
3895	0	30684	
3896	0	29864	
3897	0	29320	
3898	0	29024	
3899	0	28850	
3900	0	28830	
3901	0	28992	
3902	0	29232	
3903	0	29416	
3904	0	29608	
3905	0	29812	
3906	0	30008	
3907	0	30100	
3908	0	30192	
3909	0	30316	
3910	0	30474	
3911	0	30660	
3912	0	30820	
3913	0	30980	
3914	0	31044	
3915	0	31052	
3916	0	31056	
3917	0	31084	
3918	0	31112	
3919	0	31132	
3920	0	31176	
3921	0	31172	
3922	0	31114	
3923	0	31076	
3924	0	31032	
3925	0	31012	
3926	0	31020	
3927	0	31072	
3928	0	31096	
3929	0	31104	
3930	0	31064	
3931	0	31008	
3932	0	30944	
3933	0	30912	
3934	0	30896	
3935	0	30860	
3936	0	30806	
3937	0	30752	
3938	0	30744	
3939	0	30784	
3940	0	30840	
3941	0	30952	
3942	0	31096	
3943	0	31168	
3944	0	31200	
3945	0	31252	
3946	0	31272	
3947	0	31304	
3948	0	31344	
3949	0	31320	
3950	0	31296	
3951	0	31280	
3952	0	31272	
3953	0	31308	
3954	0	31320	
3955	0	31312	
3956	0	31344	
3957	0	31418	
3958	0	31448	
3959	0	31428	
3960	0	31416	
3961	0	31440	
3962	0	31520	
3963	0	31576	
3964	0	31552	
3965	0	31528	
3966	0	31556	
3967	0	31568	
3968	0	31552	
3969	0	31540	
3970	0	31520	
3971	0	31504	
3972	0	31520	
3973	0	31548	
3974	0	31576	
3975	0	31648	
3976	0	31692	
3977	0	31708	
3978	0	31704	
3979	0	31792	
3980	0	31896	
3981	0	32000	
3982	0	32052	
3983	0	32108	
3984	0	32162	
3985	0	32248	
3986	0	32296	
3987	0	32320	
3988	0	32320	
3989	0	32256	
3990	0	32176	
3991	0	32200	
3992	0	32256	
3993	0	32276	
3994	0	32234	
3995	0	32196	
3996	0	32192	
3997	0	32256	
3998	0	32324	
3999	0	32364	
4000	0	32336	
4001	0	32368	
4002	0	32476	
4003	0	32566	
4004	0	32608	
4005	0	32660	
4006	0	32680	
4007	0	32712	
4008	0	32744	
4009	0	32724	
4010	0	32656	
4011	0	32640	
4012	0	32604	
4013	0	32540	
4014	0	32510	
4015	0	32512	
4016	0	32480	
4017	0	32464	
4018	0	32516	
4019	0	32612	
4020	0	32700	
4021	0	32756	
4022	0	32788	
4023	0	32824	
4024	0	32824	
4025	0	32828	
4026	0	32820	
4027	0	32818	
4028	0	32796	
4029	0	32832	
4030	0	32858	
4031	0	32916	
4032	0	32984	
4033	0	32972	
4034	0	33008	
4035	0	33056	
4036	0	33120	
4037	0	33168	
4038	0	33226	
4039	0	33264	
4040	0	33320	
4041	0	33380	
4042	0	33448	
4043	0	33448	
4044	0	33472	
4045	0	33484	
4046	0	33444	
4047	0	33426	
4048	0	33458	
4049	0	33516	
4050	0	33556	
4051	0	33544	
4052	0	33552	
4053	0	33594	
4054	0	33624	
4055	0	33648	
4056	0	33668	
4057	0	33628	
4058	0	33616	
4059	0	33612	
4060	0	33616	
4061	0	33612	
4062	0	33632	
4063	0	33592	
4064	0	33548	
4065	0	33588	
4066	0	33626	
4067	0	33616	
4068	0	33600	
4069	0	33552	
4070	0	33512	
4071	0	33550	
4072	0	33620	
4073	0	33692	
4074	0	33744	
4075	0	33776	
4076	0	33868	
4077	0	33972	
4078	0	34032	
4079	0	34028	
4080	0	34000	
4081	0	33970	
4082	0	33956	
4083	0	33964	
4084	0	33980	
4085	0	34016	
4086	0	34030	
4087	0	34084	
4088	0	34140	
4089	0	34212	
4090	0	34286	
4091	0	34356	
4092	0	34408	
4093	0	34448	
4094	0	34496	
4095	0	34488	
4096	0	34508	
4097	0	34548	
4098	0	34544	
4099	0	34544	
4100	0	34544	
4101	0	34524	
4102	0	34520	
4103	0	34492	
4104	0	34464	
4105	0	34496	
4106	0	34524	
4107	0	34540	
4108	0	34540	
4109	0	34532	
4110	0	34556	
4111	0	34586	
4112	0	34636	
4113	0	34688	
4114	0	34724	
4115	0	34736	
4116	0	34756	
4117	0	34776	
4118	0	34794	
4119	0	34780	
4120	0	34772	
4121	0	34748	
4122	0	34768	
4123	0	34760	
4124	0	34760	
4125	0	34816	
4126	0	34848	
4127	0	34832	
4128	0	34872	
4129	0	34928	
4130	0	34992	
4131	0	35044	
4132	0	35024	
4133	0	35040	
4134	0	35032	
4135	0	35064	
4136	0	35040	
4137	0	35008	
4138	0	35016	
4139	0	35040	
4140	0	35024	
4141	0	35000	
4142	0	34960	
4143	0	34952	
4144	0	34912	
4145	0	34840	
4146	0	34784	
4147	0	34692	
4148	0	34644	
4149	0	34612	
4150	0	34542	
4151	0	34456	
4152	0	34352	
4153	0	34272	
4154	0	34184	
4155	0	34084	
4156	0	34000	
4157	0	33896	
4158	0	33832	
4159	0	33760	
4160	0	33664	
4161	0	33572	
4162	0	33456	
4163	0	33340	
4164	0	33200	
4165	0	33068	
4166	0	32900	
4167	0	32736	
4168	0	32552	
4169	0	32364	
4170	0	32224	
4171	0	32132	
4172	0	32028	
4173	0	31960	
4174	0	31908	
4175	0	31852	
4176	0	31792	
4177	0	31708	
4178	0	31648	
4179	0	31608	
4180	0	31560	
4181	0	31482	
4182	0	31380	
4183	0	31272	
4184	0	31140	
4185	0	31044	
4186	0	30936	
4187	0	30844	
4188	0	30764	
4189	0	30672	
4190	0	30592	
4191	0	30497	
4192	0	30432	
4193	0	30372	
4194	0	30324	
4195	0	30300	
4196	0	30236	
4197	0	30184	
4198	0	30156	
4199	0	30152	
4200	0	30124	
4201	0	30052	
4202	0	30004	
4203	0	29968	
4204	0	29861	
4205	0	29760	
4206	0	29640	
4207	0	29548	
4208	0	29488	
4209	0	29468	
4210	0	29532	
4211	0	29610	
4212	0	29708	
4213	0	29752	
4214	0	29728	
4215	0	29672	
4216	0	29608	
4217	0	29562	
4218	0	29536	
4219	0	29568	
4220	0	29608	
4221	0	29648	
4222	0	29648	
4223	0	29642	
4224	0	29632	
4225	0	29676	
4226	0	29688	
4227	0	29706	
4228	0	29720	
4229	0	29784	
4230	0	29860	
4231	0	29912	
4232	0	29948	
4233	0	29984	
4234	0	29984	
4235	0	29972	
4236	0	29960	
4237	0	30036	
4238	0	30076	
4239	0	30084	
4240	0	30120	
4241	0	30226	
4242	0	30304	
4243	0	30296	
4244	0	30292	
4245	0	30344	
4246	0	30404	
4247	0	30440	
4248	0	30448	
4249	0	30460	
4250	0	30444	
4251	0	30476	
4252	0	30512	
4253	0	30540	
4254	0	30548	
4255	0	30544	
4256	0	30564	
4257	0	30584	
4258	0	30650	
4259	0	30688	
4260	0	30684	
4261	0	30698	
4262	0	30784	
4263	0	30880	
4264	0	30944	
4265	0	30952	
4266	0	30916	
4267	0	30904	
4268	0	30900	
4269	0	30952	
4270	0	31036	
4271	0	31088	
4272	0	31096	
4273	0	31144	
4274	0	31192	
4275	0	31296	
4276	0	31336	
4277	0	31328	
4278	0	31328	
4279	0	31348	
4280	0	31340	
4281	0	31310	
4282	0	31248	
4283	0	31220	
4284	0	31252	
4285	0	31320	
4286	0	31400	
4287	0	31472	
4288	0	31508	
4289	0	31504	
4290	0	31476	
4291	0	31458	
4292	0	31400	
4293	0	31360	
4294	0	31320	
4295	0	31288	
4296	0	31272	
4297	0	31264	
4298	0	31312	
4299	0	31418	
4300	0	31512	
4301	0	31564	
4302	0	31608	
4303	0	31588	
4304	0	31536	
4305	0	31500	
4306	0	31472	
4307	0	31488	
4308	0	31476	
4309	0	31508	
4310	0	31512	
4311	0	31538	
4312	0	31540	
4313	0	31564	
4314	0	31560	
4315	0	31586	
4316	0	31636	
4317	0	31644	
4318	0	31612	
4319	0	31604	
4320	0	31620	
4321	0	31672	
4322	0	31744	
4323	0	31778	
4324	0	31768	
4325	0	31712	
4326	0	31700	
4327	0	31664	
4328	0	31644	
4329	0	31632	
4330	0	31648	
4331	0	31684	
4332	0	31672	
4333	0	31616	
4334	0	31568	
4335	0	31548	
4336	0	31560	
4337	0	31576	
4338	0	31560	
4339	0	31520	
4340	0	31496	
4341	0	31492	
4342	0	31488	
4343	0	31500	
4344	0	31480	
4345	0	31476	
4346	0	31496	
4347	0	31512	
4348	0	31512	
4349	0	31540	
4350	0	31552	
4351	0	31516	
4352	0	31440	
4353	0	31428	
4354	0	31456	
4355	0	31460	
4356	0	31464	
4357	0	31544	
4358	0	31624	
4359	0	31660	
4360	0	31692	
4361	0	31704	
4362	0	31676	
4363	0	31684	
4364	0	31720	
4365	0	31800	
4366	0	31844	
4367	0	31888	
4368	0	31900	
4369	0	31908	
4370	0	31888	
4371	0	31840	
4372	0	31792	
4373	0	31760	
4374	0	31716	
4375	0	31708	
4376	0	31708	
4377	0	31768	
4378	0	31872	
4379	0	31984	
4380	0	32040	
4381	0	32064	
4382	0	32128	
4383	0	32198	
4384	0	32216	
4385	0	32204	
4386	0	32140	
4387	0	32076	
4388	0	32052	
4389	0	32064	
4390	0	32008	
4391	0	31928	
4392	0	31944	
4393	0	31964	
4394	0	31996	
4395	0	32056	
4396	0	32080	
4397	0	32024	
4398	0	31988	
4399	0	31972	
4400	0	32028	
4401	0	32064	
4402	0	32042	
4403	0	32024	
4404	0	32012	
4405	0	32052	
4406	0	32064	
4407	0	32056	
4408	0	32048	
4409	0	31992	
4410	0	31968	
4411	0	31984	
4412	0	31996	
4413	0	32032	
4414	0	32048	
4415	0	32040	
4416	0	32044	
4417	0	32088	
4418	0	32092	
4419	0	32040	
4420	0	31996	
4421	0	32004	
4422	0	32024	
4423	0	32102	
4424	0	32154	
4425	0	32224	
4426	0	32256	
4427	0	32288	
4428	0	32332	
4429	0	32404	
4430	0	32436	
4431	0	32372	
4432	0	32340	
4433	0	32336	
4434	0	32352	
4435	0	32336	
4436	0	32344	
4437	0	32372	
4438	0	32366	
4439	0	32310	
4440	0	32240	
4441	0	32156	
4442	0	32106	
4443	0	32072	
4444	0	32072	
4445	0	32088	
4446	0	32168	
4447	0	32248	
4448	0	32256	
4449	0	32308	
4450	0	32300	
4451	0	32304	
4452	0	32284	
4453	0	32296	
4454	0	32352	
4455	0	32432	
4456	0	32454	
4457	0	32432	
4458	0	32440	
4459	0	32508	
4460	0	32584	
4461	0	32668	
4462	0	32730	
4463	0	32808	
4464	0	32874	
4465	0	32924	
4466	0	32948	
4467	0	32928	
4468	0	32936	
4469	0	32944	
4470	0	32922	
4471	0	32892	
4472	0	32816	
4473	0	32704	
4474	0	32664	
4475	0	32656	
4476	0	32632	
4477	0	32608	
4478	0	32642	
4479	0	32660	
4480	0	32602	
4481	0	32608	
4482	0	32736	
4483	0	32840	
4484	0	32928	
4485	0	33044	
4486	0	33176	
4487	0	33284	
4488	0	33352	
4489	0	33414	
4490	0	33488	
4491	0	33532	
4492	0	33568	
4493	0	33636	
4494	0	33720	
4495	0	33808	
4496	0	33896	
4497	0	33976	
4498	0	34068	
4499	0	34160	
4500	0	34256	
4501	0	34328	
4502	0	34312	
4503	0	34272	
4504	0	34212	
4505	0	34132	
4506	0	33996	
4507	0	33912	
4508	0	33856	
4509	0	33760	
4510	0	33660	
4511	0	33600	
4512	0	33616	
4513	0	33632	
4514	0	33640	
4515	0	33596	
4516	0	33524	
4517	0	33448	
4518	0	33440	
4519	0	33388	
4520	0	33340	
4521	0	33296	
4522	0	33220	
4523	0	33152	
4524	0	33126	
4525	0	33096	
4526	0	33028	
4527	0	32960	
4528	0	32892	
4529	0	32888	
4530	0	32856	
4531	0	32864	
4532	0	32896	
4533	0	32924	
4534	0	32912	
4535	0	32886	
4536	0	32892	
4537	0	32858	
4538	0	32776	
4539	0	32696	
4540	0	32704	
4541	0	32746	
4542	0	32744	
4543	0	32724	
4544	0	32704	
4545	0	32632	
4546	0	32576	
4547	0	32472	
4548	0	32400	
4549	0	32388	
4550	0	32400	
4551	0	32408	
4552	0	32436	
4553	0	32456	
4554	0	32484	
4555	0	32472	
4556	0	32488	
4557	0	32512	
4558	0	32496	
4559	0	32504	
4560	0	32508	
4561	0	32492	
4562	0	32468	
4563	0	32444	
4564	0	32452	
4565	0	32504	
4566	0	32552	
4567	0	32564	
4568	0	32524	
4569	0	32516	
4570	0	32540	
4571	0	32540	
4572	0	32544	
4573	0	32556	
4574	0	32544	
4575	0	32564	
4576	0	32596	
4577	0	32624	
4578	0	32690	
4579	0	32734	
4580	0	32736	
4581	0	32708	
4582	0	32612	
4583	0	32508	
4584	0	32492	
4585	0	32480	
4586	0	32442	
4587	0	32480	
4588	0	32532	
4589	0	32560	
4590	0	32604	
4591	0	32604	
4592	0	32554	
4593	0	32488	
4594	0	32492	
4595	0	32528	
4596	0	32598	
4597	0	32624	
4598	0	32578	
4599	0	32524	
4600	0	32468	
4601	0	32428	
4602	0	32348	
4603	0	32320	
4604	0	32356	
4605	0	32436	
4606	0	32516	
4607	0	32588	
4608	0	32588	
4609	0	32552	
4610	0	32592	
4611	0	32608	
4612	0	32588	
4613	0	32584	
4614	0	32584	
4615	0	32608	
4616	0	32652	
4617	0	32628	
4618	0	32548	
4619	0	32588	
4620	0	32696	
4621	0	32792	
4622	0	32842	
4623	0	32884	
4624	0	32882	
4625	0	32860	
4626	0	32816	
4627	0	32736	
4628	0	32600	
4629	0	32432	
4630	0	32272	
4631	0	32244	
4632	0	32424	
4633	0	32720	
4634	0	33012	
4635	0	33316	
4636	0	33672	
4637	0	34032	
4638	0	34368	
4639	0	34584	
4640	0	34828	
4641	0	35144	
4642	0	35516	
4643	0	36092	
4644	0	36868	
4645	0	37808	
4646	0	38892	
4647	0	40120	
4648	0	41572	
4649	0	43188	
4650	0	44844	
4651	0	46512	
4652	0	48272	
4653	0	50072	
4654	0	51816	
4655	0	53380	
4656	0	54672	
4657	0	55784	
4658	0	56820	
4659	0	58016	
4660	0	59184	
4661	0	60084	
4662	0	60484	
4663	0	59912	
4664	0	58046	
4665	0	55080	
4666	0	51360	
4667	0	47192	
4668	0	43012	
4669	0	39216	
4670	0	36080	
4671	0	33754	
4672	0	32172	
4673	0	31120	
4674	0	30432	
4675	0	29984	
4676	0	29680	
4677	0	29488	
4678	0	29440	
4679	0	29540	
4680	0	29700	
4681	0	29860	
4682	0	30016	
4683	0	30100	
4684	0	30188	
4685	0	30296	
4686	0	30404	
4687	0	30472	
4688	0	30568	
4689	0	30796	
4690	0	31072	
4691	0	31180	
4692	0	31180	
4693	0	31192	
4694	0	31256	
4695	0	31308	
4696	0	31386	
4697	0	31444	
4698	0	31472	
4699	0	31418	
4700	0	31324	
4701	0	31228	
4702	0	31114	
4703	0	31072	
4704	0	31096	
4705	0	31128	
4706	0	31136	
4707	0	31100	
4708	0	31060	
4709	0	31052	
4710	0	31108	
4711	0	31164	
4712	0	31200	
4713	0	31192	
4714	0	31144	
4715	0	31108	
4716	0	31104	
4717	0	31112	
4718	0	31120	
4719	0	31152	
4720	0	31160	
4721	0	31156	
4722	0	31172	
4723	0	31220	
4724	0	31253	
4725	0	31264	
4726	0	31336	
4727	0	31396	
4728	0	31424	
4729	0	31434	
4730	0	31452	
4731	0	31448	
4732	0	31460	
4733	0	31456	
4734	0	31452	
4735	0	31480	
4736	0	31480	
4737	0	31484	
4738	0	31484	
4739	0	31452	
4740	0	31444	
4741	0	31456	
4742	0	31508	
4743	0	31532	
4744	0	31560	
4745	0	31628	
4746	0	31674	
4747	0	31740	
4748	0	31824	
4749	0	31952	
4750	0	32052	
4751	0	32064	
4752	0	32084	
4753	0	32108	
4754	0	32116	
4755	0	32088	
4756	0	32040	
4757	0	32020	
4758	0	32048	
4759	0	32104	
4760	0	32168	
4761	0	32248	
4762	0	32282	
4763	0	32256	
4764	0	32252	
4765	0	32292	
4766	0	32320	
4767	0	32356	
4768	0	32360	
4769	0	32336	
4770	0	32336	
4771	0	32364	
4772	0	32400	
4773	0	32436	
4774	0	32460	
4775	0	32508	
4776	0	32544	
4777	0	32564	
4778	0	32576	
4779	0	32548	
4780	0	32544	
4781	0	32532	
4782	0	32528	
4783	0	32564	
4784	0	32624	
4785	0	32672	
4786	0	32728	
4787	0	32728	
4788	0	32816	
4789	0	32896	
4790	0	33004	
4791	0	33112	
4792	0	33130	
4793	0	33058	
4794	0	32972	
4795	0	32930	
4796	0	32932	
4797	0	32932	
4798	0	32942	
4799	0	32996	
4800	0	33008	
4801	0	32984	
4802	0	32992	
4803	0	33044	
4804	0	33068	
4805	0	33080	
4806	0	33124	
4807	0	33160	
4808	0	33176	
4809	0	33180	
4810	0	33192	
4811	0	33212	
4812	0	33260	
4813	0	33292	
4814	0	33328	
4815	0	33320	
4816	0	33360	
4817	0	33376	
4818	0	33420	
4819	0	33456	
4820	0	33496	
4821	0	33516	
4822	0	33570	
4823	0	33604	
4824	0	33600	
4825	0	33548	
4826	0	33506	
4827	0	33512	
4828	0	33504	
4829	0	33496	
4830	0	33564	
4831	0	33624	
4832	0	33676	
4833	0	33724	
4834	0	33732	
4835	0	33724	
4836	0	33712	
4837	0	33728	
4838	0	33740	
4839	0	33728	
4840	0	33736	
4841	0	33708	
4842	0	33684	
4843	0	33728	
4844	0	33800	
4845	0	33860	
4846	0	33892	
4847	0	33904	
4848	0	33900	
4849	0	33952	
4850	0	34000	
4851	0	33998	
4852	0	34012	
4853	0	34076	
4854	0	34136	
4855	0	34156	
4856	0	34156	
4857	0	34116	
4858	0	34064	
4859	0	34016	
4860	0	34052	
4861	0	34124	
4862	0	34176	
4863	0	34232	
4864	0	34304	
4865	0	34352	
4866	0	34362	
4867	0	34356	
4868	0	34376	
4869	0	34416	
4870	0	34444	
4871	0	34500	
4872	0	34592	
4873	0	34656	
4874	0	34664	
4875	0	34696	
4876	0	34716	
4877	0	34684	
4878	0	34678	
4879	0	34692	
4880	0	34714	
4881	0	34708	
4882	0	34726	
4883	0	34698	
4884	0	34716	
4885	0	34776	
4886	0	34796	
4887	0	34808	
4888	0	34832	
4889	0	34860	
4890	0	34876	
4891	0	34908	
4892	0	34932	
4893	0	34940	
4894	0	34964	
4895	0	35010	
4896	0	35060	
4897	0	35104	
4898	0	35136	
4899	0	35108	
4900	0	35104	
4901	0	35160	
4902	0	35212	
4903	0	35212	
4904	0	35220	
4905	0	35212	
4906	0	35160	
4907	0	35100	
4908	0	35048	
4909	0	34992	
4910	0	34952	
4911	0	34956	
4912	0	34944	
4913	0	34936	
4914	0	34956	
4915	0	34948	
4916	0	34912	
4917	0	34888	
4918	0	34852	
4919	0	34840	
4920	0	34816	
4921	0	34800	
4922	0	34800	
4923	0	34784	
4924	0	34744	
4925	0	34684	
4926	0	34652	
4927	0	34612	
4928	0	34536	
4929	0	34456	
4930	0	34364	
4931	0	34272	
4932	0	34208	
4933	0	34116	
4934	0	33984	
4935	0	33876	
4936	0	33728	
4937	0	33532	
4938	0	33396	
4939	0	33296	
4940	0	33200	
4941	0	33080	
4942	0	32924	
4943	0	32768	
4944	0	32640	
4945	0	32544	
4946	0	32428	
4947	0	32320	
4948	0	32192	
4949	0	32052	
4950	0	31924	
4951	0	31792	
4952	0	31684	
4953	0	31538	
4954	0	31372	
4955	0	31266	
4956	0	31176	
4957	0	31112	
4958	0	31020	
4959	0	30892	
4960	0	30816	
4961	0	30752	
4962	0	30728	
4963	0	30684	
4964	0	30564	
4965	0	30452	
4966	0	30308	
4967	0	30208	
4968	0	30112	
4969	0	30048	
4970	0	30010	
4971	0	29968	
4972	0	29932	
4973	0	29888	
4974	0	29844	
4975	0	29796	
4976	0	29798	
4977	0	29740	
4978	0	29692	
4979	0	29632	
4980	0	29600	
4981	0	29580	
4982	0	29580	
4983	0	29568	
4984	0	29592	
4985	0	29600	
4986	0	29620	
4987	0	29608	
4988	0	29580	
4989	0	29568	
4990	0	29552	
4991	0	29524	
4992	0	29480	
4993	0	29488	
4994	0	29472	
4995	0	29504	
4996	0	29564	
4997	0	29640	
4998	0	29676	
4999	0	29668	
5000	0	29680	
5001	0	29688	
5002	0	29712	
5003	0	29752	
5004	0	29788	
5005	0	29824	
5006	0	29836	
5007	0	29844	
5008	0	29824	
5009	0	29800	
5010	0	29792	
5011	0	29864	
5012	0	29892	
5013	0	29888	
5014	0	29876	
5015	0	29852	
5016	0	29796	
5017	0	29828	
5018	0	29856	
5019	0	29860	
5020	0	29908	
5021	0	29952	
5022	0	30012	
5023	0	30048	
5024	0	30096	
5025	0	30184	
5026	0	30252	
5027	0	30308	
5028	0	30356	
5029	0	30344	
5030	0	30344	
5031	0	30308	
5032	0	30290	
5033	0	30304	
5034	0	30296	
5035	0	30332	
5036	0	30392	
5037	0	30440	
5038	0	30444	
5039	0	30448	
5040	0	30464	
5041	0	30472	
5042	0	30496	
5043	0	30572	
5044	0	30684	
5045	0	30768	
5046	0	30816	
5047	0	30866	
5048	0	30876	
5049	0	30888	
5050	0	30888	
5051	0	30881	
5052	0	30884	
5053	0	30912	
5054	0	30932	
5055	0	30952	
5056	0	30976	
5057	0	30994	
5058	0	31016	
5059	0	31044	
5060	0	31060	
5061	0	31076	
5062	0	31060	
5063	0	31044	
5064	0	31044	
5065	0	31052	
5066	0	31088	
5067	0	31096	
5068	0	31116	
5069	0	31120	
5070	0	31072	
5071	0	31048	
5072	0	31098	
5073	0	31168	
5074	0	31244	
5075	0	31244	
5076	0	31200	
5077	0	31200	
5078	0	31204	
5079	0	31236	
5080	0	31296	
5081	0	31368	
5082	0	31392	
5083	0	31416	
5084	0	31476	
5085	0	31508	
5086	0	31456	
5087	0	31400	
5088	0	31396	
5089	0	31440	
5090	0	31504	
5091	0	31556	
5092	0	31564	
5093	0	31540	
5094	0	31536	
5095	0	31528	
5096	0	31536	
5097	0	31548	
5098	0	31560	
5099	0	31540	
5100	0	31548	
5101	0	31568	
5102	0	31578	
5103	0	31568	
5104	0	31580	
5105	0	31580	
5106	0	31568	
5107	0	31596	
5108	0	31628	
5109	0	31632	
5110	0	31656	
5111	0	31698	
5112	0	31712	
5113	0	31716	
5114	0	31696	
5115	0	31654	
5116	0	31624	
5117	0	31620	
5118	0	31624	
5119	0	31590	
5120	0	31568	
5121	0	31584	
5122	0	31580	
5123	0	31608	
5124	0	31644	
5125	0	31664	
5126	0	31656	
5127	0	31608	
5128	0	31600	
5129	0	31628	
5130	0	31608	
5131	0	31624	
5132	0	31684	
5133	0	31728	
5134	0	31716	
5135	0	31689	
5136	0	31688	
5137	0	31688	
5138	0	31676	
5139	0	31696	
5140	0	31680	
5141	0	31668	
5142	0	31660	
5143	0	31676	
5144	0	31684	
5145	0	31700	
5146	0	31664	
5147	0	31652	
5148	0	31724	
5149	0	31804	
5150	0	31828	
5151	0	31816	
5152	0	31778	
5153	0	31756	
5154	0	31700	
5155	0	31676	
5156	0	31680	
5157	0	31688	
5158	0	31720	
5159	0	31768	
5160	0	31836	
5161	0	31892	
5162	0	31932	
5163	0	31948	
5164	0	31944	
5165	0	31936	
5166	0	31960	
5167	0	31980	
5168	0	31976	
5169	0	31952	
5170	0	31920	
5171	0	31904	
5172	0	31884	
5173	0	31860	
5174	0	31840	
5175	0	31840	
5176	0	31840	
5177	0	31832	
5178	0	31784	
5179	0	31776	
5180	0	31796	
5181	0	31816	
5182	0	31870	
5183	0	31904	
5184	0	31904	
5185	0	31860	
5186	0	31834	
5187	0	31856	
5188	0	31904	
5189	0	31892	
5190	0	31832	
5191	0	31768	
5192	0	31754	
5193	0	31744	
5194	0	31756	
5195	0	31800	
5196	0	31864	
5197	0	31912	
5198	0	31896	
5199	0	31912	
5200	0	31936	
5201	0	31936	
5202	0	31916	
5203	0	31920	
5204	0	31924	
5205	0	31944	
5206	0	31960	
5207	0	31976	
5208	0	31960	
5209	0	31960	
5210	0	31952	
5211	0	31968	
5212	0	31968	
5213	0	31928	
5214	0	31920	
5215	0	31936	
5216	0	31928	
5217	0	31908	
5218	0	31892	
5219	0	31896	
5220	0	31906	
5221	0	31924	
5222	0	32024	
5223	0	32156	
5224	0	32260	
5225	0	32304	
5226	0	32316	
5227	0	32336	
5228	0	32304	
5229	0	32292	
5230	0	32316	
5231	0	32300	
5232	0	32328	
5233	0	32356	
5234	0	32372	
5235	0	32364	
5236	0	32360	
5237	0	32384	
5238	0	32376	
5239	0	32380	
5240	0	32356	
5241	0	32320	
5242	0	32324	
5243	0	32328	
5244	0	32360	
5245	0	32354	
5246	0	32328	
5247	0	32368	
5248	0	32380	
5249	0	32424	
5250	0	32424	
5251	0	32428	
5252	0	32424	
5253	0	32424	
5254	0	32412	
5255	0	32420	
5256	0	32416	
5257	0	32408	
5258	0	32352	
5259	0	32340	
5260	0	32364	
5261	0	32412	
5262	0	32392	
5263	0	32400	
5264	0	32436	
5265	0	32456	
5266	0	32504	
5267	0	32520	
5268	0	32460	
5269	0	32418	
5270	0	32388	
5271	0	32324	
5272	0	32288	
5273	0	32288	
5274	0	32308	
5275	0	32348	
5276	0	32368	
5277	0	32388	
5278	0	32428	
5279	0	32472	
5280	0	32568	
5281	0	32648	
5282	0	32656	
5283	0	32636	
5284	0	32644	
5285	0	32612	
5286	0	32588	
5287	0	32564	
5288	0	32576	
5289	0	32610	
5290	0	32640	
5291	0	32640	
5292	0	32596	
5293	0	32538	
5294	0	32564	
5295	0	32580	
5296	0	32596	
5297	0	32600	
5298	0	32586	
5299	0	32588	
5300	0	32544	
5301	0	32580	
5302	0	32640	
5303	0	32652	
5304	0	32644	
5305	0	32632	
5306	0	32624	
5307	0	32612	
5308	0	32588	
5309	0	32560	
5310	0	32570	
5311	0	32544	
5312	0	32556	
5313	0	32560	
5314	0	32568	
5315	0	32608	
5316	0	32656	
5317	0	32704	
5318	0	32700	
5319	0	32660	
5320	0	32648	
5321	0	32704	
5322	0	32716	
5323	0	32712	
5324	0	32720	
5325	0	32744	
5326	0	32796	
5327	0	32796	
5328	0	32724	
5329	0	32656	
5330	0	32620	
5331	0	32568	
5332	0	32544	
5333	0	32520	
5334	0	32520	
5335	0	32592	
5336	0	32672	
5337	0	32730	
5338	0	32764	
5339	0	32826	
5340	0	32932	
5341	0	33060	
5342	0	33170	
5343	0	33188	
5344	0	33184	
5345	0	33228	
5346	0	33296	
5347	0	33312	
5348	0	33274	
5349	0	33184	
5350	0	33120	
5351	0	33084	
5352	0	33048	
5353	0	32996	
5354	0	32968	
5355	0	32960	
5356	0	32940	
5357	0	32912	
5358	0	32920	
5359	0	32940	
5360	0	33088	
5361	0	33272	
5362	0	33448	
5363	0	33612	
5364	0	33768	
5365	0	33864	
5366	0	33928	
5367	0	34032	
5368	0	34120	
5369	0	34172	
5370	0	34212	
5371	0	34272	
5372	0	34340	
5373	0	34364	
5374	0	34388	
5375	0	34446	
5376	0	34496	
5377	0	34548	
5378	0	34604	
5379	0	34616	
5380	0	34588	
5381	0	34560	
5382	0	34504	
5383	0	34412	
5384	0	34288	
5385	0	34136	
5386	0	34040	
5387	0	33958	
5388	0	33850	
5389	0	33720	
5390	0	33604	
5391	0	33570	
5392	0	33536	
5393	0	33472	
5394	0	33370	
5395	0	33296	
5396	0	33268	
5397	0	33260	
5398	0	33272	
5399	0	33258	
5400	0	33212	
5401	0	33156	
5402	0	33132	
5403	0	33132	
5404	0	33128	
5405	0	33180	
5406	0	33184	
5407	0	33164	
5408	0	33176	
5409	0	33184	
5410	0	33164	
5411	0	33140	
5412	0	33100	
5413	0	33068	
5414	0	33128	
5415	0	33220	
5416	0	33268	
5417	0	33202	
5418	0	33124	
5419	0	33052	
5420	0	32972	
5421	0	32916	
5422	0	32832	
5423	0	32760	
5424	0	32704	
5425	0	32644	
5426	0	32596	
5427	0	32584	
5428	0	32560	
5429	0	32484	
5430	0	32404	
5431	0	32394	
5432	0	32428	
5433	0	32452	
5434	0	32476	
5435	0	32476	
5436	0	32500	
5437	0	32560	
5438	0	32624	
5439	0	32664	
5440	0	32708	
5441	0	32696	
5442	0	32672	
5443	0	32660	
5444	0	32656	
5445	0	32652	
5446	0	32664	
5447	0	32620	
5448	0	32512	
5449	0	32466	
5450	0	32460	
5451	0	32488	
5452	0	32544	
5453	0	32568	
5454	0	32580	
5455	0	32600	
5456	0	32584	
5457	0	32572	
5458	0	32580	
5459	0	32632	
5460	0	32736	
5461	0	32756	
5462	0	32706	
5463	0	32640	
5464	0	32628	
5465	0	32612	
5466	0	32608	
5467	0	32640	
5468	0	32664	
5469	0	32692	
5470	0	32708	
5471	0	32692	
5472	0	32704	
5473	0	32736	
5474	0	32740	
5475	0	32744	
5476	0	32736	
5477	0	32704	
5478	0	32680	
5479	0	32680	
5480	0	32746	
5481	0	32768	
5482	0	32752	
5483	0	32748	
5484	0	32732	
5485	0	32712	
5486	0	32708	
5487	0	32720	
5488	0	32760	
5489	0	32772	
5490	0	32772	
5491	0	32808	
5492	0	32884	
5493	0	32952	
5494	0	32984	
5495	0	33056	
5496	0	33088	
5497	0	33060	
5498	0	32960	
5499	0	32900	
5500	0	32868	
5501	0	32816	
5502	0	32748	
5503	0	32632	
5504	0	32492	
5505	0	32316	
5506	0	32288	
5507	0	32452	
5508	0	32724	
5509	0	33000	
5510	0	33356	
5511	0	33712	
5512	0	34040	
5513	0	34424	
5514	0	34746	
5515	0	35034	
5516	0	35376	
5517	0	35864	
5518	0	36520	
5519	0	37296	
5520	0	38266	
5521	0	39320	
5522	0	40548	
5523	0	41920	
5524	0	43448	
5525	0	45040	
5526	0	46672	
5527	0	48400	
5528	0	50080	
5529	0	51632	
5530	0	52944	
5531	0	54168	
5532	0	55240	
5533	0	56300	
5534	0	57476	
5535	0	58460	
5536	0	59136	
5537	0	59152	
5538	0	58024	
5539	0	55672	
5540	0	52500	
5541	0	48804	
5542	0	44848	
5543	0	41044	
5544	0	37696	
5545	0	35048	
5546	0	33224	
5547	0	32012	
5548	0	31244	
5549	0	30828	
5550	0	30594	
5551	0	30416	
5552	0	30324	
5553	0	30312	
5554	0	30300	
5555	0	30292	
5556	0	30312	
5557	0	30372	
5558	0	30410	
5559	0	30432	
5560	0	30480	
5561	0	30592	
5562	0	30724	
5563	0	30880	
5564	0	30992	
5565	0	31076	
5566	0	31108	
5567	0	31136	
5568	0	31200	
5569	0	31264	
5570	0	31232	
5571	0	31178	
5572	0	31112	
5573	0	31048	
5574	0	31004	
5575	0	30944	
5576	0	30912	
5577	0	30916	
5578	0	30892	
5579	0	30896	
5580	0	30920	
5581	0	30912	
5582	0	30904	
5583	0	30900	
5584	0	30928	
5585	0	30940	
5586	0	30912	
5587	0	30860	
5588	0	30828	
5589	0	30836	
5590	0	30812	
5591	0	30820	
5592	0	30860	
5593	0	30884	
5594	0	30956	
5595	0	31048	
5596	0	31104	
5597	0	31124	
5598	0	31124	
5599	0	31064	
5600	0	31012	
5601	0	30992	
5602	0	30992	
5603	0	31000	
5604	0	31072	
5605	0	31144	
5606	0	31200	
5607	0	31232	
5608	0	31280	
5609	0	31336	
5610	0	31380	
5611	0	31420	
5612	0	31428	
5613	0	31424	
5614	0	31460	
5615	0	31504	
5616	0	31544	
5617	0	31566	
5618	0	31528	
5619	0	31512	
5620	0	31572	
5621	0	31644	
5622	0	31682	
5623	0	31720	
5624	0	31764	
5625	0	31784	
5626	0	31840	
5627	0	31882	
5628	0	31916	
5629	0	31940	
5630	0	31948	
5631	0	31944	
5632	0	31964	
5633	0	31952	
5634	0	31964	
5635	0	32004	
5636	0	31996	
5637	0	31968	
5638	0	31936	
5639	0	31938	
5640	0	31948	
5641	0	31976	
5642	0	32028	
5643	0	32084	
5644	0	32136	
5645	0	32152	
5646	0	32144	
5647	0	32196	
5648	0	32256	
5649	0	32338	
5650	0	32368	
5651	0	32400	
5652	0	32444	
5653	0	32460	
5654	0	32472	
5655	0	32524	
5656	0	32600	
5657	0	32636	
5658	0	32610	
5659	0	32572	
5660	0	32584	
5661	0	32604	
5662	0	32642	
5663	0	32698	
5664	0	32736	
5665	0	32744	
5666	0	32764	
5667	0	32828	
5668	0	32900	
5669	0	32956	
5670	0	32996	
5671	0	32984	
5672	0	32960	
5673	0	32900	
5674	0	32816	
5675	0	32772	
5676	0	32800	
5677	0	32800	
5678	0	32792	
5679	0	32836	
5680	0	32886	
5681	0	32940	
5682	0	32996	
5683	0	33064	
5684	0	33136	
5685	0	33152	
5686	0	33172	
5687	0	33184	
5688	0	33204	
5689	0	33258	
5690	0	33312	
5691	0	33344	
5692	0	33344	
5693	0	33332	
5694	0	33344	
5695	0	33328	
5696	0	33292	
5697	0	33300	
5698	0	33370	
5699	0	33432	
5700	0	33498	
5701	0	33560	
5702	0	33632	
5703	0	33712	
5704	0	33729	
5705	0	33756	
5706	0	33784	
5707	0	33772	
5708	0	33716	
5709	0	33636	
5710	0	33592	
5711	0	33628	
5712	0	33672	
5713	0	33736	
5714	0	33748	
5715	0	33754	
5716	0	33784	
5717	0	33848	
5718	0	33904	
5719	0	33968	
5720	0	33980	
5721	0	33956	
5722	0	33936	
5723	0	33968	
5724	0	33994	
5725	0	34064	
5726	0	34128	
5727	0	34160	
5728	0	34144	
5729	0	34132	
5730	0	34144	
5731	0	34144	
5732	0	34152	
5733	0	34148	
5734	0	34176	
5735	0	34208	
5736	0	34204	
5737	0	34180	
5738	0	34208	
5739	0	34264	
5740	0	34312	
5741	0	34340	
5742	0	34308	
5743	0	34232	
5744	0	34244	
5745	0	34288	
5746	0	34372	
5747	0	34426	
5748	0	34432	
5749	0	34484	
5750	0	34596	
5751	0	34656	
5752	0	34642	
5753	0	34628	
5754	0	34632	
5755	0	34648	
5756	0	34656	
5757	0	34652	
5758	0	34648	
5759	0	34624	
5760	0	34636	
5761	0	34632	
5762	0	34632	
5763	0	34612	
5764	0	34624	
5765	0	34664	
5766	0	34700	
5767	0	34724	
5768	0	34740	
5769	0	34756	
5770	0	34792	
5771	0	34844	
5772	0	34880	
5773	0	34850	
5774	0	34824	
5775	0	34796	
5776	0	34784	
5777	0	34754	
5778	0	34728	
5779	0	34760	
5780	0	34774	
5781	0	34792	
5782	0	34804	
5783	0	34836	
5784	0	34840	
5785	0	34844	
5786	0	34872	
5787	0	34904	
5788	0	34952	
5789	0	34992	
5790	0	35012	
5791	0	35040	
5792	0	35052	
5793	0	35048	
5794	0	35068	
5795	0	35056	
5796	0	35054	
5797	0	35008	
5798	0	35010	
5799	0	34992	
5800	0	34912	
5801	0	34864	
5802	0	34808	
5803	0	34752	
5804	0	34672	
5805	0	34608	
5806	0	34568	
5807	0	34520	
5808	0	34404	
5809	0	34336	
5810	0	34272	
5811	0	34202	
5812	0	34112	
5813	0	33998	
5814	0	33904	
5815	0	33780	
5816	0	33640	
5817	0	33500	
5818	0	33332	
5819	0	33160	
5820	0	33004	
5821	0	32872	
5822	0	32760	
5823	0	32640	
5824	0	32496	
5825	0	32376	
5826	0	32268	
5827	0	32188	
5828	0	32086	
5829	0	31912	
5830	0	31784	
5831	0	31716	
5832	0	31620	
5833	0	31488	
5834	0	31412	
5835	0	31388	
5836	0	31322	
5837	0	31232	
5838	0	31148	
5839	0	31060	
5840	0	30952	
5841	0	30892	
5842	0	30852	
5843	0	30792	
5844	0	30692	
5845	0	30632	
5846	0	30616	
5847	0	30560	
5848	0	30496	
5849	0	30436	
5850	0	30368	
5851	0	30274	
5852	0	30200	
5853	0	30112	
5854	0	30044	
5855	0	29996	
5856	0	29996	
5857	0	29984	
5858	0	29968	
5859	0	29968	
5860	0	29928	
5861	0	29860	
5862	0	29820	
5863	0	29816	
5864	0	29836	
5865	0	29808	
5866	0	29808	
5867	0	29816	
5868	0	29810	
5869	0	29828	
5870	0	29852	
5871	0	29888	
5872	0	29846	
5873	0	29812	
5874	0	29820	
5875	0	29848	
5876	0	29856	
5877	0	29852	
5878	0	29888	
5879	0	29880	
5880	0	29848	
5881	0	29808	
5882	0	29776	
5883	0	29840	
5884	0	29908	
5885	0	29960	
5886	0	30012	
5887	0	30064	
5888	0	30124	
5889	0	30192	
5890	0	30276	
5891	0	30316	
5892	0	30320	
5893	0	30304	
5894	0	30304	
5895	0	30288	
5896	0	30300	
5897	0	30328	
5898	0	30372	
5899	0	30380	
5900	0	30368	
5901	0	30368	
5902	0	30352	
5903	0	30384	
5904	0	30448	
5905	0	30488	
5906	0	30520	
5907	0	30604	
5908	0	30652	
5909	0	30644	
5910	0	30600	
5911	0	30610	
5912	0	30620	
5913	0	30628	
5914	0	30644	
5915	0	30682	
5916	0	30736	
5917	0	30792	
5918	0	30824	
5919	0	30824	
5920	0	30856	
5921	0	30854	
5922	0	30808	
5923	0	30774	
5924	0	30788	
5925	0	30800	
5926	0	30776	
5927	0	30812	
5928	0	30852	
5929	0	30876	
5930	0	30852	
5931	0	30848	
5932	0	30846	
5933	0	30852	
5934	0	30844	
5935	0	30864	
5936	0	30930	
5937	0	30996	
5938	0	31048	
5939	0	31108	
5940	0	31126	
5941	0	31116	
5942	0	31124	
5943	0	31092	
5944	0	31080	
5945	0	31104	
5946	0	31132	
5947	0	31132	
5948	0	31136	
5949	0	31124	
5950	0	31116	
5951	0	31064	
5952	0	31052	
5953	0	31028	
5954	0	30976	
5955	0	30988	
5956	0	30932	
5957	0	30864	
5958	0	30924	
5959	0	30988	
5960	0	31064	
5961	0	31120	
5962	0	31176	
5963	0	31184	
5964	0	31172	
5965	0	31180	
5966	0	31200	
5967	0	31236	
5968	0	31264	
5969	0	31240	
5970	0	31228	
5971	0	31288	
5972	0	31336	
5973	0	31402	
5974	0	31460	
5975	0	31452	
5976	0	31436	
5977	0	31466	
5978	0	31460	
5979	0	31480	
5980	0	31480	
5981	0	31464	
5982	0	31448	
5983	0	31384	
5984	0	31348	
5985	0	31360	
5986	0	31352	
5987	0	31364	
5988	0	31342	
5989	0	31288	
5990	0	31228	
5991	0	31200	
5992	0	31232	
5993	0	31288	
5994	0	31296	
5995	0	31300	
5996	0	31312	
5997	0	31276	
5998	0	31234	
5999	0	31256	
6000	0	31320	
6001	0	31394	
6002	0	31456	
6003	0	31508	
6004	0	31552	
6005	0	31562	
6006	0	31560	
6007	0	31564	
6008	0	31528	
6009	0	31452	
6010	0	31392	
6011	0	31356	
6012	0	31348	
6013	0	31360	
6014	0	31380	
6015	0	31364	
6016	0	31376	
6017	0	31396	
6018	0	31404	
6019	0	31376	
6020	0	31360	
6021	0	31336	
6022	0	31308	
6023	0	31308	
6024	0	31320	
6025	0	31324	
6026	0	31324	
6027	0	31308	
6028	0	31272	
6029	0	31256	
6030	0	31272	
6031	0	31284	
6032	0	31290	
6033	0	31336	
6034	0	31404	
6035	0	31452	
6036	0	31432	
6037	0	31416	
6038	0	31436	
6039	0	31470	
6040	0	31484	
6041	0	31488	
6042	0	31464	
6043	0	31424	
6044	0	31388	
6045	0	31354	
6046	0	31328	
6047	0	31324	
6048	0	31340	
6049	0	31388	
6050	0	31456	
6051	0	31540	
6052	0	31644	
6053	0	31728	
6054	0	31764	
6055	0	31770	
6056	0	31760	
6057	0	31744	
6058	0	31706	
6059	0	31680	
6060	0	31716	
6061	0	31748	
6062	0	31744	
6063	0	31760	
6064	0	31800	
6065	0	31800	
6066	0	31772	
6067	0	31740	
6068	0	31704	
6069	0	31692	
6070	0	31648	
6071	0	31696	
6072	0	31760	
6073	0	31784	
6074	0	31840	
6075	0	31908	
6076	0	31972	
6077	0	32008	
6078	0	32016	
6079	0	32032	
6080	0	32048	
6081	0	32064	
6082	0	32064	
6083	0	32040	
6084	0	32028	
6085	0	32058	
6086	0	32072	
6087	0	32058	
6088	0	32032	
6089	0	32004	
6090	0	31962	
6091	0	31920	
6092	0	31888	
6093	0	31928	
6094	0	31984	
6095	0	31984	
6096	0	31960	
6097	0	31912	
6098	0	31904	
6099	0	31914	
6100	0	31948	
6101	0	31956	
6102	0	31936	
6103	0	31936	
6104	0	31968	
6105	0	32000	
6106	0	32050	
6107	0	32104	
6108	0	32140	
6109	0	32180	
6110	0	32216	
6111	0	32232	
6112	0	32268	
6113	0	32280	
6114	0	32216	
6115	0	32136	
6116	0	32078	
6117	0	32040	
6118	0	31988	
6119	0	32000	
6120	0	32040	
6121	0	32072	
6122	0	32046	
6123	0	32048	
6124	0	31980	
6125	0	31908	
6126	0	31860	
6127	0	31904	
6128	0	31940	
6129	0	31984	
6130	0	32000	
6131	0	32052	
6132	0	32116	
6133	0	32192	
6134	0	32284	
6135	0	32292	
6136	0	32284	
6137	0	32244	
6138	0	32240	
6139	0	32264	
6140	0	32274	
6141	0	32288	
6142	0	32296	
6143	0	32304	
6144	0	32356	
6145	0	32432	
6146	0	32480	
6147	0	32532	
6148	0	32560	
6149	0	32560	
6150	0	32560	
6151	0	32468	
6152	0	32332	
6153	0	32224	
6154	0	32204	
6155	0	32236	
6156	0	32316	
6157	0	32340	
6158	0	32320	
6159	0	32340	
6160	0	32432	
6161	0	32488	
6162	0	32532	
6163	0	32512	
6164	0	32500	
6165	0	32530	
6166	0	32544	
6167	0	32564	
6168	0	32572	
6169	0	32576	
6170	0	32576	
6171	0	32544	
6172	0	32458	
6173	0	32418	
6174	0	32436	
6175	0	32488	
6176	0	32556	
6177	0	32556	
6178	0	32540	
6179	0	32512	
6180	0	32512	
6181	0	32500	
6182	0	32506	
6183	0	32488	
6184	0	32504	
6185	0	32516	
6186	0	32516	
6187	0	32500	
6188	0	32538	
6189	0	32560	
6190	0	32592	
6191	0	32608	
6192	0	32628	
6193	0	32680	
6194	0	32736	
6195	0	32774	
6196	0	32772	
6197	0	32762	
6198	0	32788	
6199	0	32776	
6200	0	32748	
6201	0	32716	
6202	0	32714	
6203	0	32672	
6204	0	32656	
6205	0	32708	
6206	0	32706	
6207	0	32648	
6208	0	32576	
6209	0	32556	
6210	0	32548	
6211	0	32540	
6212	0	32568	
6213	0	32664	
6214	0	32784	
6215	0	32856	
6216	0	32888	
6217	0	32880	
6218	0	32848	
6219	0	32816	
6220	0	32792	
6221	0	32792	
6222	0	32816	
6223	0	32816	
6224	0	32876	
6225	0	32904	
6226	0	32872	
6227	0	32890	
6228	0	32904	
6229	0	32876	
6230	0	32876	
6231	0	32929	
6232	0	32936	
6233	0	32916	
6234	0	32920	
6235	0	32972	
6236	0	32976	
6237	0	32976	
6238	0	32980	
6239	0	32952	
6240	0	32900	
6241	0	32824	
6242	0	32780	
6243	0	32732	
6244	0	32700	
6245	0	32712	
6246	0	32762	
6247	0	32816	
6248	0	32864	
6249	0	32920	
6250	0	32964	
6251	0	33016	
6252	0	33064	
6253	0	33032	
6254	0	32992	
6255	0	32952	
6256	0	32916	
6257	0	32920	
6258	0	32968	
6259	0	33028	
6260	0	33084	
6261	0	33104	
6262	0	33052	
6263	0	32984	
6264	0	32912	
6265	0	32912	
6266	0	32932	
6267	0	32900	
6268	0	32864	
6269	0	32816	
6270	0	32776	
6271	0	32780	
6272	0	32820	
6273	0	32840	
6274	0	32840	
6275	0	32848	
6276	0	32912	
6277	0	33000	
6278	0	33016	
6279	0	33072	
6280	0	33136	
6281	0	33180	
6282	0	33252	
6283	0	33368	
6284	0	33468	
6285	0	33498	
6286	0	33498	
6287	0	33488	
6288	0	33504	
6289	0	33520	
6290	0	33512	
6291	0	33440	
6292	0	33352	
6293	0	33300	
6294	0	33264	
6295	0	33244	
6296	0	33220	
6297	0	33248	
6298	0	33244	
6299	0	33256	
6300	0	33296	
6301	0	33450	
6302	0	33612	
6303	0	33724	
6304	0	33780	
6305	0	33836	
6306	0	33952	
6307	0	34076	
6308	0	34216	
6309	0	34368	
6310	0	34440	
6311	0	34496	
6312	0	34580	
6313	0	34644	
6314	0	34736	
6315	0	34760	
6316	0	34728	
6317	0	34712	
6318	0	34688	
6319	0	34656	
6320	0	34612	
6321	0	34542	
6322	0	34476	
6323	0	34336	
6324	0	34224	
6325	0	34136	
6326	0	34052	
6327	0	33972	
6328	0	33844	
6329	0	33728	
6330	0	33612	
6331	0	33544	
6332	0	33472	
6333	0	33460	
6334	0	33420	
6335	0	33368	
6336	0	33332	
6337	0	33288	
6338	0	33292	
6339	0	33340	
6340	0	33336	
6341	0	33282	
6342	0	33200	
6343	0	33116	
6344	0	33048	
6345	0	32992	
6346	0	33008	
6347	0	32996	
6348	0	32956	
6349	0	32896	
6350	0	32864	
6351	0	32832	
6352	0	32808	
6353	0	32834	
6354	0	32886	
6355	0	32876	
6356	0	32896	
6357	0	32864	
6358	0	32832	
6359	0	32764	
6360	0	32720	
6361	0	32720	
6362	0	32736	
6363	0	32704	
6364	0	32652	
6365	0	32556	
6366	0	32432	
6367	0	32364	
6368	0	32260	
6369	0	32180	
6370	0	32124	
6371	0	32128	
6372	0	32172	
6373	0	32222	
6374	0	32276	
6375	0	32306	
6376	0	32324	
6377	0	32308	
6378	0	32260	
6379	0	32208	
6380	0	32200	
6381	0	32192	
6382	0	32174	
6383	0	32184	
6384	0	32208	
6385	0	32256	
6386	0	32312	
6387	0	32336	
6388	0	32296	
6389	0	32252	
6390	0	32280	
6391	0	32388	
6392	0	32492	
6393	0	32584	
6394	0	32632	
6395	0	32652	
6396	0	32608	
6397	0	32560	
6398	0	32560	
6399	0	32576	
6400	0	32624	
6401	0	32608	
6402	0	32592	
6403	0	32616	
6404	0	32620	
6405	0	32612	
6406	0	32542	
6407	0	32520	
6408	0	32552	
6409	0	32544	
6410	0	32504	
6411	0	32432	
6412	0	32372	
6413	0	32366	
6414	0	32412	
6415	0	32464	
6416	0	32488	
6417	0	32514	
6418	0	32560	
6419	0	32596	
6420	0	32608	
6421	0	32608	
6422	0	32592	
6423	0	32600	
6424	0	32656	
6425	0	32728	
6426	0	32730	
6427	0	32700	
6428	0	32696	
6429	0	32728	
6430	0	32736	
6431	0	32732	
6432	0	32818	
6433	0	32860	
6434	0	32864	
6435	0	32864	
6436	0	32864	
6437	0	32770	
6438	0	32610	
6439	0	32452	
6440	0	32320	
6441	0	32228	
6442	0	32200	
6443	0	32308	
6444	0	32526	
6445	0	32832	
6446	0	33104	
6447	0	33365	
6448	0	33648	
6449	0	33868	
6450	0	33976	
6451	0	34042	
6452	0	34300	
6453	0	34704	
6454	0	35360	
6455	0	36208	
6456	0	37200	
6457	0	38340	
6458	0	39604	
6459	0	41052	
6460	0	42708	
6461	0	44396	
6462	0	46132	
6463	0	47904	
6464	0	49716	
6465	0	51528	
6466	0	53184	
6467	0	54656	
6468	0	55896	
6469	0	57040	
6470	0	58184	
6471	0	59312	
6472	0	60208	
6473	0	60680	
6474	0	60300	
6475	0	58880	
6476	0	56288	
6477	0	52792	
6478	0	48792	
6479	0	44656	
6480	0	40748	
6481	0	37316	
6482	0	34588	
6483	0	32666	
6484	0	31364	
6485	0	30472	
6486	0	29824	
6487	0	29400	
6488	0	29128	
6489	0	29024	
6490	0	29108	
6491	0	29268	
6492	0	29444	
6493	0	29620	
6494	0	29762	
6495	0	29898	
6496	0	30060	
6497	0	30216	
6498	0	30300	
6499	0	30424	
6500	0	30612	
6501	0	30806	
6502	0	30954	
6503	0	31024	
6504	0	31072	
6505	0	31072	
6506	0	31120	
6507	0	31180	
6508	0	31228	
6509	0	31248	
6510	0	31248	
6511	0	31256	
6512	0	31258	
6513	0	31236	
6514	0	31136	
6515	0	31056	
6516	0	30988	
6517	0	30884	
6518	0	30800	
6519	0	30764	
6520	0	30736	
6521	0	30736	
6522	0	30776	
6523	0	30784	
6524	0	30820	
6525	0	30862	
6526	0	30912	
6527	0	30958	
6528	0	31000	
6529	0	31056	
6530	0	31104	
6531	0	31180	
6532	0	31239	
6533	0	31256	
6534	0	31352	
6535	0	31418	
6536	0	31472	
6537	0	31536	
6538	0	31552	
6539	0	31504	
6540	0	31476	
6541	0	31496	
6542	0	31476	
6543	0	31476	
6544	0	31460	
6545	0	31392	
6546	0	31338	
6547	0	31354	
6548	0	31380	
6549	0	31448	
6550	0	31476	
6551	0	31516	
6552	0	31604	
6553	0	31632	
6554	0	31648	
6555	0	31644	
6556	0	31576	
6557	0	31568	
6558	0	31512	
6559	0	31488	
6560	0	31564	
6561	0	31556	
6562	0	31556	
6563	0	31612	
6564	0	31624	
6565	0	31604	
6566	0	31628	
6567	0	31656	
6568	0	31712	
6569	0	31760	
6570	0	31778	
6571	0	31844	
6572	0	31920	
6573	0	31968	
6574	0	31980	
6575	0	32020	
6576	0	32092	
6577	0	32190	
6578	0	32274	
6579	0	32340	
6580	0	32400	
6581	0	32450	
6582	0	32442	
6583	0	32408	
6584	0	32416	
6585	0	32424	
6586	0	32424	
6587	0	32400	
6588	0	32372	
6589	0	32392	
6590	0	32476	
6591	0	32528	
6592	0	32520	
6593	0	32528	
6594	0	32512	
6595	0	32524	
6596	0	32476	
6597	0	32444	
6598	0	32408	
6599	0	32352	
6600	0	32330	
6601	0	32392	
6602	0	32496	
6603	0	32580	
6604	0	32620	
6605	0	32586	
6606	0	32524	
6607	0	32504	
6608	0	32532	
6609	0	32560	
6610	0	32624	
6611	0	32712	
6612	0	32804	
6613	0	32876	
6614	0	32896	
6615	0	32904	
6616	0	32964	
6617	0	32960	
6618	0	32968	
6619	0	33000	
6620	0	33064	
6621	0	33116	
6622	0	33188	
6623	0	33224	
6624	0	33244	
6625	0	33208	
6626	0	33144	
6627	0	33124	
6628	0	33120	
6629	0	33132	
6630	0	33172	
6631	0	33196	
6632	0	33210	
6633	0	33236	
6634	0	33236	
6635	0	33236	
6636	0	33256	
6637	0	33288	
6638	0	33264	
6639	0	33264	
6640	0	33264	
6641	0	33260	
6642	0	33258	
6643	0	33294	
6644	0	33354	
6645	0	33388	
6646	0	33428	
6647	0	33480	
6648	0	33520	
6649	0	33544	
6650	0	33572	
6651	0	33552	
6652	0	33520	
6653	0	33472	
6654	0	33460	
6655	0	33472	
6656	0	33426	
6657	0	33388	
6658	0	33384	
6659	0	33408	
6660	0	33396	
6661	0	33384	
6662	0	33396	
6663	0	33416	
6664	0	33484	
6665	0	33564	
6666	0	33620	
6667	0	33660	
6668	0	33756	
6669	0	33824	
6670	0	33880	
6671	0	33920	
6672	0	33940	
6673	0	33976	
6674	0	33956	
6675	0	33964	
6676	0	34052	
6677	0	34104	
6678	0	34116	
6679	0	34100	
6680	0	34048	
6681	0	34008	
6682	0	34008	
6683	0	34100	
6684	0	34156	
6685	0	34168	
6686	0	34172	
6687	0	34172	
6688	0	34128	
6689	0	34120	
6690	0	34172	
6691	0	34184	
6692	0	34252	
6693	0	34360	
6694	0	34432	
6695	0	34432	
6696	0	34432	
6697	0	34412	
6698	0	34364	
6699	0	34308	
6700	0	34316	
6701	0	34344	
6702	0	34396	
6703	0	34368	
6704	0	34286	
6705	0	34252	
6706	0	34260	
6707	0	34236	
6708	0	34188	
6709	0	34172	
6710	0	34136	
6711	0	34088	
6712	0	34096	
6713	0	34196	
6714	0	34356	
6715	0	34512	
6716	0	34640	
6717	0	34744	
6718	0	34752	
6719	0	34720	
6720	0	34686	
6721	0	34674	
6722	0	34652	
6723	0	34628	
6724	0	34604	
6725	0	34548	
6726	0	34520	
6727	0	34516	
6728	0	34520	
6729	0	34552	
6730	0	34568	
6731	0	34620	
6732	0	34696	
6733	0	34796	
6734	0	34884	
6735	0	34922	
6736	0	34928	
6737	0	34924	
6738	0	34906	
6739	0	34812	
6740	0	34688	
6741	0	34568	
6742	0	34452	
6743	0	34360	
6744	0	34276	
6745	0	34172	
6746	0	34052	
6747	0	33912	
6748	0	33832	
6749	0	33784	
6750	0	33684	
6751	0	33608	
6752	0	33594	
6753	0	33616	
6754	0	33556	
6755	0	33400	
6756	0	33228	
6757	0	33092	
6758	0	32924	
6759	0	32768	
6760	0	32616	
6761	0	32448	
6762	0	32296	
6763	0	32160	
6764	0	32076	
6765	0	32028	
6766	0	31954	
6767	0	31900	
6768	0	31880	
6769	0	31820	
6770	0	31696	
6771	0	31608	
6772	0	31540	
6773	0	31500	
6774	0	31380	
6775	0	31284	
6776	0	31224	
6777	0	31140	
6778	0	31086	
6779	0	31024	
6780	0	30960	
6781	0	30928	
6782	0	30888	
6783	0	30784	
6784	0	30656	
6785	0	30520	
6786	0	30384	
6787	0	30356	
6788	0	30288	
6789	0	30260	
6790	0	30256	
6791	0	30216	
6792	0	30174	
6793	0	30112	
6794	0	30040	
6795	0	29924	
6796	0	29856	
6797	0	29868	
6798	0	29916	
6799	0	29888	
6800	0	29830	
6801	0	29796	
6802	0	29802	
6803	0	29812	
6804	0	29792	
6805	0	29756	
6806	0	29778	
6807	0	29748	
6808	0	29652	
6809	0	29576	
6810	0	29594	
6811	0	29636	
6812	0	29672	
6813	0	29704	
6814	0	29780	
6815	0	29816	
6816	0	29812	
6817	0	29828	
6818	0	29858	
6819	0	29864	
6820	0	29920	
6821	0	29948	
6822	0	30012	
6823	0	30096	
6824	0	30158	
6825	0	30180	
6826	0	30204	
6827	0	30228	
6828	0	30256	
6829	0	30276	
6830	0	30256	
6831	0	30304	
6832	0	30404	
6833	0	30532	
6834	0	30608	
6835	0	30604	
6836	0	30584	
6837	0	30516	
6838	0	30448	
6839	0	30416	
6840	0	30476	
6841	0	30532	
6842	0	30538	
6843	0	30537	
6844	0	30490	
6845	0	30448	
6846	0	30460	
6847	0	30480	
6848	0	30544	
6849	0	30624	
6850	0	30648	
6851	0	30600	
6852	0	30600	
6853	0	30616	
6854	0	30616	
6855	0	30588	
6856	0	30584	
6857	0	30624	
6858	0	30640	
6859	0	30664	
6860	0	30716	
6861	0	30716	
6862	0	30680	
6863	0	30690	
6864	0	30688	
6865	0	30692	
6866	0	30714	
6867	0	30768	
6868	0	30860	
6869	0	30944	
6870	0	31000	
6871	0	30992	
6872	0	31028	
6873	0	31112	
6874	0	31168	
6875	0	31208	
6876	0	31272	
6877	0	31360	
6878	0	31448	
6879	0	31512	
6880	0	31500	
6881	0	31476	
6882	0	31472	
6883	0	31456	
6884	0	31412	
6885	0	31376	
6886	0	31272	
6887	0	31188	
6888	0	31136	
6889	0	31172	
6890	0	31264	
6891	0	31312	
6892	0	31306	
6893	0	31348	
6894	0	31412	
6895	0	31492	
6896	0	31560	
6897	0	31630	
6898	0	31616	
6899	0	31488	
6900	0	31384	
6901	0	31336	
6902	0	31376	
6903	0	31412	
6904	0	31440	
6905	0	31496	
6906	0	31536	
6907	0	31540	
6908	0	31536	
6909	0	31496	
6910	0	31532	
6911	0	31552	
6912	0	31544	
6913	0	31564	
6914	0	31584	
6915	0	31576	
6916	0	31588	
6917	0	31568	
6918	0	31512	
6919	0	31512	
6920	0	31464	
6921	0	31380	
6922	0	31384	
6923	0	31376	
6924	0	31448	
6925	0	31512	
6926	0	31592	
6927	0	31632	
6928	0	31684	
6929	0	31744	
6930	0	31754	
6931	0	31770	
6932	0	31808	
6933	0	31852	
6934	0	31876	
6935	0	31832	
6936	0	31768	
6937	0	31772	
6938	0	31756	
6939	0	31756	
6940	0	31764	
6941	0	31744	
6942	0	31712	
6943	0	31700	
6944	0	31682	
6945	0	31688	
6946	0	31692	
6947	0	31672	
6948	0	31610	
6949	0	31548	
6950	0	31440	
6951	0	31396	
6952	0	31424	
6953	0	31488	
6954	0	31524	
6955	0	31536	
6956	0	31552	
6957	0	31592	
6958	0	31620	
6959	0	31644	
6960	0	31640	
6961	0	31596	
6962	0	31560	
6963	0	31616	
6964	0	31656	
6965	0	31652	
6966	0	31624	
6967	0	31672	
6968	0	31732	
6969	0	31752	
6970	0	31672	
6971	0	31588	
6972	0	31600	
6973	0	31576	
6974	0	31604	
6975	0	31648	
6976	0	31576	
6977	0	31552	
6978	0	31548	
6979	0	31592	
6980	0	31652	
6981	0	31688	
6982	0	31712	
6983	0	31740	
6984	0	31712	
6985	0	31698	
6986	0	31700	
6987	0	31712	
6988	0	31724	
6989	0	31768	
6990	0	31788	
6991	0	31804	
6992	0	31904	
6993	0	31984	
6994	0	32048	
6995	0	32032	
6996	0	32020	
6997	0	32032	
6998	0	32016	
6999	0	31972	
7000	0	31876	
7001	0	31872	
7002	0	31908	
7003	0	31920	
7004	0	31960	
7005	0	32032	
7006	0	32080	
7007	0	32092	
7008	0	32120	
7009	0	32154	
7010	0	32156	
7011	0	32172	
7012	0	32152	
7013	0	32144	
7014	0	32156	
7015	0	32104	
7016	0	32008	
7017	0	31916	
7018	0	31866	
7019	0	31828	
7020	0	31796	
7021	0	31732	
7022	0	31688	
7023	0	31588	
7024	0	31596	
7025	0	31652	
7026	0	31776	
7027	0	31840	
7028	0	31904	
7029	0	31924	
7030	0	31984	
7031	0	32072	
7032	0	32092	
7033	0	32080	
7034	0	32064	
7035	0	32068	
7036	0	32036	
7037	0	32064	
7038	0	32128	
7039	0	32120	
7040	0	32096	
7041	0	32070	
7042	0	32016	
7043	0	32024	
7044	0	32088	
7045	0	32116	
7046	0	32144	
7047	0	32172	
7048	0	32168	
7049	0	32144	
7050	0	32172	
7051	0	32220	
7052	0	32244	
7053	0	32288	
7054	0	32392	
7055	0	32488	
7056	0	32592	
7057	0	32668	
7058	0	32636	
7059	0	32616	
7060	0	32620	
7061	0	32718	
7062	0	32736	
7063	0	32656	
7064	0	32526	
7065	0	32448	
7066	0	32474	
7067	0	32514	
7068	0	32512	
7069	0	32472	
7070	0	32436	
7071	0	32436	
7072	0	32408	
7073	0	32356	
7074	0	32380	
7075	0	32448	
7076	0	32604	
7077	0	32816	
7078	0	33012	
7079	0	33136	
7080	0	33184	
7081	0	33240	
7082	0	33248	
7083	0	33272	
7084	0	33332	
7085	0	33432	
7086	0	33508	
7087	0	33548	
7088	0	33608	
7089	0	33728	
7090	0	33844	
7091	0	33952	
7092	0	34096	
7093	0	34176	
7094	0	34184	
7095	0	34144	
7096	0	34088	
7097	0	34000	
7098	0	33898	
7099	0	33784	
7100	0	33708	
7101	0	33624	
7102	0	33512	
7103	0	33434	
7104	0	33352	
7105	0	33312	
7106	0	33272	
7107	0	33172	
7108	0	33120	
7109	0	33068	
7110	0	32968	
7111	0	32932	
7112	0	32996	
7113	0	33040	
7114	0	32996	
7115	0	33000	
7116	0	32912	
7117	0	32764	
7118	0	32728	
7119	0	32688	
7120	0	32664	
7121	0	32688	
7122	0	32728	
7123	0	32724	
7124	0	32748	
7125	0	32816	
7126	0	32900	
7127	0	32936	
7128	0	32896	
7129	0	32820	
7130	0	32768	
7131	0	32668	
7132	0	32544	
7133	0	32464	
7134	0	32372	
7135	0	32296	
7136	0	32252	
7137	0	32172	
7138	0	32116	
7139	0	32064	
7140	0	31976	
7141	0	31952	
7142	0	31944	
7143	0	31940	
7144	0	31936	
7145	0	31920	
7146	0	32018	
7147	0	32228	
7148	0	32388	
7149	0	32464	
7150	0	32452	
7151	0	32344	
7152	0	32236	
7153	0	32180	
7154	0	32156	
7155	0	32098	
7156	0	32044	
7157	0	31968	
7158	0	31948	
7159	0	31988	
7160	0	32040	
7161	0	32064	
7162	0	32128	
7163	0	32196	
7164	0	32228	
7165	0	32208	
7166	0	32156	
7167	0	32088	
7168	0	32044	
7169	0	31952	
7170	0	31904	
7171	0	31888	
7172	0	31920	
7173	0	32012	
7174	0	32052	
7175	0	32096	
7176	0	32152	
7177	0	32184	
7178	0	32172	
7179	0	32144	
7180	0	32176	
7181	0	32240	
7182	0	32264	
7183	0	32216	
7184	0	32156	
7185	0	32168	
7186	0	32170	
7187	0	32168	
7188	0	32156	
7189	0	32196	
7190	0	32316	
7191	0	32384	
7192	0	32396	
7193	0	32380	
7194	0	32348	
7195	0	32328	
7196	0	32288	
7197	0	32200	
7198	0	32160	
7199	0	32202	
7200	0	32232	
7201	0	32216	
7202	0	32204	
7203	0	32276	
7204	0	32364	
7205	0	32404	
7206	0	32408	
7207	0	32456	
7208	0	32568	
7209	0	32640	
7210	0	32736	
7211	0	32820	
7212	0	32816	
7213	0	32748	
7214	0	32636	
7215	0	32536	
7216	0	32416	
7217	0	32320	
7218	0	32240	
7219	0	32140	
7220	0	31968	
7221	0	31800	
7222	0	31760	
7223	0	31968	
7224	0	32304	
7225	0	32648	
7226	0	33044	
7227	0	33568	
7228	0	34080	
7229	0	34536	
7230	0	34900	
7231	0	35160	
7232	0	35532	
7233	0	36036	
7234	0	36768	
7235	0	37720	
7236	0	38833	
7237	0	40092	
7238	0	41492	
7239	0	43056	
7240	0	44760	
7241	0	46528	
7242	0	48320	
7243	0	50156	
7244	0	52088	
7245	0	54026	
7246	0	55788	
7247	0	57416	
7248	0	58912	
7249	0	60160	
7250	0	61372	
7251	0	62656	
7252	0	63640	
7253	0	64104	
7254	0	63648	
7255	0	61856	
7256	0	58908	
7257	0	55128	
7258	0	50812	
7259	0	46218	
7260	0	41724	
7261	0	37724	
7262	0	34560	
7263	0	32176	
7264	0	30408	
7265	0	29064	
7266	0	28168	
7267	0	27712	
7268	0	27544	
7269	0	27556	
7270	0	27804	
7271	0	28184	
7272	0	28612	
7273	0	29060	
7274	0	29464	
7275	0	29836	
7276	0	30116	
7277	0	30348	
7278	0	30572	
7279	0	30704	
7280	0	30730	
7281	0	30744	
7282	0	30760	
7283	0	30688	
7284	0	30648	
7285	0	30728	
7286	0	30832	
7287	0	30840	
7288	0	30816	
7289	0	30776	
7290	0	30744	
7291	0	30696	
7292	0	30620	
7293	0	30516	
7294	0	30416	
7295	0	30344	
7296	0	30312	
7297	0	30276	
7298	0	30328	
7299	0	30348	
7300	0	30226	
7301	0	30068	
7302	0	30012	
7303	0	30016	
7304	0	30012	
7305	0	30020	
7306	0	30080	
7307	0	30100	
7308	0	30048	
7309	0	29976	
7310	0	29912	
7311	0	29908	
7312	0	30034	
7313	0	30216	
7314	0	30416	
7315	0	30592	
7316	0	30780	
7317	0	30924	
7318	0	31008	
7319	0	31056	
7320	0	31056	
7321	0	31016	
7322	0	30944	
7323	0	30928	
7324	0	30944	
7325	0	30984	
7326	0	31048	
7327	0	31072	
7328	0	31064	
7329	0	30972	
7330	0	30880	
7331	0	30840	
7332	0	30796	
7333	0	30788	
7334	0	30856	
7335	0	30980	
7336	0	31056	
7337	0	31064	
7338	0	31180	
7339	0	31252	
7340	0	31316	
7341	0	31452	
7342	0	31644	
7343	0	31824	
7344	0	31936	
7345	0	31952	
7346	0	31984	
7347	0	31928	
7348	0	31856	
7349	0	31820	
7350	0	31820	
7351	0	31792	
7352	0	31624	
7353	0	31436	
7354	0	31356	
7355	0	31324	
7356	0	31368	
7357	0	31520	
7358	0	31676	
7359	0	31744	
7360	0	31740	
7361	0	31788	
7362	0	31900	
7363	0	31984	
7364	0	31986	
7365	0	31992	
7366	0	31976	
7367	0	31984	
7368	0	32016	
7369	0	32016	
7370	0	31992	
7371	0	31988	
7372	0	32056	
7373	0	32128	
7374	0	32188	
7375	0	32196	
7376	0	32228	
7377	0	32344	
7378	0	32504	
7379	0	32712	
7380	0	32816	
7381	0	32812	
7382	0	32784	
7383	0	32748	
7384	0	32688	
7385	0	32700	
7386	0	32774	
7387	0	32860	
7388	0	32824	
7389	0	32824	
7390	0	32840	
7391	0	32904	
7392	0	32948	
7393	0	32928	
7394	0	32872	
7395	0	32836	
7396	0	32712	
7397	0	32652	
7398	0	32688	
7399	0	32736	
7400	0	32696	
7401	0	32660	
7402	0	32636	
7403	0	32592	
7404	0	32668	
7405	0	32840	
7406	0	32996	
7407	0	33088	
7408	0	33156	
7409	0	33184	
7410	0	33228	
7411	0	33256	
7412	0	33256	
7413	0	33280	
7414	0	33340	
7415	0	33436	
7416	0	33490	
7417	0	33514	
7418	0	33516	
7419	0	33536	
7420	0	33544	
7421	0	33572	
7422	0	33568	
7423	0	33472	
7424	0	33380	
7425	0	33356	
7426	0	33388	
7427	0	33540	
7428	0	33648	
7429	0	33660	
7430	0	33680	
7431	0	33684	
7432	0	33732	
7433	0	33796	
7434	0	33832	
7435	0	33880	
7436	0	33920	
7437	0	33952	
7438	0	33948	
7439	0	33956	
7440	0	34008	
7441	0	34056	
7442	0	34076	
7443	0	34132	
7444	0	34152	
7445	0	34080	
7446	0	34020	
7447	0	34088	
7448	0	34092	
7449	0	34044	
7450	0	34076	
7451	0	34136	
7452	0	34164	
7453	0	34168	
7454	0	34248	
7455	0	34356	
7456	0	34444	
7457	0	34528	
7458	0	34558	
7459	0	34604	
7460	0	34688	
7461	0	34760	
7462	0	34780	
7463	0	34736	
7464	0	34692	
7465	0	34656	
7466	0	34624	
7467	0	34592	
7468	0	34608	
7469	0	34576	
7470	0	34536	
7471	0	34604	
7472	0	34760	
7473	0	34896	
7474	0	34972	
7475	0	35060	
7476	0	35084	
7477	0	35088	
7478	0	35116	
7479	0	35056	
7480	0	35008	
7481	0	35092	
7482	0	35224	
7483	0	35340	
7484	0	35424	
7485	0	35520	
7486	0	35632	
7487	0	35736	
7488	0	35764	
7489	0	35724	
7490	0	35600	
7491	0	35524	
7492	0	35432	
7493	0	35308	
7494	0	35274	
7495	0	35312	
7496	0	35346	
7497	0	35372	
7498	0	35372	
7499	0	35404	
7500	0	35320	
7501	0	35204	
7502	0	35128	
7503	0	35096	
7504	0	35116	
7505	0	35260	
7506	0	35364	
7507	0	35452	
7508	0	35562	
7509	0	35540	
7510	0	35464	
7511	0	35324	
7512	0	35240	
7513	0	35208	
7514	0	35288	
7515	0	35384	
7516	0	35412	
7517	0	35400	
7518	0	35296	
7519	0	35204	
7520	0	35108	
7521	0	34924	
7522	0	34724	
7523	0	34542	
7524	0	34348	
7525	0	34146	
7526	0	33922	
7527	0	33704	
7528	0	33452	
7529	0	33208	
7530	0	33064	
7531	0	33000	
7532	0	32880	
7533	0	32712	
7534	0	32516	
7535	0	32292	
7536	0	32096	
7537	0	31972	
7538	0	31860	
7539	0	31752	
7540	0	31656	
7541	0	31620	
7542	0	31610	
7543	0	31580	
7544	0	31528	
7545	0	31440	
7546	0	31410	
7547	0	31288	
7548	0	31096	
7549	0	30996	
7550	0	30880	
7551	0	30724	
7552	0	30552	
7553	0	30360	
7554	0	30236	
7555	0	30160	
7556	0	29960	
7557	0	29768	
7558	0	29568	
7559	0	29352	
7560	0	29166	
7561	0	28976	
7562	0	28922	
7563	0	29000	
7564	0	29120	
7565	0	29216	
7566	0	29308	
7567	0	29326	
7568	0	29228	
7569	0	29060	
7570	0	29024	
7571	0	29116	
7572	0	29172	
7573	0	29140	
7574	0	29160	
7575	0	29232	
7576	0	29280	
7577	0	29240	
7578	0	29136	
7579	0	29034	
7580	0	29000	
7581	0	29034	
7582	0	29040	
7583	0	29044	
7584	0	28976	
7585	0	29084	
7586	0	29228	
7587	0	29292	
7588	0	29400	
7589	0	29544	
7590	0	29608	
7591	0	29660	
7592	0	29760	
7593	0	29784	
7594	0	29740	
7595	0	29808	
7596	0	29852	
7597	0	29860	
7598	0	29880	
7599	0	29892	
7600	0	29882	
7601	0	29688	
7602	0	29576	
7603	0	29504	
7604	0	29420	
7605	0	29344	
7606	0	29256	
7607	0	29128	
7608	0	29000	
7609	0	28980	
7610	0	28972	
7611	0	29020	
7612	0	29124	
7613	0	29200	
7614	0	29304	
7615	0	29496	
7616	0	29600	
7617	0	29624	
7618	0	29684	
7619	0	29760	
7620	0	29844	
7621	0	29972	
7622	0	30040	
7623	0	30092	
7624	0	30080	
7625	0	29992	
7626	0	29936	
7627	0	29848	
7628	0	29740	
7629	0	29776	
7630	0	29860	
7631	0	29936	
7632	0	29912	
7633	0	29880	
7634	0	29936	
7635	0	30016	
7636	0	30164	
7637	0	30324	
7638	0	30560	
7639	0	30716	
7640	0	30748	
7641	0	30732	
7642	0	30596	
7643	0	30536	
7644	0	30560	
7645	0	30564	
7646	0	30576	
7647	0	30704	
7648	0	30824	
7649	0	30864	
7650	0	30896	
7651	0	30960	
7652	0	31128	
7653	0	31264	
7654	0	31272	
7655	0	31356	
7656	0	31472	
7657	0	31504	
7658	0	31382	
7659	0	31348	
7660	0	31308	
7661	0	31296	
7662	0	31256	
7663	0	31184	
7664	0	31184	
7665	0	31192	
7666	0	31140	
7667	0	30984	
7668	0	30784	
7669	0	30716	
7670	0	30756	
7671	0	30796	
7672	0	30892	
7673	0	31074	
7674	0	31184	
7675	0	31152	
7676	0	31128	
7677	0	31248	
7678	0	31396	
7679	0	31528	
7680	0	31576	
7681	0	31548	
7682	0	31456	
7683	0	31320	
7684	0	31240	
7685	0	31128	
7686	0	31042	
7687	0	31092	
7688	0	31160	
7689	0	31296	
7690	0	31460	
7691	0	31604	
7692	0	31764	
7693	0	32008	
7694	0	32228	
7695	0	32384	
7696	0	32332	
7697	0	32096	
7698	0	31752	
7699	0	31368	
7700	0	31116	
7701	0	31012	
7702	0	30956	
7703	0	30976	
7704	0	31082	
7705	0	31196	
7706	0	31280	
7707	0	31392	
7708	0	31556	
7709	0	31664	
7710	0	31708	
7711	0	31688	
7712	0	31580	
7713	0	31360	
7714	0	31232	
7715	0	31272	
7716	0	31296	
7717	0	31332	
7718	0	31384	
7719	0	31432	
7720	0	31480	
7721	0	31524	
7722	0	31520	
7723	0	31648	
7724	0	31824	
7725	0	31968	
7726	0	31912	
7727	0	31752	
7728	0	31610	
7729	0	31400	
7730	0	31120	
7731	0	30932	
7732	0	30792	
7733	0	30816	
7734	0	30900	
7735	0	31008	
7736	0	31232	
7737	0	31538	
7738	0	31784	
7739	0	31928	
7740	0	31900	
7741	0	31720	
7742	0	31596	
7743	0	31504	
7744	0	31568	
7745	0	31508	
7746	0	31548	
7747	0	31524	
7748	0	31552	
7749	0	31620	
7750	0	31632	
7751	0	31616	
7752	0	31498	
7753	0	31472	
7754	0	31528	
7755	0	31528	
7756	0	31668	
7757	0	31904	
7758	0	32040	
7759	0	32112	
7760	0	32312	
7761	0	32536	
7762	0	32548	
7763	0	32434	
7764	0	32204	
7765	0	32064	
7766	0	31960	
7767	0	31978	
7768	0	31936	
7769	0	31828	
7770	0	31822	
7771	0	31812	
7772	0	31832	
7773	0	31880	
7774	0	31916	
7775	0	31802	
7776	0	31752	
7777	0	31812	
7778	0	31952	
7779	0	32204	
7780	0	32500	
7781	0	32792	
7782	0	32968	
7783	0	32892	
7784	0	32624	
7785	0	32276	
7786	0	32060	
7787	0	32048	
7788	0	32068	
7789	0	32064	
7790	0	32108	
7791	0	32108	
7792	0	32004	
7793	0	31880	
7794	0	31668	
7795	0	31544	
7796	0	31620	
7797	0	31748	
7798	0	31844	
7799	0	31936	
7800	0	31960	
7801	0	32066	
7802	0	32240	
7803	0	32392	
7804	0	32562	
7805	0	32832	
7806	0	33024	
7807	0	33116	
7808	0	33188	
7809	0	33388	
7810	0	33556	
7811	0	33772	
7812	0	33920	
7813	0	33984	
7814	0	33944	
7815	0	33992	
7816	0	33932	
7817	0	33848	
7818	0	33818	
7819	0	33852	
7820	0	34004	
7821	0	34114	
7822	0	34180	
7823	0	34132	
7824	0	34024	
7825	0	33844	
7826	0	33528	
7827	0	33240	
7828	0	33004	
7829	0	32920	
7830	0	32832	
7831	0	32752	
7832	0	32772	
7833	0	32896	
7834	0	32960	
7835	0	32992	
7836	0	32916	
7837	0	32764	
7838	0	32832	
7839	0	32864	
7840	0	32712	
7841	0	32660	
7842	0	32608	
7843	0	32572	
7844	0	32688	
7845	0	32832	
7846	0	33040	
7847	0	33108	
7848	0	33078	
7849	0	33084	
7850	0	32952	
7851	0	32960	
7852	0	32972	
7853	0	32944	
7854	0	32856	
7855	0	32704	
7856	0	32604	
7857	0	32492	
7858	0	32352	
7859	0	32200	
7860	0	32060	
7861	0	31978	
7862	0	31980	
7863	0	31932	
7864	0	31916	
7865	0	32120	
7866	0	32456	
7867	0	32676	
7868	0	32736	
7869	0	32628	
7870	0	32504	
7871	0	32388	
7872	0	32372	
7873	0	32412	
7874	0	32396	
7875	0	32204	
7876	0	32052	
7877	0	31956	
7878	0	31898	
7879	0	31672	
7880	0	31436	
7881	0	31296	
7882	0	31360	
7883	0	31588	
7884	0	31870	
7885	0	31968	
7886	0	32032	
7887	0	32060	
7888	0	31988	
7889	0	32044	
7890	0	32084	
7891	0	32048	
7892	0	32040	
7893	0	32128	
7894	0	32236	
7895	0	32164	
7896	0	32168	
7897	0	32216	
7898	0	32232	
7899	0	32192	
7900	0	32064	
7901	0	31876	
7902	0	31746	
7903	0	31724	
7904	0	31580	
7905	0	31520	
7906	0	31700	
7907	0	32128	
7908	0	32572	
7909	0	32908	
7910	0	32978	
7911	0	32984	
7912	0	32952	
7913	0	32800	
7914	0	32596	
7915	0	32408	
7916	0	32298	
7917	0	32304	
7918	0	32272	
7919	0	32256	
7920	0	32272	
7921	0	32304	
7922	0	32408	
7923	0	32664	
7924	0	32856	
7925	0	32848	
7926	0	32772	
7927	0	32684	
7928	0	32720	
7929	0	32780	
7930	0	32804	
7931	0	32904	
7932	0	33024	
7933	0	33044	
7934	0	33088	
7935	0	33164	
7936	0	33172	
7937	0	33092	
7938	0	33068	
7939	0	32972	
7940	0	32920	
7941	0	32912	
7942	0	32964	
7943	0	33076	
7944	0	33304	
7945	0	33484	
7946	0	33696	
7947	0	34048	
7948	0	34488	
7949	0	34992	
7950	0	35424	
7951	0	35896	
7952	0	36376	
7953	0	36872	
7954	0	37336	
7955	0	38108	
7956	0	39144	
7957	0	40416	
7958	0	41920	
7959	0	43616	
7960	0	45432	
7961	0	47408	
7962	0	49460	
7963	0	51648	
7964	0	53992	
7965	0	56360	
7966	0	58840	
7967	0	61248	
7968	0	63128	
7969	0	64096	
7970	0	64568	
7971	0	64736	
7972	0	64812	
7973	0	64760	
7974	0	64688	
7975	0	64600	
7976	0	64468	
7977	0	64356	
7978	0	63660	
7979	0	57720	
7980	0	51560	
7981	0	45256	
7982	0	39412	
7983	0	34752	
7984	0	31268	
7985	0	28704	
7986	0	26936	
7987	0	26112	
7988	0	25928	
7989	0	25988	
7990	0	26240	
7991	0	26520	
7992	0	27004	
7993	0	27524	
7994	0	27920	
7995	0	28240	
7996	0	28436	
7997	0	28728	
7998	0	29228	
7999	0	29594	
8000	0	29797	
8001	0	30028	
8002	0	30416	
8003	0	30828	
8004	0	31172	
8005	0	31280	
8006	0	31168	
8007	0	31108	
8008	0	31134	
8009	0	31104	
8010	0	31156	
8011	0	31232	
8012	0	31372	
8013	0	31472	
8014	0	31476	
8015	0	31416	
8016	0	31388	
8017	0	31336	
8018	0	31196	
8019	0	31076	
8020	0	30912	
8021	0	30754	
8022	0	30640	
8023	0	30676	
8024	0	30612	
8025	0	30408	
8026	0	30300	
8027	0	30416	
8028	0	30592	
8029	0	30624	
8030	0	30744	
8031	0	30928	
8032	0	31090	
8033	0	31144	
8034	0	31052	
8035	0	30984	
8036	0	30972	
8037	0	30932	
8038	0	30880	
8039	0	30932	
8040	0	30984	
8041	0	30992	
8042	0	31068	
8043	0	31264	
8044	0	31544	
8045	0	31576	
8046	0	31592	
8047	0	31592	
8048	0	31516	
8049	0	31456	
8050	0	31316	
8051	0	31124	
8052	0	31016	
8053	0	31036	
8054	0	31040	
8055	0	31052	
8056	0	31200	
8057	0	31308	
8058	0	31328	
8059	0	31436	
8060	0	31552	
8061	0	31784	
8062	0	31840	
8063	0	31784	
8064	0	31744	
8065	0	31768	
8066	0	31738	
8067	0	31674	
8068	0	31640	
8069	0	31556	
8070	0	31524	
8071	0	31636	
8072	0	31738	
8073	0	31776	
8074	0	31752	
8075	0	31760	
8076	0	31840	
8077	0	32064	
8078	0	32156	
8079	0	32148	
8080	0	32280	
8081	0	32484	
8082	0	32644	
8083	0	32572	
8084	0	32472	
8085	0	32352	
8086	0	32364	
8087	0	32424	
8088	0	32472	
8089	0	32488	
8090	0	32412	
8091	0	32404	
8092	0	32456	
8093	0	32416	
8094	0	32284	
8095	0	32156	
8096	0	32128	
8097	0	32148	
8098	0	32232	
8099	0	32440	
8100	0	32668	
8101	0	32920	
8102	0	33056	
8103	0	33048	
8104	0	32976	
8105	0	33048	
8106	0	33164	
8107	0	33276	
8108	0	33386	
8109	0	33484	
8110	0	33460	
8111	0	33376	
8112	0	33396	
8113	0	33252	
8114	0	33168	
8115	0	33204	
8116	0	33312	
8117	0	33364	
8118	0	33292	
8119	0	33240	
8120	0	33320	
8121	0	33328	
8122	0	33344	
8123	0	33344	
8124	0	33444	
8125	0	33512	
8126	0	33552	
8127	0	33588	
8128	0	33668	
8129	0	33658	
8130	0	33708	
8131	0	33860	
8132	0	33970	
8133	0	33784	
8134	0	33488	
8135	0	33340	
8136	0	33392	
8137	0	33460	
8138	0	33516	
8139	0	33704	
8140	0	34020	
8141	0	34240	
8142	0	34384	
8143	0	34468	
8144	0	34388	
8145	0	34360	
8146	0	34388	
8147	0	34336	
8148	0	34300	
8149	0	34200	
8150	0	34212	
8151	0	34212	
8152	0	34112	
8153	0	34108	
8154	0	34138	
8155	0	34164	
8156	0	34192	
8157	0	34252	
8158	0	34200	
8159	0	34268	
8160	0	34456	
8161	0	34724	
8162	0	34948	
8163	0	35136	
8164	0	35192	
8165	0	35088	
8166	0	34948	
8167	0	34776	
8168	0	34594	
8169	0	34432	
8170	0	34264	
8171	0	34088	
8172	0	34116	
8173	0	34280	
8174	0	34448	
8175	0	34552	
8176	0	34648	
8177	0	34804	
8178	0	35108	
8179	0	35360	
8180	0	35520	
8181	0	35528	
8182	0	35480	
8183	0	35412	
8184	0	35320	
8185	0	35296	
8186	0	35308	
8187	0	35320	
8188	0	35392	
8189	0	35480	
8190	0	35556	
8191	0	35648	
8192	0	35616	
8193	0	35508	
8194	0	35430	
8195	0	35440	
8196	0	35424	
8197	0	35372	
8198	0	35424	
8199	0	35624	
8200	0	35716	
8201	0	35708	
8202	0	35696	
8203	0	35596	
8204	0	35492	
8205	0	35476	
8206	0	35600	
8207	0	35708	
8208	0	35736	
8209	0	35746	
8210	0	35844	
8211	0	35948	
8212	0	35992	
8213	0	36172	
8214	0	36372	
8215	0	36572	
8216	0	36624	
8217	0	36380	
8218	0	36104	
8219	0	36000	
8220	0	36056	
8221	0	36172	
8222	0	36192	
8223	0	36188	
8224	0	36232	
8225	0	36208	
8226	0	36260	
8227	0	36272	
8228	0	36148	
8229	0	35908	
8230	0	35632	
8231	0	35344	
8232	0	35144	
8233	0	35040	
8234	0	35016	
8235	0	34948	
8236	0	34920	
8237	0	34896	
8238	0	34872	
8239	0	34704	
8240	0	34484	
8241	0	34280	
8242	0	34156	
8243	0	34080	
8244	0	34060	
8245	0	33928	
8246	0	33864	
8247	0	33640	
8248	0	33288	
8249	0	32952	
8250	0	32728	
8251	0	32568	
8252	0	32508	
8253	0	32400	
8254	0	32340	
8255	0	32188	
8256	0	32044	
8257	0	31852	
8258	0	31512	
8259	0	31124	
8260	0	30824	
8261	0	30528	
8262	0	30332	
8263	0	30258	
8264	0	30220	
8265	0	30210	
8266	0	30210	
8267	0	30146	
8268	0	29888	
8269	0	29732	
8270	0	29656	
8271	0	29640	
8272	0	29604	
8273	0	29520	
8274	0	29578	
8275	0	29656	
8276	0	29556	
8277	0	29394	
8278	0	29284	
8279	0	29368	
8280	0	29424	
8281	0	29592	
8282	0	29740	
8283	0	29616	
8284	0	29292	
8285	0	28856	
8286	0	28480	
8287	0	28228	
8288	0	28140	
8289	0	28136	
8290	0	28160	
8291	0	28304	
8292	0	28424	
8293	0	28464	
8294	0	28516	
8295	0	28580	
8296	0	28484	
8297	0	28360	
8298	0	28160	
8299	0	28050	
8300	0	28068	
8301	0	28108	
8302	0	28200	
8303	0	28260	
8304	0	28340	
8305	0	28312	
8306	0	28192	
8307	0	28096	
8308	0	28000	
8309	0	27996	
8310	0	28008	
8311	0	28104	
8312	0	28204	
8313	0	28164	
8314	0	28248	
8315	0	28392	
8316	0	28504	
8317	0	28744	
8318	0	28896	
8319	0	28960	
8320	0	28936	
8321	0	28808	
8322	0	28690	
8323	0	28864	
8324	0	29112	
8325	0	29156	
8326	0	29052	
8327	0	29090	
8328	0	29108	
8329	0	29132	
8330	0	29192	
8331	0	29304	
8332	0	29404	
8333	0	29384	
8334	0	29384	
8335	0	29412	
8336	0	29368	
8337	0	29252	
8338	0	29300	
8339	0	29412	
8340	0	29512	
8341	0	29628	
8342	0	29680	
8343	0	29664	
8344	0	29640	
8345	0	29604	
8346	0	29616	
8347	0	29746	
8348	0	29896	
8349	0	29992	
8350	0	30020	
8351	0	30032	
8352	0	30132	
8353	0	30184	
8354	0	30136	
8355	0	30112	
8356	0	30208	
8357	0	30384	
8358	0	30514	
8359	0	30572	
8360	0	30524	
8361	0	30428	
8362	0	30376	
8363	0	30324	
8364	0	30400	
8365	0	30520	
8366	0	30668	
8367	0	30840	
8368	0	30980	
8369	0	30956	
8370	0	30944	
8371	0	31012	
8372	0	31048	
8373	0	30976	
8374	0	30592	
8375	0	30368	
8376	0	30348	
8377	0	30440	
8378	0	30628	
8379	0	30828	
8380	0	30928	
8381	0	31024	
8382	0	31056	
8383	0	31056	
8384	0	31172	
8385	0	31312	
8386	0	31384	
8387	0	31312	
8388	0	31184	
8389	0	31128	
8390	0	31064	
8391	0	31040	
8392	0	31208	
8393	0	31508	
8394	0	31704	
8395	0	31732	
8396	0	31816	
8397	0	31934	
8398	0	31976	
8399	0	31964	
8400	0	32052	
8401	0	32176	
8402	0	32272	
8403	0	32404	
8404	0	32362	
8405	0	32332	
8406	0	32312	
8407	0	32196	
8408	0	32032	
8409	0	31892	
8410	0	31792	
8411	0	31796	
8412	0	31800	
8413	0	31716	
8414	0	31508	
8415	0	31272	
8416	0	31136	
8417	0	31144	
8418	0	31360	
8419	0	31572	
8420	0	31696	
8421	0	31772	
8422	0	31824	
8423	0	31898	
8424	0	31984	
8425	0	32000	
8426	0	31996	
8427	0	31928	
8428	0	31812	
8429	0	31784	
8430	0	31812	
8431	0	31944	
8432	0	32068	
8433	0	32152	
8434	0	32224	
8435	0	32256	
8436	0	32256	
8437	0	32348	
8438	0	32436	
8439	0	32444	
8440	0	32392	
8441	0	32348	
8442	0	32336	
8443	0	32312	
8444	0	32352	
8445	0	32400	
8446	0	32516	
8447	0	32684	
8448	0	32716	
8449	0	32508	
8450	0	32136	
8451	0	31872	
8452	0	31652	
8453	0	31552	
8454	0	31544	
8455	0	31492	
8456	0	31540	
8457	0	31728	
8458	0	31856	
8459	0	31988	
8460	0	32144	
8461	0	32236	
8462	0	32220	
8463	0	32128	
8464	0	31948	
8465	0	31752	
8466	0	31520	
8467	0	31372	
8468	0	31392	
8469	0	31452	
8470	0	31564	
8471	0	31636	
8472	0	31752	
8473	0	31844	
8474	0	31888	
8475	0	31928	
8476	0	31968	
8477	0	31988	
8478	0	32000	
8479	0	32044	
8480	0	32000	
8481	0	31936	
8482	0	31888	
8483	0	32020	
8484	0	32296	
8485	0	32532	
8486	0	32812	
8487	0	32960	
8488	0	32848	
8489	0	32684	
8490	0	32596	
8491	0	32564	
8492	0	32640	
8493	0	32680	
8494	0	32656	
8495	0	32596	
8496	0	32584	
8497	0	32644	
8498	0	32596	
8499	0	32468	
8500	0	32400	
8501	0	32368	
8502	0	32300	
8503	0	32180	
8504	0	32064	
8505	0	32000	
8506	0	32172	
8507	0	32448	
8508	0	32616	
8509	0	32640	
8510	0	32696	
8511	0	32800	
8512	0	32868	
8513	0	33032	
8514	0	33188	
8515	0	33228	
8516	0	33216	
8517	0	33176	
8518	0	33160	
8519	0	33292	
8520	0	33356	
8521	0	33336	
8522	0	33420	
8523	0	33556	
8524	0	33728	
8525	0	33968	
8526	0	34104	
8527	0	34120	
8528	0	34058	
8529	0	34020	
8530	0	34020	
8531	0	34046	
8532	0	34016	
8533	0	33920	
8534	0	33772	
8535	0	33572	
8536	0	33356	
8537	0	33204	
8538	0	33144	
8539	0	33104	
8540	0	33028	
8541	0	32932	
8542	0	32852	
8543	0	32768	
8544	0	32724	
8545	0	32716	
8546	0	32576	
8547	0	32292	
8548	0	32124	
8549	0	31992	
8550	0	31876	
8551	0	31908	
8552	0	32088	
8553	0	32248	
8554	0	32344	
8555	0	32316	
8556	0	32228	
8557	0	32192	
8558	0	32224	
8559	0	32404	
8560	0	32548	
8561	0	32580	
8562	0	32588	
8563	0	32520	
8564	0	32368	
8565	0	32288	
8566	0	32192	
8567	0	32072	
8568	0	32016	
8569	0	32068	
8570	0	32060	
8571	0	31980	
8572	0	31960	
8573	0	32008	
8574	0	32140	
8575	0	32220	
8576	0	32220	
8577	0	32216	
8578	0	32312	
8579	0	32448	
8580	0	32476	
8581	0	32428	
8582	0	32296	
8583	0	32108	
8584	0	31892	
8585	0	31690	
8586	0	31600	
8587	0	31560	
8588	0	31576	
8589	0	31564	
8590	0	31532	
8591	0	31521	
