# OpenSignals Text File Format. Version 1
# {"00:07:80:4B:15:F7": {"position": 0, "device": "biosignalsplux", "device name": "00:07:80:4B:15:F7", "device connection": "BTH00:07:80:4B:15:F7", "sampling rate": 1000, "resolution": [16], "firmware version": 775, "comments": "", "keywords": "", "mode": 0, "sync interval": 2, "date": "2023-4-11", "time": "15:53:57.655", "channels": [1], "sensor": ["ECG"], "label": ["CH1"], "column": ["nSeq", "DI", "CH1"], "special": [{"SpO2": [80, 40, 5, 4, 3, 3]}, {"SpO2": [80, 40, 5, 4, 3, 3]}, {"SpO2": [80, 40, 5, 4, 3, 3]}, {"SpO2": [80, 40, 5, 4, 3, 3]}, {"SpO2": [80, 40, 5, 4, 3, 3]}, {"SpO2": [80, 40, 5, 4, 3, 3]}, {"SpO2": [80, 40, 5, 4, 3, 3]}, {"SpO2": [80, 40, 5, 4, 3, 3]}], "digital IO": [0, 1], "sleeve color": ["green"], "convertedValues": 0}}
# EndOfHeader
0	0	33808	
1	0	33860	
2	0	33872	
3	0	33856	
4	0	33856	
5	0	33878	
6	0	33860	
7	0	33844	
8	0	33856	
9	0	33896	
10	0	33944	
11	0	33960	
12	0	33944	
13	0	33956	
14	0	34020	
15	0	34096	
16	0	34200	
17	0	34264	
18	0	34360	
19	0	34420	
20	0	34484	
21	0	34560	
22	0	34496	
23	0	34412	
24	0	34344	
25	0	34336	
26	0	34336	
27	0	34320	
28	0	34346	
29	0	34320	
30	0	34276	
31	0	34280	
32	0	34324	
33	0	34380	
34	0	34436	
35	0	34504	
36	0	34552	
37	0	34572	
38	0	34604	
39	0	34640	
40	0	34696	
41	0	34752	
42	0	34768	
43	0	34784	
44	0	34820	
45	0	34844	
46	0	34948	
47	0	35096	
48	0	35184	
49	0	35218	
50	0	35212	
51	0	35248	
52	0	35328	
53	0	35336	
54	0	35320	
55	0	35292	
56	0	35256	
57	0	35248	
58	0	35252	
59	0	35268	
60	0	35276	
61	0	35312	
62	0	35376	
63	0	35416	
64	0	35404	
65	0	35392	
66	0	35412	
67	0	35474	
68	0	35536	
69	0	35560	
70	0	35568	
71	0	35560	
72	0	35552	
73	0	35520	
74	0	35484	
75	0	35416	
76	0	35364	
77	0	35352	
78	0	35328	
79	0	35264	
80	0	35156	
81	0	35032	
82	0	34944	
83	0	34848	
84	0	34784	
85	0	34756	
86	0	34716	
87	0	34608	
88	0	34496	
89	0	34352	
90	0	34228	
91	0	34104	
92	0	33956	
93	0	33778	
94	0	33614	
95	0	33508	
96	0	33480	
97	0	33432	
98	0	33336	
99	0	33220	
100	0	33100	
101	0	32960	
102	0	32824	
103	0	32706	
104	0	32576	
105	0	32460	
106	0	32298	
107	0	32168	
108	0	32056	
109	0	31972	
110	0	31888	
111	0	31780	
112	0	31700	
113	0	31620	
114	0	31552	
115	0	31464	
116	0	31344	
117	0	31228	
118	0	31112	
119	0	31028	
120	0	30908	
121	0	30744	
122	0	30574	
123	0	30476	
124	0	30428	
125	0	30392	
126	0	30336	
127	0	30272	
128	0	30244	
129	0	30228	
130	0	30128	
131	0	30008	
132	0	29908	
133	0	29848	
134	0	29760	
135	0	29701	
136	0	29668	
137	0	29612	
138	0	29558	
139	0	29536	
140	0	29560	
141	0	29608	
142	0	29640	
143	0	29684	
144	0	29724	
145	0	29704	
146	0	29692	
147	0	29692	
148	0	29716	
149	0	29748	
150	0	29760	
151	0	29768	
152	0	29774	
153	0	29768	
154	0	29792	
155	0	29856	
156	0	29888	
157	0	29920	
158	0	29952	
159	0	29984	
160	0	30000	
161	0	30016	
162	0	29984	
163	0	29936	
164	0	29896	
165	0	29908	
166	0	29888	
167	0	29856	
168	0	29888	
169	0	29908	
170	0	29912	
171	0	29952	
172	0	30024	
173	0	30084	
174	0	30100	
175	0	30084	
176	0	30072	
177	0	30042	
178	0	30056	
179	0	30068	
180	0	30108	
181	0	30148	
182	0	30112	
183	0	30112	
184	0	30128	
185	0	30148	
186	0	30124	
187	0	30044	
188	0	30016	
189	0	30020	
190	0	30060	
191	0	30120	
192	0	30152	
193	0	30200	
194	0	30276	
195	0	30336	
196	0	30388	
197	0	30460	
198	0	30508	
199	0	30552	
200	0	30600	
201	0	30688	
202	0	30740	
203	0	30756	
204	0	30760	
205	0	30712	
206	0	30612	
207	0	30560	
208	0	30552	
209	0	30608	
210	0	30690	
211	0	30720	
212	0	30768	
213	0	30808	
214	0	30848	
215	0	30856	
216	0	30880	
217	0	30952	
218	0	30984	
219	0	31012	
220	0	31022	
221	0	31040	
222	0	31066	
223	0	31040	
224	0	30972	
225	0	30904	
226	0	30844	
227	0	30796	
228	0	30800	
229	0	30840	
230	0	30844	
231	0	30884	
232	0	30916	
233	0	30936	
234	0	30958	
235	0	31000	
236	0	31028	
237	0	31040	
238	0	31084	
239	0	31120	
240	0	31184	
241	0	31248	
242	0	31248	
243	0	31252	
244	0	31296	
245	0	31368	
246	0	31404	
247	0	31420	
248	0	31392	
249	0	31340	
250	0	31290	
251	0	31288	
252	0	31300	
253	0	31332	
254	0	31332	
255	0	31304	
256	0	31304	
257	0	31364	
258	0	31404	
259	0	31434	
260	0	31472	
261	0	31556	
262	0	31608	
263	0	31614	
264	0	31616	
265	0	31604	
266	0	31592	
267	0	31576	
268	0	31632	
269	0	31728	
270	0	31792	
271	0	31834	
272	0	31888	
273	0	31954	
274	0	32024	
275	0	32088	
276	0	32116	
277	0	32052	
278	0	31952	
279	0	31832	
280	0	31754	
281	0	31724	
282	0	31656	
283	0	31564	
284	0	31472	
285	0	31460	
286	0	31480	
287	0	31484	
288	0	31468	
289	0	31492	
290	0	31496	
291	0	31500	
292	0	31512	
293	0	31532	
294	0	31636	
295	0	31768	
296	0	31884	
297	0	31920	
298	0	31938	
299	0	31962	
300	0	31952	
301	0	31984	
302	0	32016	
303	0	32052	
304	0	32080	
305	0	32034	
306	0	31984	
307	0	31884	
308	0	31740	
309	0	31712	
310	0	31724	
311	0	31808	
312	0	31856	
313	0	31888	
314	0	31956	
315	0	31976	
316	0	32000	
317	0	32028	
318	0	32044	
319	0	32028	
320	0	32000	
321	0	32000	
322	0	32008	
323	0	31952	
324	0	31892	
325	0	31840	
326	0	31852	
327	0	31912	
328	0	31936	
329	0	31932	
330	0	31904	
331	0	31900	
332	0	31892	
333	0	31884	
334	0	31872	
335	0	31848	
336	0	31832	
337	0	31840	
338	0	31854	
339	0	31872	
340	0	31924	
341	0	31952	
342	0	32020	
343	0	32100	
344	0	32176	
345	0	32208	
346	0	32212	
347	0	32192	
348	0	32156	
349	0	32120	
350	0	32144	
351	0	32204	
352	0	32260	
353	0	32252	
354	0	32212	
355	0	32224	
356	0	32232	
357	0	32168	
358	0	32100	
359	0	32060	
360	0	32032	
361	0	32024	
362	0	31996	
363	0	31976	
364	0	31976	
365	0	31932	
366	0	31956	
367	0	32008	
368	0	32086	
369	0	32162	
370	0	32250	
371	0	32284	
372	0	32304	
373	0	32320	
374	0	32300	
375	0	32272	
376	0	32272	
377	0	32272	
378	0	32240	
379	0	32176	
380	0	32144	
381	0	32164	
382	0	32196	
383	0	32296	
384	0	32352	
385	0	32384	
386	0	32396	
387	0	32364	
388	0	32332	
389	0	32332	
390	0	32352	
391	0	32336	
392	0	32312	
393	0	32280	
394	0	32212	
395	0	32156	
396	0	32105	
397	0	32072	
398	0	32068	
399	0	32128	
400	0	32184	
401	0	32196	
402	0	32224	
403	0	32264	
404	0	32288	
405	0	32308	
406	0	32336	
407	0	32410	
408	0	32456	
409	0	32440	
410	0	32448	
411	0	32484	
412	0	32548	
413	0	32612	
414	0	32628	
415	0	32618	
416	0	32632	
417	0	32664	
418	0	32672	
419	0	32644	
420	0	32608	
421	0	32570	
422	0	32520	
423	0	32496	
424	0	32480	
425	0	32444	
426	0	32372	
427	0	32336	
428	0	32348	
429	0	32356	
430	0	32352	
431	0	32324	
432	0	32296	
433	0	32252	
434	0	32256	
435	0	32288	
436	0	32364	
437	0	32476	
438	0	32560	
439	0	32576	
440	0	32538	
441	0	32568	
442	0	32544	
443	0	32492	
444	0	32460	
445	0	32440	
446	0	32368	
447	0	32304	
448	0	32236	
449	0	32260	
450	0	32252	
451	0	32284	
452	0	32282	
453	0	32308	
454	0	32344	
455	0	32412	
456	0	32448	
457	0	32448	
458	0	32452	
459	0	32504	
460	0	32556	
461	0	32596	
462	0	32640	
463	0	32648	
464	0	32656	
465	0	32680	
466	0	32692	
467	0	32720	
468	0	32784	
469	0	32794	
470	0	32800	
471	0	32740	
472	0	32700	
473	0	32696	
474	0	32716	
475	0	32692	
476	0	32656	
477	0	32656	
478	0	32672	
479	0	32636	
480	0	32596	
481	0	32560	
482	0	32520	
483	0	32480	
484	0	32456	
485	0	32472	
486	0	32500	
487	0	32560	
488	0	32602	
489	0	32618	
490	0	32656	
491	0	32732	
492	0	32824	
493	0	32896	
494	0	32936	
495	0	32992	
496	0	33036	
497	0	32992	
498	0	32940	
499	0	32896	
500	0	32884	
501	0	32888	
502	0	32892	
503	0	32924	
504	0	32912	
505	0	32924	
506	0	32960	
507	0	32944	
508	0	32880	
509	0	32812	
510	0	32816	
511	0	32900	
512	0	33020	
513	0	33136	
514	0	33248	
515	0	33392	
516	0	33488	
517	0	33608	
518	0	33728	
519	0	33844	
520	0	33960	
521	0	34050	
522	0	34120	
523	0	34232	
524	0	34296	
525	0	34352	
526	0	34424	
527	0	34536	
528	0	34660	
529	0	34728	
530	0	34712	
531	0	34628	
532	0	34528	
533	0	34372	
534	0	34220	
535	0	34080	
536	0	33908	
537	0	33740	
538	0	33616	
539	0	33528	
540	0	33448	
541	0	33388	
542	0	33320	
543	0	33272	
544	0	33178	
545	0	33128	
546	0	33156	
547	0	33136	
548	0	33088	
549	0	33076	
550	0	33020	
551	0	32952	
552	0	32892	
553	0	32848	
554	0	32808	
555	0	32860	
556	0	32936	
557	0	32994	
558	0	33064	
559	0	33112	
560	0	33104	
561	0	33090	
562	0	33080	
563	0	33080	
564	0	33080	
565	0	33112	
566	0	33136	
567	0	33120	
568	0	33084	
569	0	33018	
570	0	32888	
571	0	32764	
572	0	32656	
573	0	32536	
574	0	32428	
575	0	32364	
576	0	32272	
577	0	32192	
578	0	32156	
579	0	32184	
580	0	32228	
581	0	32272	
582	0	32290	
583	0	32296	
584	0	32292	
585	0	32290	
586	0	32304	
587	0	32300	
588	0	32216	
589	0	32180	
590	0	32180	
591	0	32196	
592	0	32186	
593	0	32200	
594	0	32260	
595	0	32312	
596	0	32380	
597	0	32452	
598	0	32512	
599	0	32544	
600	0	32576	
601	0	32568	
602	0	32512	
603	0	32444	
604	0	32392	
605	0	32376	
606	0	32388	
607	0	32432	
608	0	32476	
609	0	32484	
610	0	32464	
611	0	32448	
612	0	32436	
613	0	32468	
614	0	32564	
615	0	32644	
616	0	32640	
617	0	32632	
618	0	32636	
619	0	32672	
620	0	32720	
621	0	32768	
622	0	32784	
623	0	32728	
624	0	32704	
625	0	32688	
626	0	32640	
627	0	32596	
628	0	32544	
629	0	32560	
630	0	32576	
631	0	32544	
632	0	32464	
633	0	32392	
634	0	32340	
635	0	32324	
636	0	32348	
637	0	32400	
638	0	32412	
639	0	32424	
640	0	32432	
641	0	32452	
642	0	32490	
643	0	32520	
644	0	32600	
645	0	32680	
646	0	32764	
647	0	32816	
648	0	32828	
649	0	32816	
650	0	32800	
651	0	32746	
652	0	32592	
653	0	32382	
654	0	32204	
655	0	32112	
656	0	32108	
657	0	32224	
658	0	32456	
659	0	32714	
660	0	33004	
661	0	33400	
662	0	33820	
663	0	34200	
664	0	34392	
665	0	34480	
666	0	34676	
667	0	34980	
668	0	35440	
669	0	36144	
670	0	37152	
671	0	38304	
672	0	39584	
673	0	41036	
674	0	42648	
675	0	44360	
676	0	46024	
677	0	47672	
678	0	49424	
679	0	51248	
680	0	52984	
681	0	54532	
682	0	55856	
683	0	57120	
684	0	58364	
685	0	59568	
686	0	60600	
687	0	61148	
688	0	60808	
689	0	59272	
690	0	56604	
691	0	53044	
692	0	48944	
693	0	44696	
694	0	40700	
695	0	37212	
696	0	34436	
697	0	32488	
698	0	31200	
699	0	30304	
700	0	29648	
701	0	29276	
702	0	29074	
703	0	29024	
704	0	29152	
705	0	29392	
706	0	29644	
707	0	29850	
708	0	30008	
709	0	30144	
710	0	30264	
711	0	30396	
712	0	30556	
713	0	30760	
714	0	30988	
715	0	31176	
716	0	31310	
717	0	31372	
718	0	31388	
719	0	31412	
720	0	31450	
721	0	31452	
722	0	31396	
723	0	31288	
724	0	31188	
725	0	31152	
726	0	31116	
727	0	31072	
728	0	31036	
729	0	31032	
730	0	31048	
731	0	31086	
732	0	31132	
733	0	31156	
734	0	31120	
735	0	31078	
736	0	31040	
737	0	31020	
738	0	31004	
739	0	30964	
740	0	30952	
741	0	30938	
742	0	30946	
743	0	30984	
744	0	31056	
745	0	31124	
746	0	31200	
747	0	31276	
748	0	31360	
749	0	31412	
750	0	31436	
751	0	31466	
752	0	31524	
753	0	31536	
754	0	31500	
755	0	31484	
756	0	31504	
757	0	31528	
758	0	31544	
759	0	31528	
760	0	31508	
761	0	31480	
762	0	31496	
763	0	31540	
764	0	31588	
765	0	31566	
766	0	31552	
767	0	31528	
768	0	31544	
769	0	31536	
770	0	31544	
771	0	31576	
772	0	31630	
773	0	31682	
774	0	31712	
775	0	31712	
776	0	31728	
777	0	31768	
778	0	31808	
779	0	31860	
780	0	31876	
781	0	31916	
782	0	31928	
783	0	31928	
784	0	31970	
785	0	32044	
786	0	32096	
787	0	32128	
788	0	32180	
789	0	32268	
790	0	32332	
791	0	32352	
792	0	32332	
793	0	32324	
794	0	32340	
795	0	32356	
796	0	32356	
797	0	32352	
798	0	32384	
799	0	32456	
800	0	32528	
801	0	32556	
802	0	32544	
803	0	32536	
804	0	32536	
805	0	32544	
806	0	32552	
807	0	32580	
808	0	32616	
809	0	32672	
810	0	32704	
811	0	32730	
812	0	32728	
813	0	32728	
814	0	32740	
815	0	32764	
816	0	32720	
817	0	32716	
818	0	32800	
819	0	32896	
820	0	32940	
821	0	32992	
822	0	33010	
823	0	32980	
824	0	32976	
825	0	32984	
826	0	32980	
827	0	32940	
828	0	32912	
829	0	32892	
830	0	32900	
831	0	33008	
832	0	33088	
833	0	33152	
834	0	33272	
835	0	33376	
836	0	33420	
837	0	33452	
838	0	33458	
839	0	33448	
840	0	33504	
841	0	33520	
842	0	33520	
843	0	33504	
844	0	33496	
845	0	33468	
846	0	33400	
847	0	33320	
848	0	33268	
849	0	33236	
850	0	33256	
851	0	33310	
852	0	33348	
853	0	33376	
854	0	33416	
855	0	33440	
856	0	33480	
857	0	33484	
858	0	33496	
859	0	33516	
860	0	33548	
861	0	33588	
862	0	33648	
863	0	33716	
864	0	33760	
865	0	33808	
866	0	33856	
867	0	33900	
868	0	33912	
869	0	33972	
870	0	34016	
871	0	34024	
872	0	34008	
873	0	33992	
874	0	33928	
875	0	33828	
876	0	33808	
877	0	33848	
878	0	33932	
879	0	33964	
880	0	33940	
881	0	33984	
882	0	34100	
883	0	34184	
884	0	34256	
885	0	34320	
886	0	34348	
887	0	34384	
888	0	34416	
889	0	34440	
890	0	34492	
891	0	34512	
892	0	34528	
893	0	34552	
894	0	34608	
895	0	34680	
896	0	34744	
897	0	34788	
898	0	34802	
899	0	34840	
900	0	34844	
901	0	34848	
902	0	34824	
903	0	34820	
904	0	34896	
905	0	34992	
906	0	35020	
907	0	35032	
908	0	35104	
909	0	35200	
910	0	35238	
911	0	35260	
912	0	35240	
913	0	35200	
914	0	35198	
915	0	35214	
916	0	35200	
917	0	35224	
918	0	35284	
919	0	35354	
920	0	35468	
921	0	35556	
922	0	35648	
923	0	35652	
924	0	35660	
925	0	35680	
926	0	35716	
927	0	35768	
928	0	35788	
929	0	35800	
930	0	35776	
931	0	35796	
932	0	35812	
933	0	35804	
934	0	35792	
935	0	35708	
936	0	35632	
937	0	35572	
938	0	35536	
939	0	35576	
940	0	35632	
941	0	35696	
942	0	35748	
943	0	35768	
944	0	35744	
945	0	35696	
946	0	35650	
947	0	35596	
948	0	35536	
949	0	35500	
950	0	35460	
951	0	35436	
952	0	35404	
953	0	35336	
954	0	35272	
955	0	35176	
956	0	35096	
957	0	35032	
958	0	34948	
959	0	34826	
960	0	34744	
961	0	34620	
962	0	34472	
963	0	34368	
964	0	34260	
965	0	34160	
966	0	34028	
967	0	33888	
968	0	33780	
969	0	33672	
970	0	33556	
971	0	33404	
972	0	33220	
973	0	33048	
974	0	32892	
975	0	32708	
976	0	32556	
977	0	32436	
978	0	32290	
979	0	32120	
980	0	31884	
981	0	31696	
982	0	31568	
983	0	31464	
984	0	31344	
985	0	31208	
986	0	31092	
987	0	31000	
988	0	30864	
989	0	30760	
990	0	30632	
991	0	30508	
992	0	30440	
993	0	30452	
994	0	30472	
995	0	30412	
996	0	30368	
997	0	30306	
998	0	30162	
999	0	30028	
1000	0	29980	
1001	0	29920	
1002	0	29888	
1003	0	29884	
1004	0	29860	
1005	0	29828	
1006	0	29760	
1007	0	29676	
1008	0	29644	
1009	0	29660	
1010	0	29640	
1011	0	29564	
1012	0	29512	
1013	0	29492	
1014	0	29472	
1015	0	29452	
1016	0	29468	
1017	0	29432	
1018	0	29388	
1019	0	29312	
1020	0	29272	
1021	0	29196	
1022	0	29204	
1023	0	29244	
1024	0	29268	
1025	0	29250	
1026	0	29252	
1027	0	29284	
1028	0	29284	
1029	0	29284	
1030	0	29328	
1031	0	29360	
1032	0	29364	
1033	0	29392	
1034	0	29392	
1035	0	29406	
1036	0	29424	
1037	0	29444	
1038	0	29424	
1039	0	29428	
1040	0	29460	
1041	0	29510	
1042	0	29588	
1043	0	29664	
1044	0	29712	
1045	0	29744	
1046	0	29758	
1047	0	29736	
1048	0	29724	
1049	0	29680	
1050	0	29624	
1051	0	29600	
1052	0	29572	
1053	0	29569	
1054	0	29560	
1055	0	29584	
1056	0	29664	
1057	0	29764	
1058	0	29800	
1059	0	29808	
1060	0	29832	
1061	0	29856	
1062	0	29888	
1063	0	29980	
1064	0	30044	
1065	0	30076	
1066	0	30100	
1067	0	30088	
1068	0	30080	
1069	0	30076	
1070	0	30064	
1071	0	30048	
1072	0	30016	
1073	0	30004	
1074	0	30028	
1075	0	30052	
1076	0	30076	
1077	0	30108	
1078	0	30164	
1079	0	30208	
1080	0	30272	
1081	0	30348	
1082	0	30404	
1083	0	30480	
1084	0	30554	
1085	0	30644	
1086	0	30740	
1087	0	30780	
1088	0	30760	
1089	0	30760	
1090	0	30728	
1091	0	30696	
1092	0	30632	
1093	0	30658	
1094	0	30740	
1095	0	30776	
1096	0	30814	
1097	0	30852	
1098	0	30908	
1099	0	31000	
1100	0	31072	
1101	0	31108	
1102	0	31144	
1103	0	31152	
1104	0	31128	
1105	0	31136	
1106	0	31164	
1107	0	31184	
1108	0	31188	
1109	0	31176	
1110	0	31184	
1111	0	31156	
1112	0	31136	
1113	0	31112	
1114	0	31132	
1115	0	31148	
1116	0	31168	
1117	0	31164	
1118	0	31168	
1119	0	31180	
1120	0	31212	
1121	0	31224	
1122	0	31256	
1123	0	31314	
1124	0	31332	
1125	0	31300	
1126	0	31272	
1127	0	31280	
1128	0	31332	
1129	0	31416	
1130	0	31516	
1131	0	31600	
1132	0	31664	
1133	0	31696	
1134	0	31776	
1135	0	31832	
1136	0	31868	
1137	0	31888	
1138	0	31872	
1139	0	31848	
1140	0	31834	
1141	0	31820	
1142	0	31772	
1143	0	31745	
1144	0	31712	
1145	0	31644	
1146	0	31592	
1147	0	31568	
1148	0	31528	
1149	0	31496	
1150	0	31482	
1151	0	31474	
1152	0	31464	
1153	0	31476	
1154	0	31488	
1155	0	31500	
1156	0	31536	
1157	0	31600	
1158	0	31688	
1159	0	31756	
1160	0	31804	
1161	0	31812	
1162	0	31768	
1163	0	31764	
1164	0	31778	
1165	0	31756	
1166	0	31732	
1167	0	31696	
1168	0	31716	
1169	0	31760	
1170	0	31752	
1171	0	31728	
1172	0	31700	
1173	0	31704	
1174	0	31720	
1175	0	31750	
1176	0	31768	
1177	0	31760	
1178	0	31744	
1179	0	31728	
1180	0	31724	
1181	0	31712	
1182	0	31740	
1183	0	31760	
1184	0	31772	
1185	0	31792	
1186	0	31816	
1187	0	31872	
1188	0	31952	
1189	0	31984	
1190	0	31992	
1191	0	31984	
1192	0	31984	
1193	0	31978	
1194	0	32004	
1195	0	31964	
1196	0	31960	
1197	0	32012	
1198	0	32052	
1199	0	32092	
1200	0	32140	
1201	0	32164	
1202	0	32148	
1203	0	32116	
1204	0	32072	
1205	0	32044	
1206	0	32052	
1207	0	32092	
1208	0	32154	
1209	0	32180	
1210	0	32192	
1211	0	32176	
1212	0	32176	
1213	0	32224	
1214	0	32280	
1215	0	32356	
1216	0	32472	
1217	0	32564	
1218	0	32572	
1219	0	32552	
1220	0	32508	
1221	0	32436	
1222	0	32360	
1223	0	32310	
1224	0	32244	
1225	0	32212	
1226	0	32204	
1227	0	32208	
1228	0	32240	
1229	0	32272	
1230	0	32296	
1231	0	32314	
1232	0	32352	
1233	0	32364	
1234	0	32336	
1235	0	32288	
1236	0	32276	
1237	0	32268	
1238	0	32272	
1239	0	32296	
1240	0	32348	
1241	0	32356	
1242	0	32364	
1243	0	32346	
1244	0	32314	
1245	0	32296	
1246	0	32316	
1247	0	32344	
1248	0	32352	
1249	0	32346	
1250	0	32344	
1251	0	32364	
1252	0	32418	
1253	0	32452	
1254	0	32484	
1255	0	32476	
1256	0	32472	
1257	0	32492	
1258	0	32464	
1259	0	32432	
1260	0	32428	
1261	0	32472	
1262	0	32544	
1263	0	32600	
1264	0	32624	
1265	0	32584	
1266	0	32556	
1267	0	32524	
1268	0	32524	
1269	0	32520	
1270	0	32544	
1271	0	32576	
1272	0	32608	
1273	0	32624	
1274	0	32644	
1275	0	32652	
1276	0	32636	
1277	0	32600	
1278	0	32600	
1279	0	32612	
1280	0	32666	
1281	0	32708	
1282	0	32736	
1283	0	32732	
1284	0	32704	
1285	0	32720	
1286	0	32764	
1287	0	32808	
1288	0	32840	
1289	0	32896	
1290	0	32944	
1291	0	32948	
1292	0	33000	
1293	0	33032	
1294	0	33018	
1295	0	32980	
1296	0	32912	
1297	0	32872	
1298	0	32824	
1299	0	32812	
1300	0	32844	
1301	0	32880	
1302	0	32908	
1303	0	32888	
1304	0	32832	
1305	0	32788	
1306	0	32768	
1307	0	32752	
1308	0	32772	
1309	0	32800	
1310	0	32808	
1311	0	32864	
1312	0	32900	
1313	0	32960	
1314	0	33024	
1315	0	33056	
1316	0	33004	
1317	0	32960	
1318	0	32940	
1319	0	32888	
1320	0	32856	
1321	0	32848	
1322	0	32852	
1323	0	32864	
1324	0	32872	
1325	0	32848	
1326	0	32816	
1327	0	32844	
1328	0	32898	
1329	0	32896	
1330	0	32900	
1331	0	32948	
1332	0	32940	
1333	0	32944	
1334	0	32876	
1335	0	32800	
1336	0	32784	
1337	0	32788	
1338	0	32824	
1339	0	32892	
1340	0	32956	
1341	0	33000	
1342	0	33032	
1343	0	33076	
1344	0	33128	
1345	0	33164	
1346	0	33216	
1347	0	33252	
1348	0	33280	
1349	0	33316	
1350	0	33320	
1351	0	33304	
1352	0	33272	
1353	0	33264	
1354	0	33204	
1355	0	33120	
1356	0	33040	
1357	0	33044	
1358	0	33056	
1359	0	33072	
1360	0	33024	
1361	0	32988	
1362	0	32984	
1363	0	33038	
1364	0	33088	
1365	0	33228	
1366	0	33388	
1367	0	33510	
1368	0	33552	
1369	0	33608	
1370	0	33640	
1371	0	33668	
1372	0	33712	
1373	0	33776	
1374	0	33892	
1375	0	34024	
1376	0	34148	
1377	0	34244	
1378	0	34314	
1379	0	34380	
1380	0	34436	
1381	0	34500	
1382	0	34536	
1383	0	34544	
1384	0	34504	
1385	0	34428	
1386	0	34328	
1387	0	34260	
1388	0	34180	
1389	0	34068	
1390	0	34016	
1391	0	33968	
1392	0	33928	
1393	0	33932	
1394	0	33900	
1395	0	33812	
1396	0	33776	
1397	0	33744	
1398	0	33720	
1399	0	33636	
1400	0	33564	
1401	0	33536	
1402	0	33564	
1403	0	33572	
1404	0	33524	
1405	0	33496	
1406	0	33436	
1407	0	33360	
1408	0	33248	
1409	0	33164	
1410	0	33116	
1411	0	33088	
1412	0	33058	
1413	0	33056	
1414	0	33052	
1415	0	33048	
1416	0	33072	
1417	0	33080	
1418	0	33088	
1419	0	33132	
1420	0	33152	
1421	0	33096	
1422	0	33004	
1423	0	32960	
1424	0	32940	
1425	0	32924	
1426	0	32864	
1427	0	32800	
1428	0	32760	
1429	0	32724	
1430	0	32668	
1431	0	32640	
1432	0	32632	
1433	0	32588	
1434	0	32546	
1435	0	32548	
1436	0	32536	
1437	0	32516	
1438	0	32500	
1439	0	32472	
1440	0	32452	
1441	0	32400	
1442	0	32384	
1443	0	32396	
1444	0	32388	
1445	0	32388	
1446	0	32392	
1447	0	32388	
1448	0	32360	
1449	0	32354	
1450	0	32384	
1451	0	32392	
1452	0	32392	
1453	0	32392	
1454	0	32376	
1455	0	32368	
1456	0	32352	
1457	0	32336	
1458	0	32298	
1459	0	32272	
1460	0	32288	
1461	0	32312	
1462	0	32272	
1463	0	32288	
1464	0	32316	
1465	0	32324	
1466	0	32300	
1467	0	32306	
1468	0	32312	
1469	0	32388	
1470	0	32492	
1471	0	32584	
1472	0	32648	
1473	0	32652	
1474	0	32602	
1475	0	32548	
1476	0	32552	
1477	0	32584	
1478	0	32572	
1479	0	32488	
1480	0	32440	
1481	0	32440	
1482	0	32480	
1483	0	32472	
1484	0	32396	
1485	0	32300	
1486	0	32224	
1487	0	32242	
1488	0	32272	
1489	0	32288	
1490	0	32296	
1491	0	32352	
1492	0	32384	
1493	0	32394	
1494	0	32364	
1495	0	32404	
1496	0	32472	
1497	0	32500	
1498	0	32504	
1499	0	32552	
1500	0	32616	
1501	0	32680	
1502	0	32706	
1503	0	32738	
1504	0	32778	
1505	0	32696	
1506	0	32560	
1507	0	32440	
1508	0	32320	
1509	0	32220	
1510	0	32208	
1511	0	32340	
1512	0	32672	
1513	0	32972	
1514	0	33280	
1515	0	33636	
1516	0	33932	
1517	0	34216	
1518	0	34476	
1519	0	34692	
1520	0	34976	
1521	0	35354	
1522	0	35908	
1523	0	36628	
1524	0	37472	
1525	0	38480	
1526	0	39596	
1527	0	40920	
1528	0	42368	
1529	0	43946	
1530	0	45532	
1531	0	47232	
1532	0	48960	
1533	0	50624	
1534	0	52080	
1535	0	53384	
1536	0	54528	
1537	0	55560	
1538	0	56744	
1539	0	57964	
1540	0	58912	
1541	0	59392	
1542	0	58908	
1543	0	57112	
1544	0	54192	
1545	0	50628	
1546	0	46704	
1547	0	42700	
1548	0	39008	
1549	0	35880	
1550	0	33552	
1551	0	31972	
1552	0	30916	
1553	0	30264	
1554	0	29940	
1555	0	29744	
1556	0	29668	
1557	0	29732	
1558	0	29868	
1559	0	30040	
1560	0	30192	
1561	0	30296	
1562	0	30396	
1563	0	30396	
1564	0	30352	
1565	0	30384	
1566	0	30504	
1567	0	30656	
1568	0	30796	
1569	0	30906	
1570	0	30968	
1571	0	31016	
1572	0	31068	
1573	0	31108	
1574	0	31132	
1575	0	31112	
1576	0	31120	
1577	0	31180	
1578	0	31256	
1579	0	31306	
1580	0	31288	
1581	0	31292	
1582	0	31324	
1583	0	31332	
1584	0	31304	
1585	0	31212	
1586	0	31144	
1587	0	31120	
1588	0	31152	
1589	0	31178	
1590	0	31160	
1591	0	31104	
1592	0	31104	
1593	0	31112	
1594	0	31116	
1595	0	31110	
1596	0	31144	
1597	0	31196	
1598	0	31248	
1599	0	31292	
1600	0	31308	
1601	0	31288	
1602	0	31268	
1603	0	31232	
1604	0	31232	
1605	0	31224	
1606	0	31220	
1607	0	31184	
1608	0	31160	
1609	0	31184	
1610	0	31208	
1611	0	31200	
1612	0	31216	
1613	0	31256	
1614	0	31258	
1615	0	31236	
1616	0	31244	
1617	0	31228	
1618	0	31216	
1619	0	31248	
1620	0	31288	
1621	0	31348	
1622	0	31424	
1623	0	31504	
1624	0	31524	
1625	0	31570	
1626	0	31624	
1627	0	31660	
1628	0	31728	
1629	0	31844	
1630	0	31936	
1631	0	31948	
1632	0	31936	
1633	0	31920	
1634	0	31940	
1635	0	31992	
1636	0	32096	
1637	0	32224	
1638	0	32280	
1639	0	32274	
1640	0	32268	
1641	0	32260	
1642	0	32256	
1643	0	32248	
1644	0	32256	
1645	0	32220	
1646	0	32216	
1647	0	32248	
1648	0	32296	
1649	0	32276	
1650	0	32244	
1651	0	32240	
1652	0	32234	
1653	0	32248	
1654	0	32296	
1655	0	32312	
1656	0	32288	
1657	0	32312	
1658	0	32344	
1659	0	32360	
1660	0	32320	
1661	0	32288	
1662	0	32352	
1663	0	32434	
1664	0	32480	
1665	0	32536	
1666	0	32584	
1667	0	32674	
1668	0	32760	
1669	0	32848	
1670	0	32920	
1671	0	32928	
1672	0	32882	
1673	0	32856	
1674	0	32856	
1675	0	32864	
1676	0	32856	
1677	0	32880	
1678	0	32896	
1679	0	32844	
1680	0	32824	
1681	0	32864	
1682	0	32912	
1683	0	32944	
1684	0	32952	
1685	0	32968	
1686	0	32984	
1687	0	32988	
1688	0	33000	
1689	0	33016	
1690	0	33036	
1691	0	33068	
1692	0	33098	
1693	0	33096	
1694	0	33080	
1695	0	33096	
1696	0	33144	
1697	0	33148	
1698	0	33186	
1699	0	33260	
1700	0	33264	
1701	0	33312	
1702	0	33376	
1703	0	33412	
1704	0	33416	
1705	0	33440	
1706	0	33436	
1707	0	33464	
1708	0	33520	
1709	0	33576	
1710	0	33624	
1711	0	33660	
1712	0	33676	
1713	0	33684	
1714	0	33648	
1715	0	33644	
1716	0	33700	
1717	0	33736	
1718	0	33732	
1719	0	33734	
1720	0	33802	
1721	0	33896	
1722	0	33964	
1723	0	33996	
1724	0	34040	
1725	0	34036	
1726	0	34040	
1727	0	34072	
1728	0	34168	
1729	0	34256	
1730	0	34328	
1731	0	34328	
1732	0	34324	
1733	0	34352	
1734	0	34369	
1735	0	34352	
1736	0	34312	
1737	0	34240	
1738	0	34180	
1739	0	34172	
1740	0	34180	
1741	0	34188	
1742	0	34144	
1743	0	34100	
1744	0	34076	
1745	0	34092	
1746	0	34128	
1747	0	34196	
1748	0	34240	
1749	0	34276	
1750	0	34288	
1751	0	34332	
1752	0	34364	
1753	0	34440	
1754	0	34540	
1755	0	34584	
1756	0	34600	
1757	0	34624	
1758	0	34664	
1759	0	34712	
1760	0	34744	
1761	0	34784	
1762	0	34824	
1763	0	34856	
1764	0	34900	
1765	0	34928	
1766	0	34936	
1767	0	34944	
1768	0	34944	
1769	0	34992	
1770	0	35012	
1771	0	35036	
1772	0	35096	
1773	0	35176	
1774	0	35248	
1775	0	35284	
1776	0	35312	
1777	0	35332	
1778	0	35336	
1779	0	35352	
1780	0	35372	
1781	0	35384	
1782	0	35392	
1783	0	35396	
1784	0	35380	
1785	0	35412	
1786	0	35488	
1787	0	35580	
1788	0	35640	
1789	0	35632	
1790	0	35556	
1791	0	35488	
1792	0	35440	
1793	0	35332	
1794	0	35276	
1795	0	35296	
1796	0	35324	
1797	0	35368	
1798	0	35412	
1799	0	35394	
1800	0	35352	
1801	0	35268	
1802	0	35228	
1803	0	35212	
1804	0	35146	
1805	0	35052	
1806	0	34992	
1807	0	34956	
1808	0	34904	
1809	0	34842	
1810	0	34736	
1811	0	34656	
1812	0	34568	
1813	0	34448	
1814	0	34360	
1815	0	34312	
1816	0	34256	
1817	0	34196	
1818	0	34072	
1819	0	33934	
1820	0	33820	
1821	0	33704	
1822	0	33568	
1823	0	33396	
1824	0	33264	
1825	0	33124	
1826	0	33016	
1827	0	32896	
1828	0	32748	
1829	0	32604	
1830	0	32476	
1831	0	32344	
1832	0	32192	
1833	0	32088	
1834	0	31992	
1835	0	31868	
1836	0	31716	
1837	0	31584	
1838	0	31468	
1839	0	31368	
1840	0	31264	
1841	0	31156	
1842	0	31088	
1843	0	31012	
1844	0	30936	
1845	0	30792	
1846	0	30612	
1847	0	30464	
1848	0	30364	
1849	0	30288	
1850	0	30220	
1851	0	30160	
1852	0	30092	
1853	0	30060	
1854	0	30040	
1855	0	30002	
1856	0	29964	
1857	0	29918	
1858	0	29900	
1859	0	29876	
1860	0	29852	
1861	0	29856	
1862	0	29856	
1863	0	29848	
1864	0	29828	
1865	0	29828	
1866	0	29792	
1867	0	29768	
1868	0	29748	
1869	0	29740	
1870	0	29716	
1871	0	29736	
1872	0	29708	
1873	0	29700	
1874	0	29730	
1875	0	29712	
1876	0	29656	
1877	0	29612	
1878	0	29606	
1879	0	29648	
1880	0	29740	
1881	0	29824	
1882	0	29816	
1883	0	29760	
1884	0	29764	
1885	0	29792	
1886	0	29844	
1887	0	29904	
1888	0	29912	
1889	0	29904	
1890	0	29914	
1891	0	29940	
1892	0	29976	
1893	0	29996	
1894	0	30020	
1895	0	30004	
1896	0	29988	
1897	0	29944	
1898	0	29916	
1899	0	29952	
1900	0	30008	
1901	0	30064	
1902	0	30104	
1903	0	30144	
1904	0	30194	
1905	0	30272	
1906	0	30340	
1907	0	30356	
1908	0	30352	
1909	0	30328	
1910	0	30320	
1911	0	30324	
1912	0	30354	
1913	0	30372	
1914	0	30384	
1915	0	30372	
1916	0	30312	
1917	0	30240	
1918	0	30192	
1919	0	30154	
1920	0	30128	
1921	0	30140	
1922	0	30188	
1923	0	30196	
1924	0	30228	
1925	0	30284	
1926	0	30328	
1927	0	30344	
1928	0	30360	
1929	0	30400	
1930	0	30440	
1931	0	30476	
1932	0	30496	
1933	0	30516	
1934	0	30556	
1935	0	30616	
1936	0	30658	
1937	0	30672	
1938	0	30678	
1939	0	30676	
1940	0	30656	
1941	0	30640	
1942	0	30588	
1943	0	30572	
1944	0	30604	
1945	0	30672	
1946	0	30704	
1947	0	30752	
1948	0	30828	
1949	0	30920	
1950	0	30964	
1951	0	31032	
1952	0	31060	
1953	0	31060	
1954	0	31040	
1955	0	31032	
1956	0	31074	
1957	0	31108	
1958	0	31156	
1959	0	31188	
1960	0	31176	
1961	0	31200	
1962	0	31240	
1963	0	31272	
1964	0	31284	
1965	0	31296	
1966	0	31298	
1967	0	31244	
1968	0	31224	
1969	0	31170	
1970	0	31074	
1971	0	31048	
1972	0	31064	
1973	0	31060	
1974	0	31098	
1975	0	31172	
1976	0	31224	
1977	0	31228	
1978	0	31224	
1979	0	31256	
1980	0	31288	
1981	0	31336	
1982	0	31360	
1983	0	31360	
1984	0	31296	
1985	0	31268	
1986	0	31240	
1987	0	31288	
1988	0	31324	
1989	0	31296	
1990	0	31280	
1991	0	31292	
1992	0	31328	
1993	0	31396	
1994	0	31456	
1995	0	31508	
1996	0	31520	
1997	0	31520	
1998	0	31516	
1999	0	31524	
2000	0	31512	
2001	0	31512	
2002	0	31536	
2003	0	31562	
2004	0	31580	
2005	0	31588	
2006	0	31592	
2007	0	31588	
2008	0	31576	
2009	0	31552	
2010	0	31488	
2011	0	31480	
2012	0	31504	
2013	0	31512	
2014	0	31508	
2015	0	31504	
2016	0	31472	
2017	0	31432	
2018	0	31456	
2019	0	31468	
2020	0	31500	
2021	0	31524	
2022	0	31540	
2023	0	31600	
2024	0	31612	
2025	0	31628	
2026	0	31628	
2027	0	31642	
2028	0	31636	
2029	0	31616	
2030	0	31624	
2031	0	31636	
2032	0	31692	
2033	0	31776	
2034	0	31768	
2035	0	31672	
2036	0	31648	
2037	0	31644	
2038	0	31668	
2039	0	31720	
2040	0	31684	
2041	0	31648	
2042	0	31638	
2043	0	31664	
2044	0	31648	
2045	0	31636	
2046	0	31644	
2047	0	31672	
2048	0	31732	
2049	0	31756	
2050	0	31776	
2051	0	31760	
2052	0	31768	
2053	0	31762	
2054	0	31788	
2055	0	31800	
2056	0	31820	
2057	0	31880	
2058	0	31928	
2059	0	31936	
2060	0	31928	
2061	0	31896	
2062	0	31868	
2063	0	31904	
2064	0	31960	
2065	0	31968	
2066	0	31936	
2067	0	31912	
2068	0	31848	
2069	0	31800	
2070	0	31728	
2071	0	31706	
2072	0	31736	
2073	0	31736	
2074	0	31764	
2075	0	31776	
2076	0	31780	
2077	0	31808	
2078	0	31826	
2079	0	31860	
2080	0	31892	
2081	0	31936	
2082	0	31980	
2083	0	32052	
2084	0	32072	
2085	0	32084	
2086	0	32116	
2087	0	32156	
2088	0	32152	
2089	0	32136	
2090	0	32096	
2091	0	32048	
2092	0	31996	
2093	0	31972	
2094	0	31948	
2095	0	31952	
2096	0	31978	
2097	0	32004	
2098	0	32024	
2099	0	32028	
2100	0	32036	
2101	0	32092	
2102	0	32128	
2103	0	32088	
2104	0	32012	
2105	0	31968	
2106	0	31944	
2107	0	31968	
2108	0	31970	
2109	0	32012	
2110	0	32056	
2111	0	32084	
2112	0	32100	
2113	0	32132	
2114	0	32168	
2115	0	32184	
2116	0	32176	
2117	0	32168	
2118	0	32148	
2119	0	32160	
2120	0	32136	
2121	0	32112	
2122	0	32112	
2123	0	32104	
2124	0	32108	
2125	0	32112	
2126	0	32084	
2127	0	32056	
2128	0	31992	
2129	0	31982	
2130	0	32014	
2131	0	32136	
2132	0	32280	
2133	0	32380	
2134	0	32414	
2135	0	32376	
2136	0	32328	
2137	0	32276	
2138	0	32240	
2139	0	32224	
2140	0	32252	
2141	0	32288	
2142	0	32296	
2143	0	32320	
2144	0	32312	
2145	0	32356	
2146	0	32352	
2147	0	32328	
2148	0	32320	
2149	0	32328	
2150	0	32366	
2151	0	32400	
2152	0	32432	
2153	0	32468	
2154	0	32548	
2155	0	32600	
2156	0	32628	
2157	0	32624	
2158	0	32588	
2159	0	32552	
2160	0	32488	
2161	0	32450	
2162	0	32438	
2163	0	32420	
2164	0	32380	
2165	0	32388	
2166	0	32380	
2167	0	32392	
2168	0	32448	
2169	0	32460	
2170	0	32480	
2171	0	32528	
2172	0	32576	
2173	0	32620	
2174	0	32620	
2175	0	32632	
2176	0	32596	
2177	0	32552	
2178	0	32504	
2179	0	32484	
2180	0	32536	
2181	0	32568	
2182	0	32604	
2183	0	32648	
2184	0	32672	
2185	0	32660	
2186	0	32636	
2187	0	32576	
2188	0	32464	
2189	0	32372	
2190	0	32264	
2191	0	32240	
2192	0	32296	
2193	0	32344	
2194	0	32408	
2195	0	32424	
2196	0	32432	
2197	0	32428	
2198	0	32464	
2199	0	32524	
2200	0	32536	
2201	0	32516	
2202	0	32516	
2203	0	32532	
2204	0	32536	
2205	0	32544	
2206	0	32552	
2207	0	32580	
2208	0	32616	
2209	0	32644	
2210	0	32636	
2211	0	32652	
2212	0	32634	
2213	0	32636	
2214	0	32666	
2215	0	32680	
2216	0	32700	
2217	0	32768	
2218	0	32864	
2219	0	32976	
2220	0	33076	
2221	0	33068	
2222	0	33008	
2223	0	32936	
2224	0	32876	
2225	0	32800	
2226	0	32784	
2227	0	32772	
2228	0	32736	
2229	0	32708	
2230	0	32700	
2231	0	32768	
2232	0	32808	
2233	0	32850	
2234	0	32880	
2235	0	32892	
2236	0	32914	
2237	0	32944	
2238	0	32954	
2239	0	32896	
2240	0	32836	
2241	0	32760	
2242	0	32712	
2243	0	32716	
2244	0	32708	
2245	0	32700	
2246	0	32672	
2247	0	32606	
2248	0	32570	
2249	0	32592	
2250	0	32600	
2251	0	32608	
2252	0	32664	
2253	0	32700	
2254	0	32760	
2255	0	32816	
2256	0	32852	
2257	0	32820	
2258	0	32800	
2259	0	32760	
2260	0	32672	
2261	0	32562	
2262	0	32564	
2263	0	32576	
2264	0	32644	
2265	0	32710	
2266	0	32748	
2267	0	32776	
2268	0	32784	
2269	0	32780	
2270	0	32852	
2271	0	32900	
2272	0	32940	
2273	0	32952	
2274	0	32976	
2275	0	32992	
2276	0	33000	
2277	0	32964	
2278	0	32930	
2279	0	32952	
2280	0	32996	
2281	0	33032	
2282	0	33088	
2283	0	33088	
2284	0	33092	
2285	0	33114	
2286	0	33100	
2287	0	33108	
2288	0	33124	
2289	0	33108	
2290	0	33034	
2291	0	32952	
2292	0	32956	
2293	0	33016	
2294	0	33020	
2295	0	33008	
2296	0	33040	
2297	0	33020	
2298	0	32928	
2299	0	32932	
2300	0	33004	
2301	0	33112	
2302	0	33252	
2303	0	33384	
2304	0	33504	
2305	0	33592	
2306	0	33644	
2307	0	33740	
2308	0	33860	
2309	0	33960	
2310	0	34072	
2311	0	34132	
2312	0	34184	
2313	0	34252	
2314	0	34268	
2315	0	34288	
2316	0	34320	
2317	0	34416	
2318	0	34472	
2319	0	34480	
2320	0	34512	
2321	0	34522	
2322	0	34496	
2323	0	34428	
2324	0	34320	
2325	0	34212	
2326	0	34140	
2327	0	34040	
2328	0	33936	
2329	0	33850	
2330	0	33760	
2331	0	33716	
2332	0	33688	
2333	0	33660	
2334	0	33624	
2335	0	33632	
2336	0	33608	
2337	0	33612	
2338	0	33576	
2339	0	33548	
2340	0	33512	
2341	0	33490	
2342	0	33496	
2343	0	33512	
2344	0	33492	
2345	0	33448	
2346	0	33392	
2347	0	33336	
2348	0	33344	
2349	0	33360	
2350	0	33336	
2351	0	33256	
2352	0	33204	
2353	0	33216	
2354	0	33216	
2355	0	33200	
2356	0	33132	
2357	0	33064	
2358	0	32984	
2359	0	32956	
2360	0	32900	
2361	0	32848	
2362	0	32764	
2363	0	32688	
2364	0	32616	
2365	0	32548	
2366	0	32512	
2367	0	32524	
2368	0	32516	
2369	0	32514	
2370	0	32552	
2371	0	32572	
2372	0	32552	
2373	0	32516	
2374	0	32468	
2375	0	32480	
2376	0	32552	
2377	0	32572	
2378	0	32592	
2379	0	32548	
2380	0	32520	
2381	0	32514	
2382	0	32512	
2383	0	32512	
2384	0	32440	
2385	0	32416	
2386	0	32424	
2387	0	32428	
2388	0	32434	
2389	0	32480	
2390	0	32496	
2391	0	32508	
2392	0	32528	
2393	0	32520	
2394	0	32512	
2395	0	32536	
2396	0	32520	
2397	0	32472	
2398	0	32416	
2399	0	32400	
2400	0	32384	
2401	0	32416	
2402	0	32448	
2403	0	32468	
2404	0	32480	
2405	0	32480	
2406	0	32464	
2407	0	32448	
2408	0	32468	
2409	0	32494	
2410	0	32524	
2411	0	32596	
2412	0	32700	
2413	0	32808	
2414	0	32832	
2415	0	32812	
2416	0	32792	
2417	0	32832	
2418	0	32860	
2419	0	32840	
2420	0	32816	
2421	0	32776	
2422	0	32716	
2423	0	32628	
2424	0	32600	
2425	0	32610	
2426	0	32598	
2427	0	32604	
2428	0	32600	
2429	0	32556	
2430	0	32508	
2431	0	32472	
2432	0	32512	
2433	0	32644	
2434	0	32730	
2435	0	32728	
2436	0	32744	
2437	0	32760	
2438	0	32776	
2439	0	32760	
2440	0	32706	
2441	0	32616	
2442	0	32512	
2443	0	32400	
2444	0	32344	
2445	0	32372	
2446	0	32534	
2447	0	32720	
2448	0	32964	
2449	0	33308	
2450	0	33680	
2451	0	34048	
2452	0	34400	
2453	0	34668	
2454	0	34868	
2455	0	35156	
2456	0	35624	
2457	0	36336	
2458	0	37196	
2459	0	38224	
2460	0	39336	
2461	0	40584	
2462	0	41972	
2463	0	43532	
2464	0	45112	
2465	0	46668	
2466	0	48368	
2467	0	50052	
2468	0	51572	
2469	0	52832	
2470	0	53992	
2471	0	55004	
2472	0	56040	
2473	0	57240	
2474	0	58312	
2475	0	59040	
2476	0	59140	
2477	0	58080	
2478	0	55728	
2479	0	52500	
2480	0	48792	
2481	0	44852	
2482	0	41012	
2483	0	37556	
2484	0	34832	
2485	0	32908	
2486	0	31604	
2487	0	30820	
2488	0	30432	
2489	0	30268	
2490	0	30156	
2491	0	30124	
2492	0	30136	
2493	0	30196	
2494	0	30244	
2495	0	30304	
2496	0	30404	
2497	0	30466	
2498	0	30456	
2499	0	30416	
2500	0	30420	
2501	0	30532	
2502	0	30728	
2503	0	30872	
2504	0	30980	
2505	0	31100	
2506	0	31192	
2507	0	31256	
2508	0	31248	
2509	0	31256	
2510	0	31224	
2511	0	31226	
2512	0	31172	
2513	0	31112	
2514	0	31092	
2515	0	31080	
2516	0	31040	
2517	0	31040	
2518	0	31032	
2519	0	31028	
2520	0	31012	
2521	0	31008	
2522	0	31040	
2523	0	31052	
2524	0	31112	
2525	0	31176	
2526	0	31220	
2527	0	31228	
2528	0	31248	
2529	0	31248	
2530	0	31252	
2531	0	31228	
2532	0	31232	
2533	0	31248	
2534	0	31272	
2535	0	31256	
2536	0	31236	
2537	0	31196	
2538	0	31128	
2539	0	31096	
2540	0	31116	
2541	0	31148	
2542	0	31216	
2543	0	31306	
2544	0	31380	
2545	0	31424	
2546	0	31464	
2547	0	31532	
2548	0	31520	
2549	0	31464	
2550	0	31486	
2551	0	31500	
2552	0	31532	
2553	0	31604	
2554	0	31680	
2555	0	31732	
2556	0	31764	
2557	0	31768	
2558	0	31776	
2559	0	31818	
2560	0	31884	
2561	0	31892	
2562	0	31856	
2563	0	31816	
2564	0	31754	
2565	0	31748	
2566	0	31760	
2567	0	31772	
2568	0	31788	
2569	0	31776	
2570	0	31768	
2571	0	31756	
2572	0	31740	
2573	0	31792	
2574	0	31856	
2575	0	31920	
2576	0	31996	
2577	0	32064	
2578	0	32116	
2579	0	32192	
2580	0	32316	
2581	0	32384	
2582	0	32444	
2583	0	32448	
2584	0	32448	
2585	0	32476	
2586	0	32524	
2587	0	32584	
2588	0	32604	
2589	0	32620	
2590	0	32620	
2591	0	32616	
2592	0	32600	
2593	0	32536	
2594	0	32464	
2595	0	32448	
2596	0	32456	
2597	0	32506	
2598	0	32496	
2599	0	32442	
2600	0	32372	
2601	0	32360	
2602	0	32376	
2603	0	32412	
2604	0	32480	
2605	0	32576	
2606	0	32672	
2607	0	32688	
2608	0	32708	
2609	0	32744	
2610	0	32772	
2611	0	32848	
2612	0	32912	
2613	0	32994	
2614	0	33052	
2615	0	33068	
2616	0	33072	
2617	0	33058	
2618	0	33048	
2619	0	33088	
2620	0	33172	
2621	0	33208	
2622	0	33224	
2623	0	33248	
2624	0	33264	
2625	0	33296	
2626	0	33288	
2627	0	33264	
2628	0	33252	
2629	0	33264	
2630	0	33264	
2631	0	33248	
2632	0	33280	
2633	0	33332	
2634	0	33344	
2635	0	33344	
2636	0	33360	
2637	0	33360	
2638	0	33312	
2639	0	33276	
2640	0	33284	
2641	0	33258	
2642	0	33268	
2643	0	33232	
2644	0	33172	
2645	0	33176	
2646	0	33232	
2647	0	33260	
2648	0	33280	
2649	0	33306	
2650	0	33324	
2651	0	33334	
2652	0	33352	
2653	0	33352	
2654	0	33396	
2655	0	33436	
2656	0	33480	
2657	0	33520	
2658	0	33556	
2659	0	33556	
2660	0	33576	
2661	0	33616	
2662	0	33644	
2663	0	33688	
2664	0	33740	
2665	0	33796	
2666	0	33896	
2667	0	33960	
2668	0	34024	
2669	0	34076	
2670	0	34092	
2671	0	34060	
2672	0	34056	
2673	0	34084	
2674	0	34112	
2675	0	34132	
2676	0	34092	
2677	0	34076	
2678	0	34068	
2679	0	34072	
2680	0	34132	
2681	0	34244	
2682	0	34336	
2683	0	34400	
2684	0	34436	
2685	0	34528	
2686	0	34660	
2687	0	34736	
2688	0	34800	
2689	0	34808	
2690	0	34788	
2691	0	34772	
2692	0	34720	
2693	0	34656	
2694	0	34610	
2695	0	34572	
2696	0	34524	
2697	0	34536	
2698	0	34620	
2699	0	34720	
2700	0	34812	
2701	0	34896	
2702	0	34984	
2703	0	35044	
2704	0	35072	
2705	0	35060	
2706	0	34972	
2707	0	34906	
2708	0	34880	
2709	0	34864	
2710	0	34820	
2711	0	34792	
2712	0	34796	
2713	0	34808	
2714	0	34832	
2715	0	34884	
2716	0	34936	
2717	0	34940	
2718	0	34880	
2719	0	34824	
2720	0	34892	
2721	0	34948	
2722	0	35060	
2723	0	35176	
2724	0	35262	
2725	0	35316	
2726	0	35376	
2727	0	35400	
2728	0	35424	
2729	0	35488	
2730	0	35500	
2731	0	35444	
2732	0	35380	
2733	0	35336	
2734	0	35328	
2735	0	35338	
2736	0	35360	
2737	0	35336	
2738	0	35296	
2739	0	35268	
2740	0	35266	
2741	0	35280	
2742	0	35256	
2743	0	35212	
2744	0	35160	
2745	0	35064	
2746	0	34978	
2747	0	34952	
2748	0	34944	
2749	0	34900	
2750	0	34816	
2751	0	34696	
2752	0	34576	
2753	0	34424	
2754	0	34304	
2755	0	34160	
2756	0	34004	
2757	0	33816	
2758	0	33642	
2759	0	33488	
2760	0	33392	
2761	0	33276	
2762	0	33136	
2763	0	32952	
2764	0	32824	
2765	0	32736	
2766	0	32640	
2767	0	32556	
2768	0	32488	
2769	0	32408	
2770	0	32352	
2771	0	32266	
2772	0	32100	
2773	0	31916	
2774	0	31788	
2775	0	31688	
2776	0	31584	
2777	0	31488	
2778	0	31380	
2779	0	31260	
2780	0	31140	
2781	0	30968	
2782	0	30792	
2783	0	30640	
2784	0	30544	
2785	0	30440	
2786	0	30352	
2787	0	30340	
2788	0	30356	
2789	0	30308	
2790	0	30288	
2791	0	30280	
2792	0	30288	
2793	0	30224	
2794	0	30152	
2795	0	30128	
2796	0	30068	
2797	0	30022	
2798	0	30016	
2799	0	29952	
2800	0	29872	
2801	0	29816	
2802	0	29776	
2803	0	29768	
2804	0	29776	
2805	0	29788	
2806	0	29776	
2807	0	29744	
2808	0	29740	
2809	0	29732	
2810	0	29684	
2811	0	29636	
2812	0	29620	
2813	0	29620	
2814	0	29624	
2815	0	29612	
2816	0	29628	
2817	0	29656	
2818	0	29688	
2819	0	29736	
2820	0	29788	
2821	0	29864	
2822	0	29912	
2823	0	29962	
2824	0	30022	
2825	0	30004	
2826	0	29912	
2827	0	29888	
2828	0	29948	
2829	0	30012	
2830	0	30084	
2831	0	30124	
2832	0	30152	
2833	0	30160	
2834	0	30192	
2835	0	30248	
2836	0	30296	
2837	0	30332	
2838	0	30312	
2839	0	30268	
2840	0	30284	
2841	0	30320	
2842	0	30368	
2843	0	30416	
2844	0	30440	
2845	0	30500	
2846	0	30512	
2847	0	30468	
2848	0	30424	
2849	0	30424	
2850	0	30432	
2851	0	30432	
2852	0	30450	
2853	0	30532	
2854	0	30572	
2855	0	30608	
2856	0	30688	
2857	0	30744	
2858	0	30780	
2859	0	30816	
2860	0	30852	
2861	0	30882	
2862	0	30924	
2863	0	30936	
2864	0	30976	
2865	0	30992	
2866	0	31016	
2867	0	31044	
2868	0	31064	
2869	0	31076	
2870	0	31080	
2871	0	31112	
2872	0	31140	
2873	0	31148	
2874	0	31108	
2875	0	31064	
2876	0	31072	
2877	0	31056	
2878	0	31024	
2879	0	30976	
2880	0	30888	
2881	0	30838	
2882	0	30856	
2883	0	30852	
2884	0	30816	
2885	0	30784	
2886	0	30780	
2887	0	30796	
2888	0	30864	
2889	0	30940	
2890	0	31064	
2891	0	31214	
2892	0	31328	
2893	0	31388	
2894	0	31408	
2895	0	31388	
2896	0	31396	
2897	0	31348	
2898	0	31304	
2899	0	31296	
2900	0	31270	
2901	0	31256	
2902	0	31238	
2903	0	31228	
2904	0	31264	
2905	0	31298	
2906	0	31272	
2907	0	31224	
2908	0	31200	
2909	0	31188	
2910	0	31260	
2911	0	31324	
2912	0	31356	
2913	0	31388	
2914	0	31376	
2915	0	31360	
2916	0	31384	
2917	0	31424	
2918	0	31458	
2919	0	31440	
2920	0	31412	
2921	0	31418	
2922	0	31448	
2923	0	31412	
2924	0	31356	
2925	0	31296	
2926	0	31256	
2927	0	31292	
2928	0	31320	
2929	0	31284	
2930	0	31256	
2931	0	31272	
2932	0	31328	
2933	0	31400	
2934	0	31450	
2935	0	31468	
2936	0	31456	
2937	0	31468	
2938	0	31432	
2939	0	31400	
2940	0	31444	
2941	0	31480	
2942	0	31500	
2943	0	31516	
2944	0	31552	
2945	0	31572	
2946	0	31576	
2947	0	31552	
2948	0	31508	
2949	0	31520	
2950	0	31584	
2951	0	31656	
2952	0	31668	
2953	0	31680	
2954	0	31668	
2955	0	31704	
2956	0	31744	
2957	0	31784	
2958	0	31834	
2959	0	31868	
2960	0	31860	
2961	0	31792	
2962	0	31656	
2963	0	31584	
2964	0	31588	
2965	0	31600	
2966	0	31594	
2967	0	31590	
2968	0	31584	
2969	0	31608	
2970	0	31608	
2971	0	31596	
2972	0	31588	
2973	0	31596	
2974	0	31572	
2975	0	31532	
2976	0	31516	
2977	0	31520	
2978	0	31504	
2979	0	31516	
2980	0	31552	
2981	0	31580	
2982	0	31572	
2983	0	31560	
2984	0	31536	
2985	0	31528	
2986	0	31596	
2987	0	31652	
2988	0	31656	
2989	0	31600	
2990	0	31572	
2991	0	31564	
2992	0	31588	
2993	0	31652	
2994	0	31676	
2995	0	31744	
2996	0	31776	
2997	0	31764	
2998	0	31730	
2999	0	31732	
3000	0	31736	
3001	0	31754	
3002	0	31732	
3003	0	31706	
3004	0	31696	
3005	0	31688	
3006	0	31708	
3007	0	31698	
3008	0	31688	
3009	0	31648	
3010	0	31584	
3011	0	31588	
3012	0	31588	
3013	0	31552	
3014	0	31564	
3015	0	31608	
3016	0	31696	
3017	0	31780	
3018	0	31852	
3019	0	31888	
3020	0	31888	
3021	0	31876	
3022	0	31868	
3023	0	31834	
3024	0	31776	
3025	0	31720	
3026	0	31676	
3027	0	31680	
3028	0	31732	
3029	0	31728	
3030	0	31728	
3031	0	31756	
3032	0	31772	
3033	0	31780	
3034	0	31808	
3035	0	31824	
3036	0	31840	
3037	0	31864	
3038	0	31882	
3039	0	31872	
3040	0	31852	
3041	0	31904	
3042	0	31932	
3043	0	31904	
3044	0	31904	
3045	0	31964	
3046	0	31964	
3047	0	31916	
3048	0	31902	
3049	0	31912	
3050	0	31920	
3051	0	31944	
3052	0	31976	
3053	0	31984	
3054	0	31926	
3055	0	31908	
3056	0	31936	
3057	0	31928	
3058	0	31920	
3059	0	31896	
3060	0	31860	
3061	0	31868	
3062	0	31936	
3063	0	32044	
3064	0	32088	
3065	0	32036	
3066	0	32064	
3067	0	32120	
3068	0	32148	
3069	0	32182	
3070	0	32192	
3071	0	32160	
3072	0	32116	
3073	0	32056	
3074	0	32044	
3075	0	32092	
3076	0	32156	
3077	0	32180	
3078	0	32232	
3079	0	32292	
3080	0	32324	
3081	0	32344	
3082	0	32320	
3083	0	32284	
3084	0	32272	
3085	0	32208	
3086	0	32152	
3087	0	32144	
3088	0	32176	
3089	0	32228	
3090	0	32268	
3091	0	32296	
3092	0	32284	
3093	0	32252	
3094	0	32256	
3095	0	32324	
3096	0	32384	
3097	0	32376	
3098	0	32312	
3099	0	32252	
3100	0	32228	
3101	0	32196	
3102	0	32224	
3103	0	32264	
3104	0	32288	
3105	0	32268	
3106	0	32272	
3107	0	32336	
3108	0	32408	
3109	0	32440	
3110	0	32448	
3111	0	32436	
3112	0	32416	
3113	0	32424	
3114	0	32444	
3115	0	32432	
3116	0	32440	
3117	0	32456	
3118	0	32444	
3119	0	32404	
3120	0	32352	
3121	0	32324	
3122	0	32312	
3123	0	32384	
3124	0	32488	
3125	0	32568	
3126	0	32628	
3127	0	32700	
3128	0	32808	
3129	0	32872	
3130	0	32988	
3131	0	33044	
3132	0	32989	
3133	0	32912	
3134	0	32812	
3135	0	32740	
3136	0	32664	
3137	0	32610	
3138	0	32608	
3139	0	32602	
3140	0	32600	
3141	0	32620	
3142	0	32656	
3143	0	32652	
3144	0	32620	
3145	0	32560	
3146	0	32540	
3147	0	32544	
3148	0	32588	
3149	0	32648	
3150	0	32776	
3151	0	32892	
3152	0	32986	
3153	0	33056	
3154	0	33128	
3155	0	33256	
3156	0	33360	
3157	0	33436	
3158	0	33548	
3159	0	33680	
3160	0	33792	
3161	0	33900	
3162	0	34056	
3163	0	34156	
3164	0	34230	
3165	0	34292	
3166	0	34328	
3167	0	34284	
3168	0	34176	
3169	0	34102	
3170	0	33964	
3171	0	33884	
3172	0	33818	
3173	0	33760	
3174	0	33692	
3175	0	33624	
3176	0	33544	
3177	0	33500	
3178	0	33476	
3179	0	33444	
3180	0	33416	
3181	0	33400	
3182	0	33328	
3183	0	33272	
3184	0	33272	
3185	0	33272	
3186	0	33264	
3187	0	33248	
3188	0	33232	
3189	0	33174	
3190	0	33128	
3191	0	33068	
3192	0	33020	
3193	0	32984	
3194	0	32968	
3195	0	32944	
3196	0	32920	
3197	0	32914	
3198	0	32876	
3199	0	32760	
3200	0	32712	
3201	0	32664	
3202	0	32672	
3203	0	32688	
3204	0	32648	
3205	0	32656	
3206	0	32682	
3207	0	32708	
3208	0	32752	
3209	0	32760	
3210	0	32668	
3211	0	32576	
3212	0	32492	
3213	0	32456	
3214	0	32416	
3215	0	32388	
3216	0	32304	
3217	0	32260	
3218	0	32260	
3219	0	32308	
3220	0	32392	
3221	0	32464	
3222	0	32472	
3223	0	32472	
3224	0	32456	
3225	0	32400	
3226	0	32352	
3227	0	32292	
3228	0	32208	
3229	0	32140	
3230	0	32082	
3231	0	32032	
3232	0	32024	
3233	0	32044	
3234	0	32088	
3235	0	32124	
3236	0	32200	
3237	0	32188	
3238	0	32208	
3239	0	32256	
3240	0	32284	
3241	0	32260	
3242	0	32228	
3243	0	32252	
3244	0	32276	
3245	0	32314	
3246	0	32340	
3247	0	32300	
3248	0	32208	
3249	0	32156	
3250	0	32182	
3251	0	32236	
3252	0	32260	
3253	0	32288	
3254	0	32288	
3255	0	32296	
3256	0	32338	
3257	0	32384	
3258	0	32448	
3259	0	32512	
3260	0	32560	
3261	0	32556	
3262	0	32544	
3263	0	32504	
3264	0	32440	
3265	0	32356	
3266	0	32276	
3267	0	32212	
3268	0	32224	
3269	0	32220	
3270	0	32216	
3271	0	32232	
3272	0	32240	
3273	0	32264	
3274	0	32284	
3275	0	32288	
3276	0	32320	
3277	0	32344	
3278	0	32352	
3279	0	32340	
3280	0	32330	
3281	0	32376	
3282	0	32408	
3283	0	32500	
3284	0	32572	
3285	0	32572	
3286	0	32536	
3287	0	32528	
3288	0	32524	
3289	0	32472	
3290	0	32424	
3291	0	32322	
3292	0	32176	
3293	0	32072	
3294	0	32084	
3295	0	32236	
3296	0	32520	
3297	0	32808	
3298	0	33140	
3299	0	33552	
3300	0	33908	
3301	0	34164	
3302	0	34320	
3303	0	34360	
3304	0	34520	
3305	0	34812	
3306	0	35328	
3307	0	36064	
3308	0	36984	
3309	0	38060	
3310	0	39268	
3311	0	40712	
3312	0	42328	
3313	0	44072	
3314	0	45792	
3315	0	47552	
3316	0	49408	
3317	0	51236	
3318	0	52852	
3319	0	54288	
3320	0	55524	
3321	0	56628	
3322	0	57780	
3323	0	59028	
3324	0	60128	
3325	0	60720	
3326	0	60436	
3327	0	58936	
3328	0	56232	
3329	0	52708	
3330	0	48656	
3331	0	44420	
3332	0	40420	
3333	0	36960	
3334	0	34256	
3335	0	32384	
3336	0	31104	
3337	0	30208	
3338	0	29580	
3339	0	29136	
3340	0	28866	
3341	0	28768	
3342	0	28856	
3343	0	29064	
3344	0	29248	
3345	0	29420	
3346	0	29554	
3347	0	29740	
3348	0	29916	
3349	0	30084	
3350	0	30232	
3351	0	30364	
3352	0	30484	
3353	0	30560	
3354	0	30648	
3355	0	30720	
3356	0	30824	
3357	0	30892	
3358	0	30936	
3359	0	30924	
3360	0	30920	
3361	0	30928	
3362	0	30970	
3363	0	30936	
3364	0	30840	
3365	0	30736	
3366	0	30672	
3367	0	30660	
3368	0	30680	
3369	0	30780	
3370	0	30836	
3371	0	30872	
3372	0	30856	
3373	0	30816	
3374	0	30772	
3375	0	30788	
3376	0	30852	
3377	0	30908	
3378	0	30856	
3379	0	30792	
3380	0	30784	
3381	0	30814	
3382	0	30848	
3383	0	30900	
3384	0	30972	
3385	0	31048	
3386	0	31088	
3387	0	31108	
3388	0	31128	
3389	0	31088	
3390	0	31088	
3391	0	31114	
3392	0	31142	
3393	0	31116	
3394	0	31108	
3395	0	31104	
3396	0	31104	
3397	0	31114	
3398	0	31108	
3399	0	31208	
3400	0	31336	
3401	0	31456	
3402	0	31588	
3403	0	31712	
3404	0	31780	
3405	0	31824	
3406	0	31832	
3407	0	31832	
3408	0	31816	
3409	0	31804	
3410	0	31768	
3411	0	31748	
3412	0	31728	
3413	0	31682	
3414	0	31656	
3415	0	31650	
3416	0	31608	
3417	0	31552	
3418	0	31492	
3419	0	31508	
3420	0	31544	
3421	0	31616	
3422	0	31696	
3423	0	31764	
3424	0	31792	
3425	0	31800	
3426	0	31796	
3427	0	31756	
3428	0	31768	
3429	0	31765	
3430	0	31768	
3431	0	31840	
3432	0	31988	
3433	0	32136	
3434	0	32200	
3435	0	32256	
3436	0	32314	
3437	0	32364	
3438	0	32376	
3439	0	32320	
3440	0	32328	
3441	0	32312	
3442	0	32268	
3443	0	32292	
3444	0	32364	
3445	0	32392	
3446	0	32424	
3447	0	32424	
3448	0	32404	
3449	0	32440	
3450	0	32504	
3451	0	32596	
3452	0	32648	
3453	0	32696	
3454	0	32756	
3455	0	32776	
3456	0	32812	
3457	0	32816	
3458	0	32812	
3459	0	32796	
3460	0	32740	
3461	0	32692	
3462	0	32668	
3463	0	32704	
3464	0	32760	
3465	0	32816	
3466	0	32850	
3467	0	32872	
3468	0	32908	
3469	0	32948	
3470	0	32956	
3471	0	32942	
3472	0	32968	
3473	0	33018	
3474	0	33068	
3475	0	33064	
3476	0	33038	
3477	0	33020	
3478	0	33048	
3479	0	33100	
3480	0	33160	
3481	0	33196	
3482	0	33280	
3483	0	33356	
3484	0	33440	
3485	0	33484	
3486	0	33520	
3487	0	33568	
3488	0	33572	
3489	0	33556	
3490	0	33546	
3491	0	33476	
3492	0	33408	
3493	0	33424	
3494	0	33436	
3495	0	33448	
3496	0	33464	
3497	0	33504	
3498	0	33532	
3499	0	33560	
3500	0	33580	
3501	0	33612	
3502	0	33632	
3503	0	33664	
3504	0	33708	
3505	0	33740	
3506	0	33824	
3507	0	33868	
3508	0	33876	
3509	0	33880	
3510	0	33908	
3511	0	33952	
3512	0	34048	
3513	0	34108	
3514	0	34108	
3515	0	34144	
3516	0	34232	
3517	0	34290	
3518	0	34316	
3519	0	34348	
3520	0	34396	
3521	0	34416	
3522	0	34420	
3523	0	34420	
3524	0	34444	
3525	0	34464	
3526	0	34480	
3527	0	34452	
3528	0	34440	
3529	0	34420	
3530	0	34468	
3531	0	34544	
3532	0	34648	
3533	0	34716	
3534	0	34746	
3535	0	34792	
3536	0	34836	
3537	0	34826	
3538	0	34820	
3539	0	34852	
3540	0	34924	
3541	0	35000	
3542	0	35036	
3543	0	35068	
3544	0	35164	
3545	0	35188	
3546	0	35132	
3547	0	35060	
3548	0	35040	
3549	0	35048	
3550	0	35098	
3551	0	35160	
3552	0	35228	
3553	0	35266	
3554	0	35288	
3555	0	35296	
3556	0	35312	
3557	0	35300	
3558	0	35312	
3559	0	35364	
3560	0	35406	
3561	0	35424	
3562	0	35460	
3563	0	35536	
3564	0	35578	
3565	0	35612	
3566	0	35640	
3567	0	35616	
3568	0	35616	
3569	0	35584	
3570	0	35568	
3571	0	35584	
3572	0	35656	
3573	0	35716	
3574	0	35764	
3575	0	35764	
3576	0	35812	
3577	0	35864	
3578	0	35892	
3579	0	35916	
3580	0	35900	
3581	0	35872	
3582	0	35816	
3583	0	35764	
3584	0	35688	
3585	0	35636	
3586	0	35508	
3587	0	35348	
3588	0	35264	
3589	0	35192	
3590	0	35124	
3591	0	35040	
3592	0	34974	
3593	0	34888	
3594	0	34794	
3595	0	34744	
3596	0	34696	
3597	0	34664	
3598	0	34568	
3599	0	34440	
3600	0	34296	
3601	0	34192	
3602	0	34132	
3603	0	34056	
3604	0	33920	
3605	0	33784	
3606	0	33672	
3607	0	33516	
3608	0	33376	
3609	0	33248	
3610	0	33076	
3611	0	32896	
3612	0	32792	
3613	0	32684	
3614	0	32524	
3615	0	32336	
3616	0	32148	
3617	0	32004	
3618	0	31872	
3619	0	31750	
3620	0	31628	
3621	0	31492	
3622	0	31368	
3623	0	31276	
3624	0	31200	
3625	0	31116	
3626	0	31024	
3627	0	30944	
3628	0	30888	
3629	0	30860	
3630	0	30828	
3631	0	30752	
3632	0	30672	
3633	0	30568	
3634	0	30434	
3635	0	30316	
3636	0	30234	
3637	0	30154	
3638	0	30076	
3639	0	30008	
3640	0	29986	
3641	0	30012	
3642	0	30040	
3643	0	30016	
3644	0	30008	
3645	0	29968	
3646	0	29932	
3647	0	29904	
3648	0	29900	
3649	0	29892	
3650	0	29868	
3651	0	29796	
3652	0	29756	
3653	0	29688	
3654	0	29632	
3655	0	29556	
3656	0	29492	
3657	0	29464	
3658	0	29480	
3659	0	29468	
3660	0	29440	
3661	0	29464	
3662	0	29504	
3663	0	29564	
3664	0	29594	
3665	0	29604	
3666	0	29620	
3667	0	29640	
3668	0	29696	
3669	0	29772	
3670	0	29796	
3671	0	29776	
3672	0	29784	
3673	0	29772	
3674	0	29792	
3675	0	29828	
3676	0	29864	
3677	0	29888	
3678	0	29928	
3679	0	29928	
3680	0	29968	
3681	0	29944	
3682	0	29876	
3683	0	29860	
3684	0	29890	
3685	0	29956	
3686	0	30052	
3687	0	30138	
3688	0	30232	
3689	0	30300	
3690	0	30328	
3691	0	30300	
3692	0	30286	
3693	0	30276	
3694	0	30252	
3695	0	30180	
3696	0	30120	
3697	0	30096	
3698	0	30112	
3699	0	30154	
3700	0	30224	
3701	0	30284	
3702	0	30340	
3703	0	30340	
3704	0	30368	
3705	0	30432	
3706	0	30520	
3707	0	30592	
3708	0	30680	
3709	0	30744	
3710	0	30752	
3711	0	30712	
3712	0	30660	
3713	0	30648	
3714	0	30668	
3715	0	30642	
3716	0	30612	
3717	0	30612	
3718	0	30652	
3719	0	30732	
3720	0	30786	
3721	0	30840	
3722	0	30892	
3723	0	30900	
3724	0	30896	
3725	0	30930	
3726	0	30952	
3727	0	31000	
3728	0	31040	
3729	0	31076	
3730	0	31138	
3731	0	31216	
3732	0	31232	
3733	0	31260	
3734	0	31324	
3735	0	31396	
3736	0	31488	
3737	0	31546	
3738	0	31544	
3739	0	31552	
3740	0	31552	
3741	0	31548	
3742	0	31500	
3743	0	31508	
3744	0	31488	
3745	0	31444	
3746	0	31428	
3747	0	31440	
3748	0	31456	
3749	0	31460	
3750	0	31456	
3751	0	31492	
3752	0	31520	
3753	0	31540	
3754	0	31572	
3755	0	31632	
3756	0	31712	
3757	0	31740	
3758	0	31704	
3759	0	31684	
3760	0	31680	
3761	0	31660	
3762	0	31640	
3763	0	31620	
3764	0	31620	
3765	0	31604	
3766	0	31600	
3767	0	31644	
3768	0	31712	
3769	0	31728	
3770	0	31724	
3771	0	31692	
3772	0	31622	
3773	0	31600	
3774	0	31592	
3775	0	31608	
3776	0	31600	
3777	0	31584	
3778	0	31612	
3779	0	31644	
3780	0	31644	
3781	0	31648	
3782	0	31648	
3783	0	31680	
3784	0	31728	
3785	0	31776	
3786	0	31760	
3787	0	31696	
3788	0	31636	
3789	0	31616	
3790	0	31616	
3791	0	31584	
3792	0	31552	
3793	0	31512	
3794	0	31492	
3795	0	31514	
3796	0	31516	
3797	0	31512	
3798	0	31520	
3799	0	31566	
3800	0	31608	
3801	0	31660	
3802	0	31730	
3803	0	31752	
3804	0	31740	
3805	0	31726	
3806	0	31744	
3807	0	31760	
3808	0	31776	
3809	0	31852	
3810	0	31876	
3811	0	31852	
3812	0	31812	
3813	0	31784	
3814	0	31800	
3815	0	31904	
3816	0	31956	
3817	0	31940	
3818	0	31924	
3819	0	31912	
3820	0	31924	
3821	0	31924	
3822	0	31868	
3823	0	31864	
3824	0	31872	
3825	0	31848	
3826	0	31768	
3827	0	31692	
3828	0	31720	
3829	0	31808	
3830	0	31900	
3831	0	31976	
3832	0	31980	
3833	0	31956	
3834	0	31944	
3835	0	31948	
3836	0	31948	
3837	0	31936	
3838	0	31860	
3839	0	31788	
3840	0	31776	
3841	0	31772	
3842	0	31784	
3843	0	31768	
3844	0	31736	
3845	0	31712	
3846	0	31680	
3847	0	31620	
3848	0	31516	
3849	0	31440	
3850	0	31440	
3851	0	31436	
3852	0	31464	
3853	0	31498	
3854	0	31544	
3855	0	31552	
3856	0	31584	
3857	0	31588	
3858	0	31640	
3859	0	31648	
3860	0	31624	
3861	0	31656	
3862	0	31722	
3863	0	31800	
3864	0	31820	
3865	0	31824	
3866	0	31828	
3867	0	31820	
3868	0	31864	
3869	0	31904	
3870	0	31924	
3871	0	31940	
3872	0	31994	
3873	0	32044	
3874	0	32032	
3875	0	32012	
3876	0	32040	
3877	0	32098	
3878	0	32136	
3879	0	32194	
3880	0	32256	
3881	0	32280	
3882	0	32252	
3883	0	32208	
3884	0	32180	
3885	0	32248	
3886	0	32272	
3887	0	32268	
3888	0	32296	
3889	0	32288	
3890	0	32260	
3891	0	32256	
3892	0	32264	
3893	0	32312	
3894	0	32384	
3895	0	32396	
3896	0	32388	
3897	0	32388	
3898	0	32352	
3899	0	32308	
3900	0	32340	
3901	0	32332	
3902	0	32312	
3903	0	32314	
3904	0	32336	
3905	0	32360	
3906	0	32416	
3907	0	32488	
3908	0	32524	
3909	0	32552	
3910	0	32536	
3911	0	32520	
3912	0	32546	
3913	0	32576	
3914	0	32592	
3915	0	32564	
3916	0	32602	
3917	0	32672	
3918	0	32720	
3919	0	32736	
3920	0	32704	
3921	0	32692	
3922	0	32680	
3923	0	32644	
3924	0	32560	
3925	0	32448	
3926	0	32320	
3927	0	32252	
3928	0	32264	
3929	0	32264	
3930	0	32244	
3931	0	32212	
3932	0	32192	
3933	0	32224	
3934	0	32332	
3935	0	32432	
3936	0	32460	
3937	0	32420	
3938	0	32404	
3939	0	32452	
3940	0	32476	
3941	0	32472	
3942	0	32404	
3943	0	32344	
3944	0	32304	
3945	0	32272	
3946	0	32248	
3947	0	32268	
3948	0	32280	
3949	0	32280	
3950	0	32304	
3951	0	32280	
3952	0	32240	
3953	0	32248	
3954	0	32300	
3955	0	32412	
3956	0	32576	
3957	0	32648	
3958	0	32732	
3959	0	32900	
3960	0	33024	
3961	0	33140	
3962	0	33252	
3963	0	33378	
3964	0	33460	
3965	0	33568	
3966	0	33656	
3967	0	33752	
3968	0	33864	
3969	0	33902	
3970	0	33952	
3971	0	34016	
3972	0	34052	
3973	0	34072	
3974	0	34120	
3975	0	34184	
3976	0	34132	
3977	0	34026	
3978	0	33948	
3979	0	33908	
3980	0	33860	
3981	0	33756	
3982	0	33680	
3983	0	33544	
3984	0	33416	
3985	0	33372	
3986	0	33352	
3987	0	33316	
3988	0	33244	
3989	0	33184	
3990	0	33192	
3991	0	33184	
3992	0	33196	
3993	0	33256	
3994	0	33304	
3995	0	33312	
3996	0	33296	
3997	0	33240	
3998	0	33184	
3999	0	33104	
4000	0	33056	
4001	0	33012	
4002	0	32892	
4003	0	32780	
4004	0	32696	
4005	0	32652	
4006	0	32670	
4007	0	32676	
4008	0	32656	
4009	0	32680	
4010	0	32732	
4011	0	32728	
4012	0	32716	
4013	0	32656	
4014	0	32580	
4015	0	32520	
4016	0	32440	
4017	0	32340	
4018	0	32272	
4019	0	32204	
4020	0	32176	
4021	0	32130	
4022	0	32092	
4023	0	32052	
4024	0	32032	
4025	0	32028	
4026	0	32096	
4027	0	32156	
4028	0	32200	
4029	0	32252	
4030	0	32298	
4031	0	32300	
4032	0	32264	
4033	0	32244	
4034	0	32236	
4035	0	32298	
4036	0	32360	
4037	0	32376	
4038	0	32404	
4039	0	32458	
4040	0	32456	
4041	0	32414	
4042	0	32406	
4043	0	32400	
4044	0	32384	
4045	0	32410	
4046	0	32408	
4047	0	32424	
4048	0	32416	
4049	0	32380	
4050	0	32344	
4051	0	32348	
4052	0	32344	
4053	0	32336	
4054	0	32320	
4055	0	32322	
4056	0	32244	
4057	0	32164	
4058	0	32158	
4059	0	32200	
4060	0	32260	
4061	0	32308	
4062	0	32356	
4063	0	32442	
4064	0	32508	
4065	0	32564	
4066	0	32546	
4067	0	32544	
4068	0	32524	
4069	0	32524	
4070	0	32536	
4071	0	32564	
4072	0	32556	
4073	0	32544	
4074	0	32528	
4075	0	32532	
4076	0	32596	
4077	0	32640	
4078	0	32660	
4079	0	32636	
4080	0	32612	
4081	0	32608	
4082	0	32584	
4083	0	32576	
4084	0	32584	
4085	0	32584	
4086	0	32604	
4087	0	32632	
4088	0	32672	
4089	0	32732	
4090	0	32780	
4091	0	32800	
4092	0	32768	
4093	0	32796	
4094	0	32780	
4095	0	32748	
4096	0	32656	
4097	0	32512	
4098	0	32312	
4099	0	32180	
4100	0	32160	
4101	0	32288	
4102	0	32564	
4103	0	32810	
4104	0	33150	
4105	0	33592	
4106	0	34032	
4107	0	34424	
4108	0	34680	
4109	0	34796	
4110	0	34940	
4111	0	35276	
4112	0	35844	
4113	0	36544	
4114	0	37344	
4115	0	38322	
4116	0	39444	
4117	0	40760	
4118	0	42228	
4119	0	43776	
4120	0	45352	
4121	0	47032	
4122	0	48808	
4123	0	50504	
4124	0	52000	
4125	0	53252	
4126	0	54396	
4127	0	55440	
4128	0	56632	
4129	0	57852	
4130	0	58808	
4131	0	59258	
4132	0	58816	
4133	0	57064	
4134	0	54232	
4135	0	50772	
4136	0	46900	
4137	0	42866	
4138	0	39184	
4139	0	36088	
4140	0	33808	
4141	0	32320	
4142	0	31366	
4143	0	30804	
4144	0	30464	
4145	0	30244	
4146	0	30156	
4147	0	30120	
4148	0	30144	
4149	0	30100	
4150	0	30068	
4151	0	30060	
4152	0	30064	
4153	0	30068	
4154	0	30144	
4155	0	30216	
4156	0	30324	
4157	0	30484	
4158	0	30682	
4159	0	30856	
4160	0	30952	
4161	0	31060	
4162	0	31150	
4163	0	31208	
4164	0	31256	
4165	0	31296	
4166	0	31272	
4167	0	31240	
4168	0	31228	
4169	0	31264	
4170	0	31292	
4171	0	31228	
4172	0	31128	
4173	0	31088	
4174	0	31072	
4175	0	31076	
4176	0	31072	
4177	0	31016	
4178	0	30992	
4179	0	30968	
4180	0	30932	
4181	0	30920	
4182	0	30924	
4183	0	30956	
4184	0	30968	
4185	0	30968	
4186	0	31004	
4187	0	31052	
4188	0	31118	
4189	0	31204	
4190	0	31300	
4191	0	31368	
4192	0	31432	
4193	0	31472	
4194	0	31532	
4195	0	31572	
4196	0	31572	
4197	0	31584	
4198	0	31584	
4199	0	31504	
4200	0	31416	
4201	0	31316	
4202	0	31290	
4203	0	31232	
4204	0	31172	
4205	0	31152	
4206	0	31160	
4207	0	31206	
4208	0	31256	
4209	0	31324	
4210	0	31384	
4211	0	31440	
4212	0	31480	
4213	0	31540	
4214	0	31584	
4215	0	31604	
4216	0	31636	
4217	0	31624	
4218	0	31584	
4219	0	31632	
4220	0	31740	
4221	0	31796	
4222	0	31844	
4223	0	31944	
4224	0	32048	
4225	0	32160	
4226	0	32204	
4227	0	32174	
4228	0	32168	
4229	0	32144	
4230	0	32064	
4231	0	32028	
4232	0	31960	
4233	0	31896	
4234	0	31952	
4235	0	32060	
4236	0	32112	
4237	0	32144	
4238	0	32208	
4239	0	32328	
4240	0	32424	
4241	0	32504	
4242	0	32532	
4243	0	32576	
4244	0	32600	
4245	0	32586	
4246	0	32576	
4247	0	32576	
4248	0	32580	
4249	0	32608	
4250	0	32648	
4251	0	32672	
4252	0	32704	
4253	0	32740	
4254	0	32744	
4255	0	32748	
4256	0	32772	
4257	0	32792	
4258	0	32768	
4259	0	32768	
4260	0	32752	
4261	0	32724	
4262	0	32728	
4263	0	32744	
4264	0	32760	
4265	0	32788	
4266	0	32844	
4267	0	32904	
4268	0	32940	
4269	0	32924	
4270	0	32960	
4271	0	33020	
4272	0	33034	
4273	0	33028	
4274	0	33052	
4275	0	33100	
4276	0	33134	
4277	0	33216	
4278	0	33312	
4279	0	33392	
4280	0	33392	
4281	0	33376	
4282	0	33340	
4283	0	33304	
4284	0	33312	
4285	0	33332	
4286	0	33312	
4287	0	33280	
4288	0	33272	
4289	0	33284	
4290	0	33320	
4291	0	33368	
4292	0	33424	
4293	0	33424	
4294	0	33400	
4295	0	33456	
4296	0	33440	
4297	0	33464	
4298	0	33532	
4299	0	33572	
4300	0	33568	
4301	0	33564	
4302	0	33560	
4303	0	33616	
4304	0	33648	
4305	0	33674	
4306	0	33760	
4307	0	33816	
4308	0	33834	
4309	0	33832	
4310	0	33868	
4311	0	33864	
4312	0	33864	
4313	0	33904	
4314	0	33976	
4315	0	34004	
4316	0	34004	
4317	0	34016	
4318	0	34050	
4319	0	34088	
4320	0	34092	
4321	0	34096	
4322	0	34144	
4323	0	34232	
4324	0	34320	
4325	0	34376	
4326	0	34436	
4327	0	34524	
4328	0	34580	
4329	0	34600	
4330	0	34612	
4331	0	34686	
4332	0	34756	
4333	0	34820	
4334	0	34876	
4335	0	34900	
4336	0	34912	
4337	0	34896	
4338	0	34922	
4339	0	34976	
4340	0	35028	
4341	0	35048	
4342	0	35076	
4343	0	35104	
4344	0	35086	
4345	0	35044	
4346	0	35028	
4347	0	34972	
4348	0	34896	
4349	0	34880	
4350	0	34874	
4351	0	34896	
4352	0	34952	
4353	0	35020	
4354	0	35098	
4355	0	35128	
4356	0	35108	
4357	0	35120	
4358	0	35196	
4359	0	35272	
4360	0	35296	
4361	0	35364	
4362	0	35404	
4363	0	35444	
4364	0	35504	
4365	0	35548	
4366	0	35528	
4367	0	35520	
4368	0	35524	
4369	0	35552	
4370	0	35652	
4371	0	35764	
4372	0	35816	
4373	0	35832	
4374	0	35832	
4375	0	35816	
4376	0	35804	
4377	0	35816	
4378	0	35856	
4379	0	35840	
4380	0	35808	
4381	0	35776	
4382	0	35752	
4383	0	35720	
4384	0	35724	
4385	0	35708	
4386	0	35648	
4387	0	35660	
4388	0	35746	
4389	0	35800	
4390	0	35808	
4391	0	35776	
4392	0	35720	
4393	0	35676	
4394	0	35600	
4395	0	35500	
4396	0	35412	
4397	0	35336	
4398	0	35240	
4399	0	35130	
4400	0	35020	
4401	0	34928	
4402	0	34836	
4403	0	34728	
4404	0	34592	
4405	0	34432	
4406	0	34264	
4407	0	34104	
4408	0	33976	
4409	0	33876	
4410	0	33776	
4411	0	33660	
4412	0	33520	
4413	0	33396	
4414	0	33224	
4415	0	33040	
4416	0	32876	
4417	0	32728	
4418	0	32576	
4419	0	32492	
4420	0	32374	
4421	0	32236	
4422	0	32068	
4423	0	31916	
4424	0	31816	
4425	0	31704	
4426	0	31548	
4427	0	31404	
4428	0	31284	
4429	0	31156	
4430	0	31068	
4431	0	31020	
4432	0	30942	
4433	0	30830	
4434	0	30752	
4435	0	30668	
4436	0	30592	
4437	0	30554	
4438	0	30528	
4439	0	30412	
4440	0	30252	
4441	0	30132	
4442	0	30060	
4443	0	30000	
4444	0	29968	
4445	0	29908	
4446	0	29904	
4447	0	29848	
4448	0	29814	
4449	0	29760	
4450	0	29736	
4451	0	29732	
4452	0	29748	
4453	0	29752	
4454	0	29724	
4455	0	29732	
4456	0	29764	
4457	0	29786	
4458	0	29744	
4459	0	29712	
4460	0	29688	
4461	0	29692	
4462	0	29728	
4463	0	29740	
4464	0	29740	
4465	0	29732	
4466	0	29744	
4467	0	29730	
4468	0	29680	
4469	0	29604	
4470	0	29556	
4471	0	29596	
4472	0	29680	
4473	0	29744	
4474	0	29780	
4475	0	29860	
4476	0	29992	
4477	0	30060	
4478	0	30064	
4479	0	30024	
4480	0	29984	
4481	0	29900	
4482	0	29822	
4483	0	29802	
4484	0	29836	
4485	0	29882	
4486	0	29906	
4487	0	29944	
4488	0	29988	
4489	0	30032	
4490	0	30064	
4491	0	30024	
4492	0	29972	
4493	0	30000	
4494	0	30028	
4495	0	30016	
4496	0	30016	
4497	0	29988	
4498	0	29984	
4499	0	30028	
4500	0	30112	
4501	0	30192	
4502	0	30240	
4503	0	30240	
4504	0	30256	
4505	0	30240	
4506	0	30280	
4507	0	30322	
4508	0	30400	
4509	0	30484	
4510	0	30528	
4511	0	30554	
4512	0	30592	
4513	0	30608	
4514	0	30580	
4515	0	30544	
4516	0	30492	
4517	0	30476	
4518	0	30488	
4519	0	30500	
4520	0	30520	
4521	0	30580	
4522	0	30680	
4523	0	30708	
4524	0	30724	
4525	0	30776	
4526	0	30824	
4527	0	30864	
4528	0	30852	
4529	0	30860	
4530	0	30900	
4531	0	30916	
4532	0	30960	
4533	0	31008	
4534	0	31034	
4535	0	31056	
4536	0	31092	
4537	0	31080	
4538	0	31028	
4539	0	30964	
4540	0	30894	
4541	0	30864	
4542	0	30816	
4543	0	30804	
4544	0	30796	
4545	0	30842	
4546	0	30866	
4547	0	30912	
4548	0	30952	
4549	0	30996	
4550	0	30996	
4551	0	31014	
4552	0	31044	
4553	0	31060	
4554	0	31036	
4555	0	31008	
4556	0	30976	
4557	0	30952	
4558	0	30980	
4559	0	30976	
4560	0	30920	
4561	0	30888	
4562	0	30912	
4563	0	30972	
4564	0	31044	
4565	0	31076	
4566	0	31088	
4567	0	31140	
4568	0	31200	
4569	0	31208	
4570	0	31168	
4571	0	31144	
4572	0	31192	
4573	0	31230	
4574	0	31248	
4575	0	31266	
4576	0	31284	
4577	0	31296	
4578	0	31328	
4579	0	31364	
4580	0	31424	
4581	0	31444	
4582	0	31454	
4583	0	31488	
4584	0	31540	
4585	0	31556	
4586	0	31524	
4587	0	31524	
4588	0	31556	
4589	0	31588	
4590	0	31628	
4591	0	31656	
4592	0	31648	
4593	0	31612	
4594	0	31616	
4595	0	31644	
4596	0	31684	
4597	0	31688	
4598	0	31720	
4599	0	31732	
4600	0	31740	
4601	0	31768	
4602	0	31768	
4603	0	31752	
4604	0	31728	
4605	0	31748	
4606	0	31764	
4607	0	31740	
4608	0	31716	
4609	0	31732	
4610	0	31756	
4611	0	31744	
4612	0	31708	
4613	0	31704	
4614	0	31708	
4615	0	31720	
4616	0	31740	
4617	0	31778	
4618	0	31804	
4619	0	31800	
4620	0	31824	
4621	0	31816	
4622	0	31832	
4623	0	31818	
4624	0	31828	
4625	0	31832	
4626	0	31828	
4627	0	31836	
4628	0	31848	
4629	0	31864	
4630	0	31880	
4631	0	31908	
4632	0	31952	
4633	0	31968	
4634	0	31972	
4635	0	31956	
4636	0	31984	
4637	0	32024	
4638	0	32052	
4639	0	32060	
4640	0	32072	
4641	0	32112	
4642	0	32188	
4643	0	32192	
4644	0	32184	
4645	0	32144	
4646	0	32084	
4647	0	32004	
4648	0	31952	
4649	0	31912	
4650	0	31856	
4651	0	31828	
4652	0	31852	
4653	0	31856	
4654	0	31800	
4655	0	31728	
4656	0	31672	
4657	0	31636	
4658	0	31600	
4659	0	31620	
4660	0	31688	
4661	0	31752	
4662	0	31822	
4663	0	31930	
4664	0	31968	
4665	0	32032	
4666	0	32088	
4667	0	32108	
4668	0	32150	
4669	0	32157	
4670	0	32180	
4671	0	32192	
4672	0	32216	
4673	0	32292	
4674	0	32308	
4675	0	32264	
4676	0	32212	
4677	0	32192	
4678	0	32232	
4679	0	32214	
4680	0	32164	
4681	0	32154	
4682	0	32168	
4683	0	32200	
4684	0	32268	
4685	0	32332	
4686	0	32360	
4687	0	32380	
4688	0	32416	
4689	0	32428	
4690	0	32428	
4691	0	32460	
4692	0	32504	
4693	0	32524	
4694	0	32512	
4695	0	32540	
4696	0	32552	
4697	0	32576	
4698	0	32576	
4699	0	32572	
4700	0	32572	
4701	0	32576	
4702	0	32588	
4703	0	32584	
4704	0	32544	
4705	0	32520	
4706	0	32556	
4707	0	32580	
4708	0	32608	
4709	0	32644	
4710	0	32728	
4711	0	32828	
4712	0	32916	
4713	0	33000	
4714	0	33048	
4715	0	33128	
4716	0	33264	
4717	0	33440	
4718	0	33584	
4719	0	33700	
4720	0	33824	
4721	0	33906	
4722	0	33972	
4723	0	34092	
4724	0	34204	
4725	0	34212	
4726	0	34216	
4727	0	34240	
4728	0	34288	
4729	0	34312	
4730	0	34284	
4731	0	34208	
4732	0	34052	
4733	0	33920	
4734	0	33876	
4735	0	33824	
4736	0	33740	
4737	0	33658	
4738	0	33568	
4739	0	33428	
4740	0	33356	
4741	0	33328	
4742	0	33268	
4743	0	33120	
4744	0	32996	
4745	0	32968	
4746	0	32986	
4747	0	33050	
4748	0	33068	
4749	0	33060	
4750	0	33052	
4751	0	33048	
4752	0	33008	
4753	0	32964	
4754	0	32928	
4755	0	32922	
4756	0	32920	
4757	0	32928	
4758	0	32976	
4759	0	33004	
4760	0	32960	
4761	0	32866	
4762	0	32784	
4763	0	32720	
4764	0	32712	
4765	0	32674	
4766	0	32580	
4767	0	32468	
4768	0	32344	
4769	0	32288	
4770	0	32236	
4771	0	32172	
4772	0	32124	
4773	0	32072	
4774	0	32018	
4775	0	32008	
4776	0	31956	
4777	0	31960	
4778	0	31944	
4779	0	31924	
4780	0	31952	
4781	0	31984	
4782	0	32004	
4783	0	31980	
4784	0	31972	
4785	0	31980	
4786	0	31992	
4787	0	32036	
4788	0	32048	
4789	0	32044	
4790	0	32040	
4791	0	32044	
4792	0	32056	
4793	0	32020	
4794	0	32024	
4795	0	31992	
4796	0	31936	
4797	0	31900	
4798	0	31876	
4799	0	31848	
4800	0	31816	
4801	0	31764	
4802	0	31740	
4803	0	31784	
4804	0	31836	
4805	0	31834	
4806	0	31868	
4807	0	31944	
4808	0	32004	
4809	0	32040	
4810	0	32064	
4811	0	32128	
4812	0	32164	
4813	0	32156	
4814	0	32184	
4815	0	32224	
4816	0	32248	
4817	0	32232	
4818	0	32222	
4819	0	32228	
4820	0	32232	
4821	0	32244	
4822	0	32248	
4823	0	32208	
4824	0	32192	
4825	0	32250	
4826	0	32288	
4827	0	32312	
4828	0	32340	
4829	0	32356	
4830	0	32288	
4831	0	32236	
4832	0	32220	
4833	0	32272	
4834	0	32328	
4835	0	32380	
4836	0	32404	
4837	0	32400	
4838	0	32400	
4839	0	32392	
4840	0	32408	
4841	0	32488	
4842	0	32598	
4843	0	32708	
4844	0	32816	
4845	0	32888	
4846	0	32932	
4847	0	32940	
4848	0	32916	
4849	0	32914	
4850	0	32876	
4851	0	32728	
4852	0	32528	
4853	0	32304	
4854	0	32096	
4855	0	31976	
4856	0	32016	
4857	0	32180	
4858	0	32416	
4859	0	32736	
4860	0	33096	
4861	0	33468	
4862	0	33808	
4863	0	34100	
4864	0	34276	
4865	0	34448	
4866	0	34724	
4867	0	35180	
4868	0	35812	
4869	0	36532	
4870	0	37408	
4871	0	38418	
4872	0	39636	
4873	0	41032	
4874	0	42544	
4875	0	44084	
4876	0	45648	
4877	0	47290	
4878	0	48932	
4879	0	50464	
4880	0	51772	
4881	0	52964	
4882	0	54040	
4883	0	55152	
4884	0	56348	
4885	0	57428	
4886	0	58132	
4887	0	58236	
4888	0	57148	
4889	0	54780	
4890	0	51560	
4891	0	47884	
4892	0	43988	
4893	0	40188	
4894	0	36816	
4895	0	34156	
4896	0	32320	
4897	0	31172	
4898	0	30528	
4899	0	30200	
4900	0	30068	
4901	0	30036	
4902	0	30088	
4903	0	30240	
4904	0	30400	
4905	0	30496	
4906	0	30576	
4907	0	30608	
4908	0	30616	
4909	0	30588	
4910	0	30560	
4911	0	30578	
4912	0	30704	
4913	0	30840	
4914	0	30964	
4915	0	31036	
4916	0	31072	
4917	0	31132	
4918	0	31192	
4919	0	31236	
4920	0	31260	
4921	0	31212	
4922	0	31196	
4923	0	31172	
4924	0	31152	
4925	0	31136	
4926	0	31088	
4927	0	31044	
4928	0	31008	
4929	0	30996	
4930	0	31046	
4931	0	31068	
4932	0	31112	
4933	0	31152	
4934	0	31136	
4935	0	31132	
4936	0	31116	
4937	0	31144	
4938	0	31168	
4939	0	31212	
4940	0	31216	
4941	0	31208	
4942	0	31194	
4943	0	31196	
4944	0	31232	
4945	0	31306	
4946	0	31352	
4947	0	31384	
4948	0	31404	
4949	0	31408	
4950	0	31392	
4951	0	31434	
4952	0	31464	
4953	0	31488	
4954	0	31472	
4955	0	31448	
4956	0	31480	
4957	0	31516	
4958	0	31576	
4959	0	31644	
4960	0	31680	
4961	0	31724	
4962	0	31816	
4963	0	31888	
4964	0	31900	
4965	0	31916	
4966	0	31984	
4967	0	32060	
4968	0	32100	
4969	0	32104	
4970	0	32100	
4971	0	32054	
4972	0	31992	
4973	0	32000	
4974	0	32004	
4975	0	32004	
4976	0	31970	
4977	0	32008	
4978	0	32104	
4979	0	32120	
4980	0	32056	
4981	0	31976	
4982	0	31988	
4983	0	32028	
4984	0	32096	
4985	0	32128	
4986	0	32172	
4987	0	32240	
4988	0	32328	
4989	0	32424	
4990	0	32464	
4991	0	32536	
4992	0	32588	
4993	0	32652	
4994	0	32688	
4995	0	32696	
4996	0	32740	
4997	0	32804	
4998	0	32808	
4999	0	32772	
5000	0	32744	
5001	0	32746	
5002	0	32768	
5003	0	32780	
5004	0	32780	
5005	0	32744	
5006	0	32728	
5007	0	32750	
5008	0	32804	
5009	0	32856	
5010	0	32932	
5011	0	33000	
5012	0	33040	
5013	0	33060	
5014	0	33032	
5015	0	33056	
5016	0	33068	
5017	0	33040	
5018	0	33004	
5019	0	33018	
5020	0	33068	
5021	0	33148	
5022	0	33200	
5023	0	33256	
5024	0	33240	
5025	0	33242	
5026	0	33256	
5027	0	33276	
5028	0	33268	
5029	0	33324	
5030	0	33384	
5031	0	33420	
5032	0	33428	
5033	0	33372	
5034	0	33336	
5035	0	33332	
5036	0	33364	
5037	0	33382	
5038	0	33352	
5039	0	33348	
5040	0	33332	
5041	0	33336	
5042	0	33420	
5043	0	33484	
5044	0	33580	
5045	0	33668	
5046	0	33704	
5047	0	33728	
5048	0	33736	
5049	0	33744	
5050	0	33802	
5051	0	33848	
5052	0	33872	
5053	0	33828	
5054	0	33768	
5055	0	33744	
5056	0	33712	
5057	0	33692	
5058	0	33754	
5059	0	33856	
5060	0	33920	
5061	0	33944	
5062	0	33952	
5063	0	33960	
5064	0	33978	
5065	0	34000	
5066	0	34024	
5067	0	34044	
5068	0	34064	
5069	0	34096	
5070	0	34140	
5071	0	34230	
5072	0	34312	
5073	0	34318	
5074	0	34336	
5075	0	34344	
5076	0	34360	
5077	0	34364	
5078	0	34356	
5079	0	34394	
5080	0	34416	
5081	0	34428	
5082	0	34432	
5083	0	34464	
5084	0	34478	
5085	0	34488	
5086	0	34472	
5087	0	34436	
5088	0	34496	
5089	0	34520	
5090	0	34624	
5091	0	34780	
5092	0	34896	
5093	0	34924	
5094	0	34964	
5095	0	35012	
5096	0	35052	
5097	0	35080	
5098	0	35112	
5099	0	35108	
5100	0	35064	
5101	0	35060	
5102	0	35124	
5103	0	35220	
5104	0	35276	
5105	0	35284	
5106	0	35312	
5107	0	35380	
5108	0	35424	
5109	0	35445	
5110	0	35392	
5111	0	35304	
5112	0	35204	
5113	0	35096	
5114	0	35032	
5115	0	35080	
5116	0	35124	
5117	0	35164	
5118	0	35228	
5119	0	35292	
5120	0	35340	
5121	0	35416	
5122	0	35488	
5123	0	35540	
5124	0	35544	
5125	0	35556	
5126	0	35584	
5127	0	35616	
5128	0	35664	
5129	0	35684	
5130	0	35716	
5131	0	35724	
5132	0	35704	
5133	0	35696	
5134	0	35656	
5135	0	35668	
5136	0	35688	
5137	0	35696	
5138	0	35716	
5139	0	35768	
5140	0	35764	
5141	0	35774	
5142	0	35848	
5143	0	35872	
5144	0	35856	
5145	0	35812	
5146	0	35744	
5147	0	35656	
5148	0	35592	
5149	0	35528	
5150	0	35472	
5151	0	35384	
5152	0	35308	
5153	0	35228	
5154	0	35130	
5155	0	35024	
5156	0	34880	
5157	0	34720	
5158	0	34548	
5159	0	34404	
5160	0	34276	
5161	0	34156	
5162	0	33996	
5163	0	33820	
5164	0	33696	
5165	0	33568	
5166	0	33460	
5167	0	33380	
5168	0	33262	
5169	0	33144	
5170	0	32992	
5171	0	32816	
5172	0	32652	
5173	0	32560	
5174	0	32448	
5175	0	32344	
5176	0	32196	
5177	0	32032	
5178	0	31876	
5179	0	31736	
5180	0	31596	
5181	0	31472	
5182	0	31316	
5183	0	31140	
5184	0	31040	
5185	0	30960	
5186	0	30864	
5187	0	30768	
5188	0	30676	
5189	0	30620	
5190	0	30548	
5191	0	30488	
5192	0	30396	
5193	0	30316	
5194	0	30240	
5195	0	30140	
5196	0	30034	
5197	0	30008	
5198	0	30002	
5199	0	29948	
5200	0	29940	
5201	0	29932	
5202	0	29896	
5203	0	29836	
5204	0	29834	
5205	0	29824	
5206	0	29826	
5207	0	29760	
5208	0	29696	
5209	0	29652	
5210	0	29668	
5211	0	29716	
5212	0	29792	
5213	0	29856	
5214	0	29922	
5215	0	29964	
5216	0	29992	
5217	0	30048	
5218	0	30064	
5219	0	30084	
5220	0	30068	
5221	0	30040	
5222	0	30024	
5223	0	29952	
5224	0	29844	
5225	0	29760	
5226	0	29732	
5227	0	29688	
5228	0	29624	
5229	0	29576	
5230	0	29556	
5231	0	29540	
5232	0	29540	
5233	0	29600	
5234	0	29724	
5235	0	29832	
5236	0	29892	
5237	0	29948	
5238	0	29992	
5239	0	30016	
5240	0	30008	
5241	0	29968	
5242	0	29952	
5243	0	29976	
5244	0	30012	
5245	0	30018	
5246	0	29976	
5247	0	29940	
5248	0	29936	
5249	0	29976	
5250	0	29994	
5251	0	29960	
5252	0	29920	
5253	0	29978	
5254	0	30028	
5255	0	30104	
5256	0	30224	
5257	0	30300	
5258	0	30376	
5259	0	30424	
5260	0	30428	
5261	0	30452	
5262	0	30472	
5263	0	30474	
5264	0	30500	
5265	0	30532	
5266	0	30544	
5267	0	30508	
5268	0	30472	
5269	0	30520	
5270	0	30608	
5271	0	30684	
5272	0	30724	
5273	0	30760	
5274	0	30786	
5275	0	30804	
5276	0	30788	
5277	0	30800	
5278	0	30804	
5279	0	30804	
5280	0	30766	
5281	0	30748	
5282	0	30756	
5283	0	30756	
5284	0	30764	
5285	0	30801	
5286	0	30812	
5287	0	30800	
5288	0	30816	
5289	0	30846	
5290	0	30872	
5291	0	30896	
5292	0	30940	
5293	0	31004	
5294	0	31068	
5295	0	31116	
5296	0	31141	
5297	0	31124	
5298	0	31088	
5299	0	31084	
5300	0	31124	
5301	0	31168	
5302	0	31208	
5303	0	31252	
5304	0	31296	
5305	0	31302	
5306	0	31256	
5307	0	31216	
5308	0	31204	
5309	0	31236	
5310	0	31208	
5311	0	31120	
5312	0	31036	
5313	0	31036	
5314	0	31120	
5315	0	31184	
5316	0	31200	
5317	0	31264	
5318	0	31350	
5319	0	31424	
5320	0	31480	
5321	0	31520	
5322	0	31552	
5323	0	31552	
5324	0	31496	
5325	0	31408	
5326	0	31324	
5327	0	31224	
5328	0	31124	
5329	0	31056	
5330	0	30976	
5331	0	30932	
5332	0	30848	
5333	0	30800	
5334	0	30756	
5335	0	30692	
5336	0	30600	
5337	0	30634	
5338	0	30796	
5339	0	30952	
5340	0	31036	
5341	0	31040	
5342	0	31024	
5343	0	31040	
5344	0	31104	
5345	0	31208	
5346	0	31304	
5347	0	31400	
5348	0	31444	
5349	0	31424	
5350	0	31364	
5351	0	31320	
5352	0	31274	
5353	0	31256	
5354	0	31274	
5355	0	31296	
5356	0	31320	
5357	0	31388	
5358	0	31476	
5359	0	31508	
5360	0	31520	
5361	0	31500	
5362	0	31424	
5363	0	31424	
5364	0	31444	
5365	0	31540	
5366	0	31736	
5367	0	31856	
5368	0	31888	
5369	0	31884	
5370	0	31860	
5371	0	31824	
5372	0	31752	
5373	0	31680	
5374	0	31636	
5375	0	31628	
5376	0	31636	
5377	0	31632	
5378	0	31640	
5379	0	31620	
5380	0	31584	
5381	0	31616	
5382	0	31652	
5383	0	31688	
5384	0	31728	
5385	0	31656	
5386	0	31460	
5387	0	31324	
5388	0	31248	
5389	0	31104	
5390	0	31084	
5391	0	31124	
5392	0	31256	
5393	0	31386	
5394	0	31540	
5395	0	31544	
5396	0	31452	
5397	0	31272	
5398	0	31176	
5399	0	31232	
5400	0	31416	
5401	0	31612	
5402	0	31672	
5403	0	31756	
5404	0	31728	
5405	0	31536	
5406	0	31356	
5407	0	31296	
5408	0	31448	
5409	0	31588	
5410	0	31652	
5411	0	31668	
5412	0	31630	
5413	0	31652	
5414	0	31884	
5415	0	32132	
5416	0	32320	
5417	0	32496	
5418	0	32616	
5419	0	32728	
5420	0	32776	
5421	0	32784	
5422	0	32712	
5423	0	32616	
5424	0	32500	
5425	0	32364	
5426	0	32336	
5427	0	32332	
5428	0	32312	
5429	0	32300	
5430	0	32256	
5431	0	32248	
5432	0	32248	
5433	0	32280	
5434	0	32352	
5435	0	32400	
5436	0	32440	
5437	0	32426	
5438	0	32388	
5439	0	32348	
5440	0	32296	
5441	0	32248	
5442	0	32156	
5443	0	32108	
5444	0	32040	
5445	0	31996	
5446	0	31992	
5447	0	31978	
5448	0	31994	
5449	0	32016	
5450	0	32028	
5451	0	32044	
5452	0	32036	
5453	0	32064	
5454	0	32072	
5455	0	32172	
5456	0	32226	
5457	0	32252	
5458	0	32256	
5459	0	32288	
5460	0	32348	
5461	0	32424	
5462	0	32452	
5463	0	32346	
5464	0	32204	
5465	0	32170	
5466	0	32200	
5467	0	32220	
5468	0	32188	
5469	0	32098	
5470	0	32060	
5471	0	32044	
5472	0	32064	
5473	0	32080	
5474	0	32012	
5475	0	31946	
5476	0	31960	
5477	0	32060	
5478	0	32140	
5479	0	32184	
5480	0	32160	
5481	0	32184	
5482	0	32248	
5483	0	32288	
5484	0	32296	
5485	0	32320	
5486	0	32440	
5487	0	32568	
5488	0	32656	
5489	0	32756	
5490	0	32856	
5491	0	32858	
5492	0	32834	
5493	0	32772	
5494	0	32632	
5495	0	32524	
5496	0	32448	
5497	0	32456	
5498	0	32392	
5499	0	32336	
5500	0	32336	
5501	0	32312	
5502	0	32368	
5503	0	32484	
5504	0	32572	
5505	0	32620	
5506	0	32580	
5507	0	32536	
5508	0	32574	
5509	0	32624	
5510	0	32704	
5511	0	32854	
5512	0	32992	
5513	0	33072	
5514	0	33108	
5515	0	33192	
5516	0	33288	
5517	0	33368	
5518	0	33472	
5519	0	33632	
5520	0	33772	
5521	0	33856	
5522	0	33848	
5523	0	33880	
5524	0	33924	
5525	0	34000	
5526	0	33972	
5527	0	33848	
5528	0	33740	
5529	0	33640	
5530	0	33560	
5531	0	33464	
5532	0	33352	
5533	0	33264	
5534	0	33176	
5535	0	33112	
5536	0	33064	
5537	0	32940	
5538	0	32828	
5539	0	32832	
5540	0	32800	
5541	0	32792	
5542	0	32756	
5543	0	32700	
5544	0	32736	
5545	0	32808	
5546	0	32840	
5547	0	32844	
5548	0	32832	
5549	0	32820	
5550	0	32896	
5551	0	32990	
5552	0	33032	
5553	0	33120	
5554	0	33204	
5555	0	33232	
5556	0	33248	
5557	0	33232	
5558	0	33196	
5559	0	33112	
5560	0	33034	
5561	0	32998	
5562	0	33000	
5563	0	32992	
5564	0	33012	
5565	0	32972	
5566	0	32948	
5567	0	32928	
5568	0	32940	
5569	0	32940	
5570	0	32900	
5571	0	32792	
5572	0	32718	
5573	0	32640	
5574	0	32608	
5575	0	32516	
5576	0	32416	
5577	0	32314	
5578	0	32228	
5579	0	32254	
5580	0	32284	
5581	0	32272	
5582	0	32256	
5583	0	32244	
5584	0	32236	
5585	0	32232	
5586	0	32256	
5587	0	32280	
5588	0	32268	
5589	0	32376	
5590	0	32476	
5591	0	32552	
5592	0	32620	
5593	0	32616	
5594	0	32600	
5595	0	32528	
5596	0	32438	
5597	0	32380	
5598	0	32352	
5599	0	32296	
5600	0	32192	
5601	0	32098	
5602	0	32052	
5603	0	32088	
5604	0	32164	
5605	0	32208	
5606	0	32232	
5607	0	32264	
5608	0	32296	
5609	0	32328	
5610	0	32378	
5611	0	32428	
5612	0	32472	
5613	0	32528	
5614	0	32576	
5615	0	32584	
5616	0	32592	
5617	0	32576	
5618	0	32576	
5619	0	32596	
5620	0	32588	
5621	0	32554	
5622	0	32528	
5623	0	32540	
5624	0	32588	
5625	0	32712	
5626	0	32868	
5627	0	32908	
5628	0	32892	
5629	0	32852	
5630	0	32826	
5631	0	32800	
5632	0	32820	
5633	0	32808	
5634	0	32696	
5635	0	32604	
5636	0	32524	
5637	0	32492	
5638	0	32492	
5639	0	32532	
5640	0	32580	
5641	0	32600	
5642	0	32676	
5643	0	32836	
5644	0	33010	
5645	0	33176	
5646	0	33316	
5647	0	33368	
5648	0	33352	
5649	0	33216	
5650	0	33104	
5651	0	32968	
5652	0	32810	
5653	0	32588	
5654	0	32368	
5655	0	32264	
5656	0	32344	
5657	0	32524	
5658	0	32768	
5659	0	33116	
5660	0	33484	
5661	0	33876	
5662	0	34324	
5663	0	34712	
5664	0	35008	
5665	0	35276	
5666	0	35656	
5667	0	36236	
5668	0	36960	
5669	0	37836	
5670	0	38828	
5671	0	39996	
5672	0	41280	
5673	0	42688	
5674	0	44160	
5675	0	45664	
5676	0	47168	
5677	0	48604	
5678	0	49972	
5679	0	51096	
5680	0	52148	
5681	0	53036	
5682	0	54008	
5683	0	55104	
5684	0	56060	
5685	0	56756	
5686	0	56824	
5687	0	55688	
5688	0	53352	
5689	0	50252	
5690	0	46768	
5691	0	43152	
5692	0	39732	
5693	0	36732	
5694	0	34400	
5695	0	32800	
5696	0	31728	
5697	0	31072	
5698	0	30776	
5699	0	30720	
5700	0	30694	
5701	0	30612	
5702	0	30508	
5703	0	30448	
5704	0	30416	
5705	0	30416	
5706	0	30484	
5707	0	30568	
5708	0	30644	
5709	0	30764	
5710	0	30880	
5711	0	31064	
5712	0	31264	
5713	0	31384	
5714	0	31408	
5715	0	31504	
5716	0	31584	
5717	0	31644	
5718	0	31668	
5719	0	31640	
5720	0	31520	
5721	0	31380	
5722	0	31252	
5723	0	31184	
5724	0	31122	
5725	0	31036	
5726	0	31040	
5727	0	31078	
5728	0	31048	
5729	0	31024	
5730	0	31056	
5731	0	31096	
5732	0	31140	
5733	0	31176	
5734	0	31184	
5735	0	31108	
5736	0	31048	
5737	0	31104	
5738	0	31184	
5739	0	31212	
5740	0	31200	
5741	0	31124	
5742	0	31080	
5743	0	31096	
5744	0	31092	
5745	0	31122	
5746	0	31240	
5747	0	31380	
5748	0	31420	
5749	0	31404	
5750	0	31408	
5751	0	31460	
5752	0	31514	
5753	0	31532	
5754	0	31516	
5755	0	31556	
5756	0	31604	
5757	0	31616	
5758	0	31632	
5759	0	31640	
5760	0	31680	
5761	0	31672	
5762	0	31668	
5763	0	31688	
5764	0	31692	
5765	0	31668	
5766	0	31652	
5767	0	31660	
5768	0	31660	
5769	0	31676	
5770	0	31688	
5771	0	31724	
5772	0	31752	
5773	0	31760	
5774	0	31780	
5775	0	31848	
5776	0	31904	
5777	0	31960	
5778	0	31996	
5779	0	32060	
5780	0	32128	
5781	0	32184	
5782	0	32216	
5783	0	32228	
5784	0	32276	
5785	0	32364	
5786	0	32416	
5787	0	32456	
5788	0	32504	
5789	0	32544	
5790	0	32552	
5791	0	32524	
5792	0	32512	
5793	0	32472	
5794	0	32412	
5795	0	32396	
5796	0	32384	
5797	0	32432	
5798	0	32488	
5799	0	32520	
5800	0	32560	
5801	0	32608	
5802	0	32628	
5803	0	32636	
5804	0	32680	
5805	0	32748	
5806	0	32796	
5807	0	32824	
5808	0	32828	
5809	0	32826	
5810	0	32804	
5811	0	32780	
5812	0	32796	
5813	0	32808	
5814	0	32832	
5815	0	32832	
5816	0	32836	
5817	0	32880	
5818	0	32904	
5819	0	33000	
5820	0	33156	
5821	0	33248	
5822	0	33304	
5823	0	33320	
5824	0	33276	
5825	0	33240	
5826	0	33232	
5827	0	33288	
5828	0	33280	
5829	0	33264	
5830	0	33240	
5831	0	33216	
5832	0	33200	
5833	0	33272	
5834	0	33346	
5835	0	33400	
5836	0	33396	
5837	0	33432	
5838	0	33468	
5839	0	33512	
5840	0	33508	
5841	0	33440	
5842	0	33388	
5843	0	33404	
5844	0	33416	
5845	0	33416	
5846	0	33396	
5847	0	33384	
5848	0	33424	
5849	0	33456	
5850	0	33466	
5851	0	33472	
5852	0	33504	
5853	0	33524	
5854	0	33524	
5855	0	33534	
5856	0	33568	
5857	0	33616	
5858	0	33672	
5859	0	33712	
5860	0	33744	
5861	0	33776	
5862	0	33740	
5863	0	33752	
5864	0	33736	
5865	0	33740	
5866	0	33812	
5867	0	33860	
5868	0	33912	
5869	0	34010	
5870	0	34100	
5871	0	34188	
5872	0	34256	
5873	0	34260	
5874	0	34248	
5875	0	34264	
5876	0	34316	
5877	0	34336	
5878	0	34280	
5879	0	34272	
5880	0	34312	
5881	0	34376	
5882	0	34416	
5883	0	34396	
5884	0	34304	
5885	0	34290	
5886	0	34312	
5887	0	34336	
5888	0	34424	
5889	0	34508	
5890	0	34556	
5891	0	34628	
5892	0	34596	
5893	0	34496	
5894	0	34444	
5895	0	34440	
5896	0	34464	
5897	0	34564	
5898	0	34684	
5899	0	34712	
5900	0	34704	
5901	0	34716	
5902	0	34744	
5903	0	34720	
5904	0	34700	
5905	0	34752	
5906	0	34852	
5907	0	34912	
5908	0	34924	
5909	0	34956	
5910	0	34960	
5911	0	34936	
5912	0	34908	
5913	0	34904	
5914	0	34938	
5915	0	34980	
5916	0	35016	
5917	0	35064	
5918	0	35128	
5919	0	35156	
5920	0	35176	
5921	0	35160	
5922	0	35204	
5923	0	35238	
5924	0	35194	
5925	0	35152	
5926	0	35156	
5927	0	35232	
5928	0	35268	
5929	0	35316	
5930	0	35400	
5931	0	35468	
5932	0	35488	
5933	0	35496	
5934	0	35512	
5935	0	35540	
5936	0	35556	
5937	0	35544	
5938	0	35560	
5939	0	35552	
5940	0	35488	
5941	0	35396	
5942	0	35368	
5943	0	35324	
5944	0	35288	
5945	0	35300	
5946	0	35292	
5947	0	35288	
5948	0	35284	
5949	0	35258	
5950	0	35152	
5951	0	35056	
5952	0	34964	
5953	0	34840	
5954	0	34700	
5955	0	34584	
5956	0	34452	
5957	0	34336	
5958	0	34232	
5959	0	34160	
5960	0	34088	
5961	0	34004	
5962	0	33892	
5963	0	33784	
5964	0	33690	
5965	0	33628	
5966	0	33520	
5967	0	33408	
5968	0	33300	
5969	0	33146	
5970	0	32956	
5971	0	32740	
5972	0	32552	
5973	0	32416	
5974	0	32338	
5975	0	32204	
5976	0	31984	
5977	0	31816	
5978	0	31688	
5979	0	31588	
5980	0	31492	
5981	0	31416	
5982	0	31324	
5983	0	31272	
5984	0	31152	
5985	0	31084	
5986	0	31010	
5987	0	30906	
5988	0	30836	
5989	0	30816	
5990	0	30812	
5991	0	30784	
5992	0	30688	
5993	0	30584	
5994	0	30500	
5995	0	30412	
5996	0	30260	
5997	0	30148	
5998	0	30064	
5999	0	30032	
6000	0	30066	
6001	0	30124	
6002	0	30192	
6003	0	30176	
6004	0	30076	
6005	0	30008	
6006	0	29984	
6007	0	29988	
6008	0	29974	
6009	0	29884	
6010	0	29776	
6011	0	29720	
6012	0	29676	
6013	0	29652	
6014	0	29628	
6015	0	29596	
6016	0	29556	
6017	0	29500	
6018	0	29436	
6019	0	29416	
6020	0	29444	
6021	0	29456	
6022	0	29416	
6023	0	29437	
6024	0	29546	
6025	0	29616	
6026	0	29632	
6027	0	29620	
6028	0	29620	
6029	0	29636	
6030	0	29672	
6031	0	29752	
6032	0	29808	
6033	0	29874	
6034	0	29960	
6035	0	30036	
6036	0	30128	
6037	0	30188	
6038	0	30292	
6039	0	30376	
6040	0	30452	
6041	0	30474	
6042	0	30504	
6043	0	30536	
6044	0	30584	
6045	0	30588	
6046	0	30520	
6047	0	30458	
6048	0	30434	
6049	0	30396	
6050	0	30356	
6051	0	30336	
6052	0	30364	
6053	0	30420	
6054	0	30424	
6055	0	30488	
6056	0	30532	
6057	0	30540	
6058	0	30556	
6059	0	30524	
6060	0	30484	
6061	0	30488	
6062	0	30484	
6063	0	30496	
6064	0	30512	
6065	0	30524	
6066	0	30560	
6067	0	30592	
6068	0	30592	
6069	0	30640	
6070	0	30672	
6071	0	30716	
6072	0	30764	
6073	0	30828	
6074	0	30892	
6075	0	30964	
6076	0	31036	
6077	0	31068	
6078	0	31110	
6079	0	31152	
6080	0	31180	
6081	0	31168	
6082	0	31128	
6083	0	31080	
6084	0	31052	
6085	0	31072	
6086	0	31096	
6087	0	31144	
6088	0	31208	
6089	0	31204	
6090	0	31168	
6091	0	31124	
6092	0	31100	
6093	0	31096	
6094	0	31088	
6095	0	31052	
6096	0	30996	
6097	0	31000	
6098	0	31012	
6099	0	31068	
6100	0	31104	
6101	0	31150	
6102	0	31176	
6103	0	31248	
6104	0	31368	
6105	0	31456	
6106	0	31484	
6107	0	31460	
6108	0	31464	
6109	0	31432	
6110	0	31392	
6111	0	31428	
6112	0	31504	
6113	0	31524	
6114	0	31576	
6115	0	31572	
6116	0	31588	
6117	0	31564	
6118	0	31512	
6119	0	31480	
6120	0	31504	
6121	0	31584	
6122	0	31600	
6123	0	31628	
6124	0	31688	
6125	0	31820	
6126	0	31936	
6127	0	31930	
6128	0	31960	
6129	0	31960	
6130	0	31936	
6131	0	31924	
6132	0	31920	
6133	0	31904	
6134	0	31864	
6135	0	31844	
6136	0	31864	
6137	0	31880	
6138	0	31904	
6139	0	31928	
6140	0	31980	
6141	0	32002	
6142	0	32008	
6143	0	32032	
6144	0	32004	
6145	0	31984	
6146	0	31976	
6147	0	31940	
6148	0	31908	
6149	0	31916	
6150	0	31928	
6151	0	31940	
6152	0	31948	
6153	0	31962	
6154	0	31976	
6155	0	31992	
6156	0	31948	
6157	0	31944	
6158	0	31988	
6159	0	32024	
6160	0	32048	
6161	0	32032	
6162	0	31980	
6163	0	31940	
6164	0	31924	
6165	0	31896	
6166	0	31860	
6167	0	31828	
6168	0	31804	
6169	0	31802	
6170	0	31792	
6171	0	31816	
6172	0	31840	
6173	0	31836	
6174	0	31836	
6175	0	31840	
6176	0	31896	
6177	0	31904	
6178	0	31874	
6179	0	31888	
6180	0	31948	
6181	0	32000	
6182	0	32000	
6183	0	31976	
6184	0	31942	
6185	0	31994	
6186	0	32064	
6187	0	32084	
6188	0	32092	
6189	0	32064	
6190	0	32064	
6191	0	32082	
6192	0	32140	
6193	0	32200	
6194	0	32228	
6195	0	32244	
6196	0	32248	
6197	0	32270	
6198	0	32248	
6199	0	32186	
6200	0	32160	
6201	0	32180	
6202	0	32168	
6203	0	32124	
6204	0	32100	
6205	0	32072	
6206	0	32080	
6207	0	32152	
6208	0	32216	
6209	0	32264	
6210	0	32320	
6211	0	32332	
6212	0	32316	
6213	0	32368	
6214	0	32404	
6215	0	32384	
6216	0	32308	
6217	0	32264	
6218	0	32284	
6219	0	32288	
6220	0	32256	
6221	0	32248	
6222	0	32212	
6223	0	32208	
6224	0	32214	
6225	0	32268	
6226	0	32344	
6227	0	32440	
6228	0	32520	
6229	0	32528	
6230	0	32480	
6231	0	32432	
6232	0	32426	
6233	0	32448	
6234	0	32460	
6235	0	32404	
6236	0	32328	
6237	0	32272	
6238	0	32276	
6239	0	32256	
6240	0	32172	
6241	0	32108	
6242	0	32100	
6243	0	32124	
6244	0	32138	
6245	0	32156	
6246	0	32200	
6247	0	32256	
6248	0	32328	
6249	0	32396	
6250	0	32404	
6251	0	32368	
6252	0	32344	
6253	0	32380	
6254	0	32420	
6255	0	32516	
6256	0	32576	
6257	0	32620	
6258	0	32656	
6259	0	32648	
6260	0	32608	
6261	0	32600	
6262	0	32604	
6263	0	32628	
6264	0	32640	
6265	0	32508	
6266	0	32360	
6267	0	32320	
6268	0	32320	
6269	0	32296	
6270	0	32292	
6271	0	32288	
6272	0	32332	
6273	0	32354	
6274	0	32356	
6275	0	32356	
6276	0	32364	
6277	0	32368	
6278	0	32410	
6279	0	32416	
6280	0	32396	
6281	0	32416	
6282	0	32476	
6283	0	32464	
6284	0	32440	
6285	0	32424	
6286	0	32380	
6287	0	32352	
6288	0	32368	
6289	0	32384	
6290	0	32414	
6291	0	32432	
6292	0	32448	
6293	0	32428	
6294	0	32352	
6295	0	32324	
6296	0	32384	
6297	0	32508	
6298	0	32620	
6299	0	32736	
6300	0	32796	
6301	0	32858	
6302	0	32956	
6303	0	33068	
6304	0	33108	
6305	0	33120	
6306	0	33096	
6307	0	33060	
6308	0	33032	
6309	0	32980	
6310	0	32904	
6311	0	32844	
6312	0	32832	
6313	0	32868	
6314	0	32880	
6315	0	32888	
6316	0	32852	
6317	0	32812	
6318	0	32748	
6319	0	32712	
6320	0	32734	
6321	0	32772	
6322	0	32816	
6323	0	32860	
6324	0	32944	
6325	0	33078	
6326	0	33220	
6327	0	33348	
6328	0	33444	
6329	0	33556	
6330	0	33656	
6331	0	33752	
6332	0	33876	
6333	0	33962	
6334	0	34032	
6335	0	34152	
6336	0	34288	
6337	0	34412	
6338	0	34544	
6339	0	34712	
6340	0	34828	
6341	0	34958	
6342	0	35096	
6343	0	35152	
6344	0	35060	
6345	0	34856	
6346	0	34600	
6347	0	34416	
6348	0	34184	
6349	0	33892	
6350	0	33652	
6351	0	33424	
6352	0	33252	
6353	0	33104	
6354	0	33052	
6355	0	33040	
6356	0	32992	
6357	0	32928	
6358	0	32844	
6359	0	32810	
6360	0	32826	
6361	0	32864	
6362	0	32916	
6363	0	32928	
6364	0	32944	
6365	0	32940	
6366	0	32926	
6367	0	32972	
6368	0	32992	
6369	0	33038	
6370	0	33028	
6371	0	33024	
6372	0	33048	
6373	0	33028	
6374	0	33024	
6375	0	32992	
6376	0	32936	
6377	0	32816	
6378	0	32696	
6379	0	32572	
6380	0	32494	
6381	0	32456	
6382	0	32432	
6383	0	32384	
6384	0	32332	
6385	0	32276	
6386	0	32192	
6387	0	32108	
6388	0	32040	
6389	0	31936	
6390	0	31856	
6391	0	31832	
6392	0	31824	
6393	0	31876	
6394	0	31952	
6395	0	31988	
6396	0	32044	
6397	0	32070	
6398	0	32072	
6399	0	32056	
6400	0	32044	
6401	0	32020	
6402	0	32000	
6403	0	31972	
6404	0	31972	
6405	0	32028	
6406	0	32040	
6407	0	32024	
6408	0	32016	
6409	0	32024	
6410	0	32038	
6411	0	32072	
6412	0	32064	
6413	0	32080	
6414	0	32076	
6415	0	32056	
6416	0	31980	
6417	0	31960	
6418	0	31936	
6419	0	31932	
6420	0	31962	
6421	0	31976	
6422	0	32088	
6423	0	32208	
6424	0	32262	
6425	0	32304	
6426	0	32346	
6427	0	32336	
6428	0	32376	
6429	0	32456	
6430	0	32468	
6431	0	32490	
6432	0	32532	
6433	0	32564	
6434	0	32616	
6435	0	32660	
6436	0	32672	
6437	0	32636	
6438	0	32612	
6439	0	32612	
6440	0	32628	
6441	0	32688	
6442	0	32728	
6443	0	32716	
6444	0	32696	
6445	0	32592	
6446	0	32568	
6447	0	32624	
6448	0	32664	
6449	0	32620	
6450	0	32548	
6451	0	32436	
6452	0	32344	
6453	0	32332	
6454	0	32368	
6455	0	32440	
6456	0	32480	
6457	0	32548	
6458	0	32680	
6459	0	32800	
6460	0	32870	
6461	0	32886	
6462	0	32872	
6463	0	32820	
6464	0	32736	
6465	0	32640	
6466	0	32492	
6467	0	32308	
6468	0	32184	
6469	0	32196	
6470	0	32356	
6471	0	32640	
6472	0	32916	
6473	0	33224	
6474	0	33592	
6475	0	33916	
6476	0	34112	
6477	0	34144	
6478	0	34208	
6479	0	34412	
6480	0	34748	
6481	0	35348	
6482	0	36128	
6483	0	37108	
6484	0	38228	
6485	0	39528	
6486	0	40992	
6487	0	42544	
6488	0	44088	
6489	0	45720	
6490	0	47432	
6491	0	49272	
6492	0	51052	
6493	0	52664	
6494	0	54072	
6495	0	55280	
6496	0	56452	
6497	0	57672	
6498	0	58840	
6499	0	59644	
6500	0	59824	
6501	0	58944	
6502	0	56856	
6503	0	53766	
6504	0	50048	
6505	0	45928	
6506	0	41848	
6507	0	38144	
6508	0	35036	
6509	0	32748	
6510	0	31248	
6511	0	30272	
6512	0	29532	
6513	0	29048	
6514	0	28776	
6515	0	28688	
6516	0	28808	
6517	0	29088	
6518	0	29392	
6519	0	29676	
6520	0	29922	
6521	0	30132	
6522	0	30248	
6523	0	30320	
6524	0	30400	
6525	0	30488	
6526	0	30682	
6527	0	30912	
6528	0	31136	
6529	0	31276	
6530	0	31324	
6531	0	31368	
6532	0	31364	
6533	0	31328	
6534	0	31328	
6535	0	31404	
6536	0	31436	
6537	0	31432	
6538	0	31392	
6539	0	31412	
6540	0	31412	
6541	0	31328	
6542	0	31312	
6543	0	31328	
6544	0	31392	
6545	0	31420	
6546	0	31392	
6547	0	31386	
6548	0	31356	
6549	0	31296	
6550	0	31228	
6551	0	31168	
6552	0	31076	
6553	0	31020	
6554	0	31040	
6555	0	31028	
6556	0	31012	
6557	0	31000	
6558	0	30996	
6559	0	30954	
6560	0	30968	
6561	0	31068	
6562	0	31152	
6563	0	31240	
6564	0	31288	
6565	0	31308	
6566	0	31340	
6567	0	31380	
6568	0	31432	
6569	0	31492	
6570	0	31528	
6571	0	31546	
6572	0	31560	
6573	0	31616	
6574	0	31656	
6575	0	31698	
6576	0	31684	
6577	0	31680	
6578	0	31680	
6579	0	31692	
6580	0	31732	
6581	0	31728	
6582	0	31712	
6583	0	31722	
6584	0	31824	
6585	0	31904	
6586	0	31932	
6587	0	31928	
6588	0	31908	
6589	0	31920	
6590	0	31948	
6591	0	31952	
6592	0	31956	
6593	0	31984	
6594	0	32040	
6595	0	32036	
6596	0	32052	
6597	0	32052	
6598	0	32064	
6599	0	32112	
6600	0	32170	
6601	0	32192	
6602	0	32200	
6603	0	32204	
6604	0	32256	
6605	0	32266	
6606	0	32234	
6607	0	32180	
6608	0	32164	
6609	0	32236	
6610	0	32332	
6611	0	32354	
6612	0	32320	
6613	0	32282	
6614	0	32296	
6615	0	32322	
6616	0	32380	
6617	0	32424	
6618	0	32488	
6619	0	32476	
6620	0	32484	
6621	0	32480	
6622	0	32536	
6623	0	32604	
6624	0	32668	
6625	0	32712	
6626	0	32706	
6627	0	32706	
6628	0	32704	
6629	0	32690	
6630	0	32728	
6631	0	32784	
6632	0	32794	
6633	0	32816	
6634	0	32844	
6635	0	32892	
6636	0	32932	
6637	0	32968	
6638	0	32956	
6639	0	32912	
6640	0	32908	
6641	0	32952	
6642	0	33000	
6643	0	33068	
6644	0	33136	
6645	0	33174	
6646	0	33216	
6647	0	33242	
6648	0	33280	
6649	0	33324	
6650	0	33332	
6651	0	33292	
6652	0	33262	
6653	0	33268	
6654	0	33296	
6655	0	33332	
6656	0	33312	
6657	0	33300	
6658	0	33314	
6659	0	33308	
6660	0	33268	
6661	0	33232	
6662	0	33224	
6663	0	33224	
6664	0	33250	
6665	0	33264	
6666	0	33252	
6667	0	33252	
6668	0	33300	
6669	0	33402	
6670	0	33532	
6671	0	33624	
6672	0	33692	
6673	0	33704	
6674	0	33688	
6675	0	33708	
6676	0	33766	
6677	0	33772	
6678	0	33752	
6679	0	33754	
6680	0	33756	
6681	0	33704	
6682	0	33640	
6683	0	33644	
6684	0	33680	
6685	0	33728	
6686	0	33760	
6687	0	33768	
6688	0	33768	
6689	0	33784	
6690	0	33768	
6691	0	33780	
6692	0	33824	
6693	0	33844	
6694	0	33872	
6695	0	33952	
6696	0	34068	
6697	0	34124	
6698	0	34176	
6699	0	34256	
6700	0	34316	
6701	0	34320	
6702	0	34304	
6703	0	34304	
6704	0	34348	
6705	0	34376	
6706	0	34400	
6707	0	34426	
6708	0	34464	
6709	0	34528	
6710	0	34572	
6711	0	34580	
6712	0	34592	
6713	0	34556	
6714	0	34528	
6715	0	34544	
6716	0	34616	
6717	0	34748	
6718	0	34856	
6719	0	34868	
6720	0	34912	
6721	0	34970	
6722	0	34992	
6723	0	35016	
6724	0	35068	
6725	0	35084	
6726	0	35132	
6727	0	35160	
6728	0	35200	
6729	0	35236	
6730	0	35272	
6731	0	35296	
6732	0	35360	
6733	0	35384	
6734	0	35408	
6735	0	35412	
6736	0	35428	
6737	0	35412	
6738	0	35392	
6739	0	35416	
6740	0	35456	
6741	0	35524	
6742	0	35544	
6743	0	35600	
6744	0	35650	
6745	0	35696	
6746	0	35756	
6747	0	35788	
6748	0	35800	
6749	0	35824	
6750	0	35832	
6751	0	35796	
6752	0	35770	
6753	0	35732	
6754	0	35672	
6755	0	35576	
6756	0	35540	
6757	0	35544	
6758	0	35536	
6759	0	35500	
6760	0	35480	
6761	0	35456	
6762	0	35392	
6763	0	35332	
6764	0	35272	
6765	0	35208	
6766	0	35144	
6767	0	35076	
6768	0	34988	
6769	0	34892	
6770	0	34852	
6771	0	34784	
6772	0	34672	
6773	0	34560	
6774	0	34420	
6775	0	34256	
6776	0	34108	
6777	0	33988	
6778	0	33900	
6779	0	33852	
6780	0	33784	
6781	0	33684	
6782	0	33568	
6783	0	33428	
6784	0	33216	
6785	0	33044	
6786	0	32888	
6787	0	32698	
6788	0	32516	
6789	0	32372	
6790	0	32256	
6791	0	32104	
6792	0	31972	
6793	0	31874	
6794	0	31792	
6795	0	31740	
6796	0	31700	
6797	0	31660	
6798	0	31576	
6799	0	31512	
6800	0	31436	
6801	0	31316	
6802	0	31228	
6803	0	31116	
6804	0	30966	
6805	0	30808	
6806	0	30656	
6807	0	30528	
6808	0	30424	
6809	0	30316	
6810	0	30188	
6811	0	30104	
6812	0	30114	
6813	0	30088	
6814	0	30072	
6815	0	30020	
6816	0	29980	
6817	0	29980	
6818	0	29932	
6819	0	29972	
6820	0	29992	
6821	0	29980	
6822	0	29942	
6823	0	29864	
6824	0	29752	
6825	0	29712	
6826	0	29740	
6827	0	29748	
6828	0	29764	
6829	0	29752	
6830	0	29772	
6831	0	29780	
6832	0	29764	
6833	0	29772	
6834	0	29812	
6835	0	29836	
6836	0	29884	
6837	0	29944	
6838	0	29952	
6839	0	29944	
6840	0	29880	
6841	0	29856	
6842	0	29904	
6843	0	29976	
6844	0	30025	
6845	0	30040	
6846	0	30122	
6847	0	30192	
6848	0	30258	
6849	0	30276	
6850	0	30252	
6851	0	30224	
6852	0	30236	
6853	0	30248	
6854	0	30282	
6855	0	30320	
6856	0	30328	
6857	0	30352	
6858	0	30350	
6859	0	30312	
6860	0	30288	
6861	0	30312	
6862	0	30320	
6863	0	30304	
6864	0	30318	
6865	0	30364	
6866	0	30404	
6867	0	30448	
6868	0	30480	
6869	0	30484	
6870	0	30496	
6871	0	30560	
6872	0	30636	
6873	0	30676	
6874	0	30688	
6875	0	30720	
6876	0	30724	
6877	0	30692	
6878	0	30664	
6879	0	30608	
6880	0	30608	
6881	0	30660	
6882	0	30778	
6883	0	30848	
6884	0	30876	
6885	0	30958	
6886	0	30976	
6887	0	30972	
6888	0	31020	
6889	0	31036	
6890	0	31076	
6891	0	31116	
6892	0	31168	
6893	0	31212	
6894	0	31180	
6895	0	31140	
6896	0	31120	
6897	0	31096	
6898	0	31080	
6899	0	31068	
6900	0	31116	
6901	0	31176	
6902	0	31224	
6903	0	31260	
6904	0	31280	
6905	0	31264	
6906	0	31268	
6907	0	31312	
6908	0	31320	
6909	0	31356	
6910	0	31400	
6911	0	31464	
6912	0	31488	
6913	0	31524	
6914	0	31506	
6915	0	31512	
6916	0	31520	
6917	0	31552	
6918	0	31572	
6919	0	31592	
6920	0	31612	
6921	0	31612	
6922	0	31616	
6923	0	31636	
6924	0	31688	
6925	0	31712	
6926	0	31676	
6927	0	31628	
6928	0	31612	
6929	0	31632	
6930	0	31640	
6931	0	31672	
6932	0	31680	
6933	0	31724	
6934	0	31784	
6935	0	31800	
6936	0	31832	
6937	0	31880	
6938	0	31940	
6939	0	31972	
6940	0	31988	
6941	0	31980	
6942	0	31992	
6943	0	31988	
6944	0	31956	
6945	0	31948	
6946	0	31928	
6947	0	31864	
6948	0	31848	
6949	0	31848	
6950	0	31840	
6951	0	31840	
6952	0	31828	
6953	0	31864	
6954	0	31872	
6955	0	31868	
6956	0	31910	
6957	0	31940	
6958	0	31940	
6959	0	31950	
6960	0	31976	
6961	0	32000	
6962	0	32024	
6963	0	32016	
6964	0	32016	
6965	0	32052	
6966	0	32092	
6967	0	32100	
6968	0	32124	
6969	0	32132	
6970	0	32144	
6971	0	32156	
6972	0	32136	
6973	0	32136	
6974	0	32132	
6975	0	32120	
6976	0	32136	
6977	0	32116	
6978	0	32108	
6979	0	32108	
6980	0	32100	
6981	0	32092	
6982	0	32096	
6983	0	32064	
6984	0	32024	
6985	0	31988	
6986	0	31964	
6987	0	31968	
6988	0	31968	
6989	0	31944	
6990	0	31944	
6991	0	31986	
6992	0	32040	
6993	0	32088	
6994	0	32072	
6995	0	32040	
6996	0	32028	
6997	0	32016	
6998	0	31980	
6999	0	31928	
7000	0	31976	
7001	0	32048	
7002	0	32072	
7003	0	32024	
7004	0	31992	
7005	0	31960	
7006	0	31968	
7007	0	32032	
7008	0	32084	
7009	0	32128	
7010	0	32168	
7011	0	32180	
7012	0	32144	
7013	0	32072	
7014	0	32032	
7015	0	32032	
7016	0	32080	
7017	0	32128	
7018	0	32092	
7019	0	32052	
7020	0	32020	
7021	0	31964	
7022	0	31972	
7023	0	32002	
7024	0	32020	
7025	0	32064	
7026	0	32130	
7027	0	32184	
7028	0	32216	
7029	0	32296	
7030	0	32336	
7031	0	32328	
7032	0	32296	
7033	0	32264	
7034	0	32216	
7035	0	32164	
7036	0	32104	
7037	0	32104	
7038	0	32124	
7039	0	32136	
7040	0	32120	
7041	0	32080	
7042	0	32036	
7043	0	32068	
7044	0	32132	
7045	0	32212	
7046	0	32232	
7047	0	32240	
7048	0	32248	
7049	0	32252	
7050	0	32280	
7051	0	32308	
7052	0	32308	
7053	0	32352	
7054	0	32364	
7055	0	32372	
7056	0	32376	
7057	0	32376	
7058	0	32344	
7059	0	32332	
7060	0	32364	
7061	0	32444	
7062	0	32516	
7063	0	32538	
7064	0	32568	
7065	0	32580	
7066	0	32540	
7067	0	32512	
7068	0	32484	
7069	0	32454	
7070	0	32452	
7071	0	32424	
7072	0	32414	
7073	0	32400	
7074	0	32416	
7075	0	32480	
7076	0	32532	
7077	0	32540	
7078	0	32512	
7079	0	32504	
7080	0	32488	
7081	0	32512	
7082	0	32592	
7083	0	32640	
7084	0	32666	
7085	0	32670	
7086	0	32636	
7087	0	32612	
7088	0	32600	
7089	0	32528	
7090	0	32516	
7091	0	32580	
7092	0	32654	
7093	0	32684	
7094	0	32630	
7095	0	32560	
7096	0	32560	
7097	0	32596	
7098	0	32616	
7099	0	32636	
7100	0	32652	
7101	0	32700	
7102	0	32700	
7103	0	32713	
7104	0	32752	
7105	0	32764	
7106	0	32712	
7107	0	32672	
7108	0	32680	
7109	0	32712	
7110	0	32668	
7111	0	32640	
7112	0	32620	
7113	0	32612	
7114	0	32608	
7115	0	32616	
7116	0	32664	
7117	0	32736	
7118	0	32800	
7119	0	32784	
7120	0	32728	
7121	0	32716	
7122	0	32742	
7123	0	32804	
7124	0	32916	
7125	0	33040	
7126	0	33140	
7127	0	33228	
7128	0	33314	
7129	0	33442	
7130	0	33556	
7131	0	33652	
7132	0	33732	
7133	0	33880	
7134	0	34008	
7135	0	34128	
7136	0	34180	
7137	0	34216	
7138	0	34240	
7139	0	34280	
7140	0	34354	
7141	0	34368	
7142	0	34368	
7143	0	34376	
7144	0	34382	
7145	0	34328	
7146	0	34224	
7147	0	34080	
7148	0	33960	
7149	0	33912	
7150	0	33840	
7151	0	33732	
7152	0	33648	
7153	0	33600	
7154	0	33604	
7155	0	33600	
7156	0	33536	
7157	0	33412	
7158	0	33313	
7159	0	33292	
7160	0	33268	
7161	0	33232	
7162	0	33168	
7163	0	33088	
7164	0	33048	
7165	0	33008	
7166	0	32960	
7167	0	32930	
7168	0	32944	
7169	0	32928	
7170	0	32876	
7171	0	32848	
7172	0	32896	
7173	0	32920	
7174	0	32920	
7175	0	32874	
7176	0	32808	
7177	0	32752	
7178	0	32760	
7179	0	32804	
7180	0	32784	
7181	0	32712	
7182	0	32656	
7183	0	32628	
7184	0	32632	
7185	0	32568	
7186	0	32452	
7187	0	32348	
7188	0	32288	
7189	0	32240	
7190	0	32196	
7191	0	32180	
7192	0	32152	
7193	0	32116	
7194	0	32092	
7195	0	32084	
7196	0	32072	
7197	0	32024	
7198	0	31988	
7199	0	31976	
7200	0	31964	
7201	0	31916	
7202	0	31980	
7203	0	32120	
7204	0	32244	
7205	0	32328	
7206	0	32384	
7207	0	32392	
7208	0	32380	
7209	0	32336	
7210	0	32300	
7211	0	32264	
7212	0	32292	
7213	0	32328	
7214	0	32324	
7215	0	32296	
7216	0	32288	
7217	0	32312	
7218	0	32336	
7219	0	32336	
7220	0	32300	
7221	0	32240	
7222	0	32224	
7223	0	32240	
7224	0	32236	
7225	0	32228	
7226	0	32260	
7227	0	32288	
7228	0	32300	
7229	0	32362	
7230	0	32392	
7231	0	32372	
7232	0	32320	
7233	0	32284	
7234	0	32324	
7235	0	32360	
7236	0	32372	
7237	0	32360	
7238	0	32328	
7239	0	32292	
7240	0	32264	
7241	0	32228	
7242	0	32240	
7243	0	32280	
7244	0	32292	
7245	0	32320	
7246	0	32324	
7247	0	32348	
7248	0	32352	
7249	0	32372	
7250	0	32400	
7251	0	32472	
7252	0	32492	
7253	0	32436	
7254	0	32396	
7255	0	32416	
7256	0	32500	
7257	0	32556	
7258	0	32624	
7259	0	32692	
7260	0	32752	
7261	0	32816	
7262	0	32872	
7263	0	32896	
7264	0	32888	
7265	0	32852	
7266	0	32792	
7267	0	32724	
7268	0	32624	
7269	0	32501	
7270	0	32344	
7271	0	32224	
7272	0	32224	
7273	0	32352	
7274	0	32636	
7275	0	32940	
7276	0	33312	
7277	0	33736	
7278	0	34124	
7279	0	34464	
7280	0	34708	
7281	0	34872	
7282	0	35052	
7283	0	35312	
7284	0	35784	
7285	0	36440	
7286	0	37248	
7287	0	38292	
7288	0	39504	
7289	0	40880	
7290	0	42372	
7291	0	43912	
7292	0	45460	
7293	0	47132	
7294	0	48856	
7295	0	50496	
7296	0	51968	
7297	0	53256	
7298	0	54364	
7299	0	55396	
7300	0	56648	
7301	0	57824	
7302	0	58704	
7303	0	59024	
7304	0	58372	
7305	0	56480	
7306	0	53536	
7307	0	50012	
7308	0	46108	
7309	0	42140	
7310	0	38528	
7311	0	35500	
7312	0	33284	
7313	0	31836	
7314	0	30912	
7315	0	30400	
7316	0	30128	
7317	0	29964	
7318	0	29916	
7319	0	29880	
7320	0	29872	
7321	0	29924	
7322	0	30024	
7323	0	30184	
7324	0	30284	
7325	0	30344	
7326	0	30388	
7327	0	30452	
7328	0	30592	
7329	0	30784	
7330	0	30972	
7331	0	31112	
7332	0	31208	
7333	0	31284	
7334	0	31356	
7335	0	31468	
7336	0	31536	
7337	0	31504	
7338	0	31460	
7339	0	31388	
7340	0	31344	
7341	0	31328	
7342	0	31296	
7343	0	31208	
7344	0	31144	
7345	0	31100	
7346	0	31130	
7347	0	31180	
7348	0	31160	
7349	0	31164	
7350	0	31176	
7351	0	31188	
7352	0	31200	
7353	0	31204	
7354	0	31212	
7355	0	31168	
7356	0	31148	
7357	0	31156	
7358	0	31224	
7359	0	31296	
7360	0	31352	
7361	0	31396	
7362	0	31400	
7363	0	31408	
7364	0	31416	
7365	0	31364	
7366	0	31340	
7367	0	31348	
7368	0	31372	
7369	0	31412	
7370	0	31460	
7371	0	31496	
7372	0	31528	
7373	0	31528	
7374	0	31504	
7375	0	31504	
7376	0	31504	
7377	0	31544	
7378	0	31620	
7379	0	31700	
7380	0	31736	
7381	0	31760	
7382	0	31770	
7383	0	31752	
7384	0	31728	
7385	0	31736	
7386	0	31776	
7387	0	31832	
7388	0	31912	
7389	0	31952	
7390	0	31944	
7391	0	31918	
7392	0	31912	
7393	0	31962	
7394	0	31992	
7395	0	31988	
7396	0	32008	
7397	0	32004	
7398	0	32040	
7399	0	32080	
7400	0	32120	
7401	0	32120	
7402	0	32080	
7403	0	32032	
7404	0	31976	
7405	0	31970	
7406	0	32004	
7407	0	32000	
7408	0	32020	
7409	0	32060	
7410	0	32120	
7411	0	32168	
7412	0	32240	
7413	0	32332	
7414	0	32368	
7415	0	32392	
7416	0	32448	
7417	0	32524	
7418	0	32604	
7419	0	32660	
7420	0	32672	
7421	0	32672	
7422	0	32672	
7423	0	32672	
7424	0	32666	
7425	0	32624	
7426	0	32576	
7427	0	32602	
7428	0	32600	
7429	0	32560	
7430	0	32560	
7431	0	32580	
7432	0	32616	
7433	0	32672	
7434	0	32696	
7435	0	32728	
7436	0	32748	
7437	0	32796	
7438	0	32840	
7439	0	32896	
7440	0	33004	
7441	0	33074	
7442	0	33120	
7443	0	33160	
7444	0	33216	
7445	0	33280	
7446	0	33292	
7447	0	33296	
7448	0	33332	
7449	0	33368	
7450	0	33388	
7451	0	33408	
7452	0	33380	
7453	0	33412	
7454	0	33436	
7455	0	33450	
7456	0	33448	
7457	0	33424	
7458	0	33384	
7459	0	33340	
7460	0	33348	
7461	0	33384	
7462	0	33404	
7463	0	33482	
7464	0	33524	
7465	0	33576	
7466	0	33572	
7467	0	33560	
7468	0	33580	
7469	0	33600	
7470	0	33628	
7471	0	33632	
7472	0	33636	
7473	0	33648	
7474	0	33624	
7475	0	33624	
7476	0	33666	
7477	0	33652	
7478	0	33616	
7479	0	33596	
7480	0	33568	
7481	0	33572	
7482	0	33580	
7483	0	33560	
7484	0	33544	
7485	0	33616	
7486	0	33672	
7487	0	33712	
7488	0	33732	
7489	0	33760	
7490	0	33764	
7491	0	33808	
7492	0	33816	
7493	0	33824	
7494	0	33884	
7495	0	33896	
7496	0	33920	
7497	0	33980	
7498	0	34040	
7499	0	34080	
7500	0	34112	
7501	0	34154	
7502	0	34216	
7503	0	34304	
7504	0	34396	
7505	0	34428	
7506	0	34456	
7507	0	34500	
7508	0	34584	
7509	0	34632	
7510	0	34708	
7511	0	34764	
7512	0	34812	
7513	0	34836	
7514	0	34800	
7515	0	34754	
7516	0	34676	
7517	0	34572	
7518	0	34496	
7519	0	34480	
7520	0	34420	
7521	0	34400	
7522	0	34420	
7523	0	34476	
7524	0	34560	
7525	0	34644	
7526	0	34740	
7527	0	34808	
7528	0	34844	
7529	0	34856	
7530	0	34872	
7531	0	34864	
7532	0	34872	
7533	0	34908	
7534	0	34932	
7535	0	34956	
7536	0	34952	
7537	0	34956	
7538	0	35024	
7539	0	35068	
7540	0	35104	
7541	0	35140	
7542	0	35228	
7543	0	35300	
7544	0	35376	
7545	0	35392	
7546	0	35352	
7547	0	35272	
7548	0	35240	
7549	0	35220	
7550	0	35194	
7551	0	35196	
7552	0	35220	
7553	0	35256	
7554	0	35266	
7555	0	35284	
7556	0	35340	
7557	0	35376	
7558	0	35384	
7559	0	35360	
7560	0	35304	
7561	0	35264	
7562	0	35240	
7563	0	35224	
7564	0	35200	
7565	0	35152	
7566	0	35092	
7567	0	35048	
7568	0	34944	
7569	0	34848	
7570	0	34754	
7571	0	34656	
7572	0	34536	
7573	0	34420	
7574	0	34272	
7575	0	34196	
7576	0	34128	
7577	0	34028	
7578	0	33888	
7579	0	33728	
7580	0	33584	
7581	0	33460	
7582	0	33360	
7583	0	33306	
7584	0	33240	
7585	0	33148	
7586	0	33016	
7587	0	32900	
7588	0	32752	
7589	0	32568	
7590	0	32448	
7591	0	32352	
7592	0	32224	
7593	0	32132	
7594	0	32112	
7595	0	32096	
7596	0	31988	
7597	0	31884	
7598	0	31764	
7599	0	31632	
7600	0	31536	
7601	0	31428	
7602	0	31320	
7603	0	31248	
7604	0	31192	
7605	0	31132	
7606	0	31028	
7607	0	30912	
7608	0	30840	
7609	0	30704	
7610	0	30576	
7611	0	30432	
7612	0	30304	
7613	0	30172	
7614	0	30072	
7615	0	30044	
7616	0	30020	
7617	0	30016	
7618	0	29976	
7619	0	29972	
7620	0	29992	
7621	0	30008	
7622	0	29988	
7623	0	29960	
7624	0	29938	
7625	0	29956	
7626	0	30008	
7627	0	30008	
7628	0	29978	
7629	0	29946	
7630	0	29920	
7631	0	29880	
7632	0	29812	
7633	0	29764	
7634	0	29756	
7635	0	29720	
7636	0	29720	
7637	0	29744	
7638	0	29728	
7639	0	29692	
7640	0	29676	
7641	0	29664	
7642	0	29668	
7643	0	29672	
7644	0	29744	
7645	0	29804	
7646	0	29840	
7647	0	29848	
7648	0	29908	
7649	0	29948	
7650	0	29992	
7651	0	30064	
7652	0	30112	
7653	0	30152	
7654	0	30136	
7655	0	30092	
7656	0	30080	
7657	0	30108	
7658	0	30136	
7659	0	30098	
7660	0	30080	
7661	0	30116	
7662	0	30126	
7663	0	30108	
7664	0	30072	
7665	0	30040	
7666	0	30104	
7667	0	30248	
7668	0	30384	
7669	0	30452	
7670	0	30488	
7671	0	30472	
7672	0	30448	
7673	0	30436	
7674	0	30476	
7675	0	30524	
7676	0	30564	
7677	0	30560	
7678	0	30576	
7679	0	30632	
7680	0	30656	
7681	0	30600	
7682	0	30528	
7683	0	30496	
7684	0	30464	
7685	0	30480	
7686	0	30540	
7687	0	30604	
7688	0	30684	
7689	0	30764	
7690	0	30788	
7691	0	30764	
7692	0	30728	
7693	0	30734	
7694	0	30764	
7695	0	30824	
7696	0	30880	
7697	0	30912	
7698	0	30964	
7699	0	31000	
7700	0	30992	
7701	0	30984	
7702	0	31012	
7703	0	31108	
7704	0	31200	
7705	0	31288	
7706	0	31352	
7707	0	31376	
7708	0	31370	
7709	0	31368	
7710	0	31356	
7711	0	31316	
7712	0	31260	
7713	0	31248	
7714	0	31240	
7715	0	31212	
7716	0	31188	
7717	0	31176	
7718	0	31180	
7719	0	31160	
7720	0	31136	
7721	0	31104	
7722	0	31136	
7723	0	31208	
7724	0	31264	
7725	0	31296	
7726	0	31312	
7727	0	31312	
7728	0	31296	
7729	0	31336	
7730	0	31360	
7731	0	31368	
7732	0	31370	
7733	0	31388	
7734	0	31440	
7735	0	31512	
7736	0	31544	
7737	0	31540	
7738	0	31496	
7739	0	31468	
7740	0	31508	
7741	0	31552	
7742	0	31598	
7743	0	31544	
7744	0	31468	
7745	0	31408	
7746	0	31402	
7747	0	31412	
7748	0	31432	
7749	0	31416	
7750	0	31416	
7751	0	31464	
7752	0	31514	
7753	0	31544	
7754	0	31548	
7755	0	31512	
7756	0	31504	
7757	0	31456	
7758	0	31448	
7759	0	31464	
7760	0	31488	
7761	0	31528	
7762	0	31560	
7763	0	31604	
7764	0	31616	
7765	0	31612	
7766	0	31640	
7767	0	31676	
7768	0	31692	
7769	0	31732	
7770	0	31802	
7771	0	31852	
7772	0	31892	
7773	0	31864	
7774	0	31812	
7775	0	31800	
7776	0	31808	
7777	0	31786	
7778	0	31752	
7779	0	31700	
7780	0	31652	
7781	0	31614	
7782	0	31584	
7783	0	31624	
7784	0	31652	
7785	0	31652	
7786	0	31640	
7787	0	31668	
7788	0	31736	
7789	0	31784	
7790	0	31880	
7791	0	31960	
7792	0	32032	
7793	0	32068	
7794	0	32092	
7795	0	32084	
7796	0	32008	
7797	0	31944	
7798	0	31948	
7799	0	31960	
7800	0	31976	
7801	0	31968	
7802	0	31920	
7803	0	31932	
7804	0	31936	
7805	0	31922	
7806	0	31964	
7807	0	31968	
7808	0	31904	
7809	0	31888	
7810	0	31896	
7811	0	31904	
7812	0	31908	
7813	0	31908	
7814	0	31906	
7815	0	31932	
7816	0	31944	
7817	0	31944	
7818	0	31944	
7819	0	31976	
7820	0	31964	
7821	0	31936	
7822	0	31944	
7823	0	31956	
7824	0	31968	
7825	0	31988	
7826	0	32020	
7827	0	32040	
7828	0	32052	
7829	0	32076	
7830	0	32072	
7831	0	32068	
7832	0	32096	
7833	0	32152	
7834	0	32180	
7835	0	32184	
7836	0	32176	
7837	0	32152	
7838	0	32130	
7839	0	32128	
7840	0	32104	
7841	0	32072	
7842	0	32060	
7843	0	32040	
7844	0	32020	
7845	0	32000	
7846	0	31976	
7847	0	31972	
7848	0	31968	
7849	0	31952	
7850	0	31980	
7851	0	32026	
7852	0	32032	
7853	0	32016	
7854	0	32012	
7855	0	31988	
7856	0	31942	
7857	0	31940	
7858	0	32024	
7859	0	32080	
7860	0	32118	
7861	0	32128	
7862	0	32138	
7863	0	32160	
7864	0	32176	
7865	0	32224	
7866	0	32280	
7867	0	32320	
7868	0	32320	
7869	0	32292	
7870	0	32268	
7871	0	32218	
7872	0	32218	
7873	0	32228	
7874	0	32220	
7875	0	32152	
7876	0	32092	
7877	0	32116	
7878	0	32132	
7879	0	32140	
7880	0	32176	
7881	0	32184	
7882	0	32180	
7883	0	32232	
7884	0	32266	
7885	0	32274	
7886	0	32248	
7887	0	32222	
7888	0	32202	
7889	0	32196	
7890	0	32230	
7891	0	32268	
7892	0	32248	
7893	0	32220	
7894	0	32242	
7895	0	32258	
7896	0	32288	
7897	0	32284	
7898	0	32266	
7899	0	32240	
7900	0	32232	
7901	0	32224	
7902	0	32236	
7903	0	32252	
7904	0	32324	
7905	0	32328	
7906	0	32316	
7907	0	32312	
7908	0	32296	
7909	0	32292	
7910	0	32312	
7911	0	32332	
7912	0	32336	
7913	0	32322	
7914	0	32368	
7915	0	32376	
7916	0	32380	
7917	0	32384	
7918	0	32416	
7919	0	32416	
7920	0	32484	
7921	0	32556	
7922	0	32576	
7923	0	32560	
7924	0	32596	
7925	0	32620	
7926	0	32608	
7927	0	32548	
7928	0	32512	
7929	0	32488	
7930	0	32428	
7931	0	32380	
7932	0	32348	
7933	0	32324	
7934	0	32276	
7935	0	32236	
7936	0	32224	
7937	0	32260	
7938	0	32296	
7939	0	32316	
7940	0	32320	
7941	0	32344	
7942	0	32380	
7943	0	32440	
7944	0	32504	
7945	0	32524	
7946	0	32496	
7947	0	32516	
7948	0	32552	
7949	0	32568	
7950	0	32584	
7951	0	32616	
7952	0	32652	
7953	0	32640	
7954	0	32604	
7955	0	32568	
7956	0	32560	
7957	0	32544	
7958	0	32488	
7959	0	32456	
7960	0	32496	
7961	0	32560	
7962	0	32564	
7963	0	32588	
7964	0	32640	
7965	0	32652	
7966	0	32640	
7967	0	32624	
7968	0	32656	
7969	0	32632	
7970	0	32592	
7971	0	32596	
7972	0	32610	
7973	0	32668	
7974	0	32644	
7975	0	32552	
7976	0	32524	
7977	0	32488	
7978	0	32458	
7979	0	32464	
7980	0	32504	
7981	0	32548	
7982	0	32520	
7983	0	32520	
7984	0	32544	
7985	0	32644	
7986	0	32800	
7987	0	32868	
7988	0	32922	
7989	0	32964	
7990	0	32996	
7991	0	33056	
7992	0	33048	
7993	0	33040	
7994	0	33024	
7995	0	33042	
7996	0	33064	
7997	0	33076	
7998	0	33084	
7999	0	33068	
8000	0	33056	
8001	0	33052	
8002	0	33052	
8003	0	33084	
8004	0	33060	
8005	0	33016	
8006	0	33000	
8007	0	33008	
8008	0	33004	
8009	0	33016	
8010	0	33032	
8011	0	33078	
8012	0	33170	
8013	0	33296	
8014	0	33420	
8015	0	33576	
8016	0	33740	
8017	0	33860	
8018	0	33936	
8019	0	33982	
8020	0	34042	
8021	0	34088	
8022	0	34148	
8023	0	34224	
8024	0	34280	
8025	0	34336	
8026	0	34428	
8027	0	34528	
8028	0	34576	
8029	0	34580	
8030	0	34586	
8031	0	34508	
8032	0	34408	
8033	0	34272	
8034	0	34112	
8035	0	34004	
8036	0	33852	
8037	0	33716	
8038	0	33586	
8039	0	33464	
8040	0	33388	
8041	0	33340	
8042	0	33320	
8043	0	33244	
8044	0	33214	
8045	0	33162	
8046	0	33100	
8047	0	33088	
8048	0	33120	
8049	0	33100	
8050	0	33080	
8051	0	33040	
8052	0	33004	
8053	0	32960	
8054	0	32928	
8055	0	32912	
8056	0	32932	
8057	0	32926	
8058	0	32912	
8059	0	32928	
8060	0	32926	
8061	0	32944	
8062	0	32924	
8063	0	32860	
8064	0	32832	
8065	0	32818	
8066	0	32768	
8067	0	32712	
8068	0	32642	
8069	0	32564	
8070	0	32516	
8071	0	32444	
8072	0	32384	
8073	0	32336	
8074	0	32304	
8075	0	32256	
8076	0	32188	
8077	0	32084	
8078	0	32052	
8079	0	32096	
8080	0	32154	
8081	0	32164	
8082	0	32180	
8083	0	32208	
8084	0	32264	
8085	0	32272	
8086	0	32296	
8087	0	32316	
8088	0	32312	
8089	0	32288	
8090	0	32272	
8091	0	32244	
8092	0	32256	
8093	0	32284	
8094	0	32332	
8095	0	32388	
8096	0	32452	
8097	0	32476	
8098	0	32420	
8099	0	32388	
8100	0	32400	
8101	0	32360	
8102	0	32356	
8103	0	32332	
8104	0	32280	
8105	0	32244	
8106	0	32232	
8107	0	32240	
8108	0	32236	
8109	0	32204	
8110	0	32176	
8111	0	32160	
8112	0	32136	
8113	0	32120	
8114	0	32122	
8115	0	32152	
8116	0	32196	
8117	0	32216	
8118	0	32228	
8119	0	32200	
8120	0	32148	
8121	0	32128	
8122	0	32100	
8123	0	32112	
8124	0	32116	
8125	0	32112	
8126	0	32132	
8127	0	32188	
8128	0	32224	
8129	0	32292	
8130	0	32352	
8131	0	32380	
8132	0	32408	
8133	0	32352	
8134	0	32244	
8135	0	32144	
8136	0	32086	
8137	0	32072	
8138	0	32128	
8139	0	32192	
8140	0	32256	
8141	0	32332	
8142	0	32372	
8143	0	32436	
8144	0	32516	
8145	0	32576	
8146	0	32606	
8147	0	32648	
8148	0	32672	
8149	0	32660	
8150	0	32616	
8151	0	32576	
8152	0	32448	
8153	0	32260	
8154	0	32100	
8155	0	31968	
8156	0	31880	
8157	0	31948	
8158	0	32128	
8159	0	32416	
8160	0	32756	
8161	0	33100	
8162	0	33440	
8163	0	33794	
8164	0	34136	
8165	0	34368	
8166	0	34584	
8167	0	34936	
8168	0	35440	
8169	0	36052	
8170	0	36804	
8171	0	37724	
8172	0	38812	
8173	0	40128	
8174	0	41568	
8175	0	43068	
8176	0	44512	
8177	0	45992	
8178	0	47580	
8179	0	49220	
8180	0	50784	
8181	0	52180	
8182	0	53428	
8183	0	54480	
8184	0	55564	
8185	0	56772	
8186	0	57896	
8187	0	58656	
8188	0	58676	
8189	0	57484	
8190	0	55044	
8191	0	51856	
8192	0	48184	
8193	0	44244	
8194	0	40368	
8195	0	36944	
8196	0	34248	
8197	0	32356	
8198	0	31108	
8199	0	30300	
8200	0	29840	
8201	0	29588	
8202	0	29452	
8203	0	29448	
8204	0	29504	
8205	0	29572	
8206	0	29656	
8207	0	29752	
8208	0	29868	
8209	0	29996	
8210	0	30152	
8211	0	30280	
8212	0	30372	
8213	0	30528	
8214	0	30740	
8215	0	30876	
8216	0	31000	
8217	0	31088	
8218	0	31168	
8219	0	31228	
8220	0	31272	
8221	0	31282	
8222	0	31236	
8223	0	31192	
8224	0	31102	
8225	0	31024	
8226	0	30996	
8227	0	30984	
8228	0	30912	
8229	0	30844	
8230	0	30840	
8231	0	30832	
8232	0	30816	
8233	0	30840	
8234	0	30848	
8235	0	30828	
8236	0	30828	
8237	0	30828	
8238	0	30848	
8239	0	30916	
8240	0	30996	
8241	0	30972	
8242	0	30856	
8243	0	30856	
8244	0	30920	
8245	0	31008	
8246	0	31044	
8247	0	31064	
8248	0	31068	
8249	0	31048	
8250	0	31072	
8251	0	31096	
8252	0	31086	
8253	0	31060	
8254	0	31068	
8255	0	31104	
8256	0	31184	
8257	0	31272	
8258	0	31348	
8259	0	31360	
8260	0	31320	
8261	0	31316	
8262	0	31304	
8263	0	31312	
8264	0	31256	
8265	0	31172	
8266	0	31140	
8267	0	31192	
8268	0	31266	
8269	0	31344	
8270	0	31432	
8271	0	31504	
8272	0	31576	
8273	0	31592	
8274	0	31604	
8275	0	31600	
8276	0	31608	
8277	0	31578	
8278	0	31536	
8279	0	31564	
8280	0	31592	
8281	0	31645	
8282	0	31732	
8283	0	31768	
8284	0	31772	
8285	0	31724	
8286	0	31706	
8287	0	31712	
8288	0	31740	
8289	0	31752	
8290	0	31740	
8291	0	31744	
8292	0	31816	
8293	0	31892	
8294	0	31956	
8295	0	32018	
8296	0	32104	
8297	0	32180	
8298	0	32256	
8299	0	32320	
8300	0	32352	
8301	0	32360	
8302	0	32352	
8303	0	32352	
8304	0	32360	
8305	0	32372	
8306	0	32384	
8307	0	32384	
8308	0	32380	
8309	0	32372	
8310	0	32404	
8311	0	32480	
8312	0	32572	
8313	0	32608	
8314	0	32616	
8315	0	32664	
8316	0	32692	
8317	0	32708	
8318	0	32772	
8319	0	32800	
8320	0	32841	
8321	0	32896	
8322	0	32924	
8323	0	32930	
8324	0	32928	
8325	0	32928	
8326	0	32904	
8327	0	32864	
8328	0	32860	
8329	0	32876	
8330	0	32840	
8331	0	32772	
8332	0	32752	
8333	0	32760	
8334	0	32794	
8335	0	32844	
8336	0	32896	
8337	0	32932	
8338	0	32940	
8339	0	32940	
8340	0	32904	
8341	0	32904	
8342	0	32976	
8343	0	33024	
8344	0	33036	
8345	0	33076	
8346	0	33128	
8347	0	33176	
8348	0	33192	
8349	0	33190	
8350	0	33224	
8351	0	33264	
8352	0	33280	
8353	0	33288	
8354	0	33252	
8355	0	33250	
8356	0	33260	
8357	0	33268	
8358	0	33240	
8359	0	33228	
8360	0	33240	
8361	0	33280	
8362	0	33348	
8363	0	33408	
8364	0	33460	
8365	0	33498	
8366	0	33464	
8367	0	33416	
8368	0	33428	
8369	0	33476	
8370	0	33548	
8371	0	33572	
8372	0	33624	
8373	0	33682	
8374	0	33712	
8375	0	33768	
8376	0	33808	
8377	0	33804	
8378	0	33784	
8379	0	33812	
8380	0	33812	
8381	0	33832	
8382	0	33820	
8383	0	33808	
8384	0	33818	
8385	0	33832	
8386	0	33824	
8387	0	33824	
8388	0	33816	
8389	0	33804	
8390	0	33776	
8391	0	33820	
8392	0	33920	
8393	0	34008	
8394	0	34060	
8395	0	34084	
8396	0	34088	
8397	0	34116	
8398	0	34192	
8399	0	34288	
8400	0	34328	
8401	0	34338	
8402	0	34352	
8403	0	34376	
8404	0	34452	
8405	0	34504	
8406	0	34580	
8407	0	34650	
8408	0	34666	
8409	0	34660	
8410	0	34676	
8411	0	34680	
8412	0	34668	
8413	0	34640	
8414	0	34592	
8415	0	34608	
8416	0	34596	
8417	0	34616	
8418	0	34636	
8419	0	34656	
8420	0	34688	
8421	0	34684	
8422	0	34728	
8423	0	34765	
8424	0	34752	
8425	0	34752	
8426	0	34784	
8427	0	34792	
8428	0	34792	
8429	0	34780	
8430	0	34780	
8431	0	34832	
8432	0	34864	
8433	0	34884	
8434	0	34908	
8435	0	34864	
8436	0	34800	
8437	0	34784	
8438	0	34800	
8439	0	34856	
8440	0	34928	
8441	0	34980	
8442	0	35024	
8443	0	35072	
8444	0	35104	
8445	0	35132	
8446	0	35168	
8447	0	35154	
8448	0	35112	
8449	0	35130	
8450	0	35136	
8451	0	35160	
8452	0	35168	
8453	0	35092	
8454	0	35008	
8455	0	34912	
8456	0	34780	
8457	0	34640	
8458	0	34568	
8459	0	34484	
8460	0	34396	
8461	0	34308	
8462	0	34202	
8463	0	34088	
8464	0	33932	
8465	0	33784	
8466	0	33656	
8467	0	33520	
8468	0	33344	
8469	0	33244	
8470	0	33152	
8471	0	33026	
8472	0	32896	
8473	0	32736	
8474	0	32568	
8475	0	32428	
8476	0	32364	
8477	0	32292	
8478	0	32224	
8479	0	32160	
8480	0	32096	
8481	0	32056	
8482	0	31972	
8483	0	31880	
8484	0	31808	
8485	0	31728	
8486	0	31668	
8487	0	31614	
8488	0	31516	
8489	0	31424	
8490	0	31372	
8491	0	31248	
8492	0	31096	
8493	0	30944	
8494	0	30812	
8495	0	30664	
8496	0	30516	
8497	0	30400	
8498	0	30328	
8499	0	30232	
8500	0	30144	
8501	0	30090	
8502	0	30076	
8503	0	30084	
8504	0	30080	
8505	0	30036	
8506	0	30016	
8507	0	30016	
8508	0	30028	
8509	0	30000	
8510	0	29978	
8511	0	29900	
8512	0	29856	
8513	0	29880	
8514	0	29868	
8515	0	29860	
8516	0	29848	
8517	0	29828	
8518	0	29852	
8519	0	29876	
8520	0	29880	
8521	0	29856	
8522	0	29812	
8523	0	29780	
8524	0	29782	
8525	0	29732	
8526	0	29748	
8527	0	29752	
8528	0	29746	
8529	0	29788	
8530	0	29850	
8531	0	29888	
8532	0	29884	
8533	0	29858	
8534	0	29824	
8535	0	29824	
8536	0	29856	
8537	0	29912	
8538	0	29944	
8539	0	29936	
8540	0	29976	
8541	0	30036	
8542	0	30132	
8543	0	30152	
8544	0	30148	
8545	0	30176	
8546	0	30232	
8547	0	30252	
8548	0	30252	
8549	0	30256	
8550	0	30296	
8551	0	30324	
8552	0	30324	
8553	0	30308	
8554	0	30284	
8555	0	30256	
8556	0	30220	
8557	0	30216	
8558	0	30256	
8559	0	30272	
8560	0	30284	
8561	0	30328	
8562	0	30384	
8563	0	30448	
8564	0	30446	
8565	0	30452	
8566	0	30458	
8567	0	30492	
8568	0	30532	
8569	0	30524	
8570	0	30532	
8571	0	30576	
8572	0	30616	
8573	0	30624	
8574	0	30656	
8575	0	30712	
8576	0	30780	
8577	0	30788	
8578	0	30774	
8579	0	30760	
8580	0	30768	
8581	0	30820	
8582	0	30862	
8583	0	30888	
8584	0	30916	
8585	0	30988	
8586	0	31056	
8587	0	31052	
8588	0	31024	
8589	0	31016	
8590	0	31080	
8591	0	31128	
