# OpenSignals Text File Format. Version 1
# {"00:07:80:4B:15:F7": {"position": 0, "device": "biosignalsplux", "device name": "00:07:80:4B:15:F7", "device connection": "BTH00:07:80:4B:15:F7", "sampling rate": 1000, "resolution": [16], "firmware version": 775, "comments": "", "keywords": "", "mode": 0, "sync interval": 2, "date": "2023-4-11", "time": "15:45:43.706", "channels": [1], "sensor": ["ECG"], "label": ["CH1"], "column": ["nSeq", "DI", "CH1"], "special": [{"SpO2": [80, 40, 5, 4, 3, 3]}, {"SpO2": [80, 40, 5, 4, 3, 3]}, {"SpO2": [80, 40, 5, 4, 3, 3]}, {"SpO2": [80, 40, 5, 4, 3, 3]}, {"SpO2": [80, 40, 5, 4, 3, 3]}, {"SpO2": [80, 40, 5, 4, 3, 3]}, {"SpO2": [80, 40, 5, 4, 3, 3]}, {"SpO2": [80, 40, 5, 4, 3, 3]}], "digital IO": [0, 1], "sleeve color": ["green"], "convertedValues": 0}}
# EndOfHeader
0	0	32338	
1	0	32288	
2	0	32208	
3	0	32168	
4	0	32168	
5	0	32164	
6	0	32128	
7	0	32084	
8	0	32072	
9	0	32082	
10	0	32096	
11	0	32144	
12	0	32216	
13	0	32232	
14	0	32290	
15	0	32332	
16	0	32356	
17	0	32372	
18	0	32368	
19	0	32368	
20	0	32346	
21	0	32368	
22	0	32416	
23	0	32432	
24	0	32444	
25	0	32444	
26	0	32422	
27	0	32384	
28	0	32352	
29	0	32344	
30	0	32402	
31	0	32464	
32	0	32484	
33	0	32494	
34	0	32480	
35	0	32460	
36	0	32424	
37	0	32388	
38	0	32378	
39	0	32396	
40	0	32468	
41	0	32512	
42	0	32504	
43	0	32512	
44	0	32488	
45	0	32520	
46	0	32560	
47	0	32584	
48	0	32576	
49	0	32528	
50	0	32504	
51	0	32528	
52	0	32580	
53	0	32628	
54	0	32652	
55	0	32660	
56	0	32652	
57	0	32664	
58	0	32642	
59	0	32616	
60	0	32576	
61	0	32532	
62	0	32544	
63	0	32552	
64	0	32580	
65	0	32568	
66	0	32584	
67	0	32644	
68	0	32664	
69	0	32680	
70	0	32666	
71	0	32640	
72	0	32640	
73	0	32672	
74	0	32672	
75	0	32676	
76	0	32700	
77	0	32736	
78	0	32792	
79	0	32832	
80	0	32884	
81	0	32904	
82	0	32922	
83	0	32936	
84	0	32932	
85	0	32954	
86	0	32964	
87	0	32922	
88	0	32832	
89	0	32766	
90	0	32752	
91	0	32724	
92	0	32696	
93	0	32688	
94	0	32744	
95	0	32800	
96	0	32818	
97	0	32820	
98	0	32844	
99	0	32876	
100	0	32928	
101	0	32996	
102	0	33050	
103	0	33064	
104	0	33048	
105	0	33008	
106	0	33012	
107	0	33040	
108	0	33064	
109	0	33100	
110	0	33128	
111	0	33166	
112	0	33134	
113	0	33080	
114	0	33000	
115	0	32952	
116	0	32932	
117	0	32944	
118	0	32952	
119	0	32972	
120	0	33004	
121	0	33052	
122	0	33056	
123	0	32980	
124	0	32928	
125	0	32908	
126	0	32960	
127	0	33048	
128	0	33140	
129	0	33252	
130	0	33316	
131	0	33380	
132	0	33460	
133	0	33570	
134	0	33704	
135	0	33808	
136	0	33936	
137	0	34068	
138	0	34156	
139	0	34172	
140	0	34172	
141	0	34268	
142	0	34392	
143	0	34488	
144	0	34592	
145	0	34628	
146	0	34660	
147	0	34624	
148	0	34508	
149	0	34378	
150	0	34266	
151	0	34172	
152	0	34096	
153	0	34016	
154	0	33924	
155	0	33836	
156	0	33748	
157	0	33660	
158	0	33600	
159	0	33504	
160	0	33408	
161	0	33364	
162	0	33320	
163	0	33264	
164	0	33236	
165	0	33252	
166	0	33244	
167	0	33232	
168	0	33180	
169	0	33112	
170	0	33012	
171	0	33020	
172	0	33040	
173	0	33064	
174	0	33088	
175	0	33128	
176	0	33144	
177	0	33180	
178	0	33196	
179	0	33168	
180	0	33128	
181	0	33056	
182	0	33000	
183	0	32978	
184	0	32940	
185	0	32900	
186	0	32836	
187	0	32776	
188	0	32736	
189	0	32724	
190	0	32744	
191	0	32708	
192	0	32624	
193	0	32512	
194	0	32464	
195	0	32444	
196	0	32436	
197	0	32404	
198	0	32424	
199	0	32432	
200	0	32420	
201	0	32452	
202	0	32472	
203	0	32484	
204	0	32484	
205	0	32530	
206	0	32536	
207	0	32492	
208	0	32448	
209	0	32452	
210	0	32464	
211	0	32508	
212	0	32540	
213	0	32532	
214	0	32532	
215	0	32528	
216	0	32544	
217	0	32552	
218	0	32532	
219	0	32500	
220	0	32508	
221	0	32560	
222	0	32572	
223	0	32598	
224	0	32652	
225	0	32680	
226	0	32704	
227	0	32712	
228	0	32716	
229	0	32720	
230	0	32720	
231	0	32712	
232	0	32682	
233	0	32700	
234	0	32712	
235	0	32752	
236	0	32772	
237	0	32752	
238	0	32720	
239	0	32696	
240	0	32688	
241	0	32688	
242	0	32696	
243	0	32720	
244	0	32712	
245	0	32674	
246	0	32680	
247	0	32666	
248	0	32644	
249	0	32644	
250	0	32632	
251	0	32648	
252	0	32712	
253	0	32776	
254	0	32800	
255	0	32856	
256	0	32872	
257	0	32820	
258	0	32788	
259	0	32792	
260	0	32788	
261	0	32812	
262	0	32856	
263	0	32884	
264	0	32888	
265	0	32864	
266	0	32864	
267	0	32840	
268	0	32764	
269	0	32664	
270	0	32536	
271	0	32424	
272	0	32376	
273	0	32500	
274	0	32780	
275	0	33056	
276	0	33376	
277	0	33792	
278	0	34192	
279	0	34608	
280	0	35020	
281	0	35316	
282	0	35572	
283	0	35876	
284	0	36384	
285	0	37024	
286	0	37784	
287	0	38690	
288	0	39764	
289	0	41024	
290	0	42392	
291	0	43864	
292	0	45376	
293	0	46948	
294	0	48520	
295	0	50036	
296	0	51400	
297	0	52576	
298	0	53616	
299	0	54548	
300	0	55568	
301	0	56700	
302	0	57656	
303	0	58264	
304	0	58104	
305	0	56704	
306	0	54176	
307	0	50952	
308	0	47304	
309	0	43440	
310	0	39800	
311	0	36640	
312	0	34170	
313	0	32474	
314	0	31356	
315	0	30748	
316	0	30476	
317	0	30336	
318	0	30222	
319	0	30176	
320	0	30168	
321	0	30180	
322	0	30170	
323	0	30192	
324	0	30216	
325	0	30216	
326	0	30244	
327	0	30272	
328	0	30424	
329	0	30624	
330	0	30824	
331	0	30988	
332	0	31092	
333	0	31160	
334	0	31236	
335	0	31270	
336	0	31304	
337	0	31344	
338	0	31356	
339	0	31276	
340	0	31144	
341	0	31040	
342	0	31012	
343	0	31002	
344	0	30964	
345	0	30948	
346	0	30936	
347	0	30906	
348	0	30924	
349	0	30892	
350	0	30834	
351	0	30792	
352	0	30768	
353	0	30736	
354	0	30658	
355	0	30592	
356	0	30576	
357	0	30584	
358	0	30600	
359	0	30644	
360	0	30688	
361	0	30768	
362	0	30846	
363	0	30920	
364	0	30966	
365	0	30996	
366	0	31008	
367	0	31000	
368	0	31008	
369	0	31036	
370	0	31072	
371	0	31060	
372	0	31064	
373	0	31092	
374	0	31140	
375	0	31152	
376	0	31124	
377	0	31112	
378	0	31096	
379	0	31104	
380	0	31140	
381	0	31208	
382	0	31236	
383	0	31240	
384	0	31220	
385	0	31184	
386	0	31148	
387	0	31146	
388	0	31200	
389	0	31268	
390	0	31314	
391	0	31337	
392	0	31388	
393	0	31416	
394	0	31436	
395	0	31460	
396	0	31512	
397	0	31596	
398	0	31692	
399	0	31806	
400	0	31864	
401	0	31904	
402	0	31916	
403	0	31912	
404	0	31928	
405	0	31952	
406	0	31936	
407	0	31932	
408	0	31940	
409	0	31924	
410	0	31888	
411	0	31884	
412	0	31920	
413	0	31944	
414	0	31952	
415	0	31984	
416	0	32026	
417	0	32044	
418	0	32096	
419	0	32152	
420	0	32200	
421	0	32244	
422	0	32284	
423	0	32344	
424	0	32400	
425	0	32432	
426	0	32488	
427	0	32520	
428	0	32460	
429	0	32448	
430	0	32492	
431	0	32552	
432	0	32608	
433	0	32640	
434	0	32640	
435	0	32644	
436	0	32656	
437	0	32648	
438	0	32604	
439	0	32528	
440	0	32508	
441	0	32544	
442	0	32584	
443	0	32624	
444	0	32648	
445	0	32650	
446	0	32684	
447	0	32740	
448	0	32760	
449	0	32780	
450	0	32840	
451	0	32876	
452	0	32904	
453	0	32956	
454	0	32960	
455	0	32928	
456	0	32920	
457	0	32952	
458	0	33000	
459	0	33050	
460	0	33112	
461	0	33168	
462	0	33192	
463	0	33172	
464	0	33116	
465	0	33076	
466	0	33064	
467	0	33070	
468	0	33120	
469	0	33152	
470	0	33168	
471	0	33180	
472	0	33220	
473	0	33268	
474	0	33332	
475	0	33352	
476	0	33408	
477	0	33448	
478	0	33500	
479	0	33504	
480	0	33496	
481	0	33496	
482	0	33504	
483	0	33556	
484	0	33608	
485	0	33640	
486	0	33660	
487	0	33680	
488	0	33704	
489	0	33716	
490	0	33714	
491	0	33728	
492	0	33760	
493	0	33776	
494	0	33792	
495	0	33812	
496	0	33792	
497	0	33768	
498	0	33764	
499	0	33752	
500	0	33760	
501	0	33824	
502	0	33884	
503	0	33948	
504	0	34004	
505	0	34012	
506	0	34064	
507	0	34140	
508	0	34186	
509	0	34196	
510	0	34196	
511	0	34192	
512	0	34192	
513	0	34200	
514	0	34224	
515	0	34232	
516	0	34250	
517	0	34280	
518	0	34272	
519	0	34284	
520	0	34280	
521	0	34264	
522	0	34250	
523	0	34272	
524	0	34306	
525	0	34320	
526	0	34344	
527	0	34352	
528	0	34404	
529	0	34456	
530	0	34484	
531	0	34516	
532	0	34520	
533	0	34520	
534	0	34496	
535	0	34528	
536	0	34528	
537	0	34522	
538	0	34528	
539	0	34544	
540	0	34572	
541	0	34624	
542	0	34688	
543	0	34688	
544	0	34684	
545	0	34712	
546	0	34752	
547	0	34796	
548	0	34812	
549	0	34858	
550	0	34912	
551	0	34944	
552	0	34928	
553	0	34908	
554	0	34848	
555	0	34776	
556	0	34744	
557	0	34778	
558	0	34840	
559	0	34896	
560	0	34944	
561	0	35006	
562	0	35000	
563	0	34984	
564	0	34976	
565	0	34954	
566	0	34980	
567	0	35052	
568	0	35080	
569	0	35062	
570	0	35048	
571	0	34996	
572	0	34932	
573	0	34920	
574	0	34912	
575	0	34896	
576	0	34808	
577	0	34724	
578	0	34656	
579	0	34588	
580	0	34448	
581	0	34296	
582	0	34104	
583	0	33912	
584	0	33772	
585	0	33680	
586	0	33604	
587	0	33544	
588	0	33496	
589	0	33432	
590	0	33320	
591	0	33216	
592	0	33116	
593	0	32964	
594	0	32804	
595	0	32660	
596	0	32496	
597	0	32352	
598	0	32236	
599	0	32108	
600	0	32008	
601	0	31912	
602	0	31808	
603	0	31716	
604	0	31644	
605	0	31540	
606	0	31448	
607	0	31356	
608	0	31296	
609	0	31218	
610	0	31108	
611	0	31020	
612	0	30934	
613	0	30856	
614	0	30776	
615	0	30752	
616	0	30744	
617	0	30676	
618	0	30552	
619	0	30434	
620	0	30308	
621	0	30164	
622	0	30060	
623	0	30028	
624	0	29976	
625	0	29880	
626	0	29840	
627	0	29800	
628	0	29796	
629	0	29812	
630	0	29828	
631	0	29828	
632	0	29868	
633	0	29880	
634	0	29884	
635	0	29876	
636	0	29928	
637	0	29952	
638	0	29960	
639	0	29988	
640	0	29988	
641	0	29964	
642	0	30006	
643	0	30060	
644	0	30086	
645	0	30126	
646	0	30176	
647	0	30192	
648	0	30176	
649	0	30152	
650	0	30128	
651	0	30096	
652	0	30072	
653	0	30058	
654	0	30040	
655	0	30032	
656	0	30052	
657	0	30096	
658	0	30160	
659	0	30176	
660	0	30144	
661	0	30124	
662	0	30120	
663	0	30128	
664	0	30156	
665	0	30192	
666	0	30188	
667	0	30152	
668	0	30160	
669	0	30184	
670	0	30240	
671	0	30304	
672	0	30336	
673	0	30360	
674	0	30372	
675	0	30388	
676	0	30420	
677	0	30432	
678	0	30344	
679	0	30264	
680	0	30256	
681	0	30232	
682	0	30276	
683	0	30368	
684	0	30432	
685	0	30480	
686	0	30518	
687	0	30552	
688	0	30568	
689	0	30588	
690	0	30616	
691	0	30634	
692	0	30690	
693	0	30728	
694	0	30746	
695	0	30744	
696	0	30744	
697	0	30752	
698	0	30704	
699	0	30686	
700	0	30644	
701	0	30616	
702	0	30600	
703	0	30632	
704	0	30680	
705	0	30700	
706	0	30732	
707	0	30744	
708	0	30746	
709	0	30764	
710	0	30788	
711	0	30832	
712	0	30876	
713	0	30928	
714	0	31000	
715	0	31028	
716	0	31078	
717	0	31124	
718	0	31140	
719	0	31136	
720	0	31124	
721	0	31096	
722	0	31116	
723	0	31156	
724	0	31184	
725	0	31236	
726	0	31228	
727	0	31208	
728	0	31164	
729	0	31084	
730	0	31088	
731	0	31112	
732	0	31160	
733	0	31180	
734	0	31184	
735	0	31176	
736	0	31136	
737	0	31088	
738	0	31082	
739	0	31108	
740	0	31160	
741	0	31204	
742	0	31276	
743	0	31324	
744	0	31340	
745	0	31292	
746	0	31220	
747	0	31140	
748	0	31116	
749	0	31120	
750	0	31156	
751	0	31208	
752	0	31276	
753	0	31308	
754	0	31320	
755	0	31352	
756	0	31368	
757	0	31380	
758	0	31352	
759	0	31306	
760	0	31284	
761	0	31276	
762	0	31258	
763	0	31288	
764	0	31340	
765	0	31396	
766	0	31420	
767	0	31440	
768	0	31472	
769	0	31472	
770	0	31448	
771	0	31432	
772	0	31416	
773	0	31448	
774	0	31468	
775	0	31452	
776	0	31440	
777	0	31480	
778	0	31484	
779	0	31512	
780	0	31588	
781	0	31676	
782	0	31728	
783	0	31740	
784	0	31724	
785	0	31712	
786	0	31704	
787	0	31702	
788	0	31656	
789	0	31620	
790	0	31596	
791	0	31580	
792	0	31572	
793	0	31576	
794	0	31568	
795	0	31556	
796	0	31536	
797	0	31568	
798	0	31585	
799	0	31596	
800	0	31572	
801	0	31536	
802	0	31512	
803	0	31480	
804	0	31452	
805	0	31408	
806	0	31368	
807	0	31428	
808	0	31542	
809	0	31612	
810	0	31656	
811	0	31712	
812	0	31720	
813	0	31720	
814	0	31744	
815	0	31744	
816	0	31756	
817	0	31810	
818	0	31816	
819	0	31776	
820	0	31724	
821	0	31724	
822	0	31724	
823	0	31706	
824	0	31728	
825	0	31764	
826	0	31756	
827	0	31724	
828	0	31728	
829	0	31728	
830	0	31760	
831	0	31784	
832	0	31828	
833	0	31816	
834	0	31750	
835	0	31720	
836	0	31712	
837	0	31756	
838	0	31824	
839	0	31808	
840	0	31760	
841	0	31736	
842	0	31716	
843	0	31656	
844	0	31644	
845	0	31628	
846	0	31632	
847	0	31636	
848	0	31660	
849	0	31728	
850	0	31728	
851	0	31668	
852	0	31672	
853	0	31672	
854	0	31680	
855	0	31680	
856	0	31700	
857	0	31776	
858	0	31836	
859	0	31876	
860	0	31876	
861	0	31872	
862	0	31888	
863	0	31834	
864	0	31776	
865	0	31720	
866	0	31644	
867	0	31600	
868	0	31584	
869	0	31620	
870	0	31640	
871	0	31696	
872	0	31768	
873	0	31848	
874	0	31868	
875	0	31920	
876	0	31916	
877	0	31920	
878	0	31920	
879	0	31916	
880	0	31916	
881	0	31920	
882	0	31882	
883	0	31850	
884	0	31876	
885	0	31906	
886	0	31936	
887	0	31964	
888	0	31984	
889	0	31996	
890	0	31996	
891	0	32036	
892	0	32056	
893	0	32060	
894	0	32076	
895	0	32124	
896	0	32134	
897	0	32136	
898	0	32144	
899	0	32104	
900	0	32088	
901	0	32072	
902	0	32140	
903	0	32184	
904	0	32188	
905	0	32152	
906	0	32098	
907	0	32058	
908	0	32060	
909	0	32072	
910	0	32084	
911	0	32128	
912	0	32144	
913	0	32140	
914	0	32156	
915	0	32196	
916	0	32232	
917	0	32284	
918	0	32304	
919	0	32344	
920	0	32392	
921	0	32440	
922	0	32488	
923	0	32512	
924	0	32520	
925	0	32516	
926	0	32468	
927	0	32414	
928	0	32356	
929	0	32322	
930	0	32304	
931	0	32304	
932	0	32328	
933	0	32344	
934	0	32372	
935	0	32436	
936	0	32482	
937	0	32466	
938	0	32492	
939	0	32564	
940	0	32652	
941	0	32768	
942	0	32864	
943	0	32904	
944	0	32896	
945	0	32930	
946	0	33000	
947	0	33048	
948	0	32984	
949	0	32920	
950	0	32876	
951	0	32848	
952	0	32836	
953	0	32804	
954	0	32800	
955	0	32808	
956	0	32768	
957	0	32680	
958	0	32676	
959	0	32772	
960	0	32900	
961	0	33028	
962	0	33132	
963	0	33192	
964	0	33224	
965	0	33228	
966	0	33264	
967	0	33292	
968	0	33328	
969	0	33432	
970	0	33600	
971	0	33712	
972	0	33812	
973	0	33916	
974	0	34016	
975	0	34084	
976	0	34164	
977	0	34188	
978	0	34184	
979	0	34200	
980	0	34236	
981	0	34216	
982	0	34108	
983	0	33962	
984	0	33848	
985	0	33776	
986	0	33728	
987	0	33668	
988	0	33585	
989	0	33516	
990	0	33464	
991	0	33376	
992	0	33296	
993	0	33188	
994	0	33116	
995	0	33052	
996	0	32968	
997	0	32920	
998	0	32920	
999	0	32912	
1000	0	32888	
1001	0	32864	
1002	0	32912	
1003	0	32944	
1004	0	32944	
1005	0	32902	
1006	0	32884	
1007	0	32888	
1008	0	32880	
1009	0	32912	
1010	0	32984	
1011	0	33020	
1012	0	32992	
1013	0	32948	
1014	0	32916	
1015	0	32860	
1016	0	32808	
1017	0	32784	
1018	0	32800	
1019	0	32764	
1020	0	32712	
1021	0	32632	
1022	0	32536	
1023	0	32456	
1024	0	32368	
1025	0	32296	
1026	0	32220	
1027	0	32172	
1028	0	32172	
1029	0	32192	
1030	0	32248	
1031	0	32272	
1032	0	32328	
1033	0	32336	
1034	0	32334	
1035	0	32320	
1036	0	32304	
1037	0	32280	
1038	0	32288	
1039	0	32284	
1040	0	32296	
1041	0	32308	
1042	0	32324	
1043	0	32292	
1044	0	32274	
1045	0	32304	
1046	0	32336	
1047	0	32384	
1048	0	32388	
1049	0	32388	
1050	0	32416	
1051	0	32476	
1052	0	32508	
1053	0	32512	
1054	0	32512	
1055	0	32556	
1056	0	32606	
1057	0	32616	
1058	0	32676	
1059	0	32712	
1060	0	32716	
1061	0	32684	
1062	0	32624	
1063	0	32576	
1064	0	32476	
1065	0	32412	
1066	0	32420	
1067	0	32460	
1068	0	32464	
1069	0	32456	
1070	0	32472	
1071	0	32500	
1072	0	32496	
1073	0	32500	
1074	0	32544	
1075	0	32584	
1076	0	32616	
1077	0	32580	
1078	0	32528	
1079	0	32492	
1080	0	32496	
1081	0	32480	
1082	0	32456	
1083	0	32412	
1084	0	32396	
1085	0	32404	
1086	0	32404	
1087	0	32458	
1088	0	32512	
1089	0	32544	
1090	0	32572	
1091	0	32576	
1092	0	32588	
1093	0	32604	
1094	0	32640	
1095	0	32720	
1096	0	32756	
1097	0	32728	
1098	0	32712	
1099	0	32668	
1100	0	32616	
1101	0	32576	
1102	0	32492	
1103	0	32408	
1104	0	32312	
1105	0	32180	
1106	0	32072	
1107	0	32116	
1108	0	32352	
1109	0	32718	
1110	0	33092	
1111	0	33524	
1112	0	33920	
1113	0	34248	
1114	0	34464	
1115	0	34568	
1116	0	34820	
1117	0	35184	
1118	0	35748	
1119	0	36532	
1120	0	37448	
1121	0	38464	
1122	0	39608	
1123	0	40944	
1124	0	42468	
1125	0	44112	
1126	0	45816	
1127	0	47552	
1128	0	49332	
1129	0	51220	
1130	0	52928	
1131	0	54488	
1132	0	55808	
1133	0	56988	
1134	0	58136	
1135	0	59328	
1136	0	60384	
1137	0	61024	
1138	0	60932	
1139	0	59748	
1140	0	57352	
1141	0	54040	
1142	0	50112	
1143	0	45848	
1144	0	41700	
1145	0	38004	
1146	0	34972	
1147	0	32772	
1148	0	31284	
1149	0	30296	
1150	0	29656	
1151	0	29270	
1152	0	29016	
1153	0	28866	
1154	0	28872	
1155	0	29044	
1156	0	29280	
1157	0	29508	
1158	0	29652	
1159	0	29756	
1160	0	29898	
1161	0	30012	
1162	0	30128	
1163	0	30296	
1164	0	30496	
1165	0	30720	
1166	0	30890	
1167	0	30984	
1168	0	31024	
1169	0	31076	
1170	0	31160	
1171	0	31208	
1172	0	31240	
1173	0	31208	
1174	0	31196	
1175	0	31188	
1176	0	31176	
1177	0	31112	
1178	0	31040	
1179	0	30952	
1180	0	30920	
1181	0	30940	
1182	0	30944	
1183	0	30944	
1184	0	30956	
1185	0	30976	
1186	0	30976	
1187	0	30968	
1188	0	30956	
1189	0	30944	
1190	0	30946	
1191	0	30992	
1192	0	31040	
1193	0	31080	
1194	0	31074	
1195	0	31100	
1196	0	31140	
1197	0	31132	
1198	0	31120	
1199	0	31100	
1200	0	31057	
1201	0	31008	
1202	0	30988	
1203	0	31016	
1204	0	31060	
1205	0	31130	
1206	0	31168	
1207	0	31144	
1208	0	31148	
1209	0	31208	
1210	0	31256	
1211	0	31244	
1212	0	31240	
1213	0	31256	
1214	0	31260	
1215	0	31308	
1216	0	31364	
1217	0	31432	
1218	0	31472	
1219	0	31496	
1220	0	31548	
1221	0	31586	
1222	0	31632	
1223	0	31696	
1224	0	31736	
1225	0	31712	
1226	0	31684	
1227	0	31732	
1228	0	31752	
1229	0	31776	
1230	0	31808	
1231	0	31836	
1232	0	31880	
1233	0	31896	
1234	0	31952	
1235	0	31984	
1236	0	32012	
1237	0	31996	
1238	0	31952	
1239	0	31926	
1240	0	31920	
1241	0	31952	
1242	0	32000	
1243	0	32056	
1244	0	32064	
1245	0	32064	
1246	0	32048	
1247	0	32080	
1248	0	32140	
1249	0	32196	
1250	0	32288	
1251	0	32304	
1252	0	32336	
1253	0	32352	
1254	0	32372	
1255	0	32376	
1256	0	32384	
1257	0	32428	
1258	0	32504	
1259	0	32564	
1260	0	32612	
1261	0	32632	
1262	0	32664	
1263	0	32672	
1264	0	32704	
1265	0	32716	
1266	0	32728	
1267	0	32744	
1268	0	32764	
1269	0	32736	
1270	0	32756	
1271	0	32756	
1272	0	32748	
1273	0	32776	
1274	0	32832	
1275	0	32832	
1276	0	32836	
1277	0	32896	
1278	0	32948	
1279	0	32984	
1280	0	32992	
1281	0	33016	
1282	0	33010	
1283	0	33028	
1284	0	33102	
1285	0	33196	
1286	0	33272	
1287	0	33312	
1288	0	33340	
1289	0	33392	
1290	0	33392	
1291	0	33324	
1292	0	33256	
1293	0	33216	
1294	0	33220	
1295	0	33244	
1296	0	33236	
1297	0	33244	
1298	0	33224	
1299	0	33200	
1300	0	33200	
1301	0	33146	
1302	0	33128	
1303	0	33128	
1304	0	33128	
1305	0	33196	
1306	0	33252	
1307	0	33280	
1308	0	33304	
1309	0	33348	
1310	0	33392	
1311	0	33436	
1312	0	33488	
1313	0	33564	
1314	0	33626	
1315	0	33664	
1316	0	33664	
1317	0	33676	
1318	0	33648	
1319	0	33634	
1320	0	33672	
1321	0	33728	
1322	0	33732	
1323	0	33768	
1324	0	33800	
1325	0	33800	
1326	0	33776	
1327	0	33772	
1328	0	33844	
1329	0	33928	
1330	0	33992	
1331	0	34044	
1332	0	34116	
1333	0	34200	
1334	0	34272	
1335	0	34296	
1336	0	34264	
1337	0	34248	
1338	0	34304	
1339	0	34340	
1340	0	34368	
1341	0	34384	
1342	0	34432	
1343	0	34492	
1344	0	34544	
1345	0	34564	
1346	0	34568	
1347	0	34584	
1348	0	34616	
1349	0	34644	
1350	0	34624	
1351	0	34592	
1352	0	34612	
1353	0	34656	
1354	0	34640	
1355	0	34560	
1356	0	34540	
1357	0	34632	
1358	0	34712	
1359	0	34788	
1360	0	34832	
1361	0	34884	
1362	0	34940	
1363	0	34968	
1364	0	35016	
1365	0	35060	
1366	0	35064	
1367	0	35056	
1368	0	35040	
1369	0	35036	
1370	0	35000	
1371	0	35024	
1372	0	35104	
1373	0	35168	
1374	0	35192	
1375	0	35156	
1376	0	35144	
1377	0	35168	
1378	0	35188	
1379	0	35256	
1380	0	35302	
1381	0	35320	
1382	0	35376	
1383	0	35416	
1384	0	35448	
1385	0	35488	
1386	0	35520	
1387	0	35512	
1388	0	35480	
1389	0	35440	
1390	0	35424	
1391	0	35472	
1392	0	35500	
1393	0	35480	
1394	0	35460	
1395	0	35480	
1396	0	35464	
1397	0	35404	
1398	0	35334	
1399	0	35304	
1400	0	35296	
1401	0	35276	
1402	0	35300	
1403	0	35280	
1404	0	35252	
1405	0	35184	
1406	0	35116	
1407	0	35032	
1408	0	34976	
1409	0	34880	
1410	0	34792	
1411	0	34676	
1412	0	34564	
1413	0	34456	
1414	0	34344	
1415	0	34328	
1416	0	34296	
1417	0	34232	
1418	0	34160	
1419	0	34064	
1420	0	33960	
1421	0	33816	
1422	0	33600	
1423	0	33386	
1424	0	33200	
1425	0	33036	
1426	0	32884	
1427	0	32752	
1428	0	32624	
1429	0	32504	
1430	0	32364	
1431	0	32204	
1432	0	32036	
1433	0	31940	
1434	0	31844	
1435	0	31736	
1436	0	31624	
1437	0	31532	
1438	0	31440	
1439	0	31340	
1440	0	31220	
1441	0	31120	
1442	0	31066	
1443	0	31008	
1444	0	30960	
1445	0	30928	
1446	0	30856	
1447	0	30752	
1448	0	30616	
1449	0	30436	
1450	0	30308	
1451	0	30274	
1452	0	30248	
1453	0	30240	
1454	0	30204	
1455	0	30144	
1456	0	30132	
1457	0	30104	
1458	0	30040	
1459	0	29984	
1460	0	29920	
1461	0	29856	
1462	0	29832	
1463	0	29804	
1464	0	29816	
1465	0	29788	
1466	0	29772	
1467	0	29760	
1468	0	29756	
1469	0	29794	
1470	0	29812	
1471	0	29804	
1472	0	29824	
1473	0	29784	
1474	0	29754	
1475	0	29720	
1476	0	29736	
1477	0	29740	
1478	0	29740	
1479	0	29752	
1480	0	29728	
1481	0	29728	
1482	0	29700	
1483	0	29692	
1484	0	29720	
1485	0	29736	
1486	0	29748	
1487	0	29832	
1488	0	29944	
1489	0	30016	
1490	0	30044	
1491	0	29996	
1492	0	29964	
1493	0	29936	
1494	0	29944	
1495	0	29976	
1496	0	30000	
1497	0	30032	
1498	0	30060	
1499	0	30090	
1500	0	30136	
1501	0	30176	
1502	0	30248	
1503	0	30300	
1504	0	30352	
1505	0	30376	
1506	0	30376	
1507	0	30380	
1508	0	30376	
1509	0	30314	
1510	0	30292	
1511	0	30348	
1512	0	30384	
1513	0	30396	
1514	0	30432	
1515	0	30450	
1516	0	30464	
1517	0	30456	
1518	0	30456	
1519	0	30476	
1520	0	30540	
1521	0	30560	
1522	0	30512	
1523	0	30552	
1524	0	30612	
1525	0	30642	
1526	0	30648	
1527	0	30592	
1528	0	30552	
1529	0	30510	
1530	0	30524	
1531	0	30608	
1532	0	30696	
1533	0	30768	
1534	0	30804	
1535	0	30836	
1536	0	30876	
1537	0	30914	
1538	0	30936	
1539	0	30908	
1540	0	30940	
1541	0	30968	
1542	0	30992	
1543	0	31020	
1544	0	31048	
1545	0	31128	
1546	0	31200	
1547	0	31224	
1548	0	31260	
1549	0	31276	
1550	0	31316	
1551	0	31330	
1552	0	31348	
1553	0	31360	
1554	0	31420	
1555	0	31454	
1556	0	31482	
1557	0	31464	
1558	0	31466	
1559	0	31480	
1560	0	31482	
1561	0	31532	
1562	0	31572	
1563	0	31628	
1564	0	31656	
1565	0	31640	
1566	0	31628	
1567	0	31650	
1568	0	31692	
1569	0	31712	
1570	0	31720	
1571	0	31712	
1572	0	31724	
1573	0	31760	
1574	0	31756	
1575	0	31712	
1576	0	31708	
1577	0	31716	
1578	0	31744	
1579	0	31768	
1580	0	31768	
1581	0	31824	
1582	0	31832	
1583	0	31808	
1584	0	31768	
1585	0	31748	
1586	0	31736	
1587	0	31712	
1588	0	31744	
1589	0	31780	
1590	0	31820	
1591	0	31860	
1592	0	31856	
1593	0	31864	
1594	0	31872	
1595	0	31905	
1596	0	31948	
1597	0	31940	
1598	0	31936	
1599	0	31928	
1600	0	31936	
1601	0	31936	
1602	0	31944	
1603	0	31920	
1604	0	31840	
1605	0	31776	
1606	0	31756	
1607	0	31748	
1608	0	31768	
1609	0	31808	
1610	0	31836	
1611	0	31824	
1612	0	31808	
1613	0	31752	
1614	0	31716	
1615	0	31656	
1616	0	31616	
1617	0	31640	
1618	0	31656	
1619	0	31656	
1620	0	31648	
1621	0	31612	
1622	0	31600	
1623	0	31632	
1624	0	31672	
1625	0	31704	
1626	0	31754	
1627	0	31760	
1628	0	31776	
1629	0	31792	
1630	0	31754	
1631	0	31728	
1632	0	31737	
1633	0	31740	
1634	0	31772	
1635	0	31822	
1636	0	31876	
1637	0	31912	
1638	0	31932	
1639	0	31928	
1640	0	31944	
1641	0	31980	
1642	0	31972	
1643	0	31976	
1644	0	31946	
1645	0	31904	
1646	0	31888	
1647	0	31912	
1648	0	31968	
1649	0	31988	
1650	0	31988	
1651	0	31948	
1652	0	31944	
1653	0	31952	
1654	0	31962	
1655	0	31936	
1656	0	31896	
1657	0	31932	
1658	0	31964	
1659	0	31996	
1660	0	32028	
1661	0	32020	
1662	0	32044	
1663	0	32048	
1664	0	32032	
1665	0	32012	
1666	0	31986	
1667	0	31920	
1668	0	31840	
1669	0	31804	
1670	0	31814	
1671	0	31864	
1672	0	31964	
1673	0	32110	
1674	0	32176	
1675	0	32152	
1676	0	32172	
1677	0	32172	
1678	0	32168	
1679	0	32192	
1680	0	32232	
1681	0	32260	
1682	0	32232	
1683	0	32228	
1684	0	32232	
1685	0	32200	
1686	0	32216	
1687	0	32248	
1688	0	32276	
1689	0	32274	
1690	0	32264	
1691	0	32236	
1692	0	32252	
1693	0	32272	
1694	0	32276	
1695	0	32312	
1696	0	32340	
1697	0	32320	
1698	0	32276	
1699	0	32236	
1700	0	32240	
1701	0	32272	
1702	0	32288	
1703	0	32296	
1704	0	32324	
1705	0	32352	
1706	0	32392	
1707	0	32444	
1708	0	32516	
1709	0	32572	
1710	0	32592	
1711	0	32554	
1712	0	32528	
1713	0	32542	
1714	0	32544	
1715	0	32552	
1716	0	32576	
1717	0	32528	
1718	0	32504	
1719	0	32492	
1720	0	32480	
1721	0	32458	
1722	0	32410	
1723	0	32356	
1724	0	32252	
1725	0	32240	
1726	0	32260	
1727	0	32292	
1728	0	32320	
1729	0	32392	
1730	0	32420	
1731	0	32404	
1732	0	32356	
1733	0	32340	
1734	0	32340	
1735	0	32332	
1736	0	32380	
1737	0	32420	
1738	0	32432	
1739	0	32428	
1740	0	32480	
1741	0	32528	
1742	0	32564	
1743	0	32596	
1744	0	32660	
1745	0	32752	
1746	0	32824	
1747	0	32828	
1748	0	32812	
1749	0	32800	
1750	0	32794	
1751	0	32756	
1752	0	32752	
1753	0	32768	
1754	0	32756	
1755	0	32724	
1756	0	32736	
1757	0	32750	
1758	0	32720	
1759	0	32676	
1760	0	32656	
1761	0	32644	
1762	0	32664	
1763	0	32668	
1764	0	32628	
1765	0	32632	
1766	0	32616	
1767	0	32614	
1768	0	32596	
1769	0	32560	
1770	0	32540	
1771	0	32560	
1772	0	32570	
1773	0	32576	
1774	0	32608	
1775	0	32612	
1776	0	32632	
1777	0	32660	
1778	0	32704	
1779	0	32728	
1780	0	32736	
1781	0	32754	
1782	0	32864	
1783	0	32896	
1784	0	32884	
1785	0	32840	
1786	0	32852	
1787	0	32936	
1788	0	33016	
1789	0	33072	
1790	0	33072	
1791	0	33096	
1792	0	33152	
1793	0	33160	
1794	0	33144	
1795	0	33120	
1796	0	33100	
1797	0	33136	
1798	0	33132	
1799	0	33142	
1800	0	33132	
1801	0	33148	
1802	0	33148	
1803	0	33160	
1804	0	33152	
1805	0	33188	
1806	0	33224	
1807	0	33268	
1808	0	33316	
1809	0	33412	
1810	0	33536	
1811	0	33592	
1812	0	33624	
1813	0	33696	
1814	0	33800	
1815	0	33940	
1816	0	34088	
1817	0	34212	
1818	0	34336	
1819	0	34456	
1820	0	34548	
1821	0	34610	
1822	0	34688	
1823	0	34744	
1824	0	34740	
1825	0	34676	
1826	0	34636	
1827	0	34616	
1828	0	34564	
1829	0	34480	
1830	0	34368	
1831	0	34208	
1832	0	34084	
1833	0	34020	
1834	0	33920	
1835	0	33844	
1836	0	33808	
1837	0	33756	
1838	0	33696	
1839	0	33604	
1840	0	33488	
1841	0	33396	
1842	0	33356	
1843	0	33320	
1844	0	33300	
1845	0	33288	
1846	0	33260	
1847	0	33236	
1848	0	33228	
1849	0	33200	
1850	0	33196	
1851	0	33184	
1852	0	33192	
1853	0	33208	
1854	0	33232	
1855	0	33264	
1856	0	33268	
1857	0	33236	
1858	0	33140	
1859	0	33088	
1860	0	33052	
1861	0	33048	
1862	0	33068	
1863	0	33052	
1864	0	32956	
1865	0	32868	
1866	0	32836	
1867	0	32808	
1868	0	32768	
1869	0	32696	
1870	0	32616	
1871	0	32532	
1872	0	32508	
1873	0	32520	
1874	0	32528	
1875	0	32500	
1876	0	32472	
1877	0	32492	
1878	0	32508	
1879	0	32512	
1880	0	32508	
1881	0	32520	
1882	0	32544	
1883	0	32600	
1884	0	32628	
1885	0	32656	
1886	0	32676	
1887	0	32672	
1888	0	32624	
1889	0	32600	
1890	0	32616	
1891	0	32600	
1892	0	32588	
1893	0	32576	
1894	0	32628	
1895	0	32684	
1896	0	32696	
1897	0	32696	
1898	0	32712	
1899	0	32716	
1900	0	32736	
1901	0	32752	
1902	0	32792	
1903	0	32840	
1904	0	32858	
1905	0	32832	
1906	0	32800	
1907	0	32808	
1908	0	32746	
1909	0	32708	
1910	0	32676	
1911	0	32672	
1912	0	32624	
1913	0	32600	
1914	0	32592	
1915	0	32616	
1916	0	32640	
1917	0	32676	
1918	0	32698	
1919	0	32742	
1920	0	32760	
1921	0	32780	
1922	0	32768	
1923	0	32764	
1924	0	32760	
1925	0	32800	
1926	0	32816	
1927	0	32804	
1928	0	32816	
1929	0	32796	
1930	0	32768	
1931	0	32744	
1932	0	32700	
1933	0	32684	
1934	0	32696	
1935	0	32688	
1936	0	32660	
1937	0	32676	
1938	0	32656	
1939	0	32680	
1940	0	32752	
1941	0	32836	
1942	0	32926	
1943	0	32992	
1944	0	33032	
1945	0	33052	
1946	0	33076	
1947	0	33072	
1948	0	33008	
1949	0	32876	
1950	0	32696	
1951	0	32536	
1952	0	32420	
1953	0	32360	
1954	0	32500	
1955	0	32800	
1956	0	33104	
1957	0	33444	
1958	0	33836	
1959	0	34220	
1960	0	34632	
1961	0	34902	
1962	0	35108	
1963	0	35408	
1964	0	35800	
1965	0	36376	
1966	0	37152	
1967	0	38100	
1968	0	39162	
1969	0	40344	
1970	0	41728	
1971	0	43236	
1972	0	44828	
1973	0	46408	
1974	0	48040	
1975	0	49720	
1976	0	51280	
1977	0	52704	
1978	0	53908	
1979	0	54976	
1980	0	55976	
1981	0	57112	
1982	0	58320	
1983	0	59184	
1984	0	59544	
1985	0	59068	
1986	0	57340	
1987	0	54536	
1988	0	51080	
1989	0	47096	
1990	0	42968	
1991	0	39192	
1992	0	36044	
1993	0	33660	
1994	0	32036	
1995	0	30992	
1996	0	30402	
1997	0	30096	
1998	0	29892	
1999	0	29832	
2000	0	29876	
2001	0	29924	
2002	0	29968	
2003	0	30029	
2004	0	30136	
2005	0	30236	
2006	0	30308	
2007	0	30376	
2008	0	30394	
2009	0	30476	
2010	0	30672	
2011	0	30888	
2012	0	31084	
2013	0	31184	
2014	0	31232	
2015	0	31260	
2016	0	31260	
2017	0	31240	
2018	0	31208	
2019	0	31168	
2020	0	31122	
2021	0	31104	
2022	0	31076	
2023	0	31048	
2024	0	31036	
2025	0	31028	
2026	0	30996	
2027	0	30980	
2028	0	31016	
2029	0	31040	
2030	0	31032	
2031	0	31032	
2032	0	31040	
2033	0	31040	
2034	0	31016	
2035	0	31000	
2036	0	31000	
2037	0	30944	
2038	0	30908	
2039	0	30952	
2040	0	31018	
2041	0	31064	
2042	0	31096	
2043	0	31164	
2044	0	31204	
2045	0	31192	
2046	0	31160	
2047	0	31172	
2048	0	31228	
2049	0	31264	
2050	0	31282	
2051	0	31296	
2052	0	31308	
2053	0	31322	
2054	0	31320	
2055	0	31324	
2056	0	31296	
2057	0	31328	
2058	0	31332	
2059	0	31338	
2060	0	31332	
2061	0	31348	
2062	0	31380	
2063	0	31368	
2064	0	31412	
2065	0	31448	
2066	0	31500	
2067	0	31552	
2068	0	31608	
2069	0	31664	
2070	0	31668	
2071	0	31652	
2072	0	31665	
2073	0	31682	
2074	0	31714	
2075	0	31752	
2076	0	31792	
2077	0	31824	
2078	0	31880	
2079	0	31924	
2080	0	31960	
2081	0	32004	
2082	0	32048	
2083	0	32068	
2084	0	32060	
2085	0	32064	
2086	0	32076	
2087	0	32080	
2088	0	32092	
2089	0	32104	
2090	0	32096	
2091	0	32116	
2092	0	32112	
2093	0	32100	
2094	0	32104	
2095	0	32160	
2096	0	32236	
2097	0	32304	
2098	0	32356	
2099	0	32396	
2100	0	32432	
2101	0	32466	
2102	0	32432	
2103	0	32416	
2104	0	32472	
2105	0	32528	
2106	0	32544	
2107	0	32540	
2108	0	32544	
2109	0	32580	
2110	0	32552	
2111	0	32472	
2112	0	32416	
2113	0	32428	
2114	0	32464	
2115	0	32520	
2116	0	32572	
2117	0	32632	
2118	0	32644	
2119	0	32672	
2120	0	32688	
2121	0	32708	
2122	0	32704	
2123	0	32716	
2124	0	32724	
2125	0	32716	
2126	0	32692	
2127	0	32720	
2128	0	32732	
2129	0	32744	
2130	0	32752	
2131	0	32784	
2132	0	32800	
2133	0	32824	
2134	0	32844	
2135	0	32836	
2136	0	32816	
2137	0	32824	
2138	0	32832	
2139	0	32856	
2140	0	32856	
2141	0	32860	
2142	0	32908	
2143	0	32936	
2144	0	32952	
2145	0	32960	
2146	0	32960	
2147	0	32954	
2148	0	32960	
2149	0	33002	
2150	0	33056	
2151	0	33108	
2152	0	33092	
2153	0	33100	
2154	0	33160	
2155	0	33264	
2156	0	33338	
2157	0	33376	
2158	0	33420	
2159	0	33448	
2160	0	33464	
2161	0	33472	
2162	0	33504	
2163	0	33550	
2164	0	33588	
2165	0	33644	
2166	0	33704	
2167	0	33744	
2168	0	33728	
2169	0	33716	
2170	0	33732	
2171	0	33756	
2172	0	33778	
2173	0	33817	
2174	0	33872	
2175	0	33904	
2176	0	33912	
2177	0	33952	
2178	0	34008	
2179	0	34040	
2180	0	34068	
2181	0	34100	
2182	0	34140	
2183	0	34189	
2184	0	34240	
2185	0	34240	
2186	0	34184	
2187	0	34172	
2188	0	34164	
2189	0	34196	
2190	0	34204	
2191	0	34220	
2192	0	34248	
2193	0	34276	
2194	0	34264	
2195	0	34236	
2196	0	34200	
2197	0	34208	
2198	0	34236	
2199	0	34268	
2200	0	34304	
2201	0	34348	
2202	0	34416	
2203	0	34500	
2204	0	34604	
2205	0	34684	
2206	0	34696	
2207	0	34714	
2208	0	34744	
2209	0	34772	
2210	0	34792	
2211	0	34800	
2212	0	34824	
2213	0	34848	
2214	0	34884	
2215	0	34940	
2216	0	35032	
2217	0	35072	
2218	0	35080	
2219	0	35056	
2220	0	34992	
2221	0	34906	
2222	0	34824	
2223	0	34752	
2224	0	34722	
2225	0	34742	
2226	0	34778	
2227	0	34786	
2228	0	34844	
2229	0	34940	
2230	0	35000	
2231	0	35048	
2232	0	35080	
2233	0	35080	
2234	0	35056	
2235	0	35024	
2236	0	35024	
2237	0	35034	
2238	0	35056	
2239	0	35096	
2240	0	35124	
2241	0	35100	
2242	0	35064	
2243	0	35036	
2244	0	35040	
2245	0	35044	
2246	0	35084	
2247	0	35076	
2248	0	35054	
2249	0	35024	
2250	0	34992	
2251	0	34968	
2252	0	34960	
2253	0	34928	
2254	0	34820	
2255	0	34772	
2256	0	34728	
2257	0	34656	
2258	0	34576	
2259	0	34496	
2260	0	34400	
2261	0	34364	
2262	0	34316	
2263	0	34240	
2264	0	34200	
2265	0	34144	
2266	0	34060	
2267	0	33940	
2268	0	33824	
2269	0	33728	
2270	0	33600	
2271	0	33464	
2272	0	33384	
2273	0	33280	
2274	0	33156	
2275	0	33004	
2276	0	32876	
2277	0	32714	
2278	0	32584	
2279	0	32468	
2280	0	32396	
2281	0	32288	
2282	0	32160	
2283	0	32064	
2284	0	31945	
2285	0	31856	
2286	0	31748	
2287	0	31648	
2288	0	31540	
2289	0	31380	
2290	0	31260	
2291	0	31162	
2292	0	31132	
2293	0	31120	
2294	0	31064	
2295	0	30952	
2296	0	30860	
2297	0	30804	
2298	0	30770	
2299	0	30728	
2300	0	30712	
2301	0	30728	
2302	0	30732	
2303	0	30688	
2304	0	30620	
2305	0	30574	
2306	0	30544	
2307	0	30488	
2308	0	30384	
2309	0	30296	
2310	0	30242	
2311	0	30216	
2312	0	30200	
2313	0	30188	
2314	0	30172	
2315	0	30120	
2316	0	30052	
2317	0	29976	
2318	0	29916	
2319	0	29914	
2320	0	29932	
2321	0	29924	
2322	0	29856	
2323	0	29768	
2324	0	29696	
2325	0	29704	
2326	0	29708	
2327	0	29744	
2328	0	29812	
2329	0	29848	
2330	0	29876	
2331	0	29888	
2332	0	29888	
2333	0	29876	
2334	0	29876	
2335	0	29888	
2336	0	29874	
2337	0	29856	
2338	0	29860	
2339	0	29852	
2340	0	29916	
2341	0	29968	
2342	0	30000	
2343	0	30042	
2344	0	30056	
2345	0	30032	
2346	0	29968	
2347	0	30004	
2348	0	30108	
2349	0	30180	
2350	0	30204	
2351	0	30228	
2352	0	30258	
2353	0	30284	
2354	0	30362	
2355	0	30402	
2356	0	30392	
2357	0	30410	
2358	0	30426	
2359	0	30434	
2360	0	30456	
2361	0	30492	
2362	0	30468	
2363	0	30444	
2364	0	30444	
2365	0	30492	
2366	0	30552	
2367	0	30620	
2368	0	30648	
2369	0	30688	
2370	0	30740	
2371	0	30770	
2372	0	30832	
2373	0	30912	
2374	0	30944	
2375	0	30968	
2376	0	30996	
2377	0	31024	
2378	0	31032	
2379	0	31008	
2380	0	30952	
2381	0	30920	
2382	0	30900	
2383	0	30884	
2384	0	30908	
2385	0	30916	
2386	0	30880	
2387	0	30868	
2388	0	30900	
2389	0	30960	
2390	0	30992	
2391	0	31008	
2392	0	30992	
2393	0	30976	
2394	0	30994	
2395	0	31040	
2396	0	31072	
2397	0	31120	
2398	0	31168	
2399	0	31216	
2400	0	31252	
2401	0	31260	
2402	0	31248	
2403	0	31252	
2404	0	31288	
2405	0	31312	
2406	0	31328	
2407	0	31393	
2408	0	31448	
2409	0	31448	
2410	0	31456	
2411	0	31448	
2412	0	31496	
2413	0	31546	
2414	0	31572	
2415	0	31548	
2416	0	31532	
2417	0	31600	
2418	0	31624	
2419	0	31600	
2420	0	31560	
2421	0	31524	
2422	0	31496	
2423	0	31504	
2424	0	31524	
2425	0	31536	
2426	0	31612	
2427	0	31664	
2428	0	31704	
2429	0	31748	
2430	0	31794	
2431	0	31846	
2432	0	31880	
2433	0	31912	
2434	0	31916	
2435	0	31904	
2436	0	31896	
2437	0	31896	
2438	0	31860	
2439	0	31844	
2440	0	31824	
2441	0	31752	
2442	0	31700	
2443	0	31674	
2444	0	31664	
2445	0	31652	
2446	0	31640	
2447	0	31596	
2448	0	31652	
2449	0	31692	
2450	0	31672	
2451	0	31664	
2452	0	31700	
2453	0	31752	
2454	0	31752	
2455	0	31758	
2456	0	31716	
2457	0	31704	
2458	0	31720	
2459	0	31738	
2460	0	31776	
2461	0	31752	
2462	0	31756	
2463	0	31760	
2464	0	31748	
2465	0	31724	
2466	0	31744	
2467	0	31740	
2468	0	31736	
2469	0	31732	
2470	0	31768	
2471	0	31800	
2472	0	31756	
2473	0	31696	
2474	0	31640	
2475	0	31628	
2476	0	31624	
2477	0	31628	
2478	0	31656	
2479	0	31664	
2480	0	31672	
2481	0	31696	
2482	0	31684	
2483	0	31672	
2484	0	31656	
2485	0	31636	
2486	0	31632	
2487	0	31652	
2488	0	31628	
2489	0	31624	
2490	0	31656	
2491	0	31692	
2492	0	31700	
2493	0	31704	
2494	0	31688	
2495	0	31684	
2496	0	31676	
2497	0	31696	
2498	0	31744	
2499	0	31752	
2500	0	31792	
2501	0	31772	
2502	0	31768	
2503	0	31786	
2504	0	31840	
2505	0	31876	
2506	0	31872	
2507	0	31864	
2508	0	31844	
2509	0	31832	
2510	0	31832	
2511	0	31848	
2512	0	31896	
2513	0	31912	
2514	0	31904	
2515	0	31876	
2516	0	31848	
2517	0	31840	
2518	0	31824	
2519	0	31848	
2520	0	31852	
2521	0	31844	
2522	0	31896	
2523	0	31920	
2524	0	31904	
2525	0	31924	
2526	0	32000	
2527	0	32014	
2528	0	32004	
2529	0	31992	
2530	0	32000	
2531	0	31984	
2532	0	32012	
2533	0	32024	
2534	0	32008	
2535	0	32000	
2536	0	32028	
2537	0	32024	
2538	0	32016	
2539	0	32020	
2540	0	31968	
2541	0	31928	
2542	0	31928	
2543	0	31896	
2544	0	31900	
2545	0	31928	
2546	0	31986	
2547	0	32004	
2548	0	32024	
2549	0	32040	
2550	0	32012	
2551	0	31968	
2552	0	31960	
2553	0	31968	
2554	0	31964	
2555	0	31972	
2556	0	31970	
2557	0	31916	
2558	0	31896	
2559	0	31852	
2560	0	31864	
2561	0	31896	
2562	0	31940	
2563	0	32012	
2564	0	32068	
2565	0	32084	
2566	0	32108	
2567	0	32108	
2568	0	32132	
2569	0	32128	
2570	0	32140	
2571	0	32140	
2572	0	32140	
2573	0	32164	
2574	0	32208	
2575	0	32240	
2576	0	32220	
2577	0	32224	
2578	0	32224	
2579	0	32188	
2580	0	32156	
2581	0	32178	
2582	0	32156	
2583	0	32168	
2584	0	32180	
2585	0	32184	
2586	0	32188	
2587	0	32232	
2588	0	32312	
2589	0	32344	
2590	0	32320	
2591	0	32252	
2592	0	32240	
2593	0	32272	
2594	0	32324	
2595	0	32312	
2596	0	32300	
2597	0	32288	
2598	0	32304	
2599	0	32304	
2600	0	32312	
2601	0	32296	
2602	0	32284	
2603	0	32248	
2604	0	32250	
2605	0	32282	
2606	0	32336	
2607	0	32400	
2608	0	32442	
2609	0	32460	
2610	0	32464	
2611	0	32432	
2612	0	32412	
2613	0	32428	
2614	0	32424	
2615	0	32392	
2616	0	32352	
2617	0	32312	
2618	0	32296	
2619	0	32266	
2620	0	32202	
2621	0	32178	
2622	0	32176	
2623	0	32202	
2624	0	32208	
2625	0	32238	
2626	0	32314	
2627	0	32380	
2628	0	32424	
2629	0	32456	
2630	0	32484	
2631	0	32508	
2632	0	32520	
2633	0	32572	
2634	0	32584	
2635	0	32552	
2636	0	32504	
2637	0	32448	
2638	0	32388	
2639	0	32364	
2640	0	32368	
2641	0	32384	
2642	0	32388	
2643	0	32324	
2644	0	32240	
2645	0	32196	
2646	0	32176	
2647	0	32140	
2648	0	32112	
2649	0	32076	
2650	0	32032	
2651	0	32016	
2652	0	32096	
2653	0	32208	
2654	0	32290	
2655	0	32300	
2656	0	32312	
2657	0	32312	
2658	0	32296	
2659	0	32292	
2660	0	32264	
2661	0	32220	
2662	0	32224	
2663	0	32272	
2664	0	32348	
2665	0	32376	
2666	0	32368	
2667	0	32396	
2668	0	32404	
2669	0	32400	
2670	0	32428	
2671	0	32448	
2672	0	32444	
2673	0	32432	
2674	0	32448	
2675	0	32504	
2676	0	32544	
2677	0	32544	
2678	0	32532	
2679	0	32484	
2680	0	32484	
2681	0	32520	
2682	0	32528	
2683	0	32504	
2684	0	32460	
2685	0	32456	
2686	0	32484	
2687	0	32468	
2688	0	32456	
2689	0	32432	
2690	0	32408	
2691	0	32404	
2692	0	32410	
2693	0	32376	
2694	0	32320	
2695	0	32316	
2696	0	32376	
2697	0	32414	
2698	0	32450	
2699	0	32492	
2700	0	32512	
2701	0	32516	
2702	0	32484	
2703	0	32484	
2704	0	32500	
2705	0	32528	
2706	0	32540	
2707	0	32596	
2708	0	32664	
2709	0	32712	
2710	0	32760	
2711	0	32784	
2712	0	32816	
2713	0	32864	
2714	0	32916	
2715	0	32976	
2716	0	33056	
2717	0	33144	
2718	0	33184	
2719	0	33184	
2720	0	33140	
2721	0	33084	
2722	0	33054	
2723	0	33044	
2724	0	32996	
2725	0	32960	
2726	0	32980	
2727	0	32984	
2728	0	32968	
2729	0	32968	
2730	0	32968	
2731	0	32968	
2732	0	32948	
2733	0	32984	
2734	0	33080	
2735	0	33216	
2736	0	33408	
2737	0	33544	
2738	0	33634	
2739	0	33716	
2740	0	33784	
2741	0	33888	
2742	0	33978	
2743	0	34080	
2744	0	34184	
2745	0	34210	
2746	0	34272	
2747	0	34324	
2748	0	34356	
2749	0	34368	
2750	0	34424	
2751	0	34444	
2752	0	34428	
2753	0	34388	
2754	0	34349	
2755	0	34316	
2756	0	34232	
2757	0	34108	
2758	0	34024	
2759	0	33956	
2760	0	33876	
2761	0	33812	
2762	0	33748	
2763	0	33640	
2764	0	33520	
2765	0	33396	
2766	0	33296	
2767	0	33248	
2768	0	33288	
2769	0	33268	
2770	0	33232	
2771	0	33180	
2772	0	33140	
2773	0	33140	
2774	0	33152	
2775	0	33160	
2776	0	33156	
2777	0	33108	
2778	0	33128	
2779	0	33180	
2780	0	33196	
2781	0	33216	
2782	0	33240	
2783	0	33256	
2784	0	33242	
2785	0	33196	
2786	0	33176	
2787	0	33160	
2788	0	33120	
2789	0	32976	
2790	0	32800	
2791	0	32640	
2792	0	32580	
2793	0	32620	
2794	0	32692	
2795	0	32692	
2796	0	32624	
2797	0	32520	
2798	0	32438	
2799	0	32416	
2800	0	32352	
2801	0	32304	
2802	0	32256	
2803	0	32212	
2804	0	32188	
2805	0	32188	
2806	0	32216	
2807	0	32216	
2808	0	32216	
2809	0	32220	
2810	0	32240	
2811	0	32234	
2812	0	32232	
2813	0	32216	
2814	0	32224	
2815	0	32228	
2816	0	32236	
2817	0	32244	
2818	0	32200	
2819	0	32172	
2820	0	32216	
2821	0	32240	
2822	0	32224	
2823	0	32184	
2824	0	32156	
2825	0	32128	
2826	0	32100	
2827	0	32080	
2828	0	32064	
2829	0	32040	
2830	0	32048	
2831	0	32080	
2832	0	32096	
2833	0	32128	
2834	0	32176	
2835	0	32220	
2836	0	32272	
2837	0	32322	
2838	0	32320	
2839	0	32348	
2840	0	32356	
2841	0	32384	
2842	0	32388	
2843	0	32376	
2844	0	32376	
2845	0	32356	
2846	0	32308	
2847	0	32264	
2848	0	32266	
2849	0	32272	
2850	0	32296	
2851	0	32316	
2852	0	32328	
2853	0	32332	
2854	0	32356	
2855	0	32380	
2856	0	32412	
2857	0	32446	
2858	0	32434	
2859	0	32452	
2860	0	32482	
2861	0	32490	
2862	0	32480	
2863	0	32444	
2864	0	32448	
2865	0	32504	
2866	0	32564	
2867	0	32628	
2868	0	32660	
2869	0	32736	
2870	0	32824	
2871	0	32884	
2872	0	32872	
2873	0	32760	
2874	0	32604	
2875	0	32412	
2876	0	32176	
2877	0	31992	
2878	0	32024	
2879	0	32232	
2880	0	32532	
2881	0	32844	
2882	0	33248	
2883	0	33680	
2884	0	34044	
2885	0	34362	
2886	0	34548	
2887	0	34760	
2888	0	35068	
2889	0	35496	
2890	0	36120	
2891	0	36916	
2892	0	37908	
2893	0	39040	
2894	0	40308	
2895	0	41768	
2896	0	43352	
2897	0	45020	
2898	0	46716	
2899	0	48468	
2900	0	50248	
2901	0	51892	
2902	0	53376	
2903	0	54660	
2904	0	55752	
2905	0	56756	
2906	0	57792	
2907	0	58784	
2908	0	59440	
2909	0	59496	
2910	0	58612	
2911	0	56604	
2912	0	53624	
2913	0	49996	
2914	0	45952	
2915	0	41956	
2916	0	38304	
2917	0	35252	
2918	0	33020	
2919	0	31568	
2920	0	30576	
2921	0	29876	
2922	0	29416	
2923	0	29084	
2924	0	28880	
2925	0	28864	
2926	0	29006	
2927	0	29224	
2928	0	29388	
2929	0	29500	
2930	0	29612	
2931	0	29708	
2932	0	29788	
2933	0	29868	
2934	0	30040	
2935	0	30292	
2936	0	30504	
2937	0	30680	
2938	0	30760	
2939	0	30804	
2940	0	30848	
2941	0	30880	
2942	0	30954	
2943	0	30996	
2944	0	30984	
2945	0	30948	
2946	0	30850	
2947	0	30776	
2948	0	30712	
2949	0	30650	
2950	0	30592	
2951	0	30576	
2952	0	30568	
2953	0	30548	
2954	0	30548	
2955	0	30560	
2956	0	30556	
2957	0	30556	
2958	0	30576	
2959	0	30576	
2960	0	30572	
2961	0	30576	
2962	0	30592	
2963	0	30636	
2964	0	30674	
2965	0	30688	
2966	0	30690	
2967	0	30684	
2968	0	30664	
2969	0	30680	
2970	0	30720	
2971	0	30764	
2972	0	30808	
2973	0	30840	
2974	0	30872	
2975	0	30900	
2976	0	30892	
2977	0	30876	
2978	0	30848	
2979	0	30840	
2980	0	30784	
2981	0	30778	
2982	0	30772	
2983	0	30828	
2984	0	30892	
2985	0	30952	
2986	0	30996	
2987	0	30994	
2988	0	31000	
2989	0	31008	
2990	0	31088	
2991	0	31176	
2992	0	31168	
2993	0	31186	
2994	0	31240	
2995	0	31266	
2996	0	31276	
2997	0	31300	
2998	0	31324	
2999	0	31348	
3000	0	31324	
3001	0	31258	
3002	0	31256	
3003	0	31312	
3004	0	31352	
3005	0	31332	
3006	0	31304	
3007	0	31284	
3008	0	31296	
3009	0	31316	
3010	0	31356	
3011	0	31368	
3012	0	31392	
3013	0	31420	
3014	0	31492	
3015	0	31540	
3016	0	31576	
3017	0	31605	
3018	0	31612	
3019	0	31620	
3020	0	31704	
3021	0	31824	
3022	0	31898	
3023	0	31920	
3024	0	31944	
3025	0	31948	
3026	0	31952	
3027	0	31980	
3028	0	32032	
3029	0	32062	
3030	0	32040	
3031	0	32032	
3032	0	32040	
3033	0	32036	
3034	0	32056	
3035	0	32106	
3036	0	32156	
3037	0	32180	
3038	0	32208	
3039	0	32272	
3040	0	32368	
3041	0	32432	
3042	0	32456	
3043	0	32448	
3044	0	32424	
3045	0	32396	
3046	0	32400	
3047	0	32412	
3048	0	32448	
3049	0	32508	
3050	0	32564	
3051	0	32592	
3052	0	32640	
3053	0	32704	
3054	0	32760	
3055	0	32772	
3056	0	32758	
3057	0	32688	
3058	0	32644	
3059	0	32600	
3060	0	32540	
3061	0	32456	
3062	0	32440	
3063	0	32452	
3064	0	32560	
3065	0	32708	
3066	0	32820	
3067	0	32824	
3068	0	32840	
3069	0	32888	
3070	0	32940	
3071	0	32996	
3072	0	33048	
3073	0	33072	
3074	0	33044	
3075	0	33044	
3076	0	33072	
3077	0	33064	
3078	0	33096	
3079	0	33124	
3080	0	33116	
3081	0	33084	
3082	0	33100	
3083	0	33124	
3084	0	33192	
3085	0	33224	
3086	0	33226	
3087	0	33188	
3088	0	33208	
3089	0	33268	
3090	0	33292	
3091	0	33340	
3092	0	33392	
3093	0	33408	
3094	0	33440	
3095	0	33448	
3096	0	33436	
3097	0	33440	
3098	0	33476	
3099	0	33520	
3100	0	33528	
3101	0	33516	
3102	0	33540	
3103	0	33544	
3104	0	33508	
3105	0	33500	
3106	0	33496	
3107	0	33488	
3108	0	33516	
3109	0	33576	
3110	0	33580	
3111	0	33556	
3112	0	33576	
3113	0	33576	
3114	0	33594	
3115	0	33628	
3116	0	33660	
3117	0	33708	
3118	0	33768	
3119	0	33820	
3120	0	33868	
3121	0	33920	
3122	0	33964	
3123	0	33992	
3124	0	34012	
3125	0	34036	
3126	0	34054	
3127	0	34048	
3128	0	34068	
3129	0	34100	
3130	0	34132	
3131	0	34132	
3132	0	34116	
3133	0	34136	
3134	0	34152	
3135	0	34156	
3136	0	34132	
3137	0	34120	
3138	0	34140	
3139	0	34172	
3140	0	34240	
3141	0	34348	
3142	0	34420	
3143	0	34478	
3144	0	34512	
3145	0	34520	
3146	0	34496	
3147	0	34484	
3148	0	34488	
3149	0	34512	
3150	0	34580	
3151	0	34648	
3152	0	34708	
3153	0	34732	
3154	0	34744	
3155	0	34732	
3156	0	34736	
3157	0	34732	
3158	0	34772	
3159	0	34780	
3160	0	34732	
3161	0	34704	
3162	0	34676	
3163	0	34664	
3164	0	34668	
3165	0	34636	
3166	0	34632	
3167	0	34624	
3168	0	34624	
3169	0	34656	
3170	0	34680	
3171	0	34728	
3172	0	34772	
3173	0	34792	
3174	0	34776	
3175	0	34760	
3176	0	34760	
3177	0	34720	
3178	0	34676	
3179	0	34632	
3180	0	34600	
3181	0	34572	
3182	0	34520	
3183	0	34440	
3184	0	34392	
3185	0	34392	
3186	0	34380	
3187	0	34320	
3188	0	34192	
3189	0	34028	
3190	0	33856	
3191	0	33708	
3192	0	33608	
3193	0	33568	
3194	0	33520	
3195	0	33504	
3196	0	33444	
3197	0	33340	
3198	0	33228	
3199	0	33132	
3200	0	33044	
3201	0	32952	
3202	0	32896	
3203	0	32796	
3204	0	32688	
3205	0	32600	
3206	0	32450	
3207	0	32272	
3208	0	32164	
3209	0	32122	
3210	0	32068	
3211	0	31980	
3212	0	31912	
3213	0	31792	
3214	0	31664	
3215	0	31520	
3216	0	31428	
3217	0	31328	
3218	0	31232	
3219	0	31144	
3220	0	31016	
3221	0	30908	
3222	0	30852	
3223	0	30808	
3224	0	30736	
3225	0	30672	
3226	0	30624	
3227	0	30584	
3228	0	30588	
3229	0	30568	
3230	0	30560	
3231	0	30552	
3232	0	30486	
3233	0	30400	
3234	0	30344	
3235	0	30332	
3236	0	30292	
3237	0	30280	
3238	0	30268	
3239	0	30228	
3240	0	30168	
3241	0	30084	
3242	0	30040	
3243	0	29980	
3244	0	29936	
3245	0	29892	
3246	0	29840	
3247	0	29812	
3248	0	29784	
3249	0	29756	
3250	0	29788	
3251	0	29784	
3252	0	29732	
3253	0	29724	
3254	0	29752	
3255	0	29776	
3256	0	29816	
3257	0	29856	
3258	0	29882	
3259	0	29944	
3260	0	29996	
3261	0	30032	
3262	0	30068	
3263	0	30106	
3264	0	30140	
3265	0	30178	
3266	0	30196	
3267	0	30240	
3268	0	30268	
3269	0	30280	
3270	0	30296	
3271	0	30308	
3272	0	30308	
3273	0	30344	
3274	0	30378	
3275	0	30396	
3276	0	30392	
3277	0	30408	
3278	0	30412	
3279	0	30444	
3280	0	30456	
3281	0	30464	
3282	0	30512	
3283	0	30568	
3284	0	30584	
3285	0	30612	
3286	0	30588	
3287	0	30564	
3288	0	30548	
3289	0	30576	
3290	0	30636	
3291	0	30704	
3292	0	30748	
3293	0	30800	
3294	0	30828	
3295	0	30876	
3296	0	30884	
3297	0	30856	
3298	0	30840	
3299	0	30854	
3300	0	30864	
3301	0	30892	
3302	0	30908	
3303	0	30944	
3304	0	30968	
3305	0	31020	
3306	0	31044	
3307	0	31052	
3308	0	31058	
3309	0	31050	
3310	0	31052	
3311	0	31028	
3312	0	30996	
3313	0	31002	
3314	0	31028	
3315	0	31024	
3316	0	31034	
3317	0	31092	
3318	0	31136	
3319	0	31116	
3320	0	31072	
3321	0	31100	
3322	0	31192	
3323	0	31336	
3324	0	31424	
3325	0	31468	
3326	0	31472	
3327	0	31512	
3328	0	31532	
3329	0	31552	
3330	0	31584	
3331	0	31560	
3332	0	31480	
3333	0	31380	
3334	0	31308	
3335	0	31320	
3336	0	31386	
3337	0	31480	
3338	0	31520	
3339	0	31572	
3340	0	31608	
3341	0	31600	
3342	0	31612	
3343	0	31656	
3344	0	31656	
3345	0	31624	
3346	0	31612	
3347	0	31576	
3348	0	31548	
3349	0	31552	
3350	0	31556	
3351	0	31544	
3352	0	31524	
3353	0	31520	
3354	0	31504	
3355	0	31496	
3356	0	31468	
3357	0	31444	
3358	0	31400	
3359	0	31372	
3360	0	31368	
3361	0	31376	
3362	0	31384	
3363	0	31424	
3364	0	31440	
3365	0	31432	
3366	0	31428	
3367	0	31412	
3368	0	31404	
3369	0	31420	
3370	0	31450	
3371	0	31484	
3372	0	31480	
3373	0	31456	
3374	0	31488	
3375	0	31540	
3376	0	31592	
3377	0	31652	
3378	0	31696	
3379	0	31704	
3380	0	31712	
3381	0	31713	
3382	0	31680	
3383	0	31640	
3384	0	31664	
3385	0	31678	
3386	0	31666	
3387	0	31640	
3388	0	31608	
3389	0	31608	
3390	0	31596	
3391	0	31656	
3392	0	31728	
3393	0	31764	
3394	0	31776	
3395	0	31778	
3396	0	31788	
3397	0	31796	
3398	0	31728	
3399	0	31652	
3400	0	31600	
3401	0	31568	
3402	0	31544	
3403	0	31560	
3404	0	31624	
3405	0	31700	
3406	0	31768	
3407	0	31820	
3408	0	31806	
3409	0	31808	
3410	0	31796	
3411	0	31776	
3412	0	31724	
3413	0	31696	
3414	0	31684	
3415	0	31680	
3416	0	31672	
3417	0	31692	
3418	0	31748	
3419	0	31760	
3420	0	31712	
3421	0	31672	
3422	0	31656	
3423	0	31684	
3424	0	31672	
3425	0	31640	
3426	0	31624	
3427	0	31648	
3428	0	31712	
3429	0	31736	
3430	0	31776	
3431	0	31808	
3432	0	31840	
3433	0	31860	
3434	0	31888	
3435	0	31914	
3436	0	31904	
3437	0	31904	
3438	0	31932	
3439	0	31964	
3440	0	31928	
3441	0	31916	
3442	0	31912	
3443	0	31916	
3444	0	31873	
3445	0	31880	
3446	0	31868	
3447	0	31888	
3448	0	31892	
3449	0	31896	
3450	0	31928	
3451	0	31960	
3452	0	32036	
3453	0	32044	
3454	0	31996	
3455	0	31956	
3456	0	31944	
3457	0	31930	
3458	0	31912	
3459	0	31872	
3460	0	31900	
3461	0	31928	
3462	0	31940	
3463	0	31940	
3464	0	31936	
3465	0	31936	
3466	0	31972	
3467	0	32000	
3468	0	32032	
3469	0	32040	
3470	0	32044	
3471	0	32064	
3472	0	32096	
3473	0	32092	
3474	0	32096	
3475	0	32112	
3476	0	32074	
3477	0	32056	
3478	0	32076	
3479	0	32092	
3480	0	32100	
3481	0	32156	
3482	0	32218	
3483	0	32272	
3484	0	32348	
3485	0	32376	
3486	0	32388	
3487	0	32412	
3488	0	32400	
3489	0	32424	
3490	0	32448	
3491	0	32436	
3492	0	32428	
3493	0	32450	
3494	0	32442	
3495	0	32440	
3496	0	32386	
3497	0	32352	
3498	0	32348	
3499	0	32352	
3500	0	32320	
3501	0	32296	
3502	0	32288	
3503	0	32324	
3504	0	32364	
3505	0	32408	
3506	0	32432	
3507	0	32456	
3508	0	32450	
3509	0	32480	
3510	0	32504	
3511	0	32512	
3512	0	32524	
3513	0	32492	
3514	0	32492	
3515	0	32492	
3516	0	32518	
3517	0	32540	
3518	0	32534	
3519	0	32500	
3520	0	32512	
3521	0	32544	
3522	0	32556	
3523	0	32544	
3524	0	32528	
3525	0	32460	
3526	0	32428	
3527	0	32472	
3528	0	32586	
3529	0	32688	
3530	0	32728	
3531	0	32676	
3532	0	32636	
3533	0	32672	
3534	0	32712	
3535	0	32740	
3536	0	32776	
3537	0	32836	
3538	0	32852	
3539	0	32840	
3540	0	32834	
3541	0	32808	
3542	0	32712	
3543	0	32612	
3544	0	32570	
3545	0	32552	
3546	0	32532	
3547	0	32560	
3548	0	32576	
3549	0	32594	
3550	0	32552	
3551	0	32504	
3552	0	32440	
3553	0	32418	
3554	0	32484	
3555	0	32552	
3556	0	32568	
3557	0	32624	
3558	0	32668	
3559	0	32752	
3560	0	32808	
3561	0	32848	
3562	0	32868	
3563	0	32840	
3564	0	32808	
3565	0	32864	
3566	0	32912	
3567	0	32922	
3568	0	32928	
3569	0	32932	
3570	0	32928	
3571	0	32916	
3572	0	32896	
3573	0	32892	
3574	0	32892	
3575	0	32896	
3576	0	32892	
3577	0	32900	
3578	0	32880	
3579	0	32864	
3580	0	32892	
3581	0	32984	
3582	0	33112	
3583	0	33256	
3584	0	33408	
3585	0	33512	
3586	0	33620	
3587	0	33748	
3588	0	33884	
3589	0	33988	
3590	0	34068	
3591	0	34198	
3592	0	34300	
3593	0	34373	
3594	0	34456	
3595	0	34492	
3596	0	34544	
3597	0	34600	
3598	0	34648	
3599	0	34660	
3600	0	34644	
3601	0	34628	
3602	0	34592	
3603	0	34464	
3604	0	34296	
3605	0	34164	
3606	0	34104	
3607	0	34008	
3608	0	33900	
3609	0	33768	
3610	0	33660	
3611	0	33588	
3612	0	33568	
3613	0	33522	
3614	0	33476	
3615	0	33432	
3616	0	33388	
3617	0	33388	
3618	0	33376	
3619	0	33360	
3620	0	33344	
3621	0	33316	
3622	0	33292	
3623	0	33240	
3624	0	33196	
3625	0	33184	
3626	0	33192	
3627	0	33180	
3628	0	33136	
3629	0	33120	
3630	0	33144	
3631	0	33136	
3632	0	33076	
3633	0	33020	
3634	0	32992	
3635	0	32988	
3636	0	33016	
3637	0	33008	
3638	0	32960	
3639	0	32932	
3640	0	32896	
3641	0	32828	
3642	0	32752	
3643	0	32664	
3644	0	32592	
3645	0	32520	
3646	0	32444	
3647	0	32396	
3648	0	32360	
3649	0	32320	
3650	0	32296	
3651	0	32288	
3652	0	32332	
3653	0	32392	
3654	0	32390	
3655	0	32352	
3656	0	32316	
3657	0	32312	
3658	0	32316	
3659	0	32280	
3660	0	32268	
3661	0	32232	
3662	0	32228	
3663	0	32256	
3664	0	32292	
3665	0	32280	
3666	0	32290	
3667	0	32314	
3668	0	32336	
3669	0	32340	
3670	0	32352	
3671	0	32392	
3672	0	32389	
3673	0	32384	
3674	0	32404	
3675	0	32404	
3676	0	32404	
3677	0	32436	
3678	0	32480	
3679	0	32516	
3680	0	32554	
3681	0	32526	
3682	0	32480	
3683	0	32480	
3684	0	32448	
3685	0	32428	
3686	0	32448	
3687	0	32484	
3688	0	32508	
3689	0	32524	
3690	0	32504	
3691	0	32480	
3692	0	32464	
3693	0	32436	
3694	0	32440	
3695	0	32448	
3696	0	32450	
3697	0	32460	
3698	0	32476	
3699	0	32488	
3700	0	32508	
3701	0	32536	
3702	0	32576	
3703	0	32556	
3704	0	32528	
3705	0	32510	
3706	0	32488	
3707	0	32476	
3708	0	32500	
3709	0	32560	
3710	0	32596	
3711	0	32596	
3712	0	32592	
3713	0	32612	
3714	0	32652	
3715	0	32720	
3716	0	32824	
3717	0	32872	
3718	0	32848	
3719	0	32820	
3720	0	32800	
3721	0	32776	
3722	0	32704	
3723	0	32512	
3724	0	32300	
3725	0	32088	
3726	0	31896	
3727	0	31880	
3728	0	32042	
3729	0	32300	
3730	0	32604	
3731	0	32936	
3732	0	33324	
3733	0	33680	
3734	0	34004	
3735	0	34198	
3736	0	34368	
3737	0	34644	
3738	0	35046	
3739	0	35658	
3740	0	36468	
3741	0	37432	
3742	0	38584	
3743	0	39842	
3744	0	41264	
3745	0	42808	
3746	0	44448	
3747	0	46068	
3748	0	47796	
3749	0	49608	
3750	0	51340	
3751	0	52888	
3752	0	54266	
3753	0	55420	
3754	0	56476	
3755	0	57620	
3756	0	58828	
3757	0	59736	
3758	0	60136	
3759	0	59704	
3760	0	58120	
3761	0	55432	
3762	0	51932	
3763	0	47892	
3764	0	43672	
3765	0	39752	
3766	0	36380	
3767	0	33768	
3768	0	31956	
3769	0	30744	
3770	0	29920	
3771	0	29432	
3772	0	29168	
3773	0	29008	
3774	0	28996	
3775	0	29116	
3776	0	29300	
3777	0	29476	
3778	0	29610	
3779	0	29744	
3780	0	29888	
3781	0	30024	
3782	0	30112	
3783	0	30258	
3784	0	30446	
3785	0	30658	
3786	0	30816	
3787	0	30912	
3788	0	30960	
3789	0	30968	
3790	0	30948	
3791	0	30972	
3792	0	31016	
3793	0	31024	
3794	0	31016	
3795	0	31040	
3796	0	31084	
3797	0	31104	
3798	0	31112	
3799	0	31124	
3800	0	31104	
3801	0	31094	
3802	0	31116	
3803	0	31090	
3804	0	31084	
3805	0	31096	
3806	0	31068	
3807	0	31016	
3808	0	30978	
3809	0	30956	
3810	0	30932	
3811	0	30916	
3812	0	30904	
3813	0	30904	
3814	0	30912	
3815	0	30952	
3816	0	30960	
3817	0	30944	
3818	0	30960	
3819	0	31004	
3820	0	31060	
3821	0	31168	
3822	0	31272	
3823	0	31364	
3824	0	31380	
3825	0	31400	
3826	0	31396	
3827	0	31378	
3828	0	31296	
3829	0	31200	
3830	0	31148	
3831	0	31116	
3832	0	31116	
3833	0	31128	
3834	0	31168	
3835	0	31178	
3836	0	31202	
3837	0	31260	
3838	0	31337	
3839	0	31400	
3840	0	31488	
3841	0	31578	
3842	0	31628	
3843	0	31616	
3844	0	31636	
3845	0	31672	
3846	0	31684	
3847	0	31672	
3848	0	31684	
3849	0	31704	
3850	0	31744	
3851	0	31788	
3852	0	31816	
3853	0	31848	
3854	0	31872	
3855	0	31890	
3856	0	31916	
3857	0	31932	
3858	0	31904	
3859	0	31956	
3860	0	32032	
3861	0	32048	
3862	0	32040	
3863	0	32048	
3864	0	32080	
3865	0	32152	
3866	0	32232	
3867	0	32288	
3868	0	32344	
3869	0	32400	
3870	0	32404	
3871	0	32400	
3872	0	32392	
3873	0	32392	
3874	0	32444	
3875	0	32396	
3876	0	32420	
3877	0	32484	
3878	0	32528	
3879	0	32554	
3880	0	32576	
3881	0	32608	
3882	0	32644	
3883	0	32676	
3884	0	32720	
3885	0	32748	
3886	0	32760	
3887	0	32772	
3888	0	32796	
3889	0	32836	
3890	0	32886	
3891	0	32952	
3892	0	33000	
3893	0	32998	
3894	0	32970	
3895	0	32924	
3896	0	32896	
3897	0	32916	
3898	0	32968	
3899	0	32996	
3900	0	32972	
3901	0	32972	
3902	0	32972	
3903	0	32984	
3904	0	32992	
3905	0	32996	
3906	0	33000	
3907	0	33036	
3908	0	33080	
3909	0	33092	
3910	0	33104	
3911	0	33132	
3912	0	33178	
3913	0	33184	
3914	0	33156	
3915	0	33132	
3916	0	33176	
3917	0	33224	
3918	0	33212	
3919	0	33200	
3920	0	33280	
3921	0	33341	
3922	0	33380	
3923	0	33404	
3924	0	33408	
3925	0	33394	
3926	0	33404	
3927	0	33466	
3928	0	33524	
3929	0	33576	
3930	0	33624	
3931	0	33664	
3932	0	33712	
3933	0	33768	
3934	0	33816	
3935	0	33834	
3936	0	33816	
3937	0	33812	
3938	0	33788	
3939	0	33796	
3940	0	33828	
3941	0	33866	
3942	0	33892	
3943	0	33872	
3944	0	33884	
3945	0	33920	
3946	0	33920	
3947	0	33964	
3948	0	33984	
3949	0	34000	
3950	0	34036	
3951	0	34056	
3952	0	34120	
3953	0	34152	
3954	0	34180	
3955	0	34176	
3956	0	34148	
3957	0	34104	
3958	0	34080	
3959	0	34066	
3960	0	34080	
3961	0	34092	
3962	0	34140	
3963	0	34204	
3964	0	34270	
3965	0	34360	
3966	0	34428	
3967	0	34472	
3968	0	34430	
3969	0	34412	
3970	0	34380	
3971	0	34400	
3972	0	34448	
3973	0	34504	
3974	0	34624	
3975	0	34704	
3976	0	34784	
3977	0	34844	
3978	0	34856	
3979	0	34850	
3980	0	34832	
3981	0	34808	
3982	0	34792	
3983	0	34804	
3984	0	34808	
3985	0	34828	
3986	0	34868	
3987	0	34928	
3988	0	34970	
3989	0	34984	
3990	0	35000	
3991	0	35008	
3992	0	34980	
3993	0	34976	
3994	0	35000	
3995	0	35004	
3996	0	35028	
3997	0	35060	
3998	0	35072	
3999	0	35052	
4000	0	35048	
4001	0	35040	
4002	0	35060	
4003	0	35052	
4004	0	35070	
4005	0	35088	
4006	0	35140	
4007	0	35156	
4008	0	35168	
4009	0	35144	
4010	0	35128	
4011	0	35168	
4012	0	35208	
4013	0	35176	
4014	0	35144	
4015	0	35144	
4016	0	35148	
4017	0	35120	
4018	0	35132	
4019	0	35156	
4020	0	35144	
4021	0	35106	
4022	0	35080	
4023	0	35072	
4024	0	35040	
4025	0	35004	
4026	0	34984	
4027	0	34976	
4028	0	34968	
4029	0	34932	
4030	0	34868	
4031	0	34768	
4032	0	34720	
4033	0	34680	
4034	0	34648	
4035	0	34564	
4036	0	34432	
4037	0	34296	
4038	0	34184	
4039	0	34088	
4040	0	33992	
4041	0	33858	
4042	0	33764	
4043	0	33644	
4044	0	33480	
4045	0	33336	
4046	0	33200	
4047	0	33092	
4048	0	32960	
4049	0	32824	
4050	0	32656	
4051	0	32560	
4052	0	32504	
4053	0	32448	
4054	0	32376	
4055	0	32290	
4056	0	32216	
4057	0	32128	
4058	0	32024	
4059	0	31914	
4060	0	31800	
4061	0	31728	
4062	0	31660	
4063	0	31584	
4064	0	31516	
4065	0	31472	
4066	0	31424	
4067	0	31392	
4068	0	31352	
4069	0	31290	
4070	0	31212	
4071	0	31156	
4072	0	31084	
4073	0	30976	
4074	0	30900	
4075	0	30760	
4076	0	30620	
4077	0	30572	
4078	0	30550	
4079	0	30536	
4080	0	30522	
4081	0	30536	
4082	0	30504	
4083	0	30436	
4084	0	30380	
4085	0	30348	
4086	0	30324	
4087	0	30284	
4088	0	30264	
4089	0	30236	
4090	0	30176	
4091	0	30132	
4092	0	30120	
4093	0	30148	
4094	0	30208	
4095	0	30258	
4096	0	30284	
4097	0	30264	
4098	0	30240	
4099	0	30232	
4100	0	30220	
4101	0	30184	
4102	0	30180	
4103	0	30216	
4104	0	30284	
4105	0	30280	
4106	0	30284	
4107	0	30312	
4108	0	30320	
4109	0	30316	
4110	0	30260	
4111	0	30224	
4112	0	30256	
4113	0	30300	
4114	0	30304	
4115	0	30332	
4116	0	30400	
4117	0	30452	
4118	0	30432	
4119	0	30432	
4120	0	30460	
4121	0	30476	
4122	0	30492	
4123	0	30520	
4124	0	30552	
4125	0	30600	
4126	0	30660	
4127	0	30714	
4128	0	30752	
4129	0	30788	
4130	0	30788	
4131	0	30792	
4132	0	30796	
4133	0	30812	
4134	0	30812	
4135	0	30776	
4136	0	30768	
4137	0	30732	
4138	0	30704	
4139	0	30712	
4140	0	30736	
4141	0	30744	
4142	0	30776	
4143	0	30776	
4144	0	30780	
4145	0	30816	
4146	0	30844	
4147	0	30862	
4148	0	30856	
4149	0	30858	
4150	0	30904	
4151	0	30928	
4152	0	30956	
4153	0	30960	
4154	0	30976	
4155	0	31056	
4156	0	31136	
4157	0	31168	
4158	0	31172	
4159	0	31184	
4160	0	31224	
4161	0	31280	
4162	0	31312	
4163	0	31336	
4164	0	31364	
4165	0	31376	
4166	0	31360	
4167	0	31336	
4168	0	31356	
4169	0	31380	
4170	0	31388	
4171	0	31360	
4172	0	31360	
4173	0	31372	
4174	0	31412	
4175	0	31464	
4176	0	31468	
4177	0	31484	
4178	0	31472	
4179	0	31496	
4180	0	31540	
4181	0	31588	
4182	0	31604	
4183	0	31584	
4184	0	31528	
4185	0	31540	
4186	0	31600	
4187	0	31676	
4188	0	31712	
4189	0	31692	
4190	0	31700	
4191	0	31760	
4192	0	31824	
4193	0	31832	
4194	0	31784	
4195	0	31768	
4196	0	31764	
4197	0	31684	
4198	0	31612	
4199	0	31568	
4200	0	31606	
4201	0	31696	
4202	0	31764	
4203	0	31808	
4204	0	31808	
4205	0	31824	
4206	0	31880	
4207	0	31892	
4208	0	31860	
4209	0	31792	
4210	0	31784	
4211	0	31816	
4212	0	31848	
4213	0	31908	
4214	0	31936	
4215	0	31940	
4216	0	31968	
4217	0	31982	
4218	0	31992	
4219	0	31956	
4220	0	31912	
4221	0	31916	
4222	0	31956	
4223	0	31968	
4224	0	31952	
4225	0	31925	
4226	0	31936	
4227	0	31946	
4228	0	31960	
4229	0	31948	
4230	0	31924	
4231	0	31912	
4232	0	31908	
4233	0	31880	
4234	0	31876	
4235	0	31872	
4236	0	31896	
4237	0	31900	
4238	0	31908	
4239	0	31872	
4240	0	31824	
4241	0	31820	
4242	0	31876	
4243	0	31922	
4244	0	31960	
4245	0	31976	
4246	0	31992	
4247	0	31968	
4248	0	31928	
4249	0	31892	
4250	0	31872	
4251	0	31860	
4252	0	31844	
4253	0	31876	
4254	0	31888	
4255	0	31868	
4256	0	31840	
4257	0	31830	
4258	0	31860	
4259	0	31900	
4260	0	31880	
4261	0	31916	
4262	0	31984	
4263	0	32010	
4264	0	32000	
4265	0	31996	
4266	0	32016	
4267	0	32064	
4268	0	32098	
4269	0	32096	
4270	0	32074	
4271	0	31996	
4272	0	31928	
4273	0	31866	
4274	0	31868	
4275	0	31866	
4276	0	31868	
4277	0	31896	
4278	0	31936	
4279	0	31996	
4280	0	32012	
4281	0	32020	
4282	0	32024	
4283	0	32024	
4284	0	32004	
4285	0	31962	
4286	0	31992	
4287	0	32032	
4288	0	32066	
4289	0	32024	
4290	0	32000	
4291	0	32000	
4292	0	32044	
4293	0	32116	
4294	0	32164	
4295	0	32168	
4296	0	32112	
4297	0	32036	
4298	0	31994	
4299	0	32010	
4300	0	32060	
4301	0	32064	
4302	0	32068	
4303	0	32088	
4304	0	32108	
4305	0	32128	
4306	0	32140	
4307	0	32156	
4308	0	32160	
4309	0	32124	
4310	0	32132	
4311	0	32112	
4312	0	32108	
4313	0	32160	
4314	0	32176	
4315	0	32196	
4316	0	32184	
4317	0	32186	
4318	0	32168	
4319	0	32136	
4320	0	32156	
4321	0	32176	
4322	0	32164	
4323	0	32194	
4324	0	32208	
4325	0	32224	
4326	0	32240	
4327	0	32232	
4328	0	32260	
4329	0	32284	
4330	0	32352	
4331	0	32380	
4332	0	32436	
4333	0	32436	
4334	0	32392	
4335	0	32308	
4336	0	32218	
4337	0	32192	
4338	0	32196	
4339	0	32208	
4340	0	32248	
4341	0	32328	
4342	0	32420	
4343	0	32480	
4344	0	32488	
4345	0	32472	
4346	0	32456	
4347	0	32440	
4348	0	32452	
4349	0	32496	
4350	0	32516	
4351	0	32512	
4352	0	32496	
4353	0	32492	
4354	0	32464	
4355	0	32480	
4356	0	32468	
4357	0	32480	
4358	0	32488	
4359	0	32528	
4360	0	32552	
4361	0	32552	
4362	0	32568	
4363	0	32644	
4364	0	32704	
4365	0	32764	
4366	0	32784	
4367	0	32760	
4368	0	32740	
4369	0	32764	
4370	0	32844	
4371	0	32848	
4372	0	32792	
4373	0	32752	
4374	0	32824	
4375	0	32872	
4376	0	32936	
4377	0	32968	
4378	0	32944	
4379	0	32904	
4380	0	32840	
4381	0	32802	
4382	0	32796	
4383	0	32768	
4384	0	32744	
4385	0	32716	
4386	0	32688	
4387	0	32696	
4388	0	32688	
4389	0	32668	
4390	0	32704	
4391	0	32696	
4392	0	32640	
4393	0	32592	
4394	0	32560	
4395	0	32524	
4396	0	32520	
4397	0	32540	
4398	0	32526	
4399	0	32502	
4400	0	32464	
4401	0	32436	
4402	0	32448	
4403	0	32484	
4404	0	32536	
4405	0	32556	
4406	0	32612	
4407	0	32632	
4408	0	32648	
4409	0	32660	
4410	0	32714	
4411	0	32744	
4412	0	32784	
4413	0	32808	
4414	0	32824	
4415	0	32828	
4416	0	32812	
4417	0	32840	
4418	0	32856	
4419	0	32896	
4420	0	32928	
4421	0	32968	
4422	0	32980	
4423	0	32974	
4424	0	32938	
4425	0	32864	
4426	0	32852	
4427	0	32876	
4428	0	32926	
4429	0	32992	
4430	0	33044	
4431	0	33112	
4432	0	33228	
4433	0	33344	
4434	0	33436	
4435	0	33540	
4436	0	33648	
4437	0	33748	
4438	0	33872	
4439	0	33986	
4440	0	34080	
4441	0	34200	
4442	0	34256	
4443	0	34284	
4444	0	34352	
4445	0	34468	
4446	0	34520	
4447	0	34548	
4448	0	34572	
4449	0	34548	
4450	0	34460	
4451	0	34324	
4452	0	34190	
4453	0	34072	
4454	0	33918	
4455	0	33800	
4456	0	33688	
4457	0	33544	
4458	0	33484	
4459	0	33456	
4460	0	33384	
4461	0	33348	
4462	0	33360	
4463	0	33364	
4464	0	33333	
4465	0	33272	
4466	0	33228	
4467	0	33184	
4468	0	33172	
4469	0	33160	
4470	0	33124	
4471	0	33068	
4472	0	33018	
4473	0	32980	
4474	0	32988	
4475	0	33024	
4476	0	33064	
4477	0	33092	
4478	0	33096	
4479	0	33026	
4480	0	32956	
4481	0	32900	
4482	0	32868	
4483	0	32904	
4484	0	32928	
4485	0	32876	
4486	0	32800	
4487	0	32772	
4488	0	32760	
4489	0	32728	
4490	0	32660	
4491	0	32544	
4492	0	32488	
4493	0	32496	
4494	0	32508	
4495	0	32500	
4496	0	32498	
4497	0	32468	
4498	0	32424	
4499	0	32432	
4500	0	32436	
4501	0	32456	
4502	0	32476	
4503	0	32492	
4504	0	32512	
4505	0	32524	
4506	0	32524	
4507	0	32480	
4508	0	32408	
4509	0	32360	
4510	0	32344	
4511	0	32340	
4512	0	32356	
4513	0	32384	
4514	0	32392	
4515	0	32400	
4516	0	32384	
4517	0	32384	
4518	0	32376	
4519	0	32356	
4520	0	32344	
4521	0	32392	
4522	0	32472	
4523	0	32536	
4524	0	32584	
4525	0	32640	
4526	0	32652	
4527	0	32624	
4528	0	32616	
4529	0	32576	
4530	0	32544	
4531	0	32560	
4532	0	32616	
4533	0	32660	
4534	0	32668	
4535	0	32660	
4536	0	32608	
4537	0	32576	
4538	0	32536	
4539	0	32532	
4540	0	32572	
4541	0	32560	
4542	0	32508	
4543	0	32472	
4544	0	32480	
4545	0	32482	
4546	0	32460	
4547	0	32444	
4548	0	32392	
4549	0	32376	
4550	0	32414	
4551	0	32448	
4552	0	32492	
4553	0	32544	
4554	0	32570	
4555	0	32564	
4556	0	32552	
4557	0	32504	
4558	0	32456	
4559	0	32440	
4560	0	32480	
4561	0	32516	
4562	0	32556	
4563	0	32580	
4564	0	32640	
4565	0	32674	
4566	0	32688	
4567	0	32702	
4568	0	32704	
4569	0	32588	
4570	0	32516	
4571	0	32432	
4572	0	32298	
4573	0	32196	
4574	0	32192	
4575	0	32372	
4576	0	32616	
4577	0	32856	
4578	0	33176	
4579	0	33560	
4580	0	33920	
4581	0	34316	
4582	0	34636	
4583	0	34904	
4584	0	35176	
4585	0	35592	
4586	0	36204	
4587	0	37004	
4588	0	37920	
4589	0	38944	
4590	0	40144	
4591	0	41512	
4592	0	42976	
4593	0	44464	
4594	0	45936	
4595	0	47528	
4596	0	49128	
4597	0	50576	
4598	0	51768	
4599	0	52824	
4600	0	53784	
4601	0	54724	
4602	0	55828	
4603	0	56856	
4604	0	57592	
4605	0	57768	
4606	0	56904	
4607	0	54764	
4608	0	51744	
4609	0	48168	
4610	0	44312	
4611	0	40530	
4612	0	37112	
4613	0	34344	
4614	0	32352	
4615	0	31068	
4616	0	30320	
4617	0	29968	
4618	0	29792	
4619	0	29712	
4620	0	29696	
4621	0	29732	
4622	0	29732	
4623	0	29708	
4624	0	29704	
4625	0	29728	
4626	0	29780	
4627	0	29816	
4628	0	29872	
4629	0	30000	
4630	0	30208	
4631	0	30378	
4632	0	30524	
4633	0	30652	
4634	0	30772	
4635	0	30852	
4636	0	30896	
4637	0	30928	
4638	0	30944	
4639	0	30942	
4640	0	30920	
4641	0	30872	
4642	0	30844	
4643	0	30820	
4644	0	30800	
4645	0	30780	
4646	0	30764	
4647	0	30740	
4648	0	30736	
4649	0	30716	
4650	0	30680	
4651	0	30648	
4652	0	30648	
4653	0	30628	
4654	0	30624	
4655	0	30652	
4656	0	30720	
4657	0	30748	
4658	0	30764	
4659	0	30752	
4660	0	30744	
4661	0	30768	
4662	0	30784	
4663	0	30844	
4664	0	30872	
4665	0	30900	
4666	0	30932	
4667	0	30948	
4668	0	30968	
4669	0	30946	
4670	0	30932	
4671	0	30920	
4672	0	30948	
4673	0	31016	
4674	0	31124	
4675	0	31200	
4676	0	31266	
4677	0	31300	
4678	0	31336	
4679	0	31352	
4680	0	31392	
4681	0	31400	
4682	0	31320	
4683	0	31282	
4684	0	31288	
4685	0	31312	
4686	0	31360	
4687	0	31396	
4688	0	31432	
4689	0	31448	
4690	0	31464	
4691	0	31468	
4692	0	31432	
4693	0	31416	
4694	0	31424	
4695	0	31428	
4696	0	31428	
4697	0	31460	
4698	0	31476	
4699	0	31464	
4700	0	31512	
4701	0	31616	
4702	0	31688	
4703	0	31740	
4704	0	31792	
4705	0	31844	
4706	0	31872	
4707	0	31872	
4708	0	31844	
4709	0	31856	
4710	0	31848	
4711	0	31832	
4712	0	31828	
4713	0	31800	
4714	0	31772	
4715	0	31732	
4716	0	31736	
4717	0	31790	
4718	0	31824	
4719	0	31856	
4720	0	31874	
4721	0	31920	
4722	0	31992	
4723	0	32032	
4724	0	32076	
4725	0	32100	
4726	0	32096	
4727	0	32076	
4728	0	32048	
4729	0	32048	
4730	0	32040	
4731	0	32020	
4732	0	32000	
4733	0	31952	
4734	0	31952	
4735	0	32028	
4736	0	32130	
4737	0	32232	
4738	0	32308	
4739	0	32320	
4740	0	32328	
4741	0	32346	
4742	0	32418	
4743	0	32476	
4744	0	32524	
4745	0	32540	
4746	0	32576	
4747	0	32574	
4748	0	32560	
4749	0	32580	
4750	0	32576	
4751	0	32604	
4752	0	32608	
4753	0	32648	
4754	0	32708	
4755	0	32772	
4756	0	32820	
4757	0	32850	
4758	0	32884	
4759	0	32912	
4760	0	32932	
4761	0	32948	
4762	0	32960	
4763	0	32976	
4764	0	33004	
4765	0	33040	
4766	0	33024	
4767	0	33000	
4768	0	32954	
4769	0	32924	
4770	0	32912	
4771	0	32948	
4772	0	33020	
4773	0	33104	
4774	0	33160	
4775	0	33232	
4776	0	33240	
4777	0	33272	
4778	0	33276	
4779	0	33276	
4780	0	33268	
4781	0	33268	
4782	0	33276	
4783	0	33268	
4784	0	33336	
4785	0	33404	
4786	0	33420	
4787	0	33416	
4788	0	33424	
4789	0	33440	
4790	0	33452	
4791	0	33448	
4792	0	33484	
4793	0	33552	
4794	0	33592	
4795	0	33600	
4796	0	33616	
4797	0	33616	
4798	0	33624	
4799	0	33640	
4800	0	33666	
4801	0	33668	
4802	0	33684	
4803	0	33760	
4804	0	33824	
4805	0	33876	
4806	0	33944	
4807	0	33964	
4808	0	33952	
4809	0	33944	
4810	0	33970	
4811	0	34004	
4812	0	34072	
4813	0	34116	
4814	0	34174	
4815	0	34220	
4816	0	34268	
4817	0	34288	
4818	0	34252	
4819	0	34220	
4820	0	34184	
4821	0	34156	
4822	0	34184	
4823	0	34248	
4824	0	34264	
4825	0	34296	
4826	0	34376	
4827	0	34444	
4828	0	34504	
4829	0	34564	
4830	0	34624	
4831	0	34656	
4832	0	34664	
4833	0	34680	
4834	0	34688	
4835	0	34676	
4836	0	34672	
4837	0	34660	
4838	0	34624	
4839	0	34620	
4840	0	34648	
4841	0	34656	
4842	0	34700	
4843	0	34736	
4844	0	34754	
4845	0	34824	
4846	0	34896	
4847	0	34944	
4848	0	34964	
4849	0	34984	
4850	0	34968	
4851	0	34972	
4852	0	34960	
4853	0	34914	
4854	0	34936	
4855	0	35008	
4856	0	35096	
4857	0	35184	
4858	0	35236	
4859	0	35288	
4860	0	35320	
4861	0	35344	
4862	0	35348	
4863	0	35328	
4864	0	35284	
4865	0	35240	
4866	0	35220	
4867	0	35192	
4868	0	35232	
4869	0	35258	
4870	0	35256	
4871	0	35232	
4872	0	35168	
4873	0	35136	
4874	0	35096	
4875	0	35025	
4876	0	34956	
4877	0	34872	
4878	0	34776	
4879	0	34704	
4880	0	34624	
4881	0	34556	
4882	0	34480	
4883	0	34440	
4884	0	34416	
4885	0	34364	
4886	0	34284	
4887	0	34176	
4888	0	34028	
4889	0	33868	
4890	0	33688	
4891	0	33568	
4892	0	33476	
4893	0	33352	
4894	0	33192	
4895	0	33048	
4896	0	32936	
4897	0	32840	
4898	0	32692	
4899	0	32528	
4900	0	32385	
4901	0	32257	
4902	0	32152	
4903	0	32040	
4904	0	31968	
4905	0	31920	
4906	0	31840	
4907	0	31764	
4908	0	31708	
4909	0	31672	
4910	0	31612	
4911	0	31488	
4912	0	31352	
4913	0	31216	
4914	0	31112	
4915	0	31068	
4916	0	31036	
4917	0	30996	
4918	0	30956	
4919	0	30916	
4920	0	30816	
4921	0	30716	
4922	0	30620	
4923	0	30584	
4924	0	30540	
4925	0	30508	
4926	0	30428	
4927	0	30304	
4928	0	30196	
4929	0	30164	
4930	0	30136	
4931	0	30084	
4932	0	30076	
4933	0	30056	
4934	0	30044	
4935	0	30048	
4936	0	30060	
4937	0	30048	
4938	0	30096	
4939	0	30156	
4940	0	30220	
4941	0	30248	
4942	0	30216	
4943	0	30184	
4944	0	30156	
4945	0	30112	
4946	0	30108	
4947	0	30080	
4948	0	30122	
4949	0	30170	
4950	0	30204	
4951	0	30176	
4952	0	30176	
4953	0	30236	
4954	0	30306	
4955	0	30412	
4956	0	30472	
4957	0	30452	
4958	0	30456	
4959	0	30456	
4960	0	30468	
4961	0	30480	
4962	0	30460	
4963	0	30448	
4964	0	30464	
4965	0	30488	
4966	0	30516	
4967	0	30564	
4968	0	30616	
4969	0	30632	
4970	0	30628	
4971	0	30624	
4972	0	30620	
4973	0	30616	
4974	0	30580	
4975	0	30592	
4976	0	30624	
4977	0	30656	
4978	0	30652	
4979	0	30664	
4980	0	30700	
4981	0	30774	
4982	0	30800	
4983	0	30796	
4984	0	30816	
4985	0	30888	
4986	0	30952	
4987	0	31008	
4988	0	31006	
4989	0	30986	
4990	0	30954	
4991	0	30944	
4992	0	30928	
4993	0	30920	
4994	0	30968	
4995	0	30988	
4996	0	30992	
4997	0	31040	
4998	0	31088	
4999	0	31140	
5000	0	31136	
5001	0	31132	
5002	0	31112	
5003	0	31100	
5004	0	31112	
5005	0	31164	
5006	0	31192	
5007	0	31168	
5008	0	31120	
5009	0	31098	
5010	0	31116	
5011	0	31144	
5012	0	31120	
5013	0	31096	
5014	0	31100	
5015	0	31140	
5016	0	31128	
5017	0	31172	
5018	0	31210	
5019	0	31228	
5020	0	31236	
5021	0	31228	
5022	0	31248	
5023	0	31312	
5024	0	31376	
5025	0	31472	
5026	0	31528	
5027	0	31596	
5028	0	31622	
5029	0	31632	
5030	0	31636	
5031	0	31632	
5032	0	31652	
5033	0	31664	
5034	0	31656	
5035	0	31632	
5036	0	31592	
5037	0	31592	
5038	0	31572	
5039	0	31600	
5040	0	31668	
5041	0	31700	
5042	0	31704	
5043	0	31700	
5044	0	31708	
5045	0	31752	
5046	0	31812	
5047	0	31888	
5048	0	31904	
5049	0	31856	
5050	0	31808	
5051	0	31784	
5052	0	31776	
5053	0	31782	
5054	0	31768	
5055	0	31808	
5056	0	31808	
5057	0	31746	
5058	0	31720	
5059	0	31656	
5060	0	31612	
5061	0	31608	
5062	0	31636	
5063	0	31684	
5064	0	31716	
5065	0	31712	
5066	0	31716	
5067	0	31736	
5068	0	31760	
5069	0	31784	
5070	0	31852	
5071	0	31908	
5072	0	31968	
5073	0	32044	
5074	0	32112	
5075	0	32120	
5076	0	32092	
5077	0	32036	
5078	0	31936	
5079	0	31876	
5080	0	31836	
5081	0	31792	
5082	0	31728	
5083	0	31704	
5084	0	31648	
5085	0	31656	
5086	0	31708	
5087	0	31784	
5088	0	31828	
5089	0	31824	
5090	0	31832	
5091	0	31834	
5092	0	31876	
5093	0	31920	
5094	0	31944	
5095	0	31964	
5096	0	31996	
5097	0	32032	
5098	0	32096	
5099	0	32132	
5100	0	32128	
5101	0	32084	
5102	0	32080	
5103	0	32096	
5104	0	32120	
5105	0	32100	
5106	0	32108	
5107	0	32120	
5108	0	32140	
5109	0	32128	
5110	0	32068	
5111	0	32016	
5112	0	31968	
5113	0	31968	
5114	0	32004	
5115	0	32044	
5116	0	32064	
5117	0	32084	
5118	0	32112	
5119	0	32128	
5120	0	32096	
5121	0	32064	
5122	0	32056	
5123	0	32084	
5124	0	32120	
5125	0	32136	
5126	0	32168	
5127	0	32172	
5128	0	32144	
5129	0	32084	
5130	0	32008	
5131	0	31960	
5132	0	31944	
5133	0	31924	
5134	0	31930	
5135	0	31970	
5136	0	32040	
5137	0	32102	
5138	0	32112	
5139	0	32124	
5140	0	32192	
5141	0	32264	
5142	0	32306	
5143	0	32340	
5144	0	32324	
5145	0	32288	
5146	0	32274	
5147	0	32264	
5148	0	32244	
5149	0	32196	
5150	0	32144	
5151	0	32084	
5152	0	32052	
5153	0	32080	
5154	0	32124	
5155	0	32200	
5156	0	32272	
5157	0	32292	
5158	0	32288	
5159	0	32324	
5160	0	32344	
5161	0	32336	
5162	0	32384	
5163	0	32458	
5164	0	32476	
5165	0	32472	
5166	0	32468	
5167	0	32492	
5168	0	32480	
5169	0	32448	
5170	0	32444	
5171	0	32436	
5172	0	32460	
5173	0	32440	
5174	0	32392	
5175	0	32384	
5176	0	32408	
5177	0	32424	
5178	0	32424	
5179	0	32412	
5180	0	32376	
5181	0	32384	
5182	0	32420	
5183	0	32416	
5184	0	32458	
5185	0	32524	
5186	0	32576	
5187	0	32604	
5188	0	32592	
5189	0	32608	
5190	0	32584	
5191	0	32584	
5192	0	32572	
5193	0	32516	
5194	0	32480	
5195	0	32424	
5196	0	32356	
5197	0	32336	
5198	0	32332	
5199	0	32404	
5200	0	32472	
5201	0	32522	
5202	0	32564	
5203	0	32624	
5204	0	32672	
5205	0	32652	
5206	0	32588	
5207	0	32552	
5208	0	32576	
5209	0	32604	
5210	0	32640	
5211	0	32656	
5212	0	32640	
5213	0	32624	
5214	0	32584	
5215	0	32520	
5216	0	32512	
5217	0	32546	
5218	0	32568	
5219	0	32580	
5220	0	32660	
5221	0	32736	
5222	0	32824	
5223	0	32848	
5224	0	32864	
5225	0	32872	
5226	0	32930	
5227	0	33020	
5228	0	33120	
5229	0	33248	
5230	0	33320	
5231	0	33384	
5232	0	33434	
5233	0	33476	
5234	0	33500	
5235	0	33608	
5236	0	33732	
5237	0	33840	
5238	0	33968	
5239	0	34148	
5240	0	34280	
5241	0	34372	
5242	0	34432	
5243	0	34496	
5244	0	34556	
5245	0	34548	
5246	0	34560	
5247	0	34592	
5248	0	34568	
5249	0	34460	
5250	0	34356	
5251	0	34278	
5252	0	34196	
5253	0	34104	
5254	0	33980	
5255	0	33852	
5256	0	33728	
5257	0	33612	
5258	0	33496	
5259	0	33352	
5260	0	33208	
5261	0	33156	
5262	0	33164	
5263	0	33252	
5264	0	33320	
5265	0	33344	
5266	0	33348	
5267	0	33300	
5268	0	33292	
5269	0	33272	
5270	0	33250	
5271	0	33312	
5272	0	33392	
5273	0	33452	
5274	0	33480	
5275	0	33410	
5276	0	33312	
5277	0	33154	
5278	0	33074	
5279	0	33048	
5280	0	33016	
5281	0	32990	
5282	0	32864	
5283	0	32748	
5284	0	32632	
5285	0	32522	
5286	0	32440	
5287	0	32332	
5288	0	32256	
5289	0	32232	
5290	0	32208	
5291	0	32184	
5292	0	32168	
5293	0	32152	
5294	0	32076	
5295	0	32012	
5296	0	32012	
5297	0	32012	
5298	0	31996	
5299	0	32060	
5300	0	32148	
5301	0	32256	
5302	0	32288	
5303	0	32282	
5304	0	32272	
5305	0	32248	
5306	0	32244	
5307	0	32228	
5308	0	32176	
5309	0	32142	
5310	0	32128	
5311	0	32120	
5312	0	32096	
5313	0	32096	
5314	0	32088	
5315	0	32064	
5316	0	32120	
5317	0	32216	
5318	0	32308	
5319	0	32346	
5320	0	32340	
5321	0	32372	
5322	0	32372	
5323	0	32365	
5324	0	32320	
5325	0	32272	
5326	0	32236	
5327	0	32256	
5328	0	32260	
5329	0	32306	
5330	0	32332	
5331	0	32340	
5332	0	32288	
5333	0	32228	
5334	0	32196	
5335	0	32160	
5336	0	32132	
5337	0	32116	
5338	0	32072	
5339	0	32084	
5340	0	32122	
5341	0	32164	
5342	0	32224	
5343	0	32290	
5344	0	32328	
5345	0	32300	
5346	0	32330	
5347	0	32372	
5348	0	32412	
5349	0	32420	
5350	0	32384	
5351	0	32368	
5352	0	32380	
5353	0	32388	
5354	0	32368	
5355	0	32368	
5356	0	32312	
5357	0	32276	
5358	0	32280	
5359	0	32324	
5360	0	32400	
5361	0	32488	
5362	0	32536	
5363	0	32640	
5364	0	32740	
5365	0	32832	
5366	0	32866	
5367	0	32860	
5368	0	32832	
5369	0	32736	
5370	0	32476	
5371	0	32248	
5372	0	32120	
5373	0	32044	
5374	0	32044	
5375	0	32212	
5376	0	32496	
5377	0	32800	
5378	0	33048	
5379	0	33372	
5380	0	33676	
5381	0	33934	
5382	0	34148	
5383	0	34304	
5384	0	34536	
5385	0	34880	
5386	0	35368	
5387	0	36124	
5388	0	37048	
5389	0	38128	
5390	0	39296	
5391	0	40616	
5392	0	42116	
5393	0	43728	
5394	0	45416	
5395	0	47156	
5396	0	48936	
5397	0	50776	
5398	0	52408	
5399	0	53952	
5400	0	55208	
5401	0	56316	
5402	0	57468	
5403	0	58592	
5404	0	59644	
5405	0	60256	
5406	0	60096	
5407	0	58888	
5408	0	56560	
5409	0	53392	
5410	0	49626	
5411	0	45504	
5412	0	41472	
5413	0	37816	
5414	0	34772	
5415	0	32572	
5416	0	31112	
5417	0	30126	
5418	0	29450	
5419	0	29084	
5420	0	28880	
5421	0	28804	
5422	0	28888	
5423	0	29120	
5424	0	29376	
5425	0	29576	
5426	0	29700	
5427	0	29756	
5428	0	29808	
5429	0	29856	
5430	0	29948	
5431	0	30084	
5432	0	30280	
5433	0	30512	
5434	0	30712	
5435	0	30868	
5436	0	31008	
5437	0	31112	
5438	0	31160	
5439	0	31264	
5440	0	31328	
5441	0	31300	
5442	0	31280	
5443	0	31296	
5444	0	31312	
5445	0	31298	
5446	0	31252	
5447	0	31180	
5448	0	31136	
5449	0	31084	
5450	0	31044	
5451	0	31008	
5452	0	30970	
5453	0	30932	
5454	0	30884	
5455	0	30876	
5456	0	30944	
5457	0	30990	
5458	0	30992	
5459	0	31020	
5460	0	31064	
5461	0	31084	
5462	0	31112	
5463	0	31120	
5464	0	31140	
5465	0	31180	
5466	0	31188	
5467	0	31200	
5468	0	31244	
5469	0	31288	
5470	0	31280	
5471	0	31258	
5472	0	31212	
5473	0	31226	
5474	0	31192	
5475	0	31112	
5476	0	31084	
5477	0	31040	
5478	0	30964	
5479	0	30940	
5480	0	31000	
5481	0	31080	
5482	0	31160	
5483	0	31200	
5484	0	31204	
5485	0	31236	
5486	0	31264	
5487	0	31292	
5488	0	31296	
5489	0	31332	
5490	0	31432	
5491	0	31556	
5492	0	31674	
5493	0	31788	
5494	0	31860	
5495	0	31888	
5496	0	31914	
5497	0	31896	
5498	0	31932	
5499	0	31968	
5500	0	32000	
5501	0	32028	
5502	0	32044	
5503	0	32052	
5504	0	32028	
5505	0	32016	
5506	0	31996	
5507	0	31976	
5508	0	31968	
5509	0	31996	
5510	0	31984	
5511	0	31968	
5512	0	31928	
5513	0	31928	
5514	0	31956	
5515	0	32004	
5516	0	32024	
5517	0	32008	
5518	0	32028	
5519	0	32016	
5520	0	32016	
5521	0	32020	
5522	0	32016	
5523	0	32048	
5524	0	32018	
5525	0	32010	
5526	0	32064	
5527	0	32188	
5528	0	32288	
5529	0	32312	
5530	0	32264	
5531	0	32292	
5532	0	32408	
5533	0	32524	
5534	0	32544	
5535	0	32520	
5536	0	32516	
5537	0	32572	
5538	0	32656	
5539	0	32732	
5540	0	32772	
5541	0	32754	
5542	0	32732	
5543	0	32744	
5544	0	32764	
5545	0	32792	
5546	0	32768	
5547	0	32768	
5548	0	32752	
5549	0	32748	
5550	0	32756	
5551	0	32768	
5552	0	32824	
5553	0	32916	
5554	0	32984	
5555	0	33080	
5556	0	33200	
5557	0	33260	
5558	0	33328	
5559	0	33344	
5560	0	33292	
5561	0	33256	
5562	0	33268	
5563	0	33312	
5564	0	33260	
5565	0	33208	
5566	0	33200	
5567	0	33268	
5568	0	33328	
5569	0	33384	
5570	0	33428	
5571	0	33456	
5572	0	33456	
5573	0	33460	
5574	0	33492	
5575	0	33544	
5576	0	33600	
5577	0	33636	
5578	0	33652	
5579	0	33696	
5580	0	33728	
5581	0	33764	
5582	0	33772	
5583	0	33788	
5584	0	33804	
5585	0	33744	
5586	0	33672	
5587	0	33682	
5588	0	33708	
5589	0	33728	
5590	0	33692	
5591	0	33692	
5592	0	33712	
5593	0	33728	
5594	0	33762	
5595	0	33832	
5596	0	33904	
5597	0	33932	
5598	0	33940	
5599	0	33934	
5600	0	33992	
5601	0	34058	
5602	0	34064	
5603	0	34084	
5604	0	34120	
5605	0	34144	
5606	0	34096	
5607	0	34080	
5608	0	34100	
5609	0	34144	
5610	0	34184	
5611	0	34204	
5612	0	34236	
5613	0	34256	
5614	0	34296	
5615	0	34264	
5616	0	34298	
5617	0	34308	
5618	0	34324	
5619	0	34312	
5620	0	34320	
5621	0	34352	
5622	0	34356	
5623	0	34362	
5624	0	34384	
5625	0	34380	
5626	0	34360	
5627	0	34340	
5628	0	34304	
5629	0	34324	
5630	0	34388	
5631	0	34460	
5632	0	34516	
5633	0	34552	
5634	0	34584	
5635	0	34616	
5636	0	34696	
5637	0	34784	
5638	0	34842	
5639	0	34820	
5640	0	34792	
5641	0	34816	
5642	0	34860	
5643	0	34880	
5644	0	34908	
5645	0	34844	
5646	0	34736	
5647	0	34700	
5648	0	34786	
5649	0	34900	
5650	0	34948	
5651	0	34952	
5652	0	34948	
5653	0	34960	
5654	0	35036	
5655	0	35048	
5656	0	35042	
5657	0	35064	
5658	0	35104	
5659	0	35124	
5660	0	35120	
5661	0	35108	
5662	0	35120	
5663	0	35142	
5664	0	35164	
5665	0	35184	
5666	0	35172	
5667	0	35132	
5668	0	35060	
5669	0	35016	
5670	0	34996	
5671	0	34972	
5672	0	34920	
5673	0	34868	
5674	0	34772	
5675	0	34618	
5676	0	34516	
5677	0	34504	
5678	0	34500	
5679	0	34440	
5680	0	34364	
5681	0	34314	
5682	0	34272	
5683	0	34220	
5684	0	34120	
5685	0	33978	
5686	0	33806	
5687	0	33632	
5688	0	33484	
5689	0	33372	
5690	0	33228	
5691	0	33064	
5692	0	32968	
5693	0	32844	
5694	0	32768	
5695	0	32672	
5696	0	32560	
5697	0	32448	
5698	0	32352	
5699	0	32248	
5700	0	32128	
5701	0	32008	
5702	0	31872	
5703	0	31728	
5704	0	31604	
5705	0	31476	
5706	0	31388	
5707	0	31328	
5708	0	31244	
5709	0	31176	
5710	0	31084	
5711	0	30960	
5712	0	30840	
5713	0	30768	
5714	0	30696	
5715	0	30596	
5716	0	30468	
5717	0	30368	
5718	0	30256	
5719	0	30156	
5720	0	30072	
5721	0	30028	
5722	0	29954	
5723	0	29860	
5724	0	29766	
5725	0	29700	
5726	0	29664	
5727	0	29612	
5728	0	29584	
5729	0	29552	
5730	0	29514	
5731	0	29520	
5732	0	29564	
5733	0	29544	
5734	0	29552	
5735	0	29594	
5736	0	29668	
5737	0	29728	
5738	0	29788	
5739	0	29832	
5740	0	29834	
5741	0	29812	
5742	0	29780	
5743	0	29732	
5744	0	29680	
5745	0	29656	
5746	0	29660	
5747	0	29708	
5748	0	29716	
5749	0	29696	
5750	0	29716	
5751	0	29722	
5752	0	29704	
5753	0	29688	
5754	0	29684	
5755	0	29784	
5756	0	29890	
5757	0	29968	
5758	0	29997	
5759	0	30012	
5760	0	30048	
5761	0	30064	
5762	0	30040	
5763	0	29980	
5764	0	29944	
5765	0	29948	
5766	0	29960	
5767	0	29944	
5768	0	29974	
5769	0	29968	
5770	0	29972	
5771	0	30024	
5772	0	30028	
5773	0	30036	
5774	0	30116	
5775	0	30156	
5776	0	30144	
5777	0	30176	
5778	0	30248	
5779	0	30272	
5780	0	30284	
5781	0	30324	
5782	0	30364	
5783	0	30444	
5784	0	30478	
5785	0	30488	
5786	0	30532	
5787	0	30572	
5788	0	30570	
5789	0	30636	
5790	0	30700	
5791	0	30728	
5792	0	30728	
5793	0	30732	
5794	0	30776	
5795	0	30836	
5796	0	30896	
5797	0	30952	
5798	0	30974	
5799	0	30956	
5800	0	30952	
5801	0	30964	
5802	0	30976	
5803	0	30992	
5804	0	31016	
5805	0	31000	
5806	0	30932	
5807	0	30860	
5808	0	30816	
5809	0	30816	
5810	0	30836	
5811	0	30832	
5812	0	30786	
5813	0	30768	
5814	0	30780	
5815	0	30828	
5816	0	30916	
5817	0	31036	
5818	0	31144	
5819	0	31272	
5820	0	31344	
5821	0	31376	
5822	0	31436	
5823	0	31448	
5824	0	31416	
5825	0	31400	
5826	0	31424	
5827	0	31464	
5828	0	31476	
5829	0	31436	
5830	0	31380	
5831	0	31384	
5832	0	31420	
5833	0	31444	
5834	0	31456	
5835	0	31456	
5836	0	31432	
5837	0	31416	
5838	0	31428	
5839	0	31424	
5840	0	31460	
5841	0	31488	
5842	0	31520	
5843	0	31544	
5844	0	31520	
5845	0	31528	
5846	0	31540	
5847	0	31544	
5848	0	31572	
5849	0	31600	
5850	0	31612	
5851	0	31576	
5852	0	31600	
5853	0	31640	
5854	0	31652	
5855	0	31634	
5856	0	31616	
5857	0	31604	
5858	0	31612	
5859	0	31656	
5860	0	31708	
5861	0	31732	
5862	0	31748	
5863	0	31756	
5864	0	31712	
5865	0	31692	
5866	0	31688	
5867	0	31644	
5868	0	31696	
5869	0	31716	
5870	0	31712	
5871	0	31732	
5872	0	31732	
5873	0	31744	
5874	0	31804	
5875	0	31892	
5876	0	31952	
5877	0	31944	
5878	0	31888	
5879	0	31840	
5880	0	31808	
5881	0	31784	
5882	0	31748	
5883	0	31732	
5884	0	31768	
5885	0	31824	
5886	0	31858	
5887	0	31856	
5888	0	31856	
5889	0	31820	
5890	0	31824	
5891	0	31884	
5892	0	31936	
5893	0	31952	
5894	0	31908	
5895	0	31872	
5896	0	31876	
5897	0	31896	
5898	0	31896	
5899	0	31896	
5900	0	31864	
5901	0	31838	
5902	0	31804	
5903	0	31764	
5904	0	31744	
5905	0	31752	
5906	0	31768	
5907	0	31808	
5908	0	31820	
5909	0	31796	
5910	0	31748	
5911	0	31704	
5912	0	31664	
5913	0	31644	
5914	0	31660	
5915	0	31692	
5916	0	31696	
5917	0	31702	
5918	0	31720	
5919	0	31704	
5920	0	31736	
5921	0	31768	
5922	0	31824	
5923	0	31884	
5924	0	31924	
5925	0	31912	
5926	0	31920	
5927	0	31912	
5928	0	31930	
5929	0	31956	
5930	0	31992	
5931	0	32040	
5932	0	32060	
5933	0	32028	
5934	0	31976	
5935	0	31948	
5936	0	31936	
5937	0	31928	
5938	0	31912	
5939	0	31904	
5940	0	31936	
5941	0	31928	
5942	0	31876	
5943	0	31880	
5944	0	31906	
5945	0	31980	
5946	0	32076	
5947	0	32156	
5948	0	32220	
5949	0	32276	
5950	0	32340	
5951	0	32340	
5952	0	32336	
5953	0	32318	
5954	0	32328	
5955	0	32320	
5956	0	32312	
5957	0	32300	
5958	0	32304	
5959	0	32316	
5960	0	32296	
5961	0	32284	
5962	0	32212	
5963	0	32164	
5964	0	32108	
5965	0	32016	
5966	0	31976	
5967	0	31932	
5968	0	31916	
5969	0	31908	
5970	0	31892	
5971	0	31936	
5972	0	31960	
5973	0	32016	
5974	0	32080	
5975	0	32164	
5976	0	32236	
5977	0	32304	
5978	0	32320	
5979	0	32268	
5980	0	32264	
5981	0	32312	
5982	0	32344	
5983	0	32322	
5984	0	32284	
5985	0	32244	
5986	0	32216	
5987	0	32200	
5988	0	32192	
5989	0	32192	
5990	0	32160	
5991	0	32144	
5992	0	32146	
5993	0	32160	
5994	0	32108	
5995	0	32060	
5996	0	32026	
5997	0	32028	
5998	0	32072	
5999	0	32164	
6000	0	32220	
6001	0	32312	
6002	0	32408	
6003	0	32476	
6004	0	32556	
6005	0	32620	
6006	0	32652	
6007	0	32676	
6008	0	32672	
6009	0	32628	
6010	0	32560	
6011	0	32492	
6012	0	32402	
6013	0	32344	
6014	0	32298	
6015	0	32304	
6016	0	32316	
6017	0	32308	
6018	0	32352	
6019	0	32390	
6020	0	32400	
6021	0	32416	
6022	0	32414	
6023	0	32416	
6024	0	32480	
6025	0	32560	
6026	0	32620	
6027	0	32632	
6028	0	32564	
6029	0	32496	
6030	0	32480	
6031	0	32444	
6032	0	32424	
6033	0	32424	
6034	0	32416	
6035	0	32372	
6036	0	32340	
6037	0	32316	
6038	0	32356	
6039	0	32424	
6040	0	32540	
6041	0	32656	
6042	0	32800	
6043	0	32964	
6044	0	33058	
6045	0	33136	
6046	0	33200	
6047	0	33296	
6048	0	33376	
6049	0	33488	
6050	0	33648	
6051	0	33764	
6052	0	33856	
6053	0	33948	
6054	0	34034	
6055	0	34156	
6056	0	34292	
6057	0	34364	
6058	0	34400	
6059	0	34408	
6060	0	34360	
6061	0	34282	
6062	0	34196	
6063	0	34164	
6064	0	34104	
6065	0	34046	
6066	0	33992	
6067	0	33872	
6068	0	33688	
6069	0	33460	
6070	0	33268	
6071	0	33132	
6072	0	33008	
6073	0	32928	
6074	0	32848	
6075	0	32824	
6076	0	32850	
6077	0	32880	
6078	0	32900	
6079	0	32888	
6080	0	32858	
6081	0	32800	
6082	0	32714	
6083	0	32656	
6084	0	32624	
6085	0	32652	
6086	0	32684	
6087	0	32712	
6088	0	32696	
6089	0	32646	
6090	0	32628	
6091	0	32670	
6092	0	32696	
6093	0	32736	
6094	0	32736	
6095	0	32720	
6096	0	32780	
6097	0	32878	
6098	0	32964	
6099	0	32936	
6100	0	32864	
6101	0	32728	
6102	0	32628	
6103	0	32516	
6104	0	32380	
6105	0	32244	
6106	0	32164	
6107	0	32088	
6108	0	32096	
6109	0	32128	
6110	0	32218	
6111	0	32284	
6112	0	32274	
6113	0	32248	
6114	0	32220	
6115	0	32136	
6116	0	32076	
6117	0	32088	
6118	0	32138	
6119	0	32192	
6120	0	32240	
6121	0	32280	
6122	0	32306	
6123	0	32304	
6124	0	32290	
6125	0	32248	
6126	0	32172	
6127	0	32072	
6128	0	31984	
6129	0	31952	
6130	0	31960	
6131	0	31984	
6132	0	31992	
6133	0	32024	
6134	0	32044	
6135	0	32028	
6136	0	32060	
6137	0	32104	
6138	0	32164	
6139	0	32212	
6140	0	32200	
6141	0	32096	
6142	0	31988	
6143	0	32000	
6144	0	32144	
6145	0	32300	
6146	0	32372	
6147	0	32356	
6148	0	32312	
6149	0	32288	
6150	0	32248	
6151	0	32140	
6152	0	31976	
6153	0	31880	
6154	0	31852	
6155	0	31892	
6156	0	31916	
6157	0	31932	
6158	0	31984	
6159	0	32064	
6160	0	32114	
6161	0	32160	
6162	0	32250	
6163	0	32344	
6164	0	32424	
6165	0	32452	
6166	0	32440	
6167	0	32340	
6168	0	32288	
6169	0	32296	
6170	0	32364	
6171	0	32376	
6172	0	32364	
6173	0	32420	
6174	0	32508	
6175	0	32592	
6176	0	32700	
6177	0	32716	
6178	0	32704	
6179	0	32720	
6180	0	32672	
6181	0	32524	
6182	0	32412	
6183	0	32296	
6184	0	32184	
6185	0	32080	
6186	0	32132	
6187	0	32392	
6188	0	32752	
6189	0	33092	
6190	0	33452	
6191	0	33820	
6192	0	34100	
6193	0	34352	
6194	0	34528	
6195	0	34760	
6196	0	35140	
6197	0	35760	
6198	0	36552	
6199	0	37516	
6200	0	38648	
6201	0	39904	
6202	0	41328	
6203	0	42900	
6204	0	44528	
6205	0	46256	
6206	0	47992	
6207	0	49820	
6208	0	51704	
6209	0	53416	
6210	0	54944	
6211	0	56232	
6212	0	57328	
6213	0	58332	
6214	0	59464	
6215	0	60560	
6216	0	61296	
6217	0	61368	
6218	0	60368	
6219	0	58128	
6220	0	54904	
6221	0	51040	
6222	0	46784	
6223	0	42552	
6224	0	38748	
6225	0	35524	
6226	0	33020	
6227	0	31296	
6228	0	30020	
6229	0	29196	
6230	0	28740	
6231	0	28496	
6232	0	28352	
6233	0	28360	
6234	0	28544	
6235	0	28776	
6236	0	28930	
6237	0	29084	
6238	0	29232	
6239	0	29361	
6240	0	29480	
6241	0	29628	
6242	0	29824	
6243	0	29960	
6244	0	30056	
6245	0	30080	
6246	0	30108	
6247	0	30176	
6248	0	30204	
6249	0	30254	
6250	0	30328	
6251	0	30428	
6252	0	30506	
6253	0	30492	
6254	0	30478	
6255	0	30512	
6256	0	30572	
6257	0	30604	
6258	0	30588	
6259	0	30544	
6260	0	30496	
6261	0	30432	
6262	0	30456	
6263	0	30492	
6264	0	30492	
6265	0	30496	
6266	0	30548	
6267	0	30624	
6268	0	30688	
6269	0	30716	
6270	0	30724	
6271	0	30760	
6272	0	30732	
6273	0	30688	
6274	0	30628	
6275	0	30572	
6276	0	30544	
6277	0	30516	
6278	0	30488	
6279	0	30456	
6280	0	30456	
6281	0	30502	
6282	0	30540	
6283	0	30536	
6284	0	30536	
6285	0	30564	
6286	0	30540	
6287	0	30556	
6288	0	30664	
6289	0	30794	
6290	0	30892	
6291	0	30972	
6292	0	30956	
6293	0	30932	
6294	0	30932	
6295	0	30914	
6296	0	30888	
6297	0	30884	
6298	0	30884	
6299	0	30900	
6300	0	30904	
6301	0	30908	
6302	0	30936	
6303	0	31012	
6304	0	31088	
6305	0	31176	
6306	0	31264	
6307	0	31320	
6308	0	31396	
6309	0	31464	
6310	0	31494	
6311	0	31476	
6312	0	31468	
6313	0	31508	
6314	0	31588	
6315	0	31592	
6316	0	31520	
6317	0	31494	
6318	0	31504	
6319	0	31528	
6320	0	31524	
6321	0	31460	
6322	0	31416	
6323	0	31424	
6324	0	31476	
6325	0	31520	
6326	0	31596	
6327	0	31712	
6328	0	31772	
6329	0	31816	
6330	0	31836	
6331	0	31820	
6332	0	31848	
6333	0	31928	
6334	0	31992	
6335	0	31972	
6336	0	31952	
6337	0	31960	
6338	0	31920	
6339	0	32020	
6340	0	32084	
6341	0	32072	
6342	0	32120	
6343	0	32196	
6344	0	32320	
6345	0	32428	
6346	0	32508	
6347	0	32608	
6348	0	32712	
6349	0	32800	
6350	0	32836	
6351	0	32776	
6352	0	32712	
6353	0	32736	
6354	0	32704	
6355	0	32664	
6356	0	32640	
6357	0	32624	
6358	0	32608	
6359	0	32524	
6360	0	32552	
6361	0	32684	
6362	0	32800	
6363	0	32924	
6364	0	33068	
6365	0	33164	
6366	0	33240	
6367	0	33256	
6368	0	33240	
6369	0	33150	
6370	0	33008	
6371	0	32872	
6372	0	32764	
6373	0	32696	
6374	0	32704	
6375	0	32748	
6376	0	32796	
6377	0	32792	
6378	0	32824	
6379	0	32808	
6380	0	32804	
6381	0	32864	
6382	0	32968	
6383	0	33048	
6384	0	33120	
6385	0	33220	
6386	0	33386	
6387	0	33500	
6388	0	33584	
6389	0	33664	
6390	0	33724	
6391	0	33756	
6392	0	33760	
6393	0	33752	
6394	0	33712	
6395	0	33588	
6396	0	33460	
6397	0	33400	
6398	0	33472	
6399	0	33576	
6400	0	33632	
6401	0	33664	
6402	0	33744	
6403	0	33772	
6404	0	33796	
6405	0	33868	
6406	0	33928	
6407	0	34032	
6408	0	34064	
6409	0	33998	
6410	0	33952	
6411	0	33904	
6412	0	33832	
6413	0	33796	
6414	0	33800	
6415	0	33856	
6416	0	33916	
6417	0	34000	
6418	0	34088	
6419	0	34184	
6420	0	34232	
6421	0	34244	
6422	0	34192	
6423	0	34168	
6424	0	34164	
6425	0	34190	
6426	0	34140	
6427	0	34128	
6428	0	34152	
6429	0	34116	
6430	0	34068	
6431	0	34048	
6432	0	34072	
6433	0	34160	
6434	0	34208	
6435	0	34232	
6436	0	34244	
6437	0	34296	
6438	0	34336	
6439	0	34400	
6440	0	34460	
6441	0	34524	
6442	0	34588	
6443	0	34664	
6444	0	34728	
6445	0	34768	
6446	0	34792	
6447	0	34800	
6448	0	34804	
6449	0	34864	
6450	0	34892	
6451	0	34872	
6452	0	34796	
6453	0	34764	
6454	0	34788	
6455	0	34784	
6456	0	34784	
6457	0	34828	
6458	0	34880	
6459	0	34874	
6460	0	34868	
6461	0	34888	
6462	0	34912	
6463	0	34928	
6464	0	34940	
6465	0	34952	
6466	0	34952	
6467	0	34948	
6468	0	34908	
6469	0	34892	
6470	0	34892	
6471	0	34980	
6472	0	35068	
6473	0	35136	
6474	0	35136	
6475	0	35138	
6476	0	35116	
6477	0	35084	
6478	0	35064	
6479	0	35096	
6480	0	35100	
6481	0	35052	
6482	0	34932	
6483	0	34764	
6484	0	34624	
6485	0	34564	
6486	0	34580	
6487	0	34578	
6488	0	34500	
6489	0	34444	
6490	0	34468	
6491	0	34504	
6492	0	34400	
6493	0	34248	
6494	0	34144	
6495	0	33994	
6496	0	33900	
6497	0	33772	
6498	0	33598	
6499	0	33488	
6500	0	33408	
6501	0	33344	
6502	0	33260	
6503	0	33156	
6504	0	33020	
6505	0	32868	
6506	0	32692	
6507	0	32556	
6508	0	32416	
6509	0	32292	
6510	0	32180	
6511	0	32074	
6512	0	31962	
6513	0	31890	
6514	0	31868	
6515	0	31792	
6516	0	31736	
6517	0	31748	
6518	0	31696	
6519	0	31586	
6520	0	31390	
6521	0	31172	
6522	0	31044	
6523	0	30940	
6524	0	30818	
6525	0	30660	
6526	0	30532	
6527	0	30348	
6528	0	30176	
6529	0	30040	
6530	0	29950	
6531	0	29896	
6532	0	29892	
6533	0	29924	
6534	0	29900	
6535	0	29832	
6536	0	29804	
6537	0	29764	
6538	0	29702	
6539	0	29610	
6540	0	29546	
6541	0	29416	
6542	0	29368	
6543	0	29356	
6544	0	29376	
6545	0	29440	
6546	0	29520	
6547	0	29584	
6548	0	29596	
6549	0	29640	
6550	0	29632	
6551	0	29664	
6552	0	29712	
6553	0	29684	
6554	0	29626	
6555	0	29612	
6556	0	29664	
6557	0	29712	
6558	0	29744	
6559	0	29756	
6560	0	29776	
6561	0	29768	
6562	0	29712	
6563	0	29604	
6564	0	29544	
6565	0	29552	
6566	0	29660	
6567	0	29784	
6568	0	29860	
6569	0	29904	
6570	0	29976	
6571	0	30080	
6572	0	30144	
6573	0	30148	
6574	0	30140	
6575	0	30078	
6576	0	29984	
6577	0	29909	
6578	0	29896	
6579	0	29884	
6580	0	29872	
6581	0	29932	
6582	0	30034	
6583	0	30140	
6584	0	30224	
6585	0	30312	
6586	0	30424	
6587	0	30472	
6588	0	30452	
6589	0	30434	
6590	0	30448	
6591	0	30468	
6592	0	30528	
6593	0	30564	
6594	0	30652	
6595	0	30716	
6596	0	30764	
6597	0	30752	
6598	0	30624	
6599	0	30492	
6600	0	30404	
6601	0	30364	
6602	0	30332	
6603	0	30280	
6604	0	30324	
6605	0	30498	
6606	0	30676	
6607	0	30800	
6608	0	30788	
6609	0	30736	
6610	0	30720	
6611	0	30752	
6612	0	30816	
6613	0	30856	
6614	0	30916	
6615	0	30928	
6616	0	30900	
6617	0	30892	
6618	0	30880	
6619	0	30860	
6620	0	30956	
6621	0	31104	
6622	0	31296	
6623	0	31432	
6624	0	31508	
6625	0	31554	
6626	0	31524	
6627	0	31520	
6628	0	31516	
6629	0	31528	
6630	0	31448	
6631	0	31372	
6632	0	31320	
6633	0	31244	
6634	0	31244	
6635	0	31288	
6636	0	31340	
6637	0	31404	
6638	0	31488	
6639	0	31564	
6640	0	31636	
6641	0	31752	
6642	0	31836	
6643	0	31912	
6644	0	31960	
6645	0	31924	
6646	0	31912	
6647	0	31938	
6648	0	31900	
6649	0	31784	
6650	0	31680	
6651	0	31656	
6652	0	31712	
6653	0	31776	
6654	0	31876	
6655	0	31976	
6656	0	32088	
6657	0	32144	
6658	0	32140	
6659	0	32056	
6660	0	31994	
6661	0	31968	
6662	0	31920	
6663	0	31840	
6664	0	31720	
6665	0	31592	
6666	0	31488	
6667	0	31400	
6668	0	31384	
6669	0	31368	
6670	0	31364	
6671	0	31280	
6672	0	31268	
6673	0	31332	
6674	0	31366	
6675	0	31384	
6676	0	31436	
6677	0	31476	
6678	0	31528	
6679	0	31578	
6680	0	31600	
6681	0	31628	
6682	0	31704	
6683	0	31736	
6684	0	31756	
6685	0	31812	
6686	0	31872	
6687	0	31972	
6688	0	32064	
6689	0	32104	
6690	0	32088	
6691	0	32092	
6692	0	32096	
6693	0	32040	
6694	0	31948	
6695	0	31864	
6696	0	31824	
6697	0	31784	
6698	0	31744	
6699	0	31736	
6700	0	31736	
6701	0	31712	
6702	0	31668	
6703	0	31700	
6704	0	31784	
6705	0	31856	
6706	0	31864	
6707	0	31892	
6708	0	31880	
6709	0	31856	
6710	0	31888	
6711	0	31916	
6712	0	31932	
6713	0	31920	
6714	0	31800	
6715	0	31616	
6716	0	31504	
6717	0	31406	
6718	0	31362	
6719	0	31360	
6720	0	31392	
6721	0	31428	
6722	0	31504	
6723	0	31572	
6724	0	31588	
6725	0	31620	
6726	0	31638	
6727	0	31676	
6728	0	31744	
6729	0	31776	
6730	0	31800	
6731	0	31800	
6732	0	31812	
6733	0	31868	
6734	0	31924	
6735	0	31976	
6736	0	32024	
6737	0	32116	
6738	0	32124	
6739	0	32040	
6740	0	31920	
6741	0	31896	
6742	0	31868	
6743	0	31816	
6744	0	31792	
6745	0	31792	
6746	0	31796	
6747	0	31762	
6748	0	31740	
6749	0	31740	
6750	0	31824	
6751	0	31900	
6752	0	31968	
6753	0	32032	
6754	0	32120	
6755	0	32176	
6756	0	32160	
6757	0	32130	
6758	0	32120	
6759	0	32160	
6760	0	32180	
6761	0	32160	
6762	0	32152	
6763	0	32184	
6764	0	32208	
6765	0	32212	
6766	0	32212	
6767	0	32192	
6768	0	32212	
6769	0	32192	
6770	0	32168	
6771	0	32208	
6772	0	32186	
6773	0	32124	
6774	0	32096	
6775	0	32048	
6776	0	32096	
6777	0	32200	
6778	0	32256	
6779	0	32268	
6780	0	32296	
6781	0	32344	
6782	0	32392	
6783	0	32380	
6784	0	32312	
6785	0	32292	
6786	0	32300	
6787	0	32392	
6788	0	32440	
6789	0	32436	
6790	0	32444	
6791	0	32468	
6792	0	32508	
6793	0	32560	
6794	0	32712	
6795	0	32852	
6796	0	32940	
6797	0	32992	
6798	0	33012	
6799	0	33096	
6800	0	33196	
6801	0	33292	
6802	0	33442	
6803	0	33600	
6804	0	33696	
6805	0	33788	
6806	0	33896	
6807	0	34016	
6808	0	34090	
6809	0	34184	
6810	0	34312	
6811	0	34376	
6812	0	34456	
6813	0	34476	
6814	0	34428	
6815	0	34312	
6816	0	34208	
6817	0	34144	
6818	0	34106	
6819	0	34100	
6820	0	34104	
6821	0	34040	
6822	0	33972	
6823	0	33888	
6824	0	33816	
6825	0	33700	
6826	0	33540	
6827	0	33392	
6828	0	33288	
6829	0	33216	
6830	0	33060	
6831	0	32926	
6832	0	32844	
6833	0	32712	
6834	0	32676	
6835	0	32744	
6836	0	32856	
6837	0	32928	
6838	0	32932	
6839	0	32860	
6840	0	32732	
6841	0	32672	
6842	0	32670	
6843	0	32648	
6844	0	32608	
6845	0	32576	
6846	0	32552	
6847	0	32592	
6848	0	32668	
6849	0	32760	
6850	0	32748	
6851	0	32592	
6852	0	32476	
6853	0	32424	
6854	0	32288	
6855	0	32132	
6856	0	32016	
6857	0	31960	
6858	0	31960	
6859	0	31952	
6860	0	31984	
6861	0	32032	
6862	0	32076	
6863	0	32108	
6864	0	32188	
6865	0	32244	
6866	0	32160	
6867	0	32124	
6868	0	32124	
6869	0	32130	
6870	0	32168	
6871	0	32240	
6872	0	32248	
6873	0	32212	
6874	0	32160	
6875	0	32148	
6876	0	32204	
6877	0	32272	
6878	0	32296	
6879	0	32344	
6880	0	32372	
6881	0	32340	
6882	0	32296	
6883	0	32280	
6884	0	32280	
6885	0	32272	
6886	0	32276	
6887	0	32312	
6888	0	32328	
6889	0	32368	
6890	0	32468	
6891	0	32530	
6892	0	32530	
6893	0	32488	
6894	0	32416	
6895	0	32368	
6896	0	32296	
6897	0	32252	
6898	0	32268	
6899	0	32264	
6900	0	32232	
6901	0	32224	
6902	0	32248	
6903	0	32292	
6904	0	32344	
6905	0	32320	
6906	0	32292	
6907	0	32272	
6908	0	32260	
6909	0	32224	
6910	0	32180	
6911	0	32096	
6912	0	32048	
6913	0	32132	
6914	0	32312	
6915	0	32452	
6916	0	32560	
6917	0	32624	
6918	0	32692	
6919	0	32752	
6920	0	32768	
6921	0	32768	
6922	0	32776	
6923	0	32764	
6924	0	32732	
6925	0	32680	
6926	0	32620	
6927	0	32588	
6928	0	32576	
6929	0	32556	
6930	0	32620	
6931	0	32632	
6932	0	32616	
6933	0	32612	
6934	0	32608	
6935	0	32584	
6936	0	32512	
6937	0	32408	
6938	0	32264	
6939	0	32144	
6940	0	32108	
6941	0	32260	
6942	0	32544	
6943	0	32964	
6944	0	33440	
6945	0	34042	
6946	0	34654	
6947	0	35232	
6948	0	35732	
6949	0	36108	
6950	0	36432	
6951	0	36796	
6952	0	37412	
6953	0	38268	
6954	0	39348	
6955	0	40608	
6956	0	42032	
6957	0	43616	
6958	0	45274	
6959	0	47032	
6960	0	48800	
6961	0	50608	
6962	0	52508	
6963	0	54360	
6964	0	56136	
6965	0	57800	
6966	0	59244	
6967	0	60464	
6968	0	61680	
6969	0	62928	
6970	0	63808	
6971	0	64216	
6972	0	63960	
6973	0	62504	
6974	0	59816	
6975	0	56224	
6976	0	52092	
6977	0	47560	
6978	0	43024	
6979	0	38904	
6980	0	35532	
6981	0	32892	
6982	0	30916	
6983	0	29560	
6984	0	28730	
6985	0	28272	
6986	0	28080	
6987	0	28052	
6988	0	28192	
6989	0	28416	
6990	0	28642	
6991	0	28892	
6992	0	29148	
6993	0	29448	
6994	0	29772	
6995	0	29984	
6996	0	30108	
6997	0	30264	
6998	0	30472	
6999	0	30682	
7000	0	30788	
7001	0	30848	
7002	0	30942	
7003	0	30920	
7004	0	30946	
7005	0	30968	
7006	0	30960	
7007	0	30904	
7008	0	30888	
7009	0	30888	
7010	0	30852	
7011	0	30784	
7012	0	30740	
7013	0	30756	
7014	0	30812	
7015	0	30868	
7016	0	30920	
7017	0	30896	
7018	0	30840	
7019	0	30768	
7020	0	30712	
7021	0	30640	
7022	0	30592	
7023	0	30568	
7024	0	30570	
7025	0	30608	
7026	0	30656	
7027	0	30676	
7028	0	30652	
7029	0	30702	
7030	0	30760	
7031	0	30848	
7032	0	30896	
7033	0	30904	
7034	0	30876	
7035	0	30892	
7036	0	30980	
7037	0	31052	
7038	0	31120	
7039	0	31164	
7040	0	31176	
7041	0	31172	
7042	0	31172	
7043	0	31192	
7044	0	31232	
7045	0	31272	
7046	0	31280	
7047	0	31216	
7048	0	31156	
7049	0	31144	
7050	0	31112	
7051	0	31116	
7052	0	31108	
7053	0	31144	
7054	0	31208	
7055	0	31268	
7056	0	31296	
7057	0	31252	
7058	0	31256	
7059	0	31304	
7060	0	31360	
7061	0	31396	
7062	0	31472	
7063	0	31584	
7064	0	31674	
7065	0	31768	
7066	0	31828	
7067	0	31856	
7068	0	31832	
7069	0	31840	
7070	0	31860	
7071	0	31920	
7072	0	32000	
7073	0	32040	
7074	0	32108	
7075	0	32160	
7076	0	32228	
7077	0	32268	
7078	0	32248	
7079	0	32232	
7080	0	32228	
7081	0	32244	
7082	0	32236	
7083	0	32240	
7084	0	32348	
7085	0	32440	
7086	0	32480	
7087	0	32604	
7088	0	32692	
7089	0	32788	
7090	0	32792	
7091	0	32828	
7092	0	32824	
7093	0	32776	
7094	0	32664	
7095	0	32606	
7096	0	32564	
7097	0	32552	
7098	0	32552	
7099	0	32540	
7100	0	32536	
7101	0	32588	
7102	0	32656	
7103	0	32736	
7104	0	32776	
7105	0	32824	
7106	0	32948	
7107	0	33044	
7108	0	33100	
7109	0	33084	
7110	0	33064	
7111	0	33048	
7112	0	33004	
7113	0	32992	
7114	0	32996	
7115	0	33008	
7116	0	33088	
7117	0	33136	
7118	0	33176	
7119	0	33256	
7120	0	33348	
7121	0	33424	
7122	0	33492	
7123	0	33532	
7124	0	33584	
7125	0	33626	
7126	0	33652	
7127	0	33688	
7128	0	33724	
7129	0	33744	
7130	0	33694	
7131	0	33680	
7132	0	33668	
7133	0	33640	
7134	0	33580	
7135	0	33540	
7136	0	33516	
7137	0	33528	
7138	0	33596	
7139	0	33664	
7140	0	33688	
7141	0	33768	
7142	0	33804	
7143	0	33836	
7144	0	33848	
7145	0	33864	
7146	0	33904	
7147	0	33884	
7148	0	33888	
7149	0	33940	
7150	0	34020	
7151	0	34056	
7152	0	34088	
7153	0	34064	
7154	0	34088	
7155	0	34136	
7156	0	34180	
7157	0	34220	
7158	0	34224	
7159	0	34248	
7160	0	34276	
7161	0	34240	
7162	0	34176	
7163	0	34156	
7164	0	34112	
7165	0	34080	
7166	0	34128	
7167	0	34188	
7168	0	34264	
7169	0	34352	
7170	0	34468	
7171	0	34600	
7172	0	34712	
7173	0	34820	
7174	0	34912	
7175	0	34984	
7176	0	35048	
7177	0	35008	
7178	0	34892	
7179	0	34824	
7180	0	34828	
7181	0	34864	
7182	0	34860	
7183	0	34864	
7184	0	34868	
7185	0	34900	
7186	0	34960	
7187	0	35048	
7188	0	35116	
7189	0	35160	
7190	0	35136	
7191	0	35176	
7192	0	35150	
7193	0	35128	
7194	0	35144	
7195	0	35140	
7196	0	35140	
7197	0	35136	
7198	0	35114	
7199	0	35176	
7200	0	35264	
7201	0	35316	
7202	0	35356	
7203	0	35420	
7204	0	35412	
7205	0	35388	
7206	0	35376	
7207	0	35360	
7208	0	35372	
7209	0	35396	
7210	0	35432	
7211	0	35388	
7212	0	35356	
7213	0	35364	
7214	0	35412	
7215	0	35504	
7216	0	35564	
7217	0	35552	
7218	0	35556	
7219	0	35552	
7220	0	35552	
7221	0	35572	
7222	0	35576	
7223	0	35532	
7224	0	35460	
7225	0	35408	
7226	0	35384	
7227	0	35344	
7228	0	35272	
7229	0	35268	
7230	0	35260	
7231	0	35256	
7232	0	35232	
7233	0	35168	
7234	0	35084	
7235	0	35032	
7236	0	34968	
7237	0	34874	
7238	0	34860	
7239	0	34904	
7240	0	34908	
7241	0	34816	
7242	0	34748	
7243	0	34656	
7244	0	34528	
7245	0	34336	
7246	0	34152	
7247	0	34048	
7248	0	33964	
7249	0	33860	
7250	0	33752	
7251	0	33624	
7252	0	33460	
7253	0	33316	
7254	0	33192	
7255	0	33044	
7256	0	32912	
7257	0	32796	
7258	0	32704	
7259	0	32584	
7260	0	32478	
7261	0	32436	
7262	0	32380	
7263	0	32280	
7264	0	32090	
7265	0	31940	
7266	0	31788	
7267	0	31616	
7268	0	31456	
7269	0	31296	
7270	0	31104	
7271	0	30960	
7272	0	30812	
7273	0	30732	
7274	0	30664	
7275	0	30600	
7276	0	30600	
7277	0	30580	
7278	0	30552	
7279	0	30496	
7280	0	30384	
7281	0	30244	
7282	0	30184	
7283	0	30160	
7284	0	30136	
7285	0	30056	
7286	0	29944	
7287	0	29784	
7288	0	29624	
7289	0	29484	
7290	0	29388	
7291	0	29368	
7292	0	29366	
7293	0	29368	
7294	0	29392	
7295	0	29368	
7296	0	29336	
7297	0	29328	
7298	0	29352	
7299	0	29372	
7300	0	29360	
7301	0	29360	
7302	0	29344	
7303	0	29320	
7304	0	29340	
7305	0	29360	
7306	0	29348	
7307	0	29296	
7308	0	29204	
7309	0	29132	
7310	0	29104	
7311	0	29068	
7312	0	29052	
7313	0	29032	
7314	0	29056	
7315	0	29062	
7316	0	29112	
7317	0	29124	
7318	0	29144	
7319	0	29216	
7320	0	29346	
7321	0	29480	
7322	0	29568	
7323	0	29664	
7324	0	29720	
7325	0	29752	
7326	0	29768	
7327	0	29752	
7328	0	29736	
7329	0	29736	
7330	0	29768	
7331	0	29792	
7332	0	29808	
7333	0	29820	
7334	0	29820	
7335	0	29816	
7336	0	29808	
7337	0	29832	
7338	0	29856	
7339	0	29832	
7340	0	29848	
7341	0	29978	
7342	0	30128	
7343	0	30260	
7344	0	30312	
7345	0	30344	
7346	0	30396	
7347	0	30400	
7348	0	30376	
7349	0	30388	
7350	0	30416	
7351	0	30440	
7352	0	30420	
7353	0	30380	
7354	0	30364	
7355	0	30392	
7356	0	30448	
7357	0	30474	
7358	0	30504	
7359	0	30500	
7360	0	30512	
7361	0	30576	
7362	0	30656	
7363	0	30724	
7364	0	30846	
7365	0	30956	
7366	0	31016	
7367	0	31044	
7368	0	31080	
7369	0	31152	
7370	0	31264	
7371	0	31332	
7372	0	31392	
7373	0	31464	
7374	0	31512	
7375	0	31552	
7376	0	31520	
7377	0	31448	
7378	0	31356	
7379	0	31208	
7380	0	31136	
7381	0	31148	
7382	0	31246	
7383	0	31348	
7384	0	31392	
7385	0	31484	
7386	0	31522	
7387	0	31540	
7388	0	31508	
7389	0	31520	
7390	0	31528	
7391	0	31484	
7392	0	31460	
7393	0	31404	
7394	0	31344	
7395	0	31304	
7396	0	31306	
7397	0	31324	
7398	0	31336	
7399	0	31372	
7400	0	31444	
7401	0	31544	
7402	0	31608	
7403	0	31628	
7404	0	31628	
7405	0	31624	
7406	0	31648	
7407	0	31676	
7408	0	31708	
7409	0	31712	
7410	0	31684	
7411	0	31650	
7412	0	31636	
7413	0	31612	
7414	0	31604	
7415	0	31608	
7416	0	31616	
7417	0	31588	
7418	0	31584	
7419	0	31560	
7420	0	31548	
7421	0	31584	
7422	0	31636	
7423	0	31676	
7424	0	31692	
7425	0	31752	
7426	0	31772	
7427	0	31772	
7428	0	31776	
7429	0	31812	
7430	0	31856	
7431	0	31840	
7432	0	31816	
7433	0	31800	
7434	0	31776	
7435	0	31720	
7436	0	31676	
7437	0	31672	
7438	0	31636	
7439	0	31636	
7440	0	31628	
7441	0	31636	
7442	0	31636	
7443	0	31656	
7444	0	31688	
7445	0	31716	
7446	0	31728	
7447	0	31712	
7448	0	31676	
7449	0	31632	
7450	0	31600	
7451	0	31632	
7452	0	31680	
7453	0	31760	
7454	0	31800	
7455	0	31828	
7456	0	31816	
7457	0	31776	
7458	0	31760	
7459	0	31770	
7460	0	31776	
7461	0	31796	
7462	0	31836	
7463	0	31892	
7464	0	31960	
7465	0	32004	
7466	0	32056	
7467	0	32084	
7468	0	32088	
7469	0	32068	
7470	0	32000	
7471	0	31916	
7472	0	31864	
7473	0	31752	
7474	0	31628	
7475	0	31524	
7476	0	31476	
7477	0	31472	
7478	0	31504	
7479	0	31556	
7480	0	31572	
7481	0	31600	
7482	0	31664	
7483	0	31706	
7484	0	31700	
7485	0	31736	
7486	0	31816	
7487	0	31888	
7488	0	31976	
7489	0	32044	
7490	0	32086	
7491	0	32116	
7492	0	32176	
7493	0	32280	
7494	0	32320	
7495	0	32300	
7496	0	32236	
7497	0	32156	
7498	0	32080	
7499	0	32092	
7500	0	32116	
7501	0	32124	
7502	0	32088	
7503	0	32032	
7504	0	32064	
7505	0	32128	
7506	0	32180	
7507	0	32176	
7508	0	32130	
7509	0	32128	
7510	0	32152	
7511	0	32172	
7512	0	32296	
7513	0	32480	
7514	0	32612	
7515	0	32730	
7516	0	32864	
7517	0	33032	
7518	0	33236	
7519	0	33388	
7520	0	33464	
7521	0	33490	
7522	0	33496	
7523	0	33536	
7524	0	33576	
7525	0	33608	
7526	0	33678	
7527	0	33732	
7528	0	33840	
7529	0	33916	
7530	0	33940	
7531	0	33944	
7532	0	33944	
7533	0	33896	
7534	0	33786	
7535	0	33692	
7536	0	33562	
7537	0	33408	
7538	0	33296	
7539	0	33186	
7540	0	33092	
7541	0	33064	
7542	0	33052	
7543	0	33040	
7544	0	32976	
7545	0	32952	
7546	0	32976	
7547	0	32960	
7548	0	32928	
7549	0	32836	
7550	0	32728	
7551	0	32732	
7552	0	32720	
7553	0	32664	
7554	0	32624	
7555	0	32616	
7556	0	32608	
7557	0	32600	
7558	0	32668	
7559	0	32756	
7560	0	32752	
7561	0	32740	
7562	0	32642	
7563	0	32568	
7564	0	32492	
7565	0	32448	
7566	0	32432	
7567	0	32456	
7568	0	32488	
7569	0	32444	
7570	0	32332	
7571	0	32224	
7572	0	32128	
7573	0	32048	
7574	0	31956	
7575	0	31888	
7576	0	31802	
7577	0	31764	
7578	0	31812	
7579	0	31832	
7580	0	31792	
7581	0	31788	
7582	0	31784	
7583	0	31812	
7584	0	31840	
7585	0	31848	
7586	0	31784	
7587	0	31676	
7588	0	31628	
7589	0	31664	
7590	0	31660	
7591	0	31664	
7592	0	31696	
7593	0	31760	
7594	0	31816	
7595	0	31840	
7596	0	31816	
7597	0	31820	
7598	0	31880	
7599	0	31984	
7600	0	32068	
7601	0	32140	
7602	0	32160	
7603	0	32180	
7604	0	32176	
7605	0	32152	
7606	0	32136	
7607	0	32100	
7608	0	32052	
7609	0	32028	
7610	0	32052	
7611	0	32040	
7612	0	32040	
7613	0	32028	
7614	0	32024	
7615	0	31968	
7616	0	31936	
7617	0	31896	
7618	0	31860	
7619	0	31828	
7620	0	31832	
7621	0	31816	
7622	0	31844	
7623	0	31902	
7624	0	31992	
7625	0	32048	
7626	0	32064	
7627	0	32056	
7628	0	32064	
7629	0	32106	
7630	0	32188	
7631	0	32236	
7632	0	32236	
7633	0	32240	
7634	0	32264	
7635	0	32312	
7636	0	32352	
7637	0	32352	
7638	0	32352	
7639	0	32380	
7640	0	32428	
7641	0	32404	
7642	0	32320	
7643	0	32240	
7644	0	32248	
7645	0	32308	
7646	0	32290	
7647	0	32296	
7648	0	32336	
7649	0	32424	
7650	0	32496	
7651	0	32584	
7652	0	32664	
7653	0	32708	
7654	0	32712	
7655	0	32616	
7656	0	32512	
7657	0	32384	
7658	0	32300	
7659	0	32224	
7660	0	32232	
7661	0	32400	
7662	0	32744	
7663	0	33120	
7664	0	33498	
7665	0	33920	
7666	0	34280	
7667	0	34648	
7668	0	34976	
7669	0	35172	
7670	0	35432	
7671	0	35904	
7672	0	36564	
7673	0	37468	
7674	0	38632	
7675	0	40056	
7676	0	41616	
7677	0	43320	
7678	0	45082	
7679	0	46992	
7680	0	49036	
7681	0	51112	
7682	0	53140	
7683	0	55032	
7684	0	56712	
7685	0	58160	
7686	0	59436	
7687	0	60648	
7688	0	61940	
7689	0	63104	
7690	0	63772	
7691	0	64064	
7692	0	63696	
7693	0	61716	
7694	0	58620	
7695	0	54716	
7696	0	50248	
7697	0	45548	
7698	0	41112	
7699	0	37376	
7700	0	34460	
7701	0	32288	
7702	0	30724	
7703	0	29760	
7704	0	29192	
7705	0	28860	
7706	0	28706	
7707	0	28680	
7708	0	28740	
7709	0	28880	
7710	0	29036	
7711	0	29240	
7712	0	29464	
7713	0	29632	
7714	0	29820	
7715	0	30048	
7716	0	30284	
7717	0	30460	
7718	0	30568	
7719	0	30648	
7720	0	30690	
7721	0	30736	
7722	0	30748	
7723	0	30740	
7724	0	30714	
7725	0	30660	
7726	0	30572	
7727	0	30464	
7728	0	30376	
7729	0	30284	
7730	0	30192	
7731	0	30133	
7732	0	30128	
7733	0	30104	
7734	0	30116	
7735	0	30172	
7736	0	30256	
7737	0	30312	
7738	0	30340	
7739	0	30336	
7740	0	30344	
7741	0	30316	
7742	0	30272	
7743	0	30276	
7744	0	30308	
7745	0	30356	
7746	0	30428	
7747	0	30472	
7748	0	30528	
7749	0	30596	
7750	0	30628	
7751	0	30656	
7752	0	30636	
7753	0	30596	
7754	0	30532	
7755	0	30504	
7756	0	30516	
7757	0	30480	
7758	0	30440	
7759	0	30472	
7760	0	30532	
7761	0	30612	
7762	0	30656	
7763	0	30660	
7764	0	30696	
7765	0	30778	
7766	0	30804	
7767	0	30808	
7768	0	30816	
7769	0	30920	
7770	0	30976	
7771	0	31028	
7772	0	31060	
7773	0	31068	
7774	0	31092	
7775	0	31172	
7776	0	31256	
7777	0	31324	
7778	0	31376	
7779	0	31386	
7780	0	31424	
7781	0	31492	
7782	0	31528	
7783	0	31560	
7784	0	31576	
7785	0	31600	
7786	0	31634	
7787	0	31710	
7788	0	31784	
7789	0	31768	
7790	0	31792	
7791	0	31828	
7792	0	31840	
7793	0	31860	
7794	0	31896	
7795	0	31964	
7796	0	32028	
7797	0	32048	
7798	0	32064	
7799	0	32088	
7800	0	32040	
7801	0	32004	
7802	0	32032	
7803	0	32080	
7804	0	32088	
7805	0	32056	
7806	0	32036	
7807	0	32052	
7808	0	32076	
7809	0	32116	
7810	0	32200	
7811	0	32244	
7812	0	32228	
7813	0	32200	
7814	0	32176	
7815	0	32156	
7816	0	32200	
7817	0	32264	
7818	0	32256	
7819	0	32272	
7820	0	32260	
7821	0	32304	
7822	0	32348	
7823	0	32380	
7824	0	32392	
7825	0	32452	
7826	0	32520	
7827	0	32536	
7828	0	32556	
7829	0	32552	
7830	0	32596	
7831	0	32608	
7832	0	32644	
7833	0	32664	
7834	0	32712	
7835	0	32746	
7836	0	32748	
7837	0	32816	
7838	0	32836	
7839	0	32832	
7840	0	32800	
7841	0	32728	
7842	0	32664	
7843	0	32596	
7844	0	32622	
7845	0	32616	
7846	0	32600	
7847	0	32632	
7848	0	32740	
7849	0	32816	
7850	0	32896	
7851	0	32968	
7852	0	33030	
7853	0	33104	
7854	0	33136	
7855	0	33128	
7856	0	33164	
7857	0	33208	
7858	0	33204	
7859	0	33192	
7860	0	33196	
7861	0	33242	
7862	0	33292	
7863	0	33344	
7864	0	33388	
7865	0	33472	
7866	0	33576	
7867	0	33656	
7868	0	33688	
7869	0	33720	
7870	0	33756	
7871	0	33776	
7872	0	33764	
7873	0	33764	
7874	0	33772	
7875	0	33804	
7876	0	33840	
7877	0	33864	
7878	0	33868	
7879	0	33860	
7880	0	33828	
7881	0	33816	
7882	0	33828	
7883	0	33824	
7884	0	33812	
7885	0	33848	
7886	0	33892	
7887	0	34016	
7888	0	34120	
7889	0	34276	
7890	0	34330	
7891	0	34340	
7892	0	34332	
7893	0	34368	
7894	0	34436	
7895	0	34512	
7896	0	34532	
7897	0	34540	
7898	0	34608	
7899	0	34644	
7900	0	34680	
7901	0	34724	
7902	0	34736	
7903	0	34736	
7904	0	34724	
7905	0	34788	
7906	0	34856	
7907	0	34804	
7908	0	34732	
7909	0	34736	
7910	0	34808	
7911	0	34856	
7912	0	34888	
7913	0	34920	
7914	0	34996	
7915	0	35024	
7916	0	35028	
7917	0	35032	
7918	0	35056	
7919	0	35008	
7920	0	34986	
7921	0	34984	
7922	0	35016	
7923	0	35020	
7924	0	34992	
7925	0	35056	
7926	0	35164	
7927	0	35268	
7928	0	35324	
7929	0	35368	
7930	0	35396	
7931	0	35432	
7932	0	35396	
7933	0	35332	
7934	0	35256	
7935	0	35216	
7936	0	35192	
7937	0	35164	
7938	0	35188	
7939	0	35264	
7940	0	35348	
7941	0	35384	
7942	0	35416	
7943	0	35412	
7944	0	35380	
7945	0	35354	
7946	0	35364	
7947	0	35440	
7948	0	35476	
7949	0	35516	
7950	0	35492	
7951	0	35428	
7952	0	35296	
7953	0	35216	
7954	0	35130	
7955	0	35040	
7956	0	34944	
7957	0	34884	
7958	0	34838	
7959	0	34792	
7960	0	34712	
7961	0	34588	
7962	0	34396	
7963	0	34196	
7964	0	34096	
7965	0	34000	
7966	0	33864	
7967	0	33730	
7968	0	33608	
7969	0	33492	
7970	0	33344	
7971	0	33216	
7972	0	33100	
7973	0	32980	
7974	0	32828	
7975	0	32644	
7976	0	32512	
7977	0	32438	
7978	0	32388	
7979	0	32304	
7980	0	32164	
7981	0	32016	
7982	0	31872	
7983	0	31752	
7984	0	31600	
7985	0	31484	
7986	0	31340	
7987	0	31156	
7988	0	30964	
7989	0	30788	
7990	0	30660	
7991	0	30584	
7992	0	30524	
7993	0	30444	
7994	0	30352	
7995	0	30292	
7996	0	30214	
7997	0	30136	
7998	0	30112	
7999	0	30040	
8000	0	29948	
8001	0	29868	
8002	0	29812	
8003	0	29768	
8004	0	29716	
8005	0	29596	
8006	0	29536	
8007	0	29504	
8008	0	29456	
8009	0	29416	
8010	0	29396	
8011	0	29328	
8012	0	29244	
8013	0	29208	
8014	0	29180	
8015	0	29168	
8016	0	29184	
8017	0	29216	
8018	0	29232	
8019	0	29228	
8020	0	29252	
8021	0	29232	
8022	0	29186	
8023	0	29188	
8024	0	29196	
8025	0	29184	
8026	0	29176	
8027	0	29196	
8028	0	29242	
8029	0	29220	
8030	0	29216	
8031	0	29216	
8032	0	29204	
8033	0	29200	
8034	0	29256	
8035	0	29364	
8036	0	29468	
8037	0	29532	
8038	0	29564	
8039	0	29560	
8040	0	29572	
8041	0	29524	
8042	0	29432	
8043	0	29388	
8044	0	29380	
8045	0	29360	
8046	0	29308	
8047	0	29294	
8048	0	29310	
8049	0	29296	
8050	0	29328	
8051	0	29398	
8052	0	29432	
8053	0	29452	
8054	0	29492	
8055	0	29540	
8056	0	29584	
8057	0	29636	
8058	0	29664	
8059	0	29714	
8060	0	29784	
8061	0	29836	
8062	0	29924	
8063	0	29936	
8064	0	29928	
8065	0	29916	
8066	0	29920	
8067	0	29952	
8068	0	30028	
8069	0	30046	
8070	0	30028	
8071	0	30100	
8072	0	30152	
8073	0	30176	
8074	0	30216	
8075	0	30292	
8076	0	30368	
8077	0	30432	
8078	0	30492	
8079	0	30464	
8080	0	30476	
8081	0	30480	
8082	0	30484	
8083	0	30482	
8084	0	30500	
8085	0	30514	
8086	0	30508	
8087	0	30500	
8088	0	30492	
8089	0	30456	
8090	0	30428	
8091	0	30432	
8092	0	30480	
8093	0	30536	
8094	0	30604	
8095	0	30660	
8096	0	30756	
8097	0	30824	
8098	0	30844	
8099	0	30880	
8100	0	30952	
8101	0	31008	
8102	0	30968	
8103	0	30894	
8104	0	30864	
8105	0	30900	
8106	0	30968	
8107	0	30960	
8108	0	30938	
8109	0	30924	
8110	0	30938	
8111	0	30924	
8112	0	30928	
8113	0	31000	
8114	0	31064	
8115	0	31060	
8116	0	31028	
8117	0	31032	
8118	0	31028	
8119	0	31028	
8120	0	31004	
8121	0	31012	
8122	0	31068	
8123	0	31100	
8124	0	31136	
8125	0	31162	
8126	0	31184	
8127	0	31220	
8128	0	31286	
8129	0	31352	
8130	0	31348	
8131	0	31336	
8132	0	31280	
8133	0	31216	
8134	0	31224	
8135	0	31292	
8136	0	31332	
8137	0	31364	
8138	0	31392	
8139	0	31408	
8140	0	31404	
8141	0	31376	
8142	0	31376	
8143	0	31380	
8144	0	31384	
8145	0	31426	
8146	0	31440	
8147	0	31456	
8148	0	31484	
8149	0	31496	
8150	0	31522	
8151	0	31560	
8152	0	31560	
8153	0	31526	
8154	0	31464	
8155	0	31444	
8156	0	31450	
8157	0	31490	
8158	0	31504	
8159	0	31548	
8160	0	31600	
8161	0	31592	
8162	0	31544	
8163	0	31488	
8164	0	31476	
8165	0	31456	
8166	0	31432	
8167	0	31376	
8168	0	31304	
8169	0	31272	
8170	0	31276	
8171	0	31304	
8172	0	31336	
8173	0	31368	
8174	0	31420	
8175	0	31520	
8176	0	31544	
8177	0	31560	
8178	0	31556	
8179	0	31548	
8180	0	31540	
8181	0	31536	
8182	0	31576	
8183	0	31632	
8184	0	31688	
8185	0	31724	
8186	0	31788	
8187	0	31858	
8188	0	31902	
8189	0	31898	
8190	0	31908	
8191	0	31952	
8192	0	31952	
8193	0	31928	
8194	0	31876	
8195	0	31842	
8196	0	31780	
8197	0	31696	
8198	0	31652	
8199	0	31664	
8200	0	31696	
8201	0	31740	
8202	0	31772	
8203	0	31812	
8204	0	31820	
8205	0	31828	
8206	0	31852	
8207	0	31864	
8208	0	31896	
8209	0	31916	
8210	0	31904	
8211	0	31872	
8212	0	31832	
8213	0	31808	
8214	0	31808	
8215	0	31868	
8216	0	31972	
8217	0	32044	
8218	0	32016	
8219	0	32000	
8220	0	31996	
8221	0	32036	
8222	0	32088	
8223	0	32136	
8224	0	32156	
8225	0	32160	
8226	0	32112	
8227	0	32072	
8228	0	32062	
8229	0	32032	
8230	0	32028	
8231	0	32052	
8232	0	32084	
8233	0	32068	
8234	0	32072	
8235	0	32096	
8236	0	32096	
8237	0	32084	
8238	0	32088	
8239	0	32052	
8240	0	31992	
8241	0	31952	
8242	0	31936	
8243	0	31928	
8244	0	31944	
8245	0	31976	
8246	0	31992	
8247	0	32004	
8248	0	32032	
8249	0	32072	
8250	0	32104	
8251	0	32184	
8252	0	32224	
8253	0	32172	
8254	0	32136	
8255	0	32188	
8256	0	32268	
8257	0	32256	
8258	0	32208	
8259	0	32152	
8260	0	32108	
8261	0	32052	
8262	0	32042	
8263	0	32128	
8264	0	32160	
8265	0	32176	
8266	0	32144	
8267	0	32132	
8268	0	32120	
8269	0	32128	
8270	0	32140	
8271	0	32156	
8272	0	32212	
8273	0	32248	
8274	0	32248	
8275	0	32304	
8276	0	32348	
8277	0	32364	
8278	0	32392	
8279	0	32488	
8280	0	32548	
8281	0	32576	
8282	0	32512	
8283	0	32396	
8284	0	32364	
8285	0	32360	
8286	0	32364	
8287	0	32344	
8288	0	32284	
8289	0	32260	
8290	0	32272	
8291	0	32266	
8292	0	32232	
8293	0	32276	
8294	0	32288	
8295	0	32272	
8296	0	32260	
8297	0	32232	
8298	0	32236	
8299	0	32288	
8300	0	32456	
8301	0	32620	
8302	0	32724	
8303	0	32762	
8304	0	32832	
8305	0	32976	
8306	0	33172	
8307	0	33314	
8308	0	33480	
8309	0	33648	
8310	0	33780	
8311	0	33912	
8312	0	34016	
8313	0	34144	
8314	0	34260	
8315	0	34344	
8316	0	34340	
8317	0	34252	
8318	0	34108	
8319	0	33972	
8320	0	33866	
8321	0	33788	
8322	0	33696	
8323	0	33580	
8324	0	33476	
8325	0	33404	
8326	0	33316	
8327	0	33188	
8328	0	33136	
8329	0	33152	
8330	0	33148	
8331	0	33096	
8332	0	33024	
8333	0	32988	
8334	0	32980	
8335	0	32980	
8336	0	32928	
8337	0	32912	
8338	0	32932	
8339	0	32940	
8340	0	32928	
8341	0	32948	
8342	0	32932	
8343	0	32884	
8344	0	32842	
8345	0	32796	
8346	0	32740	
8347	0	32728	
8348	0	32696	
8349	0	32664	
8350	0	32640	
8351	0	32640	
8352	0	32588	
8353	0	32516	
8354	0	32484	
8355	0	32532	
8356	0	32572	
8357	0	32572	
8358	0	32560	
8359	0	32520	
8360	0	32416	
8361	0	32332	
8362	0	32320	
8363	0	32296	
8364	0	32244	
8365	0	32184	
8366	0	32140	
8367	0	32100	
8368	0	32072	
8369	0	32052	
8370	0	32076	
8371	0	32122	
8372	0	32148	
8373	0	32120	
8374	0	32028	
8375	0	31946	
8376	0	31892	
8377	0	31864	
8378	0	31908	
8379	0	31968	
8380	0	32032	
8381	0	32112	
8382	0	32172	
8383	0	32212	
8384	0	32238	
8385	0	32256	
8386	0	32252	
8387	0	32216	
8388	0	32212	
8389	0	32208	
8390	0	32160	
8391	0	32068	
8392	0	32016	
8393	0	32008	
8394	0	32004	
8395	0	32048	
8396	0	32136	
8397	0	32208	
8398	0	32244	
8399	0	32256	
8400	0	32298	
8401	0	32316	
8402	0	32300	
8403	0	32292	
8404	0	32336	
8405	0	32364	
8406	0	32356	
8407	0	32320	
8408	0	32296	
8409	0	32272	
8410	0	32280	
8411	0	32288	
8412	0	32308	
8413	0	32290	
8414	0	32272	
8415	0	32296	
8416	0	32332	
8417	0	32324	
8418	0	32332	
8419	0	32352	
8420	0	32408	
8421	0	32524	
8422	0	32564	
8423	0	32544	
8424	0	32528	
8425	0	32560	
8426	0	32608	
8427	0	32596	
8428	0	32568	
8429	0	32592	
8430	0	32652	
8431	0	32664	
8432	0	32696	
8433	0	32732	
8434	0	32784	
8435	0	32824	
8436	0	32836	
8437	0	32848	
8438	0	32818	
8439	0	32746	
8440	0	32612	
8441	0	32456	
8442	0	32320	
8443	0	32220	
8444	0	32296	
8445	0	32576	
8446	0	32956	
8447	0	33328	
8448	0	33764	
8449	0	34284	
8450	0	34752	
8451	0	35144	
8452	0	35424	
8453	0	35588	
8454	0	35900	
8455	0	36456	
8456	0	37240	
8457	0	38168	
8458	0	39348	
8459	0	40780	
8460	0	42352	
8461	0	44028	
8462	0	45836	
8463	0	47792	
8464	0	49868	
8465	0	51932	
8466	0	53912	
8467	0	55796	
8468	0	57468	
8469	0	58960	
8470	0	60312	
8471	0	61620	
8472	0	62952	
8473	0	63888	
8474	0	64336	
8475	0	64516	
8476	0	64560	
8477	0	62416	
8478	0	58860	
8479	0	54720	
8480	0	50112	
8481	0	45392	
8482	0	41124	
8483	0	37588	
8484	0	34836	
8485	0	32872	
8486	0	31516	
8487	0	30608	
8488	0	29980	
8489	0	29576	
8490	0	29328	
8491	0	29226	
8492	0	29172	
8493	0	29164	
8494	0	29220	
8495	0	29320	
8496	0	29432	
8497	0	29576	
8498	0	29780	
8499	0	29996	
8500	0	30220	
8501	0	30444	
8502	0	30644	
8503	0	30784	
8504	0	30864	
8505	0	30912	
8506	0	30960	
8507	0	30946	
8508	0	30940	
8509	0	30908	
8510	0	30836	
8511	0	30756	
8512	0	30688	
8513	0	30624	
8514	0	30556	
8515	0	30444	
8516	0	30354	
8517	0	30296	
8518	0	30240	
8519	0	30188	
8520	0	30152	
8521	0	30160	
8522	0	30156	
8523	0	30132	
8524	0	30104	
8525	0	30064	
8526	0	30048	
8527	0	30088	
8528	0	30168	
8529	0	30220	
8530	0	30276	
8531	0	30324	
8532	0	30304	
8533	0	30360	
8534	0	30452	
8535	0	30520	
8536	0	30516	
8537	0	30504	
8538	0	30512	
8539	0	30512	
8540	0	30524	
8541	0	30496	
8542	0	30528	
8543	0	30592	
8544	0	30684	
8545	0	30738	
8546	0	30792	
8547	0	30770	
8548	0	30744	
8549	0	30732	
8550	0	30688	
8551	0	30680	
8552	0	30736	
8553	0	30796	
8554	0	30852	
8555	0	30920	
8556	0	30956	
8557	0	30964	
8558	0	30988	
8559	0	31042	
8560	0	31116	
8561	0	31148	
8562	0	31172	
8563	0	31172	
8564	0	31180	
8565	0	31256	
8566	0	31308	
8567	0	31360	
8568	0	31392	
8569	0	31404	
8570	0	31380	
8571	0	31392	
8572	0	31444	
8573	0	31516	
8574	0	31572	
8575	0	31508	
8576	0	31498	
8577	0	31452	
8578	0	31476	
8579	0	31600	
8580	0	31696	
8581	0	31768	
8582	0	31824	
8583	0	31856	
8584	0	31952	
8585	0	32080	
8586	0	32128	
8587	0	32128	
8588	0	32156	
8589	0	32180	
8590	0	32184	
8591	0	32188	
