# OpenSignals Text File Format. Version 1
# {"00:07:80:4B:15:F7": {"position": 0, "device": "biosignalsplux", "device name": "00:07:80:4B:15:F7", "device connection": "BTH00:07:80:4B:15:F7", "sampling rate": 1000, "resolution": [16], "firmware version": 775, "comments": "", "keywords": "", "mode": 0, "sync interval": 2, "date": "2023-4-12", "time": "15:28:52.192", "channels": [1], "sensor": ["ECG"], "label": ["CH1"], "column": ["nSeq", "DI", "CH1"], "special": [{"SpO2": [80, 40, 5, 4, 3, 3]}, {"SpO2": [80, 40, 5, 4, 3, 3]}, {"SpO2": [80, 40, 5, 4, 3, 3]}, {"SpO2": [80, 40, 5, 4, 3, 3]}, {"SpO2": [80, 40, 5, 4, 3, 3]}, {"SpO2": [80, 40, 5, 4, 3, 3]}, {"SpO2": [80, 40, 5, 4, 3, 3]}, {"SpO2": [80, 40, 5, 4, 3, 3]}], "digital IO": [0, 1], "sleeve color": ["green"], "convertedValues": 0}}
# EndOfHeader
0	0	32512	
1	0	32500	
2	0	32540	
3	0	32580	
4	0	32586	
5	0	32658	
6	0	32728	
7	0	32864	
8	0	32948	
9	0	32980	
10	0	33072	
11	0	33228	
12	0	33428	
13	0	33608	
14	0	33760	
15	0	33884	
16	0	33920	
17	0	33932	
18	0	33900	
19	0	33864	
20	0	33824	
21	0	33762	
22	0	33690	
23	0	33640	
24	0	33584	
25	0	33528	
26	0	33536	
27	0	33616	
28	0	33724	
29	0	33884	
30	0	34088	
31	0	34308	
32	0	34528	
33	0	34836	
34	0	35164	
35	0	35524	
36	0	35916	
37	0	36212	
38	0	36440	
39	0	36592	
40	0	36732	
41	0	36872	
42	0	36860	
43	0	36756	
44	0	36704	
45	0	36640	
46	0	36536	
47	0	36396	
48	0	36224	
49	0	36080	
50	0	36008	
51	0	35964	
52	0	35948	
53	0	35900	
54	0	35916	
55	0	35908	
56	0	35912	
57	0	35832	
58	0	35796	
59	0	35784	
60	0	35744	
61	0	35712	
62	0	35712	
63	0	35660	
64	0	35496	
65	0	35224	
66	0	34964	
67	0	34624	
68	0	34264	
69	0	33932	
70	0	33608	
71	0	33124	
72	0	32552	
73	0	32012	
74	0	31624	
75	0	31400	
76	0	31232	
77	0	31072	
78	0	30960	
79	0	30848	
80	0	30816	
81	0	30808	
82	0	30852	
83	0	30788	
84	0	30724	
85	0	30688	
86	0	30688	
87	0	30624	
88	0	30472	
89	0	30240	
90	0	30056	
91	0	29904	
92	0	29816	
93	0	29788	
94	0	29788	
95	0	29788	
96	0	29782	
97	0	29808	
98	0	29860	
99	0	29884	
100	0	29840	
101	0	29754	
102	0	29744	
103	0	29792	
104	0	29804	
105	0	29792	
106	0	29792	
107	0	29856	
108	0	29928	
109	0	30000	
110	0	30064	
111	0	30138	
112	0	30124	
113	0	30078	
114	0	30044	
115	0	30052	
116	0	30082	
117	0	30164	
118	0	30276	
119	0	30352	
120	0	30320	
121	0	30292	
122	0	30272	
123	0	30232	
124	0	30128	
125	0	29996	
126	0	29872	
127	0	29764	
128	0	29656	
129	0	29484	
130	0	29144	
131	0	28580	
132	0	27940	
133	0	27288	
134	0	26604	
135	0	25872	
136	0	25168	
137	0	24676	
138	0	24412	
139	0	24290	
140	0	24452	
141	0	24890	
142	0	25544	
143	0	26262	
144	0	27128	
145	0	28384	
146	0	30136	
147	0	32300	
148	0	34816	
149	0	37556	
150	0	40496	
151	0	43592	
152	0	46900	
153	0	50496	
154	0	54228	
155	0	58056	
156	0	61296	
157	0	63064	
158	0	63980	
159	0	64412	
160	0	64584	
161	0	64640	
162	0	64584	
163	0	64504	
164	0	64424	
165	0	64304	
166	0	64192	
167	0	56212	
168	0	49232	
169	0	43392	
170	0	38352	
171	0	33576	
172	0	29418	
173	0	26452	
174	0	24548	
175	0	23240	
176	0	22136	
177	0	21034	
178	0	19816	
179	0	18596	
180	0	17376	
181	0	16330	
182	0	15424	
183	0	14732	
184	0	14296	
185	0	14210	
186	0	14214	
187	0	14208	
188	0	14330	
189	0	14628	
190	0	15140	
191	0	15850	
192	0	16644	
193	0	17348	
194	0	18066	
195	0	18796	
196	0	19556	
197	0	20326	
198	0	21024	
199	0	21632	
200	0	22364	
201	0	23188	
202	0	24004	
203	0	24776	
204	0	25504	
205	0	26200	
206	0	26892	
207	0	27526	
208	0	28096	
209	0	28636	
210	0	29098	
211	0	29476	
212	0	29764	
213	0	29980	
214	0	30108	
215	0	30216	
216	0	30344	
217	0	30376	
218	0	30381	
219	0	30500	
220	0	30608	
221	0	30656	
222	0	30666	
223	0	30664	
224	0	30736	
225	0	30816	
226	0	30860	
227	0	30916	
228	0	30968	
229	0	31032	
230	0	31108	
231	0	31160	
232	0	31252	
233	0	31352	
234	0	31464	
235	0	31528	
236	0	31588	
237	0	31636	
238	0	31616	
239	0	31580	
240	0	31544	
241	0	31536	
242	0	31644	
243	0	31776	
244	0	31936	
245	0	32034	
246	0	32052	
247	0	32068	
248	0	32002	
249	0	31912	
250	0	31894	
251	0	31892	
252	0	31952	
253	0	32030	
254	0	32092	
255	0	32156	
256	0	32280	
257	0	32416	
258	0	32456	
259	0	32416	
260	0	32396	
261	0	32360	
262	0	32336	
263	0	32392	
264	0	32480	
265	0	32608	
266	0	32752	
267	0	32976	
268	0	33172	
269	0	33320	
270	0	33412	
271	0	33432	
272	0	33460	
273	0	33504	
274	0	33608	
275	0	33664	
276	0	33584	
277	0	33320	
278	0	33040	
279	0	32876	
280	0	32796	
281	0	32824	
282	0	32818	
283	0	32876	
284	0	33008	
285	0	33148	
286	0	33248	
287	0	33316	
288	0	33396	
289	0	33442	
290	0	33476	
291	0	33468	
292	0	33416	
293	0	33512	
294	0	33650	
295	0	33768	
296	0	33892	
297	0	34060	
298	0	34224	
299	0	34312	
300	0	34248	
301	0	34112	
302	0	34068	
303	0	34024	
304	0	33932	
305	0	33888	
306	0	33860	
307	0	33960	
308	0	34076	
309	0	34080	
310	0	34044	
311	0	34036	
312	0	34060	
313	0	34124	
314	0	34188	
315	0	34184	
316	0	34164	
317	0	34088	
318	0	34028	
319	0	34090	
320	0	34228	
321	0	34408	
322	0	34576	
323	0	34740	
324	0	34788	
325	0	34720	
326	0	34650	
327	0	34664	
328	0	34720	
329	0	34744	
330	0	34744	
331	0	34764	
332	0	34784	
333	0	34720	
334	0	34608	
335	0	34544	
336	0	34440	
337	0	34176	
338	0	33892	
339	0	33680	
340	0	33664	
341	0	33776	
342	0	33992	
343	0	34220	
344	0	34352	
345	0	34472	
346	0	34656	
347	0	34808	
348	0	34900	
349	0	34824	
350	0	34748	
351	0	34704	
352	0	34632	
353	0	34572	
354	0	34580	
355	0	34544	
356	0	34352	
357	0	34252	
358	0	34328	
359	0	34440	
360	0	34612	
361	0	34804	
362	0	34904	
363	0	34838	
364	0	34740	
365	0	34640	
366	0	34400	
367	0	34148	
368	0	34012	
369	0	33968	
370	0	34056	
371	0	34200	
372	0	34332	
373	0	34528	
374	0	34692	
375	0	34660	
376	0	34536	
377	0	34456	
378	0	34484	
379	0	34508	
380	0	34496	
381	0	34540	
382	0	34568	
383	0	34692	
384	0	34842	
385	0	34916	
386	0	34956	
387	0	34972	
388	0	35072	
389	0	35184	
390	0	35284	
391	0	35304	
392	0	35164	
393	0	34936	
394	0	34748	
395	0	34552	
396	0	34460	
397	0	34464	
398	0	34460	
399	0	34264	
400	0	33904	
401	0	33696	
402	0	33724	
403	0	33920	
404	0	34118	
405	0	34268	
406	0	34272	
407	0	34104	
408	0	33952	
409	0	33904	
410	0	33872	
411	0	33888	
412	0	33908	
413	0	33852	
414	0	33792	
415	0	33784	
416	0	33840	
417	0	33800	
418	0	33676	
419	0	33500	
420	0	33376	
421	0	33288	
422	0	33104	
423	0	32884	
424	0	32776	
425	0	32780	
426	0	32836	
427	0	32808	
428	0	32692	
429	0	32592	
430	0	32584	
431	0	32580	
432	0	32508	
433	0	32372	
434	0	32304	
435	0	32272	
436	0	32244	
437	0	32180	
438	0	32104	
439	0	32144	
440	0	32220	
441	0	32128	
442	0	31936	
443	0	31824	
444	0	31772	
445	0	31832	
446	0	31720	
447	0	31538	
448	0	31506	
449	0	31616	
450	0	31696	
451	0	31750	
452	0	31840	
453	0	31956	
454	0	32084	
455	0	32216	
456	0	32236	
457	0	32148	
458	0	31996	
459	0	31664	
460	0	31186	
461	0	30892	
462	0	30860	
463	0	30964	
464	0	31048	
465	0	31056	
466	0	31260	
467	0	31584	
468	0	31630	
469	0	31460	
470	0	31384	
471	0	31400	
472	0	31500	
473	0	31696	
474	0	31856	
475	0	31940	
476	0	32076	
477	0	32116	
478	0	32138	
479	0	32176	
480	0	31992	
481	0	31698	
482	0	31356	
483	0	31112	
484	0	30966	
485	0	30892	
486	0	30888	
487	0	31184	
488	0	31560	
489	0	31844	
490	0	32120	
491	0	32192	
492	0	32300	
493	0	32476	
494	0	32588	
495	0	32572	
496	0	32548	
497	0	32640	
498	0	32752	
499	0	32692	
500	0	32540	
501	0	32416	
502	0	32288	
503	0	32172	
504	0	32100	
505	0	32068	
506	0	32096	
507	0	32136	
508	0	32132	
509	0	32172	
510	0	32268	
511	0	32286	
512	0	32320	
513	0	32416	
514	0	32524	
515	0	32664	
516	0	32816	
517	0	32904	
518	0	33068	
519	0	33226	
520	0	33304	
521	0	33332	
522	0	33332	
523	0	33196	
524	0	33032	
525	0	32912	
526	0	32876	
527	0	32924	
528	0	33096	
529	0	33312	
530	0	33392	
531	0	33352	
532	0	33252	
533	0	33116	
534	0	32888	
535	0	32744	
536	0	32694	
537	0	32576	
538	0	32560	
539	0	32704	
540	0	32928	
541	0	33284	
542	0	33666	
543	0	33972	
544	0	34072	
545	0	33924	
546	0	33716	
547	0	33452	
548	0	33216	
549	0	33128	
550	0	33184	
551	0	33244	
552	0	33276	
553	0	33220	
554	0	33064	
555	0	33040	
556	0	33192	
557	0	33516	
558	0	33760	
559	0	33724	
560	0	33552	
561	0	33492	
562	0	33584	
563	0	33536	
564	0	33296	
565	0	33088	
566	0	32996	
567	0	32942	
568	0	32948	
569	0	32984	
570	0	33032	
571	0	33080	
572	0	32992	
573	0	32896	
574	0	32736	
575	0	32552	
576	0	32440	
577	0	32424	
578	0	32572	
579	0	32780	
580	0	32984	
581	0	33176	
582	0	33224	
583	0	33124	
584	0	33036	
585	0	32900	
586	0	32816	
587	0	32848	
588	0	32834	
589	0	32732	
590	0	32648	
591	0	32692	
592	0	32800	
593	0	32900	
594	0	32980	
595	0	33076	
596	0	33284	
597	0	33440	
598	0	33520	
599	0	33632	
600	0	33748	
601	0	33836	
602	0	33928	
603	0	33976	
604	0	33976	
605	0	33868	
606	0	33716	
607	0	33584	
608	0	33450	
609	0	33384	
610	0	33532	
611	0	33832	
612	0	34204	
613	0	34436	
614	0	34428	
615	0	34444	
616	0	34536	
617	0	34682	
618	0	34888	
619	0	35168	
620	0	35408	
621	0	35692	
622	0	36000	
623	0	36108	
624	0	36116	
625	0	36208	
626	0	36336	
627	0	36556	
628	0	36844	
629	0	37020	
630	0	36852	
631	0	36512	
632	0	36240	
633	0	35988	
634	0	35812	
635	0	35616	
636	0	35468	
637	0	35416	
638	0	35532	
639	0	35580	
640	0	35548	
641	0	35516	
642	0	35610	
643	0	35924	
644	0	36144	
645	0	36064	
646	0	35832	
647	0	35784	
648	0	35924	
649	0	35944	
650	0	35724	
651	0	35416	
652	0	35068	
653	0	34780	
654	0	34626	
655	0	34444	
656	0	34144	
657	0	33856	
658	0	33548	
659	0	33244	
660	0	32964	
661	0	32700	
662	0	32386	
663	0	32012	
664	0	31552	
665	0	31180	
666	0	31008	
667	0	30904	
668	0	30808	
669	0	30676	
670	0	30640	
671	0	30786	
672	0	30884	
673	0	30960	
674	0	30868	
675	0	30628	
676	0	30416	
677	0	30200	
678	0	30132	
679	0	30140	
680	0	30080	
681	0	29944	
682	0	29890	
683	0	29972	
684	0	30076	
685	0	30104	
686	0	30008	
687	0	29904	
688	0	29808	
689	0	29740	
690	0	29768	
691	0	29836	
692	0	29984	
693	0	30104	
694	0	30120	
695	0	30080	
696	0	30020	
697	0	29880	
698	0	29788	
699	0	29748	
700	0	29520	
701	0	29392	
702	0	29584	
703	0	29912	
704	0	30160	
705	0	30328	
706	0	30584	
707	0	30780	
708	0	30768	
709	0	30744	
710	0	30768	
711	0	30704	
712	0	30628	
713	0	30588	
714	0	30500	
715	0	30400	
716	0	30424	
717	0	30388	
718	0	30128	
719	0	29556	
720	0	28680	
721	0	27656	
722	0	26792	
723	0	26120	
724	0	25796	
725	0	26072	
726	0	26580	
727	0	27048	
728	0	27360	
729	0	27600	
730	0	28012	
731	0	28656	
732	0	29572	
733	0	30908	
734	0	32624	
735	0	34712	
736	0	37144	
737	0	39840	
738	0	42664	
739	0	45596	
740	0	48600	
741	0	51800	
742	0	55220	
743	0	58744	
744	0	61608	
745	0	63156	
746	0	63952	
747	0	64316	
748	0	64480	
749	0	64508	
750	0	64452	
751	0	64376	
752	0	64256	
753	0	64160	
754	0	62976	
755	0	54140	
756	0	46232	
757	0	39424	
758	0	33664	
759	0	28744	
760	0	25068	
761	0	23002	
762	0	22004	
763	0	21696	
764	0	21476	
765	0	20972	
766	0	19976	
767	0	18728	
768	0	17404	
769	0	16188	
770	0	15257	
771	0	14602	
772	0	14174	
773	0	13988	
774	0	14056	
775	0	14168	
776	0	14192	
777	0	14348	
778	0	14778	
779	0	15476	
780	0	16380	
781	0	17376	
782	0	18288	
783	0	19124	
784	0	19884	
785	0	20552	
786	0	21128	
787	0	21660	
788	0	22288	
789	0	23088	
790	0	24009	
791	0	24760	
792	0	25312	
793	0	25796	
794	0	26288	
795	0	26952	
796	0	27688	
797	0	28052	
798	0	28220	
799	0	28362	
800	0	28684	
801	0	29104	
802	0	29434	
803	0	29680	
804	0	29868	
805	0	30104	
806	0	30348	
807	0	30536	
808	0	30772	
809	0	31030	
810	0	31228	
811	0	31300	
812	0	31320	
813	0	31188	
814	0	31024	
815	0	30880	
816	0	30720	
817	0	30600	
818	0	30618	
819	0	30952	
820	0	31324	
821	0	31652	
822	0	31928	
823	0	32124	
824	0	32160	
825	0	32036	
826	0	31884	
827	0	32016	
828	0	32304	
829	0	32496	
830	0	32484	
831	0	32404	
832	0	32352	
833	0	32288	
834	0	32170	
835	0	32288	
836	0	32628	
837	0	32928	
838	0	32976	
839	0	32844	
840	0	32656	
841	0	32472	
842	0	32388	
843	0	32452	
844	0	32492	
845	0	32436	
846	0	32372	
847	0	32432	
848	0	32548	
849	0	32784	
850	0	33004	
851	0	33076	
852	0	33068	
853	0	33024	
854	0	32900	
855	0	32802	
856	0	32896	
857	0	33164	
858	0	33408	
859	0	33584	
860	0	33648	
861	0	33544	
862	0	33264	
863	0	33112	
864	0	33120	
865	0	33288	
866	0	33604	
867	0	33836	
868	0	33968	
869	0	33840	
870	0	33680	
871	0	33608	
872	0	33644	
873	0	33824	
874	0	34036	
875	0	34096	
876	0	33984	
877	0	33704	
878	0	33516	
879	0	33448	
880	0	33592	
881	0	33800	
882	0	33884	
883	0	33904	
884	0	34026	
885	0	34216	
886	0	34332	
887	0	34428	
888	0	34480	
889	0	34512	
890	0	34400	
891	0	34104	
892	0	33908	
893	0	33984	
894	0	34284	
895	0	34608	
896	0	34780	
897	0	34772	
898	0	34768	
899	0	34872	
900	0	34964	
901	0	34960	
902	0	34940	
903	0	34928	
904	0	34912	
905	0	34976	
906	0	35036	
907	0	35096	
908	0	35096	
909	0	35008	
910	0	34784	
911	0	34500	
912	0	34224	
913	0	34028	
914	0	33902	
915	0	33856	
916	0	33984	
917	0	34348	
918	0	34744	
919	0	35040	
920	0	35140	
921	0	35164	
922	0	35204	
923	0	35340	
924	0	35314	
925	0	35112	
926	0	34960	
927	0	35004	
928	0	35064	
929	0	35008	
930	0	34900	
931	0	34796	
932	0	34770	
933	0	34832	
934	0	34848	
935	0	34832	
936	0	34816	
937	0	34860	
938	0	34932	
939	0	34928	
940	0	34848	
941	0	34792	
942	0	34848	
943	0	34892	
944	0	34872	
945	0	34794	
946	0	34662	
947	0	34480	
948	0	34376	
949	0	34404	
950	0	34512	
951	0	34516	
952	0	34460	
953	0	34524	
954	0	34664	
955	0	34754	
956	0	34816	
957	0	34788	
958	0	34688	
959	0	34608	
960	0	34514	
961	0	34536	
962	0	34720	
963	0	34868	
964	0	34952	
965	0	34952	
966	0	34920	
967	0	34824	
968	0	34712	
969	0	34544	
970	0	34416	
971	0	34372	
972	0	34312	
973	0	34212	
974	0	34092	
975	0	33924	
976	0	33832	
977	0	34026	
978	0	34360	
979	0	34612	
980	0	34756	
981	0	34852	
982	0	34880	
983	0	34788	
984	0	34644	
985	0	34596	
986	0	34528	
987	0	34420	
988	0	34320	
989	0	34244	
990	0	34224	
991	0	34128	
992	0	34016	
993	0	33920	
994	0	33764	
995	0	33672	
996	0	33604	
997	0	33544	
998	0	33520	
999	0	33546	
1000	0	33616	
1001	0	33636	
1002	0	33532	
1003	0	33316	
1004	0	33116	
1005	0	32992	
1006	0	32862	
1007	0	32692	
1008	0	32524	
1009	0	32434	
1010	0	32336	
1011	0	32216	
1012	0	32260	
1013	0	32418	
1014	0	32496	
1015	0	32576	
1016	0	32756	
1017	0	32752	
1018	0	32624	
1019	0	32424	
1020	0	32192	
1021	0	32032	
1022	0	31952	
1023	0	31832	
1024	0	31772	
1025	0	31828	
1026	0	31980	
1027	0	32164	
1028	0	32264	
1029	0	32240	
1030	0	32116	
1031	0	31992	
1032	0	31872	
1033	0	31852	
1034	0	32008	
1035	0	32132	
1036	0	32144	
1037	0	32144	
1038	0	32128	
1039	0	32098	
1040	0	32004	
1041	0	31904	
1042	0	31796	
1043	0	31728	
1044	0	31732	
1045	0	31672	
1046	0	31552	
1047	0	31520	
1048	0	31576	
1049	0	31754	
1050	0	31952	
1051	0	32068	
1052	0	32024	
1053	0	31940	
1054	0	31872	
1055	0	31844	
1056	0	31820	
1057	0	31692	
1058	0	31632	
1059	0	31704	
1060	0	31912	
1061	0	32076	
1062	0	32036	
1063	0	31842	
1064	0	31610	
1065	0	31504	
1066	0	31492	
1067	0	31428	
1068	0	31332	
1069	0	31298	
1070	0	31324	
1071	0	31372	
1072	0	31456	
1073	0	31652	
1074	0	31760	
1075	0	31828	
1076	0	31936	
1077	0	31944	
1078	0	31880	
1079	0	31808	
1080	0	31756	
1081	0	31856	
1082	0	31960	
1083	0	32044	
1084	0	32144	
1085	0	32236	
1086	0	32228	
1087	0	32172	
1088	0	32200	
1089	0	32220	
1090	0	32144	
1091	0	32048	
1092	0	31936	
1093	0	31820	
1094	0	31772	
1095	0	31864	
1096	0	32016	
1097	0	32188	
1098	0	32384	
1099	0	32576	
1100	0	32684	
1101	0	32732	
1102	0	32744	
1103	0	32734	
1104	0	32706	
1105	0	32664	
1106	0	32588	
1107	0	32576	
1108	0	32656	
1109	0	32784	
1110	0	32992	
1111	0	33124	
1112	0	33136	
1113	0	33156	
1114	0	33200	
1115	0	33148	
1116	0	33028	
1117	0	32920	
1118	0	32908	
1119	0	32992	
1120	0	32976	
1121	0	32840	
1122	0	32684	
1123	0	32636	
1124	0	32712	
1125	0	32872	
1126	0	33120	
1127	0	33264	
1128	0	33312	
1129	0	33344	
1130	0	33344	
1131	0	33312	
1132	0	33314	
1133	0	33324	
1134	0	33300	
1135	0	33288	
1136	0	33316	
1137	0	33336	
1138	0	33338	
1139	0	33312	
1140	0	33312	
1141	0	33320	
1142	0	33340	
1143	0	33280	
1144	0	33244	
1145	0	33236	
1146	0	33196	
1147	0	33124	
1148	0	33040	
1149	0	33120	
1150	0	33372	
1151	0	33444	
1152	0	33364	
1153	0	33284	
1154	0	33220	
1155	0	33200	
1156	0	33152	
1157	0	33080	
1158	0	33036	
1159	0	33006	
1160	0	32996	
1161	0	32962	
1162	0	32932	
1163	0	32888	
1164	0	32760	
1165	0	32656	
1166	0	32740	
1167	0	33056	
1168	0	33304	
1169	0	33276	
1170	0	33144	
1171	0	33024	
1172	0	32952	
1173	0	32900	
1174	0	32924	
1175	0	32952	
1176	0	33020	
1177	0	33096	
1178	0	33160	
1179	0	33248	
1180	0	33380	
1181	0	33492	
1182	0	33504	
1183	0	33448	
1184	0	33388	
1185	0	33464	
1186	0	33608	
1187	0	33720	
1188	0	33860	
1189	0	34060	
1190	0	34240	
1191	0	34276	
1192	0	34220	
1193	0	34180	
1194	0	34236	
1195	0	34392	
1196	0	34464	
1197	0	34482	
1198	0	34416	
1199	0	34328	
1200	0	34276	
1201	0	34272	
1202	0	34336	
1203	0	34420	
1204	0	34496	
1205	0	34548	
1206	0	34778	
1207	0	35120	
1208	0	35432	
1209	0	35648	
1210	0	35908	
1211	0	36292	
1212	0	36628	
1213	0	36836	
1214	0	37008	
1215	0	37096	
1216	0	37064	
1217	0	37008	
1218	0	36920	
1219	0	36912	
1220	0	36920	
1221	0	36872	
1222	0	36848	
1223	0	36780	
1224	0	36636	
1225	0	36488	
1226	0	36436	
1227	0	36412	
1228	0	36304	
1229	0	36152	
1230	0	36064	
1231	0	36052	
1232	0	36040	
1233	0	35980	
1234	0	35932	
1235	0	35848	
1236	0	35792	
1237	0	35680	
1238	0	35572	
1239	0	35420	
1240	0	35212	
1241	0	34972	
1242	0	34760	
1243	0	34580	
1244	0	34404	
1245	0	34220	
1246	0	33936	
1247	0	33504	
1248	0	32972	
1249	0	32512	
1250	0	32130	
1251	0	31816	
1252	0	31584	
1253	0	31416	
1254	0	31256	
1255	0	31156	
1256	0	31122	
1257	0	31112	
1258	0	31080	
1259	0	31008	
1260	0	30828	
1261	0	30594	
1262	0	30392	
1263	0	30236	
1264	0	30080	
1265	0	29964	
1266	0	29900	
1267	0	29876	
1268	0	29856	
1269	0	29768	
1270	0	29724	
1271	0	29720	
1272	0	29848	
1273	0	30028	
1274	0	30152	
1275	0	30202	
1276	0	30190	
1277	0	30156	
1278	0	30152	
1279	0	30144	
1280	0	30104	
1281	0	30088	
1282	0	30056	
1283	0	29976	
1284	0	29926	
1285	0	29922	
1286	0	29956	
1287	0	30044	
1288	0	30144	
1289	0	30170	
1290	0	30192	
1291	0	30252	
1292	0	30348	
1293	0	30392	
1294	0	30372	
1295	0	30372	
1296	0	30372	
1297	0	30392	
1298	0	30450	
1299	0	30528	
1300	0	30632	
1301	0	30748	
1302	0	30748	
1303	0	30672	
1304	0	30496	
1305	0	30104	
1306	0	29506	
1307	0	28808	
1308	0	28048	
1309	0	27288	
1310	0	26548	
1311	0	25844	
1312	0	25242	
1313	0	24788	
1314	0	24532	
1315	0	24392	
1316	0	24448	
1317	0	24776	
1318	0	25356	
1319	0	26060	
1320	0	26928	
1321	0	28136	
1322	0	29872	
1323	0	32056	
1324	0	34748	
1325	0	37624	
1326	0	40564	
1327	0	43508	
1328	0	46632	
1329	0	50168	
1330	0	53992	
1331	0	57936	
1332	0	61120	
1333	0	62892	
1334	0	63792	
1335	0	64240	
1336	0	64400	
1337	0	64448	
1338	0	64408	
1339	0	64336	
1340	0	64252	
1341	0	64140	
1342	0	64028	
1343	0	57856	
1344	0	49688	
1345	0	42816	
1346	0	37200	
1347	0	32460	
1348	0	28248	
1349	0	25244	
1350	0	23488	
1351	0	22304	
1352	0	21292	
1353	0	20304	
1354	0	19270	
1355	0	18144	
1356	0	17162	
1357	0	16308	
1358	0	15580	
1359	0	15108	
1360	0	14900	
1361	0	14809	
1362	0	14748	
1363	0	14804	
1364	0	15028	
1365	0	15402	
1366	0	15882	
1367	0	16546	
1368	0	17296	
1369	0	18040	
1370	0	18828	
1371	0	19644	
1372	0	20480	
1373	0	21292	
1374	0	22088	
1375	0	22844	
1376	0	23500	
1377	0	24138	
1378	0	24800	
1379	0	25472	
1380	0	26112	
1381	0	26712	
1382	0	27240	
1383	0	27696	
1384	0	28124	
1385	0	28568	
1386	0	28944	
1387	0	29248	
1388	0	29512	
1389	0	29692	
1390	0	29844	
1391	0	30014	
1392	0	30152	
1393	0	30324	
1394	0	30488	
1395	0	30584	
1396	0	30656	
1397	0	30784	
1398	0	30904	
1399	0	30988	
1400	0	31024	
1401	0	31000	
1402	0	30944	
1403	0	30944	
1404	0	31036	
1405	0	31170	
1406	0	31272	
1407	0	31340	
1408	0	31408	
1409	0	31484	
1410	0	31564	
1411	0	31652	
1412	0	31732	
1413	0	31820	
1414	0	31870	
1415	0	31936	
1416	0	31992	
1417	0	32056	
1418	0	32096	
1419	0	32128	
1420	0	32236	
1421	0	32368	
1422	0	32456	
1423	0	32488	
1424	0	32512	
1425	0	32580	
1426	0	32640	
1427	0	32660	
1428	0	32672	
1429	0	32640	
1430	0	32632	
1431	0	32620	
1432	0	32652	
1433	0	32700	
1434	0	32772	
1435	0	32860	
1436	0	32892	
1437	0	32892	
1438	0	32868	
1439	0	32788	
1440	0	32788	
1441	0	32888	
1442	0	32976	
1443	0	33064	
1444	0	33144	
1445	0	33152	
1446	0	33140	
1447	0	33144	
1448	0	33160	
1449	0	33136	
1450	0	33100	
1451	0	33120	
1452	0	33208	
1453	0	33296	
1454	0	33320	
1455	0	33320	
1456	0	33322	
1457	0	33320	
1458	0	33336	
1459	0	33372	
1460	0	33440	
1461	0	33472	
1462	0	33480	
1463	0	33484	
1464	0	33500	
1465	0	33500	
1466	0	33496	
1467	0	33508	
1468	0	33528	
1469	0	33552	
1470	0	33536	
1471	0	33568	
1472	0	33620	
1473	0	33664	
1474	0	33682	
1475	0	33696	
1476	0	33668	
1477	0	33600	
1478	0	33552	
1479	0	33548	
1480	0	33568	
1481	0	33632	
1482	0	33720	
1483	0	33816	
1484	0	33904	
1485	0	33948	
1486	0	33984	
1487	0	34004	
1488	0	33968	
1489	0	33980	
1490	0	34016	
1491	0	34036	
1492	0	34014	
1493	0	33976	
1494	0	33972	
1495	0	33964	
1496	0	33984	
1497	0	34004	
1498	0	33960	
1499	0	33920	
1500	0	33912	
1501	0	33908	
1502	0	33904	
1503	0	33936	
1504	0	34008	
1505	0	34068	
1506	0	34080	
1507	0	34036	
1508	0	33980	
1509	0	33928	
1510	0	33916	
1511	0	33888	
1512	0	33928	
1513	0	33912	
1514	0	33900	
1515	0	33936	
1516	0	33984	
1517	0	34036	
1518	0	34076	
1519	0	34080	
1520	0	34096	
1521	0	34088	
1522	0	34032	
1523	0	34020	
1524	0	34024	
1525	0	34004	
1526	0	33972	
1527	0	33936	
1528	0	33882	
1529	0	33788	
1530	0	33720	
1531	0	33696	
1532	0	33696	
1533	0	33684	
1534	0	33696	
1535	0	33688	
1536	0	33684	
1537	0	33704	
1538	0	33700	
1539	0	33704	
1540	0	33716	
1541	0	33716	
1542	0	33698	
1543	0	33656	
1544	0	33592	
1545	0	33528	
1546	0	33524	
1547	0	33564	
1548	0	33600	
1549	0	33610	
1550	0	33588	
1551	0	33552	
1552	0	33500	
1553	0	33488	
1554	0	33492	
1555	0	33504	
1556	0	33520	
1557	0	33544	
1558	0	33576	
1559	0	33624	
1560	0	33696	
1561	0	33760	
1562	0	33752	
1563	0	33760	
1564	0	33792	
1565	0	33816	
1566	0	33876	
1567	0	33912	
1568	0	33944	
1569	0	33972	
1570	0	33978	
1571	0	33960	
1572	0	33932	
1573	0	33886	
1574	0	33824	
1575	0	33756	
1576	0	33798	
1577	0	33808	
1578	0	33760	
1579	0	33700	
1580	0	33648	
1581	0	33600	
1582	0	33556	
1583	0	33532	
1584	0	33496	
1585	0	33416	
1586	0	33380	
1587	0	33324	
1588	0	33264	
1589	0	33188	
1590	0	33112	
1591	0	33020	
1592	0	32944	
1593	0	32888	
1594	0	32848	
1595	0	32800	
1596	0	32768	
1597	0	32748	
1598	0	32716	
1599	0	32696	
1600	0	32652	
1601	0	32624	
1602	0	32616	
1603	0	32628	
1604	0	32628	
1605	0	32572	
1606	0	32488	
1607	0	32400	
1608	0	32380	
1609	0	32392	
1610	0	32400	
1611	0	32432	
1612	0	32456	
1613	0	32456	
1614	0	32412	
1615	0	32340	
1616	0	32272	
1617	0	32224	
1618	0	32168	
1619	0	32128	
1620	0	32112	
1621	0	32140	
1622	0	32112	
1623	0	32088	
1624	0	32064	
1625	0	32044	
1626	0	32000	
1627	0	31984	
1628	0	31988	
1629	0	31984	
1630	0	31972	
1631	0	31928	
1632	0	31896	
1633	0	31868	
1634	0	31872	
1635	0	31908	
1636	0	31940	
1637	0	31930	
1638	0	31944	
1639	0	31944	
1640	0	31900	
1641	0	31886	
1642	0	31920	
1643	0	31964	
1644	0	31984	
1645	0	31944	
1646	0	31892	
1647	0	31872	
1648	0	31904	
1649	0	31956	
1650	0	32004	
1651	0	32044	
1652	0	32084	
1653	0	32072	
1654	0	32052	
1655	0	32064	
1656	0	32068	
1657	0	32080	
1658	0	32132	
1659	0	32156	
1660	0	32176	
1661	0	32160	
1662	0	32128	
1663	0	32110	
1664	0	32140	
1665	0	32176	
1666	0	32196	
1667	0	32196	
1668	0	32232	
1669	0	32272	
1670	0	32334	
1671	0	32388	
1672	0	32424	
1673	0	32416	
1674	0	32424	
1675	0	32460	
1676	0	32480	
1677	0	32508	
1678	0	32514	
1679	0	32528	
1680	0	32580	
1681	0	32618	
1682	0	32668	
1683	0	32712	
1684	0	32736	
1685	0	32760	
1686	0	32796	
1687	0	32808	
1688	0	32814	
1689	0	32816	
1690	0	32808	
1691	0	32808	
1692	0	32796	
1693	0	32800	
1694	0	32824	
1695	0	32832	
1696	0	32832	
1697	0	32860	
1698	0	32868	
1699	0	32870	
1700	0	32922	
1701	0	32964	
1702	0	32956	
1703	0	32932	
1704	0	32928	
1705	0	32896	
1706	0	32888	
1707	0	32912	
1708	0	32916	
1709	0	32948	
1710	0	32976	
1711	0	32968	
1712	0	32976	
1713	0	32956	
1714	0	32941	
1715	0	32946	
1716	0	32944	
1717	0	32936	
1718	0	32936	
1719	0	32928	
1720	0	32912	
1721	0	32928	
1722	0	32946	
1723	0	32984	
1724	0	33024	
1725	0	33036	
1726	0	33050	
1727	0	33044	
1728	0	33020	
1729	0	32960	
1730	0	32928	
1731	0	32912	
1732	0	32932	
1733	0	32932	
1734	0	32952	
1735	0	32960	
1736	0	32928	
1737	0	32892	
1738	0	32872	
1739	0	32832	
1740	0	32792	
1741	0	32780	
1742	0	32768	
1743	0	32744	
1744	0	32744	
1745	0	32760	
1746	0	32784	
1747	0	32796	
1748	0	32800	
1749	0	32778	
1750	0	32792	
1751	0	32764	
1752	0	32772	
1753	0	32760	
1754	0	32748	
1755	0	32760	
1756	0	32744	
1757	0	32748	
1758	0	32756	
1759	0	32716	
1760	0	32696	
1761	0	32656	
1762	0	32628	
1763	0	32586	
1764	0	32576	
1765	0	32572	
1766	0	32560	
1767	0	32560	
1768	0	32576	
1769	0	32592	
1770	0	32616	
1771	0	32636	
1772	0	32637	
1773	0	32684	
1774	0	32768	
1775	0	32836	
1776	0	32864	
1777	0	32928	
1778	0	33028	
1779	0	33168	
1780	0	33320	
1781	0	33440	
1782	0	33582	
1783	0	33724	
1784	0	33920	
1785	0	34128	
1786	0	34324	
1787	0	34464	
1788	0	34544	
1789	0	34608	
1790	0	34636	
1791	0	34624	
1792	0	34624	
1793	0	34576	
1794	0	34532	
1795	0	34540	
1796	0	34584	
1797	0	34580	
1798	0	34576	
1799	0	34618	
1800	0	34652	
1801	0	34680	
1802	0	34712	
1803	0	34848	
1804	0	35080	
1805	0	35368	
1806	0	35628	
1807	0	35940	
1808	0	36280	
1809	0	36600	
1810	0	36856	
1811	0	37024	
1812	0	37148	
1813	0	37252	
1814	0	37296	
1815	0	37248	
1816	0	37156	
1817	0	37064	
1818	0	37008	
1819	0	36992	
1820	0	36948	
1821	0	36884	
1822	0	36792	
1823	0	36664	
1824	0	36564	
1825	0	36460	
1826	0	36320	
1827	0	36212	
1828	0	36160	
1829	0	36112	
1830	0	36036	
1831	0	35962	
1832	0	35864	
1833	0	35744	
1834	0	35616	
1835	0	35456	
1836	0	35244	
1837	0	35088	
1838	0	34920	
1839	0	34720	
1840	0	34520	
1841	0	34272	
1842	0	33976	
1843	0	33626	
1844	0	33216	
1845	0	32748	
1846	0	32304	
1847	0	31904	
1848	0	31566	
1849	0	31250	
1850	0	30984	
1851	0	30840	
1852	0	30740	
1853	0	30656	
1854	0	30572	
1855	0	30456	
1856	0	30320	
1857	0	30168	
1858	0	30022	
1859	0	29892	
1860	0	29760	
1861	0	29636	
1862	0	29556	
1863	0	29480	
1864	0	29418	
1865	0	29372	
1866	0	29360	
1867	0	29364	
1868	0	29372	
1869	0	29404	
1870	0	29440	
1871	0	29466	
1872	0	29476	
1873	0	29464	
1874	0	29492	
1875	0	29534	
1876	0	29552	
1877	0	29536	
1878	0	29544	
1879	0	29572	
1880	0	29576	
1881	0	29616	
1882	0	29618	
1883	0	29616	
1884	0	29612	
1885	0	29624	
1886	0	29652	
1887	0	29672	
1888	0	29708	
1889	0	29760	
1890	0	29776	
1891	0	29764	
1892	0	29740	
1893	0	29716	
1894	0	29712	
1895	0	29756	
1896	0	29772	
1897	0	29800	
1898	0	29840	
1899	0	29856	
1900	0	29796	
1901	0	29700	
1902	0	29516	
1903	0	29180	
1904	0	28652	
1905	0	27864	
1906	0	26936	
1907	0	25912	
1908	0	24896	
1909	0	23972	
1910	0	23180	
1911	0	22640	
1912	0	22316	
1913	0	22132	
1914	0	22168	
1915	0	22510	
1916	0	23124	
1917	0	23812	
1918	0	24680	
1919	0	25992	
1920	0	27862	
1921	0	30184	
1922	0	32912	
1923	0	35840	
1924	0	39020	
1925	0	42472	
1926	0	46388	
1927	0	50772	
1928	0	55344	
1929	0	59680	
1930	0	62332	
1931	0	63728	
1932	0	64456	
1933	0	64784	
1934	0	64904	
1935	0	64916	
1936	0	64844	
1937	0	64756	
1938	0	64664	
1939	0	64532	
1940	0	64416	
1941	0	64320	
1942	0	57444	
1943	0	51730	
1944	0	47080	
1945	0	42428	
1946	0	37312	
1947	0	32488	
1948	0	28476	
1949	0	25210	
1950	0	22592	
1951	0	20556	
1952	0	19048	
1953	0	17980	
1954	0	17304	
1955	0	16736	
1956	0	16346	
1957	0	16100	
1958	0	16000	
1959	0	16076	
1960	0	16334	
1961	0	16734	
1962	0	17184	
1963	0	17672	
1964	0	18172	
1965	0	18653	
1966	0	19156	
1967	0	19714	
1968	0	20340	
1969	0	20948	
1970	0	21554	
1971	0	22104	
1972	0	22704	
1973	0	23376	
1974	0	24096	
1975	0	24832	
1976	0	25470	
1977	0	26056	
1978	0	26568	
1979	0	26984	
1980	0	27356	
1981	0	27688	
1982	0	27944	
1983	0	28148	
1984	0	28332	
1985	0	28456	
1986	0	28576	
1987	0	28692	
1988	0	28792	
1989	0	28868	
1990	0	28920	
1991	0	28986	
1992	0	29076	
1993	0	29148	
1994	0	29208	
1995	0	29284	
1996	0	29376	
1997	0	29448	
1998	0	29540	
1999	0	29602	
2000	0	29648	
2001	0	29736	
2002	0	29812	
2003	0	29928	
2004	0	30032	
2005	0	30104	
2006	0	30144	
2007	0	30200	
2008	0	30220	
2009	0	30224	
2010	0	30272	
2011	0	30368	
2012	0	30464	
2013	0	30544	
2014	0	30624	
2015	0	30688	
2016	0	30728	
2017	0	30768	
2018	0	30804	
2019	0	30816	
2020	0	30888	
2021	0	30976	
2022	0	31028	
2023	0	31072	
2024	0	31136	
2025	0	31160	
2026	0	31144	
2027	0	31152	
2028	0	31192	
2029	0	31216	
2030	0	31236	
2031	0	31280	
2032	0	31352	
2033	0	31428	
2034	0	31508	
2035	0	31560	
2036	0	31592	
2037	0	31626	
2038	0	31648	
2039	0	31664	
2040	0	31702	
2041	0	31752	
2042	0	31808	
2043	0	31868	
2044	0	31900	
2045	0	31936	
2046	0	32020	
2047	0	32064	
2048	0	32088	
2049	0	32072	
2050	0	32064	
2051	0	32064	
2052	0	32080	
2053	0	32116	
2054	0	32128	
2055	0	32136	
2056	0	32160	
2057	0	32192	
2058	0	32245	
2059	0	32256	
2060	0	32280	
2061	0	32300	
2062	0	32316	
2063	0	32332	
2064	0	32364	
2065	0	32404	
2066	0	32426	
2067	0	32446	
2068	0	32476	
2069	0	32536	
2070	0	32572	
2071	0	32580	
2072	0	32580	
2073	0	32588	
2074	0	32588	
2075	0	32616	
2076	0	32658	
2077	0	32672	
2078	0	32680	
2079	0	32692	
2080	0	32696	
2081	0	32724	
2082	0	32744	
2083	0	32762	
2084	0	32804	
2085	0	32828	
2086	0	32874	
2087	0	32848	
2088	0	32828	
2089	0	32804	
2090	0	32764	
2091	0	32776	
2092	0	32808	
2093	0	32824	
2094	0	32844	
2095	0	32840	
2096	0	32852	
2097	0	32884	
2098	0	32936	
2099	0	32920	
2100	0	32912	
2101	0	32892	
2102	0	32892	
2103	0	32916	
2104	0	32980	
2105	0	33020	
2106	0	33012	
2107	0	32992	
2108	0	32970	
2109	0	32972	
2110	0	32976	
2111	0	32964	
2112	0	32968	
2113	0	33000	
2114	0	33026	
2115	0	33020	
2116	0	33012	
2117	0	33002	
2118	0	32992	
2119	0	33004	
2120	0	32996	
2121	0	32976	
2122	0	32980	
2123	0	32992	
2124	0	33036	
2125	0	33070	
2126	0	33068	
2127	0	33068	
2128	0	33048	
2129	0	33008	
2130	0	32988	
2131	0	32956	
2132	0	32956	
2133	0	32944	
2134	0	32952	
2135	0	32984	
2136	0	32980	
2137	0	32986	
2138	0	32992	
2139	0	33020	
2140	0	33056	
2141	0	33076	
2142	0	33084	
2143	0	33088	
2144	0	33072	
2145	0	33092	
2146	0	33120	
2147	0	33120	
2148	0	33132	
2149	0	33162	
2150	0	33208	
2151	0	33256	
2152	0	33320	
2153	0	33348	
2154	0	33344	
2155	0	33368	
2156	0	33412	
2157	0	33436	
2158	0	33472	
2159	0	33520	
2160	0	33572	
2161	0	33588	
2162	0	33640	
2163	0	33696	
2164	0	33736	
2165	0	33792	
2166	0	33872	
2167	0	33928	
2168	0	33936	
2169	0	33884	
2170	0	33836	
2171	0	33792	
2172	0	33740	
2173	0	33732	
2174	0	33740	
2175	0	33744	
2176	0	33712	
2177	0	33672	
2178	0	33624	
2179	0	33572	
2180	0	33484	
2181	0	33384	
2182	0	33312	
2183	0	33256	
2184	0	33224	
2185	0	33176	
2186	0	33136	
2187	0	33112	
2188	0	33084	
2189	0	33028	
2190	0	33002	
2191	0	32986	
2192	0	32976	
2193	0	32962	
2194	0	32948	
2195	0	32876	
2196	0	32792	
2197	0	32722	
2198	0	32700	
2199	0	32664	
2200	0	32608	
2201	0	32506	
2202	0	32448	
2203	0	32424	
2204	0	32416	
2205	0	32373	
2206	0	32376	
2207	0	32366	
2208	0	32332	
2209	0	32312	
2210	0	32308	
2211	0	32312	
2212	0	32304	
2213	0	32300	
2214	0	32282	
2215	0	32288	
2216	0	32280	
2217	0	32252	
2218	0	32224	
2219	0	32168	
2220	0	32136	
2221	0	32088	
2222	0	32056	
2223	0	32008	
2224	0	32008	
2225	0	32048	
2226	0	32104	
2227	0	32148	
2228	0	32128	
2229	0	32128	
2230	0	32160	
2231	0	32202	
2232	0	32232	
2233	0	32248	
2234	0	32224	
2235	0	32216	
2236	0	32236	
2237	0	32228	
2238	0	32224	
2239	0	32232	
2240	0	32244	
2241	0	32256	
2242	0	32264	
2243	0	32256	
2244	0	32224	
2245	0	32232	
2246	0	32264	
2247	0	32288	
2248	0	32320	
2249	0	32384	
2250	0	32412	
2251	0	32416	
2252	0	32440	
2253	0	32480	
2254	0	32544	
2255	0	32580	
2256	0	32568	
2257	0	32584	
2258	0	32612	
2259	0	32592	
2260	0	32554	
2261	0	32532	
2262	0	32556	
2263	0	32556	
2264	0	32576	
2265	0	32596	
2266	0	32612	
2267	0	32660	
2268	0	32704	
2269	0	32724	
2270	0	32768	
2271	0	32784	
2272	0	32808	
2273	0	32828	
2274	0	32864	
2275	0	32866	
2276	0	32864	
2277	0	32868	
2278	0	32864	
2279	0	32884	
2280	0	32942	
2281	0	32974	
2282	0	33020	
2283	0	33020	
2284	0	33012	
2285	0	33028	
2286	0	33050	
2287	0	33074	
2288	0	33104	
2289	0	33112	
2290	0	33128	
2291	0	33156	
2292	0	33180	
2293	0	33152	
2294	0	33128	
2295	0	33132	
2296	0	33144	
2297	0	33128	
2298	0	33120	
2299	0	33120	
2300	0	33114	
2301	0	33104	
2302	0	33128	
2303	0	33200	
2304	0	33224	
2305	0	33232	
2306	0	33232	
2307	0	33224	
2308	0	33268	
2309	0	33260	
2310	0	33252	
2311	0	33200	
2312	0	33172	
2313	0	33176	
2314	0	33176	
2315	0	33184	
2316	0	33156	
2317	0	33160	
2318	0	33168	
2319	0	33196	
2320	0	33224	
2321	0	33220	
2322	0	33200	
2323	0	33176	
2324	0	33164	
2325	0	33160	
2326	0	33122	
2327	0	33100	
2328	0	33112	
2329	0	33096	
2330	0	33108	
2331	0	33116	
2332	0	33112	
2333	0	33092	
2334	0	33072	
2335	0	33060	
2336	0	33072	
2337	0	33096	
2338	0	33112	
2339	0	33108	
2340	0	33104	
2341	0	33120	
2342	0	33108	
2343	0	33072	
2344	0	33050	
2345	0	33064	
2346	0	33088	
2347	0	33092	
2348	0	33088	
2349	0	33092	
2350	0	33076	
2351	0	33056	
2352	0	33080	
2353	0	33096	
2354	0	33084	
2355	0	33056	
2356	0	33028	
2357	0	33000	
2358	0	32992	
2359	0	32996	
2360	0	32980	
2361	0	32960	
2362	0	32932	
2363	0	32892	
2364	0	32836	
2365	0	32810	
2366	0	32808	
2367	0	32816	
2368	0	32812	
2369	0	32832	
2370	0	32872	
2371	0	32932	
2372	0	32960	
2373	0	32972	
2374	0	32952	
2375	0	32912	
2376	0	32864	
2377	0	32820	
2378	0	32800	
2379	0	32804	
2380	0	32796	
2381	0	32804	
2382	0	32816	
2383	0	32816	
2384	0	32812	
2385	0	32848	
2386	0	32848	
2387	0	32836	
2388	0	32808	
2389	0	32768	
2390	0	32708	
2391	0	32660	
2392	0	32632	
2393	0	32612	
2394	0	32636	
2395	0	32624	
2396	0	32620	
2397	0	32642	
2398	0	32640	
2399	0	32648	
2400	0	32676	
2401	0	32700	
2402	0	32680	
2403	0	32672	
2404	0	32680	
2405	0	32696	
2406	0	32712	
2407	0	32660	
2408	0	32640	
2409	0	32636	
2410	0	32668	
2411	0	32704	
2412	0	32692	
2413	0	32700	
2414	0	32680	
2415	0	32656	
2416	0	32642	
2417	0	32616	
2418	0	32604	
2419	0	32646	
2420	0	32688	
2421	0	32740	
2422	0	32752	
2423	0	32706	
2424	0	32636	
2425	0	32584	
2426	0	32520	
2427	0	32532	
2428	0	32560	
2429	0	32588	
2430	0	32628	
2431	0	32662	
2432	0	32672	
2433	0	32664	
2434	0	32632	
2435	0	32616	
2436	0	32636	
2437	0	32654	
2438	0	32692	
2439	0	32724	
2440	0	32780	
2441	0	32872	
2442	0	32964	
2443	0	33076	
2444	0	33182	
2445	0	33312	
2446	0	33504	
2447	0	33684	
2448	0	33824	
2449	0	33940	
2450	0	34096	
2451	0	34304	
2452	0	34500	
2453	0	34644	
2454	0	34740	
2455	0	34832	
2456	0	34892	
2457	0	34956	
2458	0	34952	
2459	0	34904	
2460	0	34872	
2461	0	34856	
2462	0	34876	
2463	0	34940	
2464	0	34984	
2465	0	35024	
2466	0	35008	
2467	0	35032	
2468	0	35044	
2469	0	35108	
2470	0	35248	
2471	0	35500	
2472	0	35810	
2473	0	36128	
2474	0	36476	
2475	0	36834	
2476	0	37196	
2477	0	37462	
2478	0	37652	
2479	0	37776	
2480	0	37826	
2481	0	37832	
2482	0	37796	
2483	0	37772	
2484	0	37740	
2485	0	37696	
2486	0	37616	
2487	0	37498	
2488	0	37356	
2489	0	37220	
2490	0	37048	
2491	0	36888	
2492	0	36768	
2493	0	36684	
2494	0	36656	
2495	0	36658	
2496	0	36632	
2497	0	36616	
2498	0	36560	
2499	0	36488	
2500	0	36432	
2501	0	36340	
2502	0	36204	
2503	0	36072	
2504	0	35904	
2505	0	35688	
2506	0	35404	
2507	0	35056	
2508	0	34696	
2509	0	34338	
2510	0	33956	
2511	0	33492	
2512	0	33020	
2513	0	32596	
2514	0	32220	
2515	0	31968	
2516	0	31750	
2517	0	31576	
2518	0	31448	
2519	0	31364	
2520	0	31276	
2521	0	31192	
2522	0	31120	
2523	0	31064	
2524	0	30976	
2525	0	30864	
2526	0	30732	
2527	0	30592	
2528	0	30468	
2529	0	30376	
2530	0	30316	
2531	0	30252	
2532	0	30206	
2533	0	30184	
2534	0	30196	
2535	0	30228	
2536	0	30232	
2537	0	30276	
2538	0	30288	
2539	0	30280	
2540	0	30256	
2541	0	30276	
2542	0	30272	
2543	0	30252	
2544	0	30256	
2545	0	30288	
2546	0	30280	
2547	0	30256	
2548	0	30240	
2549	0	30268	
2550	0	30292	
2551	0	30362	
2552	0	30424	
2553	0	30492	
2554	0	30542	
2555	0	30570	
2556	0	30584	
2557	0	30588	
2558	0	30596	
2559	0	30620	
2560	0	30636	
2561	0	30664	
2562	0	30704	
2563	0	30708	
2564	0	30708	
2565	0	30716	
2566	0	30688	
2567	0	30592	
2568	0	30416	
2569	0	30120	
2570	0	29636	
2571	0	28898	
2572	0	27988	
2573	0	26988	
2574	0	25972	
2575	0	25056	
2576	0	24264	
2577	0	23656	
2578	0	23290	
2579	0	23108	
2580	0	23144	
2581	0	23484	
2582	0	24072	
2583	0	24838	
2584	0	25648	
2585	0	26848	
2586	0	28612	
2587	0	30868	
2588	0	33532	
2589	0	36368	
2590	0	39502	
2591	0	42944	
2592	0	46844	
2593	0	51196	
2594	0	55740	
2595	0	60016	
2596	0	62604	
2597	0	63960	
2598	0	64688	
2599	0	64992	
2600	0	65100	
2601	0	65104	
2602	0	65048	
2603	0	64972	
2604	0	64848	
2605	0	64736	
2606	0	64608	
2607	0	64484	
2608	0	57924	
2609	0	52364	
2610	0	47964	
2611	0	43512	
2612	0	38672	
2613	0	34052	
2614	0	30228	
2615	0	27096	
2616	0	24416	
2617	0	22232	
2618	0	20509	
2619	0	19212	
2620	0	18340	
2621	0	17688	
2622	0	17138	
2623	0	16764	
2624	0	16530	
2625	0	16530	
2626	0	16728	
2627	0	17072	
2628	0	17484	
2629	0	17984	
2630	0	18528	
2631	0	19044	
2632	0	19588	
2633	0	20180	
2634	0	20808	
2635	0	21450	
2636	0	22048	
2637	0	22624	
2638	0	23208	
2639	0	23840	
2640	0	24540	
2641	0	25280	
2642	0	25952	
2643	0	26480	
2644	0	26940	
2645	0	27384	
2646	0	27804	
2647	0	28176	
2648	0	28460	
2649	0	28648	
2650	0	28832	
2651	0	29004	
2652	0	29136	
2653	0	29220	
2654	0	29296	
2655	0	29380	
2656	0	29472	
2657	0	29548	
2658	0	29616	
2659	0	29660	
2660	0	29744	
2661	0	29816	
2662	0	29892	
2663	0	30024	
2664	0	30116	
2665	0	30180	
2666	0	30220	
2667	0	30264	
2668	0	30320	
2669	0	30406	
2670	0	30528	
2671	0	30632	
2672	0	30700	
2673	0	30754	
2674	0	30780	
2675	0	30804	
2676	0	30836	
2677	0	30856	
2678	0	30884	
2679	0	30906	
2680	0	30956	
2681	0	31028	
2682	0	31108	
2683	0	31172	
2684	0	31224	
2685	0	31288	
2686	0	31352	
2687	0	31392	
2688	0	31448	
2689	0	31532	
2690	0	31564	
2691	0	31564	
2692	0	31604	
2693	0	31640	
2694	0	31680	
2695	0	31712	
2696	0	31748	
2697	0	31772	
2698	0	31808	
2699	0	31872	
2700	0	31892	
2701	0	31932	
2702	0	31972	
2703	0	32048	
2704	0	32084	
2705	0	32080	
2706	0	32112	
2707	0	32148	
2708	0	32186	
2709	0	32224	
2710	0	32272	
2711	0	32344	
2712	0	32414	
2713	0	32432	
2714	0	32424	
2715	0	32440	
2716	0	32432	
2717	0	32448	
2718	0	32480	
2719	0	32496	
2720	0	32508	
2721	0	32504	
2722	0	32544	
2723	0	32568	
2724	0	32604	
2725	0	32632	
2726	0	32656	
2727	0	32664	
2728	0	32676	
2729	0	32712	
2730	0	32748	
2731	0	32760	
2732	0	32756	
2733	0	32800	
2734	0	32832	
2735	0	32872	
2736	0	32864	
2737	0	32888	
2738	0	32878	
2739	0	32868	
2740	0	32868	
2741	0	32872	
2742	0	32908	
2743	0	32968	
2744	0	32988	
2745	0	33012	
2746	0	33028	
2747	0	33058	
2748	0	33104	
2749	0	33120	
2750	0	33116	
2751	0	33136	
2752	0	33148	
2753	0	33164	
2754	0	33184	
2755	0	33206	
2756	0	33208	
2757	0	33244	
2758	0	33260	
2759	0	33260	
2760	0	33284	
2761	0	33284	
2762	0	33288	
2763	0	33296	
2764	0	33320	
2765	0	33300	
2766	0	33284	
2767	0	33324	
2768	0	33352	
2769	0	33392	
2770	0	33384	
2771	0	33364	
2772	0	33372	
2773	0	33384	
2774	0	33400	
2775	0	33408	
2776	0	33440	
2777	0	33420	
2778	0	33400	
2779	0	33378	
2780	0	33300	
2781	0	33248	
2782	0	33216	
2783	0	33224	
2784	0	33248	
2785	0	33280	
2786	0	33314	
2787	0	33306	
2788	0	33288	
2789	0	33320	
2790	0	33368	
2791	0	33400	
2792	0	33456	
2793	0	33440	
2794	0	33422	
2795	0	33432	
2796	0	33446	
2797	0	33430	
2798	0	33424	
2799	0	33416	
2800	0	33424	
2801	0	33416	
2802	0	33420	
2803	0	33428	
2804	0	33416	
2805	0	33436	
2806	0	33424	
2807	0	33400	
2808	0	33404	
2809	0	33440	
2810	0	33440	
2811	0	33448	
2812	0	33476	
2813	0	33508	
2814	0	33560	
2815	0	33596	
2816	0	33600	
2817	0	33624	
2818	0	33680	
2819	0	33720	
2820	0	33744	
2821	0	33808	
2822	0	33828	
2823	0	33848	
2824	0	33900	
2825	0	33978	
2826	0	34060	
2827	0	34124	
2828	0	34192	
2829	0	34276	
2830	0	34344	
2831	0	34372	
2832	0	34396	
2833	0	34404	
2834	0	34432	
2835	0	34432	
2836	0	34440	
2837	0	34410	
2838	0	34392	
2839	0	34400	
2840	0	34404	
2841	0	34372	
2842	0	34356	
2843	0	34328	
2844	0	34300	
2845	0	34272	
2846	0	34206	
2847	0	34152	
2848	0	34088	
2849	0	34028	
2850	0	33972	
2851	0	33896	
2852	0	33852	
2853	0	33792	
2854	0	33760	
2855	0	33772	
2856	0	33760	
2857	0	33728	
2858	0	33656	
2859	0	33592	
2860	0	33516	
2861	0	33472	
2862	0	33456	
2863	0	33436	
2864	0	33380	
2865	0	33312	
2866	0	33272	
2867	0	33252	
2868	0	33200	
2869	0	33124	
2870	0	33064	
2871	0	33000	
2872	0	32992	
2873	0	32960	
2874	0	32904	
2875	0	32856	
2876	0	32794	
2877	0	32740	
2878	0	32698	
2879	0	32680	
2880	0	32688	
2881	0	32724	
2882	0	32712	
2883	0	32684	
2884	0	32684	
2885	0	32684	
2886	0	32636	
2887	0	32608	
2888	0	32544	
2889	0	32504	
2890	0	32512	
2891	0	32520	
2892	0	32512	
2893	0	32536	
2894	0	32556	
2895	0	32576	
2896	0	32572	
2897	0	32576	
2898	0	32576	
2899	0	32544	
2900	0	32516	
2901	0	32544	
2902	0	32560	
2903	0	32584	
2904	0	32584	
2905	0	32588	
2906	0	32616	
2907	0	32632	
2908	0	32640	
2909	0	32666	
2910	0	32656	
2911	0	32640	
2912	0	32672	
2913	0	32676	
2914	0	32660	
2915	0	32684	
2916	0	32684	
2917	0	32676	
2918	0	32712	
2919	0	32748	
2920	0	32752	
2921	0	32732	
2922	0	32760	
2923	0	32828	
2924	0	32876	
2925	0	32906	
2926	0	32896	
2927	0	32868	
2928	0	32856	
2929	0	32864	
2930	0	32864	
2931	0	32904	
2932	0	32956	
2933	0	33008	
2934	0	33020	
2935	0	33040	
2936	0	33066	
2937	0	33120	
2938	0	33156	
2939	0	33152	
2940	0	33140	
2941	0	33164	
2942	0	33184	
2943	0	33176	
2944	0	33186	
2945	0	33180	
2946	0	33182	
2947	0	33178	
2948	0	33200	
2949	0	33228	
2950	0	33264	
2951	0	33308	
2952	0	33328	
2953	0	33352	
2954	0	33408	
2955	0	33424	
2956	0	33424	
2957	0	33404	
2958	0	33384	
2959	0	33352	
2960	0	33320	
2961	0	33340	
2962	0	33380	
2963	0	33424	
2964	0	33420	
2965	0	33432	
2966	0	33424	
2967	0	33436	
2968	0	33436	
2969	0	33460	
2970	0	33460	
2971	0	33444	
2972	0	33440	
2973	0	33468	
2974	0	33484	
2975	0	33492	
2976	0	33520	
2977	0	33544	
2978	0	33556	
2979	0	33560	
2980	0	33528	
2981	0	33488	
2982	0	33480	
2983	0	33488	
2984	0	33472	
2985	0	33464	
2986	0	33440	
2987	0	33440	
2988	0	33448	
2989	0	33460	
2990	0	33456	
2991	0	33472	
2992	0	33500	
2993	0	33546	
2994	0	33560	
2995	0	33536	
2996	0	33488	
2997	0	33480	
2998	0	33480	
2999	0	33516	
3000	0	33536	
3001	0	33536	
3002	0	33552	
3003	0	33524	
3004	0	33508	
3005	0	33504	
3006	0	33484	
3007	0	33416	
3008	0	33400	
3009	0	33426	
3010	0	33412	
3011	0	33412	
3012	0	33440	
3013	0	33452	
3014	0	33452	
3015	0	33472	
3016	0	33484	
3017	0	33472	
3018	0	33480	
3019	0	33444	
3020	0	33440	
3021	0	33432	
3022	0	33424	
3023	0	33456	
3024	0	33408	
3025	0	33368	
3026	0	33348	
3027	0	33360	
3028	0	33358	
3029	0	33348	
3030	0	33324	
3031	0	33312	
3032	0	33276	
3033	0	33220	
3034	0	33168	
3035	0	33156	
3036	0	33136	
3037	0	33152	
3038	0	33180	
3039	0	33212	
3040	0	33184	
3041	0	33156	
3042	0	33112	
3043	0	33056	
3044	0	33044	
3045	0	33008	
3046	0	32996	
3047	0	33012	
3048	0	33016	
3049	0	33044	
3050	0	33056	
3051	0	33036	
3052	0	33032	
3053	0	33000	
3054	0	32992	
3055	0	32954	
3056	0	32928	
3057	0	32932	
3058	0	32920	
3059	0	32916	
3060	0	32884	
3061	0	32860	
3062	0	32852	
3063	0	32848	
3064	0	32824	
3065	0	32792	
3066	0	32752	
3067	0	32722	
3068	0	32762	
3069	0	32776	
3070	0	32808	
3071	0	32864	
3072	0	32852	
3073	0	32840	
3074	0	32804	
3075	0	32744	
3076	0	32720	
3077	0	32740	
3078	0	32748	
3079	0	32756	
3080	0	32728	
3081	0	32692	
3082	0	32680	
3083	0	32678	
3084	0	32668	
3085	0	32664	
3086	0	32620	
3087	0	32600	
3088	0	32616	
3089	0	32616	
3090	0	32634	
3091	0	32644	
3092	0	32648	
3093	0	32644	
3094	0	32666	
3095	0	32676	
3096	0	32668	
3097	0	32628	
3098	0	32600	
3099	0	32600	
3100	0	32576	
3101	0	32584	
3102	0	32600	
3103	0	32606	
3104	0	32584	
3105	0	32564	
3106	0	32544	
3107	0	32564	
3108	0	32560	
3109	0	32572	
3110	0	32576	
3111	0	32564	
3112	0	32562	
3113	0	32606	
3114	0	32580	
3115	0	32496	
3116	0	32428	
3117	0	32392	
3118	0	32412	
3119	0	32440	
3120	0	32456	
3121	0	32488	
3122	0	32504	
3123	0	32490	
3124	0	32472	
3125	0	32456	
3126	0	32484	
3127	0	32496	
3128	0	32488	
3129	0	32468	
3130	0	32440	
3131	0	32396	
3132	0	32396	
3133	0	32436	
3134	0	32476	
3135	0	32516	
3136	0	32546	
3137	0	32544	
3138	0	32504	
3139	0	32462	
3140	0	32380	
3141	0	32356	
3142	0	32396	
3143	0	32448	
3144	0	32444	
3145	0	32456	
3146	0	32472	
3147	0	32456	
3148	0	32424	
3149	0	32396	
3150	0	32428	
3151	0	32448	
3152	0	32440	
3153	0	32476	
3154	0	32488	
3155	0	32454	
3156	0	32440	
3157	0	32456	
3158	0	32472	
3159	0	32418	
3160	0	32432	
3161	0	32446	
3162	0	32484	
3163	0	32492	
3164	0	32504	
3165	0	32500	
3166	0	32496	
3167	0	32480	
3168	0	32472	
3169	0	32452	
3170	0	32460	
3171	0	32484	
3172	0	32488	
3173	0	32484	
3174	0	32488	
3175	0	32480	
3176	0	32496	
3177	0	32508	
3178	0	32524	
3179	0	32532	
3180	0	32532	
3181	0	32568	
3182	0	32580	
3183	0	32560	
3184	0	32560	
3185	0	32544	
3186	0	32536	
3187	0	32540	
3188	0	32564	
3189	0	32600	
3190	0	32636	
3191	0	32656	
3192	0	32628	
3193	0	32596	
3194	0	32600	
3195	0	32592	
3196	0	32578	
3197	0	32602	
3198	0	32620	
3199	0	32608	
3200	0	32592	
3201	0	32592	
3202	0	32592	
3203	0	32608	
3204	0	32624	
3205	0	32632	
3206	0	32632	
3207	0	32652	
3208	0	32644	
3209	0	32628	
3210	0	32620	
3211	0	32592	
3212	0	32608	
3213	0	32636	
3214	0	32632	
3215	0	32640	
3216	0	32660	
3217	0	32696	
3218	0	32680	
3219	0	32624	
3220	0	32632	
3221	0	32628	
3222	0	32608	
3223	0	32596	
3224	0	32606	
3225	0	32640	
3226	0	32736	
3227	0	32812	
3228	0	32888	
3229	0	32952	
3230	0	33004	
3231	0	33124	
3232	0	33274	
3233	0	33476	
3234	0	33680	
3235	0	33832	
3236	0	33912	
3237	0	33960	
3238	0	34060	
3239	0	34220	
3240	0	34400	
3241	0	34584	
3242	0	34768	
3243	0	34888	
3244	0	34988	
3245	0	35064	
3246	0	35080	
3247	0	35024	
3248	0	34984	
3249	0	34892	
3250	0	34796	
3251	0	34706	
3252	0	34634	
3253	0	34596	
3254	0	34652	
3255	0	34800	
3256	0	35004	
3257	0	35296	
3258	0	35616	
3259	0	35908	
3260	0	36188	
3261	0	36516	
3262	0	36864	
3263	0	37140	
3264	0	37376	
3265	0	37572	
3266	0	37728	
3267	0	37812	
3268	0	37836	
3269	0	37808	
3270	0	37688	
3271	0	37548	
3272	0	37458	
3273	0	37388	
3274	0	37312	
3275	0	37188	
3276	0	37012	
3277	0	36846	
3278	0	36758	
3279	0	36680	
3280	0	36648	
3281	0	36660	
3282	0	36644	
3283	0	36596	
3284	0	36568	
3285	0	36532	
3286	0	36476	
3287	0	36384	
3288	0	36292	
3289	0	36172	
3290	0	35956	
3291	0	35684	
3292	0	35380	
3293	0	35028	
3294	0	34688	
3295	0	34364	
3296	0	33960	
3297	0	33488	
3298	0	33048	
3299	0	32660	
3300	0	32304	
3301	0	32032	
3302	0	31804	
3303	0	31672	
3304	0	31532	
3305	0	31416	
3306	0	31360	
3307	0	31300	
3308	0	31208	
3309	0	31072	
3310	0	30920	
3311	0	30836	
3312	0	30736	
3313	0	30624	
3314	0	30544	
3315	0	30496	
3316	0	30472	
3317	0	30452	
3318	0	30448	
3319	0	30460	
3320	0	30452	
3321	0	30460	
3322	0	30504	
3323	0	30504	
3324	0	30488	
3325	0	30520	
3326	0	30552	
3327	0	30572	
3328	0	30560	
3329	0	30532	
3330	0	30508	
3331	0	30528	
3332	0	30568	
3333	0	30600	
3334	0	30648	
3335	0	30664	
3336	0	30684	
3337	0	30696	
3338	0	30720	
3339	0	30752	
3340	0	30784	
3341	0	30800	
3342	0	30816	
3343	0	30822	
3344	0	30812	
3345	0	30818	
3346	0	30856	
3347	0	30936	
3348	0	30984	
3349	0	31008	
3350	0	31020	
3351	0	30996	
3352	0	30904	
3353	0	30728	
3354	0	30528	
3355	0	30244	
3356	0	29696	
3357	0	28936	
3358	0	28100	
3359	0	27204	
3360	0	26296	
3361	0	25492	
3362	0	24812	
3363	0	24380	
3364	0	24113	
3365	0	23976	
3366	0	24116	
3367	0	24540	
3368	0	25140	
3369	0	25824	
3370	0	26628	
3371	0	27876	
3372	0	29740	
3373	0	32120	
3374	0	34840	
3375	0	37680	
3376	0	40784	
3377	0	44160	
3378	0	47912	
3379	0	51968	
3380	0	56200	
3381	0	60144	
3382	0	62424	
3383	0	63620	
3384	0	64240	
3385	0	64490	
3386	0	64596	
3387	0	64584	
3388	0	64519	
3389	0	64420	
3390	0	64324	
3391	0	64200	
3392	0	64084	
3393	0	61236	
3394	0	54880	
3395	0	49772	
3396	0	45496	
3397	0	41208	
3398	0	36940	
3399	0	33192	
3400	0	30136	
3401	0	27525	
3402	0	25184	
3403	0	23168	
3404	0	21484	
3405	0	20112	
3406	0	19016	
3407	0	18164	
3408	0	17516	
3409	0	17112	
3410	0	16760	
3411	0	16460	
3412	0	16330	
3413	0	16496	
3414	0	16896	
3415	0	17512	
3416	0	18168	
3417	0	18800	
3418	0	19418	
3419	0	20092	
3420	0	20754	
3421	0	21380	
3422	0	21982	
3423	0	22576	
3424	0	23212	
3425	0	23892	
3426	0	24576	
3427	0	25284	
3428	0	25996	
3429	0	26610	
3430	0	27152	
3431	0	27592	
3432	0	27936	
3433	0	28256	
3434	0	28512	
3435	0	28760	
3436	0	28948	
3437	0	29122	
3438	0	29308	
3439	0	29440	
3440	0	29496	
3441	0	29564	
3442	0	29616	
3443	0	29680	
3444	0	29742	
3445	0	29824	
3446	0	29964	
3447	0	30076	
3448	0	30132	
3449	0	30188	
3450	0	30264	
3451	0	30348	
3452	0	30384	
3453	0	30384	
3454	0	30432	
3455	0	30524	
3456	0	30580	
3457	0	30588	
3458	0	30656	
3459	0	30760	
3460	0	30864	
3461	0	30930	
3462	0	30944	
3463	0	30978	
3464	0	31053	
3465	0	31132	
3466	0	31162	
3467	0	31208	
3468	0	31308	
3469	0	31384	
3470	0	31448	
3471	0	31464	
3472	0	31464	
3473	0	31512	
3474	0	31544	
3475	0	31584	
3476	0	31616	
3477	0	31632	
3478	0	31664	
3479	0	31712	
3480	0	31716	
3481	0	31744	
3482	0	31712	
3483	0	31728	
3484	0	31770	
3485	0	31824	
3486	0	31868	
3487	0	31924	
3488	0	32002	
3489	0	32084	
3490	0	32120	
3491	0	32128	
3492	0	32120	
3493	0	32184	
3494	0	32212	
3495	0	32248	
3496	0	32332	
3497	0	32380	
3498	0	32388	
3499	0	32396	
3500	0	32416	
3501	0	32488	
3502	0	32516	
3503	0	32520	
3504	0	32544	
3505	0	32584	
3506	0	32584	
3507	0	32564	
3508	0	32584	
3509	0	32652	
3510	0	32714	
3511	0	32716	
3512	0	32708	
3513	0	32784	
3514	0	32848	
3515	0	32880	
3516	0	32876	
3517	0	32898	
3518	0	32900	
3519	0	32928	
3520	0	32928	
3521	0	32918	
3522	0	32912	
3523	0	32896	
3524	0	32908	
3525	0	32936	
3526	0	32988	
3527	0	33040	
3528	0	33080	
3529	0	33120	
3530	0	33104	
3531	0	33122	
3532	0	33172	
3533	0	33224	
3534	0	33216	
3535	0	33208	
3536	0	33216	
3537	0	33220	
3538	0	33208	
3539	0	33196	
3540	0	33216	
3541	0	33288	
3542	0	33316	
3543	0	33288	
3544	0	33280	
3545	0	33288	
3546	0	33320	
3547	0	33344	
3548	0	33376	
3549	0	33380	
3550	0	33396	
3551	0	33436	
3552	0	33448	
3553	0	33432	
3554	0	33452	
3555	0	33492	
3556	0	33468	
3557	0	33392	
3558	0	33360	
3559	0	33368	
3560	0	33369	
3561	0	33360	
3562	0	33384	
3563	0	33428	
3564	0	33456	
3565	0	33464	
3566	0	33464	
3567	0	33468	
3568	0	33496	
3569	0	33480	
3570	0	33460	
3571	0	33400	
3572	0	33348	
3573	0	33332	
3574	0	33364	
3575	0	33332	
3576	0	33274	
3577	0	33276	
3578	0	33316	
3579	0	33296	
3580	0	33272	
3581	0	33220	
3582	0	33176	
3583	0	33140	
3584	0	33096	
3585	0	33060	
3586	0	33056	
3587	0	33040	
3588	0	33048	
3589	0	33056	
3590	0	33056	
3591	0	33080	
3592	0	33132	
3593	0	33160	
3594	0	33178	
3595	0	33148	
3596	0	33140	
3597	0	33130	
3598	0	33148	
3599	0	33196	
3600	0	33240	
3601	0	33272	
3602	0	33280	
3603	0	33260	
3604	0	33244	
3605	0	33262	
3606	0	33312	
3607	0	33348	
3608	0	33388	
3609	0	33420	
3610	0	33456	
3611	0	33524	
3612	0	33584	
3613	0	33652	
3614	0	33744	
3615	0	33832	
3616	0	33908	
3617	0	33920	
3618	0	33920	
3619	0	33980	
3620	0	34044	
3621	0	34100	
3622	0	34152	
3623	0	34212	
3624	0	34224	
3625	0	34260	
3626	0	34292	
3627	0	34336	
3628	0	34324	
3629	0	34306	
3630	0	34330	
3631	0	34384	
3632	0	34420	
3633	0	34388	
3634	0	34356	
3635	0	34272	
3636	0	34220	
3637	0	34160	
3638	0	34084	
3639	0	34032	
3640	0	34008	
3641	0	34004	
3642	0	33992	
3643	0	33944	
3644	0	33876	
3645	0	33860	
3646	0	33868	
3647	0	33860	
3648	0	33852	
3649	0	33844	
3650	0	33804	
3651	0	33768	
3652	0	33700	
3653	0	33656	
3654	0	33616	
3655	0	33582	
3656	0	33536	
3657	0	33512	
3658	0	33500	
3659	0	33464	
3660	0	33428	
3661	0	33384	
3662	0	33328	
3663	0	33264	
3664	0	33216	
3665	0	33148	
3666	0	33120	
3667	0	33084	
3668	0	33028	
3669	0	32992	
3670	0	32980	
3671	0	32964	
3672	0	32992	
3673	0	32976	
3674	0	32916	
3675	0	32896	
3676	0	32880	
3677	0	32844	
3678	0	32824	
3679	0	32812	
3680	0	32784	
3681	0	32736	
3682	0	32704	
3683	0	32708	
3684	0	32680	
3685	0	32652	
3686	0	32656	
3687	0	32620	
3688	0	32604	
3689	0	32624	
3690	0	32628	
3691	0	32608	
3692	0	32572	
3693	0	32592	
3694	0	32624	
3695	0	32612	
3696	0	32632	
3697	0	32644	
3698	0	32684	
3699	0	32736	
3700	0	32776	
3701	0	32772	
3702	0	32784	
3703	0	32770	
3704	0	32746	
3705	0	32754	
3706	0	32756	
3707	0	32772	
3708	0	32776	
3709	0	32792	
3710	0	32808	
3711	0	32832	
3712	0	32832	
3713	0	32844	
3714	0	32852	
3715	0	32864	
3716	0	32892	
3717	0	32884	
3718	0	32856	
3719	0	32868	
3720	0	32956	
3721	0	33002	
3722	0	33004	
3723	0	33016	
3724	0	33048	
3725	0	33082	
3726	0	33128	
3727	0	33120	
3728	0	33096	
3729	0	33076	
3730	0	33068	
3731	0	33072	
3732	0	33124	
3733	0	33176	
3734	0	33204	
3735	0	33224	
3736	0	33216	
3737	0	33248	
3738	0	33272	
3739	0	33300	
3740	0	33304	
3741	0	33288	
3742	0	33284	
3743	0	33252	
3744	0	33244	
3745	0	33272	
3746	0	33304	
3747	0	33320	
3748	0	33356	
3749	0	33352	
3750	0	33356	
3751	0	33428	
3752	0	33448	
3753	0	33456	
3754	0	33428	
3755	0	33408	
3756	0	33408	
3757	0	33424	
3758	0	33432	
3759	0	33424	
3760	0	33420	
3761	0	33440	
3762	0	33468	
3763	0	33456	
3764	0	33448	
3765	0	33436	
3766	0	33440	
3767	0	33472	
3768	0	33476	
3769	0	33480	
3770	0	33464	
3771	0	33476	
3772	0	33460	
3773	0	33472	
3774	0	33504	
3775	0	33496	
3776	0	33440	
3777	0	33404	
3778	0	33424	
3779	0	33440	
3780	0	33468	
3781	0	33490	
3782	0	33468	
3783	0	33436	
3784	0	33378	
3785	0	33344	
3786	0	33322	
3787	0	33312	
3788	0	33292	
3789	0	33288	
3790	0	33248	
3791	0	33228	
3792	0	33228	
3793	0	33248	
3794	0	33252	
3795	0	33252	
3796	0	33288	
3797	0	33320	
3798	0	33344	
3799	0	33368	
3800	0	33328	
3801	0	33320	
3802	0	33312	
3803	0	33324	
3804	0	33344	
3805	0	33312	
3806	0	33292	
3807	0	33246	
3808	0	33232	
3809	0	33232	
3810	0	33212	
3811	0	33220	
3812	0	33212	
3813	0	33176	
3814	0	33144	
3815	0	33104	
3816	0	33088	
3817	0	33050	
3818	0	33056	
3819	0	33088	
3820	0	33068	
3821	0	33036	
3822	0	33024	
3823	0	32996	
3824	0	32960	
3825	0	32900	
3826	0	32884	
3827	0	32893	
3828	0	32890	
3829	0	32888	
3830	0	32848	
3831	0	32844	
3832	0	32808	
3833	0	32792	
3834	0	32808	
3835	0	32784	
3836	0	32736	
3837	0	32692	
3838	0	32692	
3839	0	32712	
3840	0	32712	
3841	0	32704	
3842	0	32708	
3843	0	32716	
3844	0	32676	
3845	0	32648	
3846	0	32680	
3847	0	32688	
3848	0	32668	
3849	0	32676	
3850	0	32656	
3851	0	32648	
3852	0	32656	
3853	0	32660	
3854	0	32648	
3855	0	32624	
3856	0	32528	
3857	0	32456	
3858	0	32468	
3859	0	32464	
3860	0	32424	
3861	0	32392	
3862	0	32392	
3863	0	32376	
3864	0	32384	
3865	0	32392	
3866	0	32408	
3867	0	32428	
3868	0	32444	
3869	0	32448	
3870	0	32464	
3871	0	32468	
3872	0	32468	
3873	0	32448	
3874	0	32416	
3875	0	32360	
3876	0	32356	
3877	0	32364	
3878	0	32344	
3879	0	32336	
3880	0	32332	
3881	0	32340	
3882	0	32372	
3883	0	32404	
3884	0	32432	
3885	0	32416	
3886	0	32404	
3887	0	32404	
3888	0	32412	
3889	0	32408	
3890	0	32388	
3891	0	32376	
3892	0	32380	
3893	0	32360	
3894	0	32340	
3895	0	32376	
3896	0	32384	
3897	0	32376	
3898	0	32372	
3899	0	32368	
3900	0	32372	
3901	0	32388	
3902	0	32376	
3903	0	32352	
3904	0	32356	
3905	0	32328	
3906	0	32320	
3907	0	32324	
3908	0	32320	
3909	0	32312	
3910	0	32332	
3911	0	32344	
3912	0	32368	
3913	0	32412	
3914	0	32388	
3915	0	32368	
3916	0	32348	
3917	0	32368	
3918	0	32408	
3919	0	32432	
3920	0	32416	
3921	0	32412	
3922	0	32416	
3923	0	32392	
3924	0	32352	
3925	0	32316	
3926	0	32308	
3927	0	32320	
3928	0	32340	
3929	0	32328	
3930	0	32328	
3931	0	32324	
3932	0	32344	
3933	0	32348	
3934	0	32364	
3935	0	32352	
3936	0	32352	
3937	0	32362	
3938	0	32372	
3939	0	32352	
3940	0	32292	
3941	0	32224	
3942	0	32184	
3943	0	32186	
3944	0	32252	
3945	0	32313	
3946	0	32364	
3947	0	32372	
3948	0	32380	
3949	0	32360	
3950	0	32372	
3951	0	32332	
3952	0	32312	
3953	0	32280	
3954	0	32276	
3955	0	32296	
3956	0	32272	
3957	0	32244	
3958	0	32268	
3959	0	32284	
3960	0	32292	
3961	0	32312	
3962	0	32352	
3963	0	32368	
3964	0	32336	
3965	0	32344	
3966	0	32376	
3967	0	32368	
3968	0	32324	
3969	0	32324	
3970	0	32324	
3971	0	32336	
3972	0	32348	
3973	0	32340	
3974	0	32328	
3975	0	32352	
3976	0	32340	
3977	0	32344	
3978	0	32348	
3979	0	32344	
3980	0	32336	
3981	0	32356	
3982	0	32372	
3983	0	32368	
3984	0	32360	
3985	0	32360	
3986	0	32368	
3987	0	32352	
3988	0	32324	
3989	0	32296	
3990	0	32304	
3991	0	32336	
3992	0	32356	
3993	0	32364	
3994	0	32384	
3995	0	32384	
3996	0	32384	
3997	0	32396	
3998	0	32424	
3999	0	32440	
4000	0	32436	
4001	0	32452	
4002	0	32476	
4003	0	32456	
4004	0	32440	
4005	0	32430	
4006	0	32384	
4007	0	32368	
4008	0	32400	
4009	0	32448	
4010	0	32496	
4011	0	32548	
4012	0	32552	
4013	0	32508	
4014	0	32480	
4015	0	32440	
4016	0	32416	
4017	0	32372	
4018	0	32348	
4019	0	32336	
4020	0	32340	
4021	0	32392	
4022	0	32460	
4023	0	32544	
4024	0	32664	
4025	0	32824	
4026	0	32992	
4027	0	33240	
4028	0	33488	
4029	0	33688	
4030	0	33804	
4031	0	33864	
4032	0	33944	
4033	0	34052	
4034	0	34160	
4035	0	34306	
4036	0	34468	
4037	0	34610	
4038	0	34756	
4039	0	34892	
4040	0	34964	
4041	0	34976	
4042	0	34932	
4043	0	34864	
4044	0	34748	
4045	0	34616	
4046	0	34464	
4047	0	34424	
4048	0	34464	
4049	0	34580	
4050	0	34776	
4051	0	35012	
4052	0	35316	
4053	0	35652	
4054	0	35996	
4055	0	36324	
4056	0	36676	
4057	0	36964	
4058	0	37196	
4059	0	37372	
4060	0	37512	
4061	0	37608	
4062	0	37652	
4063	0	37648	
4064	0	37586	
4065	0	37464	
4066	0	37320	
4067	0	37216	
4068	0	37160	
4069	0	37080	
4070	0	36948	
4071	0	36764	
4072	0	36624	
4073	0	36512	
4074	0	36480	
4075	0	36480	
4076	0	36416	
4077	0	36308	
4078	0	36212	
4079	0	36148	
4080	0	36088	
4081	0	36040	
4082	0	35992	
4083	0	35896	
4084	0	35756	
4085	0	35552	
4086	0	35272	
4087	0	34912	
4088	0	34524	
4089	0	34180	
4090	0	33828	
4091	0	33352	
4092	0	32900	
4093	0	32460	
4094	0	32096	
4095	0	31812	
4096	0	31616	
4097	0	31460	
4098	0	31328	
4099	0	31224	
4100	0	31160	
4101	0	31080	
4102	0	31004	
4103	0	30892	
4104	0	30784	
4105	0	30640	
4106	0	30500	
4107	0	30384	
4108	0	30300	
4109	0	30234	
4110	0	30214	
4111	0	30232	
4112	0	30248	
4113	0	30248	
4114	0	30240	
4115	0	30240	
4116	0	30212	
4117	0	30244	
4118	0	30316	
4119	0	30402	
4120	0	30468	
4121	0	30540	
4122	0	30592	
4123	0	30592	
4124	0	30636	
4125	0	30686	
4126	0	30668	
4127	0	30644	
4128	0	30600	
4129	0	30568	
4130	0	30532	
4131	0	30508	
4132	0	30500	
4133	0	30488	
4134	0	30500	
4135	0	30496	
4136	0	30520	
4137	0	30496	
4138	0	30500	
4139	0	30496	
4140	0	30526	
4141	0	30528	
4142	0	30528	
4143	0	30554	
4144	0	30592	
4145	0	30612	
4146	0	30560	
4147	0	30468	
4148	0	30282	
4149	0	29904	
4150	0	29332	
4151	0	28580	
4152	0	27756	
4153	0	26884	
4154	0	26012	
4155	0	25232	
4156	0	24656	
4157	0	24341	
4158	0	24240	
4159	0	24296	
4160	0	24634	
4161	0	25184	
4162	0	25904	
4163	0	26736	
4164	0	27744	
4165	0	29188	
4166	0	31160	
4167	0	33608	
4168	0	36216	
4169	0	38904	
4170	0	41824	
4171	0	45060	
4172	0	48720	
4173	0	52640	
4174	0	56720	
4175	0	60376	
4176	0	62448	
4177	0	63520	
4178	0	64048	
4179	0	64288	
4180	0	64352	
4181	0	64312	
4182	0	64248	
4183	0	64176	
4184	0	64060	
4185	0	63944	
4186	0	63844	
4187	0	57964	
4188	0	51664	
4189	0	46580	
4190	0	42180	
4191	0	37888	
4192	0	33976	
4193	0	30688	
4194	0	27968	
4195	0	25632	
4196	0	23580	
4197	0	21796	
4198	0	20308	
4199	0	18952	
4200	0	17746	
4201	0	16748	
4202	0	16176	
4203	0	15898	
4204	0	15740	
4205	0	15576	
4206	0	15477	
4207	0	15660	
4208	0	16184	
4209	0	16846	
4210	0	17530	
4211	0	18232	
4212	0	18954	
4213	0	19680	
4214	0	20416	
4215	0	21096	
4216	0	21752	
4217	0	22392	
4218	0	23022	
4219	0	23676	
4220	0	24364	
4221	0	25058	
4222	0	25768	
4223	0	26448	
4224	0	27010	
4225	0	27484	
4226	0	27880	
4227	0	28218	
4228	0	28520	
4229	0	28756	
4230	0	28980	
4231	0	29200	
4232	0	29322	
4233	0	29424	
4234	0	29464	
4235	0	29488	
4236	0	29504	
4237	0	29580	
4238	0	29684	
4239	0	29784	
4240	0	29832	
4241	0	29848	
4242	0	29872	
4243	0	29936	
4244	0	30044	
4245	0	30180	
4246	0	30304	
4247	0	30426	
4248	0	30524	
4249	0	30604	
4250	0	30680	
4251	0	30780	
4252	0	30888	
4253	0	30964	
4254	0	31036	
4255	0	31146	
4256	0	31280	
4257	0	31348	
4258	0	31372	
4259	0	31368	
4260	0	31364	
4261	0	31390	
4262	0	31432	
4263	0	31448	
4264	0	31440	
4265	0	31424	
4266	0	31408	
4267	0	31448	
4268	0	31520	
4269	0	31560	
4270	0	31596	
4271	0	31608	
4272	0	31600	
4273	0	31596	
4274	0	31632	
4275	0	31724	
4276	0	31810	
4277	0	31880	
4278	0	31932	
4279	0	31992	
4280	0	32120	
4281	0	32224	
4282	0	32300	
4283	0	32328	
4284	0	32312	
4285	0	32324	
4286	0	32332	
4287	0	32340	
4288	0	32336	
4289	0	32314	
4290	0	32300	
4291	0	32344	
4292	0	32400	
4293	0	32404	
4294	0	32380	
4295	0	32380	
4296	0	32472	
4297	0	32612	
4298	0	32704	
4299	0	32762	
4300	0	32784	
4301	0	32768	
4302	0	32784	
4303	0	32800	
4304	0	32824	
4305	0	32844	
4306	0	32900	
4307	0	32958	
4308	0	32980	
4309	0	33000	
4310	0	33024	
4311	0	33032	
4312	0	33044	
4313	0	33092	
4314	0	33180	
4315	0	33240	
4316	0	33224	
4317	0	33184	
4318	0	33156	
4319	0	33120	
4320	0	33088	
4321	0	33096	
4322	0	33108	
4323	0	33142	
4324	0	33184	
4325	0	33304	
4326	0	33372	
4327	0	33348	
4328	0	33356	
4329	0	33372	
4330	0	33400	
4331	0	33432	
4332	0	33460	
4333	0	33492	
4334	0	33548	
4335	0	33616	
4336	0	33648	
4337	0	33664	
4338	0	33656	
4339	0	33634	
4340	0	33616	
4341	0	33608	
4342	0	33600	
4343	0	33620	
4344	0	33696	
4345	0	33808	
4346	0	33824	
4347	0	33816	
4348	0	33756	
4349	0	33696	
4350	0	33676	
4351	0	33724	
4352	0	33792	
4353	0	33812	
4354	0	33844	
4355	0	33844	
4356	0	33832	
4357	0	33856	
4358	0	33866	
4359	0	33852	
4360	0	33804	
4361	0	33788	
4362	0	33764	
4363	0	33708	
4364	0	33652	
4365	0	33616	
4366	0	33584	
4367	0	33520	
4368	0	33516	
4369	0	33540	
4370	0	33524	
4371	0	33432	
4372	0	33348	
4373	0	33344	
4374	0	33376	
4375	0	33392	
4376	0	33416	
4377	0	33464	
4378	0	33520	
4379	0	33532	
4380	0	33544	
4381	0	33568	
4382	0	33600	
4383	0	33616	
4384	0	33628	
4385	0	33676	
4386	0	33748	
4387	0	33780	
4388	0	33746	
4389	0	33678	
4390	0	33592	
4391	0	33537	
4392	0	33520	
4393	0	33520	
4394	0	33508	
4395	0	33516	
4396	0	33568	
4397	0	33622	
4398	0	33684	
4399	0	33724	
4400	0	33728	
4401	0	33744	
4402	0	33776	
4403	0	33792	
4404	0	33800	
4405	0	33840	
4406	0	33888	
4407	0	33948	
4408	0	34012	
4409	0	34024	
4410	0	34032	
4411	0	34008	
4412	0	33980	
4413	0	33940	
4414	0	33912	
4415	0	33940	
4416	0	34054	
4417	0	34256	
4418	0	34392	
4419	0	34476	
4420	0	34476	
4421	0	34508	
4422	0	34508	
4423	0	34436	
4424	0	34368	
4425	0	34264	
4426	0	34160	
4427	0	34112	
4428	0	34052	
4429	0	34004	
4430	0	33960	
4431	0	33924	
4432	0	33892	
4433	0	33824	
4434	0	33760	
4435	0	33684	
4436	0	33632	
4437	0	33560	
4438	0	33452	
4439	0	33338	
4440	0	33248	
4441	0	33176	
4442	0	33158	
4443	0	33156	
4444	0	33184	
4445	0	33184	
4446	0	33192	
4447	0	33168	
4448	0	33120	
4449	0	33056	
4450	0	33036	
4451	0	33008	
4452	0	32932	
4453	0	32768	
4454	0	32656	
4455	0	32608	
4456	0	32620	
4457	0	32612	
4458	0	32576	
4459	0	32532	
4460	0	32508	
4461	0	32504	
4462	0	32512	
4463	0	32512	
4464	0	32480	
4465	0	32464	
4466	0	32388	
4467	0	32274	
4468	0	32244	
4469	0	32312	
4470	0	32369	
4471	0	32360	
4472	0	32264	
4473	0	32212	
4474	0	32212	
4475	0	32192	
4476	0	32152	
4477	0	32152	
4478	0	32176	
4479	0	32280	
4480	0	32418	
4481	0	32476	
4482	0	32468	
4483	0	32448	
4484	0	32432	
4485	0	32388	
4486	0	32300	
4487	0	32204	
4488	0	32112	
4489	0	32036	
4490	0	32000	
4491	0	31952	
4492	0	31860	
4493	0	31816	
4494	0	31808	
4495	0	31820	
4496	0	31862	
4497	0	31864	
4498	0	31876	
4499	0	31892	
4500	0	31868	
4501	0	31856	
4502	0	31904	
4503	0	31960	
4504	0	31962	
4505	0	31988	
4506	0	32050	
4507	0	32056	
4508	0	32060	
4509	0	32132	
4510	0	32216	
4511	0	32296	
4512	0	32384	
4513	0	32400	
4514	0	32324	
4515	0	32192	
4516	0	32076	
4517	0	32040	
4518	0	31960	
4519	0	31864	
4520	0	31812	
4521	0	31860	
4522	0	31992	
4523	0	32144	
4524	0	32272	
4525	0	32384	
4526	0	32466	
4527	0	32588	
4528	0	32652	
4529	0	32628	
4530	0	32640	
4531	0	32748	
4532	0	32888	
4533	0	32996	
4534	0	33128	
4535	0	33184	
4536	0	33188	
4537	0	33144	
4538	0	33108	
4539	0	33084	
4540	0	33092	
4541	0	33144	
4542	0	33204	
4543	0	33300	
4544	0	33372	
4545	0	33428	
4546	0	33388	
4547	0	33288	
4548	0	33220	
4549	0	33172	
4550	0	33148	
4551	0	33132	
4552	0	33088	
4553	0	33020	
4554	0	33024	
4555	0	33144	
4556	0	33256	
4557	0	33352	
4558	0	33456	
4559	0	33532	
4560	0	33544	
4561	0	33524	
4562	0	33436	
4563	0	33268	
4564	0	33072	
4565	0	32956	
4566	0	32952	
4567	0	32988	
4568	0	33104	
4569	0	33296	
4570	0	33448	
4571	0	33520	
4572	0	33544	
4573	0	33524	
4574	0	33476	
4575	0	33396	
4576	0	33268	
4577	0	33168	
4578	0	33104	
4579	0	33104	
4580	0	33132	
4581	0	33112	
4582	0	33072	
4583	0	33020	
4584	0	32988	
4585	0	32976	
4586	0	32944	
4587	0	32972	
4588	0	33060	
4589	0	33160	
4590	0	33236	
4591	0	33316	
4592	0	33368	
4593	0	33376	
4594	0	33316	
4595	0	33272	
4596	0	33232	
4597	0	33240	
4598	0	33280	
4599	0	33332	
4600	0	33428	
4601	0	33448	
4602	0	33428	
4603	0	33412	
4604	0	33342	
4605	0	33212	
4606	0	33068	
4607	0	32904	
4608	0	32804	
4609	0	32864	
4610	0	32956	
4611	0	33024	
4612	0	33020	
4613	0	33020	
4614	0	33028	
4615	0	33032	
4616	0	33066	
4617	0	33086	
4618	0	33076	
4619	0	33056	
4620	0	33048	
4621	0	32980	
4622	0	32860	
4623	0	32664	
4624	0	32492	
4625	0	32362	
4626	0	32328	
4627	0	32332	
4628	0	32304	
4629	0	32232	
4630	0	32224	
4631	0	32304	
4632	0	32420	
4633	0	32552	
4634	0	32608	
4635	0	32576	
4636	0	32476	
4637	0	32368	
4638	0	32268	
4639	0	32212	
4640	0	32280	
4641	0	32336	
4642	0	32300	
4643	0	32308	
4644	0	32298	
4645	0	32236	
4646	0	32112	
4647	0	32032	
4648	0	32140	
4649	0	32356	
4650	0	32496	
4651	0	32588	
4652	0	32648	
4653	0	32692	
4654	0	32720	
4655	0	32756	
4656	0	32784	
4657	0	32732	
4658	0	32680	
4659	0	32564	
4660	0	32470	
4661	0	32416	
4662	0	32404	
4663	0	32496	
4664	0	32608	
4665	0	32602	
4666	0	32612	
4667	0	32640	
4668	0	32612	
4669	0	32488	
4670	0	32330	
4671	0	32228	
4672	0	32186	
4673	0	32164	
4674	0	32136	
4675	0	32104	
4676	0	32088	
4677	0	32080	
4678	0	32152	
4679	0	32216	
4680	0	32172	
4681	0	32124	
4682	0	32076	
4683	0	31996	
4684	0	31808	
4685	0	31536	
4686	0	31408	
4687	0	31568	
4688	0	31776	
4689	0	31940	
4690	0	32080	
4691	0	32220	
4692	0	32236	
4693	0	32272	
4694	0	32384	
4695	0	32472	
4696	0	32348	
4697	0	32076	
4698	0	31856	
4699	0	31712	
4700	0	31640	
4701	0	31704	
4702	0	31888	
4703	0	32152	
4704	0	32464	
4705	0	32770	
4706	0	32896	
4707	0	32844	
4708	0	32692	
4709	0	32480	
4710	0	32252	
4711	0	32096	
4712	0	32016	
4713	0	32016	
4714	0	32090	
4715	0	32224	
4716	0	32312	
4717	0	32356	
4718	0	32333	
4719	0	32228	
4720	0	32108	
4721	0	32120	
4722	0	32088	
4723	0	32024	
4724	0	32020	
4725	0	32088	
4726	0	32196	
4727	0	32304	
4728	0	32380	
4729	0	32356	
4730	0	32316	
4731	0	32240	
4732	0	32176	
4733	0	32140	
4734	0	32108	
4735	0	31968	
4736	0	31864	
4737	0	31924	
4738	0	32100	
4739	0	32276	
4740	0	32364	
4741	0	32416	
4742	0	32480	
4743	0	32540	
4744	0	32536	
4745	0	32384	
4746	0	32240	
4747	0	32170	
4748	0	32068	
4749	0	31920	
4750	0	31936	
4751	0	32080	
4752	0	32276	
4753	0	32448	
4754	0	32554	
4755	0	32624	
4756	0	32720	
4757	0	32792	
4758	0	32752	
4759	0	32594	
4760	0	32512	
4761	0	32480	
4762	0	32372	
4763	0	32236	
4764	0	32104	
4765	0	31912	
4766	0	31684	
4767	0	31520	
4768	0	31506	
4769	0	31648	
4770	0	31924	
4771	0	32224	
4772	0	32580	
4773	0	32956	
4774	0	33188	
4775	0	33248	
4776	0	33204	
4777	0	33120	
4778	0	33154	
4779	0	33324	
4780	0	33516	
4781	0	33684	
4782	0	33840	
4783	0	33990	
4784	0	34080	
4785	0	34140	
4786	0	34060	
4787	0	33836	
4788	0	33680	
4789	0	33588	
4790	0	33568	
4791	0	33628	
4792	0	33780	
4793	0	34020	
4794	0	34272	
4795	0	34448	
4796	0	34424	
4797	0	34380	
4798	0	34368	
4799	0	34424	
4800	0	34580	
4801	0	34858	
4802	0	35212	
4803	0	35568	
4804	0	35996	
4805	0	36332	
4806	0	36544	
4807	0	36672	
4808	0	36728	
4809	0	36768	
4810	0	36736	
4811	0	36640	
4812	0	36632	
4813	0	36676	
4814	0	36672	
4815	0	36612	
4816	0	36500	
4817	0	36420	
4818	0	36376	
4819	0	36312	
4820	0	36168	
4821	0	36028	
4822	0	35948	
4823	0	35940	
4824	0	35968	
4825	0	36032	
4826	0	36056	
4827	0	35972	
4828	0	35848	
4829	0	35692	
4830	0	35576	
4831	0	35524	
4832	0	35432	
4833	0	35356	
4834	0	35264	
4835	0	35076	
4836	0	34728	
4837	0	34400	
4838	0	34148	
4839	0	33920	
4840	0	33532	
4841	0	33084	
4842	0	32596	
4843	0	32048	
4844	0	31664	
4845	0	31460	
4846	0	31296	
4847	0	31160	
4848	0	31056	
4849	0	31104	
4850	0	31168	
4851	0	31132	
4852	0	30992	
4853	0	30936	
4854	0	30996	
4855	0	31104	
4856	0	31140	
4857	0	31132	
4858	0	31008	
4859	0	30776	
4860	0	30496	
4861	0	30408	
4862	0	30536	
4863	0	30708	
4864	0	30624	
4865	0	30468	
4866	0	30380	
4867	0	30364	
4868	0	30400	
4869	0	30404	
4870	0	30462	
4871	0	30556	
4872	0	30620	
4873	0	30570	
4874	0	30508	
4875	0	30548	
4876	0	30624	
4877	0	30700	
4878	0	30760	
4879	0	30782	
4880	0	30752	
4881	0	30656	
4882	0	30666	
4883	0	30732	
4884	0	30868	
4885	0	31080	
4886	0	31216	
4887	0	31176	
4888	0	31100	
4889	0	31094	
4890	0	31176	
4891	0	31248	
4892	0	31296	
4893	0	31320	
4894	0	31276	
4895	0	31128	
4896	0	30960	
4897	0	30836	
4898	0	30502	
4899	0	29908	
4900	0	29268	
4901	0	28592	
4902	0	27962	
4903	0	27436	
4904	0	27008	
4905	0	26828	
4906	0	26932	
4907	0	27068	
4908	0	27116	
4909	0	27308	
4910	0	27776	
4911	0	28442	
4912	0	29204	
4913	0	30124	
4914	0	31432	
4915	0	33156	
4916	0	35224	
4917	0	37844	
4918	0	40636	
4919	0	43560	
4920	0	46536	
4921	0	49720	
4922	0	53288	
4923	0	57040	
4924	0	60504	
4925	0	62500	
4926	0	63540	
4927	0	64040	
4928	0	64272	
4929	0	64336	
4930	0	64316	
4931	0	64256	
4932	0	64144	
4933	0	64048	
4934	0	63936	
4935	0	62528	
4936	0	53624	
4937	0	46192	
4938	0	40036	
4939	0	34940	
4940	0	30528	
4941	0	27080	
4942	0	24876	
4943	0	23568	
4944	0	22673	
4945	0	21916	
4946	0	21208	
4947	0	20320	
4948	0	19280	
4949	0	17908	
4950	0	16536	
4951	0	15652	
4952	0	15092	
4953	0	14766	
4954	0	14676	
4955	0	14816	
4956	0	15008	
4957	0	15192	
4958	0	15404	
4959	0	15692	
4960	0	16032	
4961	0	16560	
4962	0	17256	
4963	0	18004	
4964	0	18776	
4965	0	19606	
4966	0	20409	
4967	0	21092	
4968	0	21744	
4969	0	22433	
4970	0	23136	
4971	0	23870	
4972	0	24648	
4973	0	25420	
4974	0	26020	
4975	0	26452	
4976	0	26904	
4977	0	27396	
4978	0	27844	
4979	0	28234	
4980	0	28448	
4981	0	28576	
4982	0	28760	
4983	0	29060	
4984	0	29440	
4985	0	29892	
4986	0	30312	
4987	0	30608	
4988	0	30852	
4989	0	31056	
4990	0	31112	
4991	0	31108	
4992	0	31154	
4993	0	31172	
4994	0	31264	
4995	0	31450	
4996	0	31652	
4997	0	31832	
4998	0	31892	
4999	0	31900	
5000	0	31850	
5001	0	31772	
5002	0	31824	
5003	0	31916	
5004	0	32040	
5005	0	32208	
5006	0	32420	
5007	0	32464	
5008	0	32372	
5009	0	32224	
5010	0	32120	
5011	0	32048	
5012	0	31984	
5013	0	31904	
5014	0	31904	
5015	0	31990	
5016	0	32044	
5017	0	32112	
5018	0	32116	
5019	0	32024	
5020	0	32056	
5021	0	32208	
5022	0	32408	
5023	0	32640	
5024	0	32800	
5025	0	32928	
5026	0	33090	
5027	0	33184	
5028	0	33176	
5029	0	33144	
5030	0	33060	
5031	0	32988	
5032	0	32884	
5033	0	32764	
5034	0	32754	
5035	0	32938	
5036	0	33140	
5037	0	33248	
5038	0	33276	
5039	0	33228	
5040	0	33194	
5041	0	32980	
5042	0	32812	
5043	0	32700	
5044	0	32628	
5045	0	32676	
5046	0	32924	
5047	0	33344	
5048	0	33752	
5049	0	34024	
5050	0	34114	
5051	0	34200	
5052	0	34388	
5053	0	34504	
5054	0	34368	
5055	0	34024	
5056	0	33636	
5057	0	33406	
5058	0	33356	
5059	0	33460	
5060	0	33660	
5061	0	33856	
5062	0	33972	
5063	0	34156	
5064	0	34280	
5065	0	34240	
5066	0	34148	
5067	0	34128	
5068	0	34204	
5069	0	34328	
5070	0	34330	
5071	0	34260	
5072	0	34188	
5073	0	34150	
5074	0	34188	
5075	0	34328	
5076	0	34508	
5077	0	34594	
5078	0	34668	
5079	0	34732	
5080	0	34656	
5081	0	34528	
5082	0	34476	
5083	0	34436	
5084	0	34372	
5085	0	34336	
5086	0	34408	
5087	0	34476	
5088	0	34624	
5089	0	34900	
5090	0	35200	
5091	0	35332	
5092	0	35304	
5093	0	35140	
5094	0	34912	
5095	0	34844	
5096	0	34980	
5097	0	35144	
5098	0	35232	
5099	0	35192	
5100	0	35040	
5101	0	34936	
5102	0	34836	
5103	0	34796	
5104	0	34896	
5105	0	35100	
5106	0	35308	
5107	0	35384	
5108	0	35380	
5109	0	35352	
5110	0	35360	
5111	0	35296	
5112	0	35208	
5113	0	35172	
5114	0	35152	
5115	0	35204	
5116	0	35360	
5117	0	35480	
5118	0	35552	
5119	0	35532	
5120	0	35428	
5121	0	35328	
5122	0	35296	
5123	0	35262	
5124	0	35156	
5125	0	35136	
5126	0	35248	
5127	0	35290	
5128	0	35200	
5129	0	35240	
5130	0	35364	
5131	0	35324	
5132	0	35280	
5133	0	35354	
5134	0	35420	
5135	0	35368	
5136	0	35276	
5137	0	35232	
5138	0	35124	
5139	0	34976	
5140	0	34796	
5141	0	34816	
5142	0	34916	
5143	0	35056	
5144	0	35192	
5145	0	35204	
5146	0	35132	
5147	0	35140	
5148	0	35132	
5149	0	35088	
5150	0	35108	
5151	0	35164	
5152	0	35076	
5153	0	35022	
5154	0	35084	
5155	0	35164	
5156	0	35204	
5157	0	35336	
5158	0	35332	
5159	0	35172	
5160	0	35168	
5161	0	35212	
5162	0	35204	
5163	0	35152	
5164	0	35084	
5165	0	34892	
5166	0	34724	
5167	0	34628	
5168	0	34648	
5169	0	34688	
5170	0	34580	
5171	0	34496	
5172	0	34453	
5173	0	34352	
5174	0	34136	
5175	0	33880	
5176	0	33752	
5177	0	33720	
5178	0	33756	
5179	0	33848	
5180	0	33780	
5181	0	33584	
5182	0	33488	
5183	0	33316	
5184	0	33072	
5185	0	32880	
5186	0	32724	
5187	0	32714	
5188	0	32804	
5189	0	32956	
5190	0	33076	
5191	0	33064	
5192	0	32896	
5193	0	32656	
5194	0	32548	
5195	0	32632	
5196	0	32780	
5197	0	32946	
5198	0	32904	
5199	0	32576	
5200	0	32328	
5201	0	32256	
5202	0	32240	
5203	0	32176	
5204	0	32028	
5205	0	31794	
5206	0	31620	
5207	0	31488	
5208	0	31564	
5209	0	31584	
5210	0	31464	
5211	0	31520	
5212	0	31634	
5213	0	31768	
5214	0	31876	
5215	0	31800	
5216	0	31536	
5217	0	31352	
5218	0	31200	
5219	0	31096	
5220	0	31152	
5221	0	31348	
5222	0	31472	
5223	0	31516	
5224	0	31496	
5225	0	31408	
5226	0	31372	
5227	0	31388	
5228	0	31360	
5229	0	31314	
5230	0	31228	
5231	0	31128	
5232	0	31044	
5233	0	31016	
5234	0	31020	
5235	0	31100	
5236	0	31256	
5237	0	31376	
5238	0	31408	
5239	0	31424	
5240	0	31388	
5241	0	31348	
5242	0	31324	
5243	0	31260	
5244	0	31172	
5245	0	31080	
5246	0	31028	
5247	0	31004	
5248	0	31020	
5249	0	31056	
5250	0	31172	
5251	0	31308	
5252	0	31280	
5253	0	31224	
5254	0	31292	
5255	0	31384	
5256	0	31360	
5257	0	31328	
5258	0	31418	
5259	0	31512	
5260	0	31428	
5261	0	31284	
5262	0	31280	
5263	0	31384	
5264	0	31362	
5265	0	31244	
5266	0	31208	
5267	0	31164	
5268	0	31072	
5269	0	31072	
5270	0	31138	
5271	0	31120	
5272	0	31044	
5273	0	31012	
5274	0	31000	
5275	0	31136	
5276	0	31356	
5277	0	31584	
5278	0	31776	
5279	0	31836	
5280	0	31778	
5281	0	31802	
5282	0	31816	
5283	0	31732	
5284	0	31636	
5285	0	31736	
5286	0	31908	
5287	0	32004	
5288	0	32016	
5289	0	32080	
5290	0	32236	
5291	0	32468	
5292	0	32588	
5293	0	32544	
5294	0	32388	
5295	0	32296	
5296	0	32144	
5297	0	31968	
5298	0	31832	
5299	0	31848	
5300	0	31968	
5301	0	32116	
5302	0	32210	
5303	0	32346	
5304	0	32532	
5305	0	32728	
5306	0	32848	
5307	0	32924	
5308	0	32852	
5309	0	32772	
5310	0	32676	
5311	0	32604	
5312	0	32600	
5313	0	32688	
5314	0	32820	
5315	0	32936	
5316	0	33084	
5317	0	33296	
5318	0	33384	
5319	0	33348	
5320	0	33160	
5321	0	32952	
5322	0	32820	
5323	0	32744	
5324	0	32676	
5325	0	32712	
5326	0	32880	
5327	0	33028	
5328	0	33160	
5329	0	33304	
5330	0	33396	
5331	0	33344	
5332	0	33176	
5333	0	32920	
5334	0	32736	
5335	0	32784	
5336	0	32980	
5337	0	33184	
5338	0	33312	
5339	0	33236	
5340	0	32932	
5341	0	32666	
5342	0	32668	
5343	0	32780	
5344	0	32972	
5345	0	33124	
5346	0	33160	
5347	0	33084	
5348	0	32840	
5349	0	32516	
5350	0	32488	
5351	0	32704	
5352	0	32976	
5353	0	33196	
5354	0	33324	
5355	0	33324	
5356	0	33208	
5357	0	33072	
5358	0	32968	
5359	0	32902	
5360	0	32908	
5361	0	32920	
5362	0	32864	
5363	0	32874	
5364	0	32944	
5365	0	32940	
5366	0	32840	
5367	0	32712	
5368	0	32752	
5369	0	32856	
5370	0	32832	
5371	0	32720	
5372	0	32572	
5373	0	32476	
5374	0	32496	
5375	0	32552	
5376	0	32568	
5377	0	32504	
5378	0	32472	
5379	0	32440	
5380	0	32320	
5381	0	32236	
5382	0	32192	
5383	0	32204	
5384	0	32264	
5385	0	32440	
5386	0	32556	
5387	0	32544	
5388	0	32580	
5389	0	32692	
5390	0	32736	
5391	0	32632	
5392	0	32412	
5393	0	32172	
5394	0	32088	
5395	0	32176	
5396	0	32204	
5397	0	32188	
5398	0	32108	
5399	0	32064	
5400	0	32124	
5401	0	32196	
5402	0	32296	
5403	0	32360	
5404	0	32344	
5405	0	32356	
5406	0	32416	
5407	0	32288	
5408	0	32082	
5409	0	32084	
5410	0	32304	
5411	0	32556	
5412	0	32652	
5413	0	32608	
5414	0	32424	
5415	0	32058	
5416	0	31640	
5417	0	31360	
5418	0	31340	
5419	0	31528	
5420	0	31824	
5421	0	32132	
5422	0	32384	
5423	0	32484	
5424	0	32466	
5425	0	32376	
5426	0	32288	
5427	0	32284	
5428	0	32352	
5429	0	32404	
5430	0	32382	
5431	0	32360	
5432	0	32184	
5433	0	31912	
5434	0	31664	
5435	0	31604	
5436	0	31820	
5437	0	32148	
5438	0	32336	
5439	0	32444	
5440	0	32560	
5441	0	32584	
5442	0	32464	
5443	0	32242	
5444	0	32044	
5445	0	31952	
5446	0	31968	
5447	0	32040	
5448	0	32180	
5449	0	32300	
5450	0	32264	
5451	0	31988	
5452	0	31740	
5453	0	31768	
5454	0	31952	
5455	0	32044	
5456	0	32176	
5457	0	32410	
5458	0	32712	
5459	0	33004	
5460	0	33208	
5461	0	33370	
5462	0	33460	
5463	0	33428	
5464	0	33296	
5465	0	33132	
5466	0	32908	
5467	0	32800	
5468	0	32896	
5469	0	33088	
5470	0	33292	
5471	0	33572	
5472	0	33788	
5473	0	33966	
5474	0	34096	
5475	0	34096	
5476	0	34048	
5477	0	33976	
5478	0	33744	
5479	0	33576	
5480	0	33752	
5481	0	34128	
5482	0	34480	
5483	0	34768	
5484	0	35032	
5485	0	35248	
5486	0	35456	
5487	0	35824	
5488	0	36136	
5489	0	36384	
5490	0	36544	
5491	0	36644	
5492	0	36636	
5493	0	36520	
5494	0	36356	
5495	0	36136	
5496	0	36024	
5497	0	36108	
5498	0	36288	
5499	0	36392	
5500	0	36384	
5501	0	36320	
5502	0	36282	
5503	0	36352	
5504	0	36508	
5505	0	36500	
5506	0	36368	
5507	0	36172	
5508	0	36112	
5509	0	36116	
5510	0	35976	
5511	0	35868	
5512	0	35880	
5513	0	35856	
5514	0	35704	
5515	0	35472	
5516	0	35120	
5517	0	34722	
5518	0	34488	
5519	0	34312	
5520	0	34128	
5521	0	33876	
5522	0	33500	
5523	0	33032	
5524	0	32520	
5525	0	32056	
5526	0	31668	
5527	0	31304	
5528	0	31064	
5529	0	30964	
5530	0	31040	
5531	0	31168	
5532	0	31232	
5533	0	31240	
5534	0	31312	
5535	0	31456	
5536	0	31568	
5537	0	31580	
5538	0	31392	
5539	0	31044	
5540	0	30608	
5541	0	30220	
5542	0	29996	
5543	0	29976	
5544	0	30108	
5545	0	30288	
5546	0	30416	
5547	0	30412	
5548	0	30332	
5549	0	30276	
5550	0	30232	
5551	0	30160	
5552	0	30198	
5553	0	30328	
5554	0	30452	
5555	0	30488	
5556	0	30396	
5557	0	30268	
5558	0	30220	
5559	0	30304	
5560	0	30392	
5561	0	30360	
5562	0	30288	
5563	0	30134	
5564	0	30042	
5565	0	30084	
5566	0	30240	
5567	0	30424	
5568	0	30596	
5569	0	30752	
5570	0	30844	
5571	0	30944	
5572	0	31008	
5573	0	30972	
5574	0	30900	
5575	0	30824	
5576	0	30776	
5577	0	30788	
5578	0	30832	
5579	0	30744	
5580	0	30476	
5581	0	30020	
5582	0	29500	
5583	0	28948	
5584	0	28326	
5585	0	27712	
5586	0	27152	
5587	0	26664	
5588	0	26304	
5589	0	26180	
5590	0	26252	
5591	0	26456	
5592	0	26900	
5593	0	27624	
5594	0	28388	
5595	0	29158	
5596	0	30204	
5597	0	31812	
5598	0	33864	
5599	0	36296	
5600	0	38980	
5601	0	41616	
5602	0	44316	
5603	0	47136	
5604	0	50156	
5605	0	53348	
5606	0	56676	
5607	0	60080	
5608	0	62280	
5609	0	63424	
5610	0	64000	
5611	0	64260	
5612	0	64328	
5613	0	64324	
5614	0	64256	
5615	0	64168	
5616	0	64076	
5617	0	63952	
5618	0	60732	
5619	0	52016	
5620	0	44704	
5621	0	38604	
5622	0	33506	
5623	0	29006	
5624	0	25652	
5625	0	23648	
5626	0	22536	
5627	0	21652	
5628	0	20756	
5629	0	19888	
5630	0	19024	
5631	0	18052	
5632	0	16974	
5633	0	16064	
5634	0	15289	
5635	0	14772	
5636	0	14594	
5637	0	14784	
5638	0	15044	
5639	0	15196	
5640	0	15312	
5641	0	15509	
5642	0	15776	
5643	0	16260	
5644	0	16980	
5645	0	17728	
5646	0	18368	
5647	0	19012	
5648	0	19684	
5649	0	20404	
5650	0	21080	
5651	0	21712	
5652	0	22472	
5653	0	23286	
5654	0	24100	
5655	0	24908	
5656	0	25664	
5657	0	26298	
5658	0	26892	
5659	0	27508	
5660	0	28050	
5661	0	28476	
5662	0	28828	
5663	0	29192	
5664	0	29472	
5665	0	29524	
5666	0	29516	
5667	0	29664	
5668	0	29856	
5669	0	30140	
5670	0	30428	
5671	0	30596	
5672	0	30736	
5673	0	30928	
5674	0	31098	
5675	0	31274	
5676	0	31324	
5677	0	31244	
5678	0	31130	
5679	0	31022	
5680	0	30912	
5681	0	30912	
5682	0	31040	
5683	0	31232	
5684	0	31352	
5685	0	31412	
5686	0	31480	
5687	0	31540	
5688	0	31616	
5689	0	31696	
5690	0	31836	
5691	0	31980	
5692	0	32064	
5693	0	32116	
5694	0	32136	
5695	0	32144	
5696	0	32244	
5697	0	32392	
5698	0	32484	
5699	0	32508	
5700	0	32472	
5701	0	32472	
5702	0	32496	
5703	0	32544	
5704	0	32624	
5705	0	32648	
5706	0	32608	
5707	0	32592	
5708	0	32620	
5709	0	32660	
5710	0	32700	
5711	0	32628	
5712	0	32524	
5713	0	32508	
5714	0	32616	
5715	0	32804	
5716	0	32888	
5717	0	32852	
5718	0	32860	
5719	0	32972	
5720	0	33136	
5721	0	33180	
5722	0	33172	
5723	0	33196	
5724	0	33248	
5725	0	33340	
5726	0	33356	
5727	0	33296	
5728	0	33292	
5729	0	33380	
5730	0	33456	
5731	0	33540	
5732	0	33612	
5733	0	33656	
5734	0	33740	
5735	0	33852	
5736	0	33928	
5737	0	33844	
5738	0	33712	
5739	0	33628	
5740	0	33644	
5741	0	33752	
5742	0	33834	
5743	0	33864	
5744	0	33856	
5745	0	33816	
5746	0	33740	
5747	0	33652	
5748	0	33584	
5749	0	33504	
5750	0	33344	
5751	0	33286	
5752	0	33414	
5753	0	33672	
5754	0	33992	
5755	0	34336	
5756	0	34520	
5757	0	34492	
5758	0	34458	
5759	0	34498	
5760	0	34492	
5761	0	34404	
5762	0	34364	
5763	0	34456	
5764	0	34652	
5765	0	34788	
5766	0	34816	
5767	0	34812	
5768	0	34616	
5769	0	34376	
5770	0	34258	
5771	0	34288	
5772	0	34388	
5773	0	34576	
5774	0	34876	
5775	0	35024	
5776	0	35064	
5777	0	35000	
5778	0	34912	
5779	0	34782	
5780	0	34732	
5781	0	34820	
5782	0	34912	
5783	0	35072	
5784	0	35144	
5785	0	35116	
5786	0	35008	
5787	0	34908	
5788	0	34840	
5789	0	34864	
5790	0	34920	
5791	0	34976	
5792	0	34988	
5793	0	34842	
5794	0	34600	
5795	0	34504	
5796	0	34636	
5797	0	34880	
5798	0	35008	
5799	0	35028	
5800	0	35178	
5801	0	35428	
5802	0	35602	
5803	0	35636	
5804	0	35628	
5805	0	35512	
5806	0	35420	
5807	0	35404	
5808	0	35368	
5809	0	35276	
5810	0	35244	
5811	0	35296	
5812	0	35296	
5813	0	35400	
5814	0	35504	
5815	0	35564	
5816	0	35416	
5817	0	35180	
5818	0	35072	
5819	0	35108	
5820	0	35244	
5821	0	35392	
5822	0	35464	
5823	0	35392	
5824	0	35328	
5825	0	35312	
5826	0	35264	
5827	0	35172	
5828	0	34972	
5829	0	34812	
5830	0	34684	
5831	0	34682	
5832	0	34760	
5833	0	34888	
5834	0	35004	
5835	0	35020	
5836	0	35016	
5837	0	35048	
5838	0	35024	
5839	0	34996	
5840	0	34976	
5841	0	34936	
5842	0	34892	
5843	0	34852	
5844	0	34720	
5845	0	34512	
5846	0	34256	
5847	0	34012	
5848	0	33916	
5849	0	33976	
5850	0	34208	
5851	0	34436	
5852	0	34464	
5853	0	34328	
5854	0	34136	
5855	0	33960	
5856	0	33878	
5857	0	33852	
5858	0	33876	
5859	0	33920	
5860	0	33928	
5861	0	33920	
5862	0	33800	
5863	0	33640	
5864	0	33488	
5865	0	33328	
5866	0	33100	
5867	0	32832	
5868	0	32674	
5869	0	32664	
5870	0	32688	
5871	0	32740	
5872	0	32760	
5873	0	32706	
5874	0	32700	
5875	0	32664	
5876	0	32508	
5877	0	32332	
5878	0	32328	
5879	0	32474	
5880	0	32488	
5881	0	32384	
5882	0	32288	
5883	0	32156	
5884	0	32052	
5885	0	31968	
5886	0	31888	
5887	0	31832	
5888	0	31796	
5889	0	31738	
5890	0	31688	
5891	0	31628	
5892	0	31456	
5893	0	31280	
5894	0	31320	
5895	0	31472	
5896	0	31620	
5897	0	31644	
5898	0	31632	
5899	0	31680	
5900	0	31792	
5901	0	31856	
5902	0	31820	
5903	0	31664	
5904	0	31448	
5905	0	31296	
5906	0	31300	
5907	0	31384	
5908	0	31428	
5909	0	31432	
5910	0	31420	
5911	0	31436	
5912	0	31456	
5913	0	31476	
5914	0	31572	
5915	0	31628	
5916	0	31516	
5917	0	31360	
5918	0	31332	
5919	0	31396	
5920	0	31412	
5921	0	31360	
5922	0	31296	
5923	0	31304	
5924	0	31360	
5925	0	31348	
5926	0	31180	
5927	0	31032	
5928	0	30912	
5929	0	30892	
5930	0	31072	
5931	0	31360	
5932	0	31552	
5933	0	31548	
5934	0	31472	
5935	0	31438	
5936	0	31424	
5937	0	31392	
5938	0	31384	
5939	0	31476	
5940	0	31488	
5941	0	31460	
5942	0	31476	
5943	0	31472	
5944	0	31372	
5945	0	31264	
5946	0	31272	
5947	0	31380	
5948	0	31548	
5949	0	31720	
5950	0	31800	
5951	0	31772	
5952	0	31812	
5953	0	31832	
5954	0	31844	
5955	0	31792	
5956	0	31778	
5957	0	31792	
5958	0	31752	
5959	0	31680	
5960	0	31628	
5961	0	31532	
5962	0	31472	
5963	0	31560	
5964	0	31628	
5965	0	31648	
5966	0	31752	
5967	0	31904	
5968	0	32012	
5969	0	32072	
5970	0	32096	
5971	0	32076	
5972	0	32056	
5973	0	31984	
5974	0	31864	
5975	0	31728	
5976	0	31680	
5977	0	31788	
5978	0	31960	
5979	0	32056	
5980	0	32140	
5981	0	32252	
5982	0	32356	
5983	0	32488	
5984	0	32636	
5985	0	32740	
5986	0	32812	
5987	0	32832	
5988	0	32832	
5989	0	32800	
5990	0	32728	
5991	0	32660	
5992	0	32528	
5993	0	32388	
5994	0	32342	
5995	0	32456	
5996	0	32612	
5997	0	32688	
5998	0	32712	
5999	0	32656	
6000	0	32604	
6001	0	32684	
6002	0	32812	
6003	0	32900	
6004	0	32996	
6005	0	33068	
6006	0	33040	
6007	0	32978	
6008	0	32956	
6009	0	32932	
6010	0	32932	
6011	0	32994	
6012	0	33032	
6013	0	33016	
6014	0	32972	
6015	0	32976	
6016	0	32992	
6017	0	32986	
6018	0	32920	
6019	0	32858	
6020	0	32800	
6021	0	32696	
6022	0	32604	
6023	0	32624	
6024	0	32660	
6025	0	32640	
6026	0	32700	
6027	0	32764	
6028	0	32892	
6029	0	33064	
6030	0	33232	
6031	0	33324	
6032	0	33320	
6033	0	33232	
6034	0	33148	
6035	0	33124	
6036	0	33090	
6037	0	33036	
6038	0	33000	
6039	0	33004	
6040	0	33008	
6041	0	32924	
6042	0	32760	
6043	0	32704	
6044	0	32708	
6045	0	32760	
6046	0	32832	
6047	0	32894	
6048	0	32972	
6049	0	32932	
6050	0	32864	
6051	0	32776	
6052	0	32736	
6053	0	32784	
6054	0	32794	
6055	0	32768	
6056	0	32752	
6057	0	32744	
6058	0	32720	
6059	0	32668	
6060	0	32568	
6061	0	32476	
6062	0	32448	
6063	0	32538	
6064	0	32622	
6065	0	32608	
6066	0	32596	
6067	0	32624	
6068	0	32620	
6069	0	32656	
6070	0	32712	
6071	0	32746	
6072	0	32744	
6073	0	32640	
6074	0	32472	
6075	0	32344	
6076	0	32380	
6077	0	32504	
6078	0	32592	
6079	0	32616	
6080	0	32628	
6081	0	32592	
6082	0	32488	
6083	0	32328	
6084	0	32204	
6085	0	32120	
6086	0	32040	
6087	0	31960	
6088	0	31962	
6089	0	32020	
6090	0	32096	
6091	0	32176	
6092	0	32264	
6093	0	32352	
6094	0	32492	
6095	0	32648	
6096	0	32676	
6097	0	32634	
6098	0	32576	
6099	0	32492	
6100	0	32416	
6101	0	32366	
6102	0	32404	
6103	0	32460	
6104	0	32432	
6105	0	32352	
6106	0	32282	
6107	0	32182	
6108	0	32032	
6109	0	31940	
6110	0	32020	
6111	0	32192	
6112	0	32412	
6113	0	32648	
6114	0	32908	
6115	0	33128	
6116	0	33252	
6117	0	33280	
6118	0	33290	
6119	0	33328	
6120	0	33380	
6121	0	33476	
6122	0	33584	
6123	0	33692	
6124	0	33744	
6125	0	33792	
6126	0	33896	
6127	0	33956	
6128	0	33888	
6129	0	33808	
6130	0	33760	
6131	0	33728	
6132	0	33652	
6133	0	33612	
6134	0	33656	
6135	0	33752	
6136	0	33844	
6137	0	33928	
6138	0	33962	
6139	0	34074	
6140	0	34368	
6141	0	34736	
6142	0	35096	
6143	0	35504	
6144	0	35924	
6145	0	36256	
6146	0	36416	
6147	0	36484	
6148	0	36468	
6149	0	36524	
6150	0	36640	
6151	0	36728	
6152	0	36804	
6153	0	36832	
6154	0	36784	
6155	0	36696	
6156	0	36592	
6157	0	36400	
6158	0	36216	
6159	0	36100	
6160	0	36072	
6161	0	36080	
6162	0	36088	
6163	0	36084	
6164	0	36136	
6165	0	36160	
6166	0	36140	
6167	0	36072	
6168	0	35944	
6169	0	35784	
6170	0	35656	
6171	0	35552	
6172	0	35404	
6173	0	35192	
6174	0	34976	
6175	0	34824	
6176	0	34728	
6177	0	34600	
6178	0	34400	
6179	0	33976	
6180	0	33356	
6181	0	32808	
6182	0	32412	
6183	0	32088	
6184	0	31840	
6185	0	31644	
6186	0	31452	
6187	0	31256	
6188	0	31072	
6189	0	30938	
6190	0	30884	
6191	0	30912	
6192	0	30932	
6193	0	30888	
6194	0	30820	
6195	0	30736	
6196	0	30536	
6197	0	30292	
6198	0	30032	
6199	0	29880	
6200	0	29824	
6201	0	29776	
6202	0	29792	
6203	0	29760	
6204	0	29794	
6205	0	29936	
6206	0	30136	
6207	0	30248	
6208	0	30260	
6209	0	30216	
6210	0	30220	
6211	0	30272	
6212	0	30304	
6213	0	30256	
6214	0	30208	
6215	0	30252	
6216	0	30312	
6217	0	30324	
6218	0	30272	
6219	0	30212	
6220	0	30200	
6221	0	30192	
6222	0	30204	
6223	0	30240	
6224	0	30276	
6225	0	30312	
6226	0	30336	
6227	0	30400	
6228	0	30528	
6229	0	30672	
6230	0	30744	
6231	0	30700	
6232	0	30636	
6233	0	30600	
6234	0	30560	
6235	0	30508	
6236	0	30472	
6237	0	30404	
6238	0	30272	
6239	0	29936	
6240	0	29320	
6241	0	28616	
6242	0	27920	
6243	0	27204	
6244	0	26480	
6245	0	25836	
6246	0	25328	
6247	0	25052	
6248	0	25008	
6249	0	25148	
6250	0	25508	
6251	0	26008	
6252	0	26600	
6253	0	27384	
6254	0	28512	
6255	0	30092	
6256	0	32100	
6257	0	34560	
6258	0	37248	
6259	0	39984	
6260	0	42816	
6261	0	45824	
6262	0	49188	
6263	0	52944	
6264	0	56912	
6265	0	60552	
6266	0	62632	
6267	0	63704	
6268	0	64248	
6269	0	64472	
6270	0	64544	
6271	0	64528	
6272	0	64464	
6273	0	64376	
6274	0	64264	
6275	0	64128	
6276	0	62948	
6277	0	54224	
6278	0	46736	
6279	0	40596	
6280	0	35544	
6281	0	31036	
6282	0	27160	
6283	0	24501	
6284	0	22792	
6285	0	21536	
6286	0	20406	
6287	0	19332	
6288	0	18216	
6289	0	17092	
6290	0	16146	
6291	0	15352	
6292	0	14864	
6293	0	14646	
6294	0	14652	
6295	0	14712	
6296	0	14718	
6297	0	14814	
6298	0	15140	
6299	0	15620	
6300	0	16200	
6301	0	16881	
6302	0	17588	
6303	0	18304	
6304	0	19030	
6305	0	19680	
6306	0	20320	
6307	0	20956	
6308	0	21612	
6309	0	22330	
6310	0	23044	
6311	0	23776	
6312	0	24476	
6313	0	25132	
6314	0	25812	
6315	0	26500	
6316	0	27160	
6317	0	27728	
6318	0	28192	
6319	0	28580	
6320	0	28912	
6321	0	29192	
6322	0	29436	
6323	0	29640	
6324	0	29826	
6325	0	30004	
6326	0	30160	
6327	0	30280	
6328	0	30340	
6329	0	30344	
6330	0	30348	
6331	0	30332	
6332	0	30416	
6333	0	30520	
6334	0	30624	
6335	0	30720	
6336	0	30820	
6337	0	30900	
6338	0	30944	
6339	0	31000	
6340	0	31032	
6341	0	31040	
6342	0	31048	
6343	0	31104	
6344	0	31216	
6345	0	31424	
6346	0	31656	
6347	0	31856	
6348	0	31912	
6349	0	31864	
6350	0	31736	
6351	0	31668	
6352	0	31700	
6353	0	31772	
6354	0	31852	
6355	0	31918	
6356	0	31932	
6357	0	31960	
6358	0	32064	
6359	0	32148	
6360	0	32172	
6361	0	32168	
6362	0	32140	
6363	0	32228	
6364	0	32336	
6365	0	32404	
6366	0	32332	
6367	0	32288	
6368	0	32340	
6369	0	32368	
6370	0	32384	
6371	0	32476	
6372	0	32608	
6373	0	32744	
6374	0	32800	
6375	0	32856	
6376	0	32876	
6377	0	32868	
6378	0	32882	
6379	0	32924	
6380	0	32981	
6381	0	33020	
6382	0	33032	
6383	0	32994	
6384	0	32944	
6385	0	32952	
6386	0	32988	
6387	0	33032	
6388	0	33108	
6389	0	33120	
6390	0	33096	
6391	0	33076	
6392	0	33148	
6393	0	33224	
6394	0	33336	
6395	0	33396	
6396	0	33444	
6397	0	33484	
6398	0	33512	
6399	0	33488	
6400	0	33464	
6401	0	33496	
6402	0	33544	
6403	0	33576	
6404	0	33525	
6405	0	33408	
6406	0	33256	
6407	0	33164	
6408	0	33212	
6409	0	33360	
6410	0	33596	
6411	0	33800	
6412	0	33976	
6413	0	34088	
6414	0	34112	
6415	0	34096	
6416	0	34080	
6417	0	34048	
6418	0	34044	
6419	0	34036	
6420	0	33968	
6421	0	33944	
6422	0	33932	
6423	0	33988	
6424	0	33984	
6425	0	33956	
6426	0	33936	
6427	0	33948	
6428	0	33956	
6429	0	33948	
6430	0	34008	
6431	0	34104	
6432	0	34132	
6433	0	34144	
6434	0	34188	
6435	0	34272	
6436	0	34316	
6437	0	34312	
6438	0	34340	
6439	0	34376	
6440	0	34440	
6441	0	34492	
6442	0	34516	
6443	0	34508	
6444	0	34460	
6445	0	34428	
6446	0	34428	
6447	0	34420	
6448	0	34452	
6449	0	34468	
6450	0	34480	
6451	0	34472	
6452	0	34528	
6453	0	34592	
6454	0	34632	
6455	0	34628	
6456	0	34600	
6457	0	34584	
6458	0	34592	
6459	0	34656	
6460	0	34676	
6461	0	34684	
6462	0	34748	
6463	0	34808	
6464	0	34820	
6465	0	34816	
6466	0	34796	
6467	0	34816	
6468	0	34852	
6469	0	34840	
6470	0	34752	
6471	0	34708	
6472	0	34648	
6473	0	34592	
6474	0	34568	
6475	0	34588	
6476	0	34600	
6477	0	34664	
6478	0	34720	
6479	0	34784	
6480	0	34836	
6481	0	34804	
6482	0	34732	
6483	0	34648	
6484	0	34548	
6485	0	34512	
6486	0	34564	
6487	0	34668	
6488	0	34796	
6489	0	34872	
6490	0	34852	
6491	0	34788	
6492	0	34696	
6493	0	34636	
6494	0	34632	
6495	0	34652	
6496	0	34684	
6497	0	34708	
6498	0	34732	
6499	0	34736	
6500	0	34716	
6501	0	34688	
6502	0	34612	
6503	0	34544	
6504	0	34464	
6505	0	34372	
6506	0	34368	
6507	0	34404	
6508	0	34400	
6509	0	34336	
6510	0	34226	
6511	0	34168	
6512	0	34144	
6513	0	34136	
6514	0	34134	
6515	0	34120	
6516	0	34060	
6517	0	33960	
6518	0	33864	
6519	0	33728	
6520	0	33548	
6521	0	33404	
6522	0	33322	
6523	0	33260	
6524	0	33180	
6525	0	33092	
6526	0	33028	
6527	0	32970	
6528	0	32840	
6529	0	32684	
6530	0	32568	
6531	0	32516	
6532	0	32516	
6533	0	32524	
6534	0	32528	
6535	0	32480	
6536	0	32404	
6537	0	32328	
6538	0	32264	
6539	0	32190	
6540	0	32128	
6541	0	32072	
6542	0	32000	
6543	0	31960	
6544	0	31940	
6545	0	31944	
6546	0	31904	
6547	0	31816	
6548	0	31748	
6549	0	31752	
6550	0	31752	
6551	0	31724	
6552	0	31688	
6553	0	31680	
6554	0	31652	
6555	0	31680	
6556	0	31748	
6557	0	31770	
6558	0	31800	
6559	0	31784	
6560	0	31736	
6561	0	31672	
6562	0	31612	
6563	0	31562	
6564	0	31556	
6565	0	31572	
6566	0	31552	
6567	0	31548	
6568	0	31544	
6569	0	31544	
6570	0	31560	
6571	0	31560	
6572	0	31552	
6573	0	31524	
6574	0	31512	
6575	0	31528	
6576	0	31576	
6577	0	31620	
6578	0	31624	
6579	0	31628	
6580	0	31664	
6581	0	31616	
6582	0	31596	
6583	0	31608	
6584	0	31620	
6585	0	31656	
6586	0	31684	
6587	0	31664	
6588	0	31640	
6589	0	31620	
6590	0	31612	
6591	0	31580	
6592	0	31616	
6593	0	31682	
6594	0	31752	
6595	0	31792	
6596	0	31812	
6597	0	31860	
6598	0	31896	
6599	0	31906	
6600	0	31888	
6601	0	31872	
6602	0	31860	
6603	0	31868	
6604	0	31892	
6605	0	31864	
6606	0	31832	
6607	0	31800	
6608	0	31760	
6609	0	31732	
6610	0	31732	
6611	0	31756	
6612	0	31856	
6613	0	32026	
6614	0	32156	
6615	0	32250	
6616	0	32256	
6617	0	32248	
6618	0	32260	
6619	0	32256	
6620	0	32240	
6621	0	32192	
6622	0	32144	
6623	0	32136	
6624	0	32146	
6625	0	32180	
6626	0	32244	
6627	0	32312	
6628	0	32344	
6629	0	32372	
6630	0	32400	
6631	0	32412	
6632	0	32430	
6633	0	32428	
6634	0	32408	
6635	0	32392	
6636	0	32380	
6637	0	32344	
6638	0	32312	
6639	0	32344	
6640	0	32412	
6641	0	32500	
6642	0	32576	
6643	0	32632	
6644	0	32652	
6645	0	32636	
6646	0	32612	
6647	0	32608	
6648	0	32588	
6649	0	32572	
6650	0	32544	
6651	0	32592	
6652	0	32686	
6653	0	32744	
6654	0	32792	
6655	0	32832	
6656	0	32888	
6657	0	32904	
6658	0	32892	
6659	0	32852	
6660	0	32800	
6661	0	32732	
6662	0	32684	
6663	0	32636	
6664	0	32624	
6665	0	32640	
6666	0	32708	
6667	0	32784	
6668	0	32824	
6669	0	32848	
6670	0	32904	
6671	0	32944	
6672	0	32928	
6673	0	32908	
6674	0	32864	
6675	0	32816	
6676	0	32808	
6677	0	32872	
6678	0	32932	
6679	0	32976	
6680	0	32980	
6681	0	32928	
6682	0	32896	
6683	0	32840	
6684	0	32824	
6685	0	32824	
6686	0	32820	
6687	0	32812	
6688	0	32850	
6689	0	32882	
6690	0	32892	
6691	0	32900	
6692	0	32892	
6693	0	32848	
6694	0	32772	
6695	0	32672	
6696	0	32600	
6697	0	32568	
6698	0	32596	
6699	0	32672	
6700	0	32770	
6701	0	32844	
6702	0	32888	
6703	0	32928	
6704	0	32960	
6705	0	32940	
6706	0	32880	
6707	0	32808	
6708	0	32756	
6709	0	32728	
6710	0	32740	
6711	0	32752	
6712	0	32724	
6713	0	32692	
6714	0	32664	
6715	0	32608	
6716	0	32576	
6717	0	32584	
6718	0	32612	
6719	0	32652	
6720	0	32696	
6721	0	32704	
6722	0	32668	
6723	0	32620	
6724	0	32560	
6725	0	32532	
6726	0	32504	
6727	0	32448	
6728	0	32424	
6729	0	32412	
6730	0	32412	
6731	0	32450	
6732	0	32492	
6733	0	32520	
6734	0	32532	
6735	0	32552	
6736	0	32548	
6737	0	32560	
6738	0	32580	
6739	0	32604	
6740	0	32632	
6741	0	32608	
6742	0	32596	
6743	0	32592	
6744	0	32604	
6745	0	32616	
6746	0	32620	
6747	0	32602	
6748	0	32564	
6749	0	32536	
6750	0	32504	
6751	0	32444	
6752	0	32368	
6753	0	32236	
6754	0	32122	
6755	0	32096	
6756	0	32140	
6757	0	32220	
6758	0	32240	
6759	0	32228	
6760	0	32208	
6761	0	32224	
6762	0	32268	
6763	0	32298	
6764	0	32352	
6765	0	32396	
6766	0	32448	
6767	0	32500	
6768	0	32558	
6769	0	32640	
6770	0	32716	
6771	0	32752	
6772	0	32780	
6773	0	32880	
6774	0	33000	
6775	0	33144	
6776	0	33260	
6777	0	33368	
6778	0	33500	
6779	0	33648	
6780	0	33788	
6781	0	33972	
6782	0	34112	
6783	0	34208	
6784	0	34274	
6785	0	34328	
6786	0	34296	
6787	0	34224	
6788	0	34164	
6789	0	34128	
6790	0	34112	
6791	0	34138	
6792	0	34178	
6793	0	34202	
6794	0	34204	
6795	0	34222	
6796	0	34312	
6797	0	34420	
6798	0	34572	
6799	0	34808	
6800	0	35084	
6801	0	35376	
6802	0	35688	
6803	0	36040	
6804	0	36416	
6805	0	36724	
6806	0	36908	
6807	0	37048	
6808	0	37172	
6809	0	37248	
6810	0	37300	
6811	0	37248	
6812	0	37176	
6813	0	37114	
6814	0	37040	
6815	0	36944	
6816	0	36842	
6817	0	36716	
6818	0	36580	
6819	0	36448	
6820	0	36312	
6821	0	36180	
6822	0	36096	
6823	0	36064	
6824	0	36100	
6825	0	36136	
6826	0	36108	
6827	0	36044	
6828	0	35972	
6829	0	35896	
6830	0	35836	
6831	0	35712	
6832	0	35544	
6833	0	35360	
6834	0	35144	
6835	0	34896	
6836	0	34620	
6837	0	34362	
6838	0	34040	
6839	0	33676	
6840	0	33232	
6841	0	32772	
6842	0	32372	
6843	0	32024	
6844	0	31736	
6845	0	31504	
6846	0	31340	
6847	0	31200	
6848	0	31076	
6849	0	30992	
6850	0	30896	
6851	0	30848	
6852	0	30784	
6853	0	30688	
6854	0	30572	
6855	0	30434	
6856	0	30276	
6857	0	30124	
6858	0	30032	
6859	0	29988	
6860	0	29948	
6861	0	29944	
6862	0	29952	
6863	0	29984	
6864	0	30020	
6865	0	30044	
6866	0	30064	
6867	0	30068	
6868	0	30072	
6869	0	30070	
6870	0	30080	
6871	0	30052	
6872	0	30048	
6873	0	30060	
6874	0	30092	
6875	0	30116	
6876	0	30100	
6877	0	30090	
6878	0	30108	
6879	0	30108	
6880	0	30104	
6881	0	30144	
6882	0	30168	
6883	0	30208	
6884	0	30258	
6885	0	30300	
6886	0	30332	
6887	0	30376	
6888	0	30420	
6889	0	30440	
6890	0	30448	
6891	0	30420	
6892	0	30410	
6893	0	30424	
6894	0	30444	
6895	0	30460	
6896	0	30392	
6897	0	30276	
6898	0	30108	
6899	0	29816	
6900	0	29272	
6901	0	28504	
6902	0	27620	
6903	0	26660	
6904	0	25730	
6905	0	24872	
6906	0	24160	
6907	0	23682	
6908	0	23446	
6909	0	23384	
6910	0	23600	
6911	0	24080	
6912	0	24784	
6913	0	25584	
6914	0	26560	
6915	0	28028	
6916	0	30044	
6917	0	32524	
6918	0	35288	
6919	0	38136	
6920	0	41240	
6921	0	44680	
6922	0	48664	
6923	0	53000	
6924	0	57508	
6925	0	61120	
6926	0	63104	
6927	0	64132	
6928	0	64616	
6929	0	64828	
6930	0	64896	
6931	0	64864	
6932	0	64792	
6933	0	64680	
6934	0	64576	
6935	0	64472	
6936	0	64344	
6937	0	59696	
6938	0	52616	
6939	0	46872	
6940	0	42312	
6941	0	37896	
6942	0	33216	
6943	0	28888	
6944	0	25514	
6945	0	22916	
6946	0	20668	
6947	0	18836	
6948	0	17478	
6949	0	16486	
6950	0	15846	
6951	0	15516	
6952	0	15356	
6953	0	15288	
6954	0	15280	
6955	0	15320	
6956	0	15528	
6957	0	15980	
6958	0	16560	
6959	0	17212	
6960	0	17824	
6961	0	18484	
6962	0	19072	
6963	0	19672	
6964	0	20276	
6965	0	20920	
6966	0	21556	
6967	0	22192	
6968	0	22840	
6969	0	23512	
6970	0	24212	
6971	0	24952	
6972	0	25674	
6973	0	26296	
6974	0	26842	
6975	0	27332	
6976	0	27716	
6977	0	28068	
6978	0	28356	
6979	0	28544	
6980	0	28720	
6981	0	28908	
6982	0	29084	
6983	0	29252	
6984	0	29376	
6985	0	29480	
6986	0	29564	
6987	0	29636	
6988	0	29722	
6989	0	29792	
6990	0	29860	
6991	0	29936	
6992	0	29988	
6993	0	30008	
6994	0	30080	
6995	0	30164	
6996	0	30272	
6997	0	30352	
6998	0	30416	
6999	0	30468	
7000	0	30538	
7001	0	30608	
7002	0	30676	
7003	0	30744	
7004	0	30812	
7005	0	30864	
7006	0	30920	
7007	0	31034	
7008	0	31132	
7009	0	31200	
7010	0	31240	
7011	0	31280	
7012	0	31304	
7013	0	31300	
7014	0	31310	
7015	0	31328	
7016	0	31392	
7017	0	31424	
7018	0	31456	
7019	0	31480	
7020	0	31552	
7021	0	31628	
7022	0	31744	
7023	0	31828	
7024	0	31896	
7025	0	31968	
7026	0	32012	
7027	0	32032	
7028	0	32020	
7029	0	32000	
7030	0	31992	
7031	0	32040	
7032	0	32088	
7033	0	32128	
7034	0	32188	
7035	0	32216	
7036	0	32240	
7037	0	32276	
7038	0	32340	
7039	0	32384	
7040	0	32428	
7041	0	32472	
7042	0	32488	
7043	0	32496	
7044	0	32480	
7045	0	32488	
7046	0	32536	
7047	0	32608	
7048	0	32644	
7049	0	32668	
7050	0	32672	
7051	0	32684	
7052	0	32712	
7053	0	32732	
7054	0	32756	
7055	0	32808	
7056	0	32800	
7057	0	32800	
7058	0	32816	
7059	0	32832	
7060	0	32892	
7061	0	32916	
7062	0	32928	
7063	0	32940	
7064	0	32948	
7065	0	32978	
7066	0	33032	
7067	0	33072	
7068	0	33096	
7069	0	33124	
7070	0	33128	
7071	0	33136	
7072	0	33146	
7073	0	33160	
7074	0	33220	
7075	0	33304	
7076	0	33397	
7077	0	33444	
7078	0	33456	
7079	0	33472	
7080	0	33496	
7081	0	33488	
7082	0	33440	
7083	0	33424	
7084	0	33432	
7085	0	33424	
7086	0	33448	
7087	0	33474	
7088	0	33468	
7089	0	33488	
7090	0	33544	
7091	0	33572	
7092	0	33608	
7093	0	33648	
7094	0	33668	
7095	0	33624	
7096	0	33588	
7097	0	33584	
7098	0	33600	
7099	0	33644	
7100	0	33744	
7101	0	33760	
7102	0	33760	
7103	0	33788	
7104	0	33812	
7105	0	33804	
7106	0	33788	
7107	0	33820	
7108	0	33848	
7109	0	33888	
7110	0	33892	
7111	0	33888	
7112	0	33924	
7113	0	33964	
7114	0	34020	
7115	0	34076	
7116	0	34128	
7117	0	34156	
7118	0	34172	
7119	0	34164	
7120	0	34136	
7121	0	34112	
7122	0	34100	
7123	0	34088	
7124	0	34068	
7125	0	34080	
7126	0	34064	
7127	0	34092	
7128	0	34148	
7129	0	34166	
7130	0	34188	
7131	0	34224	
7132	0	34248	
7133	0	34272	
7134	0	34268	
7135	0	34284	
7136	0	34288	
7137	0	34296	
7138	0	34332	
7139	0	34364	
7140	0	34424	
7141	0	34456	
7142	0	34458	
7143	0	34444	
7144	0	34452	
7145	0	34476	
7146	0	34504	
7147	0	34532	
7148	0	34540	
7149	0	34560	
7150	0	34584	
7151	0	34544	
7152	0	34498	
7153	0	34504	
7154	0	34540	
7155	0	34580	
7156	0	34608	
7157	0	34628	
7158	0	34652	
7159	0	34676	
7160	0	34672	
7161	0	34672	
7162	0	34692	
7163	0	34688	
7164	0	34672	
7165	0	34650	
7166	0	34634	
7167	0	34564	
7168	0	34524	
7169	0	34496	
7170	0	34448	
7171	0	34392	
7172	0	34350	
7173	0	34264	
7174	0	34174	
7175	0	34072	
7176	0	33984	
7177	0	33960	
7178	0	33932	
7179	0	33888	
7180	0	33832	
7181	0	33788	
7182	0	33704	
7183	0	33608	
7184	0	33536	
7185	0	33484	
7186	0	33416	
7187	0	33312	
7188	0	33204	
7189	0	33144	
7190	0	33072	
7191	0	33024	
7192	0	32980	
7193	0	32960	
7194	0	32916	
7195	0	32824	
7196	0	32748	
7197	0	32714	
7198	0	32688	
7199	0	32650	
7200	0	32588	
7201	0	32536	
7202	0	32544	
7203	0	32512	
7204	0	32456	
7205	0	32392	
7206	0	32332	
7207	0	32304	
7208	0	32256	
7209	0	32184	
7210	0	32104	
7211	0	32052	
7212	0	32056	
7213	0	32056	
7214	0	32088	
7215	0	32080	
7216	0	32028	
7217	0	32004	
7218	0	31980	
7219	0	31976	
7220	0	31964	
7221	0	31984	
7222	0	32012	
7223	0	32008	
7224	0	32024	
7225	0	32024	
7226	0	32012	
7227	0	32004	
7228	0	32000	
7229	0	32044	
7230	0	32056	
7231	0	32040	
7232	0	32032	
7233	0	32004	
7234	0	31988	
7235	0	31968	
7236	0	32012	
7237	0	32096	
7238	0	32080	
7239	0	32026	
7240	0	32032	
7241	0	32008	
7242	0	32020	
7243	0	32072	
7244	0	32100	
7245	0	32132	
7246	0	32160	
7247	0	32192	
7248	0	32204	
7249	0	32220	
7250	0	32224	
7251	0	32212	
7252	0	32200	
7253	0	32200	
7254	0	32192	
7255	0	32204	
7256	0	32236	
7257	0	32264	
7258	0	32296	
7259	0	32324	
7260	0	32360	
7261	0	32364	
7262	0	32358	
7263	0	32376	
7264	0	32416	
7265	0	32432	
7266	0	32444	
7267	0	32452	
7268	0	32496	
7269	0	32514	
7270	0	32552	
7271	0	32604	
7272	0	32652	
7273	0	32644	
7274	0	32620	
7275	0	32604	
7276	0	32552	
7277	0	32532	
7278	0	32536	
7279	0	32534	
7280	0	32604	
7281	0	32648	
7282	0	32646	
7283	0	32656	
7284	0	32688	
7285	0	32704	
7286	0	32728	
7287	0	32776	
7288	0	32828	
7289	0	32824	
7290	0	32820	
7291	0	32800	
7292	0	32812	
7293	0	32834	
7294	0	32844	
7295	0	32816	
7296	0	32800	
7297	0	32782	
7298	0	32788	
7299	0	32808	
7300	0	32874	
7301	0	32908	
7302	0	32912	
7303	0	32928	
7304	0	32960	
7305	0	32976	
7306	0	32980	
7307	0	32964	
7308	0	32952	
7309	0	32936	
7310	0	32924	
7311	0	32936	
7312	0	32976	
7313	0	32992	
7314	0	32984	
7315	0	32968	
7316	0	32936	
7317	0	32928	
7318	0	32936	
7319	0	32928	
7320	0	32976	
7321	0	33036	
7322	0	33050	
7323	0	33064	
7324	0	33064	
7325	0	33048	
7326	0	33040	
7327	0	33016	
7328	0	32988	
7329	0	32968	
7330	0	33004	
7331	0	33024	
7332	0	33004	
7333	0	32976	
7334	0	32984	
7335	0	33004	
7336	0	33004	
7337	0	33013	
7338	0	33016	
7339	0	33064	
7340	0	33088	
7341	0	33128	
7342	0	33096	
7343	0	33068	
7344	0	33008	
7345	0	32944	
7346	0	32928	
7347	0	32880	
7348	0	32872	
7349	0	32888	
7350	0	32912	
7351	0	32944	
7352	0	32956	
7353	0	32912	
7354	0	32928	
7355	0	32976	
7356	0	33020	
7357	0	33040	
7358	0	32992	
7359	0	32976	
7360	0	32956	
7361	0	32926	
7362	0	32880	
7363	0	32848	
7364	0	32832	
7365	0	32832	
7366	0	32836	
7367	0	32832	
7368	0	32836	
7369	0	32868	
7370	0	32896	
7371	0	32928	
7372	0	32922	
7373	0	32892	
7374	0	32856	
7375	0	32840	
7376	0	32844	
7377	0	32812	
7378	0	32824	
7379	0	32836	
7380	0	32832	
7381	0	32852	
7382	0	32880	
7383	0	32868	
7384	0	32878	
7385	0	32864	
7386	0	32848	
7387	0	32856	
7388	0	32844	
7389	0	32788	
7390	0	32696	
7391	0	32636	
7392	0	32608	
7393	0	32624	
7394	0	32644	
7395	0	32672	
7396	0	32692	
7397	0	32664	
7398	0	32632	
7399	0	32600	
7400	0	32608	
7401	0	32608	
7402	0	32632	
7403	0	32644	
7404	0	32668	
7405	0	32708	
7406	0	32744	
7407	0	32756	
7408	0	32720	
7409	0	32688	
7410	0	32680	
7411	0	32648	
7412	0	32636	
7413	0	32632	
7414	0	32628	
7415	0	32620	
7416	0	32652	
7417	0	32644	
7418	0	32608	
7419	0	32586	
7420	0	32604	
7421	0	32620	
7422	0	32588	
7423	0	32544	
7424	0	32540	
7425	0	32544	
7426	0	32560	
7427	0	32568	
7428	0	32576	
7429	0	32588	
7430	0	32608	
7431	0	32624	
7432	0	32664	
7433	0	32698	
7434	0	32656	
7435	0	32584	
7436	0	32572	
7437	0	32576	
7438	0	32584	
7439	0	32560	
7440	0	32516	
7441	0	32508	
7442	0	32504	
7443	0	32488	
7444	0	32500	
7445	0	32548	
7446	0	32616	
7447	0	32704	
7448	0	32794	
7449	0	32880	
7450	0	33004	
7451	0	33160	
7452	0	33336	
7453	0	33476	
7454	0	33624	
7455	0	33792	
7456	0	33976	
7457	0	34152	
7458	0	34352	
7459	0	34528	
7460	0	34644	
7461	0	34740	
7462	0	34832	
7463	0	34824	
7464	0	34784	
7465	0	34712	
7466	0	34692	
7467	0	34704	
7468	0	34760	
7469	0	34776	
7470	0	34800	
7471	0	34812	
7472	0	34784	
7473	0	34784	
7474	0	34820	
7475	0	34880	
7476	0	35044	
7477	0	35346	
7478	0	35724	
7479	0	36068	
7480	0	36436	
7481	0	36800	
7482	0	37100	
7483	0	37300	
7484	0	37468	
7485	0	37594	
7486	0	37664	
7487	0	37676	
7488	0	37672	
7489	0	37664	
7490	0	37672	
7491	0	37648	
7492	0	37524	
7493	0	37408	
7494	0	37212	
7495	0	36992	
7496	0	36820	
7497	0	36664	
7498	0	36536	
7499	0	36496	
7500	0	36576	
7501	0	36608	
7502	0	36540	
7503	0	36432	
7504	0	36332	
7505	0	36240	
7506	0	36152	
7507	0	36110	
7508	0	36016	
7509	0	35896	
7510	0	35740	
7511	0	35472	
7512	0	35152	
7513	0	34794	
7514	0	34436	
7515	0	34068	
7516	0	33636	
7517	0	33164	
7518	0	32728	
7519	0	32332	
7520	0	32040	
7521	0	31784	
7522	0	31560	
7523	0	31404	
7524	0	31300	
7525	0	31216	
7526	0	31108	
7527	0	31004	
7528	0	30912	
7529	0	30820	
7530	0	30722	
7531	0	30620	
7532	0	30490	
7533	0	30352	
7534	0	30224	
7535	0	30112	
7536	0	30052	
7537	0	30028	
7538	0	30040	
7539	0	30064	
7540	0	30060	
7541	0	30084	
7542	0	30064	
7543	0	30064	
7544	0	30066	
7545	0	30088	
7546	0	30124	
7547	0	30172	
7548	0	30196	
7549	0	30242	
7550	0	30264	
7551	0	30236	
7552	0	30200	
7553	0	30188	
7554	0	30200	
7555	0	30216	
7556	0	30248	
7557	0	30280	
7558	0	30296	
7559	0	30312	
7560	0	30336	
7561	0	30372	
7562	0	30424	
7563	0	30440	
7564	0	30436	
7565	0	30436	
7566	0	30440	
7567	0	30444	
7568	0	30470	
7569	0	30476	
7570	0	30516	
7571	0	30532	
7572	0	30496	
7573	0	30432	
7574	0	30308	
7575	0	30144	
7576	0	29816	
7577	0	29192	
7578	0	28328	
7579	0	27384	
7580	0	26416	
7581	0	25480	
7582	0	24656	
7583	0	23984	
7584	0	23508	
7585	0	23240	
7586	0	23168	
7587	0	23342	
7588	0	23804	
7589	0	24488	
7590	0	25220	
7591	0	26208	
7592	0	27696	
7593	0	29712	
7594	0	32194	
7595	0	34972	
7596	0	37928	
7597	0	41188	
7598	0	44752	
7599	0	48840	
7600	0	53232	
7601	0	57768	
7602	0	61256	
7603	0	63136	
7604	0	64100	
7605	0	64608	
7606	0	64792	
7607	0	64856	
7608	0	64800	
7609	0	64752	
7610	0	64640	
7611	0	64552	
7612	0	64404	
7613	0	64300	
7614	0	61532	
7615	0	54856	
7616	0	49612	
7617	0	45232	
7618	0	40592	
7619	0	35700	
7620	0	31328	
7621	0	27776	
7622	0	24912	
7623	0	22454	
7624	0	20458	
7625	0	18916	
7626	0	17788	
7627	0	17100	
7628	0	16632	
7629	0	16264	
7630	0	16056	
7631	0	15956	
7632	0	16064	
7633	0	16380	
7634	0	16788	
7635	0	17256	
7636	0	17844	
7637	0	18488	
7638	0	19084	
7639	0	19656	
7640	0	20232	
7641	0	20838	
7642	0	21418	
7643	0	22008	
7644	0	22604	
7645	0	23220	
7646	0	23892	
7647	0	24580	
7648	0	25300	
7649	0	25972	
7650	0	26544	
7651	0	27048	
7652	0	27490	
7653	0	27852	
7654	0	28152	
7655	0	28426	
7656	0	28664	
7657	0	28864	
7658	0	29008	
7659	0	29116	
7660	0	29196	
7661	0	29248	
7662	0	29328	
7663	0	29416	
7664	0	29500	
7665	0	29576	
7666	0	29660	
7667	0	29728	
7668	0	29812	
7669	0	29888	
7670	0	29968	
7671	0	30040	
7672	0	30112	
7673	0	30174	
7674	0	30252	
7675	0	30308	
7676	0	30368	
7677	0	30416	
7678	0	30474	
7679	0	30544	
7680	0	30638	
7681	0	30766	
7682	0	30852	
7683	0	30916	
7684	0	30956	
7685	0	30978	
7686	0	31012	
7687	0	31040	
7688	0	31084	
7689	0	31160	
7690	0	31224	
7691	0	31258	
7692	0	31320	
7693	0	31424	
7694	0	31516	
7695	0	31556	
7696	0	31532	
7697	0	31500	
7698	0	31508	
7699	0	31500	
7700	0	31528	
7701	0	31612	
7702	0	31704	
7703	0	31784	
7704	0	31890	
7705	0	31956	
7706	0	31968	
7707	0	31988	
7708	0	32008	
7709	0	32056	
7710	0	32128	
7711	0	32162	
7712	0	32188	
7713	0	32232	
7714	0	32288	
7715	0	32328	
7716	0	32360	
7717	0	32376	
7718	0	32376	
7719	0	32416	
7720	0	32484	
7721	0	32566	
7722	0	32604	
7723	0	32634	
7724	0	32632	
7725	0	32648	
7726	0	32648	
7727	0	32644	
7728	0	32656	
7729	0	32666	
7730	0	32660	
7731	0	32680	
7732	0	32662	
7733	0	32640	
7734	0	32672	
7735	0	32724	
7736	0	32776	
7737	0	32824	
7738	0	32864	
7739	0	32896	
7740	0	32922	
7741	0	32932	
7742	0	32940	
7743	0	32958	
7744	0	32992	
7745	0	33048	
7746	0	33080	
7747	0	33148	
7748	0	33180	
7749	0	33224	
7750	0	33236	
7751	0	33261	
7752	0	33272	
7753	0	33298	
7754	0	33308	
7755	0	33320	
7756	0	33340	
7757	0	33336	
7758	0	33356	
7759	0	33384	
7760	0	33416	
7761	0	33424	
7762	0	33412	
7763	0	33424	
7764	0	33404	
7765	0	33392	
7766	0	33396	
7767	0	33470	
7768	0	33520	
7769	0	33552	
7770	0	33552	
7771	0	33560	
7772	0	33537	
7773	0	33544	
7774	0	33588	
7775	0	33600	
7776	0	33604	
7777	0	33628	
7778	0	33658	
7779	0	33672	
7780	0	33690	
7781	0	33712	
7782	0	33760	
7783	0	33808	
7784	0	33824	
7785	0	33852	
7786	0	33856	
7787	0	33876	
7788	0	33904	
7789	0	33934	
7790	0	33940	
7791	0	33976	
7792	0	33978	
7793	0	33984	
7794	0	34032	
7795	0	34072	
7796	0	34092	
7797	0	34112	
7798	0	34080	
7799	0	34060	
7800	0	34064	
7801	0	34100	
7802	0	34132	
7803	0	34148	
7804	0	34170	
7805	0	34208	
7806	0	34240	
7807	0	34264	
7808	0	34296	
7809	0	34268	
7810	0	34242	
7811	0	34224	
7812	0	34240	
7813	0	34276	
7814	0	34296	
7815	0	34316	
7816	0	34328	
7817	0	34354	
7818	0	34388	
7819	0	34416	
7820	0	34420	
7821	0	34412	
7822	0	34400	
7823	0	34448	
7824	0	34490	
7825	0	34524	
7826	0	34564	
7827	0	34572	
7828	0	34580	
7829	0	34606	
7830	0	34636	
7831	0	34688	
7832	0	34720	
7833	0	34760	
7834	0	34744	
7835	0	34716	
7836	0	34704	
7837	0	34724	
7838	0	34724	
7839	0	34736	
7840	0	34736	
7841	0	34728	
7842	0	34732	
7843	0	34728	
7844	0	34716	
7845	0	34688	
7846	0	34660	
7847	0	34594	
7848	0	34528	
7849	0	34468	
7850	0	34400	
7851	0	34352	
7852	0	34280	
7853	0	34242	
7854	0	34204	
7855	0	34128	
7856	0	34060	
7857	0	33988	
7858	0	33928	
7859	0	33880	
7860	0	33820	
7861	0	33760	
7862	0	33696	
7863	0	33612	
7864	0	33488	
7865	0	33420	
7866	0	33352	
7867	0	33284	
7868	0	33226	
7869	0	33152	
7870	0	33124	
7871	0	33072	
7872	0	33012	
7873	0	32960	
7874	0	32920	
7875	0	32892	
7876	0	32868	
7877	0	32864	
7878	0	32816	
7879	0	32764	
7880	0	32688	
7881	0	32632	
7882	0	32576	
7883	0	32500	
7884	0	32452	
7885	0	32416	
7886	0	32364	
7887	0	32328	
7888	0	32304	
7889	0	32284	
7890	0	32272	
7891	0	32256	
7892	0	32232	
7893	0	32224	
7894	0	32212	
7895	0	32216	
7896	0	32204	
7897	0	32184	
7898	0	32160	
7899	0	32104	
7900	0	32068	
7901	0	32056	
7902	0	32078	
7903	0	32082	
7904	0	32060	
7905	0	32032	
7906	0	32040	
7907	0	32064	
7908	0	32084	
7909	0	32120	
7910	0	32144	
7911	0	32160	
7912	0	32162	
7913	0	32168	
7914	0	32176	
7915	0	32224	
7916	0	32192	
7917	0	32180	
7918	0	32164	
7919	0	32156	
7920	0	32160	
7921	0	32172	
7922	0	32180	
7923	0	32204	
7924	0	32220	
7925	0	32236	
7926	0	32236	
7927	0	32224	
7928	0	32236	
7929	0	32240	
7930	0	32256	
7931	0	32288	
7932	0	32328	
7933	0	32348	
7934	0	32384	
7935	0	32392	
7936	0	32414	
7937	0	32432	
7938	0	32464	
7939	0	32520	
7940	0	32528	
7941	0	32528	
7942	0	32536	
7943	0	32508	
7944	0	32512	
7945	0	32552	
7946	0	32600	
7947	0	32624	
7948	0	32634	
7949	0	32648	
7950	0	32666	
7951	0	32680	
7952	0	32672	
7953	0	32656	
7954	0	32608	
7955	0	32584	
7956	0	32608	
7957	0	32672	
7958	0	32716	
7959	0	32756	
7960	0	32784	
7961	0	32808	
7962	0	32824	
7963	0	32812	
7964	0	32816	
7965	0	32816	
7966	0	32802	
7967	0	32808	
7968	0	32816	
7969	0	32836	
7970	0	32836	
7971	0	32800	
7972	0	32808	
7973	0	32816	
7974	0	32832	
7975	0	32852	
7976	0	32880	
7977	0	32920	
7978	0	32944	
7979	0	32980	
7980	0	33032	
7981	0	33072	
7982	0	33096	
7983	0	33108	
7984	0	33088	
7985	0	33090	
7986	0	33064	
7987	0	33060	
7988	0	33068	
7989	0	33056	
7990	0	33076	
7991	0	33112	
7992	0	33136	
7993	0	33108	
7994	0	33112	
7995	0	33144	
7996	0	33168	
7997	0	33141	
7998	0	33122	
7999	0	33120	
8000	0	33110	
8001	0	33100	
8002	0	33096	
8003	0	33108	
8004	0	33132	
8005	0	33148	
8006	0	33172	
8007	0	33180	
8008	0	33156	
8009	0	33120	
8010	0	33112	
8011	0	33120	
8012	0	33168	
8013	0	33178	
8014	0	33168	
8015	0	33152	
8016	0	33152	
8017	0	33152	
8018	0	33152	
8019	0	33176	
8020	0	33156	
8021	0	33136	
8022	0	33122	
8023	0	33100	
8024	0	33080	
8025	0	33088	
8026	0	33080	
8027	0	33100	
8028	0	33096	
8029	0	33064	
8030	0	33024	
8031	0	33072	
8032	0	33076	
8033	0	33048	
8034	0	33044	
8035	0	33044	
8036	0	33052	
8037	0	33088	
8038	0	33120	
8039	0	33120	
8040	0	33088	
8041	0	33072	
8042	0	33048	
8043	0	33036	
8044	0	33020	
8045	0	32986	
8046	0	32988	
8047	0	32972	
8048	0	32976	
8049	0	32952	
8050	0	32924	
8051	0	32944	
8052	0	32940	
8053	0	32928	
8054	0	32904	
8055	0	32892	
8056	0	32892	
8057	0	32880	
8058	0	32844	
8059	0	32800	
8060	0	32760	
8061	0	32736	
8062	0	32716	
8063	0	32696	
8064	0	32688	
8065	0	32704	
8066	0	32724	
8067	0	32728	
8068	0	32728	
8069	0	32744	
8070	0	32730	
8071	0	32740	
8072	0	32720	
8073	0	32696	
8074	0	32704	
8075	0	32682	
8076	0	32660	
8077	0	32644	
8078	0	32660	
8079	0	32648	
8080	0	32636	
8081	0	32616	
8082	0	32612	
8083	0	32640	
8084	0	32660	
8085	0	32632	
8086	0	32596	
8087	0	32564	
8088	0	32528	
8089	0	32520	
8090	0	32512	
8091	0	32522	
8092	0	32548	
8093	0	32552	
8094	0	32540	
8095	0	32524	
8096	0	32520	
8097	0	32516	
8098	0	32540	
8099	0	32556	
8100	0	32572	
8101	0	32560	
8102	0	32532	
8103	0	32508	
8104	0	32488	
8105	0	32472	
8106	0	32448	
8107	0	32452	
8108	0	32456	
8109	0	32480	
8110	0	32508	
8111	0	32508	
8112	0	32496	
8113	0	32480	
8114	0	32476	
8115	0	32474	
8116	0	32472	
8117	0	32480	
8118	0	32476	
8119	0	32484	
8120	0	32476	
8121	0	32472	
8122	0	32472	
8123	0	32464	
8124	0	32460	
8125	0	32452	
8126	0	32440	
8127	0	32430	
8128	0	32444	
8129	0	32468	
8130	0	32488	
8131	0	32512	
8132	0	32548	
8133	0	32612	
8134	0	32680	
8135	0	32800	
8136	0	32896	
8137	0	32952	
8138	0	33008	
8139	0	33084	
8140	0	33240	
8141	0	33380	
8142	0	33552	
8143	0	33712	
8144	0	33856	
8145	0	34052	
8146	0	34248	
8147	0	34442	
8148	0	34540	
8149	0	34620	
8150	0	34692	
8151	0	34736	
8152	0	34752	
8153	0	34752	
8154	0	34716	
8155	0	34700	
8156	0	34720	
8157	0	34736	
8158	0	34760	
8159	0	34808	
8160	0	34816	
8161	0	34816	
8162	0	34834	
8163	0	34906	
8164	0	35036	
8165	0	35224	
8166	0	35520	
8167	0	35880	
8168	0	36212	
8169	0	36560	
8170	0	36896	
8171	0	37124	
8172	0	37300	
8173	0	37432	
8174	0	37512	
8175	0	37584	
8176	0	37568	
8177	0	37576	
8178	0	37544	
8179	0	37520	
8180	0	37472	
8181	0	37364	
8182	0	37224	
8183	0	37052	
8184	0	36868	
8185	0	36688	
8186	0	36572	
8187	0	36552	
8188	0	36564	
8189	0	36584	
8190	0	36548	
8191	0	36496	
8192	0	36432	
8193	0	36408	
8194	0	36312	
8195	0	36252	
8196	0	36152	
8197	0	36036	
8198	0	35856	
8199	0	35608	
8200	0	35248	
8201	0	34892	
8202	0	34528	
8203	0	34172	
8204	0	33808	
8205	0	33356	
8206	0	32896	
8207	0	32468	
8208	0	32104	
8209	0	31824	
8210	0	31604	
8211	0	31400	
8212	0	31236	
8213	0	31098	
8214	0	31008	
8215	0	30920	
8216	0	30844	
8217	0	30784	
8218	0	30696	
8219	0	30572	
8220	0	30428	
8221	0	30244	
8222	0	30114	
8223	0	30072	
8224	0	30064	
8225	0	30064	
8226	0	30044	
8227	0	30048	
8228	0	30068	
8229	0	30092	
8230	0	30132	
8231	0	30192	
8232	0	30216	
8233	0	30176	
8234	0	30164	
8235	0	30148	
8236	0	30138	
8237	0	30152	
8238	0	30176	
8239	0	30214	
8240	0	30216	
8241	0	30224	
8242	0	30204	
8243	0	30196	
8244	0	30192	
8245	0	30216	
8246	0	30272	
8247	0	30314	
8248	0	30332	
8249	0	30388	
8250	0	30428	
8251	0	30480	
8252	0	30516	
8253	0	30560	
8254	0	30612	
8255	0	30608	
8256	0	30576	
8257	0	30560	
8258	0	30556	
8259	0	30548	
8260	0	30552	
8261	0	30528	
8262	0	30440	
8263	0	30244	
8264	0	29928	
8265	0	29416	
8266	0	28676	
8267	0	27788	
8268	0	26836	
8269	0	25840	
8270	0	24961	
8271	0	24216	
8272	0	23676	
8273	0	23364	
8274	0	23204	
8275	0	23328	
8276	0	23728	
8277	0	24356	
8278	0	25112	
8279	0	26012	
8280	0	27328	
8281	0	29216	
8282	0	31592	
8283	0	34312	
8284	0	37148	
8285	0	40244	
8286	0	43568	
8287	0	47340	
8288	0	51504	
8289	0	55872	
8290	0	59936	
8291	0	62320	
8292	0	63572	
8293	0	64196	
8294	0	64476	
8295	0	64568	
8296	0	64572	
8297	0	64520	
8298	0	64412	
8299	0	64308	
8300	0	64208	
8301	0	64072	
8302	0	62868	
8303	0	56100	
8304	0	50656	
8305	0	46268	
8306	0	41872	
8307	0	37242	
8308	0	33016	
8309	0	29488	
8310	0	26630	
8311	0	24112	
8312	0	21972	
8313	0	20256	
8314	0	18900	
8315	0	17848	
8316	0	17122	
8317	0	16548	
8318	0	16186	
8319	0	15941	
8320	0	15780	
8321	0	15821	
8322	0	16124	
8323	0	16632	
8324	0	17264	
8325	0	17904	
8326	0	18504	
8327	0	19112	
8328	0	19780	
8329	0	20416	
8330	0	21040	
8331	0	21676	
8332	0	22300	
8333	0	22896	
8334	0	23520	
8335	0	24216	
8336	0	24920	
8337	0	25636	
8338	0	26240	
8339	0	26768	
8340	0	27232	
8341	0	27604	
8342	0	27960	
8343	0	28264	
8344	0	28516	
8345	0	28748	
8346	0	28932	
8347	0	29074	
8348	0	29212	
8349	0	29308	
8350	0	29396	
8351	0	29472	
8352	0	29516	
8353	0	29560	
8354	0	29588	
8355	0	29600	
8356	0	29674	
8357	0	29788	
8358	0	29852	
8359	0	29984	
8360	0	30080	
8361	0	30160	
8362	0	30224	
8363	0	30312	
8364	0	30400	
8365	0	30464	
8366	0	30548	
8367	0	30624	
8368	0	30696	
8369	0	30784	
8370	0	30848	
8371	0	30892	
8372	0	30944	
8373	0	30980	
8374	0	30976	
8375	0	31034	
8376	0	31088	
8377	0	31120	
8378	0	31168	
8379	0	31248	
8380	0	31320	
8381	0	31380	
8382	0	31424	
8383	0	31458	
8384	0	31480	
8385	0	31484	
8386	0	31496	
8387	0	31512	
8388	0	31544	
8389	0	31576	
8390	0	31636	
8391	0	31712	
8392	0	31746	
8393	0	31748	
8394	0	31756	
8395	0	31808	
8396	0	31868	
8397	0	31952	
8398	0	32000	
8399	0	32056	
8400	0	32104	
8401	0	32184	
8402	0	32256	
8403	0	32312	
8404	0	32344	
8405	0	32344	
8406	0	32360	
8407	0	32396	
8408	0	32476	
8409	0	32506	
8410	0	32524	
8411	0	32544	
8412	0	32548	
8413	0	32568	
8414	0	32636	
8415	0	32640	
8416	0	32624	
8417	0	32628	
8418	0	32660	
8419	0	32726	
8420	0	32784	
8421	0	32804	
8422	0	32808	
8423	0	32800	
8424	0	32820	
8425	0	32836	
8426	0	32860	
8427	0	32872	
8428	0	32888	
8429	0	32900	
8430	0	32908	
8431	0	32924	
8432	0	32976	
8433	0	33004	
8434	0	33044	
8435	0	33104	
8436	0	33136	
8437	0	33156	
8438	0	33176	
8439	0	33164	
8440	0	33168	
8441	0	33208	
8442	0	33264	
8443	0	33316	
8444	0	33348	
8445	0	33378	
8446	0	33400	
8447	0	33408	
8448	0	33416	
8449	0	33426	
8450	0	33448	
8451	0	33468	
8452	0	33492	
8453	0	33528	
8454	0	33580	
8455	0	33604	
8456	0	33648	
8457	0	33608	
8458	0	33576	
8459	0	33540	
8460	0	33556	
8461	0	33584	
8462	0	33584	
8463	0	33572	
8464	0	33570	
8465	0	33560	
8466	0	33560	
8467	0	33548	
8468	0	33524	
8469	0	33528	
8470	0	33548	
8471	0	33576	
8472	0	33604	
8473	0	33616	
8474	0	33632	
8475	0	33620	
8476	0	33584	
8477	0	33560	
8478	0	33548	
8479	0	33580	
8480	0	33604	
8481	0	33624	
8482	0	33656	
8483	0	33660	
8484	0	33680	
8485	0	33700	
8486	0	33740	
8487	0	33784	
8488	0	33812	
8489	0	33836	
8490	0	33880	
8491	0	33936	
8492	0	33984	
8493	0	33944	
8494	0	33912	
8495	0	33848	
8496	0	33804	
8497	0	33784	
8498	0	33834	
8499	0	33864	
8500	0	33880	
8501	0	33896	
8502	0	33904	
8503	0	33924	
8504	0	33964	
8505	0	33986	
8506	0	33984	
8507	0	33988	
8508	0	33988	
8509	0	34016	
8510	0	34064	
8511	0	34104	
8512	0	34106	
8513	0	34104	
8514	0	34080	
8515	0	34060	
8516	0	34066	
8517	0	34112	
8518	0	34152	
8519	0	34208	
8520	0	34240	
8521	0	34252	
8522	0	34216	
8523	0	34220	
8524	0	34256	
8525	0	34312	
8526	0	34332	
8527	0	34360	
8528	0	34400	
8529	0	34460	
8530	0	34488	
8531	0	34480	
8532	0	34488	
8533	0	34514	
8534	0	34556	
8535	0	34548	
8536	0	34484	
8537	0	34444	
8538	0	34392	
8539	0	34332	
8540	0	34272	
8541	0	34220	
8542	0	34176	
8543	0	34140	
8544	0	34088	
8545	0	34020	
8546	0	33924	
8547	0	33852	
8548	0	33812	
8549	0	33772	
8550	0	33716	
8551	0	33684	
8552	0	33624	
8553	0	33548	
8554	0	33474	
8555	0	33358	
8556	0	33296	
8557	0	33256	
8558	0	33236	
8559	0	33200	
8560	0	33168	
8561	0	33128	
8562	0	33080	
8563	0	33052	
8564	0	33018	
8565	0	33000	
8566	0	32976	
8567	0	32912	
8568	0	32836	
8569	0	32800	
8570	0	32780	
8571	0	32728	
8572	0	32684	
8573	0	32644	
8574	0	32604	
8575	0	32548	
8576	0	32472	
8577	0	32428	
8578	0	32396	
8579	0	32360	
8580	0	32320	
8581	0	32276	
8582	0	32280	
8583	0	32264	
8584	0	32232	
8585	0	32228	
8586	0	32212	
8587	0	32196	
8588	0	32168	
8589	0	32124	
8590	0	32096	
8591	0	32056	
