# OpenSignals Text File Format. Version 1
# {"00:07:80:4B:15:F7": {"position": 0, "device": "biosignalsplux", "device name": "00:07:80:4B:15:F7", "device connection": "BTH00:07:80:4B:15:F7", "sampling rate": 1000, "resolution": [16], "firmware version": 775, "comments": "", "keywords": "", "mode": 0, "sync interval": 2, "date": "2023-4-12", "time": "14:19:40.688", "channels": [1], "sensor": ["ECG"], "label": ["CH1"], "column": ["nSeq", "DI", "CH1"], "special": [{"SpO2": [80, 40, 5, 4, 3, 3]}, {"SpO2": [80, 40, 5, 4, 3, 3]}, {"SpO2": [80, 40, 5, 4, 3, 3]}, {"SpO2": [80, 40, 5, 4, 3, 3]}, {"SpO2": [80, 40, 5, 4, 3, 3]}, {"SpO2": [80, 40, 5, 4, 3, 3]}, {"SpO2": [80, 40, 5, 4, 3, 3]}, {"SpO2": [80, 40, 5, 4, 3, 3]}], "digital IO": [0, 1], "sleeve color": ["green"], "convertedValues": 0}}
# EndOfHeader
0	0	31656	
1	0	31802	
2	0	31772	
3	0	31684	
4	0	31632	
5	0	31552	
6	0	31472	
7	0	31552	
8	0	31788	
9	0	31974	
10	0	32104	
11	0	32064	
12	0	31976	
13	0	31928	
14	0	31808	
15	0	31584	
16	0	31424	
17	0	31376	
18	0	31384	
19	0	31328	
20	0	31232	
21	0	31276	
22	0	31466	
23	0	31660	
24	0	31674	
25	0	31508	
26	0	31296	
27	0	31140	
28	0	31140	
29	0	31244	
30	0	31284	
31	0	31365	
32	0	31580	
33	0	31908	
34	0	32156	
35	0	32232	
36	0	32216	
37	0	32056	
38	0	31796	
39	0	31540	
40	0	31332	
41	0	31320	
42	0	31468	
43	0	31800	
44	0	32060	
45	0	32062	
46	0	32000	
47	0	32032	
48	0	32020	
49	0	31888	
50	0	31744	
51	0	31728	
52	0	31748	
53	0	31700	
54	0	31712	
55	0	31760	
56	0	31860	
57	0	32000	
58	0	32056	
59	0	32060	
60	0	32008	
61	0	31956	
62	0	31960	
63	0	31988	
64	0	31988	
65	0	31978	
66	0	31876	
67	0	31762	
68	0	31632	
69	0	31456	
70	0	31320	
71	0	31228	
72	0	31248	
73	0	31452	
74	0	31688	
75	0	31868	
76	0	32056	
77	0	32102	
78	0	32108	
79	0	32148	
80	0	32128	
81	0	32076	
82	0	32094	
83	0	32136	
84	0	32064	
85	0	31892	
86	0	31772	
87	0	31744	
88	0	31808	
89	0	31832	
90	0	31888	
91	0	31984	
92	0	32080	
93	0	32180	
94	0	32088	
95	0	31960	
96	0	31822	
97	0	31768	
98	0	31776	
99	0	31724	
100	0	31580	
101	0	31356	
102	0	31160	
103	0	31056	
104	0	30868	
105	0	30736	
106	0	30904	
107	0	31220	
108	0	31528	
109	0	31788	
110	0	31924	
111	0	32060	
112	0	32180	
113	0	32392	
114	0	32540	
115	0	32544	
116	0	32476	
117	0	32328	
118	0	32112	
119	0	31948	
120	0	31750	
121	0	31576	
122	0	31508	
123	0	31528	
124	0	31700	
125	0	31904	
126	0	32088	
127	0	32220	
128	0	32324	
129	0	32368	
130	0	32460	
131	0	32648	
132	0	32810	
133	0	32880	
134	0	32864	
135	0	32760	
136	0	32704	
137	0	32738	
138	0	32688	
139	0	32600	
140	0	32464	
141	0	32360	
142	0	32336	
143	0	32292	
144	0	32288	
145	0	32352	
146	0	32416	
147	0	32516	
148	0	32612	
149	0	32840	
150	0	33112	
151	0	33284	
152	0	33316	
153	0	33440	
154	0	33540	
155	0	33536	
156	0	33556	
157	0	33664	
158	0	33792	
159	0	33872	
160	0	33896	
161	0	33852	
162	0	33824	
163	0	33800	
164	0	33844	
165	0	33908	
166	0	33916	
167	0	33952	
168	0	34022	
169	0	34052	
170	0	34034	
171	0	33964	
172	0	34084	
173	0	34348	
174	0	34656	
175	0	34932	
176	0	35018	
177	0	34904	
178	0	34720	
179	0	34632	
180	0	34520	
181	0	34364	
182	0	34304	
183	0	34364	
184	0	34600	
185	0	35082	
186	0	35456	
187	0	35600	
188	0	35592	
189	0	35584	
190	0	35640	
191	0	35740	
192	0	35824	
193	0	35768	
194	0	35624	
195	0	35472	
196	0	35316	
197	0	35192	
198	0	34960	
199	0	34584	
200	0	34128	
201	0	33616	
202	0	33136	
203	0	32788	
204	0	32532	
205	0	32348	
206	0	32282	
207	0	32364	
208	0	32416	
209	0	32328	
210	0	32136	
211	0	31984	
212	0	31736	
213	0	31452	
214	0	31242	
215	0	31100	
216	0	31077	
217	0	31164	
218	0	31368	
219	0	31464	
220	0	31388	
221	0	31128	
222	0	30822	
223	0	30472	
224	0	30292	
225	0	30284	
226	0	30402	
227	0	30472	
228	0	30368	
229	0	30236	
230	0	30356	
231	0	30612	
232	0	30960	
233	0	31352	
234	0	31528	
235	0	31540	
236	0	31456	
237	0	31354	
238	0	31280	
239	0	31156	
240	0	31044	
241	0	30976	
242	0	31044	
243	0	31172	
244	0	31336	
245	0	31460	
246	0	31544	
247	0	31556	
248	0	31436	
249	0	31248	
250	0	31100	
251	0	30974	
252	0	30788	
253	0	30476	
254	0	30076	
255	0	29800	
256	0	29788	
257	0	30086	
258	0	30470	
259	0	30832	
260	0	31256	
261	0	31612	
262	0	31872	
263	0	32140	
264	0	32304	
265	0	32416	
266	0	32428	
267	0	32366	
268	0	32292	
269	0	32226	
270	0	32140	
271	0	32104	
272	0	32146	
273	0	32140	
274	0	32040	
275	0	31960	
276	0	31996	
277	0	32036	
278	0	31856	
279	0	31602	
280	0	31212	
281	0	30760	
282	0	30480	
283	0	30376	
284	0	30460	
285	0	30552	
286	0	30312	
287	0	29880	
288	0	29360	
289	0	28874	
290	0	28588	
291	0	28624	
292	0	28912	
293	0	29512	
294	0	30326	
295	0	31266	
296	0	32148	
297	0	32940	
298	0	33746	
299	0	34656	
300	0	35744	
301	0	36976	
302	0	38408	
303	0	39860	
304	0	41348	
305	0	42952	
306	0	44704	
307	0	46432	
308	0	48064	
309	0	49728	
310	0	51488	
311	0	53328	
312	0	55280	
313	0	57336	
314	0	59560	
315	0	61660	
316	0	63188	
317	0	64092	
318	0	64576	
319	0	64784	
320	0	64736	
321	0	63532	
322	0	61704	
323	0	59064	
324	0	55872	
325	0	52368	
326	0	48528	
327	0	44456	
328	0	40544	
329	0	36940	
330	0	33712	
331	0	30938	
332	0	28684	
333	0	26946	
334	0	25648	
335	0	24772	
336	0	24380	
337	0	24272	
338	0	24188	
339	0	23976	
340	0	23672	
341	0	23244	
342	0	22816	
343	0	22480	
344	0	22344	
345	0	22493	
346	0	22868	
347	0	23308	
348	0	23696	
349	0	24068	
350	0	24532	
351	0	25208	
352	0	26076	
353	0	27040	
354	0	28000	
355	0	28728	
356	0	29182	
357	0	29408	
358	0	29492	
359	0	29784	
360	0	30256	
361	0	30576	
362	0	30776	
363	0	30864	
364	0	30780	
365	0	30600	
366	0	30564	
367	0	30716	
368	0	30956	
369	0	31040	
370	0	30916	
371	0	30796	
372	0	30768	
373	0	30746	
374	0	30708	
375	0	30706	
376	0	30692	
377	0	30752	
378	0	30816	
379	0	30888	
380	0	30932	
381	0	30948	
382	0	30948	
383	0	30944	
384	0	30864	
385	0	30728	
386	0	30592	
387	0	30456	
388	0	30394	
389	0	30596	
390	0	30976	
391	0	31364	
392	0	31550	
393	0	31632	
394	0	31696	
395	0	31716	
396	0	31756	
397	0	31800	
398	0	31808	
399	0	31716	
400	0	31620	
401	0	31500	
402	0	31404	
403	0	31416	
404	0	31452	
405	0	31344	
406	0	31216	
407	0	31324	
408	0	31482	
409	0	31580	
410	0	31680	
411	0	31850	
412	0	32144	
413	0	32356	
414	0	32448	
415	0	32496	
416	0	32482	
417	0	32398	
418	0	32280	
419	0	32176	
420	0	31952	
421	0	31716	
422	0	31604	
423	0	31630	
424	0	31800	
425	0	32062	
426	0	32146	
427	0	31976	
428	0	31752	
429	0	31616	
430	0	31710	
431	0	31992	
432	0	32252	
433	0	32404	
434	0	32328	
435	0	32232	
436	0	32360	
437	0	32652	
438	0	32888	
439	0	33072	
440	0	33144	
441	0	33096	
442	0	33020	
443	0	33008	
444	0	33040	
445	0	33096	
446	0	33168	
447	0	33188	
448	0	33200	
449	0	33248	
450	0	33364	
451	0	33412	
452	0	33396	
453	0	33340	
454	0	33292	
455	0	33292	
456	0	33308	
457	0	33336	
458	0	33352	
459	0	33342	
460	0	33378	
461	0	33428	
462	0	33472	
463	0	33488	
464	0	33512	
465	0	33548	
466	0	33544	
467	0	33536	
468	0	33548	
469	0	33704	
470	0	33808	
471	0	33884	
472	0	34052	
473	0	34264	
474	0	34228	
475	0	33901	
476	0	33604	
477	0	33276	
478	0	33048	
479	0	33054	
480	0	33248	
481	0	33688	
482	0	34052	
483	0	34172	
484	0	34144	
485	0	34176	
486	0	34336	
487	0	34648	
488	0	34864	
489	0	34964	
490	0	35036	
491	0	35068	
492	0	35128	
493	0	35160	
494	0	35156	
495	0	35012	
496	0	34724	
497	0	34526	
498	0	34472	
499	0	34612	
500	0	34844	
501	0	35072	
502	0	35194	
503	0	35258	
504	0	35348	
505	0	35484	
506	0	35600	
507	0	35688	
508	0	35772	
509	0	35812	
510	0	35836	
511	0	35872	
512	0	35956	
513	0	36060	
514	0	36185	
515	0	36240	
516	0	36220	
517	0	36180	
518	0	36192	
519	0	36236	
520	0	36232	
521	0	36240	
522	0	36224	
523	0	36188	
524	0	35976	
525	0	35680	
526	0	35508	
527	0	35484	
528	0	35584	
529	0	35812	
530	0	36020	
531	0	36116	
532	0	36192	
533	0	36404	
534	0	36688	
535	0	36912	
536	0	37028	
537	0	37072	
538	0	37164	
539	0	37260	
540	0	37316	
541	0	37348	
542	0	37360	
543	0	37384	
544	0	37372	
545	0	37300	
546	0	37128	
547	0	36904	
548	0	36736	
549	0	36736	
550	0	36856	
551	0	36868	
552	0	36714	
553	0	36418	
554	0	36084	
555	0	36030	
556	0	36240	
557	0	36612	
558	0	36996	
559	0	37260	
560	0	37476	
561	0	37604	
562	0	37692	
563	0	37704	
564	0	37640	
565	0	37536	
566	0	37416	
567	0	37248	
568	0	37036	
569	0	36812	
570	0	36680	
571	0	36752	
572	0	36860	
573	0	36868	
574	0	36792	
575	0	36664	
576	0	36512	
577	0	36452	
578	0	36400	
579	0	36360	
580	0	36212	
581	0	35984	
582	0	35756	
583	0	35616	
584	0	35544	
585	0	35508	
586	0	35400	
587	0	35196	
588	0	34996	
589	0	34752	
590	0	34336	
591	0	33784	
592	0	33340	
593	0	33184	
594	0	33164	
595	0	33264	
596	0	33384	
597	0	33440	
598	0	33336	
599	0	33252	
600	0	33240	
601	0	33172	
602	0	33032	
603	0	32844	
604	0	32616	
605	0	32368	
606	0	32176	
607	0	31932	
608	0	31560	
609	0	31100	
610	0	30624	
611	0	30224	
612	0	29912	
613	0	29828	
614	0	29944	
615	0	30204	
616	0	30604	
617	0	30784	
618	0	30548	
619	0	30234	
620	0	30016	
621	0	29800	
622	0	29724	
623	0	29668	
624	0	29610	
625	0	29572	
626	0	29496	
627	0	29408	
628	0	29340	
629	0	29164	
630	0	28922	
631	0	28760	
632	0	28660	
633	0	28668	
634	0	28836	
635	0	29060	
636	0	29172	
637	0	29216	
638	0	29256	
639	0	29292	
640	0	29280	
641	0	29180	
642	0	29052	
643	0	28952	
644	0	28784	
645	0	28660	
646	0	28616	
647	0	28632	
648	0	28688	
649	0	28816	
650	0	28920	
651	0	28908	
652	0	28805	
653	0	28754	
654	0	28776	
655	0	28780	
656	0	28812	
657	0	28892	
658	0	28980	
659	0	29064	
660	0	29124	
661	0	29120	
662	0	29024	
663	0	28912	
664	0	28792	
665	0	28736	
666	0	28738	
667	0	28752	
668	0	28850	
669	0	28932	
670	0	28936	
671	0	29024	
672	0	28992	
673	0	28784	
674	0	28448	
675	0	28240	
676	0	28452	
677	0	29028	
678	0	29598	
679	0	29896	
680	0	30008	
681	0	30076	
682	0	30192	
683	0	30296	
684	0	30326	
685	0	30194	
686	0	29940	
687	0	29656	
688	0	29340	
689	0	29124	
690	0	29152	
691	0	29404	
692	0	29724	
693	0	29944	
694	0	30056	
695	0	30032	
696	0	30016	
697	0	30024	
698	0	30016	
699	0	30232	
700	0	30548	
701	0	30812	
702	0	30930	
703	0	30924	
704	0	30768	
705	0	30608	
706	0	30544	
707	0	30596	
708	0	30688	
709	0	30754	
710	0	30770	
711	0	30690	
712	0	30668	
713	0	30656	
714	0	30556	
715	0	30412	
716	0	30220	
717	0	30100	
718	0	30184	
719	0	30432	
720	0	30612	
721	0	30656	
722	0	30672	
723	0	30696	
724	0	30748	
725	0	30856	
726	0	30996	
727	0	31132	
728	0	31296	
729	0	31384	
730	0	31376	
731	0	31356	
732	0	31296	
733	0	31220	
734	0	31132	
735	0	30804	
736	0	30364	
737	0	30136	
738	0	30112	
739	0	30188	
740	0	30224	
741	0	30040	
742	0	29702	
743	0	29576	
744	0	29764	
745	0	30192	
746	0	30740	
747	0	31296	
748	0	31740	
749	0	32040	
750	0	32248	
751	0	32424	
752	0	32560	
753	0	32588	
754	0	32536	
755	0	32388	
756	0	32224	
757	0	32000	
758	0	31778	
759	0	31612	
760	0	31452	
761	0	31244	
762	0	31042	
763	0	30892	
764	0	30816	
765	0	30908	
766	0	31264	
767	0	31588	
768	0	31728	
769	0	31760	
770	0	31816	
771	0	31858	
772	0	31928	
773	0	31928	
774	0	31904	
775	0	31872	
776	0	31828	
777	0	31804	
778	0	31804	
779	0	31808	
780	0	31764	
781	0	31664	
782	0	31584	
783	0	31576	
784	0	31624	
785	0	31652	
786	0	31688	
787	0	31716	
788	0	31640	
789	0	31468	
790	0	31216	
791	0	31032	
792	0	31004	
793	0	31160	
794	0	31256	
795	0	31364	
796	0	31536	
797	0	31716	
798	0	31880	
799	0	32012	
800	0	32080	
801	0	32084	
802	0	32108	
803	0	32068	
804	0	31972	
805	0	31900	
806	0	31872	
807	0	31840	
808	0	31808	
809	0	31776	
810	0	31786	
811	0	31844	
812	0	31916	
813	0	31928	
814	0	31848	
815	0	31548	
816	0	31232	
817	0	31072	
818	0	30984	
819	0	30760	
820	0	30324	
821	0	29920	
822	0	29620	
823	0	29720	
824	0	30224	
825	0	30952	
826	0	31664	
827	0	32220	
828	0	32504	
829	0	32612	
830	0	32732	
831	0	32808	
832	0	32712	
833	0	32480	
834	0	32272	
835	0	32084	
836	0	31970	
837	0	31936	
838	0	31944	
839	0	31936	
840	0	31940	
841	0	31904	
842	0	31916	
843	0	31924	
844	0	31828	
845	0	31716	
846	0	31642	
847	0	31450	
848	0	31240	
849	0	31150	
850	0	31144	
851	0	31180	
852	0	31252	
853	0	31408	
854	0	31584	
855	0	31784	
856	0	32000	
857	0	32160	
858	0	32188	
859	0	32124	
860	0	32020	
861	0	31912	
862	0	31764	
863	0	31612	
864	0	31564	
865	0	31572	
866	0	31484	
867	0	31322	
868	0	31156	
869	0	31068	
870	0	31324	
871	0	31736	
872	0	32020	
873	0	32152	
874	0	32160	
875	0	32128	
876	0	32120	
877	0	32152	
878	0	32144	
879	0	32144	
880	0	32124	
881	0	32092	
882	0	32064	
883	0	31974	
884	0	31940	
885	0	32024	
886	0	32092	
887	0	32136	
888	0	32152	
889	0	32110	
890	0	32092	
891	0	31968	
892	0	31600	
893	0	31036	
894	0	30498	
895	0	30140	
896	0	30160	
897	0	30548	
898	0	31064	
899	0	31400	
900	0	31656	
901	0	31892	
902	0	32264	
903	0	32560	
904	0	32760	
905	0	32866	
906	0	32876	
907	0	32900	
908	0	32932	
909	0	32888	
910	0	32772	
911	0	32688	
912	0	32648	
913	0	32640	
914	0	32672	
915	0	32684	
916	0	32620	
917	0	32544	
918	0	32460	
919	0	32440	
920	0	32454	
921	0	32428	
922	0	32456	
923	0	32436	
924	0	32388	
925	0	32416	
926	0	32568	
927	0	32800	
928	0	33016	
929	0	33162	
930	0	33256	
931	0	33272	
932	0	33260	
933	0	33160	
934	0	33076	
935	0	33084	
936	0	33108	
937	0	33218	
938	0	33380	
939	0	33528	
940	0	33628	
941	0	33646	
942	0	33638	
943	0	33720	
944	0	33876	
945	0	34044	
946	0	34210	
947	0	34344	
948	0	34392	
949	0	34316	
950	0	34164	
951	0	34160	
952	0	34236	
953	0	34444	
954	0	34820	
955	0	35124	
956	0	35320	
957	0	35300	
958	0	35104	
959	0	35008	
960	0	35034	
961	0	35060	
962	0	35012	
963	0	35008	
964	0	35012	
965	0	35000	
966	0	34968	
967	0	34844	
968	0	34648	
969	0	34548	
970	0	34576	
971	0	34776	
972	0	34996	
973	0	34976	
974	0	34812	
975	0	34756	
976	0	34768	
977	0	34712	
978	0	34618	
979	0	34424	
980	0	34172	
981	0	33892	
982	0	33648	
983	0	33352	
984	0	33120	
985	0	32880	
986	0	32568	
987	0	32288	
988	0	32064	
989	0	31916	
990	0	31820	
991	0	31756	
992	0	31724	
993	0	31718	
994	0	31720	
995	0	31666	
996	0	31620	
997	0	31568	
998	0	31488	
999	0	31376	
1000	0	31264	
1001	0	31100	
1002	0	30984	
1003	0	30948	
1004	0	31008	
1005	0	31100	
1006	0	31184	
1007	0	31292	
1008	0	31312	
1009	0	31308	
1010	0	31276	
1011	0	31236	
1012	0	31136	
1013	0	30952	
1014	0	30764	
1015	0	30652	
1016	0	30618	
1017	0	30608	
1018	0	30622	
1019	0	30656	
1020	0	30800	
1021	0	31024	
1022	0	31184	
1023	0	31224	
1024	0	31240	
1025	0	31240	
1026	0	31248	
1027	0	31232	
1028	0	31224	
1029	0	31176	
1030	0	31128	
1031	0	31156	
1032	0	31296	
1033	0	31496	
1034	0	31712	
1035	0	31864	
1036	0	31882	
1037	0	31744	
1038	0	31452	
1039	0	31264	
1040	0	31270	
1041	0	31264	
1042	0	31280	
1043	0	31500	
1044	0	31792	
1045	0	31940	
1046	0	31944	
1047	0	31770	
1048	0	31424	
1049	0	31024	
1050	0	30520	
1051	0	30168	
1052	0	30146	
1053	0	30344	
1054	0	30828	
1055	0	31456	
1056	0	32044	
1057	0	32452	
1058	0	32668	
1059	0	32704	
1060	0	32608	
1061	0	32512	
1062	0	32328	
1063	0	32012	
1064	0	31528	
1065	0	30948	
1066	0	30338	
1067	0	29800	
1068	0	29438	
1069	0	29284	
1070	0	29300	
1071	0	29524	
1072	0	30068	
1073	0	30824	
1074	0	31822	
1075	0	32952	
1076	0	34046	
1077	0	35128	
1078	0	36220	
1079	0	37436	
1080	0	38908	
1081	0	40512	
1082	0	42112	
1083	0	43720	
1084	0	45360	
1085	0	47098	
1086	0	48888	
1087	0	50752	
1088	0	52640	
1089	0	54552	
1090	0	56576	
1091	0	58664	
1092	0	60696	
1093	0	62428	
1094	0	63692	
1095	0	64416	
1096	0	64768	
1097	0	64576	
1098	0	63872	
1099	0	62648	
1100	0	60576	
1101	0	57520	
1102	0	53996	
1103	0	50476	
1104	0	47028	
1105	0	43488	
1106	0	40096	
1107	0	36996	
1108	0	34144	
1109	0	31760	
1110	0	29984	
1111	0	28608	
1112	0	27472	
1113	0	26552	
1114	0	25916	
1115	0	25390	
1116	0	24868	
1117	0	24352	
1118	0	23808	
1119	0	23324	
1120	0	22924	
1121	0	22624	
1122	0	22456	
1123	0	22380	
1124	0	22436	
1125	0	22568	
1126	0	22824	
1127	0	23277	
1128	0	23788	
1129	0	24330	
1130	0	24996	
1131	0	25864	
1132	0	26776	
1133	0	27580	
1134	0	28280	
1135	0	28788	
1136	0	29140	
1137	0	29368	
1138	0	29504	
1139	0	29638	
1140	0	29762	
1141	0	29790	
1142	0	29712	
1143	0	29712	
1144	0	29852	
1145	0	30092	
1146	0	30340	
1147	0	30458	
1148	0	30422	
1149	0	30384	
1150	0	30424	
1151	0	30508	
1152	0	30374	
1153	0	30112	
1154	0	29892	
1155	0	29736	
1156	0	29596	
1157	0	29728	
1158	0	30009	
1159	0	30296	
1160	0	30624	
1161	0	30852	
1162	0	30988	
1163	0	31108	
1164	0	31180	
1165	0	31108	
1166	0	30944	
1167	0	30856	
1168	0	30900	
1169	0	31060	
1170	0	31192	
1171	0	31266	
1172	0	31292	
1173	0	31258	
1174	0	31174	
1175	0	31112	
1176	0	31092	
1177	0	31052	
1178	0	30960	
1179	0	30846	
1180	0	30654	
1181	0	30512	
1182	0	30424	
1183	0	30408	
1184	0	30428	
1185	0	30384	
1186	0	30440	
1187	0	30668	
1188	0	30948	
1189	0	31236	
1190	0	31568	
1191	0	31872	
1192	0	32136	
1193	0	32336	
1194	0	32440	
1195	0	32480	
1196	0	32532	
1197	0	32580	
1198	0	32576	
1199	0	32504	
1200	0	32418	
1201	0	32400	
1202	0	32376	
1203	0	32396	
1204	0	32384	
1205	0	32236	
1206	0	31964	
1207	0	31558	
1208	0	31116	
1209	0	30818	
1210	0	30776	
1211	0	31120	
1212	0	31624	
1213	0	32110	
1214	0	32608	
1215	0	33068	
1216	0	33364	
1217	0	33434	
1218	0	33412	
1219	0	33344	
1220	0	33248	
1221	0	33140	
1222	0	33120	
1223	0	33144	
1224	0	33216	
1225	0	33260	
1226	0	33224	
1227	0	33204	
1228	0	33236	
1229	0	33312	
1230	0	33328	
1231	0	33304	
1232	0	33312	
1233	0	33296	
1234	0	33218	
1235	0	33096	
1236	0	32972	
1237	0	32918	
1238	0	32928	
1239	0	32864	
1240	0	32756	
1241	0	32652	
1242	0	32524	
1243	0	32516	
1244	0	32688	
1245	0	33008	
1246	0	33344	
1247	0	33628	
1248	0	33780	
1249	0	33924	
1250	0	34024	
1251	0	34052	
1252	0	34048	
1253	0	34044	
1254	0	34044	
1255	0	34096	
1256	0	34168	
1257	0	34138	
1258	0	34040	
1259	0	33984	
1260	0	33996	
1261	0	34080	
1262	0	34216	
1263	0	34292	
1264	0	34272	
1265	0	34000	
1266	0	33640	
1267	0	33212	
1268	0	32944	
1269	0	32864	
1270	0	32940	
1271	0	33104	
1272	0	33312	
1273	0	33614	
1274	0	34024	
1275	0	34604	
1276	0	35214	
1277	0	35578	
1278	0	35492	
1279	0	35360	
1280	0	35296	
1281	0	35288	
1282	0	35440	
1283	0	35708	
1284	0	35896	
1285	0	35968	
1286	0	36004	
1287	0	36026	
1288	0	36016	
1289	0	36000	
1290	0	35980	
1291	0	35972	
1292	0	35960	
1293	0	35924	
1294	0	35866	
1295	0	35796	
1296	0	35688	
1297	0	35568	
1298	0	35492	
1299	0	35552	
1300	0	35600	
1301	0	35450	
1302	0	35276	
1303	0	35198	
1304	0	35272	
1305	0	35488	
1306	0	35852	
1307	0	36196	
1308	0	36384	
1309	0	36574	
1310	0	36776	
1311	0	36912	
1312	0	36960	
1313	0	36960	
1314	0	36960	
1315	0	36952	
1316	0	36942	
1317	0	36896	
1318	0	36824	
1319	0	36808	
1320	0	36804	
1321	0	36848	
1322	0	36936	
1323	0	36992	
1324	0	36992	
1325	0	36920	
1326	0	36816	
1327	0	36704	
1328	0	36616	
1329	0	36516	
1330	0	36288	
1331	0	35984	
1332	0	35752	
1333	0	35712	
1334	0	35760	
1335	0	35932	
1336	0	36208	
1337	0	36488	
1338	0	36868	
1339	0	37188	
1340	0	37400	
1341	0	37580	
1342	0	37648	
1343	0	37656	
1344	0	37656	
1345	0	37644	
1346	0	37616	
1347	0	37604	
1348	0	37480	
1349	0	37224	
1350	0	36996	
1351	0	36876	
1352	0	36728	
1353	0	36490	
1354	0	36248	
1355	0	35984	
1356	0	35824	
1357	0	35660	
1358	0	35560	
1359	0	35536	
1360	0	35544	
1361	0	35560	
1362	0	35476	
1363	0	35256	
1364	0	34984	
1365	0	34856	
1366	0	34864	
1367	0	34856	
1368	0	34756	
1369	0	34620	
1370	0	34444	
1371	0	34320	
1372	0	34272	
1373	0	34172	
1374	0	34012	
1375	0	33800	
1376	0	33524	
1377	0	33224	
1378	0	32858	
1379	0	32436	
1380	0	32110	
1381	0	31808	
1382	0	31524	
1383	0	31324	
1384	0	31208	
1385	0	31192	
1386	0	31272	
1387	0	31368	
1388	0	31436	
1389	0	31372	
1390	0	31168	
1391	0	30932	
1392	0	30760	
1393	0	30696	
1394	0	30624	
1395	0	30548	
1396	0	30432	
1397	0	30360	
1398	0	30340	
1399	0	30344	
1400	0	30114	
1401	0	29832	
1402	0	29572	
1403	0	29460	
1404	0	29428	
1405	0	29360	
1406	0	29240	
1407	0	28984	
1408	0	28836	
1409	0	28892	
1410	0	28968	
1411	0	29128	
1412	0	29370	
1413	0	29552	
1414	0	29572	
1415	0	29508	
1416	0	29408	
1417	0	29304	
1418	0	29184	
1419	0	29124	
1420	0	29158	
1421	0	29216	
1422	0	29280	
1423	0	29310	
1424	0	29270	
1425	0	29140	
1426	0	28984	
1427	0	28796	
1428	0	28504	
1429	0	28352	
1430	0	28376	
1431	0	28474	
1432	0	28556	
1433	0	28608	
1434	0	28760	
1435	0	28868	
1436	0	28920	
1437	0	29036	
1438	0	29252	
1439	0	29430	
1440	0	29504	
1441	0	29504	
1442	0	29440	
1443	0	29384	
1444	0	29386	
1445	0	29428	
1446	0	29420	
1447	0	29376	
1448	0	29320	
1449	0	29268	
1450	0	29204	
1451	0	29176	
1452	0	29192	
1453	0	29240	
1454	0	29272	
1455	0	29300	
1456	0	29348	
1457	0	29412	
1458	0	29472	
1459	0	29468	
1460	0	29420	
1461	0	29312	
1462	0	29160	
1463	0	28976	
1464	0	28810	
1465	0	28660	
1466	0	28580	
1467	0	28696	
1468	0	28844	
1469	0	28826	
1470	0	28680	
1471	0	28620	
1472	0	28836	
1473	0	29360	
1474	0	29924	
1475	0	30320	
1476	0	30626	
1477	0	30832	
1478	0	30980	
1479	0	31144	
1480	0	31228	
1481	0	31164	
1482	0	31024	
1483	0	30820	
1484	0	30656	
1485	0	30528	
1486	0	30324	
1487	0	30016	
1488	0	29666	
1489	0	29376	
1490	0	29300	
1491	0	29608	
1492	0	30112	
1493	0	30596	
1494	0	31056	
1495	0	31208	
1496	0	31260	
1497	0	31328	
1498	0	31344	
1499	0	31340	
1500	0	31372	
1501	0	31368	
1502	0	31324	
1503	0	31324	
1504	0	31400	
1505	0	31476	
1506	0	31428	
1507	0	31376	
1508	0	31424	
1509	0	31504	
1510	0	31524	
1511	0	31316	
1512	0	30848	
1513	0	30356	
1514	0	30080	
1515	0	30152	
1516	0	30432	
1517	0	30708	
1518	0	30816	
1519	0	30708	
1520	0	30544	
1521	0	30468	
1522	0	30584	
1523	0	30826	
1524	0	31188	
1525	0	31568	
1526	0	31822	
1527	0	31872	
1528	0	31778	
1529	0	31648	
1530	0	31632	
1531	0	31720	
1532	0	31836	
1533	0	31948	
1534	0	32036	
1535	0	31986	
1536	0	31840	
1537	0	31684	
1538	0	31636	
1539	0	31640	
1540	0	31740	
1541	0	31840	
1542	0	31824	
1543	0	31636	
1544	0	31424	
1545	0	31280	
1546	0	31260	
1547	0	31410	
1548	0	31644	
1549	0	31836	
1550	0	31932	
1551	0	31988	
1552	0	32080	
1553	0	32144	
1554	0	32164	
1555	0	32172	
1556	0	32132	
1557	0	32036	
1558	0	31896	
1559	0	31868	
1560	0	31880	
1561	0	31850	
1562	0	31784	
1563	0	31780	
1564	0	31808	
1565	0	31788	
1566	0	31736	
1567	0	31672	
1568	0	31580	
1569	0	31540	
1570	0	31536	
1571	0	31636	
1572	0	31728	
1573	0	31764	
1574	0	31736	
1575	0	31608	
1576	0	31380	
1577	0	31280	
1578	0	31376	
1579	0	31532	
1580	0	31600	
1581	0	31600	
1582	0	31564	
1583	0	31604	
1584	0	31716	
1585	0	31704	
1586	0	31614	
1587	0	31536	
1588	0	31524	
1589	0	31458	
1590	0	31344	
1591	0	31192	
1592	0	31216	
1593	0	31388	
1594	0	31562	
1595	0	31756	
1596	0	31986	
1597	0	32104	
1598	0	32088	
1599	0	32122	
1600	0	32200	
1601	0	32256	
1602	0	32192	
1603	0	32024	
1604	0	31832	
1605	0	31664	
1606	0	31656	
1607	0	31796	
1608	0	32068	
1609	0	32384	
1610	0	32554	
1611	0	32592	
1612	0	32512	
1613	0	32452	
1614	0	32336	
1615	0	32164	
1616	0	31928	
1617	0	31738	
1618	0	31636	
1619	0	31617	
1620	0	31724	
1621	0	31896	
1622	0	32064	
1623	0	32146	
1624	0	32138	
1625	0	32164	
1626	0	32276	
1627	0	32356	
1628	0	32312	
1629	0	32212	
1630	0	32148	
1631	0	32120	
1632	0	32128	
1633	0	32188	
1634	0	32212	
1635	0	32164	
1636	0	32004	
1637	0	31880	
1638	0	31856	
1639	0	31936	
1640	0	32018	
1641	0	31984	
1642	0	31960	
1643	0	31972	
1644	0	32004	
1645	0	32156	
1646	0	32290	
1647	0	32328	
1648	0	32336	
1649	0	32376	
1650	0	32560	
1651	0	32900	
1652	0	33232	
1653	0	33440	
1654	0	33504	
1655	0	33480	
1656	0	33504	
1657	0	33552	
1658	0	33528	
1659	0	33452	
1660	0	33372	
1661	0	33404	
1662	0	33480	
1663	0	33572	
1664	0	33652	
1665	0	33752	
1666	0	33840	
1667	0	33860	
1668	0	33780	
1669	0	33712	
1670	0	33696	
1671	0	33856	
1672	0	34240	
1673	0	34684	
1674	0	35016	
1675	0	35156	
1676	0	35080	
1677	0	34908	
1678	0	34772	
1679	0	34740	
1680	0	34858	
1681	0	35000	
1682	0	35044	
1683	0	35060	
1684	0	35116	
1685	0	35212	
1686	0	35348	
1687	0	35456	
1688	0	35520	
1689	0	35556	
1690	0	35644	
1691	0	35756	
1692	0	35832	
1693	0	35832	
1694	0	35764	
1695	0	35576	
1696	0	35224	
1697	0	34760	
1698	0	34104	
1699	0	33340	
1700	0	32724	
1701	0	32332	
1702	0	32156	
1703	0	32272	
1704	0	32604	
1705	0	32864	
1706	0	33060	
1707	0	33156	
1708	0	33280	
1709	0	33372	
1710	0	33280	
1711	0	33048	
1712	0	32664	
1713	0	32280	
1714	0	31912	
1715	0	31644	
1716	0	31568	
1717	0	31552	
1718	0	31496	
1719	0	31384	
1720	0	31280	
1721	0	31200	
1722	0	31024	
1723	0	30772	
1724	0	30536	
1725	0	30340	
1726	0	30316	
1727	0	30146	
1728	0	29846	
1729	0	29632	
1730	0	29722	
1731	0	30092	
1732	0	30588	
1733	0	31104	
1734	0	31504	
1735	0	31756	
1736	0	31952	
1737	0	32124	
1738	0	32204	
1739	0	32168	
1740	0	32098	
1741	0	31932	
1742	0	31780	
1743	0	31652	
1744	0	31464	
1745	0	31290	
1746	0	31160	
1747	0	31200	
1748	0	31308	
1749	0	31416	
1750	0	31512	
1751	0	31572	
1752	0	31704	
1753	0	31852	
1754	0	31860	
1755	0	31768	
1756	0	31720	
1757	0	31720	
1758	0	31748	
1759	0	31724	
1760	0	31584	
1761	0	31382	
1762	0	31216	
1763	0	31204	
1764	0	31360	
1765	0	31604	
1766	0	31840	
1767	0	32056	
1768	0	32212	
1769	0	32264	
1770	0	32238	
1771	0	32132	
1772	0	32016	
1773	0	32004	
1774	0	32112	
1775	0	32304	
1776	0	32436	
1777	0	32368	
1778	0	32176	
1779	0	31988	
1780	0	31788	
1781	0	31560	
1782	0	31304	
1783	0	31032	
1784	0	30786	
1785	0	30488	
1786	0	30226	
1787	0	29920	
1788	0	29660	
1789	0	29604	
1790	0	29704	
1791	0	29960	
1792	0	30392	
1793	0	30972	
1794	0	31672	
1795	0	32404	
1796	0	33136	
1797	0	33940	
1798	0	34768	
1799	0	35672	
1800	0	36692	
1801	0	37924	
1802	0	39340	
1803	0	40852	
1804	0	42336	
1805	0	43852	
1806	0	45568	
1807	0	47536	
1808	0	49608	
1809	0	51648	
1810	0	53684	
1811	0	55796	
1812	0	57848	
1813	0	59928	
1814	0	62000	
1815	0	63560	
1816	0	64392	
1817	0	64792	
1818	0	64952	
1819	0	64976	
1820	0	64924	
1821	0	64372	
1822	0	60700	
1823	0	56980	
1824	0	53312	
1825	0	49612	
1826	0	45630	
1827	0	41688	
1828	0	38120	
1829	0	35048	
1830	0	32488	
1831	0	30368	
1832	0	28736	
1833	0	27540	
1834	0	26616	
1835	0	25980	
1836	0	25696	
1837	0	25568	
1838	0	25336	
1839	0	25048	
1840	0	24696	
1841	0	24310	
1842	0	23992	
1843	0	23680	
1844	0	23610	
1845	0	23728	
1846	0	23900	
1847	0	24104	
1848	0	24424	
1849	0	24806	
1850	0	25216	
1851	0	25624	
1852	0	25960	
1853	0	26400	
1854	0	26804	
1855	0	27080	
1856	0	27244	
1857	0	27336	
1858	0	27492	
1859	0	27868	
1860	0	28432	
1861	0	29112	
1862	0	29820	
1863	0	30472	
1864	0	30984	
1865	0	31340	
1866	0	31568	
1867	0	31712	
1868	0	31832	
1869	0	31888	
1870	0	31792	
1871	0	31640	
1872	0	31504	
1873	0	31420	
1874	0	31346	
1875	0	31300	
1876	0	31244	
1877	0	31168	
1878	0	31100	
1879	0	31068	
1880	0	31050	
1881	0	31068	
1882	0	31073	
1883	0	31054	
1884	0	31068	
1885	0	31084	
1886	0	31058	
1887	0	31036	
1888	0	31022	
1889	0	31028	
1890	0	31044	
1891	0	31032	
1892	0	31036	
1893	0	31096	
1894	0	31176	
1895	0	31192	
1896	0	31192	
1897	0	31232	
1898	0	31284	
1899	0	31336	
1900	0	31396	
1901	0	31500	
1902	0	31650	
1903	0	31788	
1904	0	31784	
1905	0	31744	
1906	0	31764	
1907	0	31778	
1908	0	31810	
1909	0	31712	
1910	0	31502	
1911	0	31088	
1912	0	30538	
1913	0	30200	
1914	0	30112	
1915	0	30072	
1916	0	30144	
1917	0	30424	
1918	0	30776	
1919	0	31216	
1920	0	31900	
1921	0	32746	
1922	0	33392	
1923	0	33700	
1924	0	33764	
1925	0	33744	
1926	0	33724	
1927	0	33684	
1928	0	33628	
1929	0	33532	
1930	0	33440	
1931	0	33336	
1932	0	33180	
1933	0	32980	
1934	0	32832	
1935	0	32788	
1936	0	32840	
1937	0	32936	
1938	0	32980	
1939	0	32984	
1940	0	32896	
1941	0	32752	
1942	0	32616	
1943	0	32538	
1944	0	32500	
1945	0	32544	
1946	0	32716	
1947	0	32986	
1948	0	33126	
1949	0	33080	
1950	0	33012	
1951	0	33072	
1952	0	33248	
1953	0	33508	
1954	0	33716	
1955	0	33816	
1956	0	33794	
1957	0	33712	
1958	0	33648	
1959	0	33664	
1960	0	33696	
1961	0	33604	
1962	0	33476	
1963	0	33264	
1964	0	32992	
1965	0	32716	
1966	0	32500	
1967	0	32486	
1968	0	32680	
1969	0	32964	
1970	0	33288	
1971	0	33708	
1972	0	34100	
1973	0	34388	
1974	0	34568	
1975	0	34592	
1976	0	34384	
1977	0	34112	
1978	0	33960	
1979	0	33916	
1980	0	34084	
1981	0	34416	
1982	0	34776	
1983	0	35052	
1984	0	35292	
1985	0	35328	
1986	0	35242	
1987	0	35072	
1988	0	34888	
1989	0	34816	
1990	0	34792	
1991	0	34808	
1992	0	34780	
1993	0	34804	
1994	0	34904	
1995	0	34952	
1996	0	34972	
1997	0	34976	
1998	0	34968	
1999	0	34960	
2000	0	34976	
2001	0	35010	
2002	0	35206	
2003	0	35416	
2004	0	35436	
2005	0	35360	
2006	0	35380	
2007	0	35516	
2008	0	35676	
2009	0	35852	
2010	0	35960	
2011	0	36052	
2012	0	36200	
2013	0	36304	
2014	0	36408	
2015	0	36484	
2016	0	36516	
2017	0	36504	
2018	0	36536	
2019	0	36564	
2020	0	36532	
2021	0	36400	
2022	0	36232	
2023	0	35984	
2024	0	35696	
2025	0	35520	
2026	0	35540	
2027	0	35712	
2028	0	35976	
2029	0	36258	
2030	0	36384	
2031	0	36480	
2032	0	36544	
2033	0	36544	
2034	0	36368	
2035	0	36082	
2036	0	35832	
2037	0	35652	
2038	0	35772	
2039	0	36168	
2040	0	36556	
2041	0	36896	
2042	0	37136	
2043	0	37316	
2044	0	37572	
2045	0	37704	
2046	0	37680	
2047	0	37588	
2048	0	37472	
2049	0	37370	
2050	0	37284	
2051	0	37296	
2052	0	37328	
2053	0	37160	
2054	0	36748	
2055	0	36400	
2056	0	36224	
2057	0	36356	
2058	0	36716	
2059	0	37128	
2060	0	37440	
2061	0	37588	
2062	0	37564	
2063	0	37456	
2064	0	37312	
2065	0	37200	
2066	0	37136	
2067	0	37116	
2068	0	37084	
2069	0	37012	
2070	0	36904	
2071	0	36772	
2072	0	36604	
2073	0	36298	
2074	0	35948	
2075	0	35496	
2076	0	34976	
2077	0	34548	
2078	0	34292	
2079	0	34152	
2080	0	34100	
2081	0	34228	
2082	0	34428	
2083	0	34660	
2084	0	34976	
2085	0	35436	
2086	0	35688	
2087	0	35672	
2088	0	35516	
2089	0	35316	
2090	0	35156	
2091	0	34932	
2092	0	34660	
2093	0	34312	
2094	0	34004	
2095	0	33688	
2096	0	33344	
2097	0	33122	
2098	0	32912	
2099	0	32680	
2100	0	32356	
2101	0	31992	
2102	0	31564	
2103	0	31136	
2104	0	30636	
2105	0	30164	
2106	0	29792	
2107	0	29788	
2108	0	30136	
2109	0	30540	
2110	0	30780	
2111	0	30784	
2112	0	30672	
2113	0	30500	
2114	0	30432	
2115	0	30484	
2116	0	30532	
2117	0	30488	
2118	0	30352	
2119	0	30202	
2120	0	30128	
2121	0	30072	
2122	0	29976	
2123	0	29832	
2124	0	29610	
2125	0	29368	
2126	0	29136	
2127	0	28906	
2128	0	28736	
2129	0	28600	
2130	0	28492	
2131	0	28420	
2132	0	28240	
2133	0	27994	
2134	0	27858	
2135	0	27872	
2136	0	28064	
2137	0	28384	
2138	0	28720	
2139	0	29028	
2140	0	29248	
2141	0	29396	
2142	0	29496	
2143	0	29516	
2144	0	29448	
2145	0	29344	
2146	0	29244	
2147	0	29112	
2148	0	28972	
2149	0	28920	
2150	0	28880	
2151	0	28720	
2152	0	28480	
2153	0	28148	
2154	0	27866	
2155	0	27740	
2156	0	27840	
2157	0	28184	
2158	0	28680	
2159	0	29088	
2160	0	29252	
2161	0	29332	
2162	0	29396	
2163	0	29408	
2164	0	29436	
2165	0	29500	
2166	0	29612	
2167	0	29736	
2168	0	29776	
2169	0	29700	
2170	0	29656	
2171	0	29644	
2172	0	29662	
2173	0	29628	
2174	0	29536	
2175	0	29456	
2176	0	29418	
2177	0	29376	
2178	0	29352	
2179	0	29308	
2180	0	29218	
2181	0	29072	
2182	0	28772	
2183	0	28416	
2184	0	28100	
2185	0	27964	
2186	0	28196	
2187	0	28724	
2188	0	29312	
2189	0	29752	
2190	0	30061	
2191	0	30328	
2192	0	30572	
2193	0	30818	
2194	0	30984	
2195	0	30960	
2196	0	30756	
2197	0	30580	
2198	0	30496	
2199	0	30428	
2200	0	30316	
2201	0	30176	
2202	0	30036	
2203	0	29968	
2204	0	29860	
2205	0	29702	
2206	0	29622	
2207	0	29772	
2208	0	30232	
2209	0	30744	
2210	0	31104	
2211	0	31322	
2212	0	31412	
2213	0	31516	
2214	0	31514	
2215	0	31260	
2216	0	31105	
2217	0	31116	
2218	0	31168	
2219	0	31128	
2220	0	31116	
2221	0	31188	
2222	0	31268	
2223	0	31296	
2224	0	31308	
2225	0	31224	
2226	0	31128	
2227	0	31068	
2228	0	31082	
2229	0	31148	
2230	0	31176	
2231	0	31128	
2232	0	31072	
2233	0	30928	
2234	0	30752	
2235	0	30668	
2236	0	30656	
2237	0	30612	
2238	0	30686	
2239	0	30900	
2240	0	31040	
2241	0	31076	
2242	0	31080	
2243	0	31140	
2244	0	31264	
2245	0	31512	
2246	0	31804	
2247	0	32000	
2248	0	32144	
2249	0	32188	
2250	0	32200	
2251	0	32220	
2252	0	32228	
2253	0	32208	
2254	0	32202	
2255	0	32196	
2256	0	32112	
2257	0	31952	
2258	0	31800	
2259	0	31650	
2260	0	31540	
2261	0	31428	
2262	0	31412	
2263	0	31508	
2264	0	31524	
2265	0	31200	
2266	0	30856	
2267	0	30644	
2268	0	30600	
2269	0	30784	
2270	0	31080	
2271	0	31320	
2272	0	31392	
2273	0	31568	
2274	0	31828	
2275	0	32088	
2276	0	32328	
2277	0	32564	
2278	0	32688	
2279	0	32714	
2280	0	32638	
2281	0	32596	
2282	0	32572	
2283	0	32504	
2284	0	32446	
2285	0	32448	
2286	0	32440	
2287	0	32426	
2288	0	32416	
2289	0	32414	
2290	0	32306	
2291	0	32048	
2292	0	31688	
2293	0	31312	
2294	0	30944	
2295	0	30788	
2296	0	30792	
2297	0	30644	
2298	0	30496	
2299	0	30536	
2300	0	30816	
2301	0	31276	
2302	0	31808	
2303	0	32164	
2304	0	32296	
2305	0	32288	
2306	0	32288	
2307	0	32300	
2308	0	32188	
2309	0	32078	
2310	0	31938	
2311	0	31916	
2312	0	32140	
2313	0	32472	
2314	0	32626	
2315	0	32592	
2316	0	32408	
2317	0	32248	
2318	0	32192	
2319	0	32176	
2320	0	32208	
2321	0	32248	
2322	0	32168	
2323	0	32032	
2324	0	32000	
2325	0	32004	
2326	0	31962	
2327	0	31880	
2328	0	31890	
2329	0	32008	
2330	0	32128	
2331	0	32224	
2332	0	32264	
2333	0	32224	
2334	0	32032	
2335	0	31776	
2336	0	31652	
2337	0	31676	
2338	0	31800	
2339	0	32020	
2340	0	32196	
2341	0	32252	
2342	0	32200	
2343	0	32112	
2344	0	31940	
2345	0	31804	
2346	0	31770	
2347	0	31792	
2348	0	31788	
2349	0	31836	
2350	0	31916	
2351	0	32000	
2352	0	32096	
2353	0	32200	
2354	0	32292	
2355	0	32348	
2356	0	32392	
2357	0	32332	
2358	0	32276	
2359	0	32244	
2360	0	32256	
2361	0	32320	
2362	0	32444	
2363	0	32610	
2364	0	32756	
2365	0	32752	
2366	0	32650	
2367	0	32690	
2368	0	32928	
2369	0	33176	
2370	0	33320	
2371	0	33466	
2372	0	33540	
2373	0	33572	
2374	0	33588	
2375	0	33654	
2376	0	33640	
2377	0	33540	
2378	0	33544	
2379	0	33696	
2380	0	33892	
2381	0	34042	
2382	0	34172	
2383	0	34298	
2384	0	34404	
2385	0	34520	
2386	0	34554	
2387	0	34444	
2388	0	34316	
2389	0	34352	
2390	0	34540	
2391	0	34804	
2392	0	35168	
2393	0	35564	
2394	0	35620	
2395	0	35332	
2396	0	35004	
2397	0	34832	
2398	0	34840	
2399	0	34848	
2400	0	34912	
2401	0	35012	
2402	0	35042	
2403	0	34986	
2404	0	34948	
2405	0	34960	
2406	0	35092	
2407	0	35188	
2408	0	35236	
2409	0	35112	
2410	0	34744	
2411	0	34308	
2412	0	33860	
2413	0	33572	
2414	0	33504	
2415	0	33552	
2416	0	33690	
2417	0	33692	
2418	0	33556	
2419	0	33308	
2420	0	33066	
2421	0	33090	
2422	0	33232	
2423	0	33484	
2424	0	33752	
2425	0	33760	
2426	0	33516	
2427	0	33192	
2428	0	32856	
2429	0	32524	
2430	0	32204	
2431	0	31968	
2432	0	31802	
2433	0	31624	
2434	0	31516	
2435	0	31412	
2436	0	31280	
2437	0	31140	
2438	0	30968	
2439	0	30736	
2440	0	30496	
2441	0	30244	
2442	0	29936	
2443	0	29769	
2444	0	29760	
2445	0	29932	
2446	0	30196	
2447	0	30424	
2448	0	30612	
2449	0	30812	
2450	0	30888	
2451	0	30952	
2452	0	31052	
2453	0	31184	
2454	0	31276	
2455	0	31340	
2456	0	31376	
2457	0	31356	
2458	0	31372	
2459	0	31404	
2460	0	31446	
2461	0	31446	
2462	0	31408	
2463	0	31384	
2464	0	31357	
2465	0	31296	
2466	0	31296	
2467	0	31296	
2468	0	31208	
2469	0	31040	
2470	0	30712	
2471	0	30292	
2472	0	29998	
2473	0	30008	
2474	0	30124	
2475	0	30426	
2476	0	30820	
2477	0	31154	
2478	0	31264	
2479	0	31244	
2480	0	31168	
2481	0	31168	
2482	0	31360	
2483	0	31516	
2484	0	31632	
2485	0	31680	
2486	0	31854	
2487	0	32164	
2488	0	32516	
2489	0	32712	
2490	0	32746	
2491	0	32756	
2492	0	32730	
2493	0	32660	
2494	0	32533	
2495	0	32404	
2496	0	32340	
2497	0	32200	
2498	0	31954	
2499	0	31720	
2500	0	31448	
2501	0	31016	
2502	0	30416	
2503	0	29792	
2504	0	29128	
2505	0	28396	
2506	0	27722	
2507	0	27304	
2508	0	27404	
2509	0	28036	
2510	0	29192	
2511	0	30456	
2512	0	31532	
2513	0	32618	
2514	0	33944	
2515	0	35352	
2516	0	36736	
2517	0	37944	
2518	0	39278	
2519	0	40704	
2520	0	42152	
2521	0	43628	
2522	0	45156	
2523	0	46752	
2524	0	48368	
2525	0	50172	
2526	0	52180	
2527	0	54308	
2528	0	56468	
2529	0	58664	
2530	0	60800	
2531	0	62696	
2532	0	63844	
2533	0	64384	
2534	0	64668	
2535	0	64732	
2536	0	64728	
2537	0	64648	
2538	0	64272	
2539	0	60460	
2540	0	56552	
2541	0	52648	
2542	0	48608	
2543	0	44272	
2544	0	40128	
2545	0	36552	
2546	0	33486	
2547	0	31036	
2548	0	28984	
2549	0	27416	
2550	0	26288	
2551	0	25568	
2552	0	25178	
2553	0	25004	
2554	0	24884	
2555	0	24686	
2556	0	24376	
2557	0	24056	
2558	0	23748	
2559	0	23536	
2560	0	23360	
2561	0	23240	
2562	0	23216	
2563	0	23364	
2564	0	23724	
2565	0	24052	
2566	0	24436	
2567	0	24888	
2568	0	25548	
2569	0	26296	
2570	0	26888	
2571	0	27228	
2572	0	27348	
2573	0	27348	
2574	0	27484	
2575	0	27912	
2576	0	28564	
2577	0	29356	
2578	0	30060	
2579	0	30476	
2580	0	30680	
2581	0	30724	
2582	0	30700	
2583	0	30688	
2584	0	30728	
2585	0	30760	
2586	0	30740	
2587	0	30756	
2588	0	30800	
2589	0	30828	
2590	0	30868	
2591	0	30916	
2592	0	31024	
2593	0	31130	
2594	0	31182	
2595	0	31144	
2596	0	31104	
2597	0	31070	
2598	0	30988	
2599	0	30860	
2600	0	30772	
2601	0	30700	
2602	0	30572	
2603	0	30432	
2604	0	30338	
2605	0	30336	
2606	0	30344	
2607	0	30402	
2608	0	30500	
2609	0	30660	
2610	0	30912	
2611	0	31228	
2612	0	31476	
2613	0	31588	
2614	0	31560	
2615	0	31508	
2616	0	31520	
2617	0	31448	
2618	0	31364	
2619	0	31320	
2620	0	31288	
2621	0	31248	
2622	0	31208	
2623	0	31244	
2624	0	31420	
2625	0	31584	
2626	0	31712	
2627	0	31774	
2628	0	31834	
2629	0	31804	
2630	0	31712	
2631	0	31628	
2632	0	31570	
2633	0	31504	
2634	0	31348	
2635	0	31104	
2636	0	30992	
2637	0	31024	
2638	0	31172	
2639	0	31564	
2640	0	32044	
2641	0	32312	
2642	0	32474	
2643	0	32652	
2644	0	32868	
2645	0	33016	
2646	0	33044	
2647	0	32954	
2648	0	32852	
2649	0	32788	
2650	0	32728	
2651	0	32728	
2652	0	32708	
2653	0	32652	
2654	0	32656	
2655	0	32712	
2656	0	32762	
2657	0	32788	
2658	0	32852	
2659	0	32916	
2660	0	32936	
2661	0	33040	
2662	0	33120	
2663	0	33196	
2664	0	33284	
2665	0	33294	
2666	0	33288	
2667	0	33276	
2668	0	33248	
2669	0	33124	
2670	0	33028	
2671	0	32892	
2672	0	32676	
2673	0	32496	
2674	0	32448	
2675	0	32540	
2676	0	32800	
2677	0	33048	
2678	0	33276	
2679	0	33416	
2680	0	33488	
2681	0	33668	
2682	0	33836	
2683	0	33972	
2684	0	34024	
2685	0	33988	
2686	0	33892	
2687	0	33928	
2688	0	34132	
2689	0	34392	
2690	0	34540	
2691	0	34480	
2692	0	34332	
2693	0	34108	
2694	0	33896	
2695	0	33796	
2696	0	33716	
2697	0	33692	
2698	0	33736	
2699	0	33944	
2700	0	34052	
2701	0	33956	
2702	0	33904	
2703	0	33948	
2704	0	34096	
2705	0	34240	
2706	0	34456	
2707	0	34564	
2708	0	34628	
2709	0	34864	
2710	0	35216	
2711	0	35534	
2712	0	35744	
2713	0	35840	
2714	0	35864	
2715	0	35846	
2716	0	35832	
2717	0	35816	
2718	0	35804	
2719	0	35848	
2720	0	35852	
2721	0	35786	
2722	0	35732	
2723	0	35724	
2724	0	35684	
2725	0	35556	
2726	0	35360	
2727	0	35184	
2728	0	35148	
2729	0	35208	
2730	0	35212	
2731	0	35164	
2732	0	35216	
2733	0	35276	
2734	0	35300	
2735	0	35426	
2736	0	35636	
2737	0	35904	
2738	0	36324	
2739	0	36632	
2740	0	36828	
2741	0	37044	
2742	0	37256	
2743	0	37402	
2744	0	37444	
2745	0	37412	
2746	0	37220	
2747	0	36900	
2748	0	36572	
2749	0	36376	
2750	0	36308	
2751	0	36288	
2752	0	36276	
2753	0	36276	
2754	0	36332	
2755	0	36464	
2756	0	36840	
2757	0	37340	
2758	0	37652	
2759	0	37816	
2760	0	37808	
2761	0	37640	
2762	0	37500	
2763	0	37448	
2764	0	37456	
2765	0	37462	
2766	0	37506	
2767	0	37556	
2768	0	37568	
2769	0	37506	
2770	0	37480	
2771	0	37424	
2772	0	37304	
2773	0	37188	
2774	0	37016	
2775	0	36796	
2776	0	36600	
2777	0	36396	
2778	0	36300	
2779	0	36260	
2780	0	36256	
2781	0	36352	
2782	0	36386	
2783	0	36552	
2784	0	36808	
2785	0	37016	
2786	0	37212	
2787	0	37324	
2788	0	37412	
2789	0	37408	
2790	0	37344	
2791	0	37192	
2792	0	36896	
2793	0	36588	
2794	0	36180	
2795	0	35768	
2796	0	35464	
2797	0	35240	
2798	0	35056	
2799	0	34916	
2800	0	34824	
2801	0	34720	
2802	0	34456	
2803	0	34092	
2804	0	33840	
2805	0	33816	
2806	0	33836	
2807	0	33836	
2808	0	33856	
2809	0	33852	
2810	0	33832	
2811	0	33698	
2812	0	33536	
2813	0	33344	
2814	0	33160	
2815	0	33004	
2816	0	32860	
2817	0	32744	
2818	0	32684	
2819	0	32576	
2820	0	32432	
2821	0	32244	
2822	0	32008	
2823	0	31776	
2824	0	31552	
2825	0	31288	
2826	0	30888	
2827	0	30504	
2828	0	30092	
2829	0	29604	
2830	0	29458	
2831	0	29504	
2832	0	29568	
2833	0	29600	
2834	0	29476	
2835	0	29340	
2836	0	29468	
2837	0	29750	
2838	0	29992	
2839	0	30200	
2840	0	30276	
2841	0	30188	
2842	0	30060	
2843	0	29940	
2844	0	29754	
2845	0	29476	
2846	0	29088	
2847	0	28640	
2848	0	28044	
2849	0	27674	
2850	0	27520	
2851	0	27690	
2852	0	28096	
2853	0	28508	
2854	0	28804	
2855	0	29024	
2856	0	29156	
2857	0	29236	
2858	0	29234	
2859	0	29164	
2860	0	29096	
2861	0	29116	
2862	0	29180	
2863	0	29240	
2864	0	29276	
2865	0	29268	
2866	0	29248	
2867	0	29236	
2868	0	29266	
2869	0	29284	
2870	0	29156	
2871	0	28888	
2872	0	28660	
2873	0	28500	
2874	0	28392	
2875	0	28318	
2876	0	28289	
2877	0	28288	
2878	0	28424	
2879	0	28764	
2880	0	29156	
2881	0	29484	
2882	0	29730	
2883	0	29800	
2884	0	29841	
2885	0	29932	
2886	0	29972	
2887	0	29928	
2888	0	29840	
2889	0	29652	
2890	0	29462	
2891	0	29372	
2892	0	29384	
2893	0	29548	
2894	0	29746	
2895	0	29708	
2896	0	29342	
2897	0	28794	
2898	0	28258	
2899	0	27924	
2900	0	27992	
2901	0	28400	
2902	0	29048	
2903	0	29660	
2904	0	30228	
2905	0	30616	
2906	0	30784	
2907	0	30816	
2908	0	30672	
2909	0	30460	
2910	0	30428	
2911	0	30512	
2912	0	30580	
2913	0	30584	
2914	0	30514	
2915	0	30416	
2916	0	30312	
2917	0	30316	
2918	0	30400	
2919	0	30472	
2920	0	30544	
2921	0	30600	
2922	0	30632	
2923	0	30604	
2924	0	30592	
2925	0	30564	
2926	0	30484	
2927	0	30370	
2928	0	30228	
2929	0	30128	
2930	0	30142	
2931	0	30256	
2932	0	30440	
2933	0	30684	
2934	0	30849	
2935	0	30928	
2936	0	30920	
2937	0	30984	
2938	0	31148	
2939	0	31364	
2940	0	31516	
2941	0	31564	
2942	0	31560	
2943	0	31380	
2944	0	31264	
2945	0	31308	
2946	0	31274	
2947	0	31176	
2948	0	31108	
2949	0	31044	
2950	0	31008	
2951	0	31000	
2952	0	31000	
2953	0	30936	
2954	0	30712	
2955	0	30340	
2956	0	30080	
2957	0	30152	
2958	0	30636	
2959	0	31236	
2960	0	31482	
2961	0	31496	
2962	0	31540	
2963	0	31560	
2964	0	31616	
2965	0	31680	
2966	0	31728	
2967	0	31768	
2968	0	31836	
2969	0	31856	
2970	0	31872	
2971	0	31944	
2972	0	31936	
2973	0	31802	
2974	0	31600	
2975	0	31442	
2976	0	31280	
2977	0	31040	
2978	0	30860	
2979	0	30876	
2980	0	31104	
2981	0	31616	
2982	0	32180	
2983	0	32392	
2984	0	32420	
2985	0	32492	
2986	0	32576	
2987	0	32568	
2988	0	32452	
2989	0	32288	
2990	0	32180	
2991	0	32076	
2992	0	31888	
2993	0	31636	
2994	0	31472	
2995	0	31568	
2996	0	31743	
2997	0	31852	
2998	0	31984	
2999	0	32132	
3000	0	32140	
3001	0	31928	
3002	0	31656	
3003	0	31448	
3004	0	31258	
3005	0	31018	
3006	0	30800	
3007	0	30688	
3008	0	30912	
3009	0	31456	
3010	0	31972	
3011	0	32276	
3012	0	32432	
3013	0	32524	
3014	0	32472	
3015	0	32290	
3016	0	32112	
3017	0	32020	
3018	0	31980	
3019	0	31840	
3020	0	31588	
3021	0	31460	
3022	0	31480	
3023	0	31684	
3024	0	32008	
3025	0	32252	
3026	0	32360	
3027	0	32380	
3028	0	32376	
3029	0	32412	
3030	0	32388	
3031	0	32320	
3032	0	32240	
3033	0	32144	
3034	0	32032	
3035	0	31936	
3036	0	31892	
3037	0	31824	
3038	0	31696	
3039	0	31604	
3040	0	31600	
3041	0	31612	
3042	0	31672	
3043	0	31756	
3044	0	31840	
3045	0	31936	
3046	0	32000	
3047	0	32076	
3048	0	32080	
3049	0	31908	
3050	0	31600	
3051	0	31236	
3052	0	30916	
3053	0	30712	
3054	0	30772	
3055	0	31040	
3056	0	31432	
3057	0	31756	
3058	0	31820	
3059	0	31636	
3060	0	31412	
3061	0	31392	
3062	0	31628	
3063	0	31852	
3064	0	31944	
3065	0	31964	
3066	0	32008	
3067	0	32024	
3068	0	32064	
3069	0	32128	
3070	0	32196	
3071	0	32240	
3072	0	32236	
3073	0	32132	
3074	0	31954	
3075	0	31892	
3076	0	31900	
3077	0	31824	
3078	0	31740	
3079	0	31764	
3080	0	31840	
3081	0	31944	
3082	0	32072	
3083	0	32156	
3084	0	32156	
3085	0	32112	
3086	0	32148	
3087	0	32260	
3088	0	32296	
3089	0	32184	
3090	0	32062	
3091	0	32056	
3092	0	32076	
3093	0	32048	
3094	0	32028	
3095	0	32056	
3096	0	32076	
3097	0	32144	
3098	0	32192	
3099	0	32148	
3100	0	32116	
3101	0	32226	
3102	0	32414	
3103	0	32528	
3104	0	32540	
3105	0	32418	
3106	0	32160	
3107	0	31776	
3108	0	31392	
3109	0	31292	
3110	0	31416	
3111	0	31740	
3112	0	32081	
3113	0	32328	
3114	0	32452	
3115	0	32608	
3116	0	32688	
3117	0	32644	
3118	0	32432	
3119	0	32224	
3120	0	32232	
3121	0	32568	
3122	0	33208	
3123	0	33880	
3124	0	34272	
3125	0	34464	
3126	0	34536	
3127	0	34536	
3128	0	34546	
3129	0	34468	
3130	0	34312	
3131	0	34196	
3132	0	34224	
3133	0	34284	
3134	0	34336	
3135	0	34472	
3136	0	34618	
3137	0	34768	
3138	0	34952	
3139	0	35152	
3140	0	35312	
3141	0	35468	
3142	0	35584	
3143	0	35572	
3144	0	35460	
3145	0	35204	
3146	0	34884	
3147	0	34644	
3148	0	34556	
3149	0	34530	
3150	0	34600	
3151	0	34720	
3152	0	34804	
3153	0	34864	
3154	0	34872	
3155	0	34952	
3156	0	35112	
3157	0	35232	
3158	0	35362	
3159	0	35496	
3160	0	35564	
3161	0	35416	
3162	0	34916	
3163	0	34232	
3164	0	33484	
3165	0	32968	
3166	0	32608	
3167	0	32188	
3168	0	31920	
3169	0	31860	
3170	0	32060	
3171	0	32484	
3172	0	32928	
3173	0	33248	
3174	0	33536	
3175	0	33732	
3176	0	33736	
3177	0	33402	
3178	0	32880	
3179	0	32452	
3180	0	32168	
3181	0	31964	
3182	0	31818	
3183	0	31736	
3184	0	31644	
3185	0	31576	
3186	0	31476	
3187	0	31420	
3188	0	31328	
3189	0	31137	
3190	0	30892	
3191	0	30720	
3192	0	30720	
3193	0	30768	
3194	0	30736	
3195	0	30572	
3196	0	30348	
3197	0	30176	
3198	0	30210	
3199	0	30472	
3200	0	30736	
3201	0	30912	
3202	0	31130	
3203	0	31300	
3204	0	31320	
3205	0	31304	
3206	0	31274	
3207	0	31284	
3208	0	31368	
3209	0	31376	
3210	0	31288	
3211	0	31196	
3212	0	31084	
3213	0	30856	
3214	0	30448	
3215	0	29992	
3216	0	29636	
3217	0	29548	
3218	0	29736	
3219	0	30060	
3220	0	30480	
3221	0	30904	
3222	0	31240	
3223	0	31568	
3224	0	31896	
3225	0	32212	
3226	0	32396	
3227	0	32540	
3228	0	32592	
3229	0	32500	
3230	0	32416	
3231	0	32360	
3232	0	32340	
3233	0	32280	
3234	0	32200	
3235	0	32036	
3236	0	31792	
3237	0	31640	
3238	0	31616	
3239	0	31708	
3240	0	31776	
3241	0	31796	
3242	0	31748	
3243	0	31688	
3244	0	31648	
3245	0	31608	
3246	0	31504	
3247	0	31288	
3248	0	31040	
3249	0	31032	
3250	0	31236	
3251	0	31248	
3252	0	30900	
3253	0	30372	
3254	0	29768	
3255	0	29348	
3256	0	29164	
3257	0	29064	
3258	0	28968	
3259	0	28932	
3260	0	29260	
3261	0	30000	
3262	0	30892	
3263	0	32048	
3264	0	33208	
3265	0	34286	
3266	0	35468	
3267	0	36780	
3268	0	38268	
3269	0	39868	
3270	0	41512	
3271	0	43268	
3272	0	45160	
3273	0	47056	
3274	0	48916	
3275	0	50776	
3276	0	52576	
3277	0	54472	
3278	0	56572	
3279	0	58760	
3280	0	61080	
3281	0	62948	
3282	0	63960	
3283	0	64444	
3284	0	64644	
3285	0	64704	
3286	0	64672	
3287	0	64608	
3288	0	64512	
3289	0	61044	
3290	0	57192	
3291	0	53484	
3292	0	49732	
3293	0	45788	
3294	0	41812	
3295	0	38100	
3296	0	34832	
3297	0	32048	
3298	0	29636	
3299	0	27604	
3300	0	25944	
3301	0	24712	
3302	0	24036	
3303	0	23650	
3304	0	23432	
3305	0	23397	
3306	0	23332	
3307	0	23020	
3308	0	22550	
3309	0	22184	
3310	0	22036	
3311	0	22080	
3312	0	22408	
3313	0	22960	
3314	0	23534	
3315	0	24038	
3316	0	24586	
3317	0	25448	
3318	0	26616	
3319	0	27648	
3320	0	28520	
3321	0	29226	
3322	0	29600	
3323	0	29664	
3324	0	29568	
3325	0	29604	
3326	0	29728	
3327	0	29920	
3328	0	30116	
3329	0	30344	
3330	0	30572	
3331	0	30728	
3332	0	30777	
3333	0	30720	
3334	0	30560	
3335	0	30192	
3336	0	29808	
3337	0	29594	
3338	0	29528	
3339	0	29640	
3340	0	29748	
3341	0	29944	
3342	0	30236	
3343	0	30548	
3344	0	30896	
3345	0	31128	
3346	0	31258	
3347	0	31272	
3348	0	31212	
3349	0	31118	
3350	0	31056	
3351	0	31024	
3352	0	30972	
3353	0	30876	
3354	0	30660	
3355	0	30480	
3356	0	30416	
3357	0	30596	
3358	0	30964	
3359	0	31288	
3360	0	31272	
3361	0	30960	
3362	0	30524	
3363	0	30180	
3364	0	30112	
3365	0	30212	
3366	0	30376	
3367	0	30616	
3368	0	30988	
3369	0	31420	
3370	0	31808	
3371	0	32000	
3372	0	31904	
3373	0	31834	
3374	0	31800	
3375	0	31808	
3376	0	31916	
3377	0	32160	
3378	0	32320	
3379	0	32200	
3380	0	31876	
3381	0	31392	
3382	0	30892	
3383	0	30700	
3384	0	30764	
3385	0	31032	
3386	0	31400	
3387	0	31760	
3388	0	32168	
3389	0	32584	
3390	0	32864	
3391	0	33064	
3392	0	33144	
3393	0	33068	
3394	0	32900	
3395	0	32730	
3396	0	32580	
3397	0	32488	
3398	0	32456	
3399	0	32448	
3400	0	32378	
3401	0	32320	
3402	0	32328	
3403	0	32398	
3404	0	32550	
3405	0	32592	
3406	0	32568	
3407	0	32516	
3408	0	32504	
3409	0	32536	
3410	0	32552	
3411	0	32444	
3412	0	32312	
3413	0	32204	
3414	0	32248	
3415	0	32460	
3416	0	32754	
3417	0	32992	
3418	0	33176	
3419	0	33260	
3420	0	33320	
3421	0	33364	
3422	0	33372	
3423	0	33452	
3424	0	33480	
3425	0	33408	
3426	0	33396	
3427	0	33356	
3428	0	33336	
3429	0	33396	
3430	0	33484	
3431	0	33336	
3432	0	32954	
3433	0	32624	
3434	0	32528	
3435	0	32592	
3436	0	32800	
3437	0	33032	
3438	0	33120	
3439	0	33136	
3440	0	33296	
3441	0	33568	
3442	0	33928	
3443	0	34288	
3444	0	34556	
3445	0	34692	
3446	0	34700	
3447	0	34620	
3448	0	34528	
3449	0	34492	
3450	0	34544	
3451	0	34664	
3452	0	34764	
3453	0	34864	
3454	0	34980	
3455	0	35044	
3456	0	34972	
3457	0	34888	
3458	0	34864	
3459	0	34800	
3460	0	34576	
3461	0	34100	
3462	0	33588	
3463	0	33242	
3464	0	33104	
3465	0	33248	
3466	0	33752	
3467	0	34320	
3468	0	34892	
3469	0	35496	
3470	0	35912	
3471	0	36140	
3472	0	36276	
3473	0	36232	
3474	0	36106	
3475	0	35960	
3476	0	35876	
3477	0	35852	
3478	0	35788	
3479	0	35724	
3480	0	35634	
3481	0	35500	
3482	0	35516	
3483	0	35660	
3484	0	35904	
3485	0	36184	
3486	0	36380	
3487	0	36564	
3488	0	36788	
3489	0	36944	
3490	0	37008	
3491	0	37044	
3492	0	37086	
3493	0	37184	
3494	0	37268	
3495	0	37328	
3496	0	37364	
3497	0	37300	
3498	0	37260	
3499	0	37188	
3500	0	37120	
3501	0	37128	
3502	0	37152	
3503	0	37180	
3504	0	37144	
3505	0	37052	
3506	0	36936	
3507	0	36860	
3508	0	36800	
3509	0	36656	
3510	0	36548	
3511	0	36608	
3512	0	36868	
3513	0	37132	
3514	0	37292	
3515	0	37274	
3516	0	37236	
3517	0	37190	
3518	0	37216	
3519	0	37304	
3520	0	37456	
3521	0	37570	
3522	0	37504	
3523	0	37324	
3524	0	37104	
3525	0	36852	
3526	0	36700	
3527	0	36784	
3528	0	36992	
3529	0	37152	
3530	0	37392	
3531	0	37716	
3532	0	37948	
3533	0	37996	
3534	0	37932	
3535	0	37792	
3536	0	37552	
3537	0	37330	
3538	0	37144	
3539	0	36992	
3540	0	36876	
3541	0	36756	
3542	0	36640	
3543	0	36464	
3544	0	36212	
3545	0	36032	
3546	0	35936	
3547	0	35916	
3548	0	35916	
3549	0	35872	
3550	0	35796	
3551	0	35672	
3552	0	35528	
3553	0	35344	
3554	0	35064	
3555	0	34632	
3556	0	34208	
3557	0	33848	
3558	0	33464	
3559	0	33092	
3560	0	32774	
3561	0	32432	
3562	0	32224	
3563	0	32328	
3564	0	32568	
3565	0	32752	
3566	0	32836	
3567	0	32708	
3568	0	32478	
3569	0	32328	
3570	0	32280	
3571	0	32276	
3572	0	32106	
3573	0	31760	
3574	0	31384	
3575	0	31188	
3576	0	31152	
3577	0	31108	
3578	0	31022	
3579	0	30912	
3580	0	30860	
3581	0	30852	
3582	0	30756	
3583	0	30544	
3584	0	30276	
3585	0	29988	
3586	0	29676	
3587	0	29420	
3588	0	29252	
3589	0	29056	
3590	0	28876	
3591	0	28770	
3592	0	28720	
3593	0	28768	
3594	0	28888	
3595	0	29096	
3596	0	29374	
3597	0	29496	
3598	0	29470	
3599	0	29408	
3600	0	29336	
3601	0	29216	
3602	0	29078	
3603	0	28896	
3604	0	28744	
3605	0	28560	
3606	0	28352	
3607	0	28044	
3608	0	27696	
3609	0	27488	
3610	0	27476	
3611	0	27552	
3612	0	27792	
3613	0	28116	
3614	0	28488	
3615	0	28828	
3616	0	28972	
3617	0	28932	
3618	0	28900	
3619	0	28940	
3620	0	29012	
3621	0	29160	
3622	0	29292	
3623	0	29236	
3624	0	29020	
3625	0	28808	
3626	0	28644	
3627	0	28612	
3628	0	28706	
3629	0	28772	
3630	0	28810	
3631	0	28748	
3632	0	28800	
3633	0	29004	
3634	0	29240	
3635	0	29424	
3636	0	29640	
3637	0	29818	
3638	0	29872	
3639	0	29778	
3640	0	29684	
3641	0	29568	
3642	0	29428	
3643	0	29320	
3644	0	29218	
3645	0	29128	
3646	0	28932	
3647	0	28740	
3648	0	28580	
3649	0	28444	
3650	0	28688	
3651	0	29200	
3652	0	29660	
3653	0	29944	
3654	0	30088	
3655	0	30282	
3656	0	30456	
3657	0	30640	
3658	0	30716	
3659	0	30688	
3660	0	30560	
3661	0	30348	
3662	0	30152	
3663	0	30020	
3664	0	29984	
3665	0	30072	
3666	0	30316	
3667	0	30488	
3668	0	30560	
3669	0	30604	
3670	0	30616	
3671	0	30520	
3672	0	30336	
3673	0	30252	
3674	0	30248	
3675	0	30168	
3676	0	29984	
3677	0	29768	
3678	0	29672	
3679	0	29764	
3680	0	29828	
3681	0	29952	
3682	0	30110	
3683	0	30316	
3684	0	30684	
3685	0	31052	
3686	0	31392	
3687	0	31628	
3688	0	31672	
3689	0	31652	
3690	0	31712	
3691	0	31796	
3692	0	31772	
3693	0	31672	
3694	0	31508	
3695	0	31280	
3696	0	31096	
3697	0	31008	
3698	0	30982	
3699	0	31052	
3700	0	31152	
3701	0	31260	
3702	0	31208	
3703	0	30944	
3704	0	30716	
3705	0	30620	
3706	0	30712	
3707	0	30880	
3708	0	31020	
3709	0	31008	
3710	0	30814	
3711	0	30592	
3712	0	30496	
3713	0	30564	
3714	0	30752	
3715	0	31044	
3716	0	31480	
3717	0	31778	
3718	0	31888	
3719	0	31992	
3720	0	32152	
3721	0	32228	
3722	0	32272	
3723	0	32276	
3724	0	32232	
3725	0	32184	
3726	0	32048	
3727	0	31872	
3728	0	31836	
3729	0	31864	
3730	0	31864	
3731	0	31756	
3732	0	31492	
3733	0	31144	
3734	0	30748	
3735	0	30329	
3736	0	29968	
3737	0	29728	
3738	0	29740	
3739	0	30048	
3740	0	30568	
3741	0	31052	
3742	0	31692	
3743	0	32484	
3744	0	32992	
3745	0	33072	
3746	0	32916	
3747	0	32774	
3748	0	32736	
3749	0	32690	
3750	0	32588	
3751	0	32516	
3752	0	32500	
3753	0	32512	
3754	0	32488	
3755	0	32448	
3756	0	32412	
3757	0	32372	
3758	0	32356	
3759	0	32312	
3760	0	32228	
3761	0	32068	
3762	0	31936	
3763	0	31872	
3764	0	31772	
3765	0	31544	
3766	0	31424	
3767	0	31392	
3768	0	31396	
3769	0	31452	
3770	0	31504	
3771	0	31648	
3772	0	31840	
3773	0	31992	
3774	0	32096	
3775	0	32208	
3776	0	32354	
3777	0	32504	
3778	0	32564	
3779	0	32524	
3780	0	32460	
3781	0	32420	
3782	0	32368	
3783	0	32208	
3784	0	31992	
3785	0	31844	
3786	0	31804	
3787	0	31896	
3788	0	32052	
3789	0	32152	
3790	0	32138	
3791	0	32060	
3792	0	32004	
3793	0	31928	
3794	0	31756	
3795	0	31514	
3796	0	31228	
3797	0	31032	
3798	0	30960	
3799	0	30908	
3800	0	30844	
3801	0	30848	
3802	0	30784	
3803	0	30696	
3804	0	30732	
3805	0	30928	
3806	0	31340	
3807	0	31648	
3808	0	31772	
3809	0	31910	
3810	0	32096	
3811	0	32322	
3812	0	32596	
3813	0	32764	
3814	0	32856	
3815	0	32810	
3816	0	32800	
3817	0	32846	
3818	0	32856	
3819	0	32808	
3820	0	32700	
3821	0	32592	
3822	0	32414	
3823	0	32248	
3824	0	32036	
3825	0	31636	
3826	0	31224	
3827	0	30860	
3828	0	30788	
3829	0	31156	
3830	0	31720	
3831	0	32192	
3832	0	32384	
3833	0	32376	
3834	0	32284	
3835	0	32136	
3836	0	32084	
3837	0	32088	
3838	0	32064	
3839	0	31968	
3840	0	31836	
3841	0	31688	
3842	0	31572	
3843	0	31564	
3844	0	31624	
3845	0	31704	
3846	0	31664	
3847	0	31588	
3848	0	31512	
3849	0	31480	
3850	0	31444	
3851	0	31208	
3852	0	30852	
3853	0	30420	
3854	0	30220	
3855	0	30336	
3856	0	30732	
3857	0	31352	
3858	0	31984	
3859	0	32472	
3860	0	32909	
3861	0	33240	
3862	0	33360	
3863	0	33364	
3864	0	33268	
3865	0	33148	
3866	0	32944	
3867	0	32724	
3868	0	32560	
3869	0	32432	
3870	0	32412	
3871	0	32440	
3872	0	32288	
3873	0	31924	
3874	0	31384	
3875	0	30980	
3876	0	30914	
3877	0	31156	
3878	0	31540	
3879	0	31704	
3880	0	31732	
3881	0	31884	
3882	0	32152	
3883	0	32420	
3884	0	32628	
3885	0	32800	
3886	0	32876	
3887	0	32892	
3888	0	32856	
3889	0	32828	
3890	0	32756	
3891	0	32664	
3892	0	32528	
3893	0	32436	
3894	0	32460	
3895	0	32468	
3896	0	32428	
3897	0	32388	
3898	0	32336	
3899	0	32224	
3900	0	32052	
3901	0	31836	
3902	0	31632	
3903	0	31386	
3904	0	31112	
3905	0	30864	
3906	0	30742	
3907	0	30688	
3908	0	30756	
3909	0	30924	
3910	0	31016	
3911	0	31164	
3912	0	31436	
3913	0	31780	
3914	0	32228	
3915	0	32672	
3916	0	32968	
3917	0	33108	
3918	0	33142	
3919	0	33108	
3920	0	33104	
3921	0	33064	
3922	0	32886	
3923	0	32756	
3924	0	32688	
3925	0	32704	
3926	0	32748	
3927	0	32764	
3928	0	32724	
3929	0	32684	
3930	0	32636	
3931	0	32552	
3932	0	32480	
3933	0	32448	
3934	0	32376	
3935	0	32316	
3936	0	32080	
3937	0	31712	
3938	0	31456	
3939	0	31292	
3940	0	31240	
3941	0	31380	
3942	0	31652	
3943	0	31972	
3944	0	32172	
3945	0	32360	
3946	0	32584	
3947	0	32758	
3948	0	32852	
3949	0	32880	
3950	0	33048	
3951	0	33412	
3952	0	33812	
3953	0	34016	
3954	0	34080	
3955	0	34024	
3956	0	33904	
3957	0	33744	
3958	0	33556	
3959	0	33472	
3960	0	33552	
3961	0	33716	
3962	0	33876	
3963	0	33840	
3964	0	33648	
3965	0	33340	
3966	0	32916	
3967	0	32444	
3968	0	31980	
3969	0	31808	
3970	0	32100	
3971	0	32736	
3972	0	33504	
3973	0	34152	
3974	0	34660	
3975	0	35116	
3976	0	35568	
3977	0	35952	
3978	0	36144	
3979	0	36180	
3980	0	36138	
3981	0	36056	
3982	0	35984	
3983	0	35980	
3984	0	35984	
3985	0	35948	
3986	0	35868	
3987	0	35752	
3988	0	35548	
3989	0	35280	
3990	0	35020	
3991	0	34764	
3992	0	34636	
3993	0	34668	
3994	0	34706	
3995	0	34652	
3996	0	34436	
3997	0	34268	
3998	0	34176	
3999	0	34292	
4000	0	34724	
4001	0	35136	
4002	0	35312	
4003	0	35356	
4004	0	35348	
4005	0	35280	
4006	0	35156	
4007	0	35068	
4008	0	34952	
4009	0	34796	
4010	0	34560	
4011	0	34256	
4012	0	33908	
4013	0	33548	
4014	0	33244	
4015	0	32952	
4016	0	32556	
4017	0	32076	
4018	0	31532	
4019	0	30976	
4020	0	30498	
4021	0	30272	
4022	0	30272	
4023	0	30384	
4024	0	30570	
4025	0	30804	
4026	0	31040	
4027	0	31304	
4028	0	31592	
4029	0	31778	
4030	0	31796	
4031	0	31732	
4032	0	31744	
4033	0	31840	
4034	0	31904	
4035	0	31896	
4036	0	31820	
4037	0	31764	
4038	0	31828	
4039	0	31852	
4040	0	31828	
4041	0	31792	
4042	0	31748	
4043	0	31640	
4044	0	31456	
4045	0	31164	
4046	0	30912	
4047	0	30712	
4048	0	30720	
4049	0	30816	
4050	0	30948	
4051	0	31016	
4052	0	31052	
4053	0	31140	
4054	0	31344	
4055	0	31648	
4056	0	31860	
4057	0	31880	
4058	0	31816	
4059	0	31776	
4060	0	31836	
4061	0	31894	
4062	0	31932	
4063	0	31968	
4064	0	31948	
4065	0	31848	
4066	0	31788	
4067	0	31800	
4068	0	31844	
4069	0	31840	
4070	0	31812	
4071	0	31784	
4072	0	31760	
4073	0	31824	
4074	0	31912	
4075	0	31892	
4076	0	31808	
4077	0	31876	
4078	0	31944	
4079	0	31800	
4080	0	31600	
4081	0	31484	
4082	0	31514	
4083	0	31652	
4084	0	31684	
4085	0	31628	
4086	0	31600	
4087	0	31640	
4088	0	31728	
4089	0	31740	
4090	0	31662	
4091	0	31478	
4092	0	31348	
4093	0	31216	
4094	0	31036	
4095	0	30814	
4096	0	30664	
4097	0	30652	
4098	0	30714	
4099	0	30776	
4100	0	30882	
4101	0	31016	
4102	0	31316	
4103	0	31804	
4104	0	32428	
4105	0	33220	
4106	0	34096	
4107	0	35092	
4108	0	36288	
4109	0	37656	
4110	0	39120	
4111	0	40540	
4112	0	41970	
4113	0	43604	
4114	0	45496	
4115	0	47408	
4116	0	49320	
4117	0	51312	
4118	0	53244	
4119	0	55144	
4120	0	57176	
4121	0	59360	
4122	0	61500	
4123	0	63144	
4124	0	64032	
4125	0	64468	
4126	0	64624	
4127	0	64676	
4128	0	64628	
4129	0	63908	
4130	0	61280	
4131	0	58184	
4132	0	55024	
4133	0	51652	
4134	0	47984	
4135	0	44068	
4136	0	40312	
4137	0	36944	
4138	0	34032	
4139	0	31432	
4140	0	29184	
4141	0	27312	
4142	0	25818	
4143	0	24892	
4144	0	24462	
4145	0	24280	
4146	0	24160	
4147	0	24024	
4148	0	23828	
4149	0	23524	
4150	0	23320	
4151	0	23228	
4152	0	23274	
4153	0	23420	
4154	0	23744	
4155	0	24032	
4156	0	24236	
4157	0	24548	
4158	0	24944	
4159	0	25584	
4160	0	26336	
4161	0	27060	
4162	0	27632	
4163	0	28012	
4164	0	28332	
4165	0	28780	
4166	0	29282	
4167	0	29808	
4168	0	30284	
4169	0	30668	
4170	0	31032	
4171	0	31256	
4172	0	31276	
4173	0	31084	
4174	0	30832	
4175	0	30656	
4176	0	30600	
4177	0	30672	
4178	0	30864	
4179	0	30908	
4180	0	30648	
4181	0	30232	
4182	0	30152	
4183	0	30328	
4184	0	30490	
4185	0	30588	
4186	0	30612	
4187	0	30640	
4188	0	30660	
4189	0	30688	
4190	0	30716	
4191	0	30688	
4192	0	30688	
4193	0	30724	
4194	0	30796	
4195	0	30812	
4196	0	30708	
4197	0	30645	
4198	0	30678	
4199	0	30832	
4200	0	31088	
4201	0	31322	
4202	0	31504	
4203	0	31616	
4204	0	31652	
4205	0	31692	
4206	0	31632	
4207	0	31584	
4208	0	31450	
4209	0	31236	
4210	0	31112	
4211	0	31212	
4212	0	31344	
4213	0	31348	
4214	0	31300	
4215	0	31192	
4216	0	31184	
4217	0	31346	
4218	0	31576	
4219	0	31792	
4220	0	31852	
4221	0	31854	
4222	0	31864	
4223	0	32024	
4224	0	32332	
4225	0	32544	
4226	0	32556	
4227	0	32464	
4228	0	32240	
4229	0	32008	
4230	0	31840	
4231	0	31776	
4232	0	31738	
4233	0	31786	
4234	0	31968	
4235	0	32092	
4236	0	31996	
4237	0	31876	
4238	0	31892	
4239	0	31972	
4240	0	32036	
4241	0	32116	
4242	0	32250	
4243	0	32432	
4244	0	32612	
4245	0	32728	
4246	0	32784	
4247	0	32944	
4248	0	33124	
4249	0	33236	
4250	0	33360	
4251	0	33472	
4252	0	33508	
4253	0	33508	
4254	0	33476	
4255	0	33416	
4256	0	33324	
4257	0	33176	
4258	0	33096	
4259	0	33108	
4260	0	33132	
4261	0	33144	
4262	0	33132	
4263	0	33084	
4264	0	33024	
4265	0	32984	
4266	0	33092	
4267	0	33372	
4268	0	33556	
4269	0	33444	
4270	0	33218	
4271	0	33040	
4272	0	32952	
4273	0	32840	
4274	0	32692	
4275	0	32552	
4276	0	32404	
4277	0	32240	
4278	0	32142	
4279	0	32208	
4280	0	32640	
4281	0	33280	
4282	0	33956	
4283	0	34468	
4284	0	34800	
4285	0	35072	
4286	0	35320	
4287	0	35388	
4288	0	35316	
4289	0	35156	
4290	0	35080	
4291	0	35100	
4292	0	35168	
4293	0	35232	
4294	0	35204	
4295	0	35144	
4296	0	35016	
4297	0	34900	
4298	0	34840	
4299	0	34796	
4300	0	34748	
4301	0	34624	
4302	0	34490	
4303	0	34476	
4304	0	34474	
4305	0	34476	
4306	0	34548	
4307	0	34624	
4308	0	34564	
4309	0	34392	
4310	0	34296	
4311	0	34276	
4312	0	34444	
4313	0	34848	
4314	0	35368	
4315	0	35816	
4316	0	36100	
4317	0	36276	
4318	0	36416	
4319	0	36524	
4320	0	36648	
4321	0	36672	
4322	0	36616	
4323	0	36536	
4324	0	36464	
4325	0	36524	
4326	0	36632	
4327	0	36708	
4328	0	36692	
4329	0	36504	
4330	0	36200	
4331	0	35956	
4332	0	35730	
4333	0	35680	
4334	0	35736	
4335	0	35726	
4336	0	35648	
4337	0	35616	
4338	0	35756	
4339	0	36104	
4340	0	36432	
4341	0	36736	
4342	0	37040	
4343	0	37264	
4344	0	37492	
4345	0	37612	
4346	0	37608	
4347	0	37692	
4348	0	37884	
4349	0	38016	
4350	0	37978	
4351	0	37880	
4352	0	37836	
4353	0	37808	
4354	0	37840	
4355	0	37836	
4356	0	37840	
4357	0	37824	
4358	0	37820	
4359	0	37784	
4360	0	37692	
4361	0	37576	
4362	0	37280	
4363	0	36896	
4364	0	36532	
4365	0	36280	
4366	0	36260	
4367	0	36468	
4368	0	36920	
4369	0	37340	
4370	0	37696	
4371	0	37848	
4372	0	37784	
4373	0	37708	
4374	0	37642	
4375	0	37680	
4376	0	37824	
4377	0	37812	
4378	0	37696	
4379	0	37648	
4380	0	37672	
4381	0	37698	
4382	0	37668	
4383	0	37472	
4384	0	37132	
4385	0	36810	
4386	0	36568	
4387	0	36336	
4388	0	36128	
4389	0	36052	
4390	0	36120	
4391	0	36256	
4392	0	36364	
4393	0	36336	
4394	0	36104	
4395	0	35772	
4396	0	35420	
4397	0	35072	
4398	0	34656	
4399	0	34264	
4400	0	33980	
4401	0	33860	
4402	0	33840	
4403	0	33760	
4404	0	33612	
4405	0	33506	
4406	0	33476	
4407	0	33484	
4408	0	33466	
4409	0	33320	
4410	0	33072	
4411	0	32840	
4412	0	32640	
4413	0	32468	
4414	0	32280	
4415	0	32040	
4416	0	31740	
4417	0	31412	
4418	0	31116	
4419	0	30882	
4420	0	30688	
4421	0	30490	
4422	0	30356	
4423	0	30200	
4424	0	30008	
4425	0	29772	
4426	0	29660	
4427	0	29744	
4428	0	29832	
4429	0	29850	
4430	0	29760	
4431	0	29600	
4432	0	29468	
4433	0	29460	
4434	0	29476	
4435	0	29400	
4436	0	29280	
4437	0	29262	
4438	0	29204	
4439	0	29036	
4440	0	28940	
4441	0	28752	
4442	0	28388	
4443	0	28024	
4444	0	27790	
4445	0	27784	
4446	0	28032	
4447	0	28328	
4448	0	28636	
4449	0	28944	
4450	0	29208	
4451	0	29400	
4452	0	29492	
4453	0	29456	
4454	0	29264	
4455	0	29008	
4456	0	28712	
4457	0	28496	
4458	0	28424	
4459	0	28512	
4460	0	28728	
4461	0	28884	
4462	0	28932	
4463	0	28920	
4464	0	28908	
4465	0	28948	
4466	0	28992	
4467	0	28992	
4468	0	28900	
4469	0	28796	
4470	0	28794	
4471	0	28864	
4472	0	28764	
4473	0	28532	
4474	0	28401	
4475	0	28420	
4476	0	28588	
4477	0	28820	
4478	0	29004	
4479	0	29036	
4480	0	29068	
4481	0	29104	
4482	0	29200	
4483	0	29248	
4484	0	29168	
4485	0	28988	
4486	0	28888	
4487	0	28926	
4488	0	28904	
4489	0	28748	
4490	0	28612	
4491	0	28480	
4492	0	28416	
4493	0	28400	
4494	0	28484	
4495	0	28736	
4496	0	29216	
4497	0	29652	
4498	0	29856	
4499	0	29914	
4500	0	29984	
4501	0	30056	
4502	0	30048	
4503	0	29908	
4504	0	29722	
4505	0	29520	
4506	0	29296	
4507	0	29228	
4508	0	29316	
4509	0	29498	
4510	0	29685	
4511	0	29840	
4512	0	29946	
4513	0	29976	
4514	0	30044	
4515	0	30112	
4516	0	29988	
4517	0	29740	
4518	0	29648	
4519	0	29700	
4520	0	29860	
4521	0	30056	
4522	0	30312	
4523	0	30552	
4524	0	30688	
4525	0	30808	
4526	0	30896	
4527	0	30956	
4528	0	30992	
4529	0	31000	
4530	0	31040	
4531	0	31084	
4532	0	31096	
4533	0	31124	
4534	0	31088	
4535	0	31000	
4536	0	30944	
4537	0	30948	
4538	0	30964	
4539	0	30944	
4540	0	30874	
4541	0	30692	
4542	0	30404	
4543	0	30120	
4544	0	29992	
4545	0	30040	
4546	0	30244	
4547	0	30532	
4548	0	30804	
4549	0	30956	
4550	0	30986	
4551	0	31068	
4552	0	31256	
4553	0	31372	
4554	0	31328	
4555	0	31192	
4556	0	31050	
4557	0	31016	
4558	0	31188	
4559	0	31432	
4560	0	31564	
4561	0	31584	
4562	0	31596	
4563	0	31640	
4564	0	31708	
4565	0	31736	
4566	0	31684	
4567	0	31616	
4568	0	31546	
4569	0	31400	
4570	0	31168	
4571	0	31042	
4572	0	31128	
4573	0	31252	
4574	0	31300	
4575	0	31296	
4576	0	31248	
4577	0	31044	
4578	0	30720	
4579	0	30498	
4580	0	30536	
4581	0	30748	
4582	0	31036	
4583	0	31416	
4584	0	31696	
4585	0	31912	
4586	0	32048	
4587	0	32064	
4588	0	31988	
4589	0	31912	
4590	0	31952	
4591	0	31976	
4592	0	31964	
4593	0	31996	
4594	0	31940	
4595	0	31820	
4596	0	31676	
4597	0	31480	
4598	0	31240	
4599	0	31048	
4600	0	30964	
4601	0	31074	
4602	0	31216	
4603	0	31232	
4604	0	31116	
4605	0	31060	
4606	0	31184	
4607	0	31404	
4608	0	31608	
4609	0	31724	
4610	0	31900	
4611	0	32124	
4612	0	32236	
4613	0	32232	
4614	0	32200	
4615	0	32112	
4616	0	32000	
4617	0	31896	
4618	0	31884	
4619	0	31952	
4620	0	32056	
4621	0	32040	
4622	0	31924	
4623	0	31868	
4624	0	31884	
4625	0	31870	
4626	0	31848	
4627	0	31792	
4628	0	31768	
4629	0	31832	
4630	0	31936	
4631	0	31992	
4632	0	31960	
4633	0	31876	
4634	0	31712	
4635	0	31564	
4636	0	31552	
4637	0	31584	
4638	0	31628	
4639	0	31680	
4640	0	31678	
4641	0	31544	
4642	0	31264	
4643	0	30978	
4644	0	30780	
4645	0	30836	
4646	0	31220	
4647	0	31538	
4648	0	31680	
4649	0	31752	
4650	0	31744	
4651	0	31672	
4652	0	31368	
4653	0	31024	
4654	0	30824	
4655	0	30792	
4656	0	31052	
4657	0	31392	
4658	0	31586	
4659	0	31832	
4660	0	32100	
4661	0	32348	
4662	0	32432	
4663	0	32432	
4664	0	32400	
4665	0	32376	
4666	0	32324	
4667	0	32192	
4668	0	32052	
4669	0	31938	
4670	0	31824	
4671	0	31732	
4672	0	31684	
4673	0	31632	
4674	0	31520	
4675	0	31308	
4676	0	31048	
4677	0	30880	
4678	0	30668	
4679	0	30572	
4680	0	30560	
4681	0	30696	
4682	0	30936	
4683	0	31224	
4684	0	31572	
4685	0	31808	
4686	0	32020	
4687	0	32336	
4688	0	32592	
4689	0	32664	
4690	0	32620	
4691	0	32548	
4692	0	32530	
4693	0	32584	
4694	0	32548	
4695	0	32474	
4696	0	32420	
4697	0	32388	
4698	0	32284	
4699	0	32136	
4700	0	32064	
4701	0	32068	
4702	0	32040	
4703	0	31844	
4704	0	31628	
4705	0	31488	
4706	0	31356	
4707	0	31298	
4708	0	31376	
4709	0	31480	
4710	0	31620	
4711	0	31688	
4712	0	31644	
4713	0	31664	
4714	0	31828	
4715	0	31968	
4716	0	32072	
4717	0	32064	
4718	0	31896	
4719	0	31676	
4720	0	31484	
4721	0	31372	
4722	0	31460	
4723	0	31704	
4724	0	31924	
4725	0	32090	
4726	0	32204	
4727	0	32280	
4728	0	32280	
4729	0	32216	
4730	0	32096	
4731	0	32044	
4732	0	32116	
4733	0	32200	
4734	0	32228	
4735	0	32244	
4736	0	32236	
4737	0	32168	
4738	0	32100	
4739	0	32016	
4740	0	31952	
4741	0	31980	
4742	0	32008	
4743	0	32040	
4744	0	32092	
4745	0	31960	
4746	0	31656	
4747	0	31336	
4748	0	31168	
4749	0	31180	
4750	0	31136	
4751	0	30892	
4752	0	30492	
4753	0	30154	
4754	0	30128	
4755	0	30560	
4756	0	31300	
4757	0	32072	
4758	0	32624	
4759	0	32952	
4760	0	33160	
4761	0	33336	
4762	0	33476	
4763	0	33440	
4764	0	33240	
4765	0	33058	
4766	0	32908	
4767	0	32744	
4768	0	32624	
4769	0	32564	
4770	0	32544	
4771	0	32552	
4772	0	32560	
4773	0	32480	
4774	0	32306	
4775	0	32084	
4776	0	31916	
4777	0	31840	
4778	0	31800	
4779	0	31792	
4780	0	31826	
4781	0	31800	
4782	0	31796	
4783	0	31848	
4784	0	31856	
4785	0	31944	
4786	0	32098	
4787	0	32256	
4788	0	32432	
4789	0	32620	
4790	0	32816	
4791	0	32880	
4792	0	32924	
4793	0	32960	
4794	0	32920	
4795	0	32832	
4796	0	32640	
4797	0	32392	
4798	0	32112	
4799	0	31892	
4800	0	31812	
4801	0	31896	
4802	0	32106	
4803	0	32268	
4804	0	32320	
4805	0	32328	
4806	0	32290	
4807	0	32172	
4808	0	31936	
4809	0	31778	
4810	0	31832	
4811	0	32000	
4812	0	32116	
4813	0	32128	
4814	0	32232	
4815	0	32368	
4816	0	32528	
4817	0	32712	
4818	0	32820	
4819	0	32832	
4820	0	32732	
4821	0	32660	
4822	0	32612	
4823	0	32592	
4824	0	32592	
4825	0	32552	
4826	0	32440	
4827	0	32280	
4828	0	32132	
4829	0	31976	
4830	0	31836	
4831	0	31768	
4832	0	31736	
4833	0	31840	
4834	0	31898	
4835	0	31848	
4836	0	31824	
4837	0	31828	
4838	0	31994	
4839	0	32304	
4840	0	32604	
4841	0	32852	
4842	0	33018	
4843	0	33156	
4844	0	33376	
4845	0	33636	
4846	0	33840	
4847	0	34054	
4848	0	34262	
4849	0	34324	
4850	0	34248	
4851	0	34156	
4852	0	34056	
4853	0	33964	
4854	0	33886	
4855	0	33840	
4856	0	33888	
4857	0	33880	
4858	0	33792	
4859	0	33624	
4860	0	33508	
4861	0	33452	
4862	0	33476	
4863	0	33612	
4864	0	33844	
4865	0	34120	
4866	0	34268	
4867	0	34300	
4868	0	34348	
4869	0	34440	
4870	0	34572	
4871	0	34756	
4872	0	34992	
4873	0	35232	
4874	0	35448	
4875	0	35642	
4876	0	35756	
4877	0	35824	
4878	0	35846	
4879	0	35860	
4880	0	35790	
4881	0	35644	
4882	0	35512	
4883	0	35360	
4884	0	35180	
4885	0	35012	
4886	0	34856	
4887	0	34680	
4888	0	34512	
4889	0	34408	
4890	0	34332	
4891	0	34192	
4892	0	34248	
4893	0	34552	
4894	0	34972	
4895	0	35352	
4896	0	35636	
4897	0	35840	
4898	0	35832	
4899	0	35700	
4900	0	35496	
4901	0	35284	
4902	0	35032	
4903	0	34804	
4904	0	34536	
4905	0	34264	
4906	0	34008	
4907	0	33748	
4908	0	33480	
4909	0	33280	
4910	0	33052	
4911	0	32760	
4912	0	32384	
4913	0	31992	
4914	0	31660	
4915	0	31408	
4916	0	31208	
4917	0	31156	
4918	0	31136	
4919	0	31160	
4920	0	31216	
4921	0	31080	
4922	0	30906	
4923	0	30784	
4924	0	30756	
4925	0	31036	
4926	0	31496	
4927	0	31880	
4928	0	32144	
4929	0	32268	
4930	0	32312	
4931	0	32220	
4932	0	32040	
4933	0	31882	
4934	0	31772	
4935	0	31786	
4936	0	31898	
4937	0	32012	
4938	0	32076	
4939	0	32096	
4940	0	32144	
4941	0	32152	
4942	0	32160	
4943	0	32204	
4944	0	32232	
4945	0	32210	
4946	0	32120	
4947	0	31928	
4948	0	31792	
4949	0	31720	
4950	0	31676	
4951	0	31620	
4952	0	31618	
4953	0	31644	
4954	0	31660	
4955	0	31560	
4956	0	31448	
4957	0	31360	
4958	0	31408	
4959	0	31616	
4960	0	31872	
4961	0	31952	
4962	0	31904	
4963	0	31784	
4964	0	31697	
4965	0	31808	
4966	0	32056	
4967	0	32344	
4968	0	32556	
4969	0	32692	
4970	0	32788	
4971	0	32840	
4972	0	32860	
4973	0	32800	
4974	0	32768	
4975	0	32780	
4976	0	32800	
4977	0	32780	
4978	0	32714	
4979	0	32628	
4980	0	32570	
4981	0	32538	
4982	0	32396	
4983	0	32150	
4984	0	31817	
4985	0	31332	
4986	0	30632	
4987	0	29884	
4988	0	29272	
4989	0	28976	
4990	0	29056	
4991	0	29404	
4992	0	29808	
4993	0	30050	
4994	0	30352	
4995	0	31048	
4996	0	31900	
4997	0	32748	
4998	0	33656	
4999	0	34684	
5000	0	35880	
5001	0	37184	
5002	0	38456	
5003	0	39920	
5004	0	41488	
5005	0	43060	
5006	0	44676	
5007	0	46440	
5008	0	48224	
5009	0	49920	
5010	0	51696	
5011	0	53568	
5012	0	55560	
5013	0	57676	
5014	0	59900	
5015	0	62064	
5016	0	63504	
5017	0	64228	
5018	0	64568	
5019	0	64704	
5020	0	64708	
5021	0	64664	
5022	0	64584	
5023	0	63192	
5024	0	59204	
5025	0	55384	
5026	0	51616	
5027	0	47792	
5028	0	43736	
5029	0	39932	
5030	0	36576	
5031	0	33724	
5032	0	31480	
5033	0	29744	
5034	0	28408	
5035	0	27232	
5036	0	26384	
5037	0	25824	
5038	0	25484	
5039	0	25244	
5040	0	25008	
5041	0	24680	
5042	0	24276	
5043	0	23854	
5044	0	23590	
5045	0	23548	
5046	0	23490	
5047	0	23392	
5048	0	23232	
5049	0	23064	
5050	0	23128	
5051	0	23600	
5052	0	24378	
5053	0	25236	
5054	0	26204	
5055	0	27012	
5056	0	27682	
5057	0	28304	
5058	0	28868	
5059	0	29392	
5060	0	29772	
5061	0	30008	
5062	0	30176	
5063	0	30264	
5064	0	30312	
5065	0	30416	
5066	0	30528	
5067	0	30596	
5068	0	30720	
5069	0	30932	
5070	0	31060	
5071	0	31088	
5072	0	31020	
5073	0	30816	
5074	0	30624	
5075	0	30520	
5076	0	30420	
5077	0	30288	
5078	0	30268	
5079	0	30524	
5080	0	30856	
5081	0	31052	
5082	0	31096	
5083	0	31112	
5084	0	31124	
5085	0	31128	
5086	0	31128	
5087	0	31152	
5088	0	31208	
5089	0	31300	
5090	0	31416	
5091	0	31444	
5092	0	31432	
5093	0	31392	
5094	0	31344	
5095	0	31304	
5096	0	31218	
5097	0	31116	
5098	0	31092	
5099	0	31160	
5100	0	31288	
5101	0	31336	
5102	0	31352	
5103	0	31272	
5104	0	31104	
5105	0	31016	
5106	0	31104	
5107	0	31280	
5108	0	31440	
5109	0	31404	
5110	0	31368	
5111	0	31480	
5112	0	31696	
5113	0	31936	
5114	0	32104	
5115	0	32194	
5116	0	32268	
5117	0	32316	
5118	0	32340	
5119	0	32394	
5120	0	32432	
5121	0	32352	
5122	0	32208	
5123	0	32100	
5124	0	32072	
5125	0	32148	
5126	0	32296	
5127	0	32404	
5128	0	32456	
5129	0	32492	
5130	0	32504	
5131	0	32496	
5132	0	32404	
5133	0	32288	
5134	0	32244	
5135	0	32270	
5136	0	32380	
5137	0	32520	
5138	0	32524	
5139	0	32384	
5140	0	32122	
5141	0	31832	
5142	0	31716	
5143	0	31832	
5144	0	32108	
5145	0	32276	
5146	0	32312	
5147	0	32288	
5148	0	32272	
5149	0	32324	
5150	0	32488	
5151	0	32744	
5152	0	33028	
5153	0	33226	
5154	0	33304	
5155	0	33298	
5156	0	33332	
5157	0	33376	
5158	0	33412	
5159	0	33380	
5160	0	33340	
5161	0	33252	
5162	0	33176	
5163	0	33204	
5164	0	33296	
5165	0	33356	
5166	0	33360	
5167	0	33380	
5168	0	33484	
5169	0	33644	
5170	0	33800	
5171	0	33848	
5172	0	33852	
5173	0	33866	
5174	0	33852	
5175	0	33740	
5176	0	33708	
5177	0	33744	
5178	0	33786	
5179	0	33876	
5180	0	34004	
5181	0	34210	
5182	0	34344	
5183	0	34364	
5184	0	34214	
5185	0	34084	
5186	0	34000	
5187	0	33872	
5188	0	33896	
5189	0	33924	
5190	0	33713	
5191	0	33428	
5192	0	33312	
5193	0	33358	
5194	0	33572	
5195	0	33872	
5196	0	34196	
5197	0	34448	
5198	0	34720	
5199	0	34976	
5200	0	35316	
5201	0	35700	
5202	0	35988	
5203	0	36108	
5204	0	36076	
5205	0	35972	
5206	0	35840	
5207	0	35680	
5208	0	35604	
5209	0	35576	
5210	0	35492	
5211	0	35356	
5212	0	35256	
5213	0	35156	
5214	0	35010	
5215	0	34944	
5216	0	35024	
5217	0	35244	
5218	0	35464	
5219	0	35604	
5220	0	35688	
5221	0	35808	
5222	0	35944	
5223	0	36032	
5224	0	36142	
5225	0	36248	
5226	0	36320	
5227	0	36410	
5228	0	36492	
5229	0	36576	
5230	0	36696	
5231	0	36808	
5232	0	36920	
5233	0	37060	
5234	0	37120	
5235	0	37044	
5236	0	36856	
5237	0	36680	
5238	0	36504	
5239	0	36464	
5240	0	36624	
5241	0	36880	
5242	0	37104	
5243	0	37296	
5244	0	37418	
5245	0	37460	
5246	0	37540	
5247	0	37584	
5248	0	37604	
5249	0	37596	
5250	0	37504	
5251	0	37452	
5252	0	37464	
5253	0	37520	
5254	0	37580	
5255	0	37652	
5256	0	37728	
5257	0	37784	
5258	0	37788	
5259	0	37780	
5260	0	37690	
5261	0	37536	
5262	0	37344	
5263	0	37220	
5264	0	37112	
5265	0	37068	
5266	0	37048	
5267	0	36880	
5268	0	36784	
5269	0	36800	
5270	0	36900	
5271	0	37108	
5272	0	37204	
5273	0	37202	
5274	0	37180	
5275	0	37116	
5276	0	37034	
5277	0	36904	
5278	0	36802	
5279	0	36824	
5280	0	36872	
5281	0	36880	
5282	0	36800	
5283	0	36692	
5284	0	36520	
5285	0	36300	
5286	0	36064	
5287	0	35832	
5288	0	35592	
5289	0	35292	
5290	0	34868	
5291	0	34276	
5292	0	33684	
5293	0	33244	
5294	0	32972	
5295	0	32896	
5296	0	32972	
5297	0	33200	
5298	0	33346	
5299	0	33392	
5300	0	33424	
5301	0	33472	
5302	0	33508	
5303	0	33512	
5304	0	33508	
5305	0	33364	
5306	0	33088	
5307	0	32764	
5308	0	32464	
5309	0	32192	
5310	0	31922	
5311	0	31692	
5312	0	31444	
5313	0	31240	
5314	0	31172	
5315	0	31116	
5316	0	30862	
5317	0	30376	
5318	0	29848	
5319	0	29352	
5320	0	28996	
5321	0	28920	
5322	0	29106	
5323	0	29428	
5324	0	29672	
5325	0	29796	
5326	0	29848	
5327	0	29900	
5328	0	29872	
5329	0	29800	
5330	0	29744	
5331	0	29626	
5332	0	29464	
5333	0	29312	
5334	0	29188	
5335	0	29160	
5336	0	29188	
5337	0	29202	
5338	0	29152	
5339	0	29040	
5340	0	28896	
5341	0	28788	
5342	0	28672	
5343	0	28576	
5344	0	28404	
5345	0	28192	
5346	0	27868	
5347	0	27588	
5348	0	27328	
5349	0	27088	
5350	0	26960	
5351	0	27080	
5352	0	27286	
5353	0	27444	
5354	0	27704	
5355	0	27988	
5356	0	28324	
5357	0	28640	
5358	0	28840	
5359	0	28948	
5360	0	29012	
5361	0	29032	
5362	0	29020	
5363	0	29036	
5364	0	29032	
5365	0	28988	
5366	0	28938	
5367	0	28884	
5368	0	28796	
5369	0	28744	
5370	0	28664	
5371	0	28536	
5372	0	28392	
5373	0	28240	
5374	0	28060	
5375	0	27800	
5376	0	27504	
5377	0	27496	
5378	0	27768	
5379	0	28104	
5380	0	28384	
5381	0	28692	
5382	0	29024	
5383	0	29372	
5384	0	29536	
5385	0	29652	
5386	0	29712	
5387	0	29624	
5388	0	29496	
5389	0	29328	
5390	0	29152	
5391	0	29048	
5392	0	29042	
5393	0	29104	
5394	0	29212	
5395	0	29300	
5396	0	29376	
5397	0	29404	
5398	0	29384	
5399	0	29392	
5400	0	29408	
5401	0	29404	
5402	0	29300	
5403	0	29214	
5404	0	29162	
5405	0	29200	
5406	0	29388	
5407	0	29620	
5408	0	29740	
5409	0	29752	
5410	0	29736	
5411	0	29724	
5412	0	29706	
5413	0	29652	
5414	0	29642	
5415	0	29588	
5416	0	29600	
5417	0	29720	
5418	0	29868	
5419	0	30000	
5420	0	30116	
5421	0	30176	
5422	0	30144	
5423	0	30124	
5424	0	30148	
5425	0	30216	
5426	0	30332	
5427	0	30380	
5428	0	30368	
5429	0	30408	
5430	0	30484	
5431	0	30564	
5432	0	30656	
5433	0	30756	
5434	0	30778	
5435	0	30748	
5436	0	30686	
5437	0	30528	
5438	0	30344	
5439	0	30232	
5440	0	30144	
5441	0	30122	
5442	0	30156	
5443	0	30084	
5444	0	30024	
5445	0	29982	
5446	0	30084	
5447	0	30400	
5448	0	30736	
5449	0	30944	
5450	0	31032	
5451	0	31032	
5452	0	31020	
5453	0	31112	
5454	0	31264	
5455	0	31400	
5456	0	31488	
5457	0	31460	
5458	0	31348	
5459	0	31176	
5460	0	31058	
5461	0	31076	
5462	0	31104	
5463	0	31060	
5464	0	31028	
5465	0	31104	
5466	0	31216	
5467	0	31336	
5468	0	31360	
5469	0	31394	
5470	0	31450	
5471	0	31576	
5472	0	31680	
5473	0	31746	
5474	0	31794	
5475	0	31816	
5476	0	31784	
5477	0	31708	
5478	0	31616	
5479	0	31600	
5480	0	31688	
5481	0	31788	
5482	0	31724	
5483	0	31504	
5484	0	31320	
5485	0	31212	
5486	0	31328	
5487	0	31564	
5488	0	31776	
5489	0	31812	
5490	0	31728	
5491	0	31648	
5492	0	31592	
5493	0	31384	
5494	0	31116	
5495	0	30858	
5496	0	30776	
5497	0	30920	
5498	0	31192	
5499	0	31512	
5500	0	31840	
5501	0	31968	
5502	0	31976	
5503	0	31822	
5504	0	31700	
5505	0	31720	
5506	0	31828	
5507	0	31912	
5508	0	31940	
5509	0	31936	
5510	0	31964	
5511	0	31976	
5512	0	31996	
5513	0	32084	
5514	0	32148	
5515	0	32096	
5516	0	31928	
5517	0	31616	
5518	0	31370	
5519	0	31312	
5520	0	31390	
5521	0	31428	
5522	0	31444	
5523	0	31544	
5524	0	31668	
5525	0	31832	
5526	0	31920	
5527	0	31900	
5528	0	31708	
5529	0	31424	
5530	0	31132	
5531	0	30998	
5532	0	31036	
5533	0	31220	
5534	0	31404	
5535	0	31484	
5536	0	31488	
5537	0	31616	
5538	0	31904	
5539	0	32160	
5540	0	32288	
5541	0	32264	
5542	0	32168	
5543	0	31976	
5544	0	31728	
5545	0	31496	
5546	0	31426	
5547	0	31528	
5548	0	31680	
5549	0	31804	
5550	0	31870	
5551	0	31810	
5552	0	31704	
5553	0	31642	
5554	0	31596	
5555	0	31494	
5556	0	31364	
5557	0	31260	
5558	0	31092	
5559	0	31064	
5560	0	31184	
5561	0	31428	
5562	0	31748	
5563	0	32024	
5564	0	32220	
5565	0	32292	
5566	0	32284	
5567	0	32260	
5568	0	32272	
5569	0	32332	
5570	0	32324	
5571	0	32204	
5572	0	32072	
5573	0	31938	
5574	0	31792	
5575	0	31648	
5576	0	31448	
5577	0	31224	
5578	0	31096	
5579	0	31112	
5580	0	31200	
5581	0	31336	
5582	0	31492	
5583	0	31812	
5584	0	32112	
5585	0	32016	
5586	0	31724	
5587	0	31402	
5588	0	31092	
5589	0	30976	
5590	0	31140	
5591	0	31500	
5592	0	31970	
5593	0	32296	
5594	0	32478	
5595	0	32630	
5596	0	32676	
5597	0	32636	
5598	0	32472	
5599	0	32376	
5600	0	32416	
5601	0	32544	
5602	0	32648	
5603	0	32644	
5604	0	32568	
5605	0	32448	
5606	0	32356	
5607	0	32340	
5608	0	32396	
5609	0	32428	
5610	0	32405	
5611	0	32320	
5612	0	32280	
5613	0	32284	
5614	0	32188	
5615	0	32002	
5616	0	31840	
5617	0	31784	
5618	0	31872	
5619	0	31944	
5620	0	31908	
5621	0	31872	
5622	0	31960	
5623	0	32140	
5624	0	32268	
5625	0	32248	
5626	0	32196	
5627	0	32156	
5628	0	32240	
5629	0	32456	
5630	0	32644	
5631	0	32728	
5632	0	32768	
5633	0	32820	
5634	0	32964	
5635	0	33152	
5636	0	33280	
5637	0	33380	
5638	0	33408	
5639	0	33412	
5640	0	33408	
5641	0	33408	
5642	0	33378	
5643	0	33305	
5644	0	33220	
5645	0	33216	
5646	0	33296	
5647	0	33388	
5648	0	33440	
5649	0	33508	
5650	0	33524	
5651	0	33516	
5652	0	33576	
5653	0	33668	
5654	0	33808	
5655	0	33968	
5656	0	34124	
5657	0	34268	
5658	0	34444	
5659	0	34760	
5660	0	35108	
5661	0	35312	
5662	0	35420	
5663	0	35416	
5664	0	35372	
5665	0	35272	
5666	0	35109	
5667	0	34928	
5668	0	34704	
5669	0	34420	
5670	0	34260	
5671	0	34252	
5672	0	34388	
5673	0	34596	
5674	0	34780	
5675	0	34956	
5676	0	35048	
5677	0	35060	
5678	0	35024	
5679	0	35108	
5680	0	35280	
5681	0	35260	
5682	0	34976	
5683	0	34654	
5684	0	34400	
5685	0	34220	
5686	0	34164	
5687	0	34152	
5688	0	34108	
5689	0	34124	
5690	0	34210	
5691	0	34356	
5692	0	34396	
5693	0	34248	
5694	0	34000	
5695	0	33768	
5696	0	33604	
5697	0	33456	
5698	0	33252	
5699	0	32888	
5700	0	32424	
5701	0	32034	
5702	0	31808	
5703	0	31696	
5704	0	31612	
5705	0	31572	
5706	0	31576	
5707	0	31588	
5708	0	31560	
5709	0	31500	
5710	0	31456	
5711	0	31376	
5712	0	31312	
5713	0	31244	
5714	0	31136	
5715	0	31076	
5716	0	31026	
5717	0	30952	
5718	0	30972	
5719	0	31060	
5720	0	31182	
5721	0	31320	
5722	0	31436	
5723	0	31480	
5724	0	31512	
5725	0	31512	
5726	0	31456	
5727	0	31392	
5728	0	31332	
5729	0	31358	
5730	0	31516	
5731	0	31668	
5732	0	31776	
5733	0	31712	
5734	0	31566	
5735	0	31452	
5736	0	31472	
5737	0	31504	
5738	0	31604	
5739	0	31754	
5740	0	31808	
5741	0	31772	
5742	0	31642	
5743	0	31504	
5744	0	31436	
5745	0	31448	
5746	0	31468	
5747	0	31492	
5748	0	31488	
5749	0	31456	
5750	0	31460	
5751	0	31508	
5752	0	31560	
5753	0	31612	
5754	0	31624	
5755	0	31632	
5756	0	31720	
5757	0	31952	
5758	0	32224	
5759	0	32458	
5760	0	32672	
5761	0	32676	
5762	0	32460	
5763	0	32176	
5764	0	31876	
5765	0	31768	
5766	0	31920	
5767	0	32120	
5768	0	32276	
5769	0	32260	
5770	0	32074	
5771	0	31852	
5772	0	31592	
5773	0	31220	
5774	0	30840	
5775	0	30570	
5776	0	30356	
5777	0	30236	
5778	0	30236	
5779	0	30404	
5780	0	30714	
5781	0	31082	
5782	0	31536	
5783	0	31988	
5784	0	32478	
5785	0	33112	
5786	0	33832	
5787	0	34692	
5788	0	35664	
5789	0	36864	
5790	0	38488	
5791	0	40180	
5792	0	41764	
5793	0	43276	
5794	0	44848	
5795	0	46592	
5796	0	48508	
5797	0	50586	
5798	0	52680	
5799	0	54720	
5800	0	56708	
5801	0	58736	
5802	0	60736	
5803	0	62600	
5804	0	63832	
5805	0	64448	
5806	0	64716	
5807	0	64820	
5808	0	64812	
5809	0	64760	
5810	0	64080	
5811	0	60764	
5812	0	57032	
5813	0	53240	
5814	0	49532	
5815	0	45712	
5816	0	41904	
5817	0	38544	
5818	0	35680	
5819	0	33424	
5820	0	31724	
5821	0	30556	
5822	0	29724	
5823	0	28996	
5824	0	28360	
5825	0	27780	
5826	0	27212	
5827	0	26688	
5828	0	26220	
5829	0	25620	
5830	0	25016	
5831	0	24528	
5832	0	24024	
5833	0	23616	
5834	0	23445	
5835	0	23496	
5836	0	23716	
5837	0	23960	
5838	0	24274	
5839	0	24520	
5840	0	24738	
5841	0	24976	
5842	0	25252	
5843	0	25776	
5844	0	26568	
5845	0	27436	
5846	0	28200	
5847	0	28666	
5848	0	28852	
5849	0	29152	
5850	0	29542	
5851	0	30018	
5852	0	30516	
5853	0	30872	
5854	0	31036	
5855	0	31040	
5856	0	31008	
5857	0	30820	
5858	0	30624	
5859	0	30490	
5860	0	30464	
5861	0	30548	
5862	0	30796	
5863	0	30980	
5864	0	31044	
5865	0	31000	
5866	0	30974	
5867	0	31060	
5868	0	31044	
5869	0	30818	
5870	0	30700	
5871	0	30698	
5872	0	30624	
5873	0	30612	
5874	0	30688	
5875	0	30896	
5876	0	31120	
5877	0	31168	
5878	0	31224	
5879	0	31412	
5880	0	31580	
5881	0	31648	
5882	0	31660	
5883	0	31744	
5884	0	31904	
5885	0	32040	
5886	0	32040	
5887	0	31888	
5888	0	31824	
5889	0	31868	
5890	0	31940	
5891	0	31992	
5892	0	31912	
5893	0	31724	
5894	0	31502	
5895	0	31300	
5896	0	31248	
5897	0	31332	
5898	0	31424	
5899	0	31426	
5900	0	31352	
5901	0	31348	
5902	0	31528	
5903	0	31870	
5904	0	32176	
5905	0	32336	
5906	0	32456	
5907	0	32578	
5908	0	32672	
5909	0	32728	
5910	0	32720	
5911	0	32672	
5912	0	32580	
5913	0	32504	
5914	0	32564	
5915	0	32642	
5916	0	32616	
5917	0	32508	
5918	0	32432	
5919	0	32484	
5920	0	32592	
5921	0	32644	
5922	0	32604	
5923	0	32576	
5924	0	32596	
5925	0	32628	
5926	0	32628	
5927	0	32586	
5928	0	32496	
5929	0	32424	
5930	0	32372	
5931	0	32424	
5932	0	32528	
5933	0	32680	
5934	0	32760	
5935	0	32908	
5936	0	33148	
5937	0	33352	
5938	0	33528	
5939	0	33664	
5940	0	33708	
5941	0	33632	
5942	0	33568	
5943	0	33468	
5944	0	33332	
5945	0	33232	
5946	0	33208	
5947	0	33230	
5948	0	33300	
5949	0	33314	
5950	0	33304	
5951	0	33340	
5952	0	33472	
5953	0	33536	
5954	0	33652	
5955	0	33696	
5956	0	33642	
5957	0	33704	
5958	0	33852	
5959	0	33894	
5960	0	33848	
5961	0	33856	
5962	0	33938	
5963	0	34040	
5964	0	34152	
5965	0	34228	
5966	0	34298	
5967	0	34388	
5968	0	34472	
5969	0	34544	
5970	0	34636	
5971	0	34708	
5972	0	34664	
5973	0	34404	
5974	0	34112	
5975	0	33848	
5976	0	33676	
5977	0	33696	
5978	0	33900	
5979	0	34072	
5980	0	34210	
5981	0	34290	
5982	0	34380	
5983	0	34500	
5984	0	34560	
5985	0	34700	
5986	0	34970	
5987	0	35208	
5988	0	35368	
5989	0	35500	
5990	0	35668	
5991	0	35764	
5992	0	35780	
5993	0	35756	
5994	0	35696	
5995	0	35666	
5996	0	35626	
5997	0	35652	
5998	0	35672	
5999	0	35650	
6000	0	35720	
6001	0	35940	
6002	0	36060	
6003	0	35940	
6004	0	35648	
6005	0	35304	
6006	0	35184	
6007	0	35272	
6008	0	35512	
6009	0	35888	
6010	0	36224	
6011	0	36548	
6012	0	36896	
6013	0	37090	
6014	0	37032	
6015	0	36800	
6016	0	36544	
6017	0	36276	
6018	0	36076	
6019	0	35936	
6020	0	35906	
6021	0	36116	
6022	0	36504	
6023	0	36924	
6024	0	37208	
6025	0	37360	
6026	0	37492	
6027	0	37644	
6028	0	37816	
6029	0	37940	
6030	0	38028	
6031	0	37980	
6032	0	37868	
6033	0	37804	
6034	0	37720	
6035	0	37612	
6036	0	37464	
6037	0	37320	
6038	0	37168	
6039	0	37028	
6040	0	37004	
6041	0	37088	
6042	0	37228	
6043	0	37364	
6044	0	37402	
6045	0	37308	
6046	0	37172	
6047	0	37084	
6048	0	37088	
6049	0	37116	
6050	0	37172	
6051	0	37236	
6052	0	37228	
6053	0	37216	
6054	0	37176	
6055	0	37152	
6056	0	37144	
6057	0	37184	
6058	0	37280	
6059	0	37322	
6060	0	37288	
6061	0	37252	
6062	0	37112	
6063	0	36820	
6064	0	36508	
6065	0	36304	
6066	0	36180	
6067	0	36112	
6068	0	36060	
6069	0	35964	
6070	0	35780	
6071	0	35448	
6072	0	35128	
6073	0	34820	
6074	0	34624	
6075	0	34652	
6076	0	34748	
6077	0	34796	
6078	0	34842	
6079	0	34812	
6080	0	34660	
6081	0	34424	
6082	0	34220	
6083	0	34024	
6084	0	33816	
6085	0	33608	
6086	0	33384	
6087	0	33136	
6088	0	32892	
6089	0	32660	
6090	0	32352	
6091	0	31980	
6092	0	31656	
6093	0	31280	
6094	0	30868	
6095	0	30496	
6096	0	30144	
6097	0	29792	
6098	0	29504	
6099	0	29356	
6100	0	29356	
6101	0	29456	
6102	0	29642	
6103	0	29836	
6104	0	30050	
6105	0	30248	
6106	0	30424	
6107	0	30680	
6108	0	30896	
6109	0	30920	
6110	0	30716	
6111	0	30352	
6112	0	30044	
6113	0	29892	
6114	0	29792	
6115	0	29608	
6116	0	29288	
6117	0	28968	
6118	0	28728	
6119	0	28480	
6120	0	28224	
6121	0	28036	
6122	0	27976	
6123	0	28028	
6124	0	28108	
6125	0	28080	
6126	0	27952	
6127	0	27936	
6128	0	28048	
6129	0	28276	
6130	0	28596	
6131	0	28832	
6132	0	28954	
6133	0	28992	
6134	0	28984	
6135	0	28948	
6136	0	28950	
6137	0	28972	
6138	0	28896	
6139	0	28756	
6140	0	28576	
6141	0	28288	
6142	0	27936	
6143	0	27658	
6144	0	27464	
6145	0	27204	
6146	0	26972	
6147	0	27052	
6148	0	27428	
6149	0	27840	
6150	0	28124	
6151	0	28304	
6152	0	28480	
6153	0	28680	
6154	0	28968	
6155	0	29200	
6156	0	29296	
6157	0	29240	
6158	0	29136	
6159	0	29112	
6160	0	29068	
6161	0	28984	
6162	0	29016	
6163	0	29080	
6164	0	29088	
6165	0	29104	
6166	0	29068	
6167	0	29076	
6168	0	29088	
6169	0	29092	
6170	0	29036	
6171	0	28948	
6172	0	28860	
6173	0	28672	
6174	0	28444	
6175	0	28292	
6176	0	28320	
6177	0	28492	
6178	0	28724	
6179	0	28932	
6180	0	29052	
6181	0	29056	
6182	0	29068	
6183	0	29208	
6184	0	29484	
6185	0	29732	
6186	0	29940	
6187	0	30040	
6188	0	30120	
6189	0	30152	
6190	0	30192	
6191	0	30194	
6192	0	30140	
6193	0	30060	
6194	0	30048	
6195	0	29980	
6196	0	29852	
6197	0	29664	
6198	0	29444	
6199	0	29288	
6200	0	29112	
6201	0	28948	
6202	0	28888	
6203	0	28920	
6204	0	29032	
6205	0	29248	
6206	0	29300	
6207	0	29432	
6208	0	29632	
6209	0	29760	
6210	0	30016	
6211	0	30324	
6212	0	30592	
6213	0	30828	
6214	0	30948	
6215	0	30960	
6216	0	31016	
6217	0	31100	
6218	0	31230	
6219	0	31328	
6220	0	31280	
6221	0	31156	
6222	0	31016	
6223	0	30872	
6224	0	30760	
6225	0	30676	
6226	0	30716	
6227	0	30916	
6228	0	31144	
6229	0	31320	
6230	0	31456	
6231	0	31480	
6232	0	31356	
6233	0	31190	
6234	0	31100	
6235	0	31144	
6236	0	31216	
6237	0	31212	
6238	0	31116	
6239	0	30906	
6240	0	30840	
6241	0	30884	
6242	0	30952	
6243	0	31124	
6244	0	31292	
6245	0	31308	
6246	0	31384	
6247	0	31516	
6248	0	31620	
6249	0	31624	
6250	0	31612	
6251	0	31556	
6252	0	31472	
6253	0	31324	
6254	0	31128	
6255	0	31004	
6256	0	30978	
6257	0	31064	
6258	0	31204	
6259	0	31252	
6260	0	31204	
6261	0	31172	
6262	0	31216	
6263	0	31332	
6264	0	31468	
6265	0	31548	
6266	0	31600	
6267	0	31596	
6268	0	31516	
6269	0	31444	
6270	0	31480	
6271	0	31520	
6272	0	31652	
6273	0	31796	
6274	0	31792	
6275	0	31676	
6276	0	31496	
6277	0	31248	
6278	0	31008	
6279	0	30984	
6280	0	31120	
6281	0	31348	
6282	0	31672	
6283	0	32016	
6284	0	32284	
6285	0	32420	
6286	0	32420	
6287	0	32344	
6288	0	32306	
6289	0	32172	
6290	0	31960	
6291	0	31740	
6292	0	31616	
6293	0	31588	
6294	0	31688	
6295	0	31840	
6296	0	31876	
6297	0	31772	
6298	0	31632	
6299	0	31504	
6300	0	31620	
6301	0	31832	
6302	0	31972	
6303	0	32048	
6304	0	32096	
6305	0	32192	
6306	0	32332	
6307	0	32416	
6308	0	32340	
6309	0	32170	
6310	0	32064	
6311	0	31992	
6312	0	31944	
6313	0	31860	
6314	0	31738	
6315	0	31636	
6316	0	31516	
6317	0	31504	
6318	0	31600	
6319	0	31720	
6320	0	31672	
6321	0	31516	
6322	0	31350	
6323	0	31180	
6324	0	31120	
6325	0	31152	
6326	0	31188	
6327	0	31208	
6328	0	31268	
6329	0	31264	
6330	0	31384	
6331	0	31724	
6332	0	32064	
6333	0	32272	
6334	0	32368	
6335	0	32388	
6336	0	32336	
6337	0	32280	
6338	0	32248	
6339	0	32196	
6340	0	32028	
6341	0	31772	
6342	0	31568	
6343	0	31484	
6344	0	31472	
6345	0	31540	
6346	0	31656	
6347	0	31672	
6348	0	31584	
6349	0	31520	
6350	0	31488	
6351	0	31512	
6352	0	31584	
6353	0	31732	
6354	0	31840	
6355	0	31842	
6356	0	31842	
6357	0	31836	
6358	0	31824	
6359	0	31832	
6360	0	31720	
6361	0	31600	
6362	0	31588	
6363	0	31656	
6364	0	31836	
6365	0	32032	
6366	0	32192	
6367	0	32272	
6368	0	32300	
6369	0	32296	
6370	0	32336	
6371	0	32424	
6372	0	32352	
6373	0	32124	
6374	0	31964	
6375	0	31920	
6376	0	31906	
6377	0	31860	
6378	0	31908	
6379	0	32116	
6380	0	32416	
6381	0	32528	
6382	0	32500	
6383	0	32444	
6384	0	32426	
6385	0	32384	
6386	0	32344	
6387	0	32352	
6388	0	32372	
6389	0	32316	
6390	0	32272	
6391	0	32240	
6392	0	32172	
6393	0	32096	
6394	0	32040	
6395	0	31932	
6396	0	31850	
6397	0	31932	
6398	0	31976	
6399	0	31948	
6400	0	31866	
6401	0	31660	
6402	0	31476	
6403	0	31340	
6404	0	31296	
6405	0	31404	
6406	0	31680	
6407	0	32084	
6408	0	32400	
6409	0	32700	
6410	0	32948	
6411	0	33236	
6412	0	33608	
6413	0	33930	
6414	0	34106	
6415	0	34044	
6416	0	33944	
6417	0	33828	
6418	0	33696	
6419	0	33654	
6420	0	33672	
6421	0	33724	
6422	0	33836	
6423	0	33878	
6424	0	33670	
6425	0	33400	
6426	0	33278	
6427	0	33328	
6428	0	33516	
6429	0	33654	
6430	0	33808	
6431	0	34032	
6432	0	34236	
6433	0	34280	
6434	0	34280	
6435	0	34424	
6436	0	34716	
6437	0	34960	
6438	0	35100	
6439	0	35100	
6440	0	35052	
6441	0	35128	
6442	0	35316	
6443	0	35452	
6444	0	35488	
6445	0	35468	
6446	0	35340	
6447	0	35272	
6448	0	35250	
6449	0	35248	
6450	0	35288	
6451	0	35344	
6452	0	35336	
6453	0	35288	
6454	0	35248	
6455	0	35268	
6456	0	35352	
6457	0	35396	
6458	0	35444	
6459	0	35468	
6460	0	35464	
6461	0	35406	
6462	0	35348	
6463	0	35280	
6464	0	35168	
6465	0	34892	
6466	0	34464	
6467	0	34022	
6468	0	33688	
6469	0	33392	
6470	0	33184	
6471	0	33068	
6472	0	33004	
6473	0	32968	
6474	0	32964	
6475	0	32886	
6476	0	32564	
6477	0	32096	
6478	0	31632	
6479	0	31236	
6480	0	31072	
6481	0	31200	
6482	0	31452	
6483	0	31716	
6484	0	31836	
6485	0	31816	
6486	0	31760	
6487	0	31724	
6488	0	31712	
6489	0	31628	
6490	0	31552	
6491	0	31484	
6492	0	31416	
6493	0	31404	
6494	0	31360	
6495	0	31242	
6496	0	31136	
6497	0	31152	
6498	0	31312	
6499	0	31408	
6500	0	31284	
6501	0	30956	
6502	0	30680	
6503	0	30552	
6504	0	30616	
6505	0	30768	
6506	0	30962	
6507	0	31140	
6508	0	31160	
6509	0	31162	
6510	0	31298	
6511	0	31580	
6512	0	31920	
6513	0	32120	
6514	0	32072	
6515	0	31880	
6516	0	31776	
6517	0	31712	
6518	0	31640	
6519	0	31604	
6520	0	31660	
6521	0	31732	
6522	0	31744	
6523	0	31632	
6524	0	31516	
6525	0	31512	
6526	0	31672	
6527	0	31836	
6528	0	31896	
6529	0	31888	
6530	0	31862	
6531	0	31944	
6532	0	31964	
6533	0	31908	
6534	0	31844	
6535	0	31882	
6536	0	31984	
6537	0	32160	
6538	0	32296	
6539	0	32276	
6540	0	32212	
6541	0	32240	
6542	0	32272	
6543	0	32252	
6544	0	32238	
6545	0	32160	
6546	0	32040	
6547	0	31964	
6548	0	31816	
6549	0	31472	
6550	0	31048	
6551	0	30514	
6552	0	29964	
6553	0	29624	
6554	0	29548	
6555	0	29644	
6556	0	29864	
6557	0	30234	
6558	0	30784	
6559	0	31418	
6560	0	31912	
6561	0	32524	
6562	0	33424	
6563	0	34444	
6564	0	35644	
6565	0	37060	
6566	0	38648	
6567	0	40244	
6568	0	41828	
6569	0	43448	
6570	0	45204	
6571	0	47100	
6572	0	48896	
6573	0	50796	
6574	0	52832	
6575	0	54900	
6576	0	57068	
6577	0	59328	
6578	0	61612	
6579	0	63284	
6580	0	64176	
6581	0	64576	
6582	0	64768	
6583	0	64788	
6584	0	64752	
6585	0	64680	
6586	0	64576	
6587	0	62816	
6588	0	58556	
6589	0	54492	
6590	0	50512	
6591	0	46416	
6592	0	42304	
6593	0	38600	
6594	0	35373	
6595	0	32656	
6596	0	30380	
6597	0	28528	
6598	0	27096	
6599	0	26084	
6600	0	25472	
6601	0	25064	
6602	0	24684	
6603	0	24346	
6604	0	24006	
6605	0	23772	
6606	0	23492	
6607	0	23268	
6608	0	23256	
6609	0	23372	
6610	0	23446	
6611	0	23588	
6612	0	23792	
6613	0	24128	
6614	0	24666	
6615	0	25276	
6616	0	26048	
6617	0	26776	
6618	0	27356	
6619	0	27994	
6620	0	28488	
6621	0	28780	
6622	0	28962	
6623	0	29100	
6624	0	29360	
6625	0	29684	
6626	0	29980	
6627	0	30256	
6628	0	30496	
6629	0	30696	
6630	0	30928	
6631	0	31126	
6632	0	31160	
6633	0	31184	
6634	0	31324	
6635	0	31328	
6636	0	31212	
6637	0	31008	
6638	0	30716	
6639	0	30388	
6640	0	30148	
6641	0	30060	
6642	0	30096	
6643	0	30264	
6644	0	30552	
6645	0	30772	
6646	0	30920	
6647	0	31020	
6648	0	31084	
6649	0	31104	
6650	0	31180	
6651	0	31220	
6652	0	31098	
6653	0	30824	
6654	0	30528	
6655	0	30264	
6656	0	30068	
6657	0	30152	
6658	0	30448	
6659	0	30804	
6660	0	31060	
6661	0	31176	
6662	0	31392	
6663	0	31736	
6664	0	32036	
6665	0	32300	
6666	0	32356	
6667	0	32288	
6668	0	32172	
6669	0	31968	
6670	0	31820	
6671	0	31780	
6672	0	31840	
6673	0	31905	
6674	0	31864	
6675	0	31680	
6676	0	31392	
6677	0	31124	
6678	0	30992	
6679	0	31008	
6680	0	31048	
6681	0	31204	
6682	0	31432	
6683	0	31492	
6684	0	31400	
6685	0	31416	
6686	0	31616	
6687	0	31932	
6688	0	32216	
6689	0	32380	
6690	0	32468	
6691	0	32590	
6692	0	32704	
6693	0	32804	
6694	0	32976	
6695	0	33144	
6696	0	33220	
6697	0	33312	
6698	0	33232	
6699	0	33008	
6700	0	32884	
6701	0	32818	
6702	0	32770	
6703	0	32728	
6704	0	32696	
6705	0	32612	
6706	0	32568	
6707	0	32584	
6708	0	32644	
6709	0	32672	
6710	0	32620	
6711	0	32580	
6712	0	32652	
6713	0	32728	
6714	0	32800	
6715	0	32848	
6716	0	32956	
6717	0	32990	
6718	0	32988	
6719	0	32976	
6720	0	32996	
6721	0	32880	
6722	0	32712	
6723	0	32640	
6724	0	32680	
6725	0	32884	
6726	0	33244	
6727	0	33592	
6728	0	33834	
6729	0	33916	
6730	0	33930	
6731	0	33972	
6732	0	33988	
6733	0	33864	
6734	0	33628	
6735	0	33380	
6736	0	33410	
6737	0	33656	
6738	0	33872	
6739	0	34020	
6740	0	34200	
6741	0	34336	
6742	0	34370	
6743	0	34346	
6744	0	34296	
6745	0	34200	
6746	0	34084	
6747	0	34012	
6748	0	34008	
6749	0	34128	
6750	0	34276	
6751	0	34496	
6752	0	34716	
6753	0	34872	
6754	0	34876	
6755	0	34852	
6756	0	34784	
6757	0	34632	
6758	0	34504	
6759	0	34310	
6760	0	34092	
6761	0	34168	
6762	0	34404	
6763	0	34756	
6764	0	35084	
6765	0	35308	
6766	0	35480	
6767	0	35576	
6768	0	35600	
6769	0	35596	
6770	0	35582	
6771	0	35724	
6772	0	35972	
6773	0	36128	
6774	0	36136	
6775	0	36096	
6776	0	35956	
6777	0	35780	
6778	0	35784	
6779	0	35896	
6780	0	36056	
6781	0	36240	
6782	0	36420	
6783	0	36588	
6784	0	36768	
6785	0	36900	
6786	0	36972	
6787	0	37068	
6788	0	37124	
6789	0	37116	
6790	0	37060	
6791	0	37084	
6792	0	37152	
6793	0	37186	
6794	0	37164	
6795	0	37152	
6796	0	37136	
6797	0	37120	
6798	0	37084	
6799	0	37024	
6800	0	36960	
6801	0	36936	
6802	0	37080	
6803	0	37320	
6804	0	37524	
6805	0	37616	
6806	0	37600	
6807	0	37528	
6808	0	37432	
6809	0	37396	
6810	0	37408	
6811	0	37404	
6812	0	37408	
6813	0	37452	
6814	0	37616	
6815	0	37788	
6816	0	37876	
6817	0	37844	
6818	0	37664	
6819	0	37456	
6820	0	37264	
6821	0	37136	
6822	0	37120	
6823	0	37196	
6824	0	37296	
6825	0	37392	
6826	0	37480	
6827	0	37512	
6828	0	37496	
6829	0	37324	
6830	0	37168	
6831	0	37184	
6832	0	37268	
6833	0	37400	
6834	0	37526	
6835	0	37504	
6836	0	37268	
6837	0	36800	
6838	0	36424	
6839	0	36176	
6840	0	36176	
6841	0	36312	
6842	0	36400	
6843	0	36532	
6844	0	36616	
6845	0	36632	
6846	0	36656	
6847	0	36572	
6848	0	36336	
6849	0	36064	
6850	0	35844	
6851	0	35664	
6852	0	35440	
6853	0	35176	
6854	0	34936	
6855	0	34672	
6856	0	34368	
6857	0	34032	
6858	0	33704	
6859	0	33380	
6860	0	33020	
6861	0	32752	
6862	0	32588	
6863	0	32494	
6864	0	32464	
6865	0	32316	
6866	0	32148	
6867	0	32106	
6868	0	32080	
6869	0	31938	
6870	0	31642	
6871	0	31360	
6872	0	31082	
6873	0	30900	
6874	0	30888	
6875	0	30960	
6876	0	30898	
6877	0	30680	
6878	0	30252	
6879	0	29714	
6880	0	29252	
6881	0	28984	
6882	0	28990	
6883	0	29144	
6884	0	29244	
6885	0	29466	
6886	0	29768	
6887	0	29996	
6888	0	30104	
6889	0	30104	
6890	0	29932	
6891	0	29628	
6892	0	29376	
6893	0	29104	
6894	0	28792	
6895	0	28492	
6896	0	28360	
6897	0	28340	
6898	0	28312	
6899	0	28324	
6900	0	28480	
6901	0	28600	
6902	0	28605	
6903	0	28608	
6904	0	28648	
6905	0	28560	
6906	0	28512	
6907	0	28488	
6908	0	28480	
6909	0	28576	
6910	0	28672	
6911	0	28656	
6912	0	28616	
6913	0	28517	
6914	0	28320	
6915	0	28228	
6916	0	28208	
6917	0	28096	
6918	0	27692	
6919	0	27236	
6920	0	26872	
6921	0	26780	
6922	0	27024	
6923	0	27432	
6924	0	27912	
6925	0	28360	
6926	0	28660	
6927	0	29012	
6928	0	29380	
6929	0	29628	
6930	0	29696	
6931	0	29652	
6932	0	29620	
6933	0	29596	
6934	0	29536	
6935	0	29440	
6936	0	29354	
6937	0	29268	
6938	0	29152	
6939	0	28860	
6940	0	28524	
6941	0	28172	
6942	0	27904	
6943	0	27840	
6944	0	28192	
6945	0	28656	
6946	0	28976	
6947	0	29084	
6948	0	29068	
6949	0	29120	
6950	0	29308	
6951	0	29552	
6952	0	29660	
6953	0	29586	
6954	0	29368	
6955	0	29232	
6956	0	29268	
6957	0	29352	
6958	0	29396	
6959	0	29324	
6960	0	29200	
6961	0	29116	
6962	0	29178	
6963	0	29360	
6964	0	29624	
6965	0	29868	
6966	0	30080	
6967	0	30244	
6968	0	30240	
6969	0	30224	
6970	0	30252	
6971	0	30296	
6972	0	30376	
6973	0	30348	
6974	0	30230	
6975	0	30132	
6976	0	30108	
6977	0	30024	
6978	0	29688	
6979	0	29280	
6980	0	28960	
6981	0	28832	
6982	0	29128	
6983	0	29672	
6984	0	30140	
6985	0	30480	
6986	0	30664	
6987	0	30744	
6988	0	30788	
6989	0	30810	
6990	0	30688	
6991	0	30368	
6992	0	29960	
6993	0	29760	
6994	0	29884	
6995	0	30144	
6996	0	30464	
6997	0	30760	
6998	0	31076	
6999	0	31308	
7000	0	31416	
7001	0	31408	
7002	0	31272	
7003	0	31112	
7004	0	31016	
7005	0	31028	
7006	0	31064	
7007	0	31080	
7008	0	31100	
7009	0	31192	
7010	0	31380	
7011	0	31500	
7012	0	31520	
7013	0	31452	
7014	0	31364	
7015	0	31316	
7016	0	31296	
7017	0	31260	
7018	0	31166	
7019	0	30954	
7020	0	30808	
7021	0	30756	
7022	0	30756	
7023	0	30872	
7024	0	31080	
7025	0	31326	
7026	0	31536	
7027	0	31604	
7028	0	31564	
7029	0	31440	
7030	0	31264	
7031	0	31136	
7032	0	31040	
7033	0	31052	
7034	0	31060	
7035	0	31108	
7036	0	31392	
7037	0	31742	
7038	0	32072	
7039	0	32300	
7040	0	32360	
7041	0	32344	
7042	0	32248	
7043	0	32174	
7044	0	32200	
7045	0	32200	
7046	0	32100	
7047	0	31898	
7048	0	31692	
7049	0	31548	
7050	0	31384	
7051	0	31228	
7052	0	31214	
7053	0	31498	
7054	0	31792	
7055	0	31934	
7056	0	31900	
7057	0	31864	
7058	0	31848	
7059	0	31880	
7060	0	32038	
7061	0	32104	
7062	0	32068	
7063	0	32000	
7064	0	31880	
7065	0	31792	
7066	0	31756	
7067	0	31848	
7068	0	31972	
7069	0	32000	
7070	0	31976	
7071	0	31944	
7072	0	31808	
7073	0	31616	
7074	0	31540	
7075	0	31512	
7076	0	31532	
7077	0	31584	
7078	0	31662	
7079	0	31680	
7080	0	31632	
7081	0	31676	
7082	0	31802	
7083	0	31924	
7084	0	31884	
7085	0	31828	
7086	0	31840	
7087	0	31820	
7088	0	31848	
7089	0	31960	
7090	0	32024	
7091	0	32084	
7092	0	32100	
7093	0	32044	
7094	0	32028	
7095	0	32120	
7096	0	32248	
7097	0	32220	
7098	0	32160	
7099	0	32060	
7100	0	31848	
7101	0	31620	
7102	0	31512	
7103	0	31560	
7104	0	31634	
7105	0	31740	
7106	0	31812	
7107	0	31800	
7108	0	31736	
7109	0	31636	
7110	0	31672	
7111	0	31832	
7112	0	31984	
7113	0	32048	
7114	0	32132	
7115	0	32148	
7116	0	32100	
7117	0	32084	
7118	0	32000	
7119	0	31904	
7120	0	31864	
7121	0	31896	
7122	0	31964	
7123	0	32060	
7124	0	32116	
7125	0	32176	
7126	0	32280	
7127	0	32364	
7128	0	32356	
7129	0	32322	
7130	0	32172	
7131	0	31832	
7132	0	31516	
7133	0	31332	
7134	0	31384	
7135	0	31601	
7136	0	31778	
7137	0	31876	
7138	0	31864	
7139	0	31810	
7140	0	31808	
7141	0	31832	
7142	0	31876	
7143	0	31924	
7144	0	31932	
7145	0	31928	
7146	0	31968	
7147	0	32004	
7148	0	32000	
7149	0	31926	
7150	0	31832	
7151	0	31712	
7152	0	31712	
7153	0	31948	
7154	0	32132	
7155	0	32244	
7156	0	32344	
7157	0	32338	
7158	0	32164	
7159	0	32044	
7160	0	31980	
7161	0	31936	
7162	0	31824	
7163	0	31716	
7164	0	31588	
7165	0	31496	
7166	0	31328	
7167	0	31256	
7168	0	31380	
7169	0	31604	
7170	0	31916	
7171	0	32248	
7172	0	32424	
7173	0	32476	
7174	0	32504	
7175	0	32544	
7176	0	32616	
7177	0	32692	
7178	0	32700	
7179	0	32676	
7180	0	32642	
7181	0	32600	
7182	0	32516	
7183	0	32420	
7184	0	32306	
7185	0	32268	
7186	0	32256	
7187	0	32276	
7188	0	32304	
7189	0	32256	
7190	0	32200	
7191	0	32192	
7192	0	32162	
7193	0	32104	
7194	0	32080	
7195	0	32064	
7196	0	32002	
7197	0	31864	
7198	0	31556	
7199	0	31040	
7200	0	30652	
7201	0	30620	
7202	0	30896	
7203	0	31476	
7204	0	31920	
7205	0	32256	
7206	0	32508	
7207	0	32776	
7208	0	33116	
7209	0	33396	
7210	0	33512	
7211	0	33525	
7212	0	33464	
7213	0	33376	
7214	0	33336	
7215	0	33358	
7216	0	33504	
7217	0	33768	
7218	0	33964	
7219	0	33992	
7220	0	33864	
7221	0	33592	
7222	0	33364	
7223	0	33193	
7224	0	33028	
7225	0	33020	
7226	0	32972	
7227	0	32856	
7228	0	32852	
7229	0	32972	
7230	0	33128	
7231	0	33250	
7232	0	33384	
7233	0	33536	
7234	0	33736	
7235	0	34056	
7236	0	34440	
7237	0	34776	
7238	0	35024	
7239	0	35224	
7240	0	35200	
7241	0	35018	
7242	0	34768	
7243	0	34572	
7244	0	34592	
7245	0	34664	
7246	0	34520	
7247	0	34404	
7248	0	34508	
7249	0	34772	
7250	0	35020	
7251	0	35326	
7252	0	35576	
7253	0	35722	
7254	0	35840	
7255	0	35984	
7256	0	36088	
7257	0	36176	
7258	0	36192	
7259	0	36144	
7260	0	36044	
7261	0	35888	
7262	0	35672	
7263	0	35464	
7264	0	35376	
7265	0	35312	
7266	0	35228	
7267	0	35040	
7268	0	34832	
7269	0	34656	
7270	0	34416	
7271	0	34088	
7272	0	33728	
7273	0	33422	
7274	0	33212	
7275	0	33262	
7276	0	33420	
7277	0	33524	
7278	0	33588	
7279	0	33568	
7280	0	33444	
7281	0	33152	
7282	0	32740	
7283	0	32344	
7284	0	32064	
7285	0	31794	
7286	0	31596	
7287	0	31440	
7288	0	31344	
7289	0	31396	
7290	0	31508	
7291	0	31536	
7292	0	31480	
7293	0	31388	
7294	0	31192	
7295	0	30956	
7296	0	30826	
7297	0	30746	
7298	0	30748	
7299	0	30756	
7300	0	30716	
7301	0	30804	
7302	0	31034	
7303	0	31218	
7304	0	31276	
7305	0	31212	
7306	0	31188	
7307	0	31320	
7308	0	31472	
7309	0	31428	
7310	0	31384	
7311	0	31400	
7312	0	31480	
7313	0	31496	
7314	0	31348	
7315	0	31116	
7316	0	30896	
7317	0	30804	
7318	0	30680	
7319	0	30652	
7320	0	30704	
7321	0	31032	
7322	0	31456	
7323	0	31584	
7324	0	31520	
7325	0	31544	
7326	0	31640	
7327	0	31760	
7328	0	31852	
7329	0	31996	
7330	0	32208	
7331	0	32364	
7332	0	32308	
7333	0	32096	
7334	0	31892	
7335	0	31724	
7336	0	31744	
7337	0	31856	
7338	0	32016	
7339	0	32140	
7340	0	32196	
7341	0	32256	
7342	0	32248	
7343	0	32076	
7344	0	31808	
7345	0	31632	
7346	0	31572	
7347	0	31544	
7348	0	31656	
7349	0	31904	
7350	0	32148	
7351	0	32236	
7352	0	32036	
7353	0	31840	
7354	0	31816	
7355	0	31744	
7356	0	31534	
7357	0	31274	
7358	0	31004	
7359	0	30704	
7360	0	30474	
7361	0	30480	
7362	0	30662	
7363	0	30908	
7364	0	31216	
7365	0	31712	
7366	0	32380	
7367	0	33098	
7368	0	33892	
7369	0	34772	
7370	0	35696	
7371	0	36716	
7372	0	37944	
7373	0	39392	
7374	0	40948	
7375	0	42462	
7376	0	44064	
7377	0	45752	
7378	0	47288	
7379	0	48828	
7380	0	50672	
7381	0	52736	
7382	0	55028	
7383	0	57408	
7384	0	59756	
7385	0	62028	
7386	0	63456	
7387	0	64180	
7388	0	64518	
7389	0	64652	
7390	0	64648	
7391	0	64592	
7392	0	64512	
7393	0	64420	
7394	0	61248	
7395	0	56948	
7396	0	52788	
7397	0	48624	
7398	0	44372	
7399	0	40332	
7400	0	36832	
7401	0	33864	
7402	0	31184	
7403	0	28778	
7404	0	26852	
7405	0	25298	
7406	0	24266	
7407	0	23760	
7408	0	23452	
7409	0	23216	
7410	0	23090	
7411	0	23012	
7412	0	22960	
7413	0	22852	
7414	0	22784	
7415	0	22814	
7416	0	23046	
7417	0	23384	
7418	0	23760	
7419	0	24184	
7420	0	24730	
7421	0	25472	
7422	0	26444	
7423	0	27404	
7424	0	28336	
7425	0	29168	
7426	0	29712	
7427	0	29984	
7428	0	29964	
7429	0	29808	
7430	0	29744	
7431	0	29740	
7432	0	29712	
7433	0	29642	
7434	0	29556	
7435	0	29478	
7436	0	29516	
7437	0	29744	
7438	0	30108	
7439	0	30448	
7440	0	30738	
7441	0	31024	
7442	0	31244	
7443	0	31342	
7444	0	31340	
7445	0	31284	
7446	0	31196	
7447	0	30940	
7448	0	30586	
7449	0	30312	
7450	0	30224	
7451	0	30512	
7452	0	30876	
7453	0	30940	
7454	0	30836	
7455	0	30680	
7456	0	30500	
7457	0	30384	
7458	0	30400	
7459	0	30516	
7460	0	30712	
7461	0	30948	
7462	0	31076	
7463	0	31076	
7464	0	31144	
7465	0	31218	
7466	0	31248	
7467	0	31226	
7468	0	31004	
7469	0	30844	
7470	0	30780	
7471	0	30892	
7472	0	31252	
7473	0	31604	
7474	0	31696	
7475	0	31608	
7476	0	31540	
7477	0	31596	
7478	0	31768	
7479	0	31840	
7480	0	31844	
7481	0	31836	
7482	0	31712	
7483	0	31568	
7484	0	31440	
7485	0	31372	
7486	0	31412	
7487	0	31460	
7488	0	31588	
7489	0	31808	
7490	0	32096	
7491	0	32340	
7492	0	32512	
7493	0	32592	
7494	0	32568	
7495	0	32496	
7496	0	32386	
7497	0	32324	
7498	0	32240	
7499	0	32184	
7500	0	32168	
7501	0	32098	
7502	0	32064	
7503	0	32080	
7504	0	32130	
7505	0	32212	
7506	0	32316	
7507	0	32380	
7508	0	32488	
7509	0	32612	
7510	0	32768	
7511	0	32940	
7512	0	33072	
7513	0	33084	
7514	0	33024	
7515	0	32928	
7516	0	32824	
7517	0	32768	
7518	0	32772	
7519	0	32836	
7520	0	32908	
7521	0	33016	
7522	0	33140	
7523	0	33154	
7524	0	33072	
7525	0	32836	
7526	0	32568	
7527	0	32540	
7528	0	32736	
7529	0	32932	
7530	0	33016	
7531	0	32996	
7532	0	33026	
7533	0	33096	
7534	0	33064	
7535	0	33000	
7536	0	33064	
7537	0	33216	
7538	0	33472	
7539	0	33770	
7540	0	33952	
7541	0	33980	
7542	0	33928	
7543	0	33882	
7544	0	33892	
7545	0	33888	
7546	0	33980	
7547	0	34264	
7548	0	34456	
7549	0	34528	
7550	0	34612	
7551	0	34764	
7552	0	34776	
7553	0	34684	
7554	0	34576	
7555	0	34408	
7556	0	34088	
7557	0	33782	
7558	0	33576	
7559	0	33512	
7560	0	33700	
7561	0	34108	
7562	0	34440	
7563	0	34672	
7564	0	34820	
7565	0	34904	
7566	0	34920	
7567	0	34832	
7568	0	34824	
7569	0	34944	
7570	0	35196	
7571	0	35400	
7572	0	35448	
7573	0	35376	
7574	0	35308	
7575	0	35312	
7576	0	35348	
7577	0	35356	
7578	0	35424	
7579	0	35464	
7580	0	35504	
7581	0	35580	
7582	0	35732	
7583	0	35840	
7584	0	35908	
7585	0	35956	
7586	0	35980	
7587	0	36104	
7588	0	36244	
7589	0	36328	
7590	0	36468	
7591	0	36480	
7592	0	36368	
7593	0	36228	
7594	0	36240	
7595	0	36400	
7596	0	36604	
7597	0	36856	
7598	0	37040	
7599	0	37200	
7600	0	37382	
7601	0	37544	
7602	0	37732	
7603	0	37848	
7604	0	37828	
7605	0	37664	
7606	0	37388	
7607	0	37080	
7608	0	36952	
7609	0	36976	
7610	0	37162	
7611	0	37452	
7612	0	37748	
7613	0	37888	
7614	0	37828	
7615	0	37644	
7616	0	37404	
7617	0	37296	
7618	0	37312	
7619	0	37288	
7620	0	37224	
7621	0	37222	
7622	0	37452	
7623	0	37740	
7624	0	37716	
7625	0	37418	
7626	0	37180	
7627	0	37100	
7628	0	37304	
7629	0	37800	
7630	0	38312	
7631	0	38596	
7632	0	38568	
7633	0	38488	
7634	0	38448	
7635	0	38484	
7636	0	38552	
7637	0	38508	
7638	0	38352	
7639	0	38280	
7640	0	38324	
7641	0	38420	
7642	0	38396	
7643	0	38228	
7644	0	37956	
7645	0	37632	
7646	0	37248	
7647	0	36932	
7648	0	36768	
7649	0	36688	
7650	0	36544	
7651	0	36400	
7652	0	36176	
7653	0	35980	
7654	0	35976	
7655	0	36008	
7656	0	35896	
7657	0	35704	
7658	0	35508	
7659	0	35400	
7660	0	35388	
7661	0	35364	
7662	0	35200	
7663	0	34856	
7664	0	34480	
7665	0	34096	
7666	0	33900	
7667	0	33920	
7668	0	33840	
7669	0	33584	
7670	0	33210	
7671	0	32880	
7672	0	32764	
7673	0	32744	
7674	0	32524	
7675	0	32128	
7676	0	31744	
7677	0	31336	
7678	0	30908	
7679	0	30532	
7680	0	30256	
7681	0	30024	
7682	0	29744	
7683	0	29528	
7684	0	29392	
7685	0	29292	
7686	0	29288	
7687	0	29376	
7688	0	29560	
7689	0	29828	
7690	0	30064	
7691	0	30184	
7692	0	30112	
7693	0	29988	
7694	0	29864	
7695	0	29772	
7696	0	29680	
7697	0	29530	
7698	0	29272	
7699	0	28992	
7700	0	28792	
7701	0	28728	
7702	0	28730	
7703	0	28720	
7704	0	28716	
7705	0	28680	
7706	0	28610	
7707	0	28516	
7708	0	28500	
7709	0	28484	
7710	0	28472	
7711	0	28304	
7712	0	27962	
7713	0	27584	
7714	0	27206	
7715	0	26956	
7716	0	26964	
7717	0	27300	
7718	0	27836	
7719	0	28328	
7720	0	28712	
7721	0	28946	
7722	0	29084	
7723	0	29162	
7724	0	29128	
7725	0	28984	
7726	0	28820	
7727	0	28728	
7728	0	28572	
7729	0	28408	
7730	0	28248	
7731	0	28108	
7732	0	28104	
7733	0	28044	
7734	0	27712	
7735	0	27332	
7736	0	27140	
7737	0	27231	
7738	0	27520	
7739	0	27828	
7740	0	28100	
7741	0	28348	
7742	0	28556	
7743	0	28788	
7744	0	28940	
7745	0	29116	
7746	0	29348	
7747	0	29472	
7748	0	29488	
7749	0	29440	
7750	0	29344	
7751	0	29200	
7752	0	29068	
7753	0	29040	
7754	0	29188	
7755	0	29367	
7756	0	29452	
7757	0	29508	
7758	0	29498	
7759	0	29344	
7760	0	29128	
7761	0	28942	
7762	0	28920	
7763	0	29006	
7764	0	29060	
7765	0	29192	
7766	0	29296	
7767	0	29268	
7768	0	29294	
7769	0	29364	
7770	0	29456	
7771	0	29474	
7772	0	29436	
7773	0	29448	
7774	0	29492	
7775	0	29580	
7776	0	29636	
7777	0	29576	
7778	0	29496	
7779	0	29516	
7780	0	29656	
7781	0	29788	
7782	0	29806	
7783	0	29736	
7784	0	29658	
7785	0	29588	
7786	0	29508	
7787	0	29484	
7788	0	29588	
7789	0	29780	
7790	0	30020	
7791	0	30296	
7792	0	30478	
7793	0	30524	
7794	0	30432	
7795	0	30236	
7796	0	29886	
7797	0	29462	
7798	0	29360	
7799	0	29560	
7800	0	29948	
7801	0	30340	
7802	0	30444	
7803	0	30426	
7804	0	30456	
7805	0	30624	
7806	0	30880	
7807	0	31104	
7808	0	31248	
7809	0	31272	
7810	0	31216	
7811	0	31132	
7812	0	31024	
7813	0	30972	
7814	0	31002	
7815	0	31000	
7816	0	30912	
7817	0	30764	
7818	0	30600	
7819	0	30472	
7820	0	30478	
7821	0	30548	
7822	0	30612	
7823	0	30780	
7824	0	30980	
7825	0	31092	
7826	0	31120	
7827	0	31188	
7828	0	31164	
7829	0	31072	
7830	0	31042	
7831	0	30936	
7832	0	30840	
7833	0	30842	
7834	0	30896	
7835	0	30972	
7836	0	31080	
7837	0	31288	
7838	0	31540	
7839	0	31760	
7840	0	31872	
7841	0	31796	
7842	0	31656	
7843	0	31490	
7844	0	31336	
7845	0	31216	
7846	0	31102	
7847	0	30928	
7848	0	30720	
7849	0	30488	
7850	0	30452	
7851	0	30588	
7852	0	30688	
7853	0	30680	
7854	0	30440	
7855	0	30304	
7856	0	30424	
7857	0	30788	
7858	0	31332	
7859	0	31784	
7860	0	32022	
7861	0	32296	
7862	0	32512	
7863	0	32612	
7864	0	32584	
7865	0	32504	
7866	0	32424	
7867	0	32338	
7868	0	32288	
7869	0	32226	
7870	0	32134	
7871	0	31976	
7872	0	31802	
7873	0	31660	
7874	0	31482	
7875	0	31324	
7876	0	31260	
7877	0	31392	
7878	0	31552	
7879	0	31596	
7880	0	31540	
7881	0	31468	
7882	0	31484	
7883	0	31600	
7884	0	31652	
7885	0	31588	
7886	0	31488	
7887	0	31330	
7888	0	31204	
7889	0	31084	
7890	0	30996	
7891	0	30932	
7892	0	30890	
7893	0	31028	
7894	0	31186	
7895	0	31320	
7896	0	31512	
7897	0	31656	
7898	0	31768	
7899	0	31808	
7900	0	31678	
7901	0	31408	
7902	0	31216	
7903	0	31118	
7904	0	31160	
7905	0	31300	
7906	0	31480	
7907	0	31606	
7908	0	31540	
7909	0	31536	
7910	0	31712	
7911	0	31984	
7912	0	32100	
7913	0	32064	
7914	0	31954	
7915	0	31800	
7916	0	31588	
7917	0	31516	
7918	0	31536	
7919	0	31624	
7920	0	31768	
7921	0	31920	
7922	0	32072	
7923	0	32184	
7924	0	32176	
7925	0	32100	
7926	0	31996	
7927	0	31944	
7928	0	32008	
7929	0	31988	
7930	0	31864	
7931	0	31684	
7932	0	31444	
7933	0	31332	
7934	0	31418	
7935	0	31652	
7936	0	31844	
7937	0	31928	
7938	0	32032	
7939	0	32156	
7940	0	32224	
7941	0	32232	
7942	0	32172	
7943	0	32020	
7944	0	31796	
7945	0	31640	
7946	0	31644	
7947	0	31724	
7948	0	31744	
7949	0	31740	
7950	0	31812	
7951	0	31900	
7952	0	31912	
7953	0	31880	
7954	0	31744	
7955	0	31600	
7956	0	31596	
7957	0	31736	
7958	0	31930	
7959	0	31904	
7960	0	31624	
7961	0	31384	
7962	0	31168	
7963	0	31104	
7964	0	31098	
7965	0	31200	
7966	0	31380	
7967	0	31448	
7968	0	31554	
7969	0	31776	
7970	0	31968	
7971	0	32116	
7972	0	32228	
7973	0	32260	
7974	0	32244	
7975	0	32172	
7976	0	32168	
7977	0	32224	
7978	0	32320	
7979	0	32388	
7980	0	32404	
7981	0	32336	
7982	0	32172	
7983	0	31920	
7984	0	31760	
7985	0	31712	
7986	0	31852	
7987	0	32064	
7988	0	32216	
7989	0	32332	
7990	0	32356	
7991	0	32348	
7992	0	32380	
7993	0	32424	
7994	0	32414	
7995	0	32364	
7996	0	32240	
7997	0	32144	
7998	0	32080	
7999	0	31980	
8000	0	31952	
8001	0	32008	
8002	0	32040	
8003	0	32036	
8004	0	32012	
8005	0	31988	
8006	0	32072	
8007	0	32188	
8008	0	32312	
8009	0	32308	
8010	0	32120	
8011	0	31820	
8012	0	31592	
8013	0	31576	
8014	0	31764	
8015	0	32004	
8016	0	32204	
8017	0	32248	
8018	0	32224	
8019	0	32188	
8020	0	32040	
8021	0	31840	
8022	0	31694	
8023	0	31820	
8024	0	32132	
8025	0	32424	
8026	0	32602	
8027	0	32618	
8028	0	32640	
8029	0	32660	
8030	0	32634	
8031	0	32608	
8032	0	32620	
8033	0	32672	
8034	0	32640	
8035	0	32560	
8036	0	32632	
8037	0	32656	
8038	0	32528	
8039	0	32388	
8040	0	32332	
8041	0	32360	
8042	0	32288	
8043	0	32224	
8044	0	32244	
8045	0	32308	
8046	0	32304	
8047	0	32156	
8048	0	31836	
8049	0	31608	
8050	0	31620	
8051	0	31824	
8052	0	32160	
8053	0	32536	
8054	0	32816	
8055	0	32960	
8056	0	33010	
8057	0	33032	
8058	0	33040	
8059	0	33048	
8060	0	33016	
8061	0	32956	
8062	0	32800	
8063	0	32640	
8064	0	32524	
8065	0	32444	
8066	0	32304	
8067	0	32144	
8068	0	31976	
8069	0	31764	
8070	0	31656	
8071	0	31760	
8072	0	32090	
8073	0	32420	
8074	0	32540	
8075	0	32548	
8076	0	32608	
8077	0	32628	
8078	0	32640	
8079	0	32764	
8080	0	32900	
8081	0	32930	
8082	0	32856	
8083	0	32704	
8084	0	32580	
8085	0	32580	
8086	0	32508	
8087	0	32456	
8088	0	32542	
8089	0	32716	
8090	0	32944	
8091	0	33192	
8092	0	33404	
8093	0	33458	
8094	0	33352	
8095	0	33208	
8096	0	33092	
8097	0	32986	
8098	0	32968	
8099	0	33048	
8100	0	33168	
8101	0	33196	
8102	0	33156	
8103	0	33120	
8104	0	33120	
8105	0	33162	
8106	0	33208	
8107	0	33232	
8108	0	33156	
8109	0	33088	
8110	0	33162	
8111	0	33396	
8112	0	33672	
8113	0	33916	
8114	0	34052	
8115	0	34148	
8116	0	34232	
8117	0	34296	
8118	0	34280	
8119	0	34156	
8120	0	33968	
8121	0	33844	
8122	0	33852	
8123	0	33928	
8124	0	34032	
8125	0	34222	
8126	0	34464	
8127	0	34720	
8128	0	34992	
8129	0	35214	
8130	0	35220	
8131	0	35060	
8132	0	34640	
8133	0	34188	
8134	0	33850	
8135	0	33816	
8136	0	34052	
8137	0	34416	
8138	0	34770	
8139	0	35002	
8140	0	34996	
8141	0	34996	
8142	0	35112	
8143	0	35428	
8144	0	35848	
8145	0	36104	
8146	0	36200	
8147	0	36192	
8148	0	36014	
8149	0	35728	
8150	0	35504	
8151	0	35436	
8152	0	35520	
8153	0	35596	
8154	0	35648	
8155	0	35632	
8156	0	35548	
8157	0	35384	
8158	0	35124	
8159	0	34868	
8160	0	34620	
8161	0	34368	
8162	0	34144	
8163	0	33904	
8164	0	33728	
8165	0	33532	
8166	0	33248	
8167	0	33032	
8168	0	32924	
8169	0	32932	
8170	0	32888	
8171	0	32730	
8172	0	32572	
8173	0	32428	
8174	0	32400	
8175	0	32456	
8176	0	32448	
8177	0	32344	
8178	0	32212	
8179	0	32104	
8180	0	32008	
8181	0	31912	
8182	0	31812	
8183	0	31764	
8184	0	31772	
8185	0	31848	
8186	0	31936	
8187	0	31994	
8188	0	31968	
8189	0	31792	
8190	0	31496	
8191	0	31256	
8192	0	31176	
8193	0	31196	
8194	0	31296	
8195	0	31464	
8196	0	31604	
8197	0	31696	
8198	0	31684	
8199	0	31508	
8200	0	31232	
8201	0	31132	
8202	0	31136	
8203	0	31168	
8204	0	31296	
8205	0	31536	
8206	0	31804	
8207	0	31992	
8208	0	32160	
8209	0	32372	
8210	0	32600	
8211	0	32808	
8212	0	32900	
8213	0	32864	
8214	0	32692	
8215	0	32456	
8216	0	32188	
8217	0	31892	
8218	0	31668	
8219	0	31584	
8220	0	31600	
8221	0	31804	
8222	0	32094	
8223	0	32324	
8224	0	32414	
8225	0	32368	
8226	0	32308	
8227	0	32272	
8228	0	32282	
8229	0	32384	
8230	0	32564	
8231	0	32688	
8232	0	32800	
8233	0	32896	
8234	0	32908	
8235	0	32888	
8236	0	32824	
8237	0	32772	
8238	0	32808	
8239	0	32856	
8240	0	32874	
8241	0	32724	
8242	0	32440	
8243	0	32144	
8244	0	31812	
8245	0	31384	
8246	0	30848	
8247	0	30284	
8248	0	29860	
8249	0	29632	
8250	0	29672	
8251	0	29888	
8252	0	30244	
8253	0	30820	
8254	0	31612	
8255	0	32340	
8256	0	33052	
8257	0	33992	
8258	0	35080	
8259	0	36172	
8260	0	37416	
8261	0	38752	
8262	0	40276	
8263	0	41864	
8264	0	43492	
8265	0	45160	
8266	0	46912	
8267	0	48612	
8268	0	50356	
8269	0	52200	
8270	0	54128	
8271	0	56204	
8272	0	58328	
8273	0	60536	
8274	0	62544	
8275	0	63748	
8276	0	64320	
8277	0	64576	
8278	0	64676	
8279	0	64660	
8280	0	64604	
8281	0	64512	
8282	0	62544	
8283	0	58576	
8284	0	54720	
8285	0	50764	
8286	0	46784	
8287	0	42768	
8288	0	39008	
8289	0	35604	
8290	0	32676	
8291	0	30240	
8292	0	28264	
8293	0	26668	
8294	0	25504	
8295	0	24880	
8296	0	24588	
8297	0	24412	
8298	0	24248	
8299	0	24092	
8300	0	23916	
8301	0	23740	
8302	0	23646	
8303	0	23628	
8304	0	23618	
8305	0	23652	
8306	0	23756	
8307	0	23936	
8308	0	24188	
8309	0	24676	
8310	0	25452	
8311	0	26504	
8312	0	27484	
8313	0	28244	
8314	0	28864	
8315	0	29408	
8316	0	29824	
8317	0	30060	
8318	0	30176	
8319	0	30260	
8320	0	30408	
8321	0	30576	
8322	0	30704	
8323	0	30784	
8324	0	30788	
8325	0	30724	
8326	0	30508	
8327	0	30320	
8328	0	30168	
8329	0	30024	
8330	0	29972	
8331	0	29984	
8332	0	30020	
8333	0	30108	
8334	0	30144	
8335	0	30204	
8336	0	30392	
8337	0	30632	
8338	0	30812	
8339	0	30974	
8340	0	31132	
8341	0	31248	
8342	0	31340	
8343	0	31336	
8344	0	31296	
8345	0	31276	
8346	0	31328	
8347	0	31352	
8348	0	31334	
8349	0	31280	
8350	0	31212	
8351	0	31248	
8352	0	31280	
8353	0	31204	
8354	0	31040	
8355	0	30938	
8356	0	30920	
8357	0	30966	
8358	0	31092	
8359	0	31280	
8360	0	31516	
8361	0	31736	
8362	0	31824	
8363	0	31792	
8364	0	31736	
8365	0	31708	
8366	0	31700	
8367	0	31700	
8368	0	31644	
8369	0	31576	
8370	0	31556	
8371	0	31576	
8372	0	31648	
8373	0	31692	
8374	0	31656	
8375	0	31502	
8376	0	31344	
8377	0	31360	
8378	0	31416	
8379	0	31604	
8380	0	31928	
8381	0	32160	
8382	0	32250	
8383	0	32228	
8384	0	32148	
8385	0	32120	
8386	0	32186	
8387	0	32244	
8388	0	32272	
8389	0	32276	
8390	0	32352	
8391	0	32476	
8392	0	32644	
8393	0	32800	
8394	0	32920	
8395	0	33024	
8396	0	33072	
8397	0	33084	
8398	0	33024	
8399	0	33016	
8400	0	33020	
8401	0	33048	
8402	0	33026	
8403	0	33028	
8404	0	33052	
8405	0	33024	
8406	0	32960	
8407	0	32884	
8408	0	32856	
8409	0	32836	
8410	0	32820	
8411	0	32820	
8412	0	32876	
8413	0	32828	
8414	0	32730	
8415	0	32744	
8416	0	32728	
8417	0	32656	
8418	0	32644	
8419	0	32752	
8420	0	32956	
8421	0	33172	
8422	0	33300	
8423	0	33444	
8424	0	33624	
8425	0	33860	
8426	0	34072	
8427	0	34196	
8428	0	34220	
8429	0	34212	
8430	0	34160	
8431	0	34096	
8432	0	34028	
8433	0	33980	
8434	0	33952	
8435	0	34000	
8436	0	33988	
8437	0	33824	
8438	0	33688	
8439	0	33652	
8440	0	33736	
8441	0	33948	
8442	0	34264	
8443	0	34320	
8444	0	34154	
8445	0	34016	
8446	0	34000	
8447	0	34144	
8448	0	34388	
8449	0	34612	
8450	0	34728	
8451	0	34733	
8452	0	34720	
8453	0	34656	
8454	0	34592	
8455	0	34588	
8456	0	34660	
8457	0	34772	
8458	0	34896	
8459	0	35096	
8460	0	35252	
8461	0	35252	
8462	0	35308	
8463	0	35500	
8464	0	35676	
8465	0	35732	
8466	0	35712	
8467	0	35700	
8468	0	35728	
8469	0	35828	
8470	0	35928	
8471	0	35964	
8472	0	35956	
8473	0	35976	
8474	0	36040	
8475	0	36180	
8476	0	36236	
8477	0	36232	
8478	0	36236	
8479	0	36144	
8480	0	36104	
8481	0	36096	
8482	0	36080	
8483	0	36172	
8484	0	36348	
8485	0	36592	
8486	0	36832	
8487	0	36980	
8488	0	37120	
8489	0	37268	
8490	0	37360	
8491	0	37364	
8492	0	37260	
8493	0	37080	
8494	0	36964	
8495	0	36928	
8496	0	36976	
8497	0	37032	
8498	0	37152	
8499	0	37244	
8500	0	37272	
8501	0	37244	
8502	0	37280	
8503	0	37432	
8504	0	37648	
8505	0	37880	
8506	0	38008	
8507	0	38036	
8508	0	37996	
8509	0	37952	
8510	0	37920	
8511	0	37912	
8512	0	37976	
8513	0	38120	
8514	0	38252	
8515	0	38224	
8516	0	38080	
8517	0	37836	
8518	0	37580	
8519	0	37312	
8520	0	37144	
8521	0	37096	
8522	0	37184	
8523	0	37380	
8524	0	37564	
8525	0	37736	
8526	0	37836	
8527	0	37948	
8528	0	38060	
8529	0	38056	
8530	0	38048	
8531	0	38104	
8532	0	38088	
8533	0	37976	
8534	0	37886	
8535	0	37812	
8536	0	37764	
8537	0	37612	
8538	0	37368	
8539	0	37068	
8540	0	36820	
8541	0	36572	
8542	0	36308	
8543	0	36148	
8544	0	36088	
8545	0	36108	
8546	0	36052	
8547	0	35952	
8548	0	35854	
8549	0	35744	
8550	0	35648	
8551	0	35600	
8552	0	35464	
8553	0	35236	
8554	0	34996	
8555	0	34772	
8556	0	34544	
8557	0	34280	
8558	0	34040	
8559	0	33824	
8560	0	33592	
8561	0	33360	
8562	0	33128	
8563	0	32908	
8564	0	32696	
8565	0	32488	
8566	0	32216	
8567	0	31880	
8568	0	31520	
8569	0	31124	
8570	0	30796	
8571	0	30533	
8572	0	30214	
8573	0	29920	
8574	0	29824	
8575	0	29866	
8576	0	29984	
8577	0	30008	
8578	0	29880	
8579	0	29648	
8580	0	29436	
8581	0	29432	
8582	0	29560	
8583	0	29648	
8584	0	29628	
8585	0	29540	
8586	0	29424	
8587	0	29296	
8588	0	29064	
8589	0	28802	
8590	0	28544	
8591	0	28382	
