# OpenSignals Text File Format. Version 1
# {"00:07:80:4B:15:F7": {"position": 0, "device": "biosignalsplux", "device name": "00:07:80:4B:15:F7", "device connection": "BTH00:07:80:4B:15:F7", "sampling rate": 1000, "resolution": [16], "firmware version": 775, "comments": "", "keywords": "", "mode": 0, "sync interval": 2, "date": "2023-4-12", "time": "14:40:23.226", "channels": [1], "sensor": ["ECG"], "label": ["CH1"], "column": ["nSeq", "DI", "CH1"], "special": [{"SpO2": [80, 40, 5, 4, 3, 3]}, {"SpO2": [80, 40, 5, 4, 3, 3]}, {"SpO2": [80, 40, 5, 4, 3, 3]}, {"SpO2": [80, 40, 5, 4, 3, 3]}, {"SpO2": [80, 40, 5, 4, 3, 3]}, {"SpO2": [80, 40, 5, 4, 3, 3]}, {"SpO2": [80, 40, 5, 4, 3, 3]}, {"SpO2": [80, 40, 5, 4, 3, 3]}], "digital IO": [0, 1], "sleeve color": ["green"], "convertedValues": 0}}
# EndOfHeader
0	0	31504	
1	0	31484	
2	0	31424	
3	0	31396	
4	0	31320	
5	0	31272	
6	0	31292	
7	0	31412	
8	0	31552	
9	0	31568	
10	0	31578	
11	0	31576	
12	0	31592	
13	0	31680	
14	0	31808	
15	0	31768	
16	0	31649	
17	0	31576	
18	0	31556	
19	0	31532	
20	0	31480	
21	0	31444	
22	0	31400	
23	0	31424	
24	0	31508	
25	0	31640	
26	0	31808	
27	0	31944	
28	0	32076	
29	0	32160	
30	0	32224	
31	0	32236	
32	0	32168	
33	0	32076	
34	0	31956	
35	0	31836	
36	0	31704	
37	0	31604	
38	0	31556	
39	0	31488	
40	0	31452	
41	0	31436	
42	0	31348	
43	0	31196	
44	0	30908	
45	0	30424	
46	0	29912	
47	0	29604	
48	0	29492	
49	0	29448	
50	0	29428	
51	0	29638	
52	0	30060	
53	0	30628	
54	0	31304	
55	0	32136	
56	0	32992	
57	0	33952	
58	0	35248	
59	0	36836	
60	0	38808	
61	0	41244	
62	0	44176	
63	0	47488	
64	0	50860	
65	0	54188	
66	0	57396	
67	0	60360	
68	0	62712	
69	0	63968	
70	0	64602	
71	0	64868	
72	0	64976	
73	0	64976	
74	0	64888	
75	0	64800	
76	0	60656	
77	0	54944	
78	0	49040	
79	0	43482	
80	0	39036	
81	0	35856	
82	0	33672	
83	0	32108	
84	0	30916	
85	0	29928	
86	0	29008	
87	0	28168	
88	0	27420	
89	0	26786	
90	0	26204	
91	0	25746	
92	0	25560	
93	0	25692	
94	0	25788	
95	0	25796	
96	0	25786	
97	0	25776	
98	0	25806	
99	0	25964	
100	0	26252	
101	0	26648	
102	0	27012	
103	0	27304	
104	0	27584	
105	0	27916	
106	0	28280	
107	0	28608	
108	0	28880	
109	0	29084	
110	0	29260	
111	0	29448	
112	0	29688	
113	0	29944	
114	0	30176	
115	0	30296	
116	0	30340	
117	0	30412	
118	0	30452	
119	0	30524	
120	0	30532	
121	0	30520	
122	0	30432	
123	0	30316	
124	0	30208	
125	0	30136	
126	0	30144	
127	0	30320	
128	0	30588	
129	0	30764	
130	0	30794	
131	0	30808	
132	0	30852	
133	0	30910	
134	0	30952	
135	0	30932	
136	0	30906	
137	0	30904	
138	0	30912	
139	0	30896	
140	0	30896	
141	0	30836	
142	0	30776	
143	0	30752	
144	0	30796	
145	0	30852	
146	0	31004	
147	0	31158	
148	0	31186	
149	0	31176	
150	0	31296	
151	0	31470	
152	0	31560	
153	0	31588	
154	0	31598	
155	0	31660	
156	0	31848	
157	0	32024	
158	0	32028	
159	0	31968	
160	0	31976	
161	0	31912	
162	0	31836	
163	0	31912	
164	0	32000	
165	0	32028	
166	0	32056	
167	0	32020	
168	0	31944	
169	0	31848	
170	0	31828	
171	0	31828	
172	0	31912	
173	0	32036	
174	0	32148	
175	0	32232	
176	0	32228	
177	0	32176	
178	0	32148	
179	0	32274	
180	0	32468	
181	0	32544	
182	0	32612	
183	0	32620	
184	0	32552	
185	0	32528	
186	0	32548	
187	0	32600	
188	0	32712	
189	0	32858	
190	0	32896	
191	0	32908	
192	0	32880	
193	0	32936	
194	0	33092	
195	0	33250	
196	0	33368	
197	0	33436	
198	0	33512	
199	0	33532	
200	0	33596	
201	0	33656	
202	0	33684	
203	0	33660	
204	0	33608	
205	0	33560	
206	0	33488	
207	0	33422	
208	0	33452	
209	0	33424	
210	0	33424	
211	0	33544	
212	0	33752	
213	0	33948	
214	0	34144	
215	0	34236	
216	0	34172	
217	0	34146	
218	0	34156	
219	0	34156	
220	0	34196	
221	0	34324	
222	0	34386	
223	0	34496	
224	0	34604	
225	0	34698	
226	0	34784	
227	0	34832	
228	0	34880	
229	0	34932	
230	0	35018	
231	0	35136	
232	0	35176	
233	0	35190	
234	0	35228	
235	0	35232	
236	0	35232	
237	0	35328	
238	0	35428	
239	0	35480	
240	0	35488	
241	0	35504	
242	0	35540	
243	0	35552	
244	0	35592	
245	0	35664	
246	0	35704	
247	0	35732	
248	0	35780	
249	0	35912	
250	0	36020	
251	0	36132	
252	0	36206	
253	0	36268	
254	0	36308	
255	0	36344	
256	0	36396	
257	0	36416	
258	0	36404	
259	0	36400	
260	0	36404	
261	0	36412	
262	0	36472	
263	0	36522	
264	0	36556	
265	0	36608	
266	0	36716	
267	0	36826	
268	0	36900	
269	0	36968	
270	0	37010	
271	0	37064	
272	0	37068	
273	0	37048	
274	0	37052	
275	0	37024	
276	0	36948	
277	0	36880	
278	0	36816	
279	0	36760	
280	0	36772	
281	0	36768	
282	0	36732	
283	0	36712	
284	0	36644	
285	0	36584	
286	0	36540	
287	0	36548	
288	0	36484	
289	0	36576	
290	0	36608	
291	0	36552	
292	0	36548	
293	0	36528	
294	0	36456	
295	0	36328	
296	0	36260	
297	0	36180	
298	0	36146	
299	0	36082	
300	0	35984	
301	0	35896	
302	0	35844	
303	0	35872	
304	0	35892	
305	0	35860	
306	0	35736	
307	0	35648	
308	0	35556	
309	0	35444	
310	0	35316	
311	0	35208	
312	0	35140	
313	0	35076	
314	0	34956	
315	0	34776	
316	0	34616	
317	0	34440	
318	0	34240	
319	0	34080	
320	0	33998	
321	0	33980	
322	0	33912	
323	0	33712	
324	0	33480	
325	0	33236	
326	0	33064	
327	0	32868	
328	0	32692	
329	0	32552	
330	0	32392	
331	0	32272	
332	0	32160	
333	0	32084	
334	0	32024	
335	0	31912	
336	0	31796	
337	0	31640	
338	0	31456	
339	0	31288	
340	0	31110	
341	0	30976	
342	0	30860	
343	0	30712	
344	0	30540	
345	0	30424	
346	0	30332	
347	0	30256	
348	0	30140	
349	0	30024	
350	0	29928	
351	0	29822	
352	0	29716	
353	0	29588	
354	0	29440	
355	0	29292	
356	0	29204	
357	0	29136	
358	0	29068	
359	0	29056	
360	0	29096	
361	0	29124	
362	0	29164	
363	0	29168	
364	0	29082	
365	0	28976	
366	0	28868	
367	0	28810	
368	0	28780	
369	0	28798	
370	0	28804	
371	0	28756	
372	0	28748	
373	0	28740	
374	0	28748	
375	0	28712	
376	0	28664	
377	0	28610	
378	0	28588	
379	0	28600	
380	0	28620	
381	0	28584	
382	0	28576	
383	0	28604	
384	0	28620	
385	0	28700	
386	0	28798	
387	0	28868	
388	0	28944	
389	0	28968	
390	0	28932	
391	0	28868	
392	0	28840	
393	0	28872	
394	0	28876	
395	0	28888	
396	0	28906	
397	0	28952	
398	0	29028	
399	0	29148	
400	0	29336	
401	0	29448	
402	0	29452	
403	0	29496	
404	0	29532	
405	0	29556	
406	0	29592	
407	0	29600	
408	0	29572	
409	0	29572	
410	0	29640	
411	0	29680	
412	0	29672	
413	0	29722	
414	0	29792	
415	0	29880	
416	0	30000	
417	0	30116	
418	0	30200	
419	0	30228	
420	0	30232	
421	0	30232	
422	0	30232	
423	0	30280	
424	0	30364	
425	0	30388	
426	0	30424	
427	0	30464	
428	0	30488	
429	0	30516	
430	0	30544	
431	0	30552	
432	0	30576	
433	0	30624	
434	0	30702	
435	0	30764	
436	0	30836	
437	0	30890	
438	0	30912	
439	0	30960	
440	0	30988	
441	0	31000	
442	0	31028	
443	0	31004	
444	0	31036	
445	0	31084	
446	0	31128	
447	0	31148	
448	0	31204	
449	0	31234	
450	0	31236	
451	0	31246	
452	0	31288	
453	0	31352	
454	0	31440	
455	0	31544	
456	0	31584	
457	0	31600	
458	0	31596	
459	0	31600	
460	0	31620	
461	0	31632	
462	0	31648	
463	0	31640	
464	0	31596	
465	0	31584	
466	0	31608	
467	0	31616	
468	0	31660	
469	0	31748	
470	0	31796	
471	0	31786	
472	0	31732	
473	0	31640	
474	0	31592	
475	0	31592	
476	0	31668	
477	0	31728	
478	0	31744	
479	0	31728	
480	0	31744	
481	0	31810	
482	0	31836	
483	0	31804	
484	0	31776	
485	0	31780	
486	0	31800	
487	0	31820	
488	0	31812	
489	0	31760	
490	0	31736	
491	0	31692	
492	0	31708	
493	0	31740	
494	0	31764	
495	0	31712	
496	0	31652	
497	0	31640	
498	0	31660	
499	0	31624	
500	0	31504	
501	0	31440	
502	0	31360	
503	0	31330	
504	0	31380	
505	0	31428	
506	0	31364	
507	0	31308	
508	0	31328	
509	0	31428	
510	0	31560	
511	0	31652	
512	0	31736	
513	0	31828	
514	0	31870	
515	0	31900	
516	0	31912	
517	0	31880	
518	0	31772	
519	0	31684	
520	0	31644	
521	0	31624	
522	0	31600	
523	0	31534	
524	0	31496	
525	0	31464	
526	0	31464	
527	0	31484	
528	0	31532	
529	0	31572	
530	0	31584	
531	0	31582	
532	0	31600	
533	0	31616	
534	0	31644	
535	0	31700	
536	0	31712	
537	0	31690	
538	0	31616	
539	0	31540	
540	0	31508	
541	0	31520	
542	0	31540	
543	0	31584	
544	0	31580	
545	0	31556	
546	0	31512	
547	0	31460	
548	0	31440	
549	0	31496	
550	0	31540	
551	0	31580	
552	0	31616	
553	0	31684	
554	0	31692	
555	0	31632	
556	0	31592	
557	0	31576	
558	0	31604	
559	0	31576	
560	0	31540	
561	0	31544	
562	0	31544	
563	0	31556	
564	0	31568	
565	0	31642	
566	0	31704	
567	0	31724	
568	0	31728	
569	0	31768	
570	0	31732	
571	0	31604	
572	0	31546	
573	0	31584	
574	0	31680	
575	0	31756	
576	0	31788	
577	0	31788	
578	0	31834	
579	0	31916	
580	0	31964	
581	0	31912	
582	0	31848	
583	0	31860	
584	0	31864	
585	0	31860	
586	0	31848	
587	0	31800	
588	0	31752	
589	0	31752	
590	0	31808	
591	0	31832	
592	0	31840	
593	0	31800	
594	0	31796	
595	0	31820	
596	0	31792	
597	0	31796	
598	0	31844	
599	0	31940	
600	0	32052	
601	0	32068	
602	0	32042	
603	0	31938	
604	0	31840	
605	0	31824	
606	0	31856	
607	0	31876	
608	0	31856	
609	0	31828	
610	0	31816	
611	0	31868	
612	0	31884	
613	0	31892	
614	0	31944	
615	0	31980	
616	0	32020	
617	0	32052	
618	0	32104	
619	0	32064	
620	0	32032	
621	0	32040	
622	0	32040	
623	0	32036	
624	0	32064	
625	0	32100	
626	0	32172	
627	0	32212	
628	0	32236	
629	0	32240	
630	0	32288	
631	0	32349	
632	0	32404	
633	0	32496	
634	0	32592	
635	0	32704	
636	0	32816	
637	0	32918	
638	0	32992	
639	0	33032	
640	0	33048	
641	0	33044	
642	0	33108	
643	0	33152	
644	0	33112	
645	0	33016	
646	0	32940	
647	0	32876	
648	0	32864	
649	0	32844	
650	0	32844	
651	0	32896	
652	0	32948	
653	0	33034	
654	0	33140	
655	0	33272	
656	0	33436	
657	0	33584	
658	0	33832	
659	0	34068	
660	0	34272	
661	0	34440	
662	0	34588	
663	0	34652	
664	0	34752	
665	0	34860	
666	0	34964	
667	0	35108	
668	0	35170	
669	0	35120	
670	0	35004	
671	0	34880	
672	0	34768	
673	0	34652	
674	0	34576	
675	0	34496	
676	0	34352	
677	0	34216	
678	0	34012	
679	0	33796	
680	0	33668	
681	0	33576	
682	0	33476	
683	0	33312	
684	0	33132	
685	0	33008	
686	0	32948	
687	0	32928	
688	0	32972	
689	0	32980	
690	0	32948	
691	0	32880	
692	0	32808	
693	0	32728	
694	0	32668	
695	0	32556	
696	0	32440	
697	0	32356	
698	0	32245	
699	0	32136	
700	0	32124	
701	0	32088	
702	0	32016	
703	0	31920	
704	0	31812	
705	0	31700	
706	0	31596	
707	0	31484	
708	0	31412	
709	0	31356	
710	0	31252	
711	0	31176	
712	0	31152	
713	0	31124	
714	0	31100	
715	0	31070	
716	0	31032	
717	0	31024	
718	0	31020	
719	0	31032	
720	0	31036	
721	0	31060	
722	0	31088	
723	0	31128	
724	0	31188	
725	0	31236	
726	0	31324	
727	0	31392	
728	0	31480	
729	0	31552	
730	0	31620	
731	0	31644	
732	0	31648	
733	0	31596	
734	0	31560	
735	0	31556	
736	0	31538	
737	0	31552	
738	0	31600	
739	0	31632	
740	0	31656	
741	0	31708	
742	0	31752	
743	0	31736	
744	0	31728	
745	0	31692	
746	0	31668	
747	0	31624	
748	0	31500	
749	0	31232	
750	0	30872	
751	0	30424	
752	0	29856	
753	0	29242	
754	0	28756	
755	0	28474	
756	0	28408	
757	0	28444	
758	0	28674	
759	0	29104	
760	0	29836	
761	0	30732	
762	0	31720	
763	0	32908	
764	0	34338	
765	0	35908	
766	0	37688	
767	0	39800	
768	0	42204	
769	0	45052	
770	0	48520	
771	0	52336	
772	0	56032	
773	0	59572	
774	0	62416	
775	0	63976	
776	0	64768	
777	0	65164	
778	0	65304	
779	0	65304	
780	0	65264	
781	0	65168	
782	0	65064	
783	0	64944	
784	0	60400	
785	0	54104	
786	0	48392	
787	0	43636	
788	0	39860	
789	0	36868	
790	0	34620	
791	0	32826	
792	0	31340	
793	0	30004	
794	0	28864	
795	0	27880	
796	0	27156	
797	0	26712	
798	0	26506	
799	0	26424	
800	0	26364	
801	0	26412	
802	0	26452	
803	0	26424	
804	0	26400	
805	0	26432	
806	0	26584	
807	0	26800	
808	0	27088	
809	0	27380	
810	0	27696	
811	0	28036	
812	0	28368	
813	0	28656	
814	0	28912	
815	0	29116	
816	0	29336	
817	0	29500	
818	0	29648	
819	0	29716	
820	0	29744	
821	0	29768	
822	0	29776	
823	0	29748	
824	0	29740	
825	0	29724	
826	0	29688	
827	0	29700	
828	0	29724	
829	0	29784	
830	0	29808	
831	0	29832	
832	0	29868	
833	0	29864	
834	0	29876	
835	0	29920	
836	0	29936	
837	0	29900	
838	0	29884	
839	0	29861	
840	0	29888	
841	0	29920	
842	0	29996	
843	0	30032	
844	0	30044	
845	0	30048	
846	0	30080	
847	0	30168	
848	0	30232	
849	0	30256	
850	0	30362	
851	0	30468	
852	0	30532	
853	0	30604	
854	0	30652	
855	0	30704	
856	0	30778	
857	0	30848	
858	0	30936	
859	0	30984	
860	0	31036	
861	0	31096	
862	0	31100	
863	0	31096	
864	0	31082	
865	0	31068	
866	0	31088	
867	0	31084	
868	0	31080	
869	0	31100	
870	0	31108	
871	0	31152	
872	0	31212	
873	0	31272	
874	0	31296	
875	0	31320	
876	0	31392	
877	0	31484	
878	0	31564	
879	0	31616	
880	0	31664	
881	0	31740	
882	0	31804	
883	0	31852	
884	0	31912	
885	0	31936	
886	0	31980	
887	0	32032	
888	0	32088	
889	0	32090	
890	0	32090	
891	0	32080	
892	0	32044	
893	0	32040	
894	0	32064	
895	0	32144	
896	0	32224	
897	0	32272	
898	0	32296	
899	0	32332	
900	0	32420	
901	0	32488	
902	0	32512	
903	0	32544	
904	0	32608	
905	0	32696	
906	0	32776	
907	0	32832	
908	0	32820	
909	0	32832	
910	0	32900	
911	0	32980	
912	0	33056	
913	0	33114	
914	0	33128	
915	0	33128	
916	0	33140	
917	0	33168	
918	0	33156	
919	0	33152	
920	0	33184	
921	0	33248	
922	0	33300	
923	0	33372	
924	0	33448	
925	0	33552	
926	0	33628	
927	0	33680	
928	0	33772	
929	0	33860	
930	0	33916	
931	0	33888	
932	0	33916	
933	0	33948	
934	0	34044	
935	0	34160	
936	0	34208	
937	0	34274	
938	0	34352	
939	0	34396	
940	0	34434	
941	0	34512	
942	0	34512	
943	0	34508	
944	0	34552	
945	0	34676	
946	0	34768	
947	0	34804	
948	0	34844	
949	0	34848	
950	0	34848	
951	0	34952	
952	0	35054	
953	0	35176	
954	0	35252	
955	0	35324	
956	0	35344	
957	0	35360	
958	0	35420	
959	0	35476	
960	0	35560	
961	0	35644	
962	0	35712	
963	0	35812	
964	0	35904	
965	0	35956	
966	0	35960	
967	0	36016	
968	0	36068	
969	0	36124	
970	0	36140	
971	0	36188	
972	0	36240	
973	0	36256	
974	0	36320	
975	0	36384	
976	0	36440	
977	0	36464	
978	0	36444	
979	0	36420	
980	0	36346	
981	0	36344	
982	0	36372	
983	0	36424	
984	0	36464	
985	0	36472	
986	0	36424	
987	0	36384	
988	0	36321	
989	0	36228	
990	0	36184	
991	0	36172	
992	0	36192	
993	0	36228	
994	0	36220	
995	0	36236	
996	0	36236	
997	0	36212	
998	0	36148	
999	0	36100	
1000	0	36088	
1001	0	36100	
1002	0	36100	
1003	0	36080	
1004	0	36000	
1005	0	35960	
1006	0	35944	
1007	0	35920	
1008	0	35872	
1009	0	35812	
1010	0	35760	
1011	0	35724	
1012	0	35672	
1013	0	35636	
1014	0	35572	
1015	0	35456	
1016	0	35356	
1017	0	35296	
1018	0	35192	
1019	0	35032	
1020	0	34888	
1021	0	34780	
1022	0	34672	
1023	0	34556	
1024	0	34428	
1025	0	34300	
1026	0	34156	
1027	0	34072	
1028	0	33964	
1029	0	33824	
1030	0	33660	
1031	0	33492	
1032	0	33320	
1033	0	33136	
1034	0	32952	
1035	0	32796	
1036	0	32640	
1037	0	32512	
1038	0	32412	
1039	0	32268	
1040	0	32060	
1041	0	31864	
1042	0	31680	
1043	0	31502	
1044	0	31360	
1045	0	31224	
1046	0	31120	
1047	0	31036	
1048	0	30948	
1049	0	30852	
1050	0	30736	
1051	0	30604	
1052	0	30512	
1053	0	30424	
1054	0	30284	
1055	0	30132	
1056	0	29992	
1057	0	29852	
1058	0	29806	
1059	0	29804	
1060	0	29752	
1061	0	29696	
1062	0	29680	
1063	0	29640	
1064	0	29582	
1065	0	29496	
1066	0	29400	
1067	0	29328	
1068	0	29280	
1069	0	29252	
1070	0	29248	
1071	0	29232	
1072	0	29184	
1073	0	29150	
1074	0	29096	
1075	0	29068	
1076	0	29028	
1077	0	28960	
1078	0	28892	
1079	0	28890	
1080	0	28904	
1081	0	28928	
1082	0	28972	
1083	0	28984	
1084	0	28992	
1085	0	28986	
1086	0	28992	
1087	0	29020	
1088	0	29100	
1089	0	29200	
1090	0	29212	
1091	0	29210	
1092	0	29236	
1093	0	29216	
1094	0	29232	
1095	0	29280	
1096	0	29304	
1097	0	29280	
1098	0	29288	
1099	0	29300	
1100	0	29336	
1101	0	29364	
1102	0	29352	
1103	0	29338	
1104	0	29364	
1105	0	29392	
1106	0	29400	
1107	0	29464	
1108	0	29494	
1109	0	29512	
1110	0	29584	
1111	0	29664	
1112	0	29740	
1113	0	29760	
1114	0	29788	
1115	0	29848	
1116	0	29880	
1117	0	29946	
1118	0	30020	
1119	0	30044	
1120	0	30088	
1121	0	30128	
1122	0	30180	
1123	0	30244	
1124	0	30324	
1125	0	30362	
1126	0	30372	
1127	0	30392	
1128	0	30408	
1129	0	30432	
1130	0	30490	
1131	0	30540	
1132	0	30608	
1133	0	30640	
1134	0	30688	
1135	0	30728	
1136	0	30752	
1137	0	30780	
1138	0	30812	
1139	0	30808	
1140	0	30836	
1141	0	30906	
1142	0	30924	
1143	0	30944	
1144	0	30992	
1145	0	31040	
1146	0	31074	
1147	0	31112	
1148	0	31132	
1149	0	31160	
1150	0	31216	
1151	0	31232	
1152	0	31216	
1153	0	31200	
1154	0	31196	
1155	0	31156	
1156	0	31112	
1157	0	31108	
1158	0	31156	
1159	0	31192	
1160	0	31242	
1161	0	31344	
1162	0	31370	
1163	0	31376	
1164	0	31404	
1165	0	31464	
1166	0	31540	
1167	0	31592	
1168	0	31636	
1169	0	31660	
1170	0	31682	
1171	0	31684	
1172	0	31696	
1173	0	31708	
1174	0	31738	
1175	0	31764	
1176	0	31752	
1177	0	31744	
1178	0	31740	
1179	0	31700	
1180	0	31684	
1181	0	31736	
1182	0	31792	
1183	0	31800	
1184	0	31784	
1185	0	31752	
1186	0	31754	
1187	0	31784	
1188	0	31812	
1189	0	31852	
1190	0	31860	
1191	0	31844	
1192	0	31840	
1193	0	31832	
1194	0	31840	
1195	0	31840	
1196	0	31834	
1197	0	31824	
1198	0	31860	
1199	0	31896	
1200	0	31916	
1201	0	31884	
1202	0	31848	
1203	0	31844	
1204	0	31864	
1205	0	31864	
1206	0	31828	
1207	0	31820	
1208	0	31816	
1209	0	31816	
1210	0	31804	
1211	0	31778	
1212	0	31748	
1213	0	31784	
1214	0	31796	
1215	0	31792	
1216	0	31748	
1217	0	31760	
1218	0	31764	
1219	0	31746	
1220	0	31736	
1221	0	31720	
1222	0	31724	
1223	0	31724	
1224	0	31720	
1225	0	31740	
1226	0	31768	
1227	0	31840	
1228	0	31884	
1229	0	31868	
1230	0	31842	
1231	0	31844	
1232	0	31872	
1233	0	31856	
1234	0	31852	
1235	0	31884	
1236	0	31864	
1237	0	31800	
1238	0	31740	
1239	0	31728	
1240	0	31712	
1241	0	31680	
1242	0	31680	
1243	0	31692	
1244	0	31688	
1245	0	31648	
1246	0	31620	
1247	0	31650	
1248	0	31700	
1249	0	31684	
1250	0	31672	
1251	0	31688	
1252	0	31684	
1253	0	31656	
1254	0	31664	
1255	0	31724	
1256	0	31760	
1257	0	31772	
1258	0	31798	
1259	0	31812	
1260	0	31828	
1261	0	31820	
1262	0	31824	
1263	0	31812	
1264	0	31800	
1265	0	31812	
1266	0	31836	
1267	0	31840	
1268	0	31872	
1269	0	31892	
1270	0	31876	
1271	0	31888	
1272	0	31876	
1273	0	31848	
1274	0	31836	
1275	0	31876	
1276	0	31856	
1277	0	31852	
1278	0	31912	
1279	0	31974	
1280	0	31980	
1281	0	31940	
1282	0	31914	
1283	0	31896	
1284	0	31936	
1285	0	32012	
1286	0	32028	
1287	0	31948	
1288	0	31884	
1289	0	31852	
1290	0	31856	
1291	0	31888	
1292	0	31946	
1293	0	31952	
1294	0	31978	
1295	0	32012	
1296	0	31976	
1297	0	31962	
1298	0	31988	
1299	0	32008	
1300	0	32012	
1301	0	32036	
1302	0	32060	
1303	0	32064	
1304	0	32080	
1305	0	32064	
1306	0	32064	
1307	0	32092	
1308	0	32072	
1309	0	32020	
1310	0	31972	
1311	0	31944	
1312	0	31948	
1313	0	31988	
1314	0	32024	
1315	0	32016	
1316	0	32072	
1317	0	32134	
1318	0	32160	
1319	0	32192	
1320	0	32236	
1321	0	32276	
1322	0	32224	
1323	0	32184	
1324	0	32156	
1325	0	32204	
1326	0	32192	
1327	0	32184	
1328	0	32232	
1329	0	32312	
1330	0	32268	
1331	0	32152	
1332	0	32084	
1333	0	32092	
1334	0	32120	
1335	0	32160	
1336	0	32224	
1337	0	32276	
1338	0	32280	
1339	0	32244	
1340	0	32268	
1341	0	32288	
1342	0	32316	
1343	0	32328	
1344	0	32328	
1345	0	32328	
1346	0	32280	
1347	0	32232	
1348	0	32208	
1349	0	32184	
1350	0	32212	
1351	0	32240	
1352	0	32290	
1353	0	32336	
1354	0	32412	
1355	0	32480	
1356	0	32526	
1357	0	32612	
1358	0	32764	
1359	0	32916	
1360	0	32976	
1361	0	33056	
1362	0	33168	
1363	0	33272	
1364	0	33304	
1365	0	33276	
1366	0	33272	
1367	0	33256	
1368	0	33296	
1369	0	33380	
1370	0	33416	
1371	0	33444	
1372	0	33452	
1373	0	33424	
1374	0	33368	
1375	0	33240	
1376	0	33162	
1377	0	33232	
1378	0	33272	
1379	0	33332	
1380	0	33432	
1381	0	33520	
1382	0	33612	
1383	0	33772	
1384	0	33988	
1385	0	34252	
1386	0	34548	
1387	0	34768	
1388	0	34892	
1389	0	34984	
1390	0	35036	
1391	0	35106	
1392	0	35176	
1393	0	35280	
1394	0	35348	
1395	0	35336	
1396	0	35264	
1397	0	35164	
1398	0	35076	
1399	0	34960	
1400	0	34872	
1401	0	34832	
1402	0	34792	
1403	0	34672	
1404	0	34544	
1405	0	34428	
1406	0	34308	
1407	0	34176	
1408	0	34016	
1409	0	33920	
1410	0	33852	
1411	0	33712	
1412	0	33568	
1413	0	33444	
1414	0	33360	
1415	0	33328	
1416	0	33276	
1417	0	33184	
1418	0	33136	
1419	0	33116	
1420	0	33028	
1421	0	32944	
1422	0	32892	
1423	0	32792	
1424	0	32632	
1425	0	32472	
1426	0	32384	
1427	0	32336	
1428	0	32300	
1429	0	32264	
1430	0	32240	
1431	0	32172	
1432	0	32068	
1433	0	31992	
1434	0	31932	
1435	0	31784	
1436	0	31660	
1437	0	31564	
1438	0	31504	
1439	0	31476	
1440	0	31476	
1441	0	31462	
1442	0	31452	
1443	0	31416	
1444	0	31386	
1445	0	31344	
1446	0	31344	
1447	0	31372	
1448	0	31392	
1449	0	31452	
1450	0	31552	
1451	0	31596	
1452	0	31620	
1453	0	31640	
1454	0	31652	
1455	0	31680	
1456	0	31700	
1457	0	31732	
1458	0	31740	
1459	0	31708	
1460	0	31680	
1461	0	31700	
1462	0	31754	
1463	0	31760	
1464	0	31764	
1465	0	31800	
1466	0	31876	
1467	0	31908	
1468	0	31860	
1469	0	31858	
1470	0	31890	
1471	0	31906	
1472	0	31904	
1473	0	31922	
1474	0	31884	
1475	0	31736	
1476	0	31512	
1477	0	31096	
1478	0	30522	
1479	0	29852	
1480	0	29248	
1481	0	28872	
1482	0	28698	
1483	0	28668	
1484	0	28764	
1485	0	29084	
1486	0	29600	
1487	0	30344	
1488	0	31280	
1489	0	32384	
1490	0	33640	
1491	0	35136	
1492	0	36818	
1493	0	38728	
1494	0	40984	
1495	0	43584	
1496	0	46716	
1497	0	50352	
1498	0	54064	
1499	0	57600	
1500	0	60932	
1501	0	63248	
1502	0	64460	
1503	0	65080	
1504	0	65344	
1505	0	65436	
1506	0	65424	
1507	0	65360	
1508	0	65264	
1509	0	65152	
1510	0	65024	
1511	0	64044	
1512	0	57624	
1513	0	52160	
1514	0	47680	
1515	0	43968	
1516	0	40996	
1517	0	38556	
1518	0	36376	
1519	0	34432	
1520	0	32760	
1521	0	31444	
1522	0	30400	
1523	0	29520	
1524	0	28868	
1525	0	28408	
1526	0	28096	
1527	0	27860	
1528	0	27724	
1529	0	27676	
1530	0	27584	
1531	0	27464	
1532	0	27440	
1533	0	27448	
1534	0	27604	
1535	0	27796	
1536	0	28048	
1537	0	28368	
1538	0	28648	
1539	0	28864	
1540	0	29056	
1541	0	29220	
1542	0	29354	
1543	0	29432	
1544	0	29452	
1545	0	29444	
1546	0	29412	
1547	0	29400	
1548	0	29428	
1549	0	29444	
1550	0	29488	
1551	0	29400	
1552	0	29340	
1553	0	29320	
1554	0	29312	
1555	0	29336	
1556	0	29396	
1557	0	29420	
1558	0	29464	
1559	0	29540	
1560	0	29608	
1561	0	29624	
1562	0	29628	
1563	0	29620	
1564	0	29638	
1565	0	29708	
1566	0	29780	
1567	0	29786	
1568	0	29748	
1569	0	29782	
1570	0	29884	
1571	0	29932	
1572	0	29976	
1573	0	30052	
1574	0	30088	
1575	0	30144	
1576	0	30164	
1577	0	30192	
1578	0	30224	
1579	0	30292	
1580	0	30340	
1581	0	30376	
1582	0	30400	
1583	0	30384	
1584	0	30388	
1585	0	30452	
1586	0	30512	
1587	0	30584	
1588	0	30656	
1589	0	30708	
1590	0	30744	
1591	0	30780	
1592	0	30804	
1593	0	30836	
1594	0	30888	
1595	0	30944	
1596	0	31016	
1597	0	31052	
1598	0	31080	
1599	0	31136	
1600	0	31196	
1601	0	31216	
1602	0	31244	
1603	0	31256	
1604	0	31256	
1605	0	31288	
1606	0	31332	
1607	0	31380	
1608	0	31432	
1609	0	31480	
1610	0	31512	
1611	0	31512	
1612	0	31568	
1613	0	31604	
1614	0	31632	
1615	0	31648	
1616	0	31680	
1617	0	31720	
1618	0	31784	
1619	0	31804	
1620	0	31840	
1621	0	31904	
1622	0	31992	
1623	0	32072	
1624	0	32112	
1625	0	32148	
1626	0	32168	
1627	0	32192	
1628	0	32236	
1629	0	32280	
1630	0	32296	
1631	0	32344	
1632	0	32416	
1633	0	32484	
1634	0	32556	
1635	0	32588	
1636	0	32612	
1637	0	32628	
1638	0	32672	
1639	0	32760	
1640	0	32768	
1641	0	32744	
1642	0	32708	
1643	0	32824	
1644	0	32888	
1645	0	32900	
1646	0	32864	
1647	0	32836	
1648	0	32900	
1649	0	33032	
1650	0	33168	
1651	0	33280	
1652	0	33360	
1653	0	33396	
1654	0	33420	
1655	0	33480	
1656	0	33540	
1657	0	33596	
1658	0	33644	
1659	0	33692	
1660	0	33772	
1661	0	33868	
1662	0	33944	
1663	0	34020	
1664	0	34112	
1665	0	34168	
1666	0	34204	
1667	0	34224	
1668	0	34272	
1669	0	34340	
1670	0	34416	
1671	0	34500	
1672	0	34540	
1673	0	34540	
1674	0	34512	
1675	0	34512	
1676	0	34524	
1677	0	34552	
1678	0	34632	
1679	0	34744	
1680	0	34880	
1681	0	34992	
1682	0	35048	
1683	0	35168	
1684	0	35284	
1685	0	35404	
1686	0	35512	
1687	0	35572	
1688	0	35624	
1689	0	35636	
1690	0	35668	
1691	0	35744	
1692	0	35804	
1693	0	35847	
1694	0	35846	
1695	0	35848	
1696	0	35888	
1697	0	36000	
1698	0	36072	
1699	0	36156	
1700	0	36224	
1701	0	36320	
1702	0	36384	
1703	0	36400	
1704	0	36376	
1705	0	36408	
1706	0	36484	
1707	0	36542	
1708	0	36584	
1709	0	36580	
1710	0	36544	
1711	0	36552	
1712	0	36538	
1713	0	36540	
1714	0	36540	
1715	0	36536	
1716	0	36532	
1717	0	36528	
1718	0	36576	
1719	0	36600	
1720	0	36576	
1721	0	36564	
1722	0	36544	
1723	0	36492	
1724	0	36432	
1725	0	36408	
1726	0	36378	
1727	0	36352	
1728	0	36306	
1729	0	36244	
1730	0	36212	
1731	0	36200	
1732	0	36168	
1733	0	36108	
1734	0	36042	
1735	0	36032	
1736	0	36032	
1737	0	36040	
1738	0	36012	
1739	0	35976	
1740	0	35948	
1741	0	35922	
1742	0	35864	
1743	0	35792	
1744	0	35704	
1745	0	35600	
1746	0	35512	
1747	0	35428	
1748	0	35320	
1749	0	35196	
1750	0	35104	
1751	0	35008	
1752	0	34880	
1753	0	34624	
1754	0	34336	
1755	0	34160	
1756	0	34072	
1757	0	33952	
1758	0	33812	
1759	0	33656	
1760	0	33496	
1761	0	33336	
1762	0	33188	
1763	0	33020	
1764	0	32864	
1765	0	32716	
1766	0	32580	
1767	0	32452	
1768	0	32312	
1769	0	32136	
1770	0	31944	
1771	0	31816	
1772	0	31712	
1773	0	31588	
1774	0	31428	
1775	0	31264	
1776	0	31098	
1777	0	30946	
1778	0	30808	
1779	0	30676	
1780	0	30572	
1781	0	30432	
1782	0	30304	
1783	0	30160	
1784	0	30096	
1785	0	30024	
1786	0	30000	
1787	0	29956	
1788	0	29896	
1789	0	29808	
1790	0	29700	
1791	0	29616	
1792	0	29560	
1793	0	29472	
1794	0	29444	
1795	0	29412	
1796	0	29409	
1797	0	29408	
1798	0	29364	
1799	0	29296	
1800	0	29184	
1801	0	29136	
1802	0	29084	
1803	0	29068	
1804	0	29042	
1805	0	29020	
1806	0	29016	
1807	0	29034	
1808	0	29056	
1809	0	29080	
1810	0	29108	
1811	0	29132	
1812	0	29152	
1813	0	29152	
1814	0	29160	
1815	0	29152	
1816	0	29132	
1817	0	29152	
1818	0	29164	
1819	0	29212	
1820	0	29284	
1821	0	29314	
1822	0	29288	
1823	0	29264	
1824	0	29276	
1825	0	29282	
1826	0	29324	
1827	0	29390	
1828	0	29416	
1829	0	29460	
1830	0	29480	
1831	0	29468	
1832	0	29464	
1833	0	29468	
1834	0	29480	
1835	0	29600	
1836	0	29736	
1837	0	29844	
1838	0	29840	
1839	0	29784	
1840	0	29728	
1841	0	29680	
1842	0	29680	
1843	0	29736	
1844	0	29808	
1845	0	29864	
1846	0	29936	
1847	0	30060	
1848	0	30128	
1849	0	30136	
1850	0	30148	
1851	0	30192	
1852	0	30240	
1853	0	30280	
1854	0	30312	
1855	0	30344	
1856	0	30392	
1857	0	30464	
1858	0	30556	
1859	0	30620	
1860	0	30652	
1861	0	30648	
1862	0	30632	
1863	0	30636	
1864	0	30592	
1865	0	30532	
1866	0	30544	
1867	0	30600	
1868	0	30700	
1869	0	30788	
1870	0	30802	
1871	0	30842	
1872	0	30856	
1873	0	30896	
1874	0	30940	
1875	0	30964	
1876	0	30968	
1877	0	31016	
1878	0	31060	
1879	0	31082	
1880	0	31120	
1881	0	31156	
1882	0	31176	
1883	0	31208	
1884	0	31264	
1885	0	31316	
1886	0	31322	
1887	0	31368	
1888	0	31408	
1889	0	31424	
1890	0	31404	
1891	0	31384	
1892	0	31378	
1893	0	31404	
1894	0	31436	
1895	0	31488	
1896	0	31522	
1897	0	31564	
1898	0	31576	
1899	0	31560	
1900	0	31532	
1901	0	31544	
1902	0	31554	
1903	0	31564	
1904	0	31576	
1905	0	31576	
1906	0	31584	
1907	0	31604	
1908	0	31608	
1909	0	31608	
1910	0	31616	
1911	0	31652	
1912	0	31720	
1913	0	31778	
1914	0	31804	
1915	0	31788	
1916	0	31800	
1917	0	31840	
1918	0	31872	
1919	0	31904	
1920	0	31936	
1921	0	31932	
1922	0	31896	
1923	0	31834	
1924	0	31810	
1925	0	31780	
1926	0	31784	
1927	0	31808	
1928	0	31824	
1929	0	31824	
1930	0	31800	
1931	0	31820	
1932	0	31840	
1933	0	31832	
1934	0	31832	
1935	0	31836	
1936	0	31864	
1937	0	31912	
1938	0	31956	
1939	0	31936	
1940	0	31898	
1941	0	31892	
1942	0	31908	
1943	0	31904	
1944	0	31906	
1945	0	31916	
1946	0	31956	
1947	0	31984	
1948	0	31992	
1949	0	31984	
1950	0	31932	
1951	0	31884	
1952	0	31868	
1953	0	31890	
1954	0	31884	
1955	0	31848	
1956	0	31828	
1957	0	31852	
1958	0	31900	
1959	0	31892	
1960	0	31896	
1961	0	31904	
1962	0	31905	
1963	0	31892	
1964	0	31888	
1965	0	31908	
1966	0	31924	
1967	0	31926	
1968	0	31952	
1969	0	31896	
1970	0	31864	
1971	0	31856	
1972	0	31856	
1973	0	31884	
1974	0	31892	
1975	0	31912	
1976	0	31960	
1977	0	32000	
1978	0	32004	
1979	0	32000	
1980	0	31984	
1981	0	31956	
1982	0	31936	
1983	0	31916	
1984	0	31936	
1985	0	31992	
1986	0	32020	
1987	0	32044	
1988	0	32028	
1989	0	31940	
1990	0	31912	
1991	0	31916	
1992	0	31924	
1993	0	31940	
1994	0	31936	
1995	0	31888	
1996	0	31872	
1997	0	31864	
1998	0	31840	
1999	0	31868	
2000	0	31892	
2001	0	31956	
2002	0	32032	
2003	0	32052	
2004	0	32036	
2005	0	32064	
2006	0	32100	
2007	0	32092	
2008	0	32068	
2009	0	32076	
2010	0	32060	
2011	0	32040	
2012	0	32044	
2013	0	32060	
2014	0	32096	
2015	0	32144	
2016	0	32112	
2017	0	32088	
2018	0	32048	
2019	0	32012	
2020	0	32028	
2021	0	32030	
2022	0	32016	
2023	0	32012	
2024	0	31988	
2025	0	31970	
2026	0	32004	
2027	0	32052	
2028	0	32116	
2029	0	32164	
2030	0	32168	
2031	0	32164	
2032	0	32164	
2033	0	32172	
2034	0	32172	
2035	0	32184	
2036	0	32224	
2037	0	32260	
2038	0	32236	
2039	0	32220	
2040	0	32220	
2041	0	32248	
2042	0	32296	
2043	0	32332	
2044	0	32380	
2045	0	32340	
2046	0	32280	
2047	0	32248	
2048	0	32236	
2049	0	32236	
2050	0	32236	
2051	0	32264	
2052	0	32264	
2053	0	32272	
2054	0	32280	
2055	0	32272	
2056	0	32252	
2057	0	32306	
2058	0	32352	
2059	0	32388	
2060	0	32420	
2061	0	32436	
2062	0	32440	
2063	0	32392	
2064	0	32326	
2065	0	32324	
2066	0	32324	
2067	0	32308	
2068	0	32352	
2069	0	32352	
2070	0	32368	
2071	0	32376	
2072	0	32352	
2073	0	32332	
2074	0	32344	
2075	0	32360	
2076	0	32424	
2077	0	32428	
2078	0	32388	
2079	0	32384	
2080	0	32426	
2081	0	32476	
2082	0	32506	
2083	0	32544	
2084	0	32588	
2085	0	32616	
2086	0	32632	
2087	0	32644	
2088	0	32648	
2089	0	32600	
2090	0	32536	
2091	0	32516	
2092	0	32484	
2093	0	32480	
2094	0	32476	
2095	0	32448	
2096	0	32480	
2097	0	32480	
2098	0	32476	
2099	0	32480	
2100	0	32512	
2101	0	32540	
2102	0	32602	
2103	0	32654	
2104	0	32648	
2105	0	32620	
2106	0	32608	
2107	0	32600	
2108	0	32608	
2109	0	32628	
2110	0	32624	
2111	0	32632	
2112	0	32640	
2113	0	32648	
2114	0	32652	
2115	0	32634	
2116	0	32668	
2117	0	32684	
2118	0	32692	
2119	0	32700	
2120	0	32720	
2121	0	32736	
2122	0	32740	
2123	0	32720	
2124	0	32690	
2125	0	32712	
2126	0	32720	
2127	0	32716	
2128	0	32736	
2129	0	32740	
2130	0	32748	
2131	0	32760	
2132	0	32824	
2133	0	32872	
2134	0	32872	
2135	0	32816	
2136	0	32736	
2137	0	32688	
2138	0	32652	
2139	0	32644	
2140	0	32664	
2141	0	32728	
2142	0	32792	
2143	0	32828	
2144	0	32834	
2145	0	32872	
2146	0	32856	
2147	0	32824	
2148	0	32864	
2149	0	32882	
2150	0	32784	
2151	0	32716	
2152	0	32736	
2153	0	32776	
2154	0	32840	
2155	0	32920	
2156	0	32980	
2157	0	32992	
2158	0	33016	
2159	0	33028	
2160	0	33034	
2161	0	33060	
2162	0	33056	
2163	0	33036	
2164	0	33028	
2165	0	33008	
2166	0	32960	
2167	0	32972	
2168	0	33024	
2169	0	33104	
2170	0	33160	
2171	0	33160	
2172	0	33180	
2173	0	33264	
2174	0	33400	
2175	0	33516	
2176	0	33568	
2177	0	33640	
2178	0	33728	
2179	0	33784	
2180	0	33796	
2181	0	33848	
2182	0	33856	
2183	0	33856	
2184	0	33872	
2185	0	33896	
2186	0	33884	
2187	0	33868	
2188	0	33864	
2189	0	33816	
2190	0	33764	
2191	0	33796	
2192	0	33792	
2193	0	33756	
2194	0	33724	
2195	0	33772	
2196	0	33844	
2197	0	33900	
2198	0	34016	
2199	0	34196	
2200	0	34392	
2201	0	34668	
2202	0	34916	
2203	0	35152	
2204	0	35376	
2205	0	35520	
2206	0	35628	
2207	0	35712	
2208	0	35852	
2209	0	35992	
2210	0	36068	
2211	0	36052	
2212	0	36010	
2213	0	35912	
2214	0	35764	
2215	0	35632	
2216	0	35496	
2217	0	35408	
2218	0	35272	
2219	0	35112	
2220	0	34952	
2221	0	34784	
2222	0	34644	
2223	0	34530	
2224	0	34468	
2225	0	34404	
2226	0	34292	
2227	0	34196	
2228	0	34096	
2229	0	33992	
2230	0	33936	
2231	0	33908	
2232	0	33806	
2233	0	33712	
2234	0	33600	
2235	0	33544	
2236	0	33508	
2237	0	33486	
2238	0	33428	
2239	0	33336	
2240	0	33228	
2241	0	33150	
2242	0	33112	
2243	0	33056	
2244	0	32956	
2245	0	32784	
2246	0	32624	
2247	0	32492	
2248	0	32384	
2249	0	32202	
2250	0	32088	
2251	0	32064	
2252	0	32074	
2253	0	32056	
2254	0	32056	
2255	0	32056	
2256	0	32032	
2257	0	32026	
2258	0	32032	
2259	0	32080	
2260	0	32120	
2261	0	32148	
2262	0	32176	
2263	0	32140	
2264	0	32096	
2265	0	32092	
2266	0	32132	
2267	0	32168	
2268	0	32156	
2269	0	32208	
2270	0	32216	
2271	0	32176	
2272	0	32156	
2273	0	32184	
2274	0	32220	
2275	0	32256	
2276	0	32264	
2277	0	32256	
2278	0	32300	
2279	0	32332	
2280	0	32340	
2281	0	32344	
2282	0	32348	
2283	0	32376	
2284	0	32440	
2285	0	32520	
2286	0	32528	
2287	0	32524	
2288	0	32456	
2289	0	32352	
2290	0	32188	
2291	0	31900	
2292	0	31440	
2293	0	30816	
2294	0	30060	
2295	0	29368	
2296	0	28928	
2297	0	28708	
2298	0	28620	
2299	0	28728	
2300	0	29020	
2301	0	29540	
2302	0	30304	
2303	0	31248	
2304	0	32352	
2305	0	33708	
2306	0	35292	
2307	0	36974	
2308	0	38884	
2309	0	41196	
2310	0	43840	
2311	0	47028	
2312	0	50752	
2313	0	54504	
2314	0	58072	
2315	0	61328	
2316	0	63252	
2317	0	64264	
2318	0	64744	
2319	0	64980	
2320	0	65024	
2321	0	64988	
2322	0	64920	
2323	0	64820	
2324	0	64712	
2325	0	64580	
2326	0	64352	
2327	0	57932	
2328	0	52688	
2329	0	48420	
2330	0	44904	
2331	0	42016	
2332	0	39632	
2333	0	37512	
2334	0	35660	
2335	0	34012	
2336	0	32568	
2337	0	31372	
2338	0	30432	
2339	0	29624	
2340	0	29000	
2341	0	28512	
2342	0	28144	
2343	0	27932	
2344	0	27728	
2345	0	27516	
2346	0	27340	
2347	0	27268	
2348	0	27328	
2349	0	27500	
2350	0	27732	
2351	0	28044	
2352	0	28340	
2353	0	28572	
2354	0	28780	
2355	0	29004	
2356	0	29234	
2357	0	29360	
2358	0	29460	
2359	0	29484	
2360	0	29492	
2361	0	29544	
2362	0	29616	
2363	0	29648	
2364	0	29656	
2365	0	29636	
2366	0	29622	
2367	0	29574	
2368	0	29524	
2369	0	29498	
2370	0	29484	
2371	0	29544	
2372	0	29604	
2373	0	29608	
2374	0	29592	
2375	0	29588	
2376	0	29580	
2377	0	29624	
2378	0	29712	
2379	0	29792	
2380	0	29836	
2381	0	29868	
2382	0	29876	
2383	0	29872	
2384	0	29888	
2385	0	29928	
2386	0	29952	
2387	0	30020	
2388	0	30058	
2389	0	30102	
2390	0	30154	
2391	0	30220	
2392	0	30304	
2393	0	30304	
2394	0	30312	
2395	0	30336	
2396	0	30344	
2397	0	30364	
2398	0	30432	
2399	0	30526	
2400	0	30592	
2401	0	30640	
2402	0	30692	
2403	0	30728	
2404	0	30784	
2405	0	30840	
2406	0	30888	
2407	0	30912	
2408	0	30932	
2409	0	30984	
2410	0	31002	
2411	0	31008	
2412	0	31028	
2413	0	31040	
2414	0	31028	
2415	0	31072	
2416	0	31184	
2417	0	31300	
2418	0	31376	
2419	0	31372	
2420	0	31336	
2421	0	31336	
2422	0	31348	
2423	0	31408	
2424	0	31458	
2425	0	31524	
2426	0	31556	
2427	0	31604	
2428	0	31652	
2429	0	31700	
2430	0	31756	
2431	0	31784	
2432	0	31788	
2433	0	31816	
2434	0	31852	
2435	0	31888	
2436	0	31972	
2437	0	32048	
2438	0	32104	
2439	0	32124	
2440	0	32128	
2441	0	32200	
2442	0	32268	
2443	0	32312	
2444	0	32296	
2445	0	32272	
2446	0	32296	
2447	0	32352	
2448	0	32416	
2449	0	32480	
2450	0	32524	
2451	0	32532	
2452	0	32536	
2453	0	32568	
2454	0	32640	
2455	0	32720	
2456	0	32764	
2457	0	32856	
2458	0	32932	
2459	0	32976	
2460	0	33000	
2461	0	33032	
2462	0	33100	
2463	0	33160	
2464	0	33232	
2465	0	33288	
2466	0	33328	
2467	0	33344	
2468	0	33308	
2469	0	33296	
2470	0	33320	
2471	0	33352	
2472	0	33396	
2473	0	33500	
2474	0	33600	
2475	0	33724	
2476	0	33776	
2477	0	33796	
2478	0	33856	
2479	0	33922	
2480	0	34018	
2481	0	34076	
2482	0	34104	
2483	0	34144	
2484	0	34200	
2485	0	34244	
2486	0	34324	
2487	0	34404	
2488	0	34528	
2489	0	34588	
2490	0	34644	
2491	0	34676	
2492	0	34746	
2493	0	34848	
2494	0	34920	
2495	0	34948	
2496	0	35034	
2497	0	35056	
2498	0	35052	
2499	0	35048	
2500	0	35092	
2501	0	35130	
2502	0	35176	
2503	0	35256	
2504	0	35372	
2505	0	35508	
2506	0	35552	
2507	0	35584	
2508	0	35640	
2509	0	35680	
2510	0	35752	
2511	0	35852	
2512	0	35932	
2513	0	35968	
2514	0	35988	
2515	0	36032	
2516	0	36072	
2517	0	36164	
2518	0	36236	
2519	0	36268	
2520	0	36268	
2521	0	36320	
2522	0	36370	
2523	0	36416	
2524	0	36480	
2525	0	36492	
2526	0	36464	
2527	0	36442	
2528	0	36424	
2529	0	36440	
2530	0	36434	
2531	0	36428	
2532	0	36416	
2533	0	36408	
2534	0	36456	
2535	0	36464	
2536	0	36444	
2537	0	36408	
2538	0	36410	
2539	0	36394	
2540	0	36368	
2541	0	36304	
2542	0	36272	
2543	0	36268	
2544	0	36216	
2545	0	36144	
2546	0	36108	
2547	0	36044	
2548	0	35992	
2549	0	35976	
2550	0	35964	
2551	0	35932	
2552	0	35916	
2553	0	35912	
2554	0	35896	
2555	0	35868	
2556	0	35884	
2557	0	35832	
2558	0	35808	
2559	0	35784	
2560	0	35704	
2561	0	35672	
2562	0	35584	
2563	0	35460	
2564	0	35360	
2565	0	35248	
2566	0	35160	
2567	0	35088	
2568	0	35008	
2569	0	34920	
2570	0	34840	
2571	0	34700	
2572	0	34512	
2573	0	34360	
2574	0	34224	
2575	0	34060	
2576	0	33884	
2577	0	33704	
2578	0	33536	
2579	0	33364	
2580	0	33204	
2581	0	33020	
2582	0	32884	
2583	0	32732	
2584	0	32600	
2585	0	32468	
2586	0	32300	
2587	0	32148	
2588	0	32064	
2589	0	31972	
2590	0	31832	
2591	0	31680	
2592	0	31520	
2593	0	31360	
2594	0	31176	
2595	0	30968	
2596	0	30804	
2597	0	30680	
2598	0	30600	
2599	0	30548	
2600	0	30476	
2601	0	30408	
2602	0	30324	
2603	0	30216	
2604	0	30148	
2605	0	30100	
2606	0	30032	
2607	0	29928	
2608	0	29824	
2609	0	29732	
2610	0	29692	
2611	0	29648	
2612	0	29564	
2613	0	29480	
2614	0	29404	
2615	0	29368	
2616	0	29368	
2617	0	29340	
2618	0	29292	
2619	0	29210	
2620	0	29148	
2621	0	29148	
2622	0	29160	
2623	0	29176	
2624	0	29176	
2625	0	29116	
2626	0	29056	
2627	0	29016	
2628	0	28980	
2629	0	29024	
2630	0	29068	
2631	0	29086	
2632	0	29108	
2633	0	29184	
2634	0	29208	
2635	0	29144	
2636	0	29124	
2637	0	29092	
2638	0	29098	
2639	0	29084	
2640	0	29108	
2641	0	29200	
2642	0	29248	
2643	0	29264	
2644	0	29324	
2645	0	29376	
2646	0	29388	
2647	0	29412	
2648	0	29476	
2649	0	29520	
2650	0	29552	
2651	0	29564	
2652	0	29580	
2653	0	29592	
2654	0	29626	
2655	0	29680	
2656	0	29704	
2657	0	29762	
2658	0	29816	
2659	0	29856	
2660	0	29924	
2661	0	29928	
2662	0	29940	
2663	0	29956	
2664	0	30012	
2665	0	30096	
2666	0	30128	
2667	0	30160	
2668	0	30216	
2669	0	30282	
2670	0	30306	
2671	0	30332	
2672	0	30348	
2673	0	30384	
2674	0	30438	
2675	0	30496	
2676	0	30564	
2677	0	30636	
2678	0	30648	
2679	0	30668	
2680	0	30704	
2681	0	30748	
2682	0	30776	
2683	0	30752	
2684	0	30704	
2685	0	30684	
2686	0	30720	
2687	0	30784	
2688	0	30816	
2689	0	30848	
2690	0	30896	
2691	0	30936	
2692	0	30996	
2693	0	31060	
2694	0	31074	
2695	0	31122	
2696	0	31172	
2697	0	31204	
2698	0	31168	
2699	0	31124	
2700	0	31096	
2701	0	31180	
2702	0	31228	
2703	0	31256	
2704	0	31236	
2705	0	31240	
2706	0	31232	
2707	0	31208	
2708	0	31192	
2709	0	31212	
2710	0	31228	
2711	0	31258	
2712	0	31280	
2713	0	31296	
2714	0	31328	
2715	0	31360	
2716	0	31392	
2717	0	31416	
2718	0	31440	
2719	0	31472	
2720	0	31452	
2721	0	31432	
2722	0	31420	
2723	0	31444	
2724	0	31500	
2725	0	31504	
2726	0	31548	
2727	0	31632	
2728	0	31700	
2729	0	31688	
2730	0	31628	
2731	0	31604	
2732	0	31600	
2733	0	31568	
2734	0	31584	
2735	0	31600	
2736	0	31616	
2737	0	31608	
2738	0	31624	
2739	0	31640	
2740	0	31648	
2741	0	31652	
2742	0	31652	
2743	0	31708	
2744	0	31724	
2745	0	31728	
2746	0	31728	
2747	0	31744	
2748	0	31724	
2749	0	31728	
2750	0	31760	
2751	0	31784	
2752	0	31764	
2753	0	31760	
2754	0	31796	
2755	0	31824	
2756	0	31828	
2757	0	31772	
2758	0	31748	
2759	0	31748	
2760	0	31768	
2761	0	31776	
2762	0	31744	
2763	0	31736	
2764	0	31744	
2765	0	31728	
2766	0	31668	
2767	0	31634	
2768	0	31664	
2769	0	31688	
2770	0	31712	
2771	0	31760	
2772	0	31752	
2773	0	31736	
2774	0	31732	
2775	0	31776	
2776	0	31824	
2777	0	31824	
2778	0	31788	
2779	0	31772	
2780	0	31744	
2781	0	31720	
2782	0	31724	
2783	0	31760	
2784	0	31716	
2785	0	31696	
2786	0	31720	
2787	0	31728	
2788	0	31712	
2789	0	31704	
2790	0	31692	
2791	0	31616	
2792	0	31572	
2793	0	31580	
2794	0	31580	
2795	0	31600	
2796	0	31640	
2797	0	31676	
2798	0	31676	
2799	0	31692	
2800	0	31740	
2801	0	31778	
2802	0	31816	
2803	0	31852	
2804	0	31860	
2805	0	31842	
2806	0	31834	
2807	0	31856	
2808	0	31872	
2809	0	31872	
2810	0	31904	
2811	0	31916	
2812	0	31873	
2813	0	31840	
2814	0	31834	
2815	0	31840	
2816	0	31828	
2817	0	31808	
2818	0	31824	
2819	0	31832	
2820	0	31844	
2821	0	31816	
2822	0	31834	
2823	0	31888	
2824	0	31912	
2825	0	31908	
2826	0	31872	
2827	0	31834	
2828	0	31840	
2829	0	31848	
2830	0	31850	
2831	0	31880	
2832	0	31908	
2833	0	31924	
2834	0	31948	
2835	0	31928	
2836	0	31892	
2837	0	31880	
2838	0	31908	
2839	0	31936	
2840	0	31960	
2841	0	31956	
2842	0	31968	
2843	0	32004	
2844	0	32028	
2845	0	32048	
2846	0	32072	
2847	0	32056	
2848	0	32036	
2849	0	31992	
2850	0	31980	
2851	0	31968	
2852	0	31984	
2853	0	32000	
2854	0	32020	
2855	0	32060	
2856	0	32030	
2857	0	32004	
2858	0	32012	
2859	0	32040	
2860	0	32072	
2861	0	32084	
2862	0	32138	
2863	0	32192	
2864	0	32192	
2865	0	32192	
2866	0	32156	
2867	0	32116	
2868	0	32116	
2869	0	32128	
2870	0	32136	
2871	0	32176	
2872	0	32224	
2873	0	32256	
2874	0	32232	
2875	0	32216	
2876	0	32252	
2877	0	32264	
2878	0	32240	
2879	0	32274	
2880	0	32268	
2881	0	32272	
2882	0	32264	
2883	0	32272	
2884	0	32276	
2885	0	32224	
2886	0	32144	
2887	0	32164	
2888	0	32192	
2889	0	32208	
2890	0	32228	
2891	0	32224	
2892	0	32220	
2893	0	32228	
2894	0	32262	
2895	0	32284	
2896	0	32314	
2897	0	32324	
2898	0	32340	
2899	0	32340	
2900	0	32352	
2901	0	32400	
2902	0	32468	
2903	0	32504	
2904	0	32496	
2905	0	32484	
2906	0	32448	
2907	0	32440	
2908	0	32408	
2909	0	32344	
2910	0	32328	
2911	0	32338	
2912	0	32344	
2913	0	32344	
2914	0	32328	
2915	0	32344	
2916	0	32396	
2917	0	32456	
2918	0	32472	
2919	0	32464	
2920	0	32480	
2921	0	32488	
2922	0	32512	
2923	0	32528	
2924	0	32492	
2925	0	32468	
2926	0	32468	
2927	0	32452	
2928	0	32484	
2929	0	32514	
2930	0	32552	
2931	0	32560	
2932	0	32524	
2933	0	32484	
2934	0	32484	
2935	0	32502	
2936	0	32536	
2937	0	32564	
2938	0	32588	
2939	0	32584	
2940	0	32608	
2941	0	32632	
2942	0	32634	
2943	0	32640	
2944	0	32604	
2945	0	32560	
2946	0	32540	
2947	0	32508	
2948	0	32456	
2949	0	32404	
2950	0	32412	
2951	0	32448	
2952	0	32504	
2953	0	32540	
2954	0	32572	
2955	0	32564	
2956	0	32576	
2957	0	32580	
2958	0	32548	
2959	0	32508	
2960	0	32538	
2961	0	32612	
2962	0	32660	
2963	0	32688	
2964	0	32696	
2965	0	32686	
2966	0	32668	
2967	0	32684	
2968	0	32700	
2969	0	32736	
2970	0	32692	
2971	0	32656	
2972	0	32624	
2973	0	32600	
2974	0	32544	
2975	0	32556	
2976	0	32556	
2977	0	32572	
2978	0	32554	
2979	0	32564	
2980	0	32620	
2981	0	32680	
2982	0	32720	
2983	0	32728	
2984	0	32752	
2985	0	32772	
2986	0	32832	
2987	0	32844	
2988	0	32852	
2989	0	32896	
2990	0	32928	
2991	0	32956	
2992	0	32936	
2993	0	32872	
2994	0	32872	
2995	0	32868	
2996	0	32860	
2997	0	32848	
2998	0	32816	
2999	0	32828	
3000	0	32800	
3001	0	32752	
3002	0	32736	
3003	0	32780	
3004	0	32872	
3005	0	32932	
3006	0	32996	
3007	0	33004	
3008	0	33024	
3009	0	33116	
3010	0	33228	
3011	0	33292	
3012	0	33372	
3013	0	33464	
3014	0	33568	
3015	0	33666	
3016	0	33744	
3017	0	33784	
3018	0	33744	
3019	0	33740	
3020	0	33780	
3021	0	33778	
3022	0	33784	
3023	0	33818	
3024	0	33820	
3025	0	33784	
3026	0	33760	
3027	0	33728	
3028	0	33660	
3029	0	33608	
3030	0	33620	
3031	0	33680	
3032	0	33728	
3033	0	33798	
3034	0	33900	
3035	0	34084	
3036	0	34360	
3037	0	34680	
3038	0	34976	
3039	0	35200	
3040	0	35392	
3041	0	35512	
3042	0	35640	
3043	0	35740	
3044	0	35856	
3045	0	35900	
3046	0	35896	
3047	0	35800	
3048	0	35724	
3049	0	35640	
3050	0	35544	
3051	0	35436	
3052	0	35392	
3053	0	35304	
3054	0	35172	
3055	0	35016	
3056	0	34832	
3057	0	34664	
3058	0	34512	
3059	0	34408	
3060	0	34288	
3061	0	34192	
3062	0	34042	
3063	0	33940	
3064	0	33840	
3065	0	33756	
3066	0	33688	
3067	0	33640	
3068	0	33584	
3069	0	33504	
3070	0	33420	
3071	0	33352	
3072	0	33292	
3073	0	33200	
3074	0	33092	
3075	0	33004	
3076	0	32888	
3077	0	32814	
3078	0	32760	
3079	0	32648	
3080	0	32514	
3081	0	32380	
3082	0	32264	
3083	0	32188	
3084	0	32072	
3085	0	31960	
3086	0	31868	
3087	0	31800	
3088	0	31776	
3089	0	31756	
3090	0	31768	
3091	0	31788	
3092	0	31796	
3093	0	31816	
3094	0	31792	
3095	0	31764	
3096	0	31756	
3097	0	31760	
3098	0	31792	
3099	0	31832	
3100	0	31828	
3101	0	31896	
3102	0	31940	
3103	0	31944	
3104	0	31960	
3105	0	32032	
3106	0	32084	
3107	0	32096	
3108	0	32132	
3109	0	32124	
3110	0	32104	
3111	0	32048	
3112	0	32048	
3113	0	32080	
3114	0	32148	
3115	0	32200	
3116	0	32224	
3117	0	32284	
3118	0	32288	
3119	0	32300	
3120	0	32332	
3121	0	32360	
3122	0	32392	
3123	0	32400	
3124	0	32260	
3125	0	31996	
3126	0	31700	
3127	0	31276	
3128	0	30680	
3129	0	29956	
3130	0	29320	
3131	0	28896	
3132	0	28704	
3133	0	28602	
3134	0	28668	
3135	0	28968	
3136	0	29544	
3137	0	30400	
3138	0	31420	
3139	0	32560	
3140	0	33904	
3141	0	35448	
3142	0	37100	
3143	0	39012	
3144	0	41344	
3145	0	44052	
3146	0	47352	
3147	0	51164	
3148	0	54952	
3149	0	58584	
3150	0	61624	
3151	0	63312	
3152	0	64168	
3153	0	64596	
3154	0	64752	
3155	0	64792	
3156	0	64756	
3157	0	64668	
3158	0	64560	
3159	0	64448	
3160	0	64328	
3161	0	63588	
3162	0	57276	
3163	0	52136	
3164	0	47936	
3165	0	44464	
3166	0	41676	
3167	0	39328	
3168	0	37304	
3169	0	35476	
3170	0	33836	
3171	0	32360	
3172	0	31076	
3173	0	30068	
3174	0	29280	
3175	0	28696	
3176	0	28248	
3177	0	27906	
3178	0	27660	
3179	0	27448	
3180	0	27252	
3181	0	27088	
3182	0	26976	
3183	0	27026	
3184	0	27208	
3185	0	27526	
3186	0	27872	
3187	0	28160	
3188	0	28424	
3189	0	28668	
3190	0	28952	
3191	0	29200	
3192	0	29396	
3193	0	29508	
3194	0	29560	
3195	0	29560	
3196	0	29552	
3197	0	29504	
3198	0	29468	
3199	0	29464	
3200	0	29474	
3201	0	29440	
3202	0	29424	
3203	0	29428	
3204	0	29424	
3205	0	29440	
3206	0	29440	
3207	0	29424	
3208	0	29440	
3209	0	29488	
3210	0	29528	
3211	0	29514	
3212	0	29500	
3213	0	29530	
3214	0	29616	
3215	0	29644	
3216	0	29674	
3217	0	29708	
3218	0	29726	
3219	0	29796	
3220	0	29896	
3221	0	29924	
3222	0	29904	
3223	0	29896	
3224	0	29928	
3225	0	29960	
3226	0	30058	
3227	0	30124	
3228	0	30184	
3229	0	30256	
3230	0	30292	
3231	0	30300	
3232	0	30312	
3233	0	30372	
3234	0	30420	
3235	0	30448	
3236	0	30460	
3237	0	30506	
3238	0	30584	
3239	0	30636	
3240	0	30688	
3241	0	30772	
3242	0	30850	
3243	0	30912	
3244	0	30958	
3245	0	31000	
3246	0	31024	
3247	0	31028	
3248	0	31080	
3249	0	31084	
3250	0	31084	
3251	0	31124	
3252	0	31128	
3253	0	31124	
3254	0	31140	
3255	0	31200	
3256	0	31266	
3257	0	31310	
3258	0	31360	
3259	0	31422	
3260	0	31496	
3261	0	31568	
3262	0	31616	
3263	0	31656	
3264	0	31672	
3265	0	31704	
3266	0	31724	
3267	0	31760	
3268	0	31796	
3269	0	31840	
3270	0	31882	
3271	0	31968	
3272	0	31996	
3273	0	32000	
3274	0	32044	
3275	0	32080	
3276	0	32133	
3277	0	32220	
3278	0	32256	
3279	0	32276	
3280	0	32320	
3281	0	32376	
3282	0	32448	
3283	0	32504	
3284	0	32516	
3285	0	32512	
3286	0	32536	
3287	0	32544	
3288	0	32576	
3289	0	32592	
3290	0	32628	
3291	0	32732	
3292	0	32868	
3293	0	32950	
3294	0	33012	
3295	0	33084	
3296	0	33132	
3297	0	33188	
3298	0	33284	
3299	0	33368	
3300	0	33384	
3301	0	33432	
3302	0	33504	
3303	0	33608	
3304	0	33696	
3305	0	33704	
3306	0	33728	
3307	0	33772	
3308	0	33812	
3309	0	33836	
3310	0	33892	
3311	0	33936	
3312	0	33990	
3313	0	34048	
3314	0	34060	
3315	0	34040	
3316	0	34048	
3317	0	34080	
3318	0	34128	
3319	0	34208	
3320	0	34312	
3321	0	34440	
3322	0	34552	
3323	0	34660	
3324	0	34752	
3325	0	34792	
3326	0	34860	
3327	0	34892	
3328	0	34952	
3329	0	34984	
3330	0	35024	
3331	0	35128	
3332	0	35228	
3333	0	35364	
3334	0	35428	
3335	0	35460	
3336	0	35474	
3337	0	35532	
3338	0	35576	
3339	0	35624	
3340	0	35664	
3341	0	35668	
3342	0	35736	
3343	0	35872	
3344	0	35944	
3345	0	35968	
3346	0	36026	
3347	0	36068	
3348	0	36128	
3349	0	36172	
3350	0	36216	
3351	0	36256	
3352	0	36272	
3353	0	36312	
3354	0	36308	
3355	0	36360	
3356	0	36376	
3357	0	36376	
3358	0	36376	
3359	0	36424	
3360	0	36496	
3361	0	36512	
3362	0	36512	
3363	0	36516	
3364	0	36532	
3365	0	36552	
3366	0	36588	
3367	0	36580	
3368	0	36544	
3369	0	36500	
3370	0	36444	
3371	0	36376	
3372	0	36308	
3373	0	36264	
3374	0	36252	
3375	0	36214	
3376	0	36168	
3377	0	36146	
3378	0	36152	
3379	0	36188	
3380	0	36212	
3381	0	36194	
3382	0	36148	
3383	0	36084	
3384	0	36072	
3385	0	36068	
3386	0	36036	
3387	0	35980	
3388	0	35918	
3389	0	35856	
3390	0	35808	
3391	0	35724	
3392	0	35660	
3393	0	35642	
3394	0	35588	
3395	0	35532	
3396	0	35516	
3397	0	35514	
3398	0	35480	
3399	0	35424	
3400	0	35354	
3401	0	35212	
3402	0	35104	
3403	0	35016	
3404	0	34928	
3405	0	34832	
3406	0	34740	
3407	0	34540	
3408	0	34376	
3409	0	34204	
3410	0	34016	
3411	0	33844	
3412	0	33660	
3413	0	33516	
3414	0	33356	
3415	0	33200	
3416	0	33026	
3417	0	32896	
3418	0	32808	
3419	0	32716	
3420	0	32560	
3421	0	32412	
3422	0	32208	
3423	0	32048	
3424	0	31904	
3425	0	31760	
3426	0	31612	
3427	0	31504	
3428	0	31384	
3429	0	31256	
3430	0	31130	
3431	0	31066	
3432	0	31008	
3433	0	30924	
3434	0	30814	
3435	0	30720	
3436	0	30612	
3437	0	30468	
3438	0	30384	
3439	0	30288	
3440	0	30160	
3441	0	30072	
3442	0	30036	
3443	0	30012	
3444	0	29956	
3445	0	29856	
3446	0	29716	
3447	0	29568	
3448	0	29420	
3449	0	29332	
3450	0	29296	
3451	0	29252	
3452	0	29176	
3453	0	29098	
3454	0	29052	
3455	0	29016	
3456	0	28966	
3457	0	28932	
3458	0	28940	
3459	0	28924	
3460	0	28944	
3461	0	28976	
3462	0	29024	
3463	0	29068	
3464	0	29108	
3465	0	29148	
3466	0	29180	
3467	0	29156	
3468	0	29149	
3469	0	29156	
3470	0	29132	
3471	0	29102	
3472	0	29104	
3473	0	29152	
3474	0	29232	
3475	0	29284	
3476	0	29336	
3477	0	29360	
3478	0	29392	
3479	0	29440	
3480	0	29472	
3481	0	29452	
3482	0	29428	
3483	0	29464	
3484	0	29524	
3485	0	29592	
3486	0	29648	
3487	0	29668	
3488	0	29676	
3489	0	29664	
3490	0	29666	
3491	0	29678	
3492	0	29680	
3493	0	29722	
3494	0	29792	
3495	0	29866	
3496	0	29912	
3497	0	29962	
3498	0	30030	
3499	0	30080	
3500	0	30124	
3501	0	30208	
3502	0	30260	
3503	0	30280	
3504	0	30308	
3505	0	30304	
3506	0	30276	
3507	0	30272	
3508	0	30260	
3509	0	30242	
3510	0	30224	
3511	0	30244	
3512	0	30336	
3513	0	30432	
3514	0	30500	
3515	0	30592	
3516	0	30680	
3517	0	30760	
3518	0	30778	
3519	0	30780	
3520	0	30816	
3521	0	30906	
3522	0	30956	
3523	0	31008	
3524	0	31064	
3525	0	31108	
3526	0	31146	
3527	0	31176	
3528	0	31184	
3529	0	31166	
3530	0	31144	
3531	0	31152	
3532	0	31196	
3533	0	31256	
3534	0	31296	
3535	0	31336	
3536	0	31328	
3537	0	31328	
3538	0	31296	
3539	0	31220	
3540	0	31172	
3541	0	31168	
3542	0	31184	
3543	0	31256	
3544	0	31364	
3545	0	31464	
3546	0	31528	
3547	0	31556	
3548	0	31552	
3549	0	31536	
3550	0	31504	
3551	0	31516	
3552	0	31520	
3553	0	31564	
3554	0	31604	
3555	0	31644	
3556	0	31684	
3557	0	31728	
3558	0	31740	
3559	0	31714	
3560	0	31728	
3561	0	31728	
3562	0	31720	
3563	0	31768	
3564	0	31748	
3565	0	31740	
3566	0	31804	
3567	0	31868	
3568	0	31900	
3569	0	31940	
3570	0	31976	
3571	0	31972	
3572	0	31992	
3573	0	31988	
3574	0	31956	
3575	0	31968	
3576	0	31968	
3577	0	31952	
3578	0	31936	
3579	0	31896	
3580	0	31860	
3581	0	31792	
3582	0	31712	
3583	0	31628	
3584	0	31616	
3585	0	31620	
3586	0	31644	
3587	0	31708	
3588	0	31800	
3589	0	31904	
3590	0	31928	
3591	0	31948	
3592	0	31984	
3593	0	32008	
3594	0	31968	
3595	0	31940	
3596	0	31964	
3597	0	31980	
3598	0	31972	
3599	0	31936	
3600	0	31920	
3601	0	31936	
3602	0	31920	
3603	0	31896	
3604	0	31868	
3605	0	31900	
3606	0	31914	
3607	0	31956	
3608	0	31980	
3609	0	31984	
3610	0	31964	
3611	0	31932	
3612	0	31922	
3613	0	31896	
3614	0	31892	
3615	0	31852	
3616	0	31784	
3617	0	31778	
3618	0	31768	
3619	0	31712	
3620	0	31680	
3621	0	31656	
3622	0	31646	
3623	0	31680	
3624	0	31744	
3625	0	31808	
3626	0	31892	
3627	0	31936	
3628	0	31948	
3629	0	31980	
3630	0	31968	
3631	0	31952	
3632	0	31940	
3633	0	31908	
3634	0	31884	
3635	0	31856	
3636	0	31828	
3637	0	31850	
3638	0	31832	
3639	0	31826	
3640	0	31860	
3641	0	31920	
3642	0	31968	
3643	0	31968	
3644	0	31936	
3645	0	31906	
3646	0	31920	
3647	0	31952	
3648	0	31968	
3649	0	31888	
3650	0	31848	
3651	0	31840	
3652	0	31848	
3653	0	31868	
3654	0	31928	
3655	0	31968	
3656	0	31948	
3657	0	31904	
3658	0	31876	
3659	0	31884	
3660	0	31912	
3661	0	31972	
3662	0	31984	
3663	0	31984	
3664	0	31996	
3665	0	31994	
3666	0	31956	
3667	0	31936	
3668	0	31916	
3669	0	31888	
3670	0	31864	
3671	0	31832	
3672	0	31784	
3673	0	31808	
3674	0	31860	
3675	0	31864	
3676	0	31896	
3677	0	31920	
3678	0	31888	
3679	0	31856	
3680	0	31900	
3681	0	31944	
3682	0	31972	
3683	0	31988	
3684	0	32032	
3685	0	32032	
3686	0	31992	
3687	0	32012	
3688	0	32004	
3689	0	31986	
3690	0	31944	
3691	0	31892	
3692	0	31856	
3693	0	31844	
3694	0	31852	
3695	0	31828	
3696	0	31804	
3697	0	31800	
3698	0	31832	
3699	0	31904	
3700	0	31986	
3701	0	32090	
3702	0	32164	
3703	0	32218	
3704	0	32236	
3705	0	32248	
3706	0	32296	
3707	0	32288	
3708	0	32264	
3709	0	32256	
3710	0	32220	
3711	0	32160	
3712	0	32092	
3713	0	32048	
3714	0	32068	
3715	0	32152	
3716	0	32124	
3717	0	32080	
3718	0	32048	
3719	0	32084	
3720	0	32166	
3721	0	32252	
3722	0	32304	
3723	0	32316	
3724	0	32308	
3725	0	32284	
3726	0	32320	
3727	0	32420	
3728	0	32512	
3729	0	32540	
3730	0	32528	
3731	0	32448	
3732	0	32386	
3733	0	32356	
3734	0	32324	
3735	0	32324	
3736	0	32304	
3737	0	32232	
3738	0	32200	
3739	0	32252	
3740	0	32256	
3741	0	32254	
3742	0	32360	
3743	0	32432	
3744	0	32404	
3745	0	32320	
3746	0	32300	
3747	0	32336	
3748	0	32328	
3749	0	32336	
3750	0	32344	
3751	0	32338	
3752	0	32344	
3753	0	32352	
3754	0	32392	
3755	0	32368	
3756	0	32384	
3757	0	32376	
3758	0	32312	
3759	0	32272	
3760	0	32312	
3761	0	32376	
3762	0	32384	
3763	0	32372	
3764	0	32380	
3765	0	32372	
3766	0	32346	
3767	0	32336	
3768	0	32336	
3769	0	32348	
3770	0	32376	
3771	0	32380	
3772	0	32344	
3773	0	32312	
3774	0	32272	
3775	0	32244	
3776	0	32280	
3777	0	32304	
3778	0	32332	
3779	0	32364	
3780	0	32400	
3781	0	32536	
3782	0	32640	
3783	0	32640	
3784	0	32648	
3785	0	32656	
3786	0	32672	
3787	0	32656	
3788	0	32568	
3789	0	32524	
3790	0	32508	
3791	0	32544	
3792	0	32552	
3793	0	32568	
3794	0	32608	
3795	0	32572	
3796	0	32524	
3797	0	32524	
3798	0	32516	
3799	0	32504	
3800	0	32520	
3801	0	32564	
3802	0	32632	
3803	0	32634	
3804	0	32704	
3805	0	32776	
3806	0	32864	
3807	0	32900	
3808	0	32936	
3809	0	32908	
3810	0	32756	
3811	0	32660	
3812	0	32636	
3813	0	32628	
3814	0	32616	
3815	0	32600	
3816	0	32560	
3817	0	32528	
3818	0	32516	
3819	0	32588	
3820	0	32696	
3821	0	32752	
3822	0	32820	
3823	0	32864	
3824	0	32940	
3825	0	32992	
3826	0	32968	
3827	0	32868	
3828	0	32848	
3829	0	32896	
3830	0	32974	
3831	0	32992	
3832	0	33036	
3833	0	33058	
3834	0	33080	
3835	0	33104	
3836	0	33148	
3837	0	33180	
3838	0	33248	
3839	0	33344	
3840	0	33432	
3841	0	33504	
3842	0	33568	
3843	0	33636	
3844	0	33612	
3845	0	33646	
3846	0	33720	
3847	0	33712	
3848	0	33644	
3849	0	33540	
3850	0	33516	
3851	0	33548	
3852	0	33612	
3853	0	33672	
3854	0	33838	
3855	0	34028	
3856	0	34276	
3857	0	34528	
3858	0	34748	
3859	0	34888	
3860	0	34932	
3861	0	35020	
3862	0	35130	
3863	0	35264	
3864	0	35416	
3865	0	35560	
3866	0	35610	
3867	0	35552	
3868	0	35484	
3869	0	35464	
3870	0	35440	
3871	0	35420	
3872	0	35348	
3873	0	35256	
3874	0	35080	
3875	0	34864	
3876	0	34696	
3877	0	34592	
3878	0	34516	
3879	0	34396	
3880	0	34208	
3881	0	34008	
3882	0	33876	
3883	0	33800	
3884	0	33692	
3885	0	33568	
3886	0	33472	
3887	0	33400	
3888	0	33308	
3889	0	33208	
3890	0	33084	
3891	0	33052	
3892	0	33012	
3893	0	32944	
3894	0	32884	
3895	0	32848	
3896	0	32836	
3897	0	32756	
3898	0	32684	
3899	0	32640	
3900	0	32544	
3901	0	32464	
3902	0	32352	
3903	0	32257	
3904	0	32148	
3905	0	32040	
3906	0	31992	
3907	0	31908	
3908	0	31856	
3909	0	31816	
3910	0	31812	
3911	0	31872	
3912	0	31904	
3913	0	31904	
3914	0	31888	
3915	0	31868	
3916	0	31844	
3917	0	31792	
3918	0	31810	
3919	0	31900	
3920	0	32002	
3921	0	32052	
3922	0	32040	
3923	0	32036	
3924	0	32000	
3925	0	31956	
3926	0	31948	
3927	0	31968	
3928	0	31952	
3929	0	31972	
3930	0	31936	
3931	0	31888	
3932	0	31868	
3933	0	31856	
3934	0	31856	
3935	0	31850	
3936	0	31924	
3937	0	32016	
3938	0	32000	
3939	0	32004	
3940	0	32020	
3941	0	32108	
3942	0	32152	
3943	0	32092	
3944	0	32008	
3945	0	31904	
3946	0	31644	
3947	0	31212	
3948	0	30640	
3949	0	30068	
3950	0	29596	
3951	0	29348	
3952	0	29184	
3953	0	29092	
3954	0	29152	
3955	0	29484	
3956	0	30096	
3957	0	30932	
3958	0	31888	
3959	0	32912	
3960	0	34185	
3961	0	35672	
3962	0	37352	
3963	0	39320	
3964	0	41696	
3965	0	44568	
3966	0	47884	
3967	0	51436	
3968	0	54928	
3969	0	58352	
3970	0	61336	
3971	0	63044	
3972	0	63924	
3973	0	64340	
3974	0	64504	
3975	0	64556	
3976	0	64512	
3977	0	64432	
3978	0	64320	
3979	0	64208	
3980	0	57952	
3981	0	51880	
3982	0	46328	
3983	0	41720	
3984	0	38160	
3985	0	35504	
3986	0	33612	
3987	0	32200	
3988	0	31100	
3989	0	30232	
3990	0	29392	
3991	0	28508	
3992	0	27704	
3993	0	27092	
3994	0	26664	
3995	0	26336	
3996	0	26246	
3997	0	26248	
3998	0	26178	
3999	0	26018	
4000	0	25948	
4001	0	25906	
4002	0	26036	
4003	0	26300	
4004	0	26630	
4005	0	26904	
4006	0	27188	
4007	0	27552	
4008	0	27980	
4009	0	28392	
4010	0	28728	
4011	0	28956	
4012	0	29154	
4013	0	29388	
4014	0	29636	
4015	0	29794	
4016	0	29896	
4017	0	30002	
4018	0	30128	
4019	0	30200	
4020	0	30256	
4021	0	30264	
4022	0	30324	
4023	0	30332	
4024	0	30316	
4025	0	30340	
4026	0	30392	
4027	0	30460	
4028	0	30520	
4029	0	30604	
4030	0	30690	
4031	0	30680	
4032	0	30712	
4033	0	30768	
4034	0	30768	
4035	0	30780	
4036	0	30796	
4037	0	30856	
4038	0	30912	
4039	0	30896	
4040	0	30834	
4041	0	30780	
4042	0	30768	
4043	0	30708	
4044	0	30732	
4045	0	30766	
4046	0	30732	
4047	0	30684	
4048	0	30754	
4049	0	30848	
4050	0	30918	
4051	0	30996	
4052	0	31134	
4053	0	31244	
4054	0	31332	
4055	0	31412	
4056	0	31472	
4057	0	31512	
4058	0	31552	
4059	0	31608	
4060	0	31644	
4061	0	31716	
4062	0	31756	
4063	0	31712	
4064	0	31640	
4065	0	31620	
4066	0	31692	
4067	0	31772	
4068	0	31832	
4069	0	31880	
4070	0	31920	
4071	0	31948	
4072	0	31964	
4073	0	32016	
4074	0	32074	
4075	0	32228	
4076	0	32312	
4077	0	32376	
4078	0	32400	
4079	0	32460	
4080	0	32532	
4081	0	32548	
4082	0	32516	
4083	0	32484	
4084	0	32496	
4085	0	32548	
4086	0	32628	
4087	0	32780	
4088	0	32892	
4089	0	32968	
4090	0	33000	
4091	0	33048	
4092	0	33068	
4093	0	33072	
4094	0	33120	
4095	0	33188	
4096	0	33240	
4097	0	33280	
4098	0	33368	
4099	0	33400	
4100	0	33432	
4101	0	33470	
4102	0	33504	
4103	0	33448	
4104	0	33380	
4105	0	33378	
4106	0	33388	
4107	0	33344	
4108	0	33344	
4109	0	33372	
4110	0	33380	
4111	0	33408	
4112	0	33528	
4113	0	33628	
4114	0	33780	
4115	0	33864	
4116	0	33856	
4117	0	33868	
4118	0	33932	
4119	0	34100	
4120	0	34200	
4121	0	34240	
4122	0	34328	
4123	0	34312	
4124	0	34252	
4125	0	34268	
4126	0	34274	
4127	0	34312	
4128	0	34368	
4129	0	34462	
4130	0	34566	
4131	0	34644	
4132	0	34652	
4133	0	34632	
4134	0	34664	
4135	0	34718	
4136	0	34788	
4137	0	34900	
4138	0	35016	
4139	0	35120	
4140	0	35176	
4141	0	35184	
4142	0	35164	
4143	0	35208	
4144	0	35232	
4145	0	35376	
4146	0	35466	
4147	0	35432	
4148	0	35432	
4149	0	35516	
4150	0	35592	
4151	0	35716	
4152	0	35848	
4153	0	35916	
4154	0	36016	
4155	0	36100	
4156	0	36212	
4157	0	36376	
4158	0	36448	
4159	0	36480	
4160	0	36596	
4161	0	36752	
4162	0	36844	
4163	0	36864	
4164	0	36864	
4165	0	36848	
4166	0	36836	
4167	0	36848	
4168	0	36904	
4169	0	36904	
4170	0	36864	
4171	0	36848	
4172	0	36908	
4173	0	37000	
4174	0	37038	
4175	0	37108	
4176	0	37144	
4177	0	37184	
4178	0	37144	
4179	0	37136	
4180	0	37176	
4181	0	37232	
4182	0	37328	
4183	0	37348	
4184	0	37260	
4185	0	37200	
4186	0	37216	
4187	0	37216	
4188	0	37136	
4189	0	37112	
4190	0	37080	
4191	0	37080	
4192	0	37112	
4193	0	37172	
4194	0	37200	
4195	0	37194	
4196	0	37196	
4197	0	37176	
4198	0	37132	
4199	0	37056	
4200	0	37020	
4201	0	36980	
4202	0	36934	
4203	0	36920	
4204	0	36868	
4205	0	36760	
4206	0	36672	
4207	0	36604	
4208	0	36546	
4209	0	36536	
4210	0	36518	
4211	0	36492	
4212	0	36480	
4213	0	36448	
4214	0	36376	
4215	0	36276	
4216	0	36204	
4217	0	36164	
4218	0	36144	
4219	0	36060	
4220	0	35966	
4221	0	35776	
4222	0	35604	
4223	0	35444	
4224	0	35304	
4225	0	35178	
4226	0	35096	
4227	0	34972	
4228	0	34808	
4229	0	34568	
4230	0	34336	
4231	0	34160	
4232	0	33968	
4233	0	33866	
4234	0	33688	
4235	0	33520	
4236	0	33372	
4237	0	33208	
4238	0	33040	
4239	0	32920	
4240	0	32778	
4241	0	32688	
4242	0	32536	
4243	0	32364	
4244	0	32260	
4245	0	32080	
4246	0	31860	
4247	0	31676	
4248	0	31528	
4249	0	31372	
4250	0	31240	
4251	0	31060	
4252	0	30888	
4253	0	30760	
4254	0	30584	
4255	0	30412	
4256	0	30292	
4257	0	30192	
4258	0	30096	
4259	0	29980	
4260	0	29858	
4261	0	29704	
4262	0	29570	
4263	0	29460	
4264	0	29500	
4265	0	29476	
4266	0	29416	
4267	0	29312	
4268	0	29240	
4269	0	29212	
4270	0	29136	
4271	0	29040	
4272	0	28936	
4273	0	28840	
4274	0	28788	
4275	0	28768	
4276	0	28768	
4277	0	28718	
4278	0	28666	
4279	0	28656	
4280	0	28664	
4281	0	28682	
4282	0	28704	
4283	0	28728	
4284	0	28644	
4285	0	28616	
4286	0	28616	
4287	0	28570	
4288	0	28568	
4289	0	28566	
4290	0	28540	
4291	0	28506	
4292	0	28464	
4293	0	28404	
4294	0	28360	
4295	0	28352	
4296	0	28312	
4297	0	28312	
4298	0	28392	
4299	0	28572	
4300	0	28736	
4301	0	28872	
4302	0	28908	
4303	0	28856	
4304	0	28824	
4305	0	28814	
4306	0	28844	
4307	0	28908	
4308	0	28984	
4309	0	28976	
4310	0	28996	
4311	0	28986	
4312	0	29036	
4313	0	29082	
4314	0	29172	
4315	0	29224	
4316	0	29184	
4317	0	29184	
4318	0	29186	
4319	0	29156	
4320	0	29172	
4321	0	29240	
4322	0	29328	
4323	0	29400	
4324	0	29472	
4325	0	29520	
4326	0	29604	
4327	0	29708	
4328	0	29804	
4329	0	29900	
4330	0	29936	
4331	0	29940	
4332	0	29996	
4333	0	30104	
4334	0	30192	
4335	0	30276	
4336	0	30280	
4337	0	30312	
4338	0	30426	
4339	0	30484	
4340	0	30468	
4341	0	30400	
4342	0	30340	
4343	0	30316	
4344	0	30320	
4345	0	30326	
4346	0	30284	
4347	0	30256	
4348	0	30272	
4349	0	30332	
4350	0	30368	
4351	0	30412	
4352	0	30476	
4353	0	30580	
4354	0	30688	
4355	0	30852	
4356	0	30938	
4357	0	30936	
4358	0	30936	
4359	0	30938	
4360	0	31008	
4361	0	31056	
4362	0	31072	
4363	0	31092	
4364	0	31086	
4365	0	31152	
4366	0	31196	
4367	0	31174	
4368	0	31168	
4369	0	31184	
4370	0	31176	
4371	0	31272	
4372	0	31376	
4373	0	31420	
4374	0	31408	
4375	0	31432	
4376	0	31456	
4377	0	31484	
4378	0	31504	
4379	0	31496	
4380	0	31540	
4381	0	31528	
4382	0	31464	
4383	0	31520	
4384	0	31560	
4385	0	31580	
4386	0	31600	
4387	0	31604	
4388	0	31648	
4389	0	31648	
4390	0	31568	
4391	0	31520	
4392	0	31492	
4393	0	31424	
4394	0	31310	
4395	0	31216	
4396	0	31144	
4397	0	31136	
4398	0	31180	
4399	0	31240	
4400	0	31328	
4401	0	31400	
4402	0	31468	
4403	0	31544	
4404	0	31656	
4405	0	31656	
4406	0	31600	
4407	0	31546	
4408	0	31532	
4409	0	31540	
4410	0	31528	
4411	0	31544	
4412	0	31552	
4413	0	31528	
4414	0	31528	
4415	0	31568	
4416	0	31628	
4417	0	31632	
4418	0	31608	
4419	0	31516	
4420	0	31412	
4421	0	31352	
4422	0	31316	
4423	0	31312	
4424	0	31340	
4425	0	31340	
4426	0	31364	
4427	0	31408	
4428	0	31508	
4429	0	31536	
4430	0	31512	
4431	0	31500	
4432	0	31492	
4433	0	31504	
4434	0	31528	
4435	0	31500	
4436	0	31480	
4437	0	31476	
4438	0	31472	
4439	0	31508	
4440	0	31444	
4441	0	31356	
4442	0	31284	
4443	0	31272	
4444	0	31258	
4445	0	31224	
4446	0	31248	
4447	0	31258	
4448	0	31240	
4449	0	31224	
4450	0	31200	
4451	0	31248	
4452	0	31272	
4453	0	31284	
4454	0	31288	
4455	0	31272	
4456	0	31348	
4457	0	31420	
4458	0	31484	
4459	0	31552	
4460	0	31584	
4461	0	31520	
4462	0	31458	
4463	0	31372	
4464	0	31344	
4465	0	31400	
4466	0	31472	
4467	0	31508	
4468	0	31496	
4469	0	31424	
4470	0	31336	
4471	0	31288	
4472	0	31236	
4473	0	31256	
4474	0	31264	
4475	0	31268	
4476	0	31252	
4477	0	31208	
4478	0	31268	
4479	0	31404	
4480	0	31556	
4481	0	31608	
4482	0	31580	
4483	0	31580	
4484	0	31620	
4485	0	31616	
4486	0	31536	
4487	0	31498	
4488	0	31464	
4489	0	31376	
4490	0	31304	
4491	0	31280	
4492	0	31260	
4493	0	31240	
4494	0	31206	
4495	0	31184	
4496	0	31168	
4497	0	31192	
4498	0	31296	
4499	0	31440	
4500	0	31604	
4501	0	31700	
4502	0	31824	
4503	0	31900	
4504	0	31908	
4505	0	31936	
4506	0	31924	
4507	0	31876	
4508	0	31784	
4509	0	31656	
4510	0	31556	
4511	0	31424	
4512	0	31384	
4513	0	31424	
4514	0	31456	
4515	0	31528	
4516	0	31612	
4517	0	31736	
4518	0	31812	
4519	0	31880	
4520	0	31888	
4521	0	31932	
4522	0	32000	
4523	0	32056	
4524	0	32086	
4525	0	32092	
4526	0	32072	
4527	0	32048	
4528	0	32032	
4529	0	32024	
4530	0	31908	
4531	0	31820	
4532	0	31784	
4533	0	31732	
4534	0	31688	
4535	0	31692	
4536	0	31712	
4537	0	31712	
4538	0	31696	
4539	0	31712	
4540	0	31770	
4541	0	31824	
4542	0	31852	
4543	0	31848	
4544	0	31916	
4545	0	31932	
4546	0	31988	
4547	0	32032	
4548	0	32064	
4549	0	32108	
4550	0	32124	
4551	0	32104	
4552	0	32080	
4553	0	32074	
4554	0	32068	
4555	0	32016	
4556	0	31968	
4557	0	31912	
4558	0	31876	
4559	0	31876	
4560	0	31908	
4561	0	31924	
4562	0	31928	
4563	0	31936	
4564	0	31912	
4565	0	31904	
4566	0	31916	
4567	0	31940	
4568	0	31988	
4569	0	32086	
4570	0	32196	
4571	0	32236	
4572	0	32236	
4573	0	32292	
4574	0	32344	
4575	0	32380	
4576	0	32436	
4577	0	32448	
4578	0	32424	
4579	0	32384	
4580	0	32352	
4581	0	32376	
4582	0	32416	
4583	0	32494	
4584	0	32572	
4585	0	32636	
4586	0	32686	
4587	0	32762	
4588	0	32840	
4589	0	32908	
4590	0	32984	
4591	0	33054	
4592	0	33088	
4593	0	33124	
4594	0	33172	
4595	0	33272	
4596	0	33316	
4597	0	33352	
4598	0	33344	
4599	0	33256	
4600	0	33156	
4601	0	33118	
4602	0	33146	
4603	0	33160	
4604	0	33060	
4605	0	32996	
4606	0	33006	
4607	0	33052	
4608	0	33168	
4609	0	33376	
4610	0	33672	
4611	0	34020	
4612	0	34340	
4613	0	34624	
4614	0	34836	
4615	0	34976	
4616	0	35124	
4617	0	35308	
4618	0	35476	
4619	0	35640	
4620	0	35756	
4621	0	35688	
4622	0	35528	
4623	0	35360	
4624	0	35168	
4625	0	35036	
4626	0	34884	
4627	0	34748	
4628	0	34602	
4629	0	34448	
4630	0	34300	
4631	0	34200	
4632	0	34108	
4633	0	34032	
4634	0	33930	
4635	0	33840	
4636	0	33768	
4637	0	33636	
4638	0	33532	
4639	0	33468	
4640	0	33448	
4641	0	33400	
4642	0	33328	
4643	0	33264	
4644	0	33200	
4645	0	33092	
4646	0	32984	
4647	0	32896	
4648	0	32760	
4649	0	32588	
4650	0	32456	
4651	0	32352	
4652	0	32312	
4653	0	32292	
4654	0	32240	
4655	0	32112	
4656	0	32042	
4657	0	31992	
4658	0	31864	
4659	0	31744	
4660	0	31608	
4661	0	31552	
4662	0	31532	
4663	0	31488	
4664	0	31456	
4665	0	31500	
4666	0	31576	
4667	0	31600	
4668	0	31620	
4669	0	31610	
4670	0	31560	
4671	0	31492	
4672	0	31404	
4673	0	31292	
4674	0	31248	
4675	0	31232	
4676	0	31248	
4677	0	31344	
4678	0	31448	
4679	0	31522	
4680	0	31610	
4681	0	31656	
4682	0	31700	
4683	0	31700	
4684	0	31672	
4685	0	31692	
4686	0	31720	
4687	0	31714	
4688	0	31684	
4689	0	31712	
4690	0	31736	
4691	0	31740	
4692	0	31756	
4693	0	31820	
4694	0	31868	
4695	0	31864	
4696	0	31850	
4697	0	31880	
4698	0	31886	
4699	0	31812	
4700	0	31640	
4701	0	31412	
4702	0	31086	
4703	0	30618	
4704	0	30000	
4705	0	29316	
4706	0	28820	
4707	0	28576	
4708	0	28464	
4709	0	28400	
4710	0	28564	
4711	0	29032	
4712	0	29796	
4713	0	30714	
4714	0	31656	
4715	0	32712	
4716	0	34000	
4717	0	35548	
4718	0	37216	
4719	0	39224	
4720	0	41568	
4721	0	44392	
4722	0	47674	
4723	0	51192	
4724	0	54724	
4725	0	58116	
4726	0	61184	
4727	0	63068	
4728	0	64048	
4729	0	64518	
4730	0	64720	
4731	0	64760	
4732	0	64736	
4733	0	64660	
4734	0	64560	
4735	0	64444	
4736	0	58708	
4737	0	52560	
4738	0	46896	
4739	0	42208	
4740	0	38636	
4741	0	35896	
4742	0	33844	
4743	0	32268	
4744	0	31080	
4745	0	30094	
4746	0	29128	
4747	0	28204	
4748	0	27398	
4749	0	26672	
4750	0	26192	
4751	0	25962	
4752	0	25812	
4753	0	25752	
4754	0	25744	
4755	0	25656	
4756	0	25542	
4757	0	25556	
4758	0	25696	
4759	0	25952	
4760	0	26292	
4761	0	26720	
4762	0	27184	
4763	0	27586	
4764	0	27936	
4765	0	28352	
4766	0	28740	
4767	0	29056	
4768	0	29328	
4769	0	29540	
4770	0	29720	
4771	0	29820	
4772	0	29868	
4773	0	29944	
4774	0	30024	
4775	0	30088	
4776	0	30096	
4777	0	30116	
4778	0	30184	
4779	0	30252	
4780	0	30288	
4781	0	30316	
4782	0	30336	
4783	0	30336	
4784	0	30328	
4785	0	30304	
4786	0	30272	
4787	0	30264	
4788	0	30290	
4789	0	30316	
4790	0	30276	
4791	0	30240	
4792	0	30266	
4793	0	30312	
4794	0	30352	
4795	0	30400	
4796	0	30496	
4797	0	30572	
4798	0	30626	
4799	0	30688	
4800	0	30712	
4801	0	30764	
4802	0	30804	
4803	0	30798	
4804	0	30780	
4805	0	30756	
4806	0	30802	
4807	0	30888	
4808	0	30960	
4809	0	31016	
4810	0	31096	
4811	0	31148	
4812	0	31172	
4813	0	31200	
4814	0	31244	
4815	0	31304	
4816	0	31380	
4817	0	31468	
4818	0	31540	
4819	0	31576	
4820	0	31596	
4821	0	31576	
4822	0	31592	
4823	0	31588	
4824	0	31672	
4825	0	31792	
4826	0	31884	
4827	0	31912	
4828	0	31936	
4829	0	31880	
4830	0	31828	
4831	0	31788	
4832	0	31808	
4833	0	31854	
4834	0	31882	
4835	0	31916	
4836	0	31940	
4837	0	31968	
4838	0	32036	
4839	0	32092	
4840	0	32164	
4841	0	32248	
4842	0	32320	
4843	0	32404	
4844	0	32452	
4845	0	32498	
4846	0	32538	
4847	0	32624	
4848	0	32736	
4849	0	32840	
4850	0	32900	
4851	0	32928	
4852	0	32910	
4853	0	32904	
4854	0	32916	
4855	0	32908	
4856	0	32904	
4857	0	32920	
4858	0	32976	
4859	0	33012	
4860	0	33048	
4861	0	33076	
4862	0	33088	
4863	0	33124	
4864	0	33196	
4865	0	33264	
4866	0	33336	
4867	0	33412	
4868	0	33488	
4869	0	33568	
4870	0	33640	
4871	0	33664	
4872	0	33704	
4873	0	33708	
4874	0	33692	
4875	0	33736	
4876	0	33776	
4877	0	33832	
4878	0	33888	
4879	0	33948	
4880	0	34008	
4881	0	34064	
4882	0	34076	
4883	0	34120	
4884	0	34200	
4885	0	34272	
4886	0	34348	
4887	0	34432	
4888	0	34484	
4889	0	34472	
4890	0	34460	
4891	0	34504	
4892	0	34608	
4893	0	34684	
4894	0	34736	
4895	0	34824	
4896	0	34888	
4897	0	34976	
4898	0	35000	
4899	0	35028	
4900	0	35108	
4901	0	35204	
4902	0	35224	
4903	0	35248	
4904	0	35328	
4905	0	35404	
4906	0	35460	
4907	0	35552	
4908	0	35644	
4909	0	35692	
4910	0	35716	
4911	0	35792	
4912	0	35912	
4913	0	36076	
4914	0	36132	
4915	0	36236	
4916	0	36324	
4917	0	36376	
4918	0	36412	
4919	0	36468	
4920	0	36520	
4921	0	36596	
4922	0	36696	
4923	0	36784	
4924	0	36880	
4925	0	36908	
4926	0	36932	
4927	0	36980	
4928	0	36996	
4929	0	37048	
4930	0	37120	
4931	0	37166	
4932	0	37180	
4933	0	37154	
4934	0	37124	
4935	0	37108	
4936	0	37088	
4937	0	37056	
4938	0	37080	
4939	0	37140	
4940	0	37184	
4941	0	37216	
4942	0	37236	
4943	0	37244	
4944	0	37248	
4945	0	37268	
4946	0	37288	
4947	0	37264	
4948	0	37268	
4949	0	37216	
4950	0	37128	
4951	0	37066	
4952	0	37056	
4953	0	37048	
4954	0	37032	
4955	0	37004	
4956	0	36996	
4957	0	36984	
4958	0	36968	
4959	0	36936	
4960	0	36904	
4961	0	36874	
4962	0	36844	
4963	0	36780	
4964	0	36720	
4965	0	36644	
4966	0	36572	
4967	0	36448	
4968	0	36296	
4969	0	36160	
4970	0	36076	
4971	0	35968	
4972	0	35864	
4973	0	35804	
4974	0	35694	
4975	0	35612	
4976	0	35520	
4977	0	35432	
4978	0	35332	
4979	0	35232	
4980	0	35092	
4981	0	34952	
4982	0	34772	
4983	0	34584	
4984	0	34408	
4985	0	34232	
4986	0	34056	
4987	0	33864	
4988	0	33660	
4989	0	33464	
4990	0	33348	
4991	0	33180	
4992	0	32980	
4993	0	32828	
4994	0	32604	
4995	0	32356	
4996	0	32140	
4997	0	31956	
4998	0	31804	
4999	0	31652	
5000	0	31522	
5001	0	31348	
5002	0	31216	
5003	0	31060	
5004	0	30922	
5005	0	30800	
5006	0	30680	
5007	0	30582	
5008	0	30488	
5009	0	30392	
5010	0	30292	
5011	0	30176	
5012	0	30074	
5013	0	29980	
5014	0	29872	
5015	0	29764	
5016	0	29604	
5017	0	29472	
5018	0	29372	
5019	0	29312	
5020	0	29248	
5021	0	29192	
5022	0	29144	
5023	0	29064	
5024	0	29008	
5025	0	28948	
5026	0	28876	
5027	0	28792	
5028	0	28748	
5029	0	28716	
5030	0	28664	
5031	0	28640	
5032	0	28672	
5033	0	28724	
5034	0	28752	
5035	0	28762	
5036	0	28780	
5037	0	28768	
5038	0	28740	
5039	0	28724	
5040	0	28696	
5041	0	28648	
5042	0	28616	
5043	0	28648	
5044	0	28672	
5045	0	28690	
5046	0	28708	
5047	0	28716	
5048	0	28712	
5049	0	28748	
5050	0	28802	
5051	0	28820	
5052	0	28816	
5053	0	28864	
5054	0	28932	
5055	0	28956	
5056	0	28968	
5057	0	29008	
5058	0	29080	
5059	0	29148	
5060	0	29148	
5061	0	29156	
5062	0	29180	
5063	0	29264	
5064	0	29336	
5065	0	29352	
5066	0	29356	
5067	0	29348	
5068	0	29376	
5069	0	29416	
5070	0	29500	
5071	0	29536	
5072	0	29556	
5073	0	29584	
5074	0	29632	
5075	0	29672	
5076	0	29736	
5077	0	29756	
5078	0	29792	
5079	0	29834	
5080	0	29828	
5081	0	29866	
5082	0	29864	
5083	0	29892	
5084	0	29976	
5085	0	30072	
5086	0	30132	
5087	0	30172	
5088	0	30212	
5089	0	30212	
5090	0	30280	
5091	0	30372	
5092	0	30416	
5093	0	30400	
5094	0	30368	
5095	0	30369	
5096	0	30400	
5097	0	30464	
5098	0	30512	
5099	0	30564	
5100	0	30656	
5101	0	30732	
5102	0	30780	
5103	0	30776	
5104	0	30800	
5105	0	30840	
5106	0	30880	
5107	0	30904	
5108	0	30938	
5109	0	30956	
5110	0	30952	
5111	0	30948	
5112	0	30960	
5113	0	30936	
5114	0	30946	
5115	0	30960	
5116	0	30996	
5117	0	31028	
5118	0	31044	
5119	0	31104	
5120	0	31192	
5121	0	31292	
5122	0	31312	
5123	0	31272	
5124	0	31266	
5125	0	31312	
5126	0	31332	
5127	0	31316	
5128	0	31336	
5129	0	31404	
5130	0	31456	
5131	0	31424	
5132	0	31428	
5133	0	31408	
5134	0	31388	
5135	0	31456	
5136	0	31536	
5137	0	31556	
5138	0	31572	
5139	0	31624	
5140	0	31652	
5141	0	31604	
5142	0	31532	
5143	0	31496	
5144	0	31512	
5145	0	31536	
5146	0	31560	
5147	0	31605	
5148	0	31632	
5149	0	31664	
5150	0	31684	
5151	0	31712	
5152	0	31720	
5153	0	31696	
5154	0	31706	
5155	0	31732	
5156	0	31748	
5157	0	31768	
5158	0	31784	
5159	0	31736	
5160	0	31696	
5161	0	31688	
5162	0	31668	
5163	0	31680	
5164	0	31688	
5165	0	31684	
5166	0	31696	
5167	0	31716	
5168	0	31744	
5169	0	31760	
5170	0	31764	
5171	0	31792	
5172	0	31796	
5173	0	31776	
5174	0	31768	
5175	0	31752	
5176	0	31728	
5177	0	31696	
5178	0	31688	
5179	0	31676	
5180	0	31656	
5181	0	31584	
5182	0	31532	
5183	0	31512	
5184	0	31556	
5185	0	31626	
5186	0	31656	
5187	0	31684	
5188	0	31684	
5189	0	31644	
5190	0	31624	
5191	0	31668	
5192	0	31696	
5193	0	31732	
5194	0	31716	
5195	0	31644	
5196	0	31568	
5197	0	31536	
5198	0	31524	
5199	0	31556	
5200	0	31624	
5201	0	31680	
5202	0	31708	
5203	0	31712	
5204	0	31696	
5205	0	31696	
5206	0	31704	
5207	0	31684	
5208	0	31636	
5209	0	31614	
5210	0	31596	
5211	0	31612	
5212	0	31624	
5213	0	31632	
5214	0	31588	
5215	0	31564	
5216	0	31558	
5217	0	31552	
5218	0	31564	
5219	0	31588	
5220	0	31624	
5221	0	31636	
5222	0	31620	
5223	0	31612	
5224	0	31594	
5225	0	31604	
5226	0	31680	
5227	0	31756	
5228	0	31772	
5229	0	31768	
5230	0	31776	
5231	0	31792	
5232	0	31788	
5233	0	31760	
5234	0	31732	
5235	0	31752	
5236	0	31768	
5237	0	31784	
5238	0	31808	
5239	0	31792	
5240	0	31732	
5241	0	31708	
5242	0	31720	
5243	0	31708	
5244	0	31676	
5245	0	31672	
5246	0	31708	
5247	0	31750	
5248	0	31788	
5249	0	31816	
5250	0	31840	
5251	0	31844	
5252	0	31852	
5253	0	31884	
5254	0	31920	
5255	0	31936	
5256	0	31952	
5257	0	31968	
5258	0	31928	
5259	0	31888	
5260	0	31870	
5261	0	31896	
5262	0	31888	
5263	0	31892	
5264	0	31880	
5265	0	31884	
5266	0	31916	
5267	0	31928	
5268	0	31904	
5269	0	31896	
5270	0	31916	
5271	0	31944	
5272	0	31976	
5273	0	32000	
5274	0	31996	
5275	0	31960	
5276	0	31904	
5277	0	31908	
5278	0	31956	
5279	0	32000	
5280	0	32036	
5281	0	32072	
5282	0	32078	
5283	0	32120	
5284	0	32152	
5285	0	32168	
5286	0	32176	
5287	0	32168	
5288	0	32208	
5289	0	32228	
5290	0	32176	
5291	0	32176	
5292	0	32168	
5293	0	32176	
5294	0	32140	
5295	0	32148	
5296	0	32188	
5297	0	32212	
5298	0	32160	
5299	0	32112	
5300	0	32116	
5301	0	32144	
5302	0	32176	
5303	0	32248	
5304	0	32320	
5305	0	32296	
5306	0	32248	
5307	0	32216	
5308	0	32172	
5309	0	32162	
5310	0	32208	
5311	0	32250	
5312	0	32308	
5313	0	32308	
5314	0	32280	
5315	0	32298	
5316	0	32316	
5317	0	32306	
5318	0	32336	
5319	0	32464	
5320	0	32608	
5321	0	32696	
5322	0	32824	
5323	0	32976	
5324	0	33084	
5325	0	33152	
5326	0	33200	
5327	0	33240	
5328	0	33312	
5329	0	33392	
5330	0	33436	
5331	0	33480	
5332	0	33544	
5333	0	33568	
5334	0	33540	
5335	0	33480	
5336	0	33428	
5337	0	33346	
5338	0	33264	
5339	0	33216	
5340	0	33232	
5341	0	33248	
5342	0	33268	
5343	0	33308	
5344	0	33372	
5345	0	33458	
5346	0	33648	
5347	0	33828	
5348	0	34064	
5349	0	34320	
5350	0	34600	
5351	0	34852	
5352	0	35028	
5353	0	35188	
5354	0	35322	
5355	0	35456	
5356	0	35548	
5357	0	35560	
5358	0	35474	
5359	0	35360	
5360	0	35252	
5361	0	35144	
5362	0	35060	
5363	0	35010	
5364	0	34976	
5365	0	34896	
5366	0	34764	
5367	0	34632	
5368	0	34532	
5369	0	34400	
5370	0	34284	
5371	0	34176	
5372	0	34120	
5373	0	34012	
5374	0	33784	
5375	0	33556	
5376	0	33394	
5377	0	33284	
5378	0	33236	
5379	0	33200	
5380	0	33120	
5381	0	33052	
5382	0	32944	
5383	0	32840	
5384	0	32780	
5385	0	32736	
5386	0	32668	
5387	0	32540	
5388	0	32436	
5389	0	32352	
5390	0	32288	
5391	0	32256	
5392	0	32180	
5393	0	32120	
5394	0	32000	
5395	0	31864	
5396	0	31680	
5397	0	31552	
5398	0	31436	
5399	0	31368	
5400	0	31324	
5401	0	31316	
5402	0	31304	
5403	0	31310	
5404	0	31296	
5405	0	31308	
5406	0	31308	
5407	0	31336	
5408	0	31360	
5409	0	31372	
5410	0	31392	
5411	0	31412	
5412	0	31432	
5413	0	31434	
5414	0	31460	
5415	0	31476	
5416	0	31500	
5417	0	31546	
5418	0	31604	
5419	0	31616	
5420	0	31624	
5421	0	31632	
5422	0	31624	
5423	0	31636	
5424	0	31660	
5425	0	31700	
5426	0	31712	
5427	0	31712	
5428	0	31708	
5429	0	31732	
5430	0	31812	
5431	0	31848	
5432	0	31906	
5433	0	31956	
5434	0	31976	
5435	0	31930	
5436	0	31852	
5437	0	31688	
5438	0	31480	
5439	0	31180	
5440	0	30770	
5441	0	30156	
5442	0	29468	
5443	0	28924	
5444	0	28628	
5445	0	28496	
5446	0	28448	
5447	0	28580	
5448	0	28916	
5449	0	29472	
5450	0	30288	
5451	0	31268	
5452	0	32464	
5453	0	33868	
5454	0	35412	
5455	0	37056	
5456	0	39020	
5457	0	41306	
5458	0	43956	
5459	0	47140	
5460	0	50796	
5461	0	54508	
5462	0	58016	
5463	0	61180	
5464	0	63132	
5465	0	64128	
5466	0	64632	
5467	0	64832	
5468	0	64888	
5469	0	64856	
5470	0	64784	
5471	0	64672	
5472	0	64576	
5473	0	64452	
5474	0	62368	
5475	0	56088	
5476	0	50784	
5477	0	46464	
5478	0	42960	
5479	0	40152	
5480	0	37824	
5481	0	35744	
5482	0	33928	
5483	0	32384	
5484	0	31136	
5485	0	30110	
5486	0	29276	
5487	0	28644	
5488	0	28206	
5489	0	27840	
5490	0	27584	
5491	0	27450	
5492	0	27400	
5493	0	27332	
5494	0	27244	
5495	0	27228	
5496	0	27256	
5497	0	27348	
5498	0	27536	
5499	0	27776	
5500	0	28048	
5501	0	28304	
5502	0	28528	
5503	0	28720	
5504	0	28932	
5505	0	29112	
5506	0	29258	
5507	0	29324	
5508	0	29324	
5509	0	29356	
5510	0	29360	
5511	0	29330	
5512	0	29304	
5513	0	29320	
5514	0	29280	
5515	0	29224	
5516	0	29220	
5517	0	29260	
5518	0	29272	
5519	0	29264	
5520	0	29232	
5521	0	29208	
5522	0	29204	
5523	0	29224	
5524	0	29280	
5525	0	29344	
5526	0	29372	
5527	0	29436	
5528	0	29528	
5529	0	29548	
5530	0	29564	
5531	0	29580	
5532	0	29612	
5533	0	29622	
5534	0	29640	
5535	0	29676	
5536	0	29732	
5537	0	29788	
5538	0	29844	
5539	0	29882	
5540	0	29916	
5541	0	29980	
5542	0	30008	
5543	0	30028	
5544	0	30056	
5545	0	30100	
5546	0	30114	
5547	0	30148	
5548	0	30192	
5549	0	30244	
5550	0	30364	
5551	0	30444	
5552	0	30472	
5553	0	30508	
5554	0	30538	
5555	0	30538	
5556	0	30562	
5557	0	30640	
5558	0	30732	
5559	0	30812	
5560	0	30928	
5561	0	30986	
5562	0	31032	
5563	0	31080	
5564	0	31056	
5565	0	31068	
5566	0	31088	
5567	0	31100	
5568	0	31148	
5569	0	31180	
5570	0	31240	
5571	0	31280	
5572	0	31322	
5573	0	31364	
5574	0	31408	
5575	0	31424	
5576	0	31444	
5577	0	31488	
5578	0	31514	
5579	0	31568	
5580	0	31660	
5581	0	31736	
5582	0	31800	
5583	0	31824	
5584	0	31820	
5585	0	31840	
5586	0	31888	
5587	0	31924	
5588	0	31968	
5589	0	32048	
5590	0	32136	
5591	0	32160	
5592	0	32148	
5593	0	32128	
5594	0	32096	
5595	0	32140	
5596	0	32192	
5597	0	32192	
5598	0	32184	
5599	0	32232	
5600	0	32276	
5601	0	32332	
5602	0	32400	
5603	0	32444	
5604	0	32520	
5605	0	32596	
5606	0	32700	
5607	0	32824	
5608	0	32852	
5609	0	32876	
5610	0	32922	
5611	0	32988	
5612	0	33076	
5613	0	33184	
5614	0	33232	
5615	0	33256	
5616	0	33272	
5617	0	33328	
5618	0	33356	
5619	0	33376	
5620	0	33452	
5621	0	33548	
5622	0	33600	
5623	0	33624	
5624	0	33644	
5625	0	33652	
5626	0	33720	
5627	0	33788	
5628	0	33892	
5629	0	33988	
5630	0	34084	
5631	0	34164	
5632	0	34208	
5633	0	34256	
5634	0	34304	
5635	0	34352	
5636	0	34388	
5637	0	34444	
5638	0	34512	
5639	0	34640	
5640	0	34724	
5641	0	34752	
5642	0	34768	
5643	0	34816	
5644	0	34872	
5645	0	34924	
5646	0	34988	
5647	0	35048	
5648	0	35140	
5649	0	35220	
5650	0	35300	
5651	0	35392	
5652	0	35458	
5653	0	35520	
5654	0	35604	
5655	0	35688	
5656	0	35750	
5657	0	35820	
5658	0	35864	
5659	0	35896	
5660	0	35960	
5661	0	36040	
5662	0	36084	
5663	0	36144	
5664	0	36184	
5665	0	36236	
5666	0	36296	
5667	0	36376	
5668	0	36426	
5669	0	36508	
5670	0	36572	
5671	0	36608	
5672	0	36648	
5673	0	36692	
5674	0	36672	
5675	0	36656	
5676	0	36652	
5677	0	36688	
5678	0	36728	
5679	0	36780	
5680	0	36808	
5681	0	36816	
5682	0	36780	
5683	0	36776	
5684	0	36740	
5685	0	36736	
5686	0	36732	
5687	0	36704	
5688	0	36664	
5689	0	36636	
5690	0	36596	
5691	0	36552	
5692	0	36488	
5693	0	36424	
5694	0	36400	
5695	0	36404	
5696	0	36392	
5697	0	36396	
5698	0	36392	
5699	0	36376	
5700	0	36316	
5701	0	36256	
5702	0	36192	
5703	0	36128	
5704	0	36096	
5705	0	36064	
5706	0	35980	
5707	0	35892	
5708	0	35804	
5709	0	35700	
5710	0	35592	
5711	0	35504	
5712	0	35446	
5713	0	35376	
5714	0	35272	
5715	0	35140	
5716	0	35012	
5717	0	34876	
5718	0	34734	
5719	0	34580	
5720	0	34464	
5721	0	34336	
5722	0	34212	
5723	0	34012	
5724	0	33752	
5725	0	33476	
5726	0	33264	
5727	0	33100	
5728	0	32960	
5729	0	32792	
5730	0	32624	
5731	0	32502	
5732	0	32364	
5733	0	32224	
5734	0	32052	
5735	0	31880	
5736	0	31704	
5737	0	31548	
5738	0	31408	
5739	0	31284	
5740	0	31168	
5741	0	31004	
5742	0	30844	
5743	0	30708	
5744	0	30588	
5745	0	30472	
5746	0	30348	
5747	0	30228	
5748	0	30096	
5749	0	30032	
5750	0	29986	
5751	0	29904	
5752	0	29808	
5753	0	29684	
5754	0	29556	
5755	0	29468	
5756	0	29376	
5757	0	29324	
5758	0	29308	
5759	0	29316	
5760	0	29300	
5761	0	29264	
5762	0	29222	
5763	0	29220	
5764	0	29184	
5765	0	29136	
5766	0	29086	
5767	0	29064	
5768	0	29032	
5769	0	28980	
5770	0	28960	
5771	0	28950	
5772	0	28972	
5773	0	28972	
5774	0	28980	
5775	0	28964	
5776	0	28984	
5777	0	28992	
5778	0	28992	
5779	0	28962	
5780	0	28924	
5781	0	28952	
5782	0	28972	
5783	0	28992	
5784	0	29048	
5785	0	29084	
5786	0	29100	
5787	0	29132	
5788	0	29184	
5789	0	29196	
5790	0	29224	
5791	0	29212	
5792	0	29244	
5793	0	29284	
5794	0	29328	
5795	0	29392	
5796	0	29456	
5797	0	29452	
5798	0	29424	
5799	0	29460	
5800	0	29489	
5801	0	29530	
5802	0	29584	
5803	0	29624	
5804	0	29664	
5805	0	29716	
5806	0	29760	
5807	0	29794	
5808	0	29808	
5809	0	29868	
5810	0	29904	
5811	0	29912	
5812	0	29928	
5813	0	29984	
5814	0	30048	
5815	0	30092	
5816	0	30132	
5817	0	30144	
5818	0	30132	
5819	0	30120	
5820	0	30148	
5821	0	30176	
5822	0	30200	
5823	0	30240	
5824	0	30304	
5825	0	30380	
5826	0	30432	
5827	0	30496	
5828	0	30572	
5829	0	30600	
5830	0	30608	
5831	0	30660	
5832	0	30728	
5833	0	30768	
5834	0	30776	
5835	0	30788	
5836	0	30804	
5837	0	30844	
5838	0	30826	
5839	0	30764	
5840	0	30768	
5841	0	30776	
5842	0	30808	
5843	0	30848	
5844	0	30848	
5845	0	30890	
5846	0	30956	
5847	0	30988	
5848	0	30972	
5849	0	30954	
5850	0	30928	
5851	0	30912	
5852	0	30920	
5853	0	30944	
5854	0	30976	
5855	0	31056	
5856	0	31092	
5857	0	31128	
5858	0	31084	
5859	0	31072	
5860	0	31064	
5861	0	31068	
5862	0	31116	
5863	0	31192	
5864	0	31212	
5865	0	31224	
5866	0	31240	
5867	0	31208	
5868	0	31216	
5869	0	31280	
5870	0	31316	
5871	0	31320	
5872	0	31332	
5873	0	31362	
5874	0	31400	
5875	0	31392	
5876	0	31364	
5877	0	31384	
5878	0	31388	
5879	0	31356	
5880	0	31384	
5881	0	31392	
5882	0	31388	
5883	0	31380	
5884	0	31368	
5885	0	31372	
5886	0	31460	
5887	0	31524	
5888	0	31556	
5889	0	31552	
5890	0	31528	
5891	0	31484	
5892	0	31424	
5893	0	31444	
5894	0	31472	
5895	0	31528	
5896	0	31576	
5897	0	31552	
5898	0	31560	
5899	0	31600	
5900	0	31616	
5901	0	31640	
5902	0	31648	
5903	0	31640	
5904	0	31696	
5905	0	31724	
5906	0	31712	
5907	0	31678	
5908	0	31668	
5909	0	31656	
5910	0	31660	
5911	0	31688	
5912	0	31704	
5913	0	31680	
5914	0	31668	
5915	0	31685	
5916	0	31684	
5917	0	31664	
5918	0	31680	
5919	0	31688	
5920	0	31732	
5921	0	31748	
5922	0	31752	
5923	0	31780	
5924	0	31792	
5925	0	31768	
5926	0	31776	
5927	0	31768	
5928	0	31764	
5929	0	31780	
5930	0	31800	
5931	0	31820	
5932	0	31808	
5933	0	31784	
5934	0	31776	
5935	0	31792	
5936	0	31754	
5937	0	31708	
5938	0	31696	
5939	0	31676	
5940	0	31680	
5941	0	31714	
5942	0	31728	
5943	0	31760	
5944	0	31776	
5945	0	31792	
5946	0	31816	
5947	0	31824	
5948	0	31868	
5949	0	31906	
5950	0	31898	
5951	0	31836	
5952	0	31792	
5953	0	31768	
5954	0	31778	
5955	0	31748	
5956	0	31744	
5957	0	31708	
5958	0	31704	
5959	0	31700	
5960	0	31708	
5961	0	31736	
5962	0	31756	
5963	0	31780	
5964	0	31816	
5965	0	31824	
5966	0	31824	
5967	0	31832	
5968	0	31824	
5969	0	31856	
5970	0	31866	
5971	0	31892	
5972	0	31894	
5973	0	31906	
5974	0	31928	
5975	0	31924	
5976	0	31914	
5977	0	31904	
5978	0	31928	
5979	0	31972	
5980	0	31972	
5981	0	31960	
5982	0	31944	
5983	0	31960	
5984	0	31970	
5985	0	31952	
5986	0	31936	
5987	0	31956	
5988	0	31976	
5989	0	31984	
5990	0	32016	
5991	0	32052	
5992	0	32072	
5993	0	32048	
5994	0	32036	
5995	0	32064	
5996	0	32076	
5997	0	32076	
5998	0	32100	
5999	0	32108	
6000	0	32110	
6001	0	32124	
6002	0	32154	
6003	0	32156	
6004	0	32152	
6005	0	32136	
6006	0	32124	
6007	0	32164	
6008	0	32192	
6009	0	32228	
6010	0	32236	
6011	0	32248	
6012	0	32224	
6013	0	32212	
6014	0	32216	
6015	0	32216	
6016	0	32220	
6017	0	32248	
6018	0	32264	
6019	0	32244	
6020	0	32272	
6021	0	32280	
6022	0	32312	
6023	0	32376	
6024	0	32448	
6025	0	32576	
6026	0	32720	
6027	0	32860	
6028	0	32940	
6029	0	33000	
6030	0	33080	
6031	0	33188	
6032	0	33296	
6033	0	33392	
6034	0	33392	
6035	0	33380	
6036	0	33372	
6037	0	33416	
6038	0	33456	
6039	0	33480	
6040	0	33464	
6041	0	33440	
6042	0	33404	
6043	0	33356	
6044	0	33320	
6045	0	33326	
6046	0	33392	
6047	0	33410	
6048	0	33412	
6049	0	33460	
6050	0	33554	
6051	0	33672	
6052	0	33864	
6053	0	34074	
6054	0	34340	
6055	0	34596	
6056	0	34848	
6057	0	34984	
6058	0	35052	
6059	0	35108	
6060	0	35196	
6061	0	35288	
6062	0	35356	
6063	0	35368	
6064	0	35340	
6065	0	35248	
6066	0	35124	
6067	0	34970	
6068	0	34880	
6069	0	34818	
6070	0	34712	
6071	0	34572	
6072	0	34456	
6073	0	34312	
6074	0	34212	
6075	0	34140	
6076	0	34076	
6077	0	34000	
6078	0	33884	
6079	0	33712	
6080	0	33516	
6081	0	33380	
6082	0	33328	
6083	0	33304	
6084	0	33256	
6085	0	33192	
6086	0	33112	
6087	0	33028	
6088	0	32992	
6089	0	32976	
6090	0	32896	
6091	0	32744	
6092	0	32628	
6093	0	32472	
6094	0	32296	
6095	0	32176	
6096	0	32088	
6097	0	31996	
6098	0	31956	
6099	0	31888	
6100	0	31794	
6101	0	31708	
6102	0	31632	
6103	0	31544	
6104	0	31484	
6105	0	31416	
6106	0	31384	
6107	0	31364	
6108	0	31364	
6109	0	31344	
6110	0	31320	
6111	0	31324	
6112	0	31322	
6113	0	31344	
6114	0	31364	
6115	0	31364	
6116	0	31364	
6117	0	31412	
6118	0	31480	
6119	0	31512	
6120	0	31520	
6121	0	31536	
6122	0	31576	
6123	0	31628	
6124	0	31612	
6125	0	31584	
6126	0	31596	
6127	0	31612	
6128	0	31652	
6129	0	31664	
6130	0	31684	
6131	0	31722	
6132	0	31784	
6133	0	31796	
6134	0	31824	
6135	0	31820	
6136	0	31812	
6137	0	31832	
6138	0	31884	
6139	0	31904	
6140	0	31872	
6141	0	31840	
6142	0	31736	
6143	0	31578	
6144	0	31332	
6145	0	30956	
6146	0	30472	
6147	0	29820	
6148	0	29122	
6149	0	28596	
6150	0	28304	
6151	0	28192	
6152	0	28172	
6153	0	28344	
6154	0	28764	
6155	0	29452	
6156	0	30372	
6157	0	31412	
6158	0	32700	
6159	0	34157	
6160	0	35816	
6161	0	37640	
6162	0	39812	
6163	0	42344	
6164	0	45344	
6165	0	48880	
6166	0	52656	
6167	0	56296	
6168	0	59764	
6169	0	62432	
6170	0	63852	
6171	0	64560	
6172	0	64896	
6173	0	65016	
6174	0	65032	
6175	0	64964	
6176	0	64880	
6177	0	64776	
6178	0	64660	
6179	0	64520	
6180	0	59136	
6181	0	53348	
6182	0	48592	
6183	0	44704	
6184	0	41528	
6185	0	38952	
6186	0	36676	
6187	0	34680	
6188	0	32972	
6189	0	31472	
6190	0	30276	
6191	0	29276	
6192	0	28460	
6193	0	27864	
6194	0	27480	
6195	0	27188	
6196	0	26986	
6197	0	26894	
6198	0	26844	
6199	0	26748	
6200	0	26740	
6201	0	26844	
6202	0	27024	
6203	0	27260	
6204	0	27528	
6205	0	27854	
6206	0	28192	
6207	0	28520	
6208	0	28760	
6209	0	28976	
6210	0	29220	
6211	0	29372	
6212	0	29456	
6213	0	29444	
6214	0	29408	
6215	0	29404	
6216	0	29404	
6217	0	29396	
6218	0	29388	
6219	0	29416	
6220	0	29376	
6221	0	29312	
6222	0	29264	
6223	0	29248	
6224	0	29292	
6225	0	29344	
6226	0	29346	
6227	0	29356	
6228	0	29364	
6229	0	29364	
6230	0	29412	
6231	0	29466	
6232	0	29512	
6233	0	29552	
6234	0	29600	
6235	0	29664	
6236	0	29724	
6237	0	29796	
6238	0	29816	
6239	0	29796	
6240	0	29812	
6241	0	29868	
6242	0	29936	
6243	0	29980	
6244	0	29996	
6245	0	29976	
6246	0	29968	
6247	0	30064	
6248	0	30132	
6249	0	30180	
6250	0	30200	
6251	0	30236	
6252	0	30242	
6253	0	30304	
6254	0	30368	
6255	0	30480	
6256	0	30560	
6257	0	30576	
6258	0	30594	
6259	0	30656	
6260	0	30692	
6261	0	30716	
6262	0	30732	
6263	0	30808	
6264	0	30864	
6265	0	30936	
6266	0	30980	
6267	0	31030	
6268	0	31084	
6269	0	31116	
6270	0	31132	
6271	0	31148	
6272	0	31228	
6273	0	31252	
6274	0	31224	
6275	0	31256	
6276	0	31304	
6277	0	31368	
6278	0	31428	
6279	0	31472	
6280	0	31512	
6281	0	31532	
6282	0	31554	
6283	0	31620	
6284	0	31720	
6285	0	31792	
6286	0	31848	
6287	0	31874	
6288	0	31872	
6289	0	31860	
6290	0	31920	
6291	0	31994	
6292	0	32032	
6293	0	32056	
6294	0	32090	
6295	0	32112	
6296	0	32116	
6297	0	32120	
6298	0	32136	
6299	0	32204	
6300	0	32296	
6301	0	32344	
6302	0	32380	
6303	0	32440	
6304	0	32452	
6305	0	32476	
6306	0	32528	
6307	0	32612	
6308	0	32716	
6309	0	32800	
6310	0	32864	
6311	0	32884	
6312	0	32916	
6313	0	32968	
6314	0	33008	
6315	0	33088	
6316	0	33128	
6317	0	33172	
6318	0	33180	
6319	0	33232	
6320	0	33272	
6321	0	33292	
6322	0	33288	
6323	0	33316	
6324	0	33368	
6325	0	33440	
6326	0	33546	
6327	0	33688	
6328	0	33800	
6329	0	33848	
6330	0	33880	
6331	0	33928	
6332	0	33984	
6333	0	34016	
6334	0	34088	
6335	0	34184	
6336	0	34268	
6337	0	34376	
6338	0	34460	
6339	0	34508	
6340	0	34564	
6341	0	34604	
6342	0	34630	
6343	0	34670	
6344	0	34748	
6345	0	34852	
6346	0	34932	
6347	0	35020	
6348	0	35084	
6349	0	35148	
6350	0	35188	
6351	0	35232	
6352	0	35252	
6353	0	35322	
6354	0	35392	
6355	0	35460	
6356	0	35536	
6357	0	35648	
6358	0	35728	
6359	0	35796	
6360	0	35876	
6361	0	36024	
6362	0	36096	
6363	0	36084	
6364	0	36136	
6365	0	36180	
6366	0	36212	
6367	0	36256	
6368	0	36288	
6369	0	36340	
6370	0	36444	
6371	0	36520	
6372	0	36576	
6373	0	36596	
6374	0	36604	
6375	0	36632	
6376	0	36620	
6377	0	36664	
6378	0	36740	
6379	0	36824	
6380	0	36864	
6381	0	36832	
6382	0	36824	
6383	0	36808	
6384	0	36800	
6385	0	36812	
6386	0	36800	
6387	0	36736	
6388	0	36672	
6389	0	36600	
6390	0	36516	
6391	0	36484	
6392	0	36536	
6393	0	36576	
6394	0	36592	
6395	0	36600	
6396	0	36532	
6397	0	36520	
6398	0	36528	
6399	0	36480	
6400	0	36400	
6401	0	36372	
6402	0	36316	
6403	0	36264	
6404	0	36232	
6405	0	36228	
6406	0	36228	
6407	0	36252	
6408	0	36204	
6409	0	36136	
6410	0	36032	
6411	0	35928	
6412	0	35884	
6413	0	35840	
6414	0	35760	
6415	0	35668	
6416	0	35548	
6417	0	35428	
6418	0	35288	
6419	0	35168	
6420	0	35028	
6421	0	34928	
6422	0	34812	
6423	0	34700	
6424	0	34548	
6425	0	34376	
6426	0	34168	
6427	0	33984	
6428	0	33836	
6429	0	33688	
6430	0	33528	
6431	0	33344	
6432	0	33140	
6433	0	32968	
6434	0	32764	
6435	0	32568	
6436	0	32416	
6437	0	32252	
6438	0	32044	
6439	0	31840	
6440	0	31692	
6441	0	31560	
6442	0	31472	
6443	0	31386	
6444	0	31272	
6445	0	31120	
6446	0	31016	
6447	0	30912	
6448	0	30752	
6449	0	30632	
6450	0	30544	
6451	0	30464	
6452	0	30344	
6453	0	30188	
6454	0	30076	
6455	0	29952	
6456	0	29836	
6457	0	29696	
6458	0	29572	
6459	0	29472	
6460	0	29396	
6461	0	29340	
6462	0	29304	
6463	0	29282	
6464	0	29260	
6465	0	29236	
6466	0	29152	
6467	0	29052	
6468	0	29044	
6469	0	29064	
6470	0	29008	
6471	0	28976	
6472	0	29020	
6473	0	29032	
6474	0	29036	
6475	0	29060	
6476	0	28976	
6477	0	28894	
6478	0	28844	
6479	0	28856	
6480	0	28956	
6481	0	29002	
6482	0	28960	
6483	0	28920	
6484	0	28868	
6485	0	28856	
6486	0	28868	
6487	0	28904	
6488	0	28956	
6489	0	28992	
6490	0	29000	
6491	0	29044	
6492	0	29108	
6493	0	29152	
6494	0	29240	
6495	0	29244	
6496	0	29224	
6497	0	29246	
6498	0	29284	
6499	0	29285	
6500	0	29308	
6501	0	29326	
6502	0	29352	
6503	0	29368	
6504	0	29368	
6505	0	29404	
6506	0	29480	
6507	0	29544	
6508	0	29584	
6509	0	29620	
6510	0	29660	
6511	0	29736	
6512	0	29836	
6513	0	29936	
6514	0	29976	
6515	0	29964	
6516	0	29968	
6517	0	30004	
6518	0	30048	
6519	0	30148	
6520	0	30218	
6521	0	30232	
6522	0	30228	
6523	0	30232	
6524	0	30264	
6525	0	30280	
6526	0	30304	
6527	0	30316	
6528	0	30368	
6529	0	30400	
6530	0	30412	
6531	0	30408	
6532	0	30412	
6533	0	30440	
6534	0	30500	
6535	0	30544	
6536	0	30568	
6537	0	30596	
6538	0	30640	
6539	0	30690	
6540	0	30712	
6541	0	30756	
6542	0	30796	
6543	0	30832	
6544	0	30894	
6545	0	30916	
6546	0	30884	
6547	0	30896	
6548	0	30940	
6549	0	30986	
6550	0	31042	
6551	0	31048	
6552	0	31024	
6553	0	31040	
6554	0	31106	
6555	0	31172	
6556	0	31188	
6557	0	31212	
6558	0	31280	
6559	0	31324	
6560	0	31320	
6561	0	31296	
6562	0	31240	
6563	0	31268	
6564	0	31308	
6565	0	31304	
6566	0	31320	
6567	0	31384	
6568	0	31376	
6569	0	31380	
6570	0	31412	
6571	0	31428	
6572	0	31424	
6573	0	31440	
6574	0	31420	
6575	0	31432	
6576	0	31484	
6577	0	31486	
6578	0	31508	
6579	0	31532	
6580	0	31532	
6581	0	31536	
6582	0	31568	
6583	0	31596	
6584	0	31596	
6585	0	31564	
6586	0	31516	
6587	0	31552	
6588	0	31592	
6589	0	31594	
6590	0	31572	
6591	0	31584	
6592	0	31628	
6593	0	31664	
6594	0	31680	
6595	0	31668	
6596	0	31656	
6597	0	31620	
6598	0	31572	
6599	0	31540	
6600	0	31568	
6601	0	31624	
6602	0	31656	
6603	0	31664	
6604	0	31664	
6605	0	31680	
6606	0	31704	
6607	0	31728	
6608	0	31756	
6609	0	31768	
6610	0	31812	
6611	0	31848	
6612	0	31820	
6613	0	31812	
6614	0	31768	
6615	0	31752	
6616	0	31712	
6617	0	31748	
6618	0	31744	
6619	0	31728	
6620	0	31684	
6621	0	31660	
6622	0	31688	
6623	0	31728	
6624	0	31760	
6625	0	31708	
6626	0	31680	
6627	0	31712	
6628	0	31684	
6629	0	31680	
6630	0	31696	
6631	0	31746	
6632	0	31760	
6633	0	31748	
6634	0	31724	
6635	0	31728	
6636	0	31718	
6637	0	31724	
6638	0	31764	
6639	0	31808	
6640	0	31780	
6641	0	31732	
6642	0	31716	
6643	0	31760	
6644	0	31828	
6645	0	31852	
6646	0	31852	
6647	0	31844	
6648	0	31824	
6649	0	31864	
6650	0	31860	
6651	0	31800	
6652	0	31762	
6653	0	31760	
6654	0	31800	
6655	0	31828	
6656	0	31882	
6657	0	31904	
6658	0	31892	
6659	0	31844	
6660	0	31802	
6661	0	31832	
6662	0	31848	
6663	0	31852	
6664	0	31812	
6665	0	31816	
6666	0	31828	
6667	0	31872	
6668	0	31912	
6669	0	31944	
6670	0	31924	
6671	0	31904	
6672	0	31930	
6673	0	31952	
6674	0	31936	
6675	0	31928	
6676	0	31960	
6677	0	31952	
6678	0	31936	
6679	0	31946	
6680	0	32036	
6681	0	32084	
6682	0	32096	
6683	0	32000	
6684	0	31912	
6685	0	31844	
6686	0	31812	
6687	0	31840	
6688	0	31884	
6689	0	31908	
6690	0	31928	
6691	0	31964	
6692	0	31952	
6693	0	31908	
6694	0	31928	
6695	0	31968	
6696	0	31992	
6697	0	32056	
6698	0	32148	
6699	0	32160	
6700	0	32208	
6701	0	32248	
6702	0	32242	
6703	0	32248	
6704	0	32332	
6705	0	32496	
6706	0	32680	
6707	0	32760	
6708	0	32788	
6709	0	32816	
6710	0	32872	
6711	0	32928	
6712	0	32972	
6713	0	33056	
6714	0	33150	
6715	0	33200	
6716	0	33260	
6717	0	33276	
6718	0	33248	
6719	0	33208	
6720	0	33152	
6721	0	33104	
6722	0	32984	
6723	0	32892	
6724	0	32922	
6725	0	33024	
6726	0	33116	
6727	0	33200	
6728	0	33224	
6729	0	33264	
6730	0	33404	
6731	0	33632	
6732	0	33976	
6733	0	34212	
6734	0	34332	
6735	0	34496	
6736	0	34640	
6737	0	34776	
6738	0	34896	
6739	0	35072	
6740	0	35176	
6741	0	35208	
6742	0	35160	
6743	0	35042	
6744	0	34928	
6745	0	34836	
6746	0	34744	
6747	0	34684	
6748	0	34640	
6749	0	34568	
6750	0	34516	
6751	0	34384	
6752	0	34196	
6753	0	34074	
6754	0	33980	
6755	0	33832	
6756	0	33708	
6757	0	33604	
6758	0	33480	
6759	0	33332	
6760	0	33220	
6761	0	33132	
6762	0	33056	
6763	0	32996	
6764	0	32926	
6765	0	32816	
6766	0	32744	
6767	0	32732	
6768	0	32640	
6769	0	32460	
6770	0	32284	
6771	0	32160	
6772	0	32092	
6773	0	32034	
6774	0	31964	
6775	0	31832	
6776	0	31720	
6777	0	31572	
6778	0	31448	
6779	0	31336	
6780	0	31284	
6781	0	31204	
6782	0	31138	
6783	0	31080	
6784	0	31012	
6785	0	30996	
6786	0	31000	
6787	0	31044	
6788	0	31100	
6789	0	31060	
6790	0	30990	
6791	0	30938	
6792	0	30900	
6793	0	30948	
6794	0	31032	
6795	0	31140	
6796	0	31124	
6797	0	31082	
6798	0	31072	
6799	0	31092	
6800	0	31144	
6801	0	31242	
6802	0	31320	
6803	0	31328	
6804	0	31368	
6805	0	31396	
6806	0	31404	
6807	0	31436	
6808	0	31448	
6809	0	31456	
6810	0	31452	
6811	0	31448	
6812	0	31448	
6813	0	31476	
6814	0	31480	
6815	0	31484	
6816	0	31552	
6817	0	31568	
6818	0	31560	
6819	0	31608	
6820	0	31560	
6821	0	31468	
6822	0	31356	
6823	0	31188	
6824	0	30924	
6825	0	30508	
6826	0	29868	
6827	0	29144	
6828	0	28512	
6829	0	28084	
6830	0	27858	
6831	0	27744	
6832	0	27808	
6833	0	28112	
6834	0	28664	
6835	0	29496	
6836	0	30464	
6837	0	31504	
6838	0	32896	
6839	0	34468	
6840	0	36200	
6841	0	38228	
6842	0	40696	
6843	0	43564	
6844	0	46920	
6845	0	50660	
6846	0	54444	
6847	0	58088	
6848	0	61368	
6849	0	63360	
6850	0	64380	
6851	0	64896	
6852	0	65112	
6853	0	65160	
6854	0	65136	
6855	0	65052	
6856	0	64960	
6857	0	64840	
6858	0	64724	
6859	0	61900	
6860	0	55672	
6861	0	50532	
6862	0	46356	
6863	0	42944	
6864	0	40224	
6865	0	37932	
6866	0	35854	
6867	0	34016	
6868	0	32304	
6869	0	30748	
6870	0	29500	
6871	0	28516	
6872	0	27772	
6873	0	27200	
6874	0	26768	
6875	0	26512	
6876	0	26348	
6877	0	26224	
6878	0	26176	
6879	0	26176	
6880	0	26204	
6881	0	26362	
6882	0	26660	
6883	0	26964	
6884	0	27296	
6885	0	27644	
6886	0	27996	
6887	0	28328	
6888	0	28564	
6889	0	28792	
6890	0	28992	
6891	0	29132	
6892	0	29268	
6893	0	29364	
6894	0	29392	
6895	0	29352	
6896	0	29256	
6897	0	29258	
6898	0	29304	
6899	0	29276	
6900	0	29196	
6901	0	29156	
6902	0	29212	
6903	0	29296	
6904	0	29392	
6905	0	29362	
6906	0	29308	
6907	0	29296	
6908	0	29292	
6909	0	29300	
6910	0	29310	
6911	0	29368	
6912	0	29420	
6913	0	29444	
6914	0	29484	
6915	0	29500	
6916	0	29508	
6917	0	29524	
6918	0	29568	
6919	0	29624	
6920	0	29688	
6921	0	29752	
6922	0	29814	
6923	0	29880	
6924	0	29940	
6925	0	29992	
6926	0	30040	
6927	0	30128	
6928	0	30204	
6929	0	30192	
6930	0	30192	
6931	0	30144	
6932	0	30218	
6933	0	30340	
6934	0	30316	
6935	0	30300	
6936	0	30352	
6937	0	30422	
6938	0	30524	
6939	0	30612	
6940	0	30656	
6941	0	30636	
6942	0	30616	
6943	0	30628	
6944	0	30728	
6945	0	30852	
6946	0	30888	
6947	0	30924	
6948	0	30960	
6949	0	31012	
6950	0	31048	
6951	0	31108	
6952	0	31184	
6953	0	31232	
6954	0	31276	
6955	0	31276	
6956	0	31316	
6957	0	31392	
6958	0	31460	
6959	0	31506	
6960	0	31556	
6961	0	31624	
6962	0	31700	
6963	0	31778	
6964	0	31824	
6965	0	31840	
6966	0	31824	
6967	0	31808	
6968	0	31808	
6969	0	31880	
6970	0	31944	
6971	0	31968	
6972	0	32024	
6973	0	32092	
6974	0	32176	
6975	0	32272	
6976	0	32272	
6977	0	32256	
6978	0	32320	
6979	0	32380	
6980	0	32380	
6981	0	32384	
6982	0	32428	
6983	0	32432	
6984	0	32466	
6985	0	32544	
6986	0	32624	
6987	0	32688	
6988	0	32792	
6989	0	32816	
6990	0	32888	
6991	0	32948	
6992	0	32944	
6993	0	32988	
6994	0	33012	
6995	0	33052	
6996	0	33104	
6997	0	33232	
6998	0	33344	
6999	0	33378	
7000	0	33428	
7001	0	33452	
7002	0	33444	
7003	0	33468	
7004	0	33600	
7005	0	33744	
7006	0	33896	
7007	0	33944	
7008	0	33976	
7009	0	34032	
7010	0	34074	
7011	0	34136	
7012	0	34184	
7013	0	34242	
7014	0	34300	
7015	0	34328	
7016	0	34396	
7017	0	34496	
7018	0	34588	
7019	0	34616	
7020	0	34716	
7021	0	34728	
7022	0	34740	
7023	0	34862	
7024	0	34896	
7025	0	34932	
7026	0	35012	
7027	0	35072	
7028	0	35104	
7029	0	35144	
7030	0	35216	
7031	0	35288	
7032	0	35368	
7033	0	35418	
7034	0	35508	
7035	0	35556	
7036	0	35656	
7037	0	35716	
7038	0	35804	
7039	0	35916	
7040	0	35984	
7041	0	36020	
7042	0	36068	
7043	0	36092	
7044	0	36148	
7045	0	36216	
7046	0	36252	
7047	0	36180	
7048	0	36184	
7049	0	36280	
7050	0	36408	
7051	0	36488	
7052	0	36524	
7053	0	36576	
7054	0	36644	
7055	0	36712	
7056	0	36716	
7057	0	36656	
7058	0	36616	
7059	0	36560	
7060	0	36560	
7061	0	36600	
7062	0	36600	
7063	0	36632	
7064	0	36620	
7065	0	36580	
7066	0	36572	
7067	0	36588	
7068	0	36544	
7069	0	36480	
7070	0	36460	
7071	0	36388	
7072	0	36384	
7073	0	36396	
7074	0	36428	
7075	0	36406	
7076	0	36328	
7077	0	36276	
7078	0	36240	
7079	0	36218	
7080	0	36192	
7081	0	36176	
7082	0	36180	
7083	0	36148	
7084	0	36126	
7085	0	36080	
7086	0	36012	
7087	0	35976	
7088	0	35944	
7089	0	35922	
7090	0	35880	
7091	0	35768	
7092	0	35624	
7093	0	35488	
7094	0	35424	
7095	0	35304	
7096	0	35180	
7097	0	35048	
7098	0	35006	
7099	0	34976	
7100	0	34840	
7101	0	34680	
7102	0	34520	
7103	0	34370	
7104	0	34232	
7105	0	34068	
7106	0	33888	
7107	0	33732	
7108	0	33552	
7109	0	33384	
7110	0	33212	
7111	0	33024	
7112	0	32844	
7113	0	32660	
7114	0	32500	
7115	0	32344	
7116	0	32216	
7117	0	32100	
7118	0	32024	
7119	0	31892	
7120	0	31712	
7121	0	31548	
7122	0	31376	
7123	0	31172	
7124	0	31044	
7125	0	30920	
7126	0	30736	
7127	0	30628	
7128	0	30504	
7129	0	30356	
7130	0	30224	
7131	0	30128	
7132	0	30036	
7133	0	29904	
7134	0	29816	
7135	0	29716	
7136	0	29632	
7137	0	29544	
7138	0	29536	
7139	0	29532	
7140	0	29468	
7141	0	29384	
7142	0	29340	
7143	0	29314	
7144	0	29312	
7145	0	29292	
7146	0	29220	
7147	0	29144	
7148	0	29088	
7149	0	29064	
7150	0	29016	
7151	0	28944	
7152	0	28900	
7153	0	28896	
7154	0	28896	
7155	0	28896	
7156	0	28920	
7157	0	28916	
7158	0	28884	
7159	0	28868	
7160	0	28884	
7161	0	28904	
7162	0	28932	
7163	0	28960	
7164	0	28976	
7165	0	28996	
7166	0	29032	
7167	0	29088	
7168	0	29124	
7169	0	29156	
7170	0	29244	
7171	0	29260	
7172	0	29244	
7173	0	29228	
7174	0	29268	
7175	0	29280	
7176	0	29312	
7177	0	29308	
7178	0	29320	
7179	0	29344	
7180	0	29400	
7181	0	29450	
7182	0	29508	
7183	0	29592	
7184	0	29632	
7185	0	29668	
7186	0	29712	
7187	0	29776	
7188	0	29856	
7189	0	29934	
7190	0	29920	
7191	0	29956	
7192	0	30048	
7193	0	30148	
7194	0	30232	
7195	0	30266	
7196	0	30288	
7197	0	30308	
7198	0	30296	
7199	0	30282	
7200	0	30308	
7201	0	30368	
7202	0	30472	
7203	0	30504	
7204	0	30472	
7205	0	30436	
7206	0	30456	
7207	0	30496	
7208	0	30544	
7209	0	30560	
7210	0	30568	
7211	0	30656	
7212	0	30768	
7213	0	30836	
7214	0	30876	
7215	0	30936	
7216	0	30936	
7217	0	30920	
7218	0	30864	
7219	0	30832	
7220	0	30840	
7221	0	30804	
7222	0	30800	
7223	0	30848	
7224	0	30896	
7225	0	30912	
7226	0	30938	
7227	0	30988	
7228	0	31020	
7229	0	31084	
7230	0	31128	
7231	0	31144	
7232	0	31196	
7233	0	31236	
7234	0	31268	
7235	0	31320	
7236	0	31376	
7237	0	31392	
7238	0	31376	
7239	0	31372	
7240	0	31402	
7241	0	31416	
7242	0	31444	
7243	0	31468	
7244	0	31504	
7245	0	31544	
7246	0	31588	
7247	0	31624	
7248	0	31656	
7249	0	31668	
7250	0	31636	
7251	0	31564	
7252	0	31540	
7253	0	31520	
7254	0	31532	
7255	0	31556	
7256	0	31576	
7257	0	31556	
7258	0	31592	
7259	0	31632	
7260	0	31636	
7261	0	31632	
7262	0	31632	
7263	0	31578	
7264	0	31564	
7265	0	31528	
7266	0	31540	
7267	0	31576	
7268	0	31656	
7269	0	31680	
7270	0	31664	
7271	0	31668	
7272	0	31688	
7273	0	31680	
7274	0	31672	
7275	0	31652	
7276	0	31652	
7277	0	31664	
7278	0	31668	
7279	0	31668	
7280	0	31648	
7281	0	31628	
7282	0	31616	
7283	0	31592	
7284	0	31620	
7285	0	31608	
7286	0	31660	
7287	0	31712	
7288	0	31732	
7289	0	31716	
7290	0	31668	
7291	0	31614	
7292	0	31618	
7293	0	31652	
7294	0	31684	
7295	0	31692	
7296	0	31716	
7297	0	31720	
7298	0	31720	
7299	0	31696	
7300	0	31664	
7301	0	31616	
7302	0	31632	
7303	0	31664	
7304	0	31680	
7305	0	31704	
7306	0	31740	
7307	0	31754	
7308	0	31724	
7309	0	31682	
7310	0	31680	
7311	0	31696	
7312	0	31636	
7313	0	31632	
7314	0	31648	
7315	0	31700	
7316	0	31714	
7317	0	31648	
7318	0	31576	
7319	0	31528	
7320	0	31500	
7321	0	31528	
7322	0	31552	
7323	0	31568	
7324	0	31554	
7325	0	31548	
7326	0	31608	
7327	0	31642	
7328	0	31596	
7329	0	31600	
7330	0	31588	
7331	0	31584	
7332	0	31608	
7333	0	31680	
7334	0	31736	
7335	0	31754	
7336	0	31778	
7337	0	31824	
7338	0	31816	
7339	0	31780	
7340	0	31772	
7341	0	31796	
7342	0	31784	
7343	0	31751	
7344	0	31744	
7345	0	31776	
7346	0	31832	
7347	0	31904	
7348	0	32024	
7349	0	32120	
7350	0	32212	
7351	0	32360	
7352	0	32480	
7353	0	32512	
7354	0	32436	
7355	0	32364	
7356	0	32348	
7357	0	32376	
7358	0	32448	
7359	0	32556	
7360	0	32640	
7361	0	32708	
7362	0	32824	
7363	0	32932	
7364	0	32956	
7365	0	32928	
7366	0	32900	
7367	0	32860	
7368	0	32856	
7369	0	32788	
7370	0	32792	
7371	0	32808	
7372	0	32844	
7373	0	32892	
7374	0	32944	
7375	0	32952	
7376	0	33048	
7377	0	33236	
7378	0	33468	
7379	0	33692	
7380	0	33948	
7381	0	34172	
7382	0	34412	
7383	0	34592	
7384	0	34716	
7385	0	34796	
7386	0	34900	
7387	0	34992	
7388	0	35040	
7389	0	35104	
7390	0	35084	
7391	0	34992	
7392	0	34868	
7393	0	34732	
7394	0	34618	
7395	0	34554	
7396	0	34476	
7397	0	34328	
7398	0	34204	
7399	0	34120	
7400	0	34032	
7401	0	33920	
7402	0	33788	
7403	0	33688	
7404	0	33504	
7405	0	33316	
7406	0	33172	
7407	0	33060	
7408	0	32996	
7409	0	32920	
7410	0	32868	
7411	0	32776	
7412	0	32664	
7413	0	32560	
7414	0	32464	
7415	0	32320	
7416	0	32212	
7417	0	32132	
7418	0	32016	
7419	0	31924	
7420	0	31860	
7421	0	31726	
7422	0	31624	
7423	0	31516	
7424	0	31372	
7425	0	31236	
7426	0	31068	
7427	0	31002	
7428	0	30992	
7429	0	30932	
7430	0	30876	
7431	0	30804	
7432	0	30752	
7433	0	30716	
7434	0	30744	
7435	0	30778	
7436	0	30768	
7437	0	30786	
7438	0	30816	
7439	0	30848	
7440	0	30817	
7441	0	30836	
7442	0	30906	
7443	0	30984	
7444	0	31044	
7445	0	31080	
7446	0	31088	
7447	0	31100	
7448	0	31132	
7449	0	31176	
7450	0	31200	
7451	0	31204	
7452	0	31208	
7453	0	31172	
7454	0	31146	
7455	0	31172	
7456	0	31220	
7457	0	31232	
7458	0	31188	
7459	0	31140	
7460	0	31184	
7461	0	31252	
7462	0	31288	
7463	0	31296	
7464	0	31298	
7465	0	31316	
7466	0	31372	
7467	0	31404	
7468	0	31368	
7469	0	31248	
7470	0	31012	
7471	0	30768	
7472	0	30376	
7473	0	29856	
7474	0	29122	
7475	0	28340	
7476	0	27776	
7477	0	27456	
7478	0	27328	
7479	0	27328	
7480	0	27544	
7481	0	27944	
7482	0	28648	
7483	0	29626	
7484	0	30760	
7485	0	32072	
7486	0	33604	
7487	0	35428	
7488	0	37456	
7489	0	39880	
7490	0	42716	
7491	0	46012	
7492	0	49748	
7493	0	53632	
7494	0	57408	
7495	0	60992	
7496	0	63248	
7497	0	64432	
7498	0	65030	
7499	0	65280	
7500	0	65376	
7501	0	65360	
7502	0	65292	
7503	0	65176	
7504	0	65072	
7505	0	64960	
7506	0	63128	
7507	0	56716	
7508	0	51416	
7509	0	47088	
7510	0	43524	
7511	0	40664	
7512	0	38280	
7513	0	36176	
7514	0	34284	
7515	0	32560	
7516	0	30960	
7517	0	29464	
7518	0	28340	
7519	0	27464	
7520	0	26808	
7521	0	26312	
7522	0	26020	
7523	0	25920	
7524	0	25780	
7525	0	25604	
7526	0	25520	
7527	0	25634	
7528	0	25876	
7529	0	26208	
7530	0	26568	
7531	0	27004	
7532	0	27382	
7533	0	27672	
7534	0	27956	
7535	0	28208	
7536	0	28440	
7537	0	28654	
7538	0	28832	
7539	0	28964	
7540	0	29044	
7541	0	29134	
7542	0	29176	
7543	0	29164	
7544	0	29164	
7545	0	29164	
7546	0	29160	
7547	0	29164	
7548	0	29188	
7549	0	29178	
7550	0	29200	
7551	0	29200	
7552	0	29204	
7553	0	29248	
7554	0	29296	
7555	0	29340	
7556	0	29400	
7557	0	29416	
7558	0	29468	
7559	0	29472	
7560	0	29436	
7561	0	29448	
7562	0	29504	
7563	0	29536	
7564	0	29564	
7565	0	29576	
7566	0	29636	
7567	0	29704	
7568	0	29784	
7569	0	29760	
7570	0	29728	
7571	0	29768	
7572	0	29852	
7573	0	29920	
7574	0	29928	
7575	0	29940	
7576	0	30016	
7577	0	30076	
7578	0	30116	
7579	0	30208	
7580	0	30300	
7581	0	30380	
7582	0	30472	
7583	0	30540	
7584	0	30578	
7585	0	30560	
7586	0	30560	
7587	0	30628	
7588	0	30700	
7589	0	30772	
7590	0	30844	
7591	0	30880	
7592	0	30868	
7593	0	30916	
7594	0	30960	
7595	0	31008	
7596	0	31096	
7597	0	31172	
7598	0	31224	
7599	0	31208	
7600	0	31200	
7601	0	31220	
7602	0	31310	
7603	0	31324	
7604	0	31344	
7605	0	31304	
7606	0	31260	
7607	0	31260	
7608	0	31348	
7609	0	31428	
7610	0	31472	
7611	0	31560	
7612	0	31720	
7613	0	31868	
7614	0	32020	
7615	0	32080	
7616	0	32132	
7617	0	32204	
7618	0	32248	
7619	0	32282	
7620	0	32300	
7621	0	32288	
7622	0	32300	
7623	0	32368	
7624	0	32408	
7625	0	32404	
7626	0	32414	
7627	0	32416	
7628	0	32448	
7629	0	32500	
7630	0	32548	
7631	0	32588	
7632	0	32632	
7633	0	32668	
7634	0	32724	
7635	0	32792	
7636	0	32864	
7637	0	32960	
7638	0	33076	
7639	0	33140	
7640	0	33220	
7641	0	33306	
7642	0	33376	
7643	0	33476	
7644	0	33608	
7645	0	33712	
7646	0	33740	
7647	0	33744	
7648	0	33728	
7649	0	33680	
7650	0	33688	
7651	0	33720	
7652	0	33744	
7653	0	33781	
7654	0	33900	
7655	0	34042	
7656	0	34128	
7657	0	34144	
7658	0	34212	
7659	0	34324	
7660	0	34408	
7661	0	34496	
7662	0	34556	
7663	0	34584	
7664	0	34644	
7665	0	34772	
7666	0	34816	
7667	0	34848	
7668	0	34896	
7669	0	34974	
7670	0	35040	
7671	0	35112	
7672	0	35220	
7673	0	35324	
7674	0	35404	
7675	0	35496	
7676	0	35552	
7677	0	35600	
7678	0	35692	
7679	0	35766	
7680	0	35784	
7681	0	35808	
7682	0	35824	
7683	0	35892	
7684	0	35968	
7685	0	36032	
7686	0	36068	
7687	0	36116	
7688	0	36136	
7689	0	36192	
7690	0	36224	
7691	0	36314	
7692	0	36400	
7693	0	36424	
7694	0	36400	
7695	0	36386	
7696	0	36356	
7697	0	36396	
7698	0	36500	
7699	0	36580	
7700	0	36712	
7701	0	36800	
7702	0	36748	
7703	0	36672	
7704	0	36676	
7705	0	36752	
7706	0	36808	
7707	0	36764	
7708	0	36672	
7709	0	36650	
7710	0	36640	
7711	0	36584	
7712	0	36560	
7713	0	36480	
7714	0	36416	
7715	0	36380	
7716	0	36384	
7717	0	36424	
7718	0	36356	
7719	0	36272	
7720	0	36288	
7721	0	36256	
7722	0	36172	
7723	0	36104	
7724	0	36096	
7725	0	36124	
7726	0	36108	
7727	0	36036	
7728	0	35960	
7729	0	35916	
7730	0	35924	
7731	0	35928	
7732	0	35904	
7733	0	35884	
7734	0	35864	
7735	0	35798	
7736	0	35732	
7737	0	35616	
7738	0	35448	
7739	0	35335	
7740	0	35220	
7741	0	35068	
7742	0	35000	
7743	0	34874	
7744	0	34740	
7745	0	34576	
7746	0	34456	
7747	0	34372	
7748	0	34282	
7749	0	34156	
7750	0	34024	
7751	0	33896	
7752	0	33824	
7753	0	33672	
7754	0	33440	
7755	0	33248	
7756	0	33144	
7757	0	33040	
7758	0	32940	
7759	0	32852	
7760	0	32752	
7761	0	32620	
7762	0	32436	
7763	0	32272	
7764	0	32156	
7765	0	32012	
7766	0	31800	
7767	0	31616	
7768	0	31480	
7769	0	31384	
7770	0	31316	
7771	0	31132	
7772	0	30956	
7773	0	30812	
7774	0	30720	
7775	0	30612	
7776	0	30500	
7777	0	30368	
7778	0	30260	
7779	0	30124	
7780	0	29940	
7781	0	29780	
7782	0	29664	
7783	0	29536	
7784	0	29408	
7785	0	29324	
7786	0	29240	
7787	0	29152	
7788	0	29088	
7789	0	29072	
7790	0	29080	
7791	0	29040	
7792	0	28952	
7793	0	28892	
7794	0	28888	
7795	0	28848	
7796	0	28856	
7797	0	28848	
7798	0	28784	
7799	0	28784	
7800	0	28768	
7801	0	28752	
7802	0	28816	
7803	0	28896	
7804	0	28932	
7805	0	28944	
7806	0	28940	
7807	0	28920	
7808	0	28920	
7809	0	28956	
7810	0	29004	
7811	0	29020	
7812	0	29008	
7813	0	29042	
7814	0	29096	
7815	0	29108	
7816	0	29152	
7817	0	29088	
7818	0	29012	
7819	0	28980	
7820	0	28960	
7821	0	28992	
7822	0	29072	
7823	0	29104	
7824	0	29168	
7825	0	29282	
7826	0	29324	
7827	0	29324	
7828	0	29312	
7829	0	29360	
7830	0	29452	
7831	0	29552	
7832	0	29560	
7833	0	29520	
7834	0	29456	
7835	0	29420	
7836	0	29468	
7837	0	29548	
7838	0	29620	
7839	0	29768	
7840	0	29958	
7841	0	30092	
7842	0	30220	
7843	0	30320	
7844	0	30380	
7845	0	30522	
7846	0	30680	
7847	0	30724	
7848	0	30756	
7849	0	30816	
7850	0	30792	
7851	0	30720	
7852	0	30656	
7853	0	30624	
7854	0	30652	
7855	0	30680	
7856	0	30688	
7857	0	30768	
7858	0	30880	
7859	0	30992	
7860	0	31084	
7861	0	31136	
7862	0	31108	
7863	0	31096	
7864	0	31090	
7865	0	31104	
7866	0	31112	
7867	0	31000	
7868	0	30944	
7869	0	31044	
7870	0	31152	
7871	0	31160	
7872	0	31156	
7873	0	31164	
7874	0	31256	
7875	0	31440	
7876	0	31624	
7877	0	31716	
7878	0	31776	
7879	0	31712	
7880	0	31628	
7881	0	31624	
7882	0	31636	
7883	0	31592	
7884	0	31480	
7885	0	31392	
7886	0	31336	
7887	0	31329	
7888	0	31312	
7889	0	31404	
7890	0	31652	
7891	0	31840	
7892	0	31848	
7893	0	31876	
7894	0	31944	
7895	0	31944	
7896	0	31892	
7897	0	31732	
7898	0	31488	
7899	0	31248	
7900	0	31160	
7901	0	31152	
7902	0	31244	
7903	0	31288	
7904	0	31384	
7905	0	31536	
7906	0	31660	
7907	0	31668	
7908	0	31672	
7909	0	31744	
7910	0	31800	
7911	0	31836	
7912	0	31876	
7913	0	31856	
7914	0	31880	
7915	0	31932	
7916	0	31968	
7917	0	32036	
7918	0	32120	
7919	0	32180	
7920	0	32196	
7921	0	32200	
7922	0	32060	
7923	0	31868	
7924	0	31724	
7925	0	31616	
7926	0	31572	
7927	0	31568	
7928	0	31508	
7929	0	31420	
7930	0	31330	
7931	0	31208	
7932	0	31232	
7933	0	31332	
7934	0	31372	
7935	0	31456	
7936	0	31628	
7937	0	31872	
7938	0	32024	
7939	0	32048	
7940	0	31916	
7941	0	31760	
7942	0	31720	
7943	0	31736	
7944	0	31728	
7945	0	31728	
7946	0	31756	
7947	0	31816	
7948	0	31840	
7949	0	31724	
7950	0	31726	
7951	0	31772	
7952	0	31768	
7953	0	31792	
7954	0	31800	
7955	0	31740	
7956	0	31656	
7957	0	31568	
7958	0	31604	
7959	0	31724	
7960	0	31856	
7961	0	31908	
7962	0	31978	
7963	0	31960	
7964	0	31860	
7965	0	31848	
7966	0	32032	
7967	0	32236	
7968	0	32404	
7969	0	32526	
7970	0	32616	
7971	0	32680	
7972	0	32792	
7973	0	32864	
7974	0	32788	
7975	0	32640	
7976	0	32620	
7977	0	32480	
7978	0	32156	
7979	0	31976	
7980	0	31898	
7981	0	32008	
7982	0	32220	
7983	0	32648	
7984	0	32888	
7985	0	33088	
7986	0	33344	
7987	0	33492	
7988	0	33660	
7989	0	33840	
7990	0	34052	
7991	0	34200	
7992	0	34264	
7993	0	34312	
7994	0	34344	
7995	0	34468	
7996	0	34620	
7997	0	34728	
7998	0	34776	
7999	0	34736	
8000	0	34584	
8001	0	34504	
8002	0	34456	
8003	0	34452	
8004	0	34400	
8005	0	34174	
8006	0	34008	
8007	0	33936	
8008	0	33864	
8009	0	33688	
8010	0	33496	
8011	0	33312	
8012	0	33136	
8013	0	33024	
8014	0	32928	
8015	0	32732	
8016	0	32660	
8017	0	32752	
8018	0	32836	
8019	0	32832	
8020	0	32740	
8021	0	32540	
8022	0	32376	
8023	0	32260	
8024	0	32136	
8025	0	31960	
8026	0	31804	
8027	0	31890	
8028	0	31976	
8029	0	32002	
8030	0	31890	
8031	0	31760	
8032	0	31688	
8033	0	31736	
8034	0	31616	
8035	0	31412	
8036	0	31288	
8037	0	31120	
8038	0	30936	
8039	0	30768	
8040	0	30736	
8041	0	30780	
8042	0	30728	
8043	0	30744	
8044	0	30844	
8045	0	30960	
8046	0	31090	
8047	0	31120	
8048	0	31136	
8049	0	31084	
8050	0	31056	
8051	0	30992	
8052	0	30904	
8053	0	30872	
8054	0	30756	
8055	0	30684	
8056	0	30650	
8057	0	30736	
8058	0	30806	
8059	0	30816	
8060	0	30868	
8061	0	31096	
8062	0	31224	
8063	0	31380	
8064	0	31646	
8065	0	31844	
8066	0	31856	
8067	0	31844	
8068	0	31768	
8069	0	31696	
8070	0	31652	
8071	0	31588	
8072	0	31520	
8073	0	31396	
8074	0	31200	
8075	0	30972	
8076	0	30840	
8077	0	30832	
8078	0	30872	
8079	0	30948	
8080	0	30992	
8081	0	30784	
8082	0	30412	
8083	0	30046	
8084	0	29680	
8085	0	29232	
8086	0	28892	
8087	0	28738	
8088	0	28626	
8089	0	28672	
8090	0	28916	
8091	0	29344	
8092	0	29872	
8093	0	30468	
8094	0	31180	
8095	0	32094	
8096	0	33272	
8097	0	34720	
8098	0	36404	
8099	0	38608	
8100	0	41344	
8101	0	44464	
8102	0	47820	
8103	0	51084	
8104	0	54392	
8105	0	57816	
8106	0	61032	
8107	0	63264	
8108	0	64448	
8109	0	65044	
8110	0	65296	
8111	0	65368	
8112	0	65352	
8113	0	65296	
8114	0	62544	
8115	0	56664	
8116	0	50712	
8117	0	44848	
8118	0	39820	
8119	0	36020	
8120	0	33400	
8121	0	31740	
8122	0	30576	
8123	0	29664	
8124	0	28996	
8125	0	28500	
8126	0	27996	
8127	0	27404	
8128	0	26816	
8129	0	26334	
8130	0	25828	
8131	0	25432	
8132	0	25264	
8133	0	25176	
8134	0	25184	
8135	0	25310	
8136	0	25538	
8137	0	25948	
8138	0	26168	
8139	0	26440	
8140	0	26784	
8141	0	27136	
8142	0	27372	
8143	0	27532	
8144	0	27768	
8145	0	27992	
8146	0	28288	
8147	0	28468	
8148	0	28668	
8149	0	29032	
8150	0	29544	
8151	0	30040	
8152	0	30448	
8153	0	30692	
8154	0	30960	
8155	0	31220	
8156	0	31330	
8157	0	31336	
8158	0	31252	
8159	0	31048	
8160	0	30832	
8161	0	30652	
8162	0	30632	
8163	0	30660	
8164	0	30672	
8165	0	30688	
8166	0	30848	
8167	0	31052	
8168	0	31212	
8169	0	31328	
8170	0	31458	
8171	0	31444	
8172	0	31336	
8173	0	31364	
8174	0	31424	
8175	0	31480	
8176	0	31476	
8177	0	31456	
8178	0	31356	
8179	0	31296	
8180	0	31236	
8181	0	31196	
8182	0	31240	
8183	0	31364	
8184	0	31556	
8185	0	31680	
8186	0	31884	
8187	0	32008	
8188	0	31964	
8189	0	31836	
8190	0	31688	
8191	0	31508	
8192	0	31252	
8193	0	31152	
8194	0	31188	
8195	0	31388	
8196	0	31704	
8197	0	32008	
8198	0	32220	
8199	0	32188	
8200	0	32068	
8201	0	32098	
8202	0	32208	
8203	0	32144	
8204	0	31968	
8205	0	31836	
8206	0	31872	
8207	0	32000	
8208	0	32220	
8209	0	32464	
8210	0	32674	
8211	0	32876	
8212	0	33000	
8213	0	32954	
8214	0	32924	
8215	0	32928	
8216	0	32832	
8217	0	32756	
8218	0	32724	
8219	0	32792	
8220	0	32864	
8221	0	32896	
8222	0	33052	
8223	0	33276	
8224	0	33432	
8225	0	33524	
8226	0	33516	
8227	0	33376	
8228	0	33240	
8229	0	33072	
8230	0	32840	
8231	0	32792	
8232	0	32908	
8233	0	33020	
8234	0	33144	
8235	0	33428	
8236	0	33826	
8237	0	34164	
8238	0	34284	
8239	0	34316	
8240	0	34304	
8241	0	34148	
8242	0	33956	
8243	0	33964	
8244	0	34000	
8245	0	34000	
8246	0	34036	
8247	0	34166	
8248	0	34288	
8249	0	34456	
8250	0	34532	
8251	0	34552	
8252	0	34680	
8253	0	34864	
8254	0	34904	
8255	0	34760	
8256	0	34632	
8257	0	34560	
8258	0	34548	
8259	0	34676	
8260	0	34920	
8261	0	35056	
8262	0	35024	
8263	0	35064	
8264	0	35092	
8265	0	35152	
8266	0	35364	
8267	0	35748	
8268	0	36016	
8269	0	36116	
8270	0	36116	
8271	0	36012	
8272	0	35968	
8273	0	35932	
8274	0	35800	
8275	0	35764	
8276	0	35752	
8277	0	35736	
8278	0	35820	
8279	0	35972	
8280	0	36148	
8281	0	36240	
8282	0	36116	
8283	0	36032	
8284	0	35896	
8285	0	35808	
8286	0	35968	
8287	0	36112	
8288	0	36236	
8289	0	36408	
8290	0	36524	
8291	0	36744	
8292	0	37068	
8293	0	37308	
8294	0	37472	
8295	0	37620	
8296	0	37848	
8297	0	38080	
8298	0	38256	
8299	0	38244	
8300	0	38024	
8301	0	37756	
8302	0	37624	
8303	0	37536	
8304	0	37476	
8305	0	37440	
8306	0	37426	
8307	0	37540	
8308	0	37584	
8309	0	37616	
8310	0	37700	
8311	0	37924	
8312	0	38144	
8313	0	38252	
8314	0	38268	
8315	0	38024	
8316	0	37824	
8317	0	37756	
8318	0	37708	
8319	0	37374	
8320	0	37136	
8321	0	37066	
8322	0	37176	
8323	0	37248	
8324	0	37400	
8325	0	37744	
8326	0	37984	
8327	0	38072	
8328	0	37944	
8329	0	37676	
8330	0	37492	
8331	0	37432	
8332	0	37392	
8333	0	37476	
8334	0	37548	
8335	0	37624	
8336	0	37300	
8337	0	37056	
8338	0	36956	
8339	0	36964	
8340	0	36972	
8341	0	37012	
8342	0	37084	
8343	0	36922	
8344	0	36712	
8345	0	36544	
8346	0	36440	
8347	0	36256	
8348	0	35852	
8349	0	35484	
8350	0	35332	
8351	0	35174	
8352	0	34896	
8353	0	34628	
8354	0	34616	
8355	0	34700	
8356	0	34576	
8357	0	34288	
8358	0	34144	
8359	0	34092	
8360	0	34080	
8361	0	34060	
8362	0	34072	
8363	0	34136	
8364	0	34084	
8365	0	33856	
8366	0	33572	
8367	0	33296	
8368	0	33020	
8369	0	32800	
8370	0	32660	
8371	0	32482	
8372	0	32290	
8373	0	32234	
8374	0	32152	
8375	0	32004	
8376	0	31636	
8377	0	31368	
8378	0	31400	
8379	0	31456	
8380	0	31394	
8381	0	31268	
8382	0	31188	
8383	0	31012	
8384	0	30738	
8385	0	30456	
8386	0	30108	
8387	0	29784	
8388	0	29520	
8389	0	29384	
8390	0	29300	
8391	0	29312	
8392	0	29320	
8393	0	29344	
8394	0	29260	
8395	0	29100	
8396	0	28968	
8397	0	28912	
8398	0	28896	
8399	0	28896	
8400	0	28992	
8401	0	29164	
8402	0	29276	
8403	0	29288	
8404	0	29392	
8405	0	29513	
8406	0	29466	
8407	0	29312	
8408	0	29214	
8409	0	29136	
8410	0	29012	
8411	0	28928	
8412	0	28944	
8413	0	28896	
8414	0	28820	
8415	0	28856	
8416	0	28956	
8417	0	28904	
8418	0	28748	
8419	0	28700	
8420	0	28776	
8421	0	28728	
8422	0	28580	
8423	0	28560	
8424	0	28696	
8425	0	28796	
8426	0	28956	
8427	0	29098	
8428	0	29252	
8429	0	29340	
8430	0	29356	
8431	0	29328	
8432	0	29320	
8433	0	29384	
8434	0	29400	
8435	0	29328	
8436	0	29224	
8437	0	29204	
8438	0	29324	
8439	0	29556	
8440	0	29690	
8441	0	29800	
8442	0	29792	
8443	0	29704	
8444	0	29620	
8445	0	29530	
8446	0	29504	
8447	0	29540	
8448	0	29788	
8449	0	30108	
8450	0	30388	
8451	0	30564	
8452	0	30680	
8453	0	30808	
8454	0	30804	
8455	0	30616	
8456	0	30224	
8457	0	29876	
8458	0	29748	
8459	0	29780	
8460	0	29972	
8461	0	30108	
8462	0	30132	
8463	0	30092	
8464	0	30088	
8465	0	30220	
8466	0	30388	
8467	0	30448	
8468	0	30614	
8469	0	30800	
8470	0	30972	
8471	0	31164	
8472	0	31362	
8473	0	31568	
8474	0	31456	
8475	0	31320	
8476	0	31308	
8477	0	31396	
8478	0	31440	
8479	0	31460	
8480	0	31416	
8481	0	31348	
8482	0	31392	
8483	0	31408	
8484	0	31288	
8485	0	31132	
8486	0	30996	
8487	0	30872	
8488	0	30824	
8489	0	30932	
8490	0	31060	
8491	0	31160	
8492	0	31280	
8493	0	31234	
8494	0	31084	
8495	0	31028	
8496	0	30960	
8497	0	30912	
8498	0	31060	
8499	0	31352	
8500	0	31488	
8501	0	31540	
8502	0	31660	
8503	0	31792	
8504	0	31872	
8505	0	31956	
8506	0	31936	
8507	0	31852	
8508	0	31900	
8509	0	31904	
8510	0	31668	
8511	0	31592	
8512	0	31784	
8513	0	31888	
8514	0	31856	
8515	0	31800	
8516	0	31752	
8517	0	31732	
8518	0	31724	
8519	0	31844	
8520	0	31936	
8521	0	32068	
8522	0	32272	
8523	0	32288	
8524	0	32272	
8525	0	32352	
8526	0	32332	
8527	0	32192	
8528	0	32028	
8529	0	31864	
8530	0	31828	
8531	0	31876	
8532	0	31932	
8533	0	31900	
8534	0	31860	
8535	0	31802	
8536	0	31756	
8537	0	31784	
8538	0	31784	
8539	0	31744	
8540	0	31764	
8541	0	31752	
8542	0	31760	
8543	0	31824	
8544	0	31892	
8545	0	32088	
8546	0	32272	
8547	0	32196	
8548	0	31958	
8549	0	31756	
8550	0	31536	
8551	0	31464	
8552	0	31596	
8553	0	31872	
8554	0	32208	
8555	0	32580	
8556	0	32932	
8557	0	33108	
8558	0	33004	
8559	0	32868	
8560	0	32837	
8561	0	32952	
8562	0	33104	
8563	0	33240	
8564	0	33250	
8565	0	33152	
8566	0	33076	
8567	0	33004	
8568	0	33092	
8569	0	33076	
8570	0	33056	
8571	0	33120	
8572	0	33024	
8573	0	32892	
8574	0	32900	
8575	0	32896	
8576	0	32872	
8577	0	32912	
8578	0	33012	
8579	0	33120	
8580	0	33368	
8581	0	33704	
8582	0	34068	
8583	0	34424	
8584	0	34676	
8585	0	34704	
8586	0	34652	
8587	0	34612	
8588	0	34516	
8589	0	34464	
8590	0	34464	
8591	0	34372	
