# OpenSignals Text File Format. Version 1
# {"00:07:80:4B:15:F7": {"position": 0, "device": "biosignalsplux", "device name": "00:07:80:4B:15:F7", "device connection": "BTH00:07:80:4B:15:F7", "sampling rate": 1000, "resolution": [16], "firmware version": 775, "comments": "", "keywords": "", "mode": 0, "sync interval": 2, "date": "2023-4-12", "time": "15:31:17.532", "channels": [1], "sensor": ["ECG"], "label": ["CH1"], "column": ["nSeq", "DI", "CH1"], "special": [{"SpO2": [80, 40, 5, 4, 3, 3]}, {"SpO2": [80, 40, 5, 4, 3, 3]}, {"SpO2": [80, 40, 5, 4, 3, 3]}, {"SpO2": [80, 40, 5, 4, 3, 3]}, {"SpO2": [80, 40, 5, 4, 3, 3]}, {"SpO2": [80, 40, 5, 4, 3, 3]}, {"SpO2": [80, 40, 5, 4, 3, 3]}, {"SpO2": [80, 40, 5, 4, 3, 3]}], "digital IO": [0, 1], "sleeve color": ["green"], "convertedValues": 0}}
# EndOfHeader
0	0	32812	
1	0	32832	
2	0	32848	
3	0	32844	
4	0	32812	
5	0	32792	
6	0	32752	
7	0	32704	
8	0	32668	
9	0	32644	
10	0	32628	
11	0	32636	
12	0	32640	
13	0	32620	
14	0	32600	
15	0	32568	
16	0	32536	
17	0	32532	
18	0	32536	
19	0	32544	
20	0	32548	
21	0	32556	
22	0	32512	
23	0	32484	
24	0	32476	
25	0	32480	
26	0	32496	
27	0	32496	
28	0	32492	
29	0	32484	
30	0	32504	
31	0	32512	
32	0	32472	
33	0	32448	
34	0	32420	
35	0	32404	
36	0	32394	
37	0	32412	
38	0	32420	
39	0	32424	
40	0	32396	
41	0	32368	
42	0	32392	
43	0	32408	
44	0	32400	
45	0	32384	
46	0	32366	
47	0	32344	
48	0	32336	
49	0	32320	
50	0	32312	
51	0	32292	
52	0	32288	
53	0	32280	
54	0	32288	
55	0	32292	
56	0	32274	
57	0	32288	
58	0	32314	
59	0	32304	
60	0	32320	
61	0	32344	
62	0	32360	
63	0	32368	
64	0	32356	
65	0	32352	
66	0	32352	
67	0	32340	
68	0	32324	
69	0	32312	
70	0	32308	
71	0	32300	
72	0	32290	
73	0	32288	
74	0	32304	
75	0	32324	
76	0	32312	
77	0	32292	
78	0	32300	
79	0	32288	
80	0	32272	
81	0	32252	
82	0	32240	
83	0	32280	
84	0	32276	
85	0	32272	
86	0	32300	
87	0	32336	
88	0	32344	
89	0	32342	
90	0	32346	
91	0	32352	
92	0	32336	
93	0	32316	
94	0	32292	
95	0	32304	
96	0	32296	
97	0	32306	
98	0	32312	
99	0	32316	
100	0	32328	
101	0	32328	
102	0	32336	
103	0	32336	
104	0	32338	
105	0	32350	
106	0	32360	
107	0	32366	
108	0	32344	
109	0	32336	
110	0	32332	
111	0	32304	
112	0	32296	
113	0	32292	
114	0	32288	
115	0	32288	
116	0	32300	
117	0	32314	
118	0	32336	
119	0	32344	
120	0	32364	
121	0	32372	
122	0	32368	
123	0	32372	
124	0	32392	
125	0	32424	
126	0	32460	
127	0	32506	
128	0	32544	
129	0	32568	
130	0	32596	
131	0	32656	
132	0	32744	
133	0	32808	
134	0	32896	
135	0	33044	
136	0	33192	
137	0	33392	
138	0	33562	
139	0	33732	
140	0	33924	
141	0	34096	
142	0	34272	
143	0	34444	
144	0	34552	
145	0	34588	
146	0	34652	
147	0	34696	
148	0	34720	
149	0	34700	
150	0	34652	
151	0	34624	
152	0	34632	
153	0	34648	
154	0	34642	
155	0	34660	
156	0	34688	
157	0	34672	
158	0	34640	
159	0	34636	
160	0	34752	
161	0	34940	
162	0	35184	
163	0	35476	
164	0	35776	
165	0	36098	
166	0	36480	
167	0	36780	
168	0	36996	
169	0	37168	
170	0	37304	
171	0	37364	
172	0	37352	
173	0	37312	
174	0	37248	
175	0	37196	
176	0	37136	
177	0	37016	
178	0	36874	
179	0	36696	
180	0	36470	
181	0	36292	
182	0	36184	
183	0	36144	
184	0	36120	
185	0	36132	
186	0	36144	
187	0	36148	
188	0	36124	
189	0	36068	
190	0	35956	
191	0	35844	
192	0	35768	
193	0	35688	
194	0	35632	
195	0	35440	
196	0	35176	
197	0	34864	
198	0	34504	
199	0	34136	
200	0	33768	
201	0	33316	
202	0	32856	
203	0	32416	
204	0	32036	
205	0	31744	
206	0	31550	
207	0	31384	
208	0	31284	
209	0	31188	
210	0	31112	
211	0	31052	
212	0	31000	
213	0	30904	
214	0	30754	
215	0	30584	
216	0	30420	
217	0	30312	
218	0	30236	
219	0	30192	
220	0	30180	
221	0	30176	
222	0	30156	
223	0	30162	
224	0	30164	
225	0	30168	
226	0	30176	
227	0	30204	
228	0	30234	
229	0	30252	
230	0	30264	
231	0	30300	
232	0	30312	
233	0	30344	
234	0	30340	
235	0	30316	
236	0	30312	
237	0	30360	
238	0	30412	
239	0	30464	
240	0	30480	
241	0	30496	
242	0	30500	
243	0	30508	
244	0	30528	
245	0	30532	
246	0	30508	
247	0	30494	
248	0	30524	
249	0	30556	
250	0	30560	
251	0	30584	
252	0	30636	
253	0	30640	
254	0	30580	
255	0	30452	
256	0	30256	
257	0	29984	
258	0	29462	
259	0	28700	
260	0	27808	
261	0	26836	
262	0	25884	
263	0	25008	
264	0	24280	
265	0	23756	
266	0	23444	
267	0	23292	
268	0	23416	
269	0	23824	
270	0	24480	
271	0	25262	
272	0	26156	
273	0	27412	
274	0	29280	
275	0	31680	
276	0	34352	
277	0	37140	
278	0	40170	
279	0	43448	
280	0	47172	
281	0	51328	
282	0	55648	
283	0	59668	
284	0	62000	
285	0	63204	
286	0	63840	
287	0	64112	
288	0	64200	
289	0	64200	
290	0	64144	
291	0	64052	
292	0	63944	
293	0	63824	
294	0	63720	
295	0	62320	
296	0	55668	
297	0	50476	
298	0	46300	
299	0	42196	
300	0	38008	
301	0	34200	
302	0	30976	
303	0	28212	
304	0	25692	
305	0	23472	
306	0	21724	
307	0	20301	
308	0	19130	
309	0	18176	
310	0	17392	
311	0	16852	
312	0	16432	
313	0	16072	
314	0	15855	
315	0	15932	
316	0	16252	
317	0	16806	
318	0	17450	
319	0	18092	
320	0	18662	
321	0	19288	
322	0	19940	
323	0	20608	
324	0	21276	
325	0	21936	
326	0	22572	
327	0	23202	
328	0	23908	
329	0	24648	
330	0	25408	
331	0	26072	
332	0	26632	
333	0	27100	
334	0	27484	
335	0	27828	
336	0	28136	
337	0	28388	
338	0	28628	
339	0	28816	
340	0	28968	
341	0	29068	
342	0	29148	
343	0	29226	
344	0	29288	
345	0	29372	
346	0	29456	
347	0	29552	
348	0	29632	
349	0	29680	
350	0	29756	
351	0	29832	
352	0	29916	
353	0	29970	
354	0	30052	
355	0	30146	
356	0	30252	
357	0	30308	
358	0	30368	
359	0	30432	
360	0	30524	
361	0	30596	
362	0	30640	
363	0	30680	
364	0	30760	
365	0	30800	
366	0	30852	
367	0	30924	
368	0	31000	
369	0	31060	
370	0	31108	
371	0	31148	
372	0	31184	
373	0	31200	
374	0	31228	
375	0	31264	
376	0	31328	
377	0	31380	
378	0	31448	
379	0	31492	
380	0	31522	
381	0	31576	
382	0	31644	
383	0	31708	
384	0	31748	
385	0	31760	
386	0	31776	
387	0	31808	
388	0	31872	
389	0	31936	
390	0	31972	
391	0	31996	
392	0	31996	
393	0	32024	
394	0	32062	
395	0	32092	
396	0	32144	
397	0	32224	
398	0	32264	
399	0	32308	
400	0	32352	
401	0	32368	
402	0	32364	
403	0	32384	
404	0	32408	
405	0	32428	
406	0	32468	
407	0	32512	
408	0	32564	
409	0	32608	
410	0	32624	
411	0	32636	
412	0	32640	
413	0	32652	
414	0	32664	
415	0	32704	
416	0	32708	
417	0	32756	
418	0	32792	
419	0	32816	
420	0	32828	
421	0	32864	
422	0	32912	
423	0	32940	
424	0	32940	
425	0	32952	
426	0	32972	
427	0	33016	
428	0	33056	
429	0	33068	
430	0	33072	
431	0	33104	
432	0	33144	
433	0	33172	
434	0	33172	
435	0	33152	
436	0	33152	
437	0	33184	
438	0	33244	
439	0	33304	
440	0	33326	
441	0	33332	
442	0	33352	
443	0	33396	
444	0	33456	
445	0	33508	
446	0	33580	
447	0	33634	
448	0	33680	
449	0	33724	
450	0	33760	
451	0	33772	
452	0	33800	
453	0	33840	
454	0	33868	
455	0	33910	
456	0	33940	
457	0	33976	
458	0	34004	
459	0	34016	
460	0	34024	
461	0	34064	
462	0	34072	
463	0	34080	
464	0	34044	
465	0	34028	
466	0	34024	
467	0	34048	
468	0	34084	
469	0	34120	
470	0	34164	
471	0	34222	
472	0	34244	
473	0	34248	
474	0	34276	
475	0	34304	
476	0	34330	
477	0	34352	
478	0	34368	
479	0	34416	
480	0	34425	
481	0	34432	
482	0	34466	
483	0	34508	
484	0	34548	
485	0	34576	
486	0	34608	
487	0	34648	
488	0	34652	
489	0	34632	
490	0	34668	
491	0	34688	
492	0	34676	
493	0	34704	
494	0	34728	
495	0	34732	
496	0	34764	
497	0	34792	
498	0	34800	
499	0	34800	
500	0	34804	
501	0	34796	
502	0	34808	
503	0	34800	
504	0	34800	
505	0	34818	
506	0	34828	
507	0	34808	
508	0	34832	
509	0	34856	
510	0	34852	
511	0	34852	
512	0	34880	
513	0	34896	
514	0	34912	
515	0	34960	
516	0	35000	
517	0	35044	
518	0	35040	
519	0	34984	
520	0	34904	
521	0	34828	
522	0	34796	
523	0	34808	
524	0	34796	
525	0	34732	
526	0	34644	
527	0	34528	
528	0	34468	
529	0	34404	
530	0	34332	
531	0	34252	
532	0	34172	
533	0	34072	
534	0	33980	
535	0	33912	
536	0	33850	
537	0	33788	
538	0	33752	
539	0	33688	
540	0	33624	
541	0	33608	
542	0	33554	
543	0	33472	
544	0	33372	
545	0	33252	
546	0	33194	
547	0	33168	
548	0	33092	
549	0	33052	
550	0	33012	
551	0	32944	
552	0	32876	
553	0	32784	
554	0	32716	
555	0	32684	
556	0	32644	
557	0	32592	
558	0	32556	
559	0	32512	
560	0	32496	
561	0	32448	
562	0	32420	
563	0	32352	
564	0	32290	
565	0	32228	
566	0	32180	
567	0	32144	
568	0	32084	
569	0	32032	
570	0	31984	
571	0	31980	
572	0	31992	
573	0	32012	
574	0	32012	
575	0	32004	
576	0	31970	
577	0	31956	
578	0	31984	
579	0	31948	
580	0	31896	
581	0	31860	
582	0	31824	
583	0	31812	
584	0	31832	
585	0	31896	
586	0	31848	
587	0	31744	
588	0	31628	
589	0	31552	
590	0	31704	
591	0	31776	
592	0	31808	
593	0	31832	
594	0	31720	
595	0	31608	
596	0	31624	
597	0	31668	
598	0	31712	
599	0	31746	
600	0	31724	
601	0	31688	
602	0	31684	
603	0	31710	
604	0	31716	
605	0	31712	
606	0	31720	
607	0	31784	
608	0	31808	
609	0	31816	
610	0	31756	
611	0	31756	
612	0	31808	
613	0	31824	
614	0	31860	
615	0	31860	
616	0	31868	
617	0	31852	
618	0	31856	
619	0	31864	
620	0	31868	
621	0	31936	
622	0	32040	
623	0	32088	
624	0	32090	
625	0	32068	
626	0	32060	
627	0	32176	
628	0	32308	
629	0	32320	
630	0	32260	
631	0	32200	
632	0	32168	
633	0	32276	
634	0	32364	
635	0	32436	
636	0	32440	
637	0	32372	
638	0	32328	
639	0	32408	
640	0	32538	
641	0	32524	
642	0	32596	
643	0	32704	
644	0	32704	
645	0	32672	
646	0	32604	
647	0	32584	
648	0	32612	
649	0	32540	
650	0	32552	
651	0	32520	
652	0	32540	
653	0	32672	
654	0	32774	
655	0	32856	
656	0	32884	
657	0	32864	
658	0	32816	
659	0	32688	
660	0	32628	
661	0	32626	
662	0	32756	
663	0	32908	
664	0	33052	
665	0	33128	
666	0	33196	
667	0	33188	
668	0	33208	
669	0	33244	
670	0	33232	
671	0	33188	
672	0	33216	
673	0	33208	
674	0	33188	
675	0	33196	
676	0	33168	
677	0	33184	
678	0	33160	
679	0	33120	
680	0	33112	
681	0	33168	
682	0	33284	
683	0	33292	
684	0	33304	
685	0	33280	
686	0	33204	
687	0	33192	
688	0	33272	
689	0	33328	
690	0	33376	
691	0	33376	
692	0	33216	
693	0	33188	
694	0	33214	
695	0	33244	
696	0	33252	
697	0	33312	
698	0	33388	
699	0	33180	
700	0	33164	
701	0	33184	
702	0	33200	
703	0	33184	
704	0	33124	
705	0	33188	
706	0	33344	
707	0	33372	
708	0	33364	
709	0	33364	
710	0	33364	
711	0	33276	
712	0	33184	
713	0	32996	
714	0	32996	
715	0	33080	
716	0	33160	
717	0	33152	
718	0	33128	
719	0	33050	
720	0	32944	
721	0	32940	
722	0	32920	
723	0	32964	
724	0	32996	
725	0	32952	
726	0	32808	
727	0	32800	
728	0	32816	
729	0	32784	
730	0	32704	
731	0	32600	
732	0	32464	
733	0	32412	
734	0	32578	
735	0	32760	
736	0	32852	
737	0	32832	
738	0	32732	
739	0	32760	
740	0	32792	
741	0	32704	
742	0	32644	
743	0	32660	
744	0	32644	
745	0	32628	
746	0	32572	
747	0	32592	
748	0	32588	
749	0	32492	
750	0	32312	
751	0	32360	
752	0	32420	
753	0	32480	
754	0	32484	
755	0	32456	
756	0	32412	
757	0	32516	
758	0	32644	
759	0	32672	
760	0	32608	
761	0	32588	
762	0	32586	
763	0	32604	
764	0	32584	
765	0	32520	
766	0	32456	
767	0	32464	
768	0	32416	
769	0	32396	
770	0	32440	
771	0	32528	
772	0	32480	
773	0	32362	
774	0	32360	
775	0	32368	
776	0	32400	
777	0	32464	
778	0	32464	
779	0	32416	
780	0	32424	
781	0	32392	
782	0	32276	
783	0	32260	
784	0	32352	
785	0	32386	
786	0	32408	
787	0	32416	
788	0	32452	
789	0	32424	
790	0	32444	
791	0	32368	
792	0	32312	
793	0	32376	
794	0	32408	
795	0	32384	
796	0	32360	
797	0	32372	
798	0	32332	
799	0	32336	
800	0	32340	
801	0	32296	
802	0	32284	
803	0	32328	
804	0	32352	
805	0	32340	
806	0	32356	
807	0	32386	
808	0	32322	
809	0	32274	
810	0	32312	
811	0	32332	
812	0	32328	
813	0	32304	
814	0	32280	
815	0	32260	
816	0	32312	
817	0	32368	
818	0	32384	
819	0	32352	
820	0	32416	
821	0	32440	
822	0	32456	
823	0	32448	
824	0	32412	
825	0	32468	
826	0	32554	
827	0	32616	
828	0	32548	
829	0	32500	
830	0	32496	
831	0	32600	
832	0	32640	
833	0	32704	
834	0	32782	
835	0	32884	
836	0	32960	
837	0	33132	
838	0	33332	
839	0	33568	
840	0	33760	
841	0	33924	
842	0	34184	
843	0	34408	
844	0	34532	
845	0	34616	
846	0	34712	
847	0	34754	
848	0	34704	
849	0	34624	
850	0	34604	
851	0	34592	
852	0	34602	
853	0	34664	
854	0	34656	
855	0	34680	
856	0	34704	
857	0	34672	
858	0	34668	
859	0	34752	
860	0	34848	
861	0	35140	
862	0	35402	
863	0	35630	
864	0	35944	
865	0	36260	
866	0	36588	
867	0	36788	
868	0	36984	
869	0	37206	
870	0	37384	
871	0	37472	
872	0	37416	
873	0	37328	
874	0	37300	
875	0	37160	
876	0	37056	
877	0	37060	
878	0	36956	
879	0	36760	
880	0	36640	
881	0	36488	
882	0	36416	
883	0	36388	
884	0	36452	
885	0	36472	
886	0	36464	
887	0	36440	
888	0	36392	
889	0	36292	
890	0	36188	
891	0	36044	
892	0	35920	
893	0	35832	
894	0	35732	
895	0	35576	
896	0	35308	
897	0	34928	
898	0	34504	
899	0	34200	
900	0	33852	
901	0	33324	
902	0	32808	
903	0	32366	
904	0	32056	
905	0	31748	
906	0	31472	
907	0	31376	
908	0	31234	
909	0	31072	
910	0	30888	
911	0	30832	
912	0	30794	
913	0	30756	
914	0	30612	
915	0	30466	
916	0	30324	
917	0	30178	
918	0	30060	
919	0	30016	
920	0	29976	
921	0	29956	
922	0	29984	
923	0	30028	
924	0	30044	
925	0	30018	
926	0	29996	
927	0	29960	
928	0	30024	
929	0	30096	
930	0	30096	
931	0	30056	
932	0	30044	
933	0	30072	
934	0	30104	
935	0	30048	
936	0	30104	
937	0	30152	
938	0	30186	
939	0	30232	
940	0	30304	
941	0	30368	
942	0	30376	
943	0	30388	
944	0	30404	
945	0	30444	
946	0	30440	
947	0	30360	
948	0	30408	
949	0	30528	
950	0	30564	
951	0	30540	
952	0	30584	
953	0	30536	
954	0	30480	
955	0	30352	
956	0	30128	
957	0	29808	
958	0	29228	
959	0	28460	
960	0	27564	
961	0	26592	
962	0	25646	
963	0	24738	
964	0	23960	
965	0	23420	
966	0	23164	
967	0	23008	
968	0	23008	
969	0	23354	
970	0	23996	
971	0	24724	
972	0	25666	
973	0	27076	
974	0	28984	
975	0	31352	
976	0	34048	
977	0	36872	
978	0	39920	
979	0	43156	
980	0	46848	
981	0	50968	
982	0	55266	
983	0	59380	
984	0	61828	
985	0	63128	
986	0	63760	
987	0	64048	
988	0	64168	
989	0	64152	
990	0	64096	
991	0	64024	
992	0	63912	
993	0	63808	
994	0	63692	
995	0	62440	
996	0	55792	
997	0	50520	
998	0	46312	
999	0	42188	
1000	0	37868	
1001	0	33896	
1002	0	30656	
1003	0	27892	
1004	0	25428	
1005	0	23381	
1006	0	21728	
1007	0	20324	
1008	0	19128	
1009	0	18160	
1010	0	17386	
1011	0	16834	
1012	0	16392	
1013	0	16032	
1014	0	15856	
1015	0	15968	
1016	0	16302	
1017	0	16894	
1018	0	17592	
1019	0	18260	
1020	0	18944	
1021	0	19657	
1022	0	20326	
1023	0	20984	
1024	0	21668	
1025	0	22242	
1026	0	22824	
1027	0	23408	
1028	0	24044	
1029	0	24776	
1030	0	25452	
1031	0	26026	
1032	0	26560	
1033	0	27029	
1034	0	27436	
1035	0	27772	
1036	0	28044	
1037	0	28300	
1038	0	28536	
1039	0	28736	
1040	0	28896	
1041	0	28968	
1042	0	29044	
1043	0	29176	
1044	0	29276	
1045	0	29324	
1046	0	29320	
1047	0	29344	
1048	0	29384	
1049	0	29472	
1050	0	29576	
1051	0	29676	
1052	0	29788	
1053	0	29848	
1054	0	29860	
1055	0	29956	
1056	0	30064	
1057	0	30100	
1058	0	30176	
1059	0	30264	
1060	0	30336	
1061	0	30372	
1062	0	30376	
1063	0	30428	
1064	0	30524	
1065	0	30602	
1066	0	30628	
1067	0	30656	
1068	0	30708	
1069	0	30748	
1070	0	30844	
1071	0	30924	
1072	0	30944	
1073	0	31032	
1074	0	31148	
1075	0	31232	
1076	0	31258	
1077	0	31282	
1078	0	31298	
1079	0	31356	
1080	0	31436	
1081	0	31533	
1082	0	31570	
1083	0	31580	
1084	0	31564	
1085	0	31560	
1086	0	31612	
1087	0	31648	
1088	0	31656	
1089	0	31684	
1090	0	31720	
1091	0	31752	
1092	0	31708	
1093	0	31824	
1094	0	31944	
1095	0	32000	
1096	0	32048	
1097	0	32076	
1098	0	32078	
1099	0	32100	
1100	0	32148	
1101	0	32224	
1102	0	32316	
1103	0	32352	
1104	0	32392	
1105	0	32452	
1106	0	32472	
1107	0	32472	
1108	0	32480	
1109	0	32504	
1110	0	32532	
1111	0	32560	
1112	0	32608	
1113	0	32640	
1114	0	32688	
1115	0	32748	
1116	0	32810	
1117	0	32888	
1118	0	32884	
1119	0	32826	
1120	0	32802	
1121	0	32808	
1122	0	32832	
1123	0	32884	
1124	0	32932	
1125	0	32956	
1126	0	32952	
1127	0	32964	
1128	0	33040	
1129	0	33096	
1130	0	33160	
1131	0	33216	
1132	0	33216	
1133	0	33224	
1134	0	33268	
1135	0	33312	
1136	0	33312	
1137	0	33312	
1138	0	33320	
1139	0	33272	
1140	0	33336	
1141	0	33440	
1142	0	33546	
1143	0	33576	
1144	0	33576	
1145	0	33608	
1146	0	33608	
1147	0	33620	
1148	0	33664	
1149	0	33680	
1150	0	33652	
1151	0	33700	
1152	0	33752	
1153	0	33760	
1154	0	33728	
1155	0	33808	
1156	0	33900	
1157	0	33900	
1158	0	33856	
1159	0	33908	
1160	0	34036	
1161	0	34040	
1162	0	34016	
1163	0	34004	
1164	0	34016	
1165	0	33992	
1166	0	33984	
1167	0	34032	
1168	0	34136	
1169	0	34264	
1170	0	34308	
1171	0	34280	
1172	0	34296	
1173	0	34314	
1174	0	34272	
1175	0	34264	
1176	0	34320	
1177	0	34336	
1178	0	34404	
1179	0	34480	
1180	0	34452	
1181	0	34360	
1182	0	34376	
1183	0	34504	
1184	0	34604	
1185	0	34640	
1186	0	34612	
1187	0	34592	
1188	0	34604	
1189	0	34616	
1190	0	34656	
1191	0	34680	
1192	0	34708	
1193	0	34720	
1194	0	34720	
1195	0	34748	
1196	0	34812	
1197	0	34848	
1198	0	34874	
1199	0	34924	
1200	0	34898	
1201	0	34908	
1202	0	34976	
1203	0	35028	
1204	0	34996	
1205	0	34984	
1206	0	34976	
1207	0	34976	
1208	0	34964	
1209	0	34972	
1210	0	34976	
1211	0	35000	
1212	0	35008	
1213	0	35016	
1214	0	34964	
1215	0	34936	
1216	0	34980	
1217	0	35013	
1218	0	35012	
1219	0	35012	
1220	0	34976	
1221	0	34916	
1222	0	34844	
1223	0	34788	
1224	0	34720	
1225	0	34648	
1226	0	34554	
1227	0	34510	
1228	0	34480	
1229	0	34392	
1230	0	34248	
1231	0	34130	
1232	0	34026	
1233	0	33968	
1234	0	33884	
1235	0	33816	
1236	0	33760	
1237	0	33696	
1238	0	33600	
1239	0	33514	
1240	0	33488	
1241	0	33428	
1242	0	33332	
1243	0	33240	
1244	0	33116	
1245	0	33024	
1246	0	32928	
1247	0	32848	
1248	0	32788	
1249	0	32768	
1250	0	32752	
1251	0	32708	
1252	0	32668	
1253	0	32608	
1254	0	32548	
1255	0	32538	
1256	0	32512	
1257	0	32472	
1258	0	32388	
1259	0	32272	
1260	0	32188	
1261	0	32160	
1262	0	32140	
1263	0	32116	
1264	0	32090	
1265	0	32052	
1266	0	32004	
1267	0	31932	
1268	0	31882	
1269	0	31868	
1270	0	31840	
1271	0	31764	
1272	0	31708	
1273	0	31692	
1274	0	31704	
1275	0	31752	
1276	0	31768	
1277	0	31756	
1278	0	31740	
1279	0	31736	
1280	0	31704	
1281	0	31674	
1282	0	31648	
1283	0	31612	
1284	0	31580	
1285	0	31588	
1286	0	31592	
1287	0	31620	
1288	0	31604	
1289	0	31596	
1290	0	31608	
1291	0	31616	
1292	0	31600	
1293	0	31560	
1294	0	31568	
1295	0	31580	
1296	0	31580	
1297	0	31562	
1298	0	31552	
1299	0	31516	
1300	0	31456	
1301	0	31472	
1302	0	31528	
1303	0	31536	
1304	0	31552	
1305	0	31552	
1306	0	31518	
1307	0	31500	
1308	0	31472	
1309	0	31480	
1310	0	31504	
1311	0	31554	
1312	0	31632	
1313	0	31680	
1314	0	31728	
1315	0	31776	
1316	0	31824	
1317	0	31840	
1318	0	31794	
1319	0	31780	
1320	0	31796	
1321	0	31820	
1322	0	31860	
1323	0	31884	
1324	0	31908	
1325	0	31924	
1326	0	31964	
1327	0	31968	
1328	0	31968	
1329	0	31984	
1330	0	32000	
1331	0	32056	
1332	0	32072	
1333	0	32072	
1334	0	32072	
1335	0	32076	
1336	0	32048	
1337	0	32108	
1338	0	32204	
1339	0	32264	
1340	0	32290	
1341	0	32296	
1342	0	32292	
1343	0	32300	
1344	0	32376	
1345	0	32428	
1346	0	32452	
1347	0	32444	
1348	0	32460	
1349	0	32472	
1350	0	32488	
1351	0	32524	
1352	0	32532	
1353	0	32552	
1354	0	32556	
1355	0	32600	
1356	0	32696	
1357	0	32728	
1358	0	32760	
1359	0	32844	
1360	0	32856	
1361	0	32848	
1362	0	32848	
1363	0	32866	
1364	0	32852	
1365	0	32848	
1366	0	32856	
1367	0	32864	
1368	0	32868	
1369	0	32926	
1370	0	32964	
1371	0	32992	
1372	0	32996	
1373	0	32996	
1374	0	32970	
1375	0	32952	
1376	0	32964	
1377	0	33032	
1378	0	33072	
1379	0	33104	
1380	0	33120	
1381	0	33076	
1382	0	33020	
1383	0	33024	
1384	0	33104	
1385	0	33156	
1386	0	33128	
1387	0	33126	
1388	0	33120	
1389	0	33128	
1390	0	33108	
1391	0	33112	
1392	0	33124	
1393	0	33140	
1394	0	33172	
1395	0	33168	
1396	0	33092	
1397	0	33068	
1398	0	33036	
1399	0	33000	
1400	0	33004	
1401	0	33056	
1402	0	33092	
1403	0	33100	
1404	0	33076	
1405	0	32972	
1406	0	32960	
1407	0	32960	
1408	0	32944	
1409	0	32944	
1410	0	32900	
1411	0	32844	
1412	0	32856	
1413	0	32900	
1414	0	32866	
1415	0	32778	
1416	0	32724	
1417	0	32756	
1418	0	32804	
1419	0	32820	
1420	0	32824	
1421	0	32784	
1422	0	32720	
1423	0	32708	
1424	0	32684	
1425	0	32624	
1426	0	32592	
1427	0	32628	
1428	0	32616	
1429	0	32564	
1430	0	32538	
1431	0	32600	
1432	0	32632	
1433	0	32636	
1434	0	32640	
1435	0	32592	
1436	0	32556	
1437	0	32600	
1438	0	32572	
1439	0	32492	
1440	0	32464	
1441	0	32424	
1442	0	32372	
1443	0	32352	
1444	0	32388	
1445	0	32418	
1446	0	32412	
1447	0	32432	
1448	0	32424	
1449	0	32384	
1450	0	32404	
1451	0	32408	
1452	0	32356	
1453	0	32284	
1454	0	32244	
1455	0	32240	
1456	0	32220	
1457	0	32216	
1458	0	32260	
1459	0	32312	
1460	0	32296	
1461	0	32266	
1462	0	32244	
1463	0	32224	
1464	0	32228	
1465	0	32280	
1466	0	32352	
1467	0	32340	
1468	0	32312	
1469	0	32200	
1470	0	32208	
1471	0	32248	
1472	0	32288	
1473	0	32352	
1474	0	32364	
1475	0	32344	
1476	0	32320	
1477	0	32312	
1478	0	32364	
1479	0	32396	
1480	0	32392	
1481	0	32460	
1482	0	32546	
1483	0	32658	
1484	0	32712	
1485	0	32800	
1486	0	32944	
1487	0	33100	
1488	0	33272	
1489	0	33456	
1490	0	33624	
1491	0	33808	
1492	0	33988	
1493	0	34172	
1494	0	34312	
1495	0	34412	
1496	0	34448	
1497	0	34452	
1498	0	34452	
1499	0	34456	
1500	0	34440	
1501	0	34416	
1502	0	34400	
1503	0	34456	
1504	0	34496	
1505	0	34492	
1506	0	34448	
1507	0	34376	
1508	0	34388	
1509	0	34478	
1510	0	34600	
1511	0	34788	
1512	0	35048	
1513	0	35336	
1514	0	35592	
1515	0	35920	
1516	0	36288	
1517	0	36600	
1518	0	36828	
1519	0	36988	
1520	0	37064	
1521	0	37156	
1522	0	37168	
1523	0	37144	
1524	0	37088	
1525	0	37052	
1526	0	37120	
1527	0	37112	
1528	0	37064	
1529	0	36936	
1530	0	36776	
1531	0	36600	
1532	0	36492	
1533	0	36432	
1534	0	36400	
1535	0	36428	
1536	0	36410	
1537	0	36378	
1538	0	36336	
1539	0	36236	
1540	0	36130	
1541	0	36000	
1542	0	35872	
1543	0	35708	
1544	0	35520	
1545	0	35312	
1546	0	35064	
1547	0	34744	
1548	0	34348	
1549	0	33960	
1550	0	33588	
1551	0	33140	
1552	0	32668	
1553	0	32160	
1554	0	31764	
1555	0	31492	
1556	0	31250	
1557	0	31046	
1558	0	30952	
1559	0	30860	
1560	0	30776	
1561	0	30688	
1562	0	30648	
1563	0	30592	
1564	0	30488	
1565	0	30320	
1566	0	30176	
1567	0	30064	
1568	0	29984	
1569	0	29900	
1570	0	29876	
1571	0	29864	
1572	0	29816	
1573	0	29802	
1574	0	29816	
1575	0	29824	
1576	0	29822	
1577	0	29806	
1578	0	29822	
1579	0	29844	
1580	0	29860	
1581	0	29872	
1582	0	29864	
1583	0	29908	
1584	0	29952	
1585	0	29984	
1586	0	30000	
1587	0	30008	
1588	0	29976	
1589	0	29988	
1590	0	30012	
1591	0	30036	
1592	0	30028	
1593	0	30002	
1594	0	30032	
1595	0	30076	
1596	0	30084	
1597	0	30048	
1598	0	30082	
1599	0	30144	
1600	0	30176	
1601	0	30208	
1602	0	30266	
1603	0	30308	
1604	0	30272	
1605	0	30168	
1606	0	30024	
1607	0	29804	
1608	0	29420	
1609	0	28792	
1610	0	27952	
1611	0	27040	
1612	0	26056	
1613	0	25096	
1614	0	24200	
1615	0	23452	
1616	0	22960	
1617	0	22684	
1618	0	22548	
1619	0	22736	
1620	0	23196	
1621	0	23800	
1622	0	24570	
1623	0	25572	
1624	0	27072	
1625	0	29144	
1626	0	31660	
1627	0	34384	
1628	0	37264	
1629	0	40404	
1630	0	43796	
1631	0	47584	
1632	0	51648	
1633	0	55976	
1634	0	59952	
1635	0	62240	
1636	0	63424	
1637	0	64020	
1638	0	64276	
1639	0	64382	
1640	0	64376	
1641	0	64324	
1642	0	64216	
1643	0	64120	
1644	0	64004	
1645	0	63884	
1646	0	59144	
1647	0	53408	
1648	0	48832	
1649	0	44672	
1650	0	40436	
1651	0	36468	
1652	0	33072	
1653	0	30226	
1654	0	27672	
1655	0	25370	
1656	0	23414	
1657	0	21796	
1658	0	20420	
1659	0	19208	
1660	0	18158	
1661	0	17424	
1662	0	16932	
1663	0	16480	
1664	0	16052	
1665	0	15816	
1666	0	15916	
1667	0	16332	
1668	0	16912	
1669	0	17556	
1670	0	18160	
1671	0	18820	
1672	0	19532	
1673	0	20268	
1674	0	21000	
1675	0	21608	
1676	0	22160	
1677	0	22756	
1678	0	23398	
1679	0	24066	
1680	0	24720	
1681	0	25420	
1682	0	26028	
1683	0	26552	
1684	0	27020	
1685	0	27412	
1686	0	27788	
1687	0	28112	
1688	0	28352	
1689	0	28538	
1690	0	28664	
1691	0	28800	
1692	0	28920	
1693	0	29024	
1694	0	29116	
1695	0	29240	
1696	0	29324	
1697	0	29424	
1698	0	29504	
1699	0	29552	
1700	0	29590	
1701	0	29588	
1702	0	29732	
1703	0	29886	
1704	0	29936	
1705	0	30016	
1706	0	30052	
1707	0	30096	
1708	0	30162	
1709	0	30240	
1710	0	30316	
1711	0	30392	
1712	0	30472	
1713	0	30528	
1714	0	30572	
1715	0	30582	
1716	0	30594	
1717	0	30616	
1718	0	30672	
1719	0	30744	
1720	0	30820	
1721	0	30888	
1722	0	30904	
1723	0	30888	
1724	0	30912	
1725	0	30944	
1726	0	30992	
1727	0	31092	
1728	0	31176	
1729	0	31244	
1730	0	31274	
1731	0	31284	
1732	0	31312	
1733	0	31328	
1734	0	31416	
1735	0	31532	
1736	0	31632	
1737	0	31692	
1738	0	31692	
1739	0	31704	
1740	0	31736	
1741	0	31760	
1742	0	31808	
1743	0	31868	
1744	0	31892	
1745	0	31908	
1746	0	31908	
1747	0	31952	
1748	0	32012	
1749	0	32068	
1750	0	32104	
1751	0	32168	
1752	0	32224	
1753	0	32289	
1754	0	32346	
1755	0	32392	
1756	0	32420	
1757	0	32488	
1758	0	32528	
1759	0	32540	
1760	0	32554	
1761	0	32592	
1762	0	32624	
1763	0	32612	
1764	0	32648	
1765	0	32656	
1766	0	32700	
1767	0	32724	
1768	0	32772	
1769	0	32848	
1770	0	32896	
1771	0	32932	
1772	0	32952	
1773	0	32956	
1774	0	32956	
1775	0	32960	
1776	0	32986	
1777	0	33068	
1778	0	33152	
1779	0	33192	
1780	0	33188	
1781	0	33216	
1782	0	33240	
1783	0	33288	
1784	0	33328	
1785	0	33344	
1786	0	33376	
1787	0	33412	
1788	0	33440	
1789	0	33480	
1790	0	33508	
1791	0	33560	
1792	0	33576	
1793	0	33588	
1794	0	33608	
1795	0	33620	
1796	0	33664	
1797	0	33696	
1798	0	33692	
1799	0	33688	
1800	0	33728	
1801	0	33800	
1802	0	33816	
1803	0	33824	
1804	0	33868	
1805	0	33912	
1806	0	33908	
1807	0	33916	
1808	0	33984	
1809	0	34016	
1810	0	34008	
1811	0	33988	
1812	0	34016	
1813	0	34072	
1814	0	34144	
1815	0	34160	
1816	0	34176	
1817	0	34204	
1818	0	34268	
1819	0	34320	
1820	0	34356	
1821	0	34392	
1822	0	34416	
1823	0	34428	
1824	0	34476	
1825	0	34560	
1826	0	34624	
1827	0	34632	
1828	0	34644	
1829	0	34676	
1830	0	34720	
1831	0	34764	
1832	0	34800	
1833	0	34828	
1834	0	34848	
1835	0	34888	
1836	0	34922	
1837	0	34940	
1838	0	34984	
1839	0	35016	
1840	0	35024	
1841	0	35040	
1842	0	35056	
1843	0	35096	
1844	0	35112	
1845	0	35096	
1846	0	35088	
1847	0	35104	
1848	0	35100	
1849	0	35084	
1850	0	35084	
1851	0	35084	
1852	0	35092	
1853	0	35082	
1854	0	35080	
1855	0	35056	
1856	0	35072	
1857	0	35082	
1858	0	35060	
1859	0	35072	
1860	0	35076	
1861	0	35064	
1862	0	35036	
1863	0	35018	
1864	0	35026	
1865	0	35024	
1866	0	35008	
1867	0	35000	
1868	0	35002	
1869	0	34976	
1870	0	34902	
1871	0	34840	
1872	0	34764	
1873	0	34684	
1874	0	34602	
1875	0	34554	
1876	0	34464	
1877	0	34344	
1878	0	34234	
1879	0	34152	
1880	0	34032	
1881	0	33908	
1882	0	33772	
1883	0	33648	
1884	0	33520	
1885	0	33424	
1886	0	33352	
1887	0	33300	
1888	0	33232	
1889	0	33168	
1890	0	33060	
1891	0	32960	
1892	0	32880	
1893	0	32800	
1894	0	32712	
1895	0	32628	
1896	0	32576	
1897	0	32532	
1898	0	32480	
1899	0	32372	
1900	0	32280	
1901	0	32208	
1902	0	32108	
1903	0	32048	
1904	0	31996	
1905	0	31944	
1906	0	31900	
1907	0	31832	
1908	0	31734	
1909	0	31616	
1910	0	31568	
1911	0	31572	
1912	0	31568	
1913	0	31532	
1914	0	31492	
1915	0	31428	
1916	0	31330	
1917	0	31288	
1918	0	31268	
1919	0	31288	
1920	0	31256	
1921	0	31216	
1922	0	31194	
1923	0	31116	
1924	0	31064	
1925	0	31040	
1926	0	31018	
1927	0	30984	
1928	0	31000	
1929	0	31020	
1930	0	31032	
1931	0	31048	
1932	0	31064	
1933	0	31044	
1934	0	31008	
1935	0	30996	
1936	0	30996	
1937	0	31004	
1938	0	31016	
1939	0	31008	
1940	0	31008	
1941	0	31008	
1942	0	31008	
1943	0	31012	
1944	0	30968	
1945	0	30978	
1946	0	30972	
1947	0	30948	
1948	0	30928	
1949	0	30940	
1950	0	30944	
1951	0	30916	
1952	0	30928	
1953	0	30926	
1954	0	30952	
1955	0	30976	
1956	0	30960	
1957	0	30964	
1958	0	30964	
1959	0	30980	
1960	0	31016	
1961	0	31040	
1962	0	31084	
1963	0	31092	
1964	0	31108	
1965	0	31120	
1966	0	31124	
1967	0	31128	
1968	0	31124	
1969	0	31116	
1970	0	31134	
1971	0	31192	
1972	0	31224	
1973	0	31240	
1974	0	31240	
1975	0	31232	
1976	0	31248	
1977	0	31248	
1978	0	31274	
1979	0	31328	
1980	0	31396	
1981	0	31464	
1982	0	31504	
1983	0	31532	
1984	0	31552	
1985	0	31592	
1986	0	31664	
1987	0	31728	
1988	0	31772	
1989	0	31776	
1990	0	31808	
1991	0	31852	
1992	0	31904	
1993	0	31912	
1994	0	31928	
1995	0	31952	
1996	0	31960	
1997	0	32004	
1998	0	32060	
1999	0	32116	
2000	0	32160	
2001	0	32188	
2002	0	32204	
2003	0	32232	
2004	0	32264	
2005	0	32296	
2006	0	32304	
2007	0	32316	
2008	0	32328	
2009	0	32348	
2010	0	32360	
2011	0	32372	
2012	0	32382	
2013	0	32384	
2014	0	32392	
2015	0	32444	
2016	0	32496	
2017	0	32526	
2018	0	32544	
2019	0	32568	
2020	0	32592	
2021	0	32600	
2022	0	32636	
2023	0	32634	
2024	0	32672	
2025	0	32684	
2026	0	32684	
2027	0	32684	
2028	0	32672	
2029	0	32680	
2030	0	32710	
2031	0	32708	
2032	0	32708	
2033	0	32700	
2034	0	32696	
2035	0	32656	
2036	0	32656	
2037	0	32648	
2038	0	32650	
2039	0	32648	
2040	0	32652	
2041	0	32660	
2042	0	32698	
2043	0	32700	
2044	0	32656	
2045	0	32588	
2046	0	32524	
2047	0	32472	
2048	0	32474	
2049	0	32468	
2050	0	32496	
2051	0	32532	
2052	0	32532	
2053	0	32524	
2054	0	32520	
2055	0	32548	
2056	0	32556	
2057	0	32480	
2058	0	32404	
2059	0	32416	
2060	0	32450	
2061	0	32416	
2062	0	32328	
2063	0	32292	
2064	0	32284	
2065	0	32292	
2066	0	32252	
2067	0	32216	
2068	0	32192	
2069	0	32184	
2070	0	32168	
2071	0	32160	
2072	0	32170	
2073	0	32144	
2074	0	32140	
2075	0	32108	
2076	0	32092	
2077	0	32036	
2078	0	32000	
2079	0	31988	
2080	0	31982	
2081	0	31984	
2082	0	31984	
2083	0	31992	
2084	0	31994	
2085	0	31976	
2086	0	31968	
2087	0	31976	
2088	0	31956	
2089	0	31956	
2090	0	31972	
2091	0	31956	
2092	0	31930	
2093	0	31932	
2094	0	31932	
2095	0	31902	
2096	0	31884	
2097	0	31904	
2098	0	31936	
2099	0	31936	
2100	0	31968	
2101	0	32036	
2102	0	32098	
2103	0	32164	
2104	0	32248	
2105	0	32352	
2106	0	32504	
2107	0	32632	
2108	0	32768	
2109	0	32936	
2110	0	33128	
2111	0	33296	
2112	0	33472	
2113	0	33658	
2114	0	33796	
2115	0	33860	
2116	0	33904	
2117	0	33928	
2118	0	33896	
2119	0	33838	
2120	0	33756	
2121	0	33724	
2122	0	33720	
2123	0	33740	
2124	0	33768	
2125	0	33800	
2126	0	33816	
2127	0	33816	
2128	0	33844	
2129	0	33872	
2130	0	33984	
2131	0	34192	
2132	0	34444	
2133	0	34748	
2134	0	35112	
2135	0	35440	
2136	0	35792	
2137	0	36064	
2138	0	36244	
2139	0	36384	
2140	0	36492	
2141	0	36524	
2142	0	36488	
2143	0	36492	
2144	0	36484	
2145	0	36464	
2146	0	36440	
2147	0	36376	
2148	0	36296	
2149	0	36204	
2150	0	36088	
2151	0	35990	
2152	0	35876	
2153	0	35816	
2154	0	35784	
2155	0	35800	
2156	0	35836	
2157	0	35824	
2158	0	35756	
2159	0	35664	
2160	0	35588	
2161	0	35464	
2162	0	35304	
2163	0	35108	
2164	0	34880	
2165	0	34636	
2166	0	34344	
2167	0	33944	
2168	0	33580	
2169	0	33204	
2170	0	32844	
2171	0	32408	
2172	0	31928	
2173	0	31472	
2174	0	31084	
2175	0	30768	
2176	0	30536	
2177	0	30392	
2178	0	30284	
2179	0	30176	
2180	0	30072	
2181	0	30016	
2182	0	29980	
2183	0	29896	
2184	0	29804	
2185	0	29672	
2186	0	29536	
2187	0	29368	
2188	0	29236	
2189	0	29158	
2190	0	29120	
2191	0	29088	
2192	0	29112	
2193	0	29130	
2194	0	29128	
2195	0	29148	
2196	0	29182	
2197	0	29204	
2198	0	29252	
2199	0	29286	
2200	0	29296	
2201	0	29288	
2202	0	29308	
2203	0	29320	
2204	0	29328	
2205	0	29328	
2206	0	29340	
2207	0	29370	
2208	0	29384	
2209	0	29408	
2210	0	29381	
2211	0	29370	
2212	0	29372	
2213	0	29408	
2214	0	29444	
2215	0	29472	
2216	0	29504	
2217	0	29546	
2218	0	29568	
2219	0	29576	
2220	0	29576	
2221	0	29584	
2222	0	29652	
2223	0	29698	
2224	0	29708	
2225	0	29648	
2226	0	29496	
2227	0	29300	
2228	0	28988	
2229	0	28452	
2230	0	27668	
2231	0	26728	
2232	0	25792	
2233	0	24828	
2234	0	23936	
2235	0	23168	
2236	0	22608	
2237	0	22296	
2238	0	22084	
2239	0	22130	
2240	0	22526	
2241	0	23120	
2242	0	23896	
2243	0	24808	
2244	0	26076	
2245	0	27900	
2246	0	30168	
2247	0	32728	
2248	0	35520	
2249	0	38620	
2250	0	41904	
2251	0	45544	
2252	0	49568	
2253	0	53784	
2254	0	58168	
2255	0	61660	
2256	0	63584	
2257	0	64580	
2258	0	65080	
2259	0	65272	
2260	0	65316	
2261	0	65272	
2262	0	65216	
2263	0	65108	
2264	0	64992	
2265	0	64864	
2266	0	61028	
2267	0	54908	
2268	0	50064	
2269	0	45912	
2270	0	41692	
2271	0	37448	
2272	0	33770	
2273	0	30680	
2274	0	28004	
2275	0	25624	
2276	0	23596	
2277	0	21948	
2278	0	20592	
2279	0	19376	
2280	0	18298	
2281	0	17424	
2282	0	16768	
2283	0	16216	
2284	0	15692	
2285	0	15348	
2286	0	15364	
2287	0	15724	
2288	0	16192	
2289	0	16748	
2290	0	17329	
2291	0	17978	
2292	0	18710	
2293	0	19424	
2294	0	20137	
2295	0	20832	
2296	0	21512	
2297	0	22160	
2298	0	22820	
2299	0	23488	
2300	0	24184	
2301	0	24876	
2302	0	25488	
2303	0	26040	
2304	0	26512	
2305	0	26916	
2306	0	27236	
2307	0	27516	
2308	0	27724	
2309	0	27912	
2310	0	28076	
2311	0	28236	
2312	0	28332	
2313	0	28448	
2314	0	28544	
2315	0	28608	
2316	0	28676	
2317	0	28760	
2318	0	28836	
2319	0	28946	
2320	0	29040	
2321	0	29132	
2322	0	29208	
2323	0	29256	
2324	0	29304	
2325	0	29362	
2326	0	29428	
2327	0	29484	
2328	0	29556	
2329	0	29628	
2330	0	29716	
2331	0	29776	
2332	0	29848	
2333	0	29874	
2334	0	29908	
2335	0	29936	
2336	0	29988	
2337	0	30068	
2338	0	30172	
2339	0	30260	
2340	0	30352	
2341	0	30408	
2342	0	30428	
2343	0	30456	
2344	0	30508	
2345	0	30604	
2346	0	30688	
2347	0	30726	
2348	0	30752	
2349	0	30792	
2350	0	30816	
2351	0	30868	
2352	0	30928	
2353	0	30984	
2354	0	31016	
2355	0	31070	
2356	0	31096	
2357	0	31128	
2358	0	31176	
2359	0	31224	
2360	0	31242	
2361	0	31296	
2362	0	31352	
2363	0	31368	
2364	0	31380	
2365	0	31404	
2366	0	31436	
2367	0	31488	
2368	0	31556	
2369	0	31632	
2370	0	31696	
2371	0	31728	
2372	0	31772	
2373	0	31824	
2374	0	31864	
2375	0	31890	
2376	0	31944	
2377	0	31992	
2378	0	32016	
2379	0	32016	
2380	0	32024	
2381	0	32024	
2382	0	32068	
2383	0	32096	
2384	0	32092	
2385	0	32132	
2386	0	32176	
2387	0	32248	
2388	0	32316	
2389	0	32356	
2390	0	32432	
2391	0	32472	
2392	0	32540	
2393	0	32608	
2394	0	32648	
2395	0	32672	
2396	0	32708	
2397	0	32776	
2398	0	32830	
2399	0	32852	
2400	0	32846	
2401	0	32836	
2402	0	32792	
2403	0	32816	
2404	0	32892	
2405	0	32940	
2406	0	32960	
2407	0	32968	
2408	0	32996	
2409	0	33040	
2410	0	33108	
2411	0	33180	
2412	0	33192	
2413	0	33210	
2414	0	33240	
2415	0	33244	
2416	0	33266	
2417	0	33328	
2418	0	33364	
2419	0	33400	
2420	0	33424	
2421	0	33444	
2422	0	33436	
2423	0	33456	
2424	0	33476	
2425	0	33476	
2426	0	33476	
2427	0	33476	
2428	0	33500	
2429	0	33512	
2430	0	33504	
2431	0	33504	
2432	0	33544	
2433	0	33608	
2434	0	33666	
2435	0	33722	
2436	0	33776	
2437	0	33820	
2438	0	33850	
2439	0	33904	
2440	0	33980	
2441	0	34028	
2442	0	34072	
2443	0	34156	
2444	0	34212	
2445	0	34256	
2446	0	34284	
2447	0	34296	
2448	0	34300	
2449	0	34324	
2450	0	34336	
2451	0	34356	
2452	0	34392	
2453	0	34434	
2454	0	34464	
2455	0	34464	
2456	0	34492	
2457	0	34524	
2458	0	34528	
2459	0	34510	
2460	0	34508	
2461	0	34510	
2462	0	34496	
2463	0	34504	
2464	0	34524	
2465	0	34568	
2466	0	34588	
2467	0	34604	
2468	0	34626	
2469	0	34664	
2470	0	34676	
2471	0	34684	
2472	0	34676	
2473	0	34696	
2474	0	34736	
2475	0	34784	
2476	0	34816	
2477	0	34836	
2478	0	34844	
2479	0	34856	
2480	0	34850	
2481	0	34848	
2482	0	34848	
2483	0	34844	
2484	0	34840	
2485	0	34844	
2486	0	34842	
2487	0	34836	
2488	0	34820	
2489	0	34800	
2490	0	34784	
2491	0	34736	
2492	0	34664	
2493	0	34572	
2494	0	34472	
2495	0	34392	
2496	0	34324	
2497	0	34256	
2498	0	34192	
2499	0	34080	
2500	0	33964	
2501	0	33880	
2502	0	33808	
2503	0	33736	
2504	0	33608	
2505	0	33488	
2506	0	33424	
2507	0	33368	
2508	0	33304	
2509	0	33248	
2510	0	33196	
2511	0	33130	
2512	0	33024	
2513	0	32916	
2514	0	32812	
2515	0	32704	
2516	0	32626	
2517	0	32532	
2518	0	32476	
2519	0	32400	
2520	0	32336	
2521	0	32296	
2522	0	32272	
2523	0	32216	
2524	0	32148	
2525	0	32072	
2526	0	32012	
2527	0	31956	
2528	0	31920	
2529	0	31904	
2530	0	31904	
2531	0	31844	
2532	0	31768	
2533	0	31692	
2534	0	31616	
2535	0	31556	
2536	0	31488	
2537	0	31424	
2538	0	31424	
2539	0	31500	
2540	0	31544	
2541	0	31496	
2542	0	31460	
2543	0	31456	
2544	0	31456	
2545	0	31448	
2546	0	31436	
2547	0	31428	
2548	0	31432	
2549	0	31468	
2550	0	31484	
2551	0	31460	
2552	0	31428	
2553	0	31380	
2554	0	31316	
2555	0	31284	
2556	0	31264	
2557	0	31288	
2558	0	31292	
2559	0	31272	
2560	0	31220	
2561	0	31168	
2562	0	31112	
2563	0	31020	
2564	0	30980	
2565	0	30932	
2566	0	30924	
2567	0	31008	
2568	0	31112	
2569	0	31212	
2570	0	31288	
2571	0	31376	
2572	0	31484	
2573	0	31544	
2574	0	31520	
2575	0	31456	
2576	0	31400	
2577	0	31348	
2578	0	31288	
2579	0	31272	
2580	0	31288	
2581	0	31364	
2582	0	31432	
2583	0	31488	
2584	0	31492	
2585	0	31472	
2586	0	31472	
2587	0	31508	
2588	0	31524	
2589	0	31556	
2590	0	31584	
2591	0	31572	
2592	0	31534	
2593	0	31508	
2594	0	31522	
2595	0	31568	
2596	0	31564	
2597	0	31584	
2598	0	31630	
2599	0	31680	
2600	0	31728	
2601	0	31780	
2602	0	31856	
2603	0	31944	
2604	0	32020	
2605	0	32116	
2606	0	32174	
2607	0	32192	
2608	0	32228	
2609	0	32236	
2610	0	32244	
2611	0	32260	
2612	0	32296	
2613	0	32328	
2614	0	32348	
2615	0	32376	
2616	0	32428	
2617	0	32436	
2618	0	32476	
2619	0	32536	
2620	0	32540	
2621	0	32540	
2622	0	32560	
2623	0	32584	
2624	0	32600	
2625	0	32644	
2626	0	32684	
2627	0	32716	
2628	0	32744	
2629	0	32772	
2630	0	32840	
2631	0	32884	
2632	0	32912	
2633	0	32950	
2634	0	32980	
2635	0	33020	
2636	0	33076	
2637	0	33098	
2638	0	33096	
2639	0	33096	
2640	0	33088	
2641	0	33112	
2642	0	33130	
2643	0	33132	
2644	0	33164	
2645	0	33224	
2646	0	33168	
2647	0	33044	
2648	0	32996	
2649	0	32976	
2650	0	32996	
2651	0	32992	
2652	0	33016	
2653	0	33032	
2654	0	33008	
2655	0	32984	
2656	0	32954	
2657	0	32882	
2658	0	32840	
2659	0	32884	
2660	0	32976	
2661	0	33056	
2662	0	33136	
2663	0	33216	
2664	0	33272	
2665	0	33312	
2666	0	33284	
2667	0	33180	
2668	0	33056	
2669	0	32960	
2670	0	32912	
2671	0	32892	
2672	0	32888	
2673	0	32896	
2674	0	32892	
2675	0	32916	
2676	0	32972	
2677	0	33016	
2678	0	33096	
2679	0	33140	
2680	0	33132	
2681	0	33052	
2682	0	32984	
2683	0	32956	
2684	0	32936	
2685	0	32872	
2686	0	32800	
2687	0	32788	
2688	0	32784	
2689	0	32792	
2690	0	32776	
2691	0	32744	
2692	0	32692	
2693	0	32674	
2694	0	32704	
2695	0	32800	
2696	0	32892	
2697	0	32962	
2698	0	33056	
2699	0	33132	
2700	0	33204	
2701	0	33260	
2702	0	33296	
2703	0	33376	
2704	0	33456	
2705	0	33524	
2706	0	33600	
2707	0	33716	
2708	0	33832	
2709	0	33944	
2710	0	34088	
2711	0	34212	
2712	0	34282	
2713	0	34288	
2714	0	34272	
2715	0	34280	
2716	0	34220	
2717	0	34132	
2718	0	34048	
2719	0	34040	
2720	0	34016	
2721	0	33970	
2722	0	33916	
2723	0	33876	
2724	0	33920	
2725	0	34012	
2726	0	34084	
2727	0	34176	
2728	0	34376	
2729	0	34672	
2730	0	35040	
2731	0	35424	
2732	0	35780	
2733	0	36100	
2734	0	36376	
2735	0	36584	
2736	0	36740	
2737	0	36882	
2738	0	36980	
2739	0	37034	
2740	0	37044	
2741	0	37012	
2742	0	36952	
2743	0	36892	
2744	0	36828	
2745	0	36768	
2746	0	36732	
2747	0	36672	
2748	0	36604	
2749	0	36536	
2750	0	36480	
2751	0	36364	
2752	0	36258	
2753	0	36192	
2754	0	36172	
2755	0	36168	
2756	0	36128	
2757	0	36096	
2758	0	36044	
2759	0	36018	
2760	0	35968	
2761	0	35796	
2762	0	35580	
2763	0	35312	
2764	0	35016	
2765	0	34696	
2766	0	34316	
2767	0	33888	
2768	0	33408	
2769	0	32946	
2770	0	32508	
2771	0	32068	
2772	0	31760	
2773	0	31568	
2774	0	31360	
2775	0	31228	
2776	0	31138	
2777	0	31052	
2778	0	31004	
2779	0	30952	
2780	0	30840	
2781	0	30676	
2782	0	30480	
2783	0	30304	
2784	0	30112	
2785	0	29912	
2786	0	29724	
2787	0	29600	
2788	0	29552	
2789	0	29536	
2790	0	29576	
2791	0	29738	
2792	0	29940	
2793	0	30092	
2794	0	30184	
2795	0	30192	
2796	0	30188	
2797	0	30200	
2798	0	30248	
2799	0	30296	
2800	0	30348	
2801	0	30348	
2802	0	30334	
2803	0	30288	
2804	0	30234	
2805	0	30224	
2806	0	30212	
2807	0	30232	
2808	0	30292	
2809	0	30344	
2810	0	30346	
2811	0	30252	
2812	0	30180	
2813	0	30172	
2814	0	30168	
2815	0	30064	
2816	0	30005	
2817	0	30000	
2818	0	30012	
2819	0	29988	
2820	0	29948	
2821	0	29936	
2822	0	29932	
2823	0	29932	
2824	0	29882	
2825	0	29724	
2826	0	29364	
2827	0	28804	
2828	0	28064	
2829	0	27264	
2830	0	26518	
2831	0	25760	
2832	0	25042	
2833	0	24464	
2834	0	24036	
2835	0	23744	
2836	0	23736	
2837	0	24188	
2838	0	24938	
2839	0	25744	
2840	0	26756	
2841	0	28152	
2842	0	29960	
2843	0	32152	
2844	0	34584	
2845	0	37120	
2846	0	39904	
2847	0	42808	
2848	0	45922	
2849	0	49472	
2850	0	53320	
2851	0	57384	
2852	0	61212	
2853	0	63544	
2854	0	64744	
2855	0	65364	
2856	0	65535	
2857	0	65535	
2858	0	65535	
2859	0	65535	
2860	0	65535	
2861	0	65440	
2862	0	65312	
2863	0	58356	
2864	0	51332	
2865	0	45576	
2866	0	40708	
2867	0	36192	
2868	0	32048	
2869	0	28892	
2870	0	26720	
2871	0	24984	
2872	0	23380	
2873	0	21812	
2874	0	20260	
2875	0	18728	
2876	0	17417	
2877	0	16288	
2878	0	15404	
2879	0	14750	
2880	0	14500	
2881	0	14476	
2882	0	14480	
2883	0	14558	
2884	0	14742	
2885	0	15052	
2886	0	15652	
2887	0	16472	
2888	0	17260	
2889	0	18029	
2890	0	18792	
2891	0	19528	
2892	0	20232	
2893	0	20922	
2894	0	21562	
2895	0	22150	
2896	0	22730	
2897	0	23328	
2898	0	24084	
2899	0	24888	
2900	0	25532	
2901	0	25972	
2902	0	26304	
2903	0	26628	
2904	0	26922	
2905	0	27232	
2906	0	27652	
2907	0	28128	
2908	0	28640	
2909	0	29304	
2910	0	29968	
2911	0	30540	
2912	0	30860	
2913	0	30944	
2914	0	30908	
2915	0	30884	
2916	0	31024	
2917	0	31336	
2918	0	31556	
2919	0	31612	
2920	0	31576	
2921	0	31492	
2922	0	31460	
2923	0	31532	
2924	0	31646	
2925	0	31784	
2926	0	31812	
2927	0	31738	
2928	0	31712	
2929	0	31708	
2930	0	31704	
2931	0	31728	
2932	0	31772	
2933	0	31820	
2934	0	31888	
2935	0	32008	
2936	0	32092	
2937	0	32220	
2938	0	32392	
2939	0	32512	
2940	0	32524	
2941	0	32544	
2942	0	32552	
2943	0	32500	
2944	0	32376	
2945	0	32240	
2946	0	32112	
2947	0	31972	
2948	0	31824	
2949	0	31808	
2950	0	32002	
2951	0	32280	
2952	0	32656	
2953	0	32968	
2954	0	33150	
2955	0	33236	
2956	0	33228	
2957	0	33208	
2958	0	33116	
2959	0	33036	
2960	0	32968	
2961	0	32960	
2962	0	33000	
2963	0	33040	
2964	0	33096	
2965	0	33188	
2966	0	33252	
2967	0	33212	
2968	0	33088	
2969	0	33068	
2970	0	33188	
2971	0	33456	
2972	0	33664	
2973	0	33860	
2974	0	33992	
2975	0	34020	
2976	0	34024	
2977	0	34004	
2978	0	34000	
2979	0	34072	
2980	0	34092	
2981	0	33989	
2982	0	33976	
2983	0	33996	
2984	0	34004	
2985	0	34056	
2986	0	34100	
2987	0	34168	
2988	0	34272	
2989	0	34380	
2990	0	34532	
2991	0	34576	
2992	0	34452	
2993	0	34240	
2994	0	34144	
2995	0	34256	
2996	0	34420	
2997	0	34532	
2998	0	34532	
2999	0	34480	
3000	0	34396	
3001	0	34412	
3002	0	34432	
3003	0	34408	
3004	0	34496	
3005	0	34768	
3006	0	35104	
3007	0	35328	
3008	0	35376	
3009	0	35212	
3010	0	34944	
3011	0	34584	
3012	0	34276	
3013	0	34128	
3014	0	34148	
3015	0	34336	
3016	0	34652	
3017	0	35048	
3018	0	35372	
3019	0	35588	
3020	0	35728	
3021	0	35928	
3022	0	36124	
3023	0	36282	
3024	0	36304	
3025	0	36200	
3026	0	35932	
3027	0	35480	
3028	0	35056	
3029	0	34892	
3030	0	34992	
3031	0	35284	
3032	0	35624	
3033	0	35956	
3034	0	36212	
3035	0	36192	
3036	0	36140	
3037	0	36124	
3038	0	36260	
3039	0	36400	
3040	0	36442	
3041	0	36532	
3042	0	36672	
3043	0	36716	
3044	0	36644	
3045	0	36580	
3046	0	36360	
3047	0	36080	
3048	0	35712	
3049	0	35532	
3050	0	35540	
3051	0	35640	
3052	0	35800	
3053	0	36124	
3054	0	36628	
3055	0	37088	
3056	0	37392	
3057	0	37540	
3058	0	37488	
3059	0	37280	
3060	0	37120	
3061	0	36976	
3062	0	36944	
3063	0	37064	
3064	0	37168	
3065	0	37096	
3066	0	36956	
3067	0	36882	
3068	0	36996	
3069	0	37136	
3070	0	37148	
3071	0	37024	
3072	0	36904	
3073	0	36744	
3074	0	36516	
3075	0	36400	
3076	0	36280	
3077	0	36340	
3078	0	36560	
3079	0	36680	
3080	0	36624	
3081	0	36548	
3082	0	36480	
3083	0	36324	
3084	0	36174	
3085	0	36064	
3086	0	35924	
3087	0	35748	
3088	0	35516	
3089	0	35324	
3090	0	35284	
3091	0	35384	
3092	0	35488	
3093	0	35488	
3094	0	35444	
3095	0	35376	
3096	0	35248	
3097	0	34980	
3098	0	34692	
3099	0	34508	
3100	0	34412	
3101	0	34272	
3102	0	34090	
3103	0	33792	
3104	0	33602	
3105	0	33668	
3106	0	33880	
3107	0	34200	
3108	0	34356	
3109	0	34240	
3110	0	33976	
3111	0	33752	
3112	0	33472	
3113	0	33200	
3114	0	33004	
3115	0	32820	
3116	0	32360	
3117	0	31892	
3118	0	31640	
3119	0	31576	
3120	0	31664	
3121	0	31876	
3122	0	32176	
3123	0	32414	
3124	0	32472	
3125	0	32440	
3126	0	32220	
3127	0	31796	
3128	0	31392	
3129	0	31176	
3130	0	31248	
3131	0	31404	
3132	0	31660	
3133	0	31744	
3134	0	31720	
3135	0	31748	
3136	0	31660	
3137	0	31560	
3138	0	31520	
3139	0	31392	
3140	0	31136	
3141	0	30976	
3142	0	30820	
3143	0	30672	
3144	0	30660	
3145	0	30796	
3146	0	30980	
3147	0	31080	
3148	0	31244	
3149	0	31456	
3150	0	31612	
3151	0	31656	
3152	0	31668	
3153	0	31648	
3154	0	31496	
3155	0	31290	
3156	0	31144	
3157	0	30992	
3158	0	30992	
3159	0	31184	
3160	0	31436	
3161	0	31676	
3162	0	31714	
3163	0	31656	
3164	0	31600	
3165	0	31396	
3166	0	31088	
3167	0	30816	
3168	0	30632	
3169	0	30504	
3170	0	30548	
3171	0	30720	
3172	0	30892	
3173	0	31020	
3174	0	31140	
3175	0	31208	
3176	0	31136	
3177	0	31028	
3178	0	30864	
3179	0	30772	
3180	0	30744	
3181	0	30768	
3182	0	30992	
3183	0	31258	
3184	0	31504	
3185	0	31620	
3186	0	31720	
3187	0	31708	
3188	0	31520	
3189	0	31168	
3190	0	30824	
3191	0	30476	
3192	0	30240	
3193	0	30296	
3194	0	30660	
3195	0	31194	
3196	0	31724	
3197	0	32116	
3198	0	32288	
3199	0	32356	
3200	0	32384	
3201	0	32352	
3202	0	32238	
3203	0	32144	
3204	0	31992	
3205	0	31960	
3206	0	32096	
3207	0	32276	
3208	0	32336	
3209	0	32464	
3210	0	32612	
3211	0	32688	
3212	0	32500	
3213	0	32280	
3214	0	32212	
3215	0	32444	
3216	0	32684	
3217	0	32604	
3218	0	32572	
3219	0	32540	
3220	0	32340	
3221	0	32164	
3222	0	32016	
3223	0	32100	
3224	0	32416	
3225	0	32816	
3226	0	33076	
3227	0	33124	
3228	0	32980	
3229	0	32672	
3230	0	32576	
3231	0	32800	
3232	0	33252	
3233	0	33728	
3234	0	33912	
3235	0	33776	
3236	0	33468	
3237	0	33060	
3238	0	32660	
3239	0	32526	
3240	0	32696	
3241	0	32858	
3242	0	33012	
3243	0	33244	
3244	0	33420	
3245	0	33272	
3246	0	33028	
3247	0	32784	
3248	0	32596	
3249	0	32672	
3250	0	32848	
3251	0	32984	
3252	0	33056	
3253	0	32940	
3254	0	32836	
3255	0	33068	
3256	0	33336	
3257	0	33422	
3258	0	33410	
3259	0	33480	
3260	0	33756	
3261	0	33856	
3262	0	33576	
3263	0	33300	
3264	0	33076	
3265	0	32912	
3266	0	32845	
3267	0	32876	
3268	0	33096	
3269	0	33524	
3270	0	33864	
3271	0	33696	
3272	0	33308	
3273	0	33248	
3274	0	33272	
3275	0	33448	
3276	0	33708	
3277	0	33772	
3278	0	33808	
3279	0	33956	
3280	0	34244	
3281	0	34552	
3282	0	34792	
3283	0	34968	
3284	0	34956	
3285	0	34544	
3286	0	34026	
3287	0	33496	
3288	0	33336	
3289	0	33628	
3290	0	33996	
3291	0	34060	
3292	0	33812	
3293	0	33504	
3294	0	33344	
3295	0	33788	
3296	0	34416	
3297	0	35032	
3298	0	35576	
3299	0	35850	
3300	0	35860	
3301	0	35908	
3302	0	36428	
3303	0	36980	
3304	0	37480	
3305	0	37760	
3306	0	37652	
3307	0	37460	
3308	0	37372	
3309	0	37478	
3310	0	37628	
3311	0	37560	
3312	0	37228	
3313	0	36684	
3314	0	36276	
3315	0	36076	
3316	0	35960	
3317	0	36032	
3318	0	36236	
3319	0	36236	
3320	0	36168	
3321	0	36272	
3322	0	36464	
3323	0	36632	
3324	0	36492	
3325	0	36334	
3326	0	36312	
3327	0	36588	
3328	0	36860	
3329	0	36794	
3330	0	36268	
3331	0	35700	
3332	0	35336	
3333	0	35344	
3334	0	35466	
3335	0	35384	
3336	0	35018	
3337	0	34532	
3338	0	33952	
3339	0	33352	
3340	0	32928	
3341	0	32592	
3342	0	32128	
3343	0	31420	
3344	0	30812	
3345	0	30764	
3346	0	31136	
3347	0	31328	
3348	0	31292	
3349	0	31300	
3350	0	31480	
3351	0	31537	
3352	0	31368	
3353	0	31024	
3354	0	30704	
3355	0	30504	
3356	0	30528	
3357	0	30960	
3358	0	31330	
3359	0	31532	
3360	0	31392	
3361	0	30880	
3362	0	30312	
3363	0	30032	
3364	0	30012	
3365	0	30096	
3366	0	30192	
3367	0	29992	
3368	0	29608	
3369	0	29612	
3370	0	29766	
3371	0	29912	
3372	0	29996	
3373	0	29952	
3374	0	29924	
3375	0	29832	
3376	0	29528	
3377	0	29056	
3378	0	28512	
3379	0	28436	
3380	0	28632	
3381	0	29048	
3382	0	29760	
3383	0	30700	
3384	0	31456	
3385	0	31784	
3386	0	31752	
3387	0	31516	
3388	0	31440	
3389	0	31504	
3390	0	31312	
3391	0	30858	
3392	0	30284	
3393	0	30168	
3394	0	30392	
3395	0	30488	
3396	0	30260	
3397	0	29940	
3398	0	29552	
3399	0	29200	
3400	0	28428	
3401	0	27912	
3402	0	27852	
3403	0	27840	
3404	0	27772	
3405	0	27642	
3406	0	27404	
3407	0	27048	
3408	0	26740	
3409	0	27036	
3410	0	27920	
3411	0	28560	
3412	0	29560	
3413	0	30856	
3414	0	31896	
3415	0	33048	
3416	0	35016	
3417	0	37932	
3418	0	40752	
3419	0	43392	
3420	0	46412	
3421	0	49760	
3422	0	53404	
3423	0	57112	
3424	0	60664	
3425	0	62824	
3426	0	63952	
3427	0	64520	
3428	0	64768	
3429	0	64856	
3430	0	64828	
3431	0	64764	
3432	0	64680	
3433	0	64568	
3434	0	64440	
3435	0	58400	
3436	0	49564	
3437	0	41972	
3438	0	35592	
3439	0	30188	
3440	0	26012	
3441	0	23680	
3442	0	22616	
3443	0	22050	
3444	0	21776	
3445	0	21500	
3446	0	21032	
3447	0	20324	
3448	0	19380	
3449	0	18080	
3450	0	16452	
3451	0	15064	
3452	0	14208	
3453	0	13826	
3454	0	13810	
3455	0	13730	
3456	0	13536	
3457	0	13560	
3458	0	13868	
3459	0	14634	
3460	0	15396	
3461	0	16020	
3462	0	16652	
3463	0	17232	
3464	0	18156	
3465	0	19184	
3466	0	20016	
3467	0	20972	
3468	0	21784	
3469	0	22656	
3470	0	23588	
3471	0	24344	
3472	0	24544	
3473	0	24628	
3474	0	25076	
3475	0	25584	
3476	0	26074	
3477	0	26704	
3478	0	27296	
3479	0	27626	
3480	0	27712	
3481	0	28028	
3482	0	28548	
3483	0	29152	
3484	0	29800	
3485	0	30288	
3486	0	30560	
3487	0	30852	
3488	0	31152	
3489	0	31400	
3490	0	31670	
3491	0	31944	
3492	0	32108	
3493	0	32174	
3494	0	31968	
3495	0	31920	
3496	0	32216	
3497	0	32436	
3498	0	32364	
3499	0	32196	
3500	0	32456	
3501	0	32536	
3502	0	32084	
3503	0	31284	
3504	0	30796	
3505	0	30612	
3506	0	30464	
3507	0	30964	
3508	0	31880	
3509	0	32792	
3510	0	33344	
3511	0	33512	
3512	0	33268	
3513	0	32832	
3514	0	32424	
3515	0	32440	
3516	0	32816	
3517	0	33216	
3518	0	33540	
3519	0	33868	
3520	0	34192	
3521	0	34296	
3522	0	34436	
3523	0	33852	
3524	0	32896	
3525	0	31768	
3526	0	31168	
3527	0	31040	
3528	0	31400	
3529	0	32016	
3530	0	32480	
3531	0	32872	
3532	0	33416	
3533	0	33980	
3534	0	34416	
3535	0	34580	
3536	0	34436	
3537	0	34416	
3538	0	34388	
3539	0	34252	
3540	0	33980	
3541	0	33992	
3542	0	34100	
3543	0	34060	
3544	0	34158	
3545	0	34160	
3546	0	33908	
3547	0	33676	
3548	0	33540	
3549	0	33388	
3550	0	33000	
3551	0	32552	
3552	0	32296	
3553	0	32436	
3554	0	32936	
3555	0	33572	
3556	0	34098	
3557	0	34552	
3558	0	35360	
3559	0	35988	
3560	0	36168	
3561	0	36064	
3562	0	35660	
3563	0	35264	
3564	0	35160	
3565	0	35200	
3566	0	35088	
3567	0	35130	
3568	0	35676	
3569	0	36168	
3570	0	36240	
3571	0	35760	
3572	0	34700	
3573	0	33898	
3574	0	33484	
3575	0	33348	
3576	0	33696	
3577	0	34488	
3578	0	35088	
3579	0	35248	
3580	0	35268	
3581	0	35184	
3582	0	34860	
3583	0	34668	
3584	0	34832	
3585	0	35416	
3586	0	36012	
3587	0	36358	
3588	0	36556	
3589	0	36608	
3590	0	36580	
3591	0	36192	
3592	0	35476	
3593	0	34912	
3594	0	34900	
3595	0	35500	
3596	0	36032	
3597	0	36004	
3598	0	35980	
3599	0	35976	
3600	0	36204	
3601	0	36712	
3602	0	36960	
3603	0	36778	
3604	0	36570	
3605	0	36412	
3606	0	36314	
3607	0	36524	
3608	0	36728	
3609	0	36432	
3610	0	36312	
3611	0	37092	
3612	0	37800	
3613	0	37744	
3614	0	37328	
3615	0	37056	
3616	0	36856	
3617	0	36624	
3618	0	36468	
3619	0	36436	
3620	0	36632	
3621	0	36774	
3622	0	36888	
3623	0	37096	
3624	0	37544	
3625	0	37792	
3626	0	38132	
3627	0	38144	
3628	0	37668	
3629	0	37074	
3630	0	36596	
3631	0	36460	
3632	0	36296	
3633	0	36064	
3634	0	35680	
3635	0	35392	
3636	0	35584	
3637	0	35884	
3638	0	36254	
3639	0	36516	
3640	0	37004	
3641	0	37828	
3642	0	38128	
3643	0	37796	
3644	0	37440	
3645	0	37628	
3646	0	38028	
3647	0	38168	
3648	0	38072	
3649	0	38076	
3650	0	38172	
3651	0	37980	
3652	0	37236	
3653	0	35788	
3654	0	34744	
3655	0	34208	
3656	0	33960	
3657	0	34164	
3658	0	34420	
3659	0	34516	
3660	0	34758	
3661	0	34976	
3662	0	34968	
3663	0	34868	
3664	0	34664	
3665	0	34520	
3666	0	35092	
3667	0	35764	
3668	0	35672	
3669	0	35252	
3670	0	35080	
3671	0	35492	
3672	0	36252	
3673	0	36606	
3674	0	35932	
3675	0	34568	
3676	0	33188	
3677	0	32146	
3678	0	31272	
3679	0	30808	
3680	0	30912	
3681	0	31106	
3682	0	31308	
3683	0	31458	
3684	0	31788	
3685	0	32308	
3686	0	32398	
3687	0	32180	
3688	0	31868	
3689	0	31548	
3690	0	31240	
3691	0	31276	
3692	0	31912	
3693	0	32704	
3694	0	33122	
3695	0	32364	
3696	0	31168	
3697	0	30430	
3698	0	30200	
3699	0	30568	
3700	0	31344	
3701	0	32080	
3702	0	32864	
3703	0	33744	
3704	0	33964	
3705	0	33352	
3706	0	32034	
3707	0	30832	
3708	0	30380	
3709	0	30142	
3710	0	29928	
3711	0	29836	
3712	0	29888	
3713	0	29940	
3714	0	30208	
3715	0	30552	
3716	0	30636	
3717	0	30436	
3718	0	30588	
3719	0	31040	
3720	0	31200	
3721	0	31196	
3722	0	31260	
3723	0	31468	
3724	0	31576	
3725	0	31180	
3726	0	30476	
3727	0	29848	
3728	0	29804	
3729	0	30072	
3730	0	30600	
3731	0	31680	
3732	0	32416	
3733	0	32448	
3734	0	32180	
3735	0	31500	
3736	0	30956	
3737	0	30085	
3738	0	29268	
3739	0	29140	
3740	0	29648	
3741	0	30540	
3742	0	31080	
3743	0	31096	
3744	0	30770	
3745	0	30874	
3746	0	31424	
3747	0	31708	
3748	0	31344	
3749	0	30786	
3750	0	30500	
3751	0	30384	
3752	0	30560	
3753	0	30554	
3754	0	30436	
3755	0	30268	
3756	0	30240	
3757	0	30460	
3758	0	30856	
3759	0	31250	
3760	0	31796	
3761	0	32404	
3762	0	32736	
3763	0	32628	
3764	0	32268	
3765	0	31860	
3766	0	31448	
3767	0	31320	
3768	0	31340	
3769	0	31260	
3770	0	31180	
3771	0	31170	
3772	0	31128	
3773	0	30664	
3774	0	30280	
3775	0	30202	
3776	0	30016	
3777	0	29796	
3778	0	29914	
3779	0	30552	
3780	0	31368	
3781	0	31930	
3782	0	32208	
3783	0	32244	
3784	0	32044	
3785	0	32052	
3786	0	32640	
3787	0	33288	
3788	0	33208	
3789	0	32601	
3790	0	32240	
3791	0	32332	
3792	0	32448	
3793	0	31920	
3794	0	31428	
3795	0	31520	
3796	0	31588	
3797	0	31336	
3798	0	31000	
3799	0	30656	
3800	0	30392	
3801	0	30632	
3802	0	30868	
3803	0	31180	
3804	0	31662	
3805	0	32324	
3806	0	33216	
3807	0	33986	
3808	0	33824	
3809	0	32664	
3810	0	31532	
3811	0	30896	
3812	0	30808	
3813	0	31008	
3814	0	31516	
3815	0	32208	
3816	0	32692	
3817	0	32928	
3818	0	33196	
3819	0	33156	
3820	0	32892	
3821	0	32888	
3822	0	32892	
3823	0	32860	
3824	0	33176	
3825	0	33380	
3826	0	33360	
3827	0	32840	
3828	0	32164	
3829	0	32132	
3830	0	32576	
3831	0	32968	
3832	0	33058	
3833	0	33204	
3834	0	33696	
3835	0	33908	
3836	0	33968	
3837	0	34312	
3838	0	35144	
3839	0	35288	
3840	0	34628	
3841	0	33488	
3842	0	32744	
3843	0	32980	
3844	0	33172	
3845	0	32916	
3846	0	32768	
3847	0	32732	
3848	0	32836	
3849	0	32824	
3850	0	33204	
3851	0	33728	
3852	0	34032	
3853	0	34468	
3854	0	35188	
3855	0	35928	
3856	0	36372	
3857	0	36624	
3858	0	36824	
3859	0	36856	
3860	0	36876	
3861	0	36728	
3862	0	36404	
3863	0	36208	
3864	0	36016	
3865	0	35800	
3866	0	35888	
3867	0	36224	
3868	0	36456	
3869	0	36256	
3870	0	36092	
3871	0	36440	
3872	0	36858	
3873	0	37204	
3874	0	37400	
3875	0	37476	
3876	0	37632	
3877	0	37436	
3878	0	37072	
3879	0	36982	
3880	0	37192	
3881	0	37382	
3882	0	37084	
3883	0	36334	
3884	0	35388	
3885	0	35404	
3886	0	36468	
3887	0	37356	
3888	0	37152	
3889	0	36216	
3890	0	35316	
3891	0	34856	
3892	0	34880	
3893	0	34840	
3894	0	34324	
3895	0	33784	
3896	0	33388	
3897	0	33074	
3898	0	32600	
3899	0	32008	
3900	0	31592	
3901	0	31368	
3902	0	31272	
3903	0	31220	
3904	0	31364	
3905	0	31258	
3906	0	30960	
3907	0	30912	
3908	0	31202	
3909	0	31432	
3910	0	31516	
3911	0	31268	
3912	0	30778	
3913	0	30412	
3914	0	30492	
3915	0	30768	
3916	0	30792	
3917	0	30528	
3918	0	30040	
3919	0	29604	
3920	0	29624	
3921	0	30048	
3922	0	30304	
3923	0	30630	
3924	0	30900	
3925	0	31012	
3926	0	30764	
3927	0	30448	
3928	0	30600	
3929	0	30652	
3930	0	30376	
3931	0	29900	
3932	0	29376	
3933	0	29136	
3934	0	29098	
3935	0	29480	
3936	0	30336	
3937	0	30976	
3938	0	31050	
3939	0	30560	
3940	0	30522	
3941	0	30784	
3942	0	30702	
3943	0	30396	
3944	0	30272	
3945	0	30242	
3946	0	30192	
3947	0	30276	
3948	0	30410	
3949	0	30666	
3950	0	30882	
3951	0	30872	
3952	0	30488	
3953	0	30080	
3954	0	29856	
3955	0	29632	
3956	0	29312	
3957	0	29028	
3958	0	28496	
3959	0	27912	
3960	0	27738	
3961	0	27748	
3962	0	27464	
3963	0	27016	
3964	0	26312	
3965	0	25528	
3966	0	25288	
3967	0	25616	
3968	0	26348	
3969	0	27136	
3970	0	27484	
3971	0	27980	
3972	0	29000	
3973	0	30816	
3974	0	33552	
3975	0	36588	
3976	0	39216	
3977	0	41844	
3978	0	44664	
3979	0	47672	
3980	0	50736	
3981	0	54000	
3982	0	57488	
3983	0	60744	
3984	0	62720	
3985	0	63776	
3986	0	64256	
3987	0	64480	
3988	0	64540	
3989	0	64518	
3990	0	64436	
3991	0	64360	
3992	0	64236	
3993	0	63408	
3994	0	53844	
3995	0	45400	
3996	0	38732	
3997	0	33572	
3998	0	29368	
3999	0	25754	
4000	0	23212	
4001	0	21740	
4002	0	21044	
4003	0	20696	
4004	0	20172	
4005	0	19760	
4006	0	19408	
4007	0	18868	
4008	0	18288	
4009	0	17716	
4010	0	17040	
4011	0	16300	
4012	0	15436	
4013	0	14856	
4014	0	14760	
4015	0	14960	
4016	0	15206	
4017	0	15349	
4018	0	15416	
4019	0	15668	
4020	0	16452	
4021	0	17472	
4022	0	18060	
4023	0	18736	
4024	0	19670	
4025	0	20238	
4026	0	20769	
4027	0	21720	
4028	0	22780	
4029	0	23568	
4030	0	24386	
4031	0	25408	
4032	0	26380	
4033	0	27098	
4034	0	27256	
4035	0	27184	
4036	0	27408	
4037	0	27940	
4038	0	28488	
4039	0	28696	
4040	0	28798	
4041	0	29092	
4042	0	29460	
4043	0	29772	
4044	0	30144	
4045	0	30604	
4046	0	31124	
4047	0	31368	
4048	0	31296	
4049	0	30964	
4050	0	30928	
4051	0	31304	
4052	0	31628	
4053	0	31612	
4054	0	31384	
4055	0	31336	
4056	0	31284	
4057	0	31352	
4058	0	31460	
4059	0	31612	
4060	0	31824	
4061	0	32160	
4062	0	32564	
4063	0	32764	
4064	0	32544	
4065	0	32240	
4066	0	32188	
4067	0	32364	
4068	0	32472	
4069	0	32396	
4070	0	32416	
4071	0	32440	
4072	0	32548	
4073	0	32508	
4074	0	32506	
4075	0	32552	
4076	0	32568	
4077	0	32512	
4078	0	32560	
4079	0	32620	
4080	0	32700	
4081	0	32820	
4082	0	32996	
4083	0	33184	
4084	0	33240	
4085	0	33280	
4086	0	33352	
4087	0	33580	
4088	0	33688	
4089	0	33720	
4090	0	33764	
4091	0	33852	
4092	0	33904	
4093	0	33796	
4094	0	33524	
4095	0	33456	
4096	0	33356	
4097	0	33120	
4098	0	33088	
4099	0	33404	
4100	0	33712	
4101	0	33756	
4102	0	33492	
4103	0	33322	
4104	0	33450	
4105	0	33768	
4106	0	34144	
4107	0	34356	
4108	0	34292	
4109	0	34284	
4110	0	34340	
4111	0	34184	
4112	0	34172	
4113	0	34424	
4114	0	34604	
4115	0	34636	
4116	0	34632	
4117	0	34484	
4118	0	34284	
4119	0	34104	
4120	0	34184	
4121	0	34356	
4122	0	34308	
4123	0	34184	
4124	0	34368	
4125	0	34608	
4126	0	34636	
4127	0	34512	
4128	0	34512	
4129	0	34620	
4130	0	34776	
4131	0	34908	
4132	0	34880	
4133	0	34848	
4134	0	35028	
4135	0	35432	
4136	0	35642	
4137	0	35488	
4138	0	35144	
4139	0	34780	
4140	0	34752	
4141	0	35016	
4142	0	35310	
4143	0	35392	
4144	0	35356	
4145	0	35216	
4146	0	35184	
4147	0	35316	
4148	0	35344	
4149	0	35336	
4150	0	35448	
4151	0	35556	
4152	0	35584	
4153	0	35612	
4154	0	35716	
4155	0	35820	
4156	0	35612	
4157	0	35536	
4158	0	35664	
4159	0	35656	
4160	0	35656	
4161	0	35556	
4162	0	35472	
4163	0	35496	
4164	0	35704	
4165	0	35970	
4166	0	36352	
4167	0	36532	
4168	0	36372	
4169	0	36066	
4170	0	35976	
4171	0	36196	
4172	0	36528	
4173	0	36852	
4174	0	36876	
4175	0	36572	
4176	0	36168	
4177	0	36048	
4178	0	36080	
4179	0	36256	
4180	0	36488	
4181	0	36588	
4182	0	36538	
4183	0	36376	
4184	0	36224	
4185	0	36168	
4186	0	36140	
4187	0	36096	
4188	0	36044	
4189	0	36068	
4190	0	36186	
4191	0	36404	
4192	0	36648	
4193	0	36776	
4194	0	36624	
4195	0	36352	
4196	0	36168	
4197	0	36180	
4198	0	36200	
4199	0	36114	
4200	0	36016	
4201	0	36008	
4202	0	36216	
4203	0	36316	
4204	0	36160	
4205	0	35932	
4206	0	35820	
4207	0	35768	
4208	0	35648	
4209	0	35642	
4210	0	35680	
4211	0	35600	
4212	0	35544	
4213	0	35560	
4214	0	35568	
4215	0	35680	
4216	0	35912	
4217	0	35924	
4218	0	35512	
4219	0	35036	
4220	0	34768	
4221	0	34652	
4222	0	34596	
4223	0	34512	
4224	0	34492	
4225	0	34568	
4226	0	34660	
4227	0	34736	
4228	0	34640	
4229	0	34432	
4230	0	34208	
4231	0	34008	
4232	0	33740	
4233	0	33304	
4234	0	32944	
4235	0	32916	
4236	0	33084	
4237	0	33252	
4238	0	33332	
4239	0	33248	
4240	0	32976	
4241	0	32708	
4242	0	32628	
4243	0	32706	
4244	0	32760	
4245	0	32744	
4246	0	32732	
4247	0	32800	
4248	0	32928	
4249	0	32916	
4250	0	32794	
4251	0	32552	
4252	0	32304	
4253	0	32124	
4254	0	31940	
4255	0	31824	
4256	0	31744	
4257	0	31704	
4258	0	31676	
4259	0	31754	
4260	0	31872	
4261	0	31920	
4262	0	31868	
4263	0	31864	
4264	0	32032	
4265	0	32116	
4266	0	32108	
4267	0	31988	
4268	0	31856	
4269	0	31724	
4270	0	31544	
4271	0	31424	
4272	0	31520	
4273	0	31656	
4274	0	31653	
4275	0	31616	
4276	0	31676	
4277	0	31756	
4278	0	31758	
4279	0	31720	
4280	0	31732	
4281	0	31736	
4282	0	31712	
4283	0	31708	
4284	0	31712	
4285	0	31764	
4286	0	31856	
4287	0	31904	
4288	0	31738	
4289	0	31500	
4290	0	31488	
4291	0	31476	
4292	0	31524	
4293	0	31605	
4294	0	31786	
4295	0	32036	
4296	0	32108	
4297	0	32064	
4298	0	31976	
4299	0	31944	
4300	0	31924	
4301	0	31872	
4302	0	31866	
4303	0	31904	
4304	0	31932	
4305	0	31906	
4306	0	31852	
4307	0	31792	
4308	0	31770	
4309	0	31808	
4310	0	31864	
4311	0	31928	
4312	0	31932	
4313	0	31896	
4314	0	31828	
4315	0	31788	
4316	0	31812	
4317	0	31860	
4318	0	31868	
4319	0	31968	
4320	0	32204	
4321	0	32456	
4322	0	32484	
4323	0	32384	
4324	0	32284	
4325	0	32144	
4326	0	32060	
4327	0	32144	
4328	0	32260	
4329	0	32256	
4330	0	32224	
4331	0	32228	
4332	0	32252	
4333	0	32244	
4334	0	32236	
4335	0	32260	
4336	0	32300	
4337	0	32338	
4338	0	32388	
4339	0	32464	
4340	0	32478	
4341	0	32444	
4342	0	32440	
4343	0	32420	
4344	0	32388	
4345	0	32548	
4346	0	32660	
4347	0	32764	
4348	0	32780	
4349	0	32740	
4350	0	32708	
4351	0	32696	
4352	0	32740	
4353	0	32834	
4354	0	32952	
4355	0	33080	
4356	0	33218	
4357	0	33312	
4358	0	33372	
4359	0	33354	
4360	0	33280	
4361	0	33164	
4362	0	33004	
4363	0	32844	
4364	0	32672	
4365	0	32528	
4366	0	32584	
4367	0	32728	
4368	0	32928	
4369	0	33108	
4370	0	33296	
4371	0	33484	
4372	0	33548	
4373	0	33480	
4374	0	33336	
4375	0	33312	
4376	0	33336	
4377	0	33276	
4378	0	33112	
4379	0	32900	
4380	0	32852	
4381	0	32960	
4382	0	33124	
4383	0	33216	
4384	0	33168	
4385	0	33178	
4386	0	33280	
4387	0	33504	
4388	0	33692	
4389	0	33760	
4390	0	33888	
4391	0	34060	
4392	0	34228	
4393	0	34424	
4394	0	34540	
4395	0	34360	
4396	0	34080	
4397	0	34000	
4398	0	34064	
4399	0	34144	
4400	0	34284	
4401	0	34412	
4402	0	34476	
4403	0	34540	
4404	0	34616	
4405	0	34656	
4406	0	34652	
4407	0	34624	
4408	0	34584	
4409	0	34600	
4410	0	34608	
4411	0	34620	
4412	0	34716	
4413	0	34976	
4414	0	35308	
4415	0	35620	
4416	0	35948	
4417	0	36372	
4418	0	36792	
4419	0	37128	
4420	0	37408	
4421	0	37684	
4422	0	37728	
4423	0	37652	
4424	0	37564	
4425	0	37504	
4426	0	37570	
4427	0	37690	
4428	0	37764	
4429	0	37772	
4430	0	37724	
4431	0	37656	
4432	0	37622	
4433	0	37592	
4434	0	37504	
4435	0	37388	
4436	0	37280	
4437	0	37192	
4438	0	37146	
4439	0	37216	
4440	0	37240	
4441	0	37168	
4442	0	37040	
4443	0	36888	
4444	0	36700	
4445	0	36496	
4446	0	36368	
4447	0	36304	
4448	0	36216	
4449	0	36112	
4450	0	35978	
4451	0	35820	
4452	0	35616	
4453	0	35348	
4454	0	34980	
4455	0	34612	
4456	0	34208	
4457	0	33764	
4458	0	33344	
4459	0	33028	
4460	0	32832	
4461	0	32616	
4462	0	32436	
4463	0	32320	
4464	0	32274	
4465	0	32280	
4466	0	32240	
4467	0	32080	
4468	0	31856	
4469	0	31680	
4470	0	31552	
4471	0	31376	
4472	0	31188	
4473	0	31032	
4474	0	30924	
4475	0	30790	
4476	0	30676	
4477	0	30588	
4478	0	30580	
4479	0	30672	
4480	0	30676	
4481	0	30648	
4482	0	30648	
4483	0	30656	
4484	0	30680	
4485	0	30684	
4486	0	30680	
4487	0	30656	
4488	0	30604	
4489	0	30488	
4490	0	30372	
4491	0	30300	
4492	0	30324	
4493	0	30344	
4494	0	30316	
4495	0	30408	
4496	0	30600	
4497	0	30696	
4498	0	30738	
4499	0	30780	
4500	0	30804	
4501	0	30816	
4502	0	30744	
4503	0	30644	
4504	0	30580	
4505	0	30580	
4506	0	30632	
4507	0	30652	
4508	0	30656	
4509	0	30624	
4510	0	30636	
4511	0	30688	
4512	0	30752	
4513	0	30760	
4514	0	30604	
4515	0	30280	
4516	0	29860	
4517	0	29230	
4518	0	28476	
4519	0	27748	
4520	0	27000	
4521	0	26168	
4522	0	25364	
4523	0	24648	
4524	0	24100	
4525	0	23702	
4526	0	23392	
4527	0	23332	
4528	0	23640	
4529	0	24152	
4530	0	24844	
4531	0	25808	
4532	0	27240	
4533	0	29160	
4534	0	31568	
4535	0	34316	
4536	0	37088	
4537	0	39964	
4538	0	42936	
4539	0	46376	
4540	0	50352	
4541	0	54520	
4542	0	58632	
4543	0	61276	
4544	0	62664	
4545	0	63376	
4546	0	63704	
4547	0	63832	
4548	0	63856	
4549	0	63800	
4550	0	63728	
4551	0	63632	
4552	0	63516	
4553	0	63412	
4554	0	55172	
4555	0	47712	
4556	0	41464	
4557	0	36428	
4558	0	32092	
4559	0	28308	
4560	0	25670	
4561	0	24004	
4562	0	22808	
4563	0	21784	
4564	0	20737	
4565	0	19576	
4566	0	18432	
4567	0	17538	
4568	0	16836	
4569	0	16288	
4570	0	16000	
4571	0	15896	
4572	0	15820	
4573	0	15736	
4574	0	15738	
4575	0	16008	
4576	0	16440	
4577	0	16964	
4578	0	17572	
4579	0	18160	
4580	0	18656	
4581	0	19216	
4582	0	19688	
4583	0	20192	
4584	0	20784	
4585	0	21524	
4586	0	22272	
4587	0	23008	
4588	0	23816	
4589	0	24624	
4590	0	25352	
4591	0	26056	
4592	0	26784	
4593	0	27456	
4594	0	28036	
4595	0	28520	
4596	0	28928	
4597	0	29312	
4598	0	29632	
4599	0	29868	
4600	0	30088	
4601	0	30256	
4602	0	30408	
4603	0	30544	
4604	0	30688	
4605	0	30788	
4606	0	30868	
4607	0	30936	
4608	0	30920	
4609	0	30816	
4610	0	30760	
4611	0	30848	
4612	0	30952	
4613	0	31096	
4614	0	31220	
4615	0	31328	
4616	0	31380	
4617	0	31464	
4618	0	31556	
4619	0	31632	
4620	0	31680	
4621	0	31720	
4622	0	31752	
4623	0	31800	
4624	0	31868	
4625	0	31956	
4626	0	32012	
4627	0	32072	
4628	0	32170	
4629	0	32256	
4630	0	32336	
4631	0	32356	
4632	0	32400	
4633	0	32416	
4634	0	32416	
4635	0	32374	
4636	0	32336	
4637	0	32380	
4638	0	32520	
4639	0	32648	
4640	0	32704	
4641	0	32720	
4642	0	32768	
4643	0	32772	
4644	0	32716	
4645	0	32672	
4646	0	32680	
4647	0	32778	
4648	0	32880	
4649	0	32992	
4650	0	33076	
4651	0	33172	
4652	0	33196	
4653	0	33180	
4654	0	33172	
4655	0	33124	
4656	0	33064	
4657	0	33032	
4658	0	33028	
4659	0	33076	
4660	0	33152	
4661	0	33272	
4662	0	33376	
4663	0	33440	
4664	0	33480	
4665	0	33456	
4666	0	33416	
4667	0	33388	
4668	0	33396	
4669	0	33440	
4670	0	33472	
4671	0	33528	
4672	0	33588	
4673	0	33616	
4674	0	33612	
4675	0	33620	
4676	0	33672	
4677	0	33760	
4678	0	33864	
4679	0	33918	
4680	0	33900	
4681	0	33840	
4682	0	33760	
4683	0	33732	
4684	0	33740	
4685	0	33788	
4686	0	33792	
4687	0	33706	
4688	0	33636	
4689	0	33636	
4690	0	33706	
4691	0	33796	
4692	0	33860	
4693	0	33936	
4694	0	34012	
4695	0	34016	
4696	0	33996	
4697	0	34016	
4698	0	34036	
4699	0	34024	
4700	0	34024	
4701	0	34056	
4702	0	34080	
4703	0	34116	
4704	0	34180	
4705	0	34268	
4706	0	34288	
4707	0	34368	
4708	0	34480	
4709	0	34564	
4710	0	34568	
4711	0	34492	
4712	0	34424	
4713	0	34444	
4714	0	34496	
4715	0	34552	
4716	0	34640	
4717	0	34648	
4718	0	34644	
4719	0	34732	
4720	0	34792	
4721	0	34808	
4722	0	34794	
4723	0	34836	
4724	0	34832	
4725	0	34840	
4726	0	34848	
4727	0	34872	
4728	0	34896	
4729	0	34924	
4730	0	34912	
4731	0	34912	
4732	0	34912	
4733	0	34936	
4734	0	35000	
4735	0	35044	
4736	0	35052	
4737	0	35008	
4738	0	34992	
4739	0	35012	
4740	0	35052	
4741	0	35104	
4742	0	35168	
4743	0	35252	
4744	0	35276	
4745	0	35280	
4746	0	35272	
4747	0	35264	
4748	0	35248	
4749	0	35228	
4750	0	35204	
4751	0	35192	
4752	0	35176	
4753	0	35152	
4754	0	35160	
4755	0	35196	
4756	0	35208	
4757	0	35204	
4758	0	35216	
4759	0	35240	
4760	0	35272	
4761	0	35292	
4762	0	35296	
4763	0	35232	
4764	0	35180	
4765	0	35180	
4766	0	35224	
4767	0	35302	
4768	0	35408	
4769	0	35464	
4770	0	35460	
4771	0	35392	
4772	0	35296	
4773	0	35180	
4774	0	35084	
4775	0	34980	
4776	0	34868	
4777	0	34772	
4778	0	34712	
4779	0	34656	
4780	0	34548	
4781	0	34416	
4782	0	34264	
4783	0	34144	
4784	0	34036	
4785	0	33976	
4786	0	33948	
4787	0	33928	
4788	0	33898	
4789	0	33908	
4790	0	33928	
4791	0	33856	
4792	0	33728	
4793	0	33532	
4794	0	33400	
4795	0	33288	
4796	0	33212	
4797	0	33136	
4798	0	33032	
4799	0	32964	
4800	0	32908	
4801	0	32832	
4802	0	32732	
4803	0	32640	
4804	0	32568	
4805	0	32440	
4806	0	32336	
4807	0	32268	
4808	0	32248	
4809	0	32224	
4810	0	32168	
4811	0	32068	
4812	0	31952	
4813	0	31848	
4814	0	31776	
4815	0	31748	
4816	0	31760	
4817	0	31776	
4818	0	31788	
4819	0	31746	
4820	0	31748	
4821	0	31700	
4822	0	31648	
4823	0	31588	
4824	0	31536	
4825	0	31488	
4826	0	31436	
4827	0	31396	
4828	0	31348	
4829	0	31320	
4830	0	31320	
4831	0	31336	
4832	0	31352	
4833	0	31392	
4834	0	31428	
4835	0	31444	
4836	0	31464	
4837	0	31528	
4838	0	31576	
4839	0	31616	
4840	0	31644	
4841	0	31620	
4842	0	31546	
4843	0	31520	
4844	0	31500	
4845	0	31468	
4846	0	31452	
4847	0	31436	
4848	0	31456	
4849	0	31460	
4850	0	31412	
4851	0	31416	
4852	0	31424	
4853	0	31432	
4854	0	31460	
4855	0	31488	
4856	0	31532	
4857	0	31504	
4858	0	31492	
4859	0	31508	
4860	0	31544	
4861	0	31572	
4862	0	31576	
4863	0	31572	
4864	0	31616	
4865	0	31636	
4866	0	31656	
4867	0	31692	
4868	0	31716	
4869	0	31688	
4870	0	31641	
4871	0	31640	
4872	0	31628	
4873	0	31612	
4874	0	31632	
4875	0	31716	
4876	0	31780	
4877	0	31820	
4878	0	31840	
4879	0	31782	
4880	0	31734	
4881	0	31716	
4882	0	31740	
4883	0	31778	
4884	0	31800	
4885	0	31848	
4886	0	31924	
4887	0	31996	
4888	0	32036	
4889	0	32068	
4890	0	32064	
4891	0	32032	
4892	0	32020	
4893	0	32040	
4894	0	32032	
4895	0	32028	
4896	0	32032	
4897	0	32056	
4898	0	32008	
4899	0	31948	
4900	0	31934	
4901	0	31972	
4902	0	32046	
4903	0	32100	
4904	0	32148	
4905	0	32208	
4906	0	32252	
4907	0	32284	
4908	0	32316	
4909	0	32346	
4910	0	32408	
4911	0	32444	
4912	0	32488	
4913	0	32548	
4914	0	32636	
4915	0	32688	
4916	0	32680	
4917	0	32636	
4918	0	32620	
4919	0	32618	
4920	0	32644	
4921	0	32620	
4922	0	32544	
4923	0	32468	
4924	0	32464	
4925	0	32524	
4926	0	32640	
4927	0	32732	
4928	0	32688	
4929	0	32604	
4930	0	32564	
4931	0	32572	
4932	0	32632	
4933	0	32692	
4934	0	32764	
4935	0	32780	
4936	0	32784	
4937	0	32816	
4938	0	32824	
4939	0	32828	
4940	0	32768	
4941	0	32696	
4942	0	32684	
4943	0	32636	
4944	0	32620	
4945	0	32624	
4946	0	32620	
4947	0	32656	
4948	0	32704	
4949	0	32736	
4950	0	32760	
4951	0	32800	
4952	0	32776	
4953	0	32680	
4954	0	32652	
4955	0	32724	
4956	0	32856	
4957	0	33018	
4958	0	33159	
4959	0	33300	
4960	0	33420	
4961	0	33538	
4962	0	33672	
4963	0	33760	
4964	0	33900	
4965	0	34064	
4966	0	34268	
4967	0	34496	
4968	0	34632	
4969	0	34712	
4970	0	34744	
4971	0	34720	
4972	0	34728	
4973	0	34740	
4974	0	34740	
4975	0	34768	
4976	0	34776	
4977	0	34748	
4978	0	34724	
4979	0	34676	
4980	0	34632	
4981	0	34612	
4982	0	34604	
4983	0	34624	
4984	0	34720	
4985	0	34912	
4986	0	35202	
4987	0	35496	
4988	0	35816	
4989	0	36140	
4990	0	36480	
4991	0	36764	
4992	0	36952	
4993	0	37096	
4994	0	37216	
4995	0	37356	
4996	0	37392	
4997	0	37344	
4998	0	37248	
4999	0	37148	
5000	0	37064	
5001	0	36960	
5002	0	36840	
5003	0	36740	
5004	0	36660	
5005	0	36564	
5006	0	36452	
5007	0	36304	
5008	0	36188	
5009	0	36100	
5010	0	36044	
5011	0	35988	
5012	0	35944	
5013	0	35924	
5014	0	35868	
5015	0	35796	
5016	0	35696	
5017	0	35548	
5018	0	35376	
5019	0	35204	
5020	0	35036	
5021	0	34764	
5022	0	34500	
5023	0	34280	
5024	0	34104	
5025	0	33852	
5026	0	33556	
5027	0	33136	
5028	0	32648	
5029	0	32192	
5030	0	31832	
5031	0	31510	
5032	0	31248	
5033	0	31040	
5034	0	30920	
5035	0	30840	
5036	0	30740	
5037	0	30648	
5038	0	30560	
5039	0	30462	
5040	0	30337	
5041	0	30144	
5042	0	29940	
5043	0	29760	
5044	0	29632	
5045	0	29560	
5046	0	29516	
5047	0	29468	
5048	0	29404	
5049	0	29394	
5050	0	29372	
5051	0	29408	
5052	0	29496	
5053	0	29588	
5054	0	29628	
5055	0	29660	
5056	0	29690	
5057	0	29712	
5058	0	29684	
5059	0	29648	
5060	0	29640	
5061	0	29644	
5062	0	29628	
5063	0	29646	
5064	0	29636	
5065	0	29664	
5066	0	29680	
5067	0	29672	
5068	0	29680	
5069	0	29720	
5070	0	29816	
5071	0	29920	
5072	0	29956	
5073	0	29944	
5074	0	29956	
5075	0	30004	
5076	0	30092	
5077	0	30176	
5078	0	30232	
5079	0	30264	
5080	0	30156	
5081	0	29988	
5082	0	29796	
5083	0	29544	
5084	0	29058	
5085	0	28300	
5086	0	27298	
5087	0	26204	
5088	0	25112	
5089	0	24097	
5090	0	23168	
5091	0	22356	
5092	0	21768	
5093	0	21444	
5094	0	21344	
5095	0	21504	
5096	0	21946	
5097	0	22660	
5098	0	23434	
5099	0	24450	
5100	0	26020	
5101	0	28116	
5102	0	30676	
5103	0	33504	
5104	0	36540	
5105	0	39884	
5106	0	43488	
5107	0	47648	
5108	0	52276	
5109	0	57072	
5110	0	60536	
5111	0	62432	
5112	0	63412	
5113	0	63884	
5114	0	64084	
5115	0	64148	
5116	0	64104	
5117	0	64032	
5118	0	63944	
5119	0	63856	
5120	0	63732	
5121	0	63620	
5122	0	61104	
5123	0	54136	
5124	0	48652	
5125	0	44196	
5126	0	39712	
5127	0	34840	
5128	0	30440	
5129	0	26768	
5130	0	23662	
5131	0	21168	
5132	0	19360	
5133	0	18132	
5134	0	17284	
5135	0	16756	
5136	0	16444	
5137	0	16180	
5138	0	16020	
5139	0	15882	
5140	0	15810	
5141	0	15924	
5142	0	16236	
5143	0	16680	
5144	0	17120	
5145	0	17644	
5146	0	18164	
5147	0	18604	
5148	0	19110	
5149	0	19712	
5150	0	20352	
5151	0	20944	
5152	0	21536	
5153	0	22136	
5154	0	22728	
5155	0	23392	
5156	0	24104	
5157	0	24836	
5158	0	25488	
5159	0	26080	
5160	0	26600	
5161	0	27024	
5162	0	27384	
5163	0	27712	
5164	0	27984	
5165	0	28184	
5166	0	28352	
5167	0	28466	
5168	0	28568	
5169	0	28680	
5170	0	28810	
5171	0	28928	
5172	0	29032	
5173	0	29152	
5174	0	29284	
5175	0	29448	
5176	0	29588	
5177	0	29700	
5178	0	29764	
5179	0	29812	
5180	0	29876	
5181	0	29960	
5182	0	30036	
5183	0	30132	
5184	0	30224	
5185	0	30308	
5186	0	30304	
5187	0	30256	
5188	0	30288	
5189	0	30352	
5190	0	30440	
5191	0	30516	
5192	0	30556	
5193	0	30576	
5194	0	30592	
5195	0	30640	
5196	0	30684	
5197	0	30760	
5198	0	30848	
5199	0	30916	
5200	0	30964	
5201	0	31008	
5202	0	31036	
5203	0	31060	
5204	0	31052	
5205	0	31074	
5206	0	31128	
5207	0	31224	
5208	0	31328	
5209	0	31424	
5210	0	31548	
5211	0	31680	
5212	0	31760	
5213	0	31808	
5214	0	31824	
5215	0	31808	
5216	0	31800	
5217	0	31796	
5218	0	31824	
5219	0	31840	
5220	0	31868	
5221	0	31884	
5222	0	31936	
5223	0	32036	
5224	0	32108	
5225	0	32152	
5226	0	32204	
5227	0	32248	
5228	0	32280	
5229	0	32332	
5230	0	32348	
5231	0	32368	
5232	0	32366	
5233	0	32276	
5234	0	32200	
5235	0	32148	
5236	0	32116	
5237	0	32108	
5238	0	32128	
5239	0	32168	
5240	0	32288	
5241	0	32452	
5242	0	32552	
5243	0	32576	
5244	0	32566	
5245	0	32568	
5246	0	32588	
5247	0	32624	
5248	0	32672	
5249	0	32730	
5250	0	32796	
5251	0	32856	
5252	0	32924	
5253	0	32948	
5254	0	32988	
5255	0	33008	
5256	0	33012	
5257	0	33008	
5258	0	33024	
5259	0	33052	
5260	0	33096	
5261	0	33140	
5262	0	33156	
5263	0	33136	
5264	0	33112	
5265	0	33088	
5266	0	33140	
5267	0	33218	
5268	0	33316	
5269	0	33352	
5270	0	33356	
5271	0	33352	
5272	0	33332	
5273	0	33336	
5274	0	33376	
5275	0	33376	
5276	0	33388	
5277	0	33412	
5278	0	33464	
5279	0	33516	
5280	0	33572	
5281	0	33634	
5282	0	33668	
5283	0	33724	
5284	0	33784	
5285	0	33792	
5286	0	33776	
5287	0	33768	
5288	0	33776	
5289	0	33808	
5290	0	33840	
5291	0	33896	
5292	0	33968	
5293	0	34064	
5294	0	34148	
5295	0	34224	
5296	0	34264	
5297	0	34256	
5298	0	34232	
5299	0	34244	
5300	0	34304	
5301	0	34348	
5302	0	34388	
5303	0	34492	
5304	0	34540	
5305	0	34548	
5306	0	34548	
5307	0	34560	
5308	0	34636	
5309	0	34688	
5310	0	34752	
5311	0	34766	
5312	0	34792	
5313	0	34840	
5314	0	34904	
5315	0	34916	
5316	0	34920	
5317	0	34928	
5318	0	34960	
5319	0	35024	
5320	0	35040	
5321	0	35048	
5322	0	35034	
5323	0	35022	
5324	0	34980	
5325	0	34972	
5326	0	34916	
5327	0	34816	
5328	0	34728	
5329	0	34672	
5330	0	34704	
5331	0	34844	
5332	0	34962	
5333	0	35056	
5334	0	35160	
5335	0	35228	
5336	0	35260	
5337	0	35228	
5338	0	35168	
5339	0	35120	
5340	0	35044	
5341	0	34988	
5342	0	34924	
5343	0	34904	
5344	0	34876	
5345	0	34824	
5346	0	34748	
5347	0	34648	
5348	0	34564	
5349	0	34472	
5350	0	34356	
5351	0	34220	
5352	0	34060	
5353	0	33952	
5354	0	33844	
5355	0	33736	
5356	0	33636	
5357	0	33516	
5358	0	33412	
5359	0	33332	
5360	0	33242	
5361	0	33168	
5362	0	33112	
5363	0	33056	
5364	0	33000	
5365	0	32916	
5366	0	32824	
5367	0	32700	
5368	0	32600	
5369	0	32544	
5370	0	32468	
5371	0	32380	
5372	0	32316	
5373	0	32296	
5374	0	32300	
5375	0	32296	
5376	0	32252	
5377	0	32216	
5378	0	32164	
5379	0	32050	
5380	0	31924	
5381	0	31832	
5382	0	31728	
5383	0	31648	
5384	0	31604	
5385	0	31558	
5386	0	31512	
5387	0	31444	
5388	0	31404	
5389	0	31380	
5390	0	31336	
5391	0	31356	
5392	0	31332	
5393	0	31312	
5394	0	31336	
5395	0	31340	
5396	0	31328	
5397	0	31304	
5398	0	31282	
5399	0	31264	
5400	0	31256	
5401	0	31258	
5402	0	31276	
5403	0	31310	
5404	0	31328	
5405	0	31348	
5406	0	31380	
5407	0	31386	
5408	0	31368	
5409	0	31332	
5410	0	31364	
5411	0	31404	
5412	0	31400	
5413	0	31392	
5414	0	31392	
5415	0	31364	
5416	0	31364	
5417	0	31384	
5418	0	31380	
5419	0	31360	
5420	0	31348	
5421	0	31380	
5422	0	31444	
5423	0	31506	
5424	0	31540	
5425	0	31592	
5426	0	31640	
5427	0	31640	
5428	0	31620	
5429	0	31616	
5430	0	31596	
5431	0	31556	
5432	0	31540	
5433	0	31540	
5434	0	31584	
5435	0	31604	
5436	0	31668	
5437	0	31712	
5438	0	31748	
5439	0	31748	
5440	0	31748	
5441	0	31752	
5442	0	31732	
5443	0	31712	
5444	0	31760	
5445	0	31824	
5446	0	31882	
5447	0	31946	
5448	0	31984	
5449	0	32020	
5450	0	32040	
5451	0	32076	
5452	0	32120	
5453	0	32136	
5454	0	32124	
5455	0	32116	
5456	0	32132	
5457	0	32156	
5458	0	32168	
5459	0	32192	
5460	0	32204	
5461	0	32184	
5462	0	32180	
5463	0	32200	
5464	0	32220	
5465	0	32272	
5466	0	32288	
5467	0	32336	
5468	0	32344	
5469	0	32312	
5470	0	32352	
5471	0	32388	
5472	0	32416	
5473	0	32376	
5474	0	32326	
5475	0	32296	
5476	0	32268	
5477	0	32252	
5478	0	32282	
5479	0	32328	
5480	0	32400	
5481	0	32484	
5482	0	32516	
5483	0	32524	
5484	0	32544	
5485	0	32576	
5486	0	32604	
5487	0	32632	
5488	0	32672	
5489	0	32708	
5490	0	32722	
5491	0	32740	
5492	0	32720	
5493	0	32696	
5494	0	32688	
5495	0	32660	
5496	0	32664	
5497	0	32680	
5498	0	32720	
5499	0	32764	
5500	0	32800	
5501	0	32792	
5502	0	32784	
5503	0	32808	
5504	0	32788	
5505	0	32764	
5506	0	32760	
5507	0	32736	
5508	0	32760	
5509	0	32736	
5510	0	32724	
5511	0	32730	
5512	0	32728	
5513	0	32752	
5514	0	32752	
5515	0	32784	
5516	0	32816	
5517	0	32832	
5518	0	32872	
5519	0	32904	
5520	0	32920	
5521	0	32908	
5522	0	32868	
5523	0	32840	
5524	0	32840	
5525	0	32840	
5526	0	32844	
5527	0	32856	
5528	0	32864	
5529	0	32904	
5530	0	32936	
5531	0	32940	
5532	0	32928	
5533	0	32922	
5534	0	32888	
5535	0	32856	
5536	0	32840	
5537	0	32836	
5538	0	32840	
5539	0	32864	
5540	0	32900	
5541	0	32922	
5542	0	32892	
5543	0	32864	
5544	0	32816	
5545	0	32752	
5546	0	32736	
5547	0	32736	
5548	0	32748	
5549	0	32800	
5550	0	32832	
5551	0	32852	
5552	0	32880	
5553	0	32880	
5554	0	32876	
5555	0	32832	
5556	0	32808	
5557	0	32758	
5558	0	32676	
5559	0	32688	
5560	0	32660	
5561	0	32592	
5562	0	32566	
5563	0	32568	
5564	0	32568	
5565	0	32556	
5566	0	32572	
5567	0	32560	
5568	0	32570	
5569	0	32580	
5570	0	32584	
5571	0	32580	
5572	0	32568	
5573	0	32544	
5574	0	32576	
5575	0	32588	
5576	0	32604	
5577	0	32580	
5578	0	32584	
5579	0	32596	
5580	0	32568	
5581	0	32532	
5582	0	32524	
5583	0	32516	
5584	0	32500	
5585	0	32488	
5586	0	32480	
5587	0	32496	
5588	0	32496	
5589	0	32512	
5590	0	32524	
5591	0	32556	
5592	0	32572	
5593	0	32556	
5594	0	32524	
5595	0	32502	
5596	0	32496	
5597	0	32482	
5598	0	32456	
5599	0	32442	
5600	0	32416	
5601	0	32410	
5602	0	32416	
5603	0	32440	
5604	0	32424	
5605	0	32396	
5606	0	32368	
5607	0	32352	
5608	0	32356	
5609	0	32324	
5610	0	32284	
5611	0	32284	
5612	0	32320	
5613	0	32352	
5614	0	32402	
5615	0	32444	
5616	0	32472	
5617	0	32492	
5618	0	32504	
5619	0	32468	
5620	0	32414	
5621	0	32380	
5622	0	32336	
5623	0	32336	
5624	0	32356	
5625	0	32404	
5626	0	32452	
5627	0	32494	
5628	0	32513	
5629	0	32520	
5630	0	32550	
5631	0	32552	
5632	0	32528	
5633	0	32504	
5634	0	32520	
5635	0	32532	
5636	0	32528	
5637	0	32576	
5638	0	32602	
5639	0	32624	
5640	0	32632	
5641	0	32632	
5642	0	32612	
5643	0	32544	
5644	0	32468	
5645	0	32396	
5646	0	32336	
5647	0	32276	
5648	0	32252	
5649	0	32252	
5650	0	32284	
5651	0	32346	
5652	0	32384	
5653	0	32440	
5654	0	32496	
5655	0	32552	
5656	0	32704	
5657	0	32816	
5658	0	32948	
5659	0	33136	
5660	0	33336	
5661	0	33528	
5662	0	33672	
5663	0	33776	
5664	0	33874	
5665	0	33984	
5666	0	34132	
5667	0	34308	
5668	0	34528	
5669	0	34736	
5670	0	34860	
5671	0	34936	
5672	0	34976	
5673	0	34968	
5674	0	34928	
5675	0	34880	
5676	0	34808	
5677	0	34696	
5678	0	34600	
5679	0	34604	
5680	0	34672	
5681	0	34768	
5682	0	34900	
5683	0	35098	
5684	0	35378	
5685	0	35708	
5686	0	35972	
5687	0	36192	
5688	0	36436	
5689	0	36712	
5690	0	37000	
5691	0	37236	
5692	0	37400	
5693	0	37492	
5694	0	37588	
5695	0	37624	
5696	0	37560	
5697	0	37424	
5698	0	37308	
5699	0	37228	
5700	0	37152	
5701	0	36996	
5702	0	36760	
5703	0	36532	
5704	0	36384	
5705	0	36296	
5706	0	36272	
5707	0	36252	
5708	0	36280	
5709	0	36280	
5710	0	36264	
5711	0	36196	
5712	0	36128	
5713	0	36044	
5714	0	35936	
5715	0	35880	
5716	0	35824	
5717	0	35708	
5718	0	35506	
5719	0	35252	
5720	0	34964	
5721	0	34622	
5722	0	34248	
5723	0	33860	
5724	0	33452	
5725	0	33004	
5726	0	32538	
5727	0	32096	
5728	0	31736	
5729	0	31496	
5730	0	31364	
5731	0	31276	
5732	0	31200	
5733	0	31136	
5734	0	31052	
5735	0	30958	
5736	0	30872	
5737	0	30796	
5738	0	30696	
5739	0	30580	
5740	0	30452	
5741	0	30340	
5742	0	30260	
5743	0	30212	
5744	0	30184	
5745	0	30184	
5746	0	30188	
5747	0	30208	
5748	0	30220	
5749	0	30240	
5750	0	30236	
5751	0	30264	
5752	0	30272	
5753	0	30276	
5754	0	30264	
5755	0	30256	
5756	0	30304	
5757	0	30348	
5758	0	30396	
5759	0	30420	
5760	0	30460	
5761	0	30480	
5762	0	30508	
5763	0	30524	
5764	0	30528	
5765	0	30536	
5766	0	30526	
5767	0	30520	
5768	0	30528	
5769	0	30544	
5770	0	30568	
5771	0	30596	
5772	0	30648	
5773	0	30730	
5774	0	30776	
5775	0	30816	
5776	0	30880	
5777	0	30880	
5778	0	30824	
5779	0	30744	
5780	0	30616	
5781	0	30400	
5782	0	30080	
5783	0	29512	
5784	0	28696	
5785	0	27754	
5786	0	26776	
5787	0	25804	
5788	0	24968	
5789	0	24248	
5790	0	23728	
5791	0	23452	
5792	0	23374	
5793	0	23516	
5794	0	23938	
5795	0	24596	
5796	0	25292	
5797	0	26216	
5798	0	27656	
5799	0	29584	
5800	0	31988	
5801	0	34730	
5802	0	37688	
5803	0	40920	
5804	0	44420	
5805	0	48496	
5806	0	52964	
5807	0	57564	
5808	0	61048	
5809	0	62912	
5810	0	63884	
5811	0	64356	
5812	0	64556	
5813	0	64608	
5814	0	64576	
5815	0	64512	
5816	0	64392	
5817	0	64300	
5818	0	64168	
5819	0	64064	
5820	0	61812	
5821	0	54720	
5822	0	49136	
5823	0	44848	
5824	0	40536	
5825	0	35872	
5826	0	31492	
5827	0	27888	
5828	0	24964	
5829	0	22484	
5830	0	20450	
5831	0	18876	
5832	0	17734	
5833	0	17064	
5834	0	16688	
5835	0	16408	
5836	0	16200	
5837	0	16112	
5838	0	16188	
5839	0	16462	
5840	0	16848	
5841	0	17258	
5842	0	17726	
5843	0	18260	
5844	0	18816	
5845	0	19380	
5846	0	19964	
5847	0	20552	
5848	0	21192	
5849	0	21780	
5850	0	22324	
5851	0	22884	
5852	0	23584	
5853	0	24324	
5854	0	25088	
5855	0	25804	
5856	0	26400	
5857	0	26920	
5858	0	27356	
5859	0	27712	
5860	0	28024	
5861	0	28264	
5862	0	28480	
5863	0	28656	
5864	0	28820	
5865	0	28964	
5866	0	29072	
5867	0	29152	
5868	0	29256	
5869	0	29356	
5870	0	29412	
5871	0	29456	
5872	0	29524	
5873	0	29616	
5874	0	29706	
5875	0	29832	
5876	0	29960	
5877	0	30048	
5878	0	30136	
5879	0	30228	
5880	0	30272	
5881	0	30358	
5882	0	30436	
5883	0	30496	
5884	0	30584	
5885	0	30640	
5886	0	30692	
5887	0	30764	
5888	0	30812	
5889	0	30852	
5890	0	30912	
5891	0	30986	
5892	0	30984	
5893	0	30992	
5894	0	31048	
5895	0	31060	
5896	0	31074	
5897	0	31092	
5898	0	31128	
5899	0	31188	
5900	0	31244	
5901	0	31324	
5902	0	31384	
5903	0	31464	
5904	0	31506	
5905	0	31556	
5906	0	31596	
5907	0	31616	
5908	0	31648	
5909	0	31668	
5910	0	31696	
5911	0	31724	
5912	0	31756	
5913	0	31784	
5914	0	31816	
5915	0	31868	
5916	0	31904	
5917	0	31924	
5918	0	31960	
5919	0	31996	
5920	0	32032	
5921	0	32074	
5922	0	32084	
5923	0	32124	
5924	0	32184	
5925	0	32232	
5926	0	32264	
5927	0	32288	
5928	0	32312	
5929	0	32368	
5930	0	32430	
5931	0	32464	
5932	0	32484	
5933	0	32504	
5934	0	32504	
5935	0	32488	
5936	0	32548	
5937	0	32580	
5938	0	32608	
5939	0	32640	
5940	0	32664	
5941	0	32696	
5942	0	32728	
5943	0	32748	
5944	0	32766	
5945	0	32786	
5946	0	32800	
5947	0	32800	
5948	0	32856	
5949	0	32920	
5950	0	32964	
5951	0	33036	
5952	0	33084	
5953	0	33072	
5954	0	33040	
5955	0	33052	
5956	0	33088	
5957	0	33112	
5958	0	33122	
5959	0	33120	
5960	0	33080	
5961	0	33072	
5962	0	33088	
5963	0	33104	
5964	0	33132	
5965	0	33152	
5966	0	33164	
5967	0	33204	
5968	0	33236	
5969	0	33272	
5970	0	33328	
5971	0	33380	
5972	0	33408	
5973	0	33444	
5974	0	33448	
5975	0	33500	
5976	0	33544	
5977	0	33588	
5978	0	33620	
5979	0	33656	
5980	0	33684	
5981	0	33722	
5982	0	33754	
5983	0	33792	
5984	0	33804	
5985	0	33804	
5986	0	33800	
5987	0	33820	
5988	0	33872	
5989	0	33900	
5990	0	33912	
5991	0	33952	
5992	0	34012	
5993	0	34076	
5994	0	34104	
5995	0	34096	
5996	0	34100	
5997	0	34144	
5998	0	34188	
5999	0	34216	
6000	0	34232	
6001	0	34280	
6002	0	34352	
6003	0	34384	
6004	0	34436	
6005	0	34512	
6006	0	34604	
6007	0	34676	
6008	0	34744	
6009	0	34816	
6010	0	34892	
6011	0	34940	
6012	0	34936	
6013	0	34936	
6014	0	34940	
6015	0	34954	
6016	0	34980	
6017	0	34992	
6018	0	35012	
6019	0	35068	
6020	0	35132	
6021	0	35200	
6022	0	35232	
6023	0	35282	
6024	0	35288	
6025	0	35328	
6026	0	35352	
6027	0	35352	
6028	0	35372	
6029	0	35392	
6030	0	35400	
6031	0	35416	
6032	0	35420	
6033	0	35440	
6034	0	35444	
6035	0	35440	
6036	0	35416	
6037	0	35452	
6038	0	35508	
6039	0	35568	
6040	0	35600	
6041	0	35588	
6042	0	35616	
6043	0	35600	
6044	0	35626	
6045	0	35628	
6046	0	35580	
6047	0	35516	
6048	0	35452	
6049	0	35364	
6050	0	35288	
6051	0	35220	
6052	0	35124	
6053	0	35044	
6054	0	34954	
6055	0	34888	
6056	0	34820	
6057	0	34696	
6058	0	34584	
6059	0	34492	
6060	0	34404	
6061	0	34288	
6062	0	34208	
6063	0	34080	
6064	0	33964	
6065	0	33892	
6066	0	33808	
6067	0	33736	
6068	0	33672	
6069	0	33596	
6070	0	33506	
6071	0	33440	
6072	0	33356	
6073	0	33280	
6074	0	33200	
6075	0	33132	
6076	0	33060	
6077	0	32976	
6078	0	32908	
6079	0	32848	
6080	0	32780	
6081	0	32708	
6082	0	32656	
6083	0	32624	
6084	0	32576	
6085	0	32484	
6086	0	32384	
6087	0	32328	
6088	0	32264	
6089	0	32216	
6090	0	32208	
6091	0	32192	
6092	0	32192	
6093	0	32152	
6094	0	32088	
6095	0	32000	
6096	0	31944	
6097	0	31928	
6098	0	31932	
6099	0	31928	
6100	0	31936	
6101	0	31904	
6102	0	31864	
6103	0	31832	
6104	0	31800	
6105	0	31780	
6106	0	31764	
6107	0	31776	
6108	0	31802	
6109	0	31800	
6110	0	31748	
6111	0	31716	
6112	0	31712	
6113	0	31744	
6114	0	31784	
6115	0	31796	
6116	0	31808	
6117	0	31836	
6118	0	31880	
6119	0	31932	
6120	0	31954	
6121	0	31936	
6122	0	31936	
6123	0	31944	
6124	0	31952	
6125	0	31980	
6126	0	32016	
6127	0	32040	
6128	0	32052	
6129	0	32072	
6130	0	32074	
6131	0	32084	
6132	0	32080	
6133	0	32064	
6134	0	32064	
6135	0	32096	
6136	0	32128	
6137	0	32136	
6138	0	32120	
6139	0	32132	
6140	0	32136	
6141	0	32132	
6142	0	32152	
6143	0	32200	
6144	0	32208	
6145	0	32236	
6146	0	32224	
6147	0	32232	
6148	0	32256	
6149	0	32276	
6150	0	32296	
6151	0	32308	
6152	0	32320	
6153	0	32352	
6154	0	32376	
6155	0	32392	
6156	0	32440	
6157	0	32480	
6158	0	32472	
6159	0	32456	
6160	0	32464	
6161	0	32472	
6162	0	32484	
6163	0	32508	
6164	0	32524	
6165	0	32540	
6166	0	32580	
6167	0	32600	
6168	0	32616	
6169	0	32576	
6170	0	32552	
6171	0	32552	
6172	0	32588	
6173	0	32612	
6174	0	32628	
6175	0	32674	
6176	0	32680	
6177	0	32684	
6178	0	32688	
6179	0	32684	
6180	0	32644	
6181	0	32644	
6182	0	32632	
6183	0	32632	
6184	0	32660	
6185	0	32680	
6186	0	32692	
6187	0	32728	
6188	0	32740	
6189	0	32774	
6190	0	32760	
6191	0	32724	
6192	0	32704	
6193	0	32668	
6194	0	32644	
6195	0	32648	
6196	0	32640	
6197	0	32616	
6198	0	32568	
6199	0	32560	
6200	0	32604	
6201	0	32660	
6202	0	32696	
6203	0	32672	
6204	0	32660	
6205	0	32680	
6206	0	32716	
6207	0	32714	
6208	0	32750	
6209	0	32752	
6210	0	32768	
6211	0	32792	
6212	0	32796	
6213	0	32800	
6214	0	32808	
6215	0	32816	
6216	0	32804	
6217	0	32824	
6218	0	32844	
6219	0	32848	
6220	0	32816	
6221	0	32784	
6222	0	32764	
6223	0	32752	
6224	0	32780	
6225	0	32780	
6226	0	32792	
6227	0	32808	
6228	0	32840	
6229	0	32860	
6230	0	32860	
6231	0	32836	
6232	0	32844	
6233	0	32856	
6234	0	32848	
6235	0	32864	
6236	0	32872	
6237	0	32840	
6238	0	32814	
6239	0	32792	
6240	0	32788	
6241	0	32784	
6242	0	32800	
6243	0	32808	
6244	0	32816	
6245	0	32820	
6246	0	32816	
6247	0	32804	
6248	0	32776	
6249	0	32776	
6250	0	32792	
6251	0	32800	
6252	0	32800	
6253	0	32840	
6254	0	32840	
6255	0	32848	
6256	0	32896	
6257	0	32908	
6258	0	32894	
6259	0	32896	
6260	0	32864	
6261	0	32826	
6262	0	32828	
6263	0	32824	
6264	0	32808	
6265	0	32804	
6266	0	32804	
6267	0	32812	
6268	0	32822	
6269	0	32784	
6270	0	32748	
6271	0	32760	
6272	0	32768	
6273	0	32760	
6274	0	32720	
6275	0	32668	
6276	0	32648	
6277	0	32666	
6278	0	32664	
6279	0	32656	
6280	0	32624	
6281	0	32608	
6282	0	32604	
6283	0	32620	
6284	0	32624	
6285	0	32600	
6286	0	32596	
6287	0	32580	
6288	0	32556	
6289	0	32560	
6290	0	32584	
6291	0	32612	
6292	0	32624	
6293	0	32644	
6294	0	32644	
6295	0	32600	
6296	0	32564	
6297	0	32520	
6298	0	32516	
6299	0	32536	
6300	0	32528	
6301	0	32540	
6302	0	32572	
6303	0	32576	
6304	0	32536	
6305	0	32528	
6306	0	32524	
6307	0	32500	
6308	0	32512	
6309	0	32552	
6310	0	32552	
6311	0	32536	
6312	0	32540	
6313	0	32536	
6314	0	32564	
6315	0	32560	
6316	0	32528	
6317	0	32512	
6318	0	32496	
6319	0	32488	
6320	0	32496	
6321	0	32484	
6322	0	32468	
6323	0	32448	
6324	0	32416	
6325	0	32388	
6326	0	32408	
6327	0	32444	
6328	0	32464	
6329	0	32472	
6330	0	32464	
6331	0	32408	
6332	0	32384	
6333	0	32376	
6334	0	32344	
6335	0	32292	
6336	0	32272	
6337	0	32280	
6338	0	32320	
6339	0	32346	
6340	0	32382	
6341	0	32416	
6342	0	32424	
6343	0	32404	
6344	0	32392	
6345	0	32392	
6346	0	32424	
6347	0	32420	
6348	0	32420	
6349	0	32384	
6350	0	32372	
6351	0	32386	
6352	0	32396	
6353	0	32404	
6354	0	32408	
6355	0	32410	
6356	0	32406	
6357	0	32400	
6358	0	32376	
6359	0	32380	
6360	0	32416	
6361	0	32432	
6362	0	32434	
6363	0	32456	
6364	0	32488	
6365	0	32548	
6366	0	32550	
6367	0	32520	
6368	0	32496	
6369	0	32456	
6370	0	32442	
6371	0	32444	
6372	0	32448	
6373	0	32432	
6374	0	32416	
6375	0	32396	
6376	0	32416	
6377	0	32436	
6378	0	32436	
6379	0	32444	
6380	0	32452	
6381	0	32448	
6382	0	32440	
6383	0	32412	
6384	0	32388	
6385	0	32436	
6386	0	32468	
6387	0	32464	
6388	0	32448	
6389	0	32432	
6390	0	32412	
6391	0	32364	
6392	0	32352	
6393	0	32316	
6394	0	32296	
6395	0	32292	
6396	0	32288	
6397	0	32312	
6398	0	32352	
6399	0	32372	
6400	0	32412	
6401	0	32440	
6402	0	32440	
6403	0	32424	
6404	0	32446	
6405	0	32458	
6406	0	32408	
6407	0	32332	
6408	0	32296	
6409	0	32292	
6410	0	32304	
6411	0	32308	
6412	0	32330	
6413	0	32374	
6414	0	32400	
6415	0	32412	
6416	0	32412	
6417	0	32416	
6418	0	32412	
6419	0	32420	
6420	0	32468	
6421	0	32476	
6422	0	32480	
6423	0	32500	
6424	0	32528	
6425	0	32524	
6426	0	32506	
6427	0	32480	
6428	0	32488	
6429	0	32526	
6430	0	32524	
6431	0	32520	
6432	0	32496	
6433	0	32460	
6434	0	32444	
6435	0	32452	
6436	0	32456	
6437	0	32492	
6438	0	32522	
6439	0	32516	
6440	0	32516	
6441	0	32508	
6442	0	32512	
6443	0	32496	
6444	0	32494	
6445	0	32480	
6446	0	32528	
6447	0	32592	
6448	0	32652	
6449	0	32674	
6450	0	32688	
6451	0	32688	
6452	0	32688	
6453	0	32666	
6454	0	32684	
6455	0	32664	
6456	0	32618	
6457	0	32604	
6458	0	32608	
6459	0	32604	
6460	0	32608	
6461	0	32640	
6462	0	32668	
6463	0	32688	
6464	0	32708	
6465	0	32712	
6466	0	32704	
6467	0	32696	
6468	0	32696	
6469	0	32704	
6470	0	32724	
6471	0	32740	
6472	0	32740	
6473	0	32756	
6474	0	32756	
6475	0	32736	
6476	0	32712	
6477	0	32712	
6478	0	32732	
6479	0	32740	
6480	0	32752	
6481	0	32732	
6482	0	32740	
6483	0	32776	
6484	0	32856	
6485	0	32908	
6486	0	33008	
6487	0	33120	
6488	0	33280	
6489	0	33488	
6490	0	33692	
6491	0	33888	
6492	0	34048	
6493	0	34156	
6494	0	34280	
6495	0	34428	
6496	0	34584	
6497	0	34752	
6498	0	34910	
6499	0	35024	
6500	0	35040	
6501	0	35068	
6502	0	35096	
6503	0	35072	
6504	0	34988	
6505	0	34856	
6506	0	34720	
6507	0	34548	
6508	0	34472	
6509	0	34476	
6510	0	34624	
6511	0	34852	
6512	0	35168	
6513	0	35536	
6514	0	35912	
6515	0	36224	
6516	0	36512	
6517	0	36828	
6518	0	37152	
6519	0	37400	
6520	0	37616	
6521	0	37776	
6522	0	37880	
6523	0	37924	
6524	0	37888	
6525	0	37812	
6526	0	37672	
6527	0	37528	
6528	0	37442	
6529	0	37388	
6530	0	37336	
6531	0	37252	
6532	0	37124	
6533	0	36964	
6534	0	36840	
6535	0	36740	
6536	0	36704	
6537	0	36684	
6538	0	36644	
6539	0	36536	
6540	0	36408	
6541	0	36284	
6542	0	36144	
6543	0	36030	
6544	0	35936	
6545	0	35840	
6546	0	35676	
6547	0	35458	
6548	0	35232	
6549	0	34978	
6550	0	34652	
6551	0	34292	
6552	0	33948	
6553	0	33584	
6554	0	33156	
6555	0	32784	
6556	0	32440	
6557	0	32132	
6558	0	31872	
6559	0	31704	
6560	0	31576	
6561	0	31452	
6562	0	31350	
6563	0	31260	
6564	0	31180	
6565	0	31144	
6566	0	31058	
6567	0	30908	
6568	0	30728	
6569	0	30564	
6570	0	30448	
6571	0	30396	
6572	0	30348	
6573	0	30344	
6574	0	30356	
6575	0	30368	
6576	0	30424	
6577	0	30440	
6578	0	30464	
6579	0	30496	
6580	0	30536	
6581	0	30568	
6582	0	30596	
6583	0	30636	
6584	0	30668	
6585	0	30700	
6586	0	30700	
6587	0	30682	
6588	0	30648	
6589	0	30640	
6590	0	30656	
6591	0	30660	
6592	0	30680	
6593	0	30672	
6594	0	30692	
6595	0	30724	
6596	0	30752	
6597	0	30784	
6598	0	30824	
6599	0	30884	
6600	0	30920	
6601	0	30932	
6602	0	30904	
6603	0	30864	
6604	0	30856	
6605	0	30844	
6606	0	30780	
6607	0	30680	
6608	0	30544	
6609	0	30328	
6610	0	29956	
6611	0	29340	
6612	0	28536	
6613	0	27648	
6614	0	26732	
6615	0	25856	
6616	0	25060	
6617	0	24414	
6618	0	23992	
6619	0	23756	
6620	0	23692	
6621	0	23876	
6622	0	24338	
6623	0	24956	
6624	0	25592	
6625	0	26588	
6626	0	28120	
6627	0	30160	
6628	0	32610	
6629	0	35304	
6630	0	38324	
6631	0	41576	
6632	0	45208	
6633	0	49360	
6634	0	53744	
6635	0	58208	
6636	0	61328	
6637	0	63008	
6638	0	63864	
6639	0	64288	
6640	0	64448	
6641	0	64472	
6642	0	64424	
6643	0	64376	
6644	0	64260	
6645	0	64156	
6646	0	64044	
6647	0	63920	
6648	0	61296	
6649	0	54840	
6650	0	49824	
6651	0	45600	
6652	0	41080	
6653	0	36362	
6654	0	32192	
6655	0	28768	
6656	0	25872	
6657	0	23436	
6658	0	21492	
6659	0	20004	
6660	0	18896	
6661	0	18228	
6662	0	17728	
6663	0	17312	
6664	0	16968	
6665	0	16780	
6666	0	16808	
6667	0	17004	
6668	0	17304	
6669	0	17720	
6670	0	18238	
6671	0	18828	
6672	0	19392	
6673	0	19936	
6674	0	20450	
6675	0	21000	
6676	0	21584	
6677	0	22120	
6678	0	22642	
6679	0	23236	
6680	0	23896	
6681	0	24592	
6682	0	25288	
6683	0	25920	
6684	0	26478	
6685	0	26948	
6686	0	27328	
6687	0	27656	
6688	0	27992	
6689	0	28290	
6690	0	28508	
6691	0	28656	
6692	0	28760	
6693	0	28828	
6694	0	28896	
6695	0	28976	
6696	0	29060	
6697	0	29140	
6698	0	29220	
6699	0	29272	
6700	0	29336	
6701	0	29400	
6702	0	29480	
6703	0	29562	
6704	0	29620	
6705	0	29688	
6706	0	29752	
6707	0	29818	
6708	0	29876	
6709	0	29968	
6710	0	30040	
6711	0	30128	
6712	0	30196	
6713	0	30284	
6714	0	30344	
6715	0	30400	
6716	0	30464	
6717	0	30528	
6718	0	30580	
6719	0	30628	
6720	0	30648	
6721	0	30658	
6722	0	30704	
6723	0	30768	
6724	0	30820	
6725	0	30846	
6726	0	30884	
6727	0	30944	
6728	0	31016	
6729	0	31104	
6730	0	31164	
6731	0	31232	
6732	0	31312	
6733	0	31390	
6734	0	31432	
6735	0	31440	
6736	0	31456	
6737	0	31444	
6738	0	31452	
6739	0	31464	
6740	0	31484	
6741	0	31548	
6742	0	31612	
6743	0	31648	
6744	0	31696	
6745	0	31708	
6746	0	31716	
6747	0	31752	
6748	0	31764	
6749	0	31770	
6750	0	31808	
6751	0	31858	
6752	0	31912	
6753	0	31996	
6754	0	32016	
6755	0	32056	
6756	0	32096	
6757	0	32120	
6758	0	32160	
6759	0	32216	
6760	0	32256	
6761	0	32268	
6762	0	32284	
6763	0	32276	
6764	0	32290	
6765	0	32308	
6766	0	32304	
6767	0	32316	
6768	0	32320	
6769	0	32328	
6770	0	32376	
6771	0	32412	
6772	0	32436	
6773	0	32472	
6774	0	32536	
6775	0	32608	
6776	0	32652	
6777	0	32680	
6778	0	32692	
6779	0	32708	
6780	0	32712	
6781	0	32708	
6782	0	32724	
6783	0	32756	
6784	0	32812	
6785	0	32820	
6786	0	32852	
6787	0	32880	
6788	0	32912	
6789	0	32960	
6790	0	32964	
6791	0	32960	
6792	0	32968	
6793	0	32980	
6794	0	33012	
6795	0	33048	
6796	0	33068	
6797	0	33100	
6798	0	33120	
6799	0	33168	
6800	0	33208	
6801	0	33265	
6802	0	33298	
6803	0	33354	
6804	0	33398	
6805	0	33424	
6806	0	33436	
6807	0	33428	
6808	0	33410	
6809	0	33428	
6810	0	33432	
6811	0	33424	
6812	0	33428	
6813	0	33424	
6814	0	33456	
6815	0	33512	
6816	0	33544	
6817	0	33552	
6818	0	33592	
6819	0	33624	
6820	0	33680	
6821	0	33744	
6822	0	33764	
6823	0	33804	
6824	0	33844	
6825	0	33876	
6826	0	33928	
6827	0	33984	
6828	0	34032	
6829	0	34040	
6830	0	34072	
6831	0	34120	
6832	0	34152	
6833	0	34188	
6834	0	34248	
6835	0	34280	
6836	0	34344	
6837	0	34376	
6838	0	34410	
6839	0	34420	
6840	0	34460	
6841	0	34508	
6842	0	34528	
6843	0	34556	
6844	0	34600	
6845	0	34632	
6846	0	34660	
6847	0	34720	
6848	0	34744	
6849	0	34776	
6850	0	34808	
6851	0	34832	
6852	0	34860	
6853	0	34884	
6854	0	34928	
6855	0	34964	
6856	0	34948	
6857	0	34980	
6858	0	35000	
6859	0	35016	
6860	0	35036	
6861	0	35048	
6862	0	35058	
6863	0	35068	
6864	0	35066	
6865	0	35096	
6866	0	35096	
6867	0	35104	
6868	0	35122	
6869	0	35092	
6870	0	35092	
6871	0	35112	
6872	0	35128	
6873	0	35136	
6874	0	35136	
6875	0	35136	
6876	0	35120	
6877	0	35092	
6878	0	35124	
6879	0	35108	
6880	0	35092	
6881	0	35042	
6882	0	34996	
6883	0	34932	
6884	0	34860	
6885	0	34784	
6886	0	34708	
6887	0	34616	
6888	0	34520	
6889	0	34408	
6890	0	34332	
6891	0	34264	
6892	0	34196	
6893	0	34128	
6894	0	34052	
6895	0	33968	
6896	0	33868	
6897	0	33776	
6898	0	33672	
6899	0	33560	
6900	0	33428	
6901	0	33304	
6902	0	33200	
6903	0	33096	
6904	0	33032	
6905	0	32996	
6906	0	32960	
6907	0	32896	
6908	0	32856	
6909	0	32800	
6910	0	32752	
6911	0	32732	
6912	0	32704	
6913	0	32640	
6914	0	32544	
6915	0	32452	
6916	0	32360	
6917	0	32268	
6918	0	32192	
6919	0	32144	
6920	0	32116	
6921	0	32108	
6922	0	32108	
6923	0	32112	
6924	0	32082	
6925	0	32020	
6926	0	31980	
6927	0	31948	
6928	0	31924	
6929	0	31924	
6930	0	31916	
6931	0	31896	
6932	0	31864	
6933	0	31834	
6934	0	31832	
6935	0	31834	
6936	0	31832	
6937	0	31840	
6938	0	31812	
6939	0	31800	
6940	0	31808	
6941	0	31800	
6942	0	31784	
6943	0	31748	
6944	0	31736	
6945	0	31752	
6946	0	31740	
6947	0	31716	
6948	0	31732	
6949	0	31748	
6950	0	31760	
6951	0	31762	
6952	0	31788	
6953	0	31840	
6954	0	31884	
6955	0	31938	
6956	0	31986	
6957	0	32012	
6958	0	31992	
6959	0	31984	
6960	0	32004	
6961	0	32020	
6962	0	32052	
6963	0	32064	
6964	0	32072	
6965	0	32068	
6966	0	32048	
6967	0	32092	
6968	0	32092	
6969	0	32096	
6970	0	32112	
6971	0	32132	
6972	0	32128	
6973	0	32126	
6974	0	32112	
6975	0	32116	
6976	0	32132	
6977	0	32168	
6978	0	32208	
6979	0	32240	
6980	0	32276	
6981	0	32272	
6982	0	32292	
6983	0	32312	
6984	0	32336	
6985	0	32352	
6986	0	32372	
6987	0	32404	
6988	0	32432	
6989	0	32464	
6990	0	32500	
6991	0	32504	
6992	0	32476	
6993	0	32420	
6994	0	32434	
6995	0	32444	
6996	0	32468	
6997	0	32482	
6998	0	32508	
6999	0	32548	
7000	0	32584	
7001	0	32608	
7002	0	32628	
7003	0	32624	
7004	0	32624	
7005	0	32626	
7006	0	32604	
7007	0	32580	
7008	0	32568	
7009	0	32584	
7010	0	32584	
7011	0	32576	
7012	0	32590	
7013	0	32632	
7014	0	32626	
7015	0	32600	
7016	0	32580	
7017	0	32570	
7018	0	32580	
7019	0	32632	
7020	0	32656	
7021	0	32684	
7022	0	32708	
7023	0	32720	
7024	0	32748	
7025	0	32754	
7026	0	32768	
7027	0	32788	
7028	0	32774	
7029	0	32772	
7030	0	32732	
7031	0	32708	
7032	0	32714	
7033	0	32736	
7034	0	32736	
7035	0	32752	
7036	0	32800	
7037	0	32852	
7038	0	32832	
7039	0	32836	
7040	0	32824	
7041	0	32844	
7042	0	32856	
7043	0	32840	
7044	0	32848	
7045	0	32848	
7046	0	32824	
7047	0	32832	
7048	0	32836	
7049	0	32832	
7050	0	32836	
7051	0	32856	
7052	0	32876	
7053	0	32888	
7054	0	32894	
7055	0	32916	
7056	0	32964	
7057	0	32964	
7058	0	32948	
7059	0	32928	
7060	0	32908	
7061	0	32928	
7062	0	32952	
7063	0	32956	
7064	0	32960	
7065	0	32940	
7066	0	32940	
7067	0	32934	
7068	0	32940	
7069	0	32940	
7070	0	32922	
7071	0	32912	
7072	0	32908	
7073	0	32916	
7074	0	32892	
7075	0	32884	
7076	0	32888	
7077	0	32908	
7078	0	32926	
7079	0	32928	
7080	0	32928	
7081	0	32890	
7082	0	32864	
7083	0	32836	
7084	0	32808	
7085	0	32796	
7086	0	32752	
7087	0	32748	
7088	0	32756	
7089	0	32780	
7090	0	32812	
7091	0	32844	
7092	0	32844	
7093	0	32858	
7094	0	32864	
7095	0	32816	
7096	0	32800	
7097	0	32820	
7098	0	32812	
7099	0	32788	
7100	0	32756	
7101	0	32720	
7102	0	32720	
7103	0	32708	
7104	0	32668	
7105	0	32620	
7106	0	32588	
7107	0	32584	
7108	0	32602	
7109	0	32600	
7110	0	32628	
7111	0	32672	
7112	0	32664	
7113	0	32640	
7114	0	32608	
7115	0	32604	
7116	0	32640	
7117	0	32644	
7118	0	32640	
7119	0	32628	
7120	0	32596	
7121	0	32552	
7122	0	32544	
7123	0	32560	
7124	0	32556	
7125	0	32534	
7126	0	32504	
7127	0	32498	
7128	0	32496	
7129	0	32472	
7130	0	32436	
7131	0	32396	
7132	0	32352	
7133	0	32340	
7134	0	32338	
7135	0	32336	
7136	0	32336	
7137	0	32332	
7138	0	32352	
7139	0	32360	
7140	0	32354	
7141	0	32344	
7142	0	32332	
7143	0	32324	
7144	0	32332	
7145	0	32346	
7146	0	32356	
7147	0	32384	
7148	0	32408	
7149	0	32384	
7150	0	32376	
7151	0	32376	
7152	0	32380	
7153	0	32368	
7154	0	32380	
7155	0	32388	
7156	0	32388	
7157	0	32384	
7158	0	32388	
7159	0	32386	
7160	0	32386	
7161	0	32364	
7162	0	32320	
7163	0	32320	
7164	0	32320	
7165	0	32304	
7166	0	32284	
7167	0	32292	
7168	0	32344	
7169	0	32384	
7170	0	32384	
7171	0	32408	
7172	0	32404	
7173	0	32372	
7174	0	32328	
7175	0	32336	
7176	0	32340	
7177	0	32396	
7178	0	32456	
7179	0	32524	
7180	0	32532	
7181	0	32516	
7182	0	32480	
7183	0	32420	
7184	0	32396	
7185	0	32404	
7186	0	32394	
7187	0	32408	
7188	0	32400	
7189	0	32396	
7190	0	32380	
7191	0	32376	
7192	0	32404	
7193	0	32416	
7194	0	32412	
7195	0	32400	
7196	0	32376	
7197	0	32360	
7198	0	32364	
7199	0	32384	
7200	0	32424	
7201	0	32488	
7202	0	32506	
7203	0	32476	
7204	0	32436	
7205	0	32408	
7206	0	32420	
7207	0	32464	
7208	0	32492	
7209	0	32512	
7210	0	32504	
7211	0	32484	
7212	0	32456	
7213	0	32468	
7214	0	32506	
7215	0	32548	
7216	0	32544	
7217	0	32496	
7218	0	32468	
7219	0	32484	
7220	0	32480	
7221	0	32480	
7222	0	32472	
7223	0	32472	
7224	0	32512	
7225	0	32556	
7226	0	32568	
7227	0	32560	
7228	0	32540	
7229	0	32520	
7230	0	32512	
7231	0	32512	
7232	0	32528	
7233	0	32540	
7234	0	32544	
7235	0	32536	
7236	0	32532	
7237	0	32506	
7238	0	32466	
7239	0	32472	
7240	0	32524	
7241	0	32580	
7242	0	32600	
7243	0	32588	
7244	0	32588	
7245	0	32596	
7246	0	32580	
7247	0	32574	
7248	0	32572	
7249	0	32588	
7250	0	32612	
7251	0	32618	
7252	0	32622	
7253	0	32612	
7254	0	32612	
7255	0	32624	
7256	0	32616	
7257	0	32612	
7258	0	32574	
7259	0	32532	
7260	0	32524	
7261	0	32552	
7262	0	32564	
7263	0	32566	
7264	0	32580	
7265	0	32608	
7266	0	32608	
7267	0	32608	
7268	0	32584	
7269	0	32572	
7270	0	32552	
7271	0	32564	
7272	0	32556	
7273	0	32580	
7274	0	32600	
7275	0	32584	
7276	0	32552	
7277	0	32568	
7278	0	32608	
7279	0	32600	
7280	0	32600	
7281	0	32604	
7282	0	32578	
7283	0	32552	
7284	0	32536	
7285	0	32496	
7286	0	32496	
7287	0	32524	
7288	0	32568	
7289	0	32592	
7290	0	32608	
7291	0	32620	
7292	0	32640	
7293	0	32668	
7294	0	32664	
7295	0	32624	
7296	0	32564	
7297	0	32526	
7298	0	32488	
7299	0	32448	
7300	0	32484	
7301	0	32496	
7302	0	32532	
7303	0	32592	
7304	0	32608	
7305	0	32608	
7306	0	32640	
7307	0	32636	
7308	0	32608	
7309	0	32604	
7310	0	32628	
7311	0	32664	
7312	0	32688	
7313	0	32684	
7314	0	32680	
7315	0	32678	
7316	0	32704	
7317	0	32736	
7318	0	32724	
7319	0	32680	
7320	0	32640	
7321	0	32612	
7322	0	32588	
7323	0	32640	
7324	0	32652	
7325	0	32688	
7326	0	32696	
7327	0	32696	
7328	0	32680	
7329	0	32672	
7330	0	32660	
7331	0	32668	
7332	0	32680	
7333	0	32768	
7334	0	32820	
7335	0	32900	
7336	0	33016	
7337	0	33140	
7338	0	33300	
7339	0	33488	
7340	0	33684	
7341	0	33844	
7342	0	33996	
7343	0	34128	
7344	0	34240	
7345	0	34360	
7346	0	34468	
7347	0	34624	
7348	0	34760	
7349	0	34892	
7350	0	35008	
7351	0	35088	
7352	0	35116	
7353	0	35080	
7354	0	35012	
7355	0	34892	
7356	0	34748	
7357	0	34620	
7358	0	34524	
7359	0	34500	
7360	0	34572	
7361	0	34744	
7362	0	34956	
7363	0	35232	
7364	0	35528	
7365	0	35868	
7366	0	36200	
7367	0	36504	
7368	0	36844	
7369	0	37128	
7370	0	37344	
7371	0	37544	
7372	0	37700	
7373	0	37784	
7374	0	37752	
7375	0	37704	
7376	0	37600	
7377	0	37456	
7378	0	37320	
7379	0	37216	
7380	0	37104	
7381	0	36960	
7382	0	36816	
7383	0	36692	
7384	0	36592	
7385	0	36472	
7386	0	36396	
7387	0	36396	
7388	0	36408	
7389	0	36384	
7390	0	36348	
7391	0	36264	
7392	0	36156	
7393	0	36036	
7394	0	35930	
7395	0	35808	
7396	0	35660	
7397	0	35464	
7398	0	35200	
7399	0	34888	
7400	0	34524	
7401	0	34172	
7402	0	33824	
7403	0	33452	
7404	0	33044	
7405	0	32636	
7406	0	32248	
7407	0	31936	
7408	0	31688	
7409	0	31482	
7410	0	31328	
7411	0	31216	
7412	0	31162	
7413	0	31128	
7414	0	31064	
7415	0	30952	
7416	0	30824	
7417	0	30692	
7418	0	30544	
7419	0	30432	
7420	0	30340	
7421	0	30296	
7422	0	30276	
7423	0	30300	
7424	0	30304	
7425	0	30300	
7426	0	30332	
7427	0	30356	
7428	0	30350	
7429	0	30348	
7430	0	30344	
7431	0	30344	
7432	0	30328	
7433	0	30336	
7434	0	30396	
7435	0	30448	
7436	0	30472	
7437	0	30478	
7438	0	30480	
7439	0	30500	
7440	0	30512	
7441	0	30524	
7442	0	30528	
7443	0	30520	
7444	0	30532	
7445	0	30552	
7446	0	30576	
7447	0	30612	
7448	0	30656	
7449	0	30648	
7450	0	30608	
7451	0	30616	
7452	0	30624	
7453	0	30610	
7454	0	30596	
7455	0	30604	
7456	0	30580	
7457	0	30524	
7458	0	30356	
7459	0	30112	
7460	0	29672	
7461	0	28996	
7462	0	28196	
7463	0	27316	
7464	0	26408	
7465	0	25496	
7466	0	24670	
7467	0	24032	
7468	0	23632	
7469	0	23444	
7470	0	23458	
7471	0	23744	
7472	0	24272	
7473	0	24914	
7474	0	25598	
7475	0	26628	
7476	0	28256	
7477	0	30356	
7478	0	32880	
7479	0	35528	
7480	0	38360	
7481	0	41440	
7482	0	44812	
7483	0	48664	
7484	0	52760	
7485	0	57168	
7486	0	60780	
7487	0	62772	
7488	0	63792	
7489	0	64296	
7490	0	64516	
7491	0	64568	
7492	0	64544	
7493	0	64472	
7494	0	64384	
7495	0	64264	
7496	0	64148	
7497	0	64044	
7498	0	59152	
7499	0	53040	
7500	0	48248	
7501	0	44048	
7502	0	39640	
7503	0	35272	
7504	0	31532	
7505	0	28488	
7506	0	25864	
7507	0	23532	
7508	0	21640	
7509	0	20120	
7510	0	18924	
7511	0	18008	
7512	0	17320	
7513	0	16810	
7514	0	16448	
7515	0	16172	
7516	0	15946	
7517	0	15972	
7518	0	16204	
7519	0	16698	
7520	0	17304	
7521	0	17968	
7522	0	18598	
7523	0	19208	
7524	0	19826	
7525	0	20432	
7526	0	21060	
7527	0	21672	
7528	0	22236	
7529	0	22780	
7530	0	23386	
7531	0	24072	
7532	0	24800	
7533	0	25458	
7534	0	26024	
7535	0	26536	
7536	0	26968	
7537	0	27338	
7538	0	27680	
7539	0	27972	
7540	0	28192	
7541	0	28344	
7542	0	28500	
7543	0	28636	
7544	0	28780	
7545	0	28880	
7546	0	28948	
7547	0	29026	
7548	0	29096	
7549	0	29156	
7550	0	29232	
7551	0	29308	
7552	0	29356	
7553	0	29372	
7554	0	29388	
7555	0	29442	
7556	0	29520	
7557	0	29576	
7558	0	29632	
7559	0	29684	
7560	0	29700	
7561	0	29744	
7562	0	29792	
7563	0	29856	
7564	0	29920	
7565	0	29996	
7566	0	30032	
7567	0	30064	
7568	0	30094	
7569	0	30132	
7570	0	30184	
7571	0	30244	
7572	0	30288	
7573	0	30332	
7574	0	30376	
7575	0	30424	
7576	0	30452	
7577	0	30492	
7578	0	30524	
7579	0	30556	
7580	0	30624	
7581	0	30668	
7582	0	30728	
7583	0	30744	
7584	0	30772	
7585	0	30824	
7586	0	30912	
7587	0	30952	
7588	0	30984	
7589	0	31032	
7590	0	31084	
7591	0	31122	
7592	0	31156	
7593	0	31186	
7594	0	31216	
7595	0	31248	
7596	0	31296	
7597	0	31336	
7598	0	31364	
7599	0	31360	
7600	0	31328	
7601	0	31348	
7602	0	31408	
7603	0	31460	
7604	0	31508	
7605	0	31552	
7606	0	31600	
7607	0	31608	
7608	0	31616	
7609	0	31688	
7610	0	31736	
7611	0	31776	
7612	0	31840	
7613	0	31876	
7614	0	31928	
7615	0	31940	
7616	0	31912	
7617	0	31908	
7618	0	31940	
7619	0	31968	
7620	0	31996	
7621	0	32012	
7622	0	32040	
7623	0	32088	
7624	0	32124	
7625	0	32130	
7626	0	32156	
7627	0	32164	
7628	0	32186	
7629	0	32208	
7630	0	32274	
7631	0	32314	
7632	0	32352	
7633	0	32388	
7634	0	32410	
7635	0	32440	
7636	0	32440	
7637	0	32468	
7638	0	32516	
7639	0	32552	
7640	0	32576	
7641	0	32624	
7642	0	32660	
7643	0	32688	
7644	0	32708	
7645	0	32716	
7646	0	32712	
7647	0	32732	
7648	0	32732	
7649	0	32744	
7650	0	32756	
7651	0	32736	
7652	0	32724	
7653	0	32740	
7654	0	32784	
7655	0	32810	
7656	0	32892	
7657	0	32936	
7658	0	32960	
7659	0	32980	
7660	0	32976	
7661	0	33004	
7662	0	33050	
7663	0	33108	
7664	0	33180	
7665	0	33196	
7666	0	33172	
7667	0	33164	
7668	0	33200	
7669	0	33264	
7670	0	33312	
7671	0	33336	
7672	0	33320	
7673	0	33328	
7674	0	33344	
7675	0	33356	
7676	0	33352	
7677	0	33360	
7678	0	33354	
7679	0	33392	
7680	0	33428	
7681	0	33468	
7682	0	33472	
7683	0	33500	
7684	0	33524	
7685	0	33584	
7686	0	33688	
7687	0	33760	
7688	0	33824	
7689	0	33856	
7690	0	33866	
7691	0	33884	
7692	0	33876	
7693	0	33896	
7694	0	33896	
7695	0	33904	
7696	0	33932	
7697	0	33952	
7698	0	33980	
7699	0	34032	
7700	0	34076	
7701	0	34088	
7702	0	34104	
7703	0	34104	
7704	0	34096	
7705	0	34116	
7706	0	34144	
7707	0	34168	
7708	0	34208	
7709	0	34248	
7710	0	34284	
7711	0	34264	
7712	0	34276	
7713	0	34272	
7714	0	34248	
7715	0	34212	
7716	0	34188	
7717	0	34188	
7718	0	34228	
7719	0	34244	
7720	0	34252	
7721	0	34272	
7722	0	34276	
7723	0	34316	
7724	0	34328	
7725	0	34308	
7726	0	34284	
7727	0	34268	
7728	0	34232	
7729	0	34192	
7730	0	34144	
7731	0	34104	
7732	0	34040	
7733	0	33984	
7734	0	33918	
7735	0	33826	
7736	0	33748	
7737	0	33688	
7738	0	33600	
7739	0	33508	
7740	0	33424	
7741	0	33336	
7742	0	33256	
7743	0	33172	
7744	0	33080	
7745	0	32996	
7746	0	32922	
7747	0	32856	
7748	0	32794	
7749	0	32748	
7750	0	32696	
7751	0	32660	
7752	0	32612	
7753	0	32512	
7754	0	32444	
7755	0	32396	
7756	0	32348	
7757	0	32304	
7758	0	32256	
7759	0	32208	
7760	0	32168	
7761	0	32128	
7762	0	32058	
7763	0	31980	
7764	0	31886	
7765	0	31804	
7766	0	31732	
7767	0	31672	
7768	0	31600	
7769	0	31544	
7770	0	31488	
7771	0	31424	
7772	0	31364	
7773	0	31292	
7774	0	31192	
7775	0	31136	
7776	0	31088	
7777	0	31072	
7778	0	31068	
7779	0	31084	
7780	0	31096	
7781	0	31100	
7782	0	31088	
7783	0	31072	
7784	0	31056	
7785	0	31048	
7786	0	31056	
7787	0	31050	
7788	0	31064	
7789	0	31068	
7790	0	31028	
7791	0	31016	
7792	0	30996	
7793	0	30996	
7794	0	31032	
7795	0	31044	
7796	0	31002	
7797	0	30960	
7798	0	30956	
7799	0	30932	
7800	0	30916	
7801	0	30916	
7802	0	30916	
7803	0	30908	
7804	0	30888	
7805	0	30868	
7806	0	30880	
7807	0	30912	
7808	0	30932	
7809	0	30908	
7810	0	30912	
7811	0	30948	
7812	0	30952	
7813	0	30946	
7814	0	30928	
7815	0	30912	
7816	0	30940	
7817	0	30964	
7818	0	31000	
7819	0	31012	
7820	0	31028	
7821	0	31060	
7822	0	31096	
7823	0	31080	
7824	0	31060	
7825	0	31060	
7826	0	31072	
7827	0	31088	
7828	0	31128	
7829	0	31136	
7830	0	31148	
7831	0	31152	
7832	0	31184	
7833	0	31228	
7834	0	31260	
7835	0	31308	
7836	0	31344	
7837	0	31372	
7838	0	31392	
7839	0	31444	
7840	0	31496	
7841	0	31548	
7842	0	31584	
7843	0	31608	
7844	0	31616	
7845	0	31632	
7846	0	31660	
7847	0	31702	
7848	0	31744	
7849	0	31776	
7850	0	31788	
7851	0	31776	
7852	0	31792	
7853	0	31824	
7854	0	31834	
7855	0	31836	
7856	0	31840	
7857	0	31848	
7858	0	31844	
7859	0	31848	
7860	0	31900	
7861	0	31936	
7862	0	31968	
7863	0	32026	
7864	0	32040	
7865	0	32065	
7866	0	32100	
7867	0	32128	
7868	0	32160	
7869	0	32220	
7870	0	32260	
7871	0	32272	
7872	0	32264	
7873	0	32260	
7874	0	32268	
7875	0	32256	
7876	0	32256	
7877	0	32260	
7878	0	32272	
7879	0	32304	
7880	0	32320	
7881	0	32356	
7882	0	32400	
7883	0	32416	
7884	0	32416	
7885	0	32416	
7886	0	32416	
7887	0	32424	
7888	0	32440	
7889	0	32452	
7890	0	32452	
7891	0	32452	
7892	0	32452	
7893	0	32472	
7894	0	32512	
7895	0	32546	
7896	0	32568	
7897	0	32572	
7898	0	32608	
7899	0	32644	
7900	0	32632	
7901	0	32612	
7902	0	32576	
7903	0	32556	
7904	0	32570	
7905	0	32564	
7906	0	32560	
7907	0	32548	
7908	0	32580	
7909	0	32592	
7910	0	32604	
7911	0	32588	
7912	0	32572	
7913	0	32546	
7914	0	32528	
7915	0	32488	
7916	0	32500	
7917	0	32524	
7918	0	32524	
7919	0	32536	
7920	0	32520	
7921	0	32456	
7922	0	32408	
7923	0	32384	
7924	0	32348	
7925	0	32312	
7926	0	32284	
7927	0	32288	
7928	0	32298	
7929	0	32284	
7930	0	32248	
7931	0	32260	
7932	0	32248	
7933	0	32276	
7934	0	32272	
7935	0	32268	
7936	0	32268	
7937	0	32236	
7938	0	32164	
7939	0	32112	
7940	0	32082	
7941	0	32090	
7942	0	32112	
7943	0	32112	
7944	0	32100	
7945	0	32096	
7946	0	32074	
7947	0	32076	
7948	0	32080	
7949	0	32080	
7950	0	32092	
7951	0	32122	
7952	0	32132	
7953	0	32116	
7954	0	32112	
7955	0	32092	
7956	0	32084	
7957	0	32068	
7958	0	32044	
7959	0	32020	
7960	0	31972	
7961	0	31964	
7962	0	31962	
7963	0	31944	
7964	0	31944	
7965	0	31948	
7966	0	31960	
7967	0	31944	
7968	0	31956	
7969	0	31968	
7970	0	31980	
7971	0	31992	
7972	0	32000	
7973	0	32008	
7974	0	31992	
7975	0	31968	
7976	0	31946	
7977	0	31936	
7978	0	31944	
7979	0	31948	
7980	0	31952	
7981	0	31940	
7982	0	31912	
7983	0	31888	
7984	0	31872	
7985	0	31852	
7986	0	31820	
7987	0	31796	
7988	0	31784	
7989	0	31776	
7990	0	31768	
7991	0	31760	
7992	0	31748	
7993	0	31744	
7994	0	31768	
7995	0	31812	
7996	0	31808	
7997	0	31796	
7998	0	31764	
7999	0	31732	
8000	0	31728	
8001	0	31740	
8002	0	31732	
8003	0	31730	
8004	0	31768	
8005	0	31800	
8006	0	31820	
8007	0	31832	
8008	0	31808	
8009	0	31776	
8010	0	31768	
8011	0	31776	
8012	0	31776	
8013	0	31752	
8014	0	31728	
8015	0	31736	
8016	0	31756	
8017	0	31792	
8018	0	31816	
8019	0	31808	
8020	0	31800	
8021	0	31796	
8022	0	31792	
8023	0	31788	
8024	0	31788	
8025	0	31808	
8026	0	31860	
8027	0	31898	
8028	0	31872	
8029	0	31832	
8030	0	31820	
8031	0	31792	
8032	0	31800	
8033	0	31784	
8034	0	31752	
8035	0	31744	
8036	0	31748	
8037	0	31764	
8038	0	31780	
8039	0	31780	
8040	0	31792	
8041	0	31800	
8042	0	31808	
8043	0	31816	
8044	0	31824	
8045	0	31800	
8046	0	31772	
8047	0	31756	
8048	0	31768	
8049	0	31756	
8050	0	31730	
8051	0	31744	
8052	0	31778	
8053	0	31788	
8054	0	31820	
8055	0	31872	
8056	0	31900	
8057	0	31904	
8058	0	31932	
8059	0	31916	
8060	0	31908	
8061	0	31888	
8062	0	31868	
8063	0	31860	
8064	0	31896	
8065	0	31904	
8066	0	31924	
8067	0	31944	
8068	0	31956	
8069	0	31986	
8070	0	31976	
8071	0	31980	
8072	0	31946	
8073	0	31970	
8074	0	31982	
8075	0	31984	
8076	0	32000	
8077	0	32028	
8078	0	32032	
8079	0	31994	
8080	0	31952	
8081	0	31936	
8082	0	31936	
8083	0	31936	
8084	0	31956	
8085	0	31972	
8086	0	31968	
8087	0	31940	
8088	0	31952	
8089	0	31972	
8090	0	31992	
8091	0	32024	
8092	0	32064	
8093	0	32100	
8094	0	32096	
8095	0	32072	
8096	0	32020	
8097	0	32020	
8098	0	32024	
8099	0	32016	
8100	0	32024	
8101	0	32024	
8102	0	32012	
8103	0	31984	
8104	0	31984	
8105	0	31996	
8106	0	32000	
8107	0	32020	
8108	0	32056	
8109	0	32080	
8110	0	32136	
8111	0	32172	
8112	0	32188	
8113	0	32176	
8114	0	32136	
8115	0	32096	
8116	0	32088	
8117	0	32064	
8118	0	32056	
8119	0	32080	
8120	0	32124	
8121	0	32176	
8122	0	32208	
8123	0	32224	
8124	0	32212	
8125	0	32194	
8126	0	32188	
8127	0	32196	
8128	0	32216	
8129	0	32232	
8130	0	32272	
8131	0	32332	
8132	0	32400	
8133	0	32464	
8134	0	32572	
8135	0	32732	
8136	0	32936	
8137	0	33136	
8138	0	33312	
8139	0	33444	
8140	0	33576	
8141	0	33692	
8142	0	33824	
8143	0	34016	
8144	0	34212	
8145	0	34368	
8146	0	34530	
8147	0	34624	
8148	0	34684	
8149	0	34700	
8150	0	34680	
8151	0	34616	
8152	0	34496	
8153	0	34396	
8154	0	34316	
8155	0	34272	
8156	0	34244	
8157	0	34282	
8158	0	34400	
8159	0	34556	
8160	0	34808	
8161	0	35096	
8162	0	35392	
8163	0	35708	
8164	0	35988	
8165	0	36328	
8166	0	36664	
8167	0	36924	
8168	0	37128	
8169	0	37280	
8170	0	37344	
8171	0	37376	
8172	0	37364	
8173	0	37308	
8174	0	37212	
8175	0	37088	
8176	0	36984	
8177	0	36872	
8178	0	36784	
8179	0	36676	
8180	0	36540	
8181	0	36416	
8182	0	36316	
8183	0	36268	
8184	0	36304	
8185	0	36312	
8186	0	36236	
8187	0	36120	
8188	0	35992	
8189	0	35916	
8190	0	35846	
8191	0	35784	
8192	0	35720	
8193	0	35612	
8194	0	35440	
8195	0	35172	
8196	0	34768	
8197	0	34308	
8198	0	33912	
8199	0	33584	
8200	0	33186	
8201	0	32720	
8202	0	32288	
8203	0	31872	
8204	0	31564	
8205	0	31360	
8206	0	31236	
8207	0	31128	
8208	0	31040	
8209	0	31000	
8210	0	30912	
8211	0	30828	
8212	0	30732	
8213	0	30612	
8214	0	30480	
8215	0	30368	
8216	0	30280	
8217	0	30188	
8218	0	30168	
8219	0	30180	
8220	0	30152	
8221	0	30152	
8222	0	30152	
8223	0	30192	
8224	0	30216	
8225	0	30210	
8226	0	30220	
8227	0	30236	
8228	0	30224	
8229	0	30240	
8230	0	30278	
8231	0	30316	
8232	0	30336	
8233	0	30342	
8234	0	30332	
8235	0	30348	
8236	0	30340	
8237	0	30356	
8238	0	30384	
8239	0	30402	
8240	0	30412	
8241	0	30452	
8242	0	30488	
8243	0	30554	
8244	0	30602	
8245	0	30632	
8246	0	30644	
8247	0	30692	
8248	0	30726	
8249	0	30760	
8250	0	30784	
8251	0	30760	
8252	0	30720	
8253	0	30632	
8254	0	30532	
8255	0	30348	
8256	0	30010	
8257	0	29472	
8258	0	28736	
8259	0	27884	
8260	0	27016	
8261	0	26170	
8262	0	25380	
8263	0	24748	
8264	0	24320	
8265	0	24100	
8266	0	24020	
8267	0	24160	
8268	0	24572	
8269	0	25212	
8270	0	25984	
8271	0	26932	
8272	0	28312	
8273	0	30232	
8274	0	32584	
8275	0	35232	
8276	0	38032	
8277	0	41008	
8278	0	44212	
8279	0	47840	
8280	0	51828	
8281	0	56000	
8282	0	60296	
8283	0	63220	
8284	0	64808	
8285	0	65535	
8286	0	65535	
8287	0	65535	
8288	0	65535	
8289	0	65535	
8290	0	65535	
8291	0	65535	
8292	0	65535	
8293	0	65535	
8294	0	60896	
8295	0	54464	
8296	0	49172	
8297	0	44736	
8298	0	40464	
8299	0	36212	
8300	0	32492	
8301	0	29428	
8302	0	26908	
8303	0	24672	
8304	0	22688	
8305	0	21002	
8306	0	19596	
8307	0	18442	
8308	0	17456	
8309	0	16792	
8310	0	16396	
8311	0	16052	
8312	0	15698	
8313	0	15504	
8314	0	15592	
8315	0	16016	
8316	0	16666	
8317	0	17336	
8318	0	17966	
8319	0	18616	
8320	0	19312	
8321	0	20028	
8322	0	20688	
8323	0	21352	
8324	0	22020	
8325	0	22674	
8326	0	23290	
8327	0	23944	
8328	0	24648	
8329	0	25372	
8330	0	26036	
8331	0	26600	
8332	0	27096	
8333	0	27516	
8334	0	27864	
8335	0	28208	
8336	0	28502	
8337	0	28740	
8338	0	28940	
8339	0	29096	
8340	0	29220	
8341	0	29300	
8342	0	29380	
8343	0	29492	
8344	0	29570	
8345	0	29636	
8346	0	29712	
8347	0	29810	
8348	0	29876	
8349	0	29960	
8350	0	30008	
8351	0	30040	
8352	0	30096	
8353	0	30176	
8354	0	30252	
8355	0	30324	
8356	0	30364	
8357	0	30428	
8358	0	30524	
8359	0	30616	
8360	0	30692	
8361	0	30744	
8362	0	30800	
8363	0	30872	
8364	0	30956	
8365	0	31032	
8366	0	31080	
8367	0	31128	
8368	0	31160	
8369	0	31180	
8370	0	31208	
8371	0	31236	
8372	0	31284	
8373	0	31352	
8374	0	31392	
8375	0	31440	
8376	0	31469	
8377	0	31504	
8378	0	31552	
8379	0	31612	
8380	0	31672	
8381	0	31716	
8382	0	31792	
8383	0	31844	
8384	0	31888	
8385	0	31924	
8386	0	31964	
8387	0	31984	
8388	0	32024	
8389	0	32056	
8390	0	32064	
8391	0	32092	
8392	0	32156	
8393	0	32244	
8394	0	32304	
8395	0	32320	
8396	0	32362	
8397	0	32376	
8398	0	32410	
8399	0	32456	
8400	0	32480	
8401	0	32524	
8402	0	32568	
8403	0	32628	
8404	0	32680	
8405	0	32724	
8406	0	32778	
8407	0	32820	
8408	0	32848	
8409	0	32856	
8410	0	32836	
8411	0	32844	
8412	0	32834	
8413	0	32856	
8414	0	32880	
8415	0	32932	
8416	0	32956	
8417	0	33004	
8418	0	33044	
8419	0	33084	
8420	0	33152	
8421	0	33232	
8422	0	33264	
8423	0	33292	
8424	0	33292	
8425	0	33284	
8426	0	33264	
8427	0	33288	
8428	0	33320	
8429	0	33376	
8430	0	33416	
8431	0	33440	
8432	0	33472	
8433	0	33508	
8434	0	33538	
8435	0	33552	
8436	0	33568	
8437	0	33594	
8438	0	33648	
8439	0	33704	
8440	0	33696	
8441	0	33728	
8442	0	33728	
8443	0	33756	
8444	0	33760	
8445	0	33776	
8446	0	33754	
8447	0	33776	
8448	0	33824	
8449	0	33888	
8450	0	33952	
8451	0	33976	
8452	0	33990	
8453	0	34016	
8454	0	34064	
8455	0	34100	
8456	0	34122	
8457	0	34132	
8458	0	34152	
8459	0	34168	
8460	0	34208	
8461	0	34248	
8462	0	34292	
8463	0	34328	
8464	0	34372	
8465	0	34420	
8466	0	34436	
8467	0	34428	
8468	0	34448	
8469	0	34480	
8470	0	34536	
8471	0	34560	
8472	0	34592	
8473	0	34624	
8474	0	34660	
8475	0	34668	
8476	0	34684	
8477	0	34696	
8478	0	34720	
8479	0	34748	
8480	0	34780	
8481	0	34808	
8482	0	34852	
8483	0	34904	
8484	0	34976	
8485	0	35026	
8486	0	35068	
8487	0	35068	
8488	0	35068	
8489	0	35072	
8490	0	35088	
8491	0	35120	
8492	0	35128	
8493	0	35136	
8494	0	35172	
8495	0	35220	
8496	0	35266	
8497	0	35264	
8498	0	35280	
8499	0	35304	
8500	0	35308	
8501	0	35296	
8502	0	35312	
8503	0	35316	
8504	0	35324	
8505	0	35328	
8506	0	35380	
8507	0	35392	
8508	0	35384	
8509	0	35368	
8510	0	35352	
8511	0	35360	
8512	0	35372	
8513	0	35352	
8514	0	35372	
8515	0	35392	
8516	0	35392	
8517	0	35360	
8518	0	35336	
8519	0	35368	
8520	0	35364	
8521	0	35328	
8522	0	35284	
8523	0	35276	
8524	0	35248	
8525	0	35168	
8526	0	35076	
8527	0	34976	
8528	0	34872	
8529	0	34786	
8530	0	34704	
8531	0	34640	
8532	0	34584	
8533	0	34492	
8534	0	34420	
8535	0	34328	
8536	0	34240	
8537	0	34176	
8538	0	34112	
8539	0	34032	
8540	0	33932	
8541	0	33864	
8542	0	33772	
8543	0	33708	
8544	0	33666	
8545	0	33632	
8546	0	33584	
8547	0	33504	
8548	0	33436	
8549	0	33338	
8550	0	33256	
8551	0	33194	
8552	0	33140	
8553	0	33100	
8554	0	33068	
8555	0	33016	
8556	0	32960	
8557	0	32904	
8558	0	32832	
8559	0	32780	
8560	0	32724	
8561	0	32680	
8562	0	32608	
8563	0	32560	
8564	0	32540	
8565	0	32496	
8566	0	32440	
8567	0	32420	
8568	0	32384	
8569	0	32332	
8570	0	32272	
8571	0	32232	
8572	0	32176	
8573	0	32160	
8574	0	32152	
8575	0	32124	
8576	0	32100	
8577	0	32082	
8578	0	32048	
8579	0	32052	
8580	0	32088	
8581	0	32120	
8582	0	32096	
8583	0	32068	
8584	0	32028	
8585	0	31968	
8586	0	31948	
8587	0	31984	
8588	0	31996	
8589	0	31960	
8590	0	31944	
8591	0	31944	
