# OpenSignals Text File Format. Version 1
# {"00:07:80:4B:15:F7": {"position": 0, "device": "biosignalsplux", "device name": "00:07:80:4B:15:F7", "device connection": "BTH00:07:80:4B:15:F7", "sampling rate": 1000, "resolution": [16], "firmware version": 775, "comments": "", "keywords": "", "mode": 0, "sync interval": 2, "date": "2023-4-12", "time": "14:58:32.541", "channels": [1], "sensor": ["ECG"], "label": ["CH1"], "column": ["nSeq", "DI", "CH1"], "special": [{"SpO2": [80, 40, 5, 4, 3, 3]}, {"SpO2": [80, 40, 5, 4, 3, 3]}, {"SpO2": [80, 40, 5, 4, 3, 3]}, {"SpO2": [80, 40, 5, 4, 3, 3]}, {"SpO2": [80, 40, 5, 4, 3, 3]}, {"SpO2": [80, 40, 5, 4, 3, 3]}, {"SpO2": [80, 40, 5, 4, 3, 3]}, {"SpO2": [80, 40, 5, 4, 3, 3]}], "digital IO": [0, 1], "sleeve color": ["green"], "convertedValues": 0}}
# EndOfHeader
0	0	31036	
1	0	30984	
2	0	30932	
3	0	30894	
4	0	30906	
5	0	30928	
6	0	30920	
7	0	30944	
8	0	30950	
9	0	30980	
10	0	31040	
11	0	31084	
12	0	31114	
13	0	31112	
14	0	31112	
15	0	31152	
16	0	31240	
17	0	31336	
18	0	31392	
19	0	31424	
20	0	31428	
21	0	31460	
22	0	31460	
23	0	31394	
24	0	31340	
25	0	31360	
26	0	31402	
27	0	31440	
28	0	31500	
29	0	31540	
30	0	31504	
31	0	31440	
32	0	31386	
33	0	31412	
34	0	31408	
35	0	31424	
36	0	31492	
37	0	31508	
38	0	31476	
39	0	31528	
40	0	31620	
41	0	31678	
42	0	31654	
43	0	31644	
44	0	31592	
45	0	31604	
46	0	31672	
47	0	31720	
48	0	31760	
49	0	31752	
50	0	31712	
51	0	31680	
52	0	31700	
53	0	31752	
54	0	31760	
55	0	31732	
56	0	31768	
57	0	31824	
58	0	31896	
59	0	31916	
60	0	31932	
61	0	31964	
62	0	32028	
63	0	32064	
64	0	32112	
65	0	32148	
66	0	32228	
67	0	32376	
68	0	32580	
69	0	32748	
70	0	32864	
71	0	32976	
72	0	33088	
73	0	33194	
74	0	33252	
75	0	33248	
76	0	33228	
77	0	33248	
78	0	33312	
79	0	33388	
80	0	33428	
81	0	33496	
82	0	33600	
83	0	33684	
84	0	33784	
85	0	33852	
86	0	33896	
87	0	33936	
88	0	34004	
89	0	34100	
90	0	34212	
91	0	34320	
92	0	34450	
93	0	34604	
94	0	34704	
95	0	34748	
96	0	34728	
97	0	34680	
98	0	34656	
99	0	34660	
100	0	34712	
101	0	34756	
102	0	34796	
103	0	34864	
104	0	34900	
105	0	34868	
106	0	34808	
107	0	34752	
108	0	34660	
109	0	34556	
110	0	34528	
111	0	34524	
112	0	34384	
113	0	34176	
114	0	33984	
115	0	33756	
116	0	33500	
117	0	33328	
118	0	33240	
119	0	33164	
120	0	33084	
121	0	32992	
122	0	32968	
123	0	32940	
124	0	32916	
125	0	32888	
126	0	32894	
127	0	32936	
128	0	32920	
129	0	32920	
130	0	32936	
131	0	32916	
132	0	32868	
133	0	32764	
134	0	32640	
135	0	32458	
136	0	32282	
137	0	32184	
138	0	32160	
139	0	32112	
140	0	32026	
141	0	31888	
142	0	31740	
143	0	31536	
144	0	31400	
145	0	31312	
146	0	31168	
147	0	31000	
148	0	30864	
149	0	30796	
150	0	30704	
151	0	30672	
152	0	30724	
153	0	30706	
154	0	30712	
155	0	30696	
156	0	30712	
157	0	30704	
158	0	30664	
159	0	30624	
160	0	30656	
161	0	30700	
162	0	30744	
163	0	30724	
164	0	30780	
165	0	30816	
166	0	30772	
167	0	30752	
168	0	30724	
169	0	30722	
170	0	30756	
171	0	30816	
172	0	30840	
173	0	30848	
174	0	30816	
175	0	30844	
176	0	30872	
177	0	30888	
178	0	30912	
179	0	30916	
180	0	30900	
181	0	30872	
182	0	30880	
183	0	30900	
184	0	30912	
185	0	30928	
186	0	30944	
187	0	30972	
188	0	31000	
189	0	31016	
190	0	31026	
191	0	31052	
192	0	31072	
193	0	31124	
194	0	31176	
195	0	31248	
196	0	31276	
197	0	31252	
198	0	31264	
199	0	31276	
200	0	31292	
201	0	31340	
202	0	31360	
203	0	31312	
204	0	31248	
205	0	31120	
206	0	30940	
207	0	30732	
208	0	30500	
209	0	30332	
210	0	30272	
211	0	30316	
212	0	30376	
213	0	30528	
214	0	30820	
215	0	31306	
216	0	31976	
217	0	32764	
218	0	33696	
219	0	34836	
220	0	36092	
221	0	37464	
222	0	39028	
223	0	40804	
224	0	42618	
225	0	44432	
226	0	46224	
227	0	48040	
228	0	49844	
229	0	51612	
230	0	53240	
231	0	54720	
232	0	56168	
233	0	57500	
234	0	58736	
235	0	59900	
236	0	60960	
237	0	61884	
238	0	62568	
239	0	62912	
240	0	62632	
241	0	61340	
242	0	59132	
243	0	55992	
244	0	52240	
245	0	48408	
246	0	44440	
247	0	40064	
248	0	35232	
249	0	30824	
250	0	27528	
251	0	25478	
252	0	24456	
253	0	24090	
254	0	24130	
255	0	24456	
256	0	24764	
257	0	24978	
258	0	25236	
259	0	25584	
260	0	25972	
261	0	26414	
262	0	26896	
263	0	27338	
264	0	27764	
265	0	28148	
266	0	28496	
267	0	28880	
268	0	29212	
269	0	29452	
270	0	29632	
271	0	29780	
272	0	29856	
273	0	29896	
274	0	29856	
275	0	29772	
276	0	29756	
277	0	29744	
278	0	29648	
279	0	29560	
280	0	29512	
281	0	29444	
282	0	29360	
283	0	29264	
284	0	29288	
285	0	29376	
286	0	29420	
287	0	29452	
288	0	29480	
289	0	29476	
290	0	29440	
291	0	29428	
292	0	29440	
293	0	29456	
294	0	29476	
295	0	29496	
296	0	29496	
297	0	29548	
298	0	29584	
299	0	29612	
300	0	29680	
301	0	29724	
302	0	29760	
303	0	29768	
304	0	29784	
305	0	29808	
306	0	29874	
307	0	29952	
308	0	29992	
309	0	30008	
310	0	30016	
311	0	30036	
312	0	30056	
313	0	30064	
314	0	30100	
315	0	30156	
316	0	30236	
317	0	30348	
318	0	30396	
319	0	30416	
320	0	30456	
321	0	30504	
322	0	30530	
323	0	30600	
324	0	30604	
325	0	30586	
326	0	30612	
327	0	30672	
328	0	30728	
329	0	30768	
330	0	30834	
331	0	30892	
332	0	30944	
333	0	30976	
334	0	31008	
335	0	31040	
336	0	31032	
337	0	31012	
338	0	31000	
339	0	31056	
340	0	31096	
341	0	31112	
342	0	31156	
343	0	31200	
344	0	31240	
345	0	31292	
346	0	31346	
347	0	31404	
348	0	31456	
349	0	31516	
350	0	31568	
351	0	31616	
352	0	31616	
353	0	31584	
354	0	31604	
355	0	31672	
356	0	31762	
357	0	31824	
358	0	31844	
359	0	31844	
360	0	31834	
361	0	31824	
362	0	31868	
363	0	31936	
364	0	31988	
365	0	32044	
366	0	32064	
367	0	32116	
368	0	32152	
369	0	32200	
370	0	32268	
371	0	32324	
372	0	32380	
373	0	32440	
374	0	32488	
375	0	32520	
376	0	32544	
377	0	32564	
378	0	32580	
379	0	32620	
380	0	32688	
381	0	32708	
382	0	32706	
383	0	32760	
384	0	32800	
385	0	32828	
386	0	32840	
387	0	32912	
388	0	32944	
389	0	32980	
390	0	33036	
391	0	33056	
392	0	33084	
393	0	33168	
394	0	33240	
395	0	33312	
396	0	33402	
397	0	33460	
398	0	33532	
399	0	33560	
400	0	33608	
401	0	33652	
402	0	33668	
403	0	33756	
404	0	33848	
405	0	33868	
406	0	33868	
407	0	33904	
408	0	33976	
409	0	34040	
410	0	34104	
411	0	34152	
412	0	34200	
413	0	34224	
414	0	34264	
415	0	34340	
416	0	34452	
417	0	34540	
418	0	34612	
419	0	34652	
420	0	34712	
421	0	34756	
422	0	34792	
423	0	34888	
424	0	34968	
425	0	35048	
426	0	35084	
427	0	35116	
428	0	35172	
429	0	35176	
430	0	35228	
431	0	35272	
432	0	35336	
433	0	35368	
434	0	35460	
435	0	35580	
436	0	35652	
437	0	35716	
438	0	35768	
439	0	35836	
440	0	35880	
441	0	35904	
442	0	35940	
443	0	35984	
444	0	36032	
445	0	36104	
446	0	36128	
447	0	36136	
448	0	36138	
449	0	36176	
450	0	36216	
451	0	36314	
452	0	36396	
453	0	36424	
454	0	36396	
455	0	36368	
456	0	36372	
457	0	36384	
458	0	36448	
459	0	36468	
460	0	36482	
461	0	36552	
462	0	36572	
463	0	36584	
464	0	36588	
465	0	36580	
466	0	36600	
467	0	36612	
468	0	36656	
469	0	36660	
470	0	36656	
471	0	36660	
472	0	36632	
473	0	36608	
474	0	36556	
475	0	36484	
476	0	36412	
477	0	36328	
478	0	36236	
479	0	36130	
480	0	36012	
481	0	35864	
482	0	35712	
483	0	35584	
484	0	35504	
485	0	35384	
486	0	35284	
487	0	35160	
488	0	34984	
489	0	34812	
490	0	34640	
491	0	34460	
492	0	34288	
493	0	34116	
494	0	33920	
495	0	33768	
496	0	33592	
497	0	33468	
498	0	33316	
499	0	33148	
500	0	32972	
501	0	32832	
502	0	32688	
503	0	32520	
504	0	32344	
505	0	32216	
506	0	32136	
507	0	31972	
508	0	31844	
509	0	31698	
510	0	31540	
511	0	31388	
512	0	31288	
513	0	31188	
514	0	31104	
515	0	31052	
516	0	30956	
517	0	30856	
518	0	30796	
519	0	30704	
520	0	30608	
521	0	30552	
522	0	30512	
523	0	30434	
524	0	30372	
525	0	30362	
526	0	30320	
527	0	30304	
528	0	30284	
529	0	30252	
530	0	30200	
531	0	30132	
532	0	30108	
533	0	30068	
534	0	30028	
535	0	30032	
536	0	30092	
537	0	30124	
538	0	30122	
539	0	30112	
540	0	30137	
541	0	30164	
542	0	30216	
543	0	30240	
544	0	30240	
545	0	30248	
546	0	30240	
547	0	30192	
548	0	30156	
549	0	30144	
550	0	30084	
551	0	30084	
552	0	30092	
553	0	30116	
554	0	30148	
555	0	30196	
556	0	30220	
557	0	30232	
558	0	30224	
559	0	30212	
560	0	30244	
561	0	30292	
562	0	30304	
563	0	30348	
564	0	30400	
565	0	30392	
566	0	30408	
567	0	30442	
568	0	30496	
569	0	30588	
570	0	30640	
571	0	30640	
572	0	30604	
573	0	30612	
574	0	30692	
575	0	30788	
576	0	30808	
577	0	30796	
578	0	30816	
579	0	30824	
580	0	30856	
581	0	30888	
582	0	30904	
583	0	30920	
584	0	30912	
585	0	30910	
586	0	30948	
587	0	30968	
588	0	30970	
589	0	30976	
590	0	30984	
591	0	31050	
592	0	31132	
593	0	31144	
594	0	31124	
595	0	31140	
596	0	31150	
597	0	31132	
598	0	31104	
599	0	31092	
600	0	31152	
601	0	31176	
602	0	31148	
603	0	31144	
604	0	31180	
605	0	31258	
606	0	31310	
607	0	31344	
608	0	31358	
609	0	31388	
610	0	31436	
611	0	31436	
612	0	31440	
613	0	31412	
614	0	31424	
615	0	31456	
616	0	31504	
617	0	31504	
618	0	31472	
619	0	31474	
620	0	31496	
621	0	31524	
622	0	31556	
623	0	31600	
624	0	31632	
625	0	31648	
626	0	31664	
627	0	31656	
628	0	31640	
629	0	31652	
630	0	31688	
631	0	31728	
632	0	31706	
633	0	31676	
634	0	31688	
635	0	31704	
636	0	31692	
637	0	31688	
638	0	31700	
639	0	31696	
640	0	31700	
641	0	31724	
642	0	31756	
643	0	31764	
644	0	31772	
645	0	31768	
646	0	31816	
647	0	31812	
648	0	31846	
649	0	31912	
650	0	31920	
651	0	31916	
652	0	31944	
653	0	31948	
654	0	31904	
655	0	31888	
656	0	31868	
657	0	31912	
658	0	31944	
659	0	31984	
660	0	32072	
661	0	32192	
662	0	32244	
663	0	32304	
664	0	32428	
665	0	32648	
666	0	32864	
667	0	33008	
668	0	33152	
669	0	33280	
670	0	33388	
671	0	33484	
672	0	33576	
673	0	33634	
674	0	33608	
675	0	33600	
676	0	33656	
677	0	33756	
678	0	33864	
679	0	33984	
680	0	34104	
681	0	34128	
682	0	34146	
683	0	34220	
684	0	34264	
685	0	34264	
686	0	34332	
687	0	34396	
688	0	34464	
689	0	34636	
690	0	34824	
691	0	34932	
692	0	34970	
693	0	34960	
694	0	34916	
695	0	34872	
696	0	34808	
697	0	34740	
698	0	34684	
699	0	34720	
700	0	34736	
701	0	34740	
702	0	34772	
703	0	34808	
704	0	34780	
705	0	34740	
706	0	34684	
707	0	34616	
708	0	34504	
709	0	34328	
710	0	34056	
711	0	33832	
712	0	33664	
713	0	33512	
714	0	33404	
715	0	33316	
716	0	33224	
717	0	33134	
718	0	33024	
719	0	32908	
720	0	32792	
721	0	32752	
722	0	32768	
723	0	32816	
724	0	32810	
725	0	32794	
726	0	32836	
727	0	32832	
728	0	32752	
729	0	32644	
730	0	32552	
731	0	32468	
732	0	32340	
733	0	32224	
734	0	32128	
735	0	32068	
736	0	32028	
737	0	31962	
738	0	31842	
739	0	31708	
740	0	31592	
741	0	31500	
742	0	31404	
743	0	31280	
744	0	31092	
745	0	30944	
746	0	30812	
747	0	30768	
748	0	30748	
749	0	30740	
750	0	30696	
751	0	30684	
752	0	30682	
753	0	30688	
754	0	30716	
755	0	30768	
756	0	30788	
757	0	30804	
758	0	30786	
759	0	30816	
760	0	30856	
761	0	30872	
762	0	30862	
763	0	30908	
764	0	30908	
765	0	30872	
766	0	30820	
767	0	30812	
768	0	30812	
769	0	30856	
770	0	30856	
771	0	30864	
772	0	30856	
773	0	30840	
774	0	30828	
775	0	30876	
776	0	30928	
777	0	30948	
778	0	30928	
779	0	30920	
780	0	30956	
781	0	30960	
782	0	30928	
783	0	30932	
784	0	30996	
785	0	31032	
786	0	31036	
787	0	31084	
788	0	31140	
789	0	31138	
790	0	31208	
791	0	31266	
792	0	31306	
793	0	31304	
794	0	31288	
795	0	31328	
796	0	31340	
797	0	31340	
798	0	31324	
799	0	31252	
800	0	31192	
801	0	31092	
802	0	30956	
803	0	30780	
804	0	30548	
805	0	30380	
806	0	30308	
807	0	30346	
808	0	30460	
809	0	30656	
810	0	30960	
811	0	31420	
812	0	32040	
813	0	32818	
814	0	33740	
815	0	34812	
816	0	36008	
817	0	37284	
818	0	38768	
819	0	40472	
820	0	42296	
821	0	43988	
822	0	45680	
823	0	47336	
824	0	49012	
825	0	50728	
826	0	52480	
827	0	54056	
828	0	55440	
829	0	56804	
830	0	58200	
831	0	59536	
832	0	60592	
833	0	61376	
834	0	61968	
835	0	62352	
836	0	62256	
837	0	61056	
838	0	58908	
839	0	55920	
840	0	52400	
841	0	48764	
842	0	44932	
843	0	40584	
844	0	35796	
845	0	31616	
846	0	28656	
847	0	26708	
848	0	25536	
849	0	24932	
850	0	24752	
851	0	24888	
852	0	25120	
853	0	25400	
854	0	25808	
855	0	26308	
856	0	26884	
857	0	27452	
858	0	28008	
859	0	28480	
860	0	28888	
861	0	29244	
862	0	29514	
863	0	29744	
864	0	29872	
865	0	29898	
866	0	29876	
867	0	29852	
868	0	29802	
869	0	29780	
870	0	29724	
871	0	29642	
872	0	29580	
873	0	29516	
874	0	29480	
875	0	29468	
876	0	29432	
877	0	29424	
878	0	29372	
879	0	29328	
880	0	29300	
881	0	29332	
882	0	29368	
883	0	29380	
884	0	29384	
885	0	29416	
886	0	29464	
887	0	29460	
888	0	29472	
889	0	29504	
890	0	29516	
891	0	29544	
892	0	29556	
893	0	29600	
894	0	29660	
895	0	29688	
896	0	29708	
897	0	29748	
898	0	29784	
899	0	29836	
900	0	29840	
901	0	29860	
902	0	29872	
903	0	29864	
904	0	29908	
905	0	29998	
906	0	30028	
907	0	30060	
908	0	30096	
909	0	30096	
910	0	30144	
911	0	30216	
912	0	30288	
913	0	30328	
914	0	30324	
915	0	30352	
916	0	30396	
917	0	30460	
918	0	30536	
919	0	30570	
920	0	30608	
921	0	30704	
922	0	30752	
923	0	30788	
924	0	30820	
925	0	30828	
926	0	30872	
927	0	30908	
928	0	30912	
929	0	30956	
930	0	31012	
931	0	31056	
932	0	31066	
933	0	31084	
934	0	31088	
935	0	31100	
936	0	31172	
937	0	31268	
938	0	31356	
939	0	31390	
940	0	31396	
941	0	31436	
942	0	31444	
943	0	31440	
944	0	31464	
945	0	31536	
946	0	31608	
947	0	31676	
948	0	31696	
949	0	31684	
950	0	31680	
951	0	31714	
952	0	31762	
953	0	31844	
954	0	31904	
955	0	31918	
956	0	31948	
957	0	32008	
958	0	32092	
959	0	32148	
960	0	32196	
961	0	32256	
962	0	32274	
963	0	32272	
964	0	32244	
965	0	32268	
966	0	32332	
967	0	32380	
968	0	32432	
969	0	32472	
970	0	32504	
971	0	32552	
972	0	32590	
973	0	32620	
974	0	32668	
975	0	32728	
976	0	32792	
977	0	32852	
978	0	32880	
979	0	32880	
980	0	32900	
981	0	32952	
982	0	33032	
983	0	33090	
984	0	33124	
985	0	33160	
986	0	33176	
987	0	33252	
988	0	33296	
989	0	33340	
990	0	33420	
991	0	33464	
992	0	33488	
993	0	33564	
994	0	33636	
995	0	33652	
996	0	33688	
997	0	33736	
998	0	33808	
999	0	33852	
1000	0	33912	
1001	0	34016	
1002	0	34084	
1003	0	34144	
1004	0	34184	
1005	0	34232	
1006	0	34268	
1007	0	34328	
1008	0	34396	
1009	0	34442	
1010	0	34452	
1011	0	34504	
1012	0	34604	
1013	0	34684	
1014	0	34732	
1015	0	34776	
1016	0	34836	
1017	0	34892	
1018	0	34896	
1019	0	34912	
1020	0	35004	
1021	0	35104	
1022	0	35152	
1023	0	35240	
1024	0	35354	
1025	0	35356	
1026	0	35360	
1027	0	35456	
1028	0	35564	
1029	0	35628	
1030	0	35668	
1031	0	35700	
1032	0	35724	
1033	0	35752	
1034	0	35816	
1035	0	35834	
1036	0	35860	
1037	0	35908	
1038	0	36020	
1039	0	36096	
1040	0	36144	
1041	0	36176	
1042	0	36192	
1043	0	36224	
1044	0	36240	
1045	0	36272	
1046	0	36308	
1047	0	36352	
1048	0	36376	
1049	0	36388	
1050	0	36432	
1051	0	36432	
1052	0	36444	
1053	0	36492	
1054	0	36528	
1055	0	36592	
1056	0	36626	
1057	0	36672	
1058	0	36728	
1059	0	36708	
1060	0	36704	
1061	0	36720	
1062	0	36684	
1063	0	36652	
1064	0	36644	
1065	0	36604	
1066	0	36576	
1067	0	36556	
1068	0	36560	
1069	0	36508	
1070	0	36464	
1071	0	36436	
1072	0	36354	
1073	0	36244	
1074	0	36138	
1075	0	36034	
1076	0	35916	
1077	0	35804	
1078	0	35724	
1079	0	35612	
1080	0	35476	
1081	0	35332	
1082	0	35194	
1083	0	35084	
1084	0	34948	
1085	0	34746	
1086	0	34572	
1087	0	34412	
1088	0	34264	
1089	0	34112	
1090	0	33952	
1091	0	33776	
1092	0	33632	
1093	0	33504	
1094	0	33376	
1095	0	33240	
1096	0	33084	
1097	0	32912	
1098	0	32776	
1099	0	32648	
1100	0	32512	
1101	0	32392	
1102	0	32256	
1103	0	32112	
1104	0	31956	
1105	0	31856	
1106	0	31800	
1107	0	31696	
1108	0	31556	
1109	0	31440	
1110	0	31340	
1111	0	31296	
1112	0	31176	
1113	0	31024	
1114	0	30930	
1115	0	30836	
1116	0	30816	
1117	0	30794	
1118	0	30738	
1119	0	30680	
1120	0	30640	
1121	0	30592	
1122	0	30536	
1123	0	30504	
1124	0	30470	
1125	0	30436	
1126	0	30418	
1127	0	30404	
1128	0	30392	
1129	0	30360	
1130	0	30296	
1131	0	30252	
1132	0	30248	
1133	0	30284	
1134	0	30300	
1135	0	30328	
1136	0	30316	
1137	0	30332	
1138	0	30356	
1139	0	30356	
1140	0	30304	
1141	0	30280	
1142	0	30288	
1143	0	30332	
1144	0	30348	
1145	0	30336	
1146	0	30336	
1147	0	30384	
1148	0	30456	
1149	0	30474	
1150	0	30472	
1151	0	30484	
1152	0	30464	
1153	0	30458	
1154	0	30444	
1155	0	30444	
1156	0	30490	
1157	0	30528	
1158	0	30554	
1159	0	30592	
1160	0	30624	
1161	0	30636	
1162	0	30660	
1163	0	30652	
1164	0	30640	
1165	0	30680	
1166	0	30732	
1167	0	30776	
1168	0	30788	
1169	0	30812	
1170	0	30840	
1171	0	30860	
1172	0	30856	
1173	0	30844	
1174	0	30874	
1175	0	30904	
1176	0	30948	
1177	0	30972	
1178	0	30984	
1179	0	30976	
1180	0	31008	
1181	0	31012	
1182	0	31020	
1183	0	31044	
1184	0	31096	
1185	0	31144	
1186	0	31160	
1187	0	31188	
1188	0	31212	
1189	0	31224	
1190	0	31216	
1191	0	31192	
1192	0	31164	
1193	0	31176	
1194	0	31194	
1195	0	31230	
1196	0	31272	
1197	0	31328	
1198	0	31312	
1199	0	31280	
1200	0	31292	
1201	0	31298	
1202	0	31304	
1203	0	31310	
1204	0	31296	
1205	0	31304	
1206	0	31336	
1207	0	31400	
1208	0	31428	
1209	0	31428	
1210	0	31384	
1211	0	31368	
1212	0	31390	
1213	0	31448	
1214	0	31508	
1215	0	31540	
1216	0	31556	
1217	0	31540	
1218	0	31554	
1219	0	31564	
1220	0	31532	
1221	0	31492	
1222	0	31482	
1223	0	31528	
1224	0	31608	
1225	0	31616	
1226	0	31608	
1227	0	31576	
1228	0	31560	
1229	0	31584	
1230	0	31608	
1231	0	31616	
1232	0	31612	
1233	0	31608	
1234	0	31628	
1235	0	31644	
1236	0	31644	
1237	0	31584	
1238	0	31576	
1239	0	31584	
1240	0	31608	
1241	0	31620	
1242	0	31612	
1243	0	31664	
1244	0	31700	
1245	0	31720	
1246	0	31728	
1247	0	31720	
1248	0	31736	
1249	0	31728	
1250	0	31696	
1251	0	31696	
1252	0	31720	
1253	0	31724	
1254	0	31732	
1255	0	31736	
1256	0	31768	
1257	0	31824	
1258	0	31864	
1259	0	31836	
1260	0	31824	
1261	0	31810	
1262	0	31792	
1263	0	31800	
1264	0	31860	
1265	0	31896	
1266	0	31888	
1267	0	31872	
1268	0	31884	
1269	0	31938	
1270	0	31968	
1271	0	32012	
1272	0	32104	
1273	0	32208	
1274	0	32412	
1275	0	32616	
1276	0	32828	
1277	0	33072	
1278	0	33288	
1279	0	33444	
1280	0	33528	
1281	0	33550	
1282	0	33584	
1283	0	33624	
1284	0	33652	
1285	0	33684	
1286	0	33784	
1287	0	33924	
1288	0	34032	
1289	0	34104	
1290	0	34200	
1291	0	34260	
1292	0	34266	
1293	0	34260	
1294	0	34272	
1295	0	34336	
1296	0	34440	
1297	0	34548	
1298	0	34624	
1299	0	34720	
1300	0	34848	
1301	0	34960	
1302	0	35008	
1303	0	34980	
1304	0	34916	
1305	0	34832	
1306	0	34818	
1307	0	34864	
1308	0	34852	
1309	0	34840	
1310	0	34810	
1311	0	34796	
1312	0	34804	
1313	0	34852	
1314	0	34912	
1315	0	34888	
1316	0	34748	
1317	0	34616	
1318	0	34440	
1319	0	34188	
1320	0	33972	
1321	0	33756	
1322	0	33560	
1323	0	33432	
1324	0	33310	
1325	0	33198	
1326	0	33100	
1327	0	32952	
1328	0	32814	
1329	0	32736	
1330	0	32672	
1331	0	32616	
1332	0	32604	
1333	0	32628	
1334	0	32668	
1335	0	32704	
1336	0	32704	
1337	0	32625	
1338	0	32512	
1339	0	32464	
1340	0	32372	
1341	0	32232	
1342	0	32112	
1343	0	32028	
1344	0	31960	
1345	0	31892	
1346	0	31860	
1347	0	31776	
1348	0	31660	
1349	0	31520	
1350	0	31396	
1351	0	31328	
1352	0	31228	
1353	0	31120	
1354	0	30980	
1355	0	30852	
1356	0	30772	
1357	0	30710	
1358	0	30704	
1359	0	30732	
1360	0	30682	
1361	0	30660	
1362	0	30684	
1363	0	30692	
1364	0	30672	
1365	0	30616	
1366	0	30580	
1367	0	30584	
1368	0	30616	
1369	0	30668	
1370	0	30688	
1371	0	30692	
1372	0	30712	
1373	0	30740	
1374	0	30754	
1375	0	30784	
1376	0	30752	
1377	0	30728	
1378	0	30676	
1379	0	30672	
1380	0	30724	
1381	0	30760	
1382	0	30772	
1383	0	30744	
1384	0	30744	
1385	0	30772	
1386	0	30816	
1387	0	30814	
1388	0	30836	
1389	0	30852	
1390	0	30872	
1391	0	30896	
1392	0	30932	
1393	0	30932	
1394	0	30928	
1395	0	30932	
1396	0	30964	
1397	0	30988	
1398	0	31060	
1399	0	31144	
1400	0	31164	
1401	0	31176	
1402	0	31188	
1403	0	31200	
1404	0	31216	
1405	0	31216	
1406	0	31216	
1407	0	31192	
1408	0	31140	
1409	0	31072	
1410	0	30984	
1411	0	30848	
1412	0	30672	
1413	0	30464	
1414	0	30300	
1415	0	30292	
1416	0	30348	
1417	0	30448	
1418	0	30616	
1419	0	30916	
1420	0	31384	
1421	0	32044	
1422	0	32904	
1423	0	33860	
1424	0	34900	
1425	0	36008	
1426	0	37284	
1427	0	38832	
1428	0	40580	
1429	0	42352	
1430	0	44012	
1431	0	45656	
1432	0	47300	
1433	0	49024	
1434	0	50808	
1435	0	52544	
1436	0	54064	
1437	0	55456	
1438	0	56888	
1439	0	58272	
1440	0	59492	
1441	0	60488	
1442	0	61264	
1443	0	61828	
1444	0	62248	
1445	0	61912	
1446	0	60392	
1447	0	57992	
1448	0	54752	
1449	0	51144	
1450	0	47484	
1451	0	43496	
1452	0	39008	
1453	0	34460	
1454	0	30808	
1455	0	28172	
1456	0	26448	
1457	0	25468	
1458	0	25004	
1459	0	24917	
1460	0	25016	
1461	0	25252	
1462	0	25612	
1463	0	26080	
1464	0	26632	
1465	0	27204	
1466	0	27752	
1467	0	28256	
1468	0	28704	
1469	0	29090	
1470	0	29368	
1471	0	29520	
1472	0	29600	
1473	0	29604	
1474	0	29592	
1475	0	29548	
1476	0	29520	
1477	0	29512	
1478	0	29444	
1479	0	29352	
1480	0	29254	
1481	0	29208	
1482	0	29172	
1483	0	29088	
1484	0	29036	
1485	0	29000	
1486	0	28980	
1487	0	28984	
1488	0	28976	
1489	0	28952	
1490	0	28960	
1491	0	29016	
1492	0	29032	
1493	0	29068	
1494	0	29116	
1495	0	29132	
1496	0	29148	
1497	0	29136	
1498	0	29146	
1499	0	29220	
1500	0	29272	
1501	0	29328	
1502	0	29334	
1503	0	29354	
1504	0	29408	
1505	0	29496	
1506	0	29512	
1507	0	29520	
1508	0	29572	
1509	0	29588	
1510	0	29584	
1511	0	29578	
1512	0	29560	
1513	0	29580	
1514	0	29636	
1515	0	29680	
1516	0	29726	
1517	0	29792	
1518	0	29852	
1519	0	29852	
1520	0	29880	
1521	0	29944	
1522	0	30004	
1523	0	30016	
1524	0	30010	
1525	0	30012	
1526	0	29984	
1527	0	30012	
1528	0	30076	
1529	0	30140	
1530	0	30220	
1531	0	30288	
1532	0	30376	
1533	0	30424	
1534	0	30476	
1535	0	30496	
1536	0	30464	
1537	0	30448	
1538	0	30484	
1539	0	30544	
1540	0	30600	
1541	0	30668	
1542	0	30714	
1543	0	30748	
1544	0	30772	
1545	0	30816	
1546	0	30856	
1547	0	30880	
1548	0	30912	
1549	0	30952	
1550	0	30952	
1551	0	30956	
1552	0	30980	
1553	0	31012	
1554	0	31064	
1555	0	31106	
1556	0	31128	
1557	0	31156	
1558	0	31204	
1559	0	31252	
1560	0	31296	
1561	0	31328	
1562	0	31376	
1563	0	31408	
1564	0	31454	
1565	0	31508	
1566	0	31552	
1567	0	31572	
1568	0	31576	
1569	0	31600	
1570	0	31648	
1571	0	31728	
1572	0	31820	
1573	0	31872	
1574	0	31900	
1575	0	31896	
1576	0	31952	
1577	0	31996	
1578	0	32064	
1579	0	32096	
1580	0	32120	
1581	0	32162	
1582	0	32240	
1583	0	32272	
1584	0	32320	
1585	0	32352	
1586	0	32380	
1587	0	32400	
1588	0	32448	
1589	0	32520	
1590	0	32556	
1591	0	32600	
1592	0	32640	
1593	0	32628	
1594	0	32616	
1595	0	32688	
1596	0	32808	
1597	0	32954	
1598	0	33020	
1599	0	33068	
1600	0	33044	
1601	0	33028	
1602	0	33068	
1603	0	33136	
1604	0	33180	
1605	0	33194	
1606	0	33228	
1607	0	33296	
1608	0	33400	
1609	0	33480	
1610	0	33544	
1611	0	33604	
1612	0	33636	
1613	0	33684	
1614	0	33754	
1615	0	33788	
1616	0	33824	
1617	0	33912	
1618	0	33984	
1619	0	34016	
1620	0	34088	
1621	0	34168	
1622	0	34220	
1623	0	34304	
1624	0	34372	
1625	0	34436	
1626	0	34488	
1627	0	34560	
1628	0	34658	
1629	0	34692	
1630	0	34692	
1631	0	34732	
1632	0	34792	
1633	0	34872	
1634	0	34920	
1635	0	34960	
1636	0	35012	
1637	0	35084	
1638	0	35152	
1639	0	35228	
1640	0	35272	
1641	0	35296	
1642	0	35334	
1643	0	35368	
1644	0	35436	
1645	0	35500	
1646	0	35504	
1647	0	35532	
1648	0	35576	
1649	0	35632	
1650	0	35656	
1651	0	35652	
1652	0	35740	
1653	0	35836	
1654	0	35880	
1655	0	35908	
1656	0	35956	
1657	0	35956	
1658	0	36008	
1659	0	36064	
1660	0	36076	
1661	0	36044	
1662	0	36076	
1663	0	36160	
1664	0	36208	
1665	0	36216	
1666	0	36216	
1667	0	36224	
1668	0	36216	
1669	0	36212	
1670	0	36232	
1671	0	36240	
1672	0	36220	
1673	0	36232	
1674	0	36230	
1675	0	36180	
1676	0	36136	
1677	0	36132	
1678	0	36184	
1679	0	36168	
1680	0	36120	
1681	0	36032	
1682	0	35972	
1683	0	35868	
1684	0	35760	
1685	0	35660	
1686	0	35508	
1687	0	35380	
1688	0	35278	
1689	0	35168	
1690	0	35032	
1691	0	34880	
1692	0	34760	
1693	0	34624	
1694	0	34456	
1695	0	34336	
1696	0	34208	
1697	0	34048	
1698	0	33860	
1699	0	33688	
1700	0	33540	
1701	0	33424	
1702	0	33228	
1703	0	33088	
1704	0	32986	
1705	0	32864	
1706	0	32712	
1707	0	32556	
1708	0	32400	
1709	0	32256	
1710	0	32128	
1711	0	31984	
1712	0	31832	
1713	0	31692	
1714	0	31584	
1715	0	31488	
1716	0	31392	
1717	0	31312	
1718	0	31248	
1719	0	31170	
1720	0	31044	
1721	0	30952	
1722	0	30868	
1723	0	30781	
1724	0	30708	
1725	0	30632	
1726	0	30564	
1727	0	30492	
1728	0	30432	
1729	0	30380	
1730	0	30352	
1731	0	30360	
1732	0	30312	
1733	0	30272	
1734	0	30208	
1735	0	30168	
1736	0	30180	
1737	0	30178	
1738	0	30164	
1739	0	30156	
1740	0	30144	
1741	0	30132	
1742	0	30114	
1743	0	30096	
1744	0	30082	
1745	0	30090	
1746	0	30092	
1747	0	30088	
1748	0	30080	
1749	0	30100	
1750	0	30136	
1751	0	30168	
1752	0	30172	
1753	0	30166	
1754	0	30156	
1755	0	30140	
1756	0	30184	
1757	0	30232	
1758	0	30240	
1759	0	30252	
1760	0	30256	
1761	0	30264	
1762	0	30274	
1763	0	30276	
1764	0	30296	
1765	0	30344	
1766	0	30370	
1767	0	30408	
1768	0	30432	
1769	0	30428	
1770	0	30440	
1771	0	30432	
1772	0	30440	
1773	0	30468	
1774	0	30500	
1775	0	30536	
1776	0	30544	
1777	0	30592	
1778	0	30648	
1779	0	30668	
1780	0	30652	
1781	0	30656	
1782	0	30660	
1783	0	30672	
1784	0	30680	
1785	0	30668	
1786	0	30684	
1787	0	30688	
1788	0	30700	
1789	0	30712	
1790	0	30688	
1791	0	30728	
1792	0	30788	
1793	0	30804	
1794	0	30792	
1795	0	30796	
1796	0	30824	
1797	0	30844	
1798	0	30872	
1799	0	30890	
1800	0	30920	
1801	0	30948	
1802	0	30978	
1803	0	31000	
1804	0	31008	
1805	0	31008	
1806	0	31040	
1807	0	31040	
1808	0	31036	
1809	0	31044	
1810	0	31028	
1811	0	31080	
1812	0	31132	
1813	0	31088	
1814	0	31080	
1815	0	31108	
1816	0	31136	
1817	0	31188	
1818	0	31188	
1819	0	31176	
1820	0	31208	
1821	0	31224	
1822	0	31216	
1823	0	31180	
1824	0	31168	
1825	0	31192	
1826	0	31184	
1827	0	31232	
1828	0	31268	
1829	0	31256	
1830	0	31236	
1831	0	31276	
1832	0	31284	
1833	0	31288	
1834	0	31272	
1835	0	31266	
1836	0	31256	
1837	0	31264	
1838	0	31284	
1839	0	31296	
1840	0	31306	
1841	0	31332	
1842	0	31360	
1843	0	31364	
1844	0	31360	
1845	0	31420	
1846	0	31444	
1847	0	31392	
1848	0	31352	
1849	0	31360	
1850	0	31372	
1851	0	31368	
1852	0	31392	
1853	0	31392	
1854	0	31368	
1855	0	31374	
1856	0	31440	
1857	0	31472	
1858	0	31480	
1859	0	31452	
1860	0	31424	
1861	0	31412	
1862	0	31416	
1863	0	31448	
1864	0	31468	
1865	0	31464	
1866	0	31436	
1867	0	31436	
1868	0	31436	
1869	0	31468	
1870	0	31492	
1871	0	31498	
1872	0	31520	
1873	0	31584	
1874	0	31628	
1875	0	31648	
1876	0	31600	
1877	0	31580	
1878	0	31592	
1879	0	31592	
1880	0	31588	
1881	0	31592	
1882	0	31584	
1883	0	31616	
1884	0	31636	
1885	0	31648	
1886	0	31660	
1887	0	31648	
1888	0	31648	
1889	0	31680	
1890	0	31684	
1891	0	31728	
1892	0	31752	
1893	0	31800	
1894	0	31840	
1895	0	31840	
1896	0	31848	
1897	0	31888	
1898	0	31920	
1899	0	32008	
1900	0	32104	
1901	0	32252	
1902	0	32468	
1903	0	32756	
1904	0	33064	
1905	0	33276	
1906	0	33428	
1907	0	33548	
1908	0	33620	
1909	0	33660	
1910	0	33640	
1911	0	33648	
1912	0	33664	
1913	0	33728	
1914	0	33852	
1915	0	33948	
1916	0	34072	
1917	0	34128	
1918	0	34184	
1919	0	34232	
1920	0	34284	
1921	0	34334	
1922	0	34408	
1923	0	34508	
1924	0	34600	
1925	0	34656	
1926	0	34732	
1927	0	34852	
1928	0	34924	
1929	0	34944	
1930	0	34930	
1931	0	34852	
1932	0	34760	
1933	0	34724	
1934	0	34728	
1935	0	34780	
1936	0	34840	
1937	0	34888	
1938	0	34904	
1939	0	34916	
1940	0	34952	
1941	0	34964	
1942	0	34900	
1943	0	34808	
1944	0	34716	
1945	0	34544	
1946	0	34320	
1947	0	34060	
1948	0	33836	
1949	0	33636	
1950	0	33472	
1951	0	33288	
1952	0	33132	
1953	0	32992	
1954	0	32922	
1955	0	32840	
1956	0	32768	
1957	0	32680	
1958	0	32660	
1959	0	32672	
1960	0	32684	
1961	0	32692	
1962	0	32704	
1963	0	32676	
1964	0	32604	
1965	0	32512	
1966	0	32416	
1967	0	32320	
1968	0	32236	
1969	0	32132	
1970	0	32060	
1971	0	32028	
1972	0	31932	
1973	0	31812	
1974	0	31668	
1975	0	31556	
1976	0	31460	
1977	0	31424	
1978	0	31328	
1979	0	31184	
1980	0	31106	
1981	0	31062	
1982	0	30952	
1983	0	30848	
1984	0	30786	
1985	0	30796	
1986	0	30796	
1987	0	30784	
1988	0	30788	
1989	0	30812	
1990	0	30824	
1991	0	30816	
1992	0	30800	
1993	0	30792	
1994	0	30816	
1995	0	30824	
1996	0	30818	
1997	0	30860	
1998	0	30896	
1999	0	30920	
2000	0	30944	
2001	0	30916	
2002	0	30884	
2003	0	30852	
2004	0	30866	
2005	0	30880	
2006	0	30896	
2007	0	30912	
2008	0	30920	
2009	0	30936	
2010	0	30944	
2011	0	30944	
2012	0	30982	
2013	0	31002	
2014	0	31000	
2015	0	30972	
2016	0	30952	
2017	0	30964	
2018	0	30988	
2019	0	31020	
2020	0	31088	
2021	0	31146	
2022	0	31144	
2023	0	31136	
2024	0	31154	
2025	0	31168	
2026	0	31164	
2027	0	31192	
2028	0	31248	
2029	0	31264	
2030	0	31304	
2031	0	31328	
2032	0	31336	
2033	0	31308	
2034	0	31216	
2035	0	31152	
2036	0	31104	
2037	0	30992	
2038	0	30832	
2039	0	30624	
2040	0	30436	
2041	0	30292	
2042	0	30268	
2043	0	30360	
2044	0	30528	
2045	0	30728	
2046	0	31060	
2047	0	31584	
2048	0	32272	
2049	0	33136	
2050	0	34176	
2051	0	35296	
2052	0	36504	
2053	0	37920	
2054	0	39584	
2055	0	41352	
2056	0	43064	
2057	0	44760	
2058	0	46448	
2059	0	48128	
2060	0	49856	
2061	0	51596	
2062	0	53208	
2063	0	54628	
2064	0	55960	
2065	0	57336	
2066	0	58656	
2067	0	59800	
2068	0	60768	
2069	0	61472	
2070	0	61972	
2071	0	62096	
2072	0	61184	
2073	0	59136	
2074	0	56292	
2075	0	52804	
2076	0	49140	
2077	0	45376	
2078	0	41152	
2079	0	36552	
2080	0	32404	
2081	0	29388	
2082	0	27312	
2083	0	26062	
2084	0	25372	
2085	0	25128	
2086	0	25172	
2087	0	25312	
2088	0	25596	
2089	0	26000	
2090	0	26504	
2091	0	27080	
2092	0	27660	
2093	0	28172	
2094	0	28594	
2095	0	29000	
2096	0	29362	
2097	0	29632	
2098	0	29812	
2099	0	29896	
2100	0	29920	
2101	0	29920	
2102	0	29852	
2103	0	29764	
2104	0	29676	
2105	0	29588	
2106	0	29504	
2107	0	29460	
2108	0	29392	
2109	0	29328	
2110	0	29258	
2111	0	29216	
2112	0	29224	
2113	0	29232	
2114	0	29244	
2115	0	29224	
2116	0	29200	
2117	0	29230	
2118	0	29208	
2119	0	29176	
2120	0	29146	
2121	0	29184	
2122	0	29218	
2123	0	29292	
2124	0	29368	
2125	0	29376	
2126	0	29388	
2127	0	29404	
2128	0	29452	
2129	0	29482	
2130	0	29500	
2131	0	29532	
2132	0	29576	
2133	0	29632	
2134	0	29688	
2135	0	29732	
2136	0	29732	
2137	0	29772	
2138	0	29788	
2139	0	29772	
2140	0	29812	
2141	0	29876	
2142	0	29928	
2143	0	29952	
2144	0	29956	
2145	0	29936	
2146	0	29948	
2147	0	29994	
2148	0	30042	
2149	0	30128	
2150	0	30200	
2151	0	30234	
2152	0	30260	
2153	0	30272	
2154	0	30288	
2155	0	30316	
2156	0	30376	
2157	0	30452	
2158	0	30532	
2159	0	30554	
2160	0	30588	
2161	0	30618	
2162	0	30636	
2163	0	30672	
2164	0	30724	
2165	0	30768	
2166	0	30784	
2167	0	30816	
2168	0	30820	
2169	0	30832	
2170	0	30860	
2171	0	30914	
2172	0	30944	
2173	0	30996	
2174	0	31060	
2175	0	31104	
2176	0	31120	
2177	0	31156	
2178	0	31176	
2179	0	31220	
2180	0	31256	
2181	0	31258	
2182	0	31264	
2183	0	31328	
2184	0	31404	
2185	0	31432	
2186	0	31452	
2187	0	31456	
2188	0	31488	
2189	0	31540	
2190	0	31612	
2191	0	31628	
2192	0	31692	
2193	0	31728	
2194	0	31776	
2195	0	31816	
2196	0	31836	
2197	0	31836	
2198	0	31900	
2199	0	32000	
2200	0	32032	
2201	0	32060	
2202	0	32052	
2203	0	32042	
2204	0	32072	
2205	0	32148	
2206	0	32224	
2207	0	32268	
2208	0	32304	
2209	0	32332	
2210	0	32380	
2211	0	32408	
2212	0	32468	
2213	0	32500	
2214	0	32480	
2215	0	32496	
2216	0	32544	
2217	0	32632	
2218	0	32698	
2219	0	32712	
2220	0	32744	
2221	0	32768	
2222	0	32812	
2223	0	32892	
2224	0	32961	
2225	0	32988	
2226	0	33028	
2227	0	33060	
2228	0	33104	
2229	0	33152	
2230	0	33220	
2231	0	33264	
2232	0	33320	
2233	0	33360	
2234	0	33424	
2235	0	33488	
2236	0	33564	
2237	0	33672	
2238	0	33752	
2239	0	33752	
2240	0	33736	
2241	0	33792	
2242	0	33840	
2243	0	33888	
2244	0	33962	
2245	0	34008	
2246	0	34004	
2247	0	34016	
2248	0	34096	
2249	0	34194	
2250	0	34292	
2251	0	34360	
2252	0	34404	
2253	0	34440	
2254	0	34496	
2255	0	34528	
2256	0	34564	
2257	0	34648	
2258	0	34704	
2259	0	34792	
2260	0	34856	
2261	0	34912	
2262	0	34952	
2263	0	34994	
2264	0	35040	
2265	0	35116	
2266	0	35160	
2267	0	35206	
2268	0	35212	
2269	0	35244	
2270	0	35328	
2271	0	35432	
2272	0	35492	
2273	0	35544	
2274	0	35592	
2275	0	35656	
2276	0	35696	
2277	0	35720	
2278	0	35796	
2279	0	35872	
2280	0	35912	
2281	0	35922	
2282	0	35940	
2283	0	35992	
2284	0	36064	
2285	0	36102	
2286	0	36124	
2287	0	36160	
2288	0	36184	
2289	0	36188	
2290	0	36200	
2291	0	36204	
2292	0	36238	
2293	0	36290	
2294	0	36364	
2295	0	36384	
2296	0	36398	
2297	0	36404	
2298	0	36464	
2299	0	36464	
2300	0	36432	
2301	0	36392	
2302	0	36384	
2303	0	36378	
2304	0	36356	
2305	0	36340	
2306	0	36332	
2307	0	36288	
2308	0	36244	
2309	0	36160	
2310	0	36064	
2311	0	35960	
2312	0	35856	
2313	0	35780	
2314	0	35688	
2315	0	35552	
2316	0	35388	
2317	0	35220	
2318	0	35072	
2319	0	34948	
2320	0	34828	
2321	0	34728	
2322	0	34592	
2323	0	34432	
2324	0	34272	
2325	0	34132	
2326	0	34042	
2327	0	33868	
2328	0	33698	
2329	0	33536	
2330	0	33376	
2331	0	33212	
2332	0	33040	
2333	0	32880	
2334	0	32720	
2335	0	32568	
2336	0	32460	
2337	0	32332	
2338	0	32172	
2339	0	32032	
2340	0	31952	
2341	0	31888	
2342	0	31778	
2343	0	31700	
2344	0	31612	
2345	0	31472	
2346	0	31340	
2347	0	31220	
2348	0	31116	
2349	0	31040	
2350	0	30964	
2351	0	30880	
2352	0	30812	
2353	0	30736	
2354	0	30696	
2355	0	30656	
2356	0	30600	
2357	0	30554	
2358	0	30560	
2359	0	30580	
2360	0	30524	
2361	0	30488	
2362	0	30460	
2363	0	30432	
2364	0	30392	
2365	0	30336	
2366	0	30296	
2367	0	30296	
2368	0	30248	
2369	0	30248	
2370	0	30242	
2371	0	30232	
2372	0	30204	
2373	0	30232	
2374	0	30256	
2375	0	30260	
2376	0	30248	
2377	0	30252	
2378	0	30220	
2379	0	30222	
2380	0	30216	
2381	0	30224	
2382	0	30252	
2383	0	30266	
2384	0	30242	
2385	0	30272	
2386	0	30308	
2387	0	30316	
2388	0	30322	
2389	0	30328	
2390	0	30316	
2391	0	30354	
2392	0	30408	
2393	0	30444	
2394	0	30452	
2395	0	30492	
2396	0	30512	
2397	0	30536	
2398	0	30552	
2399	0	30580	
2400	0	30596	
2401	0	30604	
2402	0	30612	
2403	0	30624	
2404	0	30664	
2405	0	30716	
2406	0	30748	
2407	0	30784	
2408	0	30776	
2409	0	30776	
2410	0	30808	
2411	0	30844	
2412	0	30824	
2413	0	30840	
2414	0	30876	
2415	0	30936	
2416	0	30964	
2417	0	30996	
2418	0	30980	
2419	0	30980	
2420	0	31004	
2421	0	30992	
2422	0	31024	
2423	0	31040	
2424	0	31040	
2425	0	31040	
2426	0	31066	
2427	0	31096	
2428	0	31104	
2429	0	31102	
2430	0	31104	
2431	0	31144	
2432	0	31152	
2433	0	31156	
2434	0	31184	
2435	0	31204	
2436	0	31204	
2437	0	31216	
2438	0	31256	
2439	0	31272	
2440	0	31290	
2441	0	31304	
2442	0	31296	
2443	0	31272	
2444	0	31284	
2445	0	31324	
2446	0	31344	
2447	0	31348	
2448	0	31356	
2449	0	31364	
2450	0	31384	
2451	0	31356	
2452	0	31356	
2453	0	31400	
2454	0	31424	
2455	0	31444	
2456	0	31436	
2457	0	31432	
2458	0	31420	
2459	0	31416	
2460	0	31408	
2461	0	31396	
2462	0	31392	
2463	0	31424	
2464	0	31424	
2465	0	31424	
2466	0	31434	
2467	0	31460	
2468	0	31466	
2469	0	31456	
2470	0	31480	
2471	0	31460	
2472	0	31444	
2473	0	31456	
2474	0	31476	
2475	0	31536	
2476	0	31544	
2477	0	31516	
2478	0	31512	
2479	0	31472	
2480	0	31452	
2481	0	31460	
2482	0	31456	
2483	0	31452	
2484	0	31460	
2485	0	31440	
2486	0	31428	
2487	0	31456	
2488	0	31496	
2489	0	31516	
2490	0	31540	
2491	0	31552	
2492	0	31580	
2493	0	31592	
2494	0	31592	
2495	0	31564	
2496	0	31564	
2497	0	31566	
2498	0	31580	
2499	0	31600	
2500	0	31628	
2501	0	31688	
2502	0	31688	
2503	0	31644	
2504	0	31648	
2505	0	31672	
2506	0	31688	
2507	0	31696	
2508	0	31708	
2509	0	31708	
2510	0	31724	
2511	0	31712	
2512	0	31692	
2513	0	31682	
2514	0	31688	
2515	0	31724	
2516	0	31740	
2517	0	31740	
2518	0	31764	
2519	0	31800	
2520	0	31812	
2521	0	31824	
2522	0	31892	
2523	0	31928	
2524	0	31978	
2525	0	32028	
2526	0	32052	
2527	0	32124	
2528	0	32188	
2529	0	32236	
2530	0	32348	
2531	0	32456	
2532	0	32628	
2533	0	32832	
2534	0	33024	
2535	0	33240	
2536	0	33432	
2537	0	33548	
2538	0	33584	
2539	0	33572	
2540	0	33544	
2541	0	33522	
2542	0	33560	
2543	0	33680	
2544	0	33852	
2545	0	33996	
2546	0	34064	
2547	0	34088	
2548	0	34152	
2549	0	34208	
2550	0	34242	
2551	0	34272	
2552	0	34348	
2553	0	34436	
2554	0	34508	
2555	0	34616	
2556	0	34724	
2557	0	34844	
2558	0	34936	
2559	0	35008	
2560	0	34970	
2561	0	34910	
2562	0	34848	
2563	0	34810	
2564	0	34842	
2565	0	34880	
2566	0	34924	
2567	0	35008	
2568	0	35040	
2569	0	35080	
2570	0	35096	
2571	0	35008	
2572	0	34824	
2573	0	34652	
2574	0	34492	
2575	0	34352	
2576	0	34172	
2577	0	34020	
2578	0	33832	
2579	0	33568	
2580	0	33384	
2581	0	33262	
2582	0	33162	
2583	0	33072	
2584	0	32986	
2585	0	32912	
2586	0	32794	
2587	0	32688	
2588	0	32672	
2589	0	32682	
2590	0	32724	
2591	0	32748	
2592	0	32720	
2593	0	32660	
2594	0	32552	
2595	0	32416	
2596	0	32296	
2597	0	32204	
2598	0	32128	
2599	0	32064	
2600	0	31972	
2601	0	31896	
2602	0	31808	
2603	0	31716	
2604	0	31586	
2605	0	31480	
2606	0	31396	
2607	0	31248	
2608	0	31104	
2609	0	30980	
2610	0	30848	
2611	0	30772	
2612	0	30726	
2613	0	30728	
2614	0	30732	
2615	0	30744	
2616	0	30752	
2617	0	30752	
2618	0	30748	
2619	0	30768	
2620	0	30760	
2621	0	30764	
2622	0	30796	
2623	0	30800	
2624	0	30792	
2625	0	30812	
2626	0	30810	
2627	0	30832	
2628	0	30852	
2629	0	30840	
2630	0	30840	
2631	0	30812	
2632	0	30820	
2633	0	30832	
2634	0	30880	
2635	0	30892	
2636	0	30896	
2637	0	30880	
2638	0	30876	
2639	0	30900	
2640	0	30938	
2641	0	30938	
2642	0	30936	
2643	0	30968	
2644	0	30960	
2645	0	31000	
2646	0	31008	
2647	0	31028	
2648	0	31024	
2649	0	31032	
2650	0	31068	
2651	0	31084	
2652	0	31112	
2653	0	31148	
2654	0	31188	
2655	0	31208	
2656	0	31256	
2657	0	31280	
2658	0	31288	
2659	0	31344	
2660	0	31408	
2661	0	31426	
2662	0	31404	
2663	0	31360	
2664	0	31302	
2665	0	31252	
2666	0	31168	
2667	0	31056	
2668	0	30920	
2669	0	30760	
2670	0	30556	
2671	0	30408	
2672	0	30352	
2673	0	30392	
2674	0	30504	
2675	0	30676	
2676	0	30952	
2677	0	31412	
2678	0	32048	
2679	0	32856	
2680	0	33788	
2681	0	34908	
2682	0	36104	
2683	0	37408	
2684	0	38960	
2685	0	40688	
2686	0	42388	
2687	0	44056	
2688	0	45780	
2689	0	47484	
2690	0	49248	
2691	0	51040	
2692	0	52768	
2693	0	54304	
2694	0	55648	
2695	0	56984	
2696	0	58360	
2697	0	59608	
2698	0	60648	
2699	0	61436	
2700	0	61932	
2701	0	62168	
2702	0	61512	
2703	0	59752	
2704	0	57168	
2705	0	53792	
2706	0	50144	
2707	0	46504	
2708	0	42492	
2709	0	37946	
2710	0	33564	
2711	0	30216	
2712	0	27872	
2713	0	26416	
2714	0	25632	
2715	0	25280	
2716	0	25264	
2717	0	25388	
2718	0	25584	
2719	0	25944	
2720	0	26392	
2721	0	26904	
2722	0	27444	
2723	0	27988	
2724	0	28504	
2725	0	28916	
2726	0	29308	
2727	0	29602	
2728	0	29824	
2729	0	29954	
2730	0	30020	
2731	0	30008	
2732	0	29964	
2733	0	29912	
2734	0	29888	
2735	0	29804	
2736	0	29760	
2737	0	29696	
2738	0	29596	
2739	0	29500	
2740	0	29444	
2741	0	29372	
2742	0	29324	
2743	0	29292	
2744	0	29272	
2745	0	29260	
2746	0	29276	
2747	0	29284	
2748	0	29328	
2749	0	29328	
2750	0	29336	
2751	0	29360	
2752	0	29404	
2753	0	29432	
2754	0	29464	
2755	0	29496	
2756	0	29536	
2757	0	29572	
2758	0	29592	
2759	0	29632	
2760	0	29632	
2761	0	29648	
2762	0	29692	
2763	0	29748	
2764	0	29782	
2765	0	29836	
2766	0	29874	
2767	0	29896	
2768	0	29904	
2769	0	29944	
2770	0	30004	
2771	0	30036	
2772	0	30068	
2773	0	30084	
2774	0	30136	
2775	0	30210	
2776	0	30224	
2777	0	30204	
2778	0	30240	
2779	0	30312	
2780	0	30360	
2781	0	30420	
2782	0	30468	
2783	0	30506	
2784	0	30524	
2785	0	30556	
2786	0	30576	
2787	0	30600	
2788	0	30648	
2789	0	30660	
2790	0	30652	
2791	0	30674	
2792	0	30684	
2793	0	30736	
2794	0	30784	
2795	0	30816	
2796	0	30844	
2797	0	30900	
2798	0	30932	
2799	0	30984	
2800	0	31066	
2801	0	31092	
2802	0	31104	
2803	0	31132	
2804	0	31160	
2805	0	31192	
2806	0	31236	
2807	0	31280	
2808	0	31332	
2809	0	31348	
2810	0	31352	
2811	0	31400	
2812	0	31448	
2813	0	31472	
2814	0	31488	
2815	0	31552	
2816	0	31612	
2817	0	31644	
2818	0	31688	
2819	0	31736	
2820	0	31788	
2821	0	31848	
2822	0	31876	
2823	0	31892	
2824	0	31928	
2825	0	31948	
2826	0	31978	
2827	0	31962	
2828	0	31948	
2829	0	32012	
2830	0	32088	
2831	0	32124	
2832	0	32164	
2833	0	32240	
2834	0	32312	
2835	0	32356	
2836	0	32380	
2837	0	32416	
2838	0	32416	
2839	0	32440	
2840	0	32484	
2841	0	32546	
2842	0	32576	
2843	0	32608	
2844	0	32652	
2845	0	32688	
2846	0	32704	
2847	0	32710	
2848	0	32736	
2849	0	32812	
2850	0	32892	
2851	0	32952	
2852	0	33008	
2853	0	33080	
2854	0	33116	
2855	0	33156	
2856	0	33184	
2857	0	33224	
2858	0	33260	
2859	0	33304	
2860	0	33332	
2861	0	33384	
2862	0	33430	
2863	0	33474	
2864	0	33524	
2865	0	33572	
2866	0	33632	
2867	0	33668	
2868	0	33704	
2869	0	33768	
2870	0	33852	
2871	0	33924	
2872	0	33972	
2873	0	34000	
2874	0	34048	
2875	0	34132	
2876	0	34196	
2877	0	34252	
2878	0	34272	
2879	0	34292	
2880	0	34324	
2881	0	34372	
2882	0	34436	
2883	0	34484	
2884	0	34536	
2885	0	34612	
2886	0	34680	
2887	0	34744	
2888	0	34764	
2889	0	34824	
2890	0	34872	
2891	0	34936	
2892	0	34992	
2893	0	35040	
2894	0	35088	
2895	0	35124	
2896	0	35168	
2897	0	35216	
2898	0	35308	
2899	0	35368	
2900	0	35400	
2901	0	35428	
2902	0	35464	
2903	0	35488	
2904	0	35508	
2905	0	35548	
2906	0	35612	
2907	0	35608	
2908	0	35632	
2909	0	35684	
2910	0	35760	
2911	0	35796	
2912	0	35808	
2913	0	35840	
2914	0	35888	
2915	0	35944	
2916	0	35964	
2917	0	36028	
2918	0	36044	
2919	0	36020	
2920	0	36032	
2921	0	36040	
2922	0	36092	
2923	0	36148	
2924	0	36160	
2925	0	36160	
2926	0	36172	
2927	0	36196	
2928	0	36228	
2929	0	36248	
2930	0	36268	
2931	0	36264	
2932	0	36292	
2933	0	36276	
2934	0	36260	
2935	0	36264	
2936	0	36248	
2937	0	36220	
2938	0	36204	
2939	0	36176	
2940	0	36100	
2941	0	35984	
2942	0	35844	
2943	0	35744	
2944	0	35648	
2945	0	35540	
2946	0	35436	
2947	0	35324	
2948	0	35184	
2949	0	35036	
2950	0	34908	
2951	0	34788	
2952	0	34686	
2953	0	34570	
2954	0	34392	
2955	0	34236	
2956	0	34100	
2957	0	33972	
2958	0	33832	
2959	0	33636	
2960	0	33472	
2961	0	33320	
2962	0	33156	
2963	0	33016	
2964	0	32904	
2965	0	32782	
2966	0	32676	
2967	0	32568	
2968	0	32436	
2969	0	32320	
2970	0	32192	
2971	0	32042	
2972	0	31884	
2973	0	31748	
2974	0	31668	
2975	0	31616	
2976	0	31544	
2977	0	31432	
2978	0	31330	
2979	0	31244	
2980	0	31176	
2981	0	31120	
2982	0	31072	
2983	0	31024	
2984	0	30932	
2985	0	30848	
2986	0	30788	
2987	0	30704	
2988	0	30604	
2989	0	30544	
2990	0	30500	
2991	0	30476	
2992	0	30484	
2993	0	30456	
2994	0	30432	
2995	0	30388	
2996	0	30352	
2997	0	30344	
2998	0	30336	
2999	0	30316	
3000	0	30324	
3001	0	30348	
3002	0	30324	
3003	0	30344	
3004	0	30400	
3005	0	30428	
3006	0	30426	
3007	0	30392	
3008	0	30360	
3009	0	30344	
3010	0	30328	
3011	0	30368	
3012	0	30440	
3013	0	30446	
3014	0	30416	
3015	0	30412	
3016	0	30400	
3017	0	30428	
3018	0	30456	
3019	0	30472	
3020	0	30464	
3021	0	30461	
3022	0	30432	
3023	0	30444	
3024	0	30504	
3025	0	30540	
3026	0	30556	
3027	0	30562	
3028	0	30580	
3029	0	30640	
3030	0	30692	
3031	0	30700	
3032	0	30732	
3033	0	30784	
3034	0	30804	
3035	0	30792	
3036	0	30796	
3037	0	30804	
3038	0	30824	
3039	0	30852	
3040	0	30896	
3041	0	30944	
3042	0	30940	
3043	0	30960	
3044	0	31028	
3045	0	31068	
3046	0	31072	
3047	0	31052	
3048	0	31028	
3049	0	31032	
3050	0	31068	
3051	0	31096	
3052	0	31100	
3053	0	31092	
3054	0	31084	
3055	0	31100	
3056	0	31128	
3057	0	31132	
3058	0	31128	
3059	0	31144	
3060	0	31190	
3061	0	31220	
3062	0	31242	
3063	0	31240	
3064	0	31244	
3065	0	31240	
3066	0	31216	
3067	0	31240	
3068	0	31280	
3069	0	31316	
3070	0	31340	
3071	0	31348	
3072	0	31360	
3073	0	31400	
3074	0	31404	
3075	0	31416	
3076	0	31392	
3077	0	31376	
3078	0	31392	
3079	0	31400	
3080	0	31408	
3081	0	31416	
3082	0	31424	
3083	0	31444	
3084	0	31456	
3085	0	31424	
3086	0	31400	
3087	0	31388	
3088	0	31384	
3089	0	31416	
3090	0	31480	
3091	0	31474	
3092	0	31456	
3093	0	31440	
3094	0	31432	
3095	0	31432	
3096	0	31432	
3097	0	31448	
3098	0	31448	
3099	0	31438	
3100	0	31456	
3101	0	31456	
3102	0	31456	
3103	0	31488	
3104	0	31496	
3105	0	31508	
3106	0	31512	
3107	0	31508	
3108	0	31500	
3109	0	31496	
3110	0	31530	
3111	0	31532	
3112	0	31528	
3113	0	31524	
3114	0	31552	
3115	0	31572	
3116	0	31588	
3117	0	31588	
3118	0	31600	
3119	0	31620	
3120	0	31632	
3121	0	31624	
3122	0	31604	
3123	0	31568	
3124	0	31568	
3125	0	31608	
3126	0	31604	
3127	0	31614	
3128	0	31596	
3129	0	31596	
3130	0	31588	
3131	0	31608	
3132	0	31614	
3133	0	31596	
3134	0	31610	
3135	0	31616	
3136	0	31624	
3137	0	31628	
3138	0	31652	
3139	0	31648	
3140	0	31620	
3141	0	31668	
3142	0	31696	
3143	0	31729	
3144	0	31712	
3145	0	31720	
3146	0	31716	
3147	0	31684	
3148	0	31682	
3149	0	31712	
3150	0	31736	
3151	0	31760	
3152	0	31762	
3153	0	31768	
3154	0	31796	
3155	0	31824	
3156	0	31832	
3157	0	31844	
3158	0	31856	
3159	0	31840	
3160	0	31856	
3161	0	31860	
3162	0	31852	
3163	0	31868	
3164	0	31900	
3165	0	31946	
3166	0	31976	
3167	0	32036	
3168	0	32072	
3169	0	32104	
3170	0	32164	
3171	0	32244	
3172	0	32348	
3173	0	32488	
3174	0	32640	
3175	0	32792	
3176	0	32930	
3177	0	33080	
3178	0	33272	
3179	0	33492	
3180	0	33628	
3181	0	33676	
3182	0	33644	
3183	0	33644	
3184	0	33664	
3185	0	33702	
3186	0	33840	
3187	0	33944	
3188	0	34044	
3189	0	34100	
3190	0	34148	
3191	0	34222	
3192	0	34260	
3193	0	34260	
3194	0	34288	
3195	0	34370	
3196	0	34524	
3197	0	34696	
3198	0	34868	
3199	0	35028	
3200	0	35128	
3201	0	35170	
3202	0	35212	
3203	0	35236	
3204	0	35160	
3205	0	35048	
3206	0	35024	
3207	0	35044	
3208	0	35100	
3209	0	35196	
3210	0	35248	
3211	0	35308	
3212	0	35336	
3213	0	35252	
3214	0	35100	
3215	0	34936	
3216	0	34804	
3217	0	34664	
3218	0	34442	
3219	0	34236	
3220	0	34016	
3221	0	33800	
3222	0	33600	
3223	0	33436	
3224	0	33332	
3225	0	33250	
3226	0	33180	
3227	0	33132	
3228	0	33084	
3229	0	33036	
3230	0	32980	
3231	0	32948	
3232	0	32916	
3233	0	32840	
3234	0	32748	
3235	0	32704	
3236	0	32668	
3237	0	32544	
3238	0	32404	
3239	0	32328	
3240	0	32280	
3241	0	32248	
3242	0	32184	
3243	0	32128	
3244	0	32044	
3245	0	31920	
3246	0	31780	
3247	0	31668	
3248	0	31512	
3249	0	31352	
3250	0	31224	
3251	0	31124	
3252	0	31020	
3253	0	30924	
3254	0	30868	
3255	0	30848	
3256	0	30876	
3257	0	30916	
3258	0	30912	
3259	0	30908	
3260	0	30904	
3261	0	30912	
3262	0	30884	
3263	0	30888	
3264	0	30932	
3265	0	30996	
3266	0	31040	
3267	0	31056	
3268	0	31048	
3269	0	31064	
3270	0	31076	
3271	0	31076	
3272	0	31044	
3273	0	31040	
3274	0	31008	
3275	0	31004	
3276	0	31040	
3277	0	31076	
3278	0	31072	
3279	0	31064	
3280	0	31076	
3281	0	31044	
3282	0	31076	
3283	0	31088	
3284	0	31132	
3285	0	31160	
3286	0	31160	
3287	0	31156	
3288	0	31184	
3289	0	31176	
3290	0	31164	
3291	0	31176	
3292	0	31200	
3293	0	31264	
3294	0	31300	
3295	0	31280	
3296	0	31308	
3297	0	31352	
3298	0	31396	
3299	0	31392	
3300	0	31386	
3301	0	31376	
3302	0	31376	
3303	0	31416	
3304	0	31440	
3305	0	31420	
3306	0	31412	
3307	0	31384	
3308	0	31324	
3309	0	31204	
3310	0	31104	
3311	0	30944	
3312	0	30720	
3313	0	30516	
3314	0	30412	
3315	0	30420	
3316	0	30528	
3317	0	30706	
3318	0	30952	
3319	0	31336	
3320	0	31904	
3321	0	32608	
3322	0	33456	
3323	0	34484	
3324	0	35656	
3325	0	36860	
3326	0	38236	
3327	0	39848	
3328	0	41584	
3329	0	43304	
3330	0	45040	
3331	0	46760	
3332	0	48512	
3333	0	50264	
3334	0	52036	
3335	0	53644	
3336	0	55048	
3337	0	56376	
3338	0	57756	
3339	0	59104	
3340	0	60288	
3341	0	61204	
3342	0	61820	
3343	0	62188	
3344	0	61902	
3345	0	60508	
3346	0	58188	
3347	0	55024	
3348	0	51416	
3349	0	47756	
3350	0	43916	
3351	0	39612	
3352	0	35128	
3353	0	31432	
3354	0	28804	
3355	0	27056	
3356	0	26080	
3357	0	25584	
3358	0	25500	
3359	0	25608	
3360	0	25740	
3361	0	25996	
3362	0	26452	
3363	0	26928	
3364	0	27468	
3365	0	28020	
3366	0	28504	
3367	0	28904	
3368	0	29260	
3369	0	29612	
3370	0	29908	
3371	0	30080	
3372	0	30160	
3373	0	30160	
3374	0	30132	
3375	0	30088	
3376	0	30008	
3377	0	29900	
3378	0	29820	
3379	0	29736	
3380	0	29696	
3381	0	29658	
3382	0	29604	
3383	0	29576	
3384	0	29548	
3385	0	29520	
3386	0	29496	
3387	0	29466	
3388	0	29464	
3389	0	29468	
3390	0	29504	
3391	0	29508	
3392	0	29488	
3393	0	29488	
3394	0	29482	
3395	0	29480	
3396	0	29472	
3397	0	29460	
3398	0	29492	
3399	0	29538	
3400	0	29580	
3401	0	29644	
3402	0	29706	
3403	0	29728	
3404	0	29768	
3405	0	29804	
3406	0	29784	
3407	0	29768	
3408	0	29820	
3409	0	29912	
3410	0	29936	
3411	0	29928	
3412	0	29928	
3413	0	29920	
3414	0	29956	
3415	0	30032	
3416	0	30116	
3417	0	30144	
3418	0	30160	
3419	0	30212	
3420	0	30236	
3421	0	30272	
3422	0	30320	
3423	0	30340	
3424	0	30372	
3425	0	30354	
3426	0	30348	
3427	0	30400	
3428	0	30432	
3429	0	30420	
3430	0	30456	
3431	0	30472	
3432	0	30508	
3433	0	30588	
3434	0	30656	
3435	0	30692	
3436	0	30712	
3437	0	30712	
3438	0	30740	
3439	0	30716	
3440	0	30744	
3441	0	30820	
3442	0	30866	
3443	0	30884	
3444	0	30961	
3445	0	31028	
3446	0	31064	
3447	0	31088	
3448	0	31136	
3449	0	31212	
3450	0	31240	
3451	0	31244	
3452	0	31312	
3453	0	31372	
3454	0	31366	
3455	0	31388	
3456	0	31450	
3457	0	31476	
3458	0	31484	
3459	0	31472	
3460	0	31512	
3461	0	31544	
3462	0	31588	
3463	0	31632	
3464	0	31676	
3465	0	31696	
3466	0	31732	
3467	0	31804	
3468	0	31840	
3469	0	31880	
3470	0	31912	
3471	0	31952	
3472	0	31976	
3473	0	31976	
3474	0	32024	
3475	0	32080	
3476	0	32152	
3477	0	32228	
3478	0	32260	
3479	0	32296	
3480	0	32304	
3481	0	32324	
3482	0	32388	
3483	0	32464	
3484	0	32464	
3485	0	32480	
3486	0	32540	
3487	0	32628	
3488	0	32668	
3489	0	32728	
3490	0	32722	
3491	0	32696	
3492	0	32700	
3493	0	32688	
3494	0	32708	
3495	0	32782	
3496	0	32892	
3497	0	32996	
3498	0	33048	
3499	0	33040	
3500	0	33104	
3501	0	33188	
3502	0	33216	
3503	0	33268	
3504	0	33296	
3505	0	33340	
3506	0	33360	
3507	0	33424	
3508	0	33512	
3509	0	33568	
3510	0	33586	
3511	0	33576	
3512	0	33600	
3513	0	33668	
3514	0	33732	
3515	0	33808	
3516	0	33876	
3517	0	33924	
3518	0	33976	
3519	0	34024	
3520	0	34069	
3521	0	34132	
3522	0	34208	
3523	0	34256	
3524	0	34292	
3525	0	34312	
3526	0	34402	
3527	0	34508	
3528	0	34592	
3529	0	34636	
3530	0	34656	
3531	0	34692	
3532	0	34744	
3533	0	34812	
3534	0	34840	
3535	0	34872	
3536	0	34900	
3537	0	34948	
3538	0	34960	
3539	0	35034	
3540	0	35104	
3541	0	35156	
3542	0	35152	
3543	0	35212	
3544	0	35312	
3545	0	35416	
3546	0	35460	
3547	0	35464	
3548	0	35520	
3549	0	35608	
3550	0	35668	
3551	0	35708	
3552	0	35700	
3553	0	35676	
3554	0	35708	
3555	0	35764	
3556	0	35744	
3557	0	35772	
3558	0	35832	
3559	0	35840	
3560	0	35832	
3561	0	35868	
3562	0	35936	
3563	0	35956	
3564	0	35972	
3565	0	36028	
3566	0	36068	
3567	0	36104	
3568	0	36080	
3569	0	36092	
3570	0	36100	
3571	0	36112	
3572	0	36122	
3573	0	36152	
3574	0	36140	
3575	0	36136	
3576	0	36148	
3577	0	36128	
3578	0	36108	
3579	0	36080	
3580	0	36064	
3581	0	36032	
3582	0	35948	
3583	0	35864	
3584	0	35780	
3585	0	35668	
3586	0	35592	
3587	0	35516	
3588	0	35452	
3589	0	35380	
3590	0	35272	
3591	0	35172	
3592	0	35104	
3593	0	34976	
3594	0	34800	
3595	0	34688	
3596	0	34560	
3597	0	34400	
3598	0	34264	
3599	0	34096	
3600	0	33940	
3601	0	33828	
3602	0	33656	
3603	0	33492	
3604	0	33344	
3605	0	33224	
3606	0	33080	
3607	0	32924	
3608	0	32752	
3609	0	32584	
3610	0	32444	
3611	0	32320	
3612	0	32182	
3613	0	32084	
3614	0	31944	
3615	0	31826	
3616	0	31712	
3617	0	31616	
3618	0	31566	
3619	0	31524	
3620	0	31404	
3621	0	31272	
3622	0	31184	
3623	0	31124	
3624	0	31028	
3625	0	30924	
3626	0	30860	
3627	0	30804	
3628	0	30746	
3629	0	30698	
3630	0	30640	
3631	0	30568	
3632	0	30506	
3633	0	30416	
3634	0	30356	
3635	0	30328	
3636	0	30252	
3637	0	30176	
3638	0	30168	
3639	0	30200	
3640	0	30188	
3641	0	30188	
3642	0	30200	
3643	0	30162	
3644	0	30112	
3645	0	30100	
3646	0	30100	
3647	0	30116	
3648	0	30144	
3649	0	30106	
3650	0	30096	
3651	0	30142	
3652	0	30200	
3653	0	30188	
3654	0	30144	
3655	0	30128	
3656	0	30152	
3657	0	30200	
3658	0	30224	
3659	0	30252	
3660	0	30248	
3661	0	30244	
3662	0	30268	
3663	0	30360	
3664	0	30466	
3665	0	30536	
3666	0	30542	
3667	0	30496	
3668	0	30480	
3669	0	30496	
3670	0	30520	
3671	0	30532	
3672	0	30548	
3673	0	30524	
3674	0	30532	
3675	0	30528	
3676	0	30600	
3677	0	30618	
3678	0	30588	
3679	0	30600	
3680	0	30612	
3681	0	30668	
3682	0	30732	
3683	0	30772	
3684	0	30770	
3685	0	30740	
3686	0	30728	
3687	0	30718	
3688	0	30732	
3689	0	30752	
3690	0	30770	
3691	0	30840	
3692	0	30864	
3693	0	30828	
3694	0	30872	
3695	0	30944	
3696	0	30964	
3697	0	30936	
3698	0	30920	
3699	0	30920	
3700	0	30956	
3701	0	31008	
3702	0	31052	
3703	0	31024	
3704	0	31044	
3705	0	31116	
3706	0	31160	
3707	0	31220	
3708	0	31258	
3709	0	31260	
3710	0	31216	
3711	0	31220	
3712	0	31196	
3713	0	31180	
3714	0	31188	
3715	0	31200	
3716	0	31200	
3717	0	31192	
3718	0	31188	
3719	0	31196	
3720	0	31228	
3721	0	31272	
3722	0	31300	
3723	0	31328	
3724	0	31300	
3725	0	31266	
3726	0	31240	
3727	0	31204	
3728	0	31184	
3729	0	31208	
3730	0	31240	
3731	0	31244	
3732	0	31216	
3733	0	31232	
3734	0	31292	
3735	0	31336	
3736	0	31320	
3737	0	31280	
3738	0	31276	
3739	0	31293	
3740	0	31288	
3741	0	31252	
3742	0	31272	
3743	0	31264	
3744	0	31252	
3745	0	31316	
3746	0	31348	
3747	0	31332	
3748	0	31320	
3749	0	31312	
3750	0	31320	
3751	0	31320	
3752	0	31328	
3753	0	31328	
3754	0	31316	
3755	0	31328	
3756	0	31380	
3757	0	31392	
3758	0	31416	
3759	0	31424	
3760	0	31440	
3761	0	31456	
3762	0	31476	
3763	0	31474	
3764	0	31484	
3765	0	31472	
3766	0	31472	
3767	0	31496	
3768	0	31496	
3769	0	31502	
3770	0	31520	
3771	0	31536	
3772	0	31506	
3773	0	31500	
3774	0	31468	
3775	0	31472	
3776	0	31452	
3777	0	31412	
3778	0	31452	
3779	0	31488	
3780	0	31500	
3781	0	31500	
3782	0	31496	
3783	0	31528	
3784	0	31564	
3785	0	31576	
3786	0	31556	
3787	0	31560	
3788	0	31576	
3789	0	31608	
3790	0	31594	
3791	0	31552	
3792	0	31524	
3793	0	31456	
3794	0	31448	
3795	0	31468	
3796	0	31524	
3797	0	31592	
3798	0	31632	
3799	0	31636	
3800	0	31620	
3801	0	31584	
3802	0	31552	
3803	0	31576	
3804	0	31652	
3805	0	31728	
3806	0	31792	
3807	0	31786	
3808	0	31820	
3809	0	31920	
3810	0	32052	
3811	0	32178	
3812	0	32328	
3813	0	32460	
3814	0	32572	
3815	0	32660	
3816	0	32816	
3817	0	33012	
3818	0	33176	
3819	0	33236	
3820	0	33228	
3821	0	33212	
3822	0	33240	
3823	0	33348	
3824	0	33468	
3825	0	33568	
3826	0	33696	
3827	0	33756	
3828	0	33790	
3829	0	33810	
3830	0	33832	
3831	0	33896	
3832	0	34004	
3833	0	34120	
3834	0	34252	
3835	0	34448	
3836	0	34656	
3837	0	34788	
3838	0	34864	
3839	0	34876	
3840	0	34912	
3841	0	34916	
3842	0	34840	
3843	0	34692	
3844	0	34632	
3845	0	34608	
3846	0	34548	
3847	0	34608	
3848	0	34720	
3849	0	34856	
3850	0	34942	
3851	0	34882	
3852	0	34740	
3853	0	34576	
3854	0	34442	
3855	0	34344	
3856	0	34244	
3857	0	34056	
3858	0	33872	
3859	0	33716	
3860	0	33488	
3861	0	33320	
3862	0	33242	
3863	0	33196	
3864	0	33152	
3865	0	33024	
3866	0	32949	
3867	0	32936	
3868	0	32916	
3869	0	32862	
3870	0	32780	
3871	0	32748	
3872	0	32652	
3873	0	32548	
3874	0	32424	
3875	0	32320	
3876	0	32202	
3877	0	32108	
3878	0	32040	
3879	0	32016	
3880	0	31984	
3881	0	31956	
3882	0	31920	
3883	0	31820	
3884	0	31704	
3885	0	31620	
3886	0	31508	
3887	0	31372	
3888	0	31236	
3889	0	31076	
3890	0	30952	
3891	0	30858	
3892	0	30768	
3893	0	30764	
3894	0	30764	
3895	0	30728	
3896	0	30712	
3897	0	30688	
3898	0	30752	
3899	0	30836	
3900	0	30900	
3901	0	30860	
3902	0	30824	
3903	0	30848	
3904	0	30872	
3905	0	30874	
3906	0	30904	
3907	0	30916	
3908	0	30864	
3909	0	30836	
3910	0	30812	
3911	0	30804	
3912	0	30880	
3913	0	30912	
3914	0	30908	
3915	0	30928	
3916	0	30944	
3917	0	30960	
3918	0	30964	
3919	0	30932	
3920	0	30920	
3921	0	30948	
3922	0	31004	
3923	0	30992	
3924	0	30956	
3925	0	30976	
3926	0	30968	
3927	0	30948	
3928	0	31040	
3929	0	31124	
3930	0	31172	
3931	0	31148	
3932	0	31068	
3933	0	31032	
3934	0	31048	
3935	0	31050	
3936	0	31056	
3937	0	31164	
3938	0	31240	
3939	0	31254	
3940	0	31244	
3941	0	31272	
3942	0	31288	
3943	0	31256	
3944	0	31192	
3945	0	31120	
3946	0	31028	
3947	0	30896	
3948	0	30764	
3949	0	30600	
3950	0	30432	
3951	0	30304	
3952	0	30266	
3953	0	30280	
3954	0	30420	
3955	0	30604	
3956	0	30820	
3957	0	31188	
3958	0	31728	
3959	0	32428	
3960	0	33316	
3961	0	34402	
3962	0	35584	
3963	0	36916	
3964	0	38476	
3965	0	40244	
3966	0	42064	
3967	0	43860	
3968	0	45664	
3969	0	47404	
3970	0	49140	
3971	0	50912	
3972	0	52612	
3973	0	54160	
3974	0	55600	
3975	0	56912	
3976	0	58252	
3977	0	59624	
3978	0	60808	
3979	0	61728	
3980	0	62328	
3981	0	62544	
3982	0	61816	
3983	0	60028	
3984	0	57460	
3985	0	54112	
3986	0	50456	
3987	0	46744	
3988	0	42632	
3989	0	38072	
3990	0	33568	
3991	0	29816	
3992	0	27104	
3993	0	25588	
3994	0	24896	
3995	0	24662	
3996	0	24776	
3997	0	25052	
3998	0	25198	
3999	0	25340	
4000	0	25674	
4001	0	26104	
4002	0	26592	
4003	0	27122	
4004	0	27600	
4005	0	28016	
4006	0	28392	
4007	0	28704	
4008	0	28980	
4009	0	29280	
4010	0	29544	
4011	0	29772	
4012	0	29844	
4013	0	29816	
4014	0	29780	
4015	0	29782	
4016	0	29752	
4017	0	29664	
4018	0	29556	
4019	0	29482	
4020	0	29474	
4021	0	29476	
4022	0	29388	
4023	0	29368	
4024	0	29384	
4025	0	29448	
4026	0	29496	
4027	0	29376	
4028	0	29312	
4029	0	29372	
4030	0	29454	
4031	0	29564	
4032	0	29636	
4033	0	29660	
4034	0	29681	
4035	0	29704	
4036	0	29700	
4037	0	29724	
4038	0	29708	
4039	0	29720	
4040	0	29744	
4041	0	29732	
4042	0	29732	
4043	0	29712	
4044	0	29706	
4045	0	29692	
4046	0	29724	
4047	0	29764	
4048	0	29792	
4049	0	29770	
4050	0	29768	
4051	0	29824	
4052	0	29884	
4053	0	29928	
4054	0	29956	
4055	0	30012	
4056	0	30084	
4057	0	30128	
4058	0	30136	
4059	0	30208	
4060	0	30294	
4061	0	30324	
4062	0	30340	
4063	0	30376	
4064	0	30428	
4065	0	30500	
4066	0	30616	
4067	0	30586	
4068	0	30556	
4069	0	30596	
4070	0	30628	
4071	0	30588	
4072	0	30578	
4073	0	30624	
4074	0	30722	
4075	0	30753	
4076	0	30788	
4077	0	30804	
4078	0	30856	
4079	0	30928	
4080	0	31012	
4081	0	31076	
4082	0	31104	
4083	0	31132	
4084	0	31208	
4085	0	31272	
4086	0	31272	
4087	0	31252	
4088	0	31296	
4089	0	31380	
4090	0	31432	
4091	0	31420	
4092	0	31416	
4093	0	31408	
4094	0	31404	
4095	0	31440	
4096	0	31520	
4097	0	31600	
4098	0	31648	
4099	0	31664	
4100	0	31612	
4101	0	31616	
4102	0	31700	
4103	0	31820	
4104	0	31808	
4105	0	31816	
4106	0	31834	
4107	0	31820	
4108	0	31884	
4109	0	31936	
4110	0	31936	
4111	0	31912	
4112	0	31996	
4113	0	32112	
4114	0	32200	
4115	0	32248	
4116	0	32288	
4117	0	32354	
4118	0	32412	
4119	0	32456	
4120	0	32528	
4121	0	32616	
4122	0	32688	
4123	0	32748	
4124	0	32816	
4125	0	32852	
4126	0	32888	
4127	0	32880	
4128	0	32868	
4129	0	32836	
4130	0	32856	
4131	0	32876	
4132	0	32896	
4133	0	32968	
4134	0	33064	
4135	0	33176	
4136	0	33258	
4137	0	33298	
4138	0	33344	
4139	0	33424	
4140	0	33456	
4141	0	33484	
4142	0	33512	
4143	0	33600	
4144	0	33666	
4145	0	33724	
4146	0	33724	
4147	0	33708	
4148	0	33748	
4149	0	33800	
4150	0	33816	
4151	0	33860	
4152	0	33960	
4153	0	33984	
4154	0	33940	
4155	0	33952	
4156	0	34044	
4157	0	34040	
4158	0	34044	
4159	0	34164	
4160	0	34286	
4161	0	34372	
4162	0	34452	
4163	0	34488	
4164	0	34536	
4165	0	34616	
4166	0	34684	
4167	0	34704	
4168	0	34744	
4169	0	34796	
4170	0	34780	
4171	0	34832	
4172	0	34928	
4173	0	34992	
4174	0	35064	
4175	0	35124	
4176	0	35136	
4177	0	35156	
4178	0	35184	
4179	0	35232	
4180	0	35292	
4181	0	35368	
4182	0	35456	
4183	0	35540	
4184	0	35572	
4185	0	35604	
4186	0	35672	
4187	0	35712	
4188	0	35776	
4189	0	35800	
4190	0	35848	
4191	0	35904	
4192	0	35888	
4193	0	35872	
4194	0	35880	
4195	0	35924	
4196	0	35996	
4197	0	36016	
4198	0	36048	
4199	0	36032	
4200	0	36040	
4201	0	36078	
4202	0	36112	
4203	0	36128	
4204	0	36128	
4205	0	36196	
4206	0	36250	
4207	0	36252	
4208	0	36240	
4209	0	36244	
4210	0	36236	
4211	0	36296	
4212	0	36344	
4213	0	36324	
4214	0	36324	
4215	0	36320	
4216	0	36264	
4217	0	36208	
4218	0	36144	
4219	0	36096	
4220	0	36056	
4221	0	36072	
4222	0	36064	
4223	0	35984	
4224	0	35852	
4225	0	35688	
4226	0	35576	
4227	0	35480	
4228	0	35360	
4229	0	35232	
4230	0	35096	
4231	0	34932	
4232	0	34720	
4233	0	34544	
4234	0	34396	
4235	0	34256	
4236	0	34056	
4237	0	33856	
4238	0	33706	
4239	0	33504	
4240	0	33352	
4241	0	33200	
4242	0	33080	
4243	0	32932	
4244	0	32776	
4245	0	32642	
4246	0	32540	
4247	0	32448	
4248	0	32300	
4249	0	32144	
4250	0	32036	
4251	0	31920	
4252	0	31748	
4253	0	31548	
4254	0	31404	
4255	0	31280	
4256	0	31200	
4257	0	31120	
4258	0	31032	
4259	0	30960	
4260	0	30914	
4261	0	30832	
4262	0	30720	
4263	0	30600	
4264	0	30500	
4265	0	30392	
4266	0	30280	
4267	0	30208	
4268	0	30176	
4269	0	30180	
4270	0	30164	
4271	0	30140	
4272	0	30128	
4273	0	30116	
4274	0	30088	
4275	0	30064	
4276	0	30092	
4277	0	30124	
4278	0	30088	
4279	0	30060	
4280	0	30062	
4281	0	30056	
4282	0	30036	
4283	0	30030	
4284	0	30040	
4285	0	29976	
4286	0	29924	
4287	0	29920	
4288	0	29932	
4289	0	29944	
4290	0	29950	
4291	0	29936	
4292	0	29936	
4293	0	30008	
4294	0	30068	
4295	0	30100	
4296	0	30144	
4297	0	30212	
4298	0	30218	
4299	0	30192	
4300	0	30216	
4301	0	30212	
4302	0	30248	
4303	0	30288	
4304	0	30328	
4305	0	30360	
4306	0	30434	
4307	0	30496	
4308	0	30488	
4309	0	30444	
4310	0	30424	
4311	0	30372	
4312	0	30338	
4313	0	30384	
4314	0	30400	
4315	0	30484	
4316	0	30540	
4317	0	30544	
4318	0	30548	
4319	0	30600	
4320	0	30700	
4321	0	30720	
4322	0	30688	
4323	0	30708	
4324	0	30704	
4325	0	30684	
4326	0	30688	
4327	0	30660	
4328	0	30632	
4329	0	30664	
4330	0	30724	
4331	0	30724	
4332	0	30764	
4333	0	30880	
4334	0	30932	
4335	0	30846	
4336	0	30820	
4337	0	30788	
4338	0	30760	
4339	0	30760	
4340	0	30820	
4341	0	30876	
4342	0	30900	
4343	0	30856	
4344	0	30868	
4345	0	30964	
4346	0	31036	
4347	0	31052	
4348	0	31056	
4349	0	31076	
4350	0	31020	
4351	0	31020	
4352	0	31052	
4353	0	31084	
4354	0	31104	
4355	0	31082	
4356	0	31064	
4357	0	31040	
4358	0	31016	
4359	0	31064	
4360	0	31104	
4361	0	31148	
4362	0	31180	
4363	0	31168	
4364	0	31196	
4365	0	31156	
4366	0	31152	
4367	0	31184	
4368	0	31184	
4369	0	31156	
4370	0	31168	
4371	0	31248	
4372	0	31276	
4373	0	31276	
4374	0	31278	
4375	0	31280	
4376	0	31316	
4377	0	31328	
4378	0	31348	
4379	0	31412	
4380	0	31424	
4381	0	31412	
4382	0	31400	
4383	0	31412	
4384	0	31452	
4385	0	31500	
4386	0	31592	
4387	0	31648	
4388	0	31700	
4389	0	31700	
4390	0	31652	
4391	0	31608	
4392	0	31586	
4393	0	31552	
4394	0	31520	
4395	0	31472	
4396	0	31456	
4397	0	31500	
4398	0	31536	
4399	0	31512	
4400	0	31496	
4401	0	31488	
4402	0	31504	
4403	0	31484	
4404	0	31460	
4405	0	31456	
4406	0	31424	
4407	0	31424	
4408	0	31432	
4409	0	31456	
4410	0	31448	
4411	0	31476	
4412	0	31536	
4413	0	31552	
4414	0	31544	
4415	0	31628	
4416	0	31696	
4417	0	31680	
4418	0	31704	
4419	0	31740	
4420	0	31748	
4421	0	31768	
4422	0	31788	
4423	0	31772	
4424	0	31784	
4425	0	31828	
4426	0	31904	
4427	0	31956	
4428	0	31924	
4429	0	31904	
4430	0	31904	
4431	0	31940	
4432	0	32032	
4433	0	32164	
4434	0	32272	
4435	0	32472	
4436	0	32744	
4437	0	32964	
4438	0	33096	
4439	0	33218	
4440	0	33296	
4441	0	33332	
4442	0	33328	
4443	0	33316	
4444	0	33336	
4445	0	33400	
4446	0	33496	
4447	0	33620	
4448	0	33692	
4449	0	33672	
4450	0	33680	
4451	0	33776	
4452	0	33836	
4453	0	33872	
4454	0	33860	
4455	0	33892	
4456	0	34024	
4457	0	34196	
4458	0	34368	
4459	0	34496	
4460	0	34632	
4461	0	34720	
4462	0	34764	
4463	0	34784	
4464	0	34720	
4465	0	34664	
4466	0	34720	
4467	0	34776	
4468	0	34868	
4469	0	34960	
4470	0	35048	
4471	0	35148	
4472	0	35200	
4473	0	35132	
4474	0	34932	
4475	0	34760	
4476	0	34668	
4477	0	34552	
4478	0	34376	
4479	0	34184	
4480	0	33932	
4481	0	33696	
4482	0	33468	
4483	0	33352	
4484	0	33332	
4485	0	33256	
4486	0	33052	
4487	0	32968	
4488	0	32956	
4489	0	32950	
4490	0	32912	
4491	0	32860	
4492	0	32856	
4493	0	32828	
4494	0	32752	
4495	0	32672	
4496	0	32556	
4497	0	32416	
4498	0	32344	
4499	0	32240	
4500	0	32196	
4501	0	32240	
4502	0	32232	
4503	0	32116	
4504	0	31968	
4505	0	31880	
4506	0	31822	
4507	0	31816	
4508	0	31752	
4509	0	31596	
4510	0	31436	
4511	0	31272	
4512	0	31192	
4513	0	31138	
4514	0	31104	
4515	0	31052	
4516	0	30960	
4517	0	30908	
4518	0	30884	
4519	0	30864	
4520	0	30864	
4521	0	30868	
4522	0	30860	
4523	0	30888	
4524	0	30944	
4525	0	31040	
4526	0	31070	
4527	0	31032	
4528	0	30980	
4529	0	30960	
4530	0	30956	
4531	0	30988	
4532	0	31040	
4533	0	31092	
4534	0	31124	
4535	0	31148	
4536	0	31168	
4537	0	31164	
4538	0	31152	
4539	0	31100	
4540	0	31060	
4541	0	30998	
4542	0	30968	
4543	0	30984	
4544	0	30992	
4545	0	31000	
4546	0	31036	
4547	0	31100	
4548	0	31120	
4549	0	31160	
4550	0	31228	
4551	0	31240	
4552	0	31260	
4553	0	31284	
4554	0	31328	
4555	0	31320	
4556	0	31308	
4557	0	31348	
4558	0	31400	
4559	0	31432	
4560	0	31480	
4561	0	31496	
4562	0	31520	
4563	0	31608	
4564	0	31644	
4565	0	31664	
4566	0	31610	
4567	0	31544	
4568	0	31432	
4569	0	31352	
4570	0	31256	
4571	0	31100	
4572	0	30880	
4573	0	30700	
4574	0	30616	
4575	0	30554	
4576	0	30572	
4577	0	30652	
4578	0	30856	
4579	0	31182	
4580	0	31640	
4581	0	32216	
4582	0	32976	
4583	0	33860	
4584	0	34784	
4585	0	35952	
4586	0	37412	
4587	0	39148	
4588	0	40952	
4589	0	42704	
4590	0	44456	
4591	0	46332	
4592	0	48236	
4593	0	50200	
4594	0	52076	
4595	0	53664	
4596	0	55096	
4597	0	56456	
4598	0	57764	
4599	0	59024	
4600	0	60216	
4601	0	61292	
4602	0	62244	
4603	0	62920	
4604	0	63152	
4605	0	62448	
4606	0	60728	
4607	0	58160	
4608	0	54816	
4609	0	51104	
4610	0	47280	
4611	0	43112	
4612	0	38408	
4613	0	33640	
4614	0	29664	
4615	0	26786	
4616	0	25064	
4617	0	24244	
4618	0	24084	
4619	0	24352	
4620	0	24664	
4621	0	24912	
4622	0	25136	
4623	0	25342	
4624	0	25648	
4625	0	26060	
4626	0	26488	
4627	0	26860	
4628	0	27224	
4629	0	27680	
4630	0	28120	
4631	0	28520	
4632	0	28794	
4633	0	29068	
4634	0	29336	
4635	0	29572	
4636	0	29724	
4637	0	29804	
4638	0	29812	
4639	0	29808	
4640	0	29800	
4641	0	29776	
4642	0	29698	
4643	0	29648	
4644	0	29600	
4645	0	29620	
4646	0	29612	
4647	0	29620	
4648	0	29632	
4649	0	29592	
4650	0	29568	
4651	0	29652	
4652	0	29716	
4653	0	29672	
4654	0	29652	
4655	0	29684	
4656	0	29748	
4657	0	29832	
4658	0	29932	
4659	0	29956	
4660	0	29952	
4661	0	29920	
4662	0	29864	
4663	0	29908	
4664	0	29984	
4665	0	30020	
4666	0	30028	
4667	0	30056	
4668	0	30040	
4669	0	30104	
4670	0	30128	
4671	0	30112	
4672	0	30140	
4673	0	30192	
4674	0	30272	
4675	0	30300	
4676	0	30324	
4677	0	30376	
4678	0	30396	
4679	0	30448	
4680	0	30564	
4681	0	30672	
4682	0	30744	
4683	0	30788	
4684	0	30860	
4685	0	30900	
4686	0	30908	
4687	0	30934	
4688	0	30884	
4689	0	30852	
4690	0	30856	
4691	0	30908	
4692	0	30984	
4693	0	31068	
4694	0	31068	
4695	0	31020	
4696	0	31040	
4697	0	31112	
4698	0	31200	
4699	0	31224	
4700	0	31266	
4701	0	31322	
4702	0	31384	
4703	0	31444	
4704	0	31484	
4705	0	31552	
4706	0	31596	
4707	0	31616	
4708	0	31596	
4709	0	31664	
4710	0	31724	
4711	0	31728	
4712	0	31712	
4713	0	31676	
4714	0	31704	
4715	0	31712	
4716	0	31712	
4717	0	31752	
4718	0	31776	
4719	0	31794	
4720	0	31808	
4721	0	31824	
4722	0	31880	
4723	0	31940	
4724	0	32020	
4725	0	32128	
4726	0	32192	
4727	0	32280	
4728	0	32292	
4729	0	32276	
4730	0	32245	
4731	0	32256	
4732	0	32312	
4733	0	32414	
4734	0	32508	
4735	0	32592	
4736	0	32680	
4737	0	32676	
4738	0	32628	
4739	0	32676	
4740	0	32776	
4741	0	32796	
4742	0	32824	
4743	0	32880	
4744	0	32916	
4745	0	32956	
4746	0	32964	
4747	0	32952	
4748	0	32984	
4749	0	33044	
4750	0	33076	
4751	0	33128	
4752	0	33200	
4753	0	33240	
4754	0	33256	
4755	0	33304	
4756	0	33368	
4757	0	33396	
4758	0	33428	
4759	0	33504	
4760	0	33552	
4761	0	33592	
4762	0	33656	
4763	0	33700	
4764	0	33696	
4765	0	33724	
4766	0	33768	
4767	0	33824	
4768	0	33868	
4769	0	33964	
4770	0	34066	
4771	0	34116	
4772	0	34150	
4773	0	34202	
4774	0	34256	
4775	0	34332	
4776	0	34428	
4777	0	34560	
4778	0	34620	
4779	0	34688	
4780	0	34736	
4781	0	34712	
4782	0	34664	
4783	0	34632	
4784	0	34636	
4785	0	34684	
4786	0	34752	
4787	0	34812	
4788	0	34892	
4789	0	35008	
4790	0	35144	
4791	0	35212	
4792	0	35216	
4793	0	35220	
4794	0	35212	
4795	0	35274	
4796	0	35316	
4797	0	35344	
4798	0	35388	
4799	0	35480	
4800	0	35488	
4801	0	35504	
4802	0	35580	
4803	0	35688	
4804	0	35768	
4805	0	35804	
4806	0	35820	
4807	0	35866	
4808	0	35872	
4809	0	35904	
4810	0	35972	
4811	0	36018	
4812	0	36048	
4813	0	36036	
4814	0	36084	
4815	0	36136	
4816	0	36172	
4817	0	36256	
4818	0	36308	
4819	0	36332	
4820	0	36384	
4821	0	36448	
4822	0	36484	
4823	0	36468	
4824	0	36464	
4825	0	36508	
4826	0	36572	
4827	0	36616	
4828	0	36640	
4829	0	36680	
4830	0	36762	
4831	0	36804	
4832	0	36784	
4833	0	36760	
4834	0	36780	
4835	0	36796	
4836	0	36796	
4837	0	36776	
4838	0	36784	
4839	0	36802	
4840	0	36720	
4841	0	36588	
4842	0	36484	
4843	0	36368	
4844	0	36256	
4845	0	36164	
4846	0	36056	
4847	0	35952	
4848	0	35860	
4849	0	35756	
4850	0	35616	
4851	0	35496	
4852	0	35360	
4853	0	35168	
4854	0	35024	
4855	0	34904	
4856	0	34764	
4857	0	34592	
4858	0	34400	
4859	0	34220	
4860	0	34088	
4861	0	33960	
4862	0	33816	
4863	0	33624	
4864	0	33456	
4865	0	33336	
4866	0	33196	
4867	0	33080	
4868	0	32968	
4869	0	32856	
4870	0	32712	
4871	0	32488	
4872	0	32348	
4873	0	32212	
4874	0	32044	
4875	0	31932	
4876	0	31804	
4877	0	31656	
4878	0	31530	
4879	0	31424	
4880	0	31328	
4881	0	31212	
4882	0	31128	
4883	0	31064	
4884	0	31048	
4885	0	31020	
4886	0	30948	
4887	0	30864	
4888	0	30778	
4889	0	30696	
4890	0	30644	
4891	0	30572	
4892	0	30476	
4893	0	30408	
4894	0	30364	
4895	0	30304	
4896	0	30232	
4897	0	30220	
4898	0	30216	
4899	0	30224	
4900	0	30208	
4901	0	30212	
4902	0	30184	
4903	0	30176	
4904	0	30160	
4905	0	30108	
4906	0	30076	
4907	0	30048	
4908	0	30048	
4909	0	30080	
4910	0	30052	
4911	0	29994	
4912	0	30004	
4913	0	30072	
4914	0	30136	
4915	0	30152	
4916	0	30188	
4917	0	30172	
4918	0	30124	
4919	0	30100	
4920	0	30180	
4921	0	30244	
4922	0	30280	
4923	0	30332	
4924	0	30414	
4925	0	30412	
4926	0	30424	
4927	0	30376	
4928	0	30372	
4929	0	30384	
4930	0	30386	
4931	0	30426	
4932	0	30488	
4933	0	30504	
4934	0	30536	
4935	0	30540	
4936	0	30548	
4937	0	30594	
4938	0	30652	
4939	0	30642	
4940	0	30692	
4941	0	30730	
4942	0	30734	
4943	0	30776	
4944	0	30788	
4945	0	30840	
4946	0	30864	
4947	0	30852	
4948	0	30872	
4949	0	30924	
4950	0	30984	
4951	0	30972	
4952	0	30954	
4953	0	30944	
4954	0	30948	
4955	0	30976	
4956	0	31000	
4957	0	31020	
4958	0	31008	
4959	0	30968	
4960	0	30952	
4961	0	30948	
4962	0	30988	
4963	0	31036	
4964	0	31072	
4965	0	31076	
4966	0	31080	
4967	0	31112	
4968	0	31120	
4969	0	31148	
4970	0	31146	
4971	0	31116	
4972	0	31140	
4973	0	31212	
4974	0	31324	
4975	0	31376	
4976	0	31400	
4977	0	31476	
4978	0	31480	
4979	0	31508	
4980	0	31548	
4981	0	31552	
4982	0	31528	
4983	0	31512	
4984	0	31500	
4985	0	31552	
4986	0	31616	
4987	0	31624	
4988	0	31580	
4989	0	31540	
4990	0	31508	
4991	0	31490	
4992	0	31526	
4993	0	31576	
4994	0	31580	
4995	0	31580	
4996	0	31640	
4997	0	31674	
4998	0	31688	
4999	0	31664	
5000	0	31608	
5001	0	31524	
5002	0	31470	
5003	0	31496	
5004	0	31528	
5005	0	31568	
5006	0	31560	
5007	0	31564	
5008	0	31600	
5009	0	31612	
5010	0	31636	
5011	0	31620	
5012	0	31592	
5013	0	31628	
5014	0	31680	
5015	0	31688	
5016	0	31676	
5017	0	31688	
5018	0	31676	
5019	0	31668	
5020	0	31616	
5021	0	31568	
5022	0	31520	
5023	0	31476	
5024	0	31472	
5025	0	31488	
5026	0	31514	
5027	0	31544	
5028	0	31500	
5029	0	31528	
5030	0	31532	
5031	0	31536	
5032	0	31528	
5033	0	31548	
5034	0	31560	
5035	0	31586	
5036	0	31644	
5037	0	31700	
5038	0	31708	
5039	0	31650	
5040	0	31620	
5041	0	31604	
5042	0	31628	
5043	0	31692	
5044	0	31704	
5045	0	31676	
5046	0	31664	
5047	0	31714	
5048	0	31760	
5049	0	31800	
5050	0	31832	
5051	0	31900	
5052	0	32002	
5053	0	32096	
5054	0	32172	
5055	0	32316	
5056	0	32520	
5057	0	32744	
5058	0	32896	
5059	0	33018	
5060	0	33152	
5061	0	33248	
5062	0	33300	
5063	0	33272	
5064	0	33288	
5065	0	33348	
5066	0	33448	
5067	0	33584	
5068	0	33684	
5069	0	33736	
5070	0	33792	
5071	0	33868	
5072	0	33986	
5073	0	34016	
5074	0	34016	
5075	0	34092	
5076	0	34208	
5077	0	34324	
5078	0	34388	
5079	0	34484	
5080	0	34600	
5081	0	34688	
5082	0	34772	
5083	0	34768	
5084	0	34772	
5085	0	34756	
5086	0	34764	
5087	0	34784	
5088	0	34820	
5089	0	34872	
5090	0	34944	
5091	0	34900	
5092	0	34932	
5093	0	34992	
5094	0	34960	
5095	0	34848	
5096	0	34740	
5097	0	34650	
5098	0	34552	
5099	0	34412	
5100	0	34232	
5101	0	34044	
5102	0	33856	
5103	0	33692	
5104	0	33536	
5105	0	33408	
5106	0	33292	
5107	0	33196	
5108	0	33142	
5109	0	33092	
5110	0	33036	
5111	0	32970	
5112	0	32916	
5113	0	32852	
5114	0	32804	
5115	0	32756	
5116	0	32712	
5117	0	32610	
5118	0	32504	
5119	0	32444	
5120	0	32336	
5121	0	32224	
5122	0	32120	
5123	0	32112	
5124	0	32104	
5125	0	32048	
5126	0	31956	
5127	0	31892	
5128	0	31832	
5129	0	31764	
5130	0	31640	
5131	0	31524	
5132	0	31356	
5133	0	31184	
5134	0	31048	
5135	0	30948	
5136	0	30888	
5137	0	30864	
5138	0	30832	
5139	0	30808	
5140	0	30796	
5141	0	30812	
5142	0	30860	
5143	0	30896	
5144	0	30900	
5145	0	30904	
5146	0	30912	
5147	0	30944	
5148	0	30968	
5149	0	31018	
5150	0	31064	
5151	0	31060	
5152	0	31020	
5153	0	31028	
5154	0	31056	
5155	0	31056	
5156	0	31060	
5157	0	31070	
5158	0	31072	
5159	0	31040	
5160	0	30996	
5161	0	31020	
5162	0	31072	
5163	0	31048	
5164	0	30996	
5165	0	30980	
5166	0	31032	
5167	0	31064	
5168	0	31040	
5169	0	31016	
5170	0	31072	
5171	0	31108	
5172	0	31108	
5173	0	31084	
5174	0	31092	
5175	0	31100	
5176	0	31096	
5177	0	31104	
5178	0	31160	
5179	0	31232	
5180	0	31276	
5181	0	31316	
5182	0	31352	
5183	0	31322	
5184	0	31324	
5185	0	31360	
5186	0	31440	
5187	0	31456	
5188	0	31424	
5189	0	31376	
5190	0	31328	
5191	0	31276	
5192	0	31172	
5193	0	31032	
5194	0	30880	
5195	0	30680	
5196	0	30520	
5197	0	30498	
5198	0	30586	
5199	0	30734	
5200	0	30920	
5201	0	31176	
5202	0	31628	
5203	0	32284	
5204	0	33024	
5205	0	33888	
5206	0	34976	
5207	0	36258	
5208	0	37660	
5209	0	39240	
5210	0	40952	
5211	0	42656	
5212	0	44404	
5213	0	46152	
5214	0	47916	
5215	0	49688	
5216	0	51448	
5217	0	53080	
5218	0	54512	
5219	0	55832	
5220	0	57072	
5221	0	58232	
5222	0	59424	
5223	0	60516	
5224	0	61388	
5225	0	61976	
5226	0	62228	
5227	0	61588	
5228	0	59932	
5229	0	57468	
5230	0	54176	
5231	0	50568	
5232	0	46868	
5233	0	42788	
5234	0	38192	
5235	0	33472	
5236	0	29558	
5237	0	26764	
5238	0	25141	
5239	0	24476	
5240	0	24344	
5241	0	24520	
5242	0	24852	
5243	0	25106	
5244	0	25316	
5245	0	25620	
5246	0	26026	
5247	0	26440	
5248	0	26900	
5249	0	27372	
5250	0	27820	
5251	0	28264	
5252	0	28668	
5253	0	29028	
5254	0	29332	
5255	0	29576	
5256	0	29796	
5257	0	29876	
5258	0	29944	
5259	0	29972	
5260	0	29976	
5261	0	29976	
5262	0	29916	
5263	0	29858	
5264	0	29780	
5265	0	29722	
5266	0	29660	
5267	0	29656	
5268	0	29628	
5269	0	29564	
5270	0	29548	
5271	0	29568	
5272	0	29620	
5273	0	29608	
5274	0	29624	
5275	0	29678	
5276	0	29696	
5277	0	29704	
5278	0	29750	
5279	0	29772	
5280	0	29792	
5281	0	29824	
5282	0	29860	
5283	0	29898	
5284	0	29928	
5285	0	29980	
5286	0	30032	
5287	0	30084	
5288	0	30116	
5289	0	30136	
5290	0	30136	
5291	0	30116	
5292	0	30112	
5293	0	30152	
5294	0	30232	
5295	0	30264	
5296	0	30248	
5297	0	30304	
5298	0	30340	
5299	0	30376	
5300	0	30368	
5301	0	30408	
5302	0	30464	
5303	0	30508	
5304	0	30540	
5305	0	30560	
5306	0	30594	
5307	0	30672	
5308	0	30728	
5309	0	30772	
5310	0	30776	
5311	0	30800	
5312	0	30824	
5313	0	30858	
5314	0	30892	
5315	0	30956	
5316	0	31068	
5317	0	31120	
5318	0	31120	
5319	0	31108	
5320	0	31136	
5321	0	31192	
5322	0	31290	
5323	0	31365	
5324	0	31380	
5325	0	31304	
5326	0	31220	
5327	0	31272	
5328	0	31340	
5329	0	31368	
5330	0	31368	
5331	0	31372	
5332	0	31416	
5333	0	31450	
5334	0	31456	
5335	0	31496	
5336	0	31548	
5337	0	31584	
5338	0	31608	
5339	0	31628	
5340	0	31704	
5341	0	31748	
5342	0	31792	
5343	0	31812	
5344	0	31844	
5345	0	31900	
5346	0	31944	
5347	0	31996	
5348	0	32064	
5349	0	32148	
5350	0	32200	
5351	0	32224	
5352	0	32248	
5353	0	32328	
5354	0	32392	
5355	0	32456	
5356	0	32544	
5357	0	32544	
5358	0	32520	
5359	0	32496	
5360	0	32480	
5361	0	32496	
5362	0	32544	
5363	0	32592	
5364	0	32624	
5365	0	32652	
5366	0	32680	
5367	0	32680	
5368	0	32716	
5369	0	32778	
5370	0	32824	
5371	0	32858	
5372	0	32884	
5373	0	32916	
5374	0	32988	
5375	0	33082	
5376	0	33172	
5377	0	33280	
5378	0	33346	
5379	0	33384	
5380	0	33400	
5381	0	33444	
5382	0	33524	
5383	0	33592	
5384	0	33592	
5385	0	33652	
5386	0	33740	
5387	0	33812	
5388	0	33856	
5389	0	33844	
5390	0	33852	
5391	0	33928	
5392	0	33996	
5393	0	34042	
5394	0	34072	
5395	0	34112	
5396	0	34192	
5397	0	34260	
5398	0	34288	
5399	0	34372	
5400	0	34380	
5401	0	34356	
5402	0	34408	
5403	0	34492	
5404	0	34612	
5405	0	34768	
5406	0	34900	
5407	0	34956	
5408	0	34944	
5409	0	34944	
5410	0	34976	
5411	0	34976	
5412	0	34972	
5413	0	35008	
5414	0	35072	
5415	0	35148	
5416	0	35240	
5417	0	35328	
5418	0	35400	
5419	0	35404	
5420	0	35400	
5421	0	35420	
5422	0	35472	
5423	0	35536	
5424	0	35576	
5425	0	35656	
5426	0	35720	
5427	0	35800	
5428	0	35864	
5429	0	35872	
5430	0	35892	
5431	0	35912	
5432	0	35896	
5433	0	35900	
5434	0	35976	
5435	0	36056	
5436	0	36108	
5437	0	36188	
5438	0	36256	
5439	0	36260	
5440	0	36292	
5441	0	36320	
5442	0	36292	
5443	0	36316	
5444	0	36344	
5445	0	36400	
5446	0	36468	
5447	0	36508	
5448	0	36516	
5449	0	36498	
5450	0	36456	
5451	0	36412	
5452	0	36398	
5453	0	36400	
5454	0	36436	
5455	0	36504	
5456	0	36480	
5457	0	36432	
5458	0	36380	
5459	0	36364	
5460	0	36368	
5461	0	36344	
5462	0	36316	
5463	0	36308	
5464	0	36256	
5465	0	36152	
5466	0	36088	
5467	0	36004	
5468	0	35880	
5469	0	35792	
5470	0	35664	
5471	0	35500	
5472	0	35386	
5473	0	35260	
5474	0	35076	
5475	0	34916	
5476	0	34756	
5477	0	34624	
5478	0	34488	
5479	0	34312	
5480	0	34124	
5481	0	34004	
5482	0	33892	
5483	0	33760	
5484	0	33640	
5485	0	33464	
5486	0	33312	
5487	0	33168	
5488	0	33018	
5489	0	32864	
5490	0	32720	
5491	0	32560	
5492	0	32364	
5493	0	32228	
5494	0	32104	
5495	0	31948	
5496	0	31778	
5497	0	31636	
5498	0	31540	
5499	0	31440	
5500	0	31304	
5501	0	31148	
5502	0	31052	
5503	0	30990	
5504	0	30884	
5505	0	30782	
5506	0	30704	
5507	0	30644	
5508	0	30584	
5509	0	30528	
5510	0	30448	
5511	0	30360	
5512	0	30284	
5513	0	30252	
5514	0	30236	
5515	0	30214	
5516	0	30144	
5517	0	30148	
5518	0	30160	
5519	0	30124	
5520	0	30112	
5521	0	30088	
5522	0	30060	
5523	0	30064	
5524	0	30048	
5525	0	29992	
5526	0	29972	
5527	0	30000	
5528	0	30016	
5529	0	30036	
5530	0	30040	
5531	0	30044	
5532	0	29992	
5533	0	29968	
5534	0	30008	
5535	0	30046	
5536	0	30080	
5537	0	30132	
5538	0	30124	
5539	0	30158	
5540	0	30172	
5541	0	30144	
5542	0	30128	
5543	0	30160	
5544	0	30202	
5545	0	30248	
5546	0	30292	
5547	0	30288	
5548	0	30244	
5549	0	30240	
5550	0	30260	
5551	0	30320	
5552	0	30348	
5553	0	30332	
5554	0	30308	
5555	0	30320	
5556	0	30376	
5557	0	30452	
5558	0	30536	
5559	0	30576	
5560	0	30592	
5561	0	30596	
5562	0	30592	
5563	0	30596	
5564	0	30586	
5565	0	30576	
5566	0	30612	
5567	0	30600	
5568	0	30596	
5569	0	30612	
5570	0	30640	
5571	0	30664	
5572	0	30692	
5573	0	30740	
5574	0	30776	
5575	0	30808	
5576	0	30816	
5577	0	30852	
5578	0	30880	
5579	0	30872	
5580	0	30876	
5581	0	30984	
5582	0	31108	
5583	0	31112	
5584	0	31076	
5585	0	31052	
5586	0	31032	
5587	0	31040	
5588	0	31044	
5589	0	31069	
5590	0	31084	
5591	0	31076	
5592	0	31088	
5593	0	31072	
5594	0	31040	
5595	0	31020	
5596	0	31016	
5597	0	31048	
5598	0	31080	
5599	0	31100	
5600	0	31152	
5601	0	31220	
5602	0	31256	
5603	0	31232	
5604	0	31216	
5605	0	31226	
5606	0	31260	
5607	0	31308	
5608	0	31336	
5609	0	31344	
5610	0	31376	
5611	0	31364	
5612	0	31328	
5613	0	31304	
5614	0	31312	
5615	0	31308	
5616	0	31316	
5617	0	31268	
5618	0	31274	
5619	0	31312	
5620	0	31356	
5621	0	31392	
5622	0	31388	
5623	0	31372	
5624	0	31400	
5625	0	31424	
5626	0	31432	
5627	0	31456	
5628	0	31436	
5629	0	31400	
5630	0	31400	
5631	0	31456	
5632	0	31468	
5633	0	31472	
5634	0	31536	
5635	0	31616	
5636	0	31696	
5637	0	31704	
5638	0	31712	
5639	0	31708	
5640	0	31708	
5641	0	31692	
5642	0	31688	
5643	0	31688	
5644	0	31682	
5645	0	31636	
5646	0	31616	
5647	0	31578	
5648	0	31520	
5649	0	31470	
5650	0	31480	
5651	0	31540	
5652	0	31586	
5653	0	31584	
5654	0	31612	
5655	0	31624	
5656	0	31684	
5657	0	31712	
5658	0	31706	
5659	0	31692	
5660	0	31664	
5661	0	31636	
5662	0	31644	
5663	0	31672	
5664	0	31732	
5665	0	31772	
5666	0	31828	
5667	0	31872	
5668	0	31944	
5669	0	31992	
5670	0	32028	
5671	0	32044	
5672	0	32032	
5673	0	32064	
5674	0	32140	
5675	0	32256	
5676	0	32448	
5677	0	32664	
5678	0	32872	
5679	0	33068	
5680	0	33216	
5681	0	33348	
5682	0	33504	
5683	0	33588	
5684	0	33560	
5685	0	33520	
5686	0	33540	
5687	0	33596	
5688	0	33656	
5689	0	33740	
5690	0	33804	
5691	0	33832	
5692	0	33840	
5693	0	33852	
5694	0	33872	
5695	0	33952	
5696	0	34092	
5697	0	34200	
5698	0	34312	
5699	0	34404	
5700	0	34496	
5701	0	34588	
5702	0	34652	
5703	0	34714	
5704	0	34736	
5705	0	34736	
5706	0	34696	
5707	0	34632	
5708	0	34624	
5709	0	34660	
5710	0	34712	
5711	0	34800	
5712	0	34868	
5713	0	34888	
5714	0	34892	
5715	0	34820	
5716	0	34672	
5717	0	34500	
5718	0	34380	
5719	0	34316	
5720	0	34232	
5721	0	34064	
5722	0	33922	
5723	0	33736	
5724	0	33540	
5725	0	33372	
5726	0	33232	
5727	0	33144	
5728	0	33056	
5729	0	32976	
5730	0	32916	
5731	0	32816	
5732	0	32756	
5733	0	32708	
5734	0	32728	
5735	0	32704	
5736	0	32728	
5737	0	32676	
5738	0	32572	
5739	0	32480	
5740	0	32392	
5741	0	32296	
5742	0	32165	
5743	0	32092	
5744	0	32076	
5745	0	32084	
5746	0	32032	
5747	0	31932	
5748	0	31816	
5749	0	31680	
5750	0	31576	
5751	0	31452	
5752	0	31304	
5753	0	31178	
5754	0	31048	
5755	0	30920	
5756	0	30832	
5757	0	30786	
5758	0	30740	
5759	0	30720	
5760	0	30692	
5761	0	30688	
5762	0	30672	
5763	0	30664	
5764	0	30704	
5765	0	30712	
5766	0	30712	
5767	0	30722	
5768	0	30736	
5769	0	30812	
5770	0	30864	
5771	0	30876	
5772	0	30874	
5773	0	30852	
5774	0	30828	
5775	0	30848	
5776	0	30876	
5777	0	30896	
5778	0	30920	
5779	0	30886	
5780	0	30880	
5781	0	30928	
5782	0	30960	
5783	0	30968	
5784	0	30928	
5785	0	30928	
5786	0	30936	
5787	0	30948	
5788	0	30956	
5789	0	31000	
5790	0	31000	
5791	0	30956	
5792	0	30928	
5793	0	30940	
5794	0	30980	
5795	0	31052	
5796	0	31124	
5797	0	31162	
5798	0	31112	
5799	0	31072	
5800	0	31080	
5801	0	31132	
5802	0	31196	
5803	0	31224	
5804	0	31300	
5805	0	31384	
5806	0	31420	
5807	0	31400	
5808	0	31356	
5809	0	31296	
5810	0	31252	
5811	0	31192	
5812	0	31132	
5813	0	31012	
5814	0	30848	
5815	0	30666	
5816	0	30548	
5817	0	30480	
5818	0	30536	
5819	0	30664	
5820	0	30836	
5821	0	31112	
5822	0	31546	
5823	0	32144	
5824	0	32888	
5825	0	33816	
5826	0	34896	
5827	0	36104	
5828	0	37404	
5829	0	38932	
5830	0	40608	
5831	0	42364	
5832	0	44076	
5833	0	45812	
5834	0	47568	
5835	0	49316	
5836	0	51072	
5837	0	52728	
5838	0	54256	
5839	0	55600	
5840	0	56828	
5841	0	58076	
5842	0	59364	
5843	0	60472	
5844	0	61316	
5845	0	61832	
5846	0	62120	
5847	0	61728	
5848	0	60260	
5849	0	57912	
5850	0	54752	
5851	0	51192	
5852	0	47600	
5853	0	43672	
5854	0	39212	
5855	0	34424	
5856	0	30352	
5857	0	27552	
5858	0	25908	
5859	0	24992	
5860	0	24584	
5861	0	24528	
5862	0	24752	
5863	0	25004	
5864	0	25292	
5865	0	25680	
5866	0	26168	
5867	0	26676	
5868	0	27232	
5869	0	27764	
5870	0	28232	
5871	0	28604	
5872	0	28944	
5873	0	29340	
5874	0	29660	
5875	0	29900	
5876	0	30042	
5877	0	30064	
5878	0	30036	
5879	0	29936	
5880	0	29820	
5881	0	29728	
5882	0	29664	
5883	0	29636	
5884	0	29612	
5885	0	29598	
5886	0	29536	
5887	0	29448	
5888	0	29380	
5889	0	29384	
5890	0	29392	
5891	0	29376	
5892	0	29384	
5893	0	29384	
5894	0	29380	
5895	0	29408	
5896	0	29468	
5897	0	29516	
5898	0	29552	
5899	0	29582	
5900	0	29560	
5901	0	29528	
5902	0	29522	
5903	0	29552	
5904	0	29596	
5905	0	29604	
5906	0	29636	
5907	0	29704	
5908	0	29740	
5909	0	29736	
5910	0	29768	
5911	0	29808	
5912	0	29800	
5913	0	29808	
5914	0	29840	
5915	0	29904	
5916	0	29968	
5917	0	30020	
5918	0	30073	
5919	0	30092	
5920	0	30108	
5921	0	30164	
5922	0	30252	
5923	0	30284	
5924	0	30316	
5925	0	30360	
5926	0	30392	
5927	0	30436	
5928	0	30468	
5929	0	30556	
5930	0	30624	
5931	0	30706	
5932	0	30762	
5933	0	30784	
5934	0	30836	
5935	0	30856	
5936	0	30868	
5937	0	30896	
5938	0	30916	
5939	0	30940	
5940	0	30976	
5941	0	31008	
5942	0	31000	
5943	0	30988	
5944	0	30996	
5945	0	31052	
5946	0	31160	
5947	0	31216	
5948	0	31264	
5949	0	31310	
5950	0	31346	
5951	0	31392	
5952	0	31412	
5953	0	31444	
5954	0	31452	
5955	0	31468	
5956	0	31484	
5957	0	31544	
5958	0	31608	
5959	0	31616	
5960	0	31680	
5961	0	31752	
5962	0	31796	
5963	0	31840	
5964	0	31852	
5965	0	31856	
5966	0	31912	
5967	0	31980	
5968	0	32008	
5969	0	32076	
5970	0	32124	
5971	0	32188	
5972	0	32240	
5973	0	32260	
5974	0	32268	
5975	0	32304	
5976	0	32336	
5977	0	32352	
5978	0	32360	
5979	0	32366	
5980	0	32460	
5981	0	32560	
5982	0	32604	
5983	0	32616	
5984	0	32712	
5985	0	32764	
5986	0	32748	
5987	0	32748	
5988	0	32800	
5989	0	32882	
5990	0	32876	
5991	0	32856	
5992	0	32872	
5993	0	32900	
5994	0	32936	
5995	0	32988	
5996	0	33012	
5997	0	33084	
5998	0	33172	
5999	0	33212	
6000	0	33248	
6001	0	33264	
6002	0	33304	
6003	0	33348	
6004	0	33388	
6005	0	33476	
6006	0	33572	
6007	0	33620	
6008	0	33632	
6009	0	33696	
6010	0	33784	
6011	0	33824	
6012	0	33848	
6013	0	33924	
6014	0	33972	
6015	0	33996	
6016	0	34044	
6017	0	34080	
6018	0	34148	
6019	0	34232	
6020	0	34264	
6021	0	34312	
6022	0	34336	
6023	0	34368	
6024	0	34432	
6025	0	34528	
6026	0	34588	
6027	0	34620	
6028	0	34644	
6029	0	34692	
6030	0	34740	
6031	0	34808	
6032	0	34912	
6033	0	34992	
6034	0	35048	
6035	0	35120	
6036	0	35172	
6037	0	35228	
6038	0	35288	
6039	0	35376	
6040	0	35392	
6041	0	35424	
6042	0	35472	
6043	0	35540	
6044	0	35568	
6045	0	35600	
6046	0	35628	
6047	0	35676	
6048	0	35748	
6049	0	35824	
6050	0	35850	
6051	0	35856	
6052	0	35900	
6053	0	35960	
6054	0	35988	
6055	0	36032	
6056	0	36098	
6057	0	36132	
6058	0	36188	
6059	0	36280	
6060	0	36332	
6061	0	36380	
6062	0	36420	
6063	0	36450	
6064	0	36468	
6065	0	36452	
6066	0	36424	
6067	0	36460	
6068	0	36496	
6069	0	36472	
6070	0	36488	
6071	0	36500	
6072	0	36512	
6073	0	36560	
6074	0	36584	
6075	0	36612	
6076	0	36600	
6077	0	36600	
6078	0	36592	
6079	0	36556	
6080	0	36532	
6081	0	36504	
6082	0	36428	
6083	0	36332	
6084	0	36224	
6085	0	36120	
6086	0	36060	
6087	0	35976	
6088	0	35856	
6089	0	35704	
6090	0	35616	
6091	0	35528	
6092	0	35448	
6093	0	35304	
6094	0	35136	
6095	0	34972	
6096	0	34840	
6097	0	34660	
6098	0	34492	
6099	0	34348	
6100	0	34176	
6101	0	34016	
6102	0	33892	
6103	0	33746	
6104	0	33592	
6105	0	33448	
6106	0	33268	
6107	0	33128	
6108	0	33000	
6109	0	32836	
6110	0	32664	
6111	0	32524	
6112	0	32376	
6113	0	32218	
6114	0	32044	
6115	0	31928	
6116	0	31820	
6117	0	31688	
6118	0	31620	
6119	0	31488	
6120	0	31356	
6121	0	31229	
6122	0	31152	
6123	0	31108	
6124	0	31056	
6125	0	30964	
6126	0	30896	
6127	0	30860	
6128	0	30780	
6129	0	30728	
6130	0	30648	
6131	0	30564	
6132	0	30498	
6133	0	30480	
6134	0	30460	
6135	0	30428	
6136	0	30356	
6137	0	30292	
6138	0	30272	
6139	0	30284	
6140	0	30256	
6141	0	30224	
6142	0	30228	
6143	0	30260	
6144	0	30220	
6145	0	30170	
6146	0	30176	
6147	0	30184	
6148	0	30172	
6149	0	30172	
6150	0	30152	
6151	0	30144	
6152	0	30150	
6153	0	30188	
6154	0	30180	
6155	0	30168	
6156	0	30176	
6157	0	30208	
6158	0	30288	
6159	0	30320	
6160	0	30308	
6161	0	30328	
6162	0	30380	
6163	0	30368	
6164	0	30316	
6165	0	30328	
6166	0	30384	
6167	0	30432	
6168	0	30444	
6169	0	30440	
6170	0	30464	
6171	0	30480	
6172	0	30500	
6173	0	30476	
6174	0	30496	
6175	0	30532	
6176	0	30556	
6177	0	30592	
6178	0	30632	
6179	0	30624	
6180	0	30672	
6181	0	30706	
6182	0	30704	
6183	0	30720	
6184	0	30762	
6185	0	30804	
6186	0	30816	
6187	0	30798	
6188	0	30836	
6189	0	30848	
6190	0	30860	
6191	0	30880	
6192	0	30880	
6193	0	30884	
6194	0	30936	
6195	0	30972	
6196	0	30998	
6197	0	30996	
6198	0	30984	
6199	0	31004	
6200	0	31040	
6201	0	31062	
6202	0	31052	
6203	0	31044	
6204	0	31074	
6205	0	31116	
6206	0	31156	
6207	0	31144	
6208	0	31098	
6209	0	31112	
6210	0	31160	
6211	0	31212	
6212	0	31224	
6213	0	31220	
6214	0	31288	
6215	0	31340	
6216	0	31328	
6217	0	31330	
6218	0	31332	
6219	0	31300	
6220	0	31292	
6221	0	31368	
6222	0	31420	
6223	0	31456	
6224	0	31460	
6225	0	31496	
6226	0	31488	
6227	0	31476	
6228	0	31500	
6229	0	31536	
6230	0	31556	
6231	0	31548	
6232	0	31504	
6233	0	31476	
6234	0	31460	
6235	0	31452	
6236	0	31464	
6237	0	31456	
6238	0	31500	
6239	0	31544	
6240	0	31512	
6241	0	31504	
6242	0	31504	
6243	0	31544	
6244	0	31536	
6245	0	31528	
6246	0	31532	
6247	0	31516	
6248	0	31536	
6249	0	31540	
6250	0	31560	
6251	0	31576	
6252	0	31576	
6253	0	31548	
6254	0	31528	
6255	0	31596	
6256	0	31636	
6257	0	31652	
6258	0	31680	
6259	0	31686	
6260	0	31692	
6261	0	31712	
6262	0	31704	
6263	0	31676	
6264	0	31696	
6265	0	31712	
6266	0	31736	
6267	0	31776	
6268	0	31796	
6269	0	31840	
6270	0	31852	
6271	0	31876	
6272	0	31884	
6273	0	31848	
6274	0	31788	
6275	0	31784	
6276	0	31804	
6277	0	31796	
6278	0	31772	
6279	0	31812	
6280	0	31824	
6281	0	31840	
6282	0	31864	
6283	0	31912	
6284	0	31932	
6285	0	31970	
6286	0	31988	
6287	0	32048	
6288	0	32108	
6289	0	32144	
6290	0	32176	
6291	0	32256	
6292	0	32388	
6293	0	32520	
6294	0	32748	
6295	0	32986	
6296	0	33124	
6297	0	33256	
6298	0	33416	
6299	0	33544	
6300	0	33624	
6301	0	33652	
6302	0	33628	
6303	0	33648	
6304	0	33692	
6305	0	33748	
6306	0	33848	
6307	0	33960	
6308	0	34016	
6309	0	34020	
6310	0	34052	
6311	0	34112	
6312	0	34176	
6313	0	34260	
6314	0	34380	
6315	0	34496	
6316	0	34564	
6317	0	34624	
6318	0	34712	
6319	0	34776	
6320	0	34840	
6321	0	34880	
6322	0	34880	
6323	0	34852	
6324	0	34844	
6325	0	34844	
6326	0	34860	
6327	0	34904	
6328	0	34892	
6329	0	34912	
6330	0	34948	
6331	0	34952	
6332	0	34896	
6333	0	34834	
6334	0	34720	
6335	0	34556	
6336	0	34412	
6337	0	34344	
6338	0	34228	
6339	0	34040	
6340	0	33868	
6341	0	33642	
6342	0	33452	
6343	0	33290	
6344	0	33218	
6345	0	33136	
6346	0	33040	
6347	0	32936	
6348	0	32880	
6349	0	32816	
6350	0	32744	
6351	0	32712	
6352	0	32716	
6353	0	32704	
6354	0	32660	
6355	0	32608	
6356	0	32560	
6357	0	32506	
6358	0	32424	
6359	0	32288	
6360	0	32216	
6361	0	32208	
6362	0	32172	
6363	0	32088	
6364	0	32004	
6365	0	31944	
6366	0	31848	
6367	0	31714	
6368	0	31608	
6369	0	31544	
6370	0	31404	
6371	0	31200	
6372	0	31032	
6373	0	30892	
6374	0	30844	
6375	0	30832	
6376	0	30816	
6377	0	30756	
6378	0	30728	
6379	0	30712	
6380	0	30744	
6381	0	30768	
6382	0	30760	
6383	0	30728	
6384	0	30736	
6385	0	30724	
6386	0	30724	
6387	0	30732	
6388	0	30754	
6389	0	30792	
6390	0	30832	
6391	0	30864	
6392	0	30880	
6393	0	30924	
6394	0	30962	
6395	0	30960	
6396	0	30960	
6397	0	30960	
6398	0	30988	
6399	0	30996	
6400	0	31004	
6401	0	30972	
6402	0	30936	
6403	0	30948	
6404	0	30984	
6405	0	31024	
6406	0	31028	
6407	0	31036	
6408	0	31044	
6409	0	31068	
6410	0	31120	
6411	0	31128	
6412	0	31078	
6413	0	31072	
6414	0	31100	
6415	0	31148	
6416	0	31200	
6417	0	31244	
6418	0	31264	
6419	0	31276	
6420	0	31264	
6421	0	31250	
6422	0	31298	
6423	0	31336	
6424	0	31372	
6425	0	31376	
6426	0	31348	
6427	0	31256	
6428	0	31172	
6429	0	31094	
6430	0	30976	
6431	0	30836	
6432	0	30644	
6433	0	30448	
6434	0	30336	
6435	0	30366	
6436	0	30472	
6437	0	30600	
6438	0	30868	
6439	0	31328	
6440	0	31892	
6441	0	32616	
6442	0	33496	
6443	0	34560	
6444	0	35760	
6445	0	36976	
6446	0	38380	
6447	0	40044	
6448	0	41816	
6449	0	43552	
6450	0	45256	
6451	0	46938	
6452	0	48648	
6453	0	50368	
6454	0	52096	
6455	0	53720	
6456	0	55200	
6457	0	56524	
6458	0	57868	
6459	0	59216	
6460	0	60372	
6461	0	61272	
6462	0	61892	
6463	0	62324	
6464	0	62324	
6465	0	61240	
6466	0	59080	
6467	0	56088	
6468	0	52592	
6469	0	49000	
6470	0	45252	
6471	0	41008	
6472	0	36320	
6473	0	32148	
6474	0	29108	
6475	0	27056	
6476	0	25800	
6477	0	25128	
6478	0	24900	
6479	0	25004	
6480	0	25164	
6481	0	25430	
6482	0	25834	
6483	0	26356	
6484	0	26936	
6485	0	27512	
6486	0	28060	
6487	0	28540	
6488	0	28920	
6489	0	29280	
6490	0	29604	
6491	0	29816	
6492	0	29920	
6493	0	29976	
6494	0	29992	
6495	0	29980	
6496	0	29908	
6497	0	29824	
6498	0	29712	
6499	0	29624	
6500	0	29576	
6501	0	29528	
6502	0	29504	
6503	0	29448	
6504	0	29398	
6505	0	29360	
6506	0	29392	
6507	0	29400	
6508	0	29400	
6509	0	29412	
6510	0	29384	
6511	0	29396	
6512	0	29412	
6513	0	29376	
6514	0	29364	
6515	0	29344	
6516	0	29376	
6517	0	29436	
6518	0	29504	
6519	0	29488	
6520	0	29496	
6521	0	29512	
6522	0	29576	
6523	0	29604	
6524	0	29600	
6525	0	29652	
6526	0	29682	
6527	0	29732	
6528	0	29786	
6529	0	29824	
6530	0	29864	
6531	0	29932	
6532	0	30024	
6533	0	30064	
6534	0	30042	
6535	0	30044	
6536	0	30112	
6537	0	30172	
6538	0	30202	
6539	0	30228	
6540	0	30264	
6541	0	30308	
6542	0	30332	
6543	0	30376	
6544	0	30436	
6545	0	30536	
6546	0	30584	
6547	0	30600	
6548	0	30664	
6549	0	30716	
6550	0	30744	
6551	0	30772	
6552	0	30768	
6553	0	30768	
6554	0	30800	
6555	0	30832	
6556	0	30872	
6557	0	30896	
6558	0	30914	
6559	0	30940	
6560	0	30982	
6561	0	31032	
6562	0	31072	
6563	0	31096	
6564	0	31140	
6565	0	31168	
6566	0	31188	
6567	0	31224	
6568	0	31248	
6569	0	31304	
6570	0	31380	
6571	0	31388	
6572	0	31392	
6573	0	31396	
6574	0	31424	
6575	0	31448	
6576	0	31514	
6577	0	31560	
6578	0	31608	
6579	0	31624	
6580	0	31692	
6581	0	31768	
6582	0	31816	
6583	0	31844	
6584	0	31860	
6585	0	31884	
6586	0	31936	
6587	0	31954	
6588	0	31964	
6589	0	31976	
6590	0	32012	
6591	0	32088	
6592	0	32120	
6593	0	32116	
6594	0	32124	
6595	0	32162	
6596	0	32232	
6597	0	32312	
6598	0	32372	
6599	0	32424	
6600	0	32416	
6601	0	32416	
6602	0	32468	
6603	0	32524	
6604	0	32586	
6605	0	32632	
6606	0	32692	
6607	0	32756	
6608	0	32784	
6609	0	32800	
6610	0	32808	
6611	0	32860	
6612	0	32924	
6613	0	32986	
6614	0	33056	
6615	0	33144	
6616	0	33196	
6617	0	33216	
6618	0	33256	
6619	0	33298	
6620	0	33340	
6621	0	33440	
6622	0	33536	
6623	0	33582	
6624	0	33620	
6625	0	33680	
6626	0	33732	
6627	0	33752	
6628	0	33816	
6629	0	33888	
6630	0	33924	
6631	0	33976	
6632	0	34024	
6633	0	34092	
6634	0	34132	
6635	0	34154	
6636	0	34204	
6637	0	34308	
6638	0	34380	
6639	0	34460	
6640	0	34496	
6641	0	34556	
6642	0	34576	
6643	0	34608	
6644	0	34656	
6645	0	34716	
6646	0	34792	
6647	0	34872	
6648	0	34900	
6649	0	34948	
6650	0	35000	
6651	0	35040	
6652	0	35094	
6653	0	35168	
6654	0	35242	
6655	0	35348	
6656	0	35388	
6657	0	35420	
6658	0	35472	
6659	0	35516	
6660	0	35560	
6661	0	35616	
6662	0	35668	
6663	0	35684	
6664	0	35764	
6665	0	35800	
6666	0	35824	
6667	0	35880	
6668	0	35936	
6669	0	35990	
6670	0	36012	
6671	0	36008	
6672	0	36012	
6673	0	36056	
6674	0	36084	
6675	0	36124	
6676	0	36172	
6677	0	36216	
6678	0	36216	
6679	0	36256	
6680	0	36296	
6681	0	36344	
6682	0	36376	
6683	0	36404	
6684	0	36400	
6685	0	36440	
6686	0	36464	
6687	0	36464	
6688	0	36468	
6689	0	36484	
6690	0	36496	
6691	0	36500	
6692	0	36500	
6693	0	36484	
6694	0	36476	
6695	0	36456	
6696	0	36416	
6697	0	36416	
6698	0	36408	
6699	0	36364	
6700	0	36286	
6701	0	36192	
6702	0	36116	
6703	0	36004	
6704	0	35896	
6705	0	35800	
6706	0	35648	
6707	0	35508	
6708	0	35348	
6709	0	35236	
6710	0	35116	
6711	0	34984	
6712	0	34836	
6713	0	34648	
6714	0	34480	
6715	0	34372	
6716	0	34252	
6717	0	34088	
6718	0	33976	
6719	0	33848	
6720	0	33696	
6721	0	33528	
6722	0	33364	
6723	0	33204	
6724	0	33026	
6725	0	32856	
6726	0	32716	
6727	0	32588	
6728	0	32480	
6729	0	32332	
6730	0	32164	
6731	0	32040	
6732	0	31956	
6733	0	31828	
6734	0	31680	
6735	0	31576	
6736	0	31472	
6737	0	31372	
6738	0	31278	
6739	0	31192	
6740	0	31108	
6741	0	31028	
6742	0	30976	
6743	0	30920	
6744	0	30840	
6745	0	30776	
6746	0	30720	
6747	0	30668	
6748	0	30604	
6749	0	30496	
6750	0	30452	
6751	0	30408	
6752	0	30396	
6753	0	30340	
6754	0	30316	
6755	0	30308	
6756	0	30272	
6757	0	30240	
6758	0	30240	
6759	0	30240	
6760	0	30224	
6761	0	30224	
6762	0	30248	
6763	0	30256	
6764	0	30232	
6765	0	30212	
6766	0	30204	
6767	0	30200	
6768	0	30192	
6769	0	30210	
6770	0	30252	
6771	0	30272	
6772	0	30244	
6773	0	30208	
6774	0	30208	
6775	0	30212	
6776	0	30200	
6777	0	30220	
6778	0	30276	
6779	0	30332	
6780	0	30396	
6781	0	30318	
6782	0	30288	
6783	0	30312	
6784	0	30378	
6785	0	30388	
6786	0	30388	
6787	0	30416	
6788	0	30452	
6789	0	30480	
6790	0	30496	
6791	0	30528	
6792	0	30528	
6793	0	30544	
6794	0	30604	
6795	0	30648	
6796	0	30668	
6797	0	30652	
6798	0	30644	
6799	0	30704	
6800	0	30752	
6801	0	30808	
6802	0	30812	
6803	0	30782	
6804	0	30796	
6805	0	30836	
6806	0	30872	
6807	0	30888	
6808	0	30912	
6809	0	30924	
6810	0	30948	
6811	0	30960	
6812	0	30964	
6813	0	30956	
6814	0	30962	
6815	0	30970	
6816	0	30992	
6817	0	30988	
6818	0	30989	
6819	0	31008	
6820	0	31040	
6821	0	31064	
6822	0	31076	
6823	0	31090	
6824	0	31072	
6825	0	31092	
6826	0	31096	
6827	0	31140	
6828	0	31192	
6829	0	31200	
6830	0	31200	
6831	0	31208	
6832	0	31232	
6833	0	31242	
6834	0	31272	
6835	0	31288	
6836	0	31288	
6837	0	31304	
6838	0	31296	
6839	0	31248	
6840	0	31216	
6841	0	31202	
6842	0	31264	
6843	0	31364	
6844	0	31368	
6845	0	31408	
6846	0	31440	
6847	0	31436	
6848	0	31424	
6849	0	31444	
6850	0	31482	
6851	0	31452	
6852	0	31448	
6853	0	31456	
6854	0	31496	
6855	0	31512	
6856	0	31508	
6857	0	31516	
6858	0	31532	
6859	0	31544	
6860	0	31520	
6861	0	31516	
6862	0	31536	
6863	0	31544	
6864	0	31556	
6865	0	31560	
6866	0	31560	
6867	0	31552	
6868	0	31572	
6869	0	31580	
6870	0	31604	
6871	0	31636	
6872	0	31648	
6873	0	31648	
6874	0	31652	
6875	0	31668	
6876	0	31688	
6877	0	31700	
6878	0	31672	
6879	0	31656	
6880	0	31704	
6881	0	31732	
6882	0	31720	
6883	0	31722	
6884	0	31696	
6885	0	31688	
6886	0	31658	
6887	0	31680	
6888	0	31736	
6889	0	31752	
6890	0	31746	
6891	0	31736	
6892	0	31752	
6893	0	31760	
6894	0	31772	
6895	0	31778	
6896	0	31792	
6897	0	31762	
6898	0	31740	
6899	0	31752	
6900	0	31750	
6901	0	31756	
6902	0	31832	
6903	0	31884	
6904	0	31884	
6905	0	31908	
6906	0	31946	
6907	0	31956	
6908	0	32000	
6909	0	32014	
6910	0	32012	
6911	0	32048	
6912	0	32120	
6913	0	32184	
6914	0	32244	
6915	0	32324	
6916	0	32456	
6917	0	32612	
6918	0	32788	
6919	0	32962	
6920	0	33180	
6921	0	33368	
6922	0	33530	
6923	0	33652	
6924	0	33656	
6925	0	33656	
6926	0	33632	
6927	0	33672	
6928	0	33776	
6929	0	33924	
6930	0	34048	
6931	0	34108	
6932	0	34178	
6933	0	34200	
6934	0	34236	
6935	0	34288	
6936	0	34332	
6937	0	34432	
6938	0	34580	
6939	0	34668	
6940	0	34736	
6941	0	34788	
6942	0	34888	
6943	0	35008	
6944	0	35080	
6945	0	35088	
6946	0	35052	
6947	0	35004	
6948	0	34916	
6949	0	34864	
6950	0	34896	
6951	0	34972	
6952	0	35008	
6953	0	35058	
6954	0	35088	
6955	0	35104	
6956	0	35104	
6957	0	34996	
6958	0	34832	
6959	0	34664	
6960	0	34500	
6961	0	34332	
6962	0	34144	
6963	0	33912	
6964	0	33720	
6965	0	33504	
6966	0	33314	
6967	0	33228	
6968	0	33144	
6969	0	33056	
6970	0	32976	
6971	0	32922	
6972	0	32912	
6973	0	32888	
6974	0	32836	
6975	0	32800	
6976	0	32760	
6977	0	32690	
6978	0	32604	
6979	0	32532	
6980	0	32488	
6981	0	32420	
6982	0	32282	
6983	0	32164	
6984	0	32096	
6985	0	32032	
6986	0	31960	
6987	0	31928	
6988	0	31856	
6989	0	31736	
6990	0	31660	
6991	0	31572	
6992	0	31440	
6993	0	31264	
6994	0	31132	
6995	0	31032	
6996	0	30936	
6997	0	30836	
6998	0	30784	
6999	0	30752	
7000	0	30700	
7001	0	30696	
7002	0	30727	
7003	0	30736	
7004	0	30728	
7005	0	30748	
7006	0	30768	
7007	0	30776	
7008	0	30792	
7009	0	30812	
7010	0	30804	
7011	0	30804	
7012	0	30812	
7013	0	30856	
7014	0	30868	
7015	0	30890	
7016	0	30912	
7017	0	30880	
7018	0	30864	
7019	0	30852	
7020	0	30900	
7021	0	30932	
7022	0	30928	
7023	0	30912	
7024	0	30880	
7025	0	30876	
7026	0	30884	
7027	0	30884	
7028	0	30884	
7029	0	30888	
7030	0	30906	
7031	0	30920	
7032	0	30928	
7033	0	30932	
7034	0	30944	
7035	0	30996	
7036	0	31040	
7037	0	31064	
7038	0	31072	
7039	0	31100	
7040	0	31124	
7041	0	31136	
7042	0	31164	
7043	0	31172	
7044	0	31196	
7045	0	31220	
7046	0	31244	
7047	0	31264	
7048	0	31296	
7049	0	31288	
7050	0	31216	
7051	0	31136	
7052	0	31042	
7053	0	30944	
7054	0	30792	
7055	0	30656	
7056	0	30488	
7057	0	30376	
7058	0	30364	
7059	0	30444	
7060	0	30586	
7061	0	30786	
7062	0	31096	
7063	0	31600	
7064	0	32272	
7065	0	33144	
7066	0	34132	
7067	0	35288	
7068	0	36496	
7069	0	37876	
7070	0	39468	
7071	0	41216	
7072	0	42944	
7073	0	44628	
7074	0	46352	
7075	0	48108	
7076	0	49872	
7077	0	51672	
7078	0	53328	
7079	0	54768	
7080	0	56140	
7081	0	57556	
7082	0	58944	
7083	0	60088	
7084	0	61032	
7085	0	61716	
7086	0	62240	
7087	0	62464	
7088	0	61724	
7089	0	59792	
7090	0	57088	
7091	0	53680	
7092	0	50046	
7093	0	46336	
7094	0	42188	
7095	0	37596	
7096	0	33328	
7097	0	30124	
7098	0	27860	
7099	0	26428	
7100	0	25664	
7101	0	25340	
7102	0	25338	
7103	0	25457	
7104	0	25740	
7105	0	26136	
7106	0	26612	
7107	0	27184	
7108	0	27700	
7109	0	28236	
7110	0	28680	
7111	0	29076	
7112	0	29388	
7113	0	29614	
7114	0	29764	
7115	0	29794	
7116	0	29786	
7117	0	29768	
7118	0	29724	
7119	0	29656	
7120	0	29606	
7121	0	29508	
7122	0	29444	
7123	0	29420	
7124	0	29356	
7125	0	29304	
7126	0	29232	
7127	0	29208	
7128	0	29204	
7129	0	29168	
7130	0	29122	
7131	0	29088	
7132	0	29100	
7133	0	29096	
7134	0	29100	
7135	0	29120	
7136	0	29148	
7137	0	29180	
7138	0	29180	
7139	0	29192	
7140	0	29208	
7141	0	29232	
7142	0	29292	
7143	0	29332	
7144	0	29360	
7145	0	29392	
7146	0	29416	
7147	0	29456	
7148	0	29504	
7149	0	29532	
7150	0	29548	
7151	0	29540	
7152	0	29536	
7153	0	29578	
7154	0	29624	
7155	0	29668	
7156	0	29696	
7157	0	29752	
7158	0	29804	
7159	0	29842	
7160	0	29848	
7161	0	29848	
7162	0	29876	
7163	0	29920	
7164	0	29964	
7165	0	29996	
7166	0	30080	
7167	0	30132	
7168	0	30156	
7169	0	30192	
7170	0	30280	
7171	0	30364	
7172	0	30348	
7173	0	30348	
7174	0	30392	
7175	0	30456	
7176	0	30500	
7177	0	30532	
7178	0	30544	
7179	0	30592	
7180	0	30612	
7181	0	30656	
7182	0	30744	
7183	0	30788	
7184	0	30792	
7185	0	30808	
7186	0	30804	
7187	0	30832	
7188	0	30900	
7189	0	30960	
7190	0	31032	
7191	0	31064	
7192	0	31076	
7193	0	31100	
7194	0	31120	
7195	0	31136	
7196	0	31160	
7197	0	31220	
7198	0	31256	
7199	0	31256	
7200	0	31296	
7201	0	31384	
7202	0	31432	
7203	0	31440	
7204	0	31488	
7205	0	31532	
7206	0	31560	
7207	0	31594	
7208	0	31608	
7209	0	31628	
7210	0	31668	
7211	0	31724	
7212	0	31764	
7213	0	31792	
7214	0	31816	
7215	0	31848	
7216	0	31880	
7217	0	31964	
7218	0	32036	
7219	0	32096	
7220	0	32132	
7221	0	32164	
7222	0	32188	
7223	0	32188	
7224	0	32216	
7225	0	32300	
7226	0	32340	
7227	0	32392	
7228	0	32432	
7229	0	32472	
7230	0	32460	
7231	0	32504	
7232	0	32564	
7233	0	32596	
7234	0	32650	
7235	0	32690	
7236	0	32748	
7237	0	32840	
7238	0	32892	
7239	0	32956	
7240	0	32996	
7241	0	33052	
7242	0	33068	
7243	0	33088	
7244	0	33132	
7245	0	33172	
7246	0	33208	
7247	0	33272	
7248	0	33344	
7249	0	33396	
7250	0	33436	
7251	0	33484	
7252	0	33528	
7253	0	33594	
7254	0	33664	
7255	0	33708	
7256	0	33760	
7257	0	33828	
7258	0	33892	
7259	0	33940	
7260	0	34036	
7261	0	34080	
7262	0	34148	
7263	0	34196	
7264	0	34220	
7265	0	34276	
7266	0	34344	
7267	0	34384	
7268	0	34424	
7269	0	34468	
7270	0	34492	
7271	0	34542	
7272	0	34630	
7273	0	34684	
7274	0	34752	
7275	0	34800	
7276	0	34848	
7277	0	34880	
7278	0	34916	
7279	0	34972	
7280	0	35064	
7281	0	35104	
7282	0	35144	
7283	0	35196	
7284	0	35272	
7285	0	35328	
7286	0	35398	
7287	0	35440	
7288	0	35464	
7289	0	35508	
7290	0	35536	
7291	0	35572	
7292	0	35616	
7293	0	35664	
7294	0	35688	
7295	0	35728	
7296	0	35776	
7297	0	35800	
7298	0	35846	
7299	0	35872	
7300	0	35920	
7301	0	35976	
7302	0	36000	
7303	0	36008	
7304	0	36016	
7305	0	36052	
7306	0	36128	
7307	0	36220	
7308	0	36240	
7309	0	36236	
7310	0	36256	
7311	0	36256	
7312	0	36256	
7313	0	36236	
7314	0	36212	
7315	0	36216	
7316	0	36232	
7317	0	36192	
7318	0	36172	
7319	0	36134	
7320	0	36088	
7321	0	36036	
7322	0	36016	
7323	0	36024	
7324	0	36016	
7325	0	35956	
7326	0	35860	
7327	0	35712	
7328	0	35616	
7329	0	35516	
7330	0	35392	
7331	0	35292	
7332	0	35164	
7333	0	35008	
7334	0	34880	
7335	0	34760	
7336	0	34620	
7337	0	34468	
7338	0	34360	
7339	0	34232	
7340	0	34064	
7341	0	33884	
7342	0	33724	
7343	0	33576	
7344	0	33420	
7345	0	33312	
7346	0	33132	
7347	0	32952	
7348	0	32820	
7349	0	32672	
7350	0	32552	
7351	0	32432	
7352	0	32288	
7353	0	32148	
7354	0	32040	
7355	0	31924	
7356	0	31808	
7357	0	31700	
7358	0	31612	
7359	0	31500	
7360	0	31400	
7361	0	31284	
7362	0	31192	
7363	0	31084	
7364	0	30984	
7365	0	30888	
7366	0	30844	
7367	0	30808	
7368	0	30710	
7369	0	30620	
7370	0	30552	
7371	0	30484	
7372	0	30460	
7373	0	30434	
7374	0	30362	
7375	0	30344	
7376	0	30380	
7377	0	30368	
7378	0	30324	
7379	0	30293	
7380	0	30236	
7381	0	30218	
7382	0	30180	
7383	0	30168	
7384	0	30156	
7385	0	30184	
7386	0	30188	
7387	0	30154	
7388	0	30128	
7389	0	30100	
7390	0	30112	
7391	0	30144	
7392	0	30180	
7393	0	30168	
7394	0	30160	
7395	0	30176	
7396	0	30200	
7397	0	30200	
7398	0	30176	
7399	0	30208	
7400	0	30224	
7401	0	30212	
7402	0	30228	
7403	0	30232	
7404	0	30248	
7405	0	30264	
7406	0	30256	
7407	0	30284	
7408	0	30320	
7409	0	30344	
7410	0	30356	
7411	0	30368	
7412	0	30428	
7413	0	30468	
7414	0	30468	
7415	0	30468	
7416	0	30476	
7417	0	30490	
7418	0	30512	
7419	0	30532	
7420	0	30568	
7421	0	30608	
7422	0	30600	
7423	0	30636	
7424	0	30636	
7425	0	30652	
7426	0	30680	
7427	0	30746	
7428	0	30776	
7429	0	30792	
7430	0	30808	
7431	0	30812	
7432	0	30792	
7433	0	30792	
7434	0	30812	
7435	0	30840	
7436	0	30874	
7437	0	30900	
7438	0	30930	
7439	0	30976	
7440	0	30972	
7441	0	30928	
7442	0	30944	
7443	0	30972	
7444	0	31008	
7445	0	31056	
7446	0	31088	
7447	0	31072	
7448	0	31052	
7449	0	31084	
7450	0	31112	
7451	0	31124	
7452	0	31144	
7453	0	31188	
7454	0	31216	
7455	0	31220	
7456	0	31208	
7457	0	31216	
7458	0	31248	
7459	0	31258	
7460	0	31264	
7461	0	31244	
7462	0	31240	
7463	0	31268	
7464	0	31300	
7465	0	31320	
7466	0	31340	
7467	0	31380	
7468	0	31396	
7469	0	31432	
7470	0	31456	
7471	0	31484	
7472	0	31464	
7473	0	31460	
7474	0	31432	
7475	0	31408	
7476	0	31384	
7477	0	31348	
7478	0	31368	
7479	0	31396	
7480	0	31362	
7481	0	31360	
7482	0	31412	
7483	0	31458	
7484	0	31504	
7485	0	31498	
7486	0	31456	
7487	0	31458	
7488	0	31452	
7489	0	31482	
7490	0	31488	
7491	0	31464	
7492	0	31432	
7493	0	31432	
7494	0	31416	
7495	0	31412	
7496	0	31456	
7497	0	31488	
7498	0	31488	
7499	0	31492	
7500	0	31516	
7501	0	31520	
7502	0	31532	
7503	0	31552	
7504	0	31576	
7505	0	31588	
7506	0	31584	
7507	0	31576	
7508	0	31584	
7509	0	31568	
7510	0	31552	
7511	0	31576	
7512	0	31576	
7513	0	31612	
7514	0	31636	
7515	0	31648	
7516	0	31640	
7517	0	31660	
7518	0	31660	
7519	0	31652	
7520	0	31656	
7521	0	31656	
7522	0	31648	
7523	0	31660	
7524	0	31664	
7525	0	31664	
7526	0	31680	
7527	0	31696	
7528	0	31728	
7529	0	31736	
7530	0	31736	
7531	0	31708	
7532	0	31704	
7533	0	31736	
7534	0	31768	
7535	0	31800	
7536	0	31820	
7537	0	31824	
7538	0	31864	
7539	0	31880	
7540	0	31916	
7541	0	31984	
7542	0	32052	
7543	0	32132	
7544	0	32188	
7545	0	32280	
7546	0	32386	
7547	0	32500	
7548	0	32652	
7549	0	32848	
7550	0	33068	
7551	0	33284	
7552	0	33416	
7553	0	33512	
7554	0	33588	
7555	0	33600	
7556	0	33588	
7557	0	33600	
7558	0	33656	
7559	0	33748	
7560	0	33880	
7561	0	33972	
7562	0	34024	
7563	0	34076	
7564	0	34132	
7565	0	34184	
7566	0	34248	
7567	0	34312	
7568	0	34434	
7569	0	34512	
7570	0	34576	
7571	0	34680	
7572	0	34812	
7573	0	34940	
7574	0	35008	
7575	0	35056	
7576	0	35074	
7577	0	35032	
7578	0	34964	
7579	0	34940	
7580	0	34980	
7581	0	35040	
7582	0	35076	
7583	0	35098	
7584	0	35152	
7585	0	35200	
7586	0	35196	
7587	0	35056	
7588	0	34860	
7589	0	34716	
7590	0	34592	
7591	0	34416	
7592	0	34256	
7593	0	34048	
7594	0	33796	
7595	0	33592	
7596	0	33448	
7597	0	33328	
7598	0	33236	
7599	0	33122	
7600	0	33040	
7601	0	32972	
7602	0	32888	
7603	0	32828	
7604	0	32784	
7605	0	32800	
7606	0	32810	
7607	0	32788	
7608	0	32748	
7609	0	32692	
7610	0	32592	
7611	0	32432	
7612	0	32288	
7613	0	32220	
7614	0	32180	
7615	0	32116	
7616	0	32040	
7617	0	31968	
7618	0	31856	
7619	0	31708	
7620	0	31624	
7621	0	31528	
7622	0	31360	
7623	0	31208	
7624	0	31086	
7625	0	30960	
7626	0	30864	
7627	0	30828	
7628	0	30806	
7629	0	30768	
7630	0	30764	
7631	0	30760	
7632	0	30740	
7633	0	30746	
7634	0	30778	
7635	0	30812	
7636	0	30812	
7637	0	30780	
7638	0	30784	
7639	0	30784	
7640	0	30808	
7641	0	30816	
7642	0	30850	
7643	0	30900	
7644	0	30936	
7645	0	30946	
7646	0	30974	
7647	0	30940	
7648	0	30944	
7649	0	30948	
7650	0	30924	
7651	0	30912	
7652	0	30916	
7653	0	30952	
7654	0	30972	
7655	0	30984	
7656	0	30988	
7657	0	30996	
7658	0	30996	
7659	0	30996	
7660	0	31010	
7661	0	31024	
7662	0	31024	
7663	0	31036	
7664	0	31074	
7665	0	31132	
7666	0	31172	
7667	0	31216	
7668	0	31266	
7669	0	31268	
7670	0	31270	
7671	0	31268	
7672	0	31276	
7673	0	31284	
7674	0	31304	
7675	0	31328	
7676	0	31364	
7677	0	31392	
7678	0	31424	
7679	0	31392	
7680	0	31274	
7681	0	31164	
7682	0	31088	
7683	0	31012	
7684	0	30922	
7685	0	30744	
7686	0	30536	
7687	0	30416	
7688	0	30396	
7689	0	30484	
7690	0	30644	
7691	0	30868	
7692	0	31264	
7693	0	31852	
7694	0	32596	
7695	0	33461	
7696	0	34496	
7697	0	35664	
7698	0	36896	
7699	0	38320	
7700	0	39960	
7701	0	41720	
7702	0	43432	
7703	0	45164	
7704	0	46928	
7705	0	48676	
7706	0	50460	
7707	0	52224	
7708	0	53868	
7709	0	55328	
7710	0	56704	
7711	0	58096	
7712	0	59436	
7713	0	60568	
7714	0	61484	
7715	0	62080	
7716	0	62496	
7717	0	62404	
7718	0	61200	
7719	0	58992	
7720	0	55976	
7721	0	52396	
7722	0	48760	
7723	0	44972	
7724	0	40744	
7725	0	36216	
7726	0	32288	
7727	0	29436	
7728	0	27440	
7729	0	26248	
7730	0	25616	
7731	0	25412	
7732	0	25464	
7733	0	25604	
7734	0	25872	
7735	0	26280	
7736	0	26768	
7737	0	27288	
7738	0	27852	
7739	0	28388	
7740	0	28784	
7741	0	29148	
7742	0	29452	
7743	0	29680	
7744	0	29816	
7745	0	29888	
7746	0	29906	
7747	0	29872	
7748	0	29822	
7749	0	29772	
7750	0	29696	
7751	0	29592	
7752	0	29528	
7753	0	29464	
7754	0	29396	
7755	0	29384	
7756	0	29360	
7757	0	29312	
7758	0	29230	
7759	0	29180	
7760	0	29180	
7761	0	29168	
7762	0	29192	
7763	0	29204	
7764	0	29236	
7765	0	29252	
7766	0	29264	
7767	0	29276	
7768	0	29284	
7769	0	29296	
7770	0	29272	
7771	0	29280	
7772	0	29308	
7773	0	29352	
7774	0	29388	
7775	0	29410	
7776	0	29466	
7777	0	29492	
7778	0	29540	
7779	0	29584	
7780	0	29604	
7781	0	29640	
7782	0	29700	
7783	0	29728	
7784	0	29728	
7785	0	29752	
7786	0	29768	
7787	0	29810	
7788	0	29856	
7789	0	29872	
7790	0	29880	
7791	0	29936	
7792	0	30040	
7793	0	30084	
7794	0	30072	
7795	0	30084	
7796	0	30128	
7797	0	30176	
7798	0	30208	
7799	0	30228	
7800	0	30272	
7801	0	30352	
7802	0	30396	
7803	0	30388	
7804	0	30388	
7805	0	30440	
7806	0	30488	
7807	0	30552	
7808	0	30568	
7809	0	30580	
7810	0	30609	
7811	0	30636	
7812	0	30660	
7813	0	30720	
7814	0	30784	
7815	0	30828	
7816	0	30888	
7817	0	30944	
7818	0	30984	
7819	0	31020	
7820	0	31048	
7821	0	31060	
7822	0	31080	
7823	0	31104	
7824	0	31160	
7825	0	31224	
7826	0	31280	
7827	0	31296	
7828	0	31304	
7829	0	31320	
7830	0	31368	
7831	0	31424	
7832	0	31464	
7833	0	31488	
7834	0	31540	
7835	0	31576	
7836	0	31604	
7837	0	31640	
7838	0	31664	
7839	0	31694	
7840	0	31752	
7841	0	31800	
7842	0	31824	
7843	0	31856	
7844	0	31876	
7845	0	31904	
7846	0	31976	
7847	0	32028	
7848	0	32040	
7849	0	32040	
7850	0	32072	
7851	0	32116	
7852	0	32164	
7853	0	32208	
7854	0	32250	
7855	0	32288	
7856	0	32320	
7857	0	32380	
7858	0	32440	
7859	0	32508	
7860	0	32560	
7861	0	32592	
7862	0	32624	
7863	0	32660	
7864	0	32716	
7865	0	32768	
7866	0	32812	
7867	0	32856	
7868	0	32900	
7869	0	32936	
7870	0	32972	
7871	0	33000	
7872	0	33056	
7873	0	33112	
7874	0	33156	
7875	0	33184	
7876	0	33224	
7877	0	33288	
7878	0	33368	
7879	0	33412	
7880	0	33466	
7881	0	33520	
7882	0	33592	
7883	0	33632	
7884	0	33644	
7885	0	33664	
7886	0	33716	
7887	0	33792	
7888	0	33890	
7889	0	33940	
7890	0	33980	
7891	0	34044	
7892	0	34104	
7893	0	34138	
7894	0	34152	
7895	0	34184	
7896	0	34236	
7897	0	34316	
7898	0	34368	
7899	0	34436	
7900	0	34456	
7901	0	34492	
7902	0	34564	
7903	0	34632	
7904	0	34680	
7905	0	34724	
7906	0	34776	
7907	0	34818	
7908	0	34856	
7909	0	34912	
7910	0	34984	
7911	0	35044	
7912	0	35112	
7913	0	35216	
7914	0	35220	
7915	0	35226	
7916	0	35252	
7917	0	35312	
7918	0	35372	
7919	0	35412	
7920	0	35456	
7921	0	35504	
7922	0	35524	
7923	0	35576	
7924	0	35624	
7925	0	35640	
7926	0	35672	
7927	0	35748	
7928	0	35764	
7929	0	35820	
7930	0	35848	
7931	0	35848	
7932	0	35860	
7933	0	35888	
7934	0	35934	
7935	0	35980	
7936	0	36000	
7937	0	36028	
7938	0	36032	
7939	0	36048	
7940	0	36076	
7941	0	36080	
7942	0	36104	
7943	0	36148	
7944	0	36168	
7945	0	36160	
7946	0	36192	
7947	0	36192	
7948	0	36172	
7949	0	36156	
7950	0	36148	
7951	0	36116	
7952	0	36096	
7953	0	36044	
7954	0	35996	
7955	0	35924	
7956	0	35860	
7957	0	35772	
7958	0	35700	
7959	0	35596	
7960	0	35472	
7961	0	35338	
7962	0	35200	
7963	0	35084	
7964	0	34932	
7965	0	34780	
7966	0	34624	
7967	0	34476	
7968	0	34316	
7969	0	34170	
7970	0	34058	
7971	0	33940	
7972	0	33824	
7973	0	33700	
7974	0	33568	
7975	0	33396	
7976	0	33240	
7977	0	33060	
7978	0	32920	
7979	0	32776	
7980	0	32652	
7981	0	32500	
7982	0	32352	
7983	0	32228	
7984	0	32108	
7985	0	31980	
7986	0	31854	
7987	0	31752	
7988	0	31654	
7989	0	31552	
7990	0	31436	
7991	0	31352	
7992	0	31240	
7993	0	31148	
7994	0	31050	
7995	0	31000	
7996	0	30920	
7997	0	30848	
7998	0	30792	
7999	0	30744	
8000	0	30664	
8001	0	30588	
8002	0	30566	
8003	0	30512	
8004	0	30446	
8005	0	30394	
8006	0	30360	
8007	0	30372	
8008	0	30404	
8009	0	30384	
8010	0	30324	
8011	0	30280	
8012	0	30256	
8013	0	30226	
8014	0	30236	
8015	0	30232	
8016	0	30216	
8017	0	30190	
8018	0	30212	
8019	0	30224	
8020	0	30240	
8021	0	30236	
8022	0	30252	
8023	0	30256	
8024	0	30264	
8025	0	30256	
8026	0	30204	
8027	0	30168	
8028	0	30152	
8029	0	30208	
8030	0	30264	
8031	0	30312	
8032	0	30320	
8033	0	30312	
8034	0	30316	
8035	0	30316	
8036	0	30364	
8037	0	30432	
8038	0	30426	
8039	0	30416	
8040	0	30401	
8041	0	30428	
8042	0	30468	
8043	0	30464	
8044	0	30460	
8045	0	30504	
8046	0	30500	
8047	0	30532	
8048	0	30556	
8049	0	30588	
8050	0	30672	
8051	0	30696	
8052	0	30676	
8053	0	30688	
8054	0	30700	
8055	0	30724	
8056	0	30732	
8057	0	30728	
8058	0	30748	
8059	0	30772	
8060	0	30804	
8061	0	30828	
8062	0	30860	
8063	0	30866	
8064	0	30856	
8065	0	30868	
8066	0	30904	
8067	0	30936	
8068	0	30960	
8069	0	30980	
8070	0	30960	
8071	0	30978	
8072	0	31012	
8073	0	31050	
8074	0	31112	
8075	0	31128	
8076	0	31136	
8077	0	31120	
8078	0	31104	
8079	0	31128	
8080	0	31204	
8081	0	31256	
8082	0	31260	
8083	0	31236	
8084	0	31232	
8085	0	31232	
8086	0	31242	
8087	0	31248	
8088	0	31258	
8089	0	31320	
8090	0	31344	
8091	0	31328	
8092	0	31336	
8093	0	31356	
8094	0	31340	
8095	0	31372	
8096	0	31392	
8097	0	31400	
8098	0	31422	
8099	0	31456	
8100	0	31456	
8101	0	31416	
8102	0	31374	
8103	0	31344	
8104	0	31328	
8105	0	31340	
8106	0	31360	
8107	0	31368	
8108	0	31352	
8109	0	31364	
8110	0	31376	
8111	0	31388	
8112	0	31384	
8113	0	31412	
8114	0	31436	
8115	0	31448	
8116	0	31448	
8117	0	31480	
8118	0	31548	
8119	0	31582	
8120	0	31548	
8121	0	31524	
8122	0	31524	
8123	0	31470	
8124	0	31466	
8125	0	31472	
8126	0	31500	
8127	0	31572	
8128	0	31604	
8129	0	31586	
8130	0	31552	
8131	0	31584	
8132	0	31600	
8133	0	31584	
8134	0	31608	
8135	0	31688	
8136	0	31732	
8137	0	31712	
8138	0	31676	
8139	0	31648	
8140	0	31640	
8141	0	31688	
8142	0	31732	
8143	0	31768	
8144	0	31784	
8145	0	31778	
8146	0	31764	
8147	0	31732	
8148	0	31680	
8149	0	31700	
8150	0	31724	
8151	0	31728	
8152	0	31740	
8153	0	31732	
8154	0	31736	
8155	0	31714	
8156	0	31698	
8157	0	31708	
8158	0	31716	
8159	0	31700	
8160	0	31736	
8161	0	31816	
8162	0	31900	
8163	0	31940	
8164	0	31944	
8165	0	31968	
8166	0	32032	
8167	0	32104	
8168	0	32180	
8169	0	32298	
8170	0	32432	
8171	0	32576	
8172	0	32732	
8173	0	32912	
8174	0	33120	
8175	0	33260	
8176	0	33380	
8177	0	33432	
8178	0	33452	
8179	0	33476	
8180	0	33504	
8181	0	33584	
8182	0	33664	
8183	0	33744	
8184	0	33858	
8185	0	33952	
8186	0	33992	
8187	0	34088	
8188	0	34144	
8189	0	34148	
8190	0	34194	
8191	0	34304	
8192	0	34452	
8193	0	34608	
8194	0	34748	
8195	0	34864	
8196	0	35008	
8197	0	35100	
8198	0	35116	
8199	0	35120	
8200	0	35064	
8201	0	34960	
8202	0	34880	
8203	0	34868	
8204	0	34900	
8205	0	34972	
8206	0	35080	
8207	0	35144	
8208	0	35192	
8209	0	35176	
8210	0	35052	
8211	0	34882	
8212	0	34736	
8213	0	34574	
8214	0	34420	
8215	0	34232	
8216	0	34044	
8217	0	33844	
8218	0	33636	
8219	0	33496	
8220	0	33436	
8221	0	33384	
8222	0	33240	
8223	0	33096	
8224	0	33012	
8225	0	32936	
8226	0	32872	
8227	0	32832	
8228	0	32828	
8229	0	32768	
8230	0	32704	
8231	0	32610	
8232	0	32580	
8233	0	32500	
8234	0	32352	
8235	0	32204	
8236	0	32096	
8237	0	32000	
8238	0	31908	
8239	0	31872	
8240	0	31788	
8241	0	31724	
8242	0	31700	
8243	0	31616	
8244	0	31524	
8245	0	31400	
8246	0	31228	
8247	0	31096	
8248	0	30988	
8249	0	30864	
8250	0	30868	
8251	0	30848	
8252	0	30808	
8253	0	30784	
8254	0	30808	
8255	0	30776	
8256	0	30748	
8257	0	30770	
8258	0	30808	
8259	0	30828	
8260	0	30804	
8261	0	30854	
8262	0	30868	
8263	0	30904	
8264	0	30944	
8265	0	30940	
8266	0	30964	
8267	0	31002	
8268	0	30984	
8269	0	30928	
8270	0	30914	
8271	0	30916	
8272	0	30948	
8273	0	30952	
8274	0	30944	
8275	0	30920	
8276	0	30902	
8277	0	30860	
8278	0	30908	
8279	0	30936	
8280	0	30928	
8281	0	30932	
8282	0	30944	
8283	0	30968	
8284	0	30988	
8285	0	31036	
8286	0	31068	
8287	0	31080	
8288	0	31120	
8289	0	31144	
8290	0	31188	
8291	0	31208	
8292	0	31244	
8293	0	31284	
8294	0	31300	
8295	0	31316	
8296	0	31352	
8297	0	31418	
8298	0	31500	
8299	0	31524	
8300	0	31480	
8301	0	31448	
8302	0	31432	
8303	0	31394	
8304	0	31300	
8305	0	31158	
8306	0	30992	
8307	0	30828	
8308	0	30636	
8309	0	30456	
8310	0	30348	
8311	0	30392	
8312	0	30464	
8313	0	30552	
8314	0	30780	
8315	0	31196	
8316	0	31872	
8317	0	32684	
8318	0	33616	
8319	0	34728	
8320	0	35940	
8321	0	37184	
8322	0	38608	
8323	0	40308	
8324	0	42168	
8325	0	43984	
8326	0	45812	
8327	0	47664	
8328	0	49496	
8329	0	51372	
8330	0	53164	
8331	0	54820	
8332	0	56296	
8333	0	57644	
8334	0	59032	
8335	0	60368	
8336	0	61504	
8337	0	62384	
8338	0	62892	
8339	0	63060	
8340	0	62588	
8341	0	61024	
8342	0	58544	
8343	0	55260	
8344	0	51576	
8345	0	47848	
8346	0	43968	
8347	0	39656	
8348	0	35150	
8349	0	31384	
8350	0	28696	
8351	0	26940	
8352	0	25918	
8353	0	25412	
8354	0	25304	
8355	0	25424	
8356	0	25588	
8357	0	25864	
8358	0	26272	
8359	0	26740	
8360	0	27246	
8361	0	27780	
8362	0	28296	
8363	0	28672	
8364	0	28984	
8365	0	29264	
8366	0	29470	
8367	0	29632	
8368	0	29728	
8369	0	29744	
8370	0	29672	
8371	0	29616	
8372	0	29580	
8373	0	29504	
8374	0	29444	
8375	0	29364	
8376	0	29288	
8377	0	29232	
8378	0	29182	
8379	0	29148	
8380	0	29112	
8381	0	29046	
8382	0	28992	
8383	0	28932	
8384	0	28942	
8385	0	28972	
8386	0	29024	
8387	0	29040	
8388	0	29064	
8389	0	29116	
8390	0	29104	
8391	0	29108	
8392	0	29156	
8393	0	29168	
8394	0	29228	
8395	0	29244	
8396	0	29200	
8397	0	29224	
8398	0	29312	
8399	0	29346	
8400	0	29380	
8401	0	29372	
8402	0	29358	
8403	0	29446	
8404	0	29564	
8405	0	29600	
8406	0	29586	
8407	0	29640	
8408	0	29772	
8409	0	29896	
8410	0	29908	
8411	0	29868	
8412	0	29820	
8413	0	29820	
8414	0	29858	
8415	0	29884	
8416	0	29892	
8417	0	29912	
8418	0	29896	
8419	0	29928	
8420	0	29944	
8421	0	29944	
8422	0	30020	
8423	0	30064	
8424	0	30072	
8425	0	30100	
8426	0	30144	
8427	0	30208	
8428	0	30264	
8429	0	30294	
8430	0	30276	
8431	0	30288	
8432	0	30348	
8433	0	30428	
8434	0	30496	
8435	0	30528	
8436	0	30596	
8437	0	30656	
8438	0	30712	
8439	0	30736	
8440	0	30704	
8441	0	30692	
8442	0	30740	
8443	0	30816	
8444	0	30836	
8445	0	30824	
8446	0	30844	
8447	0	30864	
8448	0	30896	
8449	0	30976	
8450	0	31048	
8451	0	31060	
8452	0	31068	
8453	0	31136	
8454	0	31196	
8455	0	31284	
8456	0	31320	
8457	0	31300	
8458	0	31284	
8459	0	31310	
8460	0	31372	
8461	0	31468	
8462	0	31516	
8463	0	31552	
8464	0	31610	
8465	0	31660	
8466	0	31688	
8467	0	31716	
8468	0	31728	
8469	0	31728	
8470	0	31736	
8471	0	31770	
8472	0	31796	
8473	0	31812	
8474	0	31812	
8475	0	31840	
8476	0	31916	
8477	0	32012	
8478	0	32100	
8479	0	32192	
8480	0	32248	
8481	0	32268	
8482	0	32332	
8483	0	32368	
8484	0	32420	
8485	0	32428	
8486	0	32456	
8487	0	32512	
8488	0	32584	
8489	0	32690	
8490	0	32736	
8491	0	32736	
8492	0	32720	
8493	0	32744	
8494	0	32800	
8495	0	32840	
8496	0	32878	
8497	0	32864	
8498	0	32904	
8499	0	32972	
8500	0	33040	
8501	0	33080	
8502	0	33108	
8503	0	33168	
8504	0	33212	
8505	0	33256	
8506	0	33304	
8507	0	33260	
8508	0	33296	
8509	0	33396	
8510	0	33484	
8511	0	33584	
8512	0	33652	
8513	0	33672	
8514	0	33688	
8515	0	33784	
8516	0	33858	
8517	0	33888	
8518	0	33928	
8519	0	34010	
8520	0	34088	
8521	0	34164	
8522	0	34208	
8523	0	34232	
8524	0	34312	
8525	0	34388	
8526	0	34408	
8527	0	34496	
8528	0	34532	
8529	0	34540	
8530	0	34554	
8531	0	34580	
8532	0	34572	
8533	0	34616	
8534	0	34700	
8535	0	34804	
8536	0	34888	
8537	0	34960	
8538	0	35008	
8539	0	35044	
8540	0	35060	
8541	0	35092	
8542	0	35150	
8543	0	35172	
8544	0	35194	
8545	0	35208	
8546	0	35256	
8547	0	35280	
8548	0	35336	
8549	0	35392	
8550	0	35452	
8551	0	35496	
8552	0	35556	
8553	0	35644	
8554	0	35696	
8555	0	35692	
8556	0	35664	
8557	0	35712	
8558	0	35792	
8559	0	35820	
8560	0	35880	
8561	0	35904	
8562	0	35904	
8563	0	35936	
8564	0	35968	
8565	0	35968	
8566	0	35956	
8567	0	35956	
8568	0	35976	
8569	0	35976	
8570	0	35960	
8571	0	35864	
8572	0	35812	
8573	0	35768	
8574	0	35728	
8575	0	35700	
8576	0	35632	
8577	0	35584	
8578	0	35544	
8579	0	35468	
8580	0	35424	
8581	0	35404	
8582	0	35328	
8583	0	35176	
8584	0	35000	
8585	0	34864	
8586	0	34728	
8587	0	34600	
8588	0	34492	
8589	0	34360	
8590	0	34212	
8591	0	34108	
