# OpenSignals Text File Format. Version 1
# {"00:07:80:4B:15:F7": {"position": 0, "device": "biosignalsplux", "device name": "00:07:80:4B:15:F7", "device connection": "BTH00:07:80:4B:15:F7", "sampling rate": 1000, "resolution": [16], "firmware version": 775, "comments": "", "keywords": "", "mode": 0, "sync interval": 2, "date": "2023-4-12", "time": "15:42:54.78", "channels": [1], "sensor": ["ECG"], "label": ["CH1"], "column": ["nSeq", "DI", "CH1"], "special": [{"SpO2": [80, 40, 5, 4, 3, 3]}, {"SpO2": [80, 40, 5, 4, 3, 3]}, {"SpO2": [80, 40, 5, 4, 3, 3]}, {"SpO2": [80, 40, 5, 4, 3, 3]}, {"SpO2": [80, 40, 5, 4, 3, 3]}, {"SpO2": [80, 40, 5, 4, 3, 3]}, {"SpO2": [80, 40, 5, 4, 3, 3]}, {"SpO2": [80, 40, 5, 4, 3, 3]}], "digital IO": [0, 1], "sleeve color": ["green"], "convertedValues": 0}}
# EndOfHeader
0	0	32004	
1	0	31964	
2	0	31936	
3	0	31912	
4	0	31892	
5	0	31876	
6	0	31876	
7	0	31852	
8	0	31800	
9	0	31748	
10	0	31784	
11	0	31808	
12	0	31820	
13	0	31812	
14	0	31776	
15	0	31744	
16	0	31716	
17	0	31728	
18	0	31764	
19	0	31792	
20	0	31820	
21	0	31834	
22	0	31882	
23	0	31904	
24	0	31884	
25	0	31868	
26	0	31840	
27	0	31840	
28	0	31856	
29	0	31858	
30	0	31876	
31	0	31904	
32	0	31916	
33	0	31932	
34	0	31956	
35	0	31976	
36	0	32052	
37	0	32128	
38	0	32186	
39	0	32250	
40	0	32288	
41	0	32288	
42	0	32282	
43	0	32296	
44	0	32356	
45	0	32408	
46	0	32452	
47	0	32464	
48	0	32492	
49	0	32570	
50	0	32616	
51	0	32640	
52	0	32688	
53	0	32728	
54	0	32768	
55	0	32768	
56	0	32784	
57	0	32794	
58	0	32832	
59	0	32880	
60	0	32940	
61	0	32972	
62	0	32996	
63	0	33032	
64	0	33040	
65	0	33068	
66	0	33080	
67	0	33076	
68	0	33090	
69	0	33090	
70	0	33088	
71	0	33128	
72	0	33164	
73	0	33172	
74	0	33204	
75	0	33228	
76	0	33224	
77	0	33248	
78	0	33272	
79	0	33292	
80	0	33304	
81	0	33292	
82	0	33260	
83	0	33248	
84	0	33212	
85	0	33178	
86	0	33136	
87	0	33156	
88	0	33240	
89	0	33276	
90	0	33304	
91	0	33360	
92	0	33364	
93	0	33360	
94	0	33306	
95	0	33272	
96	0	33272	
97	0	33264	
98	0	33278	
99	0	33284	
100	0	33296	
101	0	33296	
102	0	33264	
103	0	33264	
104	0	33268	
105	0	33252	
106	0	33256	
107	0	33228	
108	0	33216	
109	0	33180	
110	0	33144	
111	0	33170	
112	0	33168	
113	0	33160	
114	0	33156	
115	0	33124	
116	0	33104	
117	0	33100	
118	0	33116	
119	0	33104	
120	0	33112	
121	0	33136	
122	0	33092	
123	0	33088	
124	0	33088	
125	0	33088	
126	0	33108	
127	0	33120	
128	0	33136	
129	0	33148	
130	0	33128	
131	0	33112	
132	0	33088	
133	0	33048	
134	0	33034	
135	0	33032	
136	0	33028	
137	0	33028	
138	0	33016	
139	0	33004	
140	0	32996	
141	0	32992	
142	0	32964	
143	0	32984	
144	0	32968	
145	0	32948	
146	0	32928	
147	0	32912	
148	0	32916	
149	0	32924	
150	0	32936	
151	0	32944	
152	0	32944	
153	0	32944	
154	0	32940	
155	0	32908	
156	0	32888	
157	0	32880	
158	0	32884	
159	0	32888	
160	0	32912	
161	0	32920	
162	0	32924	
163	0	32916	
164	0	32924	
165	0	32908	
166	0	32876	
167	0	32900	
168	0	32896	
169	0	32896	
170	0	32880	
171	0	32900	
172	0	32882	
173	0	32868	
174	0	32844	
175	0	32848	
176	0	32856	
177	0	32850	
178	0	32832	
179	0	32872	
180	0	32880	
181	0	32840	
182	0	32844	
183	0	32928	
184	0	33052	
185	0	33252	
186	0	33508	
187	0	33792	
188	0	34036	
189	0	34242	
190	0	34404	
191	0	34536	
192	0	34680	
193	0	34804	
194	0	34908	
195	0	34944	
196	0	34964	
197	0	34972	
198	0	34964	
199	0	34964	
200	0	34944	
201	0	34936	
202	0	34894	
203	0	34848	
204	0	34772	
205	0	34732	
206	0	34820	
207	0	35044	
208	0	35344	
209	0	35704	
210	0	36048	
211	0	36344	
212	0	36592	
213	0	36776	
214	0	36880	
215	0	36928	
216	0	36964	
217	0	36988	
218	0	37068	
219	0	37136	
220	0	37188	
221	0	37280	
222	0	37368	
223	0	37468	
224	0	37520	
225	0	37512	
226	0	37360	
227	0	37152	
228	0	36920	
229	0	36708	
230	0	36548	
231	0	36448	
232	0	36472	
233	0	36472	
234	0	36416	
235	0	36288	
236	0	36120	
237	0	35888	
238	0	35644	
239	0	35400	
240	0	35144	
241	0	34904	
242	0	34644	
243	0	34400	
244	0	34208	
245	0	34000	
246	0	33756	
247	0	33472	
248	0	33226	
249	0	32960	
250	0	32708	
251	0	32488	
252	0	32314	
253	0	32200	
254	0	32116	
255	0	31984	
256	0	31848	
257	0	31700	
258	0	31538	
259	0	31440	
260	0	31384	
261	0	31324	
262	0	31252	
263	0	31204	
264	0	31168	
265	0	31148	
266	0	31152	
267	0	31156	
268	0	31148	
269	0	31120	
270	0	31094	
271	0	31124	
272	0	31120	
273	0	31104	
274	0	31120	
275	0	31162	
276	0	31164	
277	0	31152	
278	0	31164	
279	0	31160	
280	0	31158	
281	0	31184	
282	0	31200	
283	0	31202	
284	0	31188	
285	0	31152	
286	0	31164	
287	0	31160	
288	0	31182	
289	0	31176	
290	0	31194	
291	0	31168	
292	0	31124	
293	0	31056	
294	0	30964	
295	0	30844	
296	0	30696	
297	0	30540	
298	0	30380	
299	0	30252	
300	0	30084	
301	0	29936	
302	0	29732	
303	0	29512	
304	0	29288	
305	0	29132	
306	0	29092	
307	0	29132	
308	0	29292	
309	0	29576	
310	0	30048	
311	0	30732	
312	0	31608	
313	0	32636	
314	0	34016	
315	0	35864	
316	0	38072	
317	0	40620	
318	0	43516	
319	0	46728	
320	0	50120	
321	0	53704	
322	0	57504	
323	0	61024	
324	0	63048	
325	0	64088	
326	0	64608	
327	0	64832	
328	0	64900	
329	0	64884	
330	0	64812	
331	0	64708	
332	0	64604	
333	0	64490	
334	0	64376	
335	0	64244	
336	0	64132	
337	0	64024	
338	0	63888	
339	0	63784	
340	0	63640	
341	0	63544	
342	0	63424	
343	0	63300	
344	0	63180	
345	0	63056	
346	0	62948	
347	0	62824	
348	0	62704	
349	0	62604	
350	0	62476	
351	0	58596	
352	0	52992	
353	0	47664	
354	0	42944	
355	0	38896	
356	0	35384	
357	0	32488	
358	0	30348	
359	0	28880	
360	0	27952	
361	0	27290	
362	0	26758	
363	0	26290	
364	0	25876	
365	0	25428	
366	0	24976	
367	0	24628	
368	0	24312	
369	0	24000	
370	0	23708	
371	0	23436	
372	0	23200	
373	0	22984	
374	0	22756	
375	0	22540	
376	0	22338	
377	0	22170	
378	0	22032	
379	0	21896	
380	0	21764	
381	0	21638	
382	0	21542	
383	0	21468	
384	0	21404	
385	0	21340	
386	0	21312	
387	0	21296	
388	0	21296	
389	0	21304	
390	0	21296	
391	0	21284	
392	0	21318	
393	0	21360	
394	0	21404	
395	0	21432	
396	0	21460	
397	0	21474	
398	0	21550	
399	0	21600	
400	0	21708	
401	0	21802	
402	0	21876	
403	0	21954	
404	0	22028	
405	0	22118	
406	0	22196	
407	0	22264	
408	0	22324	
409	0	22408	
410	0	22472	
411	0	22552	
412	0	22624	
413	0	22704	
414	0	22816	
415	0	22946	
416	0	23012	
417	0	23072	
418	0	23168	
419	0	23288	
420	0	23392	
421	0	23480	
422	0	23556	
423	0	23660	
424	0	23784	
425	0	23860	
426	0	23954	
427	0	24010	
428	0	24080	
429	0	24180	
430	0	24288	
431	0	24364	
432	0	24456	
433	0	24544	
434	0	24640	
435	0	24704	
436	0	24796	
437	0	24896	
438	0	24978	
439	0	25068	
440	0	25176	
441	0	25272	
442	0	25370	
443	0	25474	
444	0	25536	
445	0	25640	
446	0	25740	
447	0	25816	
448	0	25900	
449	0	25992	
450	0	26044	
451	0	26132	
452	0	26216	
453	0	26284	
454	0	26360	
455	0	26432	
456	0	26496	
457	0	26572	
458	0	26676	
459	0	26736	
460	0	26800	
461	0	26876	
462	0	26972	
463	0	27056	
464	0	27136	
465	0	27240	
466	0	27328	
467	0	27424	
468	0	27482	
469	0	27572	
470	0	27656	
471	0	27732	
472	0	27828	
473	0	27904	
474	0	27960	
475	0	28048	
476	0	28148	
477	0	28260	
478	0	28356	
479	0	28456	
480	0	28564	
481	0	28660	
482	0	28742	
483	0	28812	
484	0	28908	
485	0	28988	
486	0	29084	
487	0	29176	
488	0	29276	
489	0	29380	
490	0	29476	
491	0	29568	
492	0	29664	
493	0	29746	
494	0	29864	
495	0	30004	
496	0	30112	
497	0	30224	
498	0	30340	
499	0	30432	
500	0	30556	
501	0	30668	
502	0	30756	
503	0	30840	
504	0	30932	
505	0	31020	
506	0	31096	
507	0	31180	
508	0	31292	
509	0	31372	
510	0	31444	
511	0	31532	
512	0	31612	
513	0	31680	
514	0	31758	
515	0	31860	
516	0	31980	
517	0	32084	
518	0	32176	
519	0	32252	
520	0	32316	
521	0	32360	
522	0	32404	
523	0	32468	
524	0	32554	
525	0	32592	
526	0	32640	
527	0	32688	
528	0	32740	
529	0	32780	
530	0	32820	
531	0	32848	
532	0	32892	
533	0	32908	
534	0	32904	
535	0	32910	
536	0	32948	
537	0	32974	
538	0	32956	
539	0	32960	
540	0	33008	
541	0	33060	
542	0	33112	
543	0	33152	
544	0	33208	
545	0	33256	
546	0	33280	
547	0	33300	
548	0	33336	
549	0	33384	
550	0	33416	
551	0	33452	
552	0	33520	
553	0	33592	
554	0	33656	
555	0	33706	
556	0	33760	
557	0	33848	
558	0	33896	
559	0	33886	
560	0	33884	
561	0	33896	
562	0	33896	
563	0	33910	
564	0	33920	
565	0	33876	
566	0	33828	
567	0	33728	
568	0	33680	
569	0	33624	
570	0	33548	
571	0	33416	
572	0	33392	
573	0	33364	
574	0	33324	
575	0	33272	
576	0	33208	
577	0	33156	
578	0	33112	
579	0	33056	
580	0	33004	
581	0	32940	
582	0	32872	
583	0	32812	
584	0	32748	
585	0	32650	
586	0	32608	
587	0	32556	
588	0	32520	
589	0	32476	
590	0	32434	
591	0	32384	
592	0	32336	
593	0	32268	
594	0	32216	
595	0	32156	
596	0	32112	
597	0	32080	
598	0	32036	
599	0	32012	
600	0	31996	
601	0	31980	
602	0	31936	
603	0	31920	
604	0	31864	
605	0	31820	
606	0	31812	
607	0	31800	
608	0	31800	
609	0	31796	
610	0	31752	
611	0	31736	
612	0	31712	
613	0	31708	
614	0	31724	
615	0	31744	
616	0	31772	
617	0	31800	
618	0	31816	
619	0	31828	
620	0	31808	
621	0	31772	
622	0	31778	
623	0	31792	
624	0	31784	
625	0	31808	
626	0	31820	
627	0	31840	
628	0	31876	
629	0	31880	
630	0	31920	
631	0	31976	
632	0	31968	
633	0	31980	
634	0	31960	
635	0	31988	
636	0	32002	
637	0	32016	
638	0	32052	
639	0	32068	
640	0	32112	
641	0	32132	
642	0	32164	
643	0	32224	
644	0	32262	
645	0	32264	
646	0	32298	
647	0	32368	
648	0	32440	
649	0	32472	
650	0	32496	
651	0	32558	
652	0	32594	
653	0	32612	
654	0	32644	
655	0	32644	
656	0	32661	
657	0	32704	
658	0	32760	
659	0	32792	
660	0	32848	
661	0	32886	
662	0	32916	
663	0	32960	
664	0	32976	
665	0	32962	
666	0	32982	
667	0	33024	
668	0	33044	
669	0	33048	
670	0	33088	
671	0	33124	
672	0	33132	
673	0	33164	
674	0	33160	
675	0	33172	
676	0	33164	
677	0	33152	
678	0	33160	
679	0	33184	
680	0	33210	
681	0	33248	
682	0	33272	
683	0	33236	
684	0	33176	
685	0	33256	
686	0	33320	
687	0	33376	
688	0	33372	
689	0	33320	
690	0	33324	
691	0	33312	
692	0	33292	
693	0	33300	
694	0	33292	
695	0	33262	
696	0	33224	
697	0	33196	
698	0	33184	
699	0	33216	
700	0	33236	
701	0	33224	
702	0	33248	
703	0	33292	
704	0	33272	
705	0	33244	
706	0	33208	
707	0	33212	
708	0	33208	
709	0	33200	
710	0	33208	
711	0	33260	
712	0	33264	
713	0	33256	
714	0	33220	
715	0	33212	
716	0	33194	
717	0	33168	
718	0	33128	
719	0	33088	
720	0	33056	
721	0	33064	
722	0	33084	
723	0	33092	
724	0	33096	
725	0	33096	
726	0	33128	
727	0	33128	
728	0	33120	
729	0	33108	
730	0	33092	
731	0	33108	
732	0	33108	
733	0	33072	
734	0	33038	
735	0	32996	
736	0	32964	
737	0	32928	
738	0	32944	
739	0	32992	
740	0	33000	
741	0	33008	
742	0	32996	
743	0	32996	
744	0	32976	
745	0	32960	
746	0	32960	
747	0	32956	
748	0	32936	
749	0	32924	
750	0	32892	
751	0	32864	
752	0	32824	
753	0	32800	
754	0	32808	
755	0	32840	
756	0	32852	
757	0	32872	
758	0	32896	
759	0	32896	
760	0	32896	
761	0	32876	
762	0	32860	
763	0	32864	
764	0	32880	
765	0	32896	
766	0	32904	
767	0	32920	
768	0	32876	
769	0	32836	
770	0	32844	
771	0	32860	
772	0	32848	
773	0	32866	
774	0	32834	
775	0	32810	
776	0	32808	
777	0	32816	
778	0	32832	
779	0	32824	
780	0	32860	
781	0	32864	
782	0	32868	
783	0	32864	
784	0	32832	
785	0	32792	
786	0	32792	
787	0	32804	
788	0	32788	
789	0	32784	
790	0	32780	
791	0	32788	
792	0	32800	
793	0	32780	
794	0	32776	
795	0	32756	
796	0	32744	
797	0	32764	
798	0	32778	
799	0	32780	
800	0	32772	
801	0	32764	
802	0	32728	
803	0	32748	
804	0	32848	
805	0	33024	
806	0	33296	
807	0	33592	
808	0	33864	
809	0	34088	
810	0	34272	
811	0	34436	
812	0	34576	
813	0	34716	
814	0	34824	
815	0	34872	
816	0	34900	
817	0	34932	
818	0	34920	
819	0	34898	
820	0	34872	
821	0	34876	
822	0	34856	
823	0	34804	
824	0	34778	
825	0	34764	
826	0	34800	
827	0	34904	
828	0	35212	
829	0	35592	
830	0	35925	
831	0	36240	
832	0	36504	
833	0	36736	
834	0	36880	
835	0	36942	
836	0	36988	
837	0	37040	
838	0	37108	
839	0	37188	
840	0	37200	
841	0	37260	
842	0	37340	
843	0	37444	
844	0	37544	
845	0	37568	
846	0	37480	
847	0	37280	
848	0	37064	
849	0	36848	
850	0	36660	
851	0	36552	
852	0	36512	
853	0	36460	
854	0	36400	
855	0	36314	
856	0	36184	
857	0	35964	
858	0	35688	
859	0	35424	
860	0	35164	
861	0	34928	
862	0	34688	
863	0	34490	
864	0	34264	
865	0	34016	
866	0	33788	
867	0	33544	
868	0	33312	
869	0	33036	
870	0	32754	
871	0	32538	
872	0	32380	
873	0	32244	
874	0	32136	
875	0	32000	
876	0	31876	
877	0	31760	
878	0	31624	
879	0	31536	
880	0	31464	
881	0	31394	
882	0	31352	
883	0	31306	
884	0	31272	
885	0	31256	
886	0	31220	
887	0	31208	
888	0	31196	
889	0	31216	
890	0	31240	
891	0	31252	
892	0	31260	
893	0	31252	
894	0	31256	
895	0	31272	
896	0	31284	
897	0	31272	
898	0	31258	
899	0	31240	
900	0	31210	
901	0	31224	
902	0	31236	
903	0	31260	
904	0	31304	
905	0	31332	
906	0	31296	
907	0	31244	
908	0	31274	
909	0	31284	
910	0	31308	
911	0	31320	
912	0	31296	
913	0	31248	
914	0	31192	
915	0	31116	
916	0	30996	
917	0	30846	
918	0	30652	
919	0	30488	
920	0	30288	
921	0	30100	
922	0	29920	
923	0	29740	
924	0	29496	
925	0	29240	
926	0	29040	
927	0	28972	
928	0	28972	
929	0	29058	
930	0	29272	
931	0	29732	
932	0	30412	
933	0	31224	
934	0	32208	
935	0	33600	
936	0	35404	
937	0	37504	
938	0	40060	
939	0	43024	
940	0	46224	
941	0	49626	
942	0	53296	
943	0	57276	
944	0	60940	
945	0	63048	
946	0	64132	
947	0	64672	
948	0	64912	
949	0	64980	
950	0	64960	
951	0	64876	
952	0	64808	
953	0	64696	
954	0	64584	
955	0	64468	
956	0	64336	
957	0	64228	
958	0	64104	
959	0	63976	
960	0	63844	
961	0	63736	
962	0	63612	
963	0	63492	
964	0	63384	
965	0	63264	
966	0	63148	
967	0	63040	
968	0	62908	
969	0	62800	
970	0	62680	
971	0	60312	
972	0	54840	
973	0	49592	
974	0	44792	
975	0	40696	
976	0	37248	
977	0	34236	
978	0	31768	
979	0	29972	
980	0	28772	
981	0	27984	
982	0	27424	
983	0	26928	
984	0	26476	
985	0	26044	
986	0	25640	
987	0	25196	
988	0	24800	
989	0	24510	
990	0	24224	
991	0	23948	
992	0	23668	
993	0	23424	
994	0	23194	
995	0	22968	
996	0	22772	
997	0	22616	
998	0	22456	
999	0	22306	
1000	0	22168	
1001	0	22048	
1002	0	21964	
1003	0	21872	
1004	0	21800	
1005	0	21732	
1006	0	21668	
1007	0	21624	
1008	0	21610	
1009	0	21600	
1010	0	21612	
1011	0	21614	
1012	0	21652	
1013	0	21692	
1014	0	21716	
1015	0	21752	
1016	0	21800	
1017	0	21844	
1018	0	21948	
1019	0	22036	
1020	0	22092	
1021	0	22144	
1022	0	22205	
1023	0	22272	
1024	0	22364	
1025	0	22444	
1026	0	22504	
1027	0	22552	
1028	0	22604	
1029	0	22640	
1030	0	22732	
1031	0	22816	
1032	0	22906	
1033	0	22988	
1034	0	23082	
1035	0	23176	
1036	0	23274	
1037	0	23348	
1038	0	23476	
1039	0	23596	
1040	0	23688	
1041	0	23776	
1042	0	23844	
1043	0	23920	
1044	0	23984	
1045	0	24072	
1046	0	24128	
1047	0	24212	
1048	0	24316	
1049	0	24452	
1050	0	24544	
1051	0	24628	
1052	0	24720	
1053	0	24792	
1054	0	24876	
1055	0	24960	
1056	0	25060	
1057	0	25152	
1058	0	25240	
1059	0	25316	
1060	0	25424	
1061	0	25492	
1062	0	25580	
1063	0	25672	
1064	0	25764	
1065	0	25852	
1066	0	25906	
1067	0	25970	
1068	0	26048	
1069	0	26136	
1070	0	26194	
1071	0	26272	
1072	0	26332	
1073	0	26432	
1074	0	26512	
1075	0	26578	
1076	0	26688	
1077	0	26780	
1078	0	26884	
1079	0	26952	
1080	0	27008	
1081	0	27052	
1082	0	27116	
1083	0	27208	
1084	0	27296	
1085	0	27408	
1086	0	27496	
1087	0	27576	
1088	0	27656	
1089	0	27720	
1090	0	27836	
1091	0	27920	
1092	0	28000	
1093	0	28052	
1094	0	28136	
1095	0	28240	
1096	0	28344	
1097	0	28460	
1098	0	28570	
1099	0	28652	
1100	0	28728	
1101	0	28808	
1102	0	28904	
1103	0	29008	
1104	0	29112	
1105	0	29216	
1106	0	29292	
1107	0	29380	
1108	0	29464	
1109	0	29576	
1110	0	29664	
1111	0	29744	
1112	0	29836	
1113	0	29928	
1114	0	30020	
1115	0	30124	
1116	0	30274	
1117	0	30388	
1118	0	30508	
1119	0	30592	
1120	0	30652	
1121	0	30740	
1122	0	30856	
1123	0	30940	
1124	0	31032	
1125	0	31136	
1126	0	31232	
1127	0	31332	
1128	0	31416	
1129	0	31504	
1130	0	31578	
1131	0	31644	
1132	0	31712	
1133	0	31808	
1134	0	31904	
1135	0	31984	
1136	0	32100	
1137	0	32184	
1138	0	32296	
1139	0	32374	
1140	0	32448	
1141	0	32520	
1142	0	32580	
1143	0	32644	
1144	0	32704	
1145	0	32744	
1146	0	32784	
1147	0	32808	
1148	0	32828	
1149	0	32868	
1150	0	32916	
1151	0	32968	
1152	0	32984	
1153	0	33016	
1154	0	33056	
1155	0	33076	
1156	0	33076	
1157	0	33072	
1158	0	33090	
1159	0	33096	
1160	0	33128	
1161	0	33160	
1162	0	33218	
1163	0	33244	
1164	0	33260	
1165	0	33296	
1166	0	33340	
1167	0	33380	
1168	0	33388	
1169	0	33396	
1170	0	33424	
1171	0	33440	
1172	0	33476	
1173	0	33556	
1174	0	33624	
1175	0	33664	
1176	0	33712	
1177	0	33772	
1178	0	33796	
1179	0	33816	
1180	0	33844	
1181	0	33886	
1182	0	33876	
1183	0	33892	
1184	0	33920	
1185	0	33944	
1186	0	33928	
1187	0	33900	
1188	0	33864	
1189	0	33840	
1190	0	33780	
1191	0	33712	
1192	0	33676	
1193	0	33646	
1194	0	33552	
1195	0	33472	
1196	0	33404	
1197	0	33336	
1198	0	33242	
1199	0	33180	
1200	0	33134	
1201	0	33088	
1202	0	33072	
1203	0	33040	
1204	0	32992	
1205	0	32900	
1206	0	32818	
1207	0	32756	
1208	0	32674	
1209	0	32640	
1210	0	32604	
1211	0	32568	
1212	0	32536	
1213	0	32496	
1214	0	32468	
1215	0	32388	
1216	0	32316	
1217	0	32276	
1218	0	32260	
1219	0	32224	
1220	0	32160	
1221	0	32096	
1222	0	32048	
1223	0	32032	
1224	0	32040	
1225	0	32036	
1226	0	32044	
1227	0	32056	
1228	0	32060	
1229	0	32040	
1230	0	31988	
1231	0	31960	
1232	0	31936	
1233	0	31880	
1234	0	31842	
1235	0	31834	
1236	0	31852	
1237	0	31880	
1238	0	31880	
1239	0	31856	
1240	0	31860	
1241	0	31848	
1242	0	31816	
1243	0	31872	
1244	0	31904	
1245	0	31908	
1246	0	31900	
1247	0	31912	
1248	0	31936	
1249	0	31936	
1250	0	31928	
1251	0	31964	
1252	0	32000	
1253	0	31998	
1254	0	32016	
1255	0	32040	
1256	0	32088	
1257	0	32148	
1258	0	32192	
1259	0	32216	
1260	0	32256	
1261	0	32304	
1262	0	32340	
1263	0	32384	
1264	0	32416	
1265	0	32460	
1266	0	32496	
1267	0	32520	
1268	0	32544	
1269	0	32598	
1270	0	32616	
1271	0	32648	
1272	0	32704	
1273	0	32744	
1274	0	32800	
1275	0	32844	
1276	0	32860	
1277	0	32872	
1278	0	32876	
1279	0	32904	
1280	0	32926	
1281	0	32936	
1282	0	32954	
1283	0	32980	
1284	0	33004	
1285	0	33028	
1286	0	33064	
1287	0	33088	
1288	0	33104	
1289	0	33136	
1290	0	33164	
1291	0	33168	
1292	0	33192	
1293	0	33240	
1294	0	33280	
1295	0	33276	
1296	0	33256	
1297	0	33296	
1298	0	33342	
1299	0	33344	
1300	0	33360	
1301	0	33364	
1302	0	33336	
1303	0	33316	
1304	0	33304	
1305	0	33316	
1306	0	33328	
1307	0	33344	
1308	0	33352	
1309	0	33336	
1310	0	33348	
1311	0	33340	
1312	0	33348	
1313	0	33344	
1314	0	33344	
1315	0	33352	
1316	0	33372	
1317	0	33356	
1318	0	33336	
1319	0	33320	
1320	0	33324	
1321	0	33316	
1322	0	33344	
1323	0	33360	
1324	0	33372	
1325	0	33352	
1326	0	33372	
1327	0	33380	
1328	0	33372	
1329	0	33338	
1330	0	33328	
1331	0	33320	
1332	0	33296	
1333	0	33276	
1334	0	33272	
1335	0	33276	
1336	0	33280	
1337	0	33256	
1338	0	33248	
1339	0	33244	
1340	0	33248	
1341	0	33232	
1342	0	33238	
1343	0	33260	
1344	0	33280	
1345	0	33272	
1346	0	33252	
1347	0	33218	
1348	0	33192	
1349	0	33168	
1350	0	33172	
1351	0	33160	
1352	0	33160	
1353	0	33146	
1354	0	33108	
1355	0	33108	
1356	0	33100	
1357	0	33052	
1358	0	33012	
1359	0	32984	
1360	0	32952	
1361	0	32936	
1362	0	32900	
1363	0	32888	
1364	0	32872	
1365	0	32860	
1366	0	32876	
1367	0	32884	
1368	0	32864	
1369	0	32842	
1370	0	32844	
1371	0	32832	
1372	0	32824	
1373	0	32802	
1374	0	32816	
1375	0	32824	
1376	0	32824	
1377	0	32764	
1378	0	32720	
1379	0	32712	
1380	0	32744	
1381	0	32768	
1382	0	32778	
1383	0	32792	
1384	0	32780	
1385	0	32760	
1386	0	32740	
1387	0	32724	
1388	0	32716	
1389	0	32696	
1390	0	32668	
1391	0	32688	
1392	0	32684	
1393	0	32684	
1394	0	32704	
1395	0	32730	
1396	0	32736	
1397	0	32736	
1398	0	32724	
1399	0	32704	
1400	0	32684	
1401	0	32672	
1402	0	32704	
1403	0	32736	
1404	0	32756	
1405	0	32748	
1406	0	32760	
1407	0	32764	
1408	0	32766	
1409	0	32760	
1410	0	32764	
1411	0	32760	
1412	0	32752	
1413	0	32768	
1414	0	32732	
1415	0	32724	
1416	0	32708	
1417	0	32710	
1418	0	32676	
1419	0	32668	
1420	0	32620	
1421	0	32584	
1422	0	32568	
1423	0	32560	
1424	0	32536	
1425	0	32528	
1426	0	32552	
1427	0	32560	
1428	0	32512	
1429	0	32560	
1430	0	32656	
1431	0	32680	
1432	0	32680	
1433	0	32704	
1434	0	32756	
1435	0	32768	
1436	0	32768	
1437	0	32764	
1438	0	32752	
1439	0	32748	
1440	0	32748	
1441	0	32748	
1442	0	32728	
1443	0	32696	
1444	0	32684	
1445	0	32680	
1446	0	32756	
1447	0	32896	
1448	0	33076	
1449	0	33312	
1450	0	33584	
1451	0	33824	
1452	0	34044	
1453	0	34232	
1454	0	34416	
1455	0	34564	
1456	0	34672	
1457	0	34796	
1458	0	34882	
1459	0	34892	
1460	0	34880	
1461	0	34864	
1462	0	34812	
1463	0	34748	
1464	0	34668	
1465	0	34592	
1466	0	34512	
1467	0	34492	
1468	0	34552	
1469	0	34752	
1470	0	35004	
1471	0	35352	
1472	0	35720	
1473	0	36064	
1474	0	36376	
1475	0	36624	
1476	0	36800	
1477	0	36888	
1478	0	36912	
1479	0	36972	
1480	0	37024	
1481	0	37068	
1482	0	37076	
1483	0	37132	
1484	0	37232	
1485	0	37340	
1486	0	37464	
1487	0	37528	
1488	0	37508	
1489	0	37352	
1490	0	37112	
1491	0	36870	
1492	0	36672	
1493	0	36536	
1494	0	36480	
1495	0	36428	
1496	0	36352	
1497	0	36228	
1498	0	36072	
1499	0	35864	
1500	0	35584	
1501	0	35340	
1502	0	35104	
1503	0	34904	
1504	0	34680	
1505	0	34464	
1506	0	34236	
1507	0	33992	
1508	0	33772	
1509	0	33536	
1510	0	33256	
1511	0	33008	
1512	0	32760	
1513	0	32516	
1514	0	32326	
1515	0	32248	
1516	0	32168	
1517	0	32064	
1518	0	31916	
1519	0	31716	
1520	0	31544	
1521	0	31412	
1522	0	31312	
1523	0	31216	
1524	0	31184	
1525	0	31168	
1526	0	31168	
1527	0	31160	
1528	0	31196	
1529	0	31212	
1530	0	31256	
1531	0	31290	
1532	0	31296	
1533	0	31256	
1534	0	31216	
1535	0	31160	
1536	0	31120	
1537	0	31116	
1538	0	31136	
1539	0	31176	
1540	0	31244	
1541	0	31280	
1542	0	31340	
1543	0	31376	
1544	0	31402	
1545	0	31400	
1546	0	31420	
1547	0	31464	
1548	0	31464	
1549	0	31420	
1550	0	31348	
1551	0	31336	
1552	0	31312	
1553	0	31224	
1554	0	31148	
1555	0	31088	
1556	0	31032	
1557	0	31002	
1558	0	30944	
1559	0	30868	
1560	0	30736	
1561	0	30572	
1562	0	30392	
1563	0	30228	
1564	0	30112	
1565	0	30000	
1566	0	29832	
1567	0	29596	
1568	0	29372	
1569	0	29256	
1570	0	29216	
1571	0	29240	
1572	0	29380	
1573	0	29724	
1574	0	30284	
1575	0	31012	
1576	0	31904	
1577	0	33168	
1578	0	34848	
1579	0	36820	
1580	0	39264	
1581	0	42072	
1582	0	45136	
1583	0	48404	
1584	0	51956	
1585	0	55896	
1586	0	59888	
1587	0	62448	
1588	0	63812	
1589	0	64476	
1590	0	64800	
1591	0	64896	
1592	0	64924	
1593	0	64848	
1594	0	64760	
1595	0	64672	
1596	0	64560	
1597	0	64444	
1598	0	64320	
1599	0	64192	
1600	0	64084	
1601	0	63952	
1602	0	63844	
1603	0	63712	
1604	0	63600	
1605	0	63476	
1606	0	63356	
1607	0	63248	
1608	0	63116	
1609	0	63004	
1610	0	62890	
1611	0	62772	
1612	0	62660	
1613	0	59872	
1614	0	54616	
1615	0	49488	
1616	0	44760	
1617	0	40744	
1618	0	37464	
1619	0	34728	
1620	0	32356	
1621	0	30456	
1622	0	29072	
1623	0	28108	
1624	0	27480	
1625	0	27000	
1626	0	26568	
1627	0	26160	
1628	0	25712	
1629	0	25256	
1630	0	24864	
1631	0	24496	
1632	0	24204	
1633	0	23998	
1634	0	23818	
1635	0	23608	
1636	0	23410	
1637	0	23172	
1638	0	22928	
1639	0	22680	
1640	0	22520	
1641	0	22378	
1642	0	22224	
1643	0	22064	
1644	0	21976	
1645	0	21880	
1646	0	21762	
1647	0	21640	
1648	0	21532	
1649	0	21456	
1650	0	21348	
1651	0	21293	
1652	0	21292	
1653	0	21340	
1654	0	21400	
1655	0	21476	
1656	0	21602	
1657	0	21712	
1658	0	21816	
1659	0	21896	
1660	0	21988	
1661	0	22098	
1662	0	22212	
1663	0	22272	
1664	0	22324	
1665	0	22348	
1666	0	22352	
1667	0	22376	
1668	0	22444	
1669	0	22544	
1670	0	22634	
1671	0	22740	
1672	0	22872	
1673	0	23000	
1674	0	23100	
1675	0	23172	
1676	0	23232	
1677	0	23308	
1678	0	23384	
1679	0	23486	
1680	0	23588	
1681	0	23680	
1682	0	23776	
1683	0	23868	
1684	0	23920	
1685	0	23976	
1686	0	24044	
1687	0	24092	
1688	0	24168	
1689	0	24240	
1690	0	24272	
1691	0	24328	
1692	0	24372	
1693	0	24416	
1694	0	24494	
1695	0	24580	
1696	0	24632	
1697	0	24690	
1698	0	24790	
1699	0	24932	
1700	0	25072	
1701	0	25194	
1702	0	25328	
1703	0	25472	
1704	0	25616	
1705	0	25740	
1706	0	25852	
1707	0	25870	
1708	0	25888	
1709	0	25920	
1710	0	25964	
1711	0	26016	
1712	0	26068	
1713	0	26160	
1714	0	26252	
1715	0	26369	
1716	0	26474	
1717	0	26557	
1718	0	26636	
1719	0	26726	
1720	0	26772	
1721	0	26784	
1722	0	26772	
1723	0	26788	
1724	0	26862	
1725	0	26992	
1726	0	27118	
1727	0	27244	
1728	0	27370	
1729	0	27460	
1730	0	27488	
1731	0	27544	
1732	0	27660	
1733	0	27800	
1734	0	27938	
1735	0	28068	
1736	0	28184	
1737	0	28268	
1738	0	28352	
1739	0	28460	
1740	0	28576	
1741	0	28704	
1742	0	28778	
1743	0	28840	
1744	0	28910	
1745	0	28968	
1746	0	29092	
1747	0	29216	
1748	0	29340	
1749	0	29456	
1750	0	29568	
1751	0	29680	
1752	0	29804	
1753	0	29914	
1754	0	29972	
1755	0	30032	
1756	0	30092	
1757	0	30164	
1758	0	30248	
1759	0	30336	
1760	0	30418	
1761	0	30472	
1762	0	30528	
1763	0	30636	
1764	0	30760	
1765	0	30872	
1766	0	30944	
1767	0	31056	
1768	0	31156	
1769	0	31240	
1770	0	31316	
1771	0	31404	
1772	0	31520	
1773	0	31632	
1774	0	31728	
1775	0	31860	
1776	0	31960	
1777	0	32016	
1778	0	32096	
1779	0	32152	
1780	0	32168	
1781	0	32204	
1782	0	32298	
1783	0	32436	
1784	0	32600	
1785	0	32720	
1786	0	32788	
1787	0	32812	
1788	0	32824	
1789	0	32816	
1790	0	32796	
1791	0	32748	
1792	0	32700	
1793	0	32664	
1794	0	32680	
1795	0	32654	
1796	0	32656	
1797	0	32652	
1798	0	32656	
1799	0	32656	
1800	0	32672	
1801	0	32696	
1802	0	32712	
1803	0	32744	
1804	0	32836	
1805	0	32908	
1806	0	32956	
1807	0	32992	
1808	0	33036	
1809	0	33132	
1810	0	33228	
1811	0	33260	
1812	0	33272	
1813	0	33268	
1814	0	33252	
1815	0	33216	
1816	0	33166	
1817	0	33108	
1818	0	33124	
1819	0	33178	
1820	0	33204	
1821	0	33264	
1822	0	33344	
1823	0	33432	
1824	0	33500	
1825	0	33504	
1826	0	33484	
1827	0	33512	
1828	0	33606	
1829	0	33664	
1830	0	33700	
1831	0	33672	
1832	0	33616	
1833	0	33564	
1834	0	33552	
1835	0	33524	
1836	0	33452	
1837	0	33408	
1838	0	33332	
1839	0	33232	
1840	0	33104	
1841	0	32984	
1842	0	32864	
1843	0	32772	
1844	0	32704	
1845	0	32580	
1846	0	32468	
1847	0	32410	
1848	0	32388	
1849	0	32376	
1850	0	32368	
1851	0	32388	
1852	0	32392	
1853	0	32396	
1854	0	32400	
1855	0	32326	
1856	0	32224	
1857	0	32184	
1858	0	32160	
1859	0	32104	
1860	0	32080	
1861	0	32084	
1862	0	32056	
1863	0	32024	
1864	0	31988	
1865	0	31968	
1866	0	32018	
1867	0	32032	
1868	0	32012	
1869	0	31952	
1870	0	31880	
1871	0	31836	
1872	0	31800	
1873	0	31760	
1874	0	31712	
1875	0	31604	
1876	0	31552	
1877	0	31560	
1878	0	31596	
1879	0	31604	
1880	0	31564	
1881	0	31514	
1882	0	31416	
1883	0	31360	
1884	0	31348	
1885	0	31350	
1886	0	31404	
1887	0	31488	
1888	0	31544	
1889	0	31572	
1890	0	31564	
1891	0	31594	
1892	0	31604	
1893	0	31672	
1894	0	31724	
1895	0	31792	
1896	0	31882	
1897	0	32016	
1898	0	32088	
1899	0	32128	
1900	0	32140	
1901	0	32160	
1902	0	32164	
1903	0	32232	
1904	0	32280	
1905	0	32280	
1906	0	32296	
1907	0	32328	
1908	0	32372	
1909	0	32376	
1910	0	32374	
1911	0	32396	
1912	0	32436	
1913	0	32492	
1914	0	32496	
1915	0	32452	
1916	0	32404	
1917	0	32364	
1918	0	32376	
1919	0	32410	
1920	0	32416	
1921	0	32384	
1922	0	32348	
1923	0	32292	
1924	0	32268	
1925	0	32276	
1926	0	32324	
1927	0	32412	
1928	0	32532	
1929	0	32632	
1930	0	32748	
1931	0	32848	
1932	0	32912	
1933	0	32968	
1934	0	32920	
1935	0	32896	
1936	0	32976	
1937	0	33100	
1938	0	33184	
1939	0	33260	
1940	0	33284	
1941	0	33256	
1942	0	33192	
1943	0	33064	
1944	0	32960	
1945	0	32952	
1946	0	32920	
1947	0	32900	
1948	0	32912	
1949	0	32936	
1950	0	32952	
1951	0	32970	
1952	0	33020	
1953	0	33138	
1954	0	33240	
1955	0	33248	
1956	0	33176	
1957	0	33144	
1958	0	33184	
1959	0	33248	
1960	0	33180	
1961	0	33112	
1962	0	33104	
1963	0	33132	
1964	0	33088	
1965	0	33076	
1966	0	33052	
1967	0	33048	
1968	0	33086	
1969	0	33058	
1970	0	33072	
1971	0	33132	
1972	0	33160	
1973	0	33176	
1974	0	33216	
1975	0	33184	
1976	0	33108	
1977	0	33114	
1978	0	33144	
1979	0	33184	
1980	0	33182	
1981	0	33137	
1982	0	33072	
1983	0	33008	
1984	0	32960	
1985	0	32968	
1986	0	33004	
1987	0	33028	
1988	0	32988	
1989	0	32932	
1990	0	32832	
1991	0	32732	
1992	0	32696	
1993	0	32704	
1994	0	32744	
1995	0	32768	
1996	0	32796	
1997	0	32802	
1998	0	32750	
1999	0	32732	
2000	0	32752	
2001	0	32798	
2002	0	32904	
2003	0	32988	
2004	0	32976	
2005	0	32914	
2006	0	32812	
2007	0	32728	
2008	0	32636	
2009	0	32568	
2010	0	32552	
2011	0	32544	
2012	0	32604	
2013	0	32728	
2014	0	32836	
2015	0	32896	
2016	0	32992	
2017	0	33056	
2018	0	33064	
2019	0	33096	
2020	0	33148	
2021	0	33130	
2022	0	33084	
2023	0	32992	
2024	0	32928	
2025	0	32840	
2026	0	32776	
2027	0	32720	
2028	0	32736	
2029	0	32736	
2030	0	32720	
2031	0	32692	
2032	0	32776	
2033	0	32890	
2034	0	32904	
2035	0	32824	
2036	0	32696	
2037	0	32604	
2038	0	32596	
2039	0	32584	
2040	0	32572	
2041	0	32504	
2042	0	32456	
2043	0	32464	
2044	0	32456	
2045	0	32432	
2046	0	32480	
2047	0	32552	
2048	0	32588	
2049	0	32600	
2050	0	32620	
2051	0	32624	
2052	0	32612	
2053	0	32596	
2054	0	32492	
2055	0	32442	
2056	0	32444	
2057	0	32488	
2058	0	32564	
2059	0	32684	
2060	0	32802	
2061	0	32896	
2062	0	32948	
2063	0	32906	
2064	0	32752	
2065	0	32608	
2066	0	32520	
2067	0	32488	
2068	0	32480	
2069	0	32536	
2070	0	32604	
2071	0	32626	
2072	0	32684	
2073	0	32776	
2074	0	32900	
2075	0	32952	
2076	0	32944	
2077	0	32904	
2078	0	32848	
2079	0	32772	
2080	0	32732	
2081	0	32720	
2082	0	32732	
2083	0	32764	
2084	0	32896	
2085	0	32980	
2086	0	33012	
2087	0	33000	
2088	0	32992	
2089	0	32928	
2090	0	32856	
2091	0	32848	
2092	0	32872	
2093	0	32896	
2094	0	32928	
2095	0	32972	
2096	0	33018	
2097	0	33024	
2098	0	33040	
2099	0	33048	
2100	0	33008	
2101	0	32940	
2102	0	32884	
2103	0	32884	
2104	0	32912	
2105	0	32912	
2106	0	32868	
2107	0	32800	
2108	0	32760	
2109	0	32736	
2110	0	32744	
2111	0	32858	
2112	0	33080	
2113	0	33332	
2114	0	33636	
2115	0	33936	
2116	0	34216	
2117	0	34416	
2118	0	34504	
2119	0	34528	
2120	0	34536	
2121	0	34580	
2122	0	34680	
2123	0	34760	
2124	0	34800	
2125	0	34760	
2126	0	34722	
2127	0	34700	
2128	0	34720	
2129	0	34712	
2130	0	34668	
2131	0	34688	
2132	0	34824	
2133	0	35096	
2134	0	35458	
2135	0	35892	
2136	0	36228	
2137	0	36468	
2138	0	36604	
2139	0	36600	
2140	0	36520	
2141	0	36448	
2142	0	36532	
2143	0	36720	
2144	0	36872	
2145	0	36944	
2146	0	37004	
2147	0	37124	
2148	0	37312	
2149	0	37432	
2150	0	37440	
2151	0	37372	
2152	0	37264	
2153	0	37082	
2154	0	36840	
2155	0	36584	
2156	0	36408	
2157	0	36352	
2158	0	36340	
2159	0	36360	
2160	0	36380	
2161	0	36400	
2162	0	36368	
2163	0	36200	
2164	0	35898	
2165	0	35560	
2166	0	35280	
2167	0	35040	
2168	0	34816	
2169	0	34648	
2170	0	34528	
2171	0	34376	
2172	0	34100	
2173	0	33806	
2174	0	33540	
2175	0	33264	
2176	0	33028	
2177	0	32804	
2178	0	32652	
2179	0	32560	
2180	0	32500	
2181	0	32424	
2182	0	32272	
2183	0	32080	
2184	0	31880	
2185	0	31752	
2186	0	31640	
2187	0	31528	
2188	0	31460	
2189	0	31324	
2190	0	31248	
2191	0	31204	
2192	0	31266	
2193	0	31380	
2194	0	31472	
2195	0	31570	
2196	0	31708	
2197	0	31868	
2198	0	31908	
2199	0	31800	
2200	0	31632	
2201	0	31564	
2202	0	31560	
2203	0	31616	
2204	0	31692	
2205	0	31740	
2206	0	31792	
2207	0	31832	
2208	0	31832	
2209	0	31808	
2210	0	31784	
2211	0	31728	
2212	0	31724	
2213	0	31704	
2214	0	31560	
2215	0	31396	
2216	0	31248	
2217	0	31144	
2218	0	31080	
2219	0	31032	
2220	0	31008	
2221	0	30952	
2222	0	30864	
2223	0	30796	
2224	0	30768	
2225	0	30722	
2226	0	30672	
2227	0	30558	
2228	0	30472	
2229	0	30352	
2230	0	30144	
2231	0	29892	
2232	0	29672	
2233	0	29600	
2234	0	29780	
2235	0	30096	
2236	0	30504	
2237	0	31068	
2238	0	31864	
2239	0	32816	
2240	0	33936	
2241	0	35296	
2242	0	36796	
2243	0	38736	
2244	0	41178	
2245	0	44056	
2246	0	47216	
2247	0	50676	
2248	0	54548	
2249	0	58792	
2250	0	61912	
2251	0	63548	
2252	0	64400	
2253	0	64808	
2254	0	64964	
2255	0	65000	
2256	0	64968	
2257	0	64896	
2258	0	64776	
2259	0	64672	
2260	0	64552	
2261	0	64424	
2262	0	64320	
2263	0	64192	
2264	0	64080	
2265	0	63968	
2266	0	63840	
2267	0	63720	
2268	0	63584	
2269	0	63464	
2270	0	63360	
2271	0	63238	
2272	0	63128	
2273	0	63016	
2274	0	62892	
2275	0	62780	
2276	0	61720	
2277	0	56176	
2278	0	50784	
2279	0	45656	
2280	0	41400	
2281	0	38200	
2282	0	35700	
2283	0	33672	
2284	0	31988	
2285	0	30560	
2286	0	29368	
2287	0	28404	
2288	0	27720	
2289	0	27176	
2290	0	26664	
2291	0	26152	
2292	0	25688	
2293	0	25288	
2294	0	24936	
2295	0	24544	
2296	0	24146	
2297	0	23848	
2298	0	23594	
2299	0	23376	
2300	0	23196	
2301	0	23048	
2302	0	22948	
2303	0	22890	
2304	0	22820	
2305	0	22700	
2306	0	22516	
2307	0	22332	
2308	0	22186	
2309	0	22084	
2310	0	21950	
2311	0	21818	
2312	0	21750	
2313	0	21736	
2314	0	21660	
2315	0	21548	
2316	0	21404	
2317	0	21300	
2318	0	21280	
2319	0	21320	
2320	0	21396	
2321	0	21472	
2322	0	21585	
2323	0	21680	
2324	0	21768	
2325	0	21844	
2326	0	21952	
2327	0	22116	
2328	0	22200	
2329	0	22236	
2330	0	22254	
2331	0	22256	
2332	0	22294	
2333	0	22384	
2334	0	22532	
2335	0	22648	
2336	0	22768	
2337	0	22880	
2338	0	22984	
2339	0	23048	
2340	0	23160	
2341	0	23244	
2342	0	23362	
2343	0	23500	
2344	0	23644	
2345	0	23768	
2346	0	23892	
2347	0	23988	
2348	0	24072	
2349	0	24160	
2350	0	24220	
2351	0	24268	
2352	0	24350	
2353	0	24418	
2354	0	24504	
2355	0	24564	
2356	0	24604	
2357	0	24608	
2358	0	24580	
2359	0	24556	
2360	0	24572	
2361	0	24556	
2362	0	24488	
2363	0	24425	
2364	0	24474	
2365	0	24648	
2366	0	24872	
2367	0	25184	
2368	0	25428	
2369	0	25668	
2370	0	25956	
2371	0	26270	
2372	0	26524	
2373	0	26640	
2374	0	26676	
2375	0	26712	
2376	0	26752	
2377	0	26752	
2378	0	26744	
2379	0	26724	
2380	0	26670	
2381	0	26580	
2382	0	26532	
2383	0	26562	
2384	0	26636	
2385	0	26656	
2386	0	26680	
2387	0	26780	
2388	0	26952	
2389	0	27212	
2390	0	27476	
2391	0	27704	
2392	0	27912	
2393	0	28048	
2394	0	28128	
2395	0	28138	
2396	0	28196	
2397	0	28340	
2398	0	28504	
2399	0	28704	
2400	0	28908	
2401	0	29002	
2402	0	29074	
2403	0	29136	
2404	0	29200	
2405	0	29164	
2406	0	29080	
2407	0	29016	
2408	0	28948	
2409	0	28928	
2410	0	28956	
2411	0	28994	
2412	0	28994	
2413	0	28964	
2414	0	29052	
2415	0	29290	
2416	0	29592	
2417	0	29864	
2418	0	30092	
2419	0	30276	
2420	0	30388	
2421	0	30512	
2422	0	30628	
2423	0	30746	
2424	0	30848	
2425	0	30864	
2426	0	30832	
2427	0	30808	
2428	0	30868	
2429	0	31008	
2430	0	31164	
2431	0	31232	
2432	0	31264	
2433	0	31352	
2434	0	31504	
2435	0	31648	
2436	0	31722	
2437	0	31792	
2438	0	31884	
2439	0	31964	
2440	0	32032	
2441	0	32104	
2442	0	32200	
2443	0	32338	
2444	0	32490	
2445	0	32620	
2446	0	32688	
2447	0	32688	
2448	0	32672	
2449	0	32676	
2450	0	32680	
2451	0	32644	
2452	0	32518	
2453	0	32472	
2454	0	32564	
2455	0	32716	
2456	0	32848	
2457	0	32864	
2458	0	32876	
2459	0	32938	
2460	0	33056	
2461	0	33184	
2462	0	33248	
2463	0	33232	
2464	0	33156	
2465	0	33100	
2466	0	33072	
2467	0	33020	
2468	0	32964	
2469	0	32880	
2470	0	32804	
2471	0	32856	
2472	0	32944	
2473	0	33000	
2474	0	33020	
2475	0	32908	
2476	0	32690	
2477	0	32532	
2478	0	32536	
2479	0	32680	
2480	0	32928	
2481	0	33192	
2482	0	33420	
2483	0	33604	
2484	0	33752	
2485	0	33872	
2486	0	33912	
2487	0	33852	
2488	0	33760	
2489	0	33676	
2490	0	33524	
2491	0	33328	
2492	0	33120	
2493	0	32968	
2494	0	32876	
2495	0	32842	
2496	0	32864	
2497	0	32972	
2498	0	33140	
2499	0	33244	
2500	0	33304	
2501	0	33386	
2502	0	33420	
2503	0	33440	
2504	0	33452	
2505	0	33400	
2506	0	33220	
2507	0	32922	
2508	0	32592	
2509	0	32280	
2510	0	32100	
2511	0	32056	
2512	0	32088	
2513	0	32192	
2514	0	32332	
2515	0	32464	
2516	0	32452	
2517	0	32320	
2518	0	32140	
2519	0	32048	
2520	0	32004	
2521	0	31928	
2522	0	31856	
2523	0	31840	
2524	0	31896	
2525	0	31984	
2526	0	32004	
2527	0	31936	
2528	0	31754	
2529	0	31588	
2530	0	31524	
2531	0	31540	
2532	0	31590	
2533	0	31676	
2534	0	31692	
2535	0	31746	
2536	0	31816	
2537	0	31828	
2538	0	31832	
2539	0	31808	
2540	0	31740	
2541	0	31712	
2542	0	31688	
2543	0	31584	
2544	0	31388	
2545	0	31236	
2546	0	31166	
2547	0	31072	
2548	0	30996	
2549	0	31048	
2550	0	31222	
2551	0	31396	
2552	0	31544	
2553	0	31700	
2554	0	31768	
2555	0	31768	
2556	0	31790	
2557	0	31748	
2558	0	31608	
2559	0	31490	
2560	0	31404	
2561	0	31372	
2562	0	31392	
2563	0	31472	
2564	0	31588	
2565	0	31672	
2566	0	31796	
2567	0	31956	
2568	0	32022	
2569	0	32068	
2570	0	32104	
2571	0	32106	
2572	0	32128	
2573	0	32140	
2574	0	32156	
2575	0	32236	
2576	0	32396	
2577	0	32448	
2578	0	32448	
2579	0	32416	
2580	0	32380	
2581	0	32416	
2582	0	32496	
2583	0	32552	
2584	0	32520	
2585	0	32424	
2586	0	32360	
2587	0	32384	
2588	0	32488	
2589	0	32640	
2590	0	32780	
2591	0	32848	
2592	0	32936	
2593	0	32984	
2594	0	32908	
2595	0	32688	
2596	0	32426	
2597	0	32208	
2598	0	32132	
2599	0	32232	
2600	0	32352	
2601	0	32540	
2602	0	32764	
2603	0	32992	
2604	0	33154	
2605	0	33228	
2606	0	33276	
2607	0	33316	
2608	0	33360	
2609	0	33420	
2610	0	33440	
2611	0	33488	
2612	0	33472	
2613	0	33384	
2614	0	33208	
2615	0	33144	
2616	0	33100	
2617	0	33040	
2618	0	33008	
2619	0	32980	
2620	0	32968	
2621	0	33052	
2622	0	33216	
2623	0	33328	
2624	0	33420	
2625	0	33508	
2626	0	33498	
2627	0	33402	
2628	0	33252	
2629	0	33158	
2630	0	33044	
2631	0	32932	
2632	0	32858	
2633	0	32788	
2634	0	32796	
2635	0	32896	
2636	0	33080	
2637	0	33288	
2638	0	33424	
2639	0	33426	
2640	0	33392	
2641	0	33336	
2642	0	33332	
2643	0	33336	
2644	0	33352	
2645	0	33376	
2646	0	33472	
2647	0	33600	
2648	0	33644	
2649	0	33512	
2650	0	33284	
2651	0	33112	
2652	0	33024	
2653	0	32968	
2654	0	32976	
2655	0	32988	
2656	0	33042	
2657	0	33108	
2658	0	33168	
2659	0	33216	
2660	0	33224	
2661	0	33216	
2662	0	33204	
2663	0	33208	
2664	0	33180	
2665	0	33128	
2666	0	33044	
2667	0	32896	
2668	0	32708	
2669	0	32520	
2670	0	32464	
2671	0	32504	
2672	0	32576	
2673	0	32608	
2674	0	32632	
2675	0	32672	
2676	0	32756	
2677	0	32872	
2678	0	32976	
2679	0	33076	
2680	0	33124	
2681	0	33064	
2682	0	32960	
2683	0	32824	
2684	0	32640	
2685	0	32552	
2686	0	32544	
2687	0	32664	
2688	0	32852	
2689	0	33048	
2690	0	33248	
2691	0	33428	
2692	0	33468	
2693	0	33432	
2694	0	33376	
2695	0	33320	
2696	0	33236	
2697	0	33104	
2698	0	32908	
2699	0	32788	
2700	0	32800	
2701	0	32848	
2702	0	32874	
2703	0	32864	
2704	0	32730	
2705	0	32508	
2706	0	32372	
2707	0	32416	
2708	0	32520	
2709	0	32652	
2710	0	32760	
2711	0	32812	
2712	0	32780	
2713	0	32676	
2714	0	32588	
2715	0	32544	
2716	0	32516	
2717	0	32608	
2718	0	32782	
2719	0	32872	
2720	0	32956	
2721	0	33064	
2722	0	33196	
2723	0	33268	
2724	0	33240	
2725	0	33088	
2726	0	32908	
2727	0	32748	
2728	0	32548	
2729	0	32276	
2730	0	32048	
2731	0	31988	
2732	0	32104	
2733	0	32292	
2734	0	32456	
2735	0	32672	
2736	0	32956	
2737	0	33178	
2738	0	33204	
2739	0	33120	
2740	0	33084	
2741	0	33128	
2742	0	33128	
2743	0	33064	
2744	0	32980	
2745	0	32858	
2746	0	32712	
2747	0	32552	
2748	0	32460	
2749	0	32540	
2750	0	32794	
2751	0	33160	
2752	0	33536	
2753	0	33776	
2754	0	33952	
2755	0	34168	
2756	0	34490	
2757	0	34718	
2758	0	34760	
2759	0	34660	
2760	0	34604	
2761	0	34560	
2762	0	34460	
2763	0	34312	
2764	0	34168	
2765	0	34032	
2766	0	33908	
2767	0	33920	
2768	0	34072	
2769	0	34288	
2770	0	34544	
2771	0	34864	
2772	0	35276	
2773	0	35684	
2774	0	36080	
2775	0	36408	
2776	0	36576	
2777	0	36632	
2778	0	36572	
2779	0	36576	
2780	0	36604	
2781	0	36672	
2782	0	36756	
2783	0	36780	
2784	0	36832	
2785	0	36952	
2786	0	37044	
2787	0	37136	
2788	0	37252	
2789	0	37328	
2790	0	37240	
2791	0	37064	
2792	0	36884	
2793	0	36696	
2794	0	36440	
2795	0	36264	
2796	0	36240	
2797	0	36288	
2798	0	36308	
2799	0	36264	
2800	0	36144	
2801	0	35980	
2802	0	35808	
2803	0	35616	
2804	0	35432	
2805	0	35240	
2806	0	35024	
2807	0	34840	
2808	0	34648	
2809	0	34364	
2810	0	33968	
2811	0	33528	
2812	0	33132	
2813	0	32808	
2814	0	32540	
2815	0	32324	
2816	0	32172	
2817	0	32120	
2818	0	32064	
2819	0	32064	
2820	0	32068	
2821	0	32006	
2822	0	31780	
2823	0	31484	
2824	0	31260	
2825	0	31184	
2826	0	31220	
2827	0	31301	
2828	0	31444	
2829	0	31632	
2830	0	31832	
2831	0	31988	
2832	0	32044	
2833	0	32064	
2834	0	32080	
2835	0	32028	
2836	0	31928	
2837	0	31820	
2838	0	31752	
2839	0	31688	
2840	0	31628	
2841	0	31552	
2842	0	31470	
2843	0	31468	
2844	0	31512	
2845	0	31504	
2846	0	31428	
2847	0	31324	
2848	0	31116	
2849	0	31000	
2850	0	30984	
2851	0	31088	
2852	0	31296	
2853	0	31520	
2854	0	31664	
2855	0	31784	
2856	0	31868	
2857	0	31904	
2858	0	31808	
2859	0	31572	
2860	0	31348	
2861	0	31200	
2862	0	31112	
2863	0	30976	
2864	0	30848	
2865	0	30848	
2866	0	30884	
2867	0	30896	
2868	0	30880	
2869	0	30708	
2870	0	30408	
2871	0	30080	
2872	0	29896	
2873	0	29920	
2874	0	30132	
2875	0	30632	
2876	0	31468	
2877	0	32488	
2878	0	33848	
2879	0	35472	
2880	0	37120	
2881	0	39064	
2882	0	41540	
2883	0	44520	
2884	0	47720	
2885	0	51232	
2886	0	55224	
2887	0	59448	
2888	0	62272	
2889	0	63768	
2890	0	64512	
2891	0	64884	
2892	0	65024	
2893	0	65032	
2894	0	64984	
2895	0	64908	
2896	0	64824	
2897	0	64688	
2898	0	64576	
2899	0	64440	
2900	0	64340	
2901	0	64216	
2902	0	64092	
2903	0	63976	
2904	0	63852	
2905	0	63720	
2906	0	63616	
2907	0	63492	
2908	0	63376	
2909	0	63248	
2910	0	63136	
2911	0	63012	
2912	0	62900	
2913	0	62800	
2914	0	61512	
2915	0	55728	
2916	0	50128	
2917	0	44800	
2918	0	40396	
2919	0	37096	
2920	0	34700	
2921	0	32940	
2922	0	31604	
2923	0	30472	
2924	0	29468	
2925	0	28588	
2926	0	27880	
2927	0	27244	
2928	0	26668	
2929	0	26110	
2930	0	25626	
2931	0	25184	
2932	0	24708	
2933	0	24288	
2934	0	23960	
2935	0	23688	
2936	0	23416	
2937	0	23172	
2938	0	22914	
2939	0	22620	
2940	0	22344	
2941	0	22048	
2942	0	21764	
2943	0	21584	
2944	0	21548	
2945	0	21608	
2946	0	21708	
2947	0	21804	
2948	0	21860	
2949	0	21804	
2950	0	21744	
2951	0	21708	
2952	0	21664	
2953	0	21656	
2954	0	21670	
2955	0	21708	
2956	0	21752	
2957	0	21828	
2958	0	21880	
2959	0	21880	
2960	0	21868	
2961	0	21884	
2962	0	21768	
2963	0	21668	
2964	0	21620	
2965	0	21576	
2966	0	21556	
2967	0	21672	
2968	0	21898	
2969	0	22122	
2970	0	22332	
2971	0	22544	
2972	0	22728	
2973	0	22790	
2974	0	22756	
2975	0	22696	
2976	0	22640	
2977	0	22712	
2978	0	22820	
2979	0	22888	
2980	0	22964	
2981	0	23080	
2982	0	23192	
2983	0	23364	
2984	0	23476	
2985	0	23548	
2986	0	23648	
2987	0	23800	
2988	0	24020	
2989	0	24238	
2990	0	24428	
2991	0	24576	
2992	0	24674	
2993	0	24746	
2994	0	24792	
2995	0	24818	
2996	0	24856	
2997	0	24884	
2998	0	24876	
2999	0	24920	
3000	0	25028	
3001	0	25164	
3002	0	25242	
3003	0	25364	
3004	0	25464	
3005	0	25582	
3006	0	25640	
3007	0	25632	
3008	0	25636	
3009	0	25678	
3010	0	25704	
3011	0	25652	
3012	0	25564	
3013	0	25612	
3014	0	25824	
3015	0	26124	
3016	0	26440	
3017	0	26692	
3018	0	26892	
3019	0	26936	
3020	0	26884	
3021	0	26884	
3022	0	26956	
3023	0	27040	
3024	0	27120	
3025	0	27168	
3026	0	27112	
3027	0	27112	
3028	0	27300	
3029	0	27560	
3030	0	27896	
3031	0	28140	
3032	0	28324	
3033	0	28468	
3034	0	28504	
3035	0	28484	
3036	0	28420	
3037	0	28380	
3038	0	28404	
3039	0	28456	
3040	0	28468	
3041	0	28492	
3042	0	28516	
3043	0	28588	
3044	0	28712	
3045	0	28832	
3046	0	28988	
3047	0	29176	
3048	0	29376	
3049	0	29528	
3050	0	29652	
3051	0	29824	
3052	0	29984	
3053	0	30090	
3054	0	30056	
3055	0	30008	
3056	0	30032	
3057	0	30100	
3058	0	30224	
3059	0	30444	
3060	0	30672	
3061	0	30844	
3062	0	30944	
3063	0	31060	
3064	0	31188	
3065	0	31260	
3066	0	31304	
3067	0	31370	
3068	0	31476	
3069	0	31608	
3070	0	31688	
3071	0	31696	
3072	0	31720	
3073	0	31780	
3074	0	31856	
3075	0	31924	
3076	0	32016	
3077	0	32084	
3078	0	32112	
3079	0	32160	
3080	0	32212	
3081	0	32264	
3082	0	32352	
3083	0	32552	
3084	0	32808	
3085	0	33108	
3086	0	33360	
3087	0	33528	
3088	0	33548	
3089	0	33432	
3090	0	33208	
3091	0	32968	
3092	0	32792	
3093	0	32740	
3094	0	32808	
3095	0	32944	
3096	0	33040	
3097	0	33092	
3098	0	33132	
3099	0	33178	
3100	0	33210	
3101	0	33228	
3102	0	33168	
3103	0	33052	
3104	0	32910	
3105	0	32736	
3106	0	32648	
3107	0	32712	
3108	0	32804	
3109	0	32816	
3110	0	32802	
3111	0	32816	
3112	0	32914	
3113	0	33060	
3114	0	33240	
3115	0	33460	
3116	0	33600	
3117	0	33668	
3118	0	33656	
3119	0	33600	
3120	0	33396	
3121	0	33168	
3122	0	32972	
3123	0	32824	
3124	0	32788	
3125	0	32884	
3126	0	33032	
3127	0	33244	
3128	0	33488	
3129	0	33664	
3130	0	33720	
3131	0	33672	
3132	0	33628	
3133	0	33584	
3134	0	33456	
3135	0	33224	
3136	0	33066	
3137	0	33020	
3138	0	33040	
3139	0	32948	
3140	0	32720	
3141	0	32492	
3142	0	32368	
3143	0	32340	
3144	0	32336	
3145	0	32280	
3146	0	32244	
3147	0	32288	
3148	0	32424	
3149	0	32572	
3150	0	32698	
3151	0	32764	
3152	0	32784	
3153	0	32772	
3154	0	32672	
3155	0	32416	
3156	0	32052	
3157	0	31668	
3158	0	31356	
3159	0	31208	
3160	0	31200	
3161	0	31240	
3162	0	31376	
3163	0	31536	
3164	0	31558	
3165	0	31604	
3166	0	31676	
3167	0	31744	
3168	0	31706	
3169	0	31648	
3170	0	31604	
3171	0	31576	
3172	0	31472	
3173	0	31364	
3174	0	31268	
3175	0	31296	
3176	0	31416	
3177	0	31496	
3178	0	31464	
3179	0	31440	
3180	0	31422	
3181	0	31440	
3182	0	31528	
3183	0	31624	
3184	0	31684	
3185	0	31772	
3186	0	31856	
3187	0	31852	
3188	0	31808	
3189	0	31722	
3190	0	31604	
3191	0	31474	
3192	0	31396	
3193	0	31372	
3194	0	31352	
3195	0	31364	
3196	0	31304	
3197	0	31204	
3198	0	31156	
3199	0	31152	
3200	0	31184	
3201	0	31228	
3202	0	31312	
3203	0	31452	
3204	0	31592	
3205	0	31736	
3206	0	31868	
3207	0	31908	
3208	0	31890	
3209	0	31840	
3210	0	31712	
3211	0	31624	
3212	0	31628	
3213	0	31708	
3214	0	31776	
3215	0	31752	
3216	0	31740	
3217	0	31712	
3218	0	31732	
3219	0	31776	
3220	0	31816	
3221	0	31850	
3222	0	31948	
3223	0	32052	
3224	0	32216	
3225	0	32368	
3226	0	32542	
3227	0	32668	
3228	0	32736	
3229	0	32696	
3230	0	32548	
3231	0	32412	
3232	0	32372	
3233	0	32444	
3234	0	32512	
3235	0	32520	
3236	0	32458	
3237	0	32418	
3238	0	32448	
3239	0	32528	
3240	0	32652	
3241	0	32772	
3242	0	32924	
3243	0	33108	
3244	0	33280	
3245	0	33424	
3246	0	33456	
3247	0	33392	
3248	0	33328	
3249	0	33300	
3250	0	33276	
3251	0	33264	
3252	0	33256	
3253	0	33208	
3254	0	33176	
3255	0	33178	
3256	0	33212	
3257	0	33228	
3258	0	33104	
3259	0	32976	
3260	0	32876	
3261	0	32776	
3262	0	32788	
3263	0	32802	
3264	0	32872	
3265	0	33024	
3266	0	33204	
3267	0	33312	
3268	0	33412	
3269	0	33488	
3270	0	33496	
3271	0	33516	
3272	0	33536	
3273	0	33472	
3274	0	33310	
3275	0	33168	
3276	0	33136	
3277	0	33152	
3278	0	33184	
3279	0	33216	
3280	0	33276	
3281	0	33412	
3282	0	33520	
3283	0	33588	
3284	0	33616	
3285	0	33624	
3286	0	33636	
3287	0	33666	
3288	0	33664	
3289	0	33552	
3290	0	33352	
3291	0	33220	
3292	0	33156	
3293	0	33144	
3294	0	33104	
3295	0	33000	
3296	0	32900	
3297	0	32832	
3298	0	32828	
3299	0	32844	
3300	0	32872	
3301	0	32936	
3302	0	32992	
3303	0	33048	
3304	0	33080	
3305	0	32986	
3306	0	32808	
3307	0	32700	
3308	0	32660	
3309	0	32680	
3310	0	32708	
3311	0	32796	
3312	0	32952	
3313	0	33128	
3314	0	33260	
3315	0	33312	
3316	0	33244	
3317	0	33084	
3318	0	32852	
3319	0	32656	
3320	0	32556	
3321	0	32562	
3322	0	32624	
3323	0	32744	
3324	0	32868	
3325	0	32968	
3326	0	33092	
3327	0	33188	
3328	0	33292	
3329	0	33336	
3330	0	33272	
3331	0	33076	
3332	0	32872	
3333	0	32712	
3334	0	32656	
3335	0	32712	
3336	0	32752	
3337	0	32740	
3338	0	32776	
3339	0	32832	
3340	0	32876	
3341	0	32968	
3342	0	33088	
3343	0	33184	
3344	0	33216	
3345	0	33132	
3346	0	32944	
3347	0	32784	
3348	0	32704	
3349	0	32682	
3350	0	32716	
3351	0	32740	
3352	0	32800	
3353	0	32876	
3354	0	32952	
3355	0	32988	
3356	0	33008	
3357	0	33044	
3358	0	33004	
3359	0	32938	
3360	0	32864	
3361	0	32832	
3362	0	32816	
3363	0	32812	
3364	0	32752	
3365	0	32708	
3366	0	32684	
3367	0	32728	
3368	0	32784	
3369	0	32832	
3370	0	32896	
3371	0	32984	
3372	0	33052	
3373	0	33092	
3374	0	33084	
3375	0	33116	
3376	0	33140	
3377	0	33148	
3378	0	33128	
3379	0	33048	
3380	0	32928	
3381	0	32826	
3382	0	32772	
3383	0	32736	
3384	0	32700	
3385	0	32640	
3386	0	32584	
3387	0	32580	
3388	0	32640	
3389	0	32748	
3390	0	32906	
3391	0	33064	
3392	0	33198	
3393	0	33400	
3394	0	33604	
3395	0	33800	
3396	0	33956	
3397	0	34088	
3398	0	34170	
3399	0	34264	
3400	0	34400	
3401	0	34504	
3402	0	34600	
3403	0	34712	
3404	0	34740	
3405	0	34688	
3406	0	34604	
3407	0	34496	
3408	0	34456	
3409	0	34504	
3410	0	34522	
3411	0	34512	
3412	0	34576	
3413	0	34678	
3414	0	34844	
3415	0	35080	
3416	0	35320	
3417	0	35540	
3418	0	35768	
3419	0	35952	
3420	0	36104	
3421	0	36220	
3422	0	36288	
3423	0	36340	
3424	0	36456	
3425	0	36616	
3426	0	36736	
3427	0	36804	
3428	0	36896	
3429	0	37056	
3430	0	37268	
3431	0	37480	
3432	0	37624	
3433	0	37620	
3434	0	37476	
3435	0	37224	
3436	0	36912	
3437	0	36624	
3438	0	36376	
3439	0	36256	
3440	0	36192	
3441	0	36180	
3442	0	36160	
3443	0	36104	
3444	0	36008	
3445	0	35832	
3446	0	35636	
3447	0	35464	
3448	0	35344	
3449	0	35232	
3450	0	35064	
3451	0	34880	
3452	0	34748	
3453	0	34588	
3454	0	34352	
3455	0	34080	
3456	0	33812	
3457	0	33536	
3458	0	33298	
3459	0	33038	
3460	0	32780	
3461	0	32572	
3462	0	32396	
3463	0	32244	
3464	0	32104	
3465	0	32026	
3466	0	31944	
3467	0	31866	
3468	0	31778	
3469	0	31728	
3470	0	31676	
3471	0	31616	
3472	0	31632	
3473	0	31664	
3474	0	31640	
3475	0	31636	
3476	0	31644	
3477	0	31620	
3478	0	31604	
3479	0	31560	
3480	0	31520	
3481	0	31520	
3482	0	31500	
3483	0	31460	
3484	0	31484	
3485	0	31546	
3486	0	31588	
3487	0	31632	
3488	0	31676	
3489	0	31680	
3490	0	31656	
3491	0	31672	
3492	0	31680	
3493	0	31660	
3494	0	31664	
3495	0	31666	
3496	0	31684	
3497	0	31672	
3498	0	31644	
3499	0	31576	
3500	0	31496	
3501	0	31468	
3502	0	31452	
3503	0	31468	
3504	0	31428	
3505	0	31329	
3506	0	31188	
3507	0	31060	
3508	0	30964	
3509	0	30876	
3510	0	30784	
3511	0	30640	
3512	0	30456	
3513	0	30216	
3514	0	30068	
3515	0	30032	
3516	0	30124	
3517	0	30376	
3518	0	30704	
3519	0	31228	
3520	0	31908	
3521	0	32756	
3522	0	33860	
3523	0	35308	
3524	0	36936	
3525	0	38944	
3526	0	41464	
3527	0	44320	
3528	0	47420	
3529	0	50768	
3530	0	54508	
3531	0	58552	
3532	0	61784	
3533	0	63512	
3534	0	64424	
3535	0	64840	
3536	0	65008	
3537	0	65052	
3538	0	65020	
3539	0	64936	
3540	0	64848	
3541	0	64736	
3542	0	64612	
3543	0	64496	
3544	0	64380	
3545	0	64264	
3546	0	64136	
3547	0	64016	
3548	0	63892	
3549	0	63768	
3550	0	63640	
3551	0	63544	
3552	0	63404	
3553	0	63300	
3554	0	63178	
3555	0	63072	
3556	0	62956	
3557	0	62844	
3558	0	62716	
3559	0	57344	
3560	0	51720	
3561	0	46376	
3562	0	41940	
3563	0	38564	
3564	0	35912	
3565	0	33798	
3566	0	32108	
3567	0	30688	
3568	0	29504	
3569	0	28576	
3570	0	27848	
3571	0	27252	
3572	0	26702	
3573	0	26184	
3574	0	25720	
3575	0	25300	
3576	0	24864	
3577	0	24460	
3578	0	24092	
3579	0	23804	
3580	0	23588	
3581	0	23399	
3582	0	23216	
3583	0	23048	
3584	0	22880	
3585	0	22696	
3586	0	22584	
3587	0	22460	
3588	0	22320	
3589	0	22188	
3590	0	22072	
3591	0	21984	
3592	0	21908	
3593	0	21832	
3594	0	21772	
3595	0	21708	
3596	0	21664	
3597	0	21618	
3598	0	21636	
3599	0	21648	
3600	0	21668	
3601	0	21672	
3602	0	21688	
3603	0	21732	
3604	0	21760	
3605	0	21812	
3606	0	21860	
3607	0	21904	
3608	0	21988	
3609	0	22076	
3610	0	22144	
3611	0	22232	
3612	0	22332	
3613	0	22390	
3614	0	22448	
3615	0	22516	
3616	0	22600	
3617	0	22640	
3618	0	22692	
3619	0	22776	
3620	0	22842	
3621	0	22938	
3622	0	23008	
3623	0	23112	
3624	0	23216	
3625	0	23340	
3626	0	23456	
3627	0	23516	
3628	0	23600	
3629	0	23688	
3630	0	23792	
3631	0	23864	
3632	0	24008	
3633	0	24176	
3634	0	24302	
3635	0	24402	
3636	0	24510	
3637	0	24564	
3638	0	24608	
3639	0	24648	
3640	0	24700	
3641	0	24748	
3642	0	24808	
3643	0	24884	
3644	0	25008	
3645	0	25156	
3646	0	25300	
3647	0	25444	
3648	0	25568	
3649	0	25676	
3650	0	25786	
3651	0	25904	
3652	0	25992	
3653	0	26092	
3654	0	26176	
3655	0	26276	
3656	0	26372	
3657	0	26456	
3658	0	26552	
3659	0	26648	
3660	0	26696	
3661	0	26770	
3662	0	26832	
3663	0	26912	
3664	0	26960	
3665	0	27012	
3666	0	27076	
3667	0	27152	
3668	0	27220	
3669	0	27260	
3670	0	27348	
3671	0	27440	
3672	0	27524	
3673	0	27608	
3674	0	27720	
3675	0	27816	
3676	0	27900	
3677	0	27964	
3678	0	28028	
3679	0	28096	
3680	0	28192	
3681	0	28288	
3682	0	28400	
3683	0	28516	
3684	0	28624	
3685	0	28716	
3686	0	28772	
3687	0	28828	
3688	0	28932	
3689	0	29008	
3690	0	29096	
3691	0	29224	
3692	0	29356	
3693	0	29492	
3694	0	29632	
3695	0	29748	
3696	0	29840	
3697	0	29940	
3698	0	29997	
3699	0	30044	
3700	0	30080	
3701	0	30136	
3702	0	30208	
3703	0	30328	
3704	0	30418	
3705	0	30520	
3706	0	30620	
3707	0	30714	
3708	0	30824	
3709	0	30936	
3710	0	31052	
3711	0	31184	
3712	0	31324	
3713	0	31416	
3714	0	31512	
3715	0	31584	
3716	0	31664	
3717	0	31740	
3718	0	31824	
3719	0	31904	
3720	0	31964	
3721	0	32004	
3722	0	32072	
3723	0	32140	
3724	0	32204	
3725	0	32264	
3726	0	32360	
3727	0	32458	
3728	0	32520	
3729	0	32616	
3730	0	32716	
3731	0	32772	
3732	0	32808	
3733	0	32876	
3734	0	32920	
3735	0	32928	
3736	0	32954	
3737	0	33008	
3738	0	33056	
3739	0	33088	
3740	0	33112	
3741	0	33132	
3742	0	33168	
3743	0	33164	
3744	0	33152	
3745	0	33140	
3746	0	33096	
3747	0	33064	
3748	0	32984	
3749	0	33044	
3750	0	33136	
3751	0	33196	
3752	0	33222	
3753	0	33248	
3754	0	33296	
3755	0	33296	
3756	0	33308	
3757	0	33320	
3758	0	33348	
3759	0	33412	
3760	0	33456	
3761	0	33484	
3762	0	33520	
3763	0	33536	
3764	0	33568	
3765	0	33568	
3766	0	33576	
3767	0	33600	
3768	0	33622	
3769	0	33628	
3770	0	33636	
3771	0	33652	
3772	0	33648	
3773	0	33628	
3774	0	33624	
3775	0	33580	
3776	0	33548	
3777	0	33504	
3778	0	33444	
3779	0	33404	
3780	0	33332	
3781	0	33266	
3782	0	33212	
3783	0	33140	
3784	0	33064	
3785	0	32980	
3786	0	32912	
3787	0	32824	
3788	0	32736	
3789	0	32680	
3790	0	32624	
3791	0	32556	
3792	0	32452	
3793	0	32404	
3794	0	32380	
3795	0	32372	
3796	0	32344	
3797	0	32288	
3798	0	32224	
3799	0	32194	
3800	0	32132	
3801	0	32120	
3802	0	32080	
3803	0	32052	
3804	0	32012	
3805	0	31980	
3806	0	31952	
3807	0	31884	
3808	0	31824	
3809	0	31778	
3810	0	31716	
3811	0	31660	
3812	0	31596	
3813	0	31580	
3814	0	31560	
3815	0	31536	
3816	0	31520	
3817	0	31496	
3818	0	31496	
3819	0	31480	
3820	0	31488	
3821	0	31500	
3822	0	31516	
3823	0	31508	
3824	0	31512	
3825	0	31514	
3826	0	31532	
3827	0	31520	
3828	0	31520	
3829	0	31552	
3830	0	31572	
3831	0	31564	
3832	0	31552	
3833	0	31536	
3834	0	31548	
3835	0	31556	
3836	0	31564	
3837	0	31560	
3838	0	31584	
3839	0	31632	
3840	0	31640	
3841	0	31628	
3842	0	31640	
3843	0	31632	
3844	0	31612	
3845	0	31628	
3846	0	31668	
3847	0	31712	
3848	0	31752	
3849	0	31832	
3850	0	31884	
3851	0	31920	
3852	0	31900	
3853	0	31912	
3854	0	31960	
3855	0	32032	
3856	0	32106	
3857	0	32152	
3858	0	32138	
3859	0	32156	
3860	0	32196	
3861	0	32264	
3862	0	32304	
3863	0	32340	
3864	0	32412	
3865	0	32480	
3866	0	32540	
3867	0	32576	
3868	0	32600	
3869	0	32624	
3870	0	32624	
3871	0	32652	
3872	0	32736	
3873	0	32740	
3874	0	32756	
3875	0	32776	
3876	0	32800	
3877	0	32832	
3878	0	32856	
3879	0	32864	
3880	0	32868	
3881	0	32884	
3882	0	32904	
3883	0	32900	
3884	0	32914	
3885	0	32944	
3886	0	32988	
3887	0	33020	
3888	0	33056	
3889	0	33064	
3890	0	33068	
3891	0	33088	
3892	0	33120	
3893	0	33140	
3894	0	33160	
3895	0	33152	
3896	0	33144	
3897	0	33164	
3898	0	33180	
3899	0	33180	
3900	0	33184	
3901	0	33204	
3902	0	33244	
3903	0	33292	
3904	0	33324	
3905	0	33344	
3906	0	33340	
3907	0	33306	
3908	0	33312	
3909	0	33316	
3910	0	33304	
3911	0	33296	
3912	0	33280	
3913	0	33268	
3914	0	33250	
3915	0	33268	
3916	0	33256	
3917	0	33272	
3918	0	33296	
3919	0	33296	
3920	0	33284	
3921	0	33304	
3922	0	33320	
3923	0	33346	
3924	0	33380	
3925	0	33372	
3926	0	33364	
3927	0	33384	
3928	0	33364	
3929	0	33344	
3930	0	33332	
3931	0	33336	
3932	0	33324	
3933	0	33306	
3934	0	33316	
3935	0	33288	
3936	0	33292	
3937	0	33276	
3938	0	33296	
3939	0	33292	
3940	0	33284	
3941	0	33288	
3942	0	33298	
3943	0	33282	
3944	0	33280	
3945	0	33268	
3946	0	33256	
3947	0	33250	
3948	0	33244	
3949	0	33216	
3950	0	33172	
3951	0	33164	
3952	0	33164	
3953	0	33168	
3954	0	33156	
3955	0	33184	
3956	0	33156	
3957	0	33128	
3958	0	33104	
3959	0	33092	
3960	0	33078	
3961	0	33072	
3962	0	33072	
3963	0	33080	
3964	0	33092	
3965	0	33076	
3966	0	33064	
3967	0	33076	
3968	0	33076	
3969	0	33076	
3970	0	33040	
3971	0	33008	
3972	0	33004	
3973	0	32992	
3974	0	32972	
3975	0	32972	
3976	0	32964	
3977	0	32940	
3978	0	32928	
3979	0	32916	
3980	0	32920	
3981	0	32884	
3982	0	32876	
3983	0	32888	
3984	0	32884	
3985	0	32864	
3986	0	32856	
3987	0	32872	
3988	0	32904	
3989	0	32896	
3990	0	32892	
3991	0	32900	
3992	0	32880	
3993	0	32884	
3994	0	32880	
3995	0	32872	
3996	0	32888	
3997	0	32900	
3998	0	32884	
3999	0	32876	
4000	0	32884	
4001	0	32896	
4002	0	32904	
4003	0	32940	
4004	0	32950	
4005	0	32952	
4006	0	32936	
4007	0	32924	
4008	0	32876	
4009	0	32876	
4010	0	32868	
4011	0	32864	
4012	0	32836	
4013	0	32848	
4014	0	32848	
4015	0	32848	
4016	0	32878	
4017	0	32892	
4018	0	32884	
4019	0	32880	
4020	0	32864	
4021	0	32884	
4022	0	32892	
4023	0	32884	
4024	0	32880	
4025	0	32864	
4026	0	32912	
4027	0	32908	
4028	0	32924	
4029	0	32952	
4030	0	32972	
4031	0	32968	
4032	0	32992	
4033	0	32984	
4034	0	32992	
4035	0	32976	
4036	0	32992	
4037	0	32996	
4038	0	32980	
4039	0	32964	
4040	0	32944	
4041	0	32952	
4042	0	32954	
4043	0	32956	
4044	0	32960	
4045	0	32972	
4046	0	32972	
4047	0	32988	
4048	0	33000	
4049	0	33016	
4050	0	33008	
4051	0	33004	
4052	0	32986	
4053	0	32992	
4054	0	33000	
4055	0	33000	
4056	0	33060	
4057	0	33168	
4058	0	33344	
4059	0	33572	
4060	0	33850	
4061	0	34112	
4062	0	34336	
4063	0	34532	
4064	0	34704	
4065	0	34836	
4066	0	34952	
4067	0	35072	
4068	0	35152	
4069	0	35194	
4070	0	35192	
4071	0	35176	
4072	0	35152	
4073	0	35136	
4074	0	35096	
4075	0	35034	
4076	0	34956	
4077	0	34920	
4078	0	34856	
4079	0	34864	
4080	0	35024	
4081	0	35280	
4082	0	35656	
4083	0	36016	
4084	0	36340	
4085	0	36624	
4086	0	36828	
4087	0	36944	
4088	0	36948	
4089	0	37060	
4090	0	37232	
4091	0	37344	
4092	0	37424	
4093	0	37468	
4094	0	37488	
4095	0	37608	
4096	0	37712	
4097	0	37756	
4098	0	37706	
4099	0	37544	
4100	0	37280	
4101	0	36972	
4102	0	36698	
4103	0	36532	
4104	0	36434	
4105	0	36376	
4106	0	36356	
4107	0	36352	
4108	0	36276	
4109	0	36152	
4110	0	35948	
4111	0	35744	
4112	0	35508	
4113	0	35296	
4114	0	35084	
4115	0	34864	
4116	0	34640	
4117	0	34420	
4118	0	34252	
4119	0	34065	
4120	0	33832	
4121	0	33640	
4122	0	33456	
4123	0	33204	
4124	0	32948	
4125	0	32736	
4126	0	32576	
4127	0	32456	
4128	0	32360	
4129	0	32224	
4130	0	32100	
4131	0	31980	
4132	0	31892	
4133	0	31816	
4134	0	31700	
4135	0	31624	
4136	0	31592	
4137	0	31544	
4138	0	31504	
4139	0	31492	
4140	0	31476	
4141	0	31492	
4142	0	31496	
4143	0	31512	
4144	0	31528	
4145	0	31524	
4146	0	31484	
4147	0	31482	
4148	0	31502	
4149	0	31504	
4150	0	31488	
4151	0	31474	
4152	0	31472	
4153	0	31464	
4154	0	31464	
4155	0	31440	
4156	0	31432	
4157	0	31460	
4158	0	31480	
4159	0	31496	
4160	0	31528	
4161	0	31556	
4162	0	31584	
4163	0	31572	
4164	0	31524	
4165	0	31462	
4166	0	31396	
4167	0	31322	
4168	0	31208	
4169	0	31092	
4170	0	30980	
4171	0	30844	
4172	0	30700	
4173	0	30544	
4174	0	30426	
4175	0	30284	
4176	0	30156	
4177	0	29980	
4178	0	29812	
4179	0	29780	
4180	0	29840	
4181	0	29960	
4182	0	30184	
4183	0	30568	
4184	0	31128	
4185	0	31872	
4186	0	32740	
4187	0	33832	
4188	0	35344	
4189	0	37216	
4190	0	39420	
4191	0	41956	
4192	0	44804	
4193	0	47824	
4194	0	50992	
4195	0	54416	
4196	0	58016	
4197	0	61260	
4198	0	63144	
4199	0	64096	
4200	0	64570	
4201	0	64760	
4202	0	64816	
4203	0	64784	
4204	0	64704	
4205	0	64620	
4206	0	64512	
4207	0	64400	
4208	0	64288	
4209	0	64152	
4210	0	64032	
4211	0	63924	
4212	0	63808	
4213	0	63696	
4214	0	63568	
4215	0	63448	
4216	0	63332	
4217	0	63216	
4218	0	63104	
4219	0	62980	
4220	0	62852	
4221	0	62736	
4222	0	62624	
4223	0	62524	
4224	0	59552	
4225	0	54064	
4226	0	48872	
4227	0	44208	
4228	0	40276	
4229	0	36960	
4230	0	34100	
4231	0	31760	
4232	0	30048	
4233	0	28890	
4234	0	28084	
4235	0	27452	
4236	0	26904	
4237	0	26436	
4238	0	25980	
4239	0	25568	
4240	0	25212	
4241	0	24904	
4242	0	24608	
4243	0	24300	
4244	0	24020	
4245	0	23788	
4246	0	23548	
4247	0	23346	
4248	0	23136	
4249	0	22916	
4250	0	22744	
4251	0	22572	
4252	0	22400	
4253	0	22280	
4254	0	22160	
4255	0	22064	
4256	0	21988	
4257	0	21924	
4258	0	21868	
4259	0	21826	
4260	0	21800	
4261	0	21802	
4262	0	21796	
4263	0	21794	
4264	0	21796	
4265	0	21816	
4266	0	21850	
4267	0	21884	
4268	0	21936	
4269	0	21962	
4270	0	21980	
4271	0	22024	
4272	0	22084	
4273	0	22146	
4274	0	22216	
4275	0	22300	
4276	0	22392	
4277	0	22480	
4278	0	22552	
4279	0	22608	
4280	0	22684	
4281	0	22768	
4282	0	22848	
4283	0	22944	
4284	0	23052	
4285	0	23124	
4286	0	23200	
4287	0	23266	
4288	0	23340	
4289	0	23428	
4290	0	23532	
4291	0	23648	
4292	0	23748	
4293	0	23824	
4294	0	23908	
4295	0	24024	
4296	0	24128	
4297	0	24196	
4298	0	24264	
4299	0	24350	
4300	0	24436	
4301	0	24516	
4302	0	24606	
4303	0	24624	
4304	0	24704	
4305	0	24816	
4306	0	24904	
4307	0	25008	
4308	0	25084	
4309	0	25176	
4310	0	25288	
4311	0	25356	
4312	0	25426	
4313	0	25500	
4314	0	25568	
4315	0	25636	
4316	0	25700	
4317	0	25748	
4318	0	25832	
4319	0	25924	
4320	0	26008	
4321	0	26076	
4322	0	26140	
4323	0	26220	
4324	0	26312	
4325	0	26380	
4326	0	26456	
4327	0	26576	
4328	0	26672	
4329	0	26724	
4330	0	26788	
4331	0	26832	
4332	0	26908	
4333	0	26984	
4334	0	27060	
4335	0	27130	
4336	0	27200	
4337	0	27288	
4338	0	27412	
4339	0	27504	
4340	0	27556	
4341	0	27636	
4342	0	27734	
4343	0	27820	
4344	0	27900	
4345	0	27992	
4346	0	28096	
4347	0	28188	
4348	0	28280	
4349	0	28388	
4350	0	28484	
4351	0	28600	
4352	0	28672	
4353	0	28768	
4354	0	28884	
4355	0	28962	
4356	0	29040	
4357	0	29128	
4358	0	29216	
4359	0	29292	
4360	0	29408	
4361	0	29516	
4362	0	29600	
4363	0	29704	
4364	0	29784	
4365	0	29880	
4366	0	29976	
4367	0	30068	
4368	0	30168	
4369	0	30260	
4370	0	30352	
4371	0	30480	
4372	0	30592	
4373	0	30704	
4374	0	30805	
4375	0	30920	
4376	0	31052	
4377	0	31144	
4378	0	31240	
4379	0	31296	
4380	0	31368	
4381	0	31484	
4382	0	31600	
4383	0	31684	
4384	0	31792	
4385	0	31894	
4386	0	32008	
4387	0	32116	
4388	0	32200	
4389	0	32276	
4390	0	32344	
4391	0	32420	
4392	0	32484	
4393	0	32538	
4394	0	32608	
4395	0	32676	
4396	0	32748	
4397	0	32800	
4398	0	32872	
4399	0	32960	
4400	0	33010	
4401	0	33072	
4402	0	33108	
4403	0	33144	
4404	0	33152	
4405	0	33184	
4406	0	33208	
4407	0	33248	
4408	0	33268	
4409	0	33292	
4410	0	33316	
4411	0	33328	
4412	0	33352	
4413	0	33378	
4414	0	33364	
4415	0	33360	
4416	0	33360	
4417	0	33360	
4418	0	33344	
4419	0	33364	
4420	0	33424	
4421	0	33470	
4422	0	33512	
4423	0	33536	
4424	0	33572	
4425	0	33600	
4426	0	33608	
4427	0	33632	
4428	0	33672	
4429	0	33724	
4430	0	33796	
4431	0	33856	
4432	0	33860	
4433	0	33848	
4434	0	33878	
4435	0	33908	
4436	0	33932	
4437	0	33936	
4438	0	33928	
4439	0	33916	
4440	0	33868	
4441	0	33820	
4442	0	33764	
4443	0	33736	
4444	0	33680	
4445	0	33592	
4446	0	33512	
4447	0	33450	
4448	0	33416	
4449	0	33368	
4450	0	33340	
4451	0	33292	
4452	0	33220	
4453	0	33120	
4454	0	33004	
4455	0	32924	
4456	0	32872	
4457	0	32840	
4458	0	32812	
4459	0	32762	
4460	0	32700	
4461	0	32648	
4462	0	32556	
4463	0	32488	
4464	0	32416	
4465	0	32352	
4466	0	32308	
4467	0	32232	
4468	0	32180	
4469	0	32146	
4470	0	32060	
4471	0	32016	
4472	0	32012	
4473	0	31980	
4474	0	31936	
4475	0	31896	
4476	0	31888	
4477	0	31864	
4478	0	31842	
4479	0	31832	
4480	0	31808	
4481	0	31778	
4482	0	31746	
4483	0	31736	
4484	0	31724	
4485	0	31720	
4486	0	31712	
4487	0	31696	
4488	0	31692	
4489	0	31684	
4490	0	31704	
4491	0	31692	
4492	0	31696	
4493	0	31692	
4494	0	31686	
4495	0	31680	
4496	0	31680	
4497	0	31684	
4498	0	31694	
4499	0	31712	
4500	0	31728	
4501	0	31744	
4502	0	31740	
4503	0	31748	
4504	0	31760	
4505	0	31784	
4506	0	31828	
4507	0	31840	
4508	0	31864	
4509	0	31872	
4510	0	31868	
4511	0	31896	
4512	0	31924	
4513	0	31968	
4514	0	31994	
4515	0	32016	
4516	0	32028	
4517	0	32080	
4518	0	32068	
4519	0	32128	
4520	0	32212	
4521	0	32304	
4522	0	32376	
4523	0	32428	
4524	0	32496	
4525	0	32516	
4526	0	32508	
4527	0	32512	
4528	0	32528	
4529	0	32544	
4530	0	32516	
4531	0	32504	
4532	0	32520	
4533	0	32530	
4534	0	32584	
4535	0	32632	
4536	0	32634	
4537	0	32596	
4538	0	32616	
4539	0	32652	
4540	0	32696	
4541	0	32740	
4542	0	32760	
4543	0	32776	
4544	0	32772	
4545	0	32800	
4546	0	32868	
4547	0	32900	
4548	0	32904	
4549	0	32916	
4550	0	32928	
4551	0	32960	
4552	0	32976	
4553	0	32992	
4554	0	33008	
4555	0	33028	
4556	0	33024	
4557	0	33032	
4558	0	33056	
4559	0	33076	
4560	0	33096	
4561	0	33112	
4562	0	33120	
4563	0	33124	
4564	0	33140	
4565	0	33140	
4566	0	33140	
4567	0	33148	
4568	0	33152	
4569	0	33140	
4570	0	33132	
4571	0	33108	
4572	0	33088	
4573	0	33088	
4574	0	33088	
4575	0	33100	
4576	0	33128	
4577	0	33168	
4578	0	33196	
4579	0	33200	
4580	0	33184	
4581	0	33180	
4582	0	33180	
4583	0	33194	
4584	0	33216	
4585	0	33216	
4586	0	33192	
4587	0	33160	
4588	0	33120	
4589	0	33116	
4590	0	33124	
4591	0	33128	
4592	0	33132	
4593	0	33120	
4594	0	33112	
4595	0	33136	
4596	0	33116	
4597	0	33112	
4598	0	33112	
4599	0	33116	
4600	0	33136	
4601	0	33132	
4602	0	33096	
4603	0	33092	
4604	0	33096	
4605	0	33100	
4606	0	33112	
4607	0	33084	
4608	0	33056	
4609	0	33032	
4610	0	33056	
4611	0	33064	
4612	0	33082	
4613	0	33088	
4614	0	33076	
4615	0	33040	
4616	0	33012	
4617	0	32996	
4618	0	33012	
4619	0	33008	
4620	0	33008	
4621	0	33004	
4622	0	32994	
4623	0	32960	
4624	0	32944	
4625	0	32932	
4626	0	32922	
4627	0	32922	
4628	0	32912	
4629	0	32900	
4630	0	32896	
4631	0	32892	
4632	0	32888	
4633	0	32868	
4634	0	32856	
4635	0	32868	
4636	0	32864	
4637	0	32860	
4638	0	32872	
4639	0	32868	
4640	0	32872	
4641	0	32864	
4642	0	32860	
4643	0	32864	
4644	0	32840	
4645	0	32812	
4646	0	32808	
4647	0	32800	
4648	0	32780	
4649	0	32772	
4650	0	32760	
4651	0	32760	
4652	0	32752	
4653	0	32736	
4654	0	32720	
4655	0	32740	
4656	0	32740	
4657	0	32734	
4658	0	32728	
4659	0	32732	
4660	0	32736	
4661	0	32744	
4662	0	32744	
4663	0	32708	
4664	0	32712	
4665	0	32728	
4666	0	32704	
4667	0	32696	
4668	0	32704	
4669	0	32724	
4670	0	32732	
4671	0	32732	
4672	0	32732	
4673	0	32748	
4674	0	32724	
4675	0	32720	
4676	0	32736	
4677	0	32752	
4678	0	32736	
4679	0	32732	
4680	0	32732	
4681	0	32740	
4682	0	32756	
4683	0	32760	
4684	0	32776	
4685	0	32784	
4686	0	32808	
4687	0	32832	
4688	0	32824	
4689	0	32788	
4690	0	32780	
4691	0	32788	
4692	0	32784	
4693	0	32756	
4694	0	32768	
4695	0	32796	
4696	0	32808	
4697	0	32792	
4698	0	32772	
4699	0	32740	
4700	0	32756	
4701	0	32800	
4702	0	32788	
4703	0	32784	
4704	0	32792	
4705	0	32788	
4706	0	32808	
4707	0	32832	
4708	0	32844	
4709	0	32864	
4710	0	32872	
4711	0	32860	
4712	0	32888	
4713	0	32912	
4714	0	32924	
4715	0	32900	
4716	0	32854	
4717	0	32884	
4718	0	32912	
4719	0	32904	
4720	0	32900	
4721	0	32916	
4722	0	32900	
4723	0	32904	
4724	0	32896	
4725	0	32924	
4726	0	32948	
4727	0	32960	
4728	0	33036	
4729	0	33208	
4730	0	33412	
4731	0	33672	
4732	0	33956	
4733	0	34192	
4734	0	34372	
4735	0	34536	
4736	0	34688	
4737	0	34820	
4738	0	34920	
4739	0	35012	
4740	0	35096	
4741	0	35136	
4742	0	35140	
4743	0	35104	
4744	0	35068	
4745	0	35008	
4746	0	34994	
4747	0	34950	
4748	0	34892	
4749	0	34832	
4750	0	34872	
4751	0	35064	
4752	0	35344	
4753	0	35692	
4754	0	36028	
4755	0	36352	
4756	0	36616	
4757	0	36816	
4758	0	36920	
4759	0	36960	
4760	0	37016	
4761	0	37122	
4762	0	37200	
4763	0	37260	
4764	0	37316	
4765	0	37368	
4766	0	37468	
4767	0	37592	
4768	0	37668	
4769	0	37640	
4770	0	37480	
4771	0	37260	
4772	0	37004	
4773	0	36768	
4774	0	36572	
4775	0	36432	
4776	0	36336	
4777	0	36260	
4778	0	36216	
4779	0	36164	
4780	0	36032	
4781	0	35824	
4782	0	35584	
4783	0	35348	
4784	0	35132	
4785	0	34928	
4786	0	34728	
4787	0	34552	
4788	0	34352	
4789	0	34144	
4790	0	33924	
4791	0	33716	
4792	0	33460	
4793	0	33208	
4794	0	32936	
4795	0	32724	
4796	0	32568	
4797	0	32448	
4798	0	32376	
4799	0	32296	
4800	0	32202	
4801	0	32088	
4802	0	31960	
4803	0	31836	
4804	0	31696	
4805	0	31616	
4806	0	31540	
4807	0	31484	
4808	0	31464	
4809	0	31466	
4810	0	31456	
4811	0	31452	
4812	0	31448	
4813	0	31428	
4814	0	31412	
4815	0	31408	
4816	0	31416	
4817	0	31404	
4818	0	31404	
4819	0	31416	
4820	0	31448	
4821	0	31442	
4822	0	31456	
4823	0	31464	
4824	0	31466	
4825	0	31456	
4826	0	31436	
4827	0	31436	
4828	0	31472	
4829	0	31500	
4830	0	31500	
4831	0	31496	
4832	0	31492	
4833	0	31496	
4834	0	31512	
4835	0	31488	
4836	0	31436	
4837	0	31365	
4838	0	31312	
4839	0	31252	
4840	0	31128	
4841	0	30968	
4842	0	30816	
4843	0	30648	
4844	0	30464	
4845	0	30306	
4846	0	30140	
4847	0	29914	
4848	0	29644	
4849	0	29388	
4850	0	29296	
4851	0	29276	
4852	0	29288	
4853	0	29412	
4854	0	29668	
4855	0	30160	
4856	0	30800	
4857	0	31592	
4858	0	32660	
4859	0	34164	
4860	0	36034	
4861	0	38244	
4862	0	40856	
4863	0	43744	
4864	0	46792	
4865	0	50044	
4866	0	53552	
4867	0	57284	
4868	0	60772	
4869	0	62804	
4870	0	63868	
4871	0	64408	
4872	0	64620	
4873	0	64700	
4874	0	64668	
4875	0	64600	
4876	0	64528	
4877	0	64396	
4878	0	64304	
4879	0	64180	
4880	0	64064	
4881	0	63944	
4882	0	63808	
4883	0	63712	
4884	0	63584	
4885	0	63476	
4886	0	63356	
4887	0	63228	
4888	0	63104	
4889	0	62984	
4890	0	62856	
4891	0	62764	
4892	0	62676	
4893	0	62536	
4894	0	62416	
4895	0	57752	
4896	0	52496	
4897	0	47520	
4898	0	43136	
4899	0	39484	
4900	0	36416	
4901	0	33752	
4902	0	31576	
4903	0	30004	
4904	0	28902	
4905	0	28128	
4906	0	27524	
4907	0	27016	
4908	0	26544	
4909	0	26072	
4910	0	25652	
4911	0	25268	
4912	0	24908	
4913	0	24592	
4914	0	24310	
4915	0	24054	
4916	0	23824	
4917	0	23614	
4918	0	23396	
4919	0	23204	
4920	0	23032	
4921	0	22852	
4922	0	22682	
4923	0	22536	
4924	0	22420	
4925	0	22346	
4926	0	22266	
4927	0	22156	
4928	0	22088	
4929	0	22048	
4930	0	21980	
4931	0	21960	
4932	0	21936	
4933	0	21920	
4934	0	21936	
4935	0	21936	
4936	0	21936	
4937	0	21952	
4938	0	21996	
4939	0	22044	
4940	0	22084	
4941	0	22126	
4942	0	22180	
4943	0	22228	
4944	0	22300	
4945	0	22348	
4946	0	22394	
4947	0	22450	
4948	0	22522	
4949	0	22608	
4950	0	22686	
4951	0	22776	
4952	0	22868	
4953	0	22932	
4954	0	22992	
4955	0	23068	
4956	0	23144	
4957	0	23232	
4958	0	23296	
4959	0	23388	
4960	0	23452	
4961	0	23544	
4962	0	23612	
4963	0	23706	
4964	0	23780	
4965	0	23886	
4966	0	23996	
4967	0	24120	
4968	0	24208	
4969	0	24276	
4970	0	24356	
4971	0	24464	
4972	0	24572	
4973	0	24668	
4974	0	24748	
4975	0	24832	
4976	0	24940	
4977	0	25020	
4978	0	25086	
4979	0	25140	
4980	0	25160	
4981	0	25204	
4982	0	25336	
4983	0	25444	
4984	0	25536	
4985	0	25622	
4986	0	25692	
4987	0	25762	
4988	0	25850	
4989	0	25904	
4990	0	25984	
4991	0	26064	
4992	0	26140	
4993	0	26236	
4994	0	26308	
4995	0	26400	
4996	0	26472	
4997	0	26536	
4998	0	26632	
4999	0	26700	
5000	0	26772	
5001	0	26850	
5002	0	26924	
5003	0	27024	
5004	0	27096	
5005	0	27162	
5006	0	27240	
5007	0	27332	
5008	0	27424	
5009	0	27490	
5010	0	27568	
5011	0	27652	
5012	0	27744	
5013	0	27816	
5014	0	27904	
5015	0	27994	
5016	0	28116	
5017	0	28212	
5018	0	28304	
5019	0	28400	
5020	0	28512	
5021	0	28608	
5022	0	28668	
5023	0	28756	
5024	0	28856	
5025	0	28954	
5026	0	29044	
5027	0	29116	
5028	0	29200	
5029	0	29280	
5030	0	29368	
5031	0	29460	
5032	0	29576	
5033	0	29688	
5034	0	29780	
5035	0	29852	
5036	0	29916	
5037	0	30004	
5038	0	30144	
5039	0	30256	
5040	0	30352	
5041	0	30444	
5042	0	30560	
5043	0	30664	
5044	0	30784	
5045	0	30852	
5046	0	30932	
5047	0	31040	
5048	0	31152	
5049	0	31240	
5050	0	31336	
5051	0	31432	
5052	0	31524	
5053	0	31612	
5054	0	31708	
5055	0	31808	
5056	0	31912	
5057	0	32020	
5058	0	32120	
5059	0	32232	
5060	0	32312	
5061	0	32377	
5062	0	32416	
5063	0	32464	
5064	0	32544	
5065	0	32568	
5066	0	32632	
5067	0	32724	
5068	0	32832	
5069	0	32900	
5070	0	32928	
5071	0	32976	
5072	0	33028	
5073	0	33056	
5074	0	33072	
5075	0	33100	
5076	0	33140	
5077	0	33216	
5078	0	33248	
5079	0	33264	
5080	0	33304	
5081	0	33316	
5082	0	33332	
5083	0	33328	
5084	0	33344	
5085	0	33344	
5086	0	33364	
5087	0	33396	
5088	0	33408	
5089	0	33436	
5090	0	33456	
5091	0	33508	
5092	0	33564	
5093	0	33576	
5094	0	33568	
5095	0	33556	
5096	0	33564	
5097	0	33540	
5098	0	33612	
5099	0	33712	
5100	0	33784	
5101	0	33800	
5102	0	33828	
5103	0	33844	
5104	0	33888	
5105	0	33916	
5106	0	33936	
5107	0	33938	
5108	0	33908	
5109	0	33888	
5110	0	33888	
5111	0	33860	
5112	0	33804	
5113	0	33748	
5114	0	33714	
5115	0	33648	
5116	0	33600	
5117	0	33544	
5118	0	33480	
5119	0	33424	
5120	0	33366	
5121	0	33328	
5122	0	33260	
5123	0	33184	
5124	0	33120	
5125	0	33044	
5126	0	32976	
5127	0	32900	
5128	0	32810	
5129	0	32736	
5130	0	32696	
5131	0	32628	
5132	0	32556	
5133	0	32488	
5134	0	32432	
5135	0	32380	
5136	0	32312	
5137	0	32261	
5138	0	32236	
5139	0	32216	
5140	0	32176	
5141	0	32128	
5142	0	32072	
5143	0	32028	
5144	0	32008	
5145	0	31968	
5146	0	31924	
5147	0	31876	
5148	0	31840	
5149	0	31808	
5150	0	31800	
5151	0	31744	
5152	0	31688	
5153	0	31652	
5154	0	31628	
5155	0	31648	
5156	0	31668	
5157	0	31680	
5158	0	31648	
5159	0	31644	
5160	0	31660	
5161	0	31640	
5162	0	31628	
5163	0	31604	
5164	0	31580	
5165	0	31556	
5166	0	31580	
5167	0	31620	
5168	0	31626	
5169	0	31624	
5170	0	31632	
5171	0	31656	
5172	0	31688	
5173	0	31692	
5174	0	31704	
5175	0	31738	
5176	0	31754	
5177	0	31740	
5178	0	31744	
5179	0	31776	
5180	0	31776	
5181	0	31808	
5182	0	31860	
5183	0	31904	
5184	0	31912	
5185	0	31912	
5186	0	31912	
5187	0	31964	
5188	0	32000	
5189	0	32040	
5190	0	32064	
5191	0	32096	
5192	0	32142	
5193	0	32208	
5194	0	32236	
5195	0	32264	
5196	0	32284	
5197	0	32300	
5198	0	32296	
5199	0	32332	
5200	0	32404	
5201	0	32440	
5202	0	32460	
5203	0	32504	
5204	0	32524	
5205	0	32544	
5206	0	32576	
5207	0	32584	
5208	0	32576	
5209	0	32588	
5210	0	32620	
5211	0	32660	
5212	0	32704	
5213	0	32724	
5214	0	32760	
5215	0	32808	
5216	0	32840	
5217	0	32864	
5218	0	32864	
5219	0	32876	
5220	0	32888	
5221	0	32896	
5222	0	32888	
5223	0	32896	
5224	0	32904	
5225	0	32936	
5226	0	32952	
5227	0	32976	
5228	0	32972	
5229	0	32976	
5230	0	32980	
5231	0	32984	
5232	0	33004	
5233	0	33024	
5234	0	33008	
5235	0	33028	
5236	0	33048	
5237	0	33072	
5238	0	33066	
5239	0	33064	
5240	0	33056	
5241	0	33068	
5242	0	33080	
5243	0	33096	
5244	0	33096	
5245	0	33120	
5246	0	33104	
5247	0	33120	
5248	0	33112	
5249	0	33092	
5250	0	33112	
5251	0	33084	
5252	0	33072	
5253	0	33092	
5254	0	33128	
5255	0	33116	
5256	0	33120	
5257	0	33100	
5258	0	33132	
5259	0	33144	
5260	0	33092	
5261	0	33042	
5262	0	33080	
5263	0	33120	
5264	0	33124	
5265	0	33112	
5266	0	33104	
5267	0	33108	
5268	0	33072	
5269	0	33038	
5270	0	33032	
5271	0	33044	
5272	0	33032	
5273	0	33024	
5274	0	33048	
5275	0	33040	
5276	0	33012	
5277	0	32992	
5278	0	32992	
5279	0	33008	
5280	0	32992	
5281	0	32976	
5282	0	32980	
5283	0	32992	
5284	0	32986	
5285	0	32976	
5286	0	32968	
5287	0	32956	
5288	0	32952	
5289	0	32916	
5290	0	32916	
5291	0	32908	
5292	0	32872	
5293	0	32888	
5294	0	32876	
5295	0	32860	
5296	0	32844	
5297	0	32812	
5298	0	32796	
5299	0	32810	
5300	0	32800	
5301	0	32768	
5302	0	32764	
5303	0	32776	
5304	0	32768	
5305	0	32756	
5306	0	32728	
5307	0	32720	
5308	0	32736	
5309	0	32712	
5310	0	32712	
5311	0	32716	
5312	0	32688	
5313	0	32696	
5314	0	32692	
5315	0	32672	
5316	0	32652	
5317	0	32652	
5318	0	32666	
5319	0	32682	
5320	0	32680	
5321	0	32696	
5322	0	32680	
5323	0	32672	
5324	0	32660	
5325	0	32652	
5326	0	32648	
5327	0	32656	
5328	0	32612	
5329	0	32608	
5330	0	32610	
5331	0	32624	
5332	0	32608	
5333	0	32592	
5334	0	32568	
5335	0	32574	
5336	0	32584	
5337	0	32568	
5338	0	32576	
5339	0	32600	
5340	0	32600	
5341	0	32572	
5342	0	32532	
5343	0	32540	
5344	0	32556	
5345	0	32558	
5346	0	32576	
5347	0	32608	
5348	0	32580	
5349	0	32576	
5350	0	32584	
5351	0	32620	
5352	0	32656	
5353	0	32668	
5354	0	32644	
5355	0	32624	
5356	0	32608	
5357	0	32592	
5358	0	32620	
5359	0	32632	
5360	0	32640	
5361	0	32620	
5362	0	32628	
5363	0	32624	
5364	0	32644	
5365	0	32632	
5366	0	32608	
5367	0	32632	
5368	0	32656	
5369	0	32650	
5370	0	32656	
5371	0	32660	
5372	0	32676	
5373	0	32688	
5374	0	32704	
5375	0	32736	
5376	0	32784	
5377	0	32784	
5378	0	32760	
5379	0	32752	
5380	0	32736	
5381	0	32736	
5382	0	32774	
5383	0	32776	
5384	0	32768	
5385	0	32752	
5386	0	32732	
5387	0	32692	
5388	0	32680	
5389	0	32696	
5390	0	32716	
5391	0	32716	
5392	0	32688	
5393	0	32664	
5394	0	32680	
5395	0	32712	
5396	0	32804	
5397	0	32940	
5398	0	33148	
5399	0	33388	
5400	0	33664	
5401	0	33900	
5402	0	34132	
5403	0	34328	
5404	0	34508	
5405	0	34688	
5406	0	34820	
5407	0	34912	
5408	0	34972	
5409	0	35004	
5410	0	35016	
5411	0	34968	
5412	0	34932	
5413	0	34892	
5414	0	34860	
5415	0	34720	
5416	0	34668	
5417	0	34656	
5418	0	34680	
5419	0	34832	
5420	0	35100	
5421	0	35436	
5422	0	35784	
5423	0	36064	
5424	0	36324	
5425	0	36544	
5426	0	36698	
5427	0	36772	
5428	0	36832	
5429	0	36888	
5430	0	36968	
5431	0	37004	
5432	0	37056	
5433	0	37132	
5434	0	37228	
5435	0	37348	
5436	0	37460	
5437	0	37528	
5438	0	37432	
5439	0	37224	
5440	0	36952	
5441	0	36736	
5442	0	36544	
5443	0	36408	
5444	0	36314	
5445	0	36256	
5446	0	36212	
5447	0	36160	
5448	0	36048	
5449	0	35824	
5450	0	35568	
5451	0	35332	
5452	0	35124	
5453	0	34916	
5454	0	34716	
5455	0	34508	
5456	0	34336	
5457	0	34160	
5458	0	33928	
5459	0	33664	
5460	0	33424	
5461	0	33168	
5462	0	32884	
5463	0	32636	
5464	0	32452	
5465	0	32324	
5466	0	32240	
5467	0	32132	
5468	0	32004	
5469	0	31900	
5470	0	31768	
5471	0	31644	
5472	0	31556	
5473	0	31480	
5474	0	31392	
5475	0	31368	
5476	0	31360	
5477	0	31360	
5478	0	31328	
5479	0	31320	
5480	0	31352	
5481	0	31364	
5482	0	31340	
5483	0	31344	
5484	0	31332	
5485	0	31316	
5486	0	31296	
5487	0	31284	
5488	0	31288	
5489	0	31248	
5490	0	31220	
5491	0	31224	
5492	0	31232	
5493	0	31264	
5494	0	31288	
5495	0	31300	
5496	0	31312	
5497	0	31324	
5498	0	31320	
5499	0	31348	
5500	0	31340	
5501	0	31314	
5502	0	31328	
5503	0	31316	
5504	0	31272	
5505	0	31226	
5506	0	31160	
5507	0	31052	
5508	0	30968	
5509	0	30836	
5510	0	30664	
5511	0	30504	
5512	0	30336	
5513	0	30192	
5514	0	30020	
5515	0	29848	
5516	0	29620	
5517	0	29384	
5518	0	29252	
5519	0	29200	
5520	0	29192	
5521	0	29296	
5522	0	29508	
5523	0	29952	
5524	0	30608	
5525	0	31424	
5526	0	32424	
5527	0	33816	
5528	0	35520	
5529	0	37560	
5530	0	40080	
5531	0	42904	
5532	0	45944	
5533	0	49208	
5534	0	52776	
5535	0	56608	
5536	0	60336	
5537	0	62608	
5538	0	63788	
5539	0	64388	
5540	0	64664	
5541	0	64736	
5542	0	64732	
5543	0	64668	
5544	0	64584	
5545	0	64488	
5546	0	64380	
5547	0	64252	
5548	0	64132	
5549	0	64032	
5550	0	63892	
5551	0	63772	
5552	0	63652	
5553	0	63528	
5554	0	63408	
5555	0	63304	
5556	0	63156	
5557	0	63056	
5558	0	62940	
5559	0	62840	
5560	0	62712	
5561	0	62592	
5562	0	62480	
5563	0	57120	
5564	0	52000	
5565	0	47144	
5566	0	42856	
5567	0	39328	
5568	0	36432	
5569	0	33964	
5570	0	31892	
5571	0	30266	
5572	0	29100	
5573	0	28282	
5574	0	27672	
5575	0	27136	
5576	0	26668	
5577	0	26208	
5578	0	25744	
5579	0	25324	
5580	0	24936	
5581	0	24568	
5582	0	24276	
5583	0	24000	
5584	0	23768	
5585	0	23540	
5586	0	23340	
5587	0	23188	
5588	0	23016	
5589	0	22852	
5590	0	22720	
5591	0	22580	
5592	0	22452	
5593	0	22350	
5594	0	22240	
5595	0	22164	
5596	0	22096	
5597	0	22040	
5598	0	22030	
5599	0	21990	
5600	0	21952	
5601	0	21940	
5602	0	21948	
5603	0	21964	
5604	0	21956	
5605	0	21984	
5606	0	22044	
5607	0	22072	
5608	0	22104	
5609	0	22148	
5610	0	22192	
5611	0	22244	
5612	0	22296	
5613	0	22336	
5614	0	22384	
5615	0	22456	
5616	0	22504	
5617	0	22552	
5618	0	22612	
5619	0	22700	
5620	0	22794	
5621	0	22872	
5622	0	22952	
5623	0	23036	
5624	0	23140	
5625	0	23240	
5626	0	23354	
5627	0	23448	
5628	0	23528	
5629	0	23596	
5630	0	23696	
5631	0	23792	
5632	0	23856	
5633	0	23948	
5634	0	24028	
5635	0	24124	
5636	0	24212	
5637	0	24296	
5638	0	24392	
5639	0	24492	
5640	0	24592	
5641	0	24690	
5642	0	24794	
5643	0	24860	
5644	0	24928	
5645	0	25016	
5646	0	25080	
5647	0	25144	
5648	0	25208	
5649	0	25280	
5650	0	25384	
5651	0	25518	
5652	0	25552	
5653	0	25576	
5654	0	25724	
5655	0	25836	
5656	0	25912	
5657	0	26004	
5658	0	26120	
5659	0	26210	
5660	0	26264	
5661	0	26356	
5662	0	26440	
5663	0	26500	
5664	0	26544	
5665	0	26592	
5666	0	26664	
5667	0	26724	
5668	0	26826	
5669	0	26944	
5670	0	27028	
5671	0	27092	
5672	0	27160	
5673	0	27260	
5674	0	27336	
5675	0	27412	
5676	0	27496	
5677	0	27600	
5678	0	27680	
5679	0	27732	
5680	0	27816	
5681	0	27936	
5682	0	28024	
5683	0	28120	
5684	0	28208	
5685	0	28280	
5686	0	28376	
5687	0	28448	
5688	0	28512	
5689	0	28584	
5690	0	28668	
5691	0	28780	
5692	0	28860	
5693	0	28960	
5694	0	29056	
5695	0	29124	
5696	0	29240	
5697	0	29344	
5698	0	29440	
5699	0	29540	
5700	0	29642	
5701	0	29752	
5702	0	29840	
5703	0	29912	
5704	0	30004	
5705	0	30072	
5706	0	30160	
5707	0	30240	
5708	0	30336	
5709	0	30436	
5710	0	30544	
5711	0	30608	
5712	0	30704	
5713	0	30804	
5714	0	30912	
5715	0	31020	
5716	0	31144	
5717	0	31256	
5718	0	31376	
5719	0	31464	
5720	0	31570	
5721	0	31660	
5722	0	31754	
5723	0	31844	
5724	0	31932	
5725	0	32000	
5726	0	32068	
5727	0	32168	
5728	0	32256	
5729	0	32304	
5730	0	32332	
5731	0	32416	
5732	0	32500	
5733	0	32576	
5734	0	32616	
5735	0	32656	
5736	0	32714	
5737	0	32760	
5738	0	32816	
5739	0	32872	
5740	0	32944	
5741	0	33012	
5742	0	33032	
5743	0	33024	
5744	0	33060	
5745	0	33072	
5746	0	33096	
5747	0	33124	
5748	0	33124	
5749	0	33136	
5750	0	33160	
5751	0	33180	
5752	0	33172	
5753	0	33192	
5754	0	33168	
5755	0	33184	
5756	0	33200	
5757	0	33216	
5758	0	33236	
5759	0	33256	
5760	0	33260	
5761	0	33288	
5762	0	33312	
5763	0	33312	
5764	0	33344	
5765	0	33388	
5766	0	33400	
5767	0	33436	
5768	0	33528	
5769	0	33572	
5770	0	33592	
5771	0	33624	
5772	0	33644	
5773	0	33704	
5774	0	33720	
5775	0	33736	
5776	0	33736	
5777	0	33746	
5778	0	33736	
5779	0	33716	
5780	0	33684	
5781	0	33664	
5782	0	33660	
5783	0	33624	
5784	0	33568	
5785	0	33492	
5786	0	33448	
5787	0	33412	
5788	0	33368	
5789	0	33308	
5790	0	33224	
5791	0	33128	
5792	0	33056	
5793	0	32996	
5794	0	32908	
5795	0	32850	
5796	0	32800	
5797	0	32748	
5798	0	32716	
5799	0	32692	
5800	0	32640	
5801	0	32588	
5802	0	32524	
5803	0	32420	
5804	0	32372	
5805	0	32344	
5806	0	32308	
5807	0	32276	
5808	0	32225	
5809	0	32152	
5810	0	32012	
5811	0	32000	
5812	0	32032	
5813	0	32008	
5814	0	31968	
5815	0	31936	
5816	0	31916	
5817	0	31888	
5818	0	31840	
5819	0	31816	
5820	0	31800	
5821	0	31788	
5822	0	31762	
5823	0	31728	
5824	0	31720	
5825	0	31708	
5826	0	31716	
5827	0	31696	
5828	0	31688	
5829	0	31664	
5830	0	31636	
5831	0	31620	
5832	0	31620	
5833	0	31620	
5834	0	31640	
5835	0	31680	
5836	0	31700	
5837	0	31700	
5838	0	31692	
5839	0	31706	
5840	0	31708	
5841	0	31684	
5842	0	31708	
5843	0	31712	
5844	0	31708	
5845	0	31700	
5846	0	31720	
5847	0	31736	
5848	0	31776	
5849	0	31804	
5850	0	31802	
5851	0	31808	
5852	0	31844	
5853	0	31912	
5854	0	31970	
5855	0	32000	
5856	0	32060	
5857	0	32140	
5858	0	32160	
5859	0	32148	
5860	0	32188	
5861	0	32232	
5862	0	32308	
5863	0	32376	
5864	0	32412	
5865	0	32432	
5866	0	32484	
5867	0	32512	
5868	0	32536	
5869	0	32600	
5870	0	32624	
5871	0	32632	
5872	0	32608	
5873	0	32620	
5874	0	32640	
5875	0	32664	
5876	0	32696	
5877	0	32732	
5878	0	32764	
5879	0	32800	
5880	0	32816	
5881	0	32834	
5882	0	32864	
5883	0	32882	
5884	0	32884	
5885	0	32890	
5886	0	32888	
5887	0	32904	
5888	0	32908	
5889	0	32948	
5890	0	32952	
5891	0	32960	
5892	0	32960	
5893	0	33002	
5894	0	33008	
5895	0	33044	
5896	0	33064	
5897	0	33072	
5898	0	33108	
5899	0	33100	
5900	0	33116	
5901	0	33144	
5902	0	33140	
5903	0	33140	
5904	0	33136	
5905	0	33172	
5906	0	33213	
5907	0	33216	
5908	0	33200	
5909	0	33192	
5910	0	33208	
5911	0	33210	
5912	0	33184	
5913	0	33188	
5914	0	33184	
5915	0	33188	
5916	0	33236	
5917	0	33248	
5918	0	33232	
5919	0	33208	
5920	0	33188	
5921	0	33184	
5922	0	33184	
5923	0	33198	
5924	0	33184	
5925	0	33180	
5926	0	33168	
5927	0	33164	
5928	0	33164	
5929	0	33152	
5930	0	33136	
5931	0	33104	
5932	0	33088	
5933	0	33088	
5934	0	33088	
5935	0	33104	
5936	0	33112	
5937	0	33108	
5938	0	33114	
5939	0	33116	
5940	0	33064	
5941	0	33024	
5942	0	32996	
5943	0	32980	
5944	0	32944	
5945	0	32944	
5946	0	32920	
5947	0	32904	
5948	0	32912	
5949	0	32900	
5950	0	32932	
5951	0	32912	
5952	0	32896	
5953	0	32860	
5954	0	32792	
5955	0	32856	
5956	0	32872	
5957	0	32864	
5958	0	32858	
5959	0	32848	
5960	0	32848	
5961	0	32820	
5962	0	32804	
5963	0	32800	
5964	0	32788	
5965	0	32840	
5966	0	32858	
5967	0	32840	
5968	0	32832	
5969	0	32832	
5970	0	32784	
5971	0	32736	
5972	0	32716	
5973	0	32680	
5974	0	32670	
5975	0	32648	
5976	0	32640	
5977	0	32648	
5978	0	32664	
5979	0	32656	
5980	0	32628	
5981	0	32628	
5982	0	32632	
5983	0	32636	
5984	0	32640	
5985	0	32624	
5986	0	32620	
5987	0	32656	
5988	0	32668	
5989	0	32664	
5990	0	32670	
5991	0	32664	
5992	0	32664	
5993	0	32664	
5994	0	32688	
5995	0	32704	
5996	0	32676	
5997	0	32588	
5998	0	32544	
5999	0	32512	
6000	0	32520	
6001	0	32536	
6002	0	32540	
6003	0	32528	
6004	0	32524	
6005	0	32544	
6006	0	32544	
6007	0	32540	
6008	0	32532	
6009	0	32540	
6010	0	32520	
6011	0	32516	
6012	0	32514	
6013	0	32528	
6014	0	32536	
6015	0	32500	
6016	0	32504	
6017	0	32512	
6018	0	32548	
6019	0	32580	
6020	0	32608	
6021	0	32604	
6022	0	32608	
6023	0	32604	
6024	0	32584	
6025	0	32576	
6026	0	32552	
6027	0	32572	
6028	0	32588	
6029	0	32596	
6030	0	32608	
6031	0	32640	
6032	0	32660	
6033	0	32672	
6034	0	32668	
6035	0	32692	
6036	0	32724	
6037	0	32724	
6038	0	32720	
6039	0	32712	
6040	0	32714	
6041	0	32736	
6042	0	32752	
6043	0	32744	
6044	0	32744	
6045	0	32744	
6046	0	32748	
6047	0	32756	
6048	0	32772	
6049	0	32776	
6050	0	32756	
6051	0	32736	
6052	0	32732	
6053	0	32744	
6054	0	32740	
6055	0	32724	
6056	0	32736	
6057	0	32752	
6058	0	32768	
6059	0	32768	
6060	0	32772	
6061	0	32760	
6062	0	32748	
6063	0	32724	
6064	0	32692	
6065	0	32672	
6066	0	32704	
6067	0	32832	
6068	0	33040	
6069	0	33288	
6070	0	33560	
6071	0	33836	
6072	0	34040	
6073	0	34228	
6074	0	34388	
6075	0	34544	
6076	0	34708	
6077	0	34856	
6078	0	34972	
6079	0	35028	
6080	0	35020	
6081	0	34992	
6082	0	34968	
6083	0	34944	
6084	0	34888	
6085	0	34808	
6086	0	34720	
6087	0	34688	
6088	0	34792	
6089	0	34996	
6090	0	35252	
6091	0	35556	
6092	0	35876	
6093	0	36144	
6094	0	36352	
6095	0	36536	
6096	0	36688	
6097	0	36752	
6098	0	36820	
6099	0	36928	
6100	0	37036	
6101	0	37108	
6102	0	37204	
6103	0	37332	
6104	0	37424	
6105	0	37528	
6106	0	37608	
6107	0	37564	
6108	0	37408	
6109	0	37196	
6110	0	36952	
6111	0	36736	
6112	0	36536	
6113	0	36396	
6114	0	36332	
6115	0	36312	
6116	0	36288	
6117	0	36252	
6118	0	36156	
6119	0	35936	
6120	0	35664	
6121	0	35400	
6122	0	35184	
6123	0	34960	
6124	0	34736	
6125	0	34508	
6126	0	34304	
6127	0	34138	
6128	0	33930	
6129	0	33680	
6130	0	33360	
6131	0	33020	
6132	0	32732	
6133	0	32524	
6134	0	32376	
6135	0	32256	
6136	0	32180	
6137	0	32120	
6138	0	32033	
6139	0	31944	
6140	0	31876	
6141	0	31792	
6142	0	31720	
6143	0	31640	
6144	0	31552	
6145	0	31508	
6146	0	31468	
6147	0	31460	
6148	0	31448	
6149	0	31412	
6150	0	31396	
6151	0	31376	
6152	0	31356	
6153	0	31336	
6154	0	31328	
6155	0	31320	
6156	0	31296	
6157	0	31296	
6158	0	31320	
6159	0	31324	
6160	0	31374	
6161	0	31376	
6162	0	31380	
6163	0	31398	
6164	0	31424	
6165	0	31444	
6166	0	31452	
6167	0	31476	
6168	0	31508	
6169	0	31504	
6170	0	31472	
6171	0	31496	
6172	0	31492	
6173	0	31444	
6174	0	31368	
6175	0	31296	
6176	0	31224	
6177	0	31144	
6178	0	31016	
6179	0	30880	
6180	0	30736	
6181	0	30576	
6182	0	30388	
6183	0	30216	
6184	0	30028	
6185	0	29840	
6186	0	29648	
6187	0	29500	
6188	0	29404	
6189	0	29320	
6190	0	29324	
6191	0	29448	
6192	0	29712	
6193	0	30264	
6194	0	30980	
6195	0	31860	
6196	0	33056	
6197	0	34624	
6198	0	36448	
6199	0	38720	
6200	0	41416	
6201	0	44408	
6202	0	47564	
6203	0	50960	
6204	0	54680	
6205	0	58700	
6206	0	61728	
6207	0	63368	
6208	0	64184	
6209	0	64604	
6210	0	64744	
6211	0	64768	
6212	0	64756	
6213	0	64680	
6214	0	64568	
6215	0	64472	
6216	0	64344	
6217	0	64224	
6218	0	64108	
6219	0	63992	
6220	0	63876	
6221	0	63748	
6222	0	63620	
6223	0	63504	
6224	0	63392	
6225	0	63272	
6226	0	63164	
6227	0	63032	
6228	0	62928	
6229	0	62800	
6230	0	62688	
6231	0	62576	
6232	0	59392	
6233	0	54336	
6234	0	49336	
6235	0	44780	
6236	0	40956	
6237	0	37892	
6238	0	35306	
6239	0	33130	
6240	0	31344	
6241	0	29932	
6242	0	28888	
6243	0	28140	
6244	0	27588	
6245	0	27072	
6246	0	26592	
6247	0	26184	
6248	0	25768	
6249	0	25384	
6250	0	25004	
6251	0	24664	
6252	0	24360	
6253	0	24090	
6254	0	23868	
6255	0	23656	
6256	0	23468	
6257	0	23276	
6258	0	23112	
6259	0	22968	
6260	0	22858	
6261	0	22732	
6262	0	22604	
6263	0	22468	
6264	0	22356	
6265	0	22244	
6266	0	22176	
6267	0	22080	
6268	0	22012	
6269	0	21976	
6270	0	21972	
6271	0	21984	
6272	0	21988	
6273	0	22012	
6274	0	22056	
6275	0	22060	
6276	0	22058	
6277	0	22052	
6278	0	22060	
6279	0	22080	
6280	0	22089	
6281	0	22108	
6282	0	22152	
6283	0	22224	
6284	0	22308	
6285	0	22412	
6286	0	22525	
6287	0	22632	
6288	0	22724	
6289	0	22816	
6290	0	22908	
6291	0	23008	
6292	0	23088	
6293	0	23196	
6294	0	23270	
6295	0	23348	
6296	0	23468	
6297	0	23600	
6298	0	23716	
6299	0	23788	
6300	0	23836	
6301	0	23876	
6302	0	23970	
6303	0	24056	
6304	0	24148	
6305	0	24244	
6306	0	24316	
6307	0	24396	
6308	0	24462	
6309	0	24520	
6310	0	24548	
6311	0	24568	
6312	0	24600	
6313	0	24668	
6314	0	24796	
6315	0	24928	
6316	0	25044	
6317	0	25136	
6318	0	25252	
6319	0	25364	
6320	0	25504	
6321	0	25608	
6322	0	25728	
6323	0	25864	
6324	0	25998	
6325	0	26104	
6326	0	26168	
6327	0	26220	
6328	0	26278	
6329	0	26354	
6330	0	26456	
6331	0	26544	
6332	0	26552	
6333	0	26556	
6334	0	26576	
6335	0	26604	
6336	0	26680	
6337	0	26792	
6338	0	26904	
6339	0	27000	
6340	0	27044	
6341	0	27116	
6342	0	27186	
6343	0	27298	
6344	0	27404	
6345	0	27490	
6346	0	27592	
6347	0	27696	
6348	0	27834	
6349	0	27968	
6350	0	28064	
6351	0	28176	
6352	0	28272	
6353	0	28356	
6354	0	28426	
6355	0	28496	
6356	0	28572	
6357	0	28636	
6358	0	28736	
6359	0	28828	
6360	0	28912	
6361	0	29008	
6362	0	29052	
6363	0	29080	
6364	0	29104	
6365	0	29160	
6366	0	29224	
6367	0	29308	
6368	0	29404	
6369	0	29508	
6370	0	29616	
6371	0	29728	
6372	0	29852	
6373	0	29956	
6374	0	30020	
6375	0	30060	
6376	0	30148	
6377	0	30228	
6378	0	30288	
6379	0	30368	
6380	0	30452	
6381	0	30608	
6382	0	30768	
6383	0	30928	
6384	0	31088	
6385	0	31256	
6386	0	31396	
6387	0	31546	
6388	0	31616	
6389	0	31660	
6390	0	31678	
6391	0	31680	
6392	0	31700	
6393	0	31728	
6394	0	31772	
6395	0	31840	
6396	0	31912	
6397	0	31984	
6398	0	32080	
6399	0	32184	
6400	0	32296	
6401	0	32396	
6402	0	32464	
6403	0	32548	
6404	0	32640	
6405	0	32684	
6406	0	32708	
6407	0	32712	
6408	0	32652	
6409	0	32680	
6410	0	32756	
6411	0	32824	
6412	0	32872	
6413	0	32864	
6414	0	32864	
6415	0	32888	
6416	0	32940	
6417	0	32996	
6418	0	33026	
6419	0	33084	
6420	0	33184	
6421	0	33282	
6422	0	33340	
6423	0	33368	
6424	0	33388	
6425	0	33412	
6426	0	33448	
6427	0	33452	
6428	0	33412	
6429	0	33324	
6430	0	33248	
6431	0	33164	
6432	0	33152	
6433	0	33152	
6434	0	33200	
6435	0	33192	
6436	0	33196	
6437	0	33200	
6438	0	33248	
6439	0	33296	
6440	0	33348	
6441	0	33420	
6442	0	33522	
6443	0	33576	
6444	0	33556	
6445	0	33544	
6446	0	33560	
6447	0	33528	
6448	0	33492	
6449	0	33440	
6450	0	33392	
6451	0	33362	
6452	0	33368	
6453	0	33402	
6454	0	33436	
6455	0	33448	
6456	0	33472	
6457	0	33424	
6458	0	33360	
6459	0	33304	
6460	0	33234	
6461	0	33192	
6462	0	33156	
6463	0	33116	
6464	0	33032	
6465	0	32952	
6466	0	32848	
6467	0	32722	
6468	0	32640	
6469	0	32514	
6470	0	32426	
6471	0	32364	
6472	0	32328	
6473	0	32346	
6474	0	32328	
6475	0	32346	
6476	0	32320	
6477	0	32288	
6478	0	32232	
6479	0	32140	
6480	0	32064	
6481	0	31980	
6482	0	31880	
6483	0	31756	
6484	0	31692	
6485	0	31652	
6486	0	31594	
6487	0	31592	
6488	0	31584	
6489	0	31560	
6490	0	31560	
6491	0	31576	
6492	0	31652	
6493	0	31736	
6494	0	31776	
6495	0	31784	
6496	0	31780	
6497	0	31760	
6498	0	31700	
6499	0	31652	
6500	0	31600	
6501	0	31464	
6502	0	31312	
6503	0	31200	
6504	0	31112	
6505	0	31104	
6506	0	31184	
6507	0	31304	
6508	0	31446	
6509	0	31564	
6510	0	31612	
6511	0	31656	
6512	0	31700	
6513	0	31780	
6514	0	31860	
6515	0	31956	
6516	0	32024	
6517	0	32064	
6518	0	32052	
6519	0	32000	
6520	0	31932	
6521	0	31888	
6522	0	31852	
6523	0	31848	
6524	0	31904	
6525	0	31996	
6526	0	32060	
6527	0	32096	
6528	0	32084	
6529	0	32048	
6530	0	32050	
6531	0	32092	
6532	0	32096	
6533	0	32114	
6534	0	32172	
6535	0	32216	
6536	0	32224	
6537	0	32244	
6538	0	32288	
6539	0	32338	
6540	0	32444	
6541	0	32568	
6542	0	32624	
6543	0	32706	
6544	0	32792	
6545	0	32848	
6546	0	32892	
6547	0	32916	
6548	0	32896	
6549	0	32892	
6550	0	32880	
6551	0	32856	
6552	0	32848	
6553	0	32844	
6554	0	32804	
6555	0	32748	
6556	0	32760	
6557	0	32824	
6558	0	32892	
6559	0	32912	
6560	0	32904	
6561	0	32880	
6562	0	32852	
6563	0	32852	
6564	0	32884	
6565	0	32940	
6566	0	33008	
6567	0	33096	
6568	0	33148	
6569	0	33136	
6570	0	33088	
6571	0	33032	
6572	0	32978	
6573	0	32932	
6574	0	32944	
6575	0	33004	
6576	0	32988	
6577	0	32944	
6578	0	32900	
6579	0	32852	
6580	0	32840	
6581	0	32884	
6582	0	32952	
6583	0	33000	
6584	0	32976	
6585	0	32996	
6586	0	33052	
6587	0	33108	
6588	0	33168	
6589	0	33252	
6590	0	33252	
6591	0	33236	
6592	0	33184	
6593	0	33168	
6594	0	33124	
6595	0	33056	
6596	0	33012	
6597	0	32962	
6598	0	32936	
6599	0	32944	
6600	0	32916	
6601	0	32880	
6602	0	32874	
6603	0	32842	
6604	0	32788	
6605	0	32776	
6606	0	32836	
6607	0	32908	
6608	0	32992	
6609	0	33056	
6610	0	33096	
6611	0	33080	
6612	0	33044	
6613	0	33024	
6614	0	33004	
6615	0	32932	
6616	0	32864	
6617	0	32832	
6618	0	32826	
6619	0	32826	
6620	0	32832	
6621	0	32802	
6622	0	32796	
6623	0	32784	
6624	0	32732	
6625	0	32656	
6626	0	32568	
6627	0	32616	
6628	0	32676	
6629	0	32684	
6630	0	32632	
6631	0	32608	
6632	0	32640	
6633	0	32676	
6634	0	32692	
6635	0	32688	
6636	0	32664	
6637	0	32680	
6638	0	32756	
6639	0	32808	
6640	0	32860	
6641	0	32920	
6642	0	32960	
6643	0	33012	
6644	0	32960	
6645	0	32906	
6646	0	32872	
6647	0	32792	
6648	0	32640	
6649	0	32492	
6650	0	32404	
6651	0	32376	
6652	0	32346	
6653	0	32280	
6654	0	32236	
6655	0	32224	
6656	0	32260	
6657	0	32292	
6658	0	32360	
6659	0	32412	
6660	0	32432	
6661	0	32460	
6662	0	32504	
6663	0	32592	
6664	0	32652	
6665	0	32684	
6666	0	32632	
6667	0	32632	
6668	0	32636	
6669	0	32640	
6670	0	32600	
6671	0	32520	
6672	0	32460	
6673	0	32424	
6674	0	32472	
6675	0	32556	
6676	0	32664	
6677	0	32716	
6678	0	32720	
6679	0	32744	
6680	0	32788	
6681	0	32784	
6682	0	32728	
6683	0	32640	
6684	0	32580	
6685	0	32596	
6686	0	32680	
6687	0	32728	
6688	0	32770	
6689	0	32748	
6690	0	32732	
6691	0	32732	
6692	0	32724	
6693	0	32688	
6694	0	32644	
6695	0	32604	
6696	0	32608	
6697	0	32632	
6698	0	32684	
6699	0	32720	
6700	0	32824	
6701	0	33024	
6702	0	33244	
6703	0	33456	
6704	0	33648	
6705	0	33760	
6706	0	33824	
6707	0	33844	
6708	0	33860	
6709	0	33904	
6710	0	34012	
6711	0	34168	
6712	0	34272	
6713	0	34320	
6714	0	34252	
6715	0	34158	
6716	0	34112	
6717	0	34116	
6718	0	34116	
6719	0	34086	
6720	0	34096	
6721	0	34222	
6722	0	34508	
6723	0	34860	
6724	0	35240	
6725	0	35608	
6726	0	35920	
6727	0	36148	
6728	0	36332	
6729	0	36454	
6730	0	36512	
6731	0	36576	
6732	0	36616	
6733	0	36642	
6734	0	36680	
6735	0	36720	
6736	0	36792	
6737	0	36924	
6738	0	37032	
6739	0	37184	
6740	0	37304	
6741	0	37312	
6742	0	37244	
6743	0	37132	
6744	0	37024	
6745	0	36896	
6746	0	36804	
6747	0	36704	
6748	0	36592	
6749	0	36476	
6750	0	36356	
6751	0	36208	
6752	0	35960	
6753	0	35612	
6754	0	35312	
6755	0	35016	
6756	0	34784	
6757	0	34532	
6758	0	34258	
6759	0	34024	
6760	0	33832	
6761	0	33664	
6762	0	33404	
6763	0	33048	
6764	0	32704	
6765	0	32446	
6766	0	32312	
6767	0	32162	
6768	0	32012	
6769	0	31816	
6770	0	31560	
6771	0	31340	
6772	0	31176	
6773	0	31100	
6774	0	31052	
6775	0	31060	
6776	0	31080	
6777	0	31120	
6778	0	31196	
6779	0	31344	
6780	0	31522	
6781	0	31656	
6782	0	31692	
6783	0	31660	
6784	0	31592	
6785	0	31414	
6786	0	31312	
6787	0	31300	
6788	0	31236	
6789	0	31156	
6790	0	31124	
6791	0	31120	
6792	0	31088	
6793	0	31098	
6794	0	31128	
6795	0	31200	
6796	0	31308	
6797	0	31338	
6798	0	31340	
6799	0	31394	
6800	0	31456	
6801	0	31488	
6802	0	31484	
6803	0	31448	
6804	0	31412	
6805	0	31364	
6806	0	31252	
6807	0	31116	
6808	0	31012	
6809	0	30932	
6810	0	30856	
6811	0	30780	
6812	0	30692	
6813	0	30590	
6814	0	30484	
6815	0	30356	
6816	0	30212	
6817	0	30040	
6818	0	29838	
6819	0	29620	
6820	0	29460	
6821	0	29344	
6822	0	29268	
6823	0	29284	
6824	0	29422	
6825	0	29728	
6826	0	30308	
6827	0	31180	
6828	0	32200	
6829	0	33492	
6830	0	35008	
6831	0	36698	
6832	0	38836	
6833	0	41492	
6834	0	44568	
6835	0	47848	
6836	0	51468	
6837	0	55568	
6838	0	59820	
6839	0	62436	
6840	0	63820	
6841	0	64520	
6842	0	64848	
6843	0	64976	
6844	0	64968	
6845	0	64928	
6846	0	64832	
6847	0	64712	
6848	0	64620	
6849	0	64500	
6850	0	64384	
6851	0	64256	
6852	0	64116	
6853	0	64032	
6854	0	63896	
6855	0	63784	
6856	0	63640	
6857	0	63532	
6858	0	63424	
6859	0	63296	
6860	0	63188	
6861	0	63068	
6862	0	62936	
6863	0	62832	
6864	0	62704	
6865	0	58900	
6866	0	53624	
6867	0	48344	
6868	0	43448	
6869	0	39476	
6870	0	36436	
6871	0	34176	
6872	0	32488	
6873	0	31152	
6874	0	29964	
6875	0	28960	
6876	0	28216	
6877	0	27652	
6878	0	27176	
6879	0	26668	
6880	0	26144	
6881	0	25596	
6882	0	25068	
6883	0	24580	
6884	0	24178	
6885	0	23882	
6886	0	23620	
6887	0	23392	
6888	0	23204	
6889	0	23032	
6890	0	22876	
6891	0	22696	
6892	0	22516	
6893	0	22368	
6894	0	22208	
6895	0	21944	
6896	0	21704	
6897	0	21562	
6898	0	21512	
6899	0	21444	
6900	0	21426	
6901	0	21440	
6902	0	21416	
6903	0	21384	
6904	0	21376	
6905	0	21360	
6906	0	21438	
6907	0	21516	
6908	0	21536	
6909	0	21584	
6910	0	21630	
6911	0	21696	
6912	0	21792	
6913	0	21876	
6914	0	21958	
6915	0	22056	
6916	0	22148	
6917	0	22286	
6918	0	22438	
6919	0	22536	
6920	0	22608	
6921	0	22704	
6922	0	22784	
6923	0	22852	
6924	0	22876	
6925	0	22864	
6926	0	22932	
6927	0	23032	
6928	0	23128	
6929	0	23258	
6930	0	23380	
6931	0	23432	
6932	0	23484	
6933	0	23648	
6934	0	23844	
6935	0	23956	
6936	0	23984	
6937	0	23956	
6938	0	23864	
6939	0	23696	
6940	0	23600	
6941	0	23664	
6942	0	23802	
6943	0	24020	
6944	0	24256	
6945	0	24512	
6946	0	24768	
6947	0	25028	
6948	0	25282	
6949	0	25506	
6950	0	25648	
6951	0	25706	
6952	0	25712	
6953	0	25692	
6954	0	25616	
6955	0	25596	
6956	0	25604	
6957	0	25640	
6958	0	25684	
6959	0	25760	
6960	0	25860	
6961	0	26024	
6962	0	26146	
6963	0	26240	
6964	0	26348	
6965	0	26420	
6966	0	26480	
6967	0	26508	
6968	0	26496	
6969	0	26528	
6970	0	26616	
6971	0	26712	
6972	0	26784	
6973	0	26772	
6974	0	26800	
6975	0	26906	
6976	0	27044	
6977	0	27164	
6978	0	27316	
6979	0	27508	
6980	0	27724	
6981	0	27872	
6982	0	28012	
6983	0	28204	
6984	0	28386	
6985	0	28472	
6986	0	28472	
6987	0	28448	
6988	0	28448	
6989	0	28464	
6990	0	28480	
6991	0	28524	
6992	0	28554	
6993	0	28656	
6994	0	28808	
6995	0	29024	
6996	0	29244	
6997	0	29424	
6998	0	29572	
6999	0	29728	
7000	0	29888	
7001	0	29952	
7002	0	29964	
7003	0	30056	
7004	0	30168	
7005	0	30302	
7006	0	30412	
7007	0	30450	
7008	0	30488	
7009	0	30512	
7010	0	30516	
7011	0	30540	
7012	0	30624	
7013	0	30730	
7014	0	30788	
7015	0	30808	
7016	0	30884	
7017	0	31056	
7018	0	31226	
7019	0	31377	
7020	0	31500	
7021	0	31604	
7022	0	31712	
7023	0	31712	
7024	0	31596	
7025	0	31520	
7026	0	31528	
7027	0	31636	
7028	0	31836	
7029	0	32096	
7030	0	32328	
7031	0	32516	
7032	0	32676	
7033	0	32848	
7034	0	32960	
7035	0	33028	
7036	0	33060	
7037	0	33032	
7038	0	32996	
7039	0	32948	
7040	0	32962	
7041	0	32968	
7042	0	32924	
7043	0	32820	
7044	0	32736	
7045	0	32744	
7046	0	32856	
7047	0	33004	
7048	0	33060	
7049	0	32984	
7050	0	32872	
7051	0	32788	
7052	0	32768	
7053	0	32724	
7054	0	32684	
7055	0	32700	
7056	0	32788	
7057	0	32894	
7058	0	32996	
7059	0	33026	
7060	0	33024	
7061	0	32992	
7062	0	32960	
7063	0	32922	
7064	0	32948	
7065	0	32992	
7066	0	33016	
7067	0	33068	
7068	0	33184	
7069	0	33328	
7070	0	33416	
7071	0	33468	
7072	0	33504	
7073	0	33568	
7074	0	33608	
7075	0	33576	
7076	0	33612	
7077	0	33664	
7078	0	33676	
7079	0	33674	
7080	0	33690	
7081	0	33720	
7082	0	33736	
7083	0	33654	
7084	0	33472	
7085	0	33348	
7086	0	33306	
7087	0	33280	
7088	0	33208	
7089	0	33080	
7090	0	32932	
7091	0	32876	
7092	0	32932	
7093	0	33069	
7094	0	33156	
7095	0	33144	
7096	0	33052	
7097	0	32928	
7098	0	32848	
7099	0	32800	
7100	0	32736	
7101	0	32608	
7102	0	32416	
7103	0	32240	
7104	0	32120	
7105	0	32074	
7106	0	32100	
7107	0	32096	
7108	0	32040	
7109	0	31960	
7110	0	31848	
7111	0	31744	
7112	0	31620	
7113	0	31520	
7114	0	31512	
7115	0	31516	
7116	0	31584	
7117	0	31600	
7118	0	31564	
7119	0	31472	
7120	0	31344	
7121	0	31244	
7122	0	31232	
7123	0	31260	
7124	0	31312	
7125	0	31380	
7126	0	31424	
7127	0	31576	
7128	0	31784	
7129	0	32028	
7130	0	32164	
7131	0	32208	
7132	0	32196	
7133	0	32148	
7134	0	32072	
7135	0	31964	
7136	0	31784	
7137	0	31524	
7138	0	31238	
7139	0	31028	
7140	0	30928	
7141	0	30920	
7142	0	30984	
7143	0	31080	
7144	0	31232	
7145	0	31404	
7146	0	31576	
7147	0	31748	
7148	0	31876	
7149	0	31976	
7150	0	32034	
7151	0	32064	
7152	0	32064	
7153	0	31968	
7154	0	31874	
7155	0	31823	
7156	0	31816	
7157	0	31840	
7158	0	31776	
7159	0	31664	
7160	0	31644	
7161	0	31728	
7162	0	31872	
7163	0	32052	
7164	0	32240	
7165	0	32348	
7166	0	32480	
7167	0	32572	
7168	0	32592	
7169	0	32568	
7170	0	32492	
7171	0	32376	
7172	0	32288	
7173	0	32192	
7174	0	32180	
7175	0	32176	
7176	0	32216	
7177	0	32264	
7178	0	32312	
7179	0	32392	
7180	0	32456	
7181	0	32504	
7182	0	32528	
7183	0	32636	
7184	0	32656	
7185	0	32668	
7186	0	32748	
7187	0	32754	
7188	0	32636	
7189	0	32416	
7190	0	32236	
7191	0	32288	
7192	0	32496	
7193	0	32784	
7194	0	33026	
7195	0	33224	
7196	0	33364	
7197	0	33320	
7198	0	33192	
7199	0	33084	
7200	0	33064	
7201	0	33140	
7202	0	33242	
7203	0	33296	
7204	0	33240	
7205	0	33212	
7206	0	33248	
7207	0	33322	
7208	0	33344	
7209	0	33336	
7210	0	33300	
7211	0	33220	
7212	0	33136	
7213	0	33084	
7214	0	33060	
7215	0	33074	
7216	0	33044	
7217	0	33060	
7218	0	33116	
7219	0	33196	
7220	0	33280	
7221	0	33368	
7222	0	33472	
7223	0	33568	
7224	0	33600	
7225	0	33620	
7226	0	33572	
7227	0	33480	
7228	0	33296	
7229	0	33012	
7230	0	32712	
7231	0	32500	
7232	0	32448	
7233	0	32540	
7234	0	32664	
7235	0	32856	
7236	0	33040	
7237	0	33216	
7238	0	33360	
7239	0	33368	
7240	0	33312	
7241	0	33266	
7242	0	33224	
7243	0	33188	
7244	0	33176	
7245	0	33124	
7246	0	33100	
7247	0	33050	
7248	0	33064	
7249	0	33076	
7250	0	33024	
7251	0	32910	
7252	0	32780	
7253	0	32652	
7254	0	32592	
7255	0	32592	
7256	0	32576	
7257	0	32556	
7258	0	32572	
7259	0	32696	
7260	0	32848	
7261	0	33064	
7262	0	33240	
7263	0	33348	
7264	0	33352	
7265	0	33248	
7266	0	33152	
7267	0	33080	
7268	0	33060	
7269	0	33088	
7270	0	33124	
7271	0	33172	
7272	0	33248	
7273	0	33320	
7274	0	33242	
7275	0	33080	
7276	0	32922	
7277	0	32808	
7278	0	32628	
7279	0	32416	
7280	0	32264	
7281	0	32232	
7282	0	32320	
7283	0	32464	
7284	0	32626	
7285	0	32758	
7286	0	32856	
7287	0	32924	
7288	0	32956	
7289	0	32944	
7290	0	32860	
7291	0	32724	
7292	0	32688	
7293	0	32666	
7294	0	32612	
7295	0	32606	
7296	0	32652	
7297	0	32764	
7298	0	32884	
7299	0	32928	
7300	0	32894	
7301	0	32864	
7302	0	32888	
7303	0	32954	
7304	0	33104	
7305	0	33364	
7306	0	33640	
7307	0	33912	
7308	0	34104	
7309	0	34228	
7310	0	34352	
7311	0	34396	
7312	0	34416	
7313	0	34368	
7314	0	34308	
7315	0	34228	
7316	0	34136	
7317	0	34096	
7318	0	34136	
7319	0	34236	
7320	0	34348	
7321	0	34484	
7322	0	34596	
7323	0	34744	
7324	0	34908	
7325	0	35080	
7326	0	35288	
7327	0	35452	
7328	0	35572	
7329	0	35684	
7330	0	35840	
7331	0	36008	
7332	0	36224	
7333	0	36452	
7334	0	36542	
7335	0	36584	
7336	0	36664	
7337	0	36720	
7338	0	36824	
7339	0	36896	
7340	0	36980	
7341	0	37052	
7342	0	37032	
7343	0	36904	
7344	0	36712	
7345	0	36544	
7346	0	36380	
7347	0	36300	
7348	0	36360	
7349	0	36388	
7350	0	36396	
7351	0	36412	
7352	0	36384	
7353	0	36272	
7354	0	36104	
7355	0	35916	
7356	0	35736	
7357	0	35592	
7358	0	35456	
7359	0	35220	
7360	0	34920	
7361	0	34652	
7362	0	34388	
7363	0	34048	
7364	0	33680	
7365	0	33280	
7366	0	32920	
7367	0	32480	
7368	0	31952	
7369	0	31514	
7370	0	31288	
7371	0	31226	
7372	0	31290	
7373	0	31420	
7374	0	31516	
7375	0	31528	
7376	0	31592	
7377	0	31638	
7378	0	31616	
7379	0	31624	
7380	0	31724	
7381	0	31836	
7382	0	31900	
7383	0	31908	
7384	0	31876	
7385	0	31774	
7386	0	31720	
7387	0	31792	
7388	0	31800	
7389	0	31648	
7390	0	31460	
7391	0	31282	
7392	0	31088	
7393	0	30928	
7394	0	30836	
7395	0	30844	
7396	0	30976	
7397	0	31164	
7398	0	31240	
7399	0	31264	
7400	0	31322	
7401	0	31376	
7402	0	31380	
7403	0	31344	
7404	0	31280	
7405	0	31196	
7406	0	31152	
7407	0	31152	
7408	0	31192	
7409	0	31292	
7410	0	31468	
7411	0	31528	
7412	0	31484	
7413	0	31372	
7414	0	31224	
7415	0	31024	
7416	0	30844	
7417	0	30656	
7418	0	30460	
7419	0	30258	
7420	0	30096	
7421	0	29932	
7422	0	29732	
7423	0	29636	
7424	0	29728	
7425	0	30020	
7426	0	30456	
7427	0	31028	
7428	0	31788	
7429	0	32752	
7430	0	33978	
7431	0	35544	
7432	0	37276	
7433	0	39272	
7434	0	41712	
7435	0	44600	
7436	0	47760	
7437	0	51172	
7438	0	55080	
7439	0	59280	
7440	0	62204	
7441	0	63768	
7442	0	64538	
7443	0	64920	
7444	0	65064	
7445	0	65092	
7446	0	65048	
7447	0	64960	
7448	0	64860	
7449	0	64740	
7450	0	64628	
7451	0	64512	
7452	0	64388	
7453	0	64264	
7454	0	64136	
7455	0	64028	
7456	0	63892	
7457	0	63784	
7458	0	63668	
7459	0	63544	
7460	0	63416	
7461	0	63308	
7462	0	63176	
7463	0	63056	
7464	0	62944	
7465	0	62832	
7466	0	62420	
7467	0	56700	
7468	0	51152	
7469	0	45736	
7470	0	41104	
7471	0	37512	
7472	0	34824	
7473	0	32876	
7474	0	31476	
7475	0	30428	
7476	0	29540	
7477	0	28714	
7478	0	27960	
7479	0	27360	
7480	0	26856	
7481	0	26320	
7482	0	25780	
7483	0	25288	
7484	0	24776	
7485	0	24208	
7486	0	23660	
7487	0	23208	
7488	0	22880	
7489	0	22654	
7490	0	22458	
7491	0	22284	
7492	0	22212	
7493	0	22234	
7494	0	22264	
7495	0	22296	
7496	0	22245	
7497	0	22096	
7498	0	21900	
7499	0	21712	
7500	0	21596	
7501	0	21600	
7502	0	21594	
7503	0	21632	
7504	0	21654	
7505	0	21658	
7506	0	21688	
7507	0	21704	
7508	0	21684	
7509	0	21652	
7510	0	21680	
7511	0	21790	
7512	0	21908	
7513	0	22020	
7514	0	22110	
7515	0	22128	
7516	0	22080	
7517	0	21968	
7518	0	21856	
7519	0	21784	
7520	0	21740	
7521	0	21776	
7522	0	21882	
7523	0	22050	
7524	0	22256	
7525	0	22376	
7526	0	22518	
7527	0	22720	
7528	0	22876	
7529	0	23008	
7530	0	23030	
7531	0	22992	
7532	0	22994	
7533	0	23033	
7534	0	23082	
7535	0	23120	
7536	0	23188	
7537	0	23284	
7538	0	23516	
7539	0	23788	
7540	0	23964	
7541	0	24072	
7542	0	24112	
7543	0	24154	
7544	0	24224	
7545	0	24304	
7546	0	24418	
7547	0	24596	
7548	0	24804	
7549	0	25000	
7550	0	25120	
7551	0	25168	
7552	0	25196	
7553	0	25236	
7554	0	25296	
7555	0	25344	
7556	0	25330	
7557	0	25388	
7558	0	25500	
7559	0	25588	
7560	0	25664	
7561	0	25720	
7562	0	25816	
7563	0	26016	
7564	0	26188	
7565	0	26264	
7566	0	26276	
7567	0	26308	
7568	0	26380	
7569	0	26460	
7570	0	26520	
7571	0	26612	
7572	0	26816	
7573	0	27032	
7574	0	27224	
7575	0	27348	
7576	0	27418	
7577	0	27510	
7578	0	27632	
7579	0	27700	
7580	0	27712	
7581	0	27748	
7582	0	27824	
7583	0	27930	
7584	0	28064	
7585	0	28170	
7586	0	28264	
7587	0	28332	
7588	0	28368	
7589	0	28324	
7590	0	28168	
7591	0	28216	
7592	0	28340	
7593	0	28532	
7594	0	28736	
7595	0	28898	
7596	0	29060	
7597	0	29176	
7598	0	29244	
7599	0	29376	
7600	0	29492	
7601	0	29536	
7602	0	29626	
7603	0	29744	
7604	0	29820	
7605	0	29868	
7606	0	29956	
7607	0	30092	
7608	0	30168	
7609	0	30144	
7610	0	30108	
7611	0	30080	
7612	0	30084	
7613	0	30178	
7614	0	30324	
7615	0	30436	
7616	0	30532	
7617	0	30664	
7618	0	30836	
7619	0	31056	
7620	0	31224	
7621	0	31332	
7622	0	31456	
7623	0	31634	
7624	0	31778	
7625	0	31900	
7626	0	31976	
7627	0	31994	
7628	0	31872	
7629	0	31720	
7630	0	31620	
7631	0	31664	
7632	0	31852	
7633	0	32112	
7634	0	32360	
7635	0	32576	
7636	0	32732	
7637	0	32824	
7638	0	32856	
7639	0	32876	
7640	0	32868	
7641	0	32832	
7642	0	32836	
7643	0	32898	
7644	0	33016	
7645	0	33052	
7646	0	33034	
7647	0	33044	
7648	0	33056	
7649	0	33056	
7650	0	33000	
7651	0	32908	
7652	0	32788	
7653	0	32674	
7654	0	32648	
7655	0	32648	
7656	0	32596	
7657	0	32524	
7658	0	32440	
7659	0	32412	
7660	0	32488	
7661	0	32624	
7662	0	32800	
7663	0	32996	
7664	0	33158	
7665	0	33244	
7666	0	33308	
7667	0	33376	
7668	0	33460	
7669	0	33564	
7670	0	33638	
7671	0	33504	
7672	0	33232	
7673	0	33002	
7674	0	32864	
7675	0	32804	
7676	0	32728	
7677	0	32688	
7678	0	32716	
7679	0	32884	
7680	0	33102	
7681	0	33380	
7682	0	33584	
7683	0	33706	
7684	0	33784	
7685	0	33816	
7686	0	33776	
7687	0	33696	
7688	0	33596	
7689	0	33424	
7690	0	33212	
7691	0	33018	
7692	0	32852	
7693	0	32736	
7694	0	32704	
7695	0	32760	
7696	0	32892	
7697	0	32984	
7698	0	33056	
7699	0	33104	
7700	0	33084	
7701	0	32992	
7702	0	32840	
7703	0	32688	
7704	0	32512	
7705	0	32380	
7706	0	32260	
7707	0	32108	
7708	0	31948	
7709	0	31768	
7710	0	31652	
7711	0	31600	
7712	0	31560	
7713	0	31548	
7714	0	31568	
7715	0	31596	
7716	0	31636	
7717	0	31688	
7718	0	31728	
7719	0	31764	
7720	0	31752	
7721	0	31708	
7722	0	31678	
7723	0	31692	
7724	0	31688	
7725	0	31668	
7726	0	31660	
7727	0	31644	
7728	0	31664	
7729	0	31650	
7730	0	31576	
7731	0	31488	
7732	0	31412	
7733	0	31340	
7734	0	31252	
7735	0	31250	
7736	0	31298	
7737	0	31324	
7738	0	31264	
7739	0	31160	
7740	0	31144	
7741	0	31312	
7742	0	31450	
7743	0	31532	
7744	0	31616	
7745	0	31672	
7746	0	31640	
7747	0	31584	
7748	0	31584	
7749	0	31688	
7750	0	31880	
7751	0	32032	
7752	0	32080	
7753	0	32100	
7754	0	32072	
7755	0	31928	
7756	0	31736	
7757	0	31568	
7758	0	31404	
7759	0	31290	
7760	0	31288	
7761	0	31356	
7762	0	31500	
7763	0	31712	
7764	0	32044	
7765	0	32396	
7766	0	32684	
7767	0	32888	
7768	0	32996	
7769	0	32980	
7770	0	32880	
7771	0	32712	
7772	0	32552	
7773	0	32412	
7774	0	32384	
7775	0	32440	
7776	0	32524	
7777	0	32620	
7778	0	32712	
7779	0	32780	
7780	0	32840	
7781	0	32904	
7782	0	32952	
7783	0	32916	
7784	0	32834	
7785	0	32802	
7786	0	32752	
7787	0	32698	
7788	0	32728	
7789	0	32840	
7790	0	32936	
7791	0	33056	
7792	0	33160	
7793	0	33244	
7794	0	33284	
7795	0	33316	
7796	0	33328	
7797	0	33308	
7798	0	33274	
7799	0	33216	
7800	0	33150	
7801	0	33040	
7802	0	32888	
7803	0	32736	
7804	0	32696	
7805	0	32756	
7806	0	32824	
7807	0	32936	
7808	0	33076	
7809	0	33208	
7810	0	33360	
7811	0	33444	
7812	0	33420	
7813	0	33360	
7814	0	33364	
7815	0	33376	
7816	0	33468	
7817	0	33594	
7818	0	33709	
7819	0	33788	
7820	0	33800	
7821	0	33792	
7822	0	33740	
7823	0	33688	
7824	0	33640	
7825	0	33580	
7826	0	33464	
7827	0	33340	
7828	0	33180	
7829	0	33040	
7830	0	32948	
7831	0	32956	
7832	0	33024	
7833	0	33084	
7834	0	33228	
7835	0	33388	
7836	0	33488	
7837	0	33480	
7838	0	33456	
7839	0	33440	
7840	0	33444	
7841	0	33432	
7842	0	33436	
7843	0	33452	
7844	0	33420	
7845	0	33332	
7846	0	33220	
7847	0	33130	
7848	0	33096	
7849	0	33056	
7850	0	32992	
7851	0	32936	
7852	0	32916	
7853	0	32877	
7854	0	32860	
7855	0	32892	
7856	0	32936	
7857	0	32934	
7858	0	33000	
7859	0	33068	
7860	0	33108	
7861	0	33088	
7862	0	33056	
7863	0	33056	
7864	0	33096	
7865	0	33156	
7866	0	33236	
7867	0	33296	
7868	0	33308	
7869	0	33328	
7870	0	33328	
7871	0	33306	
7872	0	33176	
7873	0	33068	
7874	0	32980	
7875	0	32900	
7876	0	32816	
7877	0	32788	
7878	0	32832	
7879	0	32964	
7880	0	33056	
7881	0	33084	
7882	0	33064	
7883	0	32940	
7884	0	32780	
7885	0	32620	
7886	0	32544	
7887	0	32524	
7888	0	32512	
7889	0	32500	
7890	0	32536	
7891	0	32644	
7892	0	32800	
7893	0	33008	
7894	0	33238	
7895	0	33504	
7896	0	33824	
7897	0	34112	
7898	0	34310	
7899	0	34402	
7900	0	34452	
7901	0	34496	
7902	0	34488	
7903	0	34412	
7904	0	34304	
7905	0	34224	
7906	0	34204	
7907	0	34216	
7908	0	34208	
7909	0	34164	
7910	0	34160	
7911	0	34176	
7912	0	34266	
7913	0	34424	
7914	0	34492	
7915	0	34528	
7916	0	34592	
7917	0	34744	
7918	0	34984	
7919	0	35256	
7920	0	35536	
7921	0	35848	
7922	0	36168	
7923	0	36444	
7924	0	36648	
7925	0	36760	
7926	0	36804	
7927	0	36812	
7928	0	36764	
7929	0	36672	
7930	0	36648	
7931	0	36708	
7932	0	36864	
7933	0	37040	
7934	0	37148	
7935	0	37160	
7936	0	37044	
7937	0	36880	
7938	0	36724	
7939	0	36620	
7940	0	36536	
7941	0	36468	
7942	0	36428	
7943	0	36400	
7944	0	36352	
7945	0	36280	
7946	0	36132	
7947	0	35976	
7948	0	35788	
7949	0	35616	
7950	0	35428	
7951	0	35220	
7952	0	34976	
7953	0	34728	
7954	0	34440	
7955	0	34132	
7956	0	33856	
7957	0	33608	
7958	0	33376	
7959	0	33120	
7960	0	32904	
7961	0	32734	
7962	0	32568	
7963	0	32440	
7964	0	32272	
7965	0	32084	
7966	0	31916	
7967	0	31752	
7968	0	31588	
7969	0	31416	
7970	0	31208	
7971	0	31184	
7972	0	31268	
7973	0	31312	
7974	0	31308	
7975	0	31272	
7976	0	31280	
7977	0	31308	
7978	0	31356	
7979	0	31440	
7980	0	31536	
7981	0	31588	
7982	0	31592	
7983	0	31552	
7984	0	31444	
7985	0	31304	
7986	0	31180	
7987	0	31112	
7988	0	31096	
7989	0	31080	
7990	0	31078	
7991	0	31168	
7992	0	31332	
7993	0	31536	
7994	0	31680	
7995	0	31788	
7996	0	31800	
7997	0	31780	
7998	0	31724	
7999	0	31698	
8000	0	31624	
8001	0	31528	
8002	0	31432	
8003	0	31324	
8004	0	31216	
8005	0	31104	
8006	0	30988	
8007	0	30828	
8008	0	30720	
8009	0	30660	
8010	0	30554	
8011	0	30464	
8012	0	30340	
8013	0	30164	
8014	0	29948	
8015	0	29790	
8016	0	29672	
8017	0	29672	
8018	0	29824	
8019	0	30104	
8020	0	30540	
8021	0	31296	
8022	0	32280	
8023	0	33408	
8024	0	34848	
8025	0	36532	
8026	0	38504	
8027	0	40976	
8028	0	43872	
8029	0	47056	
8030	0	50412	
8031	0	54136	
8032	0	58240	
8033	0	61632	
8034	0	63488	
8035	0	64424	
8036	0	64904	
8037	0	65084	
8038	0	65124	
8039	0	65100	
8040	0	65024	
8041	0	64936	
8042	0	64816	
8043	0	64696	
8044	0	64576	
8045	0	64460	
8046	0	64344	
8047	0	64208	
8048	0	64096	
8049	0	63968	
8050	0	63840	
8051	0	63720	
8052	0	63628	
8053	0	63504	
8054	0	63376	
8055	0	63252	
8056	0	63136	
8057	0	63024	
8058	0	62904	
8059	0	62788	
8060	0	59396	
8061	0	53856	
8062	0	48456	
8063	0	43624	
8064	0	39756	
8065	0	36664	
8066	0	34220	
8067	0	32312	
8068	0	30752	
8069	0	29456	
8070	0	28446	
8071	0	27684	
8072	0	27060	
8073	0	26464	
8074	0	25940	
8075	0	25458	
8076	0	25020	
8077	0	24596	
8078	0	24216	
8079	0	23845	
8080	0	23556	
8081	0	23312	
8082	0	23088	
8083	0	22904	
8084	0	22716	
8085	0	22560	
8086	0	22474	
8087	0	22440	
8088	0	22398	
8089	0	22324	
8090	0	22232	
8091	0	22120	
8092	0	21968	
8093	0	21832	
8094	0	21685	
8095	0	21580	
8096	0	21524	
8097	0	21504	
8098	0	21476	
8099	0	21472	
8100	0	21484	
8101	0	21492	
8102	0	21512	
8103	0	21544	
8104	0	21608	
8105	0	21696	
8106	0	21756	
8107	0	21796	
8108	0	21858	
8109	0	21944	
8110	0	22064	
8111	0	22128	
8112	0	22176	
8113	0	22212	
8114	0	22232	
8115	0	22292	
8116	0	22416	
8117	0	22520	
8118	0	22580	
8119	0	22572	
8120	0	22560	
8121	0	22626	
8122	0	22716	
8123	0	22820	
8124	0	22944	
8125	0	23068	
8126	0	23204	
8127	0	23316	
8128	0	23468	
8129	0	23584	
8130	0	23644	
8131	0	23698	
8132	0	23778	
8133	0	23840	
8134	0	23876	
8135	0	23972	
8136	0	24096	
8137	0	24248	
8138	0	24392	
8139	0	24508	
8140	0	24584	
8141	0	24644	
8142	0	24740	
8143	0	24828	
8144	0	24968	
8145	0	25144	
8146	0	25272	
8147	0	25380	
8148	0	25448	
8149	0	25524	
8150	0	25584	
8151	0	25660	
8152	0	25756	
8153	0	25856	
8154	0	25924	
8155	0	26008	
8156	0	26092	
8157	0	26172	
8158	0	26220	
8159	0	26252	
8160	0	26316	
8161	0	26416	
8162	0	26480	
8163	0	26560	
8164	0	26668	
8165	0	26780	
8166	0	26852	
8167	0	26920	
8168	0	27008	
8169	0	27104	
8170	0	27200	
8171	0	27312	
8172	0	27412	
8173	0	27536	
8174	0	27632	
8175	0	27712	
8176	0	27792	
8177	0	27868	
8178	0	27928	
8179	0	27980	
8180	0	28024	
8181	0	28068	
8182	0	28140	
8183	0	28216	
8184	0	28288	
8185	0	28400	
8186	0	28506	
8187	0	28620	
8188	0	28740	
8189	0	28832	
8190	0	28960	
8191	0	29032	
8192	0	29088	
8193	0	29164	
8194	0	29272	
8195	0	29376	
8196	0	29440	
8197	0	29512	
8198	0	29576	
8199	0	29660	
8200	0	29756	
8201	0	29864	
8202	0	29968	
8203	0	30060	
8204	0	30172	
8205	0	30260	
8206	0	30372	
8207	0	30496	
8208	0	30600	
8209	0	30712	
8210	0	30804	
8211	0	30868	
8212	0	30916	
8213	0	31020	
8214	0	31124	
8215	0	31232	
8216	0	31344	
8217	0	31396	
8218	0	31432	
8219	0	31490	
8220	0	31584	
8221	0	31660	
8222	0	31720	
8223	0	31828	
8224	0	31960	
8225	0	32020	
8226	0	32056	
8227	0	32074	
8228	0	32120	
8229	0	32184	
8230	0	32228	
8231	0	32260	
8232	0	32288	
8233	0	32336	
8234	0	32376	
8235	0	32392	
8236	0	32400	
8237	0	32408	
8238	0	32412	
8239	0	32436	
8240	0	32444	
8241	0	32432	
8242	0	32436	
8243	0	32442	
8244	0	32488	
8245	0	32548	
8246	0	32576	
8247	0	32630	
8248	0	32720	
8249	0	32784	
8250	0	32768	
8251	0	32772	
8252	0	32757	
8253	0	32748	
8254	0	32756	
8255	0	32760	
8256	0	32796	
8257	0	32828	
8258	0	32864	
8259	0	32868	
8260	0	32912	
8261	0	32968	
8262	0	33068	
8263	0	33164	
8264	0	33224	
8265	0	33264	
8266	0	33296	
8267	0	33328	
8268	0	33372	
8269	0	33404	
8270	0	33448	
8271	0	33488	
8272	0	33512	
8273	0	33528	
8274	0	33530	
8275	0	33458	
8276	0	33416	
8277	0	33464	
8278	0	33474	
8279	0	33472	
8280	0	33440	
8281	0	33400	
8282	0	33328	
8283	0	33216	
8284	0	33112	
8285	0	33020	
8286	0	32924	
8287	0	32850	
8288	0	32792	
8289	0	32756	
8290	0	32728	
8291	0	32672	
8292	0	32584	
8293	0	32560	
8294	0	32580	
8295	0	32600	
8296	0	32580	
8297	0	32544	
8298	0	32456	
8299	0	32372	
8300	0	32324	
8301	0	32304	
8302	0	32280	
8303	0	32240	
8304	0	32220	
8305	0	32196	
8306	0	32148	
8307	0	32124	
8308	0	32108	
8309	0	32096	
8310	0	32076	
8311	0	32000	
8312	0	31972	
8313	0	31960	
8314	0	31944	
8315	0	31940	
8316	0	31944	
8317	0	31928	
8318	0	31924	
8319	0	31940	
8320	0	31972	
8321	0	31962	
8322	0	31952	
8323	0	31888	
8324	0	31824	
8325	0	31792	
8326	0	31802	
8327	0	31820	
8328	0	31808	
8329	0	31794	
8330	0	31808	
8331	0	31824	
8332	0	31808	
8333	0	31824	
8334	0	31848	
8335	0	31872	
8336	0	31852	
8337	0	31840	
8338	0	31848	
8339	0	31872	
8340	0	31888	
8341	0	31906	
8342	0	31980	
8343	0	32008	
8344	0	32024	
8345	0	32068	
8346	0	32096	
8347	0	32144	
8348	0	32168	
8349	0	32168	
8350	0	32180	
8351	0	32224	
8352	0	32264	
8353	0	32308	
8354	0	32328	
8355	0	32360	
8356	0	32406	
8357	0	32456	
8358	0	32476	
8359	0	32504	
8360	0	32548	
8361	0	32584	
8362	0	32628	
8363	0	32696	
8364	0	32748	
8365	0	32800	
8366	0	32840	
8367	0	32868	
8368	0	32916	
8369	0	32908	
8370	0	32848	
8371	0	32916	
8372	0	32992	
8373	0	33036	
8374	0	33076	
8375	0	33112	
8376	0	33168	
8377	0	33200	
8378	0	33246	
8379	0	33280	
8380	0	33272	
8381	0	33280	
8382	0	33300	
8383	0	33320	
8384	0	33312	
8385	0	33300	
8386	0	33312	
8387	0	33328	
8388	0	33312	
8389	0	33304	
8390	0	33300	
8391	0	33332	
8392	0	33368	
8393	0	33396	
8394	0	33416	
8395	0	33412	
8396	0	33412	
8397	0	33428	
8398	0	33442	
8399	0	33448	
8400	0	33464	
8401	0	33460	
8402	0	33492	
8403	0	33488	
8404	0	33488	
8405	0	33508	
8406	0	33496	
8407	0	33504	
8408	0	33512	
8409	0	33504	
8410	0	33492	
8411	0	33468	
8412	0	33470	
8413	0	33464	
8414	0	33436	
8415	0	33380	
8416	0	33368	
8417	0	33384	
8418	0	33388	
8419	0	33388	
8420	0	33396	
8421	0	33420	
8422	0	33424	
8423	0	33416	
8424	0	33416	
8425	0	33406	
8426	0	33392	
8427	0	33380	
8428	0	33364	
8429	0	33332	
8430	0	33324	
8431	0	33348	
8432	0	33340	
8433	0	33292	
8434	0	33272	
8435	0	33220	
8436	0	33184	
8437	0	33208	
8438	0	33248	
8439	0	33260	
8440	0	33248	
8441	0	33234	
8442	0	33216	
8443	0	33208	
8444	0	33200	
8445	0	33192	
8446	0	33184	
8447	0	33164	
8448	0	33156	
8449	0	33154	
8450	0	33188	
8451	0	33152	
8452	0	33100	
8453	0	33072	
8454	0	33056	
8455	0	33052	
8456	0	33020	
8457	0	33004	
8458	0	33004	
8459	0	33020	
8460	0	33024	
8461	0	33024	
8462	0	33008	
8463	0	32980	
8464	0	32960	
8465	0	32940	
8466	0	32916	
8467	0	32914	
8468	0	32916	
8469	0	32920	
8470	0	32928	
8471	0	32900	
8472	0	32856	
8473	0	32848	
8474	0	32876	
8475	0	32908	
8476	0	32928	
8477	0	32936	
8478	0	32940	
8479	0	32916	
8480	0	32932	
8481	0	32944	
8482	0	32920	
8483	0	32900	
8484	0	32880	
8485	0	32868	
8486	0	32864	
8487	0	32912	
8488	0	32996	
8489	0	33128	
8490	0	33312	
8491	0	33524	
8492	0	33740	
8493	0	33938	
8494	0	34092	
8495	0	34240	
8496	0	34400	
8497	0	34560	
8498	0	34632	
8499	0	34680	
8500	0	34680	
8501	0	34684	
8502	0	34668	
8503	0	34664	
8504	0	34626	
8505	0	34564	
8506	0	34552	
8507	0	34572	
8508	0	34592	
8509	0	34580	
8510	0	34560	
8511	0	34656	
8512	0	34864	
8513	0	35180	
8514	0	35520	
8515	0	35808	
8516	0	36144	
8517	0	36424	
8518	0	36592	
8519	0	36672	
8520	0	36700	
8521	0	36736	
8522	0	36768	
8523	0	36788	
8524	0	36824	
8525	0	36904	
8526	0	37024	
8527	0	37152	
8528	0	37264	
8529	0	37368	
8530	0	37388	
8531	0	37292	
8532	0	37120	
8533	0	36900	
8534	0	36724	
8535	0	36554	
8536	0	36488	
8537	0	36488	
8538	0	36484	
8539	0	36444	
8540	0	36372	
8541	0	36208	
8542	0	35992	
8543	0	35736	
8544	0	35496	
8545	0	35232	
8546	0	35004	
8547	0	34752	
8548	0	34528	
8549	0	34272	
8550	0	34064	
8551	0	33808	
8552	0	33524	
8553	0	33276	
8554	0	33040	
8555	0	32780	
8556	0	32556	
8557	0	32372	
8558	0	32248	
8559	0	32144	
8560	0	32032	
8561	0	31924	
8562	0	31800	
8563	0	31688	
8564	0	31580	
8565	0	31492	
8566	0	31416	
8567	0	31348	
8568	0	31290	
8569	0	31276	
8570	0	31280	
8571	0	31280	
8572	0	31280	
8573	0	31264	
8574	0	31260	
8575	0	31256	
8576	0	31264	
8577	0	31276	
8578	0	31276	
8579	0	31252	
8580	0	31268	
8581	0	31268	
8582	0	31260	
8583	0	31240	
8584	0	31228	
8585	0	31248	
8586	0	31240	
8587	0	31236	
8588	0	31212	
8589	0	31208	
8590	0	31192	
8591	0	31224	
8592	0	31232	
