# OpenSignals Text File Format. Version 1
# {"00:07:80:4B:15:F7": {"position": 0, "device": "biosignalsplux", "device name": "00:07:80:4B:15:F7", "device connection": "BTH00:07:80:4B:15:F7", "sampling rate": 1000, "resolution": [16], "firmware version": 775, "comments": "", "keywords": "", "mode": 0, "sync interval": 2, "date": "2023-4-12", "time": "15:40:27.158", "channels": [1], "sensor": ["ECG"], "label": ["CH1"], "column": ["nSeq", "DI", "CH1"], "special": [{"SpO2": [80, 40, 5, 4, 3, 3]}, {"SpO2": [80, 40, 5, 4, 3, 3]}, {"SpO2": [80, 40, 5, 4, 3, 3]}, {"SpO2": [80, 40, 5, 4, 3, 3]}, {"SpO2": [80, 40, 5, 4, 3, 3]}, {"SpO2": [80, 40, 5, 4, 3, 3]}, {"SpO2": [80, 40, 5, 4, 3, 3]}, {"SpO2": [80, 40, 5, 4, 3, 3]}], "digital IO": [0, 1], "sleeve color": ["green"], "convertedValues": 0}}
# EndOfHeader
0	0	31712	
1	0	31872	
2	0	32028	
3	0	32154	
4	0	32304	
5	0	32436	
6	0	32560	
7	0	32674	
8	0	32772	
9	0	32832	
10	0	32868	
11	0	32928	
12	0	32992	
13	0	33016	
14	0	33076	
15	0	33108	
16	0	33144	
17	0	33134	
18	0	33112	
19	0	33100	
20	0	33096	
21	0	33110	
22	0	33128	
23	0	33144	
24	0	33152	
25	0	33156	
26	0	33116	
27	0	33098	
28	0	33072	
29	0	33048	
30	0	32984	
31	0	32944	
32	0	32904	
33	0	32864	
34	0	32824	
35	0	32784	
36	0	32768	
37	0	32792	
38	0	32820	
39	0	32828	
40	0	32808	
41	0	32780	
42	0	32760	
43	0	32714	
44	0	32692	
45	0	32664	
46	0	32658	
47	0	32632	
48	0	32628	
49	0	32616	
50	0	32620	
51	0	32634	
52	0	32600	
53	0	32552	
54	0	32520	
55	0	32526	
56	0	32528	
57	0	32492	
58	0	32468	
59	0	32508	
60	0	32520	
61	0	32520	
62	0	32560	
63	0	32620	
64	0	32652	
65	0	32644	
66	0	32576	
67	0	32532	
68	0	32528	
69	0	32532	
70	0	32540	
71	0	32548	
72	0	32604	
73	0	32632	
74	0	32640	
75	0	32636	
76	0	32624	
77	0	32636	
78	0	32684	
79	0	32716	
80	0	32742	
81	0	32786	
82	0	32808	
83	0	32828	
84	0	32828	
85	0	32844	
86	0	32864	
87	0	32894	
88	0	32908	
89	0	32944	
90	0	33008	
91	0	33068	
92	0	33108	
93	0	33154	
94	0	33220	
95	0	33268	
96	0	33320	
97	0	33356	
98	0	33400	
99	0	33428	
100	0	33444	
101	0	33466	
102	0	33520	
103	0	33568	
104	0	33596	
105	0	33664	
106	0	33696	
107	0	33708	
108	0	33714	
109	0	33744	
110	0	33796	
111	0	33856	
112	0	33884	
113	0	33928	
114	0	33976	
115	0	34000	
116	0	33984	
117	0	33976	
118	0	34002	
119	0	34016	
120	0	34020	
121	0	34016	
122	0	33992	
123	0	34016	
124	0	34056	
125	0	34092	
126	0	34104	
127	0	34112	
128	0	34112	
129	0	34112	
130	0	34128	
131	0	34136	
132	0	34164	
133	0	34164	
134	0	34152	
135	0	34136	
136	0	34138	
137	0	34144	
138	0	34144	
139	0	34148	
140	0	34164	
141	0	34164	
142	0	34172	
143	0	34164	
144	0	34172	
145	0	34160	
146	0	34160	
147	0	34144	
148	0	34114	
149	0	34084	
150	0	34072	
151	0	34032	
152	0	33992	
153	0	33984	
154	0	33984	
155	0	34010	
156	0	34016	
157	0	33984	
158	0	33952	
159	0	33920	
160	0	33880	
161	0	33888	
162	0	33908	
163	0	33908	
164	0	33928	
165	0	33964	
166	0	33952	
167	0	33964	
168	0	33944	
169	0	33928	
170	0	33924	
171	0	33912	
172	0	33928	
173	0	33924	
174	0	33888	
175	0	33860	
176	0	33852	
177	0	33860	
178	0	33856	
179	0	33824	
180	0	33784	
181	0	33772	
182	0	33764	
183	0	33760	
184	0	33748	
185	0	33720	
186	0	33704	
187	0	33712	
188	0	33712	
189	0	33712	
190	0	33692	
191	0	33660	
192	0	33644	
193	0	33644	
194	0	33576	
195	0	33536	
196	0	33488	
197	0	33466	
198	0	33460	
199	0	33466	
200	0	33464	
201	0	33432	
202	0	33408	
203	0	33384	
204	0	33390	
205	0	33376	
206	0	33356	
207	0	33452	
208	0	33640	
209	0	33894	
210	0	34160	
211	0	34386	
212	0	34580	
213	0	34744	
214	0	34896	
215	0	35060	
216	0	35188	
217	0	35272	
218	0	35348	
219	0	35424	
220	0	35448	
221	0	35472	
222	0	35446	
223	0	35412	
224	0	35412	
225	0	35448	
226	0	35440	
227	0	35436	
228	0	35400	
229	0	35344	
230	0	35392	
231	0	35564	
232	0	35872	
233	0	36228	
234	0	36544	
235	0	36848	
236	0	37124	
237	0	37320	
238	0	37432	
239	0	37472	
240	0	37520	
241	0	37540	
242	0	37556	
243	0	37592	
244	0	37592	
245	0	37644	
246	0	37708	
247	0	37864	
248	0	38022	
249	0	38146	
250	0	38128	
251	0	38012	
252	0	37840	
253	0	37608	
254	0	37384	
255	0	37224	
256	0	37160	
257	0	37160	
258	0	37112	
259	0	37026	
260	0	36944	
261	0	36804	
262	0	36592	
263	0	36328	
264	0	36064	
265	0	35816	
266	0	35540	
267	0	35280	
268	0	34986	
269	0	34672	
270	0	34424	
271	0	34168	
272	0	33858	
273	0	33536	
274	0	33224	
275	0	32940	
276	0	32724	
277	0	32548	
278	0	32440	
279	0	32312	
280	0	32152	
281	0	31992	
282	0	31848	
283	0	31760	
284	0	31712	
285	0	31626	
286	0	31528	
287	0	31472	
288	0	31420	
289	0	31396	
290	0	31384	
291	0	31390	
292	0	31392	
293	0	31388	
294	0	31392	
295	0	31348	
296	0	31296	
297	0	31280	
298	0	31280	
299	0	31296	
300	0	31296	
301	0	31312	
302	0	31280	
303	0	31312	
304	0	31348	
305	0	31364	
306	0	31376	
307	0	31384	
308	0	31362	
309	0	31364	
310	0	31392	
311	0	31412	
312	0	31428	
313	0	31428	
314	0	31416	
315	0	31376	
316	0	31300	
317	0	31208	
318	0	31098	
319	0	30952	
320	0	30796	
321	0	30578	
322	0	30368	
323	0	30152	
324	0	29920	
325	0	29696	
326	0	29444	
327	0	29164	
328	0	28880	
329	0	28672	
330	0	28556	
331	0	28472	
332	0	28456	
333	0	28572	
334	0	28868	
335	0	29416	
336	0	30184	
337	0	31120	
338	0	32392	
339	0	34076	
340	0	36104	
341	0	38660	
342	0	41524	
343	0	44724	
344	0	48104	
345	0	51720	
346	0	55596	
347	0	59640	
348	0	63216	
349	0	65268	
350	0	65535	
351	0	65535	
352	0	65535	
353	0	65535	
354	0	65535	
355	0	65535	
356	0	65535	
357	0	65535	
358	0	65535	
359	0	65535	
360	0	65535	
361	0	65535	
362	0	65535	
363	0	65535	
364	0	65535	
365	0	65535	
366	0	65535	
367	0	65535	
368	0	65452	
369	0	65336	
370	0	65208	
371	0	65080	
372	0	64960	
373	0	64836	
374	0	61736	
375	0	56484	
376	0	51360	
377	0	46332	
378	0	41896	
379	0	38144	
380	0	34968	
381	0	32336	
382	0	30356	
383	0	29036	
384	0	28160	
385	0	27512	
386	0	26976	
387	0	26508	
388	0	26084	
389	0	25624	
390	0	25190	
391	0	24776	
392	0	24424	
393	0	24130	
394	0	23890	
395	0	23674	
396	0	23428	
397	0	23204	
398	0	22996	
399	0	22816	
400	0	22668	
401	0	22528	
402	0	22396	
403	0	22288	
404	0	22180	
405	0	22060	
406	0	21962	
407	0	21876	
408	0	21812	
409	0	21768	
410	0	21756	
411	0	21744	
412	0	21744	
413	0	21740	
414	0	21748	
415	0	21768	
416	0	21792	
417	0	21840	
418	0	21864	
419	0	21916	
420	0	21998	
421	0	22038	
422	0	22064	
423	0	22128	
424	0	22208	
425	0	22272	
426	0	22356	
427	0	22440	
428	0	22488	
429	0	22560	
430	0	22660	
431	0	22764	
432	0	22868	
433	0	22956	
434	0	23074	
435	0	23196	
436	0	23286	
437	0	23352	
438	0	23448	
439	0	23556	
440	0	23648	
441	0	23728	
442	0	23824	
443	0	23932	
444	0	24020	
445	0	24116	
446	0	24200	
447	0	24280	
448	0	24368	
449	0	24476	
450	0	24552	
451	0	24648	
452	0	24736	
453	0	24826	
454	0	24900	
455	0	24980	
456	0	25056	
457	0	25148	
458	0	25244	
459	0	25280	
460	0	25326	
461	0	25384	
462	0	25440	
463	0	25522	
464	0	25580	
465	0	25664	
466	0	25748	
467	0	25816	
468	0	25886	
469	0	25992	
470	0	26084	
471	0	26120	
472	0	26160	
473	0	26208	
474	0	26304	
475	0	26396	
476	0	26472	
477	0	26562	
478	0	26640	
479	0	26714	
480	0	26788	
481	0	26882	
482	0	26968	
483	0	27032	
484	0	27088	
485	0	27194	
486	0	27280	
487	0	27360	
488	0	27484	
489	0	27540	
490	0	27560	
491	0	27612	
492	0	27696	
493	0	27778	
494	0	27872	
495	0	27956	
496	0	28028	
497	0	28108	
498	0	28164	
499	0	28228	
500	0	28324	
501	0	28392	
502	0	28448	
503	0	28520	
504	0	28584	
505	0	28664	
506	0	28740	
507	0	28816	
508	0	28908	
509	0	28954	
510	0	29010	
511	0	29104	
512	0	29184	
513	0	29232	
514	0	29304	
515	0	29376	
516	0	29436	
517	0	29508	
518	0	29580	
519	0	29656	
520	0	29728	
521	0	29796	
522	0	29848	
523	0	29920	
524	0	29992	
525	0	30056	
526	0	30112	
527	0	30168	
528	0	30234	
529	0	30272	
530	0	30328	
531	0	30408	
532	0	30468	
533	0	30528	
534	0	30578	
535	0	30624	
536	0	30660	
537	0	30736	
538	0	30784	
539	0	30796	
540	0	30824	
541	0	30848	
542	0	30872	
543	0	30904	
544	0	30946	
545	0	30952	
546	0	30904	
547	0	30960	
548	0	31040	
549	0	31072	
550	0	31074	
551	0	31088	
552	0	31092	
553	0	31122	
554	0	31184	
555	0	31236	
556	0	31320	
557	0	31392	
558	0	31488	
559	0	31600	
560	0	31704	
561	0	31820	
562	0	31948	
563	0	32064	
564	0	32192	
565	0	32324	
566	0	32456	
567	0	32564	
568	0	32640	
569	0	32736	
570	0	32850	
571	0	32972	
572	0	33124	
573	0	33244	
574	0	33328	
575	0	33404	
576	0	33480	
577	0	33560	
578	0	33596	
579	0	33624	
580	0	33656	
581	0	33664	
582	0	33660	
583	0	33676	
584	0	33672	
585	0	33680	
586	0	33716	
587	0	33744	
588	0	33712	
589	0	33612	
590	0	33538	
591	0	33504	
592	0	33472	
593	0	33476	
594	0	33504	
595	0	33492	
596	0	33460	
597	0	33420	
598	0	33392	
599	0	33400	
600	0	33400	
601	0	33380	
602	0	33372	
603	0	33386	
604	0	33396	
605	0	33408	
606	0	33416	
607	0	33404	
608	0	33392	
609	0	33360	
610	0	33332	
611	0	33304	
612	0	33288	
613	0	33320	
614	0	33336	
615	0	33332	
616	0	33344	
617	0	33376	
618	0	33420	
619	0	33468	
620	0	33492	
621	0	33500	
622	0	33448	
623	0	33424	
624	0	33386	
625	0	33356	
626	0	33368	
627	0	33332	
628	0	33276	
629	0	33256	
630	0	33248	
631	0	33232	
632	0	33204	
633	0	33168	
634	0	33162	
635	0	33196	
636	0	33264	
637	0	33296	
638	0	33278	
639	0	33286	
640	0	33304	
641	0	33344	
642	0	33396	
643	0	33468	
644	0	33546	
645	0	33576	
646	0	33592	
647	0	33624	
648	0	33668	
649	0	33708	
650	0	33744	
651	0	33760	
652	0	33804	
653	0	33856	
654	0	33924	
655	0	33984	
656	0	34028	
657	0	34068	
658	0	34136	
659	0	34200	
660	0	34260	
661	0	34276	
662	0	34272	
663	0	34304	
664	0	34316	
665	0	34380	
666	0	34416	
667	0	34456	
668	0	34496	
669	0	34500	
670	0	34522	
671	0	34524	
672	0	34556	
673	0	34568	
674	0	34604	
675	0	34656	
676	0	34712	
677	0	34752	
678	0	34780	
679	0	34840	
680	0	34864	
681	0	34864	
682	0	34928	
683	0	34956	
684	0	34884	
685	0	34842	
686	0	34812	
687	0	34792	
688	0	34784	
689	0	34800	
690	0	34788	
691	0	34792	
692	0	34828	
693	0	34852	
694	0	34832	
695	0	34816	
696	0	34802	
697	0	34824	
698	0	34856	
699	0	34876	
700	0	34880	
701	0	34860	
702	0	34832	
703	0	34812	
704	0	34784	
705	0	34752	
706	0	34688	
707	0	34648	
708	0	34624	
709	0	34612	
710	0	34616	
711	0	34626	
712	0	34608	
713	0	34616	
714	0	34628	
715	0	34624	
716	0	34608	
717	0	34588	
718	0	34556	
719	0	34572	
720	0	34596	
721	0	34632	
722	0	34676	
723	0	34708	
724	0	34724	
725	0	34744	
726	0	34720	
727	0	34688	
728	0	34668	
729	0	34644	
730	0	34632	
731	0	34624	
732	0	34584	
733	0	34544	
734	0	34474	
735	0	34426	
736	0	34396	
737	0	34372	
738	0	34332	
739	0	34296	
740	0	34280	
741	0	34276	
742	0	34296	
743	0	34336	
744	0	34346	
745	0	34296	
746	0	34242	
747	0	34228	
748	0	34214	
749	0	34204	
750	0	34248	
751	0	34272	
752	0	34264	
753	0	34216	
754	0	34140	
755	0	34080	
756	0	34050	
757	0	34028	
758	0	34000	
759	0	33984	
760	0	33992	
761	0	33956	
762	0	33948	
763	0	33922	
764	0	33914	
765	0	33900	
766	0	33900	
767	0	33882	
768	0	33850	
769	0	33844	
770	0	33832	
771	0	33844	
772	0	33856	
773	0	33876	
774	0	33944	
775	0	34060	
776	0	34172	
777	0	34320	
778	0	34512	
779	0	34672	
780	0	34840	
781	0	34980	
782	0	35128	
783	0	35256	
784	0	35360	
785	0	35432	
786	0	35484	
787	0	35500	
788	0	35476	
789	0	35444	
790	0	35392	
791	0	35336	
792	0	35364	
793	0	35440	
794	0	35520	
795	0	35556	
796	0	35578	
797	0	35596	
798	0	35692	
799	0	35852	
800	0	36128	
801	0	36520	
802	0	36908	
803	0	37236	
804	0	37468	
805	0	37676	
806	0	37808	
807	0	37876	
808	0	37960	
809	0	38032	
810	0	38124	
811	0	38172	
812	0	38160	
813	0	38156	
814	0	38240	
815	0	38396	
816	0	38532	
817	0	38652	
818	0	38692	
819	0	38592	
820	0	38432	
821	0	38296	
822	0	38176	
823	0	38052	
824	0	37920	
825	0	37836	
826	0	37772	
827	0	37696	
828	0	37628	
829	0	37524	
830	0	37312	
831	0	37060	
832	0	36828	
833	0	36560	
834	0	36260	
835	0	35956	
836	0	35632	
837	0	35320	
838	0	34984	
839	0	34652	
840	0	34354	
841	0	34052	
842	0	33744	
843	0	33404	
844	0	33140	
845	0	32938	
846	0	32804	
847	0	32656	
848	0	32508	
849	0	32368	
850	0	32224	
851	0	32128	
852	0	32016	
853	0	31956	
854	0	31888	
855	0	31860	
856	0	31824	
857	0	31788	
858	0	31788	
859	0	31760	
860	0	31752	
861	0	31684	
862	0	31652	
863	0	31648	
864	0	31672	
865	0	31700	
866	0	31712	
867	0	31736	
868	0	31800	
869	0	31812	
870	0	31828	
871	0	31828	
872	0	31824	
873	0	31772	
874	0	31736	
875	0	31756	
876	0	31760	
877	0	31736	
878	0	31748	
879	0	31736	
880	0	31752	
881	0	31780	
882	0	31808	
883	0	31808	
884	0	31784	
885	0	31696	
886	0	31604	
887	0	31444	
888	0	31232	
889	0	30960	
890	0	30656	
891	0	30360	
892	0	30112	
893	0	29920	
894	0	29704	
895	0	29432	
896	0	29116	
897	0	28888	
898	0	28736	
899	0	28674	
900	0	28692	
901	0	28828	
902	0	29196	
903	0	29852	
904	0	30712	
905	0	31800	
906	0	33152	
907	0	34900	
908	0	36912	
909	0	39432	
910	0	42328	
911	0	45600	
912	0	49048	
913	0	52724	
914	0	56632	
915	0	60676	
916	0	63304	
917	0	64684	
918	0	65400	
919	0	65535	
920	0	65535	
921	0	65535	
922	0	65535	
923	0	65535	
924	0	65535	
925	0	65535	
926	0	65408	
927	0	65264	
928	0	65156	
929	0	65044	
930	0	64916	
931	0	64788	
932	0	64668	
933	0	64556	
934	0	64428	
935	0	64292	
936	0	64176	
937	0	64064	
938	0	63948	
939	0	63832	
940	0	63712	
941	0	63600	
942	0	60952	
943	0	55604	
944	0	50368	
945	0	45548	
946	0	41344	
947	0	37808	
948	0	34864	
949	0	32456	
950	0	30612	
951	0	29280	
952	0	28344	
953	0	27708	
954	0	27184	
955	0	26720	
956	0	26216	
957	0	25728	
958	0	25296	
959	0	24878	
960	0	24504	
961	0	24158	
962	0	23888	
963	0	23616	
964	0	23369	
965	0	23100	
966	0	22880	
967	0	22692	
968	0	22536	
969	0	22400	
970	0	22288	
971	0	22188	
972	0	22098	
973	0	22012	
974	0	21948	
975	0	21952	
976	0	22016	
977	0	22048	
978	0	22020	
979	0	21916	
980	0	21840	
981	0	21784	
982	0	21740	
983	0	21728	
984	0	21772	
985	0	21852	
986	0	21922	
987	0	21972	
988	0	21976	
989	0	21996	
990	0	22028	
991	0	22092	
992	0	22188	
993	0	22320	
994	0	22428	
995	0	22514	
996	0	22592	
997	0	22696	
998	0	22796	
999	0	22876	
1000	0	22948	
1001	0	23038	
1002	0	23122	
1003	0	23240	
1004	0	23360	
1005	0	23452	
1006	0	23580	
1007	0	23724	
1008	0	23842	
1009	0	23920	
1010	0	23940	
1011	0	23960	
1012	0	24024	
1013	0	24146	
1014	0	24256	
1015	0	24292	
1016	0	24360	
1017	0	24432	
1018	0	24452	
1019	0	24456	
1020	0	24488	
1021	0	24504	
1022	0	24532	
1023	0	24616	
1024	0	24744	
1025	0	24896	
1026	0	25064	
1027	0	25212	
1028	0	25320	
1029	0	25428	
1030	0	25516	
1031	0	25612	
1032	0	25680	
1033	0	25708	
1034	0	25768	
1035	0	25848	
1036	0	25948	
1037	0	26028	
1038	0	26090	
1039	0	26152	
1040	0	26240	
1041	0	26356	
1042	0	26464	
1043	0	26544	
1044	0	26666	
1045	0	26740	
1046	0	26768	
1047	0	26842	
1048	0	26928	
1049	0	27000	
1050	0	27012	
1051	0	27040	
1052	0	27100	
1053	0	27176	
1054	0	27248	
1055	0	27336	
1056	0	27436	
1057	0	27568	
1058	0	27712	
1059	0	27808	
1060	0	27872	
1061	0	27896	
1062	0	27920	
1063	0	27948	
1064	0	28014	
1065	0	28104	
1066	0	28232	
1067	0	28376	
1068	0	28454	
1069	0	28454	
1070	0	28484	
1071	0	28512	
1072	0	28596	
1073	0	28656	
1074	0	28728	
1075	0	28816	
1076	0	28874	
1077	0	28924	
1078	0	28912	
1079	0	28960	
1080	0	29050	
1081	0	29092	
1082	0	29116	
1083	0	29192	
1084	0	29304	
1085	0	29456	
1086	0	29572	
1087	0	29668	
1088	0	29760	
1089	0	29888	
1090	0	30000	
1091	0	30088	
1092	0	30180	
1093	0	30272	
1094	0	30376	
1095	0	30456	
1096	0	30508	
1097	0	30532	
1098	0	30532	
1099	0	30524	
1100	0	30512	
1101	0	30536	
1102	0	30576	
1103	0	30576	
1104	0	30632	
1105	0	30704	
1106	0	30776	
1107	0	30776	
1108	0	30808	
1109	0	30836	
1110	0	30850	
1111	0	30860	
1112	0	30908	
1113	0	30960	
1114	0	31034	
1115	0	31040	
1116	0	31040	
1117	0	31088	
1118	0	31128	
1119	0	31130	
1120	0	31124	
1121	0	31170	
1122	0	31244	
1123	0	31328	
1124	0	31416	
1125	0	31528	
1126	0	31668	
1127	0	31800	
1128	0	31894	
1129	0	31982	
1130	0	32076	
1131	0	32156	
1132	0	32224	
1133	0	32284	
1134	0	32336	
1135	0	32388	
1136	0	32456	
1137	0	32544	
1138	0	32672	
1139	0	32808	
1140	0	32932	
1141	0	33062	
1142	0	33188	
1143	0	33300	
1144	0	33408	
1145	0	33510	
1146	0	33596	
1147	0	33632	
1148	0	33664	
1149	0	33704	
1150	0	33698	
1151	0	33704	
1152	0	33724	
1153	0	33724	
1154	0	33684	
1155	0	33612	
1156	0	33568	
1157	0	33460	
1158	0	33296	
1159	0	33164	
1160	0	33048	
1161	0	33000	
1162	0	33064	
1163	0	33152	
1164	0	33188	
1165	0	33188	
1166	0	33212	
1167	0	33232	
1168	0	33224	
1169	0	33232	
1170	0	33228	
1171	0	33260	
1172	0	33320	
1173	0	33356	
1174	0	33408	
1175	0	33440	
1176	0	33472	
1177	0	33516	
1178	0	33500	
1179	0	33412	
1180	0	33292	
1181	0	33220	
1182	0	33168	
1183	0	33112	
1184	0	33040	
1185	0	32956	
1186	0	32896	
1187	0	32832	
1188	0	32712	
1189	0	32588	
1190	0	32508	
1191	0	32488	
1192	0	32572	
1193	0	32704	
1194	0	32832	
1195	0	32928	
1196	0	32984	
1197	0	33048	
1198	0	33128	
1199	0	33208	
1200	0	33192	
1201	0	33172	
1202	0	33164	
1203	0	33120	
1204	0	33060	
1205	0	33000	
1206	0	32976	
1207	0	33032	
1208	0	33066	
1209	0	33096	
1210	0	33092	
1211	0	33116	
1212	0	33168	
1213	0	33232	
1214	0	33208	
1215	0	33152	
1216	0	33096	
1217	0	33076	
1218	0	33052	
1219	0	33048	
1220	0	33072	
1221	0	33132	
1222	0	33240	
1223	0	33352	
1224	0	33444	
1225	0	33520	
1226	0	33600	
1227	0	33712	
1228	0	33832	
1229	0	33932	
1230	0	34012	
1231	0	34044	
1232	0	34076	
1233	0	34084	
1234	0	34104	
1235	0	34116	
1236	0	34108	
1237	0	34056	
1238	0	34016	
1239	0	34012	
1240	0	33972	
1241	0	33948	
1242	0	33908	
1243	0	33872	
1244	0	33828	
1245	0	33780	
1246	0	33744	
1247	0	33764	
1248	0	33832	
1249	0	33980	
1250	0	34128	
1251	0	34236	
1252	0	34266	
1253	0	34256	
1254	0	34192	
1255	0	34128	
1256	0	34052	
1257	0	33960	
1258	0	33900	
1259	0	33864	
1260	0	33896	
1261	0	33928	
1262	0	33960	
1263	0	33940	
1264	0	33956	
1265	0	33956	
1266	0	33984	
1267	0	34032	
1268	0	34076	
1269	0	34128	
1270	0	34160	
1271	0	34206	
1272	0	34240	
1273	0	34236	
1274	0	34240	
1275	0	34264	
1276	0	34288	
1277	0	34304	
1278	0	34368	
1279	0	34384	
1280	0	34328	
1281	0	34228	
1282	0	34220	
1283	0	34208	
1284	0	34196	
1285	0	34224	
1286	0	34244	
1287	0	34240	
1288	0	34208	
1289	0	34224	
1290	0	34272	
1291	0	34312	
1292	0	34348	
1293	0	34416	
1294	0	34504	
1295	0	34570	
1296	0	34576	
1297	0	34584	
1298	0	34584	
1299	0	34544	
1300	0	34452	
1301	0	34380	
1302	0	34304	
1303	0	34216	
1304	0	34152	
1305	0	34088	
1306	0	34080	
1307	0	34100	
1308	0	34084	
1309	0	34016	
1310	0	33964	
1311	0	33922	
1312	0	33888	
1313	0	33866	
1314	0	33856	
1315	0	33840	
1316	0	33780	
1317	0	33752	
1318	0	33692	
1319	0	33660	
1320	0	33644	
1321	0	33524	
1322	0	33376	
1323	0	33226	
1324	0	33116	
1325	0	33108	
1326	0	33152	
1327	0	33242	
1328	0	33376	
1329	0	33524	
1330	0	33720	
1331	0	33952	
1332	0	34132	
1333	0	34304	
1334	0	34420	
1335	0	34584	
1336	0	34744	
1337	0	34856	
1338	0	34904	
1339	0	34920	
1340	0	34904	
1341	0	34880	
1342	0	34896	
1343	0	34916	
1344	0	34952	
1345	0	34988	
1346	0	35056	
1347	0	35104	
1348	0	35172	
1349	0	35264	
1350	0	35338	
1351	0	35412	
1352	0	35480	
1353	0	35572	
1354	0	35632	
1355	0	35660	
1356	0	35656	
1357	0	35688	
1358	0	35900	
1359	0	36208	
1360	0	36588	
1361	0	36904	
1362	0	37128	
1363	0	37312	
1364	0	37460	
1365	0	37552	
1366	0	37632	
1367	0	37668	
1368	0	37744	
1369	0	37820	
1370	0	37876	
1371	0	37884	
1372	0	37872	
1373	0	37876	
1374	0	37872	
1375	0	37884	
1376	0	37904	
1377	0	37876	
1378	0	37776	
1379	0	37652	
1380	0	37536	
1381	0	37452	
1382	0	37360	
1383	0	37256	
1384	0	37152	
1385	0	37104	
1386	0	37104	
1387	0	37048	
1388	0	36884	
1389	0	36682	
1390	0	36452	
1391	0	36236	
1392	0	36068	
1393	0	35896	
1394	0	35588	
1395	0	35240	
1396	0	34900	
1397	0	34676	
1398	0	34408	
1399	0	34076	
1400	0	33664	
1401	0	33304	
1402	0	33020	
1403	0	32800	
1404	0	32640	
1405	0	32546	
1406	0	32484	
1407	0	32428	
1408	0	32368	
1409	0	32296	
1410	0	32244	
1411	0	32212	
1412	0	32148	
1413	0	32040	
1414	0	31868	
1415	0	31724	
1416	0	31604	
1417	0	31500	
1418	0	31404	
1419	0	31352	
1420	0	31320	
1421	0	31312	
1422	0	31344	
1423	0	31412	
1424	0	31504	
1425	0	31580	
1426	0	31632	
1427	0	31680	
1428	0	31712	
1429	0	31700	
1430	0	31652	
1431	0	31592	
1432	0	31512	
1433	0	31448	
1434	0	31412	
1435	0	31408	
1436	0	31436	
1437	0	31504	
1438	0	31548	
1439	0	31568	
1440	0	31520	
1441	0	31512	
1442	0	31544	
1443	0	31568	
1444	0	31520	
1445	0	31408	
1446	0	31176	
1447	0	30988	
1448	0	30868	
1449	0	30728	
1450	0	30556	
1451	0	30392	
1452	0	30194	
1453	0	29920	
1454	0	29648	
1455	0	29388	
1456	0	29176	
1457	0	29066	
1458	0	29112	
1459	0	29310	
1460	0	29672	
1461	0	30368	
1462	0	31266	
1463	0	32332	
1464	0	33680	
1465	0	35170	
1466	0	36952	
1467	0	39264	
1468	0	42068	
1469	0	45292	
1470	0	48812	
1471	0	52704	
1472	0	57024	
1473	0	60896	
1474	0	63076	
1475	0	64204	
1476	0	64768	
1477	0	65016	
1478	0	65096	
1479	0	65088	
1480	0	65032	
1481	0	64944	
1482	0	64832	
1483	0	64728	
1484	0	64612	
1485	0	64496	
1486	0	64372	
1487	0	64252	
1488	0	64140	
1489	0	64020	
1490	0	63900	
1491	0	63784	
1492	0	63660	
1493	0	63544	
1494	0	63440	
1495	0	63324	
1496	0	63192	
1497	0	63080	
1498	0	62972	
1499	0	62844	
1500	0	60404	
1501	0	54560	
1502	0	48960	
1503	0	43936	
1504	0	39796	
1505	0	36492	
1506	0	33924	
1507	0	31996	
1508	0	30552	
1509	0	29332	
1510	0	28248	
1511	0	27384	
1512	0	26780	
1513	0	26276	
1514	0	25784	
1515	0	25368	
1516	0	25016	
1517	0	24676	
1518	0	24304	
1519	0	23952	
1520	0	23600	
1521	0	23176	
1522	0	22708	
1523	0	22338	
1524	0	22128	
1525	0	22020	
1526	0	22056	
1527	0	22124	
1528	0	22124	
1529	0	22104	
1530	0	21976	
1531	0	21828	
1532	0	21653	
1533	0	21496	
1534	0	21352	
1535	0	21264	
1536	0	21252	
1537	0	21262	
1538	0	21320	
1539	0	21376	
1540	0	21424	
1541	0	21496	
1542	0	21578	
1543	0	21708	
1544	0	21828	
1545	0	21845	
1546	0	21890	
1547	0	21904	
1548	0	21876	
1549	0	21828	
1550	0	21776	
1551	0	21684	
1552	0	21608	
1553	0	21644	
1554	0	21740	
1555	0	21904	
1556	0	22132	
1557	0	22354	
1558	0	22496	
1559	0	22644	
1560	0	22744	
1561	0	22888	
1562	0	23054	
1563	0	23116	
1564	0	23120	
1565	0	23112	
1566	0	23060	
1567	0	23016	
1568	0	23028	
1569	0	23116	
1570	0	23268	
1571	0	23396	
1572	0	23480	
1573	0	23620	
1574	0	23822	
1575	0	23986	
1576	0	24080	
1577	0	24212	
1578	0	24240	
1579	0	24144	
1580	0	24168	
1581	0	24276	
1582	0	24396	
1583	0	24456	
1584	0	24516	
1585	0	24628	
1586	0	24764	
1587	0	24988	
1588	0	25240	
1589	0	25376	
1590	0	25496	
1591	0	25560	
1592	0	25614	
1593	0	25632	
1594	0	25636	
1595	0	25656	
1596	0	25716	
1597	0	25836	
1598	0	25990	
1599	0	26056	
1600	0	26080	
1601	0	26116	
1602	0	26188	
1603	0	26324	
1604	0	26448	
1605	0	26490	
1606	0	26400	
1607	0	26316	
1608	0	26360	
1609	0	26524	
1610	0	26700	
1611	0	26848	
1612	0	26952	
1613	0	27028	
1614	0	27152	
1615	0	27300	
1616	0	27456	
1617	0	27610	
1618	0	27760	
1619	0	27932	
1620	0	28072	
1621	0	28184	
1622	0	28272	
1623	0	28274	
1624	0	28228	
1625	0	28194	
1626	0	28184	
1627	0	28220	
1628	0	28308	
1629	0	28392	
1630	0	28480	
1631	0	28514	
1632	0	28620	
1633	0	28780	
1634	0	28936	
1635	0	29020	
1636	0	29124	
1637	0	29196	
1638	0	29200	
1639	0	29140	
1640	0	29060	
1641	0	28992	
1642	0	28952	
1643	0	28940	
1644	0	28980	
1645	0	29008	
1646	0	29160	
1647	0	29404	
1648	0	29660	
1649	0	29824	
1650	0	29792	
1651	0	29620	
1652	0	29496	
1653	0	29552	
1654	0	29700	
1655	0	29876	
1656	0	30064	
1657	0	30244	
1658	0	30368	
1659	0	30432	
1660	0	30558	
1661	0	30712	
1662	0	30890	
1663	0	30992	
1664	0	30968	
1665	0	30820	
1666	0	30700	
1667	0	30552	
1668	0	30432	
1669	0	30356	
1670	0	30268	
1671	0	30152	
1672	0	30096	
1673	0	30136	
1674	0	30252	
1675	0	30356	
1676	0	30452	
1677	0	30532	
1678	0	30548	
1679	0	30512	
1680	0	30544	
1681	0	30640	
1682	0	30808	
1683	0	31064	
1684	0	31328	
1685	0	31552	
1686	0	31752	
1687	0	31884	
1688	0	31932	
1689	0	32000	
1690	0	32118	
1691	0	32192	
1692	0	32264	
1693	0	32384	
1694	0	32440	
1695	0	32452	
1696	0	32416	
1697	0	32440	
1698	0	32504	
1699	0	32568	
1700	0	32620	
1701	0	32608	
1702	0	32600	
1703	0	32632	
1704	0	32704	
1705	0	32796	
1706	0	32836	
1707	0	32840	
1708	0	32832	
1709	0	32840	
1710	0	32876	
1711	0	32892	
1712	0	32880	
1713	0	32856	
1714	0	32844	
1715	0	32872	
1716	0	32836	
1717	0	32764	
1718	0	32704	
1719	0	32604	
1720	0	32484	
1721	0	32368	
1722	0	32336	
1723	0	32460	
1724	0	32660	
1725	0	32840	
1726	0	32882	
1727	0	32856	
1728	0	32772	
1729	0	32668	
1730	0	32580	
1731	0	32512	
1732	0	32472	
1733	0	32424	
1734	0	32312	
1735	0	32204	
1736	0	32160	
1737	0	32156	
1738	0	32212	
1739	0	32344	
1740	0	32492	
1741	0	32572	
1742	0	32640	
1743	0	32672	
1744	0	32704	
1745	0	32680	
1746	0	32648	
1747	0	32657	
1748	0	32714	
1749	0	32784	
1750	0	32796	
1751	0	32800	
1752	0	32768	
1753	0	32680	
1754	0	32492	
1755	0	32292	
1756	0	32204	
1757	0	32216	
1758	0	32288	
1759	0	32340	
1760	0	32436	
1761	0	32536	
1762	0	32564	
1763	0	32496	
1764	0	32352	
1765	0	32184	
1766	0	32088	
1767	0	32112	
1768	0	32176	
1769	0	32316	
1770	0	32420	
1771	0	32424	
1772	0	32380	
1773	0	32360	
1774	0	32392	
1775	0	32480	
1776	0	32604	
1777	0	32728	
1778	0	32832	
1779	0	32940	
1780	0	33040	
1781	0	33104	
1782	0	33124	
1783	0	33112	
1784	0	33140	
1785	0	33192	
1786	0	33240	
1787	0	33240	
1788	0	33220	
1789	0	33122	
1790	0	32976	
1791	0	32880	
1792	0	32864	
1793	0	32956	
1794	0	33088	
1795	0	33128	
1796	0	33140	
1797	0	33152	
1798	0	33176	
1799	0	33204	
1800	0	33242	
1801	0	33300	
1802	0	33434	
1803	0	33500	
1804	0	33528	
1805	0	33588	
1806	0	33728	
1807	0	33828	
1808	0	33836	
1809	0	33768	
1810	0	33680	
1811	0	33632	
1812	0	33688	
1813	0	33796	
1814	0	33920	
1815	0	34032	
1816	0	34112	
1817	0	34208	
1818	0	34272	
1819	0	34320	
1820	0	34344	
1821	0	34336	
1822	0	34304	
1823	0	34280	
1824	0	34288	
1825	0	34420	
1826	0	34368	
1827	0	34252	
1828	0	34176	
1829	0	34072	
1830	0	34016	
1831	0	33940	
1832	0	33872	
1833	0	33896	
1834	0	34024	
1835	0	34208	
1836	0	34268	
1837	0	34272	
1838	0	34264	
1839	0	34292	
1840	0	34308	
1841	0	34216	
1842	0	34164	
1843	0	34144	
1844	0	34080	
1845	0	33972	
1846	0	33860	
1847	0	33808	
1848	0	33756	
1849	0	33776	
1850	0	33836	
1851	0	33976	
1852	0	34224	
1853	0	34376	
1854	0	34460	
1855	0	34488	
1856	0	34448	
1857	0	34248	
1858	0	34032	
1859	0	33812	
1860	0	33660	
1861	0	33584	
1862	0	33624	
1863	0	33684	
1864	0	33720	
1865	0	33800	
1866	0	33868	
1867	0	33882	
1868	0	33904	
1869	0	33932	
1870	0	33904	
1871	0	33816	
1872	0	33740	
1873	0	33676	
1874	0	33680	
1875	0	33732	
1876	0	33892	
1877	0	34044	
1878	0	34196	
1879	0	34340	
1880	0	34464	
1881	0	34564	
1882	0	34664	
1883	0	34756	
1884	0	34872	
1885	0	34934	
1886	0	34980	
1887	0	35092	
1888	0	35196	
1889	0	35172	
1890	0	35056	
1891	0	34940	
1892	0	34872	
1893	0	34860	
1894	0	34944	
1895	0	35136	
1896	0	35292	
1897	0	35376	
1898	0	35460	
1899	0	35508	
1900	0	35584	
1901	0	35752	
1902	0	36008	
1903	0	36244	
1904	0	36338	
1905	0	36340	
1906	0	36352	
1907	0	36448	
1908	0	36616	
1909	0	36840	
1910	0	37104	
1911	0	37292	
1912	0	37400	
1913	0	37364	
1914	0	37256	
1915	0	37132	
1916	0	37104	
1917	0	37080	
1918	0	37042	
1919	0	37060	
1920	0	37144	
1921	0	37294	
1922	0	37408	
1923	0	37456	
1924	0	37440	
1925	0	37448	
1926	0	37432	
1927	0	37364	
1928	0	37244	
1929	0	37120	
1930	0	37008	
1931	0	36880	
1932	0	36720	
1933	0	36548	
1934	0	36400	
1935	0	36284	
1936	0	36084	
1937	0	35668	
1938	0	35172	
1939	0	34672	
1940	0	34232	
1941	0	33920	
1942	0	33748	
1943	0	33664	
1944	0	33632	
1945	0	33600	
1946	0	33456	
1947	0	33194	
1948	0	32892	
1949	0	32552	
1950	0	32176	
1951	0	31840	
1952	0	31656	
1953	0	31540	
1954	0	31476	
1955	0	31516	
1956	0	31624	
1957	0	31672	
1958	0	31556	
1959	0	31452	
1960	0	31412	
1961	0	31416	
1962	0	31472	
1963	0	31588	
1964	0	31720	
1965	0	31802	
1966	0	31820	
1967	0	31876	
1968	0	31872	
1969	0	31788	
1970	0	31726	
1971	0	31620	
1972	0	31520	
1973	0	31416	
1974	0	31288	
1975	0	31276	
1976	0	31356	
1977	0	31374	
1978	0	31304	
1979	0	31276	
1980	0	31296	
1981	0	31368	
1982	0	31428	
1983	0	31448	
1984	0	31404	
1985	0	31360	
1986	0	31274	
1987	0	31100	
1988	0	30916	
1989	0	30764	
1990	0	30504	
1991	0	30232	
1992	0	30020	
1993	0	29872	
1994	0	29694	
1995	0	29520	
1996	0	29338	
1997	0	29244	
1998	0	29220	
1999	0	29178	
2000	0	29106	
2001	0	29076	
2002	0	29128	
2003	0	29328	
2004	0	29696	
2005	0	30288	
2006	0	31140	
2007	0	32224	
2008	0	33600	
2009	0	35178	
2010	0	37080	
2011	0	39584	
2012	0	42568	
2013	0	45936	
2014	0	49592	
2015	0	53572	
2016	0	57836	
2017	0	61384	
2018	0	63336	
2019	0	64352	
2020	0	64864	
2021	0	65048	
2022	0	65128	
2023	0	65096	
2024	0	65030	
2025	0	64928	
2026	0	64816	
2027	0	64732	
2028	0	64600	
2029	0	64480	
2030	0	64360	
2031	0	64248	
2032	0	64132	
2033	0	64006	
2034	0	63888	
2035	0	63764	
2036	0	63640	
2037	0	63512	
2038	0	63396	
2039	0	63284	
2040	0	63164	
2041	0	63060	
2042	0	62936	
2043	0	62840	
2044	0	60560	
2045	0	54772	
2046	0	49132	
2047	0	44064	
2048	0	39930	
2049	0	36700	
2050	0	34270	
2051	0	32404	
2052	0	30884	
2053	0	29602	
2054	0	28468	
2055	0	27468	
2056	0	26612	
2057	0	25884	
2058	0	25240	
2059	0	24684	
2060	0	24176	
2061	0	23652	
2062	0	23248	
2063	0	22976	
2064	0	22808	
2065	0	22676	
2066	0	22548	
2067	0	22376	
2068	0	22292	
2069	0	22216	
2070	0	22116	
2071	0	21992	
2072	0	21882	
2073	0	21812	
2074	0	21720	
2075	0	21652	
2076	0	21620	
2077	0	21596	
2078	0	21530	
2079	0	21370	
2080	0	21196	
2081	0	21120	
2082	0	21092	
2083	0	21042	
2084	0	20992	
2085	0	20948	
2086	0	20940	
2087	0	21000	
2088	0	21092	
2089	0	21116	
2090	0	21088	
2091	0	21112	
2092	0	21164	
2093	0	21272	
2094	0	21356	
2095	0	21440	
2096	0	21602	
2097	0	21880	
2098	0	22112	
2099	0	22184	
2100	0	22152	
2101	0	22084	
2102	0	22096	
2103	0	22176	
2104	0	22276	
2105	0	22376	
2106	0	22524	
2107	0	22658	
2108	0	22770	
2109	0	22954	
2110	0	23174	
2111	0	23406	
2112	0	23656	
2113	0	23856	
2114	0	24028	
2115	0	24122	
2116	0	24124	
2117	0	23996	
2118	0	23808	
2119	0	23616	
2120	0	23578	
2121	0	23668	
2122	0	23788	
2123	0	24036	
2124	0	24360	
2125	0	24608	
2126	0	24724	
2127	0	24720	
2128	0	24722	
2129	0	24768	
2130	0	24840	
2131	0	24948	
2132	0	25004	
2133	0	24988	
2134	0	24972	
2135	0	25008	
2136	0	25148	
2137	0	25300	
2138	0	25460	
2139	0	25640	
2140	0	25804	
2141	0	25970	
2142	0	26110	
2143	0	26184	
2144	0	26146	
2145	0	26093	
2146	0	26005	
2147	0	25916	
2148	0	25832	
2149	0	25800	
2150	0	25884	
2151	0	26104	
2152	0	26408	
2153	0	26620	
2154	0	26728	
2155	0	26788	
2156	0	26824	
2157	0	26932	
2158	0	27072	
2159	0	27200	
2160	0	27332	
2161	0	27464	
2162	0	27576	
2163	0	27648	
2164	0	27608	
2165	0	27608	
2166	0	27698	
2167	0	27760	
2168	0	27820	
2169	0	27956	
2170	0	28136	
2171	0	28312	
2172	0	28492	
2173	0	28608	
2174	0	28712	
2175	0	28796	
2176	0	28828	
2177	0	28872	
2178	0	28968	
2179	0	29030	
2180	0	29112	
2181	0	29208	
2182	0	29268	
2183	0	29316	
2184	0	29216	
2185	0	28876	
2186	0	28632	
2187	0	28586	
2188	0	28624	
2189	0	28712	
2190	0	28876	
2191	0	29172	
2192	0	29548	
2193	0	29912	
2194	0	30290	
2195	0	30536	
2196	0	30572	
2197	0	30468	
2198	0	30332	
2199	0	30196	
2200	0	30048	
2201	0	29888	
2202	0	29794	
2203	0	29760	
2204	0	29796	
2205	0	29896	
2206	0	30088	
2207	0	30288	
2208	0	30500	
2209	0	30712	
2210	0	30777	
2211	0	30672	
2212	0	30504	
2213	0	30304	
2214	0	30180	
2215	0	30120	
2216	0	30100	
2217	0	30160	
2218	0	30240	
2219	0	30316	
2220	0	30412	
2221	0	30524	
2222	0	30620	
2223	0	30692	
2224	0	30664	
2225	0	30600	
2226	0	30578	
2227	0	30614	
2228	0	30632	
2229	0	30700	
2230	0	30884	
2231	0	31172	
2232	0	31428	
2233	0	31588	
2234	0	31728	
2235	0	31864	
2236	0	32004	
2237	0	32122	
2238	0	32200	
2239	0	32272	
2240	0	32408	
2241	0	32586	
2242	0	32688	
2243	0	32730	
2244	0	32760	
2245	0	32776	
2246	0	32752	
2247	0	32712	
2248	0	32712	
2249	0	32672	
2250	0	32628	
2251	0	32540	
2252	0	32504	
2253	0	32584	
2254	0	32672	
2255	0	32708	
2256	0	32672	
2257	0	32532	
2258	0	32424	
2259	0	32388	
2260	0	32336	
2261	0	32212	
2262	0	32072	
2263	0	32000	
2264	0	32016	
2265	0	32144	
2266	0	32388	
2267	0	32576	
2268	0	32720	
2269	0	32916	
2270	0	33048	
2271	0	33004	
2272	0	32792	
2273	0	32524	
2274	0	32280	
2275	0	32076	
2276	0	31984	
2277	0	31972	
2278	0	31984	
2279	0	32064	
2280	0	32228	
2281	0	32368	
2282	0	32420	
2283	0	32416	
2284	0	32400	
2285	0	32368	
2286	0	32300	
2287	0	32184	
2288	0	32096	
2289	0	32032	
2290	0	31980	
2291	0	31896	
2292	0	31856	
2293	0	31868	
2294	0	31972	
2295	0	32112	
2296	0	32308	
2297	0	32416	
2298	0	32468	
2299	0	32504	
2300	0	32516	
2301	0	32560	
2302	0	32562	
2303	0	32528	
2304	0	32468	
2305	0	32338	
2306	0	32268	
2307	0	32328	
2308	0	32448	
2309	0	32560	
2310	0	32592	
2311	0	32608	
2312	0	32640	
2313	0	32672	
2314	0	32656	
2315	0	32544	
2316	0	32360	
2317	0	32160	
2318	0	31976	
2319	0	31928	
2320	0	31956	
2321	0	32008	
2322	0	32036	
2323	0	32054	
2324	0	32076	
2325	0	32180	
2326	0	32308	
2327	0	32426	
2328	0	32464	
2329	0	32516	
2330	0	32640	
2331	0	32824	
2332	0	33028	
2333	0	33192	
2334	0	33232	
2335	0	33260	
2336	0	33296	
2337	0	33320	
2338	0	33368	
2339	0	33404	
2340	0	33504	
2341	0	33610	
2342	0	33672	
2343	0	33712	
2344	0	33744	
2345	0	33824	
2346	0	33848	
2347	0	33868	
2348	0	33888	
2349	0	33884	
2350	0	33800	
2351	0	33744	
2352	0	33696	
2353	0	33652	
2354	0	33666	
2355	0	33704	
2356	0	33696	
2357	0	33736	
2358	0	33824	
2359	0	33872	
2360	0	33872	
2361	0	33836	
2362	0	33712	
2363	0	33652	
2364	0	33666	
2365	0	33768	
2366	0	33892	
2367	0	33992	
2368	0	34052	
2369	0	34064	
2370	0	34088	
2371	0	34164	
2372	0	34248	
2373	0	34336	
2374	0	34400	
2375	0	34428	
2376	0	34428	
2377	0	34420	
2378	0	34416	
2379	0	34432	
2380	0	34400	
2381	0	34368	
2382	0	34396	
2383	0	34420	
2384	0	34432	
2385	0	34408	
2386	0	34356	
2387	0	34220	
2388	0	34112	
2389	0	34044	
2390	0	34024	
2391	0	34008	
2392	0	34048	
2393	0	34112	
2394	0	34048	
2395	0	33896	
2396	0	33738	
2397	0	33648	
2398	0	33644	
2399	0	33680	
2400	0	33752	
2401	0	33872	
2402	0	34084	
2403	0	34344	
2404	0	34426	
2405	0	34389	
2406	0	34336	
2407	0	34264	
2408	0	34176	
2409	0	34108	
2410	0	34016	
2411	0	33920	
2412	0	33792	
2413	0	33660	
2414	0	33612	
2415	0	33578	
2416	0	33560	
2417	0	33640	
2418	0	33808	
2419	0	34004	
2420	0	34176	
2421	0	34368	
2422	0	34506	
2423	0	34696	
2424	0	34916	
2425	0	35060	
2426	0	35156	
2427	0	35226	
2428	0	35280	
2429	0	35248	
2430	0	35204	
2431	0	35200	
2432	0	35204	
2433	0	35204	
2434	0	35236	
2435	0	35252	
2436	0	35244	
2437	0	35120	
2438	0	34984	
2439	0	34908	
2440	0	34876	
2441	0	34832	
2442	0	34768	
2443	0	34820	
2444	0	35060	
2445	0	35440	
2446	0	35856	
2447	0	36258	
2448	0	36596	
2449	0	36888	
2450	0	37148	
2451	0	37328	
2452	0	37476	
2453	0	37576	
2454	0	37548	
2455	0	37444	
2456	0	37304	
2457	0	37220	
2458	0	37204	
2459	0	37288	
2460	0	37424	
2461	0	37556	
2462	0	37652	
2463	0	37584	
2464	0	37348	
2465	0	37028	
2466	0	36720	
2467	0	36496	
2468	0	36384	
2469	0	36360	
2470	0	36410	
2471	0	36532	
2472	0	36672	
2473	0	36800	
2474	0	36776	
2475	0	36608	
2476	0	36384	
2477	0	36196	
2478	0	35972	
2479	0	35780	
2480	0	35552	
2481	0	35252	
2482	0	34888	
2483	0	34508	
2484	0	34144	
2485	0	33860	
2486	0	33592	
2487	0	33356	
2488	0	33168	
2489	0	33032	
2490	0	32956	
2491	0	32844	
2492	0	32680	
2493	0	32480	
2494	0	32300	
2495	0	32140	
2496	0	31952	
2497	0	31692	
2498	0	31384	
2499	0	31136	
2500	0	30972	
2501	0	30936	
2502	0	31040	
2503	0	31164	
2504	0	31264	
2505	0	31356	
2506	0	31424	
2507	0	31464	
2508	0	31452	
2509	0	31420	
2510	0	31416	
2511	0	31408	
2512	0	31328	
2513	0	31216	
2514	0	31144	
2515	0	31072	
2516	0	31072	
2517	0	31130	
2518	0	31156	
2519	0	31208	
2520	0	31228	
2521	0	31256	
2522	0	31336	
2523	0	31456	
2524	0	31616	
2525	0	31736	
2526	0	31764	
2527	0	31772	
2528	0	31768	
2529	0	31668	
2530	0	31540	
2531	0	31376	
2532	0	31136	
2533	0	30868	
2534	0	30576	
2535	0	30240	
2536	0	29908	
2537	0	29628	
2538	0	29356	
2539	0	29080	
2540	0	28808	
2541	0	28640	
2542	0	28580	
2543	0	28620	
2544	0	28748	
2545	0	28966	
2546	0	29368	
2547	0	30000	
2548	0	30880	
2549	0	31932	
2550	0	33232	
2551	0	34820	
2552	0	36560	
2553	0	38760	
2554	0	41452	
2555	0	44576	
2556	0	47932	
2557	0	51540	
2558	0	55392	
2559	0	59464	
2560	0	62348	
2561	0	63908	
2562	0	64696	
2563	0	65058	
2564	0	65216	
2565	0	65248	
2566	0	65200	
2567	0	65120	
2568	0	65024	
2569	0	64920	
2570	0	64792	
2571	0	64680	
2572	0	64552	
2573	0	64436	
2574	0	64324	
2575	0	64208	
2576	0	64076	
2577	0	63952	
2578	0	63832	
2579	0	63716	
2580	0	63604	
2581	0	63488	
2582	0	63372	
2583	0	63248	
2584	0	63136	
2585	0	63016	
2586	0	62896	
2587	0	59900	
2588	0	54156	
2589	0	48652	
2590	0	43760	
2591	0	39680	
2592	0	36312	
2593	0	33584	
2594	0	31376	
2595	0	29600	
2596	0	28224	
2597	0	27252	
2598	0	26600	
2599	0	26120	
2600	0	25720	
2601	0	25324	
2602	0	24888	
2603	0	24464	
2604	0	24120	
2605	0	23780	
2606	0	23452	
2607	0	23172	
2608	0	22904	
2609	0	22640	
2610	0	22408	
2611	0	22176	
2612	0	21944	
2613	0	21720	
2614	0	21560	
2615	0	21440	
2616	0	21365	
2617	0	21300	
2618	0	21188	
2619	0	21024	
2620	0	20860	
2621	0	20802	
2622	0	20840	
2623	0	20932	
2624	0	21024	
2625	0	21080	
2626	0	21138	
2627	0	21178	
2628	0	21192	
2629	0	21194	
2630	0	21240	
2631	0	21280	
2632	0	21308	
2633	0	21316	
2634	0	21362	
2635	0	21404	
2636	0	21460	
2637	0	21564	
2638	0	21692	
2639	0	21828	
2640	0	21902	
2641	0	21928	
2642	0	21976	
2643	0	22024	
2644	0	22112	
2645	0	22160	
2646	0	22212	
2647	0	22316	
2648	0	22462	
2649	0	22576	
2650	0	22688	
2651	0	22804	
2652	0	22844	
2653	0	22908	
2654	0	23000	
2655	0	23128	
2656	0	23224	
2657	0	23286	
2658	0	23330	
2659	0	23398	
2660	0	23472	
2661	0	23608	
2662	0	23752	
2663	0	23864	
2664	0	23916	
2665	0	23930	
2666	0	23930	
2667	0	24012	
2668	0	24172	
2669	0	24336	
2670	0	24456	
2671	0	24536	
2672	0	24596	
2673	0	24744	
2674	0	24864	
2675	0	24960	
2676	0	24976	
2677	0	24954	
2678	0	24896	
2679	0	24864	
2680	0	24904	
2681	0	25004	
2682	0	25112	
2683	0	25204	
2684	0	25272	
2685	0	25374	
2686	0	25522	
2687	0	25686	
2688	0	25872	
2689	0	26068	
2690	0	26244	
2691	0	26372	
2692	0	26490	
2693	0	26552	
2694	0	26576	
2695	0	26600	
2696	0	26652	
2697	0	26704	
2698	0	26716	
2699	0	26736	
2700	0	26720	
2701	0	26748	
2702	0	26816	
2703	0	26888	
2704	0	26914	
2705	0	26952	
2706	0	27072	
2707	0	27210	
2708	0	27393	
2709	0	27544	
2710	0	27660	
2711	0	27748	
2712	0	27824	
2713	0	27904	
2714	0	27980	
2715	0	28040	
2716	0	28064	
2717	0	28106	
2718	0	28196	
2719	0	28264	
2720	0	28304	
2721	0	28352	
2722	0	28434	
2723	0	28484	
2724	0	28492	
2725	0	28480	
2726	0	28512	
2727	0	28600	
2728	0	28698	
2729	0	28804	
2730	0	28904	
2731	0	29024	
2732	0	29136	
2733	0	29240	
2734	0	29342	
2735	0	29432	
2736	0	29520	
2737	0	29576	
2738	0	29612	
2739	0	29660	
2740	0	29706	
2741	0	29760	
2742	0	29776	
2743	0	29788	
2744	0	29780	
2745	0	29760	
2746	0	29760	
2747	0	29740	
2748	0	29760	
2749	0	29776	
2750	0	29830	
2751	0	29856	
2752	0	29880	
2753	0	29828	
2754	0	29778	
2755	0	29804	
2756	0	29874	
2757	0	29912	
2758	0	29956	
2759	0	29990	
2760	0	30048	
2761	0	30132	
2762	0	30196	
2763	0	30236	
2764	0	30256	
2765	0	30364	
2766	0	30496	
2767	0	30612	
2768	0	30684	
2769	0	30760	
2770	0	30824	
2771	0	30880	
2772	0	30944	
2773	0	31044	
2774	0	31124	
2775	0	31200	
2776	0	31352	
2777	0	31546	
2778	0	31756	
2779	0	31960	
2780	0	32132	
2781	0	32212	
2782	0	32254	
2783	0	32296	
2784	0	32384	
2785	0	32496	
2786	0	32552	
2787	0	32608	
2788	0	32700	
2789	0	32740	
2790	0	32760	
2791	0	32784	
2792	0	32848	
2793	0	32896	
2794	0	32912	
2795	0	32888	
2796	0	32860	
2797	0	32824	
2798	0	32780	
2799	0	32692	
2800	0	32620	
2801	0	32576	
2802	0	32532	
2803	0	32544	
2804	0	32560	
2805	0	32568	
2806	0	32560	
2807	0	32528	
2808	0	32464	
2809	0	32456	
2810	0	32468	
2811	0	32476	
2812	0	32420	
2813	0	32352	
2814	0	32312	
2815	0	32272	
2816	0	32296	
2817	0	32288	
2818	0	32228	
2819	0	32216	
2820	0	32224	
2821	0	32216	
2822	0	32180	
2823	0	32168	
2824	0	32168	
2825	0	32136	
2826	0	32128	
2827	0	32144	
2828	0	32194	
2829	0	32192	
2830	0	32172	
2831	0	32184	
2832	0	32164	
2833	0	32188	
2834	0	32224	
2835	0	32248	
2836	0	32232	
2837	0	32192	
2838	0	32160	
2839	0	32152	
2840	0	32160	
2841	0	32180	
2842	0	32224	
2843	0	32268	
2844	0	32252	
2845	0	32228	
2846	0	32188	
2847	0	32168	
2848	0	32140	
2849	0	32156	
2850	0	32184	
2851	0	32216	
2852	0	32270	
2853	0	32304	
2854	0	32340	
2855	0	32416	
2856	0	32452	
2857	0	32492	
2858	0	32548	
2859	0	32612	
2860	0	32688	
2861	0	32708	
2862	0	32676	
2863	0	32644	
2864	0	32592	
2865	0	32596	
2866	0	32608	
2867	0	32648	
2868	0	32688	
2869	0	32740	
2870	0	32800	
2871	0	32852	
2872	0	32944	
2873	0	33004	
2874	0	33040	
2875	0	33072	
2876	0	33114	
2877	0	33152	
2878	0	33240	
2879	0	33332	
2880	0	33412	
2881	0	33498	
2882	0	33584	
2883	0	33620	
2884	0	33636	
2885	0	33608	
2886	0	33544	
2887	0	33524	
2888	0	33540	
2889	0	33620	
2890	0	33680	
2891	0	33724	
2892	0	33760	
2893	0	33752	
2894	0	33724	
2895	0	33736	
2896	0	33780	
2897	0	33828	
2898	0	33890	
2899	0	33932	
2900	0	33936	
2901	0	33960	
2902	0	33966	
2903	0	33992	
2904	0	34024	
2905	0	34028	
2906	0	34052	
2907	0	34032	
2908	0	34044	
2909	0	34100	
2910	0	34120	
2911	0	34140	
2912	0	34144	
2913	0	34116	
2914	0	34112	
2915	0	34088	
2916	0	34122	
2917	0	34144	
2918	0	34144	
2919	0	34146	
2920	0	34148	
2921	0	34176	
2922	0	34224	
2923	0	34292	
2924	0	34320	
2925	0	34310	
2926	0	34272	
2927	0	34244	
2928	0	34218	
2929	0	34208	
2930	0	34224	
2931	0	34228	
2932	0	34196	
2933	0	34200	
2934	0	34208	
2935	0	34192	
2936	0	34128	
2937	0	34080	
2938	0	34048	
2939	0	34056	
2940	0	34024	
2941	0	34064	
2942	0	34152	
2943	0	34162	
2944	0	34172	
2945	0	34180	
2946	0	34188	
2947	0	34208	
2948	0	34218	
2949	0	34240	
2950	0	34204	
2951	0	34180	
2952	0	34152	
2953	0	34052	
2954	0	33968	
2955	0	33952	
2956	0	33876	
2957	0	33800	
2958	0	33736	
2959	0	33720	
2960	0	33728	
2961	0	33732	
2962	0	33768	
2963	0	33844	
2964	0	33860	
2965	0	33820	
2966	0	33760	
2967	0	33706	
2968	0	33672	
2969	0	33696	
2970	0	33704	
2971	0	33680	
2972	0	33712	
2973	0	33752	
2974	0	33892	
2975	0	34088	
2976	0	34244	
2977	0	34432	
2978	0	34632	
2979	0	34762	
2980	0	34920	
2981	0	35068	
2982	0	35196	
2983	0	35272	
2984	0	35348	
2985	0	35324	
2986	0	35264	
2987	0	35272	
2988	0	35200	
2989	0	35116	
2990	0	35108	
2991	0	35132	
2992	0	35172	
2993	0	35208	
2994	0	35236	
2995	0	35224	
2996	0	35300	
2997	0	35528	
2998	0	35828	
2999	0	36192	
3000	0	36504	
3001	0	36756	
3002	0	36912	
3003	0	37056	
3004	0	37148	
3005	0	37172	
3006	0	37228	
3007	0	37272	
3008	0	37328	
3009	0	37314	
3010	0	37340	
3011	0	37390	
3012	0	37504	
3013	0	37644	
3014	0	37736	
3015	0	37816	
3016	0	37808	
3017	0	37688	
3018	0	37512	
3019	0	37324	
3020	0	37156	
3021	0	37048	
3022	0	37020	
3023	0	36992	
3024	0	36936	
3025	0	36876	
3026	0	36768	
3027	0	36600	
3028	0	36384	
3029	0	36124	
3030	0	35898	
3031	0	35640	
3032	0	35384	
3033	0	35144	
3034	0	34908	
3035	0	34652	
3036	0	34380	
3037	0	34076	
3038	0	33760	
3039	0	33412	
3040	0	33064	
3041	0	32736	
3042	0	32500	
3043	0	32306	
3044	0	32162	
3045	0	32024	
3046	0	31932	
3047	0	31808	
3048	0	31652	
3049	0	31556	
3050	0	31456	
3051	0	31362	
3052	0	31288	
3053	0	31252	
3054	0	31248	
3055	0	31212	
3056	0	31204	
3057	0	31216	
3058	0	31208	
3059	0	31228	
3060	0	31216	
3061	0	31200	
3062	0	31172	
3063	0	31152	
3064	0	31112	
3065	0	31112	
3066	0	31116	
3067	0	31144	
3068	0	31152	
3069	0	31180	
3070	0	31176	
3071	0	31176	
3072	0	31200	
3073	0	31248	
3074	0	31272	
3075	0	31260	
3076	0	31238	
3077	0	31224	
3078	0	31214	
3079	0	31184	
3080	0	31156	
3081	0	31104	
3082	0	31032	
3083	0	30952	
3084	0	30840	
3085	0	30668	
3086	0	30468	
3087	0	30272	
3088	0	30100	
3089	0	29914	
3090	0	29728	
3091	0	29534	
3092	0	29312	
3093	0	29056	
3094	0	28864	
3095	0	28848	
3096	0	28884	
3097	0	29012	
3098	0	29264	
3099	0	29736	
3100	0	30440	
3101	0	31376	
3102	0	32476	
3103	0	33912	
3104	0	35804	
3105	0	38036	
3106	0	40580	
3107	0	43444	
3108	0	46680	
3109	0	50116	
3110	0	53768	
3111	0	57624	
3112	0	61232	
3113	0	63388	
3114	0	64512	
3115	0	65080	
3116	0	65328	
3117	0	65408	
3118	0	65392	
3119	0	65344	
3120	0	65248	
3121	0	65132	
3122	0	65016	
3123	0	64896	
3124	0	64768	
3125	0	64648	
3126	0	64536	
3127	0	64428	
3128	0	64288	
3129	0	64168	
3130	0	64056	
3131	0	63928	
3132	0	63820	
3133	0	63692	
3134	0	63588	
3135	0	63448	
3136	0	63352	
3137	0	63228	
3138	0	63112	
3139	0	62988	
3140	0	59160	
3141	0	53492	
3142	0	48098	
3143	0	43248	
3144	0	39044	
3145	0	35408	
3146	0	32400	
3147	0	30136	
3148	0	28588	
3149	0	27560	
3150	0	26776	
3151	0	26152	
3152	0	25640	
3153	0	25160	
3154	0	24700	
3155	0	24288	
3156	0	23872	
3157	0	23512	
3158	0	23228	
3159	0	22972	
3160	0	22700	
3161	0	22436	
3162	0	22242	
3163	0	22072	
3164	0	21908	
3165	0	21724	
3166	0	21536	
3167	0	21356	
3168	0	21196	
3169	0	21084	
3170	0	20986	
3171	0	20936	
3172	0	20908	
3173	0	20876	
3174	0	20832	
3175	0	20784	
3176	0	20757	
3177	0	20760	
3178	0	20782	
3179	0	20836	
3180	0	20848	
3181	0	20904	
3182	0	20968	
3183	0	20964	
3184	0	20964	
3185	0	21008	
3186	0	21064	
3187	0	21156	
3188	0	21278	
3189	0	21384	
3190	0	21458	
3191	0	21496	
3192	0	21540	
3193	0	21592	
3194	0	21676	
3195	0	21776	
3196	0	21862	
3197	0	21948	
3198	0	22058	
3199	0	22176	
3200	0	22284	
3201	0	22410	
3202	0	22516	
3203	0	22656	
3204	0	22768	
3205	0	22888	
3206	0	22996	
3207	0	23080	
3208	0	23172	
3209	0	23240	
3210	0	23322	
3211	0	23392	
3212	0	23448	
3213	0	23522	
3214	0	23632	
3215	0	23754	
3216	0	23880	
3217	0	23972	
3218	0	24032	
3219	0	24092	
3220	0	24184	
3221	0	24262	
3222	0	24306	
3223	0	24372	
3224	0	24468	
3225	0	24544	
3226	0	24632	
3227	0	24728	
3228	0	24780	
3229	0	24856	
3230	0	24958	
3231	0	25028	
3232	0	25098	
3233	0	25176	
3234	0	25260	
3235	0	25344	
3236	0	25420	
3237	0	25480	
3238	0	25524	
3239	0	25592	
3240	0	25644	
3241	0	25708	
3242	0	25776	
3243	0	25840	
3244	0	25920	
3245	0	26040	
3246	0	26109	
3247	0	26172	
3248	0	26252	
3249	0	26344	
3250	0	26444	
3251	0	26508	
3252	0	26592	
3253	0	26656	
3254	0	26744	
3255	0	26820	
3256	0	26908	
3257	0	26992	
3258	0	27056	
3259	0	27104	
3260	0	27148	
3261	0	27220	
3262	0	27288	
3263	0	27352	
3264	0	27400	
3265	0	27452	
3266	0	27524	
3267	0	27604	
3268	0	27708	
3269	0	27824	
3270	0	27932	
3271	0	28020	
3272	0	28124	
3273	0	28218	
3274	0	28332	
3275	0	28412	
3276	0	28464	
3277	0	28536	
3278	0	28636	
3279	0	28720	
3280	0	28770	
3281	0	28784	
3282	0	28832	
3283	0	28936	
3284	0	29032	
3285	0	29108	
3286	0	29168	
3287	0	29256	
3288	0	29356	
3289	0	29464	
3290	0	29544	
3291	0	29596	
3292	0	29632	
3293	0	29672	
3294	0	29708	
3295	0	29762	
3296	0	29808	
3297	0	29844	
3298	0	29932	
3299	0	30016	
3300	0	30076	
3301	0	30116	
3302	0	30160	
3303	0	30192	
3304	0	30244	
3305	0	30284	
3306	0	30320	
3307	0	30344	
3308	0	30352	
3309	0	30404	
3310	0	30444	
3311	0	30452	
3312	0	30480	
3313	0	30524	
3314	0	30580	
3315	0	30660	
3316	0	30706	
3317	0	30728	
3318	0	30768	
3319	0	30844	
3320	0	30900	
3321	0	30984	
3322	0	31104	
3323	0	31240	
3324	0	31352	
3325	0	31480	
3326	0	31564	
3327	0	31676	
3328	0	31808	
3329	0	31924	
3330	0	32088	
3331	0	32224	
3332	0	32356	
3333	0	32492	
3334	0	32580	
3335	0	32676	
3336	0	32852	
3337	0	32976	
3338	0	32988	
3339	0	33016	
3340	0	33048	
3341	0	33080	
3342	0	33122	
3343	0	33172	
3344	0	33196	
3345	0	33208	
3346	0	33224	
3347	0	33248	
3348	0	33284	
3349	0	33304	
3350	0	33300	
3351	0	33260	
3352	0	33240	
3353	0	33216	
3354	0	33184	
3355	0	33152	
3356	0	33128	
3357	0	33116	
3358	0	33130	
3359	0	33104	
3360	0	33072	
3361	0	33022	
3362	0	33018	
3363	0	32978	
3364	0	32970	
3365	0	32972	
3366	0	32988	
3367	0	32952	
3368	0	32936	
3369	0	32904	
3370	0	32892	
3371	0	32872	
3372	0	32864	
3373	0	32848	
3374	0	32804	
3375	0	32772	
3376	0	32736	
3377	0	32736	
3378	0	32752	
3379	0	32748	
3380	0	32764	
3381	0	32774	
3382	0	32772	
3383	0	32776	
3384	0	32756	
3385	0	32740	
3386	0	32772	
3387	0	32788	
3388	0	32774	
3389	0	32774	
3390	0	32784	
3391	0	32808	
3392	0	32844	
3393	0	32892	
3394	0	32908	
3395	0	32912	
3396	0	32896	
3397	0	32900	
3398	0	32904	
3399	0	32900	
3400	0	32864	
3401	0	32826	
3402	0	32832	
3403	0	32856	
3404	0	32896	
3405	0	32942	
3406	0	32936	
3407	0	32922	
3408	0	32940	
3409	0	32932	
3410	0	32896	
3411	0	32904	
3412	0	32946	
3413	0	32986	
3414	0	33000	
3415	0	32988	
3416	0	32952	
3417	0	32964	
3418	0	33016	
3419	0	33068	
3420	0	33088	
3421	0	33144	
3422	0	33168	
3423	0	33176	
3424	0	33204	
3425	0	33232	
3426	0	33287	
3427	0	33320	
3428	0	33344	
3429	0	33442	
3430	0	33504	
3431	0	33568	
3432	0	33648	
3433	0	33704	
3434	0	33770	
3435	0	33804	
3436	0	33776	
3437	0	33748	
3438	0	33780	
3439	0	33812	
3440	0	33816	
3441	0	33844	
3442	0	33884	
3443	0	33904	
3444	0	33948	
3445	0	33976	
3446	0	34008	
3447	0	34016	
3448	0	34028	
3449	0	34032	
3450	0	34068	
3451	0	34096	
3452	0	34136	
3453	0	34112	
3454	0	34152	
3455	0	34148	
3456	0	34132	
3457	0	34156	
3458	0	34160	
3459	0	34152	
3460	0	34154	
3461	0	34144	
3462	0	34144	
3463	0	34168	
3464	0	34196	
3465	0	34236	
3466	0	34264	
3467	0	34284	
3468	0	34300	
3469	0	34311	
3470	0	34312	
3471	0	34296	
3472	0	34264	
3473	0	34264	
3474	0	34244	
3475	0	34232	
3476	0	34220	
3477	0	34240	
3478	0	34256	
3479	0	34258	
3480	0	34256	
3481	0	34248	
3482	0	34252	
3483	0	34256	
3484	0	34242	
3485	0	34240	
3486	0	34228	
3487	0	34200	
3488	0	34180	
3489	0	34168	
3490	0	34160	
3491	0	34120	
3492	0	34120	
3493	0	34144	
3494	0	34156	
3495	0	34176	
3496	0	34172	
3497	0	34164	
3498	0	34152	
3499	0	34150	
3500	0	34184	
3501	0	34188	
3502	0	34184	
3503	0	34164	
3504	0	34120	
3505	0	34080	
3506	0	34060	
3507	0	34020	
3508	0	34008	
3509	0	33968	
3510	0	33972	
3511	0	33964	
3512	0	33940	
3513	0	33944	
3514	0	33932	
3515	0	33886	
3516	0	33868	
3517	0	33864	
3518	0	33840	
3519	0	33816	
3520	0	33794	
3521	0	33804	
3522	0	33804	
3523	0	33780	
3524	0	33784	
3525	0	33800	
3526	0	33804	
3527	0	33808	
3528	0	33816	
3529	0	33800	
3530	0	33760	
3531	0	33712	
3532	0	33700	
3533	0	33716	
3534	0	33684	
3535	0	33636	
3536	0	33596	
3537	0	33596	
3538	0	33594	
3539	0	33596	
3540	0	33652	
3541	0	33752	
3542	0	33910	
3543	0	34124	
3544	0	34312	
3545	0	34520	
3546	0	34808	
3547	0	35036	
3548	0	35240	
3549	0	35416	
3550	0	35576	
3551	0	35696	
3552	0	35768	
3553	0	35784	
3554	0	35804	
3555	0	35816	
3556	0	35776	
3557	0	35744	
3558	0	35712	
3559	0	35688	
3560	0	35640	
3561	0	35584	
3562	0	35544	
3563	0	35540	
3564	0	35624	
3565	0	35804	
3566	0	36136	
3567	0	36528	
3568	0	36880	
3569	0	37160	
3570	0	37408	
3571	0	37588	
3572	0	37672	
3573	0	37716	
3574	0	37760	
3575	0	37788	
3576	0	37840	
3577	0	37900	
3578	0	37936	
3579	0	37988	
3580	0	38076	
3581	0	38164	
3582	0	38280	
3583	0	38320	
3584	0	38220	
3585	0	38000	
3586	0	37729	
3587	0	37468	
3588	0	37264	
3589	0	37156	
3590	0	37136	
3591	0	37060	
3592	0	37024	
3593	0	36944	
3594	0	36784	
3595	0	36556	
3596	0	36288	
3597	0	36012	
3598	0	35760	
3599	0	35508	
3600	0	35264	
3601	0	35024	
3602	0	34744	
3603	0	34464	
3604	0	34204	
3605	0	33960	
3606	0	33684	
3607	0	33408	
3608	0	33172	
3609	0	32940	
3610	0	32772	
3611	0	32640	
3612	0	32512	
3613	0	32408	
3614	0	32256	
3615	0	32096	
3616	0	31960	
3617	0	31844	
3618	0	31732	
3619	0	31632	
3620	0	31564	
3621	0	31508	
3622	0	31464	
3623	0	31424	
3624	0	31400	
3625	0	31384	
3626	0	31412	
3627	0	31404	
3628	0	31392	
3629	0	31372	
3630	0	31352	
3631	0	31348	
3632	0	31332	
3633	0	31340	
3634	0	31340	
3635	0	31360	
3636	0	31356	
3637	0	31336	
3638	0	31348	
3639	0	31380	
3640	0	31416	
3641	0	31444	
3642	0	31428	
3643	0	31406	
3644	0	31424	
3645	0	31464	
3646	0	31456	
3647	0	31408	
3648	0	31348	
3649	0	31300	
3650	0	31212	
3651	0	31084	
3652	0	30920	
3653	0	30768	
3654	0	30596	
3655	0	30444	
3656	0	30276	
3657	0	30112	
3658	0	29920	
3659	0	29744	
3660	0	29520	
3661	0	29328	
3662	0	29220	
3663	0	29248	
3664	0	29352	
3665	0	29544	
3666	0	29892	
3667	0	30424	
3668	0	31144	
3669	0	32120	
3670	0	33290	
3671	0	34842	
3672	0	36872	
3673	0	39200	
3674	0	41800	
3675	0	44704	
3676	0	47848	
3677	0	51236	
3678	0	54848	
3679	0	58640	
3680	0	61804	
3681	0	63552	
3682	0	64456	
3683	0	64908	
3684	0	65088	
3685	0	65128	
3686	0	65088	
3687	0	65028	
3688	0	64920	
3689	0	64824	
3690	0	64720	
3691	0	64600	
3692	0	64464	
3693	0	64356	
3694	0	64228	
3695	0	64112	
3696	0	63996	
3697	0	63872	
3698	0	63776	
3699	0	63624	
3700	0	63520	
3701	0	63396	
3702	0	63296	
3703	0	63176	
3704	0	63064	
3705	0	62928	
3706	0	62828	
3707	0	62700	
3708	0	58536	
3709	0	52792	
3710	0	47352	
3711	0	42464	
3712	0	38200	
3713	0	34548	
3714	0	31668	
3715	0	29632	
3716	0	28296	
3717	0	27408	
3718	0	26756	
3719	0	26216	
3720	0	25732	
3721	0	25296	
3722	0	24864	
3723	0	24468	
3724	0	24132	
3725	0	23828	
3726	0	23560	
3727	0	23304	
3728	0	23052	
3729	0	22792	
3730	0	22578	
3731	0	22368	
3732	0	22188	
3733	0	21998	
3734	0	21848	
3735	0	21704	
3736	0	21576	
3737	0	21480	
3738	0	21360	
3739	0	21258	
3740	0	21180	
3741	0	21136	
3742	0	21108	
3743	0	21090	
3744	0	21056	
3745	0	21056	
3746	0	21056	
3747	0	21088	
3748	0	21136	
3749	0	21154	
3750	0	21176	
3751	0	21224	
3752	0	21276	
3753	0	21312	
3754	0	21370	
3755	0	21440	
3756	0	21536	
3757	0	21624	
3758	0	21704	
3759	0	21776	
3760	0	21876	
3761	0	21968	
3762	0	22065	
3763	0	22164	
3764	0	22240	
3765	0	22336	
3766	0	22440	
3767	0	22524	
3768	0	22612	
3769	0	22686	
3770	0	22792	
3771	0	22880	
3772	0	22976	
3773	0	23072	
3774	0	23152	
3775	0	23224	
3776	0	23318	
3777	0	23408	
3778	0	23548	
3779	0	23672	
3780	0	23770	
3781	0	23872	
3782	0	23952	
3783	0	24044	
3784	0	24128	
3785	0	24200	
3786	0	24284	
3787	0	24388	
3788	0	24474	
3789	0	24532	
3790	0	24608	
3791	0	24686	
3792	0	24776	
3793	0	24840	
3794	0	24896	
3795	0	24972	
3796	0	25040	
3797	0	25120	
3798	0	25168	
3799	0	25252	
3800	0	25312	
3801	0	25300	
3802	0	25384	
3803	0	25516	
3804	0	25652	
3805	0	25740	
3806	0	25812	
3807	0	25844	
3808	0	25888	
3809	0	25972	
3810	0	26104	
3811	0	26204	
3812	0	26296	
3813	0	26376	
3814	0	26436	
3815	0	26472	
3816	0	26524	
3817	0	26588	
3818	0	26680	
3819	0	26750	
3820	0	26796	
3821	0	26868	
3822	0	26936	
3823	0	27012	
3824	0	27044	
3825	0	27088	
3826	0	27145	
3827	0	27244	
3828	0	27358	
3829	0	27440	
3830	0	27532	
3831	0	27600	
3832	0	27692	
3833	0	27778	
3834	0	27840	
3835	0	27900	
3836	0	27988	
3837	0	28068	
3838	0	28154	
3839	0	28240	
3840	0	28312	
3841	0	28384	
3842	0	28472	
3843	0	28576	
3844	0	28636	
3845	0	28688	
3846	0	28728	
3847	0	28808	
3848	0	28912	
3849	0	29016	
3850	0	29108	
3851	0	29192	
3852	0	29260	
3853	0	29344	
3854	0	29432	
3855	0	29500	
3856	0	29560	
3857	0	29608	
3858	0	29670	
3859	0	29716	
3860	0	29800	
3861	0	29872	
3862	0	29936	
3863	0	29960	
3864	0	30000	
3865	0	30076	
3866	0	30172	
3867	0	30264	
3868	0	30336	
3869	0	30404	
3870	0	30480	
3871	0	30520	
3872	0	30528	
3873	0	30552	
3874	0	30576	
3875	0	30600	
3876	0	30620	
3877	0	30634	
3878	0	30656	
3879	0	30712	
3880	0	30746	
3881	0	30820	
3882	0	30880	
3883	0	30920	
3884	0	31008	
3885	0	31072	
3886	0	31132	
3887	0	31180	
3888	0	31248	
3889	0	31328	
3890	0	31396	
3891	0	31488	
3892	0	31576	
3893	0	31700	
3894	0	31808	
3895	0	31914	
3896	0	32076	
3897	0	32216	
3898	0	32348	
3899	0	32512	
3900	0	32620	
3901	0	32728	
3902	0	32824	
3903	0	32916	
3904	0	32992	
3905	0	33098	
3906	0	33176	
3907	0	33204	
3908	0	33240	
3909	0	33264	
3910	0	33316	
3911	0	33380	
3912	0	33388	
3913	0	33368	
3914	0	33384	
3915	0	33380	
3916	0	33348	
3917	0	33336	
3918	0	33300	
3919	0	33248	
3920	0	33228	
3921	0	33192	
3922	0	33184	
3923	0	33184	
3924	0	33164	
3925	0	33140	
3926	0	33098	
3927	0	33084	
3928	0	33064	
3929	0	33060	
3930	0	33072	
3931	0	33056	
3932	0	33048	
3933	0	33004	
3934	0	32960	
3935	0	32924	
3936	0	32896	
3937	0	32872	
3938	0	32856	
3939	0	32840	
3940	0	32844	
3941	0	32800	
3942	0	32712	
3943	0	32728	
3944	0	32736	
3945	0	32688	
3946	0	32684	
3947	0	32680	
3948	0	32674	
3949	0	32652	
3950	0	32648	
3951	0	32648	
3952	0	32604	
3953	0	32616	
3954	0	32614	
3955	0	32608	
3956	0	32636	
3957	0	32624	
3958	0	32640	
3959	0	32664	
3960	0	32684	
3961	0	32684	
3962	0	32684	
3963	0	32696	
3964	0	32704	
3965	0	32740	
3966	0	32760	
3967	0	32764	
3968	0	32760	
3969	0	32736	
3970	0	32704	
3971	0	32712	
3972	0	32714	
3973	0	32760	
3974	0	32792	
3975	0	32800	
3976	0	32784	
3977	0	32820	
3978	0	32864	
3979	0	32844	
3980	0	32832	
3981	0	32864	
3982	0	32912	
3983	0	32912	
3984	0	32928	
3985	0	32956	
3986	0	32984	
3987	0	33032	
3988	0	33080	
3989	0	33140	
3990	0	33200	
3991	0	33236	
3992	0	33248	
3993	0	33272	
3994	0	33264	
3995	0	33312	
3996	0	33352	
3997	0	33388	
3998	0	33440	
3999	0	33484	
4000	0	33488	
4001	0	33500	
4002	0	33532	
4003	0	33556	
4004	0	33600	
4005	0	33626	
4006	0	33676	
4007	0	33696	
4008	0	33724	
4009	0	33754	
4010	0	33796	
4011	0	33800	
4012	0	33812	
4013	0	33816	
4014	0	33864	
4015	0	33920	
4016	0	33952	
4017	0	33992	
4018	0	33976	
4019	0	33984	
4020	0	33984	
4021	0	33992	
4022	0	34008	
4023	0	34032	
4024	0	34036	
4025	0	34041	
4026	0	34036	
4027	0	34048	
4028	0	34074	
4029	0	34092	
4030	0	34080	
4031	0	34100	
4032	0	34120	
4033	0	34144	
4034	0	34144	
4035	0	34136	
4036	0	34128	
4037	0	34136	
4038	0	34176	
4039	0	34212	
4040	0	34232	
4041	0	34196	
4042	0	34168	
4043	0	34144	
4044	0	34128	
4045	0	34136	
4046	0	34136	
4047	0	34144	
4048	0	34132	
4049	0	34116	
4050	0	34148	
4051	0	34180	
4052	0	34156	
4053	0	34132	
4054	0	34112	
4055	0	34092	
4056	0	34116	
4057	0	34124	
4058	0	34100	
4059	0	34100	
4060	0	34110	
4061	0	34080	
4062	0	34040	
4063	0	34092	
4064	0	34148	
4065	0	34120	
4066	0	34136	
4067	0	34136	
4068	0	34132	
4069	0	34164	
4070	0	34184	
4071	0	34192	
4072	0	34172	
4073	0	34164	
4074	0	34176	
4075	0	34152	
4076	0	34112	
4077	0	34080	
4078	0	34056	
4079	0	34016	
4080	0	33986	
4081	0	33956	
4082	0	33936	
4083	0	33918	
4084	0	33896	
4085	0	33872	
4086	0	33840	
4087	0	33824	
4088	0	33828	
4089	0	33824	
4090	0	33808	
4091	0	33792	
4092	0	33736	
4093	0	33700	
4094	0	33688	
4095	0	33708	
4096	0	33668	
4097	0	33632	
4098	0	33592	
4099	0	33592	
4100	0	33592	
4101	0	33576	
4102	0	33572	
4103	0	33588	
4104	0	33596	
4105	0	33560	
4106	0	33532	
4107	0	33524	
4108	0	33516	
4109	0	33492	
4110	0	33500	
4111	0	33516	
4112	0	33516	
4113	0	33504	
4114	0	33516	
4115	0	33548	
4116	0	33544	
4117	0	33524	
4118	0	33516	
4119	0	33524	
4120	0	33564	
4121	0	33588	
4122	0	33580	
4123	0	33568	
4124	0	33576	
4125	0	33552	
4126	0	33516	
4127	0	33484	
4128	0	33464	
4129	0	33496	
4130	0	33496	
4131	0	33504	
4132	0	33480	
4133	0	33428	
4134	0	33400	
4135	0	33364	
4136	0	33380	
4137	0	33408	
4138	0	33428	
4139	0	33424	
4140	0	33400	
4141	0	33396	
4142	0	33424	
4143	0	33448	
4144	0	33464	
4145	0	33480	
4146	0	33472	
4147	0	33472	
4148	0	33480	
4149	0	33460	
4150	0	33452	
4151	0	33448	
4152	0	33420	
4153	0	33428	
4154	0	33456	
4155	0	33472	
4156	0	33476	
4157	0	33472	
4158	0	33492	
4159	0	33512	
4160	0	33520	
4161	0	33536	
4162	0	33600	
4163	0	33704	
4164	0	33904	
4165	0	34136	
4166	0	34396	
4167	0	34628	
4168	0	34880	
4169	0	35064	
4170	0	35232	
4171	0	35384	
4172	0	35520	
4173	0	35632	
4174	0	35688	
4175	0	35712	
4176	0	35724	
4177	0	35712	
4178	0	35740	
4179	0	35740	
4180	0	35732	
4181	0	35696	
4182	0	35632	
4183	0	35580	
4184	0	35552	
4185	0	35656	
4186	0	35872	
4187	0	36176	
4188	0	36480	
4189	0	36804	
4190	0	37132	
4191	0	37408	
4192	0	37592	
4193	0	37690	
4194	0	37748	
4195	0	37760	
4196	0	37796	
4197	0	37836	
4198	0	37880	
4199	0	37944	
4200	0	38048	
4201	0	38164	
4202	0	38284	
4203	0	38360	
4204	0	38316	
4205	0	38164	
4206	0	37912	
4207	0	37660	
4208	0	37432	
4209	0	37240	
4210	0	37124	
4211	0	37056	
4212	0	37028	
4213	0	36922	
4214	0	36826	
4215	0	36756	
4216	0	36520	
4217	0	36228	
4218	0	35956	
4219	0	35708	
4220	0	35442	
4221	0	35200	
4222	0	35016	
4223	0	34824	
4224	0	34616	
4225	0	34392	
4226	0	34096	
4227	0	33804	
4228	0	33488	
4229	0	33172	
4230	0	32924	
4231	0	32768	
4232	0	32660	
4233	0	32576	
4234	0	32488	
4235	0	32364	
4236	0	32236	
4237	0	32088	
4238	0	31972	
4239	0	31904	
4240	0	31860	
4241	0	31808	
4242	0	31738	
4243	0	31676	
4244	0	31624	
4245	0	31612	
4246	0	31604	
4247	0	31604	
4248	0	31632	
4249	0	31616	
4250	0	31616	
4251	0	31632	
4252	0	31660	
4253	0	31648	
4254	0	31616	
4255	0	31576	
4256	0	31532	
4257	0	31556	
4258	0	31588	
4259	0	31600	
4260	0	31626	
4261	0	31660	
4262	0	31672	
4263	0	31680	
4264	0	31698	
4265	0	31712	
4266	0	31712	
4267	0	31728	
4268	0	31780	
4269	0	31744	
4270	0	31680	
4271	0	31576	
4272	0	31516	
4273	0	31424	
4274	0	31316	
4275	0	31158	
4276	0	30976	
4277	0	30804	
4278	0	30616	
4279	0	30448	
4280	0	30272	
4281	0	30056	
4282	0	29788	
4283	0	29556	
4284	0	29440	
4285	0	29392	
4286	0	29436	
4287	0	29580	
4288	0	29892	
4289	0	30428	
4290	0	31120	
4291	0	31988	
4292	0	33152	
4293	0	34740	
4294	0	36660	
4295	0	38976	
4296	0	41636	
4297	0	44568	
4298	0	47688	
4299	0	51020	
4300	0	54624	
4301	0	58404	
4302	0	61472	
4303	0	63124	
4304	0	63976	
4305	0	64380	
4306	0	64556	
4307	0	64588	
4308	0	64560	
4309	0	64472	
4310	0	64380	
4311	0	64288	
4312	0	64168	
4313	0	64064	
4314	0	63944	
4315	0	63820	
4316	0	63704	
4317	0	63592	
4318	0	63468	
4319	0	63360	
4320	0	63240	
4321	0	63120	
4322	0	63012	
4323	0	62904	
4324	0	62778	
4325	0	62664	
4326	0	62572	
4327	0	62432	
4328	0	62184	
4329	0	56504	
4330	0	51236	
4331	0	46272	
4332	0	41932	
4333	0	38328	
4334	0	35226	
4335	0	32592	
4336	0	30564	
4337	0	29184	
4338	0	28240	
4339	0	27564	
4340	0	27072	
4341	0	26600	
4342	0	26176	
4343	0	25768	
4344	0	25330	
4345	0	24900	
4346	0	24472	
4347	0	24170	
4348	0	23908	
4349	0	23688	
4350	0	23456	
4351	0	23228	
4352	0	23026	
4353	0	22848	
4354	0	22686	
4355	0	22548	
4356	0	22400	
4357	0	22272	
4358	0	22156	
4359	0	22074	
4360	0	22008	
4361	0	21944	
4362	0	21888	
4363	0	21856	
4364	0	21824	
4365	0	21808	
4366	0	21808	
4367	0	21808	
4368	0	21832	
4369	0	21868	
4370	0	21924	
4371	0	21936	
4372	0	21914	
4373	0	21908	
4374	0	21934	
4375	0	21996	
4376	0	22042	
4377	0	22100	
4378	0	22178	
4379	0	22248	
4380	0	22330	
4381	0	22428	
4382	0	22500	
4383	0	22578	
4384	0	22676	
4385	0	22772	
4386	0	22840	
4387	0	22912	
4388	0	22997	
4389	0	23100	
4390	0	23188	
4391	0	23268	
4392	0	23348	
4393	0	23428	
4394	0	23532	
4395	0	23608	
4396	0	23700	
4397	0	23792	
4398	0	23884	
4399	0	23992	
4400	0	24076	
4401	0	24160	
4402	0	24244	
4403	0	24342	
4404	0	24424	
4405	0	24496	
4406	0	24588	
4407	0	24668	
4408	0	24732	
4409	0	24776	
4410	0	24864	
4411	0	24956	
4412	0	25048	
4413	0	25142	
4414	0	25216	
4415	0	25336	
4416	0	25416	
4417	0	25490	
4418	0	25556	
4419	0	25622	
4420	0	25688	
4421	0	25772	
4422	0	25840	
4423	0	25920	
4424	0	25980	
4425	0	26028	
4426	0	26080	
4427	0	26176	
4428	0	26240	
4429	0	26304	
4430	0	26384	
4431	0	26416	
4432	0	26468	
4433	0	26516	
4434	0	26556	
4435	0	26576	
4436	0	26620	
4437	0	26712	
4438	0	26820	
4439	0	26912	
4440	0	27012	
4441	0	27120	
4442	0	27236	
4443	0	27308	
4444	0	27400	
4445	0	27532	
4446	0	27632	
4447	0	27724	
4448	0	27808	
4449	0	27908	
4450	0	28016	
4451	0	28116	
4452	0	28200	
4453	0	28232	
4454	0	28288	
4455	0	28364	
4456	0	28444	
4457	0	28540	
4458	0	28644	
4459	0	28700	
4460	0	28780	
4461	0	28866	
4462	0	28952	
4463	0	29024	
4464	0	29112	
4465	0	29200	
4466	0	29288	
4467	0	29382	
4468	0	29514	
4469	0	29626	
4470	0	29744	
4471	0	29832	
4472	0	29912	
4473	0	29972	
4474	0	30000	
4475	0	30060	
4476	0	30160	
4477	0	30160	
4478	0	30188	
4479	0	30292	
4480	0	30400	
4481	0	30500	
4482	0	30580	
4483	0	30656	
4484	0	30728	
4485	0	30812	
4486	0	30874	
4487	0	30932	
4488	0	30968	
4489	0	31012	
4490	0	31072	
4491	0	31128	
4492	0	31212	
4493	0	31233	
4494	0	31276	
4495	0	31316	
4496	0	31368	
4497	0	31424	
4498	0	31460	
4499	0	31484	
4500	0	31508	
4501	0	31544	
4502	0	31580	
4503	0	31632	
4504	0	31688	
4505	0	31730	
4506	0	31736	
4507	0	31768	
4508	0	31812	
4509	0	31856	
4510	0	31936	
4511	0	31976	
4512	0	32032	
4513	0	32100	
4514	0	32168	
4515	0	32236	
4516	0	32268	
4517	0	32300	
4518	0	32364	
4519	0	32448	
4520	0	32532	
4521	0	32604	
4522	0	32688	
4523	0	32782	
4524	0	32904	
4525	0	32992	
4526	0	33066	
4527	0	33128	
4528	0	33204	
4529	0	33260	
4530	0	33296	
4531	0	33344	
4532	0	33384	
4533	0	33388	
4534	0	33388	
4535	0	33404	
4536	0	33418	
4537	0	33396	
4538	0	33376	
4539	0	33340	
4540	0	33320	
4541	0	33328	
4542	0	33300	
4543	0	33256	
4544	0	33228	
4545	0	33184	
4546	0	33156	
4547	0	33128	
4548	0	33092	
4549	0	33048	
4550	0	33034	
4551	0	33004	
4552	0	32972	
4553	0	32948	
4554	0	32900	
4555	0	32844	
4556	0	32788	
4557	0	32748	
4558	0	32710	
4559	0	32688	
4560	0	32700	
4561	0	32676	
4562	0	32632	
4563	0	32602	
4564	0	32596	
4565	0	32600	
4566	0	32604	
4567	0	32570	
4568	0	32536	
4569	0	32540	
4570	0	32544	
4571	0	32512	
4572	0	32492	
4573	0	32496	
4574	0	32476	
4575	0	32468	
4576	0	32476	
4577	0	32458	
4578	0	32448	
4579	0	32404	
4580	0	32396	
4581	0	32416	
4582	0	32432	
4583	0	32436	
4584	0	32440	
4585	0	32444	
4586	0	32436	
4587	0	32432	
4588	0	32444	
4589	0	32436	
4590	0	32444	
4591	0	32480	
4592	0	32488	
4593	0	32524	
4594	0	32528	
4595	0	32540	
4596	0	32580	
4597	0	32618	
4598	0	32632	
4599	0	32650	
4600	0	32672	
4601	0	32696	
4602	0	32704	
4603	0	32724	
4604	0	32756	
4605	0	32780	
4606	0	32784	
4607	0	32757	
4608	0	32820	
4609	0	32884	
4610	0	32920	
4611	0	32944	
4612	0	32932	
4613	0	32932	
4614	0	32920	
4615	0	32944	
4616	0	32968	
4617	0	32992	
4618	0	33034	
4619	0	33068	
4620	0	33132	
4621	0	33144	
4622	0	33152	
4623	0	33156	
4624	0	33192	
4625	0	33228	
4626	0	33266	
4627	0	33316	
4628	0	33348	
4629	0	33400	
4630	0	33432	
4631	0	33448	
4632	0	33472	
4633	0	33482	
4634	0	33484	
4635	0	33488	
4636	0	33496	
4637	0	33512	
4638	0	33528	
4639	0	33552	
4640	0	33560	
4641	0	33580	
4642	0	33580	
4643	0	33592	
4644	0	33616	
4645	0	33660	
4646	0	33676	
4647	0	33688	
4648	0	33700	
4649	0	33712	
4650	0	33732	
4651	0	33744	
4652	0	33736	
4653	0	33744	
4654	0	33732	
4655	0	33744	
4656	0	33760	
4657	0	33788	
4658	0	33800	
4659	0	33784	
4660	0	33760	
4661	0	33740	
4662	0	33756	
4663	0	33760	
4664	0	33760	
4665	0	33778	
4666	0	33824	
4667	0	33828	
4668	0	33828	
4669	0	33784	
4670	0	33760	
4671	0	33736	
4672	0	33704	
4673	0	33712	
4674	0	33738	
4675	0	33756	
4676	0	33784	
4677	0	33760	
4678	0	33720	
4679	0	33706	
4680	0	33672	
4681	0	33664	
4682	0	33664	
4683	0	33664	
4684	0	33672	
4685	0	33668	
4686	0	33672	
4687	0	33664	
4688	0	33640	
4689	0	33640	
4690	0	33644	
4691	0	33640	
4692	0	33632	
4693	0	33618	
4694	0	33596	
4695	0	33576	
4696	0	33584	
4697	0	33600	
4698	0	33592	
4699	0	33584	
4700	0	33584	
4701	0	33564	
4702	0	33560	
4703	0	33528	
4704	0	33496	
4705	0	33460	
4706	0	33436	
4707	0	33448	
4708	0	33464	
4709	0	33440	
4710	0	33432	
4711	0	33424	
4712	0	33424	
4713	0	33420	
4714	0	33424	
4715	0	33432	
4716	0	33428	
4717	0	33424	
4718	0	33408	
4719	0	33384	
4720	0	33360	
4721	0	33336	
4722	0	33312	
4723	0	33296	
4724	0	33272	
4725	0	33276	
4726	0	33272	
4727	0	33256	
4728	0	33232	
4729	0	33220	
4730	0	33220	
4731	0	33208	
4732	0	33196	
4733	0	33164	
4734	0	33164	
4735	0	33156	
4736	0	33152	
4737	0	33140	
4738	0	33112	
4739	0	33108	
4740	0	33084	
4741	0	33088	
4742	0	33072	
4743	0	33056	
4744	0	33040	
4745	0	33016	
4746	0	32992	
4747	0	33012	
4748	0	32992	
4749	0	33006	
4750	0	32932	
4751	0	32900	
4752	0	32952	
4753	0	32984	
4754	0	33004	
4755	0	33012	
4756	0	32968	
4757	0	32960	
4758	0	32936	
4759	0	32916	
4760	0	32916	
4761	0	32956	
4762	0	32972	
4763	0	32996	
4764	0	33024	
4765	0	33032	
4766	0	33036	
4767	0	33020	
4768	0	33008	
4769	0	33032	
4770	0	33016	
4771	0	33000	
4772	0	32976	
4773	0	32956	
4774	0	32920	
4775	0	32932	
4776	0	32912	
4777	0	32888	
4778	0	32892	
4779	0	32920	
4780	0	32928	
4781	0	32912	
4782	0	32892	
4783	0	32904	
4784	0	32908	
4785	0	32928	
4786	0	32936	
4787	0	32948	
4788	0	32956	
4789	0	32932	
4790	0	32922	
4791	0	32952	
4792	0	32976	
4793	0	33016	
4794	0	33012	
4795	0	32992	
4796	0	32952	
4797	0	32908	
4798	0	32888	
4799	0	32900	
4800	0	32892	
4801	0	32924	
4802	0	32930	
4803	0	32916	
4804	0	32884	
4805	0	32876	
4806	0	32932	
4807	0	32972	
4808	0	32956	
4809	0	32940	
4810	0	32940	
4811	0	32952	
4812	0	32980	
4813	0	32996	
4814	0	33012	
4815	0	33008	
4816	0	33036	
4817	0	33072	
4818	0	33112	
4819	0	33124	
4820	0	33128	
4821	0	33148	
4822	0	33168	
4823	0	33168	
4824	0	33164	
4825	0	33152	
4826	0	33152	
4827	0	33132	
4828	0	33112	
4829	0	33136	
4830	0	33160	
4831	0	33160	
4832	0	33128	
4833	0	33124	
4834	0	33144	
4835	0	33152	
4836	0	33140	
4837	0	33186	
4838	0	33256	
4839	0	33356	
4840	0	33536	
4841	0	33792	
4842	0	34056	
4843	0	34336	
4844	0	34584	
4845	0	34792	
4846	0	34960	
4847	0	35112	
4848	0	35214	
4849	0	35276	
4850	0	35296	
4851	0	35292	
4852	0	35292	
4853	0	35252	
4854	0	35232	
4855	0	35232	
4856	0	35236	
4857	0	35200	
4858	0	35168	
4859	0	35116	
4860	0	35140	
4861	0	35272	
4862	0	35488	
4863	0	35768	
4864	0	36100	
4865	0	36408	
4866	0	36704	
4867	0	36964	
4868	0	37128	
4869	0	37192	
4870	0	37224	
4871	0	37284	
4872	0	37336	
4873	0	37356	
4874	0	37396	
4875	0	37468	
4876	0	37536	
4877	0	37648	
4878	0	37768	
4879	0	37840	
4880	0	37812	
4881	0	37664	
4882	0	37440	
4883	0	37208	
4884	0	36980	
4885	0	36840	
4886	0	36674	
4887	0	36608	
4888	0	36610	
4889	0	36564	
4890	0	36480	
4891	0	36292	
4892	0	36018	
4893	0	35744	
4894	0	35512	
4895	0	35272	
4896	0	35032	
4897	0	34804	
4898	0	34568	
4899	0	34352	
4900	0	34140	
4901	0	33936	
4902	0	33720	
4903	0	33442	
4904	0	33124	
4905	0	32880	
4906	0	32672	
4907	0	32476	
4908	0	32336	
4909	0	32188	
4910	0	32084	
4911	0	31976	
4912	0	31888	
4913	0	31796	
4914	0	31696	
4915	0	31584	
4916	0	31512	
4917	0	31424	
4918	0	31336	
4919	0	31306	
4920	0	31280	
4921	0	31236	
4922	0	31224	
4923	0	31236	
4924	0	31264	
4925	0	31256	
4926	0	31268	
4927	0	31264	
4928	0	31256	
4929	0	31256	
4930	0	31266	
4931	0	31276	
4932	0	31280	
4933	0	31288	
4934	0	31276	
4935	0	31288	
4936	0	31340	
4937	0	31372	
4938	0	31360	
4939	0	31372	
4940	0	31376	
4941	0	31372	
4942	0	31356	
4943	0	31342	
4944	0	31308	
4945	0	31268	
4946	0	31196	
4947	0	31104	
4948	0	31004	
4949	0	30888	
4950	0	30760	
4951	0	30604	
4952	0	30444	
4953	0	30240	
4954	0	30064	
4955	0	29888	
4956	0	29706	
4957	0	29476	
4958	0	29288	
4959	0	29184	
4960	0	29084	
4961	0	29044	
4962	0	29076	
4963	0	29308	
4964	0	29796	
4965	0	30410	
4966	0	31256	
4967	0	32412	
4968	0	33916	
4969	0	35756	
4970	0	38024	
4971	0	40672	
4972	0	43600	
4973	0	46696	
4974	0	49996	
4975	0	53536	
4976	0	57268	
4977	0	60624	
4978	0	62548	
4979	0	63564	
4980	0	64040	
4981	0	64240	
4982	0	64320	
4983	0	64304	
4984	0	64232	
4985	0	64132	
4986	0	64032	
4987	0	63920	
4988	0	63808	
4989	0	63704	
4990	0	63576	
4991	0	63460	
4992	0	63352	
4993	0	63224	
4994	0	63116	
4995	0	63008	
4996	0	62900	
4997	0	62784	
4998	0	62660	
4999	0	62556	
5000	0	62436	
5001	0	62320	
5002	0	62208	
5003	0	60880	
5004	0	55496	
5005	0	50452	
5006	0	45752	
5007	0	41728	
5008	0	38400	
5009	0	35520	
5010	0	33028	
5011	0	30996	
5012	0	29490	
5013	0	28424	
5014	0	27656	
5015	0	27056	
5016	0	26540	
5017	0	26072	
5018	0	25624	
5019	0	25204	
5020	0	24818	
5021	0	24488	
5022	0	24176	
5023	0	23888	
5024	0	23640	
5025	0	23416	
5026	0	23216	
5027	0	23012	
5028	0	22860	
5029	0	22736	
5030	0	22616	
5031	0	22512	
5032	0	22404	
5033	0	22296	
5034	0	22186	
5035	0	22112	
5036	0	22048	
5037	0	21946	
5038	0	21860	
5039	0	21800	
5040	0	21745	
5041	0	21732	
5042	0	21718	
5043	0	21720	
5044	0	21761	
5045	0	21822	
5046	0	21896	
5047	0	21932	
5048	0	21996	
5049	0	22060	
5050	0	22132	
5051	0	22202	
5052	0	22256	
5053	0	22332	
5054	0	22393	
5055	0	22488	
5056	0	22592	
5057	0	22708	
5058	0	22820	
5059	0	22880	
5060	0	22944	
5061	0	23010	
5062	0	23072	
5063	0	23140	
5064	0	23220	
5065	0	23290	
5066	0	23376	
5067	0	23452	
5068	0	23552	
5069	0	23624	
5070	0	23680	
5071	0	23776	
5072	0	23854	
5073	0	23940	
5074	0	23980	
5075	0	23972	
5076	0	24092	
5077	0	24244	
5078	0	24384	
5079	0	24528	
5080	0	24660	
5081	0	24764	
5082	0	24868	
5083	0	24960	
5084	0	25048	
5085	0	25116	
5086	0	25172	
5087	0	25252	
5088	0	25352	
5089	0	25384	
5090	0	25408	
5091	0	25416	
5092	0	25424	
5093	0	25488	
5094	0	25554	
5095	0	25628	
5096	0	25720	
5097	0	25820	
5098	0	25884	
5099	0	25984	
5100	0	26058	
5101	0	26158	
5102	0	26292	
5103	0	26408	
5104	0	26560	
5105	0	26648	
5106	0	26676	
5107	0	26698	
5108	0	26764	
5109	0	26826	
5110	0	26892	
5111	0	26964	
5112	0	27060	
5113	0	27132	
5114	0	27192	
5115	0	27272	
5116	0	27348	
5117	0	27458	
5118	0	27556	
5119	0	27640	
5120	0	27704	
5121	0	27788	
5122	0	27864	
5123	0	27992	
5124	0	28114	
5125	0	28176	
5126	0	28242	
5127	0	28284	
5128	0	28372	
5129	0	28480	
5130	0	28576	
5131	0	28652	
5132	0	28746	
5133	0	28858	
5134	0	28932	
5135	0	29012	
5136	0	29064	
5137	0	29156	
5138	0	29224	
5139	0	29328	
5140	0	29432	
5141	0	29532	
5142	0	29644	
5143	0	29792	
5144	0	29920	
5145	0	30012	
5146	0	30096	
5147	0	30144	
5148	0	30215	
5149	0	30292	
5150	0	30384	
5151	0	30464	
5152	0	30532	
5153	0	30564	
5154	0	30592	
5155	0	30604	
5156	0	30660	
5157	0	30744	
5158	0	30824	
5159	0	30896	
5160	0	30992	
5161	0	31112	
5162	0	31180	
5163	0	31232	
5164	0	31290	
5165	0	31376	
5166	0	31460	
5167	0	31508	
5168	0	31520	
5169	0	31516	
5170	0	31496	
5171	0	31514	
5172	0	31552	
5173	0	31564	
5174	0	31560	
5175	0	31556	
5176	0	31524	
5177	0	31508	
5178	0	31504	
5179	0	31482	
5180	0	31500	
5181	0	31548	
5182	0	31648	
5183	0	31736	
5184	0	31772	
5185	0	31792	
5186	0	31800	
5187	0	31832	
5188	0	31888	
5189	0	31968	
5190	0	32056	
5191	0	32146	
5192	0	32216	
5193	0	32288	
5194	0	32368	
5195	0	32444	
5196	0	32524	
5197	0	32616	
5198	0	32740	
5199	0	32832	
5200	0	32888	
5201	0	32928	
5202	0	33004	
5203	0	33128	
5204	0	33184	
5205	0	33224	
5206	0	33244	
5207	0	33272	
5208	0	33320	
5209	0	33370	
5210	0	33384	
5211	0	33392	
5212	0	33408	
5213	0	33412	
5214	0	33428	
5215	0	33412	
5216	0	33428	
5217	0	33452	
5218	0	33468	
5219	0	33508	
5220	0	33496	
5221	0	33480	
5222	0	33480	
5223	0	33412	
5224	0	33328	
5225	0	33256	
5226	0	33184	
5227	0	33074	
5228	0	33008	
5229	0	32972	
5230	0	32978	
5231	0	32988	
5232	0	32992	
5233	0	32972	
5234	0	32908	
5235	0	32892	
5236	0	32868	
5237	0	32800	
5238	0	32744	
5239	0	32734	
5240	0	32680	
5241	0	32632	
5242	0	32632	
5243	0	32648	
5244	0	32664	
5245	0	32698	
5246	0	32672	
5247	0	32656	
5248	0	32644	
5249	0	32608	
5250	0	32600	
5251	0	32600	
5252	0	32608	
5253	0	32564	
5254	0	32524	
5255	0	32508	
5256	0	32496	
5257	0	32484	
5258	0	32484	
5259	0	32512	
5260	0	32560	
5261	0	32584	
5262	0	32584	
5263	0	32632	
5264	0	32704	
5265	0	32736	
5266	0	32754	
5267	0	32772	
5268	0	32780	
5269	0	32772	
5270	0	32740	
5271	0	32720	
5272	0	32668	
5273	0	32648	
5274	0	32656	
5275	0	32688	
5276	0	32738	
5277	0	32808	
5278	0	32872	
5279	0	32892	
5280	0	32860	
5281	0	32772	
5282	0	32680	
5283	0	32642	
5284	0	32648	
5285	0	32676	
5286	0	32754	
5287	0	32864	
5288	0	32960	
5289	0	33024	
5290	0	33088	
5291	0	33148	
5292	0	33196	
5293	0	33208	
5294	0	33188	
5295	0	33208	
5296	0	33244	
5297	0	33288	
5298	0	33296	
5299	0	33296	
5300	0	33312	
5301	0	33364	
5302	0	33412	
5303	0	33472	
5304	0	33560	
5305	0	33640	
5306	0	33680	
5307	0	33704	
5308	0	33712	
5309	0	33724	
5310	0	33740	
5311	0	33768	
5312	0	33764	
5313	0	33754	
5314	0	33760	
5315	0	33792	
5316	0	33780	
5317	0	33720	
5318	0	33648	
5319	0	33604	
5320	0	33596	
5321	0	33600	
5322	0	33612	
5323	0	33668	
5324	0	33728	
5325	0	33796	
5326	0	33860	
5327	0	33888	
5328	0	33912	
5329	0	33924	
5330	0	33944	
5331	0	33952	
5332	0	33980	
5333	0	34016	
5334	0	34024	
5335	0	34044	
5336	0	34080	
5337	0	34096	
5338	0	34072	
5339	0	34044	
5340	0	34040	
5341	0	34080	
5342	0	34106	
5343	0	34140	
5344	0	34144	
5345	0	34176	
5346	0	34188	
5347	0	34188	
5348	0	34168	
5349	0	34132	
5350	0	34092	
5351	0	34062	
5352	0	34072	
5353	0	34116	
5354	0	34160	
5355	0	34176	
5356	0	34164	
5357	0	34152	
5358	0	34120	
5359	0	34144	
5360	0	34144	
5361	0	34152	
5362	0	34152	
5363	0	34144	
5364	0	34144	
5365	0	34140	
5366	0	34100	
5367	0	34052	
5368	0	33996	
5369	0	33956	
5370	0	33908	
5371	0	33860	
5372	0	33804	
5373	0	33752	
5374	0	33732	
5375	0	33760	
5376	0	33760	
5377	0	33732	
5378	0	33692	
5379	0	33644	
5380	0	33592	
5381	0	33528	
5382	0	33504	
5383	0	33508	
5384	0	33554	
5385	0	33650	
5386	0	33680	
5387	0	33704	
5388	0	33712	
5389	0	33704	
5390	0	33708	
5391	0	33680	
5392	0	33620	
5393	0	33556	
5394	0	33516	
5395	0	33456	
5396	0	33456	
5397	0	33456	
5398	0	33448	
5399	0	33472	
5400	0	33480	
5401	0	33496	
5402	0	33528	
5403	0	33560	
5404	0	33548	
5405	0	33588	
5406	0	33644	
5407	0	33760	
5408	0	33844	
5409	0	33836	
5410	0	33784	
5411	0	33796	
5412	0	33792	
5413	0	33754	
5414	0	33728	
5415	0	33694	
5416	0	33632	
5417	0	33576	
5418	0	33544	
5419	0	33588	
5420	0	33632	
5421	0	33648	
5422	0	33640	
5423	0	33648	
5424	0	33604	
5425	0	33536	
5426	0	33488	
5427	0	33434	
5428	0	33376	
5429	0	33314	
5430	0	33276	
5431	0	33272	
5432	0	33248	
5433	0	33236	
5434	0	33260	
5435	0	33288	
5436	0	33312	
5437	0	33304	
5438	0	33256	
5439	0	33248	
5440	0	33252	
5441	0	33276	
5442	0	33304	
5443	0	33278	
5444	0	33236	
5445	0	33212	
5446	0	33240	
5447	0	33288	
5448	0	33316	
5449	0	33384	
5450	0	33484	
5451	0	33564	
5452	0	33608	
5453	0	33600	
5454	0	33528	
5455	0	33420	
5456	0	33332	
5457	0	33280	
5458	0	33208	
5459	0	33148	
5460	0	33152	
5461	0	33144	
5462	0	33098	
5463	0	33068	
5464	0	33100	
5465	0	33152	
5466	0	33216	
5467	0	33248	
5468	0	33252	
5469	0	33296	
5470	0	33328	
5471	0	33354	
5472	0	33352	
5473	0	33296	
5474	0	33254	
5475	0	33188	
5476	0	33152	
5477	0	33168	
5478	0	33216	
5479	0	33248	
5480	0	33332	
5481	0	33412	
5482	0	33456	
5483	0	33504	
5484	0	33536	
5485	0	33528	
5486	0	33480	
5487	0	33468	
5488	0	33486	
5489	0	33468	
5490	0	33436	
5491	0	33416	
5492	0	33370	
5493	0	33346	
5494	0	33324	
5495	0	33340	
5496	0	33384	
5497	0	33412	
5498	0	33432	
5499	0	33412	
5500	0	33410	
5501	0	33408	
5502	0	33444	
5503	0	33420	
5504	0	33420	
5505	0	33440	
5506	0	33452	
5507	0	33504	
5508	0	33552	
5509	0	33576	
5510	0	33556	
5511	0	33592	
5512	0	33616	
5513	0	33652	
5514	0	33644	
5515	0	33604	
5516	0	33596	
5517	0	33620	
5518	0	33656	
5519	0	33656	
5520	0	33708	
5521	0	33760	
5522	0	33756	
5523	0	33736	
5524	0	33720	
5525	0	33664	
5526	0	33556	
5527	0	33452	
5528	0	33384	
5529	0	33416	
5530	0	33458	
5531	0	33492	
5532	0	33512	
5533	0	33504	
5534	0	33516	
5535	0	33512	
5536	0	33502	
5537	0	33484	
5538	0	33444	
5539	0	33424	
5540	0	33432	
5541	0	33456	
5542	0	33520	
5543	0	33684	
5544	0	33860	
5545	0	34024	
5546	0	34228	
5547	0	34444	
5548	0	34604	
5549	0	34752	
5550	0	34868	
5551	0	34984	
5552	0	35056	
5553	0	35116	
5554	0	35204	
5555	0	35220	
5556	0	35184	
5557	0	35140	
5558	0	35168	
5559	0	35232	
5560	0	35272	
5561	0	35328	
5562	0	35400	
5563	0	35424	
5564	0	35416	
5565	0	35468	
5566	0	35600	
5567	0	35828	
5568	0	36176	
5569	0	36584	
5570	0	36960	
5571	0	37252	
5572	0	37368	
5573	0	37302	
5574	0	37194	
5575	0	37124	
5576	0	37096	
5577	0	37128	
5578	0	37130	
5579	0	37148	
5580	0	37254	
5581	0	37458	
5582	0	37712	
5583	0	37956	
5584	0	38136	
5585	0	38256	
5586	0	38200	
5587	0	38016	
5588	0	37800	
5589	0	37600	
5590	0	37444	
5591	0	37344	
5592	0	37232	
5593	0	37056	
5594	0	36890	
5595	0	36704	
5596	0	36508	
5597	0	36312	
5598	0	36088	
5599	0	35872	
5600	0	35692	
5601	0	35592	
5602	0	35508	
5603	0	35428	
5604	0	35336	
5605	0	35180	
5606	0	35064	
5607	0	34864	
5608	0	34596	
5609	0	34332	
5610	0	34068	
5611	0	33740	
5612	0	33440	
5613	0	33180	
5614	0	32960	
5615	0	32796	
5616	0	32696	
5617	0	32640	
5618	0	32588	
5619	0	32478	
5620	0	32388	
5621	0	32312	
5622	0	32264	
5623	0	32192	
5624	0	32064	
5625	0	31988	
5626	0	31960	
5627	0	31924	
5628	0	31888	
5629	0	31892	
5630	0	31956	
5631	0	32004	
5632	0	32048	
5633	0	32064	
5634	0	32048	
5635	0	32018	
5636	0	32056	
5637	0	32124	
5638	0	32148	
5639	0	32104	
5640	0	32024	
5641	0	31992	
5642	0	31986	
5643	0	31964	
5644	0	31920	
5645	0	31932	
5646	0	32024	
5647	0	32176	
5648	0	32296	
5649	0	32292	
5650	0	32252	
5651	0	32164	
5652	0	32024	
5653	0	31836	
5654	0	31692	
5655	0	31506	
5656	0	31268	
5657	0	31022	
5658	0	30748	
5659	0	30484	
5660	0	30280	
5661	0	30068	
5662	0	29806	
5663	0	29556	
5664	0	29436	
5665	0	29378	
5666	0	29344	
5667	0	29420	
5668	0	29664	
5669	0	30226	
5670	0	31048	
5671	0	32036	
5672	0	33188	
5673	0	34668	
5674	0	36348	
5675	0	38312	
5676	0	40712	
5677	0	43528	
5678	0	46728	
5679	0	50144	
5680	0	53872	
5681	0	57832	
5682	0	60640	
5683	0	62112	
5684	0	62868	
5685	0	63236	
5686	0	63380	
5687	0	63408	
5688	0	63376	
5689	0	63296	
5690	0	63224	
5691	0	63112	
5692	0	63008	
5693	0	62888	
5694	0	62784	
5695	0	62676	
5696	0	62572	
5697	0	62464	
5698	0	62344	
5699	0	62232	
5700	0	62120	
5701	0	62008	
5702	0	61896	
5703	0	61792	
5704	0	61696	
5705	0	61576	
5706	0	61472	
5707	0	61376	
5708	0	61264	
5709	0	60604	
5710	0	54656	
5711	0	49200	
5712	0	44512	
5713	0	40740	
5714	0	37672	
5715	0	35136	
5716	0	33056	
5717	0	31368	
5718	0	29992	
5719	0	28976	
5720	0	28256	
5721	0	27756	
5722	0	27328	
5723	0	26888	
5724	0	26436	
5725	0	26012	
5726	0	25540	
5727	0	25060	
5728	0	24604	
5729	0	24214	
5730	0	23886	
5731	0	23596	
5732	0	23320	
5733	0	23108	
5734	0	22858	
5735	0	22608	
5736	0	22432	
5737	0	22360	
5738	0	22306	
5739	0	22208	
5740	0	22168	
5741	0	22165	
5742	0	22196	
5743	0	22174	
5744	0	22168	
5745	0	22184	
5746	0	22202	
5747	0	22192	
5748	0	22178	
5749	0	22196	
5750	0	22228	
5751	0	22164	
5752	0	22144	
5753	0	22178	
5754	0	22248	
5755	0	22248	
5756	0	22272	
5757	0	22290	
5758	0	22254	
5759	0	22245	
5760	0	22252	
5761	0	22312	
5762	0	22493	
5763	0	22692	
5764	0	22872	
5765	0	23040	
5766	0	23156	
5767	0	23220	
5768	0	23360	
5769	0	23544	
5770	0	23716	
5771	0	23840	
5772	0	23884	
5773	0	23912	
5774	0	23948	
5775	0	23988	
5776	0	24060	
5777	0	24100	
5778	0	24136	
5779	0	24172	
5780	0	24276	
5781	0	24432	
5782	0	24572	
5783	0	24644	
5784	0	24656	
5785	0	24708	
5786	0	24748	
5787	0	24772	
5788	0	24852	
5789	0	24992	
5790	0	25234	
5791	0	25492	
5792	0	25692	
5793	0	25856	
5794	0	25984	
5795	0	26040	
5796	0	26052	
5797	0	25968	
5798	0	25856	
5799	0	25768	
5800	0	25764	
5801	0	25796	
5802	0	25848	
5803	0	25928	
5804	0	26048	
5805	0	26148	
5806	0	26308	
5807	0	26524	
5808	0	26756	
5809	0	26988	
5810	0	27170	
5811	0	27272	
5812	0	27280	
5813	0	27268	
5814	0	27264	
5815	0	27226	
5816	0	27212	
5817	0	27180	
5818	0	27100	
5819	0	27056	
5820	0	27064	
5821	0	27188	
5822	0	27452	
5823	0	27764	
5824	0	28064	
5825	0	28320	
5826	0	28536	
5827	0	28648	
5828	0	28668	
5829	0	28660	
5830	0	28624	
5831	0	28596	
5832	0	28620	
5833	0	28688	
5834	0	28768	
5835	0	28932	
5836	0	29086	
5837	0	29172	
5838	0	29202	
5839	0	29224	
5840	0	29232	
5841	0	29232	
5842	0	29298	
5843	0	29376	
5844	0	29516	
5845	0	29688	
5846	0	29812	
5847	0	29928	
5848	0	30088	
5849	0	30292	
5850	0	30500	
5851	0	30656	
5852	0	30752	
5853	0	30828	
5854	0	30896	
5855	0	30988	
5856	0	31064	
5857	0	31056	
5858	0	31032	
5859	0	30940	
5860	0	30864	
5861	0	30888	
5862	0	31004	
5863	0	31124	
5864	0	31240	
5865	0	31384	
5866	0	31560	
5867	0	31752	
5868	0	31912	
5869	0	32036	
5870	0	32108	
5871	0	32104	
5872	0	32066	
5873	0	32084	
5874	0	32100	
5875	0	32132	
5876	0	32128	
5877	0	32176	
5878	0	32204	
5879	0	32180	
5880	0	32098	
5881	0	32052	
5882	0	32078	
5883	0	32136	
5884	0	32162	
5885	0	32126	
5886	0	32056	
5887	0	31968	
5888	0	31852	
5889	0	31856	
5890	0	31956	
5891	0	32056	
5892	0	32152	
5893	0	32248	
5894	0	32328	
5895	0	32362	
5896	0	32380	
5897	0	32352	
5898	0	32288	
5899	0	32208	
5900	0	32200	
5901	0	32240	
5902	0	32332	
5903	0	32354	
5904	0	32344	
5905	0	32392	
5906	0	32520	
5907	0	32700	
5908	0	32902	
5909	0	32988	
5910	0	33058	
5911	0	33180	
5912	0	33396	
5913	0	33658	
5914	0	33860	
5915	0	33960	
5916	0	33972	
5917	0	33930	
5918	0	33904	
5919	0	33868	
5920	0	33816	
5921	0	33768	
5922	0	33688	
5923	0	33608	
5924	0	33528	
5925	0	33432	
5926	0	33200	
5927	0	32972	
5928	0	32768	
5929	0	32640	
5930	0	32646	
5931	0	32808	
5932	0	33008	
5933	0	33212	
5934	0	33432	
5935	0	33580	
5936	0	33600	
5937	0	33474	
5938	0	33248	
5939	0	32996	
5940	0	32844	
5941	0	32724	
5942	0	32641	
5943	0	32572	
5944	0	32564	
5945	0	32596	
5946	0	32724	
5947	0	32832	
5948	0	32836	
5949	0	32812	
5950	0	32804	
5951	0	32792	
5952	0	32752	
5953	0	32608	
5954	0	32464	
5955	0	32396	
5956	0	32392	
5957	0	32480	
5958	0	32640	
5959	0	32744	
5960	0	32808	
5961	0	32772	
5962	0	32692	
5963	0	32652	
5964	0	32652	
5965	0	32556	
5966	0	32480	
5967	0	32388	
5968	0	32264	
5969	0	32228	
5970	0	32288	
5971	0	32420	
5972	0	32608	
5973	0	32816	
5974	0	32964	
5975	0	33024	
5976	0	32960	
5977	0	32832	
5978	0	32688	
5979	0	32596	
5980	0	32616	
5981	0	32652	
5982	0	32640	
5983	0	32572	
5984	0	32552	
5985	0	32540	
5986	0	32552	
5987	0	32576	
5988	0	32676	
5989	0	32816	
5990	0	32896	
5991	0	32904	
5992	0	32858	
5993	0	32828	
5994	0	32844	
5995	0	32796	
5996	0	32684	
5997	0	32672	
5998	0	32716	
5999	0	32832	
6000	0	33040	
6001	0	33148	
6002	0	33140	
6003	0	33184	
6004	0	33248	
6005	0	33332	
6006	0	33400	
6007	0	33472	
6008	0	33504	
6009	0	33484	
6010	0	33444	
6011	0	33364	
6012	0	33220	
6013	0	33060	
6014	0	32988	
6015	0	32964	
6016	0	33044	
6017	0	33166	
6018	0	33348	
6019	0	33552	
6020	0	33748	
6021	0	33852	
6022	0	33884	
6023	0	33864	
6024	0	33754	
6025	0	33688	
6026	0	33660	
6027	0	33634	
6028	0	33584	
6029	0	33560	
6030	0	33652	
6031	0	33788	
6032	0	33942	
6033	0	34072	
6034	0	34180	
6035	0	34200	
6036	0	34168	
6037	0	34144	
6038	0	34144	
6039	0	34152	
6040	0	34240	
6041	0	34296	
6042	0	34216	
6043	0	34048	
6044	0	33820	
6045	0	33624	
6046	0	33572	
6047	0	33696	
6048	0	33868	
6049	0	34044	
6050	0	34248	
6051	0	34468	
6052	0	34648	
6053	0	34696	
6054	0	34672	
6055	0	34580	
6056	0	34432	
6057	0	34242	
6058	0	34048	
6059	0	33956	
6060	0	33960	
6061	0	33924	
6062	0	33960	
6063	0	34080	
6064	0	34224	
6065	0	34464	
6066	0	34712	
6067	0	34824	
6068	0	34858	
6069	0	34752	
6070	0	34594	
6071	0	34516	
6072	0	34400	
6073	0	34240	
6074	0	34080	
6075	0	33924	
6076	0	33772	
6077	0	33800	
6078	0	34004	
6079	0	34300	
6080	0	34508	
6081	0	34650	
6082	0	34820	
6083	0	34872	
6084	0	34784	
6085	0	34688	
6086	0	34622	
6087	0	34556	
6088	0	34496	
6089	0	34392	
6090	0	34256	
6091	0	34112	
6092	0	33918	
6093	0	33760	
6094	0	33684	
6095	0	33700	
6096	0	33816	
6097	0	33900	
6098	0	33980	
6099	0	34168	
6100	0	34292	
6101	0	34288	
6102	0	34228	
6103	0	34136	
6104	0	34028	
6105	0	33836	
6106	0	33616	
6107	0	33440	
6108	0	33344	
6109	0	33376	
6110	0	33472	
6111	0	33600	
6112	0	33720	
6113	0	33796	
6114	0	33852	
6115	0	33920	
6116	0	33904	
6117	0	33760	
6118	0	33720	
6119	0	33882	
6120	0	33992	
6121	0	34080	
6122	0	34092	
6123	0	34060	
6124	0	34044	
6125	0	33994	
6126	0	33888	
6127	0	33604	
6128	0	33312	
6129	0	33068	
6130	0	32824	
6131	0	32656	
6132	0	32596	
6133	0	32744	
6134	0	33088	
6135	0	33420	
6136	0	33712	
6137	0	33868	
6138	0	33856	
6139	0	33800	
6140	0	33696	
6141	0	33480	
6142	0	33282	
6143	0	33200	
6144	0	33292	
6145	0	33428	
6146	0	33596	
6147	0	33720	
6148	0	33760	
6149	0	33792	
6150	0	33808	
6151	0	33712	
6152	0	33604	
6153	0	33528	
6154	0	33544	
6155	0	33596	
6156	0	33552	
6157	0	33450	
6158	0	33328	
6159	0	33268	
6160	0	33236	
6161	0	33214	
6162	0	33260	
6163	0	33488	
6164	0	33728	
6165	0	33732	
6166	0	33530	
6167	0	33328	
6168	0	33212	
6169	0	33232	
6170	0	33344	
6171	0	33360	
6172	0	33240	
6173	0	33100	
6174	0	33048	
6175	0	33044	
6176	0	33044	
6177	0	33104	
6178	0	33228	
6179	0	33388	
6180	0	33512	
6181	0	33592	
6182	0	33736	
6183	0	33936	
6184	0	34104	
6185	0	34292	
6186	0	34476	
6187	0	34656	
6188	0	34864	
6189	0	35100	
6190	0	35192	
6191	0	35156	
6192	0	35120	
6193	0	35056	
6194	0	35016	
6195	0	34936	
6196	0	34820	
6197	0	34776	
6198	0	34744	
6199	0	34692	
6200	0	34604	
6201	0	34408	
6202	0	34240	
6203	0	34176	
6204	0	34296	
6205	0	34720	
6206	0	35332	
6207	0	35968	
6208	0	36572	
6209	0	37020	
6210	0	37316	
6211	0	37540	
6212	0	37588	
6213	0	37576	
6214	0	37560	
6215	0	37564	
6216	0	37532	
6217	0	37460	
6218	0	37428	
6219	0	37456	
6220	0	37524	
6221	0	37576	
6222	0	37726	
6223	0	37772	
6224	0	37636	
6225	0	37456	
6226	0	37256	
6227	0	37056	
6228	0	36850	
6229	0	36680	
6230	0	36594	
6231	0	36516	
6232	0	36392	
6233	0	36196	
6234	0	35918	
6235	0	35688	
6236	0	35604	
6237	0	35588	
6238	0	35516	
6239	0	35432	
6240	0	35397	
6241	0	35448	
6242	0	35452	
6243	0	35352	
6244	0	35168	
6245	0	34792	
6246	0	34240	
6247	0	33610	
6248	0	33120	
6249	0	32860	
6250	0	32736	
6251	0	32664	
6252	0	32600	
6253	0	32576	
6254	0	32576	
6255	0	32640	
6256	0	32740	
6257	0	32792	
6258	0	32792	
6259	0	32696	
6260	0	32456	
6261	0	32248	
6262	0	32116	
6263	0	32004	
6264	0	31868	
6265	0	31688	
6266	0	31360	
6267	0	31052	
6268	0	30836	
6269	0	30864	
6270	0	31148	
6271	0	31504	
6272	0	31788	
6273	0	32056	
6274	0	32248	
6275	0	32100	
6276	0	31600	
6277	0	31152	
6278	0	30936	
6279	0	30860	
6280	0	30856	
6281	0	31052	
6282	0	31474	
6283	0	31928	
6284	0	32300	
6285	0	32488	
6286	0	32596	
6287	0	32676	
6288	0	32636	
6289	0	32426	
6290	0	32136	
6291	0	31834	
6292	0	31552	
6293	0	31296	
6294	0	31060	
6295	0	30936	
6296	0	30860	
6297	0	30872	
6298	0	30912	
6299	0	30784	
6300	0	30536	
6301	0	30280	
6302	0	30024	
6303	0	29680	
6304	0	29400	
6305	0	29256	
6306	0	29472	
6307	0	30096	
6308	0	31004	
6309	0	32208	
6310	0	33600	
6311	0	35292	
6312	0	37034	
6313	0	39000	
6314	0	41408	
6315	0	44244	
6316	0	47348	
6317	0	50712	
6318	0	54492	
6319	0	58228	
6320	0	60392	
6321	0	61536	
6322	0	62120	
6323	0	62368	
6324	0	62464	
6325	0	62464	
6326	0	62424	
6327	0	62340	
6328	0	62244	
6329	0	62144	
6330	0	62036	
6331	0	61944	
6332	0	61844	
6333	0	61724	
6334	0	61616	
6335	0	61500	
6336	0	61416	
6337	0	61296	
6338	0	61184	
6339	0	61080	
6340	0	60992	
6341	0	60888	
6342	0	60780	
6343	0	60680	
6344	0	60576	
6345	0	60488	
6346	0	60376	
6347	0	57964	
6348	0	52188	
6349	0	46792	
6350	0	42156	
6351	0	38500	
6352	0	35772	
6353	0	33756	
6354	0	32328	
6355	0	31224	
6356	0	30112	
6357	0	28996	
6358	0	27996	
6359	0	27192	
6360	0	26516	
6361	0	25856	
6362	0	25204	
6363	0	24640	
6364	0	24128	
6365	0	23744	
6366	0	23520	
6367	0	23392	
6368	0	23280	
6369	0	23112	
6370	0	22914	
6371	0	22640	
6372	0	22340	
6373	0	22140	
6374	0	22040	
6375	0	21948	
6376	0	21760	
6377	0	21434	
6378	0	21072	
6379	0	20766	
6380	0	20637	
6381	0	20744	
6382	0	20952	
6383	0	21060	
6384	0	21156	
6385	0	21132	
6386	0	21008	
6387	0	20872	
6388	0	20832	
6389	0	20900	
6390	0	21016	
6391	0	21220	
6392	0	21536	
6393	0	21896	
6394	0	22184	
6395	0	22344	
6396	0	22496	
6397	0	22532	
6398	0	22444	
6399	0	22200	
6400	0	21868	
6401	0	21556	
6402	0	21320	
6403	0	21300	
6404	0	21600	
6405	0	22032	
6406	0	22508	
6407	0	22916	
6408	0	23180	
6409	0	23256	
6410	0	23244	
6411	0	23212	
6412	0	23140	
6413	0	23140	
6414	0	23124	
6415	0	23036	
6416	0	23048	
6417	0	23112	
6418	0	23244	
6419	0	23444	
6420	0	23656	
6421	0	23844	
6422	0	23990	
6423	0	24020	
6424	0	24044	
6425	0	24138	
6426	0	24252	
6427	0	24312	
6428	0	24360	
6429	0	24372	
6430	0	24408	
6431	0	24404	
6432	0	24364	
6433	0	24266	
6434	0	24330	
6435	0	24516	
6436	0	24808	
6437	0	25068	
6438	0	25308	
6439	0	25554	
6440	0	25764	
6441	0	25896	
6442	0	26080	
6443	0	26180	
6444	0	26172	
6445	0	26208	
6446	0	26212	
6447	0	26296	
6448	0	26420	
6449	0	26426	
6450	0	26318	
6451	0	26248	
6452	0	26216	
6453	0	26284	
6454	0	26442	
6455	0	26492	
6456	0	26536	
6457	0	26664	
6458	0	26840	
6459	0	26988	
6460	0	27096	
6461	0	27232	
6462	0	27320	
6463	0	27420	
6464	0	27600	
6465	0	27880	
6466	0	28256	
6467	0	28504	
6468	0	28638	
6469	0	28660	
6470	0	28548	
6471	0	28378	
6472	0	28218	
6473	0	28028	
6474	0	27904	
6475	0	27924	
6476	0	28084	
6477	0	28286	
6478	0	28324	
6479	0	28344	
6480	0	28528	
6481	0	28860	
6482	0	29230	
6483	0	29572	
6484	0	29824	
6485	0	29948	
6486	0	29988	
6487	0	30016	
6488	0	30020	
6489	0	30008	
6490	0	29936	
6491	0	29920	
6492	0	30004	
6493	0	30164	
6494	0	30348	
6495	0	30564	
6496	0	30800	
6497	0	30836	
6498	0	30844	
6499	0	30880	
6500	0	30884	
6501	0	30652	
6502	0	30432	
6503	0	30308	
6504	0	30288	
6505	0	30458	
6506	0	30628	
6507	0	30712	
6508	0	30824	
6509	0	31080	
6510	0	31416	
6511	0	31728	
6512	0	31968	
6513	0	32120	
6514	0	32138	
6515	0	32032	
6516	0	31840	
6517	0	31560	
6518	0	31272	
6519	0	31028	
6520	0	30882	
6521	0	30784	
6522	0	30848	
6523	0	31016	
6524	0	31280	
6525	0	31552	
6526	0	31744	
6527	0	31888	
6528	0	32024	
6529	0	32116	
6530	0	32220	
6531	0	32360	
6532	0	32448	
6533	0	32482	
6534	0	32452	
6535	0	32356	
6536	0	32200	
6537	0	32028	
6538	0	31872	
6539	0	31720	
6540	0	31572	
6541	0	31544	
6542	0	31572	
6543	0	31626	
6544	0	31706	
6545	0	31840	
6546	0	31984	
6547	0	32116	
6548	0	32148	
6549	0	32180	
6550	0	32344	
6551	0	32676	
6552	0	33056	
6553	0	33324	
6554	0	33236	
6555	0	32820	
6556	0	32324	
6557	0	31966	
6558	0	31744	
6559	0	31586	
6560	0	31484	
6561	0	31420	
6562	0	31489	
6563	0	31706	
6564	0	31944	
6565	0	31992	
6566	0	31888	
6567	0	31738	
6568	0	31636	
6569	0	31476	
6570	0	31328	
6571	0	31176	
6572	0	31104	
6573	0	31168	
6574	0	31352	
6575	0	31440	
6576	0	31368	
6577	0	31088	
6578	0	30748	
6579	0	30514	
6580	0	30284	
6581	0	30000	
6582	0	29896	
6583	0	30160	
6584	0	30704	
6585	0	31204	
6586	0	31508	
6587	0	31688	
6588	0	31728	
6589	0	31568	
6590	0	31228	
6591	0	30920	
6592	0	30688	
6593	0	30432	
6594	0	30304	
6595	0	30240	
6596	0	30388	
6597	0	30624	
6598	0	30828	
6599	0	30868	
6600	0	30912	
6601	0	31028	
6602	0	31144	
6603	0	31274	
6604	0	31356	
6605	0	31296	
6606	0	31082	
6607	0	30920	
6608	0	30644	
6609	0	30128	
6610	0	29676	
6611	0	29388	
6612	0	29248	
6613	0	29436	
6614	0	29772	
6615	0	30244	
6616	0	30800	
6617	0	31270	
6618	0	31528	
6619	0	31572	
6620	0	31528	
6621	0	31384	
6622	0	31168	
6623	0	30792	
6624	0	30496	
6625	0	30480	
6626	0	30520	
6627	0	30592	
6628	0	30812	
6629	0	30932	
6630	0	31016	
6631	0	31100	
6632	0	31148	
6633	0	31216	
6634	0	31300	
6635	0	31452	
6636	0	31568	
6637	0	31680	
6638	0	31784	
6639	0	31824	
6640	0	31784	
6641	0	31648	
6642	0	31476	
6643	0	31408	
6644	0	31424	
6645	0	31512	
6646	0	31504	
6647	0	31524	
6648	0	31576	
6649	0	31672	
6650	0	31740	
6651	0	31748	
6652	0	31688	
6653	0	31634	
6654	0	31476	
6655	0	31284	
6656	0	31200	
6657	0	31256	
6658	0	31352	
6659	0	31584	
6660	0	31892	
6661	0	32262	
6662	0	32588	
6663	0	32700	
6664	0	32612	
6665	0	32496	
6666	0	32384	
6667	0	32036	
6668	0	31700	
6669	0	31624	
6670	0	31824	
6671	0	32032	
6672	0	32196	
6673	0	32416	
6674	0	32738	
6675	0	33200	
6676	0	33628	
6677	0	33744	
6678	0	33648	
6679	0	33346	
6680	0	33144	
6681	0	33064	
6682	0	33024	
6683	0	33084	
6684	0	33200	
6685	0	33288	
6686	0	33296	
6687	0	33268	
6688	0	33192	
6689	0	33026	
6690	0	32756	
6691	0	32428	
6692	0	32280	
6693	0	32368	
6694	0	32652	
6695	0	32980	
6696	0	33256	
6697	0	33528	
6698	0	33688	
6699	0	33690	
6700	0	33612	
6701	0	33408	
6702	0	33252	
6703	0	33080	
6704	0	32804	
6705	0	32580	
6706	0	32512	
6707	0	32532	
6708	0	32572	
6709	0	32604	
6710	0	32616	
6711	0	32560	
6712	0	32504	
6713	0	32484	
6714	0	32560	
6715	0	32668	
6716	0	32864	
6717	0	33184	
6718	0	33516	
6719	0	33772	
6720	0	33952	
6721	0	34044	
6722	0	34096	
6723	0	34032	
6724	0	33904	
6725	0	33760	
6726	0	33596	
6727	0	33508	
6728	0	33416	
6729	0	33228	
6730	0	32952	
6731	0	32728	
6732	0	32704	
6733	0	32848	
6734	0	33028	
6735	0	33024	
6736	0	33088	
6737	0	33204	
6738	0	33064	
6739	0	32700	
6740	0	32348	
6741	0	32188	
6742	0	32244	
6743	0	32464	
6744	0	32672	
6745	0	32716	
6746	0	32884	
6747	0	33156	
6748	0	33472	
6749	0	33656	
6750	0	33642	
6751	0	33504	
6752	0	33352	
6753	0	33276	
6754	0	33114	
6755	0	32800	
6756	0	32512	
6757	0	32354	
6758	0	32200	
6759	0	32112	
6760	0	32116	
6761	0	32268	
6762	0	32472	
6763	0	32888	
6764	0	33344	
6765	0	33596	
6766	0	33580	
6767	0	33360	
6768	0	33030	
6769	0	32858	
6770	0	32736	
6771	0	32528	
6772	0	32312	
6773	0	32152	
6774	0	32108	
6775	0	32172	
6776	0	32282	
6777	0	32352	
6778	0	32396	
6779	0	32464	
6780	0	32560	
6781	0	32684	
6782	0	32848	
6783	0	33016	
6784	0	33184	
6785	0	33272	
6786	0	33256	
6787	0	33264	
6788	0	33244	
6789	0	33288	
6790	0	33348	
6791	0	33496	
6792	0	33736	
6793	0	33928	
6794	0	34084	
6795	0	34152	
6796	0	34184	
6797	0	34228	
6798	0	34184	
6799	0	33904	
6800	0	33588	
6801	0	33380	
6802	0	33388	
6803	0	33436	
6804	0	33464	
6805	0	33552	
6806	0	33620	
6807	0	33728	
6808	0	33804	
6809	0	33908	
6810	0	34272	
6811	0	34800	
6812	0	35188	
6813	0	35308	
6814	0	35230	
6815	0	35248	
6816	0	35424	
6817	0	35620	
6818	0	35920	
6819	0	36228	
6820	0	36504	
6821	0	36736	
6822	0	36880	
6823	0	36888	
6824	0	36772	
6825	0	36808	
6826	0	36994	
6827	0	37028	
6828	0	36816	
6829	0	36556	
6830	0	36272	
6831	0	35972	
6832	0	35800	
6833	0	35696	
6834	0	35744	
6835	0	36116	
6836	0	36628	
6837	0	36928	
6838	0	37048	
6839	0	37072	
6840	0	36960	
6841	0	36676	
6842	0	36404	
6843	0	36088	
6844	0	35660	
6845	0	35200	
6846	0	34736	
6847	0	34328	
6848	0	33844	
6849	0	33452	
6850	0	33204	
6851	0	33020	
6852	0	32820	
6853	0	32596	
6854	0	32368	
6855	0	32120	
6856	0	31936	
6857	0	31872	
6858	0	31840	
6859	0	31664	
6860	0	31408	
6861	0	31320	
6862	0	31296	
6863	0	31364	
6864	0	31420	
6865	0	31436	
6866	0	31488	
6867	0	31396	
6868	0	31104	
6869	0	30776	
6870	0	30590	
6871	0	30666	
6872	0	30924	
6873	0	31124	
6874	0	31112	
6875	0	30936	
6876	0	30826	
6877	0	30880	
6878	0	31032	
6879	0	31252	
6880	0	31568	
6881	0	31672	
6882	0	31412	
6883	0	31088	
6884	0	31048	
6885	0	31092	
6886	0	31216	
6887	0	31224	
6888	0	31104	
6889	0	31084	
6890	0	31032	
6891	0	30900	
6892	0	30944	
6893	0	30976	
6894	0	30976	
6895	0	30880	
6896	0	30876	
6897	0	30852	
6898	0	30796	
6899	0	30728	
6900	0	30754	
6901	0	30832	
6902	0	30784	
6903	0	30616	
6904	0	30376	
6905	0	30080	
6906	0	29736	
6907	0	29564	
6908	0	29508	
6909	0	29516	
6910	0	29684	
6911	0	30028	
6912	0	30332	
6913	0	30732	
6914	0	31556	
6915	0	32720	
6916	0	34112	
6917	0	35676	
6918	0	37236	
6919	0	39104	
6920	0	41524	
6921	0	44432	
6922	0	47660	
6923	0	51212	
6924	0	55096	
6925	0	59040	
6926	0	61432	
6927	0	62708	
6928	0	63340	
6929	0	63632	
6930	0	63752	
6931	0	63744	
6932	0	63684	
6933	0	63612	
6934	0	63516	
6935	0	63408	
6936	0	63304	
6937	0	63188	
6938	0	63068	
6939	0	62948	
6940	0	62848	
6941	0	62720	
6942	0	62596	
6943	0	62516	
6944	0	62384	
6945	0	62272	
6946	0	62160	
6947	0	62048	
6948	0	61936	
6949	0	61824	
6950	0	61712	
6951	0	61616	
6952	0	61496	
6953	0	56848	
6954	0	50984	
6955	0	45240	
6956	0	40300	
6957	0	36608	
6958	0	33900	
6959	0	31948	
6960	0	30424	
6961	0	29188	
6962	0	28144	
6963	0	27232	
6964	0	26484	
6965	0	25928	
6966	0	25436	
6967	0	24944	
6968	0	24468	
6969	0	23936	
6970	0	23468	
6971	0	23120	
6972	0	22892	
6973	0	22708	
6974	0	22432	
6975	0	22108	
6976	0	21968	
6977	0	21824	
6978	0	21456	
6979	0	21056	
6980	0	20784	
6981	0	20620	
6982	0	20542	
6983	0	20472	
6984	0	20484	
6985	0	20564	
6986	0	20616	
6987	0	20560	
6988	0	20562	
6989	0	20632	
6990	0	20614	
6991	0	20464	
6992	0	20368	
6993	0	20344	
6994	0	20416	
6995	0	20440	
6996	0	20480	
6997	0	20486	
6998	0	20400	
6999	0	20364	
7000	0	20478	
7001	0	20714	
7002	0	20944	
7003	0	21028	
7004	0	21008	
7005	0	21064	
7006	0	21084	
7007	0	21052	
7008	0	20984	
7009	0	20996	
7010	0	21172	
7011	0	21348	
7012	0	21360	
7013	0	21378	
7014	0	21408	
7015	0	21448	
7016	0	21556	
7017	0	21760	
7018	0	22044	
7019	0	22376	
7020	0	22698	
7021	0	22880	
7022	0	22988	
7023	0	23088	
7024	0	23180	
7025	0	23336	
7026	0	23488	
7027	0	23488	
7028	0	23328	
7029	0	23164	
7030	0	23100	
7031	0	23028	
7032	0	22964	
7033	0	23096	
7034	0	23332	
7035	0	23776	
7036	0	24392	
7037	0	24864	
7038	0	25024	
7039	0	24956	
7040	0	24760	
7041	0	24500	
7042	0	24216	
7043	0	24148	
7044	0	24160	
7045	0	24224	
7046	0	24420	
7047	0	24612	
7048	0	24696	
7049	0	24840	
7050	0	24958	
7051	0	25114	
7052	0	25252	
7053	0	25524	
7054	0	25752	
7055	0	25784	
7056	0	25860	
7057	0	25906	
7058	0	25852	
7059	0	25704	
7060	0	25612	
7061	0	25608	
7062	0	25588	
7063	0	25544	
7064	0	25620	
7065	0	26086	
7066	0	26552	
7067	0	26792	
7068	0	26998	
7069	0	27348	
7070	0	27720	
7071	0	28016	
7072	0	28080	
7073	0	27910	
7074	0	27620	
7075	0	27550	
7076	0	27568	
7077	0	27584	
7078	0	27440	
7079	0	27388	
7080	0	27384	
7081	0	27656	
7082	0	28156	
7083	0	28660	
7084	0	29104	
7085	0	29252	
7086	0	29104	
7087	0	28900	
7088	0	28818	
7089	0	28804	
7090	0	28920	
7091	0	29036	
7092	0	28952	
7093	0	28672	
7094	0	28520	
7095	0	28676	
7096	0	28962	
7097	0	29164	
7098	0	29230	
7099	0	29368	
7100	0	29672	
7101	0	29940	
7102	0	30172	
7103	0	30360	
7104	0	30612	
7105	0	30792	
7106	0	30844	
7107	0	30988	
7108	0	31162	
7109	0	31296	
7110	0	31380	
7111	0	31428	
7112	0	31424	
7113	0	31328	
7114	0	31228	
7115	0	31124	
7116	0	31008	
7117	0	30860	
7118	0	30936	
7119	0	31124	
7120	0	31360	
7121	0	31450	
7122	0	31444	
7123	0	31464	
7124	0	31528	
7125	0	31532	
7126	0	31432	
7127	0	31428	
7128	0	31496	
7129	0	31428	
7130	0	31248	
7131	0	31216	
7132	0	31364	
7133	0	31572	
7134	0	31690	
7135	0	31700	
7136	0	31704	
7137	0	31652	
7138	0	31552	
7139	0	31488	
7140	0	31460	
7141	0	31500	
7142	0	31448	
7143	0	31400	
7144	0	31440	
7145	0	31504	
7146	0	31660	
7147	0	31904	
7148	0	32308	
7149	0	32700	
7150	0	33032	
7151	0	33172	
7152	0	32944	
7153	0	32440	
7154	0	31936	
7155	0	31648	
7156	0	31432	
7157	0	31404	
7158	0	31600	
7159	0	31840	
7160	0	31864	
7161	0	31632	
7162	0	31528	
7163	0	31568	
7164	0	31508	
7165	0	31324	
7166	0	31068	
7167	0	30832	
7168	0	30560	
7169	0	30220	
7170	0	30060	
7171	0	30192	
7172	0	30580	
7173	0	30984	
7174	0	31076	
7175	0	30944	
7176	0	30860	
7177	0	30640	
7178	0	30404	
7179	0	30328	
7180	0	30310	
7181	0	30216	
7182	0	30024	
7183	0	29824	
7184	0	29792	
7185	0	30068	
7186	0	30372	
7187	0	30528	
7188	0	30528	
7189	0	30496	
7190	0	30392	
7191	0	30320	
7192	0	30264	
7193	0	30072	
7194	0	29856	
7195	0	29756	
7196	0	29866	
7197	0	30050	
7198	0	30124	
7199	0	30114	
7200	0	29992	
7201	0	29804	
7202	0	29748	
7203	0	29712	
7204	0	29598	
7205	0	29424	
7206	0	29332	
7207	0	29348	
7208	0	29324	
7209	0	29452	
7210	0	29776	
7211	0	30092	
7212	0	30268	
7213	0	30410	
7214	0	30496	
7215	0	30460	
7216	0	30264	
7217	0	30020	
7218	0	29768	
7219	0	29568	
7220	0	29516	
7221	0	29608	
7222	0	29760	
7223	0	29864	
7224	0	30044	
7225	0	30212	
7226	0	30256	
7227	0	30048	
7228	0	29820	
7229	0	29752	
7230	0	29744	
7231	0	29906	
7232	0	30112	
7233	0	30344	
7234	0	30480	
7235	0	30572	
7236	0	30512	
7237	0	30344	
7238	0	30248	
7239	0	30136	
7240	0	30088	
7241	0	30016	
7242	0	29976	
7243	0	29952	
7244	0	29880	
7245	0	30040	
7246	0	30488	
7247	0	30820	
7248	0	30912	
7249	0	30816	
7250	0	30714	
7251	0	30704	
7252	0	30672	
7253	0	30620	
7254	0	30660	
7255	0	30840	
7256	0	31080	
7257	0	31200	
7258	0	31236	
7259	0	31248	
7260	0	31316	
7261	0	31212	
7262	0	31060	
7263	0	31144	
7264	0	31376	
7265	0	31616	
7266	0	31692	
7267	0	31632	
7268	0	31650	
7269	0	31668	
7270	0	31752	
7271	0	31812	
7272	0	31664	
7273	0	31420	
7274	0	31396	
7275	0	31530	
7276	0	31776	
7277	0	31978	
7278	0	32080	
7279	0	32130	
7280	0	32068	
7281	0	31940	
7282	0	31892	
7283	0	31812	
7284	0	31684	
7285	0	31740	
7286	0	31952	
7287	0	32276	
7288	0	32508	
7289	0	32516	
7290	0	32356	
7291	0	32124	
7292	0	31832	
7293	0	31864	
7294	0	32128	
7295	0	32320	
7296	0	32380	
7297	0	32364	
7298	0	32244	
7299	0	32252	
7300	0	32392	
7301	0	32572	
7302	0	32592	
7303	0	32624	
7304	0	32868	
7305	0	33184	
7306	0	33306	
7307	0	33306	
7308	0	33256	
7309	0	32942	
7310	0	32564	
7311	0	32408	
7312	0	32448	
7313	0	32516	
7314	0	32456	
7315	0	32296	
7316	0	32084	
7317	0	31960	
7318	0	31840	
7319	0	31872	
7320	0	32128	
7321	0	32472	
7322	0	32808	
7323	0	33004	
7324	0	33096	
7325	0	33052	
7326	0	32964	
7327	0	32856	
7328	0	32740	
7329	0	32776	
7330	0	32832	
7331	0	32968	
7332	0	33132	
7333	0	33166	
7334	0	33128	
7335	0	33108	
7336	0	33096	
7337	0	32976	
7338	0	32832	
7339	0	32796	
7340	0	32664	
7341	0	32504	
7342	0	32386	
7343	0	32144	
7344	0	31912	
7345	0	31868	
7346	0	31920	
7347	0	32036	
7348	0	32236	
7349	0	32428	
7350	0	32632	
7351	0	32816	
7352	0	32800	
7353	0	32676	
7354	0	32732	
7355	0	32868	
7356	0	32948	
7357	0	32972	
7358	0	32844	
7359	0	32698	
7360	0	32644	
7361	0	32504	
7362	0	32268	
7363	0	32068	
7364	0	31848	
7365	0	31776	
7366	0	31944	
7367	0	32220	
7368	0	32456	
7369	0	32556	
7370	0	32628	
7371	0	32824	
7372	0	32880	
7373	0	32700	
7374	0	32488	
7375	0	32316	
7376	0	32224	
7377	0	32184	
7378	0	32348	
7379	0	32808	
7380	0	33400	
7381	0	33664	
7382	0	33632	
7383	0	33612	
7384	0	33568	
7385	0	33548	
7386	0	33512	
7387	0	33448	
7388	0	33408	
7389	0	33352	
7390	0	33224	
7391	0	33096	
7392	0	32936	
7393	0	32824	
7394	0	32960	
7395	0	33248	
7396	0	33672	
7397	0	34056	
7398	0	34368	
7399	0	34556	
7400	0	34648	
7401	0	34556	
7402	0	34596	
7403	0	34916	
7404	0	35208	
7405	0	35468	
7406	0	35580	
7407	0	35504	
7408	0	35360	
7409	0	35274	
7410	0	35178	
7411	0	35168	
7412	0	35460	
7413	0	35960	
7414	0	36448	
7415	0	36716	
7416	0	36588	
7417	0	36416	
7418	0	36384	
7419	0	36356	
7420	0	36264	
7421	0	36128	
7422	0	36004	
7423	0	35992	
7424	0	36044	
7425	0	35916	
7426	0	35776	
7427	0	35792	
7428	0	35904	
7429	0	36072	
7430	0	36240	
7431	0	36376	
7432	0	36448	
7433	0	36296	
7434	0	35972	
7435	0	35652	
7436	0	35332	
7437	0	34872	
7438	0	34508	
7439	0	34360	
7440	0	34160	
7441	0	33980	
7442	0	33740	
7443	0	33566	
7444	0	33396	
7445	0	33048	
7446	0	32640	
7447	0	32404	
7448	0	32436	
7449	0	32496	
7450	0	32364	
7451	0	31964	
7452	0	31596	
7453	0	31572	
7454	0	31796	
7455	0	31844	
7456	0	31532	
7457	0	31192	
7458	0	30996	
7459	0	31060	
7460	0	31184	
7461	0	31208	
7462	0	31212	
7463	0	31228	
7464	0	31276	
7465	0	31264	
7466	0	31140	
7467	0	30976	
7468	0	30862	
7469	0	30912	
7470	0	30972	
7471	0	31044	
7472	0	31112	
7473	0	31164	
7474	0	31188	
7475	0	31288	
7476	0	31370	
7477	0	31436	
7478	0	31524	
7479	0	31668	
7480	0	31802	
7481	0	31828	
7482	0	31748	
7483	0	31580	
7484	0	31360	
7485	0	31148	
7486	0	30926	
7487	0	30748	
7488	0	30728	
7489	0	30848	
7490	0	30928	
7491	0	30980	
7492	0	31000	
7493	0	30964	
7494	0	30908	
7495	0	30762	
7496	0	30588	
7497	0	30460	
7498	0	30348	
7499	0	30202	
7500	0	30228	
7501	0	30320	
7502	0	30468	
7503	0	30864	
7504	0	31268	
7505	0	31652	
7506	0	32128	
7507	0	32808	
7508	0	33800	
7509	0	35288	
7510	0	36964	
7511	0	38636	
7512	0	40624	
7513	0	43236	
7514	0	46212	
7515	0	49432	
7516	0	53056	
7517	0	57056	
7518	0	61048	
7519	0	63452	
7520	0	64712	
7521	0	65352	
7522	0	65535	
7523	0	65535	
7524	0	65535	
7525	0	65535	
7526	0	65535	
7527	0	65472	
7528	0	65352	
7529	0	65240	
7530	0	65120	
7531	0	64992	
7532	0	64864	
7533	0	64740	
7534	0	64620	
7535	0	64496	
7536	0	64376	
7537	0	64248	
7538	0	64120	
7539	0	63992	
7540	0	63888	
7541	0	63772	
7542	0	63640	
7543	0	63536	
7544	0	63388	
7545	0	63096	
7546	0	56512	
7547	0	50352	
7548	0	44624	
7549	0	40000	
7550	0	36528	
7551	0	33976	
7552	0	32096	
7553	0	30600	
7554	0	29144	
7555	0	27836	
7556	0	26882	
7557	0	26296	
7558	0	25882	
7559	0	25400	
7560	0	24924	
7561	0	24552	
7562	0	24180	
7563	0	23820	
7564	0	23474	
7565	0	23082	
7566	0	22684	
7567	0	22528	
7568	0	22542	
7569	0	22556	
7570	0	22422	
7571	0	22232	
7572	0	22128	
7573	0	22032	
7574	0	21872	
7575	0	21688	
7576	0	21448	
7577	0	21228	
7578	0	20962	
7579	0	20776	
7580	0	20746	
7581	0	20851	
7582	0	20846	
7583	0	20872	
7584	0	21058	
7585	0	21160	
7586	0	21220	
7587	0	21280	
7588	0	21300	
7589	0	21252	
7590	0	21196	
7591	0	21348	
7592	0	21556	
7593	0	21616	
7594	0	21608	
7595	0	21728	
7596	0	21992	
7597	0	22172	
7598	0	22316	
7599	0	22344	
7600	0	22312	
7601	0	22386	
7602	0	22576	
7603	0	22788	
7604	0	22916	
7605	0	22912	
7606	0	22880	
7607	0	23058	
7608	0	23144	
7609	0	23144	
7610	0	23176	
7611	0	23338	
7612	0	23592	
7613	0	23880	
7614	0	23996	
7615	0	24002	
7616	0	23916	
7617	0	23920	
7618	0	23962	
7619	0	23948	
7620	0	24028	
7621	0	24206	
7622	0	24282	
7623	0	24256	
7624	0	24228	
7625	0	24256	
7626	0	24324	
7627	0	24652	
7628	0	25040	
7629	0	25440	
7630	0	25752	
7631	0	25880	
7632	0	25860	
7633	0	25744	
7634	0	25652	
7635	0	25560	
7636	0	25604	
7637	0	25900	
7638	0	26248	
7639	0	26472	
7640	0	26554	
7641	0	26512	
7642	0	26440	
7643	0	26494	
7644	0	26616	
7645	0	26728	
7646	0	26800	
7647	0	26992	
7648	0	27404	
7649	0	27812	
7650	0	27928	
7651	0	27704	
7652	0	27340	
7653	0	27128	
7654	0	27178	
7655	0	27292	
7656	0	27392	
7657	0	27680	
7658	0	28108	
7659	0	28500	
7660	0	28756	
7661	0	28904	
7662	0	28948	
7663	0	28984	
7664	0	28900	
7665	0	28780	
7666	0	28706	
7667	0	28642	
7668	0	28572	
7669	0	28602	
7670	0	28760	
7671	0	28976	
7672	0	29176	
7673	0	29428	
7674	0	29636	
7675	0	29732	
7676	0	29724	
7677	0	29736	
7678	0	29880	
7679	0	30112	
7680	0	30308	
7681	0	30486	
7682	0	30584	
7683	0	30736	
7684	0	31008	
7685	0	31312	
7686	0	31544	
7687	0	31736	
7688	0	31932	
7689	0	31988	
7690	0	31892	
7691	0	31760	
7692	0	31736	
7693	0	31768	
7694	0	31864	
7695	0	32084	
7696	0	32284	
7697	0	32356	
7698	0	32440	
7699	0	32388	
7700	0	32276	
7701	0	32352	
7702	0	32528	
7703	0	32696	
7704	0	32816	
7705	0	32960	
7706	0	33104	
7707	0	33132	
7708	0	33160	
7709	0	33312	
7710	0	33472	
7711	0	33492	
7712	0	33460	
7713	0	33408	
7714	0	33344	
7715	0	33328	
7716	0	33352	
7717	0	33420	
7718	0	33536	
7719	0	33760	
7720	0	34028	
7721	0	34224	
7722	0	34210	
7723	0	33996	
7724	0	34002	
7725	0	34164	
7726	0	34240	
7727	0	34152	
7728	0	34088	
7729	0	34128	
7730	0	34296	
7731	0	34460	
7732	0	34492	
7733	0	34368	
7734	0	34240	
7735	0	34192	
7736	0	34196	
7737	0	34292	
7738	0	34456	
7739	0	34560	
7740	0	34596	
7741	0	34644	
7742	0	34736	
7743	0	34736	
7744	0	34560	
7745	0	34348	
7746	0	34284	
7747	0	34386	
7748	0	34420	
7749	0	34340	
7750	0	34312	
7751	0	34264	
7752	0	34264	
7753	0	34336	
7754	0	34348	
7755	0	34308	
7756	0	34272	
7757	0	34372	
7758	0	34472	
7759	0	34532	
7760	0	34508	
7761	0	34352	
7762	0	34208	
7763	0	34076	
7764	0	33960	
7765	0	33880	
7766	0	33764	
7767	0	33624	
7768	0	33328	
7769	0	32944	
7770	0	32748	
7771	0	32840	
7772	0	33028	
7773	0	33216	
7774	0	33272	
7775	0	33312	
7776	0	33340	
7777	0	33432	
7778	0	33524	
7779	0	33568	
7780	0	33576	
7781	0	33504	
7782	0	33388	
7783	0	33176	
7784	0	32856	
7785	0	32592	
7786	0	32504	
7787	0	32584	
7788	0	32716	
7789	0	32760	
7790	0	32684	
7791	0	32592	
7792	0	32544	
7793	0	32584	
7794	0	32728	
7795	0	32832	
7796	0	32916	
7797	0	32980	
7798	0	33108	
7799	0	33196	
7800	0	33248	
7801	0	33320	
7802	0	33396	
7803	0	33472	
7804	0	33484	
7805	0	33408	
7806	0	33344	
7807	0	33264	
7808	0	33212	
7809	0	33138	
7810	0	33148	
7811	0	33208	
7812	0	33236	
7813	0	33228	
7814	0	33164	
7815	0	32972	
7816	0	32916	
7817	0	33032	
7818	0	33156	
7819	0	33328	
7820	0	33360	
7821	0	33312	
7822	0	33352	
7823	0	33488	
7824	0	33660	
7825	0	33724	
7826	0	33658	
7827	0	33472	
7828	0	33238	
7829	0	33056	
7830	0	32956	
7831	0	32932	
7832	0	32960	
7833	0	33020	
7834	0	33264	
7835	0	33764	
7836	0	34204	
7837	0	34452	
7838	0	34668	
7839	0	34792	
7840	0	34768	
7841	0	34592	
7842	0	34420	
7843	0	34300	
7844	0	34104	
7845	0	33892	
7846	0	33912	
7847	0	34076	
7848	0	34232	
7849	0	34392	
7850	0	34460	
7851	0	34488	
7852	0	34512	
7853	0	34522	
7854	0	34476	
7855	0	34480	
7856	0	34436	
7857	0	34324	
7858	0	34352	
7859	0	34436	
7860	0	34548	
7861	0	34636	
7862	0	34644	
7863	0	34692	
7864	0	34752	
7865	0	34844	
7866	0	35068	
7867	0	35384	
7868	0	35592	
7869	0	35464	
7870	0	35280	
7871	0	35128	
7872	0	35060	
7873	0	35008	
7874	0	34976	
7875	0	35032	
7876	0	35092	
7877	0	35248	
7878	0	35528	
7879	0	35730	
7880	0	35804	
7881	0	35896	
7882	0	36032	
7883	0	36040	
7884	0	35940	
7885	0	35936	
7886	0	35912	
7887	0	35848	
7888	0	35780	
7889	0	35860	
7890	0	36028	
7891	0	36068	
7892	0	36068	
7893	0	36058	
7894	0	36040	
7895	0	36096	
7896	0	36136	
7897	0	36164	
7898	0	36192	
7899	0	36092	
7900	0	36032	
7901	0	36056	
7902	0	36184	
7903	0	36332	
7904	0	36420	
7905	0	36384	
7906	0	36228	
7907	0	35972	
7908	0	35716	
7909	0	35532	
7910	0	35452	
7911	0	35500	
7912	0	35732	
7913	0	36016	
7914	0	36316	
7915	0	36696	
7916	0	36864	
7917	0	36792	
7918	0	36576	
7919	0	36428	
7920	0	36378	
7921	0	36432	
7922	0	36532	
7923	0	36704	
7924	0	36844	
7925	0	36820	
7926	0	36600	
7927	0	36404	
7928	0	36274	
7929	0	36184	
7930	0	36128	
7931	0	36108	
7932	0	36084	
7933	0	36156	
7934	0	36308	
7935	0	36404	
7936	0	36376	
7937	0	36276	
7938	0	36196	
7939	0	36116	
7940	0	35920	
7941	0	35824	
7942	0	35808	
7943	0	35772	
7944	0	35716	
7945	0	35756	
7946	0	35884	
7947	0	36172	
7948	0	36408	
7949	0	36480	
7950	0	36600	
7951	0	36710	
7952	0	36640	
7953	0	36318	
7954	0	36028	
7955	0	35824	
7956	0	35744	
7957	0	35804	
7958	0	35948	
7959	0	36104	
7960	0	36280	
7961	0	36332	
7962	0	36228	
7963	0	36092	
7964	0	36124	
7965	0	36300	
7966	0	36472	
7967	0	36570	
7968	0	36508	
7969	0	36404	
7970	0	36340	
7971	0	36400	
7972	0	36444	
7973	0	36416	
7974	0	36508	
7975	0	36648	
7976	0	36848	
7977	0	36972	
7978	0	37036	
7979	0	37114	
7980	0	37136	
7981	0	37160	
7982	0	37228	
7983	0	37228	
7984	0	37200	
7985	0	37168	
7986	0	37156	
7987	0	37252	
7988	0	37392	
7989	0	37328	
7990	0	37208	
7991	0	37180	
7992	0	37154	
7993	0	37092	
7994	0	36956	
7995	0	36892	
7996	0	37032	
7997	0	37448	
7998	0	38032	
7999	0	38688	
8000	0	39304	
8001	0	39698	
8002	0	39880	
8003	0	39976	
8004	0	39988	
8005	0	39844	
8006	0	39720	
8007	0	39664	
8008	0	39764	
8009	0	39928	
8010	0	40060	
8011	0	40164	
8012	0	40344	
8013	0	40460	
8014	0	40448	
8015	0	40408	
8016	0	40392	
8017	0	40412	
8018	0	40364	
8019	0	40228	
8020	0	40144	
8021	0	40064	
8022	0	39944	
8023	0	39858	
8024	0	39904	
8025	0	39912	
8026	0	39780	
8027	0	39712	
8028	0	39680	
8029	0	39600	
8030	0	39300	
8031	0	39012	
8032	0	38736	
8033	0	38432	
8034	0	38208	
8035	0	37948	
8036	0	37648	
8037	0	37360	
8038	0	37152	
8039	0	37024	
8040	0	36788	
8041	0	36448	
8042	0	36168	
8043	0	35904	
8044	0	35656	
8045	0	35396	
8046	0	35196	
8047	0	35088	
8048	0	35104	
8049	0	35188	
8050	0	35228	
8051	0	35208	
8052	0	35104	
8053	0	35156	
8054	0	35332	
8055	0	35228	
8056	0	34940	
8057	0	34764	
8058	0	34780	
8059	0	34744	
8060	0	34720	
8061	0	34788	
8062	0	34934	
8063	0	34912	
8064	0	34688	
8065	0	34464	
8066	0	34348	
8067	0	34328	
8068	0	34424	
8069	0	34664	
8070	0	35004	
8071	0	35308	
8072	0	35460	
8073	0	35484	
8074	0	35376	
8075	0	35228	
8076	0	35076	
8077	0	34940	
8078	0	34884	
8079	0	34840	
8080	0	34768	
8081	0	34680	
8082	0	34512	
8083	0	34444	
8084	0	34292	
8085	0	34160	
8086	0	34198	
8087	0	34320	
8088	0	34432	
8089	0	34420	
8090	0	34320	
8091	0	34256	
8092	0	34256	
8093	0	34362	
8094	0	34420	
8095	0	34368	
8096	0	34202	
8097	0	34068	
8098	0	34024	
8099	0	34004	
8100	0	34088	
8101	0	34382	
8102	0	35020	
8103	0	36044	
8104	0	37356	
8105	0	38884	
8106	0	40528	
8107	0	42556	
8108	0	45320	
8109	0	48598	
8110	0	52112	
8111	0	55824	
8112	0	58804	
8113	0	60404	
8114	0	61240	
8115	0	61644	
8116	0	61816	
8117	0	61876	
8118	0	61852	
8119	0	61800	
8120	0	61708	
8121	0	61644	
8122	0	61540	
8123	0	61424	
8124	0	61328	
8125	0	61244	
8126	0	61148	
8127	0	61036	
8128	0	60934	
8129	0	60840	
8130	0	60720	
8131	0	60640	
8132	0	60532	
8133	0	60424	
8134	0	60344	
8135	0	60240	
8136	0	60112	
8137	0	60040	
8138	0	59944	
8139	0	59844	
8140	0	59752	
8141	0	59668	
8142	0	57872	
8143	0	51348	
8144	0	46060	
8145	0	42048	
8146	0	38996	
8147	0	36524	
8148	0	34568	
8149	0	33032	
8150	0	31884	
8151	0	31088	
8152	0	30552	
8153	0	30008	
8154	0	29432	
8155	0	28890	
8156	0	28416	
8157	0	28064	
8158	0	27868	
8159	0	27676	
8160	0	27480	
8161	0	27196	
8162	0	26956	
8163	0	26784	
8164	0	26528	
8165	0	26184	
8166	0	25872	
8167	0	25588	
8168	0	25276	
8169	0	25000	
8170	0	24884	
8171	0	24888	
8172	0	24920	
8173	0	24876	
8174	0	24836	
8175	0	24868	
8176	0	24944	
8177	0	25048	
8178	0	25184	
8179	0	25150	
8180	0	25140	
8181	0	25122	
8182	0	25082	
8183	0	25036	
8184	0	25064	
8185	0	25048	
8186	0	24960	
8187	0	24896	
8188	0	24936	
8189	0	25064	
8190	0	25160	
8191	0	25236	
8192	0	25376	
8193	0	25528	
8194	0	25652	
8195	0	25676	
8196	0	25682	
8197	0	25836	
8198	0	26084	
8199	0	26256	
8200	0	26264	
8201	0	26176	
8202	0	26122	
8203	0	26244	
8204	0	26428	
8205	0	26508	
8206	0	26576	
8207	0	26688	
8208	0	26792	
8209	0	26912	
8210	0	27008	
8211	0	27106	
8212	0	27262	
8213	0	27364	
8214	0	27408	
8215	0	27394	
8216	0	27392	
8217	0	27488	
8218	0	27712	
8219	0	27942	
8220	0	28048	
8221	0	28056	
8222	0	28072	
8223	0	28044	
8224	0	28044	
8225	0	28128	
8226	0	28148	
8227	0	28180	
8228	0	28192	
8229	0	28216	
8230	0	28316	
8231	0	28410	
8232	0	28556	
8233	0	28748	
8234	0	28916	
8235	0	29048	
8236	0	29220	
8237	0	29442	
8238	0	29602	
8239	0	29624	
8240	0	29584	
8241	0	29560	
8242	0	29472	
8243	0	29348	
8244	0	29296	
8245	0	29420	
8246	0	29696	
8247	0	30064	
8248	0	30400	
8249	0	30608	
8250	0	30776	
8251	0	30848	
8252	0	30816	
8253	0	30816	
8254	0	30780	
8255	0	30744	
8256	0	30726	
8257	0	30748	
8258	0	30826	
8259	0	30944	
8260	0	31040	
8261	0	31236	
8262	0	31536	
8263	0	31744	
8264	0	31876	
8265	0	31984	
8266	0	32040	
8267	0	32048	
8268	0	32076	
8269	0	32156	
8270	0	32196	
8271	0	32204	
8272	0	32192	
8273	0	32192	
8274	0	32200	
8275	0	32256	
8276	0	32376	
8277	0	32580	
8278	0	32844	
8279	0	33052	
8280	0	33152	
8281	0	33244	
8282	0	33232	
8283	0	33150	
8284	0	33184	
8285	0	33384	
8286	0	33664	
8287	0	33988	
8288	0	34336	
8289	0	34562	
8290	0	34600	
8291	0	34580	
8292	0	34572	
8293	0	34552	
8294	0	34536	
8295	0	34492	
8296	0	34456	
8297	0	34500	
8298	0	34600	
8299	0	34748	
8300	0	34976	
8301	0	35168	
8302	0	35252	
8303	0	35268	
8304	0	35308	
8305	0	35296	
8306	0	35276	
8307	0	35272	
8308	0	35288	
8309	0	35276	
8310	0	35248	
8311	0	35204	
8312	0	35184	
8313	0	35260	
8314	0	35424	
8315	0	35528	
8316	0	35552	
8317	0	35552	
8318	0	35588	
8319	0	35636	
8320	0	35680	
8321	0	35618	
8322	0	35580	
8323	0	35660	
8324	0	35884	
8325	0	36122	
8326	0	36332	
8327	0	36456	
8328	0	36556	
8329	0	36692	
8330	0	36764	
8331	0	36728	
8332	0	36540	
8333	0	36352	
8334	0	36224	
8335	0	36044	
8336	0	35920	
8337	0	35964	
8338	0	36212	
8339	0	36572	
8340	0	36832	
8341	0	36900	
8342	0	36744	
8343	0	36504	
8344	0	36432	
8345	0	36464	
8346	0	36480	
8347	0	36440	
8348	0	36368	
8349	0	36352	
8350	0	36296	
8351	0	36132	
8352	0	36048	
8353	0	36008	
8354	0	36008	
8355	0	35980	
8356	0	35864	
8357	0	35688	
8358	0	35456	
8359	0	35292	
8360	0	35164	
8361	0	35074	
8362	0	34948	
8363	0	34764	
8364	0	34592	
8365	0	34548	
8366	0	34664	
8367	0	34760	
8368	0	34748	
8369	0	34684	
8370	0	34664	
8371	0	34652	
8372	0	34604	
8373	0	34508	
8374	0	34288	
8375	0	34124	
8376	0	33892	
8377	0	33760	
8378	0	33632	
8379	0	33560	
8380	0	33704	
8381	0	33960	
8382	0	34136	
8383	0	34152	
8384	0	34196	
8385	0	34272	
8386	0	34340	
8387	0	34416	
8388	0	34522	
8389	0	34616	
8390	0	34624	
8391	0	34496	
8392	0	34328	
8393	0	34168	
8394	0	34036	
8395	0	33928	
8396	0	33932	
8397	0	34008	
8398	0	34040	
8399	0	34040	
8400	0	33980	
8401	0	33984	
8402	0	34096	
8403	0	34208	
8404	0	34200	
8405	0	34148	
8406	0	34080	
8407	0	33928	
8408	0	33748	
8409	0	33660	
8410	0	33696	
8411	0	33760	
8412	0	33808	
8413	0	33892	
8414	0	34018	
8415	0	34144	
8416	0	34272	
8417	0	34306	
8418	0	34192	
8419	0	34032	
8420	0	33968	
8421	0	33988	
8422	0	34084	
8423	0	34204	
8424	0	34312	
8425	0	34372	
8426	0	34368	
8427	0	34248	
8428	0	34096	
8429	0	33924	
8430	0	33824	
8431	0	33852	
8432	0	33944	
8433	0	34120	
8434	0	34260	
8435	0	34360	
8436	0	34480	
8437	0	34544	
8438	0	34516	
8439	0	34506	
8440	0	34516	
8441	0	34516	
8442	0	34512	
8443	0	34528	
8444	0	34512	
8445	0	34512	
8446	0	34516	
8447	0	34496	
8448	0	34492	
8449	0	34532	
8450	0	34668	
8451	0	34800	
8452	0	34952	
8453	0	35088	
8454	0	35092	
8455	0	35088	
8456	0	35068	
8457	0	34928	
8458	0	34836	
8459	0	34882	
8460	0	34896	
8461	0	34952	
8462	0	35044	
8463	0	35064	
8464	0	35048	
8465	0	35116	
8466	0	35224	
8467	0	35304	
8468	0	35308	
8469	0	35276	
8470	0	35180	
8471	0	35132	
8472	0	35136	
8473	0	35140	
8474	0	35234	
8475	0	35416	
8476	0	35468	
8477	0	35464	
8478	0	35484	
8479	0	35428	
8480	0	35340	
8481	0	35352	
8482	0	35456	
8483	0	35560	
8484	0	35564	
8485	0	35580	
8486	0	35648	
8487	0	35664	
8488	0	35700	
8489	0	35780	
8490	0	35916	
8491	0	35972	
8492	0	35992	
8493	0	35976	
8494	0	35992	
8495	0	35976	
8496	0	35912	
8497	0	35840	
8498	0	35744	
8499	0	35716	
8500	0	35704	
8501	0	35676	
8502	0	35696	
8503	0	35728	
8504	0	35776	
8505	0	35864	
8506	0	35872	
8507	0	35800	
8508	0	35732	
8509	0	35632	
8510	0	35604	
8511	0	35456	
8512	0	35280	
8513	0	35168	
8514	0	35216	
8515	0	35388	
8516	0	35552	
8517	0	35680	
8518	0	35796	
8519	0	35840	
8520	0	35828	
8521	0	35820	
8522	0	35872	
8523	0	35786	
8524	0	35636	
8525	0	35604	
8526	0	35724	
8527	0	35856	
8528	0	35936	
8529	0	35968	
8530	0	35868	
8531	0	35644	
8532	0	35424	
8533	0	35284	
8534	0	35216	
8535	0	35140	
8536	0	35064	
8537	0	35028	
8538	0	35044	
8539	0	35068	
8540	0	35116	
8541	0	35252	
8542	0	35408	
8543	0	35484	
8544	0	35512	
8545	0	35544	
8546	0	35548	
8547	0	35532	
8548	0	35432	
8549	0	35264	
8550	0	35124	
8551	0	35052	
8552	0	35004	
8553	0	34952	
8554	0	34976	
8555	0	35052	
8556	0	35040	
8557	0	35008	
8558	0	34936	
8559	0	34852	
8560	0	34884	
8561	0	34992	
8562	0	35052	
8563	0	35026	
8564	0	35052	
8565	0	35144	
8566	0	35178	
8567	0	35184	
8568	0	35240	
8569	0	35232	
8570	0	35212	
8571	0	35224	
8572	0	35140	
8573	0	35000	
8574	0	34904	
8575	0	34900	
8576	0	34904	
8577	0	34920	
8578	0	34912	
8579	0	34916	
8580	0	34968	
8581	0	34952	
8582	0	34900	
8583	0	34884	
8584	0	35008	
8585	0	35116	
8586	0	35144	
8587	0	35100	
8588	0	35120	
8589	0	35284	
8590	0	35416	
8591	0	35508	
