# OpenSignals Text File Format. Version 1
# {"00:07:80:4B:15:F7": {"position": 0, "device": "biosignalsplux", "device name": "00:07:80:4B:15:F7", "device connection": "BTH00:07:80:4B:15:F7", "sampling rate": 1000, "resolution": [16], "firmware version": 775, "comments": "", "keywords": "", "mode": 0, "sync interval": 2, "date": "2023-4-12", "time": "14:25:20.894", "channels": [1], "sensor": ["ECG"], "label": ["CH1"], "column": ["nSeq", "DI", "CH1"], "special": [{"SpO2": [80, 40, 5, 4, 3, 3]}, {"SpO2": [80, 40, 5, 4, 3, 3]}, {"SpO2": [80, 40, 5, 4, 3, 3]}, {"SpO2": [80, 40, 5, 4, 3, 3]}, {"SpO2": [80, 40, 5, 4, 3, 3]}, {"SpO2": [80, 40, 5, 4, 3, 3]}, {"SpO2": [80, 40, 5, 4, 3, 3]}, {"SpO2": [80, 40, 5, 4, 3, 3]}], "digital IO": [0, 1], "sleeve color": ["green"], "convertedValues": 0}}
# EndOfHeader
0	0	32322	
1	0	32188	
2	0	32088	
3	0	32092	
4	0	32108	
5	0	32092	
6	0	32060	
7	0	31976	
8	0	31872	
9	0	31802	
10	0	31640	
11	0	31384	
12	0	31150	
13	0	31072	
14	0	31112	
15	0	31216	
16	0	31322	
17	0	31408	
18	0	31500	
19	0	31532	
20	0	31652	
21	0	31808	
22	0	31976	
23	0	32208	
24	0	32432	
25	0	32628	
26	0	32792	
27	0	32924	
28	0	33028	
29	0	33152	
30	0	33218	
31	0	33184	
32	0	33084	
33	0	32936	
34	0	32832	
35	0	32850	
36	0	32908	
37	0	33016	
38	0	33104	
39	0	33170	
40	0	33200	
41	0	33236	
42	0	33336	
43	0	33484	
44	0	33660	
45	0	33840	
46	0	34004	
47	0	34160	
48	0	34316	
49	0	34492	
50	0	34584	
51	0	34628	
52	0	34676	
53	0	34672	
54	0	34656	
55	0	34698	
56	0	34864	
57	0	35020	
58	0	35048	
59	0	34976	
60	0	34944	
61	0	34896	
62	0	34772	
63	0	34636	
64	0	34528	
65	0	34492	
66	0	34480	
67	0	34400	
68	0	34368	
69	0	34384	
70	0	34328	
71	0	34206	
72	0	34082	
73	0	34000	
74	0	34004	
75	0	34120	
76	0	34244	
77	0	34268	
78	0	34296	
79	0	34300	
80	0	34144	
81	0	33816	
82	0	33476	
83	0	33292	
84	0	33180	
85	0	33080	
86	0	32968	
87	0	32960	
88	0	33068	
89	0	33156	
90	0	33244	
91	0	33240	
92	0	33092	
93	0	32780	
94	0	32416	
95	0	32032	
96	0	31584	
97	0	31264	
98	0	31072	
99	0	30892	
100	0	30708	
101	0	30556	
102	0	30560	
103	0	30580	
104	0	30580	
105	0	30370	
106	0	30128	
107	0	30068	
108	0	30104	
109	0	29974	
110	0	29748	
111	0	29656	
112	0	29776	
113	0	30028	
114	0	30408	
115	0	30824	
116	0	31180	
117	0	31312	
118	0	31384	
119	0	31416	
120	0	31428	
121	0	31476	
122	0	31552	
123	0	31560	
124	0	31588	
125	0	31584	
126	0	31624	
127	0	31648	
128	0	31596	
129	0	31448	
130	0	31328	
131	0	31132	
132	0	30880	
133	0	30612	
134	0	30384	
135	0	30264	
136	0	30320	
137	0	30596	
138	0	31000	
139	0	31420	
140	0	31704	
141	0	31780	
142	0	31602	
143	0	31352	
144	0	31148	
145	0	31060	
146	0	31154	
147	0	31376	
148	0	31560	
149	0	31672	
150	0	31752	
151	0	31780	
152	0	31768	
153	0	31810	
154	0	31908	
155	0	32028	
156	0	32192	
157	0	32384	
158	0	32488	
159	0	32424	
160	0	32220	
161	0	32060	
162	0	31978	
163	0	31964	
164	0	31980	
165	0	32020	
166	0	32000	
167	0	31892	
168	0	31596	
169	0	31180	
170	0	30748	
171	0	30288	
172	0	29796	
173	0	29284	
174	0	28786	
175	0	28368	
176	0	28154	
177	0	28212	
178	0	28540	
179	0	29072	
180	0	29836	
181	0	30626	
182	0	31464	
183	0	32364	
184	0	33260	
185	0	34128	
186	0	35108	
187	0	36384	
188	0	38112	
189	0	40128	
190	0	42168	
191	0	44136	
192	0	46160	
193	0	48216	
194	0	50268	
195	0	52460	
196	0	54760	
197	0	57108	
198	0	59504	
199	0	61832	
200	0	63552	
201	0	64424	
202	0	64852	
203	0	65024	
204	0	65064	
205	0	65012	
206	0	64932	
207	0	64832	
208	0	64696	
209	0	64112	
210	0	59364	
211	0	55032	
212	0	50460	
213	0	45732	
214	0	41240	
215	0	37244	
216	0	33932	
217	0	31248	
218	0	29132	
219	0	27568	
220	0	26380	
221	0	25568	
222	0	25132	
223	0	24906	
224	0	24776	
225	0	24538	
226	0	24224	
227	0	23936	
228	0	23732	
229	0	23582	
230	0	23576	
231	0	23704	
232	0	23808	
233	0	24100	
234	0	24624	
235	0	25316	
236	0	25904	
237	0	26568	
238	0	27404	
239	0	28248	
240	0	28916	
241	0	29400	
242	0	29628	
243	0	29652	
244	0	29600	
245	0	29680	
246	0	29852	
247	0	30004	
248	0	30058	
249	0	29952	
250	0	29796	
251	0	29616	
252	0	29516	
253	0	29508	
254	0	29596	
255	0	29680	
256	0	29720	
257	0	29892	
258	0	30136	
259	0	30256	
260	0	30292	
261	0	30212	
262	0	30060	
263	0	30084	
264	0	30288	
265	0	30492	
266	0	30640	
267	0	30784	
268	0	30892	
269	0	30924	
270	0	30880	
271	0	30770	
272	0	30704	
273	0	30652	
274	0	30536	
275	0	30424	
276	0	30436	
277	0	30552	
278	0	30674	
279	0	30730	
280	0	30700	
281	0	30776	
282	0	30952	
283	0	31148	
284	0	31322	
285	0	31424	
286	0	31422	
287	0	31286	
288	0	31140	
289	0	31044	
290	0	31024	
291	0	31108	
292	0	31312	
293	0	31456	
294	0	31480	
295	0	31528	
296	0	31544	
297	0	31592	
298	0	31640	
299	0	31688	
300	0	31648	
301	0	31544	
302	0	31508	
303	0	31560	
304	0	31680	
305	0	31788	
306	0	31800	
307	0	31820	
308	0	31840	
309	0	31756	
310	0	31648	
311	0	31544	
312	0	31496	
313	0	31560	
314	0	31752	
315	0	31944	
316	0	32072	
317	0	32056	
318	0	31920	
319	0	31744	
320	0	31620	
321	0	31640	
322	0	31802	
323	0	31940	
324	0	32032	
325	0	32128	
326	0	32236	
327	0	32404	
328	0	32648	
329	0	32775	
330	0	32816	
331	0	32904	
332	0	33000	
333	0	33052	
334	0	33084	
335	0	33136	
336	0	33196	
337	0	33260	
338	0	33240	
339	0	33144	
340	0	33024	
341	0	32934	
342	0	32952	
343	0	33026	
344	0	33070	
345	0	33044	
346	0	33088	
347	0	33188	
348	0	33242	
349	0	33208	
350	0	33146	
351	0	33112	
352	0	33020	
353	0	32908	
354	0	32908	
355	0	33064	
356	0	33384	
357	0	33672	
358	0	33744	
359	0	33760	
360	0	33836	
361	0	33876	
362	0	33850	
363	0	33872	
364	0	33998	
365	0	34104	
366	0	34172	
367	0	34328	
368	0	34397	
369	0	34280	
370	0	33992	
371	0	33776	
372	0	33680	
373	0	33688	
374	0	33852	
375	0	34132	
376	0	34402	
377	0	34536	
378	0	34568	
379	0	34582	
380	0	34544	
381	0	34572	
382	0	34592	
383	0	34608	
384	0	34544	
385	0	34488	
386	0	34508	
387	0	34544	
388	0	34650	
389	0	34716	
390	0	34692	
391	0	34652	
392	0	34704	
393	0	34868	
394	0	35122	
395	0	35336	
396	0	35524	
397	0	35784	
398	0	36076	
399	0	36260	
400	0	36260	
401	0	36128	
402	0	35936	
403	0	35768	
404	0	35716	
405	0	35740	
406	0	35808	
407	0	35920	
408	0	36052	
409	0	36128	
410	0	36120	
411	0	36116	
412	0	36156	
413	0	36220	
414	0	36272	
415	0	36416	
416	0	36512	
417	0	36588	
418	0	36700	
419	0	36760	
420	0	36704	
421	0	36672	
422	0	36648	
423	0	36634	
424	0	36648	
425	0	36636	
426	0	36612	
427	0	36580	
428	0	36532	
429	0	36420	
430	0	36248	
431	0	36104	
432	0	36064	
433	0	36152	
434	0	36284	
435	0	36428	
436	0	36580	
437	0	36764	
438	0	36928	
439	0	37024	
440	0	37032	
441	0	37048	
442	0	37120	
443	0	37192	
444	0	37164	
445	0	37084	
446	0	36988	
447	0	36812	
448	0	36628	
449	0	36404	
450	0	36100	
451	0	35752	
452	0	35516	
453	0	35432	
454	0	35456	
455	0	35556	
456	0	35628	
457	0	35632	
458	0	35676	
459	0	35720	
460	0	35684	
461	0	35496	
462	0	35320	
463	0	35164	
464	0	34980	
465	0	34852	
466	0	34792	
467	0	34724	
468	0	34576	
469	0	34432	
470	0	34352	
471	0	34304	
472	0	34260	
473	0	34232	
474	0	34188	
475	0	34164	
476	0	33992	
477	0	33624	
478	0	33156	
479	0	32884	
480	0	32556	
481	0	32144	
482	0	31904	
483	0	31776	
484	0	31748	
485	0	31664	
486	0	31568	
487	0	31476	
488	0	31480	
489	0	31556	
490	0	31620	
491	0	31612	
492	0	31484	
493	0	31360	
494	0	31234	
495	0	31072	
496	0	30824	
497	0	30568	
498	0	30424	
499	0	30380	
500	0	30336	
501	0	30216	
502	0	29976	
503	0	29664	
504	0	29362	
505	0	29152	
506	0	28984	
507	0	28896	
508	0	29088	
509	0	29352	
510	0	29506	
511	0	29520	
512	0	29424	
513	0	29288	
514	0	29212	
515	0	29152	
516	0	29188	
517	0	29246	
518	0	29296	
519	0	29328	
520	0	29304	
521	0	29188	
522	0	28964	
523	0	28720	
524	0	28576	
525	0	28584	
526	0	28672	
527	0	28736	
528	0	28786	
529	0	28760	
530	0	28592	
531	0	28284	
532	0	28096	
533	0	27956	
534	0	27788	
535	0	27636	
536	0	27556	
537	0	27666	
538	0	27964	
539	0	28312	
540	0	28564	
541	0	28792	
542	0	29036	
543	0	29308	
544	0	29560	
545	0	29662	
546	0	29608	
547	0	29528	
548	0	29506	
549	0	29460	
550	0	29376	
551	0	29336	
552	0	29372	
553	0	29457	
554	0	29488	
555	0	29472	
556	0	29496	
557	0	29512	
558	0	29496	
559	0	29440	
560	0	29416	
561	0	29340	
562	0	29216	
563	0	29108	
564	0	29020	
565	0	28912	
566	0	28904	
567	0	28928	
568	0	29090	
569	0	29312	
570	0	29516	
571	0	29776	
572	0	29936	
573	0	30136	
574	0	30444	
575	0	30692	
576	0	30816	
577	0	30852	
578	0	30812	
579	0	30732	
580	0	30650	
581	0	30672	
582	0	30712	
583	0	30712	
584	0	30684	
585	0	30732	
586	0	30776	
587	0	30746	
588	0	30644	
589	0	30512	
590	0	30384	
591	0	30320	
592	0	30250	
593	0	30152	
594	0	30016	
595	0	30060	
596	0	30268	
597	0	30496	
598	0	30736	
599	0	30984	
600	0	31108	
601	0	31112	
602	0	31128	
603	0	31168	
604	0	31252	
605	0	31364	
606	0	31432	
607	0	31432	
608	0	31324	
609	0	31136	
610	0	30992	
611	0	30874	
612	0	30836	
613	0	30864	
614	0	30976	
615	0	31186	
616	0	31418	
617	0	31548	
618	0	31568	
619	0	31444	
620	0	31320	
621	0	31256	
622	0	31236	
623	0	31296	
624	0	31360	
625	0	31436	
626	0	31496	
627	0	31492	
628	0	31488	
629	0	31586	
630	0	31668	
631	0	31684	
632	0	31628	
633	0	31544	
634	0	31472	
635	0	31458	
636	0	31476	
637	0	31464	
638	0	31448	
639	0	31452	
640	0	31424	
641	0	31440	
642	0	31492	
643	0	31440	
644	0	31372	
645	0	31260	
646	0	31248	
647	0	31388	
648	0	31616	
649	0	31876	
650	0	32060	
651	0	32132	
652	0	32048	
653	0	31932	
654	0	31824	
655	0	31770	
656	0	31828	
657	0	31872	
658	0	31852	
659	0	31776	
660	0	31696	
661	0	31528	
662	0	31360	
663	0	31256	
664	0	31220	
665	0	31260	
666	0	31292	
667	0	31176	
668	0	30988	
669	0	31008	
670	0	31164	
671	0	31322	
672	0	31456	
673	0	31652	
674	0	31828	
675	0	32004	
676	0	32136	
677	0	32240	
678	0	32268	
679	0	32144	
680	0	32004	
681	0	31896	
682	0	31816	
683	0	31816	
684	0	31848	
685	0	31832	
686	0	31852	
687	0	31912	
688	0	31960	
689	0	31994	
690	0	32012	
691	0	32032	
692	0	32032	
693	0	31976	
694	0	31916	
695	0	31816	
696	0	31714	
697	0	31578	
698	0	31548	
699	0	31604	
700	0	31752	
701	0	31796	
702	0	31712	
703	0	31676	
704	0	31744	
705	0	31896	
706	0	32076	
707	0	32116	
708	0	32060	
709	0	31924	
710	0	31780	
711	0	31660	
712	0	31640	
713	0	31716	
714	0	31796	
715	0	31808	
716	0	31924	
717	0	32064	
718	0	32168	
719	0	32276	
720	0	32386	
721	0	32520	
722	0	32684	
723	0	32840	
724	0	32932	
725	0	33052	
726	0	33164	
727	0	33248	
728	0	33296	
729	0	33294	
730	0	33324	
731	0	33424	
732	0	33480	
733	0	33492	
734	0	33520	
735	0	33540	
736	0	33504	
737	0	33456	
738	0	33436	
739	0	33432	
740	0	33416	
741	0	33344	
742	0	33264	
743	0	33276	
744	0	33312	
745	0	33432	
746	0	33640	
747	0	33792	
748	0	33716	
749	0	33548	
750	0	33516	
751	0	33656	
752	0	33952	
753	0	34268	
754	0	34484	
755	0	34740	
756	0	34956	
757	0	35128	
758	0	35208	
759	0	35232	
760	0	35236	
761	0	35098	
762	0	34836	
763	0	34612	
764	0	34464	
765	0	34424	
766	0	34534	
767	0	34744	
768	0	34964	
769	0	35056	
770	0	35040	
771	0	35048	
772	0	35092	
773	0	35180	
774	0	35168	
775	0	35004	
776	0	34712	
777	0	34280	
778	0	33724	
779	0	33112	
780	0	32512	
781	0	32032	
782	0	31684	
783	0	31586	
784	0	31712	
785	0	31920	
786	0	32032	
787	0	32048	
788	0	32008	
789	0	31828	
790	0	31520	
791	0	31188	
792	0	30868	
793	0	30556	
794	0	30360	
795	0	30344	
796	0	30496	
797	0	30744	
798	0	30992	
799	0	31200	
800	0	31316	
801	0	31320	
802	0	31348	
803	0	31388	
804	0	31354	
805	0	31276	
806	0	31148	
807	0	31072	
808	0	31068	
809	0	31044	
810	0	30960	
811	0	30912	
812	0	30960	
813	0	30992	
814	0	30984	
815	0	30952	
816	0	30960	
817	0	30988	
818	0	30920	
819	0	30740	
820	0	30456	
821	0	30300	
822	0	30256	
823	0	30100	
824	0	30000	
825	0	30146	
826	0	30504	
827	0	30856	
828	0	31176	
829	0	31380	
830	0	31436	
831	0	31436	
832	0	31536	
833	0	31748	
834	0	31944	
835	0	32024	
836	0	31992	
837	0	31904	
838	0	31776	
839	0	31704	
840	0	31648	
841	0	31572	
842	0	31496	
843	0	31448	
844	0	31408	
845	0	31412	
846	0	31456	
847	0	31508	
848	0	31536	
849	0	31580	
850	0	31596	
851	0	31552	
852	0	31460	
853	0	31312	
854	0	31168	
855	0	31134	
856	0	31212	
857	0	31340	
858	0	31420	
859	0	31532	
860	0	31724	
861	0	31848	
862	0	31838	
863	0	31808	
864	0	31672	
865	0	31448	
866	0	31128	
867	0	30738	
868	0	30266	
869	0	29712	
870	0	29172	
871	0	28770	
872	0	28636	
873	0	28776	
874	0	29128	
875	0	29514	
876	0	29980	
877	0	30556	
878	0	31228	
879	0	32048	
880	0	33024	
881	0	34144	
882	0	35472	
883	0	36960	
884	0	38748	
885	0	40656	
886	0	42572	
887	0	44452	
888	0	46380	
889	0	48384	
890	0	50440	
891	0	52664	
892	0	54932	
893	0	57188	
894	0	59468	
895	0	61776	
896	0	63524	
897	0	64412	
898	0	64858	
899	0	65040	
900	0	65056	
901	0	65024	
902	0	64960	
903	0	64836	
904	0	64744	
905	0	62600	
906	0	58132	
907	0	54004	
908	0	49652	
909	0	45136	
910	0	40856	
911	0	37020	
912	0	33704	
913	0	30920	
914	0	28600	
915	0	26920	
916	0	25640	
917	0	24816	
918	0	24452	
919	0	24360	
920	0	24404	
921	0	24396	
922	0	24348	
923	0	24314	
924	0	24120	
925	0	23812	
926	0	23600	
927	0	23460	
928	0	23460	
929	0	23784	
930	0	24212	
931	0	24696	
932	0	25341	
933	0	26270	
934	0	27134	
935	0	27828	
936	0	28456	
937	0	29004	
938	0	29408	
939	0	29664	
940	0	29838	
941	0	30050	
942	0	30328	
943	0	30544	
944	0	30622	
945	0	30656	
946	0	30736	
947	0	30788	
948	0	30784	
949	0	30788	
950	0	30772	
951	0	30720	
952	0	30616	
953	0	30508	
954	0	30396	
955	0	30300	
956	0	30250	
957	0	30212	
958	0	30272	
959	0	30340	
960	0	30344	
961	0	30320	
962	0	30346	
963	0	30440	
964	0	30500	
965	0	30580	
966	0	30648	
967	0	30660	
968	0	30608	
969	0	30568	
970	0	30592	
971	0	30600	
972	0	30576	
973	0	30560	
974	0	30496	
975	0	30428	
976	0	30536	
977	0	30748	
978	0	30940	
979	0	31076	
980	0	31204	
981	0	31340	
982	0	31378	
983	0	31348	
984	0	31348	
985	0	31316	
986	0	31300	
987	0	31316	
988	0	31358	
989	0	31400	
990	0	31420	
991	0	31436	
992	0	31504	
993	0	31600	
994	0	31680	
995	0	31708	
996	0	31648	
997	0	31432	
998	0	31044	
999	0	30736	
1000	0	30616	
1001	0	30698	
1002	0	30988	
1003	0	31392	
1004	0	31592	
1005	0	31688	
1006	0	31752	
1007	0	31880	
1008	0	32090	
1009	0	32332	
1010	0	32600	
1011	0	32692	
1012	0	32524	
1013	0	32324	
1014	0	32320	
1015	0	32464	
1016	0	32552	
1017	0	32464	
1018	0	32352	
1019	0	32320	
1020	0	32388	
1021	0	32544	
1022	0	32728	
1023	0	32920	
1024	0	33000	
1025	0	32956	
1026	0	32848	
1027	0	32730	
1028	0	32720	
1029	0	32732	
1030	0	32742	
1031	0	32752	
1032	0	32768	
1033	0	32784	
1034	0	32848	
1035	0	32996	
1036	0	33208	
1037	0	33376	
1038	0	33380	
1039	0	33262	
1040	0	33212	
1041	0	33158	
1042	0	33060	
1043	0	33080	
1044	0	33248	
1045	0	33452	
1046	0	33582	
1047	0	33624	
1048	0	33652	
1049	0	33592	
1050	0	33408	
1051	0	33156	
1052	0	32928	
1053	0	32816	
1054	0	32816	
1055	0	32992	
1056	0	33276	
1057	0	33628	
1058	0	33996	
1059	0	34308	
1060	0	34528	
1061	0	34680	
1062	0	34698	
1063	0	34692	
1064	0	34716	
1065	0	34732	
1066	0	34716	
1067	0	34658	
1068	0	34700	
1069	0	34772	
1070	0	34828	
1071	0	34760	
1072	0	34592	
1073	0	34444	
1074	0	34336	
1075	0	34216	
1076	0	34142	
1077	0	34208	
1078	0	34296	
1079	0	34340	
1080	0	34480	
1081	0	34672	
1082	0	34776	
1083	0	34796	
1084	0	34888	
1085	0	34952	
1086	0	35000	
1087	0	35144	
1088	0	35374	
1089	0	35604	
1090	0	35764	
1091	0	35846	
1092	0	35852	
1093	0	35852	
1094	0	35956	
1095	0	36000	
1096	0	35868	
1097	0	35680	
1098	0	35568	
1099	0	35556	
1100	0	35648	
1101	0	35808	
1102	0	35996	
1103	0	36204	
1104	0	36426	
1105	0	36538	
1106	0	36544	
1107	0	36512	
1108	0	36478	
1109	0	36412	
1110	0	36408	
1111	0	36428	
1112	0	36416	
1113	0	36354	
1114	0	36336	
1115	0	36276	
1116	0	36220	
1117	0	36148	
1118	0	36084	
1119	0	36024	
1120	0	36092	
1121	0	36216	
1122	0	36340	
1123	0	36404	
1124	0	36456	
1125	0	36484	
1126	0	36416	
1127	0	36352	
1128	0	36248	
1129	0	36056	
1130	0	35828	
1131	0	35722	
1132	0	35742	
1133	0	35848	
1134	0	36068	
1135	0	36448	
1136	0	36888	
1137	0	37192	
1138	0	37328	
1139	0	37344	
1140	0	37324	
1141	0	37364	
1142	0	37400	
1143	0	37364	
1144	0	37264	
1145	0	37112	
1146	0	37004	
1147	0	36900	
1148	0	36792	
1149	0	36648	
1150	0	36460	
1151	0	36248	
1152	0	36056	
1153	0	35872	
1154	0	35652	
1155	0	35360	
1156	0	35152	
1157	0	34996	
1158	0	34840	
1159	0	34772	
1160	0	34848	
1161	0	34920	
1162	0	34908	
1163	0	34818	
1164	0	34732	
1165	0	34616	
1166	0	34588	
1167	0	34604	
1168	0	34532	
1169	0	34260	
1170	0	33940	
1171	0	33684	
1172	0	33536	
1173	0	33408	
1174	0	33226	
1175	0	33032	
1176	0	32780	
1177	0	32456	
1178	0	32148	
1179	0	31888	
1180	0	31764	
1181	0	31694	
1182	0	31588	
1183	0	31504	
1184	0	31384	
1185	0	31176	
1186	0	30956	
1187	0	30804	
1188	0	30604	
1189	0	30392	
1190	0	30204	
1191	0	30016	
1192	0	29836	
1193	0	29632	
1194	0	29428	
1195	0	29160	
1196	0	28960	
1197	0	28864	
1198	0	28922	
1199	0	29176	
1200	0	29488	
1201	0	29800	
1202	0	29964	
1203	0	29976	
1204	0	29848	
1205	0	29764	
1206	0	29760	
1207	0	29776	
1208	0	29684	
1209	0	29512	
1210	0	29336	
1211	0	29140	
1212	0	28928	
1213	0	28796	
1214	0	28736	
1215	0	28610	
1216	0	28436	
1217	0	28280	
1218	0	28232	
1219	0	28316	
1220	0	28432	
1221	0	28492	
1222	0	28572	
1223	0	28792	
1224	0	29000	
1225	0	29112	
1226	0	29204	
1227	0	29204	
1228	0	29184	
1229	0	29112	
1230	0	29040	
1231	0	29004	
1232	0	29062	
1233	0	29124	
1234	0	29104	
1235	0	28992	
1236	0	28904	
1237	0	28932	
1238	0	28994	
1239	0	28924	
1240	0	28816	
1241	0	28652	
1242	0	28528	
1243	0	28536	
1244	0	28668	
1245	0	28878	
1246	0	29020	
1247	0	29112	
1248	0	29068	
1249	0	29044	
1250	0	29090	
1251	0	29060	
1252	0	29088	
1253	0	29300	
1254	0	29512	
1255	0	29444	
1256	0	29292	
1257	0	29268	
1258	0	29276	
1259	0	29336	
1260	0	29392	
1261	0	29418	
1262	0	29408	
1263	0	29408	
1264	0	29424	
1265	0	29466	
1266	0	29668	
1267	0	30020	
1268	0	30370	
1269	0	30600	
1270	0	30656	
1271	0	30644	
1272	0	30596	
1273	0	30564	
1274	0	30556	
1275	0	30592	
1276	0	30650	
1277	0	30692	
1278	0	30704	
1279	0	30700	
1280	0	30684	
1281	0	30660	
1282	0	30666	
1283	0	30688	
1284	0	30724	
1285	0	30756	
1286	0	30792	
1287	0	30796	
1288	0	30782	
1289	0	30760	
1290	0	30668	
1291	0	30368	
1292	0	30036	
1293	0	29844	
1294	0	29824	
1295	0	29984	
1296	0	30232	
1297	0	30444	
1298	0	30648	
1299	0	30872	
1300	0	31124	
1301	0	31336	
1302	0	31370	
1303	0	31260	
1304	0	31096	
1305	0	30964	
1306	0	30988	
1307	0	31128	
1308	0	31292	
1309	0	31432	
1310	0	31508	
1311	0	31532	
1312	0	31512	
1313	0	31492	
1314	0	31476	
1315	0	31472	
1316	0	31440	
1317	0	31428	
1318	0	31464	
1319	0	31448	
1320	0	31436	
1321	0	31420	
1322	0	31324	
1323	0	31156	
1324	0	30940	
1325	0	30844	
1326	0	30864	
1327	0	30892	
1328	0	31000	
1329	0	31136	
1330	0	31212	
1331	0	31288	
1332	0	31458	
1333	0	31520	
1334	0	31380	
1335	0	31112	
1336	0	30816	
1337	0	30618	
1338	0	30672	
1339	0	30984	
1340	0	31458	
1341	0	31936	
1342	0	32324	
1343	0	32524	
1344	0	32578	
1345	0	32668	
1346	0	32768	
1347	0	32812	
1348	0	32752	
1349	0	32648	
1350	0	32578	
1351	0	32480	
1352	0	32360	
1353	0	32280	
1354	0	32200	
1355	0	32168	
1356	0	32117	
1357	0	32016	
1358	0	31892	
1359	0	31848	
1360	0	31758	
1361	0	31616	
1362	0	31580	
1363	0	31664	
1364	0	31712	
1365	0	31744	
1366	0	31838	
1367	0	31904	
1368	0	31936	
1369	0	32016	
1370	0	32144	
1371	0	32248	
1372	0	32240	
1373	0	32164	
1374	0	32080	
1375	0	31992	
1376	0	32002	
1377	0	32050	
1378	0	32140	
1379	0	32236	
1380	0	32192	
1381	0	31976	
1382	0	31748	
1383	0	31612	
1384	0	31496	
1385	0	31424	
1386	0	31436	
1387	0	31540	
1388	0	31736	
1389	0	31776	
1390	0	31716	
1391	0	31672	
1392	0	31622	
1393	0	31588	
1394	0	31584	
1395	0	31616	
1396	0	31662	
1397	0	31792	
1398	0	31984	
1399	0	32120	
1400	0	32180	
1401	0	32176	
1402	0	32148	
1403	0	32204	
1404	0	32268	
1405	0	32228	
1406	0	32132	
1407	0	32052	
1408	0	31968	
1409	0	31812	
1410	0	31608	
1411	0	31404	
1412	0	31164	
1413	0	31100	
1414	0	31184	
1415	0	31276	
1416	0	31316	
1417	0	31464	
1418	0	31708	
1419	0	31924	
1420	0	32144	
1421	0	32324	
1422	0	32428	
1423	0	32486	
1424	0	32552	
1425	0	32612	
1426	0	32696	
1427	0	32768	
1428	0	32860	
1429	0	33048	
1430	0	33288	
1431	0	33472	
1432	0	33492	
1433	0	33372	
1434	0	33288	
1435	0	33316	
1436	0	33374	
1437	0	33292	
1438	0	33152	
1439	0	33088	
1440	0	33116	
1441	0	33172	
1442	0	33292	
1443	0	33422	
1444	0	33444	
1445	0	33448	
1446	0	33484	
1447	0	33524	
1448	0	33596	
1449	0	33756	
1450	0	34004	
1451	0	34248	
1452	0	34408	
1453	0	34560	
1454	0	34648	
1455	0	34712	
1456	0	34736	
1457	0	34712	
1458	0	34676	
1459	0	34692	
1460	0	34684	
1461	0	34656	
1462	0	34572	
1463	0	34468	
1464	0	34480	
1465	0	34730	
1466	0	34908	
1467	0	34920	
1468	0	34936	
1469	0	34968	
1470	0	35000	
1471	0	35008	
1472	0	35000	
1473	0	34952	
1474	0	34888	
1475	0	34964	
1476	0	35104	
1477	0	35220	
1478	0	35308	
1479	0	35280	
1480	0	35192	
1481	0	35096	
1482	0	35044	
1483	0	34964	
1484	0	34756	
1485	0	34416	
1486	0	34116	
1487	0	33832	
1488	0	33556	
1489	0	33292	
1490	0	32964	
1491	0	32760	
1492	0	32552	
1493	0	32296	
1494	0	31960	
1495	0	31604	
1496	0	31336	
1497	0	31176	
1498	0	31136	
1499	0	31188	
1500	0	31276	
1501	0	31336	
1502	0	31324	
1503	0	31248	
1504	0	31092	
1505	0	30928	
1506	0	30852	
1507	0	30782	
1508	0	30688	
1509	0	30628	
1510	0	30628	
1511	0	30674	
1512	0	30736	
1513	0	30784	
1514	0	30852	
1515	0	30892	
1516	0	30828	
1517	0	30744	
1518	0	30632	
1519	0	30616	
1520	0	30868	
1521	0	31206	
1522	0	31368	
1523	0	31332	
1524	0	31160	
1525	0	31040	
1526	0	31106	
1527	0	31192	
1528	0	31216	
1529	0	31282	
1530	0	31360	
1531	0	31372	
1532	0	31392	
1533	0	31388	
1534	0	31424	
1535	0	31436	
1536	0	31320	
1537	0	31120	
1538	0	30920	
1539	0	30812	
1540	0	30748	
1541	0	30768	
1542	0	30888	
1543	0	30968	
1544	0	30892	
1545	0	30864	
1546	0	30948	
1547	0	31138	
1548	0	31384	
1549	0	31628	
1550	0	31820	
1551	0	31972	
1552	0	32096	
1553	0	32128	
1554	0	32130	
1555	0	32108	
1556	0	32042	
1557	0	32036	
1558	0	32014	
1559	0	31936	
1560	0	31908	
1561	0	31848	
1562	0	31724	
1563	0	31608	
1564	0	31564	
1565	0	31568	
1566	0	31596	
1567	0	31644	
1568	0	31660	
1569	0	31560	
1570	0	31384	
1571	0	31328	
1572	0	31208	
1573	0	30792	
1574	0	30124	
1575	0	29376	
1576	0	28748	
1577	0	28372	
1578	0	28352	
1579	0	28774	
1580	0	29344	
1581	0	29866	
1582	0	30568	
1583	0	31360	
1584	0	32290	
1585	0	33332	
1586	0	34388	
1587	0	35492	
1588	0	36672	
1589	0	38008	
1590	0	39592	
1591	0	41280	
1592	0	42968	
1593	0	44576	
1594	0	46300	
1595	0	48104	
1596	0	50152	
1597	0	52576	
1598	0	55088	
1599	0	57568	
1600	0	59996	
1601	0	62292	
1602	0	63732	
1603	0	64480	
1604	0	64828	
1605	0	64940	
1606	0	64936	
1607	0	64886	
1608	0	64816	
1609	0	64712	
1610	0	64568	
1611	0	61276	
1612	0	57040	
1613	0	52852	
1614	0	48420	
1615	0	43980	
1616	0	39968	
1617	0	36420	
1618	0	33428	
1619	0	30860	
1620	0	28784	
1621	0	27224	
1622	0	26046	
1623	0	25344	
1624	0	25032	
1625	0	24784	
1626	0	24496	
1627	0	24140	
1628	0	23752	
1629	0	23372	
1630	0	23150	
1631	0	23166	
1632	0	23396	
1633	0	23765	
1634	0	24258	
1635	0	24744	
1636	0	25138	
1637	0	25538	
1638	0	26008	
1639	0	26660	
1640	0	27352	
1641	0	28056	
1642	0	28616	
1643	0	29008	
1644	0	29272	
1645	0	29418	
1646	0	29576	
1647	0	29880	
1648	0	30200	
1649	0	30396	
1650	0	30488	
1651	0	30496	
1652	0	30452	
1653	0	30436	
1654	0	30476	
1655	0	30480	
1656	0	30460	
1657	0	30530	
1658	0	30610	
1659	0	30640	
1660	0	30620	
1661	0	30524	
1662	0	30416	
1663	0	30388	
1664	0	30428	
1665	0	30536	
1666	0	30696	
1667	0	30896	
1668	0	30972	
1669	0	30820	
1670	0	30388	
1671	0	29908	
1672	0	29544	
1673	0	29464	
1674	0	29600	
1675	0	29812	
1676	0	30048	
1677	0	30268	
1678	0	30468	
1679	0	30668	
1680	0	30868	
1681	0	30968	
1682	0	31052	
1683	0	31128	
1684	0	31192	
1685	0	31168	
1686	0	31042	
1687	0	30936	
1688	0	30876	
1689	0	30880	
1690	0	30872	
1691	0	30932	
1692	0	31108	
1693	0	31348	
1694	0	31512	
1695	0	31624	
1696	0	31712	
1697	0	31776	
1698	0	31728	
1699	0	31568	
1700	0	31456	
1701	0	31376	
1702	0	31380	
1703	0	31432	
1704	0	31436	
1705	0	31388	
1706	0	31312	
1707	0	31272	
1708	0	31384	
1709	0	31610	
1710	0	31704	
1711	0	31680	
1712	0	31692	
1713	0	31768	
1714	0	31840	
1715	0	31964	
1716	0	32105	
1717	0	32180	
1718	0	32136	
1719	0	32032	
1720	0	31932	
1721	0	31962	
1722	0	32068	
1723	0	32244	
1724	0	32352	
1725	0	32404	
1726	0	32440	
1727	0	32468	
1728	0	32450	
1729	0	32416	
1730	0	32484	
1731	0	32544	
1732	0	32576	
1733	0	32556	
1734	0	32472	
1735	0	32408	
1736	0	32408	
1737	0	32496	
1738	0	32648	
1739	0	32848	
1740	0	33084	
1741	0	33244	
1742	0	33388	
1743	0	33460	
1744	0	33460	
1745	0	33396	
1746	0	33316	
1747	0	33288	
1748	0	33380	
1749	0	33420	
1750	0	33408	
1751	0	33432	
1752	0	33500	
1753	0	33556	
1754	0	33604	
1755	0	33712	
1756	0	33804	
1757	0	33868	
1758	0	33936	
1759	0	33944	
1760	0	33892	
1761	0	33844	
1762	0	33768	
1763	0	33706	
1764	0	33688	
1765	0	33596	
1766	0	33344	
1767	0	33032	
1768	0	32872	
1769	0	32908	
1770	0	33116	
1771	0	33384	
1772	0	33704	
1773	0	34012	
1774	0	34212	
1775	0	34464	
1776	0	34672	
1777	0	34752	
1778	0	34792	
1779	0	34906	
1780	0	34980	
1781	0	35058	
1782	0	35144	
1783	0	35264	
1784	0	35376	
1785	0	35440	
1786	0	35404	
1787	0	35312	
1788	0	35282	
1789	0	35272	
1790	0	35200	
1791	0	35136	
1792	0	35144	
1793	0	35176	
1794	0	35172	
1795	0	35228	
1796	0	35288	
1797	0	35332	
1798	0	35292	
1799	0	35240	
1800	0	35248	
1801	0	35240	
1802	0	35176	
1803	0	35184	
1804	0	35196	
1805	0	35220	
1806	0	35356	
1807	0	35556	
1808	0	35776	
1809	0	36000	
1810	0	36190	
1811	0	36340	
1812	0	36396	
1813	0	36428	
1814	0	36456	
1815	0	36460	
1816	0	36448	
1817	0	36386	
1818	0	36272	
1819	0	36192	
1820	0	36160	
1821	0	36268	
1822	0	36432	
1823	0	36528	
1824	0	36500	
1825	0	36460	
1826	0	36352	
1827	0	36120	
1828	0	36032	
1829	0	36096	
1830	0	36196	
1831	0	36360	
1832	0	36588	
1833	0	36696	
1834	0	36684	
1835	0	36660	
1836	0	36632	
1837	0	36668	
1838	0	36792	
1839	0	36898	
1840	0	37020	
1841	0	37160	
1842	0	37228	
1843	0	37120	
1844	0	36964	
1845	0	36816	
1846	0	36744	
1847	0	36656	
1848	0	36600	
1849	0	36476	
1850	0	36296	
1851	0	36160	
1852	0	36180	
1853	0	36288	
1854	0	36464	
1855	0	36596	
1856	0	36664	
1857	0	36640	
1858	0	36488	
1859	0	36320	
1860	0	36200	
1861	0	36032	
1862	0	35804	
1863	0	35616	
1864	0	35528	
1865	0	35484	
1866	0	35444	
1867	0	35296	
1868	0	35048	
1869	0	34744	
1870	0	34472	
1871	0	34216	
1872	0	33984	
1873	0	33834	
1874	0	33668	
1875	0	33546	
1876	0	33464	
1877	0	33406	
1878	0	33368	
1879	0	33352	
1880	0	33312	
1881	0	33194	
1882	0	33076	
1883	0	32860	
1884	0	32588	
1885	0	32324	
1886	0	32080	
1887	0	31788	
1888	0	31484	
1889	0	31176	
1890	0	30920	
1891	0	30708	
1892	0	30604	
1893	0	30432	
1894	0	30200	
1895	0	30088	
1896	0	30080	
1897	0	30064	
1898	0	29984	
1899	0	29792	
1900	0	29668	
1901	0	29720	
1902	0	29792	
1903	0	29820	
1904	0	29906	
1905	0	30064	
1906	0	30120	
1907	0	30096	
1908	0	29984	
1909	0	29800	
1910	0	29552	
1911	0	29336	
1912	0	29164	
1913	0	29062	
1914	0	29032	
1915	0	29024	
1916	0	29036	
1917	0	29024	
1918	0	29056	
1919	0	29156	
1920	0	29228	
1921	0	29212	
1922	0	29076	
1923	0	28812	
1924	0	28520	
1925	0	28284	
1926	0	28104	
1927	0	28064	
1928	0	28154	
1929	0	28360	
1930	0	28624	
1931	0	28804	
1932	0	28940	
1933	0	29024	
1934	0	29052	
1935	0	29076	
1936	0	29128	
1937	0	29132	
1938	0	29060	
1939	0	28984	
1940	0	28944	
1941	0	28972	
1942	0	29020	
1943	0	29044	
1944	0	29104	
1945	0	29184	
1946	0	29284	
1947	0	29332	
1948	0	29376	
1949	0	29484	
1950	0	29580	
1951	0	29592	
1952	0	29572	
1953	0	29556	
1954	0	29468	
1955	0	29280	
1956	0	29050	
1957	0	28888	
1958	0	28828	
1959	0	28852	
1960	0	28966	
1961	0	29096	
1962	0	29192	
1963	0	29190	
1964	0	29160	
1965	0	29248	
1966	0	29400	
1967	0	29624	
1968	0	29924	
1969	0	30192	
1970	0	30368	
1971	0	30460	
1972	0	30472	
1973	0	30404	
1974	0	30364	
1975	0	30356	
1976	0	30368	
1977	0	30400	
1978	0	30428	
1979	0	30512	
1980	0	30556	
1981	0	30582	
1982	0	30570	
1983	0	30504	
1984	0	30420	
1985	0	30344	
1986	0	30296	
1987	0	30152	
1988	0	30064	
1989	0	30162	
1990	0	30414	
1991	0	30748	
1992	0	30980	
1993	0	31048	
1994	0	31104	
1995	0	31168	
1996	0	31260	
1997	0	31276	
1998	0	31328	
1999	0	31344	
2000	0	31274	
2001	0	31078	
2002	0	30888	
2003	0	30714	
2004	0	30528	
2005	0	30489	
2006	0	30584	
2007	0	30712	
2008	0	30868	
2009	0	31092	
2010	0	31296	
2011	0	31390	
2012	0	31380	
2013	0	31348	
2014	0	31368	
2015	0	31412	
2016	0	31440	
2017	0	31464	
2018	0	31472	
2019	0	31462	
2020	0	31388	
2021	0	31216	
2022	0	31152	
2023	0	31312	
2024	0	31444	
2025	0	31428	
2026	0	31364	
2027	0	31344	
2028	0	31270	
2029	0	31328	
2030	0	31490	
2031	0	31628	
2032	0	31696	
2033	0	31592	
2034	0	31484	
2035	0	31356	
2036	0	31146	
2037	0	30944	
2038	0	30800	
2039	0	30688	
2040	0	30724	
2041	0	30986	
2042	0	31408	
2043	0	31728	
2044	0	31900	
2045	0	32044	
2046	0	32128	
2047	0	32120	
2048	0	32132	
2049	0	32224	
2050	0	32276	
2051	0	32288	
2052	0	32274	
2053	0	32256	
2054	0	32276	
2055	0	32368	
2056	0	32424	
2057	0	32356	
2058	0	32224	
2059	0	32090	
2060	0	32000	
2061	0	31980	
2062	0	32060	
2063	0	32120	
2064	0	32112	
2065	0	32016	
2066	0	31876	
2067	0	31716	
2068	0	31560	
2069	0	31436	
2070	0	31534	
2071	0	31716	
2072	0	31824	
2073	0	31896	
2074	0	32032	
2075	0	32164	
2076	0	32180	
2077	0	32090	
2078	0	32008	
2079	0	31952	
2080	0	31992	
2081	0	32064	
2082	0	32090	
2083	0	32056	
2084	0	31904	
2085	0	31706	
2086	0	31520	
2087	0	31416	
2088	0	31388	
2089	0	31418	
2090	0	31592	
2091	0	31872	
2092	0	32108	
2093	0	32304	
2094	0	32388	
2095	0	32352	
2096	0	32292	
2097	0	32236	
2098	0	32182	
2099	0	32128	
2100	0	32052	
2101	0	31920	
2102	0	31740	
2103	0	31562	
2104	0	31548	
2105	0	31656	
2106	0	31830	
2107	0	31944	
2108	0	31976	
2109	0	31940	
2110	0	31836	
2111	0	31644	
2112	0	31376	
2113	0	31132	
2114	0	30928	
2115	0	30960	
2116	0	31240	
2117	0	31568	
2118	0	31808	
2119	0	31876	
2120	0	31876	
2121	0	31936	
2122	0	32056	
2123	0	32160	
2124	0	32280	
2125	0	32424	
2126	0	32504	
2127	0	32520	
2128	0	32508	
2129	0	32500	
2130	0	32484	
2131	0	32452	
2132	0	32396	
2133	0	32276	
2134	0	32192	
2135	0	32148	
2136	0	32180	
2137	0	32184	
2138	0	32116	
2139	0	32024	
2140	0	31908	
2141	0	31844	
2142	0	31848	
2143	0	31888	
2144	0	31912	
2145	0	31968	
2146	0	32106	
2147	0	32312	
2148	0	32586	
2149	0	32844	
2150	0	33116	
2151	0	33336	
2152	0	33444	
2153	0	33496	
2154	0	33524	
2155	0	33522	
2156	0	33520	
2157	0	33524	
2158	0	33496	
2159	0	33496	
2160	0	33500	
2161	0	33560	
2162	0	33654	
2163	0	33588	
2164	0	33540	
2165	0	33648	
2166	0	33712	
2167	0	33704	
2168	0	33700	
2169	0	33776	
2170	0	33900	
2171	0	34080	
2172	0	34418	
2173	0	34744	
2174	0	34924	
2175	0	35000	
2176	0	35000	
2177	0	34976	
2178	0	34992	
2179	0	35096	
2180	0	35188	
2181	0	35132	
2182	0	35040	
2183	0	34938	
2184	0	34848	
2185	0	34676	
2186	0	34504	
2187	0	34412	
2188	0	34416	
2189	0	34516	
2190	0	34624	
2191	0	34692	
2192	0	34728	
2193	0	34864	
2194	0	35012	
2195	0	35220	
2196	0	35372	
2197	0	35400	
2198	0	35296	
2199	0	35128	
2200	0	34768	
2201	0	34332	
2202	0	33920	
2203	0	33592	
2204	0	33360	
2205	0	33292	
2206	0	33312	
2207	0	33312	
2208	0	33268	
2209	0	33142	
2210	0	32948	
2211	0	32684	
2212	0	32420	
2213	0	32146	
2214	0	31834	
2215	0	31466	
2216	0	31068	
2217	0	30668	
2218	0	30420	
2219	0	30308	
2220	0	30300	
2221	0	30364	
2222	0	30462	
2223	0	30520	
2224	0	30592	
2225	0	30680	
2226	0	30782	
2227	0	30912	
2228	0	31020	
2229	0	31156	
2230	0	31192	
2231	0	31120	
2232	0	31096	
2233	0	31124	
2234	0	31208	
2235	0	31284	
2236	0	31224	
2237	0	31056	
2238	0	30844	
2239	0	30736	
2240	0	30772	
2241	0	30792	
2242	0	30772	
2243	0	30912	
2244	0	31096	
2245	0	31140	
2246	0	31088	
2247	0	30984	
2248	0	30936	
2249	0	30980	
2250	0	31050	
2251	0	31172	
2252	0	31256	
2253	0	31288	
2254	0	31348	
2255	0	31456	
2256	0	31554	
2257	0	31640	
2258	0	31676	
2259	0	31600	
2260	0	31456	
2261	0	31348	
2262	0	31304	
2263	0	31224	
2264	0	31228	
2265	0	31140	
2266	0	30976	
2267	0	30812	
2268	0	30668	
2269	0	30576	
2270	0	30728	
2271	0	31141	
2272	0	31532	
2273	0	31712	
2274	0	31808	
2275	0	31924	
2276	0	32020	
2277	0	32052	
2278	0	32090	
2279	0	32120	
2280	0	32172	
2281	0	32276	
2282	0	32392	
2283	0	32410	
2284	0	32324	
2285	0	32184	
2286	0	32048	
2287	0	31856	
2288	0	31620	
2289	0	31348	
2290	0	30866	
2291	0	30216	
2292	0	29588	
2293	0	29136	
2294	0	28880	
2295	0	28744	
2296	0	28812	
2297	0	28992	
2298	0	29296	
2299	0	29760	
2300	0	30424	
2301	0	31266	
2302	0	32288	
2303	0	33472	
2304	0	34736	
2305	0	36046	
2306	0	37664	
2307	0	39500	
2308	0	41292	
2309	0	43068	
2310	0	44852	
2311	0	46776	
2312	0	48784	
2313	0	50932	
2314	0	53216	
2315	0	55584	
2316	0	57892	
2317	0	60156	
2318	0	62336	
2319	0	63712	
2320	0	64408	
2321	0	64736	
2322	0	64864	
2323	0	64848	
2324	0	64800	
2325	0	64708	
2326	0	64608	
2327	0	64496	
2328	0	60604	
2329	0	56164	
2330	0	51724	
2331	0	47172	
2332	0	42796	
2333	0	38872	
2334	0	35444	
2335	0	32492	
2336	0	29936	
2337	0	27872	
2338	0	26476	
2339	0	25648	
2340	0	25290	
2341	0	25112	
2342	0	24900	
2343	0	24660	
2344	0	24264	
2345	0	23872	
2346	0	23604	
2347	0	23448	
2348	0	23424	
2349	0	23584	
2350	0	23928	
2351	0	24408	
2352	0	24908	
2353	0	25386	
2354	0	25904	
2355	0	26516	
2356	0	27156	
2357	0	27656	
2358	0	27988	
2359	0	28306	
2360	0	28592	
2361	0	28848	
2362	0	29156	
2363	0	29560	
2364	0	29916	
2365	0	30208	
2366	0	30392	
2367	0	30440	
2368	0	30426	
2369	0	30426	
2370	0	30340	
2371	0	30181	
2372	0	30098	
2373	0	30008	
2374	0	29836	
2375	0	29752	
2376	0	29832	
2377	0	29964	
2378	0	30092	
2379	0	30206	
2380	0	30316	
2381	0	30428	
2382	0	30556	
2383	0	30736	
2384	0	30924	
2385	0	31024	
2386	0	31000	
2387	0	30912	
2388	0	30912	
2389	0	30768	
2390	0	30496	
2391	0	30332	
2392	0	30424	
2393	0	30472	
2394	0	30372	
2395	0	30312	
2396	0	30302	
2397	0	30392	
2398	0	30568	
2399	0	30700	
2400	0	30706	
2401	0	30680	
2402	0	30712	
2403	0	30882	
2404	0	31157	
2405	0	31360	
2406	0	31456	
2407	0	31504	
2408	0	31544	
2409	0	31532	
2410	0	31552	
2411	0	31532	
2412	0	31476	
2413	0	31420	
2414	0	31400	
2415	0	31424	
2416	0	31456	
2417	0	31456	
2418	0	31424	
2419	0	31348	
2420	0	31284	
2421	0	31258	
2422	0	31328	
2423	0	31460	
2424	0	31528	
2425	0	31548	
2426	0	31520	
2427	0	31436	
2428	0	31316	
2429	0	31252	
2430	0	31208	
2431	0	31218	
2432	0	31290	
2433	0	31388	
2434	0	31568	
2435	0	31808	
2436	0	32056	
2437	0	32352	
2438	0	32556	
2439	0	32764	
2440	0	32922	
2441	0	32928	
2442	0	32928	
2443	0	32976	
2444	0	32960	
2445	0	32924	
2446	0	32864	
2447	0	32788	
2448	0	32700	
2449	0	32648	
2450	0	32584	
2451	0	32472	
2452	0	32416	
2453	0	32428	
2454	0	32528	
2455	0	32692	
2456	0	32852	
2457	0	32954	
2458	0	32956	
2459	0	32880	
2460	0	32820	
2461	0	32792	
2462	0	32844	
2463	0	33020	
2464	0	33192	
2465	0	33328	
2466	0	33448	
2467	0	33486	
2468	0	33492	
2469	0	33492	
2470	0	33440	
2471	0	33312	
2472	0	33200	
2473	0	33080	
2474	0	32832	
2475	0	32592	
2476	0	32492	
2477	0	32528	
2478	0	32852	
2479	0	33368	
2480	0	33788	
2481	0	34016	
2482	0	34160	
2483	0	34080	
2484	0	33988	
2485	0	34016	
2486	0	34072	
2487	0	34156	
2488	0	34284	
2489	0	34446	
2490	0	34608	
2491	0	34680	
2492	0	34768	
2493	0	34832	
2494	0	34916	
2495	0	34992	
2496	0	34984	
2497	0	34948	
2498	0	34804	
2499	0	34544	
2500	0	34200	
2501	0	33972	
2502	0	33860	
2503	0	33868	
2504	0	33984	
2505	0	34156	
2506	0	34340	
2507	0	34436	
2508	0	34584	
2509	0	34836	
2510	0	35188	
2511	0	35536	
2512	0	35824	
2513	0	36012	
2514	0	36032	
2515	0	35916	
2516	0	35808	
2517	0	35780	
2518	0	35824	
2519	0	35816	
2520	0	35808	
2521	0	35872	
2522	0	35992	
2523	0	36168	
2524	0	36378	
2525	0	36516	
2526	0	36552	
2527	0	36496	
2528	0	36392	
2529	0	36392	
2530	0	36480	
2531	0	36624	
2532	0	36704	
2533	0	36584	
2534	0	36272	
2535	0	36030	
2536	0	35928	
2537	0	35900	
2538	0	35944	
2539	0	36028	
2540	0	36092	
2541	0	36152	
2542	0	36244	
2543	0	36340	
2544	0	36460	
2545	0	36576	
2546	0	36712	
2547	0	36816	
2548	0	36896	
2549	0	36932	
2550	0	36988	
2551	0	36992	
2552	0	36900	
2553	0	36880	
2554	0	36884	
2555	0	36788	
2556	0	36720	
2557	0	36744	
2558	0	36676	
2559	0	36556	
2560	0	36488	
2561	0	36308	
2562	0	36010	
2563	0	35800	
2564	0	35832	
2565	0	36160	
2566	0	36588	
2567	0	37000	
2568	0	37244	
2569	0	37320	
2570	0	37300	
2571	0	37212	
2572	0	37008	
2573	0	36784	
2574	0	36644	
2575	0	36556	
2576	0	36468	
2577	0	36300	
2578	0	36084	
2579	0	35868	
2580	0	35604	
2581	0	35384	
2582	0	35268	
2583	0	35132	
2584	0	34986	
2585	0	34880	
2586	0	34734	
2587	0	34556	
2588	0	34464	
2589	0	34412	
2590	0	34340	
2591	0	34192	
2592	0	34024	
2593	0	33844	
2594	0	33660	
2595	0	33554	
2596	0	33528	
2597	0	33510	
2598	0	33440	
2599	0	33264	
2600	0	32994	
2601	0	32778	
2602	0	32648	
2603	0	32564	
2604	0	32424	
2605	0	32170	
2606	0	31808	
2607	0	31536	
2608	0	31368	
2609	0	31168	
2610	0	30880	
2611	0	30632	
2612	0	30440	
2613	0	30224	
2614	0	30068	
2615	0	30072	
2616	0	30112	
2617	0	30120	
2618	0	30028	
2619	0	29888	
2620	0	29692	
2621	0	29436	
2622	0	29224	
2623	0	29048	
2624	0	28864	
2625	0	28888	
2626	0	29020	
2627	0	29216	
2628	0	29364	
2629	0	29424	
2630	0	29382	
2631	0	29232	
2632	0	29068	
2633	0	28940	
2634	0	28830	
2635	0	28880	
2636	0	28916	
2637	0	28928	
2638	0	29016	
2639	0	29068	
2640	0	29068	
2641	0	29104	
2642	0	29212	
2643	0	29228	
2644	0	29128	
2645	0	28976	
2646	0	28856	
2647	0	28806	
2648	0	28792	
2649	0	28808	
2650	0	28864	
2651	0	28928	
2652	0	28996	
2653	0	28996	
2654	0	28964	
2655	0	28932	
2656	0	28880	
2657	0	28912	
2658	0	28980	
2659	0	29098	
2660	0	29224	
2661	0	29310	
2662	0	29432	
2663	0	29514	
2664	0	29532	
2665	0	29498	
2666	0	29474	
2667	0	29384	
2668	0	29344	
2669	0	29336	
2670	0	29344	
2671	0	29376	
2672	0	29448	
2673	0	29488	
2674	0	29440	
2675	0	29420	
2676	0	29428	
2677	0	29428	
2678	0	29464	
2679	0	29504	
2680	0	29540	
2681	0	29652	
2682	0	29792	
2683	0	29922	
2684	0	30052	
2685	0	30004	
2686	0	29770	
2687	0	29568	
2688	0	29504	
2689	0	29536	
2690	0	29600	
2691	0	29608	
2692	0	29504	
2693	0	29324	
2694	0	29192	
2695	0	29200	
2696	0	29294	
2697	0	29424	
2698	0	29592	
2699	0	29864	
2700	0	30048	
2701	0	30218	
2702	0	30406	
2703	0	30520	
2704	0	30590	
2705	0	30656	
2706	0	30804	
2707	0	30952	
2708	0	31020	
2709	0	30912	
2710	0	30668	
2711	0	30424	
2712	0	30308	
2713	0	30306	
2714	0	30432	
2715	0	30660	
2716	0	30856	
2717	0	31060	
2718	0	31264	
2719	0	31396	
2720	0	31472	
2721	0	31520	
2722	0	31558	
2723	0	31496	
2724	0	31400	
2725	0	31208	
2726	0	31104	
2727	0	31212	
2728	0	31384	
2729	0	31604	
2730	0	31872	
2731	0	32028	
2732	0	31940	
2733	0	31644	
2734	0	31352	
2735	0	31136	
2736	0	30986	
2737	0	30796	
2738	0	30672	
2739	0	30758	
2740	0	31024	
2741	0	31300	
2742	0	31452	
2743	0	31500	
2744	0	31496	
2745	0	31432	
2746	0	31436	
2747	0	31556	
2748	0	31688	
2749	0	31786	
2750	0	31864	
2751	0	31968	
2752	0	32028	
2753	0	32084	
2754	0	32184	
2755	0	32164	
2756	0	31976	
2757	0	31748	
2758	0	31580	
2759	0	31520	
2760	0	31608	
2761	0	31698	
2762	0	31680	
2763	0	31600	
2764	0	31472	
2765	0	31468	
2766	0	31612	
2767	0	31800	
2768	0	32012	
2769	0	32100	
2770	0	32172	
2771	0	32316	
2772	0	32512	
2773	0	32672	
2774	0	32684	
2775	0	32628	
2776	0	32542	
2777	0	32456	
2778	0	32344	
2779	0	32120	
2780	0	31904	
2781	0	31716	
2782	0	31664	
2783	0	31716	
2784	0	31762	
2785	0	31750	
2786	0	31712	
2787	0	31662	
2788	0	31550	
2789	0	31480	
2790	0	31512	
2791	0	31577	
2792	0	31628	
2793	0	31728	
2794	0	31888	
2795	0	31904	
2796	0	31944	
2797	0	31998	
2798	0	32040	
2799	0	32160	
2800	0	32360	
2801	0	32476	
2802	0	32426	
2803	0	32288	
2804	0	32032	
2805	0	31696	
2806	0	31408	
2807	0	31372	
2808	0	31480	
2809	0	31594	
2810	0	31572	
2811	0	31368	
2812	0	31192	
2813	0	31212	
2814	0	31396	
2815	0	31646	
2816	0	31996	
2817	0	32316	
2818	0	32456	
2819	0	32472	
2820	0	32396	
2821	0	32196	
2822	0	31980	
2823	0	31816	
2824	0	31646	
2825	0	31668	
2826	0	31744	
2827	0	31756	
2828	0	31732	
2829	0	31812	
2830	0	31980	
2831	0	32128	
2832	0	32268	
2833	0	32424	
2834	0	32500	
2835	0	32526	
2836	0	32540	
2837	0	32372	
2838	0	32048	
2839	0	31732	
2840	0	31522	
2841	0	31468	
2842	0	31624	
2843	0	31868	
2844	0	32024	
2845	0	32040	
2846	0	31932	
2847	0	31888	
2848	0	32040	
2849	0	32152	
2850	0	32192	
2851	0	32208	
2852	0	32268	
2853	0	32366	
2854	0	32436	
2855	0	32432	
2856	0	32408	
2857	0	32416	
2858	0	32440	
2859	0	32464	
2860	0	32460	
2861	0	32392	
2862	0	32388	
2863	0	32404	
2864	0	32380	
2865	0	32332	
2866	0	32336	
2867	0	32396	
2868	0	32420	
2869	0	32396	
2870	0	32260	
2871	0	32068	
2872	0	31960	
2873	0	31932	
2874	0	31880	
2875	0	31888	
2876	0	32092	
2877	0	32448	
2878	0	32896	
2879	0	33268	
2880	0	33428	
2881	0	33416	
2882	0	33480	
2883	0	33652	
2884	0	33772	
2885	0	33828	
2886	0	33888	
2887	0	33920	
2888	0	33856	
2889	0	33648	
2890	0	33364	
2891	0	33196	
2892	0	33120	
2893	0	33160	
2894	0	33312	
2895	0	33556	
2896	0	33876	
2897	0	34178	
2898	0	34428	
2899	0	34688	
2900	0	34824	
2901	0	34848	
2902	0	34884	
2903	0	34972	
2904	0	35116	
2905	0	35268	
2906	0	35200	
2907	0	34896	
2908	0	34576	
2909	0	34188	
2910	0	33740	
2911	0	33540	
2912	0	33704	
2913	0	34024	
2914	0	34460	
2915	0	34894	
2916	0	35272	
2917	0	35436	
2918	0	35468	
2919	0	35460	
2920	0	35348	
2921	0	35212	
2922	0	35200	
2923	0	35232	
2924	0	35228	
2925	0	35152	
2926	0	35136	
2927	0	35156	
2928	0	35136	
2929	0	35004	
2930	0	34800	
2931	0	34560	
2932	0	34332	
2933	0	34072	
2934	0	33824	
2935	0	33608	
2936	0	33296	
2937	0	32940	
2938	0	32688	
2939	0	32416	
2940	0	32016	
2941	0	31516	
2942	0	31164	
2943	0	30944	
2944	0	30836	
2945	0	30864	
2946	0	30896	
2947	0	30868	
2948	0	30892	
2949	0	31036	
2950	0	31076	
2951	0	30996	
2952	0	30920	
2953	0	30956	
2954	0	30968	
2955	0	30976	
2956	0	31064	
2957	0	31112	
2958	0	31008	
2959	0	30912	
2960	0	30840	
2961	0	30872	
2962	0	30944	
2963	0	31040	
2964	0	31196	
2965	0	31320	
2966	0	31312	
2967	0	31204	
2968	0	31044	
2969	0	30868	
2970	0	30688	
2971	0	30528	
2972	0	30508	
2973	0	30668	
2974	0	30860	
2975	0	31044	
2976	0	31220	
2977	0	31384	
2978	0	31400	
2979	0	31240	
2980	0	31052	
2981	0	31012	
2982	0	31156	
2983	0	31296	
2984	0	31424	
2985	0	31492	
2986	0	31452	
2987	0	31384	
2988	0	31392	
2989	0	31456	
2990	0	31408	
2991	0	31340	
2992	0	31380	
2993	0	31472	
2994	0	31564	
2995	0	31660	
2996	0	31800	
2997	0	31968	
2998	0	32160	
2999	0	32280	
3000	0	32292	
3001	0	32248	
3002	0	32208	
3003	0	32120	
3004	0	32068	
3005	0	32036	
3006	0	32028	
3007	0	31972	
3008	0	31848	
3009	0	31718	
3010	0	31568	
3011	0	31440	
3012	0	31456	
3013	0	31564	
3014	0	31704	
3015	0	31720	
3016	0	31640	
3017	0	31562	
3018	0	31476	
3019	0	31264	
3020	0	30872	
3021	0	30324	
3022	0	29708	
3023	0	29148	
3024	0	28800	
3025	0	28664	
3026	0	28712	
3027	0	29004	
3028	0	29520	
3029	0	30192	
3030	0	30812	
3031	0	31530	
3032	0	32396	
3033	0	33332	
3034	0	34284	
3035	0	35388	
3036	0	36708	
3037	0	38300	
3038	0	40048	
3039	0	41900	
3040	0	43800	
3041	0	45788	
3042	0	47776	
3043	0	49928	
3044	0	52320	
3045	0	54640	
3046	0	56884	
3047	0	59104	
3048	0	61344	
3049	0	63128	
3050	0	64056	
3051	0	64528	
3052	0	64700	
3053	0	64760	
3054	0	64712	
3055	0	64640	
3056	0	64528	
3057	0	64432	
3058	0	61368	
3059	0	57152	
3060	0	52908	
3061	0	48440	
3062	0	43922	
3063	0	39684	
3064	0	35928	
3065	0	32832	
3066	0	30400	
3067	0	28544	
3068	0	27184	
3069	0	26208	
3070	0	25540	
3071	0	25136	
3072	0	24954	
3073	0	24924	
3074	0	24772	
3075	0	24456	
3076	0	24128	
3077	0	23896	
3078	0	23892	
3079	0	24084	
3080	0	24356	
3081	0	24637	
3082	0	24872	
3083	0	25016	
3084	0	25088	
3085	0	25296	
3086	0	25844	
3087	0	26636	
3088	0	27460	
3089	0	28256	
3090	0	28864	
3091	0	29244	
3092	0	29426	
3093	0	29524	
3094	0	29488	
3095	0	29504	
3096	0	29556	
3097	0	29580	
3098	0	29696	
3099	0	29920	
3100	0	30224	
3101	0	30504	
3102	0	30776	
3103	0	30944	
3104	0	30996	
3105	0	31058	
3106	0	31188	
3107	0	31348	
3108	0	31416	
3109	0	31492	
3110	0	31452	
3111	0	31266	
3112	0	31096	
3113	0	30924	
3114	0	30752	
3115	0	30708	
3116	0	30812	
3117	0	30888	
3118	0	30832	
3119	0	30768	
3120	0	30740	
3121	0	30720	
3122	0	30656	
3123	0	30644	
3124	0	30668	
3125	0	30628	
3126	0	30564	
3127	0	30486	
3128	0	30468	
3129	0	30528	
3130	0	30738	
3131	0	30976	
3132	0	31184	
3133	0	31326	
3134	0	31492	
3135	0	31612	
3136	0	31672	
3137	0	31696	
3138	0	31630	
3139	0	31592	
3140	0	31544	
3141	0	31472	
3142	0	31440	
3143	0	31432	
3144	0	31404	
3145	0	31350	
3146	0	31312	
3147	0	31288	
3148	0	31320	
3149	0	31400	
3150	0	31480	
3151	0	31552	
3152	0	31548	
3153	0	31536	
3154	0	31506	
3155	0	31384	
3156	0	31210	
3157	0	31148	
3158	0	31240	
3159	0	31416	
3160	0	31652	
3161	0	31872	
3162	0	32084	
3163	0	32268	
3164	0	32388	
3165	0	32360	
3166	0	32152	
3167	0	31924	
3168	0	31794	
3169	0	31712	
3170	0	31640	
3171	0	31608	
3172	0	31616	
3173	0	31696	
3174	0	31760	
3175	0	31888	
3176	0	32164	
3177	0	32448	
3178	0	32692	
3179	0	32852	
3180	0	32976	
3181	0	33136	
3182	0	33264	
3183	0	33312	
3184	0	33230	
3185	0	33120	
3186	0	33104	
3187	0	33100	
3188	0	32936	
3189	0	32624	
3190	0	32392	
3191	0	32224	
3192	0	32200	
3193	0	32292	
3194	0	32500	
3195	0	32946	
3196	0	33408	
3197	0	33696	
3198	0	33892	
3199	0	34040	
3200	0	34096	
3201	0	34076	
3202	0	34048	
3203	0	33824	
3204	0	33520	
3205	0	33292	
3206	0	33232	
3207	0	33256	
3208	0	33308	
3209	0	33360	
3210	0	33292	
3211	0	33192	
3212	0	33252	
3213	0	33402	
3214	0	33664	
3215	0	33896	
3216	0	34112	
3217	0	34212	
3218	0	34200	
3219	0	34212	
3220	0	34336	
3221	0	34368	
3222	0	34272	
3223	0	34064	
3224	0	33880	
3225	0	33876	
3226	0	34072	
3227	0	34372	
3228	0	34576	
3229	0	34648	
3230	0	34728	
3231	0	34900	
3232	0	35156	
3233	0	35396	
3234	0	35520	
3235	0	35536	
3236	0	35476	
3237	0	35360	
3238	0	35260	
3239	0	35148	
3240	0	35040	
3241	0	35064	
3242	0	35136	
3243	0	35094	
3244	0	35058	
3245	0	35028	
3246	0	35040	
3247	0	35112	
3248	0	35224	
3249	0	35320	
3250	0	35176	
3251	0	35060	
3252	0	35140	
3253	0	35338	
3254	0	35578	
3255	0	35684	
3256	0	35776	
3257	0	35960	
3258	0	36176	
3259	0	36266	
3260	0	36252	
3261	0	36260	
3262	0	36260	
3263	0	36228	
3264	0	36232	
3265	0	36260	
3266	0	36248	
3267	0	36212	
3268	0	36218	
3269	0	36360	
3270	0	36528	
3271	0	36656	
3272	0	36712	
3273	0	36696	
3274	0	36636	
3275	0	36576	
3276	0	36604	
3277	0	36636	
3278	0	36724	
3279	0	36780	
3280	0	36762	
3281	0	36600	
3282	0	36404	
3283	0	36192	
3284	0	36008	
3285	0	35980	
3286	0	36104	
3287	0	36320	
3288	0	36628	
3289	0	36960	
3290	0	37240	
3291	0	37354	
3292	0	37236	
3293	0	37084	
3294	0	36976	
3295	0	36912	
3296	0	36860	
3297	0	36896	
3298	0	36928	
3299	0	36908	
3300	0	36832	
3301	0	36736	
3302	0	36638	
3303	0	36528	
3304	0	36432	
3305	0	36396	
3306	0	36276	
3307	0	36148	
3308	0	36056	
3309	0	35936	
3310	0	35944	
3311	0	35982	
3312	0	35760	
3313	0	35372	
3314	0	34968	
3315	0	34576	
3316	0	34248	
3317	0	33984	
3318	0	33944	
3319	0	34096	
3320	0	34148	
3321	0	33984	
3322	0	33696	
3323	0	33364	
3324	0	33068	
3325	0	32900	
3326	0	32912	
3327	0	32976	
3328	0	32896	
3329	0	32800	
3330	0	32792	
3331	0	32808	
3332	0	32764	
3333	0	32684	
3334	0	32632	
3335	0	32482	
3336	0	32236	
3337	0	31904	
3338	0	31556	
3339	0	31256	
3340	0	30976	
3341	0	30796	
3342	0	30820	
3343	0	30776	
3344	0	30594	
3345	0	30396	
3346	0	30168	
3347	0	29872	
3348	0	29560	
3349	0	29376	
3350	0	29260	
3351	0	29228	
3352	0	29312	
3353	0	29368	
3354	0	29360	
3355	0	29200	
3356	0	28960	
3357	0	28808	
3358	0	28676	
3359	0	28596	
3360	0	28592	
3361	0	28664	
3362	0	28840	
3363	0	29010	
3364	0	29196	
3365	0	29304	
3366	0	29392	
3367	0	29352	
3368	0	29152	
3369	0	28884	
3370	0	28736	
3371	0	28656	
3372	0	28744	
3373	0	28856	
3374	0	28824	
3375	0	28696	
3376	0	28556	
3377	0	28440	
3378	0	28388	
3379	0	28553	
3380	0	28848	
3381	0	29116	
3382	0	29268	
3383	0	29320	
3384	0	29264	
3385	0	29136	
3386	0	28944	
3387	0	28628	
3388	0	28360	
3389	0	28308	
3390	0	28344	
3391	0	28408	
3392	0	28690	
3393	0	28950	
3394	0	29040	
3395	0	29130	
3396	0	29218	
3397	0	29216	
3398	0	29130	
3399	0	28948	
3400	0	28744	
3401	0	28612	
3402	0	28500	
3403	0	28464	
3404	0	28476	
3405	0	28588	
3406	0	28804	
3407	0	29096	
3408	0	29392	
3409	0	29688	
3410	0	29960	
3411	0	30172	
3412	0	30286	
3413	0	30264	
3414	0	30288	
3415	0	30316	
3416	0	30256	
3417	0	30092	
3418	0	29908	
3419	0	29848	
3420	0	29832	
3421	0	29920	
3422	0	30088	
3423	0	30236	
3424	0	30320	
3425	0	30288	
3426	0	30196	
3427	0	30240	
3428	0	30320	
3429	0	30232	
3430	0	30008	
3431	0	29764	
3432	0	29728	
3433	0	29760	
3434	0	29680	
3435	0	29572	
3436	0	29664	
3437	0	29964	
3438	0	30296	
3439	0	30472	
3440	0	30564	
3441	0	30556	
3442	0	30584	
3443	0	30656	
3444	0	30816	
3445	0	31024	
3446	0	31088	
3447	0	31088	
3448	0	31080	
3449	0	31120	
3450	0	31104	
3451	0	31124	
3452	0	31176	
3453	0	31248	
3454	0	31330	
3455	0	31388	
3456	0	31372	
3457	0	31178	
3458	0	30842	
3459	0	30472	
3460	0	30168	
3461	0	29888	
3462	0	29796	
3463	0	30008	
3464	0	30348	
3465	0	30724	
3466	0	31096	
3467	0	31440	
3468	0	31656	
3469	0	31860	
3470	0	31952	
3471	0	31864	
3472	0	31692	
3473	0	31586	
3474	0	31536	
3475	0	31504	
3476	0	31448	
3477	0	31388	
3478	0	31380	
3479	0	31376	
3480	0	31360	
3481	0	31409	
3482	0	31552	
3483	0	31634	
3484	0	31706	
3485	0	31808	
3486	0	31876	
3487	0	31968	
3488	0	32004	
3489	0	31924	
3490	0	31744	
3491	0	31560	
3492	0	31416	
3493	0	31376	
3494	0	31413	
3495	0	31376	
3496	0	31236	
3497	0	31128	
3498	0	31048	
3499	0	31024	
3500	0	31004	
3501	0	30936	
3502	0	30940	
3503	0	31040	
3504	0	31168	
3505	0	31300	
3506	0	31496	
3507	0	31736	
3508	0	31992	
3509	0	32208	
3510	0	32436	
3511	0	32568	
3512	0	32624	
3513	0	32648	
3514	0	32612	
3515	0	32516	
3516	0	32436	
3517	0	32304	
3518	0	32102	
3519	0	31930	
3520	0	31840	
3521	0	31844	
3522	0	31896	
3523	0	31964	
3524	0	32004	
3525	0	31872	
3526	0	31684	
3527	0	31488	
3528	0	31368	
3529	0	31412	
3530	0	31572	
3531	0	31696	
3532	0	31680	
3533	0	31608	
3534	0	31504	
3535	0	31360	
3536	0	31314	
3537	0	31384	
3538	0	31460	
3539	0	31644	
3540	0	31928	
3541	0	32076	
3542	0	32068	
3543	0	31960	
3544	0	31952	
3545	0	31948	
3546	0	31874	
3547	0	31904	
3548	0	31992	
3549	0	32064	
3550	0	32122	
3551	0	32218	
3552	0	32288	
3553	0	32354	
3554	0	32448	
3555	0	32544	
3556	0	32564	
3557	0	32564	
3558	0	32532	
3559	0	32420	
3560	0	32288	
3561	0	32132	
3562	0	31940	
3563	0	31740	
3564	0	31560	
3565	0	31392	
3566	0	31236	
3567	0	31184	
3568	0	31156	
3569	0	31196	
3570	0	31252	
3571	0	31252	
3572	0	31262	
3573	0	31328	
3574	0	31380	
3575	0	31520	
3576	0	31768	
3577	0	31988	
3578	0	32216	
3579	0	32456	
3580	0	32597	
3581	0	32560	
3582	0	32416	
3583	0	32408	
3584	0	32520	
3585	0	32588	
3586	0	32544	
3587	0	32492	
3588	0	32458	
3589	0	32476	
3590	0	32564	
3591	0	32676	
3592	0	32672	
3593	0	32552	
3594	0	32432	
3595	0	32316	
3596	0	32328	
3597	0	32452	
3598	0	32636	
3599	0	32808	
3600	0	32940	
3601	0	32956	
3602	0	32876	
3603	0	32864	
3604	0	32900	
3605	0	32940	
3606	0	33128	
3607	0	33396	
3608	0	33580	
3609	0	33672	
3610	0	33708	
3611	0	33832	
3612	0	34248	
3613	0	34792	
3614	0	35212	
3615	0	35440	
3616	0	35392	
3617	0	35176	
3618	0	34976	
3619	0	34812	
3620	0	34634	
3621	0	34584	
3622	0	34700	
3623	0	34856	
3624	0	34912	
3625	0	34780	
3626	0	34644	
3627	0	34478	
3628	0	34384	
3629	0	34416	
3630	0	34484	
3631	0	34596	
3632	0	34668	
3633	0	34564	
3634	0	34388	
3635	0	34224	
3636	0	34204	
3637	0	34280	
3638	0	34448	
3639	0	34644	
3640	0	34856	
3641	0	34966	
3642	0	34892	
3643	0	34724	
3644	0	34560	
3645	0	34464	
3646	0	34292	
3647	0	34040	
3648	0	33712	
3649	0	33412	
3650	0	33144	
3651	0	32884	
3652	0	32730	
3653	0	32620	
3654	0	32504	
3655	0	32380	
3656	0	32212	
3657	0	32026	
3658	0	31848	
3659	0	31702	
3660	0	31538	
3661	0	31380	
3662	0	31240	
3663	0	31096	
3664	0	30936	
3665	0	30804	
3666	0	30680	
3667	0	30548	
3668	0	30448	
3669	0	30308	
3670	0	30224	
3671	0	30234	
3672	0	30304	
3673	0	30372	
3674	0	30432	
3675	0	30528	
3676	0	30660	
3677	0	30768	
3678	0	30896	
3679	0	30972	
3680	0	30892	
3681	0	30568	
3682	0	30240	
3683	0	30052	
3684	0	30080	
3685	0	30280	
3686	0	30560	
3687	0	30888	
3688	0	31224	
3689	0	31536	
3690	0	31672	
3691	0	31596	
3692	0	31400	
3693	0	31320	
3694	0	31280	
3695	0	31200	
3696	0	31052	
3697	0	31000	
3698	0	31008	
3699	0	31008	
3700	0	30928	
3701	0	30860	
3702	0	30886	
3703	0	30960	
3704	0	31060	
3705	0	31180	
3706	0	31240	
3707	0	31364	
3708	0	31484	
3709	0	31572	
3710	0	31580	
3711	0	31444	
3712	0	31324	
3713	0	31322	
3714	0	31404	
3715	0	31496	
3716	0	31524	
3717	0	31496	
3718	0	31414	
3719	0	31290	
3720	0	31288	
3721	0	31452	
3722	0	31720	
3723	0	32012	
3724	0	32120	
3725	0	32044	
3726	0	31944	
3727	0	31940	
3728	0	31904	
3729	0	31852	
3730	0	31906	
3731	0	31902	
3732	0	31728	
3733	0	31516	
3734	0	31296	
3735	0	30948	
3736	0	30464	
3737	0	29888	
3738	0	29320	
3739	0	28964	
3740	0	28842	
3741	0	28916	
3742	0	29120	
3743	0	29512	
3744	0	30164	
3745	0	30956	
3746	0	31834	
3747	0	32836	
3748	0	33932	
3749	0	35004	
3750	0	36184	
3751	0	37588	
3752	0	39280	
3753	0	41000	
3754	0	42736	
3755	0	44528	
3756	0	46444	
3757	0	48392	
3758	0	50484	
3759	0	52672	
3760	0	54900	
3761	0	57220	
3762	0	59680	
3763	0	62088	
3764	0	63596	
3765	0	64352	
3766	0	64708	
3767	0	64840	
3768	0	64860	
3769	0	64812	
3770	0	64724	
3771	0	64624	
3772	0	64504	
3773	0	60576	
3774	0	56272	
3775	0	51860	
3776	0	47212	
3777	0	42668	
3778	0	38708	
3779	0	35352	
3780	0	32526	
3781	0	30088	
3782	0	28080	
3783	0	26656	
3784	0	25680	
3785	0	25220	
3786	0	24928	
3787	0	24592	
3788	0	24248	
3789	0	23848	
3790	0	23462	
3791	0	23124	
3792	0	22912	
3793	0	22936	
3794	0	23080	
3795	0	23340	
3796	0	23860	
3797	0	24512	
3798	0	25156	
3799	0	25760	
3800	0	26324	
3801	0	26968	
3802	0	27652	
3803	0	28332	
3804	0	28972	
3805	0	29440	
3806	0	29604	
3807	0	29564	
3808	0	29548	
3809	0	29620	
3810	0	29752	
3811	0	29982	
3812	0	30260	
3813	0	30420	
3814	0	30472	
3815	0	30464	
3816	0	30400	
3817	0	30320	
3818	0	30272	
3819	0	30220	
3820	0	30164	
3821	0	30116	
3822	0	30096	
3823	0	30008	
3824	0	29856	
3825	0	29668	
3826	0	29572	
3827	0	29604	
3828	0	29760	
3829	0	30144	
3830	0	30508	
3831	0	30660	
3832	0	30724	
3833	0	30768	
3834	0	30838	
3835	0	30826	
3836	0	30676	
3837	0	30544	
3838	0	30448	
3839	0	30420	
3840	0	30492	
3841	0	30656	
3842	0	30788	
3843	0	30824	
3844	0	30788	
3845	0	30704	
3846	0	30672	
3847	0	30692	
3848	0	30784	
3849	0	30892	
3850	0	31064	
3851	0	31280	
3852	0	31420	
3853	0	31464	
3854	0	31446	
3855	0	31328	
3856	0	31230	
3857	0	31202	
3858	0	31236	
3859	0	31280	
3860	0	31328	
3861	0	31348	
3862	0	31376	
3863	0	31460	
3864	0	31488	
3865	0	31528	
3866	0	31700	
3867	0	31874	
3868	0	31952	
3869	0	31946	
3870	0	31896	
3871	0	31816	
3872	0	31690	
3873	0	31632	
3874	0	31656	
3875	0	31604	
3876	0	31496	
3877	0	31476	
3878	0	31464	
3879	0	31464	
3880	0	31568	
3881	0	31792	
3882	0	32068	
3883	0	32304	
3884	0	32512	
3885	0	32568	
3886	0	32536	
3887	0	32424	
3888	0	32360	
3889	0	32276	
3890	0	32150	
3891	0	32120	
3892	0	32244	
3893	0	32448	
3894	0	32640	
3895	0	32804	
3896	0	32924	
3897	0	33008	
3898	0	33044	
3899	0	33064	
3900	0	33136	
3901	0	33176	
3902	0	33144	
3903	0	33056	
3904	0	32952	
3905	0	32856	
3906	0	32828	
3907	0	32848	
3908	0	32928	
3909	0	33036	
3910	0	33108	
3911	0	33210	
3912	0	33328	
3913	0	33432	
3914	0	33476	
3915	0	33412	
3916	0	33344	
3917	0	33404	
3918	0	33448	
3919	0	33492	
3920	0	33456	
3921	0	33432	
3922	0	33356	
3923	0	33256	
3924	0	33268	
3925	0	33320	
3926	0	33340	
3927	0	33432	
3928	0	33588	
3929	0	33768	
3930	0	34052	
3931	0	34276	
3932	0	34360	
3933	0	34364	
3934	0	34388	
3935	0	34288	
3936	0	34080	
3937	0	33860	
3938	0	33712	
3939	0	33676	
3940	0	33732	
3941	0	33896	
3942	0	34120	
3943	0	34344	
3944	0	34592	
3945	0	34784	
3946	0	35048	
3947	0	35316	
3948	0	35444	
3949	0	35502	
3950	0	35472	
3951	0	35368	
3952	0	35224	
3953	0	35128	
3954	0	35044	
3955	0	35012	
3956	0	35056	
3957	0	35072	
3958	0	35112	
3959	0	35148	
3960	0	35276	
3961	0	35508	
3962	0	35756	
3963	0	35988	
3964	0	36192	
3965	0	36322	
3966	0	36364	
3967	0	36336	
3968	0	36268	
3969	0	36172	
3970	0	36016	
3971	0	35964	
3972	0	36044	
3973	0	36170	
3974	0	36232	
3975	0	36236	
3976	0	36252	
3977	0	36292	
3978	0	36364	
3979	0	36460	
3980	0	36394	
3981	0	36204	
3982	0	36060	
3983	0	35892	
3984	0	35696	
3985	0	35696	
3986	0	35864	
3987	0	35992	
3988	0	36148	
3989	0	36384	
3990	0	36696	
3991	0	36996	
3992	0	37268	
3993	0	37396	
3994	0	37380	
3995	0	37388	
3996	0	37336	
3997	0	37260	
3998	0	37152	
3999	0	37012	
4000	0	36832	
4001	0	36760	
4002	0	36748	
4003	0	36720	
4004	0	36648	
4005	0	36664	
4006	0	36752	
4007	0	36680	
4008	0	36436	
4009	0	36160	
4010	0	35928	
4011	0	35832	
4012	0	35908	
4013	0	36084	
4014	0	36236	
4015	0	36300	
4016	0	36276	
4017	0	36208	
4018	0	36124	
4019	0	36152	
4020	0	36180	
4021	0	36132	
4022	0	36028	
4023	0	35850	
4024	0	35716	
4025	0	35632	
4026	0	35596	
4027	0	35572	
4028	0	35444	
4029	0	35276	
4030	0	35148	
4031	0	35052	
4032	0	34956	
4033	0	34792	
4034	0	34584	
4035	0	34336	
4036	0	34120	
4037	0	33992	
4038	0	33872	
4039	0	33660	
4040	0	33332	
4041	0	32916	
4042	0	32516	
4043	0	32292	
4044	0	32200	
4045	0	32114	
4046	0	32014	
4047	0	31904	
4048	0	31732	
4049	0	31556	
4050	0	31340	
4051	0	31202	
4052	0	31138	
4053	0	31040	
4054	0	30904	
4055	0	30692	
4056	0	30350	
4057	0	30088	
4058	0	29952	
4059	0	29800	
4060	0	29610	
4061	0	29376	
4062	0	29104	
4063	0	28932	
4064	0	28928	
4065	0	29112	
4066	0	29432	
4067	0	29768	
4068	0	29984	
4069	0	30008	
4070	0	29924	
4071	0	29960	
4072	0	30020	
4073	0	30072	
4074	0	30024	
4075	0	29860	
4076	0	29598	
4077	0	29388	
4078	0	29300	
4079	0	29296	
4080	0	29330	
4081	0	29364	
4082	0	29428	
4083	0	29496	
4084	0	29504	
4085	0	29432	
4086	0	29388	
4087	0	29312	
4088	0	29132	
4089	0	28868	
4090	0	28576	
4091	0	28348	
4092	0	28256	
4093	0	28288	
4094	0	28480	
4095	0	28620	
4096	0	28692	
4097	0	28706	
4098	0	28632	
4099	0	28460	
4100	0	28258	
4101	0	28104	
4102	0	28064	
4103	0	28120	
4104	0	28244	
4105	0	28276	
4106	0	28216	
4107	0	28104	
4108	0	28152	
4109	0	28428	
4110	0	28728	
4111	0	28972	
4112	0	29208	
4113	0	29492	
4114	0	29696	
4115	0	29732	
4116	0	29624	
4117	0	29520	
4118	0	29540	
4119	0	29548	
4120	0	29552	
4121	0	29504	
4122	0	29460	
4123	0	29504	
4124	0	29548	
4125	0	29632	
4126	0	29720	
4127	0	29664	
4128	0	29464	
4129	0	29242	
4130	0	29088	
4131	0	29064	
4132	0	29232	
4133	0	29512	
4134	0	29732	
4135	0	29942	
4136	0	30040	
4137	0	30000	
4138	0	30032	
4139	0	30136	
4140	0	30276	
4141	0	30356	
4142	0	30388	
4143	0	30342	
4144	0	30300	
4145	0	30356	
4146	0	30448	
4147	0	30464	
4148	0	30528	
4149	0	30632	
4150	0	30756	
4151	0	30714	
4152	0	30500	
4153	0	30280	
4154	0	30112	
4155	0	29844	
4156	0	29520	
4157	0	29256	
4158	0	29140	
4159	0	29256	
4160	0	29424	
4161	0	29728	
4162	0	30144	
4163	0	30540	
4164	0	30906	
4165	0	31272	
4166	0	31608	
4167	0	31768	
4168	0	31824	
4169	0	31832	
4170	0	31722	
4171	0	31560	
4172	0	31420	
4173	0	31332	
4174	0	31336	
4175	0	31312	
4176	0	31328	
4177	0	31306	
4178	0	31184	
4179	0	31048	
4180	0	30984	
4181	0	31112	
4182	0	31272	
4183	0	31384	
4184	0	31480	
4185	0	31416	
4186	0	31320	
4187	0	31310	
4188	0	31284	
4189	0	31200	
4190	0	31160	
4191	0	31192	
4192	0	31284	
4193	0	31430	
4194	0	31568	
4195	0	31682	
4196	0	31750	
4197	0	31724	
4198	0	31564	
4199	0	31444	
4200	0	31316	
4201	0	31162	
4202	0	31184	
4203	0	31290	
4204	0	31402	
4205	0	31478	
4206	0	31500	
4207	0	31576	
4208	0	31616	
4209	0	31600	
4210	0	31536	
4211	0	31468	
4212	0	31432	
4213	0	31464	
4214	0	31560	
4215	0	31632	
4216	0	31656	
4217	0	31676	
4218	0	31776	
4219	0	31884	
4220	0	31984	
4221	0	32064	
4222	0	31952	
4223	0	31632	
4224	0	31288	
4225	0	31116	
4226	0	31088	
4227	0	31085	
4228	0	31160	
4229	0	31264	
4230	0	31362	
4231	0	31524	
4232	0	31716	
4233	0	31854	
4234	0	31936	
4235	0	32040	
4236	0	32176	
4237	0	32352	
4238	0	32504	
4239	0	32588	
4240	0	32552	
4241	0	32460	
4242	0	32408	
4243	0	32352	
4244	0	32300	
4245	0	32260	
4246	0	32156	
4247	0	32056	
4248	0	31984	
4249	0	31956	
4250	0	31910	
4251	0	31696	
4252	0	31448	
4253	0	31260	
4254	0	31184	
4255	0	31264	
4256	0	31385	
4257	0	31448	
4258	0	31546	
4259	0	31614	
4260	0	31548	
4261	0	31432	
4262	0	31376	
4263	0	31520	
4264	0	31760	
4265	0	32024	
4266	0	32120	
4267	0	32152	
4268	0	32156	
4269	0	32224	
4270	0	32268	
4271	0	32284	
4272	0	32300	
4273	0	32292	
4274	0	32248	
4275	0	32156	
4276	0	32040	
4277	0	32032	
4278	0	32040	
4279	0	32076	
4280	0	32046	
4281	0	31832	
4282	0	31524	
4283	0	31156	
4284	0	30888	
4285	0	30736	
4286	0	30784	
4287	0	30984	
4288	0	31236	
4289	0	31464	
4290	0	31664	
4291	0	31764	
4292	0	31888	
4293	0	32168	
4294	0	32508	
4295	0	32740	
4296	0	32856	
4297	0	32884	
4298	0	32952	
4299	0	33104	
4300	0	33328	
4301	0	33538	
4302	0	33644	
4303	0	33684	
4304	0	33720	
4305	0	33732	
4306	0	33788	
4307	0	33844	
4308	0	33788	
4309	0	33640	
4310	0	33568	
4311	0	33564	
4312	0	33508	
4313	0	33376	
4314	0	33288	
4315	0	33288	
4316	0	33232	
4317	0	33202	
4318	0	33384	
4319	0	33688	
4320	0	34032	
4321	0	34268	
4322	0	34412	
4323	0	34524	
4324	0	34568	
4325	0	34536	
4326	0	34474	
4327	0	34424	
4328	0	34376	
4329	0	34344	
4330	0	34362	
4331	0	34392	
4332	0	34448	
4333	0	34472	
4334	0	34548	
4335	0	34664	
4336	0	34721	
4337	0	34696	
4338	0	34588	
4339	0	34460	
4340	0	34324	
4341	0	34172	
4342	0	34116	
4343	0	34180	
4344	0	34240	
4345	0	34324	
4346	0	34466	
4347	0	34664	
4348	0	34788	
4349	0	34784	
4350	0	34636	
4351	0	34360	
4352	0	34000	
4353	0	33600	
4354	0	33196	
4355	0	32888	
4356	0	32620	
4357	0	32394	
4358	0	32144	
4359	0	31844	
4360	0	31650	
4361	0	31592	
4362	0	31636	
4363	0	31836	
4364	0	32012	
4365	0	31984	
4366	0	31832	
4367	0	31692	
4368	0	31540	
4369	0	31408	
4370	0	31428	
4371	0	31442	
4372	0	31364	
4373	0	31264	
4374	0	31208	
4375	0	31244	
4376	0	31308	
4377	0	31280	
4378	0	31224	
4379	0	31124	
4380	0	30960	
4381	0	30784	
4382	0	30632	
4383	0	30522	
4384	0	30496	
4385	0	30504	
4386	0	30424	
4387	0	30240	
4388	0	30156	
4389	0	30092	
4390	0	30074	
4391	0	30180	
4392	0	30292	
4393	0	30316	
4394	0	30336	
4395	0	30412	
4396	0	30564	
4397	0	30824	
4398	0	31100	
4399	0	31324	
4400	0	31476	
4401	0	31624	
4402	0	31724	
4403	0	31736	
4404	0	31704	
4405	0	31624	
4406	0	31512	
4407	0	31408	
4408	0	31374	
4409	0	31380	
4410	0	31376	
4411	0	31372	
4412	0	31384	
4413	0	31392	
4414	0	31444	
4415	0	31448	
4416	0	31309	
4417	0	31232	
4418	0	31240	
4419	0	31242	
4420	0	31280	
4421	0	31380	
4422	0	31456	
4423	0	31420	
4424	0	31260	
4425	0	31136	
4426	0	31076	
4427	0	31116	
4428	0	31258	
4429	0	31418	
4430	0	31524	
4431	0	31624	
4432	0	31748	
4433	0	31848	
4434	0	31876	
4435	0	31884	
4436	0	31938	
4437	0	31956	
4438	0	31952	
4439	0	31888	
4440	0	31728	
4441	0	31444	
4442	0	31016	
4443	0	30488	
4444	0	29804	
4445	0	29124	
4446	0	28690	
4447	0	28536	
4448	0	28532	
4449	0	28688	
4450	0	28956	
4451	0	29420	
4452	0	30076	
4453	0	30800	
4454	0	31648	
4455	0	32680	
4456	0	33912	
4457	0	35268	
4458	0	36720	
4459	0	38304	
4460	0	40020	
4461	0	41712	
4462	0	43436	
4463	0	45224	
4464	0	47192	
4465	0	49200	
4466	0	51420	
4467	0	53776	
4468	0	56120	
4469	0	58456	
4470	0	60788	
4471	0	62888	
4472	0	64104	
4473	0	64704	
4474	0	64968	
4475	0	65062	
4476	0	65048	
4477	0	64984	
4478	0	64892	
4479	0	64776	
4480	0	63040	
4481	0	58580	
4482	0	54544	
4483	0	50404	
4484	0	46028	
4485	0	41704	
4486	0	37852	
4487	0	34552	
4488	0	31808	
4489	0	29472	
4490	0	27636	
4491	0	26344	
4492	0	25408	
4493	0	24808	
4494	0	24392	
4495	0	24072	
4496	0	23824	
4497	0	23670	
4498	0	23624	
4499	0	23552	
4500	0	23532	
4501	0	23580	
4502	0	23692	
4503	0	23946	
4504	0	24402	
4505	0	24920	
4506	0	25398	
4507	0	25832	
4508	0	26436	
4509	0	27148	
4510	0	27832	
4511	0	28544	
4512	0	29234	
4513	0	29676	
4514	0	29844	
4515	0	29932	
4516	0	30016	
4517	0	30060	
4518	0	30180	
4519	0	30356	
4520	0	30488	
4521	0	30456	
4522	0	30336	
4523	0	30148	
4524	0	29960	
4525	0	29752	
4526	0	29612	
4527	0	29640	
4528	0	29836	
4529	0	30108	
4530	0	30324	
4531	0	30440	
4532	0	30460	
4533	0	30404	
4534	0	30324	
4535	0	30272	
4536	0	30156	
4537	0	30076	
4538	0	30136	
4539	0	30294	
4540	0	30386	
4541	0	30376	
4542	0	30450	
4543	0	30592	
4544	0	30648	
4545	0	30592	
4546	0	30522	
4547	0	30456	
4548	0	30496	
4549	0	30676	
4550	0	30906	
4551	0	31100	
4552	0	31236	
4553	0	31320	
4554	0	31328	
4555	0	31284	
4556	0	31256	
4557	0	31304	
4558	0	31408	
4559	0	31524	
4560	0	31588	
4561	0	31608	
4562	0	31624	
4563	0	31656	
4564	0	31648	
4565	0	31604	
4566	0	31562	
4567	0	31560	
4568	0	31604	
4569	0	31620	
4570	0	31608	
4571	0	31628	
4572	0	31692	
4573	0	31760	
4574	0	31746	
4575	0	31688	
4576	0	31592	
4577	0	31560	
4578	0	31520	
4579	0	31492	
4580	0	31520	
4581	0	31606	
4582	0	31732	
4583	0	31864	
4584	0	31972	
4585	0	32064	
4586	0	32116	
4587	0	32072	
4588	0	32040	
4589	0	32092	
4590	0	32176	
4591	0	32298	
4592	0	32400	
4593	0	32524	
4594	0	32616	
4595	0	32644	
4596	0	32656	
4597	0	32658	
4598	0	32600	
4599	0	32576	
4600	0	32600	
4601	0	32512	
4602	0	32280	
4603	0	32212	
4604	0	32356	
4605	0	32512	
4606	0	32724	
4607	0	32956	
4608	0	33052	
4609	0	33072	
4610	0	33120	
4611	0	33252	
4612	0	33448	
4613	0	33612	
4614	0	33616	
4615	0	33552	
4616	0	33484	
4617	0	33408	
4618	0	33466	
4619	0	33620	
4620	0	33692	
4621	0	33652	
4622	0	33516	
4623	0	33304	
4624	0	33048	
4625	0	32864	
4626	0	32756	
4627	0	32700	
4628	0	32708	
4629	0	32768	
4630	0	32864	
4631	0	33120	
4632	0	33440	
4633	0	33760	
4634	0	34004	
4635	0	34180	
4636	0	34352	
4637	0	34482	
4638	0	34600	
4639	0	34668	
4640	0	34710	
4641	0	34768	
4642	0	34796	
4643	0	34744	
4644	0	34680	
4645	0	34676	
4646	0	34690	
4647	0	34668	
4648	0	34528	
4649	0	34344	
4650	0	34128	
4651	0	33992	
4652	0	33954	
4653	0	34076	
4654	0	34273	
4655	0	34532	
4656	0	34732	
4657	0	34804	
4658	0	34852	
4659	0	34856	
4660	0	34804	
4661	0	34708	
4662	0	34720	
4663	0	34800	
4664	0	34928	
4665	0	35072	
4666	0	35152	
4667	0	35208	
4668	0	35368	
4669	0	35640	
4670	0	35948	
4671	0	36160	
4672	0	36256	
4673	0	36324	
4674	0	36412	
4675	0	36388	
4676	0	36236	
4677	0	36008	
4678	0	35924	
4679	0	35912	
4680	0	36052	
4681	0	36316	
4682	0	36504	
4683	0	36652	
4684	0	36784	
4685	0	36832	
4686	0	36832	
4687	0	36840	
4688	0	36796	
4689	0	36764	
4690	0	36692	
4691	0	36692	
4692	0	36700	
4693	0	36772	
4694	0	36816	
4695	0	36852	
4696	0	36836	
4697	0	36712	
4698	0	36668	
4699	0	36640	
4700	0	36568	
4701	0	36484	
4702	0	36412	
4703	0	36312	
4704	0	36280	
4705	0	36324	
4706	0	36468	
4707	0	36628	
4708	0	36740	
4709	0	36896	
4710	0	37040	
4711	0	37084	
4712	0	36988	
4713	0	36888	
4714	0	36856	
4715	0	36952	
4716	0	37092	
4717	0	37208	
4718	0	37228	
4719	0	37152	
4720	0	37016	
4721	0	36834	
4722	0	36648	
4723	0	36492	
4724	0	36364	
4725	0	36312	
4726	0	36280	
4727	0	36356	
4728	0	36406	
4729	0	36252	
4730	0	35940	
4731	0	35514	
4732	0	35000	
4733	0	34600	
4734	0	34496	
4735	0	34628	
4736	0	34900	
4737	0	35068	
4738	0	34968	
4739	0	34808	
4740	0	34684	
4741	0	34596	
4742	0	34508	
4743	0	34344	
4744	0	34036	
4745	0	33800	
4746	0	33648	
4747	0	33492	
4748	0	33318	
4749	0	33168	
4750	0	32996	
4751	0	32856	
4752	0	32764	
4753	0	32604	
4754	0	32408	
4755	0	32228	
4756	0	32028	
4757	0	31818	
4758	0	31584	
4759	0	31368	
4760	0	31108	
4761	0	30944	
4762	0	30880	
4763	0	30832	
4764	0	30772	
4765	0	30708	
4766	0	30600	
4767	0	30540	
4768	0	30460	
4769	0	30340	
4770	0	30280	
4771	0	30188	
4772	0	30100	
4773	0	30008	
4774	0	29920	
4775	0	29868	
4776	0	29768	
4777	0	29656	
4778	0	29512	
4779	0	29232	
4780	0	28962	
4781	0	28828	
4782	0	28840	
4783	0	28816	
4784	0	28724	
4785	0	28666	
4786	0	28508	
4787	0	28264	
4788	0	28084	
4789	0	28040	
4790	0	28184	
4791	0	28416	
4792	0	28640	
4793	0	28816	
4794	0	28948	
4795	0	28898	
4796	0	28740	
4797	0	28592	
4798	0	28476	
4799	0	28340	
4800	0	28224	
4801	0	28356	
4802	0	28600	
4803	0	28840	
4804	0	29056	
4805	0	29188	
4806	0	29312	
4807	0	29400	
4808	0	29424	
4809	0	29426	
4810	0	29412	
4811	0	29372	
4812	0	29356	
4813	0	29272	
4814	0	29184	
4815	0	29166	
4816	0	29196	
4817	0	29162	
4818	0	29016	
4819	0	28968	
4820	0	28990	
4821	0	29052	
4822	0	29140	
4823	0	29280	
4824	0	29452	
4825	0	29648	
4826	0	29808	
4827	0	29896	
4828	0	29956	
4829	0	29920	
4830	0	29844	
4831	0	29760	
4832	0	29656	
4833	0	29624	
4834	0	29664	
4835	0	29704	
4836	0	29658	
4837	0	29548	
4838	0	29506	
4839	0	29496	
4840	0	29576	
4841	0	29720	
4842	0	29880	
4843	0	30076	
4844	0	30248	
4845	0	30308	
4846	0	30332	
4847	0	30304	
4848	0	30300	
4849	0	30304	
4850	0	30336	
4851	0	30364	
4852	0	30400	
4853	0	30448	
4854	0	30462	
4855	0	30444	
4856	0	30408	
4857	0	30336	
4858	0	30164	
4859	0	30032	
4860	0	30008	
4861	0	30044	
4862	0	30104	
4863	0	30236	
4864	0	30448	
4865	0	30584	
4866	0	30568	
4867	0	30484	
4868	0	30452	
4869	0	30620	
4870	0	30928	
4871	0	31248	
4872	0	31384	
4873	0	31444	
4874	0	31488	
4875	0	31488	
4876	0	31480	
4877	0	31452	
4878	0	31392	
4879	0	31372	
4880	0	31420	
4881	0	31400	
4882	0	31356	
4883	0	31268	
4884	0	31248	
4885	0	31236	
4886	0	31196	
4887	0	31120	
4888	0	31116	
4889	0	31156	
4890	0	31116	
4891	0	31056	
4892	0	31048	
4893	0	31056	
4894	0	30984	
4895	0	30944	
4896	0	30924	
4897	0	30872	
4898	0	30916	
4899	0	31008	
4900	0	31090	
4901	0	31096	
4902	0	31172	
4903	0	31368	
4904	0	31544	
4905	0	31724	
4906	0	31892	
4907	0	31856	
4908	0	31632	
4909	0	31476	
4910	0	31448	
4911	0	31428	
4912	0	31448	
4913	0	31496	
4914	0	31512	
4915	0	31534	
4916	0	31568	
4917	0	31652	
4918	0	31794	
4919	0	31940	
4920	0	32116	
4921	0	32260	
4922	0	32288	
4923	0	32344	
4924	0	32356	
4925	0	32288	
4926	0	32218	
4927	0	32160	
4928	0	32116	
4929	0	32160	
4930	0	32134	
4931	0	32052	
4932	0	31920	
4933	0	31792	
4934	0	31740	
4935	0	31784	
4936	0	31820	
4937	0	31744	
4938	0	31600	
4939	0	31556	
4940	0	31566	
4941	0	31620	
4942	0	31750	
4943	0	31852	
4944	0	31832	
4945	0	31768	
4946	0	31712	
4947	0	31668	
4948	0	31648	
4949	0	31608	
4950	0	31612	
4951	0	31754	
4952	0	31984	
4953	0	32152	
4954	0	32228	
4955	0	32188	
4956	0	32080	
4957	0	32064	
4958	0	32104	
4959	0	32156	
4960	0	32212	
4961	0	32206	
4962	0	32148	
4963	0	32064	
4964	0	32020	
4965	0	32086	
4966	0	32136	
4967	0	32132	
4968	0	31920	
4969	0	31680	
4970	0	31576	
4971	0	31612	
4972	0	31764	
4973	0	31900	
4974	0	31916	
4975	0	31914	
4976	0	31960	
4977	0	31984	
4978	0	31968	
4979	0	31930	
4980	0	31864	
4981	0	31804	
4982	0	31816	
4983	0	31872	
4984	0	31900	
4985	0	31836	
4986	0	31824	
4987	0	31896	
4988	0	32068	
4989	0	32200	
4990	0	32332	
4991	0	32492	
4992	0	32684	
4993	0	32824	
4994	0	32928	
4995	0	32952	
4996	0	32944	
4997	0	33020	
4998	0	33184	
4999	0	33408	
5000	0	33584	
5001	0	33632	
5002	0	33600	
5003	0	33546	
5004	0	33496	
5005	0	33428	
5006	0	33472	
5007	0	33686	
5008	0	33892	
5009	0	33976	
5010	0	34004	
5011	0	34100	
5012	0	34272	
5013	0	34496	
5014	0	34684	
5015	0	34740	
5016	0	34748	
5017	0	34720	
5018	0	34730	
5019	0	34720	
5020	0	34600	
5021	0	34452	
5022	0	34364	
5023	0	34272	
5024	0	34160	
5025	0	34068	
5026	0	34064	
5027	0	34080	
5028	0	34080	
5029	0	34148	
5030	0	34316	
5031	0	34452	
5032	0	34528	
5033	0	34600	
5034	0	34666	
5035	0	34696	
5036	0	34756	
5037	0	34916	
5038	0	35032	
5039	0	35116	
5040	0	35176	
5041	0	35028	
5042	0	34724	
5043	0	34428	
5044	0	34184	
5045	0	33972	
5046	0	33706	
5047	0	33492	
5048	0	33324	
5049	0	33136	
5050	0	32932	
5051	0	32684	
5052	0	32484	
5053	0	32288	
5054	0	32144	
5055	0	31996	
5056	0	31757	
5057	0	31492	
5058	0	31228	
5059	0	30976	
5060	0	30724	
5061	0	30544	
5062	0	30512	
5063	0	30498	
5064	0	30464	
5065	0	30416	
5066	0	30332	
5067	0	30160	
5068	0	30136	
5069	0	30194	
5070	0	30188	
5071	0	30096	
5072	0	30096	
5073	0	30300	
5074	0	30586	
5075	0	30824	
5076	0	30952	
5077	0	31016	
5078	0	31024	
5079	0	31012	
5080	0	31058	
5081	0	31072	
5082	0	31072	
5083	0	31084	
5084	0	31120	
5085	0	31164	
5086	0	31220	
5087	0	31192	
5088	0	31060	
5089	0	31024	
5090	0	31024	
5091	0	31102	
5092	0	31212	
5093	0	31288	
5094	0	31268	
5095	0	31200	
5096	0	31076	
5097	0	30980	
5098	0	30928	
5099	0	31020	
5100	0	31184	
5101	0	31264	
5102	0	31308	
5103	0	31310	
5104	0	31336	
5105	0	31452	
5106	0	31520	
5107	0	31488	
5108	0	31448	
5109	0	31392	
5110	0	31450	
5111	0	31604	
5112	0	31760	
5113	0	31856	
5114	0	31888	
5115	0	31896	
5116	0	31844	
5117	0	31864	
5118	0	31940	
5119	0	31980	
5120	0	31952	
5121	0	31864	
5122	0	31688	
5123	0	31584	
5124	0	31584	
5125	0	31648	
5126	0	31760	
5127	0	31840	
5128	0	31772	
5129	0	31680	
5130	0	31584	
5131	0	31404	
5132	0	31224	
5133	0	30976	
5134	0	30520	
5135	0	29890	
5136	0	29300	
5137	0	28856	
5138	0	28644	
5139	0	28738	
5140	0	29062	
5141	0	29520	
5142	0	30096	
5143	0	30772	
5144	0	31576	
5145	0	32452	
5146	0	33466	
5147	0	34432	
5148	0	35308	
5149	0	36416	
5150	0	37928	
5151	0	39680	
5152	0	41504	
5153	0	43324	
5154	0	45192	
5155	0	47168	
5156	0	49184	
5157	0	51336	
5158	0	53560	
5159	0	55824	
5160	0	58072	
5161	0	60384	
5162	0	62592	
5163	0	63896	
5164	0	64536	
5165	0	64844	
5166	0	64948	
5167	0	64928	
5168	0	64868	
5169	0	64784	
5170	0	64672	
5171	0	63656	
5172	0	59104	
5173	0	54992	
5174	0	50804	
5175	0	46580	
5176	0	42448	
5177	0	38708	
5178	0	35494	
5179	0	32884	
5180	0	30810	
5181	0	29072	
5182	0	27624	
5183	0	26488	
5184	0	25728	
5185	0	25248	
5186	0	24856	
5187	0	24392	
5188	0	23904	
5189	0	23440	
5190	0	23072	
5191	0	22958	
5192	0	23076	
5193	0	23232	
5194	0	23508	
5195	0	23800	
5196	0	24172	
5197	0	24624	
5198	0	25124	
5199	0	25520	
5200	0	25956	
5201	0	26608	
5202	0	27296	
5203	0	27904	
5204	0	28578	
5205	0	29220	
5206	0	29684	
5207	0	29968	
5208	0	30204	
5209	0	30312	
5210	0	30348	
5211	0	30350	
5212	0	30252	
5213	0	30072	
5214	0	29973	
5215	0	30026	
5216	0	30152	
5217	0	30208	
5218	0	30168	
5219	0	30080	
5220	0	30034	
5221	0	29980	
5222	0	29932	
5223	0	29992	
5224	0	30080	
5225	0	30140	
5226	0	30240	
5227	0	30392	
5228	0	30624	
5229	0	30860	
5230	0	30984	
5231	0	31032	
5232	0	31072	
5233	0	31092	
5234	0	31040	
5235	0	30936	
5236	0	30776	
5237	0	30540	
5238	0	30308	
5239	0	30312	
5240	0	30452	
5241	0	30608	
5242	0	30660	
5243	0	30680	
5244	0	30760	
5245	0	30948	
5246	0	31240	
5247	0	31508	
5248	0	31668	
5249	0	31732	
5250	0	31744	
5251	0	31692	
5252	0	31664	
5253	0	31616	
5254	0	31572	
5255	0	31512	
5256	0	31464	
5257	0	31408	
5258	0	31425	
5259	0	31520	
5260	0	31608	
5261	0	31608	
5262	0	31530	
5263	0	31376	
5264	0	31228	
5265	0	31212	
5266	0	31248	
5267	0	31178	
5268	0	31014	
5269	0	30860	
5270	0	30780	
5271	0	30788	
5272	0	30902	
5273	0	31096	
5274	0	31408	
5275	0	31708	
5276	0	31976	
5277	0	32220	
5278	0	32404	
5279	0	32538	
5280	0	32584	
5281	0	32628	
5282	0	32684	
5283	0	32802	
5284	0	32936	
5285	0	33040	
5286	0	33084	
5287	0	33076	
5288	0	33056	
5289	0	33052	
5290	0	33108	
5291	0	33104	
5292	0	33080	
5293	0	33064	
5294	0	33056	
5295	0	33068	
5296	0	33080	
5297	0	33072	
5298	0	33056	
5299	0	33060	
5300	0	33044	
5301	0	33000	
5302	0	32984	
5303	0	32908	
5304	0	32764	
5305	0	32586	
5306	0	32372	
5307	0	32104	
5308	0	31876	
5309	0	31848	
5310	0	31940	
5311	0	32082	
5312	0	32380	
5313	0	32736	
5314	0	33024	
5315	0	33220	
5316	0	33416	
5317	0	33588	
5318	0	33752	
5319	0	33906	
5320	0	33976	
5321	0	34104	
5322	0	34164	
5323	0	34280	
5324	0	34430	
5325	0	34524	
5326	0	34520	
5327	0	34456	
5328	0	34368	
5329	0	34304	
5330	0	34304	
5331	0	34372	
5332	0	34468	
5333	0	34528	
5334	0	34484	
5335	0	34352	
5336	0	34148	
5337	0	33792	
5338	0	33532	
5339	0	33428	
5340	0	33340	
5341	0	33200	
5342	0	33268	
5343	0	33676	
5344	0	34184	
5345	0	34545	
5346	0	34720	
5347	0	34924	
5348	0	35188	
5349	0	35394	
5350	0	35572	
5351	0	35728	
5352	0	35828	
5353	0	35856	
5354	0	35850	
5355	0	35776	
5356	0	35716	
5357	0	35724	
5358	0	35760	
5359	0	35872	
5360	0	36024	
5361	0	36124	
5362	0	36172	
5363	0	36072	
5364	0	35928	
5365	0	35716	
5366	0	35532	
5367	0	35428	
5368	0	35376	
5369	0	35352	
5370	0	35352	
5371	0	35476	
5372	0	35704	
5373	0	35994	
5374	0	36324	
5375	0	36672	
5376	0	36900	
5377	0	36928	
5378	0	36872	
5379	0	36880	
5380	0	36908	
5381	0	36976	
5382	0	37056	
5383	0	37064	
5384	0	37093	
5385	0	37096	
5386	0	37096	
5387	0	37112	
5388	0	37104	
5389	0	37048	
5390	0	37004	
5391	0	36988	
5392	0	37006	
5393	0	37012	
5394	0	37028	
5395	0	36952	
5396	0	36872	
5397	0	36828	
5398	0	36788	
5399	0	36760	
5400	0	36736	
5401	0	36712	
5402	0	36704	
5403	0	36668	
5404	0	36640	
5405	0	36616	
5406	0	36592	
5407	0	36552	
5408	0	36504	
5409	0	36376	
5410	0	36196	
5411	0	36092	
5412	0	36044	
5413	0	36052	
5414	0	35976	
5415	0	35872	
5416	0	35732	
5417	0	35540	
5418	0	35290	
5419	0	35184	
5420	0	35024	
5421	0	34768	
5422	0	34600	
5423	0	34616	
5424	0	34752	
5425	0	34904	
5426	0	35020	
5427	0	35068	
5428	0	35008	
5429	0	34882	
5430	0	34788	
5431	0	34692	
5432	0	34556	
5433	0	34376	
5434	0	34064	
5435	0	33690	
5436	0	33268	
5437	0	32864	
5438	0	32588	
5439	0	32260	
5440	0	31920	
5441	0	31556	
5442	0	31184	
5443	0	31000	
5444	0	30880	
5445	0	30748	
5446	0	30650	
5447	0	30592	
5448	0	30684	
5449	0	30912	
5450	0	31180	
5451	0	31424	
5452	0	31604	
5453	0	31692	
5454	0	31700	
5455	0	31660	
5456	0	31532	
5457	0	31228	
5458	0	30896	
5459	0	30640	
5460	0	30448	
5461	0	30280	
5462	0	30176	
5463	0	30220	
5464	0	30296	
5465	0	30340	
5466	0	30404	
5467	0	30408	
5468	0	30336	
5469	0	30188	
5470	0	29964	
5471	0	29660	
5472	0	29420	
5473	0	29244	
5474	0	29036	
5475	0	28912	
5476	0	28928	
5477	0	28904	
5478	0	28920	
5479	0	28960	
5480	0	28920	
5481	0	28946	
5482	0	28928	
5483	0	28896	
5484	0	28876	
5485	0	28872	
5486	0	28808	
5487	0	28772	
5488	0	28796	
5489	0	28894	
5490	0	29050	
5491	0	29132	
5492	0	29132	
5493	0	29152	
5494	0	29120	
5495	0	29056	
5496	0	29046	
5497	0	28920	
5498	0	28740	
5499	0	28640	
5500	0	28636	
5501	0	28712	
5502	0	28772	
5503	0	28776	
5504	0	28760	
5505	0	28712	
5506	0	28440	
5507	0	28088	
5508	0	27824	
5509	0	27608	
5510	0	27384	
5511	0	27508	
5512	0	27840	
5513	0	28272	
5514	0	28784	
5515	0	29316	
5516	0	29728	
5517	0	30016	
5518	0	30240	
5519	0	30456	
5520	0	30644	
5521	0	30776	
5522	0	30772	
5523	0	30632	
5524	0	30376	
5525	0	30164	
5526	0	30052	
5527	0	30004	
5528	0	30016	
5529	0	30040	
5530	0	30052	
5531	0	30120	
5532	0	30172	
5533	0	30204	
5534	0	30236	
5535	0	30268	
5536	0	30272	
5537	0	30292	
5538	0	30293	
5539	0	30264	
5540	0	30248	
5541	0	30236	
5542	0	30196	
5543	0	30108	
5544	0	30096	
5545	0	30128	
5546	0	30174	
5547	0	30218	
5548	0	30272	
5549	0	30288	
5550	0	30312	
5551	0	30416	
5552	0	30572	
5553	0	30716	
5554	0	30816	
5555	0	30856	
5556	0	30884	
5557	0	30940	
5558	0	30978	
5559	0	31000	
5560	0	30968	
5561	0	30852	
5562	0	30712	
5563	0	30680	
5564	0	30736	
5565	0	30880	
5566	0	31024	
5567	0	31068	
5568	0	31132	
5569	0	31228	
5570	0	31252	
5571	0	31152	
5572	0	31072	
5573	0	30988	
5574	0	30960	
5575	0	30992	
5576	0	31044	
5577	0	31008	
5578	0	30964	
5579	0	30964	
5580	0	31012	
5581	0	31172	
5582	0	31416	
5583	0	31552	
5584	0	31552	
5585	0	31504	
5586	0	31512	
5587	0	31538	
5588	0	31532	
5589	0	31456	
5590	0	31428	
5591	0	31436	
5592	0	31306	
5593	0	31120	
5594	0	30928	
5595	0	30778	
5596	0	30736	
5597	0	30848	
5598	0	31028	
5599	0	31204	
5600	0	31368	
5601	0	31546	
5602	0	31736	
5603	0	31900	
5604	0	32076	
5605	0	32156	
5606	0	32196	
5607	0	32152	
5608	0	32132	
5609	0	32224	
5610	0	32308	
5611	0	32336	
5612	0	32280	
5613	0	32252	
5614	0	32237	
5615	0	32296	
5616	0	32384	
5617	0	32496	
5618	0	32644	
5619	0	32780	
5620	0	32812	
5621	0	32812	
5622	0	32816	
5623	0	32800	
5624	0	32720	
5625	0	32576	
5626	0	32424	
5627	0	32280	
5628	0	32148	
5629	0	32062	
5630	0	31970	
5631	0	31938	
5632	0	31948	
5633	0	31984	
5634	0	32056	
5635	0	32092	
5636	0	32052	
5637	0	31984	
5638	0	31888	
5639	0	31754	
5640	0	31604	
5641	0	31396	
5642	0	31162	
5643	0	31022	
5644	0	31100	
5645	0	31344	
5646	0	31528	
5647	0	31576	
5648	0	31540	
5649	0	31496	
5650	0	31504	
5651	0	31456	
5652	0	31504	
5653	0	31712	
5654	0	31920	
5655	0	31980	
5656	0	31922	
5657	0	31824	
5658	0	31768	
5659	0	31772	
5660	0	31936	
5661	0	32184	
5662	0	32372	
5663	0	32420	
5664	0	32452	
5665	0	32550	
5666	0	32732	
5667	0	32848	
5668	0	32872	
5669	0	32878	
5670	0	32940	
5671	0	32996	
5672	0	32920	
5673	0	32922	
5674	0	33016	
5675	0	33012	
5676	0	32912	
5677	0	32848	
5678	0	32922	
5679	0	33150	
5680	0	33426	
5681	0	33588	
5682	0	33648	
5683	0	33768	
5684	0	33944	
5685	0	34128	
5686	0	34392	
5687	0	34676	
5688	0	35002	
5689	0	35335	
5690	0	35584	
5691	0	35692	
5692	0	35708	
5693	0	35596	
5694	0	35412	
5695	0	35268	
5696	0	35208	
5697	0	35176	
5698	0	35140	
5699	0	35056	
5700	0	34880	
5701	0	34704	
5702	0	34568	
5703	0	34416	
5704	0	34272	
5705	0	34202	
5706	0	34188	
5707	0	34184	
5708	0	34256	
5709	0	34408	
5710	0	34616	
5711	0	34808	
5712	0	34952	
5713	0	35044	
5714	0	35044	
5715	0	34896	
5716	0	34680	
5717	0	34422	
5718	0	34140	
5719	0	33812	
5720	0	33444	
5721	0	33080	
5722	0	32676	
5723	0	32368	
5724	0	32256	
5725	0	32162	
5726	0	32084	
5727	0	32056	
5728	0	32064	
5729	0	32012	
5730	0	31908	
5731	0	31776	
5732	0	31572	
5733	0	31304	
5734	0	31068	
5735	0	30896	
5736	0	30762	
5737	0	30560	
5738	0	30350	
5739	0	30168	
5740	0	30010	
5741	0	29812	
5742	0	29672	
5743	0	29680	
5744	0	29880	
5745	0	30244	
5746	0	30592	
5747	0	30776	
5748	0	30660	
5749	0	30380	
5750	0	30240	
5751	0	30396	
5752	0	30576	
5753	0	30610	
5754	0	30540	
5755	0	30416	
5756	0	30296	
5757	0	30188	
5758	0	30252	
5759	0	30462	
5760	0	30712	
5761	0	30972	
5762	0	31256	
5763	0	31432	
5764	0	31520	
5765	0	31528	
5766	0	31538	
5767	0	31576	
5768	0	31560	
5769	0	31520	
5770	0	31516	
5771	0	31532	
5772	0	31568	
5773	0	31604	
5774	0	31664	
5775	0	31688	
5776	0	31716	
5777	0	31680	
5778	0	31692	
5779	0	31732	
5780	0	31760	
5781	0	31802	
5782	0	31848	
5783	0	31768	
5784	0	31504	
5785	0	31104	
5786	0	30684	
5787	0	30490	
5788	0	30608	
5789	0	30820	
5790	0	30948	
5791	0	30968	
5792	0	30882	
5793	0	30808	
5794	0	30808	
5795	0	30848	
5796	0	30884	
5797	0	30984	
5798	0	31160	
5799	0	31472	
5800	0	31864	
5801	0	32224	
5802	0	32374	
5803	0	32384	
5804	0	32272	
5805	0	32064	
5806	0	31908	
5807	0	31722	
5808	0	31344	
5809	0	30704	
5810	0	29920	
5811	0	29348	
5812	0	29112	
5813	0	29132	
5814	0	29238	
5815	0	29424	
5816	0	29828	
5817	0	30356	
5818	0	30956	
5819	0	31728	
5820	0	32696	
5821	0	33812	
5822	0	35150	
5823	0	36648	
5824	0	38232	
5825	0	39984	
5826	0	41800	
5827	0	43580	
5828	0	45472	
5829	0	47536	
5830	0	49672	
5831	0	51920	
5832	0	54280	
5833	0	56656	
5834	0	58984	
5835	0	61392	
5836	0	63224	
5837	0	64184	
5838	0	64644	
5839	0	64832	
5840	0	64872	
5841	0	64840	
5842	0	64780	
5843	0	64672	
5844	0	64556	
5845	0	64428	
5846	0	60272	
5847	0	55904	
5848	0	51520	
5849	0	46944	
5850	0	42480	
5851	0	38504	
5852	0	35084	
5853	0	32272	
5854	0	29936	
5855	0	28096	
5856	0	26670	
5857	0	25606	
5858	0	24960	
5859	0	24490	
5860	0	24156	
5861	0	23884	
5862	0	23608	
5863	0	23406	
5864	0	23258	
5865	0	23200	
5866	0	23192	
5867	0	23264	
5868	0	23432	
5869	0	23648	
5870	0	23876	
5871	0	24120	
5872	0	24372	
5873	0	24864	
5874	0	25628	
5875	0	26304	
5876	0	26920	
5877	0	27568	
5878	0	28220	
5879	0	28698	
5880	0	28968	
5881	0	29134	
5882	0	29356	
5883	0	29712	
5884	0	30112	
5885	0	30352	
5886	0	30468	
5887	0	30512	
5888	0	30520	
5889	0	30632	
5890	0	30816	
5891	0	30964	
5892	0	31068	
5893	0	31020	
5894	0	30912	
5895	0	30804	
5896	0	30692	
5897	0	30608	
5898	0	30520	
5899	0	30416	
5900	0	30378	
5901	0	30300	
5902	0	30216	
5903	0	30164	
5904	0	30052	
5905	0	29840	
5906	0	29634	
5907	0	29536	
5908	0	29612	
5909	0	29800	
5910	0	30004	
5911	0	30210	
5912	0	30368	
5913	0	30576	
5914	0	30772	
5915	0	30908	
5916	0	30868	
5917	0	30660	
5918	0	30480	
5919	0	30464	
5920	0	30628	
5921	0	30912	
5922	0	31188	
5923	0	31400	
5924	0	31512	
5925	0	31524	
5926	0	31452	
5927	0	31348	
5928	0	31302	
5929	0	31264	
5930	0	31192	
5931	0	31184	
5932	0	31256	
5933	0	31320	
5934	0	31242	
5935	0	30974	
5936	0	30596	
5937	0	30388	
5938	0	30506	
5939	0	30784	
5940	0	31140	
5941	0	31476	
5942	0	31848	
5943	0	32044	
5944	0	31984	
5945	0	31840	
5946	0	31852	
5947	0	31992	
5948	0	32216	
5949	0	32400	
5950	0	32368	
5951	0	32232	
5952	0	32264	
5953	0	32352	
5954	0	32404	
5955	0	32438	
5956	0	32416	
5957	0	32244	
5958	0	31962	
5959	0	31844	
5960	0	31920	
5961	0	32142	
5962	0	32412	
5963	0	32668	
5964	0	32788	
5965	0	32792	
5966	0	32768	
5967	0	32792	
5968	0	32852	
5969	0	32856	
5970	0	32800	
5971	0	32676	
5972	0	32488	
5973	0	32336	
5974	0	32264	
5975	0	32348	
5976	0	32618	
5977	0	32920	
5978	0	33120	
5979	0	33220	
5980	0	33256	
5981	0	33238	
5982	0	33210	
5983	0	33220	
5984	0	33156	
5985	0	33028	
5986	0	33044	
5987	0	33208	
5988	0	33452	
5989	0	33688	
5990	0	33922	
5991	0	34116	
5992	0	34208	
5993	0	34240	
5994	0	34284	
5995	0	34312	
5996	0	34304	
5997	0	34276	
5998	0	34224	
5999	0	34168	
6000	0	34152	
6001	0	34152	
6002	0	34140	
6003	0	34188	
6004	0	34248	
6005	0	34156	
6006	0	33984	
6007	0	33912	
6008	0	33876	
6009	0	33868	
6010	0	33980	
6011	0	34240	
6012	0	34440	
6013	0	34636	
6014	0	34786	
6015	0	34904	
6016	0	34996	
6017	0	35084	
6018	0	35128	
6019	0	35128	
6020	0	35008	
6021	0	34792	
6022	0	34658	
6023	0	34652	
6024	0	34744	
6025	0	34888	
6026	0	34958	
6027	0	34932	
6028	0	34936	
6029	0	34938	
6030	0	34996	
6031	0	35184	
6032	0	35376	
6033	0	35428	
6034	0	35440	
6035	0	35584	
6036	0	35840	
6037	0	36064	
6038	0	36136	
6039	0	36020	
6040	0	35788	
6041	0	35368	
6042	0	34956	
6043	0	34788	
6044	0	34900	
6045	0	35212	
6046	0	35520	
6047	0	35724	
6048	0	35784	
6049	0	35880	
6050	0	36124	
6051	0	36536	
6052	0	36916	
6053	0	37056	
6054	0	37008	
6055	0	36864	
6056	0	36848	
6057	0	37024	
6058	0	37246	
6059	0	37440	
6060	0	37368	
6061	0	37192	
6062	0	37032	
6063	0	36916	
6064	0	36912	
6065	0	36932	
6066	0	36928	
6067	0	36922	
6068	0	36908	
6069	0	36860	
6070	0	36768	
6071	0	36772	
6072	0	36744	
6073	0	36696	
6074	0	36716	
6075	0	36728	
6076	0	36744	
6077	0	36880	
6078	0	37116	
6079	0	37224	
6080	0	37192	
6081	0	37130	
6082	0	37064	
6083	0	36960	
6084	0	36896	
6085	0	36896	
6086	0	36960	
6087	0	36956	
6088	0	36844	
6089	0	36668	
6090	0	36488	
6091	0	36352	
6092	0	36204	
6093	0	36050	
6094	0	35844	
6095	0	35556	
6096	0	35348	
6097	0	35204	
6098	0	35100	
6099	0	35100	
6100	0	35012	
6101	0	34804	
6102	0	34546	
6103	0	34232	
6104	0	33920	
6105	0	33692	
6106	0	33592	
6107	0	33496	
6108	0	33360	
6109	0	33248	
6110	0	33168	
6111	0	33176	
6112	0	33184	
6113	0	33128	
6114	0	33068	
6115	0	32984	
6116	0	32760	
6117	0	32536	
6118	0	32340	
6119	0	32112	
6120	0	31886	
6121	0	31656	
6122	0	31444	
6123	0	31264	
6124	0	31060	
6125	0	30896	
6126	0	30788	
6127	0	30696	
6128	0	30580	
6129	0	30488	
6130	0	30336	
6131	0	30160	
6132	0	30068	
6133	0	30040	
6134	0	29940	
6135	0	29796	
6136	0	29612	
6137	0	29402	
6138	0	29232	
6139	0	29100	
6140	0	28976	
6141	0	28714	
6142	0	28414	
6143	0	28046	
6144	0	27668	
6145	0	27444	
6146	0	27504	
6147	0	27772	
6148	0	28110	
6149	0	28486	
6150	0	28944	
6151	0	29300	
6152	0	29424	
6153	0	29384	
6154	0	29298	
6155	0	29176	
6156	0	28972	
6157	0	28800	
6158	0	28688	
6159	0	28648	
6160	0	28672	
6161	0	28652	
6162	0	28604	
6163	0	28584	
6164	0	28666	
6165	0	28816	
6166	0	28922	
6167	0	28952	
6168	0	29016	
6169	0	29140	
6170	0	29202	
6171	0	29208	
6172	0	29192	
6173	0	29288	
6174	0	29376	
6175	0	29376	
6176	0	29348	
6177	0	29344	
6178	0	29352	
6179	0	29352	
6180	0	29336	
6181	0	29260	
6182	0	29088	
6183	0	28952	
6184	0	28872	
6185	0	28828	
6186	0	28860	
6187	0	28964	
6188	0	29108	
6189	0	29264	
6190	0	29252	
6191	0	29096	
6192	0	28956	
6193	0	28864	
6194	0	28836	
6195	0	29016	
6196	0	29284	
6197	0	29600	
6198	0	29924	
6199	0	30144	
6200	0	30138	
6201	0	29960	
6202	0	29700	
6203	0	29528	
6204	0	29504	
6205	0	29576	
6206	0	29772	
6207	0	30076	
6208	0	30460	
6209	0	30712	
6210	0	30856	
6211	0	30840	
6212	0	30664	
6213	0	30480	
6214	0	30412	
6215	0	30480	
6216	0	30544	
6217	0	30624	
6218	0	30668	
6219	0	30672	
6220	0	30560	
6221	0	30396	
6222	0	30288	
6223	0	30232	
6224	0	30192	
6225	0	30268	
6226	0	30432	
6227	0	30568	
6228	0	30648	
6229	0	30732	
6230	0	30868	
6231	0	30988	
6232	0	31016	
6233	0	31034	
6234	0	31020	
6235	0	31104	
6236	0	31172	
6237	0	31184	
6238	0	31184	
6239	0	31212	
6240	0	31268	
6241	0	31236	
6242	0	31206	
6243	0	31290	
6244	0	31416	
6245	0	31500	
6246	0	31518	
6247	0	31456	
6248	0	31408	
6249	0	31392	
6250	0	31388	
6251	0	31368	
6252	0	31352	
6253	0	31340	
6254	0	31336	
6255	0	31300	
6256	0	31264	
6257	0	31236	
6258	0	31232	
6259	0	31244	
6260	0	31280	
6261	0	31288	
6262	0	31312	
6263	0	31356	
6264	0	31366	
6265	0	31396	
6266	0	31456	
6267	0	31418	
6268	0	31314	
6269	0	31236	
6270	0	31220	
6271	0	31220	
6272	0	31196	
6273	0	31160	
6274	0	31168	
6275	0	31244	
6276	0	31400	
6277	0	31600	
6278	0	31790	
6279	0	31872	
6280	0	31892	
6281	0	31828	
6282	0	31672	
6283	0	31524	
6284	0	31592	
6285	0	31716	
6286	0	31842	
6287	0	31792	
6288	0	31496	
6289	0	31296	
6290	0	31224	
6291	0	31124	
6292	0	31052	
6293	0	31034	
6294	0	31048	
6295	0	31072	
6296	0	31224	
6297	0	31488	
6298	0	31812	
6299	0	32140	
6300	0	32412	
6301	0	32696	
6302	0	32944	
6303	0	33066	
6304	0	33088	
6305	0	33040	
6306	0	32948	
6307	0	32828	
6308	0	32688	
6309	0	32556	
6310	0	32384	
6311	0	32306	
6312	0	32336	
6313	0	32356	
6314	0	32332	
6315	0	32252	
6316	0	32172	
6317	0	32104	
6318	0	32092	
6319	0	32088	
6320	0	32112	
6321	0	32088	
6322	0	32042	
6323	0	32096	
6324	0	32216	
6325	0	32436	
6326	0	32512	
6327	0	32474	
6328	0	32456	
6329	0	32548	
6330	0	32692	
6331	0	32792	
6332	0	32786	
6333	0	32744	
6334	0	32784	
6335	0	32856	
6336	0	32944	
6337	0	32996	
6338	0	33032	
6339	0	33120	
6340	0	33272	
6341	0	33422	
6342	0	33488	
6343	0	33588	
6344	0	33664	
6345	0	33684	
6346	0	33728	
6347	0	33856	
6348	0	34076	
6349	0	34298	
6350	0	34446	
6351	0	34476	
6352	0	34428	
6353	0	34296	
6354	0	34204	
6355	0	34192	
6356	0	34200	
6357	0	34164	
6358	0	34128	
6359	0	34168	
6360	0	34288	
6361	0	34536	
6362	0	34812	
6363	0	35004	
6364	0	35108	
6365	0	35124	
6366	0	35012	
6367	0	34860	
6368	0	34708	
6369	0	34628	
6370	0	34564	
6371	0	34432	
6372	0	34416	
6373	0	34524	
6374	0	34660	
6375	0	34804	
6376	0	34876	
6377	0	34804	
6378	0	34572	
6379	0	34250	
6380	0	33956	
6381	0	33632	
6382	0	33424	
6383	0	33370	
6384	0	33308	
6385	0	33212	
6386	0	33064	
6387	0	32874	
6388	0	32752	
6389	0	32784	
6390	0	32864	
6391	0	32860	
6392	0	32768	
6393	0	32544	
6394	0	32184	
6395	0	31820	
6396	0	31544	
6397	0	31284	
6398	0	31080	
6399	0	30848	
6400	0	30664	
6401	0	30636	
6402	0	30522	
6403	0	30338	
6404	0	30100	
6405	0	29920	
6406	0	29784	
6407	0	29652	
6408	0	29620	
6409	0	29656	
6410	0	29896	
6411	0	30232	
6412	0	30432	
6413	0	30564	
6414	0	30768	
6415	0	30900	
6416	0	30922	
6417	0	30908	
6418	0	30888	
6419	0	30904	
6420	0	30912	
6421	0	30938	
6422	0	30968	
6423	0	30960	
6424	0	30932	
6425	0	30908	
6426	0	30914	
6427	0	30912	
6428	0	30820	
6429	0	30668	
6430	0	30554	
6431	0	30434	
6432	0	30332	
6433	0	30324	
6434	0	30400	
6435	0	30460	
6436	0	30456	
6437	0	30480	
6438	0	30588	
6439	0	30740	
6440	0	30912	
6441	0	31024	
6442	0	31136	
6443	0	31272	
6444	0	31360	
6445	0	31356	
6446	0	31348	
6447	0	31352	
6448	0	31360	
6449	0	31352	
6450	0	31328	
6451	0	31300	
6452	0	31232	
6453	0	31200	
6454	0	31312	
6455	0	31388	
6456	0	31384	
6457	0	31422	
6458	0	31528	
6459	0	31652	
6460	0	31788	
6461	0	31872	
6462	0	31916	
6463	0	31976	
6464	0	32000	
6465	0	31900	
6466	0	31672	
6467	0	31436	
6468	0	31101	
6469	0	30714	
6470	0	30430	
6471	0	30208	
6472	0	29856	
6473	0	29396	
6474	0	28896	
6475	0	28452	
6476	0	28188	
6477	0	28192	
6478	0	28432	
6479	0	28854	
6480	0	29496	
6481	0	30268	
6482	0	31090	
6483	0	32016	
6484	0	33040	
6485	0	34100	
6486	0	35316	
6487	0	36804	
6488	0	38524	
6489	0	40340	
6490	0	42120	
6491	0	43896	
6492	0	45796	
6493	0	47832	
6494	0	49928	
6495	0	52274	
6496	0	54740	
6497	0	57240	
6498	0	59728	
6499	0	62128	
6500	0	63632	
6501	0	64400	
6502	0	64752	
6503	0	64884	
6504	0	64896	
6505	0	64856	
6506	0	64768	
6507	0	64648	
6508	0	64536	
6509	0	64424	
6510	0	59960	
6511	0	55576	
6512	0	51156	
6513	0	46592	
6514	0	42284	
6515	0	38484	
6516	0	35190	
6517	0	32376	
6518	0	30020	
6519	0	28112	
6520	0	26566	
6521	0	25540	
6522	0	24920	
6523	0	24476	
6524	0	24128	
6525	0	23736	
6526	0	23352	
6527	0	23116	
6528	0	23110	
6529	0	23240	
6530	0	23388	
6531	0	23526	
6532	0	23704	
6533	0	24008	
6534	0	24326	
6535	0	24612	
6536	0	24994	
6537	0	25752	
6538	0	26716	
6539	0	27536	
6540	0	28168	
6541	0	28642	
6542	0	28936	
6543	0	29100	
6544	0	29240	
6545	0	29512	
6546	0	29768	
6547	0	29892	
6548	0	29848	
6549	0	29764	
6550	0	29724	
6551	0	29720	
6552	0	29640	
6553	0	29504	
6554	0	29468	
6555	0	29488	
6556	0	29560	
6557	0	29620	
6558	0	29760	
6559	0	29834	
6560	0	29776	
6561	0	29756	
6562	0	29800	
6563	0	29834	
6564	0	29776	
6565	0	29692	
6566	0	29648	
6567	0	29640	
6568	0	29612	
6569	0	29600	
6570	0	29696	
6571	0	29868	
6572	0	30036	
6573	0	30192	
6574	0	30316	
6575	0	30412	
6576	0	30488	
6577	0	30640	
6578	0	30812	
6579	0	30912	
6580	0	30956	
6581	0	31048	
6582	0	31124	
6583	0	31124	
6584	0	31136	
6585	0	31148	
6586	0	31156	
6587	0	31144	
6588	0	31160	
6589	0	31172	
6590	0	31180	
6591	0	31192	
6592	0	31248	
6593	0	31302	
6594	0	31340	
6595	0	31376	
6596	0	31420	
6597	0	31436	
6598	0	31388	
6599	0	31252	
6600	0	31156	
6601	0	31088	
6602	0	31120	
6603	0	31192	
6604	0	31212	
6605	0	31224	
6606	0	31272	
6607	0	31216	
6608	0	31068	
6609	0	30932	
6610	0	30796	
6611	0	30660	
6612	0	30624	
6613	0	30876	
6614	0	31328	
6615	0	31736	
6616	0	32072	
6617	0	32348	
6618	0	32512	
6619	0	32672	
6620	0	32756	
6621	0	32800	
6622	0	32862	
6623	0	32944	
6624	0	33000	
6625	0	33028	
6626	0	33000	
6627	0	32972	
6628	0	32952	
6629	0	32880	
6630	0	32784	
6631	0	32748	
6632	0	32748	
6633	0	32676	
6634	0	32584	
6635	0	32524	
6636	0	32428	
6637	0	32272	
6638	0	32152	
6639	0	31936	
6640	0	31804	
6641	0	31808	
6642	0	31988	
6643	0	32312	
6644	0	32636	
6645	0	32896	
6646	0	33260	
6647	0	33540	
6648	0	33676	
6649	0	33708	
6650	0	33732	
6651	0	33764	
6652	0	33824	
6653	0	33920	
6654	0	33910	
6655	0	33828	
6656	0	33760	
6657	0	33684	
6658	0	33676	
6659	0	33818	
6660	0	34076	
6661	0	34264	
6662	0	34328	
6663	0	34256	
6664	0	34114	
6665	0	33984	
6666	0	33964	
6667	0	34024	
6668	0	34060	
6669	0	34174	
6670	0	34320	
6671	0	34364	
6672	0	34288	
6673	0	34264	
6674	0	34316	
6675	0	34324	
6676	0	34288	
6677	0	34280	
6678	0	34324	
6679	0	34340	
6680	0	34404	
6681	0	34496	
6682	0	34528	
6683	0	34508	
6684	0	34484	
6685	0	34398	
6686	0	34272	
6687	0	34140	
6688	0	34112	
6689	0	34130	
6690	0	34146	
6691	0	34300	
6692	0	34608	
6693	0	34936	
6694	0	35240	
6695	0	35424	
6696	0	35528	
6697	0	35608	
6698	0	35588	
6699	0	35548	
6700	0	35476	
6701	0	35376	
6702	0	35388	
6703	0	35496	
6704	0	35524	
6705	0	35580	
6706	0	35672	
6707	0	35696	
6708	0	35752	
6709	0	35820	
6710	0	35860	
6711	0	35888	
6712	0	35816	
6713	0	35728	
6714	0	35800	
6715	0	36064	
6716	0	36484	
6717	0	36892	
6718	0	37088	
6719	0	37096	
6720	0	36952	
6721	0	36824	
6722	0	36800	
6723	0	36808	
6724	0	36826	
6725	0	36824	
6726	0	36872	
6727	0	36952	
6728	0	36960	
6729	0	36908	
6730	0	36894	
6731	0	36904	
6732	0	36856	
6733	0	36876	
6734	0	37008	
6735	0	37146	
6736	0	37116	
6737	0	37004	
6738	0	36896	
6739	0	36736	
6740	0	36604	
6741	0	36512	
6742	0	36380	
6743	0	36308	
6744	0	36364	
6745	0	36520	
6746	0	36688	
6747	0	36872	
6748	0	37056	
6749	0	37082	
6750	0	37004	
6751	0	36818	
6752	0	36660	
6753	0	36548	
6754	0	36464	
6755	0	36368	
6756	0	36288	
6757	0	36196	
6758	0	36100	
6759	0	35944	
6760	0	35696	
6761	0	35436	
6762	0	35200	
6763	0	35068	
6764	0	34952	
6765	0	34858	
6766	0	34714	
6767	0	34548	
6768	0	34312	
6769	0	34000	
6770	0	33640	
6771	0	33316	
6772	0	33124	
6773	0	32948	
6774	0	32832	
6775	0	32828	
6776	0	32884	
6777	0	32896	
6778	0	32752	
6779	0	32532	
6780	0	32368	
6781	0	32304	
6782	0	32170	
6783	0	32020	
6784	0	31856	
6785	0	31716	
6786	0	31628	
6787	0	31480	
6788	0	31296	
6789	0	31060	
6790	0	30832	
6791	0	30668	
6792	0	30504	
6793	0	30314	
6794	0	30124	
6795	0	29968	
6796	0	29776	
6797	0	29520	
6798	0	29304	
6799	0	29152	
6800	0	29040	
6801	0	28956	
6802	0	28862	
6803	0	28836	
6804	0	28942	
6805	0	29104	
6806	0	29176	
6807	0	29208	
6808	0	29248	
6809	0	29272	
6810	0	29234	
6811	0	29064	
6812	0	28936	
6813	0	28892	
6814	0	28832	
6815	0	28752	
6816	0	28744	
6817	0	28764	
6818	0	28792	
6819	0	28826	
6820	0	28804	
6821	0	28780	
6822	0	28792	
6823	0	28936	
6824	0	29032	
6825	0	29048	
6826	0	29166	
6827	0	29288	
6828	0	29324	
6829	0	29272	
6830	0	29196	
6831	0	29152	
6832	0	29154	
6833	0	29168	
6834	0	29128	
6835	0	29080	
6836	0	29056	
6837	0	29024	
6838	0	28936	
6839	0	28892	
6840	0	28804	
6841	0	28704	
6842	0	28558	
6843	0	28448	
6844	0	28360	
6845	0	28312	
6846	0	28328	
6847	0	28398	
6848	0	28592	
6849	0	28818	
6850	0	29038	
6851	0	29236	
6852	0	29420	
6853	0	29524	
6854	0	29552	
6855	0	29600	
6856	0	29652	
6857	0	29722	
6858	0	29720	
6859	0	29684	
6860	0	29668	
6861	0	29664	
6862	0	29668	
6863	0	29728	
6864	0	29780	
6865	0	29784	
6866	0	29772	
6867	0	29728	
6868	0	29664	
6869	0	29536	
6870	0	29468	
6871	0	29492	
6872	0	29496	
6873	0	29496	
6874	0	29516	
6875	0	29564	
6876	0	29732	
6877	0	30000	
6878	0	30328	
6879	0	30614	
6880	0	30784	
6881	0	30824	
6882	0	30844	
6883	0	30936	
6884	0	30958	
6885	0	30832	
6886	0	30688	
6887	0	30548	
6888	0	30494	
6889	0	30532	
6890	0	30568	
6891	0	30576	
6892	0	30608	
6893	0	30616	
6894	0	30692	
6895	0	30826	
6896	0	30968	
6897	0	31068	
6898	0	31140	
6899	0	31116	
6900	0	31036	
6901	0	31000	
6902	0	30980	
6903	0	30976	
6904	0	31064	
6905	0	31216	
6906	0	31316	
6907	0	31320	
6908	0	31266	
6909	0	31096	
6910	0	30916	
6911	0	30880	
6912	0	30848	
6913	0	30868	
6914	0	30996	
6915	0	31192	
6916	0	31320	
6917	0	31332	
6918	0	31428	
6919	0	31564	
6920	0	31668	
6921	0	31708	
6922	0	31664	
6923	0	31725	
6924	0	31832	
6925	0	31852	
6926	0	31788	
6927	0	31664	
6928	0	31488	
6929	0	31428	
6930	0	31384	
6931	0	31350	
6932	0	31402	
6933	0	31552	
6934	0	31736	
6935	0	31892	
6936	0	31980	
6937	0	32008	
6938	0	32004	
6939	0	31988	
6940	0	32016	
6941	0	32068	
6942	0	32076	
6943	0	32088	
6944	0	32048	
6945	0	31840	
6946	0	31596	
6947	0	31476	
6948	0	31360	
6949	0	31236	
6950	0	31104	
6951	0	31012	
6952	0	31028	
6953	0	31168	
6954	0	31364	
6955	0	31556	
6956	0	31776	
6957	0	31952	
6958	0	32144	
6959	0	32416	
6960	0	32656	
6961	0	32836	
6962	0	32904	
6963	0	32920	
6964	0	32976	
6965	0	33004	
6966	0	32936	
6967	0	32808	
6968	0	32676	
6969	0	32536	
6970	0	32428	
6971	0	32300	
6972	0	32140	
6973	0	32050	
6974	0	32012	
6975	0	31956	
6976	0	31920	
6977	0	31904	
6978	0	31880	
6979	0	31808	
6980	0	31780	
6981	0	31692	
6982	0	31588	
6983	0	31582	
6984	0	31624	
6985	0	31666	
6986	0	31740	
6987	0	31840	
6988	0	31974	
6989	0	32148	
6990	0	32292	
6991	0	32412	
6992	0	32544	
6993	0	32704	
6994	0	32940	
6995	0	33140	
6996	0	33232	
6997	0	33272	
6998	0	33292	
6999	0	33268	
7000	0	33236	
7001	0	33224	
7002	0	33258	
7003	0	33328	
7004	0	33372	
7005	0	33404	
7006	0	33372	
7007	0	33304	
7008	0	33296	
7009	0	33244	
7010	0	33272	
7011	0	33484	
7012	0	33748	
7013	0	33940	
7014	0	34164	
7015	0	34336	
7016	0	34460	
7017	0	34492	
7018	0	34432	
7019	0	34388	
7020	0	34552	
7021	0	34788	
7022	0	34968	
7023	0	35060	
7024	0	35060	
7025	0	35028	
7026	0	34988	
7027	0	34936	
7028	0	34856	
7029	0	34652	
7030	0	34452	
7031	0	34348	
7032	0	34344	
7033	0	34400	
7034	0	34516	
7035	0	34652	
7036	0	34720	
7037	0	34708	
7038	0	34768	
7039	0	34956	
7040	0	35056	
7041	0	35012	
7042	0	34816	
7043	0	34612	
7044	0	34452	
7045	0	34284	
7046	0	34184	
7047	0	34084	
7048	0	33928	
7049	0	33704	
7050	0	33472	
7051	0	33272	
7052	0	33104	
7053	0	32932	
7054	0	32750	
7055	0	32552	
7056	0	32332	
7057	0	32040	
7058	0	31644	
7059	0	31296	
7060	0	31060	
7061	0	30856	
7062	0	30764	
7063	0	30712	
7064	0	30624	
7065	0	30596	
7066	0	30652	
7067	0	30748	
7068	0	30736	
7069	0	30626	
7070	0	30564	
7071	0	30600	
7072	0	30648	
7073	0	30688	
7074	0	30816	
7075	0	30944	
7076	0	30958	
7077	0	30902	
7078	0	30840	
7079	0	30820	
7080	0	30728	
7081	0	30604	
7082	0	30488	
7083	0	30426	
7084	0	30432	
7085	0	30492	
7086	0	30568	
7087	0	30540	
7088	0	30436	
7089	0	30292	
7090	0	30124	
7091	0	30096	
7092	0	30236	
7093	0	30464	
7094	0	30680	
7095	0	30788	
7096	0	30824	
7097	0	30922	
7098	0	31016	
7099	0	31020	
7100	0	31076	
7101	0	31160	
7102	0	31288	
7103	0	31476	
7104	0	31600	
7105	0	31564	
7106	0	31492	
7107	0	31504	
7108	0	31508	
7109	0	31496	
7110	0	31564	
7111	0	31620	
7112	0	31648	
7113	0	31620	
7114	0	31520	
7115	0	31400	
7116	0	31348	
7117	0	31364	
7118	0	31376	
7119	0	31488	
7120	0	31696	
7121	0	31888	
7122	0	31952	
7123	0	31968	
7124	0	32000	
7125	0	32040	
7126	0	31992	
7127	0	31904	
7128	0	31840	
7129	0	31776	
7130	0	31728	
7131	0	31610	
7132	0	31496	
7133	0	31408	
7134	0	31304	
7135	0	31104	
7136	0	30672	
7137	0	30088	
7138	0	29418	
7139	0	28760	
7140	0	28260	
7141	0	28052	
7142	0	28136	
7143	0	28440	
7144	0	28920	
7145	0	29560	
7146	0	30400	
7147	0	31298	
7148	0	32266	
7149	0	33312	
7150	0	34504	
7151	0	35872	
7152	0	37464	
7153	0	39232	
7154	0	41026	
7155	0	42864	
7156	0	44740	
7157	0	46756	
7158	0	48800	
7159	0	51036	
7160	0	53432	
7161	0	55968	
7162	0	58568	
7163	0	61060	
7164	0	63052	
7165	0	64104	
7166	0	64612	
7167	0	64832	
7168	0	64892	
7169	0	64872	
7170	0	64804	
7171	0	64704	
7172	0	64600	
7173	0	64468	
7174	0	60872	
7175	0	56432	
7176	0	52112	
7177	0	47712	
7178	0	43300	
7179	0	39328	
7180	0	35948	
7181	0	33168	
7182	0	30900	
7183	0	29028	
7184	0	27516	
7185	0	26356	
7186	0	25584	
7187	0	25084	
7188	0	24672	
7189	0	24312	
7190	0	23904	
7191	0	23410	
7192	0	22928	
7193	0	22700	
7194	0	22840	
7195	0	23136	
7196	0	23468	
7197	0	23788	
7198	0	24108	
7199	0	24428	
7200	0	24836	
7201	0	25280	
7202	0	25888	
7203	0	26730	
7204	0	27532	
7205	0	28194	
7206	0	28780	
7207	0	29232	
7208	0	29472	
7209	0	29620	
7210	0	29784	
7211	0	29992	
7212	0	30180	
7213	0	30236	
7214	0	30164	
7215	0	30018	
7216	0	29888	
7217	0	29824	
7218	0	29772	
7219	0	29712	
7220	0	29682	
7221	0	29716	
7222	0	29680	
7223	0	29580	
7224	0	29404	
7225	0	29104	
7226	0	28856	
7227	0	28724	
7228	0	28736	
7229	0	28912	
7230	0	29240	
7231	0	29664	
7232	0	30076	
7233	0	30416	
7234	0	30680	
7235	0	30884	
7236	0	31072	
7237	0	31196	
7238	0	31248	
7239	0	31244	
7240	0	31248	
7241	0	31136	
7242	0	30984	
7243	0	30832	
7244	0	30740	
7245	0	30800	
7246	0	30902	
7247	0	30900	
7248	0	30866	
7249	0	30828	
7250	0	30848	
7251	0	30900	
7252	0	30958	
7253	0	30988	
7254	0	31072	
7255	0	31128	
7256	0	31178	
7257	0	31248	
7258	0	31312	
7259	0	31336	
7260	0	31308	
7261	0	31224	
7262	0	31140	
7263	0	31098	
7264	0	31148	
7265	0	31176	
7266	0	31200	
7267	0	31218	
7268	0	31208	
7269	0	31224	
7270	0	31248	
7271	0	31332	
7272	0	31496	
7273	0	31608	
7274	0	31672	
7275	0	31744	
7276	0	31820	
7277	0	31792	
7278	0	31752	
7279	0	31812	
7280	0	31848	
7281	0	31844	
7282	0	31832	
7283	0	31800	
7284	0	31764	
7285	0	31852	
7286	0	31904	
7287	0	31848	
7288	0	31722	
7289	0	31554	
7290	0	31472	
7291	0	31448	
7292	0	31504	
7293	0	31700	
7294	0	32020	
7295	0	32268	
7296	0	32548	
7297	0	32704	
7298	0	32716	
7299	0	32712	
7300	0	32736	
7301	0	32782	
7302	0	32848	
7303	0	32976	
7304	0	33136	
7305	0	33228	
7306	0	33312	
7307	0	33356	
7308	0	33312	
7309	0	33160	
7310	0	32992	
7311	0	32876	
7312	0	32812	
7313	0	32900	
7314	0	33064	
7315	0	33096	
7316	0	33028	
7317	0	33056	
7318	0	33000	
7319	0	32996	
7320	0	33164	
7321	0	33352	
7322	0	33500	
7323	0	33594	
7324	0	33712	
7325	0	33872	
7326	0	33992	
7327	0	34068	
7328	0	34112	
7329	0	34124	
7330	0	34168	
7331	0	34208	
7332	0	34244	
7333	0	34216	
7334	0	34200	
7335	0	34296	
7336	0	34432	
7337	0	34504	
7338	0	34408	
7339	0	34292	
7340	0	34152	
7341	0	34016	
7342	0	34020	
7343	0	34136	
7344	0	34264	
7345	0	34372	
7346	0	34468	
7347	0	34560	
7348	0	34604	
7349	0	34608	
7350	0	34672	
7351	0	34764	
7352	0	34848	
7353	0	34908	
7354	0	34984	
7355	0	35076	
7356	0	35164	
7357	0	35176	
7358	0	35144	
7359	0	35096	
7360	0	35104	
7361	0	35180	
7362	0	35240	
7363	0	35296	
7364	0	35352	
7365	0	35452	
7366	0	35592	
7367	0	35704	
7368	0	35708	
7369	0	35628	
7370	0	35536	
7371	0	35440	
7372	0	35376	
7373	0	35368	
7374	0	35416	
7375	0	35556	
7376	0	35736	
7377	0	35868	
7378	0	35948	
7379	0	36046	
7380	0	36104	
7381	0	36168	
7382	0	36320	
7383	0	36512	
7384	0	36680	
7385	0	36740	
7386	0	36718	
7387	0	36692	
7388	0	36644	
7389	0	36584	
7390	0	36536	
7391	0	36580	
7392	0	36632	
7393	0	36688	
7394	0	36692	
7395	0	36708	
7396	0	36704	
7397	0	36720	
7398	0	36676	
7399	0	36612	
7400	0	36368	
7401	0	35914	
7402	0	35436	
7403	0	35168	
7404	0	35172	
7405	0	35388	
7406	0	35640	
7407	0	35808	
7408	0	35944	
7409	0	36056	
7410	0	36224	
7411	0	36348	
7412	0	36420	
7413	0	36568	
7414	0	36752	
7415	0	36908	
7416	0	36864	
7417	0	36680	
7418	0	36436	
7419	0	36100	
7420	0	35948	
7421	0	35904	
7422	0	35912	
7423	0	35960	
7424	0	35888	
7425	0	35660	
7426	0	35328	
7427	0	34984	
7428	0	34764	
7429	0	34608	
7430	0	34528	
7431	0	34448	
7432	0	34320	
7433	0	34136	
7434	0	33932	
7435	0	33732	
7436	0	33544	
7437	0	33392	
7438	0	33204	
7439	0	32960	
7440	0	32688	
7441	0	32356	
7442	0	31980	
7443	0	31620	
7444	0	31356	
7445	0	31152	
7446	0	31008	
7447	0	31052	
7448	0	31200	
7449	0	31236	
7450	0	30996	
7451	0	30576	
7452	0	30234	
7453	0	30090	
7454	0	30180	
7455	0	30336	
7456	0	30500	
7457	0	30620	
7458	0	30698	
7459	0	30716	
7460	0	30592	
7461	0	30452	
7462	0	30344	
7463	0	30224	
7464	0	30108	
7465	0	30052	
7466	0	29872	
7467	0	29644	
7468	0	29444	
7469	0	29240	
7470	0	28988	
7471	0	28736	
7472	0	28584	
7473	0	28424	
7474	0	28264	
7475	0	28224	
7476	0	28376	
7477	0	28492	
7478	0	28556	
7479	0	28712	
7480	0	28864	
7481	0	29032	
7482	0	29112	
7483	0	29108	
7484	0	29124	
7485	0	29140	
7486	0	29196	
7487	0	29222	
7488	0	29212	
7489	0	29228	
7490	0	29248	
7491	0	29208	
7492	0	29184	
7493	0	29180	
7494	0	29124	
7495	0	29024	
7496	0	28916	
7497	0	28832	
7498	0	28768	
7499	0	28760	
7500	0	28814	
7501	0	28880	
7502	0	28832	
7503	0	28672	
7504	0	28540	
7505	0	28474	
7506	0	28466	
7507	0	28480	
7508	0	28588	
7509	0	28648	
7510	0	28696	
7511	0	28740	
7512	0	28608	
7513	0	28484	
7514	0	28464	
7515	0	28540	
7516	0	28668	
7517	0	28840	
7518	0	29000	
7519	0	29100	
7520	0	29128	
7521	0	29144	
7522	0	29236	
7523	0	29360	
7524	0	29478	
7525	0	29644	
7526	0	29804	
7527	0	29908	
7528	0	30018	
7529	0	30060	
7530	0	30064	
7531	0	29992	
7532	0	29930	
7533	0	29904	
7534	0	29816	
7535	0	29584	
7536	0	29304	
7537	0	29200	
7538	0	29092	
7539	0	28976	
7540	0	28946	
7541	0	29032	
7542	0	29216	
7543	0	29456	
7544	0	29696	
7545	0	29940	
7546	0	30152	
7547	0	30268	
7548	0	30352	
7549	0	30468	
7550	0	30624	
7551	0	30752	
7552	0	30876	
7553	0	30932	
7554	0	30924	
7555	0	30936	
7556	0	31012	
7557	0	31016	
7558	0	30884	
7559	0	30706	
7560	0	30616	
7561	0	30568	
7562	0	30488	
7563	0	30408	
7564	0	30400	
7565	0	30400	
7566	0	30416	
7567	0	30536	
7568	0	30600	
7569	0	30592	
7570	0	30688	
7571	0	30848	
7572	0	30904	
7573	0	31028	
7574	0	31188	
7575	0	31290	
7576	0	31372	
7577	0	31480	
7578	0	31544	
7579	0	31548	
7580	0	31456	
7581	0	31412	
7582	0	31368	
7583	0	31312	
7584	0	31308	
7585	0	31400	
7586	0	31450	
7587	0	31404	
7588	0	31374	
7589	0	31328	
7590	0	31336	
7591	0	31324	
7592	0	31324	
7593	0	31312	
7594	0	31360	
7595	0	31360	
7596	0	31344	
7597	0	31256	
7598	0	31104	
7599	0	31108	
7600	0	31256	
7601	0	31408	
7602	0	31572	
7603	0	31820	
7604	0	32020	
7605	0	32232	
7606	0	32484	
7607	0	32724	
7608	0	32868	
7609	0	32884	
7610	0	32764	
7611	0	32620	
7612	0	32500	
7613	0	32416	
7614	0	32356	
7615	0	32360	
7616	0	32360	
7617	0	32296	
7618	0	32224	
7619	0	32276	
7620	0	32336	
7621	0	32416	
7622	0	32424	
7623	0	32404	
7624	0	32400	
7625	0	32336	
7626	0	32134	
7627	0	31932	
7628	0	31848	
7629	0	31840	
7630	0	31680	
7631	0	31516	
7632	0	31536	
7633	0	31640	
7634	0	31620	
7635	0	31516	
7636	0	31408	
7637	0	31492	
7638	0	31648	
7639	0	31860	
7640	0	32000	
7641	0	32040	
7642	0	32060	
7643	0	32068	
7644	0	32036	
7645	0	31960	
7646	0	31880	
7647	0	31852	
7648	0	31884	
7649	0	31936	
7650	0	32008	
7651	0	32090	
7652	0	32096	
7653	0	32132	
7654	0	32136	
7655	0	32064	
7656	0	32056	
7657	0	32064	
7658	0	32128	
7659	0	32152	
7660	0	32052	
7661	0	31836	
7662	0	31484	
7663	0	31140	
7664	0	30948	
7665	0	30948	
7666	0	31310	
7667	0	31828	
7668	0	32452	
7669	0	33004	
7670	0	33348	
7671	0	33436	
7672	0	33388	
7673	0	33356	
7674	0	33424	
7675	0	33456	
7676	0	33592	
7677	0	33728	
7678	0	33836	
7679	0	33912	
7680	0	34052	
7681	0	34196	
7682	0	34324	
7683	0	34490	
7684	0	34668	
7685	0	34842	
7686	0	34972	
7687	0	35044	
7688	0	34992	
7689	0	34896	
7690	0	34864	
7691	0	34884	
7692	0	34852	
7693	0	34786	
7694	0	34740	
7695	0	34640	
7696	0	34540	
7697	0	34404	
7698	0	34148	
7699	0	33960	
7700	0	33888	
7701	0	33924	
7702	0	34024	
7703	0	34132	
7704	0	34280	
7705	0	34432	
7706	0	34428	
7707	0	34520	
7708	0	34808	
7709	0	35136	
7710	0	35324	
7711	0	35352	
7712	0	35256	
7713	0	35130	
7714	0	34864	
7715	0	34484	
7716	0	34044	
7717	0	33648	
7718	0	33376	
7719	0	33176	
7720	0	32976	
7721	0	32800	
7722	0	32604	
7723	0	32382	
7724	0	32228	
7725	0	32116	
7726	0	31976	
7727	0	31788	
7728	0	31484	
7729	0	31152	
7730	0	30884	
7731	0	30716	
7732	0	30610	
7733	0	30562	
7734	0	30510	
7735	0	30528	
7736	0	30606	
7737	0	30664	
7738	0	30752	
7739	0	30892	
7740	0	31124	
7741	0	31280	
7742	0	31204	
7743	0	31084	
7744	0	30856	
7745	0	30568	
7746	0	30380	
7747	0	30432	
7748	0	30620	
7749	0	30636	
7750	0	30564	
7751	0	30440	
7752	0	30202	
7753	0	30096	
7754	0	30124	
7755	0	30204	
7756	0	30352	
7757	0	30540	
7758	0	30632	
7759	0	30536	
7760	0	30424	
7761	0	30324	
7762	0	30304	
7763	0	30376	
7764	0	30444	
7765	0	30516	
7766	0	30664	
7767	0	30864	
7768	0	31044	
7769	0	31124	
7770	0	31152	
7771	0	31028	
7772	0	30968	
7773	0	31016	
7774	0	31100	
7775	0	31164	
7776	0	31256	
7777	0	31478	
7778	0	31714	
7779	0	31896	
7780	0	32078	
7781	0	32160	
7782	0	32048	
7783	0	31946	
7784	0	31932	
7785	0	31886	
7786	0	31904	
7787	0	31932	
7788	0	31860	
7789	0	31720	
7790	0	31620	
7791	0	31440	
7792	0	31228	
7793	0	31092	
7794	0	31026	
7795	0	30938	
7796	0	30832	
7797	0	30784	
7798	0	30908	
7799	0	31084	
7800	0	31296	
7801	0	31576	
7802	0	31768	
7803	0	31908	
7804	0	31930	
7805	0	31828	
7806	0	31552	
7807	0	31112	
7808	0	30544	
7809	0	29932	
7810	0	29408	
7811	0	29012	
7812	0	28812	
7813	0	28828	
7814	0	29014	
7815	0	29340	
7816	0	29728	
7817	0	30188	
7818	0	30852	
7819	0	31728	
7820	0	32720	
7821	0	33832	
7822	0	34968	
7823	0	36088	
7824	0	37364	
7825	0	38936	
7826	0	40716	
7827	0	42428	
7828	0	44200	
7829	0	46106	
7830	0	48192	
7831	0	50404	
7832	0	52684	
7833	0	55028	
7834	0	57480	
7835	0	60036	
7836	0	62456	
7837	0	63940	
7838	0	64668	
7839	0	65016	
7840	0	65144	
7841	0	65148	
7842	0	65090	
7843	0	65000	
7844	0	64908	
7845	0	64784	
7846	0	60608	
7847	0	56280	
7848	0	52256	
7849	0	48188	
7850	0	44212	
7851	0	40692	
7852	0	37490	
7853	0	34712	
7854	0	32384	
7855	0	30490	
7856	0	28956	
7857	0	27648	
7858	0	26704	
7859	0	25920	
7860	0	25188	
7861	0	24672	
7862	0	24416	
7863	0	24224	
7864	0	24068	
7865	0	23968	
7866	0	23956	
7867	0	24038	
7868	0	24276	
7869	0	24568	
7870	0	24862	
7871	0	25060	
7872	0	25236	
7873	0	25448	
7874	0	25788	
7875	0	26132	
7876	0	26404	
7877	0	26784	
7878	0	27080	
7879	0	27328	
7880	0	27664	
7881	0	27994	
7882	0	28148	
7883	0	28314	
7884	0	28636	
7885	0	29006	
7886	0	29204	
7887	0	29318	
7888	0	29432	
7889	0	29508	
7890	0	29412	
7891	0	29384	
7892	0	29624	
7893	0	29968	
7894	0	30240	
7895	0	30436	
7896	0	30556	
7897	0	30668	
7898	0	30700	
7899	0	30624	
7900	0	30632	
7901	0	30588	
7902	0	30460	
7903	0	30388	
7904	0	30286	
7905	0	30180	
7906	0	30148	
7907	0	30226	
7908	0	30272	
7909	0	30252	
7910	0	30248	
7911	0	30266	
7912	0	30344	
7913	0	30452	
7914	0	30472	
7915	0	30544	
7916	0	30592	
7917	0	30512	
7918	0	30384	
7919	0	30292	
7920	0	30340	
7921	0	30408	
7922	0	30424	
7923	0	30412	
7924	0	30432	
7925	0	30560	
7926	0	30828	
7927	0	31236	
7928	0	31592	
7929	0	31760	
7930	0	31820	
7931	0	31788	
7932	0	31754	
7933	0	31900	
7934	0	32010	
7935	0	32040	
7936	0	32034	
7937	0	32120	
7938	0	32320	
7939	0	32436	
7940	0	32396	
7941	0	32304	
7942	0	32300	
7943	0	32280	
7944	0	32100	
7945	0	31780	
7946	0	31420	
7947	0	30896	
7948	0	30380	
7949	0	30240	
7950	0	30396	
7951	0	30600	
7952	0	30924	
7953	0	31436	
7954	0	32112	
7955	0	32836	
7956	0	33432	
7957	0	33792	
7958	0	33868	
7959	0	33832	
7960	0	33640	
7961	0	33312	
7962	0	33020	
7963	0	32928	
7964	0	32838	
7965	0	32744	
7966	0	32696	
7967	0	32556	
7968	0	32460	
7969	0	32660	
7970	0	32816	
7971	0	32832	
7972	0	32856	
7973	0	32852	
7974	0	32688	
7975	0	32520	
7976	0	32436	
7977	0	32480	
7978	0	32588	
7979	0	32704	
7980	0	32776	
7981	0	32764	
7982	0	32772	
7983	0	32812	
7984	0	32704	
7985	0	32496	
7986	0	32472	
7987	0	32608	
7988	0	32740	
7989	0	32820	
7990	0	32876	
7991	0	32978	
7992	0	33104	
7993	0	33296	
7994	0	33588	
7995	0	33704	
7996	0	33656	
7997	0	33632	
7998	0	33528	
7999	0	33472	
8000	0	33608	
8001	0	33882	
8002	0	34204	
8003	0	34568	
8004	0	34796	
8005	0	35032	
8006	0	35216	
8007	0	35212	
8008	0	35128	
8009	0	35088	
8010	0	35028	
8011	0	34932	
8012	0	34916	
8013	0	34896	
8014	0	34808	
8015	0	34756	
8016	0	34884	
8017	0	35052	
8018	0	35060	
8019	0	34968	
8020	0	34968	
8021	0	35032	
8022	0	35100	
8023	0	35164	
8024	0	35196	
8025	0	35104	
8026	0	35008	
8027	0	34992	
8028	0	35004	
8029	0	35124	
8030	0	35332	
8031	0	35672	
8032	0	36040	
8033	0	36184	
8034	0	36216	
8035	0	36356	
8036	0	36544	
8037	0	36668	
8038	0	36708	
8039	0	36816	
8040	0	37024	
8041	0	37136	
8042	0	37140	
8043	0	37216	
8044	0	37232	
8045	0	37156	
8046	0	37108	
8047	0	37052	
8048	0	37168	
8049	0	37314	
8050	0	37416	
8051	0	37720	
8052	0	38100	
8053	0	38316	
8054	0	38292	
8055	0	38144	
8056	0	37924	
8057	0	37566	
8058	0	37324	
8059	0	37368	
8060	0	37600	
8061	0	37888	
8062	0	38128	
8063	0	38348	
8064	0	38528	
8065	0	38656	
8066	0	38744	
8067	0	38808	
8068	0	38980	
8069	0	39144	
8070	0	39148	
8071	0	38900	
8072	0	38448	
8073	0	38012	
8074	0	37724	
8075	0	37488	
8076	0	37424	
8077	0	37628	
8078	0	37824	
8079	0	37968	
8080	0	37912	
8081	0	37664	
8082	0	37368	
8083	0	36976	
8084	0	36704	
8085	0	36660	
8086	0	36644	
8087	0	36572	
8088	0	36496	
8089	0	36580	
8090	0	36980	
8091	0	37396	
8092	0	37752	
8093	0	38008	
8094	0	38106	
8095	0	38204	
8096	0	38136	
8097	0	37900	
8098	0	37770	
8099	0	37536	
8100	0	37088	
8101	0	36512	
8102	0	36072	
8103	0	35744	
8104	0	35544	
8105	0	35410	
8106	0	35376	
8107	0	35356	
8108	0	35448	
8109	0	35466	
8110	0	35104	
8111	0	34520	
8112	0	34108	
8113	0	33688	
8114	0	33124	
8115	0	32564	
8116	0	32028	
8117	0	31668	
8118	0	31576	
8119	0	31536	
8120	0	31348	
8121	0	31324	
8122	0	31502	
8123	0	31732	
8124	0	31960	
8125	0	32112	
8126	0	32116	
8127	0	31984	
8128	0	31972	
8129	0	31784	
8130	0	31400	
8131	0	31112	
8132	0	30960	
8133	0	30781	
8134	0	30650	
8135	0	30544	
8136	0	30324	
8137	0	30052	
8138	0	29740	
8139	0	29252	
8140	0	28860	
8141	0	28556	
8142	0	28356	
8143	0	28048	
8144	0	27544	
8145	0	27108	
8146	0	26977	
8147	0	27214	
8148	0	27576	
8149	0	28012	
8150	0	28584	
8151	0	29100	
8152	0	29440	
8153	0	29684	
8154	0	29856	
8155	0	30144	
8156	0	30616	
8157	0	30980	
8158	0	31180	
8159	0	31204	
8160	0	30920	
8161	0	30560	
8162	0	30204	
8163	0	29982	
8164	0	29988	
8165	0	30008	
8166	0	29916	
8167	0	29768	
8168	0	29688	
8169	0	29708	
8170	0	29768	
8171	0	29588	
8172	0	29176	
8173	0	28864	
8174	0	28712	
8175	0	28636	
8176	0	28464	
8177	0	28544	
8178	0	29008	
8179	0	29486	
8180	0	29728	
8181	0	29580	
8182	0	29300	
8183	0	29048	
8184	0	28912	
8185	0	28912	
8186	0	29008	
8187	0	29216	
8188	0	29552	
8189	0	29924	
8190	0	30196	
8191	0	30326	
8192	0	30452	
8193	0	30484	
8194	0	30464	
8195	0	30522	
8196	0	30404	
8197	0	30256	
8198	0	30218	
8199	0	30344	
8200	0	30376	
8201	0	30200	
8202	0	29992	
8203	0	30068	
8204	0	30368	
8205	0	30560	
8206	0	30544	
8207	0	30312	
8208	0	29888	
8209	0	29748	
8210	0	29812	
8211	0	29902	
8212	0	30140	
8213	0	30292	
8214	0	30456	
8215	0	30658	
8216	0	30940	
8217	0	31160	
8218	0	31336	
8219	0	31320	
8220	0	31328	
8221	0	31200	
8222	0	30824	
8223	0	30400	
8224	0	30262	
8225	0	30156	
8226	0	29904	
8227	0	29732	
8228	0	29745	
8229	0	29976	
8230	0	30368	
8231	0	30768	
8232	0	30992	
8233	0	31188	
8234	0	31452	
8235	0	31680	
8236	0	31584	
8237	0	31344	
8238	0	31112	
8239	0	31026	
8240	0	31184	
8241	0	31380	
8242	0	31484	
8243	0	31496	
8244	0	31484	
8245	0	31612	
8246	0	31652	
8247	0	31404	
8248	0	31072	
8249	0	30772	
8250	0	30714	
8251	0	30980	
8252	0	31460	
8253	0	31952	
8254	0	32366	
8255	0	32552	
8256	0	32384	
8257	0	31948	
8258	0	31532	
8259	0	31340	
8260	0	31418	
8261	0	31812	
8262	0	32240	
8263	0	32476	
8264	0	32492	
8265	0	32500	
8266	0	32408	
8267	0	32300	
8268	0	32240	
8269	0	32304	
8270	0	32484	
8271	0	32848	
8272	0	33240	
8273	0	33284	
8274	0	33136	
8275	0	32784	
8276	0	32628	
8277	0	32440	
8278	0	32048	
8279	0	31636	
8280	0	31480	
8281	0	31616	
8282	0	31812	
8283	0	32004	
8284	0	32244	
8285	0	32404	
8286	0	32572	
8287	0	32744	
8288	0	32844	
8289	0	32840	
8290	0	32728	
8291	0	32720	
8292	0	32892	
8293	0	32976	
8294	0	32820	
8295	0	32472	
8296	0	32000	
8297	0	31640	
8298	0	31752	
8299	0	31956	
8300	0	32128	
8301	0	32192	
8302	0	32114	
8303	0	32196	
8304	0	32396	
8305	0	32498	
8306	0	32645	
8307	0	32834	
8308	0	32924	
8309	0	32984	
8310	0	33052	
8311	0	33240	
8312	0	33588	
8313	0	33992	
8314	0	34240	
8315	0	34100	
8316	0	33934	
8317	0	33768	
8318	0	33476	
8319	0	33296	
8320	0	33364	
8321	0	33568	
8322	0	33764	
8323	0	33984	
8324	0	34244	
8325	0	34488	
8326	0	34700	
8327	0	34764	
8328	0	34876	
8329	0	35004	
8330	0	35064	
8331	0	35120	
8332	0	35164	
8333	0	35212	
8334	0	35096	
8335	0	34924	
8336	0	34632	
8337	0	34202	
8338	0	33720	
8339	0	33324	
8340	0	33400	
8341	0	33924	
8342	0	34400	
8343	0	34592	
8344	0	34784	
8345	0	34984	
8346	0	35132	
8347	0	35124	
8348	0	35192	
8349	0	35312	
8350	0	35452	
8351	0	35676	
8352	0	35752	
8353	0	35832	
8354	0	35864	
8355	0	35580	
8356	0	35080	
8357	0	34628	
8358	0	34188	
8359	0	33980	
8360	0	33908	
8361	0	33696	
8362	0	33476	
8363	0	33208	
8364	0	32840	
8365	0	32508	
8366	0	32224	
8367	0	32182	
8368	0	32344	
8369	0	32490	
8370	0	32492	
8371	0	32364	
8372	0	32136	
8373	0	31936	
8374	0	31648	
8375	0	31424	
8376	0	31388	
8377	0	31404	
8378	0	31456	
8379	0	31524	
8380	0	31620	
8381	0	31660	
8382	0	31584	
8383	0	31428	
8384	0	31210	
8385	0	30944	
8386	0	30628	
8387	0	30412	
8388	0	30100	
8389	0	29772	
8390	0	29636	
8391	0	29508	
8392	0	29424	
8393	0	29348	
8394	0	29228	
8395	0	29252	
8396	0	29340	
8397	0	29476	
8398	0	29812	
8399	0	30400	
8400	0	31048	
8401	0	31544	
8402	0	31800	
8403	0	31936	
8404	0	32060	
8405	0	32172	
8406	0	32280	
8407	0	32420	
8408	0	32540	
8409	0	32456	
8410	0	32296	
8411	0	32308	
8412	0	32460	
8413	0	32456	
8414	0	32232	
8415	0	32152	
8416	0	32072	
8417	0	31956	
8418	0	31932	
8419	0	31604	
8420	0	31024	
8421	0	30528	
8422	0	30224	
8423	0	30060	
8424	0	30064	
8425	0	30204	
8426	0	30392	
8427	0	30604	
8428	0	30716	
8429	0	30786	
8430	0	30994	
8431	0	31352	
8432	0	31688	
8433	0	32008	
8434	0	32308	
8435	0	32448	
8436	0	32392	
8437	0	32184	
8438	0	31804	
8439	0	31528	
8440	0	31400	
8441	0	31360	
8442	0	31212	
8443	0	31020	
8444	0	30996	
8445	0	31172	
8446	0	31424	
8447	0	31480	
8448	0	31366	
8449	0	31156	
8450	0	31012	
8451	0	31074	
8452	0	31162	
8453	0	31076	
8454	0	30756	
8455	0	30198	
8456	0	29508	
8457	0	28916	
8458	0	28520	
8459	0	28384	
8460	0	28504	
8461	0	28760	
8462	0	29044	
8463	0	29404	
8464	0	29800	
8465	0	30228	
8466	0	30820	
8467	0	31612	
8468	0	32576	
8469	0	33712	
8470	0	34924	
8471	0	36468	
8472	0	38360	
8473	0	40376	
8474	0	42376	
8475	0	44376	
8476	0	46496	
8477	0	48920	
8478	0	51544	
8479	0	54100	
8480	0	56672	
8481	0	59240	
8482	0	61652	
8483	0	63104	
8484	0	63840	
8485	0	64192	
8486	0	64316	
8487	0	64316	
8488	0	64260	
8489	0	64192	
8490	0	64084	
8491	0	63960	
8492	0	63860	
8493	0	63728	
8494	0	61356	
8495	0	56628	
8496	0	51952	
8497	0	47440	
8498	0	43396	
8499	0	39960	
8500	0	37164	
8501	0	35008	
8502	0	33244	
8503	0	31580	
8504	0	30100	
8505	0	28768	
8506	0	27604	
8507	0	26592	
8508	0	25852	
8509	0	25260	
8510	0	24648	
8511	0	23994	
8512	0	23396	
8513	0	22994	
8514	0	22848	
8515	0	22848	
8516	0	22864	
8517	0	22832	
8518	0	22808	
8519	0	22800	
8520	0	22868	
8521	0	22856	
8522	0	23076	
8523	0	23498	
8524	0	24322	
8525	0	25408	
8526	0	26460	
8527	0	27352	
8528	0	27920	
8529	0	28264	
8530	0	28664	
8531	0	29140	
8532	0	29444	
8533	0	29568	
8534	0	29708	
8535	0	29850	
8536	0	29948	
8537	0	29984	
8538	0	29924	
8539	0	29892	
8540	0	29854	
8541	0	29836	
8542	0	29824	
8543	0	29788	
8544	0	29776	
8545	0	29932	
8546	0	30218	
8547	0	30368	
8548	0	30348	
8549	0	30204	
8550	0	29848	
8551	0	29624	
8552	0	29608	
8553	0	29596	
8554	0	29612	
8555	0	29624	
8556	0	29520	
8557	0	29428	
8558	0	29336	
8559	0	29280	
8560	0	29348	
8561	0	29508	
8562	0	29732	
8563	0	29984	
8564	0	30196	
8565	0	30332	
8566	0	30384	
8567	0	30292	
8568	0	30172	
8569	0	30240	
8570	0	30348	
8571	0	30440	
8572	0	30608	
8573	0	30680	
8574	0	30608	
8575	0	30530	
8576	0	30416	
8577	0	30336	
8578	0	30266	
8579	0	30168	
8580	0	30092	
8581	0	30048	
8582	0	29960	
8583	0	29892	
8584	0	29920	
8585	0	30056	
8586	0	30328	
8587	0	30728	
8588	0	31004	
8589	0	31100	
8590	0	31272	
8591	0	31456	
