# OpenSignals Text File Format. Version 1
# {"00:07:80:4B:15:F7": {"position": 0, "device": "biosignalsplux", "device name": "00:07:80:4B:15:F7", "device connection": "BTH00:07:80:4B:15:F7", "sampling rate": 1000, "resolution": [16], "firmware version": 775, "comments": "", "keywords": "", "mode": 0, "sync interval": 2, "date": "2023-4-12", "time": "15:41:44.989", "channels": [1], "sensor": ["ECG"], "label": ["CH1"], "column": ["nSeq", "DI", "CH1"], "special": [{"SpO2": [80, 40, 5, 4, 3, 3]}, {"SpO2": [80, 40, 5, 4, 3, 3]}, {"SpO2": [80, 40, 5, 4, 3, 3]}, {"SpO2": [80, 40, 5, 4, 3, 3]}, {"SpO2": [80, 40, 5, 4, 3, 3]}, {"SpO2": [80, 40, 5, 4, 3, 3]}, {"SpO2": [80, 40, 5, 4, 3, 3]}, {"SpO2": [80, 40, 5, 4, 3, 3]}], "digital IO": [0, 1], "sleeve color": ["green"], "convertedValues": 0}}
# EndOfHeader
0	0	24048	
1	0	24120	
2	0	24212	
3	0	24272	
4	0	24342	
5	0	24440	
6	0	24516	
7	0	24588	
8	0	24660	
9	0	24732	
10	0	24820	
11	0	24932	
12	0	25060	
13	0	25146	
14	0	25218	
15	0	25320	
16	0	25448	
17	0	25572	
18	0	25656	
19	0	25712	
20	0	25788	
21	0	25868	
22	0	25940	
23	0	26040	
24	0	26069	
25	0	26120	
26	0	26202	
27	0	26324	
28	0	26388	
29	0	26452	
30	0	26648	
31	0	26796	
32	0	26912	
33	0	27012	
34	0	27122	
35	0	27228	
36	0	27340	
37	0	27456	
38	0	27562	
39	0	27680	
40	0	27824	
41	0	27964	
42	0	28096	
43	0	28188	
44	0	28312	
45	0	28420	
46	0	28524	
47	0	28612	
48	0	28676	
49	0	28736	
50	0	28824	
51	0	28896	
52	0	29000	
53	0	29116	
54	0	29228	
55	0	29344	
56	0	29432	
57	0	29564	
58	0	29640	
59	0	29668	
60	0	29700	
61	0	29732	
62	0	29836	
63	0	29940	
64	0	30012	
65	0	30048	
66	0	30070	
67	0	30100	
68	0	30124	
69	0	30160	
70	0	30216	
71	0	30256	
72	0	30268	
73	0	30280	
74	0	30304	
75	0	30324	
76	0	30302	
77	0	30296	
78	0	30328	
79	0	30336	
80	0	30396	
81	0	30392	
82	0	30392	
83	0	30428	
84	0	30480	
85	0	30540	
86	0	30592	
87	0	30632	
88	0	30656	
89	0	30708	
90	0	30768	
91	0	30808	
92	0	30868	
93	0	30940	
94	0	30984	
95	0	31012	
96	0	31032	
97	0	31060	
98	0	31098	
99	0	31136	
100	0	31164	
101	0	31184	
102	0	31208	
103	0	31164	
104	0	31084	
105	0	30988	
106	0	30928	
107	0	30884	
108	0	30816	
109	0	30754	
110	0	30706	
111	0	30628	
112	0	30512	
113	0	30392	
114	0	30308	
115	0	30248	
116	0	30220	
117	0	30215	
118	0	30168	
119	0	30094	
120	0	29992	
121	0	29880	
122	0	29808	
123	0	29744	
124	0	29712	
125	0	29680	
126	0	29632	
127	0	29604	
128	0	29582	
129	0	29560	
130	0	29524	
131	0	29452	
132	0	29388	
133	0	29316	
134	0	29232	
135	0	29256	
136	0	29256	
137	0	29248	
138	0	29228	
139	0	29156	
140	0	29088	
141	0	29048	
142	0	29012	
143	0	28960	
144	0	28904	
145	0	28864	
146	0	28836	
147	0	28800	
148	0	28780	
149	0	28808	
150	0	28812	
151	0	28868	
152	0	28888	
153	0	28908	
154	0	28932	
155	0	28936	
156	0	28948	
157	0	28968	
158	0	28984	
159	0	28986	
160	0	29008	
161	0	29032	
162	0	29010	
163	0	28968	
164	0	28940	
165	0	28952	
166	0	28980	
167	0	29000	
168	0	29032	
169	0	29064	
170	0	29104	
171	0	29180	
172	0	29208	
173	0	29248	
174	0	29304	
175	0	29312	
176	0	29344	
177	0	29376	
178	0	29384	
179	0	29352	
180	0	29356	
181	0	29420	
182	0	29468	
183	0	29512	
184	0	29544	
185	0	29588	
186	0	29612	
187	0	29636	
188	0	29660	
189	0	29688	
190	0	29712	
191	0	29744	
192	0	29760	
193	0	29760	
194	0	29768	
195	0	29812	
196	0	29864	
197	0	29932	
198	0	29988	
199	0	29984	
200	0	29996	
201	0	30028	
202	0	30088	
203	0	30148	
204	0	30208	
205	0	30266	
206	0	30304	
207	0	30340	
208	0	30376	
209	0	30412	
210	0	30434	
211	0	30464	
212	0	30512	
213	0	30552	
214	0	30564	
215	0	30572	
216	0	30572	
217	0	30600	
218	0	30608	
219	0	30644	
220	0	30664	
221	0	30688	
222	0	30684	
223	0	30672	
224	0	30676	
225	0	30700	
226	0	30708	
227	0	30688	
228	0	30692	
229	0	30752	
230	0	30744	
231	0	30740	
232	0	30756	
233	0	30768	
234	0	30812	
235	0	30816	
236	0	30828	
237	0	30840	
238	0	30836	
239	0	30852	
240	0	30896	
241	0	30916	
242	0	30904	
243	0	30872	
244	0	30900	
245	0	30880	
246	0	30842	
247	0	30840	
248	0	30812	
249	0	30772	
250	0	30756	
251	0	30776	
252	0	30784	
253	0	30736	
254	0	30748	
255	0	30768	
256	0	30744	
257	0	30740	
258	0	30744	
259	0	30756	
260	0	30756	
261	0	30784	
262	0	30768	
263	0	30776	
264	0	30792	
265	0	30780	
266	0	30792	
267	0	30772	
268	0	30776	
269	0	30784	
270	0	30808	
271	0	30836	
272	0	30840	
273	0	30816	
274	0	30814	
275	0	30792	
276	0	30748	
277	0	30736	
278	0	30768	
279	0	30768	
280	0	30762	
281	0	30776	
282	0	30796	
283	0	30812	
284	0	30824	
285	0	30804	
286	0	30844	
287	0	30844	
288	0	30848	
289	0	30816	
290	0	30796	
291	0	30784	
292	0	30768	
293	0	30732	
294	0	30716	
295	0	30716	
296	0	30720	
297	0	30696	
298	0	30680	
299	0	30688	
300	0	30688	
301	0	30644	
302	0	30632	
303	0	30634	
304	0	30636	
305	0	30648	
306	0	30636	
307	0	30648	
308	0	30668	
309	0	30612	
310	0	30576	
311	0	30564	
312	0	30572	
313	0	30564	
314	0	30556	
315	0	30560	
316	0	30556	
317	0	30556	
318	0	30576	
319	0	30596	
320	0	30600	
321	0	30628	
322	0	30672	
323	0	30672	
324	0	30684	
325	0	30676	
326	0	30672	
327	0	30712	
328	0	30744	
329	0	30784	
330	0	30804	
331	0	30818	
332	0	30772	
333	0	30776	
334	0	30796	
335	0	30768	
336	0	30712	
337	0	30692	
338	0	30640	
339	0	30684	
340	0	30740	
341	0	30800	
342	0	30794	
343	0	30768	
344	0	30744	
345	0	30740	
346	0	30768	
347	0	30796	
348	0	30836	
349	0	30848	
350	0	30830	
351	0	30820	
352	0	30810	
353	0	30776	
354	0	30762	
355	0	30800	
356	0	30836	
357	0	30840	
358	0	30836	
359	0	30852	
360	0	30908	
361	0	30928	
362	0	30948	
363	0	30948	
364	0	30922	
365	0	30896	
366	0	30884	
367	0	30936	
368	0	30928	
369	0	30936	
370	0	31002	
371	0	31028	
372	0	31024	
373	0	31052	
374	0	31080	
375	0	31100	
376	0	31124	
377	0	31092	
378	0	31052	
379	0	31016	
380	0	30972	
381	0	30924	
382	0	30888	
383	0	30888	
384	0	30868	
385	0	30864	
386	0	30900	
387	0	30972	
388	0	31040	
389	0	31040	
390	0	31028	
391	0	31028	
392	0	31034	
393	0	31052	
394	0	31048	
395	0	31052	
396	0	31028	
397	0	31068	
398	0	31076	
399	0	31102	
400	0	31088	
401	0	31096	
402	0	31072	
403	0	31074	
404	0	31096	
405	0	31116	
406	0	31120	
407	0	31128	
408	0	31144	
409	0	31148	
410	0	31156	
411	0	31156	
412	0	31166	
413	0	31176	
414	0	31184	
415	0	31208	
416	0	31232	
417	0	31260	
418	0	31274	
419	0	31260	
420	0	31272	
421	0	31312	
422	0	31333	
423	0	31328	
424	0	31320	
425	0	31308	
426	0	31312	
427	0	31324	
428	0	31356	
429	0	31356	
430	0	31300	
431	0	31258	
432	0	31264	
433	0	31308	
434	0	31416	
435	0	31576	
436	0	31776	
437	0	32008	
438	0	32240	
439	0	32452	
440	0	32668	
441	0	32856	
442	0	33016	
443	0	33192	
444	0	33376	
445	0	33504	
446	0	33600	
447	0	33624	
448	0	33600	
449	0	33560	
450	0	33560	
451	0	33524	
452	0	33472	
453	0	33448	
454	0	33384	
455	0	33336	
456	0	33344	
457	0	33472	
458	0	33744	
459	0	34104	
460	0	34436	
461	0	34760	
462	0	35028	
463	0	35232	
464	0	35372	
465	0	35444	
466	0	35500	
467	0	35564	
468	0	35596	
469	0	35600	
470	0	35632	
471	0	35704	
472	0	35800	
473	0	35920	
474	0	36032	
475	0	36096	
476	0	36020	
477	0	35824	
478	0	35620	
479	0	35416	
480	0	35200	
481	0	35052	
482	0	34976	
483	0	34920	
484	0	34792	
485	0	34706	
486	0	34624	
487	0	34432	
488	0	34180	
489	0	33972	
490	0	33804	
491	0	33660	
492	0	33504	
493	0	33344	
494	0	33148	
495	0	32916	
496	0	32696	
497	0	32436	
498	0	32200	
499	0	31964	
500	0	31732	
501	0	31500	
502	0	31332	
503	0	31196	
504	0	31088	
505	0	30976	
506	0	30840	
507	0	30704	
508	0	30604	
509	0	30472	
510	0	30344	
511	0	30264	
512	0	30232	
513	0	30188	
514	0	30156	
515	0	30144	
516	0	30152	
517	0	30160	
518	0	30180	
519	0	30180	
520	0	30192	
521	0	30192	
522	0	30168	
523	0	30128	
524	0	30136	
525	0	30128	
526	0	30142	
527	0	30152	
528	0	30176	
529	0	30172	
530	0	30169	
531	0	30204	
532	0	30296	
533	0	30292	
534	0	30280	
535	0	30296	
536	0	30324	
537	0	30308	
538	0	30316	
539	0	30316	
540	0	30276	
541	0	30228	
542	0	30136	
543	0	30060	
544	0	29974	
545	0	29868	
546	0	29766	
547	0	29644	
548	0	29536	
549	0	29384	
550	0	29206	
551	0	29026	
552	0	28852	
553	0	28664	
554	0	28464	
555	0	28268	
556	0	28208	
557	0	28220	
558	0	28226	
559	0	28334	
560	0	28626	
561	0	29136	
562	0	29800	
563	0	30616	
564	0	31656	
565	0	33140	
566	0	34952	
567	0	37136	
568	0	39736	
569	0	42672	
570	0	45772	
571	0	48972	
572	0	52360	
573	0	55920	
574	0	59508	
575	0	63108	
576	0	65535	
577	0	65535	
578	0	65535	
579	0	65535	
580	0	65535	
581	0	65535	
582	0	65535	
583	0	65535	
584	0	65535	
585	0	65535	
586	0	65535	
587	0	65535	
588	0	65535	
589	0	65535	
590	0	65535	
591	0	65535	
592	0	65535	
593	0	65535	
594	0	65535	
595	0	65535	
596	0	65535	
597	0	65535	
598	0	65535	
599	0	65535	
600	0	61748	
601	0	57016	
602	0	52096	
603	0	47088	
604	0	42572	
605	0	38692	
606	0	35340	
607	0	32432	
608	0	30112	
609	0	28456	
610	0	27336	
611	0	26574	
612	0	25988	
613	0	25496	
614	0	25052	
615	0	24594	
616	0	24144	
617	0	23756	
618	0	23376	
619	0	23000	
620	0	22680	
621	0	22416	
622	0	22180	
623	0	21984	
624	0	21818	
625	0	21625	
626	0	21464	
627	0	21300	
628	0	21136	
629	0	20968	
630	0	20848	
631	0	20714	
632	0	20620	
633	0	20544	
634	0	20496	
635	0	20464	
636	0	20432	
637	0	20424	
638	0	20420	
639	0	20412	
640	0	20444	
641	0	20456	
642	0	20466	
643	0	20496	
644	0	20546	
645	0	20590	
646	0	20660	
647	0	20728	
648	0	20812	
649	0	20868	
650	0	20944	
651	0	20984	
652	0	21036	
653	0	21077	
654	0	21112	
655	0	21161	
656	0	21250	
657	0	21312	
658	0	21364	
659	0	21424	
660	0	21506	
661	0	21576	
662	0	21665	
663	0	21765	
664	0	21892	
665	0	21948	
666	0	22032	
667	0	22112	
668	0	22208	
669	0	22344	
670	0	22472	
671	0	22606	
672	0	22688	
673	0	22748	
674	0	22820	
675	0	22896	
676	0	23008	
677	0	23109	
678	0	23213	
679	0	23328	
680	0	23416	
681	0	23484	
682	0	23544	
683	0	23656	
684	0	23738	
685	0	23788	
686	0	23856	
687	0	23924	
688	0	24028	
689	0	24120	
690	0	24220	
691	0	24312	
692	0	24418	
693	0	24516	
694	0	24580	
695	0	24626	
696	0	24680	
697	0	24752	
698	0	24856	
699	0	24904	
700	0	24972	
701	0	25068	
702	0	25108	
703	0	25156	
704	0	25236	
705	0	25296	
706	0	25344	
707	0	25408	
708	0	25516	
709	0	25632	
710	0	25696	
711	0	25792	
712	0	25816	
713	0	25880	
714	0	25996	
715	0	26112	
716	0	26156	
717	0	26260	
718	0	26388	
719	0	26484	
720	0	26590	
721	0	26668	
722	0	26778	
723	0	26854	
724	0	26956	
725	0	27064	
726	0	27204	
727	0	27350	
728	0	27480	
729	0	27604	
730	0	27684	
731	0	27762	
732	0	27852	
733	0	27936	
734	0	28016	
735	0	28134	
736	0	28254	
737	0	28342	
738	0	28436	
739	0	28512	
740	0	28616	
741	0	28728	
742	0	28860	
743	0	28984	
744	0	29074	
745	0	29192	
746	0	29296	
747	0	29376	
748	0	29464	
749	0	29562	
750	0	29664	
751	0	29776	
752	0	29888	
753	0	29992	
754	0	30076	
755	0	30212	
756	0	30324	
757	0	30408	
758	0	30512	
759	0	30624	
760	0	30700	
761	0	30788	
762	0	30896	
763	0	31008	
764	0	31112	
765	0	31212	
766	0	31290	
767	0	31364	
768	0	31416	
769	0	31456	
770	0	31512	
771	0	31552	
772	0	31592	
773	0	31608	
774	0	31628	
775	0	31692	
776	0	31728	
777	0	31764	
778	0	31816	
779	0	31856	
780	0	31880	
781	0	31936	
782	0	31984	
783	0	32016	
784	0	32024	
785	0	32028	
786	0	32032	
787	0	32024	
788	0	32032	
789	0	32032	
790	0	32040	
791	0	32048	
792	0	32068	
793	0	32136	
794	0	32174	
795	0	32164	
796	0	32140	
797	0	32112	
798	0	32176	
799	0	32232	
800	0	32268	
801	0	32252	
802	0	32272	
803	0	32320	
804	0	32356	
805	0	32404	
806	0	32440	
807	0	32468	
808	0	32416	
809	0	32420	
810	0	32474	
811	0	32504	
812	0	32476	
813	0	32420	
814	0	32348	
815	0	32304	
816	0	32264	
817	0	32204	
818	0	32156	
819	0	32116	
820	0	32056	
821	0	31972	
822	0	31904	
823	0	31840	
824	0	31756	
825	0	31692	
826	0	31640	
827	0	31584	
828	0	31488	
829	0	31364	
830	0	31312	
831	0	31284	
832	0	31276	
833	0	31240	
834	0	31172	
835	0	31136	
836	0	31072	
837	0	30964	
838	0	30878	
839	0	30820	
840	0	30768	
841	0	30744	
842	0	30744	
843	0	30752	
844	0	30746	
845	0	30712	
846	0	30672	
847	0	30612	
848	0	30572	
849	0	30548	
850	0	30536	
851	0	30516	
852	0	30488	
853	0	30444	
854	0	30420	
855	0	30404	
856	0	30356	
857	0	30320	
858	0	30328	
859	0	30314	
860	0	30256	
861	0	30242	
862	0	30248	
863	0	30280	
864	0	30296	
865	0	30300	
866	0	30320	
867	0	30332	
868	0	30324	
869	0	30324	
870	0	30336	
871	0	30328	
872	0	30324	
873	0	30354	
874	0	30400	
875	0	30474	
876	0	30496	
877	0	30520	
878	0	30528	
879	0	30572	
880	0	30618	
881	0	30656	
882	0	30652	
883	0	30656	
884	0	30672	
885	0	30672	
886	0	30684	
887	0	30708	
888	0	30720	
889	0	30740	
890	0	30784	
891	0	30828	
892	0	30860	
893	0	30876	
894	0	30932	
895	0	31004	
896	0	31018	
897	0	31016	
898	0	31060	
899	0	31104	
900	0	31180	
901	0	31260	
902	0	31304	
903	0	31310	
904	0	31312	
905	0	31332	
906	0	31380	
907	0	31422	
908	0	31450	
909	0	31484	
910	0	31496	
911	0	31476	
912	0	31516	
913	0	31532	
914	0	31524	
915	0	31552	
916	0	31558	
917	0	31584	
918	0	31648	
919	0	31704	
920	0	31756	
921	0	31748	
922	0	31740	
923	0	31780	
924	0	31828	
925	0	31856	
926	0	31892	
927	0	31924	
928	0	31944	
929	0	31956	
930	0	31976	
931	0	32008	
932	0	32056	
933	0	32064	
934	0	32056	
935	0	32056	
936	0	32048	
937	0	32082	
938	0	32116	
939	0	32124	
940	0	32122	
941	0	32120	
942	0	32140	
943	0	32164	
944	0	32176	
945	0	32180	
946	0	32152	
947	0	32146	
948	0	32178	
949	0	32196	
950	0	32202	
951	0	32234	
952	0	32240	
953	0	32260	
954	0	32234	
955	0	32232	
956	0	32216	
957	0	32212	
958	0	32224	
959	0	32232	
960	0	32280	
961	0	32340	
962	0	32332	
963	0	32304	
964	0	32308	
965	0	32296	
966	0	32304	
967	0	32300	
968	0	32336	
969	0	32376	
970	0	32408	
971	0	32384	
972	0	32316	
973	0	32266	
974	0	32268	
975	0	32292	
976	0	32300	
977	0	32288	
978	0	32302	
979	0	32336	
980	0	32344	
981	0	32340	
982	0	32376	
983	0	32348	
984	0	32336	
985	0	32324	
986	0	32320	
987	0	32324	
988	0	32304	
989	0	32296	
990	0	32248	
991	0	32216	
992	0	32192	
993	0	32180	
994	0	32192	
995	0	32192	
996	0	32208	
997	0	32228	
998	0	32236	
999	0	32224	
1000	0	32224	
1001	0	32248	
1002	0	32256	
1003	0	32244	
1004	0	32228	
1005	0	32200	
1006	0	32196	
1007	0	32176	
1008	0	32180	
1009	0	32160	
1010	0	32148	
1011	0	32156	
1012	0	32180	
1013	0	32182	
1014	0	32160	
1015	0	32172	
1016	0	32156	
1017	0	32118	
1018	0	32128	
1019	0	32140	
1020	0	32132	
1021	0	32108	
1022	0	32084	
1023	0	32088	
1024	0	32080	
1025	0	32088	
1026	0	32092	
1027	0	32068	
1028	0	32008	
1029	0	31968	
1030	0	31968	
1031	0	31960	
1032	0	31964	
1033	0	31980	
1034	0	31962	
1035	0	31968	
1036	0	31996	
1037	0	32012	
1038	0	32012	
1039	0	31984	
1040	0	31980	
1041	0	32000	
1042	0	32024	
1043	0	32036	
1044	0	32048	
1045	0	32028	
1046	0	31984	
1047	0	31956	
1048	0	31908	
1049	0	31876	
1050	0	31944	
1051	0	31968	
1052	0	31952	
1053	0	31960	
1054	0	32002	
1055	0	32044	
1056	0	32056	
1057	0	32068	
1058	0	32096	
1059	0	32100	
1060	0	32124	
1061	0	32136	
1062	0	32160	
1063	0	32176	
1064	0	32156	
1065	0	32120	
1066	0	32100	
1067	0	32138	
1068	0	32154	
1069	0	32168	
1070	0	32200	
1071	0	32224	
1072	0	32228	
1073	0	32220	
1074	0	32224	
1075	0	32248	
1076	0	32260	
1077	0	32276	
1078	0	32288	
1079	0	32264	
1080	0	32264	
1081	0	32302	
1082	0	32300	
1083	0	32292	
1084	0	32288	
1085	0	32260	
1086	0	32288	
1087	0	32340	
1088	0	32300	
1089	0	32288	
1090	0	32308	
1091	0	32344	
1092	0	32376	
1093	0	32376	
1094	0	32408	
1095	0	32428	
1096	0	32396	
1097	0	32376	
1098	0	32388	
1099	0	32416	
1100	0	32412	
1101	0	32384	
1102	0	32372	
1103	0	32392	
1104	0	32396	
1105	0	32404	
1106	0	32408	
1107	0	32416	
1108	0	32412	
1109	0	32416	
1110	0	32412	
1111	0	32388	
1112	0	32408	
1113	0	32440	
1114	0	32472	
1115	0	32512	
1116	0	32504	
1117	0	32504	
1118	0	32516	
1119	0	32542	
1120	0	32524	
1121	0	32512	
1122	0	32500	
1123	0	32520	
1124	0	32528	
1125	0	32500	
1126	0	32484	
1127	0	32504	
1128	0	32536	
1129	0	32586	
1130	0	32608	
1131	0	32620	
1132	0	32592	
1133	0	32540	
1134	0	32536	
1135	0	32600	
1136	0	32592	
1137	0	32600	
1138	0	32608	
1139	0	32582	
1140	0	32576	
1141	0	32570	
1142	0	32576	
1143	0	32588	
1144	0	32560	
1145	0	32584	
1146	0	32552	
1147	0	32576	
1148	0	32592	
1149	0	32624	
1150	0	32660	
1151	0	32696	
1152	0	32744	
1153	0	32784	
1154	0	32800	
1155	0	32778	
1156	0	32740	
1157	0	32808	
1158	0	32888	
1159	0	32904	
1160	0	32904	
1161	0	32920	
1162	0	32952	
1163	0	32960	
1164	0	32976	
1165	0	33008	
1166	0	33022	
1167	0	32984	
1168	0	32988	
1169	0	33000	
1170	0	33016	
1171	0	33052	
1172	0	33052	
1173	0	33048	
1174	0	33012	
1175	0	32962	
1176	0	32928	
1177	0	32900	
1178	0	32904	
1179	0	32900	
1180	0	32908	
1181	0	32922	
1182	0	32924	
1183	0	32932	
1184	0	32904	
1185	0	32896	
1186	0	32916	
1187	0	32920	
1188	0	32938	
1189	0	32912	
1190	0	32924	
1191	0	32912	
1192	0	32918	
1193	0	32920	
1194	0	32944	
1195	0	32944	
1196	0	32904	
1197	0	32876	
1198	0	32856	
1199	0	32864	
1200	0	32872	
1201	0	32902	
1202	0	32936	
1203	0	32936	
1204	0	32908	
1205	0	32908	
1206	0	32888	
1207	0	32900	
1208	0	32896	
1209	0	32874	
1210	0	32868	
1211	0	32858	
1212	0	32856	
1213	0	32864	
1214	0	32892	
1215	0	32898	
1216	0	32900	
1217	0	32920	
1218	0	32936	
1219	0	32960	
1220	0	32996	
1221	0	33024	
1222	0	33036	
1223	0	33048	
1224	0	33064	
1225	0	33076	
1226	0	33036	
1227	0	33016	
1228	0	32996	
1229	0	32986	
1230	0	32976	
1231	0	32970	
1232	0	32962	
1233	0	32964	
1234	0	32968	
1235	0	33008	
1236	0	33076	
1237	0	33208	
1238	0	33384	
1239	0	33560	
1240	0	33760	
1241	0	33976	
1242	0	34144	
1243	0	34284	
1244	0	34420	
1245	0	34568	
1246	0	34700	
1247	0	34788	
1248	0	34840	
1249	0	34864	
1250	0	34872	
1251	0	34820	
1252	0	34756	
1253	0	34712	
1254	0	34708	
1255	0	34732	
1256	0	34808	
1257	0	34812	
1258	0	34796	
1259	0	34808	
1260	0	34880	
1261	0	35016	
1262	0	35260	
1263	0	35604	
1264	0	35988	
1265	0	36308	
1266	0	36576	
1267	0	36740	
1268	0	36800	
1269	0	36844	
1270	0	36960	
1271	0	37056	
1272	0	37096	
1273	0	37060	
1274	0	37052	
1275	0	37132	
1276	0	37296	
1277	0	37412	
1278	0	37456	
1279	0	37440	
1280	0	37368	
1281	0	37272	
1282	0	37088	
1283	0	36864	
1284	0	36608	
1285	0	36544	
1286	0	36504	
1287	0	36424	
1288	0	36324	
1289	0	36240	
1290	0	36132	
1291	0	36020	
1292	0	35796	
1293	0	35612	
1294	0	35480	
1295	0	35360	
1296	0	35184	
1297	0	35000	
1298	0	34776	
1299	0	34528	
1300	0	34276	
1301	0	34024	
1302	0	33804	
1303	0	33568	
1304	0	33332	
1305	0	33104	
1306	0	32928	
1307	0	32788	
1308	0	32656	
1309	0	32544	
1310	0	32428	
1311	0	32308	
1312	0	32184	
1313	0	32064	
1314	0	31976	
1315	0	31908	
1316	0	31848	
1317	0	31800	
1318	0	31752	
1319	0	31732	
1320	0	31708	
1321	0	31700	
1322	0	31692	
1323	0	31664	
1324	0	31648	
1325	0	31656	
1326	0	31644	
1327	0	31620	
1328	0	31596	
1329	0	31576	
1330	0	31564	
1331	0	31578	
1332	0	31596	
1333	0	31594	
1334	0	31620	
1335	0	31616	
1336	0	31572	
1337	0	31544	
1338	0	31568	
1339	0	31612	
1340	0	31620	
1341	0	31628	
1342	0	31644	
1343	0	31644	
1344	0	31624	
1345	0	31584	
1346	0	31520	
1347	0	31456	
1348	0	31368	
1349	0	31272	
1350	0	31148	
1351	0	31024	
1352	0	30884	
1353	0	30762	
1354	0	30656	
1355	0	30512	
1356	0	30360	
1357	0	30192	
1358	0	29984	
1359	0	29768	
1360	0	29672	
1361	0	29664	
1362	0	29680	
1363	0	29792	
1364	0	30004	
1365	0	30452	
1366	0	31064	
1367	0	31805	
1368	0	32676	
1369	0	33932	
1370	0	35552	
1371	0	37530	
1372	0	39924	
1373	0	42688	
1374	0	45800	
1375	0	49024	
1376	0	52400	
1377	0	56012	
1378	0	59664	
1379	0	63288	
1380	0	65535	
1381	0	65535	
1382	0	65535	
1383	0	65535	
1384	0	65535	
1385	0	65535	
1386	0	65535	
1387	0	65535	
1388	0	65535	
1389	0	65535	
1390	0	65535	
1391	0	65535	
1392	0	65535	
1393	0	65535	
1394	0	65535	
1395	0	65535	
1396	0	65535	
1397	0	65535	
1398	0	65535	
1399	0	65535	
1400	0	65535	
1401	0	65535	
1402	0	65535	
1403	0	65535	
1404	0	64208	
1405	0	59392	
1406	0	54564	
1407	0	49616	
1408	0	45024	
1409	0	41136	
1410	0	37888	
1411	0	35032	
1412	0	32568	
1413	0	30640	
1414	0	29266	
1415	0	28328	
1416	0	27656	
1417	0	27072	
1418	0	26564	
1419	0	26072	
1420	0	25560	
1421	0	25064	
1422	0	24632	
1423	0	24272	
1424	0	23948	
1425	0	23628	
1426	0	23340	
1427	0	23092	
1428	0	22868	
1429	0	22676	
1430	0	22496	
1431	0	22320	
1432	0	22156	
1433	0	22032	
1434	0	21950	
1435	0	21884	
1436	0	21802	
1437	0	21744	
1438	0	21676	
1439	0	21632	
1440	0	21570	
1441	0	21532	
1442	0	21484	
1443	0	21468	
1444	0	21464	
1445	0	21440	
1446	0	21426	
1447	0	21470	
1448	0	21484	
1449	0	21548	
1450	0	21600	
1451	0	21640	
1452	0	21698	
1453	0	21738	
1454	0	21784	
1455	0	21840	
1456	0	21892	
1457	0	21976	
1458	0	22050	
1459	0	22104	
1460	0	22200	
1461	0	22296	
1462	0	22360	
1463	0	22450	
1464	0	22538	
1465	0	22624	
1466	0	22700	
1467	0	22786	
1468	0	22872	
1469	0	22948	
1470	0	23028	
1471	0	23140	
1472	0	23268	
1473	0	23356	
1474	0	23452	
1475	0	23552	
1476	0	23636	
1477	0	23720	
1478	0	23850	
1479	0	23952	
1480	0	24033	
1481	0	24090	
1482	0	24196	
1483	0	24272	
1484	0	24352	
1485	0	24448	
1486	0	24552	
1487	0	24656	
1488	0	24712	
1489	0	24776	
1490	0	24860	
1491	0	24912	
1492	0	24988	
1493	0	25060	
1494	0	25144	
1495	0	25252	
1496	0	25328	
1497	0	25432	
1498	0	25524	
1499	0	25632	
1500	0	25652	
1501	0	25692	
1502	0	25740	
1503	0	25822	
1504	0	25872	
1505	0	25924	
1506	0	26016	
1507	0	26090	
1508	0	26152	
1509	0	26212	
1510	0	26274	
1511	0	26360	
1512	0	26440	
1513	0	26528	
1514	0	26628	
1515	0	26760	
1516	0	26868	
1517	0	26980	
1518	0	27072	
1519	0	27130	
1520	0	27208	
1521	0	27308	
1522	0	27424	
1523	0	27509	
1524	0	27604	
1525	0	27720	
1526	0	27840	
1527	0	27928	
1528	0	28012	
1529	0	28088	
1530	0	28164	
1531	0	28244	
1532	0	28380	
1533	0	28512	
1534	0	28568	
1535	0	28640	
1536	0	28724	
1537	0	28836	
1538	0	28928	
1539	0	29068	
1540	0	29184	
1541	0	29300	
1542	0	29376	
1543	0	29496	
1544	0	29600	
1545	0	29688	
1546	0	29760	
1547	0	29848	
1548	0	29964	
1549	0	30072	
1550	0	30212	
1551	0	30356	
1552	0	30492	
1553	0	30588	
1554	0	30680	
1555	0	30812	
1556	0	30944	
1557	0	31052	
1558	0	31162	
1559	0	31236	
1560	0	31356	
1561	0	31532	
1562	0	31680	
1563	0	31798	
1564	0	31888	
1565	0	32008	
1566	0	32096	
1567	0	32188	
1568	0	32284	
1569	0	32368	
1570	0	32456	
1571	0	32556	
1572	0	32620	
1573	0	32668	
1574	0	32704	
1575	0	32776	
1576	0	32856	
1577	0	32940	
1578	0	32980	
1579	0	33016	
1580	0	33084	
1581	0	33152	
1582	0	33164	
1583	0	33176	
1584	0	33208	
1585	0	33216	
1586	0	33240	
1587	0	33256	
1588	0	33256	
1589	0	33276	
1590	0	33320	
1591	0	33348	
1592	0	33348	
1593	0	33344	
1594	0	33400	
1595	0	33416	
1596	0	33380	
1597	0	33340	
1598	0	33312	
1599	0	33328	
1600	0	33348	
1601	0	33344	
1602	0	33364	
1603	0	33364	
1604	0	33368	
1605	0	33396	
1606	0	33454	
1607	0	33474	
1608	0	33504	
1609	0	33548	
1610	0	33560	
1611	0	33540	
1612	0	33516	
1613	0	33520	
1614	0	33504	
1615	0	33476	
1616	0	33472	
1617	0	33472	
1618	0	33480	
1619	0	33480	
1620	0	33456	
1621	0	33418	
1622	0	33376	
1623	0	33312	
1624	0	33264	
1625	0	33200	
1626	0	33100	
1627	0	33024	
1628	0	32988	
1629	0	32928	
1630	0	32880	
1631	0	32810	
1632	0	32752	
1633	0	32652	
1634	0	32552	
1635	0	32452	
1636	0	32352	
1637	0	32296	
1638	0	32232	
1639	0	32168	
1640	0	32100	
1641	0	32020	
1642	0	32002	
1643	0	31994	
1644	0	31944	
1645	0	31888	
1646	0	31860	
1647	0	31828	
1648	0	31776	
1649	0	31704	
1650	0	31632	
1651	0	31552	
1652	0	31488	
1653	0	31460	
1654	0	31436	
1655	0	31424	
1656	0	31388	
1657	0	31364	
1658	0	31382	
1659	0	31408	
1660	0	31432	
1661	0	31428	
1662	0	31404	
1663	0	31384	
1664	0	31380	
1665	0	31376	
1666	0	31368	
1667	0	31354	
1668	0	31324	
1669	0	31296	
1670	0	31272	
1671	0	31284	
1672	0	31252	
1673	0	31252	
1674	0	31252	
1675	0	31240	
1676	0	31240	
1677	0	31264	
1678	0	31292	
1679	0	31352	
1680	0	31364	
1681	0	31384	
1682	0	31384	
1683	0	31320	
1684	0	31264	
1685	0	31320	
1686	0	31380	
1687	0	31416	
1688	0	31449	
1689	0	31452	
1690	0	31484	
1691	0	31480	
1692	0	31512	
1693	0	31548	
1694	0	31568	
1695	0	31584	
1696	0	31616	
1697	0	31660	
1698	0	31732	
1699	0	31760	
1700	0	31768	
1701	0	31808	
1702	0	31864	
1703	0	31960	
1704	0	32048	
1705	0	32064	
1706	0	32064	
1707	0	32096	
1708	0	32116	
1709	0	32164	
1710	0	32232	
1711	0	32280	
1712	0	32312	
1713	0	32344	
1714	0	32376	
1715	0	32416	
1716	0	32426	
1717	0	32386	
1718	0	32380	
1719	0	32396	
1720	0	32416	
1721	0	32456	
1722	0	32488	
1723	0	32508	
1724	0	32528	
1725	0	32572	
1726	0	32616	
1727	0	32652	
1728	0	32680	
1729	0	32672	
1730	0	32664	
1731	0	32672	
1732	0	32744	
1733	0	32758	
1734	0	32772	
1735	0	32772	
1736	0	32816	
1737	0	32840	
1738	0	32872	
1739	0	32880	
1740	0	32892	
1741	0	32902	
1742	0	32928	
1743	0	32922	
1744	0	32904	
1745	0	32912	
1746	0	32912	
1747	0	32952	
1748	0	32968	
1749	0	32992	
1750	0	32998	
1751	0	33012	
1752	0	33040	
1753	0	33040	
1754	0	33064	
1755	0	33056	
1756	0	33064	
1757	0	33064	
1758	0	33074	
1759	0	33104	
1760	0	33132	
1761	0	33154	
1762	0	33156	
1763	0	33176	
1764	0	33168	
1765	0	33142	
1766	0	33108	
1767	0	33064	
1768	0	33052	
1769	0	33072	
1770	0	33068	
1771	0	33088	
1772	0	33104	
1773	0	33104	
1774	0	33108	
1775	0	33120	
1776	0	33132	
1777	0	33148	
1778	0	33184	
1779	0	33184	
1780	0	33164	
1781	0	33148	
1782	0	33112	
1783	0	33108	
1784	0	33148	
1785	0	33176	
1786	0	33168	
1787	0	33164	
1788	0	33196	
1789	0	33168	
1790	0	33148	
1791	0	33124	
1792	0	33088	
1793	0	33056	
1794	0	33072	
1795	0	33064	
1796	0	33016	
1797	0	32988	
1798	0	32960	
1799	0	32968	
1800	0	32984	
1801	0	33056	
1802	0	33066	
1803	0	33024	
1804	0	33024	
1805	0	33004	
1806	0	32976	
1807	0	32964	
1808	0	32956	
1809	0	32958	
1810	0	32960	
1811	0	32956	
1812	0	32888	
1813	0	32844	
1814	0	32888	
1815	0	32898	
1816	0	32880	
1817	0	32864	
1818	0	32844	
1819	0	32860	
1820	0	32896	
1821	0	32904	
1822	0	32876	
1823	0	32876	
1824	0	32890	
1825	0	32922	
1826	0	32928	
1827	0	32938	
1828	0	32976	
1829	0	32986	
1830	0	32956	
1831	0	32948	
1832	0	32948	
1833	0	32912	
1834	0	32928	
1835	0	32970	
1836	0	32972	
1837	0	32968	
1838	0	32924	
1839	0	32892	
1840	0	32881	
1841	0	32896	
1842	0	32896	
1843	0	32856	
1844	0	32804	
1845	0	32828	
1846	0	32860	
1847	0	32836	
1848	0	32768	
1849	0	32728	
1850	0	32700	
1851	0	32700	
1852	0	32704	
1853	0	32692	
1854	0	32676	
1855	0	32684	
1856	0	32704	
1857	0	32708	
1858	0	32696	
1859	0	32720	
1860	0	32720	
1861	0	32716	
1862	0	32700	
1863	0	32724	
1864	0	32764	
1865	0	32832	
1866	0	32864	
1867	0	32832	
1868	0	32800	
1869	0	32784	
1870	0	32788	
1871	0	32788	
1872	0	32816	
1873	0	32812	
1874	0	32820	
1875	0	32800	
1876	0	32756	
1877	0	32764	
1878	0	32824	
1879	0	32876	
1880	0	32924	
1881	0	32976	
1882	0	33008	
1883	0	33000	
1884	0	33004	
1885	0	32968	
1886	0	32944	
1887	0	32944	
1888	0	32980	
1889	0	33048	
1890	0	33110	
1891	0	33140	
1892	0	33136	
1893	0	33112	
1894	0	33132	
1895	0	33152	
1896	0	33164	
1897	0	33142	
1898	0	33132	
1899	0	33100	
1900	0	33128	
1901	0	33108	
1902	0	33068	
1903	0	33052	
1904	0	33072	
1905	0	33096	
1906	0	33108	
1907	0	33140	
1908	0	33164	
1909	0	33200	
1910	0	33216	
1911	0	33264	
1912	0	33290	
1913	0	33280	
1914	0	33264	
1915	0	33218	
1916	0	33216	
1917	0	33236	
1918	0	33272	
1919	0	33272	
1920	0	33212	
1921	0	33176	
1922	0	33120	
1923	0	33092	
1924	0	33068	
1925	0	33064	
1926	0	33144	
1927	0	33180	
1928	0	33192	
1929	0	33200	
1930	0	33252	
1931	0	33324	
1932	0	33344	
1933	0	33364	
1934	0	33388	
1935	0	33434	
1936	0	33496	
1937	0	33528	
1938	0	33560	
1939	0	33552	
1940	0	33540	
1941	0	33456	
1942	0	33384	
1943	0	33356	
1944	0	33388	
1945	0	33404	
1946	0	33416	
1947	0	33456	
1948	0	33505	
1949	0	33524	
1950	0	33524	
1951	0	33530	
1952	0	33496	
1953	0	33472	
1954	0	33488	
1955	0	33532	
1956	0	33548	
1957	0	33552	
1958	0	33562	
1959	0	33556	
1960	0	33556	
1961	0	33576	
1962	0	33576	
1963	0	33564	
1964	0	33504	
1965	0	33502	
1966	0	33488	
1967	0	33496	
1968	0	33512	
1969	0	33560	
1970	0	33652	
1971	0	33744	
1972	0	33812	
1973	0	33836	
1974	0	33856	
1975	0	33840	
1976	0	33808	
1977	0	33784	
1978	0	33708	
1979	0	33592	
1980	0	33496	
1981	0	33412	
1982	0	33376	
1983	0	33328	
1984	0	33308	
1985	0	33354	
1986	0	33408	
1987	0	33376	
1988	0	33368	
1989	0	33404	
1990	0	33424	
1991	0	33436	
1992	0	33448	
1993	0	33524	
1994	0	33600	
1995	0	33648	
1996	0	33688	
1997	0	33688	
1998	0	33632	
1999	0	33576	
2000	0	33536	
2001	0	33544	
2002	0	33584	
2003	0	33620	
2004	0	33612	
2005	0	33592	
2006	0	33564	
2007	0	33528	
2008	0	33516	
2009	0	33508	
2010	0	33500	
2011	0	33532	
2012	0	33560	
2013	0	33560	
2014	0	33568	
2015	0	33578	
2016	0	33616	
2017	0	33660	
2018	0	33728	
2019	0	33748	
2020	0	33728	
2021	0	33740	
2022	0	33740	
2023	0	33778	
2024	0	33816	
2025	0	33864	
2026	0	33880	
2027	0	33876	
2028	0	33880	
2029	0	33880	
2030	0	33854	
2031	0	33800	
2032	0	33776	
2033	0	33768	
2034	0	33752	
2035	0	33728	
2036	0	33732	
2037	0	33730	
2038	0	33732	
2039	0	33736	
2040	0	33748	
2041	0	33808	
2042	0	33804	
2043	0	33832	
2044	0	33896	
2045	0	34044	
2046	0	34144	
2047	0	34272	
2048	0	34400	
2049	0	34480	
2050	0	34544	
2051	0	34608	
2052	0	34684	
2053	0	34764	
2054	0	34868	
2055	0	34984	
2056	0	35102	
2057	0	35174	
2058	0	35224	
2059	0	35228	
2060	0	35224	
2061	0	35228	
2062	0	35196	
2063	0	35196	
2064	0	35272	
2065	0	35392	
2066	0	35520	
2067	0	35628	
2068	0	35682	
2069	0	35760	
2070	0	35896	
2071	0	36052	
2072	0	36280	
2073	0	36620	
2074	0	36976	
2075	0	37280	
2076	0	37508	
2077	0	37644	
2078	0	37696	
2079	0	37696	
2080	0	37700	
2081	0	37672	
2082	0	37652	
2083	0	37640	
2084	0	37688	
2085	0	37780	
2086	0	37872	
2087	0	37928	
2088	0	37984	
2089	0	38020	
2090	0	37976	
2091	0	37836	
2092	0	37664	
2093	0	37440	
2094	0	37192	
2095	0	37032	
2096	0	36980	
2097	0	36968	
2098	0	36928	
2099	0	36868	
2100	0	36768	
2101	0	36684	
2102	0	36588	
2103	0	36420	
2104	0	36232	
2105	0	36056	
2106	0	35908	
2107	0	35736	
2108	0	35536	
2109	0	35312	
2110	0	35060	
2111	0	34804	
2112	0	34544	
2113	0	34256	
2114	0	33992	
2115	0	33780	
2116	0	33584	
2117	0	33408	
2118	0	33286	
2119	0	33200	
2120	0	33128	
2121	0	33024	
2122	0	32896	
2123	0	32776	
2124	0	32692	
2125	0	32636	
2126	0	32572	
2127	0	32480	
2128	0	32408	
2129	0	32356	
2130	0	32344	
2131	0	32304	
2132	0	32280	
2133	0	32300	
2134	0	32338	
2135	0	32344	
2136	0	32328	
2137	0	32288	
2138	0	32250	
2139	0	32162	
2140	0	31998	
2141	0	31920	
2142	0	31908	
2143	0	31904	
2144	0	31896	
2145	0	31856	
2146	0	31848	
2147	0	31852	
2148	0	31916	
2149	0	31994	
2150	0	32060	
2151	0	32104	
2152	0	32088	
2153	0	32066	
2154	0	32002	
2155	0	31876	
2156	0	31772	
2157	0	31690	
2158	0	31548	
2159	0	31380	
2160	0	31256	
2161	0	31180	
2162	0	31120	
2163	0	31008	
2164	0	30908	
2165	0	30848	
2166	0	30776	
2167	0	30648	
2168	0	30520	
2169	0	30394	
2170	0	30332	
2171	0	30320	
2172	0	30356	
2173	0	30456	
2174	0	30664	
2175	0	31116	
2176	0	31824	
2177	0	32688	
2178	0	33808	
2179	0	35276	
2180	0	36932	
2181	0	38968	
2182	0	41504	
2183	0	44420	
2184	0	47584	
2185	0	50900	
2186	0	54512	
2187	0	58352	
2188	0	62280	
2189	0	65535	
2190	0	65535	
2191	0	65535	
2192	0	65535	
2193	0	65535	
2194	0	65535	
2195	0	65535	
2196	0	65535	
2197	0	65535	
2198	0	65535	
2199	0	65535	
2200	0	65535	
2201	0	65535	
2202	0	65535	
2203	0	65535	
2204	0	65535	
2205	0	65535	
2206	0	65535	
2207	0	65535	
2208	0	65535	
2209	0	65535	
2210	0	65535	
2211	0	65535	
2212	0	65535	
2213	0	65535	
2214	0	63320	
2215	0	58336	
2216	0	53292	
2217	0	48312	
2218	0	43900	
2219	0	40264	
2220	0	37276	
2221	0	34764	
2222	0	32664	
2223	0	30912	
2224	0	29472	
2225	0	28388	
2226	0	27652	
2227	0	27080	
2228	0	26576	
2229	0	26128	
2230	0	25696	
2231	0	25264	
2232	0	24872	
2233	0	24513	
2234	0	24188	
2235	0	23920	
2236	0	23702	
2237	0	23480	
2238	0	23272	
2239	0	23090	
2240	0	22908	
2241	0	22768	
2242	0	22608	
2243	0	22416	
2244	0	22180	
2245	0	21998	
2246	0	21896	
2247	0	21820	
2248	0	21764	
2249	0	21702	
2250	0	21664	
2251	0	21656	
2252	0	21640	
2253	0	21684	
2254	0	21712	
2255	0	21648	
2256	0	21552	
2257	0	21476	
2258	0	21428	
2259	0	21400	
2260	0	21444	
2261	0	21544	
2262	0	21644	
2263	0	21745	
2264	0	21888	
2265	0	22032	
2266	0	22180	
2267	0	22362	
2268	0	22560	
2269	0	22720	
2270	0	22876	
2271	0	23020	
2272	0	23112	
2273	0	23165	
2274	0	23164	
2275	0	23140	
2276	0	23112	
2277	0	23028	
2278	0	23008	
2279	0	23030	
2280	0	23072	
2281	0	23184	
2282	0	23313	
2283	0	23456	
2284	0	23560	
2285	0	23640	
2286	0	23720	
2287	0	23824	
2288	0	23941	
2289	0	24044	
2290	0	24144	
2291	0	24192	
2292	0	24280	
2293	0	24442	
2294	0	24600	
2295	0	24760	
2296	0	24916	
2297	0	25024	
2298	0	25094	
2299	0	25196	
2300	0	25284	
2301	0	25316	
2302	0	25384	
2303	0	25388	
2304	0	25356	
2305	0	25332	
2306	0	25334	
2307	0	25396	
2308	0	25554	
2309	0	25720	
2310	0	25880	
2311	0	26018	
2312	0	26104	
2313	0	26216	
2314	0	26340	
2315	0	26456	
2316	0	26596	
2317	0	26748	
2318	0	26852	
2319	0	26992	
2320	0	27072	
2321	0	27112	
2322	0	27188	
2323	0	27276	
2324	0	27280	
2325	0	27348	
2326	0	27464	
2327	0	27513	
2328	0	27698	
2329	0	27892	
2330	0	28024	
2331	0	28094	
2332	0	28136	
2333	0	28204	
2334	0	28316	
2335	0	28420	
2336	0	28508	
2337	0	28616	
2338	0	28740	
2339	0	28820	
2340	0	28900	
2341	0	28978	
2342	0	29016	
2343	0	28992	
2344	0	28996	
2345	0	29032	
2346	0	29080	
2347	0	29172	
2348	0	29264	
2349	0	29380	
2350	0	29536	
2351	0	29712	
2352	0	29876	
2353	0	30016	
2354	0	30140	
2355	0	30280	
2356	0	30412	
2357	0	30572	
2358	0	30752	
2359	0	30888	
2360	0	31032	
2361	0	31156	
2362	0	31248	
2363	0	31384	
2364	0	31512	
2365	0	31668	
2366	0	31748	
2367	0	31764	
2368	0	31832	
2369	0	31904	
2370	0	31992	
2371	0	32112	
2372	0	32216	
2373	0	32344	
2374	0	32484	
2375	0	32616	
2376	0	32712	
2377	0	32756	
2378	0	32836	
2379	0	32980	
2380	0	33120	
2381	0	33244	
2382	0	33336	
2383	0	33400	
2384	0	33448	
2385	0	33496	
2386	0	33552	
2387	0	33624	
2388	0	33672	
2389	0	33740	
2390	0	33836	
2391	0	33920	
2392	0	34004	
2393	0	34016	
2394	0	34008	
2395	0	34024	
2396	0	34072	
2397	0	34176	
2398	0	34228	
2399	0	34280	
2400	0	34240	
2401	0	34112	
2402	0	33980	
2403	0	33852	
2404	0	33700	
2405	0	33688	
2406	0	33736	
2407	0	33788	
2408	0	33864	
2409	0	33880	
2410	0	33916	
2411	0	33948	
2412	0	33984	
2413	0	33984	
2414	0	33996	
2415	0	33976	
2416	0	33928	
2417	0	33852	
2418	0	33760	
2419	0	33684	
2420	0	33648	
2421	0	33640	
2422	0	33692	
2423	0	33784	
2424	0	33858	
2425	0	33888	
2426	0	33962	
2427	0	34008	
2428	0	34104	
2429	0	34202	
2430	0	34288	
2431	0	34264	
2432	0	34156	
2433	0	33984	
2434	0	33856	
2435	0	33728	
2436	0	33536	
2437	0	33348	
2438	0	33208	
2439	0	33100	
2440	0	32992	
2441	0	32964	
2442	0	32960	
2443	0	32928	
2444	0	32852	
2445	0	32716	
2446	0	32556	
2447	0	32416	
2448	0	32320	
2449	0	32260	
2450	0	32196	
2451	0	32120	
2452	0	32060	
2453	0	31932	
2454	0	31792	
2455	0	31672	
2456	0	31612	
2457	0	31536	
2458	0	31488	
2459	0	31432	
2460	0	31416	
2461	0	31440	
2462	0	31464	
2463	0	31480	
2464	0	31472	
2465	0	31496	
2466	0	31528	
2467	0	31508	
2468	0	31452	
2469	0	31356	
2470	0	31296	
2471	0	31256	
2472	0	31216	
2473	0	31152	
2474	0	31120	
2475	0	31140	
2476	0	31184	
2477	0	31218	
2478	0	31220	
2479	0	31140	
2480	0	31068	
2481	0	31056	
2482	0	31064	
2483	0	31052	
2484	0	31056	
2485	0	31040	
2486	0	31040	
2487	0	30978	
2488	0	30976	
2489	0	30984	
2490	0	30964	
2491	0	30960	
2492	0	30936	
2493	0	30960	
2494	0	31068	
2495	0	31160	
2496	0	31216	
2497	0	31208	
2498	0	31280	
2499	0	31420	
2500	0	31496	
2501	0	31576	
2502	0	31620	
2503	0	31592	
2504	0	31508	
2505	0	31424	
2506	0	31336	
2507	0	31244	
2508	0	31236	
2509	0	31260	
2510	0	31304	
2511	0	31396	
2512	0	31440	
2513	0	31424	
2514	0	31408	
2515	0	31424	
2516	0	31520	
2517	0	31676	
2518	0	31844	
2519	0	32044	
2520	0	32220	
2521	0	32256	
2522	0	32236	
2523	0	32296	
2524	0	32312	
2525	0	32288	
2526	0	32180	
2527	0	32080	
2528	0	32104	
2529	0	32192	
2530	0	32288	
2531	0	32372	
2532	0	32364	
2533	0	32404	
2534	0	32416	
2535	0	32412	
2536	0	32456	
2537	0	32516	
2538	0	32572	
2539	0	32608	
2540	0	32644	
2541	0	32672	
2542	0	32616	
2543	0	32576	
2544	0	32624	
2545	0	32680	
2546	0	32744	
2547	0	32776	
2548	0	32774	
2549	0	32756	
2550	0	32708	
2551	0	32616	
2552	0	32528	
2553	0	32432	
2554	0	32292	
2555	0	32164	
2556	0	32202	
2557	0	32324	
2558	0	32396	
2559	0	32464	
2560	0	32504	
2561	0	32532	
2562	0	32624	
2563	0	32708	
2564	0	32716	
2565	0	32700	
2566	0	32708	
2567	0	32768	
2568	0	32816	
2569	0	32888	
2570	0	32892	
2571	0	32884	
2572	0	32924	
2573	0	32952	
2574	0	32996	
2575	0	33080	
2576	0	33122	
2577	0	33104	
2578	0	33012	
2579	0	32880	
2580	0	32792	
2581	0	32856	
2582	0	32976	
2583	0	33056	
2584	0	33002	
2585	0	32936	
2586	0	32984	
2587	0	33152	
2588	0	33340	
2589	0	33508	
2590	0	33626	
2591	0	33712	
2592	0	33796	
2593	0	33816	
2594	0	33760	
2595	0	33668	
2596	0	33516	
2597	0	33332	
2598	0	33132	
2599	0	33056	
2600	0	33080	
2601	0	33124	
2602	0	33112	
2603	0	33136	
2604	0	33218	
2605	0	33308	
2606	0	33340	
2607	0	33312	
2608	0	33268	
2609	0	33208	
2610	0	33156	
2611	0	33132	
2612	0	33080	
2613	0	33044	
2614	0	33042	
2615	0	33036	
2616	0	33036	
2617	0	33056	
2618	0	33088	
2619	0	33092	
2620	0	33060	
2621	0	32992	
2622	0	32888	
2623	0	32848	
2624	0	32826	
2625	0	32784	
2626	0	32680	
2627	0	32504	
2628	0	32372	
2629	0	32356	
2630	0	32480	
2631	0	32704	
2632	0	32928	
2633	0	33060	
2634	0	33112	
2635	0	33128	
2636	0	33164	
2637	0	33168	
2638	0	33096	
2639	0	33040	
2640	0	32952	
2641	0	32832	
2642	0	32690	
2643	0	32596	
2644	0	32568	
2645	0	32600	
2646	0	32668	
2647	0	32764	
2648	0	32824	
2649	0	32872	
2650	0	32904	
2651	0	32972	
2652	0	32992	
2653	0	33048	
2654	0	33132	
2655	0	33224	
2656	0	33292	
2657	0	33324	
2658	0	33264	
2659	0	33200	
2660	0	33128	
2661	0	33024	
2662	0	32912	
2663	0	32836	
2664	0	32784	
2665	0	32680	
2666	0	32612	
2667	0	32604	
2668	0	32688	
2669	0	32792	
2670	0	32900	
2671	0	32984	
2672	0	33024	
2673	0	33024	
2674	0	33032	
2675	0	33108	
2676	0	33156	
2677	0	33120	
2678	0	33044	
2679	0	32962	
2680	0	32828	
2681	0	32756	
2682	0	32808	
2683	0	32844	
2684	0	32848	
2685	0	32836	
2686	0	32852	
2687	0	32876	
2688	0	32864	
2689	0	32732	
2690	0	32512	
2691	0	32376	
2692	0	32398	
2693	0	32560	
2694	0	32716	
2695	0	32860	
2696	0	32972	
2697	0	33076	
2698	0	33140	
2699	0	33192	
2700	0	33340	
2701	0	33524	
2702	0	33488	
2703	0	33264	
2704	0	33044	
2705	0	32924	
2706	0	32900	
2707	0	32932	
2708	0	32964	
2709	0	32976	
2710	0	33016	
2711	0	33040	
2712	0	33044	
2713	0	32946	
2714	0	32836	
2715	0	32824	
2716	0	32904	
2717	0	32976	
2718	0	33036	
2719	0	33104	
2720	0	33208	
2721	0	33304	
2722	0	33348	
2723	0	33352	
2724	0	33296	
2725	0	33272	
2726	0	33324	
2727	0	33360	
2728	0	33376	
2729	0	33304	
2730	0	33216	
2731	0	33168	
2732	0	33160	
2733	0	33116	
2734	0	33092	
2735	0	33116	
2736	0	33136	
2737	0	33192	
2738	0	33120	
2739	0	33024	
2740	0	32968	
2741	0	32888	
2742	0	32772	
2743	0	32728	
2744	0	32714	
2745	0	32776	
2746	0	32872	
2747	0	33004	
2748	0	33160	
2749	0	33280	
2750	0	33352	
2751	0	33320	
2752	0	33300	
2753	0	33284	
2754	0	33240	
2755	0	33220	
2756	0	33178	
2757	0	33160	
2758	0	33240	
2759	0	33348	
2760	0	33466	
2761	0	33540	
2762	0	33476	
2763	0	33248	
2764	0	32932	
2765	0	32672	
2766	0	32660	
2767	0	32800	
2768	0	32930	
2769	0	33082	
2770	0	33292	
2771	0	33536	
2772	0	33776	
2773	0	33988	
2774	0	34172	
2775	0	34220	
2776	0	34116	
2777	0	33912	
2778	0	33644	
2779	0	33448	
2780	0	33400	
2781	0	33476	
2782	0	33600	
2783	0	33688	
2784	0	33708	
2785	0	33848	
2786	0	34060	
2787	0	34252	
2788	0	34412	
2789	0	34524	
2790	0	34680	
2791	0	34820	
2792	0	34968	
2793	0	34976	
2794	0	34900	
2795	0	34796	
2796	0	34720	
2797	0	34624	
2798	0	34572	
2799	0	34648	
2800	0	34736	
2801	0	34788	
2802	0	34824	
2803	0	34872	
2804	0	34956	
2805	0	35024	
2806	0	35148	
2807	0	35342	
2808	0	35676	
2809	0	36092	
2810	0	36544	
2811	0	36952	
2812	0	37244	
2813	0	37472	
2814	0	37632	
2815	0	37664	
2816	0	37668	
2817	0	37700	
2818	0	37724	
2819	0	37728	
2820	0	37688	
2821	0	37600	
2822	0	37520	
2823	0	37468	
2824	0	37404	
2825	0	37240	
2826	0	37050	
2827	0	36880	
2828	0	36768	
2829	0	36720	
2830	0	36748	
2831	0	36784	
2832	0	36780	
2833	0	36796	
2834	0	36804	
2835	0	36756	
2836	0	36656	
2837	0	36520	
2838	0	36320	
2839	0	36144	
2840	0	35952	
2841	0	35784	
2842	0	35664	
2843	0	35508	
2844	0	35264	
2845	0	34916	
2846	0	34548	
2847	0	34196	
2848	0	33888	
2849	0	33676	
2850	0	33530	
2851	0	33416	
2852	0	33280	
2853	0	33072	
2854	0	32892	
2855	0	32784	
2856	0	32596	
2857	0	32380	
2858	0	32192	
2859	0	32032	
2860	0	31920	
2861	0	31840	
2862	0	31832	
2863	0	31960	
2864	0	32130	
2865	0	32272	
2866	0	32356	
2867	0	32322	
2868	0	32216	
2869	0	32076	
2870	0	31976	
2871	0	31904	
2872	0	31876	
2873	0	31832	
2874	0	31760	
2875	0	31692	
2876	0	31728	
2877	0	31888	
2878	0	32028	
2879	0	32084	
2880	0	32036	
2881	0	31908	
2882	0	31744	
2883	0	31676	
2884	0	31756	
2885	0	31844	
2886	0	31932	
2887	0	32004	
2888	0	32128	
2889	0	32192	
2890	0	32124	
2891	0	32024	
2892	0	31932	
2893	0	31816	
2894	0	31726	
2895	0	31660	
2896	0	31584	
2897	0	31488	
2898	0	31358	
2899	0	31136	
2900	0	30912	
2901	0	30708	
2902	0	30504	
2903	0	30292	
2904	0	30056	
2905	0	29836	
2906	0	29610	
2907	0	29520	
2908	0	29656	
2909	0	30004	
2910	0	30508	
2911	0	31308	
2912	0	32332	
2913	0	33520	
2914	0	34988	
2915	0	36540	
2916	0	38232	
2917	0	40272	
2918	0	42808	
2919	0	45756	
2920	0	49036	
2921	0	52744	
2922	0	56832	
2923	0	61184	
2924	0	65328	
2925	0	65535	
2926	0	65535	
2927	0	65535	
2928	0	65535	
2929	0	65535	
2930	0	65535	
2931	0	65535	
2932	0	65535	
2933	0	65535	
2934	0	65535	
2935	0	65535	
2936	0	65535	
2937	0	65535	
2938	0	65535	
2939	0	65535	
2940	0	65535	
2941	0	65535	
2942	0	65535	
2943	0	65535	
2944	0	65535	
2945	0	65535	
2946	0	65535	
2947	0	65535	
2948	0	65535	
2949	0	64496	
2950	0	59544	
2951	0	54448	
2952	0	49140	
2953	0	44100	
2954	0	40012	
2955	0	36904	
2956	0	34588	
2957	0	32876	
2958	0	31596	
2959	0	30568	
2960	0	29628	
2961	0	28700	
2962	0	27880	
2963	0	27172	
2964	0	26544	
2965	0	25972	
2966	0	25468	
2967	0	25000	
2968	0	24572	
2969	0	24140	
2970	0	23732	
2971	0	23404	
2972	0	23184	
2973	0	23072	
2974	0	22964	
2975	0	22856	
2976	0	22716	
2977	0	22554	
2978	0	22380	
2979	0	22188	
2980	0	22014	
2981	0	21854	
2982	0	21748	
2983	0	21748	
2984	0	21736	
2985	0	21712	
2986	0	21712	
2987	0	21696	
2988	0	21660	
2989	0	21616	
2990	0	21592	
2991	0	21528	
2992	0	21456	
2993	0	21444	
2994	0	21424	
2995	0	21416	
2996	0	21442	
2997	0	21456	
2998	0	21452	
2999	0	21496	
3000	0	21672	
3001	0	21908	
3002	0	22064	
3003	0	22168	
3004	0	22233	
3005	0	22392	
3006	0	22544	
3007	0	22704	
3008	0	22844	
3009	0	22900	
3010	0	22858	
3011	0	22900	
3012	0	23018	
3013	0	23170	
3014	0	23262	
3015	0	23376	
3016	0	23530	
3017	0	23662	
3018	0	23712	
3019	0	23720	
3020	0	23682	
3021	0	23592	
3022	0	23532	
3023	0	23556	
3024	0	23674	
3025	0	23852	
3026	0	24048	
3027	0	24276	
3028	0	24456	
3029	0	24580	
3030	0	24688	
3031	0	24768	
3032	0	24876	
3033	0	24976	
3034	0	25116	
3035	0	25252	
3036	0	25420	
3037	0	25562	
3038	0	25580	
3039	0	25568	
3040	0	25608	
3041	0	25656	
3042	0	25696	
3043	0	25728	
3044	0	25808	
3045	0	25920	
3046	0	26108	
3047	0	26316	
3048	0	26548	
3049	0	26724	
3050	0	26884	
3051	0	27006	
3052	0	27028	
3053	0	27012	
3054	0	27024	
3055	0	27072	
3056	0	27168	
3057	0	27244	
3058	0	27224	
3059	0	27228	
3060	0	27224	
3061	0	27248	
3062	0	27276	
3063	0	27188	
3064	0	27096	
3065	0	27044	
3066	0	27084	
3067	0	27164	
3068	0	27296	
3069	0	27576	
3070	0	27928	
3071	0	28336	
3072	0	28752	
3073	0	29152	
3074	0	29472	
3075	0	29690	
3076	0	29760	
3077	0	29680	
3078	0	29592	
3079	0	29504	
3080	0	29408	
3081	0	29416	
3082	0	29512	
3083	0	29664	
3084	0	29848	
3085	0	30040	
3086	0	30232	
3087	0	30388	
3088	0	30524	
3089	0	30612	
3090	0	30724	
3091	0	30828	
3092	0	30892	
3093	0	30904	
3094	0	30992	
3095	0	31180	
3096	0	31336	
3097	0	31536	
3098	0	31744	
3099	0	31920	
3100	0	32004	
3101	0	32008	
3102	0	32044	
3103	0	32130	
3104	0	32232	
3105	0	32268	
3106	0	32240	
3107	0	32224	
3108	0	32328	
3109	0	32524	
3110	0	32648	
3111	0	32844	
3112	0	33084	
3113	0	33376	
3114	0	33620	
3115	0	33816	
3116	0	33988	
3117	0	34040	
3118	0	34004	
3119	0	33900	
3120	0	33804	
3121	0	33684	
3122	0	33664	
3123	0	33688	
3124	0	33716	
3125	0	33788	
3126	0	33888	
3127	0	33964	
3128	0	34012	
3129	0	34040	
3130	0	34072	
3131	0	34120	
3132	0	34164	
3133	0	34192	
3134	0	34286	
3135	0	34360	
3136	0	34380	
3137	0	34388	
3138	0	34432	
3139	0	34480	
3140	0	34472	
3141	0	34424	
3142	0	34308	
3143	0	34136	
3144	0	33996	
3145	0	33968	
3146	0	33960	
3147	0	33960	
3148	0	33952	
3149	0	34008	
3150	0	34114	
3151	0	34212	
3152	0	34276	
3153	0	34268	
3154	0	34236	
3155	0	34216	
3156	0	34224	
3157	0	34148	
3158	0	34052	
3159	0	34020	
3160	0	33956	
3161	0	33856	
3162	0	33776	
3163	0	33700	
3164	0	33600	
3165	0	33468	
3166	0	33336	
3167	0	33192	
3168	0	33096	
3169	0	33018	
3170	0	32852	
3171	0	32652	
3172	0	32528	
3173	0	32392	
3174	0	32256	
3175	0	32132	
3176	0	32048	
3177	0	31970	
3178	0	31968	
3179	0	32016	
3180	0	32048	
3181	0	32048	
3182	0	32032	
3183	0	31976	
3184	0	31804	
3185	0	31528	
3186	0	31252	
3187	0	31012	
3188	0	30844	
3189	0	30760	
3190	0	30688	
3191	0	30732	
3192	0	30796	
3193	0	30936	
3194	0	31072	
3195	0	31136	
3196	0	31128	
3197	0	31032	
3198	0	30952	
3199	0	30944	
3200	0	31016	
3201	0	31020	
3202	0	31028	
3203	0	31048	
3204	0	31046	
3205	0	31060	
3206	0	31098	
3207	0	31124	
3208	0	31108	
3209	0	31020	
3210	0	30900	
3211	0	30768	
3212	0	30652	
3213	0	30580	
3214	0	30578	
3215	0	30660	
3216	0	30720	
3217	0	30724	
3218	0	30684	
3219	0	30628	
3220	0	30608	
3221	0	30620	
3222	0	30652	
3223	0	30724	
3224	0	30764	
3225	0	30784	
3226	0	30788	
3227	0	30808	
3228	0	30784	
3229	0	30740	
3230	0	30728	
3231	0	30736	
3232	0	30744	
3233	0	30720	
3234	0	30732	
3235	0	30642	
3236	0	30552	
3237	0	30456	
3238	0	30368	
3239	0	30372	
3240	0	30428	
3241	0	30472	
3242	0	30448	
3243	0	30344	
3244	0	30236	
3245	0	30216	
3246	0	30316	
3247	0	30536	
3248	0	30832	
3249	0	31116	
3250	0	31328	
3251	0	31484	
3252	0	31520	
3253	0	31452	
3254	0	31360	
3255	0	31320	
3256	0	31316	
3257	0	31368	
3258	0	31406	
3259	0	31444	
3260	0	31572	
3261	0	31740	
3262	0	31962	
3263	0	32122	
3264	0	32224	
3265	0	32240	
3266	0	32160	
3267	0	32032	
3268	0	31880	
3269	0	31778	
3270	0	31688	
3271	0	31644	
3272	0	31682	
3273	0	31764	
3274	0	31874	
3275	0	32016	
3276	0	32124	
3277	0	32232	
3278	0	32328	
3279	0	32396	
3280	0	32472	
3281	0	32536	
3282	0	32644	
3283	0	32788	
3284	0	32880	
3285	0	32868	
3286	0	32832	
3287	0	32748	
3288	0	32620	
3289	0	32464	
3290	0	32316	
3291	0	32216	
3292	0	32172	
3293	0	32208	
3294	0	32320	
3295	0	32476	
3296	0	32680	
3297	0	32816	
3298	0	32824	
3299	0	32724	
3300	0	32596	
3301	0	32520	
3302	0	32632	
3303	0	32756	
3304	0	32786	
3305	0	32784	
3306	0	32856	
3307	0	32896	
3308	0	32796	
3309	0	32688	
3310	0	32632	
3311	0	32636	
3312	0	32760	
3313	0	32892	
3314	0	33016	
3315	0	33100	
3316	0	33204	
3317	0	33334	
3318	0	33404	
3319	0	33364	
3320	0	33240	
3321	0	33128	
3322	0	32964	
3323	0	32846	
3324	0	32776	
3325	0	32760	
3326	0	32776	
3327	0	32820	
3328	0	32932	
3329	0	33072	
3330	0	33200	
3331	0	33248	
3332	0	33166	
3333	0	33024	
3334	0	33000	
3335	0	33084	
3336	0	33144	
3337	0	33088	
3338	0	32992	
3339	0	33032	
3340	0	33128	
3341	0	33260	
3342	0	33320	
3343	0	33316	
3344	0	33312	
3345	0	33336	
3346	0	33352	
3347	0	33356	
3348	0	33248	
3349	0	33096	
3350	0	32908	
3351	0	32648	
3352	0	32492	
3353	0	32552	
3354	0	32648	
3355	0	32772	
3356	0	32864	
3357	0	32900	
3358	0	32962	
3359	0	32984	
3360	0	32916	
3361	0	32836	
3362	0	32768	
3363	0	32780	
3364	0	32852	
3365	0	32864	
3366	0	32880	
3367	0	32992	
3368	0	33080	
3369	0	33080	
3370	0	33024	
3371	0	32986	
3372	0	32936	
3373	0	32816	
3374	0	32628	
3375	0	32556	
3376	0	32524	
3377	0	32484	
3378	0	32508	
3379	0	32588	
3380	0	32640	
3381	0	32648	
3382	0	32680	
3383	0	32732	
3384	0	32786	
3385	0	32840	
3386	0	32856	
3387	0	32836	
3388	0	32800	
3389	0	32768	
3390	0	32730	
3391	0	32688	
3392	0	32620	
3393	0	32596	
3394	0	32716	
3395	0	32908	
3396	0	33048	
3397	0	33040	
3398	0	32920	
3399	0	32824	
3400	0	32774	
3401	0	32704	
3402	0	32688	
3403	0	32724	
3404	0	32748	
3405	0	32752	
3406	0	32760	
3407	0	32794	
3408	0	32852	
3409	0	32868	
3410	0	32756	
3411	0	32676	
3412	0	32704	
3413	0	32840	
3414	0	33036	
3415	0	33132	
3416	0	33144	
3417	0	33048	
3418	0	32916	
3419	0	32704	
3420	0	32588	
3421	0	32542	
3422	0	32560	
3423	0	32632	
3424	0	32628	
3425	0	32528	
3426	0	32510	
3427	0	32584	
3428	0	32680	
3429	0	32774	
3430	0	32868	
3431	0	32996	
3432	0	33084	
3433	0	33068	
3434	0	33096	
3435	0	33188	
3436	0	33292	
3437	0	33304	
3438	0	33288	
3439	0	33312	
3440	0	33388	
3441	0	33380	
3442	0	33282	
3443	0	33184	
3444	0	33112	
3445	0	32988	
3446	0	32820	
3447	0	32728	
3448	0	32688	
3449	0	32688	
3450	0	32800	
3451	0	33008	
3452	0	33208	
3453	0	33428	
3454	0	33556	
3455	0	33568	
3456	0	33496	
3457	0	33460	
3458	0	33480	
3459	0	33450	
3460	0	33432	
3461	0	33504	
3462	0	33548	
3463	0	33582	
3464	0	33676	
3465	0	33800	
3466	0	33968	
3467	0	34100	
3468	0	34244	
3469	0	34408	
3470	0	34500	
3471	0	34508	
3472	0	34392	
3473	0	34208	
3474	0	34140	
3475	0	34224	
3476	0	34408	
3477	0	34612	
3478	0	34852	
3479	0	35164	
3480	0	35428	
3481	0	35648	
3482	0	35816	
3483	0	35936	
3484	0	36108	
3485	0	36272	
3486	0	36488	
3487	0	36728	
3488	0	36944	
3489	0	37088	
3490	0	37112	
3491	0	37112	
3492	0	37104	
3493	0	37152	
3494	0	37280	
3495	0	37408	
3496	0	37468	
3497	0	37448	
3498	0	37436	
3499	0	37488	
3500	0	37568	
3501	0	37632	
3502	0	37656	
3503	0	37640	
3504	0	37536	
3505	0	37268	
3506	0	37008	
3507	0	36784	
3508	0	36560	
3509	0	36394	
3510	0	36232	
3511	0	36154	
3512	0	36144	
3513	0	36156	
3514	0	36174	
3515	0	36064	
3516	0	35956	
3517	0	35844	
3518	0	35736	
3519	0	35576	
3520	0	35384	
3521	0	35168	
3522	0	34896	
3523	0	34648	
3524	0	34400	
3525	0	34180	
3526	0	33948	
3527	0	33722	
3528	0	33512	
3529	0	33268	
3530	0	33016	
3531	0	32756	
3532	0	32484	
3533	0	32236	
3534	0	32024	
3535	0	31824	
3536	0	31688	
3537	0	31624	
3538	0	31658	
3539	0	31774	
3540	0	31908	
3541	0	31940	
3542	0	31906	
3543	0	31828	
3544	0	31716	
3545	0	31684	
3546	0	31776	
3547	0	31940	
3548	0	32002	
3549	0	31916	
3550	0	31848	
3551	0	31792	
3552	0	31778	
3553	0	31764	
3554	0	31812	
3555	0	31884	
3556	0	31912	
3557	0	31928	
3558	0	31960	
3559	0	32000	
3560	0	31944	
3561	0	31768	
3562	0	31604	
3563	0	31548	
3564	0	31556	
3565	0	31668	
3566	0	31816	
3567	0	31980	
3568	0	32120	
3569	0	32192	
3570	0	32196	
3571	0	32136	
3572	0	32016	
3573	0	31868	
3574	0	31680	
3575	0	31500	
3576	0	31342	
3577	0	31136	
3578	0	30968	
3579	0	30866	
3580	0	30748	
3581	0	30564	
3582	0	30316	
3583	0	30080	
3584	0	29916	
3585	0	30020	
3586	0	30304	
3587	0	30776	
3588	0	31420	
3589	0	32192	
3590	0	33096	
3591	0	34272	
3592	0	35736	
3593	0	37324	
3594	0	39200	
3595	0	41600	
3596	0	44400	
3597	0	47440	
3598	0	50732	
3599	0	54452	
3600	0	58516	
3601	0	62784	
3602	0	65535	
3603	0	65535	
3604	0	65535	
3605	0	65535	
3606	0	65535	
3607	0	65535	
3608	0	65535	
3609	0	65535	
3610	0	65535	
3611	0	65535	
3612	0	65535	
3613	0	65535	
3614	0	65535	
3615	0	65535	
3616	0	65535	
3617	0	65535	
3618	0	65535	
3619	0	65535	
3620	0	65535	
3621	0	65535	
3622	0	65535	
3623	0	65535	
3624	0	65535	
3625	0	65535	
3626	0	65535	
3627	0	63340	
3628	0	58076	
3629	0	52640	
3630	0	47192	
3631	0	42416	
3632	0	38712	
3633	0	35968	
3634	0	33940	
3635	0	32372	
3636	0	31040	
3637	0	29848	
3638	0	28784	
3639	0	27944	
3640	0	27328	
3641	0	26800	
3642	0	26296	
3643	0	25845	
3644	0	25384	
3645	0	24912	
3646	0	24488	
3647	0	24144	
3648	0	23824	
3649	0	23504	
3650	0	23178	
3651	0	22892	
3652	0	22664	
3653	0	22532	
3654	0	22490	
3655	0	22480	
3656	0	22512	
3657	0	22546	
3658	0	22552	
3659	0	22500	
3660	0	22404	
3661	0	22320	
3662	0	22232	
3663	0	22176	
3664	0	22132	
3665	0	22092	
3666	0	22016	
3667	0	21912	
3668	0	21828	
3669	0	21744	
3670	0	21728	
3671	0	21724	
3672	0	21762	
3673	0	21852	
3674	0	21996	
3675	0	22096	
3676	0	22142	
3677	0	22196	
3678	0	22264	
3679	0	22372	
3680	0	22544	
3681	0	22716	
3682	0	22836	
3683	0	22912	
3684	0	23008	
3685	0	23104	
3686	0	23192	
3687	0	23284	
3688	0	23360	
3689	0	23388	
3690	0	23428	
3691	0	23460	
3692	0	23504	
3693	0	23566	
3694	0	23608	
3695	0	23680	
3696	0	23784	
3697	0	23872	
3698	0	23944	
3699	0	23986	
3700	0	24060	
3701	0	24176	
3702	0	24388	
3703	0	24612	
3704	0	24836	
3705	0	25068	
3706	0	25236	
3707	0	25348	
3708	0	25428	
3709	0	25488	
3710	0	25536	
3711	0	25610	
3712	0	25640	
3713	0	25596	
3714	0	25600	
3715	0	25672	
3716	0	25764	
3717	0	25792	
3718	0	25840	
3719	0	25872	
3720	0	25924	
3721	0	26016	
3722	0	26168	
3723	0	26364	
3724	0	26560	
3725	0	26760	
3726	0	26888	
3727	0	26958	
3728	0	27028	
3729	0	27054	
3730	0	27044	
3731	0	27072	
3732	0	27240	
3733	0	27412	
3734	0	27612	
3735	0	27744	
3736	0	27840	
3737	0	27900	
3738	0	27928	
3739	0	27984	
3740	0	28012	
3741	0	28056	
3742	0	28108	
3743	0	28202	
3744	0	28346	
3745	0	28452	
3746	0	28528	
3747	0	28564	
3748	0	28580	
3749	0	28668	
3750	0	28768	
3751	0	28896	
3752	0	29036	
3753	0	29148	
3754	0	29264	
3755	0	29396	
3756	0	29576	
3757	0	29706	
3758	0	29792	
3759	0	29888	
3760	0	30028	
3761	0	30180	
3762	0	30300	
3763	0	30392	
3764	0	30440	
3765	0	30524	
3766	0	30644	
3767	0	30768	
3768	0	30858	
3769	0	30948	
3770	0	31080	
3771	0	31200	
3772	0	31304	
3773	0	31424	
3774	0	31564	
3775	0	31700	
3776	0	31832	
3777	0	31964	
3778	0	32072	
3779	0	32168	
3780	0	32264	
3781	0	32384	
3782	0	32580	
3783	0	32742	
3784	0	32868	
3785	0	32992	
3786	0	33124	
3787	0	33244	
3788	0	33360	
3789	0	33476	
3790	0	33596	
3791	0	33732	
3792	0	33832	
3793	0	33892	
3794	0	33948	
3795	0	33996	
3796	0	34068	
3797	0	34096	
3798	0	34100	
3799	0	34128	
3800	0	34164	
3801	0	34192	
3802	0	34232	
3803	0	34322	
3804	0	34412	
3805	0	34504	
3806	0	34556	
3807	0	34588	
3808	0	34608	
3809	0	34556	
3810	0	34476	
3811	0	34388	
3812	0	34344	
3813	0	34352	
3814	0	34370	
3815	0	34392	
3816	0	34396	
3817	0	34400	
3818	0	34452	
3819	0	34504	
3820	0	34512	
3821	0	34540	
3822	0	34600	
3823	0	34636	
3824	0	34674	
3825	0	34748	
3826	0	34824	
3827	0	34882	
3828	0	34856	
3829	0	34848	
3830	0	34808	
3831	0	34728	
3832	0	34672	
3833	0	34632	
3834	0	34536	
3835	0	34432	
3836	0	34352	
3837	0	34272	
3838	0	34148	
3839	0	34052	
3840	0	33948	
3841	0	33852	
3842	0	33794	
3843	0	33724	
3844	0	33672	
3845	0	33646	
3846	0	33640	
3847	0	33582	
3848	0	33436	
3849	0	33264	
3850	0	33092	
3851	0	32952	
3852	0	32848	
3853	0	32760	
3854	0	32708	
3855	0	32638	
3856	0	32536	
3857	0	32424	
3858	0	32308	
3859	0	32136	
3860	0	32016	
3861	0	31912	
3862	0	31800	
3863	0	31696	
3864	0	31640	
3865	0	31636	
3866	0	31552	
3867	0	31380	
3868	0	31264	
3869	0	31184	
3870	0	31120	
3871	0	31064	
3872	0	31008	
3873	0	30980	
3874	0	30960	
3875	0	30888	
3876	0	30840	
3877	0	30814	
3878	0	30748	
3879	0	30768	
3880	0	30848	
3881	0	30884	
3882	0	30856	
3883	0	30800	
3884	0	30784	
3885	0	30816	
3886	0	30848	
3887	0	30880	
3888	0	30868	
3889	0	30836	
3890	0	30816	
3891	0	30804	
3892	0	30768	
3893	0	30764	
3894	0	30748	
3895	0	30746	
3896	0	30756	
3897	0	30776	
3898	0	30756	
3899	0	30772	
3900	0	30812	
3901	0	30828	
3902	0	30860	
3903	0	30912	
3904	0	30984	
3905	0	31012	
3906	0	31060	
3907	0	31080	
3908	0	31072	
3909	0	31080	
3910	0	31052	
3911	0	31060	
3912	0	31068	
3913	0	31096	
3914	0	31096	
3915	0	31104	
3916	0	31148	
3917	0	31186	
3918	0	31230	
3919	0	31258	
3920	0	31272	
3921	0	31252	
3922	0	31200	
3923	0	31176	
3924	0	31184	
3925	0	31192	
3926	0	31188	
3927	0	31240	
3928	0	31328	
3929	0	31380	
3930	0	31416	
3931	0	31460	
3932	0	31544	
3933	0	31604	
3934	0	31656	
3935	0	31690	
3936	0	31724	
3937	0	31728	
3938	0	31748	
3939	0	31744	
3940	0	31724	
3941	0	31704	
3942	0	31710	
3943	0	31756	
3944	0	31816	
3945	0	31904	
3946	0	31996	
3947	0	32088	
3948	0	32112	
3949	0	32148	
3950	0	32192	
3951	0	32266	
3952	0	32320	
3953	0	32384	
3954	0	32456	
3955	0	32468	
3956	0	32513	
3957	0	32552	
3958	0	32600	
3959	0	32624	
3960	0	32640	
3961	0	32668	
3962	0	32720	
3963	0	32760	
3964	0	32776	
3965	0	32760	
3966	0	32744	
3967	0	32776	
3968	0	32768	
3969	0	32788	
3970	0	32824	
3971	0	32888	
3972	0	32944	
3973	0	32954	
3974	0	32952	
3975	0	32972	
3976	0	32960	
3977	0	32944	
3978	0	32984	
3979	0	33016	
3980	0	33032	
3981	0	33040	
3982	0	33040	
3983	0	33064	
3984	0	33096	
3985	0	33128	
3986	0	33120	
3987	0	33132	
3988	0	33200	
3989	0	33256	
3990	0	33272	
3991	0	33264	
3992	0	33284	
3993	0	33274	
3994	0	33248	
3995	0	33244	
3996	0	33292	
3997	0	33356	
3998	0	33336	
3999	0	33316	
4000	0	33332	
4001	0	33360	
4002	0	33380	
4003	0	33392	
4004	0	33380	
4005	0	33372	
4006	0	33372	
4007	0	33368	
4008	0	33328	
4009	0	33296	
4010	0	33284	
4011	0	33288	
4012	0	33288	
4013	0	33308	
4014	0	33248	
4015	0	33252	
4016	0	33248	
4017	0	33198	
4018	0	33188	
4019	0	33196	
4020	0	33172	
4021	0	33136	
4022	0	33120	
4023	0	33104	
4024	0	33050	
4025	0	33012	
4026	0	32996	
4027	0	33032	
4028	0	33064	
4029	0	33044	
4030	0	33016	
4031	0	32996	
4032	0	33012	
4033	0	33016	
4034	0	33028	
4035	0	33020	
4036	0	32986	
4037	0	32976	
4038	0	32990	
4039	0	32948	
4040	0	32936	
4041	0	32936	
4042	0	32976	
4043	0	32960	
4044	0	32900	
4045	0	32872	
4046	0	32840	
4047	0	32796	
4048	0	32820	
4049	0	32832	
4050	0	32800	
4051	0	32756	
4052	0	32760	
4053	0	32744	
4054	0	32750	
4055	0	32720	
4056	0	32704	
4057	0	32688	
4058	0	32708	
4059	0	32696	
4060	0	32684	
4061	0	32674	
4062	0	32660	
4063	0	32672	
4064	0	32724	
4065	0	32756	
4066	0	32736	
4067	0	32732	
4068	0	32736	
4069	0	32748	
4070	0	32784	
4071	0	32800	
4072	0	32788	
4073	0	32784	
4074	0	32796	
4075	0	32820	
4076	0	32832	
4077	0	32860	
4078	0	32896	
4079	0	32896	
4080	0	32872	
4081	0	32844	
4082	0	32804	
4083	0	32824	
4084	0	32836	
4085	0	32824	
4086	0	32816	
4087	0	32832	
4088	0	32860	
4089	0	32858	
4090	0	32800	
4091	0	32752	
4092	0	32754	
4093	0	32752	
4094	0	32796	
4095	0	32824	
4096	0	32836	
4097	0	32800	
4098	0	32800	
4099	0	32808	
4100	0	32832	
4101	0	32832	
4102	0	32816	
4103	0	32820	
4104	0	32784	
4105	0	32752	
4106	0	32836	
4107	0	32904	
4108	0	32948	
4109	0	32972	
4110	0	32980	
4111	0	32968	
4112	0	32996	
4113	0	32996	
4114	0	33032	
4115	0	33072	
4116	0	33080	
4117	0	33068	
4118	0	33068	
4119	0	33032	
4120	0	32992	
4121	0	32972	
4122	0	32940	
4123	0	32908	
4124	0	32924	
4125	0	32972	
4126	0	33028	
4127	0	33056	
4128	0	33060	
4129	0	33090	
4130	0	33088	
4131	0	33072	
4132	0	33088	
4133	0	33104	
4134	0	33104	
4135	0	33076	
4136	0	33132	
4137	0	33240	
4138	0	33392	
4139	0	33608	
4140	0	33824	
4141	0	34024	
4142	0	34192	
4143	0	34372	
4144	0	34588	
4145	0	34740	
4146	0	34868	
4147	0	35004	
4148	0	35120	
4149	0	35180	
4150	0	35220	
4151	0	35220	
4152	0	35184	
4153	0	35144	
4154	0	35092	
4155	0	35064	
4156	0	35024	
4157	0	35012	
4158	0	35052	
4159	0	35080	
4160	0	35132	
4161	0	35204	
4162	0	35352	
4163	0	35552	
4164	0	35816	
4165	0	36192	
4166	0	36584	
4167	0	36904	
4168	0	37128	
4169	0	37268	
4170	0	37324	
4171	0	37356	
4172	0	37432	
4173	0	37508	
4174	0	37600	
4175	0	37628	
4176	0	37632	
4177	0	37644	
4178	0	37696	
4179	0	37712	
4180	0	37720	
4181	0	37692	
4182	0	37588	
4183	0	37428	
4184	0	37210	
4185	0	37000	
4186	0	36800	
4187	0	36596	
4188	0	36496	
4189	0	36452	
4190	0	36420	
4191	0	36368	
4192	0	36296	
4193	0	36232	
4194	0	36056	
4195	0	35796	
4196	0	35560	
4197	0	35328	
4198	0	35156	
4199	0	34974	
4200	0	34788	
4201	0	34568	
4202	0	34330	
4203	0	34112	
4204	0	33904	
4205	0	33672	
4206	0	33428	
4207	0	33200	
4208	0	32972	
4209	0	32794	
4210	0	32644	
4211	0	32520	
4212	0	32384	
4213	0	32280	
4214	0	32136	
4215	0	31996	
4216	0	31926	
4217	0	31884	
4218	0	31840	
4219	0	31760	
4220	0	31744	
4221	0	31724	
4222	0	31684	
4223	0	31676	
4224	0	31688	
4225	0	31692	
4226	0	31616	
4227	0	31560	
4228	0	31612	
4229	0	31648	
4230	0	31668	
4231	0	31688	
4232	0	31708	
4233	0	31700	
4234	0	31668	
4235	0	31674	
4236	0	31652	
4237	0	31636	
4238	0	31608	
4239	0	31632	
4240	0	31652	
4241	0	31676	
4242	0	31700	
4243	0	31722	
4244	0	31708	
4245	0	31708	
4246	0	31708	
4247	0	31676	
4248	0	31608	
4249	0	31484	
4250	0	31412	
4251	0	31344	
4252	0	31216	
4253	0	31096	
4254	0	30984	
4255	0	30840	
4256	0	30656	
4257	0	30520	
4258	0	30388	
4259	0	30202	
4260	0	30016	
4261	0	29860	
4262	0	29780	
4263	0	29800	
4264	0	29856	
4265	0	30024	
4266	0	30332	
4267	0	30880	
4268	0	31604	
4269	0	32480	
4270	0	33556	
4271	0	35044	
4272	0	36856	
4273	0	39024	
4274	0	41632	
4275	0	44560	
4276	0	47648	
4277	0	50904	
4278	0	54384	
4279	0	58052	
4280	0	61764	
4281	0	65072	
4282	0	65535	
4283	0	65535	
4284	0	65535	
4285	0	65535	
4286	0	65535	
4287	0	65535	
4288	0	65535	
4289	0	65535	
4290	0	65535	
4291	0	65535	
4292	0	65535	
4293	0	65535	
4294	0	65535	
4295	0	65535	
4296	0	65535	
4297	0	65535	
4298	0	65535	
4299	0	65535	
4300	0	65535	
4301	0	65535	
4302	0	65535	
4303	0	65535	
4304	0	65535	
4305	0	65535	
4306	0	63608	
4307	0	58436	
4308	0	53312	
4309	0	48272	
4310	0	43748	
4311	0	39996	
4312	0	36856	
4313	0	34152	
4314	0	31896	
4315	0	30156	
4316	0	28920	
4317	0	28112	
4318	0	27492	
4319	0	26970	
4320	0	26484	
4321	0	26028	
4322	0	25624	
4323	0	25224	
4324	0	24816	
4325	0	24490	
4326	0	24228	
4327	0	23996	
4328	0	23772	
4329	0	23528	
4330	0	23300	
4331	0	23094	
4332	0	22910	
4333	0	22770	
4334	0	22626	
4335	0	22530	
4336	0	22440	
4337	0	22316	
4338	0	22228	
4339	0	22132	
4340	0	22076	
4341	0	22036	
4342	0	22040	
4343	0	22016	
4344	0	22002	
4345	0	21980	
4346	0	21972	
4347	0	21964	
4348	0	21984	
4349	0	22010	
4350	0	22050	
4351	0	22128	
4352	0	22224	
4353	0	22298	
4354	0	22320	
4355	0	22336	
4356	0	22404	
4357	0	22464	
4358	0	22528	
4359	0	22600	
4360	0	22640	
4361	0	22702	
4362	0	22812	
4363	0	22900	
4364	0	22913	
4365	0	23000	
4366	0	23144	
4367	0	23270	
4368	0	23396	
4369	0	23488	
4370	0	23560	
4371	0	23652	
4372	0	23796	
4373	0	23904	
4374	0	24006	
4375	0	24104	
4376	0	24192	
4377	0	24268	
4378	0	24378	
4379	0	24460	
4380	0	24564	
4381	0	24664	
4382	0	24762	
4383	0	24808	
4384	0	24840	
4385	0	24932	
4386	0	25060	
4387	0	25160	
4388	0	25248	
4389	0	25324	
4390	0	25400	
4391	0	25488	
4392	0	25554	
4393	0	25644	
4394	0	25740	
4395	0	25828	
4396	0	25936	
4397	0	26040	
4398	0	26130	
4399	0	26208	
4400	0	26280	
4401	0	26384	
4402	0	26484	
4403	0	26556	
4404	0	26620	
4405	0	26712	
4406	0	26778	
4407	0	26864	
4408	0	26920	
4409	0	26978	
4410	0	27080	
4411	0	27130	
4412	0	27196	
4413	0	27280	
4414	0	27368	
4415	0	27464	
4416	0	27556	
4417	0	27652	
4418	0	27746	
4419	0	27836	
4420	0	27908	
4421	0	27976	
4422	0	28104	
4423	0	28224	
4424	0	28300	
4425	0	28380	
4426	0	28450	
4427	0	28556	
4428	0	28682	
4429	0	28800	
4430	0	28914	
4431	0	29024	
4432	0	29120	
4433	0	29210	
4434	0	29308	
4435	0	29404	
4436	0	29476	
4437	0	29540	
4438	0	29632	
4439	0	29708	
4440	0	29800	
4441	0	29872	
4442	0	29970	
4443	0	30084	
4444	0	30218	
4445	0	30352	
4446	0	30472	
4447	0	30588	
4448	0	30688	
4449	0	30788	
4450	0	30872	
4451	0	30972	
4452	0	31072	
4453	0	31194	
4454	0	31300	
4455	0	31380	
4456	0	31508	
4457	0	31668	
4458	0	31812	
4459	0	31976	
4460	0	32098	
4461	0	32224	
4462	0	32348	
4463	0	32424	
4464	0	32512	
4465	0	32600	
4466	0	32732	
4467	0	32844	
4468	0	32946	
4469	0	33056	
4470	0	33200	
4471	0	33352	
4472	0	33448	
4473	0	33528	
4474	0	33612	
4475	0	33680	
4476	0	33748	
4477	0	33792	
4478	0	33856	
4479	0	33928	
4480	0	34036	
4481	0	34140	
4482	0	34228	
4483	0	34304	
4484	0	34348	
4485	0	34348	
4486	0	34340	
4487	0	34336	
4488	0	34354	
4489	0	34368	
4490	0	34360	
4491	0	34388	
4492	0	34432	
4493	0	34464	
4494	0	34456	
4495	0	34376	
4496	0	34400	
4497	0	34452	
4498	0	34492	
4499	0	34508	
4500	0	34520	
4501	0	34568	
4502	0	34616	
4503	0	34640	
4504	0	34656	
4505	0	34672	
4506	0	34668	
4507	0	34684	
4508	0	34736	
4509	0	34796	
4510	0	34764	
4511	0	34744	
4512	0	34712	
4513	0	34696	
4514	0	34654	
4515	0	34600	
4516	0	34552	
4517	0	34492	
4518	0	34420	
4519	0	34352	
4520	0	34284	
4521	0	34234	
4522	0	34144	
4523	0	34060	
4524	0	33984	
4525	0	33876	
4526	0	33772	
4527	0	33656	
4528	0	33584	
4529	0	33504	
4530	0	33408	
4531	0	33292	
4532	0	33164	
4533	0	33056	
4534	0	32924	
4535	0	32816	
4536	0	32728	
4537	0	32648	
4538	0	32576	
4539	0	32528	
4540	0	32472	
4541	0	32376	
4542	0	32280	
4543	0	32196	
4544	0	32140	
4545	0	32092	
4546	0	32020	
4547	0	31952	
4548	0	31884	
4549	0	31836	
4550	0	31824	
4551	0	31800	
4552	0	31776	
4553	0	31728	
4554	0	31668	
4555	0	31584	
4556	0	31552	
4557	0	31532	
4558	0	31512	
4559	0	31468	
4560	0	31416	
4561	0	31376	
4562	0	31344	
4563	0	31312	
4564	0	31328	
4565	0	31312	
4566	0	31280	
4567	0	31248	
4568	0	31240	
4569	0	31220	
4570	0	31220	
4571	0	31196	
4572	0	31212	
4573	0	31208	
4574	0	31168	
4575	0	31180	
4576	0	31256	
4577	0	31290	
4578	0	31296	
4579	0	31304	
4580	0	31312	
4581	0	31328	
4582	0	31356	
4583	0	31408	
4584	0	31412	
4585	0	31412	
4586	0	31420	
4587	0	31432	
4588	0	31448	
4589	0	31456	
4590	0	31476	
4591	0	31496	
4592	0	31536	
4593	0	31572	
4594	0	31608	
4595	0	31618	
4596	0	31624	
4597	0	31608	
4598	0	31640	
4599	0	31684	
4600	0	31688	
4601	0	31716	
4602	0	31736	
4603	0	31744	
4604	0	31796	
4605	0	31840	
4606	0	31888	
4607	0	31944	
4608	0	31960	
4609	0	31968	
4610	0	32016	
4611	0	32052	
4612	0	32064	
4613	0	32080	
4614	0	32116	
4615	0	32192	
4616	0	32204	
4617	0	32288	
4618	0	32380	
4619	0	32436	
4620	0	32488	
4621	0	32504	
4622	0	32504	
4623	0	32534	
4624	0	32564	
4625	0	32592	
4626	0	32632	
4627	0	32648	
4628	0	32684	
4629	0	32688	
4630	0	32692	
4631	0	32708	
4632	0	32748	
4633	0	32808	
4634	0	32808	
4635	0	32808	
4636	0	32808	
4637	0	32802	
4638	0	32800	
4639	0	32792	
4640	0	32812	
4641	0	32856	
4642	0	32904	
4643	0	32922	
4644	0	32960	
4645	0	32968	
4646	0	32984	
4647	0	32968	
4648	0	32984	
4649	0	33004	
4650	0	33008	
4651	0	33002	
4652	0	33008	
4653	0	33008	
4654	0	33032	
4655	0	33052	
4656	0	33068	
4657	0	33096	
4658	0	33132	
4659	0	33120	
4660	0	33112	
4661	0	33116	
4662	0	33120	
4663	0	33156	
4664	0	33236	
4665	0	33264	
4666	0	33256	
4667	0	33212	
4668	0	33164	
4669	0	33128	
4670	0	33094	
4671	0	33090	
4672	0	33108	
4673	0	33132	
4674	0	33162	
4675	0	33200	
4676	0	33212	
4677	0	33244	
4678	0	33260	
4679	0	33292	
4680	0	33300	
4681	0	33296	
4682	0	33296	
4683	0	33249	
4684	0	33232	
4685	0	33240	
4686	0	33232	
4687	0	33188	
4688	0	33200	
4689	0	33204	
4690	0	33240	
4691	0	33272	
4692	0	33260	
4693	0	33244	
4694	0	33196	
4695	0	33204	
4696	0	33224	
4697	0	33240	
4698	0	33232	
4699	0	33200	
4700	0	33204	
4701	0	33176	
4702	0	33120	
4703	0	33096	
4704	0	33120	
4705	0	33120	
4706	0	33096	
4707	0	33072	
4708	0	33044	
4709	0	33024	
4710	0	33036	
4711	0	33056	
4712	0	33036	
4713	0	33032	
4714	0	33024	
4715	0	33016	
4716	0	33024	
4717	0	33024	
4718	0	33044	
4719	0	33028	
4720	0	33020	
4721	0	33050	
4722	0	33064	
4723	0	33032	
4724	0	33036	
4725	0	33028	
4726	0	32986	
4727	0	32956	
4728	0	32960	
4729	0	32948	
4730	0	32952	
4731	0	32944	
4732	0	32948	
4733	0	32944	
4734	0	32930	
4735	0	32856	
4736	0	32872	
4737	0	32900	
4738	0	32880	
4739	0	32852	
4740	0	32820	
4741	0	32820	
4742	0	32856	
4743	0	32868	
4744	0	32860	
4745	0	32844	
4746	0	32840	
4747	0	32828	
4748	0	32824	
4749	0	32832	
4750	0	32860	
4751	0	32860	
4752	0	32852	
4753	0	32864	
4754	0	32876	
4755	0	32880	
4756	0	32864	
4757	0	32844	
4758	0	32828	
4759	0	32860	
4760	0	32884	
4761	0	32864	
4762	0	32852	
4763	0	32840	
4764	0	32865	
4765	0	32872	
4766	0	32862	
4767	0	32876	
4768	0	32884	
4769	0	32874	
4770	0	32864	
4771	0	32880	
4772	0	32878	
4773	0	32844	
4774	0	32840	
4775	0	32824	
4776	0	32840	
4777	0	32856	
4778	0	32856	
4779	0	32836	
4780	0	32832	
4781	0	32852	
4782	0	32864	
4783	0	32852	
4784	0	32852	
4785	0	32848	
4786	0	32848	
4787	0	32832	
4788	0	32802	
4789	0	32800	
4790	0	32824	
4791	0	32812	
4792	0	32792	
4793	0	32740	
4794	0	32720	
4795	0	32800	
4796	0	32956	
4797	0	33144	
4798	0	33388	
4799	0	33612	
4800	0	33824	
4801	0	34012	
4802	0	34164	
4803	0	34320	
4804	0	34488	
4805	0	34664	
4806	0	34808	
4807	0	34908	
4808	0	34976	
4809	0	35012	
4810	0	35040	
4811	0	35048	
4812	0	35018	
4813	0	34976	
4814	0	34956	
4815	0	34932	
4816	0	34920	
4817	0	34948	
4818	0	34992	
4819	0	35056	
4820	0	35160	
4821	0	35320	
4822	0	35560	
4823	0	35920	
4824	0	36368	
4825	0	36748	
4826	0	36996	
4827	0	37136	
4828	0	37232	
4829	0	37304	
4830	0	37320	
4831	0	37340	
4832	0	37388	
4833	0	37460	
4834	0	37536	
4835	0	37596	
4836	0	37676	
4837	0	37728	
4838	0	37776	
4839	0	37796	
4840	0	37736	
4841	0	37588	
4842	0	37368	
4843	0	37132	
4844	0	36892	
4845	0	36720	
4846	0	36604	
4847	0	36560	
4848	0	36524	
4849	0	36432	
4850	0	36312	
4851	0	36200	
4852	0	36024	
4853	0	35776	
4854	0	35544	
4855	0	35352	
4856	0	35152	
4857	0	34928	
4858	0	34656	
4859	0	34412	
4860	0	34180	
4861	0	33936	
4862	0	33668	
4863	0	33404	
4864	0	33168	
4865	0	32984	
4866	0	32810	
4867	0	32640	
4868	0	32488	
4869	0	32354	
4870	0	32224	
4871	0	32045	
4872	0	31896	
4873	0	31840	
4874	0	31776	
4875	0	31686	
4876	0	31612	
4877	0	31548	
4878	0	31496	
4879	0	31492	
4880	0	31500	
4881	0	31504	
4882	0	31478	
4883	0	31456	
4884	0	31428	
4885	0	31412	
4886	0	31392	
4887	0	31376	
4888	0	31336	
4889	0	31340	
4890	0	31356	
4891	0	31340	
4892	0	31340	
4893	0	31344	
4894	0	31348	
4895	0	31360	
4896	0	31364	
4897	0	31380	
4898	0	31408	
4899	0	31424	
4900	0	31456	
4901	0	31452	
4902	0	31440	
4903	0	31428	
4904	0	31460	
4905	0	31448	
4906	0	31460	
4907	0	31464	
4908	0	31436	
4909	0	31352	
4910	0	31232	
4911	0	31112	
4912	0	30964	
4913	0	30790	
4914	0	30624	
4915	0	30488	
4916	0	30336	
4917	0	30184	
4918	0	29996	
4919	0	29732	
4920	0	29496	
4921	0	29376	
4922	0	29372	
4923	0	29432	
4924	0	29568	
4925	0	29844	
4926	0	30334	
4927	0	30928	
4928	0	31728	
4929	0	32784	
4930	0	34244	
4931	0	36100	
4932	0	38324	
4933	0	40980	
4934	0	43896	
4935	0	46988	
4936	0	50256	
4937	0	53832	
4938	0	57624	
4939	0	61456	
4940	0	64604	
4941	0	65535	
4942	0	65535	
4943	0	65535	
4944	0	65535	
4945	0	65535	
4946	0	65535	
4947	0	65535	
4948	0	65535	
4949	0	65535	
4950	0	65535	
4951	0	65535	
4952	0	65535	
4953	0	65535	
4954	0	65535	
4955	0	65535	
4956	0	65535	
4957	0	65535	
4958	0	65535	
4959	0	65535	
4960	0	65535	
4961	0	65535	
4962	0	65535	
4963	0	65535	
4964	0	65535	
4965	0	63144	
4966	0	57920	
4967	0	52720	
4968	0	47688	
4969	0	43152	
4970	0	39368	
4971	0	36228	
4972	0	33480	
4973	0	31202	
4974	0	29536	
4975	0	28385	
4976	0	27644	
4977	0	27096	
4978	0	26636	
4979	0	26208	
4980	0	25760	
4981	0	25300	
4982	0	24908	
4983	0	24564	
4984	0	24284	
4985	0	24024	
4986	0	23788	
4987	0	23560	
4988	0	23344	
4989	0	23156	
4990	0	22952	
4991	0	22766	
4992	0	22604	
4993	0	22480	
4994	0	22352	
4995	0	22222	
4996	0	22072	
4997	0	21976	
4998	0	21920	
4999	0	21864	
5000	0	21826	
5001	0	21824	
5002	0	21816	
5003	0	21816	
5004	0	21812	
5005	0	21796	
5006	0	21796	
5007	0	21810	
5008	0	21836	
5009	0	21880	
5010	0	21928	
5011	0	21988	
5012	0	22052	
5013	0	22104	
5014	0	22188	
5015	0	22280	
5016	0	22340	
5017	0	22388	
5018	0	22474	
5019	0	22550	
5020	0	22632	
5021	0	22708	
5022	0	22773	
5023	0	22870	
5024	0	22944	
5025	0	23028	
5026	0	23114	
5027	0	23184	
5028	0	23250	
5029	0	23346	
5030	0	23440	
5031	0	23532	
5032	0	23660	
5033	0	23756	
5034	0	23836	
5035	0	23858	
5036	0	23980	
5037	0	24118	
5038	0	24192	
5039	0	24288	
5040	0	24376	
5041	0	24452	
5042	0	24560	
5043	0	24677	
5044	0	24762	
5045	0	24812	
5046	0	24864	
5047	0	24932	
5048	0	25028	
5049	0	25120	
5050	0	25228	
5051	0	25348	
5052	0	25464	
5053	0	25552	
5054	0	25620	
5055	0	25688	
5056	0	25792	
5057	0	25916	
5058	0	25988	
5059	0	26056	
5060	0	26152	
5061	0	26240	
5062	0	26336	
5063	0	26408	
5064	0	26468	
5065	0	26556	
5066	0	26632	
5067	0	26728	
5068	0	26836	
5069	0	26924	
5070	0	26992	
5071	0	27048	
5072	0	27128	
5073	0	27240	
5074	0	27324	
5075	0	27392	
5076	0	27452	
5077	0	27512	
5078	0	27636	
5079	0	27728	
5080	0	27816	
5081	0	27925	
5082	0	28044	
5083	0	28160	
5084	0	28226	
5085	0	28280	
5086	0	28352	
5087	0	28464	
5088	0	28552	
5089	0	28640	
5090	0	28728	
5091	0	28812	
5092	0	28940	
5093	0	29080	
5094	0	29136	
5095	0	29188	
5096	0	29328	
5097	0	29456	
5098	0	29576	
5099	0	29656	
5100	0	29730	
5101	0	29832	
5102	0	29940	
5103	0	30056	
5104	0	30140	
5105	0	30218	
5106	0	30332	
5107	0	30444	
5108	0	30580	
5109	0	30680	
5110	0	30792	
5111	0	30912	
5112	0	31044	
5113	0	31144	
5114	0	31258	
5115	0	31380	
5116	0	31480	
5117	0	31576	
5118	0	31712	
5119	0	31840	
5120	0	31960	
5121	0	32084	
5122	0	32236	
5123	0	32372	
5124	0	32496	
5125	0	32608	
5126	0	32688	
5127	0	32780	
5128	0	32880	
5129	0	32992	
5130	0	33120	
5131	0	33184	
5132	0	33248	
5133	0	33344	
5134	0	33424	
5135	0	33512	
5136	0	33608	
5137	0	33680	
5138	0	33784	
5139	0	33864	
5140	0	33928	
5141	0	33954	
5142	0	34020	
5143	0	34064	
5144	0	34084	
5145	0	34132	
5146	0	34156	
5147	0	34168	
5148	0	34196	
5149	0	34232	
5150	0	34232	
5151	0	34236	
5152	0	34232	
5153	0	34236	
5154	0	34256	
5155	0	34272	
5156	0	34304	
5157	0	34352	
5158	0	34372	
5159	0	34398	
5160	0	34436	
5161	0	34460	
5162	0	34508	
5163	0	34540	
5164	0	34568	
5165	0	34588	
5166	0	34608	
5167	0	34608	
5168	0	34616	
5169	0	34624	
5170	0	34588	
5171	0	34560	
5172	0	34544	
5173	0	34496	
5174	0	34456	
5175	0	34404	
5176	0	34336	
5177	0	34232	
5178	0	34152	
5179	0	34064	
5180	0	33944	
5181	0	33868	
5182	0	33768	
5183	0	33648	
5184	0	33536	
5185	0	33460	
5186	0	33412	
5187	0	33312	
5188	0	33194	
5189	0	33100	
5190	0	32976	
5191	0	32872	
5192	0	32776	
5193	0	32696	
5194	0	32596	
5195	0	32520	
5196	0	32444	
5197	0	32348	
5198	0	32228	
5199	0	32098	
5200	0	32032	
5201	0	31972	
5202	0	31896	
5203	0	31760	
5204	0	31736	
5205	0	31720	
5206	0	31648	
5207	0	31572	
5208	0	31528	
5209	0	31480	
5210	0	31428	
5211	0	31384	
5212	0	31360	
5213	0	31332	
5214	0	31308	
5215	0	31256	
5216	0	31196	
5217	0	31152	
5218	0	31128	
5219	0	31096	
5220	0	31086	
5221	0	31096	
5222	0	31100	
5223	0	31112	
5224	0	31112	
5225	0	31112	
5226	0	31100	
5227	0	31136	
5228	0	31150	
5229	0	31156	
5230	0	31168	
5231	0	31152	
5232	0	31156	
5233	0	31152	
5234	0	31160	
5235	0	31176	
5236	0	31160	
5237	0	31160	
5238	0	31164	
5239	0	31188	
5240	0	31168	
5241	0	31136	
5242	0	31120	
5243	0	31102	
5244	0	31120	
5245	0	31176	
5246	0	31240	
5247	0	31220	
5248	0	31216	
5249	0	31232	
5250	0	31249	
5251	0	31260	
5252	0	31288	
5253	0	31316	
5254	0	31344	
5255	0	31384	
5256	0	31404	
5257	0	31420	
5258	0	31436	
5259	0	31456	
5260	0	31488	
5261	0	31530	
5262	0	31552	
5263	0	31564	
5264	0	31612	
5265	0	31658	
5266	0	31704	
5267	0	31736	
5268	0	31820	
5269	0	31876	
5270	0	31920	
5271	0	31960	
5272	0	32000	
5273	0	32028	
5274	0	32036	
5275	0	32056	
5276	0	32080	
5277	0	32132	
5278	0	32180	
5279	0	32228	
5280	0	32258	
5281	0	32296	
5282	0	32304	
5283	0	32328	
5284	0	32352	
5285	0	32372	
5286	0	32412	
5287	0	32472	
5288	0	32488	
5289	0	32500	
5290	0	32532	
5291	0	32592	
5292	0	32616	
5293	0	32624	
5294	0	32612	
5295	0	32612	
5296	0	32636	
5297	0	32660	
5298	0	32708	
5299	0	32728	
5300	0	32752	
5301	0	32776	
5302	0	32808	
5303	0	32812	
5304	0	32828	
5305	0	32848	
5306	0	32858	
5307	0	32872	
5308	0	32884	
5309	0	32900	
5310	0	32896	
5311	0	32900	
5312	0	32912	
5313	0	32928	
5314	0	32960	
5315	0	32984	
5316	0	33004	
5317	0	33016	
5318	0	33040	
5319	0	33064	
5320	0	33088	
5321	0	33032	
5322	0	33064	
5323	0	33112	
5324	0	33112	
5325	0	33108	
5326	0	33120	
5327	0	33144	
5328	0	33168	
5329	0	33112	
5330	0	33076	
5331	0	33052	
5332	0	33056	
5333	0	33088	
5334	0	33104	
5335	0	33126	
5336	0	33152	
5337	0	33144	
5338	0	33132	
5339	0	33148	
5340	0	33184	
5341	0	33184	
5342	0	33176	
5343	0	33184	
5344	0	33200	
5345	0	33184	
5346	0	33188	
5347	0	33192	
5348	0	33176	
5349	0	33160	
5350	0	33158	
5351	0	33164	
5352	0	33176	
5353	0	33156	
5354	0	33156	
5355	0	33164	
5356	0	33148	
5357	0	33116	
5358	0	33120	
5359	0	33120	
5360	0	33130	
5361	0	33152	
5362	0	33164	
5363	0	33164	
5364	0	33140	
5365	0	33104	
5366	0	33096	
5367	0	33090	
5368	0	33080	
5369	0	33092	
5370	0	33080	
5371	0	33080	
5372	0	33068	
5373	0	33072	
5374	0	33060	
5375	0	33064	
5376	0	33076	
5377	0	33072	
5378	0	33048	
5379	0	33032	
5380	0	33040	
5381	0	33018	
5382	0	32996	
5383	0	33016	
5384	0	33016	
5385	0	33004	
5386	0	32972	
5387	0	32950	
5388	0	32952	
5389	0	32952	
5390	0	32940	
5391	0	32928	
5392	0	32908	
5393	0	32896	
5394	0	32896	
5395	0	32892	
5396	0	32900	
5397	0	32912	
5398	0	32890	
5399	0	32868	
5400	0	32872	
5401	0	32856	
5402	0	32802	
5403	0	32784	
5404	0	32792	
5405	0	32788	
5406	0	32788	
5407	0	32800	
5408	0	32816	
5409	0	32816	
5410	0	32816	
5411	0	32824	
5412	0	32821	
5413	0	32812	
5414	0	32816	
5415	0	32844	
5416	0	32856	
5417	0	32872	
5418	0	32864	
5419	0	32820	
5420	0	32808	
5421	0	32808	
5422	0	32800	
5423	0	32800	
5424	0	32826	
5425	0	32824	
5426	0	32858	
5427	0	32876	
5428	0	32868	
5429	0	32872	
5430	0	32896	
5431	0	32928	
5432	0	32968	
5433	0	32944	
5434	0	32896	
5435	0	32864	
5436	0	32836	
5437	0	32876	
5438	0	32886	
5439	0	32888	
5440	0	32904	
5441	0	32892	
5442	0	32846	
5443	0	32896	
5444	0	32940	
5445	0	32916	
5446	0	32888	
5447	0	32900	
5448	0	32912	
5449	0	32924	
5450	0	32928	
5451	0	32924	
5452	0	32912	
5453	0	32916	
5454	0	32896	
5455	0	32912	
5456	0	32924	
5457	0	32924	
5458	0	32900	
5459	0	32904	
5460	0	32928	
5461	0	32956	
5462	0	33056	
5463	0	33204	
5464	0	33396	
5465	0	33624	
5466	0	33832	
5467	0	34040	
5468	0	34208	
5469	0	34384	
5470	0	34560	
5471	0	34736	
5472	0	34864	
5473	0	34984	
5474	0	35096	
5475	0	35152	
5476	0	35160	
5477	0	35120	
5478	0	35120	
5479	0	35120	
5480	0	35136	
5481	0	35148	
5482	0	35172	
5483	0	35136	
5484	0	35120	
5485	0	35152	
5486	0	35248	
5487	0	35440	
5488	0	35676	
5489	0	36008	
5490	0	36408	
5491	0	36776	
5492	0	37040	
5493	0	37184	
5494	0	37248	
5495	0	37328	
5496	0	37412	
5497	0	37456	
5498	0	37504	
5499	0	37560	
5500	0	37632	
5501	0	37728	
5502	0	37820	
5503	0	37912	
5504	0	37992	
5505	0	37976	
5506	0	37912	
5507	0	37764	
5508	0	37544	
5509	0	37274	
5510	0	37004	
5511	0	36820	
5512	0	36696	
5513	0	36628	
5514	0	36572	
5515	0	36484	
5516	0	36400	
5517	0	36288	
5518	0	36132	
5519	0	35900	
5520	0	35668	
5521	0	35440	
5522	0	35194	
5523	0	34952	
5524	0	34748	
5525	0	34512	
5526	0	34268	
5527	0	34000	
5528	0	33740	
5529	0	33456	
5530	0	33204	
5531	0	32996	
5532	0	32816	
5533	0	32696	
5534	0	32592	
5535	0	32416	
5536	0	32256	
5537	0	32112	
5538	0	31980	
5539	0	31872	
5540	0	31756	
5541	0	31688	
5542	0	31628	
5543	0	31612	
5544	0	31584	
5545	0	31558	
5546	0	31540	
5547	0	31536	
5548	0	31524	
5549	0	31512	
5550	0	31444	
5551	0	31476	
5552	0	31540	
5553	0	31584	
5554	0	31588	
5555	0	31568	
5556	0	31544	
5557	0	31512	
5558	0	31488	
5559	0	31468	
5560	0	31468	
5561	0	31460	
5562	0	31496	
5563	0	31516	
5564	0	31516	
5565	0	31536	
5566	0	31568	
5567	0	31584	
5568	0	31600	
5569	0	31570	
5570	0	31554	
5571	0	31544	
5572	0	31520	
5573	0	31496	
5574	0	31444	
5575	0	31336	
5576	0	31224	
5577	0	31122	
5578	0	31000	
5579	0	30848	
5580	0	30688	
5581	0	30516	
5582	0	30354	
5583	0	30204	
5584	0	29992	
5585	0	29744	
5586	0	29508	
5587	0	29348	
5588	0	29264	
5589	0	29224	
5590	0	29264	
5591	0	29464	
5592	0	29920	
5593	0	30538	
5594	0	31336	
5595	0	32370	
5596	0	33796	
5597	0	35520	
5598	0	37616	
5599	0	40208	
5600	0	43084	
5601	0	46168	
5602	0	49440	
5603	0	52992	
5604	0	56824	
5605	0	60752	
5606	0	63984	
5607	0	65535	
5608	0	65535	
5609	0	65535	
5610	0	65535	
5611	0	65535	
5612	0	65535	
5613	0	65535	
5614	0	65535	
5615	0	65535	
5616	0	65535	
5617	0	65535	
5618	0	65535	
5619	0	65535	
5620	0	65535	
5621	0	65535	
5622	0	65535	
5623	0	65535	
5624	0	65535	
5625	0	65535	
5626	0	65535	
5627	0	65535	
5628	0	65372	
5629	0	65248	
5630	0	65108	
5631	0	61640	
5632	0	56624	
5633	0	51632	
5634	0	46848	
5635	0	42560	
5636	0	39028	
5637	0	36088	
5638	0	33536	
5639	0	31440	
5640	0	29852	
5641	0	28736	
5642	0	27984	
5643	0	27440	
5644	0	26936	
5645	0	26484	
5646	0	26040	
5647	0	25596	
5648	0	25192	
5649	0	24796	
5650	0	24448	
5651	0	24156	
5652	0	23892	
5653	0	23664	
5654	0	23436	
5655	0	23248	
5656	0	23056	
5657	0	22884	
5658	0	22736	
5659	0	22610	
5660	0	22496	
5661	0	22404	
5662	0	22312	
5663	0	22236	
5664	0	22180	
5665	0	22158	
5666	0	22138	
5667	0	22098	
5668	0	22068	
5669	0	22026	
5670	0	22016	
5671	0	22064	
5672	0	22084	
5673	0	22108	
5674	0	22128	
5675	0	22156	
5676	0	22176	
5677	0	22212	
5678	0	22268	
5679	0	22300	
5680	0	22344	
5681	0	22408	
5682	0	22476	
5683	0	22526	
5684	0	22598	
5685	0	22696	
5686	0	22804	
5687	0	22904	
5688	0	22984	
5689	0	23056	
5690	0	23136	
5691	0	23224	
5692	0	23304	
5693	0	23364	
5694	0	23448	
5695	0	23560	
5696	0	23656	
5697	0	23760	
5698	0	23876	
5699	0	23962	
5700	0	24064	
5701	0	24160	
5702	0	24248	
5703	0	24364	
5704	0	24484	
5705	0	24584	
5706	0	24652	
5707	0	24736	
5708	0	24800	
5709	0	24836	
5710	0	24908	
5711	0	25008	
5712	0	25134	
5713	0	25248	
5714	0	25350	
5715	0	25438	
5716	0	25528	
5717	0	25624	
5718	0	25728	
5719	0	25824	
5720	0	25900	
5721	0	25964	
5722	0	26032	
5723	0	26096	
5724	0	26176	
5725	0	26300	
5726	0	26408	
5727	0	26492	
5728	0	26554	
5729	0	26636	
5730	0	26748	
5731	0	26828	
5732	0	26916	
5733	0	26992	
5734	0	27064	
5735	0	27112	
5736	0	27168	
5737	0	27248	
5738	0	27332	
5739	0	27412	
5740	0	27528	
5741	0	27608	
5742	0	27704	
5743	0	27784	
5744	0	27892	
5745	0	27976	
5746	0	28048	
5747	0	28136	
5748	0	28208	
5749	0	28288	
5750	0	28384	
5751	0	28492	
5752	0	28608	
5753	0	28682	
5754	0	28720	
5755	0	28798	
5756	0	28900	
5757	0	29020	
5758	0	29100	
5759	0	29184	
5760	0	29276	
5761	0	29368	
5762	0	29500	
5763	0	29626	
5764	0	29744	
5765	0	29841	
5766	0	29984	
5767	0	30100	
5768	0	30208	
5769	0	30308	
5770	0	30392	
5771	0	30480	
5772	0	30576	
5773	0	30656	
5774	0	30756	
5775	0	30860	
5776	0	30968	
5777	0	31072	
5778	0	31192	
5779	0	31312	
5780	0	31432	
5781	0	31572	
5782	0	31712	
5783	0	31840	
5784	0	31992	
5785	0	32096	
5786	0	32184	
5787	0	32308	
5788	0	32432	
5789	0	32548	
5790	0	32640	
5791	0	32744	
5792	0	32848	
5793	0	32960	
5794	0	33034	
5795	0	33128	
5796	0	33232	
5797	0	33348	
5798	0	33452	
5799	0	33532	
5800	0	33612	
5801	0	33696	
5802	0	33792	
5803	0	33856	
5804	0	33916	
5805	0	33976	
5806	0	34036	
5807	0	34104	
5808	0	34152	
5809	0	34178	
5810	0	34208	
5811	0	34244	
5812	0	34280	
5813	0	34304	
5814	0	34320	
5815	0	34376	
5816	0	34424	
5817	0	34404	
5818	0	34384	
5819	0	34456	
5820	0	34516	
5821	0	34560	
5822	0	34604	
5823	0	34612	
5824	0	34614	
5825	0	34648	
5826	0	34640	
5827	0	34612	
5828	0	34660	
5829	0	34716	
5830	0	34732	
5831	0	34752	
5832	0	34724	
5833	0	34742	
5834	0	34752	
5835	0	34772	
5836	0	34760	
5837	0	34756	
5838	0	34746	
5839	0	34708	
5840	0	34664	
5841	0	34616	
5842	0	34544	
5843	0	34490	
5844	0	34416	
5845	0	34340	
5846	0	34240	
5847	0	34156	
5848	0	34072	
5849	0	33980	
5850	0	33864	
5851	0	33776	
5852	0	33690	
5853	0	33616	
5854	0	33508	
5855	0	33384	
5856	0	33276	
5857	0	33192	
5858	0	33136	
5859	0	33076	
5860	0	32976	
5861	0	32882	
5862	0	32784	
5863	0	32704	
5864	0	32592	
5865	0	32488	
5866	0	32392	
5867	0	32328	
5868	0	32268	
5869	0	32176	
5870	0	32084	
5871	0	32020	
5872	0	31952	
5873	0	31872	
5874	0	31804	
5875	0	31712	
5876	0	31676	
5877	0	31648	
5878	0	31620	
5879	0	31576	
5880	0	31532	
5881	0	31496	
5882	0	31484	
5883	0	31450	
5884	0	31408	
5885	0	31376	
5886	0	31372	
5887	0	31344	
5888	0	31340	
5889	0	31356	
5890	0	31380	
5891	0	31392	
5892	0	31408	
5893	0	31388	
5894	0	31374	
5895	0	31368	
5896	0	31328	
5897	0	31288	
5898	0	31248	
5899	0	31260	
5900	0	31300	
5901	0	31336	
5902	0	31316	
5903	0	31320	
5904	0	31320	
5905	0	31322	
5906	0	31332	
5907	0	31340	
5908	0	31332	
5909	0	31336	
5910	0	31360	
5911	0	31360	
5912	0	31396	
5913	0	31437	
5914	0	31468	
5915	0	31488	
5916	0	31476	
5917	0	31472	
5918	0	31476	
5919	0	31480	
5920	0	31504	
5921	0	31524	
5922	0	31540	
5923	0	31584	
5924	0	31600	
5925	0	31630	
5926	0	31668	
5927	0	31712	
5928	0	31680	
5929	0	31744	
5930	0	31832	
5931	0	31896	
5932	0	31920	
5933	0	31952	
5934	0	32018	
5935	0	32096	
5936	0	32164	
5937	0	32204	
5938	0	32220	
5939	0	32244	
5940	0	32300	
5941	0	32296	
5942	0	32332	
5943	0	32356	
5944	0	32412	
5945	0	32440	
5946	0	32448	
5947	0	32464	
5948	0	32520	
5949	0	32586	
5950	0	32596	
5951	0	32602	
5952	0	32642	
5953	0	32648	
5954	0	32672	
5955	0	32664	
5956	0	32676	
5957	0	32704	
5958	0	32720	
5959	0	32740	
5960	0	32764	
5961	0	32792	
5962	0	32836	
5963	0	32844	
5964	0	32864	
5965	0	32872	
5966	0	32888	
5967	0	32920	
5968	0	32914	
5969	0	32932	
5970	0	32950	
5971	0	32960	
5972	0	32976	
5973	0	32992	
5974	0	32988	
5975	0	32978	
5976	0	32984	
5977	0	33004	
5978	0	33032	
5979	0	33076	
5980	0	33082	
5981	0	33088	
5982	0	33088	
5983	0	33092	
5984	0	33092	
5985	0	33120	
5986	0	33112	
5987	0	33124	
5988	0	33148	
5989	0	33166	
5990	0	33172	
5991	0	33192	
5992	0	33188	
5993	0	33176	
5994	0	33192	
5995	0	33204	
5996	0	33188	
5997	0	33196	
5998	0	33196	
5999	0	33200	
6000	0	33208	
6001	0	33216	
6002	0	33188	
6003	0	33192	
6004	0	33208	
6005	0	33224	
6006	0	33216	
6007	0	33180	
6008	0	33148	
6009	0	33116	
6010	0	33108	
6011	0	33084	
6012	0	33064	
6013	0	33052	
6014	0	33032	
6015	0	33040	
6016	0	33060	
6017	0	33056	
6018	0	33060	
6019	0	33064	
6020	0	33040	
6021	0	33036	
6022	0	33028	
6023	0	33040	
6024	0	33032	
6025	0	33036	
6026	0	33032	
6027	0	33020	
6028	0	33000	
6029	0	32992	
6030	0	32992	
6031	0	33000	
6032	0	32984	
6033	0	32992	
6034	0	32976	
6035	0	32954	
6036	0	32954	
6037	0	32968	
6038	0	33000	
6039	0	32980	
6040	0	32944	
6041	0	32926	
6042	0	32888	
6043	0	32832	
6044	0	32800	
6045	0	32796	
6046	0	32796	
6047	0	32816	
6048	0	32804	
6049	0	32792	
6050	0	32784	
6051	0	32794	
6052	0	32792	
6053	0	32746	
6054	0	32704	
6055	0	32760	
6056	0	32800	
6057	0	32800	
6058	0	32772	
6059	0	32732	
6060	0	32700	
6061	0	32704	
6062	0	32708	
6063	0	32720	
6064	0	32704	
6065	0	32716	
6066	0	32720	
6067	0	32716	
6068	0	32704	
6069	0	32704	
6070	0	32712	
6071	0	32688	
6072	0	32672	
6073	0	32664	
6074	0	32672	
6075	0	32670	
6076	0	32712	
6077	0	32764	
6078	0	32740	
6079	0	32696	
6080	0	32664	
6081	0	32656	
6082	0	32656	
6083	0	32652	
6084	0	32644	
6085	0	32668	
6086	0	32682	
6087	0	32716	
6088	0	32768	
6089	0	32832	
6090	0	32860	
6091	0	32824	
6092	0	32792	
6093	0	32756	
6094	0	32724	
6095	0	32720	
6096	0	32740	
6097	0	32740	
6098	0	32736	
6099	0	32736	
6100	0	32776	
6101	0	32802	
6102	0	32772	
6103	0	32756	
6104	0	32792	
6105	0	32792	
6106	0	32768	
6107	0	32758	
6108	0	32744	
6109	0	32716	
6110	0	32718	
6111	0	32746	
6112	0	32760	
6113	0	32752	
6114	0	32740	
6115	0	32736	
6116	0	32732	
6117	0	32740	
6118	0	32768	
6119	0	32796	
6120	0	32800	
6121	0	32800	
6122	0	32816	
6123	0	32840	
6124	0	32864	
6125	0	32932	
6126	0	33084	
6127	0	33276	
6128	0	33520	
6129	0	33772	
6130	0	33984	
6131	0	34154	
6132	0	34288	
6133	0	34432	
6134	0	34588	
6135	0	34708	
6136	0	34818	
6137	0	34904	
6138	0	34928	
6139	0	34948	
6140	0	34928	
6141	0	34888	
6142	0	34880	
6143	0	34888	
6144	0	34906	
6145	0	34936	
6146	0	34892	
6147	0	34860	
6148	0	34920	
6149	0	35056	
6150	0	35264	
6151	0	35604	
6152	0	36016	
6153	0	36408	
6154	0	36724	
6155	0	36896	
6156	0	37008	
6157	0	37044	
6158	0	37084	
6159	0	37100	
6160	0	37152	
6161	0	37244	
6162	0	37264	
6163	0	37344	
6164	0	37472	
6165	0	37596	
6166	0	37684	
6167	0	37748	
6168	0	37720	
6169	0	37580	
6170	0	37360	
6171	0	37092	
6172	0	36868	
6173	0	36714	
6174	0	36592	
6175	0	36532	
6176	0	36480	
6177	0	36396	
6178	0	36292	
6179	0	36216	
6180	0	36084	
6181	0	35872	
6182	0	35636	
6183	0	35392	
6184	0	35156	
6185	0	34952	
6186	0	34752	
6187	0	34530	
6188	0	34272	
6189	0	33996	
6190	0	33728	
6191	0	33432	
6192	0	33168	
6193	0	32960	
6194	0	32776	
6195	0	32640	
6196	0	32492	
6197	0	32360	
6198	0	32208	
6199	0	32050	
6200	0	31904	
6201	0	31752	
6202	0	31650	
6203	0	31576	
6204	0	31518	
6205	0	31468	
6206	0	31424	
6207	0	31394	
6208	0	31352	
6209	0	31352	
6210	0	31368	
6211	0	31364	
6212	0	31344	
6213	0	31324	
6214	0	31292	
6215	0	31264	
6216	0	31260	
6217	0	31248	
6218	0	31248	
6219	0	31288	
6220	0	31308	
6221	0	31308	
6222	0	31312	
6223	0	31332	
6224	0	31348	
6225	0	31354	
6226	0	31352	
6227	0	31344	
6228	0	31392	
6229	0	31436	
6230	0	31440	
6231	0	31448	
6232	0	31424	
6233	0	31412	
6234	0	31388	
6235	0	31346	
6236	0	31312	
6237	0	31248	
6238	0	31172	
6239	0	31072	
6240	0	30936	
6241	0	30772	
6242	0	30624	
6243	0	30432	
6244	0	30260	
6245	0	30096	
6246	0	29944	
6247	0	29728	
6248	0	29440	
6249	0	29236	
6250	0	29120	
6251	0	29064	
6252	0	29088	
6253	0	29232	
6254	0	29552	
6255	0	30124	
6256	0	30848	
6257	0	31752	
6258	0	32984	
6259	0	34578	
6260	0	36468	
6261	0	38872	
6262	0	41664	
6263	0	44676	
6264	0	47848	
6265	0	51248	
6266	0	54996	
6267	0	59002	
6268	0	62660	
6269	0	64816	
6270	0	65535	
6271	0	65535	
6272	0	65535	
6273	0	65535	
6274	0	65535	
6275	0	65535	
6276	0	65535	
6277	0	65535	
6278	0	65535	
6279	0	65535	
6280	0	65535	
6281	0	65535	
6282	0	65535	
6283	0	65535	
6284	0	65535	
6285	0	65535	
6286	0	65400	
6287	0	65272	
6288	0	65148	
6289	0	65040	
6290	0	64904	
6291	0	64772	
6292	0	64652	
6293	0	62912	
6294	0	57752	
6295	0	52840	
6296	0	47968	
6297	0	43540	
6298	0	39840	
6299	0	36848	
6300	0	34328	
6301	0	32196	
6302	0	30418	
6303	0	29108	
6304	0	28176	
6305	0	27520	
6306	0	27008	
6307	0	26512	
6308	0	26072	
6309	0	25644	
6310	0	25228	
6311	0	24832	
6312	0	24504	
6313	0	24210	
6314	0	23922	
6315	0	23664	
6316	0	23444	
6317	0	23248	
6318	0	23084	
6319	0	22936	
6320	0	22836	
6321	0	22722	
6322	0	22570	
6323	0	22420	
6324	0	22294	
6325	0	22224	
6326	0	22152	
6327	0	22084	
6328	0	22020	
6329	0	21976	
6330	0	21932	
6331	0	21884	
6332	0	21856	
6333	0	21888	
6334	0	21924	
6335	0	21970	
6336	0	22028	
6337	0	22048	
6338	0	22066	
6339	0	22088	
6340	0	22124	
6341	0	22172	
6342	0	22232	
6343	0	22296	
6344	0	22356	
6345	0	22424	
6346	0	22464	
6347	0	22493	
6348	0	22522	
6349	0	22586	
6350	0	22688	
6351	0	22800	
6352	0	22896	
6353	0	23009	
6354	0	23106	
6355	0	23180	
6356	0	23268	
6357	0	23356	
6358	0	23456	
6359	0	23568	
6360	0	23676	
6361	0	23788	
6362	0	23932	
6363	0	24060	
6364	0	24188	
6365	0	24276	
6366	0	24332	
6367	0	24424	
6368	0	24528	
6369	0	24686	
6370	0	24788	
6371	0	24824	
6372	0	24908	
6373	0	24996	
6374	0	25084	
6375	0	25184	
6376	0	25280	
6377	0	25384	
6378	0	25496	
6379	0	25588	
6380	0	25672	
6381	0	25728	
6382	0	25808	
6383	0	25870	
6384	0	25956	
6385	0	26024	
6386	0	26080	
6387	0	26140	
6388	0	26208	
6389	0	26266	
6390	0	26368	
6391	0	26472	
6392	0	26586	
6393	0	26628	
6394	0	26700	
6395	0	26756	
6396	0	26828	
6397	0	26912	
6398	0	27020	
6399	0	27148	
6400	0	27274	
6401	0	27356	
6402	0	27444	
6403	0	27488	
6404	0	27574	
6405	0	27704	
6406	0	27816	
6407	0	27872	
6408	0	27904	
6409	0	28048	
6410	0	28192	
6411	0	28256	
6412	0	28344	
6413	0	28424	
6414	0	28512	
6415	0	28588	
6416	0	28664	
6417	0	28752	
6418	0	28848	
6419	0	28968	
6420	0	29080	
6421	0	29208	
6422	0	29324	
6423	0	29408	
6424	0	29484	
6425	0	29568	
6426	0	29684	
6427	0	29792	
6428	0	29904	
6429	0	30016	
6430	0	30100	
6431	0	30186	
6432	0	30292	
6433	0	30400	
6434	0	30504	
6435	0	30592	
6436	0	30688	
6437	0	30784	
6438	0	30874	
6439	0	30968	
6440	0	31072	
6441	0	31212	
6442	0	31320	
6443	0	31456	
6444	0	31584	
6445	0	31724	
6446	0	31856	
6447	0	31968	
6448	0	32072	
6449	0	32192	
6450	0	32300	
6451	0	32436	
6452	0	32536	
6453	0	32664	
6454	0	32816	
6455	0	32952	
6456	0	33076	
6457	0	33186	
6458	0	33276	
6459	0	33392	
6460	0	33464	
6461	0	33512	
6462	0	33596	
6463	0	33672	
6464	0	33740	
6465	0	33808	
6466	0	33836	
6467	0	33876	
6468	0	33884	
6469	0	33908	
6470	0	33950	
6471	0	34016	
6472	0	34052	
6473	0	34092	
6474	0	34114	
6475	0	34084	
6476	0	34104	
6477	0	34116	
6478	0	34128	
6479	0	34168	
6480	0	34176	
6481	0	34200	
6482	0	34256	
6483	0	34260	
6484	0	34304	
6485	0	34328	
6486	0	34380	
6487	0	34424	
6488	0	34464	
6489	0	34484	
6490	0	34480	
6491	0	34504	
6492	0	34516	
6493	0	34552	
6494	0	34596	
6495	0	34602	
6496	0	34604	
6497	0	34608	
6498	0	34600	
6499	0	34632	
6500	0	34648	
6501	0	34608	
6502	0	34572	
6503	0	34532	
6504	0	34438	
6505	0	34340	
6506	0	34244	
6507	0	34148	
6508	0	34080	
6509	0	34012	
6510	0	33940	
6511	0	33820	
6512	0	33696	
6513	0	33600	
6514	0	33512	
6515	0	33456	
6516	0	33396	
6517	0	33348	
6518	0	33288	
6519	0	33196	
6520	0	33068	
6521	0	32984	
6522	0	32884	
6523	0	32778	
6524	0	32688	
6525	0	32608	
6526	0	32532	
6527	0	32444	
6528	0	32376	
6529	0	32312	
6530	0	32224	
6531	0	32172	
6532	0	32136	
6533	0	32098	
6534	0	32064	
6535	0	32016	
6536	0	31932	
6537	0	31848	
6538	0	31804	
6539	0	31784	
6540	0	31784	
6541	0	31792	
6542	0	31808	
6543	0	31786	
6544	0	31740	
6545	0	31656	
6546	0	31620	
6547	0	31596	
6548	0	31580	
6549	0	31564	
6550	0	31545	
6551	0	31524	
6552	0	31496	
6553	0	31504	
6554	0	31520	
6555	0	31508	
6556	0	31496	
6557	0	31496	
6558	0	31484	
6559	0	31448	
6560	0	31436	
6561	0	31392	
6562	0	31328	
6563	0	31392	
6564	0	31464	
6565	0	31520	
6566	0	31552	
6567	0	31568	
6568	0	31572	
6569	0	31568	
6570	0	31608	
6571	0	31676	
6572	0	31692	
6573	0	31724	
6574	0	31716	
6575	0	31736	
6576	0	31740	
6577	0	31732	
6578	0	31764	
6579	0	31832	
6580	0	31844	
6581	0	31828	
6582	0	31808	
6583	0	31768	
6584	0	31760	
6585	0	31780	
6586	0	31812	
6587	0	31832	
6588	0	31824	
6589	0	31794	
6590	0	31804	
6591	0	31850	
6592	0	31906	
6593	0	31972	
6594	0	31992	
6595	0	32048	
6596	0	32112	
6597	0	32148	
6598	0	32172	
6599	0	32208	
6600	0	32244	
6601	0	32288	
6602	0	32320	
6603	0	32356	
6604	0	32412	
6605	0	32448	
6606	0	32512	
6607	0	32584	
6608	0	32644	
6609	0	32696	
6610	0	32724	
6611	0	32720	
6612	0	32744	
6613	0	32768	
6614	0	32816	
6615	0	32808	
6616	0	32768	
6617	0	32752	
6618	0	32756	
6619	0	32764	
6620	0	32768	
6621	0	32792	
6622	0	32780	
6623	0	32794	
6624	0	32824	
6625	0	32868	
6626	0	32944	
6627	0	32972	
6628	0	32972	
6629	0	33000	
6630	0	33024	
6631	0	33064	
6632	0	33096	
6633	0	33160	
6634	0	33164	
6635	0	33156	
6636	0	33148	
6637	0	33136	
6638	0	33114	
6639	0	33088	
6640	0	33096	
6641	0	33096	
6642	0	33088	
6643	0	33060	
6644	0	33032	
6645	0	33072	
6646	0	33098	
6647	0	33148	
6648	0	33204	
6649	0	33280	
6650	0	33320	
6651	0	33400	
6652	0	33432	
6653	0	33404	
6654	0	33316	
6655	0	33264	
6656	0	33224	
6657	0	33224	
6658	0	33264	
6659	0	33312	
6660	0	33372	
6661	0	33396	
6662	0	33392	
6663	0	33426	
6664	0	33440	
6665	0	33420	
6666	0	33360	
6667	0	33320	
6668	0	33280	
6669	0	33316	
6670	0	33344	
6671	0	33376	
6672	0	33404	
6673	0	33396	
6674	0	33344	
6675	0	33320	
6676	0	33364	
6677	0	33396	
6678	0	33392	
6679	0	33356	
6680	0	33332	
6681	0	33364	
6682	0	33388	
6683	0	33404	
6684	0	33416	
6685	0	33384	
6686	0	33332	
6687	0	33280	
6688	0	33212	
6689	0	33140	
6690	0	33096	
6691	0	33068	
6692	0	33008	
6693	0	32996	
6694	0	32988	
6695	0	32964	
6696	0	32924	
6697	0	32884	
6698	0	32876	
6699	0	32880	
6700	0	32900	
6701	0	32940	
6702	0	32984	
6703	0	32996	
6704	0	32976	
6705	0	32996	
6706	0	33044	
6707	0	33080	
6708	0	33108	
6709	0	33100	
6710	0	33096	
6711	0	33088	
6712	0	33076	
6713	0	33008	
6714	0	32968	
6715	0	32968	
6716	0	32984	
6717	0	33016	
6718	0	33052	
6719	0	33072	
6720	0	33052	
6721	0	33044	
6722	0	33012	
6723	0	32980	
6724	0	32928	
6725	0	32912	
6726	0	32924	
6727	0	32956	
6728	0	32976	
6729	0	32956	
6730	0	32956	
6731	0	32932	
6732	0	32900	
6733	0	32900	
6734	0	32912	
6735	0	32916	
6736	0	32896	
6737	0	32872	
6738	0	32818	
6739	0	32760	
6740	0	32704	
6741	0	32712	
6742	0	32732	
6743	0	32736	
6744	0	32732	
6745	0	32748	
6746	0	32808	
6747	0	32876	
6748	0	32932	
6749	0	32968	
6750	0	32988	
6751	0	32912	
6752	0	32824	
6753	0	32768	
6754	0	32740	
6755	0	32732	
6756	0	32722	
6757	0	32736	
6758	0	32764	
6759	0	32772	
6760	0	32780	
6761	0	32808	
6762	0	32824	
6763	0	32828	
6764	0	32820	
6765	0	32856	
6766	0	32884	
6767	0	32940	
6768	0	32944	
6769	0	32910	
6770	0	32916	
6771	0	32960	
6772	0	32988	
6773	0	32968	
6774	0	32986	
6775	0	33000	
6776	0	32984	
6777	0	33000	
6778	0	33020	
6779	0	32984	
6780	0	33000	
6781	0	33016	
6782	0	32976	
6783	0	32884	
6784	0	32800	
6785	0	32768	
6786	0	32780	
6787	0	32808	
6788	0	32894	
6789	0	33070	
6790	0	33256	
6791	0	33504	
6792	0	33768	
6793	0	34020	
6794	0	34224	
6795	0	34392	
6796	0	34568	
6797	0	34756	
6798	0	34860	
6799	0	34944	
6800	0	35016	
6801	0	35044	
6802	0	35016	
6803	0	34984	
6804	0	34968	
6805	0	34968	
6806	0	34952	
6807	0	34932	
6808	0	34960	
6809	0	34904	
6810	0	34848	
6811	0	34884	
6812	0	35000	
6813	0	35224	
6814	0	35580	
6815	0	36008	
6816	0	36416	
6817	0	36708	
6818	0	36912	
6819	0	37036	
6820	0	37072	
6821	0	37064	
6822	0	37140	
6823	0	37204	
6824	0	37200	
6825	0	37164	
6826	0	37212	
6827	0	37400	
6828	0	37608	
6829	0	37748	
6830	0	37728	
6831	0	37600	
6832	0	37416	
6833	0	37172	
6834	0	36920	
6835	0	36678	
6836	0	36576	
6837	0	36528	
6838	0	36552	
6839	0	36544	
6840	0	36532	
6841	0	36496	
6842	0	36456	
6843	0	36312	
6844	0	36064	
6845	0	35824	
6846	0	35584	
6847	0	35336	
6848	0	35124	
6849	0	34924	
6850	0	34744	
6851	0	34556	
6852	0	34336	
6853	0	34104	
6854	0	33824	
6855	0	33514	
6856	0	33268	
6857	0	33096	
6858	0	32900	
6859	0	32760	
6860	0	32632	
6861	0	32468	
6862	0	32332	
6863	0	32204	
6864	0	32092	
6865	0	32004	
6866	0	31912	
6867	0	31864	
6868	0	31784	
6869	0	31716	
6870	0	31680	
6871	0	31604	
6872	0	31500	
6873	0	31380	
6874	0	31316	
6875	0	31302	
6876	0	31346	
6877	0	31392	
6878	0	31448	
6879	0	31504	
6880	0	31528	
6881	0	31536	
6882	0	31568	
6883	0	31592	
6884	0	31616	
6885	0	31644	
6886	0	31644	
6887	0	31644	
6888	0	31640	
6889	0	31624	
6890	0	31644	
6891	0	31636	
6892	0	31584	
6893	0	31528	
6894	0	31476	
6895	0	31420	
6896	0	31408	
6897	0	31424	
6898	0	31452	
6899	0	31472	
6900	0	31480	
6901	0	31452	
6902	0	31328	
6903	0	31136	
6904	0	30936	
6905	0	30720	
6906	0	30536	
6907	0	30400	
6908	0	30288	
6909	0	30070	
6910	0	29804	
6911	0	29594	
6912	0	29464	
6913	0	29364	
6914	0	29336	
6915	0	29412	
6916	0	29572	
6917	0	29880	
6918	0	30444	
6919	0	31196	
6920	0	32236	
6921	0	33668	
6922	0	35372	
6923	0	37396	
6924	0	39928	
6925	0	42852	
6926	0	46052	
6927	0	49504	
6928	0	53306	
6929	0	57476	
6930	0	61512	
6931	0	63920	
6932	0	65208	
6933	0	65535	
6934	0	65535	
6935	0	65535	
6936	0	65535	
6937	0	65535	
6938	0	65535	
6939	0	65535	
6940	0	65535	
6941	0	65535	
6942	0	65535	
6943	0	65535	
6944	0	65376	
6945	0	65236	
6946	0	65124	
6947	0	65012	
6948	0	64884	
6949	0	64736	
6950	0	64620	
6951	0	64500	
6952	0	64384	
6953	0	64260	
6954	0	64136	
6955	0	64020	
6956	0	62416	
6957	0	57136	
6958	0	52048	
6959	0	47048	
6960	0	42712	
6961	0	39216	
6962	0	36406	
6963	0	34092	
6964	0	32148	
6965	0	30602	
6966	0	29364	
6967	0	28452	
6968	0	27744	
6969	0	27146	
6970	0	26612	
6971	0	26112	
6972	0	25644	
6973	0	25244	
6974	0	24864	
6975	0	24484	
6976	0	24152	
6977	0	23908	
6978	0	23688	
6979	0	23444	
6980	0	23248	
6981	0	23100	
6982	0	22992	
6983	0	22898	
6984	0	22746	
6985	0	22592	
6986	0	22476	
6987	0	22364	
6988	0	22256	
6989	0	22112	
6990	0	21992	
6991	0	21896	
6992	0	21804	
6993	0	21720	
6994	0	21648	
6995	0	21600	
6996	0	21568	
6997	0	21584	
6998	0	21596	
6999	0	21568	
7000	0	21548	
7001	0	21532	
7002	0	21552	
7003	0	21604	
7004	0	21712	
7005	0	21862	
7006	0	21970	
7007	0	22104	
7008	0	22242	
7009	0	22400	
7010	0	22536	
7011	0	22656	
7012	0	22812	
7013	0	22944	
7014	0	23088	
7015	0	23208	
7016	0	23288	
7017	0	23348	
7018	0	23388	
7019	0	23470	
7020	0	23594	
7021	0	23664	
7022	0	23644	
7023	0	23608	
7024	0	23596	
7025	0	23666	
7026	0	23796	
7027	0	23936	
7028	0	24026	
7029	0	24148	
7030	0	24268	
7031	0	24356	
7032	0	24452	
7033	0	24576	
7034	0	24732	
7035	0	24872	
7036	0	25000	
7037	0	25104	
7038	0	25172	
7039	0	25250	
7040	0	25370	
7041	0	25472	
7042	0	25568	
7043	0	25698	
7044	0	25806	
7045	0	25900	
7046	0	25940	
7047	0	25940	
7048	0	25964	
7049	0	25992	
7050	0	26076	
7051	0	26200	
7052	0	26294	
7053	0	26408	
7054	0	26540	
7055	0	26620	
7056	0	26700	
7057	0	26792	
7058	0	26864	
7059	0	26924	
7060	0	26972	
7061	0	27028	
7062	0	27056	
7063	0	27068	
7064	0	27080	
7065	0	27088	
7066	0	27124	
7067	0	27168	
7068	0	27246	
7069	0	27394	
7070	0	27556	
7071	0	27714	
7072	0	27850	
7073	0	27992	
7074	0	28188	
7075	0	28368	
7076	0	28500	
7077	0	28564	
7078	0	28604	
7079	0	28682	
7080	0	28724	
7081	0	28720	
7082	0	28736	
7083	0	28780	
7084	0	28874	
7085	0	28996	
7086	0	29132	
7087	0	29284	
7088	0	29436	
7089	0	29656	
7090	0	29864	
7091	0	30080	
7092	0	30288	
7093	0	30472	
7094	0	30538	
7095	0	30568	
7096	0	30672	
7097	0	30820	
7098	0	30960	
7099	0	31080	
7100	0	31128	
7101	0	31168	
7102	0	31280	
7103	0	31380	
7104	0	31504	
7105	0	31600	
7106	0	31672	
7107	0	31762	
7108	0	31800	
7109	0	31848	
7110	0	31888	
7111	0	31948	
7112	0	32060	
7113	0	32192	
7114	0	32360	
7115	0	32556	
7116	0	32740	
7117	0	32904	
7118	0	33044	
7119	0	33208	
7120	0	33356	
7121	0	33472	
7122	0	33548	
7123	0	33564	
7124	0	33576	
7125	0	33624	
7126	0	33700	
7127	0	33816	
7128	0	33952	
7129	0	34064	
7130	0	34184	
7131	0	34312	
7132	0	34404	
7133	0	34416	
7134	0	34400	
7135	0	34352	
7136	0	34272	
7137	0	34240	
7138	0	34240	
7139	0	34240	
7140	0	34304	
7141	0	34356	
7142	0	34304	
7143	0	34272	
7144	0	34244	
7145	0	34216	
7146	0	34240	
7147	0	34276	
7148	0	34324	
7149	0	34408	
7150	0	34540	
7151	0	34656	
7152	0	34720	
7153	0	34732	
7154	0	34708	
7155	0	34676	
7156	0	34692	
7157	0	34664	
7158	0	34652	
7159	0	34636	
7160	0	34634	
7161	0	34640	
7162	0	34644	
7163	0	34600	
7164	0	34512	
7165	0	34440	
7166	0	34456	
7167	0	34456	
7168	0	34432	
7169	0	34360	
7170	0	34240	
7171	0	34140	
7172	0	34076	
7173	0	33984	
7174	0	33844	
7175	0	33728	
7176	0	33644	
7177	0	33538	
7178	0	33396	
7179	0	33268	
7180	0	33172	
7181	0	33016	
7182	0	32840	
7183	0	32714	
7184	0	32556	
7185	0	32392	
7186	0	32282	
7187	0	32224	
7188	0	32216	
7189	0	32208	
7190	0	32184	
7191	0	32136	
7192	0	32128	
7193	0	32116	
7194	0	32114	
7195	0	32066	
7196	0	32002	
7197	0	31912	
7198	0	31808	
7199	0	31700	
7200	0	31664	
7201	0	31652	
7202	0	31696	
7203	0	31712	
7204	0	31644	
7205	0	31572	
7206	0	31512	
7207	0	31444	
7208	0	31340	
7209	0	31204	
7210	0	31052	
7211	0	30844	
7212	0	30682	
7213	0	30580	
7214	0	30456	
7215	0	30420	
7216	0	30496	
7217	0	30700	
7218	0	30954	
7219	0	31172	
7220	0	31314	
7221	0	31388	
7222	0	31352	
7223	0	31284	
7224	0	31224	
7225	0	31232	
7226	0	31236	
7227	0	31196	
7228	0	31136	
7229	0	31114	
7230	0	31160	
7231	0	31204	
7232	0	31266	
7233	0	31320	
7234	0	31272	
7235	0	31212	
7236	0	31128	
7237	0	31036	
7238	0	30964	
7239	0	30944	
7240	0	30990	
7241	0	30976	
7242	0	30932	
7243	0	30920	
7244	0	30964	
7245	0	31112	
7246	0	31252	
7247	0	31368	
7248	0	31488	
7249	0	31584	
7250	0	31692	
7251	0	31804	
7252	0	31880	
7253	0	31916	
7254	0	31808	
7255	0	31632	
7256	0	31482	
7257	0	31340	
7258	0	31252	
7259	0	31276	
7260	0	31384	
7261	0	31568	
7262	0	31762	
7263	0	31936	
7264	0	32108	
7265	0	32212	
7266	0	32236	
7267	0	32216	
7268	0	32288	
7269	0	32424	
7270	0	32484	
7271	0	32496	
7272	0	32416	
7273	0	32388	
7274	0	32340	
7275	0	32284	
7276	0	32264	
7277	0	32280	
7278	0	32288	
7279	0	32336	
7280	0	32412	
7281	0	32508	
7282	0	32484	
7283	0	32460	
7284	0	32466	
7285	0	32416	
7286	0	32300	
7287	0	32264	
7288	0	32266	
7289	0	32312	
7290	0	32408	
7291	0	32512	
7292	0	32580	
7293	0	32628	
7294	0	32692	
7295	0	32776	
7296	0	32864	
7297	0	32908	
7298	0	32872	
7299	0	32864	
7300	0	32876	
7301	0	32916	
7302	0	32992	
7303	0	32988	
7304	0	32952	
7305	0	32920	
7306	0	32904	
7307	0	32902	
7308	0	32960	
7309	0	32972	
7310	0	32992	
7311	0	33060	
7312	0	33160	
7313	0	33276	
7314	0	33376	
7315	0	33444	
7316	0	33428	
7317	0	33336	
7318	0	33160	
7319	0	33000	
7320	0	32864	
7321	0	32800	
7322	0	32840	
7323	0	32916	
7324	0	32996	
7325	0	33072	
7326	0	33208	
7327	0	33336	
7328	0	33396	
7329	0	33388	
7330	0	33320	
7331	0	33200	
7332	0	33028	
7333	0	32908	
7334	0	32808	
7335	0	32668	
7336	0	32560	
7337	0	32524	
7338	0	32576	
7339	0	32608	
7340	0	32640	
7341	0	32650	
7342	0	32588	
7343	0	32544	
7344	0	32600	
7345	0	32784	
7346	0	32976	
7347	0	33096	
7348	0	33152	
7349	0	33236	
7350	0	33284	
7351	0	33268	
7352	0	33232	
7353	0	33256	
7354	0	33336	
7355	0	33392	
7356	0	33368	
7357	0	33240	
7358	0	33098	
7359	0	32992	
7360	0	32902	
7361	0	32780	
7362	0	32700	
7363	0	32716	
7364	0	32784	
7365	0	32836	
7366	0	32788	
7367	0	32668	
7368	0	32612	
7369	0	32648	
7370	0	32736	
7371	0	32912	
7372	0	33040	
7373	0	33052	
7374	0	33012	
7375	0	32968	
7376	0	32860	
7377	0	32764	
7378	0	32708	
7379	0	32680	
7380	0	32608	
7381	0	32520	
7382	0	32456	
7383	0	32458	
7384	0	32392	
7385	0	32390	
7386	0	32478	
7387	0	32626	
7388	0	32728	
7389	0	32716	
7390	0	32672	
7391	0	32672	
7392	0	32644	
7393	0	32676	
7394	0	32764	
7395	0	32800	
7396	0	32816	
7397	0	32832	
7398	0	32900	
7399	0	32920	
7400	0	32912	
7401	0	32848	
7402	0	32736	
7403	0	32586	
7404	0	32524	
7405	0	32588	
7406	0	32680	
7407	0	32720	
7408	0	32780	
7409	0	32836	
7410	0	32932	
7411	0	33128	
7412	0	33292	
7413	0	33424	
7414	0	33532	
7415	0	33632	
7416	0	33716	
7417	0	33778	
7418	0	33776	
7419	0	33772	
7420	0	33808	
7421	0	33880	
7422	0	33896	
7423	0	33914	
7424	0	34000	
7425	0	34148	
7426	0	34280	
7427	0	34348	
7428	0	34344	
7429	0	34340	
7430	0	34376	
7431	0	34496	
7432	0	34656	
7433	0	34756	
7434	0	34804	
7435	0	34936	
7436	0	35128	
7437	0	35396	
7438	0	35664	
7439	0	35804	
7440	0	35780	
7441	0	35716	
7442	0	35716	
7443	0	35724	
7444	0	35724	
7445	0	35800	
7446	0	35972	
7447	0	36148	
7448	0	36280	
7449	0	36480	
7450	0	36728	
7451	0	37004	
7452	0	37356	
7453	0	37576	
7454	0	37664	
7455	0	37580	
7456	0	37428	
7457	0	37220	
7458	0	37036	
7459	0	36924	
7460	0	36872	
7461	0	36848	
7462	0	36776	
7463	0	36602	
7464	0	36384	
7465	0	36180	
7466	0	36012	
7467	0	35844	
7468	0	35688	
7469	0	35500	
7470	0	35264	
7471	0	35004	
7472	0	34752	
7473	0	34460	
7474	0	34132	
7475	0	33824	
7476	0	33476	
7477	0	33148	
7478	0	32862	
7479	0	32648	
7480	0	32476	
7481	0	32332	
7482	0	32216	
7483	0	32172	
7484	0	32136	
7485	0	32100	
7486	0	32084	
7487	0	32096	
7488	0	32144	
7489	0	32112	
7490	0	31928	
7491	0	31668	
7492	0	31444	
7493	0	31310	
7494	0	31184	
7495	0	31116	
7496	0	31176	
7497	0	31272	
7498	0	31392	
7499	0	31504	
7500	0	31560	
7501	0	31516	
7502	0	31456	
7503	0	31484	
7504	0	31544	
7505	0	31556	
7506	0	31508	
7507	0	31416	
7508	0	31248	
7509	0	30980	
7510	0	30776	
7511	0	30740	
7512	0	30868	
7513	0	31116	
7514	0	31320	
7515	0	31418	
7516	0	31540	
7517	0	31692	
7518	0	31768	
7519	0	31786	
7520	0	31768	
7521	0	31700	
7522	0	31496	
7523	0	31188	
7524	0	30844	
7525	0	30532	
7526	0	30360	
7527	0	30388	
7528	0	30506	
7529	0	30656	
7530	0	30840	
7531	0	30952	
7532	0	30920	
7533	0	30768	
7534	0	30504	
7535	0	30236	
7536	0	29988	
7537	0	29768	
7538	0	29680	
7539	0	29804	
7540	0	30272	
7541	0	30960	
7542	0	31864	
7543	0	32904	
7544	0	34244	
7545	0	35812	
7546	0	37560	
7547	0	39768	
7548	0	42464	
7549	0	45632	
7550	0	48996	
7551	0	52744	
7552	0	56976	
7553	0	61200	
7554	0	63648	
7555	0	64968	
7556	0	65535	
7557	0	65535	
7558	0	65535	
7559	0	65535	
7560	0	65535	
7561	0	65535	
7562	0	65535	
7563	0	65535	
7564	0	65535	
7565	0	65428	
7566	0	65308	
7567	0	65176	
7568	0	65064	
7569	0	64928	
7570	0	64800	
7571	0	64672	
7572	0	64576	
7573	0	64448	
7574	0	64312	
7575	0	64192	
7576	0	64068	
7577	0	63956	
7578	0	63832	
7579	0	63704	
7580	0	60384	
7581	0	54736	
7582	0	49056	
7583	0	43728	
7584	0	39412	
7585	0	36104	
7586	0	33600	
7587	0	31692	
7588	0	30240	
7589	0	29048	
7590	0	27936	
7591	0	27016	
7592	0	26384	
7593	0	26008	
7594	0	25764	
7595	0	25548	
7596	0	25278	
7597	0	24916	
7598	0	24496	
7599	0	24076	
7600	0	23708	
7601	0	23432	
7602	0	23160	
7603	0	22832	
7604	0	22448	
7605	0	22076	
7606	0	21796	
7607	0	21680	
7608	0	21744	
7609	0	21872	
7610	0	21940	
7611	0	21944	
7612	0	21944	
7613	0	21872	
7614	0	21794	
7615	0	21668	
7616	0	21492	
7617	0	21360	
7618	0	21280	
7619	0	21216	
7620	0	21168	
7621	0	21218	
7622	0	21348	
7623	0	21506	
7624	0	21578	
7625	0	21504	
7626	0	21374	
7627	0	21248	
7628	0	21130	
7629	0	21044	
7630	0	21106	
7631	0	21296	
7632	0	21472	
7633	0	21532	
7634	0	21532	
7635	0	21608	
7636	0	21812	
7637	0	22076	
7638	0	22336	
7639	0	22508	
7640	0	22660	
7641	0	22712	
7642	0	22692	
7643	0	22704	
7644	0	22752	
7645	0	22749	
7646	0	22840	
7647	0	23020	
7648	0	23264	
7649	0	23504	
7650	0	23688	
7651	0	23764	
7652	0	23768	
7653	0	23716	
7654	0	23662	
7655	0	23652	
7656	0	23744	
7657	0	23944	
7658	0	24080	
7659	0	24256	
7660	0	24420	
7661	0	24544	
7662	0	24590	
7663	0	24640	
7664	0	24764	
7665	0	24912	
7666	0	25028	
7667	0	25120	
7668	0	25268	
7669	0	25496	
7670	0	25714	
7671	0	25906	
7672	0	26036	
7673	0	26064	
7674	0	25964	
7675	0	25764	
7676	0	25560	
7677	0	25380	
7678	0	25268	
7679	0	25360	
7680	0	25644	
7681	0	25996	
7682	0	26412	
7683	0	26856	
7684	0	27284	
7685	0	27548	
7686	0	27706	
7687	0	27760	
7688	0	27680	
7689	0	27608	
7690	0	27600	
7691	0	27684	
7692	0	27765	
7693	0	27824	
7694	0	27884	
7695	0	27950	
7696	0	28036	
7697	0	28036	
7698	0	27944	
7699	0	27753	
7700	0	27476	
7701	0	27352	
7702	0	27488	
7703	0	27808	
7704	0	28192	
7705	0	28496	
7706	0	28748	
7707	0	29032	
7708	0	29304	
7709	0	29588	
7710	0	29824	
7711	0	29952	
7712	0	30100	
7713	0	30264	
7714	0	30434	
7715	0	30552	
7716	0	30624	
7717	0	30616	
7718	0	30544	
7719	0	30400	
7720	0	30348	
7721	0	30328	
7722	0	30334	
7723	0	30280	
7724	0	30200	
7725	0	30264	
7726	0	30432	
7727	0	30690	
7728	0	30924	
7729	0	31152	
7730	0	31412	
7731	0	31656	
7732	0	31852	
7733	0	32016	
7734	0	32176	
7735	0	32316	
7736	0	32416	
7737	0	32584	
7738	0	32800	
7739	0	32984	
7740	0	33172	
7741	0	33316	
7742	0	33396	
7743	0	33376	
7744	0	33268	
7745	0	33212	
7746	0	33248	
7747	0	33314	
7748	0	33400	
7749	0	33488	
7750	0	33564	
7751	0	33620	
7752	0	33712	
7753	0	33810	
7754	0	33892	
7755	0	33940	
7756	0	33916	
7757	0	33808	
7758	0	33744	
7759	0	33768	
7760	0	33816	
7761	0	33840	
7762	0	33784	
7763	0	33754	
7764	0	33776	
7765	0	33808	
7766	0	33908	
7767	0	34040	
7768	0	34220	
7769	0	34320	
7770	0	34392	
7771	0	34472	
7772	0	34452	
7773	0	34288	
7774	0	34040	
7775	0	33876	
7776	0	33772	
7777	0	33732	
7778	0	33804	
7779	0	33920	
7780	0	34100	
7781	0	34256	
7782	0	34338	
7783	0	34360	
7784	0	34364	
7785	0	34300	
7786	0	34236	
7787	0	34106	
7788	0	33892	
7789	0	33680	
7790	0	33400	
7791	0	33056	
7792	0	32868	
7793	0	32922	
7794	0	33024	
7795	0	33132	
7796	0	33244	
7797	0	33408	
7798	0	33584	
7799	0	33732	
7800	0	33784	
7801	0	33688	
7802	0	33440	
7803	0	33164	
7804	0	32856	
7805	0	32572	
7806	0	32348	
7807	0	32192	
7808	0	32128	
7809	0	32092	
7810	0	32080	
7811	0	32052	
7812	0	31948	
7813	0	31748	
7814	0	31540	
7815	0	31392	
7816	0	31260	
7817	0	31132	
7818	0	31036	
7819	0	31056	
7820	0	31084	
7821	0	31176	
7822	0	31290	
7823	0	31384	
7824	0	31456	
7825	0	31460	
7826	0	31448	
7827	0	31404	
7828	0	31386	
7829	0	31368	
7830	0	31266	
7831	0	31198	
7832	0	31144	
7833	0	31010	
7834	0	30904	
7835	0	30888	
7836	0	30896	
7837	0	30832	
7838	0	30736	
7839	0	30592	
7840	0	30520	
7841	0	30492	
7842	0	30588	
7843	0	30700	
7844	0	30696	
7845	0	30580	
7846	0	30426	
7847	0	30294	
7848	0	30264	
7849	0	30308	
7850	0	30272	
7851	0	30292	
7852	0	30412	
7853	0	30548	
7854	0	30708	
7855	0	30888	
7856	0	31012	
7857	0	31120	
7858	0	31224	
7859	0	31288	
7860	0	31320	
7861	0	31392	
7862	0	31456	
7863	0	31516	
7864	0	31546	
7865	0	31520	
7866	0	31460	
7867	0	31392	
7868	0	31310	
7869	0	31180	
7870	0	31076	
7871	0	31044	
7872	0	31048	
7873	0	31056	
7874	0	31088	
7875	0	31160	
7876	0	31264	
7877	0	31380	
7878	0	31442	
7879	0	31444	
7880	0	31392	
7881	0	31368	
7882	0	31344	
7883	0	31364	
7884	0	31420	
7885	0	31480	
7886	0	31732	
7887	0	31956	
7888	0	32080	
7889	0	32176	
7890	0	32160	
7891	0	32064	
7892	0	31972	
7893	0	31972	
7894	0	32016	
7895	0	32101	
7896	0	32160	
7897	0	32196	
7898	0	32220	
7899	0	32224	
7900	0	32224	
7901	0	32240	
7902	0	32324	
7903	0	32456	
7904	0	32568	
7905	0	32448	
7906	0	32178	
7907	0	31932	
7908	0	31812	
7909	0	31852	
7910	0	32004	
7911	0	32232	
7912	0	32520	
7913	0	32856	
7914	0	33154	
7915	0	33328	
7916	0	33364	
7917	0	33312	
7918	0	33256	
7919	0	33120	
7920	0	32872	
7921	0	32588	
7922	0	32416	
7923	0	32448	
7924	0	32628	
7925	0	32848	
7926	0	33044	
7927	0	33184	
7928	0	33312	
7929	0	33408	
7930	0	33388	
7931	0	33316	
7932	0	33228	
7933	0	33152	
7934	0	33104	
7935	0	33010	
7936	0	32908	
7937	0	32828	
7938	0	32758	
7939	0	32720	
7940	0	32724	
7941	0	32756	
7942	0	32772	
7943	0	32804	
7944	0	32824	
7945	0	32920	
7946	0	33000	
7947	0	33096	
7948	0	33188	
7949	0	33258	
7950	0	33368	
7951	0	33440	
7952	0	33512	
7953	0	33532	
7954	0	33524	
7955	0	33484	
7956	0	33436	
7957	0	33408	
7958	0	33396	
7959	0	33336	
7960	0	33252	
7961	0	33212	
7962	0	33164	
7963	0	33084	
7964	0	33008	
7965	0	32938	
7966	0	32858	
7967	0	32792	
7968	0	32808	
7969	0	32916	
7970	0	33044	
7971	0	33148	
7972	0	33180	
7973	0	33190	
7974	0	33216	
7975	0	33240	
7976	0	33232	
7977	0	33168	
7978	0	33012	
7979	0	32832	
7980	0	32740	
7981	0	32704	
7982	0	32704	
7983	0	32744	
7984	0	32864	
7985	0	33004	
7986	0	33060	
7987	0	33016	
7988	0	32968	
7989	0	32984	
7990	0	33096	
7991	0	33160	
7992	0	33164	
7993	0	33152	
7994	0	33136	
7995	0	33060	
7996	0	32972	
7997	0	32820	
7998	0	32672	
7999	0	32610	
8000	0	32528	
8001	0	32500	
8002	0	32496	
8003	0	32542	
8004	0	32620	
8005	0	32672	
8006	0	32792	
8007	0	32956	
8008	0	33126	
8009	0	33204	
8010	0	33164	
8011	0	32994	
8012	0	32900	
8013	0	32864	
8014	0	32860	
8015	0	32848	
8016	0	32856	
8017	0	32904	
8018	0	32992	
8019	0	33104	
8020	0	33300	
8021	0	33456	
8022	0	33572	
8023	0	33708	
8024	0	33816	
8025	0	33920	
8026	0	33986	
8027	0	33924	
8028	0	33800	
8029	0	33620	
8030	0	33484	
8031	0	33416	
8032	0	33396	
8033	0	33328	
8034	0	33244	
8035	0	33228	
8036	0	33352	
8037	0	33592	
8038	0	33866	
8039	0	34076	
8040	0	34248	
8041	0	34412	
8042	0	34622	
8043	0	34932	
8044	0	35352	
8045	0	35820	
8046	0	36236	
8047	0	36500	
8048	0	36608	
8049	0	36572	
8050	0	36584	
8051	0	36572	
8052	0	36512	
8053	0	36548	
8054	0	36704	
8055	0	36824	
8056	0	36880	
8057	0	36948	
8058	0	37076	
8059	0	37172	
8060	0	37144	
8061	0	37004	
8062	0	36820	
8063	0	36688	
8064	0	36586	
8065	0	36460	
8066	0	36352	
8067	0	36260	
8068	0	36208	
8069	0	36248	
8070	0	36316	
8071	0	36392	
8072	0	36336	
8073	0	36208	
8074	0	36018	
8075	0	35808	
8076	0	35596	
8077	0	35348	
8078	0	35008	
8079	0	34672	
8080	0	34408	
8081	0	34136	
8082	0	33848	
8083	0	33512	
8084	0	33144	
8085	0	32868	
8086	0	32676	
8087	0	32512	
8088	0	32344	
8089	0	32228	
8090	0	32028	
8091	0	31816	
8092	0	31672	
8093	0	31572	
8094	0	31532	
8095	0	31596	
8096	0	31628	
8097	0	31580	
8098	0	31536	
8099	0	31500	
8100	0	31412	
8101	0	31328	
8102	0	31328	
8103	0	31444	
8104	0	31548	
8105	0	31502	
8106	0	31392	
8107	0	31328	
8108	0	31368	
8109	0	31456	
8110	0	31544	
8111	0	31680	
8112	0	31800	
8113	0	31840	
8114	0	31832	
8115	0	31812	
8116	0	31748	
8117	0	31672	
8118	0	31556	
8119	0	31416	
8120	0	31332	
8121	0	31332	
8122	0	31324	
8123	0	31336	
8124	0	31296	
8125	0	31220	
8126	0	31184	
8127	0	31176	
8128	0	31224	
8129	0	31340	
8130	0	31484	
8131	0	31532	
8132	0	31464	
8133	0	31360	
8134	0	31252	
8135	0	31136	
8136	0	31024	
8137	0	30928	
8138	0	30824	
8139	0	30648	
8140	0	30476	
8141	0	30280	
8142	0	30136	
8143	0	30112	
8144	0	30256	
8145	0	30552	
8146	0	31016	
8147	0	31700	
8148	0	32560	
8149	0	33644	
8150	0	35088	
8151	0	36720	
8152	0	38650	
8153	0	41032	
8154	0	43832	
8155	0	46952	
8156	0	50336	
8157	0	54188	
8158	0	58448	
8159	0	62192	
8160	0	64252	
8161	0	65328	
8162	0	65535	
8163	0	65535	
8164	0	65535	
8165	0	65535	
8166	0	65535	
8167	0	65535	
8168	0	65535	
8169	0	65535	
8170	0	65535	
8171	0	65535	
8172	0	65376	
8173	0	65252	
8174	0	65120	
8175	0	64996	
8176	0	64868	
8177	0	64752	
8178	0	64632	
8179	0	64490	
8180	0	64384	
8181	0	64256	
8182	0	64136	
8183	0	64008	
8184	0	63896	
8185	0	63772	
8186	0	59732	
8187	0	53952	
8188	0	48160	
8189	0	42944	
8190	0	38784	
8191	0	35536	
8192	0	32996	
8193	0	31082	
8194	0	29628	
8195	0	28484	
8196	0	27616	
8197	0	27052	
8198	0	26702	
8199	0	26368	
8200	0	26016	
8201	0	25648	
8202	0	25220	
8203	0	24760	
8204	0	24308	
8205	0	23896	
8206	0	23532	
8207	0	23208	
8208	0	22988	
8209	0	22800	
8210	0	22652	
8211	0	22464	
8212	0	22256	
8213	0	22080	
8214	0	21964	
8215	0	21890	
8216	0	21796	
8217	0	21668	
8218	0	21564	
8219	0	21488	
8220	0	21472	
8221	0	21448	
8222	0	21404	
8223	0	21292	
8224	0	21168	
8225	0	21040	
8226	0	20960	
8227	0	20906	
8228	0	20880	
8229	0	20930	
8230	0	21064	
8231	0	21240	
8232	0	21408	
8233	0	21568	
8234	0	21696	
8235	0	21876	
8236	0	22044	
8237	0	22200	
8238	0	22308	
8239	0	22368	
8240	0	22400	
8241	0	22400	
8242	0	22378	
8243	0	22388	
8244	0	22452	
8245	0	22564	
8246	0	22662	
8247	0	22744	
8248	0	22874	
8249	0	22984	
8250	0	23112	
8251	0	23216	
8252	0	23256	
8253	0	23268	
8254	0	23308	
8255	0	23344	
8256	0	23392	
8257	0	23508	
8258	0	23648	
8259	0	23824	
8260	0	23988	
8261	0	24120	
8262	0	24228	
8263	0	24320	
8264	0	24416	
8265	0	24532	
8266	0	24614	
8267	0	24688	
8268	0	24696	
8269	0	24672	
8270	0	24712	
8271	0	24788	
8272	0	24940	
8273	0	25144	
8274	0	25360	
8275	0	25580	
8276	0	25768	
8277	0	25960	
8278	0	26156	
8279	0	26320	
8280	0	26464	
8281	0	26576	
8282	0	26588	
8283	0	26509	
8284	0	26412	
8285	0	26336	
8286	0	26336	
8287	0	26384	
8288	0	26480	
8289	0	26668	
8290	0	26868	
8291	0	27016	
8292	0	27160	
8293	0	27308	
8294	0	27448	
8295	0	27524	
8296	0	27536	
8297	0	27512	
8298	0	27504	
8299	0	27490	
8300	0	27528	
8301	0	27660	
8302	0	27800	
8303	0	27960	
8304	0	28140	
8305	0	28296	
8306	0	28432	
8307	0	28552	
8308	0	28664	
8309	0	28788	
8310	0	28872	
8311	0	28976	
8312	0	29052	
8313	0	29040	
8314	0	29072	
8315	0	29120	
8316	0	29184	
8317	0	29264	
8318	0	29400	
8319	0	29512	
8320	0	29552	
8321	0	29600	
8322	0	29648	
8323	0	29720	
8324	0	29836	
8325	0	30024	
8326	0	30214	
8327	0	30372	
8328	0	30536	
8329	0	30692	
8330	0	30904	
8331	0	31100	
8332	0	31232	
8333	0	31324	
8334	0	31428	
8335	0	31568	
8336	0	31732	
8337	0	31880	
8338	0	32016	
8339	0	32168	
8340	0	32324	
8341	0	32464	
8342	0	32594	
8343	0	32676	
8344	0	32784	
8345	0	32908	
8346	0	33032	
8347	0	33124	
8348	0	33164	
8349	0	33140	
8350	0	33100	
8351	0	33052	
8352	0	32940	
8353	0	32984	
8354	0	33112	
8355	0	33284	
8356	0	33468	
8357	0	33628	
8358	0	33744	
8359	0	33828	
8360	0	33904	
8361	0	33940	
8362	0	33932	
8363	0	33888	
8364	0	33856	
8365	0	33808	
8366	0	33748	
8367	0	33696	
8368	0	33740	
8369	0	33908	
8370	0	34020	
8371	0	34056	
8372	0	34094	
8373	0	34098	
8374	0	34084	
8375	0	34112	
8376	0	34180	
8377	0	34260	
8378	0	34368	
8379	0	34456	
8380	0	34440	
8381	0	34372	
8382	0	34272	
8383	0	34162	
8384	0	34068	
8385	0	34052	
8386	0	34104	
8387	0	34144	
8388	0	34148	
8389	0	34196	
8390	0	34248	
8391	0	34244	
8392	0	34212	
8393	0	34200	
8394	0	34208	
8395	0	34152	
8396	0	34084	
8397	0	34000	
8398	0	33912	
8399	0	33868	
8400	0	33792	
8401	0	33716	
8402	0	33608	
8403	0	33504	
8404	0	33444	
8405	0	33376	
8406	0	33304	
8407	0	33180	
8408	0	32984	
8409	0	32784	
8410	0	32652	
8411	0	32576	
8412	0	32568	
8413	0	32504	
8414	0	32408	
8415	0	32260	
8416	0	32116	
8417	0	32032	
8418	0	31936	
8419	0	31824	
8420	0	31724	
8421	0	31624	
8422	0	31624	
8423	0	31652	
8424	0	31688	
8425	0	31704	
8426	0	31736	
8427	0	31708	
8428	0	31650	
8429	0	31576	
8430	0	31504	
8431	0	31444	
8432	0	31376	
8433	0	31328	
8434	0	31288	
8435	0	31236	
8436	0	31224	
8437	0	31228	
8438	0	31244	
8439	0	31258	
8440	0	31226	
8441	0	31172	
8442	0	31148	
8443	0	31108	
8444	0	31032	
8445	0	30988	
8446	0	30900	
8447	0	30818	
8448	0	30720	
8449	0	30664	
8450	0	30600	
8451	0	30592	
8452	0	30604	
8453	0	30656	
8454	0	30744	
8455	0	30784	
8456	0	30828	
8457	0	30896	
8458	0	30968	
8459	0	31024	
8460	0	31040	
8461	0	31032	
8462	0	31064	
8463	0	31204	
8464	0	31364	
8465	0	31456	
8466	0	31476	
8467	0	31472	
8468	0	31448	
8469	0	31416	
8470	0	31368	
8471	0	31332	
8472	0	31312	
8473	0	31332	
8474	0	31384	
8475	0	31400	
8476	0	31408	
8477	0	31472	
8478	0	31532	
8479	0	31552	
8480	0	31560	
8481	0	31600	
8482	0	31648	
8483	0	31620	
8484	0	31600	
8485	0	31512	
8486	0	31496	
8487	0	31572	
8488	0	31676	
8489	0	31780	
8490	0	31904	
8491	0	32016	
8492	0	32116	
8493	0	32216	
8494	0	32248	
8495	0	32268	
8496	0	32242	
8497	0	32300	
8498	0	32352	
8499	0	32384	
8500	0	32380	
8501	0	32396	
8502	0	32412	
8503	0	32436	
8504	0	32488	
8505	0	32524	
8506	0	32548	
8507	0	32576	
8508	0	32616	
8509	0	32660	
8510	0	32688	
8511	0	32688	
8512	0	32712	
8513	0	32766	
8514	0	32812	
8515	0	32836	
8516	0	32796	
8517	0	32748	
8518	0	32752	
8519	0	32764	
8520	0	32810	
8521	0	32836	
8522	0	32864	
8523	0	32876	
8524	0	32920	
8525	0	32980	
8526	0	33012	
8527	0	33052	
8528	0	33068	
8529	0	33060	
8530	0	33024	
8531	0	33005	
8532	0	32988	
8533	0	32932	
8534	0	32898	
8535	0	32948	
8536	0	33012	
8537	0	33076	
8538	0	33128	
8539	0	33204	
8540	0	33264	
8541	0	33326	
8542	0	33336	
8543	0	33264	
8544	0	33152	
8545	0	33052	
8546	0	32988	
8547	0	32992	
8548	0	33040	
8549	0	33114	
8550	0	33152	
8551	0	33188	
8552	0	33192	
8553	0	33196	
8554	0	33204	
8555	0	33220	
8556	0	33212	
8557	0	33240	
8558	0	33256	
8559	0	33260	
8560	0	33236	
8561	0	33232	
8562	0	33216	
8563	0	33204	
8564	0	33188	
8565	0	33168	
8566	0	33152	
8567	0	33188	
8568	0	33244	
8569	0	33232	
8570	0	33236	
8571	0	33224	
8572	0	33182	
8573	0	33164	
8574	0	33168	
8575	0	33192	
8576	0	33204	
8577	0	33228	
8578	0	33236	
8579	0	33216	
8580	0	33176	
8581	0	33108	
8582	0	33044	
8583	0	32972	
8584	0	32948	
8585	0	32900	
8586	0	32888	
8587	0	32882	
8588	0	32900	
8589	0	32896	
8590	0	32892	
8591	0	32876	
