# OpenSignals Text File Format. Version 1
# {"00:07:80:4B:15:F7": {"position": 0, "device": "biosignalsplux", "device name": "00:07:80:4B:15:F7", "device connection": "BTH00:07:80:4B:15:F7", "sampling rate": 1000, "resolution": [16], "firmware version": 775, "comments": "", "keywords": "", "mode": 0, "sync interval": 2, "date": "2023-4-12", "time": "14:24:11.131", "channels": [1], "sensor": ["ECG"], "label": ["CH1"], "column": ["nSeq", "DI", "CH1"], "special": [{"SpO2": [80, 40, 5, 4, 3, 3]}, {"SpO2": [80, 40, 5, 4, 3, 3]}, {"SpO2": [80, 40, 5, 4, 3, 3]}, {"SpO2": [80, 40, 5, 4, 3, 3]}, {"SpO2": [80, 40, 5, 4, 3, 3]}, {"SpO2": [80, 40, 5, 4, 3, 3]}, {"SpO2": [80, 40, 5, 4, 3, 3]}, {"SpO2": [80, 40, 5, 4, 3, 3]}], "digital IO": [0, 1], "sleeve color": ["green"], "convertedValues": 0}}
# EndOfHeader
0	0	57896	
1	0	60312	
2	0	62464	
3	0	63660	
4	0	64256	
5	0	64512	
6	0	64608	
7	0	64596	
8	0	64528	
9	0	64440	
10	0	64324	
11	0	63960	
12	0	59232	
13	0	54964	
14	0	50680	
15	0	46268	
16	0	41964	
17	0	38116	
18	0	34736	
19	0	31872	
20	0	29520	
21	0	27776	
22	0	26544	
23	0	25754	
24	0	25144	
25	0	24624	
26	0	24228	
27	0	23856	
28	0	23580	
29	0	23480	
30	0	23496	
31	0	23664	
32	0	23920	
33	0	24152	
34	0	24354	
35	0	24688	
36	0	25080	
37	0	25544	
38	0	26108	
39	0	26848	
40	0	27674	
41	0	28360	
42	0	28980	
43	0	29504	
44	0	29848	
45	0	30024	
46	0	30100	
47	0	30240	
48	0	30496	
49	0	30720	
50	0	30862	
51	0	30920	
52	0	30926	
53	0	30912	
54	0	30904	
55	0	30796	
56	0	30590	
57	0	30448	
58	0	30290	
59	0	30004	
60	0	29772	
61	0	29552	
62	0	29380	
63	0	29512	
64	0	29888	
65	0	30204	
66	0	30440	
67	0	30606	
68	0	30692	
69	0	30840	
70	0	30924	
71	0	30972	
72	0	31092	
73	0	31208	
74	0	31200	
75	0	31064	
76	0	30968	
77	0	30932	
78	0	31004	
79	0	31194	
80	0	31344	
81	0	31272	
82	0	31180	
83	0	31096	
84	0	31016	
85	0	30976	
86	0	30956	
87	0	30864	
88	0	30768	
89	0	30752	
90	0	31024	
91	0	31456	
92	0	31752	
93	0	31988	
94	0	32152	
95	0	32172	
96	0	32184	
97	0	32172	
98	0	32196	
99	0	32240	
100	0	32204	
101	0	32128	
102	0	32072	
103	0	32016	
104	0	31944	
105	0	31920	
106	0	31978	
107	0	32116	
108	0	32296	
109	0	32480	
110	0	32552	
111	0	32580	
112	0	32584	
113	0	32592	
114	0	32584	
115	0	32512	
116	0	32476	
117	0	32440	
118	0	32352	
119	0	32272	
120	0	32260	
121	0	32312	
122	0	32356	
123	0	32400	
124	0	32404	
125	0	32320	
126	0	32248	
127	0	32202	
128	0	32224	
129	0	32318	
130	0	32472	
131	0	32596	
132	0	32736	
133	0	32852	
134	0	32868	
135	0	32768	
136	0	32688	
137	0	32628	
138	0	32472	
139	0	32272	
140	0	32280	
141	0	32428	
142	0	32652	
143	0	32840	
144	0	32932	
145	0	32984	
146	0	33000	
147	0	33164	
148	0	33388	
149	0	33568	
150	0	33656	
151	0	33688	
152	0	33656	
153	0	33512	
154	0	33384	
155	0	33312	
156	0	33272	
157	0	33306	
158	0	33316	
159	0	33248	
160	0	33214	
161	0	33120	
162	0	32992	
163	0	33052	
164	0	33242	
165	0	33466	
166	0	33692	
167	0	33826	
168	0	33972	
169	0	34060	
170	0	34112	
171	0	34192	
172	0	34448	
173	0	34768	
174	0	34984	
175	0	35052	
176	0	35000	
177	0	34884	
178	0	34768	
179	0	34712	
180	0	34672	
181	0	34700	
182	0	34796	
183	0	34908	
184	0	34948	
185	0	34944	
186	0	34888	
187	0	34772	
188	0	34592	
189	0	34404	
190	0	34256	
191	0	34168	
192	0	34264	
193	0	34570	
194	0	34964	
195	0	35272	
196	0	35424	
197	0	35584	
198	0	35796	
199	0	36080	
200	0	36320	
201	0	36448	
202	0	36504	
203	0	36544	
204	0	36516	
205	0	36588	
206	0	36748	
207	0	36832	
208	0	36792	
209	0	36716	
210	0	36544	
211	0	36416	
212	0	36436	
213	0	36452	
214	0	36456	
215	0	36568	
216	0	36736	
217	0	36836	
218	0	36880	
219	0	36976	
220	0	37064	
221	0	37124	
222	0	37216	
223	0	37300	
224	0	37388	
225	0	37408	
226	0	37432	
227	0	37440	
228	0	37428	
229	0	37484	
230	0	37494	
231	0	37396	
232	0	37284	
233	0	37240	
234	0	37248	
235	0	37308	
236	0	37452	
237	0	37644	
238	0	37800	
239	0	37820	
240	0	37744	
241	0	37696	
242	0	37768	
243	0	37884	
244	0	37972	
245	0	38024	
246	0	38068	
247	0	38096	
248	0	38130	
249	0	38116	
250	0	38040	
251	0	37904	
252	0	37788	
253	0	37768	
254	0	37776	
255	0	37708	
256	0	37608	
257	0	37588	
258	0	37600	
259	0	37544	
260	0	37268	
261	0	36920	
262	0	36632	
263	0	36352	
264	0	36188	
265	0	36108	
266	0	36088	
267	0	36056	
268	0	36056	
269	0	36032	
270	0	35984	
271	0	36020	
272	0	36076	
273	0	36152	
274	0	36116	
275	0	35904	
276	0	35600	
277	0	35276	
278	0	34946	
279	0	34644	
280	0	34372	
281	0	34192	
282	0	34036	
283	0	33948	
284	0	33840	
285	0	33602	
286	0	33296	
287	0	33012	
288	0	32864	
289	0	32812	
290	0	32748	
291	0	32602	
292	0	32360	
293	0	32096	
294	0	31948	
295	0	31948	
296	0	31872	
297	0	31748	
298	0	31564	
299	0	31330	
300	0	31082	
301	0	30836	
302	0	30656	
303	0	30580	
304	0	30544	
305	0	30480	
306	0	30368	
307	0	30242	
308	0	30036	
309	0	29676	
310	0	29252	
311	0	28800	
312	0	28416	
313	0	28296	
314	0	28408	
315	0	28544	
316	0	28520	
317	0	28348	
318	0	28200	
319	0	28060	
320	0	27844	
321	0	27754	
322	0	27890	
323	0	28128	
324	0	28304	
325	0	28360	
326	0	28336	
327	0	28364	
328	0	28432	
329	0	28558	
330	0	28728	
331	0	28912	
332	0	29020	
333	0	29008	
334	0	28972	
335	0	28896	
336	0	28768	
337	0	28636	
338	0	28576	
339	0	28572	
340	0	28552	
341	0	28416	
342	0	28192	
343	0	27984	
344	0	27888	
345	0	27918	
346	0	27872	
347	0	27920	
348	0	28098	
349	0	28224	
350	0	28256	
351	0	28320	
352	0	28420	
353	0	28588	
354	0	28682	
355	0	28720	
356	0	28704	
357	0	28632	
358	0	28612	
359	0	28688	
360	0	28812	
361	0	28892	
362	0	28964	
363	0	29024	
364	0	29076	
365	0	29028	
366	0	28932	
367	0	28792	
368	0	28652	
369	0	28670	
370	0	28772	
371	0	28784	
372	0	28724	
373	0	28660	
374	0	28628	
375	0	28640	
376	0	28746	
377	0	28920	
378	0	28988	
379	0	28976	
380	0	28968	
381	0	28930	
382	0	28876	
383	0	28912	
384	0	29044	
385	0	29220	
386	0	29280	
387	0	29280	
388	0	29240	
389	0	29140	
390	0	29044	
391	0	28992	
392	0	28992	
393	0	29056	
394	0	29216	
395	0	29420	
396	0	29652	
397	0	29912	
398	0	30152	
399	0	30292	
400	0	30332	
401	0	30308	
402	0	30308	
403	0	30280	
404	0	30196	
405	0	30116	
406	0	30064	
407	0	29984	
408	0	29940	
409	0	29932	
410	0	29940	
411	0	30008	
412	0	30100	
413	0	30156	
414	0	30220	
415	0	30308	
416	0	30412	
417	0	30536	
418	0	30564	
419	0	30476	
420	0	30320	
421	0	30184	
422	0	30092	
423	0	30020	
424	0	30080	
425	0	30304	
426	0	30604	
427	0	30892	
428	0	31156	
429	0	31320	
430	0	31372	
431	0	31344	
432	0	31258	
433	0	31156	
434	0	31076	
435	0	30956	
436	0	30812	
437	0	30730	
438	0	30656	
439	0	30648	
440	0	30644	
441	0	30766	
442	0	30932	
443	0	31160	
444	0	31328	
445	0	31304	
446	0	31204	
447	0	31144	
448	0	31072	
449	0	31032	
450	0	31000	
451	0	30976	
452	0	30912	
453	0	30866	
454	0	30848	
455	0	30880	
456	0	30944	
457	0	31020	
458	0	31032	
459	0	31008	
460	0	31040	
461	0	31144	
462	0	31260	
463	0	31436	
464	0	31612	
465	0	31752	
466	0	31788	
467	0	31748	
468	0	31632	
469	0	31512	
470	0	31416	
471	0	31324	
472	0	31376	
473	0	31632	
474	0	31864	
475	0	31944	
476	0	31860	
477	0	31868	
478	0	31880	
479	0	31932	
480	0	31992	
481	0	32012	
482	0	32004	
483	0	32052	
484	0	32100	
485	0	32076	
486	0	32004	
487	0	31932	
488	0	31896	
489	0	31932	
490	0	31980	
491	0	31932	
492	0	31856	
493	0	31848	
494	0	31880	
495	0	31916	
496	0	31924	
497	0	31893	
498	0	31808	
499	0	31680	
500	0	31576	
501	0	31514	
502	0	31468	
503	0	31444	
504	0	31476	
505	0	31504	
506	0	31488	
507	0	31518	
508	0	31600	
509	0	31688	
510	0	31720	
511	0	31696	
512	0	31704	
513	0	31750	
514	0	31804	
515	0	31848	
516	0	31784	
517	0	31652	
518	0	31540	
519	0	31468	
520	0	31332	
521	0	31186	
522	0	31104	
523	0	31168	
524	0	31322	
525	0	31482	
526	0	31628	
527	0	31750	
528	0	31792	
529	0	31900	
530	0	32028	
531	0	32124	
532	0	32144	
533	0	32108	
534	0	32088	
535	0	32128	
536	0	32164	
537	0	32204	
538	0	32200	
539	0	32196	
540	0	32144	
541	0	32028	
542	0	31844	
543	0	31672	
544	0	31504	
545	0	31368	
546	0	31280	
547	0	31296	
548	0	31424	
549	0	31672	
550	0	31864	
551	0	31988	
552	0	32084	
553	0	32140	
554	0	32224	
555	0	32320	
556	0	32292	
557	0	32072	
558	0	31780	
559	0	31504	
560	0	31324	
561	0	31280	
562	0	31332	
563	0	31480	
564	0	31670	
565	0	31800	
566	0	31916	
567	0	32036	
568	0	32152	
569	0	32208	
570	0	32304	
571	0	32522	
572	0	32768	
573	0	32808	
574	0	32800	
575	0	32756	
576	0	32620	
577	0	32480	
578	0	32320	
579	0	32184	
580	0	32024	
581	0	31812	
582	0	31592	
583	0	31552	
584	0	31736	
585	0	32004	
586	0	32220	
587	0	32332	
588	0	32316	
589	0	32316	
590	0	32424	
591	0	32620	
592	0	32748	
593	0	32728	
594	0	32608	
595	0	32504	
596	0	32492	
597	0	32540	
598	0	32636	
599	0	32704	
600	0	32676	
601	0	32620	
602	0	32600	
603	0	32580	
604	0	32540	
605	0	32532	
606	0	32552	
607	0	32588	
608	0	32580	
609	0	32512	
610	0	32428	
611	0	32344	
612	0	32240	
613	0	32152	
614	0	32092	
615	0	32020	
616	0	32026	
617	0	32028	
618	0	32038	
619	0	32160	
620	0	32288	
621	0	32400	
622	0	32452	
623	0	32532	
624	0	32612	
625	0	32688	
626	0	32716	
627	0	32720	
628	0	32676	
629	0	32612	
630	0	32540	
631	0	32508	
632	0	32476	
633	0	32480	
634	0	32520	
635	0	32524	
636	0	32528	
637	0	32588	
638	0	32642	
639	0	32656	
640	0	32660	
641	0	32700	
642	0	32712	
643	0	32664	
644	0	32552	
645	0	32480	
646	0	32412	
647	0	32416	
648	0	32508	
649	0	32660	
650	0	32792	
651	0	32888	
652	0	32952	
653	0	32988	
654	0	33048	
655	0	33100	
656	0	33116	
657	0	33118	
658	0	33168	
659	0	33280	
660	0	33428	
661	0	33540	
662	0	33700	
663	0	33786	
664	0	33840	
665	0	33892	
666	0	34016	
667	0	34120	
668	0	34164	
669	0	34156	
670	0	34088	
671	0	34004	
672	0	33960	
673	0	33904	
674	0	33932	
675	0	34104	
676	0	34448	
677	0	34784	
678	0	35052	
679	0	35264	
680	0	35408	
681	0	35548	
682	0	35720	
683	0	35880	
684	0	35972	
685	0	35980	
686	0	35916	
687	0	35752	
688	0	35512	
689	0	35182	
690	0	34880	
691	0	34808	
692	0	34908	
693	0	34988	
694	0	35000	
695	0	35100	
696	0	35208	
697	0	35256	
698	0	35296	
699	0	35424	
700	0	35652	
701	0	35856	
702	0	35932	
703	0	35858	
704	0	35648	
705	0	35424	
706	0	35288	
707	0	35108	
708	0	34868	
709	0	34652	
710	0	34536	
711	0	34364	
712	0	34144	
713	0	33944	
714	0	33728	
715	0	33516	
716	0	33304	
717	0	33146	
718	0	32992	
719	0	32816	
720	0	32482	
721	0	32148	
722	0	31832	
723	0	31576	
724	0	31312	
725	0	31104	
726	0	31032	
727	0	31000	
728	0	31016	
729	0	31056	
730	0	31144	
731	0	31208	
732	0	31256	
733	0	31252	
734	0	31212	
735	0	31280	
736	0	31342	
737	0	31386	
738	0	31388	
739	0	31428	
740	0	31504	
741	0	31554	
742	0	31598	
743	0	31644	
744	0	31696	
745	0	31712	
746	0	31662	
747	0	31622	
748	0	31572	
749	0	31532	
750	0	31552	
751	0	31600	
752	0	31616	
753	0	31644	
754	0	31614	
755	0	31492	
756	0	31416	
757	0	31360	
758	0	31289	
759	0	31216	
760	0	31280	
761	0	31392	
762	0	31450	
763	0	31524	
764	0	31668	
765	0	31786	
766	0	31884	
767	0	31936	
768	0	32000	
769	0	32088	
770	0	32120	
771	0	32084	
772	0	32084	
773	0	32132	
774	0	32200	
775	0	32184	
776	0	32150	
777	0	32140	
778	0	32160	
779	0	32192	
780	0	32184	
781	0	32176	
782	0	32176	
783	0	32172	
784	0	32170	
785	0	32136	
786	0	32080	
787	0	32024	
788	0	31896	
789	0	31647	
790	0	31234	
791	0	30708	
792	0	30170	
793	0	29702	
794	0	29282	
795	0	28992	
796	0	28920	
797	0	29048	
798	0	29328	
799	0	29756	
800	0	30224	
801	0	30808	
802	0	31536	
803	0	32272	
804	0	33124	
805	0	34076	
806	0	35082	
807	0	36116	
808	0	37232	
809	0	38520	
810	0	39992	
811	0	41496	
812	0	43084	
813	0	44808	
814	0	46696	
815	0	48540	
816	0	50464	
817	0	52480	
818	0	54512	
819	0	56644	
820	0	58868	
821	0	61196	
822	0	62908	
823	0	63788	
824	0	64224	
825	0	64392	
826	0	64436	
827	0	64400	
828	0	64320	
829	0	64236	
830	0	64108	
831	0	60196	
832	0	56080	
833	0	51978	
834	0	47800	
835	0	43628	
836	0	39844	
837	0	36512	
838	0	33764	
839	0	31512	
840	0	29632	
841	0	28112	
842	0	26892	
843	0	26068	
844	0	25540	
845	0	25144	
846	0	24828	
847	0	24492	
848	0	24208	
849	0	23897	
850	0	23614	
851	0	23420	
852	0	23404	
853	0	23512	
854	0	23700	
855	0	24024	
856	0	24404	
857	0	24826	
858	0	25372	
859	0	26176	
860	0	27040	
861	0	27800	
862	0	28472	
863	0	29098	
864	0	29664	
865	0	29928	
866	0	29954	
867	0	29960	
868	0	30048	
869	0	30136	
870	0	30184	
871	0	30184	
872	0	30184	
873	0	30216	
874	0	30256	
875	0	30336	
876	0	30408	
877	0	30468	
878	0	30476	
879	0	30404	
880	0	30293	
881	0	30236	
882	0	30172	
883	0	30052	
884	0	29876	
885	0	29744	
886	0	29656	
887	0	29604	
888	0	29716	
889	0	29900	
890	0	30174	
891	0	30468	
892	0	30692	
893	0	30768	
894	0	30704	
895	0	30704	
896	0	30888	
897	0	31064	
898	0	31084	
899	0	31064	
900	0	31028	
901	0	31012	
902	0	31058	
903	0	31186	
904	0	31336	
905	0	31440	
906	0	31504	
907	0	31528	
908	0	31524	
909	0	31492	
910	0	31472	
911	0	31500	
912	0	31566	
913	0	31576	
914	0	31580	
915	0	31596	
916	0	31588	
917	0	31524	
918	0	31480	
919	0	31508	
920	0	31536	
921	0	31528	
922	0	31564	
923	0	31528	
924	0	31288	
925	0	31056	
926	0	31064	
927	0	31120	
928	0	31264	
929	0	31440	
930	0	31626	
931	0	31880	
932	0	32116	
933	0	32268	
934	0	32368	
935	0	32440	
936	0	32496	
937	0	32472	
938	0	32412	
939	0	32400	
940	0	32408	
941	0	32410	
942	0	32413	
943	0	32398	
944	0	32432	
945	0	32476	
946	0	32504	
947	0	32528	
948	0	32504	
949	0	32458	
950	0	32328	
951	0	32272	
952	0	32300	
953	0	32416	
954	0	32516	
955	0	32608	
956	0	32692	
957	0	32716	
958	0	32664	
959	0	32596	
960	0	32568	
961	0	32584	
962	0	32560	
963	0	32620	
964	0	32728	
965	0	32832	
966	0	32948	
967	0	33032	
968	0	33100	
969	0	33164	
970	0	33216	
971	0	33352	
972	0	33500	
973	0	33508	
974	0	33408	
975	0	33270	
976	0	33142	
977	0	33092	
978	0	33088	
979	0	33160	
980	0	33280	
981	0	33348	
982	0	33378	
983	0	33416	
984	0	33452	
985	0	33668	
986	0	33952	
987	0	34240	
988	0	34450	
989	0	34560	
990	0	34604	
991	0	34624	
992	0	34636	
993	0	34664	
994	0	34736	
995	0	34744	
996	0	34748	
997	0	34786	
998	0	34810	
999	0	34780	
1000	0	34736	
1001	0	34688	
1002	0	34628	
1003	0	34548	
1004	0	34488	
1005	0	34488	
1006	0	34604	
1007	0	34776	
1008	0	34908	
1009	0	34984	
1010	0	35004	
1011	0	35024	
1012	0	35096	
1013	0	35224	
1014	0	35296	
1015	0	35232	
1016	0	35096	
1017	0	34978	
1018	0	34952	
1019	0	35052	
1020	0	35316	
1021	0	35616	
1022	0	35870	
1023	0	36052	
1024	0	36148	
1025	0	36192	
1026	0	36224	
1027	0	36220	
1028	0	36228	
1029	0	36204	
1030	0	36144	
1031	0	36160	
1032	0	36220	
1033	0	36348	
1034	0	36466	
1035	0	36552	
1036	0	36622	
1037	0	36640	
1038	0	36656	
1039	0	36732	
1040	0	36776	
1041	0	36788	
1042	0	36832	
1043	0	36892	
1044	0	37012	
1045	0	37128	
1046	0	37192	
1047	0	37236	
1048	0	37146	
1049	0	37054	
1050	0	36990	
1051	0	36948	
1052	0	36872	
1053	0	36816	
1054	0	36792	
1055	0	36794	
1056	0	36824	
1057	0	36892	
1058	0	37020	
1059	0	37164	
1060	0	37260	
1061	0	37340	
1062	0	37502	
1063	0	37680	
1064	0	37840	
1065	0	37888	
1066	0	37824	
1067	0	37696	
1068	0	37584	
1069	0	37440	
1070	0	37228	
1071	0	36976	
1072	0	36820	
1073	0	36744	
1074	0	36716	
1075	0	36744	
1076	0	36804	
1077	0	36872	
1078	0	36920	
1079	0	36904	
1080	0	36720	
1081	0	36528	
1082	0	36416	
1083	0	36352	
1084	0	36386	
1085	0	36480	
1086	0	36578	
1087	0	36692	
1088	0	36736	
1089	0	36732	
1090	0	36576	
1091	0	36312	
1092	0	36136	
1093	0	35948	
1094	0	35708	
1095	0	35540	
1096	0	35432	
1097	0	35296	
1098	0	35108	
1099	0	34868	
1100	0	34592	
1101	0	34308	
1102	0	33988	
1103	0	33632	
1104	0	33360	
1105	0	33136	
1106	0	32960	
1107	0	32824	
1108	0	32672	
1109	0	32504	
1110	0	32384	
1111	0	32320	
1112	0	32158	
1113	0	31940	
1114	0	31802	
1115	0	31678	
1116	0	31584	
1117	0	31436	
1118	0	31232	
1119	0	31060	
1120	0	30906	
1121	0	30706	
1122	0	30444	
1123	0	30264	
1124	0	30124	
1125	0	30024	
1126	0	29924	
1127	0	29810	
1128	0	29686	
1129	0	29536	
1130	0	29400	
1131	0	29236	
1132	0	29028	
1133	0	28864	
1134	0	28828	
1135	0	28836	
1136	0	28868	
1137	0	28892	
1138	0	28836	
1139	0	28716	
1140	0	28614	
1141	0	28528	
1142	0	28560	
1143	0	28612	
1144	0	28592	
1145	0	28500	
1146	0	28440	
1147	0	28504	
1148	0	28696	
1149	0	28844	
1150	0	28832	
1151	0	28696	
1152	0	28596	
1153	0	28520	
1154	0	28380	
1155	0	28216	
1156	0	28124	
1157	0	28104	
1158	0	28124	
1159	0	28176	
1160	0	28140	
1161	0	28012	
1162	0	27924	
1163	0	27800	
1164	0	27848	
1165	0	28060	
1166	0	28302	
1167	0	28588	
1168	0	28892	
1169	0	29136	
1170	0	29296	
1171	0	29380	
1172	0	29392	
1173	0	29364	
1174	0	29348	
1175	0	29372	
1176	0	29388	
1177	0	29332	
1178	0	29232	
1179	0	29178	
1180	0	29176	
1181	0	29152	
1182	0	29080	
1183	0	29084	
1184	0	29024	
1185	0	29044	
1186	0	29056	
1187	0	29028	
1188	0	29024	
1189	0	28948	
1190	0	28828	
1191	0	28728	
1192	0	28636	
1193	0	28684	
1194	0	28776	
1195	0	28940	
1196	0	29068	
1197	0	29296	
1198	0	29562	
1199	0	29792	
1200	0	29940	
1201	0	29972	
1202	0	30016	
1203	0	30044	
1204	0	30106	
1205	0	30138	
1206	0	30116	
1207	0	30084	
1208	0	30034	
1209	0	29968	
1210	0	29936	
1211	0	29912	
1212	0	29936	
1213	0	29976	
1214	0	29984	
1215	0	29996	
1216	0	29984	
1217	0	29884	
1218	0	29856	
1219	0	29904	
1220	0	29892	
1221	0	29872	
1222	0	29904	
1223	0	29992	
1224	0	30208	
1225	0	30400	
1226	0	30476	
1227	0	30472	
1228	0	30490	
1229	0	30498	
1230	0	30540	
1231	0	30536	
1232	0	30532	
1233	0	30604	
1234	0	30716	
1235	0	30832	
1236	0	30872	
1237	0	30840	
1238	0	30792	
1239	0	30760	
1240	0	30824	
1241	0	30872	
1242	0	30868	
1243	0	30912	
1244	0	30936	
1245	0	30908	
1246	0	30884	
1247	0	30818	
1248	0	30676	
1249	0	30504	
1250	0	30404	
1251	0	30420	
1252	0	30586	
1253	0	30828	
1254	0	30960	
1255	0	31040	
1256	0	31120	
1257	0	31172	
1258	0	31216	
1259	0	31308	
1260	0	31336	
1261	0	31344	
1262	0	31344	
1263	0	31328	
1264	0	31240	
1265	0	31136	
1266	0	31000	
1267	0	30844	
1268	0	30728	
1269	0	30764	
1270	0	30896	
1271	0	31032	
1272	0	31210	
1273	0	31420	
1274	0	31636	
1275	0	31802	
1276	0	31832	
1277	0	31812	
1278	0	31856	
1279	0	31940	
1280	0	31976	
1281	0	32024	
1282	0	32028	
1283	0	31978	
1284	0	31884	
1285	0	31818	
1286	0	31824	
1287	0	31860	
1288	0	31818	
1289	0	31776	
1290	0	31800	
1291	0	31792	
1292	0	31750	
1293	0	31676	
1294	0	31620	
1295	0	31628	
1296	0	31680	
1297	0	31680	
1298	0	31680	
1299	0	31712	
1300	0	31810	
1301	0	31912	
1302	0	31924	
1303	0	31884	
1304	0	31756	
1305	0	31652	
1306	0	31604	
1307	0	31492	
1308	0	31376	
1309	0	31304	
1310	0	31240	
1311	0	31104	
1312	0	30950	
1313	0	30860	
1314	0	30784	
1315	0	30814	
1316	0	31000	
1317	0	31308	
1318	0	31608	
1319	0	31848	
1320	0	32032	
1321	0	32096	
1322	0	32092	
1323	0	32032	
1324	0	31972	
1325	0	31892	
1326	0	31792	
1327	0	31704	
1328	0	31684	
1329	0	31740	
1330	0	31888	
1331	0	32054	
1332	0	32098	
1333	0	32048	
1334	0	31960	
1335	0	31888	
1336	0	31820	
1337	0	31776	
1338	0	31732	
1339	0	31760	
1340	0	31820	
1341	0	31820	
1342	0	31800	
1343	0	31760	
1344	0	31672	
1345	0	31688	
1346	0	31840	
1347	0	31940	
1348	0	31904	
1349	0	31822	
1350	0	31832	
1351	0	31820	
1352	0	31760	
1353	0	31704	
1354	0	31632	
1355	0	31584	
1356	0	31508	
1357	0	31420	
1358	0	31384	
1359	0	31334	
1360	0	31266	
1361	0	31222	
1362	0	31240	
1363	0	31238	
1364	0	31160	
1365	0	31034	
1366	0	31004	
1367	0	31168	
1368	0	31324	
1369	0	31480	
1370	0	31700	
1371	0	31884	
1372	0	32016	
1373	0	32048	
1374	0	31976	
1375	0	31836	
1376	0	31764	
1377	0	31816	
1378	0	31968	
1379	0	32080	
1380	0	32116	
1381	0	32108	
1382	0	32064	
1383	0	32028	
1384	0	31952	
1385	0	31878	
1386	0	31884	
1387	0	31840	
1388	0	31828	
1389	0	31870	
1390	0	31904	
1391	0	31904	
1392	0	31908	
1393	0	31938	
1394	0	32040	
1395	0	32164	
1396	0	32244	
1397	0	32308	
1398	0	32424	
1399	0	32508	
1400	0	32568	
1401	0	32592	
1402	0	32600	
1403	0	32640	
1404	0	32700	
1405	0	32744	
1406	0	32780	
1407	0	32832	
1408	0	32844	
1409	0	32886	
1410	0	33000	
1411	0	33090	
1412	0	33196	
1413	0	33316	
1414	0	33452	
1415	0	33544	
1416	0	33612	
1417	0	33648	
1418	0	33712	
1419	0	33828	
1420	0	33948	
1421	0	34048	
1422	0	34216	
1423	0	34360	
1424	0	34472	
1425	0	34528	
1426	0	34564	
1427	0	34528	
1428	0	34568	
1429	0	34656	
1430	0	34746	
1431	0	34800	
1432	0	34728	
1433	0	34676	
1434	0	34670	
1435	0	34660	
1436	0	34676	
1437	0	34708	
1438	0	34826	
1439	0	35016	
1440	0	35080	
1441	0	35020	
1442	0	35012	
1443	0	35000	
1444	0	34940	
1445	0	34944	
1446	0	34968	
1447	0	34904	
1448	0	34724	
1449	0	34604	
1450	0	34496	
1451	0	34352	
1452	0	34156	
1453	0	33904	
1454	0	33616	
1455	0	33320	
1456	0	33048	
1457	0	32748	
1458	0	32458	
1459	0	32228	
1460	0	32052	
1461	0	31980	
1462	0	31876	
1463	0	31772	
1464	0	31648	
1465	0	31486	
1466	0	31304	
1467	0	31112	
1468	0	30992	
1469	0	30948	
1470	0	30924	
1471	0	30952	
1472	0	30988	
1473	0	31008	
1474	0	31020	
1475	0	31008	
1476	0	30944	
1477	0	30780	
1478	0	30640	
1479	0	30520	
1480	0	30420	
1481	0	30400	
1482	0	30448	
1483	0	30546	
1484	0	30584	
1485	0	30468	
1486	0	30332	
1487	0	30304	
1488	0	30396	
1489	0	30548	
1490	0	30712	
1491	0	30828	
1492	0	30888	
1493	0	31008	
1494	0	31180	
1495	0	31200	
1496	0	31200	
1497	0	31164	
1498	0	31160	
1499	0	31226	
1500	0	31184	
1501	0	31064	
1502	0	30916	
1503	0	30832	
1504	0	30832	
1505	0	30888	
1506	0	30960	
1507	0	31000	
1508	0	31024	
1509	0	31044	
1510	0	31044	
1511	0	30992	
1512	0	30976	
1513	0	30980	
1514	0	30958	
1515	0	30980	
1516	0	31080	
1517	0	31208	
1518	0	31344	
1519	0	31456	
1520	0	31580	
1521	0	31664	
1522	0	31680	
1523	0	31680	
1524	0	31754	
1525	0	31822	
1526	0	31860	
1527	0	31828	
1528	0	31728	
1529	0	31624	
1530	0	31524	
1531	0	31396	
1532	0	31340	
1533	0	31284	
1534	0	31176	
1535	0	31008	
1536	0	30762	
1537	0	30372	
1538	0	29848	
1539	0	29312	
1540	0	28980	
1541	0	28820	
1542	0	28800	
1543	0	28996	
1544	0	29372	
1545	0	29936	
1546	0	30688	
1547	0	31544	
1548	0	32424	
1549	0	33328	
1550	0	34096	
1551	0	34920	
1552	0	35896	
1553	0	37124	
1554	0	38616	
1555	0	40260	
1556	0	42004	
1557	0	43736	
1558	0	45584	
1559	0	47736	
1560	0	50040	
1561	0	52300	
1562	0	54536	
1563	0	56648	
1564	0	58792	
1565	0	60904	
1566	0	62740	
1567	0	63832	
1568	0	64384	
1569	0	64620	
1570	0	64700	
1571	0	64672	
1572	0	64612	
1573	0	64504	
1574	0	61072	
1575	0	57336	
1576	0	53864	
1577	0	50416	
1578	0	46708	
1579	0	42908	
1580	0	39512	
1581	0	36588	
1582	0	34216	
1583	0	32308	
1584	0	30808	
1585	0	29556	
1586	0	28348	
1587	0	27306	
1588	0	26496	
1589	0	25930	
1590	0	25474	
1591	0	25012	
1592	0	24512	
1593	0	24060	
1594	0	23724	
1595	0	23446	
1596	0	23253	
1597	0	23296	
1598	0	23424	
1599	0	23542	
1600	0	23714	
1601	0	24060	
1602	0	24608	
1603	0	25148	
1604	0	25582	
1605	0	26136	
1606	0	26856	
1607	0	27552	
1608	0	28128	
1609	0	28544	
1610	0	28830	
1611	0	29030	
1612	0	29192	
1613	0	29388	
1614	0	29520	
1615	0	29624	
1616	0	29728	
1617	0	29792	
1618	0	29816	
1619	0	29748	
1620	0	29664	
1621	0	29600	
1622	0	29648	
1623	0	29752	
1624	0	29888	
1625	0	30048	
1626	0	30140	
1627	0	30168	
1628	0	30144	
1629	0	30088	
1630	0	30080	
1631	0	30202	
1632	0	30260	
1633	0	30264	
1634	0	30278	
1635	0	30244	
1636	0	30144	
1637	0	30048	
1638	0	30064	
1639	0	30088	
1640	0	30116	
1641	0	30116	
1642	0	30152	
1643	0	30216	
1644	0	30288	
1645	0	30386	
1646	0	30526	
1647	0	30672	
1648	0	30768	
1649	0	30846	
1650	0	30968	
1651	0	31088	
1652	0	31100	
1653	0	31064	
1654	0	31016	
1655	0	31054	
1656	0	31128	
1657	0	31212	
1658	0	31264	
1659	0	31312	
1660	0	31360	
1661	0	31380	
1662	0	31348	
1663	0	31280	
1664	0	31232	
1665	0	31272	
1666	0	31300	
1667	0	31346	
1668	0	31388	
1669	0	31448	
1670	0	31476	
1671	0	31496	
1672	0	31552	
1673	0	31584	
1674	0	31584	
1675	0	31572	
1676	0	31512	
1677	0	31374	
1678	0	31392	
1679	0	31440	
1680	0	31456	
1681	0	31404	
1682	0	31364	
1683	0	31448	
1684	0	31604	
1685	0	31776	
1686	0	31826	
1687	0	31884	
1688	0	31984	
1689	0	32088	
1690	0	32208	
1691	0	32320	
1692	0	32364	
1693	0	32308	
1694	0	32296	
1695	0	32370	
1696	0	32480	
1697	0	32556	
1698	0	32564	
1699	0	32548	
1700	0	32520	
1701	0	32474	
1702	0	32506	
1703	0	32552	
1704	0	32492	
1705	0	32384	
1706	0	32300	
1707	0	32280	
1708	0	32272	
1709	0	32232	
1710	0	32168	
1711	0	32148	
1712	0	32244	
1713	0	32393	
1714	0	32504	
1715	0	32660	
1716	0	32904	
1717	0	33034	
1718	0	33084	
1719	0	33106	
1720	0	33152	
1721	0	33180	
1722	0	33232	
1723	0	33216	
1724	0	33172	
1725	0	33184	
1726	0	33228	
1727	0	33338	
1728	0	33498	
1729	0	33642	
1730	0	33628	
1731	0	33532	
1732	0	33360	
1733	0	33176	
1734	0	33028	
1735	0	33168	
1736	0	33468	
1737	0	33740	
1738	0	34008	
1739	0	34260	
1740	0	34478	
1741	0	34684	
1742	0	34856	
1743	0	34952	
1744	0	34976	
1745	0	35000	
1746	0	35036	
1747	0	35066	
1748	0	35068	
1749	0	34980	
1750	0	34956	
1751	0	34958	
1752	0	35012	
1753	0	35020	
1754	0	35044	
1755	0	35104	
1756	0	35136	
1757	0	35108	
1758	0	35120	
1759	0	35120	
1760	0	35156	
1761	0	35220	
1762	0	35352	
1763	0	35412	
1764	0	35432	
1765	0	35424	
1766	0	35428	
1767	0	35516	
1768	0	35536	
1769	0	35576	
1770	0	35668	
1771	0	35752	
1772	0	35752	
1773	0	35800	
1774	0	35984	
1775	0	36072	
1776	0	36064	
1777	0	36048	
1778	0	36076	
1779	0	36104	
1780	0	36088	
1781	0	36080	
1782	0	36072	
1783	0	36060	
1784	0	36064	
1785	0	36144	
1786	0	36256	
1787	0	36384	
1788	0	36444	
1789	0	36512	
1790	0	36572	
1791	0	36588	
1792	0	36588	
1793	0	36608	
1794	0	36588	
1795	0	36612	
1796	0	36620	
1797	0	36668	
1798	0	36684	
1799	0	36680	
1800	0	36684	
1801	0	36584	
1802	0	36520	
1803	0	36524	
1804	0	36568	
1805	0	36576	
1806	0	36568	
1807	0	36668	
1808	0	36850	
1809	0	37104	
1810	0	37264	
1811	0	37352	
1812	0	37424	
1813	0	37444	
1814	0	37356	
1815	0	37216	
1816	0	37076	
1817	0	36988	
1818	0	36908	
1819	0	36808	
1820	0	36784	
1821	0	36786	
1822	0	36784	
1823	0	36640	
1824	0	36496	
1825	0	36396	
1826	0	36254	
1827	0	35984	
1828	0	35740	
1829	0	35520	
1830	0	35284	
1831	0	35028	
1832	0	34874	
1833	0	34826	
1834	0	34840	
1835	0	34916	
1836	0	35080	
1837	0	35148	
1838	0	35080	
1839	0	35000	
1840	0	34896	
1841	0	34740	
1842	0	34568	
1843	0	34384	
1844	0	34144	
1845	0	33892	
1846	0	33668	
1847	0	33340	
1848	0	32992	
1849	0	32696	
1850	0	32520	
1851	0	32386	
1852	0	32176	
1853	0	31992	
1854	0	31848	
1855	0	31708	
1856	0	31544	
1857	0	31354	
1858	0	31172	
1859	0	30974	
1860	0	30844	
1861	0	30824	
1862	0	30812	
1863	0	30684	
1864	0	30484	
1865	0	30318	
1866	0	30220	
1867	0	30184	
1868	0	30116	
1869	0	30044	
1870	0	29994	
1871	0	29924	
1872	0	29872	
1873	0	29896	
1874	0	29944	
1875	0	29952	
1876	0	29808	
1877	0	29624	
1878	0	29520	
1879	0	29280	
1880	0	28992	
1881	0	28852	
1882	0	28788	
1883	0	28800	
1884	0	28892	
1885	0	29024	
1886	0	29156	
1887	0	29216	
1888	0	29260	
1889	0	29252	
1890	0	29226	
1891	0	29136	
1892	0	29124	
1893	0	29170	
1894	0	29068	
1895	0	29040	
1896	0	29096	
1897	0	29108	
1898	0	29104	
1899	0	29140	
1900	0	29144	
1901	0	29108	
1902	0	29072	
1903	0	29032	
1904	0	28908	
1905	0	28812	
1906	0	28792	
1907	0	28768	
1908	0	28724	
1909	0	28652	
1910	0	28556	
1911	0	28484	
1912	0	28446	
1913	0	28480	
1914	0	28616	
1915	0	28772	
1916	0	28936	
1917	0	29084	
1918	0	29138	
1919	0	29200	
1920	0	29260	
1921	0	29342	
1922	0	29456	
1923	0	29552	
1924	0	29576	
1925	0	29652	
1926	0	29702	
1927	0	29588	
1928	0	29424	
1929	0	29346	
1930	0	29352	
1931	0	29464	
1932	0	29620	
1933	0	29712	
1934	0	29696	
1935	0	29644	
1936	0	29588	
1937	0	29608	
1938	0	29688	
1939	0	29872	
1940	0	30084	
1941	0	30164	
1942	0	30208	
1943	0	30240	
1944	0	30236	
1945	0	30248	
1946	0	30264	
1947	0	30298	
1948	0	30264	
1949	0	30140	
1950	0	30044	
1951	0	30008	
1952	0	30048	
1953	0	30028	
1954	0	29992	
1955	0	29940	
1956	0	29912	
1957	0	29988	
1958	0	30080	
1959	0	30084	
1960	0	30064	
1961	0	30032	
1962	0	30000	
1963	0	30092	
1964	0	30276	
1965	0	30472	
1966	0	30599	
1967	0	30540	
1968	0	30512	
1969	0	30572	
1970	0	30632	
1971	0	30680	
1972	0	30696	
1973	0	30632	
1974	0	30516	
1975	0	30416	
1976	0	30476	
1977	0	30648	
1978	0	30832	
1979	0	31088	
1980	0	31296	
1981	0	31448	
1982	0	31588	
1983	0	31624	
1984	0	31612	
1985	0	31554	
1986	0	31464	
1987	0	31380	
1988	0	31400	
1989	0	31520	
1990	0	31512	
1991	0	31520	
1992	0	31568	
1993	0	31592	
1994	0	31616	
1995	0	31628	
1996	0	31676	
1997	0	31684	
1998	0	31660	
1999	0	31714	
2000	0	31840	
2001	0	31972	
2002	0	32172	
2003	0	32394	
2004	0	32532	
2005	0	32620	
2006	0	32616	
2007	0	32504	
2008	0	32362	
2009	0	32160	
2010	0	32024	
2011	0	31980	
2012	0	31972	
2013	0	31896	
2014	0	31912	
2015	0	31984	
2016	0	32068	
2017	0	32144	
2018	0	32112	
2019	0	32104	
2020	0	32186	
2021	0	32192	
2022	0	32164	
2023	0	32130	
2024	0	32128	
2025	0	32208	
2026	0	32312	
2027	0	32312	
2028	0	32288	
2029	0	32328	
2030	0	32356	
2031	0	32348	
2032	0	32408	
2033	0	32440	
2034	0	32500	
2035	0	32552	
2036	0	32600	
2037	0	32536	
2038	0	32484	
2039	0	32460	
2040	0	32458	
2041	0	32464	
2042	0	32436	
2043	0	32380	
2044	0	32384	
2045	0	32268	
2046	0	32100	
2047	0	31996	
2048	0	31928	
2049	0	31866	
2050	0	31760	
2051	0	31784	
2052	0	31944	
2053	0	32076	
2054	0	32080	
2055	0	31904	
2056	0	31792	
2057	0	31848	
2058	0	31948	
2059	0	32040	
2060	0	32152	
2061	0	32388	
2062	0	32576	
2063	0	32584	
2064	0	32480	
2065	0	32462	
2066	0	32514	
2067	0	32560	
2068	0	32544	
2069	0	32520	
2070	0	32620	
2071	0	32720	
2072	0	32688	
2073	0	32690	
2074	0	32692	
2075	0	32736	
2076	0	32748	
2077	0	32640	
2078	0	32508	
2079	0	32540	
2080	0	32724	
2081	0	32900	
2082	0	32936	
2083	0	32936	
2084	0	32976	
2085	0	33044	
2086	0	33234	
2087	0	33498	
2088	0	33574	
2089	0	33580	
2090	0	33560	
2091	0	33612	
2092	0	33638	
2093	0	33588	
2094	0	33508	
2095	0	33472	
2096	0	33576	
2097	0	33612	
2098	0	33680	
2099	0	33736	
2100	0	33812	
2101	0	33888	
2102	0	34068	
2103	0	34340	
2104	0	34576	
2105	0	34608	
2106	0	34676	
2107	0	34780	
2108	0	34880	
2109	0	35036	
2110	0	35136	
2111	0	35152	
2112	0	35168	
2113	0	35248	
2114	0	35198	
2115	0	35140	
2116	0	35080	
2117	0	35092	
2118	0	35000	
2119	0	34820	
2120	0	34660	
2121	0	34520	
2122	0	34520	
2123	0	34662	
2124	0	34818	
2125	0	35016	
2126	0	35196	
2127	0	35396	
2128	0	35620	
2129	0	35732	
2130	0	35744	
2131	0	35628	
2132	0	35504	
2133	0	35280	
2134	0	34948	
2135	0	34544	
2136	0	34160	
2137	0	33712	
2138	0	33364	
2139	0	33152	
2140	0	33002	
2141	0	32968	
2142	0	32802	
2143	0	32532	
2144	0	32272	
2145	0	32088	
2146	0	31932	
2147	0	31776	
2148	0	31710	
2149	0	31680	
2150	0	31632	
2151	0	31524	
2152	0	31416	
2153	0	31408	
2154	0	31472	
2155	0	31476	
2156	0	31508	
2157	0	31632	
2158	0	31682	
2159	0	31608	
2160	0	31498	
2161	0	31356	
2162	0	31296	
2163	0	31392	
2164	0	31320	
2165	0	31176	
2166	0	31104	
2167	0	30964	
2168	0	30868	
2169	0	30696	
2170	0	30556	
2171	0	30576	
2172	0	30664	
2173	0	30836	
2174	0	31012	
2175	0	31196	
2176	0	31328	
2177	0	31460	
2178	0	31522	
2179	0	31501	
2180	0	31472	
2181	0	31340	
2182	0	31268	
2183	0	31192	
2184	0	31080	
2185	0	31064	
2186	0	31148	
2187	0	31168	
2188	0	31148	
2189	0	31072	
2190	0	31116	
2191	0	31200	
2192	0	31232	
2193	0	31236	
2194	0	31250	
2195	0	31204	
2196	0	31200	
2197	0	31196	
2198	0	31084	
2199	0	30976	
2200	0	30994	
2201	0	31112	
2202	0	31164	
2203	0	31116	
2204	0	31124	
2205	0	31328	
2206	0	31476	
2207	0	31512	
2208	0	31540	
2209	0	31620	
2210	0	31744	
2211	0	31876	
2212	0	31992	
2213	0	32088	
2214	0	32124	
2215	0	32088	
2216	0	32012	
2217	0	31876	
2218	0	31580	
2219	0	31044	
2220	0	30464	
2221	0	29988	
2222	0	29516	
2223	0	29132	
2224	0	28984	
2225	0	29216	
2226	0	29632	
2227	0	30020	
2228	0	30580	
2229	0	31316	
2230	0	32116	
2231	0	33092	
2232	0	34114	
2233	0	35096	
2234	0	36088	
2235	0	37184	
2236	0	38500	
2237	0	40148	
2238	0	41856	
2239	0	43592	
2240	0	45384	
2241	0	47184	
2242	0	49144	
2243	0	51408	
2244	0	53792	
2245	0	56160	
2246	0	58516	
2247	0	60812	
2248	0	62724	
2249	0	63760	
2250	0	64262	
2251	0	64472	
2252	0	64536	
2253	0	64496	
2254	0	64428	
2255	0	64332	
2256	0	64236	
2257	0	64108	
2258	0	60080	
2259	0	56008	
2260	0	52096	
2261	0	48264	
2262	0	44468	
2263	0	41016	
2264	0	38044	
2265	0	35500	
2266	0	33436	
2267	0	31734	
2268	0	30288	
2269	0	29140	
2270	0	28248	
2271	0	27372	
2272	0	26600	
2273	0	26024	
2274	0	25552	
2275	0	25144	
2276	0	24768	
2277	0	24360	
2278	0	24124	
2279	0	23936	
2280	0	23864	
2281	0	23970	
2282	0	24120	
2283	0	24456	
2284	0	24728	
2285	0	24990	
2286	0	25284	
2287	0	25684	
2288	0	26072	
2289	0	26648	
2290	0	27316	
2291	0	27932	
2292	0	28380	
2293	0	28720	
2294	0	28997	
2295	0	29132	
2296	0	29312	
2297	0	29628	
2298	0	29916	
2299	0	30176	
2300	0	30324	
2301	0	30376	
2302	0	30440	
2303	0	30470	
2304	0	30444	
2305	0	30312	
2306	0	30100	
2307	0	29970	
2308	0	29928	
2309	0	30024	
2310	0	30040	
2311	0	29992	
2312	0	29972	
2313	0	29896	
2314	0	29932	
2315	0	30192	
2316	0	30440	
2317	0	30584	
2318	0	30672	
2319	0	30904	
2320	0	31114	
2321	0	31104	
2322	0	30984	
2323	0	30852	
2324	0	30664	
2325	0	30464	
2326	0	30132	
2327	0	30016	
2328	0	29976	
2329	0	29940	
2330	0	29960	
2331	0	29948	
2332	0	30044	
2333	0	30326	
2334	0	30532	
2335	0	30624	
2336	0	30792	
2337	0	31082	
2338	0	31488	
2339	0	31714	
2340	0	31688	
2341	0	31548	
2342	0	31588	
2343	0	31608	
2344	0	31648	
2345	0	31764	
2346	0	31882	
2347	0	31940	
2348	0	32060	
2349	0	32136	
2350	0	32048	
2351	0	31932	
2352	0	31836	
2353	0	31932	
2354	0	31992	
2355	0	32008	
2356	0	32012	
2357	0	32220	
2358	0	32308	
2359	0	32220	
2360	0	32052	
2361	0	32032	
2362	0	31992	
2363	0	32000	
2364	0	31968	
2365	0	31904	
2366	0	31888	
2367	0	31816	
2368	0	31842	
2369	0	31872	
2370	0	31888	
2371	0	31960	
2372	0	32024	
2373	0	32060	
2374	0	32236	
2375	0	32410	
2376	0	32496	
2377	0	32600	
2378	0	32816	
2379	0	32988	
2380	0	32876	
2381	0	32676	
2382	0	32736	
2383	0	32824	
2384	0	32872	
2385	0	32956	
2386	0	32976	
2387	0	33012	
2388	0	33024	
2389	0	33040	
2390	0	33072	
2391	0	33072	
2392	0	33050	
2393	0	33044	
2394	0	33064	
2395	0	33078	
2396	0	33128	
2397	0	33296	
2398	0	33384	
2399	0	33340	
2400	0	33338	
2401	0	33384	
2402	0	33356	
2403	0	33352	
2404	0	33216	
2405	0	33116	
2406	0	33208	
2407	0	33352	
2408	0	33460	
2409	0	33592	
2410	0	33728	
2411	0	33740	
2412	0	33804	
2413	0	33856	
2414	0	33900	
2415	0	33888	
2416	0	33820	
2417	0	33812	
2418	0	33886	
2419	0	34036	
2420	0	34128	
2421	0	34056	
2422	0	34008	
2423	0	34144	
2424	0	34244	
2425	0	34264	
2426	0	34392	
2427	0	34628	
2428	0	34732	
2429	0	34880	
2430	0	34976	
2431	0	35212	
2432	0	35420	
2433	0	35552	
2434	0	35688	
2435	0	35804	
2436	0	35720	
2437	0	35628	
2438	0	35592	
2439	0	35628	
2440	0	35528	
2441	0	35316	
2442	0	35050	
2443	0	34940	
2444	0	34990	
2445	0	35016	
2446	0	35008	
2447	0	34984	
2448	0	35088	
2449	0	35252	
2450	0	35344	
2451	0	35440	
2452	0	35524	
2453	0	35616	
2454	0	35680	
2455	0	35660	
2456	0	35596	
2457	0	35616	
2458	0	35440	
2459	0	35232	
2460	0	35272	
2461	0	35404	
2462	0	35512	
2463	0	35772	
2464	0	36036	
2465	0	36276	
2466	0	36580	
2467	0	36828	
2468	0	36972	
2469	0	37060	
2470	0	37192	
2471	0	37308	
2472	0	37428	
2473	0	37544	
2474	0	37680	
2475	0	37756	
2476	0	37688	
2477	0	37592	
2478	0	37568	
2479	0	37536	
2480	0	37436	
2481	0	37396	
2482	0	37452	
2483	0	37444	
2484	0	37412	
2485	0	37392	
2486	0	37260	
2487	0	36992	
2488	0	36800	
2489	0	36732	
2490	0	36904	
2491	0	36818	
2492	0	36800	
2493	0	36904	
2494	0	36964	
2495	0	37028	
2496	0	37128	
2497	0	37184	
2498	0	37216	
2499	0	37072	
2500	0	36808	
2501	0	36652	
2502	0	36480	
2503	0	36352	
2504	0	36252	
2505	0	36132	
2506	0	36004	
2507	0	35920	
2508	0	35868	
2509	0	35840	
2510	0	35828	
2511	0	35768	
2512	0	35784	
2513	0	35804	
2514	0	35672	
2515	0	35450	
2516	0	35112	
2517	0	34780	
2518	0	34520	
2519	0	34376	
2520	0	34264	
2521	0	34144	
2522	0	34040	
2523	0	33872	
2524	0	33744	
2525	0	33376	
2526	0	33072	
2527	0	32904	
2528	0	32592	
2529	0	32372	
2530	0	32216	
2531	0	31964	
2532	0	31672	
2533	0	31432	
2534	0	31186	
2535	0	31052	
2536	0	31020	
2537	0	30992	
2538	0	30992	
2539	0	31016	
2540	0	30996	
2541	0	30844	
2542	0	30644	
2543	0	30752	
2544	0	30804	
2545	0	30644	
2546	0	30448	
2547	0	30280	
2548	0	30088	
2549	0	29996	
2550	0	29900	
2551	0	29608	
2552	0	29280	
2553	0	29008	
2554	0	28762	
2555	0	28744	
2556	0	28820	
2557	0	28764	
2558	0	28604	
2559	0	28576	
2560	0	28700	
2561	0	28836	
2562	0	28924	
2563	0	28996	
2564	0	28996	
2565	0	28874	
2566	0	28824	
2567	0	28896	
2568	0	28968	
2569	0	29020	
2570	0	29040	
2571	0	29028	
2572	0	29044	
2573	0	28884	
2574	0	28708	
2575	0	28498	
2576	0	28392	
2577	0	28368	
2578	0	28186	
2579	0	27984	
2580	0	27788	
2581	0	27552	
2582	0	27452	
2583	0	27540	
2584	0	27676	
2585	0	27736	
2586	0	27864	
2587	0	28108	
2588	0	28454	
2589	0	28898	
2590	0	29144	
2591	0	29228	
2592	0	29232	
2593	0	29208	
2594	0	29292	
2595	0	29400	
2596	0	29458	
2597	0	29546	
2598	0	29564	
2599	0	29732	
2600	0	29830	
2601	0	29968	
2602	0	29968	
2603	0	29824	
2604	0	29916	
2605	0	29856	
2606	0	29748	
2607	0	29664	
2608	0	29432	
2609	0	29376	
2610	0	29468	
2611	0	29480	
2612	0	29552	
2613	0	29664	
2614	0	29676	
2615	0	29504	
2616	0	29352	
2617	0	29292	
2618	0	29384	
2619	0	29556	
2620	0	29832	
2621	0	29950	
2622	0	29876	
2623	0	29864	
2624	0	29880	
2625	0	29926	
2626	0	30044	
2627	0	30168	
2628	0	30048	
2629	0	29938	
2630	0	29888	
2631	0	29892	
2632	0	30046	
2633	0	30188	
2634	0	30308	
2635	0	30408	
2636	0	30500	
2637	0	30426	
2638	0	30300	
2639	0	30130	
2640	0	30062	
2641	0	30248	
2642	0	30340	
2643	0	30408	
2644	0	30544	
2645	0	30720	
2646	0	30804	
2647	0	30964	
2648	0	31040	
2649	0	31068	
2650	0	30920	
2651	0	30736	
2652	0	30564	
2653	0	30416	
2654	0	30284	
2655	0	30088	
2656	0	30056	
2657	0	30236	
2658	0	30668	
2659	0	31028	
2660	0	31280	
2661	0	31364	
2662	0	31400	
2663	0	31408	
2664	0	31376	
2665	0	31492	
2666	0	31464	
2667	0	31364	
2668	0	31192	
2669	0	31048	
2670	0	31048	
2671	0	31200	
2672	0	31204	
2673	0	31132	
2674	0	31204	
2675	0	31116	
2676	0	31112	
2677	0	31236	
2678	0	31380	
2679	0	31452	
2680	0	31520	
2681	0	31548	
2682	0	31632	
2683	0	31732	
2684	0	31624	
2685	0	31448	
2686	0	31356	
2687	0	31324	
2688	0	31220	
2689	0	31134	
2690	0	31072	
2691	0	31084	
2692	0	31100	
2693	0	31104	
2694	0	31160	
2695	0	31160	
2696	0	31132	
2697	0	31132	
2698	0	31176	
2699	0	31140	
2700	0	31160	
2701	0	31280	
2702	0	31516	
2703	0	31744	
2704	0	31788	
2705	0	31706	
2706	0	31664	
2707	0	31658	
2708	0	31580	
2709	0	31472	
2710	0	31448	
2711	0	31460	
2712	0	31492	
2713	0	31584	
2714	0	31596	
2715	0	31648	
2716	0	31736	
2717	0	31740	
2718	0	31800	
2719	0	31712	
2720	0	31708	
2721	0	31784	
2722	0	31984	
2723	0	32272	
2724	0	32620	
2725	0	32832	
2726	0	32900	
2727	0	32916	
2728	0	32928	
2729	0	32796	
2730	0	32428	
2731	0	32192	
2732	0	32232	
2733	0	32204	
2734	0	32216	
2735	0	32072	
2736	0	32148	
2737	0	32392	
2738	0	32544	
2739	0	32608	
2740	0	32736	
2741	0	32900	
2742	0	32912	
2743	0	32928	
2744	0	33072	
2745	0	33200	
2746	0	33216	
2747	0	32964	
2748	0	32756	
2749	0	32840	
2750	0	32992	
2751	0	33076	
2752	0	33140	
2753	0	33256	
2754	0	33468	
2755	0	33848	
2756	0	34172	
2757	0	34496	
2758	0	34780	
2759	0	34916	
2760	0	34936	
2761	0	34800	
2762	0	34536	
2763	0	34428	
2764	0	34188	
2765	0	33892	
2766	0	33788	
2767	0	33720	
2768	0	33720	
2769	0	33552	
2770	0	33372	
2771	0	33248	
2772	0	33064	
2773	0	33012	
2774	0	33160	
2775	0	33432	
2776	0	33860	
2777	0	34264	
2778	0	34472	
2779	0	34530	
2780	0	34696	
2781	0	34636	
2782	0	34490	
2783	0	34536	
2784	0	34752	
2785	0	34848	
2786	0	34824	
2787	0	34852	
2788	0	34688	
2789	0	34460	
2790	0	34072	
2791	0	33672	
2792	0	33304	
2793	0	33172	
2794	0	32924	
2795	0	32528	
2796	0	32312	
2797	0	32152	
2798	0	31976	
2799	0	31832	
2800	0	31632	
2801	0	31576	
2802	0	31688	
2803	0	31502	
2804	0	31232	
2805	0	31258	
2806	0	31256	
2807	0	31112	
2808	0	30976	
2809	0	30944	
2810	0	30984	
2811	0	31120	
2812	0	31232	
2813	0	31192	
2814	0	31016	
2815	0	30820	
2816	0	30720	
2817	0	30686	
2818	0	30672	
2819	0	30484	
2820	0	30401	
2821	0	30442	
2822	0	30560	
2823	0	30668	
2824	0	30820	
2825	0	31040	
2826	0	31332	
2827	0	31264	
2828	0	30988	
2829	0	30592	
2830	0	30244	
2831	0	30100	
2832	0	30180	
2833	0	30160	
2834	0	30476	
2835	0	30852	
2836	0	31008	
2837	0	31096	
2838	0	31200	
2839	0	31272	
2840	0	31180	
2841	0	31168	
2842	0	31012	
2843	0	30708	
2844	0	30524	
2845	0	30536	
2846	0	30612	
2847	0	30808	
2848	0	30956	
2849	0	31224	
2850	0	31488	
2851	0	31668	
2852	0	31748	
2853	0	31696	
2854	0	31672	
2855	0	31580	
2856	0	31372	
2857	0	31148	
2858	0	31160	
2859	0	31144	
2860	0	31004	
2861	0	30976	
2862	0	31048	
2863	0	30996	
2864	0	31056	
2865	0	31424	
2866	0	31608	
2867	0	31732	
2868	0	31992	
2869	0	32126	
2870	0	31916	
2871	0	31640	
2872	0	31214	
2873	0	30862	
2874	0	30620	
2875	0	30328	
2876	0	29812	
2877	0	29416	
2878	0	29236	
2879	0	29264	
2880	0	29360	
2881	0	29560	
2882	0	29820	
2883	0	30080	
2884	0	30376	
2885	0	30680	
2886	0	31052	
2887	0	31424	
2888	0	32036	
2889	0	33172	
2890	0	34644	
2891	0	36340	
2892	0	38136	
2893	0	39936	
2894	0	41912	
2895	0	43848	
2896	0	45884	
2897	0	48164	
2898	0	50384	
2899	0	52644	
2900	0	54848	
2901	0	57208	
2902	0	59680	
2903	0	62012	
2904	0	63352	
2905	0	64048	
2906	0	64352	
2907	0	64476	
2908	0	64484	
2909	0	64432	
2910	0	64344	
2911	0	64232	
2912	0	64132	
2913	0	63996	
2914	0	62904	
2915	0	58088	
2916	0	53640	
2917	0	49448	
2918	0	45396	
2919	0	41810	
2920	0	38532	
2921	0	35700	
2922	0	33444	
2923	0	31698	
2924	0	30576	
2925	0	29672	
2926	0	29036	
2927	0	28212	
2928	0	27284	
2929	0	26520	
2930	0	25740	
2931	0	25132	
2932	0	24940	
2933	0	24717	
2934	0	24536	
2935	0	24356	
2936	0	24240	
2937	0	24360	
2938	0	24488	
2939	0	24600	
2940	0	24724	
2941	0	24832	
2942	0	24988	
2943	0	25272	
2944	0	25770	
2945	0	26348	
2946	0	26808	
2947	0	27356	
2948	0	27842	
2949	0	28332	
2950	0	28680	
2951	0	29216	
2952	0	29684	
2953	0	29792	
2954	0	29620	
2955	0	29376	
2956	0	29160	
2957	0	29128	
2958	0	29176	
2959	0	29144	
2960	0	29016	
2961	0	29104	
2962	0	29352	
2963	0	29788	
2964	0	30232	
2965	0	30464	
2966	0	30362	
2967	0	30144	
2968	0	29832	
2969	0	29512	
2970	0	29444	
2971	0	29636	
2972	0	29548	
2973	0	29516	
2974	0	29780	
2975	0	30148	
2976	0	30404	
2977	0	30516	
2978	0	30688	
2979	0	30864	
2980	0	30860	
2981	0	30624	
2982	0	30294	
2983	0	30254	
2984	0	30092	
2985	0	29924	
2986	0	30002	
2987	0	30316	
2988	0	30752	
2989	0	31000	
2990	0	31008	
2991	0	30868	
2992	0	30692	
2993	0	30500	
2994	0	30356	
2995	0	30388	
2996	0	30720	
2997	0	30656	
2998	0	30924	
2999	0	31296	
3000	0	31464	
3001	0	31672	
3002	0	31700	
3003	0	31470	
3004	0	31228	
3005	0	30934	
3006	0	30796	
3007	0	30856	
3008	0	30596	
3009	0	30472	
3010	0	30632	
3011	0	30616	
3012	0	30796	
3013	0	31148	
3014	0	31400	
3015	0	31496	
3016	0	31440	
3017	0	31420	
3018	0	31548	
3019	0	31668	
3020	0	31876	
3021	0	31704	
3022	0	31440	
3023	0	31420	
3024	0	31468	
3025	0	31584	
3026	0	31840	
3027	0	31978	
3028	0	32216	
3029	0	32412	
3030	0	32412	
3031	0	32424	
3032	0	32512	
3033	0	32592	
3034	0	32538	
3035	0	32500	
3036	0	32458	
3037	0	32268	
3038	0	32296	
3039	0	32236	
3040	0	32256	
3041	0	32332	
3042	0	32352	
3043	0	32176	
3044	0	32284	
3045	0	32664	
3046	0	32884	
3047	0	33084	
3048	0	33240	
3049	0	33412	
3050	0	33522	
3051	0	33298	
3052	0	33120	
3053	0	33120	
3054	0	33440	
3055	0	33652	
3056	0	33292	
3057	0	33080	
3058	0	33128	
3059	0	33372	
3060	0	33716	
3061	0	33664	
3062	0	33536	
3063	0	33584	
3064	0	33584	
3065	0	33488	
3066	0	33384	
3067	0	33460	
3068	0	33576	
3069	0	33752	
3070	0	33836	
3071	0	33952	
3072	0	34250	
3073	0	34680	
3074	0	34908	
3075	0	34936	
3076	0	34828	
3077	0	34556	
3078	0	34310	
3079	0	34184	
3080	0	34220	
3081	0	33496	
3082	0	33032	
3083	0	32856	
3084	0	32776	
3085	0	33096	
3086	0	33572	
3087	0	34082	
3088	0	34288	
3089	0	34244	
3090	0	34450	
3091	0	34624	
3092	0	34768	
3093	0	35052	
3094	0	35246	
3095	0	35192	
3096	0	35048	
3097	0	35176	
3098	0	35512	
3099	0	35768	
3100	0	36220	
3101	0	36712	
3102	0	36932	
3103	0	37120	
3104	0	37100	
3105	0	37024	
3106	0	36884	
3107	0	36636	
3108	0	36192	
3109	0	35800	
3110	0	35672	
3111	0	35840	
3112	0	36180	
3113	0	36500	
3114	0	36832	
3115	0	37252	
3116	0	37440	
3117	0	37564	
3118	0	37752	
3119	0	37936	
3120	0	38292	
3121	0	38636	
3122	0	38592	
3123	0	38304	
3124	0	38272	
3125	0	38360	
3126	0	38072	
3127	0	37716	
3128	0	37620	
3129	0	37392	
3130	0	37136	
3131	0	36740	
3132	0	36428	
3133	0	36224	
3134	0	35896	
3135	0	35874	
3136	0	36268	
3137	0	36596	
3138	0	36648	
3139	0	36560	
3140	0	36468	
3141	0	36380	
3142	0	36468	
3143	0	36452	
3144	0	36584	
3145	0	36700	
3146	0	36736	
3147	0	36528	
3148	0	36160	
3149	0	35928	
3150	0	35840	
3151	0	36048	
3152	0	36172	
3153	0	36218	
3154	0	36368	
3155	0	36352	
3156	0	36396	
3157	0	36352	
3158	0	36084	
3159	0	35904	
3160	0	35384	
3161	0	34904	
3162	0	34896	
3163	0	35104	
3164	0	35252	
3165	0	35356	
3166	0	35376	
3167	0	35272	
3168	0	35108	
3169	0	34680	
3170	0	34284	
3171	0	34112	
3172	0	33752	
3173	0	33340	
3174	0	32956	
3175	0	32772	
3176	0	32766	
3177	0	32740	
3178	0	32676	
3179	0	32816	
3180	0	33160	
3181	0	33408	
3182	0	33212	
3183	0	32776	
3184	0	32456	
3185	0	32148	
3186	0	31760	
3187	0	31216	
3188	0	31016	
3189	0	31186	
3190	0	31516	
3191	0	31568	
3192	0	31408	
3193	0	30876	
3194	0	30384	
3195	0	30092	
3196	0	29900	
3197	0	29970	
3198	0	30132	
3199	0	30092	
3200	0	30160	
3201	0	30168	
3202	0	29916	
3203	0	29476	
3204	0	28884	
3205	0	28208	
3206	0	27664	
3207	0	27264	
3208	0	27308	
3209	0	27474	
3210	0	27896	
3211	0	28504	
3212	0	28980	
3213	0	29028	
3214	0	28752	
3215	0	28424	
3216	0	28346	
3217	0	28552	
3218	0	28700	
3219	0	28472	
3220	0	28468	
3221	0	28380	
3222	0	28316	
3223	0	28668	
3224	0	29068	
3225	0	29220	
3226	0	29232	
3227	0	29132	
3228	0	29204	
3229	0	29380	
3230	0	29248	
3231	0	28908	
3232	0	28616	
3233	0	28696	
3234	0	28992	
3235	0	29306	
3236	0	29592	
3237	0	29536	
3238	0	29072	
3239	0	28457	
3240	0	27984	
3241	0	27928	
3242	0	27752	
3243	0	27696	
3244	0	27804	
3245	0	28168	
3246	0	28416	
3247	0	28496	
3248	0	28936	
3249	0	29074	
3250	0	28778	
3251	0	28528	
3252	0	28528	
3253	0	28632	
3254	0	28669	
3255	0	28540	
3256	0	28456	
3257	0	28282	
3258	0	28200	
3259	0	28376	
3260	0	28402	
3261	0	28488	
3262	0	28744	
3263	0	29006	
3264	0	29100	
3265	0	29144	
3266	0	29164	
3267	0	29192	
3268	0	29300	
3269	0	29268	
3270	0	29308	
3271	0	29536	
3272	0	29620	
3273	0	29624	
3274	0	29676	
3275	0	29604	
3276	0	29348	
3277	0	29120	
3278	0	29148	
3279	0	29200	
3280	0	29280	
3281	0	29316	
3282	0	29336	
3283	0	29322	
3284	0	29268	
3285	0	29240	
3286	0	29304	
3287	0	29468	
3288	0	29772	
3289	0	30138	
3290	0	30461	
3291	0	30524	
3292	0	30416	
3293	0	30172	
3294	0	29844	
3295	0	29538	
3296	0	29444	
3297	0	29652	
3298	0	29924	
3299	0	30040	
3300	0	30108	
3301	0	30128	
3302	0	30280	
3303	0	30376	
3304	0	30456	
3305	0	30592	
3306	0	30636	
3307	0	30690	
3308	0	30844	
3309	0	31068	
3310	0	31284	
3311	0	31452	
3312	0	31416	
3313	0	31112	
3314	0	30860	
3315	0	30936	
3316	0	30912	
3317	0	30816	
3318	0	30848	
3319	0	30712	
3320	0	30628	
3321	0	30696	
3322	0	30688	
3323	0	30512	
3324	0	30584	
3325	0	30720	
3326	0	30876	
3327	0	31094	
3328	0	31312	
3329	0	31208	
3330	0	30912	
3331	0	30536	
3332	0	30498	
3333	0	30660	
3334	0	30856	
3335	0	30896	
3336	0	30932	
3337	0	30972	
3338	0	31264	
3339	0	31568	
3340	0	31644	
3341	0	31456	
3342	0	31306	
3343	0	31224	
3344	0	31116	
3345	0	30956	
3346	0	31004	
3347	0	31208	
3348	0	31476	
3349	0	31768	
3350	0	32188	
3351	0	32432	
3352	0	32672	
3353	0	32912	
3354	0	33248	
3355	0	33216	
3356	0	33052	
3357	0	33000	
3358	0	33088	
3359	0	33160	
3360	0	33012	
3361	0	32840	
3362	0	32676	
3363	0	32632	
3364	0	32664	
3365	0	32752	
3366	0	32740	
3367	0	32666	
3368	0	32852	
3369	0	32972	
3370	0	32904	
3371	0	32828	
3372	0	32748	
3373	0	32668	
3374	0	32680	
3375	0	32820	
3376	0	33106	
3377	0	33420	
3378	0	33856	
3379	0	34172	
3380	0	34476	
3381	0	34768	
3382	0	35114	
3383	0	35520	
3384	0	35732	
3385	0	35688	
3386	0	35636	
3387	0	35354	
3388	0	35008	
3389	0	34620	
3390	0	34120	
3391	0	33578	
3392	0	33440	
3393	0	33600	
3394	0	33864	
3395	0	34272	
3396	0	34636	
3397	0	34900	
3398	0	35134	
3399	0	35376	
3400	0	35292	
3401	0	34874	
3402	0	34298	
3403	0	33936	
3404	0	33622	
3405	0	33384	
3406	0	33192	
3407	0	33092	
3408	0	33104	
3409	0	33236	
3410	0	33128	
3411	0	32894	
3412	0	32616	
3413	0	32420	
3414	0	32148	
3415	0	32004	
3416	0	31764	
3417	0	31546	
3418	0	31608	
3419	0	31656	
3420	0	31688	
3421	0	31580	
3422	0	31240	
3423	0	30944	
3424	0	30756	
3425	0	30568	
3426	0	30376	
3427	0	30136	
3428	0	30156	
3429	0	30336	
3430	0	30476	
3431	0	30572	
3432	0	30736	
3433	0	30904	
3434	0	30964	
3435	0	30924	
3436	0	30764	
3437	0	30694	
3438	0	30484	
3439	0	30272	
3440	0	30168	
3441	0	30144	
3442	0	30164	
3443	0	30240	
3444	0	30402	
3445	0	30396	
3446	0	30272	
3447	0	30068	
3448	0	29836	
3449	0	29742	
3450	0	29780	
3451	0	29828	
3452	0	29906	
3453	0	30028	
3454	0	30100	
3455	0	30356	
3456	0	30764	
3457	0	31162	
3458	0	31332	
3459	0	31530	
3460	0	31668	
3461	0	31948	
3462	0	32088	
3463	0	32080	
3464	0	32004	
3465	0	31928	
3466	0	31634	
3467	0	31256	
3468	0	31076	
3469	0	30922	
3470	0	30848	
3471	0	30924	
3472	0	30944	
3473	0	30944	
3474	0	31024	
3475	0	31316	
3476	0	31640	
3477	0	31808	
3478	0	32002	
3479	0	31840	
3480	0	31444	
3481	0	31136	
3482	0	31104	
3483	0	31096	
3484	0	31244	
3485	0	31424	
3486	0	31540	
3487	0	31608	
3488	0	31696	
3489	0	31680	
3490	0	31500	
3491	0	31332	
3492	0	31216	
3493	0	30820	
3494	0	30256	
3495	0	29560	
3496	0	28900	
3497	0	28376	
3498	0	27944	
3499	0	27790	
3500	0	27912	
3501	0	28208	
3502	0	28612	
3503	0	28992	
3504	0	29368	
3505	0	29800	
3506	0	30394	
3507	0	30920	
3508	0	31536	
3509	0	32568	
3510	0	33952	
3511	0	35672	
3512	0	37570	
3513	0	39592	
3514	0	41696	
3515	0	43872	
3516	0	46260	
3517	0	48784	
3518	0	51496	
3519	0	54208	
3520	0	57048	
3521	0	59764	
3522	0	62116	
3523	0	63572	
3524	0	64316	
3525	0	64660	
3526	0	64784	
3527	0	64804	
3528	0	64740	
3529	0	64660	
3530	0	64548	
3531	0	64432	
3532	0	64312	
3533	0	64180	
3534	0	59456	
3535	0	54528	
3536	0	49672	
3537	0	45186	
3538	0	41392	
3539	0	38216	
3540	0	35592	
3541	0	33548	
3542	0	32014	
3543	0	30964	
3544	0	30132	
3545	0	29476	
3546	0	28824	
3547	0	28144	
3548	0	27344	
3549	0	26652	
3550	0	26016	
3551	0	25464	
3552	0	24930	
3553	0	24568	
3554	0	24450	
3555	0	24424	
3556	0	24492	
3557	0	24792	
3558	0	25164	
3559	0	25576	
3560	0	26028	
3561	0	26176	
3562	0	26096	
3563	0	25972	
3564	0	25904	
3565	0	26156	
3566	0	26520	
3567	0	26908	
3568	0	27296	
3569	0	27680	
3570	0	27836	
3571	0	27904	
3572	0	28144	
3573	0	28610	
3574	0	29272	
3575	0	29656	
3576	0	29908	
3577	0	30096	
3578	0	30276	
3579	0	30208	
3580	0	30178	
3581	0	30202	
3582	0	30288	
3583	0	30360	
3584	0	30324	
3585	0	30264	
3586	0	30276	
3587	0	30140	
3588	0	30008	
3589	0	29880	
3590	0	29844	
3591	0	29812	
3592	0	29876	
3593	0	29928	
3594	0	30052	
3595	0	30082	
3596	0	30004	
3597	0	29932	
3598	0	29920	
3599	0	29884	
3600	0	29762	
3601	0	29746	
3602	0	29764	
3603	0	29640	
3604	0	29604	
3605	0	29748	
3606	0	29900	
3607	0	30060	
3608	0	30292	
3609	0	30552	
3610	0	30658	
3611	0	30881	
3612	0	30884	
3613	0	30692	
3614	0	30608	
3615	0	30496	
3616	0	30292	
3617	0	30176	
3618	0	30052	
3619	0	30052	
3620	0	30208	
3621	0	30212	
3622	0	30284	
3623	0	30408	
3624	0	30476	
3625	0	30580	
3626	0	30792	
3627	0	31020	
3628	0	31184	
3629	0	31276	
3630	0	31328	
3631	0	31292	
3632	0	31232	
3633	0	31216	
3634	0	31280	
3635	0	31264	
3636	0	31188	
3637	0	31290	
3638	0	31360	
3639	0	31476	
3640	0	31636	
3641	0	31816	
3642	0	31980	
3643	0	32016	
3644	0	31992	
3645	0	31812	
3646	0	31624	
3647	0	31676	
3648	0	31776	
3649	0	31776	
3650	0	31792	
3651	0	31848	
3652	0	31970	
3653	0	32100	
3654	0	32192	
3655	0	32312	
3656	0	32504	
3657	0	32628	
3658	0	32572	
3659	0	32536	
3660	0	32416	
3661	0	32252	
3662	0	32140	
3663	0	32178	
3664	0	32298	
3665	0	32336	
3666	0	32432	
3667	0	32560	
3668	0	32540	
3669	0	32544	
3670	0	32628	
3671	0	32816	
3672	0	32996	
3673	0	33192	
3674	0	33428	
3675	0	33642	
3676	0	33692	
3677	0	33748	
3678	0	33784	
3679	0	33784	
3680	0	33770	
3681	0	33540	
3682	0	33216	
3683	0	33064	
3684	0	33056	
3685	0	33092	
3686	0	33152	
3687	0	33136	
3688	0	33264	
3689	0	33472	
3690	0	33584	
3691	0	33708	
3692	0	33888	
3693	0	34028	
3694	0	34138	
3695	0	34248	
3696	0	34400	
3697	0	34420	
3698	0	34368	
3699	0	34388	
3700	0	34496	
3701	0	34548	
3702	0	34644	
3703	0	34724	
3704	0	34720	
3705	0	34736	
3706	0	34836	
3707	0	34912	
3708	0	35040	
3709	0	35052	
3710	0	34904	
3711	0	34624	
3712	0	34496	
3713	0	34382	
3714	0	34300	
3715	0	34380	
3716	0	34496	
3717	0	34588	
3718	0	34740	
3719	0	34896	
3720	0	35076	
3721	0	35346	
3722	0	35524	
3723	0	35656	
3724	0	35788	
3725	0	35960	
3726	0	36032	
3727	0	35992	
3728	0	35996	
3729	0	36048	
3730	0	36112	
3731	0	36124	
3732	0	36112	
3733	0	36040	
3734	0	35936	
3735	0	36020	
3736	0	36108	
3737	0	36176	
3738	0	36164	
3739	0	36236	
3740	0	36444	
3741	0	36688	
3742	0	36992	
3743	0	37104	
3744	0	37012	
3745	0	36880	
3746	0	36806	
3747	0	36660	
3748	0	36400	
3749	0	36212	
3750	0	36140	
3751	0	36288	
3752	0	36456	
3753	0	36508	
3754	0	36516	
3755	0	36578	
3756	0	36528	
3757	0	36488	
3758	0	36416	
3759	0	36464	
3760	0	36568	
3761	0	36672	
3762	0	36672	
3763	0	36596	
3764	0	36572	
3765	0	36610	
3766	0	36692	
3767	0	36740	
3768	0	36704	
3769	0	36668	
3770	0	36648	
3771	0	36488	
3772	0	36304	
3773	0	36116	
3774	0	35800	
3775	0	35752	
3776	0	35700	
3777	0	35520	
3778	0	35368	
3779	0	35320	
3780	0	35296	
3781	0	35178	
3782	0	34984	
3783	0	34836	
3784	0	34656	
3785	0	34364	
3786	0	34124	
3787	0	34016	
3788	0	33808	
3789	0	33592	
3790	0	33504	
3791	0	33448	
3792	0	33284	
3793	0	33164	
3794	0	33060	
3795	0	32868	
3796	0	32652	
3797	0	32552	
3798	0	32424	
3799	0	32248	
3800	0	32048	
3801	0	31956	
3802	0	31776	
3803	0	31572	
3804	0	31428	
3805	0	31192	
3806	0	30860	
3807	0	30576	
3808	0	30416	
3809	0	30256	
3810	0	30072	
3811	0	29940	
3812	0	29816	
3813	0	29658	
3814	0	29376	
3815	0	29200	
3816	0	29000	
3817	0	28912	
3818	0	29024	
3819	0	29172	
3820	0	29412	
3821	0	29648	
3822	0	29760	
3823	0	29764	
3824	0	29788	
3825	0	29672	
3826	0	29532	
3827	0	29402	
3828	0	29288	
3829	0	29156	
3830	0	29172	
3831	0	29160	
3832	0	29132	
3833	0	29136	
3834	0	29112	
3835	0	29142	
3836	0	29136	
3837	0	29136	
3838	0	29112	
3839	0	29216	
3840	0	29290	
3841	0	29120	
3842	0	28836	
3843	0	28604	
3844	0	28468	
3845	0	28388	
3846	0	28344	
3847	0	28296	
3848	0	28338	
3849	0	28380	
3850	0	28460	
3851	0	28548	
3852	0	28564	
3853	0	28496	
3854	0	28324	
3855	0	28116	
3856	0	28088	
3857	0	28196	
3858	0	28404	
3859	0	28714	
3860	0	29080	
3861	0	29302	
3862	0	29452	
3863	0	29536	
3864	0	29600	
3865	0	29788	
3866	0	29840	
3867	0	29582	
3868	0	29296	
3869	0	29112	
3870	0	29232	
3871	0	29440	
3872	0	29552	
3873	0	29672	
3874	0	29764	
3875	0	29876	
3876	0	29988	
3877	0	29936	
3878	0	29808	
3879	0	29752	
3880	0	29764	
3881	0	29921	
3882	0	29900	
3883	0	29802	
3884	0	29664	
3885	0	29452	
3886	0	29328	
3887	0	29332	
3888	0	29348	
3889	0	29516	
3890	0	29824	
3891	0	30088	
3892	0	30248	
3893	0	30340	
3894	0	30418	
3895	0	30488	
3896	0	30604	
3897	0	30730	
3898	0	30900	
3899	0	31038	
3900	0	31092	
3901	0	31100	
3902	0	31034	
3903	0	30884	
3904	0	30764	
3905	0	30752	
3906	0	30804	
3907	0	30888	
3908	0	30904	
3909	0	30876	
3910	0	30936	
3911	0	31010	
3912	0	31057	
3913	0	31096	
3914	0	31068	
3915	0	31026	
3916	0	31008	
3917	0	31060	
3918	0	31056	
3919	0	30940	
3920	0	30816	
3921	0	30666	
3922	0	30596	
3923	0	30564	
3924	0	30548	
3925	0	30644	
3926	0	30704	
3927	0	30620	
3928	0	30524	
3929	0	30468	
3930	0	30356	
3931	0	30472	
3932	0	30880	
3933	0	31144	
3934	0	31408	
3935	0	31708	
3936	0	31880	
3937	0	31960	
3938	0	32032	
3939	0	32020	
3940	0	31970	
3941	0	31972	
3942	0	32008	
3943	0	32064	
3944	0	32156	
3945	0	32228	
3946	0	32248	
3947	0	32156	
3948	0	32048	
3949	0	31844	
3950	0	31692	
3951	0	31528	
3952	0	31344	
3953	0	31196	
3954	0	30990	
3955	0	30776	
3956	0	30672	
3957	0	30566	
3958	0	30550	
3959	0	30608	
3960	0	30656	
3961	0	30946	
3962	0	31468	
3963	0	31808	
3964	0	32120	
3965	0	32442	
3966	0	32652	
3967	0	32800	
3968	0	32856	
3969	0	32780	
3970	0	32608	
3971	0	32480	
3972	0	32418	
3973	0	32456	
3974	0	32576	
3975	0	32608	
3976	0	32612	
3977	0	32682	
3978	0	32684	
3979	0	32596	
3980	0	32604	
3981	0	32632	
3982	0	32564	
3983	0	32392	
3984	0	32218	
3985	0	32120	
3986	0	31992	
3987	0	31888	
3988	0	31964	
3989	0	32188	
3990	0	32196	
3991	0	32068	
3992	0	31968	
3993	0	31964	
3994	0	32052	
3995	0	32184	
3996	0	32264	
3997	0	32244	
3998	0	32296	
3999	0	32344	
4000	0	32392	
4001	0	32304	
4002	0	32244	
4003	0	32304	
4004	0	32384	
4005	0	32432	
4006	0	32512	
4007	0	32560	
4008	0	32592	
4009	0	32641	
4010	0	32728	
4011	0	32752	
4012	0	32764	
4013	0	32804	
4014	0	32968	
4015	0	33072	
4016	0	32984	
4017	0	32906	
4018	0	32736	
4019	0	32616	
4020	0	32624	
4021	0	32680	
4022	0	32760	
4023	0	32824	
4024	0	33012	
4025	0	33216	
4026	0	33412	
4027	0	33644	
4028	0	33752	
4029	0	33832	
4030	0	33816	
4031	0	33696	
4032	0	33616	
4033	0	33616	
4034	0	33752	
4035	0	33938	
4036	0	34048	
4037	0	34170	
4038	0	34392	
4039	0	34444	
4040	0	34322	
4041	0	34148	
4042	0	34096	
4043	0	34180	
4044	0	34272	
4045	0	34436	
4046	0	34632	
4047	0	34740	
4048	0	34920	
4049	0	34980	
4050	0	35040	
4051	0	35096	
4052	0	35060	
4053	0	34906	
4054	0	34808	
4055	0	34700	
4056	0	34632	
4057	0	34656	
4058	0	34748	
4059	0	34932	
4060	0	35128	
4061	0	35124	
4062	0	35048	
4063	0	35032	
4064	0	34892	
4065	0	34730	
4066	0	34580	
4067	0	34388	
4068	0	34256	
4069	0	33972	
4070	0	33768	
4071	0	33724	
4072	0	33556	
4073	0	33274	
4074	0	32980	
4075	0	32884	
4076	0	32664	
4077	0	32396	
4078	0	32176	
4079	0	32080	
4080	0	31844	
4081	0	31288	
4082	0	30800	
4083	0	30432	
4084	0	30108	
4085	0	29984	
4086	0	30156	
4087	0	30576	
4088	0	31108	
4089	0	31596	
4090	0	31898	
4091	0	32180	
4092	0	32428	
4093	0	32546	
4094	0	32416	
4095	0	32208	
4096	0	32120	
4097	0	32048	
4098	0	32004	
4099	0	31974	
4100	0	31856	
4101	0	31764	
4102	0	31652	
4103	0	31568	
4104	0	31536	
4105	0	31520	
4106	0	31522	
4107	0	31460	
4108	0	31372	
4109	0	31344	
4110	0	31340	
4111	0	31328	
4112	0	31332	
4113	0	31344	
4114	0	31384	
4115	0	31432	
4116	0	31464	
4117	0	31492	
4118	0	31484	
4119	0	31572	
4120	0	31700	
4121	0	31736	
4122	0	31698	
4123	0	31632	
4124	0	31576	
4125	0	31592	
4126	0	31608	
4127	0	31594	
4128	0	31620	
4129	0	31644	
4130	0	31764	
4131	0	31884	
4132	0	31948	
4133	0	32018	
4134	0	32052	
4135	0	31940	
4136	0	31928	
4137	0	32000	
4138	0	32072	
4139	0	32132	
4140	0	32168	
4141	0	32160	
4142	0	32036	
4143	0	31904	
4144	0	31872	
4145	0	31880	
4146	0	31752	
4147	0	31596	
4148	0	31544	
4149	0	31512	
4150	0	31456	
4151	0	31320	
4152	0	31160	
4153	0	30992	
4154	0	30616	
4155	0	30108	
4156	0	29584	
4157	0	29190	
4158	0	28952	
4159	0	28944	
4160	0	29212	
4161	0	29660	
4162	0	30160	
4163	0	30740	
4164	0	31356	
4165	0	32122	
4166	0	33028	
4167	0	34132	
4168	0	35312	
4169	0	36602	
4170	0	38184	
4171	0	40092	
4172	0	42024	
4173	0	43960	
4174	0	45968	
4175	0	48116	
4176	0	50368	
4177	0	52668	
4178	0	55228	
4179	0	57884	
4180	0	60496	
4181	0	62600	
4182	0	63720	
4183	0	64288	
4184	0	64532	
4185	0	64616	
4186	0	64576	
4187	0	64536	
4188	0	64432	
4189	0	64320	
4190	0	64204	
4191	0	64076	
4192	0	63952	
4193	0	61052	
4194	0	56360	
4195	0	51796	
4196	0	47160	
4197	0	42732	
4198	0	38780	
4199	0	35384	
4200	0	32544	
4201	0	30204	
4202	0	28352	
4203	0	27016	
4204	0	26204	
4205	0	25880	
4206	0	25736	
4207	0	25570	
4208	0	25300	
4209	0	25016	
4210	0	24724	
4211	0	24320	
4212	0	24092	
4213	0	24228	
4214	0	24608	
4215	0	24938	
4216	0	25128	
4217	0	25422	
4218	0	25813	
4219	0	26240	
4220	0	26728	
4221	0	27316	
4222	0	27932	
4223	0	28328	
4224	0	28608	
4225	0	28868	
4226	0	29154	
4227	0	29412	
4228	0	29546	
4229	0	29584	
4230	0	29620	
4231	0	29780	
4232	0	29922	
4233	0	30008	
4234	0	30048	
4235	0	30096	
4236	0	30128	
4237	0	30144	
4238	0	30132	
4239	0	30156	
4240	0	30196	
4241	0	30100	
4242	0	29924	
4243	0	29756	
4244	0	29528	
4245	0	29360	
4246	0	29332	
4247	0	29456	
4248	0	29632	
4249	0	29808	
4250	0	30108	
4251	0	30280	
4252	0	30388	
4253	0	30514	
4254	0	30608	
4255	0	30668	
4256	0	30734	
4257	0	30800	
4258	0	30864	
4259	0	30856	
4260	0	30796	
4261	0	30816	
4262	0	30880	
4263	0	30970	
4264	0	31008	
4265	0	30992	
4266	0	30968	
4267	0	30968	
4268	0	30972	
4269	0	31026	
4270	0	31088	
4271	0	31000	
4272	0	30896	
4273	0	30760	
4274	0	30668	
4275	0	30656	
4276	0	30628	
4277	0	30672	
4278	0	30772	
4279	0	30832	
4280	0	30932	
4281	0	31108	
4282	0	31316	
4283	0	31520	
4284	0	31660	
4285	0	31792	
4286	0	31940	
4287	0	32068	
4288	0	32072	
4289	0	32016	
4290	0	32008	
4291	0	31948	
4292	0	31832	
4293	0	31680	
4294	0	31600	
4295	0	31588	
4296	0	31644	
4297	0	31764	
4298	0	31836	
4299	0	31712	
4300	0	31552	
4301	0	31568	
4302	0	31630	
4303	0	31636	
4304	0	31588	
4305	0	31396	
4306	0	31252	
4307	0	31366	
4308	0	31640	
4309	0	32032	
4310	0	32288	
4311	0	32376	
4312	0	32376	
4313	0	32512	
4314	0	32764	
4315	0	32956	
4316	0	33096	
4317	0	33204	
4318	0	33292	
4319	0	33332	
4320	0	33372	
4321	0	33356	
4322	0	33236	
4323	0	32968	
4324	0	32800	
4325	0	32728	
4326	0	32644	
4327	0	32560	
4328	0	32444	
4329	0	32432	
4330	0	32528	
4331	0	32736	
4332	0	32884	
4333	0	33028	
4334	0	33260	
4335	0	33472	
4336	0	33558	
4337	0	33576	
4338	0	33712	
4339	0	33856	
4340	0	33968	
4341	0	34016	
4342	0	34132	
4343	0	34280	
4344	0	34356	
4345	0	34266	
4346	0	34128	
4347	0	33964	
4348	0	33836	
4349	0	33744	
4350	0	33626	
4351	0	33626	
4352	0	33748	
4353	0	33800	
4354	0	33864	
4355	0	33950	
4356	0	34024	
4357	0	34064	
4358	0	34072	
4359	0	34152	
4360	0	34340	
4361	0	34464	
4362	0	34628	
4363	0	34744	
4364	0	34800	
4365	0	34808	
4366	0	34804	
4367	0	34876	
4368	0	34984	
4369	0	35052	
4370	0	35136	
4371	0	35216	
4372	0	35264	
4373	0	35384	
4374	0	35478	
4375	0	35468	
4376	0	35424	
4377	0	35568	
4378	0	35700	
4379	0	35692	
4380	0	35568	
4381	0	35432	
4382	0	35240	
4383	0	35050	
4384	0	35008	
4385	0	35104	
4386	0	35314	
4387	0	35548	
4388	0	35744	
4389	0	35916	
4390	0	36088	
4391	0	36256	
4392	0	36364	
4393	0	36426	
4394	0	36484	
4395	0	36482	
4396	0	36500	
4397	0	36608	
4398	0	36608	
4399	0	36474	
4400	0	36448	
4401	0	36500	
4402	0	36528	
4403	0	36440	
4404	0	36296	
4405	0	36202	
4406	0	36120	
4407	0	36060	
4408	0	36058	
4409	0	36104	
4410	0	36220	
4411	0	36492	
4412	0	36772	
4413	0	36984	
4414	0	37128	
4415	0	37200	
4416	0	37252	
4417	0	37288	
4418	0	37272	
4419	0	37256	
4420	0	37280	
4421	0	37264	
4422	0	37152	
4423	0	36912	
4424	0	36712	
4425	0	36544	
4426	0	36384	
4427	0	36228	
4428	0	36016	
4429	0	35860	
4430	0	35840	
4431	0	35900	
4432	0	36036	
4433	0	36128	
4434	0	36124	
4435	0	36008	
4436	0	35896	
4437	0	35896	
4438	0	36000	
4439	0	36032	
4440	0	35912	
4441	0	35800	
4442	0	35664	
4443	0	35496	
4444	0	35264	
4445	0	34992	
4446	0	34780	
4447	0	34672	
4448	0	34672	
4449	0	34648	
4450	0	34540	
4451	0	34396	
4452	0	34156	
4453	0	33868	
4454	0	33616	
4455	0	33360	
4456	0	33112	
4457	0	32960	
4458	0	32908	
4459	0	32796	
4460	0	32684	
4461	0	32612	
4462	0	32416	
4463	0	32152	
4464	0	31966	
4465	0	31828	
4466	0	31660	
4467	0	31508	
4468	0	31448	
4469	0	31412	
4470	0	31276	
4471	0	30984	
4472	0	30712	
4473	0	30524	
4474	0	30412	
4475	0	30304	
4476	0	30208	
4477	0	30040	
4478	0	29840	
4479	0	29688	
4480	0	29548	
4481	0	29360	
4482	0	29132	
4483	0	28908	
4484	0	28660	
4485	0	28572	
4486	0	28612	
4487	0	28676	
4488	0	28802	
4489	0	28934	
4490	0	28964	
4491	0	28944	
4492	0	29008	
4493	0	28996	
4494	0	28974	
4495	0	29002	
4496	0	29044	
4497	0	29080	
4498	0	29064	
4499	0	28952	
4500	0	28864	
4501	0	28848	
4502	0	28844	
4503	0	28720	
4504	0	28612	
4505	0	28576	
4506	0	28516	
4507	0	28428	
4508	0	28384	
4509	0	28356	
4510	0	28456	
4511	0	28568	
4512	0	28576	
4513	0	28476	
4514	0	28400	
4515	0	28348	
4516	0	28346	
4517	0	28352	
4518	0	28344	
4519	0	28396	
4520	0	28604	
4521	0	28812	
4522	0	28988	
4523	0	29160	
4524	0	29308	
4525	0	29416	
4526	0	29492	
4527	0	29416	
4528	0	29140	
4529	0	28780	
4530	0	28372	
4531	0	28120	
4532	0	28008	
4533	0	28068	
4534	0	28278	
4535	0	28596	
4536	0	28932	
4537	0	29232	
4538	0	29500	
4539	0	29696	
4540	0	29920	
4541	0	30108	
4542	0	30236	
4543	0	30368	
4544	0	30468	
4545	0	30568	
4546	0	30592	
4547	0	30580	
4548	0	30600	
4549	0	30540	
4550	0	30472	
4551	0	30384	
4552	0	30256	
4553	0	30172	
4554	0	30024	
4555	0	29824	
4556	0	29704	
4557	0	29608	
4558	0	29530	
4559	0	29456	
4560	0	29328	
4561	0	29380	
4562	0	29548	
4563	0	29768	
4564	0	30008	
4565	0	30196	
4566	0	30340	
4567	0	30548	
4568	0	30792	
4569	0	31016	
4570	0	31200	
4571	0	31220	
4572	0	31132	
4573	0	31160	
4574	0	31228	
4575	0	31220	
4576	0	31144	
4577	0	31048	
4578	0	31076	
4579	0	31076	
4580	0	31004	
4581	0	30860	
4582	0	30712	
4583	0	30576	
4584	0	30464	
4585	0	30388	
4586	0	30296	
4587	0	30264	
4588	0	30272	
4589	0	30362	
4590	0	30516	
4591	0	30692	
4592	0	30768	
4593	0	30776	
4594	0	30716	
4595	0	30696	
4596	0	30780	
4597	0	30866	
4598	0	30996	
4599	0	31180	
4600	0	31296	
4601	0	31416	
4602	0	31648	
4603	0	31728	
4604	0	31736	
4605	0	31688	
4606	0	31640	
4607	0	31564	
4608	0	31482	
4609	0	31402	
4610	0	31384	
4611	0	31392	
4612	0	31412	
4613	0	31420	
4614	0	31412	
4615	0	31440	
4616	0	31482	
4617	0	31450	
4618	0	31508	
4619	0	31586	
4620	0	31592	
4621	0	31620	
4622	0	31724	
4623	0	31802	
4624	0	31840	
4625	0	31764	
4626	0	31696	
4627	0	31648	
4628	0	31628	
4629	0	31724	
4630	0	31712	
4631	0	31588	
4632	0	31560	
4633	0	31560	
4634	0	31500	
4635	0	31368	
4636	0	31224	
4637	0	31136	
4638	0	31140	
4639	0	31232	
4640	0	31284	
4641	0	31336	
4642	0	31380	
4643	0	31320	
4644	0	31256	
4645	0	31264	
4646	0	31300	
4647	0	31408	
4648	0	31556	
4649	0	31708	
4650	0	31786	
4651	0	31872	
4652	0	31936	
4653	0	31872	
4654	0	31810	
4655	0	31828	
4656	0	31876	
4657	0	31824	
4658	0	31744	
4659	0	31744	
4660	0	31732	
4661	0	31742	
4662	0	31682	
4663	0	31644	
4664	0	31600	
4665	0	31604	
4666	0	31664	
4667	0	31812	
4668	0	31916	
4669	0	32012	
4670	0	32084	
4671	0	32100	
4672	0	32092	
4673	0	32040	
4674	0	32016	
4675	0	31984	
4676	0	31936	
4677	0	31868	
4678	0	31882	
4679	0	31936	
4680	0	31948	
4681	0	32036	
4682	0	32128	
4683	0	32204	
4684	0	32280	
4685	0	32288	
4686	0	32334	
4687	0	32372	
4688	0	32360	
4689	0	32276	
4690	0	32284	
4691	0	32324	
4692	0	32304	
4693	0	32314	
4694	0	32404	
4695	0	32580	
4696	0	32720	
4697	0	32764	
4698	0	32802	
4699	0	32882	
4700	0	32908	
4701	0	32972	
4702	0	33084	
4703	0	33160	
4704	0	33172	
4705	0	33148	
4706	0	33192	
4707	0	33224	
4708	0	33240	
4709	0	33296	
4710	0	33348	
4711	0	33348	
4712	0	33340	
4713	0	33348	
4714	0	33340	
4715	0	33320	
4716	0	33404	
4717	0	33600	
4718	0	33760	
4719	0	33948	
4720	0	34172	
4721	0	34372	
4722	0	34556	
4723	0	34532	
4724	0	34474	
4725	0	34456	
4726	0	34504	
4727	0	34594	
4728	0	34744	
4729	0	34868	
4730	0	34964	
4731	0	35016	
4732	0	35076	
4733	0	34984	
4734	0	34900	
4735	0	34852	
4736	0	34840	
4737	0	34808	
4738	0	34824	
4739	0	34864	
4740	0	34780	
4741	0	34660	
4742	0	34690	
4743	0	34808	
4744	0	34932	
4745	0	35012	
4746	0	34968	
4747	0	34804	
4748	0	34692	
4749	0	34484	
4750	0	34224	
4751	0	33960	
4752	0	33696	
4753	0	33468	
4754	0	33272	
4755	0	32976	
4756	0	32740	
4757	0	32608	
4758	0	32420	
4759	0	32292	
4760	0	32236	
4761	0	32072	
4762	0	31832	
4763	0	31544	
4764	0	31160	
4765	0	30864	
4766	0	30744	
4767	0	30552	
4768	0	30264	
4769	0	30096	
4770	0	30032	
4771	0	30048	
4772	0	30076	
4773	0	30092	
4774	0	29988	
4775	0	29964	
4776	0	30120	
4777	0	30336	
4778	0	30604	
4779	0	30852	
4780	0	31100	
4781	0	31280	
4782	0	31380	
4783	0	31460	
4784	0	31568	
4785	0	31604	
4786	0	31554	
4787	0	31464	
4788	0	31372	
4789	0	31238	
4790	0	31092	
4791	0	31030	
4792	0	31044	
4793	0	31052	
4794	0	31020	
4795	0	30972	
4796	0	30904	
4797	0	30948	
4798	0	31040	
4799	0	31072	
4800	0	31120	
4801	0	31192	
4802	0	31252	
4803	0	31248	
4804	0	31236	
4805	0	31180	
4806	0	31004	
4807	0	30847	
4808	0	30752	
4809	0	30820	
4810	0	30972	
4811	0	31168	
4812	0	31320	
4813	0	31516	
4814	0	31648	
4815	0	31720	
4816	0	31716	
4817	0	31754	
4818	0	31816	
4819	0	31780	
4820	0	31576	
4821	0	31400	
4822	0	31304	
4823	0	31202	
4824	0	31128	
4825	0	31124	
4826	0	31176	
4827	0	31248	
4828	0	31344	
4829	0	31352	
4830	0	31172	
4831	0	30848	
4832	0	30528	
4833	0	30280	
4834	0	29852	
4835	0	29152	
4836	0	28440	
4837	0	27864	
4838	0	27644	
4839	0	27792	
4840	0	28088	
4841	0	28552	
4842	0	29184	
4843	0	29944	
4844	0	30770	
4845	0	31672	
4846	0	32744	
4847	0	33842	
4848	0	34996	
4849	0	36264	
4850	0	37600	
4851	0	39048	
4852	0	40664	
4853	0	42388	
4854	0	44204	
4855	0	46148	
4856	0	48240	
4857	0	50400	
4858	0	52800	
4859	0	55344	
4860	0	57876	
4861	0	60408	
4862	0	62512	
4863	0	63656	
4864	0	64208	
4865	0	64472	
4866	0	64532	
4867	0	64536	
4868	0	64456	
4869	0	64360	
4870	0	64264	
4871	0	64132	
4872	0	64006	
4873	0	63908	
4874	0	60088	
4875	0	54784	
4876	0	49644	
4877	0	44728	
4878	0	40356	
4879	0	36696	
4880	0	33508	
4881	0	30712	
4882	0	28372	
4883	0	26472	
4884	0	25180	
4885	0	24528	
4886	0	24256	
4887	0	24076	
4888	0	23932	
4889	0	23808	
4890	0	23626	
4891	0	23476	
4892	0	23380	
4893	0	23368	
4894	0	23364	
4895	0	23472	
4896	0	23792	
4897	0	24208	
4898	0	24652	
4899	0	25208	
4900	0	25856	
4901	0	26480	
4902	0	27112	
4903	0	27756	
4904	0	28368	
4905	0	28860	
4906	0	29162	
4907	0	29368	
4908	0	29556	
4909	0	29736	
4910	0	29864	
4911	0	30016	
4912	0	30196	
4913	0	30282	
4914	0	30272	
4915	0	30216	
4916	0	30104	
4917	0	29988	
4918	0	30008	
4919	0	30080	
4920	0	30080	
4921	0	29988	
4922	0	29936	
4923	0	29894	
4924	0	29836	
4925	0	29744	
4926	0	29584	
4927	0	29452	
4928	0	29404	
4929	0	29436	
4930	0	29536	
4931	0	29696	
4932	0	29688	
4933	0	29572	
4934	0	29568	
4935	0	29568	
4936	0	29624	
4937	0	29780	
4938	0	29976	
4939	0	30128	
4940	0	30252	
4941	0	30352	
4942	0	30426	
4943	0	30436	
4944	0	30436	
4945	0	30504	
4946	0	30636	
4947	0	30752	
4948	0	30788	
4949	0	30736	
4950	0	30656	
4951	0	30644	
4952	0	30640	
4953	0	30580	
4954	0	30552	
4955	0	30596	
4956	0	30660	
4957	0	30780	
4958	0	30936	
4959	0	31096	
4960	0	31216	
4961	0	31332	
4962	0	31428	
4963	0	31440	
4964	0	31360	
4965	0	31250	
4966	0	31180	
4967	0	31108	
4968	0	31020	
4969	0	30904	
4970	0	30794	
4971	0	30756	
4972	0	30884	
4973	0	31108	
4974	0	31330	
4975	0	31516	
4976	0	31688	
4977	0	31872	
4978	0	32000	
4979	0	32132	
4980	0	32232	
4981	0	32164	
4982	0	31988	
4983	0	31776	
4984	0	31580	
4985	0	31506	
4986	0	31456	
4987	0	31480	
4988	0	31628	
4989	0	31844	
4990	0	32108	
4991	0	32440	
4992	0	32672	
4993	0	32848	
4994	0	33012	
4995	0	33124	
4996	0	33164	
4997	0	33180	
4998	0	33204	
4999	0	33188	
5000	0	33168	
5001	0	33156	
5002	0	33060	
5003	0	32816	
5004	0	32536	
5005	0	32328	
5006	0	32180	
5007	0	32004	
5008	0	31948	
5009	0	32004	
5010	0	32168	
5011	0	32384	
5012	0	32664	
5013	0	32888	
5014	0	33052	
5015	0	33308	
5016	0	33580	
5017	0	33756	
5018	0	33864	
5019	0	33880	
5020	0	33904	
5021	0	34032	
5022	0	34168	
5023	0	34160	
5024	0	34064	
5025	0	33952	
5026	0	33744	
5027	0	33436	
5028	0	33066	
5029	0	32736	
5030	0	32592	
5031	0	32636	
5032	0	32880	
5033	0	33200	
5034	0	33520	
5035	0	33764	
5036	0	33908	
5037	0	34036	
5038	0	34208	
5039	0	34336	
5040	0	34484	
5041	0	34608	
5042	0	34700	
5043	0	34756	
5044	0	34856	
5045	0	35040	
5046	0	35264	
5047	0	35444	
5048	0	35524	
5049	0	35560	
5050	0	35552	
5051	0	35480	
5052	0	35480	
5053	0	35472	
5054	0	35492	
5055	0	35476	
5056	0	35508	
5057	0	35488	
5058	0	35418	
5059	0	35344	
5060	0	35364	
5061	0	35352	
5062	0	35276	
5063	0	35184	
5064	0	35164	
5065	0	35164	
5066	0	35144	
5067	0	35200	
5068	0	35360	
5069	0	35400	
5070	0	35288	
5071	0	35184	
5072	0	35202	
5073	0	35330	
5074	0	35540	
5075	0	35764	
5076	0	35992	
5077	0	36224	
5078	0	36364	
5079	0	36456	
5080	0	36496	
5081	0	36468	
5082	0	36412	
5083	0	36528	
5084	0	36724	
5085	0	36788	
5086	0	36816	
5087	0	36828	
5088	0	36840	
5089	0	36784	
5090	0	36676	
5091	0	36496	
5092	0	36364	
5093	0	36184	
5094	0	36048	
5095	0	36060	
5096	0	35968	
5097	0	35864	
5098	0	35828	
5099	0	35864	
5100	0	35904	
5101	0	36074	
5102	0	36396	
5103	0	36716	
5104	0	37056	
5105	0	37376	
5106	0	37636	
5107	0	37752	
5108	0	37736	
5109	0	37700	
5110	0	37676	
5111	0	37578	
5112	0	37412	
5113	0	37238	
5114	0	37056	
5115	0	36820	
5116	0	36508	
5117	0	36188	
5118	0	35904	
5119	0	35732	
5120	0	35504	
5121	0	35148	
5122	0	34760	
5123	0	34434	
5124	0	34176	
5125	0	34088	
5126	0	34160	
5127	0	34312	
5128	0	34348	
5129	0	34336	
5130	0	34404	
5131	0	34464	
5132	0	34416	
5133	0	34324	
5134	0	34272	
5135	0	34216	
5136	0	34104	
5137	0	33956	
5138	0	33808	
5139	0	33648	
5140	0	33412	
5141	0	33108	
5142	0	32824	
5143	0	32576	
5144	0	32364	
5145	0	32176	
5146	0	31900	
5147	0	31644	
5148	0	31428	
5149	0	31330	
5150	0	31228	
5151	0	30996	
5152	0	30648	
5153	0	30376	
5154	0	30204	
5155	0	30044	
5156	0	29940	
5157	0	29824	
5158	0	29600	
5159	0	29400	
5160	0	29228	
5161	0	29160	
5162	0	29178	
5163	0	29248	
5164	0	29356	
5165	0	29412	
5166	0	29440	
5167	0	29428	
5168	0	29380	
5169	0	29402	
5170	0	29408	
5171	0	29340	
5172	0	29198	
5173	0	28964	
5174	0	28588	
5175	0	28172	
5176	0	27848	
5177	0	27612	
5178	0	27388	
5179	0	27314	
5180	0	27388	
5181	0	27536	
5182	0	27612	
5183	0	27672	
5184	0	27840	
5185	0	28044	
5186	0	28232	
5187	0	28476	
5188	0	28770	
5189	0	29004	
5190	0	29168	
5191	0	29226	
5192	0	29216	
5193	0	29288	
5194	0	29360	
5195	0	29380	
5196	0	29364	
5197	0	29312	
5198	0	29250	
5199	0	29202	
5200	0	29128	
5201	0	29004	
5202	0	28904	
5203	0	28816	
5204	0	28740	
5205	0	28768	
5206	0	28852	
5207	0	28844	
5208	0	28752	
5209	0	28716	
5210	0	28748	
5211	0	28832	
5212	0	28894	
5213	0	28820	
5214	0	28772	
5215	0	28676	
5216	0	28452	
5217	0	28308	
5218	0	28256	
5219	0	28352	
5220	0	28512	
5221	0	28760	
5222	0	29156	
5223	0	29454	
5224	0	29580	
5225	0	29664	
5226	0	29780	
5227	0	29884	
5228	0	29972	
5229	0	30040	
5230	0	30176	
5231	0	30234	
5232	0	30168	
5233	0	30136	
5234	0	30124	
5235	0	30124	
5236	0	30188	
5237	0	30234	
5238	0	30176	
5239	0	30038	
5240	0	29872	
5241	0	29728	
5242	0	29608	
5243	0	29496	
5244	0	29384	
5245	0	29368	
5246	0	29408	
5247	0	29560	
5248	0	29748	
5249	0	29860	
5250	0	29932	
5251	0	29948	
5252	0	29920	
5253	0	30004	
5254	0	30184	
5255	0	30432	
5256	0	30712	
5257	0	30952	
5258	0	31222	
5259	0	31468	
5260	0	31576	
5261	0	31552	
5262	0	31404	
5263	0	31232	
5264	0	31104	
5265	0	30972	
5266	0	30856	
5267	0	30836	
5268	0	30848	
5269	0	30900	
5270	0	30960	
5271	0	31040	
5272	0	31020	
5273	0	30872	
5274	0	30718	
5275	0	30668	
5276	0	30708	
5277	0	30724	
5278	0	30684	
5279	0	30732	
5280	0	30832	
5281	0	30924	
5282	0	30988	
5283	0	31096	
5284	0	31300	
5285	0	31448	
5286	0	31488	
5287	0	31484	
5288	0	31400	
5289	0	31304	
5290	0	31272	
5291	0	31328	
5292	0	31348	
5293	0	31304	
5294	0	31340	
5295	0	31420	
5296	0	31416	
5297	0	31332	
5298	0	31380	
5299	0	31376	
5300	0	31314	
5301	0	31240	
5302	0	31264	
5303	0	31404	
5304	0	31536	
5305	0	31712	
5306	0	31760	
5307	0	31624	
5308	0	31440	
5309	0	31268	
5310	0	31096	
5311	0	31028	
5312	0	30944	
5313	0	30860	
5314	0	30856	
5315	0	30872	
5316	0	30796	
5317	0	30868	
5318	0	31130	
5319	0	31312	
5320	0	31468	
5321	0	31780	
5322	0	32144	
5323	0	32404	
5324	0	32472	
5325	0	32368	
5326	0	32230	
5327	0	32188	
5328	0	32178	
5329	0	32188	
5330	0	32276	
5331	0	32360	
5332	0	32456	
5333	0	32516	
5334	0	32480	
5335	0	32464	
5336	0	32408	
5337	0	32274	
5338	0	32172	
5339	0	32120	
5340	0	32068	
5341	0	31982	
5342	0	31840	
5343	0	31816	
5344	0	31782	
5345	0	31752	
5346	0	31728	
5347	0	31752	
5348	0	31840	
5349	0	31989	
5350	0	32156	
5351	0	32180	
5352	0	32160	
5353	0	32200	
5354	0	32280	
5355	0	32392	
5356	0	32512	
5357	0	32580	
5358	0	32534	
5359	0	32480	
5360	0	32416	
5361	0	32278	
5362	0	32108	
5363	0	32072	
5364	0	32058	
5365	0	32060	
5366	0	31996	
5367	0	31916	
5368	0	31944	
5369	0	31948	
5370	0	31876	
5371	0	31740	
5372	0	31728	
5373	0	31716	
5374	0	31708	
5375	0	31760	
5376	0	31840	
5377	0	31856	
5378	0	31844	
5379	0	31792	
5380	0	31776	
5381	0	31848	
5382	0	32000	
5383	0	32164	
5384	0	32312	
5385	0	32368	
5386	0	32408	
5387	0	32424	
5388	0	32400	
5389	0	32360	
5390	0	32344	
5391	0	32224	
5392	0	32114	
5393	0	31942	
5394	0	31664	
5395	0	31508	
5396	0	31490	
5397	0	31516	
5398	0	31620	
5399	0	31776	
5400	0	31888	
5401	0	32028	
5402	0	32292	
5403	0	32476	
5404	0	32572	
5405	0	32570	
5406	0	32484	
5407	0	32324	
5408	0	32176	
5409	0	32064	
5410	0	31916	
5411	0	31832	
5412	0	31952	
5413	0	32232	
5414	0	32556	
5415	0	32936	
5416	0	33376	
5417	0	33780	
5418	0	34112	
5419	0	34352	
5420	0	34484	
5421	0	34524	
5422	0	34552	
5423	0	34580	
5424	0	34548	
5425	0	34396	
5426	0	34240	
5427	0	34084	
5428	0	33964	
5429	0	33940	
5430	0	33996	
5431	0	34088	
5432	0	34216	
5433	0	34302	
5434	0	34416	
5435	0	34464	
5436	0	34404	
5437	0	34228	
5438	0	33972	
5439	0	33774	
5440	0	33760	
5441	0	33920	
5442	0	34096	
5443	0	34236	
5444	0	34348	
5445	0	34514	
5446	0	34784	
5447	0	34940	
5448	0	35104	
5449	0	35392	
5450	0	35664	
5451	0	35832	
5452	0	35980	
5453	0	36044	
5454	0	36064	
5455	0	36076	
5456	0	36020	
5457	0	35872	
5458	0	35648	
5459	0	35440	
5460	0	35280	
5461	0	35104	
5462	0	34892	
5463	0	34760	
5464	0	34588	
5465	0	34324	
5466	0	34000	
5467	0	33656	
5468	0	33464	
5469	0	33424	
5470	0	33352	
5471	0	33188	
5472	0	32928	
5473	0	32624	
5474	0	32384	
5475	0	32328	
5476	0	32488	
5477	0	32648	
5478	0	32728	
5479	0	32776	
5480	0	32752	
5481	0	32668	
5482	0	32484	
5483	0	32312	
5484	0	32156	
5485	0	32064	
5486	0	32048	
5487	0	32028	
5488	0	31876	
5489	0	31682	
5490	0	31440	
5491	0	31200	
5492	0	31002	
5493	0	30876	
5494	0	30808	
5495	0	30784	
5496	0	30704	
5497	0	30496	
5498	0	30234	
5499	0	29992	
5500	0	29816	
5501	0	29790	
5502	0	29940	
5503	0	30080	
5504	0	30160	
5505	0	30352	
5506	0	30656	
5507	0	30936	
5508	0	31120	
5509	0	31262	
5510	0	31388	
5511	0	31456	
5512	0	31476	
5513	0	31388	
5514	0	31344	
5515	0	31336	
5516	0	31300	
5517	0	31354	
5518	0	31412	
5519	0	31352	
5520	0	31264	
5521	0	31232	
5522	0	31240	
5523	0	31226	
5524	0	31172	
5525	0	31080	
5526	0	30928	
5527	0	30696	
5528	0	30452	
5529	0	30320	
5530	0	30274	
5531	0	30432	
5532	0	30762	
5533	0	31096	
5534	0	31488	
5535	0	31796	
5536	0	31864	
5537	0	31832	
5538	0	31824	
5539	0	31888	
5540	0	32056	
5541	0	32332	
5542	0	32562	
5543	0	32656	
5544	0	32602	
5545	0	32548	
5546	0	32528	
5547	0	32476	
5548	0	32400	
5549	0	32292	
5550	0	32144	
5551	0	31908	
5552	0	31656	
5553	0	31364	
5554	0	30840	
5555	0	30104	
5556	0	29400	
5557	0	28632	
5558	0	27900	
5559	0	27400	
5560	0	27206	
5561	0	27394	
5562	0	27908	
5563	0	28568	
5564	0	29404	
5565	0	30268	
5566	0	31236	
5567	0	32372	
5568	0	33616	
5569	0	34924	
5570	0	36416	
5571	0	38040	
5572	0	39760	
5573	0	41560	
5574	0	43460	
5575	0	45520	
5576	0	47644	
5577	0	49872	
5578	0	52180	
5579	0	54544	
5580	0	56908	
5581	0	59416	
5582	0	61840	
5583	0	63400	
5584	0	64196	
5585	0	64556	
5586	0	64716	
5587	0	64720	
5588	0	64684	
5589	0	64604	
5590	0	64496	
5591	0	64396	
5592	0	64240	
5593	0	64128	
5594	0	59760	
5595	0	54688	
5596	0	49848	
5597	0	45200	
5598	0	40992	
5599	0	37312	
5600	0	33984	
5601	0	31074	
5602	0	28588	
5603	0	26588	
5604	0	25308	
5605	0	24604	
5606	0	24276	
5607	0	24082	
5608	0	23996	
5609	0	23880	
5610	0	23782	
5611	0	23712	
5612	0	23740	
5613	0	23872	
5614	0	24020	
5615	0	24296	
5616	0	24620	
5617	0	24964	
5618	0	25380	
5619	0	25952	
5620	0	26516	
5621	0	26922	
5622	0	27186	
5623	0	27486	
5624	0	27796	
5625	0	28056	
5626	0	28324	
5627	0	28656	
5628	0	29036	
5629	0	29392	
5630	0	29732	
5631	0	30020	
5632	0	30260	
5633	0	30400	
5634	0	30496	
5635	0	30544	
5636	0	30560	
5637	0	30562	
5638	0	30504	
5639	0	30416	
5640	0	30304	
5641	0	30160	
5642	0	30004	
5643	0	29816	
5644	0	29628	
5645	0	29476	
5646	0	29284	
5647	0	28908	
5648	0	28560	
5649	0	28228	
5650	0	28030	
5651	0	28056	
5652	0	28140	
5653	0	28436	
5654	0	28996	
5655	0	29502	
5656	0	29924	
5657	0	30252	
5658	0	30520	
5659	0	30796	
5660	0	31060	
5661	0	31288	
5662	0	31308	
5663	0	31244	
5664	0	31216	
5665	0	31268	
5666	0	31344	
5667	0	31388	
5668	0	31356	
5669	0	31300	
5670	0	31256	
5671	0	31184	
5672	0	31116	
5673	0	31044	
5674	0	30984	
5675	0	30996	
5676	0	30976	
5677	0	30852	
5678	0	30688	
5679	0	30460	
5680	0	30212	
5681	0	30108	
5682	0	30144	
5683	0	30300	
5684	0	30522	
5685	0	30792	
5686	0	30976	
5687	0	31060	
5688	0	31086	
5689	0	31140	
5690	0	31340	
5691	0	31562	
5692	0	31700	
5693	0	31816	
5694	0	31872	
5695	0	31848	
5696	0	31712	
5697	0	31528	
5698	0	31248	
5699	0	31008	
5700	0	30840	
5701	0	30740	
5702	0	30676	
5703	0	30744	
5704	0	30816	
5705	0	30952	
5706	0	31180	
5707	0	31552	
5708	0	31912	
5709	0	32140	
5710	0	32320	
5711	0	32372	
5712	0	32388	
5713	0	32474	
5714	0	32576	
5715	0	32680	
5716	0	32740	
5717	0	32700	
5718	0	32590	
5719	0	32568	
5720	0	32628	
5721	0	32788	
5722	0	32978	
5723	0	33160	
5724	0	33304	
5725	0	33312	
5726	0	33152	
5727	0	33008	
5728	0	32928	
5729	0	32896	
5730	0	32820	
5731	0	32772	
5732	0	32896	
5733	0	33012	
5734	0	33046	
5735	0	33056	
5736	0	33120	
5737	0	33280	
5738	0	33432	
5739	0	33490	
5740	0	33376	
5741	0	33118	
5742	0	32816	
5743	0	32568	
5744	0	32524	
5745	0	32612	
5746	0	32800	
5747	0	33032	
5748	0	33264	
5749	0	33428	
5750	0	33592	
5751	0	33732	
5752	0	33820	
5753	0	33980	
5754	0	34184	
5755	0	34248	
5756	0	34184	
5757	0	34096	
5758	0	34004	
5759	0	33968	
5760	0	33932	
5761	0	33890	
5762	0	33912	
5763	0	33986	
5764	0	34164	
5765	0	34416	
5766	0	34640	
5767	0	34808	
5768	0	34856	
5769	0	34828	
5770	0	34736	
5771	0	34648	
5772	0	34528	
5773	0	34400	
5774	0	34348	
5775	0	34260	
5776	0	34172	
5777	0	34168	
5778	0	34168	
5779	0	34312	
5780	0	34688	
5781	0	35036	
5782	0	35314	
5783	0	35464	
5784	0	35568	
5785	0	35810	
5786	0	36016	
5787	0	36062	
5788	0	36018	
5789	0	35912	
5790	0	35776	
5791	0	35788	
5792	0	35904	
5793	0	36032	
5794	0	36144	
5795	0	36236	
5796	0	36360	
5797	0	36464	
5798	0	36536	
5799	0	36664	
5800	0	36736	
5801	0	36852	
5802	0	36932	
5803	0	36956	
5804	0	36976	
5805	0	37016	
5806	0	36960	
5807	0	36688	
5808	0	36456	
5809	0	36248	
5810	0	36128	
5811	0	36080	
5812	0	36064	
5813	0	36004	
5814	0	36056	
5815	0	36256	
5816	0	36428	
5817	0	36436	
5818	0	36292	
5819	0	36160	
5820	0	36244	
5821	0	36456	
5822	0	36776	
5823	0	37056	
5824	0	37304	
5825	0	37426	
5826	0	37484	
5827	0	37532	
5828	0	37512	
5829	0	37500	
5830	0	37472	
5831	0	37352	
5832	0	37216	
5833	0	36964	
5834	0	36700	
5835	0	36554	
5836	0	36576	
5837	0	36654	
5838	0	36664	
5839	0	36532	
5840	0	36428	
5841	0	36312	
5842	0	36148	
5843	0	35860	
5844	0	35512	
5845	0	35296	
5846	0	35212	
5847	0	35072	
5848	0	34932	
5849	0	34880	
5850	0	34856	
5851	0	34848	
5852	0	34864	
5853	0	34760	
5854	0	34636	
5855	0	34532	
5856	0	34444	
5857	0	34284	
5858	0	34060	
5859	0	33848	
5860	0	33596	
5861	0	33352	
5862	0	33088	
5863	0	32800	
5864	0	32496	
5865	0	32156	
5866	0	31808	
5867	0	31580	
5868	0	31338	
5869	0	31116	
5870	0	30884	
5871	0	30649	
5872	0	30468	
5873	0	30284	
5874	0	30214	
5875	0	30212	
5876	0	30272	
5877	0	30296	
5878	0	30256	
5879	0	30308	
5880	0	30392	
5881	0	30496	
5882	0	30458	
5883	0	30332	
5884	0	30140	
5885	0	29848	
5886	0	29468	
5887	0	29108	
5888	0	28872	
5889	0	28840	
5890	0	28864	
5891	0	28844	
5892	0	28908	
5893	0	28996	
5894	0	28964	
5895	0	28928	
5896	0	29032	
5897	0	28960	
5898	0	28736	
5899	0	28460	
5900	0	28168	
5901	0	27976	
5902	0	27816	
5903	0	27608	
5904	0	27597	
5905	0	27740	
5906	0	28064	
5907	0	28376	
5908	0	28536	
5909	0	28676	
5910	0	28832	
5911	0	28864	
5912	0	28984	
5913	0	29192	
5914	0	29288	
5915	0	29248	
5916	0	29146	
5917	0	28982	
5918	0	28804	
5919	0	28632	
5920	0	28488	
5921	0	28298	
5922	0	28048	
5923	0	28020	
5924	0	28092	
5925	0	28108	
5926	0	28176	
5927	0	28344	
5928	0	28588	
5929	0	28886	
5930	0	29192	
5931	0	29316	
5932	0	29338	
5933	0	29306	
5934	0	29268	
5935	0	29368	
5936	0	29424	
5937	0	29416	
5938	0	29368	
5939	0	29270	
5940	0	29120	
5941	0	29056	
5942	0	29032	
5943	0	29072	
5944	0	29144	
5945	0	29040	
5946	0	28756	
5947	0	28572	
5948	0	28540	
5949	0	28736	
5950	0	28912	
5951	0	29100	
5952	0	29420	
5953	0	29620	
5954	0	29752	
5955	0	29900	
5956	0	30132	
5957	0	30408	
5958	0	30616	
5959	0	30644	
5960	0	30476	
5961	0	30124	
5962	0	29648	
5963	0	29274	
5964	0	29052	
5965	0	29004	
5966	0	29008	
5967	0	29120	
5968	0	29364	
5969	0	29652	
5970	0	29876	
5971	0	30100	
5972	0	30304	
5973	0	30496	
5974	0	30652	
5975	0	30794	
5976	0	30856	
5977	0	30828	
5978	0	30784	
5979	0	30760	
5980	0	30760	
5981	0	30744	
5982	0	30776	
5983	0	30836	
5984	0	30752	
5985	0	30482	
5986	0	30212	
5987	0	29952	
5988	0	29776	
5989	0	29848	
5990	0	30180	
5991	0	30576	
5992	0	30844	
5993	0	30890	
5994	0	30824	
5995	0	30756	
5996	0	30752	
5997	0	30844	
5998	0	30938	
5999	0	31016	
6000	0	31066	
6001	0	31068	
6002	0	31130	
6003	0	31252	
6004	0	31288	
6005	0	31280	
6006	0	31272	
6007	0	31266	
6008	0	31328	
6009	0	31300	
6010	0	31222	
6011	0	31128	
6012	0	31076	
6013	0	31008	
6014	0	30852	
6015	0	30600	
6016	0	30368	
6017	0	30304	
6018	0	30376	
6019	0	30528	
6020	0	30660	
6021	0	30784	
6022	0	30924	
6023	0	30980	
6024	0	30984	
6025	0	30952	
6026	0	30968	
6027	0	31102	
6028	0	31304	
6029	0	31440	
6030	0	31456	
6031	0	31532	
6032	0	31604	
6033	0	31664	
6034	0	31752	
6035	0	31776	
6036	0	31664	
6037	0	31440	
6038	0	31280	
6039	0	31192	
6040	0	31064	
6041	0	31040	
6042	0	31132	
6043	0	31216	
6044	0	31160	
6045	0	31140	
6046	0	31136	
6047	0	31038	
6048	0	30886	
6049	0	30944	
6050	0	31140	
6051	0	31436	
6052	0	31768	
6053	0	31956	
6054	0	32024	
6055	0	32016	
6056	0	32052	
6057	0	32096	
6058	0	32192	
6059	0	32288	
6060	0	32306	
6061	0	32232	
6062	0	32180	
6063	0	32216	
6064	0	32288	
6065	0	32328	
6066	0	32252	
6067	0	32012	
6068	0	31620	
6069	0	31264	
6070	0	31116	
6071	0	31104	
6072	0	31228	
6073	0	31354	
6074	0	31420	
6075	0	31448	
6076	0	31436	
6077	0	31346	
6078	0	31280	
6079	0	31332	
6080	0	31504	
6081	0	31712	
6082	0	31954	
6083	0	32120	
6084	0	32128	
6085	0	32024	
6086	0	32032	
6087	0	32112	
6088	0	32208	
6089	0	32280	
6090	0	32280	
6091	0	32248	
6092	0	32224	
6093	0	32136	
6094	0	32008	
6095	0	31920	
6096	0	31828	
6097	0	31736	
6098	0	31668	
6099	0	31628	
6100	0	31640	
6101	0	31656	
6102	0	31648	
6103	0	31662	
6104	0	31592	
6105	0	31464	
6106	0	31340	
6107	0	31144	
6108	0	30916	
6109	0	30820	
6110	0	30820	
6111	0	30856	
6112	0	31052	
6113	0	31392	
6114	0	31680	
6115	0	31876	
6116	0	32012	
6117	0	32056	
6118	0	32080	
6119	0	32096	
6120	0	32108	
6121	0	32160	
6122	0	32140	
6123	0	32084	
6124	0	32080	
6125	0	32020	
6126	0	31880	
6127	0	31684	
6128	0	31604	
6129	0	31656	
6130	0	31832	
6131	0	32020	
6132	0	32172	
6133	0	32244	
6134	0	32256	
6135	0	32304	
6136	0	32320	
6137	0	32290	
6138	0	32224	
6139	0	32120	
6140	0	31988	
6141	0	31796	
6142	0	31564	
6143	0	31376	
6144	0	31304	
6145	0	31384	
6146	0	31424	
6147	0	31488	
6148	0	31608	
6149	0	31712	
6150	0	31648	
6151	0	31568	
6152	0	31664	
6153	0	31840	
6154	0	31948	
6155	0	31968	
6156	0	31992	
6157	0	32016	
6158	0	32004	
6159	0	32016	
6160	0	32040	
6161	0	32090	
6162	0	32078	
6163	0	32032	
6164	0	32098	
6165	0	32244	
6166	0	32352	
6167	0	32360	
6168	0	32290	
6169	0	32144	
6170	0	32012	
6171	0	31948	
6172	0	31860	
6173	0	31800	
6174	0	31904	
6175	0	32088	
6176	0	32104	
6177	0	31984	
6178	0	31768	
6179	0	31596	
6180	0	31464	
6181	0	31424	
6182	0	31556	
6183	0	31664	
6184	0	31704	
6185	0	31690	
6186	0	31712	
6187	0	31784	
6188	0	31876	
6189	0	32020	
6190	0	32312	
6191	0	32660	
6192	0	32900	
6193	0	32992	
6194	0	33030	
6195	0	33028	
6196	0	32968	
6197	0	32872	
6198	0	32784	
6199	0	32756	
6200	0	32784	
6201	0	32800	
6202	0	32780	
6203	0	32684	
6204	0	32564	
6205	0	32480	
6206	0	32420	
6207	0	32328	
6208	0	32264	
6209	0	32252	
6210	0	32258	
6211	0	32260	
6212	0	32244	
6213	0	32184	
6214	0	32012	
6215	0	31712	
6216	0	31452	
6217	0	31300	
6218	0	31268	
6219	0	31376	
6220	0	31648	
6221	0	31840	
6222	0	31884	
6223	0	31904	
6224	0	31914	
6225	0	31874	
6226	0	31888	
6227	0	32036	
6228	0	32250	
6229	0	32400	
6230	0	32430	
6231	0	32304	
6232	0	32062	
6233	0	31768	
6234	0	31564	
6235	0	31504	
6236	0	31628	
6237	0	31868	
6238	0	32152	
6239	0	32524	
6240	0	32684	
6241	0	32664	
6242	0	32584	
6243	0	32508	
6244	0	32476	
6245	0	32516	
6246	0	32608	
6247	0	32672	
6248	0	32704	
6249	0	32652	
6250	0	32552	
6251	0	32484	
6252	0	32508	
6253	0	32532	
6254	0	32544	
6255	0	32524	
6256	0	32544	
6257	0	32560	
6258	0	32588	
6259	0	32588	
6260	0	32496	
6261	0	32412	
6262	0	32356	
6263	0	32312	
6264	0	32188	
6265	0	32096	
6266	0	31988	
6267	0	31880	
6268	0	31680	
6269	0	31488	
6270	0	31454	
6271	0	31466	
6272	0	31588	
6273	0	31828	
6274	0	32088	
6275	0	32480	
6276	0	32882	
6277	0	33104	
6278	0	33216	
6279	0	33228	
6280	0	33216	
6281	0	33128	
6282	0	32992	
6283	0	32816	
6284	0	32568	
6285	0	32364	
6286	0	32296	
6287	0	32312	
6288	0	32432	
6289	0	32588	
6290	0	32614	
6291	0	32540	
6292	0	32316	
6293	0	32048	
6294	0	31912	
6295	0	31698	
6296	0	31476	
6297	0	31368	
6298	0	31332	
6299	0	31418	
6300	0	31750	
6301	0	32282	
6302	0	33008	
6303	0	33664	
6304	0	34128	
6305	0	34432	
6306	0	34656	
6307	0	34826	
6308	0	35048	
6309	0	35232	
6310	0	35264	
6311	0	35080	
6312	0	34860	
6313	0	34672	
6314	0	34440	
6315	0	34264	
6316	0	34096	
6317	0	33932	
6318	0	33764	
6319	0	33704	
6320	0	33792	
6321	0	33952	
6322	0	34048	
6323	0	34012	
6324	0	33952	
6325	0	33920	
6326	0	34088	
6327	0	34332	
6328	0	34572	
6329	0	34900	
6330	0	35348	
6331	0	35768	
6332	0	36044	
6333	0	36136	
6334	0	36080	
6335	0	35964	
6336	0	35848	
6337	0	35676	
6338	0	35458	
6339	0	35316	
6340	0	35224	
6341	0	35192	
6342	0	35138	
6343	0	35000	
6344	0	34772	
6345	0	34632	
6346	0	34560	
6347	0	34584	
6348	0	34704	
6349	0	34754	
6350	0	34684	
6351	0	34604	
6352	0	34576	
6353	0	34612	
6354	0	34696	
6355	0	34728	
6356	0	34704	
6357	0	34540	
6358	0	34288	
6359	0	34072	
6360	0	33920	
6361	0	33728	
6362	0	33496	
6363	0	33272	
6364	0	33122	
6365	0	33040	
6366	0	32892	
6367	0	32756	
6368	0	32568	
6369	0	32308	
6370	0	32096	
6371	0	31976	
6372	0	31844	
6373	0	31676	
6374	0	31520	
6375	0	31424	
6376	0	31412	
6377	0	31416	
6378	0	31376	
6379	0	31354	
6380	0	31408	
6381	0	31536	
6382	0	31592	
6383	0	31644	
6384	0	31692	
6385	0	31792	
6386	0	31924	
6387	0	32032	
6388	0	32044	
6389	0	31988	
6390	0	31852	
6391	0	31604	
6392	0	31328	
6393	0	31148	
6394	0	31152	
6395	0	31320	
6396	0	31488	
6397	0	31632	
6398	0	31802	
6399	0	31840	
6400	0	31760	
6401	0	31660	
6402	0	31576	
6403	0	31552	
6404	0	31628	
6405	0	31792	
6406	0	31951	
6407	0	32060	
6408	0	32040	
6409	0	31912	
6410	0	31808	
6411	0	31764	
6412	0	31760	
6413	0	31776	
6414	0	31836	
6415	0	31896	
6416	0	31908	
6417	0	31864	
6418	0	31800	
6419	0	31800	
6420	0	31816	
6421	0	31752	
6422	0	31684	
6423	0	31536	
6424	0	31428	
6425	0	31408	
6426	0	31605	
6427	0	31922	
6428	0	32232	
6429	0	32596	
6430	0	32852	
6431	0	32836	
6432	0	32712	
6433	0	32608	
6434	0	32544	
6435	0	32560	
6436	0	32622	
6437	0	32792	
6438	0	32824	
6439	0	32692	
6440	0	32524	
6441	0	32372	
6442	0	32184	
6443	0	31964	
6444	0	31804	
6445	0	31644	
6446	0	31294	
6447	0	30756	
6448	0	30224	
6449	0	29796	
6450	0	29582	
6451	0	29524	
6452	0	29612	
6453	0	29776	
6454	0	29952	
6455	0	30256	
6456	0	30800	
6457	0	31408	
6458	0	32088	
6459	0	33016	
6460	0	34120	
6461	0	35380	
6462	0	36708	
6463	0	38120	
6464	0	39768	
6465	0	41532	
6466	0	43340	
6467	0	45228	
6468	0	47192	
6469	0	49204	
6470	0	51220	
6471	0	53356	
6472	0	55648	
6473	0	58184	
6474	0	60832	
6475	0	63064	
6476	0	64276	
6477	0	64888	
6478	0	65152	
6479	0	65264	
6480	0	65232	
6481	0	65168	
6482	0	65072	
6483	0	64968	
6484	0	64832	
6485	0	64720	
6486	0	62312	
6487	0	57152	
6488	0	52264	
6489	0	47424	
6490	0	42848	
6491	0	38848	
6492	0	35224	
6493	0	31992	
6494	0	29172	
6495	0	26848	
6496	0	25224	
6497	0	24290	
6498	0	23884	
6499	0	23726	
6500	0	23604	
6501	0	23418	
6502	0	23264	
6503	0	23196	
6504	0	23252	
6505	0	23410	
6506	0	23620	
6507	0	23948	
6508	0	24360	
6509	0	24912	
6510	0	25656	
6511	0	26508	
6512	0	27380	
6513	0	28204	
6514	0	28924	
6515	0	29416	
6516	0	29712	
6517	0	29880	
6518	0	29956	
6519	0	30000	
6520	0	30020	
6521	0	30072	
6522	0	30076	
6523	0	30068	
6524	0	30116	
6525	0	30188	
6526	0	30208	
6527	0	30092	
6528	0	29956	
6529	0	29824	
6530	0	29720	
6531	0	29650	
6532	0	29628	
6533	0	29628	
6534	0	29572	
6535	0	29578	
6536	0	29676	
6537	0	29740	
6538	0	29828	
6539	0	30000	
6540	0	30208	
6541	0	30348	
6542	0	30436	
6543	0	30556	
6544	0	30676	
6545	0	30778	
6546	0	30860	
6547	0	30888	
6548	0	30828	
6549	0	30736	
6550	0	30612	
6551	0	30572	
6552	0	30572	
6553	0	30568	
6554	0	30608	
6555	0	30756	
6556	0	30880	
6557	0	30986	
6558	0	31096	
6559	0	31184	
6560	0	31248	
6561	0	31272	
6562	0	31252	
6563	0	31220	
6564	0	31184	
6565	0	31176	
6566	0	31200	
6567	0	31232	
6568	0	31288	
6569	0	31328	
6570	0	31372	
6571	0	31404	
6572	0	31368	
6573	0	31328	
6574	0	31258	
6575	0	31192	
6576	0	31156	
6577	0	31236	
6578	0	31420	
6579	0	31536	
6580	0	31548	
6581	0	31520	
6582	0	31528	
6583	0	31520	
6584	0	31392	
6585	0	31276	
6586	0	31028	
6587	0	30776	
6588	0	30612	
6589	0	30568	
6590	0	30720	
6591	0	31076	
6592	0	31544	
6593	0	31960	
6594	0	32376	
6595	0	32704	
6596	0	32816	
6597	0	32820	
6598	0	32812	
6599	0	32892	
6600	0	32924	
6601	0	32880	
6602	0	32860	
6603	0	32852	
6604	0	32832	
6605	0	32752	
6606	0	32676	
6607	0	32624	
6608	0	32578	
6609	0	32540	
6610	0	32520	
6611	0	32488	
6612	0	32460	
6613	0	32312	
6614	0	32032	
6615	0	31636	
6616	0	31238	
6617	0	31120	
6618	0	31362	
6619	0	31848	
6620	0	32278	
6621	0	32614	
6622	0	32904	
6623	0	33140	
6624	0	33348	
6625	0	33512	
6626	0	33712	
6627	0	33920	
6628	0	34054	
6629	0	34064	
6630	0	34000	
6631	0	33920	
6632	0	33808	
6633	0	33732	
6634	0	33682	
6635	0	33640	
6636	0	33632	
6637	0	33716	
6638	0	33848	
6639	0	33868	
6640	0	33744	
6641	0	33624	
6642	0	33492	
6643	0	33392	
6644	0	33298	
6645	0	33264	
6646	0	33260	
6647	0	33244	
6648	0	33274	
6649	0	33456	
6650	0	33672	
6651	0	33938	
6652	0	34124	
6653	0	34228	
6654	0	34280	
6655	0	34360	
6656	0	34540	
6657	0	34734	
6658	0	34932	
6659	0	35148	
6660	0	35268	
6661	0	35300	
6662	0	35356	
6663	0	35392	
6664	0	35412	
6665	0	35384	
6666	0	35352	
6667	0	35264	
6668	0	35248	
6669	0	35298	
6670	0	35268	
6671	0	35132	
6672	0	34984	
6673	0	34890	
6674	0	34860	
6675	0	34988	
6676	0	35240	
6677	0	35482	
6678	0	35592	
6679	0	35578	
6680	0	35578	
6681	0	35648	
6682	0	35700	
6683	0	35768	
6684	0	35868	
6685	0	36000	
6686	0	36120	
6687	0	36188	
6688	0	36176	
6689	0	36056	
6690	0	35956	
6691	0	35948	
6692	0	36032	
6693	0	36196	
6694	0	36384	
6695	0	36632	
6696	0	36844	
6697	0	36940	
6698	0	36924	
6699	0	36856	
6700	0	36800	
6701	0	36872	
6702	0	36966	
6703	0	37020	
6704	0	37140	
6705	0	37296	
6706	0	37394	
6707	0	37472	
6708	0	37504	
6709	0	37488	
6710	0	37444	
6711	0	37452	
6712	0	37492	
6713	0	37476	
6714	0	37476	
6715	0	37512	
6716	0	37392	
6717	0	37188	
6718	0	37012	
6719	0	36944	
6720	0	36980	
6721	0	37088	
6722	0	37256	
6723	0	37420	
6724	0	37564	
6725	0	37704	
6726	0	37788	
6727	0	37816	
6728	0	37774	
6729	0	37792	
6730	0	37876	
6731	0	37892	
6732	0	37856	
6733	0	37768	
6734	0	37708	
6735	0	37628	
6736	0	37564	
6737	0	37440	
6738	0	37284	
6739	0	37112	
6740	0	36896	
6741	0	36656	
6742	0	36376	
6743	0	36044	
6744	0	35700	
6745	0	35424	
6746	0	35196	
6747	0	35056	
6748	0	35008	
6749	0	35016	
6750	0	34976	
6751	0	34904	
6752	0	34852	
6753	0	34752	
6754	0	34544	
6755	0	34396	
6756	0	34300	
6757	0	34236	
6758	0	34164	
6759	0	34044	
6760	0	33852	
6761	0	33660	
6762	0	33488	
6763	0	33264	
6764	0	33064	
6765	0	32860	
6766	0	32658	
6767	0	32404	
6768	0	32132	
6769	0	31884	
6770	0	31592	
6771	0	31208	
6772	0	30728	
6773	0	30244	
6774	0	29844	
6775	0	29712	
6776	0	29672	
6777	0	29664	
6778	0	29728	
6779	0	29776	
6780	0	29816	
6781	0	29828	
6782	0	29860	
6783	0	29868	
6784	0	29872	
6785	0	29914	
6786	0	29884	
6787	0	29826	
6788	0	29788	
6789	0	29776	
6790	0	29716	
6791	0	29652	
6792	0	29568	
6793	0	29516	
6794	0	29436	
6795	0	29370	
6796	0	29264	
6797	0	29212	
6798	0	29144	
6799	0	29032	
6800	0	28796	
6801	0	28488	
6802	0	28192	
6803	0	27972	
6804	0	27860	
6805	0	27792	
6806	0	27774	
6807	0	27854	
6808	0	28008	
6809	0	28100	
6810	0	28232	
6811	0	28336	
6812	0	28408	
6813	0	28544	
6814	0	28660	
6815	0	28720	
6816	0	28716	
6817	0	28692	
6818	0	28616	
6819	0	28608	
6820	0	28696	
6821	0	28868	
6822	0	29036	
6823	0	29072	
6824	0	29032	
6825	0	28970	
6826	0	28892	
6827	0	28772	
6828	0	28708	
6829	0	28734	
6830	0	28838	
6831	0	28948	
6832	0	29066	
6833	0	29108	
6834	0	29060	
6835	0	29112	
6836	0	29210	
6837	0	29248	
6838	0	29208	
6839	0	29176	
6840	0	29208	
6841	0	29184	
6842	0	29096	
6843	0	28948	
6844	0	28746	
6845	0	28644	
6846	0	28592	
6847	0	28592	
6848	0	28756	
6849	0	29024	
6850	0	29308	
6851	0	29484	
6852	0	29504	
6853	0	29496	
6854	0	29564	
6855	0	29676	
6856	0	29848	
6857	0	30012	
6858	0	30112	
6859	0	30164	
6860	0	30200	
6861	0	30168	
6862	0	30076	
6863	0	29960	
6864	0	29916	
6865	0	30018	
6866	0	30024	
6867	0	29940	
6868	0	29784	
6869	0	29592	
6870	0	29424	
6871	0	29192	
6872	0	29120	
6873	0	29132	
6874	0	29132	
6875	0	29136	
6876	0	29296	
6877	0	29556	
6878	0	29756	
6879	0	30004	
6880	0	30272	
6881	0	30504	
6882	0	30668	
6883	0	30792	
6884	0	30912	
6885	0	30972	
6886	0	30956	
6887	0	30956	
6888	0	30920	
6889	0	30884	
6890	0	30804	
6891	0	30652	
6892	0	30561	
6893	0	30532	
6894	0	30528	
6895	0	30548	
6896	0	30656	
6897	0	30808	
6898	0	30960	
6899	0	31104	
6900	0	31156	
6901	0	31056	
6902	0	30810	
6903	0	30440	
6904	0	30024	
6905	0	29748	
6906	0	29738	
6907	0	29804	
6908	0	30000	
6909	0	30388	
6910	0	30910	
6911	0	31392	
6912	0	31616	
6913	0	31636	
6914	0	31628	
6915	0	31732	
6916	0	31848	
6917	0	31884	
6918	0	31816	
6919	0	31728	
6920	0	31630	
6921	0	31570	
6922	0	31552	
6923	0	31504	
6924	0	31504	
6925	0	31500	
6926	0	31496	
6927	0	31432	
6928	0	31332	
6929	0	31328	
6930	0	31316	
6931	0	31300	
6932	0	31356	
6933	0	31488	
6934	0	31584	
6935	0	31640	
6936	0	31672	
6937	0	31684	
6938	0	31700	
6939	0	31744	
6940	0	31776	
6941	0	31764	
6942	0	31650	
6943	0	31600	
6944	0	31656	
6945	0	31616	
6946	0	31568	
6947	0	31472	
6948	0	31404	
6949	0	31392	
6950	0	31400	
6951	0	31424	
6952	0	31456	
6953	0	31464	
6954	0	31524	
6955	0	31592	
6956	0	31616	
6957	0	31696	
6958	0	31826	
6959	0	31808	
6960	0	31688	
6961	0	31476	
6962	0	31316	
6963	0	31244	
6964	0	31304	
6965	0	31432	
6966	0	31524	
6967	0	31608	
6968	0	31672	
6969	0	31712	
6970	0	31736	
6971	0	31796	
6972	0	31924	
6973	0	32044	
6974	0	32088	
6975	0	32064	
6976	0	32040	
6977	0	32048	
6978	0	32064	
6979	0	32056	
6980	0	31948	
6981	0	31860	
6982	0	31888	
6983	0	31866	
6984	0	31780	
6985	0	31668	
6986	0	31632	
6987	0	31680	
6988	0	31704	
6989	0	31684	
6990	0	31636	
6991	0	31624	
6992	0	31676	
6993	0	31680	
6994	0	31688	
6995	0	31712	
6996	0	31724	
6997	0	31832	
6998	0	32038	
6999	0	32186	
7000	0	32132	
7001	0	31944	
7002	0	31724	
7003	0	31592	
7004	0	31540	
7005	0	31500	
7006	0	31456	
7007	0	31536	
7008	0	31616	
7009	0	31664	
7010	0	31748	
7011	0	31832	
7012	0	31872	
7013	0	31860	
7014	0	31892	
7015	0	31882	
7016	0	31764	
7017	0	31712	
7018	0	31680	
7019	0	31572	
7020	0	31492	
7021	0	31648	
7022	0	31936	
7023	0	32184	
7024	0	32328	
7025	0	32320	
7026	0	32276	
7027	0	32224	
7028	0	32164	
7029	0	32076	
7030	0	32048	
7031	0	32080	
7032	0	32052	
7033	0	32044	
7034	0	32128	
7035	0	32204	
7036	0	32192	
7037	0	32112	
7038	0	31996	
7039	0	31948	
7040	0	32016	
7041	0	32034	
7042	0	32076	
7043	0	32108	
7044	0	32108	
7045	0	32072	
7046	0	32032	
7047	0	32036	
7048	0	32088	
7049	0	32128	
7050	0	32136	
7051	0	32112	
7052	0	32096	
7053	0	32116	
7054	0	32112	
7055	0	32132	
7056	0	32152	
7057	0	32132	
7058	0	32140	
7059	0	32176	
7060	0	32180	
7061	0	32128	
7062	0	32048	
7063	0	31928	
7064	0	31812	
7065	0	31668	
7066	0	31398	
7067	0	31048	
7068	0	30836	
7069	0	30808	
7070	0	30828	
7071	0	30956	
7072	0	31192	
7073	0	31640	
7074	0	32112	
7075	0	32392	
7076	0	32512	
7077	0	32552	
7078	0	32512	
7079	0	32484	
7080	0	32544	
7081	0	32688	
7082	0	32816	
7083	0	32860	
7084	0	32848	
7085	0	32696	
7086	0	32504	
7087	0	32444	
7088	0	32412	
7089	0	32344	
7090	0	32364	
7091	0	32448	
7092	0	32472	
7093	0	32458	
7094	0	32408	
7095	0	32344	
7096	0	32380	
7097	0	32382	
7098	0	32300	
7099	0	32212	
7100	0	32156	
7101	0	32032	
7102	0	31872	
7103	0	31608	
7104	0	31340	
7105	0	31216	
7106	0	31176	
7107	0	31200	
7108	0	31406	
7109	0	31808	
7110	0	32180	
7111	0	32458	
7112	0	32696	
7113	0	32864	
7114	0	32928	
7115	0	32884	
7116	0	32816	
7117	0	32824	
7118	0	32888	
7119	0	32952	
7120	0	32992	
7121	0	32968	
7122	0	32936	
7123	0	32912	
7124	0	32916	
7125	0	32932	
7126	0	32836	
7127	0	32704	
7128	0	32672	
7129	0	32652	
7130	0	32552	
7131	0	32472	
7132	0	32456	
7133	0	32512	
7134	0	32528	
7135	0	32532	
7136	0	32572	
7137	0	32568	
7138	0	32498	
7139	0	32496	
7140	0	32540	
7141	0	32608	
7142	0	32684	
7143	0	32776	
7144	0	32874	
7145	0	32888	
7146	0	32820	
7147	0	32792	
7148	0	32872	
7149	0	33076	
7150	0	33300	
7151	0	33424	
7152	0	33538	
7153	0	33636	
7154	0	33724	
7155	0	33760	
7156	0	33744	
7157	0	33732	
7158	0	33704	
7159	0	33748	
7160	0	33832	
7161	0	33876	
7162	0	33860	
7163	0	33764	
7164	0	33676	
7165	0	33640	
7166	0	33600	
7167	0	33572	
7168	0	33576	
7169	0	33600	
7170	0	33764	
7171	0	33956	
7172	0	34180	
7173	0	34360	
7174	0	34568	
7175	0	34824	
7176	0	35076	
7177	0	35256	
7178	0	35492	
7179	0	35664	
7180	0	35738	
7181	0	35776	
7182	0	35820	
7183	0	35812	
7184	0	35764	
7185	0	35764	
7186	0	35780	
7187	0	35660	
7188	0	35504	
7189	0	35432	
7190	0	35512	
7191	0	35560	
7192	0	35528	
7193	0	35480	
7194	0	35432	
7195	0	35376	
7196	0	35348	
7197	0	35352	
7198	0	35328	
7199	0	35296	
7200	0	35184	
7201	0	34916	
7202	0	34604	
7203	0	34356	
7204	0	34092	
7205	0	33740	
7206	0	33432	
7207	0	33184	
7208	0	32992	
7209	0	32888	
7210	0	32912	
7211	0	32924	
7212	0	32804	
7213	0	32714	
7214	0	32680	
7215	0	32662	
7216	0	32720	
7217	0	32748	
7218	0	32636	
7219	0	32442	
7220	0	32272	
7221	0	32128	
7222	0	32072	
7223	0	32060	
7224	0	32056	
7225	0	32056	
7226	0	32052	
7227	0	32012	
7228	0	31896	
7229	0	31804	
7230	0	31748	
7231	0	31696	
7232	0	31608	
7233	0	31588	
7234	0	31712	
7235	0	31816	
7236	0	31664	
7237	0	31308	
7238	0	30976	
7239	0	30788	
7240	0	30724	
7241	0	30788	
7242	0	30904	
7243	0	31024	
7244	0	31232	
7245	0	31384	
7246	0	31428	
7247	0	31404	
7248	0	31426	
7249	0	31460	
7250	0	31556	
7251	0	31720	
7252	0	31886	
7253	0	31996	
7254	0	32114	
7255	0	32266	
7256	0	32376	
7257	0	32498	
7258	0	32628	
7259	0	32676	
7260	0	32608	
7261	0	32496	
7262	0	32436	
7263	0	32384	
7264	0	32280	
7265	0	32140	
7266	0	32040	
7267	0	31968	
7268	0	31888	
7269	0	31944	
7270	0	32072	
7271	0	32176	
7272	0	32228	
7273	0	32314	
7274	0	32396	
7275	0	32388	
7276	0	32396	
7277	0	32412	
7278	0	32458	
7279	0	32488	
7280	0	32476	
7281	0	32480	
7282	0	32460	
7283	0	32376	
7284	0	32296	
7285	0	32332	
7286	0	32386	
7287	0	32428	
7288	0	32360	
7289	0	32132	
7290	0	31852	
7291	0	31544	
7292	0	31144	
7293	0	30560	
7294	0	29966	
7295	0	29466	
7296	0	29224	
7297	0	29272	
7298	0	29394	
7299	0	29582	
7300	0	30036	
7301	0	30676	
7302	0	31452	
7303	0	32320	
7304	0	33262	
7305	0	34320	
7306	0	35488	
7307	0	36712	
7308	0	37952	
7309	0	39464	
7310	0	41108	
7311	0	42708	
7312	0	44372	
7313	0	46152	
7314	0	48008	
7315	0	49928	
7316	0	52084	
7317	0	54308	
7318	0	56516	
7319	0	58728	
7320	0	60960	
7321	0	62948	
7322	0	64096	
7323	0	64688	
7324	0	64960	
7325	0	65018	
7326	0	65008	
7327	0	64932	
7328	0	64852	
7329	0	64748	
7330	0	62936	
7331	0	58556	
7332	0	54432	
7333	0	50328	
7334	0	46116	
7335	0	42052	
7336	0	38476	
7337	0	35416	
7338	0	33008	
7339	0	31064	
7340	0	29462	
7341	0	28168	
7342	0	27232	
7343	0	26624	
7344	0	26176	
7345	0	25820	
7346	0	25516	
7347	0	25128	
7348	0	24776	
7349	0	24480	
7350	0	24256	
7351	0	24088	
7352	0	24052	
7353	0	24192	
7354	0	24460	
7355	0	24792	
7356	0	25140	
7357	0	25564	
7358	0	25984	
7359	0	26564	
7360	0	27312	
7361	0	27984	
7362	0	28520	
7363	0	29032	
7364	0	29444	
7365	0	29692	
7366	0	29738	
7367	0	29888	
7368	0	30084	
7369	0	30196	
7370	0	30208	
7371	0	30200	
7372	0	30140	
7373	0	30048	
7374	0	29874	
7375	0	29612	
7376	0	29330	
7377	0	29100	
7378	0	29020	
7379	0	29096	
7380	0	29260	
7381	0	29460	
7382	0	29714	
7383	0	29832	
7384	0	29886	
7385	0	29968	
7386	0	30090	
7387	0	30336	
7388	0	30608	
7389	0	30760	
7390	0	30840	
7391	0	30860	
7392	0	30876	
7393	0	30978	
7394	0	31024	
7395	0	31092	
7396	0	31172	
7397	0	31320	
7398	0	31336	
7399	0	31236	
7400	0	31164	
7401	0	31168	
7402	0	31164	
7403	0	31128	
7404	0	31012	
7405	0	30882	
7406	0	30800	
7407	0	30644	
7408	0	30392	
7409	0	30256	
7410	0	30152	
7411	0	30192	
7412	0	30416	
7413	0	30828	
7414	0	31200	
7415	0	31476	
7416	0	31724	
7417	0	31856	
7418	0	31904	
7419	0	31952	
7420	0	32040	
7421	0	32112	
7422	0	32080	
7423	0	32096	
7424	0	32148	
7425	0	32168	
7426	0	32200	
7427	0	32168	
7428	0	32116	
7429	0	32104	
7430	0	32024	
7431	0	31928	
7432	0	31964	
7433	0	32032	
7434	0	32076	
7435	0	32128	
7436	0	32092	
7437	0	32008	
7438	0	31944	
7439	0	31904	
7440	0	31844	
7441	0	31780	
7442	0	31784	
7443	0	31746	
7444	0	31752	
7445	0	31824	
7446	0	31992	
7447	0	32240	
7448	0	32412	
7449	0	32504	
7450	0	32576	
7451	0	32682	
7452	0	32748	
7453	0	32688	
7454	0	32644	
7455	0	32692	
7456	0	32688	
7457	0	32704	
7458	0	32704	
7459	0	32688	
7460	0	32686	
7461	0	32676	
7462	0	32636	
7463	0	32648	
7464	0	32708	
7465	0	32756	
7466	0	32796	
7467	0	32800	
7468	0	32792	
7469	0	32828	
7470	0	32880	
7471	0	32976	
7472	0	32968	
7473	0	32860	
7474	0	32780	
7475	0	32736	
7476	0	32752	
7477	0	32768	
7478	0	32836	
7479	0	32936	
7480	0	32996	
7481	0	33192	
7482	0	33412	
7483	0	33596	
7484	0	33648	
7485	0	33624	
7486	0	33692	
7487	0	33812	
7488	0	33976	
7489	0	34192	
7490	0	34336	
7491	0	34336	
7492	0	34224	
7493	0	34148	
7494	0	34092	
7495	0	34080	
7496	0	34040	
7497	0	34036	
7498	0	34120	
7499	0	34164	
7500	0	34266	
7501	0	34446	
7502	0	34606	
7503	0	34672	
7504	0	34650	
7505	0	34572	
7506	0	34408	
7507	0	34264	
7508	0	34204	
7509	0	34064	
7510	0	33952	
7511	0	34000	
7512	0	34188	
7513	0	34380	
7514	0	34620	
7515	0	34828	
7516	0	34940	
7517	0	35108	
7518	0	35276	
7519	0	35444	
7520	0	35568	
7521	0	35684	
7522	0	35772	
7523	0	35872	
7524	0	35892	
7525	0	35840	
7526	0	35824	
7527	0	35844	
7528	0	35896	
7529	0	35964	
7530	0	36032	
7531	0	36188	
7532	0	36328	
7533	0	36410	
7534	0	36484	
7535	0	36493	
7536	0	36448	
7537	0	36476	
7538	0	36596	
7539	0	36570	
7540	0	36540	
7541	0	36584	
7542	0	36600	
7543	0	36648	
7544	0	36652	
7545	0	36680	
7546	0	36824	
7547	0	36880	
7548	0	36920	
7549	0	36952	
7550	0	37008	
7551	0	37112	
7552	0	37104	
7553	0	37056	
7554	0	37160	
7555	0	37232	
7556	0	37236	
7557	0	37276	
7558	0	37312	
7559	0	37352	
7560	0	37384	
7561	0	37368	
7562	0	37296	
7563	0	37120	
7564	0	36992	
7565	0	36948	
7566	0	36996	
7567	0	36976	
7568	0	36896	
7569	0	36712	
7570	0	36436	
7571	0	36088	
7572	0	35664	
7573	0	35324	
7574	0	35092	
7575	0	34962	
7576	0	34988	
7577	0	35320	
7578	0	35824	
7579	0	36128	
7580	0	36248	
7581	0	36360	
7582	0	36620	
7583	0	36752	
7584	0	36736	
7585	0	36688	
7586	0	36632	
7587	0	36528	
7588	0	36352	
7589	0	36184	
7590	0	35968	
7591	0	35680	
7592	0	35372	
7593	0	35104	
7594	0	34976	
7595	0	34804	
7596	0	34556	
7597	0	34296	
7598	0	34028	
7599	0	33776	
7600	0	33586	
7601	0	33454	
7602	0	33280	
7603	0	32924	
7604	0	32568	
7605	0	32340	
7606	0	32178	
7607	0	32044	
7608	0	31908	
7609	0	31812	
7610	0	31720	
7611	0	31544	
7612	0	31360	
7613	0	31188	
7614	0	31104	
7615	0	31036	
7616	0	30912	
7617	0	30872	
7618	0	30816	
7619	0	30848	
7620	0	30816	
7621	0	30728	
7622	0	30592	
7623	0	30380	
7624	0	30228	
7625	0	30164	
7626	0	30032	
7627	0	29828	
7628	0	29644	
7629	0	29560	
7630	0	29464	
7631	0	29236	
7632	0	29032	
7633	0	29012	
7634	0	29036	
7635	0	28952	
7636	0	28704	
7637	0	28408	
7638	0	28332	
7639	0	28336	
7640	0	28288	
7641	0	28136	
7642	0	27928	
7643	0	27932	
7644	0	28108	
7645	0	28320	
7646	0	28484	
7647	0	28664	
7648	0	28808	
7649	0	28912	
7650	0	28952	
7651	0	28972	
7652	0	29064	
7653	0	29064	
7654	0	29066	
7655	0	29088	
7656	0	29096	
7657	0	29120	
7658	0	29060	
7659	0	29012	
7660	0	29016	
7661	0	29076	
7662	0	29122	
7663	0	29084	
7664	0	29060	
7665	0	29032	
7666	0	29096	
7667	0	29112	
7668	0	29070	
7669	0	29060	
7670	0	29100	
7671	0	29116	
7672	0	29308	
7673	0	29536	
7674	0	29580	
7675	0	29464	
7676	0	29448	
7677	0	29472	
7678	0	29520	
7679	0	29628	
7680	0	29776	
7681	0	29860	
7682	0	29792	
7683	0	29676	
7684	0	29598	
7685	0	29644	
7686	0	29628	
7687	0	29576	
7688	0	29452	
7689	0	29328	
7690	0	29316	
7691	0	29284	
7692	0	29160	
7693	0	29136	
7694	0	29288	
7695	0	29434	
7696	0	29580	
7697	0	29740	
7698	0	29924	
7699	0	30092	
7700	0	30156	
7701	0	30172	
7702	0	30244	
7703	0	30332	
7704	0	30352	
7705	0	30408	
7706	0	30528	
7707	0	30616	
7708	0	30728	
7709	0	30792	
7710	0	30788	
7711	0	30840	
7712	0	30796	
7713	0	30752	
7714	0	30674	
7715	0	30616	
7716	0	30572	
7717	0	30524	
7718	0	30428	
7719	0	30416	
7720	0	30424	
7721	0	30384	
7722	0	30272	
7723	0	30168	
7724	0	30012	
7725	0	30028	
7726	0	30232	
7727	0	30424	
7728	0	30604	
7729	0	30762	
7730	0	30992	
7731	0	31164	
7732	0	31208	
7733	0	31312	
7734	0	31468	
7735	0	31644	
7736	0	31828	
7737	0	32064	
7738	0	32224	
7739	0	32328	
7740	0	32352	
7741	0	32234	
7742	0	32088	
7743	0	31900	
7744	0	31672	
7745	0	31500	
7746	0	31436	
7747	0	31322	
7748	0	31224	
7749	0	31100	
7750	0	31016	
7751	0	31020	
7752	0	31080	
7753	0	31088	
7754	0	31012	
7755	0	30952	
7756	0	30970	
7757	0	31100	
7758	0	31328	
7759	0	31522	
7760	0	31850	
7761	0	32200	
7762	0	32420	
7763	0	32468	
7764	0	32412	
7765	0	32252	
7766	0	32160	
7767	0	32216	
7768	0	32244	
7769	0	32288	
7770	0	32340	
7771	0	32240	
7772	0	32128	
7773	0	32100	
7774	0	32064	
7775	0	32052	
7776	0	31980	
7777	0	31880	
7778	0	31848	
7779	0	31800	
7780	0	31760	
7781	0	31764	
7782	0	31816	
7783	0	31852	
7784	0	31900	
7785	0	31896	
7786	0	31916	
7787	0	32040	
7788	0	32220	
7789	0	32294	
7790	0	32268	
7791	0	32328	
7792	0	32444	
7793	0	32450	
7794	0	32408	
7795	0	32444	
7796	0	32450	
7797	0	32356	
7798	0	32300	
7799	0	32280	
7800	0	32242	
7801	0	32236	
7802	0	32184	
7803	0	32008	
7804	0	31880	
7805	0	31916	
7806	0	32144	
7807	0	32304	
7808	0	32252	
7809	0	32128	
7810	0	31988	
7811	0	31744	
7812	0	31436	
7813	0	31320	
7814	0	31308	
7815	0	31400	
7816	0	31632	
7817	0	31824	
7818	0	31944	
7819	0	32130	
7820	0	32352	
7821	0	32532	
7822	0	32608	
7823	0	32700	
7824	0	32752	
7825	0	32608	
7826	0	32516	
7827	0	32472	
7828	0	32360	
7829	0	32232	
7830	0	32222	
7831	0	32216	
7832	0	32152	
7833	0	32208	
7834	0	32368	
7835	0	32448	
7836	0	32536	
7837	0	32564	
7838	0	32548	
7839	0	32556	
7840	0	32544	
7841	0	32492	
7842	0	32448	
7843	0	32436	
7844	0	32412	
7845	0	32304	
7846	0	32116	
7847	0	32008	
7848	0	32020	
7849	0	32126	
7850	0	32172	
7851	0	32132	
7852	0	32104	
7853	0	32038	
7854	0	31966	
7855	0	32056	
7856	0	32224	
7857	0	32322	
7858	0	32300	
7859	0	32352	
7860	0	32336	
7861	0	32180	
7862	0	31928	
7863	0	31668	
7864	0	31504	
7865	0	31384	
7866	0	31274	
7867	0	31320	
7868	0	31482	
7869	0	31668	
7870	0	31824	
7871	0	31972	
7872	0	32136	
7873	0	32312	
7874	0	32332	
7875	0	32264	
7876	0	32184	
7877	0	32170	
7878	0	32244	
7879	0	32380	
7880	0	32466	
7881	0	32476	
7882	0	32384	
7883	0	32256	
7884	0	32264	
7885	0	32332	
7886	0	32380	
7887	0	32368	
7888	0	32300	
7889	0	32060	
7890	0	31884	
7891	0	31772	
7892	0	31680	
7893	0	31648	
7894	0	31656	
7895	0	31750	
7896	0	31864	
7897	0	31956	
7898	0	31988	
7899	0	31992	
7900	0	32040	
7901	0	32088	
7902	0	32072	
7903	0	32040	
7904	0	32048	
7905	0	32188	
7906	0	32304	
7907	0	32240	
7908	0	32072	
7909	0	31876	
7910	0	31692	
7911	0	31596	
7912	0	31388	
7913	0	31152	
7914	0	31202	
7915	0	31308	
7916	0	31364	
7917	0	31492	
7918	0	31808	
7919	0	32212	
7920	0	32626	
7921	0	32892	
7922	0	33008	
7923	0	32964	
7924	0	32996	
7925	0	33040	
7926	0	33056	
7927	0	33012	
7928	0	32996	
7929	0	33156	
7930	0	33356	
7931	0	33616	
7932	0	33780	
7933	0	33836	
7934	0	33864	
7935	0	33944	
7936	0	33940	
7937	0	33932	
7938	0	33820	
7939	0	33664	
7940	0	33444	
7941	0	33304	
7942	0	33168	
7943	0	33108	
7944	0	33050	
7945	0	32980	
7946	0	32904	
7947	0	32992	
7948	0	33248	
7949	0	33536	
7950	0	33920	
7951	0	34280	
7952	0	34664	
7953	0	35068	
7954	0	35408	
7955	0	35618	
7956	0	35772	
7957	0	35820	
7958	0	35936	
7959	0	36036	
7960	0	35980	
7961	0	35912	
7962	0	35860	
7963	0	35760	
7964	0	35680	
7965	0	35552	
7966	0	35432	
7967	0	35308	
7968	0	35160	
7969	0	34958	
7970	0	34804	
7971	0	34792	
7972	0	34848	
7973	0	34948	
7974	0	35108	
7975	0	35284	
7976	0	35342	
7977	0	35276	
7978	0	35176	
7979	0	35008	
7980	0	34940	
7981	0	34800	
7982	0	34556	
7983	0	34276	
7984	0	34012	
7985	0	33798	
7986	0	33524	
7987	0	33240	
7988	0	33080	
7989	0	32992	
7990	0	32950	
7991	0	32832	
7992	0	32580	
7993	0	32308	
7994	0	32140	
7995	0	32000	
7996	0	31856	
7997	0	31624	
7998	0	31492	
7999	0	31496	
8000	0	31520	
8001	0	31524	
8002	0	31508	
8003	0	31496	
8004	0	31432	
8005	0	31304	
8006	0	31052	
8007	0	30864	
8008	0	30772	
8009	0	30804	
8010	0	30872	
8011	0	30996	
8012	0	31200	
8013	0	31232	
8014	0	31042	
8015	0	30848	
8016	0	30772	
8017	0	30892	
8018	0	31004	
8019	0	31088	
8020	0	31186	
8021	0	31204	
8022	0	31136	
8023	0	31018	
8024	0	30876	
8025	0	30712	
8026	0	30552	
8027	0	30594	
8028	0	30800	
8029	0	30936	
8030	0	31008	
8031	0	31180	
8032	0	31336	
8033	0	31424	
8034	0	31448	
8035	0	31524	
8036	0	31744	
8037	0	31852	
8038	0	31826	
8039	0	31860	
8040	0	31888	
8041	0	31944	
8042	0	32052	
8043	0	32132	
8044	0	32184	
8045	0	32276	
8046	0	32350	
8047	0	32352	
8048	0	32368	
8049	0	32320	
8050	0	32136	
8051	0	32120	
8052	0	32044	
8053	0	31904	
8054	0	31744	
8055	0	31556	
8056	0	31200	
8057	0	30866	
8058	0	30700	
8059	0	30728	
8060	0	30888	
8061	0	31284	
8062	0	31772	
8063	0	32004	
8064	0	31932	
8065	0	31820	
8066	0	31704	
8067	0	31296	
8068	0	30778	
8069	0	30520	
8070	0	30348	
8071	0	30220	
8072	0	30328	
8073	0	30632	
8074	0	31044	
8075	0	31472	
8076	0	31976	
8077	0	32448	
8078	0	32864	
8079	0	33440	
8080	0	34172	
8081	0	35008	
8082	0	36042	
8083	0	37300	
8084	0	38736	
8085	0	40246	
8086	0	41740	
8087	0	43404	
8088	0	45328	
8089	0	47472	
8090	0	49808	
8091	0	52248	
8092	0	54800	
8093	0	57352	
8094	0	59824	
8095	0	62112	
8096	0	63566	
8097	0	64328	
8098	0	64660	
8099	0	64792	
8100	0	64808	
8101	0	64760	
8102	0	64668	
8103	0	64568	
8104	0	64456	
8105	0	62648	
8106	0	58184	
8107	0	54112	
8108	0	49976	
8109	0	45852	
8110	0	42180	
8111	0	39004	
8112	0	36160	
8113	0	33856	
8114	0	32084	
8115	0	30648	
8116	0	29380	
8117	0	28376	
8118	0	27644	
8119	0	27016	
8120	0	26580	
8121	0	26300	
8122	0	26048	
8123	0	25740	
8124	0	25428	
8125	0	25044	
8126	0	24708	
8127	0	24552	
8128	0	24620	
8129	0	24764	
8130	0	24888	
8131	0	25096	
8132	0	25244	
8133	0	25452	
8134	0	25808	
8135	0	26120	
8136	0	26516	
8137	0	27104	
8138	0	27716	
8139	0	28192	
8140	0	28564	
8141	0	28948	
8142	0	29202	
8143	0	29376	
8144	0	29624	
8145	0	29936	
8146	0	30024	
8147	0	29926	
8148	0	29872	
8149	0	29824	
8150	0	29664	
8151	0	29416	
8152	0	29268	
8153	0	29180	
8154	0	29200	
8155	0	29220	
8156	0	29194	
8157	0	29252	
8158	0	29388	
8159	0	29618	
8160	0	29908	
8161	0	30048	
8162	0	30184	
8163	0	30256	
8164	0	30160	
8165	0	30232	
8166	0	30424	
8167	0	30550	
8168	0	30644	
8169	0	30784	
8170	0	30904	
8171	0	31132	
8172	0	31300	
8173	0	31252	
8174	0	31064	
8175	0	30826	
8176	0	30688	
8177	0	30720	
8178	0	30744	
8179	0	30688	
8180	0	30680	
8181	0	30632	
8182	0	30684	
8183	0	30736	
8184	0	30772	
8185	0	30812	
8186	0	30912	
8187	0	31148	
8188	0	31380	
8189	0	31490	
8190	0	31520	
8191	0	31388	
8192	0	31284	
8193	0	31204	
8194	0	31164	
8195	0	31232	
8196	0	31368	
8197	0	31414	
8198	0	31504	
8199	0	31562	
8200	0	31564	
8201	0	31680	
8202	0	31792	
8203	0	31760	
8204	0	31744	
8205	0	31784	
8206	0	31816	
8207	0	31864	
8208	0	31914	
8209	0	31888	
8210	0	31912	
8211	0	32034	
8212	0	32112	
8213	0	32104	
8214	0	32040	
8215	0	32134	
8216	0	32352	
8217	0	32568	
8218	0	32636	
8219	0	32736	
8220	0	32828	
8221	0	32784	
8222	0	32580	
8223	0	32344	
8224	0	31968	
8225	0	31736	
8226	0	31624	
8227	0	31488	
8228	0	31528	
8229	0	31724	
8230	0	31968	
8231	0	32036	
8232	0	32272	
8233	0	32478	
8234	0	32672	
8235	0	32832	
8236	0	32944	
8237	0	33040	
8238	0	33080	
8239	0	33124	
8240	0	33300	
8241	0	33384	
8242	0	33416	
8243	0	33444	
8244	0	33492	
8245	0	33498	
8246	0	33448	
8247	0	33392	
8248	0	33232	
8249	0	33176	
8250	0	33012	
8251	0	32688	
8252	0	32536	
8253	0	32576	
8254	0	32688	
8255	0	32712	
8256	0	32694	
8257	0	32852	
8258	0	33162	
8259	0	33576	
8260	0	34072	
8261	0	34552	
8262	0	34880	
8263	0	35136	
8264	0	35184	
8265	0	35140	
8266	0	35080	
8267	0	35068	
8268	0	35040	
8269	0	34940	
8270	0	34916	
8271	0	35048	
8272	0	35112	
8273	0	35092	
8274	0	34936	
8275	0	34728	
8276	0	34608	
8277	0	34452	
8278	0	34416	
8279	0	34460	
8280	0	34536	
8281	0	34576	
8282	0	34604	
8283	0	34668	
8284	0	34912	
8285	0	35176	
8286	0	35324	
8287	0	35296	
8288	0	35264	
8289	0	35280	
8290	0	35348	
8291	0	35484	
8292	0	35636	
8293	0	35788	
8294	0	35896	
8295	0	35860	
8296	0	35948	
8297	0	36142	
8298	0	36168	
8299	0	36212	
8300	0	36260	
8301	0	36300	
8302	0	36312	
8303	0	36248	
8304	0	36196	
8305	0	36124	
8306	0	36080	
8307	0	36128	
8308	0	36168	
8309	0	36240	
8310	0	36272	
8311	0	36268	
8312	0	36356	
8313	0	36408	
8314	0	36488	
8315	0	36564	
8316	0	36708	
8317	0	36808	
8318	0	36948	
8319	0	37052	
8320	0	37144	
8321	0	37276	
8322	0	37344	
8323	0	37382	
8324	0	37380	
8325	0	37324	
8326	0	37232	
8327	0	37120	
8328	0	37112	
8329	0	37132	
8330	0	37096	
8331	0	37076	
8332	0	37084	
8333	0	37060	
8334	0	37088	
8335	0	37016	
8336	0	36980	
8337	0	37008	
8338	0	37064	
8339	0	36972	
8340	0	36820	
8341	0	36748	
8342	0	36720	
8343	0	36700	
8344	0	36764	
8345	0	36884	
8346	0	36920	
8347	0	36861	
8348	0	36820	
8349	0	36820	
8350	0	36836	
8351	0	36628	
8352	0	36380	
8353	0	36288	
8354	0	36368	
8355	0	36424	
8356	0	36328	
8357	0	36176	
8358	0	35996	
8359	0	35788	
8360	0	35688	
8361	0	35532	
8362	0	35136	
8363	0	34624	
8364	0	34180	
8365	0	33872	
8366	0	33584	
8367	0	33456	
8368	0	33468	
8369	0	33404	
8370	0	33360	
8371	0	33364	
8372	0	33296	
8373	0	33140	
8374	0	32924	
8375	0	32632	
8376	0	32416	
8377	0	32240	
8378	0	32084	
8379	0	32016	
8380	0	31952	
8381	0	31766	
8382	0	31586	
8383	0	31420	
8384	0	31272	
8385	0	31208	
8386	0	31144	
8387	0	31068	
8388	0	30940	
8389	0	30716	
8390	0	30564	
8391	0	30432	
8392	0	30242	
8393	0	29864	
8394	0	29684	
8395	0	29652	
8396	0	29552	
8397	0	29376	
8398	0	29284	
8399	0	29320	
8400	0	29432	
8401	0	29480	
8402	0	29404	
8403	0	29352	
8404	0	29308	
8405	0	29244	
8406	0	29248	
8407	0	29292	
8408	0	29242	
8409	0	29064	
8410	0	28832	
8411	0	28640	
8412	0	28512	
8413	0	28432	
8414	0	28384	
8415	0	28300	
8416	0	28256	
8417	0	28276	
8418	0	28256	
8419	0	28216	
8420	0	28192	
8421	0	28072	
8422	0	27816	
8423	0	27620	
8424	0	27552	
8425	0	27472	
8426	0	27396	
8427	0	27372	
8428	0	27452	
8429	0	27548	
8430	0	27676	
8431	0	27840	
8432	0	27968	
8433	0	27952	
8434	0	27950	
8435	0	28080	
8436	0	28204	
8437	0	28328	
8438	0	28552	
8439	0	28712	
8440	0	28828	
8441	0	28884	
8442	0	28992	
8443	0	29146	
8444	0	29128	
8445	0	29046	
8446	0	28920	
8447	0	28816	
8448	0	28720	
8449	0	28504	
8450	0	28210	
8451	0	27916	
8452	0	27668	
8453	0	27520	
8454	0	27642	
8455	0	27998	
8456	0	28416	
8457	0	28836	
8458	0	29180	
8459	0	29260	
8460	0	29212	
8461	0	29216	
8462	0	29238	
8463	0	29304	
8464	0	29432	
8465	0	29484	
8466	0	29472	
8467	0	29432	
8468	0	29416	
8469	0	29470	
8470	0	29572	
8471	0	29644	
8472	0	29664	
8473	0	29728	
8474	0	29828	
8475	0	29876	
8476	0	29896	
8477	0	29866	
8478	0	29824	
8479	0	29804	
8480	0	29664	
8481	0	29588	
8482	0	29596	
8483	0	29592	
8484	0	29592	
8485	0	29604	
8486	0	29616	
8487	0	29504	
8488	0	29264	
8489	0	29008	
8490	0	28892	
8491	0	28896	
8492	0	29032	
8493	0	29248	
8494	0	29530	
8495	0	29800	
8496	0	30016	
8497	0	30144	
8498	0	30256	
8499	0	30408	
8500	0	30458	
8501	0	30372	
8502	0	30356	
8503	0	30416	
8504	0	30436	
8505	0	30412	
8506	0	30360	
8507	0	30162	
8508	0	29988	
8509	0	29804	
8510	0	29594	
8511	0	29444	
8512	0	29456	
8513	0	29656	
8514	0	29896	
8515	0	30048	
8516	0	30308	
8517	0	30648	
8518	0	30868	
8519	0	31020	
8520	0	31092	
8521	0	31240	
8522	0	31508	
8523	0	31644	
8524	0	31696	
8525	0	31680	
8526	0	31548	
8527	0	31512	
8528	0	31540	
8529	0	31576	
8530	0	31556	
8531	0	31552	
8532	0	31472	
8533	0	31384	
8534	0	31456	
8535	0	31616	
8536	0	31644	
8537	0	31644	
8538	0	31504	
8539	0	31400	
8540	0	31484	
8541	0	31560	
8542	0	31552	
8543	0	31576	
8544	0	31632	
8545	0	31612	
8546	0	31536	
8547	0	31440	
8548	0	31392	
8549	0	31376	
8550	0	31482	
8551	0	31608	
8552	0	31716	
8553	0	31672	
8554	0	31496	
8555	0	31316	
8556	0	31296	
8557	0	31384	
8558	0	31620	
8559	0	31780	
8560	0	31688	
8561	0	31756	
8562	0	31824	
8563	0	31776	
8564	0	31664	
8565	0	31592	
8566	0	31488	
8567	0	31378	
8568	0	31104	
8569	0	30808	
8570	0	30596	
8571	0	30408	
8572	0	30528	
8573	0	30844	
8574	0	31272	
8575	0	31660	
8576	0	32056	
8577	0	32328	
8578	0	32510	
8579	0	32628	
8580	0	32600	
8581	0	32472	
8582	0	32340	
8583	0	32352	
8584	0	32308	
8585	0	32264	
8586	0	32380	
8587	0	32612	
8588	0	32692	
8589	0	32520	
8590	0	32332	
8591	0	32232	
