# OpenSignals Text File Format. Version 1
# {"00:07:80:4B:15:F7": {"position": 0, "device": "biosignalsplux", "device name": "00:07:80:4B:15:F7", "device connection": "BTH00:07:80:4B:15:F7", "sampling rate": 1000, "resolution": [16], "firmware version": 775, "comments": "", "keywords": "", "mode": 0, "sync interval": 2, "date": "2023-4-12", "time": "15:5:12.274", "channels": [1], "sensor": ["ECG"], "label": ["CH1"], "column": ["nSeq", "DI", "CH1"], "special": [{"SpO2": [80, 40, 5, 4, 3, 3]}, {"SpO2": [80, 40, 5, 4, 3, 3]}, {"SpO2": [80, 40, 5, 4, 3, 3]}, {"SpO2": [80, 40, 5, 4, 3, 3]}, {"SpO2": [80, 40, 5, 4, 3, 3]}, {"SpO2": [80, 40, 5, 4, 3, 3]}, {"SpO2": [80, 40, 5, 4, 3, 3]}, {"SpO2": [80, 40, 5, 4, 3, 3]}], "digital IO": [0, 1], "sleeve color": ["green"], "convertedValues": 0}}
# EndOfHeader
0	0	31092	
1	0	31060	
2	0	31074	
3	0	31080	
4	0	31160	
5	0	31252	
6	0	31280	
7	0	31368	
8	0	31420	
9	0	31460	
10	0	31492	
11	0	31476	
12	0	31456	
13	0	31456	
14	0	31484	
15	0	31504	
16	0	31504	
17	0	31516	
18	0	31508	
19	0	31496	
20	0	31500	
21	0	31488	
22	0	31472	
23	0	31468	
24	0	31464	
25	0	31448	
26	0	31480	
27	0	31512	
28	0	31506	
29	0	31492	
30	0	31496	
31	0	31552	
32	0	31616	
33	0	31616	
34	0	31600	
35	0	31600	
36	0	31612	
37	0	31592	
38	0	31520	
39	0	31512	
40	0	31532	
41	0	31532	
42	0	31560	
43	0	31618	
44	0	31668	
45	0	31696	
46	0	31736	
47	0	31760	
48	0	31832	
49	0	31812	
50	0	31784	
51	0	31756	
52	0	31728	
53	0	31728	
54	0	31768	
55	0	31804	
56	0	31860	
57	0	31884	
58	0	31944	
59	0	32020	
60	0	32012	
61	0	32016	
62	0	31972	
63	0	31924	
64	0	31952	
65	0	31888	
66	0	31872	
67	0	31888	
68	0	31852	
69	0	31788	
70	0	31708	
71	0	31728	
72	0	31700	
73	0	31752	
74	0	31808	
75	0	31848	
76	0	31892	
77	0	31948	
78	0	31938	
79	0	31932	
80	0	31972	
81	0	32032	
82	0	32064	
83	0	32124	
84	0	32184	
85	0	32308	
86	0	32500	
87	0	32656	
88	0	32740	
89	0	32900	
90	0	33072	
91	0	33281	
92	0	33508	
93	0	33736	
94	0	33908	
95	0	33912	
96	0	33920	
97	0	33940	
98	0	33936	
99	0	33968	
100	0	33884	
101	0	33792	
102	0	33736	
103	0	33720	
104	0	33800	
105	0	33872	
106	0	33896	
107	0	33914	
108	0	34024	
109	0	34124	
110	0	34192	
111	0	34248	
112	0	34304	
113	0	34368	
114	0	34468	
115	0	34552	
116	0	34592	
117	0	34604	
118	0	34668	
119	0	34784	
120	0	34840	
121	0	34888	
122	0	34936	
123	0	34988	
124	0	35044	
125	0	35036	
126	0	34958	
127	0	34840	
128	0	34668	
129	0	34532	
130	0	34416	
131	0	34296	
132	0	34216	
133	0	34048	
134	0	33892	
135	0	33752	
136	0	33648	
137	0	33560	
138	0	33476	
139	0	33468	
140	0	33488	
141	0	33428	
142	0	33372	
143	0	33268	
144	0	33212	
145	0	33224	
146	0	33188	
147	0	33080	
148	0	32956	
149	0	32960	
150	0	32972	
151	0	32856	
152	0	32700	
153	0	32544	
154	0	32392	
155	0	32352	
156	0	32332	
157	0	32256	
158	0	32192	
159	0	32076	
160	0	31984	
161	0	31916	
162	0	31836	
163	0	31720	
164	0	31600	
165	0	31482	
166	0	31352	
167	0	31228	
168	0	31140	
169	0	31124	
170	0	31096	
171	0	31036	
172	0	30960	
173	0	30944	
174	0	30936	
175	0	30940	
176	0	31020	
177	0	31096	
178	0	31088	
179	0	31028	
180	0	31040	
181	0	31056	
182	0	31120	
183	0	31140	
184	0	31112	
185	0	31116	
186	0	31104	
187	0	31128	
188	0	31184	
189	0	31200	
190	0	31160	
191	0	31092	
192	0	31044	
193	0	31016	
194	0	31052	
195	0	31128	
196	0	31148	
197	0	31184	
198	0	31168	
199	0	31150	
200	0	31188	
201	0	31276	
202	0	31352	
203	0	31332	
204	0	31228	
205	0	31116	
206	0	31120	
207	0	31208	
208	0	31288	
209	0	31360	
210	0	31374	
211	0	31352	
212	0	31384	
213	0	31460	
214	0	31468	
215	0	31396	
216	0	31296	
217	0	31168	
218	0	31112	
219	0	31004	
220	0	30848	
221	0	30706	
222	0	30560	
223	0	30388	
224	0	30272	
225	0	30284	
226	0	30424	
227	0	30716	
228	0	31200	
229	0	31852	
230	0	32596	
231	0	33466	
232	0	34628	
233	0	35960	
234	0	37456	
235	0	39096	
236	0	40904	
237	0	42732	
238	0	44576	
239	0	46364	
240	0	48116	
241	0	49928	
242	0	51720	
243	0	53418	
244	0	54952	
245	0	56384	
246	0	57740	
247	0	59016	
248	0	60236	
249	0	61448	
250	0	62500	
251	0	63268	
252	0	63712	
253	0	63916	
254	0	62982	
255	0	60892	
256	0	57984	
257	0	54348	
258	0	50608	
259	0	46584	
260	0	42080	
261	0	37104	
262	0	32404	
263	0	28744	
264	0	26240	
265	0	24852	
266	0	24196	
267	0	24020	
268	0	24174	
269	0	24408	
270	0	24572	
271	0	24820	
272	0	25182	
273	0	25564	
274	0	25964	
275	0	26376	
276	0	26768	
277	0	27192	
278	0	27636	
279	0	28052	
280	0	28480	
281	0	28848	
282	0	29176	
283	0	29456	
284	0	29620	
285	0	29644	
286	0	29656	
287	0	29680	
288	0	29656	
289	0	29580	
290	0	29552	
291	0	29528	
292	0	29528	
293	0	29500	
294	0	29412	
295	0	29348	
296	0	29336	
297	0	29270	
298	0	29208	
299	0	29120	
300	0	29108	
301	0	29096	
302	0	29116	
303	0	29184	
304	0	29284	
305	0	29376	
306	0	29456	
307	0	29484	
308	0	29456	
309	0	29508	
310	0	29568	
311	0	29546	
312	0	29536	
313	0	29556	
314	0	29616	
315	0	29676	
316	0	29732	
317	0	29828	
318	0	29900	
319	0	29932	
320	0	29920	
321	0	29936	
322	0	29972	
323	0	30034	
324	0	30128	
325	0	30208	
326	0	30192	
327	0	30172	
328	0	30228	
329	0	30282	
330	0	30326	
331	0	30348	
332	0	30408	
333	0	30508	
334	0	30568	
335	0	30564	
336	0	30546	
337	0	30556	
338	0	30604	
339	0	30640	
340	0	30672	
341	0	30692	
342	0	30756	
343	0	30788	
344	0	30820	
345	0	30868	
346	0	30920	
347	0	30952	
348	0	30956	
349	0	30992	
350	0	31040	
351	0	31120	
352	0	31204	
353	0	31216	
354	0	31200	
355	0	31200	
356	0	31320	
357	0	31368	
358	0	31356	
359	0	31388	
360	0	31472	
361	0	31468	
362	0	31468	
363	0	31492	
364	0	31520	
365	0	31532	
366	0	31592	
367	0	31668	
368	0	31736	
369	0	31736	
370	0	31716	
371	0	31760	
372	0	31824	
373	0	31888	
374	0	31968	
375	0	32048	
376	0	32068	
377	0	32108	
378	0	32108	
379	0	32206	
380	0	32312	
381	0	32332	
382	0	32288	
383	0	32352	
384	0	32404	
385	0	32436	
386	0	32484	
387	0	32462	
388	0	32464	
389	0	32444	
390	0	32480	
391	0	32512	
392	0	32508	
393	0	32480	
394	0	32544	
395	0	32648	
396	0	32756	
397	0	32772	
398	0	32752	
399	0	32752	
400	0	32840	
401	0	32924	
402	0	33008	
403	0	33084	
404	0	33156	
405	0	33242	
406	0	33280	
407	0	33344	
408	0	33376	
409	0	33440	
410	0	33500	
411	0	33608	
412	0	33648	
413	0	33660	
414	0	33692	
415	0	33736	
416	0	33844	
417	0	34016	
418	0	34128	
419	0	34172	
420	0	34192	
421	0	34208	
422	0	34192	
423	0	34188	
424	0	34216	
425	0	34280	
426	0	34420	
427	0	34460	
428	0	34468	
429	0	34560	
430	0	34708	
431	0	34768	
432	0	34852	
433	0	34956	
434	0	35044	
435	0	35096	
436	0	35210	
437	0	35304	
438	0	35364	
439	0	35404	
440	0	35460	
441	0	35544	
442	0	35584	
443	0	35584	
444	0	35640	
445	0	35692	
446	0	35756	
447	0	35848	
448	0	35916	
449	0	35976	
450	0	35992	
451	0	36016	
452	0	36100	
453	0	36168	
454	0	36240	
455	0	36300	
456	0	36408	
457	0	36464	
458	0	36476	
459	0	36536	
460	0	36652	
461	0	36728	
462	0	36788	
463	0	36792	
464	0	36804	
465	0	36822	
466	0	36844	
467	0	36856	
468	0	36912	
469	0	36980	
470	0	37012	
471	0	37052	
472	0	37104	
473	0	37124	
474	0	37100	
475	0	37080	
476	0	37088	
477	0	37152	
478	0	37182	
479	0	37180	
480	0	37186	
481	0	37140	
482	0	37088	
483	0	37024	
484	0	36940	
485	0	36896	
486	0	36788	
487	0	36648	
488	0	36524	
489	0	36392	
490	0	36256	
491	0	36128	
492	0	36044	
493	0	35908	
494	0	35816	
495	0	35716	
496	0	35600	
497	0	35524	
498	0	35344	
499	0	35136	
500	0	34984	
501	0	34816	
502	0	34600	
503	0	34368	
504	0	34240	
505	0	34114	
506	0	34000	
507	0	33856	
508	0	33626	
509	0	33428	
510	0	33272	
511	0	33116	
512	0	32952	
513	0	32846	
514	0	32688	
515	0	32512	
516	0	32380	
517	0	32216	
518	0	32072	
519	0	31928	
520	0	31808	
521	0	31668	
522	0	31532	
523	0	31400	
524	0	31284	
525	0	31140	
526	0	31016	
527	0	30914	
528	0	30824	
529	0	30780	
530	0	30760	
531	0	30684	
532	0	30596	
533	0	30540	
534	0	30486	
535	0	30432	
536	0	30400	
537	0	30384	
538	0	30384	
539	0	30332	
540	0	30256	
541	0	30232	
542	0	30168	
543	0	30100	
544	0	30044	
545	0	29944	
546	0	29888	
547	0	29888	
548	0	29888	
549	0	29864	
550	0	29872	
551	0	29932	
552	0	29920	
553	0	29920	
554	0	29952	
555	0	30000	
556	0	30032	
557	0	30016	
558	0	29988	
559	0	30012	
560	0	30056	
561	0	30044	
562	0	29974	
563	0	29964	
564	0	30000	
565	0	30052	
566	0	30088	
567	0	30108	
568	0	30100	
569	0	30108	
570	0	30108	
571	0	30104	
572	0	30192	
573	0	30280	
574	0	30288	
575	0	30326	
576	0	30312	
577	0	30288	
578	0	30324	
579	0	30368	
580	0	30344	
581	0	30328	
582	0	30344	
583	0	30352	
584	0	30372	
585	0	30396	
586	0	30404	
587	0	30440	
588	0	30468	
589	0	30500	
590	0	30560	
591	0	30612	
592	0	30664	
593	0	30676	
594	0	30710	
595	0	30720	
596	0	30756	
597	0	30780	
598	0	30792	
599	0	30788	
600	0	30772	
601	0	30776	
602	0	30772	
603	0	30772	
604	0	30808	
605	0	30804	
606	0	30836	
607	0	30824	
608	0	30832	
609	0	30884	
610	0	30960	
611	0	30968	
612	0	30960	
613	0	30964	
614	0	31028	
615	0	31052	
616	0	31052	
617	0	31106	
618	0	31192	
619	0	31180	
620	0	31080	
621	0	31060	
622	0	31092	
623	0	31132	
624	0	31170	
625	0	31284	
626	0	31316	
627	0	31288	
628	0	31268	
629	0	31312	
630	0	31372	
631	0	31368	
632	0	31264	
633	0	31200	
634	0	31172	
635	0	31180	
636	0	31224	
637	0	31232	
638	0	31240	
639	0	31280	
640	0	31322	
641	0	31336	
642	0	31296	
643	0	31316	
644	0	31304	
645	0	31200	
646	0	31192	
647	0	31264	
648	0	31292	
649	0	31304	
650	0	31288	
651	0	31328	
652	0	31376	
653	0	31392	
654	0	31396	
655	0	31448	
656	0	31404	
657	0	31348	
658	0	31352	
659	0	31360	
660	0	31306	
661	0	31284	
662	0	31320	
663	0	31376	
664	0	31408	
665	0	31400	
666	0	31360	
667	0	31336	
668	0	31338	
669	0	31396	
670	0	31416	
671	0	31448	
672	0	31488	
673	0	31476	
674	0	31496	
675	0	31448	
676	0	31444	
677	0	31456	
678	0	31436	
679	0	31424	
680	0	31406	
681	0	31428	
682	0	31476	
683	0	31488	
684	0	31504	
685	0	31520	
686	0	31516	
687	0	31552	
688	0	31556	
689	0	31516	
690	0	31520	
691	0	31548	
692	0	31600	
693	0	31652	
694	0	31616	
695	0	31624	
696	0	31676	
697	0	31724	
698	0	31656	
699	0	31624	
700	0	31636	
701	0	31624	
702	0	31648	
703	0	31660	
704	0	31660	
705	0	31616	
706	0	31604	
707	0	31616	
708	0	31612	
709	0	31616	
710	0	31636	
711	0	31660	
712	0	31640	
713	0	31620	
714	0	31624	
715	0	31656	
716	0	31688	
717	0	31738	
718	0	31776	
719	0	31772	
720	0	31804	
721	0	31832	
722	0	31844	
723	0	31888	
724	0	31912	
725	0	31868	
726	0	31848	
727	0	31844	
728	0	31824	
729	0	31864	
730	0	31828	
731	0	31812	
732	0	31840	
733	0	31818	
734	0	31776	
735	0	31804	
736	0	31812	
737	0	31840	
738	0	31900	
739	0	31896	
740	0	31876	
741	0	31900	
742	0	31944	
743	0	31948	
744	0	31976	
745	0	32004	
746	0	32032	
747	0	32084	
748	0	32164	
749	0	32224	
750	0	32288	
751	0	32380	
752	0	32504	
753	0	32656	
754	0	32808	
755	0	32928	
756	0	32996	
757	0	33064	
758	0	33164	
759	0	33308	
760	0	33440	
761	0	33480	
762	0	33460	
763	0	33508	
764	0	33548	
765	0	33604	
766	0	33668	
767	0	33744	
768	0	33816	
769	0	33880	
770	0	33912	
771	0	33922	
772	0	33946	
773	0	33992	
774	0	34056	
775	0	34180	
776	0	34288	
777	0	34388	
778	0	34528	
779	0	34680	
780	0	34828	
781	0	34896	
782	0	34876	
783	0	34778	
784	0	34676	
785	0	34632	
786	0	34660	
787	0	34708	
788	0	34736	
789	0	34816	
790	0	34972	
791	0	35040	
792	0	34928	
793	0	34708	
794	0	34568	
795	0	34460	
796	0	34340	
797	0	34224	
798	0	34064	
799	0	33932	
800	0	33740	
801	0	33616	
802	0	33528	
803	0	33392	
804	0	33268	
805	0	33216	
806	0	33168	
807	0	33092	
808	0	33020	
809	0	32948	
810	0	32840	
811	0	32794	
812	0	32728	
813	0	32784	
814	0	32812	
815	0	32784	
816	0	32804	
817	0	32744	
818	0	32664	
819	0	32604	
820	0	32656	
821	0	32652	
822	0	32588	
823	0	32514	
824	0	32336	
825	0	32132	
826	0	32000	
827	0	31936	
828	0	31854	
829	0	31714	
830	0	31648	
831	0	31588	
832	0	31488	
833	0	31380	
834	0	31328	
835	0	31240	
836	0	31188	
837	0	31168	
838	0	31160	
839	0	31156	
840	0	31132	
841	0	31124	
842	0	31168	
843	0	31192	
844	0	31200	
845	0	31188	
846	0	31196	
847	0	31224	
848	0	31292	
849	0	31280	
850	0	31260	
851	0	31240	
852	0	31220	
853	0	31256	
854	0	31280	
855	0	31218	
856	0	31232	
857	0	31280	
858	0	31324	
859	0	31356	
860	0	31394	
861	0	31408	
862	0	31408	
863	0	31408	
864	0	31428	
865	0	31488	
866	0	31538	
867	0	31576	
868	0	31584	
869	0	31520	
870	0	31496	
871	0	31508	
872	0	31524	
873	0	31554	
874	0	31592	
875	0	31588	
876	0	31572	
877	0	31568	
878	0	31532	
879	0	31488	
880	0	31448	
881	0	31424	
882	0	31344	
883	0	31220	
884	0	31032	
885	0	30744	
886	0	30545	
887	0	30516	
888	0	30524	
889	0	30616	
890	0	30768	
891	0	31028	
892	0	31480	
893	0	32212	
894	0	33072	
895	0	34088	
896	0	35208	
897	0	36440	
898	0	37856	
899	0	39452	
900	0	41260	
901	0	43152	
902	0	44944	
903	0	46664	
904	0	48444	
905	0	50156	
906	0	51776	
907	0	53420	
908	0	54904	
909	0	56296	
910	0	57632	
911	0	59016	
912	0	60368	
913	0	61588	
914	0	62548	
915	0	63252	
916	0	63672	
917	0	63856	
918	0	63180	
919	0	61032	
920	0	58156	
921	0	54648	
922	0	50936	
923	0	47072	
924	0	42744	
925	0	37868	
926	0	33312	
927	0	29790	
928	0	27420	
929	0	26005	
930	0	25200	
931	0	24832	
932	0	24800	
933	0	24878	
934	0	25068	
935	0	25388	
936	0	25828	
937	0	26280	
938	0	26744	
939	0	27204	
940	0	27724	
941	0	28168	
942	0	28564	
943	0	28924	
944	0	29272	
945	0	29524	
946	0	29664	
947	0	29760	
948	0	29816	
949	0	29800	
950	0	29708	
951	0	29672	
952	0	29636	
953	0	29624	
954	0	29612	
955	0	29572	
956	0	29540	
957	0	29488	
958	0	29476	
959	0	29472	
960	0	29456	
961	0	29432	
962	0	29440	
963	0	29472	
964	0	29504	
965	0	29528	
966	0	29520	
967	0	29504	
968	0	29540	
969	0	29537	
970	0	29552	
971	0	29556	
972	0	29598	
973	0	29524	
974	0	29520	
975	0	29580	
976	0	29632	
977	0	29716	
978	0	29804	
979	0	29866	
980	0	29880	
981	0	29854	
982	0	29870	
983	0	29968	
984	0	30072	
985	0	30152	
986	0	30192	
987	0	30234	
988	0	30216	
989	0	30220	
990	0	30272	
991	0	30316	
992	0	30370	
993	0	30440	
994	0	30444	
995	0	30392	
996	0	30440	
997	0	30552	
998	0	30616	
999	0	30612	
1000	0	30598	
1001	0	30636	
1002	0	30632	
1003	0	30610	
1004	0	30656	
1005	0	30688	
1006	0	30700	
1007	0	30748	
1008	0	30804	
1009	0	30844	
1010	0	30898	
1011	0	30952	
1012	0	31020	
1013	0	31060	
1014	0	31104	
1015	0	31152	
1016	0	31160	
1017	0	31180	
1018	0	31176	
1019	0	31200	
1020	0	31216	
1021	0	31232	
1022	0	31244	
1023	0	31264	
1024	0	31296	
1025	0	31324	
1026	0	31404	
1027	0	31492	
1028	0	31488	
1029	0	31464	
1030	0	31544	
1031	0	31640	
1032	0	31684	
1033	0	31692	
1034	0	31688	
1035	0	31744	
1036	0	31812	
1037	0	31832	
1038	0	31808	
1039	0	31834	
1040	0	31924	
1041	0	32020	
1042	0	32056	
1043	0	32072	
1044	0	32120	
1045	0	32132	
1046	0	32152	
1047	0	32192	
1048	0	32248	
1049	0	32304	
1050	0	32320	
1051	0	32282	
1052	0	32336	
1053	0	32448	
1054	0	32520	
1055	0	32517	
1056	0	32560	
1057	0	32640	
1058	0	32700	
1059	0	32768	
1060	0	32776	
1061	0	32824	
1062	0	32868	
1063	0	32912	
1064	0	32924	
1065	0	32976	
1066	0	33088	
1067	0	33152	
1068	0	33184	
1069	0	33220	
1070	0	33304	
1071	0	33360	
1072	0	33434	
1073	0	33524	
1074	0	33568	
1075	0	33524	
1076	0	33508	
1077	0	33560	
1078	0	33592	
1079	0	33612	
1080	0	33660	
1081	0	33664	
1082	0	33680	
1083	0	33752	
1084	0	33812	
1085	0	33918	
1086	0	33972	
1087	0	34024	
1088	0	34060	
1089	0	34104	
1090	0	34188	
1091	0	34288	
1092	0	34368	
1093	0	34424	
1094	0	34496	
1095	0	34592	
1096	0	34684	
1097	0	34768	
1098	0	34820	
1099	0	34880	
1100	0	34956	
1101	0	35000	
1102	0	35076	
1103	0	35144	
1104	0	35210	
1105	0	35272	
1106	0	35316	
1107	0	35376	
1108	0	35444	
1109	0	35528	
1110	0	35596	
1111	0	35652	
1112	0	35696	
1113	0	35752	
1114	0	35864	
1115	0	35920	
1116	0	35988	
1117	0	36056	
1118	0	36104	
1119	0	36154	
1120	0	36212	
1121	0	36240	
1122	0	36264	
1123	0	36296	
1124	0	36376	
1125	0	36456	
1126	0	36524	
1127	0	36588	
1128	0	36616	
1129	0	36640	
1130	0	36672	
1131	0	36692	
1132	0	36704	
1133	0	36788	
1134	0	36852	
1135	0	36860	
1136	0	36872	
1137	0	36876	
1138	0	36892	
1139	0	36972	
1140	0	37016	
1141	0	37000	
1142	0	36996	
1143	0	37008	
1144	0	37024	
1145	0	37004	
1146	0	37008	
1147	0	36980	
1148	0	36924	
1149	0	36908	
1150	0	36896	
1151	0	36884	
1152	0	36832	
1153	0	36716	
1154	0	36620	
1155	0	36556	
1156	0	36476	
1157	0	36356	
1158	0	36284	
1159	0	36240	
1160	0	36152	
1161	0	35976	
1162	0	35800	
1163	0	35648	
1164	0	35512	
1165	0	35324	
1166	0	35184	
1167	0	35060	
1168	0	34892	
1169	0	34736	
1170	0	34576	
1171	0	34396	
1172	0	34192	
1173	0	34004	
1174	0	33836	
1175	0	33680	
1176	0	33568	
1177	0	33452	
1178	0	33336	
1179	0	33160	
1180	0	32960	
1181	0	32788	
1182	0	32628	
1183	0	32468	
1184	0	32332	
1185	0	32204	
1186	0	32138	
1187	0	32034	
1188	0	31908	
1189	0	31776	
1190	0	31640	
1191	0	31504	
1192	0	31388	
1193	0	31304	
1194	0	31232	
1195	0	31152	
1196	0	31108	
1197	0	31040	
1198	0	30944	
1199	0	30852	
1200	0	30736	
1201	0	30634	
1202	0	30548	
1203	0	30490	
1204	0	30428	
1205	0	30368	
1206	0	30376	
1207	0	30328	
1208	0	30272	
1209	0	30208	
1210	0	30160	
1211	0	30148	
1212	0	30154	
1213	0	30120	
1214	0	30100	
1215	0	30116	
1216	0	30116	
1217	0	30100	
1218	0	30056	
1219	0	30050	
1220	0	30062	
1221	0	30040	
1222	0	30052	
1223	0	30054	
1224	0	30046	
1225	0	30020	
1226	0	30026	
1227	0	30056	
1228	0	30056	
1229	0	30052	
1230	0	30040	
1231	0	30048	
1232	0	30084	
1233	0	30124	
1234	0	30120	
1235	0	30120	
1236	0	30116	
1237	0	30140	
1238	0	30152	
1239	0	30196	
1240	0	30240	
1241	0	30252	
1242	0	30288	
1243	0	30300	
1244	0	30308	
1245	0	30348	
1246	0	30376	
1247	0	30384	
1248	0	30356	
1249	0	30344	
1250	0	30400	
1251	0	30460	
1252	0	30516	
1253	0	30544	
1254	0	30568	
1255	0	30594	
1256	0	30648	
1257	0	30676	
1258	0	30702	
1259	0	30712	
1260	0	30688	
1261	0	30688	
1262	0	30696	
1263	0	30712	
1264	0	30738	
1265	0	30760	
1266	0	30768	
1267	0	30776	
1268	0	30764	
1269	0	30746	
1270	0	30736	
1271	0	30746	
1272	0	30764	
1273	0	30788	
1274	0	30796	
1275	0	30840	
1276	0	30876	
1277	0	30888	
1278	0	30912	
1279	0	30948	
1280	0	30996	
1281	0	30988	
1282	0	30948	
1283	0	31008	
1284	0	31020	
1285	0	31040	
1286	0	31052	
1287	0	31068	
1288	0	31072	
1289	0	31112	
1290	0	31116	
1291	0	31104	
1292	0	31080	
1293	0	31128	
1294	0	31116	
1295	0	31112	
1296	0	31112	
1297	0	31156	
1298	0	31184	
1299	0	31156	
1300	0	31168	
1301	0	31168	
1302	0	31168	
1303	0	31218	
1304	0	31240	
1305	0	31248	
1306	0	31252	
1307	0	31264	
1308	0	31264	
1309	0	31216	
1310	0	31198	
1311	0	31296	
1312	0	31368	
1313	0	31376	
1314	0	31380	
1315	0	31380	
1316	0	31352	
1317	0	31330	
1318	0	31352	
1319	0	31372	
1320	0	31404	
1321	0	31384	
1322	0	31392	
1323	0	31416	
1324	0	31444	
1325	0	31392	
1326	0	31392	
1327	0	31412	
1328	0	31424	
1329	0	31452	
1330	0	31496	
1331	0	31512	
1332	0	31448	
1333	0	31436	
1334	0	31480	
1335	0	31508	
1336	0	31532	
1337	0	31500	
1338	0	31464	
1339	0	31482	
1340	0	31504	
1341	0	31512	
1342	0	31532	
1343	0	31552	
1344	0	31488	
1345	0	31476	
1346	0	31492	
1347	0	31480	
1348	0	31504	
1349	0	31520	
1350	0	31528	
1351	0	31522	
1352	0	31504	
1353	0	31536	
1354	0	31580	
1355	0	31592	
1356	0	31592	
1357	0	31592	
1358	0	31648	
1359	0	31676	
1360	0	31696	
1361	0	31724	
1362	0	31692	
1363	0	31668	
1364	0	31666	
1365	0	31680	
1366	0	31712	
1367	0	31760	
1368	0	31788	
1369	0	31804	
1370	0	31800	
1371	0	31804	
1372	0	31784	
1373	0	31780	
1374	0	31784	
1375	0	31816	
1376	0	31824	
1377	0	31800	
1378	0	31788	
1379	0	31810	
1380	0	31824	
1381	0	31788	
1382	0	31778	
1383	0	31752	
1384	0	31792	
1385	0	31824	
1386	0	31848	
1387	0	31868	
1388	0	31880	
1389	0	31908	
1390	0	31892	
1391	0	31904	
1392	0	31956	
1393	0	31976	
1394	0	31964	
1395	0	31944	
1396	0	31940	
1397	0	31952	
1398	0	31970	
1399	0	31954	
1400	0	31944	
1401	0	31964	
1402	0	31920	
1403	0	31944	
1404	0	31960	
1405	0	31944	
1406	0	31946	
1407	0	31970	
1408	0	32012	
1409	0	32008	
1410	0	31976	
1411	0	31936	
1412	0	31956	
1413	0	31992	
1414	0	31992	
1415	0	32012	
1416	0	32028	
1417	0	32038	
1418	0	32048	
1419	0	32040	
1420	0	32072	
1421	0	32068	
1422	0	32076	
1423	0	32076	
1424	0	32066	
1425	0	32044	
1426	0	32058	
1427	0	32049	
1428	0	32068	
1429	0	32096	
1430	0	32112	
1431	0	32080	
1432	0	32072	
1433	0	32080	
1434	0	32100	
1435	0	32152	
1436	0	32160	
1437	0	32152	
1438	0	32148	
1439	0	32156	
1440	0	32160	
1441	0	32168	
1442	0	32160	
1443	0	32204	
1444	0	32200	
1445	0	32172	
1446	0	32176	
1447	0	32160	
1448	0	32152	
1449	0	32204	
1450	0	32260	
1451	0	32320	
1452	0	32328	
1453	0	32288	
1454	0	32232	
1455	0	32224	
1456	0	32200	
1457	0	32192	
1458	0	32220	
1459	0	32272	
1460	0	32292	
1461	0	32312	
1462	0	32324	
1463	0	32316	
1464	0	32340	
1465	0	32362	
1466	0	32337	
1467	0	32332	
1468	0	32372	
1469	0	32376	
1470	0	32352	
1471	0	32352	
1472	0	32353	
1473	0	32356	
1474	0	32412	
1475	0	32448	
1476	0	32476	
1477	0	32556	
1478	0	32604	
1479	0	32708	
1480	0	32836	
1481	0	32948	
1482	0	33072	
1483	0	33196	
1484	0	33328	
1485	0	33456	
1486	0	33568	
1487	0	33644	
1488	0	33716	
1489	0	33832	
1490	0	33924	
1491	0	33962	
1492	0	33984	
1493	0	34004	
1494	0	34066	
1495	0	34168	
1496	0	34292	
1497	0	34392	
1498	0	34408	
1499	0	34420	
1500	0	34480	
1501	0	34544	
1502	0	34572	
1503	0	34600	
1504	0	34668	
1505	0	34772	
1506	0	34812	
1507	0	34888	
1508	0	35024	
1509	0	35136	
1510	0	35232	
1511	0	35304	
1512	0	35272	
1513	0	35188	
1514	0	35104	
1515	0	35044	
1516	0	35024	
1517	0	35020	
1518	0	35052	
1519	0	35108	
1520	0	35192	
1521	0	35300	
1522	0	35312	
1523	0	35208	
1524	0	35036	
1525	0	34908	
1526	0	34792	
1527	0	34612	
1528	0	34424	
1529	0	34264	
1530	0	34108	
1531	0	33952	
1532	0	33808	
1533	0	33692	
1534	0	33624	
1535	0	33544	
1536	0	33416	
1537	0	33308	
1538	0	33248	
1539	0	33196	
1540	0	33132	
1541	0	33104	
1542	0	33152	
1543	0	33184	
1544	0	33216	
1545	0	33240	
1546	0	33216	
1547	0	33156	
1548	0	33172	
1549	0	33184	
1550	0	33168	
1551	0	33124	
1552	0	33068	
1553	0	32988	
1554	0	32844	
1555	0	32736	
1556	0	32652	
1557	0	32608	
1558	0	32524	
1559	0	32388	
1560	0	32268	
1561	0	32152	
1562	0	32028	
1563	0	31900	
1564	0	31810	
1565	0	31696	
1566	0	31588	
1567	0	31520	
1568	0	31524	
1569	0	31524	
1570	0	31504	
1571	0	31512	
1572	0	31528	
1573	0	31604	
1574	0	31620	
1575	0	31592	
1576	0	31596	
1577	0	31580	
1578	0	31588	
1579	0	31584	
1580	0	31632	
1581	0	31649	
1582	0	31640	
1583	0	31634	
1584	0	31628	
1585	0	31632	
1586	0	31600	
1587	0	31612	
1588	0	31668	
1589	0	31733	
1590	0	31752	
1591	0	31768	
1592	0	31788	
1593	0	31796	
1594	0	31820	
1595	0	31800	
1596	0	31792	
1597	0	31832	
1598	0	31892	
1599	0	31888	
1600	0	31884	
1601	0	31912	
1602	0	31944	
1603	0	32020	
1604	0	32080	
1605	0	32052	
1606	0	32020	
1607	0	31984	
1608	0	31912	
1609	0	31820	
1610	0	31676	
1611	0	31532	
1612	0	31360	
1613	0	31152	
1614	0	30980	
1615	0	30904	
1616	0	30936	
1617	0	31048	
1618	0	31216	
1619	0	31536	
1620	0	32036	
1621	0	32632	
1622	0	33356	
1623	0	34252	
1624	0	35324	
1625	0	36552	
1626	0	37824	
1627	0	39300	
1628	0	41000	
1629	0	42780	
1630	0	44424	
1631	0	46064	
1632	0	47710	
1633	0	49392	
1634	0	51092	
1635	0	52792	
1636	0	54348	
1637	0	55784	
1638	0	57228	
1639	0	58720	
1640	0	60104	
1641	0	61248	
1642	0	62176	
1643	0	62952	
1644	0	63376	
1645	0	63536	
1646	0	63584	
1647	0	61504	
1648	0	58708	
1649	0	55268	
1650	0	51596	
1651	0	47800	
1652	0	43564	
1653	0	38778	
1654	0	34304	
1655	0	30944	
1656	0	28652	
1657	0	27118	
1658	0	26172	
1659	0	25680	
1660	0	25536	
1661	0	25568	
1662	0	25744	
1663	0	26040	
1664	0	26476	
1665	0	27008	
1666	0	27540	
1667	0	27988	
1668	0	28444	
1669	0	28844	
1670	0	29218	
1671	0	29548	
1672	0	29744	
1673	0	29844	
1674	0	29888	
1675	0	29924	
1676	0	29920	
1677	0	29864	
1678	0	29812	
1679	0	29744	
1680	0	29672	
1681	0	29640	
1682	0	29608	
1683	0	29544	
1684	0	29460	
1685	0	29412	
1686	0	29424	
1687	0	29480	
1688	0	29498	
1689	0	29460	
1690	0	29444	
1691	0	29428	
1692	0	29376	
1693	0	29384	
1694	0	29412	
1695	0	29412	
1696	0	29408	
1697	0	29432	
1698	0	29444	
1699	0	29480	
1700	0	29508	
1701	0	29512	
1702	0	29536	
1703	0	29568	
1704	0	29588	
1705	0	29596	
1706	0	29648	
1707	0	29700	
1708	0	29740	
1709	0	29736	
1710	0	29760	
1711	0	29784	
1712	0	29826	
1713	0	29852	
1714	0	29880	
1715	0	29904	
1716	0	29948	
1717	0	30000	
1718	0	30040	
1719	0	30088	
1720	0	30116	
1721	0	30130	
1722	0	30128	
1723	0	30136	
1724	0	30168	
1725	0	30224	
1726	0	30284	
1727	0	30340	
1728	0	30396	
1729	0	30440	
1730	0	30496	
1731	0	30496	
1732	0	30456	
1733	0	30468	
1734	0	30496	
1735	0	30488	
1736	0	30560	
1737	0	30608	
1738	0	30624	
1739	0	30652	
1740	0	30700	
1741	0	30744	
1742	0	30776	
1743	0	30796	
1744	0	30820	
1745	0	30860	
1746	0	30888	
1747	0	30892	
1748	0	30920	
1749	0	30944	
1750	0	30976	
1751	0	30996	
1752	0	31048	
1753	0	31068	
1754	0	31096	
1755	0	31144	
1756	0	31200	
1757	0	31224	
1758	0	31290	
1759	0	31366	
1760	0	31416	
1761	0	31432	
1762	0	31472	
1763	0	31500	
1764	0	31512	
1765	0	31522	
1766	0	31552	
1767	0	31596	
1768	0	31624	
1769	0	31668	
1770	0	31720	
1771	0	31740	
1772	0	31764	
1773	0	31808	
1774	0	31856	
1775	0	31920	
1776	0	31948	
1777	0	31952	
1778	0	31968	
1779	0	32000	
1780	0	32040	
1781	0	32088	
1782	0	32146	
1783	0	32192	
1784	0	32232	
1785	0	32276	
1786	0	32304	
1787	0	32320	
1788	0	32344	
1789	0	32404	
1790	0	32480	
1791	0	32496	
1792	0	32538	
1793	0	32576	
1794	0	32632	
1795	0	32724	
1796	0	32784	
1797	0	32836	
1798	0	32864	
1799	0	32908	
1800	0	32968	
1801	0	33020	
1802	0	33072	
1803	0	33096	
1804	0	33128	
1805	0	33168	
1806	0	33228	
1807	0	33292	
1808	0	33360	
1809	0	33444	
1810	0	33512	
1811	0	33552	
1812	0	33596	
1813	0	33644	
1814	0	33724	
1815	0	33792	
1816	0	33840	
1817	0	33896	
1818	0	33952	
1819	0	34016	
1820	0	34108	
1821	0	34172	
1822	0	34248	
1823	0	34288	
1824	0	34336	
1825	0	34396	
1826	0	34448	
1827	0	34520	
1828	0	34592	
1829	0	34628	
1830	0	34688	
1831	0	34804	
1832	0	34880	
1833	0	34912	
1834	0	34960	
1835	0	35012	
1836	0	35072	
1837	0	35168	
1838	0	35216	
1839	0	35308	
1840	0	35360	
1841	0	35412	
1842	0	35504	
1843	0	35580	
1844	0	35620	
1845	0	35688	
1846	0	35772	
1847	0	35828	
1848	0	35880	
1849	0	35952	
1850	0	36028	
1851	0	36096	
1852	0	36168	
1853	0	36180	
1854	0	36200	
1855	0	36276	
1856	0	36336	
1857	0	36400	
1858	0	36436	
1859	0	36472	
1860	0	36512	
1861	0	36548	
1862	0	36588	
1863	0	36638	
1864	0	36672	
1865	0	36724	
1866	0	36760	
1867	0	36796	
1868	0	36824	
1869	0	36848	
1870	0	36880	
1871	0	36892	
1872	0	36920	
1873	0	36928	
1874	0	36924	
1875	0	36924	
1876	0	36928	
1877	0	36920	
1878	0	36880	
1879	0	36848	
1880	0	36832	
1881	0	36832	
1882	0	36832	
1883	0	36772	
1884	0	36740	
1885	0	36664	
1886	0	36564	
1887	0	36448	
1888	0	36324	
1889	0	36224	
1890	0	36120	
1891	0	36008	
1892	0	35904	
1893	0	35774	
1894	0	35636	
1895	0	35472	
1896	0	35328	
1897	0	35188	
1898	0	35056	
1899	0	34916	
1900	0	34752	
1901	0	34564	
1902	0	34380	
1903	0	34244	
1904	0	34128	
1905	0	33996	
1906	0	33868	
1907	0	33732	
1908	0	33544	
1909	0	33404	
1910	0	33256	
1911	0	33088	
1912	0	32924	
1913	0	32762	
1914	0	32620	
1915	0	32496	
1916	0	32376	
1917	0	32260	
1918	0	32128	
1919	0	32004	
1920	0	31884	
1921	0	31822	
1922	0	31752	
1923	0	31636	
1924	0	31504	
1925	0	31392	
1926	0	31300	
1927	0	31228	
1928	0	31144	
1929	0	31048	
1930	0	30972	
1931	0	30914	
1932	0	30872	
1933	0	30800	
1934	0	30724	
1935	0	30660	
1936	0	30588	
1937	0	30536	
1938	0	30508	
1939	0	30496	
1940	0	30476	
1941	0	30432	
1942	0	30400	
1943	0	30364	
1944	0	30346	
1945	0	30332	
1946	0	30296	
1947	0	30280	
1948	0	30296	
1949	0	30304	
1950	0	30264	
1951	0	30248	
1952	0	30248	
1953	0	30260	
1954	0	30258	
1955	0	30244	
1956	0	30236	
1957	0	30240	
1958	0	30232	
1959	0	30216	
1960	0	30208	
1961	0	30226	
1962	0	30256	
1963	0	30264	
1964	0	30272	
1965	0	30292	
1966	0	30340	
1967	0	30360	
1968	0	30356	
1969	0	30332	
1970	0	30360	
1971	0	30400	
1972	0	30420	
1973	0	30400	
1974	0	30412	
1975	0	30456	
1976	0	30476	
1977	0	30464	
1978	0	30484	
1979	0	30480	
1980	0	30464	
1981	0	30480	
1982	0	30516	
1983	0	30546	
1984	0	30580	
1985	0	30624	
1986	0	30584	
1987	0	30576	
1988	0	30584	
1989	0	30592	
1990	0	30592	
1991	0	30612	
1992	0	30650	
1993	0	30664	
1994	0	30668	
1995	0	30668	
1996	0	30676	
1997	0	30664	
1998	0	30672	
1999	0	30706	
2000	0	30752	
2001	0	30776	
2002	0	30788	
2003	0	30784	
2004	0	30776	
2005	0	30776	
2006	0	30776	
2007	0	30796	
2008	0	30796	
2009	0	30804	
2010	0	30808	
2011	0	30848	
2012	0	30888	
2013	0	30936	
2014	0	31012	
2015	0	31036	
2016	0	31020	
2017	0	31020	
2018	0	31032	
2019	0	31040	
2020	0	31036	
2021	0	31018	
2022	0	31000	
2023	0	31000	
2024	0	31020	
2025	0	31008	
2026	0	31004	
2027	0	31024	
2028	0	31004	
2029	0	31008	
2030	0	31008	
2031	0	31004	
2032	0	31032	
2033	0	31092	
2034	0	31148	
2035	0	31148	
2036	0	31144	
2037	0	31170	
2038	0	31188	
2039	0	31168	
2040	0	31160	
2041	0	31156	
2042	0	31160	
2043	0	31168	
2044	0	31152	
2045	0	31164	
2046	0	31170	
2047	0	31180	
2048	0	31212	
2049	0	31212	
2050	0	31188	
2051	0	31200	
2052	0	31216	
2053	0	31226	
2054	0	31264	
2055	0	31284	
2056	0	31300	
2057	0	31296	
2058	0	31248	
2059	0	31248	
2060	0	31272	
2061	0	31296	
2062	0	31344	
2063	0	31364	
2064	0	31380	
2065	0	31376	
2066	0	31356	
2067	0	31344	
2068	0	31372	
2069	0	31364	
2070	0	31360	
2071	0	31348	
2072	0	31356	
2073	0	31336	
2074	0	31344	
2075	0	31364	
2076	0	31404	
2077	0	31440	
2078	0	31480	
2079	0	31488	
2080	0	31504	
2081	0	31476	
2082	0	31436	
2083	0	31452	
2084	0	31464	
2085	0	31498	
2086	0	31508	
2087	0	31536	
2088	0	31528	
2089	0	31572	
2090	0	31564	
2091	0	31556	
2092	0	31584	
2093	0	31600	
2094	0	31614	
2095	0	31580	
2096	0	31536	
2097	0	31552	
2098	0	31584	
2099	0	31596	
2100	0	31612	
2101	0	31600	
2102	0	31624	
2103	0	31636	
2104	0	31640	
2105	0	31612	
2106	0	31616	
2107	0	31632	
2108	0	31648	
2109	0	31648	
2110	0	31674	
2111	0	31672	
2112	0	31676	
2113	0	31674	
2114	0	31676	
2115	0	31680	
2116	0	31694	
2117	0	31706	
2118	0	31696	
2119	0	31664	
2120	0	31620	
2121	0	31628	
2122	0	31648	
2123	0	31680	
2124	0	31708	
2125	0	31688	
2126	0	31660	
2127	0	31656	
2128	0	31684	
2129	0	31672	
2130	0	31644	
2131	0	31646	
2132	0	31676	
2133	0	31680	
2134	0	31692	
2135	0	31710	
2136	0	31744	
2137	0	31784	
2138	0	31784	
2139	0	31776	
2140	0	31788	
2141	0	31792	
2142	0	31820	
2143	0	31816	
2144	0	31792	
2145	0	31796	
2146	0	31784	
2147	0	31796	
2148	0	31836	
2149	0	31846	
2150	0	31856	
2151	0	31872	
2152	0	31904	
2153	0	31880	
2154	0	31844	
2155	0	31808	
2156	0	31844	
2157	0	31872	
2158	0	31876	
2159	0	31864	
2160	0	31876	
2161	0	31900	
2162	0	31908	
2163	0	31896	
2164	0	31916	
2165	0	31936	
2166	0	31932	
2167	0	31912	
2168	0	31892	
2169	0	31904	
2170	0	31848	
2171	0	31820	
2172	0	31804	
2173	0	31800	
2174	0	31812	
2175	0	31828	
2176	0	31844	
2177	0	31840	
2178	0	31864	
2179	0	31864	
2180	0	31872	
2181	0	31848	
2182	0	31860	
2183	0	31880	
2184	0	31912	
2185	0	31928	
2186	0	31920	
2187	0	31928	
2188	0	31904	
2189	0	31908	
2190	0	31924	
2191	0	31948	
2192	0	31976	
2193	0	31960	
2194	0	31972	
2195	0	31954	
2196	0	31968	
2197	0	31988	
2198	0	32012	
2199	0	31994	
2200	0	31992	
2201	0	31996	
2202	0	31994	
2203	0	32008	
2204	0	32016	
2205	0	32030	
2206	0	32040	
2207	0	32040	
2208	0	32036	
2209	0	32060	
2210	0	32104	
2211	0	32122	
2212	0	32108	
2213	0	32122	
2214	0	32136	
2215	0	32152	
2216	0	32152	
2217	0	32136	
2218	0	32148	
2219	0	32164	
2220	0	32168	
2221	0	32124	
2222	0	32108	
2223	0	32128	
2224	0	32188	
2225	0	32256	
2226	0	32344	
2227	0	32408	
2228	0	32472	
2229	0	32558	
2230	0	32664	
2231	0	32816	
2232	0	33010	
2233	0	33200	
2234	0	33344	
2235	0	33440	
2236	0	33536	
2237	0	33664	
2238	0	33788	
2239	0	33880	
2240	0	33916	
2241	0	33880	
2242	0	33880	
2243	0	33928	
2244	0	34004	
2245	0	34080	
2246	0	34116	
2247	0	34144	
2248	0	34196	
2249	0	34292	
2250	0	34360	
2251	0	34388	
2252	0	34432	
2253	0	34532	
2254	0	34600	
2255	0	34634	
2256	0	34684	
2257	0	34792	
2258	0	34884	
2259	0	34956	
2260	0	35004	
2261	0	35012	
2262	0	34932	
2263	0	34820	
2264	0	34778	
2265	0	34776	
2266	0	34764	
2267	0	34784	
2268	0	34880	
2269	0	34960	
2270	0	35066	
2271	0	35048	
2272	0	34936	
2273	0	34796	
2274	0	34648	
2275	0	34500	
2276	0	34308	
2277	0	34124	
2278	0	33984	
2279	0	33832	
2280	0	33696	
2281	0	33568	
2282	0	33452	
2283	0	33364	
2284	0	33264	
2285	0	33160	
2286	0	33068	
2287	0	32984	
2288	0	32928	
2289	0	32888	
2290	0	32900	
2291	0	32952	
2292	0	32998	
2293	0	33056	
2294	0	33072	
2295	0	33020	
2296	0	32976	
2297	0	32916	
2298	0	32876	
2299	0	32800	
2300	0	32744	
2301	0	32660	
2302	0	32576	
2303	0	32508	
2304	0	32434	
2305	0	32338	
2306	0	32232	
2307	0	32098	
2308	0	31962	
2309	0	31840	
2310	0	31736	
2311	0	31632	
2312	0	31552	
2313	0	31468	
2314	0	31372	
2315	0	31340	
2316	0	31330	
2317	0	31281	
2318	0	31288	
2319	0	31314	
2320	0	31352	
2321	0	31364	
2322	0	31348	
2323	0	31372	
2324	0	31400	
2325	0	31412	
2326	0	31384	
2327	0	31388	
2328	0	31380	
2329	0	31400	
2330	0	31440	
2331	0	31456	
2332	0	31472	
2333	0	31484	
2334	0	31488	
2335	0	31500	
2336	0	31520	
2337	0	31524	
2338	0	31524	
2339	0	31552	
2340	0	31564	
2341	0	31556	
2342	0	31568	
2343	0	31592	
2344	0	31632	
2345	0	31640	
2346	0	31644	
2347	0	31648	
2348	0	31632	
2349	0	31608	
2350	0	31648	
2351	0	31692	
2352	0	31720	
2353	0	31700	
2354	0	31680	
2355	0	31620	
2356	0	31534	
2357	0	31444	
2358	0	31320	
2359	0	31152	
2360	0	30944	
2361	0	30784	
2362	0	30700	
2363	0	30736	
2364	0	30852	
2365	0	31030	
2366	0	31242	
2367	0	31628	
2368	0	32236	
2369	0	32960	
2370	0	33820	
2371	0	34772	
2372	0	35824	
2373	0	37016	
2374	0	38412	
2375	0	40092	
2376	0	41868	
2377	0	43568	
2378	0	45224	
2379	0	46840	
2380	0	48514	
2381	0	50264	
2382	0	52012	
2383	0	53552	
2384	0	54984	
2385	0	56440	
2386	0	57888	
2387	0	59192	
2388	0	60304	
2389	0	61212	
2390	0	61988	
2391	0	62664	
2392	0	63136	
2393	0	62672	
2394	0	60952	
2395	0	58344	
2396	0	55020	
2397	0	51344	
2398	0	47656	
2399	0	43632	
2400	0	39292	
2401	0	35036	
2402	0	31604	
2403	0	29122	
2404	0	27464	
2405	0	26476	
2406	0	25932	
2407	0	25712	
2408	0	25826	
2409	0	26096	
2410	0	26452	
2411	0	26904	
2412	0	27454	
2413	0	28018	
2414	0	28512	
2415	0	28912	
2416	0	29320	
2417	0	29648	
2418	0	29876	
2419	0	29992	
2420	0	30040	
2421	0	30016	
2422	0	29960	
2423	0	29928	
2424	0	29874	
2425	0	29820	
2426	0	29760	
2427	0	29664	
2428	0	29588	
2429	0	29530	
2430	0	29472	
2431	0	29408	
2432	0	29360	
2433	0	29328	
2434	0	29308	
2435	0	29328	
2436	0	29328	
2437	0	29336	
2438	0	29332	
2439	0	29308	
2440	0	29320	
2441	0	29304	
2442	0	29316	
2443	0	29360	
2444	0	29408	
2445	0	29424	
2446	0	29452	
2447	0	29456	
2448	0	29456	
2449	0	29500	
2450	0	29552	
2451	0	29600	
2452	0	29626	
2453	0	29664	
2454	0	29664	
2455	0	29684	
2456	0	29698	
2457	0	29724	
2458	0	29752	
2459	0	29774	
2460	0	29788	
2461	0	29808	
2462	0	29824	
2463	0	29864	
2464	0	29912	
2465	0	29948	
2466	0	29988	
2467	0	30024	
2468	0	30058	
2469	0	30088	
2470	0	30116	
2471	0	30156	
2472	0	30180	
2473	0	30228	
2474	0	30266	
2475	0	30302	
2476	0	30348	
2477	0	30360	
2478	0	30404	
2479	0	30436	
2480	0	30476	
2481	0	30504	
2482	0	30521	
2483	0	30520	
2484	0	30552	
2485	0	30584	
2486	0	30644	
2487	0	30672	
2488	0	30688	
2489	0	30716	
2490	0	30768	
2491	0	30782	
2492	0	30812	
2493	0	30856	
2494	0	30900	
2495	0	30940	
2496	0	30964	
2497	0	31000	
2498	0	31032	
2499	0	31040	
2500	0	31056	
2501	0	31050	
2502	0	31064	
2503	0	31088	
2504	0	31132	
2505	0	31144	
2506	0	31148	
2507	0	31164	
2508	0	31208	
2509	0	31244	
2510	0	31292	
2511	0	31324	
2512	0	31376	
2513	0	31420	
2514	0	31480	
2515	0	31530	
2516	0	31564	
2517	0	31604	
2518	0	31632	
2519	0	31660	
2520	0	31688	
2521	0	31682	
2522	0	31684	
2523	0	31736	
2524	0	31802	
2525	0	31852	
2526	0	31904	
2527	0	31940	
2528	0	31980	
2529	0	32012	
2530	0	32032	
2531	0	32064	
2532	0	32076	
2533	0	32100	
2534	0	32176	
2535	0	32238	
2536	0	32316	
2537	0	32376	
2538	0	32416	
2539	0	32432	
2540	0	32452	
2541	0	32494	
2542	0	32564	
2543	0	32616	
2544	0	32664	
2545	0	32704	
2546	0	32764	
2547	0	32808	
2548	0	32856	
2549	0	32916	
2550	0	32980	
2551	0	33024	
2552	0	33056	
2553	0	33112	
2554	0	33152	
2555	0	33220	
2556	0	33292	
2557	0	33356	
2558	0	33404	
2559	0	33428	
2560	0	33470	
2561	0	33508	
2562	0	33536	
2563	0	33576	
2564	0	33652	
2565	0	33704	
2566	0	33768	
2567	0	33824	
2568	0	33896	
2569	0	33952	
2570	0	34032	
2571	0	34112	
2572	0	34184	
2573	0	34248	
2574	0	34320	
2575	0	34384	
2576	0	34436	
2577	0	34480	
2578	0	34552	
2579	0	34608	
2580	0	34664	
2581	0	34732	
2582	0	34816	
2583	0	34872	
2584	0	34944	
2585	0	35016	
2586	0	35072	
2587	0	35140	
2588	0	35196	
2589	0	35252	
2590	0	35324	
2591	0	35372	
2592	0	35426	
2593	0	35476	
2594	0	35532	
2595	0	35616	
2596	0	35684	
2597	0	35744	
2598	0	35808	
2599	0	35856	
2600	0	35922	
2601	0	35952	
2602	0	35996	
2603	0	36040	
2604	0	36044	
2605	0	36064	
2606	0	36116	
2607	0	36164	
2608	0	36212	
2609	0	36284	
2610	0	36352	
2611	0	36412	
2612	0	36448	
2613	0	36480	
2614	0	36512	
2615	0	36540	
2616	0	36600	
2617	0	36624	
2618	0	36632	
2619	0	36652	
2620	0	36640	
2621	0	36652	
2622	0	36644	
2623	0	36640	
2624	0	36644	
2625	0	36640	
2626	0	36602	
2627	0	36584	
2628	0	36576	
2629	0	36572	
2630	0	36560	
2631	0	36532	
2632	0	36468	
2633	0	36416	
2634	0	36336	
2635	0	36240	
2636	0	36148	
2637	0	36068	
2638	0	35992	
2639	0	35888	
2640	0	35740	
2641	0	35608	
2642	0	35472	
2643	0	35332	
2644	0	35184	
2645	0	35048	
2646	0	34920	
2647	0	34772	
2648	0	34616	
2649	0	34464	
2650	0	34296	
2651	0	34152	
2652	0	33988	
2653	0	33828	
2654	0	33688	
2655	0	33528	
2656	0	33392	
2657	0	33272	
2658	0	33120	
2659	0	32956	
2660	0	32810	
2661	0	32652	
2662	0	32540	
2663	0	32444	
2664	0	32308	
2665	0	32156	
2666	0	31988	
2667	0	31864	
2668	0	31796	
2669	0	31684	
2670	0	31578	
2671	0	31472	
2672	0	31408	
2673	0	31308	
2674	0	31220	
2675	0	31164	
2676	0	31136	
2677	0	31096	
2678	0	31016	
2679	0	30924	
2680	0	30864	
2681	0	30756	
2682	0	30672	
2683	0	30632	
2684	0	30592	
2685	0	30508	
2686	0	30432	
2687	0	30408	
2688	0	30404	
2689	0	30380	
2690	0	30364	
2691	0	30356	
2692	0	30348	
2693	0	30332	
2694	0	30300	
2695	0	30270	
2696	0	30272	
2697	0	30272	
2698	0	30272	
2699	0	30264	
2700	0	30240	
2701	0	30208	
2702	0	30208	
2703	0	30232	
2704	0	30244	
2705	0	30276	
2706	0	30304	
2707	0	30312	
2708	0	30324	
2709	0	30316	
2710	0	30308	
2711	0	30320	
2712	0	30316	
2713	0	30348	
2714	0	30396	
2715	0	30408	
2716	0	30412	
2717	0	30424	
2718	0	30432	
2719	0	30460	
2720	0	30480	
2721	0	30488	
2722	0	30488	
2723	0	30492	
2724	0	30516	
2725	0	30532	
2726	0	30532	
2727	0	30532	
2728	0	30532	
2729	0	30586	
2730	0	30612	
2731	0	30668	
2732	0	30668	
2733	0	30652	
2734	0	30688	
2735	0	30700	
2736	0	30724	
2737	0	30724	
2738	0	30664	
2739	0	30644	
2740	0	30656	
2741	0	30652	
2742	0	30644	
2743	0	30708	
2744	0	30736	
2745	0	30728	
2746	0	30676	
2747	0	30688	
2748	0	30716	
2749	0	30768	
2750	0	30816	
2751	0	30820	
2752	0	30805	
2753	0	30784	
2754	0	30800	
2755	0	30816	
2756	0	30860	
2757	0	30848	
2758	0	30860	
2759	0	30864	
2760	0	30888	
2761	0	30916	
2762	0	30944	
2763	0	30968	
2764	0	30980	
2765	0	31004	
2766	0	31004	
2767	0	31008	
2768	0	31028	
2769	0	31056	
2770	0	31080	
2771	0	31084	
2772	0	31068	
2773	0	31064	
2774	0	31056	
2775	0	31048	
2776	0	31076	
2777	0	31100	
2778	0	31128	
2779	0	31150	
2780	0	31168	
2781	0	31140	
2782	0	31132	
2783	0	31138	
2784	0	31130	
2785	0	31152	
2786	0	31192	
2787	0	31204	
2788	0	31224	
2789	0	31220	
2790	0	31234	
2791	0	31252	
2792	0	31272	
2793	0	31296	
2794	0	31312	
2795	0	31322	
2796	0	31338	
2797	0	31360	
2798	0	31352	
2799	0	31340	
2800	0	31352	
2801	0	31376	
2802	0	31392	
2803	0	31392	
2804	0	31412	
2805	0	31436	
2806	0	31420	
2807	0	31404	
2808	0	31374	
2809	0	31388	
2810	0	31380	
2811	0	31376	
2812	0	31384	
2813	0	31416	
2814	0	31418	
2815	0	31420	
2816	0	31432	
2817	0	31440	
2818	0	31444	
2819	0	31460	
2820	0	31450	
2821	0	31444	
2822	0	31476	
2823	0	31528	
2824	0	31572	
2825	0	31588	
2826	0	31608	
2827	0	31612	
2828	0	31596	
2829	0	31564	
2830	0	31532	
2831	0	31520	
2832	0	31530	
2833	0	31490	
2834	0	31480	
2835	0	31480	
2836	0	31472	
2837	0	31498	
2838	0	31532	
2839	0	31584	
2840	0	31596	
2841	0	31580	
2842	0	31556	
2843	0	31528	
2844	0	31532	
2845	0	31552	
2846	0	31568	
2847	0	31584	
2848	0	31620	
2849	0	31652	
2850	0	31660	
2851	0	31649	
2852	0	31644	
2853	0	31616	
2854	0	31616	
2855	0	31620	
2856	0	31616	
2857	0	31640	
2858	0	31648	
2859	0	31684	
2860	0	31712	
2861	0	31692	
2862	0	31680	
2863	0	31684	
2864	0	31680	
2865	0	31680	
2866	0	31660	
2867	0	31668	
2868	0	31688	
2869	0	31680	
2870	0	31680	
2871	0	31696	
2872	0	31712	
2873	0	31696	
2874	0	31660	
2875	0	31666	
2876	0	31680	
2877	0	31684	
2878	0	31696	
2879	0	31688	
2880	0	31708	
2881	0	31704	
2882	0	31720	
2883	0	31732	
2884	0	31760	
2885	0	31788	
2886	0	31808	
2887	0	31796	
2888	0	31804	
2889	0	31820	
2890	0	31832	
2891	0	31844	
2892	0	31828	
2893	0	31824	
2894	0	31848	
2895	0	31864	
2896	0	31842	
2897	0	31820	
2898	0	31820	
2899	0	31828	
2900	0	31840	
2901	0	31836	
2902	0	31852	
2903	0	31888	
2904	0	31908	
2905	0	31912	
2906	0	31916	
2907	0	31924	
2908	0	31932	
2909	0	31944	
2910	0	31956	
2911	0	31944	
2912	0	31920	
2913	0	31928	
2914	0	31968	
2915	0	31972	
2916	0	31976	
2917	0	31968	
2918	0	31956	
2919	0	31948	
2920	0	31924	
2921	0	31906	
2922	0	31896	
2923	0	31908	
2924	0	31912	
2925	0	31936	
2926	0	31956	
2927	0	31988	
2928	0	31992	
2929	0	32008	
2930	0	32016	
2931	0	32024	
2932	0	31988	
2933	0	31964	
2934	0	31958	
2935	0	31960	
2936	0	31960	
2937	0	31944	
2938	0	31954	
2939	0	31984	
2940	0	31976	
2941	0	32012	
2942	0	32060	
2943	0	32100	
2944	0	32096	
2945	0	32096	
2946	0	32096	
2947	0	32068	
2948	0	32072	
2949	0	32076	
2950	0	32044	
2951	0	32032	
2952	0	32064	
2953	0	32060	
2954	0	32056	
2955	0	32064	
2956	0	32048	
2957	0	32016	
2958	0	32024	
2959	0	32020	
2960	0	32036	
2961	0	32056	
2962	0	32064	
2963	0	32072	
2964	0	32076	
2965	0	32084	
2966	0	32096	
2967	0	32110	
2968	0	32092	
2969	0	32062	
2970	0	32064	
2971	0	32088	
2972	0	32068	
2973	0	32064	
2974	0	32080	
2975	0	32100	
2976	0	32124	
2977	0	32176	
2978	0	32272	
2979	0	32368	
2980	0	32468	
2981	0	32576	
2982	0	32622	
2983	0	32736	
2984	0	32864	
2985	0	33008	
2986	0	33148	
2987	0	33292	
2988	0	33412	
2989	0	33488	
2990	0	33624	
2991	0	33752	
2992	0	33824	
2993	0	33840	
2994	0	33828	
2995	0	33808	
2996	0	33848	
2997	0	33920	
2998	0	33992	
2999	0	34050	
3000	0	34124	
3001	0	34196	
3002	0	34232	
3003	0	34272	
3004	0	34280	
3005	0	34352	
3006	0	34488	
3007	0	34600	
3008	0	34660	
3009	0	34746	
3010	0	34832	
3011	0	34928	
3012	0	35048	
3013	0	35104	
3014	0	35116	
3015	0	35088	
3016	0	35008	
3017	0	34972	
3018	0	34964	
3019	0	35008	
3020	0	35064	
3021	0	35152	
3022	0	35260	
3023	0	35328	
3024	0	35268	
3025	0	35108	
3026	0	34932	
3027	0	34804	
3028	0	34674	
3029	0	34528	
3030	0	34336	
3031	0	34166	
3032	0	33956	
3033	0	33792	
3034	0	33660	
3035	0	33600	
3036	0	33512	
3037	0	33402	
3038	0	33348	
3039	0	33284	
3040	0	33164	
3041	0	33056	
3042	0	33008	
3043	0	33032	
3044	0	33068	
3045	0	33136	
3046	0	33174	
3047	0	33112	
3048	0	33012	
3049	0	32948	
3050	0	32872	
3051	0	32776	
3052	0	32712	
3053	0	32688	
3054	0	32664	
3055	0	32580	
3056	0	32488	
3057	0	32404	
3058	0	32308	
3059	0	32180	
3060	0	32032	
3061	0	31912	
3062	0	31836	
3063	0	31752	
3064	0	31616	
3065	0	31466	
3066	0	31372	
3067	0	31296	
3068	0	31272	
3069	0	31266	
3070	0	31248	
3071	0	31290	
3072	0	31340	
3073	0	31360	
3074	0	31332	
3075	0	31328	
3076	0	31352	
3077	0	31400	
3078	0	31414	
3079	0	31452	
3080	0	31448	
3081	0	31404	
3082	0	31396	
3083	0	31456	
3084	0	31476	
3085	0	31452	
3086	0	31424	
3087	0	31422	
3088	0	31416	
3089	0	31452	
3090	0	31524	
3091	0	31548	
3092	0	31564	
3093	0	31572	
3094	0	31572	
3095	0	31608	
3096	0	31664	
3097	0	31704	
3098	0	31756	
3099	0	31832	
3100	0	31842	
3101	0	31836	
3102	0	31844	
3103	0	31864	
3104	0	31876	
3105	0	31844	
3106	0	31804	
3107	0	31736	
3108	0	31620	
3109	0	31488	
3110	0	31380	
3111	0	31276	
3112	0	31104	
3113	0	30900	
3114	0	30788	
3115	0	30820	
3116	0	30948	
3117	0	31044	
3118	0	31224	
3119	0	31520	
3120	0	31984	
3121	0	32616	
3122	0	33424	
3123	0	34368	
3124	0	35408	
3125	0	36528	
3126	0	37826	
3127	0	39440	
3128	0	41240	
3129	0	42992	
3130	0	44720	
3131	0	46424	
3132	0	48120	
3133	0	49880	
3134	0	51680	
3135	0	53380	
3136	0	54848	
3137	0	56272	
3138	0	57656	
3139	0	59016	
3140	0	60184	
3141	0	61164	
3142	0	61920	
3143	0	62556	
3144	0	62956	
3145	0	62484	
3146	0	60756	
3147	0	58196	
3148	0	54836	
3149	0	51072	
3150	0	47416	
3151	0	43552	
3152	0	39256	
3153	0	34976	
3154	0	31504	
3155	0	29040	
3156	0	27380	
3157	0	26372	
3158	0	25834	
3159	0	25666	
3160	0	25696	
3161	0	25832	
3162	0	26136	
3163	0	26658	
3164	0	27248	
3165	0	27786	
3166	0	28260	
3167	0	28672	
3168	0	29032	
3169	0	29396	
3170	0	29680	
3171	0	29840	
3172	0	29892	
3173	0	29864	
3174	0	29844	
3175	0	29776	
3176	0	29692	
3177	0	29644	
3178	0	29624	
3179	0	29576	
3180	0	29480	
3181	0	29416	
3182	0	29364	
3183	0	29356	
3184	0	29360	
3185	0	29316	
3186	0	29320	
3187	0	29308	
3188	0	29320	
3189	0	29300	
3190	0	29244	
3191	0	29172	
3192	0	29168	
3193	0	29228	
3194	0	29236	
3195	0	29240	
3196	0	29292	
3197	0	29372	
3198	0	29384	
3199	0	29380	
3200	0	29410	
3201	0	29456	
3202	0	29472	
3203	0	29460	
3204	0	29428	
3205	0	29498	
3206	0	29524	
3207	0	29516	
3208	0	29504	
3209	0	29500	
3210	0	29580	
3211	0	29672	
3212	0	29700	
3213	0	29696	
3214	0	29732	
3215	0	29746	
3216	0	29792	
3217	0	29828	
3218	0	29812	
3219	0	29864	
3220	0	29932	
3221	0	29962	
3222	0	29992	
3223	0	30044	
3224	0	30044	
3225	0	30024	
3226	0	30028	
3227	0	30080	
3228	0	30132	
3229	0	30204	
3230	0	30304	
3231	0	30336	
3232	0	30336	
3233	0	30340	
3234	0	30336	
3235	0	30388	
3236	0	30420	
3237	0	30432	
3238	0	30444	
3239	0	30496	
3240	0	30524	
3241	0	30508	
3242	0	30536	
3243	0	30596	
3244	0	30640	
3245	0	30640	
3246	0	30624	
3247	0	30652	
3248	0	30688	
3249	0	30720	
3250	0	30764	
3251	0	30816	
3252	0	30860	
3253	0	30920	
3254	0	30944	
3255	0	30924	
3256	0	30914	
3257	0	30954	
3258	0	30984	
3259	0	31000	
3260	0	31024	
3261	0	31084	
3262	0	31168	
3263	0	31240	
3264	0	31284	
3265	0	31288	
3266	0	31268	
3267	0	31280	
3268	0	31356	
3269	0	31400	
3270	0	31420	
3271	0	31436	
3272	0	31448	
3273	0	31472	
3274	0	31512	
3275	0	31560	
3276	0	31600	
3277	0	31652	
3278	0	31692	
3279	0	31724	
3280	0	31760	
3281	0	31846	
3282	0	31936	
3283	0	32012	
3284	0	32004	
3285	0	31988	
3286	0	31992	
3287	0	31988	
3288	0	32026	
3289	0	32116	
3290	0	32240	
3291	0	32372	
3292	0	32468	
3293	0	32496	
3294	0	32456	
3295	0	32440	
3296	0	32452	
3297	0	32492	
3298	0	32488	
3299	0	32492	
3300	0	32568	
3301	0	32716	
3302	0	32808	
3303	0	32884	
3304	0	32912	
3305	0	32924	
3306	0	32896	
3307	0	32916	
3308	0	32924	
3309	0	32964	
3310	0	33072	
3311	0	33168	
3312	0	33244	
3313	0	33256	
3314	0	33256	
3315	0	33288	
3316	0	33324	
3317	0	33364	
3318	0	33440	
3319	0	33520	
3320	0	33588	
3321	0	33688	
3322	0	33736	
3323	0	33764	
3324	0	33824	
3325	0	33900	
3326	0	33968	
3327	0	34000	
3328	0	34024	
3329	0	34108	
3330	0	34248	
3331	0	34260	
3332	0	34260	
3333	0	34316	
3334	0	34420	
3335	0	34516	
3336	0	34580	
3337	0	34640	
3338	0	34740	
3339	0	34840	
3340	0	34916	
3341	0	34964	
3342	0	35016	
3343	0	35104	
3344	0	35176	
3345	0	35220	
3346	0	35208	
3347	0	35268	
3348	0	35338	
3349	0	35428	
3350	0	35484	
3351	0	35504	
3352	0	35604	
3353	0	35736	
3354	0	35852	
3355	0	35946	
3356	0	35992	
3357	0	35992	
3358	0	35996	
3359	0	36008	
3360	0	36058	
3361	0	36136	
3362	0	36154	
3363	0	36148	
3364	0	36196	
3365	0	36224	
3366	0	36312	
3367	0	36410	
3368	0	36436	
3369	0	36472	
3370	0	36432	
3371	0	36416	
3372	0	36436	
3373	0	36456	
3374	0	36424	
3375	0	36414	
3376	0	36400	
3377	0	36420	
3378	0	36440	
3379	0	36396	
3380	0	36400	
3381	0	36432	
3382	0	36396	
3383	0	36328	
3384	0	36220	
3385	0	36120	
3386	0	36014	
3387	0	35980	
3388	0	35896	
3389	0	35804	
3390	0	35660	
3391	0	35544	
3392	0	35492	
3393	0	35332	
3394	0	35152	
3395	0	35064	
3396	0	34968	
3397	0	34840	
3398	0	34656	
3399	0	34452	
3400	0	34312	
3401	0	34192	
3402	0	34016	
3403	0	33884	
3404	0	33748	
3405	0	33544	
3406	0	33368	
3407	0	33220	
3408	0	33024	
3409	0	32860	
3410	0	32728	
3411	0	32592	
3412	0	32448	
3413	0	32320	
3414	0	32208	
3415	0	32052	
3416	0	31844	
3417	0	31668	
3418	0	31554	
3419	0	31428	
3420	0	31276	
3421	0	31178	
3422	0	31128	
3423	0	31044	
3424	0	30920	
3425	0	30776	
3426	0	30624	
3427	0	30472	
3428	0	30372	
3429	0	30348	
3430	0	30272	
3431	0	30192	
3432	0	30072	
3433	0	30024	
3434	0	29970	
3435	0	29864	
3436	0	29760	
3437	0	29696	
3438	0	29664	
3439	0	29638	
3440	0	29664	
3441	0	29656	
3442	0	29628	
3443	0	29628	
3444	0	29592	
3445	0	29576	
3446	0	29568	
3447	0	29548	
3448	0	29560	
3449	0	29520	
3450	0	29514	
3451	0	29466	
3452	0	29492	
3453	0	29528	
3454	0	29572	
3455	0	29532	
3456	0	29464	
3457	0	29416	
3458	0	29428	
3459	0	29456	
3460	0	29484	
3461	0	29584	
3462	0	29646	
3463	0	29642	
3464	0	29628	
3465	0	29664	
3466	0	29736	
3467	0	29760	
3468	0	29732	
3469	0	29746	
3470	0	29724	
3471	0	29684	
3472	0	29720	
3473	0	29700	
3474	0	29724	
3475	0	29784	
3476	0	29776	
3477	0	29752	
3478	0	29712	
3479	0	29688	
3480	0	29780	
3481	0	29856	
3482	0	29858	
3483	0	29856	
3484	0	29812	
3485	0	29796	
3486	0	29816	
3487	0	29792	
3488	0	29820	
3489	0	29836	
3490	0	29876	
3491	0	29904	
3492	0	29868	
3493	0	29768	
3494	0	29744	
3495	0	29716	
3496	0	29814	
3497	0	29904	
3498	0	29992	
3499	0	30012	
3500	0	29972	
3501	0	29960	
3502	0	30116	
3503	0	30208	
3504	0	30112	
3505	0	30060	
3506	0	30124	
3507	0	30136	
3508	0	30084	
3509	0	30096	
3510	0	30186	
3511	0	30202	
3512	0	30228	
3513	0	30256	
3514	0	30272	
3515	0	30280	
3516	0	30300	
3517	0	30316	
3518	0	30320	
3519	0	30264	
3520	0	30208	
3521	0	30228	
3522	0	30196	
3523	0	30210	
3524	0	30224	
3525	0	30148	
3526	0	30104	
3527	0	30180	
3528	0	30284	
3529	0	30340	
3530	0	30400	
3531	0	30436	
3532	0	30428	
3533	0	30424	
3534	0	30448	
3535	0	30408	
3536	0	30404	
3537	0	30464	
3538	0	30500	
3539	0	30540	
3540	0	30546	
3541	0	30468	
3542	0	30448	
3543	0	30456	
3544	0	30448	
3545	0	30436	
3546	0	30432	
3547	0	30404	
3548	0	30500	
3549	0	30532	
3550	0	30604	
3551	0	30656	
3552	0	30640	
3553	0	30664	
3554	0	30772	
3555	0	30794	
3556	0	30752	
3557	0	30786	
3558	0	30784	
3559	0	30850	
3560	0	30820	
3561	0	30748	
3562	0	30628	
3563	0	30572	
3564	0	30632	
3565	0	30748	
3566	0	30816	
3567	0	30848	
3568	0	30852	
3569	0	30816	
3570	0	30808	
3571	0	30796	
3572	0	30792	
3573	0	30812	
3574	0	30848	
3575	0	30976	
3576	0	31000	
3577	0	30906	
3578	0	30868	
3579	0	30892	
3580	0	30968	
3581	0	31080	
3582	0	31104	
3583	0	31056	
3584	0	31044	
3585	0	31008	
3586	0	31028	
3587	0	31028	
3588	0	31080	
3589	0	31060	
3590	0	30992	
3591	0	30984	
3592	0	31056	
3593	0	31126	
3594	0	31200	
3595	0	31168	
3596	0	31068	
3597	0	31068	
3598	0	31148	
3599	0	31168	
3600	0	31236	
3601	0	31340	
3602	0	31304	
3603	0	31169	
3604	0	31072	
3605	0	30940	
3606	0	30972	
3607	0	31140	
3608	0	31184	
3609	0	31168	
3610	0	31108	
3611	0	31044	
3612	0	31028	
3613	0	31008	
3614	0	31014	
3615	0	31004	
3616	0	31000	
3617	0	30988	
3618	0	31032	
3619	0	31024	
3620	0	31100	
3621	0	31128	
3622	0	31080	
3623	0	31160	
3624	0	31258	
3625	0	31296	
3626	0	31328	
3627	0	31412	
3628	0	31484	
3629	0	31464	
3630	0	31472	
3631	0	31448	
3632	0	31348	
3633	0	31328	
3634	0	31288	
3635	0	31320	
3636	0	31256	
3637	0	31176	
3638	0	31208	
3639	0	31256	
3640	0	31276	
3641	0	31136	
3642	0	31020	
3643	0	31040	
3644	0	31132	
3645	0	31184	
3646	0	31256	
3647	0	31322	
3648	0	31332	
3649	0	31332	
3650	0	31340	
3651	0	31348	
3652	0	31368	
3653	0	31412	
3654	0	31452	
3655	0	31476	
3656	0	31436	
3657	0	31408	
3658	0	31404	
3659	0	31384	
3660	0	31372	
3661	0	31320	
3662	0	31328	
3663	0	31424	
3664	0	31512	
3665	0	31524	
3666	0	31580	
3667	0	31564	
3668	0	31536	
3669	0	31584	
3670	0	31668	
3671	0	31792	
3672	0	32034	
3673	0	32208	
3674	0	32352	
3675	0	32512	
3676	0	32661	
3677	0	32884	
3678	0	33020	
3679	0	33076	
3680	0	33144	
3681	0	33084	
3682	0	33008	
3683	0	33136	
3684	0	33296	
3685	0	33412	
3686	0	33384	
3687	0	33436	
3688	0	33496	
3689	0	33536	
3690	0	33540	
3691	0	33428	
3692	0	33484	
3693	0	33600	
3694	0	33848	
3695	0	34076	
3696	0	34220	
3697	0	34400	
3698	0	34548	
3699	0	34584	
3700	0	34592	
3701	0	34624	
3702	0	34592	
3703	0	34524	
3704	0	34412	
3705	0	34424	
3706	0	34452	
3707	0	34426	
3708	0	34458	
3709	0	34580	
3710	0	34650	
3711	0	34616	
3712	0	34464	
3713	0	34336	
3714	0	34288	
3715	0	34184	
3716	0	34020	
3717	0	33760	
3718	0	33528	
3719	0	33432	
3720	0	33380	
3721	0	33430	
3722	0	33392	
3723	0	33248	
3724	0	33196	
3725	0	33180	
3726	0	33080	
3727	0	32968	
3728	0	32732	
3729	0	32666	
3730	0	32624	
3731	0	32512	
3732	0	32460	
3733	0	32436	
3734	0	32380	
3735	0	32356	
3736	0	32364	
3737	0	32256	
3738	0	32128	
3739	0	32110	
3740	0	32052	
3741	0	31860	
3742	0	31616	
3743	0	31504	
3744	0	31472	
3745	0	31344	
3746	0	31260	
3747	0	31234	
3748	0	31164	
3749	0	31088	
3750	0	31116	
3751	0	31024	
3752	0	30836	
3753	0	30704	
3754	0	30632	
3755	0	30660	
3756	0	30664	
3757	0	30668	
3758	0	30684	
3759	0	30672	
3760	0	30744	
3761	0	30816	
3762	0	30920	
3763	0	30984	
3764	0	30952	
3765	0	30896	
3766	0	30912	
3767	0	30896	
3768	0	30880	
3769	0	30748	
3770	0	30744	
3771	0	30860	
3772	0	30960	
3773	0	30954	
3774	0	30900	
3775	0	30812	
3776	0	30824	
3777	0	30864	
3778	0	30894	
3779	0	30920	
3780	0	31008	
3781	0	31008	
3782	0	30954	
3783	0	30920	
3784	0	30944	
3785	0	31022	
3786	0	31128	
3787	0	31216	
3788	0	31280	
3789	0	31252	
3790	0	31256	
3791	0	31252	
3792	0	31248	
3793	0	31108	
3794	0	31096	
3795	0	31096	
3796	0	30948	
3797	0	30780	
3798	0	30724	
3799	0	30560	
3800	0	30240	
3801	0	29884	
3802	0	29688	
3803	0	29680	
3804	0	29840	
3805	0	30042	
3806	0	30234	
3807	0	30372	
3808	0	30604	
3809	0	31020	
3810	0	31612	
3811	0	32456	
3812	0	33492	
3813	0	34688	
3814	0	36128	
3815	0	37744	
3816	0	39576	
3817	0	41408	
3818	0	43292	
3819	0	45304	
3820	0	47176	
3821	0	49040	
3822	0	50912	
3823	0	52640	
3824	0	54208	
3825	0	55660	
3826	0	57044	
3827	0	58312	
3828	0	59512	
3829	0	60640	
3830	0	61656	
3831	0	62440	
3832	0	62876	
3833	0	62528	
3834	0	61112	
3835	0	58864	
3836	0	55920	
3837	0	52332	
3838	0	48724	
3839	0	44836	
3840	0	40464	
3841	0	35620	
3842	0	31104	
3843	0	27680	
3844	0	25388	
3845	0	24272	
3846	0	23994	
3847	0	24016	
3848	0	24178	
3849	0	24436	
3850	0	24768	
3851	0	25104	
3852	0	25360	
3853	0	25633	
3854	0	25988	
3855	0	26272	
3856	0	26596	
3857	0	27148	
3858	0	27628	
3859	0	28002	
3860	0	28442	
3861	0	28804	
3862	0	29050	
3863	0	29132	
3864	0	29160	
3865	0	29276	
3866	0	29332	
3867	0	29328	
3868	0	29270	
3869	0	29212	
3870	0	29090	
3871	0	29036	
3872	0	29012	
3873	0	28956	
3874	0	28916	
3875	0	28952	
3876	0	29044	
3877	0	29120	
3878	0	29144	
3879	0	29180	
3880	0	29096	
3881	0	29048	
3882	0	29080	
3883	0	29136	
3884	0	29140	
3885	0	29144	
3886	0	29082	
3887	0	29066	
3888	0	29120	
3889	0	29336	
3890	0	29396	
3891	0	29624	
3892	0	29628	
3893	0	29524	
3894	0	29536	
3895	0	29620	
3896	0	29572	
3897	0	29568	
3898	0	29712	
3899	0	29824	
3900	0	29872	
3901	0	29728	
3902	0	29736	
3903	0	29800	
3904	0	29756	
3905	0	29892	
3906	0	30096	
3907	0	30188	
3908	0	30304	
3909	0	30320	
3910	0	30268	
3911	0	30268	
3912	0	30296	
3913	0	30260	
3914	0	30240	
3915	0	30252	
3916	0	30260	
3917	0	30272	
3918	0	30284	
3919	0	30284	
3920	0	30316	
3921	0	30352	
3922	0	30392	
3923	0	30460	
3924	0	30632	
3925	0	30724	
3926	0	30736	
3927	0	30764	
3928	0	30828	
3929	0	30876	
3930	0	30852	
3931	0	30656	
3932	0	30538	
3933	0	30568	
3934	0	30552	
3935	0	30608	
3936	0	30688	
3937	0	30764	
3938	0	30804	
3939	0	30992	
3940	0	31024	
3941	0	30988	
3942	0	31096	
3943	0	31092	
3944	0	31188	
3945	0	31348	
3946	0	31408	
3947	0	31456	
3948	0	31616	
3949	0	31696	
3950	0	31564	
3951	0	31436	
3952	0	31416	
3953	0	31448	
3954	0	31420	
3955	0	31436	
3956	0	31528	
3957	0	31640	
3958	0	31716	
3959	0	31712	
3960	0	31740	
3961	0	31820	
3962	0	31900	
3963	0	31944	
3964	0	32086	
3965	0	32112	
3966	0	31970	
3967	0	31840	
3968	0	31810	
3969	0	31836	
3970	0	31896	
3971	0	32048	
3972	0	32176	
3973	0	32344	
3974	0	32496	
3975	0	32624	
3976	0	32672	
3977	0	32800	
3978	0	32816	
3979	0	32694	
3980	0	32636	
3981	0	32560	
3982	0	32500	
3983	0	32524	
3984	0	32638	
3985	0	32796	
3986	0	32752	
3987	0	32644	
3988	0	32524	
3989	0	32672	
3990	0	32700	
3991	0	32796	
3992	0	32932	
3993	0	33040	
3994	0	33140	
3995	0	33312	
3996	0	33400	
3997	0	33378	
3998	0	33444	
3999	0	33688	
4000	0	33972	
4001	0	33988	
4002	0	33856	
4003	0	33840	
4004	0	33920	
4005	0	33944	
4006	0	33952	
4007	0	33940	
4008	0	33992	
4009	0	34082	
4010	0	34160	
4011	0	34152	
4012	0	34080	
4013	0	34068	
4014	0	34072	
4015	0	34092	
4016	0	34184	
4017	0	34364	
4018	0	34412	
4019	0	34380	
4020	0	34520	
4021	0	34744	
4022	0	34964	
4023	0	35012	
4024	0	35124	
4025	0	35192	
4026	0	35292	
4027	0	35492	
4028	0	35610	
4029	0	35600	
4030	0	35604	
4031	0	35616	
4032	0	35596	
4033	0	35652	
4034	0	35692	
4035	0	35800	
4036	0	35904	
4037	0	35992	
4038	0	36112	
4039	0	36092	
4040	0	35972	
4041	0	35832	
4042	0	35856	
4043	0	36100	
4044	0	36408	
4045	0	36432	
4046	0	36392	
4047	0	36378	
4048	0	36388	
4049	0	36386	
4050	0	36348	
4051	0	36366	
4052	0	36392	
4053	0	36484	
4054	0	36576	
4055	0	36632	
4056	0	36636	
4057	0	36644	
4058	0	36656	
4059	0	36760	
4060	0	36802	
4061	0	36664	
4062	0	36568	
4063	0	36568	
4064	0	36596	
4065	0	36544	
4066	0	36508	
4067	0	36512	
4068	0	36524	
4069	0	36540	
4070	0	36484	
4071	0	36464	
4072	0	36412	
4073	0	36340	
4074	0	36308	
4075	0	36348	
4076	0	36332	
4077	0	36256	
4078	0	35980	
4079	0	35624	
4080	0	35272	
4081	0	35124	
4082	0	35164	
4083	0	35008	
4084	0	34688	
4085	0	34490	
4086	0	34352	
4087	0	34152	
4088	0	34012	
4089	0	33920	
4090	0	33888	
4091	0	33688	
4092	0	33376	
4093	0	33016	
4094	0	32724	
4095	0	32712	
4096	0	32680	
4097	0	32428	
4098	0	32268	
4099	0	32160	
4100	0	32008	
4101	0	31864	
4102	0	31686	
4103	0	31528	
4104	0	31372	
4105	0	31240	
4106	0	31066	
4107	0	30968	
4108	0	30752	
4109	0	30554	
4110	0	30452	
4111	0	30296	
4112	0	30192	
4113	0	30280	
4114	0	30328	
4115	0	30352	
4116	0	30408	
4117	0	30370	
4118	0	30152	
4119	0	30001	
4120	0	29860	
4121	0	29632	
4122	0	29424	
4123	0	29520	
4124	0	29468	
4125	0	29338	
4126	0	29274	
4127	0	29380	
4128	0	29404	
4129	0	29416	
4130	0	29296	
4131	0	29234	
4132	0	29268	
4133	0	29248	
4134	0	29240	
4135	0	29226	
4136	0	29240	
4137	0	29272	
4138	0	29204	
4139	0	29156	
4140	0	29232	
4141	0	29250	
4142	0	29208	
4143	0	29090	
4144	0	29056	
4145	0	29080	
4146	0	29188	
4147	0	29220	
4148	0	29156	
4149	0	29140	
4150	0	29098	
4151	0	29200	
4152	0	29356	
4153	0	29572	
4154	0	29836	
4155	0	30028	
4156	0	29836	
4157	0	29556	
4158	0	29440	
4159	0	29412	
4160	0	29452	
4161	0	29560	
4162	0	29412	
4163	0	29232	
4164	0	29464	
4165	0	29624	
4166	0	29684	
4167	0	29536	
4168	0	29432	
4169	0	29446	
4170	0	29512	
4171	0	29746	
4172	0	29672	
4173	0	29530	
4174	0	29476	
4175	0	29460	
4176	0	29388	
4177	0	29506	
4178	0	29740	
4179	0	29672	
4180	0	29584	
4181	0	29506	
4182	0	29696	
4183	0	29740	
4184	0	29592	
4185	0	29404	
4186	0	29512	
4187	0	29728	
4188	0	29872	
4189	0	29964	
4190	0	29936	
4191	0	29828	
4192	0	29888	
4193	0	30204	
4194	0	30432	
4195	0	30392	
4196	0	30096	
4197	0	29916	
4198	0	30084	
4199	0	30328	
4200	0	30296	
4201	0	30266	
4202	0	30316	
4203	0	30088	
4204	0	30096	
4205	0	30184	
4206	0	30116	
4207	0	30240	
4208	0	30293	
4209	0	30488	
4210	0	30428	
4211	0	30440	
4212	0	30484	
4213	0	30496	
4214	0	30568	
4215	0	30756	
4216	0	30736	
4217	0	30764	
4218	0	30712	
4219	0	30704	
4220	0	30564	
4221	0	30368	
4222	0	30572	
4223	0	30712	
4224	0	30656	
4225	0	30572	
4226	0	30508	
4227	0	30452	
4228	0	30628	
4229	0	30680	
4230	0	30672	
4231	0	30584	
4232	0	30488	
4233	0	30460	
4234	0	30412	
4235	0	30460	
4236	0	30736	
4237	0	31032	
4238	0	30996	
4239	0	30776	
4240	0	30740	
4241	0	30788	
4242	0	30804	
4243	0	30672	
4244	0	30648	
4245	0	30760	
4246	0	30828	
4247	0	30820	
4248	0	30828	
4249	0	31008	
4250	0	31066	
4251	0	31068	
4252	0	31096	
4253	0	31072	
4254	0	30936	
4255	0	30996	
4256	0	31088	
4257	0	30808	
4258	0	30880	
4259	0	31192	
4260	0	31196	
4261	0	31004	
4262	0	30776	
4263	0	30608	
4264	0	30720	
4265	0	30700	
4266	0	30812	
4267	0	30798	
4268	0	30766	
4269	0	30848	
4270	0	30848	
4271	0	31096	
4272	0	31300	
4273	0	31324	
4274	0	31236	
4275	0	31194	
4276	0	31160	
4277	0	30992	
4278	0	30976	
4279	0	30968	
4280	0	30880	
4281	0	30872	
4282	0	30820	
4283	0	30972	
4284	0	31224	
4285	0	31420	
4286	0	31492	
4287	0	31388	
4288	0	31166	
4289	0	31008	
4290	0	30956	
4291	0	30888	
4292	0	30996	
4293	0	30932	
4294	0	31040	
4295	0	31088	
4296	0	31440	
4297	0	31576	
4298	0	31392	
4299	0	31232	
4300	0	31312	
4301	0	31472	
4302	0	31520	
4303	0	31624	
4304	0	31832	
4305	0	31968	
4306	0	32112	
4307	0	32224	
4308	0	32284	
4309	0	32420	
4310	0	32472	
4311	0	32484	
4312	0	32608	
4313	0	32588	
4314	0	32510	
4315	0	32608	
4316	0	32768	
4317	0	32752	
4318	0	32740	
4319	0	32768	
4320	0	32840	
4321	0	32848	
4322	0	32780	
4323	0	32824	
4324	0	32980	
4325	0	33082	
4326	0	33104	
4327	0	33192	
4328	0	33588	
4329	0	33920	
4330	0	34200	
4331	0	34448	
4332	0	34704	
4333	0	34660	
4334	0	34512	
4335	0	34372	
4336	0	34360	
4337	0	34528	
4338	0	34676	
4339	0	34636	
4340	0	34572	
4341	0	34720	
4342	0	34768	
4343	0	34816	
4344	0	34680	
4345	0	34640	
4346	0	34612	
4347	0	34544	
4348	0	34560	
4349	0	34228	
4350	0	33964	
4351	0	33676	
4352	0	33552	
4353	0	33576	
4354	0	33312	
4355	0	32980	
4356	0	32888	
4357	0	32736	
4358	0	32644	
4359	0	32602	
4360	0	32616	
4361	0	32556	
4362	0	32364	
4363	0	32322	
4364	0	32384	
4365	0	32500	
4366	0	32472	
4367	0	32646	
4368	0	32460	
4369	0	32200	
4370	0	32120	
4371	0	32152	
4372	0	32286	
4373	0	32208	
4374	0	32196	
4375	0	32320	
4376	0	32232	
4377	0	32060	
4378	0	31952	
4379	0	31760	
4380	0	31664	
4381	0	31412	
4382	0	31264	
4383	0	31376	
4384	0	31524	
4385	0	31232	
4386	0	31140	
4387	0	31168	
4388	0	31064	
4389	0	30786	
4390	0	30752	
4391	0	30980	
4392	0	31148	
4393	0	31312	
4394	0	31256	
4395	0	31128	
4396	0	31084	
4397	0	31112	
4398	0	31128	
4399	0	31116	
4400	0	31004	
4401	0	30964	
4402	0	30996	
4403	0	31020	
4404	0	31072	
4405	0	31264	
4406	0	31444	
4407	0	31312	
4408	0	30972	
4409	0	30938	
4410	0	30928	
4411	0	30992	
4412	0	31248	
4413	0	31404	
4414	0	31324	
4415	0	31456	
4416	0	31824	
4417	0	32064	
4418	0	32200	
4419	0	32224	
4420	0	32200	
4421	0	31956	
4422	0	31856	
4423	0	32044	
4424	0	32058	
4425	0	32178	
4426	0	32232	
4427	0	31956	
4428	0	31760	
4429	0	31420	
4430	0	31296	
4431	0	31164	
4432	0	31072	
4433	0	30944	
4434	0	30760	
4435	0	30640	
4436	0	30500	
4437	0	30352	
4438	0	30236	
4439	0	30400	
4440	0	30784	
4441	0	31300	
4442	0	31842	
4443	0	32442	
4444	0	33482	
4445	0	34444	
4446	0	35152	
4447	0	36400	
4448	0	37724	
4449	0	39504	
4450	0	41316	
4451	0	43072	
4452	0	44836	
4453	0	46552	
4454	0	48424	
4455	0	50340	
4456	0	51996	
4457	0	53504	
4458	0	54992	
4459	0	56520	
4460	0	58008	
4461	0	59296	
4462	0	60570	
4463	0	61792	
4464	0	63224	
4465	0	64584	
4466	0	64992	
4467	0	64528	
4468	0	63204	
4469	0	60952	
4470	0	57504	
4471	0	53424	
4472	0	49528	
4473	0	45572	
4474	0	40954	
4475	0	35864	
4476	0	31234	
4477	0	27884	
4478	0	25762	
4479	0	24546	
4480	0	24052	
4481	0	24152	
4482	0	24424	
4483	0	24554	
4484	0	24636	
4485	0	24940	
4486	0	25480	
4487	0	25824	
4488	0	26168	
4489	0	26308	
4490	0	26468	
4491	0	26488	
4492	0	26572	
4493	0	26996	
4494	0	27688	
4495	0	28160	
4496	0	28400	
4497	0	28652	
4498	0	28920	
4499	0	29272	
4500	0	29696	
4501	0	29772	
4502	0	29824	
4503	0	29934	
4504	0	29784	
4505	0	29460	
4506	0	29536	
4507	0	29654	
4508	0	29736	
4509	0	29752	
4510	0	29548	
4511	0	29408	
4512	0	29600	
4513	0	29680	
4514	0	29630	
4515	0	29640	
4516	0	29808	
4517	0	29928	
4518	0	29964	
4519	0	29756	
4520	0	29824	
4521	0	29972	
4522	0	30084	
4523	0	30176	
4524	0	30304	
4525	0	30248	
4526	0	30088	
4527	0	30044	
4528	0	30048	
4529	0	30036	
4530	0	29936	
4531	0	29806	
4532	0	29856	
4533	0	30276	
4534	0	30726	
4535	0	30850	
4536	0	30756	
4537	0	30596	
4538	0	30516	
4539	0	30784	
4540	0	30920	
4541	0	30696	
4542	0	30600	
4543	0	30416	
4544	0	30410	
4545	0	30304	
4546	0	30444	
4547	0	30708	
4548	0	30746	
4549	0	30668	
4550	0	30744	
4551	0	30844	
4552	0	30948	
4553	0	30924	
4554	0	30988	
4555	0	31224	
4556	0	31430	
4557	0	31590	
4558	0	31546	
4559	0	31508	
4560	0	31432	
4561	0	31440	
4562	0	31652	
4563	0	31692	
4564	0	31772	
4565	0	31752	
4566	0	31632	
4567	0	31676	
4568	0	31578	
4569	0	31476	
4570	0	31456	
4571	0	31568	
4572	0	31748	
4573	0	31748	
4574	0	31832	
4575	0	31950	
4576	0	32108	
4577	0	32204	
4578	0	32224	
4579	0	32284	
4580	0	32298	
4581	0	32314	
4582	0	32324	
4583	0	32244	
4584	0	32116	
4585	0	32124	
4586	0	32232	
4587	0	32316	
4588	0	32280	
4589	0	32208	
4590	0	32260	
4591	0	32436	
4592	0	32508	
4593	0	32568	
4594	0	32640	
4595	0	32728	
4596	0	32752	
4597	0	32808	
4598	0	32956	
4599	0	32980	
4600	0	32964	
4601	0	33012	
4602	0	33056	
4603	0	33252	
4604	0	33340	
4605	0	33392	
4606	0	33476	
4607	0	33520	
4608	0	33568	
4609	0	33556	
4610	0	33512	
4611	0	33572	
4612	0	33442	
4613	0	33432	
4614	0	33528	
4615	0	33612	
4616	0	33652	
4617	0	33696	
4618	0	33740	
4619	0	33706	
4620	0	33760	
4621	0	33852	
4622	0	34018	
4623	0	33984	
4624	0	33948	
4625	0	34100	
4626	0	34264	
4627	0	34412	
4628	0	34440	
4629	0	34592	
4630	0	34716	
4631	0	34708	
4632	0	34572	
4633	0	34576	
4634	0	34608	
4635	0	34576	
4636	0	34668	
4637	0	34728	
4638	0	34816	
4639	0	35000	
4640	0	35090	
4641	0	35056	
4642	0	35098	
4643	0	35156	
4644	0	35288	
4645	0	35376	
4646	0	35432	
4647	0	35508	
4648	0	35628	
4649	0	35706	
4650	0	35876	
4651	0	35928	
4652	0	35948	
4653	0	35980	
4654	0	35982	
4655	0	36048	
4656	0	36144	
4657	0	36408	
4658	0	36468	
4659	0	36572	
4660	0	36512	
4661	0	36448	
4662	0	36672	
4663	0	36788	
4664	0	36768	
4665	0	36900	
4666	0	36900	
4667	0	36864	
4668	0	36964	
4669	0	37044	
4670	0	36928	
4671	0	37096	
4672	0	37280	
4673	0	37208	
4674	0	37248	
4675	0	37272	
4676	0	37352	
4677	0	37416	
4678	0	37384	
4679	0	37468	
4680	0	37550	
4681	0	37628	
4682	0	37512	
4683	0	37520	
4684	0	37496	
4685	0	37520	
4686	0	37536	
4687	0	37556	
4688	0	37680	
4689	0	37728	
4690	0	37704	
4691	0	37700	
4692	0	37780	
4693	0	37884	
4694	0	37976	
4695	0	37940	
4696	0	37868	
4697	0	37824	
4698	0	37688	
4699	0	37644	
4700	0	37680	
4701	0	37720	
4702	0	37560	
4703	0	37348	
4704	0	37272	
4705	0	37148	
4706	0	37112	
4707	0	36952	
4708	0	36788	
4709	0	36604	
4710	0	36496	
4711	0	36408	
4712	0	36196	
4713	0	36012	
4714	0	35988	
4715	0	35936	
4716	0	35716	
4717	0	35492	
4718	0	35300	
4719	0	35056	
4720	0	34928	
4721	0	34736	
4722	0	34466	
4723	0	34318	
4724	0	34074	
4725	0	33892	
4726	0	33752	
4727	0	33668	
4728	0	33484	
4729	0	33312	
4730	0	33144	
4731	0	32912	
4732	0	32720	
4733	0	32476	
4734	0	32340	
4735	0	32204	
4736	0	32194	
4737	0	32214	
4738	0	31996	
4739	0	31768	
4740	0	31586	
4741	0	31400	
4742	0	31212	
4743	0	31072	
4744	0	31036	
4745	0	30992	
4746	0	30992	
4747	0	30914	
4748	0	30908	
4749	0	30954	
4750	0	30814	
4751	0	30728	
4752	0	30728	
4753	0	30728	
4754	0	30714	
4755	0	30616	
4756	0	30474	
4757	0	30404	
4758	0	30332	
4759	0	30320	
4760	0	30228	
4761	0	30048	
4762	0	30060	
4763	0	30108	
4764	0	30220	
4765	0	30204	
4766	0	30208	
4767	0	30240	
4768	0	30404	
4769	0	30536	
4770	0	30528	
4771	0	30558	
4772	0	30554	
4773	0	30552	
4774	0	30498	
4775	0	30516	
4776	0	30464	
4777	0	30344	
4778	0	30208	
4779	0	30202	
4780	0	30248	
4781	0	30352	
4782	0	30264	
4783	0	30240	
4784	0	30340	
4785	0	30432	
4786	0	30520	
4787	0	30588	
4788	0	30740	
4789	0	30860	
4790	0	30964	
4791	0	30856	
4792	0	30756	
4793	0	30746	
4794	0	30812	
4795	0	30868	
4796	0	30872	
4797	0	30864	
4798	0	30832	
4799	0	30768	
4800	0	30776	
4801	0	30888	
4802	0	30912	
4803	0	30852	
4804	0	30872	
4805	0	30996	
4806	0	30824	
4807	0	30868	
4808	0	31052	
4809	0	31212	
4810	0	31172	
4811	0	31112	
4812	0	31104	
4813	0	31038	
4814	0	30992	
4815	0	31044	
4816	0	31152	
4817	0	31280	
4818	0	31330	
4819	0	31324	
4820	0	31232	
4821	0	31180	
4822	0	31108	
4823	0	31044	
4824	0	31296	
4825	0	31700	
4826	0	31828	
4827	0	31736	
4828	0	31684	
4829	0	31720	
4830	0	31712	
4831	0	31714	
4832	0	31772	
4833	0	31712	
4834	0	31692	
4835	0	31712	
4836	0	31704	
4837	0	31740	
4838	0	31940	
4839	0	32118	
4840	0	32000	
4841	0	31960	
4842	0	32048	
4843	0	31948	
4844	0	32016	
4845	0	32192	
4846	0	32304	
4847	0	32276	
4848	0	32240	
4849	0	32304	
4850	0	32500	
4851	0	32736	
4852	0	32616	
4853	0	32490	
4854	0	32548	
4855	0	32516	
4856	0	32408	
4857	0	32194	
4858	0	32114	
4859	0	32084	
4860	0	32112	
4861	0	32120	
4862	0	32152	
4863	0	32056	
4864	0	32076	
4865	0	32080	
4866	0	32128	
4867	0	32240	
4868	0	32276	
4869	0	32276	
4870	0	32154	
4871	0	32128	
4872	0	32192	
4873	0	32344	
4874	0	32360	
4875	0	32336	
4876	0	32416	
4877	0	32472	
4878	0	32448	
4879	0	32472	
4880	0	32464	
4881	0	32458	
4882	0	32456	
4883	0	32540	
4884	0	32550	
4885	0	32596	
4886	0	32600	
4887	0	32592	
4888	0	32688	
4889	0	32800	
4890	0	32868	
4891	0	32912	
4892	0	32912	
4893	0	32816	
4894	0	32616	
4895	0	32484	
4896	0	32496	
4897	0	32509	
4898	0	32584	
4899	0	32548	
4900	0	32556	
4901	0	32394	
4902	0	32448	
4903	0	32632	
4904	0	32584	
4905	0	32512	
4906	0	32592	
4907	0	32636	
4908	0	32652	
4909	0	32664	
4910	0	32728	
4911	0	32732	
4912	0	32736	
4913	0	32600	
4914	0	32512	
4915	0	32660	
4916	0	32752	
4917	0	32704	
4918	0	32744	
4919	0	32762	
4920	0	32776	
4921	0	32840	
4922	0	32778	
4923	0	32812	
4924	0	32912	
4925	0	32828	
4926	0	32832	
4927	0	32864	
4928	0	32810	
4929	0	32796	
4930	0	32816	
4931	0	32728	
4932	0	32680	
4933	0	32808	
4934	0	32972	
4935	0	33160	
4936	0	33296	
4937	0	33456	
4938	0	33696	
4939	0	33964	
4940	0	34184	
4941	0	34304	
4942	0	34304	
4943	0	34240	
4944	0	34236	
4945	0	34160	
4946	0	34312	
4947	0	34520	
4948	0	34316	
4949	0	34256	
4950	0	34372	
4951	0	34528	
4952	0	34488	
4953	0	34460	
4954	0	34696	
4955	0	34848	
4956	0	34920	
4957	0	34944	
4958	0	34976	
4959	0	34938	
4960	0	35000	
4961	0	35052	
4962	0	35168	
4963	0	35200	
4964	0	35156	
4965	0	35136	
4966	0	35160	
4967	0	35112	
4968	0	35188	
4969	0	35286	
4970	0	35386	
4971	0	35528	
4972	0	35540	
4973	0	35524	
4974	0	35540	
4975	0	35520	
4976	0	35432	
4977	0	35340	
4978	0	35136	
4979	0	34912	
4980	0	34752	
4981	0	34592	
4982	0	34340	
4983	0	33944	
4984	0	33696	
4985	0	33668	
4986	0	33656	
4987	0	33568	
4988	0	33572	
4989	0	33622	
4990	0	33556	
4991	0	33488	
4992	0	33552	
4993	0	33668	
4994	0	33660	
4995	0	33588	
4996	0	33448	
4997	0	33204	
4998	0	33092	
4999	0	33088	
5000	0	33108	
5001	0	33208	
5002	0	33120	
5003	0	32928	
5004	0	32800	
5005	0	32752	
5006	0	32656	
5007	0	32432	
5008	0	32392	
5009	0	32200	
5010	0	32064	
5011	0	32024	
5012	0	31982	
5013	0	31780	
5014	0	31770	
5015	0	31608	
5016	0	31528	
5017	0	31408	
5018	0	31298	
5019	0	31160	
5020	0	31084	
5021	0	31144	
5022	0	31224	
5023	0	31298	
5024	0	31368	
5025	0	31440	
5026	0	31452	
5027	0	31440	
5028	0	31488	
5029	0	31498	
5030	0	31516	
5031	0	31472	
5032	0	31412	
5033	0	31480	
5034	0	31552	
5035	0	31584	
5036	0	31554	
5037	0	31540	
5038	0	31428	
5039	0	31186	
5040	0	31280	
5041	0	31480	
5042	0	31536	
5043	0	31524	
5044	0	31584	
5045	0	31624	
5046	0	31704	
5047	0	31696	
5048	0	31608	
5049	0	31608	
5050	0	31636	
5051	0	31748	
5052	0	31788	
5053	0	31776	
5054	0	31820	
5055	0	31822	
5056	0	31808	
5057	0	31792	
5058	0	31712	
5059	0	31648	
5060	0	31588	
5061	0	31508	
5062	0	31476	
5063	0	31344	
5064	0	31308	
5065	0	31116	
5066	0	30880	
5067	0	30768	
5068	0	30592	
5069	0	30500	
5070	0	30572	
5071	0	30932	
5072	0	31488	
5073	0	32264	
5074	0	33156	
5075	0	34314	
5076	0	35528	
5077	0	36944	
5078	0	38456	
5079	0	40140	
5080	0	41916	
5081	0	43780	
5082	0	45464	
5083	0	47376	
5084	0	49356	
5085	0	51144	
5086	0	52948	
5087	0	54672	
5088	0	56304	
5089	0	57880	
5090	0	59288	
5091	0	60668	
5092	0	62068	
5093	0	63288	
5094	0	63968	
5095	0	64288	
5096	0	64388	
5097	0	64392	
5098	0	64340	
5099	0	64264	
5100	0	61340	
5101	0	56656	
5102	0	52124	
5103	0	47580	
5104	0	42760	
5105	0	37612	
5106	0	32800	
5107	0	29026	
5108	0	26408	
5109	0	24896	
5110	0	24170	
5111	0	23968	
5112	0	24120	
5113	0	24338	
5114	0	24516	
5115	0	24760	
5116	0	25108	
5117	0	25472	
5118	0	25884	
5119	0	26308	
5120	0	26840	
5121	0	27408	
5122	0	27912	
5123	0	28300	
5124	0	28732	
5125	0	29044	
5126	0	29336	
5127	0	29640	
5128	0	29832	
5129	0	29784	
5130	0	29570	
5131	0	29448	
5132	0	29412	
5133	0	29432	
5134	0	29282	
5135	0	29188	
5136	0	29118	
5137	0	29168	
5138	0	29144	
5139	0	29064	
5140	0	29088	
5141	0	29040	
5142	0	28992	
5143	0	29042	
5144	0	29044	
5145	0	29060	
5146	0	29200	
5147	0	29136	
5148	0	29112	
5149	0	29176	
5150	0	29208	
5151	0	29248	
5152	0	29312	
5153	0	29220	
5154	0	29176	
5155	0	29258	
5156	0	29380	
5157	0	29348	
5158	0	29436	
5159	0	29588	
5160	0	29692	
5161	0	29776	
5162	0	29708	
5163	0	29804	
5164	0	29880	
5165	0	29892	
5166	0	29932	
5167	0	30070	
5168	0	30152	
5169	0	30184	
5170	0	30196	
5171	0	30248	
5172	0	30276	
5173	0	30440	
5174	0	30532	
5175	0	30564	
5176	0	30508	
5177	0	30220	
5178	0	30164	
5179	0	30140	
5180	0	30132	
5181	0	30158	
5182	0	30248	
5183	0	30402	
5184	0	30480	
5185	0	30656	
5186	0	30800	
5187	0	30784	
5188	0	30568	
5189	0	30516	
5190	0	30624	
5191	0	30740	
5192	0	30712	
5193	0	30744	
5194	0	30804	
5195	0	30892	
5196	0	30952	
5197	0	31010	
5198	0	31018	
5199	0	31132	
5200	0	31184	
5201	0	31204	
5202	0	31192	
5203	0	31096	
5204	0	31042	
5205	0	31044	
5206	0	31116	
5207	0	31116	
5208	0	31124	
5209	0	31242	
5210	0	31374	
5211	0	31452	
5212	0	31408	
5213	0	31400	
5214	0	31464	
5215	0	31466	
5216	0	31512	
5217	0	31608	
5218	0	31648	
5219	0	31696	
5220	0	31724	
5221	0	31728	
5222	0	31744	
5223	0	31728	
5224	0	31780	
5225	0	31864	
5226	0	31960	
5227	0	32000	
5228	0	32044	
5229	0	32140	
5230	0	32240	
5231	0	32268	
5232	0	32268	
5233	0	32288	
5234	0	32306	
5235	0	32242	
5236	0	32232	
5237	0	32360	
5238	0	32480	
5239	0	32552	
5240	0	32600	
5241	0	32596	
5242	0	32632	
5243	0	32636	
5244	0	32652	
5245	0	32764	
5246	0	32832	
5247	0	32792	
5248	0	32832	
5249	0	32956	
5250	0	33004	
5251	0	33064	
5252	0	33144	
5253	0	33394	
5254	0	33608	
5255	0	33644	
5256	0	33716	
5257	0	33780	
5258	0	33828	
5259	0	33884	
5260	0	33884	
5261	0	33972	
5262	0	33992	
5263	0	33944	
5264	0	33956	
5265	0	34012	
5266	0	34232	
5267	0	34340	
5268	0	34296	
5269	0	34236	
5270	0	34252	
5271	0	34372	
5272	0	34504	
5273	0	34560	
5274	0	34658	
5275	0	34834	
5276	0	34848	
5277	0	34780	
5278	0	34824	
5279	0	34888	
5280	0	34992	
5281	0	35032	
5282	0	35172	
5283	0	35312	
5284	0	35356	
5285	0	35532	
5286	0	35604	
5287	0	35624	
5288	0	35640	
5289	0	35716	
5290	0	35648	
5291	0	35628	
5292	0	35716	
5293	0	35808	
5294	0	35852	
5295	0	35968	
5296	0	36000	
5297	0	36008	
5298	0	36048	
5299	0	36092	
5300	0	36200	
5301	0	36276	
5302	0	36384	
5303	0	36568	
5304	0	36768	
5305	0	36852	
5306	0	36832	
5307	0	36688	
5308	0	36580	
5309	0	36576	
5310	0	36680	
5311	0	36868	
5312	0	36856	
5313	0	36772	
5314	0	36844	
5315	0	36904	
5316	0	36924	
5317	0	36848	
5318	0	36924	
5319	0	36992	
5320	0	37180	
5321	0	37256	
5322	0	37204	
5323	0	37200	
5324	0	37232	
5325	0	37328	
5326	0	37280	
5327	0	37216	
5328	0	37132	
5329	0	37068	
5330	0	36988	
5331	0	36904	
5332	0	36800	
5333	0	36620	
5334	0	36460	
5335	0	36400	
5336	0	36300	
5337	0	36208	
5338	0	36028	
5339	0	35812	
5340	0	35584	
5341	0	35412	
5342	0	35224	
5343	0	35112	
5344	0	35016	
5345	0	34834	
5346	0	34632	
5347	0	34428	
5348	0	34384	
5349	0	34258	
5350	0	34052	
5351	0	33932	
5352	0	33860	
5353	0	33768	
5354	0	33628	
5355	0	33568	
5356	0	33460	
5357	0	33264	
5358	0	33012	
5359	0	32802	
5360	0	32664	
5361	0	32552	
5362	0	32328	
5363	0	32200	
5364	0	31940	
5365	0	31652	
5366	0	31496	
5367	0	31352	
5368	0	31296	
5369	0	31256	
5370	0	31116	
5371	0	30996	
5372	0	30848	
5373	0	30784	
5374	0	30716	
5375	0	30744	
5376	0	30796	
5377	0	30796	
5378	0	30682	
5379	0	30588	
5380	0	30596	
5381	0	30408	
5382	0	30276	
5383	0	30292	
5384	0	30228	
5385	0	30170	
5386	0	30144	
5387	0	30100	
5388	0	29948	
5389	0	29888	
5390	0	29922	
5391	0	29932	
5392	0	29984	
5393	0	29986	
5394	0	30036	
5395	0	30004	
5396	0	29962	
5397	0	29936	
5398	0	29836	
5399	0	29748	
5400	0	29760	
5401	0	29868	
5402	0	29920	
5403	0	29880	
5404	0	29832	
5405	0	29820	
5406	0	29808	
5407	0	29768	
5408	0	29776	
5409	0	29824	
5410	0	29948	
5411	0	30032	
5412	0	30040	
5413	0	30048	
5414	0	30016	
5415	0	30052	
5416	0	30164	
5417	0	30216	
5418	0	30280	
5419	0	30412	
5420	0	30484	
5421	0	30474	
5422	0	30316	
5423	0	30240	
5424	0	30240	
5425	0	30320	
5426	0	30348	
5427	0	30328	
5428	0	30368	
5429	0	30456	
5430	0	30480	
5431	0	30518	
5432	0	30504	
5433	0	30540	
5434	0	30664	
5435	0	30648	
5436	0	30476	
5437	0	30476	
5438	0	30568	
5439	0	30636	
5440	0	30536	
5441	0	30576	
5442	0	30668	
5443	0	30696	
5444	0	30768	
5445	0	30868	
5446	0	30908	
5447	0	30928	
5448	0	30920	
5449	0	30928	
5450	0	30888	
5451	0	30824	
5452	0	30936	
5453	0	31120	
5454	0	31044	
5455	0	31008	
5456	0	31048	
5457	0	31032	
5458	0	31008	
5459	0	30984	
5460	0	31064	
5461	0	31248	
5462	0	31272	
5463	0	31376	
5464	0	31392	
5465	0	31236	
5466	0	31192	
5467	0	31172	
5468	0	31264	
5469	0	31456	
5470	0	31484	
5471	0	31400	
5472	0	31312	
5473	0	31280	
5474	0	31180	
5475	0	31076	
5476	0	31068	
5477	0	31132	
5478	0	31226	
5479	0	31320	
5480	0	31336	
5481	0	31404	
5482	0	31508	
5483	0	31536	
5484	0	31438	
5485	0	31420	
5486	0	31484	
5487	0	31532	
5488	0	31588	
5489	0	31616	
5490	0	31612	
5491	0	31536	
5492	0	31480	
5493	0	31532	
5494	0	31520	
5495	0	31544	
5496	0	31540	
5497	0	31496	
5498	0	31464	
5499	0	31386	
5500	0	31320	
5501	0	31322	
5502	0	31420	
5503	0	31544	
5504	0	31724	
5505	0	31778	
5506	0	31792	
5507	0	31684	
5508	0	31596	
5509	0	31644	
5510	0	31704	
5511	0	31800	
5512	0	31920	
5513	0	31978	
5514	0	31948	
5515	0	31812	
5516	0	31724	
5517	0	31744	
5518	0	31752	
5519	0	31784	
5520	0	31844	
5521	0	31868	
5522	0	31892	
5523	0	31836	
5524	0	31764	
5525	0	31834	
5526	0	31850	
5527	0	31840	
5528	0	31852	
5529	0	31912	
5530	0	31920	
5531	0	31900	
5532	0	31908	
5533	0	31984	
5534	0	32034	
5535	0	31968	
5536	0	32040	
5537	0	32076	
5538	0	31956	
5539	0	31908	
5540	0	32012	
5541	0	32040	
5542	0	31808	
5543	0	31712	
5544	0	31696	
5545	0	31716	
5546	0	31724	
5547	0	31770	
5548	0	31864	
5549	0	31872	
5550	0	31816	
5551	0	31812	
5552	0	31844	
5553	0	31860	
5554	0	31904	
5555	0	31936	
5556	0	31976	
5557	0	31980	
5558	0	32000	
5559	0	31952	
5560	0	31876	
5561	0	31844	
5562	0	31876	
5563	0	31992	
5564	0	32080	
5565	0	32064	
5566	0	32016	
5567	0	31992	
5568	0	31996	
5569	0	32016	
5570	0	31992	
5571	0	31892	
5572	0	31784	
5573	0	31860	
5574	0	32032	
5575	0	32118	
5576	0	32160	
5577	0	32176	
5578	0	32196	
5579	0	32224	
5580	0	32220	
5581	0	32312	
5582	0	32320	
5583	0	32360	
5584	0	32504	
5585	0	32656	
5586	0	32832	
5587	0	32980	
5588	0	33180	
5589	0	33440	
5590	0	33612	
5591	0	33648	
5592	0	33590	
5593	0	33496	
5594	0	33456	
5595	0	33560	
5596	0	33668	
5597	0	33836	
5598	0	33920	
5599	0	33864	
5600	0	33852	
5601	0	33920	
5602	0	33968	
5603	0	33988	
5604	0	34016	
5605	0	34048	
5606	0	34112	
5607	0	34260	
5608	0	34356	
5609	0	34464	
5610	0	34624	
5611	0	34848	
5612	0	34976	
5613	0	35040	
5614	0	35052	
5615	0	35032	
5616	0	34960	
5617	0	35004	
5618	0	35056	
5619	0	35104	
5620	0	35164	
5621	0	35156	
5622	0	35152	
5623	0	35160	
5624	0	35100	
5625	0	35028	
5626	0	34874	
5627	0	34752	
5628	0	34616	
5629	0	34408	
5630	0	34180	
5631	0	33934	
5632	0	33744	
5633	0	33636	
5634	0	33544	
5635	0	33344	
5636	0	33256	
5637	0	33228	
5638	0	33172	
5639	0	33184	
5640	0	33240	
5641	0	33200	
5642	0	33212	
5643	0	33188	
5644	0	33168	
5645	0	33092	
5646	0	33056	
5647	0	32964	
5648	0	32824	
5649	0	32698	
5650	0	32624	
5651	0	32538	
5652	0	32464	
5653	0	32428	
5654	0	32352	
5655	0	32244	
5656	0	32196	
5657	0	32160	
5658	0	32092	
5659	0	31948	
5660	0	31852	
5661	0	31792	
5662	0	31626	
5663	0	31488	
5664	0	31428	
5665	0	31416	
5666	0	31328	
5667	0	31284	
5668	0	31336	
5669	0	31340	
5670	0	31244	
5671	0	31192	
5672	0	31220	
5673	0	31240	
5674	0	31324	
5675	0	31332	
5676	0	31290	
5677	0	31256	
5678	0	31294	
5679	0	31356	
5680	0	31388	
5681	0	31368	
5682	0	31344	
5683	0	31394	
5684	0	31464	
5685	0	31504	
5686	0	31516	
5687	0	31540	
5688	0	31536	
5689	0	31512	
5690	0	31544	
5691	0	31552	
5692	0	31468	
5693	0	31464	
5694	0	31492	
5695	0	31484	
5696	0	31368	
5697	0	31296	
5698	0	31242	
5699	0	31280	
5700	0	31396	
5701	0	31488	
5702	0	31568	
5703	0	31656	
5704	0	31716	
5705	0	31762	
5706	0	31676	
5707	0	31612	
5708	0	31644	
5709	0	31632	
5710	0	31556	
5711	0	31504	
5712	0	31444	
5713	0	31360	
5714	0	31192	
5715	0	30928	
5716	0	30708	
5717	0	30568	
5718	0	30488	
5719	0	30450	
5720	0	30476	
5721	0	30588	
5722	0	30760	
5723	0	31092	
5724	0	31696	
5725	0	32444	
5726	0	33320	
5727	0	34372	
5728	0	35632	
5729	0	37176	
5730	0	38820	
5731	0	40616	
5732	0	42484	
5733	0	44332	
5734	0	46212	
5735	0	48106	
5736	0	50016	
5737	0	51872	
5738	0	53600	
5739	0	55160	
5740	0	56568	
5741	0	57964	
5742	0	59340	
5743	0	60644	
5744	0	61984	
5745	0	63040	
5746	0	63692	
5747	0	63952	
5748	0	64040	
5749	0	64044	
5750	0	63972	
5751	0	61296	
5752	0	57460	
5753	0	53448	
5754	0	49404	
5755	0	44964	
5756	0	40020	
5757	0	35056	
5758	0	30944	
5759	0	28012	
5760	0	26088	
5761	0	25008	
5762	0	24560	
5763	0	24548	
5764	0	24730	
5765	0	24932	
5766	0	25124	
5767	0	25354	
5768	0	25708	
5769	0	26036	
5770	0	26418	
5771	0	26784	
5772	0	27260	
5773	0	27636	
5774	0	27980	
5775	0	28384	
5776	0	28828	
5777	0	29164	
5778	0	29380	
5779	0	29524	
5780	0	29616	
5781	0	29664	
5782	0	29656	
5783	0	29634	
5784	0	29542	
5785	0	29444	
5786	0	29416	
5787	0	29432	
5788	0	29444	
5789	0	29450	
5790	0	29464	
5791	0	29450	
5792	0	29420	
5793	0	29376	
5794	0	29352	
5795	0	29370	
5796	0	29408	
5797	0	29424	
5798	0	29504	
5799	0	29540	
5800	0	29508	
5801	0	29520	
5802	0	29504	
5803	0	29504	
5804	0	29436	
5805	0	29432	
5806	0	29496	
5807	0	29492	
5808	0	29480	
5809	0	29514	
5810	0	29592	
5811	0	29628	
5812	0	29652	
5813	0	29672	
5814	0	29764	
5815	0	29888	
5816	0	29940	
5817	0	30004	
5818	0	30104	
5819	0	30192	
5820	0	30248	
5821	0	30272	
5822	0	30184	
5823	0	30072	
5824	0	29980	
5825	0	29980	
5826	0	29976	
5827	0	30016	
5828	0	30200	
5829	0	30320	
5830	0	30372	
5831	0	30408	
5832	0	30484	
5833	0	30628	
5834	0	30760	
5835	0	30816	
5836	0	30832	
5837	0	30740	
5838	0	30752	
5839	0	30796	
5840	0	30804	
5841	0	30824	
5842	0	30734	
5843	0	30756	
5844	0	30860	
5845	0	30948	
5846	0	31008	
5847	0	31016	
5848	0	31044	
5849	0	31112	
5850	0	31172	
5851	0	31208	
5852	0	31176	
5853	0	31180	
5854	0	31224	
5855	0	31280	
5856	0	31360	
5857	0	31364	
5858	0	31324	
5859	0	31316	
5860	0	31360	
5861	0	31480	
5862	0	31628	
5863	0	31644	
5864	0	31622	
5865	0	31660	
5866	0	31672	
5867	0	31652	
5868	0	31716	
5869	0	31742	
5870	0	31772	
5871	0	31888	
5872	0	31876	
5873	0	31893	
5874	0	31980	
5875	0	32004	
5876	0	32020	
5877	0	32056	
5878	0	32080	
5879	0	32164	
5880	0	32200	
5881	0	32200	
5882	0	32304	
5883	0	32404	
5884	0	32488	
5885	0	32548	
5886	0	32580	
5887	0	32548	
5888	0	32492	
5889	0	32488	
5890	0	32552	
5891	0	32586	
5892	0	32676	
5893	0	32740	
5894	0	32736	
5895	0	32800	
5896	0	32904	
5897	0	32996	
5898	0	33048	
5899	0	33056	
5900	0	33064	
5901	0	33088	
5902	0	33144	
5903	0	33172	
5904	0	33172	
5905	0	33192	
5906	0	33216	
5907	0	33312	
5908	0	33372	
5909	0	33392	
5910	0	33424	
5911	0	33530	
5912	0	33632	
5913	0	33700	
5914	0	33768	
5915	0	33856	
5916	0	33900	
5917	0	33944	
5918	0	33960	
5919	0	34020	
5920	0	34160	
5921	0	34292	
5922	0	34376	
5923	0	34392	
5924	0	34420	
5925	0	34472	
5926	0	34576	
5927	0	34672	
5928	0	34708	
5929	0	34712	
5930	0	34768	
5931	0	34848	
5932	0	34928	
5933	0	34976	
5934	0	35016	
5935	0	35052	
5936	0	35104	
5937	0	35172	
5938	0	35296	
5939	0	35400	
5940	0	35450	
5941	0	35504	
5942	0	35608	
5943	0	35692	
5944	0	35784	
5945	0	35832	
5946	0	35900	
5947	0	35956	
5948	0	35988	
5949	0	35992	
5950	0	36040	
5951	0	36144	
5952	0	36216	
5953	0	36276	
5954	0	36392	
5955	0	36428	
5956	0	36480	
5957	0	36560	
5958	0	36648	
5959	0	36672	
5960	0	36648	
5961	0	36672	
5962	0	36716	
5963	0	36736	
5964	0	36696	
5965	0	36724	
5966	0	36796	
5967	0	36844	
5968	0	36852	
5969	0	36880	
5970	0	36952	
5971	0	36936	
5972	0	36948	
5973	0	36960	
5974	0	36924	
5975	0	36880	
5976	0	36882	
5977	0	36868	
5978	0	36876	
5979	0	36848	
5980	0	36796	
5981	0	36746	
5982	0	36668	
5983	0	36604	
5984	0	36632	
5985	0	36648	
5986	0	36596	
5987	0	36500	
5988	0	36328	
5989	0	36160	
5990	0	36072	
5991	0	35984	
5992	0	35856	
5993	0	35756	
5994	0	35732	
5995	0	35584	
5996	0	35412	
5997	0	35344	
5998	0	35212	
5999	0	34948	
6000	0	34736	
6001	0	34558	
6002	0	34396	
6003	0	34264	
6004	0	34112	
6005	0	33864	
6006	0	33696	
6007	0	33502	
6008	0	33312	
6009	0	33132	
6010	0	32988	
6011	0	32888	
6012	0	32704	
6013	0	32504	
6014	0	32408	
6015	0	32376	
6016	0	32336	
6017	0	32192	
6018	0	32016	
6019	0	31824	
6020	0	31696	
6021	0	31636	
6022	0	31528	
6023	0	31364	
6024	0	31210	
6025	0	31152	
6026	0	31072	
6027	0	30956	
6028	0	30872	
6029	0	30792	
6030	0	30740	
6031	0	30676	
6032	0	30636	
6033	0	30624	
6034	0	30696	
6035	0	30616	
6036	0	30496	
6037	0	30412	
6038	0	30352	
6039	0	30332	
6040	0	30288	
6041	0	30200	
6042	0	30124	
6043	0	30133	
6044	0	30084	
6045	0	30016	
6046	0	30012	
6047	0	30052	
6048	0	30016	
6049	0	29920	
6050	0	29916	
6051	0	30008	
6052	0	30064	
6053	0	30032	
6054	0	29976	
6055	0	30016	
6056	0	30016	
6057	0	29988	
6058	0	29992	
6059	0	30056	
6060	0	30076	
6061	0	30068	
6062	0	30084	
6063	0	30168	
6064	0	30224	
6065	0	30240	
6066	0	30264	
6067	0	30308	
6068	0	30288	
6069	0	30288	
6070	0	30276	
6071	0	30228	
6072	0	30260	
6073	0	30348	
6074	0	30416	
6075	0	30424	
6076	0	30380	
6077	0	30372	
6078	0	30402	
6079	0	30440	
6080	0	30416	
6081	0	30436	
6082	0	30464	
6083	0	30524	
6084	0	30568	
6085	0	30548	
6086	0	30512	
6087	0	30532	
6088	0	30540	
6089	0	30568	
6090	0	30596	
6091	0	30656	
6092	0	30712	
6093	0	30712	
6094	0	30724	
6095	0	30732	
6096	0	30716	
6097	0	30728	
6098	0	30760	
6099	0	30832	
6100	0	30840	
6101	0	30796	
6102	0	30780	
6103	0	30848	
6104	0	30944	
6105	0	31012	
6106	0	31060	
6107	0	31074	
6108	0	31074	
6109	0	31098	
6110	0	31140	
6111	0	31156	
6112	0	31198	
6113	0	31240	
6114	0	31252	
6115	0	31260	
6116	0	31320	
6117	0	31364	
6118	0	31308	
6119	0	31264	
6120	0	31252	
6121	0	31260	
6122	0	31312	
6123	0	31328	
6124	0	31304	
6125	0	31280	
6126	0	31332	
6127	0	31384	
6128	0	31388	
6129	0	31368	
6130	0	31340	
6131	0	31420	
6132	0	31528	
6133	0	31560	
6134	0	31580	
6135	0	31586	
6136	0	31586	
6137	0	31544	
6138	0	31492	
6139	0	31488	
6140	0	31456	
6141	0	31576	
6142	0	31600	
6143	0	31564	
6144	0	31552	
6145	0	31580	
6146	0	31612	
6147	0	31616	
6148	0	31592	
6149	0	31612	
6150	0	31552	
6151	0	31504	
6152	0	31500	
6153	0	31524	
6154	0	31540	
6155	0	31580	
6156	0	31628	
6157	0	31604	
6158	0	31592	
6159	0	31552	
6160	0	31544	
6161	0	31612	
6162	0	31648	
6163	0	31716	
6164	0	31716	
6165	0	31696	
6166	0	31760	
6167	0	31820	
6168	0	31816	
6169	0	31812	
6170	0	31796	
6171	0	31772	
6172	0	31736	
6173	0	31784	
6174	0	31808	
6175	0	31772	
6176	0	31738	
6177	0	31776	
6178	0	31800	
6179	0	31804	
6180	0	31808	
6181	0	31752	
6182	0	31744	
6183	0	31724	
6184	0	31696	
6185	0	31664	
6186	0	31672	
6187	0	31646	
6188	0	31632	
6189	0	31656	
6190	0	31728	
6191	0	31760	
6192	0	31726	
6193	0	31668	
6194	0	31664	
6195	0	31696	
6196	0	31686	
6197	0	31674	
6198	0	31724	
6199	0	31816	
6200	0	31832	
6201	0	31784	
6202	0	31740	
6203	0	31720	
6204	0	31728	
6205	0	31712	
6206	0	31656	
6207	0	31600	
6208	0	31552	
6209	0	31522	
6210	0	31568	
6211	0	31628	
6212	0	31716	
6213	0	31740	
6214	0	31722	
6215	0	31672	
6216	0	31664	
6217	0	31604	
6218	0	31624	
6219	0	31608	
6220	0	31656	
6221	0	31666	
6222	0	31712	
6223	0	31700	
6224	0	31648	
6225	0	31656	
6226	0	31682	
6227	0	31768	
6228	0	31812	
6229	0	31788	
6230	0	31778	
6231	0	31844	
6232	0	31852	
6233	0	31792	
6234	0	31776	
6235	0	31788	
6236	0	31804	
6237	0	31864	
6238	0	31852	
6239	0	31776	
6240	0	31756	
6241	0	31780	
6242	0	31768	
6243	0	31828	
6244	0	31898	
6245	0	31925	
6246	0	31912	
6247	0	31880	
6248	0	31884	
6249	0	31856	
6250	0	31836	
6251	0	31888	
6252	0	31932	
6253	0	31960	
6254	0	31976	
6255	0	31964	
6256	0	31960	
6257	0	31968	
6258	0	31948	
6259	0	31908	
6260	0	31898	
6261	0	31956	
6262	0	31920	
6263	0	31928	
6264	0	31960	
6265	0	32008	
6266	0	31996	
6267	0	31964	
6268	0	31936	
6269	0	31892	
6270	0	31898	
6271	0	31888	
6272	0	31900	
6273	0	31956	
6274	0	32024	
6275	0	32018	
6276	0	31992	
6277	0	32020	
6278	0	32080	
6279	0	32068	
6280	0	32040	
6281	0	32068	
6282	0	32048	
6283	0	32028	
6284	0	32044	
6285	0	32084	
6286	0	32128	
6287	0	32136	
6288	0	32160	
6289	0	32212	
6290	0	32208	
6291	0	32150	
6292	0	32122	
6293	0	32112	
6294	0	32112	
6295	0	32080	
6296	0	32080	
6297	0	32116	
6298	0	32212	
6299	0	32304	
6300	0	32388	
6301	0	32516	
6302	0	32624	
6303	0	32744	
6304	0	32940	
6305	0	33136	
6306	0	33352	
6307	0	33498	
6308	0	33628	
6309	0	33760	
6310	0	33916	
6311	0	34036	
6312	0	34104	
6313	0	34120	
6314	0	34120	
6315	0	34158	
6316	0	34188	
6317	0	34236	
6318	0	34256	
6319	0	34328	
6320	0	34432	
6321	0	34520	
6322	0	34564	
6323	0	34588	
6324	0	34612	
6325	0	34684	
6326	0	34800	
6327	0	34952	
6328	0	35022	
6329	0	35064	
6330	0	35112	
6331	0	35170	
6332	0	35200	
6333	0	35232	
6334	0	35200	
6335	0	35092	
6336	0	35060	
6337	0	35072	
6338	0	35064	
6339	0	35062	
6340	0	35116	
6341	0	35148	
6342	0	35186	
6343	0	35224	
6344	0	35160	
6345	0	35064	
6346	0	34932	
6347	0	34780	
6348	0	34660	
6349	0	34504	
6350	0	34320	
6351	0	34180	
6352	0	34032	
6353	0	33836	
6354	0	33726	
6355	0	33620	
6356	0	33440	
6357	0	33364	
6358	0	33340	
6359	0	33280	
6360	0	33204	
6361	0	33120	
6362	0	33108	
6363	0	33088	
6364	0	33132	
6365	0	33136	
6366	0	33100	
6367	0	33172	
6368	0	33196	
6369	0	33152	
6370	0	33120	
6371	0	32980	
6372	0	32912	
6373	0	32956	
6374	0	32928	
6375	0	32848	
6376	0	32752	
6377	0	32670	
6378	0	32588	
6379	0	32472	
6380	0	32352	
6381	0	32268	
6382	0	32132	
6383	0	32032	
6384	0	31960	
6385	0	31864	
6386	0	31700	
6387	0	31584	
6388	0	31512	
6389	0	31472	
6390	0	31476	
6391	0	31512	
6392	0	31520	
6393	0	31508	
6394	0	31492	
6395	0	31478	
6396	0	31484	
6397	0	31540	
6398	0	31604	
6399	0	31616	
6400	0	31596	
6401	0	31568	
6402	0	31576	
6403	0	31596	
6404	0	31592	
6405	0	31640	
6406	0	31708	
6407	0	31744	
6408	0	31756	
6409	0	31754	
6410	0	31732	
6411	0	31708	
6412	0	31748	
6413	0	31722	
6414	0	31700	
6415	0	31744	
6416	0	31792	
6417	0	31800	
6418	0	31772	
6419	0	31776	
6420	0	31826	
6421	0	31904	
6422	0	31928	
6423	0	31904	
6424	0	31932	
6425	0	31952	
6426	0	31974	
6427	0	32002	
6428	0	32000	
6429	0	31924	
6430	0	31884	
6431	0	31796	
6432	0	31644	
6433	0	31462	
6434	0	31260	
6435	0	31080	
6436	0	30944	
6437	0	30944	
6438	0	31012	
6439	0	31112	
6440	0	31308	
6441	0	31696	
6442	0	32192	
6443	0	32836	
6444	0	33652	
6445	0	34648	
6446	0	35784	
6447	0	37028	
6448	0	38400	
6449	0	40024	
6450	0	41816	
6451	0	43584	
6452	0	45252	
6453	0	46928	
6454	0	48632	
6455	0	50336	
6456	0	52092	
6457	0	53808	
6458	0	55444	
6459	0	57052	
6460	0	58624	
6461	0	60112	
6462	0	61500	
6463	0	62616	
6464	0	63320	
6465	0	63624	
6466	0	63760	
6467	0	63760	
6468	0	63704	
6469	0	63616	
6470	0	60760	
6471	0	56476	
6472	0	52416	
6473	0	48172	
6474	0	43412	
6475	0	38404	
6476	0	34048	
6477	0	30784	
6478	0	28440	
6479	0	26956	
6480	0	26044	
6481	0	25528	
6482	0	25420	
6483	0	25544	
6484	0	25740	
6485	0	26026	
6486	0	26512	
6487	0	27088	
6488	0	27664	
6489	0	28180	
6490	0	28720	
6491	0	29178	
6492	0	29524	
6493	0	29776	
6494	0	30000	
6495	0	30092	
6496	0	30112	
6497	0	30096	
6498	0	29976	
6499	0	29912	
6500	0	29866	
6501	0	29820	
6502	0	29740	
6503	0	29616	
6504	0	29536	
6505	0	29568	
6506	0	29576	
6507	0	29510	
6508	0	29440	
6509	0	29436	
6510	0	29432	
6511	0	29428	
6512	0	29428	
6513	0	29424	
6514	0	29440	
6515	0	29448	
6516	0	29436	
6517	0	29448	
6518	0	29452	
6519	0	29472	
6520	0	29552	
6521	0	29580	
6522	0	29590	
6523	0	29620	
6524	0	29634	
6525	0	29608	
6526	0	29548	
6527	0	29564	
6528	0	29628	
6529	0	29664	
6530	0	29740	
6531	0	29818	
6532	0	29832	
6533	0	29884	
6534	0	29936	
6535	0	29972	
6536	0	29928	
6537	0	29904	
6538	0	29956	
6539	0	30032	
6540	0	30108	
6541	0	30096	
6542	0	30028	
6543	0	30048	
6544	0	30074	
6545	0	30120	
6546	0	30192	
6547	0	30244	
6548	0	30232	
6549	0	30224	
6550	0	30240	
6551	0	30264	
6552	0	30336	
6553	0	30388	
6554	0	30402	
6555	0	30504	
6556	0	30664	
6557	0	30728	
6558	0	30696	
6559	0	30696	
6560	0	30716	
6561	0	30744	
6562	0	30736	
6563	0	30768	
6564	0	30826	
6565	0	30856	
6566	0	30912	
6567	0	30980	
6568	0	30992	
6569	0	30992	
6570	0	31016	
6571	0	31040	
6572	0	31064	
6573	0	31137	
6574	0	31148	
6575	0	31116	
6576	0	31104	
6577	0	31128	
6578	0	31140	
6579	0	31160	
6580	0	31212	
6581	0	31266	
6582	0	31292	
6583	0	31324	
6584	0	31344	
6585	0	31412	
6586	0	31492	
6587	0	31520	
6588	0	31552	
6589	0	31536	
6590	0	31560	
6591	0	31658	
6592	0	31720	
6593	0	31756	
6594	0	31736	
6595	0	31732	
6596	0	31768	
6597	0	31792	
6598	0	31772	
6599	0	31750	
6600	0	31832	
6601	0	31968	
6602	0	32082	
6603	0	32160	
6604	0	32148	
6605	0	32144	
6606	0	32220	
6607	0	32264	
6608	0	32336	
6609	0	32364	
6610	0	32376	
6611	0	32392	
6612	0	32460	
6613	0	32524	
6614	0	32588	
6615	0	32660	
6616	0	32682	
6617	0	32704	
6618	0	32784	
6619	0	32858	
6620	0	32956	
6621	0	33056	
6622	0	33112	
6623	0	33124	
6624	0	33128	
6625	0	33140	
6626	0	33200	
6627	0	33264	
6628	0	33388	
6629	0	33472	
6630	0	33484	
6631	0	33532	
6632	0	33568	
6633	0	33572	
6634	0	33616	
6635	0	33624	
6636	0	33696	
6637	0	33756	
6638	0	33856	
6639	0	33948	
6640	0	34008	
6641	0	34052	
6642	0	34100	
6643	0	34166	
6644	0	34196	
6645	0	34288	
6646	0	34408	
6647	0	34400	
6648	0	34448	
6649	0	34496	
6650	0	34560	
6651	0	34656	
6652	0	34720	
6653	0	34752	
6654	0	34808	
6655	0	34880	
6656	0	34984	
6657	0	35076	
6658	0	35148	
6659	0	35280	
6660	0	35360	
6661	0	35384	
6662	0	35440	
6663	0	35548	
6664	0	35596	
6665	0	35620	
6666	0	35672	
6667	0	35724	
6668	0	35804	
6669	0	35856	
6670	0	35908	
6671	0	35884	
6672	0	35872	
6673	0	35924	
6674	0	36024	
6675	0	36048	
6676	0	36072	
6677	0	36156	
6678	0	36240	
6679	0	36324	
6680	0	36428	
6681	0	36540	
6682	0	36568	
6683	0	36568	
6684	0	36576	
6685	0	36652	
6686	0	36744	
6687	0	36806	
6688	0	36800	
6689	0	36794	
6690	0	36788	
6691	0	36812	
6692	0	36832	
6693	0	36832	
6694	0	36848	
6695	0	36928	
6696	0	36984	
6697	0	36984	
6698	0	36968	
6699	0	36976	
6700	0	36992	
6701	0	36964	
6702	0	36928	
6703	0	36888	
6704	0	36864	
6705	0	36828	
6706	0	36796	
6707	0	36708	
6708	0	36568	
6709	0	36480	
6710	0	36428	
6711	0	36368	
6712	0	36296	
6713	0	36256	
6714	0	36132	
6715	0	35972	
6716	0	35784	
6717	0	35644	
6718	0	35496	
6719	0	35368	
6720	0	35264	
6721	0	35104	
6722	0	34932	
6723	0	34776	
6724	0	34640	
6725	0	34506	
6726	0	34360	
6727	0	34180	
6728	0	34000	
6729	0	33850	
6730	0	33720	
6731	0	33604	
6732	0	33476	
6733	0	33336	
6734	0	33196	
6735	0	33080	
6736	0	32980	
6737	0	32888	
6738	0	32740	
6739	0	32572	
6740	0	32448	
6741	0	32328	
6742	0	32180	
6743	0	31996	
6744	0	31892	
6745	0	31780	
6746	0	31644	
6747	0	31592	
6748	0	31546	
6749	0	31480	
6750	0	31388	
6751	0	31264	
6752	0	31168	
6753	0	31040	
6754	0	30912	
6755	0	30828	
6756	0	30828	
6757	0	30844	
6758	0	30776	
6759	0	30708	
6760	0	30628	
6761	0	30564	
6762	0	30576	
6763	0	30608	
6764	0	30628	
6765	0	30612	
6766	0	30528	
6767	0	30452	
6768	0	30440	
6769	0	30460	
6770	0	30496	
6771	0	30448	
6772	0	30404	
6773	0	30384	
6774	0	30400	
6775	0	30416	
6776	0	30468	
6777	0	30456	
6778	0	30444	
6779	0	30488	
6780	0	30548	
6781	0	30560	
6782	0	30576	
6783	0	30536	
6784	0	30480	
6785	0	30426	
6786	0	30442	
6787	0	30512	
6788	0	30580	
6789	0	30588	
6790	0	30612	
6791	0	30624	
6792	0	30636	
6793	0	30648	
6794	0	30672	
6795	0	30672	
6796	0	30672	
6797	0	30680	
6798	0	30704	
6799	0	30688	
6800	0	30684	
6801	0	30680	
6802	0	30688	
6803	0	30720	
6804	0	30736	
6805	0	30776	
6806	0	30838	
6807	0	30880	
6808	0	30912	
6809	0	30912	
6810	0	30868	
6811	0	30884	
6812	0	30926	
6813	0	31008	
6814	0	31044	
6815	0	31076	
6816	0	31048	
6817	0	30980	
6818	0	30996	
6819	0	31052	
6820	0	31084	
6821	0	31140	
6822	0	31124	
6823	0	31100	
6824	0	31130	
6825	0	31176	
6826	0	31176	
6827	0	31188	
6828	0	31232	
6829	0	31298	
6830	0	31328	
6831	0	31328	
6832	0	31338	
6833	0	31356	
6834	0	31340	
6835	0	31336	
6836	0	31332	
6837	0	31352	
6838	0	31324	
6839	0	31288	
6840	0	31280	
6841	0	31270	
6842	0	31280	
6843	0	31352	
6844	0	31420	
6845	0	31400	
6846	0	31396	
6847	0	31376	
6848	0	31376	
6849	0	31360	
6850	0	31328	
6851	0	31336	
6852	0	31384	
6853	0	31408	
6854	0	31440	
6855	0	31432	
6856	0	31388	
6857	0	31394	
6858	0	31476	
6859	0	31512	
6860	0	31456	
6861	0	31420	
6862	0	31420	
6863	0	31400	
6864	0	31352	
6865	0	31340	
6866	0	31424	
6867	0	31500	
6868	0	31538	
6869	0	31540	
6870	0	31530	
6871	0	31496	
6872	0	31436	
6873	0	31432	
6874	0	31488	
6875	0	31508	
6876	0	31468	
6877	0	31456	
6878	0	31430	
6879	0	31412	
6880	0	31406	
6881	0	31412	
6882	0	31400	
6883	0	31408	
6884	0	31456	
6885	0	31480	
6886	0	31472	
6887	0	31476	
6888	0	31508	
6889	0	31500	
6890	0	31488	
6891	0	31508	
6892	0	31512	
6893	0	31504	
6894	0	31456	
6895	0	31436	
6896	0	31468	
6897	0	31448	
6898	0	31480	
6899	0	31480	
6900	0	31476	
6901	0	31496	
6902	0	31524	
6903	0	31544	
6904	0	31564	
6905	0	31604	
6906	0	31624	
6907	0	31604	
6908	0	31580	
6909	0	31540	
6910	0	31542	
6911	0	31520	
6912	0	31508	
6913	0	31492	
6914	0	31528	
6915	0	31588	
6916	0	31608	
6917	0	31614	
6918	0	31616	
6919	0	31612	
6920	0	31608	
6921	0	31608	
6922	0	31592	
6923	0	31616	
6924	0	31620	
6925	0	31628	
6926	0	31632	
6927	0	31628	
6928	0	31652	
6929	0	31664	
6930	0	31652	
6931	0	31628	
6932	0	31584	
6933	0	31552	
6934	0	31604	
6935	0	31636	
6936	0	31632	
6937	0	31668	
6938	0	31696	
6939	0	31724	
6940	0	31720	
6941	0	31696	
6942	0	31728	
6943	0	31738	
6944	0	31684	
6945	0	31690	
6946	0	31688	
6947	0	31700	
6948	0	31724	
6949	0	31760	
6950	0	31776	
6951	0	31800	
6952	0	31808	
6953	0	31820	
6954	0	31792	
6955	0	31696	
6956	0	31636	
6957	0	31618	
6958	0	31644	
6959	0	31664	
6960	0	31700	
6961	0	31700	
6962	0	31688	
6963	0	31708	
6964	0	31700	
6965	0	31676	
6966	0	31680	
6967	0	31688	
6968	0	31676	
6969	0	31676	
6970	0	31708	
6971	0	31736	
6972	0	31748	
6973	0	31776	
6974	0	31812	
6975	0	31834	
6976	0	31812	
6977	0	31776	
6978	0	31744	
6979	0	31748	
6980	0	31776	
6981	0	31752	
6982	0	31720	
6983	0	31736	
6984	0	31772	
6985	0	31800	
6986	0	31784	
6987	0	31760	
6988	0	31736	
6989	0	31716	
6990	0	31724	
6991	0	31756	
6992	0	31776	
6993	0	31808	
6994	0	31816	
6995	0	31820	
6996	0	31826	
6997	0	31832	
6998	0	31836	
6999	0	31840	
7000	0	31832	
7001	0	31824	
7002	0	31820	
7003	0	31832	
7004	0	31840	
7005	0	31852	
7006	0	31848	
7007	0	31884	
7008	0	31904	
7009	0	31948	
7010	0	31960	
7011	0	31956	
7012	0	31952	
7013	0	31904	
7014	0	31912	
7015	0	31956	
7016	0	32008	
7017	0	32064	
7018	0	32112	
7019	0	32180	
7020	0	32256	
7021	0	32368	
7022	0	32476	
7023	0	32624	
7024	0	32864	
7025	0	33108	
7026	0	33292	
7027	0	33428	
7028	0	33532	
7029	0	33656	
7030	0	33760	
7031	0	33860	
7032	0	33900	
7033	0	33878	
7034	0	33824	
7035	0	33840	
7036	0	33916	
7037	0	34016	
7038	0	34132	
7039	0	34176	
7040	0	34196	
7041	0	34298	
7042	0	34352	
7043	0	34348	
7044	0	34404	
7045	0	34496	
7046	0	34586	
7047	0	34668	
7048	0	34756	
7049	0	34836	
7050	0	34928	
7051	0	35024	
7052	0	35136	
7053	0	35160	
7054	0	35104	
7055	0	34976	
7056	0	34892	
7057	0	34862	
7058	0	34860	
7059	0	34912	
7060	0	35012	
7061	0	35124	
7062	0	35220	
7063	0	35148	
7064	0	34992	
7065	0	34808	
7066	0	34624	
7067	0	34464	
7068	0	34330	
7069	0	34170	
7070	0	34016	
7071	0	33824	
7072	0	33628	
7073	0	33460	
7074	0	33344	
7075	0	33272	
7076	0	33236	
7077	0	33196	
7078	0	33156	
7079	0	33064	
7080	0	32986	
7081	0	32928	
7082	0	32922	
7083	0	32926	
7084	0	32956	
7085	0	32984	
7086	0	32964	
7087	0	32892	
7088	0	32828	
7089	0	32776	
7090	0	32688	
7091	0	32576	
7092	0	32500	
7093	0	32456	
7094	0	32410	
7095	0	32320	
7096	0	32184	
7097	0	32016	
7098	0	31904	
7099	0	31792	
7100	0	31668	
7101	0	31544	
7102	0	31468	
7103	0	31392	
7104	0	31296	
7105	0	31232	
7106	0	31180	
7107	0	31156	
7108	0	31120	
7109	0	31068	
7110	0	31060	
7111	0	31068	
7112	0	31116	
7113	0	31130	
7114	0	31120	
7115	0	31124	
7116	0	31152	
7117	0	31168	
7118	0	31172	
7119	0	31212	
7120	0	31224	
7121	0	31228	
7122	0	31220	
7123	0	31208	
7124	0	31216	
7125	0	31268	
7126	0	31292	
7127	0	31288	
7128	0	31280	
7129	0	31240	
7130	0	31200	
7131	0	31240	
7132	0	31284	
7133	0	31306	
7134	0	31364	
7135	0	31408	
7136	0	31456	
7137	0	31468	
7138	0	31488	
7139	0	31504	
7140	0	31524	
7141	0	31516	
7142	0	31496	
7143	0	31520	
7144	0	31552	
7145	0	31578	
7146	0	31576	
7147	0	31544	
7148	0	31496	
7149	0	31408	
7150	0	31292	
7151	0	31152	
7152	0	30968	
7153	0	30744	
7154	0	30576	
7155	0	30520	
7156	0	30538	
7157	0	30616	
7158	0	30724	
7159	0	30892	
7160	0	31240	
7161	0	31776	
7162	0	32450	
7163	0	33256	
7164	0	34248	
7165	0	35356	
7166	0	36536	
7167	0	37868	
7168	0	39484	
7169	0	41204	
7170	0	42914	
7171	0	44604	
7172	0	46320	
7173	0	48088	
7174	0	49888	
7175	0	51680	
7176	0	53304	
7177	0	54788	
7178	0	56276	
7179	0	57784	
7180	0	59200	
7181	0	60404	
7182	0	61344	
7183	0	62172	
7184	0	62880	
7185	0	63240	
7186	0	63376	
7187	0	61748	
7188	0	59264	
7189	0	55988	
7190	0	52224	
7191	0	48480	
7192	0	44396	
7193	0	39896	
7194	0	35416	
7195	0	31844	
7196	0	29256	
7197	0	27456	
7198	0	26365	
7199	0	25792	
7200	0	25592	
7201	0	25624	
7202	0	25806	
7203	0	26160	
7204	0	26616	
7205	0	27144	
7206	0	27672	
7207	0	28136	
7208	0	28560	
7209	0	28956	
7210	0	29300	
7211	0	29608	
7212	0	29832	
7213	0	29932	
7214	0	29936	
7215	0	29882	
7216	0	29826	
7217	0	29776	
7218	0	29712	
7219	0	29628	
7220	0	29548	
7221	0	29492	
7222	0	29456	
7223	0	29396	
7224	0	29300	
7225	0	29230	
7226	0	29188	
7227	0	29160	
7228	0	29156	
7229	0	29172	
7230	0	29178	
7231	0	29184	
7232	0	29196	
7233	0	29188	
7234	0	29196	
7235	0	29198	
7236	0	29232	
7237	0	29304	
7238	0	29332	
7239	0	29336	
7240	0	29332	
7241	0	29316	
7242	0	29308	
7243	0	29340	
7244	0	29380	
7245	0	29352	
7246	0	29352	
7247	0	29416	
7248	0	29516	
7249	0	29572	
7250	0	29596	
7251	0	29620	
7252	0	29664	
7253	0	29668	
7254	0	29658	
7255	0	29702	
7256	0	29768	
7257	0	29792	
7258	0	29832	
7259	0	29856	
7260	0	29904	
7261	0	29940	
7262	0	29968	
7263	0	30020	
7264	0	30076	
7265	0	30074	
7266	0	30072	
7267	0	30124	
7268	0	30156	
7269	0	30152	
7270	0	30140	
7271	0	30176	
7272	0	30212	
7273	0	30272	
7274	0	30316	
7275	0	30356	
7276	0	30404	
7277	0	30444	
7278	0	30480	
7279	0	30512	
7280	0	30540	
7281	0	30562	
7282	0	30576	
7283	0	30584	
7284	0	30628	
7285	0	30676	
7286	0	30688	
7287	0	30706	
7288	0	30708	
7289	0	30720	
7290	0	30772	
7291	0	30780	
7292	0	30776	
7293	0	30824	
7294	0	30864	
7295	0	30900	
7296	0	30932	
7297	0	30976	
7298	0	31024	
7299	0	31060	
7300	0	31092	
7301	0	31116	
7302	0	31172	
7303	0	31208	
7304	0	31176	
7305	0	31208	
7306	0	31300	
7307	0	31364	
7308	0	31400	
7309	0	31440	
7310	0	31482	
7311	0	31532	
7312	0	31616	
7313	0	31668	
7314	0	31680	
7315	0	31716	
7316	0	31738	
7317	0	31724	
7318	0	31748	
7319	0	31820	
7320	0	31848	
7321	0	31876	
7322	0	31884	
7323	0	31908	
7324	0	31940	
7325	0	32004	
7326	0	32076	
7327	0	32140	
7328	0	32176	
7329	0	32204	
7330	0	32220	
7331	0	32248	
7332	0	32312	
7333	0	32360	
7334	0	32388	
7335	0	32440	
7336	0	32444	
7337	0	32468	
7338	0	32552	
7339	0	32640	
7340	0	32702	
7341	0	32736	
7342	0	32788	
7343	0	32836	
7344	0	32880	
7345	0	32924	
7346	0	32972	
7347	0	33028	
7348	0	33092	
7349	0	33156	
7350	0	33224	
7351	0	33258	
7352	0	33316	
7353	0	33376	
7354	0	33442	
7355	0	33516	
7356	0	33600	
7357	0	33656	
7358	0	33688	
7359	0	33716	
7360	0	33752	
7361	0	33816	
7362	0	33880	
7363	0	33952	
7364	0	34028	
7365	0	34096	
7366	0	34132	
7367	0	34184	
7368	0	34244	
7369	0	34296	
7370	0	34352	
7371	0	34400	
7372	0	34460	
7373	0	34520	
7374	0	34564	
7375	0	34664	
7376	0	34740	
7377	0	34804	
7378	0	34856	
7379	0	34916	
7380	0	34976	
7381	0	35000	
7382	0	35044	
7383	0	35104	
7384	0	35192	
7385	0	35260	
7386	0	35308	
7387	0	35384	
7388	0	35440	
7389	0	35502	
7390	0	35544	
7391	0	35572	
7392	0	35616	
7393	0	35688	
7394	0	35712	
7395	0	35728	
7396	0	35800	
7397	0	35856	
7398	0	35888	
7399	0	35900	
7400	0	35956	
7401	0	36044	
7402	0	36094	
7403	0	36128	
7404	0	36140	
7405	0	36180	
7406	0	36220	
7407	0	36248	
7408	0	36256	
7409	0	36276	
7410	0	36320	
7411	0	36352	
7412	0	36372	
7413	0	36386	
7414	0	36360	
7415	0	36312	
7416	0	36300	
7417	0	36332	
7418	0	36344	
7419	0	36370	
7420	0	36328	
7421	0	36260	
7422	0	36264	
7423	0	36260	
7424	0	36240	
7425	0	36192	
7426	0	36140	
7427	0	36144	
7428	0	36128	
7429	0	36048	
7430	0	35966	
7431	0	35852	
7432	0	35708	
7433	0	35596	
7434	0	35472	
7435	0	35380	
7436	0	35304	
7437	0	35232	
7438	0	35112	
7439	0	34948	
7440	0	34820	
7441	0	34656	
7442	0	34504	
7443	0	34336	
7444	0	34164	
7445	0	34000	
7446	0	33868	
7447	0	33728	
7448	0	33600	
7449	0	33408	
7450	0	33238	
7451	0	33088	
7452	0	32960	
7453	0	32840	
7454	0	32692	
7455	0	32544	
7456	0	32392	
7457	0	32274	
7458	0	32186	
7459	0	32112	
7460	0	32036	
7461	0	31892	
7462	0	31828	
7463	0	31732	
7464	0	31648	
7465	0	31576	
7466	0	31484	
7467	0	31388	
7468	0	31268	
7469	0	31176	
7470	0	31096	
7471	0	31052	
7472	0	30992	
7473	0	30936	
7474	0	30852	
7475	0	30780	
7476	0	30720	
7477	0	30644	
7478	0	30604	
7479	0	30532	
7480	0	30466	
7481	0	30438	
7482	0	30436	
7483	0	30416	
7484	0	30400	
7485	0	30404	
7486	0	30336	
7487	0	30292	
7488	0	30272	
7489	0	30300	
7490	0	30328	
7491	0	30336	
7492	0	30304	
7493	0	30304	
7494	0	30336	
7495	0	30328	
7496	0	30336	
7497	0	30336	
7498	0	30272	
7499	0	30256	
7500	0	30256	
7501	0	30296	
7502	0	30332	
7503	0	30316	
7504	0	30320	
7505	0	30368	
7506	0	30384	
7507	0	30376	
7508	0	30376	
7509	0	30372	
7510	0	30400	
7511	0	30380	
7512	0	30356	
7513	0	30410	
7514	0	30488	
7515	0	30520	
7516	0	30516	
7517	0	30500	
7518	0	30512	
7519	0	30496	
7520	0	30456	
7521	0	30460	
7522	0	30504	
7523	0	30574	
7524	0	30640	
7525	0	30692	
7526	0	30688	
7527	0	30680	
7528	0	30636	
7529	0	30658	
7530	0	30732	
7531	0	30792	
7532	0	30834	
7533	0	30840	
7534	0	30844	
7535	0	30844	
7536	0	30840	
7537	0	30904	
7538	0	30956	
7539	0	30932	
7540	0	30892	
7541	0	30876	
7542	0	30908	
7543	0	30940	
7544	0	30972	
7545	0	31018	
7546	0	31032	
7547	0	31028	
7548	0	31012	
7549	0	31002	
7550	0	31000	
7551	0	31008	
7552	0	31040	
7553	0	31060	
7554	0	31064	
7555	0	31072	
7556	0	31072	
7557	0	31080	
7558	0	31074	
7559	0	31082	
7560	0	31090	
7561	0	31116	
7562	0	31120	
7563	0	31104	
7564	0	31112	
7565	0	31144	
7566	0	31162	
7567	0	31164	
7568	0	31132	
7569	0	31152	
7570	0	31186	
7571	0	31202	
7572	0	31216	
7573	0	31292	
7574	0	31324	
7575	0	31288	
7576	0	31282	
7577	0	31292	
7578	0	31300	
7579	0	31272	
7580	0	31240	
7581	0	31276	
7582	0	31264	
7583	0	31280	
7584	0	31304	
7585	0	31266	
7586	0	31324	
7587	0	31328	
7588	0	31296	
7589	0	31236	
7590	0	31208	
7591	0	31252	
7592	0	31276	
7593	0	31266	
7594	0	31248	
7595	0	31252	
7596	0	31280	
7597	0	31280	
7598	0	31264	
7599	0	31300	
7600	0	31356	
7601	0	31392	
7602	0	31388	
7603	0	31388	
7604	0	31364	
7605	0	31304	
7606	0	31264	
7607	0	31292	
7608	0	31360	
7609	0	31404	
7610	0	31400	
7611	0	31380	
7612	0	31336	
7613	0	31296	
7614	0	31312	
7615	0	31336	
7616	0	31360	
7617	0	31392	
7618	0	31412	
7619	0	31432	
7620	0	31416	
7621	0	31364	
7622	0	31356	
7623	0	31384	
7624	0	31392	
7625	0	31384	
7626	0	31408	
7627	0	31422	
7628	0	31436	
7629	0	31466	
7630	0	31468	
7631	0	31468	
7632	0	31460	
7633	0	31448	
7634	0	31420	
7635	0	31424	
7636	0	31448	
7637	0	31456	
7638	0	31508	
7639	0	31516	
7640	0	31500	
7641	0	31508	
7642	0	31504	
7643	0	31496	
7644	0	31492	
7645	0	31512	
7646	0	31524	
7647	0	31536	
7648	0	31520	
7649	0	31548	
7650	0	31556	
7651	0	31596	
7652	0	31620	
7653	0	31564	
7654	0	31508	
7655	0	31488	
7656	0	31496	
7657	0	31536	
7658	0	31596	
7659	0	31668	
7660	0	31688	
7661	0	31660	
7662	0	31588	
7663	0	31560	
7664	0	31596	
7665	0	31636	
7666	0	31672	
7667	0	31640	
7668	0	31608	
7669	0	31568	
7670	0	31568	
7671	0	31576	
7672	0	31584	
7673	0	31676	
7674	0	31728	
7675	0	31664	
7676	0	31656	
7677	0	31668	
7678	0	31668	
7679	0	31676	
7680	0	31700	
7681	0	31692	
7682	0	31672	
7683	0	31644	
7684	0	31696	
7685	0	31730	
7686	0	31712	
7687	0	31692	
7688	0	31672	
7689	0	31628	
7690	0	31580	
7691	0	31572	
7692	0	31568	
7693	0	31576	
7694	0	31652	
7695	0	31688	
7696	0	31696	
7697	0	31712	
7698	0	31704	
7699	0	31734	
7700	0	31784	
7701	0	31786	
7702	0	31796	
7703	0	31810	
7704	0	31796	
7705	0	31788	
7706	0	31824	
7707	0	31804	
7708	0	31776	
7709	0	31778	
7710	0	31828	
7711	0	31852	
7712	0	31884	
7713	0	31928	
7714	0	31916	
7715	0	31924	
7716	0	31998	
7717	0	32104	
7718	0	32228	
7719	0	32396	
7720	0	32564	
7721	0	32748	
7722	0	32924	
7723	0	33072	
7724	0	33256	
7725	0	33476	
7726	0	33664	
7727	0	33832	
7728	0	33882	
7729	0	33856	
7730	0	33776	
7731	0	33752	
7732	0	33808	
7733	0	33860	
7734	0	33928	
7735	0	33976	
7736	0	33980	
7737	0	34016	
7738	0	34088	
7739	0	34156	
7740	0	34200	
7741	0	34248	
7742	0	34368	
7743	0	34504	
7744	0	34584	
7745	0	34672	
7746	0	34776	
7747	0	34856	
7748	0	34892	
7749	0	34924	
7750	0	34916	
7751	0	34904	
7752	0	34908	
7753	0	34916	
7754	0	34892	
7755	0	34896	
7756	0	34968	
7757	0	35056	
7758	0	35160	
7759	0	35216	
7760	0	35176	
7761	0	35044	
7762	0	34864	
7763	0	34678	
7764	0	34548	
7765	0	34368	
7766	0	34148	
7767	0	33972	
7768	0	33762	
7769	0	33556	
7770	0	33504	
7771	0	33464	
7772	0	33384	
7773	0	33272	
7774	0	33156	
7775	0	33036	
7776	0	32956	
7777	0	32896	
7778	0	32826	
7779	0	32832	
7780	0	32816	
7781	0	32736	
7782	0	32676	
7783	0	32628	
7784	0	32536	
7785	0	32424	
7786	0	32356	
7787	0	32288	
7788	0	32272	
7789	0	32260	
7790	0	32216	
7791	0	32144	
7792	0	32032	
7793	0	31900	
7794	0	31764	
7795	0	31632	
7796	0	31486	
7797	0	31336	
7798	0	31280	
7799	0	31212	
7800	0	31120	
7801	0	31004	
7802	0	30916	
7803	0	30892	
7804	0	30904	
7805	0	30880	
7806	0	30880	
7807	0	30936	
7808	0	30920	
7809	0	30920	
7810	0	30956	
7811	0	30984	
7812	0	30992	
7813	0	31000	
7814	0	30992	
7815	0	30984	
7816	0	30984	
7817	0	31004	
7818	0	31014	
7819	0	31000	
7820	0	30952	
7821	0	30944	
7822	0	30976	
7823	0	31000	
7824	0	30944	
7825	0	30892	
7826	0	30932	
7827	0	30968	
7828	0	31048	
7829	0	31104	
7830	0	31132	
7831	0	31140	
7832	0	31172	
7833	0	31172	
7834	0	31176	
7835	0	31184	
7836	0	31212	
7837	0	31256	
7838	0	31292	
7839	0	31328	
7840	0	31356	
7841	0	31372	
7842	0	31412	
7843	0	31418	
7844	0	31372	
7845	0	31264	
7846	0	31120	
7847	0	31008	
7848	0	30856	
7849	0	30692	
7850	0	30528	
7851	0	30336	
7852	0	30224	
7853	0	30216	
7854	0	30264	
7855	0	30336	
7856	0	30508	
7857	0	30912	
7858	0	31540	
7859	0	32292	
7860	0	33128	
7861	0	34112	
7862	0	35216	
7863	0	36412	
7864	0	37820	
7865	0	39520	
7866	0	41320	
7867	0	43032	
7868	0	44728	
7869	0	46440	
7870	0	48236	
7871	0	50088	
7872	0	51916	
7873	0	53564	
7874	0	55048	
7875	0	56472	
7876	0	57896	
7877	0	59256	
7878	0	60480	
7879	0	61468	
7880	0	62168	
7881	0	62720	
7882	0	62920	
7883	0	62028	
7884	0	60036	
7885	0	57212	
7886	0	53684	
7887	0	49968	
7888	0	46156	
7889	0	41944	
7890	0	37440	
7891	0	33352	
7892	0	30288	
7893	0	28144	
7894	0	26760	
7895	0	25936	
7896	0	25538	
7897	0	25488	
7898	0	25560	
7899	0	25784	
7900	0	26124	
7901	0	26588	
7902	0	27098	
7903	0	27584	
7904	0	28016	
7905	0	28440	
7906	0	28860	
7907	0	29256	
7908	0	29560	
7909	0	29724	
7910	0	29822	
7911	0	29884	
7912	0	29860	
7913	0	29772	
7914	0	29682	
7915	0	29596	
7916	0	29576	
7917	0	29560	
7918	0	29460	
7919	0	29356	
7920	0	29292	
7921	0	29268	
7922	0	29248	
7923	0	29248	
7924	0	29240	
7925	0	29190	
7926	0	29148	
7927	0	29096	
7928	0	29084	
7929	0	29080	
7930	0	29092	
7931	0	29056	
7932	0	29050	
7933	0	29066	
7934	0	29064	
7935	0	29104	
7936	0	29144	
7937	0	29244	
7938	0	29356	
7939	0	29364	
7940	0	29324	
7941	0	29288	
7942	0	29262	
7943	0	29324	
7944	0	29402	
7945	0	29448	
7946	0	29480	
7947	0	29504	
7948	0	29522	
7949	0	29568	
7950	0	29652	
7951	0	29692	
7952	0	29700	
7953	0	29712	
7954	0	29728	
7955	0	29728	
7956	0	29772	
7957	0	29842	
7958	0	29890	
7959	0	29880	
7960	0	29912	
7961	0	29968	
7962	0	30008	
7963	0	30032	
7964	0	30100	
7965	0	30152	
7966	0	30176	
7967	0	30208	
7968	0	30256	
7969	0	30266	
7970	0	30264	
7971	0	30312	
7972	0	30364	
7973	0	30400	
7974	0	30400	
7975	0	30422	
7976	0	30420	
7977	0	30404	
7978	0	30456	
7979	0	30496	
7980	0	30536	
7981	0	30612	
7982	0	30676	
7983	0	30688	
7984	0	30716	
7985	0	30728	
7986	0	30780	
7987	0	30772	
7988	0	30780	
7989	0	30820	
7990	0	30884	
7991	0	30956	
7992	0	31032	
7993	0	31098	
7994	0	31116	
7995	0	31128	
7996	0	31160	
7997	0	31148	
7998	0	31166	
7999	0	31216	
8000	0	31280	
8001	0	31280	
8002	0	31312	
8003	0	31336	
8004	0	31370	
8005	0	31350	
8006	0	31314	
8007	0	31320	
8008	0	31376	
8009	0	31432	
8010	0	31520	
8011	0	31592	
8012	0	31616	
8013	0	31652	
8014	0	31672	
8015	0	31764	
8016	0	31904	
8017	0	31952	
8018	0	31930	
8019	0	32000	
8020	0	32076	
8021	0	32080	
8022	0	32066	
8023	0	32092	
8024	0	32204	
8025	0	32312	
8026	0	32332	
8027	0	32368	
8028	0	32396	
8029	0	32384	
8030	0	32388	
8031	0	32366	
8032	0	32408	
8033	0	32504	
8034	0	32592	
8035	0	32644	
8036	0	32736	
8037	0	32864	
8038	0	32960	
8039	0	33008	
8040	0	33008	
8041	0	33032	
8042	0	33076	
8043	0	33076	
8044	0	33108	
8045	0	33152	
8046	0	33208	
8047	0	33268	
8048	0	33324	
8049	0	33384	
8050	0	33440	
8051	0	33464	
8052	0	33512	
8053	0	33594	
8054	0	33636	
8055	0	33664	
8056	0	33768	
8057	0	33850	
8058	0	33920	
8059	0	33964	
8060	0	34025	
8061	0	34064	
8062	0	34104	
8063	0	34156	
8064	0	34176	
8065	0	34240	
8066	0	34328	
8067	0	34452	
8068	0	34568	
8069	0	34636	
8070	0	34660	
8071	0	34716	
8072	0	34736	
8073	0	34712	
8074	0	34736	
8075	0	34812	
8076	0	34864	
8077	0	34920	
8078	0	34968	
8079	0	34988	
8080	0	34992	
8081	0	35042	
8082	0	35136	
8083	0	35224	
8084	0	35260	
8085	0	35300	
8086	0	35340	
8087	0	35424	
8088	0	35488	
8089	0	35600	
8090	0	35676	
8091	0	35712	
8092	0	35804	
8093	0	35888	
8094	0	35928	
8095	0	35950	
8096	0	35988	
8097	0	35964	
8098	0	35972	
8099	0	35976	
8100	0	35980	
8101	0	36004	
8102	0	36036	
8103	0	36088	
8104	0	36128	
8105	0	36204	
8106	0	36252	
8107	0	36224	
8108	0	36192	
8109	0	36186	
8110	0	36228	
8111	0	36284	
8112	0	36320	
8113	0	36380	
8114	0	36388	
8115	0	36356	
8116	0	36368	
8117	0	36392	
8118	0	36416	
8119	0	36408	
8120	0	36364	
8121	0	36324	
8122	0	36268	
8123	0	36194	
8124	0	36128	
8125	0	35988	
8126	0	35860	
8127	0	35780	
8128	0	35692	
8129	0	35580	
8130	0	35524	
8131	0	35448	
8132	0	35320	
8133	0	35172	
8134	0	35048	
8135	0	34956	
8136	0	34840	
8137	0	34676	
8138	0	34512	
8139	0	34300	
8140	0	34064	
8141	0	33952	
8142	0	33872	
8143	0	33774	
8144	0	33664	
8145	0	33452	
8146	0	33248	
8147	0	33092	
8148	0	32956	
8149	0	32852	
8150	0	32760	
8151	0	32602	
8152	0	32450	
8153	0	32340	
8154	0	32228	
8155	0	32072	
8156	0	31976	
8157	0	31824	
8158	0	31712	
8159	0	31596	
8160	0	31504	
8161	0	31400	
8162	0	31296	
8163	0	31184	
8164	0	31072	
8165	0	30960	
8166	0	30884	
8167	0	30804	
8168	0	30732	
8169	0	30688	
8170	0	30612	
8171	0	30512	
8172	0	30418	
8173	0	30384	
8174	0	30336	
8175	0	30300	
8176	0	30284	
8177	0	30282	
8178	0	30208	
8179	0	30124	
8180	0	30088	
8181	0	30024	
8182	0	30010	
8183	0	30052	
8184	0	30120	
8185	0	30168	
8186	0	30144	
8187	0	30104	
8188	0	30064	
8189	0	30032	
8190	0	30042	
8191	0	29980	
8192	0	29888	
8193	0	29898	
8194	0	29912	
8195	0	29920	
8196	0	29932	
8197	0	29924	
8198	0	29952	
8199	0	29992	
8200	0	30032	
8201	0	29988	
8202	0	29976	
8203	0	29976	
8204	0	30016	
8205	0	30072	
8206	0	30092	
8207	0	30064	
8208	0	30096	
8209	0	30160	
8210	0	30152	
8211	0	30144	
8212	0	30188	
8213	0	30252	
8214	0	30304	
8215	0	30348	
8216	0	30372	
8217	0	30368	
8218	0	30344	
8219	0	30370	
8220	0	30420	
8221	0	30452	
8222	0	30436	
8223	0	30392	
8224	0	30416	
8225	0	30458	
8226	0	30488	
8227	0	30532	
8228	0	30496	
8229	0	30496	
8230	0	30552	
8231	0	30552	
8232	0	30524	
8233	0	30472	
8234	0	30480	
8235	0	30496	
8236	0	30440	
8237	0	30460	
8238	0	30532	
8239	0	30636	
8240	0	30644	
8241	0	30608	
8242	0	30624	
8243	0	30696	
8244	0	30756	
8245	0	30814	
8246	0	30834	
8247	0	30860	
8248	0	30876	
8249	0	30874	
8250	0	30768	
8251	0	30708	
8252	0	30648	
8253	0	30628	
8254	0	30656	
8255	0	30708	
8256	0	30736	
8257	0	30752	
8258	0	30740	
8259	0	30752	
8260	0	30808	
8261	0	30860	
8262	0	30932	
8263	0	30946	
8264	0	30980	
8265	0	31032	
8266	0	31024	
8267	0	30996	
8268	0	30942	
8269	0	30924	
8270	0	30960	
8271	0	30968	
8272	0	30936	
8273	0	30996	
8274	0	31028	
8275	0	31000	
8276	0	31016	
8277	0	30984	
8278	0	30912	
8279	0	30886	
8280	0	30876	
8281	0	30856	
8282	0	30880	
8283	0	30948	
8284	0	30948	
8285	0	30968	
8286	0	30996	
8287	0	30996	
8288	0	30948	
8289	0	30944	
8290	0	30912	
8291	0	30880	
8292	0	30920	
8293	0	30988	
8294	0	31056	
8295	0	31080	
8296	0	31050	
8297	0	31062	
8298	0	31106	
8299	0	31108	
8300	0	31162	
8301	0	31196	
8302	0	31156	
8303	0	31112	
8304	0	31036	
8305	0	31004	
8306	0	30984	
8307	0	31028	
8308	0	31069	
8309	0	31068	
8310	0	31104	
8311	0	31180	
8312	0	31152	
8313	0	31124	
8314	0	31160	
8315	0	31192	
8316	0	31180	
8317	0	31152	
8318	0	31188	
8319	0	31196	
8320	0	31120	
8321	0	31092	
8322	0	31152	
8323	0	31144	
8324	0	31106	
8325	0	31084	
8326	0	31096	
8327	0	31148	
8328	0	31174	
8329	0	31216	
8330	0	31272	
8331	0	31272	
8332	0	31256	
8333	0	31232	
8334	0	31160	
8335	0	31172	
8336	0	31210	
8337	0	31188	
8338	0	31208	
8339	0	31216	
8340	0	31176	
8341	0	31208	
8342	0	31224	
8343	0	31184	
8344	0	31168	
8345	0	31154	
8346	0	31192	
8347	0	31188	
8348	0	31160	
8349	0	31184	
8350	0	31216	
8351	0	31284	
8352	0	31324	
8353	0	31312	
8354	0	31288	
8355	0	31372	
8356	0	31456	
8357	0	31452	
8358	0	31442	
8359	0	31484	
8360	0	31516	
8361	0	31564	
8362	0	31608	
8363	0	31572	
8364	0	31488	
8365	0	31408	
8366	0	31332	
8367	0	31344	
8368	0	31350	
8369	0	31376	
8370	0	31368	
8371	0	31320	
8372	0	31268	
8373	0	31248	
8374	0	31300	
8375	0	31384	
8376	0	31436	
8377	0	31472	
8378	0	31544	
8379	0	31620	
8380	0	31688	
8381	0	31772	
8382	0	31844	
8383	0	31848	
8384	0	31900	
8385	0	32024	
8386	0	32166	
8387	0	32352	
8388	0	32480	
8389	0	32590	
8390	0	32692	
8391	0	32848	
8392	0	32992	
8393	0	33048	
8394	0	33068	
8395	0	33112	
8396	0	33136	
8397	0	33172	
8398	0	33236	
8399	0	33312	
8400	0	33396	
8401	0	33444	
8402	0	33508	
8403	0	33556	
8404	0	33568	
8405	0	33632	
8406	0	33748	
8407	0	33864	
8408	0	33996	
8409	0	34176	
8410	0	34304	
8411	0	34408	
8412	0	34492	
8413	0	34568	
8414	0	34656	
8415	0	34660	
8416	0	34564	
8417	0	34464	
8418	0	34436	
8419	0	34468	
8420	0	34580	
8421	0	34736	
8422	0	34824	
8423	0	34896	
8424	0	34936	
8425	0	34856	
8426	0	34700	
8427	0	34528	
8428	0	34336	
8429	0	34220	
8430	0	34048	
8431	0	33840	
8432	0	33620	
8433	0	33412	
8434	0	33260	
8435	0	33224	
8436	0	33152	
8437	0	33056	
8438	0	33024	
8439	0	32916	
8440	0	32880	
8441	0	32852	
8442	0	32728	
8443	0	32668	
8444	0	32608	
8445	0	32532	
8446	0	32472	
8447	0	32392	
8448	0	32276	
8449	0	32140	
8450	0	32096	
8451	0	32104	
8452	0	32032	
8453	0	31948	
8454	0	31880	
8455	0	31816	
8456	0	31720	
8457	0	31648	
8458	0	31508	
8459	0	31444	
8460	0	31340	
8461	0	31196	
8462	0	31088	
8463	0	31016	
8464	0	30966	
8465	0	30912	
8466	0	30830	
8467	0	30804	
8468	0	30756	
8469	0	30700	
8470	0	30700	
8471	0	30720	
8472	0	30672	
8473	0	30628	
8474	0	30660	
8475	0	30672	
8476	0	30680	
8477	0	30680	
8478	0	30768	
8479	0	30916	
8480	0	30990	
8481	0	30960	
8482	0	30960	
8483	0	30988	
8484	0	30952	
8485	0	30912	
8486	0	30832	
8487	0	30852	
8488	0	30826	
8489	0	30744	
8490	0	30684	
8491	0	30696	
8492	0	30720	
8493	0	30752	
8494	0	30768	
8495	0	30760	
8496	0	30804	
8497	0	30916	
8498	0	30988	
8499	0	31016	
8500	0	31008	
8501	0	30984	
8502	0	31076	
8503	0	31234	
8504	0	31288	
8505	0	31336	
8506	0	31404	
8507	0	31456	
8508	0	31448	
8509	0	31426	
8510	0	31292	
8511	0	31152	
8512	0	31044	
8513	0	30964	
8514	0	30800	
8515	0	30568	
8516	0	30322	
8517	0	30100	
8518	0	30016	
8519	0	30068	
8520	0	30212	
8521	0	30432	
8522	0	30724	
8523	0	31120	
8524	0	31668	
8525	0	32344	
8526	0	33124	
8527	0	34096	
8528	0	35184	
8529	0	36480	
8530	0	38108	
8531	0	40000	
8532	0	41844	
8533	0	43680	
8534	0	45456	
8535	0	47240	
8536	0	49028	
8537	0	50864	
8538	0	52648	
8539	0	54216	
8540	0	55708	
8541	0	57184	
8542	0	58596	
8543	0	59968	
8544	0	61252	
8545	0	62312	
8546	0	63032	
8547	0	63352	
8548	0	62760	
8549	0	61154	
8550	0	58760	
8551	0	55536	
8552	0	51856	
8553	0	48148	
8554	0	44088	
8555	0	39564	
8556	0	34808	
8557	0	30680	
8558	0	27648	
8559	0	25764	
8560	0	24860	
8561	0	24524	
8562	0	24496	
8563	0	24656	
8564	0	24756	
8565	0	24872	
8566	0	25108	
8567	0	25522	
8568	0	25956	
8569	0	26392	
8570	0	26852	
8571	0	27260	
8572	0	27646	
8573	0	28052	
8574	0	28420	
8575	0	28832	
8576	0	29136	
8577	0	29308	
8578	0	29436	
8579	0	29520	
8580	0	29532	
8581	0	29532	
8582	0	29516	
8583	0	29484	
8584	0	29413	
8585	0	29352	
8586	0	29400	
8587	0	29428	
8588	0	29372	
8589	0	29336	
8590	0	29292	
8591	0	29164	
8592	0	29105	
