# OpenSignals Text File Format. Version 1
# {"00:07:80:4B:15:F7": {"position": 0, "device": "biosignalsplux", "device name": "00:07:80:4B:15:F7", "device connection": "BTH00:07:80:4B:15:F7", "sampling rate": 1000, "resolution": [16], "firmware version": 775, "comments": "", "keywords": "", "mode": 0, "sync interval": 2, "date": "2023-4-12", "time": "15:45:13.852", "channels": [1], "sensor": ["ECG"], "label": ["CH1"], "column": ["nSeq", "DI", "CH1"], "special": [{"SpO2": [80, 40, 5, 4, 3, 3]}, {"SpO2": [80, 40, 5, 4, 3, 3]}, {"SpO2": [80, 40, 5, 4, 3, 3]}, {"SpO2": [80, 40, 5, 4, 3, 3]}, {"SpO2": [80, 40, 5, 4, 3, 3]}, {"SpO2": [80, 40, 5, 4, 3, 3]}, {"SpO2": [80, 40, 5, 4, 3, 3]}, {"SpO2": [80, 40, 5, 4, 3, 3]}], "digital IO": [0, 1], "sleeve color": ["green"], "convertedValues": 0}}
# EndOfHeader
0	0	33472	
1	0	33502	
2	0	33512	
3	0	33504	
4	0	33496	
5	0	33476	
6	0	33464	
7	0	33420	
8	0	33272	
9	0	33066	
10	0	32836	
11	0	32640	
12	0	32524	
13	0	32432	
14	0	32328	
15	0	32224	
16	0	32164	
17	0	32196	
18	0	32236	
19	0	32276	
20	0	32346	
21	0	32456	
22	0	32568	
23	0	32624	
24	0	32576	
25	0	32468	
26	0	32312	
27	0	32172	
28	0	32160	
29	0	32236	
30	0	32256	
31	0	32180	
32	0	32036	
33	0	31892	
34	0	31848	
35	0	31864	
36	0	31988	
37	0	32168	
38	0	32388	
39	0	32524	
40	0	32588	
41	0	32650	
42	0	32732	
43	0	32773	
44	0	32788	
45	0	32844	
46	0	32972	
47	0	33100	
48	0	33180	
49	0	33196	
50	0	33200	
51	0	33242	
52	0	33284	
53	0	33248	
54	0	33200	
55	0	33176	
56	0	33152	
57	0	33080	
58	0	32980	
59	0	32936	
60	0	33004	
61	0	33052	
62	0	33072	
63	0	33032	
64	0	33008	
65	0	32986	
66	0	32984	
67	0	32920	
68	0	32868	
69	0	32880	
70	0	32948	
71	0	33056	
72	0	33128	
73	0	33128	
74	0	33086	
75	0	33056	
76	0	33120	
77	0	33260	
78	0	33378	
79	0	33400	
80	0	33312	
81	0	33200	
82	0	33120	
83	0	33066	
84	0	33056	
85	0	33076	
86	0	32948	
87	0	32784	
88	0	32668	
89	0	32672	
90	0	32768	
91	0	32840	
92	0	32844	
93	0	32836	
94	0	32760	
95	0	32692	
96	0	32636	
97	0	32608	
98	0	32664	
99	0	32780	
100	0	32980	
101	0	33248	
102	0	33492	
103	0	33748	
104	0	33936	
105	0	34064	
106	0	34204	
107	0	34424	
108	0	34600	
109	0	34716	
110	0	34816	
111	0	34852	
112	0	34852	
113	0	34812	
114	0	34756	
115	0	34780	
116	0	34816	
117	0	34860	
118	0	34900	
119	0	34884	
120	0	34872	
121	0	34952	
122	0	35088	
123	0	35296	
124	0	35564	
125	0	35964	
126	0	36396	
127	0	36720	
128	0	36888	
129	0	36912	
130	0	36912	
131	0	36836	
132	0	36756	
133	0	36768	
134	0	36820	
135	0	36860	
136	0	36864	
137	0	36904	
138	0	37020	
139	0	37204	
140	0	37340	
141	0	37376	
142	0	37324	
143	0	37260	
144	0	37156	
145	0	36976	
146	0	36744	
147	0	36492	
148	0	36316	
149	0	36228	
150	0	36232	
151	0	36248	
152	0	36256	
153	0	36192	
154	0	36024	
155	0	35936	
156	0	35880	
157	0	35776	
158	0	35592	
159	0	35344	
160	0	35000	
161	0	34660	
162	0	34412	
163	0	34244	
164	0	33976	
165	0	33616	
166	0	33296	
167	0	33122	
168	0	32934	
169	0	32830	
170	0	32776	
171	0	32716	
172	0	32624	
173	0	32464	
174	0	32272	
175	0	32068	
176	0	31930	
177	0	31888	
178	0	31856	
179	0	31788	
180	0	31692	
181	0	31606	
182	0	31600	
183	0	31644	
184	0	31704	
185	0	31724	
186	0	31728	
187	0	31728	
188	0	31684	
189	0	31612	
190	0	31484	
191	0	31364	
192	0	31310	
193	0	31336	
194	0	31340	
195	0	31288	
196	0	31264	
197	0	31280	
198	0	31264	
199	0	31256	
200	0	31372	
201	0	31564	
202	0	31764	
203	0	31936	
204	0	32018	
205	0	32044	
206	0	31968	
207	0	31908	
208	0	31908	
209	0	31936	
210	0	31924	
211	0	31924	
212	0	31896	
213	0	31800	
214	0	31660	
215	0	31512	
216	0	31280	
217	0	31024	
218	0	30752	
219	0	30424	
220	0	30100	
221	0	29844	
222	0	29600	
223	0	29348	
224	0	29112	
225	0	29058	
226	0	29212	
227	0	29532	
228	0	29964	
229	0	30540	
230	0	31260	
231	0	32112	
232	0	33344	
233	0	34856	
234	0	36464	
235	0	38498	
236	0	40980	
237	0	43868	
238	0	47036	
239	0	50484	
240	0	54272	
241	0	58408	
242	0	61976	
243	0	63924	
244	0	64948	
245	0	65428	
246	0	65535	
247	0	65535	
248	0	65535	
249	0	65535	
250	0	65535	
251	0	65392	
252	0	65272	
253	0	65144	
254	0	65028	
255	0	64896	
256	0	64768	
257	0	64644	
258	0	64520	
259	0	64392	
260	0	64280	
261	0	64160	
262	0	64032	
263	0	63912	
264	0	63808	
265	0	63656	
266	0	63556	
267	0	63424	
268	0	60764	
269	0	55400	
270	0	49984	
271	0	44812	
272	0	40504	
273	0	37200	
274	0	34756	
275	0	32984	
276	0	31704	
277	0	30724	
278	0	29844	
279	0	29036	
280	0	28408	
281	0	27888	
282	0	27376	
283	0	26870	
284	0	26378	
285	0	25924	
286	0	25448	
287	0	24936	
288	0	24372	
289	0	23784	
290	0	23328	
291	0	22960	
292	0	22730	
293	0	22592	
294	0	22444	
295	0	22294	
296	0	22148	
297	0	22012	
298	0	21832	
299	0	21620	
300	0	21396	
301	0	21316	
302	0	21380	
303	0	21520	
304	0	21544	
305	0	21482	
306	0	21460	
307	0	21546	
308	0	21736	
309	0	21936	
310	0	22058	
311	0	22080	
312	0	22040	
313	0	22032	
314	0	22024	
315	0	22012	
316	0	22004	
317	0	21928	
318	0	21862	
319	0	21878	
320	0	22014	
321	0	22240	
322	0	22424	
323	0	22608	
324	0	22708	
325	0	22776	
326	0	22804	
327	0	22846	
328	0	22944	
329	0	23044	
330	0	23148	
331	0	23220	
332	0	23224	
333	0	23152	
334	0	23032	
335	0	22920	
336	0	22912	
337	0	23048	
338	0	23336	
339	0	23696	
340	0	24084	
341	0	24426	
342	0	24728	
343	0	24960	
344	0	25002	
345	0	24844	
346	0	24580	
347	0	24314	
348	0	24144	
349	0	24122	
350	0	24176	
351	0	24288	
352	0	24432	
353	0	24616	
354	0	24844	
355	0	25068	
356	0	25338	
357	0	25568	
358	0	25684	
359	0	25688	
360	0	25624	
361	0	25670	
362	0	25820	
363	0	26000	
364	0	26132	
365	0	26246	
366	0	26348	
367	0	26404	
368	0	26464	
369	0	26532	
370	0	26616	
371	0	26672	
372	0	26720	
373	0	26800	
374	0	26906	
375	0	27106	
376	0	27344	
377	0	27534	
378	0	27648	
379	0	27648	
380	0	27576	
381	0	27488	
382	0	27448	
383	0	27400	
384	0	27444	
385	0	27540	
386	0	27676	
387	0	27840	
388	0	28096	
389	0	28360	
390	0	28580	
391	0	28832	
392	0	29088	
393	0	29356	
394	0	29636	
395	0	29820	
396	0	29916	
397	0	29872	
398	0	29764	
399	0	29640	
400	0	29562	
401	0	29488	
402	0	29368	
403	0	29218	
404	0	29108	
405	0	29104	
406	0	29228	
407	0	29462	
408	0	29744	
409	0	30004	
410	0	30244	
411	0	30428	
412	0	30616	
413	0	30900	
414	0	31084	
415	0	31184	
416	0	31276	
417	0	31452	
418	0	31672	
419	0	31824	
420	0	31900	
421	0	31932	
422	0	31940	
423	0	31916	
424	0	31802	
425	0	31584	
426	0	31408	
427	0	31282	
428	0	31220	
429	0	31180	
430	0	31232	
431	0	31432	
432	0	31772	
433	0	32124	
434	0	32440	
435	0	32720	
436	0	32952	
437	0	33064	
438	0	33004	
439	0	32892	
440	0	32780	
441	0	32664	
442	0	32580	
443	0	32604	
444	0	32736	
445	0	32944	
446	0	33168	
447	0	33392	
448	0	33588	
449	0	33752	
450	0	33900	
451	0	34000	
452	0	34036	
453	0	34030	
454	0	33912	
455	0	33708	
456	0	33520	
457	0	33228	
458	0	32912	
459	0	32624	
460	0	32428	
461	0	32352	
462	0	32412	
463	0	32584	
464	0	32816	
465	0	33056	
466	0	33308	
467	0	33524	
468	0	33608	
469	0	33612	
470	0	33634	
471	0	33680	
472	0	33664	
473	0	33584	
474	0	33504	
475	0	33508	
476	0	33600	
477	0	33776	
478	0	33980	
479	0	34180	
480	0	34272	
481	0	34304	
482	0	34296	
483	0	34244	
484	0	34170	
485	0	34136	
486	0	34120	
487	0	34048	
488	0	33960	
489	0	33776	
490	0	33584	
491	0	33460	
492	0	33340	
493	0	33280	
494	0	33320	
495	0	33408	
496	0	33388	
497	0	33300	
498	0	33168	
499	0	33016	
500	0	32884	
501	0	32712	
502	0	32472	
503	0	32248	
504	0	32052	
505	0	31860	
506	0	31768	
507	0	31792	
508	0	31860	
509	0	31928	
510	0	31968	
511	0	31960	
512	0	31872	
513	0	31808	
514	0	31728	
515	0	31700	
516	0	31708	
517	0	31708	
518	0	31648	
519	0	31626	
520	0	31616	
521	0	31660	
522	0	31668	
523	0	31704	
524	0	31712	
525	0	31672	
526	0	31572	
527	0	31476	
528	0	31440	
529	0	31522	
530	0	31676	
531	0	31788	
532	0	31800	
533	0	31740	
534	0	31568	
535	0	31316	
536	0	31116	
537	0	30976	
538	0	30916	
539	0	30868	
540	0	30820	
541	0	30832	
542	0	30960	
543	0	31144	
544	0	31242	
545	0	31284	
546	0	31320	
547	0	31328	
548	0	31304	
549	0	31260	
550	0	31300	
551	0	31413	
552	0	31584	
553	0	31664	
554	0	31604	
555	0	31448	
556	0	31386	
557	0	31468	
558	0	31644	
559	0	31872	
560	0	31992	
561	0	32176	
562	0	32396	
563	0	32532	
564	0	32608	
565	0	32602	
566	0	32528	
567	0	32420	
568	0	32280	
569	0	32160	
570	0	32120	
571	0	32072	
572	0	31924	
573	0	31778	
574	0	31688	
575	0	31568	
576	0	31520	
577	0	31660	
578	0	31884	
579	0	32140	
580	0	32408	
581	0	32582	
582	0	32672	
583	0	32768	
584	0	32892	
585	0	32876	
586	0	32764	
587	0	32764	
588	0	32788	
589	0	32824	
590	0	32836	
591	0	32820	
592	0	32748	
593	0	32608	
594	0	32496	
595	0	32432	
596	0	32452	
597	0	32540	
598	0	32612	
599	0	32628	
600	0	32612	
601	0	32652	
602	0	32704	
603	0	32732	
604	0	32716	
605	0	32704	
606	0	32720	
607	0	32802	
608	0	32880	
609	0	32892	
610	0	32884	
611	0	32884	
612	0	32856	
613	0	32808	
614	0	32792	
615	0	32824	
616	0	32908	
617	0	32972	
618	0	33076	
619	0	33146	
620	0	33220	
621	0	33348	
622	0	33532	
623	0	33604	
624	0	33592	
625	0	33552	
626	0	33562	
627	0	33594	
628	0	33592	
629	0	33600	
630	0	33468	
631	0	33208	
632	0	32936	
633	0	32788	
634	0	32688	
635	0	32628	
636	0	32644	
637	0	32764	
638	0	32876	
639	0	32848	
640	0	32724	
641	0	32624	
642	0	32574	
643	0	32692	
644	0	32932	
645	0	33132	
646	0	33268	
647	0	33336	
648	0	33384	
649	0	33420	
650	0	33464	
651	0	33432	
652	0	33304	
653	0	33144	
654	0	33056	
655	0	32994	
656	0	32884	
657	0	32760	
658	0	32704	
659	0	32728	
660	0	32800	
661	0	32944	
662	0	33032	
663	0	33086	
664	0	33216	
665	0	33394	
666	0	33520	
667	0	33588	
668	0	33596	
669	0	33584	
670	0	33524	
671	0	33424	
672	0	33362	
673	0	33240	
674	0	32970	
675	0	32672	
676	0	32466	
677	0	32404	
678	0	32440	
679	0	32512	
680	0	32682	
681	0	32944	
682	0	33168	
683	0	33212	
684	0	33082	
685	0	32904	
686	0	32818	
687	0	32672	
688	0	32424	
689	0	32140	
690	0	31952	
691	0	31932	
692	0	32208	
693	0	32636	
694	0	32972	
695	0	33244	
696	0	33444	
697	0	33608	
698	0	33688	
699	0	33672	
700	0	33540	
701	0	33444	
702	0	33304	
703	0	33088	
704	0	32832	
705	0	32640	
706	0	32552	
707	0	32484	
708	0	32428	
709	0	32352	
710	0	32344	
711	0	32476	
712	0	32620	
713	0	32756	
714	0	32920	
715	0	33064	
716	0	33128	
717	0	33100	
718	0	33044	
719	0	32908	
720	0	32704	
721	0	32608	
722	0	32564	
723	0	32556	
724	0	32596	
725	0	32672	
726	0	32744	
727	0	32848	
728	0	32944	
729	0	33032	
730	0	33100	
731	0	33026	
732	0	32944	
733	0	32916	
734	0	32928	
735	0	32984	
736	0	33074	
737	0	33176	
738	0	33236	
739	0	33202	
740	0	33288	
741	0	33524	
742	0	33792	
743	0	33964	
744	0	34124	
745	0	34288	
746	0	34400	
747	0	34472	
748	0	34506	
749	0	34504	
750	0	34568	
751	0	34656	
752	0	34764	
753	0	34840	
754	0	34842	
755	0	34736	
756	0	34596	
757	0	34476	
758	0	34364	
759	0	34268	
760	0	34276	
761	0	34536	
762	0	34976	
763	0	35426	
764	0	35804	
765	0	36064	
766	0	36292	
767	0	36426	
768	0	36400	
769	0	36266	
770	0	36192	
771	0	36248	
772	0	36436	
773	0	36564	
774	0	36564	
775	0	36564	
776	0	36696	
777	0	36868	
778	0	37000	
779	0	37020	
780	0	37032	
781	0	37112	
782	0	37208	
783	0	37280	
784	0	37192	
785	0	36916	
786	0	36540	
787	0	36186	
788	0	35992	
789	0	35964	
790	0	35960	
791	0	35888	
792	0	35772	
793	0	35664	
794	0	35572	
795	0	35500	
796	0	35392	
797	0	35276	
798	0	35176	
799	0	35068	
800	0	34912	
801	0	34716	
802	0	34488	
803	0	34244	
804	0	33972	
805	0	33664	
806	0	33392	
807	0	33276	
808	0	33152	
809	0	32928	
810	0	32656	
811	0	32472	
812	0	32364	
813	0	32360	
814	0	32384	
815	0	32414	
816	0	32376	
817	0	32212	
818	0	32036	
819	0	31892	
820	0	31760	
821	0	31716	
822	0	31768	
823	0	31792	
824	0	31784	
825	0	31716	
826	0	31768	
827	0	31850	
828	0	31880	
829	0	31744	
830	0	31484	
831	0	31136	
832	0	30904	
833	0	30972	
834	0	31168	
835	0	31416	
836	0	31608	
837	0	31712	
838	0	31812	
839	0	31900	
840	0	31840	
841	0	31744	
842	0	31764	
843	0	31740	
844	0	31782	
845	0	31844	
846	0	31720	
847	0	31448	
848	0	31224	
849	0	31152	
850	0	31208	
851	0	31220	
852	0	31200	
853	0	31104	
854	0	30836	
855	0	30640	
856	0	30578	
857	0	30540	
858	0	30486	
859	0	30504	
860	0	30556	
861	0	30456	
862	0	30300	
863	0	30188	
864	0	30144	
865	0	30152	
866	0	30300	
867	0	30624	
868	0	31124	
869	0	31892	
870	0	32880	
871	0	34176	
872	0	35736	
873	0	37360	
874	0	39296	
875	0	41712	
876	0	44568	
877	0	47604	
878	0	50968	
879	0	54848	
880	0	59168	
881	0	62352	
882	0	64048	
883	0	64916	
884	0	65336	
885	0	65492	
886	0	65532	
887	0	65480	
888	0	65400	
889	0	65312	
890	0	65204	
891	0	65088	
892	0	64952	
893	0	64832	
894	0	64712	
895	0	64580	
896	0	64456	
897	0	64328	
898	0	64212	
899	0	64096	
900	0	63992	
901	0	63848	
902	0	63736	
903	0	63604	
904	0	63492	
905	0	63364	
906	0	63258	
907	0	62344	
908	0	56584	
909	0	50868	
910	0	45360	
911	0	40632	
912	0	37028	
913	0	34416	
914	0	32682	
915	0	31656	
916	0	30872	
917	0	29886	
918	0	28782	
919	0	27832	
920	0	27076	
921	0	26404	
922	0	25832	
923	0	25384	
924	0	24988	
925	0	24640	
926	0	24256	
927	0	23944	
928	0	23680	
929	0	23440	
930	0	23256	
931	0	23120	
932	0	22944	
933	0	22690	
934	0	22420	
935	0	22162	
936	0	21936	
937	0	21758	
938	0	21696	
939	0	21696	
940	0	21724	
941	0	21776	
942	0	21826	
943	0	21888	
944	0	21844	
945	0	21644	
946	0	21444	
947	0	21332	
948	0	21308	
949	0	21312	
950	0	21372	
951	0	21448	
952	0	21580	
953	0	21770	
954	0	22004	
955	0	22304	
956	0	22584	
957	0	22804	
958	0	22876	
959	0	22892	
960	0	22920	
961	0	22912	
962	0	22844	
963	0	22674	
964	0	22370	
965	0	22120	
966	0	21962	
967	0	21884	
968	0	21848	
969	0	21760	
970	0	21688	
971	0	21772	
972	0	21986	
973	0	22232	
974	0	22412	
975	0	22466	
976	0	22576	
977	0	22776	
978	0	22980	
979	0	23256	
980	0	23588	
981	0	23988	
982	0	24372	
983	0	24588	
984	0	24634	
985	0	24692	
986	0	24702	
987	0	24740	
988	0	24852	
989	0	24928	
990	0	24920	
991	0	24876	
992	0	24896	
993	0	24936	
994	0	24986	
995	0	25024	
996	0	25072	
997	0	25164	
998	0	25364	
999	0	25576	
1000	0	25786	
1001	0	25956	
1002	0	26076	
1003	0	26104	
1004	0	26120	
1005	0	26136	
1006	0	26154	
1007	0	26092	
1008	0	25980	
1009	0	25924	
1010	0	25996	
1011	0	26200	
1012	0	26540	
1013	0	26880	
1014	0	27168	
1015	0	27440	
1016	0	27652	
1017	0	27800	
1018	0	27868	
1019	0	27824	
1020	0	27764	
1021	0	27724	
1022	0	27596	
1023	0	27512	
1024	0	27408	
1025	0	27168	
1026	0	27028	
1027	0	27038	
1028	0	27140	
1029	0	27272	
1030	0	27476	
1031	0	27804	
1032	0	28228	
1033	0	28708	
1034	0	29132	
1035	0	29416	
1036	0	29560	
1037	0	29720	
1038	0	29844	
1039	0	29928	
1040	0	29968	
1041	0	30028	
1042	0	30188	
1043	0	30408	
1044	0	30616	
1045	0	30736	
1046	0	30872	
1047	0	30986	
1048	0	31028	
1049	0	30976	
1050	0	30800	
1051	0	30560	
1052	0	30326	
1053	0	30092	
1054	0	29892	
1055	0	29856	
1056	0	30008	
1057	0	30352	
1058	0	30712	
1059	0	31080	
1060	0	31400	
1061	0	31632	
1062	0	31792	
1063	0	31872	
1064	0	32016	
1065	0	32092	
1066	0	32100	
1067	0	32024	
1068	0	31960	
1069	0	31976	
1070	0	32078	
1071	0	32152	
1072	0	32276	
1073	0	32380	
1074	0	32440	
1075	0	32472	
1076	0	32484	
1077	0	32516	
1078	0	32572	
1079	0	32708	
1080	0	32792	
1081	0	32880	
1082	0	32894	
1083	0	32796	
1084	0	32796	
1085	0	32884	
1086	0	33040	
1087	0	33280	
1088	0	33424	
1089	0	33512	
1090	0	33592	
1091	0	33660	
1092	0	33688	
1093	0	33596	
1094	0	33448	
1095	0	33376	
1096	0	33396	
1097	0	33408	
1098	0	33424	
1099	0	33560	
1100	0	33676	
1101	0	33728	
1102	0	33796	
1103	0	33912	
1104	0	33948	
1105	0	33832	
1106	0	33688	
1107	0	33592	
1108	0	33496	
1109	0	33436	
1110	0	33348	
1111	0	33332	
1112	0	33352	
1113	0	33404	
1114	0	33480	
1115	0	33612	
1116	0	33704	
1117	0	33760	
1118	0	33688	
1119	0	33592	
1120	0	33644	
1121	0	33740	
1122	0	33776	
1123	0	33792	
1124	0	33736	
1125	0	33562	
1126	0	33384	
1127	0	33130	
1128	0	32880	
1129	0	32716	
1130	0	32752	
1131	0	32880	
1132	0	32972	
1133	0	32980	
1134	0	33024	
1135	0	33132	
1136	0	33248	
1137	0	33296	
1138	0	33344	
1139	0	33358	
1140	0	33304	
1141	0	33114	
1142	0	32844	
1143	0	32608	
1144	0	32440	
1145	0	32232	
1146	0	32008	
1147	0	31796	
1148	0	31632	
1149	0	31588	
1150	0	31620	
1151	0	31656	
1152	0	31576	
1153	0	31566	
1154	0	31648	
1155	0	31541	
1156	0	31308	
1157	0	31060	
1158	0	30888	
1159	0	30808	
1160	0	30864	
1161	0	31016	
1162	0	31224	
1163	0	31564	
1164	0	31856	
1165	0	31944	
1166	0	31796	
1167	0	31490	
1168	0	31092	
1169	0	30800	
1170	0	30632	
1171	0	30580	
1172	0	30608	
1173	0	30688	
1174	0	30820	
1175	0	30928	
1176	0	30936	
1177	0	30796	
1178	0	30616	
1179	0	30604	
1180	0	30732	
1181	0	30852	
1182	0	30928	
1183	0	31112	
1184	0	31344	
1185	0	31596	
1186	0	31792	
1187	0	31928	
1188	0	31888	
1189	0	31674	
1190	0	31320	
1191	0	31088	
1192	0	31144	
1193	0	31408	
1194	0	31728	
1195	0	31940	
1196	0	32036	
1197	0	32048	
1198	0	32008	
1199	0	31836	
1200	0	31584	
1201	0	31360	
1202	0	31260	
1203	0	31180	
1204	0	31052	
1205	0	30896	
1206	0	30876	
1207	0	31044	
1208	0	31244	
1209	0	31344	
1210	0	31448	
1211	0	31548	
1212	0	31736	
1213	0	31914	
1214	0	32044	
1215	0	32090	
1216	0	32156	
1217	0	32320	
1218	0	32512	
1219	0	32738	
1220	0	32930	
1221	0	33072	
1222	0	33232	
1223	0	33248	
1224	0	33156	
1225	0	33080	
1226	0	33012	
1227	0	32820	
1228	0	32472	
1229	0	32040	
1230	0	31692	
1231	0	31604	
1232	0	31592	
1233	0	31604	
1234	0	31572	
1235	0	31624	
1236	0	31844	
1237	0	32136	
1238	0	32352	
1239	0	32516	
1240	0	32660	
1241	0	32812	
1242	0	32800	
1243	0	32768	
1244	0	32752	
1245	0	32780	
1246	0	32856	
1247	0	33032	
1248	0	33264	
1249	0	33460	
1250	0	33580	
1251	0	33700	
1252	0	33728	
1253	0	33600	
1254	0	33404	
1255	0	33228	
1256	0	33112	
1257	0	32992	
1258	0	32920	
1259	0	32872	
1260	0	32908	
1261	0	32956	
1262	0	32976	
1263	0	33008	
1264	0	33152	
1265	0	33400	
1266	0	33696	
1267	0	33864	
1268	0	33768	
1269	0	33548	
1270	0	33270	
1271	0	33056	
1272	0	32856	
1273	0	32612	
1274	0	32416	
1275	0	32268	
1276	0	32256	
1277	0	32384	
1278	0	32636	
1279	0	32888	
1280	0	33000	
1281	0	33100	
1282	0	33178	
1283	0	33220	
1284	0	33304	
1285	0	33420	
1286	0	33316	
1287	0	33208	
1288	0	33288	
1289	0	33408	
1290	0	33576	
1291	0	33812	
1292	0	33988	
1293	0	33968	
1294	0	33792	
1295	0	33540	
1296	0	33236	
1297	0	32976	
1298	0	32836	
1299	0	32704	
1300	0	32600	
1301	0	32448	
1302	0	32376	
1303	0	32416	
1304	0	32488	
1305	0	32572	
1306	0	32588	
1307	0	32576	
1308	0	32544	
1309	0	32612	
1310	0	32656	
1311	0	32672	
1312	0	32736	
1313	0	32768	
1314	0	32776	
1315	0	32720	
1316	0	32632	
1317	0	32560	
1318	0	32572	
1319	0	32712	
1320	0	32908	
1321	0	33060	
1322	0	33148	
1323	0	33228	
1324	0	33224	
1325	0	33200	
1326	0	33208	
1327	0	33284	
1328	0	33416	
1329	0	33522	
1330	0	33536	
1331	0	33440	
1332	0	33472	
1333	0	33556	
1334	0	33492	
1335	0	33296	
1336	0	33044	
1337	0	32864	
1338	0	32908	
1339	0	32992	
1340	0	33026	
1341	0	33092	
1342	0	33136	
1343	0	33060	
1344	0	32892	
1345	0	32800	
1346	0	32830	
1347	0	32844	
1348	0	32880	
1349	0	33012	
1350	0	33152	
1351	0	33252	
1352	0	33304	
1353	0	33392	
1354	0	33460	
1355	0	33424	
1356	0	33276	
1357	0	33196	
1358	0	33120	
1359	0	32916	
1360	0	32728	
1361	0	32548	
1362	0	32416	
1363	0	32362	
1364	0	32448	
1365	0	32740	
1366	0	33024	
1367	0	33184	
1368	0	33248	
1369	0	33252	
1370	0	33272	
1371	0	33344	
1372	0	33464	
1373	0	33564	
1374	0	33708	
1375	0	33924	
1376	0	34176	
1377	0	34436	
1378	0	34552	
1379	0	34572	
1380	0	34484	
1381	0	34400	
1382	0	34340	
1383	0	34240	
1384	0	34186	
1385	0	34164	
1386	0	34112	
1387	0	34040	
1388	0	34144	
1389	0	34352	
1390	0	34508	
1391	0	34628	
1392	0	34776	
1393	0	35108	
1394	0	35544	
1395	0	36004	
1396	0	36392	
1397	0	36620	
1398	0	36754	
1399	0	36872	
1400	0	36880	
1401	0	36872	
1402	0	36892	
1403	0	36940	
1404	0	37008	
1405	0	37056	
1406	0	37196	
1407	0	37428	
1408	0	37620	
1409	0	37804	
1410	0	37912	
1411	0	37788	
1412	0	37528	
1413	0	37240	
1414	0	36936	
1415	0	36688	
1416	0	36624	
1417	0	36724	
1418	0	36812	
1419	0	36920	
1420	0	37168	
1421	0	37420	
1422	0	37524	
1423	0	37428	
1424	0	37096	
1425	0	36680	
1426	0	36344	
1427	0	35968	
1428	0	35596	
1429	0	35332	
1430	0	35020	
1431	0	34590	
1432	0	34152	
1433	0	33798	
1434	0	33320	
1435	0	32776	
1436	0	32204	
1437	0	31768	
1438	0	31584	
1439	0	31592	
1440	0	31748	
1441	0	31912	
1442	0	32124	
1443	0	32324	
1444	0	32540	
1445	0	32724	
1446	0	32768	
1447	0	32688	
1448	0	32544	
1449	0	32332	
1450	0	32160	
1451	0	32080	
1452	0	32068	
1453	0	32048	
1454	0	32124	
1455	0	32216	
1456	0	32156	
1457	0	32016	
1458	0	31864	
1459	0	31844	
1460	0	31932	
1461	0	31924	
1462	0	32016	
1463	0	32288	
1464	0	32572	
1465	0	32804	
1466	0	32968	
1467	0	33104	
1468	0	33276	
1469	0	33396	
1470	0	33438	
1471	0	33464	
1472	0	33504	
1473	0	33448	
1474	0	33312	
1475	0	33140	
1476	0	33016	
1477	0	32852	
1478	0	32674	
1479	0	32468	
1480	0	32098	
1481	0	31556	
1482	0	31188	
1483	0	30932	
1484	0	30640	
1485	0	30244	
1486	0	29828	
1487	0	29540	
1488	0	29328	
1489	0	29136	
1490	0	29000	
1491	0	28960	
1492	0	29000	
1493	0	29024	
1494	0	29144	
1495	0	29396	
1496	0	29792	
1497	0	30312	
1498	0	31016	
1499	0	31932	
1500	0	33132	
1501	0	34768	
1502	0	36600	
1503	0	38616	
1504	0	41024	
1505	0	43768	
1506	0	46756	
1507	0	49984	
1508	0	53728	
1509	0	57872	
1510	0	61532	
1511	0	63544	
1512	0	64600	
1513	0	65128	
1514	0	65344	
1515	0	65412	
1516	0	65384	
1517	0	65312	
1518	0	65216	
1519	0	65116	
1520	0	64992	
1521	0	64884	
1522	0	64748	
1523	0	64640	
1524	0	64532	
1525	0	64392	
1526	0	64276	
1527	0	64144	
1528	0	64024	
1529	0	63884	
1530	0	63776	
1531	0	63656	
1532	0	63528	
1533	0	63440	
1534	0	63296	
1535	0	63160	
1536	0	63060	
1537	0	59952	
1538	0	54176	
1539	0	48512	
1540	0	43444	
1541	0	39408	
1542	0	36360	
1543	0	34128	
1544	0	32560	
1545	0	31484	
1546	0	30560	
1547	0	29608	
1548	0	28648	
1549	0	27866	
1550	0	27196	
1551	0	26592	
1552	0	26040	
1553	0	25478	
1554	0	24852	
1555	0	24180	
1556	0	23580	
1557	0	23180	
1558	0	22988	
1559	0	22892	
1560	0	22900	
1561	0	22916	
1562	0	22864	
1563	0	22780	
1564	0	22684	
1565	0	22600	
1566	0	22504	
1567	0	22392	
1568	0	22356	
1569	0	22310	
1570	0	22200	
1571	0	22084	
1572	0	22040	
1573	0	22064	
1574	0	22112	
1575	0	22228	
1576	0	22308	
1577	0	22256	
1578	0	22160	
1579	0	21996	
1580	0	21784	
1581	0	21586	
1582	0	21412	
1583	0	21308	
1584	0	21248	
1585	0	21252	
1586	0	21372	
1587	0	21458	
1588	0	21496	
1589	0	21560	
1590	0	21665	
1591	0	21784	
1592	0	21952	
1593	0	22184	
1594	0	22346	
1595	0	22416	
1596	0	22416	
1597	0	22416	
1598	0	22532	
1599	0	22688	
1600	0	22816	
1601	0	22984	
1602	0	23204	
1603	0	23352	
1604	0	23364	
1605	0	23288	
1606	0	23218	
1607	0	23268	
1608	0	23476	
1609	0	23728	
1610	0	24006	
1611	0	24292	
1612	0	24584	
1613	0	24840	
1614	0	25098	
1615	0	25304	
1616	0	25432	
1617	0	25524	
1618	0	25568	
1619	0	25628	
1620	0	25648	
1621	0	25752	
1622	0	25832	
1623	0	25826	
1624	0	25712	
1625	0	25624	
1626	0	25520	
1627	0	25260	
1628	0	24956	
1629	0	24716	
1630	0	24628	
1631	0	24762	
1632	0	25080	
1633	0	25484	
1634	0	25912	
1635	0	26260	
1636	0	26468	
1637	0	26540	
1638	0	26560	
1639	0	26646	
1640	0	26764	
1641	0	26940	
1642	0	27144	
1643	0	27384	
1644	0	27620	
1645	0	27720	
1646	0	27668	
1647	0	27668	
1648	0	27796	
1649	0	27992	
1650	0	28144	
1651	0	28276	
1652	0	28304	
1653	0	28412	
1654	0	28600	
1655	0	28738	
1656	0	28836	
1657	0	28824	
1658	0	28720	
1659	0	28576	
1660	0	28432	
1661	0	28280	
1662	0	28164	
1663	0	28176	
1664	0	28316	
1665	0	28480	
1666	0	28660	
1667	0	28808	
1668	0	28820	
1669	0	28804	
1670	0	28892	
1671	0	29004	
1672	0	29112	
1673	0	29260	
1674	0	29496	
1675	0	29804	
1676	0	30076	
1677	0	30314	
1678	0	30584	
1679	0	30840	
1680	0	31056	
1681	0	31232	
1682	0	31346	
1683	0	31384	
1684	0	31364	
1685	0	31400	
1686	0	31464	
1687	0	31512	
1688	0	31576	
1689	0	31668	
1690	0	31792	
1691	0	31856	
1692	0	31808	
1693	0	31796	
1694	0	31868	
1695	0	31952	
1696	0	32060	
1697	0	32152	
1698	0	32272	
1699	0	32384	
1700	0	32464	
1701	0	32600	
1702	0	32732	
1703	0	32760	
1704	0	32760	
1705	0	32808	
1706	0	32852	
1707	0	32980	
1708	0	33220	
1709	0	33496	
1710	0	33672	
1711	0	33784	
1712	0	33840	
1713	0	33832	
1714	0	33784	
1715	0	33792	
1716	0	33712	
1717	0	33580	
1718	0	33416	
1719	0	33332	
1720	0	33420	
1721	0	33660	
1722	0	33920	
1723	0	34136	
1724	0	34224	
1725	0	34160	
1726	0	34056	
1727	0	34024	
1728	0	33948	
1729	0	33780	
1730	0	33696	
1731	0	33648	
1732	0	33612	
1733	0	33612	
1734	0	33616	
1735	0	33688	
1736	0	33836	
1737	0	33978	
1738	0	34020	
1739	0	33872	
1740	0	33508	
1741	0	33176	
1742	0	33072	
1743	0	33240	
1744	0	33496	
1745	0	33648	
1746	0	33740	
1747	0	33848	
1748	0	33940	
1749	0	34032	
1750	0	34068	
1751	0	34128	
1752	0	34184	
1753	0	34176	
1754	0	33936	
1755	0	33640	
1756	0	33456	
1757	0	33380	
1758	0	33370	
1759	0	33380	
1760	0	33388	
1761	0	33460	
1762	0	33548	
1763	0	33488	
1764	0	33356	
1765	0	33196	
1766	0	33024	
1767	0	32880	
1768	0	32704	
1769	0	32488	
1770	0	32368	
1771	0	32388	
1772	0	32480	
1773	0	32544	
1774	0	32460	
1775	0	32344	
1776	0	32188	
1777	0	32044	
1778	0	31922	
1779	0	31820	
1780	0	31604	
1781	0	31476	
1782	0	31368	
1783	0	31258	
1784	0	31148	
1785	0	31040	
1786	0	30944	
1787	0	30920	
1788	0	30900	
1789	0	30908	
1790	0	30864	
1791	0	30772	
1792	0	30816	
1793	0	30912	
1794	0	30992	
1795	0	31088	
1796	0	31148	
1797	0	31200	
1798	0	31216	
1799	0	31196	
1800	0	31176	
1801	0	31112	
1802	0	31066	
1803	0	31020	
1804	0	30912	
1805	0	30860	
1806	0	30960	
1807	0	31080	
1808	0	31116	
1809	0	31148	
1810	0	31216	
1811	0	31232	
1812	0	31190	
1813	0	31170	
1814	0	31124	
1815	0	31066	
1816	0	31076	
1817	0	31052	
1818	0	31048	
1819	0	31068	
1820	0	31096	
1821	0	31088	
1822	0	31146	
1823	0	31268	
1824	0	31428	
1825	0	31636	
1826	0	31844	
1827	0	32002	
1828	0	32096	
1829	0	32124	
1830	0	32156	
1831	0	32164	
1832	0	32244	
1833	0	32420	
1834	0	32568	
1835	0	32600	
1836	0	32584	
1837	0	32512	
1838	0	32368	
1839	0	32288	
1840	0	32322	
1841	0	32452	
1842	0	32644	
1843	0	32768	
1844	0	32776	
1845	0	32620	
1846	0	32320	
1847	0	31960	
1848	0	31656	
1849	0	31452	
1850	0	31380	
1851	0	31468	
1852	0	31656	
1853	0	31888	
1854	0	32120	
1855	0	32264	
1856	0	32344	
1857	0	32340	
1858	0	32300	
1859	0	32240	
1860	0	32252	
1861	0	32368	
1862	0	32420	
1863	0	32352	
1864	0	32272	
1865	0	32196	
1866	0	32164	
1867	0	32180	
1868	0	32216	
1869	0	32344	
1870	0	32448	
1871	0	32488	
1872	0	32508	
1873	0	32548	
1874	0	32708	
1875	0	32800	
1876	0	32784	
1877	0	32752	
1878	0	32704	
1879	0	32668	
1880	0	32606	
1881	0	32512	
1882	0	32460	
1883	0	32504	
1884	0	32612	
1885	0	32724	
1886	0	32888	
1887	0	33064	
1888	0	33230	
1889	0	33400	
1890	0	33500	
1891	0	33576	
1892	0	33600	
1893	0	33640	
1894	0	33656	
1895	0	33660	
1896	0	33604	
1897	0	33540	
1898	0	33512	
1899	0	33484	
1900	0	33514	
1901	0	33568	
1902	0	33608	
1903	0	33600	
1904	0	33748	
1905	0	34060	
1906	0	34313	
1907	0	34424	
1908	0	34400	
1909	0	34232	
1910	0	33992	
1911	0	33816	
1912	0	33774	
1913	0	33772	
1914	0	33694	
1915	0	33536	
1916	0	33332	
1917	0	33168	
1918	0	33028	
1919	0	32764	
1920	0	32464	
1921	0	32248	
1922	0	32128	
1923	0	32132	
1924	0	32212	
1925	0	32314	
1926	0	32412	
1927	0	32492	
1928	0	32572	
1929	0	32668	
1930	0	32728	
1931	0	32724	
1932	0	32660	
1933	0	32576	
1934	0	32564	
1935	0	32560	
1936	0	32532	
1937	0	32548	
1938	0	32552	
1939	0	32620	
1940	0	32732	
1941	0	32864	
1942	0	33040	
1943	0	33176	
1944	0	33208	
1945	0	33212	
1946	0	33264	
1947	0	33296	
1948	0	33256	
1949	0	33200	
1950	0	33180	
1951	0	33152	
1952	0	33164	
1953	0	33124	
1954	0	33060	
1955	0	33020	
1956	0	32986	
1957	0	33056	
1958	0	33164	
1959	0	33196	
1960	0	33136	
1961	0	33040	
1962	0	33052	
1963	0	33104	
1964	0	33116	
1965	0	33140	
1966	0	33128	
1967	0	33096	
1968	0	32992	
1969	0	32832	
1970	0	32744	
1971	0	32766	
1972	0	32760	
1973	0	32716	
1974	0	32652	
1975	0	32608	
1976	0	32640	
1977	0	32752	
1978	0	32954	
1979	0	33168	
1980	0	33352	
1981	0	33520	
1982	0	33676	
1983	0	33740	
1984	0	33688	
1985	0	33596	
1986	0	33496	
1987	0	33364	
1988	0	33328	
1989	0	33372	
1990	0	33452	
1991	0	33508	
1992	0	33560	
1993	0	33628	
1994	0	33624	
1995	0	33540	
1996	0	33304	
1997	0	32956	
1998	0	32800	
1999	0	32880	
2000	0	33084	
2001	0	33208	
2002	0	33252	
2003	0	33344	
2004	0	33516	
2005	0	33736	
2006	0	33968	
2007	0	34128	
2008	0	34220	
2009	0	34236	
2010	0	34260	
2011	0	34268	
2012	0	34204	
2013	0	34156	
2014	0	34148	
2015	0	34200	
2016	0	34344	
2017	0	34560	
2018	0	34678	
2019	0	34684	
2020	0	34652	
2021	0	34640	
2022	0	34752	
2023	0	35016	
2024	0	35416	
2025	0	35800	
2026	0	36124	
2027	0	36476	
2028	0	36760	
2029	0	36920	
2030	0	36992	
2031	0	37032	
2032	0	36956	
2033	0	36944	
2034	0	36960	
2035	0	37038	
2036	0	37064	
2037	0	37084	
2038	0	37160	
2039	0	37280	
2040	0	37352	
2041	0	37300	
2042	0	37108	
2043	0	36808	
2044	0	36504	
2045	0	36232	
2046	0	35956	
2047	0	35748	
2048	0	35716	
2049	0	35832	
2050	0	35932	
2051	0	36000	
2052	0	36042	
2053	0	36004	
2054	0	35900	
2055	0	35776	
2056	0	35704	
2057	0	35608	
2058	0	35460	
2059	0	35256	
2060	0	35048	
2061	0	34784	
2062	0	34528	
2063	0	34368	
2064	0	34192	
2065	0	33904	
2066	0	33608	
2067	0	33332	
2068	0	33112	
2069	0	32940	
2070	0	32784	
2071	0	32624	
2072	0	32516	
2073	0	32376	
2074	0	32198	
2075	0	32048	
2076	0	31928	
2077	0	31876	
2078	0	31840	
2079	0	31816	
2080	0	31816	
2081	0	31802	
2082	0	31792	
2083	0	31796	
2084	0	31772	
2085	0	31824	
2086	0	31938	
2087	0	31984	
2088	0	31904	
2089	0	31816	
2090	0	31772	
2091	0	31732	
2092	0	31712	
2093	0	31696	
2094	0	31664	
2095	0	31656	
2096	0	31688	
2097	0	31712	
2098	0	31772	
2099	0	31788	
2100	0	31792	
2101	0	31702	
2102	0	31648	
2103	0	31664	
2104	0	31744	
2105	0	31808	
2106	0	31816	
2107	0	31860	
2108	0	31884	
2109	0	31880	
2110	0	31908	
2111	0	31908	
2112	0	31860	
2113	0	31760	
2114	0	31656	
2115	0	31636	
2116	0	31660	
2117	0	31656	
2118	0	31568	
2119	0	31508	
2120	0	31376	
2121	0	31112	
2122	0	30746	
2123	0	30416	
2124	0	30184	
2125	0	30128	
2126	0	30218	
2127	0	30480	
2128	0	30912	
2129	0	31588	
2130	0	32416	
2131	0	33476	
2132	0	34840	
2133	0	36404	
2134	0	38208	
2135	0	40488	
2136	0	43272	
2137	0	46352	
2138	0	49656	
2139	0	53288	
2140	0	57192	
2141	0	60912	
2142	0	63080	
2143	0	64204	
2144	0	64768	
2145	0	65024	
2146	0	65104	
2147	0	65088	
2148	0	65016	
2149	0	64936	
2150	0	64816	
2151	0	64708	
2152	0	64592	
2153	0	64480	
2154	0	64356	
2155	0	64240	
2156	0	64104	
2157	0	64004	
2158	0	63872	
2159	0	63736	
2160	0	63616	
2161	0	63504	
2162	0	63400	
2163	0	63268	
2164	0	63160	
2165	0	63032	
2166	0	62912	
2167	0	62808	
2168	0	60728	
2169	0	54832	
2170	0	49104	
2171	0	44000	
2172	0	39944	
2173	0	36900	
2174	0	34528	
2175	0	32616	
2176	0	31056	
2177	0	29740	
2178	0	28716	
2179	0	27992	
2180	0	27496	
2181	0	27096	
2182	0	26688	
2183	0	26280	
2184	0	25864	
2185	0	25460	
2186	0	25052	
2187	0	24672	
2188	0	24352	
2189	0	24104	
2190	0	23840	
2191	0	23524	
2192	0	23188	
2193	0	22880	
2194	0	22644	
2195	0	22452	
2196	0	22300	
2197	0	22174	
2198	0	22048	
2199	0	21948	
2200	0	21856	
2201	0	21780	
2202	0	21718	
2203	0	21690	
2204	0	21652	
2205	0	21612	
2206	0	21584	
2207	0	21548	
2208	0	21548	
2209	0	21572	
2210	0	21624	
2211	0	21646	
2212	0	21648	
2213	0	21648	
2214	0	21680	
2215	0	21812	
2216	0	21940	
2217	0	22056	
2218	0	22148	
2219	0	22232	
2220	0	22292	
2221	0	22372	
2222	0	22372	
2223	0	22400	
2224	0	22496	
2225	0	22608	
2226	0	22680	
2227	0	22804	
2228	0	22926	
2229	0	23000	
2230	0	23032	
2231	0	23036	
2232	0	23080	
2233	0	23160	
2234	0	23260	
2235	0	23352	
2236	0	23484	
2237	0	23624	
2238	0	23722	
2239	0	23776	
2240	0	23828	
2241	0	23920	
2242	0	24017	
2243	0	24112	
2244	0	24180	
2245	0	24244	
2246	0	24278	
2247	0	24272	
2248	0	24322	
2249	0	24488	
2250	0	24680	
2251	0	24820	
2252	0	24930	
2253	0	25002	
2254	0	25072	
2255	0	25180	
2256	0	25304	
2257	0	25408	
2258	0	25508	
2259	0	25612	
2260	0	25736	
2261	0	25872	
2262	0	26012	
2263	0	26084	
2264	0	26128	
2265	0	26172	
2266	0	26248	
2267	0	26324	
2268	0	26386	
2269	0	26400	
2270	0	26440	
2271	0	26532	
2272	0	26616	
2273	0	26674	
2274	0	26792	
2275	0	26908	
2276	0	26956	
2277	0	26976	
2278	0	27008	
2279	0	27076	
2280	0	27160	
2281	0	27272	
2282	0	27352	
2283	0	27482	
2284	0	27608	
2285	0	27704	
2286	0	27772	
2287	0	27852	
2288	0	27928	
2289	0	28004	
2290	0	28064	
2291	0	28152	
2292	0	28260	
2293	0	28352	
2294	0	28420	
2295	0	28488	
2296	0	28556	
2297	0	28624	
2298	0	28752	
2299	0	28892	
2300	0	29022	
2301	0	29164	
2302	0	29320	
2303	0	29476	
2304	0	29584	
2305	0	29700	
2306	0	29816	
2307	0	29908	
2308	0	29992	
2309	0	30048	
2310	0	30112	
2311	0	30176	
2312	0	30276	
2313	0	30380	
2314	0	30468	
2315	0	30512	
2316	0	30602	
2317	0	30652	
2318	0	30736	
2319	0	30842	
2320	0	30944	
2321	0	31068	
2322	0	31196	
2323	0	31312	
2324	0	31460	
2325	0	31580	
2326	0	31728	
2327	0	31868	
2328	0	31970	
2329	0	32064	
2330	0	32114	
2331	0	32196	
2332	0	32320	
2333	0	32424	
2334	0	32514	
2335	0	32570	
2336	0	32594	
2337	0	32644	
2338	0	32728	
2339	0	32808	
2340	0	32824	
2341	0	32812	
2342	0	32808	
2343	0	32808	
2344	0	32884	
2345	0	33036	
2346	0	33152	
2347	0	33216	
2348	0	33232	
2349	0	33212	
2350	0	33248	
2351	0	33304	
2352	0	33352	
2353	0	33364	
2354	0	33368	
2355	0	33348	
2356	0	33340	
2357	0	33344	
2358	0	33340	
2359	0	33334	
2360	0	33316	
2361	0	33304	
2362	0	33288	
2363	0	33288	
2364	0	33292	
2365	0	33296	
2366	0	33316	
2367	0	33364	
2368	0	33396	
2369	0	33440	
2370	0	33482	
2371	0	33560	
2372	0	33584	
2373	0	33632	
2374	0	33684	
2375	0	33720	
2376	0	33780	
2377	0	33868	
2378	0	33920	
2379	0	33920	
2380	0	33892	
2381	0	33848	
2382	0	33818	
2383	0	33764	
2384	0	33692	
2385	0	33616	
2386	0	33578	
2387	0	33524	
2388	0	33472	
2389	0	33396	
2390	0	33314	
2391	0	33232	
2392	0	33154	
2393	0	33060	
2394	0	32960	
2395	0	32872	
2396	0	32792	
2397	0	32736	
2398	0	32684	
2399	0	32612	
2400	0	32524	
2401	0	32444	
2402	0	32388	
2403	0	32352	
2404	0	32328	
2405	0	32352	
2406	0	32384	
2407	0	32364	
2408	0	32332	
2409	0	32264	
2410	0	32124	
2411	0	31948	
2412	0	31810	
2413	0	31688	
2414	0	31620	
2415	0	31580	
2416	0	31516	
2417	0	31476	
2418	0	31448	
2419	0	31444	
2420	0	31464	
2421	0	31488	
2422	0	31488	
2423	0	31444	
2424	0	31402	
2425	0	31376	
2426	0	31400	
2427	0	31432	
2428	0	31444	
2429	0	31440	
2430	0	31392	
2431	0	31394	
2432	0	31376	
2433	0	31324	
2434	0	31290	
2435	0	31216	
2436	0	31176	
2437	0	31176	
2438	0	31212	
2439	0	31272	
2440	0	31288	
2441	0	31316	
2442	0	31312	
2443	0	31288	
2444	0	31266	
2445	0	31224	
2446	0	31208	
2447	0	31236	
2448	0	31292	
2449	0	31408	
2450	0	31476	
2451	0	31496	
2452	0	31572	
2453	0	31596	
2454	0	31564	
2455	0	31522	
2456	0	31552	
2457	0	31616	
2458	0	31650	
2459	0	31636	
2460	0	31568	
2461	0	31504	
2462	0	31434	
2463	0	31416	
2464	0	31448	
2465	0	31504	
2466	0	31540	
2467	0	31612	
2468	0	31682	
2469	0	31768	
2470	0	31868	
2471	0	31980	
2472	0	32116	
2473	0	32188	
2474	0	32208	
2475	0	32192	
2476	0	32144	
2477	0	32080	
2478	0	32010	
2479	0	31932	
2480	0	31864	
2481	0	31856	
2482	0	31904	
2483	0	31896	
2484	0	31932	
2485	0	32028	
2486	0	32168	
2487	0	32328	
2488	0	32480	
2489	0	32628	
2490	0	32708	
2491	0	32740	
2492	0	32704	
2493	0	32700	
2494	0	32728	
2495	0	32752	
2496	0	32812	
2497	0	32856	
2498	0	32962	
2499	0	33080	
2500	0	33196	
2501	0	33312	
2502	0	33440	
2503	0	33520	
2504	0	33540	
2505	0	33544	
2506	0	33568	
2507	0	33614	
2508	0	33664	
2509	0	33680	
2510	0	33648	
2511	0	33592	
2512	0	33480	
2513	0	33360	
2514	0	33264	
2515	0	33228	
2516	0	33216	
2517	0	33256	
2518	0	33304	
2519	0	33256	
2520	0	33200	
2521	0	33168	
2522	0	33152	
2523	0	33196	
2524	0	33156	
2525	0	33140	
2526	0	33096	
2527	0	33032	
2528	0	33012	
2529	0	33004	
2530	0	32962	
2531	0	32888	
2532	0	32872	
2533	0	32896	
2534	0	32936	
2535	0	32944	
2536	0	32924	
2537	0	32904	
2538	0	32960	
2539	0	32984	
2540	0	32968	
2541	0	32916	
2542	0	32824	
2543	0	32760	
2544	0	32696	
2545	0	32642	
2546	0	32618	
2547	0	32620	
2548	0	32612	
2549	0	32592	
2550	0	32616	
2551	0	32620	
2552	0	32632	
2553	0	32652	
2554	0	32668	
2555	0	32728	
2556	0	32804	
2557	0	32858	
2558	0	32828	
2559	0	32776	
2560	0	32736	
2561	0	32692	
2562	0	32656	
2563	0	32648	
2564	0	32648	
2565	0	32680	
2566	0	32692	
2567	0	32664	
2568	0	32640	
2569	0	32696	
2570	0	32680	
2571	0	32556	
2572	0	32416	
2573	0	32348	
2574	0	32410	
2575	0	32504	
2576	0	32652	
2577	0	32820	
2578	0	32952	
2579	0	33114	
2580	0	33388	
2581	0	33676	
2582	0	33912	
2583	0	34084	
2584	0	34188	
2585	0	34248	
2586	0	34300	
2587	0	34388	
2588	0	34480	
2589	0	34528	
2590	0	34488	
2591	0	34356	
2592	0	34200	
2593	0	34048	
2594	0	33940	
2595	0	33840	
2596	0	33744	
2597	0	33632	
2598	0	33496	
2599	0	33340	
2600	0	33224	
2601	0	33156	
2602	0	33114	
2603	0	33060	
2604	0	32968	
2605	0	32808	
2606	0	32680	
2607	0	32580	
2608	0	32540	
2609	0	32512	
2610	0	32504	
2611	0	32536	
2612	0	32588	
2613	0	32668	
2614	0	32752	
2615	0	32874	
2616	0	32980	
2617	0	33014	
2618	0	32992	
2619	0	32924	
2620	0	32864	
2621	0	32812	
2622	0	32760	
2623	0	32656	
2624	0	32548	
2625	0	32508	
2626	0	32476	
2627	0	32426	
2628	0	32416	
2629	0	32380	
2630	0	32332	
2631	0	32288	
2632	0	32312	
2633	0	32360	
2634	0	32416	
2635	0	32448	
2636	0	32472	
2637	0	32484	
2638	0	32480	
2639	0	32528	
2640	0	32548	
2641	0	32588	
2642	0	32588	
2643	0	32628	
2644	0	32748	
2645	0	32896	
2646	0	33080	
2647	0	33324	
2648	0	33576	
2649	0	33840	
2650	0	34088	
2651	0	34320	
2652	0	34568	
2653	0	34800	
2654	0	35012	
2655	0	35232	
2656	0	35380	
2657	0	35432	
2658	0	35452	
2659	0	35452	
2660	0	35400	
2661	0	35332	
2662	0	35328	
2663	0	35338	
2664	0	35412	
2665	0	35468	
2666	0	35464	
2667	0	35556	
2668	0	35760	
2669	0	35968	
2670	0	36244	
2671	0	36488	
2672	0	36720	
2673	0	36924	
2674	0	37044	
2675	0	37056	
2676	0	36904	
2677	0	36676	
2678	0	36540	
2679	0	36532	
2680	0	36520	
2681	0	36516	
2682	0	36532	
2683	0	36616	
2684	0	36716	
2685	0	36836	
2686	0	36956	
2687	0	36996	
2688	0	36920	
2689	0	36704	
2690	0	36514	
2691	0	36364	
2692	0	36200	
2693	0	36076	
2694	0	36016	
2695	0	36008	
2696	0	36032	
2697	0	36056	
2698	0	36032	
2699	0	35924	
2700	0	35744	
2701	0	35516	
2702	0	35252	
2703	0	35032	
2704	0	34824	
2705	0	34608	
2706	0	34438	
2707	0	34228	
2708	0	34008	
2709	0	33776	
2710	0	33484	
2711	0	33216	
2712	0	32928	
2713	0	32656	
2714	0	32464	
2715	0	32308	
2716	0	32180	
2717	0	32072	
2718	0	31992	
2719	0	31904	
2720	0	31774	
2721	0	31688	
2722	0	31600	
2723	0	31520	
2724	0	31456	
2725	0	31408	
2726	0	31381	
2727	0	31338	
2728	0	31320	
2729	0	31300	
2730	0	31328	
2731	0	31340	
2732	0	31386	
2733	0	31428	
2734	0	31468	
2735	0	31492	
2736	0	31528	
2737	0	31540	
2738	0	31536	
2739	0	31564	
2740	0	31588	
2741	0	31596	
2742	0	31596	
2743	0	31582	
2744	0	31564	
2745	0	31560	
2746	0	31592	
2747	0	31608	
2748	0	31624	
2749	0	31632	
2750	0	31656	
2751	0	31672	
2752	0	31648	
2753	0	31600	
2754	0	31520	
2755	0	31468	
2756	0	31460	
2757	0	31432	
2758	0	31356	
2759	0	31268	
2760	0	31168	
2761	0	31068	
2762	0	30948	
2763	0	30828	
2764	0	30680	
2765	0	30508	
2766	0	30368	
2767	0	30184	
2768	0	29962	
2769	0	29810	
2770	0	29756	
2771	0	29720	
2772	0	29756	
2773	0	29912	
2774	0	30258	
2775	0	30880	
2776	0	31584	
2777	0	32392	
2778	0	33464	
2779	0	34976	
2780	0	36856	
2781	0	39072	
2782	0	41692	
2783	0	44576	
2784	0	47644	
2785	0	50896	
2786	0	54408	
2787	0	58080	
2788	0	61388	
2789	0	63312	
2790	0	64318	
2791	0	64816	
2792	0	65010	
2793	0	65064	
2794	0	65040	
2795	0	64960	
2796	0	64880	
2797	0	64756	
2798	0	64648	
2799	0	64536	
2800	0	64400	
2801	0	64280	
2802	0	64180	
2803	0	64048	
2804	0	63936	
2805	0	63804	
2806	0	63672	
2807	0	63564	
2808	0	63448	
2809	0	63328	
2810	0	63208	
2811	0	63076	
2812	0	62980	
2813	0	62856	
2814	0	62732	
2815	0	57636	
2816	0	52272	
2817	0	47248	
2818	0	42872	
2819	0	39264	
2820	0	36312	
2821	0	33780	
2822	0	31632	
2823	0	30036	
2824	0	28920	
2825	0	28136	
2826	0	27532	
2827	0	27016	
2828	0	26572	
2829	0	26108	
2830	0	25652	
2831	0	25216	
2832	0	24834	
2833	0	24512	
2834	0	24260	
2835	0	24032	
2836	0	23788	
2837	0	23556	
2838	0	23362	
2839	0	23168	
2840	0	22992	
2841	0	22856	
2842	0	22700	
2843	0	22568	
2844	0	22444	
2845	0	22324	
2846	0	22204	
2847	0	22092	
2848	0	22000	
2849	0	21960	
2850	0	21904	
2851	0	21840	
2852	0	21780	
2853	0	21744	
2854	0	21736	
2855	0	21714	
2856	0	21730	
2857	0	21768	
2858	0	21792	
2859	0	21806	
2860	0	21848	
2861	0	21908	
2862	0	21968	
2863	0	22048	
2864	0	22129	
2865	0	22248	
2866	0	22340	
2867	0	22392	
2868	0	22464	
2869	0	22548	
2870	0	22616	
2871	0	22684	
2872	0	22756	
2873	0	22868	
2874	0	23000	
2875	0	23104	
2876	0	23192	
2877	0	23264	
2878	0	23352	
2879	0	23444	
2880	0	23532	
2881	0	23604	
2882	0	23688	
2883	0	23776	
2884	0	23852	
2885	0	23916	
2886	0	24008	
2887	0	24108	
2888	0	24192	
2889	0	24252	
2890	0	24312	
2891	0	24392	
2892	0	24472	
2893	0	24560	
2894	0	24642	
2895	0	24720	
2896	0	24778	
2897	0	24856	
2898	0	24920	
2899	0	24980	
2900	0	25020	
2901	0	25112	
2902	0	25208	
2903	0	25308	
2904	0	25416	
2905	0	25480	
2906	0	25568	
2907	0	25652	
2908	0	25712	
2909	0	25752	
2910	0	25844	
2911	0	25960	
2912	0	26044	
2913	0	26124	
2914	0	26208	
2915	0	26328	
2916	0	26480	
2917	0	26608	
2918	0	26692	
2919	0	26756	
2920	0	26848	
2921	0	26944	
2922	0	27032	
2923	0	27152	
2924	0	27268	
2925	0	27344	
2926	0	27428	
2927	0	27472	
2928	0	27532	
2929	0	27600	
2930	0	27664	
2931	0	27732	
2932	0	27804	
2933	0	27888	
2934	0	27956	
2935	0	28044	
2936	0	28136	
2937	0	28240	
2938	0	28334	
2939	0	28448	
2940	0	28536	
2941	0	28602	
2942	0	28696	
2943	0	28800	
2944	0	28924	
2945	0	28976	
2946	0	29028	
2947	0	29096	
2948	0	29192	
2949	0	29300	
2950	0	29416	
2951	0	29512	
2952	0	29600	
2953	0	29700	
2954	0	29784	
2955	0	29864	
2956	0	29968	
2957	0	30028	
2958	0	30136	
2959	0	30264	
2960	0	30372	
2961	0	30460	
2962	0	30552	
2963	0	30672	
2964	0	30796	
2965	0	30928	
2966	0	31060	
2967	0	31148	
2968	0	31240	
2969	0	31316	
2970	0	31408	
2971	0	31492	
2972	0	31586	
2973	0	31680	
2974	0	31800	
2975	0	31904	
2976	0	32000	
2977	0	32108	
2978	0	32204	
2979	0	32280	
2980	0	32372	
2981	0	32484	
2982	0	32600	
2983	0	32696	
2984	0	32816	
2985	0	32900	
2986	0	32968	
2987	0	33032	
2988	0	33120	
2989	0	33186	
2990	0	33244	
2991	0	33308	
2992	0	33356	
2993	0	33408	
2994	0	33444	
2995	0	33480	
2996	0	33500	
2997	0	33504	
2998	0	33520	
2999	0	33524	
3000	0	33524	
3001	0	33508	
3002	0	33516	
3003	0	33524	
3004	0	33516	
3005	0	33496	
3006	0	33504	
3007	0	33528	
3008	0	33528	
3009	0	33532	
3010	0	33540	
3011	0	33588	
3012	0	33592	
3013	0	33608	
3014	0	33652	
3015	0	33732	
3016	0	33792	
3017	0	33868	
3018	0	33912	
3019	0	33936	
3020	0	33976	
3021	0	34008	
3022	0	34044	
3023	0	34040	
3024	0	34048	
3025	0	34068	
3026	0	34092	
3027	0	34106	
3028	0	34100	
3029	0	34082	
3030	0	34076	
3031	0	34048	
3032	0	33988	
3033	0	33920	
3034	0	33852	
3035	0	33788	
3036	0	33704	
3037	0	33604	
3038	0	33496	
3039	0	33408	
3040	0	33328	
3041	0	33248	
3042	0	33160	
3043	0	33056	
3044	0	32976	
3045	0	32884	
3046	0	32792	
3047	0	32700	
3048	0	32634	
3049	0	32568	
3050	0	32528	
3051	0	32468	
3052	0	32400	
3053	0	32316	
3054	0	32216	
3055	0	32132	
3056	0	32064	
3057	0	32006	
3058	0	31956	
3059	0	31928	
3060	0	31880	
3061	0	31816	
3062	0	31784	
3063	0	31752	
3064	0	31736	
3065	0	31692	
3066	0	31632	
3067	0	31576	
3068	0	31520	
3069	0	31488	
3070	0	31472	
3071	0	31440	
3072	0	31420	
3073	0	31408	
3074	0	31400	
3075	0	31404	
3076	0	31400	
3077	0	31384	
3078	0	31360	
3079	0	31360	
3080	0	31372	
3081	0	31384	
3082	0	31408	
3083	0	31424	
3084	0	31436	
3085	0	31436	
3086	0	31408	
3087	0	31400	
3088	0	31384	
3089	0	31368	
3090	0	31386	
3091	0	31416	
3092	0	31420	
3093	0	31452	
3094	0	31476	
3095	0	31472	
3096	0	31476	
3097	0	31528	
3098	0	31608	
3099	0	31668	
3100	0	31716	
3101	0	31748	
3102	0	31792	
3103	0	31816	
3104	0	31852	
3105	0	31892	
3106	0	31920	
3107	0	31908	
3108	0	31940	
3109	0	31992	
3110	0	32032	
3111	0	32060	
3112	0	32092	
3113	0	32120	
3114	0	32152	
3115	0	32176	
3116	0	32224	
3117	0	32256	
3118	0	32314	
3119	0	32336	
3120	0	32344	
3121	0	32364	
3122	0	32416	
3123	0	32456	
3124	0	32508	
3125	0	32580	
3126	0	32602	
3127	0	32608	
3128	0	32620	
3129	0	32596	
3130	0	32592	
3131	0	32608	
3132	0	32612	
3133	0	32608	
3134	0	32640	
3135	0	32672	
3136	0	32696	
3137	0	32744	
3138	0	32768	
3139	0	32788	
3140	0	32848	
3141	0	32908	
3142	0	32952	
3143	0	32974	
3144	0	32964	
3145	0	32960	
3146	0	32968	
3147	0	32980	
3148	0	32992	
3149	0	33008	
3150	0	33020	
3151	0	33068	
3152	0	33108	
3153	0	33126	
3154	0	33130	
3155	0	33108	
3156	0	33092	
3157	0	33072	
3158	0	33080	
3159	0	33084	
3160	0	33130	
3161	0	33136	
3162	0	33104	
3163	0	33100	
3164	0	33112	
3165	0	33140	
3166	0	33172	
3167	0	33208	
3168	0	33204	
3169	0	33244	
3170	0	33260	
3171	0	33240	
3172	0	33212	
3173	0	33200	
3174	0	33200	
3175	0	33220	
3176	0	33208	
3177	0	33196	
3178	0	33160	
3179	0	33140	
3180	0	33136	
3181	0	33148	
3182	0	33184	
3183	0	33212	
3184	0	33232	
3185	0	33244	
3186	0	33232	
3187	0	33224	
3188	0	33200	
3189	0	33164	
3190	0	33148	
3191	0	33124	
3192	0	33136	
3193	0	33132	
3194	0	33128	
3195	0	33120	
3196	0	33116	
3197	0	33080	
3198	0	33080	
3199	0	33100	
3200	0	33096	
3201	0	33080	
3202	0	33048	
3203	0	33028	
3204	0	33008	
3205	0	33016	
3206	0	33032	
3207	0	33024	
3208	0	33028	
3209	0	33028	
3210	0	33016	
3211	0	33008	
3212	0	33034	
3213	0	33024	
3214	0	33020	
3215	0	32980	
3216	0	32964	
3217	0	32984	
3218	0	33004	
3219	0	32972	
3220	0	32924	
3221	0	32896	
3222	0	32880	
3223	0	32876	
3224	0	32876	
3225	0	32864	
3226	0	32878	
3227	0	32884	
3228	0	32912	
3229	0	32880	
3230	0	32884	
3231	0	32912	
3232	0	32954	
3233	0	32974	
3234	0	32988	
3235	0	32992	
3236	0	32996	
3237	0	32980	
3238	0	32952	
3239	0	32944	
3240	0	32924	
3241	0	32900	
3242	0	32896	
3243	0	32882	
3244	0	32848	
3245	0	32840	
3246	0	32832	
3247	0	32812	
3248	0	32816	
3249	0	32820	
3250	0	32828	
3251	0	32840	
3252	0	32848	
3253	0	32828	
3254	0	32816	
3255	0	32768	
3256	0	32760	
3257	0	32760	
3258	0	32760	
3259	0	32744	
3260	0	32736	
3261	0	32740	
3262	0	32760	
3263	0	32800	
3264	0	32800	
3265	0	32780	
3266	0	32752	
3267	0	32748	
3268	0	32776	
3269	0	32832	
3270	0	32876	
3271	0	32924	
3272	0	32928	
3273	0	32900	
3274	0	32904	
3275	0	32904	
3276	0	32900	
3277	0	32876	
3278	0	32872	
3279	0	32858	
3280	0	32864	
3281	0	32876	
3282	0	32898	
3283	0	32904	
3284	0	32892	
3285	0	32884	
3286	0	32872	
3287	0	32868	
3288	0	32856	
3289	0	32848	
3290	0	32876	
3291	0	32904	
3292	0	32908	
3293	0	32920	
3294	0	32928	
3295	0	32936	
3296	0	32962	
3297	0	32996	
3298	0	32996	
3299	0	32992	
3300	0	32992	
3301	0	33000	
3302	0	33008	
3303	0	33024	
3304	0	33040	
3305	0	33050	
3306	0	33036	
3307	0	33036	
3308	0	33008	
3309	0	33004	
3310	0	33016	
3311	0	33016	
3312	0	33034	
3313	0	33046	
3314	0	33024	
3315	0	32960	
3316	0	32944	
3317	0	32936	
3318	0	32944	
3319	0	32972	
3320	0	32998	
3321	0	33000	
3322	0	33016	
3323	0	33020	
3324	0	33016	
3325	0	32992	
3326	0	33012	
3327	0	33108	
3328	0	33256	
3329	0	33464	
3330	0	33712	
3331	0	33960	
3332	0	34176	
3333	0	34392	
3334	0	34564	
3335	0	34748	
3336	0	34900	
3337	0	34988	
3338	0	35056	
3339	0	35084	
3340	0	35088	
3341	0	35076	
3342	0	35040	
3343	0	35016	
3344	0	34996	
3345	0	34988	
3346	0	34940	
3347	0	34908	
3348	0	34864	
3349	0	34836	
3350	0	34896	
3351	0	35096	
3352	0	35392	
3353	0	35748	
3354	0	36108	
3355	0	36400	
3356	0	36608	
3357	0	36736	
3358	0	36796	
3359	0	36848	
3360	0	36936	
3361	0	37024	
3362	0	37088	
3363	0	37104	
3364	0	37156	
3365	0	37248	
3366	0	37392	
3367	0	37512	
3368	0	37568	
3369	0	37488	
3370	0	37300	
3371	0	37056	
3372	0	36804	
3373	0	36576	
3374	0	36416	
3375	0	36328	
3376	0	36272	
3377	0	36216	
3378	0	36158	
3379	0	36072	
3380	0	35956	
3381	0	35752	
3382	0	35528	
3383	0	35344	
3384	0	35184	
3385	0	34960	
3386	0	34760	
3387	0	34576	
3388	0	34384	
3389	0	34228	
3390	0	34060	
3391	0	33840	
3392	0	33608	
3393	0	33360	
3394	0	33096	
3395	0	32868	
3396	0	32660	
3397	0	32540	
3398	0	32456	
3399	0	32360	
3400	0	32284	
3401	0	32200	
3402	0	32088	
3403	0	31932	
3404	0	31820	
3405	0	31744	
3406	0	31654	
3407	0	31560	
3408	0	31520	
3409	0	31528	
3410	0	31532	
3411	0	31532	
3412	0	31544	
3413	0	31544	
3414	0	31528	
3415	0	31508	
3416	0	31468	
3417	0	31432	
3418	0	31446	
3419	0	31456	
3420	0	31460	
3421	0	31448	
3422	0	31416	
3423	0	31408	
3424	0	31408	
3425	0	31446	
3426	0	31460	
3427	0	31468	
3428	0	31456	
3429	0	31428	
3430	0	31412	
3431	0	31428	
3432	0	31424	
3433	0	31418	
3434	0	31408	
3435	0	31364	
3436	0	31356	
3437	0	31340	
3438	0	31296	
3439	0	31250	
3440	0	31184	
3441	0	31088	
3442	0	30948	
3443	0	30798	
3444	0	30624	
3445	0	30460	
3446	0	30332	
3447	0	30152	
3448	0	29960	
3449	0	29732	
3450	0	29498	
3451	0	29376	
3452	0	29360	
3453	0	29408	
3454	0	29556	
3455	0	29772	
3456	0	30174	
3457	0	30748	
3458	0	31456	
3459	0	32328	
3460	0	33492	
3461	0	35032	
3462	0	36900	
3463	0	39164	
3464	0	41756	
3465	0	44568	
3466	0	47556	
3467	0	50808	
3468	0	54356	
3469	0	58072	
3470	0	61352	
3471	0	63212	
3472	0	64176	
3473	0	64648	
3474	0	64824	
3475	0	64892	
3476	0	64860	
3477	0	64788	
3478	0	64692	
3479	0	64600	
3480	0	64480	
3481	0	64360	
3482	0	64240	
3483	0	64112	
3484	0	63996	
3485	0	63872	
3486	0	63756	
3487	0	63640	
3488	0	63508	
3489	0	63392	
3490	0	63276	
3491	0	63152	
3492	0	63048	
3493	0	62920	
3494	0	62816	
3495	0	62704	
3496	0	61296	
3497	0	56064	
3498	0	51172	
3499	0	46632	
3500	0	42640	
3501	0	39272	
3502	0	36416	
3503	0	33916	
3504	0	31820	
3505	0	30284	
3506	0	29196	
3507	0	28388	
3508	0	27720	
3509	0	27120	
3510	0	26592	
3511	0	26090	
3512	0	25604	
3513	0	25176	
3514	0	24784	
3515	0	24452	
3516	0	24136	
3517	0	23904	
3518	0	23664	
3519	0	23428	
3520	0	23212	
3521	0	23020	
3522	0	22820	
3523	0	22636	
3524	0	22480	
3525	0	22336	
3526	0	22176	
3527	0	22056	
3528	0	21980	
3529	0	21918	
3530	0	21820	
3531	0	21740	
3532	0	21698	
3533	0	21720	
3534	0	21720	
3535	0	21728	
3536	0	21770	
3537	0	21774	
3538	0	21781	
3539	0	21782	
3540	0	21774	
3541	0	21776	
3542	0	21792	
3543	0	21812	
3544	0	21852	
3545	0	21908	
3546	0	21988	
3547	0	22024	
3548	0	22060	
3549	0	22130	
3550	0	22212	
3551	0	22268	
3552	0	22340	
3553	0	22432	
3554	0	22492	
3555	0	22564	
3556	0	22668	
3557	0	22772	
3558	0	22872	
3559	0	22956	
3560	0	23076	
3561	0	23176	
3562	0	23236	
3563	0	23316	
3564	0	23400	
3565	0	23500	
3566	0	23580	
3567	0	23668	
3568	0	23768	
3569	0	23848	
3570	0	23892	
3571	0	23946	
3572	0	24046	
3573	0	24148	
3574	0	24242	
3575	0	24340	
3576	0	24410	
3577	0	24512	
3578	0	24617	
3579	0	24708	
3580	0	24792	
3581	0	24892	
3582	0	24972	
3583	0	25056	
3584	0	25114	
3585	0	25184	
3586	0	25236	
3587	0	25288	
3588	0	25372	
3589	0	25472	
3590	0	25584	
3591	0	25670	
3592	0	25756	
3593	0	25860	
3594	0	25936	
3595	0	26000	
3596	0	26080	
3597	0	26136	
3598	0	26244	
3599	0	26332	
3600	0	26384	
3601	0	26470	
3602	0	26556	
3603	0	26612	
3604	0	26682	
3605	0	26736	
3606	0	26812	
3607	0	26920	
3608	0	27008	
3609	0	27084	
3610	0	27152	
3611	0	27224	
3612	0	27316	
3613	0	27408	
3614	0	27488	
3615	0	27584	
3616	0	27656	
3617	0	27748	
3618	0	27840	
3619	0	27920	
3620	0	27988	
3621	0	28060	
3622	0	28128	
3623	0	28220	
3624	0	28300	
3625	0	28408	
3626	0	28508	
3627	0	28608	
3628	0	28680	
3629	0	28728	
3630	0	28792	
3631	0	28872	
3632	0	28996	
3633	0	29100	
3634	0	29236	
3635	0	29352	
3636	0	29488	
3637	0	29600	
3638	0	29712	
3639	0	29776	
3640	0	29848	
3641	0	29888	
3642	0	29960	
3643	0	30040	
3644	0	30124	
3645	0	30200	
3646	0	30312	
3647	0	30440	
3648	0	30552	
3649	0	30668	
3650	0	30796	
3651	0	30884	
3652	0	30992	
3653	0	31088	
3654	0	31196	
3655	0	31296	
3656	0	31392	
3657	0	31516	
3658	0	31608	
3659	0	31704	
3660	0	31776	
3661	0	31848	
3662	0	31956	
3663	0	32048	
3664	0	32120	
3665	0	32192	
3666	0	32262	
3667	0	32344	
3668	0	32416	
3669	0	32492	
3670	0	32548	
3671	0	32628	
3672	0	32696	
3673	0	32764	
3674	0	32834	
3675	0	32908	
3676	0	32960	
3677	0	33008	
3678	0	33032	
3679	0	33056	
3680	0	33068	
3681	0	33112	
3682	0	33132	
3683	0	33148	
3684	0	33146	
3685	0	33148	
3686	0	33168	
3687	0	33196	
3688	0	33208	
3689	0	33244	
3690	0	33264	
3691	0	33302	
3692	0	33328	
3693	0	33354	
3694	0	33392	
3695	0	33436	
3696	0	33468	
3697	0	33508	
3698	0	33544	
3699	0	33528	
3700	0	33508	
3701	0	33504	
3702	0	33528	
3703	0	33584	
3704	0	33624	
3705	0	33652	
3706	0	33728	
3707	0	33764	
3708	0	33776	
3709	0	33776	
3710	0	33780	
3711	0	33752	
3712	0	33732	
3713	0	33712	
3714	0	33688	
3715	0	33660	
3716	0	33636	
3717	0	33580	
3718	0	33504	
3719	0	33420	
3720	0	33344	
3721	0	33252	
3722	0	33196	
3723	0	33104	
3724	0	33008	
3725	0	32916	
3726	0	32808	
3727	0	32736	
3728	0	32640	
3729	0	32552	
3730	0	32444	
3731	0	32368	
3732	0	32324	
3733	0	32264	
3734	0	32180	
3735	0	32110	
3736	0	32048	
3737	0	32016	
3738	0	31944	
3739	0	31872	
3740	0	31780	
3741	0	31716	
3742	0	31680	
3743	0	31632	
3744	0	31584	
3745	0	31524	
3746	0	31464	
3747	0	31440	
3748	0	31400	
3749	0	31352	
3750	0	31300	
3751	0	31244	
3752	0	31224	
3753	0	31202	
3754	0	31184	
3755	0	31160	
3756	0	31144	
3757	0	31124	
3758	0	31124	
3759	0	31144	
3760	0	31144	
3761	0	31124	
3762	0	31120	
3763	0	31108	
3764	0	31112	
3765	0	31120	
3766	0	31120	
3767	0	31124	
3768	0	31124	
3769	0	31106	
3770	0	31096	
3771	0	31116	
3772	0	31132	
3773	0	31156	
3774	0	31176	
3775	0	31200	
3776	0	31216	
3777	0	31220	
3778	0	31236	
3779	0	31232	
3780	0	31204	
3781	0	31192	
3782	0	31238	
3783	0	31284	
3784	0	31346	
3785	0	31394	
3786	0	31404	
3787	0	31424	
3788	0	31392	
3789	0	31398	
3790	0	31442	
3791	0	31520	
3792	0	31576	
3793	0	31624	
3794	0	31656	
3795	0	31688	
3796	0	31724	
3797	0	31760	
3798	0	31776	
3799	0	31834	
3800	0	31884	
3801	0	31924	
3802	0	31972	
3803	0	32008	
3804	0	32052	
3805	0	32080	
3806	0	32088	
3807	0	32096	
3808	0	32104	
3809	0	32120	
3810	0	32164	
3811	0	32232	
3812	0	32280	
3813	0	32308	
3814	0	32320	
3815	0	32344	
3816	0	32388	
3817	0	32400	
3818	0	32404	
3819	0	32424	
3820	0	32444	
3821	0	32436	
3822	0	32444	
3823	0	32460	
3824	0	32464	
3825	0	32468	
3826	0	32488	
3827	0	32506	
3828	0	32528	
3829	0	32570	
3830	0	32616	
3831	0	32612	
3832	0	32616	
3833	0	32608	
3834	0	32600	
3835	0	32610	
3836	0	32616	
3837	0	32598	
3838	0	32596	
3839	0	32596	
3840	0	32600	
3841	0	32624	
3842	0	32640	
3843	0	32668	
3844	0	32674	
3845	0	32692	
3846	0	32688	
3847	0	32680	
3848	0	32712	
3849	0	32720	
3850	0	32724	
3851	0	32730	
3852	0	32748	
3853	0	32736	
3854	0	32724	
3855	0	32736	
3856	0	32754	
3857	0	32736	
3858	0	32724	
3859	0	32688	
3860	0	32652	
3861	0	32648	
3862	0	32644	
3863	0	32644	
3864	0	32628	
3865	0	32596	
3866	0	32608	
3867	0	32610	
3868	0	32608	
3869	0	32600	
3870	0	32604	
3871	0	32596	
3872	0	32616	
3873	0	32632	
3874	0	32628	
3875	0	32600	
3876	0	32568	
3877	0	32532	
3878	0	32560	
3879	0	32592	
3880	0	32604	
3881	0	32592	
3882	0	32606	
3883	0	32604	
3884	0	32584	
3885	0	32556	
3886	0	32572	
3887	0	32608	
3888	0	32624	
3889	0	32624	
3890	0	32612	
3891	0	32572	
3892	0	32548	
3893	0	32532	
3894	0	32482	
3895	0	32464	
3896	0	32452	
3897	0	32450	
3898	0	32448	
3899	0	32464	
3900	0	32484	
3901	0	32504	
3902	0	32528	
3903	0	32516	
3904	0	32508	
3905	0	32500	
3906	0	32480	
3907	0	32448	
3908	0	32416	
3909	0	32428	
3910	0	32424	
3911	0	32424	
3912	0	32432	
3913	0	32444	
3914	0	32436	
3915	0	32432	
3916	0	32436	
3917	0	32428	
3918	0	32412	
3919	0	32396	
3920	0	32408	
3921	0	32426	
3922	0	32444	
3923	0	32448	
3924	0	32452	
3925	0	32456	
3926	0	32432	
3927	0	32420	
3928	0	32424	
3929	0	32416	
3930	0	32396	
3931	0	32382	
3932	0	32388	
3933	0	32348	
3934	0	32336	
3935	0	32356	
3936	0	32368	
3937	0	32416	
3938	0	32424	
3939	0	32410	
3940	0	32392	
3941	0	32380	
3942	0	32360	
3943	0	32344	
3944	0	32332	
3945	0	32328	
3946	0	32324	
3947	0	32380	
3948	0	32404	
3949	0	32424	
3950	0	32448	
3951	0	32434	
3952	0	32420	
3953	0	32392	
3954	0	32384	
3955	0	32364	
3956	0	32360	
3957	0	32384	
3958	0	32436	
3959	0	32472	
3960	0	32468	
3961	0	32474	
3962	0	32480	
3963	0	32480	
3964	0	32476	
3965	0	32476	
3966	0	32474	
3967	0	32492	
3968	0	32504	
3969	0	32504	
3970	0	32492	
3971	0	32492	
3972	0	32464	
3973	0	32458	
3974	0	32480	
3975	0	32448	
3976	0	32440	
3977	0	32466	
3978	0	32512	
3979	0	32536	
3980	0	32552	
3981	0	32522	
3982	0	32512	
3983	0	32532	
3984	0	32560	
3985	0	32592	
3986	0	32592	
3987	0	32572	
3988	0	32576	
3989	0	32544	
3990	0	32544	
3991	0	32548	
3992	0	32556	
3993	0	32556	
3994	0	32552	
3995	0	32568	
3996	0	32608	
3997	0	32620	
3998	0	32608	
3999	0	32592	
4000	0	32612	
4001	0	32610	
4002	0	32624	
4003	0	32588	
4004	0	32560	
4005	0	32572	
4006	0	32600	
4007	0	32616	
4008	0	32644	
4009	0	32644	
4010	0	32656	
4011	0	32666	
4012	0	32680	
4013	0	32680	
4014	0	32728	
4015	0	32832	
4016	0	32992	
4017	0	33228	
4018	0	33468	
4019	0	33688	
4020	0	33888	
4021	0	34072	
4022	0	34240	
4023	0	34400	
4024	0	34540	
4025	0	34620	
4026	0	34660	
4027	0	34664	
4028	0	34648	
4029	0	34616	
4030	0	34592	
4031	0	34616	
4032	0	34624	
4033	0	34652	
4034	0	34648	
4035	0	34632	
4036	0	34612	
4037	0	34672	
4038	0	34776	
4039	0	34976	
4040	0	35248	
4041	0	35564	
4042	0	35856	
4043	0	36104	
4044	0	36256	
4045	0	36320	
4046	0	36360	
4047	0	36444	
4048	0	36544	
4049	0	36616	
4050	0	36628	
4051	0	36656	
4052	0	36744	
4053	0	36892	
4054	0	37040	
4055	0	37160	
4056	0	37176	
4057	0	37100	
4058	0	36960	
4059	0	36780	
4060	0	36552	
4061	0	36344	
4062	0	36188	
4063	0	36098	
4064	0	36016	
4065	0	35960	
4066	0	35888	
4067	0	35784	
4068	0	35664	
4069	0	35512	
4070	0	35296	
4071	0	35128	
4072	0	34920	
4073	0	34672	
4074	0	34460	
4075	0	34256	
4076	0	34048	
4077	0	33848	
4078	0	33636	
4079	0	33388	
4080	0	33120	
4081	0	32848	
4082	0	32616	
4083	0	32428	
4084	0	32296	
4085	0	32172	
4086	0	32072	
4087	0	31972	
4088	0	31898	
4089	0	31772	
4090	0	31680	
4091	0	31592	
4092	0	31520	
4093	0	31456	
4094	0	31400	
4095	0	31368	
4096	0	31376	
4097	0	31388	
4098	0	31388	
4099	0	31408	
4100	0	31400	
4101	0	31390	
4102	0	31364	
4103	0	31360	
4104	0	31340	
4105	0	31328	
4106	0	31304	
4107	0	31324	
4108	0	31336	
4109	0	31348	
4110	0	31336	
4111	0	31328	
4112	0	31332	
4113	0	31328	
4114	0	31324	
4115	0	31312	
4116	0	31320	
4117	0	31340	
4118	0	31372	
4119	0	31386	
4120	0	31392	
4121	0	31378	
4122	0	31380	
4123	0	31348	
4124	0	31344	
4125	0	31316	
4126	0	31238	
4127	0	31128	
4128	0	31008	
4129	0	30848	
4130	0	30672	
4131	0	30508	
4132	0	30344	
4133	0	30148	
4134	0	29984	
4135	0	29816	
4136	0	29620	
4137	0	29380	
4138	0	29188	
4139	0	29088	
4140	0	29068	
4141	0	29096	
4142	0	29216	
4143	0	29404	
4144	0	29804	
4145	0	30368	
4146	0	31100	
4147	0	32080	
4148	0	33448	
4149	0	35128	
4150	0	37132	
4151	0	39564	
4152	0	42288	
4153	0	45228	
4154	0	48284	
4155	0	51600	
4156	0	55200	
4157	0	58916	
4158	0	62152	
4159	0	63960	
4160	0	64892	
4161	0	65344	
4162	0	65520	
4163	0	65535	
4164	0	65520	
4165	0	65428	
4166	0	65352	
4167	0	65236	
4168	0	65112	
4169	0	64984	
4170	0	64864	
4171	0	64736	
4172	0	64608	
4173	0	64496	
4174	0	64364	
4175	0	64256	
4176	0	64120	
4177	0	64008	
4178	0	63872	
4179	0	63748	
4180	0	63640	
4181	0	63504	
4182	0	63400	
4183	0	61032	
4184	0	56168	
4185	0	51604	
4186	0	47260	
4187	0	43396	
4188	0	40144	
4189	0	37420	
4190	0	35056	
4191	0	33036	
4192	0	31356	
4193	0	30058	
4194	0	29112	
4195	0	28360	
4196	0	27692	
4197	0	27084	
4198	0	26528	
4199	0	25988	
4200	0	25504	
4201	0	25088	
4202	0	24732	
4203	0	24404	
4204	0	24144	
4205	0	23878	
4206	0	23640	
4207	0	23416	
4208	0	23202	
4209	0	23040	
4210	0	22852	
4211	0	22688	
4212	0	22572	
4213	0	22452	
4214	0	22348	
4215	0	22234	
4216	0	22156	
4217	0	22084	
4218	0	22032	
4219	0	21984	
4220	0	21920	
4221	0	21880	
4222	0	21856	
4223	0	21856	
4224	0	21864	
4225	0	21882	
4226	0	21904	
4227	0	21936	
4228	0	21968	
4229	0	22032	
4230	0	22056	
4231	0	22064	
4232	0	22088	
4233	0	22122	
4234	0	22156	
4235	0	22212	
4236	0	22288	
4237	0	22344	
4238	0	22416	
4239	0	22532	
4240	0	22616	
4241	0	22716	
4242	0	22812	
4243	0	22892	
4244	0	22944	
4245	0	23016	
4246	0	23068	
4247	0	23170	
4248	0	23260	
4249	0	23384	
4250	0	23480	
4251	0	23560	
4252	0	23618	
4253	0	23680	
4254	0	23768	
4255	0	23860	
4256	0	23968	
4257	0	24060	
4258	0	24140	
4259	0	24232	
4260	0	24328	
4261	0	24424	
4262	0	24492	
4263	0	24578	
4264	0	24676	
4265	0	24768	
4266	0	24842	
4267	0	24916	
4268	0	25006	
4269	0	25084	
4270	0	25144	
4271	0	25228	
4272	0	25328	
4273	0	25428	
4274	0	25504	
4275	0	25600	
4276	0	25688	
4277	0	25776	
4278	0	25844	
4279	0	25936	
4280	0	26024	
4281	0	26090	
4282	0	26156	
4283	0	26212	
4284	0	26284	
4285	0	26353	
4286	0	26432	
4287	0	26480	
4288	0	26544	
4289	0	26668	
4290	0	26784	
4291	0	26876	
4292	0	26980	
4293	0	27072	
4294	0	27154	
4295	0	27232	
4296	0	27330	
4297	0	27436	
4298	0	27544	
4299	0	27645	
4300	0	27724	
4301	0	27792	
4302	0	27864	
4303	0	27930	
4304	0	28004	
4305	0	28080	
4306	0	28184	
4307	0	28296	
4308	0	28424	
4309	0	28544	
4310	0	28620	
4311	0	28688	
4312	0	28748	
4313	0	28814	
4314	0	28896	
4315	0	28960	
4316	0	29044	
4317	0	29170	
4318	0	29268	
4319	0	29364	
4320	0	29444	
4321	0	29528	
4322	0	29604	
4323	0	29696	
4324	0	29790	
4325	0	29856	
4326	0	29924	
4327	0	30036	
4328	0	30120	
4329	0	30244	
4330	0	30356	
4331	0	30464	
4332	0	30584	
4333	0	30704	
4334	0	30776	
4335	0	30832	
4336	0	30904	
4337	0	31028	
4338	0	31136	
4339	0	31232	
4340	0	31348	
4341	0	31448	
4342	0	31544	
4343	0	31632	
4344	0	31712	
4345	0	31788	
4346	0	31888	
4347	0	31992	
4348	0	32090	
4349	0	32176	
4350	0	32276	
4351	0	32352	
4352	0	32432	
4353	0	32516	
4354	0	32580	
4355	0	32620	
4356	0	32652	
4357	0	32696	
4358	0	32768	
4359	0	32840	
4360	0	32904	
4361	0	32940	
4362	0	32994	
4363	0	33040	
4364	0	33100	
4365	0	33124	
4366	0	33144	
4367	0	33164	
4368	0	33184	
4369	0	33208	
4370	0	33236	
4371	0	33256	
4372	0	33296	
4373	0	33344	
4374	0	33356	
4375	0	33364	
4376	0	33368	
4377	0	33384	
4378	0	33396	
4379	0	33450	
4380	0	33508	
4381	0	33536	
4382	0	33548	
4383	0	33536	
4384	0	33556	
4385	0	33584	
4386	0	33620	
4387	0	33640	
4388	0	33674	
4389	0	33696	
4390	0	33736	
4391	0	33764	
4392	0	33804	
4393	0	33832	
4394	0	33896	
4395	0	33932	
4396	0	33940	
4397	0	33912	
4398	0	33912	
4399	0	33892	
4400	0	33876	
4401	0	33864	
4402	0	33820	
4403	0	33760	
4404	0	33720	
4405	0	33668	
4406	0	33600	
4407	0	33524	
4408	0	33408	
4409	0	33368	
4410	0	33344	
4411	0	33304	
4412	0	33268	
4413	0	33184	
4414	0	33100	
4415	0	33000	
4416	0	32896	
4417	0	32800	
4418	0	32720	
4419	0	32648	
4420	0	32568	
4421	0	32476	
4422	0	32400	
4423	0	32328	
4424	0	32298	
4425	0	32256	
4426	0	32204	
4427	0	32160	
4428	0	32128	
4429	0	32076	
4430	0	32008	
4431	0	31948	
4432	0	31884	
4433	0	31824	
4434	0	31770	
4435	0	31736	
4436	0	31704	
4437	0	31668	
4438	0	31618	
4439	0	31580	
4440	0	31572	
4441	0	31584	
4442	0	31576	
4443	0	31548	
4444	0	31532	
4445	0	31504	
4446	0	31448	
4447	0	31404	
4448	0	31396	
4449	0	31428	
4450	0	31468	
4451	0	31512	
4452	0	31512	
4453	0	31512	
4454	0	31492	
4455	0	31472	
4456	0	31492	
4457	0	31504	
4458	0	31520	
4459	0	31512	
4460	0	31516	
4461	0	31552	
4462	0	31576	
4463	0	31596	
4464	0	31580	
4465	0	31552	
4466	0	31568	
4467	0	31600	
4468	0	31604	
4469	0	31620	
4470	0	31632	
4471	0	31656	
4472	0	31664	
4473	0	31700	
4474	0	31744	
4475	0	31796	
4476	0	31856	
4477	0	31898	
4478	0	31952	
4479	0	32000	
4480	0	32028	
4481	0	32044	
4482	0	32064	
4483	0	32088	
4484	0	32114	
4485	0	32152	
4486	0	32200	
4487	0	32248	
4488	0	32280	
4489	0	32308	
4490	0	32320	
4491	0	32376	
4492	0	32432	
4493	0	32464	
4494	0	32502	
4495	0	32528	
4496	0	32552	
4497	0	32572	
4498	0	32592	
4499	0	32588	
4500	0	32636	
4501	0	32656	
4502	0	32688	
4503	0	32740	
4504	0	32768	
4505	0	32772	
4506	0	32788	
4507	0	32770	
4508	0	32752	
4509	0	32784	
4510	0	32826	
4511	0	32868	
4512	0	32900	
4513	0	32928	
4514	0	32960	
4515	0	32992	
4516	0	32992	
4517	0	33012	
4518	0	33032	
4519	0	33040	
4520	0	33040	
4521	0	33028	
4522	0	33040	
4523	0	33040	
4524	0	33046	
4525	0	33056	
4526	0	33064	
4527	0	33076	
4528	0	33066	
4529	0	33064	
4530	0	33064	
4531	0	33076	
4532	0	33100	
4533	0	33112	
4534	0	33088	
4535	0	33080	
4536	0	33080	
4537	0	33084	
4538	0	33092	
4539	0	33096	
4540	0	33088	
4541	0	33088	
4542	0	33132	
4543	0	33164	
4544	0	33224	
4545	0	33220	
4546	0	33204	
4547	0	33160	
4548	0	33120	
4549	0	33092	
4550	0	33104	
4551	0	33124	
4552	0	33108	
4553	0	33080	
4554	0	33092	
4555	0	33096	
4556	0	33084	
4557	0	33084	
4558	0	33088	
4559	0	33112	
4560	0	33104	
4561	0	33096	
4562	0	33088	
4563	0	33072	
4564	0	33068	
4565	0	33044	
4566	0	33032	
4567	0	33028	
4568	0	33018	
4569	0	32988	
4570	0	32988	
4571	0	32992	
4572	0	33008	
4573	0	32992	
4574	0	32980	
4575	0	32952	
4576	0	32928	
4577	0	32912	
4578	0	32900	
4579	0	32900	
4580	0	32896	
4581	0	32916	
4582	0	32896	
4583	0	32896	
4584	0	32888	
4585	0	32900	
4586	0	32900	
4587	0	32908	
4588	0	32880	
4589	0	32904	
4590	0	32880	
4591	0	32884	
4592	0	32872	
4593	0	32864	
4594	0	32872	
4595	0	32860	
4596	0	32858	
4597	0	32884	
4598	0	32872	
4599	0	32864	
4600	0	32826	
4601	0	32812	
4602	0	32760	
4603	0	32744	
4604	0	32744	
4605	0	32760	
4606	0	32736	
4607	0	32720	
4608	0	32698	
4609	0	32728	
4610	0	32756	
4611	0	32736	
4612	0	32760	
4613	0	32746	
4614	0	32728	
4615	0	32744	
4616	0	32776	
4617	0	32768	
4618	0	32772	
4619	0	32760	
4620	0	32768	
4621	0	32768	
4622	0	32776	
4623	0	32760	
4624	0	32748	
4625	0	32736	
4626	0	32752	
4627	0	32764	
4628	0	32820	
4629	0	32812	
4630	0	32800	
4631	0	32800	
4632	0	32796	
4633	0	32800	
4634	0	32796	
4635	0	32788	
4636	0	32780	
4637	0	32800	
4638	0	32800	
4639	0	32816	
4640	0	32816	
4641	0	32840	
4642	0	32864	
4643	0	32848	
4644	0	32864	
4645	0	32848	
4646	0	32836	
4647	0	32828	
4648	0	32850	
4649	0	32860	
4650	0	32844	
4651	0	32844	
4652	0	32836	
4653	0	32832	
4654	0	32816	
4655	0	32816	
4656	0	32824	
4657	0	32840	
4658	0	32828	
4659	0	32808	
4660	0	32824	
4661	0	32850	
4662	0	32864	
4663	0	32884	
4664	0	32872	
4665	0	32860	
4666	0	32872	
4667	0	32880	
4668	0	32872	
4669	0	32888	
4670	0	32864	
4671	0	32876	
4672	0	32856	
4673	0	32848	
4674	0	32848	
4675	0	32850	
4676	0	32880	
4677	0	32908	
4678	0	32928	
4679	0	32956	
4680	0	32984	
4681	0	32980	
4682	0	32976	
4683	0	32968	
4684	0	32992	
4685	0	33100	
4686	0	33292	
4687	0	33516	
4688	0	33756	
4689	0	33956	
4690	0	34160	
4691	0	34336	
4692	0	34504	
4693	0	34666	
4694	0	34776	
4695	0	34884	
4696	0	34948	
4697	0	35008	
4698	0	34998	
4699	0	34976	
4700	0	34964	
4701	0	34936	
4702	0	34912	
4703	0	34904	
4704	0	34896	
4705	0	34852	
4706	0	34840	
4707	0	34892	
4708	0	35004	
4709	0	35248	
4710	0	35568	
4711	0	35932	
4712	0	36252	
4713	0	36560	
4714	0	36748	
4715	0	36844	
4716	0	36896	
4717	0	36968	
4718	0	37056	
4719	0	37116	
4720	0	37144	
4721	0	37176	
4722	0	37264	
4723	0	37384	
4724	0	37452	
4725	0	37520	
4726	0	37520	
4727	0	37452	
4728	0	37328	
4729	0	37132	
4730	0	36884	
4731	0	36672	
4732	0	36524	
4733	0	36432	
4734	0	36352	
4735	0	36244	
4736	0	36164	
4737	0	36096	
4738	0	36000	
4739	0	35836	
4740	0	35620	
4741	0	35404	
4742	0	35208	
4743	0	35016	
4744	0	34800	
4745	0	34584	
4746	0	34356	
4747	0	34160	
4748	0	33920	
4749	0	33636	
4750	0	33364	
4751	0	33088	
4752	0	32860	
4753	0	32704	
4754	0	32560	
4755	0	32416	
4756	0	32296	
4757	0	32192	
4758	0	32116	
4759	0	32032	
4760	0	31968	
4761	0	31876	
4762	0	31840	
4763	0	31792	
4764	0	31732	
4765	0	31696	
4766	0	31652	
4767	0	31652	
4768	0	31616	
4769	0	31602	
4770	0	31584	
4771	0	31598	
4772	0	31572	
4773	0	31552	
4774	0	31552	
4775	0	31560	
4776	0	31560	
4777	0	31588	
4778	0	31600	
4779	0	31598	
4780	0	31580	
4781	0	31560	
4782	0	31544	
4783	0	31560	
4784	0	31572	
4785	0	31578	
4786	0	31568	
4787	0	31584	
4788	0	31604	
4789	0	31632	
4790	0	31618	
4791	0	31620	
4792	0	31620	
4793	0	31608	
4794	0	31608	
4795	0	31580	
4796	0	31514	
4797	0	31436	
4798	0	31346	
4799	0	31212	
4800	0	31042	
4801	0	30876	
4802	0	30724	
4803	0	30554	
4804	0	30376	
4805	0	30232	
4806	0	30056	
4807	0	29852	
4808	0	29632	
4809	0	29448	
4810	0	29328	
4811	0	29312	
4812	0	29416	
4813	0	29572	
4814	0	29870	
4815	0	30400	
4816	0	31044	
4817	0	31880	
4818	0	33100	
4819	0	34648	
4820	0	36480	
4821	0	38796	
4822	0	41472	
4823	0	44356	
4824	0	47432	
4825	0	50760	
4826	0	54472	
4827	0	58392	
4828	0	61824	
4829	0	63744	
4830	0	64744	
4831	0	65232	
4832	0	65428	
4833	0	65488	
4834	0	65460	
4835	0	65380	
4836	0	65296	
4837	0	65188	
4838	0	65056	
4839	0	64936	
4840	0	64820	
4841	0	64712	
4842	0	64576	
4843	0	64456	
4844	0	64320	
4845	0	64212	
4846	0	64092	
4847	0	63964	
4848	0	63838	
4849	0	63708	
4850	0	63604	
4851	0	63460	
4852	0	63364	
4853	0	61544	
4854	0	56576	
4855	0	51928	
4856	0	47516	
4857	0	43624	
4858	0	40404	
4859	0	37784	
4860	0	35536	
4861	0	33616	
4862	0	32004	
4863	0	30676	
4864	0	29628	
4865	0	28820	
4866	0	28180	
4867	0	27594	
4868	0	27060	
4869	0	26536	
4870	0	26033	
4871	0	25578	
4872	0	25196	
4873	0	24840	
4874	0	24540	
4875	0	24292	
4876	0	24064	
4877	0	23872	
4878	0	23688	
4879	0	23516	
4880	0	23352	
4881	0	23208	
4882	0	23064	
4883	0	22928	
4884	0	22834	
4885	0	22746	
4886	0	22660	
4887	0	22584	
4888	0	22512	
4889	0	22460	
4890	0	22404	
4891	0	22360	
4892	0	22332	
4893	0	22336	
4894	0	22352	
4895	0	22364	
4896	0	22360	
4897	0	22400	
4898	0	22400	
4899	0	22413	
4900	0	22440	
4901	0	22480	
4902	0	22528	
4903	0	22584	
4904	0	22650	
4905	0	22708	
4906	0	22782	
4907	0	22832	
4908	0	22916	
4909	0	23004	
4910	0	23074	
4911	0	23136	
4912	0	23200	
4913	0	23272	
4914	0	23342	
4915	0	23404	
4916	0	23480	
4917	0	23596	
4918	0	23684	
4919	0	23768	
4920	0	23850	
4921	0	23936	
4922	0	24026	
4923	0	24120	
4924	0	24194	
4925	0	24288	
4926	0	24396	
4927	0	24488	
4928	0	24572	
4929	0	24664	
4930	0	24740	
4931	0	24820	
4932	0	24908	
4933	0	24965	
4934	0	25044	
4935	0	25152	
4936	0	25292	
4937	0	25404	
4938	0	25508	
4939	0	25624	
4940	0	25726	
4941	0	25784	
4942	0	25856	
4943	0	25916	
4944	0	25968	
4945	0	26032	
4946	0	26116	
4947	0	26224	
4948	0	26314	
4949	0	26400	
4950	0	26512	
4951	0	26632	
4952	0	26732	
4953	0	26812	
4954	0	26872	
4955	0	26920	
4956	0	26980	
4957	0	27036	
4958	0	27096	
4959	0	27176	
4960	0	27284	
4961	0	27376	
4962	0	27440	
4963	0	27504	
4964	0	27584	
4965	0	27688	
4966	0	27744	
4967	0	27808	
4968	0	27926	
4969	0	28016	
4970	0	28112	
4971	0	28208	
4972	0	28292	
4973	0	28368	
4974	0	28410	
4975	0	28476	
4976	0	28562	
4977	0	28652	
4978	0	28750	
4979	0	28852	
4980	0	28940	
4981	0	29028	
4982	0	29124	
4983	0	29206	
4984	0	29284	
4985	0	29366	
4986	0	29444	
4987	0	29512	
4988	0	29572	
4989	0	29668	
4990	0	29788	
4991	0	29892	
4992	0	30008	
4993	0	30128	
4994	0	30228	
4995	0	30300	
4996	0	30392	
4997	0	30492	
4998	0	30564	
4999	0	30668	
5000	0	30764	
5001	0	30872	
5002	0	30964	
5003	0	31050	
5004	0	31153	
5005	0	31248	
5006	0	31328	
5007	0	31392	
5008	0	31464	
5009	0	31544	
5010	0	31624	
5011	0	31728	
5012	0	31824	
5013	0	31904	
5014	0	32024	
5015	0	32124	
5016	0	32216	
5017	0	32288	
5018	0	32364	
5019	0	32392	
5020	0	32468	
5021	0	32548	
5022	0	32652	
5023	0	32736	
5024	0	32804	
5025	0	32864	
5026	0	32932	
5027	0	33008	
5028	0	33060	
5029	0	33136	
5030	0	33216	
5031	0	33272	
5032	0	33300	
5033	0	33348	
5034	0	33388	
5035	0	33408	
5036	0	33436	
5037	0	33432	
5038	0	33436	
5039	0	33416	
5040	0	33404	
5041	0	33404	
5042	0	33408	
5043	0	33440	
5044	0	33476	
5045	0	33496	
5046	0	33492	
5047	0	33468	
5048	0	33428	
5049	0	33408	
5050	0	33420	
5051	0	33464	
5052	0	33532	
5053	0	33616	
5054	0	33692	
5055	0	33700	
5056	0	33672	
5057	0	33672	
5058	0	33672	
5059	0	33724	
5060	0	33788	
5061	0	33832	
5062	0	33852	
5063	0	33900	
5064	0	33928	
5065	0	33948	
5066	0	33952	
5067	0	33964	
5068	0	33964	
5069	0	33936	
5070	0	33920	
5071	0	33888	
5072	0	33844	
5073	0	33796	
5074	0	33732	
5075	0	33664	
5076	0	33628	
5077	0	33572	
5078	0	33540	
5079	0	33484	
5080	0	33436	
5081	0	33356	
5082	0	33280	
5083	0	33206	
5084	0	33124	
5085	0	33064	
5086	0	32992	
5087	0	32928	
5088	0	32888	
5089	0	32860	
5090	0	32816	
5091	0	32788	
5092	0	32812	
5093	0	32776	
5094	0	32688	
5095	0	32594	
5096	0	32536	
5097	0	32508	
5098	0	32496	
5099	0	32504	
5100	0	32556	
5101	0	32640	
5102	0	32688	
5103	0	32648	
5104	0	32564	
5105	0	32464	
5106	0	32344	
5107	0	32184	
5108	0	32032	
5109	0	31908	
5110	0	31824	
5111	0	31756	
5112	0	31708	
5113	0	31684	
5114	0	31620	
5115	0	31576	
5116	0	31576	
5117	0	31584	
5118	0	31608	
5119	0	31608	
5120	0	31572	
5121	0	31504	
5122	0	31444	
5123	0	31482	
5124	0	31620	
5125	0	31732	
5126	0	31824	
5127	0	31896	
5128	0	31960	
5129	0	32000	
5130	0	32032	
5131	0	32090	
5132	0	32120	
5133	0	32176	
5134	0	32224	
5135	0	32242	
5136	0	32248	
5137	0	32256	
5138	0	32220	
5139	0	32140	
5140	0	32052	
5141	0	31924	
5142	0	31828	
5143	0	31740	
5144	0	31712	
5145	0	31696	
5146	0	31644	
5147	0	31620	
5148	0	31656	
5149	0	31768	
5150	0	31928	
5151	0	32160	
5152	0	32372	
5153	0	32496	
5154	0	32568	
5155	0	32596	
5156	0	32628	
5157	0	32664	
5158	0	32706	
5159	0	32776	
5160	0	32820	
5161	0	32816	
5162	0	32752	
5163	0	32672	
5164	0	32560	
5165	0	32440	
5166	0	32352	
5167	0	32296	
5168	0	32364	
5169	0	32482	
5170	0	32568	
5171	0	32616	
5172	0	32636	
5173	0	32564	
5174	0	32514	
5175	0	32484	
5176	0	32436	
5177	0	32408	
5178	0	32460	
5179	0	32556	
5180	0	32640	
5181	0	32700	
5182	0	32726	
5183	0	32756	
5184	0	32824	
5185	0	32936	
5186	0	33028	
5187	0	33100	
5188	0	33196	
5189	0	33280	
5190	0	33316	
5191	0	33372	
5192	0	33460	
5193	0	33480	
5194	0	33472	
5195	0	33520	
5196	0	33616	
5197	0	33712	
5198	0	33760	
5199	0	33836	
5200	0	34000	
5201	0	34170	
5202	0	34256	
5203	0	34244	
5204	0	34240	
5205	0	34272	
5206	0	34368	
5207	0	34464	
5208	0	34532	
5209	0	34488	
5210	0	34346	
5211	0	34084	
5212	0	33864	
5213	0	33704	
5214	0	33588	
5215	0	33484	
5216	0	33352	
5217	0	33236	
5218	0	33140	
5219	0	33020	
5220	0	32984	
5221	0	33008	
5222	0	32988	
5223	0	32926	
5224	0	32868	
5225	0	32840	
5226	0	32864	
5227	0	32920	
5228	0	33024	
5229	0	33160	
5230	0	33296	
5231	0	33376	
5232	0	33440	
5233	0	33432	
5234	0	33340	
5235	0	33248	
5236	0	33164	
5237	0	33064	
5238	0	32928	
5239	0	32808	
5240	0	32684	
5241	0	32596	
5242	0	32488	
5243	0	32404	
5244	0	32424	
5245	0	32432	
5246	0	32432	
5247	0	32436	
5248	0	32408	
5249	0	32360	
5250	0	32380	
5251	0	32436	
5252	0	32464	
5253	0	32464	
5254	0	32548	
5255	0	32644	
5256	0	32768	
5257	0	32848	
5258	0	32880	
5259	0	32860	
5260	0	32844	
5261	0	32846	
5262	0	32880	
5263	0	32924	
5264	0	32936	
5265	0	32984	
5266	0	33020	
5267	0	33024	
5268	0	33040	
5269	0	33080	
5270	0	33100	
5271	0	33120	
5272	0	33168	
5273	0	33224	
5274	0	33280	
5275	0	33368	
5276	0	33442	
5277	0	33486	
5278	0	33492	
5279	0	33466	
5280	0	33444	
5281	0	33432	
5282	0	33432	
5283	0	33420	
5284	0	33392	
5285	0	33320	
5286	0	33232	
5287	0	33176	
5288	0	33140	
5289	0	33084	
5290	0	33016	
5291	0	32904	
5292	0	32724	
5293	0	32512	
5294	0	32448	
5295	0	32516	
5296	0	32632	
5297	0	32776	
5298	0	32924	
5299	0	33072	
5300	0	33248	
5301	0	33388	
5302	0	33440	
5303	0	33464	
5304	0	33440	
5305	0	33364	
5306	0	33216	
5307	0	33076	
5308	0	32904	
5309	0	32680	
5310	0	32464	
5311	0	32328	
5312	0	32296	
5313	0	32324	
5314	0	32376	
5315	0	32412	
5316	0	32396	
5317	0	32320	
5318	0	32200	
5319	0	32168	
5320	0	32192	
5321	0	32284	
5322	0	32376	
5323	0	32436	
5324	0	32516	
5325	0	32600	
5326	0	32680	
5327	0	32748	
5328	0	32824	
5329	0	32936	
5330	0	33064	
5331	0	33196	
5332	0	33320	
5333	0	33376	
5334	0	33372	
5335	0	33232	
5336	0	33156	
5337	0	33156	
5338	0	33200	
5339	0	33240	
5340	0	33332	
5341	0	33458	
5342	0	33624	
5343	0	33832	
5344	0	34056	
5345	0	34256	
5346	0	34396	
5347	0	34516	
5348	0	34644	
5349	0	34744	
5350	0	34824	
5351	0	34908	
5352	0	34996	
5353	0	35052	
5354	0	35058	
5355	0	35040	
5356	0	35024	
5357	0	35020	
5358	0	35022	
5359	0	35004	
5360	0	34936	
5361	0	34864	
5362	0	34904	
5363	0	35040	
5364	0	35360	
5365	0	35810	
5366	0	36296	
5367	0	36768	
5368	0	37168	
5369	0	37444	
5370	0	37612	
5371	0	37722	
5372	0	37844	
5373	0	38028	
5374	0	38196	
5375	0	38276	
5376	0	38256	
5377	0	38304	
5378	0	38312	
5379	0	38256	
5380	0	38152	
5381	0	37972	
5382	0	37668	
5383	0	37228	
5384	0	36576	
5385	0	35860	
5386	0	35296	
5387	0	35020	
5388	0	34976	
5389	0	35048	
5390	0	35156	
5391	0	35252	
5392	0	35312	
5393	0	35264	
5394	0	35084	
5395	0	34872	
5396	0	34720	
5397	0	34604	
5398	0	34480	
5399	0	34392	
5400	0	34280	
5401	0	34116	
5402	0	33952	
5403	0	33756	
5404	0	33508	
5405	0	33232	
5406	0	32976	
5407	0	32752	
5408	0	32552	
5409	0	32396	
5410	0	32264	
5411	0	32164	
5412	0	32048	
5413	0	31928	
5414	0	31844	
5415	0	31778	
5416	0	31716	
5417	0	31668	
5418	0	31592	
5419	0	31516	
5420	0	31468	
5421	0	31480	
5422	0	31488	
5423	0	31520	
5424	0	31504	
5425	0	31464	
5426	0	31412	
5427	0	31360	
5428	0	31346	
5429	0	31296	
5430	0	31252	
5431	0	31228	
5432	0	31212	
5433	0	31232	
5434	0	31240	
5435	0	31280	
5436	0	31352	
5437	0	31368	
5438	0	31380	
5439	0	31352	
5440	0	31336	
5441	0	31368	
5442	0	31400	
5443	0	31440	
5444	0	31536	
5445	0	31628	
5446	0	31696	
5447	0	31760	
5448	0	31768	
5449	0	31748	
5450	0	31672	
5451	0	31588	
5452	0	31500	
5453	0	31338	
5454	0	31104	
5455	0	30880	
5456	0	30732	
5457	0	30576	
5458	0	30370	
5459	0	30180	
5460	0	29940	
5461	0	29584	
5462	0	29236	
5463	0	29008	
5464	0	28868	
5465	0	28760	
5466	0	28744	
5467	0	28896	
5468	0	29176	
5469	0	29640	
5470	0	30220	
5471	0	31016	
5472	0	32020	
5473	0	33412	
5474	0	35008	
5475	0	36960	
5476	0	39504	
5477	0	42376	
5478	0	45452	
5479	0	48764	
5480	0	52448	
5481	0	56456	
5482	0	60352	
5483	0	62768	
5484	0	64028	
5485	0	64656	
5486	0	64936	
5487	0	65052	
5488	0	65032	
5489	0	64976	
5490	0	64880	
5491	0	64788	
5492	0	64672	
5493	0	64560	
5494	0	64428	
5495	0	64320	
5496	0	64188	
5497	0	64060	
5498	0	63956	
5499	0	63840	
5500	0	63704	
5501	0	63584	
5502	0	63464	
5503	0	63352	
5504	0	63228	
5505	0	63120	
5506	0	63008	
5507	0	62880	
5508	0	60772	
5509	0	55304	
5510	0	50224	
5511	0	45516	
5512	0	41584	
5513	0	38444	
5514	0	35804	
5515	0	33508	
5516	0	31604	
5517	0	30020	
5518	0	28712	
5519	0	27704	
5520	0	26976	
5521	0	26448	
5522	0	26020	
5523	0	25604	
5524	0	25160	
5525	0	24778	
5526	0	24472	
5527	0	24292	
5528	0	24132	
5529	0	23968	
5530	0	23784	
5531	0	23612	
5532	0	23418	
5533	0	23204	
5534	0	23024	
5535	0	22828	
5536	0	22664	
5537	0	22500	
5538	0	22344	
5539	0	22216	
5540	0	22090	
5541	0	21978	
5542	0	21880	
5543	0	21804	
5544	0	21768	
5545	0	21746	
5546	0	21712	
5547	0	21700	
5548	0	21716	
5549	0	21788	
5550	0	21852	
5551	0	21912	
5552	0	21984	
5553	0	22048	
5554	0	22074	
5555	0	22104	
5556	0	22124	
5557	0	22168	
5558	0	22188	
5559	0	22240	
5560	0	22288	
5561	0	22464	
5562	0	22672	
5563	0	22784	
5564	0	22856	
5565	0	22976	
5566	0	23096	
5567	0	23260	
5568	0	23372	
5569	0	23412	
5570	0	23468	
5571	0	23538	
5572	0	23602	
5573	0	23684	
5574	0	23704	
5575	0	23696	
5576	0	23660	
5577	0	23644	
5578	0	23664	
5579	0	23756	
5580	0	23784	
5581	0	23820	
5582	0	23860	
5583	0	23970	
5584	0	24132	
5585	0	24260	
5586	0	24424	
5587	0	24580	
5588	0	24680	
5589	0	24754	
5590	0	24888	
5591	0	25052	
5592	0	25140	
5593	0	25216	
5594	0	25326	
5595	0	25436	
5596	0	25538	
5597	0	25636	
5598	0	25692	
5599	0	25742	
5600	0	25776	
5601	0	25816	
5602	0	25852	
5603	0	25780	
5604	0	25676	
5605	0	25672	
5606	0	25780	
5607	0	25994	
5608	0	26240	
5609	0	26528	
5610	0	26868	
5611	0	27224	
5612	0	27522	
5613	0	27804	
5614	0	28084	
5615	0	28386	
5616	0	28720	
5617	0	29052	
5618	0	29408	
5619	0	29704	
5620	0	29848	
5621	0	29936	
5622	0	29976	
5623	0	29976	
5624	0	29988	
5625	0	30016	
5626	0	30028	
5627	0	29904	
5628	0	29576	
5629	0	29080	
5630	0	28628	
5631	0	28360	
5632	0	28218	
5633	0	28068	
5634	0	27856	
5635	0	27668	
5636	0	27572	
5637	0	27492	
5638	0	27416	
5639	0	27496	
5640	0	27680	
5641	0	27944	
5642	0	28176	
5643	0	28436	
5644	0	28700	
5645	0	28928	
5646	0	29088	
5647	0	29172	
5648	0	29256	
5649	0	29328	
5650	0	29392	
5651	0	29488	
5652	0	29684	
5653	0	29776	
5654	0	29744	
5655	0	29684	
5656	0	29672	
5657	0	29784	
5658	0	29968	
5659	0	30162	
5660	0	30344	
5661	0	30534	
5662	0	30608	
5663	0	30688	
5664	0	30748	
5665	0	30852	
5666	0	30918	
5667	0	31008	
5668	0	31128	
5669	0	31296	
5670	0	31524	
5671	0	31676	
5672	0	31796	
5673	0	31920	
5674	0	32040	
5675	0	32112	
5676	0	32132	
5677	0	32108	
5678	0	32124	
5679	0	32180	
5680	0	32280	
5681	0	32412	
5682	0	32552	
5683	0	32658	
5684	0	32732	
5685	0	32820	
5686	0	32916	
5687	0	33016	
5688	0	33120	
5689	0	33232	
5690	0	33384	
5691	0	33536	
5692	0	33696	
5693	0	33776	
5694	0	33804	
5695	0	33824	
5696	0	33880	
5697	0	33980	
5698	0	34104	
5699	0	34188	
5700	0	34218	
5701	0	34168	
5702	0	34016	
5703	0	33804	
5704	0	33528	
5705	0	33204	
5706	0	32908	
5707	0	32676	
5708	0	32550	
5709	0	32616	
5710	0	32816	
5711	0	32986	
5712	0	33072	
5713	0	33098	
5714	0	33112	
5715	0	33168	
5716	0	33316	
5717	0	33488	
5718	0	33684	
5719	0	33940	
5720	0	34204	
5721	0	34384	
5722	0	34480	
5723	0	34508	
5724	0	34556	
5725	0	34660	
5726	0	34700	
5727	0	34648	
5728	0	34560	
5729	0	34448	
5730	0	34264	
5731	0	33952	
5732	0	33584	
5733	0	33176	
5734	0	32784	
5735	0	32512	
5736	0	32220	
5737	0	31904	
5738	0	31652	
5739	0	31492	
5740	0	31404	
5741	0	31376	
5742	0	31404	
5743	0	31520	
5744	0	31678	
5745	0	31752	
5746	0	31824	
5747	0	31924	
5748	0	31976	
5749	0	31956	
5750	0	31892	
5751	0	31796	
5752	0	31720	
5753	0	31704	
5754	0	31744	
5755	0	31856	
5756	0	31988	
5757	0	32068	
5758	0	32036	
5759	0	31944	
5760	0	31896	
5761	0	31832	
5762	0	31776	
5763	0	31778	
5764	0	31792	
5765	0	31794	
5766	0	31788	
5767	0	31800	
5768	0	31804	
5769	0	31840	
5770	0	31848	
5771	0	31900	
5772	0	31934	
5773	0	31876	
5774	0	31844	
5775	0	31864	
5776	0	31852	
5777	0	31776	
5778	0	31728	
5779	0	31648	
5780	0	31520	
5781	0	31380	
5782	0	31196	
5783	0	31016	
5784	0	31012	
5785	0	31144	
5786	0	31408	
5787	0	31648	
5788	0	31842	
5789	0	32016	
5790	0	32132	
5791	0	32240	
5792	0	32384	
5793	0	32532	
5794	0	32604	
5795	0	32608	
5796	0	32570	
5797	0	32484	
5798	0	32432	
5799	0	32352	
5800	0	32252	
5801	0	32096	
5802	0	31894	
5803	0	31664	
5804	0	31432	
5805	0	31284	
5806	0	31164	
5807	0	31028	
5808	0	30840	
5809	0	30616	
5810	0	30552	
5811	0	30724	
5812	0	31052	
5813	0	31396	
5814	0	31724	
5815	0	31996	
5816	0	32216	
5817	0	32408	
5818	0	32460	
5819	0	32444	
5820	0	32424	
5821	0	32380	
5822	0	32324	
5823	0	32252	
5824	0	32212	
5825	0	32212	
5826	0	32236	
5827	0	32248	
5828	0	32264	
5829	0	32344	
5830	0	32452	
5831	0	32580	
5832	0	32744	
5833	0	32900	
5834	0	32972	
5835	0	33016	
5836	0	33092	
5837	0	33220	
5838	0	33284	
5839	0	33336	
5840	0	33474	
5841	0	33640	
5842	0	33776	
5843	0	33812	
5844	0	33812	
5845	0	33804	
5846	0	33780	
5847	0	33668	
5848	0	33480	
5849	0	33252	
5850	0	32932	
5851	0	32632	
5852	0	32380	
5853	0	32324	
5854	0	32376	
5855	0	32448	
5856	0	32512	
5857	0	32568	
5858	0	32600	
5859	0	32604	
5860	0	32612	
5861	0	32620	
5862	0	32648	
5863	0	32684	
5864	0	32712	
5865	0	32740	
5866	0	32736	
5867	0	32780	
5868	0	32772	
5869	0	32700	
5870	0	32668	
5871	0	32712	
5872	0	32772	
5873	0	32840	
5874	0	32916	
5875	0	32984	
5876	0	33040	
5877	0	33076	
5878	0	33066	
5879	0	33056	
5880	0	33096	
5881	0	33112	
5882	0	33072	
5883	0	33036	
5884	0	32984	
5885	0	32896	
5886	0	32896	
5887	0	32880	
5888	0	32876	
5889	0	32864	
5890	0	32844	
5891	0	32848	
5892	0	32852	
5893	0	32826	
5894	0	32748	
5895	0	32688	
5896	0	32624	
5897	0	32548	
5898	0	32542	
5899	0	32516	
5900	0	32396	
5901	0	32266	
5902	0	32244	
5903	0	32278	
5904	0	32304	
5905	0	32292	
5906	0	32316	
5907	0	32388	
5908	0	32432	
5909	0	32504	
5910	0	32576	
5911	0	32620	
5912	0	32624	
5913	0	32650	
5914	0	32666	
5915	0	32640	
5916	0	32544	
5917	0	32420	
5918	0	32370	
5919	0	32380	
5920	0	32416	
5921	0	32484	
5922	0	32572	
5923	0	32672	
5924	0	32788	
5925	0	32896	
5926	0	32901	
5927	0	32876	
5928	0	32844	
5929	0	32796	
5930	0	32792	
5931	0	32768	
5932	0	32712	
5933	0	32720	
5934	0	32736	
5935	0	32780	
5936	0	32832	
5937	0	32872	
5938	0	32896	
5939	0	32900	
5940	0	32916	
5941	0	32960	
5942	0	32992	
5943	0	32928	
5944	0	32820	
5945	0	32752	
5946	0	32720	
5947	0	32812	
5948	0	32880	
5949	0	32824	
5950	0	32772	
5951	0	32634	
5952	0	32456	
5953	0	32298	
5954	0	32208	
5955	0	32276	
5956	0	32332	
5957	0	32420	
5958	0	32556	
5959	0	32692	
5960	0	32852	
5961	0	32976	
5962	0	33064	
5963	0	33156	
5964	0	33292	
5965	0	33432	
5966	0	33530	
5967	0	33636	
5968	0	33776	
5969	0	33968	
5970	0	34144	
5971	0	34280	
5972	0	34400	
5973	0	34444	
5974	0	34432	
5975	0	34344	
5976	0	34256	
5977	0	34208	
5978	0	34184	
5979	0	34136	
5980	0	34100	
5981	0	34152	
5982	0	34336	
5983	0	34624	
5984	0	34956	
5985	0	35340	
5986	0	35752	
5987	0	36092	
5988	0	36304	
5989	0	36400	
5990	0	36432	
5991	0	36480	
5992	0	36572	
5993	0	36680	
5994	0	36752	
5995	0	36708	
5996	0	36640	
5997	0	36672	
5998	0	36844	
5999	0	36984	
6000	0	37068	
6001	0	37124	
6002	0	37088	
6003	0	36988	
6004	0	36808	
6005	0	36648	
6006	0	36504	
6007	0	36332	
6008	0	36248	
6009	0	36208	
6010	0	36160	
6011	0	36144	
6012	0	36068	
6013	0	35896	
6014	0	35672	
6015	0	35484	
6016	0	35324	
6017	0	35160	
6018	0	35052	
6019	0	34864	
6020	0	34616	
6021	0	34360	
6022	0	34120	
6023	0	33816	
6024	0	33504	
6025	0	33184	
6026	0	32848	
6027	0	32560	
6028	0	32332	
6029	0	32140	
6030	0	31930	
6031	0	31740	
6032	0	31552	
6033	0	31296	
6034	0	31080	
6035	0	30952	
6036	0	30948	
6037	0	31016	
6038	0	31092	
6039	0	31162	
6040	0	31260	
6041	0	31328	
6042	0	31368	
6043	0	31420	
6044	0	31504	
6045	0	31548	
6046	0	31540	
6047	0	31496	
6048	0	31480	
6049	0	31496	
6050	0	31516	
6051	0	31552	
6052	0	31554	
6053	0	31538	
6054	0	31528	
6055	0	31500	
6056	0	31432	
6057	0	31268	
6058	0	31148	
6059	0	31052	
6060	0	30992	
6061	0	30980	
6062	0	30948	
6063	0	30964	
6064	0	31088	
6065	0	31300	
6066	0	31492	
6067	0	31588	
6068	0	31612	
6069	0	31656	
6070	0	31744	
6071	0	31748	
6072	0	31692	
6073	0	31568	
6074	0	31448	
6075	0	31312	
6076	0	31108	
6077	0	30920	
6078	0	30748	
6079	0	30592	
6080	0	30400	
6081	0	30156	
6082	0	29900	
6083	0	29680	
6084	0	29492	
6085	0	29404	
6086	0	29440	
6087	0	29530	
6088	0	29840	
6089	0	30464	
6090	0	31356	
6091	0	32612	
6092	0	34264	
6093	0	36036	
6094	0	38080	
6095	0	40544	
6096	0	43496	
6097	0	46760	
6098	0	50272	
6099	0	54200	
6100	0	58544	
6101	0	61928	
6102	0	63716	
6103	0	64644	
6104	0	65088	
6105	0	65284	
6106	0	65308	
6107	0	65272	
6108	0	65200	
6109	0	65104	
6110	0	65004	
6111	0	64880	
6112	0	64760	
6113	0	64632	
6114	0	64500	
6115	0	64392	
6116	0	64272	
6117	0	64144	
6118	0	64020	
6119	0	63904	
6120	0	63780	
6121	0	63652	
6122	0	63532	
6123	0	63420	
6124	0	63300	
6125	0	63176	
6126	0	63056	
6127	0	61676	
6128	0	56268	
6129	0	50952	
6130	0	45832	
6131	0	41484	
6132	0	38008	
6133	0	35348	
6134	0	33356	
6135	0	31752	
6136	0	30392	
6137	0	29216	
6138	0	28212	
6139	0	27424	
6140	0	26876	
6141	0	26440	
6142	0	25960	
6143	0	25412	
6144	0	24840	
6145	0	24324	
6146	0	23912	
6147	0	23656	
6148	0	23464	
6149	0	23294	
6150	0	23108	
6151	0	22920	
6152	0	22712	
6153	0	22496	
6154	0	22324	
6155	0	22202	
6156	0	22032	
6157	0	21856	
6158	0	21748	
6159	0	21688	
6160	0	21596	
6161	0	21464	
6162	0	21404	
6163	0	21392	
6164	0	21396	
6165	0	21440	
6166	0	21472	
6167	0	21412	
6168	0	21336	
6169	0	21308	
6170	0	21372	
6171	0	21440	
6172	0	21472	
6173	0	21488	
6174	0	21472	
6175	0	21512	
6176	0	21628	
6177	0	21784	
6178	0	22000	
6179	0	22144	
6180	0	22268	
6181	0	22328	
6182	0	22306	
6183	0	22220	
6184	0	22028	
6185	0	21936	
6186	0	21928	
6187	0	21988	
6188	0	22148	
6189	0	22340	
6190	0	22496	
6191	0	22616	
6192	0	22712	
6193	0	22876	
6194	0	23018	
6195	0	23172	
6196	0	23308	
6197	0	23372	
6198	0	23424	
6199	0	23496	
6200	0	23596	
6201	0	23736	
6202	0	23876	
6203	0	24100	
6204	0	24336	
6205	0	24500	
6206	0	24642	
6207	0	24771	
6208	0	24876	
6209	0	24928	
6210	0	24924	
6211	0	24904	
6212	0	24828	
6213	0	24726	
6214	0	24704	
6215	0	24821	
6216	0	24988	
6217	0	25104	
6218	0	25168	
6219	0	25274	
6220	0	25434	
6221	0	25616	
6222	0	25756	
6223	0	25852	
6224	0	25916	
6225	0	25916	
6226	0	25856	
6227	0	25854	
6228	0	25896	
6229	0	26004	
6230	0	26224	
6231	0	26442	
6232	0	26632	
6233	0	26824	
6234	0	26988	
6235	0	27092	
6236	0	27212	
6237	0	27340	
6238	0	27432	
6239	0	27524	
6240	0	27660	
6241	0	27764	
6242	0	27836	
6243	0	27864	
6244	0	27864	
6245	0	27808	
6246	0	27780	
6247	0	27808	
6248	0	27896	
6249	0	28080	
6250	0	28268	
6251	0	28396	
6252	0	28468	
6253	0	28520	
6254	0	28588	
6255	0	28656	
6256	0	28712	
6257	0	28672	
6258	0	28604	
6259	0	28500	
6260	0	28520	
6261	0	28700	
6262	0	28944	
6263	0	29220	
6264	0	29520	
6265	0	29804	
6266	0	30060	
6267	0	30260	
6268	0	30400	
6269	0	30480	
6270	0	30488	
6271	0	30504	
6272	0	30488	
6273	0	30552	
6274	0	30660	
6275	0	30824	
6276	0	30980	
6277	0	31132	
6278	0	31188	
6279	0	31196	
6280	0	31264	
6281	0	31368	
6282	0	31464	
6283	0	31520	
6284	0	31512	
6285	0	31458	
6286	0	31376	
6287	0	31368	
6288	0	31468	
6289	0	31656	
6290	0	31866	
6291	0	32100	
6292	0	32316	
6293	0	32448	
6294	0	32540	
6295	0	32564	
6296	0	32568	
6297	0	32560	
6298	0	32536	
6299	0	32480	
6300	0	32416	
6301	0	32372	
6302	0	32304	
6303	0	32192	
6304	0	32132	
6305	0	32202	
6306	0	32360	
6307	0	32528	
6308	0	32668	
6309	0	32784	
6310	0	32868	
6311	0	32964	
6312	0	33086	
6313	0	33168	
6314	0	33160	
6315	0	33104	
6316	0	32988	
6317	0	32956	
6318	0	32948	
6319	0	32900	
6320	0	32848	
6321	0	32876	
6322	0	33008	
6323	0	33112	
6324	0	33116	
6325	0	33060	
6326	0	32956	
6327	0	32864	
6328	0	32828	
6329	0	32780	
6330	0	32740	
6331	0	32712	
6332	0	32724	
6333	0	32820	
6334	0	33020	
6335	0	33272	
6336	0	33464	
6337	0	33576	
6338	0	33712	
6339	0	33856	
6340	0	33952	
6341	0	33944	
6342	0	33848	
6343	0	33648	
6344	0	33416	
6345	0	33312	
6346	0	33264	
6347	0	33250	
6348	0	33244	
6349	0	33216	
6350	0	33172	
6351	0	33130	
6352	0	33168	
6353	0	33292	
6354	0	33372	
6355	0	33344	
6356	0	33272	
6357	0	33140	
6358	0	32952	
6359	0	32772	
6360	0	32532	
6361	0	32328	
6362	0	32224	
6363	0	32196	
6364	0	32196	
6365	0	32244	
6366	0	32264	
6367	0	32240	
6368	0	32128	
6369	0	32032	
6370	0	31928	
6371	0	31848	
6372	0	31840	
6373	0	31868	
6374	0	31920	
6375	0	32024	
6376	0	32052	
6377	0	32036	
6378	0	32020	
6379	0	31968	
6380	0	31912	
6381	0	31800	
6382	0	31632	
6383	0	31444	
6384	0	31316	
6385	0	31320	
6386	0	31352	
6387	0	31388	
6388	0	31452	
6389	0	31488	
6390	0	31456	
6391	0	31384	
6392	0	31296	
6393	0	31256	
6394	0	31256	
6395	0	31284	
6396	0	31292	
6397	0	31286	
6398	0	31352	
6399	0	31440	
6400	0	31464	
6401	0	31392	
6402	0	31340	
6403	0	31338	
6404	0	31408	
6405	0	31456	
6406	0	31476	
6407	0	31552	
6408	0	31636	
6409	0	31620	
6410	0	31596	
6411	0	31612	
6412	0	31648	
6413	0	31656	
6414	0	31664	
6415	0	31608	
6416	0	31552	
6417	0	31536	
6418	0	31584	
6419	0	31664	
6420	0	31916	
6421	0	32144	
6422	0	32288	
6423	0	32432	
6424	0	32580	
6425	0	32672	
6426	0	32696	
6427	0	32736	
6428	0	32914	
6429	0	32920	
6430	0	32832	
6431	0	32712	
6432	0	32536	
6433	0	32400	
6434	0	32344	
6435	0	32352	
6436	0	32352	
6437	0	32352	
6438	0	32424	
6439	0	32568	
6440	0	32712	
6441	0	32796	
6442	0	32756	
6443	0	32780	
6444	0	32786	
6445	0	32816	
6446	0	32848	
6447	0	32820	
6448	0	32712	
6449	0	32652	
6450	0	32752	
6451	0	32964	
6452	0	33160	
6453	0	33240	
6454	0	33176	
6455	0	33040	
6456	0	32908	
6457	0	32872	
6458	0	32920	
6459	0	33016	
6460	0	33160	
6461	0	33388	
6462	0	33568	
6463	0	33640	
6464	0	33640	
6465	0	33620	
6466	0	33580	
6467	0	33542	
6468	0	33480	
6469	0	33428	
6470	0	33344	
6471	0	33200	
6472	0	32996	
6473	0	32848	
6474	0	32756	
6475	0	32664	
6476	0	32674	
6477	0	32672	
6478	0	32608	
6479	0	32632	
6480	0	32740	
6481	0	32928	
6482	0	33088	
6483	0	33136	
6484	0	33080	
6485	0	33084	
6486	0	33172	
6487	0	33300	
6488	0	33420	
6489	0	33496	
6490	0	33536	
6491	0	33544	
6492	0	33488	
6493	0	33348	
6494	0	33216	
6495	0	33124	
6496	0	33104	
6497	0	33080	
6498	0	33068	
6499	0	33108	
6500	0	33136	
6501	0	33136	
6502	0	33020	
6503	0	32898	
6504	0	32864	
6505	0	32944	
6506	0	33032	
6507	0	33048	
6508	0	33100	
6509	0	33228	
6510	0	33248	
6511	0	33208	
6512	0	33166	
6513	0	33216	
6514	0	33264	
6515	0	33328	
6516	0	33368	
6517	0	33320	
6518	0	33232	
6519	0	33124	
6520	0	33016	
6521	0	32940	
6522	0	32948	
6523	0	32992	
6524	0	33004	
6525	0	32972	
6526	0	32940	
6527	0	32952	
6528	0	33008	
6529	0	33016	
6530	0	33028	
6531	0	33072	
6532	0	33116	
6533	0	33156	
6534	0	33096	
6535	0	33024	
6536	0	33060	
6537	0	33100	
6538	0	33144	
6539	0	33208	
6540	0	33156	
6541	0	33088	
6542	0	33000	
6543	0	32932	
6544	0	32884	
6545	0	32912	
6546	0	32960	
6547	0	32940	
6548	0	32904	
6549	0	32900	
6550	0	32928	
6551	0	33000	
6552	0	33072	
6553	0	33092	
6554	0	33128	
6555	0	33180	
6556	0	33200	
6557	0	33180	
6558	0	33168	
6559	0	33136	
6560	0	33108	
6561	0	33156	
6562	0	33348	
6563	0	33610	
6564	0	33868	
6565	0	34144	
6566	0	34412	
6567	0	34588	
6568	0	34664	
6569	0	34768	
6570	0	34848	
6571	0	34808	
6572	0	34628	
6573	0	34304	
6574	0	33984	
6575	0	33864	
6576	0	33840	
6577	0	33940	
6578	0	34172	
6579	0	34552	
6580	0	35084	
6581	0	35632	
6582	0	36172	
6583	0	36532	
6584	0	36724	
6585	0	36848	
6586	0	36800	
6587	0	36628	
6588	0	36368	
6589	0	36248	
6590	0	36224	
6591	0	36332	
6592	0	36484	
6593	0	36632	
6594	0	36740	
6595	0	36876	
6596	0	37016	
6597	0	37128	
6598	0	37152	
6599	0	37128	
6600	0	37042	
6601	0	36940	
6602	0	36744	
6603	0	36604	
6604	0	36592	
6605	0	36636	
6606	0	36660	
6607	0	36640	
6608	0	36556	
6609	0	36332	
6610	0	35988	
6611	0	35680	
6612	0	35460	
6613	0	35228	
6614	0	35000	
6615	0	34796	
6616	0	34584	
6617	0	34444	
6618	0	34408	
6619	0	34316	
6620	0	34088	
6621	0	33824	
6622	0	33528	
6623	0	33232	
6624	0	32986	
6625	0	32800	
6626	0	32576	
6627	0	32308	
6628	0	32056	
6629	0	31912	
6630	0	31920	
6631	0	32020	
6632	0	32132	
6633	0	32152	
6634	0	32112	
6635	0	32044	
6636	0	31964	
6637	0	31864	
6638	0	31748	
6639	0	31628	
6640	0	31608	
6641	0	31680	
6642	0	31714	
6643	0	31696	
6644	0	31646	
6645	0	31674	
6646	0	31784	
6647	0	31856	
6648	0	31872	
6649	0	31808	
6650	0	31632	
6651	0	31492	
6652	0	31402	
6653	0	31304	
6654	0	31098	
6655	0	30972	
6656	0	30952	
6657	0	31092	
6658	0	31328	
6659	0	31524	
6660	0	31584	
6661	0	31576	
6662	0	31620	
6663	0	31760	
6664	0	31892	
6665	0	31928	
6666	0	31960	
6667	0	31976	
6668	0	31946	
6669	0	31752	
6670	0	31476	
6671	0	31256	
6672	0	31096	
6673	0	30954	
6674	0	30824	
6675	0	30721	
6676	0	30576	
6677	0	30420	
6678	0	30216	
6679	0	29906	
6680	0	29696	
6681	0	29616	
6682	0	29588	
6683	0	29688	
6684	0	29946	
6685	0	30452	
6686	0	31356	
6687	0	32608	
6688	0	34060	
6689	0	35720	
6690	0	37436	
6691	0	39332	
6692	0	41592	
6693	0	44268	
6694	0	47248	
6695	0	50536	
6696	0	54368	
6697	0	58724	
6698	0	62024	
6699	0	63800	
6700	0	64708	
6701	0	65152	
6702	0	65328	
6703	0	65368	
6704	0	65336	
6705	0	65256	
6706	0	65156	
6707	0	65048	
6708	0	64928	
6709	0	64808	
6710	0	64704	
6711	0	64576	
6712	0	64440	
6713	0	64312	
6714	0	64192	
6715	0	64080	
6716	0	63944	
6717	0	63824	
6718	0	63704	
6719	0	63578	
6720	0	63464	
6721	0	63332	
6722	0	63232	
6723	0	63112	
6724	0	63000	
6725	0	59012	
6726	0	53376	
6727	0	47776	
6728	0	42712	
6729	0	38700	
6730	0	35636	
6731	0	33376	
6732	0	31780	
6733	0	30576	
6734	0	29454	
6735	0	28440	
6736	0	27668	
6737	0	27116	
6738	0	26697	
6739	0	26316	
6740	0	25920	
6741	0	25420	
6742	0	24768	
6743	0	24068	
6744	0	23464	
6745	0	23052	
6746	0	22812	
6747	0	22786	
6748	0	22952	
6749	0	23178	
6750	0	23316	
6751	0	23328	
6752	0	23264	
6753	0	23074	
6754	0	22812	
6755	0	22584	
6756	0	22356	
6757	0	22108	
6758	0	21884	
6759	0	21716	
6760	0	21552	
6761	0	21416	
6762	0	21428	
6763	0	21400	
6764	0	21304	
6765	0	21178	
6766	0	21058	
6767	0	21000	
6768	0	21114	
6769	0	21218	
6770	0	21372	
6771	0	21560	
6772	0	21804	
6773	0	22048	
6774	0	22202	
6775	0	22344	
6776	0	22464	
6777	0	22516	
6778	0	22526	
6779	0	22490	
6780	0	22468	
6781	0	22456	
6782	0	22496	
6783	0	22628	
6784	0	22808	
6785	0	22960	
6786	0	22968	
6787	0	22904	
6788	0	22840	
6789	0	22852	
6790	0	22968	
6791	0	23196	
6792	0	23370	
6793	0	23512	
6794	0	23636	
6795	0	23764	
6796	0	23830	
6797	0	23828	
6798	0	23832	
6799	0	23892	
6800	0	23894	
6801	0	23888	
6802	0	23968	
6803	0	24130	
6804	0	24332	
6805	0	24516	
6806	0	24708	
6807	0	24842	
6808	0	24964	
6809	0	25056	
6810	0	25106	
6811	0	25194	
6812	0	25280	
6813	0	25360	
6814	0	25496	
6815	0	25602	
6816	0	25636	
6817	0	25648	
6818	0	25610	
6819	0	25564	
6820	0	25568	
6821	0	25652	
6822	0	25724	
6823	0	25876	
6824	0	26060	
6825	0	26248	
6826	0	26388	
6827	0	26496	
6828	0	26652	
6829	0	26788	
6830	0	26928	
6831	0	27136	
6832	0	27312	
6833	0	27292	
6834	0	27168	
6835	0	27124	
6836	0	27096	
6837	0	27116	
6838	0	27224	
6839	0	27373	
6840	0	27536	
6841	0	27680	
6842	0	27814	
6843	0	28010	
6844	0	28172	
6845	0	28368	
6846	0	28556	
6847	0	28644	
6848	0	28748	
6849	0	28876	
6850	0	28904	
6851	0	28908	
6852	0	28996	
6853	0	29084	
6854	0	29074	
6855	0	29028	
6856	0	29016	
6857	0	29109	
6858	0	29192	
6859	0	29266	
6860	0	29404	
6861	0	29628	
6862	0	29780	
6863	0	29852	
6864	0	29882	
6865	0	29888	
6866	0	29832	
6867	0	29800	
6868	0	29864	
6869	0	30064	
6870	0	30272	
6871	0	30468	
6872	0	30692	
6873	0	30848	
6874	0	30976	
6875	0	31056	
6876	0	31024	
6877	0	30956	
6878	0	30988	
6879	0	31004	
6880	0	30992	
6881	0	31084	
6882	0	31308	
6883	0	31576	
6884	0	31908	
6885	0	32232	
6886	0	32436	
6887	0	32584	
6888	0	32704	
6889	0	32696	
6890	0	32692	
6891	0	32688	
6892	0	32644	
6893	0	32528	
6894	0	32504	
6895	0	32468	
6896	0	32430	
6897	0	32392	
6898	0	32370	
6899	0	32352	
6900	0	32328	
6901	0	32288	
6902	0	32252	
6903	0	32236	
6904	0	32266	
6905	0	32322	
6906	0	32352	
6907	0	32416	
6908	0	32516	
6909	0	32704	
6910	0	32880	
6911	0	32984	
6912	0	33036	
6913	0	33076	
6914	0	33080	
6915	0	33026	
6916	0	32940	
6917	0	32804	
6918	0	32716	
6919	0	32672	
6920	0	32712	
6921	0	32808	
6922	0	32936	
6923	0	33032	
6924	0	33056	
6925	0	33084	
6926	0	33098	
6927	0	33050	
6928	0	33088	
6929	0	33176	
6930	0	33240	
6931	0	33300	
6932	0	33408	
6933	0	33528	
6934	0	33580	
6935	0	33432	
6936	0	33224	
6937	0	33100	
6938	0	33024	
6939	0	33008	
6940	0	32984	
6941	0	33082	
6942	0	33152	
6943	0	33176	
6944	0	33164	
6945	0	33124	
6946	0	33108	
6947	0	33072	
6948	0	33104	
6949	0	33196	
6950	0	33236	
6951	0	33192	
6952	0	33136	
6953	0	32960	
6954	0	32720	
6955	0	32492	
6956	0	32288	
6957	0	32088	
6958	0	31904	
6959	0	31812	
6960	0	31736	
6961	0	31636	
6962	0	31552	
6963	0	31564	
6964	0	31704	
6965	0	31932	
6966	0	32148	
6967	0	32244	
6968	0	32208	
6969	0	32136	
6970	0	32010	
6971	0	31936	
6972	0	31924	
6973	0	31848	
6974	0	31800	
6975	0	31792	
6976	0	31704	
6977	0	31584	
6978	0	31480	
6979	0	31392	
6980	0	31320	
6981	0	31296	
6982	0	31344	
6983	0	31340	
6984	0	31318	
6985	0	31356	
6986	0	31440	
6987	0	31484	
6988	0	31512	
6989	0	31476	
6990	0	31392	
6991	0	31320	
6992	0	31228	
6993	0	31192	
6994	0	31204	
6995	0	31200	
6996	0	31172	
6997	0	31176	
6998	0	31228	
6999	0	31350	
7000	0	31440	
7001	0	31468	
7002	0	31528	
7003	0	31580	
7004	0	31548	
7005	0	31492	
7006	0	31408	
7007	0	31352	
7008	0	31320	
7009	0	31336	
7010	0	31464	
7011	0	31612	
7012	0	31780	
7013	0	31946	
7014	0	32092	
7015	0	32176	
7016	0	32200	
7017	0	32162	
7018	0	32192	
7019	0	32288	
7020	0	32348	
7021	0	32344	
7022	0	32300	
7023	0	32304	
7024	0	32344	
7025	0	32424	
7026	0	32492	
7027	0	32568	
7028	0	32600	
7029	0	32580	
7030	0	32564	
7031	0	32504	
7032	0	32432	
7033	0	32356	
7034	0	32344	
7035	0	32366	
7036	0	32384	
7037	0	32476	
7038	0	32560	
7039	0	32602	
7040	0	32716	
7041	0	32832	
7042	0	32848	
7043	0	32776	
7044	0	32640	
7045	0	32616	
7046	0	32692	
7047	0	32848	
7048	0	33000	
7049	0	33096	
7050	0	33156	
7051	0	33160	
7052	0	33032	
7053	0	32904	
7054	0	32828	
7055	0	32788	
7056	0	32810	
7057	0	32844	
7058	0	32832	
7059	0	32876	
7060	0	32956	
7061	0	32980	
7062	0	32882	
7063	0	32724	
7064	0	32684	
7065	0	32752	
7066	0	32924	
7067	0	33092	
7068	0	33240	
7069	0	33338	
7070	0	33376	
7071	0	33348	
7072	0	33212	
7073	0	33088	
7074	0	32996	
7075	0	33002	
7076	0	33096	
7077	0	33144	
7078	0	33180	
7079	0	33232	
7080	0	33332	
7081	0	33408	
7082	0	33472	
7083	0	33464	
7084	0	33416	
7085	0	33376	
7086	0	33300	
7087	0	33224	
7088	0	33176	
7089	0	33172	
7090	0	33140	
7091	0	33116	
7092	0	33116	
7093	0	33152	
7094	0	33200	
7095	0	33164	
7096	0	32984	
7097	0	32832	
7098	0	32728	
7099	0	32696	
7100	0	32704	
7101	0	32744	
7102	0	32784	
7103	0	32864	
7104	0	32952	
7105	0	33056	
7106	0	33132	
7107	0	33120	
7108	0	33066	
7109	0	33096	
7110	0	33144	
7111	0	33154	
7112	0	33152	
7113	0	33124	
7114	0	33090	
7115	0	33060	
7116	0	33008	
7117	0	32946	
7118	0	32836	
7119	0	32704	
7120	0	32642	
7121	0	32672	
7122	0	32768	
7123	0	32844	
7124	0	32880	
7125	0	32936	
7126	0	32992	
7127	0	33072	
7128	0	33112	
7129	0	33072	
7130	0	33028	
7131	0	33056	
7132	0	33128	
7133	0	33112	
7134	0	33040	
7135	0	32948	
7136	0	32792	
7137	0	32670	
7138	0	32624	
7139	0	32586	
7140	0	32536	
7141	0	32596	
7142	0	32808	
7143	0	33136	
7144	0	33504	
7145	0	33840	
7146	0	34088	
7147	0	34268	
7148	0	34368	
7149	0	34392	
7150	0	34372	
7151	0	34328	
7152	0	34252	
7153	0	34164	
7154	0	34096	
7155	0	34128	
7156	0	34208	
7157	0	34260	
7158	0	34288	
7159	0	34300	
7160	0	34290	
7161	0	34204	
7162	0	34152	
7163	0	34164	
7164	0	34280	
7165	0	34552	
7166	0	34960	
7167	0	35428	
7168	0	35880	
7169	0	36148	
7170	0	36320	
7171	0	36480	
7172	0	36604	
7173	0	36592	
7174	0	36496	
7175	0	36288	
7176	0	36184	
7177	0	36164	
7178	0	36220	
7179	0	36356	
7180	0	36580	
7181	0	36808	
7182	0	36976	
7183	0	37064	
7184	0	37052	
7185	0	36920	
7186	0	36748	
7187	0	36700	
7188	0	36744	
7189	0	36776	
7190	0	36772	
7191	0	36692	
7192	0	36592	
7193	0	36472	
7194	0	36348	
7195	0	36188	
7196	0	35928	
7197	0	35648	
7198	0	35328	
7199	0	35024	
7200	0	34756	
7201	0	34592	
7202	0	34456	
7203	0	34360	
7204	0	34224	
7205	0	34060	
7206	0	33796	
7207	0	33448	
7208	0	33092	
7209	0	32764	
7210	0	32496	
7211	0	32326	
7212	0	32184	
7213	0	32096	
7214	0	32048	
7215	0	31976	
7216	0	31784	
7217	0	31644	
7218	0	31472	
7219	0	31348	
7220	0	31310	
7221	0	31248	
7222	0	31276	
7223	0	31436	
7224	0	31620	
7225	0	31796	
7226	0	31884	
7227	0	31940	
7228	0	31920	
7229	0	31828	
7230	0	31680	
7231	0	31560	
7232	0	31456	
7233	0	31376	
7234	0	31336	
7235	0	31274	
7236	0	31252	
7237	0	31260	
7238	0	31252	
7239	0	31284	
7240	0	31364	
7241	0	31472	
7242	0	31588	
7243	0	31650	
7244	0	31700	
7245	0	31768	
7246	0	31860	
7247	0	31976	
7248	0	32016	
7249	0	31928	
7250	0	31740	
7251	0	31572	
7252	0	31436	
7253	0	31348	
7254	0	31264	
7255	0	31173	
7256	0	31076	
7257	0	31000	
7258	0	30912	
7259	0	30844	
7260	0	30824	
7261	0	30754	
7262	0	30620	
7263	0	30460	
7264	0	30252	
7265	0	30004	
7266	0	29776	
7267	0	29600	
7268	0	29620	
7269	0	29840	
7270	0	30288	
7271	0	31072	
7272	0	32136	
7273	0	33444	
7274	0	34992	
7275	0	36660	
7276	0	38444	
7277	0	40640	
7278	0	43340	
7279	0	46392	
7280	0	49608	
7281	0	53184	
7282	0	57192	
7283	0	61080	
7284	0	63340	
7285	0	64512	
7286	0	65100	
7287	0	65368	
7288	0	65444	
7289	0	65416	
7290	0	65360	
7291	0	65264	
7292	0	65160	
7293	0	65040	
7294	0	64932	
7295	0	64808	
7296	0	64676	
7297	0	64568	
7298	0	64440	
7299	0	64312	
7300	0	64180	
7301	0	64068	
7302	0	63964	
7303	0	63816	
7304	0	63704	
7305	0	63588	
7306	0	63448	
7307	0	63336	
7308	0	63224	
7309	0	63112	
7310	0	61744	
7311	0	55940	
7312	0	50296	
7313	0	44952	
7314	0	40520	
7315	0	37112	
7316	0	34572	
7317	0	32712	
7318	0	31364	
7319	0	30240	
7320	0	29208	
7321	0	28316	
7322	0	27604	
7323	0	27004	
7324	0	26416	
7325	0	25856	
7326	0	25316	
7327	0	24784	
7328	0	24370	
7329	0	24036	
7330	0	23796	
7331	0	23598	
7332	0	23448	
7333	0	23352	
7334	0	23208	
7335	0	23044	
7336	0	22880	
7337	0	22682	
7338	0	22480	
7339	0	22302	
7340	0	22104	
7341	0	21956	
7342	0	21820	
7343	0	21674	
7344	0	21600	
7345	0	21632	
7346	0	21760	
7347	0	21844	
7348	0	21848	
7349	0	21816	
7350	0	21828	
7351	0	21832	
7352	0	21836	
7353	0	21764	
7354	0	21628	
7355	0	21528	
7356	0	21488	
7357	0	21462	
7358	0	21442	
7359	0	21476	
7360	0	21576	
7361	0	21670	
7362	0	21844	
7363	0	22072	
7364	0	22240	
7365	0	22368	
7366	0	22456	
7367	0	22580	
7368	0	22722	
7369	0	22856	
7370	0	22932	
7371	0	23014	
7372	0	23100	
7373	0	23152	
7374	0	23194	
7375	0	23280	
7376	0	23380	
7377	0	23456	
7378	0	23508	
7379	0	23580	
7380	0	23680	
7381	0	23836	
7382	0	23912	
7383	0	23936	
7384	0	23940	
7385	0	23942	
7386	0	23952	
7387	0	24008	
7388	0	24100	
7389	0	24228	
7390	0	24368	
7391	0	24488	
7392	0	24640	
7393	0	24888	
7394	0	25088	
7395	0	25180	
7396	0	25268	
7397	0	25350	
7398	0	25472	
7399	0	25568	
7400	0	25620	
7401	0	25652	
7402	0	25696	
7403	0	25726	
7404	0	25708	
7405	0	25696	
7406	0	25692	
7407	0	25760	
7408	0	25924	
7409	0	26114	
7410	0	26268	
7411	0	26432	
7412	0	26620	
7413	0	26796	
7414	0	26928	
7415	0	27004	
7416	0	27004	
7417	0	27032	
7418	0	27092	
7419	0	27184	
7420	0	27248	
7421	0	27324	
7422	0	27400	
7423	0	27476	
7424	0	27540	
7425	0	27596	
7426	0	27620	
7427	0	27624	
7428	0	27660	
7429	0	27736	
7430	0	27816	
7431	0	27880	
7432	0	27976	
7433	0	28104	
7434	0	28244	
7435	0	28376	
7436	0	28500	
7437	0	28672	
7438	0	28834	
7439	0	28944	
7440	0	29036	
7441	0	29120	
7442	0	29188	
7443	0	29224	
7444	0	29252	
7445	0	29336	
7446	0	29468	
7447	0	29580	
7448	0	29660	
7449	0	29752	
7450	0	29868	
7451	0	30004	
7452	0	30128	
7453	0	30248	
7454	0	30344	
7455	0	30476	
7456	0	30616	
7457	0	30680	
7458	0	30704	
7459	0	30772	
7460	0	30810	
7461	0	30844	
7462	0	30872	
7463	0	30920	
7464	0	31012	
7465	0	31136	
7466	0	31236	
7467	0	31356	
7468	0	31492	
7469	0	31632	
7470	0	31778	
7471	0	31840	
7472	0	31840	
7473	0	31840	
7474	0	31880	
7475	0	31904	
7476	0	31872	
7477	0	31816	
7478	0	31820	
7479	0	31904	
7480	0	32032	
7481	0	32120	
7482	0	32166	
7483	0	32232	
7484	0	32336	
7485	0	32442	
7486	0	32540	
7487	0	32608	
7488	0	32628	
7489	0	32628	
7490	0	32600	
7491	0	32544	
7492	0	32492	
7493	0	32496	
7494	0	32524	
7495	0	32516	
7496	0	32538	
7497	0	32536	
7498	0	32480	
7499	0	32430	
7500	0	32396	
7501	0	32448	
7502	0	32484	
7503	0	32496	
7504	0	32552	
7505	0	32568	
7506	0	32608	
7507	0	32628	
7508	0	32612	
7509	0	32660	
7510	0	32728	
7511	0	32772	
7512	0	32784	
7513	0	32826	
7514	0	32916	
7515	0	32972	
7516	0	33020	
7517	0	33104	
7518	0	33172	
7519	0	33244	
7520	0	33272	
7521	0	33296	
7522	0	33356	
7523	0	33356	
7524	0	33324	
7525	0	33284	
7526	0	33256	
7527	0	33234	
7528	0	33184	
7529	0	33104	
7530	0	32984	
7531	0	32876	
7532	0	32754	
7533	0	32668	
7534	0	32652	
7535	0	32648	
7536	0	32704	
7537	0	32744	
7538	0	32744	
7539	0	32764	
7540	0	32820	
7541	0	32848	
7542	0	32826	
7543	0	32792	
7544	0	32752	
7545	0	32676	
7546	0	32584	
7547	0	32500	
7548	0	32432	
7549	0	32364	
7550	0	32268	
7551	0	32168	
7552	0	32096	
7553	0	32032	
7554	0	32004	
7555	0	31962	
7556	0	31908	
7557	0	31856	
7558	0	31816	
7559	0	31812	
7560	0	31788	
7561	0	31776	
7562	0	31792	
7563	0	31802	
7564	0	31794	
7565	0	31776	
7566	0	31726	
7567	0	31732	
7568	0	31724	
7569	0	31696	
7570	0	31680	
7571	0	31688	
7572	0	31660	
7573	0	31628	
7574	0	31580	
7575	0	31520	
7576	0	31524	
7577	0	31604	
7578	0	31624	
7579	0	31632	
7580	0	31636	
7581	0	31656	
7582	0	31700	
7583	0	31744	
7584	0	31752	
7585	0	31764	
7586	0	31760	
7587	0	31778	
7588	0	31826	
7589	0	31816	
7590	0	31824	
7591	0	31812	
7592	0	31820	
7593	0	31840	
7594	0	31868	
7595	0	31916	
7596	0	31984	
7597	0	32032	
7598	0	32100	
7599	0	32184	
7600	0	32232	
7601	0	32236	
7602	0	32256	
7603	0	32272	
7604	0	32304	
7605	0	32340	
7606	0	32392	
7607	0	32472	
7608	0	32556	
7609	0	32640	
7610	0	32668	
7611	0	32664	
7612	0	32704	
7613	0	32744	
7614	0	32772	
7615	0	32792	
7616	0	32836	
7617	0	32860	
7618	0	32872	
7619	0	32916	
7620	0	32944	
7621	0	32960	
7622	0	32966	
7623	0	33020	
7624	0	33080	
7625	0	33138	
7626	0	33188	
7627	0	33208	
7628	0	33240	
7629	0	33316	
7630	0	33328	
7631	0	33316	
7632	0	33280	
7633	0	33256	
7634	0	33304	
7635	0	33356	
7636	0	33356	
7637	0	33324	
7638	0	33332	
7639	0	33368	
7640	0	33384	
7641	0	33376	
7642	0	33368	
7643	0	33368	
7644	0	33388	
7645	0	33388	
7646	0	33376	
7647	0	33360	
7648	0	33360	
7649	0	33378	
7650	0	33396	
7651	0	33396	
7652	0	33392	
7653	0	33368	
7654	0	33388	
7655	0	33392	
7656	0	33388	
7657	0	33384	
7658	0	33400	
7659	0	33364	
7660	0	33312	
7661	0	33284	
7662	0	33240	
7663	0	33200	
7664	0	33184	
7665	0	33180	
7666	0	33184	
7667	0	33210	
7668	0	33224	
7669	0	33256	
7670	0	33284	
7671	0	33316	
7672	0	33344	
7673	0	33372	
7674	0	33384	
7675	0	33388	
7676	0	33392	
7677	0	33432	
7678	0	33408	
7679	0	33368	
7680	0	33272	
7681	0	33114	
7682	0	33072	
7683	0	33068	
7684	0	33076	
7685	0	33098	
7686	0	33100	
7687	0	33100	
7688	0	33092	
7689	0	33080	
7690	0	33052	
7691	0	33048	
7692	0	33068	
7693	0	33096	
7694	0	33104	
7695	0	33136	
7696	0	33140	
7697	0	33132	
7698	0	33148	
7699	0	33168	
7700	0	33160	
7701	0	33120	
7702	0	33052	
7703	0	32992	
7704	0	32960	
7705	0	32896	
7706	0	32832	
7707	0	32832	
7708	0	32864	
7709	0	32884	
7710	0	32936	
7711	0	32952	
7712	0	32960	
7713	0	32968	
7714	0	32960	
7715	0	32924	
7716	0	32946	
7717	0	32984	
7718	0	33004	
7719	0	33004	
7720	0	32980	
7721	0	32928	
7722	0	32920	
7723	0	32936	
7724	0	32952	
7725	0	32944	
7726	0	32916	
7727	0	32892	
7728	0	32904	
7729	0	32924	
7730	0	32976	
7731	0	33044	
7732	0	33168	
7733	0	33324	
7734	0	33496	
7735	0	33688	
7736	0	33860	
7737	0	33960	
7738	0	34050	
7739	0	34196	
7740	0	34336	
7741	0	34424	
7742	0	34474	
7743	0	34520	
7744	0	34554	
7745	0	34576	
7746	0	34540	
7747	0	34520	
7748	0	34520	
7749	0	34528	
7750	0	34512	
7751	0	34468	
7752	0	34428	
7753	0	34432	
7754	0	34504	
7755	0	34632	
7756	0	34874	
7757	0	35200	
7758	0	35604	
7759	0	35984	
7760	0	36236	
7761	0	36416	
7762	0	36520	
7763	0	36568	
7764	0	36628	
7765	0	36664	
7766	0	36696	
7767	0	36740	
7768	0	36760	
7769	0	36792	
7770	0	36880	
7771	0	37044	
7772	0	37148	
7773	0	37224	
7774	0	37244	
7775	0	37168	
7776	0	37044	
7777	0	36866	
7778	0	36688	
7779	0	36484	
7780	0	36370	
7781	0	36384	
7782	0	36400	
7783	0	36360	
7784	0	36332	
7785	0	36216	
7786	0	36008	
7787	0	35760	
7788	0	35496	
7789	0	35258	
7790	0	35040	
7791	0	34856	
7792	0	34676	
7793	0	34496	
7794	0	34312	
7795	0	34072	
7796	0	33800	
7797	0	33560	
7798	0	33300	
7799	0	33038	
7800	0	32800	
7801	0	32592	
7802	0	32424	
7803	0	32272	
7804	0	32108	
7805	0	31968	
7806	0	31824	
7807	0	31708	
7808	0	31584	
7809	0	31488	
7810	0	31418	
7811	0	31352	
7812	0	31296	
7813	0	31312	
7814	0	31330	
7815	0	31348	
7816	0	31372	
7817	0	31356	
7818	0	31344	
7819	0	31380	
7820	0	31392	
7821	0	31404	
7822	0	31372	
7823	0	31320	
7824	0	31304	
7825	0	31348	
7826	0	31396	
7827	0	31424	
7828	0	31432	
7829	0	31408	
7830	0	31404	
7831	0	31376	
7832	0	31348	
7833	0	31336	
7834	0	31332	
7835	0	31352	
7836	0	31352	
7837	0	31356	
7838	0	31368	
7839	0	31392	
7840	0	31416	
7841	0	31396	
7842	0	31344	
7843	0	31312	
7844	0	31238	
7845	0	31160	
7846	0	31064	
7847	0	30908	
7848	0	30744	
7849	0	30618	
7850	0	30496	
7851	0	30400	
7852	0	30272	
7853	0	30100	
7854	0	29884	
7855	0	29688	
7856	0	29592	
7857	0	29608	
7858	0	29676	
7859	0	29856	
7860	0	30172	
7861	0	30776	
7862	0	31616	
7863	0	32600	
7864	0	33796	
7865	0	35408	
7866	0	37368	
7867	0	39664	
7868	0	42416	
7869	0	45504	
7870	0	48832	
7871	0	52312	
7872	0	56072	
7873	0	59944	
7874	0	62696	
7875	0	64160	
7876	0	64900	
7877	0	65236	
7878	0	65384	
7879	0	65376	
7880	0	65328	
7881	0	65236	
7882	0	65136	
7883	0	65024	
7884	0	64916	
7885	0	64792	
7886	0	64668	
7887	0	64544	
7888	0	64432	
7889	0	64296	
7890	0	64180	
7891	0	64044	
7892	0	63936	
7893	0	63820	
7894	0	63692	
7895	0	63568	
7896	0	63444	
7897	0	63316	
7898	0	63224	
7899	0	63108	
7900	0	62968	
7901	0	59936	
7902	0	54472	
7903	0	49236	
7904	0	44484	
7905	0	40472	
7906	0	37120	
7907	0	34296	
7908	0	31956	
7909	0	30176	
7910	0	28922	
7911	0	28072	
7912	0	27428	
7913	0	26868	
7914	0	26388	
7915	0	25920	
7916	0	25472	
7917	0	25056	
7918	0	24696	
7919	0	24360	
7920	0	24052	
7921	0	23802	
7922	0	23564	
7923	0	23312	
7924	0	23116	
7925	0	22914	
7926	0	22730	
7927	0	22568	
7928	0	22412	
7929	0	22272	
7930	0	22136	
7931	0	22008	
7932	0	21908	
7933	0	21840	
7934	0	21768	
7935	0	21702	
7936	0	21656	
7937	0	21612	
7938	0	21594	
7939	0	21588	
7940	0	21604	
7941	0	21604	
7942	0	21624	
7943	0	21636	
7944	0	21676	
7945	0	21732	
7946	0	21752	
7947	0	21804	
7948	0	21872	
7949	0	21952	
7950	0	22032	
7951	0	22096	
7952	0	22148	
7953	0	22188	
7954	0	22260	
7955	0	22320	
7956	0	22384	
7957	0	22444	
7958	0	22528	
7959	0	22606	
7960	0	22688	
7961	0	22764	
7962	0	22864	
7963	0	22968	
7964	0	23068	
7965	0	23170	
7966	0	23274	
7967	0	23362	
7968	0	23456	
7969	0	23520	
7970	0	23560	
7971	0	23600	
7972	0	23720	
7973	0	23840	
7974	0	23916	
7975	0	23996	
7976	0	24080	
7977	0	24198	
7978	0	24328	
7979	0	24416	
7980	0	24492	
7981	0	24572	
7982	0	24684	
7983	0	24796	
7984	0	24904	
7985	0	25000	
7986	0	25100	
7987	0	25224	
7988	0	25338	
7989	0	25412	
7990	0	25492	
7991	0	25562	
7992	0	25626	
7993	0	25692	
7994	0	25760	
7995	0	25804	
7996	0	25856	
7997	0	25944	
7998	0	26034	
7999	0	26140	
8000	0	26250	
8001	0	26352	
8002	0	26448	
8003	0	26536	
8004	0	26596	
8005	0	26650	
8006	0	26730	
8007	0	26788	
8008	0	26858	
8009	0	26928	
8010	0	27008	
8011	0	27088	
8012	0	27156	
8013	0	27228	
8014	0	27304	
8015	0	27376	
8016	0	27468	
8017	0	27532	
8018	0	27602	
8019	0	27700	
8020	0	27816	
8021	0	27936	
8022	0	28032	
8023	0	28116	
8024	0	28196	
8025	0	28268	
8026	0	28352	
8027	0	28420	
8028	0	28516	
8029	0	28616	
8030	0	28716	
8031	0	28784	
8032	0	28880	
8033	0	28968	
8034	0	29068	
8035	0	29168	
8036	0	29284	
8037	0	29384	
8038	0	29492	
8039	0	29604	
8040	0	29684	
8041	0	29784	
8042	0	29872	
8043	0	29936	
8044	0	30024	
8045	0	30092	
8046	0	30160	
8047	0	30224	
8048	0	30308	
8049	0	30408	
8050	0	30512	
8051	0	30600	
8052	0	30684	
8053	0	30760	
8054	0	30836	
8055	0	30908	
8056	0	30984	
8057	0	31072	
8058	0	31172	
8059	0	31258	
8060	0	31352	
8061	0	31440	
8062	0	31524	
8063	0	31568	
8064	0	31620	
8065	0	31712	
8066	0	31780	
8067	0	31810	
8068	0	31836	
8069	0	31914	
8070	0	31988	
8071	0	32044	
8072	0	32080	
8073	0	32128	
8074	0	32182	
8075	0	32228	
8076	0	32268	
8077	0	32296	
8078	0	32312	
8079	0	32360	
8080	0	32372	
8081	0	32412	
8082	0	32448	
8083	0	32488	
8084	0	32512	
8085	0	32544	
8086	0	32556	
8087	0	32548	
8088	0	32556	
8089	0	32564	
8090	0	32584	
8091	0	32600	
8092	0	32628	
8093	0	32640	
8094	0	32640	
8095	0	32672	
8096	0	32706	
8097	0	32728	
8098	0	32770	
8099	0	32844	
8100	0	32896	
8101	0	32928	
8102	0	33002	
8103	0	33080	
8104	0	33144	
8105	0	33196	
8106	0	33256	
8107	0	33304	
8108	0	33364	
8109	0	33372	
8110	0	33418	
8111	0	33448	
8112	0	33472	
8113	0	33480	
8114	0	33488	
8115	0	33516	
8116	0	33528	
8117	0	33504	
8118	0	33484	
8119	0	33480	
8120	0	33466	
8121	0	33436	
8122	0	33420	
8123	0	33408	
8124	0	33360	
8125	0	33320	
8126	0	33292	
8127	0	33268	
8128	0	33204	
8129	0	33148	
8130	0	33076	
8131	0	33038	
8132	0	32998	
8133	0	32948	
8134	0	32916	
8135	0	32856	
8136	0	32810	
8137	0	32744	
8138	0	32674	
8139	0	32620	
8140	0	32588	
8141	0	32560	
8142	0	32544	
8143	0	32512	
8144	0	32468	
8145	0	32444	
8146	0	32432	
8147	0	32396	
8148	0	32366	
8149	0	32316	
8150	0	32260	
8151	0	32224	
8152	0	32212	
8153	0	32176	
8154	0	32168	
8155	0	32172	
8156	0	32156	
8157	0	32128	
8158	0	32072	
8159	0	32020	
8160	0	32016	
8161	0	32004	
8162	0	32028	
8163	0	32064	
8164	0	32064	
8165	0	32104	
8166	0	32112	
8167	0	32124	
8168	0	32130	
8169	0	32116	
8170	0	32108	
8171	0	32100	
8172	0	32108	
8173	0	32136	
8174	0	32164	
8175	0	32200	
8176	0	32212	
8177	0	32228	
8178	0	32240	
8179	0	32256	
8180	0	32292	
8181	0	32300	
8182	0	32288	
8183	0	32312	
8184	0	32348	
8185	0	32364	
8186	0	32404	
8187	0	32444	
8188	0	32488	
8189	0	32500	
8190	0	32520	
8191	0	32580	
8192	0	32656	
8193	0	32728	
8194	0	32778	
8195	0	32800	
8196	0	32824	
8197	0	32832	
8198	0	32876	
8199	0	32954	
8200	0	33012	
8201	0	33058	
8202	0	33072	
8203	0	33112	
8204	0	33148	
8205	0	33192	
8206	0	33220	
8207	0	33224	
8208	0	33288	
8209	0	33356	
8210	0	33404	
8211	0	33440	
8212	0	33472	
8213	0	33488	
8214	0	33504	
8215	0	33528	
8216	0	33548	
8217	0	33548	
8218	0	33544	
8219	0	33568	
8220	0	33580	
8221	0	33594	
8222	0	33608	
8223	0	33600	
8224	0	33604	
8225	0	33600	
8226	0	33616	
8227	0	33620	
8228	0	33600	
8229	0	33620	
8230	0	33632	
8231	0	33628	
8232	0	33616	
8233	0	33580	
8234	0	33568	
8235	0	33584	
8236	0	33604	
8237	0	33604	
8238	0	33612	
8239	0	33620	
8240	0	33620	
8241	0	33620	
8242	0	33616	
8243	0	33624	
8244	0	33616	
8245	0	33620	
8246	0	33602	
8247	0	33540	
8248	0	33488	
8249	0	33456	
8250	0	33424	
8251	0	33400	
8252	0	33352	
8253	0	33356	
8254	0	33364	
8255	0	33376	
8256	0	33392	
8257	0	33412	
8258	0	33404	
8259	0	33388	
8260	0	33380	
8261	0	33380	
8262	0	33396	
8263	0	33360	
8264	0	33336	
8265	0	33304	
8266	0	33312	
8267	0	33316	
8268	0	33316	
8269	0	33304	
8270	0	33304	
8271	0	33324	
8272	0	33328	
8273	0	33336	
8274	0	33340	
8275	0	33316	
8276	0	33320	
8277	0	33300	
8278	0	33252	
8279	0	33220	
8280	0	33228	
8281	0	33244	
8282	0	33236	
8283	0	33204	
8284	0	33200	
8285	0	33172	
8286	0	33140	
8287	0	33124	
8288	0	33124	
8289	0	33136	
8290	0	33172	
8291	0	33194	
8292	0	33200	
8293	0	33200	
8294	0	33172	
8295	0	33136	
8296	0	33112	
8297	0	33084	
8298	0	33060	
8299	0	33056	
8300	0	33040	
8301	0	33032	
8302	0	33056	
8303	0	33084	
8304	0	33074	
8305	0	33088	
8306	0	33048	
8307	0	33012	
8308	0	33004	
8309	0	33012	
8310	0	33036	
8311	0	33056	
8312	0	33048	
8313	0	33040	
8314	0	33036	
8315	0	33048	
8316	0	33040	
8317	0	33038	
8318	0	33040	
8319	0	33032	
8320	0	33040	
8321	0	33008	
8322	0	32988	
8323	0	32986	
8324	0	32980	
8325	0	32974	
8326	0	32976	
8327	0	33032	
8328	0	33180	
8329	0	33392	
8330	0	33652	
8331	0	33912	
8332	0	34152	
8333	0	34328	
8334	0	34476	
8335	0	34632	
8336	0	34768	
8337	0	34888	
8338	0	34980	
8339	0	35048	
8340	0	35048	
8341	0	35002	
8342	0	34968	
8343	0	34948	
8344	0	34962	
8345	0	34984	
8346	0	34984	
8347	0	34936	
8348	0	34904	
8349	0	34884	
8350	0	34928	
8351	0	35080	
8352	0	35362	
8353	0	35712	
8354	0	36092	
8355	0	36432	
8356	0	36696	
8357	0	36880	
8358	0	36980	
8359	0	37004	
8360	0	37000	
8361	0	36984	
8362	0	36996	
8363	0	37032	
8364	0	37080	
8365	0	37178	
8366	0	37300	
8367	0	37400	
8368	0	37512	
8369	0	37562	
8370	0	37528	
8371	0	37364	
8372	0	37108	
8373	0	36896	
8374	0	36704	
8375	0	36584	
8376	0	36516	
8377	0	36472	
8378	0	36428	
8379	0	36384	
8380	0	36288	
8381	0	36132	
8382	0	35884	
8383	0	35626	
8384	0	35386	
8385	0	35148	
8386	0	34936	
8387	0	34700	
8388	0	34468	
8389	0	34256	
8390	0	34044	
8391	0	33804	
8392	0	33512	
8393	0	33216	
8394	0	32968	
8395	0	32744	
8396	0	32568	
8397	0	32420	
8398	0	32314	
8399	0	32236	
8400	0	32120	
8401	0	31960	
8402	0	31792	
8403	0	31680	
8404	0	31584	
8405	0	31492	
8406	0	31440	
8407	0	31394	
8408	0	31368	
8409	0	31356	
8410	0	31312	
8411	0	31284	
8412	0	31272	
8413	0	31280	
8414	0	31272	
8415	0	31256	
8416	0	31240	
8417	0	31248	
8418	0	31256	
8419	0	31280	
8420	0	31272	
8421	0	31280	
8422	0	31284	
8423	0	31312	
8424	0	31316	
8425	0	31320	
8426	0	31312	
8427	0	31304	
8428	0	31268	
8429	0	31268	
8430	0	31256	
8431	0	31264	
8432	0	31258	
8433	0	31268	
8434	0	31284	
8435	0	31312	
8436	0	31340	
8437	0	31360	
8438	0	31344	
8439	0	31308	
8440	0	31204	
8441	0	31056	
8442	0	30896	
8443	0	30692	
8444	0	30516	
8445	0	30336	
8446	0	30152	
8447	0	29968	
8448	0	29744	
8449	0	29536	
8450	0	29312	
8451	0	29168	
8452	0	29144	
8453	0	29180	
8454	0	29264	
8455	0	29488	
8456	0	29914	
8457	0	30580	
8458	0	31392	
8459	0	32384	
8460	0	33684	
8461	0	35476	
8462	0	37608	
8463	0	40104	
8464	0	42960	
8465	0	46140	
8466	0	49504	
8467	0	53056	
8468	0	56800	
8469	0	60536	
8470	0	62888	
8471	0	64100	
8472	0	64720	
8473	0	65000	
8474	0	65080	
8475	0	65080	
8476	0	65008	
8477	0	64920	
8478	0	64824	
8479	0	64704	
8480	0	64600	
8481	0	64460	
8482	0	64348	
8483	0	64224	
8484	0	64096	
8485	0	63984	
8486	0	63860	
8487	0	63744	
8488	0	63636	
8489	0	63492	
8490	0	63392	
8491	0	63272	
8492	0	63140	
8493	0	63040	
8494	0	62904	
8495	0	62804	
8496	0	62688	
8497	0	58252	
8498	0	52924	
8499	0	47836	
8500	0	43320	
8501	0	39464	
8502	0	36076	
8503	0	33256	
8504	0	31088	
8505	0	29592	
8506	0	28568	
8507	0	27856	
8508	0	27280	
8509	0	26772	
8510	0	26296	
8511	0	25818	
8512	0	25388	
8513	0	25006	
8514	0	24644	
8515	0	24318	
8516	0	24000	
8517	0	23740	
8518	0	23516	
8519	0	23304	
8520	0	23112	
8521	0	22940	
8522	0	22764	
8523	0	22624	
8524	0	22472	
8525	0	22316	
8526	0	22180	
8527	0	22048	
8528	0	21960	
8529	0	21868	
8530	0	21808	
8531	0	21756	
8532	0	21746	
8533	0	21710	
8534	0	21690	
8535	0	21684	
8536	0	21680	
8537	0	21676	
8538	0	21664	
8539	0	21668	
8540	0	21668	
8541	0	21692	
8542	0	21740	
8543	0	21792	
8544	0	21860	
8545	0	21932	
8546	0	22004	
8547	0	22066	
8548	0	22112	
8549	0	22192	
8550	0	22274	
8551	0	22356	
8552	0	22428	
8553	0	22524	
8554	0	22632	
8555	0	22736	
8556	0	22816	
8557	0	22874	
8558	0	22920	
8559	0	22992	
8560	0	23098	
8561	0	23160	
8562	0	23230	
8563	0	23304	
8564	0	23408	
8565	0	23512	
8566	0	23608	
8567	0	23702	
8568	0	23796	
8569	0	23860	
8570	0	23940	
8571	0	24028	
8572	0	24140	
8573	0	24236	
8574	0	24332	
8575	0	24396	
8576	0	24444	
8577	0	24500	
8578	0	24536	
8579	0	24628	
8580	0	24760	
8581	0	24856	
8582	0	24944	
8583	0	25036	
8584	0	25140	
8585	0	25240	
8586	0	25312	
8587	0	25418	
8588	0	25508	
8589	0	25580	
8590	0	25680	
8591	0	25760	
