# OpenSignals Text File Format. Version 1
# {"00:07:80:4B:15:F7": {"position": 0, "device": "biosignalsplux", "device name": "00:07:80:4B:15:F7", "device connection": "BTH00:07:80:4B:15:F7", "sampling rate": 1000, "resolution": [16], "firmware version": 775, "comments": "", "keywords": "", "mode": 0, "sync interval": 2, "date": "2023-4-12", "time": "15:25:27.388", "channels": [1], "sensor": ["ECG"], "label": ["CH1"], "column": ["nSeq", "DI", "CH1"], "special": [{"SpO2": [80, 40, 5, 4, 3, 3]}, {"SpO2": [80, 40, 5, 4, 3, 3]}, {"SpO2": [80, 40, 5, 4, 3, 3]}, {"SpO2": [80, 40, 5, 4, 3, 3]}, {"SpO2": [80, 40, 5, 4, 3, 3]}, {"SpO2": [80, 40, 5, 4, 3, 3]}, {"SpO2": [80, 40, 5, 4, 3, 3]}, {"SpO2": [80, 40, 5, 4, 3, 3]}], "digital IO": [0, 1], "sleeve color": ["green"], "convertedValues": 0}}
# EndOfHeader
0	0	36496	
1	0	36336	
2	0	36224	
3	0	36170	
4	0	36112	
5	0	36024	
6	0	35952	
7	0	35896	
8	0	35880	
9	0	35948	
10	0	35980	
11	0	35876	
12	0	35608	
13	0	35296	
14	0	34920	
15	0	34476	
16	0	34092	
17	0	33792	
18	0	33480	
19	0	33040	
20	0	32568	
21	0	32100	
22	0	31664	
23	0	31344	
24	0	31136	
25	0	30976	
26	0	30900	
27	0	30876	
28	0	30836	
29	0	30784	
30	0	30766	
31	0	30736	
32	0	30720	
33	0	30660	
34	0	30596	
35	0	30548	
36	0	30432	
37	0	30272	
38	0	30080	
39	0	29964	
40	0	29880	
41	0	29832	
42	0	29824	
43	0	29848	
44	0	29872	
45	0	29900	
46	0	29928	
47	0	29984	
48	0	30032	
49	0	30106	
50	0	30168	
51	0	30168	
52	0	30152	
53	0	30144	
54	0	30196	
55	0	30200	
56	0	30188	
57	0	30204	
58	0	30228	
59	0	30192	
60	0	30112	
61	0	30076	
62	0	30140	
63	0	30276	
64	0	30460	
65	0	30624	
66	0	30772	
67	0	30812	
68	0	30772	
69	0	30692	
70	0	30644	
71	0	30604	
72	0	30568	
73	0	30528	
74	0	30426	
75	0	30272	
76	0	30074	
77	0	29792	
78	0	29348	
79	0	28690	
80	0	27944	
81	0	27224	
82	0	26552	
83	0	25856	
84	0	25270	
85	0	24980	
86	0	24864	
87	0	24770	
88	0	24916	
89	0	25320	
90	0	25980	
91	0	26832	
92	0	27988	
93	0	29504	
94	0	31480	
95	0	33952	
96	0	36720	
97	0	39636	
98	0	42712	
99	0	45856	
100	0	49292	
101	0	53072	
102	0	56984	
103	0	60472	
104	0	62440	
105	0	63496	
106	0	63988	
107	0	64216	
108	0	64284	
109	0	64256	
110	0	64200	
111	0	64096	
112	0	63992	
113	0	63880	
114	0	63060	
115	0	54496	
116	0	47332	
117	0	41424	
118	0	36432	
119	0	31792	
120	0	27810	
121	0	24982	
122	0	23100	
123	0	21700	
124	0	20474	
125	0	19256	
126	0	17936	
127	0	16736	
128	0	15844	
129	0	15139	
130	0	14597	
131	0	14316	
132	0	14386	
133	0	14450	
134	0	14452	
135	0	14602	
136	0	14892	
137	0	15340	
138	0	15828	
139	0	16368	
140	0	16916	
141	0	17480	
142	0	18108	
143	0	18808	
144	0	19700	
145	0	20604	
146	0	21452	
147	0	22238	
148	0	22942	
149	0	23612	
150	0	24293	
151	0	25056	
152	0	25824	
153	0	26576	
154	0	27176	
155	0	27628	
156	0	27984	
157	0	28216	
158	0	28452	
159	0	28728	
160	0	29032	
161	0	29318	
162	0	29544	
163	0	29760	
164	0	29976	
165	0	30132	
166	0	30196	
167	0	30136	
168	0	30080	
169	0	30104	
170	0	30216	
171	0	30424	
172	0	30624	
173	0	30772	
174	0	30800	
175	0	30720	
176	0	30636	
177	0	30608	
178	0	30628	
179	0	30652	
180	0	30648	
181	0	30696	
182	0	30832	
183	0	31092	
184	0	31412	
185	0	31624	
186	0	31732	
187	0	31784	
188	0	31800	
189	0	31836	
190	0	31874	
191	0	31860	
192	0	31852	
193	0	31848	
194	0	31836	
195	0	31848	
196	0	31920	
197	0	32012	
198	0	32088	
199	0	32088	
200	0	32092	
201	0	32080	
202	0	32064	
203	0	32012	
204	0	32000	
205	0	32068	
206	0	32120	
207	0	32192	
208	0	32284	
209	0	32408	
210	0	32524	
211	0	32628	
212	0	32704	
213	0	32764	
214	0	32832	
215	0	32816	
216	0	32784	
217	0	32764	
218	0	32720	
219	0	32740	
220	0	32816	
221	0	32872	
222	0	32864	
223	0	32848	
224	0	32872	
225	0	32884	
226	0	32876	
227	0	32884	
228	0	32880	
229	0	32796	
230	0	32656	
231	0	32568	
232	0	32708	
233	0	33028	
234	0	33324	
235	0	33480	
236	0	33644	
237	0	33828	
238	0	33976	
239	0	33924	
240	0	33880	
241	0	33824	
242	0	33664	
243	0	33484	
244	0	33320	
245	0	33258	
246	0	33280	
247	0	33448	
248	0	33700	
249	0	33940	
250	0	34084	
251	0	34164	
252	0	34224	
253	0	34320	
254	0	34408	
255	0	34360	
256	0	34200	
257	0	34092	
258	0	34020	
259	0	34032	
260	0	34000	
261	0	33972	
262	0	33968	
263	0	34000	
264	0	34064	
265	0	34176	
266	0	34320	
267	0	34376	
268	0	34364	
269	0	34356	
270	0	34340	
271	0	34312	
272	0	34224	
273	0	34208	
274	0	34292	
275	0	34408	
276	0	34496	
277	0	34468	
278	0	34408	
279	0	34364	
280	0	34392	
281	0	34466	
282	0	34632	
283	0	34880	
284	0	35040	
285	0	35128	
286	0	35200	
287	0	35200	
288	0	35216	
289	0	35196	
290	0	35184	
291	0	35128	
292	0	34946	
293	0	34768	
294	0	34704	
295	0	34728	
296	0	34776	
297	0	34840	
298	0	34912	
299	0	34992	
300	0	35100	
301	0	35176	
302	0	35168	
303	0	35136	
304	0	35104	
305	0	35064	
306	0	35116	
307	0	35224	
308	0	35388	
309	0	35472	
310	0	35488	
311	0	35424	
312	0	35344	
313	0	35236	
314	0	35186	
315	0	35220	
316	0	35312	
317	0	35328	
318	0	35240	
319	0	35204	
320	0	35212	
321	0	35284	
322	0	35384	
323	0	35460	
324	0	35456	
325	0	35392	
326	0	35320	
327	0	35332	
328	0	35335	
329	0	35336	
330	0	35324	
331	0	35328	
332	0	35300	
333	0	35204	
334	0	35136	
335	0	35196	
336	0	35356	
337	0	35368	
338	0	35284	
339	0	35140	
340	0	35040	
341	0	35084	
342	0	35212	
343	0	35368	
344	0	35420	
345	0	35344	
346	0	35224	
347	0	35084	
348	0	34936	
349	0	34826	
350	0	34740	
351	0	34660	
352	0	34612	
353	0	34568	
354	0	34580	
355	0	34544	
356	0	34560	
357	0	34618	
358	0	34552	
359	0	34372	
360	0	34132	
361	0	33920	
362	0	33748	
363	0	33592	
364	0	33504	
365	0	33456	
366	0	33404	
367	0	33340	
368	0	33218	
369	0	33012	
370	0	32816	
371	0	32692	
372	0	32632	
373	0	32608	
374	0	32608	
375	0	32668	
376	0	32746	
377	0	32718	
378	0	32640	
379	0	32586	
380	0	32588	
381	0	32492	
382	0	32336	
383	0	32210	
384	0	32176	
385	0	32144	
386	0	32120	
387	0	32112	
388	0	32166	
389	0	32184	
390	0	32164	
391	0	32068	
392	0	31928	
393	0	31792	
394	0	31688	
395	0	31576	
396	0	31476	
397	0	31492	
398	0	31524	
399	0	31476	
400	0	31416	
401	0	31456	
402	0	31528	
403	0	31708	
404	0	31748	
405	0	31704	
406	0	31776	
407	0	31856	
408	0	31936	
409	0	31892	
410	0	31604	
411	0	31248	
412	0	31024	
413	0	30892	
414	0	30808	
415	0	30756	
416	0	30752	
417	0	30804	
418	0	30844	
419	0	30860	
420	0	30868	
421	0	30908	
422	0	30952	
423	0	31008	
424	0	31136	
425	0	31296	
426	0	31504	
427	0	31646	
428	0	31624	
429	0	31476	
430	0	31328	
431	0	31240	
432	0	31208	
433	0	31208	
434	0	31144	
435	0	31092	
436	0	31104	
437	0	31224	
438	0	31376	
439	0	31468	
440	0	31540	
441	0	31564	
442	0	31436	
443	0	31248	
444	0	31124	
445	0	31202	
446	0	31424	
447	0	31624	
448	0	31648	
449	0	31604	
450	0	31622	
451	0	31792	
452	0	31952	
453	0	31944	
454	0	31800	
455	0	31696	
456	0	31744	
457	0	31848	
458	0	31928	
459	0	31956	
460	0	31890	
461	0	31808	
462	0	31744	
463	0	31720	
464	0	31708	
465	0	31724	
466	0	31866	
467	0	31972	
468	0	32108	
469	0	32460	
470	0	32726	
471	0	32832	
472	0	32800	
473	0	32720	
474	0	32596	
475	0	32546	
476	0	32512	
477	0	32472	
478	0	32368	
479	0	32308	
480	0	32364	
481	0	32444	
482	0	32516	
483	0	32620	
484	0	32804	
485	0	32992	
486	0	33092	
487	0	33152	
488	0	33172	
489	0	33164	
490	0	33120	
491	0	33020	
492	0	32908	
493	0	32898	
494	0	33008	
495	0	33104	
496	0	33116	
497	0	33096	
498	0	33148	
499	0	33216	
500	0	33288	
501	0	33296	
502	0	33196	
503	0	33088	
504	0	32996	
505	0	32884	
506	0	32860	
507	0	32992	
508	0	33152	
509	0	33256	
510	0	33412	
511	0	33532	
512	0	33596	
513	0	33540	
514	0	33464	
515	0	33508	
516	0	33552	
517	0	33464	
518	0	33256	
519	0	33132	
520	0	33048	
521	0	32940	
522	0	32740	
523	0	32624	
524	0	32708	
525	0	32916	
526	0	33068	
527	0	33050	
528	0	32884	
529	0	32708	
530	0	32504	
531	0	32324	
532	0	32380	
533	0	32580	
534	0	32720	
535	0	32752	
536	0	32666	
537	0	32512	
538	0	32444	
539	0	32330	
540	0	32412	
541	0	32808	
542	0	33288	
543	0	33612	
544	0	33656	
545	0	33472	
546	0	33192	
547	0	32968	
548	0	32876	
549	0	32820	
550	0	32788	
551	0	32780	
552	0	32720	
553	0	32766	
554	0	32866	
555	0	32932	
556	0	32968	
557	0	32880	
558	0	32700	
559	0	32484	
560	0	32256	
561	0	32008	
562	0	31760	
563	0	31604	
564	0	31656	
565	0	31968	
566	0	32444	
567	0	32804	
568	0	33036	
569	0	33130	
570	0	33092	
571	0	32988	
572	0	32852	
573	0	32720	
574	0	32572	
575	0	32448	
576	0	32296	
577	0	32216	
578	0	32156	
579	0	32148	
580	0	32136	
581	0	32060	
582	0	32008	
583	0	32128	
584	0	32300	
585	0	32368	
586	0	32328	
587	0	32204	
588	0	32012	
589	0	31824	
590	0	31704	
591	0	31704	
592	0	31784	
593	0	31900	
594	0	31952	
595	0	31992	
596	0	32080	
597	0	32092	
598	0	32024	
599	0	32016	
600	0	32100	
601	0	32284	
602	0	32536	
603	0	32752	
604	0	32912	
605	0	33026	
606	0	33080	
607	0	33016	
608	0	32976	
609	0	33076	
610	0	33178	
611	0	33232	
612	0	33256	
613	0	33332	
614	0	33448	
615	0	33634	
616	0	33888	
617	0	34078	
618	0	34128	
619	0	34074	
620	0	33984	
621	0	33856	
622	0	33728	
623	0	33756	
624	0	33876	
625	0	33980	
626	0	34016	
627	0	33984	
628	0	33896	
629	0	33848	
630	0	33992	
631	0	34180	
632	0	34412	
633	0	34680	
634	0	35018	
635	0	35520	
636	0	35988	
637	0	36328	
638	0	36534	
639	0	36640	
640	0	36728	
641	0	36736	
642	0	36768	
643	0	36750	
644	0	36680	
645	0	36556	
646	0	36428	
647	0	36280	
648	0	36044	
649	0	35768	
650	0	35652	
651	0	35640	
652	0	35640	
653	0	35668	
654	0	35696	
655	0	35732	
656	0	35628	
657	0	35612	
658	0	35796	
659	0	36064	
660	0	36214	
661	0	36148	
662	0	35992	
663	0	35816	
664	0	35452	
665	0	35028	
666	0	34696	
667	0	34440	
668	0	34176	
669	0	34008	
670	0	33776	
671	0	33316	
672	0	32732	
673	0	32140	
674	0	31620	
675	0	31236	
676	0	31080	
677	0	31082	
678	0	31208	
679	0	31376	
680	0	31368	
681	0	31196	
682	0	31104	
683	0	31068	
684	0	30976	
685	0	30848	
686	0	30636	
687	0	30488	
688	0	30472	
689	0	30456	
690	0	30408	
691	0	30292	
692	0	30296	
693	0	30302	
694	0	30236	
695	0	30068	
696	0	29794	
697	0	29544	
698	0	29576	
699	0	29856	
700	0	30110	
701	0	30216	
702	0	30180	
703	0	29956	
704	0	29780	
705	0	29740	
706	0	29784	
707	0	29912	
708	0	30088	
709	0	30300	
710	0	30436	
711	0	30480	
712	0	30440	
713	0	30378	
714	0	30304	
715	0	30152	
716	0	30024	
717	0	30080	
718	0	30292	
719	0	30476	
720	0	30592	
721	0	30624	
722	0	30520	
723	0	30432	
724	0	30384	
725	0	30388	
726	0	30450	
727	0	30496	
728	0	30480	
729	0	30392	
730	0	30220	
731	0	29852	
732	0	29224	
733	0	28412	
734	0	27592	
735	0	26816	
736	0	26124	
737	0	25684	
738	0	25580	
739	0	25584	
740	0	25708	
741	0	26104	
742	0	26896	
743	0	27864	
744	0	28800	
745	0	29848	
746	0	31304	
747	0	33216	
748	0	35480	
749	0	38084	
750	0	40820	
751	0	43776	
752	0	46812	
753	0	50036	
754	0	53568	
755	0	57300	
756	0	60692	
757	0	62616	
758	0	63624	
759	0	64122	
760	0	64320	
761	0	64388	
762	0	64360	
763	0	64288	
764	0	64192	
765	0	64096	
766	0	63988	
767	0	61396	
768	0	52608	
769	0	45296	
770	0	39284	
771	0	34244	
772	0	29592	
773	0	25880	
774	0	23504	
775	0	22164	
776	0	21300	
777	0	20492	
778	0	19708	
779	0	18916	
780	0	18112	
781	0	17144	
782	0	16250	
783	0	15402	
784	0	14748	
785	0	14464	
786	0	14474	
787	0	14550	
788	0	14746	
789	0	15080	
790	0	15434	
791	0	15704	
792	0	16168	
793	0	16884	
794	0	17634	
795	0	18374	
796	0	19184	
797	0	19990	
798	0	20676	
799	0	21294	
800	0	21900	
801	0	22548	
802	0	23230	
803	0	23954	
804	0	24520	
805	0	24968	
806	0	25576	
807	0	26208	
808	0	26904	
809	0	27504	
810	0	28008	
811	0	28472	
812	0	28890	
813	0	29252	
814	0	29512	
815	0	29672	
816	0	29844	
817	0	30088	
818	0	30356	
819	0	30536	
820	0	30572	
821	0	30512	
822	0	30424	
823	0	30512	
824	0	30692	
825	0	30880	
826	0	30980	
827	0	30956	
828	0	30980	
829	0	31096	
830	0	31180	
831	0	31256	
832	0	31268	
833	0	31296	
834	0	31410	
835	0	31508	
836	0	31576	
837	0	31688	
838	0	31892	
839	0	32072	
840	0	32144	
841	0	32136	
842	0	32120	
843	0	32100	
844	0	32033	
845	0	31964	
846	0	31908	
847	0	31884	
848	0	31952	
849	0	32136	
850	0	32344	
851	0	32484	
852	0	32528	
853	0	32516	
854	0	32436	
855	0	32344	
856	0	32304	
857	0	32276	
858	0	32264	
859	0	32328	
860	0	32464	
861	0	32548	
862	0	32676	
863	0	32876	
864	0	32992	
865	0	33052	
866	0	33104	
867	0	33048	
868	0	32940	
869	0	32824	
870	0	32772	
871	0	32808	
872	0	32828	
873	0	32768	
874	0	32672	
875	0	32628	
876	0	32696	
877	0	32892	
878	0	33108	
879	0	33348	
880	0	33560	
881	0	33672	
882	0	33632	
883	0	33480	
884	0	33280	
885	0	33080	
886	0	33088	
887	0	33440	
888	0	33884	
889	0	34032	
890	0	34080	
891	0	34088	
892	0	34052	
893	0	34056	
894	0	34094	
895	0	34156	
896	0	34284	
897	0	34300	
898	0	34272	
899	0	34268	
900	0	34280	
901	0	34208	
902	0	34180	
903	0	34208	
904	0	34192	
905	0	34132	
906	0	34160	
907	0	34256	
908	0	34388	
909	0	34536	
910	0	34592	
911	0	34520	
912	0	34348	
913	0	34128	
914	0	34064	
915	0	34200	
916	0	34436	
917	0	34708	
918	0	34944	
919	0	35156	
920	0	35224	
921	0	35120	
922	0	34852	
923	0	34592	
924	0	34472	
925	0	34444	
926	0	34478	
927	0	34616	
928	0	34796	
929	0	34960	
930	0	35076	
931	0	35048	
932	0	34904	
933	0	34808	
934	0	34872	
935	0	35044	
936	0	35260	
937	0	35412	
938	0	35476	
939	0	35560	
940	0	35588	
941	0	35544	
942	0	35532	
943	0	35568	
944	0	35640	
945	0	35700	
946	0	35768	
947	0	35868	
948	0	35936	
949	0	35984	
950	0	35976	
951	0	35960	
952	0	35904	
953	0	35948	
954	0	36082	
955	0	36184	
956	0	36280	
957	0	36386	
958	0	36488	
959	0	36554	
960	0	36454	
961	0	36320	
962	0	36184	
963	0	36104	
964	0	36104	
965	0	36092	
966	0	36032	
967	0	36000	
968	0	35956	
969	0	35952	
970	0	35924	
971	0	35880	
972	0	35888	
973	0	35848	
974	0	35792	
975	0	35696	
976	0	35648	
977	0	35648	
978	0	35736	
979	0	35784	
980	0	35800	
981	0	35780	
982	0	35796	
983	0	35764	
984	0	35776	
985	0	35820	
986	0	35832	
987	0	35792	
988	0	35744	
989	0	35728	
990	0	35656	
991	0	35512	
992	0	35304	
993	0	35120	
994	0	35096	
995	0	35224	
996	0	35344	
997	0	35330	
998	0	35196	
999	0	35056	
1000	0	34888	
1001	0	34656	
1002	0	34400	
1003	0	34268	
1004	0	34336	
1005	0	34452	
1006	0	34520	
1007	0	34560	
1008	0	34556	
1009	0	34508	
1010	0	34360	
1011	0	34166	
1012	0	33954	
1013	0	33764	
1014	0	33676	
1015	0	33672	
1016	0	33680	
1017	0	33572	
1018	0	33460	
1019	0	33304	
1020	0	33120	
1021	0	32960	
1022	0	32856	
1023	0	32800	
1024	0	32796	
1025	0	32700	
1026	0	32528	
1027	0	32328	
1028	0	32208	
1029	0	32168	
1030	0	32194	
1031	0	32212	
1032	0	32196	
1033	0	32122	
1034	0	32052	
1035	0	32016	
1036	0	32052	
1037	0	32144	
1038	0	32168	
1039	0	32120	
1040	0	32064	
1041	0	32048	
1042	0	31972	
1043	0	31880	
1044	0	31736	
1045	0	31668	
1046	0	31652	
1047	0	31636	
1048	0	31604	
1049	0	31546	
1050	0	31424	
1051	0	31296	
1052	0	31172	
1053	0	31104	
1054	0	31040	
1055	0	31016	
1056	0	31104	
1057	0	31260	
1058	0	31328	
1059	0	31360	
1060	0	31384	
1061	0	31404	
1062	0	31496	
1063	0	31488	
1064	0	31328	
1065	0	31152	
1066	0	31100	
1067	0	31066	
1068	0	30988	
1069	0	30880	
1070	0	30808	
1071	0	30824	
1072	0	31000	
1073	0	31220	
1074	0	31420	
1075	0	31588	
1076	0	31644	
1077	0	31584	
1078	0	31508	
1079	0	31440	
1080	0	31404	
1081	0	31388	
1082	0	31416	
1083	0	31424	
1084	0	31384	
1085	0	31306	
1086	0	31200	
1087	0	31068	
1088	0	30968	
1089	0	30932	
1090	0	30944	
1091	0	31112	
1092	0	31348	
1093	0	31516	
1094	0	31576	
1095	0	31536	
1096	0	31528	
1097	0	31528	
1098	0	31524	
1099	0	31520	
1100	0	31504	
1101	0	31456	
1102	0	31428	
1103	0	31402	
1104	0	31392	
1105	0	31424	
1106	0	31536	
1107	0	31642	
1108	0	31708	
1109	0	31744	
1110	0	31740	
1111	0	31772	
1112	0	31796	
1113	0	31844	
1114	0	31808	
1115	0	31752	
1116	0	31736	
1117	0	31760	
1118	0	31768	
1119	0	31792	
1120	0	31842	
1121	0	31948	
1122	0	32104	
1123	0	32248	
1124	0	32320	
1125	0	32312	
1126	0	32400	
1127	0	32484	
1128	0	32480	
1129	0	32424	
1130	0	32416	
1131	0	32420	
1132	0	32424	
1133	0	32392	
1134	0	32344	
1135	0	32368	
1136	0	32448	
1137	0	32560	
1138	0	32632	
1139	0	32712	
1140	0	32792	
1141	0	32848	
1142	0	32896	
1143	0	32928	
1144	0	32892	
1145	0	32828	
1146	0	32704	
1147	0	32644	
1148	0	32622	
1149	0	32676	
1150	0	32864	
1151	0	33056	
1152	0	33128	
1153	0	33128	
1154	0	33112	
1155	0	33124	
1156	0	33176	
1157	0	33208	
1158	0	33184	
1159	0	33148	
1160	0	33136	
1161	0	33112	
1162	0	33090	
1163	0	33096	
1164	0	33088	
1165	0	33192	
1166	0	33252	
1167	0	33312	
1168	0	33304	
1169	0	33240	
1170	0	33188	
1171	0	33148	
1172	0	33104	
1173	0	33056	
1174	0	33012	
1175	0	32960	
1176	0	32948	
1177	0	32952	
1178	0	32940	
1179	0	32960	
1180	0	32920	
1181	0	32904	
1182	0	32956	
1183	0	33072	
1184	0	33192	
1185	0	33256	
1186	0	33224	
1187	0	33168	
1188	0	33156	
1189	0	33168	
1190	0	33200	
1191	0	33096	
1192	0	32944	
1193	0	32840	
1194	0	32820	
1195	0	32864	
1196	0	32928	
1197	0	33004	
1198	0	33028	
1199	0	32994	
1200	0	32928	
1201	0	32856	
1202	0	32810	
1203	0	32748	
1204	0	32736	
1205	0	32748	
1206	0	32756	
1207	0	32680	
1208	0	32576	
1209	0	32472	
1210	0	32408	
1211	0	32396	
1212	0	32476	
1213	0	32610	
1214	0	32732	
1215	0	32784	
1216	0	32780	
1217	0	32714	
1218	0	32648	
1219	0	32568	
1220	0	32456	
1221	0	32392	
1222	0	32346	
1223	0	32296	
1224	0	32236	
1225	0	32276	
1226	0	32406	
1227	0	32576	
1228	0	32638	
1229	0	32644	
1230	0	32570	
1231	0	32516	
1232	0	32512	
1233	0	32500	
1234	0	32436	
1235	0	32388	
1236	0	32380	
1237	0	32388	
1238	0	32372	
1239	0	32376	
1240	0	32352	
1241	0	32314	
1242	0	32300	
1243	0	32288	
1244	0	32244	
1245	0	32232	
1246	0	32228	
1247	0	32232	
1248	0	32240	
1249	0	32252	
1250	0	32308	
1251	0	32356	
1252	0	32372	
1253	0	32344	
1254	0	32352	
1255	0	32432	
1256	0	32576	
1257	0	32676	
1258	0	32752	
1259	0	32812	
1260	0	32920	
1261	0	33040	
1262	0	33136	
1263	0	33296	
1264	0	33492	
1265	0	33608	
1266	0	33728	
1267	0	33932	
1268	0	34124	
1269	0	34220	
1270	0	34244	
1271	0	34204	
1272	0	34112	
1273	0	34036	
1274	0	33984	
1275	0	33936	
1276	0	33872	
1277	0	33836	
1278	0	33776	
1279	0	33748	
1280	0	33748	
1281	0	33720	
1282	0	33760	
1283	0	33888	
1284	0	34136	
1285	0	34548	
1286	0	35066	
1287	0	35548	
1288	0	35924	
1289	0	36240	
1290	0	36544	
1291	0	36768	
1292	0	36952	
1293	0	37056	
1294	0	37104	
1295	0	37084	
1296	0	36976	
1297	0	36868	
1298	0	36824	
1299	0	36796	
1300	0	36740	
1301	0	36652	
1302	0	36532	
1303	0	36428	
1304	0	36356	
1305	0	36314	
1306	0	36232	
1307	0	36130	
1308	0	36048	
1309	0	36016	
1310	0	36000	
1311	0	35984	
1312	0	35956	
1313	0	35924	
1314	0	35904	
1315	0	35848	
1316	0	35748	
1317	0	35548	
1318	0	35288	
1319	0	35016	
1320	0	34776	
1321	0	34480	
1322	0	34164	
1323	0	33884	
1324	0	33620	
1325	0	33272	
1326	0	32840	
1327	0	32432	
1328	0	32084	
1329	0	31784	
1330	0	31544	
1331	0	31344	
1332	0	31168	
1333	0	31008	
1334	0	30888	
1335	0	30830	
1336	0	30780	
1337	0	30752	
1338	0	30708	
1339	0	30632	
1340	0	30488	
1341	0	30324	
1342	0	30180	
1343	0	30056	
1344	0	30000	
1345	0	29924	
1346	0	29848	
1347	0	29804	
1348	0	29912	
1349	0	30042	
1350	0	30164	
1351	0	30238	
1352	0	30236	
1353	0	30208	
1354	0	30212	
1355	0	30176	
1356	0	30172	
1357	0	30176	
1358	0	30154	
1359	0	30164	
1360	0	30224	
1361	0	30280	
1362	0	30256	
1363	0	30188	
1364	0	30164	
1365	0	30176	
1366	0	30188	
1367	0	30200	
1368	0	30236	
1369	0	30264	
1370	0	30300	
1371	0	30360	
1372	0	30424	
1373	0	30452	
1374	0	30416	
1375	0	30392	
1376	0	30412	
1377	0	30446	
1378	0	30508	
1379	0	30568	
1380	0	30584	
1381	0	30544	
1382	0	30468	
1383	0	30304	
1384	0	29968	
1385	0	29408	
1386	0	28668	
1387	0	27856	
1388	0	27024	
1389	0	26280	
1390	0	25664	
1391	0	25216	
1392	0	24992	
1393	0	24906	
1394	0	24880	
1395	0	25088	
1396	0	25584	
1397	0	26248	
1398	0	27042	
1399	0	28064	
1400	0	29488	
1401	0	31464	
1402	0	33920	
1403	0	36696	
1404	0	39592	
1405	0	42560	
1406	0	45656	
1407	0	49112	
1408	0	52896	
1409	0	56920	
1410	0	60488	
1411	0	62488	
1412	0	63532	
1413	0	64044	
1414	0	64256	
1415	0	64320	
1416	0	64316	
1417	0	64240	
1418	0	64156	
1419	0	64036	
1420	0	63920	
1421	0	63824	
1422	0	55784	
1423	0	48256	
1424	0	42012	
1425	0	36904	
1426	0	32344	
1427	0	28312	
1428	0	25328	
1429	0	23328	
1430	0	21884	
1431	0	20636	
1432	0	19400	
1433	0	18088	
1434	0	16994	
1435	0	16136	
1436	0	15400	
1437	0	14882	
1438	0	14736	
1439	0	14804	
1440	0	14874	
1441	0	14824	
1442	0	14780	
1443	0	14976	
1444	0	15534	
1445	0	16316	
1446	0	17052	
1447	0	17800	
1448	0	18592	
1449	0	19316	
1450	0	20056	
1451	0	20796	
1452	0	21484	
1453	0	22088	
1454	0	22684	
1455	0	23358	
1456	0	24096	
1457	0	24812	
1458	0	25496	
1459	0	26144	
1460	0	26744	
1461	0	27260	
1462	0	27696	
1463	0	28076	
1464	0	28412	
1465	0	28684	
1466	0	28956	
1467	0	29184	
1468	0	29368	
1469	0	29496	
1470	0	29612	
1471	0	29716	
1472	0	29768	
1473	0	29852	
1474	0	29996	
1475	0	30160	
1476	0	30328	
1477	0	30442	
1478	0	30480	
1479	0	30484	
1480	0	30464	
1481	0	30528	
1482	0	30602	
1483	0	30680	
1484	0	30772	
1485	0	30896	
1486	0	30984	
1487	0	31020	
1488	0	31042	
1489	0	31048	
1490	0	31072	
1491	0	31088	
1492	0	31152	
1493	0	31212	
1494	0	31280	
1495	0	31340	
1496	0	31410	
1497	0	31488	
1498	0	31554	
1499	0	31584	
1500	0	31612	
1501	0	31664	
1502	0	31756	
1503	0	31864	
1504	0	31928	
1505	0	32026	
1506	0	32104	
1507	0	32148	
1508	0	32144	
1509	0	32128	
1510	0	32132	
1511	0	32116	
1512	0	32112	
1513	0	32168	
1514	0	32276	
1515	0	32346	
1516	0	32352	
1517	0	32356	
1518	0	32380	
1519	0	32392	
1520	0	32400	
1521	0	32392	
1522	0	32384	
1523	0	32434	
1524	0	32536	
1525	0	32680	
1526	0	32722	
1527	0	32728	
1528	0	32776	
1529	0	32836	
1530	0	32852	
1531	0	32808	
1532	0	32784	
1533	0	32864	
1534	0	32982	
1535	0	33056	
1536	0	33064	
1537	0	33064	
1538	0	33088	
1539	0	33088	
1540	0	33088	
1541	0	33104	
1542	0	33102	
1543	0	33128	
1544	0	33152	
1545	0	33204	
1546	0	33304	
1547	0	33380	
1548	0	33372	
1549	0	33344	
1550	0	33332	
1551	0	33368	
1552	0	33432	
1553	0	33440	
1554	0	33452	
1555	0	33468	
1556	0	33508	
1557	0	33560	
1558	0	33604	
1559	0	33612	
1560	0	33652	
1561	0	33712	
1562	0	33736	
1563	0	33762	
1564	0	33768	
1565	0	33784	
1566	0	33796	
1567	0	33816	
1568	0	33848	
1569	0	33888	
1570	0	33936	
1571	0	33936	
1572	0	33928	
1573	0	33948	
1574	0	33904	
1575	0	33880	
1576	0	33892	
1577	0	33912	
1578	0	33964	
1579	0	34054	
1580	0	34132	
1581	0	34184	
1582	0	34228	
1583	0	34248	
1584	0	34228	
1585	0	34212	
1586	0	34234	
1587	0	34240	
1588	0	34212	
1589	0	34168	
1590	0	34152	
1591	0	34156	
1592	0	34178	
1593	0	34280	
1594	0	34408	
1595	0	34530	
1596	0	34560	
1597	0	34592	
1598	0	34618	
1599	0	34624	
1600	0	34596	
1601	0	34528	
1602	0	34492	
1603	0	34508	
1604	0	34552	
1605	0	34588	
1606	0	34588	
1607	0	34608	
1608	0	34580	
1609	0	34588	
1610	0	34608	
1611	0	34684	
1612	0	34816	
1613	0	34904	
1614	0	35016	
1615	0	35072	
1616	0	35052	
1617	0	35000	
1618	0	34948	
1619	0	34940	
1620	0	34960	
1621	0	34968	
1622	0	34968	
1623	0	34980	
1624	0	35024	
1625	0	35080	
1626	0	35124	
1627	0	35208	
1628	0	35288	
1629	0	35386	
1630	0	35392	
1631	0	35364	
1632	0	35322	
1633	0	35284	
1634	0	35228	
1635	0	35160	
1636	0	35102	
1637	0	35080	
1638	0	35132	
1639	0	35156	
1640	0	35132	
1641	0	35132	
1642	0	35132	
1643	0	35100	
1644	0	35104	
1645	0	35136	
1646	0	35124	
1647	0	35088	
1648	0	35040	
1649	0	35000	
1650	0	34972	
1651	0	34964	
1652	0	34916	
1653	0	34850	
1654	0	34776	
1655	0	34732	
1656	0	34720	
1657	0	34728	
1658	0	34676	
1659	0	34585	
1660	0	34472	
1661	0	34404	
1662	0	34306	
1663	0	34176	
1664	0	34024	
1665	0	33896	
1666	0	33752	
1667	0	33664	
1668	0	33600	
1669	0	33532	
1670	0	33496	
1671	0	33440	
1672	0	33380	
1673	0	33336	
1674	0	33256	
1675	0	33176	
1676	0	33112	
1677	0	33032	
1678	0	32936	
1679	0	32852	
1680	0	32776	
1681	0	32720	
1682	0	32648	
1683	0	32608	
1684	0	32592	
1685	0	32586	
1686	0	32576	
1687	0	32520	
1688	0	32472	
1689	0	32400	
1690	0	32368	
1691	0	32314	
1692	0	32272	
1693	0	32216	
1694	0	32116	
1695	0	32032	
1696	0	31976	
1697	0	31912	
1698	0	31848	
1699	0	31784	
1700	0	31732	
1701	0	31716	
1702	0	31720	
1703	0	31744	
1704	0	31800	
1705	0	31816	
1706	0	31848	
1707	0	31848	
1708	0	31816	
1709	0	31796	
1710	0	31804	
1711	0	31784	
1712	0	31768	
1713	0	31736	
1714	0	31720	
1715	0	31682	
1716	0	31652	
1717	0	31672	
1718	0	31680	
1719	0	31686	
1720	0	31688	
1721	0	31674	
1722	0	31664	
1723	0	31672	
1724	0	31676	
1725	0	31664	
1726	0	31680	
1727	0	31664	
1728	0	31652	
1729	0	31640	
1730	0	31636	
1731	0	31624	
1732	0	31608	
1733	0	31572	
1734	0	31572	
1735	0	31586	
1736	0	31600	
1737	0	31608	
1738	0	31592	
1739	0	31600	
1740	0	31620	
1741	0	31684	
1742	0	31744	
1743	0	31802	
1744	0	31836	
1745	0	31872	
1746	0	31888	
1747	0	31876	
1748	0	31856	
1749	0	31820	
1750	0	31832	
1751	0	31872	
1752	0	31938	
1753	0	32012	
1754	0	32076	
1755	0	32088	
1756	0	32084	
1757	0	32104	
1758	0	32096	
1759	0	32064	
1760	0	32020	
1761	0	32016	
1762	0	32036	
1763	0	32090	
1764	0	32124	
1765	0	32128	
1766	0	32138	
1767	0	32188	
1768	0	32237	
1769	0	32308	
1770	0	32392	
1771	0	32436	
1772	0	32440	
1773	0	32450	
1774	0	32456	
1775	0	32480	
1776	0	32480	
1777	0	32450	
1778	0	32440	
1779	0	32428	
1780	0	32456	
1781	0	32496	
1782	0	32524	
1783	0	32540	
1784	0	32592	
1785	0	32616	
1786	0	32640	
1787	0	32664	
1788	0	32664	
1789	0	32676	
1790	0	32692	
1791	0	32720	
1792	0	32744	
1793	0	32756	
1794	0	32732	
1795	0	32744	
1796	0	32732	
1797	0	32736	
1798	0	32768	
1799	0	32792	
1800	0	32784	
1801	0	32800	
1802	0	32788	
1803	0	32760	
1804	0	32756	
1805	0	32736	
1806	0	32700	
1807	0	32716	
1808	0	32752	
1809	0	32808	
1810	0	32828	
1811	0	32826	
1812	0	32824	
1813	0	32872	
1814	0	32908	
1815	0	32950	
1816	0	32948	
1817	0	32944	
1818	0	32904	
1819	0	32868	
1820	0	32824	
1821	0	32808	
1822	0	32800	
1823	0	32800	
1824	0	32804	
1825	0	32824	
1826	0	32824	
1827	0	32818	
1828	0	32800	
1829	0	32796	
1830	0	32836	
1831	0	32836	
1832	0	32832	
1833	0	32802	
1834	0	32800	
1835	0	32796	
1836	0	32816	
1837	0	32836	
1838	0	32788	
1839	0	32736	
1840	0	32728	
1841	0	32712	
1842	0	32704	
1843	0	32696	
1844	0	32676	
1845	0	32674	
1846	0	32704	
1847	0	32726	
1848	0	32728	
1849	0	32756	
1850	0	32756	
1851	0	32712	
1852	0	32696	
1853	0	32676	
1854	0	32666	
1855	0	32580	
1856	0	32528	
1857	0	32520	
1858	0	32488	
1859	0	32468	
1860	0	32472	
1861	0	32440	
1862	0	32416	
1863	0	32408	
1864	0	32404	
1865	0	32428	
1866	0	32480	
1867	0	32516	
1868	0	32529	
1869	0	32552	
1870	0	32552	
1871	0	32538	
1872	0	32520	
1873	0	32514	
1874	0	32480	
1875	0	32456	
1876	0	32424	
1877	0	32388	
1878	0	32384	
1879	0	32376	
1880	0	32364	
1881	0	32356	
1882	0	32328	
1883	0	32296	
1884	0	32296	
1885	0	32336	
1886	0	32372	
1887	0	32376	
1888	0	32340	
1889	0	32300	
1890	0	32328	
1891	0	32344	
1892	0	32314	
1893	0	32272	
1894	0	32212	
1895	0	32152	
1896	0	32124	
1897	0	32116	
1898	0	32112	
1899	0	32130	
1900	0	32112	
1901	0	32100	
1902	0	32124	
1903	0	32148	
1904	0	32116	
1905	0	32100	
1906	0	32116	
1907	0	32132	
1908	0	32172	
1909	0	32184	
1910	0	32144	
1911	0	32136	
1912	0	32176	
1913	0	32186	
1914	0	32176	
1915	0	32144	
1916	0	32144	
1917	0	32154	
1918	0	32144	
1919	0	32148	
1920	0	32168	
1921	0	32160	
1922	0	32128	
1923	0	32096	
1924	0	32172	
1925	0	32298	
1926	0	32424	
1927	0	32552	
1928	0	32664	
1929	0	32812	
1930	0	32988	
1931	0	33184	
1932	0	33396	
1933	0	33568	
1934	0	33732	
1935	0	33908	
1936	0	34088	
1937	0	34240	
1938	0	34300	
1939	0	34320	
1940	0	34308	
1941	0	34272	
1942	0	34280	
1943	0	34288	
1944	0	34328	
1945	0	34364	
1946	0	34344	
1947	0	34332	
1948	0	34320	
1949	0	34284	
1950	0	34268	
1951	0	34288	
1952	0	34360	
1953	0	34500	
1954	0	34760	
1955	0	35096	
1956	0	35428	
1957	0	35760	
1958	0	36121	
1959	0	36480	
1960	0	36712	
1961	0	36872	
1962	0	36988	
1963	0	37096	
1964	0	37184	
1965	0	37144	
1966	0	37056	
1967	0	37012	
1968	0	36964	
1969	0	36888	
1970	0	36816	
1971	0	36700	
1972	0	36544	
1973	0	36376	
1974	0	36212	
1975	0	36100	
1976	0	36032	
1977	0	36000	
1978	0	36020	
1979	0	36056	
1980	0	36096	
1981	0	36084	
1982	0	36040	
1983	0	35980	
1984	0	35896	
1985	0	35792	
1986	0	35652	
1987	0	35460	
1988	0	35224	
1989	0	34968	
1990	0	34656	
1991	0	34324	
1992	0	33988	
1993	0	33602	
1994	0	33192	
1995	0	32736	
1996	0	32344	
1997	0	31960	
1998	0	31652	
1999	0	31384	
2000	0	31168	
2001	0	30996	
2002	0	30864	
2003	0	30744	
2004	0	30616	
2005	0	30488	
2006	0	30388	
2007	0	30304	
2008	0	30224	
2009	0	30122	
2010	0	30040	
2011	0	29936	
2012	0	29796	
2013	0	29724	
2014	0	29712	
2015	0	29712	
2016	0	29752	
2017	0	29752	
2018	0	29752	
2019	0	29780	
2020	0	29796	
2021	0	29796	
2022	0	29804	
2023	0	29834	
2024	0	29832	
2025	0	29844	
2026	0	29848	
2027	0	29840	
2028	0	29838	
2029	0	29824	
2030	0	29856	
2031	0	29892	
2032	0	29912	
2033	0	29924	
2034	0	29960	
2035	0	30012	
2036	0	30038	
2037	0	30052	
2038	0	30072	
2039	0	30062	
2040	0	30068	
2041	0	30104	
2042	0	30144	
2043	0	30160	
2044	0	30176	
2045	0	30156	
2046	0	30156	
2047	0	30224	
2048	0	30284	
2049	0	30304	
2050	0	30272	
2051	0	30144	
2052	0	29964	
2053	0	29652	
2054	0	29144	
2055	0	28408	
2056	0	27536	
2057	0	26620	
2058	0	25704	
2059	0	24912	
2060	0	24224	
2061	0	23712	
2062	0	23452	
2063	0	23368	
2064	0	23540	
2065	0	23948	
2066	0	24596	
2067	0	25384	
2068	0	26264	
2069	0	27564	
2070	0	29418	
2071	0	31708	
2072	0	34404	
2073	0	37288	
2074	0	40472	
2075	0	43892	
2076	0	47720	
2077	0	51948	
2078	0	56400	
2079	0	60372	
2080	0	62596	
2081	0	63776	
2082	0	64380	
2083	0	64624	
2084	0	64724	
2085	0	64712	
2086	0	64640	
2087	0	64560	
2088	0	64448	
2089	0	64348	
2090	0	64224	
2091	0	62928	
2092	0	55568	
2093	0	49500	
2094	0	44764	
2095	0	40424	
2096	0	35832	
2097	0	31424	
2098	0	27732	
2099	0	24800	
2100	0	22252	
2101	0	20114	
2102	0	18512	
2103	0	17280	
2104	0	16396	
2105	0	15853	
2106	0	15500	
2107	0	15336	
2108	0	15276	
2109	0	15288	
2110	0	15444	
2111	0	15720	
2112	0	16122	
2113	0	16633	
2114	0	17240	
2115	0	17861	
2116	0	18448	
2117	0	19088	
2118	0	19736	
2119	0	20420	
2120	0	21092	
2121	0	21764	
2122	0	22394	
2123	0	23020	
2124	0	23696	
2125	0	24426	
2126	0	25164	
2127	0	25842	
2128	0	26408	
2129	0	26888	
2130	0	27308	
2131	0	27636	
2132	0	27924	
2133	0	28184	
2134	0	28384	
2135	0	28588	
2136	0	28796	
2137	0	28948	
2138	0	29076	
2139	0	29176	
2140	0	29240	
2141	0	29316	
2142	0	29388	
2143	0	29448	
2144	0	29512	
2145	0	29616	
2146	0	29704	
2147	0	29772	
2148	0	29856	
2149	0	29938	
2150	0	30032	
2151	0	30132	
2152	0	30220	
2153	0	30284	
2154	0	30288	
2155	0	30336	
2156	0	30390	
2157	0	30496	
2158	0	30572	
2159	0	30640	
2160	0	30720	
2161	0	30808	
2162	0	30860	
2163	0	30916	
2164	0	30938	
2165	0	30936	
2166	0	30944	
2167	0	30968	
2168	0	31016	
2169	0	31080	
2170	0	31136	
2171	0	31192	
2172	0	31260	
2173	0	31348	
2174	0	31392	
2175	0	31440	
2176	0	31468	
2177	0	31528	
2178	0	31552	
2179	0	31568	
2180	0	31604	
2181	0	31664	
2182	0	31712	
2183	0	31736	
2184	0	31744	
2185	0	31740	
2186	0	31746	
2187	0	31792	
2188	0	31856	
2189	0	31884	
2190	0	31920	
2191	0	31988	
2192	0	32060	
2193	0	32124	
2194	0	32176	
2195	0	32244	
2196	0	32304	
2197	0	32336	
2198	0	32388	
2199	0	32440	
2200	0	32452	
2201	0	32472	
2202	0	32480	
2203	0	32484	
2204	0	32476	
2205	0	32496	
2206	0	32548	
2207	0	32552	
2208	0	32512	
2209	0	32492	
2210	0	32512	
2211	0	32548	
2212	0	32617	
2213	0	32696	
2214	0	32736	
2215	0	32752	
2216	0	32768	
2217	0	32800	
2218	0	32828	
2219	0	32844	
2220	0	32872	
2221	0	32916	
2222	0	32960	
2223	0	33000	
2224	0	33048	
2225	0	33088	
2226	0	33080	
2227	0	33056	
2228	0	33040	
2229	0	33040	
2230	0	33068	
2231	0	33112	
2232	0	33128	
2233	0	33176	
2234	0	33228	
2235	0	33288	
2236	0	33316	
2237	0	33384	
2238	0	33416	
2239	0	33430	
2240	0	33432	
2241	0	33464	
2242	0	33520	
2243	0	33576	
2244	0	33576	
2245	0	33568	
2246	0	33596	
2247	0	33624	
2248	0	33622	
2249	0	33636	
2250	0	33668	
2251	0	33696	
2252	0	33692	
2253	0	33696	
2254	0	33728	
2255	0	33752	
2256	0	33760	
2257	0	33748	
2258	0	33720	
2259	0	33752	
2260	0	33816	
2261	0	33888	
2262	0	33924	
2263	0	33944	
2264	0	33928	
2265	0	33904	
2266	0	33936	
2267	0	33960	
2268	0	33976	
2269	0	34016	
2270	0	34072	
2271	0	34128	
2272	0	34156	
2273	0	34222	
2274	0	34234	
2275	0	34224	
2276	0	34208	
2277	0	34236	
2278	0	34292	
2279	0	34354	
2280	0	34396	
2281	0	34436	
2282	0	34484	
2283	0	34504	
2284	0	34552	
2285	0	34608	
2286	0	34624	
2287	0	34676	
2288	0	34680	
2289	0	34672	
2290	0	34680	
2291	0	34694	
2292	0	34724	
2293	0	34768	
2294	0	34796	
2295	0	34808	
2296	0	34794	
2297	0	34788	
2298	0	34788	
2299	0	34760	
2300	0	34756	
2301	0	34768	
2302	0	34784	
2303	0	34780	
2304	0	34816	
2305	0	34848	
2306	0	34868	
2307	0	34896	
2308	0	34900	
2309	0	34900	
2310	0	34916	
2311	0	34912	
2312	0	34916	
2313	0	34928	
2314	0	34948	
2315	0	34956	
2316	0	34944	
2317	0	34948	
2318	0	34912	
2319	0	34908	
2320	0	34936	
2321	0	34916	
2322	0	34860	
2323	0	34828	
2324	0	34752	
2325	0	34694	
2326	0	34664	
2327	0	34604	
2328	0	34508	
2329	0	34400	
2330	0	34306	
2331	0	34232	
2332	0	34184	
2333	0	34172	
2334	0	34112	
2335	0	34024	
2336	0	33928	
2337	0	33826	
2338	0	33728	
2339	0	33656	
2340	0	33620	
2341	0	33600	
2342	0	33552	
2343	0	33504	
2344	0	33434	
2345	0	33388	
2346	0	33336	
2347	0	33256	
2348	0	33168	
2349	0	33080	
2350	0	33024	
2351	0	32988	
2352	0	32932	
2353	0	32868	
2354	0	32808	
2355	0	32784	
2356	0	32760	
2357	0	32712	
2358	0	32684	
2359	0	32622	
2360	0	32568	
2361	0	32492	
2362	0	32376	
2363	0	32340	
2364	0	32328	
2365	0	32302	
2366	0	32276	
2367	0	32232	
2368	0	32220	
2369	0	32196	
2370	0	32172	
2371	0	32140	
2372	0	32072	
2373	0	32020	
2374	0	31992	
2375	0	31996	
2376	0	31988	
2377	0	32004	
2378	0	32012	
2379	0	32032	
2380	0	32012	
2381	0	31978	
2382	0	31976	
2383	0	31968	
2384	0	31994	
2385	0	32000	
2386	0	32024	
2387	0	32000	
2388	0	31984	
2389	0	31992	
2390	0	32000	
2391	0	31996	
2392	0	31988	
2393	0	31984	
2394	0	31980	
2395	0	31992	
2396	0	32000	
2397	0	31996	
2398	0	31984	
2399	0	31988	
2400	0	32012	
2401	0	32016	
2402	0	32012	
2403	0	32012	
2404	0	32012	
2405	0	31980	
2406	0	31952	
2407	0	31996	
2408	0	32060	
2409	0	32124	
2410	0	32144	
2411	0	32168	
2412	0	32172	
2413	0	32192	
2414	0	32212	
2415	0	32272	
2416	0	32292	
2417	0	32274	
2418	0	32264	
2419	0	32248	
2420	0	32252	
2421	0	32266	
2422	0	32308	
2423	0	32348	
2424	0	32396	
2425	0	32456	
2426	0	32484	
2427	0	32512	
2428	0	32524	
2429	0	32496	
2430	0	32472	
2431	0	32464	
2432	0	32488	
2433	0	32508	
2434	0	32580	
2435	0	32620	
2436	0	32652	
2437	0	32672	
2438	0	32674	
2439	0	32712	
2440	0	32740	
2441	0	32716	
2442	0	32688	
2443	0	32712	
2444	0	32728	
2445	0	32740	
2446	0	32732	
2447	0	32768	
2448	0	32752	
2449	0	32744	
2450	0	32728	
2451	0	32736	
2452	0	32748	
2453	0	32764	
2454	0	32816	
2455	0	32856	
2456	0	32896	
2457	0	32928	
2458	0	32960	
2459	0	32980	
2460	0	33004	
2461	0	33020	
2462	0	33036	
2463	0	33072	
2464	0	33080	
2465	0	33076	
2466	0	33072	
2467	0	33100	
2468	0	33108	
2469	0	33112	
2470	0	33100	
2471	0	33088	
2472	0	33088	
2473	0	33112	
2474	0	33136	
2475	0	33108	
2476	0	33088	
2477	0	33056	
2478	0	33040	
2479	0	33048	
2480	0	33056	
2481	0	33092	
2482	0	33140	
2483	0	33148	
2484	0	33176	
2485	0	33148	
2486	0	33080	
2487	0	33026	
2488	0	32996	
2489	0	33000	
2490	0	32992	
2491	0	32980	
2492	0	33000	
2493	0	33060	
2494	0	33088	
2495	0	33076	
2496	0	33064	
2497	0	33060	
2498	0	33052	
2499	0	33042	
2500	0	33028	
2501	0	33032	
2502	0	32996	
2503	0	32936	
2504	0	32908	
2505	0	32904	
2506	0	32892	
2507	0	32928	
2508	0	32976	
2509	0	32972	
2510	0	32928	
2511	0	32928	
2512	0	32928	
2513	0	32908	
2514	0	32904	
2515	0	32924	
2516	0	32908	
2517	0	32904	
2518	0	32876	
2519	0	32864	
2520	0	32886	
2521	0	32904	
2522	0	32884	
2523	0	32888	
2524	0	32884	
2525	0	32884	
2526	0	32892	
2527	0	32864	
2528	0	32848	
2529	0	32858	
2530	0	32860	
2531	0	32892	
2532	0	32888	
2533	0	32864	
2534	0	32836	
2535	0	32820	
2536	0	32784	
2537	0	32748	
2538	0	32732	
2539	0	32708	
2540	0	32704	
2541	0	32688	
2542	0	32730	
2543	0	32736	
2544	0	32708	
2545	0	32706	
2546	0	32680	
2547	0	32608	
2548	0	32568	
2549	0	32558	
2550	0	32588	
2551	0	32604	
2552	0	32636	
2553	0	32656	
2554	0	32668	
2555	0	32688	
2556	0	32690	
2557	0	32692	
2558	0	32708	
2559	0	32660	
2560	0	32624	
2561	0	32624	
2562	0	32596	
2563	0	32560	
2564	0	32548	
2565	0	32564	
2566	0	32572	
2567	0	32580	
2568	0	32584	
2569	0	32588	
2570	0	32592	
2571	0	32562	
2572	0	32556	
2573	0	32548	
2574	0	32472	
2575	0	32440	
2576	0	32412	
2577	0	32452	
2578	0	32488	
2579	0	32466	
2580	0	32420	
2581	0	32424	
2582	0	32448	
2583	0	32464	
2584	0	32448	
2585	0	32472	
2586	0	32448	
2587	0	32448	
2588	0	32456	
2589	0	32464	
2590	0	32484	
2591	0	32496	
2592	0	32512	
2593	0	32524	
2594	0	32560	
2595	0	32576	
2596	0	32512	
2597	0	32436	
2598	0	32420	
2599	0	32452	
2600	0	32525	
2601	0	32524	
2602	0	32508	
2603	0	32468	
2604	0	32468	
2605	0	32452	
2606	0	32452	
2607	0	32444	
2608	0	32420	
2609	0	32420	
2610	0	32424	
2611	0	32418	
2612	0	32404	
2613	0	32424	
2614	0	32396	
2615	0	32372	
2616	0	32388	
2617	0	32404	
2618	0	32424	
2619	0	32452	
2620	0	32484	
2621	0	32520	
2622	0	32548	
2623	0	32592	
2624	0	32634	
2625	0	32716	
2626	0	32822	
2627	0	32916	
2628	0	33012	
2629	0	33152	
2630	0	33280	
2631	0	33388	
2632	0	33480	
2633	0	33568	
2634	0	33696	
2635	0	33868	
2636	0	34100	
2637	0	34336	
2638	0	34482	
2639	0	34600	
2640	0	34692	
2641	0	34728	
2642	0	34720	
2643	0	34720	
2644	0	34688	
2645	0	34680	
2646	0	34680	
2647	0	34722	
2648	0	34724	
2649	0	34760	
2650	0	34752	
2651	0	34728	
2652	0	34720	
2653	0	34752	
2654	0	34876	
2655	0	35088	
2656	0	35336	
2657	0	35646	
2658	0	35980	
2659	0	36340	
2660	0	36706	
2661	0	37044	
2662	0	37284	
2663	0	37464	
2664	0	37592	
2665	0	37664	
2666	0	37652	
2667	0	37616	
2668	0	37560	
2669	0	37496	
2670	0	37396	
2671	0	37296	
2672	0	37208	
2673	0	37120	
2674	0	36964	
2675	0	36796	
2676	0	36612	
2677	0	36496	
2678	0	36428	
2679	0	36428	
2680	0	36448	
2681	0	36468	
2682	0	36440	
2683	0	36400	
2684	0	36328	
2685	0	36240	
2686	0	36188	
2687	0	36068	
2688	0	35928	
2689	0	35738	
2690	0	35476	
2691	0	35140	
2692	0	34810	
2693	0	34452	
2694	0	34092	
2695	0	33624	
2696	0	33120	
2697	0	32676	
2698	0	32292	
2699	0	31992	
2700	0	31724	
2701	0	31514	
2702	0	31340	
2703	0	31204	
2704	0	31080	
2705	0	30972	
2706	0	30888	
2707	0	30816	
2708	0	30764	
2709	0	30656	
2710	0	30560	
2711	0	30460	
2712	0	30340	
2713	0	30248	
2714	0	30168	
2715	0	30132	
2716	0	30104	
2717	0	30072	
2718	0	30032	
2719	0	30036	
2720	0	30092	
2721	0	30124	
2722	0	30168	
2723	0	30178	
2724	0	30200	
2725	0	30232	
2726	0	30264	
2727	0	30296	
2728	0	30348	
2729	0	30352	
2730	0	30324	
2731	0	30308	
2732	0	30298	
2733	0	30308	
2734	0	30336	
2735	0	30308	
2736	0	30288	
2737	0	30288	
2738	0	30280	
2739	0	30288	
2740	0	30352	
2741	0	30404	
2742	0	30420	
2743	0	30440	
2744	0	30480	
2745	0	30492	
2746	0	30524	
2747	0	30520	
2748	0	30568	
2749	0	30592	
2750	0	30620	
2751	0	30552	
2752	0	30436	
2753	0	30240	
2754	0	29988	
2755	0	29568	
2756	0	28896	
2757	0	28058	
2758	0	27182	
2759	0	26308	
2760	0	25496	
2761	0	24792	
2762	0	24244	
2763	0	23968	
2764	0	23882	
2765	0	24024	
2766	0	24388	
2767	0	24984	
2768	0	25780	
2769	0	26674	
2770	0	27936	
2771	0	29762	
2772	0	32048	
2773	0	34748	
2774	0	37540	
2775	0	40560	
2776	0	43816	
2777	0	47464	
2778	0	51580	
2779	0	55888	
2780	0	59960	
2781	0	62344	
2782	0	63608	
2783	0	64240	
2784	0	64528	
2785	0	64644	
2786	0	64636	
2787	0	64568	
2788	0	64492	
2789	0	64376	
2790	0	64244	
2791	0	64152	
2792	0	64020	
2793	0	57300	
2794	0	51304	
2795	0	46608	
2796	0	42288	
2797	0	37668	
2798	0	33234	
2799	0	29484	
2800	0	26516	
2801	0	23960	
2802	0	21792	
2803	0	20032	
2804	0	18644	
2805	0	17616	
2806	0	16936	
2807	0	16392	
2808	0	15984	
2809	0	15718	
2810	0	15560	
2811	0	15584	
2812	0	15834	
2813	0	16252	
2814	0	16788	
2815	0	17424	
2816	0	18104	
2817	0	18708	
2818	0	19372	
2819	0	20072	
2820	0	20760	
2821	0	21428	
2822	0	22064	
2823	0	22644	
2824	0	23260	
2825	0	23922	
2826	0	24584	
2827	0	25292	
2828	0	25900	
2829	0	26432	
2830	0	26936	
2831	0	27340	
2832	0	27712	
2833	0	28010	
2834	0	28280	
2835	0	28532	
2836	0	28756	
2837	0	28956	
2838	0	29096	
2839	0	29144	
2840	0	29156	
2841	0	29194	
2842	0	29272	
2843	0	29388	
2844	0	29504	
2845	0	29588	
2846	0	29676	
2847	0	29764	
2848	0	29856	
2849	0	29920	
2850	0	29976	
2851	0	30028	
2852	0	30096	
2853	0	30184	
2854	0	30276	
2855	0	30356	
2856	0	30404	
2857	0	30476	
2858	0	30544	
2859	0	30604	
2860	0	30656	
2861	0	30704	
2862	0	30768	
2863	0	30832	
2864	0	30892	
2865	0	30944	
2866	0	30988	
2867	0	31028	
2868	0	31080	
2869	0	31124	
2870	0	31160	
2871	0	31204	
2872	0	31249	
2873	0	31320	
2874	0	31372	
2875	0	31432	
2876	0	31492	
2877	0	31600	
2878	0	31676	
2879	0	31676	
2880	0	31704	
2881	0	31746	
2882	0	31784	
2883	0	31798	
2884	0	31828	
2885	0	31848	
2886	0	31873	
2887	0	31928	
2888	0	31968	
2889	0	32032	
2890	0	32076	
2891	0	32100	
2892	0	32120	
2893	0	32132	
2894	0	32136	
2895	0	32188	
2896	0	32256	
2897	0	32308	
2898	0	32348	
2899	0	32380	
2900	0	32416	
2901	0	32456	
2902	0	32464	
2903	0	32520	
2904	0	32588	
2905	0	32624	
2906	0	32628	
2907	0	32640	
2908	0	32672	
2909	0	32676	
2910	0	32696	
2911	0	32724	
2912	0	32756	
2913	0	32794	
2914	0	32800	
2915	0	32808	
2916	0	32828	
2917	0	32876	
2918	0	32900	
2919	0	32896	
2920	0	32916	
2921	0	32952	
2922	0	32964	
2923	0	32932	
2924	0	32972	
2925	0	33024	
2926	0	33060	
2927	0	33100	
2928	0	33144	
2929	0	33188	
2930	0	33216	
2931	0	33264	
2932	0	33296	
2933	0	33308	
2934	0	33296	
2935	0	33336	
2936	0	33364	
2937	0	33392	
2938	0	33404	
2939	0	33418	
2940	0	33464	
2941	0	33508	
2942	0	33528	
2943	0	33568	
2944	0	33616	
2945	0	33632	
2946	0	33624	
2947	0	33632	
2948	0	33624	
2949	0	33620	
2950	0	33628	
2951	0	33656	
2952	0	33696	
2953	0	33760	
2954	0	33788	
2955	0	33752	
2956	0	33744	
2957	0	33752	
2958	0	33776	
2959	0	33800	
2960	0	33848	
2961	0	33878	
2962	0	33892	
2963	0	33928	
2964	0	33992	
2965	0	34072	
2966	0	34112	
2967	0	34112	
2968	0	34088	
2969	0	34096	
2970	0	34144	
2971	0	34224	
2972	0	34292	
2973	0	34296	
2974	0	34280	
2975	0	34268	
2976	0	34266	
2977	0	34288	
2978	0	34296	
2979	0	34352	
2980	0	34400	
2981	0	34460	
2982	0	34504	
2983	0	34528	
2984	0	34528	
2985	0	34516	
2986	0	34520	
2987	0	34584	
2988	0	34620	
2989	0	34640	
2990	0	34620	
2991	0	34636	
2992	0	34636	
2993	0	34652	
2994	0	34688	
2995	0	34728	
2996	0	34768	
2997	0	34796	
2998	0	34804	
2999	0	34804	
3000	0	34792	
3001	0	34786	
3002	0	34800	
3003	0	34848	
3004	0	34852	
3005	0	34848	
3006	0	34864	
3007	0	34864	
3008	0	34856	
3009	0	34884	
3010	0	34892	
3011	0	34920	
3012	0	34996	
3013	0	35076	
3014	0	35140	
3015	0	35172	
3016	0	35184	
3017	0	35176	
3018	0	35176	
3019	0	35196	
3020	0	35168	
3021	0	35144	
3022	0	35108	
3023	0	35068	
3024	0	35016	
3025	0	34960	
3026	0	34914	
3027	0	34912	
3028	0	34868	
3029	0	34800	
3030	0	34732	
3031	0	34660	
3032	0	34596	
3033	0	34540	
3034	0	34444	
3035	0	34336	
3036	0	34220	
3037	0	34140	
3038	0	34084	
3039	0	34040	
3040	0	33992	
3041	0	33924	
3042	0	33856	
3043	0	33834	
3044	0	33758	
3045	0	33652	
3046	0	33556	
3047	0	33460	
3048	0	33364	
3049	0	33280	
3050	0	33228	
3051	0	33192	
3052	0	33140	
3053	0	33080	
3054	0	33032	
3055	0	32984	
3056	0	32936	
3057	0	32888	
3058	0	32840	
3059	0	32800	
3060	0	32712	
3061	0	32640	
3062	0	32604	
3063	0	32608	
3064	0	32592	
3065	0	32554	
3066	0	32528	
3067	0	32520	
3068	0	32512	
3069	0	32464	
3070	0	32388	
3071	0	32324	
3072	0	32300	
3073	0	32280	
3074	0	32240	
3075	0	32212	
3076	0	32192	
3077	0	32188	
3078	0	32172	
3079	0	32128	
3080	0	32108	
3081	0	32076	
3082	0	32032	
3083	0	32000	
3084	0	31992	
3085	0	32012	
3086	0	32016	
3087	0	32028	
3088	0	32032	
3089	0	32028	
3090	0	32048	
3091	0	32048	
3092	0	32052	
3093	0	32028	
3094	0	32008	
3095	0	32004	
3096	0	32008	
3097	0	32000	
3098	0	31984	
3099	0	31988	
3100	0	32008	
3101	0	31988	
3102	0	31972	
3103	0	31980	
3104	0	32008	
3105	0	32056	
3106	0	32084	
3107	0	32080	
3108	0	32040	
3109	0	32024	
3110	0	32044	
3111	0	32088	
3112	0	32120	
3113	0	32148	
3114	0	32172	
3115	0	32168	
3116	0	32176	
3117	0	32204	
3118	0	32240	
3119	0	32284	
3120	0	32336	
3121	0	32388	
3122	0	32412	
3123	0	32444	
3124	0	32460	
3125	0	32480	
3126	0	32496	
3127	0	32500	
3128	0	32504	
3129	0	32534	
3130	0	32540	
3131	0	32540	
3132	0	32552	
3133	0	32592	
3134	0	32608	
3135	0	32592	
3136	0	32616	
3137	0	32642	
3138	0	32608	
3139	0	32604	
3140	0	32632	
3141	0	32652	
3142	0	32660	
3143	0	32682	
3144	0	32732	
3145	0	32748	
3146	0	32748	
3147	0	32744	
3148	0	32748	
3149	0	32768	
3150	0	32832	
3151	0	32872	
3152	0	32868	
3153	0	32864	
3154	0	32868	
3155	0	32868	
3156	0	32896	
3157	0	32936	
3158	0	32952	
3159	0	32932	
3160	0	32938	
3161	0	32960	
3162	0	32960	
3163	0	32928	
3164	0	32890	
3165	0	32852	
3166	0	32832	
3167	0	32852	
3168	0	32896	
3169	0	32954	
3170	0	33008	
3171	0	33032	
3172	0	33052	
3173	0	33084	
3174	0	33092	
3175	0	33132	
3176	0	33156	
3177	0	33168	
3178	0	33192	
3179	0	33224	
3180	0	33248	
3181	0	33272	
3182	0	33276	
3183	0	33258	
3184	0	33228	
3185	0	33222	
3186	0	33228	
3187	0	33208	
3188	0	33192	
3189	0	33178	
3190	0	33172	
3191	0	33204	
3192	0	33236	
3193	0	33244	
3194	0	33200	
3195	0	33148	
3196	0	33152	
3197	0	33116	
3198	0	33068	
3199	0	33036	
3200	0	33044	
3201	0	33088	
3202	0	33156	
3203	0	33192	
3204	0	33180	
3205	0	33166	
3206	0	33172	
3207	0	33152	
3208	0	33132	
3209	0	33108	
3210	0	33056	
3211	0	33040	
3212	0	33012	
3213	0	32996	
3214	0	33016	
3215	0	33012	
3216	0	33000	
3217	0	33018	
3218	0	33040	
3219	0	33072	
3220	0	33064	
3221	0	33104	
3222	0	33132	
3223	0	33100	
3224	0	33056	
3225	0	32984	
3226	0	32936	
3227	0	32926	
3228	0	32940	
3229	0	32948	
3230	0	32960	
3231	0	32920	
3232	0	32884	
3233	0	32888	
3234	0	32856	
3235	0	32816	
3236	0	32768	
3237	0	32732	
3238	0	32688	
3239	0	32676	
3240	0	32676	
3241	0	32676	
3242	0	32680	
3243	0	32684	
3244	0	32692	
3245	0	32732	
3246	0	32764	
3247	0	32794	
3248	0	32800	
3249	0	32802	
3250	0	32752	
3251	0	32704	
3252	0	32700	
3253	0	32692	
3254	0	32672	
3255	0	32636	
3256	0	32602	
3257	0	32596	
3258	0	32576	
3259	0	32572	
3260	0	32560	
3261	0	32544	
3262	0	32498	
3263	0	32460	
3264	0	32416	
3265	0	32372	
3266	0	32338	
3267	0	32328	
3268	0	32316	
3269	0	32342	
3270	0	32368	
3271	0	32376	
3272	0	32328	
3273	0	32288	
3274	0	32316	
3275	0	32332	
3276	0	32336	
3277	0	32352	
3278	0	32376	
3279	0	32388	
3280	0	32418	
3281	0	32440	
3282	0	32488	
3283	0	32520	
3284	0	32550	
3285	0	32564	
3286	0	32536	
3287	0	32460	
3288	0	32404	
3289	0	32376	
3290	0	32400	
3291	0	32412	
3292	0	32400	
3293	0	32348	
3294	0	32324	
3295	0	32340	
3296	0	32342	
3297	0	32324	
3298	0	32312	
3299	0	32332	
3300	0	32340	
3301	0	32316	
3302	0	32300	
3303	0	32296	
3304	0	32296	
3305	0	32312	
3306	0	32344	
3307	0	32364	
3308	0	32384	
3309	0	32384	
3310	0	32436	
3311	0	32508	
3312	0	32512	
3313	0	32472	
3314	0	32434	
3315	0	32400	
3316	0	32388	
3317	0	32380	
3318	0	32372	
3319	0	32384	
3320	0	32384	
3321	0	32400	
3322	0	32456	
3323	0	32480	
3324	0	32496	
3325	0	32492	
3326	0	32480	
3327	0	32458	
3328	0	32468	
3329	0	32488	
3330	0	32528	
3331	0	32532	
3332	0	32512	
3333	0	32492	
3334	0	32496	
3335	0	32468	
3336	0	32436	
3337	0	32452	
3338	0	32472	
3339	0	32508	
3340	0	32544	
3341	0	32602	
3342	0	32696	
3343	0	32740	
3344	0	32764	
3345	0	32876	
3346	0	33024	
3347	0	33184	
3348	0	33346	
3349	0	33524	
3350	0	33736	
3351	0	33920	
3352	0	34092	
3353	0	34320	
3354	0	34472	
3355	0	34576	
3356	0	34628	
3357	0	34668	
3358	0	34688	
3359	0	34712	
3360	0	34752	
3361	0	34744	
3362	0	34748	
3363	0	34756	
3364	0	34764	
3365	0	34832	
3366	0	34872	
3367	0	34852	
3368	0	34844	
3369	0	34892	
3370	0	34984	
3371	0	35154	
3372	0	35380	
3373	0	35648	
3374	0	35944	
3375	0	36276	
3376	0	36588	
3377	0	36848	
3378	0	37088	
3379	0	37284	
3380	0	37484	
3381	0	37604	
3382	0	37672	
3383	0	37680	
3384	0	37612	
3385	0	37532	
3386	0	37432	
3387	0	37292	
3388	0	37136	
3389	0	36984	
3390	0	36848	
3391	0	36724	
3392	0	36570	
3393	0	36480	
3394	0	36468	
3395	0	36528	
3396	0	36568	
3397	0	36564	
3398	0	36540	
3399	0	36516	
3400	0	36428	
3401	0	36368	
3402	0	36272	
3403	0	36120	
3404	0	35940	
3405	0	35696	
3406	0	35412	
3407	0	35064	
3408	0	34688	
3409	0	34304	
3410	0	33932	
3411	0	33512	
3412	0	33052	
3413	0	32612	
3414	0	32212	
3415	0	31880	
3416	0	31636	
3417	0	31468	
3418	0	31352	
3419	0	31216	
3420	0	31124	
3421	0	31076	
3422	0	31052	
3423	0	31020	
3424	0	30892	
3425	0	30724	
3426	0	30564	
3427	0	30424	
3428	0	30280	
3429	0	30156	
3430	0	30044	
3431	0	29972	
3432	0	30004	
3433	0	30088	
3434	0	30180	
3435	0	30236	
3436	0	30304	
3437	0	30304	
3438	0	30296	
3439	0	30280	
3440	0	30312	
3441	0	30352	
3442	0	30352	
3443	0	30296	
3444	0	30288	
3445	0	30312	
3446	0	30336	
3447	0	30316	
3448	0	30288	
3449	0	30284	
3450	0	30296	
3451	0	30324	
3452	0	30332	
3453	0	30336	
3454	0	30312	
3455	0	30332	
3456	0	30368	
3457	0	30428	
3458	0	30492	
3459	0	30584	
3460	0	30648	
3461	0	30644	
3462	0	30664	
3463	0	30664	
3464	0	30684	
3465	0	30680	
3466	0	30678	
3467	0	30664	
3468	0	30560	
3469	0	30348	
3470	0	29974	
3471	0	29424	
3472	0	28666	
3473	0	27816	
3474	0	26976	
3475	0	26164	
3476	0	25448	
3477	0	24864	
3478	0	24480	
3479	0	24320	
3480	0	24292	
3481	0	24484	
3482	0	24944	
3483	0	25634	
3484	0	26416	
3485	0	27376	
3486	0	28828	
3487	0	30836	
3488	0	33280	
3489	0	35968	
3490	0	38752	
3491	0	41832	
3492	0	45232	
3493	0	49096	
3494	0	53328	
3495	0	57736	
3496	0	61008	
3497	0	62784	
3498	0	63688	
3499	0	64140	
3500	0	64320	
3501	0	64360	
3502	0	64336	
3503	0	64240	
3504	0	64168	
3505	0	64048	
3506	0	63936	
3507	0	63812	
3508	0	59576	
3509	0	52888	
3510	0	47480	
3511	0	43080	
3512	0	38764	
3513	0	34384	
3514	0	30468	
3515	0	27244	
3516	0	24616	
3517	0	22330	
3518	0	20444	
3519	0	18920	
3520	0	17690	
3521	0	16744	
3522	0	16144	
3523	0	15708	
3524	0	15442	
3525	0	15260	
3526	0	15118	
3527	0	15156	
3528	0	15424	
3529	0	15954	
3530	0	16648	
3531	0	17372	
3532	0	18072	
3533	0	18776	
3534	0	19538	
3535	0	20244	
3536	0	20928	
3537	0	21568	
3538	0	22174	
3539	0	22738	
3540	0	23320	
3541	0	23996	
3542	0	24724	
3543	0	25484	
3544	0	26188	
3545	0	26794	
3546	0	27306	
3547	0	27720	
3548	0	28056	
3549	0	28376	
3550	0	28624	
3551	0	28812	
3552	0	28928	
3553	0	29034	
3554	0	29130	
3555	0	29200	
3556	0	29280	
3557	0	29372	
3558	0	29456	
3559	0	29574	
3560	0	29676	
3561	0	29780	
3562	0	29860	
3563	0	29920	
3564	0	29988	
3565	0	30064	
3566	0	30156	
3567	0	30212	
3568	0	30258	
3569	0	30368	
3570	0	30466	
3571	0	30506	
3572	0	30536	
3573	0	30586	
3574	0	30652	
3575	0	30700	
3576	0	30788	
3577	0	30876	
3578	0	30908	
3579	0	30920	
3580	0	30968	
3581	0	31032	
3582	0	31080	
3583	0	31120	
3584	0	31192	
3585	0	31272	
3586	0	31352	
3587	0	31356	
3588	0	31336	
3589	0	31328	
3590	0	31376	
3591	0	31472	
3592	0	31548	
3593	0	31592	
3594	0	31620	
3595	0	31616	
3596	0	31688	
3597	0	31796	
3598	0	31848	
3599	0	31864	
3600	0	31856	
3601	0	31792	
3602	0	31760	
3603	0	31792	
3604	0	31848	
3605	0	31852	
3606	0	31844	
3607	0	31852	
3608	0	31896	
3609	0	32000	
3610	0	32088	
3611	0	32172	
3612	0	32234	
3613	0	32300	
3614	0	32376	
3615	0	32498	
3616	0	32596	
3617	0	32650	
3618	0	32658	
3619	0	32616	
3620	0	32632	
3621	0	32680	
3622	0	32712	
3623	0	32704	
3624	0	32636	
3625	0	32640	
3626	0	32692	
3627	0	32752	
3628	0	32834	
3629	0	32932	
3630	0	32994	
3631	0	33084	
3632	0	33132	
3633	0	33098	
3634	0	33056	
3635	0	32992	
3636	0	32960	
3637	0	32904	
3638	0	32900	
3639	0	32944	
3640	0	32992	
3641	0	33028	
3642	0	33058	
3643	0	33128	
3644	0	33252	
3645	0	33354	
3646	0	33392	
3647	0	33436	
3648	0	33444	
3649	0	33448	
3650	0	33464	
3651	0	33480	
3652	0	33468	
3653	0	33432	
3654	0	33432	
3655	0	33464	
3656	0	33496	
3657	0	33584	
3658	0	33680	
3659	0	33736	
3660	0	33788	
3661	0	33824	
3662	0	33880	
3663	0	33886	
3664	0	33876	
3665	0	33892	
3666	0	33916	
3667	0	33904	
3668	0	33908	
3669	0	33904	
3670	0	33920	
3671	0	33892	
3672	0	33816	
3673	0	33764	
3674	0	33752	
3675	0	33722	
3676	0	33756	
3677	0	33772	
3678	0	33788	
3679	0	33852	
3680	0	33916	
3681	0	33928	
3682	0	33922	
3683	0	33960	
3684	0	34046	
3685	0	34120	
3686	0	34096	
3687	0	34062	
3688	0	34024	
3689	0	34008	
3690	0	34068	
3691	0	34128	
3692	0	34208	
3693	0	34260	
3694	0	34288	
3695	0	34244	
3696	0	34256	
3697	0	34312	
3698	0	34356	
3699	0	34380	
3700	0	34390	
3701	0	34400	
3702	0	34424	
3703	0	34384	
3704	0	34336	
3705	0	34296	
3706	0	34320	
3707	0	34364	
3708	0	34424	
3709	0	34432	
3710	0	34420	
3711	0	34424	
3712	0	34484	
3713	0	34588	
3714	0	34704	
3715	0	34788	
3716	0	34824	
3717	0	34800	
3718	0	34796	
3719	0	34804	
3720	0	34832	
3721	0	34840	
3722	0	34824	
3723	0	34828	
3724	0	34832	
3725	0	34828	
3726	0	34832	
3727	0	34900	
3728	0	34960	
3729	0	34992	
3730	0	35020	
3731	0	35036	
3732	0	35060	
3733	0	35084	
3734	0	35092	
3735	0	35084	
3736	0	35064	
3737	0	34980	
3738	0	34920	
3739	0	34892	
3740	0	34852	
3741	0	34814	
3742	0	34744	
3743	0	34648	
3744	0	34552	
3745	0	34480	
3746	0	34456	
3747	0	34436	
3748	0	34408	
3749	0	34344	
3750	0	34272	
3751	0	34232	
3752	0	34192	
3753	0	34124	
3754	0	34040	
3755	0	33924	
3756	0	33832	
3757	0	33740	
3758	0	33616	
3759	0	33512	
3760	0	33436	
3761	0	33364	
3762	0	33336	
3763	0	33304	
3764	0	33292	
3765	0	33312	
3766	0	33296	
3767	0	33232	
3768	0	33156	
3769	0	33072	
3770	0	33012	
3771	0	32924	
3772	0	32824	
3773	0	32724	
3774	0	32644	
3775	0	32552	
3776	0	32460	
3777	0	32396	
3778	0	32356	
3779	0	32284	
3780	0	32272	
3781	0	32304	
3782	0	32340	
3783	0	32352	
3784	0	32392	
3785	0	32418	
3786	0	32352	
3787	0	32260	
3788	0	32156	
3789	0	32120	
3790	0	32102	
3791	0	32148	
3792	0	32200	
3793	0	32160	
3794	0	32104	
3795	0	32016	
3796	0	31944	
3797	0	31904	
3798	0	31868	
3799	0	31860	
3800	0	31816	
3801	0	31792	
3802	0	31824	
3803	0	31860	
3804	0	31880	
3805	0	31856	
3806	0	31848	
3807	0	31840	
3808	0	31828	
3809	0	31820	
3810	0	31840	
3811	0	31866	
3812	0	31876	
3813	0	31880	
3814	0	31808	
3815	0	31706	
3816	0	31684	
3817	0	31696	
3818	0	31716	
3819	0	31716	
3820	0	31742	
3821	0	31736	
3822	0	31740	
3823	0	31802	
3824	0	31864	
3825	0	31936	
3826	0	32020	
3827	0	32020	
3828	0	31928	
3829	0	31840	
3830	0	31856	
3831	0	31896	
3832	0	31954	
3833	0	32020	
3834	0	32052	
3835	0	32048	
3836	0	32028	
3837	0	32016	
3838	0	32056	
3839	0	32084	
3840	0	32128	
3841	0	32168	
3842	0	32244	
3843	0	32280	
3844	0	32280	
3845	0	32292	
3846	0	32272	
3847	0	32260	
3848	0	32164	
3849	0	32122	
3850	0	32080	
3851	0	32092	
3852	0	32148	
3853	0	32248	
3854	0	32376	
3855	0	32552	
3856	0	32680	
3857	0	32776	
3858	0	32832	
3859	0	32808	
3860	0	32730	
3861	0	32676	
3862	0	32640	
3863	0	32608	
3864	0	32596	
3865	0	32556	
3866	0	32576	
3867	0	32662	
3868	0	32764	
3869	0	32832	
3870	0	32872	
3871	0	32872	
3872	0	32868	
3873	0	32860	
3874	0	32852	
3875	0	32872	
3876	0	32880	
3877	0	32872	
3878	0	32832	
3879	0	32816	
3880	0	32848	
3881	0	32888	
3882	0	32924	
3883	0	32940	
3884	0	32960	
3885	0	32992	
3886	0	33040	
3887	0	33100	
3888	0	33100	
3889	0	33070	
3890	0	33096	
3891	0	33148	
3892	0	33248	
3893	0	33212	
3894	0	33112	
3895	0	33040	
3896	0	33016	
3897	0	33024	
3898	0	33036	
3899	0	33032	
3900	0	33064	
3901	0	33120	
3902	0	33152	
3903	0	33236	
3904	0	33332	
3905	0	33352	
3906	0	33268	
3907	0	33136	
3908	0	33020	
3909	0	32916	
3910	0	32896	
3911	0	32904	
3912	0	32872	
3913	0	32832	
3914	0	32800	
3915	0	32704	
3916	0	32664	
3917	0	32768	
3918	0	32912	
3919	0	32988	
3920	0	33072	
3921	0	33172	
3922	0	33288	
3923	0	33352	
3924	0	33296	
3925	0	33188	
3926	0	33132	
3927	0	33120	
3928	0	33084	
3929	0	33060	
3930	0	33056	
3931	0	33072	
3932	0	33080	
3933	0	32986	
3934	0	32885	
3935	0	32844	
3936	0	32892	
3937	0	32996	
3938	0	33026	
3939	0	32984	
3940	0	32924	
3941	0	32912	
3942	0	32856	
3943	0	32756	
3944	0	32700	
3945	0	32684	
3946	0	32676	
3947	0	32704	
3948	0	32730	
3949	0	32676	
3950	0	32572	
3951	0	32520	
3952	0	32492	
3953	0	32496	
3954	0	32500	
3955	0	32484	
3956	0	32440	
3957	0	32452	
3958	0	32528	
3959	0	32556	
3960	0	32524	
3961	0	32484	
3962	0	32420	
3963	0	32348	
3964	0	32360	
3965	0	32424	
3966	0	32464	
3967	0	32512	
3968	0	32564	
3969	0	32600	
3970	0	32588	
3971	0	32528	
3972	0	32480	
3973	0	32428	
3974	0	32336	
3975	0	32228	
3976	0	32192	
3977	0	32196	
3978	0	32208	
3979	0	32292	
3980	0	32392	
3981	0	32468	
3982	0	32456	
3983	0	32448	
3984	0	32380	
3985	0	32288	
3986	0	32240	
3987	0	32204	
3988	0	32216	
3989	0	32196	
3990	0	32176	
3991	0	32152	
3992	0	32156	
3993	0	32240	
3994	0	32348	
3995	0	32436	
3996	0	32496	
3997	0	32508	
3998	0	32506	
3999	0	32512	
4000	0	32456	
4001	0	32336	
4002	0	32224	
4003	0	32156	
4004	0	32100	
4005	0	32084	
4006	0	32140	
4007	0	32204	
4008	0	32234	
4009	0	32216	
4010	0	32168	
4011	0	32148	
4012	0	32156	
4013	0	32148	
4014	0	32184	
4015	0	32244	
4016	0	32272	
4017	0	32276	
4018	0	32344	
4019	0	32396	
4020	0	32346	
4021	0	32184	
4022	0	32064	
4023	0	32012	
4024	0	32012	
4025	0	32020	
4026	0	32024	
4027	0	32026	
4028	0	32040	
4029	0	32068	
4030	0	32080	
4031	0	32076	
4032	0	32080	
4033	0	32116	
4034	0	32140	
4035	0	32104	
4036	0	32056	
4037	0	32080	
4038	0	32080	
4039	0	32016	
4040	0	31976	
4041	0	32004	
4042	0	32072	
4043	0	32172	
4044	0	32320	
4045	0	32462	
4046	0	32560	
4047	0	32568	
4048	0	32488	
4049	0	32384	
4050	0	32240	
4051	0	32128	
4052	0	32112	
4053	0	32180	
4054	0	32304	
4055	0	32464	
4056	0	32568	
4057	0	32628	
4058	0	32688	
4059	0	32676	
4060	0	32672	
4061	0	32744	
4062	0	32848	
4063	0	32892	
4064	0	32922	
4065	0	33004	
4066	0	33172	
4067	0	33392	
4068	0	33606	
4069	0	33840	
4070	0	34088	
4071	0	34336	
4072	0	34408	
4073	0	34400	
4074	0	34324	
4075	0	34248	
4076	0	34242	
4077	0	34268	
4078	0	34376	
4079	0	34440	
4080	0	34420	
4081	0	34416	
4082	0	34392	
4083	0	34272	
4084	0	34142	
4085	0	34112	
4086	0	34208	
4087	0	34468	
4088	0	34832	
4089	0	35172	
4090	0	35476	
4091	0	35856	
4092	0	36212	
4093	0	36496	
4094	0	36652	
4095	0	36748	
4096	0	36768	
4097	0	36660	
4098	0	36584	
4099	0	36528	
4100	0	36564	
4101	0	36612	
4102	0	36604	
4103	0	36628	
4104	0	36648	
4105	0	36650	
4106	0	36584	
4107	0	36502	
4108	0	36336	
4109	0	36176	
4110	0	36116	
4111	0	36160	
4112	0	36200	
4113	0	36220	
4114	0	36208	
4115	0	36176	
4116	0	36156	
4117	0	36048	
4118	0	35904	
4119	0	35708	
4120	0	35468	
4121	0	35208	
4122	0	34940	
4123	0	34640	
4124	0	34388	
4125	0	34164	
4126	0	33880	
4127	0	33444	
4128	0	32992	
4129	0	32520	
4130	0	32032	
4131	0	31664	
4132	0	31468	
4133	0	31380	
4134	0	31328	
4135	0	31332	
4136	0	31380	
4137	0	31394	
4138	0	31364	
4139	0	31248	
4140	0	31160	
4141	0	31036	
4142	0	30884	
4143	0	30712	
4144	0	30528	
4145	0	30380	
4146	0	30304	
4147	0	30224	
4148	0	30168	
4149	0	30108	
4150	0	30064	
4151	0	30052	
4152	0	29988	
4153	0	29900	
4154	0	29932	
4155	0	30076	
4156	0	30244	
4157	0	30392	
4158	0	30512	
4159	0	30536	
4160	0	30450	
4161	0	30356	
4162	0	30240	
4163	0	30144	
4164	0	30126	
4165	0	30156	
4166	0	30272	
4167	0	30364	
4168	0	30484	
4169	0	30588	
4170	0	30632	
4171	0	30640	
4172	0	30672	
4173	0	30706	
4174	0	30740	
4175	0	30708	
4176	0	30656	
4177	0	30580	
4178	0	30494	
4179	0	30440	
4180	0	30368	
4181	0	30316	
4182	0	30252	
4183	0	30188	
4184	0	30178	
4185	0	30112	
4186	0	29848	
4187	0	29332	
4188	0	28614	
4189	0	27904	
4190	0	27216	
4191	0	26624	
4192	0	26170	
4193	0	25844	
4194	0	25664	
4195	0	25608	
4196	0	25756	
4197	0	26240	
4198	0	26996	
4199	0	27816	
4200	0	28780	
4201	0	30136	
4202	0	31964	
4203	0	34192	
4204	0	36808	
4205	0	39500	
4206	0	42316	
4207	0	45320	
4208	0	48572	
4209	0	52176	
4210	0	55916	
4211	0	59644	
4212	0	62048	
4213	0	63328	
4214	0	63952	
4215	0	64240	
4216	0	64348	
4217	0	64360	
4218	0	64292	
4219	0	64216	
4220	0	64096	
4221	0	63980	
4222	0	63864	
4223	0	56968	
4224	0	49228	
4225	0	42752	
4226	0	37420	
4227	0	32716	
4228	0	28600	
4229	0	25700	
4230	0	23860	
4231	0	22594	
4232	0	21512	
4233	0	20474	
4234	0	19424	
4235	0	18252	
4236	0	17100	
4237	0	16216	
4238	0	15464	
4239	0	14848	
4240	0	14520	
4241	0	14488	
4242	0	14500	
4243	0	14465	
4244	0	14576	
4245	0	14896	
4246	0	15380	
4247	0	15978	
4248	0	16754	
4249	0	17632	
4250	0	18460	
4251	0	19168	
4252	0	19800	
4253	0	20484	
4254	0	21200	
4255	0	21964	
4256	0	22756	
4257	0	23472	
4258	0	24034	
4259	0	24544	
4260	0	25032	
4261	0	25480	
4262	0	26024	
4263	0	26704	
4264	0	27436	
4265	0	28042	
4266	0	28520	
4267	0	28890	
4268	0	29232	
4269	0	29512	
4270	0	29768	
4271	0	29970	
4272	0	30160	
4273	0	30284	
4274	0	30288	
4275	0	30184	
4276	0	30144	
4277	0	30200	
4278	0	30332	
4279	0	30472	
4280	0	30596	
4281	0	30736	
4282	0	30828	
4283	0	30952	
4284	0	31052	
4285	0	31136	
4286	0	31148	
4287	0	31138	
4288	0	31024	
4289	0	31028	
4290	0	31116	
4291	0	31200	
4292	0	31248	
4293	0	31328	
4294	0	31512	
4295	0	31692	
4296	0	31732	
4297	0	31676	
4298	0	31668	
4299	0	31778	
4300	0	31928	
4301	0	32056	
4302	0	32172	
4303	0	32312	
4304	0	32364	
4305	0	32380	
4306	0	32316	
4307	0	32288	
4308	0	32320	
4309	0	32336	
4310	0	32364	
4311	0	32404	
4312	0	32420	
4313	0	32448	
4314	0	32504	
4315	0	32614	
4316	0	32684	
4317	0	32672	
4318	0	32700	
4319	0	32772	
4320	0	32816	
4321	0	32808	
4322	0	32796	
4323	0	32824	
4324	0	32940	
4325	0	33032	
4326	0	33044	
4327	0	33054	
4328	0	32972	
4329	0	32876	
4330	0	32828	
4331	0	32832	
4332	0	32884	
4333	0	32952	
4334	0	33040	
4335	0	33128	
4336	0	33260	
4337	0	33496	
4338	0	33744	
4339	0	33792	
4340	0	33760	
4341	0	33748	
4342	0	33752	
4343	0	33724	
4344	0	33600	
4345	0	33472	
4346	0	33416	
4347	0	33356	
4348	0	33326	
4349	0	33332	
4350	0	33404	
4351	0	33552	
4352	0	33592	
4353	0	33540	
4354	0	33492	
4355	0	33616	
4356	0	33752	
4357	0	33876	
4358	0	33988	
4359	0	34080	
4360	0	34224	
4361	0	34330	
4362	0	34376	
4363	0	34300	
4364	0	34160	
4365	0	34056	
4366	0	33984	
4367	0	33872	
4368	0	33832	
4369	0	33848	
4370	0	33980	
4371	0	34208	
4372	0	34432	
4373	0	34632	
4374	0	34746	
4375	0	34812	
4376	0	34828	
4377	0	34884	
4378	0	34956	
4379	0	34964	
4380	0	34948	
4381	0	34876	
4382	0	34880	
4383	0	34996	
4384	0	35160	
4385	0	35256	
4386	0	35232	
4387	0	35140	
4388	0	34992	
4389	0	34890	
4390	0	34896	
4391	0	34992	
4392	0	35104	
4393	0	35240	
4394	0	35320	
4395	0	35310	
4396	0	35320	
4397	0	35324	
4398	0	35344	
4399	0	35372	
4400	0	35426	
4401	0	35468	
4402	0	35352	
4403	0	35140	
4404	0	35000	
4405	0	34992	
4406	0	35036	
4407	0	35108	
4408	0	35184	
4409	0	35296	
4410	0	35452	
4411	0	35538	
4412	0	35552	
4413	0	35548	
4414	0	35604	
4415	0	35696	
4416	0	35784	
4417	0	35828	
4418	0	35848	
4419	0	35836	
4420	0	35824	
4421	0	35792	
4422	0	35744	
4423	0	35708	
4424	0	35676	
4425	0	35728	
4426	0	35842	
4427	0	35848	
4428	0	35752	
4429	0	35628	
4430	0	35496	
4431	0	35332	
4432	0	35274	
4433	0	35228	
4434	0	35156	
4435	0	35132	
4436	0	35186	
4437	0	35352	
4438	0	35564	
4439	0	35832	
4440	0	36008	
4441	0	36120	
4442	0	36188	
4443	0	36212	
4444	0	36228	
4445	0	36152	
4446	0	36040	
4447	0	35964	
4448	0	35960	
4449	0	35940	
4450	0	35880	
4451	0	35768	
4452	0	35638	
4453	0	35540	
4454	0	35516	
4455	0	35436	
4456	0	35240	
4457	0	35136	
4458	0	35160	
4459	0	35120	
4460	0	35024	
4461	0	34856	
4462	0	34664	
4463	0	34504	
4464	0	34424	
4465	0	34304	
4466	0	34160	
4467	0	34124	
4468	0	34072	
4469	0	33984	
4470	0	33896	
4471	0	33808	
4472	0	33728	
4473	0	33744	
4474	0	33798	
4475	0	33748	
4476	0	33612	
4477	0	33492	
4478	0	33320	
4479	0	33084	
4480	0	32824	
4481	0	32716	
4482	0	32736	
4483	0	32748	
4484	0	32720	
4485	0	32704	
4486	0	32576	
4487	0	32452	
4488	0	32328	
4489	0	32176	
4490	0	31938	
4491	0	31820	
4492	0	31840	
4493	0	31976	
4494	0	32092	
4495	0	32114	
4496	0	32156	
4497	0	32186	
4498	0	32140	
4499	0	32008	
4500	0	31824	
4501	0	31692	
4502	0	31692	
4503	0	31752	
4504	0	31820	
4505	0	31876	
4506	0	31824	
4507	0	31736	
4508	0	31648	
4509	0	31628	
4510	0	31588	
4511	0	31600	
4512	0	31688	
4513	0	31704	
4514	0	31732	
4515	0	31792	
4516	0	31802	
4517	0	31764	
4518	0	31644	
4519	0	31476	
4520	0	31256	
4521	0	31092	
4522	0	31064	
4523	0	31096	
4524	0	31136	
4525	0	31232	
4526	0	31348	
4527	0	31420	
4528	0	31400	
4529	0	31332	
4530	0	31304	
4531	0	31364	
4532	0	31404	
4533	0	31408	
4534	0	31364	
4535	0	31140	
4536	0	30948	
4537	0	30824	
4538	0	30736	
4539	0	30736	
4540	0	30852	
4541	0	31020	
4542	0	31240	
4543	0	31424	
4544	0	31512	
4545	0	31472	
4546	0	31352	
4547	0	31288	
4548	0	31228	
4549	0	31076	
4550	0	31008	
4551	0	31108	
4552	0	31296	
4553	0	31442	
4554	0	31548	
4555	0	31560	
4556	0	31508	
4557	0	31460	
4558	0	31396	
4559	0	31380	
4560	0	31412	
4561	0	31574	
4562	0	31750	
4563	0	31812	
4564	0	31802	
4565	0	31768	
4566	0	31792	
4567	0	31824	
4568	0	31852	
4569	0	31880	
4570	0	31884	
4571	0	31844	
4572	0	31776	
4573	0	31700	
4574	0	31664	
4575	0	31736	
4576	0	31816	
4577	0	31936	
4578	0	32136	
4579	0	32312	
4580	0	32428	
4581	0	32488	
4582	0	32480	
4583	0	32442	
4584	0	32416	
4585	0	32380	
4586	0	32424	
4587	0	32512	
4588	0	32536	
4589	0	32508	
4590	0	32514	
4591	0	32588	
4592	0	32612	
4593	0	32604	
4594	0	32618	
4595	0	32680	
4596	0	32768	
4597	0	32778	
4598	0	32808	
4599	0	32864	
4600	0	32868	
4601	0	32858	
4602	0	32864	
4603	0	32900	
4604	0	32888	
4605	0	32896	
4606	0	32960	
4607	0	33012	
4608	0	33064	
4609	0	33124	
4610	0	33168	
4611	0	33204	
4612	0	33308	
4613	0	33416	
4614	0	33474	
4615	0	33472	
4616	0	33400	
4617	0	33228	
4618	0	33170	
4619	0	33196	
4620	0	33176	
4621	0	33140	
4622	0	33216	
4623	0	33312	
4624	0	33328	
4625	0	33324	
4626	0	33324	
4627	0	33412	
4628	0	33468	
4629	0	33492	
4630	0	33488	
4631	0	33420	
4632	0	33340	
4633	0	33260	
4634	0	33196	
4635	0	33220	
4636	0	33308	
4637	0	33444	
4638	0	33576	
4639	0	33588	
4640	0	33516	
4641	0	33432	
4642	0	33300	
4643	0	33128	
4644	0	32976	
4645	0	32828	
4646	0	32760	
4647	0	32784	
4648	0	32940	
4649	0	33048	
4650	0	33088	
4651	0	33144	
4652	0	33136	
4653	0	33048	
4654	0	32896	
4655	0	32784	
4656	0	32656	
4657	0	32580	
4658	0	32576	
4659	0	32576	
4660	0	32536	
4661	0	32532	
4662	0	32592	
4663	0	32704	
4664	0	32798	
4665	0	32898	
4666	0	32996	
4667	0	33068	
4668	0	33096	
4669	0	33072	
4670	0	32960	
4671	0	32782	
4672	0	32608	
4673	0	32484	
4674	0	32436	
4675	0	32468	
4676	0	32552	
4677	0	32532	
4678	0	32460	
4679	0	32376	
4680	0	32364	
4681	0	32472	
4682	0	32566	
4683	0	32604	
4684	0	32536	
4685	0	32436	
4686	0	32432	
4687	0	32378	
4688	0	32344	
4689	0	32360	
4690	0	32392	
4691	0	32356	
4692	0	32264	
4693	0	32208	
4694	0	32268	
4695	0	32452	
4696	0	32520	
4697	0	32440	
4698	0	32364	
4699	0	32296	
4700	0	32288	
4701	0	32344	
4702	0	32376	
4703	0	32376	
4704	0	32344	
4705	0	32308	
4706	0	32224	
4707	0	32156	
4708	0	32176	
4709	0	32200	
4710	0	32180	
4711	0	32216	
4712	0	32248	
4713	0	32252	
4714	0	32172	
4715	0	32068	
4716	0	32020	
4717	0	32076	
4718	0	32088	
4719	0	32044	
4720	0	32004	
4721	0	32012	
4722	0	32064	
4723	0	32100	
4724	0	32128	
4725	0	32152	
4726	0	32188	
4727	0	32224	
4728	0	32354	
4729	0	32480	
4730	0	32524	
4731	0	32512	
4732	0	32480	
4733	0	32404	
4734	0	32260	
4735	0	32136	
4736	0	32062	
4737	0	32024	
4738	0	32064	
4739	0	32144	
4740	0	32220	
4741	0	32234	
4742	0	32252	
4743	0	32360	
4744	0	32480	
4745	0	32580	
4746	0	32668	
4747	0	32808	
4748	0	32996	
4749	0	33176	
4750	0	33264	
4751	0	33264	
4752	0	33240	
4753	0	33252	
4754	0	33356	
4755	0	33480	
4756	0	33688	
4757	0	33888	
4758	0	33916	
4759	0	33864	
4760	0	33728	
4761	0	33616	
4762	0	33540	
4763	0	33580	
4764	0	33684	
4765	0	33776	
4766	0	33824	
4767	0	33796	
4768	0	33708	
4769	0	33682	
4770	0	33724	
4771	0	33960	
4772	0	34364	
4773	0	34824	
4774	0	35252	
4775	0	35672	
4776	0	36040	
4777	0	36364	
4778	0	36572	
4779	0	36752	
4780	0	36888	
4781	0	36968	
4782	0	36880	
4783	0	36612	
4784	0	36372	
4785	0	36264	
4786	0	36232	
4787	0	36232	
4788	0	36252	
4789	0	36312	
4790	0	36288	
4791	0	36254	
4792	0	36288	
4793	0	36324	
4794	0	36312	
4795	0	36282	
4796	0	36316	
4797	0	36360	
4798	0	36268	
4799	0	36060	
4800	0	35860	
4801	0	35808	
4802	0	35800	
4803	0	35788	
4804	0	35648	
4805	0	35392	
4806	0	35112	
4807	0	34820	
4808	0	34464	
4809	0	34200	
4810	0	34009	
4811	0	33724	
4812	0	33232	
4813	0	32672	
4814	0	32188	
4815	0	31800	
4816	0	31556	
4817	0	31476	
4818	0	31412	
4819	0	31336	
4820	0	31220	
4821	0	31000	
4822	0	30852	
4823	0	30784	
4824	0	30720	
4825	0	30680	
4826	0	30640	
4827	0	30624	
4828	0	30538	
4829	0	30378	
4830	0	30344	
4831	0	30332	
4832	0	30286	
4833	0	30306	
4834	0	30328	
4835	0	30368	
4836	0	30416	
4837	0	30476	
4838	0	30468	
4839	0	30424	
4840	0	30308	
4841	0	30204	
4842	0	30184	
4843	0	30178	
4844	0	30108	
4845	0	30092	
4846	0	30176	
4847	0	30272	
4848	0	30352	
4849	0	30368	
4850	0	30340	
4851	0	30346	
4852	0	30372	
4853	0	30380	
4854	0	30368	
4855	0	30332	
4856	0	30384	
4857	0	30500	
4858	0	30568	
4859	0	30636	
4860	0	30752	
4861	0	30828	
4862	0	30820	
4863	0	30744	
4864	0	30700	
4865	0	30672	
4866	0	30602	
4867	0	30528	
4868	0	30440	
4869	0	30312	
4870	0	30168	
4871	0	29976	
4872	0	29548	
4873	0	28874	
4874	0	28060	
4875	0	27296	
4876	0	26648	
4877	0	26144	
4878	0	25828	
4879	0	25744	
4880	0	25760	
4881	0	25888	
4882	0	26224	
4883	0	26824	
4884	0	27562	
4885	0	28456	
4886	0	29680	
4887	0	31370	
4888	0	33432	
4889	0	35832	
4890	0	38472	
4891	0	41228	
4892	0	44124	
4893	0	47096	
4894	0	50320	
4895	0	53848	
4896	0	57632	
4897	0	60836	
4898	0	62632	
4899	0	63560	
4900	0	64012	
4901	0	64200	
4902	0	64232	
4903	0	64216	
4904	0	64152	
4905	0	64048	
4906	0	63944	
4907	0	63824	
4908	0	60560	
4909	0	51932	
4910	0	44660	
4911	0	38632	
4912	0	33620	
4913	0	29108	
4914	0	25652	
4915	0	23552	
4916	0	22244	
4917	0	21260	
4918	0	20528	
4919	0	19800	
4920	0	18924	
4921	0	17822	
4922	0	16732	
4923	0	15836	
4924	0	15144	
4925	0	14784	
4926	0	14778	
4927	0	14846	
4928	0	14812	
4929	0	14796	
4930	0	14924	
4931	0	15253	
4932	0	15808	
4933	0	16564	
4934	0	17369	
4935	0	18148	
4936	0	18922	
4937	0	19672	
4938	0	20392	
4939	0	21036	
4940	0	21584	
4941	0	22188	
4942	0	22848	
4943	0	23520	
4944	0	24192	
4945	0	24828	
4946	0	25436	
4947	0	26060	
4948	0	26660	
4949	0	27240	
4950	0	27808	
4951	0	28284	
4952	0	28680	
4953	0	29048	
4954	0	29394	
4955	0	29692	
4956	0	29942	
4957	0	30144	
4958	0	30284	
4959	0	30348	
4960	0	30298	
4961	0	30276	
4962	0	30324	
4963	0	30436	
4964	0	30552	
4965	0	30644	
4966	0	30744	
4967	0	30864	
4968	0	30972	
4969	0	30976	
4970	0	30944	
4971	0	30948	
4972	0	31020	
4973	0	31092	
4974	0	31212	
4975	0	31328	
4976	0	31408	
4977	0	31448	
4978	0	31514	
4979	0	31560	
4980	0	31642	
4981	0	31694	
4982	0	31756	
4983	0	31848	
4984	0	31884	
4985	0	31888	
4986	0	31884	
4987	0	31896	
4988	0	31920	
4989	0	31912	
4990	0	31986	
4991	0	32072	
4992	0	32132	
4993	0	32264	
4994	0	32380	
4995	0	32448	
4996	0	32464	
4997	0	32472	
4998	0	32474	
4999	0	32480	
5000	0	32520	
5001	0	32540	
5002	0	32602	
5003	0	32652	
5004	0	32680	
5005	0	32696	
5006	0	32676	
5007	0	32684	
5008	0	32756	
5009	0	32804	
5010	0	32800	
5011	0	32840	
5012	0	32900	
5013	0	33008	
5014	0	33120	
5015	0	33236	
5016	0	33344	
5017	0	33380	
5018	0	33400	
5019	0	33396	
5020	0	33336	
5021	0	33320	
5022	0	33328	
5023	0	33348	
5024	0	33364	
5025	0	33332	
5026	0	33278	
5027	0	33272	
5028	0	33320	
5029	0	33436	
5030	0	33592	
5031	0	33728	
5032	0	33784	
5033	0	33832	
5034	0	33856	
5035	0	33864	
5036	0	33920	
5037	0	33916	
5038	0	33876	
5039	0	33824	
5040	0	33832	
5041	0	33924	
5042	0	34040	
5043	0	34052	
5044	0	34024	
5045	0	33944	
5046	0	33856	
5047	0	33788	
5048	0	33832	
5049	0	33984	
5050	0	34112	
5051	0	34220	
5052	0	34268	
5053	0	34296	
5054	0	34320	
5055	0	34378	
5056	0	34436	
5057	0	34436	
5058	0	34452	
5059	0	34500	
5060	0	34492	
5061	0	34464	
5062	0	34440	
5063	0	34432	
5064	0	34492	
5065	0	34616	
5066	0	34772	
5067	0	34916	
5068	0	35000	
5069	0	34996	
5070	0	34976	
5071	0	35000	
5072	0	34996	
5073	0	35000	
5074	0	34984	
5075	0	34976	
5076	0	35036	
5077	0	35082	
5078	0	35032	
5079	0	34984	
5080	0	34940	
5081	0	34960	
5082	0	35008	
5083	0	35096	
5084	0	35144	
5085	0	35160	
5086	0	35176	
5087	0	35196	
5088	0	35260	
5089	0	35304	
5090	0	35372	
5091	0	35441	
5092	0	35500	
5093	0	35562	
5094	0	35552	
5095	0	35504	
5096	0	35472	
5097	0	35428	
5098	0	35456	
5099	0	35480	
5100	0	35512	
5101	0	35544	
5102	0	35612	
5103	0	35696	
5104	0	35728	
5105	0	35720	
5106	0	35688	
5107	0	35692	
5108	0	35680	
5109	0	35692	
5110	0	35748	
5111	0	35820	
5112	0	35876	
5113	0	35864	
5114	0	35784	
5115	0	35732	
5116	0	35800	
5117	0	35868	
5118	0	35896	
5119	0	35904	
5120	0	35888	
5121	0	35880	
5122	0	35864	
5123	0	35796	
5124	0	35692	
5125	0	35624	
5126	0	35592	
5127	0	35592	
5128	0	35532	
5129	0	35484	
5130	0	35456	
5131	0	35400	
5132	0	35322	
5133	0	35352	
5134	0	35386	
5135	0	35424	
5136	0	35408	
5137	0	35408	
5138	0	35368	
5139	0	35320	
5140	0	35248	
5141	0	35164	
5142	0	35084	
5143	0	35028	
5144	0	34956	
5145	0	34864	
5146	0	34728	
5147	0	34588	
5148	0	34428	
5149	0	34282	
5150	0	34144	
5151	0	34044	
5152	0	33968	
5153	0	33948	
5154	0	33940	
5155	0	33904	
5156	0	33832	
5157	0	33752	
5158	0	33690	
5159	0	33648	
5160	0	33592	
5161	0	33536	
5162	0	33492	
5163	0	33376	
5164	0	33216	
5165	0	33076	
5166	0	32952	
5167	0	32856	
5168	0	32768	
5169	0	32716	
5170	0	32696	
5171	0	32660	
5172	0	32592	
5173	0	32524	
5174	0	32484	
5175	0	32412	
5176	0	32328	
5177	0	32248	
5178	0	32164	
5179	0	32148	
5180	0	32140	
5181	0	32098	
5182	0	32008	
5183	0	31962	
5184	0	31976	
5185	0	32008	
5186	0	32016	
5187	0	32012	
5188	0	31976	
5189	0	31938	
5190	0	31948	
5191	0	31928	
5192	0	31860	
5193	0	31784	
5194	0	31728	
5195	0	31720	
5196	0	31684	
5197	0	31660	
5198	0	31640	
5199	0	31612	
5200	0	31544	
5201	0	31514	
5202	0	31500	
5203	0	31520	
5204	0	31544	
5205	0	31524	
5206	0	31500	
5207	0	31492	
5208	0	31500	
5209	0	31492	
5210	0	31516	
5211	0	31580	
5212	0	31604	
5213	0	31584	
5214	0	31564	
5215	0	31544	
5216	0	31536	
5217	0	31520	
5218	0	31456	
5219	0	31396	
5220	0	31388	
5221	0	31384	
5222	0	31424	
5223	0	31472	
5224	0	31504	
5225	0	31528	
5226	0	31544	
5227	0	31536	
5228	0	31488	
5229	0	31460	
5230	0	31448	
5231	0	31432	
5232	0	31474	
5233	0	31528	
5234	0	31522	
5235	0	31520	
5236	0	31532	
5237	0	31540	
5238	0	31584	
5239	0	31604	
5240	0	31644	
5241	0	31668	
5242	0	31636	
5243	0	31656	
5244	0	31708	
5245	0	31748	
5246	0	31808	
5247	0	31852	
5248	0	31856	
5249	0	31864	
5250	0	31876	
5251	0	31892	
5252	0	31896	
5253	0	31892	
5254	0	31924	
5255	0	31992	
5256	0	32052	
5257	0	32136	
5258	0	32208	
5259	0	32252	
5260	0	32276	
5261	0	32248	
5262	0	32216	
5263	0	32160	
5264	0	32144	
5265	0	32188	
5266	0	32280	
5267	0	32348	
5268	0	32416	
5269	0	32496	
5270	0	32568	
5271	0	32620	
5272	0	32640	
5273	0	32620	
5274	0	32596	
5275	0	32594	
5276	0	32632	
5277	0	32684	
5278	0	32776	
5279	0	32860	
5280	0	32900	
5281	0	32876	
5282	0	32820	
5283	0	32796	
5284	0	32808	
5285	0	32824	
5286	0	32868	
5287	0	32948	
5288	0	33000	
5289	0	33036	
5290	0	33077	
5291	0	33104	
5292	0	33068	
5293	0	33056	
5294	0	33048	
5295	0	33056	
5296	0	33120	
5297	0	33184	
5298	0	33252	
5299	0	33312	
5300	0	33348	
5301	0	33276	
5302	0	33204	
5303	0	33136	
5304	0	33088	
5305	0	33068	
5306	0	33124	
5307	0	33172	
5308	0	33186	
5309	0	33162	
5310	0	33136	
5311	0	33114	
5312	0	33092	
5313	0	33128	
5314	0	33156	
5315	0	33196	
5316	0	33210	
5317	0	33200	
5318	0	33136	
5319	0	33092	
5320	0	33080	
5321	0	33072	
5322	0	33060	
5323	0	33048	
5324	0	33036	
5325	0	33040	
5326	0	33092	
5327	0	33120	
5328	0	33148	
5329	0	33192	
5330	0	33220	
5331	0	33200	
5332	0	33164	
5333	0	33144	
5334	0	33124	
5335	0	33076	
5336	0	33012	
5337	0	32996	
5338	0	32988	
5339	0	32936	
5340	0	32864	
5341	0	32800	
5342	0	32784	
5343	0	32794	
5344	0	32796	
5345	0	32796	
5346	0	32768	
5347	0	32776	
5348	0	32776	
5349	0	32784	
5350	0	32752	
5351	0	32724	
5352	0	32702	
5353	0	32672	
5354	0	32668	
5355	0	32704	
5356	0	32712	
5357	0	32708	
5358	0	32676	
5359	0	32644	
5360	0	32676	
5361	0	32712	
5362	0	32672	
5363	0	32628	
5364	0	32612	
5365	0	32588	
5366	0	32584	
5367	0	32572	
5368	0	32530	
5369	0	32428	
5370	0	32352	
5371	0	32320	
5372	0	32332	
5373	0	32344	
5374	0	32352	
5375	0	32376	
5376	0	32396	
5377	0	32420	
5378	0	32464	
5379	0	32528	
5380	0	32532	
5381	0	32516	
5382	0	32512	
5383	0	32504	
5384	0	32472	
5385	0	32432	
5386	0	32444	
5387	0	32432	
5388	0	32428	
5389	0	32388	
5390	0	32312	
5391	0	32228	
5392	0	32160	
5393	0	32096	
5394	0	32052	
5395	0	32052	
5396	0	32108	
5397	0	32188	
5398	0	32228	
5399	0	32248	
5400	0	32292	
5401	0	32344	
5402	0	32372	
5403	0	32408	
5404	0	32380	
5405	0	32288	
5406	0	32204	
5407	0	32176	
5408	0	32174	
5409	0	32144	
5410	0	32124	
5411	0	32156	
5412	0	32216	
5413	0	32272	
5414	0	32320	
5415	0	32354	
5416	0	32348	
5417	0	32272	
5418	0	32212	
5419	0	32184	
5420	0	32192	
5421	0	32236	
5422	0	32304	
5423	0	32392	
5424	0	32496	
5425	0	32580	
5426	0	32680	
5427	0	32812	
5428	0	32960	
5429	0	33108	
5430	0	33236	
5431	0	33338	
5432	0	33428	
5433	0	33572	
5434	0	33728	
5435	0	33936	
5436	0	34100	
5437	0	34204	
5438	0	34256	
5439	0	34304	
5440	0	34240	
5441	0	34192	
5442	0	34168	
5443	0	34132	
5444	0	34116	
5445	0	34096	
5446	0	34088	
5447	0	34088	
5448	0	34098	
5449	0	34120	
5450	0	34152	
5451	0	34244	
5452	0	34408	
5453	0	34704	
5454	0	35060	
5455	0	35432	
5456	0	35820	
5457	0	36200	
5458	0	36528	
5459	0	36796	
5460	0	37008	
5461	0	37162	
5462	0	37300	
5463	0	37348	
5464	0	37280	
5465	0	37196	
5466	0	37140	
5467	0	37112	
5468	0	37040	
5469	0	36908	
5470	0	36772	
5471	0	36628	
5472	0	36488	
5473	0	36358	
5474	0	36272	
5475	0	36240	
5476	0	36224	
5477	0	36212	
5478	0	36152	
5479	0	36108	
5480	0	36040	
5481	0	35968	
5482	0	35904	
5483	0	35852	
5484	0	35800	
5485	0	35688	
5486	0	35508	
5487	0	35272	
5488	0	35000	
5489	0	34728	
5490	0	34460	
5491	0	34168	
5492	0	33868	
5493	0	33472	
5494	0	32980	
5495	0	32480	
5496	0	32044	
5497	0	31732	
5498	0	31520	
5499	0	31400	
5500	0	31268	
5501	0	31056	
5502	0	30832	
5503	0	30692	
5504	0	30644	
5505	0	30628	
5506	0	30602	
5507	0	30532	
5508	0	30440	
5509	0	30332	
5510	0	30212	
5511	0	30136	
5512	0	30100	
5513	0	30064	
5514	0	30048	
5515	0	30024	
5516	0	30004	
5517	0	29984	
5518	0	29968	
5519	0	29972	
5520	0	30000	
5521	0	30022	
5522	0	30048	
5523	0	30080	
5524	0	30106	
5525	0	30120	
5526	0	30136	
5527	0	30144	
5528	0	30144	
5529	0	30124	
5530	0	30072	
5531	0	30056	
5532	0	30052	
5533	0	30054	
5534	0	30080	
5535	0	30092	
5536	0	30112	
5537	0	30164	
5538	0	30200	
5539	0	30264	
5540	0	30324	
5541	0	30350	
5542	0	30392	
5543	0	30408	
5544	0	30448	
5545	0	30476	
5546	0	30506	
5547	0	30528	
5548	0	30496	
5549	0	30408	
5550	0	30288	
5551	0	30156	
5552	0	29948	
5553	0	29552	
5554	0	28860	
5555	0	27988	
5556	0	27100	
5557	0	26212	
5558	0	25434	
5559	0	24792	
5560	0	24332	
5561	0	24148	
5562	0	24128	
5563	0	24324	
5564	0	24752	
5565	0	25380	
5566	0	26152	
5567	0	27034	
5568	0	28268	
5569	0	30092	
5570	0	32404	
5571	0	35116	
5572	0	37952	
5573	0	40936	
5574	0	44168	
5575	0	47720	
5576	0	51684	
5577	0	55864	
5578	0	59772	
5579	0	62048	
5580	0	63272	
5581	0	63860	
5582	0	64144	
5583	0	64232	
5584	0	64224	
5585	0	64164	
5586	0	64080	
5587	0	63976	
5588	0	63856	
5589	0	63740	
5590	0	61736	
5591	0	53960	
5592	0	47520	
5593	0	42316	
5594	0	37964	
5595	0	33664	
5596	0	29592	
5597	0	26228	
5598	0	23688	
5599	0	21636	
5600	0	19832	
5601	0	18366	
5602	0	17224	
5603	0	16362	
5604	0	15744	
5605	0	15378	
5606	0	15272	
5607	0	15284	
5608	0	15228	
5609	0	15126	
5610	0	15192	
5611	0	15534	
5612	0	16136	
5613	0	16834	
5614	0	17477	
5615	0	18130	
5616	0	18824	
5617	0	19528	
5618	0	20228	
5619	0	20924	
5620	0	21624	
5621	0	22284	
5622	0	22952	
5623	0	23636	
5624	0	24338	
5625	0	25020	
5626	0	25664	
5627	0	26268	
5628	0	26792	
5629	0	27284	
5630	0	27684	
5631	0	28056	
5632	0	28360	
5633	0	28640	
5634	0	28884	
5635	0	29056	
5636	0	29184	
5637	0	29280	
5638	0	29376	
5639	0	29452	
5640	0	29520	
5641	0	29608	
5642	0	29700	
5643	0	29792	
5644	0	29888	
5645	0	29968	
5646	0	30048	
5647	0	30120	
5648	0	30178	
5649	0	30256	
5650	0	30348	
5651	0	30464	
5652	0	30568	
5653	0	30624	
5654	0	30660	
5655	0	30684	
5656	0	30688	
5657	0	30668	
5658	0	30684	
5659	0	30728	
5660	0	30830	
5661	0	30960	
5662	0	31064	
5663	0	31112	
5664	0	31160	
5665	0	31196	
5666	0	31252	
5667	0	31320	
5668	0	31352	
5669	0	31412	
5670	0	31460	
5671	0	31506	
5672	0	31536	
5673	0	31546	
5674	0	31576	
5675	0	31648	
5676	0	31752	
5677	0	31800	
5678	0	31804	
5679	0	31820	
5680	0	31864	
5681	0	31872	
5682	0	31872	
5683	0	31904	
5684	0	31952	
5685	0	32016	
5686	0	32078	
5687	0	32124	
5688	0	32152	
5689	0	32168	
5690	0	32204	
5691	0	32248	
5692	0	32244	
5693	0	32264	
5694	0	32328	
5695	0	32416	
5696	0	32492	
5697	0	32532	
5698	0	32572	
5699	0	32592	
5700	0	32632	
5701	0	32676	
5702	0	32680	
5703	0	32748	
5704	0	32796	
5705	0	32818	
5706	0	32864	
5707	0	32876	
5708	0	32888	
5709	0	32924	
5710	0	32992	
5711	0	33044	
5712	0	33072	
5713	0	33120	
5714	0	33172	
5715	0	33184	
5716	0	33176	
5717	0	33160	
5718	0	33164	
5719	0	33184	
5720	0	33216	
5721	0	33272	
5722	0	33300	
5723	0	33316	
5724	0	33300	
5725	0	33320	
5726	0	33364	
5727	0	33384	
5728	0	33420	
5729	0	33432	
5730	0	33424	
5731	0	33452	
5732	0	33504	
5733	0	33544	
5734	0	33612	
5735	0	33708	
5736	0	33732	
5737	0	33752	
5738	0	33768	
5739	0	33760	
5740	0	33768	
5741	0	33752	
5742	0	33768	
5743	0	33816	
5744	0	33832	
5745	0	33848	
5746	0	33880	
5747	0	33920	
5748	0	33928	
5749	0	33940	
5750	0	33966	
5751	0	34000	
5752	0	34064	
5753	0	34088	
5754	0	34144	
5755	0	34184	
5756	0	34208	
5757	0	34208	
5758	0	34208	
5759	0	34200	
5760	0	34196	
5761	0	34216	
5762	0	34240	
5763	0	34256	
5764	0	34260	
5765	0	34292	
5766	0	34344	
5767	0	34392	
5768	0	34432	
5769	0	34452	
5770	0	34464	
5771	0	34484	
5772	0	34544	
5773	0	34572	
5774	0	34576	
5775	0	34576	
5776	0	34560	
5777	0	34604	
5778	0	34660	
5779	0	34712	
5780	0	34738	
5781	0	34784	
5782	0	34820	
5783	0	34856	
5784	0	34920	
5785	0	34952	
5786	0	34948	
5787	0	34944	
5788	0	34948	
5789	0	34976	
5790	0	34996	
5791	0	34984	
5792	0	34984	
5793	0	35012	
5794	0	35048	
5795	0	35092	
5796	0	35124	
5797	0	35124	
5798	0	35082	
5799	0	35020	
5800	0	35012	
5801	0	35032	
5802	0	35032	
5803	0	35012	
5804	0	35016	
5805	0	35000	
5806	0	35024	
5807	0	35068	
5808	0	35132	
5809	0	35172	
5810	0	35200	
5811	0	35194	
5812	0	35172	
5813	0	35188	
5814	0	35216	
5815	0	35224	
5816	0	35214	
5817	0	35198	
5818	0	35170	
5819	0	35132	
5820	0	35028	
5821	0	34940	
5822	0	34832	
5823	0	34784	
5824	0	34740	
5825	0	34696	
5826	0	34628	
5827	0	34568	
5828	0	34522	
5829	0	34476	
5830	0	34448	
5831	0	34408	
5832	0	34312	
5833	0	34212	
5834	0	34120	
5835	0	34076	
5836	0	34024	
5837	0	33956	
5838	0	33880	
5839	0	33808	
5840	0	33720	
5841	0	33616	
5842	0	33544	
5843	0	33484	
5844	0	33416	
5845	0	33356	
5846	0	33332	
5847	0	33292	
5848	0	33228	
5849	0	33144	
5850	0	33040	
5851	0	32948	
5852	0	32864	
5853	0	32836	
5854	0	32792	
5855	0	32736	
5856	0	32684	
5857	0	32612	
5858	0	32548	
5859	0	32516	
5860	0	32496	
5861	0	32480	
5862	0	32450	
5863	0	32420	
5864	0	32388	
5865	0	32356	
5866	0	32328	
5867	0	32304	
5868	0	32276	
5869	0	32180	
5870	0	32096	
5871	0	32008	
5872	0	31956	
5873	0	31944	
5874	0	31952	
5875	0	31952	
5876	0	31912	
5877	0	31888	
5878	0	31868	
5879	0	31864	
5880	0	31876	
5881	0	31898	
5882	0	31936	
5883	0	31948	
5884	0	31970	
5885	0	31980	
5886	0	32016	
5887	0	32036	
5888	0	32016	
5889	0	32004	
5890	0	31976	
5891	0	31924	
5892	0	31876	
5893	0	31880	
5894	0	31892	
5895	0	31896	
5896	0	31862	
5897	0	31848	
5898	0	31860	
5899	0	31876	
5900	0	31900	
5901	0	31884	
5902	0	31872	
5903	0	31880	
5904	0	31884	
5905	0	31868	
5906	0	31876	
5907	0	31908	
5908	0	31934	
5909	0	32004	
5910	0	32040	
5911	0	32068	
5912	0	32100	
5913	0	32116	
5914	0	32120	
5915	0	32112	
5916	0	32108	
5917	0	32124	
5918	0	32112	
5919	0	32128	
5920	0	32148	
5921	0	32168	
5922	0	32188	
5923	0	32212	
5924	0	32220	
5925	0	32228	
5926	0	32292	
5927	0	32312	
5928	0	32296	
5929	0	32300	
5930	0	32312	
5931	0	32324	
5932	0	32314	
5933	0	32316	
5934	0	32328	
5935	0	32384	
5936	0	32424	
5937	0	32488	
5938	0	32500	
5939	0	32484	
5940	0	32504	
5941	0	32544	
5942	0	32584	
5943	0	32632	
5944	0	32644	
5945	0	32656	
5946	0	32656	
5947	0	32654	
5948	0	32660	
5949	0	32688	
5950	0	32708	
5951	0	32740	
5952	0	32756	
5953	0	32780	
5954	0	32836	
5955	0	32856	
5956	0	32884	
5957	0	32890	
5958	0	32880	
5959	0	32876	
5960	0	32872	
5961	0	32916	
5962	0	32976	
5963	0	33008	
5964	0	33020	
5965	0	32994	
5966	0	32948	
5967	0	32900	
5968	0	32884	
5969	0	32908	
5970	0	32908	
5971	0	32880	
5972	0	32876	
5973	0	32904	
5974	0	32976	
5975	0	33020	
5976	0	33032	
5977	0	33012	
5978	0	32992	
5979	0	32996	
5980	0	33016	
5981	0	33064	
5982	0	33100	
5983	0	33120	
5984	0	33116	
5985	0	33064	
5986	0	33008	
5987	0	33008	
5988	0	33036	
5989	0	33040	
5990	0	33040	
5991	0	33040	
5992	0	33024	
5993	0	32992	
5994	0	32976	
5995	0	32960	
5996	0	32916	
5997	0	32904	
5998	0	32892	
5999	0	32852	
6000	0	32820	
6001	0	32844	
6002	0	32880	
6003	0	32904	
6004	0	32928	
6005	0	32938	
6006	0	32896	
6007	0	32856	
6008	0	32844	
6009	0	32816	
6010	0	32848	
6011	0	32852	
6012	0	32856	
6013	0	32868	
6014	0	32880	
6015	0	32880	
6016	0	32852	
6017	0	32812	
6018	0	32792	
6019	0	32796	
6020	0	32808	
6021	0	32788	
6022	0	32778	
6023	0	32768	
6024	0	32748	
6025	0	32712	
6026	0	32692	
6027	0	32705	
6028	0	32724	
6029	0	32728	
6030	0	32712	
6031	0	32660	
6032	0	32612	
6033	0	32584	
6034	0	32584	
6035	0	32580	
6036	0	32576	
6037	0	32556	
6038	0	32516	
6039	0	32488	
6040	0	32508	
6041	0	32494	
6042	0	32488	
6043	0	32488	
6044	0	32500	
6045	0	32532	
6046	0	32532	
6047	0	32480	
6048	0	32460	
6049	0	32440	
6050	0	32432	
6051	0	32424	
6052	0	32450	
6053	0	32476	
6054	0	32500	
6055	0	32520	
6056	0	32488	
6057	0	32456	
6058	0	32456	
6059	0	32464	
6060	0	32436	
6061	0	32392	
6062	0	32388	
6063	0	32416	
6064	0	32448	
6065	0	32472	
6066	0	32456	
6067	0	32432	
6068	0	32416	
6069	0	32404	
6070	0	32416	
6071	0	32384	
6072	0	32364	
6073	0	32372	
6074	0	32364	
6075	0	32336	
6076	0	32324	
6077	0	32308	
6078	0	32284	
6079	0	32244	
6080	0	32256	
6081	0	32288	
6082	0	32326	
6083	0	32332	
6084	0	32324	
6085	0	32328	
6086	0	32336	
6087	0	32352	
6088	0	32368	
6089	0	32380	
6090	0	32404	
6091	0	32396	
6092	0	32356	
6093	0	32328	
6094	0	32298	
6095	0	32280	
6096	0	32288	
6097	0	32332	
6098	0	32360	
6099	0	32360	
6100	0	32336	
6101	0	32316	
6102	0	32312	
6103	0	32344	
6104	0	32336	
6105	0	32328	
6106	0	32352	
6107	0	32424	
6108	0	32468	
6109	0	32472	
6110	0	32506	
6111	0	32536	
6112	0	32580	
6113	0	32656	
6114	0	32784	
6115	0	32964	
6116	0	33168	
6117	0	33344	
6118	0	33500	
6119	0	33656	
6120	0	33816	
6121	0	33988	
6122	0	34212	
6123	0	34376	
6124	0	34466	
6125	0	34544	
6126	0	34600	
6127	0	34616	
6128	0	34580	
6129	0	34544	
6130	0	34508	
6131	0	34512	
6132	0	34560	
6133	0	34588	
6134	0	34604	
6135	0	34664	
6136	0	34708	
6137	0	34680	
6138	0	34668	
6139	0	34752	
6140	0	34976	
6141	0	35264	
6142	0	35616	
6143	0	35944	
6144	0	36272	
6145	0	36640	
6146	0	36936	
6147	0	37136	
6148	0	37284	
6149	0	37416	
6150	0	37468	
6151	0	37458	
6152	0	37408	
6153	0	37356	
6154	0	37296	
6155	0	37216	
6156	0	37120	
6157	0	36996	
6158	0	36856	
6159	0	36752	
6160	0	36636	
6161	0	36488	
6162	0	36412	
6163	0	36392	
6164	0	36444	
6165	0	36448	
6166	0	36416	
6167	0	36336	
6168	0	36264	
6169	0	36144	
6170	0	36044	
6171	0	35952	
6172	0	35856	
6173	0	35696	
6174	0	35416	
6175	0	35108	
6176	0	34784	
6177	0	34410	
6178	0	34048	
6179	0	33716	
6180	0	33336	
6181	0	32880	
6182	0	32440	
6183	0	32028	
6184	0	31696	
6185	0	31460	
6186	0	31280	
6187	0	31116	
6188	0	31008	
6189	0	30936	
6190	0	30896	
6191	0	30816	
6192	0	30728	
6193	0	30624	
6194	0	30484	
6195	0	30376	
6196	0	30256	
6197	0	30144	
6198	0	30078	
6199	0	30024	
6200	0	30006	
6201	0	29992	
6202	0	29992	
6203	0	29988	
6204	0	30000	
6205	0	30032	
6206	0	30068	
6207	0	30064	
6208	0	30080	
6209	0	30096	
6210	0	30090	
6211	0	30084	
6212	0	30080	
6213	0	30112	
6214	0	30136	
6215	0	30184	
6216	0	30224	
6217	0	30240	
6218	0	30240	
6219	0	30224	
6220	0	30234	
6221	0	30256	
6222	0	30280	
6223	0	30316	
6224	0	30356	
6225	0	30408	
6226	0	30432	
6227	0	30456	
6228	0	30454	
6229	0	30456	
6230	0	30408	
6231	0	30400	
6232	0	30386	
6233	0	30416	
6234	0	30496	
6235	0	30584	
6236	0	30544	
6237	0	30400	
6238	0	30240	
6239	0	30044	
6240	0	29684	
6241	0	29100	
6242	0	28332	
6243	0	27456	
6244	0	26516	
6245	0	25624	
6246	0	24856	
6247	0	24232	
6248	0	23828	
6249	0	23632	
6250	0	23604	
6251	0	23848	
6252	0	24346	
6253	0	25090	
6254	0	25928	
6255	0	26962	
6256	0	28528	
6257	0	30608	
6258	0	33144	
6259	0	35916	
6260	0	38852	
6261	0	42024	
6262	0	45496	
6263	0	49444	
6264	0	53672	
6265	0	58056	
6266	0	61136	
6267	0	62800	
6268	0	63656	
6269	0	64064	
6270	0	64220	
6271	0	64272	
6272	0	64244	
6273	0	64156	
6274	0	64080	
6275	0	63960	
6276	0	63844	
6277	0	63720	
6278	0	60672	
6279	0	53912	
6280	0	48544	
6281	0	44116	
6282	0	39580	
6283	0	34884	
6284	0	30700	
6285	0	27262	
6286	0	24468	
6287	0	22068	
6288	0	20132	
6289	0	18612	
6290	0	17456	
6291	0	16668	
6292	0	16160	
6293	0	15818	
6294	0	15649	
6295	0	15520	
6296	0	15484	
6297	0	15664	
6298	0	16036	
6299	0	16528	
6300	0	17126	
6301	0	17804	
6302	0	18416	
6303	0	19028	
6304	0	19716	
6305	0	20404	
6306	0	21056	
6307	0	21660	
6308	0	22256	
6309	0	22864	
6310	0	23528	
6311	0	24282	
6312	0	25020	
6313	0	25648	
6314	0	26196	
6315	0	26688	
6316	0	27114	
6317	0	27460	
6318	0	27796	
6319	0	28112	
6320	0	28352	
6321	0	28532	
6322	0	28724	
6323	0	28892	
6324	0	29024	
6325	0	29116	
6326	0	29132	
6327	0	29172	
6328	0	29260	
6329	0	29364	
6330	0	29432	
6331	0	29468	
6332	0	29568	
6333	0	29656	
6334	0	29744	
6335	0	29832	
6336	0	29916	
6337	0	29992	
6338	0	30032	
6339	0	30076	
6340	0	30148	
6341	0	30248	
6342	0	30336	
6343	0	30416	
6344	0	30464	
6345	0	30488	
6346	0	30528	
6347	0	30600	
6348	0	30688	
6349	0	30744	
6350	0	30828	
6351	0	30872	
6352	0	30912	
6353	0	30940	
6354	0	30972	
6355	0	30984	
6356	0	31020	
6357	0	31052	
6358	0	31060	
6359	0	31124	
6360	0	31208	
6361	0	31240	
6362	0	31248	
6363	0	31280	
6364	0	31354	
6365	0	31408	
6366	0	31458	
6367	0	31516	
6368	0	31576	
6369	0	31620	
6370	0	31656	
6371	0	31696	
6372	0	31716	
6373	0	31802	
6374	0	31872	
6375	0	31904	
6376	0	31918	
6377	0	31956	
6378	0	31962	
6379	0	31992	
6380	0	32052	
6381	0	32112	
6382	0	32152	
6383	0	32180	
6384	0	32228	
6385	0	32272	
6386	0	32304	
6387	0	32308	
6388	0	32300	
6389	0	32304	
6390	0	32340	
6391	0	32364	
6392	0	32404	
6393	0	32432	
6394	0	32460	
6395	0	32496	
6396	0	32540	
6397	0	32592	
6398	0	32618	
6399	0	32640	
6400	0	32672	
6401	0	32704	
6402	0	32716	
6403	0	32736	
6404	0	32768	
6405	0	32800	
6406	0	32816	
6407	0	32848	
6408	0	32896	
6409	0	32928	
6410	0	32976	
6411	0	32996	
6412	0	32992	
6413	0	33024	
6414	0	33078	
6415	0	33092	
6416	0	33100	
6417	0	33104	
6418	0	33056	
6419	0	33044	
6420	0	33064	
6421	0	33080	
6422	0	33104	
6423	0	33136	
6424	0	33136	
6425	0	33144	
6426	0	33188	
6427	0	33240	
6428	0	33312	
6429	0	33376	
6430	0	33392	
6431	0	33444	
6432	0	33512	
6433	0	33552	
6434	0	33584	
6435	0	33588	
6436	0	33584	
6437	0	33600	
6438	0	33608	
6439	0	33652	
6440	0	33696	
6441	0	33728	
6442	0	33720	
6443	0	33752	
6444	0	33798	
6445	0	33832	
6446	0	33844	
6447	0	33836	
6448	0	33852	
6449	0	33904	
6450	0	33936	
6451	0	33968	
6452	0	33992	
6453	0	34020	
6454	0	34032	
6455	0	34072	
6456	0	34108	
6457	0	34128	
6458	0	34128	
6459	0	34112	
6460	0	34120	
6461	0	34156	
6462	0	34212	
6463	0	34264	
6464	0	34308	
6465	0	34340	
6466	0	34388	
6467	0	34440	
6468	0	34460	
6469	0	34484	
6470	0	34522	
6471	0	34548	
6472	0	34556	
6473	0	34562	
6474	0	34600	
6475	0	34676	
6476	0	34728	
6477	0	34744	
6478	0	34744	
6479	0	34746	
6480	0	34720	
6481	0	34728	
6482	0	34784	
6483	0	34832	
6484	0	34820	
6485	0	34828	
6486	0	34832	
6487	0	34840	
6488	0	34856	
6489	0	34876	
6490	0	34892	
6491	0	34913	
6492	0	34916	
6493	0	34912	
6494	0	34924	
6495	0	34924	
6496	0	34948	
6497	0	34972	
6498	0	34980	
6499	0	35016	
6500	0	35036	
6501	0	35020	
6502	0	35040	
6503	0	35036	
6504	0	35018	
6505	0	35012	
6506	0	34968	
6507	0	34956	
6508	0	34936	
6509	0	34884	
6510	0	34816	
6511	0	34732	
6512	0	34640	
6513	0	34592	
6514	0	34548	
6515	0	34540	
6516	0	34524	
6517	0	34464	
6518	0	34376	
6519	0	34256	
6520	0	34154	
6521	0	34024	
6522	0	33944	
6523	0	33868	
6524	0	33784	
6525	0	33716	
6526	0	33664	
6527	0	33644	
6528	0	33600	
6529	0	33528	
6530	0	33468	
6531	0	33400	
6532	0	33300	
6533	0	33188	
6534	0	33112	
6535	0	33048	
6536	0	32972	
6537	0	32888	
6538	0	32784	
6539	0	32716	
6540	0	32636	
6541	0	32598	
6542	0	32580	
6543	0	32604	
6544	0	32568	
6545	0	32524	
6546	0	32480	
6547	0	32452	
6548	0	32412	
6549	0	32352	
6550	0	32280	
6551	0	32224	
6552	0	32192	
6553	0	32144	
6554	0	32132	
6555	0	32140	
6556	0	32136	
6557	0	32064	
6558	0	32024	
6559	0	31968	
6560	0	31952	
6561	0	31936	
6562	0	31932	
6563	0	31908	
6564	0	31888	
6565	0	31880	
6566	0	31832	
6567	0	31808	
6568	0	31808	
6569	0	31788	
6570	0	31772	
6571	0	31786	
6572	0	31808	
6573	0	31844	
6574	0	31808	
6575	0	31766	
6576	0	31722	
6577	0	31712	
6578	0	31740	
6579	0	31800	
6580	0	31860	
6581	0	31888	
6582	0	31888	
6583	0	31844	
6584	0	31816	
6585	0	31800	
6586	0	31804	
6587	0	31796	
6588	0	31786	
6589	0	31772	
6590	0	31800	
6591	0	31792	
6592	0	31832	
6593	0	31836	
6594	0	31864	
6595	0	31888	
6596	0	31912	
6597	0	31904	
6598	0	31928	
6599	0	31948	
6600	0	31948	
6601	0	31916	
6602	0	31898	
6603	0	31892	
6604	0	31944	
6605	0	31988	
6606	0	32028	
6607	0	32016	
6608	0	32004	
6609	0	32036	
6610	0	32072	
6611	0	32084	
6612	0	32116	
6613	0	32140	
6614	0	32200	
6615	0	32256	
6616	0	32304	
6617	0	32320	
6618	0	32304	
6619	0	32284	
6620	0	32304	
6621	0	32324	
6622	0	32356	
6623	0	32392	
6624	0	32414	
6625	0	32452	
6626	0	32464	
6627	0	32436	
6628	0	32456	
6629	0	32464	
6630	0	32468	
6631	0	32480	
6632	0	32512	
6633	0	32532	
6634	0	32568	
6635	0	32596	
6636	0	32628	
6637	0	32688	
6638	0	32756	
6639	0	32768	
6640	0	32736	
6641	0	32692	
6642	0	32712	
6643	0	32712	
6644	0	32740	
6645	0	32748	
6646	0	32744	
6647	0	32740	
6648	0	32708	
6649	0	32732	
6650	0	32770	
6651	0	32780	
6652	0	32796	
6653	0	32832	
6654	0	32864	
6655	0	32854	
6656	0	32828	
6657	0	32808	
6658	0	32826	
6659	0	32824	
6660	0	32860	
6661	0	32864	
6662	0	32848	
6663	0	32832	
6664	0	32864	
6665	0	32904	
6666	0	32926	
6667	0	32900	
6668	0	32912	
6669	0	32984	
6670	0	33032	
6671	0	33032	
6672	0	33024	
6673	0	33028	
6674	0	33028	
6675	0	33048	
6676	0	33048	
6677	0	33016	
6678	0	32976	
6679	0	32960	
6680	0	32944	
6681	0	32956	
6682	0	32968	
6683	0	33020	
6684	0	33016	
6685	0	32980	
6686	0	32952	
6687	0	32936	
6688	0	32924	
6689	0	32944	
6690	0	32944	
6691	0	32924	
6692	0	32916	
6693	0	32920	
6694	0	32932	
6695	0	32904	
6696	0	32880	
6697	0	32860	
6698	0	32894	
6699	0	32938	
6700	0	32968	
6701	0	32964	
6702	0	32976	
6703	0	32900	
6704	0	32856	
6705	0	32812	
6706	0	32756	
6707	0	32712	
6708	0	32712	
6709	0	32720	
6710	0	32740	
6711	0	32736	
6712	0	32724	
6713	0	32730	
6714	0	32744	
6715	0	32760	
6716	0	32760	
6717	0	32740	
6718	0	32744	
6719	0	32748	
6720	0	32716	
6721	0	32688	
6722	0	32682	
6723	0	32664	
6724	0	32648	
6725	0	32624	
6726	0	32602	
6727	0	32548	
6728	0	32490	
6729	0	32492	
6730	0	32512	
6731	0	32540	
6732	0	32516	
6733	0	32480	
6734	0	32444	
6735	0	32440	
6736	0	32468	
6737	0	32492	
6738	0	32480	
6739	0	32448	
6740	0	32448	
6741	0	32472	
6742	0	32512	
6743	0	32524	
6744	0	32512	
6745	0	32528	
6746	0	32552	
6747	0	32580	
6748	0	32566	
6749	0	32520	
6750	0	32472	
6751	0	32468	
6752	0	32480	
6753	0	32484	
6754	0	32444	
6755	0	32416	
6756	0	32420	
6757	0	32404	
6758	0	32396	
6759	0	32398	
6760	0	32412	
6761	0	32420	
6762	0	32408	
6763	0	32352	
6764	0	32324	
6765	0	32328	
6766	0	32344	
6767	0	32368	
6768	0	32344	
6769	0	32280	
6770	0	32256	
6771	0	32264	
6772	0	32256	
6773	0	32240	
6774	0	32216	
6775	0	32208	
6776	0	32224	
6777	0	32212	
6778	0	32180	
6779	0	32172	
6780	0	32176	
6781	0	32196	
6782	0	32248	
6783	0	32304	
6784	0	32320	
6785	0	32304	
6786	0	32272	
6787	0	32268	
6788	0	32274	
6789	0	32244	
6790	0	32240	
6791	0	32284	
6792	0	32308	
6793	0	32320	
6794	0	32336	
6795	0	32328	
6796	0	32332	
6797	0	32340	
6798	0	32364	
6799	0	32352	
6800	0	32352	
6801	0	32352	
6802	0	32324	
6803	0	32290	
6804	0	32252	
6805	0	32204	
6806	0	32176	
6807	0	32168	
6808	0	32208	
6809	0	32260	
6810	0	32292	
6811	0	32336	
6812	0	32356	
6813	0	32384	
6814	0	32460	
6815	0	32544	
6816	0	32628	
6817	0	32732	
6818	0	32864	
6819	0	32984	
6820	0	33108	
6821	0	33264	
6822	0	33420	
6823	0	33592	
6824	0	33772	
6825	0	33968	
6826	0	34168	
6827	0	34328	
6828	0	34396	
6829	0	34468	
6830	0	34514	
6831	0	34528	
6832	0	34504	
6833	0	34492	
6834	0	34452	
6835	0	34428	
6836	0	34432	
6837	0	34472	
6838	0	34516	
6839	0	34552	
6840	0	34588	
6841	0	34600	
6842	0	34632	
6843	0	34736	
6844	0	34904	
6845	0	35152	
6846	0	35408	
6847	0	35704	
6848	0	36044	
6849	0	36436	
6850	0	36792	
6851	0	37044	
6852	0	37208	
6853	0	37336	
6854	0	37408	
6855	0	37400	
6856	0	37356	
6857	0	37352	
6858	0	37336	
6859	0	37268	
6860	0	37192	
6861	0	37100	
6862	0	36984	
6863	0	36880	
6864	0	36736	
6865	0	36604	
6866	0	36504	
6867	0	36456	
6868	0	36472	
6869	0	36504	
6870	0	36476	
6871	0	36428	
6872	0	36408	
6873	0	36376	
6874	0	36316	
6875	0	36248	
6876	0	36104	
6877	0	35924	
6878	0	35676	
6879	0	35352	
6880	0	35004	
6881	0	34644	
6882	0	34272	
6883	0	33920	
6884	0	33512	
6885	0	33048	
6886	0	32588	
6887	0	32170	
6888	0	31846	
6889	0	31588	
6890	0	31380	
6891	0	31200	
6892	0	31060	
6893	0	30956	
6894	0	30900	
6895	0	30868	
6896	0	30820	
6897	0	30752	
6898	0	30648	
6899	0	30528	
6900	0	30400	
6901	0	30312	
6902	0	30208	
6903	0	30124	
6904	0	30076	
6905	0	30052	
6906	0	30044	
6907	0	30048	
6908	0	30064	
6909	0	30092	
6910	0	30104	
6911	0	30146	
6912	0	30168	
6913	0	30176	
6914	0	30192	
6915	0	30204	
6916	0	30212	
6917	0	30168	
6918	0	30128	
6919	0	30138	
6920	0	30162	
6921	0	30194	
6922	0	30212	
6923	0	30220	
6924	0	30248	
6925	0	30304	
6926	0	30348	
6927	0	30384	
6928	0	30392	
6929	0	30396	
6930	0	30380	
6931	0	30372	
6932	0	30396	
6933	0	30432	
6934	0	30456	
6935	0	30436	
6936	0	30432	
6937	0	30480	
6938	0	30538	
6939	0	30528	
6940	0	30476	
6941	0	30400	
6942	0	30240	
6943	0	30012	
6944	0	29624	
6945	0	29016	
6946	0	28264	
6947	0	27384	
6948	0	26476	
6949	0	25632	
6950	0	24936	
6951	0	24412	
6952	0	24102	
6953	0	23974	
6954	0	24044	
6955	0	24368	
6956	0	24952	
6957	0	25744	
6958	0	26592	
6959	0	27728	
6960	0	29408	
6961	0	31576	
6962	0	34178	
6963	0	36970	
6964	0	39932	
6965	0	43168	
6966	0	46728	
6967	0	50768	
6968	0	54984	
6969	0	59208	
6970	0	61836	
6971	0	63240	
6972	0	63956	
6973	0	64296	
6974	0	64388	
6975	0	64416	
6976	0	64352	
6977	0	64260	
6978	0	64176	
6979	0	64064	
6980	0	63952	
6981	0	63828	
6982	0	58400	
6983	0	52088	
6984	0	47104	
6985	0	42824	
6986	0	38364	
6987	0	33968	
6988	0	30124	
6989	0	27040	
6990	0	24484	
6991	0	22272	
6992	0	20466	
6993	0	19020	
6994	0	17860	
6995	0	16956	
6996	0	16316	
6997	0	15853	
6998	0	15572	
6999	0	15356	
7000	0	15263	
7001	0	15396	
7002	0	15764	
7003	0	16368	
7004	0	17080	
7005	0	17772	
7006	0	18456	
7007	0	19152	
7008	0	19836	
7009	0	20516	
7010	0	21164	
7011	0	21788	
7012	0	22380	
7013	0	22976	
7014	0	23624	
7015	0	24336	
7016	0	25056	
7017	0	25692	
7018	0	26240	
7019	0	26720	
7020	0	27130	
7021	0	27500	
7022	0	27860	
7023	0	28180	
7024	0	28432	
7025	0	28632	
7026	0	28760	
7027	0	28858	
7028	0	28960	
7029	0	29024	
7030	0	29112	
7031	0	29164	
7032	0	29240	
7033	0	29276	
7034	0	29328	
7035	0	29392	
7036	0	29480	
7037	0	29600	
7038	0	29728	
7039	0	29876	
7040	0	29984	
7041	0	30036	
7042	0	30064	
7043	0	30152	
7044	0	30240	
7045	0	30324	
7046	0	30400	
7047	0	30478	
7048	0	30552	
7049	0	30608	
7050	0	30680	
7051	0	30740	
7052	0	30832	
7053	0	30908	
7054	0	30936	
7055	0	30928	
7056	0	30946	
7057	0	30984	
7058	0	31060	
7059	0	31096	
7060	0	31096	
7061	0	31098	
7062	0	31152	
7063	0	31200	
7064	0	31248	
7065	0	31296	
7066	0	31360	
7067	0	31418	
7068	0	31484	
7069	0	31564	
7070	0	31584	
7071	0	31608	
7072	0	31652	
7073	0	31668	
7074	0	31706	
7075	0	31708	
7076	0	31728	
7077	0	31828	
7078	0	31924	
7079	0	31992	
7080	0	32016	
7081	0	31968	
7082	0	31960	
7083	0	32032	
7084	0	32084	
7085	0	32140	
7086	0	32216	
7087	0	32266	
7088	0	32336	
7089	0	32372	
7090	0	32444	
7091	0	32472	
7092	0	32472	
7093	0	32488	
7094	0	32516	
7095	0	32576	
7096	0	32688	
7097	0	32748	
7098	0	32776	
7099	0	32824	
7100	0	32836	
7101	0	32800	
7102	0	32772	
7103	0	32760	
7104	0	32740	
7105	0	32712	
7106	0	32696	
7107	0	32712	
7108	0	32748	
7109	0	32844	
7110	0	32912	
7111	0	32924	
7112	0	32944	
7113	0	32952	
7114	0	32992	
7115	0	33044	
7116	0	33120	
7117	0	33144	
7118	0	33136	
7119	0	33140	
7120	0	33168	
7121	0	33184	
7122	0	33220	
7123	0	33256	
7124	0	33272	
7125	0	33324	
7126	0	33340	
7127	0	33348	
7128	0	33404	
7129	0	33468	
7130	0	33480	
7131	0	33484	
7132	0	33514	
7133	0	33528	
7134	0	33524	
7135	0	33524	
7136	0	33560	
7137	0	33680	
7138	0	33736	
7139	0	33744	
7140	0	33716	
7141	0	33696	
7142	0	33668	
7143	0	33656	
7144	0	33676	
7145	0	33652	
7146	0	33628	
7147	0	33628	
7148	0	33704	
7149	0	33784	
7150	0	33834	
7151	0	33840	
7152	0	33868	
7153	0	33936	
7154	0	34008	
7155	0	34084	
7156	0	34096	
7157	0	34074	
7158	0	34076	
7159	0	34080	
7160	0	34106	
7161	0	34088	
7162	0	34072	
7163	0	34088	
7164	0	34132	
7165	0	34180	
7166	0	34200	
7167	0	34196	
7168	0	34192	
7169	0	34256	
7170	0	34292	
7171	0	34360	
7172	0	34380	
7173	0	34384	
7174	0	34380	
7175	0	34364	
7176	0	34360	
7177	0	34380	
7178	0	34418	
7179	0	34460	
7180	0	34538	
7181	0	34604	
7182	0	34684	
7183	0	34748	
7184	0	34840	
7185	0	34916	
7186	0	34936	
7187	0	34872	
7188	0	34848	
7189	0	34864	
7190	0	34880	
7191	0	34896	
7192	0	34880	
7193	0	34896	
7194	0	34908	
7195	0	34884	
7196	0	34872	
7197	0	34900	
7198	0	34912	
7199	0	34904	
7200	0	34892	
7201	0	34908	
7202	0	34900	
7203	0	34916	
7204	0	34944	
7205	0	34996	
7206	0	35050	
7207	0	35052	
7208	0	35056	
7209	0	35028	
7210	0	35016	
7211	0	34988	
7212	0	34980	
7213	0	34972	
7214	0	35004	
7215	0	35028	
7216	0	34976	
7217	0	34888	
7218	0	34780	
7219	0	34668	
7220	0	34600	
7221	0	34560	
7222	0	34514	
7223	0	34480	
7224	0	34456	
7225	0	34360	
7226	0	34292	
7227	0	34216	
7228	0	34140	
7229	0	34052	
7230	0	33978	
7231	0	33880	
7232	0	33712	
7233	0	33576	
7234	0	33488	
7235	0	33404	
7236	0	33368	
7237	0	33320	
7238	0	33256	
7239	0	33188	
7240	0	33128	
7241	0	33044	
7242	0	32936	
7243	0	32824	
7244	0	32756	
7245	0	32680	
7246	0	32616	
7247	0	32572	
7248	0	32564	
7249	0	32552	
7250	0	32556	
7251	0	32556	
7252	0	32528	
7253	0	32464	
7254	0	32406	
7255	0	32320	
7256	0	32270	
7257	0	32224	
7258	0	32168	
7259	0	32122	
7260	0	32096	
7261	0	32072	
7262	0	32024	
7263	0	32020	
7264	0	32052	
7265	0	32064	
7266	0	32056	
7267	0	32036	
7268	0	31984	
7269	0	31952	
7270	0	31960	
7271	0	31940	
7272	0	31928	
7273	0	31952	
7274	0	31996	
7275	0	32008	
7276	0	32024	
7277	0	32036	
7278	0	32056	
7279	0	32032	
7280	0	31998	
7281	0	31952	
7282	0	31940	
7283	0	31938	
7284	0	31932	
7285	0	31896	
7286	0	31808	
7287	0	31748	
7288	0	31768	
7289	0	31804	
7290	0	31832	
7291	0	31826	
7292	0	31824	
7293	0	31866	
7294	0	31892	
7295	0	31872	
7296	0	31854	
7297	0	31856	
7298	0	31848	
7299	0	31824	
7300	0	31792	
7301	0	31784	
7302	0	31820	
7303	0	31872	
7304	0	31928	
7305	0	31928	
7306	0	31948	
7307	0	31968	
7308	0	31980	
7309	0	32016	
7310	0	32044	
7311	0	32040	
7312	0	32028	
7313	0	32016	
7314	0	31988	
7315	0	31992	
7316	0	32060	
7317	0	32120	
7318	0	32112	
7319	0	32144	
7320	0	32156	
7321	0	32168	
7322	0	32184	
7323	0	32262	
7324	0	32304	
7325	0	32336	
7326	0	32364	
7327	0	32392	
7328	0	32424	
7329	0	32454	
7330	0	32480	
7331	0	32490	
7332	0	32480	
7333	0	32460	
7334	0	32476	
7335	0	32508	
7336	0	32560	
7337	0	32604	
7338	0	32680	
7339	0	32784	
7340	0	32848	
7341	0	32880	
7342	0	32892	
7343	0	32884	
7344	0	32904	
7345	0	32908	
7346	0	32926	
7347	0	32924	
7348	0	32856	
7349	0	32780	
7350	0	32752	
7351	0	32780	
7352	0	32832	
7353	0	32910	
7354	0	32984	
7355	0	33056	
7356	0	33140	
7357	0	33222	
7358	0	33260	
7359	0	33204	
7360	0	33120	
7361	0	33060	
7362	0	33020	
7363	0	32992	
7364	0	33024	
7365	0	32994	
7366	0	32960	
7367	0	32900	
7368	0	32876	
7369	0	32904	
7370	0	32960	
7371	0	33034	
7372	0	33088	
7373	0	33144	
7374	0	33188	
7375	0	33232	
7376	0	33224	
7377	0	33140	
7378	0	33120	
7379	0	33208	
7380	0	33284	
7381	0	33284	
7382	0	33208	
7383	0	33132	
7384	0	33100	
7385	0	33076	
7386	0	33088	
7387	0	33088	
7388	0	33120	
7389	0	33120	
7390	0	33124	
7391	0	33136	
7392	0	33208	
7393	0	33216	
7394	0	33138	
7395	0	33036	
7396	0	33000	
7397	0	33024	
7398	0	33056	
7399	0	33072	
7400	0	33088	
7401	0	33112	
7402	0	33168	
7403	0	33192	
7404	0	33186	
7405	0	33192	
7406	0	33180	
7407	0	33156	
7408	0	33156	
7409	0	33144	
7410	0	33088	
7411	0	33034	
7412	0	33020	
7413	0	32964	
7414	0	32864	
7415	0	32756	
7416	0	32720	
7417	0	32692	
7418	0	32652	
7419	0	32616	
7420	0	32604	
7421	0	32616	
7422	0	32620	
7423	0	32624	
7424	0	32660	
7425	0	32720	
7426	0	32768	
7427	0	32774	
7428	0	32808	
7429	0	32848	
7430	0	32862	
7431	0	32832	
7432	0	32770	
7433	0	32736	
7434	0	32704	
7435	0	32644	
7436	0	32592	
7437	0	32510	
7438	0	32416	
7439	0	32356	
7440	0	32340	
7441	0	32360	
7442	0	32436	
7443	0	32544	
7444	0	32660	
7445	0	32688	
7446	0	32680	
7447	0	32616	
7448	0	32528	
7449	0	32420	
7450	0	32368	
7451	0	32324	
7452	0	32264	
7453	0	32188	
7454	0	32192	
7455	0	32208	
7456	0	32220	
7457	0	32184	
7458	0	32184	
7459	0	32200	
7460	0	32272	
7461	0	32344	
7462	0	32436	
7463	0	32508	
7464	0	32524	
7465	0	32528	
7466	0	32512	
7467	0	32400	
7468	0	32272	
7469	0	32204	
7470	0	32200	
7471	0	32228	
7472	0	32284	
7473	0	32432	
7474	0	32508	
7475	0	32448	
7476	0	32304	
7477	0	32200	
7478	0	32128	
7479	0	32068	
7480	0	32050	
7481	0	32056	
7482	0	32084	
7483	0	32144	
7484	0	32200	
7485	0	32220	
7486	0	32200	
7487	0	32200	
7488	0	32240	
7489	0	32304	
7490	0	32272	
7491	0	32196	
7492	0	32140	
7493	0	32088	
7494	0	32084	
7495	0	32100	
7496	0	32168	
7497	0	32212	
7498	0	32244	
7499	0	32220	
7500	0	32090	
7501	0	32000	
7502	0	31996	
7503	0	32076	
7504	0	32160	
7505	0	32276	
7506	0	32360	
7507	0	32442	
7508	0	32492	
7509	0	32556	
7510	0	32664	
7511	0	32852	
7512	0	33002	
7513	0	33072	
7514	0	33064	
7515	0	33088	
7516	0	33208	
7517	0	33348	
7518	0	33488	
7519	0	33700	
7520	0	33860	
7521	0	33984	
7522	0	34000	
7523	0	33984	
7524	0	33912	
7525	0	33848	
7526	0	33778	
7527	0	33804	
7528	0	33928	
7529	0	34048	
7530	0	34168	
7531	0	34272	
7532	0	34296	
7533	0	34304	
7534	0	34380	
7535	0	34468	
7536	0	34600	
7537	0	34784	
7538	0	35004	
7539	0	35240	
7540	0	35480	
7541	0	35852	
7542	0	36226	
7543	0	36540	
7544	0	36668	
7545	0	36724	
7546	0	36780	
7547	0	36844	
7548	0	36856	
7549	0	36816	
7550	0	36800	
7551	0	36856	
7552	0	36872	
7553	0	36840	
7554	0	36744	
7555	0	36652	
7556	0	36548	
7557	0	36460	
7558	0	36424	
7559	0	36376	
7560	0	36328	
7561	0	36340	
7562	0	36292	
7563	0	36216	
7564	0	36136	
7565	0	36056	
7566	0	36014	
7567	0	35976	
7568	0	35820	
7569	0	35556	
7570	0	35248	
7571	0	34920	
7572	0	34596	
7573	0	34244	
7574	0	33962	
7575	0	33824	
7576	0	33688	
7577	0	33456	
7578	0	33108	
7579	0	32688	
7580	0	32312	
7581	0	32034	
7582	0	31782	
7583	0	31604	
7584	0	31512	
7585	0	31352	
7586	0	31132	
7587	0	30950	
7588	0	30868	
7589	0	30828	
7590	0	30736	
7591	0	30584	
7592	0	30416	
7593	0	30248	
7594	0	30092	
7595	0	29956	
7596	0	29868	
7597	0	29852	
7598	0	29844	
7599	0	29904	
7600	0	29984	
7601	0	30038	
7602	0	30086	
7603	0	30136	
7604	0	30148	
7605	0	30172	
7606	0	30192	
7607	0	30132	
7608	0	30068	
7609	0	29988	
7610	0	29976	
7611	0	30040	
7612	0	30052	
7613	0	29898	
7614	0	29746	
7615	0	29706	
7616	0	29804	
7617	0	29972	
7618	0	30128	
7619	0	30224	
7620	0	30272	
7621	0	30332	
7622	0	30376	
7623	0	30410	
7624	0	30436	
7625	0	30444	
7626	0	30428	
7627	0	30456	
7628	0	30540	
7629	0	30558	
7630	0	30504	
7631	0	30488	
7632	0	30464	
7633	0	30408	
7634	0	30320	
7635	0	30170	
7636	0	29916	
7637	0	29474	
7638	0	28884	
7639	0	28240	
7640	0	27584	
7641	0	26928	
7642	0	26190	
7643	0	25500	
7644	0	25002	
7645	0	24684	
7646	0	24496	
7647	0	24584	
7648	0	25052	
7649	0	25824	
7650	0	26744	
7651	0	27868	
7652	0	29380	
7653	0	31352	
7654	0	33756	
7655	0	36496	
7656	0	39324	
7657	0	42264	
7658	0	45304	
7659	0	48672	
7660	0	52348	
7661	0	56288	
7662	0	60076	
7663	0	62312	
7664	0	63496	
7665	0	64084	
7666	0	64340	
7667	0	64424	
7668	0	64416	
7669	0	64364	
7670	0	64264	
7671	0	64160	
7672	0	64056	
7673	0	63936	
7674	0	57340	
7675	0	49864	
7676	0	43644	
7677	0	38504	
7678	0	33840	
7679	0	29628	
7680	0	26432	
7681	0	24138	
7682	0	22412	
7683	0	21008	
7684	0	19768	
7685	0	18492	
7686	0	17192	
7687	0	16152	
7688	0	15348	
7689	0	14752	
7690	0	14384	
7691	0	14288	
7692	0	14232	
7693	0	14164	
7694	0	14146	
7695	0	14298	
7696	0	14736	
7697	0	15308	
7698	0	15964	
7699	0	16696	
7700	0	17508	
7701	0	18352	
7702	0	19138	
7703	0	19920	
7704	0	20706	
7705	0	21496	
7706	0	22236	
7707	0	22900	
7708	0	23546	
7709	0	24228	
7710	0	24940	
7711	0	25644	
7712	0	26284	
7713	0	26860	
7714	0	27368	
7715	0	27864	
7716	0	28264	
7717	0	28628	
7718	0	28964	
7719	0	29280	
7720	0	29544	
7721	0	29716	
7722	0	29856	
7723	0	29968	
7724	0	30072	
7725	0	30152	
7726	0	30156	
7727	0	30124	
7728	0	30144	
7729	0	30220	
7730	0	30288	
7731	0	30352	
7732	0	30420	
7733	0	30560	
7734	0	30700	
7735	0	30836	
7736	0	30880	
7737	0	30880	
7738	0	30860	
7739	0	30916	
7740	0	30996	
7741	0	31072	
7742	0	31100	
7743	0	31128	
7744	0	31184	
7745	0	31210	
7746	0	31208	
7747	0	31252	
7748	0	31350	
7749	0	31472	
7750	0	31580	
7751	0	31720	
7752	0	31896	
7753	0	32008	
7754	0	32060	
7755	0	32032	
7756	0	31896	
7757	0	31784	
7758	0	31730	
7759	0	31716	
7760	0	31716	
7761	0	31816	
7762	0	31960	
7763	0	32152	
7764	0	32338	
7765	0	32476	
7766	0	32556	
7767	0	32600	
7768	0	32556	
7769	0	32512	
7770	0	32556	
7771	0	32704	
7772	0	32828	
7773	0	32846	
7774	0	32796	
7775	0	32724	
7776	0	32604	
7777	0	32552	
7778	0	32500	
7779	0	32468	
7780	0	32512	
7781	0	32650	
7782	0	32836	
7783	0	32980	
7784	0	33128	
7785	0	33240	
7786	0	33260	
7787	0	33212	
7788	0	33208	
7789	0	33236	
7790	0	33268	
7791	0	33352	
7792	0	33400	
7793	0	33412	
7794	0	33444	
7795	0	33440	
7796	0	33492	
7797	0	33572	
7798	0	33580	
7799	0	33564	
7800	0	33504	
7801	0	33448	
7802	0	33392	
7803	0	33368	
7804	0	33372	
7805	0	33508	
7806	0	33656	
7807	0	33836	
7808	0	33920	
7809	0	33916	
7810	0	33844	
7811	0	33808	
7812	0	33816	
7813	0	33864	
7814	0	33956	
7815	0	33996	
7816	0	34042	
7817	0	34088	
7818	0	34088	
7819	0	34140	
7820	0	34044	
7821	0	33892	
7822	0	33828	
7823	0	33848	
7824	0	33912	
7825	0	34008	
7826	0	34088	
7827	0	34140	
7828	0	34184	
7829	0	34252	
7830	0	34338	
7831	0	34520	
7832	0	34616	
7833	0	34576	
7834	0	34548	
7835	0	34504	
7836	0	34492	
7837	0	34472	
7838	0	34428	
7839	0	34448	
7840	0	34592	
7841	0	34832	
7842	0	35008	
7843	0	35136	
7844	0	35216	
7845	0	35228	
7846	0	35216	
7847	0	35168	
7848	0	35144	
7849	0	35160	
7850	0	35108	
7851	0	35008	
7852	0	34976	
7853	0	35032	
7854	0	35128	
7855	0	35204	
7856	0	35264	
7857	0	35360	
7858	0	35460	
7859	0	35560	
7860	0	35656	
7861	0	35696	
7862	0	35672	
7863	0	35624	
7864	0	35676	
7865	0	35580	
7866	0	35424	
7867	0	35320	
7868	0	35280	
7869	0	35300	
7870	0	35412	
7871	0	35592	
7872	0	35688	
7873	0	35720	
7874	0	35748	
7875	0	35788	
7876	0	35896	
7877	0	35956	
7878	0	36000	
7879	0	36016	
7880	0	36000	
7881	0	35828	
7882	0	35584	
7883	0	35476	
7884	0	35424	
7885	0	35412	
7886	0	35464	
7887	0	35608	
7888	0	35740	
7889	0	35792	
7890	0	35824	
7891	0	35880	
7892	0	36008	
7893	0	36074	
7894	0	36040	
7895	0	36024	
7896	0	36036	
7897	0	36040	
7898	0	36000	
7899	0	35908	
7900	0	35704	
7901	0	35456	
7902	0	35276	
7903	0	35180	
7904	0	35172	
7905	0	35202	
7906	0	35180	
7907	0	35092	
7908	0	35040	
7909	0	34920	
7910	0	34728	
7911	0	34580	
7912	0	34544	
7913	0	34554	
7914	0	34548	
7915	0	34532	
7916	0	34456	
7917	0	34360	
7918	0	34232	
7919	0	34084	
7920	0	33914	
7921	0	33716	
7922	0	33572	
7923	0	33512	
7924	0	33476	
7925	0	33432	
7926	0	33408	
7927	0	33380	
7928	0	33320	
7929	0	33192	
7930	0	33072	
7931	0	32986	
7932	0	32868	
7933	0	32684	
7934	0	32524	
7935	0	32452	
7936	0	32496	
7937	0	32512	
7938	0	32476	
7939	0	32440	
7940	0	32388	
7941	0	32268	
7942	0	32176	
7943	0	32104	
7944	0	32096	
7945	0	32088	
7946	0	32064	
7947	0	31996	
7948	0	31916	
7949	0	31832	
7950	0	31720	
7951	0	31580	
7952	0	31480	
7953	0	31480	
7954	0	31556	
7955	0	31680	
7956	0	31778	
7957	0	31804	
7958	0	31844	
7959	0	31872	
7960	0	31808	
7961	0	31674	
7962	0	31472	
7963	0	31256	
7964	0	31188	
7965	0	31308	
7966	0	31408	
7967	0	31500	
7968	0	31576	
7969	0	31596	
7970	0	31612	
7971	0	31592	
7972	0	31620	
7973	0	31604	
7974	0	31476	
7975	0	31384	
7976	0	31352	
7977	0	31320	
7978	0	31180	
7979	0	31120	
7980	0	31104	
7981	0	31088	
7982	0	31084	
7983	0	31016	
7984	0	30932	
7985	0	30880	
7986	0	30880	
7987	0	31000	
7988	0	31200	
7989	0	31380	
7990	0	31340	
7991	0	31244	
7992	0	31232	
7993	0	31324	
7994	0	31380	
7995	0	31368	
7996	0	31280	
7997	0	31104	
7998	0	30848	
7999	0	30652	
8000	0	30596	
8001	0	30614	
8002	0	30756	
8003	0	30952	
8004	0	31044	
8005	0	31076	
8006	0	31172	
8007	0	31324	
8008	0	31500	
8009	0	31656	
8010	0	31752	
8011	0	31732	
8012	0	31624	
8013	0	31520	
8014	0	31540	
8015	0	31586	
8016	0	31632	
8017	0	31706	
8018	0	31804	
8019	0	31936	
8020	0	32020	
8021	0	32068	
8022	0	32100	
8023	0	32088	
8024	0	32048	
8025	0	32024	
8026	0	31996	
8027	0	31968	
8028	0	31992	
8029	0	32076	
8030	0	32132	
8031	0	32184	
8032	0	32184	
8033	0	32204	
8034	0	32284	
8035	0	32424	
8036	0	32516	
8037	0	32464	
8038	0	32368	
8039	0	32388	
8040	0	32400	
8041	0	32416	
8042	0	32444	
8043	0	32508	
8044	0	32672	
8045	0	32820	
8046	0	32932	
8047	0	32928	
8048	0	32778	
8049	0	32560	
8050	0	32400	
8051	0	32452	
8052	0	32648	
8053	0	32850	
8054	0	32932	
8055	0	32944	
8056	0	32872	
8057	0	32812	
8058	0	32836	
8059	0	32916	
8060	0	32992	
8061	0	33016	
8062	0	33008	
8063	0	33048	
8064	0	33152	
8065	0	33276	
8066	0	33344	
8067	0	33352	
8068	0	33376	
8069	0	33412	
8070	0	33392	
8071	0	33280	
8072	0	33232	
8073	0	33232	
8074	0	33168	
8075	0	33080	
8076	0	33056	
8077	0	33084	
8078	0	33116	
8079	0	33120	
8080	0	33152	
8081	0	33116	
8082	0	33044	
8083	0	32960	
8084	0	32896	
8085	0	32948	
8086	0	32956	
8087	0	32872	
8088	0	32896	
8089	0	33076	
8090	0	33172	
8091	0	33192	
8092	0	33140	
8093	0	33128	
8094	0	33096	
8095	0	33000	
8096	0	32892	
8097	0	32844	
8098	0	32784	
8099	0	32700	
8100	0	32744	
8101	0	32897	
8102	0	33080	
8103	0	33192	
8104	0	33146	
8105	0	33028	
8106	0	32880	
8107	0	32768	
8108	0	32704	
8109	0	32752	
8110	0	32840	
8111	0	32872	
8112	0	32832	
8113	0	32794	
8114	0	32786	
8115	0	32852	
8116	0	32940	
8117	0	32992	
8118	0	32972	
8119	0	32904	
8120	0	32768	
8121	0	32586	
8122	0	32436	
8123	0	32328	
8124	0	32332	
8125	0	32393	
8126	0	32424	
8127	0	32464	
8128	0	32548	
8129	0	32616	
8130	0	32640	
8131	0	32664	
8132	0	32688	
8133	0	32752	
8134	0	32704	
8135	0	32488	
8136	0	32390	
8137	0	32396	
8138	0	32412	
8139	0	32432	
8140	0	32414	
8141	0	32416	
8142	0	32400	
8143	0	32376	
8144	0	32306	
8145	0	32156	
8146	0	32092	
8147	0	32128	
8148	0	32152	
8149	0	32112	
8150	0	32052	
8151	0	31956	
8152	0	31988	
8153	0	32126	
8154	0	32252	
8155	0	32296	
8156	0	32252	
8157	0	32208	
8158	0	32112	
8159	0	32098	
8160	0	32232	
8161	0	32448	
8162	0	32668	
8163	0	32690	
8164	0	32624	
8165	0	32544	
8166	0	32426	
8167	0	32304	
8168	0	32284	
8169	0	32368	
8170	0	32456	
8171	0	32544	
8172	0	32504	
8173	0	32378	
8174	0	32232	
8175	0	32110	
8176	0	32096	
8177	0	32244	
8178	0	32448	
8179	0	32616	
8180	0	32678	
8181	0	32752	
8182	0	32928	
8183	0	33140	
8184	0	33252	
8185	0	33288	
8186	0	33332	
8187	0	33424	
8188	0	33608	
8189	0	33766	
8190	0	33884	
8191	0	34008	
8192	0	34032	
8193	0	33972	
8194	0	33880	
8195	0	33778	
8196	0	33754	
8197	0	33744	
8198	0	33708	
8199	0	33784	
8200	0	33872	
8201	0	33920	
8202	0	33920	
8203	0	33924	
8204	0	33917	
8205	0	33932	
8206	0	34064	
8207	0	34346	
8208	0	34700	
8209	0	35012	
8210	0	35476	
8211	0	36012	
8212	0	36448	
8213	0	36716	
8214	0	36776	
8215	0	36708	
8216	0	36620	
8217	0	36480	
8218	0	36392	
8219	0	36452	
8220	0	36548	
8221	0	36616	
8222	0	36688	
8223	0	36632	
8224	0	36528	
8225	0	36448	
8226	0	36456	
8227	0	36468	
8228	0	36420	
8229	0	36308	
8230	0	36200	
8231	0	36124	
8232	0	36058	
8233	0	36000	
8234	0	35980	
8235	0	35932	
8236	0	35870	
8237	0	35792	
8238	0	35584	
8239	0	35272	
8240	0	34904	
8241	0	34592	
8242	0	34464	
8243	0	34418	
8244	0	34336	
8245	0	34184	
8246	0	33896	
8247	0	33504	
8248	0	33052	
8249	0	32580	
8250	0	32178	
8251	0	31896	
8252	0	31640	
8253	0	31384	
8254	0	31162	
8255	0	30968	
8256	0	30816	
8257	0	30678	
8258	0	30572	
8259	0	30504	
8260	0	30528	
8261	0	30608	
8262	0	30664	
8263	0	30672	
8264	0	30660	
8265	0	30616	
8266	0	30504	
8267	0	30288	
8268	0	30132	
8269	0	30048	
8270	0	29996	
8271	0	30130	
8272	0	30304	
8273	0	30324	
8274	0	30268	
8275	0	30168	
8276	0	30128	
8277	0	30092	
8278	0	30112	
8279	0	30168	
8280	0	30196	
8281	0	30186	
8282	0	30248	
8283	0	30332	
8284	0	30348	
8285	0	30292	
8286	0	30250	
8287	0	30312	
8288	0	30472	
8289	0	30588	
8290	0	30656	
8291	0	30672	
8292	0	30672	
8293	0	30690	
8294	0	30692	
8295	0	30660	
8296	0	30588	
8297	0	30528	
8298	0	30530	
8299	0	30576	
8300	0	30672	
8301	0	30744	
8302	0	30736	
8303	0	30612	
8304	0	30344	
8305	0	29992	
8306	0	29652	
8307	0	29240	
8308	0	28640	
8309	0	28096	
8310	0	27664	
8311	0	27200	
8312	0	26700	
8313	0	26272	
8314	0	25992	
8315	0	25816	
8316	0	25884	
8317	0	26276	
8318	0	26900	
8319	0	27656	
8320	0	28492	
8321	0	29600	
8322	0	31148	
8323	0	33160	
8324	0	35468	
8325	0	38088	
8326	0	40928	
8327	0	43912	
8328	0	46928	
8329	0	50224	
8330	0	53820	
8331	0	57560	
8332	0	60872	
8333	0	62728	
8334	0	63704	
8335	0	64160	
8336	0	64364	
8337	0	64408	
8338	0	64384	
8339	0	64312	
8340	0	64232	
8341	0	64128	
8342	0	64016	
8343	0	61812	
8344	0	52920	
8345	0	45408	
8346	0	39216	
8347	0	34232	
8348	0	29864	
8349	0	26380	
8350	0	24184	
8351	0	22912	
8352	0	21952	
8353	0	21104	
8354	0	20224	
8355	0	19196	
8356	0	18040	
8357	0	16880	
8358	0	15960	
8359	0	15224	
8360	0	14758	
8361	0	14611	
8362	0	14673	
8363	0	14770	
8364	0	14948	
8365	0	15204	
8366	0	15388	
8367	0	15546	
8368	0	16030	
8369	0	16804	
8370	0	17628	
8371	0	18508	
8372	0	19372	
8373	0	20156	
8374	0	20880	
8375	0	21556	
8376	0	22216	
8377	0	22924	
8378	0	23533	
8379	0	24082	
8380	0	24660	
8381	0	25258	
8382	0	25812	
8383	0	26320	
8384	0	26892	
8385	0	27528	
8386	0	28164	
8387	0	28660	
8388	0	29056	
8389	0	29320	
8390	0	29524	
8391	0	29664	
8392	0	29772	
8393	0	29924	
8394	0	30100	
8395	0	30244	
8396	0	30384	
8397	0	30464	
8398	0	30504	
8399	0	30500	
8400	0	30500	
8401	0	30598	
8402	0	30812	
8403	0	30976	
8404	0	31092	
8405	0	31160	
8406	0	31204	
8407	0	31212	
8408	0	31248	
8409	0	31266	
8410	0	31316	
8411	0	31312	
8412	0	31300	
8413	0	31296	
8414	0	31408	
8415	0	31488	
8416	0	31560	
8417	0	31716	
8418	0	31976	
8419	0	32168	
8420	0	32208	
8421	0	32168	
8422	0	32120	
8423	0	32100	
8424	0	32080	
8425	0	32072	
8426	0	32092	
8427	0	32136	
8428	0	32160	
8429	0	32194	
8430	0	32224	
8431	0	32264	
8432	0	32304	
8433	0	32368	
8434	0	32448	
8435	0	32548	
8436	0	32600	
8437	0	32624	
8438	0	32600	
8439	0	32620	
8440	0	32720	
8441	0	32816	
8442	0	32880	
8443	0	32952	
8444	0	32984	
8445	0	32988	
8446	0	33052	
8447	0	33104	
8448	0	33128	
8449	0	33120	
8450	0	33060	
8451	0	33068	
8452	0	33100	
8453	0	33178	
8454	0	33252	
8455	0	33296	
8456	0	33320	
8457	0	33320	
8458	0	33268	
8459	0	33204	
8460	0	33180	
8461	0	33200	
8462	0	33282	
8463	0	33396	
8464	0	33552	
8465	0	33704	
8466	0	33848	
8467	0	33924	
8468	0	33976	
8469	0	33952	
8470	0	33900	
8471	0	33876	
8472	0	33888	
8473	0	33924	
8474	0	33960	
8475	0	33984	
8476	0	33972	
8477	0	33972	
8478	0	34058	
8479	0	34136	
8480	0	34144	
8481	0	34092	
8482	0	34104	
8483	0	34136	
8484	0	34120	
8485	0	34124	
8486	0	34128	
8487	0	34168	
8488	0	34224	
8489	0	34272	
8490	0	34280	
8491	0	34344	
8492	0	34416	
8493	0	34476	
8494	0	34556	
8495	0	34584	
8496	0	34652	
8497	0	34700	
8498	0	34732	
8499	0	34804	
8500	0	34872	
8501	0	34888	
8502	0	34904	
8503	0	34912	
8504	0	34888	
8505	0	34848	
8506	0	34856	
8507	0	34840	
8508	0	34824	
8509	0	34808	
8510	0	34832	
8511	0	34940	
8512	0	35024	
8513	0	35068	
8514	0	35134	
8515	0	35156	
8516	0	35232	
8517	0	35340	
8518	0	35360	
8519	0	35400	
8520	0	35448	
8521	0	35492	
8522	0	35524	
8523	0	35544	
8524	0	35554	
8525	0	35594	
8526	0	35572	
8527	0	35548	
8528	0	35556	
8529	0	35604	
8530	0	35688	
8531	0	35756	
8532	0	35868	
8533	0	35920	
8534	0	35840	
8535	0	35740	
8536	0	35688	
8537	0	35656	
8538	0	35720	
8539	0	35856	
8540	0	35896	
8541	0	35928	
8542	0	35964	
8543	0	36008	
8544	0	36024	
8545	0	35992	
8546	0	35976	
8547	0	35908	
8548	0	35848	
8549	0	35780	
8550	0	35760	
8551	0	35784	
8552	0	35804	
8553	0	35796	
8554	0	35768	
8555	0	35764	
8556	0	35804	
8557	0	35820	
8558	0	35848	
8559	0	35844	
8560	0	35820	
8561	0	35776	
8562	0	35744	
8563	0	35740	
8564	0	35736	
8565	0	35704	
8566	0	35652	
8567	0	35628	
8568	0	35648	
8569	0	35676	
8570	0	35632	
8571	0	35568	
8572	0	35512	
8573	0	35460	
8574	0	35384	
8575	0	35260	
8576	0	35149	
8577	0	35008	
8578	0	34888	
8579	0	34752	
8580	0	34628	
8581	0	34528	
8582	0	34472	
8583	0	34444	
8584	0	34404	
8585	0	34356	
8586	0	34244	
8587	0	34112	
8588	0	34000	
8589	0	33886	
8590	0	33800	
8591	0	33732	
