# OpenSignals Text File Format. Version 1
# {"00:07:80:4B:15:F7": {"position": 0, "device": "biosignalsplux", "device name": "00:07:80:4B:15:F7", "device connection": "BTH00:07:80:4B:15:F7", "sampling rate": 1000, "resolution": [16], "firmware version": 775, "comments": "", "keywords": "", "mode": 0, "sync interval": 2, "date": "2023-4-12", "time": "14:35:19.586", "channels": [1], "sensor": ["ECG"], "label": ["CH1"], "column": ["nSeq", "DI", "CH1"], "special": [{"SpO2": [80, 40, 5, 4, 3, 3]}, {"SpO2": [80, 40, 5, 4, 3, 3]}, {"SpO2": [80, 40, 5, 4, 3, 3]}, {"SpO2": [80, 40, 5, 4, 3, 3]}, {"SpO2": [80, 40, 5, 4, 3, 3]}, {"SpO2": [80, 40, 5, 4, 3, 3]}, {"SpO2": [80, 40, 5, 4, 3, 3]}, {"SpO2": [80, 40, 5, 4, 3, 3]}], "digital IO": [0, 1], "sleeve color": ["green"], "convertedValues": 0}}
# EndOfHeader
0	0	33092	
1	0	33210	
2	0	33296	
3	0	33376	
4	0	33456	
5	0	33496	
6	0	33548	
7	0	33620	
8	0	33672	
9	0	33700	
10	0	33712	
11	0	33732	
12	0	33744	
13	0	33752	
14	0	33712	
15	0	33640	
16	0	33572	
17	0	33524	
18	0	33466	
19	0	33456	
20	0	33476	
21	0	33480	
22	0	33512	
23	0	33560	
24	0	33628	
25	0	33722	
26	0	33892	
27	0	34168	
28	0	34476	
29	0	34768	
30	0	35024	
31	0	35254	
32	0	35424	
33	0	35578	
34	0	35720	
35	0	35820	
36	0	35936	
37	0	35984	
38	0	35968	
39	0	35880	
40	0	35748	
41	0	35616	
42	0	35488	
43	0	35400	
44	0	35328	
45	0	35216	
46	0	35044	
47	0	34900	
48	0	34784	
49	0	34728	
50	0	34632	
51	0	34472	
52	0	34290	
53	0	34116	
54	0	33932	
55	0	33848	
56	0	33806	
57	0	33700	
58	0	33556	
59	0	33486	
60	0	33408	
61	0	33286	
62	0	33196	
63	0	33168	
64	0	33156	
65	0	33088	
66	0	32980	
67	0	32880	
68	0	32794	
69	0	32728	
70	0	32684	
71	0	32616	
72	0	32496	
73	0	32384	
74	0	32314	
75	0	32224	
76	0	32100	
77	0	31988	
78	0	31880	
79	0	31832	
80	0	31780	
81	0	31764	
82	0	31768	
83	0	31764	
84	0	31748	
85	0	31788	
86	0	31840	
87	0	31832	
88	0	31802	
89	0	31776	
90	0	31744	
91	0	31728	
92	0	31748	
93	0	31762	
94	0	31792	
95	0	31816	
96	0	31852	
97	0	31892	
98	0	31914	
99	0	31896	
100	0	31912	
101	0	31956	
102	0	32008	
103	0	32032	
104	0	32016	
105	0	32020	
106	0	32056	
107	0	32130	
108	0	32164	
109	0	32172	
110	0	32262	
111	0	32288	
112	0	32216	
113	0	32144	
114	0	32020	
115	0	31792	
116	0	31534	
117	0	31136	
118	0	30596	
119	0	29928	
120	0	29284	
121	0	28832	
122	0	28624	
123	0	28568	
124	0	28668	
125	0	28984	
126	0	29532	
127	0	30364	
128	0	31280	
129	0	32344	
130	0	33620	
131	0	35104	
132	0	36792	
133	0	38736	
134	0	41048	
135	0	43676	
136	0	46776	
137	0	50420	
138	0	54144	
139	0	57776	
140	0	60976	
141	0	62784	
142	0	63708	
143	0	64168	
144	0	64348	
145	0	64404	
146	0	64352	
147	0	64288	
148	0	64200	
149	0	64072	
150	0	63968	
151	0	63840	
152	0	59720	
153	0	54000	
154	0	49380	
155	0	45564	
156	0	42428	
157	0	39828	
158	0	37506	
159	0	35444	
160	0	33640	
161	0	31980	
162	0	30536	
163	0	29358	
164	0	28424	
165	0	27708	
166	0	27224	
167	0	26904	
168	0	26672	
169	0	26564	
170	0	26468	
171	0	26384	
172	0	26364	
173	0	26452	
174	0	26658	
175	0	26904	
176	0	27168	
177	0	27448	
178	0	27716	
179	0	27996	
180	0	28260	
181	0	28480	
182	0	28640	
183	0	28752	
184	0	28808	
185	0	28848	
186	0	28852	
187	0	28828	
188	0	28786	
189	0	28728	
190	0	28704	
191	0	28704	
192	0	28704	
193	0	28696	
194	0	28688	
195	0	28688	
196	0	28664	
197	0	28664	
198	0	28696	
199	0	28744	
200	0	28812	
201	0	28868	
202	0	28904	
203	0	28920	
204	0	28948	
205	0	28992	
206	0	28996	
207	0	29000	
208	0	29020	
209	0	29068	
210	0	29120	
211	0	29184	
212	0	29236	
213	0	29280	
214	0	29288	
215	0	29302	
216	0	29352	
217	0	29408	
218	0	29476	
219	0	29548	
220	0	29632	
221	0	29680	
222	0	29712	
223	0	29764	
224	0	29808	
225	0	29856	
226	0	29856	
227	0	29888	
228	0	29920	
229	0	29960	
230	0	30032	
231	0	30072	
232	0	30116	
233	0	30152	
234	0	30200	
235	0	30276	
236	0	30340	
237	0	30380	
238	0	30428	
239	0	30478	
240	0	30516	
241	0	30552	
242	0	30600	
243	0	30636	
244	0	30654	
245	0	30678	
246	0	30728	
247	0	30762	
248	0	30796	
249	0	30856	
250	0	30932	
251	0	30984	
252	0	30992	
253	0	31040	
254	0	31064	
255	0	31144	
256	0	31232	
257	0	31256	
258	0	31300	
259	0	31316	
260	0	31372	
261	0	31424	
262	0	31456	
263	0	31492	
264	0	31528	
265	0	31556	
266	0	31604	
267	0	31640	
268	0	31690	
269	0	31760	
270	0	31856	
271	0	31892	
272	0	31968	
273	0	32052	
274	0	32136	
275	0	32208	
276	0	32240	
277	0	32292	
278	0	32340	
279	0	32386	
280	0	32384	
281	0	32404	
282	0	32428	
283	0	32432	
284	0	32436	
285	0	32440	
286	0	32464	
287	0	32498	
288	0	32560	
289	0	32664	
290	0	32768	
291	0	32912	
292	0	33036	
293	0	33124	
294	0	33144	
295	0	33200	
296	0	33268	
297	0	33324	
298	0	33404	
299	0	33468	
300	0	33478	
301	0	33508	
302	0	33548	
303	0	33564	
304	0	33586	
305	0	33642	
306	0	33696	
307	0	33752	
308	0	33824	
309	0	33912	
310	0	33984	
311	0	34024	
312	0	34024	
313	0	34092	
314	0	34200	
315	0	34288	
316	0	34404	
317	0	34492	
318	0	34556	
319	0	34604	
320	0	34612	
321	0	34640	
322	0	34644	
323	0	34680	
324	0	34716	
325	0	34772	
326	0	34848	
327	0	34908	
328	0	34984	
329	0	35088	
330	0	35176	
331	0	35260	
332	0	35296	
333	0	35296	
334	0	35296	
335	0	35310	
336	0	35368	
337	0	35436	
338	0	35496	
339	0	35596	
340	0	35696	
341	0	35732	
342	0	35756	
343	0	35800	
344	0	35848	
345	0	35884	
346	0	35948	
347	0	36000	
348	0	36092	
349	0	36108	
350	0	36076	
351	0	36012	
352	0	35964	
353	0	35920	
354	0	35896	
355	0	35924	
356	0	35952	
357	0	36016	
358	0	36060	
359	0	36048	
360	0	36040	
361	0	36044	
362	0	36024	
363	0	36008	
364	0	36016	
365	0	35964	
366	0	35880	
367	0	35812	
368	0	35744	
369	0	35696	
370	0	35672	
371	0	35668	
372	0	35656	
373	0	35628	
374	0	35592	
375	0	35554	
376	0	35520	
377	0	35468	
378	0	35422	
379	0	35360	
380	0	35312	
381	0	35224	
382	0	35168	
383	0	35140	
384	0	35150	
385	0	35116	
386	0	35064	
387	0	35028	
388	0	34952	
389	0	34922	
390	0	34840	
391	0	34754	
392	0	34636	
393	0	34556	
394	0	34504	
395	0	34452	
396	0	34380	
397	0	34288	
398	0	34188	
399	0	34084	
400	0	33972	
401	0	33856	
402	0	33728	
403	0	33632	
404	0	33552	
405	0	33408	
406	0	33208	
407	0	33056	
408	0	32872	
409	0	32696	
410	0	32576	
411	0	32460	
412	0	32348	
413	0	32288	
414	0	32212	
415	0	32108	
416	0	32016	
417	0	31908	
418	0	31788	
419	0	31680	
420	0	31584	
421	0	31520	
422	0	31444	
423	0	31304	
424	0	31164	
425	0	31060	
426	0	30968	
427	0	30880	
428	0	30720	
429	0	30572	
430	0	30484	
431	0	30432	
432	0	30396	
433	0	30344	
434	0	30280	
435	0	30206	
436	0	30124	
437	0	30100	
438	0	30080	
439	0	29994	
440	0	29922	
441	0	29842	
442	0	29806	
443	0	29760	
444	0	29732	
445	0	29740	
446	0	29792	
447	0	29812	
448	0	29782	
449	0	29744	
450	0	29712	
451	0	29660	
452	0	29640	
453	0	29602	
454	0	29556	
455	0	29572	
456	0	29592	
457	0	29640	
458	0	29720	
459	0	29792	
460	0	29824	
461	0	29848	
462	0	29896	
463	0	29924	
464	0	29960	
465	0	30000	
466	0	30004	
467	0	30044	
468	0	30076	
469	0	30092	
470	0	30042	
471	0	29956	
472	0	29932	
473	0	29984	
474	0	30012	
475	0	30024	
476	0	30112	
477	0	30194	
478	0	30240	
479	0	30272	
480	0	30348	
481	0	30396	
482	0	30424	
483	0	30444	
484	0	30468	
485	0	30532	
486	0	30608	
487	0	30664	
488	0	30712	
489	0	30724	
490	0	30720	
491	0	30740	
492	0	30800	
493	0	30864	
494	0	30896	
495	0	30904	
496	0	30888	
497	0	30880	
498	0	30882	
499	0	30924	
500	0	30952	
501	0	30964	
502	0	30996	
503	0	31008	
504	0	31038	
505	0	31096	
506	0	31124	
507	0	31170	
508	0	31216	
509	0	31260	
510	0	31280	
511	0	31310	
512	0	31296	
513	0	31312	
514	0	31340	
515	0	31372	
516	0	31394	
517	0	31428	
518	0	31448	
519	0	31520	
520	0	31576	
521	0	31564	
522	0	31540	
523	0	31584	
524	0	31580	
525	0	31564	
526	0	31578	
527	0	31596	
528	0	31644	
529	0	31680	
530	0	31616	
531	0	31570	
532	0	31620	
533	0	31656	
534	0	31656	
535	0	31648	
536	0	31640	
537	0	31616	
538	0	31648	
539	0	31688	
540	0	31684	
541	0	31676	
542	0	31700	
543	0	31720	
544	0	31744	
545	0	31778	
546	0	31800	
547	0	31822	
548	0	31836	
549	0	31848	
550	0	31846	
551	0	31852	
552	0	31876	
553	0	31904	
554	0	31924	
555	0	31920	
556	0	31930	
557	0	31944	
558	0	31944	
559	0	31948	
560	0	31944	
561	0	31936	
562	0	31936	
563	0	31936	
564	0	31948	
565	0	31984	
566	0	32000	
567	0	31984	
568	0	31952	
569	0	31908	
570	0	31812	
571	0	31760	
572	0	31760	
573	0	31760	
574	0	31754	
575	0	31792	
576	0	31808	
577	0	31812	
578	0	31808	
579	0	31808	
580	0	31808	
581	0	31840	
582	0	31888	
583	0	31920	
584	0	31930	
585	0	31896	
586	0	31852	
587	0	31842	
588	0	31832	
589	0	31816	
590	0	31776	
591	0	31732	
592	0	31716	
593	0	31732	
594	0	31768	
595	0	31834	
596	0	31840	
597	0	31804	
598	0	31768	
599	0	31752	
600	0	31760	
601	0	31776	
602	0	31776	
603	0	31776	
604	0	31800	
605	0	31800	
606	0	31792	
607	0	31804	
608	0	31796	
609	0	31792	
610	0	31792	
611	0	31772	
612	0	31770	
613	0	31776	
614	0	31802	
615	0	31824	
616	0	31852	
617	0	31832	
618	0	31786	
619	0	31776	
620	0	31804	
621	0	31840	
622	0	31832	
623	0	31848	
624	0	31844	
625	0	31768	
626	0	31648	
627	0	31564	
628	0	31588	
629	0	31644	
630	0	31668	
631	0	31720	
632	0	31724	
633	0	31722	
634	0	31736	
635	0	31760	
636	0	31800	
637	0	31848	
638	0	31846	
639	0	31826	
640	0	31828	
641	0	31816	
642	0	31832	
643	0	31872	
644	0	31840	
645	0	31776	
646	0	31760	
647	0	31772	
648	0	31816	
649	0	31868	
650	0	31916	
651	0	31928	
652	0	31924	
653	0	31916	
654	0	31906	
655	0	31928	
656	0	31924	
657	0	31912	
658	0	31944	
659	0	31960	
660	0	31988	
661	0	32008	
662	0	32008	
663	0	32036	
664	0	32032	
665	0	32044	
666	0	32120	
667	0	32152	
668	0	32060	
669	0	31926	
670	0	31792	
671	0	31752	
672	0	31754	
673	0	31808	
674	0	31880	
675	0	31932	
676	0	31960	
677	0	31992	
678	0	32028	
679	0	32056	
680	0	32060	
681	0	32072	
682	0	32056	
683	0	32046	
684	0	32032	
685	0	32012	
686	0	32012	
687	0	32004	
688	0	32000	
689	0	31976	
690	0	31944	
691	0	31976	
692	0	32040	
693	0	32120	
694	0	32176	
695	0	32208	
696	0	32244	
697	0	32244	
698	0	32164	
699	0	32076	
700	0	32036	
701	0	32020	
702	0	32008	
703	0	32008	
704	0	32000	
705	0	32024	
706	0	32028	
707	0	32056	
708	0	32048	
709	0	32068	
710	0	32152	
711	0	32196	
712	0	32180	
713	0	32136	
714	0	32124	
715	0	32124	
716	0	32124	
717	0	32112	
718	0	32128	
719	0	32136	
720	0	32176	
721	0	32212	
722	0	32248	
723	0	32272	
724	0	32320	
725	0	32376	
726	0	32392	
727	0	32348	
728	0	32298	
729	0	32280	
730	0	32302	
731	0	32272	
732	0	32266	
733	0	32272	
734	0	32292	
735	0	32344	
736	0	32356	
737	0	32360	
738	0	32352	
739	0	32352	
740	0	32368	
741	0	32380	
742	0	32396	
743	0	32384	
744	0	32356	
745	0	32348	
746	0	32352	
747	0	32380	
748	0	32432	
749	0	32458	
750	0	32456	
751	0	32448	
752	0	32452	
753	0	32468	
754	0	32464	
755	0	32448	
756	0	32420	
757	0	32412	
758	0	32416	
759	0	32464	
760	0	32532	
761	0	32500	
762	0	32484	
763	0	32496	
764	0	32508	
765	0	32516	
766	0	32540	
767	0	32544	
768	0	32496	
769	0	32492	
770	0	32508	
771	0	32512	
772	0	32512	
773	0	32544	
774	0	32534	
775	0	32516	
776	0	32520	
777	0	32496	
778	0	32488	
779	0	32504	
780	0	32490	
781	0	32492	
782	0	32532	
783	0	32592	
784	0	32640	
785	0	32680	
786	0	32760	
787	0	32884	
788	0	33008	
789	0	33108	
790	0	33192	
791	0	33280	
792	0	33404	
793	0	33522	
794	0	33636	
795	0	33728	
796	0	33756	
797	0	33784	
798	0	33792	
799	0	33792	
800	0	33784	
801	0	33752	
802	0	33664	
803	0	33584	
804	0	33508	
805	0	33408	
806	0	33324	
807	0	33272	
808	0	33284	
809	0	33304	
810	0	33332	
811	0	33420	
812	0	33536	
813	0	33680	
814	0	33900	
815	0	34156	
816	0	34424	
817	0	34692	
818	0	34936	
819	0	35148	
820	0	35320	
821	0	35464	
822	0	35648	
823	0	35776	
824	0	35852	
825	0	35864	
826	0	35844	
827	0	35820	
828	0	35732	
829	0	35548	
830	0	35380	
831	0	35296	
832	0	35196	
833	0	35048	
834	0	34860	
835	0	34692	
836	0	34560	
837	0	34420	
838	0	34280	
839	0	34128	
840	0	34010	
841	0	33860	
842	0	33716	
843	0	33580	
844	0	33492	
845	0	33448	
846	0	33426	
847	0	33384	
848	0	33324	
849	0	33248	
850	0	33194	
851	0	33096	
852	0	32932	
853	0	32816	
854	0	32764	
855	0	32656	
856	0	32588	
857	0	32536	
858	0	32476	
859	0	32372	
860	0	32288	
861	0	32176	
862	0	32088	
863	0	32004	
864	0	31908	
865	0	31776	
866	0	31688	
867	0	31632	
868	0	31628	
869	0	31664	
870	0	31664	
871	0	31676	
872	0	31640	
873	0	31592	
874	0	31540	
875	0	31564	
876	0	31616	
877	0	31656	
878	0	31632	
879	0	31644	
880	0	31652	
881	0	31664	
882	0	31680	
883	0	31740	
884	0	31800	
885	0	31848	
886	0	31872	
887	0	31872	
888	0	31860	
889	0	31866	
890	0	31880	
891	0	31934	
892	0	32004	
893	0	32056	
894	0	32120	
895	0	32172	
896	0	32238	
897	0	32256	
898	0	32184	
899	0	32132	
900	0	32068	
901	0	31936	
902	0	31748	
903	0	31458	
904	0	31116	
905	0	30712	
906	0	30162	
907	0	29512	
908	0	28992	
909	0	28680	
910	0	28552	
911	0	28528	
912	0	28712	
913	0	29152	
914	0	29936	
915	0	30900	
916	0	31952	
917	0	33168	
918	0	34600	
919	0	36256	
920	0	38068	
921	0	40240	
922	0	42848	
923	0	45848	
924	0	49308	
925	0	53048	
926	0	56680	
927	0	60088	
928	0	62340	
929	0	63528	
930	0	64124	
931	0	64376	
932	0	64464	
933	0	64448	
934	0	64384	
935	0	64308	
936	0	64192	
937	0	64076	
938	0	63956	
939	0	59228	
940	0	53312	
941	0	48456	
942	0	44504	
943	0	41256	
944	0	38600	
945	0	36368	
946	0	34408	
947	0	32632	
948	0	30952	
949	0	29418	
950	0	28116	
951	0	27136	
952	0	26368	
953	0	25810	
954	0	25484	
955	0	25316	
956	0	25266	
957	0	25260	
958	0	25280	
959	0	25400	
960	0	25684	
961	0	26056	
962	0	26476	
963	0	26930	
964	0	27370	
965	0	27808	
966	0	28232	
967	0	28544	
968	0	28808	
969	0	28996	
970	0	29140	
971	0	29160	
972	0	29196	
973	0	29216	
974	0	29232	
975	0	29256	
976	0	29264	
977	0	29236	
978	0	29224	
979	0	29204	
980	0	29200	
981	0	29180	
982	0	29164	
983	0	29184	
984	0	29210	
985	0	29260	
986	0	29308	
987	0	29344	
988	0	29392	
989	0	29472	
990	0	29528	
991	0	29572	
992	0	29604	
993	0	29664	
994	0	29704	
995	0	29692	
996	0	29656	
997	0	29672	
998	0	29680	
999	0	29672	
1000	0	29688	
1001	0	29712	
1002	0	29796	
1003	0	29840	
1004	0	29896	
1005	0	29986	
1006	0	30048	
1007	0	30104	
1008	0	30116	
1009	0	30120	
1010	0	30152	
1011	0	30212	
1012	0	30276	
1013	0	30308	
1014	0	30296	
1015	0	30344	
1016	0	30368	
1017	0	30396	
1018	0	30376	
1019	0	30394	
1020	0	30468	
1021	0	30516	
1022	0	30584	
1023	0	30616	
1024	0	30640	
1025	0	30648	
1026	0	30668	
1027	0	30728	
1028	0	30788	
1029	0	30824	
1030	0	30884	
1031	0	30952	
1032	0	31042	
1033	0	31072	
1034	0	31112	
1035	0	31136	
1036	0	31196	
1037	0	31260	
1038	0	31352	
1039	0	31420	
1040	0	31396	
1041	0	31384	
1042	0	31424	
1043	0	31436	
1044	0	31484	
1045	0	31500	
1046	0	31536	
1047	0	31572	
1048	0	31644	
1049	0	31736	
1050	0	31772	
1051	0	31820	
1052	0	31856	
1053	0	31878	
1054	0	31964	
1055	0	32050	
1056	0	32144	
1057	0	32240	
1058	0	32224	
1059	0	32212	
1060	0	32252	
1061	0	32320	
1062	0	32408	
1063	0	32472	
1064	0	32472	
1065	0	32504	
1066	0	32560	
1067	0	32652	
1068	0	32752	
1069	0	32808	
1070	0	32836	
1071	0	32916	
1072	0	32996	
1073	0	33052	
1074	0	33100	
1075	0	33144	
1076	0	33192	
1077	0	33232	
1078	0	33248	
1079	0	33268	
1080	0	33296	
1081	0	33354	
1082	0	33404	
1083	0	33452	
1084	0	33484	
1085	0	33524	
1086	0	33608	
1087	0	33728	
1088	0	33852	
1089	0	33936	
1090	0	34036	
1091	0	34128	
1092	0	34120	
1093	0	34132	
1094	0	34180	
1095	0	34256	
1096	0	34288	
1097	0	34356	
1098	0	34460	
1099	0	34508	
1100	0	34600	
1101	0	34700	
1102	0	34744	
1103	0	34744	
1104	0	34800	
1105	0	34848	
1106	0	34880	
1107	0	34924	
1108	0	34986	
1109	0	35036	
1110	0	35112	
1111	0	35196	
1112	0	35248	
1113	0	35312	
1114	0	35380	
1115	0	35432	
1116	0	35520	
1117	0	35616	
1118	0	35676	
1119	0	35756	
1120	0	35848	
1121	0	35880	
1122	0	35932	
1123	0	35962	
1124	0	35980	
1125	0	36000	
1126	0	36036	
1127	0	36096	
1128	0	36104	
1129	0	36104	
1130	0	36130	
1131	0	36176	
1132	0	36248	
1133	0	36272	
1134	0	36264	
1135	0	36248	
1136	0	36272	
1137	0	36296	
1138	0	36304	
1139	0	36332	
1140	0	36386	
1141	0	36408	
1142	0	36408	
1143	0	36380	
1144	0	36332	
1145	0	36284	
1146	0	36232	
1147	0	36204	
1148	0	36140	
1149	0	36096	
1150	0	36056	
1151	0	36060	
1152	0	36056	
1153	0	35984	
1154	0	35900	
1155	0	35800	
1156	0	35768	
1157	0	35824	
1158	0	35872	
1159	0	35916	
1160	0	35920	
1161	0	35892	
1162	0	35824	
1163	0	35742	
1164	0	35680	
1165	0	35644	
1166	0	35572	
1167	0	35512	
1168	0	35496	
1169	0	35480	
1170	0	35432	
1171	0	35338	
1172	0	35264	
1173	0	35204	
1174	0	35120	
1175	0	35020	
1176	0	34952	
1177	0	34936	
1178	0	34924	
1179	0	34852	
1180	0	34752	
1181	0	34644	
1182	0	34540	
1183	0	34458	
1184	0	34420	
1185	0	34328	
1186	0	34146	
1187	0	33944	
1188	0	33800	
1189	0	33632	
1190	0	33488	
1191	0	33372	
1192	0	33248	
1193	0	33124	
1194	0	33016	
1195	0	32896	
1196	0	32768	
1197	0	32616	
1198	0	32444	
1199	0	32288	
1200	0	32176	
1201	0	32092	
1202	0	32008	
1203	0	31920	
1204	0	31846	
1205	0	31732	
1206	0	31632	
1207	0	31548	
1208	0	31452	
1209	0	31320	
1210	0	31188	
1211	0	31104	
1212	0	31008	
1213	0	30908	
1214	0	30828	
1215	0	30748	
1216	0	30696	
1217	0	30624	
1218	0	30592	
1219	0	30520	
1220	0	30436	
1221	0	30328	
1222	0	30276	
1223	0	30228	
1224	0	30208	
1225	0	30172	
1226	0	30072	
1227	0	29936	
1228	0	29848	
1229	0	29796	
1230	0	29716	
1231	0	29628	
1232	0	29588	
1233	0	29554	
1234	0	29548	
1235	0	29610	
1236	0	29672	
1237	0	29624	
1238	0	29520	
1239	0	29388	
1240	0	29356	
1241	0	29396	
1242	0	29440	
1243	0	29448	
1244	0	29472	
1245	0	29504	
1246	0	29508	
1247	0	29544	
1248	0	29612	
1249	0	29652	
1250	0	29630	
1251	0	29632	
1252	0	29624	
1253	0	29660	
1254	0	29732	
1255	0	29772	
1256	0	29754	
1257	0	29760	
1258	0	29824	
1259	0	29872	
1260	0	29900	
1261	0	29912	
1262	0	29968	
1263	0	30028	
1264	0	30080	
1265	0	30140	
1266	0	30140	
1267	0	30112	
1268	0	30096	
1269	0	30104	
1270	0	30180	
1271	0	30274	
1272	0	30320	
1273	0	30338	
1274	0	30352	
1275	0	30376	
1276	0	30424	
1277	0	30468	
1278	0	30576	
1279	0	30636	
1280	0	30716	
1281	0	30776	
1282	0	30804	
1283	0	30798	
1284	0	30792	
1285	0	30784	
1286	0	30776	
1287	0	30796	
1288	0	30852	
1289	0	30968	
1290	0	31016	
1291	0	31092	
1292	0	31136	
1293	0	31128	
1294	0	31144	
1295	0	31192	
1296	0	31224	
1297	0	31272	
1298	0	31332	
1299	0	31392	
1300	0	31390	
1301	0	31328	
1302	0	31232	
1303	0	31216	
1304	0	31244	
1305	0	31260	
1306	0	31252	
1307	0	31288	
1308	0	31332	
1309	0	31320	
1310	0	31320	
1311	0	31356	
1312	0	31420	
1313	0	31472	
1314	0	31508	
1315	0	31564	
1316	0	31618	
1317	0	31628	
1318	0	31652	
1319	0	31712	
1320	0	31768	
1321	0	31840	
1322	0	31908	
1323	0	31904	
1324	0	31780	
1325	0	31708	
1326	0	31706	
1327	0	31704	
1328	0	31668	
1329	0	31664	
1330	0	31698	
1331	0	31724	
1332	0	31700	
1333	0	31684	
1334	0	31700	
1335	0	31800	
1336	0	31860	
1337	0	31856	
1338	0	31864	
1339	0	31892	
1340	0	31890	
1341	0	31852	
1342	0	31816	
1343	0	31828	
1344	0	31836	
1345	0	31858	
1346	0	31856	
1347	0	31832	
1348	0	31824	
1349	0	31802	
1350	0	31808	
1351	0	31824	
1352	0	31824	
1353	0	31824	
1354	0	31848	
1355	0	31872	
1356	0	31868	
1357	0	31880	
1358	0	31928	
1359	0	31972	
1360	0	31984	
1361	0	32000	
1362	0	31952	
1363	0	31892	
1364	0	31884	
1365	0	31902	
1366	0	31888	
1367	0	31872	
1368	0	31844	
1369	0	31842	
1370	0	31836	
1371	0	31840	
1372	0	31808	
1373	0	31816	
1374	0	31836	
1375	0	31772	
1376	0	31720	
1377	0	31700	
1378	0	31680	
1379	0	31680	
1380	0	31632	
1381	0	31588	
1382	0	31556	
1383	0	31574	
1384	0	31612	
1385	0	31608	
1386	0	31642	
1387	0	31640	
1388	0	31664	
1389	0	31692	
1390	0	31714	
1391	0	31776	
1392	0	31816	
1393	0	31848	
1394	0	31892	
1395	0	31884	
1396	0	31880	
1397	0	31924	
1398	0	31920	
1399	0	31880	
1400	0	31852	
1401	0	31820	
1402	0	31748	
1403	0	31668	
1404	0	31656	
1405	0	31640	
1406	0	31672	
1407	0	31752	
1408	0	31820	
1409	0	31856	
1410	0	31874	
1411	0	31870	
1412	0	31884	
1413	0	31932	
1414	0	31932	
1415	0	31840	
1416	0	31788	
1417	0	31740	
1418	0	31744	
1419	0	31772	
1420	0	31800	
1421	0	31844	
1422	0	31960	
1423	0	31996	
1424	0	32012	
1425	0	32036	
1426	0	32044	
1427	0	32000	
1428	0	32022	
1429	0	32036	
1430	0	31972	
1431	0	31960	
1432	0	31972	
1433	0	32000	
1434	0	32032	
1435	0	32064	
1436	0	32028	
1437	0	31940	
1438	0	31940	
1439	0	31944	
1440	0	31996	
1441	0	31984	
1442	0	31976	
1443	0	31992	
1444	0	32008	
1445	0	32040	
1446	0	32020	
1447	0	32048	
1448	0	32040	
1449	0	32046	
1450	0	32014	
1451	0	31952	
1452	0	31948	
1453	0	31980	
1454	0	32008	
1455	0	32016	
1456	0	32036	
1457	0	32068	
1458	0	32080	
1459	0	32088	
1460	0	32034	
1461	0	32072	
1462	0	32122	
1463	0	32132	
1464	0	32148	
1465	0	32148	
1466	0	32140	
1467	0	32104	
1468	0	32142	
1469	0	32192	
1470	0	32220	
1471	0	32212	
1472	0	32184	
1473	0	32192	
1474	0	32336	
1475	0	32420	
1476	0	32456	
1477	0	32414	
1478	0	32356	
1479	0	32376	
1480	0	32448	
1481	0	32496	
1482	0	32512	
1483	0	32448	
1484	0	32410	
1485	0	32356	
1486	0	32374	
1487	0	32416	
1488	0	32464	
1489	0	32508	
1490	0	32528	
1491	0	32476	
1492	0	32410	
1493	0	32408	
1494	0	32482	
1495	0	32500	
1496	0	32440	
1497	0	32424	
1498	0	32420	
1499	0	32452	
1500	0	32528	
1501	0	32592	
1502	0	32568	
1503	0	32568	
1504	0	32616	
1505	0	32536	
1506	0	32376	
1507	0	32372	
1508	0	32412	
1509	0	32476	
1510	0	32640	
1511	0	32804	
1512	0	32880	
1513	0	32882	
1514	0	32912	
1515	0	32980	
1516	0	33082	
1517	0	33160	
1518	0	33274	
1519	0	33404	
1520	0	33524	
1521	0	33616	
1522	0	33632	
1523	0	33690	
1524	0	33648	
1525	0	33548	
1526	0	33436	
1527	0	33324	
1528	0	33216	
1529	0	33148	
1530	0	33120	
1531	0	33120	
1532	0	33136	
1533	0	33148	
1534	0	33200	
1535	0	33348	
1536	0	33516	
1537	0	33764	
1538	0	33924	
1539	0	34140	
1540	0	34396	
1541	0	34632	
1542	0	34868	
1543	0	35076	
1544	0	35308	
1545	0	35520	
1546	0	35684	
1547	0	35792	
1548	0	35812	
1549	0	35740	
1550	0	35596	
1551	0	35420	
1552	0	35288	
1553	0	35216	
1554	0	35184	
1555	0	35152	
1556	0	35076	
1557	0	34948	
1558	0	34844	
1559	0	34808	
1560	0	34756	
1561	0	34684	
1562	0	34528	
1563	0	34304	
1564	0	34068	
1565	0	33886	
1566	0	33724	
1567	0	33588	
1568	0	33572	
1569	0	33546	
1570	0	33504	
1571	0	33424	
1572	0	33328	
1573	0	33256	
1574	0	33184	
1575	0	33076	
1576	0	33002	
1577	0	32996	
1578	0	32928	
1579	0	32780	
1580	0	32688	
1581	0	32612	
1582	0	32434	
1583	0	32292	
1584	0	32188	
1585	0	32058	
1586	0	31936	
1587	0	31840	
1588	0	31734	
1589	0	31640	
1590	0	31576	
1591	0	31520	
1592	0	31480	
1593	0	31538	
1594	0	31668	
1595	0	31728	
1596	0	31684	
1597	0	31628	
1598	0	31614	
1599	0	31616	
1600	0	31664	
1601	0	31684	
1602	0	31716	
1603	0	31736	
1604	0	31714	
1605	0	31692	
1606	0	31710	
1607	0	31732	
1608	0	31808	
1609	0	31860	
1610	0	31872	
1611	0	31872	
1612	0	31944	
1613	0	32008	
1614	0	32016	
1615	0	31984	
1616	0	31968	
1617	0	31988	
1618	0	32060	
1619	0	32100	
1620	0	32098	
1621	0	32088	
1622	0	32088	
1623	0	32122	
1624	0	32132	
1625	0	32096	
1626	0	31992	
1627	0	31852	
1628	0	31630	
1629	0	31312	
1630	0	30876	
1631	0	30288	
1632	0	29764	
1633	0	29428	
1634	0	29372	
1635	0	29348	
1636	0	29480	
1637	0	29824	
1638	0	30448	
1639	0	31224	
1640	0	32104	
1641	0	33132	
1642	0	34328	
1643	0	35720	
1644	0	37432	
1645	0	39432	
1646	0	41812	
1647	0	44580	
1648	0	47804	
1649	0	51224	
1650	0	54516	
1651	0	57792	
1652	0	60808	
1653	0	62624	
1654	0	63556	
1655	0	63988	
1656	0	64176	
1657	0	64232	
1658	0	64200	
1659	0	64120	
1660	0	64032	
1661	0	63920	
1662	0	60376	
1663	0	54060	
1664	0	47960	
1665	0	42656	
1666	0	38388	
1667	0	35188	
1668	0	32872	
1669	0	31144	
1670	0	29832	
1671	0	28788	
1672	0	27948	
1673	0	27184	
1674	0	26444	
1675	0	25796	
1676	0	25236	
1677	0	24808	
1678	0	24584	
1679	0	24568	
1680	0	24600	
1681	0	24604	
1682	0	24604	
1683	0	24648	
1684	0	24896	
1685	0	25172	
1686	0	25498	
1687	0	25928	
1688	0	26452	
1689	0	26976	
1690	0	27408	
1691	0	27820	
1692	0	28208	
1693	0	28520	
1694	0	28816	
1695	0	29104	
1696	0	29320	
1697	0	29548	
1698	0	29728	
1699	0	29896	
1700	0	30032	
1701	0	30112	
1702	0	30170	
1703	0	30208	
1704	0	30256	
1705	0	30272	
1706	0	30292	
1707	0	30272	
1708	0	30268	
1709	0	30332	
1710	0	30380	
1711	0	30426	
1712	0	30492	
1713	0	30572	
1714	0	30656	
1715	0	30676	
1716	0	30680	
1717	0	30688	
1718	0	30760	
1719	0	30824	
1720	0	30912	
1721	0	30990	
1722	0	30996	
1723	0	31028	
1724	0	31050	
1725	0	31008	
1726	0	30900	
1727	0	30860	
1728	0	30874	
1729	0	30848	
1730	0	30844	
1731	0	30876	
1732	0	30902	
1733	0	31012	
1734	0	31184	
1735	0	31248	
1736	0	31324	
1737	0	31424	
1738	0	31464	
1739	0	31420	
1740	0	31348	
1741	0	31296	
1742	0	31316	
1743	0	31392	
1744	0	31456	
1745	0	31534	
1746	0	31618	
1747	0	31664	
1748	0	31792	
1749	0	31928	
1750	0	31992	
1751	0	32056	
1752	0	32104	
1753	0	32116	
1754	0	32128	
1755	0	32080	
1756	0	32072	
1757	0	32116	
1758	0	32168	
1759	0	32224	
1760	0	32216	
1761	0	32224	
1762	0	32280	
1763	0	32360	
1764	0	32474	
1765	0	32596	
1766	0	32628	
1767	0	32620	
1768	0	32640	
1769	0	32674	
1770	0	32744	
1771	0	32772	
1772	0	32808	
1773	0	32864	
1774	0	32908	
1775	0	33024	
1776	0	33088	
1777	0	33104	
1778	0	33130	
1779	0	33084	
1780	0	33016	
1781	0	32984	
1782	0	33044	
1783	0	33188	
1784	0	33324	
1785	0	33416	
1786	0	33460	
1787	0	33512	
1788	0	33632	
1789	0	33672	
1790	0	33756	
1791	0	33832	
1792	0	33990	
1793	0	33992	
1794	0	33940	
1795	0	33996	
1796	0	33944	
1797	0	33896	
1798	0	33936	
1799	0	34016	
1800	0	34172	
1801	0	34276	
1802	0	34400	
1803	0	34472	
1804	0	34552	
1805	0	34724	
1806	0	34884	
1807	0	34976	
1808	0	35008	
1809	0	34970	
1810	0	34928	
1811	0	34924	
1812	0	34976	
1813	0	34992	
1814	0	34996	
1815	0	35028	
1816	0	34956	
1817	0	34908	
1818	0	34892	
1819	0	34896	
1820	0	34908	
1821	0	34912	
1822	0	34964	
1823	0	35084	
1824	0	35168	
1825	0	35292	
1826	0	35412	
1827	0	35564	
1828	0	35696	
1829	0	35800	
1830	0	35828	
1831	0	35836	
1832	0	35856	
1833	0	35964	
1834	0	36072	
1835	0	36156	
1836	0	36236	
1837	0	36252	
1838	0	36300	
1839	0	36382	
1840	0	36436	
1841	0	36432	
1842	0	36360	
1843	0	36368	
1844	0	36532	
1845	0	36572	
1846	0	36532	
1847	0	36468	
1848	0	36656	
1849	0	36904	
1850	0	37064	
1851	0	37208	
1852	0	37384	
1853	0	37580	
1854	0	37732	
1855	0	37800	
1856	0	37860	
1857	0	37816	
1858	0	37700	
1859	0	37640	
1860	0	37400	
1861	0	37392	
1862	0	37584	
1863	0	37568	
1864	0	37440	
1865	0	37304	
1866	0	37240	
1867	0	37188	
1868	0	37204	
1869	0	37208	
1870	0	37152	
1871	0	37068	
1872	0	36964	
1873	0	36890	
1874	0	36932	
1875	0	37036	
1876	0	37052	
1877	0	36980	
1878	0	36880	
1879	0	36804	
1880	0	36726	
1881	0	36732	
1882	0	36776	
1883	0	36844	
1884	0	36852	
1885	0	36784	
1886	0	36704	
1887	0	36636	
1888	0	36576	
1889	0	36528	
1890	0	36452	
1891	0	36386	
1892	0	36384	
1893	0	36376	
1894	0	36370	
1895	0	36392	
1896	0	36376	
1897	0	36272	
1898	0	36184	
1899	0	36024	
1900	0	35888	
1901	0	35784	
1902	0	35620	
1903	0	35440	
1904	0	35232	
1905	0	34984	
1906	0	34876	
1907	0	34760	
1908	0	34718	
1909	0	34628	
1910	0	34520	
1911	0	34404	
1912	0	34360	
1913	0	34348	
1914	0	34260	
1915	0	34064	
1916	0	33804	
1917	0	33596	
1918	0	33356	
1919	0	33184	
1920	0	33040	
1921	0	32832	
1922	0	32612	
1923	0	32488	
1924	0	32444	
1925	0	32456	
1926	0	32464	
1927	0	32400	
1928	0	32296	
1929	0	32188	
1930	0	32032	
1931	0	31960	
1932	0	31904	
1933	0	31688	
1934	0	31416	
1935	0	31160	
1936	0	30938	
1937	0	30744	
1938	0	30564	
1939	0	30472	
1940	0	30420	
1941	0	30376	
1942	0	30304	
1943	0	30240	
1944	0	30288	
1945	0	30298	
1946	0	30288	
1947	0	30272	
1948	0	30212	
1949	0	30034	
1950	0	29872	
1951	0	29712	
1952	0	29544	
1953	0	29412	
1954	0	29328	
1955	0	29336	
1956	0	29372	
1957	0	29488	
1958	0	29588	
1959	0	29516	
1960	0	29404	
1961	0	29340	
1962	0	29280	
1963	0	29192	
1964	0	29120	
1965	0	29108	
1966	0	29080	
1967	0	28996	
1968	0	28916	
1969	0	28968	
1970	0	29092	
1971	0	29216	
1972	0	29208	
1973	0	29144	
1974	0	29108	
1975	0	29108	
1976	0	29112	
1977	0	29104	
1978	0	29208	
1979	0	29388	
1980	0	29600	
1981	0	29700	
1982	0	29706	
1983	0	29668	
1984	0	29648	
1985	0	29664	
1986	0	29676	
1987	0	29760	
1988	0	29804	
1989	0	29772	
1990	0	29860	
1991	0	29960	
1992	0	29972	
1993	0	29888	
1994	0	29876	
1995	0	29970	
1996	0	30072	
1997	0	30196	
1998	0	30288	
1999	0	30382	
2000	0	30368	
2001	0	30300	
2002	0	30280	
2003	0	30292	
2004	0	30386	
2005	0	30528	
2006	0	30506	
2007	0	30310	
2008	0	30220	
2009	0	30204	
2010	0	30268	
2011	0	30370	
2012	0	30480	
2013	0	30488	
2014	0	30548	
2015	0	30724	
2016	0	30858	
2017	0	30944	
2018	0	31088	
2019	0	31148	
2020	0	31146	
2021	0	31218	
2022	0	31272	
2023	0	31228	
2024	0	31136	
2025	0	31058	
2026	0	31136	
2027	0	31224	
2028	0	31264	
2029	0	31320	
2030	0	31260	
2031	0	31224	
2032	0	31176	
2033	0	31124	
2034	0	31132	
2035	0	31164	
2036	0	31272	
2037	0	31392	
2038	0	31396	
2039	0	31352	
2040	0	31316	
2041	0	31304	
2042	0	31258	
2043	0	31224	
2044	0	31228	
2045	0	31264	
2046	0	31316	
2047	0	31400	
2048	0	31464	
2049	0	31468	
2050	0	31524	
2051	0	31556	
2052	0	31596	
2053	0	31600	
2054	0	31656	
2055	0	31684	
2056	0	31748	
2057	0	31824	
2058	0	31802	
2059	0	31714	
2060	0	31712	
2061	0	31712	
2062	0	31644	
2063	0	31636	
2064	0	31604	
2065	0	31564	
2066	0	31520	
2067	0	31496	
2068	0	31500	
2069	0	31488	
2070	0	31524	
2071	0	31552	
2072	0	31528	
2073	0	31612	
2074	0	31688	
2075	0	31720	
2076	0	31776	
2077	0	31772	
2078	0	31792	
2079	0	31808	
2080	0	31802	
2081	0	31788	
2082	0	31764	
2083	0	31680	
2084	0	31500	
2085	0	31420	
2086	0	31384	
2087	0	31384	
2088	0	31412	
2089	0	31436	
2090	0	31468	
2091	0	31442	
2092	0	31416	
2093	0	31480	
2094	0	31584	
2095	0	31624	
2096	0	31600	
2097	0	31610	
2098	0	31612	
2099	0	31484	
2100	0	31392	
2101	0	31422	
2102	0	31356	
2103	0	31344	
2104	0	31340	
2105	0	31328	
2106	0	31356	
2107	0	31380	
2108	0	31420	
2109	0	31484	
2110	0	31536	
2111	0	31620	
2112	0	31728	
2113	0	31778	
2114	0	31720	
2115	0	31692	
2116	0	31672	
2117	0	31640	
2118	0	31596	
2119	0	31610	
2120	0	31624	
2121	0	31500	
2122	0	31320	
2123	0	31160	
2124	0	31132	
2125	0	31180	
2126	0	31180	
2127	0	31132	
2128	0	31088	
2129	0	31076	
2130	0	31164	
2131	0	31280	
2132	0	31360	
2133	0	31424	
2134	0	31424	
2135	0	31368	
2136	0	31312	
2137	0	31284	
2138	0	31328	
2139	0	31400	
2140	0	31440	
2141	0	31316	
2142	0	31224	
2143	0	31212	
2144	0	31274	
2145	0	31408	
2146	0	31476	
2147	0	31508	
2148	0	31636	
2149	0	31764	
2150	0	31824	
2151	0	31784	
2152	0	31612	
2153	0	31460	
2154	0	31388	
2155	0	31344	
2156	0	31352	
2157	0	31408	
2158	0	31512	
2159	0	31600	
2160	0	31624	
2161	0	31652	
2162	0	31732	
2163	0	31726	
2164	0	31704	
2165	0	31748	
2166	0	31784	
2167	0	31772	
2168	0	31656	
2169	0	31584	
2170	0	31564	
2171	0	31604	
2172	0	31624	
2173	0	31632	
2174	0	31728	
2175	0	31828	
2176	0	31892	
2177	0	31988	
2178	0	32072	
2179	0	32200	
2180	0	32284	
2181	0	32300	
2182	0	32324	
2183	0	32376	
2184	0	32460	
2185	0	32476	
2186	0	32516	
2187	0	32576	
2188	0	32632	
2189	0	32632	
2190	0	32592	
2191	0	32592	
2192	0	32608	
2193	0	32640	
2194	0	32640	
2195	0	32628	
2196	0	32648	
2197	0	32608	
2198	0	32576	
2199	0	32680	
2200	0	32850	
2201	0	33056	
2202	0	33304	
2203	0	33546	
2204	0	33800	
2205	0	34084	
2206	0	34380	
2207	0	34692	
2208	0	34992	
2209	0	35156	
2210	0	35208	
2211	0	35172	
2212	0	35136	
2213	0	35116	
2214	0	35088	
2215	0	34920	
2216	0	34772	
2217	0	34720	
2218	0	34660	
2219	0	34496	
2220	0	34256	
2221	0	34072	
2222	0	33884	
2223	0	33656	
2224	0	33528	
2225	0	33442	
2226	0	33368	
2227	0	33272	
2228	0	33152	
2229	0	33036	
2230	0	33020	
2231	0	33028	
2232	0	33020	
2233	0	32936	
2234	0	32796	
2235	0	32656	
2236	0	32504	
2237	0	32392	
2238	0	32352	
2239	0	32288	
2240	0	32168	
2241	0	32068	
2242	0	31960	
2243	0	31840	
2244	0	31730	
2245	0	31616	
2246	0	31516	
2247	0	31424	
2248	0	31328	
2249	0	31184	
2250	0	31144	
2251	0	31148	
2252	0	31168	
2253	0	31168	
2254	0	31218	
2255	0	31264	
2256	0	31312	
2257	0	31364	
2258	0	31408	
2259	0	31456	
2260	0	31396	
2261	0	31256	
2262	0	31128	
2263	0	31000	
2264	0	30908	
2265	0	30848	
2266	0	30804	
2267	0	30872	
2268	0	30944	
2269	0	30984	
2270	0	31024	
2271	0	31104	
2272	0	31136	
2273	0	31180	
2274	0	31252	
2275	0	31288	
2276	0	31320	
2277	0	31336	
2278	0	31368	
2279	0	31448	
2280	0	31516	
2281	0	31512	
2282	0	31424	
2283	0	31290	
2284	0	31178	
2285	0	31128	
2286	0	31036	
2287	0	31004	
2288	0	31004	
2289	0	31024	
2290	0	31093	
2291	0	31144	
2292	0	31114	
2293	0	30984	
2294	0	30708	
2295	0	30288	
2296	0	29800	
2297	0	29300	
2298	0	29068	
2299	0	29052	
2300	0	29116	
2301	0	29220	
2302	0	29474	
2303	0	29956	
2304	0	30720	
2305	0	31596	
2306	0	32520	
2307	0	33600	
2308	0	34864	
2309	0	36404	
2310	0	38160	
2311	0	40240	
2312	0	42692	
2313	0	45664	
2314	0	48928	
2315	0	52144	
2316	0	55344	
2317	0	58540	
2318	0	61248	
2319	0	62748	
2320	0	63508	
2321	0	63856	
2322	0	64000	
2323	0	64024	
2324	0	63968	
2325	0	63896	
2326	0	63808	
2327	0	60544	
2328	0	54364	
2329	0	48112	
2330	0	42456	
2331	0	37892	
2332	0	34440	
2333	0	31896	
2334	0	30144	
2335	0	28922	
2336	0	27988	
2337	0	27268	
2338	0	26692	
2339	0	26072	
2340	0	25460	
2341	0	25012	
2342	0	24640	
2343	0	24368	
2344	0	24352	
2345	0	24426	
2346	0	24444	
2347	0	24492	
2348	0	24480	
2349	0	24480	
2350	0	24600	
2351	0	24868	
2352	0	25252	
2353	0	25664	
2354	0	26004	
2355	0	26356	
2356	0	26784	
2357	0	27216	
2358	0	27556	
2359	0	27890	
2360	0	28204	
2361	0	28508	
2362	0	28776	
2363	0	29048	
2364	0	29268	
2365	0	29446	
2366	0	29644	
2367	0	29776	
2368	0	29908	
2369	0	30002	
2370	0	30072	
2371	0	30112	
2372	0	30152	
2373	0	30196	
2374	0	30184	
2375	0	30080	
2376	0	30040	
2377	0	30012	
2378	0	29960	
2379	0	29912	
2380	0	29906	
2381	0	29960	
2382	0	30032	
2383	0	30108	
2384	0	30160	
2385	0	30232	
2386	0	30296	
2387	0	30352	
2388	0	30408	
2389	0	30476	
2390	0	30548	
2391	0	30560	
2392	0	30532	
2393	0	30548	
2394	0	30584	
2395	0	30596	
2396	0	30640	
2397	0	30676	
2398	0	30730	
2399	0	30768	
2400	0	30826	
2401	0	30904	
2402	0	30958	
2403	0	31020	
2404	0	31040	
2405	0	31060	
2406	0	31116	
2407	0	31184	
2408	0	31188	
2409	0	31116	
2410	0	30992	
2411	0	30972	
2412	0	31076	
2413	0	31212	
2414	0	31328	
2415	0	31348	
2416	0	31360	
2417	0	31420	
2418	0	31524	
2419	0	31668	
2420	0	31840	
2421	0	31968	
2422	0	32104	
2423	0	32124	
2424	0	32044	
2425	0	31988	
2426	0	31976	
2427	0	31988	
2428	0	32000	
2429	0	32028	
2430	0	32076	
2431	0	32068	
2432	0	32068	
2433	0	32124	
2434	0	32244	
2435	0	32298	
2436	0	32336	
2437	0	32354	
2438	0	32400	
2439	0	32456	
2440	0	32516	
2441	0	32546	
2442	0	32560	
2443	0	32576	
2444	0	32616	
2445	0	32652	
2446	0	32584	
2447	0	32576	
2448	0	32600	
2449	0	32588	
2450	0	32588	
2451	0	32664	
2452	0	32780	
2453	0	32930	
2454	0	33048	
2455	0	33176	
2456	0	33260	
2457	0	33360	
2458	0	33472	
2459	0	33584	
2460	0	33688	
2461	0	33672	
2462	0	33636	
2463	0	33660	
2464	0	33672	
2465	0	33636	
2466	0	33594	
2467	0	33576	
2468	0	33608	
2469	0	33680	
2470	0	33804	
2471	0	33872	
2472	0	33896	
2473	0	33964	
2474	0	34016	
2475	0	34096	
2476	0	34172	
2477	0	34268	
2478	0	34364	
2479	0	34444	
2480	0	34548	
2481	0	34644	
2482	0	34708	
2483	0	34732	
2484	0	34740	
2485	0	34788	
2486	0	34860	
2487	0	34920	
2488	0	34944	
2489	0	34944	
2490	0	35016	
2491	0	35096	
2492	0	35204	
2493	0	35356	
2494	0	35432	
2495	0	35488	
2496	0	35504	
2497	0	35496	
2498	0	35520	
2499	0	35600	
2500	0	35700	
2501	0	35816	
2502	0	35912	
2503	0	36012	
2504	0	36096	
2505	0	36144	
2506	0	36144	
2507	0	36208	
2508	0	36248	
2509	0	36308	
2510	0	36400	
2511	0	36540	
2512	0	36628	
2513	0	36692	
2514	0	36724	
2515	0	36788	
2516	0	36852	
2517	0	36928	
2518	0	36956	
2519	0	36988	
2520	0	37004	
2521	0	36972	
2522	0	36904	
2523	0	36848	
2524	0	36804	
2525	0	36800	
2526	0	36824	
2527	0	36840	
2528	0	36888	
2529	0	36964	
2530	0	37036	
2531	0	37072	
2532	0	37140	
2533	0	37124	
2534	0	37008	
2535	0	36928	
2536	0	36870	
2537	0	36784	
2538	0	36776	
2539	0	36740	
2540	0	36696	
2541	0	36692	
2542	0	36668	
2543	0	36664	
2544	0	36680	
2545	0	36672	
2546	0	36592	
2547	0	36496	
2548	0	36448	
2549	0	36424	
2550	0	36392	
2551	0	36408	
2552	0	36388	
2553	0	36328	
2554	0	36236	
2555	0	36128	
2556	0	36034	
2557	0	35944	
2558	0	35952	
2559	0	35898	
2560	0	35792	
2561	0	35704	
2562	0	35616	
2563	0	35520	
2564	0	35444	
2565	0	35364	
2566	0	35228	
2567	0	35144	
2568	0	35080	
2569	0	34928	
2570	0	34736	
2571	0	34584	
2572	0	34408	
2573	0	34192	
2574	0	34020	
2575	0	33872	
2576	0	33760	
2577	0	33592	
2578	0	33424	
2579	0	33248	
2580	0	33160	
2581	0	33024	
2582	0	32852	
2583	0	32684	
2584	0	32552	
2585	0	32414	
2586	0	32216	
2587	0	32060	
2588	0	31956	
2589	0	31824	
2590	0	31692	
2591	0	31564	
2592	0	31428	
2593	0	31296	
2594	0	31216	
2595	0	31144	
2596	0	31054	
2597	0	30868	
2598	0	30712	
2599	0	30620	
2600	0	30532	
2601	0	30448	
2602	0	30296	
2603	0	30180	
2604	0	30072	
2605	0	29988	
2606	0	29932	
2607	0	29888	
2608	0	29852	
2609	0	29760	
2610	0	29608	
2611	0	29508	
2612	0	29468	
2613	0	29408	
2614	0	29350	
2615	0	29348	
2616	0	29312	
2617	0	29292	
2618	0	29268	
2619	0	29264	
2620	0	29276	
2621	0	29296	
2622	0	29264	
2623	0	29248	
2624	0	29224	
2625	0	29168	
2626	0	29170	
2627	0	29204	
2628	0	29190	
2629	0	29128	
2630	0	29092	
2631	0	29112	
2632	0	29140	
2633	0	29218	
2634	0	29280	
2635	0	29290	
2636	0	29272	
2637	0	29232	
2638	0	29228	
2639	0	29236	
2640	0	29210	
2641	0	29192	
2642	0	29200	
2643	0	29196	
2644	0	29220	
2645	0	29268	
2646	0	29332	
2647	0	29384	
2648	0	29464	
2649	0	29532	
2650	0	29556	
2651	0	29568	
2652	0	29560	
2653	0	29621	
2654	0	29640	
2655	0	29656	
2656	0	29684	
2657	0	29760	
2658	0	29796	
2659	0	29828	
2660	0	29916	
2661	0	30018	
2662	0	30088	
2663	0	30092	
2664	0	30076	
2665	0	30062	
2666	0	30032	
2667	0	30012	
2668	0	30028	
2669	0	30112	
2670	0	30212	
2671	0	30300	
2672	0	30368	
2673	0	30424	
2674	0	30408	
2675	0	30380	
2676	0	30380	
2677	0	30400	
2678	0	30440	
2679	0	30400	
2680	0	30384	
2681	0	30392	
2682	0	30348	
2683	0	30418	
2684	0	30476	
2685	0	30512	
2686	0	30564	
2687	0	30652	
2688	0	30720	
2689	0	30688	
2690	0	30696	
2691	0	30800	
2692	0	30920	
2693	0	30956	
2694	0	30946	
2695	0	30988	
2696	0	31056	
2697	0	31092	
2698	0	31132	
2699	0	31122	
2700	0	31088	
2701	0	31056	
2702	0	31024	
2703	0	31084	
2704	0	31138	
2705	0	31168	
2706	0	31224	
2707	0	31248	
2708	0	31248	
2709	0	31228	
2710	0	31220	
2711	0	31248	
2712	0	31296	
2713	0	31340	
2714	0	31352	
2715	0	31354	
2716	0	31392	
2717	0	31434	
2718	0	31476	
2719	0	31512	
2720	0	31460	
2721	0	31444	
2722	0	31460	
2723	0	31464	
2724	0	31492	
2725	0	31520	
2726	0	31520	
2727	0	31520	
2728	0	31520	
2729	0	31492	
2730	0	31488	
2731	0	31512	
2732	0	31564	
2733	0	31560	
2734	0	31600	
2735	0	31680	
2736	0	31676	
2737	0	31628	
2738	0	31548	
2739	0	31550	
2740	0	31544	
2741	0	31492	
2742	0	31424	
2743	0	31372	
2744	0	31360	
2745	0	31296	
2746	0	31320	
2747	0	31384	
2748	0	31452	
2749	0	31488	
2750	0	31508	
2751	0	31528	
2752	0	31536	
2753	0	31544	
2754	0	31520	
2755	0	31428	
2756	0	31392	
2757	0	31392	
2758	0	31424	
2759	0	31480	
2760	0	31480	
2761	0	31484	
2762	0	31532	
2763	0	31532	
2764	0	31504	
2765	0	31456	
2766	0	31408	
2767	0	31354	
2768	0	31296	
2769	0	31274	
2770	0	31260	
2771	0	31274	
2772	0	31244	
2773	0	31212	
2774	0	31208	
2775	0	31236	
2776	0	31260	
2777	0	31288	
2778	0	31320	
2779	0	31324	
2780	0	31372	
2781	0	31424	
2782	0	31480	
2783	0	31502	
2784	0	31520	
2785	0	31572	
2786	0	31592	
2787	0	31564	
2788	0	31604	
2789	0	31664	
2790	0	31644	
2791	0	31556	
2792	0	31368	
2793	0	31224	
2794	0	31148	
2795	0	31082	
2796	0	31084	
2797	0	31168	
2798	0	31244	
2799	0	31290	
2800	0	31308	
2801	0	31320	
2802	0	31352	
2803	0	31408	
2804	0	31440	
2805	0	31500	
2806	0	31540	
2807	0	31568	
2808	0	31564	
2809	0	31580	
2810	0	31568	
2811	0	31556	
2812	0	31524	
2813	0	31488	
2814	0	31416	
2815	0	31360	
2816	0	31328	
2817	0	31300	
2818	0	31328	
2819	0	31356	
2820	0	31368	
2821	0	31472	
2822	0	31648	
2823	0	31832	
2824	0	31960	
2825	0	32058	
2826	0	32116	
2827	0	32192	
2828	0	32240	
2829	0	32308	
2830	0	32388	
2831	0	32494	
2832	0	32632	
2833	0	32706	
2834	0	32724	
2835	0	32684	
2836	0	32612	
2837	0	32600	
2838	0	32592	
2839	0	32556	
2840	0	32512	
2841	0	32476	
2842	0	32480	
2843	0	32532	
2844	0	32620	
2845	0	32690	
2846	0	32676	
2847	0	32712	
2848	0	32848	
2849	0	33008	
2850	0	33176	
2851	0	33392	
2852	0	33632	
2853	0	33888	
2854	0	34144	
2855	0	34356	
2856	0	34600	
2857	0	34808	
2858	0	34904	
2859	0	34992	
2860	0	34976	
2861	0	34880	
2862	0	34796	
2863	0	34680	
2864	0	34568	
2865	0	34464	
2866	0	34376	
2867	0	34288	
2868	0	34136	
2869	0	33996	
2870	0	33864	
2871	0	33744	
2872	0	33608	
2873	0	33428	
2874	0	33319	
2875	0	33198	
2876	0	32976	
2877	0	32756	
2878	0	32576	
2879	0	32432	
2880	0	32396	
2881	0	32400	
2882	0	32392	
2883	0	32344	
2884	0	32276	
2885	0	32236	
2886	0	32188	
2887	0	32088	
2888	0	31968	
2889	0	31896	
2890	0	31868	
2891	0	31868	
2892	0	31832	
2893	0	31752	
2894	0	31664	
2895	0	31536	
2896	0	31388	
2897	0	31232	
2898	0	31114	
2899	0	31018	
2900	0	30968	
2901	0	30892	
2902	0	30868	
2903	0	30852	
2904	0	30808	
2905	0	30760	
2906	0	30728	
2907	0	30754	
2908	0	30764	
2909	0	30764	
2910	0	30720	
2911	0	30688	
2912	0	30692	
2913	0	30700	
2914	0	30692	
2915	0	30688	
2916	0	30748	
2917	0	30780	
2918	0	30772	
2919	0	30820	
2920	0	30844	
2921	0	30908	
2922	0	30976	
2923	0	31012	
2924	0	31016	
2925	0	30968	
2926	0	30928	
2927	0	30912	
2928	0	30932	
2929	0	30964	
2930	0	31002	
2931	0	30996	
2932	0	31028	
2933	0	31072	
2934	0	31136	
2935	0	31192	
2936	0	31236	
2937	0	31288	
2938	0	31274	
2939	0	31144	
2940	0	30924	
2941	0	30716	
2942	0	30460	
2943	0	30092	
2944	0	29584	
2945	0	28984	
2946	0	28448	
2947	0	28162	
2948	0	28088	
2949	0	28096	
2950	0	28284	
2951	0	28716	
2952	0	29416	
2953	0	30340	
2954	0	31356	
2955	0	32484	
2956	0	33740	
2957	0	35212	
2958	0	36892	
2959	0	38880	
2960	0	41224	
2961	0	43992	
2962	0	47288	
2963	0	50964	
2964	0	54640	
2965	0	58228	
2966	0	61336	
2967	0	63076	
2968	0	63968	
2969	0	64404	
2970	0	64580	
2971	0	64624	
2972	0	64588	
2973	0	64512	
2974	0	64408	
2975	0	64284	
2976	0	64184	
2977	0	58128	
2978	0	51708	
2979	0	46184	
2980	0	41632	
2981	0	37968	
2982	0	35044	
2983	0	32664	
2984	0	30688	
2985	0	29120	
2986	0	27734	
2987	0	26544	
2988	0	25408	
2989	0	24668	
2990	0	24296	
2991	0	24168	
2992	0	24128	
2993	0	24216	
2994	0	24396	
2995	0	24546	
2996	0	24544	
2997	0	24590	
2998	0	24760	
2999	0	25008	
3000	0	25332	
3001	0	25768	
3002	0	26186	
3003	0	26544	
3004	0	26920	
3005	0	27316	
3006	0	27716	
3007	0	28076	
3008	0	28380	
3009	0	28616	
3010	0	28760	
3011	0	28840	
3012	0	28948	
3013	0	29064	
3014	0	29168	
3015	0	29240	
3016	0	29278	
3017	0	29208	
3018	0	29172	
3019	0	29176	
3020	0	29196	
3021	0	29152	
3022	0	29232	
3023	0	29280	
3024	0	29216	
3025	0	29166	
3026	0	29136	
3027	0	29188	
3028	0	29248	
3029	0	29332	
3030	0	29376	
3031	0	29364	
3032	0	29344	
3033	0	29388	
3034	0	29468	
3035	0	29516	
3036	0	29552	
3037	0	29616	
3038	0	29656	
3039	0	29696	
3040	0	29772	
3041	0	29844	
3042	0	29900	
3043	0	29908	
3044	0	29896	
3045	0	29836	
3046	0	29840	
3047	0	29904	
3048	0	29972	
3049	0	30056	
3050	0	30100	
3051	0	30134	
3052	0	30220	
3053	0	30288	
3054	0	30388	
3055	0	30426	
3056	0	30436	
3057	0	30500	
3058	0	30544	
3059	0	30604	
3060	0	30656	
3061	0	30732	
3062	0	30776	
3063	0	30792	
3064	0	30816	
3065	0	30876	
3066	0	30916	
3067	0	30972	
3068	0	31008	
3069	0	31012	
3070	0	31044	
3071	0	31040	
3072	0	31056	
3073	0	31048	
3074	0	31072	
3075	0	31152	
3076	0	31248	
3077	0	31300	
3078	0	31304	
3079	0	31332	
3080	0	31440	
3081	0	31522	
3082	0	31552	
3083	0	31608	
3084	0	31680	
3085	0	31744	
3086	0	31704	
3087	0	31738	
3088	0	31776	
3089	0	31808	
3090	0	31808	
3091	0	31872	
3092	0	31956	
3093	0	32056	
3094	0	32104	
3095	0	32120	
3096	0	32152	
3097	0	32236	
3098	0	32312	
3099	0	32388	
3100	0	32460	
3101	0	32520	
3102	0	32578	
3103	0	32624	
3104	0	32608	
3105	0	32624	
3106	0	32644	
3107	0	32700	
3108	0	32752	
3109	0	32800	
3110	0	32856	
3111	0	32882	
3112	0	32924	
3113	0	32964	
3114	0	32988	
3115	0	33024	
3116	0	33068	
3117	0	33152	
3118	0	33216	
3119	0	33232	
3120	0	33322	
3121	0	33456	
3122	0	33576	
3123	0	33648	
3124	0	33708	
3125	0	33732	
3126	0	33760	
3127	0	33800	
3128	0	33912	
3129	0	34048	
3130	0	34104	
3131	0	34148	
3132	0	34216	
3133	0	34276	
3134	0	34336	
3135	0	34372	
3136	0	34404	
3137	0	34460	
3138	0	34550	
3139	0	34572	
3140	0	34560	
3141	0	34580	
3142	0	34616	
3143	0	34684	
3144	0	34744	
3145	0	34804	
3146	0	34944	
3147	0	35104	
3148	0	35232	
3149	0	35328	
3150	0	35430	
3151	0	35504	
3152	0	35552	
3153	0	35616	
3154	0	35724	
3155	0	35772	
3156	0	35776	
3157	0	35796	
3158	0	35824	
3159	0	35866	
3160	0	35944	
3161	0	36020	
3162	0	36072	
3163	0	36144	
3164	0	36168	
3165	0	36224	
3166	0	36296	
3167	0	36312	
3168	0	36304	
3169	0	36316	
3170	0	36356	
3171	0	36400	
3172	0	36392	
3173	0	36384	
3174	0	36376	
3175	0	36404	
3176	0	36440	
3177	0	36468	
3178	0	36452	
3179	0	36392	
3180	0	36320	
3181	0	36280	
3182	0	36260	
3183	0	36264	
3184	0	36296	
3185	0	36288	
3186	0	36284	
3187	0	36256	
3188	0	36240	
3189	0	36212	
3190	0	36180	
3191	0	36094	
3192	0	36068	
3193	0	36064	
3194	0	36072	
3195	0	36048	
3196	0	36028	
3197	0	36004	
3198	0	35892	
3199	0	35784	
3200	0	35700	
3201	0	35642	
3202	0	35588	
3203	0	35572	
3204	0	35548	
3205	0	35504	
3206	0	35512	
3207	0	35476	
3208	0	35420	
3209	0	35322	
3210	0	35260	
3211	0	35160	
3212	0	35048	
3213	0	34952	
3214	0	34844	
3215	0	34660	
3216	0	34460	
3217	0	34262	
3218	0	34112	
3219	0	33952	
3220	0	33886	
3221	0	33820	
3222	0	33692	
3223	0	33568	
3224	0	33428	
3225	0	33244	
3226	0	33040	
3227	0	32884	
3228	0	32756	
3229	0	32636	
3230	0	32520	
3231	0	32372	
3232	0	32176	
3233	0	32032	
3234	0	31896	
3235	0	31772	
3236	0	31656	
3237	0	31560	
3238	0	31488	
3239	0	31408	
3240	0	31252	
3241	0	31088	
3242	0	30972	
3243	0	30896	
3244	0	30788	
3245	0	30672	
3246	0	30588	
3247	0	30508	
3248	0	30448	
3249	0	30408	
3250	0	30360	
3251	0	30294	
3252	0	30180	
3253	0	30060	
3254	0	30000	
3255	0	29912	
3256	0	29852	
3257	0	29776	
3258	0	29716	
3259	0	29712	
3260	0	29720	
3261	0	29760	
3262	0	29764	
3263	0	29660	
3264	0	29552	
3265	0	29456	
3266	0	29424	
3267	0	29436	
3268	0	29500	
3269	0	29528	
3270	0	29524	
3271	0	29504	
3272	0	29508	
3273	0	29520	
3274	0	29536	
3275	0	29516	
3276	0	29524	
3277	0	29528	
3278	0	29520	
3279	0	29488	
3280	0	29508	
3281	0	29564	
3282	0	29616	
3283	0	29644	
3284	0	29708	
3285	0	29772	
3286	0	29800	
3287	0	29740	
3288	0	29744	
3289	0	29782	
3290	0	29864	
3291	0	29948	
3292	0	30012	
3293	0	30024	
3294	0	30028	
3295	0	30036	
3296	0	30076	
3297	0	30172	
3298	0	30288	
3299	0	30356	
3300	0	30412	
3301	0	30396	
3302	0	30436	
3303	0	30444	
3304	0	30378	
3305	0	30332	
3306	0	30368	
3307	0	30412	
3308	0	30468	
3309	0	30488	
3310	0	30504	
3311	0	30576	
3312	0	30604	
3313	0	30600	
3314	0	30592	
3315	0	30656	
3316	0	30720	
3317	0	30788	
3318	0	30848	
3319	0	30912	
3320	0	30972	
3321	0	31020	
3322	0	31016	
3323	0	31016	
3324	0	31024	
3325	0	31056	
3326	0	31128	
3327	0	31180	
3328	0	31248	
3329	0	31296	
3330	0	31310	
3331	0	31320	
3332	0	31328	
3333	0	31384	
3334	0	31412	
3335	0	31364	
3336	0	31396	
3337	0	31476	
3338	0	31476	
3339	0	31476	
3340	0	31520	
3341	0	31504	
3342	0	31496	
3343	0	31520	
3344	0	31544	
3345	0	31588	
3346	0	31616	
3347	0	31624	
3348	0	31624	
3349	0	31644	
3350	0	31644	
3351	0	31644	
3352	0	31632	
3353	0	31620	
3354	0	31682	
3355	0	31700	
3356	0	31692	
3357	0	31754	
3358	0	31824	
3359	0	31840	
3360	0	31852	
3361	0	31818	
3362	0	31808	
3363	0	31820	
3364	0	31832	
3365	0	31860	
3366	0	31852	
3367	0	31832	
3368	0	31824	
3369	0	31828	
3370	0	31844	
3371	0	31824	
3372	0	31832	
3373	0	31900	
3374	0	31964	
3375	0	32032	
3376	0	32064	
3377	0	32056	
3378	0	32032	
3379	0	32052	
3380	0	32064	
3381	0	32072	
3382	0	32068	
3383	0	32088	
3384	0	32112	
3385	0	32156	
3386	0	32100	
3387	0	31984	
3388	0	31930	
3389	0	31908	
3390	0	31932	
3391	0	31964	
3392	0	31996	
3393	0	32052	
3394	0	32080	
3395	0	32072	
3396	0	32088	
3397	0	32112	
3398	0	32152	
3399	0	32148	
3400	0	32136	
3401	0	32116	
3402	0	32128	
3403	0	32092	
3404	0	32084	
3405	0	32096	
3406	0	32116	
3407	0	32056	
3408	0	32020	
3409	0	31964	
3410	0	31952	
3411	0	31968	
3412	0	31940	
3413	0	31928	
3414	0	31932	
3415	0	31912	
3416	0	31852	
3417	0	31856	
3418	0	31908	
3419	0	31996	
3420	0	32004	
3421	0	31904	
3422	0	31816	
3423	0	31784	
3424	0	31816	
3425	0	31848	
3426	0	31868	
3427	0	31880	
3428	0	31888	
3429	0	31904	
3430	0	31928	
3431	0	31904	
3432	0	31880	
3433	0	31888	
3434	0	31912	
3435	0	31908	
3436	0	31916	
3437	0	31948	
3438	0	31976	
3439	0	31952	
3440	0	31960	
3441	0	31976	
3442	0	32056	
3443	0	32092	
3444	0	32076	
3445	0	32088	
3446	0	32096	
3447	0	32080	
3448	0	32066	
3449	0	32040	
3450	0	32074	
3451	0	32160	
3452	0	32276	
3453	0	32416	
3454	0	32488	
3455	0	32520	
3456	0	32608	
3457	0	32748	
3458	0	32900	
3459	0	33036	
3460	0	33160	
3461	0	33276	
3462	0	33344	
3463	0	33368	
3464	0	33376	
3465	0	33362	
3466	0	33336	
3467	0	33340	
3468	0	33304	
3469	0	33248	
3470	0	33176	
3471	0	33124	
3472	0	33096	
3473	0	33172	
3474	0	33244	
3475	0	33274	
3476	0	33332	
3477	0	33380	
3478	0	33472	
3479	0	33612	
3480	0	33772	
3481	0	34016	
3482	0	34268	
3483	0	34480	
3484	0	34656	
3485	0	34740	
3486	0	34816	
3487	0	34992	
3488	0	35160	
3489	0	35264	
3490	0	35308	
3491	0	35276	
3492	0	35196	
3493	0	35124	
3494	0	35044	
3495	0	34940	
3496	0	34828	
3497	0	34716	
3498	0	34560	
3499	0	34412	
3500	0	34280	
3501	0	34184	
3502	0	34064	
3503	0	33984	
3504	0	33876	
3505	0	33714	
3506	0	33536	
3507	0	33398	
3508	0	33236	
3509	0	33096	
3510	0	32968	
3511	0	32900	
3512	0	32832	
3513	0	32752	
3514	0	32656	
3515	0	32604	
3516	0	32560	
3517	0	32440	
3518	0	32272	
3519	0	32176	
3520	0	32136	
3521	0	32032	
3522	0	31900	
3523	0	31776	
3524	0	31620	
3525	0	31500	
3526	0	31392	
3527	0	31268	
3528	0	31160	
3529	0	31104	
3530	0	31060	
3531	0	30988	
3532	0	30932	
3533	0	30900	
3534	0	30868	
3535	0	30844	
3536	0	30864	
3537	0	30888	
3538	0	30914	
3539	0	30908	
3540	0	30904	
3541	0	30932	
3542	0	30936	
3543	0	30940	
3544	0	30952	
3545	0	30924	
3546	0	30964	
3547	0	31036	
3548	0	31076	
3549	0	31080	
3550	0	31044	
3551	0	31012	
3552	0	31032	
3553	0	31040	
3554	0	31064	
3555	0	31096	
3556	0	31152	
3557	0	31180	
3558	0	31180	
3559	0	31184	
3560	0	31240	
3561	0	31296	
3562	0	31320	
3563	0	31372	
3564	0	31440	
3565	0	31476	
3566	0	31480	
3567	0	31464	
3568	0	31420	
3569	0	31442	
3570	0	31476	
3571	0	31372	
3572	0	31108	
3573	0	30808	
3574	0	30398	
3575	0	29796	
3576	0	29120	
3577	0	28580	
3578	0	28268	
3579	0	28148	
3580	0	28160	
3581	0	28348	
3582	0	28712	
3583	0	29330	
3584	0	30160	
3585	0	31172	
3586	0	32416	
3587	0	33880	
3588	0	35544	
3589	0	37416	
3590	0	39492	
3591	0	41952	
3592	0	44732	
3593	0	48024	
3594	0	51808	
3595	0	55660	
3596	0	59328	
3597	0	62072	
3598	0	63528	
3599	0	64288	
3600	0	64644	
3601	0	64784	
3602	0	64800	
3603	0	64740	
3604	0	64664	
3605	0	64556	
3606	0	64448	
3607	0	64320	
3608	0	64192	
3609	0	58328	
3610	0	52472	
3611	0	47664	
3612	0	43712	
3613	0	40464	
3614	0	37708	
3615	0	35280	
3616	0	33156	
3617	0	31380	
3618	0	29984	
3619	0	28912	
3620	0	28002	
3621	0	27252	
3622	0	26700	
3623	0	26352	
3624	0	26160	
3625	0	26084	
3626	0	26212	
3627	0	26320	
3628	0	26388	
3629	0	26480	
3630	0	26552	
3631	0	26600	
3632	0	26776	
3633	0	27008	
3634	0	27268	
3635	0	27496	
3636	0	27714	
3637	0	27944	
3638	0	28124	
3639	0	28276	
3640	0	28384	
3641	0	28432	
3642	0	28460	
3643	0	28436	
3644	0	28412	
3645	0	28424	
3646	0	28452	
3647	0	28444	
3648	0	28400	
3649	0	28360	
3650	0	28356	
3651	0	28392	
3652	0	28414	
3653	0	28436	
3654	0	28504	
3655	0	28536	
3656	0	28576	
3657	0	28604	
3658	0	28612	
3659	0	28608	
3660	0	28618	
3661	0	28626	
3662	0	28628	
3663	0	28640	
3664	0	28720	
3665	0	28796	
3666	0	28882	
3667	0	28956	
3668	0	29008	
3669	0	29032	
3670	0	29048	
3671	0	29076	
3672	0	29128	
3673	0	29200	
3674	0	29224	
3675	0	29208	
3676	0	29224	
3677	0	29220	
3678	0	29284	
3679	0	29364	
3680	0	29432	
3681	0	29512	
3682	0	29644	
3683	0	29736	
3684	0	29792	
3685	0	29860	
3686	0	29912	
3687	0	29956	
3688	0	30056	
3689	0	30106	
3690	0	30082	
3691	0	30100	
3692	0	30082	
3693	0	30112	
3694	0	30220	
3695	0	30312	
3696	0	30348	
3697	0	30384	
3698	0	30452	
3699	0	30504	
3700	0	30528	
3701	0	30506	
3702	0	30532	
3703	0	30592	
3704	0	30636	
3705	0	30696	
3706	0	30748	
3707	0	30784	
3708	0	30792	
3709	0	30816	
3710	0	30880	
3711	0	30956	
3712	0	31020	
3713	0	31056	
3714	0	31108	
3715	0	31156	
3716	0	31192	
3717	0	31252	
3718	0	31296	
3719	0	31342	
3720	0	31384	
3721	0	31464	
3722	0	31536	
3723	0	31580	
3724	0	31660	
3725	0	31732	
3726	0	31784	
3727	0	31840	
3728	0	31888	
3729	0	31936	
3730	0	31996	
3731	0	32024	
3732	0	32064	
3733	0	32082	
3734	0	32048	
3735	0	32028	
3736	0	32044	
3737	0	32096	
3738	0	32196	
3739	0	32288	
3740	0	32360	
3741	0	32440	
3742	0	32500	
3743	0	32556	
3744	0	32624	
3745	0	32672	
3746	0	32744	
3747	0	32820	
3748	0	32880	
3749	0	32920	
3750	0	32996	
3751	0	33056	
3752	0	33128	
3753	0	33178	
3754	0	33256	
3755	0	33312	
3756	0	33344	
3757	0	33360	
3758	0	33400	
3759	0	33412	
3760	0	33440	
3761	0	33464	
3762	0	33512	
3763	0	33580	
3764	0	33680	
3765	0	33784	
3766	0	33904	
3767	0	34000	
3768	0	34112	
3769	0	34196	
3770	0	34248	
3771	0	34336	
3772	0	34380	
3773	0	34396	
3774	0	34468	
3775	0	34556	
3776	0	34644	
3777	0	34732	
3778	0	34788	
3779	0	34836	
3780	0	34908	
3781	0	34964	
3782	0	35032	
3783	0	35093	
3784	0	35184	
3785	0	35232	
3786	0	35276	
3787	0	35356	
3788	0	35470	
3789	0	35544	
3790	0	35592	
3791	0	35672	
3792	0	35696	
3793	0	35732	
3794	0	35828	
3795	0	35900	
3796	0	35952	
3797	0	35996	
3798	0	35976	
3799	0	35996	
3800	0	36048	
3801	0	36072	
3802	0	36128	
3803	0	36180	
3804	0	36264	
3805	0	36272	
3806	0	36212	
3807	0	36212	
3808	0	36236	
3809	0	36236	
3810	0	36220	
3811	0	36200	
3812	0	36232	
3813	0	36276	
3814	0	36284	
3815	0	36254	
3816	0	36248	
3817	0	36212	
3818	0	36152	
3819	0	36136	
3820	0	36144	
3821	0	36084	
3822	0	36004	
3823	0	35920	
3824	0	35824	
3825	0	35792	
3826	0	35804	
3827	0	35832	
3828	0	35864	
3829	0	35884	
3830	0	35860	
3831	0	35796	
3832	0	35668	
3833	0	35512	
3834	0	35400	
3835	0	35352	
3836	0	35316	
3837	0	35272	
3838	0	35224	
3839	0	35160	
3840	0	35096	
3841	0	35056	
3842	0	34964	
3843	0	34840	
3844	0	34704	
3845	0	34564	
3846	0	34424	
3847	0	34316	
3848	0	34200	
3849	0	34084	
3850	0	33960	
3851	0	33866	
3852	0	33736	
3853	0	33568	
3854	0	33416	
3855	0	33312	
3856	0	33184	
3857	0	33040	
3858	0	32844	
3859	0	32592	
3860	0	32400	
3861	0	32248	
3862	0	32120	
3863	0	32022	
3864	0	31932	
3865	0	31828	
3866	0	31708	
3867	0	31604	
3868	0	31504	
3869	0	31424	
3870	0	31320	
3871	0	31212	
3872	0	31120	
3873	0	31056	
3874	0	30986	
3875	0	30908	
3876	0	30860	
3877	0	30768	
3878	0	30672	
3879	0	30628	
3880	0	30584	
3881	0	30472	
3882	0	30352	
3883	0	30232	
3884	0	30136	
3885	0	30080	
3886	0	30028	
3887	0	29964	
3888	0	29952	
3889	0	29920	
3890	0	29884	
3891	0	29872	
3892	0	29876	
3893	0	29880	
3894	0	29844	
3895	0	29820	
3896	0	29804	
3897	0	29812	
3898	0	29764	
3899	0	29760	
3900	0	29720	
3901	0	29708	
3902	0	29696	
3903	0	29660	
3904	0	29622	
3905	0	29592	
3906	0	29604	
3907	0	29658	
3908	0	29688	
3909	0	29712	
3910	0	29752	
3911	0	29800	
3912	0	29804	
3913	0	29784	
3914	0	29740	
3915	0	29730	
3916	0	29764	
3917	0	29772	
3918	0	29824	
3919	0	29896	
3920	0	29976	
3921	0	30036	
3922	0	30032	
3923	0	30008	
3924	0	30008	
3925	0	30000	
3926	0	30024	
3927	0	30058	
3928	0	30112	
3929	0	30160	
3930	0	30236	
3931	0	30324	
3932	0	30368	
3933	0	30388	
3934	0	30410	
3935	0	30432	
3936	0	30476	
3937	0	30528	
3938	0	30560	
3939	0	30592	
3940	0	30660	
3941	0	30734	
3942	0	30764	
3943	0	30752	
3944	0	30760	
3945	0	30784	
3946	0	30860	
3947	0	30880	
3948	0	30912	
3949	0	30956	
3950	0	30992	
3951	0	31020	
3952	0	31080	
3953	0	31124	
3954	0	31200	
3955	0	31240	
3956	0	31240	
3957	0	31208	
3958	0	31224	
3959	0	31252	
3960	0	31288	
3961	0	31384	
3962	0	31440	
3963	0	31464	
3964	0	31456	
3965	0	31448	
3966	0	31488	
3967	0	31517	
3968	0	31508	
3969	0	31496	
3970	0	31508	
3971	0	31548	
3972	0	31580	
3973	0	31568	
3974	0	31592	
3975	0	31612	
3976	0	31664	
3977	0	31724	
3978	0	31732	
3979	0	31756	
3980	0	31800	
3981	0	31820	
3982	0	31848	
3983	0	31888	
3984	0	31956	
3985	0	31988	
3986	0	31980	
3987	0	31948	
3988	0	31920	
3989	0	31892	
3990	0	31840	
3991	0	31832	
3992	0	31816	
3993	0	31784	
3994	0	31848	
3995	0	31920	
3996	0	31920	
3997	0	31914	
3998	0	31924	
3999	0	31984	
4000	0	32020	
4001	0	31984	
4002	0	31980	
4003	0	32020	
4004	0	32096	
4005	0	32152	
4006	0	32176	
4007	0	32184	
4008	0	32184	
4009	0	32192	
4010	0	32160	
4011	0	32130	
4012	0	32128	
4013	0	32160	
4014	0	32160	
4015	0	32168	
4016	0	32156	
4017	0	32180	
4018	0	32220	
4019	0	32240	
4020	0	32250	
4021	0	32276	
4022	0	32256	
4023	0	32240	
4024	0	32236	
4025	0	32264	
4026	0	32260	
4027	0	32244	
4028	0	32252	
4029	0	32280	
4030	0	32272	
4031	0	32252	
4032	0	32264	
4033	0	32272	
4034	0	32276	
4035	0	32254	
4036	0	32240	
4037	0	32242	
4038	0	32216	
4039	0	32228	
4040	0	32248	
4041	0	32292	
4042	0	32320	
4043	0	32284	
4044	0	32224	
4045	0	32180	
4046	0	32148	
4047	0	32080	
4048	0	32068	
4049	0	32072	
4050	0	32072	
4051	0	32110	
4052	0	32136	
4053	0	32144	
4054	0	32156	
4055	0	32180	
4056	0	32216	
4057	0	32224	
4058	0	32228	
4059	0	32228	
4060	0	32220	
4061	0	32216	
4062	0	32212	
4063	0	32252	
4064	0	32228	
4065	0	32176	
4066	0	32224	
4067	0	32256	
4068	0	32236	
4069	0	32264	
4070	0	32260	
4071	0	32256	
4072	0	32252	
4073	0	32252	
4074	0	32284	
4075	0	32308	
4076	0	32332	
4077	0	32328	
4078	0	32296	
4079	0	32228	
4080	0	32228	
4081	0	32228	
4082	0	32216	
4083	0	32220	
4084	0	32224	
4085	0	32220	
4086	0	32220	
4087	0	32184	
4088	0	32146	
4089	0	32156	
4090	0	32164	
4091	0	32164	
4092	0	32156	
4093	0	32156	
4094	0	32156	
4095	0	32156	
4096	0	32160	
4097	0	32178	
4098	0	32192	
4099	0	32192	
4100	0	32172	
4101	0	32164	
4102	0	32156	
4103	0	32138	
4104	0	32132	
4105	0	32192	
4106	0	32272	
4107	0	32280	
4108	0	32272	
4109	0	32288	
4110	0	32304	
4111	0	32290	
4112	0	32224	
4113	0	32192	
4114	0	32168	
4115	0	32156	
4116	0	32140	
4117	0	32168	
4118	0	32188	
4119	0	32250	
4120	0	32320	
4121	0	32388	
4122	0	32410	
4123	0	32376	
4124	0	32328	
4125	0	32338	
4126	0	32436	
4127	0	32544	
4128	0	32666	
4129	0	32786	
4130	0	32884	
4131	0	32932	
4132	0	32996	
4133	0	33060	
4134	0	33156	
4135	0	33268	
4136	0	33412	
4137	0	33532	
4138	0	33664	
4139	0	33680	
4140	0	33600	
4141	0	33512	
4142	0	33392	
4143	0	33360	
4144	0	33352	
4145	0	33288	
4146	0	33264	
4147	0	33260	
4148	0	33288	
4149	0	33320	
4150	0	33406	
4151	0	33476	
4152	0	33540	
4153	0	33648	
4154	0	33844	
4155	0	34084	
4156	0	34308	
4157	0	34512	
4158	0	34664	
4159	0	34764	
4160	0	34820	
4161	0	34912	
4162	0	35014	
4163	0	35112	
4164	0	35188	
4165	0	35216	
4166	0	35204	
4167	0	35168	
4168	0	35144	
4169	0	35054	
4170	0	34904	
4171	0	34812	
4172	0	34730	
4173	0	34552	
4174	0	34376	
4175	0	34224	
4176	0	34120	
4177	0	34056	
4178	0	34012	
4179	0	33908	
4180	0	33776	
4181	0	33672	
4182	0	33536	
4183	0	33370	
4184	0	33264	
4185	0	33212	
4186	0	33150	
4187	0	33076	
4188	0	32984	
4189	0	32832	
4190	0	32714	
4191	0	32660	
4192	0	32608	
4193	0	32514	
4194	0	32404	
4195	0	32308	
4196	0	32240	
4197	0	32168	
4198	0	32100	
4199	0	32036	
4200	0	31920	
4201	0	31760	
4202	0	31632	
4203	0	31520	
4204	0	31428	
4205	0	31320	
4206	0	31204	
4207	0	31128	
4208	0	31112	
4209	0	31116	
4210	0	31096	
4211	0	31088	
4212	0	31092	
4213	0	31064	
4214	0	31104	
4215	0	31164	
4216	0	31200	
4217	0	31216	
4218	0	31240	
4219	0	31290	
4220	0	31320	
4221	0	31288	
4222	0	31240	
4223	0	31258	
4224	0	31236	
4225	0	31236	
4226	0	31232	
4227	0	31240	
4228	0	31268	
4229	0	31310	
4230	0	31372	
4231	0	31406	
4232	0	31404	
4233	0	31460	
4234	0	31412	
4235	0	31396	
4236	0	31464	
4237	0	31568	
4238	0	31588	
4239	0	31616	
4240	0	31676	
4241	0	31712	
4242	0	31704	
4243	0	31720	
4244	0	31800	
4245	0	31772	
4246	0	31620	
4247	0	31448	
4248	0	31164	
4249	0	30760	
4250	0	30224	
4251	0	29528	
4252	0	28912	
4253	0	28520	
4254	0	28276	
4255	0	28226	
4256	0	28332	
4257	0	28626	
4258	0	29144	
4259	0	29920	
4260	0	30944	
4261	0	32108	
4262	0	33544	
4263	0	35208	
4264	0	37032	
4265	0	39124	
4266	0	41640	
4267	0	44504	
4268	0	47824	
4269	0	51596	
4270	0	55380	
4271	0	58936	
4272	0	61844	
4273	0	63428	
4274	0	64252	
4275	0	64620	
4276	0	64780	
4277	0	64812	
4278	0	64768	
4279	0	64688	
4280	0	64584	
4281	0	64464	
4282	0	64352	
4283	0	64216	
4284	0	58008	
4285	0	52280	
4286	0	47540	
4287	0	43612	
4288	0	40400	
4289	0	37680	
4290	0	35220	
4291	0	33126	
4292	0	31356	
4293	0	29952	
4294	0	28858	
4295	0	27920	
4296	0	27144	
4297	0	26592	
4298	0	26220	
4299	0	25996	
4300	0	25924	
4301	0	25980	
4302	0	26050	
4303	0	26124	
4304	0	26200	
4305	0	26320	
4306	0	26540	
4307	0	26806	
4308	0	27120	
4309	0	27460	
4310	0	27760	
4311	0	28008	
4312	0	28224	
4313	0	28448	
4314	0	28636	
4315	0	28732	
4316	0	28824	
4317	0	28852	
4318	0	28856	
4319	0	28854	
4320	0	28872	
4321	0	28864	
4322	0	28864	
4323	0	28796	
4324	0	28712	
4325	0	28660	
4326	0	28668	
4327	0	28708	
4328	0	28776	
4329	0	28816	
4330	0	28840	
4331	0	28890	
4332	0	28928	
4333	0	28992	
4334	0	29044	
4335	0	29064	
4336	0	29088	
4337	0	29116	
4338	0	29122	
4339	0	29160	
4340	0	29188	
4341	0	29202	
4342	0	29192	
4343	0	29210	
4344	0	29268	
4345	0	29288	
4346	0	29368	
4347	0	29456	
4348	0	29496	
4349	0	29568	
4350	0	29628	
4351	0	29656	
4352	0	29692	
4353	0	29748	
4354	0	29804	
4355	0	29834	
4356	0	29892	
4357	0	29928	
4358	0	29976	
4359	0	30048	
4360	0	30112	
4361	0	30132	
4362	0	30144	
4363	0	30178	
4364	0	30224	
4365	0	30264	
4366	0	30244	
4367	0	30280	
4368	0	30340	
4369	0	30440	
4370	0	30560	
4371	0	30676	
4372	0	30728	
4373	0	30812	
4374	0	30876	
4375	0	30888	
4376	0	30888	
4377	0	30896	
4378	0	30948	
4379	0	31028	
4380	0	31068	
4381	0	31108	
4382	0	31128	
4383	0	31120	
4384	0	31128	
4385	0	31164	
4386	0	31256	
4387	0	31336	
4388	0	31376	
4389	0	31392	
4390	0	31384	
4391	0	31416	
4392	0	31496	
4393	0	31564	
4394	0	31600	
4395	0	31624	
4396	0	31640	
4397	0	31676	
4398	0	31746	
4399	0	31810	
4400	0	31860	
4401	0	31904	
4402	0	31920	
4403	0	31952	
4404	0	32000	
4405	0	32060	
4406	0	32112	
4407	0	32160	
4408	0	32228	
4409	0	32296	
4410	0	32384	
4411	0	32480	
4412	0	32548	
4413	0	32628	
4414	0	32672	
4415	0	32712	
4416	0	32720	
4417	0	32752	
4418	0	32824	
4419	0	32896	
4420	0	32964	
4421	0	33000	
4422	0	33024	
4423	0	33092	
4424	0	33100	
4425	0	33120	
4426	0	33168	
4427	0	33212	
4428	0	33248	
4429	0	33296	
4430	0	33372	
4431	0	33424	
4432	0	33476	
4433	0	33548	
4434	0	33642	
4435	0	33688	
4436	0	33720	
4437	0	33768	
4438	0	33866	
4439	0	33940	
4440	0	34008	
4441	0	34086	
4442	0	34188	
4443	0	34272	
4444	0	34324	
4445	0	34340	
4446	0	34360	
4447	0	34452	
4448	0	34540	
4449	0	34600	
4450	0	34700	
4451	0	34792	
4452	0	34872	
4453	0	34912	
4454	0	34950	
4455	0	35024	
4456	0	35112	
4457	0	35176	
4458	0	35264	
4459	0	35332	
4460	0	35384	
4461	0	35468	
4462	0	35520	
4463	0	35564	
4464	0	35604	
4465	0	35656	
4466	0	35720	
4467	0	35760	
4468	0	35820	
4469	0	35928	
4470	0	36016	
4471	0	36064	
4472	0	36114	
4473	0	36172	
4474	0	36216	
4475	0	36256	
4476	0	36276	
4477	0	36280	
4478	0	36300	
4479	0	36284	
4480	0	36268	
4481	0	36244	
4482	0	36216	
4483	0	36236	
4484	0	36264	
4485	0	36284	
4486	0	36272	
4487	0	36268	
4488	0	36256	
4489	0	36218	
4490	0	36180	
4491	0	36192	
4492	0	36208	
4493	0	36196	
4494	0	36216	
4495	0	36176	
4496	0	36152	
4497	0	36128	
4498	0	36056	
4499	0	35984	
4500	0	35904	
4501	0	35844	
4502	0	35792	
4503	0	35736	
4504	0	35724	
4505	0	35732	
4506	0	35716	
4507	0	35704	
4508	0	35690	
4509	0	35680	
4510	0	35672	
4511	0	35688	
4512	0	35620	
4513	0	35532	
4514	0	35468	
4515	0	35392	
4516	0	35316	
4517	0	35248	
4518	0	35144	
4519	0	35052	
4520	0	34968	
4521	0	34864	
4522	0	34744	
4523	0	34620	
4524	0	34496	
4525	0	34364	
4526	0	34256	
4527	0	34124	
4528	0	33992	
4529	0	33868	
4530	0	33728	
4531	0	33568	
4532	0	33400	
4533	0	33244	
4534	0	33088	
4535	0	32972	
4536	0	32888	
4537	0	32744	
4538	0	32592	
4539	0	32440	
4540	0	32288	
4541	0	32168	
4542	0	32044	
4543	0	31880	
4544	0	31760	
4545	0	31664	
4546	0	31584	
4547	0	31492	
4548	0	31372	
4549	0	31296	
4550	0	31220	
4551	0	31124	
4552	0	31036	
4553	0	30976	
4554	0	30920	
4555	0	30836	
4556	0	30680	
4557	0	30576	
4558	0	30496	
4559	0	30424	
4560	0	30352	
4561	0	30296	
4562	0	30220	
4563	0	30128	
4564	0	30068	
4565	0	30032	
4566	0	29972	
4567	0	29876	
4568	0	29800	
4569	0	29728	
4570	0	29694	
4571	0	29680	
4572	0	29688	
4573	0	29720	
4574	0	29740	
4575	0	29756	
4576	0	29780	
4577	0	29796	
4578	0	29808	
4579	0	29792	
4580	0	29784	
4581	0	29764	
4582	0	29740	
4583	0	29728	
4584	0	29732	
4585	0	29760	
4586	0	29760	
4587	0	29788	
4588	0	29820	
4589	0	29824	
4590	0	29868	
4591	0	29936	
4592	0	29984	
4593	0	30032	
4594	0	30072	
4595	0	30092	
4596	0	30144	
4597	0	30192	
4598	0	30184	
4599	0	30160	
4600	0	30112	
4601	0	30104	
4602	0	30144	
4603	0	30192	
4604	0	30236	
4605	0	30228	
4606	0	30248	
4607	0	30320	
4608	0	30400	
4609	0	30456	
4610	0	30472	
4611	0	30478	
4612	0	30504	
4613	0	30562	
4614	0	30616	
4615	0	30696	
4616	0	30736	
4617	0	30752	
4618	0	30780	
4619	0	30816	
4620	0	30840	
4621	0	30828	
4622	0	30840	
4623	0	30878	
4624	0	30910	
4625	0	30944	
4626	0	30992	
4627	0	31036	
4628	0	31108	
4629	0	31128	
4630	0	31188	
4631	0	31272	
4632	0	31308	
4633	0	31324	
4634	0	31328	
4635	0	31340	
4636	0	31352	
4637	0	31380	
4638	0	31404	
4639	0	31400	
4640	0	31444	
4641	0	31472	
4642	0	31520	
4643	0	31588	
4644	0	31584	
4645	0	31588	
4646	0	31556	
4647	0	31532	
4648	0	31584	
4649	0	31648	
4650	0	31670	
4651	0	31652	
4652	0	31672	
4653	0	31704	
4654	0	31748	
4655	0	31794	
4656	0	31832	
4657	0	31864	
4658	0	31906	
4659	0	31898	
4660	0	31864	
4661	0	31880	
4662	0	31924	
4663	0	31984	
4664	0	32008	
4665	0	32012	
4666	0	32032	
4667	0	32044	
4668	0	31996	
4669	0	31988	
4670	0	32012	
4671	0	32040	
4672	0	32064	
4673	0	32092	
4674	0	32076	
4675	0	32064	
4676	0	32100	
4677	0	32124	
4678	0	32136	
4679	0	32064	
4680	0	31968	
4681	0	31956	
4682	0	32020	
4683	0	32084	
4684	0	32124	
4685	0	32168	
4686	0	32188	
4687	0	32204	
4688	0	32192	
4689	0	32168	
4690	0	32128	
4691	0	32096	
4692	0	32064	
4693	0	32018	
4694	0	32008	
4695	0	32048	
4696	0	32124	
4697	0	32200	
4698	0	32268	
4699	0	32240	
4700	0	32212	
4701	0	32184	
4702	0	32160	
4703	0	32188	
4704	0	32184	
4705	0	32172	
4706	0	32160	
4707	0	32128	
4708	0	32092	
4709	0	32064	
4710	0	32072	
4711	0	32100	
4712	0	32124	
4713	0	32164	
4714	0	32136	
4715	0	32100	
4716	0	32068	
4717	0	32048	
4718	0	32080	
4719	0	32072	
4720	0	32064	
4721	0	32064	
4722	0	32080	
4723	0	32096	
4724	0	32112	
4725	0	32096	
4726	0	32100	
4727	0	32132	
4728	0	32128	
4729	0	32100	
4730	0	32080	
4731	0	32064	
4732	0	32048	
4733	0	32040	
4734	0	32052	
4735	0	32096	
4736	0	32136	
4737	0	32096	
4738	0	32016	
4739	0	31968	
4740	0	32008	
4741	0	32056	
4742	0	32072	
4743	0	32060	
4744	0	32028	
4745	0	32004	
4746	0	32048	
4747	0	32060	
4748	0	32052	
4749	0	32016	
4750	0	31968	
4751	0	31950	
4752	0	31936	
4753	0	31952	
4754	0	31988	
4755	0	32012	
4756	0	31998	
4757	0	31972	
4758	0	31938	
4759	0	31964	
4760	0	31996	
4761	0	32036	
4762	0	32032	
4763	0	32016	
4764	0	32008	
4765	0	32048	
4766	0	32000	
4767	0	31984	
4768	0	31944	
4769	0	31888	
4770	0	31936	
4771	0	31988	
4772	0	32020	
4773	0	31978	
4774	0	31972	
4775	0	31952	
4776	0	31928	
4777	0	31952	
4778	0	31992	
4779	0	32016	
4780	0	32084	
4781	0	32096	
4782	0	32016	
4783	0	31906	
4784	0	31876	
4785	0	31912	
4786	0	31996	
4787	0	32029	
4788	0	32024	
4789	0	32072	
4790	0	32064	
4791	0	31992	
4792	0	31924	
4793	0	31920	
4794	0	31912	
4795	0	31904	
4796	0	31936	
4797	0	31934	
4798	0	31928	
4799	0	31940	
4800	0	31960	
4801	0	31940	
4802	0	31964	
4803	0	32060	
4804	0	32128	
4805	0	32120	
4806	0	32068	
4807	0	32060	
4808	0	32076	
4809	0	32064	
4810	0	32066	
4811	0	32112	
4812	0	32114	
4813	0	32124	
4814	0	32128	
4815	0	32140	
4816	0	32101	
4817	0	32116	
4818	0	32144	
4819	0	32192	
4820	0	32216	
4821	0	32216	
4822	0	32204	
4823	0	32192	
4824	0	32216	
4825	0	32206	
4826	0	32170	
4827	0	32144	
4828	0	32144	
4829	0	32168	
4830	0	32172	
4831	0	32160	
4832	0	32160	
4833	0	32172	
4834	0	32160	
4835	0	32180	
4836	0	32216	
4837	0	32236	
4838	0	32228	
4839	0	32228	
4840	0	32224	
4841	0	32216	
4842	0	32264	
4843	0	32320	
4844	0	32394	
4845	0	32440	
4846	0	32480	
4847	0	32484	
4848	0	32460	
4849	0	32432	
4850	0	32440	
4851	0	32432	
4852	0	32392	
4853	0	32340	
4854	0	32332	
4855	0	32364	
4856	0	32412	
4857	0	32468	
4858	0	32468	
4859	0	32448	
4860	0	32444	
4861	0	32432	
4862	0	32424	
4863	0	32428	
4864	0	32420	
4865	0	32384	
4866	0	32344	
4867	0	32360	
4868	0	32364	
4869	0	32400	
4870	0	32458	
4871	0	32484	
4872	0	32448	
4873	0	32408	
4874	0	32440	
4875	0	32476	
4876	0	32488	
4877	0	32504	
4878	0	32556	
4879	0	32538	
4880	0	32508	
4881	0	32484	
4882	0	32448	
4883	0	32488	
4884	0	32540	
4885	0	32564	
4886	0	32536	
4887	0	32496	
4888	0	32488	
4889	0	32540	
4890	0	32562	
4891	0	32568	
4892	0	32556	
4893	0	32544	
4894	0	32580	
4895	0	32608	
4896	0	32616	
4897	0	32598	
4898	0	32640	
4899	0	32628	
4900	0	32600	
4901	0	32620	
4902	0	32604	
4903	0	32556	
4904	0	32604	
4905	0	32648	
4906	0	32684	
4907	0	32716	
4908	0	32752	
4909	0	32748	
4910	0	32704	
4911	0	32648	
4912	0	32616	
4913	0	32616	
4914	0	32644	
4915	0	32664	
4916	0	32656	
4917	0	32684	
4918	0	32704	
4919	0	32698	
4920	0	32708	
4921	0	32716	
4922	0	32728	
4923	0	32752	
4924	0	32760	
4925	0	32760	
4926	0	32744	
4927	0	32700	
4928	0	32668	
4929	0	32676	
4930	0	32672	
4931	0	32652	
4932	0	32672	
4933	0	32736	
4934	0	32784	
4935	0	32832	
4936	0	32880	
4937	0	32916	
4938	0	32984	
4939	0	33128	
4940	0	33264	
4941	0	33364	
4942	0	33432	
4943	0	33496	
4944	0	33624	
4945	0	33684	
4946	0	33724	
4947	0	33746	
4948	0	33740	
4949	0	33716	
4950	0	33784	
4951	0	33792	
4952	0	33776	
4953	0	33768	
4954	0	33740	
4955	0	33720	
4956	0	33680	
4957	0	33668	
4958	0	33704	
4959	0	33688	
4960	0	33676	
4961	0	33722	
4962	0	33804	
4963	0	33860	
4964	0	33900	
4965	0	34000	
4966	0	34200	
4967	0	34448	
4968	0	34660	
4969	0	34820	
4970	0	34968	
4971	0	35120	
4972	0	35276	
4973	0	35408	
4974	0	35552	
4975	0	35672	
4976	0	35716	
4977	0	35676	
4978	0	35628	
4979	0	35546	
4980	0	35484	
4981	0	35448	
4982	0	35420	
4983	0	35356	
4984	0	35264	
4985	0	35092	
4986	0	34928	
4987	0	34772	
4988	0	34572	
4989	0	34400	
4990	0	34260	
4991	0	34106	
4992	0	33976	
4993	0	33856	
4994	0	33740	
4995	0	33640	
4996	0	33584	
4997	0	33532	
4998	0	33496	
4999	0	33448	
5000	0	33396	
5001	0	33344	
5002	0	33288	
5003	0	33228	
5004	0	33128	
5005	0	33018	
5006	0	32884	
5007	0	32732	
5008	0	32672	
5009	0	32636	
5010	0	32612	
5011	0	32540	
5012	0	32440	
5013	0	32312	
5014	0	32182	
5015	0	31968	
5016	0	31860	
5017	0	31800	
5018	0	31720	
5019	0	31696	
5020	0	31684	
5021	0	31712	
5022	0	31704	
5023	0	31654	
5024	0	31632	
5025	0	31660	
5026	0	31720	
5027	0	31740	
5028	0	31748	
5029	0	31740	
5030	0	31744	
5031	0	31722	
5032	0	31716	
5033	0	31708	
5034	0	31744	
5035	0	31804	
5036	0	31868	
5037	0	31908	
5038	0	31936	
5039	0	31936	
5040	0	31940	
5041	0	31900	
5042	0	31844	
5043	0	31824	
5044	0	31856	
5045	0	31924	
5046	0	31968	
5047	0	32040	
5048	0	32096	
5049	0	32124	
5050	0	32140	
5051	0	32136	
5052	0	32136	
5053	0	32160	
5054	0	32132	
5055	0	32064	
5056	0	31956	
5057	0	31780	
5058	0	31548	
5059	0	31156	
5060	0	30592	
5061	0	29896	
5062	0	29190	
5063	0	28716	
5064	0	28492	
5065	0	28434	
5066	0	28520	
5067	0	28856	
5068	0	29404	
5069	0	30222	
5070	0	31192	
5071	0	32316	
5072	0	33652	
5073	0	35192	
5074	0	36912	
5075	0	38872	
5076	0	41212	
5077	0	43892	
5078	0	47016	
5079	0	50736	
5080	0	54556	
5081	0	58176	
5082	0	61312	
5083	0	63056	
5084	0	63968	
5085	0	64392	
5086	0	64600	
5087	0	64624	
5088	0	64576	
5089	0	64512	
5090	0	64408	
5091	0	64320	
5092	0	64180	
5093	0	64084	
5094	0	59104	
5095	0	53336	
5096	0	48660	
5097	0	44848	
5098	0	41704	
5099	0	39072	
5100	0	36820	
5101	0	34784	
5102	0	32980	
5103	0	31348	
5104	0	29972	
5105	0	28832	
5106	0	27946	
5107	0	27284	
5108	0	26864	
5109	0	26592	
5110	0	26480	
5111	0	26444	
5112	0	26400	
5113	0	26364	
5114	0	26392	
5115	0	26496	
5116	0	26670	
5117	0	26884	
5118	0	27132	
5119	0	27420	
5120	0	27752	
5121	0	28052	
5122	0	28308	
5123	0	28520	
5124	0	28728	
5125	0	28888	
5126	0	29042	
5127	0	29136	
5128	0	29122	
5129	0	29084	
5130	0	28984	
5131	0	28908	
5132	0	28848	
5133	0	28804	
5134	0	28820	
5135	0	28844	
5136	0	28824	
5137	0	28820	
5138	0	28852	
5139	0	28856	
5140	0	28832	
5141	0	28888	
5142	0	28948	
5143	0	29016	
5144	0	29064	
5145	0	29136	
5146	0	29216	
5147	0	29244	
5148	0	29250	
5149	0	29232	
5150	0	29244	
5151	0	29306	
5152	0	29360	
5153	0	29424	
5154	0	29436	
5155	0	29444	
5156	0	29504	
5157	0	29516	
5158	0	29552	
5159	0	29580	
5160	0	29632	
5161	0	29688	
5162	0	29728	
5163	0	29784	
5164	0	29836	
5165	0	29896	
5166	0	29936	
5167	0	29972	
5168	0	30016	
5169	0	30064	
5170	0	30088	
5171	0	30124	
5172	0	30176	
5173	0	30268	
5174	0	30360	
5175	0	30412	
5176	0	30468	
5177	0	30480	
5178	0	30480	
5179	0	30462	
5180	0	30476	
5181	0	30516	
5182	0	30592	
5183	0	30668	
5184	0	30696	
5185	0	30716	
5186	0	30804	
5187	0	30884	
5188	0	30928	
5189	0	30926	
5190	0	30928	
5191	0	30960	
5192	0	31044	
5193	0	31124	
5194	0	31154	
5195	0	31188	
5196	0	31236	
5197	0	31264	
5198	0	31316	
5199	0	31328	
5200	0	31348	
5201	0	31396	
5202	0	31426	
5203	0	31464	
5204	0	31544	
5205	0	31616	
5206	0	31688	
5207	0	31752	
5208	0	31800	
5209	0	31832	
5210	0	31856	
5211	0	31872	
5212	0	31940	
5213	0	32040	
5214	0	32088	
5215	0	32092	
5216	0	32032	
5217	0	31996	
5218	0	32036	
5219	0	32120	
5220	0	32196	
5221	0	32264	
5222	0	32320	
5223	0	32360	
5224	0	32416	
5225	0	32436	
5226	0	32476	
5227	0	32560	
5228	0	32636	
5229	0	32716	
5230	0	32780	
5231	0	32816	
5232	0	32856	
5233	0	32920	
5234	0	32968	
5235	0	32992	
5236	0	33040	
5237	0	33120	
5238	0	33176	
5239	0	33252	
5240	0	33332	
5241	0	33408	
5242	0	33448	
5243	0	33504	
5244	0	33572	
5245	0	33680	
5246	0	33732	
5247	0	33720	
5248	0	33696	
5249	0	33744	
5250	0	33828	
5251	0	33892	
5252	0	33964	
5253	0	34024	
5254	0	34112	
5255	0	34208	
5256	0	34280	
5257	0	34324	
5258	0	34392	
5259	0	34460	
5260	0	34484	
5261	0	34520	
5262	0	34544	
5263	0	34576	
5264	0	34632	
5265	0	34704	
5266	0	34772	
5267	0	34844	
5268	0	34912	
5269	0	34996	
5270	0	35056	
5271	0	35124	
5272	0	35212	
5273	0	35288	
5274	0	35328	
5275	0	35344	
5276	0	35360	
5277	0	35384	
5278	0	35416	
5279	0	35428	
5280	0	35436	
5281	0	35504	
5282	0	35548	
5283	0	35628	
5284	0	35668	
5285	0	35648	
5286	0	35682	
5287	0	35724	
5288	0	35760	
5289	0	35804	
5290	0	35820	
5291	0	35832	
5292	0	35820	
5293	0	35804	
5294	0	35812	
5295	0	35840	
5296	0	35864	
5297	0	35884	
5298	0	35876	
5299	0	35848	
5300	0	35816	
5301	0	35824	
5302	0	35812	
5303	0	35832	
5304	0	35864	
5305	0	35860	
5306	0	35856	
5307	0	35800	
5308	0	35756	
5309	0	35728	
5310	0	35684	
5311	0	35632	
5312	0	35644	
5313	0	35616	
5314	0	35544	
5315	0	35496	
5316	0	35444	
5317	0	35380	
5318	0	35332	
5319	0	35324	
5320	0	35296	
5321	0	35264	
5322	0	35234	
5323	0	35200	
5324	0	35176	
5325	0	35096	
5326	0	35002	
5327	0	34960	
5328	0	34924	
5329	0	34908	
5330	0	34836	
5331	0	34784	
5332	0	34720	
5333	0	34640	
5334	0	34552	
5335	0	34496	
5336	0	34468	
5337	0	34376	
5338	0	34274	
5339	0	34196	
5340	0	34076	
5341	0	33864	
5342	0	33706	
5343	0	33600	
5344	0	33496	
5345	0	33372	
5346	0	33248	
5347	0	33148	
5348	0	33040	
5349	0	32932	
5350	0	32800	
5351	0	32680	
5352	0	32544	
5353	0	32420	
5354	0	32280	
5355	0	32164	
5356	0	32080	
5357	0	31992	
5358	0	31944	
5359	0	31884	
5360	0	31760	
5361	0	31624	
5362	0	31488	
5363	0	31352	
5364	0	31232	
5365	0	31132	
5366	0	31040	
5367	0	30948	
5368	0	30876	
5369	0	30816	
5370	0	30716	
5371	0	30644	
5372	0	30572	
5373	0	30500	
5374	0	30436	
5375	0	30428	
5376	0	30436	
5377	0	30396	
5378	0	30280	
5379	0	30168	
5380	0	30096	
5381	0	30072	
5382	0	30028	
5383	0	29976	
5384	0	29940	
5385	0	29948	
5386	0	29952	
5387	0	29920	
5388	0	29896	
5389	0	29892	
5390	0	29872	
5391	0	29832	
5392	0	29824	
5393	0	29828	
5394	0	29844	
5395	0	29872	
5396	0	29880	
5397	0	29884	
5398	0	29856	
5399	0	29848	
5400	0	29848	
5401	0	29900	
5402	0	29928	
5403	0	29954	
5404	0	29972	
5405	0	30016	
5406	0	30088	
5407	0	30112	
5408	0	30064	
5409	0	30058	
5410	0	30092	
5411	0	30146	
5412	0	30200	
5413	0	30252	
5414	0	30248	
5415	0	30276	
5416	0	30340	
5417	0	30392	
5418	0	30424	
5419	0	30488	
5420	0	30540	
5421	0	30532	
5422	0	30556	
5423	0	30618	
5424	0	30712	
5425	0	30744	
5426	0	30772	
5427	0	30820	
5428	0	30832	
5429	0	30780	
5430	0	30748	
5431	0	30758	
5432	0	30804	
5433	0	30848	
5434	0	30892	
5435	0	30938	
5436	0	30988	
5437	0	31016	
5438	0	31008	
5439	0	31052	
5440	0	31120	
5441	0	31192	
5442	0	31252	
5443	0	31324	
5444	0	31330	
5445	0	31316	
5446	0	31328	
5447	0	31320	
5448	0	31328	
5449	0	31384	
5450	0	31432	
5451	0	31484	
5452	0	31492	
5453	0	31504	
5454	0	31528	
5455	0	31552	
5456	0	31584	
5457	0	31584	
5458	0	31608	
5459	0	31652	
5460	0	31672	
5461	0	31652	
5462	0	31612	
5463	0	31592	
5464	0	31644	
5465	0	31672	
5466	0	31700	
5467	0	31704	
5468	0	31720	
5469	0	31780	
5470	0	31852	
5471	0	31880	
5472	0	31888	
5473	0	31936	
5474	0	31924	
5475	0	31862	
5476	0	31784	
5477	0	31756	
5478	0	31776	
5479	0	31798	
5480	0	31816	
5481	0	31852	
5482	0	31860	
5483	0	31868	
5484	0	31840	
5485	0	31838	
5486	0	31856	
5487	0	31884	
5488	0	31876	
5489	0	31876	
5490	0	31904	
5491	0	31924	
5492	0	31912	
5493	0	31900	
5494	0	31908	
5495	0	31922	
5496	0	31924	
5497	0	31972	
5498	0	32016	
5499	0	32012	
5500	0	32012	
5501	0	32020	
5502	0	32064	
5503	0	32092	
5504	0	32092	
5505	0	32120	
5506	0	32104	
5507	0	32068	
5508	0	32044	
5509	0	32016	
5510	0	31972	
5511	0	31928	
5512	0	31874	
5513	0	31872	
5514	0	31960	
5515	0	32004	
5516	0	32032	
5517	0	32056	
5518	0	32040	
5519	0	32022	
5520	0	32004	
5521	0	31964	
5522	0	31928	
5523	0	31888	
5524	0	31872	
5525	0	31888	
5526	0	31916	
5527	0	32000	
5528	0	32100	
5529	0	32128	
5530	0	32120	
5531	0	32034	
5532	0	31920	
5533	0	31916	
5534	0	31940	
5535	0	31924	
5536	0	31904	
5537	0	31912	
5538	0	31896	
5539	0	31876	
5540	0	31876	
5541	0	31884	
5542	0	31920	
5543	0	31912	
5544	0	31896	
5545	0	31860	
5546	0	31832	
5547	0	31840	
5548	0	31848	
5549	0	31856	
5550	0	31848	
5551	0	31852	
5552	0	31900	
5553	0	31996	
5554	0	32020	
5555	0	31984	
5556	0	31904	
5557	0	31904	
5558	0	31856	
5559	0	31800	
5560	0	31784	
5561	0	31796	
5562	0	31796	
5563	0	31786	
5564	0	31788	
5565	0	31840	
5566	0	31876	
5567	0	31848	
5568	0	31808	
5569	0	31820	
5570	0	31800	
5571	0	31768	
5572	0	31760	
5573	0	31776	
5574	0	31792	
5575	0	31820	
5576	0	31856	
5577	0	31900	
5578	0	31928	
5579	0	31932	
5580	0	31904	
5581	0	31872	
5582	0	31880	
5583	0	31884	
5584	0	31920	
5585	0	31940	
5586	0	31936	
5587	0	31908	
5588	0	31872	
5589	0	31864	
5590	0	31912	
5591	0	31944	
5592	0	31928	
5593	0	31896	
5594	0	31888	
5595	0	31824	
5596	0	31778	
5597	0	31808	
5598	0	31840	
5599	0	31880	
5600	0	31888	
5601	0	31904	
5602	0	31920	
5603	0	31952	
5604	0	31954	
5605	0	31956	
5606	0	31924	
5607	0	31920	
5608	0	31956	
5609	0	31984	
5610	0	32026	
5611	0	32028	
5612	0	32020	
5613	0	32026	
5614	0	32016	
5615	0	32032	
5616	0	32032	
5617	0	32000	
5618	0	31956	
5619	0	31940	
5620	0	31950	
5621	0	32020	
5622	0	32048	
5623	0	32076	
5624	0	32076	
5625	0	32076	
5626	0	32088	
5627	0	32056	
5628	0	32046	
5629	0	32028	
5630	0	32040	
5631	0	32044	
5632	0	32018	
5633	0	32056	
5634	0	32128	
5635	0	32144	
5636	0	32060	
5637	0	31956	
5638	0	31924	
5639	0	31988	
5640	0	32032	
5641	0	32052	
5642	0	32112	
5643	0	32112	
5644	0	32104	
5645	0	32120	
5646	0	32152	
5647	0	32172	
5648	0	32212	
5649	0	32204	
5650	0	32166	
5651	0	32130	
5652	0	32126	
5653	0	32148	
5654	0	32176	
5655	0	32216	
5656	0	32240	
5657	0	32232	
5658	0	32244	
5659	0	32264	
5660	0	32304	
5661	0	32320	
5662	0	32336	
5663	0	32382	
5664	0	32416	
5665	0	32432	
5666	0	32416	
5667	0	32400	
5668	0	32400	
5669	0	32440	
5670	0	32456	
5671	0	32444	
5672	0	32404	
5673	0	32364	
5674	0	32346	
5675	0	32328	
5676	0	32368	
5677	0	32384	
5678	0	32440	
5679	0	32428	
5680	0	32448	
5681	0	32484	
5682	0	32410	
5683	0	32400	
5684	0	32324	
5685	0	32356	
5686	0	32384	
5687	0	32380	
5688	0	32312	
5689	0	32288	
5690	0	32258	
5691	0	32240	
5692	0	32264	
5693	0	32312	
5694	0	32384	
5695	0	32396	
5696	0	32416	
5697	0	32420	
5698	0	32424	
5699	0	32376	
5700	0	32384	
5701	0	32408	
5702	0	32424	
5703	0	32432	
5704	0	32448	
5705	0	32448	
5706	0	32474	
5707	0	32532	
5708	0	32556	
5709	0	32564	
5710	0	32560	
5711	0	32544	
5712	0	32568	
5713	0	32620	
5714	0	32648	
5715	0	32660	
5716	0	32692	
5717	0	32682	
5718	0	32672	
5719	0	32612	
5720	0	32568	
5721	0	32576	
5722	0	32568	
5723	0	32576	
5724	0	32620	
5725	0	32562	
5726	0	32494	
5727	0	32484	
5728	0	32480	
5729	0	32508	
5730	0	32572	
5731	0	32586	
5732	0	32572	
5733	0	32576	
5734	0	32596	
5735	0	32588	
5736	0	32608	
5737	0	32610	
5738	0	32624	
5739	0	32642	
5740	0	32724	
5741	0	32728	
5742	0	32736	
5743	0	32736	
5744	0	32708	
5745	0	32656	
5746	0	32644	
5747	0	32664	
5748	0	32716	
5749	0	32748	
5750	0	32768	
5751	0	32764	
5752	0	32756	
5753	0	32772	
5754	0	32800	
5755	0	32888	
5756	0	32944	
5757	0	32984	
5758	0	33012	
5759	0	32984	
5760	0	32916	
5761	0	32844	
5762	0	32820	
5763	0	32856	
5764	0	32840	
5765	0	32808	
5766	0	32816	
5767	0	32816	
5768	0	32856	
5769	0	32868	
5770	0	32876	
5771	0	32896	
5772	0	32912	
5773	0	32952	
5774	0	32952	
5775	0	32892	
5776	0	32856	
5777	0	32836	
5778	0	32832	
5779	0	32804	
5780	0	32784	
5781	0	32804	
5782	0	32792	
5783	0	32776	
5784	0	32808	
5785	0	32892	
5786	0	32924	
5787	0	32960	
5788	0	32952	
5789	0	32916	
5790	0	32952	
5791	0	32988	
5792	0	33040	
5793	0	33048	
5794	0	33014	
5795	0	33008	
5796	0	33048	
5797	0	33028	
5798	0	32984	
5799	0	32960	
5800	0	32916	
5801	0	32888	
5802	0	32840	
5803	0	32784	
5804	0	32796	
5805	0	32844	
5806	0	32932	
5807	0	33032	
5808	0	33136	
5809	0	33184	
5810	0	33210	
5811	0	33216	
5812	0	33184	
5813	0	33120	
5814	0	33112	
5815	0	33128	
5816	0	33204	
5817	0	33248	
5818	0	33272	
5819	0	33312	
5820	0	33384	
5821	0	33448	
5822	0	33504	
5823	0	33562	
5824	0	33600	
5825	0	33644	
5826	0	33704	
5827	0	33732	
5828	0	33792	
5829	0	33792	
5830	0	33776	
5831	0	33764	
5832	0	33800	
5833	0	33798	
5834	0	33740	
5835	0	33640	
5836	0	33560	
5837	0	33540	
5838	0	33572	
5839	0	33576	
5840	0	33518	
5841	0	33532	
5842	0	33652	
5843	0	33720	
5844	0	33808	
5845	0	33988	
5846	0	34164	
5847	0	34444	
5848	0	34744	
5849	0	35076	
5850	0	35360	
5851	0	35520	
5852	0	35652	
5853	0	35776	
5854	0	35880	
5855	0	36044	
5856	0	36200	
5857	0	36264	
5858	0	36224	
5859	0	36132	
5860	0	35980	
5861	0	35856	
5862	0	35712	
5863	0	35572	
5864	0	35468	
5865	0	35335	
5866	0	35152	
5867	0	34940	
5868	0	34756	
5869	0	34608	
5870	0	34484	
5871	0	34388	
5872	0	34284	
5873	0	34156	
5874	0	34018	
5875	0	33856	
5876	0	33772	
5877	0	33728	
5878	0	33704	
5879	0	33648	
5880	0	33568	
5881	0	33466	
5882	0	33452	
5883	0	33504	
5884	0	33460	
5885	0	33336	
5886	0	33250	
5887	0	33156	
5888	0	33086	
5889	0	33040	
5890	0	32924	
5891	0	32824	
5892	0	32708	
5893	0	32568	
5894	0	32412	
5895	0	32280	
5896	0	32186	
5897	0	32128	
5898	0	32032	
5899	0	32008	
5900	0	32010	
5901	0	31992	
5902	0	31988	
5903	0	31976	
5904	0	31980	
5905	0	31980	
5906	0	31920	
5907	0	31916	
5908	0	31920	
5909	0	31928	
5910	0	31928	
5911	0	31972	
5912	0	31928	
5913	0	31888	
5914	0	31920	
5915	0	31988	
5916	0	32088	
5917	0	32176	
5918	0	32256	
5919	0	32300	
5920	0	32320	
5921	0	32332	
5922	0	32352	
5923	0	32348	
5924	0	32400	
5925	0	32440	
5926	0	32428	
5927	0	32368	
5928	0	32364	
5929	0	32392	
5930	0	32380	
5931	0	32424	
5932	0	32516	
5933	0	32540	
5934	0	32476	
5935	0	32344	
5936	0	32288	
5937	0	32200	
5938	0	31960	
5939	0	31552	
5940	0	31000	
5941	0	30332	
5942	0	29608	
5943	0	29108	
5944	0	28832	
5945	0	28740	
5946	0	28792	
5947	0	29064	
5948	0	29612	
5949	0	30456	
5950	0	31464	
5951	0	32488	
5952	0	33684	
5953	0	35084	
5954	0	36660	
5955	0	38472	
5956	0	40672	
5957	0	43320	
5958	0	46420	
5959	0	49928	
5960	0	53512	
5961	0	57024	
5962	0	60352	
5963	0	62448	
5964	0	63540	
5965	0	64096	
5966	0	64316	
5967	0	64388	
5968	0	64368	
5969	0	64320	
5970	0	64216	
5971	0	64116	
5972	0	64004	
5973	0	61488	
5974	0	55120	
5975	0	49488	
5976	0	44792	
5977	0	41000	
5978	0	37946	
5979	0	35536	
5980	0	33593	
5981	0	31936	
5982	0	30552	
5983	0	29292	
5984	0	28044	
5985	0	26944	
5986	0	26152	
5987	0	25728	
5988	0	25456	
5989	0	25296	
5990	0	25356	
5991	0	25460	
5992	0	25420	
5993	0	25326	
5994	0	25376	
5995	0	25536	
5996	0	25808	
5997	0	26160	
5998	0	26556	
5999	0	27000	
6000	0	27400	
6001	0	27764	
6002	0	28176	
6003	0	28596	
6004	0	28912	
6005	0	29160	
6006	0	29306	
6007	0	29408	
6008	0	29490	
6009	0	29520	
6010	0	29520	
6011	0	29512	
6012	0	29524	
6013	0	29500	
6014	0	29480	
6015	0	29440	
6016	0	29472	
6017	0	29512	
6018	0	29538	
6019	0	29652	
6020	0	29728	
6021	0	29760	
6022	0	29792	
6023	0	29864	
6024	0	29908	
6025	0	29972	
6026	0	30024	
6027	0	30068	
6028	0	30124	
6029	0	30128	
6030	0	30148	
6031	0	30184	
6032	0	30228	
6033	0	30248	
6034	0	30252	
6035	0	30256	
6036	0	30288	
6037	0	30296	
6038	0	30280	
6039	0	30250	
6040	0	30340	
6041	0	30432	
6042	0	30482	
6043	0	30512	
6044	0	30552	
6045	0	30604	
6046	0	30628	
6047	0	30660	
6048	0	30696	
6049	0	30784	
6050	0	30880	
6051	0	30948	
6052	0	31016	
6053	0	31040	
6054	0	31092	
6055	0	31152	
6056	0	31212	
6057	0	31236	
6058	0	31306	
6059	0	31388	
6060	0	31472	
6061	0	31492	
6062	0	31456	
6063	0	31440	
6064	0	31472	
6065	0	31588	
6066	0	31638	
6067	0	31592	
6068	0	31596	
6069	0	31600	
6070	0	31586	
6071	0	31540	
6072	0	31528	
6073	0	31608	
6074	0	31704	
6075	0	31788	
6076	0	31900	
6077	0	31984	
6078	0	32024	
6079	0	32052	
6080	0	32036	
6081	0	32104	
6082	0	32236	
6083	0	32352	
6084	0	32420	
6085	0	32448	
6086	0	32484	
6087	0	32548	
6088	0	32592	
6089	0	32652	
6090	0	32716	
6091	0	32752	
6092	0	32748	
6093	0	32772	
6094	0	32808	
6095	0	32852	
6096	0	32828	
6097	0	32812	
6098	0	32832	
6099	0	32916	
6100	0	32988	
6101	0	33028	
6102	0	32944	
6103	0	32880	
6104	0	32912	
6105	0	32976	
6106	0	32970	
6107	0	32968	
6108	0	33064	
6109	0	33196	
6110	0	33272	
6111	0	33304	
6112	0	33352	
6113	0	33420	
6114	0	33516	
6115	0	33608	
6116	0	33692	
6117	0	33784	
6118	0	33864	
6119	0	33920	
6120	0	33968	
6121	0	34040	
6122	0	34138	
6123	0	34228	
6124	0	34344	
6125	0	34418	
6126	0	34476	
6127	0	34504	
6128	0	34478	
6129	0	34480	
6130	0	34512	
6131	0	34590	
6132	0	34624	
6133	0	34656	
6134	0	34752	
6135	0	34828	
6136	0	34882	
6137	0	34932	
6138	0	34996	
6139	0	35068	
6140	0	35140	
6141	0	35240	
6142	0	35268	
6143	0	35296	
6144	0	35364	
6145	0	35432	
6146	0	35488	
6147	0	35576	
6148	0	35668	
6149	0	35688	
6150	0	35688	
6151	0	35768	
6152	0	35864	
6153	0	35960	
6154	0	36008	
6155	0	36064	
6156	0	36156	
6157	0	36172	
6158	0	36224	
6159	0	36304	
6160	0	36316	
6161	0	36376	
6162	0	36460	
6163	0	36576	
6164	0	36684	
6165	0	36780	
6166	0	36856	
6167	0	36896	
6168	0	36928	
6169	0	36920	
6170	0	36916	
6171	0	36984	
6172	0	36976	
6173	0	36948	
6174	0	36972	
6175	0	36964	
6176	0	36972	
6177	0	36888	
6178	0	36784	
6179	0	36700	
6180	0	36664	
6181	0	36648	
6182	0	36552	
6183	0	36480	
6184	0	36472	
6185	0	36528	
6186	0	36600	
6187	0	36656	
6188	0	36740	
6189	0	36816	
6190	0	36852	
6191	0	36896	
6192	0	36872	
6193	0	36820	
6194	0	36668	
6195	0	36592	
6196	0	36520	
6197	0	36432	
6198	0	36364	
6199	0	36280	
6200	0	36164	
6201	0	36044	
6202	0	35964	
6203	0	35980	
6204	0	35992	
6205	0	35964	
6206	0	35968	
6207	0	35972	
6208	0	35940	
6209	0	35872	
6210	0	35784	
6211	0	35716	
6212	0	35572	
6213	0	35436	
6214	0	35336	
6215	0	35230	
6216	0	35156	
6217	0	35096	
6218	0	34996	
6219	0	34848	
6220	0	34708	
6221	0	34608	
6222	0	34480	
6223	0	34336	
6224	0	34232	
6225	0	34128	
6226	0	34052	
6227	0	33996	
6228	0	33874	
6229	0	33688	
6230	0	33538	
6231	0	33384	
6232	0	33244	
6233	0	33096	
6234	0	32920	
6235	0	32800	
6236	0	32636	
6237	0	32512	
6238	0	32416	
6239	0	32280	
6240	0	32192	
6241	0	32064	
6242	0	31952	
6243	0	31872	
6244	0	31724	
6245	0	31496	
6246	0	31344	
6247	0	31284	
6248	0	31224	
6249	0	31164	
6250	0	31116	
6251	0	31024	
6252	0	30914	
6253	0	30820	
6254	0	30704	
6255	0	30584	
6256	0	30516	
6257	0	30496	
6258	0	30408	
6259	0	30364	
6260	0	30268	
6261	0	30168	
6262	0	30152	
6263	0	30112	
6264	0	29972	
6265	0	29832	
6266	0	29712	
6267	0	29634	
6268	0	29612	
6269	0	29600	
6270	0	29644	
6271	0	29664	
6272	0	29656	
6273	0	29640	
6274	0	29646	
6275	0	29648	
6276	0	29664	
6277	0	29728	
6278	0	29752	
6279	0	29712	
6280	0	29656	
6281	0	29548	
6282	0	29492	
6283	0	29460	
6284	0	29488	
6285	0	29496	
6286	0	29496	
6287	0	29508	
6288	0	29476	
6289	0	29476	
6290	0	29540	
6291	0	29592	
6292	0	29572	
6293	0	29634	
6294	0	29644	
6295	0	29704	
6296	0	29712	
6297	0	29688	
6298	0	29628	
6299	0	29692	
6300	0	29744	
6301	0	29752	
6302	0	29724	
6303	0	29756	
6304	0	29812	
6305	0	29880	
6306	0	29988	
6307	0	30094	
6308	0	30208	
6309	0	30272	
6310	0	30290	
6311	0	30292	
6312	0	30352	
6313	0	30424	
6314	0	30496	
6315	0	30542	
6316	0	30596	
6317	0	30664	
6318	0	30664	
6319	0	30650	
6320	0	30680	
6321	0	30660	
6322	0	30602	
6323	0	30552	
6324	0	30568	
6325	0	30640	
6326	0	30712	
6327	0	30804	
6328	0	30840	
6329	0	30856	
6330	0	30852	
6331	0	30888	
6332	0	30904	
6333	0	30952	
6334	0	31008	
6335	0	31056	
6336	0	31128	
6337	0	31244	
6338	0	31272	
6339	0	31290	
6340	0	31300	
6341	0	31272	
6342	0	31240	
6343	0	31336	
6344	0	31424	
6345	0	31432	
6346	0	31394	
6347	0	31344	
6348	0	31268	
6349	0	31226	
6350	0	31180	
6351	0	31192	
6352	0	31232	
6353	0	31308	
6354	0	31296	
6355	0	31356	
6356	0	31408	
6357	0	31502	
6358	0	31604	
6359	0	31632	
6360	0	31644	
6361	0	31720	
6362	0	31748	
6363	0	31748	
6364	0	31824	
6365	0	31928	
6366	0	32028	
6367	0	32068	
6368	0	32060	
6369	0	32064	
6370	0	32096	
6371	0	32104	
6372	0	32140	
6373	0	32186	
6374	0	32168	
6375	0	32166	
6376	0	32176	
6377	0	32116	
6378	0	32004	
6379	0	31930	
6380	0	31840	
6381	0	31776	
6382	0	31778	
6383	0	31808	
6384	0	31798	
6385	0	31792	
6386	0	31808	
6387	0	31864	
6388	0	31992	
6389	0	32080	
6390	0	32120	
6391	0	32138	
6392	0	32176	
6393	0	32216	
6394	0	32272	
6395	0	32292	
6396	0	32260	
6397	0	32256	
6398	0	32204	
6399	0	32120	
6400	0	32056	
6401	0	32008	
6402	0	31960	
6403	0	31904	
6404	0	31900	
6405	0	31916	
6406	0	31944	
6407	0	31964	
6408	0	31976	
6409	0	32030	
6410	0	32032	
6411	0	32022	
6412	0	32016	
6413	0	32028	
6414	0	32032	
6415	0	32008	
6416	0	32016	
6417	0	31944	
6418	0	31904	
6419	0	31912	
6420	0	31936	
6421	0	31978	
6422	0	31980	
6423	0	31960	
6424	0	31908	
6425	0	31828	
6426	0	31764	
6427	0	31784	
6428	0	31770	
6429	0	31752	
6430	0	31816	
6431	0	31892	
6432	0	31952	
6433	0	31960	
6434	0	31936	
6435	0	31884	
6436	0	31844	
6437	0	31802	
6438	0	31752	
6439	0	31772	
6440	0	31732	
6441	0	31668	
6442	0	31604	
6443	0	31576	
6444	0	31564	
6445	0	31616	
6446	0	31668	
6447	0	31724	
6448	0	31724	
6449	0	31756	
6450	0	31780	
6451	0	31740	
6452	0	31664	
6453	0	31544	
6454	0	31476	
6455	0	31504	
6456	0	31580	
6457	0	31676	
6458	0	31680	
6459	0	31700	
6460	0	31720	
6461	0	31716	
6462	0	31794	
6463	0	31852	
6464	0	31912	
6465	0	31932	
6466	0	31842	
6467	0	31800	
6468	0	31952	
6469	0	32136	
6470	0	32128	
6471	0	32072	
6472	0	32000	
6473	0	31920	
6474	0	31898	
6475	0	31856	
6476	0	31802	
6477	0	31728	
6478	0	31744	
6479	0	31808	
6480	0	31816	
6481	0	31800	
6482	0	31752	
6483	0	31764	
6484	0	31804	
6485	0	31804	
6486	0	31824	
6487	0	31896	
6488	0	31992	
6489	0	32100	
6490	0	32180	
6491	0	32160	
6492	0	32080	
6493	0	31992	
6494	0	31920	
6495	0	31936	
6496	0	32056	
6497	0	32128	
6498	0	32030	
6499	0	31920	
6500	0	31876	
6501	0	31896	
6502	0	31928	
6503	0	31940	
6504	0	31842	
6505	0	31724	
6506	0	31628	
6507	0	31564	
6508	0	31492	
6509	0	31424	
6510	0	31476	
6511	0	31560	
6512	0	31632	
6513	0	31760	
6514	0	31952	
6515	0	32112	
6516	0	32192	
6517	0	32220	
6518	0	32272	
6519	0	32352	
6520	0	32414	
6521	0	32432	
6522	0	32412	
6523	0	32280	
6524	0	32104	
6525	0	32036	
6526	0	32136	
6527	0	32256	
6528	0	32262	
6529	0	32224	
6530	0	32213	
6531	0	32164	
6532	0	32144	
6533	0	32080	
6534	0	32052	
6535	0	32050	
6536	0	32060	
6537	0	32080	
6538	0	32128	
6539	0	32176	
6540	0	32245	
6541	0	32392	
6542	0	32468	
6543	0	32472	
6544	0	32444	
6545	0	32412	
6546	0	32332	
6547	0	32160	
6548	0	32072	
6549	0	32056	
6550	0	32008	
6551	0	31968	
6552	0	31968	
6553	0	31976	
6554	0	31964	
6555	0	31976	
6556	0	32008	
6557	0	32058	
6558	0	32144	
6559	0	32164	
6560	0	32184	
6561	0	32232	
6562	0	32228	
6563	0	32240	
6564	0	32244	
6565	0	32236	
6566	0	32304	
6567	0	32384	
6568	0	32392	
6569	0	32260	
6570	0	32124	
6571	0	32048	
6572	0	32008	
6573	0	32004	
6574	0	31972	
6575	0	31912	
6576	0	31988	
6577	0	32048	
6578	0	32088	
6579	0	32224	
6580	0	32376	
6581	0	32472	
6582	0	32600	
6583	0	32724	
6584	0	32736	
6585	0	32744	
6586	0	32820	
6587	0	32956	
6588	0	33132	
6589	0	33124	
6590	0	33010	
6591	0	32988	
6592	0	32940	
6593	0	32892	
6594	0	32826	
6595	0	32796	
6596	0	32700	
6597	0	32648	
6598	0	32700	
6599	0	32860	
6600	0	33048	
6601	0	33212	
6602	0	33260	
6603	0	33224	
6604	0	33148	
6605	0	33154	
6606	0	33184	
6607	0	33212	
6608	0	33202	
6609	0	33152	
6610	0	33076	
6611	0	33076	
6612	0	33084	
6613	0	33120	
6614	0	33120	
6615	0	33120	
6616	0	33124	
6617	0	33232	
6618	0	33404	
6619	0	33588	
6620	0	33844	
6621	0	34176	
6622	0	34492	
6623	0	34668	
6624	0	34732	
6625	0	34784	
6626	0	34756	
6627	0	34744	
6628	0	34820	
6629	0	34960	
6630	0	35036	
6631	0	35064	
6632	0	35028	
6633	0	35052	
6634	0	35012	
6635	0	34948	
6636	0	34904	
6637	0	34864	
6638	0	34892	
6639	0	34938	
6640	0	34868	
6641	0	34784	
6642	0	34714	
6643	0	34612	
6644	0	34424	
6645	0	34256	
6646	0	33996	
6647	0	33716	
6648	0	33508	
6649	0	33480	
6650	0	33536	
6651	0	33528	
6652	0	33488	
6653	0	33460	
6654	0	33458	
6655	0	33432	
6656	0	33248	
6657	0	33060	
6658	0	32940	
6659	0	32864	
6660	0	32824	
6661	0	32816	
6662	0	32788	
6663	0	32704	
6664	0	32560	
6665	0	32340	
6666	0	32076	
6667	0	31932	
6668	0	31908	
6669	0	31884	
6670	0	31872	
6671	0	31936	
6672	0	32016	
6673	0	32088	
6674	0	32140	
6675	0	32160	
6676	0	32148	
6677	0	32112	
6678	0	32060	
6679	0	31988	
6680	0	31900	
6681	0	31824	
6682	0	31740	
6683	0	31664	
6684	0	31634	
6685	0	31680	
6686	0	31768	
6687	0	31836	
6688	0	31872	
6689	0	31856	
6690	0	31816	
6691	0	31836	
6692	0	31872	
6693	0	31884	
6694	0	31880	
6695	0	31920	
6696	0	31916	
6697	0	31816	
6698	0	31696	
6699	0	31612	
6700	0	31584	
6701	0	31548	
6702	0	31488	
6703	0	31512	
6704	0	31610	
6705	0	31756	
6706	0	31892	
6707	0	32020	
6708	0	32140	
6709	0	32286	
6710	0	32386	
6711	0	32320	
6712	0	32168	
6713	0	32064	
6714	0	31904	
6715	0	31512	
6716	0	30928	
6717	0	30300	
6718	0	29856	
6719	0	29588	
6720	0	29550	
6721	0	29640	
6722	0	29880	
6723	0	30256	
6724	0	30812	
6725	0	31616	
6726	0	32566	
6727	0	33632	
6728	0	34892	
6729	0	36428	
6730	0	38100	
6731	0	40064	
6732	0	42496	
6733	0	45376	
6734	0	48576	
6735	0	51804	
6736	0	54916	
6737	0	57968	
6738	0	60800	
6739	0	62532	
6740	0	63424	
6741	0	63844	
6742	0	64036	
6743	0	64064	
6744	0	64028	
6745	0	63960	
6746	0	63864	
6747	0	62260	
6748	0	55840	
6749	0	49424	
6750	0	43508	
6751	0	38684	
6752	0	35020	
6753	0	32304	
6754	0	30356	
6755	0	29000	
6756	0	28036	
6757	0	27348	
6758	0	26808	
6759	0	26248	
6760	0	25596	
6761	0	25108	
6762	0	24760	
6763	0	24524	
6764	0	24488	
6765	0	24512	
6766	0	24564	
6767	0	24626	
6768	0	24768	
6769	0	24992	
6770	0	25228	
6771	0	25544	
6772	0	25840	
6773	0	26164	
6774	0	26564	
6775	0	26976	
6776	0	27392	
6777	0	27724	
6778	0	28016	
6779	0	28312	
6780	0	28560	
6781	0	28730	
6782	0	28924	
6783	0	29296	
6784	0	29606	
6785	0	29820	
6786	0	30004	
6787	0	30216	
6788	0	30388	
6789	0	30516	
6790	0	30592	
6791	0	30560	
6792	0	30472	
6793	0	30396	
6794	0	30304	
6795	0	30268	
6796	0	30200	
6797	0	30132	
6798	0	30152	
6799	0	30212	
6800	0	30234	
6801	0	30380	
6802	0	30576	
6803	0	30744	
6804	0	30788	
6805	0	30724	
6806	0	30732	
6807	0	30804	
6808	0	30848	
6809	0	30904	
6810	0	30948	
6811	0	30956	
6812	0	30980	
6813	0	31008	
6814	0	30984	
6815	0	30978	
6816	0	30960	
6817	0	30964	
6818	0	31008	
6819	0	31052	
6820	0	31100	
6821	0	31216	
6822	0	31316	
6823	0	31408	
6824	0	31472	
6825	0	31476	
6826	0	31452	
6827	0	31416	
6828	0	31348	
6829	0	31344	
6830	0	31392	
6831	0	31500	
6832	0	31664	
6833	0	31820	
6834	0	31980	
6835	0	32108	
6836	0	32076	
6837	0	31976	
6838	0	31932	
6839	0	31930	
6840	0	31936	
6841	0	31960	
6842	0	32008	
6843	0	32080	
6844	0	32128	
6845	0	32100	
6846	0	32064	
6847	0	32050	
6848	0	32072	
6849	0	32172	
6850	0	32236	
6851	0	32328	
6852	0	32448	
6853	0	32512	
6854	0	32554	
6855	0	32584	
6856	0	32608	
6857	0	32688	
6858	0	32844	
6859	0	32960	
6860	0	33056	
6861	0	33080	
6862	0	32968	
6863	0	32860	
6864	0	32840	
6865	0	32832	
6866	0	32802	
6867	0	32688	
6868	0	32604	
6869	0	32544	
6870	0	32532	
6871	0	32602	
6872	0	32680	
6873	0	32792	
6874	0	32952	
6875	0	33136	
6876	0	33306	
6877	0	33472	
6878	0	33612	
6879	0	33740	
6880	0	33880	
6881	0	33952	
6882	0	34048	
6883	0	34124	
6884	0	34120	
6885	0	34128	
6886	0	34160	
6887	0	34192	
6888	0	34228	
6889	0	34256	
6890	0	34320	
6891	0	34380	
6892	0	34400	
6893	0	34400	
6894	0	34416	
6895	0	34468	
6896	0	34528	
6897	0	34544	
6898	0	34558	
6899	0	34568	
6900	0	34636	
6901	0	34688	
6902	0	34716	
6903	0	34756	
6904	0	34816	
6905	0	34928	
6906	0	35056	
6907	0	35160	
6908	0	35200	
6909	0	35244	
6910	0	35316	
6911	0	35468	
6912	0	35668	
6913	0	35776	
6914	0	35828	
6915	0	35832	
6916	0	35866	
6917	0	35908	
6918	0	36000	
6919	0	36064	
6920	0	36100	
6921	0	36172	
6922	0	36224	
6923	0	36292	
6924	0	36416	
6925	0	36464	
6926	0	36472	
6927	0	36444	
6928	0	36468	
6929	0	36554	
6930	0	36648	
6931	0	36780	
6932	0	36920	
6933	0	37028	
6934	0	37192	
6935	0	37340	
6936	0	37498	
6937	0	37612	
6938	0	37656	
6939	0	37680	
6940	0	37688	
6941	0	37688	
6942	0	37712	
6943	0	37696	
6944	0	37620	
6945	0	37584	
6946	0	37572	
6947	0	37592	
6948	0	37664	
6949	0	37704	
6950	0	37764	
6951	0	37812	
6952	0	37896	
6953	0	37952	
6954	0	38056	
6955	0	38180	
6956	0	38272	
6957	0	38240	
6958	0	38184	
6959	0	38096	
6960	0	37968	
6961	0	37808	
6962	0	37704	
6963	0	37664	
6964	0	37692	
6965	0	37712	
6966	0	37744	
6967	0	37752	
6968	0	37704	
6969	0	37660	
6970	0	37496	
6971	0	37280	
6972	0	37144	
6973	0	37148	
6974	0	37150	
6975	0	37136	
6976	0	37080	
6977	0	37028	
6978	0	37008	
6979	0	37004	
6980	0	36976	
6981	0	36868	
6982	0	36698	
6983	0	36492	
6984	0	36348	
6985	0	36276	
6986	0	36144	
6987	0	36000	
6988	0	35764	
6989	0	35596	
6990	0	35452	
6991	0	35188	
6992	0	34936	
6993	0	34784	
6994	0	34636	
6995	0	34476	
6996	0	34280	
6997	0	34128	
6998	0	34008	
6999	0	33852	
7000	0	33732	
7001	0	33542	
7002	0	33324	
7003	0	33152	
7004	0	33040	
7005	0	32916	
7006	0	32720	
7007	0	32570	
7008	0	32452	
7009	0	32344	
7010	0	32268	
7011	0	32146	
7012	0	31980	
7013	0	31792	
7014	0	31612	
7015	0	31444	
7016	0	31328	
7017	0	31160	
7018	0	30924	
7019	0	30760	
7020	0	30644	
7021	0	30548	
7022	0	30444	
7023	0	30302	
7024	0	30192	
7025	0	30076	
7026	0	29944	
7027	0	29762	
7028	0	29552	
7029	0	29448	
7030	0	29372	
7031	0	29316	
7032	0	29312	
7033	0	29304	
7034	0	29268	
7035	0	29240	
7036	0	29184	
7037	0	29132	
7038	0	29120	
7039	0	29060	
7040	0	28964	
7041	0	28888	
7042	0	28812	
7043	0	28776	
7044	0	28748	
7045	0	28752	
7046	0	28742	
7047	0	28796	
7048	0	28832	
7049	0	28872	
7050	0	28884	
7051	0	28904	
7052	0	28948	
7053	0	28976	
7054	0	28984	
7055	0	28942	
7056	0	28882	
7057	0	28868	
7058	0	28880	
7059	0	28828	
7060	0	28802	
7061	0	28746	
7062	0	28736	
7063	0	28816	
7064	0	28890	
7065	0	28874	
7066	0	28864	
7067	0	28896	
7068	0	28972	
7069	0	29084	
7070	0	29100	
7071	0	29060	
7072	0	29068	
7073	0	29032	
7074	0	29024	
7075	0	28992	
7076	0	29000	
7077	0	29028	
7078	0	29036	
7079	0	29048	
7080	0	29092	
7081	0	29108	
7082	0	29132	
7083	0	29192	
7084	0	29268	
7085	0	29356	
7086	0	29488	
7087	0	29592	
7088	0	29648	
7089	0	29688	
7090	0	29724	
7091	0	29700	
7092	0	29724	
7093	0	29744	
7094	0	29744	
7095	0	29752	
7096	0	29760	
7097	0	29764	
7098	0	29856	
7099	0	29964	
7100	0	29988	
7101	0	30032	
7102	0	30116	
7103	0	30176	
7104	0	30172	
7105	0	30188	
7106	0	30220	
7107	0	30234	
7108	0	30212	
7109	0	30248	
7110	0	30332	
7111	0	30408	
7112	0	30464	
7113	0	30560	
7114	0	30644	
7115	0	30656	
7116	0	30608	
7117	0	30584	
7118	0	30608	
7119	0	30688	
7120	0	30760	
7121	0	30792	
7122	0	30764	
7123	0	30732	
7124	0	30760	
7125	0	30796	
7126	0	30796	
7127	0	30800	
7128	0	30852	
7129	0	30868	
7130	0	30848	
7131	0	30850	
7132	0	30900	
7133	0	30888	
7134	0	30812	
7135	0	30852	
7136	0	30960	
7137	0	31104	
7138	0	31244	
7139	0	31296	
7140	0	31312	
7141	0	31328	
7142	0	31360	
7143	0	31404	
7144	0	31440	
7145	0	31456	
7146	0	31448	
7147	0	31400	
7148	0	31392	
7149	0	31376	
7150	0	31348	
7151	0	31320	
7152	0	31332	
7153	0	31392	
7154	0	31504	
7155	0	31660	
7156	0	31744	
7157	0	31680	
7158	0	31560	
7159	0	31456	
7160	0	31464	
7161	0	31496	
7162	0	31536	
7163	0	31624	
7164	0	31752	
7165	0	31792	
7166	0	31796	
7167	0	31788	
7168	0	31724	
7169	0	31632	
7170	0	31588	
7171	0	31576	
7172	0	31580	
7173	0	31556	
7174	0	31560	
7175	0	31562	
7176	0	31584	
7177	0	31608	
7178	0	31568	
7179	0	31608	
7180	0	31620	
7181	0	31584	
7182	0	31540	
7183	0	31522	
7184	0	31472	
7185	0	31444	
7186	0	31420	
7187	0	31408	
7188	0	31390	
7189	0	31368	
7190	0	31376	
7191	0	31476	
7192	0	31572	
7193	0	31664	
7194	0	31696	
7195	0	31626	
7196	0	31436	
7197	0	31310	
7198	0	31258	
7199	0	31260	
7200	0	31336	
7201	0	31364	
7202	0	31336	
7203	0	31296	
7204	0	31292	
7205	0	31292	
7206	0	31324	
7207	0	31400	
7208	0	31428	
7209	0	31420	
7210	0	31412	
7211	0	31376	
7212	0	31344	
7213	0	31340	
7214	0	31308	
7215	0	31320	
7216	0	31396	
7217	0	31452	
7218	0	31456	
7219	0	31456	
7220	0	31440	
7221	0	31452	
7222	0	31500	
7223	0	31528	
7224	0	31532	
7225	0	31520	
7226	0	31444	
7227	0	31392	
7228	0	31392	
7229	0	31416	
7230	0	31432	
7231	0	31408	
7232	0	31418	
7233	0	31472	
7234	0	31488	
7235	0	31512	
7236	0	31516	
7237	0	31524	
7238	0	31536	
7239	0	31528	
7240	0	31552	
7241	0	31544	
7242	0	31540	
7243	0	31596	
7244	0	31668	
7245	0	31716	
7246	0	31644	
7247	0	31560	
7248	0	31448	
7249	0	31368	
7250	0	31308	
7251	0	31248	
7252	0	31224	
7253	0	31250	
7254	0	31324	
7255	0	31424	
7256	0	31476	
7257	0	31540	
7258	0	31620	
7259	0	31692	
7260	0	31668	
7261	0	31644	
7262	0	31650	
7263	0	31684	
7264	0	31712	
7265	0	31756	
7266	0	31792	
7267	0	31808	
7268	0	31840	
7269	0	31788	
7270	0	31696	
7271	0	31696	
7272	0	31708	
7273	0	31672	
7274	0	31600	
7275	0	31552	
7276	0	31608	
7277	0	31720	
7278	0	31822	
7279	0	31896	
7280	0	31912	
7281	0	31908	
7282	0	31868	
7283	0	31804	
7284	0	31712	
7285	0	31652	
7286	0	31640	
7287	0	31668	
7288	0	31756	
7289	0	31792	
7290	0	31832	
7291	0	31876	
7292	0	31860	
7293	0	31816	
7294	0	31800	
7295	0	31800	
7296	0	31816	
7297	0	31824	
7298	0	31784	
7299	0	31748	
7300	0	31756	
7301	0	31792	
7302	0	31836	
7303	0	31888	
7304	0	31940	
7305	0	31980	
7306	0	32020	
7307	0	32052	
7308	0	32040	
7309	0	31996	
7310	0	31964	
7311	0	31944	
7312	0	31968	
7313	0	32028	
7314	0	32096	
7315	0	32140	
7316	0	32176	
7317	0	32188	
7318	0	32140	
7319	0	32076	
7320	0	32064	
7321	0	32088	
7322	0	32052	
7323	0	32024	
7324	0	31996	
7325	0	31972	
7326	0	32004	
7327	0	32052	
7328	0	32084	
7329	0	32108	
7330	0	32154	
7331	0	32200	
7332	0	32244	
7333	0	32328	
7334	0	32416	
7335	0	32556	
7336	0	32652	
7337	0	32692	
7338	0	32716	
7339	0	32780	
7340	0	32872	
7341	0	32980	
7342	0	33140	
7343	0	33248	
7344	0	33312	
7345	0	33320	
7346	0	33360	
7347	0	33368	
7348	0	33312	
7349	0	33264	
7350	0	33184	
7351	0	33088	
7352	0	32984	
7353	0	32916	
7354	0	32876	
7355	0	32840	
7356	0	32824	
7357	0	32856	
7358	0	32924	
7359	0	33036	
7360	0	33216	
7361	0	33482	
7362	0	33760	
7363	0	34032	
7364	0	34244	
7365	0	34424	
7366	0	34552	
7367	0	34616	
7368	0	34720	
7369	0	34888	
7370	0	35096	
7371	0	35280	
7372	0	35334	
7373	0	35238	
7374	0	35116	
7375	0	35032	
7376	0	34936	
7377	0	34828	
7378	0	34668	
7379	0	34524	
7380	0	34400	
7381	0	34242	
7382	0	34092	
7383	0	33976	
7384	0	33848	
7385	0	33808	
7386	0	33800	
7387	0	33760	
7388	0	33626	
7389	0	33504	
7390	0	33368	
7391	0	33264	
7392	0	33184	
7393	0	33132	
7394	0	33080	
7395	0	32992	
7396	0	32874	
7397	0	32772	
7398	0	32712	
7399	0	32656	
7400	0	32592	
7401	0	32540	
7402	0	32496	
7403	0	32484	
7404	0	32472	
7405	0	32454	
7406	0	32452	
7407	0	32404	
7408	0	32316	
7409	0	32196	
7410	0	32004	
7411	0	31880	
7412	0	31768	
7413	0	31668	
7414	0	31604	
7415	0	31590	
7416	0	31516	
7417	0	31392	
7418	0	31300	
7419	0	31200	
7420	0	31152	
7421	0	31160	
7422	0	31192	
7423	0	31272	
7424	0	31324	
7425	0	31344	
7426	0	31348	
7427	0	31392	
7428	0	31434	
7429	0	31476	
7430	0	31512	
7431	0	31520	
7432	0	31532	
7433	0	31568	
7434	0	31592	
7435	0	31592	
7436	0	31620	
7437	0	31664	
7438	0	31656	
7439	0	31600	
7440	0	31572	
7441	0	31552	
7442	0	31556	
7443	0	31549	
7444	0	31568	
7445	0	31640	
7446	0	31704	
7447	0	31748	
7448	0	31792	
7449	0	31800	
7450	0	31776	
7451	0	31760	
7452	0	31672	
7453	0	31480	
7454	0	31292	
7455	0	31032	
7456	0	30620	
7457	0	30096	
7458	0	29532	
7459	0	29112	
7460	0	28864	
7461	0	28728	
7462	0	28644	
7463	0	28816	
7464	0	29232	
7465	0	29916	
7466	0	30804	
7467	0	31802	
7468	0	32904	
7469	0	34168	
7470	0	35688	
7471	0	37312	
7472	0	39224	
7473	0	41524	
7474	0	44222	
7475	0	47424	
7476	0	50984	
7477	0	54464	
7478	0	57824	
7479	0	60872	
7480	0	62736	
7481	0	63700	
7482	0	64176	
7483	0	64368	
7484	0	64428	
7485	0	64400	
7486	0	64320	
7487	0	64220	
7488	0	64112	
7489	0	60784	
7490	0	54384	
7491	0	48188	
7492	0	42840	
7493	0	38572	
7494	0	35228	
7495	0	32740	
7496	0	30892	
7497	0	29460	
7498	0	28356	
7499	0	27472	
7500	0	26620	
7501	0	25784	
7502	0	25092	
7503	0	24673	
7504	0	24568	
7505	0	24580	
7506	0	24696	
7507	0	24876	
7508	0	24988	
7509	0	24972	
7510	0	24976	
7511	0	25004	
7512	0	25182	
7513	0	25488	
7514	0	25832	
7515	0	26224	
7516	0	26604	
7517	0	26980	
7518	0	27340	
7519	0	27736	
7520	0	28124	
7521	0	28396	
7522	0	28628	
7523	0	28840	
7524	0	29048	
7525	0	29252	
7526	0	29384	
7527	0	29444	
7528	0	29472	
7529	0	29508	
7530	0	29556	
7531	0	29576	
7532	0	29548	
7533	0	29540	
7534	0	29572	
7535	0	29584	
7536	0	29548	
7537	0	29552	
7538	0	29584	
7539	0	29616	
7540	0	29684	
7541	0	29736	
7542	0	29816	
7543	0	29848	
7544	0	29840	
7545	0	29821	
7546	0	29848	
7547	0	29896	
7548	0	29964	
7549	0	30008	
7550	0	30068	
7551	0	30130	
7552	0	30144	
7553	0	30176	
7554	0	30224	
7555	0	30274	
7556	0	30312	
7557	0	30320	
7558	0	30312	
7559	0	30304	
7560	0	30294	
7561	0	30296	
7562	0	30368	
7563	0	30448	
7564	0	30484	
7565	0	30556	
7566	0	30608	
7567	0	30682	
7568	0	30780	
7569	0	30848	
7570	0	30896	
7571	0	30936	
7572	0	30964	
7573	0	30980	
7574	0	31024	
7575	0	31056	
7576	0	31068	
7577	0	31088	
7578	0	31112	
7579	0	31184	
7580	0	31228	
7581	0	31284	
7582	0	31316	
7583	0	31330	
7584	0	31336	
7585	0	31340	
7586	0	31413	
7587	0	31488	
7588	0	31536	
7589	0	31556	
7590	0	31584	
7591	0	31620	
7592	0	31680	
7593	0	31720	
7594	0	31768	
7595	0	31800	
7596	0	31840	
7597	0	31888	
7598	0	31944	
7599	0	31964	
7600	0	31944	
7601	0	31984	
7602	0	32020	
7603	0	32060	
7604	0	32128	
7605	0	32232	
7606	0	32328	
7607	0	32424	
7608	0	32490	
7609	0	32512	
7610	0	32496	
7611	0	32460	
7612	0	32452	
7613	0	32456	
7614	0	32488	
7615	0	32548	
7616	0	32560	
7617	0	32608	
7618	0	32708	
7619	0	32788	
7620	0	32860	
7621	0	32904	
7622	0	32920	
7623	0	33004	
7624	0	33088	
7625	0	33172	
7626	0	33168	
7627	0	33192	
7628	0	33248	
7629	0	33372	
7630	0	33472	
7631	0	33522	
7632	0	33600	
7633	0	33664	
7634	0	33736	
7635	0	33788	
7636	0	33840	
7637	0	33876	
7638	0	33848	
7639	0	33842	
7640	0	33860	
7641	0	33964	
7642	0	34076	
7643	0	34168	
7644	0	34252	
7645	0	34336	
7646	0	34436	
7647	0	34536	
7648	0	34610	
7649	0	34656	
7650	0	34696	
7651	0	34744	
7652	0	34778	
7653	0	34804	
7654	0	34848	
7655	0	34912	
7656	0	34976	
7657	0	35044	
7658	0	35120	
7659	0	35200	
7660	0	35284	
7661	0	35376	
7662	0	35468	
7663	0	35544	
7664	0	35632	
7665	0	35716	
7666	0	35786	
7667	0	35896	
7668	0	36000	
7669	0	36108	
7670	0	36204	
7671	0	36296	
7672	0	36364	
7673	0	36444	
7674	0	36504	
7675	0	36560	
7676	0	36600	
7677	0	36676	
7678	0	36736	
7679	0	36796	
7680	0	36888	
7681	0	36996	
7682	0	37112	
7683	0	37176	
7684	0	37200	
7685	0	37188	
7686	0	37248	
7687	0	37280	
7688	0	37296	
7689	0	37316	
7690	0	37328	
7691	0	37348	
7692	0	37372	
7693	0	37404	
7694	0	37424	
7695	0	37456	
7696	0	37472	
7697	0	37456	
7698	0	37444	
7699	0	37416	
7700	0	37422	
7701	0	37420	
7702	0	37428	
7703	0	37380	
7704	0	37340	
7705	0	37368	
7706	0	37380	
7707	0	37288	
7708	0	37136	
7709	0	37032	
7710	0	37000	
7711	0	36996	
7712	0	37002	
7713	0	37032	
7714	0	36968	
7715	0	36890	
7716	0	36804	
7717	0	36728	
7718	0	36652	
7719	0	36592	
7720	0	36496	
7721	0	36416	
7722	0	36368	
7723	0	36284	
7724	0	36184	
7725	0	36100	
7726	0	36040	
7727	0	35940	
7728	0	35784	
7729	0	35616	
7730	0	35416	
7731	0	35196	
7732	0	35008	
7733	0	34852	
7734	0	34644	
7735	0	34492	
7736	0	34344	
7737	0	34200	
7738	0	34072	
7739	0	33872	
7740	0	33648	
7741	0	33424	
7742	0	33208	
7743	0	32984	
7744	0	32800	
7745	0	32604	
7746	0	32464	
7747	0	32304	
7748	0	32114	
7749	0	31920	
7750	0	31802	
7751	0	31672	
7752	0	31560	
7753	0	31444	
7754	0	31300	
7755	0	31140	
7756	0	31016	
7757	0	30856	
7758	0	30688	
7759	0	30580	
7760	0	30488	
7761	0	30396	
7762	0	30334	
7763	0	30210	
7764	0	30092	
7765	0	29984	
7766	0	29904	
7767	0	29772	
7768	0	29624	
7769	0	29564	
7770	0	29484	
7771	0	29364	
7772	0	29292	
7773	0	29284	
7774	0	29266	
7775	0	29228	
7776	0	29196	
7777	0	29180	
7778	0	29184	
7779	0	29150	
7780	0	29064	
7781	0	28986	
7782	0	28960	
7783	0	28960	
7784	0	28916	
7785	0	28852	
7786	0	28856	
7787	0	28816	
7788	0	28816	
7789	0	28836	
7790	0	28872	
7791	0	28868	
7792	0	28884	
7793	0	28876	
7794	0	28848	
7795	0	28824	
7796	0	28872	
7797	0	28912	
7798	0	28920	
7799	0	28944	
7800	0	28917	
7801	0	28904	
7802	0	28904	
7803	0	28960	
7804	0	28960	
7805	0	28920	
7806	0	28900	
7807	0	28896	
7808	0	28908	
7809	0	28938	
7810	0	29020	
7811	0	29084	
7812	0	29144	
7813	0	29200	
7814	0	29256	
7815	0	29304	
7816	0	29316	
7817	0	29340	
7818	0	29364	
7819	0	29408	
7820	0	29440	
7821	0	29428	
7822	0	29436	
7823	0	29448	
7824	0	29460	
7825	0	29516	
7826	0	29624	
7827	0	29664	
7828	0	29692	
7829	0	29700	
7830	0	29720	
7831	0	29784	
7832	0	29856	
7833	0	29920	
7834	0	29960	
7835	0	29948	
7836	0	29912	
7837	0	29924	
7838	0	30024	
7839	0	30070	
7840	0	30076	
7841	0	30108	
7842	0	30176	
7843	0	30228	
7844	0	30256	
7845	0	30316	
7846	0	30424	
7847	0	30498	
7848	0	30540	
7849	0	30576	
7850	0	30566	
7851	0	30570	
7852	0	30576	
7853	0	30592	
7854	0	30592	
7855	0	30616	
7856	0	30664	
7857	0	30708	
7858	0	30752	
7859	0	30800	
7860	0	30820	
7861	0	30828	
7862	0	30848	
7863	0	30896	
7864	0	30940	
7865	0	30980	
7866	0	31024	
7867	0	31032	
7868	0	31064	
7869	0	31084	
7870	0	31124	
7871	0	31180	
7872	0	31236	
7873	0	31240	
7874	0	31204	
7875	0	31248	
7876	0	31304	
7877	0	31336	
7878	0	31370	
7879	0	31384	
7880	0	31356	
7881	0	31344	
7882	0	31368	
7883	0	31408	
7884	0	31470	
7885	0	31544	
7886	0	31600	
7887	0	31572	
7888	0	31552	
7889	0	31576	
7890	0	31608	
7891	0	31612	
7892	0	31630	
7893	0	31616	
7894	0	31604	
7895	0	31596	
7896	0	31600	
7897	0	31636	
7898	0	31620	
7899	0	31616	
7900	0	31636	
7901	0	31640	
7902	0	31652	
7903	0	31632	
7904	0	31588	
7905	0	31588	
7906	0	31616	
7907	0	31664	
7908	0	31780	
7909	0	31856	
7910	0	31808	
7911	0	31792	
7912	0	31822	
7913	0	31808	
7914	0	31800	
7915	0	31792	
7916	0	31792	
7917	0	31808	
7918	0	31808	
7919	0	31802	
7920	0	31840	
7921	0	31852	
7922	0	31860	
7923	0	31860	
7924	0	31860	
7925	0	31840	
7926	0	31852	
7927	0	31856	
7928	0	31848	
7929	0	31844	
7930	0	31842	
7931	0	31868	
7932	0	31892	
7933	0	31861	
7934	0	31818	
7935	0	31736	
7936	0	31696	
7937	0	31692	
7938	0	31688	
7939	0	31700	
7940	0	31666	
7941	0	31624	
7942	0	31628	
7943	0	31624	
7944	0	31664	
7945	0	31728	
7946	0	31784	
7947	0	31848	
7948	0	31820	
7949	0	31776	
7950	0	31728	
7951	0	31692	
7952	0	31660	
7953	0	31620	
7954	0	31584	
7955	0	31556	
7956	0	31540	
7957	0	31576	
7958	0	31668	
7959	0	31796	
7960	0	31870	
7961	0	31888	
7962	0	31864	
7963	0	31800	
7964	0	31684	
7965	0	31620	
7966	0	31620	
7967	0	31624	
7968	0	31616	
7969	0	31640	
7970	0	31648	
7971	0	31668	
7972	0	31738	
7973	0	31804	
7974	0	31844	
7975	0	31864	
7976	0	31812	
7977	0	31704	
7978	0	31648	
7979	0	31664	
7980	0	31680	
7981	0	31710	
7982	0	31728	
7983	0	31674	
7984	0	31652	
7985	0	31600	
7986	0	31640	
7987	0	31672	
7988	0	31744	
7989	0	31740	
7990	0	31724	
7991	0	31704	
7992	0	31744	
7993	0	31764	
7994	0	31764	
7995	0	31720	
7996	0	31712	
7997	0	31756	
7998	0	31812	
7999	0	31856	
8000	0	31900	
8001	0	31900	
8002	0	31900	
8003	0	31892	
8004	0	31892	
8005	0	31872	
8006	0	31900	
8007	0	31896	
8008	0	31864	
8009	0	31880	
8010	0	31904	
8011	0	31942	
8012	0	31938	
8013	0	31896	
8014	0	31872	
8015	0	31840	
8016	0	31824	
8017	0	31856	
8018	0	31862	
8019	0	31884	
8020	0	31900	
8021	0	31956	
8022	0	31980	
8023	0	31972	
8024	0	31980	
8025	0	32018	
8026	0	32020	
8027	0	32020	
8028	0	32000	
8029	0	31986	
8030	0	31972	
8031	0	31968	
8032	0	32020	
8033	0	32064	
8034	0	32108	
8035	0	32116	
8036	0	32040	
8037	0	32016	
8038	0	32060	
8039	0	32060	
8040	0	32098	
8041	0	32092	
8042	0	32052	
8043	0	32000	
8044	0	31972	
8045	0	31972	
8046	0	31972	
8047	0	31962	
8048	0	31992	
8049	0	31992	
8050	0	32036	
8051	0	32108	
8052	0	32168	
8053	0	32137	
8054	0	32128	
8055	0	32160	
8056	0	32200	
8057	0	32240	
8058	0	32236	
8059	0	32256	
8060	0	32264	
8061	0	32245	
8062	0	32144	
8063	0	32072	
8064	0	32056	
8065	0	32092	
8066	0	32112	
8067	0	32160	
8068	0	32184	
8069	0	32196	
8070	0	32236	
8071	0	32276	
8072	0	32320	
8073	0	32328	
8074	0	32368	
8075	0	32404	
8076	0	32420	
8077	0	32432	
8078	0	32440	
8079	0	32416	
8080	0	32380	
8081	0	32352	
8082	0	32356	
8083	0	32356	
8084	0	32384	
8085	0	32412	
8086	0	32436	
8087	0	32404	
8088	0	32376	
8089	0	32400	
8090	0	32464	
8091	0	32460	
8092	0	32468	
8093	0	32458	
8094	0	32436	
8095	0	32384	
8096	0	32352	
8097	0	32348	
8098	0	32400	
8099	0	32416	
8100	0	32440	
8101	0	32484	
8102	0	32516	
8103	0	32492	
8104	0	32504	
8105	0	32508	
8106	0	32504	
8107	0	32480	
8108	0	32508	
8109	0	32592	
8110	0	32648	
8111	0	32632	
8112	0	32620	
8113	0	32644	
8114	0	32680	
8115	0	32724	
8116	0	32760	
8117	0	32812	
8118	0	32896	
8119	0	33016	
8120	0	33136	
8121	0	33220	
8122	0	33292	
8123	0	33388	
8124	0	33484	
8125	0	33488	
8126	0	33460	
8127	0	33456	
8128	0	33532	
8129	0	33608	
8130	0	33644	
8131	0	33664	
8132	0	33692	
8133	0	33728	
8134	0	33684	
8135	0	33572	
8136	0	33472	
8137	0	33446	
8138	0	33416	
8139	0	33404	
8140	0	33448	
8141	0	33504	
8142	0	33584	
8143	0	33648	
8144	0	33760	
8145	0	33960	
8146	0	34200	
8147	0	34500	
8148	0	34752	
8149	0	34914	
8150	0	35064	
8151	0	35132	
8152	0	35240	
8153	0	35316	
8154	0	35404	
8155	0	35484	
8156	0	35536	
8157	0	35496	
8158	0	35432	
8159	0	35400	
8160	0	35384	
8161	0	35312	
8162	0	35204	
8163	0	34992	
8164	0	34752	
8165	0	34544	
8166	0	34408	
8167	0	34310	
8168	0	34192	
8169	0	34128	
8170	0	34032	
8171	0	33920	
8172	0	33804	
8173	0	33684	
8174	0	33568	
8175	0	33480	
8176	0	33392	
8177	0	33326	
8178	0	33264	
8179	0	33242	
8180	0	33172	
8181	0	33114	
8182	0	33084	
8183	0	33024	
8184	0	32972	
8185	0	32932	
8186	0	32836	
8187	0	32756	
8188	0	32672	
8189	0	32596	
8190	0	32520	
8191	0	32422	
8192	0	32316	
8193	0	32200	
8194	0	32056	
8195	0	31914	
8196	0	31820	
8197	0	31744	
8198	0	31672	
8199	0	31596	
8200	0	31528	
8201	0	31520	
8202	0	31544	
8203	0	31580	
8204	0	31612	
8205	0	31624	
8206	0	31628	
8207	0	31654	
8208	0	31660	
8209	0	31640	
8210	0	31592	
8211	0	31584	
8212	0	31644	
8213	0	31704	
8214	0	31752	
8215	0	31788	
8216	0	31794	
8217	0	31780	
8218	0	31794	
8219	0	31824	
8220	0	31852	
8221	0	31884	
8222	0	31892	
8223	0	31916	
8224	0	31932	
8225	0	31968	
8226	0	31972	
8227	0	31992	
8228	0	32036	
8229	0	32072	
8230	0	32072	
8231	0	32128	
8232	0	32200	
8233	0	32240	
8234	0	32232	
8235	0	32152	
8236	0	32008	
8237	0	31840	
8238	0	31588	
8239	0	31184	
8240	0	30652	
8241	0	29936	
8242	0	29326	
8243	0	28920	
8244	0	28736	
8245	0	28772	
8246	0	28972	
8247	0	29328	
8248	0	29832	
8249	0	30580	
8250	0	31508	
8251	0	32640	
8252	0	34032	
8253	0	35616	
8254	0	37376	
8255	0	39328	
8256	0	41598	
8257	0	44068	
8258	0	46920	
8259	0	50288	
8260	0	53856	
8261	0	57376	
8262	0	60680	
8263	0	62820	
8264	0	63940	
8265	0	64512	
8266	0	64756	
8267	0	64836	
8268	0	64824	
8269	0	64760	
8270	0	64664	
8271	0	64548	
8272	0	64440	
8273	0	64296	
8274	0	62384	
8275	0	56024	
8276	0	50788	
8277	0	46536	
8278	0	43072	
8279	0	40194	
8280	0	37632	
8281	0	35362	
8282	0	33500	
8283	0	32190	
8284	0	31140	
8285	0	30224	
8286	0	29432	
8287	0	28752	
8288	0	28228	
8289	0	27852	
8290	0	27608	
8291	0	27496	
8292	0	27480	
8293	0	27440	
8294	0	27340	
8295	0	27200	
8296	0	27124	
8297	0	27144	
8298	0	27298	
8299	0	27576	
8300	0	27816	
8301	0	28020	
8302	0	28224	
8303	0	28440	
8304	0	28626	
8305	0	28756	
8306	0	28816	
8307	0	28824	
8308	0	28840	
8309	0	28808	
8310	0	28780	
8311	0	28744	
8312	0	28728	
8313	0	28724	
8314	0	28732	
8315	0	28760	
8316	0	28788	
8317	0	28848	
8318	0	28816	
8319	0	28764	
8320	0	28764	
8321	0	28780	
8322	0	28792	
8323	0	28842	
8324	0	28892	
8325	0	28928	
8326	0	28960	
8327	0	28992	
8328	0	29068	
8329	0	29120	
8330	0	29120	
8331	0	29122	
8332	0	29164	
8333	0	29236	
8334	0	29280	
8335	0	29284	
8336	0	29276	
8337	0	29284	
8338	0	29276	
8339	0	29320	
8340	0	29344	
8341	0	29368	
8342	0	29424	
8343	0	29528	
8344	0	29616	
8345	0	29704	
8346	0	29792	
8347	0	29852	
8348	0	29922	
8349	0	30018	
8350	0	30060	
8351	0	30028	
8352	0	30024	
8353	0	30060	
8354	0	30128	
8355	0	30164	
8356	0	30200	
8357	0	30244	
8358	0	30256	
8359	0	30296	
8360	0	30340	
8361	0	30408	
8362	0	30434	
8363	0	30488	
8364	0	30548	
8365	0	30628	
8366	0	30716	
8367	0	30796	
8368	0	30860	
8369	0	30960	
8370	0	30972	
8371	0	30928	
8372	0	30888	
8373	0	30904	
8374	0	30964	
8375	0	30988	
8376	0	30994	
8377	0	31040	
8378	0	31112	
8379	0	31160	
8380	0	31208	
8381	0	31232	
8382	0	31268	
8383	0	31266	
8384	0	31290	
8385	0	31376	
8386	0	31464	
8387	0	31576	
8388	0	31616	
8389	0	31676	
8390	0	31696	
8391	0	31700	
8392	0	31696	
8393	0	31756	
8394	0	31800	
8395	0	31848	
8396	0	31874	
8397	0	31928	
8398	0	31988	
8399	0	32056	
8400	0	32100	
8401	0	32116	
8402	0	32148	
8403	0	32164	
8404	0	32192	
8405	0	32256	
8406	0	32352	
8407	0	32442	
8408	0	32488	
8409	0	32516	
8410	0	32540	
8411	0	32588	
8412	0	32636	
8413	0	32652	
8414	0	32736	
8415	0	32788	
8416	0	32828	
8417	0	32841	
8418	0	32876	
8419	0	32888	
8420	0	32954	
8421	0	33052	
8422	0	33088	
8423	0	33132	
8424	0	33196	
8425	0	33276	
8426	0	33376	
8427	0	33448	
8428	0	33484	
8429	0	33540	
8430	0	33612	
8431	0	33680	
8432	0	33752	
8433	0	33832	
8434	0	33914	
8435	0	34004	
8436	0	34048	
8437	0	34104	
8438	0	34156	
8439	0	34208	
8440	0	34272	
8441	0	34388	
8442	0	34440	
8443	0	34496	
8444	0	34584	
8445	0	34704	
8446	0	34768	
8447	0	34778	
8448	0	34820	
8449	0	34906	
8450	0	34996	
8451	0	35112	
8452	0	35200	
8453	0	35236	
8454	0	35264	
8455	0	35317	
8456	0	35432	
8457	0	35560	
8458	0	35668	
8459	0	35764	
8460	0	35848	
8461	0	35928	
8462	0	35984	
8463	0	36092	
8464	0	36176	
8465	0	36224	
8466	0	36292	
8467	0	36352	
8468	0	36384	
8469	0	36456	
8470	0	36544	
8471	0	36652	
8472	0	36752	
8473	0	36832	
8474	0	36864	
8475	0	36892	
8476	0	36936	
8477	0	36952	
8478	0	36940	
8479	0	36960	
8480	0	36922	
8481	0	36896	
8482	0	36868	
8483	0	36876	
8484	0	36932	
8485	0	36992	
8486	0	37024	
8487	0	37080	
8488	0	37088	
8489	0	37104	
8490	0	37024	
8491	0	36928	
8492	0	36880	
8493	0	36804	
8494	0	36756	
8495	0	36768	
8496	0	36772	
8497	0	36724	
8498	0	36664	
8499	0	36584	
8500	0	36528	
8501	0	36460	
8502	0	36416	
8503	0	36362	
8504	0	36328	
8505	0	36312	
8506	0	36308	
8507	0	36284	
8508	0	36240	
8509	0	36176	
8510	0	36084	
8511	0	35956	
8512	0	35820	
8513	0	35716	
8514	0	35578	
8515	0	35456	
8516	0	35312	
8517	0	35168	
8518	0	35060	
8519	0	34916	
8520	0	34764	
8521	0	34596	
8522	0	34400	
8523	0	34220	
8524	0	34016	
8525	0	33864	
8526	0	33728	
8527	0	33576	
8528	0	33400	
8529	0	33208	
8530	0	33044	
8531	0	32856	
8532	0	32676	
8533	0	32516	
8534	0	32352	
8535	0	32244	
8536	0	32152	
8537	0	32020	
8538	0	31810	
8539	0	31672	
8540	0	31548	
8541	0	31360	
8542	0	31184	
8543	0	31056	
8544	0	30960	
8545	0	30858	
8546	0	30772	
8547	0	30664	
8548	0	30552	
8549	0	30444	
8550	0	30372	
8551	0	30292	
8552	0	30192	
8553	0	30092	
8554	0	30028	
8555	0	29956	
8556	0	29888	
8557	0	29852	
8558	0	29808	
8559	0	29760	
8560	0	29690	
8561	0	29622	
8562	0	29560	
8563	0	29504	
8564	0	29420	
8565	0	29344	
8566	0	29320	
8567	0	29316	
8568	0	29324	
8569	0	29322	
8570	0	29264	
8571	0	29216	
8572	0	29248	
8573	0	29256	
8574	0	29264	
8575	0	29276	
8576	0	29288	
8577	0	29304	
8578	0	29312	
8579	0	29352	
8580	0	29388	
8581	0	29408	
8582	0	29420	
8583	0	29452	
8584	0	29476	
8585	0	29532	
8586	0	29492	
8587	0	29472	
8588	0	29464	
8589	0	29480	
8590	0	29548	
8591	0	29582	
