# OpenSignals Text File Format. Version 1
# {"00:07:80:4B:15:F7": {"position": 0, "device": "biosignalsplux", "device name": "00:07:80:4B:15:F7", "device connection": "BTH00:07:80:4B:15:F7", "sampling rate": 1000, "resolution": [16], "firmware version": 775, "comments": "", "keywords": "", "mode": 0, "sync interval": 2, "date": "2023-4-12", "time": "14:43:27.303", "channels": [1], "sensor": ["ECG"], "label": ["CH1"], "column": ["nSeq", "DI", "CH1"], "special": [{"SpO2": [80, 40, 5, 4, 3, 3]}, {"SpO2": [80, 40, 5, 4, 3, 3]}, {"SpO2": [80, 40, 5, 4, 3, 3]}, {"SpO2": [80, 40, 5, 4, 3, 3]}, {"SpO2": [80, 40, 5, 4, 3, 3]}, {"SpO2": [80, 40, 5, 4, 3, 3]}, {"SpO2": [80, 40, 5, 4, 3, 3]}, {"SpO2": [80, 40, 5, 4, 3, 3]}], "digital IO": [0, 1], "sleeve color": ["green"], "convertedValues": 0}}
# EndOfHeader
0	0	30264	
1	0	30264	
2	0	30344	
3	0	30506	
4	0	30596	
5	0	30652	
6	0	30636	
7	0	30600	
8	0	30618	
9	0	30632	
10	0	30676	
11	0	30688	
12	0	30616	
13	0	30660	
14	0	30740	
15	0	30874	
16	0	30862	
17	0	30868	
18	0	30936	
19	0	30964	
20	0	31052	
21	0	31068	
22	0	31048	
23	0	31060	
24	0	31032	
25	0	31020	
26	0	31112	
27	0	31128	
28	0	31200	
29	0	31288	
30	0	31384	
31	0	31428	
32	0	31512	
33	0	31520	
34	0	31364	
35	0	31216	
36	0	31380	
37	0	31674	
38	0	31848	
39	0	31896	
40	0	31756	
41	0	31552	
42	0	31632	
43	0	31632	
44	0	31656	
45	0	31714	
46	0	31720	
47	0	31576	
48	0	31488	
49	0	31592	
50	0	31684	
51	0	31728	
52	0	31832	
53	0	31896	
54	0	31872	
55	0	31836	
56	0	31792	
57	0	31860	
58	0	31890	
59	0	31876	
60	0	31960	
61	0	31972	
62	0	31936	
63	0	31896	
64	0	31946	
65	0	32096	
66	0	32200	
67	0	32220	
68	0	32216	
69	0	32324	
70	0	32382	
71	0	32320	
72	0	32208	
73	0	32012	
74	0	32076	
75	0	32106	
76	0	32076	
77	0	32120	
78	0	32184	
79	0	32216	
80	0	32164	
81	0	32080	
82	0	32164	
83	0	32164	
84	0	32112	
85	0	32084	
86	0	32168	
87	0	32240	
88	0	32208	
89	0	32148	
90	0	32056	
91	0	32036	
92	0	32158	
93	0	32132	
94	0	32152	
95	0	32180	
96	0	32252	
97	0	32304	
98	0	32332	
99	0	32292	
100	0	32280	
101	0	32362	
102	0	32368	
103	0	32328	
104	0	32388	
105	0	32432	
106	0	32424	
107	0	32396	
108	0	32364	
109	0	32304	
110	0	32266	
111	0	32176	
112	0	32178	
113	0	32252	
114	0	32292	
115	0	32306	
116	0	32228	
117	0	32216	
118	0	32200	
119	0	32192	
120	0	32212	
121	0	32116	
122	0	32046	
123	0	32096	
124	0	32160	
125	0	32300	
126	0	32312	
127	0	32284	
128	0	32320	
129	0	32312	
130	0	32338	
131	0	32268	
132	0	32224	
133	0	32236	
134	0	32204	
135	0	32192	
136	0	32192	
137	0	32282	
138	0	32324	
139	0	32352	
140	0	32356	
141	0	32362	
142	0	32324	
143	0	32288	
144	0	32262	
145	0	32272	
146	0	32344	
147	0	32396	
148	0	32364	
149	0	32340	
150	0	32320	
151	0	32256	
152	0	32152	
153	0	32064	
154	0	32112	
155	0	32200	
156	0	32220	
157	0	32272	
158	0	32352	
159	0	32368	
160	0	32328	
161	0	32272	
162	0	32252	
163	0	32304	
164	0	32352	
165	0	32280	
166	0	32304	
167	0	32348	
168	0	32320	
169	0	32328	
170	0	32388	
171	0	32316	
172	0	32304	
173	0	32192	
174	0	32164	
175	0	32264	
176	0	32314	
177	0	32380	
178	0	32504	
179	0	32576	
180	0	32560	
181	0	32504	
182	0	32512	
183	0	32476	
184	0	32512	
185	0	32524	
186	0	32524	
187	0	32516	
188	0	32472	
189	0	32484	
190	0	32532	
191	0	32552	
192	0	32552	
193	0	32544	
194	0	32582	
195	0	32616	
196	0	32600	
197	0	32568	
198	0	32492	
199	0	32480	
200	0	32516	
201	0	32472	
202	0	32400	
203	0	32348	
204	0	32360	
205	0	32376	
206	0	32428	
207	0	32468	
208	0	32458	
209	0	32416	
210	0	32384	
211	0	32288	
212	0	32320	
213	0	32440	
214	0	32480	
215	0	32516	
216	0	32576	
217	0	32620	
218	0	32584	
219	0	32544	
220	0	32456	
221	0	32404	
222	0	32440	
223	0	32508	
224	0	32604	
225	0	32584	
226	0	32576	
227	0	32584	
228	0	32608	
229	0	32624	
230	0	32644	
231	0	32672	
232	0	32648	
233	0	32642	
234	0	32640	
235	0	32556	
236	0	32460	
237	0	32468	
238	0	32516	
239	0	32622	
240	0	32624	
241	0	32600	
242	0	32592	
243	0	32666	
244	0	32684	
245	0	32726	
246	0	32720	
247	0	32664	
248	0	32572	
249	0	32444	
250	0	32520	
251	0	32704	
252	0	32712	
253	0	32826	
254	0	32840	
255	0	32794	
256	0	32752	
257	0	32732	
258	0	32688	
259	0	32632	
260	0	32648	
261	0	32724	
262	0	32868	
263	0	33120	
264	0	33312	
265	0	33424	
266	0	33416	
267	0	33414	
268	0	33496	
269	0	33556	
270	0	33632	
271	0	33692	
272	0	33768	
273	0	33822	
274	0	33876	
275	0	34060	
276	0	34064	
277	0	33840	
278	0	33716	
279	0	33704	
280	0	33584	
281	0	33520	
282	0	33540	
283	0	33516	
284	0	33530	
285	0	33594	
286	0	33676	
287	0	33828	
288	0	34028	
289	0	34256	
290	0	34536	
291	0	34816	
292	0	35004	
293	0	35104	
294	0	35260	
295	0	35440	
296	0	35580	
297	0	35688	
298	0	35888	
299	0	36024	
300	0	36032	
301	0	35936	
302	0	35776	
303	0	35656	
304	0	35548	
305	0	35420	
306	0	35304	
307	0	35080	
308	0	34936	
309	0	34760	
310	0	34632	
311	0	34556	
312	0	34420	
313	0	34252	
314	0	34126	
315	0	34032	
316	0	33936	
317	0	33768	
318	0	33712	
319	0	33666	
320	0	33576	
321	0	33488	
322	0	33420	
323	0	33324	
324	0	33276	
325	0	33208	
326	0	33072	
327	0	32952	
328	0	32840	
329	0	32696	
330	0	32576	
331	0	32448	
332	0	32324	
333	0	32248	
334	0	32184	
335	0	32068	
336	0	31940	
337	0	31840	
338	0	31736	
339	0	31700	
340	0	31628	
341	0	31568	
342	0	31544	
343	0	31632	
344	0	31620	
345	0	31462	
346	0	31384	
347	0	31408	
348	0	31420	
349	0	31448	
350	0	31488	
351	0	31524	
352	0	31488	
353	0	31488	
354	0	31432	
355	0	31480	
356	0	31480	
357	0	31500	
358	0	31576	
359	0	31592	
360	0	31728	
361	0	31832	
362	0	31776	
363	0	31660	
364	0	31600	
365	0	31594	
366	0	31488	
367	0	31476	
368	0	31712	
369	0	31884	
370	0	31968	
371	0	31952	
372	0	31916	
373	0	31908	
374	0	31948	
375	0	32036	
376	0	32104	
377	0	32128	
378	0	32152	
379	0	32152	
380	0	31992	
381	0	31692	
382	0	31352	
383	0	30888	
384	0	30328	
385	0	29666	
386	0	29178	
387	0	28866	
388	0	28650	
389	0	28580	
390	0	28706	
391	0	29044	
392	0	29576	
393	0	30396	
394	0	31348	
395	0	32440	
396	0	33784	
397	0	35332	
398	0	36985	
399	0	38916	
400	0	41256	
401	0	43960	
402	0	47168	
403	0	50928	
404	0	54672	
405	0	58172	
406	0	61244	
407	0	63024	
408	0	63936	
409	0	64388	
410	0	64568	
411	0	64628	
412	0	64580	
413	0	64496	
414	0	64400	
415	0	64284	
416	0	64160	
417	0	64048	
418	0	57652	
419	0	52250	
420	0	47920	
421	0	44392	
422	0	41572	
423	0	39104	
424	0	36880	
425	0	35044	
426	0	33444	
427	0	32180	
428	0	31028	
429	0	30024	
430	0	29236	
431	0	28728	
432	0	28272	
433	0	28012	
434	0	27896	
435	0	27828	
436	0	27708	
437	0	27620	
438	0	27704	
439	0	27772	
440	0	27804	
441	0	28016	
442	0	28426	
443	0	28772	
444	0	29040	
445	0	29260	
446	0	29452	
447	0	29608	
448	0	29664	
449	0	29720	
450	0	29774	
451	0	29800	
452	0	29742	
453	0	29620	
454	0	29600	
455	0	29568	
456	0	29536	
457	0	29452	
458	0	29516	
459	0	29448	
460	0	29404	
461	0	29408	
462	0	29442	
463	0	29490	
464	0	29498	
465	0	29482	
466	0	29532	
467	0	29552	
468	0	29536	
469	0	29528	
470	0	29516	
471	0	29540	
472	0	29568	
473	0	29572	
474	0	29616	
475	0	29742	
476	0	29848	
477	0	29888	
478	0	29932	
479	0	29946	
480	0	30052	
481	0	30104	
482	0	30120	
483	0	30188	
484	0	30224	
485	0	30268	
486	0	30328	
487	0	30408	
488	0	30432	
489	0	30464	
490	0	30488	
491	0	30540	
492	0	30568	
493	0	30528	
494	0	30616	
495	0	30716	
496	0	30804	
497	0	30896	
498	0	30980	
499	0	31048	
500	0	31052	
501	0	31036	
502	0	30980	
503	0	30972	
504	0	31040	
505	0	31148	
506	0	31212	
507	0	31228	
508	0	31292	
509	0	31368	
510	0	31372	
511	0	31376	
512	0	31448	
513	0	31476	
514	0	31528	
515	0	31576	
516	0	31624	
517	0	31680	
518	0	31756	
519	0	31880	
520	0	31944	
521	0	32012	
522	0	32096	
523	0	32100	
524	0	32112	
525	0	32124	
526	0	32204	
527	0	32252	
528	0	32240	
529	0	32240	
530	0	32316	
531	0	32482	
532	0	32496	
533	0	32452	
534	0	32508	
535	0	32556	
536	0	32628	
537	0	32660	
538	0	32656	
539	0	32668	
540	0	32672	
541	0	32756	
542	0	32816	
543	0	32808	
544	0	32884	
545	0	33032	
546	0	33116	
547	0	33124	
548	0	33252	
549	0	33328	
550	0	33328	
551	0	33396	
552	0	33480	
553	0	33608	
554	0	33634	
555	0	33604	
556	0	33636	
557	0	33676	
558	0	33688	
559	0	33640	
560	0	33724	
561	0	33746	
562	0	33792	
563	0	33848	
564	0	33904	
565	0	33972	
566	0	33960	
567	0	33992	
568	0	34112	
569	0	34172	
570	0	34212	
571	0	34194	
572	0	34244	
573	0	34312	
574	0	34378	
575	0	34444	
576	0	34556	
577	0	34752	
578	0	34872	
579	0	34956	
580	0	35060	
581	0	35164	
582	0	35232	
583	0	35310	
584	0	35466	
585	0	35648	
586	0	35896	
587	0	36152	
588	0	36388	
589	0	36592	
590	0	36752	
591	0	36788	
592	0	36724	
593	0	36644	
594	0	36480	
595	0	36208	
596	0	35944	
597	0	35860	
598	0	35680	
599	0	35492	
600	0	35376	
601	0	35324	
602	0	35290	
603	0	35328	
604	0	35416	
605	0	35416	
606	0	35384	
607	0	35324	
608	0	35328	
609	0	35360	
610	0	35348	
611	0	35392	
612	0	35468	
613	0	35444	
614	0	35448	
615	0	35516	
616	0	35584	
617	0	35616	
618	0	35664	
619	0	35752	
620	0	35744	
621	0	35744	
622	0	35876	
623	0	35872	
624	0	35832	
625	0	35816	
626	0	35810	
627	0	35756	
628	0	35668	
629	0	35644	
630	0	35636	
631	0	35560	
632	0	35576	
633	0	35532	
634	0	35392	
635	0	35416	
636	0	35504	
637	0	35524	
638	0	35456	
639	0	35384	
640	0	35296	
641	0	35212	
642	0	35048	
643	0	35008	
644	0	35100	
645	0	35224	
646	0	35256	
647	0	35220	
648	0	35120	
649	0	34952	
650	0	34916	
651	0	34940	
652	0	34656	
653	0	34376	
654	0	34308	
655	0	34224	
656	0	34084	
657	0	33896	
658	0	33720	
659	0	33612	
660	0	33504	
661	0	33324	
662	0	33128	
663	0	32932	
664	0	32732	
665	0	32612	
666	0	32484	
667	0	32322	
668	0	32252	
669	0	32232	
670	0	32224	
671	0	32040	
672	0	31828	
673	0	31728	
674	0	31620	
675	0	31464	
676	0	31308	
677	0	31168	
678	0	30984	
679	0	30928	
680	0	30830	
681	0	30712	
682	0	30584	
683	0	30512	
684	0	30404	
685	0	30292	
686	0	30192	
687	0	30108	
688	0	30109	
689	0	30062	
690	0	29896	
691	0	29712	
692	0	29628	
693	0	29536	
694	0	29466	
695	0	29508	
696	0	29584	
697	0	29524	
698	0	29472	
699	0	29440	
700	0	29384	
701	0	29344	
702	0	29268	
703	0	29116	
704	0	29032	
705	0	28988	
706	0	29000	
707	0	29132	
708	0	29252	
709	0	29288	
710	0	29274	
711	0	29248	
712	0	29248	
713	0	29212	
714	0	29184	
715	0	29184	
716	0	29210	
717	0	29240	
718	0	29304	
719	0	29328	
720	0	29308	
721	0	29408	
722	0	29460	
723	0	29416	
724	0	29388	
725	0	29412	
726	0	29480	
727	0	29556	
728	0	29556	
729	0	29572	
730	0	29632	
731	0	29740	
732	0	29748	
733	0	29740	
734	0	29762	
735	0	29844	
736	0	29920	
737	0	29920	
738	0	29864	
739	0	29802	
740	0	29838	
741	0	30016	
742	0	30070	
743	0	29996	
744	0	30060	
745	0	30148	
746	0	30144	
747	0	30148	
748	0	30192	
749	0	30220	
750	0	30384	
751	0	30444	
752	0	30416	
753	0	30392	
754	0	30348	
755	0	30384	
756	0	30492	
757	0	30548	
758	0	30628	
759	0	30696	
760	0	30706	
761	0	30680	
762	0	30666	
763	0	30688	
764	0	30764	
765	0	30808	
766	0	30796	
767	0	30756	
768	0	30804	
769	0	30836	
770	0	30912	
771	0	30924	
772	0	30944	
773	0	31024	
774	0	31088	
775	0	31108	
776	0	31108	
777	0	31168	
778	0	31252	
779	0	31304	
780	0	31252	
781	0	31220	
782	0	31208	
783	0	31116	
784	0	31132	
785	0	31200	
786	0	31280	
787	0	31328	
788	0	31332	
789	0	31328	
790	0	31344	
791	0	31304	
792	0	31232	
793	0	31294	
794	0	31408	
795	0	31512	
796	0	31532	
797	0	31580	
798	0	31712	
799	0	31636	
800	0	31504	
801	0	31420	
802	0	31380	
803	0	31396	
804	0	31436	
805	0	31456	
806	0	31486	
807	0	31516	
808	0	31520	
809	0	31458	
810	0	31408	
811	0	31384	
812	0	31428	
813	0	31456	
814	0	31496	
815	0	31556	
816	0	31628	
817	0	31624	
818	0	31612	
819	0	31664	
820	0	31720	
821	0	31664	
822	0	31616	
823	0	31588	
824	0	31562	
825	0	31592	
826	0	31592	
827	0	31624	
828	0	31616	
829	0	31674	
830	0	31708	
831	0	31724	
832	0	31722	
833	0	31616	
834	0	31648	
835	0	31708	
836	0	31752	
837	0	31728	
838	0	31620	
839	0	31556	
840	0	31556	
841	0	31596	
842	0	31580	
843	0	31564	
844	0	31612	
845	0	31720	
846	0	31728	
847	0	31632	
848	0	31628	
849	0	31608	
850	0	31548	
851	0	31536	
852	0	31632	
853	0	31680	
854	0	31640	
855	0	31668	
856	0	31684	
857	0	31688	
858	0	31632	
859	0	31556	
860	0	31504	
861	0	31560	
862	0	31620	
863	0	31660	
864	0	31700	
865	0	31748	
866	0	31796	
867	0	31816	
868	0	31822	
869	0	31804	
870	0	31780	
871	0	31712	
872	0	31650	
873	0	31668	
874	0	31696	
875	0	31724	
876	0	31752	
877	0	31744	
878	0	31756	
879	0	31788	
880	0	31796	
881	0	31800	
882	0	31816	
883	0	31824	
884	0	31872	
885	0	31860	
886	0	31904	
887	0	31940	
888	0	31856	
889	0	31736	
890	0	31742	
891	0	31808	
892	0	31760	
893	0	31706	
894	0	31708	
895	0	31764	
896	0	31788	
897	0	31784	
898	0	31816	
899	0	31820	
900	0	31788	
901	0	31784	
902	0	31792	
903	0	31816	
904	0	31844	
905	0	31852	
906	0	31880	
907	0	31892	
908	0	31972	
909	0	31940	
910	0	31892	
911	0	31920	
912	0	31884	
913	0	31816	
914	0	31840	
915	0	31876	
916	0	31880	
917	0	31872	
918	0	31920	
919	0	31956	
920	0	31940	
921	0	31972	
922	0	31984	
923	0	31984	
924	0	32020	
925	0	32072	
926	0	32088	
927	0	32080	
928	0	32056	
929	0	32082	
930	0	32084	
931	0	32088	
932	0	32076	
933	0	32056	
934	0	32060	
935	0	32076	
936	0	32128	
937	0	32128	
938	0	32092	
939	0	32108	
940	0	32132	
941	0	32132	
942	0	32136	
943	0	32172	
944	0	32170	
945	0	32196	
946	0	32208	
947	0	32188	
948	0	32172	
949	0	32108	
950	0	32044	
951	0	32072	
952	0	32126	
953	0	32180	
954	0	32164	
955	0	32144	
956	0	32164	
957	0	32160	
958	0	32128	
959	0	32092	
960	0	32076	
961	0	32068	
962	0	32088	
963	0	32148	
964	0	32172	
965	0	32208	
966	0	32244	
967	0	32308	
968	0	32304	
969	0	32240	
970	0	32160	
971	0	32184	
972	0	32192	
973	0	32212	
974	0	32232	
975	0	32212	
976	0	32196	
977	0	32216	
978	0	32256	
979	0	32260	
980	0	32248	
981	0	32216	
982	0	32224	
983	0	32280	
984	0	32304	
985	0	32304	
986	0	32288	
987	0	32300	
988	0	32348	
989	0	32396	
990	0	32396	
991	0	32464	
992	0	32528	
993	0	32528	
994	0	32464	
995	0	32416	
996	0	32348	
997	0	32260	
998	0	32220	
999	0	32296	
1000	0	32448	
1001	0	32648	
1002	0	32876	
1003	0	33016	
1004	0	33100	
1005	0	33180	
1006	0	33280	
1007	0	33316	
1008	0	33348	
1009	0	33404	
1010	0	33424	
1011	0	33472	
1012	0	33520	
1013	0	33520	
1014	0	33464	
1015	0	33472	
1016	0	33424	
1017	0	33428	
1018	0	33468	
1019	0	33416	
1020	0	33320	
1021	0	33312	
1022	0	33322	
1023	0	33288	
1024	0	33304	
1025	0	33388	
1026	0	33492	
1027	0	33628	
1028	0	33764	
1029	0	33996	
1030	0	34280	
1031	0	34560	
1032	0	34784	
1033	0	34992	
1034	0	35150	
1035	0	35312	
1036	0	35458	
1037	0	35464	
1038	0	35608	
1039	0	35680	
1040	0	35620	
1041	0	35512	
1042	0	35400	
1043	0	35328	
1044	0	35288	
1045	0	35172	
1046	0	35004	
1047	0	34872	
1048	0	34780	
1049	0	34656	
1050	0	34500	
1051	0	34360	
1052	0	34224	
1053	0	34108	
1054	0	34036	
1055	0	33916	
1056	0	33750	
1057	0	33672	
1058	0	33632	
1059	0	33604	
1060	0	33516	
1061	0	33368	
1062	0	33184	
1063	0	33104	
1064	0	33088	
1065	0	33044	
1066	0	32952	
1067	0	32832	
1068	0	32728	
1069	0	32618	
1070	0	32496	
1071	0	32428	
1072	0	32320	
1073	0	32172	
1074	0	32064	
1075	0	31920	
1076	0	31770	
1077	0	31726	
1078	0	31752	
1079	0	31706	
1080	0	31572	
1081	0	31476	
1082	0	31440	
1083	0	31404	
1084	0	31388	
1085	0	31370	
1086	0	31376	
1087	0	31400	
1088	0	31380	
1089	0	31384	
1090	0	31412	
1091	0	31460	
1092	0	31488	
1093	0	31520	
1094	0	31544	
1095	0	31512	
1096	0	31492	
1097	0	31504	
1098	0	31524	
1099	0	31588	
1100	0	31656	
1101	0	31656	
1102	0	31644	
1103	0	31632	
1104	0	31716	
1105	0	31780	
1106	0	31836	
1107	0	31864	
1108	0	31880	
1109	0	31920	
1110	0	31916	
1111	0	31804	
1112	0	31816	
1113	0	31876	
1114	0	31944	
1115	0	32000	
1116	0	32097	
1117	0	32064	
1118	0	31938	
1119	0	31796	
1120	0	31620	
1121	0	31304	
1122	0	30756	
1123	0	30108	
1124	0	29370	
1125	0	28716	
1126	0	28328	
1127	0	28136	
1128	0	28072	
1129	0	28194	
1130	0	28520	
1131	0	29090	
1132	0	29818	
1133	0	30896	
1134	0	32096	
1135	0	33484	
1136	0	35120	
1137	0	36832	
1138	0	38788	
1139	0	41264	
1140	0	44176	
1141	0	47568	
1142	0	51232	
1143	0	54800	
1144	0	58176	
1145	0	61248	
1146	0	63008	
1147	0	63920	
1148	0	64368	
1149	0	64552	
1150	0	64592	
1151	0	64546	
1152	0	64480	
1153	0	64368	
1154	0	64260	
1155	0	64136	
1156	0	59648	
1157	0	54004	
1158	0	49452	
1159	0	45676	
1160	0	42544	
1161	0	40016	
1162	0	37784	
1163	0	35892	
1164	0	34260	
1165	0	32764	
1166	0	31232	
1167	0	29844	
1168	0	28816	
1169	0	28048	
1170	0	27488	
1171	0	27152	
1172	0	26976	
1173	0	26940	
1174	0	26872	
1175	0	26692	
1176	0	26624	
1177	0	26580	
1178	0	26704	
1179	0	27016	
1180	0	27364	
1181	0	27680	
1182	0	28132	
1183	0	28600	
1184	0	28952	
1185	0	29176	
1186	0	29316	
1187	0	29436	
1188	0	29584	
1189	0	29668	
1190	0	29690	
1191	0	29716	
1192	0	29716	
1193	0	29720	
1194	0	29652	
1195	0	29560	
1196	0	29500	
1197	0	29446	
1198	0	29408	
1199	0	29480	
1200	0	29538	
1201	0	29588	
1202	0	29580	
1203	0	29536	
1204	0	29524	
1205	0	29500	
1206	0	29576	
1207	0	29644	
1208	0	29696	
1209	0	29748	
1210	0	29864	
1211	0	29920	
1212	0	29908	
1213	0	29936	
1214	0	29940	
1215	0	29932	
1216	0	29956	
1217	0	29944	
1218	0	30004	
1219	0	30024	
1220	0	29992	
1221	0	30084	
1222	0	30196	
1223	0	30224	
1224	0	30188	
1225	0	30178	
1226	0	30184	
1227	0	30240	
1228	0	30332	
1229	0	30384	
1230	0	30456	
1231	0	30524	
1232	0	30528	
1233	0	30512	
1234	0	30576	
1235	0	30644	
1236	0	30692	
1237	0	30744	
1238	0	30828	
1239	0	30900	
1240	0	30906	
1241	0	30984	
1242	0	31076	
1243	0	31076	
1244	0	31060	
1245	0	31112	
1246	0	31184	
1247	0	31256	
1248	0	31304	
1249	0	31356	
1250	0	31400	
1251	0	31500	
1252	0	31576	
1253	0	31624	
1254	0	31676	
1255	0	31796	
1256	0	31872	
1257	0	31822	
1258	0	31724	
1259	0	31744	
1260	0	31768	
1261	0	31732	
1262	0	31696	
1263	0	31876	
1264	0	32128	
1265	0	32200	
1266	0	32232	
1267	0	32272	
1268	0	32348	
1269	0	32504	
1270	0	32600	
1271	0	32640	
1272	0	32664	
1273	0	32568	
1274	0	32540	
1275	0	32588	
1276	0	32616	
1277	0	32584	
1278	0	32644	
1279	0	32764	
1280	0	32900	
1281	0	33036	
1282	0	33104	
1283	0	33068	
1284	0	33090	
1285	0	33196	
1286	0	33272	
1287	0	33292	
1288	0	33344	
1289	0	33440	
1290	0	33492	
1291	0	33500	
1292	0	33592	
1293	0	33636	
1294	0	33664	
1295	0	33756	
1296	0	33832	
1297	0	33888	
1298	0	33964	
1299	0	34000	
1300	0	34040	
1301	0	34048	
1302	0	34104	
1303	0	34208	
1304	0	34252	
1305	0	34320	
1306	0	34436	
1307	0	34508	
1308	0	34528	
1309	0	34624	
1310	0	34680	
1311	0	34660	
1312	0	34652	
1313	0	34684	
1314	0	34740	
1315	0	34838	
1316	0	34864	
1317	0	34896	
1318	0	34984	
1319	0	35108	
1320	0	35100	
1321	0	35136	
1322	0	35160	
1323	0	35208	
1324	0	35334	
1325	0	35428	
1326	0	35468	
1327	0	35480	
1328	0	35536	
1329	0	35612	
1330	0	35680	
1331	0	35728	
1332	0	35784	
1333	0	35880	
1334	0	35964	
1335	0	35924	
1336	0	35908	
1337	0	35976	
1338	0	36004	
1339	0	36028	
1340	0	36124	
1341	0	36200	
1342	0	36264	
1343	0	36304	
1344	0	36320	
1345	0	36316	
1346	0	36288	
1347	0	36320	
1348	0	36356	
1349	0	36300	
1350	0	36260	
1351	0	36260	
1352	0	36272	
1353	0	36300	
1354	0	36356	
1355	0	36360	
1356	0	36368	
1357	0	36316	
1358	0	36260	
1359	0	36208	
1360	0	36208	
1361	0	36244	
1362	0	36220	
1363	0	36168	
1364	0	36180	
1365	0	36204	
1366	0	36152	
1367	0	36080	
1368	0	36008	
1369	0	36008	
1370	0	36100	
1371	0	36112	
1372	0	36032	
1373	0	35928	
1374	0	35868	
1375	0	35848	
1376	0	35808	
1377	0	35828	
1378	0	35800	
1379	0	35752	
1380	0	35696	
1381	0	35604	
1382	0	35528	
1383	0	35428	
1384	0	35412	
1385	0	35340	
1386	0	35256	
1387	0	35196	
1388	0	35084	
1389	0	34976	
1390	0	34904	
1391	0	34856	
1392	0	34736	
1393	0	34568	
1394	0	34400	
1395	0	34276	
1396	0	34192	
1397	0	34084	
1398	0	33908	
1399	0	33752	
1400	0	33564	
1401	0	33376	
1402	0	33228	
1403	0	33056	
1404	0	32924	
1405	0	32768	
1406	0	32552	
1407	0	32320	
1408	0	32164	
1409	0	32020	
1410	0	31884	
1411	0	31768	
1412	0	31656	
1413	0	31546	
1414	0	31394	
1415	0	31176	
1416	0	31010	
1417	0	30924	
1418	0	30852	
1419	0	30688	
1420	0	30512	
1421	0	30392	
1422	0	30240	
1423	0	30112	
1424	0	29992	
1425	0	29936	
1426	0	29922	
1427	0	29816	
1428	0	29696	
1429	0	29538	
1430	0	29428	
1431	0	29376	
1432	0	29316	
1433	0	29272	
1434	0	29250	
1435	0	29256	
1436	0	29188	
1437	0	29056	
1438	0	28988	
1439	0	29026	
1440	0	29072	
1441	0	29082	
1442	0	28984	
1443	0	28848	
1444	0	28780	
1445	0	28808	
1446	0	28784	
1447	0	28780	
1448	0	28828	
1449	0	28780	
1450	0	28680	
1451	0	28664	
1452	0	28768	
1453	0	28846	
1454	0	28845	
1455	0	28872	
1456	0	28912	
1457	0	28912	
1458	0	28916	
1459	0	28916	
1460	0	28940	
1461	0	28972	
1462	0	28984	
1463	0	28968	
1464	0	28962	
1465	0	29054	
1466	0	29080	
1467	0	29058	
1468	0	29152	
1469	0	29212	
1470	0	29208	
1471	0	29212	
1472	0	29200	
1473	0	29136	
1474	0	29224	
1475	0	29224	
1476	0	29276	
1477	0	29364	
1478	0	29452	
1479	0	29524	
1480	0	29592	
1481	0	29652	
1482	0	29708	
1483	0	29760	
1484	0	29816	
1485	0	29848	
1486	0	29868	
1487	0	29904	
1488	0	29904	
1489	0	29916	
1490	0	29992	
1491	0	30040	
1492	0	30048	
1493	0	30036	
1494	0	30074	
1495	0	30196	
1496	0	30304	
1497	0	30366	
1498	0	30376	
1499	0	30396	
1500	0	30452	
1501	0	30528	
1502	0	30540	
1503	0	30468	
1504	0	30484	
1505	0	30524	
1506	0	30500	
1507	0	30512	
1508	0	30496	
1509	0	30540	
1510	0	30612	
1511	0	30664	
1512	0	30704	
1513	0	30728	
1514	0	30772	
1515	0	30844	
1516	0	30884	
1517	0	30944	
1518	0	30968	
1519	0	30964	
1520	0	30932	
1521	0	30952	
1522	0	30976	
1523	0	30984	
1524	0	30992	
1525	0	31008	
1526	0	31028	
1527	0	31052	
1528	0	31082	
1529	0	31108	
1530	0	31132	
1531	0	31168	
1532	0	31216	
1533	0	31266	
1534	0	31288	
1535	0	31300	
1536	0	31328	
1537	0	31350	
1538	0	31392	
1539	0	31412	
1540	0	31376	
1541	0	31332	
1542	0	31332	
1543	0	31344	
1544	0	31276	
1545	0	31346	
1546	0	31368	
1547	0	31392	
1548	0	31400	
1549	0	31400	
1550	0	31372	
1551	0	31364	
1552	0	31376	
1553	0	31400	
1554	0	31432	
1555	0	31456	
1556	0	31460	
1557	0	31436	
1558	0	31492	
1559	0	31520	
1560	0	31550	
1561	0	31612	
1562	0	31700	
1563	0	31644	
1564	0	31628	
1565	0	31680	
1566	0	31724	
1567	0	31728	
1568	0	31688	
1569	0	31664	
1570	0	31668	
1571	0	31648	
1572	0	31584	
1573	0	31532	
1574	0	31524	
1575	0	31584	
1576	0	31692	
1577	0	31628	
1578	0	31592	
1579	0	31604	
1580	0	31612	
1581	0	31616	
1582	0	31564	
1583	0	31554	
1584	0	31592	
1585	0	31636	
1586	0	31616	
1587	0	31624	
1588	0	31636	
1589	0	31608	
1590	0	31596	
1591	0	31596	
1592	0	31584	
1593	0	31450	
1594	0	31308	
1595	0	31212	
1596	0	31244	
1597	0	31400	
1598	0	31476	
1599	0	31456	
1600	0	31392	
1601	0	31392	
1602	0	31428	
1603	0	31408	
1604	0	31372	
1605	0	31392	
1606	0	31442	
1607	0	31488	
1608	0	31514	
1609	0	31528	
1610	0	31526	
1611	0	31476	
1612	0	31388	
1613	0	31360	
1614	0	31416	
1615	0	31500	
1616	0	31540	
1617	0	31520	
1618	0	31452	
1619	0	31428	
1620	0	31436	
1621	0	31468	
1622	0	31472	
1623	0	31484	
1624	0	31520	
1625	0	31520	
1626	0	31482	
1627	0	31512	
1628	0	31552	
1629	0	31624	
1630	0	31656	
1631	0	31616	
1632	0	31632	
1633	0	31664	
1634	0	31680	
1635	0	31676	
1636	0	31652	
1637	0	31640	
1638	0	31676	
1639	0	31684	
1640	0	31704	
1641	0	31684	
1642	0	31680	
1643	0	31692	
1644	0	31716	
1645	0	31728	
1646	0	31724	
1647	0	31736	
1648	0	31748	
1649	0	31732	
1650	0	31776	
1651	0	31864	
1652	0	31896	
1653	0	31844	
1654	0	31796	
1655	0	31804	
1656	0	31852	
1657	0	31876	
1658	0	31864	
1659	0	31856	
1660	0	31912	
1661	0	31944	
1662	0	31928	
1663	0	31908	
1664	0	31916	
1665	0	31904	
1666	0	31912	
1667	0	31916	
1668	0	31940	
1669	0	31988	
1670	0	32040	
1671	0	32020	
1672	0	31932	
1673	0	31906	
1674	0	31976	
1675	0	31980	
1676	0	32024	
1677	0	32072	
1678	0	32124	
1679	0	32116	
1680	0	32032	
1681	0	31952	
1682	0	31928	
1683	0	31936	
1684	0	31940	
1685	0	31868	
1686	0	31832	
1687	0	31836	
1688	0	31808	
1689	0	31860	
1690	0	31900	
1691	0	31932	
1692	0	31952	
1693	0	32008	
1694	0	32076	
1695	0	32140	
1696	0	32176	
1697	0	32156	
1698	0	32124	
1699	0	32076	
1700	0	32064	
1701	0	32052	
1702	0	32028	
1703	0	32016	
1704	0	32016	
1705	0	32052	
1706	0	32104	
1707	0	32072	
1708	0	32000	
1709	0	32088	
1710	0	32144	
1711	0	32128	
1712	0	32154	
1713	0	32224	
1714	0	32288	
1715	0	32304	
1716	0	32268	
1717	0	32240	
1718	0	32240	
1719	0	32312	
1720	0	32320	
1721	0	32328	
1722	0	32268	
1723	0	32180	
1724	0	32132	
1725	0	32180	
1726	0	32268	
1727	0	32312	
1728	0	32292	
1729	0	32268	
1730	0	32248	
1731	0	32228	
1732	0	32248	
1733	0	32253	
1734	0	32288	
1735	0	32324	
1736	0	32308	
1737	0	32284	
1738	0	32296	
1739	0	32314	
1740	0	32354	
1741	0	32392	
1742	0	32368	
1743	0	32352	
1744	0	32352	
1745	0	32364	
1746	0	32356	
1747	0	32352	
1748	0	32388	
1749	0	32396	
1750	0	32416	
1751	0	32424	
1752	0	32392	
1753	0	32364	
1754	0	32396	
1755	0	32420	
1756	0	32464	
1757	0	32488	
1758	0	32456	
1759	0	32508	
1760	0	32576	
1761	0	32412	
1762	0	32348	
1763	0	32388	
1764	0	32420	
1765	0	32436	
1766	0	32448	
1767	0	32426	
1768	0	32412	
1769	0	32404	
1770	0	32432	
1771	0	32516	
1772	0	32596	
1773	0	32568	
1774	0	32492	
1775	0	32508	
1776	0	32448	
1777	0	32424	
1778	0	32480	
1779	0	32520	
1780	0	32540	
1781	0	32536	
1782	0	32544	
1783	0	32588	
1784	0	32640	
1785	0	32656	
1786	0	32696	
1787	0	32752	
1788	0	32856	
1789	0	33004	
1790	0	33132	
1791	0	33144	
1792	0	33128	
1793	0	33144	
1794	0	33216	
1795	0	33312	
1796	0	33368	
1797	0	33408	
1798	0	33440	
1799	0	33408	
1800	0	33386	
1801	0	33420	
1802	0	33416	
1803	0	33508	
1804	0	33556	
1805	0	33404	
1806	0	33244	
1807	0	33224	
1808	0	33276	
1809	0	33332	
1810	0	33364	
1811	0	33348	
1812	0	33348	
1813	0	33432	
1814	0	33644	
1815	0	33876	
1816	0	34100	
1817	0	34424	
1818	0	34772	
1819	0	35028	
1820	0	35180	
1821	0	35320	
1822	0	35464	
1823	0	35612	
1824	0	35760	
1825	0	35864	
1826	0	35840	
1827	0	35792	
1828	0	35728	
1829	0	35652	
1830	0	35600	
1831	0	35560	
1832	0	35520	
1833	0	35336	
1834	0	35164	
1835	0	35020	
1836	0	34888	
1837	0	34828	
1838	0	34676	
1839	0	34460	
1840	0	34330	
1841	0	34228	
1842	0	34120	
1843	0	33940	
1844	0	33820	
1845	0	33760	
1846	0	33700	
1847	0	33548	
1848	0	33400	
1849	0	33232	
1850	0	33080	
1851	0	32986	
1852	0	32948	
1853	0	32944	
1854	0	32844	
1855	0	32764	
1856	0	32708	
1857	0	32644	
1858	0	32532	
1859	0	32448	
1860	0	32392	
1861	0	32292	
1862	0	32096	
1863	0	31948	
1864	0	31864	
1865	0	31808	
1866	0	31720	
1867	0	31628	
1868	0	31616	
1869	0	31588	
1870	0	31576	
1871	0	31584	
1872	0	31584	
1873	0	31552	
1874	0	31504	
1875	0	31536	
1876	0	31592	
1877	0	31648	
1878	0	31684	
1879	0	31664	
1880	0	31664	
1881	0	31674	
1882	0	31704	
1883	0	31680	
1884	0	31660	
1885	0	31680	
1886	0	31748	
1887	0	31832	
1888	0	31876	
1889	0	31908	
1890	0	31884	
1891	0	31892	
1892	0	31872	
1893	0	31860	
1894	0	31876	
1895	0	31880	
1896	0	31756	
1897	0	31720	
1898	0	31832	
1899	0	31896	
1900	0	31984	
1901	0	32062	
1902	0	32052	
1903	0	31968	
1904	0	31856	
1905	0	31736	
1906	0	31536	
1907	0	31200	
1908	0	30712	
1909	0	30080	
1910	0	29396	
1911	0	28792	
1912	0	28472	
1913	0	28352	
1914	0	28304	
1915	0	28432	
1916	0	28700	
1917	0	29272	
1918	0	30132	
1919	0	31184	
1920	0	32440	
1921	0	33896	
1922	0	35572	
1923	0	37356	
1924	0	39420	
1925	0	41888	
1926	0	44784	
1927	0	48048	
1928	0	51496	
1929	0	54912	
1930	0	58192	
1931	0	61272	
1932	0	63144	
1933	0	64136	
1934	0	64592	
1935	0	64804	
1936	0	64852	
1937	0	64816	
1938	0	64720	
1939	0	64624	
1940	0	64512	
1941	0	64392	
1942	0	58856	
1943	0	53488	
1944	0	49092	
1945	0	45456	
1946	0	42484	
1947	0	40060	
1948	0	37976	
1949	0	36204	
1950	0	34574	
1951	0	32936	
1952	0	31306	
1953	0	29881	
1954	0	28800	
1955	0	28034	
1956	0	27452	
1957	0	27100	
1958	0	26940	
1959	0	26868	
1960	0	26744	
1961	0	26616	
1962	0	26624	
1963	0	26716	
1964	0	26904	
1965	0	27176	
1966	0	27512	
1967	0	27824	
1968	0	28184	
1969	0	28552	
1970	0	28876	
1971	0	29120	
1972	0	29328	
1973	0	29464	
1974	0	29556	
1975	0	29584	
1976	0	29648	
1977	0	29692	
1978	0	29594	
1979	0	29530	
1980	0	29496	
1981	0	29488	
1982	0	29448	
1983	0	29396	
1984	0	29352	
1985	0	29344	
1986	0	29360	
1987	0	29392	
1988	0	29420	
1989	0	29464	
1990	0	29540	
1991	0	29508	
1992	0	29416	
1993	0	29364	
1994	0	29356	
1995	0	29432	
1996	0	29560	
1997	0	29652	
1998	0	29708	
1999	0	29736	
2000	0	29740	
2001	0	29736	
2002	0	29760	
2003	0	29792	
2004	0	29924	
2005	0	29964	
2006	0	29912	
2007	0	29900	
2008	0	29948	
2009	0	30016	
2010	0	30040	
2011	0	30076	
2012	0	30176	
2013	0	30260	
2014	0	30332	
2015	0	30402	
2016	0	30482	
2017	0	30529	
2018	0	30588	
2019	0	30608	
2020	0	30628	
2021	0	30664	
2022	0	30668	
2023	0	30578	
2024	0	30632	
2025	0	30760	
2026	0	30840	
2027	0	30864	
2028	0	30856	
2029	0	30862	
2030	0	30920	
2031	0	30956	
2032	0	31032	
2033	0	31132	
2034	0	31212	
2035	0	31236	
2036	0	31272	
2037	0	31312	
2038	0	31350	
2039	0	31408	
2040	0	31500	
2041	0	31568	
2042	0	31544	
2043	0	31576	
2044	0	31640	
2045	0	31724	
2046	0	31748	
2047	0	31784	
2048	0	31852	
2049	0	31988	
2050	0	32064	
2051	0	32064	
2052	0	32104	
2053	0	32124	
2054	0	32164	
2055	0	32244	
2056	0	32300	
2057	0	32280	
2058	0	32292	
2059	0	32368	
2060	0	32476	
2061	0	32580	
2062	0	32644	
2063	0	32708	
2064	0	32784	
2065	0	32792	
2066	0	32804	
2067	0	32824	
2068	0	32832	
2069	0	32864	
2070	0	32896	
2071	0	32960	
2072	0	33010	
2073	0	33044	
2074	0	33036	
2075	0	33116	
2076	0	33200	
2077	0	33292	
2078	0	33410	
2079	0	33480	
2080	0	33540	
2081	0	33592	
2082	0	33624	
2083	0	33688	
2084	0	33748	
2085	0	33856	
2086	0	33954	
2087	0	33992	
2088	0	34020	
2089	0	34072	
2090	0	34156	
2091	0	34240	
2092	0	34328	
2093	0	34368	
2094	0	34368	
2095	0	34408	
2096	0	34472	
2097	0	34520	
2098	0	34552	
2099	0	34604	
2100	0	34644	
2101	0	34708	
2102	0	34808	
2103	0	34876	
2104	0	34932	
2105	0	34980	
2106	0	35060	
2107	0	35144	
2108	0	35212	
2109	0	35276	
2110	0	35352	
2111	0	35436	
2112	0	35500	
2113	0	35544	
2114	0	35552	
2115	0	35580	
2116	0	35668	
2117	0	35744	
2118	0	35780	
2119	0	35756	
2120	0	35784	
2121	0	35896	
2122	0	36000	
2123	0	36052	
2124	0	36072	
2125	0	36128	
2126	0	36160	
2127	0	36172	
2128	0	36176	
2129	0	36212	
2130	0	36292	
2131	0	36348	
2132	0	36352	
2133	0	36352	
2134	0	36364	
2135	0	36400	
2136	0	36440	
2137	0	36448	
2138	0	36464	
2139	0	36464	
2140	0	36476	
2141	0	36440	
2142	0	36408	
2143	0	36352	
2144	0	36324	
2145	0	36324	
2146	0	36304	
2147	0	36324	
2148	0	36364	
2149	0	36392	
2150	0	36416	
2151	0	36412	
2152	0	36336	
2153	0	36220	
2154	0	36120	
2155	0	36084	
2156	0	36068	
2157	0	36088	
2158	0	36076	
2159	0	36052	
2160	0	36032	
2161	0	36004	
2162	0	35978	
2163	0	35952	
2164	0	35976	
2165	0	35948	
2166	0	35836	
2167	0	35784	
2168	0	35792	
2169	0	35744	
2170	0	35656	
2171	0	35616	
2172	0	35584	
2173	0	35592	
2174	0	35576	
2175	0	35508	
2176	0	35412	
2177	0	35256	
2178	0	35108	
2179	0	34960	
2180	0	34816	
2181	0	34688	
2182	0	34560	
2183	0	34424	
2184	0	34272	
2185	0	34112	
2186	0	33944	
2187	0	33840	
2188	0	33712	
2189	0	33510	
2190	0	33288	
2191	0	33124	
2192	0	32948	
2193	0	32816	
2194	0	32676	
2195	0	32508	
2196	0	32352	
2197	0	32208	
2198	0	32054	
2199	0	31960	
2200	0	31876	
2201	0	31768	
2202	0	31596	
2203	0	31440	
2204	0	31316	
2205	0	31202	
2206	0	31068	
2207	0	30960	
2208	0	30812	
2209	0	30708	
2210	0	30648	
2211	0	30572	
2212	0	30484	
2213	0	30384	
2214	0	30292	
2215	0	30184	
2216	0	30072	
2217	0	29948	
2218	0	29820	
2219	0	29696	
2220	0	29604	
2221	0	29540	
2222	0	29516	
2223	0	29536	
2224	0	29500	
2225	0	29440	
2226	0	29404	
2227	0	29396	
2228	0	29368	
2229	0	29284	
2230	0	29250	
2231	0	29248	
2232	0	29192	
2233	0	29136	
2234	0	29124	
2235	0	29108	
2236	0	29096	
2237	0	29068	
2238	0	29060	
2239	0	29024	
2240	0	28986	
2241	0	28968	
2242	0	29016	
2243	0	29072	
2244	0	29092	
2245	0	29136	
2246	0	29208	
2247	0	29242	
2248	0	29220	
2249	0	29244	
2250	0	29276	
2251	0	29300	
2252	0	29376	
2253	0	29461	
2254	0	29512	
2255	0	29580	
2256	0	29612	
2257	0	29604	
2258	0	29596	
2259	0	29598	
2260	0	29644	
2261	0	29676	
2262	0	29664	
2263	0	29664	
2264	0	29698	
2265	0	29760	
2266	0	29786	
2267	0	29792	
2268	0	29796	
2269	0	29800	
2270	0	29816	
2271	0	29876	
2272	0	29956	
2273	0	30040	
2274	0	30080	
2275	0	30104	
2276	0	30168	
2277	0	30252	
2278	0	30316	
2279	0	30320	
2280	0	30348	
2281	0	30376	
2282	0	30404	
2283	0	30400	
2284	0	30456	
2285	0	30516	
2286	0	30522	
2287	0	30576	
2288	0	30640	
2289	0	30684	
2290	0	30712	
2291	0	30696	
2292	0	30648	
2293	0	30602	
2294	0	30562	
2295	0	30604	
2296	0	30664	
2297	0	30704	
2298	0	30740	
2299	0	30778	
2300	0	30824	
2301	0	30892	
2302	0	30944	
2303	0	30992	
2304	0	31040	
2305	0	31080	
2306	0	31064	
2307	0	31062	
2308	0	31098	
2309	0	31176	
2310	0	31232	
2311	0	31280	
2312	0	31252	
2313	0	31232	
2314	0	31290	
2315	0	31312	
2316	0	31332	
2317	0	31356	
2318	0	31386	
2319	0	31426	
2320	0	31496	
2321	0	31540	
2322	0	31540	
2323	0	31496	
2324	0	31448	
2325	0	31366	
2326	0	31372	
2327	0	31400	
2328	0	31472	
2329	0	31504	
2330	0	31524	
2331	0	31572	
2332	0	31580	
2333	0	31576	
2334	0	31564	
2335	0	31536	
2336	0	31556	
2337	0	31578	
2338	0	31580	
2339	0	31568	
2340	0	31552	
2341	0	31512	
2342	0	31516	
2343	0	31500	
2344	0	31444	
2345	0	31452	
2346	0	31536	
2347	0	31610	
2348	0	31672	
2349	0	31740	
2350	0	31784	
2351	0	31800	
2352	0	31808	
2353	0	31808	
2354	0	31812	
2355	0	31860	
2356	0	31860	
2357	0	31804	
2358	0	31764	
2359	0	31776	
2360	0	31780	
2361	0	31770	
2362	0	31794	
2363	0	31774	
2364	0	31776	
2365	0	31772	
2366	0	31762	
2367	0	31706	
2368	0	31656	
2369	0	31688	
2370	0	31740	
2371	0	31764	
2372	0	31736	
2373	0	31680	
2374	0	31672	
2375	0	31680	
2376	0	31644	
2377	0	31624	
2378	0	31640	
2379	0	31668	
2380	0	31732	
2381	0	31768	
2382	0	31776	
2383	0	31756	
2384	0	31736	
2385	0	31696	
2386	0	31704	
2387	0	31784	
2388	0	31784	
2389	0	31760	
2390	0	31758	
2391	0	31736	
2392	0	31692	
2393	0	31620	
2394	0	31552	
2395	0	31540	
2396	0	31548	
2397	0	31552	
2398	0	31544	
2399	0	31508	
2400	0	31500	
2401	0	31508	
2402	0	31568	
2403	0	31664	
2404	0	31692	
2405	0	31676	
2406	0	31656	
2407	0	31636	
2408	0	31588	
2409	0	31576	
2410	0	31572	
2411	0	31516	
2412	0	31464	
2413	0	31480	
2414	0	31514	
2415	0	31552	
2416	0	31604	
2417	0	31656	
2418	0	31692	
2419	0	31688	
2420	0	31652	
2421	0	31636	
2422	0	31608	
2423	0	31624	
2424	0	31664	
2425	0	31668	
2426	0	31720	
2427	0	31744	
2428	0	31792	
2429	0	31816	
2430	0	31824	
2431	0	31784	
2432	0	31796	
2433	0	31824	
2434	0	31808	
2435	0	31796	
2436	0	31792	
2437	0	31808	
2438	0	31828	
2439	0	31824	
2440	0	31828	
2441	0	31820	
2442	0	31820	
2443	0	31810	
2444	0	31848	
2445	0	31872	
2446	0	31860	
2447	0	31872	
2448	0	31832	
2449	0	31810	
2450	0	31836	
2451	0	31858	
2452	0	31876	
2453	0	31884	
2454	0	31936	
2455	0	31996	
2456	0	31980	
2457	0	31938	
2458	0	31896	
2459	0	31908	
2460	0	31932	
2461	0	31968	
2462	0	31988	
2463	0	31984	
2464	0	32040	
2465	0	32080	
2466	0	32060	
2467	0	32028	
2468	0	31968	
2469	0	31940	
2470	0	31936	
2471	0	31952	
2472	0	32012	
2473	0	32068	
2474	0	32100	
2475	0	32100	
2476	0	32124	
2477	0	32132	
2478	0	32140	
2479	0	32136	
2480	0	32140	
2481	0	32184	
2482	0	32184	
2483	0	32172	
2484	0	32196	
2485	0	32224	
2486	0	32252	
2487	0	32296	
2488	0	32282	
2489	0	32284	
2490	0	32320	
2491	0	32324	
2492	0	32300	
2493	0	32290	
2494	0	32282	
2495	0	32296	
2496	0	32324	
2497	0	32304	
2498	0	32212	
2499	0	32160	
2500	0	32200	
2501	0	32232	
2502	0	32288	
2503	0	32332	
2504	0	32352	
2505	0	32392	
2506	0	32384	
2507	0	32344	
2508	0	32296	
2509	0	32228	
2510	0	32180	
2511	0	32236	
2512	0	32308	
2513	0	32336	
2514	0	32322	
2515	0	32248	
2516	0	32192	
2517	0	32204	
2518	0	32244	
2519	0	32336	
2520	0	32436	
2521	0	32508	
2522	0	32576	
2523	0	32596	
2524	0	32612	
2525	0	32592	
2526	0	32640	
2527	0	32660	
2528	0	32672	
2529	0	32656	
2530	0	32626	
2531	0	32598	
2532	0	32608	
2533	0	32640	
2534	0	32640	
2535	0	32668	
2536	0	32720	
2537	0	32768	
2538	0	32780	
2539	0	32856	
2540	0	32980	
2541	0	33068	
2542	0	33108	
2543	0	33148	
2544	0	33172	
2545	0	33232	
2546	0	33344	
2547	0	33424	
2548	0	33424	
2549	0	33456	
2550	0	33504	
2551	0	33576	
2552	0	33580	
2553	0	33548	
2554	0	33496	
2555	0	33448	
2556	0	33376	
2557	0	33268	
2558	0	33200	
2559	0	33208	
2560	0	33248	
2561	0	33296	
2562	0	33288	
2563	0	33332	
2564	0	33452	
2565	0	33652	
2566	0	33920	
2567	0	34212	
2568	0	34532	
2569	0	34828	
2570	0	35008	
2571	0	35172	
2572	0	35310	
2573	0	35472	
2574	0	35620	
2575	0	35768	
2576	0	35832	
2577	0	35816	
2578	0	35792	
2579	0	35712	
2580	0	35624	
2581	0	35536	
2582	0	35476	
2583	0	35392	
2584	0	35248	
2585	0	35104	
2586	0	34952	
2587	0	34820	
2588	0	34664	
2589	0	34522	
2590	0	34396	
2591	0	34284	
2592	0	34216	
2593	0	34080	
2594	0	33916	
2595	0	33784	
2596	0	33724	
2597	0	33638	
2598	0	33460	
2599	0	33284	
2600	0	33208	
2601	0	33196	
2602	0	33160	
2603	0	33056	
2604	0	32896	
2605	0	32780	
2606	0	32724	
2607	0	32698	
2608	0	32640	
2609	0	32514	
2610	0	32364	
2611	0	32256	
2612	0	32192	
2613	0	32104	
2614	0	32032	
2615	0	32012	
2616	0	31920	
2617	0	31778	
2618	0	31658	
2619	0	31592	
2620	0	31564	
2621	0	31560	
2622	0	31532	
2623	0	31472	
2624	0	31460	
2625	0	31504	
2626	0	31584	
2627	0	31688	
2628	0	31840	
2629	0	31900	
2630	0	31860	
2631	0	31808	
2632	0	31752	
2633	0	31700	
2634	0	31674	
2635	0	31608	
2636	0	31530	
2637	0	31544	
2638	0	31640	
2639	0	31708	
2640	0	31776	
2641	0	31880	
2642	0	31928	
2643	0	31984	
2644	0	32060	
2645	0	32072	
2646	0	32048	
2647	0	31992	
2648	0	31936	
2649	0	31888	
2650	0	31842	
2651	0	31824	
2652	0	31840	
2653	0	31902	
2654	0	31940	
2655	0	31868	
2656	0	31668	
2657	0	31384	
2658	0	30924	
2659	0	30328	
2660	0	29620	
2661	0	28952	
2662	0	28504	
2663	0	28240	
2664	0	28108	
2665	0	28108	
2666	0	28372	
2667	0	28940	
2668	0	29794	
2669	0	30824	
2670	0	31936	
2671	0	33208	
2672	0	34688	
2673	0	36320	
2674	0	38158	
2675	0	40416	
2676	0	43134	
2677	0	46284	
2678	0	49708	
2679	0	53184	
2680	0	56564	
2681	0	59856	
2682	0	62384	
2683	0	63704	
2684	0	64388	
2685	0	64692	
2686	0	64796	
2687	0	64796	
2688	0	64736	
2689	0	64648	
2690	0	64528	
2691	0	64432	
2692	0	60788	
2693	0	55064	
2694	0	50384	
2695	0	46576	
2696	0	43372	
2697	0	40824	
2698	0	38680	
2699	0	36808	
2700	0	35124	
2701	0	33520	
2702	0	31950	
2703	0	30428	
2704	0	29102	
2705	0	28184	
2706	0	27520	
2707	0	27024	
2708	0	26780	
2709	0	26652	
2710	0	26556	
2711	0	26396	
2712	0	26360	
2713	0	26416	
2714	0	26600	
2715	0	26950	
2716	0	27296	
2717	0	27644	
2718	0	27996	
2719	0	28308	
2720	0	28608	
2721	0	28856	
2722	0	29088	
2723	0	29264	
2724	0	29408	
2725	0	29532	
2726	0	29616	
2727	0	29666	
2728	0	29660	
2729	0	29636	
2730	0	29648	
2731	0	29652	
2732	0	29620	
2733	0	29568	
2734	0	29516	
2735	0	29472	
2736	0	29464	
2737	0	29468	
2738	0	29484	
2739	0	29508	
2740	0	29538	
2741	0	29568	
2742	0	29592	
2743	0	29624	
2744	0	29680	
2745	0	29712	
2746	0	29764	
2747	0	29856	
2748	0	29864	
2749	0	29872	
2750	0	29912	
2751	0	29960	
2752	0	29976	
2753	0	30008	
2754	0	29988	
2755	0	30034	
2756	0	30096	
2757	0	30152	
2758	0	30188	
2759	0	30212	
2760	0	30208	
2761	0	30272	
2762	0	30300	
2763	0	30308	
2764	0	30352	
2765	0	30432	
2766	0	30496	
2767	0	30548	
2768	0	30570	
2769	0	30608	
2770	0	30684	
2771	0	30752	
2772	0	30836	
2773	0	30900	
2774	0	30950	
2775	0	30948	
2776	0	31004	
2777	0	31086	
2778	0	31224	
2779	0	31292	
2780	0	31368	
2781	0	31388	
2782	0	31384	
2783	0	31412	
2784	0	31468	
2785	0	31528	
2786	0	31544	
2787	0	31528	
2788	0	31492	
2789	0	31512	
2790	0	31540	
2791	0	31568	
2792	0	31656	
2793	0	31722	
2794	0	31788	
2795	0	31876	
2796	0	31964	
2797	0	32052	
2798	0	32116	
2799	0	32156	
2800	0	32156	
2801	0	32128	
2802	0	32128	
2803	0	32188	
2804	0	32248	
2805	0	32284	
2806	0	32316	
2807	0	32328	
2808	0	32404	
2809	0	32480	
2810	0	32566	
2811	0	32632	
2812	0	32724	
2813	0	32824	
2814	0	32900	
2815	0	32964	
2816	0	33040	
2817	0	33092	
2818	0	33096	
2819	0	33172	
2820	0	33296	
2821	0	33340	
2822	0	33352	
2823	0	33461	
2824	0	33516	
2825	0	33540	
2826	0	33548	
2827	0	33544	
2828	0	33580	
2829	0	33640	
2830	0	33708	
2831	0	33784	
2832	0	33858	
2833	0	33912	
2834	0	33988	
2835	0	34008	
2836	0	34072	
2837	0	34140	
2838	0	34232	
2839	0	34344	
2840	0	34438	
2841	0	34496	
2842	0	34528	
2843	0	34612	
2844	0	34704	
2845	0	34864	
2846	0	34956	
2847	0	35032	
2848	0	35068	
2849	0	35120	
2850	0	35116	
2851	0	35032	
2852	0	34968	
2853	0	34956	
2854	0	34944	
2855	0	35060	
2856	0	35208	
2857	0	35354	
2858	0	35444	
2859	0	35516	
2860	0	35604	
2861	0	35688	
2862	0	35796	
2863	0	35936	
2864	0	36028	
2865	0	36074	
2866	0	36184	
2867	0	36256	
2868	0	36296	
2869	0	36276	
2870	0	36300	
2871	0	36316	
2872	0	36328	
2873	0	36280	
2874	0	36264	
2875	0	36320	
2876	0	36444	
2877	0	36540	
2878	0	36616	
2879	0	36684	
2880	0	36752	
2881	0	36748	
2882	0	36756	
2883	0	36788	
2884	0	36832	
2885	0	36892	
2886	0	36960	
2887	0	37016	
2888	0	37020	
2889	0	36980	
2890	0	36968	
2891	0	36956	
2892	0	36948	
2893	0	36936	
2894	0	36892	
2895	0	36856	
2896	0	36808	
2897	0	36820	
2898	0	36844	
2899	0	36804	
2900	0	36780	
2901	0	36752	
2902	0	36704	
2903	0	36608	
2904	0	36570	
2905	0	36544	
2906	0	36552	
2907	0	36564	
2908	0	36592	
2909	0	36596	
2910	0	36560	
2911	0	36504	
2912	0	36460	
2913	0	36416	
2914	0	36392	
2915	0	36384	
2916	0	36324	
2917	0	36280	
2918	0	36206	
2919	0	36124	
2920	0	36036	
2921	0	35972	
2922	0	35916	
2923	0	35888	
2924	0	35796	
2925	0	35616	
2926	0	35420	
2927	0	35272	
2928	0	35132	
2929	0	35016	
2930	0	34936	
2931	0	34816	
2932	0	34656	
2933	0	34476	
2934	0	34312	
2935	0	34152	
2936	0	33976	
2937	0	33812	
2938	0	33616	
2939	0	33440	
2940	0	33312	
2941	0	33148	
2942	0	32944	
2943	0	32712	
2944	0	32486	
2945	0	32284	
2946	0	32108	
2947	0	31900	
2948	0	31696	
2949	0	31552	
2950	0	31392	
2951	0	31224	
2952	0	31080	
2953	0	30944	
2954	0	30816	
2955	0	30684	
2956	0	30524	
2957	0	30392	
2958	0	30272	
2959	0	30180	
2960	0	30072	
2961	0	29952	
2962	0	29792	
2963	0	29676	
2964	0	29584	
2965	0	29480	
2966	0	29408	
2967	0	29320	
2968	0	29240	
2969	0	29172	
2970	0	29072	
2971	0	28986	
2972	0	28912	
2973	0	28824	
2974	0	28760	
2975	0	28700	
2976	0	28604	
2977	0	28512	
2978	0	28444	
2979	0	28417	
2980	0	28420	
2981	0	28452	
2982	0	28496	
2983	0	28500	
2984	0	28516	
2985	0	28532	
2986	0	28532	
2987	0	28540	
2988	0	28520	
2989	0	28532	
2990	0	28560	
2991	0	28580	
2992	0	28576	
2993	0	28536	
2994	0	28514	
2995	0	28492	
2996	0	28488	
2997	0	28470	
2998	0	28464	
2999	0	28440	
3000	0	28428	
3001	0	28448	
3002	0	28504	
3003	0	28600	
3004	0	28640	
3005	0	28648	
3006	0	28636	
3007	0	28640	
3008	0	28676	
3009	0	28714	
3010	0	28794	
3011	0	28860	
3012	0	28916	
3013	0	29000	
3014	0	29040	
3015	0	29120	
3016	0	29176	
3017	0	29200	
3018	0	29236	
3019	0	29280	
3020	0	29308	
3021	0	29332	
3022	0	29404	
3023	0	29472	
3024	0	29488	
3025	0	29512	
3026	0	29580	
3027	0	29636	
3028	0	29644	
3029	0	29672	
3030	0	29730	
3031	0	29796	
3032	0	29848	
3033	0	29912	
3034	0	29964	
3035	0	30036	
3036	0	30078	
3037	0	30108	
3038	0	30108	
3039	0	30136	
3040	0	30200	
3041	0	30232	
3042	0	30224	
3043	0	30264	
3044	0	30336	
3045	0	30432	
3046	0	30444	
3047	0	30440	
3048	0	30480	
3049	0	30512	
3050	0	30560	
3051	0	30600	
3052	0	30616	
3053	0	30656	
3054	0	30648	
3055	0	30672	
3056	0	30688	
3057	0	30736	
3058	0	30812	
3059	0	30840	
3060	0	30860	
3061	0	30856	
3062	0	30848	
3063	0	30848	
3064	0	30876	
3065	0	30880	
3066	0	30880	
3067	0	30900	
3068	0	30912	
3069	0	30900	
3070	0	30912	
3071	0	30960	
3072	0	31006	
3073	0	31020	
3074	0	31020	
3075	0	31028	
3076	0	31048	
3077	0	31048	
3078	0	31060	
3079	0	31096	
3080	0	31148	
3081	0	31176	
3082	0	31200	
3083	0	31212	
3084	0	31212	
3085	0	31212	
3086	0	31224	
3087	0	31276	
3088	0	31320	
3089	0	31320	
3090	0	31312	
3091	0	31320	
3092	0	31360	
3093	0	31356	
3094	0	31344	
3095	0	31376	
3096	0	31408	
3097	0	31416	
3098	0	31418	
3099	0	31388	
3100	0	31360	
3101	0	31340	
3102	0	31338	
3103	0	31328	
3104	0	31372	
3105	0	31366	
3106	0	31352	
3107	0	31322	
3108	0	31284	
3109	0	31280	
3110	0	31258	
3111	0	31268	
3112	0	31320	
3113	0	31374	
3114	0	31444	
3115	0	31470	
3116	0	31440	
3117	0	31392	
3118	0	31336	
3119	0	31296	
3120	0	31264	
3121	0	31240	
3122	0	31264	
3123	0	31268	
3124	0	31256	
3125	0	31274	
3126	0	31260	
3127	0	31260	
3128	0	31304	
3129	0	31304	
3130	0	31304	
3131	0	31336	
3132	0	31312	
3133	0	31256	
3134	0	31244	
3135	0	31244	
3136	0	31224	
3137	0	31236	
3138	0	31308	
3139	0	31344	
3140	0	31344	
3141	0	31340	
3142	0	31372	
3143	0	31368	
3144	0	31368	
3145	0	31388	
3146	0	31405	
3147	0	31420	
3148	0	31416	
3149	0	31352	
3150	0	31312	
3151	0	31296	
3152	0	31290	
3153	0	31240	
3154	0	31208	
3155	0	31260	
3156	0	31346	
3157	0	31364	
3158	0	31328	
3159	0	31320	
3160	0	31300	
3161	0	31260	
3162	0	31240	
3163	0	31252	
3164	0	31240	
3165	0	31220	
3166	0	31216	
3167	0	31280	
3168	0	31308	
3169	0	31296	
3170	0	31284	
3171	0	31256	
3172	0	31204	
3173	0	31184	
3174	0	31172	
3175	0	31224	
3176	0	31288	
3177	0	31340	
3178	0	31396	
3179	0	31418	
3180	0	31380	
3181	0	31312	
3182	0	31296	
3183	0	31318	
3184	0	31392	
3185	0	31464	
3186	0	31472	
3187	0	31464	
3188	0	31424	
3189	0	31408	
3190	0	31416	
3191	0	31424	
3192	0	31408	
3193	0	31356	
3194	0	31352	
3195	0	31300	
3196	0	31228	
3197	0	31224	
3198	0	31226	
3199	0	31264	
3200	0	31304	
3201	0	31352	
3202	0	31364	
3203	0	31368	
3204	0	31394	
3205	0	31416	
3206	0	31366	
3207	0	31356	
3208	0	31396	
3209	0	31428	
3210	0	31448	
3211	0	31484	
3212	0	31478	
3213	0	31452	
3214	0	31440	
3215	0	31492	
3216	0	31512	
3217	0	31496	
3218	0	31504	
3219	0	31504	
3220	0	31460	
3221	0	31464	
3222	0	31532	
3223	0	31520	
3224	0	31484	
3225	0	31464	
3226	0	31484	
3227	0	31522	
3228	0	31580	
3229	0	31600	
3230	0	31560	
3231	0	31544	
3232	0	31580	
3233	0	31628	
3234	0	31616	
3235	0	31632	
3236	0	31676	
3237	0	31716	
3238	0	31832	
3239	0	31976	
3240	0	32056	
3241	0	32104	
3242	0	32112	
3243	0	32140	
3244	0	32112	
3245	0	32176	
3246	0	32260	
3247	0	32344	
3248	0	32408	
3249	0	32452	
3250	0	32524	
3251	0	32564	
3252	0	32548	
3253	0	32512	
3254	0	32424	
3255	0	32304	
3256	0	32274	
3257	0	32224	
3258	0	32224	
3259	0	32296	
3260	0	32336	
3261	0	32372	
3262	0	32426	
3263	0	32548	
3264	0	32688	
3265	0	32864	
3266	0	33150	
3267	0	33464	
3268	0	33732	
3269	0	33988	
3270	0	34240	
3271	0	34388	
3272	0	34508	
3273	0	34664	
3274	0	34808	
3275	0	34904	
3276	0	34944	
3277	0	34928	
3278	0	34936	
3279	0	34860	
3280	0	34768	
3281	0	34676	
3282	0	34560	
3283	0	34428	
3284	0	34260	
3285	0	34096	
3286	0	33976	
3287	0	33928	
3288	0	33864	
3289	0	33772	
3290	0	33644	
3291	0	33452	
3292	0	33272	
3293	0	33096	
3294	0	32964	
3295	0	32836	
3296	0	32744	
3297	0	32652	
3298	0	32572	
3299	0	32464	
3300	0	32340	
3301	0	32248	
3302	0	32144	
3303	0	32096	
3304	0	32064	
3305	0	32020	
3306	0	31912	
3307	0	31756	
3308	0	31664	
3309	0	31576	
3310	0	31472	
3311	0	31376	
3312	0	31320	
3313	0	31284	
3314	0	31217	
3315	0	31076	
3316	0	30940	
3317	0	30832	
3318	0	30812	
3319	0	30836	
3320	0	30812	
3321	0	30792	
3322	0	30784	
3323	0	30744	
3324	0	30740	
3325	0	30732	
3326	0	30700	
3327	0	30716	
3328	0	30760	
3329	0	30780	
3330	0	30786	
3331	0	30832	
3332	0	30862	
3333	0	30856	
3334	0	30928	
3335	0	30996	
3336	0	31072	
3337	0	31124	
3338	0	31148	
3339	0	31136	
3340	0	31136	
3341	0	31124	
3342	0	31090	
3343	0	31112	
3344	0	31144	
3345	0	31124	
3346	0	31160	
3347	0	31208	
3348	0	31280	
3349	0	31360	
3350	0	31408	
3351	0	31388	
3352	0	31400	
3353	0	31412	
3354	0	31392	
3355	0	31300	
3356	0	31076	
3357	0	30700	
3358	0	30268	
3359	0	29736	
3360	0	29096	
3361	0	28464	
3362	0	28052	
3363	0	27860	
3364	0	27848	
3365	0	27968	
3366	0	28196	
3367	0	28688	
3368	0	29536	
3369	0	30704	
3370	0	31900	
3371	0	33200	
3372	0	34732	
3373	0	36456	
3374	0	38424	
3375	0	40816	
3376	0	43592	
3377	0	46784	
3378	0	50136	
3379	0	53480	
3380	0	56732	
3381	0	59924	
3382	0	62668	
3383	0	64184	
3384	0	64976	
3385	0	65328	
3386	0	65472	
3387	0	65488	
3388	0	65436	
3389	0	65344	
3390	0	65240	
3391	0	63568	
3392	0	57260	
3393	0	51432	
3394	0	46544	
3395	0	42588	
3396	0	39348	
3397	0	36816	
3398	0	34760	
3399	0	33024	
3400	0	31528	
3401	0	30170	
3402	0	28852	
3403	0	27648	
3404	0	26596	
3405	0	25908	
3406	0	25488	
3407	0	25188	
3408	0	25044	
3409	0	25068	
3410	0	25120	
3411	0	25132	
3412	0	25220	
3413	0	25490	
3414	0	25948	
3415	0	26364	
3416	0	26756	
3417	0	27188	
3418	0	27662	
3419	0	28108	
3420	0	28460	
3421	0	28740	
3422	0	28980	
3423	0	29192	
3424	0	29368	
3425	0	29496	
3426	0	29620	
3427	0	29680	
3428	0	29676	
3429	0	29672	
3430	0	29656	
3431	0	29604	
3432	0	29596	
3433	0	29608	
3434	0	29625	
3435	0	29632	
3436	0	29672	
3437	0	29688	
3438	0	29680	
3439	0	29660	
3440	0	29664	
3441	0	29668	
3442	0	29628	
3443	0	29644	
3444	0	29696	
3445	0	29784	
3446	0	29860	
3447	0	29928	
3448	0	30028	
3449	0	30066	
3450	0	30120	
3451	0	30192	
3452	0	30288	
3453	0	30432	
3454	0	30536	
3455	0	30572	
3456	0	30564	
3457	0	30596	
3458	0	30612	
3459	0	30632	
3460	0	30688	
3461	0	30724	
3462	0	30748	
3463	0	30684	
3464	0	30636	
3465	0	30652	
3466	0	30716	
3467	0	30796	
3468	0	30816	
3469	0	30908	
3470	0	31024	
3471	0	31092	
3472	0	31160	
3473	0	31230	
3474	0	31252	
3475	0	31252	
3476	0	31240	
3477	0	31232	
3478	0	31340	
3479	0	31484	
3480	0	31592	
3481	0	31648	
3482	0	31700	
3483	0	31740	
3484	0	31820	
3485	0	31872	
3486	0	31920	
3487	0	31948	
3488	0	31954	
3489	0	31992	
3490	0	32044	
3491	0	32100	
3492	0	32184	
3493	0	32224	
3494	0	32276	
3495	0	32320	
3496	0	32332	
3497	0	32364	
3498	0	32420	
3499	0	32500	
3500	0	32516	
3501	0	32496	
3502	0	32448	
3503	0	32432	
3504	0	32520	
3505	0	32576	
3506	0	32660	
3507	0	32720	
3508	0	32780	
3509	0	32852	
3510	0	32936	
3511	0	33060	
3512	0	33136	
3513	0	33176	
3514	0	33204	
3515	0	33216	
3516	0	33272	
3517	0	33360	
3518	0	33444	
3519	0	33520	
3520	0	33564	
3521	0	33588	
3522	0	33612	
3523	0	33680	
3524	0	33742	
3525	0	33760	
3526	0	33828	
3527	0	33840	
3528	0	33876	
3529	0	33896	
3530	0	33916	
3531	0	34018	
3532	0	34100	
3533	0	34116	
3534	0	34112	
3535	0	34144	
3536	0	34220	
3537	0	34268	
3538	0	34286	
3539	0	34344	
3540	0	34464	
3541	0	34708	
3542	0	34892	
3543	0	35028	
3544	0	35088	
3545	0	35148	
3546	0	35216	
3547	0	35316	
3548	0	35292	
3549	0	35274	
3550	0	35304	
3551	0	35420	
3552	0	35468	
3553	0	35552	
3554	0	35640	
3555	0	35664	
3556	0	35684	
3557	0	35696	
3558	0	35746	
3559	0	35802	
3560	0	35908	
3561	0	35988	
3562	0	36008	
3563	0	36040	
3564	0	36082	
3565	0	36196	
3566	0	36300	
3567	0	36400	
3568	0	36448	
3569	0	36516	
3570	0	36564	
3571	0	36650	
3572	0	36672	
3573	0	36664	
3574	0	36652	
3575	0	36696	
3576	0	36760	
3577	0	36820	
3578	0	36892	
3579	0	36928	
3580	0	37000	
3581	0	37152	
3582	0	37224	
3583	0	37280	
3584	0	37348	
3585	0	37400	
3586	0	37440	
3587	0	37476	
3588	0	37460	
3589	0	37386	
3590	0	37296	
3591	0	37276	
3592	0	37300	
3593	0	37320	
3594	0	37300	
3595	0	37232	
3596	0	37136	
3597	0	37076	
3598	0	37028	
3599	0	36996	
3600	0	37008	
3601	0	37008	
3602	0	36972	
3603	0	36976	
3604	0	36960	
3605	0	36968	
3606	0	36960	
3607	0	36984	
3608	0	36984	
3609	0	36972	
3610	0	36964	
3611	0	36974	
3612	0	37000	
3613	0	36954	
3614	0	36920	
3615	0	36892	
3616	0	36844	
3617	0	36756	
3618	0	36672	
3619	0	36520	
3620	0	36356	
3621	0	36216	
3622	0	36112	
3623	0	36044	
3624	0	35976	
3625	0	35860	
3626	0	35700	
3627	0	35572	
3628	0	35392	
3629	0	35176	
3630	0	35032	
3631	0	34960	
3632	0	34848	
3633	0	34732	
3634	0	34632	
3635	0	34488	
3636	0	34292	
3637	0	34024	
3638	0	33760	
3639	0	33608	
3640	0	33432	
3641	0	33192	
3642	0	32968	
3643	0	32728	
3644	0	32532	
3645	0	32344	
3646	0	32170	
3647	0	32020	
3648	0	31890	
3649	0	31736	
3650	0	31584	
3651	0	31488	
3652	0	31360	
3653	0	31234	
3654	0	31132	
3655	0	31088	
3656	0	31016	
3657	0	30896	
3658	0	30744	
3659	0	30608	
3660	0	30480	
3661	0	30364	
3662	0	30264	
3663	0	30132	
3664	0	29938	
3665	0	29784	
3666	0	29656	
3667	0	29604	
3668	0	29512	
3669	0	29416	
3670	0	29328	
3671	0	29230	
3672	0	29172	
3673	0	29112	
3674	0	29032	
3675	0	28980	
3676	0	28968	
3677	0	28924	
3678	0	28864	
3679	0	28820	
3680	0	28712	
3681	0	28596	
3682	0	28580	
3683	0	28560	
3684	0	28580	
3685	0	28608	
3686	0	28640	
3687	0	28704	
3688	0	28740	
3689	0	28756	
3690	0	28804	
3691	0	28856	
3692	0	28848	
3693	0	28816	
3694	0	28724	
3695	0	28656	
3696	0	28636	
3697	0	28656	
3698	0	28624	
3699	0	28608	
3700	0	28704	
3701	0	28802	
3702	0	28882	
3703	0	28904	
3704	0	28904	
3705	0	28960	
3706	0	29004	
3707	0	28992	
3708	0	29040	
3709	0	29156	
3710	0	29288	
3711	0	29368	
3712	0	29362	
3713	0	29296	
3714	0	29272	
3715	0	29250	
3716	0	29224	
3717	0	29184	
3718	0	29248	
3719	0	29392	
3720	0	29500	
3721	0	29512	
3722	0	29488	
3723	0	29484	
3724	0	29456	
3725	0	29424	
3726	0	29444	
3727	0	29488	
3728	0	29480	
3729	0	29516	
3730	0	29580	
3731	0	29648	
3732	0	29773	
3733	0	29860	
3734	0	29888	
3735	0	29928	
3736	0	29964	
3737	0	29940	
3738	0	30052	
3739	0	30202	
3740	0	30348	
3741	0	30492	
3742	0	30532	
3743	0	30488	
3744	0	30520	
3745	0	30576	
3746	0	30620	
3747	0	30656	
3748	0	30700	
3749	0	30768	
3750	0	30796	
3751	0	30796	
3752	0	30836	
3753	0	30844	
3754	0	30828	
3755	0	30836	
3756	0	30868	
3757	0	30920	
3758	0	30924	
3759	0	30900	
3760	0	30848	
3761	0	30804	
3762	0	30784	
3763	0	30818	
3764	0	30860	
3765	0	30828	
3766	0	30764	
3767	0	30788	
3768	0	30892	
3769	0	30992	
3770	0	31140	
3771	0	31308	
3772	0	31496	
3773	0	31612	
3774	0	31586	
3775	0	31536	
3776	0	31444	
3777	0	31388	
3778	0	31372	
3779	0	31400	
3780	0	31504	
3781	0	31584	
3782	0	31656	
3783	0	31680	
3784	0	31688	
3785	0	31668	
3786	0	31632	
3787	0	31620	
3788	0	31596	
3789	0	31608	
3790	0	31616	
3791	0	31612	
3792	0	31576	
3793	0	31608	
3794	0	31688	
3795	0	31724	
3796	0	31732	
3797	0	31756	
3798	0	31824	
3799	0	31968	
3800	0	32104	
3801	0	32024	
3802	0	31872	
3803	0	31770	
3804	0	31680	
3805	0	31668	
3806	0	31700	
3807	0	31716	
3808	0	31768	
3809	0	31848	
3810	0	31866	
3811	0	31876	
3812	0	31900	
3813	0	31936	
3814	0	31962	
3815	0	31928	
3816	0	31836	
3817	0	31776	
3818	0	31756	
3819	0	31772	
3820	0	31812	
3821	0	31800	
3822	0	31668	
3823	0	31552	
3824	0	31440	
3825	0	31332	
3826	0	31248	
3827	0	31248	
3828	0	31312	
3829	0	31436	
3830	0	31584	
3831	0	31696	
3832	0	31712	
3833	0	31688	
3834	0	31628	
3835	0	31564	
3836	0	31520	
3837	0	31496	
3838	0	31456	
3839	0	31476	
3840	0	31592	
3841	0	31752	
3842	0	31832	
3843	0	31820	
3844	0	31832	
3845	0	31936	
3846	0	31960	
3847	0	31936	
3848	0	31908	
3849	0	31864	
3850	0	31844	
3851	0	31876	
3852	0	31852	
3853	0	31770	
3854	0	31632	
3855	0	31448	
3856	0	31356	
3857	0	31424	
3858	0	31596	
3859	0	31722	
3860	0	31856	
3861	0	32040	
3862	0	32152	
3863	0	32040	
3864	0	31892	
3865	0	31696	
3866	0	31564	
3867	0	31610	
3868	0	31716	
3869	0	31844	
3870	0	32072	
3871	0	32448	
3872	0	32758	
3873	0	32800	
3874	0	32604	
3875	0	32480	
3876	0	32432	
3877	0	32384	
3878	0	32348	
3879	0	32248	
3880	0	32284	
3881	0	32314	
3882	0	32260	
3883	0	32208	
3884	0	32308	
3885	0	32440	
3886	0	32620	
3887	0	32784	
3888	0	32818	
3889	0	32784	
3890	0	32720	
3891	0	32612	
3892	0	32608	
3893	0	32748	
3894	0	32804	
3895	0	32816	
3896	0	32856	
3897	0	32968	
3898	0	32988	
3899	0	32958	
3900	0	32928	
3901	0	33000	
3902	0	33066	
3903	0	33192	
3904	0	33416	
3905	0	33548	
3906	0	33720	
3907	0	33880	
3908	0	34120	
3909	0	34368	
3910	0	34610	
3911	0	34828	
3912	0	35024	
3913	0	35116	
3914	0	35104	
3915	0	35012	
3916	0	34892	
3917	0	34734	
3918	0	34602	
3919	0	34576	
3920	0	34596	
3921	0	34514	
3922	0	34480	
3923	0	34552	
3924	0	34626	
3925	0	34616	
3926	0	34532	
3927	0	34368	
3928	0	34124	
3929	0	33940	
3930	0	33692	
3931	0	33316	
3932	0	33048	
3933	0	32852	
3934	0	32664	
3935	0	32524	
3936	0	32417	
3937	0	32404	
3938	0	32392	
3939	0	32308	
3940	0	32188	
3941	0	32060	
3942	0	32060	
3943	0	32116	
3944	0	32136	
3945	0	32028	
3946	0	31840	
3947	0	31660	
3948	0	31488	
3949	0	31430	
3950	0	31384	
3951	0	31338	
3952	0	31372	
3953	0	31348	
3954	0	31368	
3955	0	31500	
3956	0	31670	
3957	0	31682	
3958	0	31500	
3959	0	31248	
3960	0	31038	
3961	0	30908	
3962	0	30804	
3963	0	30716	
3964	0	30704	
3965	0	30716	
3966	0	30748	
3967	0	30764	
3968	0	30820	
3969	0	30876	
3970	0	30964	
3971	0	31000	
3972	0	31124	
3973	0	31276	
3974	0	31384	
3975	0	31452	
3976	0	31464	
3977	0	31464	
3978	0	31433	
3979	0	31540	
3980	0	31748	
3981	0	31944	
3982	0	32008	
3983	0	32036	
3984	0	32062	
3985	0	32044	
3986	0	31992	
3987	0	31960	
3988	0	31960	
3989	0	31960	
3990	0	31964	
3991	0	31988	
3992	0	31868	
3993	0	31592	
3994	0	31112	
3995	0	30792	
3996	0	30704	
3997	0	30722	
3998	0	30656	
3999	0	30404	
4000	0	30056	
4001	0	29784	
4002	0	29612	
4003	0	29472	
4004	0	29410	
4005	0	29632	
4006	0	30016	
4007	0	30592	
4008	0	31376	
4009	0	32264	
4010	0	33204	
4011	0	34364	
4012	0	35904	
4013	0	37592	
4014	0	39636	
4015	0	42108	
4016	0	45152	
4017	0	48384	
4018	0	51572	
4019	0	54756	
4020	0	57868	
4021	0	60680	
4022	0	62972	
4023	0	64264	
4024	0	64896	
4025	0	65192	
4026	0	65296	
4027	0	65284	
4028	0	65216	
4029	0	61368	
4030	0	55992	
4031	0	50216	
4032	0	44512	
4033	0	39736	
4034	0	36120	
4035	0	33570	
4036	0	31824	
4037	0	30816	
4038	0	30304	
4039	0	29800	
4040	0	29252	
4041	0	28608	
4042	0	27882	
4043	0	27232	
4044	0	26656	
4045	0	26112	
4046	0	25808	
4047	0	25860	
4048	0	25936	
4049	0	25828	
4050	0	25664	
4051	0	25518	
4052	0	25510	
4053	0	25660	
4054	0	25944	
4055	0	26304	
4056	0	26568	
4057	0	26820	
4058	0	27260	
4059	0	27884	
4060	0	28420	
4061	0	28812	
4062	0	29048	
4063	0	29236	
4064	0	29468	
4065	0	29668	
4066	0	29928	
4067	0	30104	
4068	0	30252	
4069	0	30224	
4070	0	30148	
4071	0	30300	
4072	0	30612	
4073	0	30964	
4074	0	31296	
4075	0	31416	
4076	0	31480	
4077	0	31616	
4078	0	31600	
4079	0	31490	
4080	0	31320	
4081	0	31144	
4082	0	31000	
4083	0	30952	
4084	0	30986	
4085	0	31064	
4086	0	31224	
4087	0	31236	
4088	0	31356	
4089	0	31472	
4090	0	31496	
4091	0	31452	
4092	0	31454	
4093	0	31428	
4094	0	31380	
4095	0	31296	
4096	0	31292	
4097	0	31340	
4098	0	31304	
4099	0	31266	
4100	0	31276	
4101	0	31364	
4102	0	31496	
4103	0	31640	
4104	0	31748	
4105	0	31872	
4106	0	31994	
4107	0	31990	
4108	0	31884	
4109	0	31928	
4110	0	32072	
4111	0	32272	
4112	0	32360	
4113	0	32264	
4114	0	32168	
4115	0	32074	
4116	0	31976	
4117	0	32036	
4118	0	32284	
4119	0	32478	
4120	0	32506	
4121	0	32424	
4122	0	32400	
4123	0	32348	
4124	0	32264	
4125	0	32204	
4126	0	32260	
4127	0	32336	
4128	0	32400	
4129	0	32548	
4130	0	32808	
4131	0	33104	
4132	0	33250	
4133	0	33096	
4134	0	32916	
4135	0	32724	
4136	0	32592	
4137	0	32576	
4138	0	32652	
4139	0	32800	
4140	0	32912	
4141	0	32994	
4142	0	32964	
4143	0	32888	
4144	0	32904	
4145	0	33196	
4146	0	33556	
4147	0	33896	
4148	0	34232	
4149	0	34482	
4150	0	34528	
4151	0	34516	
4152	0	34672	
4153	0	34896	
4154	0	34710	
4155	0	34490	
4156	0	34304	
4157	0	34000	
4158	0	33668	
4159	0	33504	
4160	0	33416	
4161	0	33316	
4162	0	33332	
4163	0	33380	
4164	0	33496	
4165	0	33586	
4166	0	33724	
4167	0	33856	
4168	0	34084	
4169	0	34320	
4170	0	34500	
4171	0	34816	
4172	0	35088	
4173	0	35224	
4174	0	35208	
4175	0	35232	
4176	0	35304	
4177	0	35284	
4178	0	35276	
4179	0	35180	
4180	0	35184	
4181	0	35400	
4182	0	35596	
4183	0	35648	
4184	0	35644	
4185	0	35616	
4186	0	35488	
4187	0	35324	
4188	0	35148	
4189	0	35008	
4190	0	34952	
4191	0	34960	
4192	0	35172	
4193	0	35576	
4194	0	36050	
4195	0	36436	
4196	0	36748	
4197	0	37024	
4198	0	37252	
4199	0	37376	
4200	0	37192	
4201	0	36992	
4202	0	36922	
4203	0	36916	
4204	0	36880	
4205	0	36700	
4206	0	36560	
4207	0	36716	
4208	0	36992	
4209	0	37168	
4210	0	37360	
4211	0	37580	
4212	0	37712	
4213	0	37676	
4214	0	37648	
4215	0	37624	
4216	0	37672	
4217	0	37716	
4218	0	37668	
4219	0	37600	
4220	0	37564	
4221	0	37580	
4222	0	37564	
4223	0	37596	
4224	0	37748	
4225	0	37856	
4226	0	37860	
4227	0	37856	
4228	0	37824	
4229	0	37808	
4230	0	37736	
4231	0	37708	
4232	0	37732	
4233	0	37704	
4234	0	37680	
4235	0	37720	
4236	0	37756	
4237	0	37900	
4238	0	38208	
4239	0	38512	
4240	0	38744	
4241	0	38880	
4242	0	38744	
4243	0	38504	
4244	0	38194	
4245	0	37810	
4246	0	37554	
4247	0	37400	
4248	0	37268	
4249	0	37224	
4250	0	37308	
4251	0	37240	
4252	0	37048	
4253	0	36864	
4254	0	36696	
4255	0	36680	
4256	0	36784	
4257	0	36896	
4258	0	36888	
4259	0	36880	
4260	0	36940	
4261	0	36888	
4262	0	36692	
4263	0	36436	
4264	0	36092	
4265	0	35712	
4266	0	35408	
4267	0	35176	
4268	0	34972	
4269	0	34752	
4270	0	34520	
4271	0	34368	
4272	0	34132	
4273	0	33892	
4274	0	33754	
4275	0	33600	
4276	0	33452	
4277	0	33312	
4278	0	33328	
4279	0	33364	
4280	0	33312	
4281	0	33136	
4282	0	32920	
4283	0	32808	
4284	0	32720	
4285	0	32492	
4286	0	32232	
4287	0	32040	
4288	0	31956	
4289	0	31848	
4290	0	31492	
4291	0	31048	
4292	0	30708	
4293	0	30432	
4294	0	30160	
4295	0	29948	
4296	0	29812	
4297	0	29612	
4298	0	29362	
4299	0	29232	
4300	0	29276	
4301	0	29456	
4302	0	29608	
4303	0	29596	
4304	0	29488	
4305	0	29324	
4306	0	29124	
4307	0	29080	
4308	0	29100	
4309	0	29178	
4310	0	29300	
4311	0	29420	
4312	0	29440	
4313	0	29392	
4314	0	29328	
4315	0	29376	
4316	0	29240	
4317	0	28980	
4318	0	28756	
4319	0	28672	
4320	0	28636	
4321	0	28660	
4322	0	28692	
4323	0	28704	
4324	0	28716	
4325	0	28772	
4326	0	28852	
4327	0	28956	
4328	0	28996	
4329	0	28936	
4330	0	28876	
4331	0	28840	
4332	0	28856	
4333	0	28908	
4334	0	29028	
4335	0	29148	
4336	0	29224	
4337	0	29360	
4338	0	29512	
4339	0	29516	
4340	0	29372	
4341	0	29208	
4342	0	29264	
4343	0	29352	
4344	0	29368	
4345	0	29280	
4346	0	29244	
4347	0	29240	
4348	0	29248	
4349	0	29328	
4350	0	29440	
4351	0	29516	
4352	0	29536	
4353	0	29430	
4354	0	29292	
4355	0	29212	
4356	0	29124	
4357	0	29032	
4358	0	28952	
4359	0	28950	
4360	0	28952	
4361	0	28968	
4362	0	29076	
4363	0	29248	
4364	0	29394	
4365	0	29464	
4366	0	29532	
4367	0	29636	
4368	0	29816	
4369	0	29968	
4370	0	30028	
4371	0	30088	
4372	0	30136	
4373	0	30204	
4374	0	30336	
4375	0	30580	
4376	0	30728	
4377	0	30792	
4378	0	30744	
4379	0	30664	
4380	0	30616	
4381	0	30564	
4382	0	30432	
4383	0	30332	
4384	0	30304	
4385	0	30416	
4386	0	30464	
4387	0	30448	
4388	0	30464	
4389	0	30528	
4390	0	30696	
4391	0	30844	
4392	0	30936	
4393	0	31004	
4394	0	30988	
4395	0	30912	
4396	0	30938	
4397	0	30978	
4398	0	30944	
4399	0	30872	
4400	0	30776	
4401	0	30764	
4402	0	30836	
4403	0	30872	
4404	0	30900	
4405	0	30916	
4406	0	30980	
4407	0	30976	
4408	0	30960	
4409	0	30912	
4410	0	30988	
4411	0	31224	
4412	0	31340	
4413	0	31420	
4414	0	31608	
4415	0	31696	
4416	0	31640	
4417	0	31584	
4418	0	31606	
4419	0	31556	
4420	0	31416	
4421	0	31256	
4422	0	31176	
4423	0	31168	
4424	0	31256	
4425	0	31440	
4426	0	31706	
4427	0	31956	
4428	0	32040	
4429	0	32068	
4430	0	32072	
4431	0	31992	
4432	0	31888	
4433	0	31816	
4434	0	31720	
4435	0	31632	
4436	0	31572	
4437	0	31644	
4438	0	31664	
4439	0	31520	
4440	0	31466	
4441	0	31564	
4442	0	31712	
4443	0	31842	
4444	0	31944	
4445	0	31920	
4446	0	31804	
4447	0	31744	
4448	0	31712	
4449	0	31762	
4450	0	31872	
4451	0	31888	
4452	0	31832	
4453	0	31852	
4454	0	31832	
4455	0	31752	
4456	0	31732	
4457	0	31736	
4458	0	31724	
4459	0	31804	
4460	0	31916	
4461	0	31954	
4462	0	31976	
4463	0	32030	
4464	0	31988	
4465	0	31892	
4466	0	31720	
4467	0	31588	
4468	0	31544	
4469	0	31524	
4470	0	31612	
4471	0	31720	
4472	0	31812	
4473	0	31840	
4474	0	31872	
4475	0	31960	
4476	0	32024	
4477	0	32084	
4478	0	32152	
4479	0	32164	
4480	0	32068	
4481	0	31920	
4482	0	31812	
4483	0	31736	
4484	0	31732	
4485	0	31748	
4486	0	31756	
4487	0	31728	
4488	0	31676	
4489	0	31744	
4490	0	31848	
4491	0	31968	
4492	0	32088	
4493	0	32136	
4494	0	32188	
4495	0	32224	
4496	0	32260	
4497	0	32296	
4498	0	32354	
4499	0	32388	
4500	0	32496	
4501	0	32708	
4502	0	32848	
4503	0	32924	
4504	0	32968	
4505	0	33000	
4506	0	33040	
4507	0	33032	
4508	0	33028	
4509	0	33100	
4510	0	33148	
4511	0	33112	
4512	0	33016	
4513	0	32892	
4514	0	32840	
4515	0	32888	
4516	0	33104	
4517	0	33364	
4518	0	33554	
4519	0	33708	
4520	0	33800	
4521	0	33924	
4522	0	34068	
4523	0	34224	
4524	0	34416	
4525	0	34584	
4526	0	34756	
4527	0	34908	
4528	0	34980	
4529	0	35032	
4530	0	35066	
4531	0	35056	
4532	0	34962	
4533	0	34842	
4534	0	34752	
4535	0	34664	
4536	0	34480	
4537	0	34284	
4538	0	34168	
4539	0	34072	
4540	0	33948	
4541	0	33760	
4542	0	33504	
4543	0	33220	
4544	0	32984	
4545	0	32848	
4546	0	32752	
4547	0	32608	
4548	0	32496	
4549	0	32380	
4550	0	32312	
4551	0	32228	
4552	0	32152	
4553	0	32096	
4554	0	32124	
4555	0	32128	
4556	0	32096	
4557	0	32016	
4558	0	31936	
4559	0	31888	
4560	0	31828	
4561	0	31784	
4562	0	31730	
4563	0	31680	
4564	0	31608	
4565	0	31496	
4566	0	31392	
4567	0	31348	
4568	0	31312	
4569	0	31188	
4570	0	31072	
4571	0	30860	
4572	0	30624	
4573	0	30464	
4574	0	30368	
4575	0	30376	
4576	0	30472	
4577	0	30592	
4578	0	30674	
4579	0	30788	
4580	0	30924	
4581	0	31028	
4582	0	31020	
4583	0	30988	
4584	0	31006	
4585	0	31008	
4586	0	31016	
4587	0	31052	
4588	0	31082	
4589	0	31080	
4590	0	31152	
4591	0	31200	
4592	0	31196	
4593	0	31130	
4594	0	31108	
4595	0	31144	
4596	0	31256	
4597	0	31400	
4598	0	31496	
4599	0	31508	
4600	0	31492	
4601	0	31520	
4602	0	31568	
4603	0	31624	
4604	0	31640	
4605	0	31600	
4606	0	31532	
4607	0	31472	
4608	0	31420	
4609	0	31336	
4610	0	31242	
4611	0	31058	
4612	0	30704	
4613	0	30292	
4614	0	29836	
4615	0	29384	
4616	0	29096	
4617	0	28948	
4618	0	28804	
4619	0	28776	
4620	0	28928	
4621	0	29288	
4622	0	29876	
4623	0	30628	
4624	0	31488	
4625	0	32500	
4626	0	33760	
4627	0	35356	
4628	0	37104	
4629	0	39092	
4630	0	41480	
4631	0	44412	
4632	0	47664	
4633	0	50996	
4634	0	54280	
4635	0	57556	
4636	0	60636	
4637	0	62852	
4638	0	64008	
4639	0	64592	
4640	0	64848	
4641	0	64936	
4642	0	64908	
4643	0	64840	
4644	0	64612	
4645	0	58624	
4646	0	52804	
4647	0	46976	
4648	0	41848	
4649	0	37832	
4650	0	34752	
4651	0	32460	
4652	0	30816	
4653	0	29624	
4654	0	28788	
4655	0	28124	
4656	0	27520	
4657	0	26944	
4658	0	26356	
4659	0	25848	
4660	0	25537	
4661	0	25476	
4662	0	25424	
4663	0	25364	
4664	0	25256	
4665	0	25172	
4666	0	25200	
4667	0	25332	
4668	0	25624	
4669	0	26080	
4670	0	26558	
4671	0	27044	
4672	0	27528	
4673	0	27912	
4674	0	28224	
4675	0	28552	
4676	0	28872	
4677	0	29104	
4678	0	29300	
4679	0	29528	
4680	0	29728	
4681	0	29912	
4682	0	30060	
4683	0	30112	
4684	0	30116	
4685	0	30124	
4686	0	30172	
4687	0	30272	
4688	0	30388	
4689	0	30506	
4690	0	30608	
4691	0	30668	
4692	0	30768	
4693	0	30820	
4694	0	30840	
4695	0	30820	
4696	0	30764	
4697	0	30676	
4698	0	30672	
4699	0	30688	
4700	0	30760	
4701	0	30816	
4702	0	30790	
4703	0	30784	
4704	0	30872	
4705	0	30900	
4706	0	30908	
4707	0	30944	
4708	0	30996	
4709	0	30972	
4710	0	30908	
4711	0	30872	
4712	0	30924	
4713	0	30972	
4714	0	31012	
4715	0	31084	
4716	0	31160	
4717	0	31204	
4718	0	31280	
4719	0	31352	
4720	0	31416	
4721	0	31476	
4722	0	31512	
4723	0	31580	
4724	0	31708	
4725	0	31756	
4726	0	31776	
4727	0	31868	
4728	0	31916	
4729	0	31884	
4730	0	31824	
4731	0	31792	
4732	0	31768	
4733	0	31768	
4734	0	31820	
4735	0	31864	
4736	0	31900	
4737	0	31896	
4738	0	31912	
4739	0	31936	
4740	0	31988	
4741	0	32090	
4742	0	32144	
4743	0	32192	
4744	0	32296	
4745	0	32384	
4746	0	32456	
4747	0	32556	
4748	0	32532	
4749	0	32520	
4750	0	32556	
4751	0	32584	
4752	0	32536	
4753	0	32496	
4754	0	32552	
4755	0	32696	
4756	0	32752	
4757	0	32832	
4758	0	32908	
4759	0	32992	
4760	0	33092	
4761	0	33152	
4762	0	33192	
4763	0	33260	
4764	0	33356	
4765	0	33420	
4766	0	33412	
4767	0	33372	
4768	0	33388	
4769	0	33420	
4770	0	33444	
4771	0	33548	
4772	0	33584	
4773	0	33616	
4774	0	33620	
4775	0	33608	
4776	0	33632	
4777	0	33660	
4778	0	33648	
4779	0	33632	
4780	0	33672	
4781	0	33732	
4782	0	33808	
4783	0	33872	
4784	0	34056	
4785	0	34192	
4786	0	34288	
4787	0	34440	
4788	0	34602	
4789	0	34684	
4790	0	34736	
4791	0	34800	
4792	0	34864	
4793	0	34916	
4794	0	34932	
4795	0	34960	
4796	0	34974	
4797	0	34952	
4798	0	34988	
4799	0	35036	
4800	0	35104	
4801	0	35184	
4802	0	35280	
4803	0	35432	
4804	0	35580	
4805	0	35668	
4806	0	35720	
4807	0	35784	
4808	0	35836	
4809	0	35914	
4810	0	35988	
4811	0	36056	
4812	0	36048	
4813	0	36092	
4814	0	36144	
4815	0	36132	
4816	0	36140	
4817	0	36216	
4818	0	36384	
4819	0	36528	
4820	0	36600	
4821	0	36624	
4822	0	36672	
4823	0	36768	
4824	0	36816	
4825	0	36788	
4826	0	36764	
4827	0	36752	
4828	0	36780	
4829	0	36800	
4830	0	36820	
4831	0	36858	
4832	0	36924	
4833	0	36948	
4834	0	36968	
4835	0	37004	
4836	0	37044	
4837	0	37056	
4838	0	37104	
4839	0	37136	
4840	0	37144	
4841	0	37156	
4842	0	37176	
4843	0	37224	
4844	0	37240	
4845	0	37220	
4846	0	37200	
4847	0	37136	
4848	0	37044	
4849	0	37020	
4850	0	37032	
4851	0	37016	
4852	0	37032	
4853	0	37052	
4854	0	37036	
4855	0	36964	
4856	0	36908	
4857	0	36868	
4858	0	36852	
4859	0	36812	
4860	0	36780	
4861	0	36716	
4862	0	36616	
4863	0	36512	
4864	0	36392	
4865	0	36300	
4866	0	36208	
4867	0	36148	
4868	0	36096	
4869	0	35988	
4870	0	35880	
4871	0	35808	
4872	0	35752	
4873	0	35652	
4874	0	35548	
4875	0	35468	
4876	0	35420	
4877	0	35400	
4878	0	35336	
4879	0	35220	
4880	0	35084	
4881	0	34884	
4882	0	34686	
4883	0	34522	
4884	0	34368	
4885	0	34208	
4886	0	34040	
4887	0	33876	
4888	0	33696	
4889	0	33472	
4890	0	33264	
4891	0	33088	
4892	0	32868	
4893	0	32600	
4894	0	32372	
4895	0	32196	
4896	0	32064	
4897	0	31890	
4898	0	31720	
4899	0	31560	
4900	0	31400	
4901	0	31252	
4902	0	31084	
4903	0	30948	
4904	0	30852	
4905	0	30788	
4906	0	30760	
4907	0	30728	
4908	0	30584	
4909	0	30440	
4910	0	30324	
4911	0	30272	
4912	0	30172	
4913	0	30042	
4914	0	29960	
4915	0	29906	
4916	0	29844	
4917	0	29776	
4918	0	29684	
4919	0	29596	
4920	0	29504	
4921	0	29404	
4922	0	29362	
4923	0	29348	
4924	0	29308	
4925	0	29272	
4926	0	29284	
4927	0	29200	
4928	0	29136	
4929	0	29070	
4930	0	29032	
4931	0	29060	
4932	0	29120	
4933	0	29152	
4934	0	29124	
4935	0	29136	
4936	0	29160	
4937	0	29152	
4938	0	29144	
4939	0	29148	
4940	0	29100	
4941	0	29112	
4942	0	29104	
4943	0	29104	
4944	0	29168	
4945	0	29196	
4946	0	29162	
4947	0	29144	
4948	0	29118	
4949	0	29092	
4950	0	29112	
4951	0	29214	
4952	0	29276	
4953	0	29304	
4954	0	29272	
4955	0	29248	
4956	0	29276	
4957	0	29328	
4958	0	29408	
4959	0	29504	
4960	0	29560	
4961	0	29604	
4962	0	29632	
4963	0	29706	
4964	0	29764	
4965	0	29864	
4966	0	29932	
4967	0	29920	
4968	0	29944	
4969	0	29940	
4970	0	29986	
4971	0	30028	
4972	0	30080	
4973	0	30124	
4974	0	30168	
4975	0	30176	
4976	0	30168	
4977	0	30116	
4978	0	30096	
4979	0	30084	
4980	0	30048	
4981	0	30064	
4982	0	30152	
4983	0	30232	
4984	0	30272	
4985	0	30376	
4986	0	30492	
4987	0	30604	
4988	0	30644	
4989	0	30672	
4990	0	30688	
4991	0	30672	
4992	0	30720	
4993	0	30816	
4994	0	30892	
4995	0	30908	
4996	0	30936	
4997	0	30936	
4998	0	30888	
4999	0	30884	
5000	0	30914	
5001	0	30948	
5002	0	30970	
5003	0	31036	
5004	0	31088	
5005	0	31112	
5006	0	31092	
5007	0	31056	
5008	0	31030	
5009	0	30996	
5010	0	30980	
5011	0	30980	
5012	0	31040	
5013	0	31084	
5014	0	31148	
5015	0	31216	
5016	0	31232	
5017	0	31220	
5018	0	31224	
5019	0	31258	
5020	0	31360	
5021	0	31456	
5022	0	31520	
5023	0	31556	
5024	0	31584	
5025	0	31616	
5026	0	31632	
5027	0	31612	
5028	0	31644	
5029	0	31660	
5030	0	31668	
5031	0	31692	
5032	0	31684	
5033	0	31680	
5034	0	31656	
5035	0	31608	
5036	0	31632	
5037	0	31672	
5038	0	31620	
5039	0	31628	
5040	0	31696	
5041	0	31776	
5042	0	31808	
5043	0	31808	
5044	0	31780	
5045	0	31744	
5046	0	31712	
5047	0	31676	
5048	0	31704	
5049	0	31744	
5050	0	31776	
5051	0	31820	
5052	0	31856	
5053	0	31864	
5054	0	31904	
5055	0	31930	
5056	0	31928	
5057	0	31900	
5058	0	31864	
5059	0	31842	
5060	0	31868	
5061	0	31890	
5062	0	31836	
5063	0	31804	
5064	0	31808	
5065	0	31792	
5066	0	31778	
5067	0	31764	
5068	0	31714	
5069	0	31724	
5070	0	31732	
5071	0	31728	
5072	0	31736	
5073	0	31792	
5074	0	31866	
5075	0	31876	
5076	0	31886	
5077	0	31936	
5078	0	31972	
5079	0	32000	
5080	0	32056	
5081	0	32128	
5082	0	32204	
5083	0	32224	
5084	0	32263	
5085	0	32276	
5086	0	32340	
5087	0	32432	
5088	0	32526	
5089	0	32632	
5090	0	32704	
5091	0	32748	
5092	0	32832	
5093	0	32896	
5094	0	32912	
5095	0	32896	
5096	0	32872	
5097	0	32892	
5098	0	32884	
5099	0	32864	
5100	0	32826	
5101	0	32800	
5102	0	32808	
5103	0	32816	
5104	0	32816	
5105	0	32804	
5106	0	32816	
5107	0	32928	
5108	0	33100	
5109	0	33276	
5110	0	33472	
5111	0	33688	
5112	0	33852	
5113	0	34008	
5114	0	34192	
5115	0	34352	
5116	0	34556	
5117	0	34808	
5118	0	35008	
5119	0	35092	
5120	0	35120	
5121	0	35112	
5122	0	35028	
5123	0	34944	
5124	0	34848	
5125	0	34748	
5126	0	34664	
5127	0	34516	
5128	0	34416	
5129	0	34268	
5130	0	34096	
5131	0	33968	
5132	0	33832	
5133	0	33672	
5134	0	33540	
5135	0	33348	
5136	0	33152	
5137	0	32912	
5138	0	32680	
5139	0	32556	
5140	0	32548	
5141	0	32516	
5142	0	32456	
5143	0	32384	
5144	0	32306	
5145	0	32258	
5146	0	32188	
5147	0	32028	
5148	0	31880	
5149	0	31764	
5150	0	31656	
5151	0	31608	
5152	0	31584	
5153	0	31500	
5154	0	31376	
5155	0	31248	
5156	0	31204	
5157	0	31088	
5158	0	30972	
5159	0	30924	
5160	0	30880	
5161	0	30780	
5162	0	30644	
5163	0	30556	
5164	0	30476	
5165	0	30452	
5166	0	30440	
5167	0	30484	
5168	0	30548	
5169	0	30628	
5170	0	30644	
5171	0	30676	
5172	0	30700	
5173	0	30744	
5174	0	30776	
5175	0	30836	
5176	0	30848	
5177	0	30904	
5178	0	30928	
5179	0	30940	
5180	0	30910	
5181	0	30836	
5182	0	30808	
5183	0	30828	
5184	0	30848	
5185	0	30884	
5186	0	30882	
5187	0	30852	
5188	0	30824	
5189	0	30848	
5190	0	30876	
5191	0	30944	
5192	0	30972	
5193	0	31032	
5194	0	31104	
5195	0	31128	
5196	0	31176	
5197	0	31242	
5198	0	31264	
5199	0	31280	
5200	0	31276	
5201	0	31180	
5202	0	30952	
5203	0	30680	
5204	0	30274	
5205	0	29680	
5206	0	28948	
5207	0	28168	
5208	0	27544	
5209	0	27128	
5210	0	26856	
5211	0	26700	
5212	0	26776	
5213	0	27136	
5214	0	27776	
5215	0	28556	
5216	0	29492	
5217	0	30616	
5218	0	31960	
5219	0	33604	
5220	0	35468	
5221	0	37696	
5222	0	40296	
5223	0	43236	
5224	0	46796	
5225	0	50688	
5226	0	54496	
5227	0	58116	
5228	0	61292	
5229	0	63232	
5230	0	64220	
5231	0	64704	
5232	0	64912	
5233	0	64952	
5234	0	64936	
5235	0	64844	
5236	0	64740	
5237	0	64616	
5238	0	62240	
5239	0	56064	
5240	0	50264	
5241	0	45372	
5242	0	41408	
5243	0	38244	
5244	0	35724	
5245	0	33678	
5246	0	31976	
5247	0	30536	
5248	0	29308	
5249	0	28368	
5250	0	27772	
5251	0	27416	
5252	0	27152	
5253	0	26944	
5254	0	26788	
5255	0	26734	
5256	0	26648	
5257	0	26492	
5258	0	26440	
5259	0	26464	
5260	0	26608	
5261	0	26808	
5262	0	27104	
5263	0	27424	
5264	0	27704	
5265	0	27994	
5266	0	28288	
5267	0	28572	
5268	0	28840	
5269	0	29060	
5270	0	29200	
5271	0	29312	
5272	0	29388	
5273	0	29452	
5274	0	29450	
5275	0	29432	
5276	0	29418	
5277	0	29418	
5278	0	29412	
5279	0	29434	
5280	0	29472	
5281	0	29496	
5282	0	29484	
5283	0	29484	
5284	0	29488	
5285	0	29536	
5286	0	29548	
5287	0	29552	
5288	0	29572	
5289	0	29632	
5290	0	29674	
5291	0	29656	
5292	0	29620	
5293	0	29648	
5294	0	29714	
5295	0	29748	
5296	0	29760	
5297	0	29832	
5298	0	29836	
5299	0	29868	
5300	0	29888	
5301	0	29906	
5302	0	29920	
5303	0	29940	
5304	0	30028	
5305	0	30112	
5306	0	30168	
5307	0	30232	
5308	0	30256	
5309	0	30216	
5310	0	30256	
5311	0	30324	
5312	0	30408	
5313	0	30444	
5314	0	30424	
5315	0	30362	
5316	0	30340	
5317	0	30380	
5318	0	30440	
5319	0	30500	
5320	0	30560	
5321	0	30572	
5322	0	30568	
5323	0	30640	
5324	0	30724	
5325	0	30820	
5326	0	30928	
5327	0	31004	
5328	0	31068	
5329	0	31136	
5330	0	31188	
5331	0	31200	
5332	0	31228	
5333	0	31288	
5334	0	31356	
5335	0	31404	
5336	0	31420	
5337	0	31432	
5338	0	31460	
5339	0	31504	
5340	0	31556	
5341	0	31648	
5342	0	31736	
5343	0	31836	
5344	0	31952	
5345	0	32038	
5346	0	32052	
5347	0	32036	
5348	0	32056	
5349	0	32058	
5350	0	32060	
5351	0	32100	
5352	0	32180	
5353	0	32248	
5354	0	32320	
5355	0	32364	
5356	0	32416	
5357	0	32456	
5358	0	32492	
5359	0	32512	
5360	0	32554	
5361	0	32616	
5362	0	32676	
5363	0	32764	
5364	0	32848	
5365	0	32888	
5366	0	32948	
5367	0	33012	
5368	0	33064	
5369	0	33084	
5370	0	33088	
5371	0	33128	
5372	0	33212	
5373	0	33272	
5374	0	33340	
5375	0	33406	
5376	0	33412	
5377	0	33460	
5378	0	33508	
5379	0	33528	
5380	0	33612	
5381	0	33688	
5382	0	33772	
5383	0	33856	
5384	0	33944	
5385	0	34018	
5386	0	34080	
5387	0	34116	
5388	0	34176	
5389	0	34236	
5390	0	34304	
5391	0	34408	
5392	0	34468	
5393	0	34520	
5394	0	34568	
5395	0	34592	
5396	0	34638	
5397	0	34668	
5398	0	34736	
5399	0	34784	
5400	0	34824	
5401	0	34884	
5402	0	34964	
5403	0	35072	
5404	0	35144	
5405	0	35220	
5406	0	35280	
5407	0	35352	
5408	0	35424	
5409	0	35524	
5410	0	35616	
5411	0	35684	
5412	0	35760	
5413	0	35824	
5414	0	35884	
5415	0	35916	
5416	0	35988	
5417	0	36052	
5418	0	36160	
5419	0	36240	
5420	0	36256	
5421	0	36312	
5422	0	36332	
5423	0	36352	
5424	0	36362	
5425	0	36384	
5426	0	36408	
5427	0	36464	
5428	0	36540	
5429	0	36576	
5430	0	36624	
5431	0	36656	
5432	0	36672	
5433	0	36712	
5434	0	36688	
5435	0	36620	
5436	0	36580	
5437	0	36576	
5438	0	36576	
5439	0	36596	
5440	0	36572	
5441	0	36574	
5442	0	36576	
5443	0	36556	
5444	0	36532	
5445	0	36520	
5446	0	36564	
5447	0	36592	
5448	0	36560	
5449	0	36504	
5450	0	36456	
5451	0	36384	
5452	0	36304	
5453	0	36236	
5454	0	36184	
5455	0	36184	
5456	0	36148	
5457	0	36088	
5458	0	36024	
5459	0	35968	
5460	0	35912	
5461	0	35840	
5462	0	35768	
5463	0	35680	
5464	0	35560	
5465	0	35444	
5466	0	35330	
5467	0	35190	
5468	0	35044	
5469	0	34908	
5470	0	34784	
5471	0	34668	
5472	0	34528	
5473	0	34384	
5474	0	34216	
5475	0	34032	
5476	0	33852	
5477	0	33668	
5478	0	33468	
5479	0	33306	
5480	0	33132	
5481	0	32960	
5482	0	32802	
5483	0	32672	
5484	0	32516	
5485	0	32336	
5486	0	32140	
5487	0	32000	
5488	0	31898	
5489	0	31768	
5490	0	31656	
5491	0	31528	
5492	0	31388	
5493	0	31220	
5494	0	31050	
5495	0	30912	
5496	0	30792	
5497	0	30680	
5498	0	30600	
5499	0	30520	
5500	0	30412	
5501	0	30292	
5502	0	30172	
5503	0	30052	
5504	0	29936	
5505	0	29848	
5506	0	29804	
5507	0	29748	
5508	0	29716	
5509	0	29676	
5510	0	29664	
5511	0	29646	
5512	0	29604	
5513	0	29548	
5514	0	29468	
5515	0	29372	
5516	0	29280	
5517	0	29256	
5518	0	29256	
5519	0	29228	
5520	0	29228	
5521	0	29264	
5522	0	29268	
5523	0	29230	
5524	0	29180	
5525	0	29180	
5526	0	29160	
5527	0	29188	
5528	0	29216	
5529	0	29228	
5530	0	29192	
5531	0	29152	
5532	0	29128	
5533	0	29124	
5534	0	29132	
5535	0	29154	
5536	0	29176	
5537	0	29204	
5538	0	29200	
5539	0	29246	
5540	0	29296	
5541	0	29308	
5542	0	29316	
5543	0	29384	
5544	0	29448	
5545	0	29508	
5546	0	29570	
5547	0	29616	
5548	0	29620	
5549	0	29624	
5550	0	29641	
5551	0	29692	
5552	0	29796	
5553	0	29868	
5554	0	29888	
5555	0	29952	
5556	0	30012	
5557	0	30028	
5558	0	30036	
5559	0	30048	
5560	0	30112	
5561	0	30152	
5562	0	30184	
5563	0	30212	
5564	0	30240	
5565	0	30272	
5566	0	30332	
5567	0	30368	
5568	0	30376	
5569	0	30380	
5570	0	30368	
5571	0	30388	
5572	0	30444	
5573	0	30496	
5574	0	30580	
5575	0	30664	
5576	0	30708	
5577	0	30714	
5578	0	30726	
5579	0	30736	
5580	0	30776	
5581	0	30816	
5582	0	30864	
5583	0	30944	
5584	0	31012	
5585	0	31072	
5586	0	31072	
5587	0	31040	
5588	0	30992	
5589	0	31020	
5590	0	31068	
5591	0	31072	
5592	0	31072	
5593	0	31120	
5594	0	31164	
5595	0	31156	
5596	0	31152	
5597	0	31156	
5598	0	31176	
5599	0	31200	
5600	0	31232	
5601	0	31310	
5602	0	31364	
5603	0	31388	
5604	0	31416	
5605	0	31456	
5606	0	31468	
5607	0	31468	
5608	0	31480	
5609	0	31516	
5610	0	31560	
5611	0	31556	
5612	0	31508	
5613	0	31484	
5614	0	31472	
5615	0	31488	
5616	0	31520	
5617	0	31556	
5618	0	31600	
5619	0	31644	
5620	0	31672	
5621	0	31680	
5622	0	31720	
5623	0	31736	
5624	0	31748	
5625	0	31768	
5626	0	31784	
5627	0	31792	
5628	0	31796	
5629	0	31824	
5630	0	31808	
5631	0	31788	
5632	0	31800	
5633	0	31800	
5634	0	31816	
5635	0	31820	
5636	0	31796	
5637	0	31716	
5638	0	31696	
5639	0	31740	
5640	0	31760	
5641	0	31768	
5642	0	31784	
5643	0	31820	
5644	0	31832	
5645	0	31820	
5646	0	31832	
5647	0	31804	
5648	0	31820	
5649	0	31864	
5650	0	31894	
5651	0	31884	
5652	0	31842	
5653	0	31808	
5654	0	31794	
5655	0	31796	
5656	0	31832	
5657	0	31840	
5658	0	31824	
5659	0	31800	
5660	0	31808	
5661	0	31848	
5662	0	31868	
5663	0	31840	
5664	0	31800	
5665	0	31818	
5666	0	31840	
5667	0	31816	
5668	0	31792	
5669	0	31796	
5670	0	31828	
5671	0	31844	
5672	0	31920	
5673	0	31912	
5674	0	31932	
5675	0	31966	
5676	0	32024	
5677	0	32140	
5678	0	32264	
5679	0	32384	
5680	0	32484	
5681	0	32548	
5682	0	32632	
5683	0	32716	
5684	0	32744	
5685	0	32776	
5686	0	32832	
5687	0	32880	
5688	0	32988	
5689	0	33008	
5690	0	32980	
5691	0	32916	
5692	0	32848	
5693	0	32800	
5694	0	32792	
5695	0	32696	
5696	0	32688	
5697	0	32720	
5698	0	32776	
5699	0	32856	
5700	0	32874	
5701	0	32860	
5702	0	32968	
5703	0	33108	
5704	0	33280	
5705	0	33552	
5706	0	33808	
5707	0	34036	
5708	0	34196	
5709	0	34368	
5710	0	34568	
5711	0	34808	
5712	0	35016	
5713	0	35184	
5714	0	35274	
5715	0	35292	
5716	0	35248	
5717	0	35196	
5718	0	35124	
5719	0	35000	
5720	0	34856	
5721	0	34740	
5722	0	34616	
5723	0	34464	
5724	0	34296	
5725	0	34112	
5726	0	33932	
5727	0	33756	
5728	0	33612	
5729	0	33444	
5730	0	33308	
5731	0	33172	
5732	0	33036	
5733	0	32880	
5734	0	32736	
5735	0	32688	
5736	0	32648	
5737	0	32562	
5738	0	32472	
5739	0	32394	
5740	0	32332	
5741	0	32264	
5742	0	32172	
5743	0	32082	
5744	0	31984	
5745	0	31864	
5746	0	31776	
5747	0	31680	
5748	0	31564	
5749	0	31404	
5750	0	31272	
5751	0	31160	
5752	0	31052	
5753	0	30936	
5754	0	30832	
5755	0	30744	
5756	0	30656	
5757	0	30620	
5758	0	30620	
5759	0	30596	
5760	0	30564	
5761	0	30520	
5762	0	30500	
5763	0	30452	
5764	0	30452	
5765	0	30492	
5766	0	30528	
5767	0	30548	
5768	0	30588	
5769	0	30616	
5770	0	30636	
5771	0	30644	
5772	0	30680	
5773	0	30690	
5774	0	30732	
5775	0	30740	
5776	0	30740	
5777	0	30784	
5778	0	30836	
5779	0	30858	
5780	0	30868	
5781	0	30920	
5782	0	30952	
5783	0	30964	
5784	0	30952	
5785	0	31032	
5786	0	31080	
5787	0	31052	
5788	0	31056	
5789	0	31060	
5790	0	31068	
5791	0	31092	
5792	0	31120	
5793	0	31128	
5794	0	31044	
5795	0	30968	
5796	0	30912	
5797	0	30836	
5798	0	30704	
5799	0	30440	
5800	0	29972	
5801	0	29336	
5802	0	28552	
5803	0	27824	
5804	0	27316	
5805	0	26996	
5806	0	26840	
5807	0	26768	
5808	0	26924	
5809	0	27416	
5810	0	28192	
5811	0	29108	
5812	0	30272	
5813	0	31668	
5814	0	33216	
5815	0	35052	
5816	0	37136	
5817	0	39592	
5818	0	42384	
5819	0	45652	
5820	0	49476	
5821	0	53424	
5822	0	57168	
5823	0	60680	
5824	0	62988	
5825	0	64216	
5826	0	64800	
5827	0	65088	
5828	0	65172	
5829	0	65156	
5830	0	65080	
5831	0	64992	
5832	0	64876	
5833	0	64748	
5834	0	64596	
5835	0	58096	
5836	0	52588	
5837	0	48080	
5838	0	44432	
5839	0	41460	
5840	0	38894	
5841	0	36636	
5842	0	34676	
5843	0	33060	
5844	0	31840	
5845	0	30868	
5846	0	30042	
5847	0	29392	
5848	0	28880	
5849	0	28482	
5850	0	28152	
5851	0	27956	
5852	0	27832	
5853	0	27696	
5854	0	27544	
5855	0	27400	
5856	0	27396	
5857	0	27410	
5858	0	27464	
5859	0	27576	
5860	0	27732	
5861	0	27928	
5862	0	28108	
5863	0	28292	
5864	0	28452	
5865	0	28540	
5866	0	28620	
5867	0	28666	
5868	0	28664	
5869	0	28628	
5870	0	28640	
5871	0	28608	
5872	0	28552	
5873	0	28556	
5874	0	28592	
5875	0	28594	
5876	0	28572	
5877	0	28568	
5878	0	28588	
5879	0	28604	
5880	0	28612	
5881	0	28604	
5882	0	28596	
5883	0	28592	
5884	0	28640	
5885	0	28704	
5886	0	28752	
5887	0	28780	
5888	0	28800	
5889	0	28800	
5890	0	28784	
5891	0	28856	
5892	0	28932	
5893	0	29012	
5894	0	29072	
5895	0	29118	
5896	0	29168	
5897	0	29236	
5898	0	29324	
5899	0	29346	
5900	0	29352	
5901	0	29384	
5902	0	29436	
5903	0	29484	
5904	0	29508	
5905	0	29536	
5906	0	29584	
5907	0	29632	
5908	0	29672	
5909	0	29692	
5910	0	29700	
5911	0	29730	
5912	0	29752	
5913	0	29822	
5914	0	29932	
5915	0	30032	
5916	0	30138	
5917	0	30216	
5918	0	30256	
5919	0	30266	
5920	0	30284	
5921	0	30316	
5922	0	30348	
5923	0	30396	
5924	0	30464	
5925	0	30556	
5926	0	30620	
5927	0	30688	
5928	0	30744	
5929	0	30776	
5930	0	30792	
5931	0	30828	
5932	0	30908	
5933	0	30976	
5934	0	31024	
5935	0	31076	
5936	0	31136	
5937	0	31220	
5938	0	31296	
5939	0	31356	
5940	0	31380	
5941	0	31388	
5942	0	31396	
5943	0	31416	
5944	0	31476	
5945	0	31600	
5946	0	31696	
5947	0	31756	
5948	0	31792	
5949	0	31872	
5950	0	31912	
5951	0	31912	
5952	0	31920	
5953	0	31952	
5954	0	32014	
5955	0	32062	
5956	0	32140	
5957	0	32192	
5958	0	32240	
5959	0	32304	
5960	0	32360	
5961	0	32440	
5962	0	32500	
5963	0	32548	
5964	0	32608	
5965	0	32624	
5966	0	32660	
5967	0	32756	
5968	0	32844	
5969	0	32884	
5970	0	32860	
5971	0	32852	
5972	0	32884	
5973	0	32960	
5974	0	33032	
5975	0	33052	
5976	0	33088	
5977	0	33176	
5978	0	33272	
5979	0	33372	
5980	0	33460	
5981	0	33520	
5982	0	33604	
5983	0	33656	
5984	0	33700	
5985	0	33760	
5986	0	33824	
5987	0	33888	
5988	0	33986	
5989	0	34108	
5990	0	34200	
5991	0	34296	
5992	0	34368	
5993	0	34380	
5994	0	34416	
5995	0	34506	
5996	0	34640	
5997	0	34746	
5998	0	34848	
5999	0	34900	
6000	0	34928	
6001	0	34976	
6002	0	35044	
6003	0	35132	
6004	0	35244	
6005	0	35364	
6006	0	35476	
6007	0	35552	
6008	0	35604	
6009	0	35684	
6010	0	35784	
6011	0	35896	
6012	0	35964	
6013	0	36032	
6014	0	36064	
6015	0	36128	
6016	0	36174	
6017	0	36226	
6018	0	36296	
6019	0	36356	
6020	0	36408	
6021	0	36440	
6022	0	36428	
6023	0	36416	
6024	0	36428	
6025	0	36424	
6026	0	36444	
6027	0	36488	
6028	0	36576	
6029	0	36632	
6030	0	36652	
6031	0	36628	
6032	0	36620	
6033	0	36620	
6034	0	36618	
6035	0	36584	
6036	0	36600	
6037	0	36616	
6038	0	36604	
6039	0	36580	
6040	0	36556	
6041	0	36540	
6042	0	36496	
6043	0	36444	
6044	0	36424	
6045	0	36436	
6046	0	36384	
6047	0	36336	
6048	0	36328	
6049	0	36312	
6050	0	36256	
6051	0	36180	
6052	0	36108	
6053	0	36068	
6054	0	36056	
6055	0	35988	
6056	0	35928	
6057	0	35864	
6058	0	35780	
6059	0	35740	
6060	0	35652	
6061	0	35552	
6062	0	35408	
6063	0	35264	
6064	0	35112	
6065	0	34976	
6066	0	34796	
6067	0	34608	
6068	0	34420	
6069	0	34248	
6070	0	34088	
6071	0	33900	
6072	0	33704	
6073	0	33514	
6074	0	33356	
6075	0	33184	
6076	0	33012	
6077	0	32816	
6078	0	32632	
6079	0	32480	
6080	0	32344	
6081	0	32164	
6082	0	31976	
6083	0	31808	
6084	0	31656	
6085	0	31480	
6086	0	31348	
6087	0	31200	
6088	0	31060	
6089	0	30914	
6090	0	30786	
6091	0	30704	
6092	0	30612	
6093	0	30472	
6094	0	30316	
6095	0	30200	
6096	0	30096	
6097	0	30048	
6098	0	30014	
6099	0	29956	
6100	0	29920	
6101	0	29848	
6102	0	29740	
6103	0	29628	
6104	0	29480	
6105	0	29332	
6106	0	29236	
6107	0	29176	
6108	0	29144	
6109	0	29120	
6110	0	29086	
6111	0	29028	
6112	0	28982	
6113	0	28948	
6114	0	28956	
6115	0	28944	
6116	0	28958	
6117	0	28964	
6118	0	28976	
6119	0	29016	
6120	0	29056	
6121	0	29072	
6122	0	29064	
6123	0	29072	
6124	0	29060	
6125	0	29076	
6126	0	29080	
6127	0	29116	
6128	0	29160	
6129	0	29216	
6130	0	29242	
6131	0	29224	
6132	0	29204	
6133	0	29164	
6134	0	29140	
6135	0	29132	
6136	0	29184	
6137	0	29236	
6138	0	29224	
6139	0	29212	
6140	0	29228	
6141	0	29292	
6142	0	29312	
6143	0	29344	
6144	0	29372	
6145	0	29416	
6146	0	29488	
6147	0	29536	
6148	0	29572	
6149	0	29620	
6150	0	29656	
6151	0	29684	
6152	0	29724	
6153	0	29764	
6154	0	29808	
6155	0	29834	
6156	0	29860	
6157	0	29888	
6158	0	29944	
6159	0	29952	
6160	0	29928	
6161	0	29980	
6162	0	30040	
6163	0	30076	
6164	0	30108	
6165	0	30156	
6166	0	30196	
6167	0	30260	
6168	0	30308	
6169	0	30352	
6170	0	30376	
6171	0	30384	
6172	0	30404	
6173	0	30432	
6174	0	30456	
6175	0	30492	
6176	0	30480	
6177	0	30492	
6178	0	30544	
6179	0	30604	
6180	0	30700	
6181	0	30776	
6182	0	30768	
6183	0	30740	
6184	0	30728	
6185	0	30736	
6186	0	30764	
6187	0	30800	
6188	0	30868	
6189	0	30928	
6190	0	31004	
6191	0	31068	
6192	0	31080	
6193	0	31088	
6194	0	31128	
6195	0	31162	
6196	0	31208	
6197	0	31276	
6198	0	31276	
6199	0	31228	
6200	0	31198	
6201	0	31180	
6202	0	31200	
6203	0	31224	
6204	0	31200	
6205	0	31204	
6206	0	31272	
6207	0	31372	
6208	0	31404	
6209	0	31440	
6210	0	31512	
6211	0	31560	
6212	0	31592	
6213	0	31644	
6214	0	31648	
6215	0	31692	
6216	0	31708	
6217	0	31716	
6218	0	31712	
6219	0	31728	
6220	0	31732	
6221	0	31748	
6222	0	31736	
6223	0	31762	
6224	0	31768	
6225	0	31796	
6226	0	31804	
6227	0	31786	
6228	0	31792	
6229	0	31808	
6230	0	31812	
6231	0	31812	
6232	0	31844	
6233	0	31876	
6234	0	31920	
6235	0	31938	
6236	0	31928	
6237	0	31936	
6238	0	31928	
6239	0	31924	
6240	0	31940	
6241	0	31944	
6242	0	31940	
6243	0	31936	
6244	0	31954	
6245	0	31988	
6246	0	32012	
6247	0	32040	
6248	0	32060	
6249	0	32088	
6250	0	32096	
6251	0	32112	
6252	0	32140	
6253	0	32128	
6254	0	32122	
6255	0	32088	
6256	0	32064	
6257	0	32080	
6258	0	32058	
6259	0	32100	
6260	0	32140	
6261	0	32154	
6262	0	32108	
6263	0	32088	
6264	0	32104	
6265	0	32108	
6266	0	32128	
6267	0	32124	
6268	0	32080	
6269	0	32076	
6270	0	32078	
6271	0	32072	
6272	0	32092	
6273	0	32112	
6274	0	32100	
6275	0	32100	
6276	0	32088	
6277	0	32100	
6278	0	32128	
6279	0	32128	
6280	0	32110	
6281	0	32136	
6282	0	32152	
6283	0	32112	
6284	0	32096	
6285	0	32114	
6286	0	32096	
6287	0	32052	
6288	0	32056	
6289	0	32104	
6290	0	32084	
6291	0	32096	
6292	0	32120	
6293	0	32116	
6294	0	32112	
6295	0	32084	
6296	0	32080	
6297	0	32084	
6298	0	32064	
6299	0	32036	
6300	0	31996	
6301	0	31968	
6302	0	31976	
6303	0	32028	
6304	0	32060	
6305	0	32096	
6306	0	32116	
6307	0	32136	
6308	0	32148	
6309	0	32172	
6310	0	32160	
6311	0	32148	
6312	0	32140	
6313	0	32112	
6314	0	32120	
6315	0	32128	
6316	0	32140	
6317	0	32148	
6318	0	32168	
6319	0	32208	
6320	0	32208	
6321	0	32192	
6322	0	32164	
6323	0	32152	
6324	0	32152	
6325	0	32132	
6326	0	32164	
6327	0	32212	
6328	0	32244	
6329	0	32244	
6330	0	32248	
6331	0	32240	
6332	0	32256	
6333	0	32276	
6334	0	32288	
6335	0	32336	
6336	0	32344	
6337	0	32344	
6338	0	32348	
6339	0	32376	
6340	0	32418	
6341	0	32428	
6342	0	32372	
6343	0	32276	
6344	0	32204	
6345	0	32140	
6346	0	32140	
6347	0	32192	
6348	0	32274	
6349	0	32376	
6350	0	32448	
6351	0	32452	
6352	0	32448	
6353	0	32424	
6354	0	32418	
6355	0	32424	
6356	0	32456	
6357	0	32492	
6358	0	32498	
6359	0	32480	
6360	0	32464	
6361	0	32444	
6362	0	32416	
6363	0	32344	
6364	0	32338	
6365	0	32360	
6366	0	32404	
6367	0	32452	
6368	0	32456	
6369	0	32480	
6370	0	32500	
6371	0	32474	
6372	0	32448	
6373	0	32456	
6374	0	32456	
6375	0	32428	
6376	0	32384	
6377	0	32394	
6378	0	32424	
6379	0	32432	
6380	0	32436	
6381	0	32480	
6382	0	32520	
6383	0	32508	
6384	0	32500	
6385	0	32492	
6386	0	32472	
6387	0	32476	
6388	0	32524	
6389	0	32536	
6390	0	32544	
6391	0	32608	
6392	0	32640	
6393	0	32636	
6394	0	32628	
6395	0	32616	
6396	0	32604	
6397	0	32616	
6398	0	32664	
6399	0	32653	
6400	0	32616	
6401	0	32648	
6402	0	32636	
6403	0	32640	
6404	0	32640	
6405	0	32656	
6406	0	32664	
6407	0	32676	
6408	0	32676	
6409	0	32688	
6410	0	32664	
6411	0	32642	
6412	0	32628	
6413	0	32648	
6414	0	32704	
6415	0	32752	
6416	0	32724	
6417	0	32608	
6418	0	32540	
6419	0	32546	
6420	0	32556	
6421	0	32608	
6422	0	32624	
6423	0	32600	
6424	0	32592	
6425	0	32624	
6426	0	32666	
6427	0	32724	
6428	0	32746	
6429	0	32756	
6430	0	32772	
6431	0	32784	
6432	0	32820	
6433	0	32856	
6434	0	32880	
6435	0	32820	
6436	0	32794	
6437	0	32784	
6438	0	32742	
6439	0	32764	
6440	0	32832	
6441	0	32808	
6442	0	32816	
6443	0	32828	
6444	0	32844	
6445	0	32844	
6446	0	32808	
6447	0	32818	
6448	0	32832	
6449	0	32840	
6450	0	32832	
6451	0	32808	
6452	0	32788	
6453	0	32802	
6454	0	32856	
6455	0	32892	
6456	0	32912	
6457	0	32920	
6458	0	32916	
6459	0	32904	
6460	0	32864	
6461	0	32836	
6462	0	32828	
6463	0	32812	
6464	0	32840	
6465	0	32888	
6466	0	32876	
6467	0	32868	
6468	0	32900	
6469	0	32912	
6470	0	32948	
6471	0	32996	
6472	0	33002	
6473	0	32984	
6474	0	32956	
6475	0	32936	
6476	0	32984	
6477	0	33028	
6478	0	33050	
6479	0	33048	
6480	0	33026	
6481	0	33040	
6482	0	33048	
6483	0	33028	
6484	0	33056	
6485	0	33072	
6486	0	33032	
6487	0	32952	
6488	0	32936	
6489	0	32968	
6490	0	32982	
6491	0	32992	
6492	0	33000	
6493	0	33008	
6494	0	33028	
6495	0	33074	
6496	0	33078	
6497	0	33052	
6498	0	33034	
6499	0	33000	
6500	0	33020	
6501	0	33024	
6502	0	33034	
6503	0	33056	
6504	0	33058	
6505	0	33052	
6506	0	33058	
6507	0	33040	
6508	0	33058	
6509	0	33066	
6510	0	33056	
6511	0	33032	
6512	0	33020	
6513	0	33056	
6514	0	33072	
6515	0	33102	
6516	0	33122	
6517	0	33104	
6518	0	33068	
6519	0	33040	
6520	0	33064	
6521	0	33112	
6522	0	33120	
6523	0	33130	
6524	0	33114	
6525	0	33122	
6526	0	33164	
6527	0	33152	
6528	0	33160	
6529	0	33132	
6530	0	33104	
6531	0	33100	
6532	0	33092	
6533	0	33104	
6534	0	33146	
6535	0	33160	
6536	0	33176	
6537	0	33184	
6538	0	33210	
6539	0	33244	
6540	0	33232	
6541	0	33248	
6542	0	33200	
6543	0	33196	
6544	0	33240	
6545	0	33256	
6546	0	33252	
6547	0	33264	
6548	0	33272	
6549	0	33240	
6550	0	33216	
6551	0	33224	
6552	0	33216	
6553	0	33184	
6554	0	33160	
6555	0	33184	
6556	0	33200	
6557	0	33200	
6558	0	33168	
6559	0	33120	
6560	0	33088	
6561	0	33088	
6562	0	33112	
6563	0	33168	
6564	0	33220	
6565	0	33248	
6566	0	33252	
6567	0	33244	
6568	0	33248	
6569	0	33268	
6570	0	33280	
6571	0	33304	
6572	0	33300	
6573	0	33284	
6574	0	33288	
6575	0	33288	
6576	0	33326	
6577	0	33300	
6578	0	33268	
6579	0	33284	
6580	0	33292	
6581	0	33288	
6582	0	33268	
6583	0	33312	
6584	0	33320	
6585	0	33308	
6586	0	33280	
6587	0	33252	
6588	0	33240	
6589	0	33280	
6590	0	33284	
6591	0	33316	
6592	0	33344	
6593	0	33344	
6594	0	33344	
6595	0	33348	
6596	0	33344	
6597	0	33336	
6598	0	33348	
6599	0	33352	
6600	0	33348	
6601	0	33324	
6602	0	33314	
6603	0	33300	
6604	0	33306	
6605	0	33344	
6606	0	33312	
6607	0	33276	
6608	0	33228	
6609	0	33232	
6610	0	33252	
6611	0	33272	
6612	0	33316	
6613	0	33344	
6614	0	33368	
6615	0	33364	
6616	0	33348	
6617	0	33304	
6618	0	33264	
6619	0	33208	
6620	0	33228	
6621	0	33236	
6622	0	33248	
6623	0	33272	
6624	0	33320	
6625	0	33306	
6626	0	33256	
6627	0	33220	
6628	0	33232	
6629	0	33248	
6630	0	33288	
6631	0	33344	
6632	0	33336	
6633	0	33304	
6634	0	33224	
6635	0	33168	
6636	0	33112	
6637	0	33112	
6638	0	33156	
6639	0	33200	
6640	0	33252	
6641	0	33268	
6642	0	33248	
6643	0	33176	
6644	0	33152	
6645	0	33156	
6646	0	33128	
6647	0	33116	
6648	0	33108	
6649	0	33084	
6650	0	33052	
6651	0	33104	
6652	0	33176	
6653	0	33184	
6654	0	33180	
6655	0	33224	
6656	0	33224	
6657	0	33212	
6658	0	33216	
6659	0	33208	
6660	0	33224	
6661	0	33224	
6662	0	33232	
6663	0	33216	
6664	0	33216	
6665	0	33236	
6666	0	33288	
6667	0	33322	
6668	0	33284	
6669	0	33264	
6670	0	33236	
6671	0	33180	
6672	0	33188	
6673	0	33212	
6674	0	33156	
6675	0	33080	
6676	0	33024	
6677	0	32932	
6678	0	32860	
6679	0	32844	
6680	0	32872	
6681	0	32906	
6682	0	32964	
6683	0	33040	
6684	0	33186	
6685	0	33372	
6686	0	33524	
6687	0	33608	
6688	0	33716	
6689	0	33848	
6690	0	34010	
6691	0	34172	
6692	0	34256	
6693	0	34280	
6694	0	34288	
6695	0	34316	
6696	0	34332	
6697	0	34310	
6698	0	34264	
6699	0	34236	
6700	0	34252	
6701	0	34304	
6702	0	34332	
6703	0	34308	
6704	0	34296	
6705	0	34372	
6706	0	34484	
6707	0	34528	
6708	0	34532	
6709	0	34552	
6710	0	34700	
6711	0	34836	
6712	0	34928	
6713	0	35000	
6714	0	35072	
6715	0	35128	
6716	0	35128	
6717	0	35076	
6718	0	35016	
6719	0	34908	
6720	0	34698	
6721	0	34528	
6722	0	34416	
6723	0	34360	
6724	0	34292	
6725	0	34204	
6726	0	34100	
6727	0	34016	
6728	0	33968	
6729	0	33928	
6730	0	33880	
6731	0	33848	
6732	0	33824	
6733	0	33808	
6734	0	33808	
6735	0	33816	
6736	0	33820	
6737	0	33772	
6738	0	33692	
6739	0	33580	
6740	0	33456	
6741	0	33332	
6742	0	33176	
6743	0	33008	
6744	0	32868	
6745	0	32764	
6746	0	32696	
6747	0	32602	
6748	0	32512	
6749	0	32440	
6750	0	32376	
6751	0	32372	
6752	0	32384	
6753	0	32376	
6754	0	32348	
6755	0	32336	
6756	0	32320	
6757	0	32320	
6758	0	32308	
6759	0	32292	
6760	0	32274	
6761	0	32256	
6762	0	32256	
6763	0	32244	
6764	0	32252	
6765	0	32296	
6766	0	32340	
6767	0	32368	
6768	0	32432	
6769	0	32448	
6770	0	32480	
6771	0	32508	
6772	0	32512	
6773	0	32524	
6774	0	32508	
6775	0	32532	
6776	0	32540	
6777	0	32520	
6778	0	32516	
6779	0	32522	
6780	0	32522	
6781	0	32508	
6782	0	32528	
6783	0	32534	
6784	0	32564	
6785	0	32652	
6786	0	32724	
6787	0	32760	
6788	0	32748	
6789	0	32712	
6790	0	32602	
6791	0	32380	
6792	0	32084	
6793	0	31616	
6794	0	31024	
6795	0	30304	
6796	0	29596	
6797	0	29104	
6798	0	28848	
6799	0	28768	
6800	0	28860	
6801	0	29096	
6802	0	29532	
6803	0	30240	
6804	0	31132	
6805	0	32240	
6806	0	33588	
6807	0	35120	
6808	0	36856	
6809	0	38804	
6810	0	41084	
6811	0	43616	
6812	0	46552	
6813	0	49952	
6814	0	53544	
6815	0	57088	
6816	0	60424	
6817	0	62664	
6818	0	63844	
6819	0	64440	
6820	0	64696	
6821	0	64768	
6822	0	64752	
6823	0	64692	
6824	0	64596	
6825	0	64480	
6826	0	64372	
6827	0	64240	
6828	0	61600	
6829	0	55776	
6830	0	51104	
6831	0	47264	
6832	0	44064	
6833	0	41368	
6834	0	39012	
6835	0	36992	
6836	0	35272	
6837	0	33872	
6838	0	32740	
6839	0	31812	
6840	0	31016	
6841	0	30352	
6842	0	29848	
6843	0	29392	
6844	0	28996	
6845	0	28736	
6846	0	28524	
6847	0	28268	
6848	0	28036	
6849	0	27872	
6850	0	27800	
6851	0	27848	
6852	0	27976	
6853	0	28184	
6854	0	28474	
6855	0	28724	
6856	0	28940	
6857	0	29202	
6858	0	29348	
6859	0	29460	
6860	0	29466	
6861	0	29452	
6862	0	29452	
6863	0	29416	
6864	0	29364	
6865	0	29320	
6866	0	29288	
6867	0	29260	
6868	0	29204	
6869	0	29160	
6870	0	29112	
6871	0	29100	
6872	0	29112	
6873	0	29132	
6874	0	29124	
6875	0	29180	
6876	0	29268	
6877	0	29346	
6878	0	29348	
6879	0	29328	
6880	0	29308	
6881	0	29304	
6882	0	29336	
6883	0	29352	
6884	0	29348	
6885	0	29316	
6886	0	29308	
6887	0	29324	
6888	0	29424	
6889	0	29516	
6890	0	29584	
6891	0	29616	
6892	0	29690	
6893	0	29764	
6894	0	29808	
6895	0	29816	
6896	0	29820	
6897	0	29880	
6898	0	29936	
6899	0	29968	
6900	0	30012	
6901	0	30048	
6902	0	30076	
6903	0	30096	
6904	0	30148	
6905	0	30208	
6906	0	30272	
6907	0	30328	
6908	0	30360	
6909	0	30396	
6910	0	30420	
6911	0	30444	
6912	0	30472	
6913	0	30500	
6914	0	30548	
6915	0	30600	
6916	0	30656	
6917	0	30682	
6918	0	30700	
6919	0	30720	
6920	0	30752	
6921	0	30816	
6922	0	30876	
6923	0	30944	
6924	0	31008	
6925	0	31056	
6926	0	31084	
6927	0	31108	
6928	0	31128	
6929	0	31152	
6930	0	31184	
6931	0	31220	
6932	0	31256	
6933	0	31296	
6934	0	31336	
6935	0	31424	
6936	0	31504	
6937	0	31540	
6938	0	31544	
6939	0	31496	
6940	0	31484	
6941	0	31524	
6942	0	31576	
6943	0	31612	
6944	0	31680	
6945	0	31776	
6946	0	31832	
6947	0	31920	
6948	0	31988	
6949	0	32024	
6950	0	32032	
6951	0	32048	
6952	0	32076	
6953	0	32076	
6954	0	32084	
6955	0	32096	
6956	0	32154	
6957	0	32224	
6958	0	32260	
6959	0	32288	
6960	0	32338	
6961	0	32400	
6962	0	32472	
6963	0	32544	
6964	0	32618	
6965	0	32696	
6966	0	32728	
6967	0	32780	
6968	0	32816	
6969	0	32812	
6970	0	32848	
6971	0	32904	
6972	0	32944	
6973	0	33018	
6974	0	33120	
6975	0	33220	
6976	0	33304	
6977	0	33356	
6978	0	33364	
6979	0	33424	
6980	0	33484	
6981	0	33542	
6982	0	33620	
6983	0	33672	
6984	0	33712	
6985	0	33744	
6986	0	33804	
6987	0	33838	
6988	0	33868	
6989	0	33936	
6990	0	34000	
6991	0	34020	
6992	0	34062	
6993	0	34172	
6994	0	34292	
6995	0	34384	
6996	0	34440	
6997	0	34472	
6998	0	34522	
6999	0	34664	
7000	0	34756	
7001	0	34776	
7002	0	34784	
7003	0	34816	
7004	0	34850	
7005	0	34932	
7006	0	35040	
7007	0	35176	
7008	0	35260	
7009	0	35354	
7010	0	35436	
7011	0	35512	
7012	0	35608	
7013	0	35692	
7014	0	35712	
7015	0	35756	
7016	0	35852	
7017	0	35892	
7018	0	35948	
7019	0	36008	
7020	0	36072	
7021	0	36124	
7022	0	36208	
7023	0	36244	
7024	0	36296	
7025	0	36340	
7026	0	36376	
7027	0	36448	
7028	0	36484	
7029	0	36476	
7030	0	36488	
7031	0	36512	
7032	0	36520	
7033	0	36516	
7034	0	36602	
7035	0	36672	
7036	0	36764	
7037	0	36832	
7038	0	36824	
7039	0	36740	
7040	0	36616	
7041	0	36548	
7042	0	36496	
7043	0	36492	
7044	0	36512	
7045	0	36552	
7046	0	36568	
7047	0	36624	
7048	0	36648	
7049	0	36656	
7050	0	36688	
7051	0	36680	
7052	0	36660	
7053	0	36624	
7054	0	36586	
7055	0	36544	
7056	0	36544	
7057	0	36568	
7058	0	36584	
7059	0	36602	
7060	0	36588	
7061	0	36578	
7062	0	36528	
7063	0	36476	
7064	0	36432	
7065	0	36352	
7066	0	36248	
7067	0	36104	
7068	0	35962	
7069	0	35844	
7070	0	35768	
7071	0	35704	
7072	0	35608	
7073	0	35488	
7074	0	35328	
7075	0	35184	
7076	0	35000	
7077	0	34800	
7078	0	34624	
7079	0	34456	
7080	0	34280	
7081	0	34072	
7082	0	33872	
7083	0	33680	
7084	0	33464	
7085	0	33312	
7086	0	33148	
7087	0	33010	
7088	0	32856	
7089	0	32656	
7090	0	32440	
7091	0	32248	
7092	0	32084	
7093	0	31888	
7094	0	31640	
7095	0	31488	
7096	0	31352	
7097	0	31212	
7098	0	31048	
7099	0	30896	
7100	0	30776	
7101	0	30648	
7102	0	30536	
7103	0	30456	
7104	0	30366	
7105	0	30244	
7106	0	30112	
7107	0	30010	
7108	0	29936	
7109	0	29864	
7110	0	29760	
7111	0	29674	
7112	0	29600	
7113	0	29508	
7114	0	29428	
7115	0	29344	
7116	0	29272	
7117	0	29248	
7118	0	29208	
7119	0	29156	
7120	0	29080	
7121	0	29024	
7122	0	28976	
7123	0	28928	
7124	0	28884	
7125	0	28884	
7126	0	28872	
7127	0	28840	
7128	0	28802	
7129	0	28810	
7130	0	28828	
7131	0	28820	
7132	0	28820	
7133	0	28828	
7134	0	28836	
7135	0	28828	
7136	0	28840	
7137	0	28888	
7138	0	28912	
7139	0	28964	
7140	0	28996	
7141	0	29040	
7142	0	29036	
7143	0	29000	
7144	0	29058	
7145	0	29112	
7146	0	29136	
7147	0	29120	
7148	0	29136	
7149	0	29176	
7150	0	29202	
7151	0	29224	
7152	0	29284	
7153	0	29328	
7154	0	29360	
7155	0	29404	
7156	0	29432	
7157	0	29484	
7158	0	29536	
7159	0	29500	
7160	0	29504	
7161	0	29546	
7162	0	29624	
7163	0	29660	
7164	0	29684	
7165	0	29752	
7166	0	29806	
7167	0	29832	
7168	0	29896	
7169	0	29920	
7170	0	29916	
7171	0	29908	
7172	0	29932	
7173	0	29964	
7174	0	30016	
7175	0	30052	
7176	0	30092	
7177	0	30176	
7178	0	30188	
7179	0	30168	
7180	0	30172	
7181	0	30228	
7182	0	30320	
7183	0	30400	
7184	0	30440	
7185	0	30458	
7186	0	30488	
7187	0	30528	
7188	0	30520	
7189	0	30464	
7190	0	30424	
7191	0	30380	
7192	0	30416	
7193	0	30504	
7194	0	30612	
7195	0	30716	
7196	0	30832	
7197	0	30880	
7198	0	30836	
7199	0	30789	
7200	0	30796	
7201	0	30856	
7202	0	30858	
7203	0	30836	
7204	0	30800	
7205	0	30836	
7206	0	30876	
7207	0	30920	
7208	0	31020	
7209	0	31116	
7210	0	31120	
7211	0	31076	
7212	0	31100	
7213	0	31120	
7214	0	31148	
7215	0	31172	
7216	0	31184	
7217	0	31180	
7218	0	31200	
7219	0	31192	
7220	0	31200	
7221	0	31200	
7222	0	31152	
7223	0	31152	
7224	0	31150	
7225	0	31228	
7226	0	31280	
7227	0	31280	
7228	0	31252	
7229	0	31200	
7230	0	31164	
7231	0	31176	
7232	0	31224	
7233	0	31328	
7234	0	31368	
7235	0	31356	
7236	0	31400	
7237	0	31424	
7238	0	31428	
7239	0	31476	
7240	0	31560	
7241	0	31592	
7242	0	31564	
7243	0	31528	
7244	0	31504	
7245	0	31500	
7246	0	31528	
7247	0	31536	
7248	0	31532	
7249	0	31572	
7250	0	31586	
7251	0	31572	
7252	0	31560	
7253	0	31540	
7254	0	31566	
7255	0	31600	
7256	0	31572	
7257	0	31584	
7258	0	31588	
7259	0	31580	
7260	0	31580	
7261	0	31564	
7262	0	31528	
7263	0	31536	
7264	0	31552	
7265	0	31536	
7266	0	31522	
7267	0	31592	
7268	0	31624	
7269	0	31608	
7270	0	31584	
7271	0	31608	
7272	0	31632	
7273	0	31616	
7274	0	31540	
7275	0	31456	
7276	0	31444	
7277	0	31448	
7278	0	31456	
7279	0	31488	
7280	0	31520	
7281	0	31536	
7282	0	31592	
7283	0	31616	
7284	0	31600	
7285	0	31568	
7286	0	31576	
7287	0	31616	
7288	0	31652	
7289	0	31632	
7290	0	31620	
7291	0	31576	
7292	0	31528	
7293	0	31476	
7294	0	31466	
7295	0	31524	
7296	0	31564	
7297	0	31584	
7298	0	31592	
7299	0	31628	
7300	0	31650	
7301	0	31668	
7302	0	31664	
7303	0	31656	
7304	0	31704	
7305	0	31756	
7306	0	31800	
7307	0	31824	
7308	0	31832	
7309	0	31792	
7310	0	31716	
7311	0	31664	
7312	0	31616	
7313	0	31568	
7314	0	31532	
7315	0	31520	
7316	0	31588	
7317	0	31668	
7318	0	31680	
7319	0	31676	
7320	0	31668	
7321	0	31660	
7322	0	31684	
7323	0	31680	
7324	0	31680	
7325	0	31676	
7326	0	31680	
7327	0	31688	
7328	0	31706	
7329	0	31716	
7330	0	31708	
7331	0	31680	
7332	0	31672	
7333	0	31654	
7334	0	31674	
7335	0	31720	
7336	0	31748	
7337	0	31700	
7338	0	31700	
7339	0	31778	
7340	0	31784	
7341	0	31840	
7342	0	31848	
7343	0	31816	
7344	0	31774	
7345	0	31692	
7346	0	31668	
7347	0	31704	
7348	0	31728	
7349	0	31728	
7350	0	31700	
7351	0	31664	
7352	0	31610	
7353	0	31600	
7354	0	31600	
7355	0	31640	
7356	0	31648	
7357	0	31668	
7358	0	31692	
7359	0	31738	
7360	0	31800	
7361	0	31856	
7362	0	31840	
7363	0	31844	
7364	0	31856	
7365	0	31876	
7366	0	31908	
7367	0	31940	
7368	0	31940	
7369	0	31920	
7370	0	31884	
7371	0	31912	
7372	0	31928	
7373	0	31904	
7374	0	31912	
7375	0	31952	
7376	0	31952	
7377	0	31968	
7378	0	32004	
7379	0	32044	
7380	0	32048	
7381	0	31980	
7382	0	31928	
7383	0	31920	
7384	0	31932	
7385	0	31936	
7386	0	31952	
7387	0	31960	
7388	0	31946	
7389	0	31932	
7390	0	31968	
7391	0	31992	
7392	0	32020	
7393	0	32048	
7394	0	32036	
7395	0	32060	
7396	0	32084	
7397	0	32084	
7398	0	32028	
7399	0	31992	
7400	0	31948	
7401	0	31952	
7402	0	31970	
7403	0	31972	
7404	0	32020	
7405	0	32076	
7406	0	32108	
7407	0	32088	
7408	0	32048	
7409	0	31996	
7410	0	31984	
7411	0	31996	
7412	0	32016	
7413	0	32048	
7414	0	32048	
7415	0	32088	
7416	0	32148	
7417	0	32244	
7418	0	32248	
7419	0	32212	
7420	0	32124	
7421	0	32124	
7422	0	32080	
7423	0	32056	
7424	0	32064	
7425	0	32084	
7426	0	32068	
7427	0	32064	
7428	0	32100	
7429	0	32122	
7430	0	32140	
7431	0	32144	
7432	0	32168	
7433	0	32176	
7434	0	32196	
7435	0	32248	
7436	0	32272	
7437	0	32264	
7438	0	32248	
7439	0	32248	
7440	0	32268	
7441	0	32312	
7442	0	32360	
7443	0	32396	
7444	0	32416	
7445	0	32404	
7446	0	32378	
7447	0	32336	
7448	0	32322	
7449	0	32324	
7450	0	32384	
7451	0	32428	
7452	0	32450	
7453	0	32436	
7454	0	32428	
7455	0	32432	
7456	0	32420	
7457	0	32444	
7458	0	32484	
7459	0	32484	
7460	0	32464	
7461	0	32460	
7462	0	32500	
7463	0	32532	
7464	0	32536	
7465	0	32508	
7466	0	32528	
7467	0	32560	
7468	0	32544	
7469	0	32520	
7470	0	32500	
7471	0	32508	
7472	0	32548	
7473	0	32552	
7474	0	32536	
7475	0	32556	
7476	0	32594	
7477	0	32628	
7478	0	32664	
7479	0	32648	
7480	0	32640	
7481	0	32656	
7482	0	32668	
7483	0	32686	
7484	0	32708	
7485	0	32712	
7486	0	32720	
7487	0	32748	
7488	0	32720	
7489	0	32740	
7490	0	32772	
7491	0	32764	
7492	0	32748	
7493	0	32708	
7494	0	32692	
7495	0	32664	
7496	0	32656	
7497	0	32698	
7498	0	32784	
7499	0	32816	
7500	0	32840	
7501	0	32884	
7502	0	32904	
7503	0	32908	
7504	0	32930	
7505	0	32928	
7506	0	32892	
7507	0	32834	
7508	0	32792	
7509	0	32776	
7510	0	32796	
7511	0	32776	
7512	0	32748	
7513	0	32788	
7514	0	32820	
7515	0	32808	
7516	0	32820	
7517	0	32832	
7518	0	32838	
7519	0	32816	
7520	0	32800	
7521	0	32796	
7522	0	32760	
7523	0	32770	
7524	0	32832	
7525	0	32944	
7526	0	33012	
7527	0	33044	
7528	0	33060	
7529	0	33012	
7530	0	32952	
7531	0	32904	
7532	0	32944	
7533	0	32936	
7534	0	32864	
7535	0	32766	
7536	0	32760	
7537	0	32768	
7538	0	32768	
7539	0	32800	
7540	0	32810	
7541	0	32788	
7542	0	32764	
7543	0	32808	
7544	0	32860	
7545	0	32892	
7546	0	32904	
7547	0	32892	
7548	0	32864	
7549	0	32848	
7550	0	32876	
7551	0	32940	
7552	0	33000	
7553	0	33016	
7554	0	33008	
7555	0	32988	
7556	0	32960	
7557	0	32938	
7558	0	32910	
7559	0	32884	
7560	0	32896	
7561	0	32968	
7562	0	33056	
7563	0	33072	
7564	0	33050	
7565	0	33058	
7566	0	33060	
7567	0	33052	
7568	0	33056	
7569	0	33076	
7570	0	33120	
7571	0	33188	
7572	0	33248	
7573	0	33312	
7574	0	33324	
7575	0	33344	
7576	0	33272	
7577	0	33164	
7578	0	33108	
7579	0	33052	
7580	0	33024	
7581	0	33004	
7582	0	32992	
7583	0	32960	
7584	0	32928	
7585	0	32944	
7586	0	32994	
7587	0	33100	
7588	0	33236	
7589	0	33344	
7590	0	33504	
7591	0	33624	
7592	0	33700	
7593	0	33760	
7594	0	33888	
7595	0	34012	
7596	0	34020	
7597	0	34010	
7598	0	34010	
7599	0	34004	
7600	0	33948	
7601	0	33908	
7602	0	33902	
7603	0	33916	
7604	0	33984	
7605	0	34088	
7606	0	34216	
7607	0	34336	
7608	0	34420	
7609	0	34464	
7610	0	34516	
7611	0	34572	
7612	0	34624	
7613	0	34724	
7614	0	34808	
7615	0	34868	
7616	0	34972	
7617	0	35104	
7618	0	35176	
7619	0	35204	
7620	0	35120	
7621	0	34972	
7622	0	34816	
7623	0	34656	
7624	0	34544	
7625	0	34384	
7626	0	34252	
7627	0	34188	
7628	0	34108	
7629	0	33956	
7630	0	33860	
7631	0	33816	
7632	0	33798	
7633	0	33772	
7634	0	33732	
7635	0	33720	
7636	0	33744	
7637	0	33760	
7638	0	33732	
7639	0	33696	
7640	0	33684	
7641	0	33656	
7642	0	33620	
7643	0	33576	
7644	0	33480	
7645	0	33384	
7646	0	33288	
7647	0	33172	
7648	0	33008	
7649	0	32824	
7650	0	32632	
7651	0	32484	
7652	0	32400	
7653	0	32316	
7654	0	32256	
7655	0	32156	
7656	0	32124	
7657	0	32088	
7658	0	32032	
7659	0	31988	
7660	0	32004	
7661	0	32032	
7662	0	32072	
7663	0	32120	
7664	0	32116	
7665	0	32076	
7666	0	32072	
7667	0	32092	
7668	0	32128	
7669	0	32188	
7670	0	32224	
7671	0	32232	
7672	0	32248	
7673	0	32320	
7674	0	32344	
7675	0	32316	
7676	0	32332	
7677	0	32354	
7678	0	32360	
7679	0	32386	
7680	0	32444	
7681	0	32480	
7682	0	32480	
7683	0	32480	
7684	0	32480	
7685	0	32496	
7686	0	32516	
7687	0	32520	
7688	0	32520	
7689	0	32496	
7690	0	32482	
7691	0	32536	
7692	0	32592	
7693	0	32552	
7694	0	32450	
7695	0	32308	
7696	0	32124	
7697	0	31824	
7698	0	31384	
7699	0	30744	
7700	0	30044	
7701	0	29504	
7702	0	29128	
7703	0	28912	
7704	0	28808	
7705	0	28924	
7706	0	29288	
7707	0	29920	
7708	0	30680	
7709	0	31584	
7710	0	32706	
7711	0	34058	
7712	0	35616	
7713	0	37324	
7714	0	39376	
7715	0	41844	
7716	0	44668	
7717	0	47968	
7718	0	51664	
7719	0	55340	
7720	0	58848	
7721	0	61800	
7722	0	63480	
7723	0	64304	
7724	0	64704	
7725	0	64868	
7726	0	64904	
7727	0	64848	
7728	0	64772	
7729	0	64648	
7730	0	64552	
7731	0	64440	
7732	0	61484	
7733	0	55444	
7734	0	50440	
7735	0	46349	
7736	0	43000	
7737	0	40256	
7738	0	37932	
7739	0	35860	
7740	0	34076	
7741	0	32536	
7742	0	31146	
7743	0	29932	
7744	0	29004	
7745	0	28340	
7746	0	27904	
7747	0	27604	
7748	0	27388	
7749	0	27240	
7750	0	27076	
7751	0	26920	
7752	0	26844	
7753	0	26852	
7754	0	27012	
7755	0	27244	
7756	0	27540	
7757	0	27840	
7758	0	28144	
7759	0	28416	
7760	0	28672	
7761	0	28930	
7762	0	29240	
7763	0	29492	
7764	0	29652	
7765	0	29740	
7766	0	29804	
7767	0	29800	
7768	0	29760	
7769	0	29762	
7770	0	29724	
7771	0	29748	
7772	0	29736	
7773	0	29703	
7774	0	29668	
7775	0	29612	
7776	0	29617	
7777	0	29602	
7778	0	29560	
7779	0	29544	
7780	0	29484	
7781	0	29396	
7782	0	29356	
7783	0	29364	
7784	0	29416	
7785	0	29468	
7786	0	29492	
7787	0	29592	
7788	0	29704	
7789	0	29784	
7790	0	29840	
7791	0	29864	
7792	0	29912	
7793	0	29964	
7794	0	30000	
7795	0	30012	
7796	0	30016	
7797	0	30060	
7798	0	30068	
7799	0	30104	
7800	0	30132	
7801	0	30204	
7802	0	30220	
7803	0	30196	
7804	0	30196	
7805	0	30174	
7806	0	30164	
7807	0	30196	
7808	0	30236	
7809	0	30256	
7810	0	30288	
7811	0	30380	
7812	0	30500	
7813	0	30612	
7814	0	30732	
7815	0	30812	
7816	0	30848	
7817	0	30864	
7818	0	30936	
7819	0	31008	
7820	0	31072	
7821	0	31114	
7822	0	31144	
7823	0	31212	
7824	0	31264	
7825	0	31266	
7826	0	31320	
7827	0	31372	
7828	0	31390	
7829	0	31356	
7830	0	31368	
7831	0	31372	
7832	0	31404	
7833	0	31472	
7834	0	31564	
7835	0	31624	
7836	0	31610	
7837	0	31644	
7838	0	31668	
7839	0	31680	
7840	0	31632	
7841	0	31664	
7842	0	31768	
7843	0	31876	
7844	0	32014	
7845	0	32076	
7846	0	32152	
7847	0	32272	
7848	0	32324	
7849	0	32288	
7850	0	32264	
7851	0	32296	
7852	0	32320	
7853	0	32378	
7854	0	32464	
7855	0	32528	
7856	0	32584	
7857	0	32640	
7858	0	32668	
7859	0	32700	
7860	0	32728	
7861	0	32752	
7862	0	32792	
7863	0	32848	
7864	0	32916	
7865	0	32936	
7866	0	32932	
7867	0	32940	
7868	0	32992	
7869	0	33058	
7870	0	33076	
7871	0	33056	
7872	0	33128	
7873	0	33220	
7874	0	33304	
7875	0	33408	
7876	0	33460	
7877	0	33480	
7878	0	33560	
7879	0	33620	
7880	0	33668	
7881	0	33732	
7882	0	33776	
7883	0	33808	
7884	0	33936	
7885	0	34076	
7886	0	34180	
7887	0	34250	
7888	0	34352	
7889	0	34464	
7890	0	34512	
7891	0	34508	
7892	0	34508	
7893	0	34504	
7894	0	34496	
7895	0	34532	
7896	0	34593	
7897	0	34656	
7898	0	34684	
7899	0	34824	
7900	0	34960	
7901	0	34988	
7902	0	35024	
7903	0	35136	
7904	0	35284	
7905	0	35418	
7906	0	35544	
7907	0	35696	
7908	0	35850	
7909	0	35968	
7910	0	36070	
7911	0	36144	
7912	0	36208	
7913	0	36264	
7914	0	36356	
7915	0	36406	
7916	0	36436	
7917	0	36480	
7918	0	36560	
7919	0	36616	
7920	0	36672	
7921	0	36772	
7922	0	36832	
7923	0	36904	
7924	0	37016	
7925	0	37112	
7926	0	37152	
7927	0	37244	
7928	0	37320	
7929	0	37404	
7930	0	37444	
7931	0	37492	
7932	0	37572	
7933	0	37632	
7934	0	37684	
7935	0	37712	
7936	0	37724	
7937	0	37756	
7938	0	37784	
7939	0	37832	
7940	0	37856	
7941	0	37840	
7942	0	37792	
7943	0	37728	
7944	0	37716	
7945	0	37744	
7946	0	37704	
7947	0	37680	
7948	0	37644	
7949	0	37600	
7950	0	37548	
7951	0	37496	
7952	0	37428	
7953	0	37394	
7954	0	37380	
7955	0	37348	
7956	0	37336	
7957	0	37336	
7958	0	37320	
7959	0	37300	
7960	0	37200	
7961	0	37090	
7962	0	37056	
7963	0	36996	
7964	0	36896	
7965	0	36780	
7966	0	36632	
7967	0	36384	
7968	0	36192	
7969	0	36056	
7970	0	35912	
7971	0	35716	
7972	0	35600	
7973	0	35466	
7974	0	35328	
7975	0	35216	
7976	0	35056	
7977	0	34868	
7978	0	34660	
7979	0	34404	
7980	0	34132	
7981	0	33892	
7982	0	33688	
7983	0	33472	
7984	0	33268	
7985	0	33088	
7986	0	32892	
7987	0	32728	
7988	0	32524	
7989	0	32296	
7990	0	32032	
7991	0	31896	
7992	0	31772	
7993	0	31592	
7994	0	31328	
7995	0	31036	
7996	0	30830	
7997	0	30636	
7998	0	30428	
7999	0	30236	
8000	0	30100	
8001	0	29904	
8002	0	29720	
8003	0	29568	
8004	0	29442	
8005	0	29324	
8006	0	29220	
8007	0	29132	
8008	0	29072	
8009	0	29032	
8010	0	29000	
8011	0	28954	
8012	0	28888	
8013	0	28814	
8014	0	28812	
8015	0	28770	
8016	0	28752	
8017	0	28712	
8018	0	28708	
8019	0	28720	
8020	0	28656	
8021	0	28506	
8022	0	28384	
8023	0	28248	
8024	0	28152	
8025	0	28116	
8026	0	28064	
8027	0	28060	
8028	0	28048	
8029	0	28000	
8030	0	27996	
8031	0	27924	
8032	0	27860	
8033	0	27896	
8034	0	27944	
8035	0	27932	
8036	0	27956	
8037	0	28008	
8038	0	28100	
8039	0	28168	
8040	0	28240	
8041	0	28292	
8042	0	28336	
8043	0	28320	
8044	0	28250	
8045	0	28218	
8046	0	28288	
8047	0	28362	
8048	0	28408	
8049	0	28452	
8050	0	28440	
8051	0	28464	
8052	0	28516	
8053	0	28544	
8054	0	28544	
8055	0	28552	
8056	0	28600	
8057	0	28648	
8058	0	28712	
8059	0	28788	
8060	0	28876	
8061	0	28916	
8062	0	28934	
8063	0	28968	
8064	0	29040	
8065	0	29084	
8066	0	29092	
8067	0	29064	
8068	0	29040	
8069	0	29064	
8070	0	29130	
8071	0	29134	
8072	0	29130	
8073	0	29164	
8074	0	29208	
8075	0	29240	
8076	0	29282	
8077	0	29308	
8078	0	29346	
8079	0	29292	
8080	0	29204	
8081	0	29248	
8082	0	29304	
8083	0	29340	
8084	0	29400	
8085	0	29500	
8086	0	29668	
8087	0	29784	
8088	0	29864	
8089	0	29956	
8090	0	30004	
8091	0	30020	
8092	0	30056	
8093	0	30096	
8094	0	30136	
8095	0	30144	
8096	0	30104	
8097	0	30016	
8098	0	29940	
8099	0	29964	
8100	0	30028	
8101	0	30076	
8102	0	30100	
8103	0	30156	
8104	0	30232	
8105	0	30288	
8106	0	30376	
8107	0	30504	
8108	0	30610	
8109	0	30688	
8110	0	30732	
8111	0	30780	
8112	0	30816	
8113	0	30776	
8114	0	30806	
8115	0	30816	
8116	0	30804	
8117	0	30784	
8118	0	30728	
8119	0	30688	
8120	0	30712	
8121	0	30728	
8122	0	30788	
8123	0	30817	
8124	0	30772	
8125	0	30778	
8126	0	30836	
8127	0	30852	
8128	0	30832	
8129	0	30816	
8130	0	30832	
8131	0	30824	
8132	0	30780	
8133	0	30824	
8134	0	30908	
8135	0	31008	
8136	0	31080	
8137	0	31152	
8138	0	31228	
8139	0	31328	
8140	0	31460	
8141	0	31536	
8142	0	31632	
8143	0	31640	
8144	0	31668	
8145	0	31668	
8146	0	31612	
8147	0	31594	
8148	0	31572	
8149	0	31624	
8150	0	31664	
8151	0	31704	
8152	0	31740	
8153	0	31660	
8154	0	31546	
8155	0	31456	
8156	0	31384	
8157	0	31360	
8158	0	31376	
8159	0	31352	
8160	0	31352	
8161	0	31400	
8162	0	31428	
8163	0	31456	
8164	0	31548	
8165	0	31664	
8166	0	31780	
8167	0	31844	
8168	0	31792	
8169	0	31736	
8170	0	31684	
8171	0	31692	
8172	0	31712	
8173	0	31724	
8174	0	31700	
8175	0	31676	
8176	0	31720	
8177	0	31852	
8178	0	32012	
8179	0	32080	
8180	0	32024	
8181	0	31880	
8182	0	31736	
8183	0	31684	
8184	0	31724	
8185	0	31784	
8186	0	31880	
8187	0	31900	
8188	0	31832	
8189	0	31834	
8190	0	31840	
8191	0	31864	
8192	0	31904	
8193	0	31892	
8194	0	31788	
8195	0	31744	
8196	0	31728	
8197	0	31756	
8198	0	31832	
8199	0	31908	
8200	0	31960	
8201	0	31996	
8202	0	31988	
8203	0	31924	
8204	0	31900	
8205	0	31912	
8206	0	31932	
8207	0	31968	
8208	0	31968	
8209	0	31992	
8210	0	32042	
8211	0	32096	
8212	0	32160	
8213	0	32232	
8214	0	32268	
8215	0	32250	
8216	0	32192	
8217	0	32124	
8218	0	32096	
8219	0	32064	
8220	0	32008	
8221	0	31962	
8222	0	31924	
8223	0	31892	
8224	0	31872	
8225	0	31860	
8226	0	31916	
8227	0	32028	
8228	0	32048	
8229	0	32090	
8230	0	32122	
8231	0	32092	
8232	0	32096	
8233	0	32064	
8234	0	32022	
8235	0	31968	
8236	0	31916	
8237	0	31976	
8238	0	32056	
8239	0	32072	
8240	0	32120	
8241	0	32104	
8242	0	32000	
8243	0	31920	
8244	0	31884	
8245	0	31882	
8246	0	31952	
8247	0	32020	
8248	0	31936	
8249	0	31860	
8250	0	31896	
8251	0	32112	
8252	0	32324	
8253	0	32472	
8254	0	32500	
8255	0	32488	
8256	0	32576	
8257	0	32634	
8258	0	32624	
8259	0	32640	
8260	0	32620	
8261	0	32516	
8262	0	32404	
8263	0	32344	
8264	0	32336	
8265	0	32252	
8266	0	32184	
8267	0	32136	
8268	0	32132	
8269	0	32170	
8270	0	32192	
8271	0	32120	
8272	0	32020	
8273	0	31992	
8274	0	32056	
8275	0	32088	
8276	0	32128	
8277	0	32156	
8278	0	32196	
8279	0	32188	
8280	0	32092	
8281	0	32008	
8282	0	32024	
8283	0	32008	
8284	0	32064	
8285	0	32112	
8286	0	32100	
8287	0	32076	
8288	0	32032	
8289	0	32004	
8290	0	32000	
8291	0	32008	
8292	0	32096	
8293	0	32204	
8294	0	32200	
8295	0	32216	
8296	0	32200	
8297	0	32204	
8298	0	32200	
8299	0	32204	
8300	0	32234	
8301	0	32308	
8302	0	32368	
8303	0	32396	
8304	0	32476	
8305	0	32616	
8306	0	32636	
8307	0	32624	
8308	0	32616	
8309	0	32520	
8310	0	32360	
8311	0	32168	
8312	0	32048	
8313	0	32110	
8314	0	32224	
8315	0	32348	
8316	0	32400	
8317	0	32432	
8318	0	32496	
8319	0	32552	
8320	0	32440	
8321	0	32296	
8322	0	32250	
8323	0	32284	
8324	0	32304	
8325	0	32364	
8326	0	32484	
8327	0	32596	
8328	0	32672	
8329	0	32688	
8330	0	32692	
8331	0	32784	
8332	0	32820	
8333	0	32848	
8334	0	32908	
8335	0	32952	
8336	0	32912	
8337	0	32864	
8338	0	32788	
8339	0	32704	
8340	0	32604	
8341	0	32536	
8342	0	32496	
8343	0	32440	
8344	0	32548	
8345	0	32698	
8346	0	32810	
8347	0	32956	
8348	0	33020	
8349	0	32972	
8350	0	32868	
8351	0	32720	
8352	0	32676	
8353	0	32696	
8354	0	32640	
8355	0	32604	
8356	0	32574	
8357	0	32600	
8358	0	32660	
8359	0	32720	
8360	0	32760	
8361	0	32832	
8362	0	32924	
8363	0	32986	
8364	0	33072	
8365	0	33192	
8366	0	33226	
8367	0	33184	
8368	0	33088	
8369	0	32936	
8370	0	32868	
8371	0	32832	
8372	0	32792	
8373	0	32800	
8374	0	32772	
8375	0	32688	
8376	0	32604	
8377	0	32616	
8378	0	32712	
8379	0	32744	
8380	0	32704	
8381	0	32706	
8382	0	32864	
8383	0	32908	
8384	0	32936	
8385	0	33038	
8386	0	33248	
8387	0	33374	
8388	0	33344	
8389	0	33224	
8390	0	33184	
8391	0	33216	
8392	0	33232	
8393	0	33074	
8394	0	33068	
8395	0	33232	
8396	0	33316	
8397	0	33344	
8398	0	33324	
8399	0	33306	
8400	0	33232	
8401	0	33258	
8402	0	33360	
8403	0	33464	
8404	0	33448	
8405	0	33480	
8406	0	33680	
8407	0	33748	
8408	0	33706	
8409	0	33600	
8410	0	33444	
8411	0	33260	
8412	0	33080	
8413	0	32988	
8414	0	33038	
8415	0	33164	
8416	0	33284	
8417	0	33440	
8418	0	33476	
8419	0	33496	
8420	0	33596	
8421	0	33692	
8422	0	33748	
8423	0	33864	
8424	0	33946	
8425	0	33932	
8426	0	33904	
8427	0	33968	
8428	0	34028	
8429	0	34062	
8430	0	34132	
8431	0	34256	
8432	0	34248	
8433	0	34010	
8434	0	33968	
8435	0	34136	
8436	0	34420	
8437	0	34672	
8438	0	34798	
8439	0	34804	
8440	0	34868	
8441	0	34976	
8442	0	35068	
8443	0	35224	
8444	0	35368	
8445	0	35608	
8446	0	35888	
8447	0	36040	
8448	0	36160	
8449	0	36208	
8450	0	36186	
8451	0	36184	
8452	0	36100	
8453	0	35936	
8454	0	35772	
8455	0	35584	
8456	0	35336	
8457	0	35272	
8458	0	35204	
8459	0	35168	
8460	0	35064	
8461	0	34876	
8462	0	34656	
8463	0	34472	
8464	0	34300	
8465	0	34290	
8466	0	34292	
8467	0	34256	
8468	0	34216	
8469	0	34072	
8470	0	34000	
8471	0	33928	
8472	0	33872	
8473	0	33716	
8474	0	33564	
8475	0	33524	
8476	0	33460	
8477	0	33412	
8478	0	33368	
8479	0	33180	
8480	0	33004	
8481	0	33024	
8482	0	32960	
8483	0	33088	
8484	0	33230	
8485	0	33262	
8486	0	33172	
8487	0	32980	
8488	0	32856	
8489	0	32908	
8490	0	32866	
8491	0	32764	
8492	0	32544	
8493	0	32216	
8494	0	31952	
8495	0	31816	
8496	0	31832	
8497	0	31820	
8498	0	31792	
8499	0	31896	
8500	0	32196	
8501	0	32384	
8502	0	32424	
8503	0	32300	
8504	0	32244	
8505	0	32304	
8506	0	32532	
8507	0	32936	
8508	0	33048	
8509	0	33036	
8510	0	33000	
8511	0	32988	
8512	0	33098	
8513	0	33234	
8514	0	33176	
8515	0	33076	
8516	0	32896	
8517	0	32660	
8518	0	32392	
8519	0	32188	
8520	0	32146	
8521	0	32120	
8522	0	31956	
8523	0	31880	
8524	0	31872	
8525	0	31840	
8526	0	31844	
8527	0	31872	
8528	0	32010	
8529	0	32088	
8530	0	32248	
8531	0	32512	
8532	0	32720	
8533	0	32856	
8534	0	32764	
8535	0	32264	
8536	0	31408	
8537	0	30752	
8538	0	30208	
8539	0	29820	
8540	0	29588	
8541	0	29488	
8542	0	29642	
8543	0	29928	
8544	0	30588	
8545	0	31614	
8546	0	32848	
8547	0	34112	
8548	0	35432	
8549	0	36808	
8550	0	38324	
8551	0	40220	
8552	0	42548	
8553	0	45344	
8554	0	48448	
8555	0	51666	
8556	0	54916	
8557	0	58008	
8558	0	61004	
8559	0	62896	
8560	0	63904	
8561	0	64376	
8562	0	64588	
8563	0	64640	
8564	0	64600	
8565	0	64540	
8566	0	64436	
8567	0	59028	
8568	0	53172	
8569	0	47324	
8570	0	42008	
8571	0	37876	
8572	0	35024	
8573	0	33208	
8574	0	31952	
8575	0	31080	
8576	0	30480	
8577	0	30000	
8578	0	29470	
8579	0	28720	
8580	0	27884	
8581	0	27084	
8582	0	26436	
8583	0	26008	
8584	0	25754	
8585	0	25688	
8586	0	25796	
8587	0	25694	
8588	0	25640	
8589	0	25656	
8590	0	25888	
8591	0	26248	
