# OpenSignals Text File Format. Version 1
# {"00:07:80:4B:15:F7": {"position": 0, "device": "biosignalsplux", "device name": "00:07:80:4B:15:F7", "device connection": "BTH00:07:80:4B:15:F7", "sampling rate": 1000, "resolution": [16], "firmware version": 775, "comments": "", "keywords": "", "mode": 0, "sync interval": 2, "date": "2023-4-12", "time": "15:32:51.840", "channels": [1], "sensor": ["ECG"], "label": ["CH1"], "column": ["nSeq", "DI", "CH1"], "special": [{"SpO2": [80, 40, 5, 4, 3, 3]}, {"SpO2": [80, 40, 5, 4, 3, 3]}, {"SpO2": [80, 40, 5, 4, 3, 3]}, {"SpO2": [80, 40, 5, 4, 3, 3]}, {"SpO2": [80, 40, 5, 4, 3, 3]}, {"SpO2": [80, 40, 5, 4, 3, 3]}, {"SpO2": [80, 40, 5, 4, 3, 3]}, {"SpO2": [80, 40, 5, 4, 3, 3]}], "digital IO": [0, 1], "sleeve color": ["green"], "convertedValues": 0}}
# EndOfHeader
0	0	31448	
1	0	31420	
2	0	31446	
3	0	31572	
4	0	31784	
5	0	31944	
6	0	31924	
7	0	31928	
8	0	31954	
9	0	31900	
10	0	31868	
11	0	31848	
12	0	31806	
13	0	31800	
14	0	31908	
15	0	31960	
16	0	32048	
17	0	32066	
18	0	32076	
19	0	32232	
20	0	32348	
21	0	32372	
22	0	32432	
23	0	32360	
24	0	32296	
25	0	32344	
26	0	32360	
27	0	32328	
28	0	32420	
29	0	32516	
30	0	32608	
31	0	32576	
32	0	32586	
33	0	32596	
34	0	32664	
35	0	32732	
36	0	32700	
37	0	32622	
38	0	32672	
39	0	32642	
40	0	32492	
41	0	32560	
42	0	32644	
43	0	32720	
44	0	32808	
45	0	32912	
46	0	32976	
47	0	32920	
48	0	32800	
49	0	32756	
50	0	32808	
51	0	32816	
52	0	32700	
53	0	32744	
54	0	32724	
55	0	32700	
56	0	32588	
57	0	32660	
58	0	32754	
59	0	32820	
60	0	32812	
61	0	32880	
62	0	32876	
63	0	32908	
64	0	32957	
65	0	32996	
66	0	33072	
67	0	33136	
68	0	33204	
69	0	33224	
70	0	33280	
71	0	33216	
72	0	33060	
73	0	32960	
74	0	33000	
75	0	33060	
76	0	33044	
77	0	33100	
78	0	33124	
79	0	33012	
80	0	32892	
81	0	32736	
82	0	32560	
83	0	32608	
84	0	32640	
85	0	32672	
86	0	32684	
87	0	32692	
88	0	32620	
89	0	32540	
90	0	32500	
91	0	32556	
92	0	32604	
93	0	32544	
94	0	32628	
95	0	32640	
96	0	32628	
97	0	32680	
98	0	32792	
99	0	32708	
100	0	32644	
101	0	32530	
102	0	32516	
103	0	32500	
104	0	32476	
105	0	32494	
106	0	32548	
107	0	32508	
108	0	32452	
109	0	32408	
110	0	32320	
111	0	32360	
112	0	32404	
113	0	32368	
114	0	32288	
115	0	32264	
116	0	32344	
117	0	32402	
118	0	32480	
119	0	32572	
120	0	32592	
121	0	32604	
122	0	32696	
123	0	32888	
124	0	32992	
125	0	33096	
126	0	33324	
127	0	33442	
128	0	33568	
129	0	33774	
130	0	33908	
131	0	34026	
132	0	34190	
133	0	34180	
134	0	34152	
135	0	34152	
136	0	34128	
137	0	34076	
138	0	34092	
139	0	34112	
140	0	34072	
141	0	33924	
142	0	33914	
143	0	34058	
144	0	34112	
145	0	34240	
146	0	34412	
147	0	34580	
148	0	34800	
149	0	35032	
150	0	35212	
151	0	35520	
152	0	35876	
153	0	36136	
154	0	36426	
155	0	36644	
156	0	36736	
157	0	36836	
158	0	36828	
159	0	36832	
160	0	36868	
161	0	36864	
162	0	36800	
163	0	36748	
164	0	36752	
165	0	36616	
166	0	36484	
167	0	36314	
168	0	36244	
169	0	36240	
170	0	36140	
171	0	36088	
172	0	36152	
173	0	36224	
174	0	36216	
175	0	36156	
176	0	36092	
177	0	35956	
178	0	35708	
179	0	35384	
180	0	35260	
181	0	35200	
182	0	35044	
183	0	34684	
184	0	34184	
185	0	33816	
186	0	33496	
187	0	33044	
188	0	32544	
189	0	32108	
190	0	31688	
191	0	31348	
192	0	31116	
193	0	30960	
194	0	30856	
195	0	30752	
196	0	30760	
197	0	30696	
198	0	30608	
199	0	30408	
200	0	30312	
201	0	30192	
202	0	30036	
203	0	29844	
204	0	29704	
205	0	29604	
206	0	29508	
207	0	29504	
208	0	29508	
209	0	29508	
210	0	29536	
211	0	29596	
212	0	29664	
213	0	29572	
214	0	29420	
215	0	29384	
216	0	29456	
217	0	29496	
218	0	29484	
219	0	29428	
220	0	29388	
221	0	29464	
222	0	29504	
223	0	29656	
224	0	29792	
225	0	29770	
226	0	29796	
227	0	29784	
228	0	29762	
229	0	29768	
230	0	29820	
231	0	29856	
232	0	29868	
233	0	29820	
234	0	29816	
235	0	29792	
236	0	29696	
237	0	29600	
238	0	29576	
239	0	29752	
240	0	29994	
241	0	30048	
242	0	29860	
243	0	29640	
244	0	29418	
245	0	29040	
246	0	28420	
247	0	27736	
248	0	26860	
249	0	25842	
250	0	24892	
251	0	24112	
252	0	23512	
253	0	23194	
254	0	23020	
255	0	22824	
256	0	22936	
257	0	23452	
258	0	24108	
259	0	24848	
260	0	25792	
261	0	27152	
262	0	29072	
263	0	31332	
264	0	33892	
265	0	36608	
266	0	39592	
267	0	42880	
268	0	46624	
269	0	50616	
270	0	54808	
271	0	58992	
272	0	62820	
273	0	65364	
274	0	65535	
275	0	65535	
276	0	65535	
277	0	65535	
278	0	65535	
279	0	65535	
280	0	65535	
281	0	65535	
282	0	65535	
283	0	58336	
284	0	52316	
285	0	47336	
286	0	43064	
287	0	38704	
288	0	34560	
289	0	31118	
290	0	28392	
291	0	26042	
292	0	24052	
293	0	22396	
294	0	20906	
295	0	19642	
296	0	18557	
297	0	17710	
298	0	17168	
299	0	16704	
300	0	16232	
301	0	15788	
302	0	15606	
303	0	15872	
304	0	16416	
305	0	16936	
306	0	17634	
307	0	18520	
308	0	19288	
309	0	19938	
310	0	20600	
311	0	21276	
312	0	22012	
313	0	22692	
314	0	23236	
315	0	23880	
316	0	24638	
317	0	25292	
318	0	25736	
319	0	26204	
320	0	26576	
321	0	27060	
322	0	27596	
323	0	27996	
324	0	28356	
325	0	28502	
326	0	28458	
327	0	28504	
328	0	28620	
329	0	28688	
330	0	28720	
331	0	28792	
332	0	28864	
333	0	28920	
334	0	29112	
335	0	29218	
336	0	29272	
337	0	29384	
338	0	29488	
339	0	29552	
340	0	29548	
341	0	29520	
342	0	29572	
343	0	29648	
344	0	29772	
345	0	29892	
346	0	29944	
347	0	30004	
348	0	30036	
349	0	30100	
350	0	30220	
351	0	30292	
352	0	30290	
353	0	30288	
354	0	30388	
355	0	30468	
356	0	30456	
357	0	30524	
358	0	30540	
359	0	30548	
360	0	30552	
361	0	30566	
362	0	30632	
363	0	30624	
364	0	30708	
365	0	30824	
366	0	30964	
367	0	31056	
368	0	31104	
369	0	31072	
370	0	31100	
371	0	31124	
372	0	31148	
373	0	31072	
374	0	31152	
375	0	31258	
376	0	31328	
377	0	31440	
378	0	31572	
379	0	31552	
380	0	31536	
381	0	31418	
382	0	31372	
383	0	31524	
384	0	31624	
385	0	31656	
386	0	31724	
387	0	31772	
388	0	31840	
389	0	31936	
390	0	32036	
391	0	32126	
392	0	32136	
393	0	32200	
394	0	32208	
395	0	32168	
396	0	32290	
397	0	32384	
398	0	32344	
399	0	32232	
400	0	32154	
401	0	32128	
402	0	32108	
403	0	32168	
404	0	32342	
405	0	32418	
406	0	32544	
407	0	32628	
408	0	32628	
409	0	32704	
410	0	32776	
411	0	32744	
412	0	32672	
413	0	32620	
414	0	32640	
415	0	32688	
416	0	32768	
417	0	32862	
418	0	32848	
419	0	32828	
420	0	32862	
421	0	32892	
422	0	32804	
423	0	32792	
424	0	32846	
425	0	32928	
426	0	33020	
427	0	33028	
428	0	33008	
429	0	33028	
430	0	32992	
431	0	33016	
432	0	32964	
433	0	33000	
434	0	33084	
435	0	33180	
436	0	33322	
437	0	33428	
438	0	33348	
439	0	33260	
440	0	33304	
441	0	33432	
442	0	33472	
443	0	33412	
444	0	33212	
445	0	33224	
446	0	33258	
447	0	33236	
448	0	33304	
449	0	33288	
450	0	33232	
451	0	33072	
452	0	33008	
453	0	33184	
454	0	33232	
455	0	33104	
456	0	33076	
457	0	33004	
458	0	33088	
459	0	33104	
460	0	32976	
461	0	33064	
462	0	33240	
463	0	33216	
464	0	33128	
465	0	33136	
466	0	33260	
467	0	33336	
468	0	33360	
469	0	33348	
470	0	33424	
471	0	33568	
472	0	33600	
473	0	33544	
474	0	33300	
475	0	33352	
476	0	33416	
477	0	33430	
478	0	33432	
479	0	33440	
480	0	33400	
481	0	33456	
482	0	33404	
483	0	33272	
484	0	33228	
485	0	33232	
486	0	33298	
487	0	33376	
488	0	33452	
489	0	33432	
490	0	33432	
491	0	33412	
492	0	33364	
493	0	33456	
494	0	33552	
495	0	33516	
496	0	33496	
497	0	33452	
498	0	33360	
499	0	33368	
500	0	33504	
501	0	33536	
502	0	33656	
503	0	33754	
504	0	33920	
505	0	34020	
506	0	33964	
507	0	33900	
508	0	34004	
509	0	34040	
510	0	34032	
511	0	34056	
512	0	34072	
513	0	33980	
514	0	33960	
515	0	33992	
516	0	34112	
517	0	34164	
518	0	34072	
519	0	33918	
520	0	33732	
521	0	33712	
522	0	33768	
523	0	33816	
524	0	33772	
525	0	33708	
526	0	33716	
527	0	33684	
528	0	33538	
529	0	33456	
530	0	33406	
531	0	33340	
532	0	33328	
533	0	33316	
534	0	33258	
535	0	33320	
536	0	33304	
537	0	33216	
538	0	33112	
539	0	33016	
540	0	32888	
541	0	32772	
542	0	32756	
543	0	32784	
544	0	32848	
545	0	32792	
546	0	32648	
547	0	32576	
548	0	32504	
549	0	32396	
550	0	32324	
551	0	32172	
552	0	32100	
553	0	32132	
554	0	32124	
555	0	32032	
556	0	31936	
557	0	31868	
558	0	31928	
559	0	32096	
560	0	31992	
561	0	31994	
562	0	31832	
563	0	31604	
564	0	31764	
565	0	31944	
566	0	31960	
567	0	31912	
568	0	31840	
569	0	31846	
570	0	31816	
571	0	31788	
572	0	31824	
573	0	31808	
574	0	31780	
575	0	31760	
576	0	31656	
577	0	31532	
578	0	31504	
579	0	31508	
580	0	31482	
581	0	31620	
582	0	31696	
583	0	31720	
584	0	31652	
585	0	31552	
586	0	31444	
587	0	31400	
588	0	31552	
589	0	31616	
590	0	31564	
591	0	31564	
592	0	31620	
593	0	31624	
594	0	31660	
595	0	31836	
596	0	31916	
597	0	31896	
598	0	31898	
599	0	31976	
600	0	32064	
601	0	31978	
602	0	31944	
603	0	32040	
604	0	32188	
605	0	32232	
606	0	32136	
607	0	32200	
608	0	32244	
609	0	32208	
610	0	32220	
611	0	32304	
612	0	32392	
613	0	32420	
614	0	32372	
615	0	32360	
616	0	32556	
617	0	32640	
618	0	32600	
619	0	32564	
620	0	32508	
621	0	32432	
622	0	32468	
623	0	32740	
624	0	32844	
625	0	32932	
626	0	32884	
627	0	32796	
628	0	32732	
629	0	32720	
630	0	32728	
631	0	32828	
632	0	32992	
633	0	32972	
634	0	32820	
635	0	32824	
636	0	32824	
637	0	32844	
638	0	32824	
639	0	32824	
640	0	32764	
641	0	32816	
642	0	32932	
643	0	32972	
644	0	32984	
645	0	32956	
646	0	32924	
647	0	32980	
648	0	32996	
649	0	32944	
650	0	32936	
651	0	32992	
652	0	33044	
653	0	33032	
654	0	33012	
655	0	32992	
656	0	33076	
657	0	33048	
658	0	32944	
659	0	32968	
660	0	33012	
661	0	33056	
662	0	32960	
663	0	32808	
664	0	32892	
665	0	32992	
666	0	33008	
667	0	32968	
668	0	32920	
669	0	32924	
670	0	32916	
671	0	33016	
672	0	33072	
673	0	32996	
674	0	33008	
675	0	32940	
676	0	32924	
677	0	32964	
678	0	32972	
679	0	32916	
680	0	32850	
681	0	32824	
682	0	32848	
683	0	32800	
684	0	32744	
685	0	32848	
686	0	32832	
687	0	32812	
688	0	32988	
689	0	33176	
690	0	33220	
691	0	33232	
692	0	33184	
693	0	33160	
694	0	33324	
695	0	33572	
696	0	33728	
697	0	33812	
698	0	33972	
699	0	34112	
700	0	34252	
701	0	34348	
702	0	34513	
703	0	34600	
704	0	34544	
705	0	34608	
706	0	34578	
707	0	34600	
708	0	34664	
709	0	34656	
710	0	34698	
711	0	34668	
712	0	34608	
713	0	34512	
714	0	34568	
715	0	34580	
716	0	34500	
717	0	34444	
718	0	34492	
719	0	34680	
720	0	34868	
721	0	35144	
722	0	35420	
723	0	35692	
724	0	35952	
725	0	36232	
726	0	36500	
727	0	36684	
728	0	36818	
729	0	36848	
730	0	36840	
731	0	36708	
732	0	36612	
733	0	36656	
734	0	36544	
735	0	36636	
736	0	36812	
737	0	36848	
738	0	36904	
739	0	36772	
740	0	36384	
741	0	36136	
742	0	36176	
743	0	36096	
744	0	36104	
745	0	36152	
746	0	36068	
747	0	36112	
748	0	36048	
749	0	35828	
750	0	35640	
751	0	35500	
752	0	35296	
753	0	35112	
754	0	34912	
755	0	34680	
756	0	34368	
757	0	33968	
758	0	33608	
759	0	33204	
760	0	32740	
761	0	32288	
762	0	31888	
763	0	31516	
764	0	31148	
765	0	30808	
766	0	30600	
767	0	30536	
768	0	30480	
769	0	30384	
770	0	30288	
771	0	30268	
772	0	30264	
773	0	30096	
774	0	29992	
775	0	29912	
776	0	29824	
777	0	29856	
778	0	29940	
779	0	29976	
780	0	29944	
781	0	29856	
782	0	29760	
783	0	29664	
784	0	29644	
785	0	29572	
786	0	29512	
787	0	29576	
788	0	29640	
789	0	29620	
790	0	29592	
791	0	29536	
792	0	29496	
793	0	29534	
794	0	29496	
795	0	29446	
796	0	29436	
797	0	29618	
798	0	29728	
799	0	29668	
800	0	29632	
801	0	29572	
802	0	29640	
803	0	29684	
804	0	29716	
805	0	29752	
806	0	29722	
807	0	29744	
808	0	29804	
809	0	29870	
810	0	29992	
811	0	29968	
812	0	29944	
813	0	30016	
814	0	29944	
815	0	29748	
816	0	29640	
817	0	29392	
818	0	28956	
819	0	28324	
820	0	27480	
821	0	26496	
822	0	25392	
823	0	24284	
824	0	23324	
825	0	22532	
826	0	21940	
827	0	21428	
828	0	21196	
829	0	21388	
830	0	21880	
831	0	22618	
832	0	23512	
833	0	24556	
834	0	25976	
835	0	27808	
836	0	29996	
837	0	32468	
838	0	35172	
839	0	38216	
840	0	41572	
841	0	45344	
842	0	49328	
843	0	53568	
844	0	57824	
845	0	61716	
846	0	64936	
847	0	65535	
848	0	65535	
849	0	65535	
850	0	65535	
851	0	65535	
852	0	65535	
853	0	65535	
854	0	65535	
855	0	65535	
856	0	58080	
857	0	52516	
858	0	47892	
859	0	43688	
860	0	39252	
861	0	35336	
862	0	32048	
863	0	29346	
864	0	27232	
865	0	25442	
866	0	23680	
867	0	22132	
868	0	20680	
869	0	19388	
870	0	18532	
871	0	17956	
872	0	17388	
873	0	16816	
874	0	16324	
875	0	16120	
876	0	16276	
877	0	16676	
878	0	17304	
879	0	17984	
880	0	18740	
881	0	19592	
882	0	20456	
883	0	21184	
884	0	21884	
885	0	22518	
886	0	23112	
887	0	23696	
888	0	24276	
889	0	24932	
890	0	25588	
891	0	26112	
892	0	26640	
893	0	27164	
894	0	27512	
895	0	27736	
896	0	28034	
897	0	28352	
898	0	28524	
899	0	28760	
900	0	28976	
901	0	29084	
902	0	29100	
903	0	29112	
904	0	29208	
905	0	29282	
906	0	29336	
907	0	29378	
908	0	29396	
909	0	29396	
910	0	29440	
911	0	29456	
912	0	29560	
913	0	29720	
914	0	29848	
915	0	29992	
916	0	30088	
917	0	30144	
918	0	30184	
919	0	30268	
920	0	30308	
921	0	30288	
922	0	30308	
923	0	30362	
924	0	30468	
925	0	30524	
926	0	30580	
927	0	30540	
928	0	30512	
929	0	30584	
930	0	30620	
931	0	30704	
932	0	30684	
933	0	30778	
934	0	30908	
935	0	30976	
936	0	31020	
937	0	30992	
938	0	30968	
939	0	31044	
940	0	31076	
941	0	31096	
942	0	31232	
943	0	31312	
944	0	31272	
945	0	31296	
946	0	31256	
947	0	31248	
948	0	31288	
949	0	31400	
950	0	31504	
951	0	31512	
952	0	31584	
953	0	31668	
954	0	31668	
955	0	31688	
956	0	31680	
957	0	31596	
958	0	31778	
959	0	31874	
960	0	31864	
961	0	31868	
962	0	31940	
963	0	32056	
964	0	32176	
965	0	32112	
966	0	32164	
967	0	32148	
968	0	32140	
969	0	32380	
970	0	32452	
971	0	32442	
972	0	32468	
973	0	32548	
974	0	32656	
975	0	32696	
976	0	32752	
977	0	32824	
978	0	32744	
979	0	32680	
980	0	32776	
981	0	32868	
982	0	32800	
983	0	32780	
984	0	32820	
985	0	32892	
986	0	32904	
987	0	33004	
988	0	33136	
989	0	33256	
990	0	33176	
991	0	33046	
992	0	32896	
993	0	32908	
994	0	32984	
995	0	33040	
996	0	33068	
997	0	32992	
998	0	33088	
999	0	33184	
1000	0	33240	
1001	0	33256	
1002	0	33292	
1003	0	33338	
1004	0	33420	
1005	0	33516	
1006	0	33596	
1007	0	33810	
1008	0	33668	
1009	0	33472	
1010	0	33360	
1011	0	33352	
1012	0	33432	
1013	0	33480	
1014	0	33408	
1015	0	33408	
1016	0	33492	
1017	0	33540	
1018	0	33448	
1019	0	33468	
1020	0	33632	
1021	0	33640	
1022	0	33692	
1023	0	33564	
1024	0	33482	
1025	0	33456	
1026	0	33404	
1027	0	33402	
1028	0	33396	
1029	0	33364	
1030	0	33432	
1031	0	33448	
1032	0	33424	
1033	0	33500	
1034	0	33512	
1035	0	33468	
1036	0	33412	
1037	0	33480	
1038	0	33536	
1039	0	33433	
1040	0	33380	
1041	0	33328	
1042	0	33280	
1043	0	33344	
1044	0	33388	
1045	0	33480	
1046	0	33608	
1047	0	33632	
1048	0	33712	
1049	0	33852	
1050	0	33920	
1051	0	33946	
1052	0	33984	
1053	0	34028	
1054	0	34048	
1055	0	34020	
1056	0	34060	
1057	0	34048	
1058	0	33960	
1059	0	33924	
1060	0	33948	
1061	0	33984	
1062	0	34000	
1063	0	33940	
1064	0	33888	
1065	0	33980	
1066	0	34112	
1067	0	34128	
1068	0	34116	
1069	0	34080	
1070	0	34084	
1071	0	34088	
1072	0	34088	
1073	0	34028	
1074	0	33960	
1075	0	33932	
1076	0	34016	
1077	0	34104	
1078	0	34168	
1079	0	34196	
1080	0	34244	
1081	0	34284	
1082	0	34328	
1083	0	34356	
1084	0	34320	
1085	0	34288	
1086	0	34312	
1087	0	34328	
1088	0	34388	
1089	0	34384	
1090	0	34376	
1091	0	34352	
1092	0	34264	
1093	0	34168	
1094	0	34116	
1095	0	34112	
1096	0	34076	
1097	0	33936	
1098	0	33808	
1099	0	33696	
1100	0	33536	
1101	0	33456	
1102	0	33448	
1103	0	33440	
1104	0	33400	
1105	0	33352	
1106	0	33340	
1107	0	33328	
1108	0	33296	
1109	0	33224	
1110	0	33108	
1111	0	33008	
1112	0	32932	
1113	0	32820	
1114	0	32828	
1115	0	32868	
1116	0	32876	
1117	0	32900	
1118	0	32880	
1119	0	32816	
1120	0	32668	
1121	0	32652	
1122	0	32732	
1123	0	32720	
1124	0	32668	
1125	0	32656	
1126	0	32656	
1127	0	32600	
1128	0	32530	
1129	0	32450	
1130	0	32404	
1131	0	32368	
1132	0	32320	
1133	0	32272	
1134	0	32184	
1135	0	32104	
1136	0	32058	
1137	0	32048	
1138	0	32088	
1139	0	32144	
1140	0	32208	
1141	0	32260	
1142	0	32304	
1143	0	32338	
1144	0	32312	
1145	0	32240	
1146	0	32156	
1147	0	32060	
1148	0	32036	
1149	0	32060	
1150	0	32128	
1151	0	32196	
1152	0	32172	
1153	0	32176	
1154	0	32200	
1155	0	32260	
1156	0	32314	
1157	0	32356	
1158	0	32372	
1159	0	32352	
1160	0	32300	
1161	0	32272	
1162	0	32288	
1163	0	32332	
1164	0	32424	
1165	0	32492	
1166	0	32472	
1167	0	32428	
1168	0	32416	
1169	0	32414	
1170	0	32420	
1171	0	32412	
1172	0	32408	
1173	0	32492	
1174	0	32560	
1175	0	32576	
1176	0	32632	
1177	0	32648	
1178	0	32628	
1179	0	32656	
1180	0	32692	
1181	0	32720	
1182	0	32748	
1183	0	32740	
1184	0	32672	
1185	0	32608	
1186	0	32512	
1187	0	32496	
1188	0	32504	
1189	0	32584	
1190	0	32696	
1191	0	32788	
1192	0	32876	
1193	0	32956	
1194	0	33110	
1195	0	33304	
1196	0	33450	
1197	0	33548	
1198	0	33644	
1199	0	33662	
1200	0	33648	
1201	0	33676	
1202	0	33704	
1203	0	33772	
1204	0	33832	
1205	0	33784	
1206	0	33712	
1207	0	33744	
1208	0	33776	
1209	0	33792	
1210	0	33784	
1211	0	33780	
1212	0	33816	
1213	0	33818	
1214	0	33832	
1215	0	33936	
1216	0	34054	
1217	0	34060	
1218	0	34056	
1219	0	34072	
1220	0	34060	
1221	0	34000	
1222	0	33940	
1223	0	33920	
1224	0	33921	
1225	0	33912	
1226	0	33848	
1227	0	33776	
1228	0	33728	
1229	0	33676	
1230	0	33636	
1231	0	33632	
1232	0	33608	
1233	0	33628	
1234	0	33672	
1235	0	33714	
1236	0	33706	
1237	0	33636	
1238	0	33644	
1239	0	33720	
1240	0	33752	
1241	0	33724	
1242	0	33716	
1243	0	33716	
1244	0	33818	
1245	0	33828	
1246	0	33736	
1247	0	33660	
1248	0	33696	
1249	0	33728	
1250	0	33792	
1251	0	33928	
1252	0	34032	
1253	0	34136	
1254	0	34260	
1255	0	34384	
1256	0	34586	
1257	0	34844	
1258	0	35052	
1259	0	35288	
1260	0	35444	
1261	0	35444	
1262	0	35380	
1263	0	35324	
1264	0	35232	
1265	0	35136	
1266	0	35004	
1267	0	34924	
1268	0	34872	
1269	0	34786	
1270	0	34680	
1271	0	34600	
1272	0	34640	
1273	0	34724	
1274	0	34760	
1275	0	34872	
1276	0	35052	
1277	0	35144	
1278	0	35296	
1279	0	35616	
1280	0	35916	
1281	0	36108	
1282	0	36332	
1283	0	36592	
1284	0	36864	
1285	0	37036	
1286	0	37076	
1287	0	37120	
1288	0	37200	
1289	0	37160	
1290	0	37088	
1291	0	37020	
1292	0	36948	
1293	0	36936	
1294	0	36952	
1295	0	36864	
1296	0	36816	
1297	0	36864	
1298	0	36872	
1299	0	36784	
1300	0	36656	
1301	0	36592	
1302	0	36516	
1303	0	36496	
1304	0	36456	
1305	0	36308	
1306	0	36192	
1307	0	36140	
1308	0	36052	
1309	0	35956	
1310	0	35888	
1311	0	35780	
1312	0	35508	
1313	0	35160	
1314	0	34836	
1315	0	34558	
1316	0	34296	
1317	0	34064	
1318	0	33712	
1319	0	33144	
1320	0	32560	
1321	0	32156	
1322	0	31778	
1323	0	31466	
1324	0	31216	
1325	0	31040	
1326	0	30932	
1327	0	30778	
1328	0	30668	
1329	0	30628	
1330	0	30588	
1331	0	30544	
1332	0	30432	
1333	0	30184	
1334	0	29880	
1335	0	29704	
1336	0	29676	
1337	0	29708	
1338	0	29808	
1339	0	29868	
1340	0	29888	
1341	0	29924	
1342	0	29936	
1343	0	29944	
1344	0	29978	
1345	0	30056	
1346	0	30116	
1347	0	30184	
1348	0	30272	
1349	0	30312	
1350	0	30340	
1351	0	30296	
1352	0	30188	
1353	0	30100	
1354	0	30048	
1355	0	30004	
1356	0	29850	
1357	0	29728	
1358	0	29672	
1359	0	29684	
1360	0	29728	
1361	0	29788	
1362	0	29880	
1363	0	29964	
1364	0	30104	
1365	0	30241	
1366	0	30288	
1367	0	30280	
1368	0	30272	
1369	0	30304	
1370	0	30352	
1371	0	30408	
1372	0	30380	
1373	0	30340	
1374	0	30342	
1375	0	30112	
1376	0	29726	
1377	0	29116	
1378	0	28240	
1379	0	27192	
1380	0	26096	
1381	0	24994	
1382	0	23980	
1383	0	23204	
1384	0	22706	
1385	0	22456	
1386	0	22412	
1387	0	22720	
1388	0	23228	
1389	0	23956	
1390	0	24946	
1391	0	26184	
1392	0	27680	
1393	0	29592	
1394	0	31908	
1395	0	34476	
1396	0	37308	
1397	0	40392	
1398	0	43648	
1399	0	47168	
1400	0	50844	
1401	0	54632	
1402	0	58308	
1403	0	61780	
1404	0	64688	
1405	0	65535	
1406	0	65535	
1407	0	65535	
1408	0	65535	
1409	0	65535	
1410	0	65535	
1411	0	65535	
1412	0	65535	
1413	0	58504	
1414	0	51936	
1415	0	46588	
1416	0	42128	
1417	0	37856	
1418	0	33656	
1419	0	30336	
1420	0	27780	
1421	0	25416	
1422	0	23242	
1423	0	21304	
1424	0	19546	
1425	0	18016	
1426	0	16688	
1427	0	15462	
1428	0	14568	
1429	0	14188	
1430	0	14084	
1431	0	14100	
1432	0	14216	
1433	0	14444	
1434	0	14780	
1435	0	15414	
1436	0	16196	
1437	0	17062	
1438	0	18060	
1439	0	19052	
1440	0	20040	
1441	0	21008	
1442	0	21898	
1443	0	22684	
1444	0	23356	
1445	0	24016	
1446	0	24670	
1447	0	25304	
1448	0	25984	
1449	0	26634	
1450	0	27156	
1451	0	27656	
1452	0	28140	
1453	0	28592	
1454	0	28952	
1455	0	29248	
1456	0	29440	
1457	0	29584	
1458	0	29732	
1459	0	29844	
1460	0	29904	
1461	0	29936	
1462	0	29988	
1463	0	30064	
1464	0	30192	
1465	0	30332	
1466	0	30464	
1467	0	30612	
1468	0	30612	
1469	0	30608	
1470	0	30704	
1471	0	30756	
1472	0	30816	
1473	0	30920	
1474	0	31044	
1475	0	31168	
1476	0	31280	
1477	0	31400	
1478	0	31492	
1479	0	31516	
1480	0	31488	
1481	0	31564	
1482	0	31604	
1483	0	31608	
1484	0	31648	
1485	0	31640	
1486	0	31608	
1487	0	31552	
1488	0	31524	
1489	0	31492	
1490	0	31432	
1491	0	31376	
1492	0	31348	
1493	0	31372	
1494	0	31476	
1495	0	31664	
1496	0	31776	
1497	0	31936	
1498	0	32064	
1499	0	32162	
1500	0	32304	
1501	0	32448	
1502	0	32560	
1503	0	32608	
1504	0	32640	
1505	0	32532	
1506	0	32428	
1507	0	32392	
1508	0	32464	
1509	0	32542	
1510	0	32588	
1511	0	32620	
1512	0	32708	
1513	0	32840	
1514	0	32944	
1515	0	33024	
1516	0	33092	
1517	0	33220	
1518	0	33300	
1519	0	33346	
1520	0	33372	
1521	0	33360	
1522	0	33380	
1523	0	33448	
1524	0	33496	
1525	0	33492	
1526	0	33432	
1527	0	33400	
1528	0	33380	
1529	0	33344	
1530	0	33300	
1531	0	33276	
1532	0	33300	
1533	0	33416	
1534	0	33548	
1535	0	33652	
1536	0	33708	
1537	0	33728	
1538	0	33756	
1539	0	33856	
1540	0	33956	
1541	0	34016	
1542	0	34148	
1543	0	34272	
1544	0	34348	
1545	0	34384	
1546	0	34428	
1547	0	34500	
1548	0	34556	
1549	0	34596	
1550	0	34540	
1551	0	34456	
1552	0	34432	
1553	0	34492	
1554	0	34548	
1555	0	34572	
1556	0	34596	
1557	0	34592	
1558	0	34546	
1559	0	34528	
1560	0	34512	
1561	0	34508	
1562	0	34532	
1563	0	34592	
1564	0	34721	
1565	0	34842	
1566	0	34968	
1567	0	35072	
1568	0	35096	
1569	0	35036	
1570	0	34944	
1571	0	34940	
1572	0	35000	
1573	0	35074	
1574	0	35140	
1575	0	35128	
1576	0	35092	
1577	0	35056	
1578	0	34912	
1579	0	34720	
1580	0	34512	
1581	0	34312	
1582	0	34136	
1583	0	34164	
1584	0	34328	
1585	0	34536	
1586	0	34770	
1587	0	34986	
1588	0	35148	
1589	0	35280	
1590	0	35376	
1591	0	35384	
1592	0	35360	
1593	0	35300	
1594	0	35292	
1595	0	35284	
1596	0	35252	
1597	0	35208	
1598	0	35144	
1599	0	35048	
1600	0	35000	
1601	0	34968	
1602	0	34980	
1603	0	35024	
1604	0	35136	
1605	0	35278	
1606	0	35412	
1607	0	35520	
1608	0	35564	
1609	0	35584	
1610	0	35524	
1611	0	35448	
1612	0	35374	
1613	0	35316	
1614	0	35328	
1615	0	35392	
1616	0	35444	
1617	0	35464	
1618	0	35504	
1619	0	35600	
1620	0	35628	
1621	0	35640	
1622	0	35688	
1623	0	35668	
1624	0	35676	
1625	0	35692	
1626	0	35628	
1627	0	35620	
1628	0	35672	
1629	0	35736	
1630	0	35784	
1631	0	35800	
1632	0	35800	
1633	0	35776	
1634	0	35746	
1635	0	35760	
1636	0	35788	
1637	0	35780	
1638	0	35676	
1639	0	35540	
1640	0	35520	
1641	0	35514	
1642	0	35412	
1643	0	35268	
1644	0	35128	
1645	0	35008	
1646	0	34956	
1647	0	34916	
1648	0	34916	
1649	0	34912	
1650	0	34844	
1651	0	34792	
1652	0	34648	
1653	0	34524	
1654	0	34460	
1655	0	34336	
1656	0	34184	
1657	0	34036	
1658	0	33888	
1659	0	33760	
1660	0	33752	
1661	0	33674	
1662	0	33592	
1663	0	33544	
1664	0	33492	
1665	0	33376	
1666	0	33244	
1667	0	33096	
1668	0	32984	
1669	0	32824	
1670	0	32640	
1671	0	32560	
1672	0	32594	
1673	0	32600	
1674	0	32576	
1675	0	32536	
1676	0	32512	
1677	0	32496	
1678	0	32504	
1679	0	32512	
1680	0	32460	
1681	0	32380	
1682	0	32340	
1683	0	32304	
1684	0	32244	
1685	0	32160	
1686	0	32044	
1687	0	31944	
1688	0	31868	
1689	0	31852	
1690	0	31804	
1691	0	31704	
1692	0	31632	
1693	0	31572	
1694	0	31564	
1695	0	31604	
1696	0	31572	
1697	0	31528	
1698	0	31496	
1699	0	31500	
1700	0	31496	
1701	0	31504	
1702	0	31492	
1703	0	31520	
1704	0	31580	
1705	0	31588	
1706	0	31556	
1707	0	31556	
1708	0	31578	
1709	0	31616	
1710	0	31692	
1711	0	31702	
1712	0	31668	
1713	0	31672	
1714	0	31616	
1715	0	31584	
1716	0	31540	
1717	0	31560	
1718	0	31576	
1719	0	31552	
1720	0	31632	
1721	0	31676	
1722	0	31692	
1723	0	31676	
1724	0	31680	
1725	0	31704	
1726	0	31748	
1727	0	31802	
1728	0	31904	
1729	0	31952	
1730	0	31988	
1731	0	32062	
1732	0	32128	
1733	0	32188	
1734	0	32208	
1735	0	32234	
1736	0	32256	
1737	0	32248	
1738	0	32204	
1739	0	32216	
1740	0	32250	
1741	0	32240	
1742	0	32288	
1743	0	32352	
1744	0	32364	
1745	0	32402	
1746	0	32480	
1747	0	32540	
1748	0	32580	
1749	0	32616	
1750	0	32696	
1751	0	32800	
1752	0	32868	
1753	0	32928	
1754	0	32944	
1755	0	32988	
1756	0	33008	
1757	0	32984	
1758	0	32932	
1759	0	32864	
1760	0	32880	
1761	0	32962	
1762	0	33060	
1763	0	33160	
1764	0	33208	
1765	0	33224	
1766	0	33216	
1767	0	33296	
1768	0	33336	
1769	0	33328	
1770	0	33332	
1771	0	33368	
1772	0	33398	
1773	0	33412	
1774	0	33400	
1775	0	33360	
1776	0	33348	
1777	0	33348	
1778	0	33332	
1779	0	33352	
1780	0	33376	
1781	0	33456	
1782	0	33524	
1783	0	33488	
1784	0	33480	
1785	0	33512	
1786	0	33536	
1787	0	33612	
1788	0	33748	
1789	0	33864	
1790	0	33924	
1791	0	33952	
1792	0	33956	
1793	0	33904	
1794	0	33856	
1795	0	33888	
1796	0	34000	
1797	0	34080	
1798	0	34160	
1799	0	34208	
1800	0	34252	
1801	0	34260	
1802	0	34252	
1803	0	34244	
1804	0	34228	
1805	0	34242	
1806	0	34352	
1807	0	34560	
1808	0	34848	
1809	0	35184	
1810	0	35532	
1811	0	35896	
1812	0	36296	
1813	0	36768	
1814	0	37108	
1815	0	37316	
1816	0	37480	
1817	0	37556	
1818	0	37452	
1819	0	37328	
1820	0	37256	
1821	0	37284	
1822	0	37348	
1823	0	37440	
1824	0	37424	
1825	0	37304	
1826	0	37312	
1827	0	37298	
1828	0	37206	
1829	0	37108	
1830	0	37036	
1831	0	37032	
1832	0	37132	
1833	0	37216	
1834	0	37140	
1835	0	37024	
1836	0	36924	
1837	0	36792	
1838	0	36648	
1839	0	36520	
1840	0	36408	
1841	0	36340	
1842	0	36264	
1843	0	36048	
1844	0	35772	
1845	0	35468	
1846	0	35144	
1847	0	34796	
1848	0	34328	
1849	0	33940	
1850	0	33636	
1851	0	33416	
1852	0	33140	
1853	0	32896	
1854	0	32684	
1855	0	32412	
1856	0	32200	
1857	0	31952	
1858	0	31752	
1859	0	31608	
1860	0	31488	
1861	0	31400	
1862	0	31368	
1863	0	31330	
1864	0	31208	
1865	0	31112	
1866	0	30992	
1867	0	30864	
1868	0	30764	
1869	0	30624	
1870	0	30464	
1871	0	30280	
1872	0	30134	
1873	0	30072	
1874	0	30028	
1875	0	30024	
1876	0	30028	
1877	0	30012	
1878	0	29934	
1879	0	29876	
1880	0	29896	
1881	0	29908	
1882	0	29920	
1883	0	29896	
1884	0	29868	
1885	0	29856	
1886	0	29820	
1887	0	29856	
1888	0	29888	
1889	0	29852	
1890	0	29780	
1891	0	29792	
1892	0	29786	
1893	0	29776	
1894	0	29794	
1895	0	29768	
1896	0	29728	
1897	0	29688	
1898	0	29760	
1899	0	29852	
1900	0	29850	
1901	0	29782	
1902	0	29792	
1903	0	29840	
1904	0	30008	
1905	0	30156	
1906	0	30104	
1907	0	30064	
1908	0	30064	
1909	0	29960	
1910	0	29746	
1911	0	29452	
1912	0	28920	
1913	0	28264	
1914	0	27660	
1915	0	27008	
1916	0	26288	
1917	0	25468	
1918	0	24688	
1919	0	24072	
1920	0	23740	
1921	0	23642	
1922	0	23728	
1923	0	24100	
1924	0	24696	
1925	0	25316	
1926	0	26200	
1927	0	27464	
1928	0	29144	
1929	0	31192	
1930	0	33480	
1931	0	36056	
1932	0	38752	
1933	0	41468	
1934	0	44288	
1935	0	47424	
1936	0	50764	
1937	0	54316	
1938	0	57904	
1939	0	61412	
1940	0	64336	
1941	0	65535	
1942	0	65535	
1943	0	65535	
1944	0	65535	
1945	0	65535	
1946	0	65535	
1947	0	65535	
1948	0	65535	
1949	0	57880	
1950	0	50588	
1951	0	44400	
1952	0	39136	
1953	0	34448	
1954	0	30276	
1955	0	27224	
1956	0	25248	
1957	0	23956	
1958	0	22836	
1959	0	21716	
1960	0	20562	
1961	0	19320	
1962	0	17974	
1963	0	16666	
1964	0	15606	
1965	0	14833	
1966	0	14322	
1967	0	14098	
1968	0	13961	
1969	0	13908	
1970	0	13868	
1971	0	13972	
1972	0	14396	
1973	0	15180	
1974	0	16074	
1975	0	16996	
1976	0	17908	
1977	0	18748	
1978	0	19424	
1979	0	20344	
1980	0	21216	
1981	0	21952	
1982	0	22724	
1983	0	23376	
1984	0	24064	
1985	0	24968	
1986	0	25640	
1987	0	26440	
1988	0	27000	
1989	0	26792	
1990	0	26392	
1991	0	26560	
1992	0	27130	
1993	0	27924	
1994	0	28400	
1995	0	27920	
1996	0	27232	
1997	0	26864	
1998	0	26560	
1999	0	27105	
2000	0	28116	
2001	0	28796	
2002	0	28792	
2003	0	28688	
2004	0	28792	
2005	0	28514	
2006	0	27936	
2007	0	27688	
2008	0	27822	
2009	0	28380	
2010	0	29000	
2011	0	29596	
2012	0	29776	
2013	0	29320	
2014	0	28912	
2015	0	29078	
2016	0	29452	
2017	0	29736	
2018	0	29390	
2019	0	28578	
2020	0	28036	
2021	0	27812	
2022	0	27616	
2023	0	28272	
2024	0	29280	
2025	0	30000	
2026	0	30704	
2027	0	31184	
2028	0	31648	
2029	0	31928	
2030	0	32100	
2031	0	32712	
2032	0	33128	
2033	0	33336	
2034	0	33068	
2035	0	32716	
2036	0	32320	
2037	0	32256	
2038	0	32356	
2039	0	32652	
2040	0	33042	
2041	0	33352	
2042	0	33460	
2043	0	33492	
2044	0	33540	
2045	0	33818	
2046	0	33920	
2047	0	33784	
2048	0	33956	
2049	0	34508	
2050	0	35020	
2051	0	35264	
2052	0	35360	
2053	0	35332	
2054	0	35238	
2055	0	35024	
2056	0	34828	
2057	0	34924	
2058	0	35016	
2059	0	34988	
2060	0	34888	
2061	0	34764	
2062	0	34752	
2063	0	34844	
2064	0	34832	
2065	0	34722	
2066	0	34568	
2067	0	34592	
2068	0	34740	
2069	0	34848	
2070	0	34904	
2071	0	34900	
2072	0	34912	
2073	0	34936	
2074	0	34952	
2075	0	34976	
2076	0	35000	
2077	0	35024	
2078	0	35056	
2079	0	35032	
2080	0	34940	
2081	0	34880	
2082	0	34880	
2083	0	34928	
2084	0	34952	
2085	0	34968	
2086	0	34964	
2087	0	34972	
2088	0	34972	
2089	0	34984	
2090	0	34936	
2091	0	34912	
2092	0	34908	
2093	0	34896	
2094	0	34844	
2095	0	34792	
2096	0	34758	
2097	0	34736	
2098	0	34776	
2099	0	34804	
2100	0	34816	
2101	0	34800	
2102	0	34784	
2103	0	34760	
2104	0	34792	
2105	0	34772	
2106	0	34776	
2107	0	34768	
2108	0	34748	
2109	0	34720	
2110	0	34716	
2111	0	34688	
2112	0	34520	
2113	0	34420	
2114	0	34404	
2115	0	34308	
2116	0	34272	
2117	0	34348	
2118	0	34392	
2119	0	34460	
2120	0	34488	
2121	0	34460	
2122	0	34356	
2123	0	34264	
2124	0	34296	
2125	0	34400	
2126	0	34530	
2127	0	34492	
2128	0	34448	
2129	0	34416	
2130	0	34392	
2131	0	34452	
2132	0	34560	
2133	0	34562	
2134	0	34522	
2135	0	34472	
2136	0	34454	
2137	0	34524	
2138	0	34540	
2139	0	34492	
2140	0	34344	
2141	0	34114	
2142	0	34232	
2143	0	34464	
2144	0	34504	
2145	0	34488	
2146	0	34464	
2147	0	34480	
2148	0	34492	
2149	0	34560	
2150	0	34560	
2151	0	34624	
2152	0	34528	
2153	0	34356	
2154	0	34428	
2155	0	34552	
2156	0	34608	
2157	0	34608	
2158	0	34656	
2159	0	34798	
2160	0	34892	
2161	0	35004	
2162	0	35148	
2163	0	35268	
2164	0	35240	
2165	0	35102	
2166	0	35024	
2167	0	35002	
2168	0	34980	
2169	0	34924	
2170	0	34920	
2171	0	34952	
2172	0	34824	
2173	0	34836	
2174	0	34948	
2175	0	34984	
2176	0	34924	
2177	0	34896	
2178	0	34900	
2179	0	34908	
2180	0	34872	
2181	0	34796	
2182	0	34736	
2183	0	34700	
2184	0	34660	
2185	0	34536	
2186	0	34296	
2187	0	34196	
2188	0	34196	
2189	0	34296	
2190	0	34368	
2191	0	34320	
2192	0	34224	
2193	0	34096	
2194	0	33904	
2195	0	33808	
2196	0	33784	
2197	0	33712	
2198	0	33612	
2199	0	33472	
2200	0	33412	
2201	0	33396	
2202	0	33408	
2203	0	33464	
2204	0	33412	
2205	0	33364	
2206	0	33312	
2207	0	33168	
2208	0	33080	
2209	0	33140	
2210	0	33164	
2211	0	33180	
2212	0	33232	
2213	0	33192	
2214	0	33080	
2215	0	33008	
2216	0	32832	
2217	0	32629	
2218	0	32492	
2219	0	32428	
2220	0	32472	
2221	0	32640	
2222	0	32748	
2223	0	32682	
2224	0	32596	
2225	0	32560	
2226	0	32496	
2227	0	32416	
2228	0	32492	
2229	0	32528	
2230	0	32484	
2231	0	32528	
2232	0	32668	
2233	0	32732	
2234	0	32760	
2235	0	32700	
2236	0	32576	
2237	0	32396	
2238	0	32268	
2239	0	32164	
2240	0	32180	
2241	0	32048	
2242	0	31976	
2243	0	32172	
2244	0	32400	
2245	0	32284	
2246	0	32092	
2247	0	32252	
2248	0	32488	
2249	0	32584	
2250	0	32564	
2251	0	32438	
2252	0	32296	
2253	0	32104	
2254	0	32004	
2255	0	32064	
2256	0	32148	
2257	0	32264	
2258	0	32354	
2259	0	32410	
2260	0	32512	
2261	0	32476	
2262	0	32288	
2263	0	32192	
2264	0	32204	
2265	0	32296	
2266	0	32288	
2267	0	32336	
2268	0	32356	
2269	0	32304	
2270	0	32378	
2271	0	32452	
2272	0	32544	
2273	0	32862	
2274	0	33028	
2275	0	33064	
2276	0	32980	
2277	0	33008	
2278	0	32996	
2279	0	32984	
2280	0	32872	
2281	0	32612	
2282	0	32420	
2283	0	32484	
2284	0	32652	
2285	0	32816	
2286	0	33060	
2287	0	33088	
2288	0	33032	
2289	0	32916	
2290	0	33008	
2291	0	33076	
2292	0	33064	
2293	0	33044	
2294	0	33056	
2295	0	33072	
2296	0	33108	
2297	0	33048	
2298	0	33160	
2299	0	33292	
2300	0	33172	
2301	0	33100	
2302	0	33192	
2303	0	33300	
2304	0	33304	
2305	0	33248	
2306	0	33130	
2307	0	33048	
2308	0	33048	
2309	0	33088	
2310	0	33236	
2311	0	33504	
2312	0	33696	
2313	0	33640	
2314	0	33468	
2315	0	33452	
2316	0	33376	
2317	0	33412	
2318	0	33440	
2319	0	33372	
2320	0	33348	
2321	0	33420	
2322	0	33608	
2323	0	33604	
2324	0	33600	
2325	0	33612	
2326	0	33588	
2327	0	33664	
2328	0	33812	
2329	0	33968	
2330	0	34064	
2331	0	34112	
2332	0	34100	
2333	0	34192	
2334	0	34256	
2335	0	34320	
2336	0	34528	
2337	0	34762	
2338	0	34932	
2339	0	35044	
2340	0	34980	
2341	0	34924	
2342	0	34992	
2343	0	35084	
2344	0	35088	
2345	0	35036	
2346	0	34976	
2347	0	35012	
2348	0	35056	
2349	0	35020	
2350	0	34960	
2351	0	34816	
2352	0	34764	
2353	0	34848	
2354	0	35168	
2355	0	35508	
2356	0	35736	
2357	0	35888	
2358	0	35928	
2359	0	36200	
2360	0	36708	
2361	0	37118	
2362	0	37256	
2363	0	37400	
2364	0	37368	
2365	0	37404	
2366	0	37400	
2367	0	37440	
2368	0	37412	
2369	0	37300	
2370	0	37360	
2371	0	37384	
2372	0	37352	
2373	0	37236	
2374	0	37120	
2375	0	37208	
2376	0	37292	
2377	0	37236	
2378	0	37064	
2379	0	36904	
2380	0	36800	
2381	0	36578	
2382	0	36400	
2383	0	36280	
2384	0	36208	
2385	0	36088	
2386	0	35940	
2387	0	35708	
2388	0	35540	
2389	0	35316	
2390	0	35212	
2391	0	35172	
2392	0	34848	
2393	0	34472	
2394	0	34354	
2395	0	34148	
2396	0	33766	
2397	0	33216	
2398	0	32600	
2399	0	32112	
2400	0	31712	
2401	0	31396	
2402	0	31128	
2403	0	30892	
2404	0	30652	
2405	0	30512	
2406	0	30476	
2407	0	30592	
2408	0	30568	
2409	0	30560	
2410	0	30496	
2411	0	30414	
2412	0	30390	
2413	0	30272	
2414	0	30264	
2415	0	30178	
2416	0	30016	
2417	0	29798	
2418	0	29684	
2419	0	29608	
2420	0	29560	
2421	0	29496	
2422	0	29408	
2423	0	29392	
2424	0	29604	
2425	0	29672	
2426	0	29704	
2427	0	29764	
2428	0	29880	
2429	0	29988	
2430	0	29984	
2431	0	29880	
2432	0	29776	
2433	0	29774	
2434	0	29822	
2435	0	29908	
2436	0	29864	
2437	0	29896	
2438	0	29952	
2439	0	29936	
2440	0	29972	
2441	0	30092	
2442	0	30224	
2443	0	30184	
2444	0	29982	
2445	0	29820	
2446	0	30016	
2447	0	30130	
2448	0	30100	
2449	0	30240	
2450	0	30376	
2451	0	30536	
2452	0	30400	
2453	0	30100	
2454	0	29752	
2455	0	29192	
2456	0	28416	
2457	0	27304	
2458	0	26030	
2459	0	24824	
2460	0	23618	
2461	0	22514	
2462	0	21668	
2463	0	21040	
2464	0	20552	
2465	0	20260	
2466	0	20228	
2467	0	20520	
2468	0	21016	
2469	0	21620	
2470	0	22484	
2471	0	23734	
2472	0	25502	
2473	0	27748	
2474	0	30288	
2475	0	32986	
2476	0	36060	
2477	0	39500	
2478	0	43112	
2479	0	46992	
2480	0	51176	
2481	0	55432	
2482	0	59536	
2483	0	63108	
2484	0	65344	
2485	0	65535	
2486	0	65535	
2487	0	65535	
2488	0	65535	
2489	0	65535	
2490	0	65535	
2491	0	65535	
2492	0	65535	
2493	0	60000	
2494	0	54148	
2495	0	49348	
2496	0	45280	
2497	0	41088	
2498	0	37240	
2499	0	34028	
2500	0	31486	
2501	0	29352	
2502	0	27364	
2503	0	25548	
2504	0	23896	
2505	0	22456	
2506	0	21200	
2507	0	20182	
2508	0	19332	
2509	0	18677	
2510	0	18042	
2511	0	17432	
2512	0	17088	
2513	0	17122	
2514	0	17494	
2515	0	18012	
2516	0	18696	
2517	0	19421	
2518	0	20096	
2519	0	20752	
2520	0	21468	
2521	0	22184	
2522	0	22856	
2523	0	23532	
2524	0	24280	
2525	0	25020	
2526	0	25632	
2527	0	26252	
2528	0	26862	
2529	0	27372	
2530	0	27868	
2531	0	28240	
2532	0	28452	
2533	0	28602	
2534	0	28780	
2535	0	29020	
2536	0	29274	
2537	0	29456	
2538	0	29548	
2539	0	29580	
2540	0	29648	
2541	0	29676	
2542	0	29776	
2543	0	29836	
2544	0	29816	
2545	0	29890	
2546	0	29928	
2547	0	29944	
2548	0	30028	
2549	0	30108	
2550	0	30232	
2551	0	30344	
2552	0	30360	
2553	0	30272	
2554	0	30292	
2555	0	30472	
2556	0	30608	
2557	0	30656	
2558	0	30706	
2559	0	30684	
2560	0	30592	
2561	0	30680	
2562	0	30852	
2563	0	30976	
2564	0	30954	
2565	0	30928	
2566	0	30938	
2567	0	30960	
2568	0	31060	
2569	0	31152	
2570	0	31258	
2571	0	31398	
2572	0	31396	
2573	0	31380	
2574	0	31416	
2575	0	31392	
2576	0	31404	
2577	0	31520	
2578	0	31660	
2579	0	31824	
2580	0	31872	
2581	0	31828	
2582	0	31716	
2583	0	31776	
2584	0	31778	
2585	0	31816	
2586	0	31896	
2587	0	31964	
2588	0	32020	
2589	0	32080	
2590	0	32096	
2591	0	32080	
2592	0	32132	
2593	0	32244	
2594	0	32272	
2595	0	32300	
2596	0	32208	
2597	0	32144	
2598	0	32136	
2599	0	32184	
2600	0	32224	
2601	0	32288	
2602	0	32408	
2603	0	32488	
2604	0	32604	
2605	0	32724	
2606	0	32840	
2607	0	32928	
2608	0	33000	
2609	0	33052	
2610	0	33112	
2611	0	33144	
2612	0	33104	
2613	0	32972	
2614	0	32964	
2615	0	33032	
2616	0	33080	
2617	0	33016	
2618	0	32960	
2619	0	33052	
2620	0	33008	
2621	0	32872	
2622	0	32926	
2623	0	33048	
2624	0	33052	
2625	0	33060	
2626	0	33124	
2627	0	33080	
2628	0	33076	
2629	0	33024	
2630	0	33120	
2631	0	33229	
2632	0	33268	
2633	0	33293	
2634	0	33356	
2635	0	33344	
2636	0	33352	
2637	0	33240	
2638	0	33224	
2639	0	33360	
2640	0	33412	
2641	0	33434	
2642	0	33612	
2643	0	33744	
2644	0	33696	
2645	0	33660	
2646	0	33576	
2647	0	33664	
2648	0	33872	
2649	0	33960	
2650	0	34004	
2651	0	33984	
2652	0	33800	
2653	0	33760	
2654	0	33792	
2655	0	33840	
2656	0	33864	
2657	0	33884	
2658	0	33708	
2659	0	33648	
2660	0	33676	
2661	0	33630	
2662	0	33572	
2663	0	33536	
2664	0	33540	
2665	0	33668	
2666	0	33792	
2667	0	33732	
2668	0	33560	
2669	0	33440	
2670	0	33440	
2671	0	33464	
2672	0	33548	
2673	0	33516	
2674	0	33488	
2675	0	33400	
2676	0	33328	
2677	0	33378	
2678	0	33428	
2679	0	33436	
2680	0	33396	
2681	0	33312	
2682	0	33200	
2683	0	33168	
2684	0	33168	
2685	0	33152	
2686	0	33132	
2687	0	33112	
2688	0	33132	
2689	0	33196	
2690	0	33216	
2691	0	33090	
2692	0	33072	
2693	0	33140	
2694	0	33144	
2695	0	33204	
2696	0	33250	
2697	0	33344	
2698	0	33384	
2699	0	33324	
2700	0	33304	
2701	0	33440	
2702	0	33496	
2703	0	33604	
2704	0	33810	
2705	0	33900	
2706	0	33856	
2707	0	33720	
2708	0	33692	
2709	0	33684	
2710	0	33656	
2711	0	33832	
2712	0	34016	
2713	0	34132	
2714	0	34160	
2715	0	34208	
2716	0	34312	
2717	0	34320	
2718	0	34272	
2719	0	34304	
2720	0	34352	
2721	0	34396	
2722	0	34456	
2723	0	34528	
2724	0	34458	
2725	0	34390	
2726	0	34368	
2727	0	34424	
2728	0	34400	
2729	0	34264	
2730	0	34068	
2731	0	33992	
2732	0	34096	
2733	0	34208	
2734	0	34208	
2735	0	34148	
2736	0	34098	
2737	0	34028	
2738	0	33916	
2739	0	33840	
2740	0	33710	
2741	0	33628	
2742	0	33728	
2743	0	33762	
2744	0	33752	
2745	0	33672	
2746	0	33668	
2747	0	33668	
2748	0	33528	
2749	0	33440	
2750	0	33444	
2751	0	33424	
2752	0	33348	
2753	0	33232	
2754	0	33158	
2755	0	33168	
2756	0	33204	
2757	0	33224	
2758	0	33248	
2759	0	33220	
2760	0	33152	
2761	0	33032	
2762	0	32888	
2763	0	32828	
2764	0	32804	
2765	0	32808	
2766	0	32736	
2767	0	32708	
2768	0	32732	
2769	0	32744	
2770	0	32720	
2771	0	32632	
2772	0	32578	
2773	0	32632	
2774	0	32700	
2775	0	32620	
2776	0	32516	
2777	0	32516	
2778	0	32560	
2779	0	32520	
2780	0	32532	
2781	0	32548	
2782	0	32520	
2783	0	32584	
2784	0	32578	
2785	0	32540	
2786	0	32480	
2787	0	32448	
2788	0	32426	
2789	0	32392	
2790	0	32360	
2791	0	32356	
2792	0	32340	
2793	0	32388	
2794	0	32524	
2795	0	32592	
2796	0	32604	
2797	0	32652	
2798	0	32768	
2799	0	32832	
2800	0	32848	
2801	0	32828	
2802	0	32848	
2803	0	32892	
2804	0	32928	
2805	0	32948	
2806	0	32968	
2807	0	32972	
2808	0	32972	
2809	0	32984	
2810	0	33004	
2811	0	32964	
2812	0	32956	
2813	0	32994	
2814	0	33040	
2815	0	33064	
2816	0	33060	
2817	0	33088	
2818	0	33144	
2819	0	33188	
2820	0	33221	
2821	0	33248	
2822	0	33284	
2823	0	33320	
2824	0	33316	
2825	0	33340	
2826	0	33360	
2827	0	33408	
2828	0	33492	
2829	0	33512	
2830	0	33524	
2831	0	33520	
2832	0	33508	
2833	0	33536	
2834	0	33536	
2835	0	33528	
2836	0	33596	
2837	0	33664	
2838	0	33680	
2839	0	33704	
2840	0	33708	
2841	0	33676	
2842	0	33696	
2843	0	33708	
2844	0	33716	
2845	0	33712	
2846	0	33696	
2847	0	33696	
2848	0	33720	
2849	0	33728	
2850	0	33728	
2851	0	33724	
2852	0	33728	
2853	0	33700	
2854	0	33632	
2855	0	33608	
2856	0	33600	
2857	0	33584	
2858	0	33572	
2859	0	33524	
2860	0	33504	
2861	0	33496	
2862	0	33468	
2863	0	33472	
2864	0	33480	
2865	0	33492	
2866	0	33582	
2867	0	33700	
2868	0	33776	
2869	0	33896	
2870	0	34096	
2871	0	34260	
2872	0	34370	
2873	0	34484	
2874	0	34564	
2875	0	34624	
2876	0	34692	
2877	0	34832	
2878	0	35004	
2879	0	35124	
2880	0	35220	
2881	0	35268	
2882	0	35284	
2883	0	35292	
2884	0	35280	
2885	0	35244	
2886	0	35212	
2887	0	35196	
2888	0	35200	
2889	0	35188	
2890	0	35136	
2891	0	35072	
2892	0	34960	
2893	0	34864	
2894	0	34840	
2895	0	35008	
2896	0	35232	
2897	0	35424	
2898	0	35632	
2899	0	35824	
2900	0	36072	
2901	0	36358	
2902	0	36652	
2903	0	36868	
2904	0	37024	
2905	0	37156	
2906	0	37328	
2907	0	37408	
2908	0	37384	
2909	0	37328	
2910	0	37284	
2911	0	37224	
2912	0	37154	
2913	0	37108	
2914	0	37092	
2915	0	37064	
2916	0	36936	
2917	0	36756	
2918	0	36604	
2919	0	36468	
2920	0	36348	
2921	0	36266	
2922	0	36200	
2923	0	36148	
2924	0	36080	
2925	0	36000	
2926	0	35924	
2927	0	35804	
2928	0	35688	
2929	0	35520	
2930	0	35352	
2931	0	35160	
2932	0	34952	
2933	0	34740	
2934	0	34528	
2935	0	34310	
2936	0	33992	
2937	0	33596	
2938	0	33152	
2939	0	32752	
2940	0	32352	
2941	0	32012	
2942	0	31692	
2943	0	31440	
2944	0	31224	
2945	0	31034	
2946	0	30836	
2947	0	30640	
2948	0	30498	
2949	0	30460	
2950	0	30380	
2951	0	30240	
2952	0	30068	
2953	0	29888	
2954	0	29772	
2955	0	29696	
2956	0	29656	
2957	0	29604	
2958	0	29562	
2959	0	29540	
2960	0	29564	
2961	0	29612	
2962	0	29656	
2963	0	29648	
2964	0	29676	
2965	0	29672	
2966	0	29664	
2967	0	29660	
2968	0	29668	
2969	0	29728	
2970	0	29796	
2971	0	29816	
2972	0	29808	
2973	0	29840	
2974	0	29882	
2975	0	29888	
2976	0	29856	
2977	0	29832	
2978	0	29832	
2979	0	29836	
2980	0	29820	
2981	0	29840	
2982	0	29832	
2983	0	29830	
2984	0	29804	
2985	0	29808	
2986	0	29836	
2987	0	29876	
2988	0	29936	
2989	0	30016	
2990	0	30064	
2991	0	30012	
2992	0	29906	
2993	0	29784	
2994	0	29568	
2995	0	29236	
2996	0	28668	
2997	0	27748	
2998	0	26584	
2999	0	25304	
3000	0	24000	
3001	0	22752	
3002	0	21652	
3003	0	20784	
3004	0	20196	
3005	0	19844	
3006	0	19808	
3007	0	20085	
3008	0	20672	
3009	0	21396	
3010	0	22208	
3011	0	23392	
3012	0	25076	
3013	0	27184	
3014	0	29556	
3015	0	32120	
3016	0	35084	
3017	0	38436	
3018	0	42208	
3019	0	46280	
3020	0	50548	
3021	0	54912	
3022	0	58984	
3023	0	62688	
3024	0	64992	
3025	0	65535	
3026	0	65535	
3027	0	65535	
3028	0	65535	
3029	0	65535	
3030	0	65535	
3031	0	65535	
3032	0	65535	
3033	0	62608	
3034	0	56512	
3035	0	51720	
3036	0	47744	
3037	0	43704	
3038	0	39360	
3039	0	35496	
3040	0	32344	
3041	0	29732	
3042	0	27392	
3043	0	25336	
3044	0	23652	
3045	0	22280	
3046	0	21216	
3047	0	20352	
3048	0	19664	
3049	0	19036	
3050	0	18424	
3051	0	17856	
3052	0	17488	
3053	0	17452	
3054	0	17690	
3055	0	18136	
3056	0	18654	
3057	0	19194	
3058	0	19892	
3059	0	20624	
3060	0	21344	
3061	0	22040	
3062	0	22700	
3063	0	23268	
3064	0	23784	
3065	0	24346	
3066	0	24924	
3067	0	25500	
3068	0	26106	
3069	0	26688	
3070	0	27204	
3071	0	27606	
3072	0	27950	
3073	0	28288	
3074	0	28524	
3075	0	28676	
3076	0	28752	
3077	0	28848	
3078	0	28948	
3079	0	29016	
3080	0	29068	
3081	0	29108	
3082	0	29144	
3083	0	29216	
3084	0	29280	
3085	0	29356	
3086	0	29444	
3087	0	29496	
3088	0	29532	
3089	0	29616	
3090	0	29712	
3091	0	29776	
3092	0	29772	
3093	0	29816	
3094	0	29924	
3095	0	30040	
3096	0	30196	
3097	0	30360	
3098	0	30492	
3099	0	30564	
3100	0	30648	
3101	0	30760	
3102	0	30856	
3103	0	30920	
3104	0	30940	
3105	0	30932	
3106	0	30906	
3107	0	30912	
3108	0	30988	
3109	0	31072	
3110	0	31160	
3111	0	31264	
3112	0	31348	
3113	0	31396	
3114	0	31392	
3115	0	31374	
3116	0	31392	
3117	0	31436	
3118	0	31496	
3119	0	31560	
3120	0	31572	
3121	0	31588	
3122	0	31616	
3123	0	31640	
3124	0	31716	
3125	0	31818	
3126	0	31868	
3127	0	31904	
3128	0	31904	
3129	0	31920	
3130	0	31984	
3131	0	32104	
3132	0	32216	
3133	0	32272	
3134	0	32272	
3135	0	32248	
3136	0	32260	
3137	0	32304	
3138	0	32340	
3139	0	32352	
3140	0	32344	
3141	0	32376	
3142	0	32416	
3143	0	32404	
3144	0	32360	
3145	0	32324	
3146	0	32296	
3147	0	32308	
3148	0	32378	
3149	0	32488	
3150	0	32554	
3151	0	32584	
3152	0	32644	
3153	0	32696	
3154	0	32756	
3155	0	32800	
3156	0	32826	
3157	0	32816	
3158	0	32828	
3159	0	32884	
3160	0	32988	
3161	0	33048	
3162	0	33076	
3163	0	33120	
3164	0	33152	
3165	0	33184	
3166	0	33208	
3167	0	33250	
3168	0	33272	
3169	0	33316	
3170	0	33360	
3171	0	33376	
3172	0	33412	
3173	0	33428	
3174	0	33468	
3175	0	33560	
3176	0	33628	
3177	0	33632	
3178	0	33608	
3179	0	33604	
3180	0	33584	
3181	0	33554	
3182	0	33544	
3183	0	33538	
3184	0	33468	
3185	0	33388	
3186	0	33312	
3187	0	33312	
3188	0	33336	
3189	0	33376	
3190	0	33412	
3191	0	33500	
3192	0	33610	
3193	0	33704	
3194	0	33760	
3195	0	33804	
3196	0	33812	
3197	0	33848	
3198	0	33892	
3199	0	33908	
3200	0	33888	
3201	0	33900	
3202	0	33920	
3203	0	33916	
3204	0	33874	
3205	0	33844	
3206	0	33812	
3207	0	33776	
3208	0	33768	
3209	0	33760	
3210	0	33724	
3211	0	33720	
3212	0	33696	
3213	0	33692	
3214	0	33716	
3215	0	33742	
3216	0	33760	
3217	0	33764	
3218	0	33736	
3219	0	33744	
3220	0	33720	
3221	0	33682	
3222	0	33656	
3223	0	33656	
3224	0	33644	
3225	0	33656	
3226	0	33624	
3227	0	33588	
3228	0	33572	
3229	0	33628	
3230	0	33724	
3231	0	33800	
3232	0	33824	
3233	0	33808	
3234	0	33760	
3235	0	33784	
3236	0	33792	
3237	0	33780	
3238	0	33780	
3239	0	33772	
3240	0	33756	
3241	0	33748	
3242	0	33780	
3243	0	33804	
3244	0	33816	
3245	0	33860	
3246	0	33948	
3247	0	34020	
3248	0	34040	
3249	0	34072	
3250	0	34160	
3251	0	34228	
3252	0	34260	
3253	0	34272	
3254	0	34272	
3255	0	34248	
3256	0	34216	
3257	0	34216	
3258	0	34148	
3259	0	34076	
3260	0	34004	
3261	0	33968	
3262	0	33954	
3263	0	33932	
3264	0	33904	
3265	0	33898	
3266	0	33900	
3267	0	33864	
3268	0	33812	
3269	0	33764	
3270	0	33712	
3271	0	33642	
3272	0	33616	
3273	0	33584	
3274	0	33544	
3275	0	33472	
3276	0	33408	
3277	0	33312	
3278	0	33208	
3279	0	33132	
3280	0	33096	
3281	0	33028	
3282	0	32936	
3283	0	32832	
3284	0	32752	
3285	0	32684	
3286	0	32608	
3287	0	32576	
3288	0	32584	
3289	0	32604	
3290	0	32616	
3291	0	32592	
3292	0	32568	
3293	0	32532	
3294	0	32484	
3295	0	32416	
3296	0	32312	
3297	0	32196	
3298	0	32158	
3299	0	32160	
3300	0	32156	
3301	0	32184	
3302	0	32236	
3303	0	32316	
3304	0	32344	
3305	0	32332	
3306	0	32336	
3307	0	32340	
3308	0	32340	
3309	0	32276	
3310	0	32216	
3311	0	32164	
3312	0	32096	
3313	0	32036	
3314	0	32012	
3315	0	32020	
3316	0	32032	
3317	0	32044	
3318	0	32040	
3319	0	32036	
3320	0	32028	
3321	0	32028	
3322	0	32008	
3323	0	31952	
3324	0	31909	
3325	0	31880	
3326	0	31888	
3327	0	31880	
3328	0	31868	
3329	0	31880	
3330	0	31884	
3331	0	31928	
3332	0	31956	
3333	0	31936	
3334	0	31912	
3335	0	31924	
3336	0	31980	
3337	0	32072	
3338	0	32136	
3339	0	32190	
3340	0	32208	
3341	0	32204	
3342	0	32244	
3343	0	32304	
3344	0	32320	
3345	0	32316	
3346	0	32296	
3347	0	32344	
3348	0	32464	
3349	0	32540	
3350	0	32588	
3351	0	32608	
3352	0	32572	
3353	0	32506	
3354	0	32460	
3355	0	32420	
3356	0	32392	
3357	0	32404	
3358	0	32428	
3359	0	32472	
3360	0	32480	
3361	0	32480	
3362	0	32496	
3363	0	32504	
3364	0	32552	
3365	0	32664	
3366	0	32774	
3367	0	32844	
3368	0	32948	
3369	0	33056	
3370	0	33164	
3371	0	33208	
3372	0	33168	
3373	0	33116	
3374	0	33060	
3375	0	33072	
3376	0	33088	
3377	0	33088	
3378	0	33072	
3379	0	33108	
3380	0	33152	
3381	0	33176	
3382	0	33168	
3383	0	33136	
3384	0	33072	
3385	0	32996	
3386	0	32932	
3387	0	32936	
3388	0	32956	
3389	0	33016	
3390	0	33068	
3391	0	33122	
3392	0	33168	
3393	0	33176	
3394	0	33204	
3395	0	33300	
3396	0	33376	
3397	0	33368	
3398	0	33324	
3399	0	33276	
3400	0	33204	
3401	0	33180	
3402	0	33152	
3403	0	33136	
3404	0	33140	
3405	0	33168	
3406	0	33176	
3407	0	33160	
3408	0	33108	
3409	0	33084	
3410	0	33084	
3411	0	33068	
3412	0	33056	
3413	0	33076	
3414	0	33072	
3415	0	33088	
3416	0	33124	
3417	0	33172	
3418	0	33200	
3419	0	33224	
3420	0	33260	
3421	0	33296	
3422	0	33288	
3423	0	33280	
3424	0	33252	
3425	0	33236	
3426	0	33248	
3427	0	33276	
3428	0	33296	
3429	0	33340	
3430	0	33412	
3431	0	33508	
3432	0	33576	
3433	0	33616	
3434	0	33672	
3435	0	33804	
3436	0	33914	
3437	0	33984	
3438	0	34080	
3439	0	34188	
3440	0	34256	
3441	0	34336	
3442	0	34424	
3443	0	34504	
3444	0	34580	
3445	0	34628	
3446	0	34612	
3447	0	34552	
3448	0	34504	
3449	0	34472	
3450	0	34444	
3451	0	34440	
3452	0	34458	
3453	0	34500	
3454	0	34540	
3455	0	34584	
3456	0	34698	
3457	0	34876	
3458	0	35088	
3459	0	35304	
3460	0	35552	
3461	0	35832	
3462	0	36164	
3463	0	36472	
3464	0	36696	
3465	0	36824	
3466	0	36920	
3467	0	36978	
3468	0	36984	
3469	0	36980	
3470	0	36968	
3471	0	36936	
3472	0	36920	
3473	0	36860	
3474	0	36780	
3475	0	36716	
3476	0	36672	
3477	0	36564	
3478	0	36508	
3479	0	36448	
3480	0	36356	
3481	0	36296	
3482	0	36280	
3483	0	36232	
3484	0	36188	
3485	0	36080	
3486	0	35960	
3487	0	35836	
3488	0	35716	
3489	0	35580	
3490	0	35376	
3491	0	35164	
3492	0	34948	
3493	0	34724	
3494	0	34440	
3495	0	34132	
3496	0	33812	
3497	0	33424	
3498	0	33020	
3499	0	32552	
3500	0	32120	
3501	0	31792	
3502	0	31562	
3503	0	31424	
3504	0	31296	
3505	0	31184	
3506	0	31092	
3507	0	30996	
3508	0	30888	
3509	0	30796	
3510	0	30754	
3511	0	30692	
3512	0	30612	
3513	0	30504	
3514	0	30356	
3515	0	30200	
3516	0	30080	
3517	0	29992	
3518	0	29956	
3519	0	29928	
3520	0	29924	
3521	0	29900	
3522	0	29858	
3523	0	29840	
3524	0	29836	
3525	0	29832	
3526	0	29868	
3527	0	29896	
3528	0	29920	
3529	0	29920	
3530	0	29920	
3531	0	29930	
3532	0	29904	
3533	0	29872	
3534	0	29816	
3535	0	29792	
3536	0	29786	
3537	0	29810	
3538	0	29856	
3539	0	29896	
3540	0	29952	
3541	0	29944	
3542	0	29946	
3543	0	29988	
3544	0	30052	
3545	0	30120	
3546	0	30168	
3547	0	30196	
3548	0	30208	
3549	0	30200	
3550	0	30188	
3551	0	30192	
3552	0	30144	
3553	0	30024	
3554	0	29840	
3555	0	29560	
3556	0	29120	
3557	0	28464	
3558	0	27604	
3559	0	26681	
3560	0	25692	
3561	0	24680	
3562	0	23756	
3563	0	23044	
3564	0	22592	
3565	0	22272	
3566	0	22180	
3567	0	22390	
3568	0	22842	
3569	0	23476	
3570	0	24324	
3571	0	25472	
3572	0	27040	
3573	0	29060	
3574	0	31476	
3575	0	34116	
3576	0	37028	
3577	0	40080	
3578	0	43490	
3579	0	47320	
3580	0	51384	
3581	0	55600	
3582	0	59728	
3583	0	63256	
3584	0	65240	
3585	0	65535	
3586	0	65535	
3587	0	65535	
3588	0	65535	
3589	0	65535	
3590	0	65535	
3591	0	65535	
3592	0	65535	
3593	0	59808	
3594	0	52888	
3595	0	47240	
3596	0	42580	
3597	0	38224	
3598	0	34104	
3599	0	30814	
3600	0	28376	
3601	0	26360	
3602	0	24586	
3603	0	22980	
3604	0	21428	
3605	0	20040	
3606	0	18880	
3607	0	17840	
3608	0	16954	
3609	0	16378	
3610	0	16068	
3611	0	15788	
3612	0	15521	
3613	0	15412	
3614	0	15560	
3615	0	15984	
3616	0	16532	
3617	0	17116	
3618	0	17772	
3619	0	18509	
3620	0	19236	
3621	0	19996	
3622	0	20748	
3623	0	21488	
3624	0	22212	
3625	0	22924	
3626	0	23604	
3627	0	24288	
3628	0	24972	
3629	0	25664	
3630	0	26308	
3631	0	26880	
3632	0	27408	
3633	0	27892	
3634	0	28296	
3635	0	28632	
3636	0	28888	
3637	0	29100	
3638	0	29288	
3639	0	29488	
3640	0	29632	
3641	0	29764	
3642	0	29896	
3643	0	30012	
3644	0	30112	
3645	0	30228	
3646	0	30340	
3647	0	30440	
3648	0	30520	
3649	0	30588	
3650	0	30638	
3651	0	30704	
3652	0	30764	
3653	0	30808	
3654	0	30896	
3655	0	31012	
3656	0	31088	
3657	0	31162	
3658	0	31200	
3659	0	31252	
3660	0	31280	
3661	0	31312	
3662	0	31316	
3663	0	31336	
3664	0	31376	
3665	0	31440	
3666	0	31528	
3667	0	31600	
3668	0	31628	
3669	0	31660	
3670	0	31684	
3671	0	31724	
3672	0	31768	
3673	0	31800	
3674	0	31848	
3675	0	31876	
3676	0	31888	
3677	0	31896	
3678	0	31920	
3679	0	31992	
3680	0	32064	
3681	0	32136	
3682	0	32208	
3683	0	32288	
3684	0	32340	
3685	0	32380	
3686	0	32416	
3687	0	32448	
3688	0	32464	
3689	0	32516	
3690	0	32545	
3691	0	32572	
3692	0	32620	
3693	0	32652	
3694	0	32672	
3695	0	32732	
3696	0	32820	
3697	0	32892	
3698	0	32920	
3699	0	32912	
3700	0	32936	
3701	0	32980	
3702	0	32992	
3703	0	32972	
3704	0	32984	
3705	0	33012	
3706	0	33058	
3707	0	33116	
3708	0	33136	
3709	0	33170	
3710	0	33178	
3711	0	33200	
3712	0	33204	
3713	0	33230	
3714	0	33260	
3715	0	33288	
3716	0	33344	
3717	0	33408	
3718	0	33492	
3719	0	33576	
3720	0	33648	
3721	0	33690	
3722	0	33748	
3723	0	33780	
3724	0	33792	
3725	0	33824	
3726	0	33890	
3727	0	33936	
3728	0	33976	
3729	0	34016	
3730	0	34048	
3731	0	34032	
3732	0	33972	
3733	0	33936	
3734	0	33940	
3735	0	33944	
3736	0	33936	
3737	0	33904	
3738	0	33912	
3739	0	33960	
3740	0	34056	
3741	0	34160	
3742	0	34180	
3743	0	34192	
3744	0	34192	
3745	0	34172	
3746	0	34176	
3747	0	34184	
3748	0	34188	
3749	0	34202	
3750	0	34192	
3751	0	34176	
3752	0	34168	
3753	0	34144	
3754	0	34136	
3755	0	34130	
3756	0	34128	
3757	0	34148	
3758	0	34132	
3759	0	34138	
3760	0	34156	
3761	0	34144	
3762	0	34120	
3763	0	34136	
3764	0	34132	
3765	0	34124	
3766	0	34128	
3767	0	34112	
3768	0	34096	
3769	0	34108	
3770	0	34148	
3771	0	34176	
3772	0	34168	
3773	0	34140	
3774	0	34104	
3775	0	34112	
3776	0	34088	
3777	0	34108	
3778	0	34148	
3779	0	34168	
3780	0	34164	
3781	0	34176	
3782	0	34164	
3783	0	34140	
3784	0	34112	
3785	0	34104	
3786	0	34080	
3787	0	34104	
3788	0	34144	
3789	0	34152	
3790	0	34168	
3791	0	34160	
3792	0	34180	
3793	0	34208	
3794	0	34228	
3795	0	34184	
3796	0	34168	
3797	0	34172	
3798	0	34192	
3799	0	34220	
3800	0	34268	
3801	0	34320	
3802	0	34328	
3803	0	34316	
3804	0	34312	
3805	0	34356	
3806	0	34394	
3807	0	34388	
3808	0	34408	
3809	0	34484	
3810	0	34568	
3811	0	34640	
3812	0	34714	
3813	0	34796	
3814	0	34824	
3815	0	34832	
3816	0	34812	
3817	0	34780	
3818	0	34756	
3819	0	34752	
3820	0	34740	
3821	0	34738	
3822	0	34740	
3823	0	34744	
3824	0	34740	
3825	0	34694	
3826	0	34616	
3827	0	34530	
3828	0	34440	
3829	0	34370	
3830	0	34340	
3831	0	34324	
3832	0	34272	
3833	0	34216	
3834	0	34120	
3835	0	34044	
3836	0	33980	
3837	0	33920	
3838	0	33840	
3839	0	33760	
3840	0	33680	
3841	0	33632	
3842	0	33564	
3843	0	33512	
3844	0	33472	
3845	0	33424	
3846	0	33400	
3847	0	33328	
3848	0	33284	
3849	0	33224	
3850	0	33184	
3851	0	33108	
3852	0	33052	
3853	0	32954	
3854	0	32896	
3855	0	32836	
3856	0	32776	
3857	0	32744	
3858	0	32720	
3859	0	32716	
3860	0	32712	
3861	0	32674	
3862	0	32632	
3863	0	32600	
3864	0	32596	
3865	0	32600	
3866	0	32604	
3867	0	32584	
3868	0	32544	
3869	0	32520	
3870	0	32464	
3871	0	32396	
3872	0	32388	
3873	0	32392	
3874	0	32380	
3875	0	32314	
3876	0	32264	
3877	0	32184	
3878	0	32098	
3879	0	32036	
3880	0	31956	
3881	0	31884	
3882	0	31872	
3883	0	31872	
3884	0	31868	
3885	0	31860	
3886	0	31876	
3887	0	31892	
3888	0	31884	
3889	0	31824	
3890	0	31792	
3891	0	31816	
3892	0	31876	
3893	0	31956	
3894	0	32000	
3895	0	32008	
3896	0	31988	
3897	0	31968	
3898	0	31956	
3899	0	31964	
3900	0	32020	
3901	0	32096	
3902	0	32156	
3903	0	32184	
3904	0	32212	
3905	0	32240	
3906	0	32292	
3907	0	32352	
3908	0	32416	
3909	0	32484	
3910	0	32532	
3911	0	32572	
3912	0	32596	
3913	0	32580	
3914	0	32548	
3915	0	32556	
3916	0	32616	
3917	0	32634	
3918	0	32664	
3919	0	32712	
3920	0	32764	
3921	0	32804	
3922	0	32812	
3923	0	32800	
3924	0	32800	
3925	0	32784	
3926	0	32768	
3927	0	32784	
3928	0	32816	
3929	0	32866	
3930	0	32924	
3931	0	32988	
3932	0	33060	
3933	0	33140	
3934	0	33164	
3935	0	33176	
3936	0	33162	
3937	0	33144	
3938	0	33120	
3939	0	33124	
3940	0	33168	
3941	0	33212	
3942	0	33244	
3943	0	33292	
3944	0	33320	
3945	0	33332	
3946	0	33344	
3947	0	33320	
3948	0	33330	
3949	0	33372	
3950	0	33420	
3951	0	33456	
3952	0	33472	
3953	0	33520	
3954	0	33560	
3955	0	33544	
3956	0	33504	
3957	0	33460	
3958	0	33440	
3959	0	33432	
3960	0	33456	
3961	0	33456	
3962	0	33484	
3963	0	33512	
3964	0	33512	
3965	0	33536	
3966	0	33548	
3967	0	33544	
3968	0	33568	
3969	0	33608	
3970	0	33600	
3971	0	33536	
3972	0	33476	
3973	0	33448	
3974	0	33432	
3975	0	33440	
3976	0	33452	
3977	0	33436	
3978	0	33432	
3979	0	33448	
3980	0	33456	
3981	0	33448	
3982	0	33416	
3983	0	33360	
3984	0	33332	
3985	0	33322	
3986	0	33330	
3987	0	33320	
3988	0	33256	
3989	0	33168	
3990	0	33098	
3991	0	33088	
3992	0	33096	
3993	0	33100	
3994	0	33108	
3995	0	33116	
3996	0	33105	
3997	0	33098	
3998	0	33076	
3999	0	33056	
4000	0	33040	
4001	0	32988	
4002	0	32936	
4003	0	32882	
4004	0	32848	
4005	0	32820	
4006	0	32788	
4007	0	32784	
4008	0	32732	
4009	0	32660	
4010	0	32584	
4011	0	32544	
4012	0	32524	
4013	0	32512	
4014	0	32532	
4015	0	32564	
4016	0	32544	
4017	0	32542	
4018	0	32540	
4019	0	32524	
4020	0	32512	
4021	0	32528	
4022	0	32540	
4023	0	32508	
4024	0	32520	
4025	0	32516	
4026	0	32528	
4027	0	32492	
4028	0	32440	
4029	0	32420	
4030	0	32428	
4031	0	32380	
4032	0	32360	
4033	0	32360	
4034	0	32366	
4035	0	32336	
4036	0	32272	
4037	0	32240	
4038	0	32224	
4039	0	32236	
4040	0	32252	
4041	0	32304	
4042	0	32308	
4043	0	32312	
4044	0	32324	
4045	0	32364	
4046	0	32372	
4047	0	32384	
4048	0	32408	
4049	0	32488	
4050	0	32576	
4051	0	32632	
4052	0	32708	
4053	0	32800	
4054	0	32928	
4055	0	33064	
4056	0	33164	
4057	0	33290	
4058	0	33440	
4059	0	33588	
4060	0	33744	
4061	0	33924	
4062	0	34092	
4063	0	34188	
4064	0	34284	
4065	0	34308	
4066	0	34272	
4067	0	34280	
4068	0	34292	
4069	0	34296	
4070	0	34328	
4071	0	34368	
4072	0	34392	
4073	0	34404	
4074	0	34400	
4075	0	34364	
4076	0	34340	
4077	0	34376	
4078	0	34532	
4079	0	34772	
4080	0	35084	
4081	0	35404	
4082	0	35752	
4083	0	36104	
4084	0	36456	
4085	0	36760	
4086	0	36964	
4087	0	37060	
4088	0	37136	
4089	0	37156	
4090	0	37166	
4091	0	37160	
4092	0	37152	
4093	0	37136	
4094	0	37080	
4095	0	36988	
4096	0	36878	
4097	0	36732	
4098	0	36604	
4099	0	36464	
4100	0	36344	
4101	0	36264	
4102	0	36240	
4103	0	36232	
4104	0	36156	
4105	0	36064	
4106	0	35964	
4107	0	35874	
4108	0	35824	
4109	0	35796	
4110	0	35740	
4111	0	35668	
4112	0	35530	
4113	0	35348	
4114	0	35072	
4115	0	34748	
4116	0	34388	
4117	0	34048	
4118	0	33728	
4119	0	33346	
4120	0	32888	
4121	0	32440	
4122	0	32020	
4123	0	31708	
4124	0	31472	
4125	0	31266	
4126	0	31108	
4127	0	30984	
4128	0	30864	
4129	0	30776	
4130	0	30692	
4131	0	30608	
4132	0	30528	
4133	0	30416	
4134	0	30304	
4135	0	30200	
4136	0	30084	
4137	0	29968	
4138	0	29868	
4139	0	29834	
4140	0	29844	
4141	0	29860	
4142	0	29864	
4143	0	29856	
4144	0	29808	
4145	0	29764	
4146	0	29788	
4147	0	29860	
4148	0	29888	
4149	0	29920	
4150	0	29976	
4151	0	29988	
4152	0	29976	
4153	0	29952	
4154	0	29936	
4155	0	29940	
4156	0	29948	
4157	0	29960	
4158	0	29968	
4159	0	29984	
4160	0	30024	
4161	0	30048	
4162	0	30092	
4163	0	30128	
4164	0	30172	
4165	0	30216	
4166	0	30208	
4167	0	30200	
4168	0	30224	
4169	0	30236	
4170	0	30236	
4171	0	30276	
4172	0	30280	
4173	0	30212	
4174	0	30028	
4175	0	29801	
4176	0	29480	
4177	0	28968	
4178	0	28204	
4179	0	27274	
4180	0	26224	
4181	0	25152	
4182	0	24196	
4183	0	23392	
4184	0	22784	
4185	0	22377	
4186	0	22172	
4187	0	22292	
4188	0	22696	
4189	0	23320	
4190	0	24104	
4191	0	25054	
4192	0	26404	
4193	0	28368	
4194	0	30804	
4195	0	33504	
4196	0	36402	
4197	0	39648	
4198	0	43086	
4199	0	46912	
4200	0	51076	
4201	0	55396	
4202	0	59800	
4203	0	63268	
4204	0	65156	
4205	0	65535	
4206	0	65535	
4207	0	65535	
4208	0	65535	
4209	0	65535	
4210	0	65535	
4211	0	65535	
4212	0	65535	
4213	0	65535	
4214	0	59960	
4215	0	53932	
4216	0	49216	
4217	0	45120	
4218	0	40832	
4219	0	36572	
4220	0	32900	
4221	0	29946	
4222	0	27442	
4223	0	25114	
4224	0	23052	
4225	0	21372	
4226	0	20045	
4227	0	18956	
4228	0	18100	
4229	0	17472	
4230	0	16996	
4231	0	16584	
4232	0	16232	
4233	0	16028	
4234	0	16152	
4235	0	16556	
4236	0	17116	
4237	0	17704	
4238	0	18280	
4239	0	18876	
4240	0	19552	
4241	0	20240	
4242	0	20900	
4243	0	21596	
4244	0	22264	
4245	0	22916	
4246	0	23568	
4247	0	24220	
4248	0	24900	
4249	0	25580	
4250	0	26208	
4251	0	26780	
4252	0	27256	
4253	0	27656	
4254	0	27970	
4255	0	28248	
4256	0	28480	
4257	0	28704	
4258	0	28888	
4259	0	29020	
4260	0	29128	
4261	0	29200	
4262	0	29280	
4263	0	29344	
4264	0	29384	
4265	0	29464	
4266	0	29582	
4267	0	29688	
4268	0	29780	
4269	0	29864	
4270	0	29922	
4271	0	29948	
4272	0	30020	
4273	0	30112	
4274	0	30176	
4275	0	30264	
4276	0	30332	
4277	0	30392	
4278	0	30432	
4279	0	30474	
4280	0	30512	
4281	0	30580	
4282	0	30684	
4283	0	30816	
4284	0	30912	
4285	0	30956	
4286	0	30980	
4287	0	31032	
4288	0	31080	
4289	0	31164	
4290	0	31232	
4291	0	31284	
4292	0	31304	
4293	0	31322	
4294	0	31352	
4295	0	31384	
4296	0	31368	
4297	0	31368	
4298	0	31416	
4299	0	31472	
4300	0	31548	
4301	0	31632	
4302	0	31728	
4303	0	31784	
4304	0	31820	
4305	0	31840	
4306	0	31850	
4307	0	31888	
4308	0	31932	
4309	0	31970	
4310	0	31928	
4311	0	31920	
4312	0	31928	
4313	0	31970	
4314	0	32040	
4315	0	32090	
4316	0	32136	
4317	0	32116	
4318	0	32120	
4319	0	32156	
4320	0	32212	
4321	0	32296	
4322	0	32372	
4323	0	32456	
4324	0	32548	
4325	0	32596	
4326	0	32640	
4327	0	32644	
4328	0	32652	
4329	0	32624	
4330	0	32584	
4331	0	32592	
4332	0	32652	
4333	0	32728	
4334	0	32776	
4335	0	32824	
4336	0	32872	
4337	0	32890	
4338	0	32888	
4339	0	32908	
4340	0	32936	
4341	0	32944	
4342	0	32996	
4343	0	33084	
4344	0	33160	
4345	0	33216	
4346	0	33260	
4347	0	33314	
4348	0	33344	
4349	0	33392	
4350	0	33420	
4351	0	33418	
4352	0	33408	
4353	0	33420	
4354	0	33440	
4355	0	33452	
4356	0	33458	
4357	0	33456	
4358	0	33448	
4359	0	33440	
4360	0	33408	
4361	0	33388	
4362	0	33408	
4363	0	33440	
4364	0	33504	
4365	0	33540	
4366	0	33544	
4367	0	33544	
4368	0	33572	
4369	0	33588	
4370	0	33568	
4371	0	33576	
4372	0	33568	
4373	0	33528	
4374	0	33524	
4375	0	33520	
4376	0	33536	
4377	0	33564	
4378	0	33534	
4379	0	33504	
4380	0	33472	
4381	0	33452	
4382	0	33432	
4383	0	33472	
4384	0	33504	
4385	0	33524	
4386	0	33564	
4387	0	33596	
4388	0	33644	
4389	0	33664	
4390	0	33620	
4391	0	33576	
4392	0	33576	
4393	0	33580	
4394	0	33580	
4395	0	33562	
4396	0	33570	
4397	0	33584	
4398	0	33596	
4399	0	33588	
4400	0	33584	
4401	0	33536	
4402	0	33500	
4403	0	33468	
4404	0	33452	
4405	0	33448	
4406	0	33468	
4407	0	33428	
4408	0	33400	
4409	0	33388	
4410	0	33360	
4411	0	33368	
4412	0	33396	
4413	0	33424	
4414	0	33412	
4415	0	33456	
4416	0	33438	
4417	0	33416	
4418	0	33408	
4419	0	33400	
4420	0	33416	
4421	0	33460	
4422	0	33538	
4423	0	33608	
4424	0	33680	
4425	0	33716	
4426	0	33716	
4427	0	33704	
4428	0	33710	
4429	0	33724	
4430	0	33760	
4431	0	33824	
4432	0	33876	
4433	0	33916	
4434	0	33976	
4435	0	34040	
4436	0	34128	
4437	0	34176	
4438	0	34204	
4439	0	34244	
4440	0	34284	
4441	0	34320	
4442	0	34364	
4443	0	34380	
4444	0	34392	
4445	0	34432	
4446	0	34432	
4447	0	34404	
4448	0	34376	
4449	0	34348	
4450	0	34336	
4451	0	34316	
4452	0	34284	
4453	0	34252	
4454	0	34232	
4455	0	34194	
4456	0	34124	
4457	0	34108	
4458	0	34088	
4459	0	34072	
4460	0	34032	
4461	0	33964	
4462	0	33888	
4463	0	33840	
4464	0	33800	
4465	0	33768	
4466	0	33712	
4467	0	33664	
4468	0	33596	
4469	0	33548	
4470	0	33500	
4471	0	33416	
4472	0	33364	
4473	0	33324	
4474	0	33244	
4475	0	33204	
4476	0	33212	
4477	0	33220	
4478	0	33204	
4479	0	33192	
4480	0	33184	
4481	0	33140	
4482	0	33080	
4483	0	33044	
4484	0	33000	
4485	0	32982	
4486	0	32964	
4487	0	32932	
4488	0	32920	
4489	0	32874	
4490	0	32832	
4491	0	32764	
4492	0	32688	
4493	0	32648	
4494	0	32584	
4495	0	32544	
4496	0	32516	
4497	0	32508	
4498	0	32536	
4499	0	32544	
4500	0	32520	
4501	0	32500	
4502	0	32488	
4503	0	32472	
4504	0	32428	
4505	0	32384	
4506	0	32364	
4507	0	32348	
4508	0	32352	
4509	0	32364	
4510	0	32376	
4511	0	32400	
4512	0	32412	
4513	0	32432	
4514	0	32432	
4515	0	32472	
4516	0	32544	
4517	0	32596	
4518	0	32628	
4519	0	32640	
4520	0	32644	
4521	0	32656	
4522	0	32684	
4523	0	32656	
4524	0	32652	
4525	0	32668	
4526	0	32728	
4527	0	32784	
4528	0	32848	
4529	0	32900	
4530	0	32948	
4531	0	32968	
4532	0	32984	
4533	0	33000	
4534	0	33012	
4535	0	33080	
4536	0	33084	
4537	0	33056	
4538	0	33016	
4539	0	32972	
4540	0	32944	
4541	0	32952	
4542	0	32980	
4543	0	33028	
4544	0	33098	
4545	0	33176	
4546	0	33244	
4547	0	33316	
4548	0	33348	
4549	0	33356	
4550	0	33384	
4551	0	33430	
4552	0	33432	
4553	0	33408	
4554	0	33388	
4555	0	33368	
4556	0	33356	
4557	0	33352	
4558	0	33376	
4559	0	33436	
4560	0	33488	
4561	0	33528	
4562	0	33560	
4563	0	33584	
4564	0	33600	
4565	0	33652	
4566	0	33712	
4567	0	33756	
4568	0	33788	
4569	0	33828	
4570	0	33844	
4571	0	33832	
4572	0	33828	
4573	0	33820	
4574	0	33776	
4575	0	33728	
4576	0	33696	
4577	0	33736	
4578	0	33820	
4579	0	33860	
4580	0	33906	
4581	0	33936	
4582	0	33944	
4583	0	33908	
4584	0	33888	
4585	0	33872	
4586	0	33848	
4587	0	33816	
4588	0	33788	
4589	0	33788	
4590	0	33816	
4591	0	33856	
4592	0	33816	
4593	0	33752	
4594	0	33696	
4595	0	33668	
4596	0	33688	
4597	0	33704	
4598	0	33688	
4599	0	33684	
4600	0	33680	
4601	0	33708	
4602	0	33740	
4603	0	33792	
4604	0	33820	
4605	0	33788	
4606	0	33744	
4607	0	33712	
4608	0	33700	
4609	0	33648	
4610	0	33604	
4611	0	33600	
4612	0	33594	
4613	0	33552	
4614	0	33488	
4615	0	33408	
4616	0	33380	
4617	0	33344	
4618	0	33292	
4619	0	33256	
4620	0	33232	
4621	0	33224	
4622	0	33204	
4623	0	33168	
4624	0	33106	
4625	0	33040	
4626	0	33008	
4627	0	32980	
4628	0	32936	
4629	0	32896	
4630	0	32836	
4631	0	32816	
4632	0	32816	
4633	0	32844	
4634	0	32876	
4635	0	32884	
4636	0	32900	
4637	0	32880	
4638	0	32858	
4639	0	32864	
4640	0	32844	
4641	0	32808	
4642	0	32796	
4643	0	32768	
4644	0	32732	
4645	0	32680	
4646	0	32640	
4647	0	32632	
4648	0	32602	
4649	0	32596	
4650	0	32608	
4651	0	32608	
4652	0	32580	
4653	0	32600	
4654	0	32612	
4655	0	32624	
4656	0	32624	
4657	0	32624	
4658	0	32592	
4659	0	32572	
4660	0	32576	
4661	0	32560	
4662	0	32548	
4663	0	32540	
4664	0	32566	
4665	0	32608	
4666	0	32648	
4667	0	32608	
4668	0	32584	
4669	0	32544	
4670	0	32516	
4671	0	32552	
4672	0	32560	
4673	0	32532	
4674	0	32492	
4675	0	32464	
4676	0	32452	
4677	0	32426	
4678	0	32418	
4679	0	32432	
4680	0	32428	
4681	0	32404	
4682	0	32400	
4683	0	32498	
4684	0	32568	
4685	0	32588	
4686	0	32584	
4687	0	32552	
4688	0	32488	
4689	0	32456	
4690	0	32456	
4691	0	32440	
4692	0	32432	
4693	0	32416	
4694	0	32412	
4695	0	32416	
4696	0	32414	
4697	0	32418	
4698	0	32412	
4699	0	32396	
4700	0	32434	
4701	0	32464	
4702	0	32440	
4703	0	32468	
4704	0	32472	
4705	0	32468	
4706	0	32448	
4707	0	32404	
4708	0	32376	
4709	0	32344	
4710	0	32312	
4711	0	32296	
4712	0	32336	
4713	0	32388	
4714	0	32428	
4715	0	32420	
4716	0	32432	
4717	0	32452	
4718	0	32456	
4719	0	32512	
4720	0	32544	
4721	0	32512	
4722	0	32424	
4723	0	32372	
4724	0	32358	
4725	0	32320	
4726	0	32314	
4727	0	32336	
4728	0	32368	
4729	0	32376	
4730	0	32376	
4731	0	32416	
4732	0	32452	
4733	0	32436	
4734	0	32416	
4735	0	32404	
4736	0	32448	
4737	0	32500	
4738	0	32528	
4739	0	32564	
4740	0	32572	
4741	0	32548	
4742	0	32532	
4743	0	32540	
4744	0	32516	
4745	0	32536	
4746	0	32528	
4747	0	32528	
4748	0	32506	
4749	0	32464	
4750	0	32436	
4751	0	32416	
4752	0	32400	
4753	0	32436	
4754	0	32448	
4755	0	32456	
4756	0	32472	
4757	0	32448	
4758	0	32436	
4759	0	32456	
4760	0	32460	
4761	0	32468	
4762	0	32500	
4763	0	32546	
4764	0	32564	
4765	0	32572	
4766	0	32596	
4767	0	32584	
4768	0	32540	
4769	0	32548	
4770	0	32592	
4771	0	32618	
4772	0	32656	
4773	0	32644	
4774	0	32640	
4775	0	32584	
4776	0	32544	
4777	0	32576	
4778	0	32596	
4779	0	32576	
4780	0	32544	
4781	0	32544	
4782	0	32564	
4783	0	32540	
4784	0	32524	
4785	0	32536	
4786	0	32566	
4787	0	32588	
4788	0	32576	
4789	0	32538	
4790	0	32536	
4791	0	32528	
4792	0	32516	
4793	0	32496	
4794	0	32480	
4795	0	32496	
4796	0	32520	
4797	0	32536	
4798	0	32520	
4799	0	32488	
4800	0	32498	
4801	0	32516	
4802	0	32532	
4803	0	32576	
4804	0	32640	
4805	0	32652	
4806	0	32684	
4807	0	32736	
4808	0	32808	
4809	0	32864	
4810	0	32928	
4811	0	33020	
4812	0	33168	
4813	0	33364	
4814	0	33548	
4815	0	33712	
4816	0	33856	
4817	0	33994	
4818	0	34176	
4819	0	34344	
4820	0	34436	
4821	0	34524	
4822	0	34580	
4823	0	34648	
4824	0	34688	
4825	0	34736	
4826	0	34760	
4827	0	34684	
4828	0	34600	
4829	0	34528	
4830	0	34490	
4831	0	34464	
4832	0	34508	
4833	0	34608	
4834	0	34736	
4835	0	34888	
4836	0	35112	
4837	0	35372	
4838	0	35636	
4839	0	35924	
4840	0	36216	
4841	0	36552	
4842	0	36860	
4843	0	37100	
4844	0	37240	
4845	0	37312	
4846	0	37352	
4847	0	37344	
4848	0	37332	
4849	0	37288	
4850	0	37168	
4851	0	37080	
4852	0	37004	
4853	0	36928	
4854	0	36868	
4855	0	36792	
4856	0	36720	
4857	0	36624	
4858	0	36540	
4859	0	36480	
4860	0	36428	
4861	0	36396	
4862	0	36324	
4863	0	36256	
4864	0	36240	
4865	0	36212	
4866	0	36160	
4867	0	36012	
4868	0	35848	
4869	0	35704	
4870	0	35536	
4871	0	35292	
4872	0	34988	
4873	0	34672	
4874	0	34400	
4875	0	34148	
4876	0	33760	
4877	0	33316	
4878	0	32928	
4879	0	32584	
4880	0	32304	
4881	0	32066	
4882	0	31892	
4883	0	31768	
4884	0	31688	
4885	0	31636	
4886	0	31576	
4887	0	31516	
4888	0	31448	
4889	0	31368	
4890	0	31292	
4891	0	31176	
4892	0	31076	
4893	0	30996	
4894	0	30920	
4895	0	30912	
4896	0	30888	
4897	0	30852	
4898	0	30808	
4899	0	30788	
4900	0	30788	
4901	0	30800	
4902	0	30804	
4903	0	30812	
4904	0	30816	
4905	0	30812	
4906	0	30836	
4907	0	30868	
4908	0	30848	
4909	0	30864	
4910	0	30832	
4911	0	30824	
4912	0	30784	
4913	0	30792	
4914	0	30796	
4915	0	30784	
4916	0	30784	
4917	0	30792	
4918	0	30828	
4919	0	30912	
4920	0	30980	
4921	0	31032	
4922	0	31032	
4923	0	31032	
4924	0	31028	
4925	0	31056	
4926	0	31084	
4927	0	31080	
4928	0	31056	
4929	0	31032	
4930	0	30928	
4931	0	30760	
4932	0	30484	
4933	0	29996	
4934	0	29244	
4935	0	28352	
4936	0	27416	
4937	0	26488	
4938	0	25608	
4939	0	24872	
4940	0	24350	
4941	0	24052	
4942	0	23904	
4943	0	24028	
4944	0	24420	
4945	0	24982	
4946	0	25672	
4947	0	26508	
4948	0	27712	
4949	0	29508	
4950	0	31848	
4951	0	34504	
4952	0	37296	
4953	0	40360	
4954	0	43656	
4955	0	47376	
4956	0	51344	
4957	0	55544	
4958	0	59824	
4959	0	63060	
4960	0	64820	
4961	0	65535	
4962	0	65535	
4963	0	65535	
4964	0	65535	
4965	0	65535	
4966	0	65535	
4967	0	65535	
4968	0	65535	
4969	0	65535	
4970	0	60220	
4971	0	53820	
4972	0	48644	
4973	0	44316	
4974	0	40224	
4975	0	36444	
4976	0	33328	
4977	0	30704	
4978	0	28436	
4979	0	26282	
4980	0	24264	
4981	0	22436	
4982	0	20861	
4983	0	19576	
4984	0	18384	
4985	0	17476	
4986	0	17014	
4987	0	16724	
4988	0	16436	
4989	0	16184	
4990	0	16116	
4991	0	16292	
4992	0	16781	
4993	0	17453	
4994	0	18144	
4995	0	18872	
4996	0	19594	
4997	0	20377	
4998	0	21172	
4999	0	21844	
5000	0	22412	
5001	0	22978	
5002	0	23596	
5003	0	24250	
5004	0	24980	
5005	0	25734	
5006	0	26440	
5007	0	27040	
5008	0	27548	
5009	0	27976	
5010	0	28376	
5011	0	28744	
5012	0	29068	
5013	0	29292	
5014	0	29480	
5015	0	29652	
5016	0	29728	
5017	0	29780	
5018	0	29812	
5019	0	29866	
5020	0	29968	
5021	0	30076	
5022	0	30180	
5023	0	30252	
5024	0	30312	
5025	0	30416	
5026	0	30460	
5027	0	30520	
5028	0	30540	
5029	0	30652	
5030	0	30752	
5031	0	30760	
5032	0	30856	
5033	0	30960	
5034	0	31018	
5035	0	31088	
5036	0	31136	
5037	0	31244	
5038	0	31361	
5039	0	31472	
5040	0	31578	
5041	0	31556	
5042	0	31580	
5043	0	31592	
5044	0	31624	
5045	0	31760	
5046	0	31842	
5047	0	31832	
5048	0	31860	
5049	0	31856	
5050	0	31796	
5051	0	31758	
5052	0	31750	
5053	0	31736	
5054	0	31736	
5055	0	31784	
5056	0	31936	
5057	0	32008	
5058	0	32048	
5059	0	32084	
5060	0	32120	
5061	0	32128	
5062	0	32120	
5063	0	32064	
5064	0	32064	
5065	0	32124	
5066	0	32168	
5067	0	32080	
5068	0	32132	
5069	0	32220	
5070	0	32176	
5071	0	32242	
5072	0	32332	
5073	0	32316	
5074	0	32288	
5075	0	32354	
5076	0	32404	
5077	0	32468	
5078	0	32528	
5079	0	32544	
5080	0	32576	
5081	0	32612	
5082	0	32636	
5083	0	32660	
5084	0	32692	
5085	0	32576	
5086	0	32672	
5087	0	32824	
5088	0	32856	
5089	0	32808	
5090	0	32816	
5091	0	32844	
5092	0	32770	
5093	0	32812	
5094	0	33036	
5095	0	33160	
5096	0	33196	
5097	0	33216	
5098	0	33208	
5099	0	33204	
5100	0	33212	
5101	0	33180	
5102	0	33248	
5103	0	33296	
5104	0	33324	
5105	0	33388	
5106	0	33444	
5107	0	33500	
5108	0	33548	
5109	0	33552	
5110	0	33584	
5111	0	33588	
5112	0	33588	
5113	0	33680	
5114	0	33716	
5115	0	33734	
5116	0	33744	
5117	0	33728	
5118	0	33680	
5119	0	33612	
5120	0	33812	
5121	0	33990	
5122	0	33960	
5123	0	33940	
5124	0	33938	
5125	0	33900	
5126	0	33864	
5127	0	33816	
5128	0	33688	
5129	0	33672	
5130	0	33842	
5131	0	33992	
5132	0	33986	
5133	0	33952	
5134	0	33920	
5135	0	33948	
5136	0	33944	
5137	0	33936	
5138	0	33872	
5139	0	33752	
5140	0	33656	
5141	0	33736	
5142	0	33848	
5143	0	33920	
5144	0	34012	
5145	0	33864	
5146	0	33728	
5147	0	33732	
5148	0	33720	
5149	0	33768	
5150	0	33792	
5151	0	33660	
5152	0	33616	
5153	0	33736	
5154	0	33784	
5155	0	33740	
5156	0	33682	
5157	0	33604	
5158	0	33504	
5159	0	33460	
5160	0	33464	
5161	0	33392	
5162	0	33396	
5163	0	33534	
5164	0	33696	
5165	0	33760	
5166	0	33860	
5167	0	33872	
5168	0	33832	
5169	0	33780	
5170	0	33712	
5171	0	33684	
5172	0	33640	
5173	0	33584	
5174	0	33648	
5175	0	33656	
5176	0	33712	
5177	0	33788	
5178	0	33776	
5179	0	33772	
5180	0	33730	
5181	0	33636	
5182	0	33632	
5183	0	33664	
5184	0	33632	
5185	0	33624	
5186	0	33620	
5187	0	33644	
5188	0	33728	
5189	0	33860	
5190	0	33964	
5191	0	34008	
5192	0	34074	
5193	0	34184	
5194	0	34252	
5195	0	34360	
5196	0	34424	
5197	0	34452	
5198	0	34436	
5199	0	34440	
5200	0	34460	
5201	0	34464	
5202	0	34472	
5203	0	34516	
5204	0	34568	
5205	0	34624	
5206	0	34644	
5207	0	34704	
5208	0	34828	
5209	0	34752	
5210	0	34704	
5211	0	34768	
5212	0	34716	
5213	0	34616	
5214	0	34548	
5215	0	34512	
5216	0	34522	
5217	0	34540	
5218	0	34544	
5219	0	34504	
5220	0	34464	
5221	0	34364	
5222	0	34232	
5223	0	34178	
5224	0	34132	
5225	0	34144	
5226	0	34164	
5227	0	34112	
5228	0	34080	
5229	0	34100	
5230	0	34096	
5231	0	34020	
5232	0	33948	
5233	0	33812	
5234	0	33672	
5235	0	33636	
5236	0	33640	
5237	0	33560	
5238	0	33576	
5239	0	33620	
5240	0	33580	
5241	0	33516	
5242	0	33492	
5243	0	33536	
5244	0	33520	
5245	0	33424	
5246	0	33344	
5247	0	33300	
5248	0	33304	
5249	0	33224	
5250	0	33068	
5251	0	33032	
5252	0	32960	
5253	0	32864	
5254	0	32812	
5255	0	32776	
5256	0	32784	
5257	0	32758	
5258	0	32764	
5259	0	32768	
5260	0	32736	
5261	0	32692	
5262	0	32696	
5263	0	32700	
5264	0	32736	
5265	0	32808	
5266	0	32856	
5267	0	32808	
5268	0	32704	
5269	0	32632	
5270	0	32536	
5271	0	32500	
5272	0	32488	
5273	0	32488	
5274	0	32464	
5275	0	32472	
5276	0	32472	
5277	0	32496	
5278	0	32548	
5279	0	32620	
5280	0	32724	
5281	0	32800	
5282	0	32832	
5283	0	32788	
5284	0	32788	
5285	0	32772	
5286	0	32712	
5287	0	32696	
5288	0	32688	
5289	0	32808	
5290	0	32888	
5291	0	32976	
5292	0	33048	
5293	0	33056	
5294	0	33004	
5295	0	32968	
5296	0	32984	
5297	0	33020	
5298	0	33064	
5299	0	33012	
5300	0	32988	
5301	0	32980	
5302	0	32992	
5303	0	32984	
5304	0	33032	
5305	0	33092	
5306	0	33120	
5307	0	33114	
5308	0	33124	
5309	0	33140	
5310	0	33144	
5311	0	33136	
5312	0	33180	
5313	0	33184	
5314	0	33232	
5315	0	33260	
5316	0	33269	
5317	0	33332	
5318	0	33344	
5319	0	33320	
5320	0	33280	
5321	0	33268	
5322	0	33240	
5323	0	33120	
5324	0	33032	
5325	0	33080	
5326	0	33144	
5327	0	33184	
5328	0	33176	
5329	0	33116	
5330	0	33088	
5331	0	33092	
5332	0	33188	
5333	0	33292	
5334	0	33332	
5335	0	33332	
5336	0	33400	
5337	0	33376	
5338	0	33364	
5339	0	33464	
5340	0	33476	
5341	0	33456	
5342	0	33412	
5343	0	33368	
5344	0	33332	
5345	0	33324	
5346	0	33282	
5347	0	33252	
5348	0	33276	
5349	0	33296	
5350	0	33372	
5351	0	33376	
5352	0	33236	
5353	0	33080	
5354	0	33120	
5355	0	33178	
5356	0	33234	
5357	0	33228	
5358	0	33240	
5359	0	33208	
5360	0	33084	
5361	0	33140	
5362	0	33196	
5363	0	33192	
5364	0	33168	
5365	0	33160	
5366	0	33160	
5367	0	33160	
5368	0	33124	
5369	0	33152	
5370	0	33180	
5371	0	33202	
5372	0	33136	
5373	0	33016	
5374	0	32980	
5375	0	32984	
5376	0	32996	
5377	0	32976	
5378	0	32964	
5379	0	32952	
5380	0	32940	
5381	0	32996	
5382	0	32968	
5383	0	32960	
5384	0	32960	
5385	0	32952	
5386	0	32904	
5387	0	32892	
5388	0	32912	
5389	0	32936	
5390	0	32964	
5391	0	32968	
5392	0	32960	
5393	0	32960	
5394	0	32936	
5395	0	32888	
5396	0	32866	
5397	0	32832	
5398	0	32772	
5399	0	32776	
5400	0	32740	
5401	0	32684	
5402	0	32688	
5403	0	32668	
5404	0	32596	
5405	0	32532	
5406	0	32540	
5407	0	32552	
5408	0	32496	
5409	0	32456	
5410	0	32406	
5411	0	32364	
5412	0	32364	
5413	0	32372	
5414	0	32360	
5415	0	32324	
5416	0	32320	
5417	0	32312	
5418	0	32284	
5419	0	32340	
5420	0	32306	
5421	0	32260	
5422	0	32288	
5423	0	32272	
5424	0	32264	
5425	0	32288	
5426	0	32284	
5427	0	32304	
5428	0	32320	
5429	0	32312	
5430	0	32272	
5431	0	32242	
5432	0	32192	
5433	0	32204	
5434	0	32204	
5435	0	32242	
5436	0	32304	
5437	0	32320	
5438	0	32304	
5439	0	32192	
5440	0	32140	
5441	0	32080	
5442	0	32066	
5443	0	32044	
5444	0	32044	
5445	0	32056	
5446	0	32028	
5447	0	32028	
5448	0	32072	
5449	0	32100	
5450	0	32052	
5451	0	31904	
5452	0	31980	
5453	0	32160	
5454	0	32208	
5455	0	32168	
5456	0	32108	
5457	0	32096	
5458	0	32104	
5459	0	32072	
5460	0	32120	
5461	0	32220	
5462	0	32220	
5463	0	32080	
5464	0	31952	
5465	0	31892	
5466	0	31888	
5467	0	31872	
5468	0	31912	
5469	0	32048	
5470	0	32132	
5471	0	32096	
5472	0	32096	
5473	0	32096	
5474	0	32076	
5475	0	32028	
5476	0	31896	
5477	0	31908	
5478	0	32048	
5479	0	32138	
5480	0	32204	
5481	0	32204	
5482	0	32180	
5483	0	32076	
5484	0	32034	
5485	0	32000	
5486	0	31876	
5487	0	31752	
5488	0	31784	
5489	0	31848	
5490	0	31856	
5491	0	32004	
5492	0	32180	
5493	0	32192	
5494	0	32096	
5495	0	31992	
5496	0	31924	
5497	0	31892	
5498	0	31872	
5499	0	31924	
5500	0	32016	
5501	0	31844	
5502	0	31620	
5503	0	31700	
5504	0	31872	
5505	0	31988	
5506	0	32008	
5507	0	32008	
5508	0	31944	
5509	0	31904	
5510	0	31852	
5511	0	31816	
5512	0	31812	
5513	0	31860	
5514	0	31928	
5515	0	31896	
5516	0	31868	
5517	0	31964	
5518	0	32052	
5519	0	32000	
5520	0	31872	
5521	0	31748	
5522	0	31776	
5523	0	31908	
5524	0	32008	
5525	0	32076	
5526	0	32124	
5527	0	32098	
5528	0	32020	
5529	0	31976	
5530	0	32004	
5531	0	32008	
5532	0	31928	
5533	0	31996	
5534	0	32032	
5535	0	32104	
5536	0	32120	
5537	0	32072	
5538	0	32120	
5539	0	32188	
5540	0	32144	
5541	0	32036	
5542	0	32012	
5543	0	32060	
5544	0	32068	
5545	0	32032	
5546	0	32080	
5547	0	32200	
5548	0	32256	
5549	0	32212	
5550	0	32256	
5551	0	32256	
5552	0	32236	
5553	0	32268	
5554	0	32284	
5555	0	32272	
5556	0	32276	
5557	0	32282	
5558	0	32300	
5559	0	32320	
5560	0	32278	
5561	0	32244	
5562	0	32208	
5563	0	32200	
5564	0	32200	
5565	0	32212	
5566	0	32212	
5567	0	32248	
5568	0	32260	
5569	0	32248	
5570	0	32216	
5571	0	32176	
5572	0	32256	
5573	0	32216	
5574	0	32116	
5575	0	32168	
5576	0	32230	
5577	0	32288	
5578	0	32384	
5579	0	32424	
5580	0	32388	
5581	0	32376	
5582	0	32400	
5583	0	32408	
5584	0	32392	
5585	0	32376	
5586	0	32438	
5587	0	32506	
5588	0	32500	
5589	0	32496	
5590	0	32480	
5591	0	32468	
5592	0	32508	
5593	0	32512	
5594	0	32532	
5595	0	32560	
5596	0	32424	
5597	0	32416	
5598	0	32472	
5599	0	32516	
5600	0	32576	
5601	0	32624	
5602	0	32774	
5603	0	32896	
5604	0	33000	
5605	0	33116	
5606	0	33212	
5607	0	33336	
5608	0	33464	
5609	0	33616	
5610	0	33772	
5611	0	33840	
5612	0	33892	
5613	0	34008	
5614	0	34212	
5615	0	34408	
5616	0	34592	
5617	0	34744	
5618	0	34812	
5619	0	34900	
5620	0	34818	
5621	0	34628	
5622	0	34528	
5623	0	34484	
5624	0	34428	
5625	0	34280	
5626	0	34192	
5627	0	34228	
5628	0	34304	
5629	0	34476	
5630	0	34748	
5631	0	35060	
5632	0	35360	
5633	0	35736	
5634	0	36092	
5635	0	36400	
5636	0	36656	
5637	0	36836	
5638	0	36888	
5639	0	37052	
5640	0	37164	
5641	0	37164	
5642	0	37136	
5643	0	37076	
5644	0	36970	
5645	0	36888	
5646	0	36856	
5647	0	36800	
5648	0	36744	
5649	0	36732	
5650	0	36690	
5651	0	36528	
5652	0	36396	
5653	0	36320	
5654	0	36380	
5655	0	36404	
5656	0	36344	
5657	0	36248	
5658	0	36062	
5659	0	35976	
5660	0	35972	
5661	0	35876	
5662	0	35744	
5663	0	35640	
5664	0	35408	
5665	0	35096	
5666	0	34848	
5667	0	34640	
5668	0	34352	
5669	0	34004	
5670	0	33460	
5671	0	32968	
5672	0	32600	
5673	0	32256	
5674	0	31912	
5675	0	31664	
5676	0	31528	
5677	0	31388	
5678	0	31224	
5679	0	31112	
5680	0	30996	
5681	0	30948	
5682	0	30900	
5683	0	30904	
5684	0	30852	
5685	0	30744	
5686	0	30656	
5687	0	30544	
5688	0	30554	
5689	0	30552	
5690	0	30476	
5691	0	30404	
5692	0	30336	
5693	0	30328	
5694	0	30316	
5695	0	30364	
5696	0	30468	
5697	0	30528	
5698	0	30496	
5699	0	30457	
5700	0	30516	
5701	0	30528	
5702	0	30666	
5703	0	30760	
5704	0	30704	
5705	0	30640	
5706	0	30656	
5707	0	30640	
5708	0	30644	
5709	0	30664	
5710	0	30722	
5711	0	30752	
5712	0	30792	
5713	0	30856	
5714	0	30860	
5715	0	30872	
5716	0	30864	
5717	0	30840	
5718	0	30844	
5719	0	30892	
5720	0	30984	
5721	0	31028	
5722	0	30992	
5723	0	30996	
5724	0	30928	
5725	0	30768	
5726	0	30448	
5727	0	29868	
5728	0	29080	
5729	0	28216	
5730	0	27264	
5731	0	26292	
5732	0	25408	
5733	0	24652	
5734	0	24028	
5735	0	23616	
5736	0	23360	
5737	0	23336	
5738	0	23620	
5739	0	24136	
5740	0	24768	
5741	0	25544	
5742	0	26728	
5743	0	28456	
5744	0	30748	
5745	0	33384	
5746	0	36192	
5747	0	39280	
5748	0	42580	
5749	0	46200	
5750	0	50192	
5751	0	54304	
5752	0	58636	
5753	0	62276	
5754	0	64308	
5755	0	65376	
5756	0	65535	
5757	0	65535	
5758	0	65535	
5759	0	65535	
5760	0	65535	
5761	0	65535	
5762	0	65535	
5763	0	65535	
5764	0	62980	
5765	0	56320	
5766	0	50968	
5767	0	46704	
5768	0	42660	
5769	0	38660	
5770	0	35118	
5771	0	32088	
5772	0	29492	
5773	0	27212	
5774	0	25116	
5775	0	23172	
5776	0	21476	
5777	0	20096	
5778	0	18950	
5779	0	18056	
5780	0	17424	
5781	0	16956	
5782	0	16562	
5783	0	16204	
5784	0	15980	
5785	0	16044	
5786	0	16448	
5787	0	17104	
5788	0	17888	
5789	0	18516	
5790	0	19312	
5791	0	20152	
5792	0	20948	
5793	0	21712	
5794	0	22364	
5795	0	22992	
5796	0	23624	
5797	0	24244	
5798	0	24864	
5799	0	25464	
5800	0	26032	
5801	0	26564	
5802	0	27064	
5803	0	27500	
5804	0	27892	
5805	0	28244	
5806	0	28504	
5807	0	28704	
5808	0	28856	
5809	0	28996	
5810	0	29116	
5811	0	29176	
5812	0	29200	
5813	0	29288	
5814	0	29356	
5815	0	29456	
5816	0	29540	
5817	0	29568	
5818	0	29608	
5819	0	29652	
5820	0	29716	
5821	0	29822	
5822	0	29846	
5823	0	29928	
5824	0	30060	
5825	0	30160	
5826	0	30284	
5827	0	30360	
5828	0	30416	
5829	0	30464	
5830	0	30456	
5831	0	30516	
5832	0	30584	
5833	0	30648	
5834	0	30744	
5835	0	30792	
5836	0	30876	
5837	0	30960	
5838	0	30960	
5839	0	30972	
5840	0	30996	
5841	0	31064	
5842	0	31156	
5843	0	31212	
5844	0	31256	
5845	0	31304	
5846	0	31346	
5847	0	31330	
5848	0	31248	
5849	0	31344	
5850	0	31416	
5851	0	31464	
5852	0	31460	
5853	0	31442	
5854	0	31496	
5855	0	31542	
5856	0	31576	
5857	0	31664	
5858	0	31664	
5859	0	31640	
5860	0	31668	
5861	0	31736	
5862	0	31808	
5863	0	31868	
5864	0	31916	
5865	0	31968	
5866	0	32008	
5867	0	32032	
5868	0	32112	
5869	0	32210	
5870	0	32240	
5871	0	32260	
5872	0	32312	
5873	0	32368	
5874	0	32436	
5875	0	32480	
5876	0	32488	
5877	0	32544	
5878	0	32632	
5879	0	32680	
5880	0	32740	
5881	0	32796	
5882	0	32812	
5883	0	32820	
5884	0	32840	
5885	0	32832	
5886	0	32856	
5887	0	32848	
5888	0	32836	
5889	0	32872	
5890	0	32900	
5891	0	32908	
5892	0	32920	
5893	0	32900	
5894	0	32960	
5895	0	33068	
5896	0	33080	
5897	0	33024	
5898	0	33056	
5899	0	33128	
5900	0	33154	
5901	0	33160	
5902	0	33164	
5903	0	33220	
5904	0	33288	
5905	0	33336	
5906	0	33364	
5907	0	33412	
5908	0	33460	
5909	0	33504	
5910	0	33512	
5911	0	33552	
5912	0	33596	
5913	0	33604	
5914	0	33600	
5915	0	33640	
5916	0	33662	
5917	0	33672	
5918	0	33648	
5919	0	33592	
5920	0	33668	
5921	0	33746	
5922	0	33808	
5923	0	33812	
5924	0	33824	
5925	0	33808	
5926	0	33784	
5927	0	33764	
5928	0	33736	
5929	0	33778	
5930	0	33848	
5931	0	33888	
5932	0	33896	
5933	0	33896	
5934	0	33944	
5935	0	33956	
5936	0	33936	
5937	0	33896	
5938	0	33888	
5939	0	33952	
5940	0	33996	
5941	0	34016	
5942	0	34016	
5943	0	34020	
5944	0	33984	
5945	0	33940	
5946	0	33936	
5947	0	33948	
5948	0	33904	
5949	0	33872	
5950	0	33908	
5951	0	33944	
5952	0	33920	
5953	0	33908	
5954	0	33864	
5955	0	33868	
5956	0	33872	
5957	0	33888	
5958	0	33924	
5959	0	33952	
5960	0	33996	
5961	0	33964	
5962	0	33888	
5963	0	33856	
5964	0	33816	
5965	0	33824	
5966	0	33828	
5967	0	33824	
5968	0	33856	
5969	0	33876	
5970	0	33826	
5971	0	33756	
5972	0	33752	
5973	0	33772	
5974	0	33832	
5975	0	33896	
5976	0	33920	
5977	0	33898	
5978	0	33884	
5979	0	33868	
5980	0	33856	
5981	0	33820	
5982	0	33816	
5983	0	33872	
5984	0	33900	
5985	0	33920	
5986	0	33952	
5987	0	34000	
5988	0	34044	
5989	0	34084	
5990	0	34144	
5991	0	34164	
5992	0	34200	
5993	0	34284	
5994	0	34356	
5995	0	34360	
5996	0	34344	
5997	0	34386	
5998	0	34368	
5999	0	34404	
6000	0	34448	
6001	0	34460	
6002	0	34460	
6003	0	34432	
6004	0	34338	
6005	0	34264	
6006	0	34252	
6007	0	34228	
6008	0	34168	
6009	0	34104	
6010	0	34064	
6011	0	34020	
6012	0	33964	
6013	0	33876	
6014	0	33776	
6015	0	33632	
6016	0	33584	
6017	0	33544	
6018	0	33468	
6019	0	33450	
6020	0	33418	
6021	0	33416	
6022	0	33408	
6023	0	33392	
6024	0	33324	
6025	0	33272	
6026	0	33232	
6027	0	33164	
6028	0	33100	
6029	0	33064	
6030	0	33008	
6031	0	32948	
6032	0	32900	
6033	0	32908	
6034	0	32896	
6035	0	32864	
6036	0	32824	
6037	0	32808	
6038	0	32788	
6039	0	32748	
6040	0	32716	
6041	0	32648	
6042	0	32592	
6043	0	32560	
6044	0	32488	
6045	0	32424	
6046	0	32396	
6047	0	32360	
6048	0	32336	
6049	0	32304	
6050	0	32280	
6051	0	32248	
6052	0	32192	
6053	0	32188	
6054	0	32172	
6055	0	32096	
6056	0	32088	
6057	0	32048	
6058	0	32002	
6059	0	32020	
6060	0	32068	
6061	0	32092	
6062	0	32084	
6063	0	32076	
6064	0	32088	
6065	0	32092	
6066	0	32072	
6067	0	32048	
6068	0	32048	
6069	0	32040	
6070	0	32064	
6071	0	32100	
6072	0	32112	
6073	0	32152	
6074	0	32200	
6075	0	32272	
6076	0	32314	
6077	0	32292	
6078	0	32224	
6079	0	32200	
6080	0	32204	
6081	0	32192	
6082	0	32184	
6083	0	32204	
6084	0	32228	
6085	0	32208	
6086	0	32096	
6087	0	32110	
6088	0	32252	
6089	0	32336	
6090	0	32356	
6091	0	32394	
6092	0	32412	
6093	0	32420	
6094	0	32448	
6095	0	32524	
6096	0	32574	
6097	0	32604	
6098	0	32680	
6099	0	32684	
6100	0	32676	
6101	0	32660	
6102	0	32656	
6103	0	32696	
6104	0	32716	
6105	0	32736	
6106	0	32792	
6107	0	32784	
6108	0	32820	
6109	0	32816	
6110	0	32784	
6111	0	32784	
6112	0	32820	
6113	0	32828	
6114	0	32840	
6115	0	32832	
6116	0	32844	
6117	0	32872	
6118	0	32904	
6119	0	32916	
6120	0	32914	
6121	0	32920	
6122	0	32914	
6123	0	32880	
6124	0	32864	
6125	0	32884	
6126	0	32880	
6127	0	32952	
6128	0	33032	
6129	0	33084	
6130	0	33090	
6131	0	33144	
6132	0	33156	
6133	0	33184	
6134	0	33200	
6135	0	33196	
6136	0	33216	
6137	0	33264	
6138	0	33284	
6139	0	33278	
6140	0	33256	
6141	0	33292	
6142	0	33332	
6143	0	33348	
6144	0	33352	
6145	0	33346	
6146	0	33320	
6147	0	33312	
6148	0	33296	
6149	0	33268	
6150	0	33256	
6151	0	33216	
6152	0	33220	
6153	0	33220	
6154	0	33200	
6155	0	33208	
6156	0	33224	
6157	0	33184	
6158	0	33156	
6159	0	33160	
6160	0	33178	
6161	0	33220	
6162	0	33228	
6163	0	33164	
6164	0	33160	
6165	0	33212	
6166	0	33208	
6167	0	33188	
6168	0	33184	
6169	0	33176	
6170	0	33148	
6171	0	33096	
6172	0	33072	
6173	0	33080	
6174	0	33108	
6175	0	33108	
6176	0	33124	
6177	0	33088	
6178	0	33078	
6179	0	33048	
6180	0	33016	
6181	0	33032	
6182	0	33048	
6183	0	33056	
6184	0	33056	
6185	0	33048	
6186	0	33040	
6187	0	33012	
6188	0	33000	
6189	0	32966	
6190	0	32968	
6191	0	32932	
6192	0	32888	
6193	0	32872	
6194	0	32888	
6195	0	32872	
6196	0	32780	
6197	0	32705	
6198	0	32648	
6199	0	32620	
6200	0	32608	
6201	0	32616	
6202	0	32608	
6203	0	32628	
6204	0	32632	
6205	0	32648	
6206	0	32668	
6207	0	32680	
6208	0	32692	
6209	0	32648	
6210	0	32608	
6211	0	32592	
6212	0	32584	
6213	0	32592	
6214	0	32564	
6215	0	32564	
6216	0	32548	
6217	0	32528	
6218	0	32506	
6219	0	32456	
6220	0	32404	
6221	0	32400	
6222	0	32384	
6223	0	32376	
6224	0	32408	
6225	0	32380	
6226	0	32380	
6227	0	32416	
6228	0	32404	
6229	0	32420	
6230	0	32408	
6231	0	32410	
6232	0	32348	
6233	0	32296	
6234	0	32336	
6235	0	32360	
6236	0	32320	
6237	0	32304	
6238	0	32328	
6239	0	32360	
6240	0	32352	
6241	0	32346	
6242	0	32320	
6243	0	32304	
6244	0	32320	
6245	0	32304	
6246	0	32288	
6247	0	32280	
6248	0	32284	
6249	0	32312	
6250	0	32316	
6251	0	32324	
6252	0	32288	
6253	0	32256	
6254	0	32260	
6255	0	32272	
6256	0	32236	
6257	0	32168	
6258	0	32140	
6259	0	32136	
6260	0	32096	
6261	0	32068	
6262	0	32048	
6263	0	32060	
6264	0	32064	
6265	0	32056	
6266	0	32048	
6267	0	32062	
6268	0	32124	
6269	0	32184	
6270	0	32152	
6271	0	32130	
6272	0	32140	
6273	0	32156	
6274	0	32196	
6275	0	32210	
6276	0	32168	
6277	0	32096	
6278	0	32056	
6279	0	32072	
6280	0	32096	
6281	0	32104	
6282	0	32128	
6283	0	32136	
6284	0	32120	
6285	0	32140	
6286	0	32216	
6287	0	32272	
6288	0	32296	
6289	0	32288	
6290	0	32260	
6291	0	32224	
6292	0	32192	
6293	0	32136	
6294	0	32168	
6295	0	32196	
6296	0	32160	
6297	0	32136	
6298	0	32120	
6299	0	32120	
6300	0	32132	
6301	0	32136	
6302	0	32164	
6303	0	32176	
6304	0	32236	
6305	0	32284	
6306	0	32252	
6307	0	32266	
6308	0	32328	
6309	0	32388	
6310	0	32440	
6311	0	32456	
6312	0	32492	
6313	0	32472	
6314	0	32472	
6315	0	32440	
6316	0	32440	
6317	0	32436	
6318	0	32400	
6319	0	32416	
6320	0	32464	
6321	0	32504	
6322	0	32504	
6323	0	32492	
6324	0	32456	
6325	0	32452	
6326	0	32432	
6327	0	32380	
6328	0	32340	
6329	0	32306	
6330	0	32328	
6331	0	32332	
6332	0	32336	
6333	0	32352	
6334	0	32336	
6335	0	32336	
6336	0	32340	
6337	0	32352	
6338	0	32388	
6339	0	32428	
6340	0	32440	
6341	0	32464	
6342	0	32492	
6343	0	32488	
6344	0	32492	
6345	0	32492	
6346	0	32480	
6347	0	32460	
6348	0	32440	
6349	0	32412	
6350	0	32412	
6351	0	32408	
6352	0	32442	
6353	0	32468	
6354	0	32504	
6355	0	32528	
6356	0	32572	
6357	0	32604	
6358	0	32628	
6359	0	32636	
6360	0	32668	
6361	0	32672	
6362	0	32648	
6363	0	32644	
6364	0	32624	
6365	0	32608	
6366	0	32584	
6367	0	32580	
6368	0	32576	
6369	0	32564	
6370	0	32548	
6371	0	32560	
6372	0	32562	
6373	0	32552	
6374	0	32528	
6375	0	32524	
6376	0	32536	
6377	0	32496	
6378	0	32464	
6379	0	32460	
6380	0	32444	
6381	0	32428	
6382	0	32436	
6383	0	32456	
6384	0	32436	
6385	0	32394	
6386	0	32392	
6387	0	32404	
6388	0	32436	
6389	0	32436	
6390	0	32448	
6391	0	32472	
6392	0	32528	
6393	0	32572	
6394	0	32568	
6395	0	32540	
6396	0	32490	
6397	0	32464	
6398	0	32424	
6399	0	32412	
6400	0	32424	
6401	0	32464	
6402	0	32440	
6403	0	32426	
6404	0	32444	
6405	0	32482	
6406	0	32544	
6407	0	32592	
6408	0	32604	
6409	0	32600	
6410	0	32652	
6411	0	32712	
6412	0	32740	
6413	0	32732	
6414	0	32688	
6415	0	32580	
6416	0	32458	
6417	0	32380	
6418	0	32352	
6419	0	32328	
6420	0	32332	
6421	0	32348	
6422	0	32394	
6423	0	32412	
6424	0	32424	
6425	0	32428	
6426	0	32428	
6427	0	32420	
6428	0	32400	
6429	0	32376	
6430	0	32344	
6431	0	32388	
6432	0	32480	
6433	0	32524	
6434	0	32540	
6435	0	32592	
6436	0	32652	
6437	0	32778	
6438	0	32940	
6439	0	33108	
6440	0	33272	
6441	0	33468	
6442	0	33592	
6443	0	33696	
6444	0	33844	
6445	0	33992	
6446	0	34120	
6447	0	34242	
6448	0	34362	
6449	0	34448	
6450	0	34520	
6451	0	34532	
6452	0	34504	
6453	0	34432	
6454	0	34320	
6455	0	34240	
6456	0	34148	
6457	0	34096	
6458	0	34088	
6459	0	34224	
6460	0	34420	
6461	0	34652	
6462	0	34940	
6463	0	35264	
6464	0	35584	
6465	0	35892	
6466	0	36232	
6467	0	36552	
6468	0	36780	
6469	0	36980	
6470	0	37136	
6471	0	37180	
6472	0	37200	
6473	0	37244	
6474	0	37232	
6475	0	37164	
6476	0	37028	
6477	0	36928	
6478	0	36880	
6479	0	36828	
6480	0	36744	
6481	0	36704	
6482	0	36620	
6483	0	36512	
6484	0	36426	
6485	0	36408	
6486	0	36392	
6487	0	36376	
6488	0	36340	
6489	0	36288	
6490	0	36244	
6491	0	36152	
6492	0	36032	
6493	0	35892	
6494	0	35738	
6495	0	35578	
6496	0	35380	
6497	0	35152	
6498	0	34862	
6499	0	34572	
6500	0	34264	
6501	0	33896	
6502	0	33496	
6503	0	33068	
6504	0	32684	
6505	0	32300	
6506	0	31924	
6507	0	31652	
6508	0	31508	
6509	0	31408	
6510	0	31360	
6511	0	31324	
6512	0	31276	
6513	0	31224	
6514	0	31168	
6515	0	31116	
6516	0	31036	
6517	0	30944	
6518	0	30876	
6519	0	30824	
6520	0	30784	
6521	0	30744	
6522	0	30696	
6523	0	30648	
6524	0	30618	
6525	0	30652	
6526	0	30704	
6527	0	30720	
6528	0	30716	
6529	0	30700	
6530	0	30716	
6531	0	30744	
6532	0	30784	
6533	0	30852	
6534	0	30908	
6535	0	30976	
6536	0	30996	
6537	0	31016	
6538	0	31040	
6539	0	31056	
6540	0	31080	
6541	0	31100	
6542	0	31076	
6543	0	31056	
6544	0	31048	
6545	0	31032	
6546	0	31000	
6547	0	31000	
6548	0	31024	
6549	0	31000	
6550	0	30984	
6551	0	30956	
6552	0	30992	
6553	0	31032	
6554	0	30996	
6555	0	30900	
6556	0	30816	
6557	0	30656	
6558	0	30338	
6559	0	29748	
6560	0	28944	
6561	0	28036	
6562	0	27080	
6563	0	26080	
6564	0	25152	
6565	0	24384	
6566	0	23840	
6567	0	23504	
6568	0	23288	
6569	0	23392	
6570	0	23816	
6571	0	24448	
6572	0	25232	
6573	0	26176	
6574	0	27564	
6575	0	29548	
6576	0	31952	
6577	0	34626	
6578	0	37504	
6579	0	40624	
6580	0	44008	
6581	0	47736	
6582	0	51688	
6583	0	55820	
6584	0	60000	
6585	0	63068	
6586	0	64712	
6587	0	65535	
6588	0	65535	
6589	0	65535	
6590	0	65535	
6591	0	65535	
6592	0	65535	
6593	0	65535	
6594	0	65535	
6595	0	65535	
6596	0	60656	
6597	0	54444	
6598	0	49424	
6599	0	45056	
6600	0	40896	
6601	0	37100	
6602	0	33972	
6603	0	31336	
6604	0	29028	
6605	0	26848	
6606	0	24832	
6607	0	22988	
6608	0	21356	
6609	0	20016	
6610	0	18828	
6611	0	17890	
6612	0	17268	
6613	0	16816	
6614	0	16416	
6615	0	16060	
6616	0	15842	
6617	0	15900	
6618	0	16364	
6619	0	17000	
6620	0	17728	
6621	0	18492	
6622	0	19240	
6623	0	20040	
6624	0	20772	
6625	0	21460	
6626	0	22144	
6627	0	22848	
6628	0	23552	
6629	0	24220	
6630	0	24860	
6631	0	25524	
6632	0	26146	
6633	0	26672	
6634	0	27108	
6635	0	27496	
6636	0	27840	
6637	0	28188	
6638	0	28484	
6639	0	28732	
6640	0	28960	
6641	0	29192	
6642	0	29296	
6643	0	29360	
6644	0	29452	
6645	0	29524	
6646	0	29594	
6647	0	29648	
6648	0	29682	
6649	0	29692	
6650	0	29740	
6651	0	29796	
6652	0	29864	
6653	0	30004	
6654	0	30108	
6655	0	30144	
6656	0	30216	
6657	0	30320	
6658	0	30416	
6659	0	30480	
6660	0	30540	
6661	0	30628	
6662	0	30712	
6663	0	30796	
6664	0	30868	
6665	0	30898	
6666	0	30914	
6667	0	30952	
6668	0	31052	
6669	0	31136	
6670	0	31172	
6671	0	31214	
6672	0	31260	
6673	0	31312	
6674	0	31356	
6675	0	31368	
6676	0	31420	
6677	0	31500	
6678	0	31556	
6679	0	31616	
6680	0	31632	
6681	0	31648	
6682	0	31664	
6683	0	31706	
6684	0	31700	
6685	0	31714	
6686	0	31752	
6687	0	31788	
6688	0	31816	
6689	0	31848	
6690	0	31884	
6691	0	31904	
6692	0	31948	
6693	0	32004	
6694	0	32060	
6695	0	32084	
6696	0	32100	
6697	0	32124	
6698	0	32184	
6699	0	32232	
6700	0	32256	
6701	0	32248	
6702	0	32252	
6703	0	32282	
6704	0	32320	
6705	0	32360	
6706	0	32368	
6707	0	32428	
6708	0	32480	
6709	0	32528	
6710	0	32564	
6711	0	32564	
6712	0	32608	
6713	0	32656	
6714	0	32632	
6715	0	32644	
6716	0	32640	
6717	0	32658	
6718	0	32700	
6719	0	32698	
6720	0	32724	
6721	0	32724	
6722	0	32738	
6723	0	32760	
6724	0	32788	
6725	0	32816	
6726	0	32876	
6727	0	32940	
6728	0	32960	
6729	0	33028	
6730	0	33092	
6731	0	33112	
6732	0	33134	
6733	0	33144	
6734	0	33172	
6735	0	33232	
6736	0	33324	
6737	0	33396	
6738	0	33448	
6739	0	33484	
6740	0	33556	
6741	0	33588	
6742	0	33592	
6743	0	33644	
6744	0	33676	
6745	0	33716	
6746	0	33736	
6747	0	33748	
6748	0	33752	
6749	0	33736	
6750	0	33760	
6751	0	33796	
6752	0	33824	
6753	0	33872	
6754	0	33868	
6755	0	33856	
6756	0	33860	
6757	0	33880	
6758	0	33932	
6759	0	33980	
6760	0	34016	
6761	0	34000	
6762	0	34024	
6763	0	34080	
6764	0	34056	
6765	0	34032	
6766	0	34036	
6767	0	34036	
6768	0	34040	
6769	0	34072	
6770	0	34064	
6771	0	34064	
6772	0	34048	
6773	0	34024	
6774	0	34028	
6775	0	34064	
6776	0	34128	
6777	0	34176	
6778	0	34176	
6779	0	34180	
6780	0	34176	
6781	0	34144	
6782	0	34172	
6783	0	34200	
6784	0	34192	
6785	0	34220	
6786	0	34212	
6787	0	34208	
6788	0	34188	
6789	0	34196	
6790	0	34196	
6791	0	34188	
6792	0	34184	
6793	0	34210	
6794	0	34220	
6795	0	34212	
6796	0	34228	
6797	0	34276	
6798	0	34312	
6799	0	34330	
6800	0	34320	
6801	0	34282	
6802	0	34248	
6803	0	34250	
6804	0	34300	
6805	0	34292	
6806	0	34252	
6807	0	34224	
6808	0	34232	
6809	0	34252	
6810	0	34276	
6811	0	34272	
6812	0	34280	
6813	0	34310	
6814	0	34348	
6815	0	34320	
6816	0	34332	
6817	0	34332	
6818	0	34352	
6819	0	34432	
6820	0	34472	
6821	0	34508	
6822	0	34512	
6823	0	34532	
6824	0	34536	
6825	0	34536	
6826	0	34528	
6827	0	34528	
6828	0	34570	
6829	0	34576	
6830	0	34556	
6831	0	34544	
6832	0	34560	
6833	0	34564	
6834	0	34592	
6835	0	34596	
6836	0	34540	
6837	0	34460	
6838	0	34372	
6839	0	34320	
6840	0	34288	
6841	0	34248	
6842	0	34212	
6843	0	34142	
6844	0	34056	
6845	0	33960	
6846	0	33856	
6847	0	33812	
6848	0	33768	
6849	0	33728	
6850	0	33696	
6851	0	33620	
6852	0	33584	
6853	0	33512	
6854	0	33408	
6855	0	33276	
6856	0	33164	
6857	0	33092	
6858	0	33033	
6859	0	33026	
6860	0	33004	
6861	0	32978	
6862	0	32960	
6863	0	32928	
6864	0	32888	
6865	0	32824	
6866	0	32792	
6867	0	32782	
6868	0	32752	
6869	0	32688	
6870	0	32608	
6871	0	32532	
6872	0	32464	
6873	0	32440	
6874	0	32410	
6875	0	32376	
6876	0	32340	
6877	0	32280	
6878	0	32204	
6879	0	32148	
6880	0	32120	
6881	0	32124	
6882	0	32088	
6883	0	32080	
6884	0	32096	
6885	0	32028	
6886	0	31948	
6887	0	31894	
6888	0	31872	
6889	0	31864	
6890	0	31888	
6891	0	31884	
6892	0	31840	
6893	0	31808	
6894	0	31804	
6895	0	31816	
6896	0	31840	
6897	0	31832	
6898	0	31820	
6899	0	31784	
6900	0	31736	
6901	0	31688	
6902	0	31678	
6903	0	31648	
6904	0	31676	
6905	0	31680	
6906	0	31696	
6907	0	31696	
6908	0	31712	
6909	0	31732	
6910	0	31752	
6911	0	31782	
6912	0	31832	
6913	0	31848	
6914	0	31836	
6915	0	31848	
6916	0	31860	
6917	0	31904	
6918	0	31908	
6919	0	31904	
6920	0	31904	
6921	0	31916	
6922	0	31920	
6923	0	31912	
6924	0	31944	
6925	0	31984	
6926	0	31988	
6927	0	32020	
6928	0	32120	
6929	0	32204	
6930	0	32248	
6931	0	32266	
6932	0	32304	
6933	0	32290	
6934	0	32312	
6935	0	32356	
6936	0	32412	
6937	0	32442	
6938	0	32468	
6939	0	32492	
6940	0	32480	
6941	0	32508	
6942	0	32524	
6943	0	32544	
6944	0	32540	
6945	0	32576	
6946	0	32612	
6947	0	32656	
6948	0	32680	
6949	0	32706	
6950	0	32708	
6951	0	32680	
6952	0	32644	
6953	0	32636	
6954	0	32684	
6955	0	32740	
6956	0	32776	
6957	0	32808	
6958	0	32852	
6959	0	32904	
6960	0	32944	
6961	0	32952	
6962	0	32964	
6963	0	32948	
6964	0	32892	
6965	0	32896	
6966	0	32914	
6967	0	32940	
6968	0	32972	
6969	0	33044	
6970	0	33118	
6971	0	33160	
6972	0	33168	
6973	0	33112	
6974	0	33084	
6975	0	33082	
6976	0	33080	
6977	0	33104	
6978	0	33088	
6979	0	33080	
6980	0	33096	
6981	0	33100	
6982	0	33120	
6983	0	33108	
6984	0	33096	
6985	0	33120	
6986	0	33160	
6987	0	33200	
6988	0	33240	
6989	0	33280	
6990	0	33292	
6991	0	33308	
6992	0	33268	
6993	0	33276	
6994	0	33288	
6995	0	33300	
6996	0	33320	
6997	0	33352	
6998	0	33348	
6999	0	33356	
7000	0	33324	
7001	0	33292	
7002	0	33250	
7003	0	33256	
7004	0	33248	
7005	0	33210	
7006	0	33164	
7007	0	33132	
7008	0	33168	
7009	0	33208	
7010	0	33216	
7011	0	33216	
7012	0	33232	
7013	0	33184	
7014	0	33156	
7015	0	33124	
7016	0	33136	
7017	0	33120	
7018	0	33104	
7019	0	33088	
7020	0	33088	
7021	0	33124	
7022	0	33156	
7023	0	33112	
7024	0	33116	
7025	0	33096	
7026	0	33080	
7027	0	33002	
7028	0	32948	
7029	0	32892	
7030	0	32884	
7031	0	32892	
7032	0	32896	
7033	0	32876	
7034	0	32868	
7035	0	32850	
7036	0	32836	
7037	0	32844	
7038	0	32858	
7039	0	32848	
7040	0	32824	
7041	0	32776	
7042	0	32732	
7043	0	32700	
7044	0	32688	
7045	0	32690	
7046	0	32668	
7047	0	32648	
7048	0	32656	
7049	0	32620	
7050	0	32592	
7051	0	32568	
7052	0	32540	
7053	0	32496	
7054	0	32432	
7055	0	32440	
7056	0	32488	
7057	0	32512	
7058	0	32532	
7059	0	32540	
7060	0	32546	
7061	0	32544	
7062	0	32560	
7063	0	32544	
7064	0	32508	
7065	0	32480	
7066	0	32476	
7067	0	32464	
7068	0	32448	
7069	0	32376	
7070	0	32312	
7071	0	32268	
7072	0	32276	
7073	0	32324	
7074	0	32380	
7075	0	32414	
7076	0	32464	
7077	0	32480	
7078	0	32476	
7079	0	32440	
7080	0	32384	
7081	0	32346	
7082	0	32336	
7083	0	32384	
7084	0	32424	
7085	0	32436	
7086	0	32428	
7087	0	32396	
7088	0	32386	
7089	0	32364	
7090	0	32304	
7091	0	32244	
7092	0	32216	
7093	0	32224	
7094	0	32212	
7095	0	32176	
7096	0	32176	
7097	0	32180	
7098	0	32204	
7099	0	32216	
7100	0	32228	
7101	0	32236	
7102	0	32280	
7103	0	32308	
7104	0	32292	
7105	0	32248	
7106	0	32220	
7107	0	32184	
7108	0	32152	
7109	0	32108	
7110	0	32112	
7111	0	32104	
7112	0	32132	
7113	0	32184	
7114	0	32216	
7115	0	32208	
7116	0	32192	
7117	0	32180	
7118	0	32192	
7119	0	32188	
7120	0	32156	
7121	0	32128	
7122	0	32120	
7123	0	32124	
7124	0	32160	
7125	0	32164	
7126	0	32160	
7127	0	32180	
7128	0	32140	
7129	0	32088	
7130	0	32094	
7131	0	32140	
7132	0	32172	
7133	0	32212	
7134	0	32240	
7135	0	32264	
7136	0	32256	
7137	0	32266	
7138	0	32302	
7139	0	32314	
7140	0	32280	
7141	0	32304	
7142	0	32316	
7143	0	32296	
7144	0	32252	
7145	0	32236	
7146	0	32244	
7147	0	32256	
7148	0	32248	
7149	0	32232	
7150	0	32232	
7151	0	32212	
7152	0	32212	
7153	0	32228	
7154	0	32232	
7155	0	32220	
7156	0	32204	
7157	0	32212	
7158	0	32252	
7159	0	32280	
7160	0	32320	
7161	0	32332	
7162	0	32332	
7163	0	32344	
7164	0	32340	
7165	0	32316	
7166	0	32304	
7167	0	32312	
7168	0	32332	
7169	0	32340	
7170	0	32356	
7171	0	32376	
7172	0	32372	
7173	0	32340	
7174	0	32300	
7175	0	32220	
7176	0	32244	
7177	0	32300	
7178	0	32346	
7179	0	32376	
7180	0	32380	
7181	0	32408	
7182	0	32448	
7183	0	32440	
7184	0	32388	
7185	0	32364	
7186	0	32352	
7187	0	32336	
7188	0	32324	
7189	0	32336	
7190	0	32344	
7191	0	32356	
7192	0	32372	
7193	0	32392	
7194	0	32372	
7195	0	32356	
7196	0	32328	
7197	0	32268	
7198	0	32268	
7199	0	32332	
7200	0	32312	
7201	0	32240	
7202	0	32212	
7203	0	32204	
7204	0	32204	
7205	0	32198	
7206	0	32198	
7207	0	32224	
7208	0	32268	
7209	0	32312	
7210	0	32340	
7211	0	32352	
7212	0	32372	
7213	0	32388	
7214	0	32384	
7215	0	32388	
7216	0	32380	
7217	0	32368	
7218	0	32388	
7219	0	32476	
7220	0	32500	
7221	0	32508	
7222	0	32504	
7223	0	32492	
7224	0	32444	
7225	0	32412	
7226	0	32428	
7227	0	32440	
7228	0	32432	
7229	0	32408	
7230	0	32416	
7231	0	32414	
7232	0	32436	
7233	0	32472	
7234	0	32492	
7235	0	32504	
7236	0	32516	
7237	0	32500	
7238	0	32544	
7239	0	32608	
7240	0	32636	
7241	0	32612	
7242	0	32584	
7243	0	32592	
7244	0	32556	
7245	0	32588	
7246	0	32616	
7247	0	32676	
7248	0	32700	
7249	0	32756	
7250	0	32808	
7251	0	32808	
7252	0	32864	
7253	0	33016	
7254	0	33184	
7255	0	33312	
7256	0	33456	
7257	0	33624	
7258	0	33752	
7259	0	33876	
7260	0	34036	
7261	0	34212	
7262	0	34360	
7263	0	34456	
7264	0	34540	
7265	0	34588	
7266	0	34610	
7267	0	34640	
7268	0	34576	
7269	0	34528	
7270	0	34480	
7271	0	34432	
7272	0	34356	
7273	0	34304	
7274	0	34256	
7275	0	34252	
7276	0	34338	
7277	0	34516	
7278	0	34784	
7279	0	35104	
7280	0	35420	
7281	0	35732	
7282	0	36040	
7283	0	36348	
7284	0	36612	
7285	0	36796	
7286	0	36914	
7287	0	37040	
7288	0	37080	
7289	0	37080	
7290	0	37036	
7291	0	37020	
7292	0	36988	
7293	0	36940	
7294	0	36894	
7295	0	36824	
7296	0	36756	
7297	0	36688	
7298	0	36600	
7299	0	36472	
7300	0	36400	
7301	0	36384	
7302	0	36444	
7303	0	36432	
7304	0	36372	
7305	0	36296	
7306	0	36224	
7307	0	36160	
7308	0	36072	
7309	0	35952	
7310	0	35802	
7311	0	35636	
7312	0	35412	
7313	0	35136	
7314	0	34864	
7315	0	34538	
7316	0	34196	
7317	0	33856	
7318	0	33480	
7319	0	33068	
7320	0	32688	
7321	0	32344	
7322	0	32056	
7323	0	31844	
7324	0	31664	
7325	0	31516	
7326	0	31404	
7327	0	31280	
7328	0	31202	
7329	0	31168	
7330	0	31100	
7331	0	30976	
7332	0	30844	
7333	0	30728	
7334	0	30628	
7335	0	30588	
7336	0	30552	
7337	0	30544	
7338	0	30524	
7339	0	30472	
7340	0	30452	
7341	0	30452	
7342	0	30460	
7343	0	30460	
7344	0	30464	
7345	0	30504	
7346	0	30528	
7347	0	30504	
7348	0	30500	
7349	0	30512	
7350	0	30536	
7351	0	30564	
7352	0	30628	
7353	0	30696	
7354	0	30704	
7355	0	30690	
7356	0	30664	
7357	0	30636	
7358	0	30648	
7359	0	30644	
7360	0	30664	
7361	0	30704	
7362	0	30720	
7363	0	30712	
7364	0	30712	
7365	0	30688	
7366	0	30672	
7367	0	30680	
7368	0	30732	
7369	0	30784	
7370	0	30812	
7371	0	30768	
7372	0	30704	
7373	0	30576	
7374	0	30272	
7375	0	29716	
7376	0	28944	
7377	0	28048	
7378	0	27082	
7379	0	26136	
7380	0	25258	
7381	0	24540	
7382	0	24030	
7383	0	23724	
7384	0	23572	
7385	0	23690	
7386	0	24072	
7387	0	24672	
7388	0	25432	
7389	0	26384	
7390	0	27780	
7391	0	29724	
7392	0	32120	
7393	0	34776	
7394	0	37600	
7395	0	40660	
7396	0	44000	
7397	0	47736	
7398	0	51696	
7399	0	55836	
7400	0	60008	
7401	0	63056	
7402	0	64704	
7403	0	65520	
7404	0	65535	
7405	0	65535	
7406	0	65535	
7407	0	65535	
7408	0	65535	
7409	0	65535	
7410	0	65535	
7411	0	65535	
7412	0	60856	
7413	0	54560	
7414	0	49432	
7415	0	45072	
7416	0	40956	
7417	0	37056	
7418	0	33772	
7419	0	31016	
7420	0	28640	
7421	0	26420	
7422	0	24332	
7423	0	22432	
7424	0	20798	
7425	0	19452	
7426	0	18320	
7427	0	17468	
7428	0	16922	
7429	0	16538	
7430	0	16170	
7431	0	15834	
7432	0	15682	
7433	0	15824	
7434	0	16316	
7435	0	16934	
7436	0	17664	
7437	0	18394	
7438	0	19160	
7439	0	19956	
7440	0	20724	
7441	0	21484	
7442	0	22200	
7443	0	22880	
7444	0	23524	
7445	0	24140	
7446	0	24788	
7447	0	25420	
7448	0	26018	
7449	0	26612	
7450	0	27100	
7451	0	27520	
7452	0	27888	
7453	0	28200	
7454	0	28492	
7455	0	28728	
7456	0	28940	
7457	0	29088	
7458	0	29200	
7459	0	29304	
7460	0	29392	
7461	0	29472	
7462	0	29520	
7463	0	29632	
7464	0	29740	
7465	0	29824	
7466	0	29888	
7467	0	29912	
7468	0	29968	
7469	0	30016	
7470	0	30100	
7471	0	30184	
7472	0	30272	
7473	0	30340	
7474	0	30444	
7475	0	30548	
7476	0	30604	
7477	0	30624	
7478	0	30668	
7479	0	30744	
7480	0	30840	
7481	0	30916	
7482	0	30980	
7483	0	31028	
7484	0	31052	
7485	0	31076	
7486	0	31144	
7487	0	31220	
7488	0	31264	
7489	0	31312	
7490	0	31388	
7491	0	31420	
7492	0	31440	
7493	0	31460	
7494	0	31492	
7495	0	31516	
7496	0	31560	
7497	0	31604	
7498	0	31644	
7499	0	31676	
7500	0	31724	
7501	0	31736	
7502	0	31714	
7503	0	31722	
7504	0	31736	
7505	0	31764	
7506	0	31788	
7507	0	31792	
7508	0	31824	
7509	0	31910	
7510	0	31984	
7511	0	32048	
7512	0	32068	
7513	0	32112	
7514	0	32132	
7515	0	32154	
7516	0	32168	
7517	0	32212	
7518	0	32296	
7519	0	32362	
7520	0	32404	
7521	0	32460	
7522	0	32492	
7523	0	32512	
7524	0	32524	
7525	0	32538	
7526	0	32568	
7527	0	32632	
7528	0	32664	
7529	0	32696	
7530	0	32748	
7531	0	32772	
7532	0	32780	
7533	0	32812	
7534	0	32832	
7535	0	32892	
7536	0	32912	
7537	0	32926	
7538	0	32984	
7539	0	33004	
7540	0	32996	
7541	0	33012	
7542	0	33044	
7543	0	33092	
7544	0	33132	
7545	0	33156	
7546	0	33200	
7547	0	33252	
7548	0	33276	
7549	0	33300	
7550	0	33334	
7551	0	33360	
7552	0	33392	
7553	0	33456	
7554	0	33456	
7555	0	33488	
7556	0	33550	
7557	0	33584	
7558	0	33572	
7559	0	33580	
7560	0	33592	
7561	0	33604	
7562	0	33640	
7563	0	33688	
7564	0	33728	
7565	0	33780	
7566	0	33856	
7567	0	33874	
7568	0	33884	
7569	0	33876	
7570	0	33888	
7571	0	33960	
7572	0	34000	
7573	0	34044	
7574	0	34072	
7575	0	34112	
7576	0	34128	
7577	0	34148	
7578	0	34136	
7579	0	34108	
7580	0	34160	
7581	0	34160	
7582	0	34144	
7583	0	34148	
7584	0	34172	
7585	0	34196	
7586	0	34176	
7587	0	34160	
7588	0	34172	
7589	0	34204	
7590	0	34228	
7591	0	34272	
7592	0	34264	
7593	0	34264	
7594	0	34264	
7595	0	34284	
7596	0	34304	
7597	0	34324	
7598	0	34312	
7599	0	34332	
7600	0	34392	
7601	0	34444	
7602	0	34480	
7603	0	34512	
7604	0	34552	
7605	0	34580	
7606	0	34604	
7607	0	34646	
7608	0	34648	
7609	0	34600	
7610	0	34520	
7611	0	34488	
7612	0	34516	
7613	0	34532	
7614	0	34548	
7615	0	34572	
7616	0	34568	
7617	0	34504	
7618	0	34448	
7619	0	34464	
7620	0	34496	
7621	0	34496	
7622	0	34484	
7623	0	34484	
7624	0	34520	
7625	0	34546	
7626	0	34554	
7627	0	34536	
7628	0	34522	
7629	0	34548	
7630	0	34584	
7631	0	34632	
7632	0	34672	
7633	0	34656	
7634	0	34664	
7635	0	34680	
7636	0	34632	
7637	0	34608	
7638	0	34668	
7639	0	34752	
7640	0	34816	
7641	0	34848	
7642	0	34856	
7643	0	34818	
7644	0	34764	
7645	0	34768	
7646	0	34810	
7647	0	34836	
7648	0	34836	
7649	0	34828	
7650	0	34764	
7651	0	34672	
7652	0	34532	
7653	0	34456	
7654	0	34432	
7655	0	34412	
7656	0	34312	
7657	0	34160	
7658	0	34016	
7659	0	33964	
7660	0	34020	
7661	0	34024	
7662	0	33996	
7663	0	33920	
7664	0	33824	
7665	0	33784	
7666	0	33660	
7667	0	33572	
7668	0	33524	
7669	0	33440	
7670	0	33376	
7671	0	33332	
7672	0	33212	
7673	0	33138	
7674	0	33080	
7675	0	33032	
7676	0	33020	
7677	0	33008	
7678	0	32952	
7679	0	32884	
7680	0	32776	
7681	0	32688	
7682	0	32708	
7683	0	32700	
7684	0	32664	
7685	0	32632	
7686	0	32581	
7687	0	32516	
7688	0	32400	
7689	0	32204	
7690	0	32164	
7691	0	32224	
7692	0	32300	
7693	0	32324	
7694	0	32216	
7695	0	32128	
7696	0	32160	
7697	0	32120	
7698	0	32020	
7699	0	31936	
7700	0	31872	
7701	0	31900	
7702	0	31840	
7703	0	31812	
7704	0	31864	
7705	0	31834	
7706	0	31808	
7707	0	31800	
7708	0	31748	
7709	0	31748	
7710	0	31804	
7711	0	31864	
7712	0	31956	
7713	0	31864	
7714	0	31824	
7715	0	31732	
7716	0	31572	
7717	0	31488	
7718	0	31548	
7719	0	31628	
7720	0	31602	
7721	0	31664	
7722	0	31586	
7723	0	31492	
7724	0	31472	
7725	0	31532	
7726	0	31572	
7727	0	31564	
7728	0	31604	
7729	0	31572	
7730	0	31638	
7731	0	31690	
7732	0	31624	
7733	0	31692	
7734	0	31800	
7735	0	31848	
7736	0	31856	
7737	0	31816	
7738	0	31832	
7739	0	31888	
7740	0	31932	
7741	0	31940	
7742	0	31924	
7743	0	31988	
7744	0	32020	
7745	0	31984	
7746	0	32052	
7747	0	32116	
7748	0	32100	
7749	0	32048	
7750	0	32008	
7751	0	31944	
7752	0	31968	
7753	0	32056	
7754	0	32132	
7755	0	32140	
7756	0	32284	
7757	0	32376	
7758	0	32284	
7759	0	32197	
7760	0	32320	
7761	0	32344	
7762	0	32280	
7763	0	32200	
7764	0	32268	
7765	0	32384	
7766	0	32360	
7767	0	32428	
7768	0	32464	
7769	0	32444	
7770	0	32460	
7771	0	32440	
7772	0	32448	
7773	0	32640	
7774	0	32660	
7775	0	32672	
7776	0	32736	
7777	0	32848	
7778	0	32976	
7779	0	32964	
7780	0	32928	
7781	0	32820	
7782	0	32700	
7783	0	32652	
7784	0	32588	
7785	0	32684	
7786	0	32800	
7787	0	33012	
7788	0	33128	
7789	0	33168	
7790	0	33120	
7791	0	33064	
7792	0	33108	
7793	0	33164	
7794	0	33104	
7795	0	33092	
7796	0	33040	
7797	0	33076	
7798	0	33200	
7799	0	33204	
7800	0	33220	
7801	0	33316	
7802	0	33304	
7803	0	33312	
7804	0	33344	
7805	0	33316	
7806	0	33324	
7807	0	33380	
7808	0	33298	
7809	0	33072	
7810	0	32904	
7811	0	32864	
7812	0	32942	
7813	0	33062	
7814	0	33036	
7815	0	33016	
7816	0	33180	
7817	0	33232	
7818	0	33204	
7819	0	33188	
7820	0	33120	
7821	0	33208	
7822	0	33272	
7823	0	33250	
7824	0	33232	
7825	0	33384	
7826	0	33492	
7827	0	33444	
7828	0	33320	
7829	0	33288	
7830	0	33212	
7831	0	33168	
7832	0	33172	
7833	0	33116	
7834	0	33000	
7835	0	32908	
7836	0	32880	
7837	0	32892	
7838	0	32840	
7839	0	32752	
7840	0	32680	
7841	0	32620	
7842	0	32672	
7843	0	32700	
7844	0	32744	
7845	0	32760	
7846	0	32784	
7847	0	32856	
7848	0	32848	
7849	0	32796	
7850	0	32740	
7851	0	32684	
7852	0	32698	
7853	0	32720	
7854	0	32672	
7855	0	32632	
7856	0	32626	
7857	0	32620	
7858	0	32644	
7859	0	32668	
7860	0	32668	
7861	0	32632	
7862	0	32588	
7863	0	32480	
7864	0	32396	
7865	0	32384	
7866	0	32400	
7867	0	32428	
7868	0	32260	
7869	0	32260	
7870	0	32304	
7871	0	32366	
7872	0	32416	
7873	0	32372	
7874	0	32416	
7875	0	32436	
7876	0	32432	
7877	0	32560	
7878	0	32626	
7879	0	32636	
7880	0	32654	
7881	0	32632	
7882	0	32608	
7883	0	32572	
7884	0	32480	
7885	0	32400	
7886	0	32346	
7887	0	32244	
7888	0	32236	
7889	0	32264	
7890	0	32232	
7891	0	32312	
7892	0	32352	
7893	0	32392	
7894	0	32428	
7895	0	32464	
7896	0	32488	
7897	0	32452	
7898	0	32428	
7899	0	32396	
7900	0	32408	
7901	0	32420	
7902	0	32368	
7903	0	32308	
7904	0	32344	
7905	0	32348	
7906	0	32386	
7907	0	32424	
7908	0	32432	
7909	0	32424	
7910	0	32448	
7911	0	32452	
7912	0	32400	
7913	0	32392	
7914	0	32324	
7915	0	32272	
7916	0	32272	
7917	0	32380	
7918	0	32484	
7919	0	32468	
7920	0	32488	
7921	0	32480	
7922	0	32424	
7923	0	32396	
7924	0	32432	
7925	0	32464	
7926	0	32524	
7927	0	32552	
7928	0	32548	
7929	0	32460	
7930	0	32328	
7931	0	32276	
7932	0	32360	
7933	0	32392	
7934	0	32372	
7935	0	32360	
7936	0	32380	
7937	0	32440	
7938	0	32484	
7939	0	32528	
7940	0	32456	
7941	0	32288	
7942	0	32204	
7943	0	32160	
7944	0	32204	
7945	0	32256	
7946	0	32272	
7947	0	32368	
7948	0	32384	
7949	0	32244	
7950	0	32200	
7951	0	32420	
7952	0	32512	
7953	0	32400	
7954	0	32308	
7955	0	32296	
7956	0	32368	
7957	0	32392	
7958	0	32324	
7959	0	32204	
7960	0	32056	
7961	0	32096	
7962	0	32152	
7963	0	32200	
7964	0	32280	
7965	0	32336	
7966	0	32344	
7967	0	32260	
7968	0	32232	
7969	0	32226	
7970	0	32256	
7971	0	32364	
7972	0	32344	
7973	0	32252	
7974	0	32200	
7975	0	32042	
7976	0	32204	
7977	0	32356	
7978	0	32472	
7979	0	32664	
7980	0	32698	
7981	0	32544	
7982	0	32352	
7983	0	32402	
7984	0	32506	
7985	0	32616	
7986	0	32600	
7987	0	32576	
7988	0	32640	
7989	0	32628	
7990	0	32480	
7991	0	32276	
7992	0	32272	
7993	0	32460	
7994	0	32616	
7995	0	32652	
7996	0	32560	
7997	0	32524	
7998	0	32592	
7999	0	32636	
8000	0	32640	
8001	0	32608	
8002	0	32544	
8003	0	32508	
8004	0	32500	
8005	0	32420	
8006	0	32376	
8007	0	32444	
8008	0	32392	
8009	0	32252	
8010	0	32284	
8011	0	32564	
8012	0	32668	
8013	0	32612	
8014	0	32556	
8015	0	32524	
8016	0	32488	
8017	0	32520	
8018	0	32590	
8019	0	32656	
8020	0	32564	
8021	0	32528	
8022	0	32496	
8023	0	32520	
8024	0	32556	
8025	0	32584	
8026	0	32660	
8027	0	32708	
8028	0	32832	
8029	0	32980	
8030	0	33116	
8031	0	33268	
8032	0	33416	
8033	0	33568	
8034	0	33704	
8035	0	33804	
8036	0	33844	
8037	0	33928	
8038	0	34108	
8039	0	34312	
8040	0	34460	
8041	0	34544	
8042	0	34648	
8043	0	34736	
8044	0	34708	
8045	0	34676	
8046	0	34600	
8047	0	34504	
8048	0	34450	
8049	0	34452	
8050	0	34452	
8051	0	34428	
8052	0	34390	
8053	0	34400	
8054	0	34552	
8055	0	34824	
8056	0	35096	
8057	0	35384	
8058	0	35668	
8059	0	35908	
8060	0	36188	
8061	0	36484	
8062	0	36674	
8063	0	36824	
8064	0	36904	
8065	0	36964	
8066	0	37068	
8067	0	37232	
8068	0	37264	
8069	0	37204	
8070	0	37152	
8071	0	36980	
8072	0	36884	
8073	0	36784	
8074	0	36656	
8075	0	36560	
8076	0	36428	
8077	0	36232	
8078	0	36200	
8079	0	36296	
8080	0	36296	
8081	0	36272	
8082	0	36180	
8083	0	36072	
8084	0	35980	
8085	0	35932	
8086	0	35872	
8087	0	35800	
8088	0	35716	
8089	0	35576	
8090	0	35284	
8091	0	34892	
8092	0	34468	
8093	0	34052	
8094	0	33712	
8095	0	33300	
8096	0	32880	
8097	0	32424	
8098	0	32040	
8099	0	31748	
8100	0	31608	
8101	0	31528	
8102	0	31402	
8103	0	31252	
8104	0	31136	
8105	0	30992	
8106	0	30712	
8107	0	30692	
8108	0	30656	
8109	0	30552	
8110	0	30488	
8111	0	30448	
8112	0	30372	
8113	0	30292	
8114	0	30244	
8115	0	30268	
8116	0	30284	
8117	0	30272	
8118	0	30324	
8119	0	30324	
8120	0	30260	
8121	0	30216	
8122	0	30264	
8123	0	30300	
8124	0	30348	
8125	0	30460	
8126	0	30492	
8127	0	30476	
8128	0	30504	
8129	0	30504	
8130	0	30488	
8131	0	30512	
8132	0	30514	
8133	0	30544	
8134	0	30640	
8135	0	30672	
8136	0	30648	
8137	0	30656	
8138	0	30640	
8139	0	30572	
8140	0	30500	
8141	0	30544	
8142	0	30628	
8143	0	30736	
8144	0	30784	
8145	0	30852	
8146	0	30848	
8147	0	30772	
8148	0	30676	
8149	0	30564	
8150	0	30392	
8151	0	30088	
8152	0	29636	
8153	0	28936	
8154	0	28032	
8155	0	27124	
8156	0	26220	
8157	0	25322	
8158	0	24580	
8159	0	23988	
8160	0	23596	
8161	0	23372	
8162	0	23368	
8163	0	23712	
8164	0	24288	
8165	0	25000	
8166	0	25820	
8167	0	26978	
8168	0	28698	
8169	0	30972	
8170	0	33544	
8171	0	36340	
8172	0	39488	
8173	0	42808	
8174	0	46464	
8175	0	50508	
8176	0	54664	
8177	0	59000	
8178	0	62456	
8179	0	64368	
8180	0	65344	
8181	0	65535	
8182	0	65535	
8183	0	65535	
8184	0	65535	
8185	0	65535	
8186	0	65535	
8187	0	65535	
8188	0	65535	
8189	0	63648	
8190	0	56812	
8191	0	51308	
8192	0	46828	
8193	0	42656	
8194	0	38556	
8195	0	34944	
8196	0	31876	
8197	0	29376	
8198	0	27108	
8199	0	24996	
8200	0	23060	
8201	0	21420	
8202	0	20036	
8203	0	18814	
8204	0	17896	
8205	0	17256	
8206	0	16818	
8207	0	16368	
8208	0	15944	
8209	0	15696	
8210	0	15748	
8211	0	16192	
8212	0	16800	
8213	0	17528	
8214	0	18292	
8215	0	19085	
8216	0	20000	
8217	0	20788	
8218	0	21486	
8219	0	22144	
8220	0	22784	
8221	0	23432	
8222	0	24072	
8223	0	24736	
8224	0	25392	
8225	0	26080	
8226	0	26656	
8227	0	27120	
8228	0	27520	
8229	0	27868	
8230	0	28176	
8231	0	28484	
8232	0	28720	
8233	0	28834	
8234	0	28892	
8235	0	28956	
8236	0	29068	
8237	0	29146	
8238	0	29208	
8239	0	29272	
8240	0	29412	
8241	0	29536	
8242	0	29656	
8243	0	29792	
8244	0	29884	
8245	0	29944	
8246	0	29948	
8247	0	29968	
8248	0	30012	
8249	0	30064	
8250	0	30144	
8251	0	30232	
8252	0	30296	
8253	0	30396	
8254	0	30500	
8255	0	30564	
8256	0	30632	
8257	0	30696	
8258	0	30768	
8259	0	30812	
8260	0	30848	
8261	0	30868	
8262	0	30928	
8263	0	31000	
8264	0	31096	
8265	0	31176	
8266	0	31228	
8267	0	31292	
8268	0	31336	
8269	0	31428	
8270	0	31408	
8271	0	31352	
8272	0	31376	
8273	0	31444	
8274	0	31460	
8275	0	31432	
8276	0	31456	
8277	0	31512	
8278	0	31580	
8279	0	31656	
8280	0	31720	
8281	0	31748	
8282	0	31788	
8283	0	31760	
8284	0	31844	
8285	0	31946	
8286	0	32012	
8287	0	32060	
8288	0	32096	
8289	0	32052	
8290	0	32032	
8291	0	32068	
8292	0	32192	
8293	0	32300	
8294	0	32344	
8295	0	32336	
8296	0	32336	
8297	0	32320	
8298	0	32304	
8299	0	32324	
8300	0	32334	
8301	0	32324	
8302	0	32304	
8303	0	32332	
8304	0	32408	
8305	0	32460	
8306	0	32480	
8307	0	32516	
8308	0	32516	
8309	0	32548	
8310	0	32560	
8311	0	32568	
8312	0	32578	
8313	0	32576	
8314	0	32596	
8315	0	32680	
8316	0	32760	
8317	0	32784	
8318	0	32772	
8319	0	32752	
8320	0	32816	
8321	0	32904	
8322	0	32980	
8323	0	33004	
8324	0	33068	
8325	0	33120	
8326	0	33120	
8327	0	33122	
8328	0	33140	
8329	0	33164	
8330	0	33228	
8331	0	33296	
8332	0	33410	
8333	0	33520	
8334	0	33548	
8335	0	33560	
8336	0	33540	
8337	0	33524	
8338	0	33528	
8339	0	33488	
8340	0	33488	
8341	0	33472	
8342	0	33448	
8343	0	33496	
8344	0	33528	
8345	0	33572	
8346	0	33592	
8347	0	33608	
8348	0	33616	
8349	0	33628	
8350	0	33636	
8351	0	33704	
8352	0	33826	
8353	0	33908	
8354	0	33928	
8355	0	33920	
8356	0	33856	
8357	0	33806	
8358	0	33756	
8359	0	33770	
8360	0	33860	
8361	0	33976	
8362	0	34020	
8363	0	34016	
8364	0	33992	
8365	0	33996	
8366	0	33972	
8367	0	33992	
8368	0	34048	
8369	0	34012	
8370	0	33908	
8371	0	33856	
8372	0	33824	
8373	0	33804	
8374	0	33856	
8375	0	33928	
8376	0	33904	
8377	0	33882	
8378	0	33856	
8379	0	33856	
8380	0	33908	
8381	0	33980	
8382	0	33976	
8383	0	33908	
8384	0	33940	
8385	0	34024	
8386	0	34112	
8387	0	34128	
8388	0	34088	
8389	0	33994	
8390	0	34004	
8391	0	34016	
8392	0	34060	
8393	0	34116	
8394	0	34172	
8395	0	34144	
8396	0	34112	
8397	0	34160	
8398	0	34210	
8399	0	34252	
8400	0	34340	
8401	0	34440	
8402	0	34520	
8403	0	34504	
8404	0	34416	
8405	0	34332	
8406	0	34240	
8407	0	34168	
8408	0	34168	
8409	0	34180	
8410	0	34168	
8411	0	34144	
8412	0	34184	
8413	0	34192	
8414	0	34168	
8415	0	34180	
8416	0	34196	
8417	0	34240	
8418	0	34328	
8419	0	34360	
8420	0	34304	
8421	0	34305	
8422	0	34336	
8423	0	34368	
8424	0	34388	
8425	0	34344	
8426	0	34320	
8427	0	34348	
8428	0	34312	
8429	0	34260	
8430	0	34228	
8431	0	34148	
8432	0	34026	
8433	0	33992	
8434	0	33944	
8435	0	33920	
8436	0	33856	
8437	0	33804	
8438	0	33732	
8439	0	33656	
8440	0	33636	
8441	0	33608	
8442	0	33488	
8443	0	33338	
8444	0	33192	
8445	0	33088	
8446	0	33056	
8447	0	33000	
8448	0	32892	
8449	0	32774	
8450	0	32696	
8451	0	32722	
8452	0	32802	
8453	0	32768	
8454	0	32740	
8455	0	32736	
8456	0	32665	
8457	0	32552	
8458	0	32474	
8459	0	32440	
8460	0	32378	
8461	0	32290	
8462	0	32268	
8463	0	32268	
8464	0	32208	
8465	0	32108	
8466	0	31992	
8467	0	31956	
8468	0	31978	
8469	0	31960	
8470	0	31976	
8471	0	31944	
8472	0	31904	
8473	0	31876	
8474	0	31896	
8475	0	31888	
8476	0	31864	
8477	0	31822	
8478	0	31756	
8479	0	31680	
8480	0	31584	
8481	0	31500	
8482	0	31448	
8483	0	31436	
8484	0	31408	
8485	0	31404	
8486	0	31424	
8487	0	31420	
8488	0	31358	
8489	0	31310	
8490	0	31320	
8491	0	31328	
8492	0	31308	
8493	0	31292	
8494	0	31312	
8495	0	31364	
8496	0	31410	
8497	0	31496	
8498	0	31570	
8499	0	31616	
8500	0	31640	
8501	0	31688	
8502	0	31654	
8503	0	31640	
8504	0	31592	
8505	0	31536	
8506	0	31500	
8507	0	31492	
8508	0	31520	
8509	0	31584	
8510	0	31668	
8511	0	31772	
8512	0	31844	
8513	0	31840	
8514	0	31836	
8515	0	31864	
8516	0	31812	
8517	0	31832	
8518	0	31876	
8519	0	31756	
8520	0	31624	
8521	0	31628	
8522	0	31604	
8523	0	31588	
8524	0	31648	
8525	0	31724	
8526	0	31848	
8527	0	31928	
8528	0	32002	
8529	0	31984	
8530	0	32008	
8531	0	32080	
8532	0	32136	
8533	0	32116	
8534	0	32060	
8535	0	32100	
8536	0	32180	
8537	0	32112	
8538	0	32136	
8539	0	32164	
8540	0	32152	
8541	0	32160	
8542	0	32180	
8543	0	32228	
8544	0	32320	
8545	0	32444	
8546	0	32416	
8547	0	32336	
8548	0	32372	
8549	0	32440	
8550	0	32538	
8551	0	32524	
8552	0	32492	
8553	0	32488	
8554	0	32576	
8555	0	32688	
8556	0	32792	
8557	0	32832	
8558	0	32740	
8559	0	32748	
8560	0	32792	
8561	0	32760	
8562	0	32776	
8563	0	32858	
8564	0	32936	
8565	0	32960	
8566	0	32916	
8567	0	32808	
8568	0	32760	
8569	0	32776	
8570	0	32876	
8571	0	32892	
8572	0	32788	
8573	0	32992	
8574	0	33192	
8575	0	33244	
8576	0	33248	
8577	0	33152	
8578	0	33012	
8579	0	32968	
8580	0	33064	
8581	0	33104	
8582	0	33088	
8583	0	33088	
8584	0	33000	
8585	0	32888	
8586	0	32652	
8587	0	32404	
8588	0	32356	
8589	0	32608	
8590	0	32924	
8591	0	33092	
