# OpenSignals Text File Format. Version 1
# {"00:07:80:4B:15:F7": {"position": 0, "device": "biosignalsplux", "device name": "00:07:80:4B:15:F7", "device connection": "BTH00:07:80:4B:15:F7", "sampling rate": 1000, "resolution": [16], "firmware version": 775, "comments": "", "keywords": "", "mode": 0, "sync interval": 2, "date": "2023-4-12", "time": "14:39:12.543", "channels": [1], "sensor": ["ECG"], "label": ["CH1"], "column": ["nSeq", "DI", "CH1"], "special": [{"SpO2": [80, 40, 5, 4, 3, 3]}, {"SpO2": [80, 40, 5, 4, 3, 3]}, {"SpO2": [80, 40, 5, 4, 3, 3]}, {"SpO2": [80, 40, 5, 4, 3, 3]}, {"SpO2": [80, 40, 5, 4, 3, 3]}, {"SpO2": [80, 40, 5, 4, 3, 3]}, {"SpO2": [80, 40, 5, 4, 3, 3]}, {"SpO2": [80, 40, 5, 4, 3, 3]}], "digital IO": [0, 1], "sleeve color": ["green"], "convertedValues": 0}}
# EndOfHeader
0	0	31592	
1	0	31528	
2	0	31444	
3	0	31388	
4	0	31348	
5	0	31310	
6	0	31316	
7	0	31336	
8	0	31280	
9	0	31248	
10	0	31236	
11	0	31228	
12	0	31224	
13	0	31240	
14	0	31226	
15	0	31228	
16	0	31252	
17	0	31264	
18	0	31308	
19	0	31396	
20	0	31392	
21	0	31384	
22	0	31458	
23	0	31488	
24	0	31448	
25	0	31448	
26	0	31484	
27	0	31508	
28	0	31452	
29	0	31454	
30	0	31496	
31	0	31576	
32	0	31664	
33	0	31664	
34	0	31656	
35	0	31684	
36	0	31708	
37	0	31700	
38	0	31704	
39	0	31768	
40	0	31808	
41	0	31808	
42	0	31832	
43	0	31804	
44	0	31720	
45	0	31580	
46	0	31320	
47	0	30872	
48	0	30312	
49	0	29668	
50	0	29136	
51	0	28804	
52	0	28708	
53	0	28704	
54	0	28792	
55	0	29060	
56	0	29636	
57	0	30480	
58	0	31500	
59	0	32716	
60	0	34128	
61	0	35688	
62	0	37384	
63	0	39336	
64	0	41710	
65	0	44432	
66	0	47652	
67	0	51268	
68	0	54928	
69	0	58448	
70	0	61632	
71	0	63484	
72	0	64448	
73	0	64920	
74	0	65116	
75	0	65152	
76	0	65136	
77	0	65044	
78	0	64944	
79	0	64832	
80	0	64708	
81	0	61632	
82	0	55232	
83	0	49808	
84	0	45368	
85	0	41724	
86	0	38752	
87	0	36324	
88	0	34210	
89	0	32368	
90	0	30788	
91	0	29468	
92	0	28460	
93	0	27696	
94	0	27138	
95	0	26804	
96	0	26644	
97	0	26532	
98	0	26512	
99	0	26572	
100	0	26612	
101	0	26602	
102	0	26674	
103	0	26892	
104	0	27136	
105	0	27352	
106	0	27664	
107	0	28000	
108	0	28322	
109	0	28608	
110	0	28860	
111	0	29060	
112	0	29248	
113	0	29352	
114	0	29474	
115	0	29554	
116	0	29596	
117	0	29564	
118	0	29512	
119	0	29424	
120	0	29368	
121	0	29364	
122	0	29380	
123	0	29408	
124	0	29472	
125	0	29484	
126	0	29432	
127	0	29420	
128	0	29458	
129	0	29476	
130	0	29506	
131	0	29520	
132	0	29610	
133	0	29644	
134	0	29676	
135	0	29764	
136	0	29824	
137	0	29820	
138	0	29832	
139	0	29892	
140	0	29964	
141	0	29968	
142	0	29956	
143	0	29976	
144	0	30064	
145	0	30112	
146	0	30124	
147	0	30140	
148	0	30140	
149	0	30098	
150	0	30100	
151	0	30112	
152	0	30184	
153	0	30284	
154	0	30368	
155	0	30432	
156	0	30438	
157	0	30476	
158	0	30522	
159	0	30586	
160	0	30642	
161	0	30680	
162	0	30696	
163	0	30720	
164	0	30756	
165	0	30756	
166	0	30748	
167	0	30744	
168	0	30784	
169	0	30880	
170	0	30968	
171	0	31050	
172	0	31116	
173	0	31168	
174	0	31168	
175	0	31204	
176	0	31296	
177	0	31352	
178	0	31396	
179	0	31398	
180	0	31416	
181	0	31464	
182	0	31508	
183	0	31548	
184	0	31576	
185	0	31632	
186	0	31704	
187	0	31816	
188	0	31936	
189	0	32028	
190	0	32076	
191	0	32104	
192	0	32109	
193	0	32104	
194	0	32144	
195	0	32204	
196	0	32224	
197	0	32244	
198	0	32252	
199	0	32296	
200	0	32360	
201	0	32404	
202	0	32430	
203	0	32436	
204	0	32476	
205	0	32548	
206	0	32652	
207	0	32700	
208	0	32736	
209	0	32768	
210	0	32820	
211	0	32868	
212	0	32928	
213	0	32968	
214	0	33016	
215	0	33056	
216	0	33096	
217	0	33186	
218	0	33268	
219	0	33314	
220	0	33360	
221	0	33388	
222	0	33428	
223	0	33472	
224	0	33505	
225	0	33516	
226	0	33544	
227	0	33596	
228	0	33656	
229	0	33704	
230	0	33768	
231	0	33800	
232	0	33852	
233	0	33924	
234	0	34020	
235	0	34060	
236	0	34100	
237	0	34180	
238	0	34304	
239	0	34368	
240	0	34434	
241	0	34512	
242	0	34586	
243	0	34632	
244	0	34692	
245	0	34748	
246	0	34804	
247	0	34832	
248	0	34920	
249	0	35000	
250	0	35048	
251	0	35120	
252	0	35192	
253	0	35264	
254	0	35324	
255	0	35432	
256	0	35480	
257	0	35492	
258	0	35552	
259	0	35604	
260	0	35656	
261	0	35692	
262	0	35808	
263	0	35932	
264	0	36048	
265	0	36104	
266	0	36120	
267	0	36188	
268	0	36244	
269	0	36272	
270	0	36312	
271	0	36376	
272	0	36452	
273	0	36536	
274	0	36620	
275	0	36700	
276	0	36756	
277	0	36804	
278	0	36792	
279	0	36792	
280	0	36800	
281	0	36772	
282	0	36724	
283	0	36800	
284	0	36860	
285	0	36860	
286	0	36864	
287	0	36888	
288	0	36956	
289	0	36980	
290	0	36964	
291	0	36952	
292	0	36924	
293	0	36922	
294	0	36952	
295	0	36954	
296	0	36920	
297	0	36944	
298	0	37018	
299	0	37028	
300	0	36960	
301	0	36928	
302	0	36898	
303	0	36880	
304	0	36888	
305	0	36880	
306	0	36852	
307	0	36826	
308	0	36772	
309	0	36744	
310	0	36732	
311	0	36684	
312	0	36612	
313	0	36512	
314	0	36428	
315	0	36412	
316	0	36332	
317	0	36280	
318	0	36236	
319	0	36160	
320	0	36020	
321	0	35928	
322	0	35816	
323	0	35644	
324	0	35460	
325	0	35340	
326	0	35208	
327	0	35020	
328	0	34816	
329	0	34648	
330	0	34462	
331	0	34266	
332	0	34072	
333	0	33896	
334	0	33720	
335	0	33500	
336	0	33280	
337	0	33096	
338	0	32960	
339	0	32808	
340	0	32608	
341	0	32376	
342	0	32212	
343	0	32048	
344	0	31864	
345	0	31680	
346	0	31504	
347	0	31362	
348	0	31248	
349	0	31096	
350	0	31000	
351	0	30852	
352	0	30716	
353	0	30588	
354	0	30508	
355	0	30404	
356	0	30312	
357	0	30208	
358	0	30048	
359	0	29932	
360	0	29884	
361	0	29816	
362	0	29680	
363	0	29568	
364	0	29456	
365	0	29336	
366	0	29256	
367	0	29202	
368	0	29156	
369	0	29092	
370	0	29052	
371	0	28992	
372	0	28958	
373	0	28954	
374	0	28948	
375	0	28924	
376	0	28904	
377	0	28856	
378	0	28804	
379	0	28800	
380	0	28824	
381	0	28816	
382	0	28798	
383	0	28776	
384	0	28760	
385	0	28728	
386	0	28740	
387	0	28740	
388	0	28756	
389	0	28820	
390	0	28844	
391	0	28844	
392	0	28856	
393	0	28896	
394	0	28948	
395	0	28988	
396	0	28952	
397	0	28924	
398	0	28936	
399	0	28984	
400	0	29080	
401	0	29190	
402	0	29236	
403	0	29248	
404	0	29248	
405	0	29236	
406	0	29296	
407	0	29376	
408	0	29464	
409	0	29520	
410	0	29588	
411	0	29640	
412	0	29708	
413	0	29728	
414	0	29768	
415	0	29792	
416	0	29732	
417	0	29732	
418	0	29736	
419	0	29756	
420	0	29772	
421	0	29800	
422	0	29872	
423	0	29896	
424	0	29934	
425	0	29888	
426	0	29904	
427	0	29952	
428	0	30036	
429	0	30124	
430	0	30192	
431	0	30228	
432	0	30252	
433	0	30284	
434	0	30310	
435	0	30352	
436	0	30388	
437	0	30400	
438	0	30444	
439	0	30436	
440	0	30456	
441	0	30472	
442	0	30514	
443	0	30584	
444	0	30612	
445	0	30648	
446	0	30630	
447	0	30612	
448	0	30632	
449	0	30664	
450	0	30680	
451	0	30728	
452	0	30820	
453	0	30892	
454	0	30916	
455	0	30936	
456	0	30940	
457	0	30944	
458	0	30910	
459	0	30852	
460	0	30912	
461	0	31000	
462	0	31076	
463	0	31136	
464	0	31136	
465	0	31104	
466	0	31048	
467	0	31080	
468	0	31130	
469	0	31164	
470	0	31196	
471	0	31220	
472	0	31252	
473	0	31244	
474	0	31228	
475	0	31202	
476	0	31184	
477	0	31222	
478	0	31236	
479	0	31272	
480	0	31308	
481	0	31364	
482	0	31368	
483	0	31362	
484	0	31388	
485	0	31440	
486	0	31468	
487	0	31464	
488	0	31484	
489	0	31500	
490	0	31450	
491	0	31412	
492	0	31492	
493	0	31556	
494	0	31584	
495	0	31568	
496	0	31572	
497	0	31580	
498	0	31572	
499	0	31504	
500	0	31472	
501	0	31464	
502	0	31480	
503	0	31504	
504	0	31536	
505	0	31548	
506	0	31548	
507	0	31548	
508	0	31552	
509	0	31600	
510	0	31628	
511	0	31596	
512	0	31548	
513	0	31536	
514	0	31560	
515	0	31588	
516	0	31552	
517	0	31520	
518	0	31544	
519	0	31588	
520	0	31626	
521	0	31688	
522	0	31724	
523	0	31698	
524	0	31648	
525	0	31634	
526	0	31604	
527	0	31604	
528	0	31596	
529	0	31568	
530	0	31540	
531	0	31580	
532	0	31608	
533	0	31608	
534	0	31644	
535	0	31692	
536	0	31740	
537	0	31772	
538	0	31812	
539	0	31832	
540	0	31848	
541	0	31868	
542	0	31876	
543	0	31844	
544	0	31812	
545	0	31856	
546	0	31864	
547	0	31816	
548	0	31792	
549	0	31788	
550	0	31776	
551	0	31756	
552	0	31770	
553	0	31784	
554	0	31808	
555	0	31822	
556	0	31832	
557	0	31840	
558	0	31816	
559	0	31840	
560	0	31914	
561	0	31928	
562	0	31922	
563	0	31972	
564	0	31952	
565	0	31908	
566	0	31908	
567	0	31836	
568	0	31784	
569	0	31764	
570	0	31788	
571	0	31772	
572	0	31788	
573	0	31804	
574	0	31816	
575	0	31784	
576	0	31772	
577	0	31796	
578	0	31816	
579	0	31874	
580	0	31880	
581	0	31892	
582	0	31916	
583	0	31952	
584	0	31994	
585	0	32048	
586	0	32032	
587	0	31984	
588	0	31916	
589	0	31888	
590	0	31920	
591	0	31916	
592	0	31856	
593	0	31844	
594	0	31860	
595	0	31844	
596	0	31856	
597	0	31856	
598	0	31842	
599	0	31864	
600	0	31880	
601	0	31904	
602	0	31908	
603	0	31956	
604	0	32010	
605	0	32028	
606	0	32020	
607	0	32040	
608	0	32084	
609	0	32104	
610	0	32116	
611	0	32136	
612	0	32100	
613	0	32096	
614	0	32076	
615	0	32096	
616	0	32096	
617	0	32108	
618	0	32136	
619	0	32192	
620	0	32180	
621	0	32160	
622	0	32160	
623	0	32176	
624	0	32152	
625	0	32180	
626	0	32208	
627	0	32192	
628	0	32200	
629	0	32216	
630	0	32296	
631	0	32376	
632	0	32410	
633	0	32428	
634	0	32468	
635	0	32552	
636	0	32706	
637	0	32800	
638	0	32832	
639	0	32872	
640	0	32976	
641	0	33088	
642	0	33188	
643	0	33296	
644	0	33380	
645	0	33440	
646	0	33504	
647	0	33576	
648	0	33580	
649	0	33592	
650	0	33600	
651	0	33564	
652	0	33568	
653	0	33536	
654	0	33508	
655	0	33544	
656	0	33632	
657	0	33648	
658	0	33594	
659	0	33548	
660	0	33544	
661	0	33604	
662	0	33736	
663	0	33920	
664	0	34180	
665	0	34488	
666	0	34748	
667	0	34864	
668	0	34900	
669	0	34988	
670	0	35136	
671	0	35292	
672	0	35424	
673	0	35456	
674	0	35424	
675	0	35368	
676	0	35260	
677	0	35176	
678	0	35072	
679	0	34992	
680	0	34914	
681	0	34780	
682	0	34644	
683	0	34500	
684	0	34380	
685	0	34272	
686	0	34200	
687	0	34144	
688	0	34008	
689	0	33844	
690	0	33680	
691	0	33494	
692	0	33372	
693	0	33300	
694	0	33314	
695	0	33298	
696	0	33208	
697	0	33112	
698	0	32980	
699	0	32804	
700	0	32656	
701	0	32544	
702	0	32444	
703	0	32344	
704	0	32314	
705	0	32280	
706	0	32196	
707	0	32072	
708	0	31936	
709	0	31788	
710	0	31664	
711	0	31560	
712	0	31506	
713	0	31408	
714	0	31316	
715	0	31284	
716	0	31228	
717	0	31216	
718	0	31228	
719	0	31256	
720	0	31220	
721	0	31168	
722	0	31186	
723	0	31212	
724	0	31236	
725	0	31264	
726	0	31320	
727	0	31356	
728	0	31360	
729	0	31360	
730	0	31392	
731	0	31376	
732	0	31354	
733	0	31322	
734	0	31378	
735	0	31458	
736	0	31496	
737	0	31552	
738	0	31624	
739	0	31628	
740	0	31628	
741	0	31644	
742	0	31612	
743	0	31582	
744	0	31636	
745	0	31688	
746	0	31708	
747	0	31720	
748	0	31728	
749	0	31752	
750	0	31732	
751	0	31720	
752	0	31748	
753	0	31792	
754	0	31800	
755	0	31792	
756	0	31636	
757	0	31406	
758	0	31100	
759	0	30708	
760	0	30156	
761	0	29500	
762	0	28948	
763	0	28632	
764	0	28500	
765	0	28512	
766	0	28668	
767	0	29064	
768	0	29704	
769	0	30584	
770	0	31568	
771	0	32757	
772	0	34192	
773	0	35808	
774	0	37576	
775	0	39616	
776	0	42078	
777	0	44916	
778	0	48252	
779	0	51948	
780	0	55684	
781	0	59240	
782	0	62170	
783	0	63812	
784	0	64624	
785	0	65016	
786	0	65176	
787	0	65188	
788	0	65148	
789	0	65072	
790	0	64968	
791	0	64852	
792	0	64728	
793	0	61016	
794	0	54740	
795	0	49460	
796	0	45164	
797	0	41648	
798	0	38784	
799	0	36404	
800	0	34324	
801	0	32576	
802	0	31008	
803	0	29672	
804	0	28600	
805	0	27816	
806	0	27228	
807	0	26828	
808	0	26586	
809	0	26490	
810	0	26544	
811	0	26648	
812	0	26692	
813	0	26746	
814	0	26852	
815	0	27052	
816	0	27300	
817	0	27536	
818	0	27820	
819	0	28116	
820	0	28420	
821	0	28704	
822	0	28958	
823	0	29148	
824	0	29308	
825	0	29440	
826	0	29528	
827	0	29584	
828	0	29621	
829	0	29592	
830	0	29620	
831	0	29652	
832	0	29638	
833	0	29666	
834	0	29696	
835	0	29688	
836	0	29632	
837	0	29594	
838	0	29572	
839	0	29524	
840	0	29480	
841	0	29480	
842	0	29516	
843	0	29584	
844	0	29664	
845	0	29704	
846	0	29744	
847	0	29728	
848	0	29748	
849	0	29792	
850	0	29832	
851	0	29848	
852	0	29880	
853	0	29912	
854	0	29932	
855	0	30012	
856	0	30088	
857	0	30124	
858	0	30136	
859	0	30148	
860	0	30144	
861	0	30200	
862	0	30304	
863	0	30368	
864	0	30386	
865	0	30412	
866	0	30464	
867	0	30496	
868	0	30512	
869	0	30544	
870	0	30564	
871	0	30634	
872	0	30690	
873	0	30752	
874	0	30784	
875	0	30780	
876	0	30820	
877	0	30914	
878	0	30948	
879	0	30996	
880	0	31076	
881	0	31128	
882	0	31200	
883	0	31280	
884	0	31308	
885	0	31344	
886	0	31424	
887	0	31552	
888	0	31640	
889	0	31696	
890	0	31708	
891	0	31732	
892	0	31760	
893	0	31714	
894	0	31696	
895	0	31680	
896	0	31712	
897	0	31800	
898	0	31884	
899	0	31916	
900	0	31984	
901	0	32024	
902	0	31996	
903	0	32040	
904	0	32100	
905	0	32156	
906	0	32208	
907	0	32276	
908	0	32308	
909	0	32356	
910	0	32416	
911	0	32476	
912	0	32540	
913	0	32544	
914	0	32548	
915	0	32612	
916	0	32660	
917	0	32668	
918	0	32680	
919	0	32692	
920	0	32744	
921	0	32812	
922	0	32868	
923	0	32916	
924	0	32980	
925	0	33068	
926	0	33140	
927	0	33204	
928	0	33292	
929	0	33328	
930	0	33344	
931	0	33380	
932	0	33408	
933	0	33424	
934	0	33488	
935	0	33568	
936	0	33658	
937	0	33744	
938	0	33816	
939	0	33868	
940	0	33946	
941	0	33962	
942	0	33954	
943	0	34016	
944	0	34112	
945	0	34168	
946	0	34184	
947	0	34208	
948	0	34272	
949	0	34368	
950	0	34448	
951	0	34586	
952	0	34692	
953	0	34756	
954	0	34850	
955	0	34860	
956	0	34840	
957	0	34796	
958	0	34812	
959	0	34920	
960	0	35024	
961	0	35080	
962	0	35176	
963	0	35284	
964	0	35404	
965	0	35500	
966	0	35592	
967	0	35668	
968	0	35744	
969	0	35788	
970	0	35808	
971	0	35898	
972	0	35980	
973	0	36020	
974	0	36080	
975	0	36144	
976	0	36164	
977	0	36204	
978	0	36260	
979	0	36346	
980	0	36436	
981	0	36496	
982	0	36568	
983	0	36656	
984	0	36740	
985	0	36792	
986	0	36848	
987	0	36872	
988	0	36896	
989	0	36916	
990	0	36956	
991	0	37000	
992	0	37032	
993	0	37040	
994	0	37056	
995	0	37080	
996	0	37068	
997	0	37088	
998	0	37144	
999	0	37168	
1000	0	37218	
1001	0	37216	
1002	0	37216	
1003	0	37194	
1004	0	37216	
1005	0	37196	
1006	0	37156	
1007	0	37100	
1008	0	37080	
1009	0	37148	
1010	0	37148	
1011	0	37136	
1012	0	37184	
1013	0	37186	
1014	0	37216	
1015	0	37136	
1016	0	36968	
1017	0	36880	
1018	0	36864	
1019	0	36840	
1020	0	36786	
1021	0	36752	
1022	0	36724	
1023	0	36746	
1024	0	36728	
1025	0	36680	
1026	0	36600	
1027	0	36536	
1028	0	36474	
1029	0	36362	
1030	0	36286	
1031	0	36192	
1032	0	36064	
1033	0	35962	
1034	0	35848	
1035	0	35708	
1036	0	35540	
1037	0	35400	
1038	0	35232	
1039	0	35072	
1040	0	34884	
1041	0	34728	
1042	0	34586	
1043	0	34392	
1044	0	34152	
1045	0	33916	
1046	0	33740	
1047	0	33572	
1048	0	33332	
1049	0	33064	
1050	0	32812	
1051	0	32602	
1052	0	32408	
1053	0	32244	
1054	0	32084	
1055	0	31928	
1056	0	31764	
1057	0	31572	
1058	0	31408	
1059	0	31288	
1060	0	31168	
1061	0	31021	
1062	0	30840	
1063	0	30704	
1064	0	30592	
1065	0	30492	
1066	0	30384	
1067	0	30256	
1068	0	30140	
1069	0	30028	
1070	0	29941	
1071	0	29850	
1072	0	29760	
1073	0	29644	
1074	0	29528	
1075	0	29480	
1076	0	29416	
1077	0	29380	
1078	0	29344	
1079	0	29288	
1080	0	29220	
1081	0	29160	
1082	0	29136	
1083	0	29128	
1084	0	29104	
1085	0	29088	
1086	0	29050	
1087	0	29028	
1088	0	29008	
1089	0	28964	
1090	0	28936	
1091	0	28926	
1092	0	28912	
1093	0	28944	
1094	0	28992	
1095	0	29024	
1096	0	29016	
1097	0	29008	
1098	0	28966	
1099	0	28904	
1100	0	28900	
1101	0	28924	
1102	0	28916	
1103	0	28944	
1104	0	28976	
1105	0	29040	
1106	0	29096	
1107	0	29052	
1108	0	29096	
1109	0	29176	
1110	0	29224	
1111	0	29212	
1112	0	29186	
1113	0	29192	
1114	0	29156	
1115	0	29148	
1116	0	29130	
1117	0	29122	
1118	0	29141	
1119	0	29188	
1120	0	29270	
1121	0	29336	
1122	0	29360	
1123	0	29412	
1124	0	29468	
1125	0	29504	
1126	0	29528	
1127	0	29560	
1128	0	29572	
1129	0	29568	
1130	0	29580	
1131	0	29628	
1132	0	29740	
1133	0	29852	
1134	0	29904	
1135	0	29976	
1136	0	29992	
1137	0	29952	
1138	0	29928	
1139	0	29960	
1140	0	29976	
1141	0	30012	
1142	0	30092	
1143	0	30098	
1144	0	30100	
1145	0	30132	
1146	0	30138	
1147	0	30200	
1148	0	30240	
1149	0	30296	
1150	0	30296	
1151	0	30346	
1152	0	30400	
1153	0	30424	
1154	0	30436	
1155	0	30470	
1156	0	30512	
1157	0	30556	
1158	0	30626	
1159	0	30684	
1160	0	30708	
1161	0	30740	
1162	0	30760	
1163	0	30744	
1164	0	30740	
1165	0	30792	
1166	0	30856	
1167	0	30912	
1168	0	30936	
1169	0	30988	
1170	0	31024	
1171	0	31040	
1172	0	31088	
1173	0	31124	
1174	0	31136	
1175	0	31088	
1176	0	31084	
1177	0	31092	
1178	0	31132	
1179	0	31158	
1180	0	31140	
1181	0	31136	
1182	0	31148	
1183	0	31156	
1184	0	31180	
1185	0	31240	
1186	0	31272	
1187	0	31312	
1188	0	31348	
1189	0	31368	
1190	0	31356	
1191	0	31386	
1192	0	31428	
1193	0	31440	
1194	0	31472	
1195	0	31520	
1196	0	31556	
1197	0	31564	
1198	0	31528	
1199	0	31536	
1200	0	31584	
1201	0	31656	
1202	0	31656	
1203	0	31608	
1204	0	31536	
1205	0	31476	
1206	0	31496	
1207	0	31514	
1208	0	31520	
1209	0	31552	
1210	0	31616	
1211	0	31688	
1212	0	31700	
1213	0	31672	
1214	0	31644	
1215	0	31672	
1216	0	31692	
1217	0	31668	
1218	0	31680	
1219	0	31660	
1220	0	31610	
1221	0	31634	
1222	0	31688	
1223	0	31728	
1224	0	31768	
1225	0	31776	
1226	0	31744	
1227	0	31756	
1228	0	31792	
1229	0	31746	
1230	0	31708	
1231	0	31701	
1232	0	31696	
1233	0	31696	
1234	0	31752	
1235	0	31756	
1236	0	31740	
1237	0	31712	
1238	0	31660	
1239	0	31656	
1240	0	31648	
1241	0	31704	
1242	0	31756	
1243	0	31776	
1244	0	31768	
1245	0	31780	
1246	0	31816	
1247	0	31856	
1248	0	31852	
1249	0	31856	
1250	0	31866	
1251	0	31904	
1252	0	31902	
1253	0	31876	
1254	0	31860	
1255	0	31836	
1256	0	31860	
1257	0	31904	
1258	0	31904	
1259	0	31856	
1260	0	31808	
1261	0	31780	
1262	0	31816	
1263	0	31808	
1264	0	31772	
1265	0	31728	
1266	0	31728	
1267	0	31732	
1268	0	31738	
1269	0	31760	
1270	0	31792	
1271	0	31834	
1272	0	31860	
1273	0	31888	
1274	0	31928	
1275	0	31948	
1276	0	31960	
1277	0	31964	
1278	0	31882	
1279	0	31764	
1280	0	31682	
1281	0	31596	
1282	0	31640	
1283	0	31676	
1284	0	31632	
1285	0	31632	
1286	0	31644	
1287	0	31680	
1288	0	31744	
1289	0	31828	
1290	0	31832	
1291	0	31826	
1292	0	31872	
1293	0	31908	
1294	0	31912	
1295	0	31900	
1296	0	31940	
1297	0	31976	
1298	0	31984	
1299	0	31948	
1300	0	31936	
1301	0	31972	
1302	0	31984	
1303	0	31968	
1304	0	31970	
1305	0	31928	
1306	0	31860	
1307	0	31856	
1308	0	31880	
1309	0	31872	
1310	0	31832	
1311	0	31900	
1312	0	31984	
1313	0	32008	
1314	0	32048	
1315	0	32064	
1316	0	32030	
1317	0	31988	
1318	0	31968	
1319	0	31932	
1320	0	31908	
1321	0	31952	
1322	0	31992	
1323	0	32000	
1324	0	32024	
1325	0	32072	
1326	0	32064	
1327	0	32036	
1328	0	32044	
1329	0	32080	
1330	0	32072	
1331	0	32076	
1332	0	32064	
1333	0	32088	
1334	0	32128	
1335	0	32152	
1336	0	32100	
1337	0	32112	
1338	0	32168	
1339	0	32240	
1340	0	32272	
1341	0	32272	
1342	0	32304	
1343	0	32306	
1344	0	32288	
1345	0	32268	
1346	0	32176	
1347	0	32098	
1348	0	32036	
1349	0	31994	
1350	0	32032	
1351	0	32088	
1352	0	32112	
1353	0	32100	
1354	0	32136	
1355	0	32164	
1356	0	32180	
1357	0	32164	
1358	0	32156	
1359	0	32144	
1360	0	32172	
1361	0	32184	
1362	0	32188	
1363	0	32244	
1364	0	32240	
1365	0	32248	
1366	0	32196	
1367	0	32224	
1368	0	32264	
1369	0	32272	
1370	0	32276	
1371	0	32248	
1372	0	32264	
1373	0	32320	
1374	0	32336	
1375	0	32328	
1376	0	32304	
1377	0	32296	
1378	0	32264	
1379	0	32236	
1380	0	32216	
1381	0	32288	
1382	0	32356	
1383	0	32392	
1384	0	32388	
1385	0	32316	
1386	0	32280	
1387	0	32288	
1388	0	32362	
1389	0	32400	
1390	0	32432	
1391	0	32460	
1392	0	32488	
1393	0	32492	
1394	0	32500	
1395	0	32488	
1396	0	32518	
1397	0	32564	
1398	0	32652	
1399	0	32788	
1400	0	32972	
1401	0	33146	
1402	0	33216	
1403	0	33326	
1404	0	33432	
1405	0	33556	
1406	0	33648	
1407	0	33736	
1408	0	33776	
1409	0	33792	
1410	0	33812	
1411	0	33828	
1412	0	33804	
1413	0	33764	
1414	0	33676	
1415	0	33656	
1416	0	33640	
1417	0	33532	
1418	0	33498	
1419	0	33524	
1420	0	33540	
1421	0	33496	
1422	0	33460	
1423	0	33492	
1424	0	33668	
1425	0	33876	
1426	0	34060	
1427	0	34236	
1428	0	34480	
1429	0	34736	
1430	0	34912	
1431	0	35024	
1432	0	35178	
1433	0	35304	
1434	0	35440	
1435	0	35588	
1436	0	35688	
1437	0	35696	
1438	0	35648	
1439	0	35556	
1440	0	35396	
1441	0	35248	
1442	0	35152	
1443	0	35048	
1444	0	34922	
1445	0	34752	
1446	0	34560	
1447	0	34388	
1448	0	34324	
1449	0	34264	
1450	0	34138	
1451	0	33992	
1452	0	33792	
1453	0	33628	
1454	0	33576	
1455	0	33476	
1456	0	33360	
1457	0	33296	
1458	0	33272	
1459	0	33218	
1460	0	33148	
1461	0	33074	
1462	0	32936	
1463	0	32780	
1464	0	32628	
1465	0	32504	
1466	0	32404	
1467	0	32320	
1468	0	32336	
1469	0	32376	
1470	0	32396	
1471	0	32314	
1472	0	32202	
1473	0	32096	
1474	0	31968	
1475	0	31808	
1476	0	31680	
1477	0	31612	
1478	0	31540	
1479	0	31456	
1480	0	31416	
1481	0	31388	
1482	0	31408	
1483	0	31424	
1484	0	31442	
1485	0	31416	
1486	0	31346	
1487	0	31300	
1488	0	31282	
1489	0	31288	
1490	0	31268	
1491	0	31290	
1492	0	31308	
1493	0	31336	
1494	0	31400	
1495	0	31424	
1496	0	31420	
1497	0	31516	
1498	0	31612	
1499	0	31644	
1500	0	31714	
1501	0	31760	
1502	0	31764	
1503	0	31728	
1504	0	31668	
1505	0	31616	
1506	0	31608	
1507	0	31680	
1508	0	31780	
1509	0	31880	
1510	0	31920	
1511	0	31952	
1512	0	32024	
1513	0	32064	
1514	0	32112	
1515	0	32144	
1516	0	32144	
1517	0	32132	
1518	0	32034	
1519	0	31792	
1520	0	31512	
1521	0	31128	
1522	0	30600	
1523	0	29944	
1524	0	29308	
1525	0	28922	
1526	0	28748	
1527	0	28716	
1528	0	28792	
1529	0	29124	
1530	0	29744	
1531	0	30560	
1532	0	31528	
1533	0	32626	
1534	0	33952	
1535	0	35488	
1536	0	37248	
1537	0	39152	
1538	0	41476	
1539	0	44140	
1540	0	47208	
1541	0	50736	
1542	0	54456	
1543	0	58068	
1544	0	61332	
1545	0	63316	
1546	0	64320	
1547	0	64808	
1548	0	65024	
1549	0	65092	
1550	0	65072	
1551	0	64984	
1552	0	64896	
1553	0	64784	
1554	0	64640	
1555	0	62608	
1556	0	56128	
1557	0	50536	
1558	0	45896	
1559	0	42170	
1560	0	39172	
1561	0	36724	
1562	0	34624	
1563	0	32792	
1564	0	31192	
1565	0	29720	
1566	0	28464	
1567	0	27548	
1568	0	26856	
1569	0	26416	
1570	0	26160	
1571	0	26052	
1572	0	26096	
1573	0	26104	
1574	0	26096	
1575	0	26180	
1576	0	26320	
1577	0	26584	
1578	0	26914	
1579	0	27248	
1580	0	27564	
1581	0	27872	
1582	0	28218	
1583	0	28552	
1584	0	28872	
1585	0	29130	
1586	0	29296	
1587	0	29420	
1588	0	29546	
1589	0	29656	
1590	0	29664	
1591	0	29680	
1592	0	29680	
1593	0	29692	
1594	0	29688	
1595	0	29642	
1596	0	29606	
1597	0	29580	
1598	0	29580	
1599	0	29580	
1600	0	29524	
1601	0	29500	
1602	0	29512	
1603	0	29520	
1604	0	29548	
1605	0	29568	
1606	0	29624	
1607	0	29642	
1608	0	29700	
1609	0	29794	
1610	0	29820	
1611	0	29832	
1612	0	29908	
1613	0	29944	
1614	0	29978	
1615	0	30016	
1616	0	29988	
1617	0	29980	
1618	0	30008	
1619	0	30056	
1620	0	30120	
1621	0	30164	
1622	0	30156	
1623	0	30144	
1624	0	30136	
1625	0	30144	
1626	0	30234	
1627	0	30304	
1628	0	30368	
1629	0	30472	
1630	0	30548	
1631	0	30620	
1632	0	30696	
1633	0	30724	
1634	0	30768	
1635	0	30868	
1636	0	30996	
1637	0	31060	
1638	0	31132	
1639	0	31168	
1640	0	31202	
1641	0	31276	
1642	0	31322	
1643	0	31300	
1644	0	31328	
1645	0	31356	
1646	0	31328	
1647	0	31328	
1648	0	31308	
1649	0	31284	
1650	0	31328	
1651	0	31368	
1652	0	31428	
1653	0	31516	
1654	0	31592	
1655	0	31656	
1656	0	31640	
1657	0	31688	
1658	0	31788	
1659	0	31852	
1660	0	31868	
1661	0	31844	
1662	0	31864	
1663	0	31896	
1664	0	31872	
1665	0	31880	
1666	0	31978	
1667	0	32062	
1668	0	32132	
1669	0	32124	
1670	0	32188	
1671	0	32328	
1672	0	32492	
1673	0	32604	
1674	0	32672	
1675	0	32744	
1676	0	32780	
1677	0	32840	
1678	0	32828	
1679	0	32854	
1680	0	32904	
1681	0	32872	
1682	0	32846	
1683	0	32876	
1684	0	32960	
1685	0	32980	
1686	0	32992	
1687	0	32992	
1688	0	33040	
1689	0	33096	
1690	0	33120	
1691	0	33152	
1692	0	33200	
1693	0	33268	
1694	0	33400	
1695	0	33504	
1696	0	33600	
1697	0	33588	
1698	0	33604	
1699	0	33672	
1700	0	33730	
1701	0	33786	
1702	0	33840	
1703	0	33888	
1704	0	33932	
1705	0	34036	
1706	0	34132	
1707	0	34180	
1708	0	34248	
1709	0	34296	
1710	0	34352	
1711	0	34408	
1712	0	34482	
1713	0	34556	
1714	0	34600	
1715	0	34660	
1716	0	34732	
1717	0	34754	
1718	0	34832	
1719	0	34892	
1720	0	34912	
1721	0	34928	
1722	0	34944	
1723	0	34976	
1724	0	35072	
1725	0	35120	
1726	0	35232	
1727	0	35368	
1728	0	35488	
1729	0	35552	
1730	0	35660	
1731	0	35760	
1732	0	35868	
1733	0	35968	
1734	0	35992	
1735	0	35976	
1736	0	36008	
1737	0	36040	
1738	0	36096	
1739	0	36138	
1740	0	36188	
1741	0	36280	
1742	0	36386	
1743	0	36500	
1744	0	36584	
1745	0	36572	
1746	0	36588	
1747	0	36652	
1748	0	36684	
1749	0	36704	
1750	0	36716	
1751	0	36808	
1752	0	36876	
1753	0	36900	
1754	0	36988	
1755	0	37052	
1756	0	37068	
1757	0	37064	
1758	0	37020	
1759	0	37028	
1760	0	37072	
1761	0	37104	
1762	0	37104	
1763	0	37060	
1764	0	37040	
1765	0	37052	
1766	0	37024	
1767	0	36988	
1768	0	37016	
1769	0	37040	
1770	0	37084	
1771	0	37104	
1772	0	37116	
1773	0	37148	
1774	0	37130	
1775	0	37152	
1776	0	37196	
1777	0	37204	
1778	0	37172	
1779	0	37108	
1780	0	37068	
1781	0	37000	
1782	0	36916	
1783	0	36796	
1784	0	36712	
1785	0	36714	
1786	0	36752	
1787	0	36780	
1788	0	36800	
1789	0	36756	
1790	0	36688	
1791	0	36586	
1792	0	36492	
1793	0	36380	
1794	0	36292	
1795	0	36132	
1796	0	35914	
1797	0	35752	
1798	0	35636	
1799	0	35516	
1800	0	35396	
1801	0	35292	
1802	0	35152	
1803	0	34992	
1804	0	34812	
1805	0	34592	
1806	0	34372	
1807	0	34144	
1808	0	34036	
1809	0	33936	
1810	0	33760	
1811	0	33512	
1812	0	33312	
1813	0	33128	
1814	0	32956	
1815	0	32776	
1816	0	32548	
1817	0	32372	
1818	0	32256	
1819	0	32068	
1820	0	31886	
1821	0	31736	
1822	0	31560	
1823	0	31372	
1824	0	31176	
1825	0	31020	
1826	0	30882	
1827	0	30728	
1828	0	30584	
1829	0	30456	
1830	0	30280	
1831	0	30068	
1832	0	29926	
1833	0	29800	
1834	0	29696	
1835	0	29628	
1836	0	29592	
1837	0	29560	
1838	0	29560	
1839	0	29520	
1840	0	29500	
1841	0	29488	
1842	0	29500	
1843	0	29500	
1844	0	29440	
1845	0	29348	
1846	0	29224	
1847	0	29136	
1848	0	29048	
1849	0	28936	
1850	0	28832	
1851	0	28800	
1852	0	28820	
1853	0	28828	
1854	0	28852	
1855	0	28924	
1856	0	29004	
1857	0	29010	
1858	0	28984	
1859	0	29044	
1860	0	29096	
1861	0	29160	
1862	0	29188	
1863	0	29208	
1864	0	29192	
1865	0	29112	
1866	0	29008	
1867	0	28932	
1868	0	28832	
1869	0	28784	
1870	0	28808	
1871	0	28836	
1872	0	28872	
1873	0	28924	
1874	0	28932	
1875	0	28920	
1876	0	28950	
1877	0	29016	
1878	0	29132	
1879	0	29244	
1880	0	29316	
1881	0	29380	
1882	0	29364	
1883	0	29312	
1884	0	29280	
1885	0	29224	
1886	0	29180	
1887	0	29208	
1888	0	29300	
1889	0	29388	
1890	0	29424	
1891	0	29464	
1892	0	29456	
1893	0	29500	
1894	0	29556	
1895	0	29636	
1896	0	29680	
1897	0	29736	
1898	0	29756	
1899	0	29776	
1900	0	29768	
1901	0	29764	
1902	0	29824	
1903	0	29924	
1904	0	30016	
1905	0	30072	
1906	0	30152	
1907	0	30256	
1908	0	30308	
1909	0	30336	
1910	0	30364	
1911	0	30388	
1912	0	30388	
1913	0	30408	
1914	0	30444	
1915	0	30456	
1916	0	30508	
1917	0	30504	
1918	0	30504	
1919	0	30576	
1920	0	30656	
1921	0	30712	
1922	0	30760	
1923	0	30852	
1924	0	30916	
1925	0	30944	
1926	0	30948	
1927	0	30912	
1928	0	30880	
1929	0	30820	
1930	0	30724	
1931	0	30712	
1932	0	30760	
1933	0	30816	
1934	0	30836	
1935	0	30836	
1936	0	30848	
1937	0	30904	
1938	0	30964	
1939	0	31040	
1940	0	31080	
1941	0	31000	
1942	0	30932	
1943	0	30884	
1944	0	30836	
1945	0	30876	
1946	0	31016	
1947	0	31084	
1948	0	31164	
1949	0	31226	
1950	0	31260	
1951	0	31300	
1952	0	31288	
1953	0	31308	
1954	0	31356	
1955	0	31344	
1956	0	31296	
1957	0	31264	
1958	0	31260	
1959	0	31300	
1960	0	31356	
1961	0	31392	
1962	0	31408	
1963	0	31488	
1964	0	31548	
1965	0	31584	
1966	0	31576	
1967	0	31522	
1968	0	31480	
1969	0	31412	
1970	0	31380	
1971	0	31364	
1972	0	31392	
1973	0	31476	
1974	0	31548	
1975	0	31584	
1976	0	31586	
1977	0	31626	
1978	0	31624	
1979	0	31682	
1980	0	31744	
1981	0	31748	
1982	0	31740	
1983	0	31724	
1984	0	31696	
1985	0	31736	
1986	0	31800	
1987	0	31744	
1988	0	31648	
1989	0	31604	
1990	0	31600	
1991	0	31648	
1992	0	31714	
1993	0	31720	
1994	0	31704	
1995	0	31704	
1996	0	31664	
1997	0	31704	
1998	0	31768	
1999	0	31828	
2000	0	31844	
2001	0	31860	
2002	0	31816	
2003	0	31828	
2004	0	31844	
2005	0	31820	
2006	0	31808	
2007	0	31852	
2008	0	31904	
2009	0	31970	
2010	0	32032	
2011	0	32036	
2012	0	32056	
2013	0	32092	
2014	0	32060	
2015	0	31976	
2016	0	31930	
2017	0	31952	
2018	0	31952	
2019	0	31992	
2020	0	31956	
2021	0	31840	
2022	0	31772	
2023	0	31736	
2024	0	31688	
2025	0	31576	
2026	0	31532	
2027	0	31554	
2028	0	31512	
2029	0	31456	
2030	0	31492	
2031	0	31548	
2032	0	31608	
2033	0	31588	
2034	0	31520	
2035	0	31492	
2036	0	31552	
2037	0	31684	
2038	0	31768	
2039	0	31824	
2040	0	31892	
2041	0	31916	
2042	0	31880	
2043	0	31880	
2044	0	31872	
2045	0	31924	
2046	0	31984	
2047	0	31980	
2048	0	31920	
2049	0	31856	
2050	0	31740	
2051	0	31620	
2052	0	31584	
2053	0	31596	
2054	0	31620	
2055	0	31572	
2056	0	31548	
2057	0	31604	
2058	0	31648	
2059	0	31722	
2060	0	31820	
2061	0	31872	
2062	0	31902	
2063	0	31936	
2064	0	31924	
2065	0	31920	
2066	0	31916	
2067	0	31832	
2068	0	31760	
2069	0	31714	
2070	0	31760	
2071	0	31764	
2072	0	31804	
2073	0	31904	
2074	0	31992	
2075	0	32016	
2076	0	31980	
2077	0	32012	
2078	0	32024	
2079	0	32020	
2080	0	32072	
2081	0	32000	
2082	0	31924	
2083	0	31876	
2084	0	31840	
2085	0	31886	
2086	0	31908	
2087	0	31920	
2088	0	31964	
2089	0	32042	
2090	0	32030	
2091	0	31956	
2092	0	31968	
2093	0	32028	
2094	0	32148	
2095	0	32296	
2096	0	32416	
2097	0	32500	
2098	0	32600	
2099	0	32736	
2100	0	32776	
2101	0	32712	
2102	0	32632	
2103	0	32460	
2104	0	32252	
2105	0	32088	
2106	0	31984	
2107	0	31912	
2108	0	31872	
2109	0	31860	
2110	0	31822	
2111	0	31864	
2112	0	31948	
2113	0	32090	
2114	0	32202	
2115	0	32236	
2116	0	32288	
2117	0	32272	
2118	0	32192	
2119	0	32240	
2120	0	32288	
2121	0	32282	
2122	0	32248	
2123	0	32156	
2124	0	32080	
2125	0	32108	
2126	0	32232	
2127	0	32360	
2128	0	32524	
2129	0	32636	
2130	0	32688	
2131	0	32768	
2132	0	32864	
2133	0	32912	
2134	0	32888	
2135	0	32812	
2136	0	32752	
2137	0	32776	
2138	0	32840	
2139	0	32884	
2140	0	32928	
2141	0	32968	
2142	0	33000	
2143	0	33044	
2144	0	33074	
2145	0	33076	
2146	0	33052	
2147	0	33068	
2148	0	33160	
2149	0	33240	
2150	0	33316	
2151	0	33444	
2152	0	33528	
2153	0	33596	
2154	0	33624	
2155	0	33560	
2156	0	33520	
2157	0	33544	
2158	0	33672	
2159	0	33880	
2160	0	34106	
2161	0	34332	
2162	0	34568	
2163	0	34712	
2164	0	34920	
2165	0	35204	
2166	0	35518	
2167	0	35776	
2168	0	35964	
2169	0	36008	
2170	0	35940	
2171	0	35812	
2172	0	35624	
2173	0	35396	
2174	0	35208	
2175	0	35040	
2176	0	34864	
2177	0	34628	
2178	0	34372	
2179	0	34148	
2180	0	33984	
2181	0	33904	
2182	0	33872	
2183	0	33896	
2184	0	33920	
2185	0	33888	
2186	0	33812	
2187	0	33748	
2188	0	33720	
2189	0	33760	
2190	0	33756	
2191	0	33710	
2192	0	33562	
2193	0	33372	
2194	0	33152	
2195	0	32976	
2196	0	32804	
2197	0	32688	
2198	0	32584	
2199	0	32540	
2200	0	32488	
2201	0	32404	
2202	0	32324	
2203	0	32172	
2204	0	31992	
2205	0	31904	
2206	0	31856	
2207	0	31820	
2208	0	31872	
2209	0	31808	
2210	0	31744	
2211	0	31716	
2212	0	31728	
2213	0	31764	
2214	0	31832	
2215	0	31900	
2216	0	31892	
2217	0	31860	
2218	0	31808	
2219	0	31772	
2220	0	31692	
2221	0	31584	
2222	0	31488	
2223	0	31396	
2224	0	31324	
2225	0	31250	
2226	0	31264	
2227	0	31368	
2228	0	31488	
2229	0	31624	
2230	0	31692	
2231	0	31760	
2232	0	31792	
2233	0	31812	
2234	0	31824	
2235	0	31812	
2236	0	31796	
2237	0	31856	
2238	0	31908	
2239	0	31920	
2240	0	31940	
2241	0	31980	
2242	0	32040	
2243	0	32162	
2244	0	32260	
2245	0	32296	
2246	0	32244	
2247	0	32104	
2248	0	32020	
2249	0	32020	
2250	0	32064	
2251	0	32000	
2252	0	31888	
2253	0	31712	
2254	0	31364	
2255	0	30944	
2256	0	30452	
2257	0	29944	
2258	0	29676	
2259	0	29592	
2260	0	29572	
2261	0	29668	
2262	0	30040	
2263	0	30626	
2264	0	31456	
2265	0	32392	
2266	0	33384	
2267	0	34448	
2268	0	35736	
2269	0	37328	
2270	0	39200	
2271	0	41432	
2272	0	44024	
2273	0	47064	
2274	0	50392	
2275	0	53632	
2276	0	56896	
2277	0	60128	
2278	0	62580	
2279	0	63860	
2280	0	64512	
2281	0	64796	
2282	0	64896	
2283	0	64912	
2284	0	64848	
2285	0	64740	
2286	0	64632	
2287	0	59456	
2288	0	53264	
2289	0	47160	
2290	0	41852	
2291	0	37772	
2292	0	34756	
2293	0	32608	
2294	0	31176	
2295	0	30184	
2296	0	29392	
2297	0	28746	
2298	0	28064	
2299	0	27368	
2300	0	26720	
2301	0	26216	
2302	0	25792	
2303	0	25572	
2304	0	25548	
2305	0	25656	
2306	0	25664	
2307	0	25612	
2308	0	25644	
2309	0	25788	
2310	0	26028	
2311	0	26376	
2312	0	26840	
2313	0	27232	
2314	0	27588	
2315	0	27932	
2316	0	28320	
2317	0	28554	
2318	0	28722	
2319	0	28916	
2320	0	29104	
2321	0	29264	
2322	0	29416	
2323	0	29572	
2324	0	29728	
2325	0	29874	
2326	0	30048	
2327	0	30300	
2328	0	30524	
2329	0	30688	
2330	0	30832	
2331	0	31016	
2332	0	31100	
2333	0	31098	
2334	0	31056	
2335	0	31028	
2336	0	31040	
2337	0	31064	
2338	0	31096	
2339	0	31056	
2340	0	30990	
2341	0	30924	
2342	0	30872	
2343	0	30904	
2344	0	30960	
2345	0	30924	
2346	0	30940	
2347	0	31034	
2348	0	31132	
2349	0	31108	
2350	0	31160	
2351	0	31242	
2352	0	31308	
2353	0	31424	
2354	0	31450	
2355	0	31420	
2356	0	31420	
2357	0	31402	
2358	0	31304	
2359	0	31224	
2360	0	31204	
2361	0	31168	
2362	0	31224	
2363	0	31344	
2364	0	31488	
2365	0	31616	
2366	0	31752	
2367	0	31844	
2368	0	31852	
2369	0	31792	
2370	0	31744	
2371	0	31720	
2372	0	31736	
2373	0	31716	
2374	0	31762	
2375	0	31820	
2376	0	31804	
2377	0	31800	
2378	0	31836	
2379	0	31880	
2380	0	32000	
2381	0	32092	
2382	0	32112	
2383	0	32144	
2384	0	32264	
2385	0	32356	
2386	0	32396	
2387	0	32344	
2388	0	32328	
2389	0	32352	
2390	0	32352	
2391	0	32340	
2392	0	32324	
2393	0	32360	
2394	0	32400	
2395	0	32424	
2396	0	32420	
2397	0	32472	
2398	0	32576	
2399	0	32692	
2400	0	32816	
2401	0	32948	
2402	0	33088	
2403	0	33248	
2404	0	33296	
2405	0	33300	
2406	0	33344	
2407	0	33376	
2408	0	33344	
2409	0	33272	
2410	0	33248	
2411	0	33262	
2412	0	33284	
2413	0	33366	
2414	0	33492	
2415	0	33664	
2416	0	33780	
2417	0	33818	
2418	0	33832	
2419	0	33868	
2420	0	33888	
2421	0	33992	
2422	0	34108	
2423	0	34180	
2424	0	34218	
2425	0	34216	
2426	0	34260	
2427	0	34236	
2428	0	34204	
2429	0	34146	
2430	0	34184	
2431	0	34284	
2432	0	34348	
2433	0	34396	
2434	0	34440	
2435	0	34528	
2436	0	34696	
2437	0	34832	
2438	0	34912	
2439	0	35032	
2440	0	35064	
2441	0	34996	
2442	0	34972	
2443	0	35036	
2444	0	35164	
2445	0	35296	
2446	0	35368	
2447	0	35360	
2448	0	35352	
2449	0	35328	
2450	0	35348	
2451	0	35464	
2452	0	35580	
2453	0	35664	
2454	0	35652	
2455	0	35632	
2456	0	35668	
2457	0	35702	
2458	0	35780	
2459	0	35900	
2460	0	35980	
2461	0	36096	
2462	0	36228	
2463	0	36408	
2464	0	36544	
2465	0	36564	
2466	0	36506	
2467	0	36428	
2468	0	36468	
2469	0	36536	
2470	0	36616	
2471	0	36736	
2472	0	36852	
2473	0	36968	
2474	0	37092	
2475	0	37264	
2476	0	37400	
2477	0	37416	
2478	0	37380	
2479	0	37374	
2480	0	37368	
2481	0	37360	
2482	0	37408	
2483	0	37528	
2484	0	37608	
2485	0	37652	
2486	0	37620	
2487	0	37640	
2488	0	37716	
2489	0	37744	
2490	0	37736	
2491	0	37736	
2492	0	37776	
2493	0	37776	
2494	0	37828	
2495	0	37856	
2496	0	37824	
2497	0	37800	
2498	0	37808	
2499	0	37772	
2500	0	37760	
2501	0	37816	
2502	0	37820	
2503	0	37672	
2504	0	37572	
2505	0	37512	
2506	0	37504	
2507	0	37504	
2508	0	37620	
2509	0	37706	
2510	0	37732	
2511	0	37696	
2512	0	37648	
2513	0	37646	
2514	0	37674	
2515	0	37720	
2516	0	37732	
2517	0	37704	
2518	0	37572	
2519	0	37464	
2520	0	37400	
2521	0	37300	
2522	0	37184	
2523	0	37064	
2524	0	36954	
2525	0	36836	
2526	0	36708	
2527	0	36532	
2528	0	36320	
2529	0	36136	
2530	0	35944	
2531	0	35792	
2532	0	35692	
2533	0	35504	
2534	0	35316	
2535	0	35144	
2536	0	34960	
2537	0	34776	
2538	0	34584	
2539	0	34416	
2540	0	34272	
2541	0	34084	
2542	0	33852	
2543	0	33600	
2544	0	33416	
2545	0	33296	
2546	0	33164	
2547	0	32980	
2548	0	32692	
2549	0	32428	
2550	0	32192	
2551	0	31988	
2552	0	31792	
2553	0	31584	
2554	0	31376	
2555	0	31212	
2556	0	31084	
2557	0	30932	
2558	0	30788	
2559	0	30620	
2560	0	30472	
2561	0	30364	
2562	0	30212	
2563	0	30096	
2564	0	29960	
2565	0	29816	
2566	0	29696	
2567	0	29618	
2568	0	29516	
2569	0	29368	
2570	0	29216	
2571	0	29152	
2572	0	29120	
2573	0	29062	
2574	0	29014	
2575	0	28936	
2576	0	28856	
2577	0	28860	
2578	0	28864	
2579	0	28892	
2580	0	28888	
2581	0	28816	
2582	0	28776	
2583	0	28720	
2584	0	28640	
2585	0	28564	
2586	0	28552	
2587	0	28520	
2588	0	28492	
2589	0	28424	
2590	0	28392	
2591	0	28300	
2592	0	28244	
2593	0	28208	
2594	0	28204	
2595	0	28208	
2596	0	28304	
2597	0	28352	
2598	0	28396	
2599	0	28512	
2600	0	28613	
2601	0	28676	
2602	0	28706	
2603	0	28720	
2604	0	28674	
2605	0	28600	
2606	0	28580	
2607	0	28602	
2608	0	28608	
2609	0	28600	
2610	0	28616	
2611	0	28652	
2612	0	28710	
2613	0	28720	
2614	0	28748	
2615	0	28800	
2616	0	28848	
2617	0	28884	
2618	0	28880	
2619	0	28872	
2620	0	28896	
2621	0	28928	
2622	0	28966	
2623	0	28976	
2624	0	28992	
2625	0	29072	
2626	0	29162	
2627	0	29200	
2628	0	29228	
2629	0	29236	
2630	0	29216	
2631	0	29172	
2632	0	29216	
2633	0	29288	
2634	0	29284	
2635	0	29310	
2636	0	29404	
2637	0	29516	
2638	0	29634	
2639	0	29720	
2640	0	29826	
2641	0	29928	
2642	0	29952	
2643	0	29976	
2644	0	29984	
2645	0	30018	
2646	0	30056	
2647	0	30064	
2648	0	30024	
2649	0	30016	
2650	0	30024	
2651	0	29956	
2652	0	29872	
2653	0	29804	
2654	0	29848	
2655	0	29956	
2656	0	30048	
2657	0	30104	
2658	0	30180	
2659	0	30252	
2660	0	30316	
2661	0	30380	
2662	0	30448	
2663	0	30522	
2664	0	30568	
2665	0	30634	
2666	0	30732	
2667	0	30848	
2668	0	30944	
2669	0	30962	
2670	0	30832	
2671	0	30696	
2672	0	30640	
2673	0	30672	
2674	0	30744	
2675	0	30832	
2676	0	30892	
2677	0	30920	
2678	0	30976	
2679	0	31060	
2680	0	31088	
2681	0	31116	
2682	0	31124	
2683	0	31144	
2684	0	31132	
2685	0	31084	
2686	0	31064	
2687	0	31064	
2688	0	31072	
2689	0	31064	
2690	0	31068	
2691	0	31092	
2692	0	31116	
2693	0	31148	
2694	0	31192	
2695	0	31264	
2696	0	31368	
2697	0	31468	
2698	0	31524	
2699	0	31576	
2700	0	31668	
2701	0	31684	
2702	0	31660	
2703	0	31644	
2704	0	31624	
2705	0	31612	
2706	0	31536	
2707	0	31396	
2708	0	31324	
2709	0	31296	
2710	0	31308	
2711	0	31368	
2712	0	31416	
2713	0	31480	
2714	0	31484	
2715	0	31524	
2716	0	31552	
2717	0	31552	
2718	0	31552	
2719	0	31560	
2720	0	31520	
2721	0	31504	
2722	0	31540	
2723	0	31624	
2724	0	31668	
2725	0	31664	
2726	0	31616	
2727	0	31600	
2728	0	31588	
2729	0	31568	
2730	0	31568	
2731	0	31604	
2732	0	31648	
2733	0	31692	
2734	0	31684	
2735	0	31640	
2736	0	31648	
2737	0	31648	
2738	0	31592	
2739	0	31560	
2740	0	31564	
2741	0	31604	
2742	0	31610	
2743	0	31512	
2744	0	31438	
2745	0	31394	
2746	0	31408	
2747	0	31376	
2748	0	31364	
2749	0	31420	
2750	0	31498	
2751	0	31496	
2752	0	31456	
2753	0	31440	
2754	0	31456	
2755	0	31464	
2756	0	31466	
2757	0	31416	
2758	0	31400	
2759	0	31392	
2760	0	31388	
2761	0	31404	
2762	0	31430	
2763	0	31392	
2764	0	31440	
2765	0	31492	
2766	0	31544	
2767	0	31560	
2768	0	31526	
2769	0	31512	
2770	0	31516	
2771	0	31528	
2772	0	31456	
2773	0	31472	
2774	0	31480	
2775	0	31500	
2776	0	31458	
2777	0	31392	
2778	0	31348	
2779	0	31396	
2780	0	31464	
2781	0	31536	
2782	0	31618	
2783	0	31716	
2784	0	31754	
2785	0	31692	
2786	0	31600	
2787	0	31568	
2788	0	31572	
2789	0	31544	
2790	0	31536	
2791	0	31532	
2792	0	31556	
2793	0	31628	
2794	0	31668	
2795	0	31636	
2796	0	31560	
2797	0	31492	
2798	0	31476	
2799	0	31508	
2800	0	31524	
2801	0	31592	
2802	0	31632	
2803	0	31648	
2804	0	31638	
2805	0	31650	
2806	0	31696	
2807	0	31728	
2808	0	31744	
2809	0	31748	
2810	0	31756	
2811	0	31760	
2812	0	31720	
2813	0	31652	
2814	0	31688	
2815	0	31756	
2816	0	31800	
2817	0	31800	
2818	0	31804	
2819	0	31792	
2820	0	31812	
2821	0	31844	
2822	0	31816	
2823	0	31748	
2824	0	31690	
2825	0	31680	
2826	0	31668	
2827	0	31644	
2828	0	31640	
2829	0	31736	
2830	0	31904	
2831	0	32036	
2832	0	32116	
2833	0	32100	
2834	0	32108	
2835	0	32132	
2836	0	32044	
2837	0	31968	
2838	0	31946	
2839	0	31860	
2840	0	31856	
2841	0	31832	
2842	0	31824	
2843	0	31844	
2844	0	31842	
2845	0	31868	
2846	0	31952	
2847	0	32056	
2848	0	32100	
2849	0	32106	
2850	0	32160	
2851	0	32196	
2852	0	32156	
2853	0	32152	
2854	0	32208	
2855	0	32364	
2856	0	32512	
2857	0	32672	
2858	0	32794	
2859	0	32932	
2860	0	33050	
2861	0	33104	
2862	0	33172	
2863	0	33200	
2864	0	33152	
2865	0	33072	
2866	0	33024	
2867	0	32996	
2868	0	33004	
2869	0	33024	
2870	0	33028	
2871	0	33076	
2872	0	33120	
2873	0	33160	
2874	0	33210	
2875	0	33252	
2876	0	33376	
2877	0	33576	
2878	0	33800	
2879	0	33988	
2880	0	34240	
2881	0	34456	
2882	0	34584	
2883	0	34744	
2884	0	34936	
2885	0	35088	
2886	0	35196	
2887	0	35336	
2888	0	35412	
2889	0	35404	
2890	0	35296	
2891	0	35120	
2892	0	34952	
2893	0	34864	
2894	0	34820	
2895	0	34720	
2896	0	34602	
2897	0	34458	
2898	0	34276	
2899	0	34096	
2900	0	33900	
2901	0	33800	
2902	0	33708	
2903	0	33592	
2904	0	33412	
2905	0	33272	
2906	0	33148	
2907	0	33056	
2908	0	33068	
2909	0	33080	
2910	0	33008	
2911	0	32908	
2912	0	32792	
2913	0	32700	
2914	0	32608	
2915	0	32540	
2916	0	32408	
2917	0	32280	
2918	0	32192	
2919	0	32128	
2920	0	32064	
2921	0	31996	
2922	0	31904	
2923	0	31796	
2924	0	31708	
2925	0	31592	
2926	0	31470	
2927	0	31384	
2928	0	31316	
2929	0	31226	
2930	0	31168	
2931	0	31152	
2932	0	31160	
2933	0	31144	
2934	0	31148	
2935	0	31108	
2936	0	31104	
2937	0	31152	
2938	0	31172	
2939	0	31136	
2940	0	31120	
2941	0	31080	
2942	0	31056	
2943	0	31096	
2944	0	31156	
2945	0	31208	
2946	0	31280	
2947	0	31348	
2948	0	31352	
2949	0	31368	
2950	0	31376	
2951	0	31428	
2952	0	31496	
2953	0	31576	
2954	0	31552	
2955	0	31546	
2956	0	31538	
2957	0	31538	
2958	0	31536	
2959	0	31556	
2960	0	31568	
2961	0	31644	
2962	0	31708	
2963	0	31780	
2964	0	31828	
2965	0	31820	
2966	0	31828	
2967	0	31854	
2968	0	31852	
2969	0	31860	
2970	0	31832	
2971	0	31680	
2972	0	31452	
2973	0	31136	
2974	0	30672	
2975	0	30132	
2976	0	29612	
2977	0	29184	
2978	0	29032	
2979	0	29052	
2980	0	29176	
2981	0	29464	
2982	0	29920	
2983	0	30612	
2984	0	31548	
2985	0	32612	
2986	0	33712	
2987	0	34988	
2988	0	36528	
2989	0	38240	
2990	0	40288	
2991	0	42732	
2992	0	45620	
2993	0	48984	
2994	0	52552	
2995	0	56116	
2996	0	59528	
2997	0	62268	
2998	0	63760	
2999	0	64528	
3000	0	64872	
3001	0	65000	
3002	0	65016	
3003	0	64960	
3004	0	64876	
3005	0	64760	
3006	0	64656	
3007	0	58732	
3008	0	52480	
3009	0	46824	
3010	0	42128	
3011	0	38392	
3012	0	35488	
3013	0	33332	
3014	0	31662	
3015	0	30334	
3016	0	29300	
3017	0	28404	
3018	0	27584	
3019	0	26796	
3020	0	26148	
3021	0	25812	
3022	0	25656	
3023	0	25584	
3024	0	25608	
3025	0	25616	
3026	0	25516	
3027	0	25484	
3028	0	25572	
3029	0	25744	
3030	0	26056	
3031	0	26426	
3032	0	26776	
3033	0	27156	
3034	0	27552	
3035	0	27980	
3036	0	28356	
3037	0	28712	
3038	0	28980	
3039	0	29228	
3040	0	29409	
3041	0	29592	
3042	0	29768	
3043	0	29952	
3044	0	30012	
3045	0	29988	
3046	0	29952	
3047	0	29978	
3048	0	30032	
3049	0	30058	
3050	0	30064	
3051	0	30044	
3052	0	30032	
3053	0	30020	
3054	0	30044	
3055	0	30060	
3056	0	30044	
3057	0	30056	
3058	0	30108	
3059	0	30176	
3060	0	30216	
3061	0	30216	
3062	0	30284	
3063	0	30356	
3064	0	30388	
3065	0	30424	
3066	0	30476	
3067	0	30488	
3068	0	30480	
3069	0	30484	
3070	0	30528	
3071	0	30564	
3072	0	30604	
3073	0	30600	
3074	0	30628	
3075	0	30628	
3076	0	30652	
3077	0	30684	
3078	0	30700	
3079	0	30704	
3080	0	30722	
3081	0	30796	
3082	0	30872	
3083	0	30956	
3084	0	31072	
3085	0	31128	
3086	0	31196	
3087	0	31244	
3088	0	31240	
3089	0	31260	
3090	0	31282	
3091	0	31332	
3092	0	31412	
3093	0	31468	
3094	0	31508	
3095	0	31580	
3096	0	31660	
3097	0	31708	
3098	0	31684	
3099	0	31696	
3100	0	31656	
3101	0	31640	
3102	0	31692	
3103	0	31760	
3104	0	31776	
3105	0	31776	
3106	0	31812	
3107	0	31852	
3108	0	31896	
3109	0	31960	
3110	0	32020	
3111	0	32068	
3112	0	32128	
3113	0	32200	
3114	0	32268	
3115	0	32324	
3116	0	32384	
3117	0	32436	
3118	0	32476	
3119	0	32536	
3120	0	32660	
3121	0	32752	
3122	0	32776	
3123	0	32776	
3124	0	32780	
3125	0	32824	
3126	0	32820	
3127	0	32856	
3128	0	32884	
3129	0	32948	
3130	0	33032	
3131	0	33086	
3132	0	33136	
3133	0	33200	
3134	0	33196	
3135	0	33200	
3136	0	33240	
3137	0	33304	
3138	0	33388	
3139	0	33476	
3140	0	33556	
3141	0	33632	
3142	0	33704	
3143	0	33748	
3144	0	33760	
3145	0	33800	
3146	0	33856	
3147	0	33900	
3148	0	33956	
3149	0	33988	
3150	0	34068	
3151	0	34144	
3152	0	34140	
3153	0	34188	
3154	0	34202	
3155	0	34216	
3156	0	34218	
3157	0	34224	
3158	0	34294	
3159	0	34396	
3160	0	34492	
3161	0	34564	
3162	0	34620	
3163	0	34712	
3164	0	34848	
3165	0	34952	
3166	0	35010	
3167	0	35056	
3168	0	35120	
3169	0	35164	
3170	0	35232	
3171	0	35320	
3172	0	35360	
3173	0	35440	
3174	0	35524	
3175	0	35636	
3176	0	35712	
3177	0	35776	
3178	0	35854	
3179	0	35946	
3180	0	36048	
3181	0	36064	
3182	0	36088	
3183	0	36156	
3184	0	36184	
3185	0	36256	
3186	0	36386	
3187	0	36432	
3188	0	36500	
3189	0	36524	
3190	0	36560	
3191	0	36624	
3192	0	36698	
3193	0	36768	
3194	0	36828	
3195	0	36900	
3196	0	36992	
3197	0	37048	
3198	0	37088	
3199	0	37152	
3200	0	37212	
3201	0	37260	
3202	0	37312	
3203	0	37368	
3204	0	37464	
3205	0	37592	
3206	0	37608	
3207	0	37640	
3208	0	37708	
3209	0	37756	
3210	0	37764	
3211	0	37736	
3212	0	37672	
3213	0	37664	
3214	0	37688	
3215	0	37668	
3216	0	37696	
3217	0	37712	
3218	0	37676	
3219	0	37604	
3220	0	37648	
3221	0	37680	
3222	0	37728	
3223	0	37736	
3224	0	37696	
3225	0	37624	
3226	0	37596	
3227	0	37612	
3228	0	37620	
3229	0	37592	
3230	0	37568	
3231	0	37570	
3232	0	37568	
3233	0	37520	
3234	0	37480	
3235	0	37396	
3236	0	37340	
3237	0	37324	
3238	0	37256	
3239	0	37192	
3240	0	37088	
3241	0	36988	
3242	0	36840	
3243	0	36722	
3244	0	36596	
3245	0	36532	
3246	0	36404	
3247	0	36252	
3248	0	36140	
3249	0	36060	
3250	0	35920	
3251	0	35720	
3252	0	35492	
3253	0	35296	
3254	0	35136	
3255	0	34940	
3256	0	34704	
3257	0	34476	
3258	0	34250	
3259	0	34060	
3260	0	33902	
3261	0	33716	
3262	0	33490	
3263	0	33252	
3264	0	33036	
3265	0	32832	
3266	0	32668	
3267	0	32488	
3268	0	32280	
3269	0	32116	
3270	0	31976	
3271	0	31788	
3272	0	31610	
3273	0	31420	
3274	0	31224	
3275	0	31044	
3276	0	30880	
3277	0	30704	
3278	0	30536	
3279	0	30412	
3280	0	30304	
3281	0	30204	
3282	0	30092	
3283	0	29976	
3284	0	29900	
3285	0	29812	
3286	0	29754	
3287	0	29672	
3288	0	29572	
3289	0	29460	
3290	0	29352	
3291	0	29284	
3292	0	29202	
3293	0	29120	
3294	0	29054	
3295	0	28920	
3296	0	28860	
3297	0	28816	
3298	0	28780	
3299	0	28768	
3300	0	28724	
3301	0	28684	
3302	0	28652	
3303	0	28600	
3304	0	28608	
3305	0	28604	
3306	0	28596	
3307	0	28592	
3308	0	28672	
3309	0	28768	
3310	0	28808	
3311	0	28796	
3312	0	28756	
3313	0	28688	
3314	0	28644	
3315	0	28652	
3316	0	28736	
3317	0	28788	
3318	0	28808	
3319	0	28796	
3320	0	28824	
3321	0	28848	
3322	0	28860	
3323	0	28844	
3324	0	28820	
3325	0	28868	
3326	0	28920	
3327	0	28888	
3328	0	28848	
3329	0	28864	
3330	0	28920	
3331	0	29016	
3332	0	29040	
3333	0	29048	
3334	0	29080	
3335	0	29140	
3336	0	29160	
3337	0	29200	
3338	0	29248	
3339	0	29248	
3340	0	29296	
3341	0	29364	
3342	0	29320	
3343	0	29280	
3344	0	29288	
3345	0	29340	
3346	0	29356	
3347	0	29344	
3348	0	29352	
3349	0	29408	
3350	0	29472	
3351	0	29512	
3352	0	29596	
3353	0	29664	
3354	0	29700	
3355	0	29704	
3356	0	29704	
3357	0	29772	
3358	0	29908	
3359	0	29992	
3360	0	29984	
3361	0	30028	
3362	0	30028	
3363	0	29980	
3364	0	29988	
3365	0	30020	
3366	0	30060	
3367	0	30116	
3368	0	30164	
3369	0	30200	
3370	0	30228	
3371	0	30248	
3372	0	30282	
3373	0	30304	
3374	0	30328	
3375	0	30400	
3376	0	30456	
3377	0	30498	
3378	0	30528	
3379	0	30524	
3380	0	30572	
3381	0	30632	
3382	0	30688	
3383	0	30702	
3384	0	30704	
3385	0	30768	
3386	0	30808	
3387	0	30828	
3388	0	30856	
3389	0	30884	
3390	0	30884	
3391	0	30920	
3392	0	30976	
3393	0	31028	
3394	0	31028	
3395	0	31052	
3396	0	31056	
3397	0	31024	
3398	0	31032	
3399	0	31086	
3400	0	31172	
3401	0	31260	
3402	0	31320	
3403	0	31320	
3404	0	31356	
3405	0	31380	
3406	0	31360	
3407	0	31320	
3408	0	31328	
3409	0	31310	
3410	0	31284	
3411	0	31300	
3412	0	31328	
3413	0	31384	
3414	0	31424	
3415	0	31436	
3416	0	31456	
3417	0	31468	
3418	0	31512	
3419	0	31528	
3420	0	31564	
3421	0	31592	
3422	0	31640	
3423	0	31616	
3424	0	31604	
3425	0	31600	
3426	0	31600	
3427	0	31600	
3428	0	31548	
3429	0	31492	
3430	0	31556	
3431	0	31636	
3432	0	31648	
3433	0	31622	
3434	0	31612	
3435	0	31628	
3436	0	31616	
3437	0	31568	
3438	0	31576	
3439	0	31576	
3440	0	31580	
3441	0	31546	
3442	0	31552	
3443	0	31584	
3444	0	31632	
3445	0	31634	
3446	0	31604	
3447	0	31618	
3448	0	31652	
3449	0	31700	
3450	0	31684	
3451	0	31642	
3452	0	31648	
3453	0	31616	
3454	0	31594	
3455	0	31568	
3456	0	31544	
3457	0	31576	
3458	0	31588	
3459	0	31556	
3460	0	31562	
3461	0	31568	
3462	0	31580	
3463	0	31592	
3464	0	31608	
3465	0	31596	
3466	0	31548	
3467	0	31514	
3468	0	31476	
3469	0	31460	
3470	0	31456	
3471	0	31484	
3472	0	31512	
3473	0	31504	
3474	0	31508	
3475	0	31512	
3476	0	31528	
3477	0	31560	
3478	0	31600	
3479	0	31608	
3480	0	31616	
3481	0	31620	
3482	0	31668	
3483	0	31652	
3484	0	31636	
3485	0	31624	
3486	0	31668	
3487	0	31716	
3488	0	31736	
3489	0	31748	
3490	0	31716	
3491	0	31676	
3492	0	31626	
3493	0	31612	
3494	0	31620	
3495	0	31600	
3496	0	31608	
3497	0	31648	
3498	0	31696	
3499	0	31720	
3500	0	31696	
3501	0	31648	
3502	0	31648	
3503	0	31656	
3504	0	31704	
3505	0	31728	
3506	0	31738	
3507	0	31736	
3508	0	31708	
3509	0	31720	
3510	0	31728	
3511	0	31732	
3512	0	31724	
3513	0	31744	
3514	0	31786	
3515	0	31824	
3516	0	31840	
3517	0	31788	
3518	0	31696	
3519	0	31696	
3520	0	31760	
3521	0	31800	
3522	0	31796	
3523	0	31736	
3524	0	31688	
3525	0	31688	
3526	0	31696	
3527	0	31736	
3528	0	31788	
3529	0	31796	
3530	0	31800	
3531	0	31840	
3532	0	31824	
3533	0	31800	
3534	0	31764	
3535	0	31772	
3536	0	31800	
3537	0	31792	
3538	0	31792	
3539	0	31794	
3540	0	31828	
3541	0	31852	
3542	0	31912	
3543	0	31948	
3544	0	31930	
3545	0	31920	
3546	0	31888	
3547	0	31856	
3548	0	31824	
3549	0	31836	
3550	0	31860	
3551	0	31916	
3552	0	31944	
3553	0	31964	
3554	0	31968	
3555	0	31952	
3556	0	31948	
3557	0	31972	
3558	0	32000	
3559	0	32024	
3560	0	32068	
3561	0	32112	
3562	0	32140	
3563	0	32156	
3564	0	32168	
3565	0	32172	
3566	0	32144	
3567	0	32132	
3568	0	32128	
3569	0	32172	
3570	0	32216	
3571	0	32232	
3572	0	32244	
3573	0	32252	
3574	0	32224	
3575	0	32200	
3576	0	32200	
3577	0	32212	
3578	0	32252	
3579	0	32296	
3580	0	32328	
3581	0	32392	
3582	0	32400	
3583	0	32396	
3584	0	32404	
3585	0	32292	
3586	0	32240	
3587	0	32192	
3588	0	32232	
3589	0	32320	
3590	0	32352	
3591	0	32340	
3592	0	32336	
3593	0	32452	
3594	0	32616	
3595	0	32740	
3596	0	32852	
3597	0	32980	
3598	0	33116	
3599	0	33152	
3600	0	33192	
3601	0	33304	
3602	0	33370	
3603	0	33380	
3604	0	33388	
3605	0	33456	
3606	0	33496	
3607	0	33472	
3608	0	33420	
3609	0	33414	
3610	0	33376	
3611	0	33320	
3612	0	33282	
3613	0	33288	
3614	0	33316	
3615	0	33340	
3616	0	33368	
3617	0	33412	
3618	0	33480	
3619	0	33632	
3620	0	33824	
3621	0	34036	
3622	0	34252	
3623	0	34464	
3624	0	34660	
3625	0	34868	
3626	0	35020	
3627	0	35136	
3628	0	35200	
3629	0	35328	
3630	0	35412	
3631	0	35448	
3632	0	35416	
3633	0	35344	
3634	0	35268	
3635	0	35172	
3636	0	35056	
3637	0	34992	
3638	0	34924	
3639	0	34744	
3640	0	34592	
3641	0	34464	
3642	0	34328	
3643	0	34192	
3644	0	34092	
3645	0	33992	
3646	0	33828	
3647	0	33696	
3648	0	33624	
3649	0	33516	
3650	0	33368	
3651	0	33304	
3652	0	33264	
3653	0	33188	
3654	0	33096	
3655	0	33000	
3656	0	32972	
3657	0	32936	
3658	0	32840	
3659	0	32704	
3660	0	32500	
3661	0	32356	
3662	0	32356	
3663	0	32372	
3664	0	32300	
3665	0	32216	
3666	0	32080	
3667	0	31960	
3668	0	31840	
3669	0	31704	
3670	0	31624	
3671	0	31552	
3672	0	31484	
3673	0	31468	
3674	0	31412	
3675	0	31432	
3676	0	31408	
3677	0	31412	
3678	0	31394	
3679	0	31404	
3680	0	31418	
3681	0	31424	
3682	0	31418	
3683	0	31406	
3684	0	31368	
3685	0	31360	
3686	0	31348	
3687	0	31336	
3688	0	31344	
3689	0	31360	
3690	0	31428	
3691	0	31484	
3692	0	31504	
3693	0	31500	
3694	0	31552	
3695	0	31592	
3696	0	31628	
3697	0	31676	
3698	0	31744	
3699	0	31800	
3700	0	31868	
3701	0	31872	
3702	0	31852	
3703	0	31880	
3704	0	31908	
3705	0	31892	
3706	0	31888	
3707	0	31868	
3708	0	31888	
3709	0	31932	
3710	0	32000	
3711	0	32028	
3712	0	31976	
3713	0	31840	
3714	0	31588	
3715	0	31312	
3716	0	30970	
3717	0	30488	
3718	0	29834	
3719	0	29248	
3720	0	28868	
3721	0	28720	
3722	0	28728	
3723	0	28864	
3724	0	29190	
3725	0	29696	
3726	0	30392	
3727	0	31344	
3728	0	32496	
3729	0	33836	
3730	0	35300	
3731	0	36912	
3732	0	38720	
3733	0	40964	
3734	0	43574	
3735	0	46628	
3736	0	50192	
3737	0	53880	
3738	0	57392	
3739	0	60756	
3740	0	63008	
3741	0	64184	
3742	0	64760	
3743	0	65020	
3744	0	65104	
3745	0	65088	
3746	0	65024	
3747	0	64932	
3748	0	64816	
3749	0	64696	
3750	0	62436	
3751	0	56096	
3752	0	50504	
3753	0	45858	
3754	0	42072	
3755	0	39060	
3756	0	36648	
3757	0	34664	
3758	0	32964	
3759	0	31448	
3760	0	30072	
3761	0	28968	
3762	0	28176	
3763	0	27608	
3764	0	27234	
3765	0	27004	
3766	0	26888	
3767	0	26840	
3768	0	26848	
3769	0	26860	
3770	0	26848	
3771	0	26900	
3772	0	27044	
3773	0	27272	
3774	0	27488	
3775	0	27720	
3776	0	28016	
3777	0	28340	
3778	0	28652	
3779	0	28904	
3780	0	29140	
3781	0	29356	
3782	0	29480	
3783	0	29504	
3784	0	29516	
3785	0	29536	
3786	0	29572	
3787	0	29572	
3788	0	29548	
3789	0	29560	
3790	0	29584	
3791	0	29596	
3792	0	29600	
3793	0	29644	
3794	0	29704	
3795	0	29724	
3796	0	29762	
3797	0	29792	
3798	0	29728	
3799	0	29664	
3800	0	29672	
3801	0	29712	
3802	0	29680	
3803	0	29640	
3804	0	29668	
3805	0	29710	
3806	0	29808	
3807	0	29908	
3808	0	29944	
3809	0	29928	
3810	0	29960	
3811	0	29996	
3812	0	30064	
3813	0	30124	
3814	0	30168	
3815	0	30184	
3816	0	30176	
3817	0	30158	
3818	0	30208	
3819	0	30256	
3820	0	30264	
3821	0	30304	
3822	0	30364	
3823	0	30432	
3824	0	30508	
3825	0	30564	
3826	0	30540	
3827	0	30528	
3828	0	30560	
3829	0	30624	
3830	0	30692	
3831	0	30742	
3832	0	30828	
3833	0	30892	
3834	0	30952	
3835	0	31040	
3836	0	31100	
3837	0	31156	
3838	0	31168	
3839	0	31136	
3840	0	31144	
3841	0	31128	
3842	0	31164	
3843	0	31220	
3844	0	31244	
3845	0	31258	
3846	0	31276	
3847	0	31320	
3848	0	31364	
3849	0	31396	
3850	0	31416	
3851	0	31468	
3852	0	31570	
3853	0	31676	
3854	0	31756	
3855	0	31752	
3856	0	31776	
3857	0	31784	
3858	0	31788	
3859	0	31892	
3860	0	31988	
3861	0	32036	
3862	0	32048	
3863	0	32080	
3864	0	32116	
3865	0	32178	
3866	0	32232	
3867	0	32290	
3868	0	32312	
3869	0	32348	
3870	0	32376	
3871	0	32392	
3872	0	32416	
3873	0	32472	
3874	0	32528	
3875	0	32576	
3876	0	32608	
3877	0	32672	
3878	0	32734	
3879	0	32760	
3880	0	32872	
3881	0	32960	
3882	0	33040	
3883	0	33056	
3884	0	33076	
3885	0	33144	
3886	0	33260	
3887	0	33292	
3888	0	33272	
3889	0	33288	
3890	0	33312	
3891	0	33376	
3892	0	33472	
3893	0	33492	
3894	0	33516	
3895	0	33544	
3896	0	33580	
3897	0	33680	
3898	0	33756	
3899	0	33818	
3900	0	33864	
3901	0	33860	
3902	0	33948	
3903	0	34060	
3904	0	34112	
3905	0	34136	
3906	0	34184	
3907	0	34256	
3908	0	34332	
3909	0	34416	
3910	0	34488	
3911	0	34508	
3912	0	34560	
3913	0	34636	
3914	0	34720	
3915	0	34808	
3916	0	34928	
3917	0	35032	
3918	0	35104	
3919	0	35200	
3920	0	35240	
3921	0	35296	
3922	0	35338	
3923	0	35344	
3924	0	35424	
3925	0	35568	
3926	0	35704	
3927	0	35792	
3928	0	35864	
3929	0	35872	
3930	0	35824	
3931	0	35832	
3932	0	35936	
3933	0	36024	
3934	0	36136	
3935	0	36236	
3936	0	36312	
3937	0	36400	
3938	0	36476	
3939	0	36564	
3940	0	36652	
3941	0	36680	
3942	0	36744	
3943	0	36856	
3944	0	36928	
3945	0	37032	
3946	0	37128	
3947	0	37176	
3948	0	37148	
3949	0	37144	
3950	0	37162	
3951	0	37184	
3952	0	37264	
3953	0	37344	
3954	0	37354	
3955	0	37280	
3956	0	37212	
3957	0	37184	
3958	0	37232	
3959	0	37236	
3960	0	37280	
3961	0	37364	
3962	0	37404	
3963	0	37428	
3964	0	37444	
3965	0	37440	
3966	0	37440	
3967	0	37448	
3968	0	37472	
3969	0	37452	
3970	0	37456	
3971	0	37408	
3972	0	37368	
3973	0	37352	
3974	0	37368	
3975	0	37356	
3976	0	37296	
3977	0	37216	
3978	0	37196	
3979	0	37200	
3980	0	37188	
3981	0	37140	
3982	0	37052	
3983	0	36984	
3984	0	36920	
3985	0	36836	
3986	0	36720	
3987	0	36628	
3988	0	36536	
3989	0	36460	
3990	0	36352	
3991	0	36264	
3992	0	36152	
3993	0	36016	
3994	0	35860	
3995	0	35708	
3996	0	35520	
3997	0	35308	
3998	0	35160	
3999	0	35000	
4000	0	34760	
4001	0	34560	
4002	0	34400	
4003	0	34164	
4004	0	33912	
4005	0	33668	
4006	0	33472	
4007	0	33332	
4008	0	33116	
4009	0	32932	
4010	0	32788	
4011	0	32608	
4012	0	32400	
4013	0	32180	
4014	0	31936	
4015	0	31764	
4016	0	31624	
4017	0	31473	
4018	0	31328	
4019	0	31156	
4020	0	31008	
4021	0	30816	
4022	0	30632	
4023	0	30500	
4024	0	30368	
4025	0	30238	
4026	0	30088	
4027	0	29948	
4028	0	29820	
4029	0	29696	
4030	0	29604	
4031	0	29552	
4032	0	29480	
4033	0	29414	
4034	0	29316	
4035	0	29214	
4036	0	29144	
4037	0	29104	
4038	0	29020	
4039	0	28972	
4040	0	28948	
4041	0	28920	
4042	0	28880	
4043	0	28848	
4044	0	28824	
4045	0	28836	
4046	0	28882	
4047	0	28874	
4048	0	28840	
4049	0	28812	
4050	0	28808	
4051	0	28780	
4052	0	28696	
4053	0	28660	
4054	0	28676	
4055	0	28676	
4056	0	28676	
4057	0	28712	
4058	0	28752	
4059	0	28760	
4060	0	28752	
4061	0	28736	
4062	0	28704	
4063	0	28664	
4064	0	28704	
4065	0	28752	
4066	0	28768	
4067	0	28824	
4068	0	28984	
4069	0	29088	
4070	0	29061	
4071	0	29044	
4072	0	29034	
4073	0	29060	
4074	0	29114	
4075	0	29154	
4076	0	29192	
4077	0	29224	
4078	0	29232	
4079	0	29248	
4080	0	29280	
4081	0	29360	
4082	0	29416	
4083	0	29452	
4084	0	29472	
4085	0	29440	
4086	0	29408	
4087	0	29402	
4088	0	29444	
4089	0	29500	
4090	0	29552	
4091	0	29620	
4092	0	29668	
4093	0	29716	
4094	0	29738	
4095	0	29744	
4096	0	29768	
4097	0	29812	
4098	0	29836	
4099	0	29908	
4100	0	29978	
4101	0	30028	
4102	0	30032	
4103	0	30048	
4104	0	30068	
4105	0	30100	
4106	0	30200	
4107	0	30232	
4108	0	30240	
4109	0	30240	
4110	0	30242	
4111	0	30276	
4112	0	30316	
4113	0	30356	
4114	0	30368	
4115	0	30420	
4116	0	30472	
4117	0	30541	
4118	0	30588	
4119	0	30604	
4120	0	30562	
4121	0	30568	
4122	0	30596	
4123	0	30636	
4124	0	30727	
4125	0	30786	
4126	0	30792	
4127	0	30820	
4128	0	30876	
4129	0	30904	
4130	0	30908	
4131	0	30912	
4132	0	30928	
4133	0	30940	
4134	0	31044	
4135	0	31104	
4136	0	31132	
4137	0	31168	
4138	0	31180	
4139	0	31168	
4140	0	31130	
4141	0	31120	
4142	0	31092	
4143	0	31108	
4144	0	31160	
4145	0	31216	
4146	0	31264	
4147	0	31302	
4148	0	31308	
4149	0	31244	
4150	0	31232	
4151	0	31242	
4152	0	31204	
4153	0	31200	
4154	0	31200	
4155	0	31232	
4156	0	31296	
4157	0	31352	
4158	0	31348	
4159	0	31376	
4160	0	31448	
4161	0	31464	
4162	0	31448	
4163	0	31420	
4164	0	31440	
4165	0	31460	
4166	0	31458	
4167	0	31476	
4168	0	31516	
4169	0	31520	
4170	0	31552	
4171	0	31532	
4172	0	31502	
4173	0	31472	
4174	0	31456	
4175	0	31500	
4176	0	31522	
4177	0	31524	
4178	0	31568	
4179	0	31540	
4180	0	31480	
4181	0	31456	
4182	0	31498	
4183	0	31516	
4184	0	31460	
4185	0	31440	
4186	0	31492	
4187	0	31564	
4188	0	31524	
4189	0	31480	
4190	0	31504	
4191	0	31509	
4192	0	31536	
4193	0	31572	
4194	0	31588	
4195	0	31600	
4196	0	31636	
4197	0	31640	
4198	0	31650	
4199	0	31660	
4200	0	31624	
4201	0	31636	
4202	0	31648	
4203	0	31632	
4204	0	31656	
4205	0	31656	
4206	0	31672	
4207	0	31712	
4208	0	31720	
4209	0	31724	
4210	0	31728	
4211	0	31748	
4212	0	31748	
4213	0	31792	
4214	0	31816	
4215	0	31784	
4216	0	31732	
4217	0	31712	
4218	0	31696	
4219	0	31704	
4220	0	31716	
4221	0	31708	
4222	0	31704	
4223	0	31794	
4224	0	31848	
4225	0	31836	
4226	0	31788	
4227	0	31788	
4228	0	31800	
4229	0	31802	
4230	0	31792	
4231	0	31848	
4232	0	31872	
4233	0	31832	
4234	0	31880	
4235	0	31872	
4236	0	31832	
4237	0	31800	
4238	0	31784	
4239	0	31764	
4240	0	31688	
4241	0	31660	
4242	0	31732	
4243	0	31738	
4244	0	31722	
4245	0	31748	
4246	0	31768	
4247	0	31768	
4248	0	31776	
4249	0	31796	
4250	0	31840	
4251	0	31896	
4252	0	31888	
4253	0	31844	
4254	0	31816	
4255	0	31792	
4256	0	31800	
4257	0	31808	
4258	0	31804	
4259	0	31808	
4260	0	31810	
4261	0	31816	
4262	0	31840	
4263	0	31832	
4264	0	31832	
4265	0	31848	
4266	0	31916	
4267	0	31948	
4268	0	31904	
4269	0	31916	
4270	0	31940	
4271	0	31972	
4272	0	32028	
4273	0	32032	
4274	0	32016	
4275	0	31956	
4276	0	31892	
4277	0	31874	
4278	0	31884	
4279	0	31908	
4280	0	31960	
4281	0	31960	
4282	0	31960	
4283	0	31988	
4284	0	32016	
4285	0	32034	
4286	0	32016	
4287	0	32004	
4288	0	32000	
4289	0	32044	
4290	0	32060	
4291	0	32056	
4292	0	32020	
4293	0	31994	
4294	0	32020	
4295	0	32048	
4296	0	32086	
4297	0	32128	
4298	0	32132	
4299	0	32112	
4300	0	32120	
4301	0	32124	
4302	0	32116	
4303	0	32096	
4304	0	32124	
4305	0	32152	
4306	0	32148	
4307	0	32140	
4308	0	32160	
4309	0	32186	
4310	0	32188	
4311	0	32220	
4312	0	32256	
4313	0	32280	
4314	0	32276	
4315	0	32256	
4316	0	32272	
4317	0	32276	
4318	0	32304	
4319	0	32344	
4320	0	32348	
4321	0	32340	
4322	0	32320	
4323	0	32316	
4324	0	32368	
4325	0	32348	
4326	0	32364	
4327	0	32396	
4328	0	32424	
4329	0	32488	
4330	0	32544	
4331	0	32504	
4332	0	32480	
4333	0	32496	
4334	0	32448	
4335	0	32372	
4336	0	32332	
4337	0	32336	
4338	0	32320	
4339	0	32292	
4340	0	32320	
4341	0	32336	
4342	0	32398	
4343	0	32448	
4344	0	32532	
4345	0	32552	
4346	0	32544	
4347	0	32532	
4348	0	32536	
4349	0	32504	
4350	0	32484	
4351	0	32472	
4352	0	32504	
4353	0	32484	
4354	0	32472	
4355	0	32444	
4356	0	32392	
4357	0	32424	
4358	0	32480	
4359	0	32524	
4360	0	32560	
4361	0	32616	
4362	0	32624	
4363	0	32574	
4364	0	32552	
4365	0	32576	
4366	0	32576	
4367	0	32544	
4368	0	32536	
4369	0	32576	
4370	0	32600	
4371	0	32636	
4372	0	32648	
4373	0	32648	
4374	0	32640	
4375	0	32676	
4376	0	32720	
4377	0	32704	
4378	0	32724	
4379	0	32668	
4380	0	32612	
4381	0	32628	
4382	0	32736	
4383	0	32892	
4384	0	33028	
4385	0	33178	
4386	0	33280	
4387	0	33368	
4388	0	33440	
4389	0	33516	
4390	0	33648	
4391	0	33736	
4392	0	33800	
4393	0	33832	
4394	0	33848	
4395	0	33832	
4396	0	33812	
4397	0	33808	
4398	0	33724	
4399	0	33692	
4400	0	33672	
4401	0	33640	
4402	0	33624	
4403	0	33640	
4404	0	33624	
4405	0	33590	
4406	0	33556	
4407	0	33556	
4408	0	33576	
4409	0	33716	
4410	0	33976	
4411	0	34296	
4412	0	34552	
4413	0	34752	
4414	0	34924	
4415	0	35044	
4416	0	35154	
4417	0	35296	
4418	0	35448	
4419	0	35576	
4420	0	35640	
4421	0	35648	
4422	0	35604	
4423	0	35532	
4424	0	35432	
4425	0	35296	
4426	0	35216	
4427	0	35132	
4428	0	34996	
4429	0	34844	
4430	0	34680	
4431	0	34540	
4432	0	34412	
4433	0	34300	
4434	0	34168	
4435	0	34080	
4436	0	33956	
4437	0	33788	
4438	0	33600	
4439	0	33472	
4440	0	33480	
4441	0	33538	
4442	0	33480	
4443	0	33428	
4444	0	33424	
4445	0	33380	
4446	0	33276	
4447	0	33160	
4448	0	32964	
4449	0	32800	
4450	0	32624	
4451	0	32492	
4452	0	32464	
4453	0	32428	
4454	0	32344	
4455	0	32248	
4456	0	32192	
4457	0	32108	
4458	0	31968	
4459	0	31840	
4460	0	31716	
4461	0	31604	
4462	0	31544	
4463	0	31568	
4464	0	31568	
4465	0	31548	
4466	0	31528	
4467	0	31468	
4468	0	31480	
4469	0	31464	
4470	0	31476	
4471	0	31504	
4472	0	31552	
4473	0	31556	
4474	0	31608	
4475	0	31694	
4476	0	31756	
4477	0	31776	
4478	0	31796	
4479	0	31872	
4480	0	31938	
4481	0	31958	
4482	0	31936	
4483	0	31904	
4484	0	31890	
4485	0	31892	
4486	0	31836	
4487	0	31828	
4488	0	31840	
4489	0	31840	
4490	0	31824	
4491	0	31880	
4492	0	31984	
4493	0	32020	
4494	0	32044	
4495	0	32058	
4496	0	32042	
4497	0	32100	
4498	0	32142	
4499	0	32168	
4500	0	32138	
4501	0	32068	
4502	0	31964	
4503	0	31792	
4504	0	31552	
4505	0	31176	
4506	0	30656	
4507	0	30028	
4508	0	29460	
4509	0	29132	
4510	0	28992	
4511	0	28954	
4512	0	29120	
4513	0	29470	
4514	0	30076	
4515	0	30848	
4516	0	31860	
4517	0	33052	
4518	0	34412	
4519	0	35972	
4520	0	37648	
4521	0	39520	
4522	0	41828	
4523	0	44538	
4524	0	47720	
4525	0	51352	
4526	0	54984	
4527	0	58420	
4528	0	61524	
4529	0	63404	
4530	0	64360	
4531	0	64824	
4532	0	65008	
4533	0	65056	
4534	0	65032	
4535	0	64936	
4536	0	64848	
4537	0	64728	
4538	0	64632	
4539	0	62732	
4540	0	56384	
4541	0	50948	
4542	0	46492	
4543	0	42872	
4544	0	39938	
4545	0	37544	
4546	0	35448	
4547	0	33668	
4548	0	32122	
4549	0	30804	
4550	0	29732	
4551	0	28872	
4552	0	28204	
4553	0	27768	
4554	0	27432	
4555	0	27224	
4556	0	27156	
4557	0	27204	
4558	0	27196	
4559	0	27168	
4560	0	27184	
4561	0	27212	
4562	0	27356	
4563	0	27568	
4564	0	27864	
4565	0	28208	
4566	0	28512	
4567	0	28736	
4568	0	28932	
4569	0	29102	
4570	0	29256	
4571	0	29368	
4572	0	29466	
4573	0	29530	
4574	0	29560	
4575	0	29544	
4576	0	29528	
4577	0	29516	
4578	0	29508	
4579	0	29496	
4580	0	29460	
4581	0	29440	
4582	0	29472	
4583	0	29476	
4584	0	29480	
4585	0	29498	
4586	0	29496	
4587	0	29530	
4588	0	29556	
4589	0	29544	
4590	0	29560	
4591	0	29584	
4592	0	29636	
4593	0	29664	
4594	0	29696	
4595	0	29760	
4596	0	29792	
4597	0	29844	
4598	0	29888	
4599	0	29880	
4600	0	29898	
4601	0	29976	
4602	0	29996	
4603	0	29988	
4604	0	30000	
4605	0	30040	
4606	0	30100	
4607	0	30080	
4608	0	30100	
4609	0	30148	
4610	0	30178	
4611	0	30204	
4612	0	30276	
4613	0	30380	
4614	0	30452	
4615	0	30480	
4616	0	30512	
4617	0	30564	
4618	0	30652	
4619	0	30704	
4620	0	30706	
4621	0	30696	
4622	0	30696	
4623	0	30712	
4624	0	30754	
4625	0	30808	
4626	0	30896	
4627	0	30928	
4628	0	31004	
4629	0	31088	
4630	0	31152	
4631	0	31170	
4632	0	31188	
4633	0	31240	
4634	0	31296	
4635	0	31356	
4636	0	31424	
4637	0	31476	
4638	0	31512	
4639	0	31564	
4640	0	31596	
4641	0	31620	
4642	0	31672	
4643	0	31728	
4644	0	31748	
4645	0	31784	
4646	0	31808	
4647	0	31840	
4648	0	31912	
4649	0	31964	
4650	0	31980	
4651	0	31972	
4652	0	31992	
4653	0	32030	
4654	0	32096	
4655	0	32120	
4656	0	32140	
4657	0	32160	
4658	0	32164	
4659	0	32220	
4660	0	32304	
4661	0	32432	
4662	0	32528	
4663	0	32624	
4664	0	32672	
4665	0	32668	
4666	0	32636	
4667	0	32660	
4668	0	32740	
4669	0	32816	
4670	0	32876	
4671	0	32962	
4672	0	32988	
4673	0	32984	
4674	0	33040	
4675	0	33056	
4676	0	33040	
4677	0	33044	
4678	0	33068	
4679	0	33120	
4680	0	33168	
4681	0	33216	
4682	0	33328	
4683	0	33400	
4684	0	33488	
4685	0	33608	
4686	0	33664	
4687	0	33740	
4688	0	33804	
4689	0	33884	
4690	0	33944	
4691	0	34020	
4692	0	34068	
4693	0	34090	
4694	0	34164	
4695	0	34204	
4696	0	34224	
4697	0	34298	
4698	0	34336	
4699	0	34360	
4700	0	34412	
4701	0	34480	
4702	0	34512	
4703	0	34560	
4704	0	34648	
4705	0	34772	
4706	0	34902	
4707	0	35028	
4708	0	35128	
4709	0	35168	
4710	0	35180	
4711	0	35228	
4712	0	35292	
4713	0	35320	
4714	0	35352	
4715	0	35432	
4716	0	35492	
4717	0	35560	
4718	0	35608	
4719	0	35674	
4720	0	35788	
4721	0	35824	
4722	0	35852	
4723	0	35956	
4724	0	36032	
4725	0	36114	
4726	0	36180	
4727	0	36250	
4728	0	36336	
4729	0	36432	
4730	0	36500	
4731	0	36572	
4732	0	36640	
4733	0	36692	
4734	0	36776	
4735	0	36888	
4736	0	36948	
4737	0	36996	
4738	0	37032	
4739	0	37044	
4740	0	37072	
4741	0	37084	
4742	0	37088	
4743	0	37076	
4744	0	37132	
4745	0	37164	
4746	0	37184	
4747	0	37172	
4748	0	37176	
4749	0	37192	
4750	0	37216	
4751	0	37216	
4752	0	37176	
4753	0	37184	
4754	0	37200	
4755	0	37196	
4756	0	37228	
4757	0	37256	
4758	0	37280	
4759	0	37280	
4760	0	37328	
4761	0	37288	
4762	0	37264	
4763	0	37280	
4764	0	37292	
4765	0	37276	
4766	0	37216	
4767	0	37212	
4768	0	37224	
4769	0	37212	
4770	0	37168	
4771	0	37148	
4772	0	37102	
4773	0	37016	
4774	0	36956	
4775	0	36888	
4776	0	36808	
4777	0	36696	
4778	0	36580	
4779	0	36456	
4780	0	36352	
4781	0	36292	
4782	0	36224	
4783	0	36108	
4784	0	35944	
4785	0	35792	
4786	0	35626	
4787	0	35416	
4788	0	35244	
4789	0	35056	
4790	0	34848	
4791	0	34648	
4792	0	34444	
4793	0	34244	
4794	0	34048	
4795	0	33832	
4796	0	33586	
4797	0	33376	
4798	0	33144	
4799	0	32932	
4800	0	32732	
4801	0	32536	
4802	0	32336	
4803	0	32120	
4804	0	31914	
4805	0	31732	
4806	0	31556	
4807	0	31440	
4808	0	31308	
4809	0	31160	
4810	0	31020	
4811	0	30900	
4812	0	30776	
4813	0	30584	
4814	0	30424	
4815	0	30224	
4816	0	30052	
4817	0	29924	
4818	0	29860	
4819	0	29828	
4820	0	29740	
4821	0	29608	
4822	0	29488	
4823	0	29376	
4824	0	29300	
4825	0	29172	
4826	0	29108	
4827	0	29088	
4828	0	29036	
4829	0	28940	
4830	0	28880	
4831	0	28840	
4832	0	28808	
4833	0	28764	
4834	0	28740	
4835	0	28756	
4836	0	28736	
4837	0	28700	
4838	0	28668	
4839	0	28660	
4840	0	28648	
4841	0	28668	
4842	0	28644	
4843	0	28616	
4844	0	28636	
4845	0	28652	
4846	0	28696	
4847	0	28728	
4848	0	28720	
4849	0	28748	
4850	0	28788	
4851	0	28816	
4852	0	28816	
4853	0	28784	
4854	0	28760	
4855	0	28744	
4856	0	28748	
4857	0	28762	
4858	0	28824	
4859	0	28880	
4860	0	28882	
4861	0	28856	
4862	0	28880	
4863	0	28924	
4864	0	28992	
4865	0	28996	
4866	0	29008	
4867	0	29024	
4868	0	29052	
4869	0	29130	
4870	0	29156	
4871	0	29220	
4872	0	29280	
4873	0	29360	
4874	0	29408	
4875	0	29402	
4876	0	29364	
4877	0	29348	
4878	0	29420	
4879	0	29500	
4880	0	29532	
4881	0	29582	
4882	0	29620	
4883	0	29604	
4884	0	29658	
4885	0	29744	
4886	0	29824	
4887	0	29864	
4888	0	29900	
4889	0	29944	
4890	0	29924	
4891	0	29892	
4892	0	29928	
4893	0	29970	
4894	0	30050	
4895	0	30128	
4896	0	30200	
4897	0	30282	
4898	0	30344	
4899	0	30328	
4900	0	30340	
4901	0	30316	
4902	0	30276	
4903	0	30274	
4904	0	30276	
4905	0	30332	
4906	0	30404	
4907	0	30432	
4908	0	30458	
4909	0	30536	
4910	0	30620	
4911	0	30644	
4912	0	30684	
4913	0	30724	
4914	0	30716	
4915	0	30720	
4916	0	30736	
4917	0	30744	
4918	0	30774	
4919	0	30812	
4920	0	30824	
4921	0	30824	
4922	0	30792	
4923	0	30812	
4924	0	30832	
4925	0	30872	
4926	0	30968	
4927	0	31016	
4928	0	31012	
4929	0	30992	
4930	0	30984	
4931	0	31020	
4932	0	31048	
4933	0	31100	
4934	0	31144	
4935	0	31162	
4936	0	31206	
4937	0	31228	
4938	0	31240	
4939	0	31232	
4940	0	31256	
4941	0	31304	
4942	0	31308	
4943	0	31332	
4944	0	31312	
4945	0	31300	
4946	0	31312	
4947	0	31320	
4948	0	31372	
4949	0	31416	
4950	0	31420	
4951	0	31456	
4952	0	31460	
4953	0	31452	
4954	0	31432	
4955	0	31488	
4956	0	31498	
4957	0	31516	
4958	0	31560	
4959	0	31548	
4960	0	31502	
4961	0	31524	
4962	0	31562	
4963	0	31548	
4964	0	31512	
4965	0	31544	
4966	0	31560	
4967	0	31588	
4968	0	31592	
4969	0	31608	
4970	0	31640	
4971	0	31612	
4972	0	31536	
4973	0	31484	
4974	0	31436	
4975	0	31452	
4976	0	31482	
4977	0	31464	
4978	0	31500	
4979	0	31584	
4980	0	31636	
4981	0	31648	
4982	0	31668	
4983	0	31716	
4984	0	31760	
4985	0	31776	
4986	0	31770	
4987	0	31700	
4988	0	31652	
4989	0	31640	
4990	0	31648	
4991	0	31704	
4992	0	31712	
4993	0	31696	
4994	0	31736	
4995	0	31720	
4996	0	31708	
4997	0	31648	
4998	0	31628	
4999	0	31668	
5000	0	31648	
5001	0	31644	
5002	0	31644	
5003	0	31600	
5004	0	31564	
5005	0	31532	
5006	0	31538	
5007	0	31552	
5008	0	31600	
5009	0	31668	
5010	0	31736	
5011	0	31736	
5012	0	31728	
5013	0	31720	
5014	0	31724	
5015	0	31776	
5016	0	31816	
5017	0	31832	
5018	0	31800	
5019	0	31744	
5020	0	31704	
5021	0	31720	
5022	0	31752	
5023	0	31724	
5024	0	31744	
5025	0	31732	
5026	0	31750	
5027	0	31784	
5028	0	31780	
5029	0	31752	
5030	0	31756	
5031	0	31760	
5032	0	31760	
5033	0	31768	
5034	0	31772	
5035	0	31744	
5036	0	31768	
5037	0	31808	
5038	0	31840	
5039	0	31888	
5040	0	31896	
5041	0	31876	
5042	0	31860	
5043	0	31842	
5044	0	31824	
5045	0	31864	
5046	0	31920	
5047	0	31938	
5048	0	31920	
5049	0	31852	
5050	0	31856	
5051	0	31840	
5052	0	31860	
5053	0	31880	
5054	0	31908	
5055	0	31884	
5056	0	31840	
5057	0	31872	
5058	0	31924	
5059	0	31976	
5060	0	31994	
5061	0	31992	
5062	0	31968	
5063	0	31968	
5064	0	31968	
5065	0	31984	
5066	0	31960	
5067	0	31904	
5068	0	31876	
5069	0	31888	
5070	0	31968	
5071	0	32008	
5072	0	31960	
5073	0	31952	
5074	0	32016	
5075	0	32028	
5076	0	32060	
5077	0	32096	
5078	0	32120	
5079	0	32104	
5080	0	32092	
5081	0	32128	
5082	0	32156	
5083	0	32172	
5084	0	32192	
5085	0	32188	
5086	0	32192	
5087	0	32172	
5088	0	32152	
5089	0	32180	
5090	0	32228	
5091	0	32242	
5092	0	32194	
5093	0	32224	
5094	0	32256	
5095	0	32256	
5096	0	32256	
5097	0	32256	
5098	0	32264	
5099	0	32276	
5100	0	32284	
5101	0	32272	
5102	0	32276	
5103	0	32324	
5104	0	32308	
5105	0	32288	
5106	0	32288	
5107	0	32324	
5108	0	32368	
5109	0	32320	
5110	0	32236	
5111	0	32224	
5112	0	32224	
5113	0	32244	
5114	0	32288	
5115	0	32356	
5116	0	32392	
5117	0	32384	
5118	0	32380	
5119	0	32320	
5120	0	32258	
5121	0	32240	
5122	0	32248	
5123	0	32300	
5124	0	32348	
5125	0	32376	
5126	0	32388	
5127	0	32376	
5128	0	32368	
5129	0	32392	
5130	0	32420	
5131	0	32424	
5132	0	32416	
5133	0	32444	
5134	0	32442	
5135	0	32448	
5136	0	32392	
5137	0	32356	
5138	0	32384	
5139	0	32412	
5140	0	32444	
5141	0	32456	
5142	0	32468	
5143	0	32476	
5144	0	32458	
5145	0	32468	
5146	0	32468	
5147	0	32432	
5148	0	32468	
5149	0	32520	
5150	0	32508	
5151	0	32472	
5152	0	32480	
5153	0	32464	
5154	0	32410	
5155	0	32424	
5156	0	32440	
5157	0	32444	
5158	0	32440	
5159	0	32496	
5160	0	32566	
5161	0	32538	
5162	0	32496	
5163	0	32492	
5164	0	32524	
5165	0	32540	
5166	0	32552	
5167	0	32560	
5168	0	32572	
5169	0	32600	
5170	0	32644	
5171	0	32708	
5172	0	32768	
5173	0	32858	
5174	0	32970	
5175	0	33096	
5176	0	33132	
5177	0	33180	
5178	0	33272	
5179	0	33352	
5180	0	33460	
5181	0	33520	
5182	0	33530	
5183	0	33626	
5184	0	33720	
5185	0	33780	
5186	0	33808	
5187	0	33760	
5188	0	33696	
5189	0	33624	
5190	0	33556	
5191	0	33516	
5192	0	33488	
5193	0	33440	
5194	0	33436	
5195	0	33440	
5196	0	33392	
5197	0	33384	
5198	0	33492	
5199	0	33688	
5200	0	33928	
5201	0	34232	
5202	0	34548	
5203	0	34824	
5204	0	35024	
5205	0	35144	
5206	0	35256	
5207	0	35376	
5208	0	35556	
5209	0	35728	
5210	0	35796	
5211	0	35752	
5212	0	35692	
5213	0	35604	
5214	0	35464	
5215	0	35364	
5216	0	35264	
5217	0	35170	
5218	0	35016	
5219	0	34884	
5220	0	34748	
5221	0	34588	
5222	0	34364	
5223	0	34202	
5224	0	34128	
5225	0	34036	
5226	0	33904	
5227	0	33736	
5228	0	33592	
5229	0	33514	
5230	0	33558	
5231	0	33572	
5232	0	33528	
5233	0	33428	
5234	0	33292	
5235	0	33168	
5236	0	33052	
5237	0	32996	
5238	0	32908	
5239	0	32792	
5240	0	32664	
5241	0	32570	
5242	0	32536	
5243	0	32484	
5244	0	32344	
5245	0	32208	
5246	0	32080	
5247	0	31940	
5248	0	31840	
5249	0	31764	
5250	0	31712	
5251	0	31682	
5252	0	31632	
5253	0	31596	
5254	0	31604	
5255	0	31604	
5256	0	31612	
5257	0	31624	
5258	0	31620	
5259	0	31604	
5260	0	31584	
5261	0	31612	
5262	0	31660	
5263	0	31704	
5264	0	31760	
5265	0	31744	
5266	0	31728	
5267	0	31784	
5268	0	31840	
5269	0	31868	
5270	0	31856	
5271	0	31884	
5272	0	31924	
5273	0	31918	
5274	0	31868	
5275	0	31812	
5276	0	31832	
5277	0	31876	
5278	0	31900	
5279	0	31940	
5280	0	31948	
5281	0	31972	
5282	0	32008	
5283	0	32008	
5284	0	32016	
5285	0	32028	
5286	0	32096	
5287	0	32168	
5288	0	32254	
5289	0	32250	
5290	0	32188	
5291	0	32108	
5292	0	31940	
5293	0	31696	
5294	0	31408	
5295	0	30972	
5296	0	30420	
5297	0	29824	
5298	0	29312	
5299	0	28996	
5300	0	28860	
5301	0	28874	
5302	0	29064	
5303	0	29436	
5304	0	30030	
5305	0	30828	
5306	0	31800	
5307	0	32952	
5308	0	34280	
5309	0	35808	
5310	0	37496	
5311	0	39456	
5312	0	41824	
5313	0	44592	
5314	0	47808	
5315	0	51504	
5316	0	55208	
5317	0	58732	
5318	0	61780	
5319	0	63504	
5320	0	64392	
5321	0	64804	
5322	0	65000	
5323	0	65024	
5324	0	64996	
5325	0	64896	
5326	0	64800	
5327	0	64696	
5328	0	64576	
5329	0	61808	
5330	0	55508	
5331	0	50224	
5332	0	45892	
5333	0	42368	
5334	0	39484	
5335	0	37144	
5336	0	35148	
5337	0	33340	
5338	0	31720	
5339	0	30306	
5340	0	29188	
5341	0	28320	
5342	0	27642	
5343	0	27242	
5344	0	26968	
5345	0	26850	
5346	0	26844	
5347	0	26888	
5348	0	26868	
5349	0	26880	
5350	0	26976	
5351	0	27202	
5352	0	27432	
5353	0	27654	
5354	0	27904	
5355	0	28224	
5356	0	28532	
5357	0	28768	
5358	0	28992	
5359	0	29248	
5360	0	29450	
5361	0	29592	
5362	0	29644	
5363	0	29672	
5364	0	29692	
5365	0	29676	
5366	0	29630	
5367	0	29572	
5368	0	29536	
5369	0	29504	
5370	0	29504	
5371	0	29524	
5372	0	29540	
5373	0	29528	
5374	0	29524	
5375	0	29536	
5376	0	29540	
5377	0	29584	
5378	0	29576	
5379	0	29596	
5380	0	29616	
5381	0	29652	
5382	0	29652	
5383	0	29680	
5384	0	29708	
5385	0	29710	
5386	0	29772	
5387	0	29844	
5388	0	29884	
5389	0	29896	
5390	0	29916	
5391	0	30000	
5392	0	30068	
5393	0	30136	
5394	0	30200	
5395	0	30260	
5396	0	30252	
5397	0	30212	
5398	0	30256	
5399	0	30272	
5400	0	30312	
5401	0	30332	
5402	0	30324	
5403	0	30346	
5404	0	30408	
5405	0	30480	
5406	0	30468	
5407	0	30452	
5408	0	30532	
5409	0	30616	
5410	0	30720	
5411	0	30780	
5412	0	30816	
5413	0	30824	
5414	0	30832	
5415	0	30872	
5416	0	30936	
5417	0	31032	
5418	0	31152	
5419	0	31194	
5420	0	31176	
5421	0	31176	
5422	0	31240	
5423	0	31332	
5424	0	31432	
5425	0	31448	
5426	0	31470	
5427	0	31508	
5428	0	31508	
5429	0	31560	
5430	0	31612	
5431	0	31632	
5432	0	31672	
5433	0	31680	
5434	0	31712	
5435	0	31724	
5436	0	31764	
5437	0	31840	
5438	0	31888	
5439	0	31946	
5440	0	31996	
5441	0	32016	
5442	0	32040	
5443	0	32088	
5444	0	32160	
5445	0	32216	
5446	0	32270	
5447	0	32300	
5448	0	32292	
5449	0	32314	
5450	0	32380	
5451	0	32456	
5452	0	32484	
5453	0	32552	
5454	0	32640	
5455	0	32696	
5456	0	32686	
5457	0	32692	
5458	0	32788	
5459	0	32848	
5460	0	32834	
5461	0	32884	
5462	0	32944	
5463	0	32972	
5464	0	33004	
5465	0	33036	
5466	0	33096	
5467	0	33184	
5468	0	33276	
5469	0	33316	
5470	0	33364	
5471	0	33428	
5472	0	33496	
5473	0	33524	
5474	0	33560	
5475	0	33644	
5476	0	33664	
5477	0	33712	
5478	0	33780	
5479	0	33816	
5480	0	33848	
5481	0	33904	
5482	0	34036	
5483	0	34144	
5484	0	34180	
5485	0	34220	
5486	0	34276	
5487	0	34280	
5488	0	34348	
5489	0	34436	
5490	0	34466	
5491	0	34540	
5492	0	34656	
5493	0	34740	
5494	0	34796	
5495	0	34824	
5496	0	34824	
5497	0	34848	
5498	0	34880	
5499	0	34964	
5500	0	35096	
5501	0	35252	
5502	0	35348	
5503	0	35372	
5504	0	35360	
5505	0	35404	
5506	0	35464	
5507	0	35560	
5508	0	35660	
5509	0	35776	
5510	0	35888	
5511	0	35926	
5512	0	35952	
5513	0	36016	
5514	0	36144	
5515	0	36240	
5516	0	36328	
5517	0	36432	
5518	0	36480	
5519	0	36528	
5520	0	36612	
5521	0	36660	
5522	0	36712	
5523	0	36808	
5524	0	36844	
5525	0	36888	
5526	0	36940	
5527	0	36984	
5528	0	36996	
5529	0	37040	
5530	0	37060	
5531	0	37058	
5532	0	37040	
5533	0	37056	
5534	0	37088	
5535	0	37114	
5536	0	37164	
5537	0	37168	
5538	0	37156	
5539	0	37164	
5540	0	37176	
5541	0	37172	
5542	0	37172	
5543	0	37172	
5544	0	37216	
5545	0	37212	
5546	0	37130	
5547	0	37120	
5548	0	37156	
5549	0	37192	
5550	0	37168	
5551	0	37140	
5552	0	37168	
5553	0	37140	
5554	0	37108	
5555	0	37120	
5556	0	37168	
5557	0	37172	
5558	0	37096	
5559	0	37036	
5560	0	36932	
5561	0	36832	
5562	0	36780	
5563	0	36736	
5564	0	36688	
5565	0	36636	
5566	0	36576	
5567	0	36476	
5568	0	36412	
5569	0	36346	
5570	0	36256	
5571	0	36164	
5572	0	36032	
5573	0	35856	
5574	0	35676	
5575	0	35520	
5576	0	35325	
5577	0	35080	
5578	0	34848	
5579	0	34674	
5580	0	34556	
5581	0	34432	
5582	0	34240	
5583	0	34076	
5584	0	33900	
5585	0	33712	
5586	0	33520	
5587	0	33320	
5588	0	33132	
5589	0	32928	
5590	0	32680	
5591	0	32460	
5592	0	32216	
5593	0	32020	
5594	0	31888	
5595	0	31692	
5596	0	31480	
5597	0	31312	
5598	0	31168	
5599	0	31068	
5600	0	30904	
5601	0	30752	
5602	0	30576	
5603	0	30436	
5604	0	30360	
5605	0	30276	
5606	0	30138	
5607	0	30008	
5608	0	29888	
5609	0	29772	
5610	0	29656	
5611	0	29596	
5612	0	29498	
5613	0	29380	
5614	0	29260	
5615	0	29216	
5616	0	29224	
5617	0	29144	
5618	0	29068	
5619	0	29004	
5620	0	28948	
5621	0	28868	
5622	0	28832	
5623	0	28826	
5624	0	28768	
5625	0	28696	
5626	0	28676	
5627	0	28634	
5628	0	28636	
5629	0	28600	
5630	0	28516	
5631	0	28456	
5632	0	28456	
5633	0	28456	
5634	0	28480	
5635	0	28488	
5636	0	28472	
5637	0	28520	
5638	0	28508	
5639	0	28488	
5640	0	28464	
5641	0	28450	
5642	0	28492	
5643	0	28592	
5644	0	28664	
5645	0	28700	
5646	0	28780	
5647	0	28800	
5648	0	28800	
5649	0	28824	
5650	0	28840	
5651	0	28828	
5652	0	28832	
5653	0	28868	
5654	0	28896	
5655	0	28904	
5656	0	28962	
5657	0	29024	
5658	0	29040	
5659	0	29104	
5660	0	29168	
5661	0	29236	
5662	0	29296	
5663	0	29372	
5664	0	29376	
5665	0	29388	
5666	0	29388	
5667	0	29408	
5668	0	29452	
5669	0	29524	
5670	0	29532	
5671	0	29508	
5672	0	29498	
5673	0	29488	
5674	0	29488	
5675	0	29510	
5676	0	29580	
5677	0	29668	
5678	0	29748	
5679	0	29756	
5680	0	29744	
5681	0	29790	
5682	0	29864	
5683	0	29920	
5684	0	29936	
5685	0	29968	
5686	0	29956	
5687	0	29984	
5688	0	30044	
5689	0	30112	
5690	0	30160	
5691	0	30244	
5692	0	30308	
5693	0	30274	
5694	0	30292	
5695	0	30316	
5696	0	30316	
5697	0	30356	
5698	0	30400	
5699	0	30388	
5700	0	30392	
5701	0	30444	
5702	0	30492	
5703	0	30560	
5704	0	30568	
5705	0	30568	
5706	0	30600	
5707	0	30652	
5708	0	30662	
5709	0	30672	
5710	0	30668	
5711	0	30648	
5712	0	30656	
5713	0	30728	
5714	0	30788	
5715	0	30814	
5716	0	30848	
5717	0	30876	
5718	0	30920	
5719	0	31032	
5720	0	31080	
5721	0	31084	
5722	0	31112	
5723	0	31090	
5724	0	31080	
5725	0	31096	
5726	0	31124	
5727	0	31108	
5728	0	31068	
5729	0	31084	
5730	0	31088	
5731	0	31092	
5732	0	31076	
5733	0	31116	
5734	0	31176	
5735	0	31224	
5736	0	31248	
5737	0	31280	
5738	0	31340	
5739	0	31340	
5740	0	31332	
5741	0	31348	
5742	0	31356	
5743	0	31392	
5744	0	31394	
5745	0	31396	
5746	0	31388	
5747	0	31392	
5748	0	31412	
5749	0	31432	
5750	0	31404	
5751	0	31404	
5752	0	31442	
5753	0	31464	
5754	0	31488	
5755	0	31500	
5756	0	31548	
5757	0	31580	
5758	0	31548	
5759	0	31548	
5760	0	31604	
5761	0	31604	
5762	0	31568	
5763	0	31576	
5764	0	31584	
5765	0	31536	
5766	0	31472	
5767	0	31480	
5768	0	31464	
5769	0	31464	
5770	0	31496	
5771	0	31496	
5772	0	31460	
5773	0	31442	
5774	0	31536	
5775	0	31576	
5776	0	31576	
5777	0	31580	
5778	0	31612	
5779	0	31672	
5780	0	31728	
5781	0	31808	
5782	0	31800	
5783	0	31724	
5784	0	31624	
5785	0	31592	
5786	0	31552	
5787	0	31544	
5788	0	31552	
5789	0	31608	
5790	0	31658	
5791	0	31692	
5792	0	31712	
5793	0	31708	
5794	0	31692	
5795	0	31664	
5796	0	31656	
5797	0	31644	
5798	0	31636	
5799	0	31652	
5800	0	31668	
5801	0	31640	
5802	0	31644	
5803	0	31648	
5804	0	31668	
5805	0	31636	
5806	0	31636	
5807	0	31612	
5808	0	31620	
5809	0	31632	
5810	0	31596	
5811	0	31604	
5812	0	31576	
5813	0	31564	
5814	0	31566	
5815	0	31576	
5816	0	31600	
5817	0	31610	
5818	0	31604	
5819	0	31592	
5820	0	31600	
5821	0	31637	
5822	0	31652	
5823	0	31632	
5824	0	31612	
5825	0	31592	
5826	0	31552	
5827	0	31544	
5828	0	31562	
5829	0	31616	
5830	0	31684	
5831	0	31764	
5832	0	31828	
5833	0	31848	
5834	0	31864	
5835	0	31872	
5836	0	31868	
5837	0	31860	
5838	0	31872	
5839	0	31860	
5840	0	31856	
5841	0	31796	
5842	0	31752	
5843	0	31760	
5844	0	31784	
5845	0	31824	
5846	0	31832	
5847	0	31776	
5848	0	31756	
5849	0	31756	
5850	0	31768	
5851	0	31824	
5852	0	31878	
5853	0	31904	
5854	0	31872	
5855	0	31836	
5856	0	31840	
5857	0	31848	
5858	0	31880	
5859	0	31908	
5860	0	31932	
5861	0	31916	
5862	0	31904	
5863	0	31904	
5864	0	31924	
5865	0	32008	
5866	0	32028	
5867	0	31988	
5868	0	31932	
5869	0	31952	
5870	0	31984	
5871	0	32016	
5872	0	32032	
5873	0	32064	
5874	0	32030	
5875	0	31992	
5876	0	31956	
5877	0	31968	
5878	0	32040	
5879	0	32060	
5880	0	32080	
5881	0	32076	
5882	0	32128	
5883	0	32096	
5884	0	32088	
5885	0	32114	
5886	0	32208	
5887	0	32262	
5888	0	32256	
5889	0	32224	
5890	0	32176	
5891	0	32140	
5892	0	32108	
5893	0	32080	
5894	0	32090	
5895	0	32120	
5896	0	32168	
5897	0	32136	
5898	0	32044	
5899	0	32020	
5900	0	32024	
5901	0	32008	
5902	0	32020	
5903	0	32064	
5904	0	32092	
5905	0	32108	
5906	0	32132	
5907	0	32156	
5908	0	32180	
5909	0	32220	
5910	0	32288	
5911	0	32332	
5912	0	32338	
5913	0	32352	
5914	0	32356	
5915	0	32328	
5916	0	32240	
5917	0	32184	
5918	0	32168	
5919	0	32180	
5920	0	32196	
5921	0	32204	
5922	0	32196	
5923	0	32228	
5924	0	32260	
5925	0	32312	
5926	0	32348	
5927	0	32392	
5928	0	32436	
5929	0	32504	
5930	0	32488	
5931	0	32458	
5932	0	32456	
5933	0	32460	
5934	0	32468	
5935	0	32456	
5936	0	32428	
5937	0	32384	
5938	0	32336	
5939	0	32320	
5940	0	32316	
5941	0	32360	
5942	0	32456	
5943	0	32552	
5944	0	32544	
5945	0	32604	
5946	0	32720	
5947	0	32780	
5948	0	32844	
5949	0	32885	
5950	0	32944	
5951	0	33008	
5952	0	33012	
5953	0	33076	
5954	0	33132	
5955	0	33196	
5956	0	33264	
5957	0	33344	
5958	0	33436	
5959	0	33516	
5960	0	33600	
5961	0	33664	
5962	0	33668	
5963	0	33612	
5964	0	33560	
5965	0	33504	
5966	0	33404	
5967	0	33292	
5968	0	33228	
5969	0	33200	
5970	0	33232	
5971	0	33232	
5972	0	33256	
5973	0	33300	
5974	0	33368	
5975	0	33448	
5976	0	33608	
5977	0	33840	
5978	0	34072	
5979	0	34320	
5980	0	34556	
5981	0	34856	
5982	0	35092	
5983	0	35334	
5984	0	35536	
5985	0	35748	
5986	0	35892	
5987	0	35936	
5988	0	35904	
5989	0	35884	
5990	0	35800	
5991	0	35688	
5992	0	35552	
5993	0	35388	
5994	0	35250	
5995	0	35104	
5996	0	34960	
5997	0	34792	
5998	0	34596	
5999	0	34416	
6000	0	34296	
6001	0	34200	
6002	0	34148	
6003	0	34044	
6004	0	33852	
6005	0	33660	
6006	0	33578	
6007	0	33544	
6008	0	33480	
6009	0	33464	
6010	0	33436	
6011	0	33340	
6012	0	33269	
6013	0	33144	
6014	0	32992	
6015	0	32900	
6016	0	32784	
6017	0	32640	
6018	0	32576	
6019	0	32488	
6020	0	32396	
6021	0	32292	
6022	0	32196	
6023	0	32096	
6024	0	32024	
6025	0	31948	
6026	0	31864	
6027	0	31776	
6028	0	31720	
6029	0	31680	
6030	0	31656	
6031	0	31660	
6032	0	31720	
6033	0	31800	
6034	0	31840	
6035	0	31808	
6036	0	31752	
6037	0	31698	
6038	0	31648	
6039	0	31628	
6040	0	31668	
6041	0	31684	
6042	0	31684	
6043	0	31704	
6044	0	31720	
6045	0	31696	
6046	0	31752	
6047	0	31832	
6048	0	31812	
6049	0	31788	
6050	0	31840	
6051	0	31860	
6052	0	31824	
6053	0	31844	
6054	0	31864	
6055	0	31912	
6056	0	31972	
6057	0	32000	
6058	0	32040	
6059	0	32052	
6060	0	32068	
6061	0	32152	
6062	0	32234	
6063	0	32220	
6064	0	32264	
6065	0	32364	
6066	0	32432	
6067	0	32432	
6068	0	32292	
6069	0	32002	
6070	0	31740	
6071	0	31434	
6072	0	31004	
6073	0	30370	
6074	0	29716	
6075	0	29226	
6076	0	29056	
6077	0	29058	
6078	0	29124	
6079	0	29410	
6080	0	29904	
6081	0	30684	
6082	0	31634	
6083	0	32644	
6084	0	33756	
6085	0	35024	
6086	0	36552	
6087	0	38276	
6088	0	40300	
6089	0	42748	
6090	0	45640	
6091	0	48984	
6092	0	52456	
6093	0	55904	
6094	0	59288	
6095	0	62144	
6096	0	63744	
6097	0	64560	
6098	0	64924	
6099	0	65072	
6100	0	65096	
6101	0	65052	
6102	0	64968	
6103	0	64856	
6104	0	64736	
6105	0	60176	
6106	0	53988	
6107	0	48292	
6108	0	43576	
6109	0	39780	
6110	0	36772	
6111	0	34501	
6112	0	32736	
6113	0	31308	
6114	0	30144	
6115	0	29064	
6116	0	28008	
6117	0	27052	
6118	0	26340	
6119	0	25936	
6120	0	25680	
6121	0	25592	
6122	0	25582	
6123	0	25536	
6124	0	25488	
6125	0	25484	
6126	0	25592	
6127	0	25856	
6128	0	26220	
6129	0	26648	
6130	0	27120	
6131	0	27568	
6132	0	28000	
6133	0	28420	
6134	0	28848	
6135	0	29216	
6136	0	29524	
6137	0	29704	
6138	0	29880	
6139	0	30048	
6140	0	30168	
6141	0	30232	
6142	0	30272	
6143	0	30272	
6144	0	30244	
6145	0	30292	
6146	0	30329	
6147	0	30332	
6148	0	30352	
6149	0	30352	
6150	0	30324	
6151	0	30284	
6152	0	30296	
6153	0	30368	
6154	0	30412	
6155	0	30416	
6156	0	30448	
6157	0	30528	
6158	0	30564	
6159	0	30584	
6160	0	30612	
6161	0	30632	
6162	0	30644	
6163	0	30676	
6164	0	30660	
6165	0	30684	
6166	0	30682	
6167	0	30680	
6168	0	30640	
6169	0	30634	
6170	0	30656	
6171	0	30692	
6172	0	30640	
6173	0	30628	
6174	0	30714	
6175	0	30820	
6176	0	30944	
6177	0	31064	
6178	0	31148	
6179	0	31212	
6180	0	31280	
6181	0	31316	
6182	0	31360	
6183	0	31408	
6184	0	31436	
6185	0	31456	
6186	0	31388	
6187	0	31320	
6188	0	31340	
6189	0	31396	
6190	0	31464	
6191	0	31520	
6192	0	31600	
6193	0	31644	
6194	0	31680	
6195	0	31720	
6196	0	31760	
6197	0	31800	
6198	0	31820	
6199	0	31840	
6200	0	31820	
6201	0	31872	
6202	0	31936	
6203	0	32024	
6204	0	32064	
6205	0	32096	
6206	0	32148	
6207	0	32128	
6208	0	32112	
6209	0	32216	
6210	0	32332	
6211	0	32416	
6212	0	32440	
6213	0	32532	
6214	0	32576	
6215	0	32664	
6216	0	32688	
6217	0	32700	
6218	0	32704	
6219	0	32732	
6220	0	32784	
6221	0	32868	
6222	0	32964	
6223	0	33008	
6224	0	33032	
6225	0	33084	
6226	0	33208	
6227	0	33236	
6228	0	33212	
6229	0	33208	
6230	0	33224	
6231	0	33232	
6232	0	33196	
6233	0	33260	
6234	0	33320	
6235	0	33376	
6236	0	33416	
6237	0	33428	
6238	0	33532	
6239	0	33632	
6240	0	33756	
6241	0	33872	
6242	0	33952	
6243	0	33988	
6244	0	34074	
6245	0	34116	
6246	0	34152	
6247	0	34152	
6248	0	34172	
6249	0	34240	
6250	0	34284	
6251	0	34248	
6252	0	34169	
6253	0	34036	
6254	0	33976	
6255	0	34048	
6256	0	34164	
6257	0	34284	
6258	0	34412	
6259	0	34516	
6260	0	34644	
6261	0	34792	
6262	0	34920	
6263	0	35044	
6264	0	35148	
6265	0	35264	
6266	0	35324	
6267	0	35428	
6268	0	35496	
6269	0	35544	
6270	0	35524	
6271	0	35522	
6272	0	35508	
6273	0	35536	
6274	0	35580	
6275	0	35664	
6276	0	35720	
6277	0	35792	
6278	0	35844	
6279	0	35856	
6280	0	35908	
6281	0	36032	
6282	0	36132	
6283	0	36200	
6284	0	36222	
6285	0	36288	
6286	0	36400	
6287	0	36484	
6288	0	36592	
6289	0	36696	
6290	0	36800	
6291	0	36908	
6292	0	36976	
6293	0	37016	
6294	0	37032	
6295	0	37032	
6296	0	37040	
6297	0	37064	
6298	0	37120	
6299	0	37240	
6300	0	37316	
6301	0	37356	
6302	0	37396	
6303	0	37444	
6304	0	37520	
6305	0	37564	
6306	0	37644	
6307	0	37600	
6308	0	37612	
6309	0	37668	
6310	0	37724	
6311	0	37728	
6312	0	37632	
6313	0	37568	
6314	0	37528	
6315	0	37514	
6316	0	37516	
6317	0	37508	
6318	0	37524	
6319	0	37548	
6320	0	37496	
6321	0	37464	
6322	0	37496	
6323	0	37552	
6324	0	37552	
6325	0	37530	
6326	0	37500	
6327	0	37560	
6328	0	37576	
6329	0	37612	
6330	0	37648	
6331	0	37632	
6332	0	37564	
6333	0	37524	
6334	0	37472	
6335	0	37392	
6336	0	37312	
6337	0	37268	
6338	0	37304	
6339	0	37232	
6340	0	37120	
6341	0	37028	
6342	0	37004	
6343	0	36940	
6344	0	36896	
6345	0	36832	
6346	0	36800	
6347	0	36728	
6348	0	36588	
6349	0	36448	
6350	0	36296	
6351	0	36156	
6352	0	36030	
6353	0	35836	
6354	0	35672	
6355	0	35508	
6356	0	35328	
6357	0	35104	
6358	0	34808	
6359	0	34528	
6360	0	34240	
6361	0	34044	
6362	0	33844	
6363	0	33696	
6364	0	33476	
6365	0	33164	
6366	0	32896	
6367	0	32648	
6368	0	32428	
6369	0	32192	
6370	0	32036	
6371	0	31946	
6372	0	31848	
6373	0	31724	
6374	0	31616	
6375	0	31544	
6376	0	31362	
6377	0	31160	
6378	0	31002	
6379	0	30852	
6380	0	30728	
6381	0	30576	
6382	0	30420	
6383	0	30212	
6384	0	30076	
6385	0	29928	
6386	0	29788	
6387	0	29728	
6388	0	29668	
6389	0	29548	
6390	0	29428	
6391	0	29248	
6392	0	29112	
6393	0	29064	
6394	0	29056	
6395	0	29064	
6396	0	29052	
6397	0	29048	
6398	0	28996	
6399	0	28948	
6400	0	28892	
6401	0	28752	
6402	0	28640	
6403	0	28548	
6404	0	28484	
6405	0	28480	
6406	0	28520	
6407	0	28644	
6408	0	28720	
6409	0	28704	
6410	0	28688	
6411	0	28704	
6412	0	28728	
6413	0	28796	
6414	0	28796	
6415	0	28796	
6416	0	28728	
6417	0	28652	
6418	0	28568	
6419	0	28524	
6420	0	28500	
6421	0	28472	
6422	0	28476	
6423	0	28512	
6424	0	28492	
6425	0	28464	
6426	0	28392	
6427	0	28364	
6428	0	28416	
6429	0	28488	
6430	0	28576	
6431	0	28604	
6432	0	28592	
6433	0	28650	
6434	0	28756	
6435	0	28828	
6436	0	28936	
6437	0	29024	
6438	0	29072	
6439	0	29136	
6440	0	29204	
6441	0	29194	
6442	0	29184	
6443	0	29152	
6444	0	29108	
6445	0	29064	
6446	0	29058	
6447	0	29064	
6448	0	29170	
6449	0	29234	
6450	0	29296	
6451	0	29348	
6452	0	29444	
6453	0	29544	
6454	0	29650	
6455	0	29748	
6456	0	29856	
6457	0	29948	
6458	0	29996	
6459	0	29984	
6460	0	29880	
6461	0	29768	
6462	0	29724	
6463	0	29800	
6464	0	29884	
6465	0	29912	
6466	0	29884	
6467	0	29844	
6468	0	29860	
6469	0	29936	
6470	0	30008	
6471	0	30048	
6472	0	30120	
6473	0	30196	
6474	0	30277	
6475	0	30372	
6476	0	30480	
6477	0	30544	
6478	0	30544	
6479	0	30570	
6480	0	30624	
6481	0	30588	
6482	0	30568	
6483	0	30632	
6484	0	30688	
6485	0	30684	
6486	0	30672	
6487	0	30712	
6488	0	30784	
6489	0	30828	
6490	0	30916	
6491	0	30996	
6492	0	30948	
6493	0	30856	
6494	0	30880	
6495	0	30872	
6496	0	30836	
6497	0	30852	
6498	0	30938	
6499	0	30920	
6500	0	30824	
6501	0	30792	
6502	0	30820	
6503	0	30896	
6504	0	31068	
6505	0	31256	
6506	0	31366	
6507	0	31450	
6508	0	31524	
6509	0	31596	
6510	0	31652	
6511	0	31620	
6512	0	31524	
6513	0	31452	
6514	0	31436	
6515	0	31384	
6516	0	31332	
6517	0	31336	
6518	0	31356	
6519	0	31420	
6520	0	31440	
6521	0	31392	
6522	0	31420	
6523	0	31460	
6524	0	31524	
6525	0	31536	
6526	0	31568	
6527	0	31664	
6528	0	31744	
6529	0	31768	
6530	0	31788	
6531	0	31732	
6532	0	31680	
6533	0	31644	
6534	0	31580	
6535	0	31520	
6536	0	31364	
6537	0	31272	
6538	0	31346	
6539	0	31396	
6540	0	31400	
6541	0	31516	
6542	0	31608	
6543	0	31712	
6544	0	31776	
6545	0	31800	
6546	0	31824	
6547	0	31824	
6548	0	31784	
6549	0	31816	
6550	0	31888	
6551	0	31928	
6552	0	31864	
6553	0	31856	
6554	0	31872	
6555	0	31872	
6556	0	31804	
6557	0	31832	
6558	0	31820	
6559	0	31800	
6560	0	31868	
6561	0	31970	
6562	0	32076	
6563	0	32108	
6564	0	32072	
6565	0	32056	
6566	0	31928	
6567	0	31904	
6568	0	31920	
6569	0	31916	
6570	0	31816	
6571	0	31712	
6572	0	31616	
6573	0	31404	
6574	0	31360	
6575	0	31488	
6576	0	31540	
6577	0	31578	
6578	0	31612	
6579	0	31688	
6580	0	31706	
6581	0	31756	
6582	0	31784	
6583	0	31708	
6584	0	31592	
6585	0	31592	
6586	0	31632	
6587	0	31608	
6588	0	31580	
6589	0	31508	
6590	0	31444	
6591	0	31424	
6592	0	31396	
6593	0	31408	
6594	0	31472	
6595	0	31540	
6596	0	31600	
6597	0	31628	
6598	0	31696	
6599	0	31764	
6600	0	31784	
6601	0	31828	
6602	0	31828	
6603	0	31776	
6604	0	31732	
6605	0	31724	
6606	0	31662	
6607	0	31660	
6608	0	31612	
6609	0	31532	
6610	0	31512	
6611	0	31512	
6612	0	31536	
6613	0	31584	
6614	0	31696	
6615	0	31808	
6616	0	31796	
6617	0	31664	
6618	0	31528	
6619	0	31464	
6620	0	31488	
6621	0	31506	
6622	0	31576	
6623	0	31618	
6624	0	31616	
6625	0	31642	
6626	0	31640	
6627	0	31680	
6628	0	31756	
6629	0	31784	
6630	0	31916	
6631	0	32064	
6632	0	32108	
6633	0	32060	
6634	0	32000	
6635	0	31976	
6636	0	31906	
6637	0	31824	
6638	0	31840	
6639	0	31952	
6640	0	32120	
6641	0	32204	
6642	0	32176	
6643	0	32188	
6644	0	32160	
6645	0	32092	
6646	0	32060	
6647	0	32016	
6648	0	31992	
6649	0	31956	
6650	0	31908	
6651	0	31900	
6652	0	31948	
6653	0	31968	
6654	0	31968	
6655	0	31896	
6656	0	31840	
6657	0	31872	
6658	0	31920	
6659	0	31996	
6660	0	32048	
6661	0	32052	
6662	0	32060	
6663	0	32116	
6664	0	32200	
6665	0	32368	
6666	0	32536	
6667	0	32616	
6668	0	32684	
6669	0	32748	
6670	0	32786	
6671	0	32752	
6672	0	32744	
6673	0	32760	
6674	0	32746	
6675	0	32872	
6676	0	32944	
6677	0	32908	
6678	0	32964	
6679	0	33040	
6680	0	33032	
6681	0	33048	
6682	0	33048	
6683	0	33098	
6684	0	33128	
6685	0	33152	
6686	0	33194	
6687	0	33240	
6688	0	33308	
6689	0	33286	
6690	0	33396	
6691	0	33610	
6692	0	33864	
6693	0	34092	
6694	0	34264	
6695	0	34408	
6696	0	34492	
6697	0	34660	
6698	0	34856	
6699	0	35008	
6700	0	35188	
6701	0	35324	
6702	0	35412	
6703	0	35392	
6704	0	35368	
6705	0	35316	
6706	0	35200	
6707	0	35104	
6708	0	35044	
6709	0	34892	
6710	0	34656	
6711	0	34456	
6712	0	34268	
6713	0	34088	
6714	0	33888	
6715	0	33760	
6716	0	33656	
6717	0	33476	
6718	0	33392	
6719	0	33272	
6720	0	33128	
6721	0	33140	
6722	0	33240	
6723	0	33244	
6724	0	33200	
6725	0	33008	
6726	0	32816	
6727	0	32656	
6728	0	32584	
6729	0	32540	
6730	0	32536	
6731	0	32472	
6732	0	32500	
6733	0	32510	
6734	0	32466	
6735	0	32386	
6736	0	32256	
6737	0	32100	
6738	0	31962	
6739	0	31856	
6740	0	31680	
6741	0	31568	
6742	0	31500	
6743	0	31420	
6744	0	31332	
6745	0	31320	
6746	0	31378	
6747	0	31362	
6748	0	31408	
6749	0	31460	
6750	0	31476	
6751	0	31568	
6752	0	31612	
6753	0	31568	
6754	0	31568	
6755	0	31632	
6756	0	31620	
6757	0	31456	
6758	0	31328	
6759	0	31212	
6760	0	31160	
6761	0	31216	
6762	0	31244	
6763	0	31258	
6764	0	31296	
6765	0	31346	
6766	0	31460	
6767	0	31524	
6768	0	31548	
6769	0	31612	
6770	0	31708	
6771	0	31724	
6772	0	31620	
6773	0	31716	
6774	0	31820	
6775	0	31840	
6776	0	31908	
6777	0	32032	
6778	0	32120	
6779	0	32108	
6780	0	32068	
6781	0	32044	
6782	0	31964	
6783	0	31896	
6784	0	31856	
6785	0	31694	
6786	0	31392	
6787	0	30984	
6788	0	30464	
6789	0	29932	
6790	0	29608	
6791	0	29516	
6792	0	29544	
6793	0	29536	
6794	0	29780	
6795	0	30253	
6796	0	30908	
6797	0	31728	
6798	0	32664	
6799	0	33720	
6800	0	34884	
6801	0	36282	
6802	0	37856	
6803	0	39744	
6804	0	42072	
6805	0	44832	
6806	0	47960	
6807	0	51176	
6808	0	54392	
6809	0	57624	
6810	0	60720	
6811	0	62880	
6812	0	64004	
6813	0	64576	
6814	0	64824	
6815	0	64904	
6816	0	64872	
6817	0	64804	
6818	0	64712	
6819	0	62060	
6820	0	56100	
6821	0	50040	
6822	0	44336	
6823	0	39616	
6824	0	36136	
6825	0	33608	
6826	0	31800	
6827	0	30572	
6828	0	29648	
6829	0	28944	
6830	0	28400	
6831	0	27812	
6832	0	27240	
6833	0	26744	
6834	0	26280	
6835	0	25940	
6836	0	25856	
6837	0	25786	
6838	0	25664	
6839	0	25536	
6840	0	25484	
6841	0	25513	
6842	0	25601	
6843	0	25796	
6844	0	26042	
6845	0	26328	
6846	0	26668	
6847	0	27112	
6848	0	27612	
6849	0	28120	
6850	0	28524	
6851	0	28872	
6852	0	29204	
6853	0	29528	
6854	0	29748	
6855	0	29884	
6856	0	30078	
6857	0	30212	
6858	0	30368	
6859	0	30472	
6860	0	30524	
6861	0	30522	
6862	0	30508	
6863	0	30484	
6864	0	30476	
6865	0	30496	
6866	0	30468	
6867	0	30484	
6868	0	30560	
6869	0	30632	
6870	0	30648	
6871	0	30652	
6872	0	30608	
6873	0	30616	
6874	0	30608	
6875	0	30644	
6876	0	30664	
6877	0	30656	
6878	0	30712	
6879	0	30776	
6880	0	30824	
6881	0	30908	
6882	0	30992	
6883	0	31008	
6884	0	30980	
6885	0	31044	
6886	0	31072	
6887	0	31048	
6888	0	31056	
6889	0	31096	
6890	0	31184	
6891	0	31264	
6892	0	31224	
6893	0	31236	
6894	0	31276	
6895	0	31306	
6896	0	31316	
6897	0	31276	
6898	0	31236	
6899	0	31216	
6900	0	31232	
6901	0	31258	
6902	0	31328	
6903	0	31360	
6904	0	31356	
6905	0	31380	
6906	0	31408	
6907	0	31540	
6908	0	31636	
6909	0	31672	
6910	0	31716	
6911	0	31772	
6912	0	31820	
6913	0	31882	
6914	0	31956	
6915	0	31998	
6916	0	32020	
6917	0	32032	
6918	0	32048	
6919	0	32124	
6920	0	32200	
6921	0	32252	
6922	0	32248	
6923	0	32276	
6924	0	32376	
6925	0	32466	
6926	0	32464	
6927	0	32456	
6928	0	32516	
6929	0	32588	
6930	0	32636	
6931	0	32588	
6932	0	32500	
6933	0	32496	
6934	0	32544	
6935	0	32636	
6936	0	32740	
6937	0	32824	
6938	0	32860	
6939	0	32904	
6940	0	32976	
6941	0	32992	
6942	0	33036	
6943	0	33116	
6944	0	33272	
6945	0	33392	
6946	0	33436	
6947	0	33460	
6948	0	33476	
6949	0	33480	
6950	0	33432	
6951	0	33488	
6952	0	33624	
6953	0	33720	
6954	0	33784	
6955	0	33828	
6956	0	33880	
6957	0	33888	
6958	0	33912	
6959	0	33952	
6960	0	34068	
6961	0	34132	
6962	0	34168	
6963	0	34240	
6964	0	34332	
6965	0	34360	
6966	0	34376	
6967	0	34400	
6968	0	34432	
6969	0	34464	
6970	0	34488	
6971	0	34526	
6972	0	34548	
6973	0	34624	
6974	0	34728	
6975	0	34856	
6976	0	34968	
6977	0	35040	
6978	0	35080	
6979	0	35092	
6980	0	35084	
6981	0	35112	
6982	0	35160	
6983	0	35248	
6984	0	35352	
6985	0	35464	
6986	0	35636	
6987	0	35700	
6988	0	35768	
6989	0	35924	
6990	0	36080	
6991	0	36148	
6992	0	36128	
6993	0	36164	
6994	0	36224	
6995	0	36292	
6996	0	36408	
6997	0	36496	
6998	0	36508	
6999	0	36552	
7000	0	36612	
7001	0	36660	
7002	0	36744	
7003	0	36856	
7004	0	36932	
7005	0	37008	
7006	0	36984	
7007	0	36988	
7008	0	37056	
7009	0	37116	
7010	0	37140	
7011	0	37164	
7012	0	37176	
7013	0	37216	
7014	0	37284	
7015	0	37352	
7016	0	37400	
7017	0	37472	
7018	0	37532	
7019	0	37586	
7020	0	37756	
7021	0	37944	
7022	0	38012	
7023	0	38012	
7024	0	37900	
7025	0	37840	
7026	0	37844	
7027	0	37904	
7028	0	37896	
7029	0	37832	
7030	0	37804	
7031	0	37792	
7032	0	37736	
7033	0	37656	
7034	0	37552	
7035	0	37506	
7036	0	37500	
7037	0	37512	
7038	0	37520	
7039	0	37552	
7040	0	37624	
7041	0	37648	
7042	0	37664	
7043	0	37720	
7044	0	37776	
7045	0	37782	
7046	0	37808	
7047	0	37812	
7048	0	37764	
7049	0	37708	
7050	0	37660	
7051	0	37580	
7052	0	37480	
7053	0	37390	
7054	0	37244	
7055	0	37132	
7056	0	37032	
7057	0	36948	
7058	0	36844	
7059	0	36704	
7060	0	36492	
7061	0	36340	
7062	0	36104	
7063	0	35932	
7064	0	35732	
7065	0	35536	
7066	0	35384	
7067	0	35188	
7068	0	34960	
7069	0	34720	
7070	0	34484	
7071	0	34256	
7072	0	34064	
7073	0	33860	
7074	0	33684	
7075	0	33580	
7076	0	33472	
7077	0	33348	
7078	0	33192	
7079	0	33004	
7080	0	32780	
7081	0	32584	
7082	0	32410	
7083	0	32228	
7084	0	32064	
7085	0	31828	
7086	0	31620	
7087	0	31436	
7088	0	31236	
7089	0	31080	
7090	0	30864	
7091	0	30664	
7092	0	30500	
7093	0	30364	
7094	0	30232	
7095	0	30084	
7096	0	29936	
7097	0	29828	
7098	0	29744	
7099	0	29652	
7100	0	29528	
7101	0	29322	
7102	0	29196	
7103	0	29104	
7104	0	29012	
7105	0	28960	
7106	0	28928	
7107	0	28912	
7108	0	28792	
7109	0	28642	
7110	0	28568	
7111	0	28605	
7112	0	28656	
7113	0	28696	
7114	0	28648	
7115	0	28600	
7116	0	28592	
7117	0	28576	
7118	0	28586	
7119	0	28602	
7120	0	28592	
7121	0	28528	
7122	0	28468	
7123	0	28460	
7124	0	28504	
7125	0	28520	
7126	0	28452	
7127	0	28316	
7128	0	28292	
7129	0	28316	
7130	0	28316	
7131	0	28380	
7132	0	28424	
7133	0	28448	
7134	0	28448	
7135	0	28496	
7136	0	28548	
7137	0	28540	
7138	0	28548	
7139	0	28588	
7140	0	28610	
7141	0	28616	
7142	0	28634	
7143	0	28696	
7144	0	28764	
7145	0	28810	
7146	0	28808	
7147	0	28804	
7148	0	28836	
7149	0	28872	
7150	0	28844	
7151	0	28864	
7152	0	28888	
7153	0	28824	
7154	0	28780	
7155	0	28736	
7156	0	28760	
7157	0	28864	
7158	0	28948	
7159	0	29040	
7160	0	29168	
7161	0	29236	
7162	0	29232	
7163	0	29216	
7164	0	29260	
7165	0	29332	
7166	0	29360	
7167	0	29316	
7168	0	29342	
7169	0	29376	
7170	0	29348	
7171	0	29348	
7172	0	29416	
7173	0	29470	
7174	0	29556	
7175	0	29628	
7176	0	29586	
7177	0	29530	
7178	0	29564	
7179	0	29644	
7180	0	29720	
7181	0	29740	
7182	0	29772	
7183	0	29828	
7184	0	29868	
7185	0	29912	
7186	0	29972	
7187	0	30036	
7188	0	30060	
7189	0	30100	
7190	0	30196	
7191	0	30212	
7192	0	30236	
7193	0	30272	
7194	0	30324	
7195	0	30376	
7196	0	30452	
7197	0	30524	
7198	0	30528	
7199	0	30568	
7200	0	30600	
7201	0	30632	
7202	0	30684	
7203	0	30684	
7204	0	30688	
7205	0	30768	
7206	0	30836	
7207	0	30844	
7208	0	30924	
7209	0	30986	
7210	0	31008	
7211	0	31008	
7212	0	31012	
7213	0	31024	
7214	0	31020	
7215	0	30976	
7216	0	30970	
7217	0	30944	
7218	0	30888	
7219	0	30844	
7220	0	30824	
7221	0	30844	
7222	0	30932	
7223	0	31020	
7224	0	31124	
7225	0	31272	
7226	0	31384	
7227	0	31476	
7228	0	31520	
7229	0	31476	
7230	0	31432	
7231	0	31424	
7232	0	31432	
7233	0	31456	
7234	0	31470	
7235	0	31448	
7236	0	31488	
7237	0	31556	
7238	0	31590	
7239	0	31548	
7240	0	31458	
7241	0	31484	
7242	0	31508	
7243	0	31456	
7244	0	31424	
7245	0	31408	
7246	0	31428	
7247	0	31480	
7248	0	31512	
7249	0	31536	
7250	0	31588	
7251	0	31652	
7252	0	31648	
7253	0	31610	
7254	0	31612	
7255	0	31576	
7256	0	31552	
7257	0	31572	
7258	0	31636	
7259	0	31698	
7260	0	31684	
7261	0	31644	
7262	0	31652	
7263	0	31680	
7264	0	31660	
7265	0	31588	
7266	0	31516	
7267	0	31476	
7268	0	31504	
7269	0	31500	
7270	0	31464	
7271	0	31464	
7272	0	31432	
7273	0	31412	
7274	0	31376	
7275	0	31404	
7276	0	31472	
7277	0	31532	
7278	0	31516	
7279	0	31480	
7280	0	31504	
7281	0	31520	
7282	0	31544	
7283	0	31592	
7284	0	31584	
7285	0	31576	
7286	0	31566	
7287	0	31596	
7288	0	31680	
7289	0	31684	
7290	0	31664	
7291	0	31652	
7292	0	31672	
7293	0	31668	
7294	0	31616	
7295	0	31556	
7296	0	31600	
7297	0	31628	
7298	0	31620	
7299	0	31624	
7300	0	31648	
7301	0	31612	
7302	0	31524	
7303	0	31444	
7304	0	31392	
7305	0	31402	
7306	0	31396	
7307	0	31404	
7308	0	31416	
7309	0	31416	
7310	0	31392	
7311	0	31348	
7312	0	31372	
7313	0	31420	
7314	0	31460	
7315	0	31540	
7316	0	31604	
7317	0	31640	
7318	0	31628	
7319	0	31648	
7320	0	31664	
7321	0	31696	
7322	0	31740	
7323	0	31740	
7324	0	31692	
7325	0	31696	
7326	0	31704	
7327	0	31680	
7328	0	31612	
7329	0	31596	
7330	0	31632	
7331	0	31628	
7332	0	31584	
7333	0	31536	
7334	0	31520	
7335	0	31544	
7336	0	31576	
7337	0	31608	
7338	0	31676	
7339	0	31708	
7340	0	31772	
7341	0	31816	
7342	0	31820	
7343	0	31864	
7344	0	31828	
7345	0	31784	
7346	0	31782	
7347	0	31750	
7348	0	31752	
7349	0	31784	
7350	0	31764	
7351	0	31728	
7352	0	31688	
7353	0	31680	
7354	0	31696	
7355	0	31764	
7356	0	31776	
7357	0	31826	
7358	0	31892	
7359	0	31960	
7360	0	31988	
7361	0	32008	
7362	0	32044	
7363	0	32064	
7364	0	32082	
7365	0	32060	
7366	0	32064	
7367	0	32064	
7368	0	32036	
7369	0	31980	
7370	0	31914	
7371	0	31932	
7372	0	32000	
7373	0	32008	
7374	0	32020	
7375	0	32098	
7376	0	32264	
7377	0	32392	
7378	0	32420	
7379	0	32432	
7380	0	32548	
7381	0	32728	
7382	0	32848	
7383	0	32896	
7384	0	32908	
7385	0	32888	
7386	0	32908	
7387	0	32946	
7388	0	32960	
7389	0	32972	
7390	0	32944	
7391	0	32908	
7392	0	32896	
7393	0	32848	
7394	0	32776	
7395	0	32756	
7396	0	32756	
7397	0	32772	
7398	0	32836	
7399	0	32888	
7400	0	32930	
7401	0	32992	
7402	0	33200	
7403	0	33428	
7404	0	33640	
7405	0	33948	
7406	0	34256	
7407	0	34532	
7408	0	34714	
7409	0	34876	
7410	0	35036	
7411	0	35180	
7412	0	35296	
7413	0	35304	
7414	0	35276	
7415	0	35192	
7416	0	35104	
7417	0	35084	
7418	0	35024	
7419	0	34936	
7420	0	34820	
7421	0	34652	
7422	0	34448	
7423	0	34260	
7424	0	34088	
7425	0	33976	
7426	0	33900	
7427	0	33816	
7428	0	33716	
7429	0	33584	
7430	0	33460	
7431	0	33296	
7432	0	33176	
7433	0	33128	
7434	0	33172	
7435	0	33152	
7436	0	33028	
7437	0	32900	
7438	0	32772	
7439	0	32664	
7440	0	32532	
7441	0	32336	
7442	0	32200	
7443	0	32140	
7444	0	32148	
7445	0	32176	
7446	0	32126	
7447	0	32020	
7448	0	31900	
7449	0	31812	
7450	0	31756	
7451	0	31680	
7452	0	31572	
7453	0	31492	
7454	0	31408	
7455	0	31348	
7456	0	31284	
7457	0	31200	
7458	0	31132	
7459	0	31120	
7460	0	31084	
7461	0	31076	
7462	0	31076	
7463	0	31092	
7464	0	31156	
7465	0	31230	
7466	0	31216	
7467	0	31204	
7468	0	31236	
7469	0	31288	
7470	0	31352	
7471	0	31392	
7472	0	31404	
7473	0	31392	
7474	0	31412	
7475	0	31468	
7476	0	31488	
7477	0	31504	
7478	0	31528	
7479	0	31560	
7480	0	31576	
7481	0	31556	
7482	0	31544	
7483	0	31522	
7484	0	31572	
7485	0	31600	
7486	0	31624	
7487	0	31670	
7488	0	31704	
7489	0	31776	
7490	0	31840	
7491	0	31812	
7492	0	31752	
7493	0	31674	
7494	0	31584	
7495	0	31452	
7496	0	31308	
7497	0	31064	
7498	0	30656	
7499	0	30104	
7500	0	29556	
7501	0	29056	
7502	0	28752	
7503	0	28676	
7504	0	28648	
7505	0	28748	
7506	0	29088	
7507	0	29684	
7508	0	30504	
7509	0	31536	
7510	0	32668	
7511	0	33904	
7512	0	35368	
7513	0	37024	
7514	0	38928	
7515	0	41180	
7516	0	43808	
7517	0	46888	
7518	0	50384	
7519	0	54000	
7520	0	57488	
7521	0	60824	
7522	0	63072	
7523	0	64264	
7524	0	64844	
7525	0	65104	
7526	0	65200	
7527	0	65184	
7528	0	65108	
7529	0	65016	
7530	0	64896	
7531	0	64464	
7532	0	58028	
7533	0	51840	
7534	0	46468	
7535	0	42104	
7536	0	38648	
7537	0	36000	
7538	0	34006	
7539	0	32362	
7540	0	31024	
7541	0	29836	
7542	0	28740	
7543	0	27732	
7544	0	26904	
7545	0	26380	
7546	0	26144	
7547	0	26004	
7548	0	25968	
7549	0	26028	
7550	0	26056	
7551	0	26000	
7552	0	25940	
7553	0	25978	
7554	0	26196	
7555	0	26484	
7556	0	26760	
7557	0	27092	
7558	0	27468	
7559	0	27828	
7560	0	28172	
7561	0	28564	
7562	0	28892	
7563	0	29120	
7564	0	29312	
7565	0	29506	
7566	0	29624	
7567	0	29706	
7568	0	29800	
7569	0	29844	
7570	0	29852	
7571	0	29852	
7572	0	29820	
7573	0	29776	
7574	0	29752	
7575	0	29776	
7576	0	29792	
7577	0	29780	
7578	0	29776	
7579	0	29772	
7580	0	29774	
7581	0	29776	
7582	0	29796	
7583	0	29856	
7584	0	29900	
7585	0	29876	
7586	0	29880	
7587	0	29936	
7588	0	30016	
7589	0	30048	
7590	0	30088	
7591	0	30180	
7592	0	30324	
7593	0	30404	
7594	0	30432	
7595	0	30468	
7596	0	30472	
7597	0	30484	
7598	0	30544	
7599	0	30572	
7600	0	30608	
7601	0	30640	
7602	0	30704	
7603	0	30760	
7604	0	30760	
7605	0	30812	
7606	0	30844	
7607	0	30848	
7608	0	30880	
7609	0	30904	
7610	0	30944	
7611	0	31004	
7612	0	31088	
7613	0	31152	
7614	0	31188	
7615	0	31264	
7616	0	31364	
7617	0	31444	
7618	0	31444	
7619	0	31424	
7620	0	31418	
7621	0	31444	
7622	0	31516	
7623	0	31600	
7624	0	31660	
7625	0	31704	
7626	0	31732	
7627	0	31752	
7628	0	31768	
7629	0	31788	
7630	0	31796	
7631	0	31844	
7632	0	31916	
7633	0	31944	
7634	0	31972	
7635	0	32004	
7636	0	32052	
7637	0	32144	
7638	0	32228	
7639	0	32306	
7640	0	32344	
7641	0	32392	
7642	0	32440	
7643	0	32480	
7644	0	32496	
7645	0	32524	
7646	0	32584	
7647	0	32640	
7648	0	32650	
7649	0	32652	
7650	0	32680	
7651	0	32756	
7652	0	32828	
7653	0	32892	
7654	0	32948	
7655	0	33008	
7656	0	33056	
7657	0	33048	
7658	0	33044	
7659	0	33076	
7660	0	33128	
7661	0	33180	
7662	0	33222	
7663	0	33324	
7664	0	33372	
7665	0	33384	
7666	0	33380	
7667	0	33440	
7668	0	33548	
7669	0	33632	
7670	0	33684	
7671	0	33720	
7672	0	33740	
7673	0	33824	
7674	0	33908	
7675	0	33976	
7676	0	34024	
7677	0	34036	
7678	0	34036	
7679	0	34104	
7680	0	34176	
7681	0	34224	
7682	0	34284	
7683	0	34344	
7684	0	34378	
7685	0	34480	
7686	0	34528	
7687	0	34560	
7688	0	34604	
7689	0	34636	
7690	0	34688	
7691	0	34724	
7692	0	34760	
7693	0	34876	
7694	0	34950	
7695	0	35032	
7696	0	35116	
7697	0	35184	
7698	0	35258	
7699	0	35360	
7700	0	35384	
7701	0	35432	
7702	0	35512	
7703	0	35608	
7704	0	35664	
7705	0	35686	
7706	0	35780	
7707	0	35852	
7708	0	35912	
7709	0	35988	
7710	0	36064	
7711	0	36100	
7712	0	36176	
7713	0	36288	
7714	0	36352	
7715	0	36404	
7716	0	36464	
7717	0	36540	
7718	0	36596	
7719	0	36628	
7720	0	36648	
7721	0	36672	
7722	0	36720	
7723	0	36762	
7724	0	36852	
7725	0	36904	
7726	0	36988	
7727	0	37016	
7728	0	37064	
7729	0	37112	
7730	0	37164	
7731	0	37208	
7732	0	37268	
7733	0	37312	
7734	0	37352	
7735	0	37384	
7736	0	37404	
7737	0	37424	
7738	0	37472	
7739	0	37520	
7740	0	37528	
7741	0	37540	
7742	0	37504	
7743	0	37508	
7744	0	37552	
7745	0	37576	
7746	0	37544	
7747	0	37498	
7748	0	37520	
7749	0	37504	
7750	0	37520	
7751	0	37484	
7752	0	37424	
7753	0	37424	
7754	0	37376	
7755	0	37344	
7756	0	37336	
7757	0	37328	
7758	0	37332	
7759	0	37336	
7760	0	37324	
7761	0	37268	
7762	0	37248	
7763	0	37216	
7764	0	37136	
7765	0	37080	
7766	0	37024	
7767	0	36942	
7768	0	36832	
7769	0	36744	
7770	0	36628	
7771	0	36528	
7772	0	36464	
7773	0	36352	
7774	0	36192	
7775	0	35992	
7776	0	35804	
7777	0	35648	
7778	0	35464	
7779	0	35268	
7780	0	35088	
7781	0	34884	
7782	0	34708	
7783	0	34554	
7784	0	34388	
7785	0	34180	
7786	0	33968	
7787	0	33780	
7788	0	33600	
7789	0	33392	
7790	0	33132	
7791	0	32868	
7792	0	32632	
7793	0	32416	
7794	0	32236	
7795	0	32056	
7796	0	31882	
7797	0	31732	
7798	0	31612	
7799	0	31448	
7800	0	31324	
7801	0	31140	
7802	0	30952	
7803	0	30796	
7804	0	30626	
7805	0	30500	
7806	0	30384	
7807	0	30304	
7808	0	30220	
7809	0	30100	
7810	0	29972	
7811	0	29888	
7812	0	29804	
7813	0	29676	
7814	0	29568	
7815	0	29496	
7816	0	29432	
7817	0	29344	
7818	0	29264	
7819	0	29188	
7820	0	29168	
7821	0	29156	
7822	0	29100	
7823	0	29024	
7824	0	28944	
7825	0	28888	
7826	0	28864	
7827	0	28816	
7828	0	28768	
7829	0	28744	
7830	0	28788	
7831	0	28800	
7832	0	28792	
7833	0	28780	
7834	0	28768	
7835	0	28768	
7836	0	28776	
7837	0	28768	
7838	0	28796	
7839	0	28768	
7840	0	28712	
7841	0	28716	
7842	0	28704	
7843	0	28768	
7844	0	28812	
7845	0	28840	
7846	0	28848	
7847	0	28816	
7848	0	28792	
7849	0	28844	
7850	0	28888	
7851	0	28888	
7852	0	28904	
7853	0	28932	
7854	0	28988	
7855	0	29064	
7856	0	29096	
7857	0	29132	
7858	0	29184	
7859	0	29216	
7860	0	29248	
7861	0	29268	
7862	0	29300	
7863	0	29408	
7864	0	29480	
7865	0	29560	
7866	0	29628	
7867	0	29656	
7868	0	29644	
7869	0	29658	
7870	0	29692	
7871	0	29712	
7872	0	29736	
7873	0	29792	
7874	0	29820	
7875	0	29824	
7876	0	29824	
7877	0	29836	
7878	0	29872	
7879	0	29948	
7880	0	30000	
7881	0	30028	
7882	0	30016	
7883	0	30040	
7884	0	30060	
7885	0	30080	
7886	0	30088	
7887	0	30124	
7888	0	30202	
7889	0	30248	
7890	0	30300	
7891	0	30364	
7892	0	30452	
7893	0	30484	
7894	0	30516	
7895	0	30544	
7896	0	30552	
7897	0	30552	
7898	0	30570	
7899	0	30580	
7900	0	30616	
7901	0	30648	
7902	0	30648	
7903	0	30688	
7904	0	30748	
7905	0	30768	
7906	0	30780	
7907	0	30804	
7908	0	30896	
7909	0	30964	
7910	0	30920	
7911	0	30912	
7912	0	30948	
7913	0	30912	
7914	0	30904	
7915	0	30944	
7916	0	30962	
7917	0	31008	
7918	0	31052	
7919	0	31028	
7920	0	31032	
7921	0	31052	
7922	0	31072	
7923	0	31108	
7924	0	31116	
7925	0	31148	
7926	0	31192	
7927	0	31202	
7928	0	31216	
7929	0	31224	
7930	0	31272	
7931	0	31304	
7932	0	31328	
7933	0	31320	
7934	0	31300	
7935	0	31332	
7936	0	31356	
7937	0	31328	
7938	0	31328	
7939	0	31368	
7940	0	31392	
7941	0	31394	
7942	0	31436	
7943	0	31456	
7944	0	31460	
7945	0	31424	
7946	0	31416	
7947	0	31410	
7948	0	31424	
7949	0	31404	
7950	0	31472	
7951	0	31512	
7952	0	31528	
7953	0	31532	
7954	0	31540	
7955	0	31584	
7956	0	31616	
7957	0	31620	
7958	0	31588	
7959	0	31608	
7960	0	31614	
7961	0	31560	
7962	0	31544	
7963	0	31529	
7964	0	31492	
7965	0	31508	
7966	0	31524	
7967	0	31508	
7968	0	31520	
7969	0	31544	
7970	0	31560	
7971	0	31544	
7972	0	31502	
7973	0	31520	
7974	0	31536	
7975	0	31520	
7976	0	31512	
7977	0	31528	
7978	0	31532	
7979	0	31536	
7980	0	31556	
7981	0	31544	
7982	0	31532	
7983	0	31528	
7984	0	31520	
7985	0	31530	
7986	0	31524	
7987	0	31532	
7988	0	31568	
7989	0	31632	
7990	0	31664	
7991	0	31676	
7992	0	31700	
7993	0	31732	
7994	0	31708	
7995	0	31692	
7996	0	31648	
7997	0	31640	
7998	0	31620	
7999	0	31600	
8000	0	31600	
8001	0	31608	
8002	0	31604	
8003	0	31636	
8004	0	31672	
8005	0	31674	
8006	0	31648	
8007	0	31616	
8008	0	31656	
8009	0	31676	
8010	0	31660	
8011	0	31664	
8012	0	31670	
8013	0	31668	
8014	0	31680	
8015	0	31688	
8016	0	31628	
8017	0	31592	
8018	0	31600	
8019	0	31624	
8020	0	31656	
8021	0	31704	
8022	0	31688	
8023	0	31688	
8024	0	31696	
8025	0	31712	
8026	0	31708	
8027	0	31692	
8028	0	31684	
8029	0	31688	
8030	0	31724	
8031	0	31808	
8032	0	31808	
8033	0	31808	
8034	0	31816	
8035	0	31820	
8036	0	31816	
8037	0	31808	
8038	0	31800	
8039	0	31832	
8040	0	31834	
8041	0	31824	
8042	0	31808	
8043	0	31808	
8044	0	31792	
8045	0	31842	
8046	0	31840	
8047	0	31832	
8048	0	31786	
8049	0	31796	
8050	0	31768	
8051	0	31700	
8052	0	31684	
8053	0	31770	
8054	0	31840	
8055	0	31880	
8056	0	31932	
8057	0	32008	
8058	0	32040	
8059	0	32068	
8060	0	32148	
8061	0	32288	
8062	0	32420	
8063	0	32480	
8064	0	32536	
8065	0	32642	
8066	0	32744	
8067	0	32836	
8068	0	32932	
8069	0	32992	
8070	0	33044	
8071	0	33152	
8072	0	33256	
8073	0	33260	
8074	0	33212	
8075	0	33176	
8076	0	33136	
8077	0	33076	
8078	0	32958	
8079	0	32896	
8080	0	32936	
8081	0	33000	
8082	0	33034	
8083	0	33060	
8084	0	33092	
8085	0	33152	
8086	0	33288	
8087	0	33472	
8088	0	33704	
8089	0	33956	
8090	0	34228	
8091	0	34472	
8092	0	34616	
8093	0	34732	
8094	0	34876	
8095	0	35032	
8096	0	35168	
8097	0	35320	
8098	0	35416	
8099	0	35380	
8100	0	35260	
8101	0	35172	
8102	0	35068	
8103	0	34944	
8104	0	34816	
8105	0	34716	
8106	0	34568	
8107	0	34440	
8108	0	34312	
8109	0	34232	
8110	0	34190	
8111	0	34108	
8112	0	33964	
8113	0	33788	
8114	0	33632	
8115	0	33436	
8116	0	33212	
8117	0	33036	
8118	0	32952	
8119	0	32916	
8120	0	32860	
8121	0	32760	
8122	0	32644	
8123	0	32592	
8124	0	32484	
8125	0	32380	
8126	0	32304	
8127	0	32220	
8128	0	32128	
8129	0	32132	
8130	0	32072	
8131	0	31980	
8132	0	31892	
8133	0	31748	
8134	0	31616	
8135	0	31496	
8136	0	31372	
8137	0	31292	
8138	0	31236	
8139	0	31194	
8140	0	31100	
8141	0	31048	
8142	0	31064	
8143	0	31060	
8144	0	31084	
8145	0	31080	
8146	0	31064	
8147	0	31068	
8148	0	31068	
8149	0	31064	
8150	0	31052	
8151	0	31052	
8152	0	31076	
8153	0	31056	
8154	0	31072	
8155	0	31120	
8156	0	31144	
8157	0	31140	
8158	0	31156	
8159	0	31192	
8160	0	31240	
8161	0	31280	
8162	0	31288	
8163	0	31300	
8164	0	31324	
8165	0	31310	
8166	0	31292	
8167	0	31296	
8168	0	31348	
8169	0	31376	
8170	0	31428	
8171	0	31504	
8172	0	31544	
8173	0	31536	
8174	0	31528	
8175	0	31548	
8176	0	31576	
8177	0	31604	
8178	0	31624	
8179	0	31632	
8180	0	31564	
8181	0	31424	
8182	0	31232	
8183	0	30920	
8184	0	30440	
8185	0	29824	
8186	0	29208	
8187	0	28746	
8188	0	28538	
8189	0	28460	
8190	0	28488	
8191	0	28748	
8192	0	29244	
8193	0	30008	
8194	0	30972	
8195	0	32076	
8196	0	33396	
8197	0	34912	
8198	0	36592	
8199	0	38376	
8200	0	40512	
8201	0	43008	
8202	0	45936	
8203	0	49464	
8204	0	53216	
8205	0	56884	
8206	0	60384	
8207	0	62824	
8208	0	64144	
8209	0	64800	
8210	0	65072	
8211	0	65188	
8212	0	65176	
8213	0	65120	
8214	0	65020	
8215	0	64920	
8216	0	64784	
8217	0	64664	
8218	0	59016	
8219	0	53088	
8220	0	48260	
8221	0	44304	
8222	0	41056	
8223	0	38432	
8224	0	36144	
8225	0	34064	
8226	0	32240	
8227	0	30700	
8228	0	29560	
8229	0	28708	
8230	0	28046	
8231	0	27526	
8232	0	27208	
8233	0	27020	
8234	0	26964	
8235	0	26968	
8236	0	26992	
8237	0	26976	
8238	0	26940	
8239	0	26912	
8240	0	27018	
8241	0	27202	
8242	0	27474	
8243	0	27736	
8244	0	28004	
8245	0	28264	
8246	0	28538	
8247	0	28796	
8248	0	28992	
8249	0	29136	
8250	0	29300	
8251	0	29380	
8252	0	29348	
8253	0	29328	
8254	0	29312	
8255	0	29264	
8256	0	29216	
8257	0	29218	
8258	0	29234	
8259	0	29192	
8260	0	29168	
8261	0	29168	
8262	0	29184	
8263	0	29188	
8264	0	29168	
8265	0	29144	
8266	0	29156	
8267	0	29184	
8268	0	29244	
8269	0	29284	
8270	0	29344	
8271	0	29424	
8272	0	29488	
8273	0	29480	
8274	0	29480	
8275	0	29524	
8276	0	29572	
8277	0	29648	
8278	0	29740	
8279	0	29816	
8280	0	29896	
8281	0	29868	
8282	0	29876	
8283	0	29924	
8284	0	29984	
8285	0	29988	
8286	0	29998	
8287	0	29972	
8288	0	29996	
8289	0	30050	
8290	0	30120	
8291	0	30212	
8292	0	30296	
8293	0	30330	
8294	0	30440	
8295	0	30552	
8296	0	30528	
8297	0	30500	
8298	0	30556	
8299	0	30640	
8300	0	30664	
8301	0	30660	
8302	0	30680	
8303	0	30724	
8304	0	30764	
8305	0	30800	
8306	0	30860	
8307	0	30904	
8308	0	30936	
8309	0	31008	
8310	0	31072	
8311	0	31080	
8312	0	31168	
8313	0	31236	
8314	0	31288	
8315	0	31320	
8316	0	31396	
8317	0	31448	
8318	0	31474	
8319	0	31492	
8320	0	31528	
8321	0	31550	
8322	0	31600	
8323	0	31660	
8324	0	31700	
8325	0	31752	
8326	0	31824	
8327	0	31868	
8328	0	31884	
8329	0	31968	
8330	0	32008	
8331	0	32084	
8332	0	32172	
8333	0	32232	
8334	0	32248	
8335	0	32260	
8336	0	32282	
8337	0	32344	
8338	0	32416	
8339	0	32452	
8340	0	32476	
8341	0	32540	
8342	0	32616	
8343	0	32704	
8344	0	32744	
8345	0	32788	
8346	0	32816	
8347	0	32808	
8348	0	32792	
8349	0	32844	
8350	0	32900	
8351	0	32976	
8352	0	33022	
8353	0	33056	
8354	0	33092	
8355	0	33144	
8356	0	33216	
8357	0	33280	
8358	0	33340	
8359	0	33412	
8360	0	33476	
8361	0	33568	
8362	0	33652	
8363	0	33726	
8364	0	33800	
8365	0	33848	
8366	0	33876	
8367	0	33936	
8368	0	34016	
8369	0	34056	
8370	0	34152	
8371	0	34244	
8372	0	34288	
8373	0	34304	
8374	0	34340	
8375	0	34384	
8376	0	34448	
8377	0	34536	
8378	0	34652	
8379	0	34796	
8380	0	34940	
8381	0	34984	
8382	0	35008	
8383	0	35060	
8384	0	35108	
8385	0	35136	
8386	0	35168	
8387	0	35216	
8388	0	35300	
8389	0	35404	
8390	0	35536	
8391	0	35612	
8392	0	35696	
8393	0	35780	
8394	0	35860	
8395	0	35960	
8396	0	36032	
8397	0	36072	
8398	0	36120	
8399	0	36192	
8400	0	36260	
8401	0	36310	
8402	0	36356	
8403	0	36428	
8404	0	36488	
8405	0	36552	
8406	0	36600	
8407	0	36648	
8408	0	36752	
8409	0	36800	
8410	0	36864	
8411	0	36912	
8412	0	36956	
8413	0	37012	
8414	0	37080	
8415	0	37120	
8416	0	37156	
8417	0	37212	
8418	0	37296	
8419	0	37380	
8420	0	37426	
8421	0	37408	
8422	0	37444	
8423	0	37476	
8424	0	37472	
8425	0	37504	
8426	0	37508	
8427	0	37496	
8428	0	37496	
8429	0	37500	
8430	0	37536	
8431	0	37524	
8432	0	37508	
8433	0	37512	
8434	0	37524	
8435	0	37536	
8436	0	37524	
8437	0	37464	
8438	0	37488	
8439	0	37500	
8440	0	37460	
8441	0	37400	
8442	0	37344	
8443	0	37296	
8444	0	37240	
8445	0	37188	
8446	0	37104	
8447	0	37080	
8448	0	37108	
8449	0	37060	
8450	0	36948	
8451	0	36860	
8452	0	36800	
8453	0	36736	
8454	0	36640	
8455	0	36544	
8456	0	36448	
8457	0	36332	
8458	0	36216	
8459	0	36080	
8460	0	35952	
8461	0	35840	
8462	0	35700	
8463	0	35560	
8464	0	35376	
8465	0	35140	
8466	0	34888	
8467	0	34696	
8468	0	34522	
8469	0	34288	
8470	0	34056	
8471	0	33848	
8472	0	33672	
8473	0	33504	
8474	0	33316	
8475	0	33068	
8476	0	32880	
8477	0	32684	
8478	0	32488	
8479	0	32300	
8480	0	32132	
8481	0	31980	
8482	0	31776	
8483	0	31628	
8484	0	31512	
8485	0	31348	
8486	0	31160	
8487	0	30976	
8488	0	30828	
8489	0	30696	
8490	0	30552	
8491	0	30448	
8492	0	30316	
8493	0	30180	
8494	0	30064	
8495	0	30004	
8496	0	29872	
8497	0	29756	
8498	0	29660	
8499	0	29580	
8500	0	29492	
8501	0	29434	
8502	0	29386	
8503	0	29344	
8504	0	29272	
8505	0	29176	
8506	0	29080	
8507	0	29048	
8508	0	29080	
8509	0	29116	
8510	0	29096	
8511	0	29032	
8512	0	29012	
8513	0	29016	
8514	0	28968	
8515	0	28996	
8516	0	29016	
8517	0	29020	
8518	0	28972	
8519	0	28944	
8520	0	28952	
8521	0	28956	
8522	0	28964	
8523	0	28956	
8524	0	28960	
8525	0	28976	
8526	0	29020	
8527	0	28990	
8528	0	29000	
8529	0	29008	
8530	0	29020	
8531	0	29044	
8532	0	29078	
8533	0	29100	
8534	0	29160	
8535	0	29202	
8536	0	29192	
8537	0	29216	
8538	0	29244	
8539	0	29280	
8540	0	29284	
8541	0	29340	
8542	0	29396	
8543	0	29440	
8544	0	29480	
8545	0	29516	
8546	0	29564	
8547	0	29600	
8548	0	29624	
8549	0	29656	
8550	0	29720	
8551	0	29724	
8552	0	29740	
8553	0	29776	
8554	0	29788	
8555	0	29816	
8556	0	29832	
8557	0	29832	
8558	0	29840	
8559	0	29900	
8560	0	29962	
8561	0	30036	
8562	0	30084	
8563	0	30140	
8564	0	30180	
8565	0	30200	
8566	0	30240	
8567	0	30300	
8568	0	30336	
8569	0	30340	
8570	0	30380	
8571	0	30432	
8572	0	30496	
8573	0	30490	
8574	0	30514	
8575	0	30532	
8576	0	30560	
8577	0	30562	
8578	0	30612	
8579	0	30668	
8580	0	30672	
8581	0	30648	
8582	0	30680	
8583	0	30708	
8584	0	30736	
8585	0	30784	
8586	0	30824	
8587	0	30872	
8588	0	30884	
8589	0	30896	
8590	0	30976	
8591	0	31024	
