# OpenSignals Text File Format. Version 1
# {"00:07:80:4B:15:F7": {"position": 0, "device": "biosignalsplux", "device name": "00:07:80:4B:15:F7", "device connection": "BTH00:07:80:4B:15:F7", "sampling rate": 1000, "resolution": [16], "firmware version": 775, "comments": "", "keywords": "", "mode": 0, "sync interval": 2, "date": "2023-4-12", "time": "15:34:16.500", "channels": [1], "sensor": ["ECG"], "label": ["CH1"], "column": ["nSeq", "DI", "CH1"], "special": [{"SpO2": [80, 40, 5, 4, 3, 3]}, {"SpO2": [80, 40, 5, 4, 3, 3]}, {"SpO2": [80, 40, 5, 4, 3, 3]}, {"SpO2": [80, 40, 5, 4, 3, 3]}, {"SpO2": [80, 40, 5, 4, 3, 3]}, {"SpO2": [80, 40, 5, 4, 3, 3]}, {"SpO2": [80, 40, 5, 4, 3, 3]}, {"SpO2": [80, 40, 5, 4, 3, 3]}], "digital IO": [0, 1], "sleeve color": ["green"], "convertedValues": 0}}
# EndOfHeader
0	0	32224	
1	0	32160	
2	0	32128	
3	0	32128	
4	0	32124	
5	0	32144	
6	0	32152	
7	0	32180	
8	0	32224	
9	0	32220	
10	0	32196	
11	0	32184	
12	0	32192	
13	0	32208	
14	0	32196	
15	0	32184	
16	0	32176	
17	0	32192	
18	0	32178	
19	0	32148	
20	0	32152	
21	0	32161	
22	0	32176	
23	0	32192	
24	0	32216	
25	0	32256	
26	0	32280	
27	0	32304	
28	0	32320	
29	0	32352	
30	0	32400	
31	0	32440	
32	0	32436	
33	0	32440	
34	0	32410	
35	0	32320	
36	0	32314	
37	0	32352	
38	0	32400	
39	0	32492	
40	0	32560	
41	0	32612	
42	0	32676	
43	0	32788	
44	0	32908	
45	0	33040	
46	0	33184	
47	0	33320	
48	0	33464	
49	0	33582	
50	0	33700	
51	0	33848	
52	0	34048	
53	0	34212	
54	0	34352	
55	0	34452	
56	0	34544	
57	0	34572	
58	0	34548	
59	0	34496	
60	0	34432	
61	0	34372	
62	0	34296	
63	0	34218	
64	0	34208	
65	0	34208	
66	0	34260	
67	0	34352	
68	0	34506	
69	0	34732	
70	0	35036	
71	0	35396	
72	0	35706	
73	0	36014	
74	0	36380	
75	0	36672	
76	0	36904	
77	0	37100	
78	0	37208	
79	0	37264	
80	0	37278	
81	0	37228	
82	0	37144	
83	0	37016	
84	0	36948	
85	0	36848	
86	0	36720	
87	0	36600	
88	0	36468	
89	0	36384	
90	0	36308	
91	0	36224	
92	0	36252	
93	0	36276	
94	0	36260	
95	0	36216	
96	0	36156	
97	0	36068	
98	0	35980	
99	0	35872	
100	0	35748	
101	0	35604	
102	0	35388	
103	0	35164	
104	0	34812	
105	0	34364	
106	0	33978	
107	0	33668	
108	0	33364	
109	0	32956	
110	0	32576	
111	0	32264	
112	0	31992	
113	0	31772	
114	0	31604	
115	0	31480	
116	0	31360	
117	0	31242	
118	0	31160	
119	0	31096	
120	0	31012	
121	0	30872	
122	0	30744	
123	0	30640	
124	0	30524	
125	0	30448	
126	0	30376	
127	0	30336	
128	0	30328	
129	0	30328	
130	0	30296	
131	0	30296	
132	0	30316	
133	0	30320	
134	0	30340	
135	0	30344	
136	0	30364	
137	0	30376	
138	0	30372	
139	0	30348	
140	0	30364	
141	0	30400	
142	0	30428	
143	0	30424	
144	0	30452	
145	0	30512	
146	0	30576	
147	0	30608	
148	0	30632	
149	0	30648	
150	0	30704	
151	0	30704	
152	0	30664	
153	0	30676	
154	0	30728	
155	0	30772	
156	0	30836	
157	0	30846	
158	0	30832	
159	0	30780	
160	0	30604	
161	0	30332	
162	0	29872	
163	0	29150	
164	0	28236	
165	0	27316	
166	0	26384	
167	0	25472	
168	0	24696	
169	0	24128	
170	0	23832	
171	0	23652	
172	0	23702	
173	0	24056	
174	0	24624	
175	0	25416	
176	0	26452	
177	0	27752	
178	0	29616	
179	0	31956	
180	0	34672	
181	0	37594	
182	0	40664	
183	0	43860	
184	0	47432	
185	0	51320	
186	0	55400	
187	0	59520	
188	0	62308	
189	0	63812	
190	0	64564	
191	0	64912	
192	0	65048	
193	0	65068	
194	0	65008	
195	0	64920	
196	0	64824	
197	0	64712	
198	0	64596	
199	0	57776	
200	0	51192	
201	0	45948	
202	0	41456	
203	0	37192	
204	0	33416	
205	0	30420	
206	0	27976	
207	0	25824	
208	0	23829	
209	0	21992	
210	0	20290	
211	0	18780	
212	0	17516	
213	0	16368	
214	0	15514	
215	0	15102	
216	0	14970	
217	0	14882	
218	0	14732	
219	0	14724	
220	0	14958	
221	0	15530	
222	0	16250	
223	0	16932	
224	0	17648	
225	0	18424	
226	0	19220	
227	0	20068	
228	0	20909	
229	0	21697	
230	0	22376	
231	0	23076	
232	0	23760	
233	0	24400	
234	0	25020	
235	0	25676	
236	0	26328	
237	0	26920	
238	0	27440	
239	0	27884	
240	0	28300	
241	0	28680	
242	0	28972	
243	0	29208	
244	0	29372	
245	0	29472	
246	0	29516	
247	0	29576	
248	0	29632	
249	0	29700	
250	0	29760	
251	0	29824	
252	0	29914	
253	0	30008	
254	0	30084	
255	0	30200	
256	0	30328	
257	0	30432	
258	0	30552	
259	0	30668	
260	0	30800	
261	0	30944	
262	0	31030	
263	0	31104	
264	0	31160	
265	0	31224	
266	0	31256	
267	0	31292	
268	0	31252	
269	0	31260	
270	0	31308	
271	0	31368	
272	0	31404	
273	0	31424	
274	0	31400	
275	0	31376	
276	0	31344	
277	0	31314	
278	0	31328	
279	0	31384	
280	0	31520	
281	0	31692	
282	0	31768	
283	0	31764	
284	0	31820	
285	0	31898	
286	0	31956	
287	0	32010	
288	0	32074	
289	0	32116	
290	0	32076	
291	0	32024	
292	0	32000	
293	0	31968	
294	0	31960	
295	0	31968	
296	0	31984	
297	0	32016	
298	0	32112	
299	0	32320	
300	0	32488	
301	0	32600	
302	0	32654	
303	0	32768	
304	0	32864	
305	0	32904	
306	0	32904	
307	0	32836	
308	0	32756	
309	0	32732	
310	0	32736	
311	0	32728	
312	0	32784	
313	0	32858	
314	0	32956	
315	0	33036	
316	0	33084	
317	0	33096	
318	0	33104	
319	0	33134	
320	0	33192	
321	0	33248	
322	0	33296	
323	0	33324	
324	0	33332	
325	0	33292	
326	0	33272	
327	0	33256	
328	0	33248	
329	0	33248	
330	0	33284	
331	0	33336	
332	0	33420	
333	0	33472	
334	0	33536	
335	0	33616	
336	0	33752	
337	0	33860	
338	0	33888	
339	0	33888	
340	0	33912	
341	0	33948	
342	0	33952	
343	0	33932	
344	0	33880	
345	0	33796	
346	0	33740	
347	0	33772	
348	0	33800	
349	0	33808	
350	0	33844	
351	0	33820	
352	0	33760	
353	0	33788	
354	0	33872	
355	0	33956	
356	0	34056	
357	0	34168	
358	0	34272	
359	0	34344	
360	0	34292	
361	0	34224	
362	0	34188	
363	0	34120	
364	0	34088	
365	0	34082	
366	0	34100	
367	0	34142	
368	0	34256	
369	0	34360	
370	0	34368	
371	0	34356	
372	0	34328	
373	0	34300	
374	0	34352	
375	0	34328	
376	0	34220	
377	0	34160	
378	0	34144	
379	0	34192	
380	0	34216	
381	0	34202	
382	0	34146	
383	0	34092	
384	0	34080	
385	0	34124	
386	0	34180	
387	0	34172	
388	0	34100	
389	0	34048	
390	0	34044	
391	0	34040	
392	0	34064	
393	0	34064	
394	0	34044	
395	0	34028	
396	0	33984	
397	0	33984	
398	0	34000	
399	0	34064	
400	0	34128	
401	0	34188	
402	0	34256	
403	0	34320	
404	0	34372	
405	0	34352	
406	0	34326	
407	0	34316	
408	0	34280	
409	0	34192	
410	0	34114	
411	0	34028	
412	0	33952	
413	0	33880	
414	0	33904	
415	0	34016	
416	0	34084	
417	0	34088	
418	0	34100	
419	0	34228	
420	0	34416	
421	0	34588	
422	0	34692	
423	0	34696	
424	0	34676	
425	0	34684	
426	0	34736	
427	0	34816	
428	0	34884	
429	0	34876	
430	0	34832	
431	0	34744	
432	0	34620	
433	0	34504	
434	0	34396	
435	0	34336	
436	0	34324	
437	0	34304	
438	0	34276	
439	0	34204	
440	0	34072	
441	0	34000	
442	0	33936	
443	0	33882	
444	0	33826	
445	0	33832	
446	0	33920	
447	0	33960	
448	0	33944	
449	0	33888	
450	0	33800	
451	0	33714	
452	0	33720	
453	0	33682	
454	0	33640	
455	0	33552	
456	0	33440	
457	0	33388	
458	0	33404	
459	0	33416	
460	0	33396	
461	0	33324	
462	0	33248	
463	0	33086	
464	0	32872	
465	0	32752	
466	0	32636	
467	0	32508	
468	0	32388	
469	0	32364	
470	0	32384	
471	0	32400	
472	0	32468	
473	0	32552	
474	0	32580	
475	0	32568	
476	0	32504	
477	0	32364	
478	0	32260	
479	0	32208	
480	0	32244	
481	0	32284	
482	0	32300	
483	0	32376	
484	0	32448	
485	0	32392	
486	0	32266	
487	0	32200	
488	0	32148	
489	0	32112	
490	0	32088	
491	0	32092	
492	0	32136	
493	0	32032	
494	0	31872	
495	0	31744	
496	0	31632	
497	0	31536	
498	0	31488	
499	0	31456	
500	0	31456	
501	0	31456	
502	0	31440	
503	0	31466	
504	0	31544	
505	0	31680	
506	0	31792	
507	0	31864	
508	0	31946	
509	0	32024	
510	0	32072	
511	0	32120	
512	0	32196	
513	0	32352	
514	0	32472	
515	0	32498	
516	0	32453	
517	0	32468	
518	0	32424	
519	0	32304	
520	0	32284	
521	0	32264	
522	0	32232	
523	0	32196	
524	0	32256	
525	0	32362	
526	0	32388	
527	0	32432	
528	0	32492	
529	0	32612	
530	0	32676	
531	0	32636	
532	0	32584	
533	0	32576	
534	0	32604	
535	0	32644	
536	0	32720	
537	0	32796	
538	0	32896	
539	0	33000	
540	0	33096	
541	0	33036	
542	0	32880	
543	0	32770	
544	0	32776	
545	0	32808	
546	0	32860	
547	0	32944	
548	0	33060	
549	0	33170	
550	0	33240	
551	0	33184	
552	0	33096	
553	0	33016	
554	0	32912	
555	0	32860	
556	0	32924	
557	0	33140	
558	0	33252	
559	0	33304	
560	0	33300	
561	0	33332	
562	0	33464	
563	0	33504	
564	0	33540	
565	0	33516	
566	0	33430	
567	0	33440	
568	0	33500	
569	0	33544	
570	0	33608	
571	0	33648	
572	0	33677	
573	0	33692	
574	0	33684	
575	0	33568	
576	0	33428	
577	0	33376	
578	0	33408	
579	0	33464	
580	0	33520	
581	0	33552	
582	0	33544	
583	0	33572	
584	0	33640	
585	0	33656	
586	0	33632	
587	0	33608	
588	0	33584	
589	0	33608	
590	0	33616	
591	0	33576	
592	0	33508	
593	0	33472	
594	0	33412	
595	0	33336	
596	0	33324	
597	0	33296	
598	0	33256	
599	0	33240	
600	0	33184	
601	0	33148	
602	0	33176	
603	0	33188	
604	0	33280	
605	0	33312	
606	0	33288	
607	0	33278	
608	0	33304	
609	0	33416	
610	0	33440	
611	0	33412	
612	0	33440	
613	0	33604	
614	0	33840	
615	0	33960	
616	0	33916	
617	0	33724	
618	0	33520	
619	0	33312	
620	0	33044	
621	0	32848	
622	0	32762	
623	0	32724	
624	0	32640	
625	0	32512	
626	0	32488	
627	0	32480	
628	0	32512	
629	0	32504	
630	0	32512	
631	0	32488	
632	0	32424	
633	0	32376	
634	0	32336	
635	0	32276	
636	0	32276	
637	0	32412	
638	0	32520	
639	0	32596	
640	0	32652	
641	0	32684	
642	0	32634	
643	0	32648	
644	0	32688	
645	0	32624	
646	0	32576	
647	0	32548	
648	0	32464	
649	0	32448	
650	0	32452	
651	0	32404	
652	0	32216	
653	0	32064	
654	0	32044	
655	0	32282	
656	0	32400	
657	0	32340	
658	0	32388	
659	0	32484	
660	0	32616	
661	0	32692	
662	0	32726	
663	0	32656	
664	0	32498	
665	0	32272	
666	0	31928	
667	0	31620	
668	0	31444	
669	0	31440	
670	0	31576	
671	0	31700	
672	0	31882	
673	0	32172	
674	0	32512	
675	0	32716	
676	0	32816	
677	0	32724	
678	0	32480	
679	0	32176	
680	0	31896	
681	0	31808	
682	0	31872	
683	0	32032	
684	0	32144	
685	0	32112	
686	0	31936	
687	0	31736	
688	0	31660	
689	0	31664	
690	0	31692	
691	0	31736	
692	0	31800	
693	0	31888	
694	0	31976	
695	0	32032	
696	0	32068	
697	0	32144	
698	0	32190	
699	0	32192	
700	0	32148	
701	0	32244	
702	0	32376	
703	0	32404	
704	0	32224	
705	0	31936	
706	0	31648	
707	0	31336	
708	0	31080	
709	0	30992	
710	0	31228	
711	0	31624	
712	0	31900	
713	0	32058	
714	0	32176	
715	0	32224	
716	0	32256	
717	0	32296	
718	0	32244	
719	0	32176	
720	0	32188	
721	0	32244	
722	0	32320	
723	0	32332	
724	0	32336	
725	0	32380	
726	0	32468	
727	0	32440	
728	0	32336	
729	0	32260	
730	0	32136	
731	0	32096	
732	0	32212	
733	0	32340	
734	0	32232	
735	0	32056	
736	0	31984	
737	0	31940	
738	0	31920	
739	0	31904	
740	0	31860	
741	0	31784	
742	0	31752	
743	0	31776	
744	0	31880	
745	0	31996	
746	0	32092	
747	0	32188	
748	0	32240	
749	0	32316	
750	0	32424	
751	0	32400	
752	0	32216	
753	0	32060	
754	0	32072	
755	0	32088	
756	0	32028	
757	0	31828	
758	0	31760	
759	0	31856	
760	0	32052	
761	0	32332	
762	0	32588	
763	0	32792	
764	0	32864	
765	0	32816	
766	0	32826	
767	0	32948	
768	0	33248	
769	0	33448	
770	0	33456	
771	0	33400	
772	0	33418	
773	0	33576	
774	0	33828	
775	0	34080	
776	0	34252	
777	0	34308	
778	0	34328	
779	0	34216	
780	0	33920	
781	0	33600	
782	0	33440	
783	0	33564	
784	0	33744	
785	0	33896	
786	0	34032	
787	0	34324	
788	0	34648	
789	0	34948	
790	0	35212	
791	0	35472	
792	0	35576	
793	0	35484	
794	0	35408	
795	0	35460	
796	0	35592	
797	0	35640	
798	0	35620	
799	0	35652	
800	0	35732	
801	0	35692	
802	0	35616	
803	0	35624	
804	0	35708	
805	0	35816	
806	0	35908	
807	0	35864	
808	0	35808	
809	0	35756	
810	0	35724	
811	0	35852	
812	0	35964	
813	0	35898	
814	0	35824	
815	0	35884	
816	0	35860	
817	0	35656	
818	0	35452	
819	0	35272	
820	0	35040	
821	0	34796	
822	0	34586	
823	0	34452	
824	0	34388	
825	0	34400	
826	0	34252	
827	0	33868	
828	0	33364	
829	0	32796	
830	0	32372	
831	0	32212	
832	0	32008	
833	0	31692	
834	0	31336	
835	0	31068	
836	0	31002	
837	0	30926	
838	0	30752	
839	0	30528	
840	0	30318	
841	0	30252	
842	0	30276	
843	0	30496	
844	0	30780	
845	0	30980	
846	0	31104	
847	0	31276	
848	0	31420	
849	0	31296	
850	0	31118	
851	0	30948	
852	0	30738	
853	0	30528	
854	0	30472	
855	0	30528	
856	0	30564	
857	0	30548	
858	0	30506	
859	0	30432	
860	0	30328	
861	0	30320	
862	0	30378	
863	0	30440	
864	0	30420	
865	0	30372	
866	0	30460	
867	0	30624	
868	0	30760	
869	0	30896	
870	0	31056	
871	0	31216	
872	0	31280	
873	0	31212	
874	0	31066	
875	0	30880	
876	0	30776	
877	0	30596	
878	0	30398	
879	0	30260	
880	0	30076	
881	0	29784	
882	0	29304	
883	0	28560	
884	0	27776	
885	0	27000	
886	0	26240	
887	0	25802	
888	0	25762	
889	0	25908	
890	0	26230	
891	0	26880	
892	0	27728	
893	0	28718	
894	0	29804	
895	0	31096	
896	0	32800	
897	0	34624	
898	0	36752	
899	0	39104	
900	0	41692	
901	0	44556	
902	0	47560	
903	0	50776	
904	0	54132	
905	0	57660	
906	0	61096	
907	0	63080	
908	0	64148	
909	0	64648	
910	0	64872	
911	0	64936	
912	0	64916	
913	0	64856	
914	0	64744	
915	0	64656	
916	0	64536	
917	0	56520	
918	0	47832	
919	0	40832	
920	0	35308	
921	0	30756	
922	0	27036	
923	0	24600	
924	0	23121	
925	0	22164	
926	0	21450	
927	0	20788	
928	0	19940	
929	0	18976	
930	0	17980	
931	0	16788	
932	0	15704	
933	0	14804	
934	0	14032	
935	0	13584	
936	0	13376	
937	0	13472	
938	0	13884	
939	0	14368	
940	0	14882	
941	0	15404	
942	0	15904	
943	0	16380	
944	0	16964	
945	0	17416	
946	0	17732	
947	0	18228	
948	0	18898	
949	0	19840	
950	0	20976	
951	0	22264	
952	0	23350	
953	0	24026	
954	0	24538	
955	0	25100	
956	0	25756	
957	0	26462	
958	0	27088	
959	0	27684	
960	0	28204	
961	0	28617	
962	0	28912	
963	0	29068	
964	0	29332	
965	0	29698	
966	0	29964	
967	0	30108	
968	0	30296	
969	0	30344	
970	0	30248	
971	0	30106	
972	0	30220	
973	0	30512	
974	0	30944	
975	0	31360	
976	0	31540	
977	0	31504	
978	0	31420	
979	0	31300	
980	0	31268	
981	0	31348	
982	0	31616	
983	0	32024	
984	0	32328	
985	0	32480	
986	0	32616	
987	0	32456	
988	0	32128	
989	0	31972	
990	0	31924	
991	0	31864	
992	0	31828	
993	0	31712	
994	0	31590	
995	0	31680	
996	0	32078	
997	0	32600	
998	0	32960	
999	0	33152	
1000	0	33240	
1001	0	33360	
1002	0	33514	
1003	0	33376	
1004	0	33004	
1005	0	32620	
1006	0	32352	
1007	0	32088	
1008	0	32116	
1009	0	32348	
1010	0	32608	
1011	0	32904	
1012	0	33108	
1013	0	33328	
1014	0	33620	
1015	0	33882	
1016	0	34012	
1017	0	34072	
1018	0	34056	
1019	0	33984	
1020	0	33872	
1021	0	33796	
1022	0	33796	
1023	0	33740	
1024	0	33604	
1025	0	33576	
1026	0	33608	
1027	0	33564	
1028	0	33480	
1029	0	33476	
1030	0	33594	
1031	0	33676	
1032	0	33604	
1033	0	33464	
1034	0	33416	
1035	0	33424	
1036	0	33648	
1037	0	33684	
1038	0	33424	
1039	0	33272	
1040	0	33280	
1041	0	33496	
1042	0	33824	
1043	0	34116	
1044	0	34292	
1045	0	34388	
1046	0	34432	
1047	0	34396	
1048	0	34320	
1049	0	34328	
1050	0	34260	
1051	0	34128	
1052	0	34052	
1053	0	34176	
1054	0	34368	
1055	0	34444	
1056	0	34696	
1057	0	35080	
1058	0	35404	
1059	0	35460	
1060	0	35324	
1061	0	35072	
1062	0	34832	
1063	0	34776	
1064	0	34904	
1065	0	34948	
1066	0	34976	
1067	0	35108	
1068	0	35280	
1069	0	35520	
1070	0	35720	
1071	0	35856	
1072	0	35992	
1073	0	36048	
1074	0	35968	
1075	0	35604	
1076	0	35198	
1077	0	34984	
1078	0	34864	
1079	0	34824	
1080	0	35020	
1081	0	35128	
1082	0	34976	
1083	0	34724	
1084	0	34776	
1085	0	34884	
1086	0	34834	
1087	0	34912	
1088	0	35216	
1089	0	35552	
1090	0	35856	
1091	0	35984	
1092	0	36008	
1093	0	35932	
1094	0	35836	
1095	0	35850	
1096	0	36032	
1097	0	36320	
1098	0	36448	
1099	0	36312	
1100	0	36024	
1101	0	35744	
1102	0	35720	
1103	0	35904	
1104	0	36012	
1105	0	35920	
1106	0	35740	
1107	0	35496	
1108	0	35408	
1109	0	35424	
1110	0	35488	
1111	0	35512	
1112	0	35480	
1113	0	35488	
1114	0	35456	
1115	0	35392	
1116	0	35456	
1117	0	35712	
1118	0	36232	
1119	0	36992	
1120	0	37488	
1121	0	37634	
1122	0	37460	
1123	0	37248	
1124	0	37112	
1125	0	36756	
1126	0	36236	
1127	0	35860	
1128	0	35664	
1129	0	35636	
1130	0	35700	
1131	0	35780	
1132	0	35880	
1133	0	35780	
1134	0	35352	
1135	0	34880	
1136	0	34616	
1137	0	34532	
1138	0	34452	
1139	0	34394	
1140	0	34446	
1141	0	34576	
1142	0	35072	
1143	0	35584	
1144	0	35860	
1145	0	35932	
1146	0	35728	
1147	0	35420	
1148	0	35096	
1149	0	34784	
1150	0	34700	
1151	0	34764	
1152	0	34624	
1153	0	34224	
1154	0	33800	
1155	0	33780	
1156	0	34061	
1157	0	34452	
1158	0	34618	
1159	0	34634	
1160	0	34500	
1161	0	34154	
1162	0	33704	
1163	0	33280	
1164	0	33016	
1165	0	32860	
1166	0	32740	
1167	0	32740	
1168	0	32664	
1169	0	32552	
1170	0	32468	
1171	0	32664	
1172	0	33104	
1173	0	33104	
1174	0	32632	
1175	0	32108	
1176	0	31808	
1177	0	31928	
1178	0	32032	
1179	0	32044	
1180	0	32124	
1181	0	32236	
1182	0	32244	
1183	0	32192	
1184	0	32104	
1185	0	31920	
1186	0	31672	
1187	0	31618	
1188	0	31768	
1189	0	31908	
1190	0	32112	
1191	0	32210	
1192	0	32144	
1193	0	31900	
1194	0	31540	
1195	0	31184	
1196	0	31056	
1197	0	30984	
1198	0	30962	
1199	0	30912	
1200	0	30892	
1201	0	31036	
1202	0	31202	
1203	0	31296	
1204	0	31288	
1205	0	31268	
1206	0	31296	
1207	0	31208	
1208	0	30914	
1209	0	30680	
1210	0	30684	
1211	0	30966	
1212	0	31516	
1213	0	31908	
1214	0	31968	
1215	0	31680	
1216	0	31136	
1217	0	30732	
1218	0	30560	
1219	0	30380	
1220	0	30142	
1221	0	29876	
1222	0	29616	
1223	0	29344	
1224	0	29316	
1225	0	29608	
1226	0	30316	
1227	0	31076	
1228	0	31628	
1229	0	31892	
1230	0	31872	
1231	0	31596	
1232	0	31296	
1233	0	31192	
1234	0	31160	
1235	0	31008	
1236	0	30780	
1237	0	30492	
1238	0	30176	
1239	0	30176	
1240	0	30440	
1241	0	30740	
1242	0	31032	
1243	0	31116	
1244	0	30984	
1245	0	30904	
1246	0	30848	
1247	0	30856	
1248	0	30980	
1249	0	31188	
1250	0	31488	
1251	0	31744	
1252	0	31896	
1253	0	31760	
1254	0	31508	
1255	0	31306	
1256	0	31312	
1257	0	31428	
1258	0	31516	
1259	0	31496	
1260	0	31588	
1261	0	31888	
1262	0	32240	
1263	0	32458	
1264	0	32536	
1265	0	32532	
1266	0	32456	
1267	0	32336	
1268	0	32184	
1269	0	31896	
1270	0	31722	
1271	0	31796	
1272	0	31736	
1273	0	31532	
1274	0	31408	
1275	0	31536	
1276	0	31884	
1277	0	32204	
1278	0	32536	
1279	0	32728	
1280	0	32600	
1281	0	32400	
1282	0	32376	
1283	0	32524	
1284	0	32724	
1285	0	32828	
1286	0	32940	
1287	0	33088	
1288	0	33052	
1289	0	32896	
1290	0	32704	
1291	0	32638	
1292	0	32718	
1293	0	32932	
1294	0	33076	
1295	0	33056	
1296	0	32898	
1297	0	32716	
1298	0	32536	
1299	0	32524	
1300	0	32620	
1301	0	32724	
1302	0	32896	
1303	0	33104	
1304	0	33156	
1305	0	33216	
1306	0	33344	
1307	0	33376	
1308	0	33256	
1309	0	33204	
1310	0	33416	
1311	0	33696	
1312	0	33660	
1313	0	33472	
1314	0	33380	
1315	0	33384	
1316	0	33468	
1317	0	33636	
1318	0	33716	
1319	0	33660	
1320	0	33580	
1321	0	33528	
1322	0	33312	
1323	0	32954	
1324	0	32728	
1325	0	32660	
1326	0	32716	
1327	0	33044	
1328	0	33488	
1329	0	33504	
1330	0	33292	
1331	0	33196	
1332	0	33384	
1333	0	33564	
1334	0	33472	
1335	0	33288	
1336	0	33220	
1337	0	33148	
1338	0	33076	
1339	0	32936	
1340	0	32812	
1341	0	32836	
1342	0	32968	
1343	0	33144	
1344	0	33298	
1345	0	33324	
1346	0	33220	
1347	0	33064	
1348	0	32928	
1349	0	32764	
1350	0	32608	
1351	0	32576	
1352	0	32552	
1353	0	32416	
1354	0	32404	
1355	0	32498	
1356	0	32768	
1357	0	33024	
1358	0	33076	
1359	0	32874	
1360	0	32604	
1361	0	32512	
1362	0	32492	
1363	0	32448	
1364	0	32404	
1365	0	32464	
1366	0	32556	
1367	0	32588	
1368	0	32528	
1369	0	32592	
1370	0	32600	
1371	0	32564	
1372	0	32666	
1373	0	32912	
1374	0	33092	
1375	0	33056	
1376	0	32840	
1377	0	32490	
1378	0	32196	
1379	0	31968	
1380	0	31880	
1381	0	31932	
1382	0	32000	
1383	0	32136	
1384	0	32376	
1385	0	32472	
1386	0	32380	
1387	0	32272	
1388	0	32316	
1389	0	32288	
1390	0	32156	
1391	0	32176	
1392	0	32180	
1393	0	32108	
1394	0	32132	
1395	0	32284	
1396	0	32416	
1397	0	32464	
1398	0	32468	
1399	0	32380	
1400	0	32320	
1401	0	32336	
1402	0	32320	
1403	0	32288	
1404	0	32328	
1405	0	32442	
1406	0	32416	
1407	0	32288	
1408	0	32128	
1409	0	32040	
1410	0	31880	
1411	0	31712	
1412	0	31728	
1413	0	31944	
1414	0	32184	
1415	0	32384	
1416	0	32416	
1417	0	32358	
1418	0	32304	
1419	0	32172	
1420	0	31984	
1421	0	31916	
1422	0	31916	
1423	0	31900	
1424	0	31912	
1425	0	32032	
1426	0	32168	
1427	0	32172	
1428	0	32120	
1429	0	32064	
1430	0	32024	
1431	0	32102	
1432	0	32156	
1433	0	32084	
1434	0	31952	
1435	0	31848	
1436	0	31888	
1437	0	32128	
1438	0	32368	
1439	0	32484	
1440	0	32540	
1441	0	32704	
1442	0	32820	
1443	0	32936	
1444	0	33048	
1445	0	33120	
1446	0	33268	
1447	0	33404	
1448	0	33480	
1449	0	33588	
1450	0	33788	
1451	0	33952	
1452	0	33960	
1453	0	33964	
1454	0	33944	
1455	0	33808	
1456	0	33738	
1457	0	33824	
1458	0	33940	
1459	0	33980	
1460	0	33936	
1461	0	33836	
1462	0	33834	
1463	0	33818	
1464	0	33818	
1465	0	33768	
1466	0	33846	
1467	0	34180	
1468	0	34656	
1469	0	35172	
1470	0	35780	
1471	0	36244	
1472	0	36408	
1473	0	36480	
1474	0	36528	
1475	0	36544	
1476	0	36432	
1477	0	36288	
1478	0	36256	
1479	0	36272	
1480	0	36160	
1481	0	36024	
1482	0	35928	
1483	0	35812	
1484	0	35704	
1485	0	35720	
1486	0	35796	
1487	0	35812	
1488	0	35764	
1489	0	35652	
1490	0	35480	
1491	0	35460	
1492	0	35600	
1493	0	35720	
1494	0	35744	
1495	0	35604	
1496	0	35284	
1497	0	34996	
1498	0	34856	
1499	0	34732	
1500	0	34576	
1501	0	34400	
1502	0	34228	
1503	0	33984	
1504	0	33692	
1505	0	33408	
1506	0	33096	
1507	0	32732	
1508	0	32448	
1509	0	32210	
1510	0	31972	
1511	0	31760	
1512	0	31618	
1513	0	31492	
1514	0	31332	
1515	0	31140	
1516	0	31008	
1517	0	30996	
1518	0	31036	
1519	0	31080	
1520	0	31048	
1521	0	30928	
1522	0	30760	
1523	0	30546	
1524	0	30288	
1525	0	30160	
1526	0	30180	
1527	0	30290	
1528	0	30392	
1529	0	30472	
1530	0	30448	
1531	0	30328	
1532	0	30272	
1533	0	30340	
1534	0	30472	
1535	0	30532	
1536	0	30626	
1537	0	30680	
1538	0	30584	
1539	0	30464	
1540	0	30400	
1541	0	30360	
1542	0	30434	
1543	0	30504	
1544	0	30476	
1545	0	30384	
1546	0	30444	
1547	0	30576	
1548	0	30746	
1549	0	30912	
1550	0	31044	
1551	0	31016	
1552	0	30912	
1553	0	30792	
1554	0	30704	
1555	0	30608	
1556	0	30488	
1557	0	30272	
1558	0	29880	
1559	0	29300	
1560	0	28552	
1561	0	27832	
1562	0	27204	
1563	0	26648	
1564	0	26148	
1565	0	25740	
1566	0	25548	
1567	0	25440	
1568	0	25540	
1569	0	25820	
1570	0	26292	
1571	0	26912	
1572	0	27704	
1573	0	28916	
1574	0	30720	
1575	0	32924	
1576	0	35500	
1577	0	38296	
1578	0	41108	
1579	0	43972	
1580	0	46964	
1581	0	50240	
1582	0	53728	
1583	0	57416	
1584	0	60912	
1585	0	63008	
1586	0	64112	
1587	0	64648	
1588	0	64888	
1589	0	64960	
1590	0	64956	
1591	0	64880	
1592	0	64800	
1593	0	64672	
1594	0	64560	
1595	0	56732	
1596	0	48368	
1597	0	41524	
1598	0	35908	
1599	0	31044	
1600	0	26952	
1601	0	24212	
1602	0	22674	
1603	0	21948	
1604	0	21412	
1605	0	20776	
1606	0	20030	
1607	0	19119	
1608	0	18032	
1609	0	16748	
1610	0	15678	
1611	0	14976	
1612	0	14496	
1613	0	14280	
1614	0	14172	
1615	0	14212	
1616	0	14364	
1617	0	14622	
1618	0	14952	
1619	0	15400	
1620	0	15936	
1621	0	16577	
1622	0	17280	
1623	0	17912	
1624	0	18521	
1625	0	19216	
1626	0	20020	
1627	0	20820	
1628	0	21480	
1629	0	22104	
1630	0	22824	
1631	0	23496	
1632	0	24116	
1633	0	24700	
1634	0	25236	
1635	0	25760	
1636	0	26392	
1637	0	27080	
1638	0	27696	
1639	0	28232	
1640	0	28696	
1641	0	29096	
1642	0	29408	
1643	0	29680	
1644	0	29922	
1645	0	30072	
1646	0	30196	
1647	0	30218	
1648	0	30240	
1649	0	30340	
1650	0	30428	
1651	0	30514	
1652	0	30612	
1653	0	30696	
1654	0	30780	
1655	0	30848	
1656	0	31024	
1657	0	31232	
1658	0	31352	
1659	0	31400	
1660	0	31392	
1661	0	31432	
1662	0	31512	
1663	0	31552	
1664	0	31580	
1665	0	31592	
1666	0	31620	
1667	0	31712	
1668	0	31808	
1669	0	31850	
1670	0	31880	
1671	0	31972	
1672	0	31956	
1673	0	31836	
1674	0	31880	
1675	0	32028	
1676	0	32168	
1677	0	32276	
1678	0	32348	
1679	0	32414	
1680	0	32420	
1681	0	32384	
1682	0	32324	
1683	0	32332	
1684	0	32372	
1685	0	32416	
1686	0	32498	
1687	0	32588	
1688	0	32656	
1689	0	32714	
1690	0	32756	
1691	0	32784	
1692	0	32760	
1693	0	32668	
1694	0	32616	
1695	0	32656	
1696	0	32704	
1697	0	32736	
1698	0	32776	
1699	0	32864	
1700	0	32984	
1701	0	33120	
1702	0	33178	
1703	0	33152	
1704	0	33148	
1705	0	33160	
1706	0	33208	
1707	0	33280	
1708	0	33376	
1709	0	33406	
1710	0	33440	
1711	0	33484	
1712	0	33488	
1713	0	33468	
1714	0	33440	
1715	0	33480	
1716	0	33532	
1717	0	33528	
1718	0	33536	
1719	0	33576	
1720	0	33628	
1721	0	33748	
1722	0	33860	
1723	0	33888	
1724	0	33896	
1725	0	33868	
1726	0	33864	
1727	0	33928	
1728	0	33988	
1729	0	34004	
1730	0	34052	
1731	0	34092	
1732	0	34096	
1733	0	34084	
1734	0	34096	
1735	0	34138	
1736	0	34140	
1737	0	34132	
1738	0	34152	
1739	0	34216	
1740	0	34336	
1741	0	34436	
1742	0	34492	
1743	0	34504	
1744	0	34472	
1745	0	34436	
1746	0	34400	
1747	0	34372	
1748	0	34376	
1749	0	34360	
1750	0	34384	
1751	0	34504	
1752	0	34648	
1753	0	34700	
1754	0	34708	
1755	0	34736	
1756	0	34800	
1757	0	34856	
1758	0	34924	
1759	0	35000	
1760	0	35048	
1761	0	35108	
1762	0	35164	
1763	0	35200	
1764	0	35272	
1765	0	35340	
1766	0	35340	
1767	0	35298	
1768	0	35232	
1769	0	35202	
1770	0	35216	
1771	0	35224	
1772	0	35204	
1773	0	35248	
1774	0	35296	
1775	0	35284	
1776	0	35296	
1777	0	35324	
1778	0	35348	
1779	0	35440	
1780	0	35512	
1781	0	35556	
1782	0	35580	
1783	0	35616	
1784	0	35552	
1785	0	35520	
1786	0	35520	
1787	0	35560	
1788	0	35604	
1789	0	35576	
1790	0	35576	
1791	0	35620	
1792	0	35668	
1793	0	35688	
1794	0	35664	
1795	0	35572	
1796	0	35520	
1797	0	35488	
1798	0	35432	
1799	0	35404	
1800	0	35404	
1801	0	35424	
1802	0	35464	
1803	0	35512	
1804	0	35532	
1805	0	35544	
1806	0	35548	
1807	0	35512	
1808	0	35460	
1809	0	35400	
1810	0	35328	
1811	0	35232	
1812	0	35120	
1813	0	35024	
1814	0	34956	
1815	0	34952	
1816	0	34964	
1817	0	34936	
1818	0	34904	
1819	0	34892	
1820	0	34938	
1821	0	35012	
1822	0	35000	
1823	0	34948	
1824	0	34860	
1825	0	34752	
1826	0	34640	
1827	0	34548	
1828	0	34456	
1829	0	34360	
1830	0	34264	
1831	0	34192	
1832	0	34092	
1833	0	33952	
1834	0	33808	
1835	0	33616	
1836	0	33476	
1837	0	33348	
1838	0	33260	
1839	0	33192	
1840	0	33140	
1841	0	33088	
1842	0	33050	
1843	0	32978	
1844	0	32852	
1845	0	32756	
1846	0	32680	
1847	0	32596	
1848	0	32556	
1849	0	32508	
1850	0	32448	
1851	0	32384	
1852	0	32296	
1853	0	32290	
1854	0	32272	
1855	0	32200	
1856	0	32124	
1857	0	32056	
1858	0	31956	
1859	0	31904	
1860	0	31880	
1861	0	31856	
1862	0	31824	
1863	0	31784	
1864	0	31752	
1865	0	31736	
1866	0	31698	
1867	0	31648	
1868	0	31596	
1869	0	31584	
1870	0	31560	
1871	0	31556	
1872	0	31564	
1873	0	31568	
1874	0	31514	
1875	0	31424	
1876	0	31344	
1877	0	31284	
1878	0	31256	
1879	0	31234	
1880	0	31224	
1881	0	31212	
1882	0	31176	
1883	0	31152	
1884	0	31124	
1885	0	31128	
1886	0	31116	
1887	0	31120	
1888	0	31136	
1889	0	31136	
1890	0	31104	
1891	0	31116	
1892	0	31108	
1893	0	31112	
1894	0	31092	
1895	0	31072	
1896	0	31060	
1897	0	31016	
1898	0	30960	
1899	0	30936	
1900	0	30956	
1901	0	30970	
1902	0	30992	
1903	0	31024	
1904	0	31056	
1905	0	31120	
1906	0	31168	
1907	0	31164	
1908	0	31114	
1909	0	31072	
1910	0	31076	
1911	0	31076	
1912	0	31096	
1913	0	31120	
1914	0	31130	
1915	0	31152	
1916	0	31124	
1917	0	31096	
1918	0	31148	
1919	0	31176	
1920	0	31184	
1921	0	31188	
1922	0	31276	
1923	0	31372	
1924	0	31412	
1925	0	31422	
1926	0	31392	
1927	0	31364	
1928	0	31356	
1929	0	31356	
1930	0	31368	
1931	0	31428	
1932	0	31496	
1933	0	31556	
1934	0	31664	
1935	0	31760	
1936	0	31820	
1937	0	31832	
1938	0	31840	
1939	0	31826	
1940	0	31820	
1941	0	31816	
1942	0	31840	
1943	0	31904	
1944	0	31928	
1945	0	31968	
1946	0	32024	
1947	0	32128	
1948	0	32256	
1949	0	32324	
1950	0	32376	
1951	0	32372	
1952	0	32380	
1953	0	32380	
1954	0	32432	
1955	0	32508	
1956	0	32572	
1957	0	32656	
1958	0	32722	
1959	0	32740	
1960	0	32688	
1961	0	32620	
1962	0	32592	
1963	0	32620	
1964	0	32684	
1965	0	32708	
1966	0	32728	
1967	0	32776	
1968	0	32816	
1969	0	32888	
1970	0	32960	
1971	0	32972	
1972	0	32972	
1973	0	33020	
1974	0	33104	
1975	0	33136	
1976	0	33136	
1977	0	33136	
1978	0	33152	
1979	0	33176	
1980	0	33152	
1981	0	33100	
1982	0	33072	
1983	0	33076	
1984	0	33092	
1985	0	33140	
1986	0	33216	
1987	0	33288	
1988	0	33304	
1989	0	33324	
1990	0	33336	
1991	0	33360	
1992	0	33360	
1993	0	33356	
1994	0	33312	
1995	0	33264	
1996	0	33260	
1997	0	33268	
1998	0	33312	
1999	0	33364	
2000	0	33372	
2001	0	33348	
2002	0	33328	
2003	0	33298	
2004	0	33264	
2005	0	33228	
2006	0	33216	
2007	0	33192	
2008	0	33184	
2009	0	33164	
2010	0	33140	
2011	0	33124	
2012	0	33090	
2013	0	33092	
2014	0	33076	
2015	0	33060	
2016	0	33068	
2017	0	33084	
2018	0	33096	
2019	0	33088	
2020	0	33076	
2021	0	33036	
2022	0	33008	
2023	0	32992	
2024	0	32984	
2025	0	33012	
2026	0	33010	
2027	0	32980	
2028	0	32968	
2029	0	32956	
2030	0	32928	
2031	0	32860	
2032	0	32824	
2033	0	32794	
2034	0	32800	
2035	0	32836	
2036	0	32840	
2037	0	32832	
2038	0	32800	
2039	0	32768	
2040	0	32756	
2041	0	32734	
2042	0	32724	
2043	0	32704	
2044	0	32672	
2045	0	32652	
2046	0	32608	
2047	0	32596	
2048	0	32580	
2049	0	32552	
2050	0	32504	
2051	0	32440	
2052	0	32400	
2053	0	32380	
2054	0	32336	
2055	0	32360	
2056	0	32376	
2057	0	32400	
2058	0	32428	
2059	0	32484	
2060	0	32504	
2061	0	32528	
2062	0	32500	
2063	0	32500	
2064	0	32508	
2065	0	32520	
2066	0	32536	
2067	0	32524	
2068	0	32480	
2069	0	32404	
2070	0	32340	
2071	0	32280	
2072	0	32260	
2073	0	32248	
2074	0	32260	
2075	0	32296	
2076	0	32336	
2077	0	32364	
2078	0	32346	
2079	0	32356	
2080	0	32356	
2081	0	32360	
2082	0	32340	
2083	0	32354	
2084	0	32368	
2085	0	32384	
2086	0	32328	
2087	0	32293	
2088	0	32300	
2089	0	32296	
2090	0	32284	
2091	0	32288	
2092	0	32296	
2093	0	32292	
2094	0	32312	
2095	0	32320	
2096	0	32344	
2097	0	32372	
2098	0	32372	
2099	0	32352	
2100	0	32320	
2101	0	32256	
2102	0	32212	
2103	0	32186	
2104	0	32176	
2105	0	32180	
2106	0	32212	
2107	0	32236	
2108	0	32228	
2109	0	32224	
2110	0	32252	
2111	0	32300	
2112	0	32324	
2113	0	32336	
2114	0	32312	
2115	0	32272	
2116	0	32224	
2117	0	32220	
2118	0	32248	
2119	0	32284	
2120	0	32266	
2121	0	32269	
2122	0	32280	
2123	0	32282	
2124	0	32296	
2125	0	32304	
2126	0	32304	
2127	0	32280	
2128	0	32264	
2129	0	32268	
2130	0	32288	
2131	0	32290	
2132	0	32240	
2133	0	32208	
2134	0	32178	
2135	0	32168	
2136	0	32152	
2137	0	32128	
2138	0	32076	
2139	0	32068	
2140	0	32080	
2141	0	32102	
2142	0	32104	
2143	0	32136	
2144	0	32160	
2145	0	32168	
2146	0	32172	
2147	0	32144	
2148	0	32176	
2149	0	32276	
2150	0	32324	
2151	0	32276	
2152	0	32194	
2153	0	32124	
2154	0	32096	
2155	0	32140	
2156	0	32172	
2157	0	32192	
2158	0	32192	
2159	0	32216	
2160	0	32236	
2161	0	32278	
2162	0	32352	
2163	0	32412	
2164	0	32412	
2165	0	32404	
2166	0	32414	
2167	0	32420	
2168	0	32396	
2169	0	32380	
2170	0	32412	
2171	0	32452	
2172	0	32484	
2173	0	32472	
2174	0	32440	
2175	0	32396	
2176	0	32376	
2177	0	32372	
2178	0	32400	
2179	0	32450	
2180	0	32520	
2181	0	32540	
2182	0	32516	
2183	0	32546	
2184	0	32548	
2185	0	32548	
2186	0	32530	
2187	0	32522	
2188	0	32498	
2189	0	32506	
2190	0	32532	
2191	0	32536	
2192	0	32548	
2193	0	32552	
2194	0	32552	
2195	0	32544	
2196	0	32536	
2197	0	32524	
2198	0	32544	
2199	0	32608	
2200	0	32692	
2201	0	32792	
2202	0	32840	
2203	0	32922	
2204	0	33064	
2205	0	33250	
2206	0	33418	
2207	0	33556	
2208	0	33632	
2209	0	33704	
2210	0	33804	
2211	0	33920	
2212	0	34084	
2213	0	34244	
2214	0	34372	
2215	0	34468	
2216	0	34532	
2217	0	34588	
2218	0	34620	
2219	0	34632	
2220	0	34644	
2221	0	34552	
2222	0	34480	
2223	0	34416	
2224	0	34400	
2225	0	34460	
2226	0	34572	
2227	0	34708	
2228	0	34916	
2229	0	35198	
2230	0	35488	
2231	0	35744	
2232	0	36000	
2233	0	36288	
2234	0	36636	
2235	0	36928	
2236	0	37140	
2237	0	37260	
2238	0	37296	
2239	0	37296	
2240	0	37276	
2241	0	37216	
2242	0	37134	
2243	0	37044	
2244	0	36984	
2245	0	36924	
2246	0	36826	
2247	0	36724	
2248	0	36560	
2249	0	36408	
2250	0	36312	
2251	0	36336	
2252	0	36320	
2253	0	36316	
2254	0	36288	
2255	0	36208	
2256	0	36100	
2257	0	36040	
2258	0	35936	
2259	0	35792	
2260	0	35692	
2261	0	35584	
2262	0	35460	
2263	0	35300	
2264	0	35124	
2265	0	34924	
2266	0	34692	
2267	0	34440	
2268	0	34096	
2269	0	33708	
2270	0	33322	
2271	0	32928	
2272	0	32568	
2273	0	32272	
2274	0	31972	
2275	0	31704	
2276	0	31512	
2277	0	31360	
2278	0	31210	
2279	0	31096	
2280	0	30992	
2281	0	30920	
2282	0	30892	
2283	0	30844	
2284	0	30752	
2285	0	30680	
2286	0	30616	
2287	0	30596	
2288	0	30560	
2289	0	30524	
2290	0	30544	
2291	0	30540	
2292	0	30528	
2293	0	30576	
2294	0	30598	
2295	0	30592	
2296	0	30608	
2297	0	30608	
2298	0	30624	
2299	0	30680	
2300	0	30768	
2301	0	30802	
2302	0	30816	
2303	0	30824	
2304	0	30824	
2305	0	30788	
2306	0	30716	
2307	0	30660	
2308	0	30644	
2309	0	30664	
2310	0	30712	
2311	0	30736	
2312	0	30760	
2313	0	30808	
2314	0	30860	
2315	0	30892	
2316	0	30900	
2317	0	30912	
2318	0	30896	
2319	0	30880	
2320	0	30856	
2321	0	30756	
2322	0	30580	
2323	0	30232	
2324	0	29644	
2325	0	28840	
2326	0	27944	
2327	0	26984	
2328	0	26088	
2329	0	25340	
2330	0	24676	
2331	0	24152	
2332	0	23804	
2333	0	23704	
2334	0	23900	
2335	0	24386	
2336	0	25020	
2337	0	25748	
2338	0	26660	
2339	0	28116	
2340	0	30112	
2341	0	32560	
2342	0	35320	
2343	0	38240	
2344	0	41400	
2345	0	44884	
2346	0	48928	
2347	0	53200	
2348	0	57608	
2349	0	61368	
2350	0	63424	
2351	0	64504	
2352	0	65040	
2353	0	65264	
2354	0	65328	
2355	0	65316	
2356	0	65248	
2357	0	65148	
2358	0	65030	
2359	0	64916	
2360	0	64800	
2361	0	61360	
2362	0	54132	
2363	0	48132	
2364	0	43448	
2365	0	39080	
2366	0	34704	
2367	0	30732	
2368	0	27440	
2369	0	24762	
2370	0	22317	
2371	0	20056	
2372	0	18314	
2373	0	16990	
2374	0	16070	
2375	0	15528	
2376	0	15308	
2377	0	15254	
2378	0	15204	
2379	0	15225	
2380	0	15332	
2381	0	15640	
2382	0	16100	
2383	0	16644	
2384	0	17284	
2385	0	17992	
2386	0	18650	
2387	0	19284	
2388	0	19960	
2389	0	20600	
2390	0	21256	
2391	0	21908	
2392	0	22564	
2393	0	23236	
2394	0	23936	
2395	0	24616	
2396	0	25288	
2397	0	25966	
2398	0	26528	
2399	0	27040	
2400	0	27492	
2401	0	27860	
2402	0	28194	
2403	0	28512	
2404	0	28792	
2405	0	28992	
2406	0	29156	
2407	0	29280	
2408	0	29384	
2409	0	29488	
2410	0	29568	
2411	0	29664	
2412	0	29744	
2413	0	29848	
2414	0	29956	
2415	0	30052	
2416	0	30132	
2417	0	30232	
2418	0	30324	
2419	0	30432	
2420	0	30516	
2421	0	30584	
2422	0	30658	
2423	0	30728	
2424	0	30784	
2425	0	30820	
2426	0	30840	
2427	0	30872	
2428	0	30900	
2429	0	30914	
2430	0	30980	
2431	0	31072	
2432	0	31160	
2433	0	31248	
2434	0	31316	
2435	0	31392	
2436	0	31476	
2437	0	31536	
2438	0	31552	
2439	0	31584	
2440	0	31600	
2441	0	31624	
2442	0	31684	
2443	0	31696	
2444	0	31716	
2445	0	31766	
2446	0	31788	
2447	0	31836	
2448	0	31912	
2449	0	31980	
2450	0	32040	
2451	0	32060	
2452	0	32048	
2453	0	32044	
2454	0	32060	
2455	0	32098	
2456	0	32104	
2457	0	32108	
2458	0	32152	
2459	0	32186	
2460	0	32184	
2461	0	32180	
2462	0	32192	
2463	0	32230	
2464	0	32288	
2465	0	32348	
2466	0	32344	
2467	0	32352	
2468	0	32382	
2469	0	32440	
2470	0	32500	
2471	0	32520	
2472	0	32554	
2473	0	32608	
2474	0	32644	
2475	0	32648	
2476	0	32632	
2477	0	32608	
2478	0	32592	
2479	0	32636	
2480	0	32696	
2481	0	32744	
2482	0	32788	
2483	0	32820	
2484	0	32844	
2485	0	32840	
2486	0	32868	
2487	0	32920	
2488	0	32972	
2489	0	32978	
2490	0	32928	
2491	0	32904	
2492	0	32904	
2493	0	32916	
2494	0	32956	
2495	0	33000	
2496	0	33040	
2497	0	33080	
2498	0	33120	
2499	0	33152	
2500	0	33196	
2501	0	33240	
2502	0	33252	
2503	0	33276	
2504	0	33312	
2505	0	33348	
2506	0	33376	
2507	0	33384	
2508	0	33396	
2509	0	33368	
2510	0	33372	
2511	0	33376	
2512	0	33368	
2513	0	33388	
2514	0	33408	
2515	0	33460	
2516	0	33528	
2517	0	33556	
2518	0	33580	
2519	0	33640	
2520	0	33680	
2521	0	33700	
2522	0	33704	
2523	0	33748	
2524	0	33820	
2525	0	33832	
2526	0	33860	
2527	0	33860	
2528	0	33888	
2529	0	33940	
2530	0	34008	
2531	0	34052	
2532	0	34024	
2533	0	34032	
2534	0	34068	
2535	0	34064	
2536	0	34084	
2537	0	34092	
2538	0	34160	
2539	0	34172	
2540	0	34132	
2541	0	34116	
2542	0	34124	
2543	0	34112	
2544	0	34104	
2545	0	34148	
2546	0	34206	
2547	0	34240	
2548	0	34282	
2549	0	34296	
2550	0	34308	
2551	0	34344	
2552	0	34360	
2553	0	34404	
2554	0	34468	
2555	0	34532	
2556	0	34568	
2557	0	34552	
2558	0	34564	
2559	0	34572	
2560	0	34576	
2561	0	34584	
2562	0	34608	
2563	0	34604	
2564	0	34636	
2565	0	34692	
2566	0	34724	
2567	0	34724	
2568	0	34756	
2569	0	34780	
2570	0	34808	
2571	0	34848	
2572	0	34880	
2573	0	34880	
2574	0	34872	
2575	0	34866	
2576	0	34860	
2577	0	34848	
2578	0	34844	
2579	0	34840	
2580	0	34848	
2581	0	34864	
2582	0	34888	
2583	0	34896	
2584	0	34924	
2585	0	34928	
2586	0	34896	
2587	0	34908	
2588	0	34904	
2589	0	34896	
2590	0	34836	
2591	0	34816	
2592	0	34848	
2593	0	34896	
2594	0	34912	
2595	0	34912	
2596	0	34884	
2597	0	34840	
2598	0	34788	
2599	0	34764	
2600	0	34720	
2601	0	34712	
2602	0	34672	
2603	0	34576	
2604	0	34492	
2605	0	34412	
2606	0	34336	
2607	0	34240	
2608	0	34196	
2609	0	34128	
2610	0	34048	
2611	0	33988	
2612	0	33940	
2613	0	33882	
2614	0	33796	
2615	0	33698	
2616	0	33620	
2617	0	33556	
2618	0	33524	
2619	0	33472	
2620	0	33440	
2621	0	33360	
2622	0	33328	
2623	0	33312	
2624	0	33284	
2625	0	33272	
2626	0	33236	
2627	0	33164	
2628	0	33064	
2629	0	32964	
2630	0	32920	
2631	0	32920	
2632	0	32928	
2633	0	32900	
2634	0	32832	
2635	0	32760	
2636	0	32676	
2637	0	32616	
2638	0	32576	
2639	0	32564	
2640	0	32508	
2641	0	32476	
2642	0	32468	
2643	0	32476	
2644	0	32452	
2645	0	32400	
2646	0	32372	
2647	0	32344	
2648	0	32352	
2649	0	32352	
2650	0	32320	
2651	0	32344	
2652	0	32360	
2653	0	32352	
2654	0	32328	
2655	0	32288	
2656	0	32312	
2657	0	32328	
2658	0	32298	
2659	0	32296	
2660	0	32296	
2661	0	32304	
2662	0	32296	
2663	0	32296	
2664	0	32304	
2665	0	32304	
2666	0	32312	
2667	0	32268	
2668	0	32256	
2669	0	32258	
2670	0	32292	
2671	0	32320	
2672	0	32344	
2673	0	32382	
2674	0	32456	
2675	0	32488	
2676	0	32496	
2677	0	32468	
2678	0	32484	
2679	0	32480	
2680	0	32480	
2681	0	32492	
2682	0	32532	
2683	0	32580	
2684	0	32634	
2685	0	32640	
2686	0	32648	
2687	0	32668	
2688	0	32704	
2689	0	32704	
2690	0	32704	
2691	0	32704	
2692	0	32688	
2693	0	32664	
2694	0	32650	
2695	0	32636	
2696	0	32628	
2697	0	32648	
2698	0	32650	
2699	0	32700	
2700	0	32752	
2701	0	32776	
2702	0	32804	
2703	0	32812	
2704	0	32824	
2705	0	32852	
2706	0	32892	
2707	0	32912	
2708	0	32892	
2709	0	32888	
2710	0	32896	
2711	0	32916	
2712	0	32948	
2713	0	32956	
2714	0	32976	
2715	0	32960	
2716	0	32960	
2717	0	32976	
2718	0	33028	
2719	0	33060	
2720	0	33084	
2721	0	33072	
2722	0	33096	
2723	0	33132	
2724	0	33116	
2725	0	33092	
2726	0	33108	
2727	0	33108	
2728	0	33096	
2729	0	33104	
2730	0	33088	
2731	0	33112	
2732	0	33148	
2733	0	33132	
2734	0	33080	
2735	0	33112	
2736	0	33148	
2737	0	33128	
2738	0	33160	
2739	0	33216	
2740	0	33260	
2741	0	33300	
2742	0	33332	
2743	0	33318	
2744	0	33280	
2745	0	33260	
2746	0	33264	
2747	0	33284	
2748	0	33288	
2749	0	33304	
2750	0	33300	
2751	0	33282	
2752	0	33260	
2753	0	33236	
2754	0	33228	
2755	0	33244	
2756	0	33288	
2757	0	33312	
2758	0	33336	
2759	0	33352	
2760	0	33354	
2761	0	33364	
2762	0	33396	
2763	0	33424	
2764	0	33448	
2765	0	33448	
2766	0	33452	
2767	0	33424	
2768	0	33412	
2769	0	33428	
2770	0	33388	
2771	0	33356	
2772	0	33344	
2773	0	33336	
2774	0	33364	
2775	0	33376	
2776	0	33376	
2777	0	33368	
2778	0	33328	
2779	0	33320	
2780	0	33344	
2781	0	33368	
2782	0	33384	
2783	0	33376	
2784	0	33360	
2785	0	33340	
2786	0	33320	
2787	0	33316	
2788	0	33324	
2789	0	33296	
2790	0	33256	
2791	0	33236	
2792	0	33252	
2793	0	33280	
2794	0	33284	
2795	0	33280	
2796	0	33276	
2797	0	33316	
2798	0	33344	
2799	0	33312	
2800	0	33272	
2801	0	33208	
2802	0	33156	
2803	0	33128	
2804	0	33136	
2805	0	33160	
2806	0	33172	
2807	0	33176	
2808	0	33192	
2809	0	33208	
2810	0	33216	
2811	0	33264	
2812	0	33272	
2813	0	33248	
2814	0	33236	
2815	0	33204	
2816	0	33180	
2817	0	33152	
2818	0	33124	
2819	0	33072	
2820	0	33040	
2821	0	33036	
2822	0	33034	
2823	0	33040	
2824	0	33068	
2825	0	33064	
2826	0	33068	
2827	0	33076	
2828	0	33096	
2829	0	33080	
2830	0	33076	
2831	0	33048	
2832	0	33056	
2833	0	33008	
2834	0	32992	
2835	0	33012	
2836	0	33012	
2837	0	33000	
2838	0	32994	
2839	0	32984	
2840	0	32972	
2841	0	33004	
2842	0	33044	
2843	0	33048	
2844	0	32992	
2845	0	32940	
2846	0	32928	
2847	0	32880	
2848	0	32834	
2849	0	32824	
2850	0	32840	
2851	0	32832	
2852	0	32796	
2853	0	32776	
2854	0	32768	
2855	0	32792	
2856	0	32824	
2857	0	32816	
2858	0	32796	
2859	0	32808	
2860	0	32800	
2861	0	32816	
2862	0	32828	
2863	0	32816	
2864	0	32792	
2865	0	32800	
2866	0	32824	
2867	0	32832	
2868	0	32824	
2869	0	32808	
2870	0	32796	
2871	0	32836	
2872	0	32848	
2873	0	32832	
2874	0	32828	
2875	0	32826	
2876	0	32788	
2877	0	32700	
2878	0	32672	
2879	0	32708	
2880	0	32744	
2881	0	32772	
2882	0	32784	
2883	0	32808	
2884	0	32824	
2885	0	32842	
2886	0	32822	
2887	0	32772	
2888	0	32768	
2889	0	32732	
2890	0	32700	
2891	0	32708	
2892	0	32680	
2893	0	32642	
2894	0	32612	
2895	0	32556	
2896	0	32530	
2897	0	32496	
2898	0	32488	
2899	0	32506	
2900	0	32544	
2901	0	32596	
2902	0	32620	
2903	0	32636	
2904	0	32648	
2905	0	32660	
2906	0	32692	
2907	0	32732	
2908	0	32736	
2909	0	32712	
2910	0	32704	
2911	0	32684	
2912	0	32684	
2913	0	32676	
2914	0	32664	
2915	0	32654	
2916	0	32696	
2917	0	32724	
2918	0	32712	
2919	0	32704	
2920	0	32674	
2921	0	32640	
2922	0	32616	
2923	0	32624	
2924	0	32612	
2925	0	32576	
2926	0	32572	
2927	0	32600	
2928	0	32628	
2929	0	32628	
2930	0	32644	
2931	0	32656	
2932	0	32652	
2933	0	32648	
2934	0	32676	
2935	0	32680	
2936	0	32664	
2937	0	32660	
2938	0	32688	
2939	0	32716	
2940	0	32720	
2941	0	32724	
2942	0	32720	
2943	0	32696	
2944	0	32676	
2945	0	32668	
2946	0	32704	
2947	0	32754	
2948	0	32756	
2949	0	32788	
2950	0	32818	
2951	0	32810	
2952	0	32794	
2953	0	32788	
2954	0	32768	
2955	0	32770	
2956	0	32764	
2957	0	32770	
2958	0	32796	
2959	0	32832	
2960	0	32836	
2961	0	32810	
2962	0	32828	
2963	0	32824	
2964	0	32796	
2965	0	32804	
2966	0	32848	
2967	0	32848	
2968	0	32832	
2969	0	32844	
2970	0	32804	
2971	0	32772	
2972	0	32792	
2973	0	32794	
2974	0	32816	
2975	0	32856	
2976	0	32928	
2977	0	32904	
2978	0	32832	
2979	0	32784	
2980	0	32772	
2981	0	32768	
2982	0	32780	
2983	0	32784	
2984	0	32808	
2985	0	32838	
2986	0	32864	
2987	0	32904	
2988	0	32904	
2989	0	32912	
2990	0	32928	
2991	0	32916	
2992	0	32880	
2993	0	32876	
2994	0	32834	
2995	0	32780	
2996	0	32760	
2997	0	32752	
2998	0	32756	
2999	0	32768	
3000	0	32770	
3001	0	32784	
3002	0	32784	
3003	0	32788	
3004	0	32784	
3005	0	32832	
3006	0	32852	
3007	0	32864	
3008	0	32896	
3009	0	32920	
3010	0	32888	
3011	0	32856	
3012	0	32832	
3013	0	32816	
3014	0	32852	
3015	0	32896	
3016	0	32928	
3017	0	32944	
3018	0	32976	
3019	0	32952	
3020	0	32884	
3021	0	32844	
3022	0	32840	
3023	0	32832	
3024	0	32808	
3025	0	32780	
3026	0	32792	
3027	0	32804	
3028	0	32832	
3029	0	32864	
3030	0	32888	
3031	0	32932	
3032	0	32948	
3033	0	32936	
3034	0	32924	
3035	0	32920	
3036	0	32960	
3037	0	33004	
3038	0	33016	
3039	0	33036	
3040	0	33000	
3041	0	32960	
3042	0	32928	
3043	0	32944	
3044	0	32948	
3045	0	32936	
3046	0	32944	
3047	0	32976	
3048	0	33012	
3049	0	33068	
3050	0	33120	
3051	0	33188	
3052	0	33276	
3053	0	33432	
3054	0	33628	
3055	0	33800	
3056	0	33932	
3057	0	34066	
3058	0	34188	
3059	0	34306	
3060	0	34436	
3061	0	34588	
3062	0	34736	
3063	0	34872	
3064	0	34940	
3065	0	34964	
3066	0	34976	
3067	0	34956	
3068	0	34856	
3069	0	34752	
3070	0	34632	
3071	0	34540	
3072	0	34492	
3073	0	34484	
3074	0	34592	
3075	0	34752	
3076	0	34988	
3077	0	35290	
3078	0	35564	
3079	0	35836	
3080	0	36116	
3081	0	36400	
3082	0	36712	
3083	0	37056	
3084	0	37248	
3085	0	37376	
3086	0	37508	
3087	0	37568	
3088	0	37564	
3089	0	37504	
3090	0	37420	
3091	0	37332	
3092	0	37208	
3093	0	37104	
3094	0	37040	
3095	0	36968	
3096	0	36848	
3097	0	36724	
3098	0	36604	
3099	0	36484	
3100	0	36386	
3101	0	36356	
3102	0	36376	
3103	0	36344	
3104	0	36304	
3105	0	36216	
3106	0	36104	
3107	0	35984	
3108	0	35876	
3109	0	35768	
3110	0	35674	
3111	0	35524	
3112	0	35360	
3113	0	35152	
3114	0	34964	
3115	0	34736	
3116	0	34432	
3117	0	34106	
3118	0	33736	
3119	0	33340	
3120	0	32980	
3121	0	32640	
3122	0	32316	
3123	0	32024	
3124	0	31808	
3125	0	31676	
3126	0	31600	
3127	0	31472	
3128	0	31344	
3129	0	31248	
3130	0	31160	
3131	0	31092	
3132	0	31028	
3133	0	30944	
3134	0	30860	
3135	0	30776	
3136	0	30712	
3137	0	30648	
3138	0	30640	
3139	0	30656	
3140	0	30704	
3141	0	30732	
3142	0	30744	
3143	0	30780	
3144	0	30816	
3145	0	30836	
3146	0	30836	
3147	0	30840	
3148	0	30864	
3149	0	30856	
3150	0	30856	
3151	0	30876	
3152	0	30892	
3153	0	30884	
3154	0	30868	
3155	0	30837	
3156	0	30808	
3157	0	30820	
3158	0	30876	
3159	0	30920	
3160	0	30948	
3161	0	30968	
3162	0	31016	
3163	0	31060	
3164	0	31092	
3165	0	31092	
3166	0	31096	
3167	0	31052	
3168	0	30960	
3169	0	30856	
3170	0	30708	
3171	0	30476	
3172	0	30064	
3173	0	29416	
3174	0	28540	
3175	0	27576	
3176	0	26562	
3177	0	25656	
3178	0	24816	
3179	0	24120	
3180	0	23616	
3181	0	23348	
3182	0	23340	
3183	0	23590	
3184	0	24094	
3185	0	24728	
3186	0	25402	
3187	0	26492	
3188	0	28204	
3189	0	30392	
3190	0	33032	
3191	0	35924	
3192	0	39090	
3193	0	42468	
3194	0	46296	
3195	0	50604	
3196	0	55024	
3197	0	59328	
3198	0	62004	
3199	0	63440	
3200	0	64168	
3201	0	64504	
3202	0	64632	
3203	0	64648	
3204	0	64600	
3205	0	64520	
3206	0	64412	
3207	0	64320	
3208	0	64200	
3209	0	64092	
3210	0	61460	
3211	0	54776	
3212	0	49616	
3213	0	45380	
3214	0	40986	
3215	0	36584	
3216	0	32752	
3217	0	29600	
3218	0	26744	
3219	0	24024	
3220	0	21752	
3221	0	19968	
3222	0	18604	
3223	0	17650	
3224	0	17138	
3225	0	16808	
3226	0	16492	
3227	0	16204	
3228	0	16028	
3229	0	16044	
3230	0	16316	
3231	0	16696	
3232	0	17185	
3233	0	17806	
3234	0	18444	
3235	0	19076	
3236	0	19708	
3237	0	20302	
3238	0	20936	
3239	0	21560	
3240	0	22156	
3241	0	22760	
3242	0	23426	
3243	0	24144	
3244	0	24862	
3245	0	25540	
3246	0	26108	
3247	0	26612	
3248	0	27106	
3249	0	27484	
3250	0	27788	
3251	0	28072	
3252	0	28264	
3253	0	28464	
3254	0	28640	
3255	0	28796	
3256	0	28892	
3257	0	28984	
3258	0	29080	
3259	0	29160	
3260	0	29224	
3261	0	29284	
3262	0	29356	
3263	0	29424	
3264	0	29492	
3265	0	29560	
3266	0	29640	
3267	0	29744	
3268	0	29832	
3269	0	29912	
3270	0	30004	
3271	0	30080	
3272	0	30160	
3273	0	30232	
3274	0	30300	
3275	0	30336	
3276	0	30364	
3277	0	30388	
3278	0	30416	
3279	0	30466	
3280	0	30538	
3281	0	30610	
3282	0	30668	
3283	0	30720	
3284	0	30776	
3285	0	30820	
3286	0	30870	
3287	0	30924	
3288	0	30996	
3289	0	31060	
3290	0	31100	
3291	0	31148	
3292	0	31196	
3293	0	31260	
3294	0	31340	
3295	0	31386	
3296	0	31420	
3297	0	31492	
3298	0	31520	
3299	0	31500	
3300	0	31488	
3301	0	31496	
3302	0	31524	
3303	0	31548	
3304	0	31560	
3305	0	31564	
3306	0	31576	
3307	0	31640	
3308	0	31704	
3309	0	31708	
3310	0	31720	
3311	0	31712	
3312	0	31728	
3313	0	31784	
3314	0	31812	
3315	0	31848	
3316	0	31884	
3317	0	31898	
3318	0	31896	
3319	0	31932	
3320	0	31952	
3321	0	31966	
3322	0	32000	
3323	0	32032	
3324	0	32084	
3325	0	32112	
3326	0	32134	
3327	0	32144	
3328	0	32156	
3329	0	32216	
3330	0	32224	
3331	0	32250	
3332	0	32272	
3333	0	32280	
3334	0	32288	
3335	0	32288	
3336	0	32312	
3337	0	32346	
3338	0	32386	
3339	0	32416	
3340	0	32396	
3341	0	32368	
3342	0	32352	
3343	0	32364	
3344	0	32424	
3345	0	32512	
3346	0	32588	
3347	0	32624	
3348	0	32652	
3349	0	32640	
3350	0	32660	
3351	0	32744	
3352	0	32804	
3353	0	32764	
3354	0	32764	
3355	0	32800	
3356	0	32852	
3357	0	32880	
3358	0	32888	
3359	0	32928	
3360	0	32954	
3361	0	33000	
3362	0	33040	
3363	0	33072	
3364	0	33120	
3365	0	33128	
3366	0	33104	
3367	0	33076	
3368	0	33080	
3369	0	33120	
3370	0	33208	
3371	0	33272	
3372	0	33284	
3373	0	33312	
3374	0	33324	
3375	0	33328	
3376	0	33356	
3377	0	33304	
3378	0	33250	
3379	0	33260	
3380	0	33288	
3381	0	33290	
3382	0	33320	
3383	0	33348	
3384	0	33364	
3385	0	33396	
3386	0	33444	
3387	0	33496	
3388	0	33528	
3389	0	33564	
3390	0	33554	
3391	0	33504	
3392	0	33444	
3393	0	33396	
3394	0	33404	
3395	0	33448	
3396	0	33528	
3397	0	33600	
3398	0	33692	
3399	0	33752	
3400	0	33772	
3401	0	33792	
3402	0	33804	
3403	0	33772	
3404	0	33756	
3405	0	33760	
3406	0	33784	
3407	0	33824	
3408	0	33864	
3409	0	33900	
3410	0	33928	
3411	0	33968	
3412	0	34004	
3413	0	34048	
3414	0	34054	
3415	0	34104	
3416	0	34144	
3417	0	34196	
3418	0	34224	
3419	0	34248	
3420	0	34240	
3421	0	34236	
3422	0	34216	
3423	0	34232	
3424	0	34280	
3425	0	34336	
3426	0	34380	
3427	0	34408	
3428	0	34424	
3429	0	34464	
3430	0	34472	
3431	0	34468	
3432	0	34472	
3433	0	34472	
3434	0	34484	
3435	0	34488	
3436	0	34524	
3437	0	34588	
3438	0	34608	
3439	0	34616	
3440	0	34644	
3441	0	34664	
3442	0	34680	
3443	0	34680	
3444	0	34688	
3445	0	34708	
3446	0	34720	
3447	0	34708	
3448	0	34698	
3449	0	34672	
3450	0	34624	
3451	0	34586	
3452	0	34560	
3453	0	34540	
3454	0	34492	
3455	0	34436	
3456	0	34376	
3457	0	34300	
3458	0	34180	
3459	0	34044	
3460	0	33912	
3461	0	33860	
3462	0	33788	
3463	0	33728	
3464	0	33668	
3465	0	33588	
3466	0	33476	
3467	0	33412	
3468	0	33336	
3469	0	33244	
3470	0	33164	
3471	0	33120	
3472	0	33120	
3473	0	33108	
3474	0	33060	
3475	0	33004	
3476	0	32960	
3477	0	32908	
3478	0	32868	
3479	0	32852	
3480	0	32836	
3481	0	32864	
3482	0	32888	
3483	0	32892	
3484	0	32864	
3485	0	32808	
3486	0	32760	
3487	0	32752	
3488	0	32760	
3489	0	32732	
3490	0	32650	
3491	0	32544	
3492	0	32482	
3493	0	32432	
3494	0	32364	
3495	0	32312	
3496	0	32272	
3497	0	32280	
3498	0	32288	
3499	0	32276	
3500	0	32220	
3501	0	32164	
3502	0	32092	
3503	0	32060	
3504	0	32100	
3505	0	32152	
3506	0	32196	
3507	0	32220	
3508	0	32236	
3509	0	32244	
3510	0	32248	
3511	0	32268	
3512	0	32260	
3513	0	32224	
3514	0	32192	
3515	0	32172	
3516	0	32140	
3517	0	32116	
3518	0	32088	
3519	0	32056	
3520	0	31988	
3521	0	31952	
3522	0	31992	
3523	0	32036	
3524	0	32104	
3525	0	32200	
3526	0	32312	
3527	0	32420	
3528	0	32508	
3529	0	32576	
3530	0	32618	
3531	0	32624	
3532	0	32572	
3533	0	32564	
3534	0	32536	
3535	0	32480	
3536	0	32372	
3537	0	32332	
3538	0	32332	
3539	0	32392	
3540	0	32440	
3541	0	32432	
3542	0	32416	
3543	0	32410	
3544	0	32384	
3545	0	32380	
3546	0	32384	
3547	0	32428	
3548	0	32464	
3549	0	32480	
3550	0	32492	
3551	0	32512	
3552	0	32548	
3553	0	32618	
3554	0	32668	
3555	0	32656	
3556	0	32660	
3557	0	32632	
3558	0	32644	
3559	0	32644	
3560	0	32666	
3561	0	32680	
3562	0	32724	
3563	0	32704	
3564	0	32636	
3565	0	32588	
3566	0	32496	
3567	0	32400	
3568	0	32328	
3569	0	32330	
3570	0	32392	
3571	0	32468	
3572	0	32548	
3573	0	32620	
3574	0	32692	
3575	0	32788	
3576	0	32844	
3577	0	32884	
3578	0	32922	
3579	0	32890	
3580	0	32860	
3581	0	32856	
3582	0	32864	
3583	0	32880	
3584	0	32880	
3585	0	32892	
3586	0	32904	
3587	0	32920	
3588	0	32944	
3589	0	32968	
3590	0	33008	
3591	0	33048	
3592	0	33120	
3593	0	33204	
3594	0	33216	
3595	0	33196	
3596	0	33176	
3597	0	33160	
3598	0	33148	
3599	0	33140	
3600	0	33168	
3601	0	33180	
3602	0	33188	
3603	0	33220	
3604	0	33240	
3605	0	33244	
3606	0	33256	
3607	0	33284	
3608	0	33248	
3609	0	33208	
3610	0	33216	
3611	0	33224	
3612	0	33236	
3613	0	33276	
3614	0	33260	
3615	0	33276	
3616	0	33308	
3617	0	33328	
3618	0	33316	
3619	0	33276	
3620	0	33256	
3621	0	33216	
3622	0	33164	
3623	0	33174	
3624	0	33214	
3625	0	33220	
3626	0	33184	
3627	0	33156	
3628	0	33108	
3629	0	33100	
3630	0	33128	
3631	0	33142	
3632	0	33118	
3633	0	33124	
3634	0	33140	
3635	0	33136	
3636	0	33156	
3637	0	33194	
3638	0	33236	
3639	0	33242	
3640	0	33224	
3641	0	33228	
3642	0	33288	
3643	0	33340	
3644	0	33376	
3645	0	33412	
3646	0	33424	
3647	0	33416	
3648	0	33376	
3649	0	33320	
3650	0	33294	
3651	0	33256	
3652	0	33250	
3653	0	33234	
3654	0	33232	
3655	0	33188	
3656	0	33180	
3657	0	33204	
3658	0	33258	
3659	0	33262	
3660	0	33232	
3661	0	33236	
3662	0	33228	
3663	0	33180	
3664	0	33128	
3665	0	33112	
3666	0	33084	
3667	0	33044	
3668	0	33032	
3669	0	32940	
3670	0	32856	
3671	0	32810	
3672	0	32796	
3673	0	32812	
3674	0	32844	
3675	0	32884	
3676	0	32904	
3677	0	32868	
3678	0	32832	
3679	0	32828	
3680	0	32868	
3681	0	32892	
3682	0	32860	
3683	0	32866	
3684	0	32906	
3685	0	32964	
3686	0	32988	
3687	0	32976	
3688	0	32938	
3689	0	32812	
3690	0	32680	
3691	0	32562	
3692	0	32496	
3693	0	32448	
3694	0	32404	
3695	0	32356	
3696	0	32320	
3697	0	32322	
3698	0	32312	
3699	0	32281	
3700	0	32324	
3701	0	32404	
3702	0	32496	
3703	0	32632	
3704	0	32764	
3705	0	32862	
3706	0	32924	
3707	0	32984	
3708	0	32996	
3709	0	32932	
3710	0	32808	
3711	0	32692	
3712	0	32608	
3713	0	32544	
3714	0	32512	
3715	0	32496	
3716	0	32536	
3717	0	32556	
3718	0	32608	
3719	0	32624	
3720	0	32592	
3721	0	32536	
3722	0	32512	
3723	0	32520	
3724	0	32544	
3725	0	32552	
3726	0	32560	
3727	0	32568	
3728	0	32600	
3729	0	32580	
3730	0	32572	
3731	0	32544	
3732	0	32484	
3733	0	32472	
3734	0	32448	
3735	0	32440	
3736	0	32450	
3737	0	32500	
3738	0	32560	
3739	0	32564	
3740	0	32524	
3741	0	32432	
3742	0	32396	
3743	0	32388	
3744	0	32408	
3745	0	32412	
3746	0	32464	
3747	0	32542	
3748	0	32592	
3749	0	32596	
3750	0	32592	
3751	0	32552	
3752	0	32576	
3753	0	32560	
3754	0	32532	
3755	0	32568	
3756	0	32616	
3757	0	32608	
3758	0	32632	
3759	0	32656	
3760	0	32666	
3761	0	32644	
3762	0	32568	
3763	0	32612	
3764	0	32680	
3765	0	32652	
3766	0	32564	
3767	0	32498	
3768	0	32352	
3769	0	32176	
3770	0	32072	
3771	0	31988	
3772	0	32020	
3773	0	32096	
3774	0	32176	
3775	0	32264	
3776	0	32408	
3777	0	32520	
3778	0	32624	
3779	0	32672	
3780	0	32760	
3781	0	32914	
3782	0	33072	
3783	0	33149	
3784	0	33108	
3785	0	33028	
3786	0	32956	
3787	0	32884	
3788	0	32736	
3789	0	32628	
3790	0	32636	
3791	0	32612	
3792	0	32524	
3793	0	32464	
3794	0	32496	
3795	0	32520	
3796	0	32464	
3797	0	32432	
3798	0	32413	
3799	0	32460	
3800	0	32496	
3801	0	32488	
3802	0	32500	
3803	0	32504	
3804	0	32484	
3805	0	32526	
3806	0	32656	
3807	0	32816	
3808	0	32888	
3809	0	32940	
3810	0	32976	
3811	0	32964	
3812	0	32940	
3813	0	32856	
3814	0	32760	
3815	0	32624	
3816	0	32488	
3817	0	32396	
3818	0	32396	
3819	0	32460	
3820	0	32500	
3821	0	32408	
3822	0	32352	
3823	0	32364	
3824	0	32404	
3825	0	32444	
3826	0	32416	
3827	0	32304	
3828	0	32248	
3829	0	32192	
3830	0	32064	
3831	0	31976	
3832	0	31938	
3833	0	31968	
3834	0	32062	
3835	0	32156	
3836	0	32376	
3837	0	32720	
3838	0	32988	
3839	0	33156	
3840	0	33200	
3841	0	33120	
3842	0	33088	
3843	0	33096	
3844	0	33080	
3845	0	33016	
3846	0	32904	
3847	0	32784	
3848	0	32664	
3849	0	32596	
3850	0	32620	
3851	0	32562	
3852	0	32504	
3853	0	32564	
3854	0	32664	
3855	0	32648	
3856	0	32544	
3857	0	32426	
3858	0	32352	
3859	0	32336	
3860	0	32404	
3861	0	32580	
3862	0	32664	
3863	0	32624	
3864	0	32596	
3865	0	32664	
3866	0	32828	
3867	0	33076	
3868	0	33218	
3869	0	33336	
3870	0	33292	
3871	0	32992	
3872	0	32656	
3873	0	32364	
3874	0	32164	
3875	0	32060	
3876	0	32016	
3877	0	32056	
3878	0	32260	
3879	0	32436	
3880	0	32548	
3881	0	32672	
3882	0	32716	
3883	0	32760	
3884	0	32912	
3885	0	33196	
3886	0	33620	
3887	0	34032	
3888	0	34296	
3889	0	34360	
3890	0	34328	
3891	0	34228	
3892	0	34180	
3893	0	34164	
3894	0	34160	
3895	0	34076	
3896	0	34024	
3897	0	34016	
3898	0	34056	
3899	0	34276	
3900	0	34496	
3901	0	34604	
3902	0	34556	
3903	0	34488	
3904	0	34492	
3905	0	34632	
3906	0	34756	
3907	0	34944	
3908	0	35296	
3909	0	35636	
3910	0	35924	
3911	0	36130	
3912	0	36232	
3913	0	36336	
3914	0	36364	
3915	0	36408	
3916	0	36416	
3917	0	36430	
3918	0	36496	
3919	0	36656	
3920	0	36828	
3921	0	36836	
3922	0	36800	
3923	0	36820	
3924	0	36844	
3925	0	36776	
3926	0	36624	
3927	0	36484	
3928	0	36332	
3929	0	36160	
3930	0	36112	
3931	0	36156	
3932	0	36196	
3933	0	36216	
3934	0	36224	
3935	0	36152	
3936	0	36098	
3937	0	35972	
3938	0	35752	
3939	0	35600	
3940	0	35496	
3941	0	35328	
3942	0	35224	
3943	0	35188	
3944	0	35000	
3945	0	34720	
3946	0	34448	
3947	0	34156	
3948	0	33824	
3949	0	33444	
3950	0	32952	
3951	0	32412	
3952	0	32048	
3953	0	31914	
3954	0	31800	
3955	0	31594	
3956	0	31436	
3957	0	31348	
3958	0	31316	
3959	0	31244	
3960	0	31210	
3961	0	31212	
3962	0	31180	
3963	0	31096	
3964	0	31024	
3965	0	30944	
3966	0	30792	
3967	0	30588	
3968	0	30448	
3969	0	30388	
3970	0	30372	
3971	0	30368	
3972	0	30440	
3973	0	30596	
3974	0	30784	
3975	0	31020	
3976	0	31176	
3977	0	31268	
3978	0	31288	
3979	0	31216	
3980	0	31088	
3981	0	30960	
3982	0	30732	
3983	0	30538	
3984	0	30448	
3985	0	30400	
3986	0	30514	
3987	0	30720	
3988	0	31030	
3989	0	31392	
3990	0	31684	
3991	0	31876	
3992	0	31928	
3993	0	31796	
3994	0	31604	
3995	0	31436	
3996	0	31392	
3997	0	31496	
3998	0	31574	
3999	0	31544	
4000	0	31392	
4001	0	31096	
4002	0	30616	
4003	0	29876	
4004	0	28960	
4005	0	27836	
4006	0	26616	
4007	0	25552	
4008	0	24736	
4009	0	24250	
4010	0	24108	
4011	0	24152	
4012	0	24416	
4013	0	24880	
4014	0	25634	
4015	0	26696	
4016	0	27872	
4017	0	29392	
4018	0	31392	
4019	0	33760	
4020	0	36304	
4021	0	38896	
4022	0	41568	
4023	0	44616	
4024	0	48260	
4025	0	52320	
4026	0	56628	
4027	0	60408	
4028	0	62512	
4029	0	63624	
4030	0	64156	
4031	0	64388	
4032	0	64472	
4033	0	64464	
4034	0	64388	
4035	0	64296	
4036	0	64192	
4037	0	64100	
4038	0	63648	
4039	0	55116	
4040	0	47816	
4041	0	41692	
4042	0	36432	
4043	0	31520	
4044	0	27156	
4045	0	24124	
4046	0	22332	
4047	0	21188	
4048	0	20218	
4049	0	19144	
4050	0	17930	
4051	0	16604	
4052	0	15708	
4053	0	15312	
4054	0	15044	
4055	0	14916	
4056	0	14900	
4057	0	14912	
4058	0	14948	
4059	0	15089	
4060	0	15360	
4061	0	15936	
4062	0	16662	
4063	0	17376	
4064	0	18040	
4065	0	18508	
4066	0	18934	
4067	0	19560	
4068	0	20261	
4069	0	20917	
4070	0	21540	
4071	0	22144	
4072	0	22656	
4073	0	23186	
4074	0	23888	
4075	0	24624	
4076	0	25292	
4077	0	25848	
4078	0	26460	
4079	0	27172	
4080	0	27784	
4081	0	28248	
4082	0	28474	
4083	0	28722	
4084	0	29065	
4085	0	29400	
4086	0	29720	
4087	0	29872	
4088	0	29920	
4089	0	29908	
4090	0	29876	
4091	0	30048	
4092	0	30432	
4093	0	30964	
4094	0	31552	
4095	0	32020	
4096	0	32232	
4097	0	32368	
4098	0	32396	
4099	0	32256	
4100	0	32072	
4101	0	31992	
4102	0	32026	
4103	0	32090	
4104	0	32066	
4105	0	31980	
4106	0	31876	
4107	0	31792	
4108	0	31754	
4109	0	31780	
4110	0	31828	
4111	0	31728	
4112	0	31656	
4113	0	31728	
4114	0	31952	
4115	0	32168	
4116	0	32312	
4117	0	32540	
4118	0	32776	
4119	0	32904	
4120	0	32872	
4121	0	32780	
4122	0	32648	
4123	0	32510	
4124	0	32380	
4125	0	32448	
4126	0	32588	
4127	0	32628	
4128	0	32570	
4129	0	32596	
4130	0	32776	
4131	0	32922	
4132	0	32884	
4133	0	32716	
4134	0	32576	
4135	0	32672	
4136	0	33010	
4137	0	33216	
4138	0	33128	
4139	0	32968	
4140	0	32900	
4141	0	33048	
4142	0	33368	
4143	0	33588	
4144	0	33540	
4145	0	33324	
4146	0	33200	
4147	0	33128	
4148	0	32868	
4149	0	32588	
4150	0	32400	
4151	0	32416	
4152	0	32664	
4153	0	33116	
4154	0	33588	
4155	0	33844	
4156	0	34084	
4157	0	34320	
4158	0	34584	
4159	0	34804	
4160	0	34780	
4161	0	34368	
4162	0	33868	
4163	0	33486	
4164	0	33156	
4165	0	33092	
4166	0	33160	
4167	0	33220	
4168	0	33316	
4169	0	33412	
4170	0	33516	
4171	0	33604	
4172	0	33504	
4173	0	33448	
4174	0	33572	
4175	0	33816	
4176	0	34172	
4177	0	34488	
4178	0	34704	
4179	0	34788	
4180	0	34732	
4181	0	34596	
4182	0	34564	
4183	0	34552	
4184	0	34402	
4185	0	34134	
4186	0	33932	
4187	0	33844	
4188	0	33960	
4189	0	34260	
4190	0	34540	
4191	0	34640	
4192	0	34540	
4193	0	34296	
4194	0	34040	
4195	0	33928	
4196	0	34112	
4197	0	34420	
4198	0	34648	
4199	0	34804	
4200	0	34912	
4201	0	35048	
4202	0	35232	
4203	0	35256	
4204	0	35116	
4205	0	34874	
4206	0	34604	
4207	0	34480	
4208	0	34476	
4209	0	34604	
4210	0	34840	
4211	0	35040	
4212	0	35096	
4213	0	35000	
4214	0	34944	
4215	0	35084	
4216	0	35376	
4217	0	35608	
4218	0	35662	
4219	0	35468	
4220	0	35196	
4221	0	35148	
4222	0	35288	
4223	0	35440	
4224	0	35504	
4225	0	35580	
4226	0	36000	
4227	0	36352	
4228	0	36496	
4229	0	36560	
4230	0	36428	
4231	0	36010	
4232	0	35436	
4233	0	34840	
4234	0	34576	
4235	0	34460	
4236	0	34380	
4237	0	34360	
4238	0	34552	
4239	0	35168	
4240	0	36140	
4241	0	36956	
4242	0	37228	
4243	0	37068	
4244	0	36704	
4245	0	36360	
4246	0	36220	
4247	0	36052	
4248	0	35764	
4249	0	35616	
4250	0	35728	
4251	0	35968	
4252	0	35916	
4253	0	35744	
4254	0	35548	
4255	0	35344	
4256	0	35492	
4257	0	35872	
4258	0	36136	
4259	0	36132	
4260	0	36032	
4261	0	35842	
4262	0	35568	
4263	0	35368	
4264	0	35160	
4265	0	34964	
4266	0	34920	
4267	0	35032	
4268	0	35396	
4269	0	35680	
4270	0	35824	
4271	0	35808	
4272	0	35576	
4273	0	35344	
4274	0	35232	
4275	0	35208	
4276	0	35108	
4277	0	35056	
4278	0	35028	
4279	0	34928	
4280	0	34740	
4281	0	34600	
4282	0	34564	
4283	0	34476	
4284	0	34192	
4285	0	33708	
4286	0	33180	
4287	0	32864	
4288	0	32960	
4289	0	33304	
4290	0	33368	
4291	0	33332	
4292	0	33196	
4293	0	32988	
4294	0	33080	
4295	0	33304	
4296	0	33604	
4297	0	34080	
4298	0	34274	
4299	0	34082	
4300	0	33744	
4301	0	33420	
4302	0	32832	
4303	0	32280	
4304	0	31954	
4305	0	31752	
4306	0	31588	
4307	0	31564	
4308	0	31828	
4309	0	32196	
4310	0	32300	
4311	0	32128	
4312	0	31956	
4313	0	31848	
4314	0	31620	
4315	0	31468	
4316	0	31504	
4317	0	31896	
4318	0	32364	
4319	0	32548	
4320	0	32268	
4321	0	31864	
4322	0	31668	
4323	0	31840	
4324	0	32192	
4325	0	32584	
4326	0	32984	
4327	0	33104	
4328	0	32964	
4329	0	32416	
4330	0	31604	
4331	0	30788	
4332	0	30328	
4333	0	30384	
4334	0	30992	
4335	0	31704	
4336	0	32204	
4337	0	32408	
4338	0	32344	
4339	0	32040	
4340	0	31844	
4341	0	31592	
4342	0	31280	
4343	0	31116	
4344	0	30980	
4345	0	30944	
4346	0	30892	
4347	0	30736	
4348	0	30600	
4349	0	30474	
4350	0	30448	
4351	0	30640	
4352	0	30880	
4353	0	31052	
4354	0	31292	
4355	0	31424	
4356	0	31580	
4357	0	31928	
4358	0	32244	
4359	0	32384	
4360	0	32328	
4361	0	32124	
4362	0	31720	
4363	0	31356	
4364	0	31266	
4365	0	31160	
4366	0	30880	
4367	0	30700	
4368	0	30896	
4369	0	31300	
4370	0	31680	
4371	0	31860	
4372	0	31876	
4373	0	31700	
4374	0	31416	
4375	0	31284	
4376	0	31396	
4377	0	31764	
4378	0	32240	
4379	0	32332	
4380	0	32218	
4381	0	32212	
4382	0	32360	
4383	0	32592	
4384	0	32960	
4385	0	32968	
4386	0	32596	
4387	0	31928	
4388	0	31196	
4389	0	30868	
4390	0	30944	
4391	0	31488	
4392	0	32288	
4393	0	32952	
4394	0	33264	
4395	0	33340	
4396	0	33156	
4397	0	32576	
4398	0	32232	
4399	0	32072	
4400	0	32052	
4401	0	31916	
4402	0	31612	
4403	0	31300	
4404	0	30992	
4405	0	30936	
4406	0	31292	
4407	0	31768	
4408	0	32312	
4409	0	32696	
4410	0	33004	
4411	0	33156	
4412	0	32844	
4413	0	32364	
4414	0	32196	
4415	0	32328	
4416	0	32452	
4417	0	32348	
4418	0	32100	
4419	0	31840	
4420	0	31592	
4421	0	31384	
4422	0	31348	
4423	0	31532	
4424	0	32048	
4425	0	32930	
4426	0	33896	
4427	0	34724	
4428	0	35072	
4429	0	34784	
4430	0	33716	
4431	0	32336	
4432	0	31464	
4433	0	31160	
4434	0	31176	
4435	0	31256	
4436	0	31620	
4437	0	32112	
4438	0	32504	
4439	0	32824	
4440	0	32976	
4441	0	33040	
4442	0	33136	
4443	0	33188	
4444	0	33404	
4445	0	33520	
4446	0	33532	
4447	0	33520	
4448	0	33516	
4449	0	33392	
4450	0	33380	
4451	0	33540	
4452	0	33696	
4453	0	33640	
4454	0	33544	
4455	0	33360	
4456	0	33256	
4457	0	33128	
4458	0	32824	
4459	0	32436	
4460	0	31992	
4461	0	31468	
4462	0	31036	
4463	0	31064	
4464	0	31408	
4465	0	32160	
4466	0	33088	
4467	0	34028	
4468	0	34472	
4469	0	34256	
4470	0	33652	
4471	0	33360	
4472	0	33344	
4473	0	33160	
4474	0	33084	
4475	0	32940	
4476	0	32444	
4477	0	32140	
4478	0	32376	
4479	0	32792	
4480	0	33152	
4481	0	33316	
4482	0	33168	
4483	0	33208	
4484	0	33480	
4485	0	33332	
4486	0	32684	
4487	0	31884	
4488	0	31276	
4489	0	31412	
4490	0	32184	
4491	0	32928	
4492	0	33146	
4493	0	33116	
4494	0	33092	
4495	0	33160	
4496	0	33256	
4497	0	33232	
4498	0	33036	
4499	0	32944	
4500	0	32914	
4501	0	32896	
4502	0	32832	
4503	0	32970	
4504	0	33124	
4505	0	33036	
4506	0	32848	
4507	0	32640	
4508	0	32354	
4509	0	31952	
4510	0	31500	
4511	0	31180	
4512	0	31396	
4513	0	31696	
4514	0	32104	
4515	0	32656	
4516	0	33104	
4517	0	33312	
4518	0	33232	
4519	0	32908	
4520	0	32544	
4521	0	32316	
4522	0	32220	
4523	0	32116	
4524	0	31944	
4525	0	31880	
4526	0	31908	
4527	0	31984	
4528	0	31890	
4529	0	31500	
4530	0	30988	
4531	0	30908	
4532	0	31596	
4533	0	32544	
4534	0	33208	
4535	0	33060	
4536	0	32486	
4537	0	31952	
4538	0	31648	
4539	0	31856	
4540	0	32336	
4541	0	32920	
4542	0	33184	
4543	0	33076	
4544	0	32904	
4545	0	32564	
4546	0	32240	
4547	0	31888	
4548	0	31540	
4549	0	31568	
4550	0	31776	
4551	0	31636	
4552	0	31356	
4553	0	31480	
4554	0	32084	
4555	0	32768	
4556	0	33112	
4557	0	32776	
4558	0	32108	
4559	0	31820	
4560	0	31968	
4561	0	32216	
4562	0	32424	
4563	0	32554	
4564	0	32616	
4565	0	32728	
4566	0	32676	
4567	0	32424	
4568	0	32148	
4569	0	32176	
4570	0	32300	
4571	0	32276	
4572	0	32120	
4573	0	31888	
4574	0	31840	
4575	0	31660	
4576	0	31348	
4577	0	31252	
4578	0	31350	
4579	0	31508	
4580	0	31544	
4581	0	31784	
4582	0	32228	
4583	0	32544	
4584	0	32608	
4585	0	32616	
4586	0	32408	
4587	0	32220	
4588	0	32084	
4589	0	32064	
4590	0	32188	
4591	0	32192	
4592	0	31908	
4593	0	31728	
4594	0	31778	
4595	0	31908	
4596	0	31800	
4597	0	31680	
4598	0	31684	
4599	0	31764	
4600	0	31808	
4601	0	31820	
4602	0	31780	
4603	0	31644	
4604	0	31448	
4605	0	31348	
4606	0	31256	
4607	0	31300	
4608	0	31416	
4609	0	31540	
4610	0	31744	
4611	0	32024	
4612	0	32198	
4613	0	32172	
4614	0	32260	
4615	0	32568	
4616	0	32660	
4617	0	32508	
4618	0	31960	
4619	0	31568	
4620	0	31696	
4621	0	32088	
4622	0	32532	
4623	0	33002	
4624	0	33096	
4625	0	32890	
4626	0	32640	
4627	0	32392	
4628	0	32410	
4629	0	32368	
4630	0	31960	
4631	0	31468	
4632	0	31328	
4633	0	31528	
4634	0	31800	
4635	0	32056	
4636	0	32188	
4637	0	32072	
4638	0	31968	
4639	0	32092	
4640	0	32384	
4641	0	32832	
4642	0	33176	
4643	0	33420	
4644	0	33488	
4645	0	33228	
4646	0	32638	
4647	0	32308	
4648	0	32460	
4649	0	32908	
4650	0	33396	
4651	0	33804	
4652	0	33884	
4653	0	33920	
4654	0	33952	
4655	0	33860	
4656	0	33420	
4657	0	32928	
4658	0	32628	
4659	0	32636	
4660	0	32840	
4661	0	33316	
4662	0	33752	
4663	0	34016	
4664	0	33972	
4665	0	33936	
4666	0	34120	
4667	0	34296	
4668	0	34460	
4669	0	34704	
4670	0	34992	
4671	0	35124	
4672	0	35120	
4673	0	35268	
4674	0	35624	
4675	0	36112	
4676	0	36572	
4677	0	36720	
4678	0	36488	
4679	0	36088	
4680	0	35666	
4681	0	35364	
4682	0	35322	
4683	0	35456	
4684	0	35608	
4685	0	35800	
4686	0	35948	
4687	0	36104	
4688	0	36180	
4689	0	36168	
4690	0	35976	
4691	0	35576	
4692	0	34932	
4693	0	34432	
4694	0	34370	
4695	0	34664	
4696	0	34884	
4697	0	34896	
4698	0	34772	
4699	0	34488	
4700	0	34096	
4701	0	33748	
4702	0	33532	
4703	0	33448	
4704	0	33372	
4705	0	33268	
4706	0	33032	
4707	0	32700	
4708	0	32384	
4709	0	32092	
4710	0	31764	
4711	0	31488	
4712	0	31396	
4713	0	31376	
4714	0	31308	
4715	0	31072	
4716	0	30656	
4717	0	30528	
4718	0	30616	
4719	0	30762	
4720	0	30928	
4721	0	31276	
4722	0	31392	
4723	0	31216	
4724	0	30882	
4725	0	30272	
4726	0	29668	
4727	0	29540	
4728	0	29660	
4729	0	29986	
4730	0	30380	
4731	0	30708	
4732	0	30874	
4733	0	30976	
4734	0	31112	
4735	0	31192	
4736	0	31152	
4737	0	31008	
4738	0	30848	
4739	0	30768	
4740	0	30848	
4741	0	30908	
4742	0	30904	
4743	0	30984	
4744	0	31160	
4745	0	31266	
4746	0	31156	
4747	0	30880	
4748	0	30554	
4749	0	30380	
4750	0	30416	
4751	0	30464	
4752	0	30460	
4753	0	30536	
4754	0	30658	
4755	0	30754	
4756	0	30780	
4757	0	30836	
4758	0	30912	
4759	0	30916	
4760	0	30656	
4761	0	30160	
4762	0	29344	
4763	0	28428	
4764	0	27732	
4765	0	27152	
4766	0	26548	
4767	0	26280	
4768	0	26124	
4769	0	26008	
4770	0	26016	
4771	0	26180	
4772	0	26696	
4773	0	27378	
4774	0	28240	
4775	0	29474	
4776	0	31220	
4777	0	33372	
4778	0	35776	
4779	0	38336	
4780	0	40880	
4781	0	43568	
4782	0	46424	
4783	0	49592	
4784	0	52984	
4785	0	56572	
4786	0	60148	
4787	0	62416	
4788	0	63616	
4789	0	64196	
4790	0	64476	
4791	0	64568	
4792	0	64552	
4793	0	64484	
4794	0	64404	
4795	0	64296	
4796	0	64184	
4797	0	60512	
4798	0	51376	
4799	0	43752	
4800	0	37696	
4801	0	32724	
4802	0	28432	
4803	0	25096	
4804	0	23000	
4805	0	21900	
4806	0	21208	
4807	0	20476	
4808	0	19666	
4809	0	18784	
4810	0	17840	
4811	0	16700	
4812	0	15612	
4813	0	14924	
4814	0	14712	
4815	0	14718	
4816	0	14676	
4817	0	14714	
4818	0	14908	
4819	0	15044	
4820	0	15212	
4821	0	15518	
4822	0	15936	
4823	0	16344	
4824	0	16876	
4825	0	17568	
4826	0	18252	
4827	0	18980	
4828	0	19544	
4829	0	19808	
4830	0	20252	
4831	0	21008	
4832	0	22016	
4833	0	22916	
4834	0	23598	
4835	0	24256	
4836	0	24980	
4837	0	25748	
4838	0	26416	
4839	0	27092	
4840	0	27792	
4841	0	28404	
4842	0	28808	
4843	0	29080	
4844	0	29368	
4845	0	29556	
4846	0	29752	
4847	0	30100	
4848	0	30452	
4849	0	30642	
4850	0	30816	
4851	0	30888	
4852	0	30908	
4853	0	30944	
4854	0	31120	
4855	0	31380	
4856	0	31512	
4857	0	31528	
4858	0	31440	
4859	0	31312	
4860	0	31364	
4861	0	31504	
4862	0	31652	
4863	0	31752	
4864	0	31848	
4865	0	32008	
4866	0	32080	
4867	0	32088	
4868	0	32068	
4869	0	32052	
4870	0	32132	
4871	0	32328	
4872	0	32528	
4873	0	32588	
4874	0	32464	
4875	0	32372	
4876	0	32316	
4877	0	32304	
4878	0	32372	
4879	0	32418	
4880	0	32330	
4881	0	32176	
4882	0	32188	
4883	0	32306	
4884	0	32484	
4885	0	32696	
4886	0	32868	
4887	0	32972	
4888	0	33052	
4889	0	33192	
4890	0	33376	
4891	0	33496	
4892	0	33372	
4893	0	33080	
4894	0	32808	
4895	0	32720	
4896	0	32824	
4897	0	33018	
4898	0	33180	
4899	0	33356	
4900	0	33512	
4901	0	33540	
4902	0	33512	
4903	0	33532	
4904	0	33516	
4905	0	33468	
4906	0	33500	
4907	0	33568	
4908	0	33552	
4909	0	33508	
4910	0	33540	
4911	0	33632	
4912	0	33724	
4913	0	33768	
4914	0	33744	
4915	0	33692	
4916	0	33632	
4917	0	33688	
4918	0	33824	
4919	0	33936	
4920	0	33948	
4921	0	33924	
4922	0	33928	
4923	0	33902	
4924	0	33840	
4925	0	33840	
4926	0	33904	
4927	0	34008	
4928	0	34128	
4929	0	34224	
4930	0	34284	
4931	0	34320	
4932	0	34312	
4933	0	34252	
4934	0	34180	
4935	0	34092	
4936	0	33968	
4937	0	34016	
4938	0	34240	
4939	0	34436	
4940	0	34528	
4941	0	34520	
4942	0	34506	
4943	0	34532	
4944	0	34608	
4945	0	34628	
4946	0	34604	
4947	0	34616	
4948	0	34732	
4949	0	34856	
4950	0	34888	
4951	0	34896	
4952	0	34800	
4953	0	34728	
4954	0	34796	
4955	0	34984	
4956	0	35198	
4957	0	35228	
4958	0	35124	
4959	0	35052	
4960	0	35032	
4961	0	34940	
4962	0	34752	
4963	0	34610	
4964	0	34576	
4965	0	34554	
4966	0	34544	
4967	0	34656	
4968	0	34860	
4969	0	35096	
4970	0	35236	
4971	0	35328	
4972	0	35324	
4973	0	35244	
4974	0	35258	
4975	0	35376	
4976	0	35492	
4977	0	35584	
4978	0	35664	
4979	0	35712	
4980	0	35746	
4981	0	35704	
4982	0	35552	
4983	0	35424	
4984	0	35404	
4985	0	35484	
4986	0	35560	
4987	0	35556	
4988	0	35556	
4989	0	35672	
4990	0	35712	
4991	0	35660	
4992	0	35592	
4993	0	35520	
4994	0	35536	
4995	0	35560	
4996	0	35572	
4997	0	35616	
4998	0	35644	
4999	0	35660	
5000	0	35740	
5001	0	35808	
5002	0	35808	
5003	0	35752	
5004	0	35708	
5005	0	35700	
5006	0	35704	
5007	0	35644	
5008	0	35556	
5009	0	35504	
5010	0	35474	
5011	0	35544	
5012	0	35584	
5013	0	35520	
5014	0	35388	
5015	0	35300	
5016	0	35312	
5017	0	35372	
5018	0	35336	
5019	0	35224	
5020	0	35076	
5021	0	35052	
5022	0	35084	
5023	0	35088	
5024	0	35080	
5025	0	35088	
5026	0	35056	
5027	0	34936	
5028	0	34844	
5029	0	34768	
5030	0	34736	
5031	0	34720	
5032	0	34648	
5033	0	34558	
5034	0	34548	
5035	0	34432	
5036	0	34168	
5037	0	34004	
5038	0	34032	
5039	0	34068	
5040	0	34096	
5041	0	34008	
5042	0	33796	
5043	0	33612	
5044	0	33584	
5045	0	33584	
5046	0	33580	
5047	0	33546	
5048	0	33434	
5049	0	33280	
5050	0	33136	
5051	0	33008	
5052	0	32896	
5053	0	32828	
5054	0	32844	
5055	0	32872	
5056	0	32948	
5057	0	32996	
5058	0	32940	
5059	0	32808	
5060	0	32672	
5061	0	32548	
5062	0	32460	
5063	0	32360	
5064	0	32240	
5065	0	32136	
5066	0	31980	
5067	0	31776	
5068	0	31688	
5069	0	31712	
5070	0	31720	
5071	0	31736	
5072	0	31810	
5073	0	31832	
5074	0	31752	
5075	0	31744	
5076	0	31832	
5077	0	31896	
5078	0	31800	
5079	0	31616	
5080	0	31496	
5081	0	31446	
5082	0	31440	
5083	0	31476	
5084	0	31532	
5085	0	31548	
5086	0	31496	
5087	0	31424	
5088	0	31352	
5089	0	31344	
5090	0	31322	
5091	0	31272	
5092	0	31180	
5093	0	31168	
5094	0	31224	
5095	0	31344	
5096	0	31392	
5097	0	31436	
5098	0	31424	
5099	0	31396	
5100	0	31332	
5101	0	31220	
5102	0	31148	
5103	0	31128	
5104	0	31096	
5105	0	31044	
5106	0	30992	
5107	0	30996	
5108	0	30970	
5109	0	30956	
5110	0	30948	
5111	0	30900	
5112	0	30864	
5113	0	30844	
5114	0	30864	
5115	0	30936	
5116	0	30976	
5117	0	31048	
5118	0	31080	
5119	0	31036	
5120	0	31006	
5121	0	30992	
5122	0	31076	
5123	0	31252	
5124	0	31388	
5125	0	31472	
5126	0	31496	
5127	0	31484	
5128	0	31464	
5129	0	31432	
5130	0	31408	
5131	0	31384	
5132	0	31360	
5133	0	31352	
5134	0	31364	
5135	0	31380	
5136	0	31372	
5137	0	31348	
5138	0	31332	
5139	0	31288	
5140	0	31216	
5141	0	31188	
5142	0	31252	
5143	0	31380	
5144	0	31504	
5145	0	31592	
5146	0	31724	
5147	0	31876	
5148	0	31904	
5149	0	31872	
5150	0	31932	
5151	0	31900	
5152	0	31824	
5153	0	31812	
5154	0	31828	
5155	0	31840	
5156	0	31832	
5157	0	31808	
5158	0	31812	
5159	0	31856	
5160	0	31960	
5161	0	32156	
5162	0	32320	
5163	0	32364	
5164	0	32396	
5165	0	32450	
5166	0	32496	
5167	0	32540	
5168	0	32592	
5169	0	32608	
5170	0	32630	
5171	0	32656	
5172	0	32720	
5173	0	32800	
5174	0	32874	
5175	0	32896	
5176	0	32888	
5177	0	32848	
5178	0	32836	
5179	0	32832	
5180	0	32800	
5181	0	32732	
5182	0	32708	
5183	0	32748	
5184	0	32844	
5185	0	32944	
5186	0	33000	
5187	0	33016	
5188	0	33024	
5189	0	33040	
5190	0	33080	
5191	0	33160	
5192	0	33208	
5193	0	33268	
5194	0	33280	
5195	0	33256	
5196	0	33192	
5197	0	33180	
5198	0	33216	
5199	0	33240	
5200	0	33264	
5201	0	33252	
5202	0	33264	
5203	0	33300	
5204	0	33264	
5205	0	33236	
5206	0	33192	
5207	0	33152	
5208	0	33144	
5209	0	33120	
5210	0	33120	
5211	0	33120	
5212	0	33192	
5213	0	33268	
5214	0	33340	
5215	0	33320	
5216	0	33280	
5217	0	33288	
5218	0	33260	
5219	0	33216	
5220	0	33160	
5221	0	33072	
5222	0	32960	
5223	0	32892	
5224	0	32872	
5225	0	32912	
5226	0	32988	
5227	0	32996	
5228	0	32984	
5229	0	32984	
5230	0	32984	
5231	0	33012	
5232	0	33028	
5233	0	33020	
5234	0	32976	
5235	0	32956	
5236	0	32896	
5237	0	32836	
5238	0	32792	
5239	0	32768	
5240	0	32748	
5241	0	32736	
5242	0	32728	
5243	0	32704	
5244	0	32672	
5245	0	32644	
5246	0	32596	
5247	0	32540	
5248	0	32584	
5249	0	32640	
5250	0	32676	
5251	0	32696	
5252	0	32656	
5253	0	32632	
5254	0	32640	
5255	0	32624	
5256	0	32568	
5257	0	32536	
5258	0	32468	
5259	0	32392	
5260	0	32336	
5261	0	32288	
5262	0	32272	
5263	0	32256	
5264	0	32298	
5265	0	32360	
5266	0	32424	
5267	0	32432	
5268	0	32404	
5269	0	32396	
5270	0	32388	
5271	0	32384	
5272	0	32400	
5273	0	32420	
5274	0	32440	
5275	0	32460	
5276	0	32448	
5277	0	32412	
5278	0	32340	
5279	0	32332	
5280	0	32296	
5281	0	32288	
5282	0	32280	
5283	0	32220	
5284	0	32182	
5285	0	32154	
5286	0	32144	
5287	0	32128	
5288	0	32072	
5289	0	32042	
5290	0	32036	
5291	0	32072	
5292	0	32088	
5293	0	32058	
5294	0	32032	
5295	0	32012	
5296	0	32048	
5297	0	32076	
5298	0	32112	
5299	0	32132	
5300	0	32124	
5301	0	32124	
5302	0	32112	
5303	0	32116	
5304	0	32132	
5305	0	32156	
5306	0	32156	
5307	0	32140	
5308	0	32120	
5309	0	32096	
5310	0	32080	
5311	0	32120	
5312	0	32140	
5313	0	32130	
5314	0	32068	
5315	0	32036	
5316	0	32012	
5317	0	31996	
5318	0	32012	
5319	0	32024	
5320	0	32048	
5321	0	32064	
5322	0	32056	
5323	0	32052	
5324	0	32020	
5325	0	32004	
5326	0	32046	
5327	0	32088	
5328	0	32104	
5329	0	32080	
5330	0	32076	
5331	0	32064	
5332	0	32052	
5333	0	32100	
5334	0	32144	
5335	0	32168	
5336	0	32152	
5337	0	32104	
5338	0	32096	
5339	0	32076	
5340	0	32032	
5341	0	32016	
5342	0	32032	
5343	0	32000	
5344	0	31996	
5345	0	31976	
5346	0	31960	
5347	0	31956	
5348	0	31960	
5349	0	31996	
5350	0	32032	
5351	0	32100	
5352	0	32152	
5353	0	32200	
5354	0	32220	
5355	0	32236	
5356	0	32240	
5357	0	32228	
5358	0	32240	
5359	0	32228	
5360	0	32280	
5361	0	32352	
5362	0	32488	
5363	0	32600	
5364	0	32668	
5365	0	32812	
5366	0	32944	
5367	0	33100	
5368	0	33240	
5369	0	33368	
5370	0	33480	
5371	0	33608	
5372	0	33772	
5373	0	33968	
5374	0	34088	
5375	0	34164	
5376	0	34212	
5377	0	34240	
5378	0	34296	
5379	0	34256	
5380	0	34216	
5381	0	34192	
5382	0	34168	
5383	0	34152	
5384	0	34156	
5385	0	34136	
5386	0	34148	
5387	0	34184	
5388	0	34208	
5389	0	34320	
5390	0	34496	
5391	0	34752	
5392	0	35072	
5393	0	35392	
5394	0	35716	
5395	0	36032	
5396	0	36360	
5397	0	36632	
5398	0	36792	
5399	0	36920	
5400	0	36978	
5401	0	36980	
5402	0	36920	
5403	0	36876	
5404	0	36808	
5405	0	36704	
5406	0	36592	
5407	0	36508	
5408	0	36384	
5409	0	36168	
5410	0	36000	
5411	0	35916	
5412	0	35880	
5413	0	35892	
5414	0	35896	
5415	0	35844	
5416	0	35760	
5417	0	35616	
5418	0	35524	
5419	0	35432	
5420	0	35360	
5421	0	35324	
5422	0	35272	
5423	0	35176	
5424	0	35024	
5425	0	34804	
5426	0	34580	
5427	0	34320	
5428	0	34064	
5429	0	33720	
5430	0	33406	
5431	0	33068	
5432	0	32700	
5433	0	32300	
5434	0	31968	
5435	0	31704	
5436	0	31448	
5437	0	31176	
5438	0	30992	
5439	0	30868	
5440	0	30776	
5441	0	30644	
5442	0	30508	
5443	0	30348	
5444	0	30240	
5445	0	30168	
5446	0	30160	
5447	0	30180	
5448	0	30156	
5449	0	30120	
5450	0	30104	
5451	0	30128	
5452	0	30164	
5453	0	30184	
5454	0	30184	
5455	0	30200	
5456	0	30236	
5457	0	30240	
5458	0	30220	
5459	0	30232	
5460	0	30266	
5461	0	30266	
5462	0	30286	
5463	0	30300	
5464	0	30268	
5465	0	30204	
5466	0	30180	
5467	0	30192	
5468	0	30236	
5469	0	30292	
5470	0	30324	
5471	0	30340	
5472	0	30348	
5473	0	30380	
5474	0	30428	
5475	0	30498	
5476	0	30504	
5477	0	30592	
5478	0	30620	
5479	0	30584	
5480	0	30568	
5481	0	30582	
5482	0	30580	
5483	0	30504	
5484	0	30360	
5485	0	30128	
5486	0	29720	
5487	0	29068	
5488	0	28268	
5489	0	27376	
5490	0	26434	
5491	0	25578	
5492	0	24804	
5493	0	24196	
5494	0	23788	
5495	0	23576	
5496	0	23612	
5497	0	23938	
5498	0	24476	
5499	0	25152	
5500	0	25908	
5501	0	27028	
5502	0	28736	
5503	0	30928	
5504	0	33544	
5505	0	36312	
5506	0	39332	
5507	0	42520	
5508	0	46080	
5509	0	50108	
5510	0	54336	
5511	0	58760	
5512	0	61852	
5513	0	63484	
5514	0	64344	
5515	0	64736	
5516	0	64912	
5517	0	64936	
5518	0	64896	
5519	0	64820	
5520	0	64720	
5521	0	64624	
5522	0	64504	
5523	0	64384	
5524	0	56936	
5525	0	49944	
5526	0	44212	
5527	0	39492	
5528	0	34996	
5529	0	30668	
5530	0	26994	
5531	0	24224	
5532	0	21978	
5533	0	19888	
5534	0	18034	
5535	0	16628	
5536	0	15632	
5537	0	15004	
5538	0	14624	
5539	0	14504	
5540	0	14524	
5541	0	14545	
5542	0	14564	
5543	0	14738	
5544	0	15044	
5545	0	15552	
5546	0	16248	
5547	0	17028	
5548	0	17784	
5549	0	18432	
5550	0	19112	
5551	0	19784	
5552	0	20464	
5553	0	21132	
5554	0	21792	
5555	0	22460	
5556	0	23160	
5557	0	23900	
5558	0	24628	
5559	0	25358	
5560	0	25976	
5561	0	26528	
5562	0	27032	
5563	0	27468	
5564	0	27836	
5565	0	28140	
5566	0	28448	
5567	0	28676	
5568	0	28892	
5569	0	29096	
5570	0	29236	
5571	0	29368	
5572	0	29504	
5573	0	29610	
5574	0	29708	
5575	0	29736	
5576	0	29760	
5577	0	29816	
5578	0	29918	
5579	0	30012	
5580	0	30176	
5581	0	30340	
5582	0	30460	
5583	0	30552	
5584	0	30636	
5585	0	30676	
5586	0	30742	
5587	0	30792	
5588	0	30816	
5589	0	30888	
5590	0	30924	
5591	0	30944	
5592	0	30988	
5593	0	31032	
5594	0	31096	
5595	0	31132	
5596	0	31188	
5597	0	31218	
5598	0	31296	
5599	0	31392	
5600	0	31396	
5601	0	31340	
5602	0	31412	
5603	0	31444	
5604	0	31500	
5605	0	31540	
5606	0	31576	
5607	0	31608	
5608	0	31648	
5609	0	31736	
5610	0	31776	
5611	0	31820	
5612	0	31860	
5613	0	31888	
5614	0	31848	
5615	0	31786	
5616	0	31778	
5617	0	31816	
5618	0	31884	
5619	0	32000	
5620	0	32050	
5621	0	32072	
5622	0	32092	
5623	0	32128	
5624	0	32146	
5625	0	32160	
5626	0	32184	
5627	0	32212	
5628	0	32224	
5629	0	32224	
5630	0	32282	
5631	0	32316	
5632	0	32332	
5633	0	32360	
5634	0	32406	
5635	0	32420	
5636	0	32440	
5637	0	32468	
5638	0	32490	
5639	0	32492	
5640	0	32548	
5641	0	32588	
5642	0	32600	
5643	0	32652	
5644	0	32708	
5645	0	32768	
5646	0	32841	
5647	0	32888	
5648	0	32912	
5649	0	32904	
5650	0	32900	
5651	0	32924	
5652	0	32960	
5653	0	32972	
5654	0	32996	
5655	0	33036	
5656	0	33008	
5657	0	32992	
5658	0	32976	
5659	0	32980	
5660	0	33016	
5661	0	33034	
5662	0	33060	
5663	0	33140	
5664	0	33192	
5665	0	33232	
5666	0	33232	
5667	0	33268	
5668	0	33284	
5669	0	33304	
5670	0	33360	
5671	0	33428	
5672	0	33460	
5673	0	33388	
5674	0	33396	
5675	0	33456	
5676	0	33480	
5677	0	33498	
5678	0	33484	
5679	0	33496	
5680	0	33512	
5681	0	33600	
5682	0	33658	
5683	0	33712	
5684	0	33756	
5685	0	33786	
5686	0	33824	
5687	0	33864	
5688	0	33856	
5689	0	33800	
5690	0	33808	
5691	0	33844	
5692	0	33864	
5693	0	33894	
5694	0	33904	
5695	0	33920	
5696	0	33940	
5697	0	33986	
5698	0	34024	
5699	0	34044	
5700	0	34008	
5701	0	34008	
5702	0	34032	
5703	0	34032	
5704	0	34024	
5705	0	34000	
5706	0	34008	
5707	0	34024	
5708	0	34004	
5709	0	34016	
5710	0	34092	
5711	0	34164	
5712	0	34224	
5713	0	34272	
5714	0	34296	
5715	0	34328	
5716	0	34296	
5717	0	34284	
5718	0	34288	
5719	0	34272	
5720	0	34220	
5721	0	34182	
5722	0	34216	
5723	0	34276	
5724	0	34320	
5725	0	34340	
5726	0	34320	
5727	0	34332	
5728	0	34352	
5729	0	34368	
5730	0	34380	
5731	0	34408	
5732	0	34436	
5733	0	34468	
5734	0	34464	
5735	0	34460	
5736	0	34448	
5737	0	34412	
5738	0	34388	
5739	0	34404	
5740	0	34424	
5741	0	34460	
5742	0	34472	
5743	0	34484	
5744	0	34496	
5745	0	34480	
5746	0	34468	
5747	0	34456	
5748	0	34408	
5749	0	34404	
5750	0	34396	
5751	0	34396	
5752	0	34376	
5753	0	34412	
5754	0	34468	
5755	0	34488	
5756	0	34488	
5757	0	34436	
5758	0	34416	
5759	0	34476	
5760	0	34452	
5761	0	34388	
5762	0	34220	
5763	0	34240	
5764	0	34224	
5765	0	34124	
5766	0	34008	
5767	0	33946	
5768	0	33884	
5769	0	33832	
5770	0	33800	
5771	0	33716	
5772	0	33684	
5773	0	33618	
5774	0	33556	
5775	0	33496	
5776	0	33450	
5777	0	33384	
5778	0	33352	
5779	0	33384	
5780	0	33348	
5781	0	33276	
5782	0	33194	
5783	0	33120	
5784	0	33084	
5785	0	33012	
5786	0	32916	
5787	0	32880	
5788	0	32840	
5789	0	32852	
5790	0	32844	
5791	0	32796	
5792	0	32756	
5793	0	32716	
5794	0	32732	
5795	0	32712	
5796	0	32656	
5797	0	32616	
5798	0	32596	
5799	0	32548	
5800	0	32552	
5801	0	32528	
5802	0	32464	
5803	0	32400	
5804	0	32368	
5805	0	32324	
5806	0	32312	
5807	0	32308	
5808	0	32316	
5809	0	32330	
5810	0	32324	
5811	0	32272	
5812	0	32192	
5813	0	32136	
5814	0	32088	
5815	0	31996	
5816	0	31968	
5817	0	31984	
5818	0	31968	
5819	0	32020	
5820	0	32112	
5821	0	32176	
5822	0	32170	
5823	0	32136	
5824	0	32056	
5825	0	31968	
5826	0	31960	
5827	0	31996	
5828	0	32044	
5829	0	32056	
5830	0	31988	
5831	0	31976	
5832	0	32060	
5833	0	32120	
5834	0	32112	
5835	0	32104	
5836	0	32058	
5837	0	32066	
5838	0	32080	
5839	0	32092	
5840	0	32072	
5841	0	32064	
5842	0	32080	
5843	0	32092	
5844	0	32076	
5845	0	32048	
5846	0	32072	
5847	0	32116	
5848	0	32108	
5849	0	32096	
5850	0	32160	
5851	0	32228	
5852	0	32276	
5853	0	32320	
5854	0	32320	
5855	0	32272	
5856	0	32224	
5857	0	32280	
5858	0	32304	
5859	0	32324	
5860	0	32376	
5861	0	32396	
5862	0	32396	
5863	0	32416	
5864	0	32404	
5865	0	32408	
5866	0	32392	
5867	0	32424	
5868	0	32452	
5869	0	32460	
5870	0	32460	
5871	0	32480	
5872	0	32544	
5873	0	32624	
5874	0	32664	
5875	0	32678	
5876	0	32700	
5877	0	32728	
5878	0	32760	
5879	0	32756	
5880	0	32804	
5881	0	32834	
5882	0	32830	
5883	0	32784	
5884	0	32794	
5885	0	32840	
5886	0	32896	
5887	0	32912	
5888	0	32960	
5889	0	32992	
5890	0	32980	
5891	0	32944	
5892	0	32952	
5893	0	33024	
5894	0	33040	
5895	0	33008	
5896	0	33060	
5897	0	33112	
5898	0	33120	
5899	0	33132	
5900	0	33112	
5901	0	33064	
5902	0	33076	
5903	0	33112	
5904	0	33068	
5905	0	33120	
5906	0	33204	
5907	0	33236	
5908	0	33268	
5909	0	33256	
5910	0	33180	
5911	0	33180	
5912	0	33192	
5913	0	33274	
5914	0	33312	
5915	0	33320	
5916	0	33356	
5917	0	33424	
5918	0	33436	
5919	0	33460	
5920	0	33488	
5921	0	33432	
5922	0	33344	
5923	0	33260	
5924	0	33248	
5925	0	33300	
5926	0	33308	
5927	0	33376	
5928	0	33456	
5929	0	33468	
5930	0	33420	
5931	0	33344	
5932	0	33304	
5933	0	33288	
5934	0	33260	
5935	0	33288	
5936	0	33284	
5937	0	33284	
5938	0	33268	
5939	0	33300	
5940	0	33322	
5941	0	33328	
5942	0	33324	
5943	0	33308	
5944	0	33304	
5945	0	33248	
5946	0	33232	
5947	0	33276	
5948	0	33304	
5949	0	33236	
5950	0	33184	
5951	0	33196	
5952	0	33168	
5953	0	33132	
5954	0	33108	
5955	0	33072	
5956	0	33044	
5957	0	33032	
5958	0	33048	
5959	0	33068	
5960	0	33078	
5961	0	33084	
5962	0	33076	
5963	0	33056	
5964	0	33068	
5965	0	32984	
5966	0	32968	
5967	0	32944	
5968	0	32904	
5969	0	32908	
5970	0	32928	
5971	0	32940	
5972	0	32984	
5973	0	32920	
5974	0	32848	
5975	0	32868	
5976	0	32880	
5977	0	32872	
5978	0	32880	
5979	0	32848	
5980	0	32800	
5981	0	32772	
5982	0	32684	
5983	0	32648	
5984	0	32676	
5985	0	32610	
5986	0	32624	
5987	0	32660	
5988	0	32656	
5989	0	32684	
5990	0	32704	
5991	0	32732	
5992	0	32688	
5993	0	32688	
5994	0	32672	
5995	0	32684	
5996	0	32756	
5997	0	32824	
5998	0	32824	
5999	0	32792	
6000	0	32728	
6001	0	32608	
6002	0	32580	
6003	0	32588	
6004	0	32616	
6005	0	32632	
6006	0	32596	
6007	0	32576	
6008	0	32576	
6009	0	32584	
6010	0	32584	
6011	0	32556	
6012	0	32520	
6013	0	32532	
6014	0	32548	
6015	0	32652	
6016	0	32756	
6017	0	32808	
6018	0	32864	
6019	0	32970	
6020	0	33168	
6021	0	33276	
6022	0	33376	
6023	0	33516	
6024	0	33684	
6025	0	33912	
6026	0	34160	
6027	0	34344	
6028	0	34484	
6029	0	34568	
6030	0	34592	
6031	0	34600	
6032	0	34584	
6033	0	34552	
6034	0	34560	
6035	0	34560	
6036	0	34556	
6037	0	34528	
6038	0	34500	
6039	0	34484	
6040	0	34484	
6041	0	34480	
6042	0	34512	
6043	0	34584	
6044	0	34696	
6045	0	34888	
6046	0	35168	
6047	0	35496	
6048	0	35848	
6049	0	36204	
6050	0	36600	
6051	0	36880	
6052	0	37112	
6053	0	37300	
6054	0	37344	
6055	0	37412	
6056	0	37408	
6057	0	37376	
6058	0	37284	
6059	0	37312	
6060	0	37224	
6061	0	37136	
6062	0	37008	
6063	0	36808	
6064	0	36648	
6065	0	36440	
6066	0	36288	
6067	0	36160	
6068	0	36068	
6069	0	36080	
6070	0	36160	
6071	0	36156	
6072	0	36056	
6073	0	36012	
6074	0	35936	
6075	0	35836	
6076	0	35656	
6077	0	35516	
6078	0	35380	
6079	0	35180	
6080	0	34912	
6081	0	34632	
6082	0	34272	
6083	0	33892	
6084	0	33544	
6085	0	33136	
6086	0	32634	
6087	0	32212	
6088	0	31800	
6089	0	31472	
6090	0	31256	
6091	0	31084	
6092	0	30968	
6093	0	30840	
6094	0	30684	
6095	0	30620	
6096	0	30560	
6097	0	30460	
6098	0	30352	
6099	0	30240	
6100	0	30104	
6101	0	29946	
6102	0	29808	
6103	0	29776	
6104	0	29768	
6105	0	29776	
6106	0	29792	
6107	0	29752	
6108	0	29728	
6109	0	29676	
6110	0	29688	
6111	0	29728	
6112	0	29728	
6113	0	29716	
6114	0	29704	
6115	0	29712	
6116	0	29728	
6117	0	29712	
6118	0	29708	
6119	0	29764	
6120	0	29852	
6121	0	29892	
6122	0	29916	
6123	0	29956	
6124	0	29956	
6125	0	29892	
6126	0	29848	
6127	0	29860	
6128	0	29832	
6129	0	29824	
6130	0	29900	
6131	0	29920	
6132	0	29952	
6133	0	30016	
6134	0	30044	
6135	0	30080	
6136	0	30080	
6137	0	30072	
6138	0	30052	
6139	0	29940	
6140	0	29756	
6141	0	29480	
6142	0	28972	
6143	0	28194	
6144	0	27294	
6145	0	26300	
6146	0	25218	
6147	0	24312	
6148	0	23464	
6149	0	22728	
6150	0	22244	
6151	0	21994	
6152	0	22020	
6153	0	22380	
6154	0	22970	
6155	0	23692	
6156	0	24560	
6157	0	25864	
6158	0	27776	
6159	0	30154	
6160	0	32892	
6161	0	35804	
6162	0	39080	
6163	0	42608	
6164	0	46636	
6165	0	51044	
6166	0	55592	
6167	0	59972	
6168	0	62580	
6169	0	63960	
6170	0	64680	
6171	0	64992	
6172	0	65116	
6173	0	65128	
6174	0	65058	
6175	0	64984	
6176	0	64868	
6177	0	64744	
6178	0	64648	
6179	0	63392	
6180	0	56160	
6181	0	50272	
6182	0	45664	
6183	0	41208	
6184	0	36512	
6185	0	32084	
6186	0	28346	
6187	0	25240	
6188	0	22432	
6189	0	20054	
6190	0	18230	
6191	0	16858	
6192	0	15862	
6193	0	15272	
6194	0	14812	
6195	0	14484	
6196	0	14230	
6197	0	14164	
6198	0	14368	
6199	0	14772	
6200	0	15272	
6201	0	15886	
6202	0	16644	
6203	0	17322	
6204	0	18012	
6205	0	18724	
6206	0	19344	
6207	0	19980	
6208	0	20624	
6209	0	21192	
6210	0	21740	
6211	0	22404	
6212	0	23056	
6213	0	23756	
6214	0	24448	
6215	0	25100	
6216	0	25676	
6217	0	26168	
6218	0	26592	
6219	0	26900	
6220	0	27224	
6221	0	27504	
6222	0	27712	
6223	0	27882	
6224	0	28056	
6225	0	28180	
6226	0	28232	
6227	0	28332	
6228	0	28442	
6229	0	28520	
6230	0	28600	
6231	0	28740	
6232	0	28844	
6233	0	28884	
6234	0	28936	
6235	0	29024	
6236	0	29088	
6237	0	29132	
6238	0	29230	
6239	0	29304	
6240	0	29364	
6241	0	29416	
6242	0	29472	
6243	0	29536	
6244	0	29632	
6245	0	29648	
6246	0	29708	
6247	0	29764	
6248	0	29856	
6249	0	29956	
6250	0	30036	
6251	0	30068	
6252	0	30112	
6253	0	30168	
6254	0	30216	
6255	0	30272	
6256	0	30312	
6257	0	30316	
6258	0	30324	
6259	0	30300	
6260	0	30300	
6261	0	30304	
6262	0	30368	
6263	0	30514	
6264	0	30632	
6265	0	30696	
6266	0	30744	
6267	0	30760	
6268	0	30804	
6269	0	30852	
6270	0	30832	
6271	0	30864	
6272	0	30920	
6273	0	30944	
6274	0	30998	
6275	0	31032	
6276	0	31084	
6277	0	31140	
6278	0	31192	
6279	0	31252	
6280	0	31180	
6281	0	31120	
6282	0	31138	
6283	0	31176	
6284	0	31276	
6285	0	31364	
6286	0	31412	
6287	0	31420	
6288	0	31376	
6289	0	31384	
6290	0	31408	
6291	0	31412	
6292	0	31424	
6293	0	31480	
6294	0	31548	
6295	0	31584	
6296	0	31580	
6297	0	31576	
6298	0	31584	
6299	0	31592	
6300	0	31632	
6301	0	31732	
6302	0	31762	
6303	0	31768	
6304	0	31740	
6305	0	31716	
6306	0	31744	
6307	0	31788	
6308	0	31800	
6309	0	31812	
6310	0	31852	
6311	0	31872	
6312	0	31900	
6313	0	31956	
6314	0	31996	
6315	0	31984	
6316	0	32000	
6317	0	32032	
6318	0	32024	
6319	0	31982	
6320	0	32000	
6321	0	32040	
6322	0	32032	
6323	0	32064	
6324	0	32164	
6325	0	32180	
6326	0	32164	
6327	0	32208	
6328	0	32236	
6329	0	32284	
6330	0	32332	
6331	0	32340	
6332	0	32360	
6333	0	32412	
6334	0	32436	
6335	0	32430	
6336	0	32488	
6337	0	32552	
6338	0	32600	
6339	0	32624	
6340	0	32616	
6341	0	32576	
6342	0	32512	
6343	0	32536	
6344	0	32580	
6345	0	32612	
6346	0	32664	
6347	0	32708	
6348	0	32788	
6349	0	32820	
6350	0	32824	
6351	0	32854	
6352	0	32864	
6353	0	32864	
6354	0	32900	
6355	0	32960	
6356	0	32988	
6357	0	32954	
6358	0	32916	
6359	0	32976	
6360	0	33024	
6361	0	33072	
6362	0	33104	
6363	0	33080	
6364	0	33076	
6365	0	33052	
6366	0	33068	
6367	0	33136	
6368	0	33236	
6369	0	33292	
6370	0	33280	
6371	0	33216	
6372	0	33272	
6373	0	33392	
6374	0	33436	
6375	0	33428	
6376	0	33440	
6377	0	33472	
6378	0	33524	
6379	0	33548	
6380	0	33552	
6381	0	33500	
6382	0	33456	
6383	0	33472	
6384	0	33560	
6385	0	33556	
6386	0	33492	
6387	0	33448	
6388	0	33416	
6389	0	33408	
6390	0	33380	
6391	0	33356	
6392	0	33392	
6393	0	33368	
6394	0	33340	
6395	0	33392	
6396	0	33464	
6397	0	33448	
6398	0	33410	
6399	0	33380	
6400	0	33388	
6401	0	33384	
6402	0	33332	
6403	0	33264	
6404	0	33344	
6405	0	33364	
6406	0	33396	
6407	0	33508	
6408	0	33536	
6409	0	33480	
6410	0	33400	
6411	0	33324	
6412	0	33300	
6413	0	33280	
6414	0	33234	
6415	0	33186	
6416	0	33208	
6417	0	33144	
6418	0	33076	
6419	0	33032	
6420	0	32952	
6421	0	32824	
6422	0	32728	
6423	0	32628	
6424	0	32548	
6425	0	32468	
6426	0	32392	
6427	0	32320	
6428	0	32248	
6429	0	32196	
6430	0	32184	
6431	0	32136	
6432	0	32096	
6433	0	32048	
6434	0	31944	
6435	0	31880	
6436	0	31880	
6437	0	31848	
6438	0	31808	
6439	0	31720	
6440	0	31626	
6441	0	31562	
6442	0	31528	
6443	0	31540	
6444	0	31536	
6445	0	31488	
6446	0	31444	
6447	0	31388	
6448	0	31328	
6449	0	31324	
6450	0	31264	
6451	0	31196	
6452	0	31164	
6453	0	31152	
6454	0	31136	
6455	0	31120	
6456	0	31096	
6457	0	31036	
6458	0	30992	
6459	0	31020	
6460	0	30992	
6461	0	30952	
6462	0	30908	
6463	0	30912	
6464	0	30984	
6465	0	30904	
6466	0	30804	
6467	0	30808	
6468	0	30844	
6469	0	30804	
6470	0	30762	
6471	0	30800	
6472	0	30824	
6473	0	30816	
6474	0	30768	
6475	0	30732	
6476	0	30716	
6477	0	30608	
6478	0	30644	
6479	0	30722	
6480	0	30768	
6481	0	30832	
6482	0	30820	
6483	0	30760	
6484	0	30688	
6485	0	30700	
6486	0	30712	
6487	0	30696	
6488	0	30636	
6489	0	30648	
6490	0	30690	
6491	0	30714	
6492	0	30728	
6493	0	30736	
6494	0	30716	
6495	0	30712	
6496	0	30724	
6497	0	30752	
6498	0	30798	
6499	0	30808	
6500	0	30824	
6501	0	30868	
6502	0	30872	
6503	0	30866	
6504	0	30824	
6505	0	30816	
6506	0	30880	
6507	0	30936	
6508	0	31004	
6509	0	31036	
6510	0	31064	
6511	0	31060	
6512	0	31028	
6513	0	31028	
6514	0	31080	
6515	0	31136	
6516	0	31164	
6517	0	31208	
6518	0	31256	
6519	0	31264	
6520	0	31292	
6521	0	31316	
6522	0	31348	
6523	0	31400	
6524	0	31476	
6525	0	31508	
6526	0	31556	
6527	0	31580	
6528	0	31588	
6529	0	31520	
6530	0	31520	
6531	0	31612	
6532	0	31664	
6533	0	31678	
6534	0	31664	
6535	0	31668	
6536	0	31752	
6537	0	31820	
6538	0	31876	
6539	0	31884	
6540	0	31904	
6541	0	31936	
6542	0	31956	
6543	0	31944	
6544	0	31972	
6545	0	31966	
6546	0	31964	
6547	0	31908	
6548	0	31920	
6549	0	32020	
6550	0	32004	
6551	0	32000	
6552	0	32048	
6553	0	32064	
6554	0	32160	
6555	0	32236	
6556	0	32184	
6557	0	32140	
6558	0	32164	
6559	0	32184	
6560	0	32204	
6561	0	32224	
6562	0	32192	
6563	0	32196	
6564	0	32208	
6565	0	32304	
6566	0	32380	
6567	0	32416	
6568	0	32432	
6569	0	32424	
6570	0	32432	
6571	0	32424	
6572	0	32428	
6573	0	32408	
6574	0	32362	
6575	0	32324	
6576	0	32304	
6577	0	32288	
6578	0	32272	
6579	0	32304	
6580	0	32352	
6581	0	32416	
6582	0	32392	
6583	0	32368	
6584	0	32384	
6585	0	32424	
6586	0	32420	
6587	0	32412	
6588	0	32416	
6589	0	32360	
6590	0	32272	
6591	0	32192	
6592	0	32180	
6593	0	32200	
6594	0	32188	
6595	0	32242	
6596	0	32288	
6597	0	32300	
6598	0	32282	
6599	0	32256	
6600	0	32248	
6601	0	32264	
6602	0	32240	
6603	0	32248	
6604	0	32288	
6605	0	32248	
6606	0	32200	
6607	0	32160	
6608	0	32120	
6609	0	32068	
6610	0	32036	
6611	0	32008	
6612	0	32016	
6613	0	32048	
6614	0	32048	
6615	0	32000	
6616	0	31988	
6617	0	32020	
6618	0	32042	
6619	0	32020	
6620	0	31992	
6621	0	32000	
6622	0	32044	
6623	0	32066	
6624	0	32040	
6625	0	31992	
6626	0	31962	
6627	0	31952	
6628	0	31956	
6629	0	31962	
6630	0	31944	
6631	0	31868	
6632	0	31824	
6633	0	31900	
6634	0	31936	
6635	0	31944	
6636	0	31936	
6637	0	31906	
6638	0	31880	
6639	0	31900	
6640	0	31880	
6641	0	31868	
6642	0	31866	
6643	0	31840	
6644	0	31832	
6645	0	31832	
6646	0	31824	
6647	0	31788	
6648	0	31744	
6649	0	31696	
6650	0	31714	
6651	0	31764	
6652	0	31800	
6653	0	31770	
6654	0	31732	
6655	0	31736	
6656	0	31764	
6657	0	31772	
6658	0	31764	
6659	0	31778	
6660	0	31776	
6661	0	31796	
6662	0	31808	
6663	0	31784	
6664	0	31740	
6665	0	31720	
6666	0	31748	
6667	0	31726	
6668	0	31716	
6669	0	31716	
6670	0	31700	
6671	0	31666	
6672	0	31624	
6673	0	31684	
6674	0	31740	
6675	0	31754	
6676	0	31776	
6677	0	31832	
6678	0	31952	
6679	0	32124	
6680	0	32224	
6681	0	32280	
6682	0	32364	
6683	0	32500	
6684	0	32652	
6685	0	32832	
6686	0	33010	
6687	0	33172	
6688	0	33328	
6689	0	33516	
6690	0	33680	
6691	0	33804	
6692	0	33868	
6693	0	33920	
6694	0	33992	
6695	0	34032	
6696	0	33978	
6697	0	33960	
6698	0	33968	
6699	0	33950	
6700	0	33928	
6701	0	33988	
6702	0	34024	
6703	0	33992	
6704	0	33904	
6705	0	33880	
6706	0	33916	
6707	0	34008	
6708	0	34300	
6709	0	34688	
6710	0	35056	
6711	0	35424	
6712	0	35784	
6713	0	36080	
6714	0	36322	
6715	0	36492	
6716	0	36640	
6717	0	36704	
6718	0	36720	
6719	0	36696	
6720	0	36640	
6721	0	36608	
6722	0	36576	
6723	0	36508	
6724	0	36416	
6725	0	36224	
6726	0	36036	
6727	0	35888	
6728	0	35780	
6729	0	35680	
6730	0	35612	
6731	0	35584	
6732	0	35568	
6733	0	35560	
6734	0	35568	
6735	0	35544	
6736	0	35496	
6737	0	35408	
6738	0	35336	
6739	0	35264	
6740	0	35142	
6741	0	34912	
6742	0	34640	
6743	0	34402	
6744	0	34114	
6745	0	33740	
6746	0	33368	
6747	0	33008	
6748	0	32540	
6749	0	32108	
6750	0	31736	
6751	0	31456	
6752	0	31240	
6753	0	31072	
6754	0	30880	
6755	0	30720	
6756	0	30542	
6757	0	30384	
6758	0	30292	
6759	0	30276	
6760	0	30196	
6761	0	30116	
6762	0	29976	
6763	0	29912	
6764	0	29820	
6765	0	29728	
6766	0	29690	
6767	0	29716	
6768	0	29760	
6769	0	29760	
6770	0	29728	
6771	0	29708	
6772	0	29680	
6773	0	29656	
6774	0	29704	
6775	0	29708	
6776	0	29668	
6777	0	29664	
6778	0	29678	
6779	0	29736	
6780	0	29808	
6781	0	29898	
6782	0	29912	
6783	0	29856	
6784	0	29852	
6785	0	29828	
6786	0	29856	
6787	0	29960	
6788	0	30040	
6789	0	30100	
6790	0	30144	
6791	0	30148	
6792	0	30092	
6793	0	30096	
6794	0	30120	
6795	0	30128	
6796	0	30122	
6797	0	30136	
6798	0	30154	
6799	0	30140	
6800	0	30104	
6801	0	30026	
6802	0	29912	
6803	0	29640	
6804	0	29152	
6805	0	28392	
6806	0	27496	
6807	0	26504	
6808	0	25448	
6809	0	24428	
6810	0	23537	
6811	0	22818	
6812	0	22368	
6813	0	22212	
6814	0	22260	
6815	0	22620	
6816	0	23264	
6817	0	24024	
6818	0	24836	
6819	0	26040	
6820	0	27844	
6821	0	30064	
6822	0	32672	
6823	0	35548	
6824	0	38792	
6825	0	42244	
6826	0	46052	
6827	0	50252	
6828	0	54588	
6829	0	59120	
6830	0	63000	
6831	0	65176	
6832	0	65535	
6833	0	65535	
6834	0	65535	
6835	0	65535	
6836	0	65535	
6837	0	65535	
6838	0	65535	
6839	0	65535	
6840	0	65535	
6841	0	65535	
6842	0	57528	
6843	0	51660	
6844	0	47032	
6845	0	42680	
6846	0	38170	
6847	0	33816	
6848	0	30140	
6849	0	27172	
6850	0	24504	
6851	0	22076	
6852	0	20146	
6853	0	18652	
6854	0	17464	
6855	0	16680	
6856	0	16084	
6857	0	15644	
6858	0	15273	
6859	0	15042	
6860	0	15011	
6861	0	15136	
6862	0	15384	
6863	0	15950	
6864	0	16724	
6865	0	17481	
6866	0	18200	
6867	0	18876	
6868	0	19568	
6869	0	20264	
6870	0	20914	
6871	0	21516	
6872	0	22142	
6873	0	22805	
6874	0	23546	
6875	0	24268	
6876	0	25002	
6877	0	25568	
6878	0	26120	
6879	0	26640	
6880	0	27056	
6881	0	27448	
6882	0	27764	
6883	0	27988	
6884	0	28152	
6885	0	28332	
6886	0	28548	
6887	0	28716	
6888	0	28846	
6889	0	28936	
6890	0	29000	
6891	0	29124	
6892	0	29256	
6893	0	29372	
6894	0	29458	
6895	0	29518	
6896	0	29592	
6897	0	29644	
6898	0	29716	
6899	0	29808	
6900	0	29880	
6901	0	29880	
6902	0	29852	
6903	0	29968	
6904	0	30096	
6905	0	30248	
6906	0	30368	
6907	0	30444	
6908	0	30508	
6909	0	30588	
6910	0	30660	
6911	0	30700	
6912	0	30748	
6913	0	30772	
6914	0	30820	
6915	0	30892	
6916	0	30929	
6917	0	30960	
6918	0	31028	
6919	0	31114	
6920	0	31240	
6921	0	31284	
6922	0	31264	
6923	0	31244	
6924	0	31272	
6925	0	31348	
6926	0	31456	
6927	0	31520	
6928	0	31548	
6929	0	31616	
6930	0	31652	
6931	0	31688	
6932	0	31752	
6933	0	31746	
6934	0	31750	
6935	0	31760	
6936	0	31812	
6937	0	31864	
6938	0	31908	
6939	0	31940	
6940	0	31972	
6941	0	32064	
6942	0	32136	
6943	0	32136	
6944	0	32136	
6945	0	32136	
6946	0	32124	
6947	0	32152	
6948	0	32200	
6949	0	32272	
6950	0	32336	
6951	0	32332	
6952	0	32336	
6953	0	32488	
6954	0	32565	
6955	0	32596	
6956	0	32612	
6957	0	32604	
6958	0	32644	
6959	0	32648	
6960	0	32636	
6961	0	32656	
6962	0	32744	
6963	0	32856	
6964	0	32920	
6965	0	32880	
6966	0	32824	
6967	0	32852	
6968	0	32928	
6969	0	32968	
6970	0	33004	
6971	0	33032	
6972	0	33064	
6973	0	33108	
6974	0	33124	
6975	0	33152	
6976	0	33188	
6977	0	33180	
6978	0	33188	
6979	0	33236	
6980	0	33320	
6981	0	33404	
6982	0	33468	
6983	0	33504	
6984	0	33524	
6985	0	33508	
6986	0	33532	
6987	0	33544	
6988	0	33572	
6989	0	33596	
6990	0	33624	
6991	0	33616	
6992	0	33632	
6993	0	33680	
6994	0	33724	
6995	0	33712	
6996	0	33716	
6997	0	33760	
6998	0	33828	
6999	0	33880	
7000	0	33936	
7001	0	33928	
7002	0	33932	
7003	0	33952	
7004	0	33984	
7005	0	33992	
7006	0	34002	
7007	0	34052	
7008	0	34096	
7009	0	34124	
7010	0	34132	
7011	0	34140	
7012	0	34136	
7013	0	34140	
7014	0	34128	
7015	0	34140	
7016	0	34148	
7017	0	34168	
7018	0	34236	
7019	0	34292	
7020	0	34300	
7021	0	34292	
7022	0	34268	
7023	0	34240	
7024	0	34272	
7025	0	34240	
7026	0	34188	
7027	0	34192	
7028	0	34212	
7029	0	34212	
7030	0	34160	
7031	0	34260	
7032	0	34324	
7033	0	34392	
7034	0	34424	
7035	0	34434	
7036	0	34476	
7037	0	34520	
7038	0	34496	
7039	0	34448	
7040	0	34464	
7041	0	34504	
7042	0	34536	
7043	0	34568	
7044	0	34624	
7045	0	34608	
7046	0	34530	
7047	0	34472	
7048	0	34472	
7049	0	34480	
7050	0	34464	
7051	0	34446	
7052	0	34460	
7053	0	34488	
7054	0	34538	
7055	0	34576	
7056	0	34552	
7057	0	34540	
7058	0	34552	
7059	0	34548	
7060	0	34540	
7061	0	34516	
7062	0	34504	
7063	0	34552	
7064	0	34628	
7065	0	34686	
7066	0	34736	
7067	0	34760	
7068	0	34776	
7069	0	34808	
7070	0	34808	
7071	0	34840	
7072	0	34856	
7073	0	34856	
7074	0	34852	
7075	0	34840	
7076	0	34832	
7077	0	34848	
7078	0	34844	
7079	0	34824	
7080	0	34788	
7081	0	34744	
7082	0	34690	
7083	0	34656	
7084	0	34640	
7085	0	34632	
7086	0	34612	
7087	0	34572	
7088	0	34500	
7089	0	34392	
7090	0	34340	
7091	0	34312	
7092	0	34312	
7093	0	34288	
7094	0	34252	
7095	0	34156	
7096	0	34076	
7097	0	34028	
7098	0	34036	
7099	0	33996	
7100	0	33900	
7101	0	33848	
7102	0	33892	
7103	0	33936	
7104	0	33932	
7105	0	33840	
7106	0	33744	
7107	0	33640	
7108	0	33576	
7109	0	33552	
7110	0	33512	
7111	0	33492	
7112	0	33448	
7113	0	33420	
7114	0	33416	
7115	0	33368	
7116	0	33328	
7117	0	33296	
7118	0	33300	
7119	0	33232	
7120	0	33220	
7121	0	33268	
7122	0	33244	
7123	0	33196	
7124	0	33144	
7125	0	33152	
7126	0	33164	
7127	0	33116	
7128	0	33086	
7129	0	33036	
7130	0	33024	
7131	0	33032	
7132	0	33020	
7133	0	32976	
7134	0	32916	
7135	0	32896	
7136	0	32952	
7137	0	33000	
7138	0	33020	
7139	0	33024	
7140	0	32952	
7141	0	32820	
7142	0	32720	
7143	0	32708	
7144	0	32712	
7145	0	32784	
7146	0	32864	
7147	0	32920	
7148	0	32984	
7149	0	33040	
7150	0	33032	
7151	0	33056	
7152	0	33052	
7153	0	33056	
7154	0	33056	
7155	0	33056	
7156	0	33108	
7157	0	33164	
7158	0	33176	
7159	0	33208	
7160	0	33248	
7161	0	33296	
7162	0	33336	
7163	0	33344	
7164	0	33280	
7165	0	33200	
7166	0	33136	
7167	0	33112	
7168	0	33120	
7169	0	33156	
7170	0	33248	
7171	0	33448	
7172	0	33592	
7173	0	33704	
7174	0	33780	
7175	0	33900	
7176	0	33952	
7177	0	33960	
7178	0	33884	
7179	0	33820	
7180	0	33746	
7181	0	33728	
7182	0	33754	
7183	0	33748	
7184	0	33762	
7185	0	33816	
7186	0	33886	
7187	0	33962	
7188	0	34036	
7189	0	34100	
7190	0	34068	
7191	0	33992	
7192	0	33928	
7193	0	33848	
7194	0	33840	
7195	0	33872	
7196	0	33944	
7197	0	33972	
7198	0	33980	
7199	0	34016	
7200	0	34032	
7201	0	34024	
7202	0	34060	
7203	0	34136	
7204	0	34152	
7205	0	34184	
7206	0	34184	
7207	0	34164	
7208	0	34256	
7209	0	34332	
7210	0	34360	
7211	0	34340	
7212	0	34260	
7213	0	34216	
7214	0	34304	
7215	0	34340	
7216	0	34380	
7217	0	34460	
7218	0	34400	
7219	0	34336	
7220	0	34318	
7221	0	34336	
7222	0	34356	
7223	0	34344	
7224	0	34292	
7225	0	34280	
7226	0	34240	
7227	0	34312	
7228	0	34396	
7229	0	34368	
7230	0	34360	
7231	0	34360	
7232	0	34388	
7233	0	34424	
7234	0	34476	
7235	0	34436	
7236	0	34436	
7237	0	34452	
7238	0	34488	
7239	0	34480	
7240	0	34448	
7241	0	34396	
7242	0	34344	
7243	0	34248	
7244	0	34242	
7245	0	34324	
7246	0	34340	
7247	0	34340	
7248	0	34304	
7249	0	34282	
7250	0	34306	
7251	0	34300	
7252	0	34272	
7253	0	34248	
7254	0	34284	
7255	0	34248	
7256	0	34224	
7257	0	34220	
7258	0	34228	
7259	0	34236	
7260	0	34180	
7261	0	34128	
7262	0	34120	
7263	0	34132	
7264	0	34124	
7265	0	34088	
7266	0	34068	
7267	0	34104	
7268	0	34072	
7269	0	34048	
7270	0	34056	
7271	0	34028	
7272	0	33968	
7273	0	33948	
7274	0	33948	
7275	0	33892	
7276	0	33848	
7277	0	33882	
7278	0	33826	
7279	0	33740	
7280	0	33688	
7281	0	33680	
7282	0	33688	
7283	0	33648	
7284	0	33676	
7285	0	33664	
7286	0	33656	
7287	0	33636	
7288	0	33612	
7289	0	33624	
7290	0	33642	
7291	0	33624	
7292	0	33532	
7293	0	33512	
7294	0	33552	
7295	0	33552	
7296	0	33584	
7297	0	33632	
7298	0	33624	
7299	0	33610	
7300	0	33544	
7301	0	33484	
7302	0	33512	
7303	0	33552	
7304	0	33570	
7305	0	33608	
7306	0	33664	
7307	0	33724	
7308	0	33768	
7309	0	33792	
7310	0	33792	
7311	0	33788	
7312	0	33796	
7313	0	33848	
7314	0	34032	
7315	0	34256	
7316	0	34464	
7317	0	34640	
7318	0	34762	
7319	0	34896	
7320	0	35064	
7321	0	35264	
7322	0	35400	
7323	0	35520	
7324	0	35604	
7325	0	35596	
7326	0	35576	
7327	0	35552	
7328	0	35544	
7329	0	35576	
7330	0	35608	
7331	0	35660	
7332	0	35632	
7333	0	35620	
7334	0	35648	
7335	0	35642	
7336	0	35624	
7337	0	35648	
7338	0	35704	
7339	0	35896	
7340	0	36192	
7341	0	36492	
7342	0	36736	
7343	0	37068	
7344	0	37364	
7345	0	37584	
7346	0	37768	
7347	0	37924	
7348	0	38068	
7349	0	38188	
7350	0	38216	
7351	0	38156	
7352	0	38100	
7353	0	38052	
7354	0	38060	
7355	0	38092	
7356	0	38092	
7357	0	38040	
7358	0	37832	
7359	0	37616	
7360	0	37480	
7361	0	37448	
7362	0	37400	
7363	0	37416	
7364	0	37440	
7365	0	37400	
7366	0	37344	
7367	0	37258	
7368	0	37188	
7369	0	37112	
7370	0	37004	
7371	0	36812	
7372	0	36568	
7373	0	36360	
7374	0	36112	
7375	0	35772	
7376	0	35320	
7377	0	34912	
7378	0	34528	
7379	0	34072	
7380	0	33564	
7381	0	33112	
7382	0	32716	
7383	0	32404	
7384	0	32176	
7385	0	32024	
7386	0	31872	
7387	0	31792	
7388	0	31712	
7389	0	31632	
7390	0	31604	
7391	0	31592	
7392	0	31528	
7393	0	31376	
7394	0	31212	
7395	0	31084	
7396	0	30944	
7397	0	30758	
7398	0	30640	
7399	0	30604	
7400	0	30652	
7401	0	30776	
7402	0	30848	
7403	0	30868	
7404	0	30896	
7405	0	30920	
7406	0	30908	
7407	0	30868	
7408	0	30848	
7409	0	30864	
7410	0	30916	
7411	0	30952	
7412	0	30988	
7413	0	31020	
7414	0	31024	
7415	0	31048	
7416	0	31056	
7417	0	31024	
7418	0	30980	
7419	0	30946	
7420	0	30966	
7421	0	31002	
7422	0	31024	
7423	0	31072	
7424	0	31096	
7425	0	31136	
7426	0	31184	
7427	0	31160	
7428	0	31164	
7429	0	31200	
7430	0	31240	
7431	0	31224	
7432	0	31120	
7433	0	30940	
7434	0	30664	
7435	0	30294	
7436	0	29636	
7437	0	28792	
7438	0	27848	
7439	0	26844	
7440	0	25804	
7441	0	24776	
7442	0	24024	
7443	0	23540	
7444	0	23256	
7445	0	23236	
7446	0	23472	
7447	0	23944	
7448	0	24624	
7449	0	25424	
7450	0	26492	
7451	0	28116	
7452	0	30240	
7453	0	32784	
7454	0	35532	
7455	0	38484	
7456	0	41636	
7457	0	45232	
7458	0	49280	
7459	0	53544	
7460	0	58060	
7461	0	61736	
7462	0	63744	
7463	0	64792	
7464	0	65304	
7465	0	65528	
7466	0	65535	
7467	0	65535	
7468	0	65504	
7469	0	65404	
7470	0	65284	
7471	0	65172	
7472	0	65064	
7473	0	58704	
7474	0	52728	
7475	0	47944	
7476	0	43760	
7477	0	39440	
7478	0	35320	
7479	0	31816	
7480	0	28916	
7481	0	26330	
7482	0	24024	
7483	0	22128	
7484	0	20560	
7485	0	19248	
7486	0	18194	
7487	0	17408	
7488	0	16848	
7489	0	16428	
7490	0	16112	
7491	0	15908	
7492	0	15928	
7493	0	16273	
7494	0	16832	
7495	0	17504	
7496	0	18220	
7497	0	18936	
7498	0	19716	
7499	0	20544	
7500	0	21306	
7501	0	21982	
7502	0	22636	
7503	0	23244	
7504	0	23848	
7505	0	24510	
7506	0	25226	
7507	0	25924	
7508	0	26584	
7509	0	27200	
7510	0	27688	
7511	0	28092	
7512	0	28464	
7513	0	28804	
7514	0	29084	
7515	0	29356	
7516	0	29588	
7517	0	29800	
7518	0	29900	
7519	0	29948	
7520	0	29984	
7521	0	30056	
7522	0	30184	
7523	0	30292	
7524	0	30392	
7525	0	30504	
7526	0	30560	
7527	0	30600	
7528	0	30664	
7529	0	30768	
7530	0	30924	
7531	0	30984	
7532	0	31020	
7533	0	31032	
7534	0	31116	
7535	0	31260	
7536	0	31368	
7537	0	31360	
7538	0	31412	
7539	0	31436	
7540	0	31456	
7541	0	31488	
7542	0	31528	
7543	0	31644	
7544	0	31820	
7545	0	31936	
7546	0	32024	
7547	0	32068	
7548	0	32080	
7549	0	32148	
7550	0	32228	
7551	0	32232	
7552	0	32180	
7553	0	32184	
7554	0	32180	
7555	0	32160	
7556	0	32252	
7557	0	32380	
7558	0	32488	
7559	0	32568	
7560	0	32592	
7561	0	32668	
7562	0	32752	
7563	0	32764	
7564	0	32720	
7565	0	32744	
7566	0	32776	
7567	0	32800	
7568	0	32800	
7569	0	32792	
7570	0	32864	
7571	0	32944	
7572	0	33028	
7573	0	33066	
7574	0	33152	
7575	0	33220	
7576	0	33248	
7577	0	33236	
7578	0	33204	
7579	0	33224	
7580	0	33280	
7581	0	33340	
7582	0	33384	
7583	0	33388	
7584	0	33400	
7585	0	33420	
7586	0	33464	
7587	0	33504	
7588	0	33536	
7589	0	33546	
7590	0	33580	
7591	0	33592	
7592	0	33624	
7593	0	33624	
7594	0	33656	
7595	0	33724	
7596	0	33788	
7597	0	33852	
7598	0	33920	
7599	0	33948	
7600	0	33956	
7601	0	33964	
7602	0	33944	
7603	0	33904	
7604	0	33872	
7605	0	33888	
7606	0	33936	
7607	0	33984	
7608	0	34048	
7609	0	34060	
7610	0	34072	
7611	0	34108	
7612	0	34152	
7613	0	34152	
7614	0	34200	
7615	0	34236	
7616	0	34276	
7617	0	34324	
7618	0	34348	
7619	0	34348	
7620	0	34374	
7621	0	34336	
7622	0	34348	
7623	0	34416	
7624	0	34480	
7625	0	34496	
7626	0	34460	
7627	0	34496	
7628	0	34512	
7629	0	34500	
7630	0	34490	
7631	0	34492	
7632	0	34440	
7633	0	34396	
7634	0	34428	
7635	0	34424	
7636	0	34440	
7637	0	34452	
7638	0	34436	
7639	0	34420	
7640	0	34424	
7641	0	34408	
7642	0	34408	
7643	0	34410	
7644	0	34384	
7645	0	34404	
7646	0	34460	
7647	0	34448	
7648	0	34424	
7649	0	34464	
7650	0	34476	
7651	0	34488	
7652	0	34504	
7653	0	34448	
7654	0	34400	
7655	0	34428	
7656	0	34456	
7657	0	34504	
7658	0	34528	
7659	0	34436	
7660	0	34476	
7661	0	34544	
7662	0	34528	
7663	0	34536	
7664	0	34528	
7665	0	34540	
7666	0	34512	
7667	0	34476	
7668	0	34410	
7669	0	34368	
7670	0	34388	
7671	0	34396	
7672	0	34312	
7673	0	34284	
7674	0	34304	
7675	0	34288	
7676	0	34272	
7677	0	34248	
7678	0	34256	
7679	0	34216	
7680	0	34244	
7681	0	34288	
7682	0	34298	
7683	0	34272	
7684	0	34256	
7685	0	34256	
7686	0	34248	
7687	0	34288	
7688	0	34296	
7689	0	34296	
7690	0	34352	
7691	0	34380	
7692	0	34400	
7693	0	34426	
7694	0	34460	
7695	0	34496	
7696	0	34564	
7697	0	34576	
7698	0	34592	
7699	0	34612	
7700	0	34640	
7701	0	34648	
7702	0	34700	
7703	0	34720	
7704	0	34732	
7705	0	34712	
7706	0	34713	
7707	0	34716	
7708	0	34720	
7709	0	34736	
7710	0	34744	
7711	0	34688	
7712	0	34616	
7713	0	34564	
7714	0	34536	
7715	0	34524	
7716	0	34496	
7717	0	34452	
7718	0	34400	
7719	0	34384	
7720	0	34312	
7721	0	34288	
7722	0	34276	
7723	0	34189	
7724	0	34096	
7725	0	34080	
7726	0	34040	
7727	0	33996	
7728	0	33956	
7729	0	33936	
7730	0	33940	
7731	0	33948	
7732	0	33946	
7733	0	33944	
7734	0	33932	
7735	0	33912	
7736	0	33876	
7737	0	33780	
7738	0	33696	
7739	0	33658	
7740	0	33596	
7741	0	33552	
7742	0	33508	
7743	0	33452	
7744	0	33424	
7745	0	33428	
7746	0	33384	
7747	0	33320	
7748	0	33284	
7749	0	33240	
7750	0	33208	
7751	0	33192	
7752	0	33178	
7753	0	33168	
7754	0	33140	
7755	0	33152	
7756	0	33096	
7757	0	33024	
7758	0	32954	
7759	0	32916	
7760	0	32928	
7761	0	32898	
7762	0	32860	
7763	0	32864	
7764	0	32864	
7765	0	32836	
7766	0	32856	
7767	0	32808	
7768	0	32780	
7769	0	32776	
7770	0	32774	
7771	0	32776	
7772	0	32756	
7773	0	32768	
7774	0	32712	
7775	0	32724	
7776	0	32724	
7777	0	32776	
7778	0	32828	
7779	0	32824	
7780	0	32800	
7781	0	32804	
7782	0	32828	
7783	0	32864	
7784	0	32886	
7785	0	32912	
7786	0	32952	
7787	0	32964	
7788	0	33008	
7789	0	33056	
7790	0	33072	
7791	0	33064	
7792	0	33060	
7793	0	33060	
7794	0	33108	
7795	0	33128	
7796	0	33184	
7797	0	33224	
7798	0	33258	
7799	0	33284	
7800	0	33232	
7801	0	33298	
7802	0	33380	
7803	0	33440	
7804	0	33504	
7805	0	33524	
7806	0	33512	
7807	0	33498	
7808	0	33500	
7809	0	33536	
7810	0	33572	
7811	0	33600	
7812	0	33644	
7813	0	33736	
7814	0	33824	
7815	0	33780	
7816	0	33706	
7817	0	33722	
7818	0	33740	
7819	0	33760	
7820	0	33768	
7821	0	33808	
7822	0	33848	
7823	0	33848	
7824	0	33844	
7825	0	33876	
7826	0	33976	
7827	0	34028	
7828	0	34008	
7829	0	33972	
7830	0	33936	
7831	0	33952	
7832	0	34012	
7833	0	34036	
7834	0	34044	
7835	0	34060	
7836	0	34088	
7837	0	34090	
7838	0	34112	
7839	0	34144	
7840	0	34174	
7841	0	34172	
7842	0	34176	
7843	0	34176	
7844	0	34196	
7845	0	34208	
7846	0	34216	
7847	0	34224	
7848	0	34216	
7849	0	34188	
7850	0	34160	
7851	0	34140	
7852	0	34152	
7853	0	34192	
7854	0	34236	
7855	0	34232	
7856	0	34260	
7857	0	34300	
7858	0	34324	
7859	0	34352	
7860	0	34336	
7861	0	34332	
7862	0	34286	
7863	0	34224	
7864	0	34250	
7865	0	34240	
7866	0	34224	
7867	0	34200	
7868	0	34196	
7869	0	34136	
7870	0	34058	
7871	0	33992	
7872	0	34080	
7873	0	34144	
7874	0	34156	
7875	0	34120	
7876	0	34084	
7877	0	34016	
7878	0	33964	
7879	0	33968	
7880	0	33952	
7881	0	33984	
7882	0	33952	
7883	0	33994	
7884	0	34020	
7885	0	34140	
7886	0	34204	
7887	0	34264	
7888	0	34292	
7889	0	34368	
7890	0	34516	
7891	0	34672	
7892	0	34764	
7893	0	34876	
7894	0	34976	
7895	0	35108	
7896	0	35244	
7897	0	35384	
7898	0	35520	
7899	0	35616	
7900	0	35680	
7901	0	35668	
7902	0	35628	
7903	0	35596	
7904	0	35560	
7905	0	35572	
7906	0	35592	
7907	0	35568	
7908	0	35468	
7909	0	35420	
7910	0	35432	
7911	0	35460	
7912	0	35488	
7913	0	35540	
7914	0	35664	
7915	0	35872	
7916	0	36176	
7917	0	36452	
7918	0	36724	
7919	0	37032	
7920	0	37364	
7921	0	37632	
7922	0	37872	
7923	0	38040	
7924	0	38104	
7925	0	38128	
7926	0	38104	
7927	0	38036	
7928	0	37948	
7929	0	37872	
7930	0	37800	
7931	0	37724	
7932	0	37632	
7933	0	37568	
7934	0	37440	
7935	0	37280	
7936	0	37152	
7937	0	37084	
7938	0	37048	
7939	0	37056	
7940	0	37068	
7941	0	37064	
7942	0	37008	
7943	0	36932	
7944	0	36784	
7945	0	36592	
7946	0	36424	
7947	0	36260	
7948	0	36076	
7949	0	35888	
7950	0	35680	
7951	0	35400	
7952	0	35028	
7953	0	34672	
7954	0	34280	
7955	0	33860	
7956	0	33376	
7957	0	32924	
7958	0	32528	
7959	0	32184	
7960	0	31916	
7961	0	31680	
7962	0	31472	
7963	0	31388	
7964	0	31310	
7965	0	31252	
7966	0	31200	
7967	0	31064	
7968	0	30936	
7969	0	30792	
7970	0	30652	
7971	0	30498	
7972	0	30362	
7973	0	30284	
7974	0	30228	
7975	0	30196	
7976	0	30148	
7977	0	30144	
7978	0	30136	
7979	0	30168	
7980	0	30208	
7981	0	30236	
7982	0	30268	
7983	0	30288	
7984	0	30342	
7985	0	30392	
7986	0	30440	
7987	0	30460	
7988	0	30442	
7989	0	30432	
7990	0	30420	
7991	0	30400	
7992	0	30416	
7993	0	30433	
7994	0	30432	
7995	0	30468	
7996	0	30480	
7997	0	30492	
7998	0	30512	
7999	0	30488	
8000	0	30496	
8001	0	30476	
8002	0	30484	
8003	0	30476	
8004	0	30500	
8005	0	30520	
8006	0	30552	
8007	0	30548	
8008	0	30484	
8009	0	30284	
8010	0	30012	
8011	0	29644	
8012	0	29040	
8013	0	28192	
8014	0	27200	
8015	0	26144	
8016	0	25092	
8017	0	24126	
8018	0	23332	
8019	0	22744	
8020	0	22364	
8021	0	22184	
8022	0	22344	
8023	0	22804	
8024	0	23460	
8025	0	24226	
8026	0	25172	
8027	0	26632	
8028	0	28656	
8029	0	31108	
8030	0	33804	
8031	0	36688	
8032	0	39872	
8033	0	43308	
8034	0	47228	
8035	0	51404	
8036	0	55840	
8037	0	59736	
8038	0	61936	
8039	0	63104	
8040	0	63668	
8041	0	63924	
8042	0	64008	
8043	0	64004	
8044	0	63936	
8045	0	63864	
8046	0	63760	
8047	0	63648	
8048	0	63552	
8049	0	59524	
8050	0	53376	
8051	0	48424	
8052	0	44140	
8053	0	39732	
8054	0	35412	
8055	0	31748	
8056	0	28772	
8057	0	26200	
8058	0	23953	
8059	0	22080	
8060	0	20580	
8061	0	19356	
8062	0	18376	
8063	0	17584	
8064	0	17008	
8065	0	16532	
8066	0	16156	
8067	0	15840	
8068	0	15796	
8069	0	16092	
8070	0	16626	
8071	0	17268	
8072	0	17980	
8073	0	18712	
8074	0	19520	
8075	0	20304	
8076	0	21024	
8077	0	21752	
8078	0	22440	
8079	0	23104	
8080	0	23768	
8081	0	24448	
8082	0	25160	
8083	0	25844	
8084	0	26452	
8085	0	27020	
8086	0	27524	
8087	0	27936	
8088	0	28324	
8089	0	28722	
8090	0	28996	
8091	0	29178	
8092	0	29344	
8093	0	29480	
8094	0	29568	
8095	0	29648	
8096	0	29716	
8097	0	29776	
8098	0	29826	
8099	0	29888	
8100	0	29956	
8101	0	30048	
8102	0	30088	
8103	0	30144	
8104	0	30180	
8105	0	30228	
8106	0	30332	
8107	0	30416	
8108	0	30512	
8109	0	30608	
8110	0	30668	
8111	0	30676	
8112	0	30692	
8113	0	30720	
8114	0	30772	
8115	0	30808	
8116	0	30864	
8117	0	30928	
8118	0	30988	
8119	0	31056	
8120	0	31096	
8121	0	31152	
8122	0	31220	
8123	0	31300	
8124	0	31380	
8125	0	31428	
8126	0	31488	
8127	0	31508	
8128	0	31564	
8129	0	31616	
8130	0	31668	
8131	0	31704	
8132	0	31736	
8133	0	31812	
8134	0	31896	
8135	0	31968	
8136	0	32020	
8137	0	32024	
8138	0	32020	
8139	0	32040	
8140	0	32104	
8141	0	32160	
8142	0	32224	
8143	0	32316	
8144	0	32384	
8145	0	32412	
8146	0	32408	
8147	0	32400	
8148	0	32410	
8149	0	32448	
8150	0	32554	
8151	0	32664	
8152	0	32708	
8153	0	32752	
8154	0	32824	
8155	0	32860	
8156	0	32874	
8157	0	32868	
8158	0	32856	
8159	0	32900	
8160	0	32884	
8161	0	32916	
8162	0	32884	
8163	0	32896	
8164	0	32936	
8165	0	32952	
8166	0	32972	
8167	0	33044	
8168	0	33026	
8169	0	33060	
8170	0	33096	
8171	0	33108	
8172	0	33108	
8173	0	33104	
8174	0	33104	
8175	0	33132	
8176	0	33232	
8177	0	33320	
8178	0	33358	
8179	0	33388	
8180	0	33408	
8181	0	33412	
8182	0	33408	
8183	0	33460	
8184	0	33456	
8185	0	33452	
8186	0	33472	
8187	0	33492	
8188	0	33524	
8189	0	33536	
8190	0	33536	
8191	0	33538	
8192	0	33508	
8193	0	33520	
8194	0	33572	
8195	0	33644	
8196	0	33696	
8197	0	33740	
8198	0	33760	
8199	0	33786	
8200	0	33768	
8201	0	33768	
8202	0	33768	
8203	0	33792	
8204	0	33844	
8205	0	33884	
8206	0	33928	
8207	0	33926	
8208	0	33940	
8209	0	33912	
8210	0	33892	
8211	0	33892	
8212	0	33940	
8213	0	34000	
8214	0	34008	
8215	0	34016	
8216	0	33996	
8217	0	33928	
8218	0	33904	
8219	0	33928	
8220	0	33964	
8221	0	34016	
8222	0	34054	
8223	0	34032	
8224	0	33984	
8225	0	33976	
8226	0	33984	
8227	0	34000	
8228	0	33932	
8229	0	33832	
8230	0	33792	
8231	0	33780	
8232	0	33808	
8233	0	33852	
8234	0	33824	
8235	0	33808	
8236	0	33776	
8237	0	33728	
8238	0	33704	
8239	0	33706	
8240	0	33716	
8241	0	33752	
8242	0	33736	
8243	0	33668	
8244	0	33626	
8245	0	33608	
8246	0	33576	
8247	0	33572	
8248	0	33584	
8249	0	33576	
8250	0	33602	
8251	0	33580	
8252	0	33588	
8253	0	33632	
8254	0	33680	
8255	0	33678	
8256	0	33640	
8257	0	33596	
8258	0	33564	
8259	0	33592	
8260	0	33616	
8261	0	33648	
8262	0	33640	
8263	0	33624	
8264	0	33614	
8265	0	33648	
8266	0	33680	
8267	0	33658	
8268	0	33612	
8269	0	33552	
8270	0	33596	
8271	0	33688	
8272	0	33800	
8273	0	33844	
8274	0	33904	
8275	0	33952	
8276	0	33960	
8277	0	33976	
8278	0	33992	
8279	0	34028	
8280	0	34072	
8281	0	34056	
8282	0	34048	
8283	0	34036	
8284	0	33996	
8285	0	33968	
8286	0	33930	
8287	0	33900	
8288	0	33864	
8289	0	33792	
8290	0	33716	
8291	0	33652	
8292	0	33620	
8293	0	33564	
8294	0	33512	
8295	0	33480	
8296	0	33492	
8297	0	33496	
8298	0	33480	
8299	0	33440	
8300	0	33352	
8301	0	33312	
8302	0	33268	
8303	0	33240	
8304	0	33240	
8305	0	33194	
8306	0	33124	
8307	0	33064	
8308	0	33032	
8309	0	33032	
8310	0	32994	
8311	0	32976	
8312	0	32952	
8313	0	32900	
8314	0	32874	
8315	0	32828	
8316	0	32776	
8317	0	32724	
8318	0	32680	
8319	0	32664	
8320	0	32648	
8321	0	32624	
8322	0	32600	
8323	0	32580	
8324	0	32580	
8325	0	32568	
8326	0	32512	
8327	0	32414	
8328	0	32340	
8329	0	32320	
8330	0	32288	
8331	0	32224	
8332	0	32176	
8333	0	32164	
8334	0	32156	
8335	0	32148	
8336	0	32140	
8337	0	32128	
8338	0	32124	
8339	0	32132	
8340	0	32104	
8341	0	32040	
8342	0	32002	
8343	0	31988	
8344	0	31968	
8345	0	31936	
8346	0	31944	
8347	0	31960	
8348	0	31936	
8349	0	31924	
8350	0	31906	
8351	0	31914	
8352	0	31940	
8353	0	31984	
8354	0	32020	
8355	0	32104	
8356	0	32168	
8357	0	32284	
8358	0	32362	
8359	0	32364	
8360	0	32356	
8361	0	32328	
8362	0	32328	
8363	0	32384	
8364	0	32460	
8365	0	32512	
8366	0	32532	
8367	0	32592	
8368	0	32664	
8369	0	32712	
8370	0	32724	
8371	0	32724	
8372	0	32704	
8373	0	32696	
8374	0	32740	
8375	0	32764	
8376	0	32796	
8377	0	32834	
8378	0	32892	
8379	0	32956	
8380	0	32980	
8381	0	32992	
8382	0	32992	
8383	0	33036	
8384	0	33084	
8385	0	33068	
8386	0	33080	
8387	0	33124	
8388	0	33160	
8389	0	33192	
8390	0	33236	
8391	0	33276	
8392	0	33314	
8393	0	33404	
8394	0	33492	
8395	0	33504	
8396	0	33504	
8397	0	33480	
8398	0	33496	
8399	0	33524	
8400	0	33532	
8401	0	33532	
8402	0	33564	
8403	0	33588	
8404	0	33612	
8405	0	33646	
8406	0	33642	
8407	0	33700	
8408	0	33756	
8409	0	33760	
8410	0	33778	
8411	0	33784	
8412	0	33786	
8413	0	33808	
8414	0	33812	
8415	0	33804	
8416	0	33792	
8417	0	33756	
8418	0	33700	
8419	0	33680	
8420	0	33672	
8421	0	33656	
8422	0	33628	
8423	0	33608	
8424	0	33596	
8425	0	33584	
8426	0	33604	
8427	0	33668	
8428	0	33712	
8429	0	33728	
8430	0	33720	
8431	0	33728	
8432	0	33768	
8433	0	33780	
8434	0	33768	
8435	0	33768	
8436	0	33748	
8437	0	33692	
8438	0	33634	
8439	0	33594	
8440	0	33592	
8441	0	33612	
8442	0	33664	
8443	0	33716	
8444	0	33760	
8445	0	33836	
8446	0	33896	
8447	0	33972	
8448	0	34124	
8449	0	34216	
8450	0	34296	
8451	0	34356	
8452	0	34452	
8453	0	34564	
8454	0	34680	
8455	0	34788	
8456	0	34876	
8457	0	34948	
8458	0	35008	
8459	0	35080	
8460	0	35114	
8461	0	35090	
8462	0	35076	
8463	0	35032	
8464	0	34988	
8465	0	34960	
8466	0	34936	
8467	0	34880	
8468	0	34852	
8469	0	34884	
8470	0	34964	
8471	0	35056	
8472	0	35204	
8473	0	35432	
8474	0	35700	
8475	0	35964	
8476	0	36244	
8477	0	36512	
8478	0	36752	
8479	0	36944	
8480	0	37172	
8481	0	37344	
8482	0	37444	
8483	0	37500	
8484	0	37496	
8485	0	37424	
8486	0	37344	
8487	0	37252	
8488	0	37172	
8489	0	37080	
8490	0	36984	
8491	0	36884	
8492	0	36776	
8493	0	36648	
8494	0	36508	
8495	0	36416	
8496	0	36340	
8497	0	36288	
8498	0	36266	
8499	0	36256	
8500	0	36236	
8501	0	36180	
8502	0	36024	
8503	0	35836	
8504	0	35656	
8505	0	35464	
8506	0	35292	
8507	0	35092	
8508	0	34908	
8509	0	34648	
8510	0	34352	
8511	0	34012	
8512	0	33636	
8513	0	33200	
8514	0	32728	
8515	0	32252	
8516	0	31832	
8517	0	31468	
8518	0	31180	
8519	0	30964	
8520	0	30816	
8521	0	30754	
8522	0	30708	
8523	0	30634	
8524	0	30528	
8525	0	30422	
8526	0	30308	
8527	0	30156	
8528	0	30016	
8529	0	29860	
8530	0	29776	
8531	0	29688	
8532	0	29616	
8533	0	29580	
8534	0	29588	
8535	0	29576	
8536	0	29548	
8537	0	29564	
8538	0	29608	
8539	0	29664	
8540	0	29688	
8541	0	29696	
8542	0	29680	
8543	0	29668	
8544	0	29680	
8545	0	29648	
8546	0	29628	
8547	0	29636	
8548	0	29652	
8549	0	29634	
8550	0	29644	
8551	0	29632	
8552	0	29664	
8553	0	29716	
8554	0	29736	
8555	0	29744	
8556	0	29728	
8557	0	29696	
8558	0	29732	
8559	0	29784	
8560	0	29804	
8561	0	29800	
8562	0	29864	
8563	0	29880	
8564	0	29860	
8565	0	29824	
8566	0	29728	
8567	0	29580	
8568	0	29402	
8569	0	29076	
8570	0	28536	
8571	0	27764	
8572	0	26848	
8573	0	25916	
8574	0	24948	
8575	0	23984	
8576	0	23160	
8577	0	22564	
8578	0	22256	
8579	0	22082	
8580	0	22154	
8581	0	22492	
8582	0	23092	
8583	0	23832	
8584	0	24740	
8585	0	26016	
8586	0	27788	
8587	0	30016	
8588	0	32544	
8589	0	35244	
8590	0	38132	
8591	0	41164	
