# OpenSignals Text File Format. Version 1
# {"00:07:80:4B:15:F7": {"position": 0, "device": "biosignalsplux", "device name": "00:07:80:4B:15:F7", "device connection": "BTH00:07:80:4B:15:F7", "sampling rate": 1000, "resolution": [16], "firmware version": 775, "comments": "", "keywords": "", "mode": 0, "sync interval": 2, "date": "2023-4-12", "time": "15:44:2.929", "channels": [1], "sensor": ["ECG"], "label": ["CH1"], "column": ["nSeq", "DI", "CH1"], "special": [{"SpO2": [80, 40, 5, 4, 3, 3]}, {"SpO2": [80, 40, 5, 4, 3, 3]}, {"SpO2": [80, 40, 5, 4, 3, 3]}, {"SpO2": [80, 40, 5, 4, 3, 3]}, {"SpO2": [80, 40, 5, 4, 3, 3]}, {"SpO2": [80, 40, 5, 4, 3, 3]}, {"SpO2": [80, 40, 5, 4, 3, 3]}, {"SpO2": [80, 40, 5, 4, 3, 3]}], "digital IO": [0, 1], "sleeve color": ["green"], "convertedValues": 0}}
# EndOfHeader
0	0	33380	
1	0	33376	
2	0	33376	
3	0	33360	
4	0	33352	
5	0	33344	
6	0	33333	
7	0	33312	
8	0	33300	
9	0	33300	
10	0	33296	
11	0	33292	
12	0	33270	
13	0	33256	
14	0	33248	
15	0	33160	
16	0	33156	
17	0	33188	
18	0	33184	
19	0	33200	
20	0	33192	
21	0	33160	
22	0	33160	
23	0	33164	
24	0	33172	
25	0	33184	
26	0	33200	
27	0	33242	
28	0	33216	
29	0	33192	
30	0	33184	
31	0	33176	
32	0	33164	
33	0	33168	
34	0	33120	
35	0	33088	
36	0	33076	
37	0	33088	
38	0	33100	
39	0	33112	
40	0	33116	
41	0	33136	
42	0	33140	
43	0	33128	
44	0	33120	
45	0	33136	
46	0	33120	
47	0	33132	
48	0	33124	
49	0	33124	
50	0	33096	
51	0	33072	
52	0	33088	
53	0	33100	
54	0	33120	
55	0	33128	
56	0	33144	
57	0	33128	
58	0	33094	
59	0	33096	
60	0	33088	
61	0	33100	
62	0	33124	
63	0	33132	
64	0	33156	
65	0	33192	
66	0	33256	
67	0	33368	
68	0	33524	
69	0	33688	
70	0	33864	
71	0	34044	
72	0	34248	
73	0	34428	
74	0	34588	
75	0	34676	
76	0	34744	
77	0	34792	
78	0	34824	
79	0	34840	
80	0	34824	
81	0	34768	
82	0	34668	
83	0	34544	
84	0	34428	
85	0	34332	
86	0	34274	
87	0	34224	
88	0	34248	
89	0	34384	
90	0	34556	
91	0	34764	
92	0	35036	
93	0	35356	
94	0	35640	
95	0	35848	
96	0	36076	
97	0	36338	
98	0	36604	
99	0	36856	
100	0	37044	
101	0	37196	
102	0	37316	
103	0	37408	
104	0	37528	
105	0	37708	
106	0	37904	
107	0	38106	
108	0	38232	
109	0	38328	
110	0	38364	
111	0	38428	
112	0	38524	
113	0	38628	
114	0	38696	
115	0	38696	
116	0	38636	
117	0	38596	
118	0	38560	
119	0	38500	
120	0	38436	
121	0	38336	
122	0	38192	
123	0	38104	
124	0	38040	
125	0	37920	
126	0	37752	
127	0	37500	
128	0	37252	
129	0	37032	
130	0	36826	
131	0	36564	
132	0	36288	
133	0	36016	
134	0	35700	
135	0	35404	
136	0	35056	
137	0	34776	
138	0	34524	
139	0	34232	
140	0	33952	
141	0	33652	
142	0	33368	
143	0	33100	
144	0	32836	
145	0	32580	
146	0	32348	
147	0	32176	
148	0	32016	
149	0	31848	
150	0	31726	
151	0	31628	
152	0	31552	
153	0	31484	
154	0	31424	
155	0	31332	
156	0	31276	
157	0	31224	
158	0	31212	
159	0	31204	
160	0	31196	
161	0	31188	
162	0	31168	
163	0	31148	
164	0	31104	
165	0	31076	
166	0	31045	
167	0	31004	
168	0	30988	
169	0	30980	
170	0	30964	
171	0	30948	
172	0	30936	
173	0	30948	
174	0	30928	
175	0	30920	
176	0	30912	
177	0	30912	
178	0	30912	
179	0	30936	
180	0	30960	
181	0	30984	
182	0	30984	
183	0	30980	
184	0	30984	
185	0	30968	
186	0	30988	
187	0	30992	
188	0	30976	
189	0	30920	
190	0	30860	
191	0	30804	
192	0	30700	
193	0	30572	
194	0	30408	
195	0	30256	
196	0	30120	
197	0	29940	
198	0	29790	
199	0	29605	
200	0	29384	
201	0	29128	
202	0	28936	
203	0	28872	
204	0	28860	
205	0	28896	
206	0	29016	
207	0	29272	
208	0	29752	
209	0	30370	
210	0	31176	
211	0	32272	
212	0	33776	
213	0	35632	
214	0	37858	
215	0	40512	
216	0	43394	
217	0	46468	
218	0	49802	
219	0	53424	
220	0	57232	
221	0	60816	
222	0	63024	
223	0	64176	
224	0	64736	
225	0	65024	
226	0	65080	
227	0	65088	
228	0	65008	
229	0	64928	
230	0	64812	
231	0	64704	
232	0	64584	
233	0	64472	
234	0	64352	
235	0	64224	
236	0	64116	
237	0	63972	
238	0	63872	
239	0	63744	
240	0	63620	
241	0	63488	
242	0	63400	
243	0	63260	
244	0	63152	
245	0	63036	
246	0	62936	
247	0	60348	
248	0	55128	
249	0	50072	
250	0	45396	
251	0	41356	
252	0	38030	
253	0	35212	
254	0	32772	
255	0	30764	
256	0	29304	
257	0	28300	
258	0	27600	
259	0	27036	
260	0	26560	
261	0	26114	
262	0	25672	
263	0	25274	
264	0	24888	
265	0	24532	
266	0	24228	
267	0	23940	
268	0	23656	
269	0	23408	
270	0	23180	
271	0	22992	
272	0	22820	
273	0	22656	
274	0	22496	
275	0	22360	
276	0	22244	
277	0	22140	
278	0	22036	
279	0	21922	
280	0	21858	
281	0	21796	
282	0	21736	
283	0	21680	
284	0	21652	
285	0	21618	
286	0	21628	
287	0	21672	
288	0	21686	
289	0	21704	
290	0	21736	
291	0	21776	
292	0	21814	
293	0	21868	
294	0	21916	
295	0	21996	
296	0	22064	
297	0	22126	
298	0	22188	
299	0	22240	
300	0	22304	
301	0	22352	
302	0	22432	
303	0	22514	
304	0	22596	
305	0	22666	
306	0	22760	
307	0	22832	
308	0	22900	
309	0	22976	
310	0	23060	
311	0	23152	
312	0	23268	
313	0	23336	
314	0	23437	
315	0	23520	
316	0	23614	
317	0	23714	
318	0	23828	
319	0	23920	
320	0	23988	
321	0	24080	
322	0	24170	
323	0	24260	
324	0	24340	
325	0	24418	
326	0	24512	
327	0	24616	
328	0	24728	
329	0	24844	
330	0	24944	
331	0	25012	
332	0	25080	
333	0	25160	
334	0	25208	
335	0	25268	
336	0	25344	
337	0	25424	
338	0	25512	
339	0	25576	
340	0	25660	
341	0	25740	
342	0	25840	
343	0	25898	
344	0	25968	
345	0	26066	
346	0	26136	
347	0	26212	
348	0	26288	
349	0	26360	
350	0	26448	
351	0	26528	
352	0	26620	
353	0	26696	
354	0	26764	
355	0	26848	
356	0	26932	
357	0	27008	
358	0	27100	
359	0	27170	
360	0	27260	
361	0	27356	
362	0	27428	
363	0	27528	
364	0	27616	
365	0	27688	
366	0	27748	
367	0	27824	
368	0	27904	
369	0	28020	
370	0	28108	
371	0	28196	
372	0	28268	
373	0	28318	
374	0	28396	
375	0	28476	
376	0	28528	
377	0	28592	
378	0	28668	
379	0	28780	
380	0	28884	
381	0	28984	
382	0	29060	
383	0	29176	
384	0	29292	
385	0	29396	
386	0	29500	
387	0	29572	
388	0	29640	
389	0	29708	
390	0	29788	
391	0	29876	
392	0	29944	
393	0	30020	
394	0	30104	
395	0	30180	
396	0	30272	
397	0	30338	
398	0	30426	
399	0	30516	
400	0	30600	
401	0	30712	
402	0	30812	
403	0	30880	
404	0	30944	
405	0	31016	
406	0	31092	
407	0	31184	
408	0	31280	
409	0	31376	
410	0	31440	
411	0	31492	
412	0	31568	
413	0	31632	
414	0	31712	
415	0	31784	
416	0	31842	
417	0	31916	
418	0	31972	
419	0	32036	
420	0	32116	
421	0	32204	
422	0	32248	
423	0	32252	
424	0	32280	
425	0	32324	
426	0	32376	
427	0	32392	
428	0	32392	
429	0	32412	
430	0	32448	
431	0	32456	
432	0	32484	
433	0	32504	
434	0	32532	
435	0	32540	
436	0	32512	
437	0	32532	
438	0	32548	
439	0	32604	
440	0	32656	
441	0	32664	
442	0	32684	
443	0	32712	
444	0	32760	
445	0	32800	
446	0	32844	
447	0	32884	
448	0	32952	
449	0	32992	
450	0	33056	
451	0	33120	
452	0	33172	
453	0	33240	
454	0	33308	
455	0	33360	
456	0	33432	
457	0	33468	
458	0	33508	
459	0	33536	
460	0	33592	
461	0	33608	
462	0	33648	
463	0	33696	
464	0	33720	
465	0	33692	
466	0	33686	
467	0	33692	
468	0	33660	
469	0	33636	
470	0	33584	
471	0	33504	
472	0	33432	
473	0	33388	
474	0	33356	
475	0	33312	
476	0	33280	
477	0	33224	
478	0	33164	
479	0	33130	
480	0	33104	
481	0	33052	
482	0	33000	
483	0	32944	
484	0	32904	
485	0	32864	
486	0	32812	
487	0	32736	
488	0	32672	
489	0	32636	
490	0	32604	
491	0	32580	
492	0	32552	
493	0	32536	
494	0	32504	
495	0	32472	
496	0	32444	
497	0	32404	
498	0	32360	
499	0	32328	
500	0	32280	
501	0	32252	
502	0	32252	
503	0	32232	
504	0	32232	
505	0	32212	
506	0	32200	
507	0	32184	
508	0	32160	
509	0	32128	
510	0	32108	
511	0	32118	
512	0	32116	
513	0	32124	
514	0	32136	
515	0	32124	
516	0	32120	
517	0	32072	
518	0	32052	
519	0	32054	
520	0	32068	
521	0	32084	
522	0	32124	
523	0	32136	
524	0	32180	
525	0	32204	
526	0	32248	
527	0	32268	
528	0	32300	
529	0	32332	
530	0	32380	
531	0	32412	
532	0	32440	
533	0	32500	
534	0	32544	
535	0	32560	
536	0	32592	
537	0	32624	
538	0	32644	
539	0	32680	
540	0	32712	
541	0	32740	
542	0	32760	
543	0	32764	
544	0	32776	
545	0	32828	
546	0	32896	
547	0	32928	
548	0	32961	
549	0	32972	
550	0	33024	
551	0	33044	
552	0	33080	
553	0	33088	
554	0	33096	
555	0	33112	
556	0	33144	
557	0	33160	
558	0	33184	
559	0	33208	
560	0	33212	
561	0	33248	
562	0	33260	
563	0	33268	
564	0	33264	
565	0	33268	
566	0	33280	
567	0	33316	
568	0	33320	
569	0	33352	
570	0	33364	
571	0	33348	
572	0	33352	
573	0	33344	
574	0	33352	
575	0	33352	
576	0	33360	
577	0	33360	
578	0	33376	
579	0	33384	
580	0	33376	
581	0	33380	
582	0	33388	
583	0	33396	
584	0	33418	
585	0	33448	
586	0	33460	
587	0	33448	
588	0	33464	
589	0	33468	
590	0	33464	
591	0	33464	
592	0	33484	
593	0	33496	
594	0	33508	
595	0	33512	
596	0	33516	
597	0	33500	
598	0	33496	
599	0	33464	
600	0	33428	
601	0	33404	
602	0	33384	
603	0	33376	
604	0	33376	
605	0	33376	
606	0	33388	
607	0	33396	
608	0	33400	
609	0	33390	
610	0	33392	
611	0	33380	
612	0	33356	
613	0	33340	
614	0	33324	
615	0	33324	
616	0	33320	
617	0	33338	
618	0	33324	
619	0	33304	
620	0	33280	
621	0	33270	
622	0	33264	
623	0	33248	
624	0	33232	
625	0	33228	
626	0	33220	
627	0	33224	
628	0	33220	
629	0	33216	
630	0	33216	
631	0	33224	
632	0	33212	
633	0	33184	
634	0	33182	
635	0	33188	
636	0	33168	
637	0	33120	
638	0	33100	
639	0	33100	
640	0	33100	
641	0	33116	
642	0	33100	
643	0	33064	
644	0	33036	
645	0	33032	
646	0	33044	
647	0	33060	
648	0	33048	
649	0	33024	
650	0	33020	
651	0	33020	
652	0	33000	
653	0	32986	
654	0	32974	
655	0	32952	
656	0	32976	
657	0	33000	
658	0	32978	
659	0	32952	
660	0	32936	
661	0	32952	
662	0	32984	
663	0	32972	
664	0	32960	
665	0	32946	
666	0	32912	
667	0	32900	
668	0	32904	
669	0	32884	
670	0	32896	
671	0	32890	
672	0	32916	
673	0	32924	
674	0	32928	
675	0	32936	
676	0	32936	
677	0	32916	
678	0	32898	
679	0	32896	
680	0	32888	
681	0	32888	
682	0	32884	
683	0	32880	
684	0	32872	
685	0	32860	
686	0	32886	
687	0	32908	
688	0	32908	
689	0	32888	
690	0	32880	
691	0	32860	
692	0	32868	
693	0	32866	
694	0	32856	
695	0	32864	
696	0	32856	
697	0	32860	
698	0	32840	
699	0	32824	
700	0	32808	
701	0	32800	
702	0	32808	
703	0	32828	
704	0	32844	
705	0	32858	
706	0	32832	
707	0	32852	
708	0	32860	
709	0	32880	
710	0	32892	
711	0	32892	
712	0	32900	
713	0	32920	
714	0	32924	
715	0	32932	
716	0	32962	
717	0	32976	
718	0	32980	
719	0	32996	
720	0	32996	
721	0	32964	
722	0	32948	
723	0	32960	
724	0	32980	
725	0	32988	
726	0	32976	
727	0	32980	
728	0	32976	
729	0	32972	
730	0	32984	
731	0	33000	
732	0	33004	
733	0	33012	
734	0	33024	
735	0	33020	
736	0	33054	
737	0	33064	
738	0	33056	
739	0	33056	
740	0	33056	
741	0	33060	
742	0	33060	
743	0	33080	
744	0	33156	
745	0	33264	
746	0	33380	
747	0	33536	
748	0	33692	
749	0	33852	
750	0	34036	
751	0	34205	
752	0	34348	
753	0	34452	
754	0	34548	
755	0	34596	
756	0	34608	
757	0	34608	
758	0	34600	
759	0	34584	
760	0	34508	
761	0	34390	
762	0	34272	
763	0	34168	
764	0	34096	
765	0	34072	
766	0	34132	
767	0	34280	
768	0	34480	
769	0	34720	
770	0	34968	
771	0	35240	
772	0	35476	
773	0	35672	
774	0	35944	
775	0	36252	
776	0	36524	
777	0	36700	
778	0	36848	
779	0	36964	
780	0	37078	
781	0	37216	
782	0	37356	
783	0	37536	
784	0	37696	
785	0	37844	
786	0	37982	
787	0	38092	
788	0	38184	
789	0	38266	
790	0	38348	
791	0	38368	
792	0	38360	
793	0	38312	
794	0	38272	
795	0	38200	
796	0	38104	
797	0	38064	
798	0	38016	
799	0	37952	
800	0	37880	
801	0	37800	
802	0	37692	
803	0	37564	
804	0	37348	
805	0	37108	
806	0	36864	
807	0	36664	
808	0	36448	
809	0	36212	
810	0	35948	
811	0	35684	
812	0	35424	
813	0	35176	
814	0	34916	
815	0	34674	
816	0	34392	
817	0	34112	
818	0	33824	
819	0	33520	
820	0	33232	
821	0	32968	
822	0	32690	
823	0	32432	
824	0	32184	
825	0	32000	
826	0	31864	
827	0	31744	
828	0	31648	
829	0	31548	
830	0	31488	
831	0	31412	
832	0	31338	
833	0	31292	
834	0	31216	
835	0	31212	
836	0	31176	
837	0	31176	
838	0	31164	
839	0	31128	
840	0	31112	
841	0	31112	
842	0	31088	
843	0	31076	
844	0	31040	
845	0	31016	
846	0	30992	
847	0	30972	
848	0	30968	
849	0	30956	
850	0	30946	
851	0	30944	
852	0	30924	
853	0	30936	
854	0	30940	
855	0	30924	
856	0	30920	
857	0	30936	
858	0	30944	
859	0	30912	
860	0	30904	
861	0	30900	
862	0	30912	
863	0	30920	
864	0	30868	
865	0	30856	
866	0	30824	
867	0	30756	
868	0	30676	
869	0	30560	
870	0	30428	
871	0	30276	
872	0	30132	
873	0	29976	
874	0	29792	
875	0	29632	
876	0	29452	
877	0	29232	
878	0	28972	
879	0	28768	
880	0	28672	
881	0	28676	
882	0	28704	
883	0	28804	
884	0	29050	
885	0	29544	
886	0	30188	
887	0	30964	
888	0	32020	
889	0	33472	
890	0	35204	
891	0	37368	
892	0	40000	
893	0	42840	
894	0	45888	
895	0	49160	
896	0	52728	
897	0	56500	
898	0	60208	
899	0	62616	
900	0	63908	
901	0	64544	
902	0	64824	
903	0	64932	
904	0	64920	
905	0	64864	
906	0	64792	
907	0	64688	
908	0	64560	
909	0	64448	
910	0	64336	
911	0	64208	
912	0	64080	
913	0	63972	
914	0	63848	
915	0	63720	
916	0	63592	
917	0	63504	
918	0	63364	
919	0	63256	
920	0	63136	
921	0	63024	
922	0	62904	
923	0	62784	
924	0	59472	
925	0	54488	
926	0	49600	
927	0	45088	
928	0	41232	
929	0	38104	
930	0	35464	
931	0	33212	
932	0	31336	
933	0	29836	
934	0	28728	
935	0	27944	
936	0	27306	
937	0	26750	
938	0	26242	
939	0	25792	
940	0	25368	
941	0	24956	
942	0	24572	
943	0	24224	
944	0	23938	
945	0	23680	
946	0	23460	
947	0	23232	
948	0	23042	
949	0	22864	
950	0	22710	
951	0	22572	
952	0	22436	
953	0	22304	
954	0	22200	
955	0	22084	
956	0	21990	
957	0	21888	
958	0	21824	
959	0	21768	
960	0	21760	
961	0	21740	
962	0	21738	
963	0	21732	
964	0	21732	
965	0	21724	
966	0	21752	
967	0	21776	
968	0	21812	
969	0	21850	
970	0	21884	
971	0	21920	
972	0	21988	
973	0	22056	
974	0	22126	
975	0	22208	
976	0	22272	
977	0	22336	
978	0	22400	
979	0	22464	
980	0	22516	
981	0	22600	
982	0	22664	
983	0	22748	
984	0	22832	
985	0	22944	
986	0	23044	
987	0	23124	
988	0	23208	
989	0	23290	
990	0	23352	
991	0	23444	
992	0	23524	
993	0	23618	
994	0	23720	
995	0	23816	
996	0	23912	
997	0	24000	
998	0	24080	
999	0	24168	
1000	0	24242	
1001	0	24340	
1002	0	24414	
1003	0	24505	
1004	0	24588	
1005	0	24672	
1006	0	24748	
1007	0	24852	
1008	0	24952	
1009	0	25016	
1010	0	25104	
1011	0	25184	
1012	0	25260	
1013	0	25352	
1014	0	25432	
1015	0	25488	
1016	0	25568	
1017	0	25632	
1018	0	25692	
1019	0	25782	
1020	0	25856	
1021	0	25952	
1022	0	26010	
1023	0	26102	
1024	0	26168	
1025	0	26248	
1026	0	26342	
1027	0	26444	
1028	0	26544	
1029	0	26628	
1030	0	26688	
1031	0	26760	
1032	0	26840	
1033	0	26916	
1034	0	26984	
1035	0	27068	
1036	0	27160	
1037	0	27244	
1038	0	27322	
1039	0	27396	
1040	0	27472	
1041	0	27552	
1042	0	27634	
1043	0	27720	
1044	0	27796	
1045	0	27880	
1046	0	27976	
1047	0	28064	
1048	0	28125	
1049	0	28194	
1050	0	28280	
1051	0	28344	
1052	0	28436	
1053	0	28532	
1054	0	28624	
1055	0	28728	
1056	0	28816	
1057	0	28896	
1058	0	28976	
1059	0	29032	
1060	0	29104	
1061	0	29184	
1062	0	29256	
1063	0	29328	
1064	0	29424	
1065	0	29504	
1066	0	29586	
1067	0	29652	
1068	0	29728	
1069	0	29828	
1070	0	29920	
1071	0	30008	
1072	0	30090	
1073	0	30176	
1074	0	30256	
1075	0	30321	
1076	0	30400	
1077	0	30460	
1078	0	30528	
1079	0	30624	
1080	0	30712	
1081	0	30812	
1082	0	30884	
1083	0	30960	
1084	0	31020	
1085	0	31072	
1086	0	31150	
1087	0	31218	
1088	0	31280	
1089	0	31352	
1090	0	31408	
1091	0	31464	
1092	0	31528	
1093	0	31584	
1094	0	31632	
1095	0	31660	
1096	0	31692	
1097	0	31752	
1098	0	31808	
1099	0	31848	
1100	0	31860	
1101	0	31908	
1102	0	31968	
1103	0	31988	
1104	0	32026	
1105	0	32024	
1106	0	32044	
1107	0	32080	
1108	0	32096	
1109	0	32084	
1110	0	32088	
1111	0	32114	
1112	0	32106	
1113	0	32108	
1114	0	32128	
1115	0	32160	
1116	0	32184	
1117	0	32176	
1118	0	32176	
1119	0	32208	
1120	0	32260	
1121	0	32304	
1122	0	32338	
1123	0	32400	
1124	0	32432	
1125	0	32460	
1126	0	32480	
1127	0	32526	
1128	0	32592	
1129	0	32656	
1130	0	32704	
1131	0	32756	
1132	0	32816	
1133	0	32878	
1134	0	32952	
1135	0	33012	
1136	0	33064	
1137	0	33120	
1138	0	33184	
1139	0	33228	
1140	0	33256	
1141	0	33268	
1142	0	33264	
1143	0	33276	
1144	0	33272	
1145	0	33320	
1146	0	33328	
1147	0	33312	
1148	0	33294	
1149	0	33264	
1150	0	33232	
1151	0	33220	
1152	0	33210	
1153	0	33152	
1154	0	33116	
1155	0	33056	
1156	0	33009	
1157	0	32964	
1158	0	32900	
1159	0	32860	
1160	0	32826	
1161	0	32796	
1162	0	32768	
1163	0	32740	
1164	0	32716	
1165	0	32672	
1166	0	32656	
1167	0	32616	
1168	0	32552	
1169	0	32528	
1170	0	32488	
1171	0	32448	
1172	0	32416	
1173	0	32380	
1174	0	32352	
1175	0	32340	
1176	0	32312	
1177	0	32268	
1178	0	32240	
1179	0	32228	
1180	0	32204	
1181	0	32196	
1182	0	32196	
1183	0	32192	
1184	0	32172	
1185	0	32136	
1186	0	32128	
1187	0	32136	
1188	0	32112	
1189	0	32104	
1190	0	32088	
1191	0	32088	
1192	0	32112	
1193	0	32128	
1194	0	32128	
1195	0	32128	
1196	0	32140	
1197	0	32162	
1198	0	32172	
1199	0	32192	
1200	0	32236	
1201	0	32248	
1202	0	32240	
1203	0	32268	
1204	0	32296	
1205	0	32344	
1206	0	32376	
1207	0	32432	
1208	0	32468	
1209	0	32488	
1210	0	32496	
1211	0	32504	
1212	0	32528	
1213	0	32600	
1214	0	32660	
1215	0	32704	
1216	0	32748	
1217	0	32792	
1218	0	32808	
1219	0	32848	
1220	0	32868	
1221	0	32888	
1222	0	32900	
1223	0	32928	
1224	0	32952	
1225	0	32992	
1226	0	33024	
1227	0	33056	
1228	0	33052	
1229	0	33048	
1230	0	33076	
1231	0	33104	
1232	0	33128	
1233	0	33146	
1234	0	33156	
1235	0	33196	
1236	0	33228	
1237	0	33244	
1238	0	33276	
1239	0	33300	
1240	0	33298	
1241	0	33312	
1242	0	33312	
1243	0	33308	
1244	0	33312	
1245	0	33314	
1246	0	33316	
1247	0	33320	
1248	0	33344	
1249	0	33376	
1250	0	33412	
1251	0	33408	
1252	0	33424	
1253	0	33404	
1254	0	33400	
1255	0	33442	
1256	0	33464	
1257	0	33482	
1258	0	33496	
1259	0	33504	
1260	0	33508	
1261	0	33512	
1262	0	33526	
1263	0	33520	
1264	0	33486	
1265	0	33464	
1266	0	33480	
1267	0	33504	
1268	0	33508	
1269	0	33504	
1270	0	33512	
1271	0	33522	
1272	0	33508	
1273	0	33512	
1274	0	33516	
1275	0	33504	
1276	0	33496	
1277	0	33492	
1278	0	33504	
1279	0	33500	
1280	0	33476	
1281	0	33448	
1282	0	33452	
1283	0	33480	
1284	0	33472	
1285	0	33452	
1286	0	33420	
1287	0	33388	
1288	0	33364	
1289	0	33364	
1290	0	33370	
1291	0	33346	
1292	0	33330	
1293	0	33348	
1294	0	33356	
1295	0	33340	
1296	0	33340	
1297	0	33352	
1298	0	33328	
1299	0	33312	
1300	0	33280	
1301	0	33264	
1302	0	33256	
1303	0	33244	
1304	0	33256	
1305	0	33260	
1306	0	33252	
1307	0	33264	
1308	0	33264	
1309	0	33258	
1310	0	33244	
1311	0	33210	
1312	0	33200	
1313	0	33216	
1314	0	33228	
1315	0	33244	
1316	0	33240	
1317	0	33252	
1318	0	33244	
1319	0	33252	
1320	0	33228	
1321	0	33192	
1322	0	33152	
1323	0	33120	
1324	0	33096	
1325	0	33096	
1326	0	33116	
1327	0	33120	
1328	0	33136	
1329	0	33152	
1330	0	33148	
1331	0	33168	
1332	0	33184	
1333	0	33196	
1334	0	33176	
1335	0	33108	
1336	0	33024	
1337	0	32976	
1338	0	32964	
1339	0	32968	
1340	0	32976	
1341	0	32962	
1342	0	32960	
1343	0	32954	
1344	0	32916	
1345	0	32864	
1346	0	32884	
1347	0	32912	
1348	0	32944	
1349	0	32952	
1350	0	32976	
1351	0	33004	
1352	0	33012	
1353	0	33020	
1354	0	33024	
1355	0	32996	
1356	0	32988	
1357	0	32968	
1358	0	32944	
1359	0	32904	
1360	0	32916	
1361	0	32924	
1362	0	32916	
1363	0	32926	
1364	0	32908	
1365	0	32916	
1366	0	32956	
1367	0	32984	
1368	0	32980	
1369	0	32976	
1370	0	32976	
1371	0	32948	
1372	0	32936	
1373	0	32940	
1374	0	32976	
1375	0	32988	
1376	0	32992	
1377	0	32976	
1378	0	32956	
1379	0	32940	
1380	0	32904	
1381	0	32896	
1382	0	32908	
1383	0	32896	
1384	0	32884	
1385	0	32884	
1386	0	32900	
1387	0	32948	
1388	0	32948	
1389	0	32932	
1390	0	32898	
1391	0	32896	
1392	0	32926	
1393	0	32928	
1394	0	32938	
1395	0	32932	
1396	0	32930	
1397	0	32972	
1398	0	32992	
1399	0	32992	
1400	0	32976	
1401	0	32944	
1402	0	32944	
1403	0	32976	
1404	0	32992	
1405	0	33024	
1406	0	33080	
1407	0	33148	
1408	0	33188	
1409	0	33188	
1410	0	33172	
1411	0	33132	
1412	0	33092	
1413	0	33052	
1414	0	33048	
1415	0	33040	
1416	0	33040	
1417	0	33056	
1418	0	33074	
1419	0	33088	
1420	0	33108	
1421	0	33100	
1422	0	33080	
1423	0	33052	
1424	0	33028	
1425	0	33012	
1426	0	33000	
1427	0	32992	
1428	0	32984	
1429	0	33028	
1430	0	33064	
1431	0	33168	
1432	0	33314	
1433	0	33464	
1434	0	33648	
1435	0	33860	
1436	0	34078	
1437	0	34312	
1438	0	34508	
1439	0	34660	
1440	0	34784	
1441	0	34824	
1442	0	34856	
1443	0	34856	
1444	0	34852	
1445	0	34840	
1446	0	34786	
1447	0	34708	
1448	0	34584	
1449	0	34476	
1450	0	34412	
1451	0	34420	
1452	0	34452	
1453	0	34552	
1454	0	34696	
1455	0	34848	
1456	0	35056	
1457	0	35264	
1458	0	35488	
1459	0	35680	
1460	0	35904	
1461	0	36148	
1462	0	36452	
1463	0	36688	
1464	0	36860	
1465	0	37000	
1466	0	37112	
1467	0	37280	
1468	0	37484	
1469	0	37640	
1470	0	37772	
1471	0	37948	
1472	0	38068	
1473	0	38128	
1474	0	38212	
1475	0	38308	
1476	0	38370	
1477	0	38416	
1478	0	38440	
1479	0	38380	
1480	0	38304	
1481	0	38252	
1482	0	38200	
1483	0	38188	
1484	0	38136	
1485	0	38050	
1486	0	37944	
1487	0	37860	
1488	0	37785	
1489	0	37700	
1490	0	37568	
1491	0	37364	
1492	0	37128	
1493	0	36908	
1494	0	36688	
1495	0	36440	
1496	0	36172	
1497	0	35920	
1498	0	35668	
1499	0	35420	
1500	0	35188	
1501	0	34956	
1502	0	34700	
1503	0	34440	
1504	0	34172	
1505	0	33884	
1506	0	33576	
1507	0	33276	
1508	0	33012	
1509	0	32744	
1510	0	32408	
1511	0	32130	
1512	0	31940	
1513	0	31780	
1514	0	31668	
1515	0	31584	
1516	0	31520	
1517	0	31448	
1518	0	31404	
1519	0	31364	
1520	0	31350	
1521	0	31384	
1522	0	31402	
1523	0	31440	
1524	0	31466	
1525	0	31480	
1526	0	31450	
1527	0	31428	
1528	0	31412	
1529	0	31380	
1530	0	31336	
1531	0	31312	
1532	0	31296	
1533	0	31284	
1534	0	31258	
1535	0	31224	
1536	0	31156	
1537	0	31104	
1538	0	31084	
1539	0	31076	
1540	0	31108	
1541	0	31108	
1542	0	31096	
1543	0	31080	
1544	0	31084	
1545	0	31096	
1546	0	31104	
1547	0	31096	
1548	0	31104	
1549	0	31104	
1550	0	31040	
1551	0	30972	
1552	0	30908	
1553	0	30860	
1554	0	30812	
1555	0	30736	
1556	0	30628	
1557	0	30458	
1558	0	30316	
1559	0	30176	
1560	0	30060	
1561	0	29904	
1562	0	29752	
1563	0	29544	
1564	0	29288	
1565	0	29082	
1566	0	28968	
1567	0	28860	
1568	0	28824	
1569	0	28936	
1570	0	29172	
1571	0	29664	
1572	0	30408	
1573	0	31236	
1574	0	32288	
1575	0	33720	
1576	0	35380	
1577	0	37432	
1578	0	39960	
1579	0	42780	
1580	0	45840	
1581	0	49124	
1582	0	52744	
1583	0	56608	
1584	0	60344	
1585	0	62620	
1586	0	63812	
1587	0	64400	
1588	0	64688	
1589	0	64776	
1590	0	64752	
1591	0	64688	
1592	0	64608	
1593	0	64500	
1594	0	64416	
1595	0	64288	
1596	0	64168	
1597	0	64048	
1598	0	63936	
1599	0	63816	
1600	0	63692	
1601	0	63580	
1602	0	63440	
1603	0	63320	
1604	0	63204	
1605	0	63096	
1606	0	62983	
1607	0	62868	
1608	0	62752	
1609	0	62656	
1610	0	60456	
1611	0	55304	
1612	0	50352	
1613	0	45720	
1614	0	41792	
1615	0	38576	
1616	0	35948	
1617	0	33756	
1618	0	31944	
1619	0	30440	
1620	0	29276	
1621	0	28408	
1622	0	27770	
1623	0	27220	
1624	0	26676	
1625	0	26176	
1626	0	25676	
1627	0	25192	
1628	0	24778	
1629	0	24448	
1630	0	24138	
1631	0	23860	
1632	0	23624	
1633	0	23436	
1634	0	23228	
1635	0	23064	
1636	0	22876	
1637	0	22692	
1638	0	22544	
1639	0	22388	
1640	0	22242	
1641	0	22128	
1642	0	22000	
1643	0	21900	
1644	0	21792	
1645	0	21734	
1646	0	21708	
1647	0	21712	
1648	0	21720	
1649	0	21718	
1650	0	21736	
1651	0	21764	
1652	0	21780	
1653	0	21812	
1654	0	21858	
1655	0	21888	
1656	0	21872	
1657	0	21852	
1658	0	21874	
1659	0	21892	
1660	0	21948	
1661	0	22048	
1662	0	22136	
1663	0	22210	
1664	0	22314	
1665	0	22396	
1666	0	22508	
1667	0	22608	
1668	0	22700	
1669	0	22832	
1670	0	22976	
1671	0	23080	
1672	0	23184	
1673	0	23284	
1674	0	23372	
1675	0	23446	
1676	0	23482	
1677	0	23536	
1678	0	23588	
1679	0	23608	
1680	0	23672	
1681	0	23744	
1682	0	23842	
1683	0	23936	
1684	0	24044	
1685	0	24192	
1686	0	24312	
1687	0	24428	
1688	0	24528	
1689	0	24656	
1690	0	24768	
1691	0	24852	
1692	0	24928	
1693	0	25020	
1694	0	25096	
1695	0	25196	
1696	0	25284	
1697	0	25352	
1698	0	25408	
1699	0	25474	
1700	0	25528	
1701	0	25520	
1702	0	25520	
1703	0	25560	
1704	0	25660	
1705	0	25760	
1706	0	25888	
1707	0	26040	
1708	0	26192	
1709	0	26280	
1710	0	26368	
1711	0	26452	
1712	0	26544	
1713	0	26596	
1714	0	26682	
1715	0	26790	
1716	0	26892	
1717	0	26984	
1718	0	27002	
1719	0	27032	
1720	0	27060	
1721	0	27104	
1722	0	27120	
1723	0	27192	
1724	0	27258	
1725	0	27368	
1726	0	27448	
1727	0	27484	
1728	0	27524	
1729	0	27624	
1730	0	27742	
1731	0	27896	
1732	0	28056	
1733	0	28204	
1734	0	28336	
1735	0	28432	
1736	0	28512	
1737	0	28568	
1738	0	28668	
1739	0	28768	
1740	0	28848	
1741	0	28952	
1742	0	29064	
1743	0	29188	
1744	0	29260	
1745	0	29272	
1746	0	29260	
1747	0	29300	
1748	0	29368	
1749	0	29456	
1750	0	29536	
1751	0	29588	
1752	0	29656	
1753	0	29728	
1754	0	29784	
1755	0	29828	
1756	0	29856	
1757	0	29908	
1758	0	29988	
1759	0	30080	
1760	0	30184	
1761	0	30240	
1762	0	30276	
1763	0	30308	
1764	0	30376	
1765	0	30500	
1766	0	30636	
1767	0	30784	
1768	0	30896	
1769	0	30976	
1770	0	31080	
1771	0	31242	
1772	0	31376	
1773	0	31464	
1774	0	31530	
1775	0	31592	
1776	0	31712	
1777	0	31804	
1778	0	31900	
1779	0	31972	
1780	0	31988	
1781	0	32018	
1782	0	32062	
1783	0	32104	
1784	0	32136	
1785	0	32140	
1786	0	32144	
1787	0	32104	
1788	0	32080	
1789	0	32060	
1790	0	32096	
1791	0	32176	
1792	0	32224	
1793	0	32296	
1794	0	32344	
1795	0	32400	
1796	0	32424	
1797	0	32424	
1798	0	32390	
1799	0	32376	
1800	0	32360	
1801	0	32344	
1802	0	32356	
1803	0	32352	
1804	0	32312	
1805	0	32224	
1806	0	32116	
1807	0	32052	
1808	0	32000	
1809	0	32000	
1810	0	32044	
1811	0	32116	
1812	0	32208	
1813	0	32280	
1814	0	32328	
1815	0	32366	
1816	0	32456	
1817	0	32556	
1818	0	32688	
1819	0	32780	
1820	0	32884	
1821	0	32992	
1822	0	33024	
1823	0	33000	
1824	0	32960	
1825	0	32904	
1826	0	32876	
1827	0	32944	
1828	0	33032	
1829	0	33076	
1830	0	33132	
1831	0	33184	
1832	0	33192	
1833	0	33200	
1834	0	33184	
1835	0	33180	
1836	0	33152	
1837	0	33128	
1838	0	33152	
1839	0	33160	
1840	0	33180	
1841	0	33192	
1842	0	33186	
1843	0	33124	
1844	0	33032	
1845	0	32928	
1846	0	32780	
1847	0	32632	
1848	0	32528	
1849	0	32440	
1850	0	32416	
1851	0	32426	
1852	0	32440	
1853	0	32448	
1854	0	32396	
1855	0	32364	
1856	0	32346	
1857	0	32320	
1858	0	32304	
1859	0	32276	
1860	0	32264	
1861	0	32224	
1862	0	32152	
1863	0	32096	
1864	0	32014	
1865	0	31908	
1866	0	31892	
1867	0	31910	
1868	0	31936	
1869	0	31980	
1870	0	32024	
1871	0	32024	
1872	0	32016	
1873	0	31988	
1874	0	31980	
1875	0	31982	
1876	0	32016	
1877	0	32044	
1878	0	32040	
1879	0	32084	
1880	0	32120	
1881	0	32122	
1882	0	32124	
1883	0	32088	
1884	0	32028	
1885	0	31992	
1886	0	31980	
1887	0	31946	
1888	0	31924	
1889	0	31936	
1890	0	31984	
1891	0	32012	
1892	0	32044	
1893	0	32128	
1894	0	32192	
1895	0	32244	
1896	0	32272	
1897	0	32296	
1898	0	32372	
1899	0	32420	
1900	0	32480	
1901	0	32568	
1902	0	32626	
1903	0	32636	
1904	0	32632	
1905	0	32660	
1906	0	32736	
1907	0	32804	
1908	0	32860	
1909	0	32928	
1910	0	32988	
1911	0	33032	
1912	0	33044	
1913	0	33076	
1914	0	33080	
1915	0	33012	
1916	0	32922	
1917	0	32904	
1918	0	32900	
1919	0	32900	
1920	0	32888	
1921	0	32864	
1922	0	32860	
1923	0	32860	
1924	0	32844	
1925	0	32844	
1926	0	32876	
1927	0	32956	
1928	0	33080	
1929	0	33184	
1930	0	33252	
1931	0	33288	
1932	0	33240	
1933	0	33188	
1934	0	33184	
1935	0	33240	
1936	0	33312	
1937	0	33408	
1938	0	33532	
1939	0	33604	
1940	0	33664	
1941	0	33676	
1942	0	33672	
1943	0	33600	
1944	0	33552	
1945	0	33464	
1946	0	33384	
1947	0	33312	
1948	0	33216	
1949	0	33136	
1950	0	33092	
1951	0	33072	
1952	0	33108	
1953	0	33188	
1954	0	33260	
1955	0	33370	
1956	0	33458	
1957	0	33516	
1958	0	33596	
1959	0	33624	
1960	0	33600	
1961	0	33560	
1962	0	33548	
1963	0	33544	
1964	0	33548	
1965	0	33580	
1966	0	33568	
1967	0	33528	
1968	0	33512	
1969	0	33468	
1970	0	33438	
1971	0	33444	
1972	0	33460	
1973	0	33486	
1974	0	33476	
1975	0	33428	
1976	0	33376	
1977	0	33340	
1978	0	33304	
1979	0	33272	
1980	0	33236	
1981	0	33216	
1982	0	33212	
1983	0	33184	
1984	0	33192	
1985	0	33204	
1986	0	33228	
1987	0	33272	
1988	0	33306	
1989	0	33296	
1990	0	33284	
1991	0	33264	
1992	0	33184	
1993	0	33156	
1994	0	33168	
1995	0	33168	
1996	0	33144	
1997	0	33148	
1998	0	33156	
1999	0	33132	
2000	0	33140	
2001	0	33144	
2002	0	33112	
2003	0	33072	
2004	0	33040	
2005	0	33072	
2006	0	33148	
2007	0	33196	
2008	0	33200	
2009	0	33192	
2010	0	33157	
2011	0	33116	
2012	0	33080	
2013	0	32980	
2014	0	32884	
2015	0	32864	
2016	0	32896	
2017	0	32968	
2018	0	33028	
2019	0	33082	
2020	0	33144	
2021	0	33152	
2022	0	33160	
2023	0	33164	
2024	0	33120	
2025	0	33004	
2026	0	32916	
2027	0	32856	
2028	0	32884	
2029	0	32928	
2030	0	33020	
2031	0	33148	
2032	0	33282	
2033	0	33348	
2034	0	33314	
2035	0	33252	
2036	0	33216	
2037	0	33232	
2038	0	33272	
2039	0	33292	
2040	0	33256	
2041	0	33256	
2042	0	33268	
2043	0	33236	
2044	0	33136	
2045	0	33024	
2046	0	32928	
2047	0	32840	
2048	0	32796	
2049	0	32736	
2050	0	32712	
2051	0	32740	
2052	0	32788	
2053	0	32832	
2054	0	32874	
2055	0	32884	
2056	0	32894	
2057	0	32892	
2058	0	32882	
2059	0	32800	
2060	0	32708	
2061	0	32648	
2062	0	32600	
2063	0	32600	
2064	0	32664	
2065	0	32708	
2066	0	32688	
2067	0	32692	
2068	0	32754	
2069	0	32876	
2070	0	33064	
2071	0	33248	
2072	0	33400	
2073	0	33540	
2074	0	33616	
2075	0	33640	
2076	0	33592	
2077	0	33504	
2078	0	33488	
2079	0	33572	
2080	0	33708	
2081	0	33832	
2082	0	33924	
2083	0	34000	
2084	0	34140	
2085	0	34264	
2086	0	34396	
2087	0	34408	
2088	0	34340	
2089	0	34177	
2090	0	34000	
2091	0	33904	
2092	0	33920	
2093	0	33940	
2094	0	34008	
2095	0	34140	
2096	0	34312	
2097	0	34436	
2098	0	34564	
2099	0	34728	
2100	0	34976	
2101	0	35146	
2102	0	35284	
2103	0	35436	
2104	0	35680	
2105	0	35976	
2106	0	36180	
2107	0	36336	
2108	0	36536	
2109	0	36706	
2110	0	36888	
2111	0	37200	
2112	0	37556	
2113	0	37840	
2114	0	38080	
2115	0	38204	
2116	0	38284	
2117	0	38300	
2118	0	38276	
2119	0	38272	
2120	0	38256	
2121	0	38244	
2122	0	38204	
2123	0	38184	
2124	0	38152	
2125	0	38176	
2126	0	38212	
2127	0	38196	
2128	0	38084	
2129	0	37888	
2130	0	37640	
2131	0	37440	
2132	0	37252	
2133	0	37100	
2134	0	36928	
2135	0	36758	
2136	0	36588	
2137	0	36400	
2138	0	36188	
2139	0	35940	
2140	0	35628	
2141	0	35368	
2142	0	35120	
2143	0	34880	
2144	0	34660	
2145	0	34408	
2146	0	34160	
2147	0	33844	
2148	0	33540	
2149	0	33268	
2150	0	33042	
2151	0	32752	
2152	0	32408	
2153	0	32072	
2154	0	31748	
2155	0	31536	
2156	0	31464	
2157	0	31436	
2158	0	31488	
2159	0	31596	
2160	0	31688	
2161	0	31732	
2162	0	31760	
2163	0	31740	
2164	0	31720	
2165	0	31656	
2166	0	31568	
2167	0	31528	
2168	0	31460	
2169	0	31349	
2170	0	31288	
2171	0	31248	
2172	0	31208	
2173	0	31284	
2174	0	31276	
2175	0	31264	
2176	0	31188	
2177	0	31068	
2178	0	30968	
2179	0	30880	
2180	0	30836	
2181	0	30848	
2182	0	30880	
2183	0	30916	
2184	0	30952	
2185	0	31000	
2186	0	31108	
2187	0	31216	
2188	0	31320	
2189	0	31348	
2190	0	31280	
2191	0	31192	
2192	0	31068	
2193	0	30944	
2194	0	30864	
2195	0	30844	
2196	0	30808	
2197	0	30752	
2198	0	30640	
2199	0	30540	
2200	0	30462	
2201	0	30360	
2202	0	30276	
2203	0	30234	
2204	0	30120	
2205	0	29920	
2206	0	29644	
2207	0	29376	
2208	0	29146	
2209	0	28946	
2210	0	28820	
2211	0	28788	
2212	0	28924	
2213	0	29276	
2214	0	29856	
2215	0	30700	
2216	0	31834	
2217	0	33266	
2218	0	34840	
2219	0	36426	
2220	0	38380	
2221	0	40752	
2222	0	43488	
2223	0	46508	
2224	0	50000	
2225	0	54044	
2226	0	58464	
2227	0	61600	
2228	0	63264	
2229	0	64128	
2230	0	64540	
2231	0	64708	
2232	0	64740	
2233	0	64708	
2234	0	64648	
2235	0	64536	
2236	0	64432	
2237	0	64320	
2238	0	64208	
2239	0	64076	
2240	0	63952	
2241	0	63844	
2242	0	63724	
2243	0	63608	
2244	0	63488	
2245	0	63360	
2246	0	63252	
2247	0	63136	
2248	0	63016	
2249	0	62904	
2250	0	62772	
2251	0	62672	
2252	0	62536	
2253	0	59188	
2254	0	53948	
2255	0	48564	
2256	0	43404	
2257	0	39244	
2258	0	36176	
2259	0	33916	
2260	0	32304	
2261	0	31092	
2262	0	30036	
2263	0	29016	
2264	0	28088	
2265	0	27336	
2266	0	26688	
2267	0	26024	
2268	0	25324	
2269	0	24688	
2270	0	24172	
2271	0	23778	
2272	0	23536	
2273	0	23396	
2274	0	23304	
2275	0	23244	
2276	0	23176	
2277	0	23072	
2278	0	22916	
2279	0	22704	
2280	0	22504	
2281	0	22324	
2282	0	22178	
2283	0	22016	
2284	0	21844	
2285	0	21632	
2286	0	21376	
2287	0	21132	
2288	0	20984	
2289	0	20908	
2290	0	20892	
2291	0	20928	
2292	0	21068	
2293	0	21264	
2294	0	21456	
2295	0	21708	
2296	0	21920	
2297	0	21972	
2298	0	21940	
2299	0	21836	
2300	0	21684	
2301	0	21625	
2302	0	21604	
2303	0	21674	
2304	0	21817	
2305	0	21968	
2306	0	22144	
2307	0	22296	
2308	0	22476	
2309	0	22620	
2310	0	22660	
2311	0	22616	
2312	0	22588	
2313	0	22640	
2314	0	22700	
2315	0	22718	
2316	0	22720	
2317	0	22756	
2318	0	22844	
2319	0	22976	
2320	0	23112	
2321	0	23236	
2322	0	23376	
2323	0	23524	
2324	0	23636	
2325	0	23692	
2326	0	23744	
2327	0	23844	
2328	0	24002	
2329	0	24184	
2330	0	24336	
2331	0	24412	
2332	0	24544	
2333	0	24776	
2334	0	24924	
2335	0	25012	
2336	0	25044	
2337	0	25052	
2338	0	25088	
2339	0	25128	
2340	0	25138	
2341	0	25112	
2342	0	25076	
2343	0	25058	
2344	0	25144	
2345	0	25332	
2346	0	25552	
2347	0	25744	
2348	0	25928	
2349	0	26044	
2350	0	26108	
2351	0	26164	
2352	0	26224	
2353	0	26296	
2354	0	26360	
2355	0	26432	
2356	0	26528	
2357	0	26656	
2358	0	26780	
2359	0	26848	
2360	0	26864	
2361	0	26832	
2362	0	26784	
2363	0	26760	
2364	0	26812	
2365	0	27012	
2366	0	27252	
2367	0	27544	
2368	0	27760	
2369	0	27896	
2370	0	27964	
2371	0	28020	
2372	0	28056	
2373	0	28088	
2374	0	28168	
2375	0	28276	
2376	0	28388	
2377	0	28504	
2378	0	28650	
2379	0	28808	
2380	0	28864	
2381	0	28864	
2382	0	28828	
2383	0	28828	
2384	0	28812	
2385	0	28776	
2386	0	28728	
2387	0	28716	
2388	0	28836	
2389	0	29004	
2390	0	29192	
2391	0	29384	
2392	0	29580	
2393	0	29804	
2394	0	30062	
2395	0	30300	
2396	0	30392	
2397	0	30392	
2398	0	30348	
2399	0	30324	
2400	0	30336	
2401	0	30460	
2402	0	30624	
2403	0	30732	
2404	0	30784	
2405	0	30700	
2406	0	30540	
2407	0	30432	
2408	0	30404	
2409	0	30468	
2410	0	30536	
2411	0	30696	
2412	0	30928	
2413	0	31116	
2414	0	31292	
2415	0	31424	
2416	0	31456	
2417	0	31396	
2418	0	31284	
2419	0	31284	
2420	0	31344	
2421	0	31484	
2422	0	31692	
2423	0	31868	
2424	0	31984	
2425	0	32060	
2426	0	32076	
2427	0	32060	
2428	0	32076	
2429	0	32072	
2430	0	31964	
2431	0	31860	
2432	0	31760	
2433	0	31700	
2434	0	31680	
2435	0	31688	
2436	0	31676	
2437	0	31620	
2438	0	31600	
2439	0	31624	
2440	0	31676	
2441	0	31802	
2442	0	31924	
2443	0	32000	
2444	0	32004	
2445	0	32072	
2446	0	32180	
2447	0	32244	
2448	0	32264	
2449	0	32272	
2450	0	32256	
2451	0	32248	
2452	0	32232	
2453	0	32204	
2454	0	32192	
2455	0	32165	
2456	0	32178	
2457	0	32148	
2458	0	32148	
2459	0	32208	
2460	0	32320	
2461	0	32472	
2462	0	32604	
2463	0	32656	
2464	0	32592	
2465	0	32436	
2466	0	32344	
2467	0	32416	
2468	0	32576	
2469	0	32732	
2470	0	32800	
2471	0	32792	
2472	0	32752	
2473	0	32748	
2474	0	32788	
2475	0	32856	
2476	0	32960	
2477	0	33024	
2478	0	33044	
2479	0	33076	
2480	0	33060	
2481	0	32888	
2482	0	32692	
2483	0	32468	
2484	0	32320	
2485	0	32240	
2486	0	32184	
2487	0	32136	
2488	0	32164	
2489	0	32228	
2490	0	32276	
2491	0	32316	
2492	0	32424	
2493	0	32532	
2494	0	32568	
2495	0	32472	
2496	0	32252	
2497	0	32058	
2498	0	31896	
2499	0	31688	
2500	0	31492	
2501	0	31356	
2502	0	31312	
2503	0	31372	
2504	0	31412	
2505	0	31548	
2506	0	31688	
2507	0	31824	
2508	0	31936	
2509	0	32008	
2510	0	32064	
2511	0	32044	
2512	0	31964	
2513	0	31816	
2514	0	31664	
2515	0	31572	
2516	0	31460	
2517	0	31400	
2518	0	31420	
2519	0	31556	
2520	0	31676	
2521	0	31744	
2522	0	31760	
2523	0	31778	
2524	0	31752	
2525	0	31696	
2526	0	31564	
2527	0	31392	
2528	0	31300	
2529	0	31324	
2530	0	31416	
2531	0	31524	
2532	0	31680	
2533	0	31880	
2534	0	32120	
2535	0	32308	
2536	0	32360	
2537	0	32272	
2538	0	32036	
2539	0	31784	
2540	0	31648	
2541	0	31664	
2542	0	31792	
2543	0	31952	
2544	0	32130	
2545	0	32288	
2546	0	32440	
2547	0	32608	
2548	0	32720	
2549	0	32760	
2550	0	32704	
2551	0	32608	
2552	0	32556	
2553	0	32532	
2554	0	32552	
2555	0	32604	
2556	0	32632	
2557	0	32640	
2558	0	32644	
2559	0	32612	
2560	0	32660	
2561	0	32680	
2562	0	32638	
2563	0	32664	
2564	0	32732	
2565	0	32828	
2566	0	32872	
2567	0	32864	
2568	0	32876	
2569	0	32884	
2570	0	32876	
2571	0	32888	
2572	0	32900	
2573	0	32944	
2574	0	32992	
2575	0	33028	
2576	0	33048	
2577	0	33052	
2578	0	33048	
2579	0	33036	
2580	0	32944	
2581	0	32888	
2582	0	32818	
2583	0	32744	
2584	0	32768	
2585	0	32896	
2586	0	33076	
2587	0	33278	
2588	0	33476	
2589	0	33568	
2590	0	33604	
2591	0	33620	
2592	0	33636	
2593	0	33632	
2594	0	33620	
2595	0	33612	
2596	0	33680	
2597	0	33768	
2598	0	33812	
2599	0	33796	
2600	0	33768	
2601	0	33688	
2602	0	33608	
2603	0	33480	
2604	0	33356	
2605	0	33336	
2606	0	33348	
2607	0	33348	
2608	0	33340	
2609	0	33292	
2610	0	33276	
2611	0	33236	
2612	0	33188	
2613	0	33180	
2614	0	33184	
2615	0	33164	
2616	0	33052	
2617	0	32896	
2618	0	32784	
2619	0	32752	
2620	0	32828	
2621	0	32952	
2622	0	33088	
2623	0	33212	
2624	0	33316	
2625	0	33408	
2626	0	33452	
2627	0	33432	
2628	0	33472	
2629	0	33488	
2630	0	33476	
2631	0	33476	
2632	0	33440	
2633	0	33428	
2634	0	33392	
2635	0	33304	
2636	0	33240	
2637	0	33194	
2638	0	33124	
2639	0	32984	
2640	0	32888	
2641	0	32826	
2642	0	32768	
2643	0	32800	
2644	0	32912	
2645	0	33044	
2646	0	33152	
2647	0	33276	
2648	0	33364	
2649	0	33336	
2650	0	33248	
2651	0	33192	
2652	0	33184	
2653	0	33188	
2654	0	33100	
2655	0	32972	
2656	0	32852	
2657	0	32812	
2658	0	32720	
2659	0	32644	
2660	0	32676	
2661	0	32786	
2662	0	32976	
2663	0	33164	
2664	0	33228	
2665	0	33260	
2666	0	33240	
2667	0	33192	
2668	0	33088	
2669	0	32996	
2670	0	32948	
2671	0	32948	
2672	0	32992	
2673	0	32988	
2674	0	32976	
2675	0	32972	
2676	0	32974	
2677	0	32949	
2678	0	32856	
2679	0	32752	
2680	0	32692	
2681	0	32700	
2682	0	32832	
2683	0	33040	
2684	0	33280	
2685	0	33484	
2686	0	33692	
2687	0	33868	
2688	0	34076	
2689	0	34264	
2690	0	34336	
2691	0	34304	
2692	0	34220	
2693	0	34020	
2694	0	33696	
2695	0	33376	
2696	0	33180	
2697	0	33184	
2698	0	33304	
2699	0	33456	
2700	0	33640	
2701	0	33744	
2702	0	33732	
2703	0	33764	
2704	0	33916	
2705	0	34148	
2706	0	34368	
2707	0	34512	
2708	0	34672	
2709	0	34888	
2710	0	35112	
2711	0	35336	
2712	0	35520	
2713	0	35664	
2714	0	35828	
2715	0	36020	
2716	0	36104	
2717	0	36132	
2718	0	36110	
2719	0	36228	
2720	0	36496	
2721	0	36808	
2722	0	37064	
2723	0	37332	
2724	0	37616	
2725	0	37824	
2726	0	37892	
2727	0	37880	
2728	0	37880	
2729	0	37988	
2730	0	38100	
2731	0	38136	
2732	0	38120	
2733	0	38136	
2734	0	38152	
2735	0	38164	
2736	0	38172	
2737	0	38176	
2738	0	38184	
2739	0	38192	
2740	0	38180	
2741	0	38092	
2742	0	37856	
2743	0	37508	
2744	0	37144	
2745	0	36848	
2746	0	36588	
2747	0	36368	
2748	0	36180	
2749	0	35944	
2750	0	35608	
2751	0	35248	
2752	0	34856	
2753	0	34544	
2754	0	34288	
2755	0	34008	
2756	0	33684	
2757	0	33368	
2758	0	33068	
2759	0	32864	
2760	0	32696	
2761	0	32496	
2762	0	32292	
2763	0	32206	
2764	0	32232	
2765	0	32272	
2766	0	32220	
2767	0	32128	
2768	0	32000	
2769	0	31832	
2770	0	31616	
2771	0	31420	
2772	0	31238	
2773	0	31044	
2774	0	30876	
2775	0	30748	
2776	0	30740	
2777	0	30796	
2778	0	30824	
2779	0	30808	
2780	0	30874	
2781	0	30980	
2782	0	31072	
2783	0	31136	
2784	0	31136	
2785	0	31164	
2786	0	31236	
2787	0	31264	
2788	0	31216	
2789	0	31128	
2790	0	31002	
2791	0	30920	
2792	0	30864	
2793	0	30840	
2794	0	30808	
2795	0	30792	
2796	0	30736	
2797	0	30724	
2798	0	30796	
2799	0	30914	
2800	0	31064	
2801	0	31156	
2802	0	31216	
2803	0	31264	
2804	0	31260	
2805	0	31232	
2806	0	31144	
2807	0	30976	
2808	0	30720	
2809	0	30408	
2810	0	30226	
2811	0	30112	
2812	0	29972	
2813	0	29828	
2814	0	29704	
2815	0	29592	
2816	0	29472	
2817	0	29346	
2818	0	29228	
2819	0	29116	
2820	0	29232	
2821	0	29540	
2822	0	29996	
2823	0	30608	
2824	0	31384	
2825	0	32272	
2826	0	33388	
2827	0	34820	
2828	0	36368	
2829	0	38224	
2830	0	40552	
2831	0	43312	
2832	0	46356	
2833	0	49680	
2834	0	53460	
2835	0	57620	
2836	0	61228	
2837	0	63224	
2838	0	64236	
2839	0	64752	
2840	0	64960	
2841	0	65048	
2842	0	65008	
2843	0	64952	
2844	0	64840	
2845	0	64736	
2846	0	64616	
2847	0	64512	
2848	0	64376	
2849	0	64264	
2850	0	64152	
2851	0	64024	
2852	0	63904	
2853	0	63776	
2854	0	63668	
2855	0	63536	
2856	0	63420	
2857	0	63300	
2858	0	63184	
2859	0	63076	
2860	0	62952	
2861	0	62848	
2862	0	62640	
2863	0	56824	
2864	0	51240	
2865	0	45692	
2866	0	40864	
2867	0	37112	
2868	0	34308	
2869	0	32328	
2870	0	30932	
2871	0	29896	
2872	0	28968	
2873	0	28068	
2874	0	27300	
2875	0	26728	
2876	0	26216	
2877	0	25698	
2878	0	25248	
2879	0	24846	
2880	0	24392	
2881	0	23916	
2882	0	23472	
2883	0	23104	
2884	0	22816	
2885	0	22552	
2886	0	22284	
2887	0	22080	
2888	0	21880	
2889	0	21728	
2890	0	21588	
2891	0	21464	
2892	0	21412	
2893	0	21412	
2894	0	21428	
2895	0	21488	
2896	0	21552	
2897	0	21584	
2898	0	21562	
2899	0	21536	
2900	0	21528	
2901	0	21508	
2902	0	21436	
2903	0	21320	
2904	0	21158	
2905	0	21044	
2906	0	21050	
2907	0	21130	
2908	0	21248	
2909	0	21352	
2910	0	21452	
2911	0	21476	
2912	0	21552	
2913	0	21696	
2914	0	21780	
2915	0	21780	
2916	0	21750	
2917	0	21796	
2918	0	21960	
2919	0	22128	
2920	0	22148	
2921	0	22104	
2922	0	22052	
2923	0	22044	
2924	0	22114	
2925	0	22292	
2926	0	22500	
2927	0	22620	
2928	0	22626	
2929	0	22636	
2930	0	22768	
2931	0	22984	
2932	0	23220	
2933	0	23458	
2934	0	23608	
2935	0	23676	
2936	0	23700	
2937	0	23752	
2938	0	23742	
2939	0	23682	
2940	0	23638	
2941	0	23704	
2942	0	23920	
2943	0	24160	
2944	0	24384	
2945	0	24596	
2946	0	24864	
2947	0	25116	
2948	0	25340	
2949	0	25460	
2950	0	25436	
2951	0	25372	
2952	0	25324	
2953	0	25352	
2954	0	25460	
2955	0	25624	
2956	0	25796	
2957	0	25928	
2958	0	25980	
2959	0	26048	
2960	0	26080	
2961	0	26092	
2962	0	26108	
2963	0	26200	
2964	0	26288	
2965	0	26352	
2966	0	26384	
2967	0	26424	
2968	0	26524	
2969	0	26664	
2970	0	26792	
2971	0	26856	
2972	0	26924	
2973	0	27012	
2974	0	27104	
2975	0	27166	
2976	0	27244	
2977	0	27314	
2978	0	27468	
2979	0	27624	
2980	0	27752	
2981	0	27860	
2982	0	27912	
2983	0	27940	
2984	0	27992	
2985	0	27976	
2986	0	27968	
2987	0	28016	
2988	0	28096	
2989	0	28184	
2990	0	28280	
2991	0	28424	
2992	0	28596	
2993	0	28794	
2994	0	28964	
2995	0	29116	
2996	0	29268	
2997	0	29440	
2998	0	29604	
2999	0	29722	
3000	0	29780	
3001	0	29802	
3002	0	29792	
3003	0	29800	
3004	0	29800	
3005	0	29780	
3006	0	29698	
3007	0	29608	
3008	0	29628	
3009	0	29744	
3010	0	29888	
3011	0	30088	
3012	0	30280	
3013	0	30456	
3014	0	30616	
3015	0	30808	
3016	0	30952	
3017	0	30996	
3018	0	30944	
3019	0	30792	
3020	0	30632	
3021	0	30554	
3022	0	30624	
3023	0	30816	
3024	0	31060	
3025	0	31266	
3026	0	31432	
3027	0	31584	
3028	0	31720	
3029	0	31842	
3030	0	31928	
3031	0	31980	
3032	0	31972	
3033	0	31932	
3034	0	31920	
3035	0	31916	
3036	0	31908	
3037	0	31880	
3038	0	31788	
3039	0	31680	
3040	0	31584	
3041	0	31472	
3042	0	31404	
3043	0	31400	
3044	0	31432	
3045	0	31516	
3046	0	31604	
3047	0	31704	
3048	0	31804	
3049	0	31874	
3050	0	31948	
3051	0	32032	
3052	0	32104	
3053	0	32148	
3054	0	32212	
3055	0	32280	
3056	0	32288	
3057	0	32232	
3058	0	32168	
3059	0	32184	
3060	0	32236	
3061	0	32304	
3062	0	32320	
3063	0	32324	
3064	0	32344	
3065	0	32384	
3066	0	32424	
3067	0	32448	
3068	0	32472	
3069	0	32552	
3070	0	32614	
3071	0	32652	
3072	0	32704	
3073	0	32832	
3074	0	32984	
3075	0	33084	
3076	0	33132	
3077	0	33156	
3078	0	33130	
3079	0	33028	
3080	0	32944	
3081	0	32896	
3082	0	32860	
3083	0	32812	
3084	0	32772	
3085	0	32760	
3086	0	32760	
3087	0	32756	
3088	0	32674	
3089	0	32504	
3090	0	32380	
3091	0	32376	
3092	0	32368	
3093	0	32320	
3094	0	32328	
3095	0	32376	
3096	0	32440	
3097	0	32512	
3098	0	32568	
3099	0	32578	
3100	0	32508	
3101	0	32424	
3102	0	32420	
3103	0	32508	
3104	0	32560	
3105	0	32544	
3106	0	32432	
3107	0	32308	
3108	0	32196	
3109	0	32088	
3110	0	31912	
3111	0	31744	
3112	0	31636	
3113	0	31608	
3114	0	31616	
3115	0	31608	
3116	0	31612	
3117	0	31648	
3118	0	31636	
3119	0	31604	
3120	0	31568	
3121	0	31548	
3122	0	31552	
3123	0	31620	
3124	0	31716	
3125	0	31772	
3126	0	31784	
3127	0	31760	
3128	0	31752	
3129	0	31736	
3130	0	31700	
3131	0	31672	
3132	0	31636	
3133	0	31620	
3134	0	31612	
3135	0	31572	
3136	0	31572	
3137	0	31620	
3138	0	31720	
3139	0	31840	
3140	0	31904	
3141	0	31968	
3142	0	32012	
3143	0	32020	
3144	0	31976	
3145	0	31872	
3146	0	31704	
3147	0	31600	
3148	0	31540	
3149	0	31480	
3150	0	31536	
3151	0	31634	
3152	0	31776	
3153	0	31932	
3154	0	32144	
3155	0	32352	
3156	0	32520	
3157	0	32684	
3158	0	32808	
3159	0	32832	
3160	0	32833	
3161	0	32840	
3162	0	32868	
3163	0	32896	
3164	0	32872	
3165	0	32864	
3166	0	32844	
3167	0	32864	
3168	0	32910	
3169	0	32956	
3170	0	32996	
3171	0	33024	
3172	0	33054	
3173	0	33056	
3174	0	33020	
3175	0	32962	
3176	0	32928	
3177	0	32900	
3178	0	32872	
3179	0	32888	
3180	0	32920	
3181	0	32940	
3182	0	32992	
3183	0	33108	
3184	0	33234	
3185	0	33380	
3186	0	33548	
3187	0	33668	
3188	0	33712	
3189	0	33716	
3190	0	33684	
3191	0	33604	
3192	0	33500	
3193	0	33412	
3194	0	33344	
3195	0	33296	
3196	0	33268	
3197	0	33256	
3198	0	33292	
3199	0	33370	
3200	0	33468	
3201	0	33512	
3202	0	33484	
3203	0	33448	
3204	0	33420	
3205	0	33392	
3206	0	33360	
3207	0	33380	
3208	0	33410	
3209	0	33452	
3210	0	33488	
3211	0	33472	
3212	0	33412	
3213	0	33340	
3214	0	33308	
3215	0	33256	
3216	0	33212	
3217	0	33212	
3218	0	33204	
3219	0	33192	
3220	0	33228	
3221	0	33312	
3222	0	33416	
3223	0	33498	
3224	0	33560	
3225	0	33594	
3226	0	33608	
3227	0	33624	
3228	0	33640	
3229	0	33636	
3230	0	33600	
3231	0	33544	
3232	0	33500	
3233	0	33468	
3234	0	33440	
3235	0	33448	
3236	0	33444	
3237	0	33380	
3238	0	33292	
3239	0	33232	
3240	0	33192	
3241	0	33202	
3242	0	33256	
3243	0	33332	
3244	0	33380	
3245	0	33408	
3246	0	33424	
3247	0	33480	
3248	0	33504	
3249	0	33532	
3250	0	33520	
3251	0	33460	
3252	0	33372	
3253	0	33304	
3254	0	33292	
3255	0	33344	
3256	0	33388	
3257	0	33380	
3258	0	33312	
3259	0	33236	
3260	0	33184	
3261	0	33120	
3262	0	33064	
3263	0	32988	
3264	0	32880	
3265	0	32800	
3266	0	32784	
3267	0	32840	
3268	0	32968	
3269	0	33016	
3270	0	33016	
3271	0	33020	
3272	0	33000	
3273	0	32928	
3274	0	32892	
3275	0	32900	
3276	0	32928	
3277	0	32962	
3278	0	33038	
3279	0	33096	
3280	0	33136	
3281	0	33180	
3282	0	33210	
3283	0	33268	
3284	0	33320	
3285	0	33328	
3286	0	33344	
3287	0	33344	
3288	0	33292	
3289	0	33244	
3290	0	33228	
3291	0	33262	
3292	0	33320	
3293	0	33464	
3294	0	33668	
3295	0	33884	
3296	0	34080	
3297	0	34196	
3298	0	34304	
3299	0	34352	
3300	0	34332	
3301	0	34312	
3302	0	34276	
3303	0	34208	
3304	0	34128	
3305	0	34036	
3306	0	33920	
3307	0	33824	
3308	0	33752	
3309	0	33712	
3310	0	33704	
3311	0	33816	
3312	0	34000	
3313	0	34208	
3314	0	34456	
3315	0	34716	
3316	0	34984	
3317	0	35164	
3318	0	35352	
3319	0	35568	
3320	0	35828	
3321	0	36064	
3322	0	36264	
3323	0	36436	
3324	0	36552	
3325	0	36632	
3326	0	36720	
3327	0	36920	
3328	0	37134	
3329	0	37384	
3330	0	37532	
3331	0	37644	
3332	0	37760	
3333	0	37856	
3334	0	37952	
3335	0	38076	
3336	0	38236	
3337	0	38360	
3338	0	38456	
3339	0	38504	
3340	0	38464	
3341	0	38368	
3342	0	38264	
3343	0	38168	
3344	0	38056	
3345	0	37956	
3346	0	37912	
3347	0	37876	
3348	0	37700	
3349	0	37452	
3350	0	37168	
3351	0	36876	
3352	0	36634	
3353	0	36338	
3354	0	35956	
3355	0	35644	
3356	0	35372	
3357	0	35060	
3358	0	34752	
3359	0	34556	
3360	0	34376	
3361	0	34192	
3362	0	33968	
3363	0	33720	
3364	0	33480	
3365	0	33284	
3366	0	33060	
3367	0	32804	
3368	0	32556	
3369	0	32372	
3370	0	32232	
3371	0	32060	
3372	0	31852	
3373	0	31656	
3374	0	31540	
3375	0	31408	
3376	0	31228	
3377	0	31146	
3378	0	31148	
3379	0	31176	
3380	0	31200	
3381	0	31204	
3382	0	31256	
3383	0	31320	
3384	0	31280	
3385	0	31168	
3386	0	31070	
3387	0	30996	
3388	0	30912	
3389	0	30868	
3390	0	31000	
3391	0	31008	
3392	0	30860	
3393	0	30888	
3394	0	30932	
3395	0	30930	
3396	0	30944	
3397	0	31048	
3398	0	31184	
3399	0	31200	
3400	0	31186	
3401	0	31128	
3402	0	31064	
3403	0	31068	
3404	0	31068	
3405	0	31082	
3406	0	31064	
3407	0	31028	
3408	0	30944	
3409	0	30874	
3410	0	30840	
3411	0	30840	
3412	0	30812	
3413	0	30740	
3414	0	30634	
3415	0	30560	
3416	0	30512	
3417	0	30456	
3418	0	30396	
3419	0	30352	
3420	0	30300	
3421	0	30180	
3422	0	29984	
3423	0	29772	
3424	0	29548	
3425	0	29370	
3426	0	29378	
3427	0	29568	
3428	0	29878	
3429	0	30426	
3430	0	31212	
3431	0	32132	
3432	0	33250	
3433	0	34652	
3434	0	36276	
3435	0	38196	
3436	0	40668	
3437	0	43500	
3438	0	46592	
3439	0	49888	
3440	0	53568	
3441	0	57600	
3442	0	61276	
3443	0	63348	
3444	0	64416	
3445	0	64948	
3446	0	65172	
3447	0	65236	
3448	0	65224	
3449	0	65152	
3450	0	65056	
3451	0	64940	
3452	0	64820	
3453	0	64704	
3454	0	64588	
3455	0	64476	
3456	0	64348	
3457	0	64224	
3458	0	64108	
3459	0	63988	
3460	0	63860	
3461	0	63744	
3462	0	63604	
3463	0	63488	
3464	0	63380	
3465	0	63252	
3466	0	63148	
3467	0	63036	
3468	0	62936	
3469	0	57480	
3470	0	52064	
3471	0	46744	
3472	0	42096	
3473	0	38408	
3474	0	35480	
3475	0	33148	
3476	0	31280	
3477	0	29776	
3478	0	28548	
3479	0	27616	
3480	0	26952	
3481	0	26452	
3482	0	26024	
3483	0	25640	
3484	0	25272	
3485	0	24864	
3486	0	24444	
3487	0	24062	
3488	0	23736	
3489	0	23452	
3490	0	23180	
3491	0	22960	
3492	0	22772	
3493	0	22568	
3494	0	22412	
3495	0	22216	
3496	0	22064	
3497	0	21940	
3498	0	21858	
3499	0	21788	
3500	0	21694	
3501	0	21592	
3502	0	21522	
3503	0	21504	
3504	0	21484	
3505	0	21488	
3506	0	21476	
3507	0	21466	
3508	0	21422	
3509	0	21368	
3510	0	21312	
3511	0	21312	
3512	0	21380	
3513	0	21448	
3514	0	21472	
3515	0	21474	
3516	0	21522	
3517	0	21588	
3518	0	21676	
3519	0	21732	
3520	0	21804	
3521	0	21866	
3522	0	21904	
3523	0	21960	
3524	0	22028	
3525	0	22088	
3526	0	22176	
3527	0	22272	
3528	0	22396	
3529	0	22514	
3530	0	22602	
3531	0	22682	
3532	0	22736	
3533	0	22824	
3534	0	22914	
3535	0	23038	
3536	0	23180	
3537	0	23328	
3538	0	23472	
3539	0	23580	
3540	0	23668	
3541	0	23756	
3542	0	23884	
3543	0	23974	
3544	0	24052	
3545	0	24152	
3546	0	24240	
3547	0	24312	
3548	0	24332	
3549	0	24404	
3550	0	24456	
3551	0	24488	
3552	0	24526	
3553	0	24580	
3554	0	24696	
3555	0	24838	
3556	0	24996	
3557	0	25112	
3558	0	25216	
3559	0	25328	
3560	0	25420	
3561	0	25520	
3562	0	25604	
3563	0	25696	
3564	0	25748	
3565	0	25764	
3566	0	25792	
3567	0	25852	
3568	0	25940	
3569	0	26048	
3570	0	26156	
3571	0	26288	
3572	0	26440	
3573	0	26580	
3574	0	26720	
3575	0	26828	
3576	0	26920	
3577	0	27000	
3578	0	27056	
3579	0	27114	
3580	0	27172	
3581	0	27184	
3582	0	27200	
3583	0	27240	
3584	0	27296	
3585	0	27352	
3586	0	27452	
3587	0	27560	
3588	0	27688	
3589	0	27792	
3590	0	27864	
3591	0	27996	
3592	0	28108	
3593	0	28208	
3594	0	28276	
3595	0	28374	
3596	0	28420	
3597	0	28458	
3598	0	28496	
3599	0	28526	
3600	0	28584	
3601	0	28652	
3602	0	28736	
3603	0	28844	
3604	0	28976	
3605	0	29098	
3606	0	29240	
3607	0	29360	
3608	0	29512	
3609	0	29636	
3610	0	29744	
3611	0	29832	
3612	0	29920	
3613	0	30000	
3614	0	30076	
3615	0	30140	
3616	0	30188	
3617	0	30228	
3618	0	30264	
3619	0	30288	
3620	0	30346	
3621	0	30408	
3622	0	30464	
3623	0	30560	
3624	0	30720	
3625	0	30860	
3626	0	30936	
3627	0	30990	
3628	0	31048	
3629	0	31100	
3630	0	31160	
3631	0	31164	
3632	0	31196	
3633	0	31260	
3634	0	31328	
3635	0	31384	
3636	0	31432	
3637	0	31512	
3638	0	31592	
3639	0	31664	
3640	0	31716	
3641	0	31752	
3642	0	31756	
3643	0	31738	
3644	0	31704	
3645	0	31662	
3646	0	31656	
3647	0	31656	
3648	0	31680	
3649	0	31676	
3650	0	31664	
3651	0	31680	
3652	0	31712	
3653	0	31776	
3654	0	31828	
3655	0	31864	
3656	0	31866	
3657	0	31852	
3658	0	31848	
3659	0	31904	
3660	0	31964	
3661	0	31996	
3662	0	32032	
3663	0	32076	
3664	0	32128	
3665	0	32192	
3666	0	32216	
3667	0	32264	
3668	0	32324	
3669	0	32396	
3670	0	32472	
3671	0	32560	
3672	0	32602	
3673	0	32656	
3674	0	32716	
3675	0	32772	
3676	0	32808	
3677	0	32856	
3678	0	32896	
3679	0	32912	
3680	0	32924	
3681	0	32960	
3682	0	33008	
3683	0	33036	
3684	0	33024	
3685	0	33028	
3686	0	33008	
3687	0	32984	
3688	0	32944	
3689	0	32912	
3690	0	32868	
3691	0	32860	
3692	0	32864	
3693	0	32856	
3694	0	32836	
3695	0	32794	
3696	0	32788	
3697	0	32776	
3698	0	32762	
3699	0	32704	
3700	0	32656	
3701	0	32636	
3702	0	32616	
3703	0	32572	
3704	0	32514	
3705	0	32452	
3706	0	32400	
3707	0	32372	
3708	0	32364	
3709	0	32344	
3710	0	32320	
3711	0	32308	
3712	0	32276	
3713	0	32236	
3714	0	32188	
3715	0	32156	
3716	0	32120	
3717	0	32104	
3718	0	32110	
3719	0	32076	
3720	0	32056	
3721	0	32004	
3722	0	31962	
3723	0	31936	
3724	0	31940	
3725	0	31944	
3726	0	31944	
3727	0	31932	
3728	0	31928	
3729	0	31912	
3730	0	31888	
3731	0	31880	
3732	0	31856	
3733	0	31872	
3734	0	31868	
3735	0	31880	
3736	0	31900	
3737	0	31876	
3738	0	31852	
3739	0	31832	
3740	0	31808	
3741	0	31820	
3742	0	31840	
3743	0	31824	
3744	0	31826	
3745	0	31824	
3746	0	31840	
3747	0	31856	
3748	0	31904	
3749	0	31952	
3750	0	32000	
3751	0	32044	
3752	0	32084	
3753	0	32168	
3754	0	32276	
3755	0	32324	
3756	0	32388	
3757	0	32432	
3758	0	32436	
3759	0	32472	
3760	0	32516	
3761	0	32522	
3762	0	32560	
3763	0	32592	
3764	0	32634	
3765	0	32704	
3766	0	32744	
3767	0	32792	
3768	0	32824	
3769	0	32848	
3770	0	32884	
3771	0	32952	
3772	0	33012	
3773	0	33048	
3774	0	33048	
3775	0	33060	
3776	0	33104	
3777	0	33124	
3778	0	33140	
3779	0	33182	
3780	0	33202	
3781	0	33228	
3782	0	33240	
3783	0	33236	
3784	0	33256	
3785	0	33258	
3786	0	33260	
3787	0	33284	
3788	0	33316	
3789	0	33356	
3790	0	33380	
3791	0	33392	
3792	0	33420	
3793	0	33452	
3794	0	33484	
3795	0	33496	
3796	0	33504	
3797	0	33488	
3798	0	33476	
3799	0	33460	
3800	0	33484	
3801	0	33500	
3802	0	33480	
3803	0	33496	
3804	0	33500	
3805	0	33500	
3806	0	33508	
3807	0	33500	
3808	0	33508	
3809	0	33488	
3810	0	33496	
3811	0	33496	
3812	0	33492	
3813	0	33448	
3814	0	33428	
3815	0	33436	
3816	0	33424	
3817	0	33408	
3818	0	33408	
3819	0	33414	
3820	0	33440	
3821	0	33448	
3822	0	33428	
3823	0	33408	
3824	0	33400	
3825	0	33388	
3826	0	33344	
3827	0	33324	
3828	0	33320	
3829	0	33316	
3830	0	33328	
3831	0	33362	
3832	0	33400	
3833	0	33396	
3834	0	33380	
3835	0	33370	
3836	0	33360	
3837	0	33340	
3838	0	33296	
3839	0	33308	
3840	0	33316	
3841	0	33312	
3842	0	33312	
3843	0	33328	
3844	0	33324	
3845	0	33296	
3846	0	33284	
3847	0	33272	
3848	0	33276	
3849	0	33284	
3850	0	33272	
3851	0	33232	
3852	0	33208	
3853	0	33168	
3854	0	33148	
3855	0	33128	
3856	0	33144	
3857	0	33146	
3858	0	33148	
3859	0	33156	
3860	0	33146	
3861	0	33152	
3862	0	33148	
3863	0	33160	
3864	0	33152	
3865	0	33158	
3866	0	33136	
3867	0	33100	
3868	0	33068	
3869	0	33040	
3870	0	33024	
3871	0	33016	
3872	0	33040	
3873	0	33016	
3874	0	32992	
3875	0	32952	
3876	0	32936	
3877	0	32924	
3878	0	32942	
3879	0	32980	
3880	0	33004	
3881	0	33020	
3882	0	33028	
3883	0	33004	
3884	0	32964	
3885	0	32944	
3886	0	32920	
3887	0	32898	
3888	0	32910	
3889	0	32940	
3890	0	32964	
3891	0	32976	
3892	0	32992	
3893	0	33034	
3894	0	33092	
3895	0	33172	
3896	0	33260	
3897	0	33388	
3898	0	33504	
3899	0	33636	
3900	0	33816	
3901	0	33988	
3902	0	34132	
3903	0	34264	
3904	0	34352	
3905	0	34388	
3906	0	34388	
3907	0	34372	
3908	0	34328	
3909	0	34292	
3910	0	34208	
3911	0	34116	
3912	0	33998	
3913	0	33884	
3914	0	33800	
3915	0	33788	
3916	0	33832	
3917	0	33896	
3918	0	34052	
3919	0	34292	
3920	0	34540	
3921	0	34804	
3922	0	35076	
3923	0	35308	
3924	0	35532	
3925	0	35784	
3926	0	36080	
3927	0	36352	
3928	0	36564	
3929	0	36732	
3930	0	36876	
3931	0	36976	
3932	0	37080	
3933	0	37276	
3934	0	37468	
3935	0	37624	
3936	0	37728	
3937	0	37788	
3938	0	37856	
3939	0	37930	
3940	0	37968	
3941	0	38024	
3942	0	38130	
3943	0	38218	
3944	0	38248	
3945	0	38240	
3946	0	38236	
3947	0	38212	
3948	0	38208	
3949	0	38180	
3950	0	38148	
3951	0	38088	
3952	0	38012	
3953	0	37916	
3954	0	37756	
3955	0	37592	
3956	0	37336	
3957	0	37052	
3958	0	36784	
3959	0	36552	
3960	0	36296	
3961	0	36048	
3962	0	35784	
3963	0	35528	
3964	0	35212	
3965	0	34884	
3966	0	34592	
3967	0	34316	
3968	0	34000	
3969	0	33660	
3970	0	33316	
3971	0	33028	
3972	0	32728	
3973	0	32480	
3974	0	32264	
3975	0	32082	
3976	0	31916	
3977	0	31776	
3978	0	31644	
3979	0	31532	
3980	0	31416	
3981	0	31292	
3982	0	31196	
3983	0	31112	
3984	0	31044	
3985	0	31022	
3986	0	31008	
3987	0	31012	
3988	0	31004	
3989	0	30988	
3990	0	30976	
3991	0	30940	
3992	0	30888	
3993	0	30864	
3994	0	30820	
3995	0	30796	
3996	0	30784	
3997	0	30740	
3998	0	30700	
3999	0	30676	
4000	0	30661	
4001	0	30640	
4002	0	30636	
4003	0	30620	
4004	0	30616	
4005	0	30616	
4006	0	30624	
4007	0	30688	
4008	0	30736	
4009	0	30786	
4010	0	30808	
4011	0	30816	
4012	0	30820	
4013	0	30824	
4014	0	30840	
4015	0	30800	
4016	0	30736	
4017	0	30680	
4018	0	30600	
4019	0	30508	
4020	0	30404	
4021	0	30300	
4022	0	30156	
4023	0	30024	
4024	0	29866	
4025	0	29704	
4026	0	29572	
4027	0	29424	
4028	0	29220	
4029	0	29002	
4030	0	28840	
4031	0	28776	
4032	0	28797	
4033	0	28928	
4034	0	29202	
4035	0	29688	
4036	0	30356	
4037	0	31200	
4038	0	32176	
4039	0	33460	
4040	0	35136	
4041	0	37124	
4042	0	39564	
4043	0	42356	
4044	0	45404	
4045	0	48644	
4046	0	52104	
4047	0	55820	
4048	0	59668	
4049	0	62528	
4050	0	64084	
4051	0	64864	
4052	0	65232	
4053	0	65368	
4054	0	65404	
4055	0	65360	
4056	0	65256	
4057	0	65160	
4058	0	65048	
4059	0	64932	
4060	0	64824	
4061	0	64688	
4062	0	64560	
4063	0	64436	
4064	0	64328	
4065	0	64196	
4066	0	64076	
4067	0	63936	
4068	0	63840	
4069	0	63712	
4070	0	63612	
4071	0	63480	
4072	0	63352	
4073	0	63252	
4074	0	63120	
4075	0	60888	
4076	0	55576	
4077	0	50408	
4078	0	45520	
4079	0	41268	
4080	0	37696	
4081	0	34672	
4082	0	32112	
4083	0	30052	
4084	0	28588	
4085	0	27588	
4086	0	26904	
4087	0	26356	
4088	0	25868	
4089	0	25436	
4090	0	25036	
4091	0	24686	
4092	0	24308	
4093	0	23944	
4094	0	23648	
4095	0	23386	
4096	0	23132	
4097	0	22904	
4098	0	22698	
4099	0	22508	
4100	0	22320	
4101	0	22154	
4102	0	22000	
4103	0	21860	
4104	0	21754	
4105	0	21642	
4106	0	21520	
4107	0	21428	
4108	0	21370	
4109	0	21332	
4110	0	21300	
4111	0	21280	
4112	0	21268	
4113	0	21256	
4114	0	21260	
4115	0	21288	
4116	0	21312	
4117	0	21344	
4118	0	21384	
4119	0	21384	
4120	0	21404	
4121	0	21440	
4122	0	21478	
4123	0	21536	
4124	0	21592	
4125	0	21688	
4126	0	21758	
4127	0	21810	
4128	0	21884	
4129	0	21968	
4130	0	22060	
4131	0	22160	
4132	0	22240	
4133	0	22316	
4134	0	22384	
4135	0	22460	
4136	0	22540	
4137	0	22640	
4138	0	22720	
4139	0	22812	
4140	0	22912	
4141	0	23026	
4142	0	23144	
4143	0	23248	
4144	0	23368	
4145	0	23472	
4146	0	23572	
4147	0	23661	
4148	0	23760	
4149	0	23856	
4150	0	23952	
4151	0	24044	
4152	0	24144	
4153	0	24224	
4154	0	24308	
4155	0	24392	
4156	0	24470	
4157	0	24576	
4158	0	24664	
4159	0	24750	
4160	0	24840	
4161	0	24960	
4162	0	25056	
4163	0	25120	
4164	0	25184	
4165	0	25256	
4166	0	25328	
4167	0	25412	
4168	0	25496	
4169	0	25584	
4170	0	25692	
4171	0	25772	
4172	0	25864	
4173	0	25960	
4174	0	26048	
4175	0	26124	
4176	0	26188	
4177	0	26264	
4178	0	26324	
4179	0	26384	
4180	0	26460	
4181	0	26528	
4182	0	26616	
4183	0	26712	
4184	0	26780	
4185	0	26872	
4186	0	26952	
4187	0	27060	
4188	0	27160	
4189	0	27252	
4190	0	27368	
4191	0	27464	
4192	0	27520	
4193	0	27588	
4194	0	27644	
4195	0	27734	
4196	0	27796	
4197	0	27872	
4198	0	27916	
4199	0	28004	
4200	0	28108	
4201	0	28178	
4202	0	28248	
4203	0	28340	
4204	0	28408	
4205	0	28468	
4206	0	28552	
4207	0	28664	
4208	0	28768	
4209	0	28852	
4210	0	28936	
4211	0	29024	
4212	0	29106	
4213	0	29190	
4214	0	29260	
4215	0	29320	
4216	0	29394	
4217	0	29464	
4218	0	29544	
4219	0	29652	
4220	0	29760	
4221	0	29860	
4222	0	29936	
4223	0	30020	
4224	0	30100	
4225	0	30200	
4226	0	30272	
4227	0	30364	
4228	0	30452	
4229	0	30546	
4230	0	30606	
4231	0	30644	
4232	0	30692	
4233	0	30752	
4234	0	30840	
4235	0	30926	
4236	0	31016	
4237	0	31084	
4238	0	31146	
4239	0	31194	
4240	0	31236	
4241	0	31296	
4242	0	31360	
4243	0	31424	
4244	0	31480	
4245	0	31536	
4246	0	31584	
4247	0	31628	
4248	0	31648	
4249	0	31704	
4250	0	31740	
4251	0	31772	
4252	0	31808	
4253	0	31812	
4254	0	31816	
4255	0	31832	
4256	0	31824	
4257	0	31844	
4258	0	31874	
4259	0	31916	
4260	0	31912	
4261	0	31944	
4262	0	31952	
4263	0	31944	
4264	0	31940	
4265	0	31948	
4266	0	31968	
4267	0	31988	
4268	0	32000	
4269	0	32004	
4270	0	32004	
4271	0	32032	
4272	0	32068	
4273	0	32108	
4274	0	32180	
4275	0	32260	
4276	0	32336	
4277	0	32440	
4278	0	32532	
4279	0	32616	
4280	0	32664	
4281	0	32748	
4282	0	32816	
4283	0	32864	
4284	0	32904	
4285	0	32976	
4286	0	33036	
4287	0	33080	
4288	0	33144	
4289	0	33220	
4290	0	33264	
4291	0	33268	
4292	0	33264	
4293	0	33252	
4294	0	33256	
4295	0	33224	
4296	0	33220	
4297	0	33188	
4298	0	33128	
4299	0	33062	
4300	0	33040	
4301	0	33004	
4302	0	32974	
4303	0	32928	
4304	0	32912	
4305	0	32890	
4306	0	32860	
4307	0	32800	
4308	0	32744	
4309	0	32712	
4310	0	32700	
4311	0	32652	
4312	0	32640	
4313	0	32616	
4314	0	32576	
4315	0	32548	
4316	0	32512	
4317	0	32472	
4318	0	32432	
4319	0	32384	
4320	0	32368	
4321	0	32336	
4322	0	32336	
4323	0	32312	
4324	0	32292	
4325	0	32288	
4326	0	32282	
4327	0	32244	
4328	0	32226	
4329	0	32220	
4330	0	32228	
4331	0	32204	
4332	0	32176	
4333	0	32140	
4334	0	32124	
4335	0	32140	
4336	0	32168	
4337	0	32172	
4338	0	32184	
4339	0	32192	
4340	0	32168	
4341	0	32156	
4342	0	32136	
4343	0	32140	
4344	0	32136	
4345	0	32176	
4346	0	32192	
4347	0	32228	
4348	0	32250	
4349	0	32256	
4350	0	32268	
4351	0	32272	
4352	0	32272	
4353	0	32272	
4354	0	32272	
4355	0	32304	
4356	0	32320	
4357	0	32352	
4358	0	32364	
4359	0	32384	
4360	0	32420	
4361	0	32456	
4362	0	32520	
4363	0	32580	
4364	0	32640	
4365	0	32696	
4366	0	32728	
4367	0	32792	
4368	0	32852	
4369	0	32912	
4370	0	32980	
4371	0	32992	
4372	0	33020	
4373	0	33056	
4374	0	33096	
4375	0	33120	
4376	0	33168	
4377	0	33192	
4378	0	33226	
4379	0	33248	
4380	0	33268	
4381	0	33292	
4382	0	33320	
4383	0	33356	
4384	0	33392	
4385	0	33408	
4386	0	33444	
4387	0	33472	
4388	0	33484	
4389	0	33504	
4390	0	33524	
4391	0	33528	
4392	0	33532	
4393	0	33532	
4394	0	33556	
4395	0	33558	
4396	0	33576	
4397	0	33596	
4398	0	33612	
4399	0	33620	
4400	0	33604	
4401	0	33600	
4402	0	33624	
4403	0	33640	
4404	0	33658	
4405	0	33680	
4406	0	33712	
4407	0	33736	
4408	0	33724	
4409	0	33708	
4410	0	33712	
4411	0	33714	
4412	0	33712	
4413	0	33700	
4414	0	33680	
4415	0	33640	
4416	0	33584	
4417	0	33604	
4418	0	33632	
4419	0	33664	
4420	0	33688	
4421	0	33704	
4422	0	33712	
4423	0	33704	
4424	0	33706	
4425	0	33700	
4426	0	33692	
4427	0	33664	
4428	0	33632	
4429	0	33600	
4430	0	33624	
4431	0	33592	
4432	0	33602	
4433	0	33604	
4434	0	33576	
4435	0	33552	
4436	0	33520	
4437	0	33520	
4438	0	33528	
4439	0	33540	
4440	0	33540	
4441	0	33548	
4442	0	33536	
4443	0	33520	
4444	0	33512	
4445	0	33498	
4446	0	33460	
4447	0	33448	
4448	0	33436	
4449	0	33424	
4450	0	33416	
4451	0	33428	
4452	0	33440	
4453	0	33432	
4454	0	33408	
4455	0	33418	
4456	0	33428	
4457	0	33425	
4458	0	33440	
4459	0	33452	
4460	0	33436	
4461	0	33422	
4462	0	33376	
4463	0	33376	
4464	0	33332	
4465	0	33312	
4466	0	33304	
4467	0	33308	
4468	0	33320	
4469	0	33324	
4470	0	33312	
4471	0	33300	
4472	0	33294	
4473	0	33304	
4474	0	33308	
4475	0	33298	
4476	0	33300	
4477	0	33304	
4478	0	33272	
4479	0	33264	
4480	0	33240	
4481	0	33226	
4482	0	33224	
4483	0	33242	
4484	0	33246	
4485	0	33256	
4486	0	33242	
4487	0	33228	
4488	0	33232	
4489	0	33224	
4490	0	33216	
4491	0	33210	
4492	0	33224	
4493	0	33218	
4494	0	33216	
4495	0	33208	
4496	0	33206	
4497	0	33184	
4498	0	33188	
4499	0	33184	
4500	0	33200	
4501	0	33220	
4502	0	33264	
4503	0	33340	
4504	0	33436	
4505	0	33576	
4506	0	33728	
4507	0	33892	
4508	0	34080	
4509	0	34286	
4510	0	34440	
4511	0	34592	
4512	0	34714	
4513	0	34780	
4514	0	34824	
4515	0	34824	
4516	0	34804	
4517	0	34768	
4518	0	34706	
4519	0	34632	
4520	0	34532	
4521	0	34408	
4522	0	34314	
4523	0	34220	
4524	0	34176	
4525	0	34184	
4526	0	34328	
4527	0	34548	
4528	0	34784	
4529	0	35032	
4530	0	35290	
4531	0	35556	
4532	0	35780	
4533	0	36032	
4534	0	36312	
4535	0	36604	
4536	0	36832	
4537	0	37036	
4538	0	37236	
4539	0	37344	
4540	0	37408	
4541	0	37544	
4542	0	37736	
4543	0	37896	
4544	0	38056	
4545	0	38160	
4546	0	38260	
4547	0	38336	
4548	0	38416	
4549	0	38522	
4550	0	38612	
4551	0	38672	
4552	0	38688	
4553	0	38672	
4554	0	38640	
4555	0	38636	
4556	0	38604	
4557	0	38534	
4558	0	38460	
4559	0	38356	
4560	0	38264	
4561	0	38132	
4562	0	38008	
4563	0	37826	
4564	0	37600	
4565	0	37328	
4566	0	37064	
4567	0	36812	
4568	0	36540	
4569	0	36260	
4570	0	35992	
4571	0	35732	
4572	0	35400	
4573	0	35068	
4574	0	34772	
4575	0	34488	
4576	0	34208	
4577	0	33884	
4578	0	33548	
4579	0	33236	
4580	0	32948	
4581	0	32692	
4582	0	32464	
4583	0	32236	
4584	0	32088	
4585	0	31928	
4586	0	31772	
4587	0	31648	
4588	0	31540	
4589	0	31452	
4590	0	31376	
4591	0	31308	
4592	0	31272	
4593	0	31200	
4594	0	31136	
4595	0	31120	
4596	0	31096	
4597	0	31080	
4598	0	31068	
4599	0	31049	
4600	0	31036	
4601	0	31008	
4602	0	30980	
4603	0	30984	
4604	0	30988	
4605	0	30976	
4606	0	30966	
4607	0	30932	
4608	0	30888	
4609	0	30864	
4610	0	30864	
4611	0	30872	
4612	0	30874	
4613	0	30884	
4614	0	30874	
4615	0	30868	
4616	0	30896	
4617	0	30932	
4618	0	30948	
4619	0	30956	
4620	0	30956	
4621	0	30956	
4622	0	30952	
4623	0	30936	
4624	0	30892	
4625	0	30828	
4626	0	30760	
4627	0	30700	
4628	0	30608	
4629	0	30496	
4630	0	30376	
4631	0	30232	
4632	0	30108	
4633	0	29960	
4634	0	29792	
4635	0	29646	
4636	0	29488	
4637	0	29248	
4638	0	28994	
4639	0	28848	
4640	0	28788	
4641	0	28832	
4642	0	28956	
4643	0	29236	
4644	0	29760	
4645	0	30452	
4646	0	31312	
4647	0	32332	
4648	0	33800	
4649	0	35612	
4650	0	37758	
4651	0	40388	
4652	0	43248	
4653	0	46408	
4654	0	49732	
4655	0	53272	
4656	0	57052	
4657	0	60784	
4658	0	63080	
4659	0	64288	
4660	0	64888	
4661	0	65160	
4662	0	65240	
4663	0	65248	
4664	0	65176	
4665	0	65080	
4666	0	64980	
4667	0	64872	
4668	0	64752	
4669	0	64632	
4670	0	64512	
4671	0	64384	
4672	0	64276	
4673	0	64144	
4674	0	64032	
4675	0	63904	
4676	0	63784	
4677	0	63658	
4678	0	63540	
4679	0	63420	
4680	0	63304	
4681	0	63200	
4682	0	63072	
4683	0	62960	
4684	0	58656	
4685	0	53472	
4686	0	48476	
4687	0	43868	
4688	0	39952	
4689	0	36640	
4690	0	33760	
4691	0	31388	
4692	0	29640	
4693	0	28448	
4694	0	27612	
4695	0	27008	
4696	0	26512	
4697	0	26072	
4698	0	25636	
4699	0	25212	
4700	0	24820	
4701	0	24456	
4702	0	24138	
4703	0	23880	
4704	0	23644	
4705	0	23402	
4706	0	23156	
4707	0	22928	
4708	0	22720	
4709	0	22512	
4710	0	22356	
4711	0	22212	
4712	0	22098	
4713	0	21976	
4714	0	21872	
4715	0	21772	
4716	0	21682	
4717	0	21600	
4718	0	21532	
4719	0	21460	
4720	0	21420	
4721	0	21412	
4722	0	21410	
4723	0	21420	
4724	0	21440	
4725	0	21466	
4726	0	21504	
4727	0	21564	
4728	0	21618	
4729	0	21665	
4730	0	21716	
4731	0	21744	
4732	0	21786	
4733	0	21836	
4734	0	21944	
4735	0	22028	
4736	0	22080	
4737	0	22146	
4738	0	22236	
4739	0	22322	
4740	0	22392	
4741	0	22472	
4742	0	22540	
4743	0	22632	
4744	0	22708	
4745	0	22800	
4746	0	22884	
4747	0	22960	
4748	0	23040	
4749	0	23140	
4750	0	23200	
4751	0	23298	
4752	0	23396	
4753	0	23472	
4754	0	23564	
4755	0	23652	
4756	0	23728	
4757	0	23826	
4758	0	23916	
4759	0	24020	
4760	0	24126	
4761	0	24206	
4762	0	24292	
4763	0	24380	
4764	0	24472	
4765	0	24584	
4766	0	24690	
4767	0	24784	
4768	0	24894	
4769	0	24972	
4770	0	25056	
4771	0	25152	
4772	0	25248	
4773	0	25344	
4774	0	25380	
4775	0	25450	
4776	0	25536	
4777	0	25624	
4778	0	25708	
4779	0	25784	
4780	0	25860	
4781	0	25916	
4782	0	26000	
4783	0	26084	
4784	0	26160	
4785	0	26212	
4786	0	26282	
4787	0	26360	
4788	0	26428	
4789	0	26508	
4790	0	26580	
4791	0	26688	
4792	0	26784	
4793	0	26844	
4794	0	26920	
4795	0	27008	
4796	0	27084	
4797	0	27162	
4798	0	27254	
4799	0	27352	
4800	0	27428	
4801	0	27504	
4802	0	27582	
4803	0	27664	
4804	0	27752	
4805	0	27828	
4806	0	27908	
4807	0	28008	
4808	0	28120	
4809	0	28228	
4810	0	28288	
4811	0	28372	
4812	0	28462	
4813	0	28532	
4814	0	28614	
4815	0	28684	
4816	0	28768	
4817	0	28876	
4818	0	28984	
4819	0	29044	
4820	0	29108	
4821	0	29188	
4822	0	29280	
4823	0	29376	
4824	0	29462	
4825	0	29554	
4826	0	29652	
4827	0	29728	
4828	0	29824	
4829	0	29904	
4830	0	30008	
4831	0	30096	
4832	0	30176	
4833	0	30248	
4834	0	30304	
4835	0	30364	
4836	0	30444	
4837	0	30516	
4838	0	30588	
4839	0	30656	
4840	0	30720	
4841	0	30816	
4842	0	30884	
4843	0	30924	
4844	0	30984	
4845	0	31032	
4846	0	31092	
4847	0	31148	
4848	0	31216	
4849	0	31284	
4850	0	31344	
4851	0	31388	
4852	0	31450	
4853	0	31496	
4854	0	31520	
4855	0	31568	
4856	0	31628	
4857	0	31672	
4858	0	31712	
4859	0	31728	
4860	0	31744	
4861	0	31748	
4862	0	31776	
4863	0	31788	
4864	0	31818	
4865	0	31848	
4866	0	31900	
4867	0	31904	
4868	0	31888	
4869	0	31868	
4870	0	31880	
4871	0	31900	
4872	0	31944	
4873	0	31960	
4874	0	31984	
4875	0	32008	
4876	0	32044	
4877	0	32082	
4878	0	32104	
4879	0	32124	
4880	0	32156	
4881	0	32216	
4882	0	32280	
4883	0	32320	
4884	0	32380	
4885	0	32460	
4886	0	32528	
4887	0	32588	
4888	0	32652	
4889	0	32724	
4890	0	32796	
4891	0	32876	
4892	0	32932	
4893	0	32996	
4894	0	33064	
4895	0	33148	
4896	0	33200	
4897	0	33244	
4898	0	33260	
4899	0	33276	
4900	0	33284	
4901	0	33272	
4902	0	33248	
4903	0	33240	
4904	0	33240	
4905	0	33220	
4906	0	33192	
4907	0	33184	
4908	0	33152	
4909	0	33120	
4910	0	33092	
4911	0	33040	
4912	0	33008	
4913	0	32976	
4914	0	32924	
4915	0	32906	
4916	0	32880	
4917	0	32844	
4918	0	32808	
4919	0	32756	
4920	0	32704	
4921	0	32668	
4922	0	32616	
4923	0	32576	
4924	0	32532	
4925	0	32508	
4926	0	32492	
4927	0	32464	
4928	0	32428	
4929	0	32392	
4930	0	32376	
4931	0	32352	
4932	0	32336	
4933	0	32316	
4934	0	32296	
4935	0	32268	
4936	0	32232	
4937	0	32212	
4938	0	32164	
4939	0	32120	
4940	0	32096	
4941	0	32100	
4942	0	32088	
4943	0	32080	
4944	0	32056	
4945	0	32036	
4946	0	32040	
4947	0	32040	
4948	0	32044	
4949	0	32060	
4950	0	32064	
4951	0	32094	
4952	0	32116	
4953	0	32124	
4954	0	32136	
4955	0	32132	
4956	0	32108	
4957	0	32096	
4958	0	32096	
4959	0	32104	
4960	0	32112	
4961	0	32164	
4962	0	32182	
4963	0	32204	
4964	0	32228	
4965	0	32288	
4966	0	32296	
4967	0	32352	
4968	0	32408	
4969	0	32472	
4970	0	32514	
4971	0	32552	
4972	0	32612	
4973	0	32656	
4974	0	32700	
4975	0	32736	
4976	0	32748	
4977	0	32792	
4978	0	32824	
4979	0	32864	
4980	0	32904	
4981	0	32948	
4982	0	32996	
4983	0	33032	
4984	0	33064	
4985	0	33076	
4986	0	33098	
4987	0	33120	
4988	0	33148	
4989	0	33176	
4990	0	33192	
4991	0	33232	
4992	0	33250	
4993	0	33280	
4994	0	33308	
4995	0	33332	
4996	0	33372	
4997	0	33364	
4998	0	33376	
4999	0	33400	
5000	0	33410	
5001	0	33416	
5002	0	33424	
5003	0	33440	
5004	0	33456	
5005	0	33456	
5006	0	33472	
5007	0	33508	
5008	0	33520	
5009	0	33548	
5010	0	33568	
5011	0	33568	
5012	0	33596	
5013	0	33604	
5014	0	33588	
5015	0	33568	
5016	0	33564	
5017	0	33588	
5018	0	33584	
5019	0	33584	
5020	0	33588	
5021	0	33600	
5022	0	33608	
5023	0	33612	
5024	0	33600	
5025	0	33588	
5026	0	33568	
5027	0	33568	
5028	0	33576	
5029	0	33588	
5030	0	33598	
5031	0	33612	
5032	0	33600	
5033	0	33576	
5034	0	33578	
5035	0	33570	
5036	0	33556	
5037	0	33564	
5038	0	33578	
5039	0	33564	
5040	0	33568	
5041	0	33576	
5042	0	33564	
5043	0	33530	
5044	0	33520	
5045	0	33528	
5046	0	33520	
5047	0	33512	
5048	0	33516	
5049	0	33536	
5050	0	33516	
5051	0	33496	
5052	0	33496	
5053	0	33472	
5054	0	33444	
5055	0	33448	
5056	0	33432	
5057	0	33410	
5058	0	33424	
5059	0	33440	
5060	0	33432	
5061	0	33436	
5062	0	33408	
5063	0	33404	
5064	0	33392	
5065	0	33396	
5066	0	33388	
5067	0	33356	
5068	0	33344	
5069	0	33344	
5070	0	33376	
5071	0	33372	
5072	0	33376	
5073	0	33372	
5074	0	33368	
5075	0	33352	
5076	0	33328	
5077	0	33324	
5078	0	33312	
5079	0	33296	
5080	0	33264	
5081	0	33240	
5082	0	33228	
5083	0	33216	
5084	0	33208	
5085	0	33224	
5086	0	33220	
5087	0	33208	
5088	0	33212	
5089	0	33228	
5090	0	33242	
5091	0	33240	
5092	0	33240	
5093	0	33208	
5094	0	33192	
5095	0	33194	
5096	0	33208	
5097	0	33208	
5098	0	33202	
5099	0	33168	
5100	0	33144	
5101	0	33100	
5102	0	33098	
5103	0	33116	
5104	0	33120	
5105	0	33120	
5106	0	33120	
5107	0	33104	
5108	0	33120	
5109	0	33132	
5110	0	33132	
5111	0	33132	
5112	0	33128	
5113	0	33108	
5114	0	33128	
5115	0	33144	
5116	0	33176	
5117	0	33202	
5118	0	33248	
5119	0	33304	
5120	0	33396	
5121	0	33544	
5122	0	33708	
5123	0	33888	
5124	0	34092	
5125	0	34284	
5126	0	34424	
5127	0	34548	
5128	0	34632	
5129	0	34696	
5130	0	34720	
5131	0	34728	
5132	0	34720	
5133	0	34696	
5134	0	34618	
5135	0	34522	
5136	0	34400	
5137	0	34272	
5138	0	34190	
5139	0	34152	
5140	0	34156	
5141	0	34216	
5142	0	34340	
5143	0	34552	
5144	0	34800	
5145	0	35096	
5146	0	35376	
5147	0	35644	
5148	0	35864	
5149	0	36128	
5150	0	36404	
5151	0	36640	
5152	0	36828	
5153	0	37036	
5154	0	37216	
5155	0	37336	
5156	0	37444	
5157	0	37592	
5158	0	37744	
5159	0	37888	
5160	0	38056	
5161	0	38176	
5162	0	38300	
5163	0	38380	
5164	0	38440	
5165	0	38524	
5166	0	38568	
5167	0	38588	
5168	0	38584	
5169	0	38552	
5170	0	38532	
5171	0	38504	
5172	0	38496	
5173	0	38448	
5174	0	38352	
5175	0	38240	
5176	0	38156	
5177	0	38048	
5178	0	37892	
5179	0	37680	
5180	0	37368	
5181	0	37096	
5182	0	36842	
5183	0	36584	
5184	0	36288	
5185	0	35984	
5186	0	35712	
5187	0	35428	
5188	0	35104	
5189	0	34792	
5190	0	34512	
5191	0	34228	
5192	0	33950	
5193	0	33672	
5194	0	33408	
5195	0	33156	
5196	0	32916	
5197	0	32672	
5198	0	32408	
5199	0	32192	
5200	0	32008	
5201	0	31854	
5202	0	31704	
5203	0	31584	
5204	0	31500	
5205	0	31400	
5206	0	31328	
5207	0	31272	
5208	0	31226	
5209	0	31188	
5210	0	31152	
5211	0	31140	
5212	0	31120	
5213	0	31092	
5214	0	31048	
5215	0	31032	
5216	0	30992	
5217	0	30984	
5218	0	30980	
5219	0	30986	
5220	0	30984	
5221	0	30952	
5222	0	30940	
5223	0	30916	
5224	0	30920	
5225	0	30910	
5226	0	30900	
5227	0	30908	
5228	0	30896	
5229	0	30856	
5230	0	30828	
5231	0	30840	
5232	0	30840	
5233	0	30844	
5234	0	30868	
5235	0	30880	
5236	0	30914	
5237	0	30938	
5238	0	30964	
5239	0	30964	
5240	0	30948	
5241	0	30920	
5242	0	30872	
5243	0	30796	
5244	0	30688	
5245	0	30540	
5246	0	30356	
5247	0	30170	
5248	0	29976	
5249	0	29826	
5250	0	29676	
5251	0	29536	
5252	0	29368	
5253	0	29156	
5254	0	28904	
5255	0	28744	
5256	0	28640	
5257	0	28604	
5258	0	28696	
5259	0	28920	
5260	0	29400	
5261	0	30092	
5262	0	30940	
5263	0	31972	
5264	0	33388	
5265	0	35108	
5266	0	37144	
5267	0	39708	
5268	0	42562	
5269	0	45672	
5270	0	48964	
5271	0	52532	
5272	0	56392	
5273	0	60264	
5274	0	62768	
5275	0	64064	
5276	0	64732	
5277	0	65028	
5278	0	65136	
5279	0	65128	
5280	0	65072	
5281	0	65000	
5282	0	64888	
5283	0	64776	
5284	0	64656	
5285	0	64548	
5286	0	64408	
5287	0	64280	
5288	0	64172	
5289	0	64052	
5290	0	63920	
5291	0	63804	
5292	0	63696	
5293	0	63568	
5294	0	63456	
5295	0	63336	
5296	0	63208	
5297	0	63104	
5298	0	62968	
5299	0	62680	
5300	0	57240	
5301	0	52204	
5302	0	47336	
5303	0	42976	
5304	0	39328	
5305	0	36306	
5306	0	33716	
5307	0	31564	
5308	0	29880	
5309	0	28677	
5310	0	27840	
5311	0	27252	
5312	0	26728	
5313	0	26252	
5314	0	25822	
5315	0	25392	
5316	0	24984	
5317	0	24584	
5318	0	24252	
5319	0	23962	
5320	0	23712	
5321	0	23476	
5322	0	23252	
5323	0	23040	
5324	0	22832	
5325	0	22646	
5326	0	22500	
5327	0	22340	
5328	0	22204	
5329	0	22080	
5330	0	21964	
5331	0	21870	
5332	0	21808	
5333	0	21776	
5334	0	21768	
5335	0	21738	
5336	0	21712	
5337	0	21688	
5338	0	21664	
5339	0	21652	
5340	0	21640	
5341	0	21656	
5342	0	21696	
5343	0	21753	
5344	0	21792	
5345	0	21794	
5346	0	21812	
5347	0	21856	
5348	0	21932	
5349	0	22000	
5350	0	22080	
5351	0	22144	
5352	0	22200	
5353	0	22272	
5354	0	22344	
5355	0	22416	
5356	0	22494	
5357	0	22560	
5358	0	22632	
5359	0	22728	
5360	0	22820	
5361	0	22904	
5362	0	23004	
5363	0	23096	
5364	0	23212	
5365	0	23292	
5366	0	23376	
5367	0	23476	
5368	0	23562	
5369	0	23640	
5370	0	23704	
5371	0	23812	
5372	0	23912	
5373	0	24006	
5374	0	24100	
5375	0	24196	
5376	0	24272	
5377	0	24356	
5378	0	24448	
5379	0	24540	
5380	0	24640	
5381	0	24720	
5382	0	24792	
5383	0	24888	
5384	0	24992	
5385	0	25094	
5386	0	25168	
5387	0	25272	
5388	0	25364	
5389	0	25456	
5390	0	25548	
5391	0	25636	
5392	0	25708	
5393	0	25792	
5394	0	25860	
5395	0	25936	
5396	0	26004	
5397	0	26088	
5398	0	26160	
5399	0	26252	
5400	0	26332	
5401	0	26400	
5402	0	26462	
5403	0	26512	
5404	0	26564	
5405	0	26648	
5406	0	26740	
5407	0	26816	
5408	0	26868	
5409	0	26952	
5410	0	27040	
5411	0	27136	
5412	0	27232	
5413	0	27304	
5414	0	27380	
5415	0	27472	
5416	0	27576	
5417	0	27672	
5418	0	27780	
5419	0	27842	
5420	0	27912	
5421	0	27984	
5422	0	28056	
5423	0	28136	
5424	0	28220	
5425	0	28320	
5426	0	28424	
5427	0	28508	
5428	0	28584	
5429	0	28680	
5430	0	28760	
5431	0	28836	
5432	0	28928	
5433	0	29028	
5434	0	29116	
5435	0	29216	
5436	0	29280	
5437	0	29344	
5438	0	29412	
5439	0	29488	
5440	0	29556	
5441	0	29640	
5442	0	29708	
5443	0	29772	
5444	0	29852	
5445	0	29920	
5446	0	29992	
5447	0	30080	
5448	0	30176	
5449	0	30284	
5450	0	30352	
5451	0	30432	
5452	0	30504	
5453	0	30612	
5454	0	30684	
5455	0	30764	
5456	0	30832	
5457	0	30888	
5458	0	30936	
5459	0	31016	
5460	0	31104	
5461	0	31172	
5462	0	31212	
5463	0	31280	
5464	0	31332	
5465	0	31376	
5466	0	31396	
5467	0	31460	
5468	0	31504	
5469	0	31530	
5470	0	31552	
5471	0	31604	
5472	0	31656	
5473	0	31692	
5474	0	31744	
5475	0	31760	
5476	0	31768	
5477	0	31788	
5478	0	31800	
5479	0	31820	
5480	0	31852	
5481	0	31852	
5482	0	31860	
5483	0	31872	
5484	0	31852	
5485	0	31840	
5486	0	31816	
5487	0	31848	
5488	0	31872	
5489	0	31904	
5490	0	31936	
5491	0	31940	
5492	0	31952	
5493	0	31964	
5494	0	32004	
5495	0	32032	
5496	0	32050	
5497	0	32080	
5498	0	32104	
5499	0	32152	
5500	0	32208	
5501	0	32288	
5502	0	32360	
5503	0	32444	
5504	0	32536	
5505	0	32620	
5506	0	32686	
5507	0	32752	
5508	0	32824	
5509	0	32880	
5510	0	32956	
5511	0	33012	
5512	0	33060	
5513	0	33096	
5514	0	33132	
5515	0	33172	
5516	0	33212	
5517	0	33212	
5518	0	33224	
5519	0	33252	
5520	0	33236	
5521	0	33224	
5522	0	33200	
5523	0	33156	
5524	0	33140	
5525	0	33144	
5526	0	33118	
5527	0	33080	
5528	0	33044	
5529	0	32988	
5530	0	32968	
5531	0	32932	
5532	0	32896	
5533	0	32860	
5534	0	32836	
5535	0	32816	
5536	0	32768	
5537	0	32748	
5538	0	32712	
5539	0	32660	
5540	0	32608	
5541	0	32548	
5542	0	32496	
5543	0	32434	
5544	0	32412	
5545	0	32405	
5546	0	32392	
5547	0	32352	
5548	0	32332	
5549	0	32316	
5550	0	32296	
5551	0	32296	
5552	0	32304	
5553	0	32300	
5554	0	32314	
5555	0	32304	
5556	0	32304	
5557	0	32304	
5558	0	32296	
5559	0	32280	
5560	0	32252	
5561	0	32228	
5562	0	32208	
5563	0	32208	
5564	0	32212	
5565	0	32228	
5566	0	32228	
5567	0	32212	
5568	0	32224	
5569	0	32232	
5570	0	32240	
5571	0	32256	
5572	0	32276	
5573	0	32292	
5574	0	32296	
5575	0	32306	
5576	0	32314	
5577	0	32336	
5578	0	32396	
5579	0	32418	
5580	0	32436	
5581	0	32448	
5582	0	32484	
5583	0	32512	
5584	0	32564	
5585	0	32632	
5586	0	32672	
5587	0	32694	
5588	0	32712	
5589	0	32780	
5590	0	32824	
5591	0	32856	
5592	0	32908	
5593	0	32968	
5594	0	32976	
5595	0	33012	
5596	0	33040	
5597	0	33088	
5598	0	33160	
5599	0	33208	
5600	0	33256	
5601	0	33284	
5602	0	33328	
5603	0	33360	
5604	0	33386	
5605	0	33376	
5606	0	33396	
5607	0	33392	
5608	0	33404	
5609	0	33432	
5610	0	33456	
5611	0	33504	
5612	0	33540	
5613	0	33536	
5614	0	33560	
5615	0	33608	
5616	0	33612	
5617	0	33636	
5618	0	33656	
5619	0	33676	
5620	0	33672	
5621	0	33668	
5622	0	33626	
5623	0	33616	
5624	0	33634	
5625	0	33628	
5626	0	33632	
5627	0	33660	
5628	0	33648	
5629	0	33648	
5630	0	33644	
5631	0	33672	
5632	0	33684	
5633	0	33712	
5634	0	33700	
5635	0	33692	
5636	0	33704	
5637	0	33692	
5638	0	33680	
5639	0	33640	
5640	0	33632	
5641	0	33640	
5642	0	33656	
5643	0	33676	
5644	0	33696	
5645	0	33736	
5646	0	33752	
5647	0	33744	
5648	0	33740	
5649	0	33740	
5650	0	33728	
5651	0	33704	
5652	0	33672	
5653	0	33672	
5654	0	33672	
5655	0	33676	
5656	0	33668	
5657	0	33642	
5658	0	33620	
5659	0	33628	
5660	0	33632	
5661	0	33640	
5662	0	33644	
5663	0	33592	
5664	0	33564	
5665	0	33544	
5666	0	33532	
5667	0	33496	
5668	0	33476	
5669	0	33456	
5670	0	33416	
5671	0	33392	
5672	0	33344	
5673	0	33320	
5674	0	33312	
5675	0	33288	
5676	0	33272	
5677	0	33268	
5678	0	33300	
5679	0	33340	
5680	0	33352	
5681	0	33368	
5682	0	33376	
5683	0	33376	
5684	0	33364	
5685	0	33352	
5686	0	33372	
5687	0	33394	
5688	0	33376	
5689	0	33368	
5690	0	33360	
5691	0	33372	
5692	0	33352	
5693	0	33356	
5694	0	33340	
5695	0	33304	
5696	0	33300	
5697	0	33316	
5698	0	33292	
5699	0	33260	
5700	0	33224	
5701	0	33200	
5702	0	33184	
5703	0	33164	
5704	0	33144	
5705	0	33128	
5706	0	33108	
5707	0	33092	
5708	0	33072	
5709	0	33064	
5710	0	33072	
5711	0	33092	
5712	0	33092	
5713	0	33084	
5714	0	33084	
5715	0	33088	
5716	0	33112	
5717	0	33148	
5718	0	33176	
5719	0	33180	
5720	0	33170	
5721	0	33156	
5722	0	33152	
5723	0	33134	
5724	0	33120	
5725	0	33100	
5726	0	33122	
5727	0	33132	
5728	0	33128	
5729	0	33136	
5730	0	33152	
5731	0	33164	
5732	0	33172	
5733	0	33140	
5734	0	33132	
5735	0	33140	
5736	0	33168	
5737	0	33172	
5738	0	33188	
5739	0	33200	
5740	0	33240	
5741	0	33264	
5742	0	33324	
5743	0	33408	
5744	0	33544	
5745	0	33704	
5746	0	33888	
5747	0	34076	
5748	0	34232	
5749	0	34360	
5750	0	34488	
5751	0	34568	
5752	0	34648	
5753	0	34716	
5754	0	34720	
5755	0	34728	
5756	0	34720	
5757	0	34696	
5758	0	34640	
5759	0	34544	
5760	0	34420	
5761	0	34336	
5762	0	34296	
5763	0	34288	
5764	0	34336	
5765	0	34488	
5766	0	34692	
5767	0	34916	
5768	0	35164	
5769	0	35424	
5770	0	35640	
5771	0	35808	
5772	0	36032	
5773	0	36260	
5774	0	36496	
5775	0	36672	
5776	0	36808	
5777	0	36928	
5778	0	37044	
5779	0	37164	
5780	0	37400	
5781	0	37656	
5782	0	37876	
5783	0	38016	
5784	0	38068	
5785	0	38084	
5786	0	38060	
5787	0	38024	
5788	0	38060	
5789	0	38132	
5790	0	38208	
5791	0	38228	
5792	0	38184	
5793	0	38156	
5794	0	38156	
5795	0	38142	
5796	0	38096	
5797	0	38028	
5798	0	37932	
5799	0	37792	
5800	0	37616	
5801	0	37400	
5802	0	37124	
5803	0	36824	
5804	0	36544	
5805	0	36280	
5806	0	36056	
5807	0	35872	
5808	0	35642	
5809	0	35444	
5810	0	35248	
5811	0	34944	
5812	0	34576	
5813	0	34284	
5814	0	34016	
5815	0	33772	
5816	0	33520	
5817	0	33276	
5818	0	33012	
5819	0	32746	
5820	0	32488	
5821	0	32260	
5822	0	32072	
5823	0	31932	
5824	0	31796	
5825	0	31656	
5826	0	31544	
5827	0	31456	
5828	0	31372	
5829	0	31288	
5830	0	31216	
5831	0	31162	
5832	0	31120	
5833	0	31096	
5834	0	31058	
5835	0	31064	
5836	0	31052	
5837	0	31040	
5838	0	31064	
5839	0	31060	
5840	0	31072	
5841	0	31104	
5842	0	31124	
5843	0	31128	
5844	0	31122	
5845	0	31116	
5846	0	31080	
5847	0	31074	
5848	0	31108	
5849	0	31100	
5850	0	31060	
5851	0	31034	
5852	0	31034	
5853	0	31024	
5854	0	31012	
5855	0	31020	
5856	0	31012	
5857	0	31016	
5858	0	31020	
5859	0	31024	
5860	0	31068	
5861	0	31132	
5862	0	31144	
5863	0	31124	
5864	0	31052	
5865	0	30928	
5866	0	30842	
5867	0	30746	
5868	0	30648	
5869	0	30492	
5870	0	30340	
5871	0	30192	
5872	0	30042	
5873	0	29896	
5874	0	29760	
5875	0	29628	
5876	0	29420	
5877	0	29156	
5878	0	28960	
5879	0	28826	
5880	0	28792	
5881	0	28872	
5882	0	29068	
5883	0	29508	
5884	0	30184	
5885	0	31016	
5886	0	32048	
5887	0	33432	
5888	0	35084	
5889	0	37072	
5890	0	39584	
5891	0	42394	
5892	0	45480	
5893	0	48756	
5894	0	52300	
5895	0	56192	
5896	0	60160	
5897	0	62596	
5898	0	63900	
5899	0	64556	
5900	0	64848	
5901	0	64944	
5902	0	64948	
5903	0	64896	
5904	0	64796	
5905	0	64688	
5906	0	64616	
5907	0	64476	
5908	0	64376	
5909	0	64244	
5910	0	64112	
5911	0	64004	
5912	0	63872	
5913	0	63764	
5914	0	63616	
5915	0	63528	
5916	0	63404	
5917	0	63280	
5918	0	63168	
5919	0	63040	
5920	0	62928	
5921	0	62820	
5922	0	62496	
5923	0	57040	
5924	0	51968	
5925	0	47096	
5926	0	42808	
5927	0	39224	
5928	0	36296	
5929	0	33880	
5930	0	31900	
5931	0	30296	
5932	0	29100	
5933	0	28252	
5934	0	27648	
5935	0	27092	
5936	0	26564	
5937	0	26060	
5938	0	25592	
5939	0	25152	
5940	0	24752	
5941	0	24350	
5942	0	24038	
5943	0	23762	
5944	0	23534	
5945	0	23320	
5946	0	23100	
5947	0	22896	
5948	0	22740	
5949	0	22576	
5950	0	22416	
5951	0	22328	
5952	0	22262	
5953	0	22210	
5954	0	22192	
5955	0	22188	
5956	0	22144	
5957	0	22064	
5958	0	22018	
5959	0	21956	
5960	0	21882	
5961	0	21840	
5962	0	21816	
5963	0	21830	
5964	0	21832	
5965	0	21828	
5966	0	21808	
5967	0	21772	
5968	0	21792	
5969	0	21828	
5970	0	21888	
5971	0	21952	
5972	0	22024	
5973	0	22112	
5974	0	22225	
5975	0	22318	
5976	0	22368	
5977	0	22412	
5978	0	22458	
5979	0	22520	
5980	0	22624	
5981	0	22682	
5982	0	22764	
5983	0	22876	
5984	0	22996	
5985	0	23104	
5986	0	23176	
5987	0	23208	
5988	0	23294	
5989	0	23378	
5990	0	23490	
5991	0	23648	
5992	0	23796	
5993	0	23896	
5994	0	23996	
5995	0	24086	
5996	0	24168	
5997	0	24256	
5998	0	24320	
5999	0	24372	
6000	0	24422	
6001	0	24528	
6002	0	24626	
6003	0	24738	
6004	0	24861	
6005	0	24980	
6006	0	25080	
6007	0	25180	
6008	0	25248	
6009	0	25324	
6010	0	25428	
6011	0	25484	
6012	0	25544	
6013	0	25632	
6014	0	25716	
6015	0	25820	
6016	0	25864	
6017	0	25932	
6018	0	25988	
6019	0	26036	
6020	0	26112	
6021	0	26176	
6022	0	26248	
6023	0	26328	
6024	0	26432	
6025	0	26516	
6026	0	26596	
6027	0	26640	
6028	0	26712	
6029	0	26776	
6030	0	26832	
6031	0	26896	
6032	0	26948	
6033	0	27026	
6034	0	27108	
6035	0	27200	
6036	0	27268	
6037	0	27344	
6038	0	27472	
6039	0	27560	
6040	0	27664	
6041	0	27824	
6042	0	27954	
6043	0	28092	
6044	0	28208	
6045	0	28256	
6046	0	28288	
6047	0	28344	
6048	0	28408	
6049	0	28442	
6050	0	28464	
6051	0	28524	
6052	0	28588	
6053	0	28672	
6054	0	28788	
6055	0	28928	
6056	0	29024	
6057	0	29112	
6058	0	29208	
6059	0	29312	
6060	0	29408	
6061	0	29498	
6062	0	29576	
6063	0	29648	
6064	0	29720	
6065	0	29790	
6066	0	29884	
6067	0	30024	
6068	0	30192	
6069	0	30272	
6070	0	30312	
6071	0	30324	
6072	0	30340	
6073	0	30392	
6074	0	30416	
6075	0	30428	
6076	0	30460	
6077	0	30506	
6078	0	30576	
6079	0	30628	
6080	0	30672	
6081	0	30756	
6082	0	30856	
6083	0	30928	
6084	0	31004	
6085	0	31100	
6086	0	31180	
6087	0	31232	
6088	0	31288	
6089	0	31340	
6090	0	31372	
6091	0	31400	
6092	0	31444	
6093	0	31476	
6094	0	31512	
6095	0	31536	
6096	0	31560	
6097	0	31588	
6098	0	31572	
6099	0	31576	
6100	0	31608	
6101	0	31656	
6102	0	31664	
6103	0	31672	
6104	0	31680	
6105	0	31648	
6106	0	31636	
6107	0	31648	
6108	0	31636	
6109	0	31640	
6110	0	31658	
6111	0	31672	
6112	0	31688	
6113	0	31732	
6114	0	31816	
6115	0	31896	
6116	0	31948	
6117	0	31996	
6118	0	32032	
6119	0	32048	
6120	0	32068	
6121	0	32100	
6122	0	32130	
6123	0	32160	
6124	0	32180	
6125	0	32200	
6126	0	32240	
6127	0	32336	
6128	0	32408	
6129	0	32468	
6130	0	32512	
6131	0	32568	
6132	0	32656	
6133	0	32756	
6134	0	32864	
6135	0	32972	
6136	0	33044	
6137	0	33088	
6138	0	33116	
6139	0	33152	
6140	0	33160	
6141	0	33164	
6142	0	33120	
6143	0	33084	
6144	0	33058	
6145	0	33040	
6146	0	33012	
6147	0	32952	
6148	0	32900	
6149	0	32864	
6150	0	32836	
6151	0	32820	
6152	0	32820	
6153	0	32800	
6154	0	32808	
6155	0	32816	
6156	0	32826	
6157	0	32772	
6158	0	32644	
6159	0	32544	
6160	0	32512	
6161	0	32512	
6162	0	32524	
6163	0	32520	
6164	0	32488	
6165	0	32420	
6166	0	32388	
6167	0	32364	
6168	0	32352	
6169	0	32336	
6170	0	32284	
6171	0	32224	
6172	0	32208	
6173	0	32244	
6174	0	32228	
6175	0	32240	
6176	0	32232	
6177	0	32204	
6178	0	32156	
6179	0	32160	
6180	0	32200	
6181	0	32288	
6182	0	32320	
6183	0	32324	
6184	0	32296	
6185	0	32240	
6186	0	32212	
6187	0	32172	
6188	0	32124	
6189	0	32104	
6190	0	32084	
6191	0	32098	
6192	0	32072	
6193	0	32090	
6194	0	32116	
6195	0	32168	
6196	0	32200	
6197	0	32252	
6198	0	32340	
6199	0	32372	
6200	0	32404	
6201	0	32468	
6202	0	32504	
6203	0	32592	
6204	0	32660	
6205	0	32721	
6206	0	32760	
6207	0	32748	
6208	0	32704	
6209	0	32600	
6210	0	32528	
6211	0	32436	
6212	0	32376	
6213	0	32340	
6214	0	32372	
6215	0	32460	
6216	0	32600	
6217	0	32780	
6218	0	32930	
6219	0	32968	
6220	0	33008	
6221	0	33040	
6222	0	33096	
6223	0	33164	
6224	0	33228	
6225	0	33258	
6226	0	33296	
6227	0	33336	
6228	0	33344	
6229	0	33344	
6230	0	33352	
6231	0	33396	
6232	0	33472	
6233	0	33568	
6234	0	33604	
6235	0	33608	
6236	0	33568	
6237	0	33480	
6238	0	33396	
6239	0	33364	
6240	0	33360	
6241	0	33320	
6242	0	33292	
6243	0	33320	
6244	0	33392	
6245	0	33464	
6246	0	33504	
6247	0	33500	
6248	0	33500	
6249	0	33496	
6250	0	33504	
6251	0	33460	
6252	0	33424	
6253	0	33392	
6254	0	33348	
6255	0	33340	
6256	0	33400	
6257	0	33508	
6258	0	33600	
6259	0	33672	
6260	0	33732	
6261	0	33754	
6262	0	33764	
6263	0	33808	
6264	0	33832	
6265	0	33804	
6266	0	33768	
6267	0	33720	
6268	0	33688	
6269	0	33688	
6270	0	33680	
6271	0	33652	
6272	0	33616	
6273	0	33600	
6274	0	33600	
6275	0	33560	
6276	0	33544	
6277	0	33546	
6278	0	33576	
6279	0	33616	
6280	0	33562	
6281	0	33464	
6282	0	33428	
6283	0	33352	
6284	0	33340	
6285	0	33356	
6286	0	33408	
6287	0	33476	
6288	0	33536	
6289	0	33544	
6290	0	33552	
6291	0	33504	
6292	0	33464	
6293	0	33364	
6294	0	33288	
6295	0	33308	
6296	0	33324	
6297	0	33340	
6298	0	33336	
6299	0	33352	
6300	0	33392	
6301	0	33396	
6302	0	33392	
6303	0	33392	
6304	0	33380	
6305	0	33340	
6306	0	33336	
6307	0	33376	
6308	0	33448	
6309	0	33524	
6310	0	33554	
6311	0	33544	
6312	0	33504	
6313	0	33452	
6314	0	33344	
6315	0	33284	
6316	0	33268	
6317	0	33280	
6318	0	33244	
6319	0	33158	
6320	0	33040	
6321	0	32972	
6322	0	32916	
6323	0	32896	
6324	0	32912	
6325	0	32912	
6326	0	32940	
6327	0	32960	
6328	0	32980	
6329	0	32956	
6330	0	32920	
6331	0	32932	
6332	0	32980	
6333	0	33064	
6334	0	33144	
6335	0	33164	
6336	0	33196	
6337	0	33224	
6338	0	33228	
6339	0	33264	
6340	0	33280	
6341	0	33272	
6342	0	33310	
6343	0	33312	
6344	0	33296	
6345	0	33252	
6346	0	33204	
6347	0	33168	
6348	0	33176	
6349	0	33196	
6350	0	33196	
6351	0	33176	
6352	0	33168	
6353	0	33184	
6354	0	33204	
6355	0	33268	
6356	0	33344	
6357	0	33400	
6358	0	33464	
6359	0	33572	
6360	0	33688	
6361	0	33852	
6362	0	34034	
6363	0	34204	
6364	0	34388	
6365	0	34520	
6366	0	34592	
6367	0	34608	
6368	0	34580	
6369	0	34560	
6370	0	34528	
6371	0	34448	
6372	0	34352	
6373	0	34244	
6374	0	34160	
6375	0	34128	
6376	0	34132	
6377	0	34176	
6378	0	34328	
6379	0	34472	
6380	0	34640	
6381	0	34796	
6382	0	35004	
6383	0	35220	
6384	0	35368	
6385	0	35456	
6386	0	35636	
6387	0	35888	
6388	0	36124	
6389	0	36288	
6390	0	36436	
6391	0	36596	
6392	0	36796	
6393	0	36984	
6394	0	37196	
6395	0	37416	
6396	0	37616	
6397	0	37820	
6398	0	37964	
6399	0	38052	
6400	0	38040	
6401	0	38024	
6402	0	38084	
6403	0	38160	
6404	0	38136	
6405	0	38088	
6406	0	38044	
6407	0	37952	
6408	0	37848	
6409	0	37744	
6410	0	37616	
6411	0	37416	
6412	0	37200	
6413	0	37020	
6414	0	36912	
6415	0	36788	
6416	0	36732	
6417	0	36664	
6418	0	36572	
6419	0	36452	
6420	0	36220	
6421	0	35896	
6422	0	35504	
6423	0	35128	
6424	0	34776	
6425	0	34448	
6426	0	34152	
6427	0	33876	
6428	0	33628	
6429	0	33328	
6430	0	32996	
6431	0	32640	
6432	0	32336	
6433	0	32064	
6434	0	31792	
6435	0	31596	
6436	0	31468	
6437	0	31448	
6438	0	31522	
6439	0	31644	
6440	0	31750	
6441	0	31820	
6442	0	31824	
6443	0	31812	
6444	0	31802	
6445	0	31728	
6446	0	31628	
6447	0	31528	
6448	0	31400	
6449	0	31264	
6450	0	31160	
6451	0	31108	
6452	0	31136	
6453	0	31196	
6454	0	31224	
6455	0	31264	
6456	0	31244	
6457	0	31212	
6458	0	31208	
6459	0	31216	
6460	0	31252	
6461	0	31264	
6462	0	31244	
6463	0	31266	
6464	0	31260	
6465	0	31216	
6466	0	31196	
6467	0	31224	
6468	0	31244	
6469	0	31216	
6470	0	31274	
6471	0	31304	
6472	0	31304	
6473	0	31304	
6474	0	31282	
6475	0	31244	
6476	0	31192	
6477	0	31104	
6478	0	30960	
6479	0	30764	
6480	0	30624	
6481	0	30528	
6482	0	30444	
6483	0	30348	
6484	0	30284	
6485	0	30180	
6486	0	29992	
6487	0	29784	
6488	0	29548	
6489	0	29344	
6490	0	29164	
6491	0	29076	
6492	0	29176	
6493	0	29364	
6494	0	29736	
6495	0	30360	
6496	0	31200	
6497	0	32276	
6498	0	33728	
6499	0	35386	
6500	0	37344	
6501	0	39776	
6502	0	42680	
6503	0	45904	
6504	0	49376	
6505	0	53288	
6506	0	57584	
6507	0	61140	
6508	0	63104	
6509	0	64112	
6510	0	64608	
6511	0	64832	
6512	0	64872	
6513	0	64848	
6514	0	64784	
6515	0	64696	
6516	0	64568	
6517	0	64480	
6518	0	64352	
6519	0	64232	
6520	0	64116	
6521	0	64004	
6522	0	63872	
6523	0	63740	
6524	0	63640	
6525	0	63516	
6526	0	63392	
6527	0	63280	
6528	0	63160	
6529	0	63040	
6530	0	62944	
6531	0	62816	
6532	0	62696	
6533	0	61816	
6534	0	56176	
6535	0	50660	
6536	0	45392	
6537	0	40888	
6538	0	37392	
6539	0	34832	
6540	0	32968	
6541	0	31552	
6542	0	30376	
6543	0	29312	
6544	0	28400	
6545	0	27716	
6546	0	27180	
6547	0	26626	
6548	0	26016	
6549	0	25472	
6550	0	25016	
6551	0	24604	
6552	0	24232	
6553	0	23948	
6554	0	23730	
6555	0	23584	
6556	0	23412	
6557	0	23148	
6558	0	22837	
6559	0	22592	
6560	0	22362	
6561	0	22128	
6562	0	21920	
6563	0	21778	
6564	0	21722	
6565	0	21722	
6566	0	21732	
6567	0	21744	
6568	0	21736	
6569	0	21772	
6570	0	21858	
6571	0	21984	
6572	0	22024	
6573	0	21978	
6574	0	21900	
6575	0	21792	
6576	0	21730	
6577	0	21704	
6578	0	21664	
6579	0	21612	
6580	0	21553	
6581	0	21508	
6582	0	21504	
6583	0	21592	
6584	0	21720	
6585	0	21826	
6586	0	21836	
6587	0	21784	
6588	0	21760	
6589	0	21804	
6590	0	21900	
6591	0	22064	
6592	0	22292	
6593	0	22552	
6594	0	22784	
6595	0	23056	
6596	0	23245	
6597	0	23316	
6598	0	23336	
6599	0	23288	
6600	0	23298	
6601	0	23394	
6602	0	23556	
6603	0	23740	
6604	0	23900	
6605	0	24004	
6606	0	24080	
6607	0	24136	
6608	0	24206	
6609	0	24284	
6610	0	24400	
6611	0	24504	
6612	0	24620	
6613	0	24749	
6614	0	24858	
6615	0	24952	
6616	0	25036	
6617	0	25080	
6618	0	25028	
6619	0	24936	
6620	0	24800	
6621	0	24712	
6622	0	24696	
6623	0	24794	
6624	0	24920	
6625	0	25116	
6626	0	25352	
6627	0	25592	
6628	0	25824	
6629	0	26012	
6630	0	26162	
6631	0	26314	
6632	0	26436	
6633	0	26486	
6634	0	26488	
6635	0	26526	
6636	0	26552	
6637	0	26504	
6638	0	26488	
6639	0	26548	
6640	0	26672	
6641	0	26844	
6642	0	27008	
6643	0	27164	
6644	0	27298	
6645	0	27456	
6646	0	27576	
6647	0	27652	
6648	0	27748	
6649	0	27804	
6650	0	27798	
6651	0	27836	
6652	0	27905	
6653	0	27948	
6654	0	27984	
6655	0	28024	
6656	0	28092	
6657	0	28140	
6658	0	28258	
6659	0	28356	
6660	0	28372	
6661	0	28376	
6662	0	28284	
6663	0	28160	
6664	0	28136	
6665	0	28224	
6666	0	28370	
6667	0	28528	
6668	0	28676	
6669	0	28856	
6670	0	29124	
6671	0	29400	
6672	0	29624	
6673	0	29856	
6674	0	30064	
6675	0	30224	
6676	0	30352	
6677	0	30432	
6678	0	30462	
6679	0	30476	
6680	0	30448	
6681	0	30392	
6682	0	30234	
6683	0	30032	
6684	0	29816	
6685	0	29664	
6686	0	29712	
6687	0	29912	
6688	0	30176	
6689	0	30424	
6690	0	30636	
6691	0	30860	
6692	0	31084	
6693	0	31220	
6694	0	31328	
6695	0	31360	
6696	0	31344	
6697	0	31356	
6698	0	31386	
6699	0	31360	
6700	0	31300	
6701	0	31288	
6702	0	31344	
6703	0	31416	
6704	0	31480	
6705	0	31496	
6706	0	31472	
6707	0	31468	
6708	0	31460	
6709	0	31436	
6710	0	31376	
6711	0	31240	
6712	0	31020	
6713	0	30890	
6714	0	30828	
6715	0	30808	
6716	0	30792	
6717	0	30828	
6718	0	30856	
6719	0	30952	
6720	0	31164	
6721	0	31388	
6722	0	31516	
6723	0	31672	
6724	0	31796	
6725	0	31868	
6726	0	31880	
6727	0	31844	
6728	0	31760	
6729	0	31676	
6730	0	31564	
6731	0	31440	
6732	0	31448	
6733	0	31564	
6734	0	31776	
6735	0	31980	
6736	0	32156	
6737	0	32372	
6738	0	32528	
6739	0	32544	
6740	0	32460	
6741	0	32372	
6742	0	32376	
6743	0	32432	
6744	0	32456	
6745	0	32500	
6746	0	32546	
6747	0	32660	
6748	0	32816	
6749	0	32988	
6750	0	33108	
6751	0	33096	
6752	0	32932	
6753	0	32656	
6754	0	32384	
6755	0	32240	
6756	0	32208	
6757	0	32160	
6758	0	32212	
6759	0	32272	
6760	0	32360	
6761	0	32556	
6762	0	32892	
6763	0	33242	
6764	0	33444	
6765	0	33428	
6766	0	33220	
6767	0	32952	
6768	0	32716	
6769	0	32580	
6770	0	32488	
6771	0	32444	
6772	0	32316	
6773	0	32192	
6774	0	32176	
6775	0	32200	
6776	0	32280	
6777	0	32260	
6778	0	32188	
6779	0	32072	
6780	0	31996	
6781	0	32026	
6782	0	32100	
6783	0	32220	
6784	0	32300	
6785	0	32336	
6786	0	32332	
6787	0	32224	
6788	0	32130	
6789	0	32104	
6790	0	32120	
6791	0	32060	
6792	0	31968	
6793	0	31888	
6794	0	31872	
6795	0	31864	
6796	0	31880	
6797	0	31940	
6798	0	32024	
6799	0	32040	
6800	0	31992	
6801	0	31852	
6802	0	31816	
6803	0	31852	
6804	0	31896	
6805	0	31924	
6806	0	31904	
6807	0	31884	
6808	0	31904	
6809	0	31936	
6810	0	31984	
6811	0	31976	
6812	0	31930	
6813	0	31888	
6814	0	31936	
6815	0	32084	
6816	0	32210	
6817	0	32240	
6818	0	32248	
6819	0	32312	
6820	0	32528	
6821	0	32812	
6822	0	33008	
6823	0	33092	
6824	0	33156	
6825	0	33178	
6826	0	33176	
6827	0	33160	
6828	0	33108	
6829	0	32992	
6830	0	32884	
6831	0	32744	
6832	0	32646	
6833	0	32616	
6834	0	32676	
6835	0	32832	
6836	0	32976	
6837	0	33140	
6838	0	33272	
6839	0	33324	
6840	0	33336	
6841	0	33280	
6842	0	33170	
6843	0	33008	
6844	0	32820	
6845	0	32708	
6846	0	32724	
6847	0	32832	
6848	0	32884	
6849	0	32960	
6850	0	33088	
6851	0	33232	
6852	0	33440	
6853	0	33636	
6854	0	33844	
6855	0	33986	
6856	0	34056	
6857	0	34024	
6858	0	33932	
6859	0	33796	
6860	0	33592	
6861	0	33346	
6862	0	33152	
6863	0	33096	
6864	0	33172	
6865	0	33336	
6866	0	33488	
6867	0	33600	
6868	0	33708	
6869	0	33780	
6870	0	33808	
6871	0	33768	
6872	0	33676	
6873	0	33592	
6874	0	33594	
6875	0	33592	
6876	0	33564	
6877	0	33528	
6878	0	33504	
6879	0	33496	
6880	0	33380	
6881	0	33288	
6882	0	33304	
6883	0	33396	
6884	0	33512	
6885	0	33632	
6886	0	33756	
6887	0	33896	
6888	0	33996	
6889	0	34020	
6890	0	33984	
6891	0	33912	
6892	0	33832	
6893	0	33664	
6894	0	33368	
6895	0	33088	
6896	0	32948	
6897	0	32976	
6898	0	33108	
6899	0	33268	
6900	0	33488	
6901	0	33762	
6902	0	34024	
6903	0	34204	
6904	0	34272	
6905	0	34232	
6906	0	34156	
6907	0	34048	
6908	0	33888	
6909	0	33612	
6910	0	33248	
6911	0	32940	
6912	0	32776	
6913	0	32824	
6914	0	33012	
6915	0	33308	
6916	0	33496	
6917	0	33604	
6918	0	33672	
6919	0	33612	
6920	0	33482	
6921	0	33338	
6922	0	33204	
6923	0	33068	
6924	0	32980	
6925	0	32904	
6926	0	32872	
6927	0	32896	
6928	0	32960	
6929	0	33034	
6930	0	33056	
6931	0	33056	
6932	0	33040	
6933	0	33032	
6934	0	33100	
6935	0	33292	
6936	0	33448	
6937	0	33540	
6938	0	33560	
6939	0	33576	
6940	0	33562	
6941	0	33548	
6942	0	33520	
6943	0	33536	
6944	0	33556	
6945	0	33544	
6946	0	33628	
6947	0	33740	
6948	0	33812	
6949	0	33776	
6950	0	33792	
6951	0	33884	
6952	0	33984	
6953	0	34016	
6954	0	34040	
6955	0	34056	
6956	0	34068	
6957	0	34098	
6958	0	34128	
6959	0	34220	
6960	0	34360	
6961	0	34466	
6962	0	34560	
6963	0	34548	
6964	0	34468	
6965	0	34364	
6966	0	34344	
6967	0	34372	
6968	0	34444	
6969	0	34570	
6970	0	34760	
6971	0	35056	
6972	0	35376	
6973	0	35704	
6974	0	35968	
6975	0	36144	
6976	0	36344	
6977	0	36560	
6978	0	36756	
6979	0	36888	
6980	0	36736	
6981	0	36364	
6982	0	36046	
6983	0	35948	
6984	0	36068	
6985	0	36324	
6986	0	36632	
6987	0	36912	
6988	0	37188	
6989	0	37440	
6990	0	37594	
6991	0	37732	
6992	0	37844	
6993	0	37960	
6994	0	37996	
6995	0	37920	
6996	0	37856	
6997	0	37700	
6998	0	37416	
6999	0	37088	
7000	0	36744	
7001	0	36448	
7002	0	36296	
7003	0	36280	
7004	0	36272	
7005	0	36256	
7006	0	36256	
7007	0	36136	
7008	0	35948	
7009	0	35720	
7010	0	35488	
7011	0	35204	
7012	0	34916	
7013	0	34552	
7014	0	34172	
7015	0	33700	
7016	0	33264	
7017	0	32938	
7018	0	32700	
7019	0	32584	
7020	0	32512	
7021	0	32404	
7022	0	32396	
7023	0	32436	
7024	0	32360	
7025	0	32192	
7026	0	32048	
7027	0	31884	
7028	0	31660	
7029	0	31448	
7030	0	31304	
7031	0	31156	
7032	0	31044	
7033	0	30988	
7034	0	31042	
7035	0	31112	
7036	0	31232	
7037	0	31312	
7038	0	31352	
7039	0	31370	
7040	0	31432	
7041	0	31436	
7042	0	31344	
7043	0	31204	
7044	0	31116	
7045	0	31126	
7046	0	31164	
7047	0	31216	
7048	0	31296	
7049	0	31344	
7050	0	31360	
7051	0	31332	
7052	0	31264	
7053	0	31136	
7054	0	30960	
7055	0	30816	
7056	0	30788	
7057	0	30944	
7058	0	31168	
7059	0	31312	
7060	0	31340	
7061	0	31272	
7062	0	31180	
7063	0	31084	
7064	0	31048	
7065	0	31004	
7066	0	30968	
7067	0	30968	
7068	0	30992	
7069	0	30900	
7070	0	30692	
7071	0	30432	
7072	0	30082	
7073	0	29688	
7074	0	29308	
7075	0	28936	
7076	0	28680	
7077	0	28700	
7078	0	28952	
7079	0	29428	
7080	0	30120	
7081	0	30974	
7082	0	32040	
7083	0	33312	
7084	0	34752	
7085	0	36356	
7086	0	38082	
7087	0	40168	
7088	0	42680	
7089	0	45560	
7090	0	48752	
7091	0	52352	
7092	0	56368	
7093	0	60352	
7094	0	62752	
7095	0	63992	
7096	0	64608	
7097	0	64888	
7098	0	65008	
7099	0	65000	
7100	0	64928	
7101	0	64836	
7102	0	64752	
7103	0	64632	
7104	0	64508	
7105	0	64384	
7106	0	64280	
7107	0	64140	
7108	0	64032	
7109	0	63912	
7110	0	63800	
7111	0	63676	
7112	0	63560	
7113	0	63424	
7114	0	63324	
7115	0	63184	
7116	0	63088	
7117	0	62960	
7118	0	62852	
7119	0	62744	
7120	0	60208	
7121	0	54504	
7122	0	48816	
7123	0	43412	
7124	0	38976	
7125	0	35596	
7126	0	33218	
7127	0	31608	
7128	0	30522	
7129	0	29650	
7130	0	28704	
7131	0	27704	
7132	0	26876	
7133	0	26252	
7134	0	25780	
7135	0	25412	
7136	0	25124	
7137	0	24872	
7138	0	24584	
7139	0	24196	
7140	0	23792	
7141	0	23402	
7142	0	23032	
7143	0	22656	
7144	0	22354	
7145	0	22064	
7146	0	21680	
7147	0	21360	
7148	0	21232	
7149	0	21248	
7150	0	21258	
7151	0	21248	
7152	0	21304	
7153	0	21412	
7154	0	21496	
7155	0	21520	
7156	0	21548	
7157	0	21568	
7158	0	21628	
7159	0	21730	
7160	0	21824	
7161	0	21868	
7162	0	21888	
7163	0	21928	
7164	0	21892	
7165	0	21824	
7166	0	21700	
7167	0	21612	
7168	0	21586	
7169	0	21592	
7170	0	21568	
7171	0	21572	
7172	0	21568	
7173	0	21520	
7174	0	21456	
7175	0	21412	
7176	0	21468	
7177	0	21614	
7178	0	21816	
7179	0	22024	
7180	0	22340	
7181	0	22660	
7182	0	22904	
7183	0	23028	
7184	0	23008	
7185	0	22932	
7186	0	22826	
7187	0	22804	
7188	0	22888	
7189	0	23072	
7190	0	23264	
7191	0	23452	
7192	0	23600	
7193	0	23640	
7194	0	23568	
7195	0	23608	
7196	0	23804	
7197	0	24056	
7198	0	24304	
7199	0	24480	
7200	0	24608	
7201	0	24696	
7202	0	24754	
7203	0	24700	
7204	0	24640	
7205	0	24612	
7206	0	24688	
7207	0	24784	
7208	0	24856	
7209	0	24896	
7210	0	24972	
7211	0	25060	
7212	0	25208	
7213	0	25384	
7214	0	25528	
7215	0	25584	
7216	0	25656	
7217	0	25756	
7218	0	25900	
7219	0	26104	
7220	0	26340	
7221	0	26554	
7222	0	26736	
7223	0	26874	
7224	0	26992	
7225	0	27052	
7226	0	27124	
7227	0	27132	
7228	0	27104	
7229	0	27060	
7230	0	27020	
7231	0	26944	
7232	0	26916	
7233	0	26952	
7234	0	27068	
7235	0	27232	
7236	0	27432	
7237	0	27640	
7238	0	27800	
7239	0	27932	
7240	0	28000	
7241	0	28052	
7242	0	28080	
7243	0	28136	
7244	0	28196	
7245	0	28240	
7246	0	28268	
7247	0	28240	
7248	0	28140	
7249	0	28104	
7250	0	28244	
7251	0	28516	
7252	0	28800	
7253	0	29044	
7254	0	29226	
7255	0	29396	
7256	0	29616	
7257	0	29744	
7258	0	29732	
7259	0	29640	
7260	0	29524	
7261	0	29392	
7262	0	29320	
7263	0	29372	
7264	0	29520	
7265	0	29758	
7266	0	30066	
7267	0	30372	
7268	0	30536	
7269	0	30620	
7270	0	30638	
7271	0	30588	
7272	0	30548	
7273	0	30592	
7274	0	30696	
7275	0	30804	
7276	0	30869	
7277	0	30984	
7278	0	31136	
7279	0	31148	
7280	0	31068	
7281	0	31020	
7282	0	31020	
7283	0	31088	
7284	0	31180	
7285	0	31248	
7286	0	31320	
7287	0	31392	
7288	0	31472	
7289	0	31540	
7290	0	31616	
7291	0	31584	
7292	0	31480	
7293	0	31416	
7294	0	31396	
7295	0	31392	
7296	0	31352	
7297	0	31350	
7298	0	31358	
7299	0	31340	
7300	0	31348	
7301	0	31344	
7302	0	31320	
7303	0	31264	
7304	0	31192	
7305	0	31092	
7306	0	31008	
7307	0	30956	
7308	0	30904	
7309	0	30880	
7310	0	30872	
7311	0	30860	
7312	0	30832	
7313	0	30804	
7314	0	30924	
7315	0	31164	
7316	0	31528	
7317	0	31904	
7318	0	32224	
7319	0	32448	
7320	0	32528	
7321	0	32434	
7322	0	32296	
7323	0	32136	
7324	0	32000	
7325	0	31876	
7326	0	31832	
7327	0	31932	
7328	0	32056	
7329	0	32232	
7330	0	32492	
7331	0	32808	
7332	0	33088	
7333	0	33216	
7334	0	33284	
7335	0	33380	
7336	0	33408	
7337	0	33384	
7338	0	33256	
7339	0	33084	
7340	0	32876	
7341	0	32624	
7342	0	32416	
7343	0	32320	
7344	0	32344	
7345	0	32400	
7346	0	32468	
7347	0	32428	
7348	0	32352	
7349	0	32300	
7350	0	32304	
7351	0	32356	
7352	0	32420	
7353	0	32428	
7354	0	32384	
7355	0	32264	
7356	0	32112	
7357	0	32012	
7358	0	32004	
7359	0	32016	
7360	0	31960	
7361	0	31904	
7362	0	32008	
7363	0	32204	
7364	0	32288	
7365	0	32272	
7366	0	32228	
7367	0	32164	
7368	0	32066	
7369	0	31960	
7370	0	31952	
7371	0	32048	
7372	0	32096	
7373	0	32040	
7374	0	31944	
7375	0	31872	
7376	0	31812	
7377	0	31698	
7378	0	31640	
7379	0	31608	
7380	0	31564	
7381	0	31566	
7382	0	31606	
7383	0	31640	
7384	0	31636	
7385	0	31640	
7386	0	31648	
7387	0	31642	
7388	0	31656	
7389	0	31736	
7390	0	31860	
7391	0	31960	
7392	0	32032	
7393	0	32048	
7394	0	32032	
7395	0	31984	
7396	0	31920	
7397	0	31860	
7398	0	31776	
7399	0	31710	
7400	0	31676	
7401	0	31792	
7402	0	31932	
7403	0	32048	
7404	0	32184	
7405	0	32356	
7406	0	32490	
7407	0	32656	
7408	0	32812	
7409	0	32794	
7410	0	32648	
7411	0	32480	
7412	0	32368	
7413	0	32276	
7414	0	32200	
7415	0	32184	
7416	0	32266	
7417	0	32474	
7418	0	32734	
7419	0	33000	
7420	0	33140	
7421	0	33156	
7422	0	33112	
7423	0	33088	
7424	0	33152	
7425	0	33288	
7426	0	33432	
7427	0	33472	
7428	0	33408	
7429	0	33352	
7430	0	33308	
7431	0	33264	
7432	0	33140	
7433	0	32944	
7434	0	32756	
7435	0	32584	
7436	0	32516	
7437	0	32576	
7438	0	32696	
7439	0	32836	
7440	0	33000	
7441	0	33228	
7442	0	33504	
7443	0	33728	
7444	0	33832	
7445	0	33924	
7446	0	33960	
7447	0	33936	
7448	0	33864	
7449	0	33816	
7450	0	33760	
7451	0	33600	
7452	0	33352	
7453	0	33176	
7454	0	33072	
7455	0	33096	
7456	0	33216	
7457	0	33400	
7458	0	33584	
7459	0	33692	
7460	0	33820	
7461	0	33892	
7462	0	33880	
7463	0	33832	
7464	0	33732	
7465	0	33580	
7466	0	33432	
7467	0	33340	
7468	0	33272	
7469	0	33260	
7470	0	33300	
7471	0	33400	
7472	0	33568	
7473	0	33696	
7474	0	33804	
7475	0	33848	
7476	0	33928	
7477	0	33988	
7478	0	34028	
7479	0	34028	
7480	0	33984	
7481	0	33944	
7482	0	33932	
7483	0	33884	
7484	0	33848	
7485	0	33792	
7486	0	33736	
7487	0	33692	
7488	0	33676	
7489	0	33720	
7490	0	33732	
7491	0	33644	
7492	0	33476	
7493	0	33228	
7494	0	33036	
7495	0	32892	
7496	0	32868	
7497	0	32910	
7498	0	32940	
7499	0	32984	
7500	0	33032	
7501	0	33060	
7502	0	33048	
7503	0	33050	
7504	0	33172	
7505	0	33428	
7506	0	33616	
7507	0	33616	
7508	0	33570	
7509	0	33564	
7510	0	33608	
7511	0	33632	
7512	0	33632	
7513	0	33628	
7514	0	33632	
7515	0	33616	
7516	0	33500	
7517	0	33336	
7518	0	33168	
7519	0	33056	
7520	0	33028	
7521	0	33040	
7522	0	33052	
7523	0	33044	
7524	0	33008	
7525	0	32972	
7526	0	32992	
7527	0	33012	
7528	0	33090	
7529	0	33166	
7530	0	33248	
7531	0	33396	
7532	0	33604	
7533	0	33772	
7534	0	33908	
7535	0	34004	
7536	0	34072	
7537	0	34096	
7538	0	34144	
7539	0	34232	
7540	0	34272	
7541	0	34264	
7542	0	34282	
7543	0	34268	
7544	0	34312	
7545	0	34384	
7546	0	34460	
7547	0	34496	
7548	0	34544	
7549	0	34656	
7550	0	34808	
7551	0	34944	
7552	0	35064	
7553	0	35204	
7554	0	35392	
7555	0	35592	
7556	0	35832	
7557	0	36116	
7558	0	36304	
7559	0	36416	
7560	0	36488	
7561	0	36576	
7562	0	36672	
7563	0	36720	
7564	0	36724	
7565	0	36736	
7566	0	36744	
7567	0	36776	
7568	0	36856	
7569	0	37012	
7570	0	37228	
7571	0	37424	
7572	0	37624	
7573	0	37780	
7574	0	37808	
7575	0	37708	
7576	0	37536	
7577	0	37280	
7578	0	37036	
7579	0	36844	
7580	0	36672	
7581	0	36480	
7582	0	36248	
7583	0	36076	
7584	0	36000	
7585	0	35952	
7586	0	35944	
7587	0	35888	
7588	0	35808	
7589	0	35768	
7590	0	35712	
7591	0	35624	
7592	0	35448	
7593	0	35128	
7594	0	34700	
7595	0	34268	
7596	0	33876	
7597	0	33536	
7598	0	33216	
7599	0	32908	
7600	0	32588	
7601	0	32248	
7602	0	31872	
7603	0	31576	
7604	0	31376	
7605	0	31292	
7606	0	31272	
7607	0	31280	
7608	0	31356	
7609	0	31480	
7610	0	31560	
7611	0	31572	
7612	0	31508	
7613	0	31360	
7614	0	31232	
7615	0	31176	
7616	0	31188	
7617	0	31264	
7618	0	31361	
7619	0	31520	
7620	0	31638	
7621	0	31684	
7622	0	31704	
7623	0	31676	
7624	0	31628	
7625	0	31548	
7626	0	31436	
7627	0	31356	
7628	0	31320	
7629	0	31360	
7630	0	31376	
7631	0	31368	
7632	0	31340	
7633	0	31336	
7634	0	31312	
7635	0	31336	
7636	0	31436	
7637	0	31520	
7638	0	31528	
7639	0	31420	
7640	0	31244	
7641	0	31096	
7642	0	31048	
7643	0	31096	
7644	0	31136	
7645	0	31160	
7646	0	31188	
7647	0	31204	
7648	0	31132	
7649	0	30952	
7650	0	30780	
7651	0	30634	
7652	0	30484	
7653	0	30320	
7654	0	30096	
7655	0	29920	
7656	0	29820	
7657	0	29800	
7658	0	29898	
7659	0	30132	
7660	0	30600	
7661	0	31324	
7662	0	32212	
7663	0	33292	
7664	0	34696	
7665	0	36278	
7666	0	38072	
7667	0	40388	
7668	0	43240	
7669	0	46480	
7670	0	49964	
7671	0	53800	
7672	0	58000	
7673	0	61560	
7674	0	63492	
7675	0	64512	
7676	0	65008	
7677	0	65200	
7678	0	65256	
7679	0	65218	
7680	0	65164	
7681	0	65058	
7682	0	64952	
7683	0	64848	
7684	0	64712	
7685	0	64608	
7686	0	64464	
7687	0	64352	
7688	0	64224	
7689	0	64120	
7690	0	63992	
7691	0	63856	
7692	0	63750	
7693	0	63640	
7694	0	63512	
7695	0	63384	
7696	0	63268	
7697	0	63152	
7698	0	63032	
7699	0	62928	
7700	0	59600	
7701	0	53744	
7702	0	48008	
7703	0	42868	
7704	0	38784	
7705	0	35700	
7706	0	33432	
7707	0	31776	
7708	0	30516	
7709	0	29460	
7710	0	28532	
7711	0	27812	
7712	0	27284	
7713	0	26842	
7714	0	26362	
7715	0	25868	
7716	0	25424	
7717	0	24948	
7718	0	24484	
7719	0	24056	
7720	0	23672	
7721	0	23320	
7722	0	23020	
7723	0	22756	
7724	0	22518	
7725	0	22320	
7726	0	22180	
7727	0	22048	
7728	0	21924	
7729	0	21812	
7730	0	21728	
7731	0	21672	
7732	0	21572	
7733	0	21460	
7734	0	21368	
7735	0	21264	
7736	0	21160	
7737	0	21090	
7738	0	21004	
7739	0	20929	
7740	0	20964	
7741	0	21088	
7742	0	21248	
7743	0	21408	
7744	0	21604	
7745	0	21770	
7746	0	21906	
7747	0	21964	
7748	0	21952	
7749	0	21888	
7750	0	21776	
7751	0	21636	
7752	0	21572	
7753	0	21592	
7754	0	21632	
7755	0	21722	
7756	0	21868	
7757	0	22112	
7758	0	22341	
7759	0	22536	
7760	0	22724	
7761	0	22842	
7762	0	22898	
7763	0	22920	
7764	0	22920	
7765	0	22912	
7766	0	22920	
7767	0	22988	
7768	0	23084	
7769	0	23228	
7770	0	23384	
7771	0	23516	
7772	0	23632	
7773	0	23788	
7774	0	24016	
7775	0	24216	
7776	0	24348	
7777	0	24440	
7778	0	24508	
7779	0	24542	
7780	0	24588	
7781	0	24652	
7782	0	24705	
7783	0	24760	
7784	0	24773	
7785	0	24836	
7786	0	24904	
7787	0	25024	
7788	0	25124	
7789	0	25188	
7790	0	25250	
7791	0	25320	
7792	0	25436	
7793	0	25524	
7794	0	25640	
7795	0	25756	
7796	0	25850	
7797	0	25932	
7798	0	26052	
7799	0	26164	
7800	0	26232	
7801	0	26308	
7802	0	26388	
7803	0	26436	
7804	0	26476	
7805	0	26532	
7806	0	26586	
7807	0	26660	
7808	0	26772	
7809	0	26844	
7810	0	26900	
7811	0	26976	
7812	0	27066	
7813	0	27148	
7814	0	27168	
7815	0	27160	
7816	0	27128	
7817	0	27112	
7818	0	27080	
7819	0	27104	
7820	0	27160	
7821	0	27268	
7822	0	27492	
7823	0	27842	
7824	0	28184	
7825	0	28436	
7826	0	28612	
7827	0	28808	
7828	0	28988	
7829	0	29096	
7830	0	29140	
7831	0	29088	
7832	0	29012	
7833	0	28984	
7834	0	29000	
7835	0	29032	
7836	0	29088	
7837	0	29200	
7838	0	29300	
7839	0	29378	
7840	0	29452	
7841	0	29520	
7842	0	29568	
7843	0	29632	
7844	0	29696	
7845	0	29760	
7846	0	29768	
7847	0	29712	
7848	0	29716	
7849	0	29812	
7850	0	29970	
7851	0	30112	
7852	0	30256	
7853	0	30402	
7854	0	30552	
7855	0	30736	
7856	0	30868	
7857	0	30948	
7858	0	31004	
7859	0	31044	
7860	0	31092	
7861	0	31144	
7862	0	31224	
7863	0	31256	
7864	0	31232	
7865	0	31204	
7866	0	31176	
7867	0	31164	
7868	0	31192	
7869	0	31228	
7870	0	31276	
7871	0	31264	
7872	0	31228	
7873	0	31204	
7874	0	31180	
7875	0	31192	
7876	0	31228	
7877	0	31296	
7878	0	31320	
7879	0	31304	
7880	0	31264	
7881	0	31252	
7882	0	31194	
7883	0	31168	
7884	0	31160	
7885	0	31220	
7886	0	31312	
7887	0	31376	
7888	0	31376	
7889	0	31328	
7890	0	31268	
7891	0	31240	
7892	0	31296	
7893	0	31400	
7894	0	31536	
7895	0	31676	
7896	0	31868	
7897	0	32032	
7898	0	32104	
7899	0	32148	
7900	0	32248	
7901	0	32316	
7902	0	32356	
7903	0	32384	
7904	0	32452	
7905	0	32496	
7906	0	32548	
7907	0	32652	
7908	0	32776	
7909	0	32800	
7910	0	32792	
7911	0	32780	
7912	0	32792	
7913	0	32834	
7914	0	32856	
7915	0	32852	
7916	0	32876	
7917	0	32880	
7918	0	32890	
7919	0	32916	
7920	0	32944	
7921	0	32960	
7922	0	32940	
7923	0	32872	
7924	0	32756	
7925	0	32648	
7926	0	32596	
7927	0	32508	
7928	0	32432	
7929	0	32352	
7930	0	32336	
7931	0	32356	
7932	0	32380	
7933	0	32392	
7934	0	32416	
7935	0	32424	
7936	0	32452	
7937	0	32448	
7938	0	32408	
7939	0	32368	
7940	0	32344	
7941	0	32364	
7942	0	32376	
7943	0	32368	
7944	0	32344	
7945	0	32320	
7946	0	32284	
7947	0	32272	
7948	0	32220	
7949	0	32120	
7950	0	32044	
7951	0	32008	
7952	0	31960	
7953	0	31940	
7954	0	31952	
7955	0	31940	
7956	0	31928	
7957	0	31912	
7958	0	31876	
7959	0	31888	
7960	0	31904	
7961	0	31882	
7962	0	31868	
7963	0	31868	
7964	0	31896	
7965	0	31936	
7966	0	31972	
7967	0	32036	
7968	0	32068	
7969	0	32096	
7970	0	32044	
7971	0	31988	
7972	0	31984	
7973	0	31952	
7974	0	31962	
7975	0	32008	
7976	0	32048	
7977	0	32064	
7978	0	32080	
7979	0	32120	
7980	0	32168	
7981	0	32192	
7982	0	32204	
7983	0	32256	
7984	0	32288	
7985	0	32296	
7986	0	32332	
7987	0	32440	
7988	0	32552	
7989	0	32644	
7990	0	32712	
7991	0	32780	
7992	0	32840	
7993	0	32876	
7994	0	32896	
7995	0	32904	
7996	0	32896	
7997	0	32900	
7998	0	32944	
7999	0	32988	
8000	0	32988	
8001	0	32992	
8002	0	33016	
8003	0	33024	
8004	0	33064	
8005	0	33116	
8006	0	33216	
8007	0	33284	
8008	0	33300	
8009	0	33304	
8010	0	33360	
8011	0	33426	
8012	0	33476	
8013	0	33508	
8014	0	33512	
8015	0	33488	
8016	0	33496	
8017	0	33538	
8018	0	33580	
8019	0	33604	
8020	0	33608	
8021	0	33604	
8022	0	33600	
8023	0	33642	
8024	0	33652	
8025	0	33632	
8026	0	33608	
8027	0	33618	
8028	0	33656	
8029	0	33666	
8030	0	33668	
8031	0	33640	
8032	0	33584	
8033	0	33540	
8034	0	33520	
8035	0	33556	
8036	0	33570	
8037	0	33620	
8038	0	33672	
8039	0	33704	
8040	0	33728	
8041	0	33716	
8042	0	33704	
8043	0	33660	
8044	0	33616	
8045	0	33588	
8046	0	33576	
8047	0	33572	
8048	0	33596	
8049	0	33608	
8050	0	33624	
8051	0	33600	
8052	0	33568	
8053	0	33584	
8054	0	33604	
8055	0	33584	
8056	0	33584	
8057	0	33576	
8058	0	33576	
8059	0	33592	
8060	0	33592	
8061	0	33608	
8062	0	33606	
8063	0	33592	
8064	0	33608	
8065	0	33612	
8066	0	33608	
8067	0	33624	
8068	0	33648	
8069	0	33664	
8070	0	33688	
8071	0	33704	
8072	0	33664	
8073	0	33576	
8074	0	33520	
8075	0	33472	
8076	0	33456	
8077	0	33440	
8078	0	33412	
8079	0	33404	
8080	0	33380	
8081	0	33356	
8082	0	33324	
8083	0	33320	
8084	0	33324	
8085	0	33336	
8086	0	33336	
8087	0	33340	
8088	0	33312	
8089	0	33288	
8090	0	33260	
8091	0	33210	
8092	0	33172	
8093	0	33146	
8094	0	33124	
8095	0	33088	
8096	0	33072	
8097	0	33076	
8098	0	33116	
8099	0	33156	
8100	0	33200	
8101	0	33244	
8102	0	33292	
8103	0	33340	
8104	0	33336	
8105	0	33284	
8106	0	33200	
8107	0	33188	
8108	0	33196	
8109	0	33224	
8110	0	33200	
8111	0	33200	
8112	0	33208	
8113	0	33232	
8114	0	33272	
8115	0	33314	
8116	0	33360	
8117	0	33452	
8118	0	33628	
8119	0	33788	
8120	0	33932	
8121	0	34068	
8122	0	34200	
8123	0	34280	
8124	0	34356	
8125	0	34420	
8126	0	34482	
8127	0	34516	
8128	0	34552	
8129	0	34576	
8130	0	34576	
8131	0	34560	
8132	0	34560	
8133	0	34560	
8134	0	34596	
8135	0	34684	
8136	0	34780	
8137	0	34840	
8138	0	34920	
8139	0	35076	
8140	0	35272	
8141	0	35532	
8142	0	35848	
8143	0	36204	
8144	0	36508	
8145	0	36716	
8146	0	36848	
8147	0	36904	
8148	0	36940	
8149	0	36960	
8150	0	37020	
8151	0	37048	
8152	0	37044	
8153	0	37052	
8154	0	37104	
8155	0	37236	
8156	0	37344	
8157	0	37496	
8158	0	37620	
8159	0	37624	
8160	0	37608	
8161	0	37508	
8162	0	37344	
8163	0	37152	
8164	0	37000	
8165	0	36884	
8166	0	36772	
8167	0	36704	
8168	0	36632	
8169	0	36572	
8170	0	36492	
8171	0	36368	
8172	0	36220	
8173	0	35968	
8174	0	35676	
8175	0	35420	
8176	0	35160	
8177	0	34852	
8178	0	34552	
8179	0	34288	
8180	0	33968	
8181	0	33616	
8182	0	33296	
8183	0	33036	
8184	0	32832	
8185	0	32640	
8186	0	32460	
8187	0	32332	
8188	0	32198	
8189	0	32040	
8190	0	31900	
8191	0	31776	
8192	0	31688	
8193	0	31596	
8194	0	31540	
8195	0	31504	
8196	0	31440	
8197	0	31376	
8198	0	31348	
8199	0	31376	
8200	0	31364	
8201	0	31340	
8202	0	31324	
8203	0	31288	
8204	0	31268	
8205	0	31220	
8206	0	31192	
8207	0	31188	
8208	0	31192	
8209	0	31164	
8210	0	31156	
8211	0	31160	
8212	0	31172	
8213	0	31184	
8214	0	31176	
8215	0	31208	
8216	0	31232	
8217	0	31252	
8218	0	31272	
8219	0	31284	
8220	0	31312	
8221	0	31340	
8222	0	31324	
8223	0	31316	
8224	0	31306	
8225	0	31280	
8226	0	31264	
8227	0	31172	
8228	0	31072	
8229	0	30984	
8230	0	30888	
8231	0	30792	
8232	0	30656	
8233	0	30560	
8234	0	30448	
8235	0	30296	
8236	0	30180	
8237	0	30068	
8238	0	29921	
8239	0	29714	
8240	0	29584	
8241	0	29548	
8242	0	29568	
8243	0	29648	
8244	0	29836	
8245	0	30248	
8246	0	30920	
8247	0	31752	
8248	0	32728	
8249	0	33960	
8250	0	35592	
8251	0	37512	
8252	0	39852	
8253	0	42640	
8254	0	45760	
8255	0	49112	
8256	0	52680	
8257	0	56560	
8258	0	60468	
8259	0	62976	
8260	0	64272	
8261	0	64952	
8262	0	65256	
8263	0	65344	
8264	0	65348	
8265	0	65296	
8266	0	65200	
8267	0	65100	
8268	0	64992	
8269	0	64872	
8270	0	64744	
8271	0	64632	
8272	0	64508	
8273	0	64376	
8274	0	64256	
8275	0	64132	
8276	0	64016	
8277	0	63888	
8278	0	63772	
8279	0	63648	
8280	0	63540	
8281	0	63416	
8282	0	63284	
8283	0	63180	
8284	0	63060	
8285	0	62628	
8286	0	56960	
8287	0	51580	
8288	0	46548	
8289	0	42236	
8290	0	38656	
8291	0	35712	
8292	0	33232	
8293	0	31188	
8294	0	29624	
8295	0	28504	
8296	0	27708	
8297	0	27116	
8298	0	26584	
8299	0	26100	
8300	0	25620	
8301	0	25156	
8302	0	24732	
8303	0	24344	
8304	0	23996	
8305	0	23694	
8306	0	23432	
8307	0	23200	
8308	0	22976	
8309	0	22764	
8310	0	22544	
8311	0	22344	
8312	0	22168	
8313	0	22008	
8314	0	21856	
8315	0	21736	
8316	0	21628	
8317	0	21540	
8318	0	21493	
8319	0	21452	
8320	0	21408	
8321	0	21384	
8322	0	21392	
8323	0	21378	
8324	0	21380	
8325	0	21372	
8326	0	21366	
8327	0	21364	
8328	0	21398	
8329	0	21488	
8330	0	21536	
8331	0	21564	
8332	0	21600	
8333	0	21666	
8334	0	21712	
8335	0	21752	
8336	0	21812	
8337	0	21912	
8338	0	22008	
8339	0	22088	
8340	0	22176	
8341	0	22244	
8342	0	22318	
8343	0	22404	
8344	0	22492	
8345	0	22564	
8346	0	22638	
8347	0	22716	
8348	0	22784	
8349	0	22892	
8350	0	22992	
8351	0	23128	
8352	0	23260	
8353	0	23372	
8354	0	23452	
8355	0	23538	
8356	0	23648	
8357	0	23760	
8358	0	23844	
8359	0	23932	
8360	0	23976	
8361	0	24028	
8362	0	24076	
8363	0	24148	
8364	0	24232	
8365	0	24321	
8366	0	24436	
8367	0	24544	
8368	0	24656	
8369	0	24764	
8370	0	24842	
8371	0	24932	
8372	0	25016	
8373	0	25060	
8374	0	25133	
8375	0	25252	
8376	0	25360	
8377	0	25452	
8378	0	25522	
8379	0	25588	
8380	0	25650	
8381	0	25744	
8382	0	25844	
8383	0	25928	
8384	0	26016	
8385	0	26112	
8386	0	26200	
8387	0	26260	
8388	0	26328	
8389	0	26396	
8390	0	26472	
8391	0	26532	
8392	0	26580	
8393	0	26654	
8394	0	26732	
8395	0	26848	
8396	0	26984	
8397	0	27080	
8398	0	27140	
8399	0	27200	
8400	0	27288	
8401	0	27360	
8402	0	27440	
8403	0	27524	
8404	0	27632	
8405	0	27724	
8406	0	27800	
8407	0	27872	
8408	0	27948	
8409	0	28000	
8410	0	28016	
8411	0	28092	
8412	0	28140	
8413	0	28244	
8414	0	28336	
8415	0	28420	
8416	0	28516	
8417	0	28636	
8418	0	28736	
8419	0	28820	
8420	0	28944	
8421	0	29024	
8422	0	29088	
8423	0	29156	
8424	0	29258	
8425	0	29368	
8426	0	29456	
8427	0	29536	
8428	0	29624	
8429	0	29700	
8430	0	29768	
8431	0	29848	
8432	0	29924	
8433	0	30016	
8434	0	30072	
8435	0	30144	
8436	0	30196	
8437	0	30284	
8438	0	30352	
8439	0	30396	
8440	0	30432	
8441	0	30496	
8442	0	30548	
8443	0	30580	
8444	0	30656	
8445	0	30716	
8446	0	30752	
8447	0	30836	
8448	0	30928	
8449	0	31000	
8450	0	31072	
8451	0	31136	
8452	0	31196	
8453	0	31236	
8454	0	31272	
8455	0	31308	
8456	0	31328	
8457	0	31328	
8458	0	31332	
8459	0	31344	
8460	0	31360	
8461	0	31400	
8462	0	31424	
8463	0	31456	
8464	0	31480	
8465	0	31494	
8466	0	31488	
8467	0	31500	
8468	0	31492	
8469	0	31512	
8470	0	31520	
8471	0	31524	
8472	0	31500	
8473	0	31512	
8474	0	31524	
8475	0	31548	
8476	0	31540	
8477	0	31552	
8478	0	31572	
8479	0	31620	
8480	0	31660	
8481	0	31732	
8482	0	31796	
8483	0	31868	
8484	0	31952	
8485	0	32032	
8486	0	32148	
8487	0	32240	
8488	0	32346	
8489	0	32408	
8490	0	32488	
8491	0	32536	
8492	0	32600	
8493	0	32674	
8494	0	32748	
8495	0	32796	
8496	0	32816	
8497	0	32860	
8498	0	32906	
8499	0	32960	
8500	0	33008	
8501	0	33056	
8502	0	33100	
8503	0	33152	
8504	0	33180	
8505	0	33152	
8506	0	33114	
8507	0	33104	
8508	0	33096	
8509	0	33072	
8510	0	33040	
8511	0	33004	
8512	0	32960	
8513	0	32888	
8514	0	32836	
8515	0	32832	
8516	0	32816	
8517	0	32798	
8518	0	32742	
8519	0	32688	
8520	0	32568	
8521	0	32512	
8522	0	32448	
8523	0	32416	
8524	0	32412	
8525	0	32396	
8526	0	32380	
8527	0	32372	
8528	0	32408	
8529	0	32420	
8530	0	32376	
8531	0	32324	
8532	0	32324	
8533	0	32312	
8534	0	32292	
8535	0	32288	
8536	0	32292	
8537	0	32304	
8538	0	32304	
8539	0	32284	
8540	0	32260	
8541	0	32296	
8542	0	32316	
8543	0	32316	
8544	0	32312	
8545	0	32340	
8546	0	32340	
8547	0	32328	
8548	0	32276	
8549	0	32224	
8550	0	32180	
8551	0	32168	
8552	0	32168	
8553	0	32196	
8554	0	32202	
8555	0	32246	
8556	0	32264	
8557	0	32272	
8558	0	32286	
8559	0	32276	
8560	0	32304	
8561	0	32340	
8562	0	32380	
8563	0	32396	
8564	0	32400	
8565	0	32452	
8566	0	32484	
8567	0	32516	
8568	0	32540	
8569	0	32572	
8570	0	32624	
8571	0	32688	
8572	0	32736	
8573	0	32760	
8574	0	32824	
8575	0	32848	
8576	0	32886	
8577	0	32920	
8578	0	32964	
8579	0	33020	
8580	0	33080	
8581	0	33124	
8582	0	33152	
8583	0	33184	
8584	0	33212	
8585	0	33216	
8586	0	33276	
8587	0	33330	
8588	0	33340	
8589	0	33368	
8590	0	33404	
8591	0	33448	
8592	0	33482	
