# OpenSignals Text File Format. Version 1
# {"00:07:80:4B:15:F7": {"position": 0, "device": "biosignalsplux", "device name": "00:07:80:4B:15:F7", "device connection": "BTH00:07:80:4B:15:F7", "sampling rate": 1000, "resolution": [16], "firmware version": 775, "comments": "", "keywords": "", "mode": 0, "sync interval": 2, "date": "2023-4-12", "time": "15:6:18.983", "channels": [1], "sensor": ["ECG"], "label": ["CH1"], "column": ["nSeq", "DI", "CH1"], "special": [{"SpO2": [80, 40, 5, 4, 3, 3]}, {"SpO2": [80, 40, 5, 4, 3, 3]}, {"SpO2": [80, 40, 5, 4, 3, 3]}, {"SpO2": [80, 40, 5, 4, 3, 3]}, {"SpO2": [80, 40, 5, 4, 3, 3]}, {"SpO2": [80, 40, 5, 4, 3, 3]}, {"SpO2": [80, 40, 5, 4, 3, 3]}, {"SpO2": [80, 40, 5, 4, 3, 3]}], "digital IO": [0, 1], "sleeve color": ["green"], "convertedValues": 0}}
# EndOfHeader
0	0	28852	
1	0	29180	
2	0	29396	
3	0	29496	
4	0	29506	
5	0	29490	
6	0	29468	
7	0	29380	
8	0	29332	
9	0	29252	
10	0	29188	
11	0	29154	
12	0	29116	
13	0	29064	
14	0	28992	
15	0	28916	
16	0	28864	
17	0	28858	
18	0	28924	
19	0	28992	
20	0	29058	
21	0	29068	
22	0	29024	
23	0	29010	
24	0	28952	
25	0	28928	
26	0	28984	
27	0	29012	
28	0	29016	
29	0	29064	
30	0	29120	
31	0	29204	
32	0	29336	
33	0	29404	
34	0	29468	
35	0	29488	
36	0	29528	
37	0	29572	
38	0	29608	
39	0	29640	
40	0	29632	
41	0	29620	
42	0	29626	
43	0	29644	
44	0	29670	
45	0	29656	
46	0	29752	
47	0	29868	
48	0	29920	
49	0	29914	
50	0	29984	
51	0	30072	
52	0	30164	
53	0	30212	
54	0	30222	
55	0	30234	
56	0	30260	
57	0	30216	
58	0	30172	
59	0	30240	
60	0	30316	
61	0	30428	
62	0	30528	
63	0	30538	
64	0	30544	
65	0	30612	
66	0	30664	
67	0	30712	
68	0	30752	
69	0	30704	
70	0	30688	
71	0	30756	
72	0	30808	
73	0	30846	
74	0	30892	
75	0	30976	
76	0	31076	
77	0	31128	
78	0	31108	
79	0	31104	
80	0	31140	
81	0	31224	
82	0	31308	
83	0	31372	
84	0	31456	
85	0	31466	
86	0	31418	
87	0	31416	
88	0	31456	
89	0	31468	
90	0	31454	
91	0	31440	
92	0	31516	
93	0	31632	
94	0	31680	
95	0	31680	
96	0	31700	
97	0	31704	
98	0	31776	
99	0	31884	
100	0	31940	
101	0	32040	
102	0	32032	
103	0	32018	
104	0	32008	
105	0	32048	
106	0	32120	
107	0	32196	
108	0	32280	
109	0	32300	
110	0	32272	
111	0	32268	
112	0	32272	
113	0	32298	
114	0	32312	
115	0	32388	
116	0	32516	
117	0	32552	
118	0	32624	
119	0	32680	
120	0	32760	
121	0	32780	
122	0	32820	
123	0	32912	
124	0	32988	
125	0	33072	
126	0	33172	
127	0	33196	
128	0	33156	
129	0	33104	
130	0	33112	
131	0	33184	
132	0	33258	
133	0	33268	
134	0	33280	
135	0	33336	
136	0	33444	
137	0	33552	
138	0	33672	
139	0	33636	
140	0	33604	
141	0	33704	
142	0	33842	
143	0	33940	
144	0	33980	
145	0	34016	
146	0	34048	
147	0	34068	
148	0	34120	
149	0	34192	
150	0	34246	
151	0	34320	
152	0	34352	
153	0	34356	
154	0	34400	
155	0	34460	
156	0	34552	
157	0	34632	
158	0	34692	
159	0	34760	
160	0	34872	
161	0	34976	
162	0	35018	
163	0	34980	
164	0	34964	
165	0	34980	
166	0	35044	
167	0	35080	
168	0	35072	
169	0	35092	
170	0	35152	
171	0	35192	
172	0	35248	
173	0	35296	
174	0	35360	
175	0	35454	
176	0	35484	
177	0	35508	
178	0	35584	
179	0	35616	
180	0	35632	
181	0	35668	
182	0	35712	
183	0	35734	
184	0	35772	
185	0	35852	
186	0	35892	
187	0	35900	
188	0	35896	
189	0	35844	
190	0	35848	
191	0	35932	
192	0	36040	
193	0	36048	
194	0	36040	
195	0	36096	
196	0	36168	
197	0	36200	
198	0	36208	
199	0	36188	
200	0	36152	
201	0	36112	
202	0	36122	
203	0	36080	
204	0	36060	
205	0	36016	
206	0	35948	
207	0	35840	
208	0	35776	
209	0	35716	
210	0	35608	
211	0	35556	
212	0	35572	
213	0	35544	
214	0	35420	
215	0	35260	
216	0	35128	
217	0	34956	
218	0	34760	
219	0	34656	
220	0	34600	
221	0	34508	
222	0	34352	
223	0	34176	
224	0	34008	
225	0	33860	
226	0	33748	
227	0	33616	
228	0	33448	
229	0	33286	
230	0	33152	
231	0	33040	
232	0	32952	
233	0	32852	
234	0	32736	
235	0	32620	
236	0	32484	
237	0	32380	
238	0	32288	
239	0	32196	
240	0	32092	
241	0	32012	
242	0	31892	
243	0	31708	
244	0	31576	
245	0	31524	
246	0	31500	
247	0	31456	
248	0	31400	
249	0	31304	
250	0	31188	
251	0	31092	
252	0	31036	
253	0	30948	
254	0	30852	
255	0	30828	
256	0	30764	
257	0	30724	
258	0	30712	
259	0	30690	
260	0	30612	
261	0	30596	
262	0	30604	
263	0	30572	
264	0	30580	
265	0	30578	
266	0	30560	
267	0	30452	
268	0	30384	
269	0	30440	
270	0	30484	
271	0	30500	
272	0	30528	
273	0	30560	
274	0	30556	
275	0	30536	
276	0	30528	
277	0	30540	
278	0	30508	
279	0	30482	
280	0	30472	
281	0	30496	
282	0	30548	
283	0	30548	
284	0	30596	
285	0	30712	
286	0	30712	
287	0	30652	
288	0	30708	
289	0	30808	
290	0	30932	
291	0	30928	
292	0	30860	
293	0	30796	
294	0	30784	
295	0	30784	
296	0	30828	
297	0	30896	
298	0	30864	
299	0	30828	
300	0	30888	
301	0	30960	
302	0	31024	
303	0	31076	
304	0	31102	
305	0	31118	
306	0	31140	
307	0	31112	
308	0	31116	
309	0	31128	
310	0	31134	
311	0	31168	
312	0	31168	
313	0	31216	
314	0	31290	
315	0	31288	
316	0	31258	
317	0	31260	
318	0	31256	
319	0	31292	
320	0	31320	
321	0	31384	
322	0	31444	
323	0	31424	
324	0	31400	
325	0	31412	
326	0	31424	
327	0	31432	
328	0	31456	
329	0	31484	
330	0	31496	
331	0	31476	
332	0	31484	
333	0	31508	
334	0	31496	
335	0	31496	
336	0	31540	
337	0	31604	
338	0	31656	
339	0	31714	
340	0	31728	
341	0	31680	
342	0	31624	
343	0	31616	
344	0	31620	
345	0	31648	
346	0	31616	
347	0	31608	
348	0	31616	
349	0	31628	
350	0	31640	
351	0	31628	
352	0	31644	
353	0	31754	
354	0	31808	
355	0	31754	
356	0	31718	
357	0	31668	
358	0	31700	
359	0	31736	
360	0	31760	
361	0	31780	
362	0	31840	
363	0	31832	
364	0	31772	
365	0	31756	
366	0	31748	
367	0	31744	
368	0	31736	
369	0	31736	
370	0	31736	
371	0	31784	
372	0	31808	
373	0	31808	
374	0	31816	
375	0	31832	
376	0	31840	
377	0	31904	
378	0	31900	
379	0	31920	
380	0	31992	
381	0	32036	
382	0	32072	
383	0	32114	
384	0	32136	
385	0	32244	
386	0	32348	
387	0	32500	
388	0	32660	
389	0	32832	
390	0	33038	
391	0	33168	
392	0	33316	
393	0	33520	
394	0	33648	
395	0	33692	
396	0	33720	
397	0	33716	
398	0	33712	
399	0	33752	
400	0	33848	
401	0	33968	
402	0	34074	
403	0	34106	
404	0	34048	
405	0	33988	
406	0	33956	
407	0	33972	
408	0	34048	
409	0	34132	
410	0	34256	
411	0	34312	
412	0	34352	
413	0	34456	
414	0	34604	
415	0	34732	
416	0	34748	
417	0	34704	
418	0	34672	
419	0	34664	
420	0	34702	
421	0	34770	
422	0	34880	
423	0	34964	
424	0	34984	
425	0	35054	
426	0	35108	
427	0	35072	
428	0	34996	
429	0	34848	
430	0	34716	
431	0	34576	
432	0	34408	
433	0	34280	
434	0	34124	
435	0	33956	
436	0	33816	
437	0	33649	
438	0	33472	
439	0	33420	
440	0	33392	
441	0	33302	
442	0	33136	
443	0	33012	
444	0	32940	
445	0	32884	
446	0	32832	
447	0	32772	
448	0	32732	
449	0	32748	
450	0	32788	
451	0	32800	
452	0	32736	
453	0	32628	
454	0	32560	
455	0	32432	
456	0	32304	
457	0	32192	
458	0	32148	
459	0	32112	
460	0	32104	
461	0	32032	
462	0	31902	
463	0	31778	
464	0	31672	
465	0	31560	
466	0	31368	
467	0	31188	
468	0	31060	
469	0	31000	
470	0	30896	
471	0	30780	
472	0	30720	
473	0	30700	
474	0	30664	
475	0	30596	
476	0	30672	
477	0	30778	
478	0	30860	
479	0	30792	
480	0	30720	
481	0	30732	
482	0	30696	
483	0	30712	
484	0	30776	
485	0	30816	
486	0	30892	
487	0	30976	
488	0	30914	
489	0	30904	
490	0	30936	
491	0	30936	
492	0	30904	
493	0	30852	
494	0	30864	
495	0	30972	
496	0	31032	
497	0	31000	
498	0	30912	
499	0	30892	
500	0	30904	
501	0	30872	
502	0	30912	
503	0	30964	
504	0	30992	
505	0	31000	
506	0	30984	
507	0	31000	
508	0	31044	
509	0	31108	
510	0	31136	
511	0	31168	
512	0	31188	
513	0	31156	
514	0	31160	
515	0	31218	
516	0	31280	
517	0	31300	
518	0	31300	
519	0	31324	
520	0	31290	
521	0	31288	
522	0	31216	
523	0	31136	
524	0	31016	
525	0	30856	
526	0	30712	
527	0	30552	
528	0	30370	
529	0	30272	
530	0	30234	
531	0	30268	
532	0	30336	
533	0	30536	
534	0	30912	
535	0	31520	
536	0	32312	
537	0	33220	
538	0	34296	
539	0	35508	
540	0	36788	
541	0	38208	
542	0	39872	
543	0	41720	
544	0	43504	
545	0	45196	
546	0	46944	
547	0	48712	
548	0	50464	
549	0	52224	
550	0	53944	
551	0	55508	
552	0	56940	
553	0	58400	
554	0	59880	
555	0	61184	
556	0	62148	
557	0	62996	
558	0	63500	
559	0	63728	
560	0	63788	
561	0	62560	
562	0	59920	
563	0	56608	
564	0	52904	
565	0	49176	
566	0	45080	
567	0	40288	
568	0	35344	
569	0	31364	
570	0	28560	
571	0	26656	
572	0	25520	
573	0	24872	
574	0	24656	
575	0	24708	
576	0	24838	
577	0	25140	
578	0	25602	
579	0	26138	
580	0	26668	
581	0	27192	
582	0	27690	
583	0	28148	
584	0	28552	
585	0	28922	
586	0	29244	
587	0	29448	
588	0	29557	
589	0	29612	
590	0	29532	
591	0	29452	
592	0	29388	
593	0	29372	
594	0	29344	
595	0	29274	
596	0	29232	
597	0	29196	
598	0	29152	
599	0	29084	
600	0	29016	
601	0	28996	
602	0	28988	
603	0	28976	
604	0	28982	
605	0	28968	
606	0	28960	
607	0	29004	
608	0	29068	
609	0	29084	
610	0	29104	
611	0	29164	
612	0	29162	
613	0	29144	
614	0	29152	
615	0	29212	
616	0	29244	
617	0	29280	
618	0	29352	
619	0	29392	
620	0	29488	
621	0	29544	
622	0	29588	
623	0	29560	
624	0	29530	
625	0	29572	
626	0	29588	
627	0	29624	
628	0	29704	
629	0	29794	
630	0	29892	
631	0	29932	
632	0	29956	
633	0	29980	
634	0	29992	
635	0	30008	
636	0	29994	
637	0	30008	
638	0	30048	
639	0	30028	
640	0	30028	
641	0	30040	
642	0	30124	
643	0	30210	
644	0	30256	
645	0	30272	
646	0	30300	
647	0	30368	
648	0	30440	
649	0	30554	
650	0	30704	
651	0	30756	
652	0	30712	
653	0	30636	
654	0	30626	
655	0	30700	
656	0	30814	
657	0	30888	
658	0	30912	
659	0	30904	
660	0	30930	
661	0	30952	
662	0	30944	
663	0	30986	
664	0	31044	
665	0	31084	
666	0	31128	
667	0	31164	
668	0	31178	
669	0	31216	
670	0	31244	
671	0	31256	
672	0	31298	
673	0	31364	
674	0	31456	
675	0	31504	
676	0	31488	
677	0	31548	
678	0	31556	
679	0	31552	
680	0	31580	
681	0	31620	
682	0	31652	
683	0	31706	
684	0	31744	
685	0	31776	
686	0	31832	
687	0	31868	
688	0	31880	
689	0	31876	
690	0	31888	
691	0	31952	
692	0	31992	
693	0	32044	
694	0	32158	
695	0	32172	
696	0	32196	
697	0	32236	
698	0	32276	
699	0	32352	
700	0	32376	
701	0	32372	
702	0	32416	
703	0	32488	
704	0	32524	
705	0	32588	
706	0	32668	
707	0	32704	
708	0	32724	
709	0	32800	
710	0	32840	
711	0	32884	
712	0	32952	
713	0	33058	
714	0	33120	
715	0	33108	
716	0	33104	
717	0	33176	
718	0	33260	
719	0	33336	
720	0	33376	
721	0	33424	
722	0	33444	
723	0	33484	
724	0	33532	
725	0	33612	
726	0	33656	
727	0	33662	
728	0	33696	
729	0	33712	
730	0	33800	
731	0	33844	
732	0	33900	
733	0	34002	
734	0	34064	
735	0	34096	
736	0	34184	
737	0	34268	
738	0	34308	
739	0	34376	
740	0	34440	
741	0	34488	
742	0	34520	
743	0	34548	
744	0	34588	
745	0	34650	
746	0	34740	
747	0	34776	
748	0	34840	
749	0	34908	
750	0	34968	
751	0	35072	
752	0	35164	
753	0	35172	
754	0	35196	
755	0	35264	
756	0	35292	
757	0	35312	
758	0	35364	
759	0	35434	
760	0	35520	
761	0	35576	
762	0	35644	
763	0	35664	
764	0	35676	
765	0	35692	
766	0	35704	
767	0	35716	
768	0	35760	
769	0	35828	
770	0	35904	
771	0	35984	
772	0	35996	
773	0	36036	
774	0	36032	
775	0	36064	
776	0	36112	
777	0	36116	
778	0	36092	
779	0	36122	
780	0	36188	
781	0	36236	
782	0	36276	
783	0	36256	
784	0	36236	
785	0	36192	
786	0	36156	
787	0	36176	
788	0	36180	
789	0	36200	
790	0	36174	
791	0	36120	
792	0	36064	
793	0	36000	
794	0	35906	
795	0	35856	
796	0	35808	
797	0	35760	
798	0	35648	
799	0	35508	
800	0	35412	
801	0	35332	
802	0	35184	
803	0	35064	
804	0	34960	
805	0	34822	
806	0	34660	
807	0	34488	
808	0	34348	
809	0	34240	
810	0	34108	
811	0	34016	
812	0	33976	
813	0	33848	
814	0	33692	
815	0	33556	
816	0	33424	
817	0	33260	
818	0	33080	
819	0	32936	
820	0	32812	
821	0	32702	
822	0	32568	
823	0	32448	
824	0	32352	
825	0	32256	
826	0	32144	
827	0	31968	
828	0	31820	
829	0	31708	
830	0	31648	
831	0	31636	
832	0	31592	
833	0	31444	
834	0	31356	
835	0	31240	
836	0	31136	
837	0	31084	
838	0	31032	
839	0	30982	
840	0	30940	
841	0	30888	
842	0	30792	
843	0	30744	
844	0	30768	
845	0	30784	
846	0	30792	
847	0	30746	
848	0	30700	
849	0	30688	
850	0	30688	
851	0	30624	
852	0	30548	
853	0	30532	
854	0	30514	
855	0	30496	
856	0	30496	
857	0	30516	
858	0	30480	
859	0	30490	
860	0	30528	
861	0	30568	
862	0	30592	
863	0	30632	
864	0	30644	
865	0	30628	
866	0	30604	
867	0	30556	
868	0	30552	
869	0	30608	
870	0	30612	
871	0	30580	
872	0	30584	
873	0	30628	
874	0	30724	
875	0	30736	
876	0	30752	
877	0	30784	
878	0	30804	
879	0	30804	
880	0	30788	
881	0	30756	
882	0	30780	
883	0	30836	
884	0	30896	
885	0	30988	
886	0	31062	
887	0	31098	
888	0	31084	
889	0	31040	
890	0	31052	
891	0	31136	
892	0	31196	
893	0	31208	
894	0	31206	
895	0	31120	
896	0	31080	
897	0	31106	
898	0	31156	
899	0	31208	
900	0	31268	
901	0	31264	
902	0	31264	
903	0	31300	
904	0	31344	
905	0	31332	
906	0	31308	
907	0	31320	
908	0	31352	
909	0	31384	
910	0	31384	
911	0	31392	
912	0	31424	
913	0	31440	
914	0	31496	
915	0	31532	
916	0	31572	
917	0	31584	
918	0	31528	
919	0	31528	
920	0	31560	
921	0	31584	
922	0	31540	
923	0	31532	
924	0	31544	
925	0	31600	
926	0	31692	
927	0	31712	
928	0	31668	
929	0	31620	
930	0	31620	
931	0	31652	
932	0	31684	
933	0	31700	
934	0	31688	
935	0	31696	
936	0	31728	
937	0	31780	
938	0	31840	
939	0	31844	
940	0	31812	
941	0	31732	
942	0	31704	
943	0	31716	
944	0	31748	
945	0	31740	
946	0	31750	
947	0	31754	
948	0	31744	
949	0	31740	
950	0	31700	
951	0	31754	
952	0	31828	
953	0	31832	
954	0	31856	
955	0	31856	
956	0	31800	
957	0	31724	
958	0	31700	
959	0	31700	
960	0	31712	
961	0	31726	
962	0	31696	
963	0	31628	
964	0	31648	
965	0	31640	
966	0	31648	
967	0	31676	
968	0	31682	
969	0	31660	
970	0	31664	
971	0	31636	
972	0	31588	
973	0	31588	
974	0	31596	
975	0	31612	
976	0	31632	
977	0	31688	
978	0	31748	
979	0	31780	
980	0	31794	
981	0	31776	
982	0	31776	
983	0	31800	
984	0	31828	
985	0	31864	
986	0	31876	
987	0	31860	
988	0	31816	
989	0	31800	
990	0	31784	
991	0	31740	
992	0	31720	
993	0	31778	
994	0	31876	
995	0	31952	
996	0	31944	
997	0	31872	
998	0	31892	
999	0	31952	
1000	0	31994	
1001	0	32004	
1002	0	32036	
1003	0	32116	
1004	0	32184	
1005	0	32276	
1006	0	32400	
1007	0	32528	
1008	0	32688	
1009	0	32820	
1010	0	32916	
1011	0	33010	
1012	0	33156	
1013	0	33344	
1014	0	33472	
1015	0	33540	
1016	0	33584	
1017	0	33600	
1018	0	33684	
1019	0	33784	
1020	0	33864	
1021	0	33930	
1022	0	33992	
1023	0	34024	
1024	0	34076	
1025	0	34128	
1026	0	34176	
1027	0	34220	
1028	0	34256	
1029	0	34314	
1030	0	34408	
1031	0	34508	
1032	0	34572	
1033	0	34660	
1034	0	34816	
1035	0	34932	
1036	0	35068	
1037	0	35140	
1038	0	35116	
1039	0	35012	
1040	0	34888	
1041	0	34880	
1042	0	34916	
1043	0	34916	
1044	0	34872	
1045	0	34848	
1046	0	34944	
1047	0	35016	
1048	0	34952	
1049	0	34820	
1050	0	34628	
1051	0	34448	
1052	0	34236	
1053	0	34000	
1054	0	33792	
1055	0	33604	
1056	0	33436	
1057	0	33264	
1058	0	33132	
1059	0	33084	
1060	0	33004	
1061	0	32912	
1062	0	32860	
1063	0	32786	
1064	0	32704	
1065	0	32664	
1066	0	32660	
1067	0	32624	
1068	0	32592	
1069	0	32588	
1070	0	32572	
1071	0	32498	
1072	0	32424	
1073	0	32348	
1074	0	32224	
1075	0	32136	
1076	0	32134	
1077	0	32100	
1078	0	32008	
1079	0	31936	
1080	0	31840	
1081	0	31704	
1082	0	31564	
1083	0	31428	
1084	0	31340	
1085	0	31228	
1086	0	31056	
1087	0	30972	
1088	0	30872	
1089	0	30800	
1090	0	30752	
1091	0	30728	
1092	0	30696	
1093	0	30696	
1094	0	30724	
1095	0	30740	
1096	0	30748	
1097	0	30760	
1098	0	30776	
1099	0	30796	
1100	0	30820	
1101	0	30828	
1102	0	30862	
1103	0	30820	
1104	0	30772	
1105	0	30760	
1106	0	30750	
1107	0	30804	
1108	0	30856	
1109	0	30862	
1110	0	30844	
1111	0	30824	
1112	0	30824	
1113	0	30808	
1114	0	30816	
1115	0	30852	
1116	0	30880	
1117	0	30872	
1118	0	30882	
1119	0	30880	
1120	0	30864	
1121	0	30852	
1122	0	30832	
1123	0	30832	
1124	0	30856	
1125	0	30882	
1126	0	30908	
1127	0	30924	
1128	0	30956	
1129	0	30944	
1130	0	30944	
1131	0	31008	
1132	0	31132	
1133	0	31176	
1134	0	31202	
1135	0	31226	
1136	0	31212	
1137	0	31212	
1138	0	31216	
1139	0	31208	
1140	0	31186	
1141	0	31152	
1142	0	31056	
1143	0	30940	
1144	0	30848	
1145	0	30696	
1146	0	30476	
1147	0	30276	
1148	0	30192	
1149	0	30156	
1150	0	30170	
1151	0	30256	
1152	0	30472	
1153	0	30832	
1154	0	31388	
1155	0	32110	
1156	0	32992	
1157	0	33986	
1158	0	35140	
1159	0	36440	
1160	0	37928	
1161	0	39644	
1162	0	41456	
1163	0	43204	
1164	0	44884	
1165	0	46572	
1166	0	48300	
1167	0	50088	
1168	0	51952	
1169	0	53656	
1170	0	55152	
1171	0	56640	
1172	0	58156	
1173	0	59548	
1174	0	60768	
1175	0	61820	
1176	0	62652	
1177	0	63208	
1178	0	63508	
1179	0	63236	
1180	0	61396	
1181	0	58752	
1182	0	55364	
1183	0	51688	
1184	0	47864	
1185	0	43536	
1186	0	38658	
1187	0	34080	
1188	0	30576	
1189	0	28068	
1190	0	26448	
1191	0	25528	
1192	0	25068	
1193	0	24952	
1194	0	25056	
1195	0	25314	
1196	0	25712	
1197	0	26238	
1198	0	26770	
1199	0	27320	
1200	0	27796	
1201	0	28216	
1202	0	28668	
1203	0	29028	
1204	0	29304	
1205	0	29488	
1206	0	29590	
1207	0	29616	
1208	0	29648	
1209	0	29616	
1210	0	29556	
1211	0	29500	
1212	0	29420	
1213	0	29356	
1214	0	29288	
1215	0	29248	
1216	0	29196	
1217	0	29130	
1218	0	29048	
1219	0	29040	
1220	0	29058	
1221	0	29008	
1222	0	28980	
1223	0	28988	
1224	0	28988	
1225	0	29024	
1226	0	29088	
1227	0	29120	
1228	0	29112	
1229	0	29124	
1230	0	29176	
1231	0	29201	
1232	0	29216	
1233	0	29224	
1234	0	29248	
1235	0	29336	
1236	0	29432	
1237	0	29432	
1238	0	29392	
1239	0	29356	
1240	0	29368	
1241	0	29450	
1242	0	29504	
1243	0	29492	
1244	0	29500	
1245	0	29556	
1246	0	29640	
1247	0	29656	
1248	0	29668	
1249	0	29708	
1250	0	29744	
1251	0	29776	
1252	0	29812	
1253	0	29876	
1254	0	29916	
1255	0	29932	
1256	0	29936	
1257	0	29962	
1258	0	30008	
1259	0	30080	
1260	0	30160	
1261	0	30200	
1262	0	30202	
1263	0	30216	
1264	0	30236	
1265	0	30240	
1266	0	30256	
1267	0	30272	
1268	0	30320	
1269	0	30376	
1270	0	30432	
1271	0	30488	
1272	0	30540	
1273	0	30564	
1274	0	30586	
1275	0	30608	
1276	0	30616	
1277	0	30650	
1278	0	30736	
1279	0	30832	
1280	0	30868	
1281	0	30868	
1282	0	30900	
1283	0	30972	
1284	0	30992	
1285	0	30972	
1286	0	30988	
1287	0	31072	
1288	0	31144	
1289	0	31172	
1290	0	31184	
1291	0	31216	
1292	0	31264	
1293	0	31324	
1294	0	31368	
1295	0	31424	
1296	0	31412	
1297	0	31384	
1298	0	31392	
1299	0	31432	
1300	0	31496	
1301	0	31560	
1302	0	31604	
1303	0	31660	
1304	0	31744	
1305	0	31792	
1306	0	31848	
1307	0	31888	
1308	0	31924	
1309	0	31944	
1310	0	31908	
1311	0	31888	
1312	0	31928	
1313	0	31992	
1314	0	32068	
1315	0	32152	
1316	0	32212	
1317	0	32228	
1318	0	32196	
1319	0	32212	
1320	0	32260	
1321	0	32340	
1322	0	32324	
1323	0	32320	
1324	0	32384	
1325	0	32480	
1326	0	32516	
1327	0	32556	
1328	0	32672	
1329	0	32788	
1330	0	32800	
1331	0	32752	
1332	0	32794	
1333	0	32908	
1334	0	32940	
1335	0	32944	
1336	0	33000	
1337	0	33088	
1338	0	33128	
1339	0	33140	
1340	0	33164	
1341	0	33224	
1342	0	33314	
1343	0	33380	
1344	0	33468	
1345	0	33548	
1346	0	33584	
1347	0	33584	
1348	0	33616	
1349	0	33672	
1350	0	33712	
1351	0	33760	
1352	0	33828	
1353	0	33886	
1354	0	33978	
1355	0	34016	
1356	0	34068	
1357	0	34124	
1358	0	34200	
1359	0	34308	
1360	0	34356	
1361	0	34388	
1362	0	34416	
1363	0	34468	
1364	0	34520	
1365	0	34584	
1366	0	34632	
1367	0	34640	
1368	0	34660	
1369	0	34664	
1370	0	34700	
1371	0	34728	
1372	0	34756	
1373	0	34828	
1374	0	34886	
1375	0	34968	
1376	0	35088	
1377	0	35156	
1378	0	35194	
1379	0	35242	
1380	0	35312	
1381	0	35432	
1382	0	35500	
1383	0	35544	
1384	0	35568	
1385	0	35600	
1386	0	35632	
1387	0	35632	
1388	0	35632	
1389	0	35680	
1390	0	35712	
1391	0	35732	
1392	0	35756	
1393	0	35820	
1394	0	35896	
1395	0	35928	
1396	0	35936	
1397	0	35940	
1398	0	35992	
1399	0	36020	
1400	0	36048	
1401	0	36082	
1402	0	36096	
1403	0	36122	
1404	0	36128	
1405	0	36180	
1406	0	36240	
1407	0	36272	
1408	0	36240	
1409	0	36176	
1410	0	36112	
1411	0	36088	
1412	0	36056	
1413	0	36024	
1414	0	36040	
1415	0	35944	
1416	0	35796	
1417	0	35684	
1418	0	35616	
1419	0	35518	
1420	0	35452	
1421	0	35360	
1422	0	35192	
1423	0	35052	
1424	0	34980	
1425	0	34900	
1426	0	34804	
1427	0	34632	
1428	0	34432	
1429	0	34276	
1430	0	34184	
1431	0	34036	
1432	0	33872	
1433	0	33784	
1434	0	33672	
1435	0	33568	
1436	0	33394	
1437	0	33236	
1438	0	33124	
1439	0	32960	
1440	0	32812	
1441	0	32688	
1442	0	32540	
1443	0	32364	
1444	0	32212	
1445	0	32144	
1446	0	32084	
1447	0	31968	
1448	0	31886	
1449	0	31808	
1450	0	31684	
1451	0	31576	
1452	0	31480	
1453	0	31378	
1454	0	31296	
1455	0	31328	
1456	0	31260	
1457	0	31204	
1458	0	31144	
1459	0	31060	
1460	0	30984	
1461	0	30904	
1462	0	30864	
1463	0	30856	
1464	0	30828	
1465	0	30780	
1466	0	30688	
1467	0	30620	
1468	0	30600	
1469	0	30592	
1470	0	30570	
1471	0	30536	
1472	0	30544	
1473	0	30556	
1474	0	30552	
1475	0	30504	
1476	0	30496	
1477	0	30484	
1478	0	30496	
1479	0	30506	
1480	0	30512	
1481	0	30496	
1482	0	30508	
1483	0	30514	
1484	0	30506	
1485	0	30504	
1486	0	30492	
1487	0	30496	
1488	0	30508	
1489	0	30560	
1490	0	30596	
1491	0	30632	
1492	0	30636	
1493	0	30616	
1494	0	30616	
1495	0	30636	
1496	0	30636	
1497	0	30628	
1498	0	30652	
1499	0	30708	
1500	0	30688	
1501	0	30664	
1502	0	30668	
1503	0	30696	
1504	0	30752	
1505	0	30784	
1506	0	30784	
1507	0	30812	
1508	0	30842	
1509	0	30848	
1510	0	30836	
1511	0	30848	
1512	0	30860	
1513	0	30848	
1514	0	30860	
1515	0	30960	
1516	0	31008	
1517	0	31036	
1518	0	31068	
1519	0	31068	
1520	0	31084	
1521	0	31084	
1522	0	31058	
1523	0	31024	
1524	0	31044	
1525	0	31068	
1526	0	31110	
1527	0	31148	
1528	0	31168	
1529	0	31168	
1530	0	31180	
1531	0	31200	
1532	0	31232	
1533	0	31208	
1534	0	31232	
1535	0	31274	
1536	0	31296	
1537	0	31306	
1538	0	31320	
1539	0	31332	
1540	0	31360	
1541	0	31368	
1542	0	31352	
1543	0	31340	
1544	0	31360	
1545	0	31388	
1546	0	31408	
1547	0	31400	
1548	0	31392	
1549	0	31384	
1550	0	31424	
1551	0	31424	
1552	0	31408	
1553	0	31396	
1554	0	31394	
1555	0	31424	
1556	0	31444	
1557	0	31440	
1558	0	31410	
1559	0	31492	
1560	0	31552	
1561	0	31546	
1562	0	31468	
1563	0	31440	
1564	0	31444	
1565	0	31456	
1566	0	31460	
1567	0	31440	
1568	0	31412	
1569	0	31440	
1570	0	31484	
1571	0	31520	
1572	0	31520	
1573	0	31512	
1574	0	31504	
1575	0	31456	
1576	0	31408	
1577	0	31416	
1578	0	31500	
1579	0	31552	
1580	0	31556	
1581	0	31544	
1582	0	31528	
1583	0	31512	
1584	0	31492	
1585	0	31520	
1586	0	31488	
1587	0	31472	
1588	0	31456	
1589	0	31444	
1590	0	31444	
1591	0	31468	
1592	0	31500	
1593	0	31512	
1594	0	31558	
1595	0	31600	
1596	0	31568	
1597	0	31532	
1598	0	31496	
1599	0	31500	
1600	0	31508	
1601	0	31528	
1602	0	31540	
1603	0	31552	
1604	0	31520	
1605	0	31544	
1606	0	31544	
1607	0	31544	
1608	0	31592	
1609	0	31612	
1610	0	31576	
1611	0	31560	
1612	0	31564	
1613	0	31588	
1614	0	31564	
1615	0	31560	
1616	0	31546	
1617	0	31560	
1618	0	31572	
1619	0	31536	
1620	0	31512	
1621	0	31496	
1622	0	31476	
1623	0	31492	
1624	0	31572	
1625	0	31636	
1626	0	31712	
1627	0	31750	
1628	0	31700	
1629	0	31664	
1630	0	31664	
1631	0	31704	
1632	0	31684	
1633	0	31656	
1634	0	31668	
1635	0	31696	
1636	0	31696	
1637	0	31680	
1638	0	31680	
1639	0	31656	
1640	0	31684	
1641	0	31728	
1642	0	31776	
1643	0	31828	
1644	0	31844	
1645	0	31864	
1646	0	31908	
1647	0	31920	
1648	0	31856	
1649	0	31772	
1650	0	31724	
1651	0	31760	
1652	0	31810	
1653	0	31872	
1654	0	31944	
1655	0	32016	
1656	0	32096	
1657	0	32212	
1658	0	32288	
1659	0	32368	
1660	0	32468	
1661	0	32560	
1662	0	32696	
1663	0	32848	
1664	0	32992	
1665	0	33144	
1666	0	33248	
1667	0	33392	
1668	0	33516	
1669	0	33620	
1670	0	33696	
1671	0	33714	
1672	0	33688	
1673	0	33696	
1674	0	33780	
1675	0	33880	
1676	0	33964	
1677	0	33976	
1678	0	34008	
1679	0	34084	
1680	0	34116	
1681	0	34096	
1682	0	34152	
1683	0	34292	
1684	0	34424	
1685	0	34512	
1686	0	34640	
1687	0	34776	
1688	0	34916	
1689	0	35056	
1690	0	35088	
1691	0	35128	
1692	0	35100	
1693	0	34984	
1694	0	34896	
1695	0	34832	
1696	0	34836	
1697	0	34860	
1698	0	34888	
1699	0	34960	
1700	0	35040	
1701	0	35052	
1702	0	34964	
1703	0	34792	
1704	0	34600	
1705	0	34440	
1706	0	34292	
1707	0	34128	
1708	0	33968	
1709	0	33820	
1710	0	33612	
1711	0	33428	
1712	0	33300	
1713	0	33232	
1714	0	33144	
1715	0	33084	
1716	0	32984	
1717	0	32900	
1718	0	32836	
1719	0	32794	
1720	0	32738	
1721	0	32696	
1722	0	32680	
1723	0	32640	
1724	0	32608	
1725	0	32584	
1726	0	32540	
1727	0	32408	
1728	0	32272	
1729	0	32184	
1730	0	32158	
1731	0	32156	
1732	0	32084	
1733	0	31976	
1734	0	31864	
1735	0	31744	
1736	0	31640	
1737	0	31516	
1738	0	31380	
1739	0	31272	
1740	0	31208	
1741	0	31144	
1742	0	31064	
1743	0	30978	
1744	0	30918	
1745	0	30864	
1746	0	30864	
1747	0	30876	
1748	0	30844	
1749	0	30841	
1750	0	30880	
1751	0	30920	
1752	0	30960	
1753	0	30972	
1754	0	30960	
1755	0	30952	
1756	0	30948	
1757	0	30952	
1758	0	30940	
1759	0	30924	
1760	0	30920	
1761	0	30942	
1762	0	30960	
1763	0	30964	
1764	0	30936	
1765	0	30944	
1766	0	30944	
1767	0	30968	
1768	0	30972	
1769	0	30940	
1770	0	30908	
1771	0	30888	
1772	0	30880	
1773	0	30916	
1774	0	30952	
1775	0	30946	
1776	0	30976	
1777	0	30982	
1778	0	30992	
1779	0	31024	
1780	0	31052	
1781	0	31064	
1782	0	31036	
1783	0	31056	
1784	0	31112	
1785	0	31156	
1786	0	31196	
1787	0	31208	
1788	0	31228	
1789	0	31226	
1790	0	31200	
1791	0	31208	
1792	0	31244	
1793	0	31256	
1794	0	31182	
1795	0	31040	
1796	0	30936	
1797	0	30812	
1798	0	30644	
1799	0	30436	
1800	0	30240	
1801	0	30124	
1802	0	30144	
1803	0	30232	
1804	0	30360	
1805	0	30582	
1806	0	30972	
1807	0	31524	
1808	0	32164	
1809	0	33060	
1810	0	34154	
1811	0	35312	
1812	0	36548	
1813	0	37968	
1814	0	39656	
1815	0	41488	
1816	0	43204	
1817	0	44884	
1818	0	46620	
1819	0	48360	
1820	0	50132	
1821	0	51952	
1822	0	53608	
1823	0	55096	
1824	0	56520	
1825	0	57984	
1826	0	59424	
1827	0	60644	
1828	0	61640	
1829	0	62440	
1830	0	63092	
1831	0	63348	
1832	0	62616	
1833	0	60704	
1834	0	57964	
1835	0	54444	
1836	0	50732	
1837	0	46936	
1838	0	42648	
1839	0	37932	
1840	0	33608	
1841	0	30378	
1842	0	28072	
1843	0	26568	
1844	0	25754	
1845	0	25368	
1846	0	25288	
1847	0	25356	
1848	0	25592	
1849	0	25996	
1850	0	26480	
1851	0	27040	
1852	0	27568	
1853	0	28060	
1854	0	28460	
1855	0	28856	
1856	0	29236	
1857	0	29554	
1858	0	29748	
1859	0	29804	
1860	0	29818	
1861	0	29768	
1862	0	29716	
1863	0	29660	
1864	0	29584	
1865	0	29492	
1866	0	29416	
1867	0	29360	
1868	0	29312	
1869	0	29256	
1870	0	29228	
1871	0	29200	
1872	0	29168	
1873	0	29100	
1874	0	29078	
1875	0	29072	
1876	0	29076	
1877	0	29076	
1878	0	29098	
1879	0	29156	
1880	0	29212	
1881	0	29244	
1882	0	29212	
1883	0	29208	
1884	0	29220	
1885	0	29244	
1886	0	29236	
1887	0	29264	
1888	0	29284	
1889	0	29352	
1890	0	29404	
1891	0	29460	
1892	0	29504	
1893	0	29538	
1894	0	29572	
1895	0	29588	
1896	0	29580	
1897	0	29600	
1898	0	29624	
1899	0	29652	
1900	0	29744	
1901	0	29808	
1902	0	29816	
1903	0	29812	
1904	0	29820	
1905	0	29844	
1906	0	29888	
1907	0	29968	
1908	0	30016	
1909	0	30010	
1910	0	30012	
1911	0	30060	
1912	0	30144	
1913	0	30174	
1914	0	30202	
1915	0	30248	
1916	0	30316	
1917	0	30376	
1918	0	30420	
1919	0	30480	
1920	0	30548	
1921	0	30552	
1922	0	30536	
1923	0	30536	
1924	0	30604	
1925	0	30648	
1926	0	30668	
1927	0	30704	
1928	0	30702	
1929	0	30712	
1930	0	30752	
1931	0	30816	
1932	0	30860	
1933	0	30912	
1934	0	30920	
1935	0	30920	
1936	0	30908	
1937	0	30944	
1938	0	31008	
1939	0	31024	
1940	0	31026	
1941	0	31072	
1942	0	31128	
1943	0	31132	
1944	0	31168	
1945	0	31220	
1946	0	31288	
1947	0	31320	
1948	0	31328	
1949	0	31392	
1950	0	31416	
1951	0	31376	
1952	0	31408	
1953	0	31448	
1954	0	31476	
1955	0	31520	
1956	0	31536	
1957	0	31592	
1958	0	31676	
1959	0	31776	
1960	0	31840	
1961	0	31828	
1962	0	31834	
1963	0	31832	
1964	0	31856	
1965	0	31900	
1966	0	31928	
1967	0	31996	
1968	0	32056	
1969	0	32060	
1970	0	32068	
1971	0	32052	
1972	0	32064	
1973	0	32128	
1974	0	32224	
1975	0	32296	
1976	0	32364	
1977	0	32404	
1978	0	32414	
1979	0	32448	
1980	0	32512	
1981	0	32592	
1982	0	32688	
1983	0	32724	
1984	0	32736	
1985	0	32744	
1986	0	32764	
1987	0	32760	
1988	0	32786	
1989	0	32848	
1990	0	32916	
1991	0	32980	
1992	0	33040	
1993	0	33080	
1994	0	33116	
1995	0	33156	
1996	0	33212	
1997	0	33248	
1998	0	33288	
1999	0	33384	
2000	0	33484	
2001	0	33504	
2002	0	33520	
2003	0	33556	
2004	0	33580	
2005	0	33612	
2006	0	33684	
2007	0	33816	
2008	0	33912	
2009	0	33944	
2010	0	33968	
2011	0	34016	
2012	0	34056	
2013	0	34120	
2014	0	34184	
2015	0	34258	
2016	0	34264	
2017	0	34280	
2018	0	34360	
2019	0	34432	
2020	0	34432	
2021	0	34448	
2022	0	34540	
2023	0	34600	
2024	0	34668	
2025	0	34682	
2026	0	34684	
2027	0	34784	
2028	0	34884	
2029	0	34912	
2030	0	34976	
2031	0	35028	
2032	0	35060	
2033	0	35132	
2034	0	35212	
2035	0	35252	
2036	0	35256	
2037	0	35284	
2038	0	35296	
2039	0	35324	
2040	0	35392	
2041	0	35448	
2042	0	35472	
2043	0	35472	
2044	0	35548	
2045	0	35632	
2046	0	35684	
2047	0	35684	
2048	0	35664	
2049	0	35696	
2050	0	35736	
2051	0	35752	
2052	0	35752	
2053	0	35772	
2054	0	35800	
2055	0	35828	
2056	0	35880	
2057	0	35936	
2058	0	35956	
2059	0	35962	
2060	0	35948	
2061	0	35952	
2062	0	35936	
2063	0	35880	
2064	0	35848	
2065	0	35780	
2066	0	35736	
2067	0	35780	
2068	0	35733	
2069	0	35680	
2070	0	35628	
2071	0	35612	
2072	0	35580	
2073	0	35460	
2074	0	35352	
2075	0	35228	
2076	0	35156	
2077	0	35042	
2078	0	34932	
2079	0	34796	
2080	0	34608	
2081	0	34460	
2082	0	34336	
2083	0	34228	
2084	0	34108	
2085	0	33986	
2086	0	33828	
2087	0	33716	
2088	0	33628	
2089	0	33524	
2090	0	33384	
2091	0	33220	
2092	0	33052	
2093	0	32920	
2094	0	32792	
2095	0	32660	
2096	0	32544	
2097	0	32424	
2098	0	32324	
2099	0	32228	
2100	0	32132	
2101	0	32032	
2102	0	31920	
2103	0	31780	
2104	0	31668	
2105	0	31576	
2106	0	31520	
2107	0	31440	
2108	0	31352	
2109	0	31280	
2110	0	31228	
2111	0	31140	
2112	0	31060	
2113	0	30992	
2114	0	30920	
2115	0	30836	
2116	0	30780	
2117	0	30728	
2118	0	30688	
2119	0	30664	
2120	0	30672	
2121	0	30692	
2122	0	30704	
2123	0	30668	
2124	0	30612	
2125	0	30600	
2126	0	30554	
2127	0	30544	
2128	0	30536	
2129	0	30528	
2130	0	30488	
2131	0	30476	
2132	0	30460	
2133	0	30440	
2134	0	30436	
2135	0	30436	
2136	0	30448	
2137	0	30448	
2138	0	30460	
2139	0	30460	
2140	0	30472	
2141	0	30448	
2142	0	30432	
2143	0	30452	
2144	0	30496	
2145	0	30572	
2146	0	30616	
2147	0	30596	
2148	0	30556	
2149	0	30598	
2150	0	30656	
2151	0	30684	
2152	0	30624	
2153	0	30592	
2154	0	30644	
2155	0	30696	
2156	0	30712	
2157	0	30746	
2158	0	30752	
2159	0	30746	
2160	0	30742	
2161	0	30772	
2162	0	30800	
2163	0	30828	
2164	0	30876	
2165	0	30906	
2166	0	30938	
2167	0	30956	
2168	0	30992	
2169	0	31004	
2170	0	30992	
2171	0	30976	
2172	0	31026	
2173	0	31066	
2174	0	31108	
2175	0	31104	
2176	0	31028	
2177	0	30988	
2178	0	31024	
2179	0	31076	
2180	0	31108	
2181	0	31128	
2182	0	31136	
2183	0	31162	
2184	0	31168	
2185	0	31184	
2186	0	31216	
2187	0	31216	
2188	0	31220	
2189	0	31208	
2190	0	31226	
2191	0	31228	
2192	0	31236	
2193	0	31256	
2194	0	31316	
2195	0	31380	
2196	0	31392	
2197	0	31360	
2198	0	31336	
2199	0	31328	
2200	0	31340	
2201	0	31368	
2202	0	31380	
2203	0	31368	
2204	0	31360	
2205	0	31380	
2206	0	31380	
2207	0	31380	
2208	0	31396	
2209	0	31408	
2210	0	31416	
2211	0	31444	
2212	0	31460	
2213	0	31452	
2214	0	31432	
2215	0	31396	
2216	0	31392	
2217	0	31368	
2218	0	31400	
2219	0	31424	
2220	0	31448	
2221	0	31472	
2222	0	31464	
2223	0	31424	
2224	0	31428	
2225	0	31412	
2226	0	31420	
2227	0	31432	
2228	0	31432	
2229	0	31440	
2230	0	31444	
2231	0	31460	
2232	0	31492	
2233	0	31504	
2234	0	31476	
2235	0	31392	
2236	0	31356	
2237	0	31376	
2238	0	31380	
2239	0	31388	
2240	0	31386	
2241	0	31436	
2242	0	31484	
2243	0	31516	
2244	0	31544	
2245	0	31608	
2246	0	31600	
2247	0	31612	
2248	0	31578	
2249	0	31528	
2250	0	31536	
2251	0	31616	
2252	0	31672	
2253	0	31658	
2254	0	31584	
2255	0	31584	
2256	0	31608	
2257	0	31596	
2258	0	31560	
2259	0	31532	
2260	0	31544	
2261	0	31508	
2262	0	31480	
2263	0	31516	
2264	0	31596	
2265	0	31646	
2266	0	31664	
2267	0	31628	
2268	0	31644	
2269	0	31620	
2270	0	31608	
2271	0	31616	
2272	0	31656	
2273	0	31652	
2274	0	31560	
2275	0	31532	
2276	0	31612	
2277	0	31660	
2278	0	31648	
2279	0	31674	
2280	0	31736	
2281	0	31788	
2282	0	31792	
2283	0	31776	
2284	0	31736	
2285	0	31672	
2286	0	31689	
2287	0	31728	
2288	0	31764	
2289	0	31760	
2290	0	31744	
2291	0	31764	
2292	0	31776	
2293	0	31744	
2294	0	31684	
2295	0	31648	
2296	0	31648	
2297	0	31712	
2298	0	31752	
2299	0	31768	
2300	0	31756	
2301	0	31724	
2302	0	31728	
2303	0	31700	
2304	0	31692	
2305	0	31732	
2306	0	31760	
2307	0	31764	
2308	0	31728	
2309	0	31738	
2310	0	31720	
2311	0	31728	
2312	0	31768	
2313	0	31824	
2314	0	31868	
2315	0	31866	
2316	0	31868	
2317	0	31856	
2318	0	31880	
2319	0	31864	
2320	0	31868	
2321	0	31912	
2322	0	31916	
2323	0	31880	
2324	0	31900	
2325	0	31944	
2326	0	31972	
2327	0	32012	
2328	0	32064	
2329	0	32160	
2330	0	32300	
2331	0	32448	
2332	0	32556	
2333	0	32632	
2334	0	32756	
2335	0	32900	
2336	0	33036	
2337	0	33176	
2338	0	33314	
2339	0	33496	
2340	0	33616	
2341	0	33704	
2342	0	33792	
2343	0	33804	
2344	0	33780	
2345	0	33760	
2346	0	33792	
2347	0	33824	
2348	0	33916	
2349	0	34004	
2350	0	34104	
2351	0	34164	
2352	0	34224	
2353	0	34248	
2354	0	34244	
2355	0	34328	
2356	0	34520	
2357	0	34666	
2358	0	34760	
2359	0	34864	
2360	0	34992	
2361	0	35092	
2362	0	35092	
2363	0	35044	
2364	0	34976	
2365	0	34864	
2366	0	34784	
2367	0	34796	
2368	0	34836	
2369	0	34858	
2370	0	34880	
2371	0	34928	
2372	0	35024	
2373	0	35060	
2374	0	35008	
2375	0	34868	
2376	0	34708	
2377	0	34544	
2378	0	34450	
2379	0	34300	
2380	0	34146	
2381	0	33948	
2382	0	33744	
2383	0	33562	
2384	0	33456	
2385	0	33396	
2386	0	33300	
2387	0	33168	
2388	0	33056	
2389	0	33018	
2390	0	32948	
2391	0	32888	
2392	0	32864	
2393	0	32824	
2394	0	32760	
2395	0	32728	
2396	0	32712	
2397	0	32672	
2398	0	32536	
2399	0	32368	
2400	0	32252	
2401	0	32224	
2402	0	32280	
2403	0	32280	
2404	0	32216	
2405	0	32108	
2406	0	31964	
2407	0	31818	
2408	0	31624	
2409	0	31472	
2410	0	31364	
2411	0	31304	
2412	0	31204	
2413	0	31136	
2414	0	31048	
2415	0	30976	
2416	0	30936	
2417	0	30928	
2418	0	30896	
2419	0	30912	
2420	0	30922	
2421	0	30920	
2422	0	30980	
2423	0	30996	
2424	0	30952	
2425	0	30944	
2426	0	30960	
2427	0	31016	
2428	0	31092	
2429	0	31128	
2430	0	31072	
2431	0	31032	
2432	0	31060	
2433	0	31066	
2434	0	30992	
2435	0	30964	
2436	0	31024	
2437	0	31076	
2438	0	31078	
2439	0	31080	
2440	0	31092	
2441	0	31088	
2442	0	31120	
2443	0	31144	
2444	0	31124	
2445	0	31096	
2446	0	31128	
2447	0	31168	
2448	0	31220	
2449	0	31264	
2450	0	31264	
2451	0	31256	
2452	0	31240	
2453	0	31284	
2454	0	31336	
2455	0	31356	
2456	0	31360	
2457	0	31344	
2458	0	31324	
2459	0	31344	
2460	0	31384	
2461	0	31436	
2462	0	31456	
2463	0	31440	
2464	0	31412	
2465	0	31348	
2466	0	31224	
2467	0	31096	
2468	0	30924	
2469	0	30706	
2470	0	30492	
2471	0	30340	
2472	0	30248	
2473	0	30280	
2474	0	30376	
2475	0	30496	
2476	0	30756	
2477	0	31228	
2478	0	31872	
2479	0	32600	
2480	0	33528	
2481	0	34640	
2482	0	35824	
2483	0	37160	
2484	0	38724	
2485	0	40516	
2486	0	42324	
2487	0	44058	
2488	0	45812	
2489	0	47616	
2490	0	49420	
2491	0	51280	
2492	0	53040	
2493	0	54612	
2494	0	56020	
2495	0	57456	
2496	0	58912	
2497	0	60296	
2498	0	61448	
2499	0	62348	
2500	0	62964	
2501	0	63404	
2502	0	63104	
2503	0	61620	
2504	0	59212	
2505	0	55960	
2506	0	52248	
2507	0	48476	
2508	0	44416	
2509	0	39848	
2510	0	35232	
2511	0	31596	
2512	0	29020	
2513	0	27280	
2514	0	26282	
2515	0	25776	
2516	0	25636	
2517	0	25672	
2518	0	25780	
2519	0	26048	
2520	0	26456	
2521	0	26908	
2522	0	27408	
2523	0	27956	
2524	0	28456	
2525	0	28880	
2526	0	29270	
2527	0	29644	
2528	0	29892	
2529	0	29984	
2530	0	30016	
2531	0	29964	
2532	0	29944	
2533	0	29940	
2534	0	29900	
2535	0	29844	
2536	0	29736	
2537	0	29608	
2538	0	29524	
2539	0	29456	
2540	0	29424	
2541	0	29392	
2542	0	29400	
2543	0	29388	
2544	0	29372	
2545	0	29376	
2546	0	29384	
2547	0	29340	
2548	0	29340	
2549	0	29356	
2550	0	29320	
2551	0	29280	
2552	0	29344	
2553	0	29408	
2554	0	29448	
2555	0	29448	
2556	0	29472	
2557	0	29536	
2558	0	29576	
2559	0	29612	
2560	0	29612	
2561	0	29652	
2562	0	29658	
2563	0	29652	
2564	0	29672	
2565	0	29724	
2566	0	29776	
2567	0	29792	
2568	0	29856	
2569	0	29912	
2570	0	29904	
2571	0	29938	
2572	0	29996	
2573	0	30040	
2574	0	30076	
2575	0	30080	
2576	0	30072	
2577	0	30120	
2578	0	30148	
2579	0	30176	
2580	0	30176	
2581	0	30216	
2582	0	30242	
2583	0	30280	
2584	0	30336	
2585	0	30372	
2586	0	30412	
2587	0	30476	
2588	0	30492	
2589	0	30516	
2590	0	30576	
2591	0	30580	
2592	0	30592	
2593	0	30632	
2594	0	30664	
2595	0	30668	
2596	0	30688	
2597	0	30720	
2598	0	30724	
2599	0	30724	
2600	0	30772	
2601	0	30832	
2602	0	30876	
2603	0	30896	
2604	0	30984	
2605	0	31048	
2606	0	31048	
2607	0	31024	
2608	0	31018	
2609	0	31034	
2610	0	31036	
2611	0	31056	
2612	0	31096	
2613	0	31124	
2614	0	31184	
2615	0	31240	
2616	0	31272	
2617	0	31284	
2618	0	31332	
2619	0	31432	
2620	0	31488	
2621	0	31528	
2622	0	31528	
2623	0	31508	
2624	0	31528	
2625	0	31586	
2626	0	31636	
2627	0	31672	
2628	0	31668	
2629	0	31672	
2630	0	31692	
2631	0	31732	
2632	0	31744	
2633	0	31784	
2634	0	31836	
2635	0	31928	
2636	0	32014	
2637	0	32064	
2638	0	32112	
2639	0	32120	
2640	0	32192	
2641	0	32264	
2642	0	32300	
2643	0	32336	
2644	0	32344	
2645	0	32340	
2646	0	32340	
2647	0	32380	
2648	0	32424	
2649	0	32496	
2650	0	32548	
2651	0	32544	
2652	0	32544	
2653	0	32580	
2654	0	32608	
2655	0	32644	
2656	0	32684	
2657	0	32736	
2658	0	32832	
2659	0	32912	
2660	0	32928	
2661	0	32936	
2662	0	32970	
2663	0	33056	
2664	0	33136	
2665	0	33216	
2666	0	33264	
2667	0	33276	
2668	0	33304	
2669	0	33368	
2670	0	33436	
2671	0	33486	
2672	0	33512	
2673	0	33544	
2674	0	33568	
2675	0	33566	
2676	0	33560	
2677	0	33648	
2678	0	33760	
2679	0	33852	
2680	0	33896	
2681	0	33928	
2682	0	34012	
2683	0	34080	
2684	0	34106	
2685	0	34176	
2686	0	34248	
2687	0	34288	
2688	0	34340	
2689	0	34388	
2690	0	34416	
2691	0	34456	
2692	0	34520	
2693	0	34564	
2694	0	34608	
2695	0	34668	
2696	0	34724	
2697	0	34776	
2698	0	34852	
2699	0	34928	
2700	0	34980	
2701	0	35040	
2702	0	35084	
2703	0	35100	
2704	0	35144	
2705	0	35208	
2706	0	35276	
2707	0	35312	
2708	0	35344	
2709	0	35344	
2710	0	35356	
2711	0	35392	
2712	0	35428	
2713	0	35476	
2714	0	35500	
2715	0	35516	
2716	0	35516	
2717	0	35504	
2718	0	35556	
2719	0	35600	
2720	0	35648	
2721	0	35688	
2722	0	35744	
2723	0	35816	
2724	0	35852	
2725	0	35892	
2726	0	35904	
2727	0	35860	
2728	0	35824	
2729	0	35832	
2730	0	35846	
2731	0	35856	
2732	0	35888	
2733	0	35884	
2734	0	35864	
2735	0	35852	
2736	0	35844	
2737	0	35840	
2738	0	35768	
2739	0	35724	
2740	0	35656	
2741	0	35676	
2742	0	35668	
2743	0	35588	
2744	0	35504	
2745	0	35418	
2746	0	35288	
2747	0	35184	
2748	0	35068	
2749	0	34936	
2750	0	34800	
2751	0	34704	
2752	0	34608	
2753	0	34484	
2754	0	34372	
2755	0	34264	
2756	0	34160	
2757	0	34032	
2758	0	33916	
2759	0	33808	
2760	0	33692	
2761	0	33544	
2762	0	33388	
2763	0	33258	
2764	0	33140	
2765	0	32992	
2766	0	32832	
2767	0	32672	
2768	0	32540	
2769	0	32428	
2770	0	32324	
2771	0	32228	
2772	0	32168	
2773	0	32104	
2774	0	32020	
2775	0	31904	
2776	0	31840	
2777	0	31756	
2778	0	31648	
2779	0	31540	
2780	0	31440	
2781	0	31360	
2782	0	31312	
2783	0	31256	
2784	0	31248	
2785	0	31216	
2786	0	31116	
2787	0	31028	
2788	0	30976	
2789	0	30888	
2790	0	30824	
2791	0	30796	
2792	0	30752	
2793	0	30716	
2794	0	30686	
2795	0	30648	
2796	0	30612	
2797	0	30672	
2798	0	30692	
2799	0	30640	
2800	0	30596	
2801	0	30576	
2802	0	30586	
2803	0	30592	
2804	0	30580	
2805	0	30564	
2806	0	30560	
2807	0	30532	
2808	0	30528	
2809	0	30536	
2810	0	30528	
2811	0	30544	
2812	0	30544	
2813	0	30564	
2814	0	30600	
2815	0	30618	
2816	0	30612	
2817	0	30600	
2818	0	30600	
2819	0	30624	
2820	0	30640	
2821	0	30642	
2822	0	30664	
2823	0	30700	
2824	0	30700	
2825	0	30720	
2826	0	30776	
2827	0	30848	
2828	0	30908	
2829	0	30920	
2830	0	30952	
2831	0	30952	
2832	0	30920	
2833	0	30884	
2834	0	30880	
2835	0	30896	
2836	0	30872	
2837	0	30832	
2838	0	30828	
2839	0	30832	
2840	0	30884	
2841	0	30972	
2842	0	31024	
2843	0	31056	
2844	0	31076	
2845	0	31072	
2846	0	31080	
2847	0	31056	
2848	0	31068	
2849	0	31060	
2850	0	31072	
2851	0	31114	
2852	0	31168	
2853	0	31156	
2854	0	31152	
2855	0	31168	
2856	0	31200	
2857	0	31240	
2858	0	31266	
2859	0	31316	
2860	0	31332	
2861	0	31312	
2862	0	31312	
2863	0	31344	
2864	0	31360	
2865	0	31336	
2866	0	31348	
2867	0	31374	
2868	0	31376	
2869	0	31368	
2870	0	31384	
2871	0	31420	
2872	0	31434	
2873	0	31394	
2874	0	31396	
2875	0	31372	
2876	0	31368	
2877	0	31332	
2878	0	31320	
2879	0	31348	
2880	0	31356	
2881	0	31328	
2882	0	31304	
2883	0	31340	
2884	0	31380	
2885	0	31408	
2886	0	31456	
2887	0	31476	
2888	0	31452	
2889	0	31444	
2890	0	31472	
2891	0	31448	
2892	0	31452	
2893	0	31452	
2894	0	31436	
2895	0	31408	
2896	0	31408	
2897	0	31372	
2898	0	31336	
2899	0	31344	
2900	0	31408	
2901	0	31484	
2902	0	31512	
2903	0	31500	
2904	0	31476	
2905	0	31464	
2906	0	31456	
2907	0	31468	
2908	0	31484	
2909	0	31496	
2910	0	31532	
2911	0	31556	
2912	0	31536	
2913	0	31516	
2914	0	31520	
2915	0	31532	
2916	0	31544	
2917	0	31568	
2918	0	31600	
2919	0	31616	
2920	0	31608	
2921	0	31584	
2922	0	31556	
2923	0	31552	
2924	0	31556	
2925	0	31548	
2926	0	31548	
2927	0	31552	
2928	0	31536	
2929	0	31536	
2930	0	31528	
2931	0	31546	
2932	0	31624	
2933	0	31692	
2934	0	31692	
2935	0	31664	
2936	0	31692	
2937	0	31700	
2938	0	31692	
2939	0	31668	
2940	0	31660	
2941	0	31678	
2942	0	31712	
2943	0	31684	
2944	0	31616	
2945	0	31608	
2946	0	31636	
2947	0	31676	
2948	0	31708	
2949	0	31688	
2950	0	31676	
2951	0	31668	
2952	0	31640	
2953	0	31680	
2954	0	31716	
2955	0	31748	
2956	0	31784	
2957	0	31784	
2958	0	31770	
2959	0	31796	
2960	0	31812	
2961	0	31786	
2962	0	31776	
2963	0	31812	
2964	0	31868	
2965	0	31844	
2966	0	31816	
2967	0	31836	
2968	0	31868	
2969	0	31848	
2970	0	31800	
2971	0	31804	
2972	0	31868	
2973	0	31864	
2974	0	31820	
2975	0	31816	
2976	0	31868	
2977	0	31916	
2978	0	31912	
2979	0	31892	
2980	0	31928	
2981	0	31972	
2982	0	31948	
2983	0	31880	
2984	0	31860	
2985	0	31856	
2986	0	31872	
2987	0	31876	
2988	0	31848	
2989	0	31844	
2990	0	31840	
2991	0	31834	
2992	0	31838	
2993	0	31874	
2994	0	31932	
2995	0	31960	
2996	0	31952	
2997	0	31930	
2998	0	31944	
2999	0	32032	
3000	0	32112	
3001	0	32176	
3002	0	32256	
3003	0	32372	
3004	0	32502	
3005	0	32624	
3006	0	32724	
3007	0	32800	
3008	0	32928	
3009	0	33048	
3010	0	33168	
3011	0	33268	
3012	0	33412	
3013	0	33604	
3014	0	33688	
3015	0	33720	
3016	0	33764	
3017	0	33760	
3018	0	33760	
3019	0	33800	
3020	0	33852	
3021	0	33928	
3022	0	33956	
3023	0	34012	
3024	0	34098	
3025	0	34152	
3026	0	34172	
3027	0	34186	
3028	0	34256	
3029	0	34464	
3030	0	34592	
3031	0	34696	
3032	0	34780	
3033	0	34884	
3034	0	34984	
3035	0	35008	
3036	0	34944	
3037	0	34874	
3038	0	34800	
3039	0	34764	
3040	0	34788	
3041	0	34876	
3042	0	34956	
3043	0	34984	
3044	0	35024	
3045	0	35112	
3046	0	35132	
3047	0	35028	
3048	0	34836	
3049	0	34652	
3050	0	34488	
3051	0	34288	
3052	0	34096	
3053	0	33920	
3054	0	33672	
3055	0	33464	
3056	0	33324	
3057	0	33208	
3058	0	33150	
3059	0	33088	
3060	0	33056	
3061	0	33044	
3062	0	32996	
3063	0	32936	
3064	0	32924	
3065	0	32928	
3066	0	32896	
3067	0	32812	
3068	0	32740	
3069	0	32664	
3070	0	32584	
3071	0	32456	
3072	0	32388	
3073	0	32384	
3074	0	32360	
3075	0	32288	
3076	0	32200	
3077	0	32100	
3078	0	31964	
3079	0	31822	
3080	0	31724	
3081	0	31680	
3082	0	31568	
3083	0	31424	
3084	0	31340	
3085	0	31240	
3086	0	31096	
3087	0	31042	
3088	0	31072	
3089	0	31044	
3090	0	31008	
3091	0	30956	
3092	0	30892	
3093	0	30856	
3094	0	30888	
3095	0	30952	
3096	0	31032	
3097	0	31076	
3098	0	31104	
3099	0	31108	
3100	0	31116	
3101	0	31114	
3102	0	31120	
3103	0	31072	
3104	0	31012	
3105	0	31008	
3106	0	31024	
3107	0	31040	
3108	0	31060	
3109	0	31084	
3110	0	31074	
3111	0	31068	
3112	0	31024	
3113	0	31040	
3114	0	31088	
3115	0	31060	
3116	0	31064	
3117	0	31040	
3118	0	31048	
3119	0	31082	
3120	0	31128	
3121	0	31152	
3122	0	31176	
3123	0	31264	
3124	0	31332	
3125	0	31360	
3126	0	31372	
3127	0	31360	
3128	0	31380	
3129	0	31408	
3130	0	31412	
3131	0	31428	
3132	0	31440	
3133	0	31476	
3134	0	31500	
3135	0	31444	
3136	0	31388	
3137	0	31304	
3138	0	31172	
3139	0	31044	
3140	0	30900	
3141	0	30736	
3142	0	30480	
3143	0	30268	
3144	0	30202	
3145	0	30256	
3146	0	30356	
3147	0	30528	
3148	0	30792	
3149	0	31248	
3150	0	31880	
3151	0	32684	
3152	0	33720	
3153	0	34896	
3154	0	36120	
3155	0	37412	
3156	0	38992	
3157	0	40720	
3158	0	42448	
3159	0	44204	
3160	0	46032	
3161	0	47856	
3162	0	49756	
3163	0	51608	
3164	0	53304	
3165	0	54852	
3166	0	56272	
3167	0	57656	
3168	0	59092	
3169	0	60452	
3170	0	61548	
3171	0	62340	
3172	0	62940	
3173	0	63276	
3174	0	62696	
3175	0	61024	
3176	0	58500	
3177	0	55080	
3178	0	51332	
3179	0	47568	
3180	0	43428	
3181	0	38812	
3182	0	34292	
3183	0	30792	
3184	0	28404	
3185	0	26856	
3186	0	26016	
3187	0	25680	
3188	0	25644	
3189	0	25692	
3190	0	25744	
3191	0	25956	
3192	0	26304	
3193	0	26808	
3194	0	27336	
3195	0	27860	
3196	0	28364	
3197	0	28756	
3198	0	29132	
3199	0	29488	
3200	0	29752	
3201	0	29888	
3202	0	29916	
3203	0	29864	
3204	0	29856	
3205	0	29836	
3206	0	29792	
3207	0	29744	
3208	0	29660	
3209	0	29576	
3210	0	29500	
3211	0	29460	
3212	0	29460	
3213	0	29412	
3214	0	29320	
3215	0	29216	
3216	0	29204	
3217	0	29180	
3218	0	29192	
3219	0	29240	
3220	0	29268	
3221	0	29312	
3222	0	29316	
3223	0	29320	
3224	0	29344	
3225	0	29336	
3226	0	29312	
3227	0	29268	
3228	0	29308	
3229	0	29320	
3230	0	29352	
3231	0	29388	
3232	0	29448	
3233	0	29524	
3234	0	29580	
3235	0	29608	
3236	0	29604	
3237	0	29642	
3238	0	29680	
3239	0	29720	
3240	0	29732	
3241	0	29756	
3242	0	29812	
3243	0	29868	
3244	0	29916	
3245	0	29960	
3246	0	29968	
3247	0	29960	
3248	0	29960	
3249	0	29972	
3250	0	30008	
3251	0	30048	
3252	0	30104	
3253	0	30108	
3254	0	30124	
3255	0	30128	
3256	0	30100	
3257	0	30150	
3258	0	30256	
3259	0	30312	
3260	0	30340	
3261	0	30336	
3262	0	30368	
3263	0	30384	
3264	0	30400	
3265	0	30412	
3266	0	30496	
3267	0	30608	
3268	0	30684	
3269	0	30700	
3270	0	30648	
3271	0	30632	
3272	0	30648	
3273	0	30656	
3274	0	30680	
3275	0	30768	
3276	0	30860	
3277	0	30908	
3278	0	30924	
3279	0	30952	
3280	0	30972	
3281	0	31008	
3282	0	31024	
3283	0	31068	
3284	0	31132	
3285	0	31194	
3286	0	31256	
3287	0	31260	
3288	0	31236	
3289	0	31218	
3290	0	31264	
3291	0	31272	
3292	0	31348	
3293	0	31396	
3294	0	31372	
3295	0	31424	
3296	0	31472	
3297	0	31476	
3298	0	31500	
3299	0	31520	
3300	0	31590	
3301	0	31652	
3302	0	31704	
3303	0	31748	
3304	0	31816	
3305	0	31892	
3306	0	31928	
3307	0	31920	
3308	0	31900	
3309	0	31920	
3310	0	31940	
3311	0	31968	
3312	0	32008	
3313	0	32044	
3314	0	32100	
3315	0	32172	
3316	0	32200	
3317	0	32280	
3318	0	32356	
3319	0	32384	
3320	0	32412	
3321	0	32432	
3322	0	32480	
3323	0	32504	
3324	0	32552	
3325	0	32644	
3326	0	32732	
3327	0	32736	
3328	0	32724	
3329	0	32748	
3330	0	32776	
3331	0	32800	
3332	0	32882	
3333	0	32912	
3334	0	32940	
3335	0	33048	
3336	0	33104	
3337	0	33136	
3338	0	33124	
3339	0	33184	
3340	0	33264	
3341	0	33268	
3342	0	33316	
3343	0	33376	
3344	0	33496	
3345	0	33516	
3346	0	33512	
3347	0	33580	
3348	0	33648	
3349	0	33756	
3350	0	33840	
3351	0	33890	
3352	0	33968	
3353	0	34016	
3354	0	34024	
3355	0	34044	
3356	0	34076	
3357	0	34104	
3358	0	34088	
3359	0	34088	
3360	0	34136	
3361	0	34264	
3362	0	34388	
3363	0	34460	
3364	0	34504	
3365	0	34548	
3366	0	34568	
3367	0	34568	
3368	0	34548	
3369	0	34612	
3370	0	34692	
3371	0	34716	
3372	0	34752	
3373	0	34836	
3374	0	34924	
3375	0	35008	
3376	0	35106	
3377	0	35208	
3378	0	35216	
3379	0	35232	
3380	0	35264	
3381	0	35280	
3382	0	35272	
3383	0	35274	
3384	0	35264	
3385	0	35312	
3386	0	35316	
3387	0	35416	
3388	0	35504	
3389	0	35520	
3390	0	35558	
3391	0	35596	
3392	0	35616	
3393	0	35616	
3394	0	35624	
3395	0	35632	
3396	0	35628	
3397	0	35696	
3398	0	35736	
3399	0	35800	
3400	0	35846	
3401	0	35892	
3402	0	35880	
3403	0	35824	
3404	0	35834	
3405	0	35820	
3406	0	35800	
3407	0	35784	
3408	0	35804	
3409	0	35804	
3410	0	35788	
3411	0	35738	
3412	0	35660	
3413	0	35616	
3414	0	35556	
3415	0	35464	
3416	0	35416	
3417	0	35340	
3418	0	35260	
3419	0	35096	
3420	0	34940	
3421	0	34816	
3422	0	34740	
3423	0	34652	
3424	0	34538	
3425	0	34460	
3426	0	34344	
3427	0	34192	
3428	0	34080	
3429	0	33936	
3430	0	33780	
3431	0	33616	
3432	0	33484	
3433	0	33356	
3434	0	33252	
3435	0	33120	
3436	0	33024	
3437	0	32856	
3438	0	32680	
3439	0	32540	
3440	0	32444	
3441	0	32360	
3442	0	32208	
3443	0	32072	
3444	0	31980	
3445	0	31888	
3446	0	31792	
3447	0	31668	
3448	0	31508	
3449	0	31352	
3450	0	31200	
3451	0	31120	
3452	0	31100	
3453	0	31040	
3454	0	30944	
3455	0	30920	
3456	0	30948	
3457	0	30896	
3458	0	30784	
3459	0	30712	
3460	0	30672	
3461	0	30618	
3462	0	30608	
3463	0	30604	
3464	0	30556	
3465	0	30548	
3466	0	30484	
3467	0	30408	
3468	0	30324	
3469	0	30336	
3470	0	30356	
3471	0	30334	
3472	0	30276	
3473	0	30232	
3474	0	30160	
3475	0	30152	
3476	0	30168	
3477	0	30172	
3478	0	30148	
3479	0	30128	
3480	0	30148	
3481	0	30196	
3482	0	30180	
3483	0	30164	
3484	0	30214	
3485	0	30254	
3486	0	30240	
3487	0	30236	
3488	0	30260	
3489	0	30308	
3490	0	30360	
3491	0	30372	
3492	0	30362	
3493	0	30370	
3494	0	30400	
3495	0	30428	
3496	0	30528	
3497	0	30596	
3498	0	30586	
3499	0	30568	
3500	0	30576	
3501	0	30572	
3502	0	30552	
3503	0	30516	
3504	0	30528	
3505	0	30540	
3506	0	30536	
3507	0	30556	
3508	0	30568	
3509	0	30600	
3510	0	30640	
3511	0	30714	
3512	0	30788	
3513	0	30800	
3514	0	30760	
3515	0	30744	
3516	0	30744	
3517	0	30752	
3518	0	30772	
3519	0	30816	
3520	0	30824	
3521	0	30856	
3522	0	30896	
3523	0	30944	
3524	0	30984	
3525	0	30988	
3526	0	30952	
3527	0	30932	
3528	0	30940	
3529	0	30964	
3530	0	30968	
3531	0	30980	
3532	0	30998	
3533	0	31020	
3534	0	31074	
3535	0	31076	
3536	0	31060	
3537	0	31048	
3538	0	31098	
3539	0	31152	
3540	0	31176	
3541	0	31212	
3542	0	31252	
3543	0	31304	
3544	0	31288	
3545	0	31260	
3546	0	31274	
3547	0	31252	
3548	0	31196	
3549	0	31196	
3550	0	31226	
3551	0	31288	
3552	0	31308	
3553	0	31296	
3554	0	31274	
3555	0	31316	
3556	0	31352	
3557	0	31348	
3558	0	31344	
3559	0	31340	
3560	0	31310	
3561	0	31280	
3562	0	31244	
3563	0	31256	
3564	0	31264	
3565	0	31266	
3566	0	31252	
3567	0	31224	
3568	0	31228	
3569	0	31276	
3570	0	31352	
3571	0	31436	
3572	0	31452	
3573	0	31428	
3574	0	31364	
3575	0	31288	
3576	0	31296	
3577	0	31372	
3578	0	31368	
3579	0	31312	
3580	0	31344	
3581	0	31408	
3582	0	31424	
3583	0	31388	
3584	0	31392	
3585	0	31456	
3586	0	31532	
3587	0	31552	
3588	0	31580	
3589	0	31556	
3590	0	31556	
3591	0	31488	
3592	0	31424	
3593	0	31392	
3594	0	31352	
3595	0	31272	
3596	0	31172	
3597	0	31200	
3598	0	31240	
3599	0	31264	
3600	0	31308	
3601	0	31340	
3602	0	31304	
3603	0	31276	
3604	0	31324	
3605	0	31392	
3606	0	31440	
3607	0	31424	
3608	0	31400	
3609	0	31388	
3610	0	31420	
3611	0	31420	
3612	0	31436	
3613	0	31444	
3614	0	31472	
3615	0	31432	
3616	0	31424	
3617	0	31380	
3618	0	31368	
3619	0	31404	
3620	0	31432	
3621	0	31396	
3622	0	31400	
3623	0	31404	
3624	0	31356	
3625	0	31356	
3626	0	31416	
3627	0	31456	
3628	0	31504	
3629	0	31492	
3630	0	31472	
3631	0	31456	
3632	0	31488	
3633	0	31508	
3634	0	31548	
3635	0	31600	
3636	0	31640	
3637	0	31668	
3638	0	31660	
3639	0	31584	
3640	0	31560	
3641	0	31580	
3642	0	31584	
3643	0	31594	
3644	0	31592	
3645	0	31608	
3646	0	31628	
3647	0	31600	
3648	0	31552	
3649	0	31536	
3650	0	31552	
3651	0	31520	
3652	0	31552	
3653	0	31608	
3654	0	31676	
3655	0	31768	
3656	0	31824	
3657	0	31866	
3658	0	31912	
3659	0	31988	
3660	0	32082	
3661	0	32132	
3662	0	32124	
3663	0	32200	
3664	0	32354	
3665	0	32556	
3666	0	32720	
3667	0	32772	
3668	0	32836	
3669	0	32948	
3670	0	33064	
3671	0	33156	
3672	0	33226	
3673	0	33240	
3674	0	33248	
3675	0	33314	
3676	0	33390	
3677	0	33466	
3678	0	33612	
3679	0	33676	
3680	0	33736	
3681	0	33792	
3682	0	33824	
3683	0	33816	
3684	0	33818	
3685	0	33944	
3686	0	34148	
3687	0	34314	
3688	0	34464	
3689	0	34632	
3690	0	34784	
3691	0	34888	
3692	0	35008	
3693	0	35192	
3694	0	35172	
3695	0	35020	
3696	0	34936	
3697	0	34880	
3698	0	34808	
3699	0	34794	
3700	0	34808	
3701	0	34824	
3702	0	34912	
3703	0	34942	
3704	0	34860	
3705	0	34722	
3706	0	34512	
3707	0	34360	
3708	0	34224	
3709	0	34060	
3710	0	33884	
3711	0	33688	
3712	0	33504	
3713	0	33344	
3714	0	33298	
3715	0	33248	
3716	0	33196	
3717	0	33126	
3718	0	33032	
3719	0	32916	
3720	0	32792	
3721	0	32724	
3722	0	32772	
3723	0	32824	
3724	0	32824	
3725	0	32808	
3726	0	32740	
3727	0	32620	
3728	0	32512	
3729	0	32352	
3730	0	32224	
3731	0	32154	
3732	0	32104	
3733	0	32032	
3734	0	31968	
3735	0	31888	
3736	0	31776	
3737	0	31624	
3738	0	31464	
3739	0	31360	
3740	0	31316	
3741	0	31232	
3742	0	31128	
3743	0	30996	
3744	0	30896	
3745	0	30840	
3746	0	30812	
3747	0	30844	
3748	0	30788	
3749	0	30724	
3750	0	30748	
3751	0	30848	
3752	0	30940	
3753	0	30908	
3754	0	30896	
3755	0	30928	
3756	0	30986	
3757	0	30964	
3758	0	30900	
3759	0	30864	
3760	0	30920	
3761	0	30968	
3762	0	31002	
3763	0	31008	
3764	0	30996	
3765	0	30964	
3766	0	31004	
3767	0	31042	
3768	0	31000	
3769	0	30912	
3770	0	30952	
3771	0	31036	
3772	0	31096	
3773	0	31096	
3774	0	31112	
3775	0	31148	
3776	0	31168	
3777	0	31138	
3778	0	31092	
3779	0	31124	
3780	0	31260	
3781	0	31340	
3782	0	31388	
3783	0	31388	
3784	0	31328	
3785	0	31328	
3786	0	31336	
3787	0	31300	
3788	0	31296	
3789	0	31288	
3790	0	31216	
3791	0	31218	
3792	0	31284	
3793	0	31330	
3794	0	31252	
3795	0	31156	
3796	0	31064	
3797	0	30920	
3798	0	30656	
3799	0	30480	
3800	0	30374	
3801	0	30368	
3802	0	30360	
3803	0	30400	
3804	0	30488	
3805	0	30812	
3806	0	31316	
3807	0	32008	
3808	0	32758	
3809	0	33688	
3810	0	34872	
3811	0	36242	
3812	0	37780	
3813	0	39496	
3814	0	41340	
3815	0	43192	
3816	0	45068	
3817	0	46944	
3818	0	48824	
3819	0	50600	
3820	0	52372	
3821	0	54016	
3822	0	55528	
3823	0	56984	
3824	0	58352	
3825	0	59760	
3826	0	61088	
3827	0	62192	
3828	0	62952	
3829	0	63456	
3830	0	63324	
3831	0	62052	
3832	0	59848	
3833	0	56792	
3834	0	53160	
3835	0	49472	
3836	0	45632	
3837	0	41344	
3838	0	36604	
3839	0	32304	
3840	0	28960	
3841	0	26676	
3842	0	25528	
3843	0	25060	
3844	0	24992	
3845	0	25132	
3846	0	25336	
3847	0	25396	
3848	0	25540	
3849	0	25784	
3850	0	26112	
3851	0	26464	
3852	0	26896	
3853	0	27332	
3854	0	27734	
3855	0	28078	
3856	0	28404	
3857	0	28768	
3858	0	29108	
3859	0	29356	
3860	0	29568	
3861	0	29700	
3862	0	29760	
3863	0	29740	
3864	0	29764	
3865	0	29780	
3866	0	29712	
3867	0	29608	
3868	0	29500	
3869	0	29344	
3870	0	29220	
3871	0	29136	
3872	0	29176	
3873	0	29210	
3874	0	29204	
3875	0	29244	
3876	0	29253	
3877	0	29276	
3878	0	29284	
3879	0	29280	
3880	0	29288	
3881	0	29416	
3882	0	29560	
3883	0	29600	
3884	0	29576	
3885	0	29640	
3886	0	29674	
3887	0	29636	
3888	0	29640	
3889	0	29640	
3890	0	29752	
3891	0	29928	
3892	0	29964	
3893	0	29908	
3894	0	29864	
3895	0	29904	
3896	0	29892	
3897	0	29860	
3898	0	29860	
3899	0	29876	
3900	0	29940	
3901	0	29944	
3902	0	29946	
3903	0	29928	
3904	0	29880	
3905	0	29880	
3906	0	29906	
3907	0	29944	
3908	0	30052	
3909	0	30228	
3910	0	30324	
3911	0	30396	
3912	0	30396	
3913	0	30424	
3914	0	30460	
3915	0	30424	
3916	0	30372	
3917	0	30412	
3918	0	30492	
3919	0	30612	
3920	0	30704	
3921	0	30724	
3922	0	30624	
3923	0	30568	
3924	0	30574	
3925	0	30632	
3926	0	30716	
3927	0	30816	
3928	0	30904	
3929	0	30892	
3930	0	30904	
3931	0	30936	
3932	0	30988	
3933	0	31024	
3934	0	30988	
3935	0	31036	
3936	0	31168	
3937	0	31272	
3938	0	31352	
3939	0	31452	
3940	0	31448	
3941	0	31464	
3942	0	31454	
3943	0	31356	
3944	0	31328	
3945	0	31360	
3946	0	31408	
3947	0	31428	
3948	0	31484	
3949	0	31532	
3950	0	31544	
3951	0	31584	
3952	0	31592	
3953	0	31628	
3954	0	31820	
3955	0	31972	
3956	0	32068	
3957	0	32088	
3958	0	32178	
3959	0	32244	
3960	0	32216	
3961	0	32150	
3962	0	32192	
3963	0	32128	
3964	0	32080	
3965	0	32004	
3966	0	31944	
3967	0	31972	
3968	0	32040	
3969	0	32092	
3970	0	32108	
3971	0	32104	
3972	0	32228	
3973	0	32356	
3974	0	32512	
3975	0	32576	
3976	0	32588	
3977	0	32556	
3978	0	32608	
3979	0	32660	
3980	0	32716	
3981	0	32800	
3982	0	32860	
3983	0	32868	
3984	0	32860	
3985	0	32900	
3986	0	32880	
3987	0	32920	
3988	0	33000	
3989	0	33088	
3990	0	33156	
3991	0	33176	
3992	0	33212	
3993	0	33248	
3994	0	33352	
3995	0	33376	
3996	0	33336	
3997	0	33356	
3998	0	33340	
3999	0	33388	
4000	0	33434	
4001	0	33436	
4002	0	33464	
4003	0	33592	
4004	0	33712	
4005	0	33772	
4006	0	33856	
4007	0	33976	
4008	0	34060	
4009	0	34076	
4010	0	34208	
4011	0	34304	
4012	0	34312	
4013	0	34304	
4014	0	34316	
4015	0	34392	
4016	0	34456	
4017	0	34500	
4018	0	34498	
4019	0	34532	
4020	0	34592	
4021	0	34628	
4022	0	34732	
4023	0	34820	
4024	0	34892	
4025	0	34952	
4026	0	35004	
4027	0	35120	
4028	0	35284	
4029	0	35300	
4030	0	35272	
4031	0	35280	
4032	0	35296	
4033	0	35360	
4034	0	35428	
4035	0	35482	
4036	0	35436	
4037	0	35376	
4038	0	35328	
4039	0	35288	
4040	0	35404	
4041	0	35540	
4042	0	35552	
4043	0	35660	
4044	0	35764	
4045	0	35860	
4046	0	35912	
4047	0	35944	
4048	0	36000	
4049	0	36036	
4050	0	36048	
4051	0	36064	
4052	0	36136	
4053	0	36120	
4054	0	36124	
4055	0	36154	
4056	0	36164	
4057	0	36088	
4058	0	36052	
4059	0	36080	
4060	0	36128	
4061	0	36148	
4062	0	36168	
4063	0	36268	
4064	0	36272	
4065	0	36200	
4066	0	36120	
4067	0	36000	
4068	0	35928	
4069	0	35868	
4070	0	35776	
4071	0	35660	
4072	0	35584	
4073	0	35424	
4074	0	35268	
4075	0	35128	
4076	0	35004	
4077	0	34960	
4078	0	34944	
4079	0	34876	
4080	0	34708	
4081	0	34536	
4082	0	34456	
4083	0	34300	
4084	0	34124	
4085	0	34004	
4086	0	33860	
4087	0	33752	
4088	0	33666	
4089	0	33552	
4090	0	33360	
4091	0	33160	
4092	0	32976	
4093	0	32800	
4094	0	32584	
4095	0	32338	
4096	0	32154	
4097	0	31896	
4098	0	31722	
4099	0	31596	
4100	0	31528	
4101	0	31480	
4102	0	31420	
4103	0	31384	
4104	0	31346	
4105	0	31228	
4106	0	31084	
4107	0	30998	
4108	0	30856	
4109	0	30816	
4110	0	30804	
4111	0	30760	
4112	0	30694	
4113	0	30596	
4114	0	30496	
4115	0	30372	
4116	0	30300	
4117	0	30220	
4118	0	30256	
4119	0	30332	
4120	0	30348	
4121	0	30344	
4122	0	30336	
4123	0	30288	
4124	0	30232	
4125	0	30106	
4126	0	29976	
4127	0	29920	
4128	0	29920	
4129	0	29988	
4130	0	30108	
4131	0	30112	
4132	0	30016	
4133	0	30024	
4134	0	29932	
4135	0	29804	
4136	0	29772	
4137	0	29828	
4138	0	29872	
4139	0	29908	
4140	0	29912	
4141	0	29888	
4142	0	29852	
4143	0	29816	
4144	0	29868	
4145	0	29892	
4146	0	29936	
4147	0	30086	
4148	0	30200	
4149	0	30176	
4150	0	30116	
4151	0	30072	
4152	0	30068	
4153	0	30082	
4154	0	30048	
4155	0	30040	
4156	0	30136	
4157	0	30180	
4158	0	30200	
4159	0	30240	
4160	0	30256	
4161	0	30288	
4162	0	30316	
4163	0	30396	
4164	0	30412	
4165	0	30412	
4166	0	30406	
4167	0	30444	
4168	0	30536	
4169	0	30568	
4170	0	30512	
4171	0	30448	
4172	0	30424	
4173	0	30540	
4174	0	30572	
4175	0	30600	
4176	0	30626	
4177	0	30768	
4178	0	30876	
4179	0	30892	
4180	0	30902	
4181	0	30976	
4182	0	31004	
4183	0	30988	
4184	0	31012	
4185	0	31060	
4186	0	31040	
4187	0	31016	
4188	0	30990	
4189	0	31044	
4190	0	31064	
4191	0	31016	
4192	0	31024	
4193	0	31060	
4194	0	31084	
4195	0	31088	
4196	0	31058	
4197	0	31056	
4198	0	31068	
4199	0	31092	
4200	0	31084	
4201	0	31040	
4202	0	31042	
4203	0	31076	
4204	0	31040	
4205	0	30996	
4206	0	31008	
4207	0	31072	
4208	0	31112	
4209	0	31124	
4210	0	31156	
4211	0	31202	
4212	0	31308	
4213	0	31360	
4214	0	31344	
4215	0	31340	
4216	0	31332	
4217	0	31288	
4218	0	31200	
4219	0	31120	
4220	0	31220	
4221	0	31352	
4222	0	31370	
4223	0	31320	
4224	0	31316	
4225	0	31368	
4226	0	31360	
4227	0	31296	
4228	0	31296	
4229	0	31352	
4230	0	31416	
4231	0	31472	
4232	0	31448	
4233	0	31404	
4234	0	31397	
4235	0	31456	
4236	0	31500	
4237	0	31500	
4238	0	31448	
4239	0	31356	
4240	0	31354	
4241	0	31424	
4242	0	31428	
4243	0	31408	
4244	0	31424	
4245	0	31456	
4246	0	31544	
4247	0	31552	
4248	0	31480	
4249	0	31440	
4250	0	31432	
4251	0	31444	
4252	0	31416	
4253	0	31360	
4254	0	31436	
4255	0	31512	
4256	0	31640	
4257	0	31696	
4258	0	31678	
4259	0	31692	
4260	0	31636	
4261	0	31548	
4262	0	31556	
4263	0	31608	
4264	0	31644	
4265	0	31692	
4266	0	31736	
4267	0	31676	
4268	0	31676	
4269	0	31664	
4270	0	31608	
4271	0	31576	
4272	0	31472	
4273	0	31348	
4274	0	31312	
4275	0	31304	
4276	0	31376	
4277	0	31380	
4278	0	31432	
4279	0	31552	
4280	0	31620	
4281	0	31712	
4282	0	31732	
4283	0	31720	
4284	0	31712	
4285	0	31708	
4286	0	31778	
4287	0	31860	
4288	0	32024	
4289	0	32164	
4290	0	32216	
4291	0	32244	
4292	0	32328	
4293	0	32464	
4294	0	32640	
4295	0	32720	
4296	0	32804	
4297	0	32916	
4298	0	33000	
4299	0	33048	
4300	0	33112	
4301	0	33112	
4302	0	33166	
4303	0	33268	
4304	0	33296	
4305	0	33376	
4306	0	33448	
4307	0	33608	
4308	0	33696	
4309	0	33688	
4310	0	33668	
4311	0	33582	
4312	0	33592	
4313	0	33736	
4314	0	33836	
4315	0	33960	
4316	0	34180	
4317	0	34400	
4318	0	34572	
4319	0	34700	
4320	0	34776	
4321	0	34864	
4322	0	34864	
4323	0	34856	
4324	0	34836	
4325	0	34812	
4326	0	34812	
4327	0	34790	
4328	0	34796	
4329	0	34884	
4330	0	34896	
4331	0	34792	
4332	0	34656	
4333	0	34464	
4334	0	34296	
4335	0	34248	
4336	0	34208	
4337	0	34080	
4338	0	33824	
4339	0	33568	
4340	0	33384	
4341	0	33260	
4342	0	33204	
4343	0	33136	
4344	0	33096	
4345	0	33032	
4346	0	32946	
4347	0	32884	
4348	0	32976	
4349	0	33096	
4350	0	33184	
4351	0	33116	
4352	0	32936	
4353	0	32832	
4354	0	32626	
4355	0	32504	
4356	0	32380	
4357	0	32272	
4358	0	32156	
4359	0	32160	
4360	0	32208	
4361	0	32308	
4362	0	32312	
4363	0	32196	
4364	0	31970	
4365	0	31760	
4366	0	31572	
4367	0	31436	
4368	0	31322	
4369	0	31220	
4370	0	31104	
4371	0	31008	
4372	0	30952	
4373	0	30964	
4374	0	31044	
4375	0	31008	
4376	0	30996	
4377	0	30888	
4378	0	30928	
4379	0	31014	
4380	0	31052	
4381	0	31012	
4382	0	30920	
4383	0	30868	
4384	0	30888	
4385	0	30992	
4386	0	31036	
4387	0	31006	
4388	0	31040	
4389	0	31096	
4390	0	31088	
4391	0	31104	
4392	0	31136	
4393	0	31136	
4394	0	31124	
4395	0	31172	
4396	0	31260	
4397	0	31282	
4398	0	31308	
4399	0	31280	
4400	0	31296	
4401	0	31264	
4402	0	31240	
4403	0	31224	
4404	0	31204	
4405	0	31096	
4406	0	31108	
4407	0	31232	
4408	0	31344	
4409	0	31412	
4410	0	31460	
4411	0	31468	
4412	0	31424	
4413	0	31376	
4414	0	31348	
4415	0	31376	
4416	0	31400	
4417	0	31488	
4418	0	31586	
4419	0	31520	
4420	0	31456	
4421	0	31372	
4422	0	31336	
4423	0	31348	
4424	0	31276	
4425	0	31116	
4426	0	30828	
4427	0	30608	
4428	0	30516	
4429	0	30516	
4430	0	30540	
4431	0	30612	
4432	0	30792	
4433	0	31061	
4434	0	31472	
4435	0	32120	
4436	0	32884	
4437	0	33688	
4438	0	34776	
4439	0	36052	
4440	0	37488	
4441	0	39176	
4442	0	40992	
4443	0	42756	
4444	0	44528	
4445	0	46360	
4446	0	48192	
4447	0	50040	
4448	0	51868	
4449	0	53484	
4450	0	54920	
4451	0	56352	
4452	0	57696	
4453	0	59080	
4454	0	60356	
4455	0	61520	
4456	0	62560	
4457	0	63340	
4458	0	63664	
4459	0	63224	
4460	0	61776	
4461	0	59388	
4462	0	56152	
4463	0	52460	
4464	0	48772	
4465	0	44808	
4466	0	40296	
4467	0	35412	
4468	0	31196	
4469	0	27930	
4470	0	25816	
4471	0	24678	
4472	0	24228	
4473	0	24170	
4474	0	24448	
4475	0	24756	
4476	0	24968	
4477	0	25088	
4478	0	25230	
4479	0	25570	
4480	0	25972	
4481	0	26240	
4482	0	26478	
4483	0	26812	
4484	0	27248	
4485	0	27748	
4486	0	28192	
4487	0	28584	
4488	0	28940	
4489	0	29256	
4490	0	29504	
4491	0	29736	
4492	0	29854	
4493	0	29916	
4494	0	29976	
4495	0	29952	
4496	0	29804	
4497	0	29722	
4498	0	29608	
4499	0	29528	
4500	0	29456	
4501	0	29410	
4502	0	29512	
4503	0	29540	
4504	0	29520	
4505	0	29568	
4506	0	29596	
4507	0	29562	
4508	0	29596	
4509	0	29642	
4510	0	29668	
4511	0	29728	
4512	0	29734	
4513	0	29688	
4514	0	29672	
4515	0	29700	
4516	0	29740	
4517	0	29788	
4518	0	29808	
4519	0	29868	
4520	0	29900	
4521	0	29896	
4522	0	29956	
4523	0	29980	
4524	0	29920	
4525	0	29856	
4526	0	29864	
4527	0	29948	
4528	0	30084	
4529	0	30104	
4530	0	30032	
4531	0	30008	
4532	0	30016	
4533	0	30008	
4534	0	30122	
4535	0	30280	
4536	0	30360	
4537	0	30400	
4538	0	30496	
4539	0	30542	
4540	0	30520	
4541	0	30624	
4542	0	30588	
4543	0	30528	
4544	0	30608	
4545	0	30708	
4546	0	30760	
4547	0	30748	
4548	0	30868	
4549	0	30936	
4550	0	30888	
4551	0	30880	
4552	0	30908	
4553	0	30894	
4554	0	30964	
4555	0	31032	
4556	0	31064	
4557	0	31040	
4558	0	31104	
4559	0	31220	
4560	0	31296	
4561	0	31344	
4562	0	31404	
4563	0	31388	
4564	0	31340	
4565	0	31344	
4566	0	31272	
4567	0	31288	
4568	0	31364	
4569	0	31448	
4570	0	31468	
4571	0	31464	
4572	0	31524	
4573	0	31576	
4574	0	31692	
4575	0	31740	
4576	0	31808	
4577	0	31968	
4578	0	32028	
4579	0	31980	
4580	0	32004	
4581	0	32068	
4582	0	32160	
4583	0	32204	
4584	0	32200	
4585	0	32160	
4586	0	32180	
4587	0	32284	
4588	0	32348	
4589	0	32320	
4590	0	32256	
4591	0	32132	
4592	0	32200	
4593	0	32280	
4594	0	32296	
4595	0	32324	
4596	0	32352	
4597	0	32380	
4598	0	32500	
4599	0	32676	
4600	0	32760	
4601	0	32768	
4602	0	32792	
4603	0	32816	
4604	0	32792	
4605	0	32832	
4606	0	32912	
4607	0	32968	
4608	0	33044	
4609	0	33148	
4610	0	33252	
4611	0	33408	
4612	0	33504	
4613	0	33492	
4614	0	33440	
4615	0	33480	
4616	0	33536	
4617	0	33600	
4618	0	33580	
4619	0	33588	
4620	0	33616	
4621	0	33632	
4622	0	33648	
4623	0	33774	
4624	0	33856	
4625	0	33892	
4626	0	33848	
4627	0	33832	
4628	0	33904	
4629	0	34044	
4630	0	34160	
4631	0	34272	
4632	0	34272	
4633	0	34272	
4634	0	34336	
4635	0	34376	
4636	0	34360	
4637	0	34380	
4638	0	34544	
4639	0	34680	
4640	0	34700	
4641	0	34784	
4642	0	34872	
4643	0	34960	
4644	0	34920	
4645	0	34900	
4646	0	34980	
4647	0	35040	
4648	0	35008	
4649	0	34936	
4650	0	34992	
4651	0	35060	
4652	0	35120	
4653	0	35160	
4654	0	35216	
4655	0	35328	
4656	0	35484	
4657	0	35580	
4658	0	35628	
4659	0	35696	
4660	0	35748	
4661	0	35760	
4662	0	35754	
4663	0	35784	
4664	0	35828	
4665	0	35920	
4666	0	35976	
4667	0	36020	
4668	0	36000	
4669	0	36036	
4670	0	36072	
4671	0	36180	
4672	0	36184	
4673	0	36120	
4674	0	36148	
4675	0	36236	
4676	0	36266	
4677	0	36312	
4678	0	36288	
4679	0	36240	
4680	0	36292	
4681	0	36412	
4682	0	36556	
4683	0	36664	
4684	0	36672	
4685	0	36728	
4686	0	36748	
4687	0	36640	
4688	0	36492	
4689	0	36416	
4690	0	36448	
4691	0	36396	
4692	0	36376	
4693	0	36328	
4694	0	36216	
4695	0	36096	
4696	0	36024	
4697	0	35920	
4698	0	35812	
4699	0	35684	
4700	0	35584	
4701	0	35544	
4702	0	35516	
4703	0	35400	
4704	0	35280	
4705	0	35089	
4706	0	34940	
4707	0	34866	
4708	0	34776	
4709	0	34624	
4710	0	34444	
4711	0	34374	
4712	0	34228	
4713	0	34076	
4714	0	33892	
4715	0	33740	
4716	0	33584	
4717	0	33440	
4718	0	33306	
4719	0	33180	
4720	0	33104	
4721	0	32980	
4722	0	32794	
4723	0	32624	
4724	0	32496	
4725	0	32368	
4726	0	32172	
4727	0	31994	
4728	0	31852	
4729	0	31784	
4730	0	31688	
4731	0	31576	
4732	0	31476	
4733	0	31312	
4734	0	31236	
4735	0	31116	
4736	0	31036	
4737	0	31008	
4738	0	30936	
4739	0	30832	
4740	0	30728	
4741	0	30644	
4742	0	30568	
4743	0	30488	
4744	0	30432	
4745	0	30428	
4746	0	30344	
4747	0	30280	
4748	0	30188	
4749	0	30172	
4750	0	30240	
4751	0	30306	
4752	0	30352	
4753	0	30424	
4754	0	30388	
4755	0	30340	
4756	0	30344	
4757	0	30336	
4758	0	30232	
4759	0	30188	
4760	0	30116	
4761	0	30052	
4762	0	30048	
4763	0	30100	
4764	0	30176	
4765	0	30192	
4766	0	30136	
4767	0	30100	
4768	0	30184	
4769	0	30168	
4770	0	30068	
4771	0	30060	
4772	0	30080	
4773	0	30076	
4774	0	30152	
4775	0	30252	
4776	0	30280	
4777	0	30288	
4778	0	30286	
4779	0	30276	
4780	0	30304	
4781	0	30360	
4782	0	30416	
4783	0	30456	
4784	0	30440	
4785	0	30516	
4786	0	30578	
4787	0	30594	
4788	0	30544	
4789	0	30416	
4790	0	30460	
4791	0	30528	
4792	0	30594	
4793	0	30692	
4794	0	30760	
4795	0	30768	
4796	0	30768	
4797	0	30784	
4798	0	30848	
4799	0	30808	
4800	0	30752	
4801	0	30752	
4802	0	30706	
4803	0	30768	
4804	0	30876	
4805	0	30908	
4806	0	31004	
4807	0	31048	
4808	0	31040	
4809	0	31080	
4810	0	31104	
4811	0	31108	
4812	0	31108	
4813	0	31156	
4814	0	31294	
4815	0	31408	
4816	0	31420	
4817	0	31460	
4818	0	31532	
4819	0	31504	
4820	0	31528	
4821	0	31460	
4822	0	31252	
4823	0	31140	
4824	0	31084	
4825	0	31068	
4826	0	31136	
4827	0	31216	
4828	0	31176	
4829	0	31116	
4830	0	31170	
4831	0	31288	
4832	0	31428	
4833	0	31502	
4834	0	31512	
4835	0	31594	
4836	0	31704	
4837	0	31744	
4838	0	31744	
4839	0	31720	
4840	0	31668	
4841	0	31586	
4842	0	31552	
4843	0	31528	
4844	0	31616	
4845	0	31704	
4846	0	31784	
4847	0	31788	
4848	0	31712	
4849	0	31686	
4850	0	31652	
4851	0	31604	
4852	0	31560	
4853	0	31600	
4854	0	31712	
4855	0	31792	
4856	0	31884	
4857	0	31936	
4858	0	31844	
4859	0	31748	
4860	0	31672	
4861	0	31680	
4862	0	31660	
4863	0	31576	
4864	0	31552	
4865	0	31592	
4866	0	31697	
4867	0	31832	
4868	0	31852	
4869	0	31824	
4870	0	31792	
4871	0	31796	
4872	0	31808	
4873	0	31748	
4874	0	31712	
4875	0	31688	
4876	0	31704	
4877	0	31764	
4878	0	31796	
4879	0	31848	
4880	0	31892	
4881	0	31880	
4882	0	31860	
4883	0	31832	
4884	0	31880	
4885	0	31884	
4886	0	31948	
4887	0	31964	
4888	0	31884	
4889	0	31824	
4890	0	31840	
4891	0	31832	
4892	0	31834	
4893	0	31852	
4894	0	31872	
4895	0	31892	
4896	0	32032	
4897	0	32224	
4898	0	32308	
4899	0	32408	
4900	0	32580	
4901	0	32704	
4902	0	32842	
4903	0	32912	
4904	0	32964	
4905	0	33052	
4906	0	33210	
4907	0	33362	
4908	0	33496	
4909	0	33592	
4910	0	33620	
4911	0	33592	
4912	0	33604	
4913	0	33642	
4914	0	33616	
4915	0	33604	
4916	0	33668	
4917	0	33780	
4918	0	33856	
4919	0	33900	
4920	0	33928	
4921	0	33964	
4922	0	34060	
4923	0	34132	
4924	0	34284	
4925	0	34412	
4926	0	34480	
4927	0	34660	
4928	0	34800	
4929	0	34856	
4930	0	34824	
4931	0	34754	
4932	0	34804	
4933	0	34856	
4934	0	34912	
4935	0	34976	
4936	0	35080	
4937	0	35208	
4938	0	35240	
4939	0	35192	
4940	0	35116	
4941	0	34988	
4942	0	34860	
4943	0	34700	
4944	0	34576	
4945	0	34496	
4946	0	34412	
4947	0	34246	
4948	0	34124	
4949	0	34020	
4950	0	33980	
4951	0	33908	
4952	0	33768	
4953	0	33680	
4954	0	33664	
4955	0	33656	
4956	0	33584	
4957	0	33568	
4958	0	33488	
4959	0	33372	
4960	0	33236	
4961	0	33124	
4962	0	33040	
4963	0	32978	
4964	0	32928	
4965	0	32840	
4966	0	32636	
4967	0	32508	
4968	0	32432	
4969	0	32380	
4970	0	32332	
4971	0	32288	
4972	0	32212	
4973	0	32100	
4974	0	32032	
4975	0	31948	
4976	0	31856	
4977	0	31652	
4978	0	31572	
4979	0	31444	
4980	0	31244	
4981	0	31082	
4982	0	31018	
4983	0	31024	
4984	0	31044	
4985	0	31088	
4986	0	31108	
4987	0	31072	
4988	0	31044	
4989	0	31032	
4990	0	31132	
4991	0	31176	
4992	0	31120	
4993	0	31184	
4994	0	31244	
4995	0	31292	
4996	0	31324	
4997	0	31280	
4998	0	31236	
4999	0	31204	
5000	0	31148	
5001	0	31100	
5002	0	31036	
5003	0	31072	
5004	0	31176	
5005	0	31248	
5006	0	31220	
5007	0	31168	
5008	0	31148	
5009	0	31120	
5010	0	31194	
5011	0	31272	
5012	0	31244	
5013	0	31244	
5014	0	31248	
5015	0	31272	
5016	0	31272	
5017	0	31360	
5018	0	31464	
5019	0	31480	
5020	0	31504	
5021	0	31548	
5022	0	31584	
5023	0	31616	
5024	0	31608	
5025	0	31568	
5026	0	31536	
5027	0	31532	
5028	0	31580	
5029	0	31688	
5030	0	31760	
5031	0	31794	
5032	0	31788	
5033	0	31784	
5034	0	31608	
5035	0	31440	
5036	0	31220	
5037	0	30996	
5038	0	30800	
5039	0	30624	
5040	0	30580	
5041	0	30588	
5042	0	30688	
5043	0	30848	
5044	0	31040	
5045	0	31344	
5046	0	31900	
5047	0	32620	
5048	0	33500	
5049	0	34508	
5050	0	35712	
5051	0	37104	
5052	0	38696	
5053	0	40516	
5054	0	42376	
5055	0	44168	
5056	0	45896	
5057	0	47716	
5058	0	49584	
5059	0	51372	
5060	0	53100	
5061	0	54656	
5062	0	56112	
5063	0	57488	
5064	0	58724	
5065	0	59804	
5066	0	60928	
5067	0	61992	
5068	0	62944	
5069	0	63540	
5070	0	63636	
5071	0	62768	
5072	0	60992	
5073	0	58312	
5074	0	54820	
5075	0	51104	
5076	0	47296	
5077	0	43048	
5078	0	38268	
5079	0	33476	
5080	0	29570	
5081	0	26768	
5082	0	25133	
5083	0	24410	
5084	0	24244	
5085	0	24418	
5086	0	24700	
5087	0	24940	
5088	0	25140	
5089	0	25402	
5090	0	25740	
5091	0	26116	
5092	0	26510	
5093	0	26916	
5094	0	27212	
5095	0	27516	
5096	0	27904	
5097	0	28260	
5098	0	28584	
5099	0	28860	
5100	0	29128	
5101	0	29432	
5102	0	29652	
5103	0	29760	
5104	0	29780	
5105	0	29792	
5106	0	29680	
5107	0	29500	
5108	0	29380	
5109	0	29424	
5110	0	29492	
5111	0	29528	
5112	0	29524	
5113	0	29496	
5114	0	29426	
5115	0	29436	
5116	0	29548	
5117	0	29592	
5118	0	29560	
5119	0	29616	
5120	0	29658	
5121	0	29604	
5122	0	29604	
5123	0	29612	
5124	0	29632	
5125	0	29728	
5126	0	29800	
5127	0	29780	
5128	0	29768	
5129	0	29766	
5130	0	29854	
5131	0	29948	
5132	0	29976	
5133	0	30016	
5134	0	30068	
5135	0	30032	
5136	0	30020	
5137	0	30040	
5138	0	30064	
5139	0	30096	
5140	0	30168	
5141	0	30264	
5142	0	30320	
5143	0	30360	
5144	0	30376	
5145	0	30496	
5146	0	30536	
5147	0	30492	
5148	0	30456	
5149	0	30500	
5150	0	30558	
5151	0	30620	
5152	0	30664	
5153	0	30660	
5154	0	30624	
5155	0	30580	
5156	0	30696	
5157	0	30814	
5158	0	30872	
5159	0	30856	
5160	0	30832	
5161	0	30856	
5162	0	30908	
5163	0	31004	
5164	0	31080	
5165	0	31117	
5166	0	31144	
5167	0	31160	
5168	0	31184	
5169	0	31212	
5170	0	31248	
5171	0	31292	
5172	0	31324	
5173	0	31336	
5174	0	31336	
5175	0	31412	
5176	0	31528	
5177	0	31556	
5178	0	31548	
5179	0	31568	
5180	0	31600	
5181	0	31588	
5182	0	31656	
5183	0	31712	
5184	0	31754	
5185	0	31768	
5186	0	31812	
5187	0	31844	
5188	0	31840	
5189	0	31872	
5190	0	31892	
5191	0	31900	
5192	0	31976	
5193	0	32128	
5194	0	32208	
5195	0	32236	
5196	0	32312	
5197	0	32360	
5198	0	32328	
5199	0	32296	
5200	0	32332	
5201	0	32416	
5202	0	32496	
5203	0	32484	
5204	0	32516	
5205	0	32548	
5206	0	32636	
5207	0	32704	
5208	0	32748	
5209	0	32776	
5210	0	32792	
5211	0	32832	
5212	0	32848	
5213	0	32892	
5214	0	32940	
5215	0	33000	
5216	0	33028	
5217	0	33072	
5218	0	33132	
5219	0	33156	
5220	0	33184	
5221	0	33272	
5222	0	33364	
5223	0	33388	
5224	0	33344	
5225	0	33376	
5226	0	33474	
5227	0	33492	
5228	0	33468	
5229	0	33552	
5230	0	33676	
5231	0	33816	
5232	0	33912	
5233	0	33898	
5234	0	33948	
5235	0	33976	
5236	0	34028	
5237	0	34096	
5238	0	34148	
5239	0	34188	
5240	0	34188	
5241	0	34224	
5242	0	34226	
5243	0	34304	
5244	0	34408	
5245	0	34520	
5246	0	34612	
5247	0	34696	
5248	0	34764	
5249	0	34720	
5250	0	34756	
5251	0	34788	
5252	0	34788	
5253	0	34900	
5254	0	35040	
5255	0	35116	
5256	0	35160	
5257	0	35180	
5258	0	35232	
5259	0	35252	
5260	0	35248	
5261	0	35348	
5262	0	35416	
5263	0	35504	
5264	0	35620	
5265	0	35704	
5266	0	35744	
5267	0	35792	
5268	0	35840	
5269	0	35872	
5270	0	35920	
5271	0	36064	
5272	0	36112	
5273	0	36122	
5274	0	36160	
5275	0	36260	
5276	0	36258	
5277	0	36300	
5278	0	36296	
5279	0	36272	
5280	0	36320	
5281	0	36344	
5282	0	36396	
5283	0	36442	
5284	0	36376	
5285	0	36360	
5286	0	36432	
5287	0	36540	
5288	0	36608	
5289	0	36640	
5290	0	36668	
5291	0	36696	
5292	0	36676	
5293	0	36660	
5294	0	36656	
5295	0	36668	
5296	0	36676	
5297	0	36716	
5298	0	36760	
5299	0	36772	
5300	0	36768	
5301	0	36764	
5302	0	36728	
5303	0	36680	
5304	0	36612	
5305	0	36520	
5306	0	36440	
5307	0	36324	
5308	0	36184	
5309	0	36028	
5310	0	35900	
5311	0	35840	
5312	0	35790	
5313	0	35712	
5314	0	35604	
5315	0	35520	
5316	0	35424	
5317	0	35312	
5318	0	35200	
5319	0	34996	
5320	0	34744	
5321	0	34536	
5322	0	34364	
5323	0	34216	
5324	0	34112	
5325	0	34020	
5326	0	33880	
5327	0	33740	
5328	0	33514	
5329	0	33312	
5330	0	33112	
5331	0	32944	
5332	0	32812	
5333	0	32736	
5334	0	32656	
5335	0	32444	
5336	0	32268	
5337	0	32154	
5338	0	32068	
5339	0	32096	
5340	0	32036	
5341	0	31924	
5342	0	31778	
5343	0	31598	
5344	0	31452	
5345	0	31356	
5346	0	31222	
5347	0	31152	
5348	0	31116	
5349	0	31018	
5350	0	30928	
5351	0	30880	
5352	0	30848	
5353	0	30756	
5354	0	30706	
5355	0	30684	
5356	0	30644	
5357	0	30596	
5358	0	30512	
5359	0	30432	
5360	0	30432	
5361	0	30420	
5362	0	30368	
5363	0	30360	
5364	0	30388	
5365	0	30404	
5366	0	30380	
5367	0	30408	
5368	0	30440	
5369	0	30408	
5370	0	30392	
5371	0	30378	
5372	0	30360	
5373	0	30376	
5374	0	30316	
5375	0	30292	
5376	0	30300	
5377	0	30336	
5378	0	30396	
5379	0	30448	
5380	0	30504	
5381	0	30482	
5382	0	30452	
5383	0	30414	
5384	0	30436	
5385	0	30468	
5386	0	30548	
5387	0	30620	
5388	0	30588	
5389	0	30604	
5390	0	30652	
5391	0	30604	
5392	0	30564	
5393	0	30620	
5394	0	30688	
5395	0	30690	
5396	0	30704	
5397	0	30752	
5398	0	30760	
5399	0	30732	
5400	0	30752	
5401	0	30816	
5402	0	30884	
5403	0	30960	
5404	0	30992	
5405	0	31012	
5406	0	31064	
5407	0	31072	
5408	0	31096	
5409	0	31104	
5410	0	31120	
5411	0	31180	
5412	0	31234	
5413	0	31240	
5414	0	31224	
5415	0	31208	
5416	0	31172	
5417	0	31192	
5418	0	31208	
5419	0	31194	
5420	0	31200	
5421	0	31228	
5422	0	31224	
5423	0	31232	
5424	0	31266	
5425	0	31368	
5426	0	31450	
5427	0	31500	
5428	0	31552	
5429	0	31580	
5430	0	31536	
5431	0	31504	
5432	0	31524	
5433	0	31528	
5434	0	31524	
5435	0	31472	
5436	0	31428	
5437	0	31416	
5438	0	31460	
5439	0	31388	
5440	0	31352	
5441	0	31386	
5442	0	31528	
5443	0	31600	
5444	0	31636	
5445	0	31592	
5446	0	31592	
5447	0	31644	
5448	0	31692	
5449	0	31704	
5450	0	31712	
5451	0	31636	
5452	0	31620	
5453	0	31608	
5454	0	31608	
5455	0	31584	
5456	0	31646	
5457	0	31760	
5458	0	31872	
5459	0	31906	
5460	0	31932	
5461	0	32030	
5462	0	32064	
5463	0	32064	
5464	0	32032	
5465	0	32008	
5466	0	31960	
5467	0	31944	
5468	0	31960	
5469	0	31948	
5470	0	31890	
5471	0	31912	
5472	0	31928	
5473	0	31932	
5474	0	31972	
5475	0	31980	
5476	0	31932	
5477	0	31946	
5478	0	32008	
5479	0	32024	
5480	0	32000	
5481	0	31984	
5482	0	31980	
5483	0	31916	
5484	0	31856	
5485	0	31920	
5486	0	31932	
5487	0	31866	
5488	0	31868	
5489	0	31936	
5490	0	31992	
5491	0	31992	
5492	0	31984	
5493	0	32000	
5494	0	32016	
5495	0	31994	
5496	0	32024	
5497	0	32060	
5498	0	32036	
5499	0	32040	
5500	0	32100	
5501	0	32192	
5502	0	32284	
5503	0	32332	
5504	0	32368	
5505	0	32524	
5506	0	32772	
5507	0	32992	
5508	0	33176	
5509	0	33296	
5510	0	33376	
5511	0	33496	
5512	0	33562	
5513	0	33608	
5514	0	33676	
5515	0	33740	
5516	0	33848	
5517	0	33880	
5518	0	33824	
5519	0	33808	
5520	0	33856	
5521	0	33864	
5522	0	33868	
5523	0	34008	
5524	0	34064	
5525	0	34156	
5526	0	34212	
5527	0	34220	
5528	0	34200	
5529	0	34296	
5530	0	34452	
5531	0	34628	
5532	0	34696	
5533	0	34816	
5534	0	34824	
5535	0	34776	
5536	0	34804	
5537	0	34828	
5538	0	34864	
5539	0	34936	
5540	0	34948	
5541	0	34968	
5542	0	35060	
5543	0	35096	
5544	0	35088	
5545	0	35018	
5546	0	34862	
5547	0	34784	
5548	0	34780	
5549	0	34720	
5550	0	34516	
5551	0	34396	
5552	0	34290	
5553	0	34160	
5554	0	34000	
5555	0	33884	
5556	0	33712	
5557	0	33560	
5558	0	33452	
5559	0	33384	
5560	0	33324	
5561	0	33216	
5562	0	33152	
5563	0	33066	
5564	0	32988	
5565	0	32976	
5566	0	32992	
5567	0	32964	
5568	0	32900	
5569	0	32844	
5570	0	32772	
5571	0	32688	
5572	0	32628	
5573	0	32584	
5574	0	32480	
5575	0	32352	
5576	0	32242	
5577	0	32112	
5578	0	32008	
5579	0	31920	
5580	0	31828	
5581	0	31854	
5582	0	31680	
5583	0	31500	
5584	0	31336	
5585	0	31160	
5586	0	31024	
5587	0	30944	
5588	0	30890	
5589	0	30832	
5590	0	30808	
5591	0	30796	
5592	0	30760	
5593	0	30728	
5594	0	30732	
5595	0	30776	
5596	0	30900	
5597	0	30976	
5598	0	30948	
5599	0	30896	
5600	0	30872	
5601	0	30876	
5602	0	30896	
5603	0	30936	
5604	0	30976	
5605	0	30952	
5606	0	30940	
5607	0	30940	
5608	0	30952	
5609	0	30944	
5610	0	30940	
5611	0	30984	
5612	0	31072	
5613	0	31108	
5614	0	31100	
5615	0	31064	
5616	0	31108	
5617	0	31144	
5618	0	31136	
5619	0	31100	
5620	0	31120	
5621	0	31172	
5622	0	31188	
5623	0	31168	
5624	0	31196	
5625	0	31204	
5626	0	31240	
5627	0	31272	
5628	0	31312	
5629	0	31360	
5630	0	31404	
5631	0	31404	
5632	0	31450	
5633	0	31540	
5634	0	31592	
5635	0	31604	
5636	0	31532	
5637	0	31428	
5638	0	31328	
5639	0	31296	
5640	0	31228	
5641	0	31048	
5642	0	30838	
5643	0	30632	
5644	0	30484	
5645	0	30400	
5646	0	30420	
5647	0	30520	
5648	0	30712	
5649	0	30984	
5650	0	31344	
5651	0	31968	
5652	0	32720	
5653	0	33544	
5654	0	34624	
5655	0	35802	
5656	0	37144	
5657	0	38688	
5658	0	40436	
5659	0	42208	
5660	0	44016	
5661	0	45796	
5662	0	47568	
5663	0	49380	
5664	0	51152	
5665	0	52884	
5666	0	54476	
5667	0	55944	
5668	0	57272	
5669	0	58476	
5670	0	59692	
5671	0	60896	
5672	0	61968	
5673	0	62768	
5674	0	63328	
5675	0	63440	
5676	0	62514	
5677	0	60580	
5678	0	57828	
5679	0	54272	
5680	0	50544	
5681	0	46680	
5682	0	42336	
5683	0	37472	
5684	0	32748	
5685	0	29056	
5686	0	26568	
5687	0	25180	
5688	0	24552	
5689	0	24384	
5690	0	24552	
5691	0	24788	
5692	0	24936	
5693	0	25122	
5694	0	25408	
5695	0	25780	
5696	0	26148	
5697	0	26580	
5698	0	27016	
5699	0	27424	
5700	0	27796	
5701	0	28200	
5702	0	28508	
5703	0	28828	
5704	0	29140	
5705	0	29388	
5706	0	29580	
5707	0	29672	
5708	0	29690	
5709	0	29628	
5710	0	29568	
5711	0	29496	
5712	0	29468	
5713	0	29472	
5714	0	29496	
5715	0	29480	
5716	0	29432	
5717	0	29328	
5718	0	29248	
5719	0	29224	
5720	0	29268	
5721	0	29256	
5722	0	29192	
5723	0	29152	
5724	0	29188	
5725	0	29248	
5726	0	29300	
5727	0	29404	
5728	0	29480	
5729	0	29500	
5730	0	29480	
5731	0	29488	
5732	0	29514	
5733	0	29580	
5734	0	29632	
5735	0	29668	
5736	0	29724	
5737	0	29732	
5738	0	29708	
5739	0	29732	
5740	0	29700	
5741	0	29728	
5742	0	29776	
5743	0	29844	
5744	0	29868	
5745	0	29904	
5746	0	29992	
5747	0	29988	
5748	0	29912	
5749	0	29856	
5750	0	29914	
5751	0	30096	
5752	0	30210	
5753	0	30292	
5754	0	30392	
5755	0	30444	
5756	0	30400	
5757	0	30392	
5758	0	30448	
5759	0	30564	
5760	0	30688	
5761	0	30756	
5762	0	30772	
5763	0	30752	
5764	0	30752	
5765	0	30752	
5766	0	30640	
5767	0	30604	
5768	0	30626	
5769	0	30608	
5770	0	30672	
5771	0	30740	
5772	0	30832	
5773	0	30940	
5774	0	31000	
5775	0	30976	
5776	0	31000	
5777	0	31076	
5778	0	31152	
5779	0	31120	
5780	0	31144	
5781	0	31212	
5782	0	31224	
5783	0	31268	
5784	0	31320	
5785	0	31280	
5786	0	31296	
5787	0	31424	
5788	0	31488	
5789	0	31500	
5790	0	31504	
5791	0	31504	
5792	0	31520	
5793	0	31556	
5794	0	31620	
5795	0	31692	
5796	0	31732	
5797	0	31752	
5798	0	31812	
5799	0	31856	
5800	0	31916	
5801	0	32004	
5802	0	32068	
5803	0	32080	
5804	0	32128	
5805	0	32194	
5806	0	32184	
5807	0	32218	
5808	0	32296	
5809	0	32344	
5810	0	32338	
5811	0	32352	
5812	0	32412	
5813	0	32514	
5814	0	32600	
5815	0	32688	
5816	0	32772	
5817	0	32800	
5818	0	32784	
5819	0	32768	
5820	0	32808	
5821	0	32904	
5822	0	33004	
5823	0	33052	
5824	0	33056	
5825	0	33128	
5826	0	33152	
5827	0	33228	
5828	0	33308	
5829	0	33380	
5830	0	33442	
5831	0	33484	
5832	0	33524	
5833	0	33600	
5834	0	33668	
5835	0	33610	
5836	0	33560	
5837	0	33584	
5838	0	33660	
5839	0	33764	
5840	0	33842	
5841	0	33916	
5842	0	33924	
5843	0	33920	
5844	0	33912	
5845	0	34012	
5846	0	34136	
5847	0	34228	
5848	0	34288	
5849	0	34348	
5850	0	34340	
5851	0	34380	
5852	0	34460	
5853	0	34540	
5854	0	34660	
5855	0	34732	
5856	0	34772	
5857	0	34840	
5858	0	34896	
5859	0	34968	
5860	0	35056	
5861	0	35104	
5862	0	35152	
5863	0	35236	
5864	0	35300	
5865	0	35372	
5866	0	35432	
5867	0	35464	
5868	0	35548	
5869	0	35592	
5870	0	35660	
5871	0	35752	
5872	0	35816	
5873	0	35872	
5874	0	35932	
5875	0	35912	
5876	0	35880	
5877	0	35904	
5878	0	35984	
5879	0	36032	
5880	0	36064	
5881	0	36128	
5882	0	36264	
5883	0	36316	
5884	0	36296	
5885	0	36272	
5886	0	36308	
5887	0	36384	
5888	0	36408	
5889	0	36372	
5890	0	36380	
5891	0	36424	
5892	0	36432	
5893	0	36464	
5894	0	36538	
5895	0	36604	
5896	0	36664	
5897	0	36692	
5898	0	36712	
5899	0	36760	
5900	0	36780	
5901	0	36752	
5902	0	36740	
5903	0	36716	
5904	0	36704	
5905	0	36692	
5906	0	36712	
5907	0	36708	
5908	0	36656	
5909	0	36576	
5910	0	36472	
5911	0	36380	
5912	0	36314	
5913	0	36208	
5914	0	36052	
5915	0	35904	
5916	0	35760	
5917	0	35640	
5918	0	35512	
5919	0	35360	
5920	0	35264	
5921	0	35132	
5922	0	34962	
5923	0	34800	
5924	0	34680	
5925	0	34568	
5926	0	34436	
5927	0	34298	
5928	0	34108	
5929	0	33872	
5930	0	33660	
5931	0	33448	
5932	0	33296	
5933	0	33252	
5934	0	33222	
5935	0	33144	
5936	0	33024	
5937	0	32896	
5938	0	32696	
5939	0	32528	
5940	0	32404	
5941	0	32308	
5942	0	32208	
5943	0	32088	
5944	0	32032	
5945	0	31940	
5946	0	31840	
5947	0	31784	
5948	0	31716	
5949	0	31560	
5950	0	31432	
5951	0	31352	
5952	0	31238	
5953	0	31096	
5954	0	31016	
5955	0	31000	
5956	0	30948	
5957	0	30844	
5958	0	30768	
5959	0	30748	
5960	0	30704	
5961	0	30692	
5962	0	30696	
5963	0	30672	
5964	0	30592	
5965	0	30538	
5966	0	30572	
5967	0	30580	
5968	0	30520	
5969	0	30480	
5970	0	30472	
5971	0	30436	
5972	0	30404	
5973	0	30440	
5974	0	30486	
5975	0	30452	
5976	0	30408	
5977	0	30364	
5978	0	30368	
5979	0	30432	
5980	0	30496	
5981	0	30532	
5982	0	30536	
5983	0	30452	
5984	0	30424	
5985	0	30460	
5986	0	30460	
5987	0	30456	
5988	0	30436	
5989	0	30420	
5990	0	30432	
5991	0	30440	
5992	0	30456	
5993	0	30524	
5994	0	30608	
5995	0	30656	
5996	0	30676	
5997	0	30652	
5998	0	30628	
5999	0	30616	
6000	0	30650	
6001	0	30688	
6002	0	30724	
6003	0	30698	
6004	0	30744	
6005	0	30872	
6006	0	30933	
6007	0	30948	
6008	0	31012	
6009	0	31060	
6010	0	31104	
6011	0	31128	
6012	0	31120	
6013	0	31100	
6014	0	31032	
6015	0	31012	
6016	0	31008	
6017	0	31024	
6018	0	31080	
6019	0	31094	
6020	0	31096	
6021	0	31093	
6022	0	31124	
6023	0	31136	
6024	0	31156	
6025	0	31168	
6026	0	31196	
6027	0	31184	
6028	0	31124	
6029	0	31128	
6030	0	31142	
6031	0	31136	
6032	0	31148	
6033	0	31148	
6034	0	31156	
6035	0	31200	
6036	0	31258	
6037	0	31364	
6038	0	31376	
6039	0	31380	
6040	0	31376	
6041	0	31352	
6042	0	31332	
6043	0	31424	
6044	0	31472	
6045	0	31472	
6046	0	31508	
6047	0	31544	
6048	0	31544	
6049	0	31560	
6050	0	31608	
6051	0	31656	
6052	0	31700	
6053	0	31712	
6054	0	31652	
6055	0	31588	
6056	0	31544	
6057	0	31552	
6058	0	31616	
6059	0	31680	
6060	0	31712	
6061	0	31714	
6062	0	31708	
6063	0	31714	
6064	0	31704	
6065	0	31644	
6066	0	31720	
6067	0	31826	
6068	0	31832	
6069	0	31756	
6070	0	31712	
6071	0	31692	
6072	0	31664	
6073	0	31646	
6074	0	31681	
6075	0	31768	
6076	0	31776	
6077	0	31752	
6078	0	31724	
6079	0	31744	
6080	0	31820	
6081	0	31848	
6082	0	31892	
6083	0	31872	
6084	0	31836	
6085	0	31794	
6086	0	31792	
6087	0	31788	
6088	0	31796	
6089	0	31808	
6090	0	31808	
6091	0	31828	
6092	0	31868	
6093	0	31876	
6094	0	31884	
6095	0	31880	
6096	0	31872	
6097	0	31856	
6098	0	31828	
6099	0	31864	
6100	0	31920	
6101	0	31882	
6102	0	31888	
6103	0	31884	
6104	0	31860	
6105	0	31880	
6106	0	31964	
6107	0	31972	
6108	0	31932	
6109	0	31904	
6110	0	31864	
6111	0	31856	
6112	0	31872	
6113	0	31872	
6114	0	31912	
6115	0	31936	
6116	0	31936	
6117	0	31980	
6118	0	32052	
6119	0	32092	
6120	0	32056	
6121	0	32012	
6122	0	32008	
6123	0	31984	
6124	0	31984	
6125	0	32036	
6126	0	32112	
6127	0	32192	
6128	0	32272	
6129	0	32336	
6130	0	32416	
6131	0	32532	
6132	0	32684	
6133	0	32800	
6134	0	32976	
6135	0	33156	
6136	0	33316	
6137	0	33424	
6138	0	33540	
6139	0	33660	
6140	0	33720	
6141	0	33744	
6142	0	33764	
6143	0	33798	
6144	0	33780	
6145	0	33786	
6146	0	33848	
6147	0	33888	
6148	0	33948	
6149	0	34016	
6150	0	34044	
6151	0	34100	
6152	0	34184	
6153	0	34252	
6154	0	34300	
6155	0	34384	
6156	0	34456	
6157	0	34540	
6158	0	34704	
6159	0	34796	
6160	0	34808	
6161	0	34840	
6162	0	34812	
6163	0	34810	
6164	0	34868	
6165	0	34968	
6166	0	35056	
6167	0	35048	
6168	0	35032	
6169	0	35060	
6170	0	35088	
6171	0	35028	
6172	0	34876	
6173	0	34728	
6174	0	34564	
6175	0	34420	
6176	0	34268	
6177	0	34094	
6178	0	33956	
6179	0	33818	
6180	0	33656	
6181	0	33488	
6182	0	33400	
6183	0	33338	
6184	0	33256	
6185	0	33166	
6186	0	33112	
6187	0	33028	
6188	0	32928	
6189	0	32824	
6190	0	32748	
6191	0	32720	
6192	0	32768	
6193	0	32760	
6194	0	32776	
6195	0	32754	
6196	0	32656	
6197	0	32468	
6198	0	32312	
6199	0	32290	
6200	0	32260	
6201	0	32208	
6202	0	32128	
6203	0	32024	
6204	0	31916	
6205	0	31800	
6206	0	31704	
6207	0	31644	
6208	0	31488	
6209	0	31288	
6210	0	31168	
6211	0	31120	
6212	0	31040	
6213	0	30992	
6214	0	31008	
6215	0	31020	
6216	0	31004	
6217	0	30976	
6218	0	30916	
6219	0	30860	
6220	0	30850	
6221	0	30880	
6222	0	30860	
6223	0	30816	
6224	0	30816	
6225	0	30876	
6226	0	30948	
6227	0	30988	
6228	0	30976	
6229	0	30924	
6230	0	30964	
6231	0	30976	
6232	0	30960	
6233	0	30976	
6234	0	30976	
6235	0	30936	
6236	0	30976	
6237	0	31028	
6238	0	31072	
6239	0	31096	
6240	0	31036	
6241	0	30928	
6242	0	30906	
6243	0	30960	
6244	0	30972	
6245	0	31020	
6246	0	31072	
6247	0	31096	
6248	0	31132	
6249	0	31164	
6250	0	31160	
6251	0	31170	
6252	0	31170	
6253	0	31188	
6254	0	31198	
6255	0	31196	
6256	0	31208	
6257	0	31168	
6258	0	31204	
6259	0	31290	
6260	0	31360	
6261	0	31392	
6262	0	31428	
6263	0	31396	
6264	0	31258	
6265	0	31104	
6266	0	30984	
6267	0	30876	
6268	0	30740	
6269	0	30580	
6270	0	30392	
6271	0	30272	
6272	0	30228	
6273	0	30292	
6274	0	30420	
6275	0	30672	
6276	0	31152	
6277	0	31860	
6278	0	32684	
6279	0	33592	
6280	0	34704	
6281	0	35958	
6282	0	37368	
6283	0	39016	
6284	0	40836	
6285	0	42696	
6286	0	44420	
6287	0	46140	
6288	0	47884	
6289	0	49720	
6290	0	51484	
6291	0	53208	
6292	0	54788	
6293	0	56208	
6294	0	57548	
6295	0	58888	
6296	0	60256	
6297	0	61504	
6298	0	62496	
6299	0	63148	
6300	0	63492	
6301	0	63632	
6302	0	62232	
6303	0	59864	
6304	0	56732	
6305	0	53144	
6306	0	49536	
6307	0	45524	
6308	0	40920	
6309	0	36004	
6310	0	31764	
6311	0	28700	
6312	0	26736	
6313	0	25628	
6314	0	24988	
6315	0	24820	
6316	0	24908	
6317	0	24968	
6318	0	25164	
6319	0	25502	
6320	0	25864	
6321	0	26260	
6322	0	26696	
6323	0	27172	
6324	0	27676	
6325	0	28140	
6326	0	28460	
6327	0	28752	
6328	0	29052	
6329	0	29360	
6330	0	29500	
6331	0	29552	
6332	0	29540	
6333	0	29460	
6334	0	29384	
6335	0	29376	
6336	0	29304	
6337	0	29276	
6338	0	29228	
6339	0	29168	
6340	0	29146	
6341	0	29120	
6342	0	29110	
6343	0	29152	
6344	0	29140	
6345	0	29084	
6346	0	29076	
6347	0	29116	
6348	0	29128	
6349	0	29116	
6350	0	29108	
6351	0	29116	
6352	0	29112	
6353	0	29140	
6354	0	29200	
6355	0	29320	
6356	0	29364	
6357	0	29352	
6358	0	29336	
6359	0	29300	
6360	0	29322	
6361	0	29364	
6362	0	29376	
6363	0	29388	
6364	0	29424	
6365	0	29460	
6366	0	29480	
6367	0	29482	
6368	0	29520	
6369	0	29628	
6370	0	29744	
6371	0	29780	
6372	0	29804	
6373	0	29800	
6374	0	29802	
6375	0	29832	
6376	0	29872	
6377	0	29904	
6378	0	29896	
6379	0	29952	
6380	0	30026	
6381	0	30060	
6382	0	30064	
6383	0	30068	
6384	0	30132	
6385	0	30220	
6386	0	30260	
6387	0	30296	
6388	0	30316	
6389	0	30312	
6390	0	30360	
6391	0	30408	
6392	0	30440	
6393	0	30480	
6394	0	30500	
6395	0	30512	
6396	0	30548	
6397	0	30632	
6398	0	30708	
6399	0	30756	
6400	0	30752	
6401	0	30736	
6402	0	30744	
6403	0	30784	
6404	0	30780	
6405	0	30840	
6406	0	30912	
6407	0	30936	
6408	0	30952	
6409	0	31016	
6410	0	31076	
6411	0	31092	
6412	0	31108	
6413	0	31148	
6414	0	31216	
6415	0	31296	
6416	0	31308	
6417	0	31312	
6418	0	31356	
6419	0	31384	
6420	0	31386	
6421	0	31424	
6422	0	31492	
6423	0	31564	
6424	0	31648	
6425	0	31732	
6426	0	31740	
6427	0	31768	
6428	0	31872	
6429	0	31884	
6430	0	31848	
6431	0	31832	
6432	0	31828	
6433	0	31860	
6434	0	31938	
6435	0	31976	
6436	0	32000	
6437	0	32076	
6438	0	32128	
6439	0	32152	
6440	0	32176	
6441	0	32216	
6442	0	32264	
6443	0	32312	
6444	0	32364	
6445	0	32392	
6446	0	32436	
6447	0	32498	
6448	0	32544	
6449	0	32572	
6450	0	32588	
6451	0	32596	
6452	0	32624	
6453	0	32728	
6454	0	32844	
6455	0	32896	
6456	0	32948	
6457	0	32996	
6458	0	33052	
6459	0	33112	
6460	0	33200	
6461	0	33248	
6462	0	33308	
6463	0	33352	
6464	0	33420	
6465	0	33472	
6466	0	33504	
6467	0	33536	
6468	0	33612	
6469	0	33688	
6470	0	33748	
6471	0	33768	
6472	0	33824	
6473	0	33872	
6474	0	33912	
6475	0	33976	
6476	0	34004	
6477	0	34012	
6478	0	33996	
6479	0	34076	
6480	0	34160	
6481	0	34248	
6482	0	34385	
6483	0	34488	
6484	0	34556	
6485	0	34560	
6486	0	34644	
6487	0	34756	
6488	0	34808	
6489	0	34858	
6490	0	34912	
6491	0	34974	
6492	0	34984	
6493	0	35048	
6494	0	35072	
6495	0	35100	
6496	0	35196	
6497	0	35280	
6498	0	35384	
6499	0	35432	
6500	0	35492	
6501	0	35540	
6502	0	35532	
6503	0	35536	
6504	0	35540	
6505	0	35588	
6506	0	35676	
6507	0	35772	
6508	0	35832	
6509	0	35884	
6510	0	35944	
6511	0	35956	
6512	0	36012	
6513	0	36048	
6514	0	36084	
6515	0	36104	
6516	0	36136	
6517	0	36180	
6518	0	36252	
6519	0	36268	
6520	0	36232	
6521	0	36250	
6522	0	36272	
6523	0	36280	
6524	0	36344	
6525	0	36352	
6526	0	36320	
6527	0	36368	
6528	0	36376	
6529	0	36344	
6530	0	36344	
6531	0	36348	
6532	0	36264	
6533	0	36208	
6534	0	36196	
6535	0	36200	
6536	0	36160	
6537	0	36052	
6538	0	35960	
6539	0	35848	
6540	0	35764	
6541	0	35660	
6542	0	35536	
6543	0	35424	
6544	0	35360	
6545	0	35260	
6546	0	35132	
6547	0	34952	
6548	0	34772	
6549	0	34612	
6550	0	34436	
6551	0	34268	
6552	0	34122	
6553	0	34012	
6554	0	33932	
6555	0	33792	
6556	0	33592	
6557	0	33424	
6558	0	33344	
6559	0	33230	
6560	0	33072	
6561	0	32928	
6562	0	32844	
6563	0	32696	
6564	0	32508	
6565	0	32320	
6566	0	32224	
6567	0	32132	
6568	0	32112	
6569	0	32048	
6570	0	31924	
6571	0	31768	
6572	0	31648	
6573	0	31572	
6574	0	31508	
6575	0	31408	
6576	0	31268	
6577	0	31136	
6578	0	31044	
6579	0	30988	
6580	0	31028	
6581	0	30992	
6582	0	30844	
6583	0	30728	
6584	0	30664	
6585	0	30720	
6586	0	30684	
6587	0	30560	
6588	0	30492	
6589	0	30452	
6590	0	30404	
6591	0	30334	
6592	0	30288	
6593	0	30272	
6594	0	30274	
6595	0	30260	
6596	0	30208	
6597	0	30176	
6598	0	30176	
6599	0	30208	
6600	0	30212	
6601	0	30204	
6602	0	30272	
6603	0	30256	
6604	0	30256	
6605	0	30236	
6606	0	30232	
6607	0	30300	
6608	0	30336	
6609	0	30344	
6610	0	30332	
6611	0	30336	
6612	0	30344	
6613	0	30328	
6614	0	30296	
6615	0	30260	
6616	0	30234	
6617	0	30276	
6618	0	30360	
6619	0	30444	
6620	0	30478	
6621	0	30444	
6622	0	30432	
6623	0	30412	
6624	0	30488	
6625	0	30504	
6626	0	30452	
6627	0	30466	
6628	0	30508	
6629	0	30516	
6630	0	30544	
6631	0	30616	
6632	0	30644	
6633	0	30640	
6634	0	30636	
6635	0	30660	
6636	0	30726	
6637	0	30736	
6638	0	30772	
6639	0	30808	
6640	0	30840	
6641	0	30840	
6642	0	30828	
6643	0	30832	
6644	0	30900	
6645	0	30916	
6646	0	30928	
6647	0	30916	
6648	0	30920	
6649	0	30940	
6650	0	30996	
6651	0	31032	
6652	0	31024	
6653	0	31010	
6654	0	31036	
6655	0	31056	
6656	0	31080	
6657	0	31116	
6658	0	31128	
6659	0	31130	
6660	0	31190	
6661	0	31228	
6662	0	31196	
6663	0	31184	
6664	0	31170	
6665	0	31192	
6666	0	31248	
6667	0	31260	
6668	0	31256	
6669	0	31324	
6670	0	31340	
6671	0	31288	
6672	0	31224	
6673	0	31232	
6674	0	31296	
6675	0	31300	
6676	0	31292	
6677	0	31290	
6678	0	31296	
6679	0	31340	
6680	0	31380	
6681	0	31424	
6682	0	31448	
6683	0	31420	
6684	0	31456	
6685	0	31512	
6686	0	31536	
6687	0	31544	
6688	0	31552	
6689	0	31536	
6690	0	31496	
6691	0	31468	
6692	0	31444	
6693	0	31408	
6694	0	31392	
6695	0	31376	
6696	0	31396	
6697	0	31478	
6698	0	31552	
6699	0	31572	
6700	0	31616	
6701	0	31620	
6702	0	31592	
6703	0	31568	
6704	0	31520	
6705	0	31548	
6706	0	31612	
6707	0	31628	
6708	0	31616	
6709	0	31610	
6710	0	31620	
6711	0	31600	
6712	0	31596	
6713	0	31646	
6714	0	31712	
6715	0	31732	
6716	0	31700	
6717	0	31712	
6718	0	31748	
6719	0	31800	
6720	0	31770	
6721	0	31724	
6722	0	31704	
6723	0	31712	
6724	0	31680	
6725	0	31688	
6726	0	31704	
6727	0	31692	
6728	0	31664	
6729	0	31658	
6730	0	31668	
6731	0	31728	
6732	0	31724	
6733	0	31680	
6734	0	31660	
6735	0	31636	
6736	0	31616	
6737	0	31648	
6738	0	31648	
6739	0	31696	
6740	0	31748	
6741	0	31770	
6742	0	31816	
6743	0	31832	
6744	0	31800	
6745	0	31816	
6746	0	31812	
6747	0	31840	
6748	0	31808	
6749	0	31776	
6750	0	31744	
6751	0	31722	
6752	0	31740	
6753	0	31776	
6754	0	31812	
6755	0	31840	
6756	0	31796	
6757	0	31788	
6758	0	31820	
6759	0	31836	
6760	0	31840	
6761	0	31856	
6762	0	31844	
6763	0	31808	
6764	0	31816	
6765	0	31824	
6766	0	31784	
6767	0	31788	
6768	0	31808	
6769	0	31760	
6770	0	31752	
6771	0	31768	
6772	0	31828	
6773	0	31900	
6774	0	31968	
6775	0	32020	
6776	0	32028	
6777	0	32056	
6778	0	32074	
6779	0	32068	
6780	0	32112	
6781	0	32184	
6782	0	32184	
6783	0	32168	
6784	0	32220	
6785	0	32290	
6786	0	32464	
6787	0	32728	
6788	0	32996	
6789	0	33200	
6790	0	33368	
6791	0	33512	
6792	0	33644	
6793	0	33768	
6794	0	33844	
6795	0	33840	
6796	0	33820	
6797	0	33872	
6798	0	33932	
6799	0	33984	
6800	0	34024	
6801	0	34104	
6802	0	34192	
6803	0	34272	
6804	0	34296	
6805	0	34344	
6806	0	34408	
6807	0	34468	
6808	0	34552	
6809	0	34584	
6810	0	34604	
6811	0	34650	
6812	0	34784	
6813	0	34900	
6814	0	34912	
6815	0	34888	
6816	0	34864	
6817	0	34836	
6818	0	34874	
6819	0	34944	
6820	0	35010	
6821	0	35064	
6822	0	35112	
6823	0	35160	
6824	0	35112	
6825	0	35024	
6826	0	34914	
6827	0	34812	
6828	0	34714	
6829	0	34602	
6830	0	34400	
6831	0	34188	
6832	0	34032	
6833	0	33844	
6834	0	33644	
6835	0	33508	
6836	0	33436	
6837	0	33344	
6838	0	33228	
6839	0	33140	
6840	0	33116	
6841	0	33048	
6842	0	32938	
6843	0	32848	
6844	0	32840	
6845	0	32834	
6846	0	32812	
6847	0	32788	
6848	0	32696	
6849	0	32542	
6850	0	32384	
6851	0	32300	
6852	0	32296	
6853	0	32304	
6854	0	32284	
6855	0	32240	
6856	0	32156	
6857	0	32004	
6858	0	31868	
6859	0	31784	
6860	0	31712	
6861	0	31604	
6862	0	31488	
6863	0	31376	
6864	0	31272	
6865	0	31230	
6866	0	31164	
6867	0	31036	
6868	0	30960	
6869	0	30940	
6870	0	30912	
6871	0	30856	
6872	0	30796	
6873	0	30804	
6874	0	30844	
6875	0	30872	
6876	0	30892	
6877	0	30944	
6878	0	30972	
6879	0	30982	
6880	0	30984	
6881	0	30956	
6882	0	30964	
6883	0	30960	
6884	0	30940	
6885	0	30956	
6886	0	30990	
6887	0	30972	
6888	0	30980	
6889	0	31032	
6890	0	31000	
6891	0	30984	
6892	0	31000	
6893	0	31012	
6894	0	31024	
6895	0	31032	
6896	0	31024	
6897	0	31012	
6898	0	31024	
6899	0	31096	
6900	0	31172	
6901	0	31220	
6902	0	31280	
6903	0	31328	
6904	0	31324	
6905	0	31246	
6906	0	31212	
6907	0	31228	
6908	0	31240	
6909	0	31274	
6910	0	31290	
6911	0	31324	
6912	0	31372	
6913	0	31384	
6914	0	31368	
6915	0	31380	
6916	0	31312	
6917	0	31224	
6918	0	31132	
6919	0	31040	
6920	0	30972	
6921	0	30786	
6922	0	30572	
6923	0	30404	
6924	0	30352	
6925	0	30444	
6926	0	30552	
6927	0	30752	
6928	0	31088	
6929	0	31656	
6930	0	32376	
6931	0	33194	
6932	0	34152	
6933	0	35308	
6934	0	36544	
6935	0	37938	
6936	0	39552	
6937	0	41328	
6938	0	43088	
6939	0	44730	
6940	0	46416	
6941	0	48120	
6942	0	49812	
6943	0	51560	
6944	0	53232	
6945	0	54768	
6946	0	56224	
6947	0	57716	
6948	0	59216	
6949	0	60548	
6950	0	61656	
6951	0	62588	
6952	0	63240	
6953	0	63604	
6954	0	63636	
6955	0	62120	
6956	0	59696	
6957	0	56560	
6958	0	52916	
6959	0	49256	
6960	0	45256	
6961	0	40608	
6962	0	35724	
6963	0	31690	
6964	0	28872	
6965	0	27032	
6966	0	25932	
6967	0	25320	
6968	0	25056	
6969	0	24992	
6970	0	25096	
6971	0	25376	
6972	0	25762	
6973	0	26304	
6974	0	26864	
6975	0	27344	
6976	0	27754	
6977	0	28144	
6978	0	28492	
6979	0	28848	
6980	0	29184	
6981	0	29452	
6982	0	29624	
6983	0	29728	
6984	0	29704	
6985	0	29620	
6986	0	29548	
6987	0	29536	
6988	0	29508	
6989	0	29452	
6990	0	29336	
6991	0	29248	
6992	0	29216	
6993	0	29208	
6994	0	29160	
6995	0	29080	
6996	0	28984	
6997	0	29024	
6998	0	29052	
6999	0	29112	
7000	0	29176	
7001	0	29200	
7002	0	29204	
7003	0	29168	
7004	0	29146	
7005	0	29158	
7006	0	29232	
7007	0	29232	
7008	0	29228	
7009	0	29236	
7010	0	29288	
7011	0	29332	
7012	0	29310	
7013	0	29392	
7014	0	29532	
7015	0	29580	
7016	0	29564	
7017	0	29572	
7018	0	29588	
7019	0	29600	
7020	0	29616	
7021	0	29584	
7022	0	29632	
7023	0	29688	
7024	0	29720	
7025	0	29708	
7026	0	29708	
7027	0	29740	
7028	0	29796	
7029	0	29912	
7030	0	30028	
7031	0	30106	
7032	0	30116	
7033	0	30084	
7034	0	30100	
7035	0	30140	
7036	0	30176	
7037	0	30202	
7038	0	30242	
7039	0	30252	
7040	0	30240	
7041	0	30288	
7042	0	30384	
7043	0	30432	
7044	0	30456	
7045	0	30424	
7046	0	30434	
7047	0	30456	
7048	0	30512	
7049	0	30620	
7050	0	30692	
7051	0	30640	
7052	0	30604	
7053	0	30624	
7054	0	30708	
7055	0	30784	
7056	0	30808	
7057	0	30812	
7058	0	30832	
7059	0	30892	
7060	0	30876	
7061	0	30896	
7062	0	30932	
7063	0	31024	
7064	0	31098	
7065	0	31128	
7066	0	31168	
7067	0	31184	
7068	0	31200	
7069	0	31224	
7070	0	31268	
7071	0	31258	
7072	0	31266	
7073	0	31244	
7074	0	31272	
7075	0	31372	
7076	0	31432	
7077	0	31456	
7078	0	31480	
7079	0	31512	
7080	0	31528	
7081	0	31512	
7082	0	31584	
7083	0	31688	
7084	0	31736	
7085	0	31780	
7086	0	31784	
7087	0	31816	
7088	0	31880	
7089	0	31916	
7090	0	31954	
7091	0	32012	
7092	0	32108	
7093	0	32176	
7094	0	32168	
7095	0	32176	
7096	0	32200	
7097	0	32204	
7098	0	32256	
7099	0	32388	
7100	0	32448	
7101	0	32496	
7102	0	32504	
7103	0	32576	
7104	0	32648	
7105	0	32672	
7106	0	32668	
7107	0	32636	
7108	0	32664	
7109	0	32716	
7110	0	32760	
7111	0	32798	
7112	0	32856	
7113	0	32912	
7114	0	32994	
7115	0	33120	
7116	0	33208	
7117	0	33240	
7118	0	33296	
7119	0	33348	
7120	0	33448	
7121	0	33552	
7122	0	33612	
7123	0	33624	
7124	0	33676	
7125	0	33728	
7126	0	33776	
7127	0	33784	
7128	0	33828	
7129	0	33924	
7130	0	34004	
7131	0	34042	
7132	0	34124	
7133	0	34220	
7134	0	34296	
7135	0	34392	
7136	0	34480	
7137	0	34500	
7138	0	34512	
7139	0	34580	
7140	0	34660	
7141	0	34704	
7142	0	34764	
7143	0	34832	
7144	0	34864	
7145	0	34848	
7146	0	34900	
7147	0	35040	
7148	0	35160	
7149	0	35236	
7150	0	35260	
7151	0	35236	
7152	0	35276	
7153	0	35384	
7154	0	35432	
7155	0	35468	
7156	0	35520	
7157	0	35608	
7158	0	35648	
7159	0	35720	
7160	0	35832	
7161	0	35904	
7162	0	35926	
7163	0	35932	
7164	0	35948	
7165	0	35936	
7166	0	35996	
7167	0	36088	
7168	0	36112	
7169	0	36080	
7170	0	36104	
7171	0	36120	
7172	0	36132	
7173	0	36160	
7174	0	36148	
7175	0	36148	
7176	0	36184	
7177	0	36236	
7178	0	36272	
7179	0	36312	
7180	0	36346	
7181	0	36344	
7182	0	36296	
7183	0	36288	
7184	0	36288	
7185	0	36292	
7186	0	36256	
7187	0	36224	
7188	0	36152	
7189	0	36104	
7190	0	36076	
7191	0	36044	
7192	0	35948	
7193	0	35864	
7194	0	35804	
7195	0	35776	
7196	0	35672	
7197	0	35504	
7198	0	35360	
7199	0	35204	
7200	0	35076	
7201	0	34954	
7202	0	34828	
7203	0	34708	
7204	0	34564	
7205	0	34416	
7206	0	34272	
7207	0	34092	
7208	0	33964	
7209	0	33876	
7210	0	33732	
7211	0	33552	
7212	0	33412	
7213	0	33280	
7214	0	33128	
7215	0	33000	
7216	0	32824	
7217	0	32692	
7218	0	32604	
7219	0	32490	
7220	0	32344	
7221	0	32152	
7222	0	32008	
7223	0	31920	
7224	0	31896	
7225	0	31784	
7226	0	31648	
7227	0	31564	
7228	0	31508	
7229	0	31376	
7230	0	31288	
7231	0	31232	
7232	0	31196	
7233	0	31124	
7234	0	31056	
7235	0	30960	
7236	0	30904	
7237	0	30796	
7238	0	30708	
7239	0	30716	
7240	0	30716	
7241	0	30676	
7242	0	30708	
7243	0	30666	
7244	0	30548	
7245	0	30488	
7246	0	30484	
7247	0	30512	
7248	0	30528	
7249	0	30496	
7250	0	30424	
7251	0	30424	
7252	0	30432	
7253	0	30460	
7254	0	30488	
7255	0	30480	
7256	0	30464	
7257	0	30460	
7258	0	30424	
7259	0	30360	
7260	0	30344	
7261	0	30348	
7262	0	30360	
7263	0	30368	
7264	0	30392	
7265	0	30480	
7266	0	30490	
7267	0	30476	
7268	0	30448	
7269	0	30460	
7270	0	30432	
7271	0	30408	
7272	0	30408	
7273	0	30412	
7274	0	30460	
7275	0	30500	
7276	0	30506	
7277	0	30520	
7278	0	30544	
7279	0	30544	
7280	0	30530	
7281	0	30536	
7282	0	30624	
7283	0	30736	
7284	0	30800	
7285	0	30796	
7286	0	30796	
7287	0	30836	
7288	0	30848	
7289	0	30800	
7290	0	30744	
7291	0	30744	
7292	0	30804	
7293	0	30852	
7294	0	30824	
7295	0	30832	
7296	0	30920	
7297	0	30984	
7298	0	31016	
7299	0	31034	
7300	0	31028	
7301	0	31016	
7302	0	31032	
7303	0	31080	
7304	0	31096	
7305	0	31094	
7306	0	31120	
7307	0	31148	
7308	0	31150	
7309	0	31136	
7310	0	31160	
7311	0	31152	
7312	0	31136	
7313	0	31212	
7314	0	31264	
7315	0	31264	
7316	0	31292	
7317	0	31332	
7318	0	31316	
7319	0	31336	
7320	0	31352	
7321	0	31360	
7322	0	31376	
7323	0	31412	
7324	0	31456	
7325	0	31466	
7326	0	31460	
7327	0	31442	
7328	0	31402	
7329	0	31422	
7330	0	31432	
7331	0	31432	
7332	0	31424	
7333	0	31438	
7334	0	31468	
7335	0	31508	
7336	0	31500	
7337	0	31508	
7338	0	31480	
7339	0	31464	
7340	0	31478	
7341	0	31432	
7342	0	31432	
7343	0	31460	
7344	0	31492	
7345	0	31504	
7346	0	31544	
7347	0	31576	
7348	0	31592	
7349	0	31544	
7350	0	31520	
7351	0	31514	
7352	0	31532	
7353	0	31588	
7354	0	31576	
7355	0	31556	
7356	0	31596	
7357	0	31600	
7358	0	31616	
7359	0	31624	
7360	0	31592	
7361	0	31576	
7362	0	31576	
7363	0	31576	
7364	0	31602	
7365	0	31592	
7366	0	31590	
7367	0	31520	
7368	0	31456	
7369	0	31520	
7370	0	31536	
7371	0	31520	
7372	0	31608	
7373	0	31680	
7374	0	31656	
7375	0	31576	
7376	0	31536	
7377	0	31522	
7378	0	31528	
7379	0	31580	
7380	0	31624	
7381	0	31652	
7382	0	31628	
7383	0	31616	
7384	0	31600	
7385	0	31648	
7386	0	31730	
7387	0	31748	
7388	0	31732	
7389	0	31684	
7390	0	31656	
7391	0	31662	
7392	0	31706	
7393	0	31712	
7394	0	31720	
7395	0	31754	
7396	0	31784	
7397	0	31796	
7398	0	31772	
7399	0	31712	
7400	0	31694	
7401	0	31672	
7402	0	31616	
7403	0	31612	
7404	0	31608	
7405	0	31556	
7406	0	31556	
7407	0	31656	
7408	0	31752	
7409	0	31816	
7410	0	31828	
7411	0	31792	
7412	0	31808	
7413	0	31792	
7414	0	31796	
7415	0	31744	
7416	0	31696	
7417	0	31770	
7418	0	31800	
7419	0	31848	
7420	0	31864	
7421	0	31850	
7422	0	31852	
7423	0	31812	
7424	0	31782	
7425	0	31768	
7426	0	31772	
7427	0	31820	
7428	0	31888	
7429	0	31908	
7430	0	31856	
7431	0	31840	
7432	0	31864	
7433	0	31900	
7434	0	31904	
7435	0	31872	
7436	0	31820	
7437	0	31816	
7438	0	31852	
7439	0	31848	
7440	0	31816	
7441	0	31824	
7442	0	31844	
7443	0	31848	
7444	0	31836	
7445	0	31822	
7446	0	31808	
7447	0	31832	
7448	0	31888	
7449	0	31906	
7450	0	31928	
7451	0	31962	
7452	0	31962	
7453	0	31936	
7454	0	31890	
7455	0	31896	
7456	0	31916	
7457	0	31922	
7458	0	31944	
7459	0	31972	
7460	0	31952	
7461	0	31884	
7462	0	31904	
7463	0	31892	
7464	0	31892	
7465	0	31904	
7466	0	31916	
7467	0	31976	
7468	0	32128	
7469	0	32260	
7470	0	32352	
7471	0	32448	
7472	0	32580	
7473	0	32792	
7474	0	33036	
7475	0	33176	
7476	0	33296	
7477	0	33428	
7478	0	33532	
7479	0	33632	
7480	0	33696	
7481	0	33698	
7482	0	33760	
7483	0	33804	
7484	0	33868	
7485	0	33924	
7486	0	33994	
7487	0	34060	
7488	0	34076	
7489	0	34112	
7490	0	34128	
7491	0	34092	
7492	0	34112	
7493	0	34192	
7494	0	34340	
7495	0	34526	
7496	0	34688	
7497	0	34840	
7498	0	34968	
7499	0	35024	
7500	0	35040	
7501	0	35060	
7502	0	35016	
7503	0	34920	
7504	0	34856	
7505	0	34868	
7506	0	34892	
7507	0	34906	
7508	0	34956	
7509	0	35068	
7510	0	35224	
7511	0	35252	
7512	0	35133	
7513	0	34952	
7514	0	34748	
7515	0	34628	
7516	0	34488	
7517	0	34360	
7518	0	34196	
7519	0	34004	
7520	0	33808	
7521	0	33624	
7522	0	33476	
7523	0	33380	
7524	0	33336	
7525	0	33232	
7526	0	33162	
7527	0	33088	
7528	0	33028	
7529	0	32986	
7530	0	32932	
7531	0	32840	
7532	0	32808	
7533	0	32800	
7534	0	32732	
7535	0	32666	
7536	0	32558	
7537	0	32472	
7538	0	32476	
7539	0	32524	
7540	0	32552	
7541	0	32504	
7542	0	32416	
7543	0	32270	
7544	0	32152	
7545	0	32048	
7546	0	31952	
7547	0	31848	
7548	0	31752	
7549	0	31648	
7550	0	31530	
7551	0	31408	
7552	0	31312	
7553	0	31208	
7554	0	31160	
7555	0	31120	
7556	0	31072	
7557	0	31048	
7558	0	31064	
7559	0	31108	
7560	0	31144	
7561	0	31176	
7562	0	31192	
7563	0	31212	
7564	0	31192	
7565	0	31180	
7566	0	31184	
7567	0	31224	
7568	0	31266	
7569	0	31292	
7570	0	31292	
7571	0	31288	
7572	0	31272	
7573	0	31292	
7574	0	31288	
7575	0	31264	
7576	0	31274	
7577	0	31276	
7578	0	31292	
7579	0	31272	
7580	0	31268	
7581	0	31256	
7582	0	31280	
7583	0	31316	
7584	0	31352	
7585	0	31372	
7586	0	31336	
7587	0	31364	
7588	0	31408	
7589	0	31416	
7590	0	31470	
7591	0	31512	
7592	0	31552	
7593	0	31552	
7594	0	31528	
7595	0	31544	
7596	0	31572	
7597	0	31580	
7598	0	31532	
7599	0	31498	
7600	0	31544	
7601	0	31604	
7602	0	31618	
7603	0	31552	
7604	0	31416	
7605	0	31238	
7606	0	31010	
7607	0	30784	
7608	0	30560	
7609	0	30492	
7610	0	30540	
7611	0	30648	
7612	0	30780	
7613	0	30932	
7614	0	31256	
7615	0	31704	
7616	0	32328	
7617	0	33106	
7618	0	34068	
7619	0	35208	
7620	0	36448	
7621	0	37832	
7622	0	39432	
7623	0	41240	
7624	0	43004	
7625	0	44672	
7626	0	46392	
7627	0	48076	
7628	0	49800	
7629	0	51568	
7630	0	53276	
7631	0	54832	
7632	0	56288	
7633	0	57736	
7634	0	59152	
7635	0	60512	
7636	0	61604	
7637	0	62496	
7638	0	63204	
7639	0	63624	
7640	0	63696	
7641	0	62240	
7642	0	59816	
7643	0	56596	
7644	0	52952	
7645	0	49308	
7646	0	45288	
7647	0	40658	
7648	0	35828	
7649	0	31896	
7650	0	29168	
7651	0	27340	
7652	0	26192	
7653	0	25628	
7654	0	25436	
7655	0	25444	
7656	0	25536	
7657	0	25768	
7658	0	26152	
7659	0	26648	
7660	0	27172	
7661	0	27594	
7662	0	28056	
7663	0	28544	
7664	0	28924	
7665	0	29260	
7666	0	29524	
7667	0	29744	
7668	0	29909	
7669	0	29948	
7670	0	29904	
7671	0	29848	
7672	0	29788	
7673	0	29716	
7674	0	29648	
7675	0	29580	
7676	0	29528	
7677	0	29500	
7678	0	29488	
7679	0	29468	
7680	0	29448	
7681	0	29364	
7682	0	29284	
7683	0	29280	
7684	0	29324	
7685	0	29376	
7686	0	29388	
7687	0	29412	
7688	0	29456	
7689	0	29488	
7690	0	29500	
7691	0	29476	
7692	0	29482	
7693	0	29512	
7694	0	29552	
7695	0	29580	
7696	0	29668	
7697	0	29672	
7698	0	29656	
7699	0	29640	
7700	0	29688	
7701	0	29728	
7702	0	29768	
7703	0	29792	
7704	0	29820	
7705	0	29848	
7706	0	29864	
7707	0	29908	
7708	0	29920	
7709	0	29976	
7710	0	29994	
7711	0	30048	
7712	0	30100	
7713	0	30120	
7714	0	30196	
7715	0	30274	
7716	0	30272	
7717	0	30224	
7718	0	30208	
7719	0	30204	
7720	0	30264	
7721	0	30336	
7722	0	30336	
7723	0	30384	
7724	0	30376	
7725	0	30394	
7726	0	30508	
7727	0	30632	
7728	0	30676	
7729	0	30666	
7730	0	30648	
7731	0	30608	
7732	0	30638	
7733	0	30708	
7734	0	30724	
7735	0	30784	
7736	0	30884	
7737	0	30944	
7738	0	30936	
7739	0	30892	
7740	0	30880	
7741	0	30924	
7742	0	30992	
7743	0	31016	
7744	0	31008	
7745	0	31040	
7746	0	31092	
7747	0	31144	
7748	0	31218	
7749	0	31280	
7750	0	31340	
7751	0	31392	
7752	0	31424	
7753	0	31424	
7754	0	31428	
7755	0	31442	
7756	0	31440	
7757	0	31444	
7758	0	31464	
7759	0	31492	
7760	0	31572	
7761	0	31644	
7762	0	31692	
7763	0	31748	
7764	0	31784	
7765	0	31808	
7766	0	31820	
7767	0	31856	
7768	0	31970	
7769	0	32032	
7770	0	32036	
7771	0	32000	
7772	0	32016	
7773	0	32064	
7774	0	32120	
7775	0	32174	
7776	0	32192	
7777	0	32208	
7778	0	32240	
7779	0	32262	
7780	0	32320	
7781	0	32396	
7782	0	32444	
7783	0	32452	
7784	0	32504	
7785	0	32544	
7786	0	32572	
7787	0	32612	
7788	0	32620	
7789	0	32640	
7790	0	32712	
7791	0	32812	
7792	0	32884	
7793	0	32920	
7794	0	32960	
7795	0	32978	
7796	0	33020	
7797	0	33084	
7798	0	33128	
7799	0	33164	
7800	0	33188	
7801	0	33292	
7802	0	33408	
7803	0	33480	
7804	0	33560	
7805	0	33612	
7806	0	33632	
7807	0	33664	
7808	0	33680	
7809	0	33704	
7810	0	33732	
7811	0	33812	
7812	0	33876	
7813	0	33936	
7814	0	34004	
7815	0	34052	
7816	0	34096	
7817	0	34148	
7818	0	34184	
7819	0	34220	
7820	0	34276	
7821	0	34404	
7822	0	34504	
7823	0	34584	
7824	0	34656	
7825	0	34692	
7826	0	34716	
7827	0	34768	
7828	0	34816	
7829	0	34864	
7830	0	34892	
7831	0	34960	
7832	0	35056	
7833	0	35152	
7834	0	35192	
7835	0	35224	
7836	0	35272	
7837	0	35312	
7838	0	35372	
7839	0	35424	
7840	0	35460	
7841	0	35504	
7842	0	35552	
7843	0	35660	
7844	0	35784	
7845	0	35800	
7846	0	35792	
7847	0	35820	
7848	0	35848	
7849	0	35912	
7850	0	35956	
7851	0	35984	
7852	0	36004	
7853	0	36032	
7854	0	36064	
7855	0	36128	
7856	0	36160	
7857	0	36160	
7858	0	36204	
7859	0	36272	
7860	0	36292	
7861	0	36308	
7862	0	36360	
7863	0	36388	
7864	0	36420	
7865	0	36432	
7866	0	36424	
7867	0	36428	
7868	0	36432	
7869	0	36408	
7870	0	36416	
7871	0	36456	
7872	0	36468	
7873	0	36430	
7874	0	36376	
7875	0	36308	
7876	0	36248	
7877	0	36224	
7878	0	36168	
7879	0	36120	
7880	0	36052	
7881	0	35940	
7882	0	35808	
7883	0	35724	
7884	0	35612	
7885	0	35472	
7886	0	35324	
7887	0	35176	
7888	0	35040	
7889	0	34940	
7890	0	34800	
7891	0	34648	
7892	0	34508	
7893	0	34364	
7894	0	34236	
7895	0	34072	
7896	0	33912	
7897	0	33808	
7898	0	33762	
7899	0	33676	
7900	0	33484	
7901	0	33324	
7902	0	33160	
7903	0	33032	
7904	0	32924	
7905	0	32788	
7906	0	32648	
7907	0	32516	
7908	0	32372	
7909	0	32256	
7910	0	32120	
7911	0	31980	
7912	0	31832	
7913	0	31702	
7914	0	31584	
7915	0	31480	
7916	0	31424	
7917	0	31316	
7918	0	31268	
7919	0	31248	
7920	0	31216	
7921	0	31120	
7922	0	31020	
7923	0	30940	
7924	0	30908	
7925	0	30884	
7926	0	30868	
7927	0	30812	
7928	0	30716	
7929	0	30664	
7930	0	30604	
7931	0	30568	
7932	0	30556	
7933	0	30510	
7934	0	30440	
7935	0	30378	
7936	0	30348	
7937	0	30372	
7938	0	30368	
7939	0	30358	
7940	0	30336	
7941	0	30328	
7942	0	30326	
7943	0	30340	
7944	0	30356	
7945	0	30344	
7946	0	30368	
7947	0	30432	
7948	0	30440	
7949	0	30428	
7950	0	30420	
7951	0	30408	
7952	0	30396	
7953	0	30436	
7954	0	30408	
7955	0	30384	
7956	0	30424	
7957	0	30428	
7958	0	30416	
7959	0	30384	
7960	0	30368	
7961	0	30380	
7962	0	30428	
7963	0	30480	
7964	0	30516	
7965	0	30548	
7966	0	30568	
7967	0	30592	
7968	0	30608	
7969	0	30624	
7970	0	30660	
7971	0	30712	
7972	0	30716	
7973	0	30712	
7974	0	30712	
7975	0	30720	
7976	0	30730	
7977	0	30796	
7978	0	30848	
7979	0	30856	
7980	0	30848	
7981	0	30892	
7982	0	30944	
7983	0	31020	
7984	0	31028	
7985	0	30968	
7986	0	30986	
7987	0	30976	
7988	0	30992	
7989	0	31040	
7990	0	31092	
7991	0	31128	
7992	0	31108	
7993	0	31080	
7994	0	31088	
7995	0	31092	
7996	0	31100	
7997	0	31112	
7998	0	31144	
7999	0	31184	
8000	0	31192	
8001	0	31184	
8002	0	31172	
8003	0	31178	
8004	0	31168	
8005	0	31204	
8006	0	31232	
8007	0	31288	
8008	0	31328	
8009	0	31360	
8010	0	31350	
8011	0	31360	
8012	0	31352	
8013	0	31304	
8014	0	31292	
8015	0	31333	
8016	0	31372	
8017	0	31452	
8018	0	31512	
8019	0	31508	
8020	0	31530	
8021	0	31544	
8022	0	31512	
8023	0	31508	
8024	0	31522	
8025	0	31504	
8026	0	31456	
8027	0	31444	
8028	0	31480	
8029	0	31528	
8030	0	31572	
8031	0	31572	
8032	0	31592	
8033	0	31606	
8034	0	31540	
8035	0	31508	
8036	0	31520	
8037	0	31568	
8038	0	31592	
8039	0	31600	
8040	0	31628	
8041	0	31632	
8042	0	31584	
8043	0	31520	
8044	0	31536	
8045	0	31570	
8046	0	31576	
8047	0	31580	
8048	0	31576	
8049	0	31608	
8050	0	31616	
8051	0	31628	
8052	0	31656	
8053	0	31618	
8054	0	31572	
8055	0	31532	
8056	0	31524	
8057	0	31564	
8058	0	31612	
8059	0	31628	
8060	0	31628	
8061	0	31648	
8062	0	31628	
8063	0	31692	
8064	0	31768	
8065	0	31700	
8066	0	31596	
8067	0	31616	
8068	0	31692	
8069	0	31728	
8070	0	31744	
8071	0	31714	
8072	0	31688	
8073	0	31656	
8074	0	31680	
8075	0	31732	
8076	0	31752	
8077	0	31752	
8078	0	31724	
8079	0	31744	
8080	0	31740	
8081	0	31708	
8082	0	31680	
8083	0	31736	
8084	0	31784	
8085	0	31834	
8086	0	31792	
8087	0	31724	
8088	0	31700	
8089	0	31648	
8090	0	31624	
8091	0	31640	
8092	0	31688	
8093	0	31740	
8094	0	31778	
8095	0	31788	
8096	0	31792	
8097	0	31784	
8098	0	31804	
8099	0	31876	
8100	0	31892	
8101	0	31886	
8102	0	31884	
8103	0	31860	
8104	0	31848	
8105	0	31828	
8106	0	31808	
8107	0	31840	
8108	0	31864	
8109	0	31864	
8110	0	31868	
8111	0	31880	
8112	0	31888	
8113	0	31880	
8114	0	31836	
8115	0	31832	
8116	0	31824	
8117	0	31848	
8118	0	31880	
8119	0	31904	
8120	0	31888	
8121	0	31920	
8122	0	31992	
8123	0	31988	
8124	0	31984	
8125	0	31992	
8126	0	31948	
8127	0	31936	
8128	0	31936	
8129	0	31912	
8130	0	31924	
8131	0	31896	
8132	0	31890	
8133	0	31868	
8134	0	31788	
8135	0	31764	
8136	0	31792	
8137	0	31828	
8138	0	31872	
8139	0	31864	
8140	0	31852	
8141	0	31864	
8142	0	31880	
8143	0	31924	
8144	0	31892	
8145	0	31836	
8146	0	31804	
8147	0	31822	
8148	0	31860	
8149	0	31872	
8150	0	31856	
8151	0	31880	
8152	0	31928	
8153	0	31960	
8154	0	31944	
8155	0	31904	
8156	0	31912	
8157	0	31984	
8158	0	32024	
8159	0	32012	
8160	0	32032	
8161	0	32008	
8162	0	32000	
8163	0	31944	
8164	0	31912	
8165	0	31958	
8166	0	31980	
8167	0	31956	
8168	0	31948	
8169	0	31980	
8170	0	32016	
8171	0	31994	
8172	0	32000	
8173	0	32040	
8174	0	32052	
8175	0	32064	
8176	0	32026	
8177	0	32012	
8178	0	32064	
8179	0	32176	
8180	0	32304	
8181	0	32388	
8182	0	32472	
8183	0	32600	
8184	0	32736	
8185	0	32856	
8186	0	33116	
8187	0	33340	
8188	0	33416	
8189	0	33532	
8190	0	33698	
8191	0	33800	
8192	0	33808	
8193	0	33844	
8194	0	33920	
8195	0	33956	
8196	0	33972	
8197	0	33980	
8198	0	34060	
8199	0	34108	
8200	0	34088	
8201	0	34108	
8202	0	34240	
8203	0	34288	
8204	0	34296	
8205	0	34356	
8206	0	34456	
8207	0	34586	
8208	0	34680	
8209	0	34786	
8210	0	34908	
8211	0	35000	
8212	0	35088	
8213	0	35160	
8214	0	35200	
8215	0	35168	
8216	0	35072	
8217	0	34936	
8218	0	34848	
8219	0	34836	
8220	0	34872	
8221	0	34932	
8222	0	35020	
8223	0	35140	
8224	0	35112	
8225	0	34964	
8226	0	34784	
8227	0	34694	
8228	0	34620	
8229	0	34512	
8230	0	34348	
8231	0	34132	
8232	0	33892	
8233	0	33704	
8234	0	33568	
8235	0	33496	
8236	0	33440	
8237	0	33356	
8238	0	33268	
8239	0	33176	
8240	0	33060	
8241	0	32980	
8242	0	32936	
8243	0	32972	
8244	0	32992	
8245	0	32968	
8246	0	32884	
8247	0	32864	
8248	0	32832	
8249	0	32760	
8250	0	32712	
8251	0	32664	
8252	0	32608	
8253	0	32564	
8254	0	32480	
8255	0	32364	
8256	0	32260	
8257	0	32148	
8258	0	32024	
8259	0	31900	
8260	0	31738	
8261	0	31616	
8262	0	31532	
8263	0	31456	
8264	0	31360	
8265	0	31264	
8266	0	31176	
8267	0	31132	
8268	0	31092	
8269	0	31060	
8270	0	31048	
8271	0	31052	
8272	0	31122	
8273	0	31188	
8274	0	31160	
8275	0	31130	
8276	0	31136	
8277	0	31196	
8278	0	31248	
8279	0	31236	
8280	0	31228	
8281	0	31256	
8282	0	31272	
8283	0	31272	
8284	0	31244	
8285	0	31220	
8286	0	31239	
8287	0	31288	
8288	0	31314	
8289	0	31260	
8290	0	31216	
8291	0	31238	
8292	0	31236	
8293	0	31244	
8294	0	31256	
8295	0	31244	
8296	0	31304	
8297	0	31352	
8298	0	31360	
8299	0	31380	
8300	0	31404	
8301	0	31424	
8302	0	31414	
8303	0	31436	
8304	0	31484	
8305	0	31540	
8306	0	31560	
8307	0	31608	
8308	0	31610	
8309	0	31608	
8310	0	31632	
8311	0	31628	
8312	0	31596	
8313	0	31564	
8314	0	31536	
8315	0	31468	
8316	0	31312	
8317	0	31104	
8318	0	30860	
8319	0	30620	
8320	0	30496	
8321	0	30458	
8322	0	30548	
8323	0	30684	
8324	0	30820	
8325	0	31100	
8326	0	31568	
8327	0	32196	
8328	0	32988	
8329	0	33984	
8330	0	35176	
8331	0	36384	
8332	0	37724	
8333	0	39256	
8334	0	41056	
8335	0	42816	
8336	0	44508	
8337	0	46232	
8338	0	47956	
8339	0	49720	
8340	0	51464	
8341	0	53120	
8342	0	54640	
8343	0	56080	
8344	0	57556	
8345	0	59128	
8346	0	60564	
8347	0	61716	
8348	0	62648	
8349	0	63324	
8350	0	63692	
8351	0	63808	
8352	0	62352	
8353	0	60040	
8354	0	56816	
8355	0	53144	
8356	0	49484	
8357	0	45480	
8358	0	40824	
8359	0	36022	
8360	0	32120	
8361	0	29382	
8362	0	27512	
8363	0	26396	
8364	0	25816	
8365	0	25648	
8366	0	25664	
8367	0	25704	
8368	0	25852	
8369	0	26188	
8370	0	26666	
8371	0	27201	
8372	0	27744	
8373	0	28276	
8374	0	28752	
8375	0	29120	
8376	0	29404	
8377	0	29684	
8378	0	29864	
8379	0	29928	
8380	0	29976	
8381	0	29928	
8382	0	29844	
8383	0	29756	
8384	0	29676	
8385	0	29632	
8386	0	29596	
8387	0	29524	
8388	0	29456	
8389	0	29336	
8390	0	29320	
8391	0	29340	
8392	0	29312	
8393	0	29276	
8394	0	29280	
8395	0	29218	
8396	0	29188	
8397	0	29164	
8398	0	29128	
8399	0	29152	
8400	0	29232	
8401	0	29312	
8402	0	29360	
8403	0	29372	
8404	0	29356	
8405	0	29410	
8406	0	29440	
8407	0	29476	
8408	0	29528	
8409	0	29564	
8410	0	29570	
8411	0	29604	
8412	0	29634	
8413	0	29644	
8414	0	29634	
8415	0	29652	
8416	0	29706	
8417	0	29768	
8418	0	29824	
8419	0	29826	
8420	0	29868	
8421	0	29904	
8422	0	29928	
8423	0	29972	
8424	0	30012	
8425	0	30028	
8426	0	30058	
8427	0	30080	
8428	0	30084	
8429	0	30080	
8430	0	30124	
8431	0	30180	
8432	0	30192	
8433	0	30260	
8434	0	30292	
8435	0	30304	
8436	0	30376	
8437	0	30440	
8438	0	30468	
8439	0	30520	
8440	0	30560	
8441	0	30564	
8442	0	30596	
8443	0	30580	
8444	0	30572	
8445	0	30632	
8446	0	30708	
8447	0	30737	
8448	0	30740	
8449	0	30782	
8450	0	30766	
8451	0	30744	
8452	0	30836	
8453	0	30976	
8454	0	31028	
8455	0	31028	
8456	0	31040	
8457	0	31076	
8458	0	31096	
8459	0	31136	
8460	0	31218	
8461	0	31240	
8462	0	31228	
8463	0	31244	
8464	0	31264	
8465	0	31304	
8466	0	31376	
8467	0	31426	
8468	0	31436	
8469	0	31452	
8470	0	31464	
8471	0	31536	
8472	0	31608	
8473	0	31640	
8474	0	31682	
8475	0	31712	
8476	0	31720	
8477	0	31764	
8478	0	31756	
8479	0	31772	
8480	0	31836	
8481	0	31888	
8482	0	31856	
8483	0	31916	
8484	0	31940	
8485	0	32052	
8486	0	32126	
8487	0	32160	
8488	0	32180	
8489	0	32180	
8490	0	32154	
8491	0	32180	
8492	0	32244	
8493	0	32256	
8494	0	32288	
8495	0	32352	
8496	0	32424	
8497	0	32484	
8498	0	32504	
8499	0	32546	
8500	0	32616	
8501	0	32676	
8502	0	32728	
8503	0	32752	
8504	0	32836	
8505	0	32888	
8506	0	32928	
8507	0	32924	
8508	0	32940	
8509	0	32994	
8510	0	33016	
8511	0	33060	
8512	0	33102	
8513	0	33184	
8514	0	33240	
8515	0	33256	
8516	0	33324	
8517	0	33400	
8518	0	33470	
8519	0	33536	
8520	0	33572	
8521	0	33632	
8522	0	33688	
8523	0	33732	
8524	0	33788	
8525	0	33842	
8526	0	33924	
8527	0	34008	
8528	0	34048	
8529	0	34122	
8530	0	34200	
8531	0	34248	
8532	0	34292	
8533	0	34348	
8534	0	34384	
8535	0	34437	
8536	0	34464	
8537	0	34528	
8538	0	34596	
8539	0	34652	
8540	0	34721	
8541	0	34796	
8542	0	34872	
8543	0	34920	
8544	0	34932	
8545	0	34968	
8546	0	35048	
8547	0	35104	
8548	0	35152	
8549	0	35200	
8550	0	35252	
8551	0	35312	
8552	0	35376	
8553	0	35424	
8554	0	35488	
8555	0	35524	
8556	0	35568	
8557	0	35640	
8558	0	35660	
8559	0	35664	
8560	0	35708	
8561	0	35740	
8562	0	35804	
8563	0	35884	
8564	0	35952	
8565	0	35992	
8566	0	36016	
8567	0	35996	
8568	0	36008	
8569	0	36044	
8570	0	36072	
8571	0	36152	
8572	0	36196	
8573	0	36172	
8574	0	36196	
8575	0	36176	
8576	0	36200	
8577	0	36212	
8578	0	36168	
8579	0	36180	
8580	0	36244	
8581	0	36266	
8582	0	36256	
8583	0	36228	
8584	0	36192	
8585	0	36124	
8586	0	36064	
8587	0	36100	
8588	0	36080	
8589	0	35984	
8590	0	35934	
8591	0	35876	
8592	0	35828	
