# OpenSignals Text File Format. Version 1
# {"00:07:80:4B:15:F7": {"position": 0, "device": "biosignalsplux", "device name": "00:07:80:4B:15:F7", "device connection": "BTH00:07:80:4B:15:F7", "sampling rate": 1000, "resolution": [16], "firmware version": 775, "comments": "", "keywords": "", "mode": 0, "sync interval": 2, "date": "2023-4-12", "time": "14:37:38.813", "channels": [1], "sensor": ["ECG"], "label": ["CH1"], "column": ["nSeq", "DI", "CH1"], "special": [{"SpO2": [80, 40, 5, 4, 3, 3]}, {"SpO2": [80, 40, 5, 4, 3, 3]}, {"SpO2": [80, 40, 5, 4, 3, 3]}, {"SpO2": [80, 40, 5, 4, 3, 3]}, {"SpO2": [80, 40, 5, 4, 3, 3]}, {"SpO2": [80, 40, 5, 4, 3, 3]}, {"SpO2": [80, 40, 5, 4, 3, 3]}, {"SpO2": [80, 40, 5, 4, 3, 3]}], "digital IO": [0, 1], "sleeve color": ["green"], "convertedValues": 0}}
# EndOfHeader
0	0	29960	
1	0	29900	
2	0	29792	
3	0	29666	
4	0	29592	
5	0	29520	
6	0	29468	
7	0	29448	
8	0	29476	
9	0	29480	
10	0	29444	
11	0	29376	
12	0	29260	
13	0	29124	
14	0	29036	
15	0	28976	
16	0	28984	
17	0	28972	
18	0	28912	
19	0	28898	
20	0	28844	
21	0	28836	
22	0	28864	
23	0	28912	
24	0	28944	
25	0	28944	
26	0	28880	
27	0	28840	
28	0	28818	
29	0	28880	
30	0	29024	
31	0	29172	
32	0	29300	
33	0	29436	
34	0	29552	
35	0	29624	
36	0	29732	
37	0	29816	
38	0	29828	
39	0	29788	
40	0	29732	
41	0	29672	
42	0	29668	
43	0	29700	
44	0	29664	
45	0	29676	
46	0	29648	
47	0	29624	
48	0	29704	
49	0	29813	
50	0	29900	
51	0	29960	
52	0	29984	
53	0	29924	
54	0	29888	
55	0	29940	
56	0	30072	
57	0	30162	
58	0	30180	
59	0	30192	
60	0	30208	
61	0	30228	
62	0	30329	
63	0	30456	
64	0	30504	
65	0	30532	
66	0	30548	
67	0	30532	
68	0	30548	
69	0	30546	
70	0	30540	
71	0	30528	
72	0	30556	
73	0	30568	
74	0	30568	
75	0	30516	
76	0	30500	
77	0	30532	
78	0	30564	
79	0	30668	
80	0	30800	
81	0	30928	
82	0	31032	
83	0	30976	
84	0	30820	
85	0	30744	
86	0	30768	
87	0	30828	
88	0	30924	
89	0	30978	
90	0	31124	
91	0	31288	
92	0	31368	
93	0	31396	
94	0	31412	
95	0	31400	
96	0	31400	
97	0	31436	
98	0	31456	
99	0	31464	
100	0	31436	
101	0	31440	
102	0	31432	
103	0	31304	
104	0	31188	
105	0	31144	
106	0	31124	
107	0	31140	
108	0	31148	
109	0	31220	
110	0	31272	
111	0	31360	
112	0	31372	
113	0	31382	
114	0	31436	
115	0	31500	
116	0	31528	
117	0	31586	
118	0	31648	
119	0	31716	
120	0	31744	
121	0	31834	
122	0	31930	
123	0	31936	
124	0	31884	
125	0	31824	
126	0	31828	
127	0	31924	
128	0	31968	
129	0	31968	
130	0	31980	
131	0	31964	
132	0	32000	
133	0	32016	
134	0	32004	
135	0	31888	
136	0	31740	
137	0	31640	
138	0	31556	
139	0	31584	
140	0	31632	
141	0	31648	
142	0	31584	
143	0	31444	
144	0	31280	
145	0	31100	
146	0	30936	
147	0	30884	
148	0	31020	
149	0	31232	
150	0	31360	
151	0	31416	
152	0	31396	
153	0	31364	
154	0	31472	
155	0	31568	
156	0	31616	
157	0	31668	
158	0	31732	
159	0	31844	
160	0	31920	
161	0	31940	
162	0	32008	
163	0	32042	
164	0	31920	
165	0	31756	
166	0	31680	
167	0	31696	
168	0	31736	
169	0	31640	
170	0	31460	
171	0	31376	
172	0	31384	
173	0	31404	
174	0	31456	
175	0	31400	
176	0	31300	
177	0	31272	
178	0	31364	
179	0	31476	
180	0	31544	
181	0	31516	
182	0	31502	
183	0	31516	
184	0	31560	
185	0	31604	
186	0	31640	
187	0	31728	
188	0	31832	
189	0	31932	
190	0	32004	
191	0	32064	
192	0	32076	
193	0	32200	
194	0	32256	
195	0	32244	
196	0	32184	
197	0	32114	
198	0	32072	
199	0	32156	
200	0	32272	
201	0	32384	
202	0	32516	
203	0	32696	
204	0	32856	
205	0	32920	
206	0	32960	
207	0	32928	
208	0	32896	
209	0	32848	
210	0	32830	
211	0	32764	
212	0	32736	
213	0	32688	
214	0	32680	
215	0	32764	
216	0	32800	
217	0	32752	
218	0	32736	
219	0	32940	
220	0	33184	
221	0	33306	
222	0	33500	
223	0	33832	
224	0	34104	
225	0	34264	
226	0	34344	
227	0	34602	
228	0	34914	
229	0	35236	
230	0	35380	
231	0	35300	
232	0	35200	
233	0	35136	
234	0	35120	
235	0	35008	
236	0	34804	
237	0	34680	
238	0	34564	
239	0	34376	
240	0	34188	
241	0	34028	
242	0	33978	
243	0	33816	
244	0	33584	
245	0	33368	
246	0	33154	
247	0	32928	
248	0	32720	
249	0	32608	
250	0	32588	
251	0	32676	
252	0	32740	
253	0	32720	
254	0	32608	
255	0	32490	
256	0	32376	
257	0	32304	
258	0	32300	
259	0	32284	
260	0	32288	
261	0	32316	
262	0	32312	
263	0	32260	
264	0	32108	
265	0	31908	
266	0	31752	
267	0	31712	
268	0	31578	
269	0	31444	
270	0	31308	
271	0	31172	
272	0	31004	
273	0	30904	
274	0	30884	
275	0	30904	
276	0	30884	
277	0	30912	
278	0	30952	
279	0	30988	
280	0	30984	
281	0	30996	
282	0	31088	
283	0	31164	
284	0	31240	
285	0	31300	
286	0	31272	
287	0	31212	
288	0	31120	
289	0	31024	
290	0	31034	
291	0	31212	
292	0	31332	
293	0	31260	
294	0	31148	
295	0	31192	
296	0	31256	
297	0	31288	
298	0	31332	
299	0	31332	
300	0	31432	
301	0	31552	
302	0	31536	
303	0	31552	
304	0	31588	
305	0	31630	
306	0	31668	
307	0	31662	
308	0	31668	
309	0	31616	
310	0	31484	
311	0	31264	
312	0	31040	
313	0	30738	
314	0	30356	
315	0	29908	
316	0	29560	
317	0	29420	
318	0	29440	
319	0	29540	
320	0	29612	
321	0	29712	
322	0	30056	
323	0	30652	
324	0	31336	
325	0	32096	
326	0	33036	
327	0	34136	
328	0	35524	
329	0	37152	
330	0	39100	
331	0	41460	
332	0	44364	
333	0	47696	
334	0	51120	
335	0	54468	
336	0	57844	
337	0	60976	
338	0	63048	
339	0	64136	
340	0	64664	
341	0	64888	
342	0	64976	
343	0	64944	
344	0	64856	
345	0	64784	
346	0	60960	
347	0	55148	
348	0	49212	
349	0	43784	
350	0	39340	
351	0	35936	
352	0	33520	
353	0	31804	
354	0	30608	
355	0	29696	
356	0	28984	
357	0	28348	
358	0	27732	
359	0	27084	
360	0	26472	
361	0	25876	
362	0	25448	
363	0	25312	
364	0	25214	
365	0	25048	
366	0	24884	
367	0	24802	
368	0	24860	
369	0	25172	
370	0	25664	
371	0	26188	
372	0	26618	
373	0	27008	
374	0	27402	
375	0	27742	
376	0	28076	
377	0	28338	
378	0	28556	
379	0	28848	
380	0	29104	
381	0	29288	
382	0	29436	
383	0	29648	
384	0	29852	
385	0	30064	
386	0	30192	
387	0	30248	
388	0	30180	
389	0	30040	
390	0	29848	
391	0	29744	
392	0	29832	
393	0	30024	
394	0	30154	
395	0	30256	
396	0	30330	
397	0	30384	
398	0	30408	
399	0	30452	
400	0	30508	
401	0	30544	
402	0	30528	
403	0	30524	
404	0	30480	
405	0	30400	
406	0	30432	
407	0	30492	
408	0	30592	
409	0	30752	
410	0	30880	
411	0	30980	
412	0	31024	
413	0	31008	
414	0	30976	
415	0	30900	
416	0	30820	
417	0	30720	
418	0	30688	
419	0	30740	
420	0	30880	
421	0	30992	
422	0	31016	
423	0	31060	
424	0	31072	
425	0	31132	
426	0	31206	
427	0	31312	
428	0	31432	
429	0	31504	
430	0	31536	
431	0	31564	
432	0	31608	
433	0	31684	
434	0	31824	
435	0	31924	
436	0	31956	
437	0	31944	
438	0	31924	
439	0	31892	
440	0	31848	
441	0	31860	
442	0	31864	
443	0	31872	
444	0	31872	
445	0	31888	
446	0	31944	
447	0	32016	
448	0	32124	
449	0	32200	
450	0	32188	
451	0	32200	
452	0	32208	
453	0	32156	
454	0	32092	
455	0	32132	
456	0	32217	
457	0	32324	
458	0	32428	
459	0	32600	
460	0	32816	
461	0	32960	
462	0	33000	
463	0	33036	
464	0	33076	
465	0	33102	
466	0	33056	
467	0	33064	
468	0	33120	
469	0	33176	
470	0	33196	
471	0	33216	
472	0	33260	
473	0	33324	
474	0	33340	
475	0	33352	
476	0	33348	
477	0	33336	
478	0	33324	
479	0	33386	
480	0	33528	
481	0	33632	
482	0	33652	
483	0	33644	
484	0	33664	
485	0	33672	
486	0	33712	
487	0	33828	
488	0	34072	
489	0	34264	
490	0	34320	
491	0	34336	
492	0	34348	
493	0	34364	
494	0	34380	
495	0	34400	
496	0	34456	
497	0	34500	
498	0	34536	
499	0	34588	
500	0	34684	
501	0	34824	
502	0	34944	
503	0	35072	
504	0	35206	
505	0	35288	
506	0	35340	
507	0	35328	
508	0	35320	
509	0	35320	
510	0	35332	
511	0	35392	
512	0	35454	
513	0	35428	
514	0	35400	
515	0	35410	
516	0	35448	
517	0	35520	
518	0	35544	
519	0	35592	
520	0	35644	
521	0	35716	
522	0	35788	
523	0	35920	
524	0	36096	
525	0	36244	
526	0	36290	
527	0	36368	
528	0	36456	
529	0	36548	
530	0	36520	
531	0	36432	
532	0	36368	
533	0	36336	
534	0	36340	
535	0	36368	
536	0	36392	
537	0	36468	
538	0	36528	
539	0	36560	
540	0	36660	
541	0	36776	
542	0	36856	
543	0	36876	
544	0	36824	
545	0	36752	
546	0	36708	
547	0	36636	
548	0	36572	
549	0	36564	
550	0	36604	
551	0	36596	
552	0	36566	
553	0	36546	
554	0	36528	
555	0	36476	
556	0	36512	
557	0	36600	
558	0	36628	
559	0	36624	
560	0	36612	
561	0	36588	
562	0	36592	
563	0	36544	
564	0	36520	
565	0	36512	
566	0	36496	
567	0	36400	
568	0	36328	
569	0	36212	
570	0	36148	
571	0	36140	
572	0	36096	
573	0	35948	
574	0	35850	
575	0	35900	
576	0	35984	
577	0	36020	
578	0	35988	
579	0	35880	
580	0	35768	
581	0	35692	
582	0	35602	
583	0	35520	
584	0	35424	
585	0	35288	
586	0	35170	
587	0	35088	
588	0	35006	
589	0	34948	
590	0	34828	
591	0	34648	
592	0	34372	
593	0	34152	
594	0	34000	
595	0	33904	
596	0	33768	
597	0	33616	
598	0	33472	
599	0	33388	
600	0	33308	
601	0	33200	
602	0	33106	
603	0	32852	
604	0	32580	
605	0	32332	
606	0	32200	
607	0	32112	
608	0	31980	
609	0	31866	
610	0	31764	
611	0	31606	
612	0	31408	
613	0	31280	
614	0	31192	
615	0	31102	
616	0	31000	
617	0	30936	
618	0	30944	
619	0	30906	
620	0	30820	
621	0	30700	
622	0	30580	
623	0	30412	
624	0	30244	
625	0	30140	
626	0	30008	
627	0	29880	
628	0	29760	
629	0	29656	
630	0	29616	
631	0	29576	
632	0	29548	
633	0	29536	
634	0	29540	
635	0	29544	
636	0	29564	
637	0	29604	
638	0	29602	
639	0	29568	
640	0	29544	
641	0	29442	
642	0	29264	
643	0	29132	
644	0	29092	
645	0	29120	
646	0	29150	
647	0	29104	
648	0	29088	
649	0	29152	
650	0	29176	
651	0	29188	
652	0	29112	
653	0	29060	
654	0	29072	
655	0	29120	
656	0	29152	
657	0	29168	
658	0	29232	
659	0	29324	
660	0	29424	
661	0	29512	
662	0	29612	
663	0	29720	
664	0	29784	
665	0	29748	
666	0	29740	
667	0	29778	
668	0	29728	
669	0	29648	
670	0	29636	
671	0	29648	
672	0	29628	
673	0	29688	
674	0	29824	
675	0	29892	
676	0	29904	
677	0	29940	
678	0	29988	
679	0	30032	
680	0	30016	
681	0	29994	
682	0	30034	
683	0	30056	
684	0	30092	
685	0	30136	
686	0	30188	
687	0	30264	
688	0	30264	
689	0	30264	
690	0	30288	
691	0	30364	
692	0	30468	
693	0	30568	
694	0	30612	
695	0	30644	
696	0	30688	
697	0	30740	
698	0	30704	
699	0	30652	
700	0	30576	
701	0	30496	
702	0	30368	
703	0	30312	
704	0	30352	
705	0	30472	
706	0	30628	
707	0	30726	
708	0	30844	
709	0	30996	
710	0	31104	
711	0	31152	
712	0	31132	
713	0	31108	
714	0	31104	
715	0	31148	
716	0	31212	
717	0	31256	
718	0	31260	
719	0	31266	
720	0	31272	
721	0	31280	
722	0	31320	
723	0	31412	
724	0	31412	
725	0	31364	
726	0	31346	
727	0	31320	
728	0	31316	
729	0	31372	
730	0	31472	
731	0	31520	
732	0	31554	
733	0	31588	
734	0	31648	
735	0	31656	
736	0	31608	
737	0	31548	
738	0	31456	
739	0	31380	
740	0	31412	
741	0	31416	
742	0	31416	
743	0	31388	
744	0	31424	
745	0	31452	
746	0	31522	
747	0	31588	
748	0	31628	
749	0	31656	
750	0	31672	
751	0	31700	
752	0	31724	
753	0	31672	
754	0	31656	
755	0	31688	
756	0	31692	
757	0	31696	
758	0	31668	
759	0	31618	
760	0	31584	
761	0	31592	
762	0	31622	
763	0	31640	
764	0	31620	
765	0	31624	
766	0	31620	
767	0	31648	
768	0	31744	
769	0	31824	
770	0	31796	
771	0	31716	
772	0	31712	
773	0	31768	
774	0	31748	
775	0	31664	
776	0	31584	
777	0	31550	
778	0	31556	
779	0	31504	
780	0	31454	
781	0	31416	
782	0	31440	
783	0	31488	
784	0	31560	
785	0	31608	
786	0	31616	
787	0	31616	
788	0	31564	
789	0	31536	
790	0	31564	
791	0	31596	
792	0	31628	
793	0	31680	
794	0	31714	
795	0	31704	
796	0	31740	
797	0	31810	
798	0	31846	
799	0	31856	
800	0	31776	
801	0	31700	
802	0	31700	
803	0	31680	
804	0	31664	
805	0	31610	
806	0	31560	
807	0	31540	
808	0	31560	
809	0	31600	
810	0	31596	
811	0	31564	
812	0	31564	
813	0	31592	
814	0	31564	
815	0	31576	
816	0	31592	
817	0	31592	
818	0	31644	
819	0	31764	
820	0	31884	
821	0	31964	
822	0	32104	
823	0	32300	
824	0	32432	
825	0	32556	
826	0	32668	
827	0	32680	
828	0	32672	
829	0	32724	
830	0	32756	
831	0	32666	
832	0	32600	
833	0	32536	
834	0	32492	
835	0	32476	
836	0	32460	
837	0	32429	
838	0	32480	
839	0	32516	
840	0	32520	
841	0	32520	
842	0	32520	
843	0	32576	
844	0	32716	
845	0	32860	
846	0	33044	
847	0	33240	
848	0	33464	
849	0	33724	
850	0	33960	
851	0	34144	
852	0	34364	
853	0	34584	
854	0	34724	
855	0	34832	
856	0	34912	
857	0	35000	
858	0	35012	
859	0	34968	
860	0	34908	
861	0	34784	
862	0	34676	
863	0	34532	
864	0	34356	
865	0	34212	
866	0	34096	
867	0	33956	
868	0	33848	
869	0	33734	
870	0	33620	
871	0	33432	
872	0	33228	
873	0	33052	
874	0	32864	
875	0	32748	
876	0	32740	
877	0	32724	
878	0	32640	
879	0	32500	
880	0	32420	
881	0	32352	
882	0	32232	
883	0	32064	
884	0	31914	
885	0	31844	
886	0	31820	
887	0	31752	
888	0	31698	
889	0	31668	
890	0	31640	
891	0	31592	
892	0	31516	
893	0	31428	
894	0	31350	
895	0	31276	
896	0	31272	
897	0	31232	
898	0	31196	
899	0	31114	
900	0	31040	
901	0	30980	
902	0	30860	
903	0	30768	
904	0	30752	
905	0	30724	
906	0	30712	
907	0	30688	
908	0	30692	
909	0	30676	
910	0	30682	
911	0	30680	
912	0	30700	
913	0	30688	
914	0	30680	
915	0	30706	
916	0	30752	
917	0	30816	
918	0	30960	
919	0	31116	
920	0	31252	
921	0	31388	
922	0	31468	
923	0	31512	
924	0	31520	
925	0	31368	
926	0	31188	
927	0	31104	
928	0	31132	
929	0	31200	
930	0	31262	
931	0	31296	
932	0	31348	
933	0	31360	
934	0	31356	
935	0	31280	
936	0	31140	
937	0	30960	
938	0	30740	
939	0	30308	
940	0	29744	
941	0	29184	
942	0	28742	
943	0	28480	
944	0	28348	
945	0	28260	
946	0	28384	
947	0	28748	
948	0	29360	
949	0	30144	
950	0	31018	
951	0	31956	
952	0	33098	
953	0	34556	
954	0	36280	
955	0	38344	
956	0	40768	
957	0	43672	
958	0	47108	
959	0	50808	
960	0	54508	
961	0	58160	
962	0	61432	
963	0	63340	
964	0	64344	
965	0	64832	
966	0	65016	
967	0	65080	
968	0	65040	
969	0	64968	
970	0	64856	
971	0	64752	
972	0	61220	
973	0	54880	
974	0	48844	
975	0	43760	
976	0	39728	
977	0	36604	
978	0	34160	
979	0	32300	
980	0	30820	
981	0	29632	
982	0	28580	
983	0	27616	
984	0	26746	
985	0	26096	
986	0	25722	
987	0	25504	
988	0	25376	
989	0	25336	
990	0	25316	
991	0	25268	
992	0	25180	
993	0	25188	
994	0	25348	
995	0	25662	
996	0	26020	
997	0	26416	
998	0	26828	
999	0	27216	
1000	0	27580	
1001	0	27974	
1002	0	28308	
1003	0	28528	
1004	0	28706	
1005	0	28896	
1006	0	29088	
1007	0	29252	
1008	0	29392	
1009	0	29484	
1010	0	29504	
1011	0	29520	
1012	0	29497	
1013	0	29480	
1014	0	29506	
1015	0	29580	
1016	0	29598	
1017	0	29630	
1018	0	29616	
1019	0	29600	
1020	0	29620	
1021	0	29604	
1022	0	29608	
1023	0	29620	
1024	0	29600	
1025	0	29580	
1026	0	29568	
1027	0	29588	
1028	0	29648	
1029	0	29732	
1030	0	29780	
1031	0	29844	
1032	0	29908	
1033	0	29968	
1034	0	29988	
1035	0	30028	
1036	0	30128	
1037	0	30260	
1038	0	30320	
1039	0	30320	
1040	0	30362	
1041	0	30400	
1042	0	30468	
1043	0	30544	
1044	0	30592	
1045	0	30624	
1046	0	30608	
1047	0	30600	
1048	0	30576	
1049	0	30576	
1050	0	30592	
1051	0	30624	
1052	0	30684	
1053	0	30668	
1054	0	30652	
1055	0	30684	
1056	0	30736	
1057	0	30804	
1058	0	30884	
1059	0	30976	
1060	0	31036	
1061	0	31072	
1062	0	31156	
1063	0	31228	
1064	0	31274	
1065	0	31376	
1066	0	31440	
1067	0	31498	
1068	0	31532	
1069	0	31524	
1070	0	31540	
1071	0	31564	
1072	0	31616	
1073	0	31676	
1074	0	31708	
1075	0	31768	
1076	0	31816	
1077	0	31844	
1078	0	31920	
1079	0	31988	
1080	0	32080	
1081	0	32176	
1082	0	32276	
1083	0	32316	
1084	0	32352	
1085	0	32364	
1086	0	32372	
1087	0	32368	
1088	0	32340	
1089	0	32360	
1090	0	32452	
1091	0	32532	
1092	0	32620	
1093	0	32668	
1094	0	32700	
1095	0	32736	
1096	0	32736	
1097	0	32744	
1098	0	32744	
1099	0	32776	
1100	0	32832	
1101	0	32876	
1102	0	32896	
1103	0	32922	
1104	0	32980	
1105	0	33024	
1106	0	33116	
1107	0	33168	
1108	0	33236	
1109	0	33312	
1110	0	33400	
1111	0	33484	
1112	0	33536	
1113	0	33620	
1114	0	33680	
1115	0	33764	
1116	0	33826	
1117	0	33856	
1118	0	33844	
1119	0	33888	
1120	0	33944	
1121	0	34028	
1122	0	34072	
1123	0	34072	
1124	0	34068	
1125	0	34084	
1126	0	34164	
1127	0	34236	
1128	0	34324	
1129	0	34400	
1130	0	34512	
1131	0	34656	
1132	0	34730	
1133	0	34776	
1134	0	34824	
1135	0	34896	
1136	0	34948	
1137	0	34992	
1138	0	35024	
1139	0	35080	
1140	0	35176	
1141	0	35276	
1142	0	35348	
1143	0	35384	
1144	0	35432	
1145	0	35476	
1146	0	35540	
1147	0	35644	
1148	0	35724	
1149	0	35800	
1150	0	35816	
1151	0	35856	
1152	0	35880	
1153	0	35944	
1154	0	35956	
1155	0	35968	
1156	0	36012	
1157	0	36076	
1158	0	36124	
1159	0	36144	
1160	0	36128	
1161	0	36120	
1162	0	36128	
1163	0	36122	
1164	0	36144	
1165	0	36244	
1166	0	36324	
1167	0	36324	
1168	0	36344	
1169	0	36346	
1170	0	36268	
1171	0	36208	
1172	0	36176	
1173	0	36104	
1174	0	36036	
1175	0	36032	
1176	0	36032	
1177	0	36080	
1178	0	36152	
1179	0	36216	
1180	0	36277	
1181	0	36312	
1182	0	36308	
1183	0	36288	
1184	0	36236	
1185	0	36184	
1186	0	36118	
1187	0	36092	
1188	0	36080	
1189	0	36060	
1190	0	36012	
1191	0	36012	
1192	0	35968	
1193	0	35960	
1194	0	36012	
1195	0	36004	
1196	0	35984	
1197	0	35972	
1198	0	35944	
1199	0	35920	
1200	0	35892	
1201	0	35760	
1202	0	35632	
1203	0	35528	
1204	0	35458	
1205	0	35400	
1206	0	35298	
1207	0	35212	
1208	0	35152	
1209	0	35042	
1210	0	34908	
1211	0	34796	
1212	0	34680	
1213	0	34572	
1214	0	34468	
1215	0	34324	
1216	0	34192	
1217	0	34064	
1218	0	33920	
1219	0	33780	
1220	0	33674	
1221	0	33572	
1222	0	33472	
1223	0	33316	
1224	0	33160	
1225	0	33020	
1226	0	32876	
1227	0	32744	
1228	0	32594	
1229	0	32420	
1230	0	32264	
1231	0	32120	
1232	0	31942	
1233	0	31776	
1234	0	31648	
1235	0	31552	
1236	0	31496	
1237	0	31412	
1238	0	31272	
1239	0	31124	
1240	0	31012	
1241	0	30956	
1242	0	30848	
1243	0	30712	
1244	0	30608	
1245	0	30508	
1246	0	30432	
1247	0	30412	
1248	0	30380	
1249	0	30290	
1250	0	30232	
1251	0	30156	
1252	0	30104	
1253	0	30016	
1254	0	29916	
1255	0	29800	
1256	0	29706	
1257	0	29668	
1258	0	29656	
1259	0	29628	
1260	0	29634	
1261	0	29616	
1262	0	29588	
1263	0	29588	
1264	0	29592	
1265	0	29612	
1266	0	29568	
1267	0	29524	
1268	0	29508	
1269	0	29440	
1270	0	29392	
1271	0	29380	
1272	0	29416	
1273	0	29440	
1274	0	29456	
1275	0	29500	
1276	0	29516	
1277	0	29560	
1278	0	29602	
1279	0	29636	
1280	0	29692	
1281	0	29704	
1282	0	29712	
1283	0	29700	
1284	0	29716	
1285	0	29744	
1286	0	29768	
1287	0	29826	
1288	0	29848	
1289	0	29836	
1290	0	29832	
1291	0	29848	
1292	0	29880	
1293	0	29936	
1294	0	29996	
1295	0	30016	
1296	0	30064	
1297	0	30072	
1298	0	30060	
1299	0	30126	
1300	0	30184	
1301	0	30220	
1302	0	30240	
1303	0	30276	
1304	0	30288	
1305	0	30268	
1306	0	30276	
1307	0	30296	
1308	0	30360	
1309	0	30440	
1310	0	30476	
1311	0	30488	
1312	0	30552	
1313	0	30616	
1314	0	30660	
1315	0	30688	
1316	0	30736	
1317	0	30752	
1318	0	30768	
1319	0	30776	
1320	0	30772	
1321	0	30784	
1322	0	30768	
1323	0	30780	
1324	0	30828	
1325	0	30904	
1326	0	30972	
1327	0	31032	
1328	0	31108	
1329	0	31152	
1330	0	31200	
1331	0	31212	
1332	0	31224	
1333	0	31244	
1334	0	31248	
1335	0	31280	
1336	0	31342	
1337	0	31368	
1338	0	31368	
1339	0	31312	
1340	0	31296	
1341	0	31232	
1342	0	31164	
1343	0	31132	
1344	0	31200	
1345	0	31304	
1346	0	31368	
1347	0	31388	
1348	0	31376	
1349	0	31340	
1350	0	31340	
1351	0	31356	
1352	0	31320	
1353	0	31322	
1354	0	31312	
1355	0	31376	
1356	0	31424	
1357	0	31404	
1358	0	31360	
1359	0	31356	
1360	0	31368	
1361	0	31388	
1362	0	31456	
1363	0	31490	
1364	0	31512	
1365	0	31576	
1366	0	31600	
1367	0	31592	
1368	0	31568	
1369	0	31592	
1370	0	31628	
1371	0	31614	
1372	0	31620	
1373	0	31676	
1374	0	31676	
1375	0	31640	
1376	0	31568	
1377	0	31500	
1378	0	31452	
1379	0	31468	
1380	0	31528	
1381	0	31560	
1382	0	31576	
1383	0	31596	
1384	0	31605	
1385	0	31592	
1386	0	31604	
1387	0	31636	
1388	0	31648	
1389	0	31636	
1390	0	31616	
1391	0	31584	
1392	0	31496	
1393	0	31432	
1394	0	31396	
1395	0	31418	
1396	0	31476	
1397	0	31536	
1398	0	31540	
1399	0	31536	
1400	0	31532	
1401	0	31548	
1402	0	31540	
1403	0	31520	
1404	0	31536	
1405	0	31564	
1406	0	31586	
1407	0	31584	
1408	0	31628	
1409	0	31656	
1410	0	31680	
1411	0	31692	
1412	0	31672	
1413	0	31624	
1414	0	31556	
1415	0	31552	
1416	0	31564	
1417	0	31600	
1418	0	31610	
1419	0	31592	
1420	0	31576	
1421	0	31588	
1422	0	31584	
1423	0	31612	
1424	0	31638	
1425	0	31688	
1426	0	31712	
1427	0	31684	
1428	0	31608	
1429	0	31564	
1430	0	31584	
1431	0	31612	
1432	0	31664	
1433	0	31684	
1434	0	31736	
1435	0	31784	
1436	0	31792	
1437	0	31778	
1438	0	31792	
1439	0	31872	
1440	0	32000	
1441	0	32116	
1442	0	32220	
1443	0	32308	
1444	0	32376	
1445	0	32404	
1446	0	32448	
1447	0	32552	
1448	0	32716	
1449	0	32776	
1450	0	32784	
1451	0	32888	
1452	0	32976	
1453	0	33028	
1454	0	33008	
1455	0	32952	
1456	0	32916	
1457	0	32912	
1458	0	32848	
1459	0	32804	
1460	0	32776	
1461	0	32776	
1462	0	32792	
1463	0	32860	
1464	0	32864	
1465	0	32892	
1466	0	33026	
1467	0	33192	
1468	0	33408	
1469	0	33684	
1470	0	33944	
1471	0	34168	
1472	0	34344	
1473	0	34528	
1474	0	34744	
1475	0	34952	
1476	0	35148	
1477	0	35260	
1478	0	35280	
1479	0	35216	
1480	0	35136	
1481	0	35032	
1482	0	34908	
1483	0	34780	
1484	0	34664	
1485	0	34592	
1486	0	34442	
1487	0	34336	
1488	0	34232	
1489	0	34144	
1490	0	34036	
1491	0	33924	
1492	0	33728	
1493	0	33480	
1494	0	33244	
1495	0	33032	
1496	0	32788	
1497	0	32620	
1498	0	32540	
1499	0	32520	
1500	0	32472	
1501	0	32412	
1502	0	32348	
1503	0	32236	
1504	0	32140	
1505	0	32048	
1506	0	31932	
1507	0	31816	
1508	0	31728	
1509	0	31712	
1510	0	31660	
1511	0	31584	
1512	0	31480	
1513	0	31394	
1514	0	31282	
1515	0	31128	
1516	0	31034	
1517	0	31016	
1518	0	30970	
1519	0	30896	
1520	0	30844	
1521	0	30840	
1522	0	30828	
1523	0	30776	
1524	0	30728	
1525	0	30660	
1526	0	30608	
1527	0	30594	
1528	0	30600	
1529	0	30628	
1530	0	30688	
1531	0	30752	
1532	0	30788	
1533	0	30812	
1534	0	30816	
1535	0	30844	
1536	0	30912	
1537	0	31004	
1538	0	31084	
1539	0	31092	
1540	0	31092	
1541	0	31096	
1542	0	31120	
1543	0	31120	
1544	0	31124	
1545	0	31136	
1546	0	31172	
1547	0	31204	
1548	0	31276	
1549	0	31266	
1550	0	31274	
1551	0	31244	
1552	0	31180	
1553	0	31144	
1554	0	31132	
1555	0	31144	
1556	0	31144	
1557	0	31128	
1558	0	31052	
1559	0	30920	
1560	0	30740	
1561	0	30400	
1562	0	29888	
1563	0	29240	
1564	0	28560	
1565	0	28068	
1566	0	27840	
1567	0	27784	
1568	0	27820	
1569	0	28058	
1570	0	28528	
1571	0	29288	
1572	0	30224	
1573	0	31328	
1574	0	32612	
1575	0	34040	
1576	0	35760	
1577	0	37648	
1578	0	39864	
1579	0	42408	
1580	0	45368	
1581	0	48964	
1582	0	52928	
1583	0	56776	
1584	0	60368	
1585	0	62880	
1586	0	64208	
1587	0	64884	
1588	0	65192	
1589	0	65292	
1590	0	65292	
1591	0	65224	
1592	0	65136	
1593	0	65016	
1594	0	64904	
1595	0	64776	
1596	0	62248	
1597	0	56024	
1598	0	50936	
1599	0	46748	
1600	0	43348	
1601	0	40512	
1602	0	38052	
1603	0	35884	
1604	0	33960	
1605	0	32448	
1606	0	31256	
1607	0	30232	
1608	0	29384	
1609	0	28732	
1610	0	28248	
1611	0	27888	
1612	0	27600	
1613	0	27472	
1614	0	27352	
1615	0	27208	
1616	0	27068	
1617	0	27004	
1618	0	27044	
1619	0	27220	
1620	0	27494	
1621	0	27776	
1622	0	28028	
1623	0	28200	
1624	0	28320	
1625	0	28472	
1626	0	28622	
1627	0	28720	
1628	0	28800	
1629	0	28832	
1630	0	28784	
1631	0	28744	
1632	0	28640	
1633	0	28604	
1634	0	28596	
1635	0	28610	
1636	0	28650	
1637	0	28640	
1638	0	28608	
1639	0	28576	
1640	0	28544	
1641	0	28540	
1642	0	28568	
1643	0	28604	
1644	0	28644	
1645	0	28696	
1646	0	28736	
1647	0	28770	
1648	0	28818	
1649	0	28896	
1650	0	28922	
1651	0	28968	
1652	0	29008	
1653	0	29040	
1654	0	29116	
1655	0	29156	
1656	0	29242	
1657	0	29300	
1658	0	29288	
1659	0	29336	
1660	0	29376	
1661	0	29388	
1662	0	29352	
1663	0	29356	
1664	0	29380	
1665	0	29392	
1666	0	29384	
1667	0	29420	
1668	0	29496	
1669	0	29560	
1670	0	29640	
1671	0	29728	
1672	0	29788	
1673	0	29876	
1674	0	29948	
1675	0	30012	
1676	0	30060	
1677	0	30114	
1678	0	30178	
1679	0	30272	
1680	0	30360	
1681	0	30430	
1682	0	30490	
1683	0	30532	
1684	0	30532	
1685	0	30520	
1686	0	30496	
1687	0	30532	
1688	0	30648	
1689	0	30724	
1690	0	30688	
1691	0	30668	
1692	0	30668	
1693	0	30716	
1694	0	30752	
1695	0	30784	
1696	0	30864	
1697	0	30956	
1698	0	31016	
1699	0	31104	
1700	0	31172	
1701	0	31240	
1702	0	31312	
1703	0	31368	
1704	0	31396	
1705	0	31408	
1706	0	31408	
1707	0	31470	
1708	0	31546	
1709	0	31616	
1710	0	31680	
1711	0	31740	
1712	0	31800	
1713	0	31856	
1714	0	31944	
1715	0	31976	
1716	0	31968	
1717	0	32004	
1718	0	32080	
1719	0	32118	
1720	0	32168	
1721	0	32228	
1722	0	32296	
1723	0	32328	
1724	0	32330	
1725	0	32352	
1726	0	32428	
1727	0	32524	
1728	0	32588	
1729	0	32660	
1730	0	32716	
1731	0	32772	
1732	0	32832	
1733	0	32860	
1734	0	32888	
1735	0	32928	
1736	0	32968	
1737	0	33008	
1738	0	33104	
1739	0	33228	
1740	0	33320	
1741	0	33380	
1742	0	33400	
1743	0	33404	
1744	0	33432	
1745	0	33492	
1746	0	33604	
1747	0	33752	
1748	0	33856	
1749	0	33936	
1750	0	33968	
1751	0	33980	
1752	0	33992	
1753	0	34038	
1754	0	34092	
1755	0	34144	
1756	0	34180	
1757	0	34196	
1758	0	34272	
1759	0	34368	
1760	0	34464	
1761	0	34584	
1762	0	34680	
1763	0	34748	
1764	0	34788	
1765	0	34824	
1766	0	34880	
1767	0	34908	
1768	0	34944	
1769	0	34980	
1770	0	35044	
1771	0	35084	
1772	0	35144	
1773	0	35196	
1774	0	35260	
1775	0	35308	
1776	0	35356	
1777	0	35396	
1778	0	35460	
1779	0	35554	
1780	0	35640	
1781	0	35672	
1782	0	35712	
1783	0	35748	
1784	0	35776	
1785	0	35802	
1786	0	35824	
1787	0	35868	
1788	0	35904	
1789	0	35908	
1790	0	35896	
1791	0	35888	
1792	0	35896	
1793	0	35924	
1794	0	35884	
1795	0	35840	
1796	0	35832	
1797	0	35832	
1798	0	35808	
1799	0	35772	
1800	0	35740	
1801	0	35776	
1802	0	35848	
1803	0	35884	
1804	0	35904	
1805	0	35940	
1806	0	35956	
1807	0	35936	
1808	0	35952	
1809	0	35908	
1810	0	35888	
1811	0	35840	
1812	0	35808	
1813	0	35768	
1814	0	35764	
1815	0	35744	
1816	0	35744	
1817	0	35760	
1818	0	35760	
1819	0	35724	
1820	0	35672	
1821	0	35628	
1822	0	35552	
1823	0	35490	
1824	0	35432	
1825	0	35384	
1826	0	35368	
1827	0	35372	
1828	0	35336	
1829	0	35280	
1830	0	35220	
1831	0	35132	
1832	0	35012	
1833	0	34932	
1834	0	34856	
1835	0	34784	
1836	0	34688	
1837	0	34540	
1838	0	34372	
1839	0	34228	
1840	0	34080	
1841	0	33928	
1842	0	33788	
1843	0	33664	
1844	0	33520	
1845	0	33392	
1846	0	33308	
1847	0	33232	
1848	0	33120	
1849	0	33024	
1850	0	32888	
1851	0	32704	
1852	0	32512	
1853	0	32328	
1854	0	32168	
1855	0	31992	
1856	0	31868	
1857	0	31756	
1858	0	31676	
1859	0	31586	
1860	0	31520	
1861	0	31416	
1862	0	31316	
1863	0	31180	
1864	0	31042	
1865	0	30900	
1866	0	30812	
1867	0	30738	
1868	0	30682	
1869	0	30604	
1870	0	30496	
1871	0	30404	
1872	0	30384	
1873	0	30380	
1874	0	30388	
1875	0	30360	
1876	0	30248	
1877	0	30140	
1878	0	30056	
1879	0	29988	
1880	0	29936	
1881	0	29916	
1882	0	29920	
1883	0	29880	
1884	0	29870	
1885	0	29876	
1886	0	29868	
1887	0	29868	
1888	0	29824	
1889	0	29772	
1890	0	29760	
1891	0	29744	
1892	0	29728	
1893	0	29760	
1894	0	29800	
1895	0	29788	
1896	0	29780	
1897	0	29796	
1898	0	29860	
1899	0	29920	
1900	0	29972	
1901	0	29980	
1902	0	29952	
1903	0	29952	
1904	0	29948	
1905	0	29944	
1906	0	29972	
1907	0	29996	
1908	0	30000	
1909	0	30024	
1910	0	30088	
1911	0	30184	
1912	0	30264	
1913	0	30332	
1914	0	30356	
1915	0	30424	
1916	0	30458	
1917	0	30512	
1918	0	30548	
1919	0	30532	
1920	0	30528	
1921	0	30542	
1922	0	30576	
1923	0	30594	
1924	0	30620	
1925	0	30684	
1926	0	30696	
1927	0	30720	
1928	0	30796	
1929	0	30820	
1930	0	30776	
1931	0	30722	
1932	0	30672	
1933	0	30688	
1934	0	30732	
1935	0	30832	
1936	0	30960	
1937	0	31076	
1938	0	31160	
1939	0	31232	
1940	0	31280	
1941	0	31300	
1942	0	31324	
1943	0	31340	
1944	0	31364	
1945	0	31372	
1946	0	31398	
1947	0	31432	
1948	0	31460	
1949	0	31456	
1950	0	31422	
1951	0	31392	
1952	0	31420	
1953	0	31432	
1954	0	31444	
1955	0	31440	
1956	0	31456	
1957	0	31468	
1958	0	31464	
1959	0	31480	
1960	0	31500	
1961	0	31524	
1962	0	31564	
1963	0	31648	
1964	0	31680	
1965	0	31604	
1966	0	31552	
1967	0	31552	
1968	0	31588	
1969	0	31648	
1970	0	31696	
1971	0	31744	
1972	0	31748	
1973	0	31776	
1974	0	31776	
1975	0	31716	
1976	0	31700	
1977	0	31736	
1978	0	31700	
1979	0	31692	
1980	0	31728	
1981	0	31780	
1982	0	31802	
1983	0	31796	
1984	0	31816	
1985	0	31848	
1986	0	31832	
1987	0	31808	
1988	0	31792	
1989	0	31772	
1990	0	31756	
1991	0	31756	
1992	0	31728	
1993	0	31752	
1994	0	31760	
1995	0	31776	
1996	0	31800	
1997	0	31864	
1998	0	31920	
1999	0	31924	
2000	0	31968	
2001	0	31964	
2002	0	31960	
2003	0	31988	
2004	0	31968	
2005	0	31928	
2006	0	31924	
2007	0	31928	
2008	0	31936	
2009	0	31960	
2010	0	31968	
2011	0	31980	
2012	0	31992	
2013	0	31968	
2014	0	31972	
2015	0	31988	
2016	0	32004	
2017	0	32016	
2018	0	31996	
2019	0	32008	
2020	0	32024	
2021	0	32008	
2022	0	31984	
2023	0	31968	
2024	0	31956	
2025	0	31944	
2026	0	31972	
2027	0	31982	
2028	0	32004	
2029	0	32032	
2030	0	32020	
2031	0	31980	
2032	0	31992	
2033	0	32028	
2034	0	32026	
2035	0	31988	
2036	0	31972	
2037	0	31948	
2038	0	31940	
2039	0	31916	
2040	0	31880	
2041	0	31840	
2042	0	31832	
2043	0	31868	
2044	0	31908	
2045	0	31940	
2046	0	31936	
2047	0	31912	
2048	0	31914	
2049	0	31948	
2050	0	31948	
2051	0	31916	
2052	0	31892	
2053	0	31908	
2054	0	31876	
2055	0	31872	
2056	0	31896	
2057	0	31944	
2058	0	32032	
2059	0	32024	
2060	0	32016	
2061	0	31984	
2062	0	31964	
2063	0	31940	
2064	0	31928	
2065	0	31948	
2066	0	31950	
2067	0	31944	
2068	0	31944	
2069	0	31968	
2070	0	31984	
2071	0	31988	
2072	0	31984	
2073	0	32008	
2074	0	32032	
2075	0	32072	
2076	0	32116	
2077	0	32156	
2078	0	32204	
2079	0	32184	
2080	0	32172	
2081	0	32152	
2082	0	32104	
2083	0	31972	
2084	0	31876	
2085	0	31868	
2086	0	31860	
2087	0	31836	
2088	0	31816	
2089	0	31856	
2090	0	31888	
2091	0	31880	
2092	0	31876	
2093	0	31912	
2094	0	31970	
2095	0	32064	
2096	0	32108	
2097	0	32120	
2098	0	32160	
2099	0	32176	
2100	0	32160	
2101	0	32140	
2102	0	32164	
2103	0	32160	
2104	0	32160	
2105	0	32176	
2106	0	32174	
2107	0	32144	
2108	0	32152	
2109	0	32168	
2110	0	32176	
2111	0	32160	
2112	0	32192	
2113	0	32260	
2114	0	32332	
2115	0	32416	
2116	0	32540	
2117	0	32588	
2118	0	32688	
2119	0	32832	
2120	0	32900	
2121	0	32956	
2122	0	33008	
2123	0	33108	
2124	0	33192	
2125	0	33264	
2126	0	33328	
2127	0	33364	
2128	0	33336	
2129	0	33284	
2130	0	33240	
2131	0	33216	
2132	0	33192	
2133	0	33188	
2134	0	33208	
2135	0	33292	
2136	0	33365	
2137	0	33428	
2138	0	33472	
2139	0	33480	
2140	0	33524	
2141	0	33632	
2142	0	33828	
2143	0	34072	
2144	0	34328	
2145	0	34568	
2146	0	34800	
2147	0	34900	
2148	0	34944	
2149	0	35060	
2150	0	35224	
2151	0	35368	
2152	0	35428	
2153	0	35424	
2154	0	35356	
2155	0	35280	
2156	0	35204	
2157	0	35112	
2158	0	35028	
2159	0	34976	
2160	0	34868	
2161	0	34660	
2162	0	34516	
2163	0	34416	
2164	0	34280	
2165	0	34136	
2166	0	33996	
2167	0	33872	
2168	0	33756	
2169	0	33626	
2170	0	33476	
2171	0	33306	
2172	0	33160	
2173	0	33032	
2174	0	32886	
2175	0	32744	
2176	0	32626	
2177	0	32568	
2178	0	32572	
2179	0	32556	
2180	0	32468	
2181	0	32392	
2182	0	32328	
2183	0	32288	
2184	0	32288	
2185	0	32232	
2186	0	32120	
2187	0	32000	
2188	0	31908	
2189	0	31792	
2190	0	31696	
2191	0	31570	
2192	0	31460	
2193	0	31352	
2194	0	31280	
2195	0	31216	
2196	0	31156	
2197	0	31072	
2198	0	31064	
2199	0	31102	
2200	0	31138	
2201	0	31168	
2202	0	31184	
2203	0	31216	
2204	0	31240	
2205	0	31240	
2206	0	31240	
2207	0	31224	
2208	0	31208	
2209	0	31184	
2210	0	31204	
2211	0	31232	
2212	0	31284	
2213	0	31328	
2214	0	31336	
2215	0	31320	
2216	0	31284	
2217	0	31304	
2218	0	31368	
2219	0	31440	
2220	0	31480	
2221	0	31512	
2222	0	31544	
2223	0	31532	
2224	0	31552	
2225	0	31572	
2226	0	31548	
2227	0	31584	
2228	0	31648	
2229	0	31680	
2230	0	31680	
2231	0	31688	
2232	0	31652	
2233	0	31540	
2234	0	31312	
2235	0	30984	
2236	0	30556	
2237	0	29940	
2238	0	29216	
2239	0	28628	
2240	0	28274	
2241	0	28142	
2242	0	28096	
2243	0	28238	
2244	0	28544	
2245	0	29120	
2246	0	29916	
2247	0	30856	
2248	0	32040	
2249	0	33456	
2250	0	35080	
2251	0	36808	
2252	0	38904	
2253	0	41480	
2254	0	44494	
2255	0	48024	
2256	0	51920	
2257	0	55728	
2258	0	59332	
2259	0	62248	
2260	0	63820	
2261	0	64624	
2262	0	65008	
2263	0	65152	
2264	0	65168	
2265	0	65120	
2266	0	65040	
2267	0	64928	
2268	0	64800	
2269	0	64692	
2270	0	63632	
2271	0	57268	
2272	0	52048	
2273	0	47780	
2274	0	44276	
2275	0	41416	
2276	0	38972	
2277	0	36780	
2278	0	34876	
2279	0	33240	
2280	0	31952	
2281	0	30816	
2282	0	29760	
2283	0	28896	
2284	0	28242	
2285	0	27760	
2286	0	27488	
2287	0	27336	
2288	0	27236	
2289	0	27100	
2290	0	27004	
2291	0	26948	
2292	0	26980	
2293	0	27104	
2294	0	27360	
2295	0	27644	
2296	0	27940	
2297	0	28208	
2298	0	28444	
2299	0	28660	
2300	0	28868	
2301	0	29024	
2302	0	29124	
2303	0	29156	
2304	0	29140	
2305	0	29132	
2306	0	29088	
2307	0	29040	
2308	0	29016	
2309	0	29052	
2310	0	29092	
2311	0	29072	
2312	0	29080	
2313	0	29024	
2314	0	28988	
2315	0	28956	
2316	0	28932	
2317	0	28948	
2318	0	28989	
2319	0	29026	
2320	0	29040	
2321	0	29080	
2322	0	29128	
2323	0	29152	
2324	0	29188	
2325	0	29256	
2326	0	29320	
2327	0	29352	
2328	0	29348	
2329	0	29316	
2330	0	29322	
2331	0	29376	
2332	0	29428	
2333	0	29488	
2334	0	29536	
2335	0	29573	
2336	0	29636	
2337	0	29668	
2338	0	29668	
2339	0	29714	
2340	0	29780	
2341	0	29792	
2342	0	29816	
2343	0	29844	
2344	0	29912	
2345	0	29960	
2346	0	30024	
2347	0	30104	
2348	0	30106	
2349	0	30140	
2350	0	30176	
2351	0	30228	
2352	0	30292	
2353	0	30400	
2354	0	30468	
2355	0	30560	
2356	0	30636	
2357	0	30678	
2358	0	30684	
2359	0	30724	
2360	0	30736	
2361	0	30770	
2362	0	30832	
2363	0	30924	
2364	0	30972	
2365	0	31020	
2366	0	31084	
2367	0	31152	
2368	0	31160	
2369	0	31112	
2370	0	31136	
2371	0	31168	
2372	0	31184	
2373	0	31220	
2374	0	31264	
2375	0	31316	
2376	0	31346	
2377	0	31376	
2378	0	31424	
2379	0	31496	
2380	0	31556	
2381	0	31620	
2382	0	31684	
2383	0	31760	
2384	0	31808	
2385	0	31844	
2386	0	31900	
2387	0	31936	
2388	0	31952	
2389	0	31992	
2390	0	32048	
2391	0	32112	
2392	0	32192	
2393	0	32296	
2394	0	32388	
2395	0	32448	
2396	0	32496	
2397	0	32520	
2398	0	32492	
2399	0	32464	
2400	0	32456	
2401	0	32468	
2402	0	32524	
2403	0	32588	
2404	0	32668	
2405	0	32788	
2406	0	32856	
2407	0	32928	
2408	0	33008	
2409	0	33080	
2410	0	33096	
2411	0	33136	
2412	0	33196	
2413	0	33216	
2414	0	33284	
2415	0	33344	
2416	0	33400	
2417	0	33440	
2418	0	33504	
2419	0	33572	
2420	0	33596	
2421	0	33612	
2422	0	33632	
2423	0	33668	
2424	0	33720	
2425	0	33812	
2426	0	33920	
2427	0	34004	
2428	0	34048	
2429	0	34104	
2430	0	34160	
2431	0	34244	
2432	0	34352	
2433	0	34484	
2434	0	34580	
2435	0	34624	
2436	0	34604	
2437	0	34620	
2438	0	34716	
2439	0	34848	
2440	0	34896	
2441	0	34904	
2442	0	34908	
2443	0	34916	
2444	0	34956	
2445	0	35004	
2446	0	35082	
2447	0	35156	
2448	0	35200	
2449	0	35248	
2450	0	35324	
2451	0	35416	
2452	0	35444	
2453	0	35462	
2454	0	35468	
2455	0	35516	
2456	0	35616	
2457	0	35700	
2458	0	35772	
2459	0	35808	
2460	0	35816	
2461	0	35816	
2462	0	35842	
2463	0	35888	
2464	0	35900	
2465	0	35932	
2466	0	35936	
2467	0	35956	
2468	0	35992	
2469	0	35992	
2470	0	35962	
2471	0	35940	
2472	0	35930	
2473	0	35904	
2474	0	35904	
2475	0	35940	
2476	0	35968	
2477	0	35964	
2478	0	35962	
2479	0	35996	
2480	0	36012	
2481	0	36012	
2482	0	35988	
2483	0	35992	
2484	0	35944	
2485	0	35872	
2486	0	35844	
2487	0	35776	
2488	0	35740	
2489	0	35694	
2490	0	35660	
2491	0	35652	
2492	0	35656	
2493	0	35704	
2494	0	35736	
2495	0	35774	
2496	0	35752	
2497	0	35738	
2498	0	35720	
2499	0	35652	
2500	0	35580	
2501	0	35520	
2502	0	35464	
2503	0	35404	
2504	0	35364	
2505	0	35372	
2506	0	35304	
2507	0	35196	
2508	0	35066	
2509	0	34928	
2510	0	34776	
2511	0	34656	
2512	0	34560	
2513	0	34520	
2514	0	34424	
2515	0	34316	
2516	0	34188	
2517	0	34002	
2518	0	33824	
2519	0	33648	
2520	0	33504	
2521	0	33376	
2522	0	33248	
2523	0	33160	
2524	0	33072	
2525	0	32984	
2526	0	32916	
2527	0	32800	
2528	0	32640	
2529	0	32472	
2530	0	32300	
2531	0	32128	
2532	0	31980	
2533	0	31810	
2534	0	31674	
2535	0	31512	
2536	0	31388	
2537	0	31258	
2538	0	31184	
2539	0	31098	
2540	0	30992	
2541	0	30896	
2542	0	30842	
2543	0	30752	
2544	0	30656	
2545	0	30560	
2546	0	30488	
2547	0	30440	
2548	0	30412	
2549	0	30320	
2550	0	30212	
2551	0	30200	
2552	0	30176	
2553	0	30154	
2554	0	30090	
2555	0	29920	
2556	0	29778	
2557	0	29650	
2558	0	29572	
2559	0	29512	
2560	0	29476	
2561	0	29488	
2562	0	29452	
2563	0	29452	
2564	0	29480	
2565	0	29520	
2566	0	29548	
2567	0	29560	
2568	0	29548	
2569	0	29560	
2570	0	29588	
2571	0	29592	
2572	0	29600	
2573	0	29640	
2574	0	29702	
2575	0	29764	
2576	0	29812	
2577	0	29832	
2578	0	29856	
2579	0	29844	
2580	0	29816	
2581	0	29786	
2582	0	29764	
2583	0	29782	
2584	0	29828	
2585	0	29826	
2586	0	29874	
2587	0	29940	
2588	0	29928	
2589	0	29904	
2590	0	29914	
2591	0	29956	
2592	0	30010	
2593	0	30072	
2594	0	30172	
2595	0	30268	
2596	0	30304	
2597	0	30328	
2598	0	30324	
2599	0	30344	
2600	0	30416	
2601	0	30476	
2602	0	30480	
2603	0	30508	
2604	0	30532	
2605	0	30546	
2606	0	30564	
2607	0	30604	
2608	0	30620	
2609	0	30600	
2610	0	30560	
2611	0	30580	
2612	0	30624	
2613	0	30660	
2614	0	30696	
2615	0	30680	
2616	0	30672	
2617	0	30712	
2618	0	30776	
2619	0	30828	
2620	0	30844	
2621	0	30868	
2622	0	30912	
2623	0	30964	
2624	0	31020	
2625	0	31040	
2626	0	31044	
2627	0	31072	
2628	0	31124	
2629	0	31156	
2630	0	31172	
2631	0	31228	
2632	0	31282	
2633	0	31336	
2634	0	31364	
2635	0	31376	
2636	0	31384	
2637	0	31368	
2638	0	31356	
2639	0	31336	
2640	0	31344	
2641	0	31328	
2642	0	31344	
2643	0	31392	
2644	0	31416	
2645	0	31408	
2646	0	31388	
2647	0	31368	
2648	0	31384	
2649	0	31376	
2650	0	31392	
2651	0	31384	
2652	0	31364	
2653	0	31388	
2654	0	31436	
2655	0	31488	
2656	0	31504	
2657	0	31544	
2658	0	31588	
2659	0	31624	
2660	0	31680	
2661	0	31692	
2662	0	31658	
2663	0	31576	
2664	0	31504	
2665	0	31480	
2666	0	31484	
2667	0	31500	
2668	0	31540	
2669	0	31622	
2670	0	31676	
2671	0	31704	
2672	0	31708	
2673	0	31664	
2674	0	31616	
2675	0	31624	
2676	0	31620	
2677	0	31570	
2678	0	31584	
2679	0	31596	
2680	0	31588	
2681	0	31572	
2682	0	31548	
2683	0	31548	
2684	0	31584	
2685	0	31600	
2686	0	31622	
2687	0	31648	
2688	0	31656	
2689	0	31664	
2690	0	31648	
2691	0	31592	
2692	0	31568	
2693	0	31592	
2694	0	31620	
2695	0	31608	
2696	0	31556	
2697	0	31540	
2698	0	31486	
2699	0	31424	
2700	0	31412	
2701	0	31506	
2702	0	31576	
2703	0	31608	
2704	0	31584	
2705	0	31560	
2706	0	31528	
2707	0	31532	
2708	0	31572	
2709	0	31616	
2710	0	31640	
2711	0	31700	
2712	0	31740	
2713	0	31764	
2714	0	31768	
2715	0	31794	
2716	0	31812	
2717	0	31800	
2718	0	31784	
2719	0	31764	
2720	0	31816	
2721	0	31852	
2722	0	31880	
2723	0	31888	
2724	0	31864	
2725	0	31820	
2726	0	31716	
2727	0	31672	
2728	0	31608	
2729	0	31636	
2730	0	31668	
2731	0	31680	
2732	0	31700	
2733	0	31680	
2734	0	31688	
2735	0	31644	
2736	0	31512	
2737	0	31520	
2738	0	31596	
2739	0	31668	
2740	0	31716	
2741	0	31756	
2742	0	31824	
2743	0	31828	
2744	0	31820	
2745	0	31812	
2746	0	31792	
2747	0	31804	
2748	0	31792	
2749	0	31744	
2750	0	31696	
2751	0	31688	
2752	0	31712	
2753	0	31712	
2754	0	31708	
2755	0	31708	
2756	0	31728	
2757	0	31752	
2758	0	31760	
2759	0	31748	
2760	0	31750	
2761	0	31720	
2762	0	31720	
2763	0	31732	
2764	0	31750	
2765	0	31744	
2766	0	31760	
2767	0	31768	
2768	0	31776	
2769	0	31752	
2770	0	31732	
2771	0	31738	
2772	0	31752	
2773	0	31808	
2774	0	31856	
2775	0	31848	
2776	0	31872	
2777	0	31920	
2778	0	31984	
2779	0	31996	
2780	0	31968	
2781	0	32000	
2782	0	32068	
2783	0	32080	
2784	0	32028	
2785	0	31980	
2786	0	31882	
2787	0	31808	
2788	0	31748	
2789	0	31720	
2790	0	31748	
2791	0	31768	
2792	0	31780	
2793	0	31784	
2794	0	31848	
2795	0	31908	
2796	0	31916	
2797	0	31908	
2798	0	31856	
2799	0	31828	
2800	0	31832	
2801	0	31896	
2802	0	32016	
2803	0	32098	
2804	0	32104	
2805	0	32130	
2806	0	32144	
2807	0	32136	
2808	0	32160	
2809	0	32156	
2810	0	32096	
2811	0	32074	
2812	0	32104	
2813	0	32136	
2814	0	32128	
2815	0	32100	
2816	0	32088	
2817	0	32120	
2818	0	32182	
2819	0	32236	
2820	0	32282	
2821	0	32296	
2822	0	32282	
2823	0	32248	
2824	0	32272	
2825	0	32268	
2826	0	32204	
2827	0	32160	
2828	0	32144	
2829	0	32144	
2830	0	32176	
2831	0	32232	
2832	0	32276	
2833	0	32280	
2834	0	32252	
2835	0	32240	
2836	0	32248	
2837	0	32276	
2838	0	32288	
2839	0	32342	
2840	0	32396	
2841	0	32410	
2842	0	32392	
2843	0	32348	
2844	0	32344	
2845	0	32364	
2846	0	32380	
2847	0	32384	
2848	0	32336	
2849	0	32300	
2850	0	32312	
2851	0	32324	
2852	0	32318	
2853	0	32284	
2854	0	32308	
2855	0	32352	
2856	0	32328	
2857	0	32332	
2858	0	32340	
2859	0	32384	
2860	0	32420	
2861	0	32410	
2862	0	32436	
2863	0	32492	
2864	0	32492	
2865	0	32488	
2866	0	32456	
2867	0	32404	
2868	0	32394	
2869	0	32400	
2870	0	32380	
2871	0	32388	
2872	0	32452	
2873	0	32494	
2874	0	32488	
2875	0	32480	
2876	0	32484	
2877	0	32458	
2878	0	32504	
2879	0	32580	
2880	0	32608	
2881	0	32612	
2882	0	32696	
2883	0	32852	
2884	0	33024	
2885	0	33132	
2886	0	33172	
2887	0	33192	
2888	0	33224	
2889	0	33304	
2890	0	33388	
2891	0	33456	
2892	0	33560	
2893	0	33660	
2894	0	33708	
2895	0	33752	
2896	0	33724	
2897	0	33704	
2898	0	33688	
2899	0	33660	
2900	0	33596	
2901	0	33504	
2902	0	33412	
2903	0	33412	
2904	0	33420	
2905	0	33440	
2906	0	33432	
2907	0	33440	
2908	0	33520	
2909	0	33656	
2910	0	33856	
2911	0	34116	
2912	0	34428	
2913	0	34680	
2914	0	34884	
2915	0	34952	
2916	0	35044	
2917	0	35164	
2918	0	35304	
2919	0	35492	
2920	0	35604	
2921	0	35562	
2922	0	35460	
2923	0	35320	
2924	0	35200	
2925	0	35112	
2926	0	35066	
2927	0	35040	
2928	0	34954	
2929	0	34816	
2930	0	34668	
2931	0	34552	
2932	0	34444	
2933	0	34332	
2934	0	34232	
2935	0	34164	
2936	0	33988	
2937	0	33748	
2938	0	33556	
2939	0	33472	
2940	0	33426	
2941	0	33404	
2942	0	33374	
2943	0	33304	
2944	0	33216	
2945	0	33136	
2946	0	33096	
2947	0	33056	
2948	0	32944	
2949	0	32836	
2950	0	32744	
2951	0	32648	
2952	0	32552	
2953	0	32496	
2954	0	32436	
2955	0	32354	
2956	0	32264	
2957	0	32128	
2958	0	32016	
2959	0	31920	
2960	0	31790	
2961	0	31648	
2962	0	31496	
2963	0	31380	
2964	0	31336	
2965	0	31360	
2966	0	31360	
2967	0	31424	
2968	0	31512	
2969	0	31572	
2970	0	31584	
2971	0	31576	
2972	0	31564	
2973	0	31596	
2974	0	31620	
2975	0	31650	
2976	0	31728	
2977	0	31776	
2978	0	31804	
2979	0	31808	
2980	0	31842	
2981	0	31884	
2982	0	31872	
2983	0	31900	
2984	0	31928	
2985	0	31940	
2986	0	31900	
2987	0	31864	
2988	0	31888	
2989	0	31936	
2990	0	31972	
2991	0	31988	
2992	0	31976	
2993	0	31984	
2994	0	32012	
2995	0	32020	
2996	0	32044	
2997	0	32080	
2998	0	32048	
2999	0	31904	
3000	0	31728	
3001	0	31530	
3002	0	31150	
3003	0	30632	
3004	0	29984	
3005	0	29342	
3006	0	28890	
3007	0	28656	
3008	0	28580	
3009	0	28596	
3010	0	28816	
3011	0	29310	
3012	0	30044	
3013	0	30940	
3014	0	31912	
3015	0	33172	
3016	0	34728	
3017	0	36524	
3018	0	38512	
3019	0	40888	
3020	0	43648	
3021	0	46872	
3022	0	50604	
3023	0	54464	
3024	0	58136	
3025	0	61456	
3026	0	63432	
3027	0	64448	
3028	0	64960	
3029	0	65160	
3030	0	65216	
3031	0	65192	
3032	0	65112	
3033	0	65020	
3034	0	64888	
3035	0	64784	
3036	0	64656	
3037	0	59184	
3038	0	53672	
3039	0	49184	
3040	0	45488	
3041	0	42460	
3042	0	40008	
3043	0	37832	
3044	0	35840	
3045	0	34028	
3046	0	32408	
3047	0	31060	
3048	0	29972	
3049	0	29120	
3050	0	28504	
3051	0	27972	
3052	0	27521	
3053	0	27204	
3054	0	27036	
3055	0	26880	
3056	0	26720	
3057	0	26612	
3058	0	26616	
3059	0	26780	
3060	0	27048	
3061	0	27412	
3062	0	27812	
3063	0	28160	
3064	0	28460	
3065	0	28748	
3066	0	28992	
3067	0	29168	
3068	0	29276	
3069	0	29304	
3070	0	29324	
3071	0	29340	
3072	0	29308	
3073	0	29312	
3074	0	29324	
3075	0	29310	
3076	0	29284	
3077	0	29232	
3078	0	29176	
3079	0	29188	
3080	0	29240	
3081	0	29232	
3082	0	29188	
3083	0	29184	
3084	0	29160	
3085	0	29152	
3086	0	29162	
3087	0	29228	
3088	0	29288	
3089	0	29348	
3090	0	29404	
3091	0	29442	
3092	0	29464	
3093	0	29450	
3094	0	29466	
3095	0	29488	
3096	0	29512	
3097	0	29556	
3098	0	29604	
3099	0	29588	
3100	0	29528	
3101	0	29528	
3102	0	29578	
3103	0	29676	
3104	0	29776	
3105	0	29856	
3106	0	29928	
3107	0	29980	
3108	0	30000	
3109	0	30040	
3110	0	30088	
3111	0	30168	
3112	0	30256	
3113	0	30328	
3114	0	30456	
3115	0	30560	
3116	0	30584	
3117	0	30552	
3118	0	30544	
3119	0	30520	
3120	0	30532	
3121	0	30576	
3122	0	30652	
3123	0	30752	
3124	0	30774	
3125	0	30816	
3126	0	30880	
3127	0	30924	
3128	0	30972	
3129	0	31020	
3130	0	31032	
3131	0	31068	
3132	0	31160	
3133	0	31228	
3134	0	31256	
3135	0	31320	
3136	0	31332	
3137	0	31292	
3138	0	31242	
3139	0	31216	
3140	0	31212	
3141	0	31252	
3142	0	31336	
3143	0	31428	
3144	0	31550	
3145	0	31658	
3146	0	31728	
3147	0	31792	
3148	0	31828	
3149	0	31840	
3150	0	31840	
3151	0	31928	
3152	0	31972	
3153	0	32014	
3154	0	32076	
3155	0	32116	
3156	0	32144	
3157	0	32208	
3158	0	32272	
3159	0	32298	
3160	0	32368	
3161	0	32400	
3162	0	32424	
3163	0	32456	
3164	0	32484	
3165	0	32504	
3166	0	32546	
3167	0	32620	
3168	0	32672	
3169	0	32716	
3170	0	32760	
3171	0	32816	
3172	0	32848	
3173	0	32876	
3174	0	32912	
3175	0	32960	
3176	0	33052	
3177	0	33136	
3178	0	33172	
3179	0	33236	
3180	0	33300	
3181	0	33340	
3182	0	33366	
3183	0	33412	
3184	0	33492	
3185	0	33604	
3186	0	33716	
3187	0	33816	
3188	0	33852	
3189	0	33856	
3190	0	33900	
3191	0	33960	
3192	0	34040	
3193	0	34080	
3194	0	34116	
3195	0	34140	
3196	0	34208	
3197	0	34298	
3198	0	34424	
3199	0	34528	
3200	0	34592	
3201	0	34610	
3202	0	34648	
3203	0	34732	
3204	0	34788	
3205	0	34816	
3206	0	34812	
3207	0	34824	
3208	0	34852	
3209	0	34908	
3210	0	34932	
3211	0	34928	
3212	0	34936	
3213	0	34992	
3214	0	35102	
3215	0	35160	
3216	0	35216	
3217	0	35264	
3218	0	35292	
3219	0	35348	
3220	0	35408	
3221	0	35502	
3222	0	35572	
3223	0	35576	
3224	0	35624	
3225	0	35628	
3226	0	35632	
3227	0	35688	
3228	0	35772	
3229	0	35824	
3230	0	35864	
3231	0	35888	
3232	0	35840	
3233	0	35818	
3234	0	35784	
3235	0	35796	
3236	0	35752	
3237	0	35764	
3238	0	35804	
3239	0	35808	
3240	0	35766	
3241	0	35768	
3242	0	35808	
3243	0	35800	
3244	0	35776	
3245	0	35768	
3246	0	35772	
3247	0	35740	
3248	0	35720	
3249	0	35724	
3250	0	35704	
3251	0	35684	
3252	0	35680	
3253	0	35700	
3254	0	35680	
3255	0	35592	
3256	0	35512	
3257	0	35444	
3258	0	35396	
3259	0	35380	
3260	0	35424	
3261	0	35470	
3262	0	35436	
3263	0	35360	
3264	0	35308	
3265	0	35296	
3266	0	35348	
3267	0	35400	
3268	0	35368	
3269	0	35384	
3270	0	35392	
3271	0	35392	
3272	0	35364	
3273	0	35276	
3274	0	35204	
3275	0	35132	
3276	0	35136	
3277	0	35136	
3278	0	35070	
3279	0	34936	
3280	0	34808	
3281	0	34700	
3282	0	34608	
3283	0	34528	
3284	0	34436	
3285	0	34332	
3286	0	34164	
3287	0	33968	
3288	0	33760	
3289	0	33540	
3290	0	33400	
3291	0	33320	
3292	0	33236	
3293	0	33152	
3294	0	33080	
3295	0	33060	
3296	0	32948	
3297	0	32752	
3298	0	32614	
3299	0	32508	
3300	0	32324	
3301	0	32226	
3302	0	32136	
3303	0	32036	
3304	0	31904	
3305	0	31788	
3306	0	31656	
3307	0	31602	
3308	0	31570	
3309	0	31524	
3310	0	31488	
3311	0	31404	
3312	0	31200	
3313	0	31032	
3314	0	30896	
3315	0	30750	
3316	0	30598	
3317	0	30484	
3318	0	30432	
3319	0	30420	
3320	0	30312	
3321	0	30204	
3322	0	30122	
3323	0	30028	
3324	0	29956	
3325	0	29932	
3326	0	29912	
3327	0	29890	
3328	0	29868	
3329	0	29852	
3330	0	29824	
3331	0	29760	
3332	0	29736	
3333	0	29696	
3334	0	29688	
3335	0	29708	
3336	0	29680	
3337	0	29644	
3338	0	29620	
3339	0	29640	
3340	0	29648	
3341	0	29682	
3342	0	29656	
3343	0	29652	
3344	0	29704	
3345	0	29784	
3346	0	29808	
3347	0	29796	
3348	0	29800	
3349	0	29832	
3350	0	29884	
3351	0	29953	
3352	0	30012	
3353	0	30022	
3354	0	30024	
3355	0	30062	
3356	0	30064	
3357	0	30044	
3358	0	30040	
3359	0	30060	
3360	0	30056	
3361	0	30118	
3362	0	30192	
3363	0	30188	
3364	0	30120	
3365	0	30136	
3366	0	30164	
3367	0	30248	
3368	0	30316	
3369	0	30362	
3370	0	30428	
3371	0	30476	
3372	0	30488	
3373	0	30516	
3374	0	30584	
3375	0	30604	
3376	0	30596	
3377	0	30604	
3378	0	30608	
3379	0	30632	
3380	0	30652	
3381	0	30574	
3382	0	30524	
3383	0	30576	
3384	0	30672	
3385	0	30716	
3386	0	30762	
3387	0	30832	
3388	0	30864	
3389	0	30888	
3390	0	30888	
3391	0	30904	
3392	0	30956	
3393	0	30988	
3394	0	30988	
3395	0	31012	
3396	0	31098	
3397	0	31196	
3398	0	31240	
3399	0	31340	
3400	0	31384	
3401	0	31312	
3402	0	31256	
3403	0	31272	
3404	0	31308	
3405	0	31284	
3406	0	31292	
3407	0	31304	
3408	0	31340	
3409	0	31400	
3410	0	31432	
3411	0	31424	
3412	0	31354	
3413	0	31304	
3414	0	31296	
3415	0	31290	
3416	0	31272	
3417	0	31224	
3418	0	31180	
3419	0	31148	
3420	0	31216	
3421	0	31304	
3422	0	31392	
3423	0	31466	
3424	0	31508	
3425	0	31550	
3426	0	31588	
3427	0	31636	
3428	0	31668	
3429	0	31712	
3430	0	31716	
3431	0	31756	
3432	0	31796	
3433	0	31788	
3434	0	31740	
3435	0	31708	
3436	0	31688	
3437	0	31648	
3438	0	31608	
3439	0	31532	
3440	0	31480	
3441	0	31504	
3442	0	31552	
3443	0	31552	
3444	0	31616	
3445	0	31672	
3446	0	31736	
3447	0	31808	
3448	0	31808	
3449	0	31768	
3450	0	31712	
3451	0	31684	
3452	0	31672	
3453	0	31576	
3454	0	31516	
3455	0	31504	
3456	0	31568	
3457	0	31648	
3458	0	31740	
3459	0	31820	
3460	0	31840	
3461	0	31844	
3462	0	31848	
3463	0	31816	
3464	0	31824	
3465	0	31888	
3466	0	31900	
3467	0	31884	
3468	0	31884	
3469	0	31900	
3470	0	31892	
3471	0	31924	
3472	0	31930	
3473	0	31912	
3474	0	31916	
3475	0	31876	
3476	0	31824	
3477	0	31808	
3478	0	31824	
3479	0	31820	
3480	0	31792	
3481	0	31760	
3482	0	31712	
3483	0	31720	
3484	0	31748	
3485	0	31724	
3486	0	31708	
3487	0	31732	
3488	0	31752	
3489	0	31762	
3490	0	31770	
3491	0	31840	
3492	0	31868	
3493	0	31872	
3494	0	31860	
3495	0	31876	
3496	0	31888	
3497	0	31936	
3498	0	31900	
3499	0	31808	
3500	0	31728	
3501	0	31708	
3502	0	31736	
3503	0	31748	
3504	0	31852	
3505	0	31928	
3506	0	31888	
3507	0	31828	
3508	0	31784	
3509	0	31772	
3510	0	31792	
3511	0	31792	
3512	0	31774	
3513	0	31772	
3514	0	31784	
3515	0	31832	
3516	0	31876	
3517	0	31912	
3518	0	31976	
3519	0	32020	
3520	0	32012	
3521	0	31972	
3522	0	31856	
3523	0	31772	
3524	0	31792	
3525	0	31838	
3526	0	31864	
3527	0	31872	
3528	0	31876	
3529	0	31912	
3530	0	31912	
3531	0	31868	
3532	0	31848	
3533	0	31912	
3534	0	31988	
3535	0	32068	
3536	0	32148	
3537	0	32204	
3538	0	32172	
3539	0	32186	
3540	0	32208	
3541	0	32186	
3542	0	32144	
3543	0	32070	
3544	0	31992	
3545	0	31924	
3546	0	31924	
3547	0	31956	
3548	0	32012	
3549	0	32008	
3550	0	32024	
3551	0	32072	
3552	0	32100	
3553	0	32116	
3554	0	32120	
3555	0	32156	
3556	0	32212	
3557	0	32268	
3558	0	32258	
3559	0	32296	
3560	0	32308	
3561	0	32296	
3562	0	32212	
3563	0	32136	
3564	0	32116	
3565	0	32116	
3566	0	32112	
3567	0	32140	
3568	0	32200	
3569	0	32220	
3570	0	32224	
3571	0	32272	
3572	0	32340	
3573	0	32328	
3574	0	32352	
3575	0	32368	
3576	0	32404	
3577	0	32436	
3578	0	32412	
3579	0	32338	
3580	0	32386	
3581	0	32464	
3582	0	32492	
3583	0	32440	
3584	0	32380	
3585	0	32300	
3586	0	32220	
3587	0	32192	
3588	0	32164	
3589	0	32164	
3590	0	32156	
3591	0	32196	
3592	0	32288	
3593	0	32372	
3594	0	32440	
3595	0	32416	
3596	0	32360	
3597	0	32336	
3598	0	32364	
3599	0	32400	
3600	0	32396	
3601	0	32376	
3602	0	32380	
3603	0	32244	
3604	0	32092	
3605	0	32056	
3606	0	32128	
3607	0	32272	
3608	0	32348	
3609	0	32328	
3610	0	32296	
3611	0	32348	
3612	0	32460	
3613	0	32548	
3614	0	32576	
3615	0	32538	
3616	0	32560	
3617	0	32632	
3618	0	32652	
3619	0	32648	
3620	0	32698	
3621	0	32696	
3622	0	32680	
3623	0	32640	
3624	0	32660	
3625	0	32648	
3626	0	32602	
3627	0	32568	
3628	0	32556	
3629	0	32608	
3630	0	32649	
3631	0	32624	
3632	0	32564	
3633	0	32544	
3634	0	32532	
3635	0	32556	
3636	0	32644	
3637	0	32800	
3638	0	32904	
3639	0	33058	
3640	0	33108	
3641	0	33152	
3642	0	33180	
3643	0	33240	
3644	0	33348	
3645	0	33448	
3646	0	33472	
3647	0	33456	
3648	0	33436	
3649	0	33396	
3650	0	33344	
3651	0	33296	
3652	0	33272	
3653	0	33216	
3654	0	33184	
3655	0	33120	
3656	0	33060	
3657	0	33084	
3658	0	33188	
3659	0	33266	
3660	0	33328	
3661	0	33328	
3662	0	33328	
3663	0	33430	
3664	0	33564	
3665	0	33720	
3666	0	33964	
3667	0	34266	
3668	0	34584	
3669	0	34860	
3670	0	35080	
3671	0	35288	
3672	0	35456	
3673	0	35578	
3674	0	35712	
3675	0	35772	
3676	0	35792	
3677	0	35752	
3678	0	35636	
3679	0	35500	
3680	0	35348	
3681	0	35244	
3682	0	35098	
3683	0	34900	
3684	0	34684	
3685	0	34528	
3686	0	34522	
3687	0	34576	
3688	0	34512	
3689	0	34408	
3690	0	34276	
3691	0	34100	
3692	0	33940	
3693	0	33824	
3694	0	33752	
3695	0	33712	
3696	0	33720	
3697	0	33736	
3698	0	33660	
3699	0	33532	
3700	0	33400	
3701	0	33280	
3702	0	33196	
3703	0	33104	
3704	0	32956	
3705	0	32816	
3706	0	32732	
3707	0	32676	
3708	0	32600	
3709	0	32498	
3710	0	32388	
3711	0	32296	
3712	0	32248	
3713	0	32128	
3714	0	32012	
3715	0	31976	
3716	0	31976	
3717	0	31936	
3718	0	31764	
3719	0	31644	
3720	0	31652	
3721	0	31632	
3722	0	31608	
3723	0	31616	
3724	0	31682	
3725	0	31778	
3726	0	31828	
3727	0	31828	
3728	0	31812	
3729	0	31832	
3730	0	31916	
3731	0	31988	
3732	0	32064	
3733	0	32148	
3734	0	32240	
3735	0	32124	
3736	0	32040	
3737	0	31980	
3738	0	31936	
3739	0	31912	
3740	0	31872	
3741	0	31944	
3742	0	32004	
3743	0	32088	
3744	0	32144	
3745	0	32160	
3746	0	32104	
3747	0	32084	
3748	0	32172	
3749	0	32236	
3750	0	32288	
3751	0	32336	
3752	0	32332	
3753	0	32296	
3754	0	32216	
3755	0	32144	
3756	0	32012	
3757	0	31720	
3758	0	31264	
3759	0	30642	
3760	0	30068	
3761	0	29716	
3762	0	29562	
3763	0	29416	
3764	0	29436	
3765	0	29648	
3766	0	30190	
3767	0	30952	
3768	0	31898	
3769	0	32992	
3770	0	34252	
3771	0	35684	
3772	0	37312	
3773	0	39128	
3774	0	41368	
3775	0	44044	
3776	0	47156	
3777	0	50448	
3778	0	53800	
3779	0	57152	
3780	0	60452	
3781	0	62700	
3782	0	63932	
3783	0	64512	
3784	0	64768	
3785	0	64860	
3786	0	64852	
3787	0	64792	
3788	0	64688	
3789	0	64576	
3790	0	61276	
3791	0	55136	
3792	0	49192	
3793	0	44044	
3794	0	40008	
3795	0	36984	
3796	0	34840	
3797	0	33308	
3798	0	32148	
3799	0	31160	
3800	0	30188	
3801	0	29224	
3802	0	28246	
3803	0	27464	
3804	0	26900	
3805	0	26428	
3806	0	26212	
3807	0	26132	
3808	0	26056	
3809	0	25984	
3810	0	25944	
3811	0	25980	
3812	0	26152	
3813	0	26388	
3814	0	26712	
3815	0	26952	
3816	0	27140	
3817	0	27428	
3818	0	27808	
3819	0	28200	
3820	0	28552	
3821	0	28840	
3822	0	29008	
3823	0	29180	
3824	0	29332	
3825	0	29468	
3826	0	29664	
3827	0	29832	
3828	0	29872	
3829	0	29908	
3830	0	29968	
3831	0	30060	
3832	0	30180	
3833	0	30328	
3834	0	30382	
3835	0	30426	
3836	0	30456	
3837	0	30456	
3838	0	30448	
3839	0	30480	
3840	0	30540	
3841	0	30624	
3842	0	30672	
3843	0	30690	
3844	0	30696	
3845	0	30692	
3846	0	30680	
3847	0	30672	
3848	0	30672	
3849	0	30704	
3850	0	30808	
3851	0	30925	
3852	0	30986	
3853	0	31024	
3854	0	31036	
3855	0	31008	
3856	0	30896	
3857	0	30772	
3858	0	30724	
3859	0	30728	
3860	0	30716	
3861	0	30696	
3862	0	30644	
3863	0	30596	
3864	0	30666	
3865	0	30788	
3866	0	30920	
3867	0	31004	
3868	0	31008	
3869	0	31000	
3870	0	31034	
3871	0	31176	
3872	0	31376	
3873	0	31548	
3874	0	31696	
3875	0	31762	
3876	0	31848	
3877	0	31946	
3878	0	32032	
3879	0	32060	
3880	0	32044	
3881	0	32008	
3882	0	31970	
3883	0	31900	
3884	0	31840	
3885	0	31816	
3886	0	31778	
3887	0	31746	
3888	0	31804	
3889	0	31962	
3890	0	32160	
3891	0	32296	
3892	0	32408	
3893	0	32540	
3894	0	32644	
3895	0	32716	
3896	0	32776	
3897	0	32792	
3898	0	32712	
3899	0	32544	
3900	0	32384	
3901	0	32332	
3902	0	32344	
3903	0	32388	
3904	0	32540	
3905	0	32716	
3906	0	32836	
3907	0	32872	
3908	0	32900	
3909	0	32968	
3910	0	33156	
3911	0	33268	
3912	0	33264	
3913	0	33252	
3914	0	33292	
3915	0	33280	
3916	0	33280	
3917	0	33308	
3918	0	33296	
3919	0	33312	
3920	0	33360	
3921	0	33440	
3922	0	33592	
3923	0	33704	
3924	0	33644	
3925	0	33484	
3926	0	33452	
3927	0	33438	
3928	0	33440	
3929	0	33488	
3930	0	33568	
3931	0	33712	
3932	0	33888	
3933	0	34098	
3934	0	34268	
3935	0	34332	
3936	0	34408	
3937	0	34456	
3938	0	34352	
3939	0	34340	
3940	0	34436	
3941	0	34556	
3942	0	34624	
3943	0	34680	
3944	0	34760	
3945	0	34868	
3946	0	35004	
3947	0	35116	
3948	0	35208	
3949	0	35228	
3950	0	35184	
3951	0	35148	
3952	0	35092	
3953	0	35120	
3954	0	35266	
3955	0	35272	
3956	0	35312	
3957	0	35460	
3958	0	35644	
3959	0	35806	
3960	0	35936	
3961	0	36036	
3962	0	36068	
3963	0	36008	
3964	0	35904	
3965	0	35848	
3966	0	35816	
3967	0	35760	
3968	0	35752	
3969	0	35880	
3970	0	36084	
3971	0	36320	
3972	0	36508	
3973	0	36650	
3974	0	36732	
3975	0	36728	
3976	0	36604	
3977	0	36440	
3978	0	36362	
3979	0	36320	
3980	0	36320	
3981	0	36328	
3982	0	36356	
3983	0	36440	
3984	0	36568	
3985	0	36692	
3986	0	36848	
3987	0	36944	
3988	0	36992	
3989	0	37016	
3990	0	36944	
3991	0	36880	
3992	0	36824	
3993	0	36756	
3994	0	36668	
3995	0	36496	
3996	0	36372	
3997	0	36332	
3998	0	36424	
3999	0	36636	
4000	0	36808	
4001	0	36920	
4002	0	37026	
4003	0	37136	
4004	0	37192	
4005	0	37216	
4006	0	37208	
4007	0	37162	
4008	0	37088	
4009	0	36960	
4010	0	36888	
4011	0	36802	
4012	0	36744	
4013	0	36720	
4014	0	36748	
4015	0	36816	
4016	0	36832	
4017	0	36752	
4018	0	36696	
4019	0	36600	
4020	0	36492	
4021	0	36344	
4022	0	36172	
4023	0	36080	
4024	0	36092	
4025	0	36104	
4026	0	36088	
4027	0	36000	
4028	0	35968	
4029	0	35984	
4030	0	36048	
4031	0	36072	
4032	0	35976	
4033	0	35752	
4034	0	35540	
4035	0	35348	
4036	0	35156	
4037	0	35028	
4038	0	34896	
4039	0	34692	
4040	0	34390	
4041	0	34112	
4042	0	33968	
4043	0	33912	
4044	0	33856	
4045	0	33732	
4046	0	33684	
4047	0	33620	
4048	0	33504	
4049	0	33326	
4050	0	33160	
4051	0	32972	
4052	0	32688	
4053	0	32400	
4054	0	32084	
4055	0	31856	
4056	0	31768	
4057	0	31688	
4058	0	31492	
4059	0	31236	
4060	0	31024	
4061	0	30884	
4062	0	30848	
4063	0	30862	
4064	0	30862	
4065	0	30904	
4066	0	30880	
4067	0	30844	
4068	0	30753	
4069	0	30504	
4070	0	30236	
4071	0	30020	
4072	0	29868	
4073	0	29732	
4074	0	29540	
4075	0	29444	
4076	0	29416	
4077	0	29464	
4078	0	29512	
4079	0	29484	
4080	0	29408	
4081	0	29360	
4082	0	29398	
4083	0	29456	
4084	0	29496	
4085	0	29538	
4086	0	29556	
4087	0	29480	
4088	0	29448	
4089	0	29412	
4090	0	29280	
4091	0	29096	
4092	0	28978	
4093	0	28996	
4094	0	29056	
4095	0	29046	
4096	0	29044	
4097	0	29110	
4098	0	29166	
4099	0	29232	
4100	0	29336	
4101	0	29436	
4102	0	29456	
4103	0	29336	
4104	0	29216	
4105	0	29166	
4106	0	29144	
4107	0	29112	
4108	0	29100	
4109	0	29056	
4110	0	29006	
4111	0	29048	
4112	0	29112	
4113	0	29272	
4114	0	29436	
4115	0	29468	
4116	0	29358	
4117	0	29280	
4118	0	29264	
4119	0	29272	
4120	0	29260	
4121	0	29313	
4122	0	29432	
4123	0	29552	
4124	0	29688	
4125	0	29812	
4126	0	29864	
4127	0	29932	
4128	0	29956	
4129	0	29900	
4130	0	29818	
4131	0	29740	
4132	0	29720	
4133	0	29728	
4134	0	29776	
4135	0	29852	
4136	0	29928	
4137	0	30004	
4138	0	30092	
4139	0	30160	
4140	0	30016	
4141	0	29864	
4142	0	29876	
4143	0	29992	
4144	0	30108	
4145	0	30228	
4146	0	30396	
4147	0	30624	
4148	0	30804	
4149	0	30880	
4150	0	30902	
4151	0	30920	
4152	0	30916	
4153	0	30856	
4154	0	30788	
4155	0	30740	
4156	0	30636	
4157	0	30576	
4158	0	30540	
4159	0	30530	
4160	0	30544	
4161	0	30632	
4162	0	30768	
4163	0	30904	
4164	0	31032	
4165	0	31072	
4166	0	31032	
4167	0	30976	
4168	0	30952	
4169	0	30896	
4170	0	30890	
4171	0	31064	
4172	0	31248	
4173	0	31328	
4174	0	31348	
4175	0	31464	
4176	0	31640	
4177	0	31780	
4178	0	31860	
4179	0	31840	
4180	0	31692	
4181	0	31536	
4182	0	31472	
4183	0	31424	
4184	0	31360	
4185	0	31296	
4186	0	31300	
4187	0	31280	
4188	0	31288	
4189	0	31306	
4190	0	31480	
4191	0	31788	
4192	0	32004	
4193	0	32044	
4194	0	31916	
4195	0	31760	
4196	0	31680	
4197	0	31600	
4198	0	31484	
4199	0	31372	
4200	0	31324	
4201	0	31296	
4202	0	31354	
4203	0	31464	
4204	0	31440	
4205	0	31432	
4206	0	31548	
4207	0	31740	
4208	0	31842	
4209	0	31842	
4210	0	31740	
4211	0	31636	
4212	0	31492	
4213	0	31416	
4214	0	31456	
4215	0	31448	
4216	0	31450	
4217	0	31518	
4218	0	31596	
4219	0	31616	
4220	0	31728	
4221	0	31892	
4222	0	31980	
4223	0	31984	
4224	0	31872	
4225	0	31780	
4226	0	31692	
4227	0	31632	
4228	0	31556	
4229	0	31508	
4230	0	31464	
4231	0	31484	
4232	0	31504	
4233	0	31512	
4234	0	31552	
4235	0	31596	
4236	0	31584	
4237	0	31566	
4238	0	31532	
4239	0	31496	
4240	0	31456	
4241	0	31440	
4242	0	31468	
4243	0	31552	
4244	0	31604	
4245	0	31584	
4246	0	31564	
4247	0	31564	
4248	0	31592	
4249	0	31672	
4250	0	31736	
4251	0	31818	
4252	0	31936	
4253	0	32008	
4254	0	32040	
4255	0	31940	
4256	0	31844	
4257	0	31802	
4258	0	31794	
4259	0	31736	
4260	0	31628	
4261	0	31552	
4262	0	31468	
4263	0	31404	
4264	0	31384	
4265	0	31396	
4266	0	31412	
4267	0	31430	
4268	0	31460	
4269	0	31500	
4270	0	31504	
4271	0	31544	
4272	0	31572	
4273	0	31572	
4274	0	31552	
4275	0	31524	
4276	0	31508	
4277	0	31492	
4278	0	31428	
4279	0	31488	
4280	0	31588	
4281	0	31618	
4282	0	31620	
4283	0	31578	
4284	0	31520	
4285	0	31556	
4286	0	31724	
4287	0	31792	
4288	0	31772	
4289	0	31736	
4290	0	31740	
4291	0	31712	
4292	0	31692	
4293	0	31660	
4294	0	31616	
4295	0	31552	
4296	0	31440	
4297	0	31392	
4298	0	31476	
4299	0	31566	
4300	0	31588	
4301	0	31637	
4302	0	31692	
4303	0	31716	
4304	0	31776	
4305	0	31816	
4306	0	31820	
4307	0	31796	
4308	0	31836	
4309	0	31880	
4310	0	31896	
4311	0	31880	
4312	0	31848	
4313	0	31852	
4314	0	31856	
4315	0	31840	
4316	0	31848	
4317	0	31916	
4318	0	31924	
4319	0	31944	
4320	0	31956	
4321	0	31940	
4322	0	31988	
4323	0	32028	
4324	0	32040	
4325	0	32020	
4326	0	31928	
4327	0	31808	
4328	0	31776	
4329	0	31716	
4330	0	31608	
4331	0	31556	
4332	0	31568	
4333	0	31584	
4334	0	31700	
4335	0	31844	
4336	0	31920	
4337	0	31960	
4338	0	32024	
4339	0	32068	
4340	0	32080	
4341	0	32088	
4342	0	32196	
4343	0	32360	
4344	0	32464	
4345	0	32512	
4346	0	32560	
4347	0	32656	
4348	0	32708	
4349	0	32760	
4350	0	32832	
4351	0	32880	
4352	0	32912	
4353	0	32944	
4354	0	32948	
4355	0	32946	
4356	0	32892	
4357	0	32832	
4358	0	32860	
4359	0	32884	
4360	0	32922	
4361	0	33020	
4362	0	33152	
4363	0	33268	
4364	0	33376	
4365	0	33388	
4366	0	33284	
4367	0	33132	
4368	0	33132	
4369	0	33228	
4370	0	33348	
4371	0	33540	
4372	0	33928	
4373	0	34300	
4374	0	34632	
4375	0	34940	
4376	0	35152	
4377	0	35340	
4378	0	35396	
4379	0	35392	
4380	0	35306	
4381	0	35240	
4382	0	35256	
4383	0	35200	
4384	0	35064	
4385	0	34996	
4386	0	34956	
4387	0	34736	
4388	0	34462	
4389	0	34218	
4390	0	33992	
4391	0	33852	
4392	0	33752	
4393	0	33576	
4394	0	33456	
4395	0	33360	
4396	0	33260	
4397	0	33244	
4398	0	33264	
4399	0	33352	
4400	0	33432	
4401	0	33440	
4402	0	33260	
4403	0	32992	
4404	0	32876	
4405	0	32828	
4406	0	32752	
4407	0	32616	
4408	0	32524	
4409	0	32546	
4410	0	32524	
4411	0	32468	
4412	0	32394	
4413	0	32276	
4414	0	32148	
4415	0	32028	
4416	0	31928	
4417	0	31812	
4418	0	31744	
4419	0	31668	
4420	0	31516	
4421	0	31336	
4422	0	31284	
4423	0	31244	
4424	0	31220	
4425	0	31288	
4426	0	31384	
4427	0	31576	
4428	0	31784	
4429	0	31860	
4430	0	31818	
4431	0	31690	
4432	0	31492	
4433	0	31290	
4434	0	31076	
4435	0	30912	
4436	0	30872	
4437	0	30956	
4438	0	31026	
4439	0	31038	
4440	0	31140	
4441	0	31308	
4442	0	31480	
4443	0	31640	
4444	0	31770	
4445	0	31836	
4446	0	31840	
4447	0	31828	
4448	0	31832	
4449	0	31876	
4450	0	31936	
4451	0	32028	
4452	0	32028	
4453	0	31940	
4454	0	31844	
4455	0	31810	
4456	0	31744	
4457	0	31728	
4458	0	31690	
4459	0	31602	
4460	0	31364	
4461	0	31016	
4462	0	30616	
4463	0	30144	
4464	0	29712	
4465	0	29440	
4466	0	29304	
4467	0	29244	
4468	0	29248	
4469	0	29428	
4470	0	29872	
4471	0	30488	
4472	0	31280	
4473	0	32174	
4474	0	33132	
4475	0	34176	
4476	0	35464	
4477	0	36952	
4478	0	38784	
4479	0	41108	
4480	0	43960	
4481	0	47304	
4482	0	50776	
4483	0	54216	
4484	0	57632	
4485	0	60832	
4486	0	62872	
4487	0	63936	
4488	0	64464	
4489	0	64692	
4490	0	64772	
4491	0	64712	
4492	0	64648	
4493	0	64560	
4494	0	63204	
4495	0	57124	
4496	0	50948	
4497	0	45124	
4498	0	40352	
4499	0	36816	
4500	0	34232	
4501	0	32372	
4502	0	30996	
4503	0	29900	
4504	0	29104	
4505	0	28488	
4506	0	27880	
4507	0	27256	
4508	0	26692	
4509	0	26204	
4510	0	25796	
4511	0	25588	
4512	0	25460	
4513	0	25368	
4514	0	25333	
4515	0	25380	
4516	0	25425	
4517	0	25636	
4518	0	25928	
4519	0	26252	
4520	0	26652	
4521	0	27094	
4522	0	27490	
4523	0	27896	
4524	0	28248	
4525	0	28572	
4526	0	28848	
4527	0	29100	
4528	0	29316	
4529	0	29492	
4530	0	29640	
4531	0	29784	
4532	0	29920	
4533	0	30056	
4534	0	30176	
4535	0	30284	
4536	0	30304	
4537	0	30340	
4538	0	30388	
4539	0	30408	
4540	0	30388	
4541	0	30344	
4542	0	30300	
4543	0	30248	
4544	0	30204	
4545	0	30124	
4546	0	30092	
4547	0	30076	
4548	0	30108	
4549	0	30148	
4550	0	30172	
4551	0	30160	
4552	0	30184	
4553	0	30216	
4554	0	30292	
4555	0	30404	
4556	0	30506	
4557	0	30640	
4558	0	30764	
4559	0	30808	
4560	0	30860	
4561	0	30976	
4562	0	31040	
4563	0	31132	
4564	0	31108	
4565	0	30968	
4566	0	30838	
4567	0	30704	
4568	0	30634	
4569	0	30672	
4570	0	30754	
4571	0	30868	
4572	0	31048	
4573	0	31168	
4574	0	31196	
4575	0	31228	
4576	0	31328	
4577	0	31496	
4578	0	31616	
4579	0	31612	
4580	0	31452	
4581	0	31288	
4582	0	31244	
4583	0	31256	
4584	0	31344	
4585	0	31500	
4586	0	31528	
4587	0	31468	
4588	0	31520	
4589	0	31656	
4590	0	31744	
4591	0	31808	
4592	0	31880	
4593	0	31936	
4594	0	32076	
4595	0	32172	
4596	0	32276	
4597	0	32428	
4598	0	32520	
4599	0	32576	
4600	0	32576	
4601	0	32544	
4602	0	32500	
4603	0	32520	
4604	0	32568	
4605	0	32602	
4606	0	32550	
4607	0	32484	
4608	0	32512	
4609	0	32568	
4610	0	32594	
4611	0	32568	
4612	0	32616	
4613	0	32680	
4614	0	32756	
4615	0	32848	
4616	0	32960	
4617	0	33076	
4618	0	33180	
4619	0	33276	
4620	0	33372	
4621	0	33436	
4622	0	33436	
4623	0	33416	
4624	0	33408	
4625	0	33396	
4626	0	33408	
4627	0	33432	
4628	0	33436	
4629	0	33496	
4630	0	33536	
4631	0	33548	
4632	0	33532	
4633	0	33540	
4634	0	33584	
4635	0	33684	
4636	0	33762	
4637	0	33824	
4638	0	33932	
4639	0	34024	
4640	0	34088	
4641	0	34216	
4642	0	34310	
4643	0	34404	
4644	0	34512	
4645	0	34612	
4646	0	34700	
4647	0	34752	
4648	0	34732	
4649	0	34764	
4650	0	34840	
4651	0	34900	
4652	0	34974	
4653	0	35100	
4654	0	35168	
4655	0	35248	
4656	0	35272	
4657	0	35316	
4658	0	35412	
4659	0	35484	
4660	0	35528	
4661	0	35540	
4662	0	35562	
4663	0	35548	
4664	0	35552	
4665	0	35536	
4666	0	35628	
4667	0	35736	
4668	0	35816	
4669	0	35932	
4670	0	36060	
4671	0	36144	
4672	0	36204	
4673	0	36276	
4674	0	36444	
4675	0	36528	
4676	0	36524	
4677	0	36480	
4678	0	36440	
4679	0	36408	
4680	0	36380	
4681	0	36420	
4682	0	36564	
4683	0	36692	
4684	0	36768	
4685	0	36912	
4686	0	37050	
4687	0	37132	
4688	0	37188	
4689	0	37196	
4690	0	37176	
4691	0	37160	
4692	0	37160	
4693	0	37086	
4694	0	37076	
4695	0	37136	
4696	0	37168	
4697	0	37128	
4698	0	37124	
4699	0	37164	
4700	0	37188	
4701	0	37192	
4702	0	37192	
4703	0	37180	
4704	0	37204	
4705	0	37156	
4706	0	37104	
4707	0	37088	
4708	0	37112	
4709	0	37100	
4710	0	37084	
4711	0	37064	
4712	0	37032	
4713	0	36996	
4714	0	36924	
4715	0	36864	
4716	0	36848	
4717	0	36812	
4718	0	36800	
4719	0	36784	
4720	0	36716	
4721	0	36672	
4722	0	36660	
4723	0	36624	
4724	0	36548	
4725	0	36456	
4726	0	36396	
4727	0	36400	
4728	0	36364	
4729	0	36292	
4730	0	36196	
4731	0	36084	
4732	0	35956	
4733	0	35816	
4734	0	35692	
4735	0	35524	
4736	0	35372	
4737	0	35192	
4738	0	35028	
4739	0	34912	
4740	0	34772	
4741	0	34624	
4742	0	34492	
4743	0	34350	
4744	0	34164	
4745	0	33968	
4746	0	33780	
4747	0	33588	
4748	0	33404	
4749	0	33236	
4750	0	33028	
4751	0	32864	
4752	0	32680	
4753	0	32474	
4754	0	32268	
4755	0	32072	
4756	0	31904	
4757	0	31736	
4758	0	31586	
4759	0	31440	
4760	0	31276	
4761	0	31132	
4762	0	31004	
4763	0	30884	
4764	0	30696	
4765	0	30540	
4766	0	30444	
4767	0	30356	
4768	0	30248	
4769	0	30148	
4770	0	30048	
4771	0	29968	
4772	0	29900	
4773	0	29812	
4774	0	29712	
4775	0	29616	
4776	0	29552	
4777	0	29552	
4778	0	29484	
4779	0	29396	
4780	0	29320	
4781	0	29242	
4782	0	29188	
4783	0	29120	
4784	0	29072	
4785	0	29060	
4786	0	29000	
4787	0	28954	
4788	0	28968	
4789	0	29012	
4790	0	29068	
4791	0	29092	
4792	0	29028	
4793	0	28960	
4794	0	28920	
4795	0	28808	
4796	0	28708	
4797	0	28648	
4798	0	28554	
4799	0	28484	
4800	0	28536	
4801	0	28652	
4802	0	28754	
4803	0	28764	
4804	0	28760	
4805	0	28780	
4806	0	28860	
4807	0	28896	
4808	0	28872	
4809	0	28928	
4810	0	29012	
4811	0	29060	
4812	0	29032	
4813	0	29014	
4814	0	29120	
4815	0	29192	
4816	0	29162	
4817	0	29188	
4818	0	29212	
4819	0	29208	
4820	0	29208	
4821	0	29236	
4822	0	29296	
4823	0	29348	
4824	0	29360	
4825	0	29356	
4826	0	29390	
4827	0	29416	
4828	0	29452	
4829	0	29488	
4830	0	29452	
4831	0	29504	
4832	0	29528	
4833	0	29528	
4834	0	29520	
4835	0	29592	
4836	0	29688	
4837	0	29768	
4838	0	29805	
4839	0	29864	
4840	0	29936	
4841	0	30004	
4842	0	30132	
4843	0	30200	
4844	0	30232	
4845	0	30264	
4846	0	30264	
4847	0	30272	
4848	0	30304	
4849	0	30388	
4850	0	30444	
4851	0	30496	
4852	0	30552	
4853	0	30540	
4854	0	30530	
4855	0	30540	
4856	0	30556	
4857	0	30546	
4858	0	30554	
4859	0	30556	
4860	0	30572	
4861	0	30620	
4862	0	30672	
4863	0	30724	
4864	0	30756	
4865	0	30764	
4866	0	30794	
4867	0	30798	
4868	0	30786	
4869	0	30832	
4870	0	30876	
4871	0	30936	
4872	0	30934	
4873	0	30892	
4874	0	30892	
4875	0	30912	
4876	0	30964	
4877	0	30960	
4878	0	30896	
4879	0	30880	
4880	0	30928	
4881	0	31000	
4882	0	31076	
4883	0	31180	
4884	0	31248	
4885	0	31264	
4886	0	31288	
4887	0	31344	
4888	0	31412	
4889	0	31472	
4890	0	31464	
4891	0	31408	
4892	0	31332	
4893	0	31316	
4894	0	31328	
4895	0	31308	
4896	0	31296	
4897	0	31300	
4898	0	31372	
4899	0	31456	
4900	0	31504	
4901	0	31536	
4902	0	31596	
4903	0	31604	
4904	0	31560	
4905	0	31554	
4906	0	31596	
4907	0	31636	
4908	0	31668	
4909	0	31664	
4910	0	31648	
4911	0	31616	
4912	0	31588	
4913	0	31584	
4914	0	31588	
4915	0	31588	
4916	0	31616	
4917	0	31592	
4918	0	31604	
4919	0	31672	
4920	0	31734	
4921	0	31680	
4922	0	31636	
4923	0	31620	
4924	0	31542	
4925	0	31424	
4926	0	31312	
4927	0	31264	
4928	0	31312	
4929	0	31348	
4930	0	31424	
4931	0	31496	
4932	0	31522	
4933	0	31584	
4934	0	31600	
4935	0	31596	
4936	0	31596	
4937	0	31572	
4938	0	31576	
4939	0	31560	
4940	0	31560	
4941	0	31568	
4942	0	31592	
4943	0	31580	
4944	0	31576	
4945	0	31556	
4946	0	31568	
4947	0	31600	
4948	0	31588	
4949	0	31596	
4950	0	31604	
4951	0	31624	
4952	0	31656	
4953	0	31704	
4954	0	31768	
4955	0	31724	
4956	0	31624	
4957	0	31544	
4958	0	31552	
4959	0	31564	
4960	0	31532	
4961	0	31512	
4962	0	31552	
4963	0	31608	
4964	0	31660	
4965	0	31724	
4966	0	31708	
4967	0	31628	
4968	0	31572	
4969	0	31544	
4970	0	31554	
4971	0	31576	
4972	0	31560	
4973	0	31536	
4974	0	31524	
4975	0	31472	
4976	0	31476	
4977	0	31474	
4978	0	31476	
4979	0	31536	
4980	0	31578	
4981	0	31592	
4982	0	31564	
4983	0	31546	
4984	0	31588	
4985	0	31636	
4986	0	31684	
4987	0	31724	
4988	0	31704	
4989	0	31684	
4990	0	31720	
4991	0	31760	
4992	0	31800	
4993	0	31792	
4994	0	31724	
4995	0	31642	
4996	0	31616	
4997	0	31612	
4998	0	31628	
4999	0	31636	
5000	0	31644	
5001	0	31676	
5002	0	31752	
5003	0	31808	
5004	0	31840	
5005	0	31902	
5006	0	31930	
5007	0	31928	
5008	0	31912	
5009	0	31924	
5010	0	31960	
5011	0	32048	
5012	0	32080	
5013	0	32060	
5014	0	32016	
5015	0	31960	
5016	0	31912	
5017	0	31884	
5018	0	31920	
5019	0	31952	
5020	0	31972	
5021	0	31972	
5022	0	31940	
5023	0	31980	
5024	0	31984	
5025	0	31960	
5026	0	31984	
5027	0	31972	
5028	0	31984	
5029	0	32000	
5030	0	32064	
5031	0	32112	
5032	0	32112	
5033	0	32144	
5034	0	32164	
5035	0	32160	
5036	0	32144	
5037	0	32148	
5038	0	32108	
5039	0	32080	
5040	0	32030	
5041	0	32044	
5042	0	32096	
5043	0	32132	
5044	0	32124	
5045	0	32124	
5046	0	32150	
5047	0	32184	
5048	0	32192	
5049	0	32200	
5050	0	32292	
5051	0	32332	
5052	0	32392	
5053	0	32456	
5054	0	32528	
5055	0	32596	
5056	0	32668	
5057	0	32724	
5058	0	32828	
5059	0	32900	
5060	0	32988	
5061	0	33144	
5062	0	33292	
5063	0	33392	
5064	0	33480	
5065	0	33536	
5066	0	33540	
5067	0	33504	
5068	0	33448	
5069	0	33368	
5070	0	33272	
5071	0	33176	
5072	0	33164	
5073	0	33236	
5074	0	33280	
5075	0	33256	
5076	0	33244	
5077	0	33232	
5078	0	33304	
5079	0	33432	
5080	0	33592	
5081	0	33796	
5082	0	34056	
5083	0	34298	
5084	0	34576	
5085	0	34784	
5086	0	34948	
5087	0	35136	
5088	0	35296	
5089	0	35428	
5090	0	35500	
5091	0	35452	
5092	0	35364	
5093	0	35264	
5094	0	35132	
5095	0	35012	
5096	0	34932	
5097	0	34892	
5098	0	34852	
5099	0	34764	
5100	0	34640	
5101	0	34504	
5102	0	34320	
5103	0	34178	
5104	0	34080	
5105	0	33968	
5106	0	33816	
5107	0	33620	
5108	0	33392	
5109	0	33194	
5110	0	33124	
5111	0	33096	
5112	0	33080	
5113	0	33052	
5114	0	33004	
5115	0	32940	
5116	0	32868	
5117	0	32792	
5118	0	32660	
5119	0	32476	
5120	0	32384	
5121	0	32356	
5122	0	32356	
5123	0	32284	
5124	0	32148	
5125	0	32052	
5126	0	31964	
5127	0	31842	
5128	0	31744	
5129	0	31626	
5130	0	31476	
5131	0	31396	
5132	0	31344	
5133	0	31308	
5134	0	31264	
5135	0	31240	
5136	0	31216	
5137	0	31194	
5138	0	31202	
5139	0	31240	
5140	0	31288	
5141	0	31340	
5142	0	31336	
5143	0	31304	
5144	0	31312	
5145	0	31284	
5146	0	31252	
5147	0	31220	
5148	0	31232	
5149	0	31260	
5150	0	31284	
5151	0	31330	
5152	0	31376	
5153	0	31384	
5154	0	31398	
5155	0	31432	
5156	0	31474	
5157	0	31536	
5158	0	31548	
5159	0	31594	
5160	0	31684	
5161	0	31734	
5162	0	31760	
5163	0	31776	
5164	0	31792	
5165	0	31824	
5166	0	31872	
5167	0	31868	
5168	0	31804	
5169	0	31760	
5170	0	31704	
5171	0	31604	
5172	0	31360	
5173	0	30996	
5174	0	30504	
5175	0	29844	
5176	0	29220	
5177	0	28788	
5178	0	28596	
5179	0	28576	
5180	0	28652	
5181	0	28928	
5182	0	29376	
5183	0	30104	
5184	0	30968	
5185	0	31896	
5186	0	33020	
5187	0	34400	
5188	0	36008	
5189	0	37784	
5190	0	39952	
5191	0	42436	
5192	0	45304	
5193	0	48764	
5194	0	52528	
5195	0	56200	
5196	0	59752	
5197	0	62400	
5198	0	63816	
5199	0	64516	
5200	0	64840	
5201	0	64972	
5202	0	64976	
5203	0	64916	
5204	0	64832	
5205	0	64712	
5206	0	64608	
5207	0	64484	
5208	0	59168	
5209	0	53236	
5210	0	48252	
5211	0	44168	
5212	0	40804	
5213	0	38128	
5214	0	35940	
5215	0	34040	
5216	0	32332	
5217	0	30776	
5218	0	29416	
5219	0	28396	
5220	0	27692	
5221	0	27180	
5222	0	26892	
5223	0	26672	
5224	0	26528	
5225	0	26502	
5226	0	26480	
5227	0	26432	
5228	0	26410	
5229	0	26476	
5230	0	26660	
5231	0	26924	
5232	0	27232	
5233	0	27540	
5234	0	27868	
5235	0	28168	
5236	0	28400	
5237	0	28584	
5238	0	28746	
5239	0	28890	
5240	0	29056	
5241	0	29164	
5242	0	29220	
5243	0	29248	
5244	0	29248	
5245	0	29252	
5246	0	29256	
5247	0	29264	
5248	0	29276	
5249	0	29280	
5250	0	29336	
5251	0	29380	
5252	0	29412	
5253	0	29404	
5254	0	29376	
5255	0	29428	
5256	0	29480	
5257	0	29500	
5258	0	29460	
5259	0	29452	
5260	0	29496	
5261	0	29528	
5262	0	29564	
5263	0	29596	
5264	0	29596	
5265	0	29640	
5266	0	29720	
5267	0	29776	
5268	0	29822	
5269	0	29872	
5270	0	29896	
5271	0	29944	
5272	0	30016	
5273	0	30068	
5274	0	30100	
5275	0	30106	
5276	0	30080	
5277	0	30116	
5278	0	30180	
5279	0	30252	
5280	0	30268	
5281	0	30218	
5282	0	30240	
5283	0	30288	
5284	0	30300	
5285	0	30312	
5286	0	30366	
5287	0	30408	
5288	0	30516	
5289	0	30620	
5290	0	30704	
5291	0	30790	
5292	0	30880	
5293	0	30914	
5294	0	30960	
5295	0	30976	
5296	0	31000	
5297	0	31024	
5298	0	31048	
5299	0	31092	
5300	0	31108	
5301	0	31138	
5302	0	31184	
5303	0	31266	
5304	0	31328	
5305	0	31372	
5306	0	31428	
5307	0	31476	
5308	0	31512	
5309	0	31580	
5310	0	31616	
5311	0	31652	
5312	0	31704	
5313	0	31748	
5314	0	31820	
5315	0	31840	
5316	0	31872	
5317	0	31872	
5318	0	31852	
5319	0	31888	
5320	0	31956	
5321	0	32044	
5322	0	32092	
5323	0	32120	
5324	0	32140	
5325	0	32164	
5326	0	32192	
5327	0	32232	
5328	0	32284	
5329	0	32320	
5330	0	32368	
5331	0	32472	
5332	0	32556	
5333	0	32612	
5334	0	32676	
5335	0	32714	
5336	0	32744	
5337	0	32752	
5338	0	32756	
5339	0	32792	
5340	0	32848	
5341	0	32916	
5342	0	32960	
5343	0	32948	
5344	0	32988	
5345	0	33096	
5346	0	33208	
5347	0	33240	
5348	0	33248	
5349	0	33260	
5350	0	33316	
5351	0	33408	
5352	0	33456	
5353	0	33488	
5354	0	33552	
5355	0	33648	
5356	0	33744	
5357	0	33840	
5358	0	33960	
5359	0	34068	
5360	0	34138	
5361	0	34204	
5362	0	34228	
5363	0	34272	
5364	0	34336	
5365	0	34424	
5366	0	34528	
5367	0	34600	
5368	0	34632	
5369	0	34672	
5370	0	34704	
5371	0	34740	
5372	0	34768	
5373	0	34804	
5374	0	34872	
5375	0	34964	
5376	0	35040	
5377	0	35092	
5378	0	35164	
5379	0	35232	
5380	0	35264	
5381	0	35308	
5382	0	35372	
5383	0	35436	
5384	0	35492	
5385	0	35568	
5386	0	35646	
5387	0	35744	
5388	0	35812	
5389	0	35872	
5390	0	35904	
5391	0	35940	
5392	0	36008	
5393	0	36064	
5394	0	36080	
5395	0	36104	
5396	0	36180	
5397	0	36264	
5398	0	36312	
5399	0	36372	
5400	0	36424	
5401	0	36448	
5402	0	36508	
5403	0	36548	
5404	0	36568	
5405	0	36580	
5406	0	36572	
5407	0	36584	
5408	0	36588	
5409	0	36584	
5410	0	36640	
5411	0	36688	
5412	0	36668	
5413	0	36632	
5414	0	36592	
5415	0	36576	
5416	0	36592	
5417	0	36624	
5418	0	36608	
5419	0	36636	
5420	0	36632	
5421	0	36616	
5422	0	36624	
5423	0	36592	
5424	0	36552	
5425	0	36516	
5426	0	36490	
5427	0	36496	
5428	0	36524	
5429	0	36512	
5430	0	36468	
5431	0	36412	
5432	0	36312	
5433	0	36224	
5434	0	36144	
5435	0	36112	
5436	0	36092	
5437	0	36064	
5438	0	36064	
5439	0	36044	
5440	0	36000	
5441	0	35948	
5442	0	35864	
5443	0	35802	
5444	0	35756	
5445	0	35648	
5446	0	35568	
5447	0	35488	
5448	0	35392	
5449	0	35228	
5450	0	35120	
5451	0	34992	
5452	0	34832	
5453	0	34632	
5454	0	34480	
5455	0	34356	
5456	0	34212	
5457	0	34060	
5458	0	33844	
5459	0	33608	
5460	0	33392	
5461	0	33212	
5462	0	33060	
5463	0	32944	
5464	0	32822	
5465	0	32688	
5466	0	32548	
5467	0	32432	
5468	0	32356	
5469	0	32256	
5470	0	32152	
5471	0	32032	
5472	0	31852	
5473	0	31644	
5474	0	31460	
5475	0	31310	
5476	0	31228	
5477	0	31112	
5478	0	30980	
5479	0	30876	
5480	0	30784	
5481	0	30688	
5482	0	30596	
5483	0	30444	
5484	0	30308	
5485	0	30240	
5486	0	30128	
5487	0	29988	
5488	0	29888	
5489	0	29834	
5490	0	29812	
5491	0	29768	
5492	0	29672	
5493	0	29572	
5494	0	29500	
5495	0	29420	
5496	0	29396	
5497	0	29402	
5498	0	29402	
5499	0	29402	
5500	0	29416	
5501	0	29408	
5502	0	29420	
5503	0	29440	
5504	0	29432	
5505	0	29396	
5506	0	29368	
5507	0	29348	
5508	0	29336	
5509	0	29332	
5510	0	29348	
5511	0	29368	
5512	0	29396	
5513	0	29420	
5514	0	29444	
5515	0	29456	
5516	0	29456	
5517	0	29432	
5518	0	29408	
5519	0	29452	
5520	0	29516	
5521	0	29568	
5522	0	29604	
5523	0	29604	
5524	0	29584	
5525	0	29584	
5526	0	29588	
5527	0	29610	
5528	0	29628	
5529	0	29632	
5530	0	29649	
5531	0	29698	
5532	0	29784	
5533	0	29840	
5534	0	29840	
5535	0	29848	
5536	0	29840	
5537	0	29848	
5538	0	29888	
5539	0	29922	
5540	0	29956	
5541	0	30000	
5542	0	30072	
5543	0	30116	
5544	0	30162	
5545	0	30268	
5546	0	30356	
5547	0	30420	
5548	0	30464	
5549	0	30484	
5550	0	30488	
5551	0	30512	
5552	0	30550	
5553	0	30560	
5554	0	30584	
5555	0	30668	
5556	0	30714	
5557	0	30736	
5558	0	30696	
5559	0	30656	
5560	0	30592	
5561	0	30540	
5562	0	30540	
5563	0	30584	
5564	0	30656	
5565	0	30736	
5566	0	30798	
5567	0	30796	
5568	0	30768	
5569	0	30788	
5570	0	30832	
5571	0	30892	
5572	0	30930	
5573	0	30976	
5574	0	31028	
5575	0	31056	
5576	0	31140	
5577	0	31188	
5578	0	31204	
5579	0	31220	
5580	0	31172	
5581	0	31172	
5582	0	31196	
5583	0	31192	
5584	0	31200	
5585	0	31240	
5586	0	31308	
5587	0	31380	
5588	0	31424	
5589	0	31384	
5590	0	31310	
5591	0	31248	
5592	0	31224	
5593	0	31228	
5594	0	31264	
5595	0	31324	
5596	0	31376	
5597	0	31424	
5598	0	31428	
5599	0	31444	
5600	0	31456	
5601	0	31460	
5602	0	31420	
5603	0	31396	
5604	0	31400	
5605	0	31440	
5606	0	31440	
5607	0	31436	
5608	0	31406	
5609	0	31408	
5610	0	31436	
5611	0	31456	
5612	0	31484	
5613	0	31496	
5614	0	31496	
5615	0	31524	
5616	0	31520	
5617	0	31520	
5618	0	31564	
5619	0	31550	
5620	0	31546	
5621	0	31544	
5622	0	31536	
5623	0	31496	
5624	0	31456	
5625	0	31460	
5626	0	31484	
5627	0	31536	
5628	0	31576	
5629	0	31600	
5630	0	31584	
5631	0	31552	
5632	0	31560	
5633	0	31580	
5634	0	31592	
5635	0	31556	
5636	0	31484	
5637	0	31464	
5638	0	31428	
5639	0	31408	
5640	0	31400	
5641	0	31432	
5642	0	31460	
5643	0	31464	
5644	0	31456	
5645	0	31508	
5646	0	31552	
5647	0	31572	
5648	0	31568	
5649	0	31584	
5650	0	31588	
5651	0	31600	
5652	0	31612	
5653	0	31636	
5654	0	31664	
5655	0	31688	
5656	0	31688	
5657	0	31672	
5658	0	31652	
5659	0	31592	
5660	0	31556	
5661	0	31592	
5662	0	31576	
5663	0	31546	
5664	0	31512	
5665	0	31520	
5666	0	31520	
5667	0	31540	
5668	0	31592	
5669	0	31626	
5670	0	31608	
5671	0	31564	
5672	0	31544	
5673	0	31592	
5674	0	31660	
5675	0	31668	
5676	0	31668	
5677	0	31680	
5678	0	31696	
5679	0	31718	
5680	0	31740	
5681	0	31768	
5682	0	31802	
5683	0	31812	
5684	0	31804	
5685	0	31784	
5686	0	31752	
5687	0	31736	
5688	0	31728	
5689	0	31732	
5690	0	31784	
5691	0	31856	
5692	0	31912	
5693	0	31904	
5694	0	31860	
5695	0	31818	
5696	0	31800	
5697	0	31808	
5698	0	31856	
5699	0	31876	
5700	0	31852	
5701	0	31880	
5702	0	31900	
5703	0	31908	
5704	0	31888	
5705	0	31876	
5706	0	31864	
5707	0	31864	
5708	0	31882	
5709	0	31948	
5710	0	31988	
5711	0	31992	
5712	0	32008	
5713	0	31976	
5714	0	31968	
5715	0	31952	
5716	0	31920	
5717	0	31924	
5718	0	31892	
5719	0	31804	
5720	0	31764	
5721	0	31748	
5722	0	31762	
5723	0	31832	
5724	0	31884	
5725	0	31888	
5726	0	31892	
5727	0	31908	
5728	0	31916	
5729	0	31892	
5730	0	31888	
5731	0	31904	
5732	0	31946	
5733	0	31960	
5734	0	31972	
5735	0	31994	
5736	0	32030	
5737	0	32064	
5738	0	32076	
5739	0	32080	
5740	0	32072	
5741	0	32044	
5742	0	31980	
5743	0	31944	
5744	0	31968	
5745	0	32000	
5746	0	32004	
5747	0	31994	
5748	0	32020	
5749	0	32036	
5750	0	32048	
5751	0	32048	
5752	0	32084	
5753	0	32084	
5754	0	32096	
5755	0	32090	
5756	0	32140	
5757	0	32164	
5758	0	32144	
5759	0	32152	
5760	0	32176	
5761	0	32176	
5762	0	32184	
5763	0	32228	
5764	0	32260	
5765	0	32216	
5766	0	32192	
5767	0	32212	
5768	0	32252	
5769	0	32264	
5770	0	32264	
5771	0	32228	
5772	0	32208	
5773	0	32194	
5774	0	32188	
5775	0	32204	
5776	0	32224	
5777	0	32268	
5778	0	32314	
5779	0	32372	
5780	0	32394	
5781	0	32436	
5782	0	32432	
5783	0	32420	
5784	0	32440	
5785	0	32516	
5786	0	32590	
5787	0	32688	
5788	0	32804	
5789	0	32908	
5790	0	32992	
5791	0	33078	
5792	0	33156	
5793	0	33244	
5794	0	33296	
5795	0	33326	
5796	0	33364	
5797	0	33408	
5798	0	33420	
5799	0	33424	
5800	0	33416	
5801	0	33424	
5802	0	33424	
5803	0	33424	
5804	0	33392	
5805	0	33396	
5806	0	33434	
5807	0	33432	
5808	0	33448	
5809	0	33452	
5810	0	33474	
5811	0	33568	
5812	0	33664	
5813	0	33828	
5814	0	34072	
5815	0	34344	
5816	0	34624	
5817	0	34800	
5818	0	34940	
5819	0	35068	
5820	0	35212	
5821	0	35328	
5822	0	35404	
5823	0	35360	
5824	0	35268	
5825	0	35176	
5826	0	35072	
5827	0	34954	
5828	0	34874	
5829	0	34840	
5830	0	34728	
5831	0	34544	
5832	0	34428	
5833	0	34344	
5834	0	34256	
5835	0	34172	
5836	0	34072	
5837	0	33940	
5838	0	33848	
5839	0	33752	
5840	0	33600	
5841	0	33436	
5842	0	33320	
5843	0	33280	
5844	0	33240	
5845	0	33156	
5846	0	33064	
5847	0	32948	
5848	0	32848	
5849	0	32770	
5850	0	32646	
5851	0	32514	
5852	0	32392	
5853	0	32320	
5854	0	32304	
5855	0	32260	
5856	0	32200	
5857	0	32060	
5858	0	31964	
5859	0	31876	
5860	0	31780	
5861	0	31664	
5862	0	31544	
5863	0	31452	
5864	0	31348	
5865	0	31296	
5866	0	31280	
5867	0	31266	
5868	0	31234	
5869	0	31200	
5870	0	31176	
5871	0	31172	
5872	0	31212	
5873	0	31232	
5874	0	31298	
5875	0	31320	
5876	0	31328	
5877	0	31320	
5878	0	31348	
5879	0	31380	
5880	0	31408	
5881	0	31424	
5882	0	31440	
5883	0	31496	
5884	0	31520	
5885	0	31576	
5886	0	31632	
5887	0	31642	
5888	0	31680	
5889	0	31684	
5890	0	31632	
5891	0	31504	
5892	0	31376	
5893	0	31328	
5894	0	31380	
5895	0	31452	
5896	0	31556	
5897	0	31628	
5898	0	31708	
5899	0	31730	
5900	0	31678	
5901	0	31660	
5902	0	31656	
5903	0	31556	
5904	0	31340	
5905	0	31028	
5906	0	30528	
5907	0	29864	
5908	0	29184	
5909	0	28664	
5910	0	28360	
5911	0	28296	
5912	0	28404	
5913	0	28704	
5914	0	29196	
5915	0	29888	
5916	0	30712	
5917	0	31704	
5918	0	32956	
5919	0	34432	
5920	0	36128	
5921	0	38120	
5922	0	40480	
5923	0	43176	
5924	0	46292	
5925	0	50008	
5926	0	53860	
5927	0	57496	
5928	0	60832	
5929	0	63040	
5930	0	64192	
5931	0	64764	
5932	0	65008	
5933	0	65080	
5934	0	65068	
5935	0	65008	
5936	0	64912	
5937	0	64784	
5938	0	64672	
5939	0	64536	
5940	0	59980	
5941	0	54200	
5942	0	49488	
5943	0	45612	
5944	0	42452	
5945	0	39872	
5946	0	37620	
5947	0	35560	
5948	0	33728	
5949	0	32222	
5950	0	31020	
5951	0	29952	
5952	0	29060	
5953	0	28370	
5954	0	27908	
5955	0	27548	
5956	0	27272	
5957	0	27184	
5958	0	27120	
5959	0	26948	
5960	0	26864	
5961	0	26874	
5962	0	26972	
5963	0	27188	
5964	0	27460	
5965	0	27776	
5966	0	28120	
5967	0	28418	
5968	0	28632	
5969	0	28824	
5970	0	28944	
5971	0	28988	
5972	0	29032	
5973	0	29004	
5974	0	28996	
5975	0	29010	
5976	0	29000	
5977	0	28964	
5978	0	28952	
5979	0	28940	
5980	0	28916	
5981	0	28904	
5982	0	28936	
5983	0	28984	
5984	0	29000	
5985	0	28984	
5986	0	28988	
5987	0	28984	
5988	0	29000	
5989	0	29026	
5990	0	29016	
5991	0	28984	
5992	0	29000	
5993	0	29064	
5994	0	29120	
5995	0	29160	
5996	0	29188	
5997	0	29268	
5998	0	29356	
5999	0	29388	
6000	0	29404	
6001	0	29376	
6002	0	29372	
6003	0	29408	
6004	0	29448	
6005	0	29480	
6006	0	29518	
6007	0	29624	
6008	0	29720	
6009	0	29812	
6010	0	29828	
6011	0	29780	
6012	0	29716	
6013	0	29728	
6014	0	29784	
6015	0	29848	
6016	0	29924	
6017	0	29968	
6018	0	30020	
6019	0	30084	
6020	0	30160	
6021	0	30220	
6022	0	30272	
6023	0	30344	
6024	0	30442	
6025	0	30492	
6026	0	30532	
6027	0	30588	
6028	0	30680	
6029	0	30796	
6030	0	30896	
6031	0	30980	
6032	0	31012	
6033	0	30988	
6034	0	30964	
6035	0	30960	
6036	0	30976	
6037	0	31008	
6038	0	31092	
6039	0	31140	
6040	0	31168	
6041	0	31180	
6042	0	31216	
6043	0	31248	
6044	0	31290	
6045	0	31364	
6046	0	31444	
6047	0	31520	
6048	0	31608	
6049	0	31648	
6050	0	31716	
6051	0	31784	
6052	0	31828	
6053	0	31840	
6054	0	31860	
6055	0	31856	
6056	0	31860	
6057	0	31916	
6058	0	32008	
6059	0	32080	
6060	0	32168	
6061	0	32224	
6062	0	32264	
6063	0	32276	
6064	0	32280	
6065	0	32284	
6066	0	32344	
6067	0	32432	
6068	0	32520	
6069	0	32568	
6070	0	32592	
6071	0	32628	
6072	0	32666	
6073	0	32752	
6074	0	32800	
6075	0	32848	
6076	0	32904	
6077	0	32948	
6078	0	32988	
6079	0	33052	
6080	0	33080	
6081	0	33144	
6082	0	33176	
6083	0	33276	
6084	0	33368	
6085	0	33452	
6086	0	33480	
6087	0	33538	
6088	0	33526	
6089	0	33512	
6090	0	33524	
6091	0	33560	
6092	0	33624	
6093	0	33696	
6094	0	33804	
6095	0	33900	
6096	0	34000	
6097	0	34064	
6098	0	34104	
6099	0	34156	
6100	0	34240	
6101	0	34320	
6102	0	34364	
6103	0	34440	
6104	0	34500	
6105	0	34568	
6106	0	34648	
6107	0	34736	
6108	0	34812	
6109	0	34892	
6110	0	34960	
6111	0	34992	
6112	0	35008	
6113	0	35082	
6114	0	35152	
6115	0	35252	
6116	0	35360	
6117	0	35420	
6118	0	35488	
6119	0	35572	
6120	0	35652	
6121	0	35668	
6122	0	35668	
6123	0	35664	
6124	0	35714	
6125	0	35824	
6126	0	35974	
6127	0	36032	
6128	0	36092	
6129	0	36116	
6130	0	36170	
6131	0	36204	
6132	0	36272	
6133	0	36304	
6134	0	36296	
6135	0	36316	
6136	0	36344	
6137	0	36408	
6138	0	36440	
6139	0	36492	
6140	0	36546	
6141	0	36576	
6142	0	36592	
6143	0	36614	
6144	0	36608	
6145	0	36588	
6146	0	36584	
6147	0	36608	
6148	0	36604	
6149	0	36616	
6150	0	36620	
6151	0	36600	
6152	0	36612	
6153	0	36632	
6154	0	36636	
6155	0	36584	
6156	0	36528	
6157	0	36534	
6158	0	36528	
6159	0	36544	
6160	0	36544	
6161	0	36536	
6162	0	36524	
6163	0	36508	
6164	0	36516	
6165	0	36556	
6166	0	36524	
6167	0	36412	
6168	0	36296	
6169	0	36176	
6170	0	36032	
6171	0	35928	
6172	0	35872	
6173	0	35832	
6174	0	35824	
6175	0	35800	
6176	0	35784	
6177	0	35728	
6178	0	35656	
6179	0	35584	
6180	0	35500	
6181	0	35388	
6182	0	35264	
6183	0	35166	
6184	0	35040	
6185	0	34940	
6186	0	34792	
6187	0	34626	
6188	0	34412	
6189	0	34216	
6190	0	34040	
6191	0	33864	
6192	0	33684	
6193	0	33464	
6194	0	33296	
6195	0	33080	
6196	0	32848	
6197	0	32660	
6198	0	32468	
6199	0	32308	
6200	0	32136	
6201	0	31944	
6202	0	31772	
6203	0	31648	
6204	0	31536	
6205	0	31424	
6206	0	31328	
6207	0	31202	
6208	0	31064	
6209	0	30924	
6210	0	30784	
6211	0	30696	
6212	0	30664	
6213	0	30592	
6214	0	30520	
6215	0	30432	
6216	0	30344	
6217	0	30224	
6218	0	30098	
6219	0	30012	
6220	0	29872	
6221	0	29752	
6222	0	29652	
6223	0	29552	
6224	0	29452	
6225	0	29396	
6226	0	29364	
6227	0	29332	
6228	0	29308	
6229	0	29292	
6230	0	29252	
6231	0	29256	
6232	0	29224	
6233	0	29170	
6234	0	29124	
6235	0	29132	
6236	0	29148	
6237	0	29150	
6238	0	29148	
6239	0	29196	
6240	0	29208	
6241	0	29228	
6242	0	29216	
6243	0	29224	
6244	0	29256	
6245	0	29308	
6246	0	29316	
6247	0	29282	
6248	0	29288	
6249	0	29306	
6250	0	29280	
6251	0	29220	
6252	0	29176	
6253	0	29136	
6254	0	29116	
6255	0	29136	
6256	0	29212	
6257	0	29280	
6258	0	29364	
6259	0	29446	
6260	0	29488	
6261	0	29504	
6262	0	29546	
6263	0	29620	
6264	0	29692	
6265	0	29724	
6266	0	29770	
6267	0	29840	
6268	0	29888	
6269	0	29896	
6270	0	29888	
6271	0	29920	
6272	0	29956	
6273	0	29954	
6274	0	29968	
6275	0	29972	
6276	0	29972	
6277	0	30000	
6278	0	30084	
6279	0	30156	
6280	0	30224	
6281	0	30264	
6282	0	30264	
6283	0	30308	
6284	0	30324	
6285	0	30340	
6286	0	30404	
6287	0	30464	
6288	0	30528	
6289	0	30560	
6290	0	30528	
6291	0	30532	
6292	0	30596	
6293	0	30656	
6294	0	30668	
6295	0	30688	
6296	0	30696	
6297	0	30700	
6298	0	30712	
6299	0	30760	
6300	0	30800	
6301	0	30844	
6302	0	30906	
6303	0	30956	
6304	0	31016	
6305	0	31020	
6306	0	31000	
6307	0	31016	
6308	0	31048	
6309	0	31090	
6310	0	31132	
6311	0	31120	
6312	0	31116	
6313	0	31164	
6314	0	31184	
6315	0	31180	
6316	0	31176	
6317	0	31164	
6318	0	31164	
6319	0	31152	
6320	0	31208	
6321	0	31272	
6322	0	31304	
6323	0	31328	
6324	0	31360	
6325	0	31400	
6326	0	31440	
6327	0	31420	
6328	0	31408	
6329	0	31400	
6330	0	31440	
6331	0	31480	
6332	0	31492	
6333	0	31534	
6334	0	31588	
6335	0	31618	
6336	0	31620	
6337	0	31624	
6338	0	31632	
6339	0	31652	
6340	0	31664	
6341	0	31636	
6342	0	31608	
6343	0	31552	
6344	0	31528	
6345	0	31536	
6346	0	31530	
6347	0	31540	
6348	0	31520	
6349	0	31540	
6350	0	31548	
6351	0	31576	
6352	0	31596	
6353	0	31592	
6354	0	31600	
6355	0	31628	
6356	0	31684	
6357	0	31760	
6358	0	31800	
6359	0	31800	
6360	0	31744	
6361	0	31712	
6362	0	31678	
6363	0	31664	
6364	0	31674	
6365	0	31668	
6366	0	31704	
6367	0	31752	
6368	0	31772	
6369	0	31770	
6370	0	31784	
6371	0	31812	
6372	0	31840	
6373	0	31824	
6374	0	31828	
6375	0	31836	
6376	0	31802	
6377	0	31788	
6378	0	31788	
6379	0	31824	
6380	0	31842	
6381	0	31840	
6382	0	31812	
6383	0	31808	
6384	0	31792	
6385	0	31788	
6386	0	31744	
6387	0	31696	
6388	0	31692	
6389	0	31696	
6390	0	31688	
6391	0	31672	
6392	0	31664	
6393	0	31680	
6394	0	31720	
6395	0	31720	
6396	0	31704	
6397	0	31728	
6398	0	31768	
6399	0	31760	
6400	0	31772	
6401	0	31804	
6402	0	31876	
6403	0	31968	
6404	0	31944	
6405	0	31852	
6406	0	31832	
6407	0	31808	
6408	0	31824	
6409	0	31804	
6410	0	31776	
6411	0	31772	
6412	0	31744	
6413	0	31768	
6414	0	31808	
6415	0	31840	
6416	0	31824	
6417	0	31776	
6418	0	31780	
6419	0	31792	
6420	0	31788	
6421	0	31860	
6422	0	31936	
6423	0	31968	
6424	0	31932	
6425	0	31872	
6426	0	31808	
6427	0	31772	
6428	0	31720	
6429	0	31688	
6430	0	31672	
6431	0	31672	
6432	0	31688	
6433	0	31736	
6434	0	31816	
6435	0	31824	
6436	0	31816	
6437	0	31824	
6438	0	31824	
6439	0	31868	
6440	0	31924	
6441	0	31960	
6442	0	32012	
6443	0	32016	
6444	0	31992	
6445	0	32016	
6446	0	31992	
6447	0	31956	
6448	0	31932	
6449	0	31936	
6450	0	31920	
6451	0	31896	
6452	0	31908	
6453	0	31948	
6454	0	31968	
6455	0	31944	
6456	0	31960	
6457	0	31968	
6458	0	31996	
6459	0	32032	
6460	0	32080	
6461	0	32104	
6462	0	32120	
6463	0	32120	
6464	0	32076	
6465	0	32048	
6466	0	32028	
6467	0	32024	
6468	0	32016	
6469	0	32028	
6470	0	32048	
6471	0	32096	
6472	0	32176	
6473	0	32196	
6474	0	32146	
6475	0	32108	
6476	0	32136	
6477	0	32170	
6478	0	32168	
6479	0	32128	
6480	0	32080	
6481	0	32048	
6482	0	32024	
6483	0	32044	
6484	0	32088	
6485	0	32124	
6486	0	32156	
6487	0	32240	
6488	0	32332	
6489	0	32392	
6490	0	32360	
6491	0	32288	
6492	0	32264	
6493	0	32226	
6494	0	32168	
6495	0	32132	
6496	0	32076	
6497	0	32104	
6498	0	32128	
6499	0	32164	
6500	0	32180	
6501	0	32216	
6502	0	32260	
6503	0	32280	
6504	0	32300	
6505	0	32292	
6506	0	32300	
6507	0	32340	
6508	0	32364	
6509	0	32390	
6510	0	32376	
6511	0	32384	
6512	0	32402	
6513	0	32416	
6514	0	32436	
6515	0	32472	
6516	0	32472	
6517	0	32448	
6518	0	32394	
6519	0	32340	
6520	0	32316	
6521	0	32348	
6522	0	32368	
6523	0	32402	
6524	0	32424	
6525	0	32448	
6526	0	32424	
6527	0	32392	
6528	0	32358	
6529	0	32348	
6530	0	32288	
6531	0	32264	
6532	0	32280	
6533	0	32324	
6534	0	32344	
6535	0	32372	
6536	0	32388	
6537	0	32456	
6538	0	32528	
6539	0	32544	
6540	0	32562	
6541	0	32572	
6542	0	32608	
6543	0	32652	
6544	0	32698	
6545	0	32712	
6546	0	32732	
6547	0	32720	
6548	0	32680	
6549	0	32660	
6550	0	32628	
6551	0	32640	
6552	0	32684	
6553	0	32712	
6554	0	32764	
6555	0	32824	
6556	0	32880	
6557	0	33000	
6558	0	33088	
6559	0	33168	
6560	0	33260	
6561	0	33340	
6562	0	33384	
6563	0	33436	
6564	0	33508	
6565	0	33564	
6566	0	33604	
6567	0	33612	
6568	0	33632	
6569	0	33644	
6570	0	33648	
6571	0	33684	
6572	0	33704	
6573	0	33680	
6574	0	33612	
6575	0	33580	
6576	0	33560	
6577	0	33540	
6578	0	33516	
6579	0	33536	
6580	0	33560	
6581	0	33620	
6582	0	33736	
6583	0	33898	
6584	0	34130	
6585	0	34432	
6586	0	34736	
6587	0	34988	
6588	0	35156	
6589	0	35236	
6590	0	35320	
6591	0	35408	
6592	0	35564	
6593	0	35708	
6594	0	35728	
6595	0	35648	
6596	0	35512	
6597	0	35444	
6598	0	35364	
6599	0	35292	
6600	0	35232	
6601	0	35160	
6602	0	35072	
6603	0	34960	
6604	0	34852	
6605	0	34720	
6606	0	34536	
6607	0	34404	
6608	0	34296	
6609	0	34200	
6610	0	34058	
6611	0	33888	
6612	0	33756	
6613	0	33672	
6614	0	33642	
6615	0	33652	
6616	0	33588	
6617	0	33464	
6618	0	33360	
6619	0	33268	
6620	0	33208	
6621	0	33136	
6622	0	33028	
6623	0	32960	
6624	0	32892	
6625	0	32840	
6626	0	32792	
6627	0	32608	
6628	0	32384	
6629	0	32228	
6630	0	32176	
6631	0	32160	
6632	0	32128	
6633	0	32036	
6634	0	31924	
6635	0	31800	
6636	0	31668	
6637	0	31616	
6638	0	31576	
6639	0	31568	
6640	0	31604	
6641	0	31642	
6642	0	31680	
6643	0	31738	
6644	0	31812	
6645	0	31836	
6646	0	31826	
6647	0	31826	
6648	0	31816	
6649	0	31820	
6650	0	31848	
6651	0	31840	
6652	0	31828	
6653	0	31796	
6654	0	31812	
6655	0	31844	
6656	0	31860	
6657	0	31856	
6658	0	31816	
6659	0	31796	
6660	0	31786	
6661	0	31808	
6662	0	31860	
6663	0	31936	
6664	0	32004	
6665	0	32040	
6666	0	32072	
6667	0	32084	
6668	0	32112	
6669	0	32068	
6670	0	32056	
6671	0	32024	
6672	0	31952	
6673	0	31788	
6674	0	31592	
6675	0	31348	
6676	0	30948	
6677	0	30360	
6678	0	29656	
6679	0	29092	
6680	0	28772	
6681	0	28652	
6682	0	28640	
6683	0	28800	
6684	0	29136	
6685	0	29752	
6686	0	30588	
6687	0	31576	
6688	0	32732	
6689	0	34104	
6690	0	35720	
6691	0	37512	
6692	0	39588	
6693	0	42016	
6694	0	44856	
6695	0	48272	
6696	0	52092	
6697	0	55824	
6698	0	59424	
6699	0	62232	
6700	0	63756	
6701	0	64536	
6702	0	64896	
6703	0	65040	
6704	0	65048	
6705	0	65000	
6706	0	64916	
6707	0	64808	
6708	0	64688	
6709	0	64576	
6710	0	63240	
6711	0	56896	
6712	0	51804	
6713	0	47640	
6714	0	44232	
6715	0	41488	
6716	0	39216	
6717	0	37152	
6718	0	35288	
6719	0	33604	
6720	0	32162	
6721	0	30924	
6722	0	29880	
6723	0	28988	
6724	0	28328	
6725	0	27828	
6726	0	27472	
6727	0	27248	
6728	0	27108	
6729	0	26900	
6730	0	26712	
6731	0	26648	
6732	0	26784	
6733	0	27040	
6734	0	27328	
6735	0	27638	
6736	0	27932	
6737	0	28244	
6738	0	28544	
6739	0	28792	
6740	0	28992	
6741	0	29156	
6742	0	29264	
6743	0	29316	
6744	0	29364	
6745	0	29364	
6746	0	29280	
6747	0	29224	
6748	0	29208	
6749	0	29164	
6750	0	29152	
6751	0	29156	
6752	0	29144	
6753	0	29152	
6754	0	29192	
6755	0	29236	
6756	0	29228	
6757	0	29164	
6758	0	29160	
6759	0	29192	
6760	0	29242	
6761	0	29288	
6762	0	29288	
6763	0	29304	
6764	0	29306	
6765	0	29304	
6766	0	29316	
6767	0	29330	
6768	0	29384	
6769	0	29424	
6770	0	29444	
6771	0	29496	
6772	0	29536	
6773	0	29600	
6774	0	29656	
6775	0	29724	
6776	0	29796	
6777	0	29868	
6778	0	29884	
6779	0	29904	
6780	0	29920	
6781	0	29962	
6782	0	30004	
6783	0	30052	
6784	0	30122	
6785	0	30176	
6786	0	30236	
6787	0	30256	
6788	0	30312	
6789	0	30336	
6790	0	30336	
6791	0	30348	
6792	0	30348	
6793	0	30396	
6794	0	30492	
6795	0	30584	
6796	0	30632	
6797	0	30676	
6798	0	30704	
6799	0	30756	
6800	0	30808	
6801	0	30892	
6802	0	30954	
6803	0	30996	
6804	0	31048	
6805	0	31104	
6806	0	31184	
6807	0	31232	
6808	0	31266	
6809	0	31236	
6810	0	31208	
6811	0	31204	
6812	0	31272	
6813	0	31338	
6814	0	31384	
6815	0	31380	
6816	0	31380	
6817	0	31424	
6818	0	31452	
6819	0	31496	
6820	0	31552	
6821	0	31604	
6822	0	31652	
6823	0	31740	
6824	0	31808	
6825	0	31880	
6826	0	31948	
6827	0	32004	
6828	0	32088	
6829	0	32204	
6830	0	32264	
6831	0	32256	
6832	0	32268	
6833	0	32280	
6834	0	32312	
6835	0	32356	
6836	0	32380	
6837	0	32400	
6838	0	32432	
6839	0	32464	
6840	0	32528	
6841	0	32568	
6842	0	32636	
6843	0	32704	
6844	0	32760	
6845	0	32840	
6846	0	32926	
6847	0	32996	
6848	0	33056	
6849	0	33120	
6850	0	33208	
6851	0	33264	
6852	0	33348	
6853	0	33428	
6854	0	33476	
6855	0	33520	
6856	0	33548	
6857	0	33616	
6858	0	33644	
6859	0	33640	
6860	0	33684	
6861	0	33708	
6862	0	33736	
6863	0	33780	
6864	0	33864	
6865	0	33956	
6866	0	34064	
6867	0	34180	
6868	0	34248	
6869	0	34296	
6870	0	34316	
6871	0	34368	
6872	0	34408	
6873	0	34468	
6874	0	34512	
6875	0	34552	
6876	0	34588	
6877	0	34616	
6878	0	34648	
6879	0	34736	
6880	0	34808	
6881	0	34876	
6882	0	34880	
6883	0	34944	
6884	0	35048	
6885	0	35176	
6886	0	35304	
6887	0	35388	
6888	0	35468	
6889	0	35500	
6890	0	35532	
6891	0	35624	
6892	0	35696	
6893	0	35776	
6894	0	35856	
6895	0	35916	
6896	0	35936	
6897	0	35932	
6898	0	35936	
6899	0	35936	
6900	0	35992	
6901	0	36056	
6902	0	36116	
6903	0	36124	
6904	0	36132	
6905	0	36160	
6906	0	36164	
6907	0	36168	
6908	0	36136	
6909	0	36148	
6910	0	36148	
6911	0	36144	
6912	0	36172	
6913	0	36216	
6914	0	36288	
6915	0	36340	
6916	0	36336	
6917	0	36312	
6918	0	36288	
6919	0	36236	
6920	0	36236	
6921	0	36268	
6922	0	36296	
6923	0	36292	
6924	0	36292	
6925	0	36276	
6926	0	36284	
6927	0	36300	
6928	0	36264	
6929	0	36216	
6930	0	36178	
6931	0	36156	
6932	0	36128	
6933	0	36120	
6934	0	36164	
6935	0	36160	
6936	0	36136	
6937	0	36104	
6938	0	36060	
6939	0	35968	
6940	0	35928	
6941	0	35906	
6942	0	35860	
6943	0	35778	
6944	0	35664	
6945	0	35568	
6946	0	35488	
6947	0	35464	
6948	0	35476	
6949	0	35448	
6950	0	35392	
6951	0	35344	
6952	0	35264	
6953	0	35136	
6954	0	34988	
6955	0	34880	
6956	0	34772	
6957	0	34628	
6958	0	34496	
6959	0	34376	
6960	0	34232	
6961	0	34082	
6962	0	33940	
6963	0	33784	
6964	0	33628	
6965	0	33464	
6966	0	33300	
6967	0	33128	
6968	0	32940	
6969	0	32768	
6970	0	32614	
6971	0	32448	
6972	0	32252	
6973	0	32110	
6974	0	31990	
6975	0	31860	
6976	0	31772	
6977	0	31632	
6978	0	31458	
6979	0	31324	
6980	0	31176	
6981	0	31068	
6982	0	30956	
6983	0	30836	
6984	0	30736	
6985	0	30604	
6986	0	30528	
6987	0	30434	
6988	0	30344	
6989	0	30256	
6990	0	30144	
6991	0	29988	
6992	0	29884	
6993	0	29824	
6994	0	29804	
6995	0	29764	
6996	0	29752	
6997	0	29736	
6998	0	29668	
6999	0	29544	
7000	0	29540	
7001	0	29580	
7002	0	29580	
7003	0	29536	
7004	0	29512	
7005	0	29520	
7006	0	29524	
7007	0	29494	
7008	0	29408	
7009	0	29420	
7010	0	29416	
7011	0	29436	
7012	0	29440	
7013	0	29408	
7014	0	29344	
7015	0	29260	
7016	0	29188	
7017	0	29208	
7018	0	29268	
7019	0	29334	
7020	0	29338	
7021	0	29368	
7022	0	29376	
7023	0	29384	
7024	0	29444	
7025	0	29514	
7026	0	29592	
7027	0	29636	
7028	0	29664	
7029	0	29692	
7030	0	29728	
7031	0	29716	
7032	0	29700	
7033	0	29708	
7034	0	29720	
7035	0	29744	
7036	0	29728	
7037	0	29780	
7038	0	29844	
7039	0	29936	
7040	0	30000	
7041	0	30002	
7042	0	29980	
7043	0	29968	
7044	0	30000	
7045	0	30060	
7046	0	30132	
7047	0	30204	
7048	0	30244	
7049	0	30240	
7050	0	30276	
7051	0	30320	
7052	0	30380	
7053	0	30400	
7054	0	30432	
7055	0	30388	
7056	0	30400	
7057	0	30452	
7058	0	30512	
7059	0	30564	
7060	0	30612	
7061	0	30672	
7062	0	30722	
7063	0	30692	
7064	0	30684	
7065	0	30700	
7066	0	30708	
7067	0	30680	
7068	0	30696	
7069	0	30760	
7070	0	30784	
7071	0	30760	
7072	0	30804	
7073	0	30864	
7074	0	30888	
7075	0	30880	
7076	0	30892	
7077	0	30944	
7078	0	30960	
7079	0	30976	
7080	0	30960	
7081	0	30972	
7082	0	30976	
7083	0	30976	
7084	0	30952	
7085	0	30958	
7086	0	30956	
7087	0	30972	
7088	0	31000	
7089	0	31028	
7090	0	31016	
7091	0	31066	
7092	0	31128	
7093	0	31184	
7094	0	31208	
7095	0	31272	
7096	0	31392	
7097	0	31424	
7098	0	31424	
7099	0	31488	
7100	0	31544	
7101	0	31620	
7102	0	31664	
7103	0	31656	
7104	0	31648	
7105	0	31644	
7106	0	31660	
7107	0	31632	
7108	0	31624	
7109	0	31596	
7110	0	31564	
7111	0	31632	
7112	0	31728	
7113	0	31744	
7114	0	31690	
7115	0	31600	
7116	0	31532	
7117	0	31486	
7118	0	31512	
7119	0	31528	
7120	0	31584	
7121	0	31588	
7122	0	31626	
7123	0	31652	
7124	0	31652	
7125	0	31616	
7126	0	31616	
7127	0	31608	
7128	0	31584	
7129	0	31568	
7130	0	31536	
7131	0	31504	
7132	0	31480	
7133	0	31448	
7134	0	31464	
7135	0	31488	
7136	0	31500	
7137	0	31522	
7138	0	31592	
7139	0	31634	
7140	0	31656	
7141	0	31680	
7142	0	31664	
7143	0	31664	
7144	0	31672	
7145	0	31680	
7146	0	31700	
7147	0	31672	
7148	0	31584	
7149	0	31532	
7150	0	31552	
7151	0	31532	
7152	0	31516	
7153	0	31468	
7154	0	31392	
7155	0	31396	
7156	0	31416	
7157	0	31412	
7158	0	31388	
7159	0	31384	
7160	0	31392	
7161	0	31412	
7162	0	31384	
7163	0	31378	
7164	0	31360	
7165	0	31368	
7166	0	31420	
7167	0	31508	
7168	0	31556	
7169	0	31564	
7170	0	31612	
7171	0	31640	
7172	0	31668	
7173	0	31676	
7174	0	31684	
7175	0	31668	
7176	0	31688	
7177	0	31688	
7178	0	31652	
7179	0	31668	
7180	0	31648	
7181	0	31632	
7182	0	31620	
7183	0	31660	
7184	0	31648	
7185	0	31616	
7186	0	31616	
7187	0	31624	
7188	0	31672	
7189	0	31696	
7190	0	31712	
7191	0	31728	
7192	0	31704	
7193	0	31652	
7194	0	31624	
7195	0	31618	
7196	0	31628	
7197	0	31648	
7198	0	31660	
7199	0	31712	
7200	0	31752	
7201	0	31696	
7202	0	31564	
7203	0	31488	
7204	0	31468	
7205	0	31476	
7206	0	31456	
7207	0	31418	
7208	0	31384	
7209	0	31422	
7210	0	31444	
7211	0	31482	
7212	0	31556	
7213	0	31638	
7214	0	31692	
7215	0	31720	
7216	0	31754	
7217	0	31848	
7218	0	31920	
7219	0	31968	
7220	0	32016	
7221	0	32032	
7222	0	32012	
7223	0	31996	
7224	0	32016	
7225	0	32004	
7226	0	31940	
7227	0	31872	
7228	0	31816	
7229	0	31788	
7230	0	31832	
7231	0	31864	
7232	0	31888	
7233	0	31904	
7234	0	31896	
7235	0	31928	
7236	0	32016	
7237	0	32048	
7238	0	32072	
7239	0	32048	
7240	0	31992	
7241	0	31960	
7242	0	31932	
7243	0	31936	
7244	0	31956	
7245	0	32000	
7246	0	32044	
7247	0	32044	
7248	0	31996	
7249	0	32000	
7250	0	32028	
7251	0	32044	
7252	0	32048	
7253	0	32016	
7254	0	31976	
7255	0	31960	
7256	0	31936	
7257	0	31952	
7258	0	31996	
7259	0	32010	
7260	0	31948	
7261	0	31880	
7262	0	31888	
7263	0	31984	
7264	0	32108	
7265	0	32192	
7266	0	32144	
7267	0	32100	
7268	0	32064	
7269	0	32000	
7270	0	31976	
7271	0	32036	
7272	0	32088	
7273	0	32128	
7274	0	32178	
7275	0	32240	
7276	0	32288	
7277	0	32308	
7278	0	32348	
7279	0	32348	
7280	0	32364	
7281	0	32344	
7282	0	32320	
7283	0	32332	
7284	0	32368	
7285	0	32388	
7286	0	32364	
7287	0	32340	
7288	0	32348	
7289	0	32364	
7290	0	32376	
7291	0	32424	
7292	0	32480	
7293	0	32452	
7294	0	32384	
7295	0	32392	
7296	0	32408	
7297	0	32396	
7298	0	32380	
7299	0	32384	
7300	0	32392	
7301	0	32404	
7302	0	32444	
7303	0	32512	
7304	0	32560	
7305	0	32564	
7306	0	32492	
7307	0	32444	
7308	0	32386	
7309	0	32400	
7310	0	32480	
7311	0	32536	
7312	0	32568	
7313	0	32544	
7314	0	32564	
7315	0	32600	
7316	0	32672	
7317	0	32696	
7318	0	32676	
7319	0	32720	
7320	0	32844	
7321	0	32940	
7322	0	32996	
7323	0	33048	
7324	0	33072	
7325	0	33140	
7326	0	33264	
7327	0	33320	
7328	0	33360	
7329	0	33396	
7330	0	33408	
7331	0	33380	
7332	0	33336	
7333	0	33304	
7334	0	33268	
7335	0	33184	
7336	0	33080	
7337	0	33024	
7338	0	33004	
7339	0	32992	
7340	0	33000	
7341	0	32984	
7342	0	33016	
7343	0	33084	
7344	0	33200	
7345	0	33388	
7346	0	33584	
7347	0	33768	
7348	0	34020	
7349	0	34284	
7350	0	34508	
7351	0	34736	
7352	0	34960	
7353	0	35190	
7354	0	35400	
7355	0	35576	
7356	0	35668	
7357	0	35756	
7358	0	35756	
7359	0	35716	
7360	0	35660	
7361	0	35568	
7362	0	35456	
7363	0	35344	
7364	0	35204	
7365	0	35040	
7366	0	34876	
7367	0	34720	
7368	0	34566	
7369	0	34508	
7370	0	34434	
7371	0	34312	
7372	0	34164	
7373	0	34028	
7374	0	33880	
7375	0	33720	
7376	0	33600	
7377	0	33518	
7378	0	33472	
7379	0	33384	
7380	0	33268	
7381	0	33176	
7382	0	33124	
7383	0	33088	
7384	0	33052	
7385	0	32992	
7386	0	32952	
7387	0	32904	
7388	0	32808	
7389	0	32788	
7390	0	32752	
7391	0	32696	
7392	0	32576	
7393	0	32420	
7394	0	32312	
7395	0	32224	
7396	0	32168	
7397	0	32129	
7398	0	32064	
7399	0	31952	
7400	0	31840	
7401	0	31720	
7402	0	31612	
7403	0	31464	
7404	0	31400	
7405	0	31464	
7406	0	31520	
7407	0	31548	
7408	0	31568	
7409	0	31608	
7410	0	31640	
7411	0	31680	
7412	0	31708	
7413	0	31762	
7414	0	31816	
7415	0	31856	
7416	0	31844	
7417	0	31784	
7418	0	31752	
7419	0	31724	
7420	0	31762	
7421	0	31852	
7422	0	31944	
7423	0	31948	
7424	0	31960	
7425	0	31924	
7426	0	31952	
7427	0	32000	
7428	0	32028	
7429	0	32024	
7430	0	32036	
7431	0	32016	
7432	0	32048	
7433	0	32128	
7434	0	32186	
7435	0	32184	
7436	0	32044	
7437	0	31876	
7438	0	31546	
7439	0	31116	
7440	0	30480	
7441	0	29836	
7442	0	29312	
7443	0	29024	
7444	0	28908	
7445	0	28848	
7446	0	28960	
7447	0	29372	
7448	0	30086	
7449	0	31020	
7450	0	32052	
7451	0	33088	
7452	0	34312	
7453	0	35844	
7454	0	37624	
7455	0	39632	
7456	0	42112	
7457	0	45060	
7458	0	48504	
7459	0	52156	
7460	0	55744	
7461	0	59288	
7462	0	62144	
7463	0	63712	
7464	0	64504	
7465	0	64868	
7466	0	65016	
7467	0	65040	
7468	0	64986	
7469	0	64912	
7470	0	64800	
7471	0	64672	
7472	0	61200	
7473	0	54984	
7474	0	49308	
7475	0	44608	
7476	0	40920	
7477	0	38024	
7478	0	35768	
7479	0	33964	
7480	0	32428	
7481	0	31144	
7482	0	29992	
7483	0	28889	
7484	0	27848	
7485	0	26960	
7486	0	26400	
7487	0	26038	
7488	0	25824	
7489	0	25742	
7490	0	25658	
7491	0	25570	
7492	0	25464	
7493	0	25476	
7494	0	25682	
7495	0	26064	
7496	0	26500	
7497	0	26876	
7498	0	27228	
7499	0	27608	
7500	0	28002	
7501	0	28322	
7502	0	28616	
7503	0	28880	
7504	0	29050	
7505	0	29168	
7506	0	29320	
7507	0	29544	
7508	0	29736	
7509	0	29908	
7510	0	30004	
7511	0	30092	
7512	0	30084	
7513	0	29968	
7514	0	29920	
7515	0	29900	
7516	0	29874	
7517	0	29804	
7518	0	29796	
7519	0	29820	
7520	0	29844	
7521	0	29888	
7522	0	29972	
7523	0	30032	
7524	0	30052	
7525	0	30066	
7526	0	30076	
7527	0	30080	
7528	0	30126	
7529	0	30176	
7530	0	30244	
7531	0	30324	
7532	0	30400	
7533	0	30452	
7534	0	30512	
7535	0	30592	
7536	0	30676	
7537	0	30650	
7538	0	30568	
7539	0	30568	
7540	0	30636	
7541	0	30716	
7542	0	30712	
7543	0	30744	
7544	0	30800	
7545	0	30846	
7546	0	30874	
7547	0	30924	
7548	0	30952	
7549	0	31024	
7550	0	31120	
7551	0	31200	
7552	0	31252	
7553	0	31282	
7554	0	31344	
7555	0	31448	
7556	0	31504	
7557	0	31476	
7558	0	31476	
7559	0	31456	
7560	0	31460	
7561	0	31488	
7562	0	31496	
7563	0	31552	
7564	0	31584	
7565	0	31588	
7566	0	31572	
7567	0	31580	
7568	0	31564	
7569	0	31520	
7570	0	31520	
7571	0	31620	
7572	0	31752	
7573	0	31828	
7574	0	31888	
7575	0	32032	
7576	0	32156	
7577	0	32260	
7578	0	32416	
7579	0	32568	
7580	0	32676	
7581	0	32748	
7582	0	32756	
7583	0	32728	
7584	0	32708	
7585	0	32704	
7586	0	32704	
7587	0	32752	
7588	0	32848	
7589	0	32924	
7590	0	32928	
7591	0	32900	
7592	0	32908	
7593	0	32956	
7594	0	33056	
7595	0	33160	
7596	0	33284	
7597	0	33296	
7598	0	33316	
7599	0	33306	
7600	0	33280	
7601	0	33284	
7602	0	33324	
7603	0	33328	
7604	0	33304	
7605	0	33308	
7606	0	33376	
7607	0	33424	
7608	0	33464	
7609	0	33564	
7610	0	33698	
7611	0	33788	
7612	0	33876	
7613	0	33944	
7614	0	34028	
7615	0	34090	
7616	0	34164	
7617	0	34212	
7618	0	34256	
7619	0	34352	
7620	0	34444	
7621	0	34432	
7622	0	34444	
7623	0	34528	
7624	0	34584	
7625	0	34600	
7626	0	34604	
7627	0	34632	
7628	0	34726	
7629	0	34760	
7630	0	34810	
7631	0	34876	
7632	0	34876	
7633	0	34908	
7634	0	34986	
7635	0	35052	
7636	0	35088	
7637	0	35160	
7638	0	35206	
7639	0	35288	
7640	0	35404	
7641	0	35560	
7642	0	35696	
7643	0	35770	
7644	0	35800	
7645	0	35824	
7646	0	35840	
7647	0	35884	
7648	0	35936	
7649	0	36006	
7650	0	36084	
7651	0	36148	
7652	0	36204	
7653	0	36264	
7654	0	36344	
7655	0	36364	
7656	0	36360	
7657	0	36408	
7658	0	36464	
7659	0	36552	
7660	0	36708	
7661	0	36796	
7662	0	36808	
7663	0	36772	
7664	0	36760	
7665	0	36784	
7666	0	36768	
7667	0	36780	
7668	0	36856	
7669	0	36928	
7670	0	36928	
7671	0	36976	
7672	0	37076	
7673	0	37172	
7674	0	37196	
7675	0	37240	
7676	0	37308	
7677	0	37336	
7678	0	37316	
7679	0	37304	
7680	0	37164	
7681	0	36984	
7682	0	36852	
7683	0	36840	
7684	0	36924	
7685	0	36968	
7686	0	37040	
7687	0	37060	
7688	0	37068	
7689	0	37072	
7690	0	37068	
7691	0	37040	
7692	0	36988	
7693	0	36874	
7694	0	36784	
7695	0	36768	
7696	0	36732	
7697	0	36732	
7698	0	36804	
7699	0	36840	
7700	0	36812	
7701	0	36776	
7702	0	36820	
7703	0	36790	
7704	0	36712	
7705	0	36664	
7706	0	36616	
7707	0	36540	
7708	0	36476	
7709	0	36448	
7710	0	36456	
7711	0	36396	
7712	0	36256	
7713	0	36064	
7714	0	35904	
7715	0	35744	
7716	0	35572	
7717	0	35396	
7718	0	35194	
7719	0	34956	
7720	0	34760	
7721	0	34664	
7722	0	34570	
7723	0	34384	
7724	0	34236	
7725	0	34080	
7726	0	33920	
7727	0	33812	
7728	0	33696	
7729	0	33536	
7730	0	33420	
7731	0	33300	
7732	0	33104	
7733	0	32848	
7734	0	32568	
7735	0	32316	
7736	0	32100	
7737	0	31932	
7738	0	31770	
7739	0	31652	
7740	0	31546	
7741	0	31484	
7742	0	31412	
7743	0	31360	
7744	0	31304	
7745	0	31172	
7746	0	31016	
7747	0	30892	
7748	0	30760	
7749	0	30560	
7750	0	30348	
7751	0	30156	
7752	0	29984	
7753	0	29884	
7754	0	29772	
7755	0	29628	
7756	0	29542	
7757	0	29560	
7758	0	29664	
7759	0	29712	
7760	0	29632	
7761	0	29564	
7762	0	29560	
7763	0	29584	
7764	0	29564	
7765	0	29488	
7766	0	29428	
7767	0	29376	
7768	0	29268	
7769	0	29090	
7770	0	29004	
7771	0	29016	
7772	0	29020	
7773	0	29024	
7774	0	29028	
7775	0	29056	
7776	0	29080	
7777	0	29088	
7778	0	29064	
7779	0	29132	
7780	0	29146	
7781	0	29112	
7782	0	29044	
7783	0	29024	
7784	0	29088	
7785	0	29164	
7786	0	29256	
7787	0	29340	
7788	0	29300	
7789	0	29224	
7790	0	29200	
7791	0	29248	
7792	0	29256	
7793	0	29210	
7794	0	29242	
7795	0	29272	
7796	0	29280	
7797	0	29288	
7798	0	29360	
7799	0	29466	
7800	0	29560	
7801	0	29640	
7802	0	29774	
7803	0	29880	
7804	0	29900	
7805	0	29866	
7806	0	29816	
7807	0	29764	
7808	0	29764	
7809	0	29796	
7810	0	29796	
7811	0	29760	
7812	0	29728	
7813	0	29740	
7814	0	29812	
7815	0	29858	
7816	0	29848	
7817	0	29848	
7818	0	29944	
7819	0	29988	
7820	0	29984	
7821	0	30048	
7822	0	30116	
7823	0	30192	
7824	0	30228	
7825	0	30160	
7826	0	30120	
7827	0	30088	
7828	0	30128	
7829	0	30136	
7830	0	30128	
7831	0	30108	
7832	0	30168	
7833	0	30284	
7834	0	30368	
7835	0	30480	
7836	0	30604	
7837	0	30656	
7838	0	30664	
7839	0	30664	
7840	0	30730	
7841	0	30864	
7842	0	30938	
7843	0	30952	
7844	0	30976	
7845	0	31040	
7846	0	31152	
7847	0	31216	
7848	0	31280	
7849	0	31332	
7850	0	31340	
7851	0	31290	
7852	0	31192	
7853	0	31168	
7854	0	31116	
7855	0	31032	
7856	0	30964	
7857	0	30996	
7858	0	31092	
7859	0	31136	
7860	0	31176	
7861	0	31236	
7862	0	31252	
7863	0	31304	
7864	0	31408	
7865	0	31536	
7866	0	31590	
7867	0	31572	
7868	0	31504	
7869	0	31452	
7870	0	31408	
7871	0	31328	
7872	0	31258	
7873	0	31260	
7874	0	31256	
7875	0	31288	
7876	0	31352	
7877	0	31488	
7878	0	31656	
7879	0	31824	
7880	0	31976	
7881	0	32056	
7882	0	32020	
7883	0	31984	
7884	0	32008	
7885	0	32012	
7886	0	31944	
7887	0	31904	
7888	0	31904	
7889	0	31872	
7890	0	31736	
7891	0	31616	
7892	0	31580	
7893	0	31592	
7894	0	31608	
7895	0	31656	
7896	0	31684	
7897	0	31670	
7898	0	31728	
7899	0	31776	
7900	0	31784	
7901	0	31756	
7902	0	31748	
7903	0	31716	
7904	0	31724	
7905	0	31744	
7906	0	31724	
7907	0	31698	
7908	0	31704	
7909	0	31708	
7910	0	31728	
7911	0	31808	
7912	0	31872	
7913	0	31880	
7914	0	31772	
7915	0	31622	
7916	0	31530	
7917	0	31508	
7918	0	31528	
7919	0	31596	
7920	0	31668	
7921	0	31796	
7922	0	31934	
7923	0	31984	
7924	0	31996	
7925	0	31976	
7926	0	31960	
7927	0	31924	
7928	0	31936	
7929	0	31904	
7930	0	31864	
7931	0	31802	
7932	0	31716	
7933	0	31656	
7934	0	31632	
7935	0	31640	
7936	0	31720	
7937	0	31680	
7938	0	31580	
7939	0	31512	
7940	0	31536	
7941	0	31640	
7942	0	31728	
7943	0	31792	
7944	0	31792	
7945	0	31700	
7946	0	31606	
7947	0	31590	
7948	0	31496	
7949	0	31492	
7950	0	31504	
7951	0	31488	
7952	0	31460	
7953	0	31428	
7954	0	31388	
7955	0	31384	
7956	0	31360	
7957	0	31360	
7958	0	31456	
7959	0	31532	
7960	0	31560	
7961	0	31668	
7962	0	31808	
7963	0	31888	
7964	0	31932	
7965	0	31964	
7966	0	32020	
7967	0	32068	
7968	0	32096	
7969	0	32096	
7970	0	32040	
7971	0	31920	
7972	0	31768	
7973	0	31718	
7974	0	31776	
7975	0	31720	
7976	0	31636	
7977	0	31544	
7978	0	31512	
7979	0	31584	
7980	0	31688	
7981	0	31724	
7982	0	31768	
7983	0	31848	
7984	0	31936	
7985	0	31972	
7986	0	31972	
7987	0	31980	
7988	0	32036	
7989	0	32064	
7990	0	32076	
7991	0	32048	
7992	0	31996	
7993	0	31932	
7994	0	31856	
7995	0	31772	
7996	0	31760	
7997	0	31810	
7998	0	31904	
7999	0	31964	
8000	0	31984	
8001	0	31984	
8002	0	31944	
8003	0	31932	
8004	0	32008	
8005	0	32104	
8006	0	32176	
8007	0	32176	
8008	0	32156	
8009	0	32104	
8010	0	32024	
8011	0	31948	
8012	0	31930	
8013	0	31904	
8014	0	31874	
8015	0	31872	
8016	0	31920	
8017	0	31936	
8018	0	31894	
8019	0	31988	
8020	0	32208	
8021	0	32312	
8022	0	32280	
8023	0	32328	
8024	0	32416	
8025	0	32520	
8026	0	32648	
8027	0	32800	
8028	0	32956	
8029	0	33128	
8030	0	33220	
8031	0	33260	
8032	0	33322	
8033	0	33380	
8034	0	33392	
8035	0	33360	
8036	0	33292	
8037	0	33172	
8038	0	33048	
8039	0	33016	
8040	0	33000	
8041	0	33016	
8042	0	32980	
8043	0	32964	
8044	0	33056	
8045	0	33220	
8046	0	33452	
8047	0	33636	
8048	0	33840	
8049	0	34124	
8050	0	34404	
8051	0	34602	
8052	0	34808	
8053	0	35076	
8054	0	35312	
8055	0	35424	
8056	0	35384	
8057	0	35272	
8058	0	35208	
8059	0	35108	
8060	0	34928	
8061	0	34816	
8062	0	34700	
8063	0	34608	
8064	0	34534	
8065	0	34424	
8066	0	34276	
8067	0	34120	
8068	0	33996	
8069	0	33956	
8070	0	33996	
8071	0	33982	
8072	0	33848	
8073	0	33644	
8074	0	33372	
8075	0	33216	
8076	0	33154	
8077	0	33196	
8078	0	33152	
8079	0	32986	
8080	0	32794	
8081	0	32696	
8082	0	32648	
8083	0	32660	
8084	0	32656	
8085	0	32588	
8086	0	32492	
8087	0	32468	
8088	0	32472	
8089	0	32432	
8090	0	32396	
8091	0	32328	
8092	0	32224	
8093	0	32108	
8094	0	31968	
8095	0	31840	
8096	0	31712	
8097	0	31680	
8098	0	31600	
8099	0	31482	
8100	0	31372	
8101	0	31268	
8102	0	31128	
8103	0	31028	
8104	0	31008	
8105	0	31004	
8106	0	30964	
8107	0	30964	
8108	0	31080	
8109	0	31272	
8110	0	31452	
8111	0	31600	
8112	0	31650	
8113	0	31688	
8114	0	31712	
8115	0	31708	
8116	0	31640	
8117	0	31624	
8118	0	31620	
8119	0	31584	
8120	0	31476	
8121	0	31388	
8122	0	31352	
8123	0	31328	
8124	0	31312	
8125	0	31360	
8126	0	31432	
8127	0	31516	
8128	0	31584	
8129	0	31692	
8130	0	31728	
8131	0	31752	
8132	0	31828	
8133	0	31960	
8134	0	32120	
8135	0	32092	
8136	0	31924	
8137	0	31692	
8138	0	31448	
8139	0	31084	
8140	0	30560	
8141	0	30000	
8142	0	29548	
8143	0	29248	
8144	0	29152	
8145	0	29076	
8146	0	29156	
8147	0	29536	
8148	0	30256	
8149	0	31125	
8150	0	32128	
8151	0	33132	
8152	0	34240	
8153	0	35588	
8154	0	37164	
8155	0	39036	
8156	0	41280	
8157	0	43932	
8158	0	47124	
8159	0	50644	
8160	0	54240	
8161	0	57816	
8162	0	61096	
8163	0	63044	
8164	0	64056	
8165	0	64556	
8166	0	64764	
8167	0	64816	
8168	0	64788	
8169	0	64724	
8170	0	64604	
8171	0	64512	
8172	0	58840	
8173	0	52684	
8174	0	46752	
8175	0	41740	
8176	0	37896	
8177	0	35040	
8178	0	32996	
8179	0	31480	
8180	0	30324	
8181	0	29408	
8182	0	28680	
8183	0	27992	
8184	0	27276	
8185	0	26672	
8186	0	26192	
8187	0	25828	
8188	0	25684	
8189	0	25636	
8190	0	25504	
8191	0	25376	
8192	0	25328	
8193	0	25388	
8194	0	25520	
8195	0	25760	
8196	0	26068	
8197	0	26432	
8198	0	26856	
8199	0	27244	
8200	0	27616	
8201	0	27966	
8202	0	28212	
8203	0	28380	
8204	0	28568	
8205	0	28836	
8206	0	29156	
8207	0	29376	
8208	0	29576	
8209	0	29776	
8210	0	29944	
8211	0	30020	
8212	0	30052	
8213	0	30084	
8214	0	30100	
8215	0	30068	
8216	0	30048	
8217	0	30024	
8218	0	30056	
8219	0	30120	
8220	0	30176	
8221	0	30204	
8222	0	30236	
8223	0	30264	
8224	0	30296	
8225	0	30332	
8226	0	30292	
8227	0	30280	
8228	0	30320	
8229	0	30420	
8230	0	30536	
8231	0	30612	
8232	0	30632	
8233	0	30660	
8234	0	30648	
8235	0	30612	
8236	0	30604	
8237	0	30612	
8238	0	30612	
8239	0	30600	
8240	0	30648	
8241	0	30726	
8242	0	30820	
8243	0	30888	
8244	0	30952	
8245	0	31076	
8246	0	31164	
8247	0	31204	
8248	0	31244	
8249	0	31266	
8250	0	31208	
8251	0	31140	
8252	0	31088	
8253	0	31136	
8254	0	31150	
8255	0	31192	
8256	0	31296	
8257	0	31464	
8258	0	31564	
8259	0	31628	
8260	0	31620	
8261	0	31572	
8262	0	31568	
8263	0	31504	
8264	0	31492	
8265	0	31556	
8266	0	31616	
8267	0	31700	
8268	0	31800	
8269	0	31868	
8270	0	31884	
8271	0	31876	
8272	0	31868	
8273	0	31920	
8274	0	31948	
8275	0	31982	
8276	0	32048	
8277	0	32136	
8278	0	32204	
8279	0	32244	
8280	0	32328	
8281	0	32392	
8282	0	32424	
8283	0	32496	
8284	0	32632	
8285	0	32680	
8286	0	32660	
8287	0	32530	
8288	0	32528	
8289	0	32612	
8290	0	32676	
8291	0	32756	
8292	0	32816	
8293	0	32824	
8294	0	32860	
8295	0	32878	
8296	0	32928	
8297	0	33024	
8298	0	33098	
8299	0	33144	
8300	0	33258	
8301	0	33386	
8302	0	33472	
8303	0	33520	
8304	0	33560	
8305	0	33564	
8306	0	33580	
8307	0	33612	
8308	0	33612	
8309	0	33668	
8310	0	33728	
8311	0	33764	
8312	0	33760	
8313	0	33816	
8314	0	33908	
8315	0	33992	
8316	0	34100	
8317	0	34164	
8318	0	34188	
8319	0	34204	
8320	0	34236	
8321	0	34272	
8322	0	34304	
8323	0	34368	
8324	0	34440	
8325	0	34516	
8326	0	34636	
8327	0	34728	
8328	0	34778	
8329	0	34792	
8330	0	34850	
8331	0	34956	
8332	0	35040	
8333	0	35104	
8334	0	35168	
8335	0	35232	
8336	0	35292	
8337	0	35264	
8338	0	35292	
8339	0	35388	
8340	0	35452	
8341	0	35532	
8342	0	35584	
8343	0	35616	
8344	0	35680	
8345	0	35736	
8346	0	35832	
8347	0	35916	
8348	0	36016	
8349	0	36168	
8350	0	36304	
8351	0	36464	
8352	0	36572	
8353	0	36616	
8354	0	36640	
8355	0	36652	
8356	0	36640	
8357	0	36644	
8358	0	36664	
8359	0	36640	
8360	0	36640	
8361	0	36690	
8362	0	36776	
8363	0	36856	
8364	0	36912	
8365	0	36988	
8366	0	37060	
8367	0	37060	
8368	0	37072	
8369	0	37088	
8370	0	37080	
8371	0	37036	
8372	0	37040	
8373	0	37080	
8374	0	37112	
8375	0	37144	
8376	0	37248	
8377	0	37332	
8378	0	37316	
8379	0	37308	
8380	0	37264	
8381	0	37196	
8382	0	37160	
8383	0	37200	
8384	0	37212	
8385	0	37220	
8386	0	37192	
8387	0	37116	
8388	0	37028	
8389	0	36984	
8390	0	36928	
8391	0	36920	
8392	0	36964	
8393	0	36984	
8394	0	36988	
8395	0	36920	
8396	0	36864	
8397	0	36846	
8398	0	36768	
8399	0	36720	
8400	0	36708	
8401	0	36688	
8402	0	36592	
8403	0	36532	
8404	0	36408	
8405	0	36312	
8406	0	36244	
8407	0	36216	
8408	0	36120	
8409	0	35992	
8410	0	35876	
8411	0	35744	
8412	0	35616	
8413	0	35472	
8414	0	35272	
8415	0	35074	
8416	0	34932	
8417	0	34784	
8418	0	34586	
8419	0	34376	
8420	0	34180	
8421	0	34052	
8422	0	33900	
8423	0	33768	
8424	0	33616	
8425	0	33426	
8426	0	33210	
8427	0	33012	
8428	0	32848	
8429	0	32672	
8430	0	32492	
8431	0	32304	
8432	0	32116	
8433	0	31920	
8434	0	31784	
8435	0	31640	
8436	0	31512	
8437	0	31364	
8438	0	31200	
8439	0	31080	
8440	0	30992	
8441	0	30916	
8442	0	30796	
8443	0	30648	
8444	0	30544	
8445	0	30404	
8446	0	30240	
8447	0	30104	
8448	0	29976	
8449	0	29836	
8450	0	29760	
8451	0	29680	
8452	0	29581	
8453	0	29508	
8454	0	29448	
8455	0	29404	
8456	0	29376	
8457	0	29368	
8458	0	29336	
8459	0	29340	
8460	0	29352	
8461	0	29364	
8462	0	29368	
8463	0	29320	
8464	0	29280	
8465	0	29232	
8466	0	29152	
8467	0	29020	
8468	0	28944	
8469	0	28886	
8470	0	28864	
8471	0	28848	
8472	0	28844	
8473	0	28876	
8474	0	28864	
8475	0	28856	
8476	0	28892	
8477	0	28932	
8478	0	28888	
8479	0	28840	
8480	0	28800	
8481	0	28744	
8482	0	28684	
8483	0	28672	
8484	0	28720	
8485	0	28800	
8486	0	28884	
8487	0	28916	
8488	0	28936	
8489	0	28968	
8490	0	28996	
8491	0	29032	
8492	0	29100	
8493	0	29138	
8494	0	29212	
8495	0	29288	
8496	0	29344	
8497	0	29310	
8498	0	29280	
8499	0	29338	
8500	0	29436	
8501	0	29496	
8502	0	29540	
8503	0	29584	
8504	0	29556	
8505	0	29504	
8506	0	29504	
8507	0	29496	
8508	0	29546	
8509	0	29572	
8510	0	29604	
8511	0	29624	
8512	0	29644	
8513	0	29664	
8514	0	29696	
8515	0	29720	
8516	0	29770	
8517	0	29840	
8518	0	29924	
8519	0	29952	
8520	0	30032	
8521	0	30108	
8522	0	30176	
8523	0	30292	
8524	0	30328	
8525	0	30300	
8526	0	30272	
8527	0	30204	
8528	0	30174	
8529	0	30192	
8530	0	30256	
8531	0	30316	
8532	0	30348	
8533	0	30368	
8534	0	30384	
8535	0	30464	
8536	0	30504	
8537	0	30560	
8538	0	30616	
8539	0	30632	
8540	0	30618	
8541	0	30680	
8542	0	30740	
8543	0	30812	
8544	0	30876	
8545	0	30936	
8546	0	30998	
8547	0	31004	
8548	0	30960	
8549	0	30952	
8550	0	31020	
8551	0	31090	
8552	0	31124	
8553	0	31120	
8554	0	31112	
8555	0	31116	
8556	0	31148	
8557	0	31156	
8558	0	31152	
8559	0	31156	
8560	0	31204	
8561	0	31224	
8562	0	31272	
8563	0	31316	
8564	0	31316	
8565	0	31312	
8566	0	31336	
8567	0	31314	
8568	0	31320	
8569	0	31320	
8570	0	31332	
8571	0	31368	
8572	0	31448	
8573	0	31488	
8574	0	31504	
8575	0	31488	
8576	0	31468	
8577	0	31480	
8578	0	31512	
8579	0	31536	
8580	0	31536	
8581	0	31524	
8582	0	31528	
8583	0	31548	
8584	0	31564	
8585	0	31544	
8586	0	31552	
8587	0	31584	
8588	0	31644	
8589	0	31668	
8590	0	31664	
8591	0	31636	
