# OpenSignals Text File Format. Version 1
# {"00:07:80:4B:15:F7": {"position": 0, "device": "biosignalsplux", "device name": "00:07:80:4B:15:F7", "device connection": "BTH00:07:80:4B:15:F7", "sampling rate": 1000, "resolution": [16], "firmware version": 775, "comments": "", "keywords": "", "mode": 0, "sync interval": 2, "date": "2023-4-12", "time": "14:41:45.218", "channels": [1], "sensor": ["ECG"], "label": ["CH1"], "column": ["nSeq", "DI", "CH1"], "special": [{"SpO2": [80, 40, 5, 4, 3, 3]}, {"SpO2": [80, 40, 5, 4, 3, 3]}, {"SpO2": [80, 40, 5, 4, 3, 3]}, {"SpO2": [80, 40, 5, 4, 3, 3]}, {"SpO2": [80, 40, 5, 4, 3, 3]}, {"SpO2": [80, 40, 5, 4, 3, 3]}, {"SpO2": [80, 40, 5, 4, 3, 3]}, {"SpO2": [80, 40, 5, 4, 3, 3]}], "digital IO": [0, 1], "sleeve color": ["green"], "convertedValues": 0}}
# EndOfHeader
0	0	32376	
1	0	32436	
2	0	32512	
3	0	32556	
4	0	32616	
5	0	32644	
6	0	32744	
7	0	32820	
8	0	32848	
9	0	32868	
10	0	32924	
11	0	32976	
12	0	33044	
13	0	33112	
14	0	33200	
15	0	33256	
16	0	33292	
17	0	33314	
18	0	33402	
19	0	33476	
20	0	33532	
21	0	33634	
22	0	33744	
23	0	33796	
24	0	33800	
25	0	33824	
26	0	33892	
27	0	34012	
28	0	34032	
29	0	34016	
30	0	34016	
31	0	34052	
32	0	34112	
33	0	34168	
34	0	34240	
35	0	34304	
36	0	34360	
37	0	34444	
38	0	34524	
39	0	34628	
40	0	34704	
41	0	34816	
42	0	34884	
43	0	34948	
44	0	35076	
45	0	35180	
46	0	35292	
47	0	35416	
48	0	35462	
49	0	35484	
50	0	35524	
51	0	35576	
52	0	35648	
53	0	35704	
54	0	35760	
55	0	35808	
56	0	35842	
57	0	35892	
58	0	35964	
59	0	36052	
60	0	36144	
61	0	36192	
62	0	36232	
63	0	36292	
64	0	36360	
65	0	36428	
66	0	36484	
67	0	36500	
68	0	36492	
69	0	36472	
70	0	36460	
71	0	36508	
72	0	36560	
73	0	36624	
74	0	36680	
75	0	36648	
76	0	36596	
77	0	36576	
78	0	36592	
79	0	36656	
80	0	36704	
81	0	36768	
82	0	36824	
83	0	36816	
84	0	36780	
85	0	36780	
86	0	36712	
87	0	36664	
88	0	36652	
89	0	36608	
90	0	36560	
91	0	36484	
92	0	36440	
93	0	36468	
94	0	36524	
95	0	36564	
96	0	36592	
97	0	36596	
98	0	36596	
99	0	36584	
100	0	36568	
101	0	36524	
102	0	36484	
103	0	36460	
104	0	36420	
105	0	36332	
106	0	36240	
107	0	36124	
108	0	36052	
109	0	35992	
110	0	35904	
111	0	35808	
112	0	35764	
113	0	35704	
114	0	35560	
115	0	35424	
116	0	35314	
117	0	35192	
118	0	35068	
119	0	34948	
120	0	34848	
121	0	34736	
122	0	34604	
123	0	34460	
124	0	34336	
125	0	34196	
126	0	34000	
127	0	33812	
128	0	33620	
129	0	33396	
130	0	33180	
131	0	33008	
132	0	32848	
133	0	32716	
134	0	32584	
135	0	32480	
136	0	32360	
137	0	32200	
138	0	32060	
139	0	31936	
140	0	31804	
141	0	31644	
142	0	31476	
143	0	31280	
144	0	31140	
145	0	31036	
146	0	30908	
147	0	30764	
148	0	30644	
149	0	30556	
150	0	30468	
151	0	30378	
152	0	30264	
153	0	30152	
154	0	30096	
155	0	30040	
156	0	29960	
157	0	29888	
158	0	29820	
159	0	29692	
160	0	29568	
161	0	29504	
162	0	29492	
163	0	29496	
164	0	29468	
165	0	29444	
166	0	29376	
167	0	29340	
168	0	29308	
169	0	29268	
170	0	29232	
171	0	29248	
172	0	29248	
173	0	29220	
174	0	29188	
175	0	29178	
176	0	29196	
177	0	29204	
178	0	29168	
179	0	29156	
180	0	29152	
181	0	29152	
182	0	29156	
183	0	29180	
184	0	29208	
185	0	29248	
186	0	29308	
187	0	29388	
188	0	29464	
189	0	29482	
190	0	29468	
191	0	29488	
192	0	29476	
193	0	29490	
194	0	29548	
195	0	29600	
196	0	29632	
197	0	29664	
198	0	29740	
199	0	29832	
200	0	29893	
201	0	29940	
202	0	29992	
203	0	30056	
204	0	30028	
205	0	29996	
206	0	30000	
207	0	30008	
208	0	30040	
209	0	30084	
210	0	30112	
211	0	30180	
212	0	30226	
213	0	30266	
214	0	30304	
215	0	30400	
216	0	30520	
217	0	30566	
218	0	30596	
219	0	30650	
220	0	30712	
221	0	30744	
222	0	30784	
223	0	30792	
224	0	30764	
225	0	30772	
226	0	30856	
227	0	30944	
228	0	31024	
229	0	31124	
230	0	31180	
231	0	31216	
232	0	31280	
233	0	31262	
234	0	31264	
235	0	31264	
236	0	31272	
237	0	31276	
238	0	31268	
239	0	31284	
240	0	31332	
241	0	31388	
242	0	31444	
243	0	31520	
244	0	31592	
245	0	31620	
246	0	31616	
247	0	31624	
248	0	31640	
249	0	31652	
250	0	31688	
251	0	31712	
252	0	31732	
253	0	31760	
254	0	31776	
255	0	31812	
256	0	31832	
257	0	31808	
258	0	31760	
259	0	31736	
260	0	31770	
261	0	31760	
262	0	31768	
263	0	31784	
264	0	31808	
265	0	31840	
266	0	31900	
267	0	31930	
268	0	31910	
269	0	31904	
270	0	31908	
271	0	31944	
272	0	31968	
273	0	31980	
274	0	32000	
275	0	32044	
276	0	32088	
277	0	32056	
278	0	32008	
279	0	31992	
280	0	31996	
281	0	31988	
282	0	31988	
283	0	31982	
284	0	31996	
285	0	32016	
286	0	32064	
287	0	32092	
288	0	32090	
289	0	32116	
290	0	32120	
291	0	32080	
292	0	32072	
293	0	32074	
294	0	32080	
295	0	32096	
296	0	32084	
297	0	32060	
298	0	32032	
299	0	32048	
300	0	32032	
301	0	32030	
302	0	32024	
303	0	32036	
304	0	32048	
305	0	32024	
306	0	32052	
307	0	32044	
308	0	32036	
309	0	32052	
310	0	32048	
311	0	32064	
312	0	32064	
313	0	32058	
314	0	32036	
315	0	32036	
316	0	32036	
317	0	32020	
318	0	32056	
319	0	32116	
320	0	32128	
321	0	32076	
322	0	32016	
323	0	31960	
324	0	31940	
325	0	31912	
326	0	31872	
327	0	31868	
328	0	31892	
329	0	31912	
330	0	31928	
331	0	31926	
332	0	31912	
333	0	31932	
334	0	31964	
335	0	32004	
336	0	32062	
337	0	32124	
338	0	32156	
339	0	32228	
340	0	32270	
341	0	32296	
342	0	32296	
343	0	32288	
344	0	32346	
345	0	32440	
346	0	32514	
347	0	32592	
348	0	32628	
349	0	32704	
350	0	32836	
351	0	32948	
352	0	33040	
353	0	33104	
354	0	33144	
355	0	33180	
356	0	33216	
357	0	33232	
358	0	33204	
359	0	33152	
360	0	33088	
361	0	33008	
362	0	32940	
363	0	32932	
364	0	32952	
365	0	33040	
366	0	33092	
367	0	33132	
368	0	33144	
369	0	33184	
370	0	33354	
371	0	33600	
372	0	33798	
373	0	33976	
374	0	34144	
375	0	34284	
376	0	34480	
377	0	34694	
378	0	34952	
379	0	35200	
380	0	35404	
381	0	35500	
382	0	35508	
383	0	35486	
384	0	35392	
385	0	35296	
386	0	35160	
387	0	35044	
388	0	34964	
389	0	34876	
390	0	34704	
391	0	34560	
392	0	34442	
393	0	34352	
394	0	34256	
395	0	34108	
396	0	33920	
397	0	33714	
398	0	33532	
399	0	33396	
400	0	33276	
401	0	33210	
402	0	33168	
403	0	33140	
404	0	33056	
405	0	32940	
406	0	32814	
407	0	32680	
408	0	32520	
409	0	32374	
410	0	32236	
411	0	32136	
412	0	32084	
413	0	32032	
414	0	31968	
415	0	31864	
416	0	31764	
417	0	31664	
418	0	31492	
419	0	31324	
420	0	31220	
421	0	31160	
422	0	31100	
423	0	31052	
424	0	31008	
425	0	30952	
426	0	30908	
427	0	30888	
428	0	30896	
429	0	30944	
430	0	31002	
431	0	31032	
432	0	31036	
433	0	31028	
434	0	30984	
435	0	30964	
436	0	31004	
437	0	31048	
438	0	31104	
439	0	31168	
440	0	31196	
441	0	31192	
442	0	31208	
443	0	31228	
444	0	31228	
445	0	31300	
446	0	31314	
447	0	31316	
448	0	31316	
449	0	31338	
450	0	31380	
451	0	31420	
452	0	31424	
453	0	31456	
454	0	31510	
455	0	31560	
456	0	31576	
457	0	31572	
458	0	31592	
459	0	31572	
460	0	31580	
461	0	31556	
462	0	31412	
463	0	31144	
464	0	30732	
465	0	30160	
466	0	29416	
467	0	28600	
468	0	27896	
469	0	27416	
470	0	27136	
471	0	26920	
472	0	26884	
473	0	27072	
474	0	27592	
475	0	28428	
476	0	29466	
477	0	30608	
478	0	31888	
479	0	33498	
480	0	35420	
481	0	37644	
482	0	40384	
483	0	43576	
484	0	47276	
485	0	51268	
486	0	55200	
487	0	58992	
488	0	62048	
489	0	63700	
490	0	64536	
491	0	64948	
492	0	65112	
493	0	65120	
494	0	65084	
495	0	65000	
496	0	64896	
497	0	64756	
498	0	64640	
499	0	60200	
500	0	54548	
501	0	49930	
502	0	46144	
503	0	43048	
504	0	40536	
505	0	38336	
506	0	36328	
507	0	34528	
508	0	32892	
509	0	31360	
510	0	30028	
511	0	28976	
512	0	28180	
513	0	27536	
514	0	27106	
515	0	26830	
516	0	26612	
517	0	26394	
518	0	26316	
519	0	26380	
520	0	26596	
521	0	26848	
522	0	27124	
523	0	27400	
524	0	27712	
525	0	28108	
526	0	28496	
527	0	28800	
528	0	29032	
529	0	29184	
530	0	29376	
531	0	29536	
532	0	29596	
533	0	29600	
534	0	29584	
535	0	29548	
536	0	29512	
537	0	29496	
538	0	29512	
539	0	29568	
540	0	29596	
541	0	29584	
542	0	29540	
543	0	29528	
544	0	29500	
545	0	29512	
546	0	29520	
547	0	29520	
548	0	29512	
549	0	29532	
550	0	29568	
551	0	29600	
552	0	29648	
553	0	29652	
554	0	29688	
555	0	29780	
556	0	29880	
557	0	29920	
558	0	29992	
559	0	30024	
560	0	30080	
561	0	30116	
562	0	30128	
563	0	30120	
564	0	30192	
565	0	30256	
566	0	30272	
567	0	30304	
568	0	30348	
569	0	30352	
570	0	30362	
571	0	30408	
572	0	30504	
573	0	30608	
574	0	30672	
575	0	30682	
576	0	30676	
577	0	30648	
578	0	30682	
579	0	30776	
580	0	30888	
581	0	30986	
582	0	31040	
583	0	31104	
584	0	31176	
585	0	31212	
586	0	31260	
587	0	31320	
588	0	31364	
589	0	31412	
590	0	31436	
591	0	31436	
592	0	31429	
593	0	31436	
594	0	31432	
595	0	31444	
596	0	31432	
597	0	31484	
598	0	31584	
599	0	31688	
600	0	31770	
601	0	31816	
602	0	31840	
603	0	31908	
604	0	31956	
605	0	31972	
606	0	32052	
607	0	32146	
608	0	32232	
609	0	32300	
610	0	32384	
611	0	32468	
612	0	32496	
613	0	32532	
614	0	32564	
615	0	32596	
616	0	32634	
617	0	32672	
618	0	32700	
619	0	32724	
620	0	32772	
621	0	32844	
622	0	32912	
623	0	32968	
624	0	33020	
625	0	33076	
626	0	33116	
627	0	33178	
628	0	33210	
629	0	33248	
630	0	33360	
631	0	33440	
632	0	33496	
633	0	33500	
634	0	33540	
635	0	33624	
636	0	33656	
637	0	33712	
638	0	33784	
639	0	33860	
640	0	33872	
641	0	33916	
642	0	33960	
643	0	34016	
644	0	34088	
645	0	34196	
646	0	34268	
647	0	34380	
648	0	34468	
649	0	34564	
650	0	34656	
651	0	34754	
652	0	34800	
653	0	34848	
654	0	34912	
655	0	34968	
656	0	34976	
657	0	34988	
658	0	35008	
659	0	35056	
660	0	35120	
661	0	35216	
662	0	35296	
663	0	35400	
664	0	35460	
665	0	35520	
666	0	35660	
667	0	35768	
668	0	35840	
669	0	35872	
670	0	35888	
671	0	35912	
672	0	35996	
673	0	36080	
674	0	36052	
675	0	36004	
676	0	35958	
677	0	35996	
678	0	36060	
679	0	36101	
680	0	36176	
681	0	36256	
682	0	36264	
683	0	36224	
684	0	36248	
685	0	36314	
686	0	36392	
687	0	36410	
688	0	36448	
689	0	36504	
690	0	36524	
691	0	36536	
692	0	36584	
693	0	36624	
694	0	36604	
695	0	36556	
696	0	36480	
697	0	36416	
698	0	36388	
699	0	36396	
700	0	36368	
701	0	36356	
702	0	36392	
703	0	36424	
704	0	36424	
705	0	36464	
706	0	36488	
707	0	36532	
708	0	36556	
709	0	36578	
710	0	36560	
711	0	36500	
712	0	36504	
713	0	36476	
714	0	36396	
715	0	36336	
716	0	36312	
717	0	36284	
718	0	36240	
719	0	36256	
720	0	36252	
721	0	36160	
722	0	36060	
723	0	35924	
724	0	35784	
725	0	35680	
726	0	35602	
727	0	35514	
728	0	35452	
729	0	35388	
730	0	35280	
731	0	35156	
732	0	35020	
733	0	34896	
734	0	34754	
735	0	34632	
736	0	34436	
737	0	34304	
738	0	34112	
739	0	33940	
740	0	33808	
741	0	33668	
742	0	33456	
743	0	33186	
744	0	32944	
745	0	32736	
746	0	32544	
747	0	32360	
748	0	32248	
749	0	32160	
750	0	32036	
751	0	31860	
752	0	31700	
753	0	31586	
754	0	31512	
755	0	31424	
756	0	31288	
757	0	31104	
758	0	30920	
759	0	30764	
760	0	30652	
761	0	30528	
762	0	30480	
763	0	30416	
764	0	30348	
765	0	30276	
766	0	30200	
767	0	30156	
768	0	30088	
769	0	30008	
770	0	29896	
771	0	29796	
772	0	29708	
773	0	29624	
774	0	29568	
775	0	29452	
776	0	29348	
777	0	29284	
778	0	29236	
779	0	29132	
780	0	29010	
781	0	28948	
782	0	28978	
783	0	29008	
784	0	28996	
785	0	28996	
786	0	28980	
787	0	28948	
788	0	28900	
789	0	28896	
790	0	28904	
791	0	28932	
792	0	28964	
793	0	29016	
794	0	29070	
795	0	29122	
796	0	29160	
797	0	29164	
798	0	29178	
799	0	29204	
800	0	29164	
801	0	29144	
802	0	29128	
803	0	29168	
804	0	29184	
805	0	29228	
806	0	29216	
807	0	29192	
808	0	29196	
809	0	29200	
810	0	29204	
811	0	29188	
812	0	29200	
813	0	29296	
814	0	29392	
815	0	29468	
816	0	29492	
817	0	29520	
818	0	29552	
819	0	29616	
820	0	29632	
821	0	29640	
822	0	29668	
823	0	29728	
824	0	29800	
825	0	29860	
826	0	29852	
827	0	29864	
828	0	29908	
829	0	29984	
830	0	30112	
831	0	30252	
832	0	30328	
833	0	30328	
834	0	30356	
835	0	30388	
836	0	30384	
837	0	30368	
838	0	30342	
839	0	30352	
840	0	30406	
841	0	30466	
842	0	30560	
843	0	30633	
844	0	30648	
845	0	30668	
846	0	30704	
847	0	30740	
848	0	30776	
849	0	30780	
850	0	30780	
851	0	30754	
852	0	30760	
853	0	30784	
854	0	30812	
855	0	30876	
856	0	30968	
857	0	31068	
858	0	31124	
859	0	31120	
860	0	31104	
861	0	31134	
862	0	31156	
863	0	31192	
864	0	31180	
865	0	31104	
866	0	31072	
867	0	31092	
868	0	31208	
869	0	31296	
870	0	31376	
871	0	31436	
872	0	31456	
873	0	31472	
874	0	31484	
875	0	31536	
876	0	31604	
877	0	31652	
878	0	31672	
879	0	31720	
880	0	31720	
881	0	31672	
882	0	31604	
883	0	31578	
884	0	31580	
885	0	31548	
886	0	31508	
887	0	31472	
888	0	31404	
889	0	31338	
890	0	31266	
891	0	31260	
892	0	31288	
893	0	31292	
894	0	31264	
895	0	31242	
896	0	31256	
897	0	31294	
898	0	31328	
899	0	31368	
900	0	31424	
901	0	31504	
902	0	31572	
903	0	31628	
904	0	31664	
905	0	31732	
906	0	31800	
907	0	31784	
908	0	31768	
909	0	31736	
910	0	31768	
911	0	31732	
912	0	31668	
913	0	31648	
914	0	31650	
915	0	31688	
916	0	31708	
917	0	31672	
918	0	31592	
919	0	31576	
920	0	31588	
921	0	31568	
922	0	31504	
923	0	31480	
924	0	31516	
925	0	31504	
926	0	31408	
927	0	31316	
928	0	31296	
929	0	31280	
930	0	31248	
931	0	31180	
932	0	31192	
933	0	31216	
934	0	31232	
935	0	31288	
936	0	31316	
937	0	31356	
938	0	31364	
939	0	31348	
940	0	31384	
941	0	31496	
942	0	31576	
943	0	31584	
944	0	31524	
945	0	31418	
946	0	31396	
947	0	31468	
948	0	31536	
949	0	31618	
950	0	31658	
951	0	31628	
952	0	31610	
953	0	31680	
954	0	31772	
955	0	31860	
956	0	31944	
957	0	32016	
958	0	32032	
959	0	32048	
960	0	32116	
961	0	32128	
962	0	32122	
963	0	32096	
964	0	32072	
965	0	32050	
966	0	32072	
967	0	32122	
968	0	32140	
969	0	32172	
970	0	32220	
971	0	32264	
972	0	32272	
973	0	32296	
974	0	32404	
975	0	32640	
976	0	32932	
977	0	33184	
978	0	33360	
979	0	33564	
980	0	33764	
981	0	34008	
982	0	34232	
983	0	34522	
984	0	34796	
985	0	34936	
986	0	34970	
987	0	34938	
988	0	34856	
989	0	34776	
990	0	34664	
991	0	34560	
992	0	34476	
993	0	34368	
994	0	34276	
995	0	34202	
996	0	34104	
997	0	33972	
998	0	33884	
999	0	33776	
1000	0	33606	
1001	0	33444	
1002	0	33236	
1003	0	33024	
1004	0	32804	
1005	0	32592	
1006	0	32432	
1007	0	32312	
1008	0	32224	
1009	0	32096	
1010	0	32020	
1011	0	31938	
1012	0	31800	
1013	0	31672	
1014	0	31624	
1015	0	31644	
1016	0	31620	
1017	0	31564	
1018	0	31456	
1019	0	31312	
1020	0	31208	
1021	0	31040	
1022	0	30888	
1023	0	30832	
1024	0	30792	
1025	0	30752	
1026	0	30760	
1027	0	30688	
1028	0	30584	
1029	0	30548	
1030	0	30456	
1031	0	30364	
1032	0	30272	
1033	0	30248	
1034	0	30300	
1035	0	30380	
1036	0	30436	
1037	0	30496	
1038	0	30528	
1039	0	30520	
1040	0	30536	
1041	0	30580	
1042	0	30640	
1043	0	30648	
1044	0	30692	
1045	0	30714	
1046	0	30732	
1047	0	30732	
1048	0	30712	
1049	0	30720	
1050	0	30682	
1051	0	30656	
1052	0	30624	
1053	0	30560	
1054	0	30592	
1055	0	30640	
1056	0	30664	
1057	0	30680	
1058	0	30716	
1059	0	30816	
1060	0	30936	
1061	0	31042	
1062	0	31008	
1063	0	30980	
1064	0	31012	
1065	0	31044	
1066	0	30972	
1067	0	30778	
1068	0	30560	
1069	0	30256	
1070	0	29872	
1071	0	29348	
1072	0	28668	
1073	0	28048	
1074	0	27664	
1075	0	27460	
1076	0	27300	
1077	0	27200	
1078	0	27372	
1079	0	27816	
1080	0	28440	
1081	0	29272	
1082	0	30220	
1083	0	31276	
1084	0	32524	
1085	0	34100	
1086	0	35956	
1087	0	38272	
1088	0	41104	
1089	0	44424	
1090	0	48004	
1091	0	51520	
1092	0	55076	
1093	0	58628	
1094	0	61700	
1095	0	63576	
1096	0	64540	
1097	0	65012	
1098	0	65208	
1099	0	65252	
1100	0	65220	
1101	0	65136	
1102	0	64264	
1103	0	58404	
1104	0	52528	
1105	0	46856	
1106	0	41998	
1107	0	38124	
1108	0	35136	
1109	0	32936	
1110	0	31320	
1111	0	30124	
1112	0	29160	
1113	0	28360	
1114	0	27564	
1115	0	26804	
1116	0	26128	
1117	0	25548	
1118	0	25100	
1119	0	24980	
1120	0	25002	
1121	0	24964	
1122	0	24896	
1123	0	24816	
1124	0	24916	
1125	0	25228	
1126	0	25616	
1127	0	26028	
1128	0	26432	
1129	0	26792	
1130	0	27124	
1131	0	27468	
1132	0	27784	
1133	0	28150	
1134	0	28468	
1135	0	28780	
1136	0	29070	
1137	0	29272	
1138	0	29364	
1139	0	29504	
1140	0	29688	
1141	0	29832	
1142	0	29856	
1143	0	29840	
1144	0	29796	
1145	0	29798	
1146	0	29872	
1147	0	29936	
1148	0	29984	
1149	0	30028	
1150	0	30032	
1151	0	30032	
1152	0	30012	
1153	0	30016	
1154	0	30032	
1155	0	30116	
1156	0	30196	
1157	0	30280	
1158	0	30388	
1159	0	30432	
1160	0	30436	
1161	0	30456	
1162	0	30556	
1163	0	30616	
1164	0	30612	
1165	0	30584	
1166	0	30568	
1167	0	30580	
1168	0	30626	
1169	0	30650	
1170	0	30660	
1171	0	30720	
1172	0	30808	
1173	0	30948	
1174	0	31092	
1175	0	31220	
1176	0	31268	
1177	0	31264	
1178	0	31240	
1179	0	31224	
1180	0	31196	
1181	0	31168	
1182	0	31138	
1183	0	31068	
1184	0	31068	
1185	0	31120	
1186	0	31188	
1187	0	31232	
1188	0	31248	
1189	0	31248	
1190	0	31292	
1191	0	31392	
1192	0	31522	
1193	0	31668	
1194	0	31804	
1195	0	31884	
1196	0	31852	
1197	0	31812	
1198	0	31816	
1199	0	31776	
1200	0	31764	
1201	0	31840	
1202	0	31948	
1203	0	32108	
1204	0	32268	
1205	0	32384	
1206	0	32476	
1207	0	32524	
1208	0	32576	
1209	0	32600	
1210	0	32646	
1211	0	32696	
1212	0	32728	
1213	0	32696	
1214	0	32688	
1215	0	32716	
1216	0	32756	
1217	0	32796	
1218	0	32888	
1219	0	32972	
1220	0	33036	
1221	0	33098	
1222	0	33144	
1223	0	33164	
1224	0	33168	
1225	0	33228	
1226	0	33384	
1227	0	33532	
1228	0	33632	
1229	0	33672	
1230	0	33668	
1231	0	33664	
1232	0	33720	
1233	0	33712	
1234	0	33656	
1235	0	33616	
1236	0	33604	
1237	0	33600	
1238	0	33728	
1239	0	33928	
1240	0	34072	
1241	0	34152	
1242	0	34212	
1243	0	34264	
1244	0	34330	
1245	0	34400	
1246	0	34440	
1247	0	34464	
1248	0	34496	
1249	0	34584	
1250	0	34580	
1251	0	34544	
1252	0	34532	
1253	0	34592	
1254	0	34688	
1255	0	34724	
1256	0	34828	
1257	0	34942	
1258	0	35072	
1259	0	35176	
1260	0	35272	
1261	0	35368	
1262	0	35520	
1263	0	35712	
1264	0	35872	
1265	0	35932	
1266	0	35904	
1267	0	35880	
1268	0	35908	
1269	0	36000	
1270	0	36040	
1271	0	35996	
1272	0	35952	
1273	0	35916	
1274	0	35968	
1275	0	36124	
1276	0	36220	
1277	0	36356	
1278	0	36484	
1279	0	36580	
1280	0	36706	
1281	0	36852	
1282	0	36992	
1283	0	37144	
1284	0	37296	
1285	0	37312	
1286	0	37236	
1287	0	37156	
1288	0	37136	
1289	0	37196	
1290	0	37248	
1291	0	37228	
1292	0	37196	
1293	0	37168	
1294	0	37212	
1295	0	37272	
1296	0	37340	
1297	0	37416	
1298	0	37512	
1299	0	37512	
1300	0	37440	
1301	0	37380	
1302	0	37392	
1303	0	37352	
1304	0	37252	
1305	0	37168	
1306	0	37160	
1307	0	37120	
1308	0	37140	
1309	0	37202	
1310	0	37204	
1311	0	37144	
1312	0	37076	
1313	0	37088	
1314	0	37116	
1315	0	37072	
1316	0	37008	
1317	0	36944	
1318	0	36868	
1319	0	36772	
1320	0	36656	
1321	0	36640	
1322	0	36628	
1323	0	36576	
1324	0	36568	
1325	0	36556	
1326	0	36442	
1327	0	36276	
1328	0	36160	
1329	0	36132	
1330	0	36128	
1331	0	36097	
1332	0	36072	
1333	0	36008	
1334	0	35880	
1335	0	35728	
1336	0	35568	
1337	0	35452	
1338	0	35352	
1339	0	35296	
1340	0	35160	
1341	0	34952	
1342	0	34764	
1343	0	34528	
1344	0	34340	
1345	0	34104	
1346	0	33808	
1347	0	33488	
1348	0	33248	
1349	0	33088	
1350	0	32964	
1351	0	32812	
1352	0	32632	
1353	0	32492	
1354	0	32312	
1355	0	32128	
1356	0	31980	
1357	0	31884	
1358	0	31824	
1359	0	31712	
1360	0	31608	
1361	0	31528	
1362	0	31428	
1363	0	31288	
1364	0	31092	
1365	0	30928	
1366	0	30756	
1367	0	30488	
1368	0	30304	
1369	0	30212	
1370	0	30144	
1371	0	30044	
1372	0	29932	
1373	0	29820	
1374	0	29732	
1375	0	29660	
1376	0	29576	
1377	0	29464	
1378	0	29376	
1379	0	29288	
1380	0	29190	
1381	0	29144	
1382	0	29208	
1383	0	29252	
1384	0	29296	
1385	0	29316	
1386	0	29220	
1387	0	29108	
1388	0	28956	
1389	0	28804	
1390	0	28744	
1391	0	28746	
1392	0	28736	
1393	0	28748	
1394	0	28788	
1395	0	28812	
1396	0	28888	
1397	0	28996	
1398	0	29068	
1399	0	29072	
1400	0	29036	
1401	0	29040	
1402	0	29088	
1403	0	29132	
1404	0	29160	
1405	0	29224	
1406	0	29328	
1407	0	29380	
1408	0	29376	
1409	0	29384	
1410	0	29368	
1411	0	29312	
1412	0	29204	
1413	0	28944	
1414	0	28664	
1415	0	28512	
1416	0	28492	
1417	0	28524	
1418	0	28648	
1419	0	28816	
1420	0	28952	
1421	0	29084	
1422	0	29240	
1423	0	29412	
1424	0	29612	
1425	0	29696	
1426	0	29724	
1427	0	29696	
1428	0	29640	
1429	0	29584	
1430	0	29520	
1431	0	29508	
1432	0	29598	
1433	0	29680	
1434	0	29764	
1435	0	29840	
1436	0	29940	
1437	0	30004	
1438	0	30060	
1439	0	30104	
1440	0	30072	
1441	0	30052	
1442	0	30080	
1443	0	30184	
1444	0	30264	
1445	0	30220	
1446	0	30188	
1447	0	30188	
1448	0	30296	
1449	0	30356	
1450	0	30400	
1451	0	30464	
1452	0	30516	
1453	0	30554	
1454	0	30568	
1455	0	30536	
1456	0	30520	
1457	0	30512	
1458	0	30472	
1459	0	30492	
1460	0	30556	
1461	0	30564	
1462	0	30572	
1463	0	30652	
1464	0	30756	
1465	0	30892	
1466	0	30980	
1467	0	31088	
1468	0	31140	
1469	0	31104	
1470	0	31088	
1471	0	31062	
1472	0	31052	
1473	0	31076	
1474	0	31152	
1475	0	31256	
1476	0	31304	
1477	0	31350	
1478	0	31470	
1479	0	31608	
1480	0	31784	
1481	0	31914	
1482	0	31904	
1483	0	31802	
1484	0	31696	
1485	0	31616	
1486	0	31586	
1487	0	31580	
1488	0	31508	
1489	0	31404	
1490	0	31264	
1491	0	31168	
1492	0	31150	
1493	0	31236	
1494	0	31402	
1495	0	31504	
1496	0	31616	
1497	0	31712	
1498	0	31700	
1499	0	31688	
1500	0	31684	
1501	0	31632	
1502	0	31520	
1503	0	31416	
1504	0	31368	
1505	0	31328	
1506	0	31280	
1507	0	31296	
1508	0	31424	
1509	0	31588	
1510	0	31704	
1511	0	31784	
1512	0	31936	
1513	0	32096	
1514	0	32101	
1515	0	32004	
1516	0	31904	
1517	0	31852	
1518	0	31828	
1519	0	31822	
1520	0	31816	
1521	0	31776	
1522	0	31700	
1523	0	31612	
1524	0	31536	
1525	0	31460	
1526	0	31504	
1527	0	31600	
1528	0	31652	
1529	0	31684	
1530	0	31720	
1531	0	31664	
1532	0	31604	
1533	0	31626	
1534	0	31708	
1535	0	31800	
1536	0	31744	
1537	0	31668	
1538	0	31668	
1539	0	31704	
1540	0	31720	
1541	0	31748	
1542	0	31752	
1543	0	31692	
1544	0	31676	
1545	0	31736	
1546	0	31760	
1547	0	31728	
1548	0	31750	
1549	0	31844	
1550	0	31904	
1551	0	31888	
1552	0	31824	
1553	0	31776	
1554	0	31772	
1555	0	31772	
1556	0	31780	
1557	0	31880	
1558	0	32008	
1559	0	32036	
1560	0	32048	
1561	0	32166	
1562	0	32352	
1563	0	32492	
1564	0	32620	
1565	0	32712	
1566	0	32728	
1567	0	32696	
1568	0	32660	
1569	0	32628	
1570	0	32528	
1571	0	32336	
1572	0	32226	
1573	0	32252	
1574	0	32304	
1575	0	32372	
1576	0	32420	
1577	0	32492	
1578	0	32612	
1579	0	32778	
1580	0	32992	
1581	0	33292	
1582	0	33532	
1583	0	33756	
1584	0	33992	
1585	0	34208	
1586	0	34432	
1587	0	34680	
1588	0	34900	
1589	0	35074	
1590	0	35082	
1591	0	35048	
1592	0	34968	
1593	0	34848	
1594	0	34712	
1595	0	34528	
1596	0	34346	
1597	0	34260	
1598	0	34200	
1599	0	34108	
1600	0	33980	
1601	0	33828	
1602	0	33672	
1603	0	33512	
1604	0	33384	
1605	0	33256	
1606	0	33112	
1607	0	32992	
1608	0	32856	
1609	0	32772	
1610	0	32780	
1611	0	32737	
1612	0	32636	
1613	0	32576	
1614	0	32424	
1615	0	32154	
1616	0	31944	
1617	0	31856	
1618	0	31758	
1619	0	31704	
1620	0	31680	
1621	0	31704	
1622	0	31728	
1623	0	31636	
1624	0	31520	
1625	0	31348	
1626	0	31176	
1627	0	31040	
1628	0	30972	
1629	0	30932	
1630	0	30872	
1631	0	30842	
1632	0	30768	
1633	0	30720	
1634	0	30720	
1635	0	30748	
1636	0	30742	
1637	0	30688	
1638	0	30648	
1639	0	30640	
1640	0	30640	
1641	0	30600	
1642	0	30628	
1643	0	30672	
1644	0	30696	
1645	0	30688	
1646	0	30764	
1647	0	30836	
1648	0	30880	
1649	0	30920	
1650	0	30860	
1651	0	30720	
1652	0	30652	
1653	0	30604	
1654	0	30624	
1655	0	30708	
1656	0	30812	
1657	0	30904	
1658	0	31008	
1659	0	31088	
1660	0	31168	
1661	0	31232	
1662	0	31320	
1663	0	31348	
1664	0	31388	
1665	0	31442	
1666	0	31468	
1667	0	31468	
1668	0	31448	
1669	0	31400	
1670	0	31312	
1671	0	31136	
1672	0	30932	
1673	0	30744	
1674	0	30484	
1675	0	30088	
1676	0	29528	
1677	0	28968	
1678	0	28546	
1679	0	28304	
1680	0	28100	
1681	0	27916	
1682	0	27916	
1683	0	28184	
1684	0	28692	
1685	0	29388	
1686	0	30216	
1687	0	31112	
1688	0	32184	
1689	0	33500	
1690	0	35096	
1691	0	37056	
1692	0	39460	
1693	0	42320	
1694	0	45656	
1695	0	49176	
1696	0	52628	
1697	0	56084	
1698	0	59432	
1699	0	62276	
1700	0	63956	
1701	0	64820	
1702	0	65228	
1703	0	65384	
1704	0	65408	
1705	0	65360	
1706	0	65276	
1707	0	61336	
1708	0	55464	
1709	0	49524	
1710	0	44000	
1711	0	39456	
1712	0	36012	
1713	0	33496	
1714	0	31696	
1715	0	30372	
1716	0	29416	
1717	0	28680	
1718	0	28028	
1719	0	27360	
1720	0	26684	
1721	0	26112	
1722	0	25644	
1723	0	25336	
1724	0	25272	
1725	0	25236	
1726	0	25154	
1727	0	25128	
1728	0	25204	
1729	0	25292	
1730	0	25496	
1731	0	25780	
1732	0	26148	
1733	0	26524	
1734	0	26884	
1735	0	27296	
1736	0	27732	
1737	0	28072	
1738	0	28356	
1739	0	28624	
1740	0	28912	
1741	0	29168	
1742	0	29380	
1743	0	29538	
1744	0	29704	
1745	0	29864	
1746	0	30008	
1747	0	30128	
1748	0	30184	
1749	0	30224	
1750	0	30296	
1751	0	30376	
1752	0	30504	
1753	0	30580	
1754	0	30628	
1755	0	30664	
1756	0	30664	
1757	0	30604	
1758	0	30552	
1759	0	30508	
1760	0	30448	
1761	0	30420	
1762	0	30420	
1763	0	30472	
1764	0	30540	
1765	0	30564	
1766	0	30584	
1767	0	30620	
1768	0	30676	
1769	0	30724	
1770	0	30752	
1771	0	30752	
1772	0	30760	
1773	0	30844	
1774	0	30968	
1775	0	31052	
1776	0	31084	
1777	0	31072	
1778	0	31104	
1779	0	31138	
1780	0	31168	
1781	0	31192	
1782	0	31188	
1783	0	31252	
1784	0	31348	
1785	0	31418	
1786	0	31460	
1787	0	31496	
1788	0	31532	
1789	0	31604	
1790	0	31648	
1791	0	31676	
1792	0	31696	
1793	0	31732	
1794	0	31752	
1795	0	31788	
1796	0	31856	
1797	0	31892	
1798	0	31884	
1799	0	31880	
1800	0	31860	
1801	0	31856	
1802	0	31936	
1803	0	32004	
1804	0	32066	
1805	0	32128	
1806	0	32200	
1807	0	32288	
1808	0	32346	
1809	0	32352	
1810	0	32332	
1811	0	32340	
1812	0	32348	
1813	0	32352	
1814	0	32388	
1815	0	32460	
1816	0	32540	
1817	0	32600	
1818	0	32672	
1819	0	32736	
1820	0	32826	
1821	0	32920	
1822	0	33012	
1823	0	33132	
1824	0	33196	
1825	0	33156	
1826	0	33096	
1827	0	33160	
1828	0	33324	
1829	0	33392	
1830	0	33406	
1831	0	33368	
1832	0	33360	
1833	0	33424	
1834	0	33552	
1835	0	33632	
1836	0	33652	
1837	0	33712	
1838	0	33812	
1839	0	33912	
1840	0	33956	
1841	0	34012	
1842	0	34104	
1843	0	34192	
1844	0	34224	
1845	0	34292	
1846	0	34408	
1847	0	34460	
1848	0	34468	
1849	0	34456	
1850	0	34456	
1851	0	34448	
1852	0	34392	
1853	0	34376	
1854	0	34432	
1855	0	34504	
1856	0	34592	
1857	0	34716	
1858	0	34832	
1859	0	34920	
1860	0	34988	
1861	0	35044	
1862	0	35172	
1863	0	35296	
1864	0	35412	
1865	0	35520	
1866	0	35604	
1867	0	35720	
1868	0	35756	
1869	0	35776	
1870	0	35818	
1871	0	35872	
1872	0	35924	
1873	0	36000	
1874	0	36060	
1875	0	36092	
1876	0	36160	
1877	0	36220	
1878	0	36272	
1879	0	36292	
1880	0	36316	
1881	0	36376	
1882	0	36432	
1883	0	36444	
1884	0	36452	
1885	0	36468	
1886	0	36536	
1887	0	36712	
1888	0	36854	
1889	0	36956	
1890	0	37056	
1891	0	37160	
1892	0	37244	
1893	0	37308	
1894	0	37340	
1895	0	37352	
1896	0	37396	
1897	0	37396	
1898	0	37352	
1899	0	37314	
1900	0	37268	
1901	0	37272	
1902	0	37288	
1903	0	37332	
1904	0	37383	
1905	0	37440	
1906	0	37440	
1907	0	37432	
1908	0	37440	
1909	0	37440	
1910	0	37464	
1911	0	37496	
1912	0	37480	
1913	0	37400	
1914	0	37284	
1915	0	37196	
1916	0	37144	
1917	0	37104	
1918	0	37124	
1919	0	37112	
1920	0	37108	
1921	0	37082	
1922	0	37008	
1923	0	36952	
1924	0	36908	
1925	0	36848	
1926	0	36776	
1927	0	36724	
1928	0	36692	
1929	0	36656	
1930	0	36580	
1931	0	36548	
1932	0	36516	
1933	0	36392	
1934	0	36252	
1935	0	36156	
1936	0	36068	
1937	0	35980	
1938	0	35876	
1939	0	35760	
1940	0	35644	
1941	0	35492	
1942	0	35296	
1943	0	35096	
1944	0	34868	
1945	0	34644	
1946	0	34476	
1947	0	34352	
1948	0	34220	
1949	0	34022	
1950	0	33836	
1951	0	33690	
1952	0	33536	
1953	0	33320	
1954	0	33148	
1955	0	33052	
1956	0	32944	
1957	0	32828	
1958	0	32744	
1959	0	32616	
1960	0	32484	
1961	0	32360	
1962	0	32224	
1963	0	32064	
1964	0	31872	
1965	0	31716	
1966	0	31548	
1967	0	31420	
1968	0	31280	
1969	0	31156	
1970	0	31080	
1971	0	30960	
1972	0	30808	
1973	0	30696	
1974	0	30644	
1975	0	30556	
1976	0	30420	
1977	0	30260	
1978	0	30136	
1979	0	30072	
1980	0	30008	
1981	0	29956	
1982	0	29908	
1983	0	29864	
1984	0	29816	
1985	0	29702	
1986	0	29608	
1987	0	29568	
1988	0	29532	
1989	0	29496	
1990	0	29488	
1991	0	29560	
1992	0	29612	
1993	0	29584	
1994	0	29536	
1995	0	29468	
1996	0	29374	
1997	0	29260	
1998	0	29176	
1999	0	29168	
2000	0	29160	
2001	0	29104	
2002	0	29100	
2003	0	29106	
2004	0	29096	
2005	0	29074	
2006	0	29080	
2007	0	29100	
2008	0	29144	
2009	0	29188	
2010	0	29220	
2011	0	29316	
2012	0	29448	
2013	0	29536	
2014	0	29600	
2015	0	29600	
2016	0	29580	
2017	0	29528	
2018	0	29536	
2019	0	29626	
2020	0	29676	
2021	0	29664	
2022	0	29652	
2023	0	29658	
2024	0	29680	
2025	0	29772	
2026	0	29876	
2027	0	29924	
2028	0	29952	
2029	0	30016	
2030	0	30080	
2031	0	30112	
2032	0	30092	
2033	0	30056	
2034	0	30056	
2035	0	30040	
2036	0	30028	
2037	0	30076	
2038	0	30120	
2039	0	30156	
2040	0	30240	
2041	0	30348	
2042	0	30420	
2043	0	30444	
2044	0	30448	
2045	0	30460	
2046	0	30460	
2047	0	30468	
2048	0	30516	
2049	0	30576	
2050	0	30640	
2051	0	30680	
2052	0	30684	
2053	0	30702	
2054	0	30732	
2055	0	30768	
2056	0	30872	
2057	0	30992	
2058	0	31068	
2059	0	31120	
2060	0	31136	
2061	0	31116	
2062	0	31104	
2063	0	31108	
2064	0	31130	
2065	0	31164	
2066	0	31132	
2067	0	31104	
2068	0	31136	
2069	0	31180	
2070	0	31188	
2071	0	31232	
2072	0	31328	
2073	0	31392	
2074	0	31426	
2075	0	31480	
2076	0	31512	
2077	0	31528	
2078	0	31604	
2079	0	31676	
2080	0	31648	
2081	0	31604	
2082	0	31596	
2083	0	31560	
2084	0	31520	
2085	0	31524	
2086	0	31568	
2087	0	31604	
2088	0	31656	
2089	0	31720	
2090	0	31752	
2091	0	31792	
2092	0	31816	
2093	0	31829	
2094	0	31832	
2095	0	31800	
2096	0	31824	
2097	0	31872	
2098	0	31900	
2099	0	31898	
2100	0	31944	
2101	0	32020	
2102	0	32044	
2103	0	32052	
2104	0	32080	
2105	0	32064	
2106	0	32020	
2107	0	31972	
2108	0	31984	
2109	0	32056	
2110	0	32076	
2111	0	32072	
2112	0	32124	
2113	0	32116	
2114	0	32120	
2115	0	32124	
2116	0	32152	
2117	0	32132	
2118	0	32096	
2119	0	32080	
2120	0	32028	
2121	0	31964	
2122	0	31880	
2123	0	31804	
2124	0	31776	
2125	0	31776	
2126	0	31792	
2127	0	31870	
2128	0	31960	
2129	0	32032	
2130	0	32042	
2131	0	31996	
2132	0	31932	
2133	0	31948	
2134	0	31936	
2135	0	31932	
2136	0	31960	
2137	0	31982	
2138	0	32092	
2139	0	32156	
2140	0	32164	
2141	0	32144	
2142	0	32084	
2143	0	32044	
2144	0	32052	
2145	0	32032	
2146	0	31984	
2147	0	31924	
2148	0	31936	
2149	0	32004	
2150	0	32020	
2151	0	31976	
2152	0	31916	
2153	0	31952	
2154	0	31992	
2155	0	31996	
2156	0	32004	
2157	0	32004	
2158	0	31974	
2159	0	31952	
2160	0	31956	
2161	0	31936	
2162	0	31936	
2163	0	31948	
2164	0	31944	
2165	0	31972	
2166	0	31944	
2167	0	31936	
2168	0	31930	
2169	0	31868	
2170	0	31816	
2171	0	31802	
2172	0	31856	
2173	0	31952	
2174	0	32072	
2175	0	32236	
2176	0	32344	
2177	0	32396	
2178	0	32420	
2179	0	32460	
2180	0	32492	
2181	0	32564	
2182	0	32628	
2183	0	32732	
2184	0	32880	
2185	0	33018	
2186	0	33096	
2187	0	33102	
2188	0	33072	
2189	0	33032	
2190	0	33008	
2191	0	32976	
2192	0	32928	
2193	0	32848	
2194	0	32816	
2195	0	32832	
2196	0	32852	
2197	0	32904	
2198	0	32924	
2199	0	32972	
2200	0	33048	
2201	0	33200	
2202	0	33412	
2203	0	33588	
2204	0	33784	
2205	0	34036	
2206	0	34256	
2207	0	34456	
2208	0	34672	
2209	0	34912	
2210	0	35120	
2211	0	35248	
2212	0	35288	
2213	0	35272	
2214	0	35232	
2215	0	35136	
2216	0	35024	
2217	0	34832	
2218	0	34676	
2219	0	34532	
2220	0	34360	
2221	0	34216	
2222	0	34080	
2223	0	34004	
2224	0	33960	
2225	0	33884	
2226	0	33728	
2227	0	33564	
2228	0	33436	
2229	0	33312	
2230	0	33152	
2231	0	33032	
2232	0	32996	
2233	0	32980	
2234	0	32870	
2235	0	32660	
2236	0	32464	
2237	0	32376	
2238	0	32352	
2239	0	32320	
2240	0	32216	
2241	0	32124	
2242	0	32056	
2243	0	31988	
2244	0	31876	
2245	0	31738	
2246	0	31604	
2247	0	31448	
2248	0	31330	
2249	0	31208	
2250	0	31084	
2251	0	31036	
2252	0	30948	
2253	0	30896	
2254	0	30860	
2255	0	30820	
2256	0	30804	
2257	0	30836	
2258	0	30866	
2259	0	30892	
2260	0	30888	
2261	0	30888	
2262	0	30896	
2263	0	30884	
2264	0	30928	
2265	0	30956	
2266	0	31008	
2267	0	30996	
2268	0	30944	
2269	0	30880	
2270	0	30888	
2271	0	30936	
2272	0	30952	
2273	0	30992	
2274	0	31024	
2275	0	31096	
2276	0	31156	
2277	0	31192	
2278	0	31216	
2279	0	31236	
2280	0	31262	
2281	0	31288	
2282	0	31236	
2283	0	31162	
2284	0	31124	
2285	0	31136	
2286	0	31192	
2287	0	31216	
2288	0	31208	
2289	0	31220	
2290	0	31210	
2291	0	31224	
2292	0	31244	
2293	0	31224	
2294	0	31120	
2295	0	30954	
2296	0	30660	
2297	0	30228	
2298	0	29632	
2299	0	28968	
2300	0	28450	
2301	0	28128	
2302	0	28000	
2303	0	27882	
2304	0	28060	
2305	0	28464	
2306	0	29112	
2307	0	29910	
2308	0	30784	
2309	0	31904	
2310	0	33292	
2311	0	34924	
2312	0	36706	
2313	0	38776	
2314	0	41248	
2315	0	44056	
2316	0	47424	
2317	0	51260	
2318	0	55060	
2319	0	58680	
2320	0	61784	
2321	0	63552	
2322	0	64488	
2323	0	64944	
2324	0	65136	
2325	0	65160	
2326	0	65112	
2327	0	65040	
2328	0	64948	
2329	0	64824	
2330	0	63716	
2331	0	57332	
2332	0	51552	
2333	0	46648	
2334	0	42628	
2335	0	39400	
2336	0	36844	
2337	0	34732	
2338	0	32880	
2339	0	31248	
2340	0	29796	
2341	0	28584	
2342	0	27674	
2343	0	27092	
2344	0	26728	
2345	0	26516	
2346	0	26372	
2347	0	26292	
2348	0	26296	
2349	0	26240	
2350	0	26176	
2351	0	26164	
2352	0	26156	
2353	0	26266	
2354	0	26532	
2355	0	26920	
2356	0	27336	
2357	0	27696	
2358	0	28000	
2359	0	28268	
2360	0	28528	
2361	0	28732	
2362	0	28888	
2363	0	29048	
2364	0	29164	
2365	0	29228	
2366	0	29328	
2367	0	29392	
2368	0	29404	
2369	0	29388	
2370	0	29370	
2371	0	29364	
2372	0	29376	
2373	0	29388	
2374	0	29416	
2375	0	29464	
2376	0	29456	
2377	0	29464	
2378	0	29480	
2379	0	29496	
2380	0	29508	
2381	0	29512	
2382	0	29520	
2383	0	29524	
2384	0	29564	
2385	0	29616	
2386	0	29636	
2387	0	29652	
2388	0	29688	
2389	0	29680	
2390	0	29728	
2391	0	29804	
2392	0	29856	
2393	0	29920	
2394	0	29984	
2395	0	30032	
2396	0	30120	
2397	0	30240	
2398	0	30312	
2399	0	30344	
2400	0	30306	
2401	0	30310	
2402	0	30308	
2403	0	30240	
2404	0	30200	
2405	0	30180	
2406	0	30176	
2407	0	30252	
2408	0	30400	
2409	0	30540	
2410	0	30664	
2411	0	30720	
2412	0	30752	
2413	0	30796	
2414	0	30804	
2415	0	30836	
2416	0	30892	
2417	0	30956	
2418	0	31032	
2419	0	31112	
2420	0	31168	
2421	0	31168	
2422	0	31176	
2423	0	31204	
2424	0	31252	
2425	0	31280	
2426	0	31352	
2427	0	31412	
2428	0	31440	
2429	0	31476	
2430	0	31536	
2431	0	31568	
2432	0	31592	
2433	0	31636	
2434	0	31672	
2435	0	31704	
2436	0	31782	
2437	0	31884	
2438	0	31928	
2439	0	32002	
2440	0	32072	
2441	0	32064	
2442	0	32052	
2443	0	32056	
2444	0	32116	
2445	0	32184	
2446	0	32248	
2447	0	32312	
2448	0	32408	
2449	0	32474	
2450	0	32514	
2451	0	32536	
2452	0	32572	
2453	0	32624	
2454	0	32688	
2455	0	32754	
2456	0	32792	
2457	0	32840	
2458	0	32864	
2459	0	32904	
2460	0	32890	
2461	0	32924	
2462	0	32960	
2463	0	33044	
2464	0	33140	
2465	0	33232	
2466	0	33328	
2467	0	33360	
2468	0	33416	
2469	0	33408	
2470	0	33452	
2471	0	33512	
2472	0	33546	
2473	0	33572	
2474	0	33632	
2475	0	33696	
2476	0	33760	
2477	0	33840	
2478	0	33896	
2479	0	33952	
2480	0	34016	
2481	0	34052	
2482	0	34088	
2483	0	34152	
2484	0	34224	
2485	0	34296	
2486	0	34364	
2487	0	34416	
2488	0	34512	
2489	0	34600	
2490	0	34636	
2491	0	34740	
2492	0	34848	
2493	0	34940	
2494	0	35020	
2495	0	35096	
2496	0	35156	
2497	0	35212	
2498	0	35280	
2499	0	35344	
2500	0	35380	
2501	0	35388	
2502	0	35386	
2503	0	35400	
2504	0	35456	
2505	0	35576	
2506	0	35768	
2507	0	35918	
2508	0	36064	
2509	0	36164	
2510	0	36224	
2511	0	36264	
2512	0	36232	
2513	0	36204	
2514	0	36212	
2515	0	36288	
2516	0	36400	
2517	0	36512	
2518	0	36578	
2519	0	36568	
2520	0	36584	
2521	0	36576	
2522	0	36612	
2523	0	36624	
2524	0	36648	
2525	0	36672	
2526	0	36712	
2527	0	36736	
2528	0	36756	
2529	0	36736	
2530	0	36744	
2531	0	36712	
2532	0	36656	
2533	0	36586	
2534	0	36556	
2535	0	36556	
2536	0	36556	
2537	0	36560	
2538	0	36584	
2539	0	36626	
2540	0	36604	
2541	0	36568	
2542	0	36544	
2543	0	36492	
2544	0	36436	
2545	0	36408	
2546	0	36396	
2547	0	36372	
2548	0	36340	
2549	0	36340	
2550	0	36336	
2551	0	36260	
2552	0	36160	
2553	0	36072	
2554	0	36016	
2555	0	35964	
2556	0	35912	
2557	0	35876	
2558	0	35832	
2559	0	35736	
2560	0	35614	
2561	0	35484	
2562	0	35344	
2563	0	35216	
2564	0	35096	
2565	0	34988	
2566	0	34808	
2567	0	34624	
2568	0	34464	
2569	0	34288	
2570	0	34096	
2571	0	33916	
2572	0	33748	
2573	0	33556	
2574	0	33376	
2575	0	33200	
2576	0	33048	
2577	0	32932	
2578	0	32840	
2579	0	32680	
2580	0	32496	
2581	0	32296	
2582	0	32088	
2583	0	31900	
2584	0	31768	
2585	0	31640	
2586	0	31488	
2587	0	31360	
2588	0	31224	
2589	0	31140	
2590	0	31056	
2591	0	30976	
2592	0	30904	
2593	0	30708	
2594	0	30496	
2595	0	30400	
2596	0	30292	
2597	0	30096	
2598	0	29904	
2599	0	29808	
2600	0	29772	
2601	0	29768	
2602	0	29740	
2603	0	29720	
2604	0	29712	
2605	0	29702	
2606	0	29668	
2607	0	29632	
2608	0	29632	
2609	0	29604	
2610	0	29556	
2611	0	29530	
2612	0	29460	
2613	0	29394	
2614	0	29336	
2615	0	29296	
2616	0	29312	
2617	0	29320	
2618	0	29276	
2619	0	29236	
2620	0	29248	
2621	0	29252	
2622	0	29272	
2623	0	29288	
2624	0	29300	
2625	0	29320	
2626	0	29320	
2627	0	29304	
2628	0	29296	
2629	0	29288	
2630	0	29264	
2631	0	29266	
2632	0	29310	
2633	0	29332	
2634	0	29356	
2635	0	29354	
2636	0	29410	
2637	0	29480	
2638	0	29546	
2639	0	29588	
2640	0	29580	
2641	0	29564	
2642	0	29570	
2643	0	29608	
2644	0	29660	
2645	0	29752	
2646	0	29850	
2647	0	29968	
2648	0	29996	
2649	0	29980	
2650	0	29972	
2651	0	29932	
2652	0	29888	
2653	0	29880	
2654	0	29924	
2655	0	29968	
2656	0	29992	
2657	0	30036	
2658	0	30116	
2659	0	30188	
2660	0	30256	
2661	0	30280	
2662	0	30288	
2663	0	30312	
2664	0	30348	
2665	0	30392	
2666	0	30384	
2667	0	30412	
2668	0	30416	
2669	0	30400	
2670	0	30404	
2671	0	30412	
2672	0	30440	
2673	0	30512	
2674	0	30612	
2675	0	30660	
2676	0	30728	
2677	0	30796	
2678	0	30840	
2679	0	30924	
2680	0	31004	
2681	0	31044	
2682	0	31088	
2683	0	31104	
2684	0	31116	
2685	0	31112	
2686	0	31136	
2687	0	31184	
2688	0	31210	
2689	0	31260	
2690	0	31308	
2691	0	31368	
2692	0	31464	
2693	0	31500	
2694	0	31472	
2695	0	31472	
2696	0	31486	
2697	0	31468	
2698	0	31476	
2699	0	31516	
2700	0	31568	
2701	0	31584	
2702	0	31598	
2703	0	31612	
2704	0	31636	
2705	0	31668	
2706	0	31660	
2707	0	31680	
2708	0	31702	
2709	0	31724	
2710	0	31720	
2711	0	31720	
2712	0	31724	
2713	0	31732	
2714	0	31728	
2715	0	31700	
2716	0	31646	
2717	0	31676	
2718	0	31720	
2719	0	31776	
2720	0	31816	
2721	0	31836	
2722	0	31828	
2723	0	31800	
2724	0	31792	
2725	0	31768	
2726	0	31750	
2727	0	31772	
2728	0	31824	
2729	0	31828	
2730	0	31780	
2731	0	31742	
2732	0	31752	
2733	0	31796	
2734	0	31884	
2735	0	31928	
2736	0	31884	
2737	0	31864	
2738	0	31880	
2739	0	31928	
2740	0	31976	
2741	0	31960	
2742	0	31900	
2743	0	31806	
2744	0	31720	
2745	0	31712	
2746	0	31764	
2747	0	31820	
2748	0	31848	
2749	0	31880	
2750	0	31908	
2751	0	31872	
2752	0	31884	
2753	0	31932	
2754	0	31976	
2755	0	31952	
2756	0	31944	
2757	0	31946	
2758	0	31900	
2759	0	31866	
2760	0	31808	
2761	0	31736	
2762	0	31690	
2763	0	31684	
2764	0	31648	
2765	0	31640	
2766	0	31664	
2767	0	31716	
2768	0	31736	
2769	0	31744	
2770	0	31780	
2771	0	31808	
2772	0	31840	
2773	0	31900	
2774	0	31980	
2775	0	32060	
2776	0	32104	
2777	0	32112	
2778	0	32106	
2779	0	32066	
2780	0	32052	
2781	0	32042	
2782	0	31984	
2783	0	31932	
2784	0	31896	
2785	0	31868	
2786	0	31820	
2787	0	31808	
2788	0	31824	
2789	0	31813	
2790	0	31840	
2791	0	31892	
2792	0	31928	
2793	0	31948	
2794	0	31954	
2795	0	31944	
2796	0	31912	
2797	0	31924	
2798	0	31916	
2799	0	31896	
2800	0	31884	
2801	0	31896	
2802	0	31916	
2803	0	31920	
2804	0	31928	
2805	0	31936	
2806	0	31936	
2807	0	31944	
2808	0	31960	
2809	0	31956	
2810	0	31948	
2811	0	31928	
2812	0	31860	
2813	0	31772	
2814	0	31724	
2815	0	31732	
2816	0	31756	
2817	0	31780	
2818	0	31832	
2819	0	31864	
2820	0	31888	
2821	0	31892	
2822	0	31896	
2823	0	31892	
2824	0	31904	
2825	0	31920	
2826	0	31924	
2827	0	31930	
2828	0	31908	
2829	0	31924	
2830	0	31952	
2831	0	31944	
2832	0	31946	
2833	0	31964	
2834	0	31984	
2835	0	31980	
2836	0	31964	
2837	0	31968	
2838	0	31956	
2839	0	31968	
2840	0	31976	
2841	0	32008	
2842	0	32072	
2843	0	32084	
2844	0	32068	
2845	0	32060	
2846	0	32036	
2847	0	32032	
2848	0	32032	
2849	0	32032	
2850	0	32012	
2851	0	31974	
2852	0	31964	
2853	0	32012	
2854	0	32096	
2855	0	32200	
2856	0	32236	
2857	0	32232	
2858	0	32228	
2859	0	32282	
2860	0	32388	
2861	0	32524	
2862	0	32612	
2863	0	32648	
2864	0	32752	
2865	0	32852	
2866	0	32952	
2867	0	33044	
2868	0	33172	
2869	0	33256	
2870	0	33312	
2871	0	33366	
2872	0	33344	
2873	0	33316	
2874	0	33272	
2875	0	33256	
2876	0	33196	
2877	0	33128	
2878	0	33120	
2879	0	33172	
2880	0	33220	
2881	0	33296	
2882	0	33320	
2883	0	33312	
2884	0	33384	
2885	0	33546	
2886	0	33740	
2887	0	33972	
2888	0	34228	
2889	0	34446	
2890	0	34620	
2891	0	34736	
2892	0	34850	
2893	0	34946	
2894	0	35096	
2895	0	35222	
2896	0	35256	
2897	0	35228	
2898	0	35136	
2899	0	35044	
2900	0	34988	
2901	0	34896	
2902	0	34848	
2903	0	34776	
2904	0	34660	
2905	0	34504	
2906	0	34388	
2907	0	34264	
2908	0	34158	
2909	0	34080	
2910	0	34020	
2911	0	33944	
2912	0	33794	
2913	0	33616	
2914	0	33424	
2915	0	33228	
2916	0	33078	
2917	0	32996	
2918	0	32900	
2919	0	32772	
2920	0	32676	
2921	0	32640	
2922	0	32608	
2923	0	32508	
2924	0	32436	
2925	0	32352	
2926	0	32272	
2927	0	32240	
2928	0	32220	
2929	0	32152	
2930	0	32056	
2931	0	31960	
2932	0	31834	
2933	0	31724	
2934	0	31624	
2935	0	31488	
2936	0	31380	
2937	0	31288	
2938	0	31241	
2939	0	31204	
2940	0	31176	
2941	0	31112	
2942	0	31068	
2943	0	31088	
2944	0	31100	
2945	0	31162	
2946	0	31194	
2947	0	31204	
2948	0	31200	
2949	0	31172	
2950	0	31164	
2951	0	31176	
2952	0	31232	
2953	0	31288	
2954	0	31304	
2955	0	31316	
2956	0	31348	
2957	0	31388	
2958	0	31420	
2959	0	31456	
2960	0	31496	
2961	0	31506	
2962	0	31536	
2963	0	31560	
2964	0	31464	
2965	0	31380	
2966	0	31320	
2967	0	31328	
2968	0	31402	
2969	0	31512	
2970	0	31612	
2971	0	31644	
2972	0	31668	
2973	0	31668	
2974	0	31656	
2975	0	31670	
2976	0	31676	
2977	0	31668	
2978	0	31592	
2979	0	31442	
2980	0	31176	
2981	0	30834	
2982	0	30312	
2983	0	29652	
2984	0	29004	
2985	0	28560	
2986	0	28336	
2987	0	28300	
2988	0	28432	
2989	0	28696	
2990	0	29120	
2991	0	29816	
2992	0	30760	
2993	0	31848	
2994	0	33160	
2995	0	34688	
2996	0	36404	
2997	0	38336	
2998	0	40548	
2999	0	43072	
3000	0	46104	
3001	0	49690	
3002	0	53416	
3003	0	56932	
3004	0	60292	
3005	0	62812	
3006	0	64152	
3007	0	64820	
3008	0	65144	
3009	0	65248	
3010	0	65236	
3011	0	65176	
3012	0	65088	
3013	0	64976	
3014	0	64856	
3015	0	63720	
3016	0	57468	
3017	0	51960	
3018	0	47372	
3019	0	43608	
3020	0	40548	
3021	0	37952	
3022	0	35626	
3023	0	33620	
3024	0	31932	
3025	0	30672	
3026	0	29688	
3027	0	28852	
3028	0	28260	
3029	0	27852	
3030	0	27604	
3031	0	27488	
3032	0	27468	
3033	0	27484	
3034	0	27445	
3035	0	27320	
3036	0	27208	
3037	0	27148	
3038	0	27230	
3039	0	27440	
3040	0	27708	
3041	0	27960	
3042	0	28208	
3043	0	28472	
3044	0	28720	
3045	0	28944	
3046	0	29160	
3047	0	29316	
3048	0	29356	
3049	0	29384	
3050	0	29400	
3051	0	29360	
3052	0	29338	
3053	0	29264	
3054	0	29228	
3055	0	29200	
3056	0	29208	
3057	0	29212	
3058	0	29208	
3059	0	29216	
3060	0	29228	
3061	0	29276	
3062	0	29308	
3063	0	29284	
3064	0	29252	
3065	0	29314	
3066	0	29370	
3067	0	29396	
3068	0	29416	
3069	0	29460	
3070	0	29504	
3071	0	29508	
3072	0	29556	
3073	0	29580	
3074	0	29608	
3075	0	29616	
3076	0	29598	
3077	0	29608	
3078	0	29608	
3079	0	29652	
3080	0	29704	
3081	0	29764	
3082	0	29816	
3083	0	29884	
3084	0	29928	
3085	0	29994	
3086	0	30024	
3087	0	30028	
3088	0	30040	
3089	0	30104	
3090	0	30188	
3091	0	30278	
3092	0	30368	
3093	0	30432	
3094	0	30488	
3095	0	30504	
3096	0	30536	
3097	0	30586	
3098	0	30574	
3099	0	30586	
3100	0	30616	
3101	0	30660	
3102	0	30688	
3103	0	30708	
3104	0	30668	
3105	0	30648	
3106	0	30664	
3107	0	30730	
3108	0	30830	
3109	0	30952	
3110	0	31064	
3111	0	31144	
3112	0	31172	
3113	0	31212	
3114	0	31240	
3115	0	31192	
3116	0	31168	
3117	0	31212	
3118	0	31288	
3119	0	31344	
3120	0	31404	
3121	0	31490	
3122	0	31592	
3123	0	31664	
3124	0	31712	
3125	0	31742	
3126	0	31736	
3127	0	31736	
3128	0	31760	
3129	0	31802	
3130	0	31896	
3131	0	31940	
3132	0	31964	
3133	0	32008	
3134	0	32044	
3135	0	32082	
3136	0	32152	
3137	0	32208	
3138	0	32248	
3139	0	32312	
3140	0	32372	
3141	0	32400	
3142	0	32420	
3143	0	32464	
3144	0	32512	
3145	0	32576	
3146	0	32604	
3147	0	32656	
3148	0	32708	
3149	0	32760	
3150	0	32776	
3151	0	32856	
3152	0	32908	
3153	0	32944	
3154	0	32968	
3155	0	32976	
3156	0	32976	
3157	0	33012	
3158	0	33100	
3159	0	33188	
3160	0	33292	
3161	0	33332	
3162	0	33356	
3163	0	33428	
3164	0	33548	
3165	0	33648	
3166	0	33744	
3167	0	33760	
3168	0	33816	
3169	0	33876	
3170	0	33904	
3171	0	33948	
3172	0	34036	
3173	0	34148	
3174	0	34192	
3175	0	34226	
3176	0	34208	
3177	0	34220	
3178	0	34288	
3179	0	34400	
3180	0	34520	
3181	0	34648	
3182	0	34736	
3183	0	34776	
3184	0	34860	
3185	0	34936	
3186	0	35032	
3187	0	35132	
3188	0	35240	
3189	0	35328	
3190	0	35412	
3191	0	35488	
3192	0	35536	
3193	0	35600	
3194	0	35656	
3195	0	35692	
3196	0	35728	
3197	0	35768	
3198	0	35816	
3199	0	35840	
3200	0	35872	
3201	0	35936	
3202	0	36000	
3203	0	36008	
3204	0	36064	
3205	0	36152	
3206	0	36256	
3207	0	36372	
3208	0	36474	
3209	0	36520	
3210	0	36532	
3211	0	36552	
3212	0	36520	
3213	0	36532	
3214	0	36592	
3215	0	36664	
3216	0	36656	
3217	0	36660	
3218	0	36640	
3219	0	36620	
3220	0	36664	
3221	0	36700	
3222	0	36696	
3223	0	36648	
3224	0	36644	
3225	0	36604	
3226	0	36636	
3227	0	36696	
3228	0	36676	
3229	0	36616	
3230	0	36620	
3231	0	36624	
3232	0	36632	
3233	0	36628	
3234	0	36592	
3235	0	36564	
3236	0	36516	
3237	0	36448	
3238	0	36384	
3239	0	36352	
3240	0	36282	
3241	0	36108	
3242	0	35984	
3243	0	35904	
3244	0	35824	
3245	0	35728	
3246	0	35692	
3247	0	35696	
3248	0	35628	
3249	0	35524	
3250	0	35432	
3251	0	35300	
3252	0	35144	
3253	0	34954	
3254	0	34832	
3255	0	34708	
3256	0	34532	
3257	0	34266	
3258	0	34010	
3259	0	33780	
3260	0	33544	
3261	0	33328	
3262	0	33140	
3263	0	32984	
3264	0	32848	
3265	0	32680	
3266	0	32488	
3267	0	32332	
3268	0	32142	
3269	0	31962	
3270	0	31800	
3271	0	31640	
3272	0	31548	
3273	0	31440	
3274	0	31252	
3275	0	31052	
3276	0	30908	
3277	0	30808	
3278	0	30676	
3279	0	30540	
3280	0	30384	
3281	0	30208	
3282	0	30060	
3283	0	29960	
3284	0	29880	
3285	0	29786	
3286	0	29688	
3287	0	29616	
3288	0	29544	
3289	0	29464	
3290	0	29396	
3291	0	29336	
3292	0	29270	
3293	0	29202	
3294	0	29188	
3295	0	29200	
3296	0	29176	
3297	0	29156	
3298	0	29184	
3299	0	29224	
3300	0	29224	
3301	0	29128	
3302	0	29028	
3303	0	28932	
3304	0	28836	
3305	0	28784	
3306	0	28792	
3307	0	28836	
3308	0	28808	
3309	0	28736	
3310	0	28724	
3311	0	28720	
3312	0	28704	
3313	0	28692	
3314	0	28764	
3315	0	28856	
3316	0	28904	
3317	0	28896	
3318	0	28888	
3319	0	28916	
3320	0	28962	
3321	0	29044	
3322	0	29168	
3323	0	29256	
3324	0	29301	
3325	0	29316	
3326	0	29348	
3327	0	29380	
3328	0	29432	
3329	0	29466	
3330	0	29464	
3331	0	29452	
3332	0	29420	
3333	0	29480	
3334	0	29552	
3335	0	29536	
3336	0	29504	
3337	0	29528	
3338	0	29536	
3339	0	29572	
3340	0	29616	
3341	0	29652	
3342	0	29716	
3343	0	29764	
3344	0	29824	
3345	0	29860	
3346	0	29912	
3347	0	29988	
3348	0	29992	
3349	0	29960	
3350	0	29964	
3351	0	30028	
3352	0	30076	
3353	0	30100	
3354	0	30096	
3355	0	30132	
3356	0	30188	
3357	0	30216	
3358	0	30268	
3359	0	30292	
3360	0	30348	
3361	0	30414	
3362	0	30452	
3363	0	30504	
3364	0	30560	
3365	0	30600	
3366	0	30576	
3367	0	30556	
3368	0	30576	
3369	0	30580	
3370	0	30616	
3371	0	30680	
3372	0	30692	
3373	0	30712	
3374	0	30716	
3375	0	30704	
3376	0	30686	
3377	0	30728	
3378	0	30780	
3379	0	30828	
3380	0	30842	
3381	0	30852	
3382	0	30880	
3383	0	30944	
3384	0	30996	
3385	0	31032	
3386	0	31088	
3387	0	31108	
3388	0	31132	
3389	0	31160	
3390	0	31140	
3391	0	31080	
3392	0	31048	
3393	0	31072	
3394	0	31156	
3395	0	31214	
3396	0	31248	
3397	0	31272	
3398	0	31228	
3399	0	31222	
3400	0	31214	
3401	0	31184	
3402	0	31240	
3403	0	31332	
3404	0	31432	
3405	0	31512	
3406	0	31464	
3407	0	31404	
3408	0	31352	
3409	0	31390	
3410	0	31442	
3411	0	31492	
3412	0	31452	
3413	0	31444	
3414	0	31440	
3415	0	31444	
3416	0	31448	
3417	0	31436	
3418	0	31424	
3419	0	31476	
3420	0	31524	
3421	0	31504	
3422	0	31476	
3423	0	31450	
3424	0	31460	
3425	0	31540	
3426	0	31620	
3427	0	31673	
3428	0	31696	
3429	0	31676	
3430	0	31664	
3431	0	31688	
3432	0	31712	
3433	0	31744	
3434	0	31724	
3435	0	31680	
3436	0	31656	
3437	0	31640	
3438	0	31624	
3439	0	31612	
3440	0	31620	
3441	0	31604	
3442	0	31608	
3443	0	31618	
3444	0	31580	
3445	0	31528	
3446	0	31528	
3447	0	31528	
3448	0	31560	
3449	0	31640	
3450	0	31684	
3451	0	31680	
3452	0	31676	
3453	0	31668	
3454	0	31704	
3455	0	31760	
3456	0	31768	
3457	0	31772	
3458	0	31788	
3459	0	31792	
3460	0	31776	
3461	0	31720	
3462	0	31716	
3463	0	31736	
3464	0	31744	
3465	0	31684	
3466	0	31680	
3467	0	31768	
3468	0	31828	
3469	0	31876	
3470	0	31898	
3471	0	31888	
3472	0	31800	
3473	0	31720	
3474	0	31700	
3475	0	31712	
3476	0	31732	
3477	0	31772	
3478	0	31816	
3479	0	31816	
3480	0	31792	
3481	0	31740	
3482	0	31688	
3483	0	31642	
3484	0	31644	
3485	0	31676	
3486	0	31752	
3487	0	31824	
3488	0	31872	
3489	0	31908	
3490	0	31924	
3491	0	31956	
3492	0	31944	
3493	0	31944	
3494	0	31960	
3495	0	31964	
3496	0	31936	
3497	0	31902	
3498	0	31864	
3499	0	31880	
3500	0	31924	
3501	0	31930	
3502	0	31880	
3503	0	31904	
3504	0	31944	
3505	0	31932	
3506	0	31920	
3507	0	31904	
3508	0	31880	
3509	0	31930	
3510	0	31994	
3511	0	32024	
3512	0	32012	
3513	0	31996	
3514	0	31994	
3515	0	32010	
3516	0	32024	
3517	0	32040	
3518	0	32004	
3519	0	32036	
3520	0	32084	
3521	0	32104	
3522	0	32148	
3523	0	32120	
3524	0	32092	
3525	0	32104	
3526	0	32152	
3527	0	32172	
3528	0	32144	
3529	0	32104	
3530	0	32032	
3531	0	31968	
3532	0	31968	
3533	0	32032	
3534	0	32098	
3535	0	32136	
3536	0	32128	
3537	0	32140	
3538	0	32136	
3539	0	32120	
3540	0	32140	
3541	0	32126	
3542	0	32140	
3543	0	32160	
3544	0	32160	
3545	0	32180	
3546	0	32164	
3547	0	32168	
3548	0	32162	
3549	0	32172	
3550	0	32154	
3551	0	32200	
3552	0	32284	
3553	0	32368	
3554	0	32384	
3555	0	32376	
3556	0	32384	
3557	0	32432	
3558	0	32468	
3559	0	32428	
3560	0	32304	
3561	0	32296	
3562	0	32328	
3563	0	32420	
3564	0	32444	
3565	0	32394	
3566	0	32352	
3567	0	32344	
3568	0	32352	
3569	0	32416	
3570	0	32436	
3571	0	32428	
3572	0	32460	
3573	0	32432	
3574	0	32396	
3575	0	32376	
3576	0	32352	
3577	0	32372	
3578	0	32404	
3579	0	32408	
3580	0	32412	
3581	0	32400	
3582	0	32418	
3583	0	32468	
3584	0	32532	
3585	0	32570	
3586	0	32560	
3587	0	32528	
3588	0	32492	
3589	0	32464	
3590	0	32472	
3591	0	32496	
3592	0	32476	
3593	0	32438	
3594	0	32424	
3595	0	32404	
3596	0	32384	
3597	0	32368	
3598	0	32388	
3599	0	32456	
3600	0	32528	
3601	0	32584	
3602	0	32596	
3603	0	32608	
3604	0	32602	
3605	0	32570	
3606	0	32532	
3607	0	32516	
3608	0	32496	
3609	0	32520	
3610	0	32536	
3611	0	32520	
3612	0	32524	
3613	0	32468	
3614	0	32432	
3615	0	32440	
3616	0	32524	
3617	0	32608	
3618	0	32680	
3619	0	32708	
3620	0	32716	
3621	0	32712	
3622	0	32698	
3623	0	32688	
3624	0	32708	
3625	0	32728	
3626	0	32736	
3627	0	32720	
3628	0	32720	
3629	0	32696	
3630	0	32668	
3631	0	32632	
3632	0	32552	
3633	0	32488	
3634	0	32484	
3635	0	32544	
3636	0	32628	
3637	0	32620	
3638	0	32586	
3639	0	32544	
3640	0	32492	
3641	0	32520	
3642	0	32548	
3643	0	32576	
3644	0	32610	
3645	0	32676	
3646	0	32708	
3647	0	32738	
3648	0	32736	
3649	0	32700	
3650	0	32658	
3651	0	32670	
3652	0	32724	
3653	0	32752	
3654	0	32720	
3655	0	32728	
3656	0	32752	
3657	0	32824	
3658	0	32886	
3659	0	32884	
3660	0	32844	
3661	0	32804	
3662	0	32736	
3663	0	32748	
3664	0	32772	
3665	0	32812	
3666	0	32824	
3667	0	32784	
3668	0	32764	
3669	0	32772	
3670	0	32792	
3671	0	32832	
3672	0	32820	
3673	0	32788	
3674	0	32784	
3675	0	32788	
3676	0	32796	
3677	0	32786	
3678	0	32768	
3679	0	32708	
3680	0	32688	
3681	0	32664	
3682	0	32644	
3683	0	32672	
3684	0	32704	
3685	0	32700	
3686	0	32716	
3687	0	32728	
3688	0	32776	
3689	0	32808	
3690	0	32808	
3691	0	32804	
3692	0	32792	
3693	0	32780	
3694	0	32746	
3695	0	32724	
3696	0	32724	
3697	0	32760	
3698	0	32816	
3699	0	32876	
3700	0	32908	
3701	0	32876	
3702	0	32896	
3703	0	32864	
3704	0	32832	
3705	0	32884	
3706	0	32926	
3707	0	32884	
3708	0	32848	
3709	0	32864	
3710	0	32884	
3711	0	32928	
3712	0	32984	
3713	0	33004	
3714	0	32988	
3715	0	33008	
3716	0	33004	
3717	0	33016	
3718	0	33042	
3719	0	32984	
3720	0	32964	
3721	0	32992	
3722	0	33026	
3723	0	33064	
3724	0	33064	
3725	0	33068	
3726	0	33068	
3727	0	33094	
3728	0	33072	
3729	0	33036	
3730	0	33044	
3731	0	33008	
3732	0	33008	
3733	0	33044	
3734	0	33016	
3735	0	32992	
3736	0	33004	
3737	0	33052	
3738	0	33088	
3739	0	33064	
3740	0	33102	
3741	0	33192	
3742	0	33240	
3743	0	33224	
3744	0	33200	
3745	0	33180	
3746	0	33164	
3747	0	33144	
3748	0	33076	
3749	0	33040	
3750	0	33016	
3751	0	33020	
3752	0	33056	
3753	0	33048	
3754	0	33008	
3755	0	32972	
3756	0	32940	
3757	0	32952	
3758	0	32936	
3759	0	32920	
3760	0	32916	
3761	0	32892	
3762	0	32892	
3763	0	32912	
3764	0	32968	
3765	0	32976	
3766	0	32968	
3767	0	32996	
3768	0	33012	
3769	0	33024	
3770	0	33024	
3771	0	32992	
3772	0	32980	
3773	0	32992	
3774	0	33004	
3775	0	33000	
3776	0	32980	
3777	0	32956	
3778	0	32976	
3779	0	32980	
3780	0	33000	
3781	0	33048	
3782	0	33104	
3783	0	33082	
3784	0	33068	
3785	0	33096	
3786	0	33116	
3787	0	33112	
3788	0	33048	
3789	0	33008	
3790	0	33052	
3791	0	33054	
3792	0	33064	
3793	0	33080	
3794	0	33064	
3795	0	33092	
3796	0	33100	
3797	0	33096	
3798	0	33112	
3799	0	33172	
3800	0	33216	
3801	0	33204	
3802	0	33256	
3803	0	33352	
3804	0	33440	
3805	0	33498	
3806	0	33496	
3807	0	33528	
3808	0	33564	
3809	0	33632	
3810	0	33708	
3811	0	33728	
3812	0	33744	
3813	0	33744	
3814	0	33762	
3815	0	33824	
3816	0	33884	
3817	0	33884	
3818	0	33804	
3819	0	33756	
3820	0	33764	
3821	0	33756	
3822	0	33704	
3823	0	33664	
3824	0	33644	
3825	0	33684	
3826	0	33816	
3827	0	33920	
3828	0	34008	
3829	0	34130	
3830	0	34324	
3831	0	34556	
3832	0	34788	
3833	0	35016	
3834	0	35200	
3835	0	35354	
3836	0	35492	
3837	0	35624	
3838	0	35760	
3839	0	35832	
3840	0	35852	
3841	0	35840	
3842	0	35804	
3843	0	35744	
3844	0	35684	
3845	0	35568	
3846	0	35516	
3847	0	35424	
3848	0	35288	
3849	0	35068	
3850	0	34824	
3851	0	34640	
3852	0	34500	
3853	0	34408	
3854	0	34344	
3855	0	34290	
3856	0	34206	
3857	0	34124	
3858	0	34016	
3859	0	33908	
3860	0	33808	
3861	0	33752	
3862	0	33736	
3863	0	33676	
3864	0	33656	
3865	0	33588	
3866	0	33472	
3867	0	33356	
3868	0	33216	
3869	0	33040	
3870	0	32896	
3871	0	32812	
3872	0	32812	
3873	0	32824	
3874	0	32788	
3875	0	32740	
3876	0	32644	
3877	0	32492	
3878	0	32348	
3879	0	32204	
3880	0	32108	
3881	0	32016	
3882	0	31976	
3883	0	31964	
3884	0	31989	
3885	0	32016	
3886	0	32040	
3887	0	32060	
3888	0	32060	
3889	0	32056	
3890	0	32060	
3891	0	32098	
3892	0	32144	
3893	0	32152	
3894	0	32128	
3895	0	32096	
3896	0	32076	
3897	0	32012	
3898	0	31968	
3899	0	31936	
3900	0	31964	
3901	0	32020	
3902	0	32072	
3903	0	32120	
3904	0	32146	
3905	0	32192	
3906	0	32232	
3907	0	32256	
3908	0	32268	
3909	0	32224	
3910	0	32188	
3911	0	32220	
3912	0	32256	
3913	0	32312	
3914	0	32328	
3915	0	32324	
3916	0	32328	
3917	0	32288	
3918	0	32276	
3919	0	32276	
3920	0	32312	
3921	0	32306	
3922	0	32320	
3923	0	32304	
3924	0	32132	
3925	0	31818	
3926	0	31364	
3927	0	30744	
3928	0	30000	
3929	0	29352	
3930	0	28904	
3931	0	28664	
3932	0	28640	
3933	0	28744	
3934	0	28972	
3935	0	29396	
3936	0	30084	
3937	0	30976	
3938	0	32130	
3939	0	33448	
3940	0	34932	
3941	0	36672	
3942	0	38672	
3943	0	40976	
3944	0	43612	
3945	0	46744	
3946	0	50392	
3947	0	54144	
3948	0	57772	
3949	0	61128	
3950	0	63276	
3951	0	64412	
3952	0	64976	
3953	0	65216	
3954	0	65280	
3955	0	65272	
3956	0	65200	
3957	0	65096	
3958	0	64984	
3959	0	64864	
3960	0	64740	
3961	0	60096	
3962	0	54488	
3963	0	49940	
3964	0	46224	
3965	0	43172	
3966	0	40584	
3967	0	38272	
3968	0	36252	
3969	0	34496	
3970	0	33112	
3971	0	32016	
3972	0	31032	
3973	0	30204	
3974	0	29560	
3975	0	29066	
3976	0	28608	
3977	0	28284	
3978	0	28072	
3979	0	27896	
3980	0	27712	
3981	0	27580	
3982	0	27468	
3983	0	27492	
3984	0	27578	
3985	0	27732	
3986	0	27992	
3987	0	28240	
3988	0	28440	
3989	0	28620	
3990	0	28832	
3991	0	28960	
3992	0	28992	
3993	0	29016	
3994	0	29024	
3995	0	29024	
3996	0	29036	
3997	0	29056	
3998	0	29012	
3999	0	28984	
4000	0	28984	
4001	0	28948	
4002	0	28900	
4003	0	28872	
4004	0	28856	
4005	0	28820	
4006	0	28836	
4007	0	28864	
4008	0	28884	
4009	0	28948	
4010	0	29016	
4011	0	29064	
4012	0	29096	
4013	0	29108	
4014	0	29088	
4015	0	29064	
4016	0	29068	
4017	0	29072	
4018	0	29114	
4019	0	29172	
4020	0	29204	
4021	0	29276	
4022	0	29380	
4023	0	29460	
4024	0	29528	
4025	0	29560	
4026	0	29544	
4027	0	29580	
4028	0	29612	
4029	0	29648	
4030	0	29680	
4031	0	29728	
4032	0	29760	
4033	0	29788	
4034	0	29832	
4035	0	29881	
4036	0	29914	
4037	0	29914	
4038	0	29944	
4039	0	29992	
4040	0	30048	
4041	0	30120	
4042	0	30204	
4043	0	30292	
4044	0	30356	
4045	0	30396	
4046	0	30440	
4047	0	30496	
4048	0	30560	
4049	0	30644	
4050	0	30696	
4051	0	30724	
4052	0	30772	
4053	0	30776	
4054	0	30768	
4055	0	30768	
4056	0	30792	
4057	0	30816	
4058	0	30880	
4059	0	30944	
4060	0	31022	
4061	0	31088	
4062	0	31148	
4063	0	31140	
4064	0	31104	
4065	0	31096	
4066	0	31132	
4067	0	31180	
4068	0	31162	
4069	0	31140	
4070	0	31164	
4071	0	31200	
4072	0	31276	
4073	0	31364	
4074	0	31448	
4075	0	31500	
4076	0	31564	
4077	0	31620	
4078	0	31712	
4079	0	31784	
4080	0	31816	
4081	0	31856	
4082	0	31892	
4083	0	31924	
4084	0	31980	
4085	0	32048	
4086	0	32088	
4087	0	32096	
4088	0	32128	
4089	0	32164	
4090	0	32226	
4091	0	32290	
4092	0	32344	
4093	0	32400	
4094	0	32424	
4095	0	32448	
4096	0	32538	
4097	0	32602	
4098	0	32664	
4099	0	32728	
4100	0	32768	
4101	0	32788	
4102	0	32820	
4103	0	32912	
4104	0	32992	
4105	0	33028	
4106	0	33048	
4107	0	33056	
4108	0	33096	
4109	0	33132	
4110	0	33200	
4111	0	33278	
4112	0	33332	
4113	0	33384	
4114	0	33420	
4115	0	33504	
4116	0	33564	
4117	0	33672	
4118	0	33756	
4119	0	33784	
4120	0	33816	
4121	0	33912	
4122	0	34020	
4123	0	34112	
4124	0	34176	
4125	0	34188	
4126	0	34180	
4127	0	34212	
4128	0	34304	
4129	0	34452	
4130	0	34542	
4131	0	34560	
4132	0	34552	
4133	0	34602	
4134	0	34666	
4135	0	34780	
4136	0	34896	
4137	0	35012	
4138	0	35072	
4139	0	35144	
4140	0	35184	
4141	0	35232	
4142	0	35292	
4143	0	35360	
4144	0	35396	
4145	0	35416	
4146	0	35464	
4147	0	35508	
4148	0	35592	
4149	0	35708	
4150	0	35812	
4151	0	35872	
4152	0	35908	
4153	0	35960	
4154	0	35984	
4155	0	36008	
4156	0	36064	
4157	0	36124	
4158	0	36180	
4159	0	36216	
4160	0	36212	
4161	0	36200	
4162	0	36180	
4163	0	36216	
4164	0	36296	
4165	0	36344	
4166	0	36346	
4167	0	36380	
4168	0	36408	
4169	0	36416	
4170	0	36428	
4171	0	36436	
4172	0	36440	
4173	0	36504	
4174	0	36544	
4175	0	36552	
4176	0	36516	
4177	0	36464	
4178	0	36408	
4179	0	36348	
4180	0	36368	
4181	0	36376	
4182	0	36360	
4183	0	36268	
4184	0	36188	
4185	0	36184	
4186	0	36228	
4187	0	36256	
4188	0	36296	
4189	0	36268	
4190	0	36240	
4191	0	36232	
4192	0	36220	
4193	0	36140	
4194	0	36064	
4195	0	36008	
4196	0	35992	
4197	0	35980	
4198	0	35972	
4199	0	35926	
4200	0	35824	
4201	0	35684	
4202	0	35528	
4203	0	35376	
4204	0	35144	
4205	0	34932	
4206	0	34728	
4207	0	34616	
4208	0	34484	
4209	0	34336	
4210	0	34168	
4211	0	33964	
4212	0	33792	
4213	0	33624	
4214	0	33476	
4215	0	33352	
4216	0	33164	
4217	0	32952	
4218	0	32740	
4219	0	32578	
4220	0	32420	
4221	0	32276	
4222	0	32088	
4223	0	31920	
4224	0	31760	
4225	0	31624	
4226	0	31504	
4227	0	31364	
4228	0	31208	
4229	0	31056	
4230	0	30904	
4231	0	30760	
4232	0	30632	
4233	0	30492	
4234	0	30352	
4235	0	30224	
4236	0	30144	
4237	0	30036	
4238	0	29908	
4239	0	29848	
4240	0	29804	
4241	0	29718	
4242	0	29612	
4243	0	29540	
4244	0	29532	
4245	0	29464	
4246	0	29372	
4247	0	29316	
4248	0	29260	
4249	0	29216	
4250	0	29160	
4251	0	29112	
4252	0	29052	
4253	0	29044	
4254	0	29008	
4255	0	28976	
4256	0	28936	
4257	0	28912	
4258	0	28904	
4259	0	28900	
4260	0	28864	
4261	0	28820	
4262	0	28844	
4263	0	28872	
4264	0	28900	
4265	0	28960	
4266	0	29024	
4267	0	29064	
4268	0	29064	
4269	0	29072	
4270	0	29076	
4271	0	29060	
4272	0	29080	
4273	0	29076	
4274	0	29052	
4275	0	29048	
4276	0	29081	
4277	0	29136	
4278	0	29176	
4279	0	29264	
4280	0	29342	
4281	0	29376	
4282	0	29424	
4283	0	29460	
4284	0	29496	
4285	0	29544	
4286	0	29572	
4287	0	29536	
4288	0	29522	
4289	0	29532	
4290	0	29564	
4291	0	29540	
4292	0	29580	
4293	0	29648	
4294	0	29732	
4295	0	29756	
4296	0	29756	
4297	0	29768	
4298	0	29812	
4299	0	29876	
4300	0	29912	
4301	0	29964	
4302	0	30028	
4303	0	30106	
4304	0	30160	
4305	0	30208	
4306	0	30252	
4307	0	30268	
4308	0	30252	
4309	0	30264	
4310	0	30292	
4311	0	30304	
4312	0	30350	
4313	0	30420	
4314	0	30464	
4315	0	30488	
4316	0	30512	
4317	0	30532	
4318	0	30492	
4319	0	30465	
4320	0	30448	
4321	0	30466	
4322	0	30508	
4323	0	30520	
4324	0	30564	
4325	0	30608	
4326	0	30648	
4327	0	30712	
4328	0	30780	
4329	0	30832	
4330	0	30828	
4331	0	30820	
4332	0	30840	
4333	0	30884	
4334	0	30884	
4335	0	30912	
4336	0	30980	
4337	0	31068	
4338	0	31108	
4339	0	31148	
4340	0	31160	
4341	0	31160	
4342	0	31168	
4343	0	31162	
4344	0	31200	
4345	0	31232	
4346	0	31212	
4347	0	31208	
4348	0	31236	
4349	0	31228	
4350	0	31256	
4351	0	31312	
4352	0	31322	
4353	0	31304	
4354	0	31272	
4355	0	31256	
4356	0	31290	
4357	0	31332	
4358	0	31376	
4359	0	31404	
4360	0	31400	
4361	0	31408	
4362	0	31420	
4363	0	31424	
4364	0	31428	
4365	0	31424	
4366	0	31476	
4367	0	31476	
4368	0	31450	
4369	0	31434	
4370	0	31452	
4371	0	31490	
4372	0	31508	
4373	0	31500	
4374	0	31512	
4375	0	31554	
4376	0	31620	
4377	0	31616	
4378	0	31596	
4379	0	31636	
4380	0	31680	
4381	0	31668	
4382	0	31656	
4383	0	31684	
4384	0	31724	
4385	0	31764	
4386	0	31824	
4387	0	31880	
4388	0	31916	
4389	0	31904	
4390	0	31892	
4391	0	31908	
4392	0	31890	
4393	0	31860	
4394	0	31832	
4395	0	31822	
4396	0	31766	
4397	0	31736	
4398	0	31740	
4399	0	31780	
4400	0	31868	
4401	0	31940	
4402	0	31924	
4403	0	31880	
4404	0	31876	
4405	0	31898	
4406	0	31972	
4407	0	32016	
4408	0	32016	
4409	0	31988	
4410	0	31988	
4411	0	32008	
4412	0	32064	
4413	0	32098	
4414	0	32160	
4415	0	32192	
4416	0	32156	
4417	0	32096	
4418	0	31992	
4419	0	31904	
4420	0	31824	
4421	0	31856	
4422	0	31864	
4423	0	31862	
4424	0	31916	
4425	0	31948	
4426	0	31972	
4427	0	31964	
4428	0	31948	
4429	0	31956	
4430	0	31992	
4431	0	32000	
4432	0	32024	
4433	0	32048	
4434	0	32074	
4435	0	32104	
4436	0	32172	
4437	0	32208	
4438	0	32170	
4439	0	32132	
4440	0	32064	
4441	0	31992	
4442	0	31944	
4443	0	31908	
4444	0	31920	
4445	0	31948	
4446	0	32020	
4447	0	32056	
4448	0	32080	
4449	0	32036	
4450	0	32008	
4451	0	32032	
4452	0	32072	
4453	0	32096	
4454	0	32128	
4455	0	32176	
4456	0	32204	
4457	0	32204	
4458	0	32184	
4459	0	32196	
4460	0	32192	
4461	0	32168	
4462	0	32176	
4463	0	32168	
4464	0	32136	
4465	0	32088	
4466	0	32076	
4467	0	32076	
4468	0	32100	
4469	0	32112	
4470	0	32096	
4471	0	32112	
4472	0	32160	
4473	0	32172	
4474	0	32152	
4475	0	32116	
4476	0	32084	
4477	0	32068	
4478	0	32110	
4479	0	32130	
4480	0	32128	
4481	0	32120	
4482	0	32100	
4483	0	32056	
4484	0	32068	
4485	0	32096	
4486	0	32148	
4487	0	32148	
4488	0	32136	
4489	0	32168	
4490	0	32192	
4491	0	32204	
4492	0	32208	
4493	0	32232	
4494	0	32268	
4495	0	32286	
4496	0	32336	
4497	0	32352	
4498	0	32348	
4499	0	32304	
4500	0	32232	
4501	0	32212	
4502	0	32228	
4503	0	32232	
4504	0	32252	
4505	0	32300	
4506	0	32308	
4507	0	32268	
4508	0	32268	
4509	0	32260	
4510	0	32240	
4511	0	32216	
4512	0	32212	
4513	0	32288	
4514	0	32386	
4515	0	32464	
4516	0	32488	
4517	0	32456	
4518	0	32420	
4519	0	32352	
4520	0	32298	
4521	0	32256	
4522	0	32214	
4523	0	32228	
4524	0	32276	
4525	0	32304	
4526	0	32312	
4527	0	32332	
4528	0	32356	
4529	0	32372	
4530	0	32412	
4531	0	32448	
4532	0	32450	
4533	0	32476	
4534	0	32468	
4535	0	32460	
4536	0	32456	
4537	0	32432	
4538	0	32440	
4539	0	32480	
4540	0	32500	
4541	0	32512	
4542	0	32520	
4543	0	32496	
4544	0	32496	
4545	0	32504	
4546	0	32528	
4547	0	32584	
4548	0	32616	
4549	0	32608	
4550	0	32600	
4551	0	32568	
4552	0	32528	
4553	0	32520	
4554	0	32520	
4555	0	32540	
4556	0	32596	
4557	0	32648	
4558	0	32648	
4559	0	32604	
4560	0	32568	
4561	0	32576	
4562	0	32588	
4563	0	32572	
4564	0	32596	
4565	0	32628	
4566	0	32660	
4567	0	32676	
4568	0	32700	
4569	0	32696	
4570	0	32680	
4571	0	32682	
4572	0	32668	
4573	0	32660	
4574	0	32680	
4575	0	32676	
4576	0	32652	
4577	0	32628	
4578	0	32628	
4579	0	32664	
4580	0	32664	
4581	0	32666	
4582	0	32696	
4583	0	32736	
4584	0	32736	
4585	0	32732	
4586	0	32716	
4587	0	32736	
4588	0	32756	
4589	0	32756	
4590	0	32792	
4591	0	32804	
4592	0	32816	
4593	0	32824	
4594	0	32812	
4595	0	32844	
4596	0	32864	
4597	0	32868	
4598	0	32856	
4599	0	32804	
4600	0	32728	
4601	0	32704	
4602	0	32696	
4603	0	32692	
4604	0	32716	
4605	0	32760	
4606	0	32772	
4607	0	32750	
4608	0	32776	
4609	0	32800	
4610	0	32784	
4611	0	32816	
4612	0	32872	
4613	0	32908	
4614	0	32932	
4615	0	32898	
4616	0	32858	
4617	0	32864	
4618	0	32892	
4619	0	32944	
4620	0	32978	
4621	0	32976	
4622	0	32972	
4623	0	32976	
4624	0	32964	
4625	0	32960	
4626	0	32976	
4627	0	33012	
4628	0	33038	
4629	0	33068	
4630	0	33072	
4631	0	33072	
4632	0	33060	
4633	0	32992	
4634	0	32944	
4635	0	32948	
4636	0	32948	
4637	0	32954	
4638	0	32970	
4639	0	32968	
4640	0	32936	
4641	0	32972	
4642	0	32972	
4643	0	32976	
4644	0	33008	
4645	0	32992	
4646	0	32948	
4647	0	32998	
4648	0	33076	
4649	0	33104	
4650	0	33060	
4651	0	33016	
4652	0	32968	
4653	0	32956	
4654	0	32964	
4655	0	32992	
4656	0	32992	
4657	0	33004	
4658	0	33036	
4659	0	33068	
4660	0	33104	
4661	0	33112	
4662	0	33100	
4663	0	33080	
4664	0	33104	
4665	0	33100	
4666	0	33076	
4667	0	33080	
4668	0	33076	
4669	0	33060	
4670	0	33036	
4671	0	33056	
4672	0	33080	
4673	0	33056	
4674	0	33080	
4675	0	33084	
4676	0	33080	
4677	0	33040	
4678	0	33044	
4679	0	33044	
4680	0	33052	
4681	0	33040	
4682	0	33024	
4683	0	32996	
4684	0	32996	
4685	0	33000	
4686	0	33042	
4687	0	33092	
4688	0	33096	
4689	0	33112	
4690	0	33152	
4691	0	33208	
4692	0	33168	
4693	0	33122	
4694	0	33120	
4695	0	33144	
4696	0	33164	
4697	0	33188	
4698	0	33160	
4699	0	33152	
4700	0	33140	
4701	0	33146	
4702	0	33152	
4703	0	33128	
4704	0	33152	
4705	0	33176	
4706	0	33176	
4707	0	33160	
4708	0	33120	
4709	0	33096	
4710	0	33096	
4711	0	33112	
4712	0	33140	
4713	0	33132	
4714	0	33148	
4715	0	33130	
4716	0	33120	
4717	0	33128	
4718	0	33184	
4719	0	33256	
4720	0	33304	
4721	0	33320	
4722	0	33344	
4723	0	33408	
4724	0	33456	
4725	0	33512	
4726	0	33596	
4727	0	33644	
4728	0	33706	
4729	0	33760	
4730	0	33804	
4731	0	33838	
4732	0	33868	
4733	0	33900	
4734	0	33936	
4735	0	33972	
4736	0	33984	
4737	0	33988	
4738	0	33984	
4739	0	33920	
4740	0	33884	
4741	0	33848	
4742	0	33816	
4743	0	33738	
4744	0	33692	
4745	0	33672	
4746	0	33728	
4747	0	33848	
4748	0	34008	
4749	0	34104	
4750	0	34244	
4751	0	34440	
4752	0	34692	
4753	0	34984	
4754	0	35190	
4755	0	35304	
4756	0	35408	
4757	0	35612	
4758	0	35812	
4759	0	35952	
4760	0	36008	
4761	0	36036	
4762	0	35976	
4763	0	35940	
4764	0	35896	
4765	0	35760	
4766	0	35626	
4767	0	35516	
4768	0	35356	
4769	0	35176	
4770	0	35056	
4771	0	34936	
4772	0	34744	
4773	0	34564	
4774	0	34472	
4775	0	34344	
4776	0	34216	
4777	0	34128	
4778	0	34106	
4779	0	34112	
4780	0	34084	
4781	0	34044	
4782	0	33968	
4783	0	33904	
4784	0	33792	
4785	0	33672	
4786	0	33592	
4787	0	33530	
4788	0	33472	
4789	0	33412	
4790	0	33276	
4791	0	33120	
4792	0	33052	
4793	0	32984	
4794	0	32874	
4795	0	32756	
4796	0	32640	
4797	0	32540	
4798	0	32424	
4799	0	32336	
4800	0	32268	
4801	0	32216	
4802	0	32196	
4803	0	32188	
4804	0	32186	
4805	0	32160	
4806	0	32140	
4807	0	32116	
4808	0	32128	
4809	0	32108	
4810	0	32120	
4811	0	32148	
4812	0	32156	
4813	0	32168	
4814	0	32208	
4815	0	32240	
4816	0	32264	
4817	0	32260	
4818	0	32224	
4819	0	32188	
4820	0	32192	
4821	0	32218	
4822	0	32240	
4823	0	32280	
4824	0	32312	
4825	0	32352	
4826	0	32420	
4827	0	32468	
4828	0	32480	
4829	0	32476	
4830	0	32460	
4831	0	32440	
4832	0	32424	
4833	0	32444	
4834	0	32448	
4835	0	32500	
4836	0	32544	
4837	0	32544	
4838	0	32524	
4839	0	32500	
4840	0	32500	
4841	0	32512	
4842	0	32388	
4843	0	32176	
4844	0	31900	
4845	0	31498	
4846	0	30946	
4847	0	30276	
4848	0	29652	
4849	0	29202	
4850	0	28952	
4851	0	28904	
4852	0	29020	
4853	0	29288	
4854	0	29748	
4855	0	30440	
4856	0	31276	
4857	0	32288	
4858	0	33552	
4859	0	35056	
4860	0	36788	
4861	0	38752	
4862	0	41060	
4863	0	43716	
4864	0	46912	
4865	0	50684	
4866	0	54484	
4867	0	58048	
4868	0	61296	
4869	0	63272	
4870	0	64276	
4871	0	64792	
4872	0	65000	
4873	0	65048	
4874	0	65016	
4875	0	64944	
4876	0	64848	
4877	0	64736	
4878	0	64620	
4879	0	64476	
4880	0	59116	
4881	0	53784	
4882	0	49416	
4883	0	45872	
4884	0	42944	
4885	0	40500	
4886	0	38348	
4887	0	36432	
4888	0	34728	
4889	0	33236	
4890	0	31996	
4891	0	30992	
4892	0	30144	
4893	0	29472	
4894	0	29004	
4895	0	28600	
4896	0	28264	
4897	0	28004	
4898	0	27760	
4899	0	27568	
4900	0	27456	
4901	0	27472	
4902	0	27572	
4903	0	27732	
4904	0	27920	
4905	0	28194	
4906	0	28504	
4907	0	28770	
4908	0	29004	
4909	0	29208	
4910	0	29380	
4911	0	29492	
4912	0	29508	
4913	0	29496	
4914	0	29526	
4915	0	29528	
4916	0	29472	
4917	0	29440	
4918	0	29412	
4919	0	29388	
4920	0	29384	
4921	0	29372	
4922	0	29392	
4923	0	29412	
4924	0	29440	
4925	0	29448	
4926	0	29488	
4927	0	29464	
4928	0	29464	
4929	0	29468	
4930	0	29472	
4931	0	29460	
4932	0	29496	
4933	0	29550	
4934	0	29586	
4935	0	29648	
4936	0	29716	
4937	0	29728	
4938	0	29746	
4939	0	29780	
4940	0	29812	
4941	0	29828	
4942	0	29872	
4943	0	29932	
4944	0	30036	
4945	0	30096	
4946	0	30140	
4947	0	30184	
4948	0	30204	
4949	0	30224	
4950	0	30272	
4951	0	30292	
4952	0	30340	
4953	0	30364	
4954	0	30404	
4955	0	30420	
4956	0	30452	
4957	0	30488	
4958	0	30552	
4959	0	30644	
4960	0	30736	
4961	0	30784	
4962	0	30808	
4963	0	30848	
4964	0	30896	
4965	0	30952	
4966	0	31048	
4967	0	31148	
4968	0	31184	
4969	0	31144	
4970	0	31108	
4971	0	31100	
4972	0	31072	
4973	0	31032	
4974	0	31056	
4975	0	31120	
4976	0	31192	
4977	0	31280	
4978	0	31400	
4979	0	31472	
4980	0	31528	
4981	0	31632	
4982	0	31748	
4983	0	31740	
4984	0	31680	
4985	0	31612	
4986	0	31536	
4987	0	31520	
4988	0	31556	
4989	0	31584	
4990	0	31608	
4991	0	31676	
4992	0	31804	
4993	0	31984	
4994	0	32144	
4995	0	32234	
4996	0	32308	
4997	0	32352	
4998	0	32386	
4999	0	32444	
5000	0	32524	
5001	0	32516	
5002	0	32506	
5003	0	32472	
5004	0	32468	
5005	0	32482	
5006	0	32476	
5007	0	32516	
5008	0	32600	
5009	0	32672	
5010	0	32752	
5011	0	32888	
5012	0	32976	
5013	0	33012	
5014	0	32984	
5015	0	32966	
5016	0	32960	
5017	0	33016	
5018	0	33108	
5019	0	33192	
5020	0	33264	
5021	0	33296	
5022	0	33312	
5023	0	33368	
5024	0	33436	
5025	0	33496	
5026	0	33568	
5027	0	33648	
5028	0	33700	
5029	0	33756	
5030	0	33828	
5031	0	33906	
5032	0	34010	
5033	0	34072	
5034	0	34150	
5035	0	34208	
5036	0	34256	
5037	0	34316	
5038	0	34396	
5039	0	34452	
5040	0	34528	
5041	0	34612	
5042	0	34704	
5043	0	34780	
5044	0	34860	
5045	0	34908	
5046	0	34980	
5047	0	35064	
5048	0	35112	
5049	0	35136	
5050	0	35200	
5051	0	35232	
5052	0	35288	
5053	0	35328	
5054	0	35380	
5055	0	35448	
5056	0	35528	
5057	0	35628	
5058	0	35736	
5059	0	35866	
5060	0	35956	
5061	0	36036	
5062	0	36120	
5063	0	36234	
5064	0	36332	
5065	0	36442	
5066	0	36512	
5067	0	36568	
5068	0	36616	
5069	0	36648	
5070	0	36712	
5071	0	36760	
5072	0	36816	
5073	0	36864	
5074	0	36848	
5075	0	36896	
5076	0	36972	
5077	0	37064	
5078	0	37128	
5079	0	37176	
5080	0	37220	
5081	0	37250	
5082	0	37248	
5083	0	37232	
5084	0	37216	
5085	0	37228	
5086	0	37248	
5087	0	37220	
5088	0	37216	
5089	0	37280	
5090	0	37332	
5091	0	37400	
5092	0	37368	
5093	0	37336	
5094	0	37316	
5095	0	37288	
5096	0	37256	
5097	0	37224	
5098	0	37172	
5099	0	37152	
5100	0	37100	
5101	0	37048	
5102	0	37012	
5103	0	37016	
5104	0	37008	
5105	0	36960	
5106	0	36880	
5107	0	36852	
5108	0	36816	
5109	0	36748	
5110	0	36676	
5111	0	36632	
5112	0	36552	
5113	0	36452	
5114	0	36336	
5115	0	36208	
5116	0	36096	
5117	0	36052	
5118	0	35956	
5119	0	35816	
5120	0	35636	
5121	0	35408	
5122	0	35194	
5123	0	35004	
5124	0	34836	
5125	0	34664	
5126	0	34444	
5127	0	34244	
5128	0	34088	
5129	0	33944	
5130	0	33760	
5131	0	33548	
5132	0	33340	
5133	0	33180	
5134	0	32980	
5135	0	32768	
5136	0	32544	
5137	0	32332	
5138	0	32160	
5139	0	31992	
5140	0	31816	
5141	0	31632	
5142	0	31412	
5143	0	31212	
5144	0	30972	
5145	0	30740	
5146	0	30592	
5147	0	30448	
5148	0	30292	
5149	0	30164	
5150	0	30104	
5151	0	30000	
5152	0	29844	
5153	0	29704	
5154	0	29640	
5155	0	29568	
5156	0	29492	
5157	0	29404	
5158	0	29284	
5159	0	29170	
5160	0	29098	
5161	0	29040	
5162	0	29008	
5163	0	28952	
5164	0	28908	
5165	0	28868	
5166	0	28800	
5167	0	28704	
5168	0	28638	
5169	0	28616	
5170	0	28608	
5171	0	28580	
5172	0	28520	
5173	0	28468	
5174	0	28448	
5175	0	28424	
5176	0	28440	
5177	0	28444	
5178	0	28452	
5179	0	28424	
5180	0	28378	
5181	0	28392	
5182	0	28396	
5183	0	28428	
5184	0	28452	
5185	0	28484	
5186	0	28544	
5187	0	28540	
5188	0	28512	
5189	0	28516	
5190	0	28532	
5191	0	28568	
5192	0	28616	
5193	0	28604	
5194	0	28612	
5195	0	28636	
5196	0	28648	
5197	0	28682	
5198	0	28748	
5199	0	28804	
5200	0	28836	
5201	0	28868	
5202	0	28900	
5203	0	28920	
5204	0	28944	
5205	0	28908	
5206	0	28924	
5207	0	28964	
5208	0	28988	
5209	0	29012	
5210	0	29072	
5211	0	29118	
5212	0	29132	
5213	0	29160	
5214	0	29180	
5215	0	29236	
5216	0	29348	
5217	0	29400	
5218	0	29376	
5219	0	29396	
5220	0	29464	
5221	0	29564	
5222	0	29588	
5223	0	29584	
5224	0	29616	
5225	0	29684	
5226	0	29756	
5227	0	29826	
5228	0	29844	
5229	0	29848	
5230	0	29892	
5231	0	29952	
5232	0	29992	
5233	0	30020	
5234	0	30068	
5235	0	30124	
5236	0	30164	
5237	0	30196	
5238	0	30212	
5239	0	30212	
5240	0	30216	
5241	0	30234	
5242	0	30308	
5243	0	30364	
5244	0	30384	
5245	0	30440	
5246	0	30476	
5247	0	30516	
5248	0	30572	
5249	0	30608	
5250	0	30624	
5251	0	30632	
5252	0	30622	
5253	0	30648	
5254	0	30672	
5255	0	30722	
5256	0	30792	
5257	0	30840	
5258	0	30876	
5259	0	30908	
5260	0	30924	
5261	0	30938	
5262	0	30944	
5263	0	30958	
5264	0	31016	
5265	0	31070	
5266	0	31060	
5267	0	31076	
5268	0	31120	
5269	0	31136	
5270	0	31160	
5271	0	31176	
5272	0	31160	
5273	0	31144	
5274	0	31144	
5275	0	31172	
5276	0	31208	
5277	0	31192	
5278	0	31144	
5279	0	31096	
5280	0	31076	
5281	0	31146	
5282	0	31252	
5283	0	31352	
5284	0	31372	
5285	0	31312	
5286	0	31308	
5287	0	31340	
5288	0	31376	
5289	0	31412	
5290	0	31432	
5291	0	31458	
5292	0	31516	
5293	0	31592	
5294	0	31640	
5295	0	31664	
5296	0	31674	
5297	0	31610	
5298	0	31592	
5299	0	31600	
5300	0	31536	
5301	0	31436	
5302	0	31352	
5303	0	31352	
5304	0	31408	
5305	0	31518	
5306	0	31576	
5307	0	31620	
5308	0	31648	
5309	0	31616	
5310	0	31628	
5311	0	31676	
5312	0	31752	
5313	0	31820	
5314	0	31844	
5315	0	31832	
5316	0	31852	
5317	0	31892	
5318	0	31912	
5319	0	31924	
5320	0	31924	
5321	0	31916	
5322	0	31936	
5323	0	31956	
5324	0	31948	
5325	0	31948	
5326	0	31904	
5327	0	31884	
5328	0	31876	
5329	0	31876	
5330	0	31852	
5331	0	31828	
5332	0	31820	
5333	0	31792	
5334	0	31784	
5335	0	31820	
5336	0	31832	
5337	0	31840	
5338	0	31852	
5339	0	31868	
5340	0	31884	
5341	0	31924	
5342	0	31936	
5343	0	31892	
5344	0	31808	
5345	0	31778	
5346	0	31804	
5347	0	31872	
5348	0	31898	
5349	0	31964	
5350	0	32064	
5351	0	32096	
5352	0	32092	
5353	0	32032	
5354	0	31954	
5355	0	31868	
5356	0	31812	
5357	0	31804	
5358	0	31800	
5359	0	31820	
5360	0	31856	
5361	0	31896	
5362	0	31956	
5363	0	32020	
5364	0	32092	
5365	0	32140	
5366	0	32148	
5367	0	32124	
5368	0	32124	
5369	0	32106	
5370	0	32092	
5371	0	32068	
5372	0	32064	
5373	0	32092	
5374	0	32112	
5375	0	32098	
5376	0	32064	
5377	0	32064	
5378	0	32092	
5379	0	32072	
5380	0	32060	
5381	0	32052	
5382	0	32104	
5383	0	32140	
5384	0	32152	
5385	0	32128	
5386	0	32128	
5387	0	32128	
5388	0	32160	
5389	0	32132	
5390	0	32040	
5391	0	32008	
5392	0	32044	
5393	0	32130	
5394	0	32264	
5395	0	32336	
5396	0	32304	
5397	0	32224	
5398	0	32188	
5399	0	32164	
5400	0	32168	
5401	0	32176	
5402	0	32196	
5403	0	32216	
5404	0	32232	
5405	0	32262	
5406	0	32296	
5407	0	32336	
5408	0	32328	
5409	0	32320	
5410	0	32324	
5411	0	32338	
5412	0	32344	
5413	0	32304	
5414	0	32296	
5415	0	32312	
5416	0	32352	
5417	0	32360	
5418	0	32340	
5419	0	32316	
5420	0	32328	
5421	0	32320	
5422	0	32324	
5423	0	32364	
5424	0	32412	
5425	0	32450	
5426	0	32496	
5427	0	32488	
5428	0	32484	
5429	0	32472	
5430	0	32448	
5431	0	32408	
5432	0	32404	
5433	0	32456	
5434	0	32508	
5435	0	32496	
5436	0	32496	
5437	0	32456	
5438	0	32480	
5439	0	32512	
5440	0	32514	
5441	0	32516	
5442	0	32524	
5443	0	32544	
5444	0	32560	
5445	0	32544	
5446	0	32484	
5447	0	32424	
5448	0	32408	
5449	0	32378	
5450	0	32376	
5451	0	32424	
5452	0	32476	
5453	0	32512	
5454	0	32516	
5455	0	32528	
5456	0	32500	
5457	0	32448	
5458	0	32424	
5459	0	32412	
5460	0	32460	
5461	0	32552	
5462	0	32600	
5463	0	32628	
5464	0	32664	
5465	0	32686	
5466	0	32680	
5467	0	32712	
5468	0	32728	
5469	0	32732	
5470	0	32688	
5471	0	32660	
5472	0	32644	
5473	0	32684	
5474	0	32704	
5475	0	32684	
5476	0	32668	
5477	0	32636	
5478	0	32664	
5479	0	32704	
5480	0	32730	
5481	0	32744	
5482	0	32760	
5483	0	32760	
5484	0	32768	
5485	0	32756	
5486	0	32708	
5487	0	32674	
5488	0	32692	
5489	0	32728	
5490	0	32748	
5491	0	32748	
5492	0	32772	
5493	0	32772	
5494	0	32744	
5495	0	32700	
5496	0	32700	
5497	0	32708	
5498	0	32714	
5499	0	32736	
5500	0	32764	
5501	0	32812	
5502	0	32868	
5503	0	32920	
5504	0	32960	
5505	0	32980	
5506	0	32976	
5507	0	32948	
5508	0	32980	
5509	0	33008	
5510	0	32984	
5511	0	32928	
5512	0	32900	
5513	0	32872	
5514	0	32860	
5515	0	32876	
5516	0	32868	
5517	0	32848	
5518	0	32828	
5519	0	32780	
5520	0	32784	
5521	0	32812	
5522	0	32862	
5523	0	32892	
5524	0	32896	
5525	0	32896	
5526	0	32920	
5527	0	32930	
5528	0	32924	
5529	0	32926	
5530	0	32944	
5531	0	32984	
5532	0	33020	
5533	0	33040	
5534	0	33008	
5535	0	32980	
5536	0	32924	
5537	0	32932	
5538	0	32952	
5539	0	32964	
5540	0	32976	
5541	0	33004	
5542	0	33028	
5543	0	33024	
5544	0	32996	
5545	0	33004	
5546	0	33044	
5547	0	33072	
5548	0	33136	
5549	0	33196	
5550	0	33240	
5551	0	33216	
5552	0	33160	
5553	0	33132	
5554	0	33120	
5555	0	33154	
5556	0	33168	
5557	0	33168	
5558	0	33172	
5559	0	33184	
5560	0	33164	
5561	0	33160	
5562	0	33192	
5563	0	33208	
5564	0	33228	
5565	0	33216	
5566	0	33152	
5567	0	33076	
5568	0	33086	
5569	0	33136	
5570	0	33180	
5571	0	33164	
5572	0	33152	
5573	0	33156	
5574	0	33160	
5575	0	33176	
5576	0	33212	
5577	0	33224	
5578	0	33204	
5579	0	33188	
5580	0	33208	
5581	0	33236	
5582	0	33228	
5583	0	33220	
5584	0	33224	
5585	0	33288	
5586	0	33308	
5587	0	33256	
5588	0	33232	
5589	0	33224	
5590	0	33248	
5591	0	33240	
5592	0	33248	
5593	0	33224	
5594	0	33144	
5595	0	33056	
5596	0	33024	
5597	0	33024	
5598	0	33060	
5599	0	33132	
5600	0	33154	
5601	0	33144	
5602	0	33192	
5603	0	33232	
5604	0	33216	
5605	0	33210	
5606	0	33200	
5607	0	33200	
5608	0	33224	
5609	0	33280	
5610	0	33304	
5611	0	33308	
5612	0	33292	
5613	0	33268	
5614	0	33268	
5615	0	33264	
5616	0	33268	
5617	0	33308	
5618	0	33352	
5619	0	33388	
5620	0	33432	
5621	0	33476	
5622	0	33480	
5623	0	33492	
5624	0	33464	
5625	0	33466	
5626	0	33568	
5627	0	33636	
5628	0	33648	
5629	0	33696	
5630	0	33780	
5631	0	33868	
5632	0	33908	
5633	0	33940	
5634	0	33952	
5635	0	33924	
5636	0	33860	
5637	0	33824	
5638	0	33864	
5639	0	33904	
5640	0	33968	
5641	0	34016	
5642	0	33996	
5643	0	33964	
5644	0	33920	
5645	0	33888	
5646	0	33868	
5647	0	33852	
5648	0	33872	
5649	0	33936	
5650	0	34036	
5651	0	34148	
5652	0	34316	
5653	0	34552	
5654	0	34784	
5655	0	35008	
5656	0	35244	
5657	0	35488	
5658	0	35636	
5659	0	35800	
5660	0	35948	
5661	0	36120	
5662	0	36228	
5663	0	36252	
5664	0	36184	
5665	0	36072	
5666	0	35964	
5667	0	35856	
5668	0	35728	
5669	0	35628	
5670	0	35576	
5671	0	35424	
5672	0	35214	
5673	0	35016	
5674	0	34840	
5675	0	34684	
5676	0	34564	
5677	0	34496	
5678	0	34460	
5679	0	34376	
5680	0	34296	
5681	0	34168	
5682	0	34016	
5683	0	33922	
5684	0	33886	
5685	0	33860	
5686	0	33836	
5687	0	33754	
5688	0	33728	
5689	0	33736	
5690	0	33636	
5691	0	33472	
5692	0	33300	
5693	0	33152	
5694	0	33108	
5695	0	33072	
5696	0	33032	
5697	0	32972	
5698	0	32876	
5699	0	32728	
5700	0	32576	
5701	0	32464	
5702	0	32400	
5703	0	32336	
5704	0	32300	
5705	0	32288	
5706	0	32312	
5707	0	32332	
5708	0	32344	
5709	0	32368	
5710	0	32336	
5711	0	32288	
5712	0	32288	
5713	0	32260	
5714	0	32154	
5715	0	32096	
5716	0	32172	
5717	0	32284	
5718	0	32296	
5719	0	32248	
5720	0	32224	
5721	0	32264	
5722	0	32320	
5723	0	32322	
5724	0	32314	
5725	0	32352	
5726	0	32376	
5727	0	32360	
5728	0	32378	
5729	0	32360	
5730	0	32360	
5731	0	32380	
5732	0	32428	
5733	0	32452	
5734	0	32484	
5735	0	32556	
5736	0	32628	
5737	0	32676	
5738	0	32752	
5739	0	32744	
5740	0	32680	
5741	0	32640	
5742	0	32612	
5743	0	32520	
5744	0	32332	
5745	0	32100	
5746	0	31664	
5747	0	31040	
5748	0	30304	
5749	0	29644	
5750	0	29236	
5751	0	29016	
5752	0	28904	
5753	0	28960	
5754	0	29248	
5755	0	29784	
5756	0	30514	
5757	0	31368	
5758	0	32384	
5759	0	33616	
5760	0	35068	
5761	0	36756	
5762	0	38740	
5763	0	41112	
5764	0	43840	
5765	0	47028	
5766	0	50728	
5767	0	54488	
5768	0	58164	
5769	0	61260	
5770	0	62980	
5771	0	63876	
5772	0	64296	
5773	0	64456	
5774	0	64500	
5775	0	64464	
5776	0	64396	
5777	0	64288	
5778	0	64176	
5779	0	64072	
5780	0	63944	
5781	0	58776	
5782	0	53432	
5783	0	49168	
5784	0	45700	
5785	0	42832	
5786	0	40456	
5787	0	38348	
5788	0	36464	
5789	0	34760	
5790	0	33164	
5791	0	31808	
5792	0	30696	
5793	0	29778	
5794	0	29084	
5795	0	28536	
5796	0	28104	
5797	0	27810	
5798	0	27556	
5799	0	27300	
5800	0	27184	
5801	0	27136	
5802	0	27194	
5803	0	27368	
5804	0	27658	
5805	0	27960	
5806	0	28248	
5807	0	28544	
5808	0	28824	
5809	0	29056	
5810	0	29244	
5811	0	29372	
5812	0	29496	
5813	0	29620	
5814	0	29664	
5815	0	29632	
5816	0	29584	
5817	0	29516	
5818	0	29452	
5819	0	29396	
5820	0	29380	
5821	0	29400	
5822	0	29390	
5823	0	29384	
5824	0	29440	
5825	0	29468	
5826	0	29514	
5827	0	29552	
5828	0	29576	
5829	0	29616	
5830	0	29632	
5831	0	29624	
5832	0	29640	
5833	0	29660	
5834	0	29644	
5835	0	29700	
5836	0	29768	
5837	0	29856	
5838	0	29892	
5839	0	29896	
5840	0	29900	
5841	0	29992	
5842	0	30072	
5843	0	30140	
5844	0	30196	
5845	0	30216	
5846	0	30192	
5847	0	30210	
5848	0	30228	
5849	0	30234	
5850	0	30220	
5851	0	30252	
5852	0	30256	
5853	0	30210	
5854	0	30208	
5855	0	30208	
5856	0	30248	
5857	0	30344	
5858	0	30456	
5859	0	30552	
5860	0	30632	
5861	0	30700	
5862	0	30736	
5863	0	30760	
5864	0	30828	
5865	0	30872	
5866	0	30888	
5867	0	30920	
5868	0	30964	
5869	0	31056	
5870	0	31140	
5871	0	31200	
5872	0	31224	
5873	0	31232	
5874	0	31208	
5875	0	31210	
5876	0	31280	
5877	0	31328	
5878	0	31380	
5879	0	31428	
5880	0	31472	
5881	0	31456	
5882	0	31482	
5883	0	31536	
5884	0	31560	
5885	0	31564	
5886	0	31576	
5887	0	31616	
5888	0	31676	
5889	0	31754	
5890	0	31802	
5891	0	31832	
5892	0	31864	
5893	0	31904	
5894	0	31972	
5895	0	32056	
5896	0	32088	
5897	0	32120	
5898	0	32172	
5899	0	32208	
5900	0	32284	
5901	0	32384	
5902	0	32444	
5903	0	32476	
5904	0	32488	
5905	0	32576	
5906	0	32700	
5907	0	32828	
5908	0	32812	
5909	0	32762	
5910	0	32736	
5911	0	32760	
5912	0	32864	
5913	0	32960	
5914	0	33032	
5915	0	33064	
5916	0	33072	
5917	0	33124	
5918	0	33216	
5919	0	33304	
5920	0	33372	
5921	0	33468	
5922	0	33496	
5923	0	33500	
5924	0	33560	
5925	0	33592	
5926	0	33640	
5927	0	33700	
5928	0	33692	
5929	0	33722	
5930	0	33788	
5931	0	33900	
5932	0	34012	
5933	0	34120	
5934	0	34202	
5935	0	34232	
5936	0	34284	
5937	0	34344	
5938	0	34416	
5939	0	34464	
5940	0	34528	
5941	0	34592	
5942	0	34656	
5943	0	34668	
5944	0	34720	
5945	0	34836	
5946	0	34948	
5947	0	35032	
5948	0	35072	
5949	0	35114	
5950	0	35232	
5951	0	35360	
5952	0	35432	
5953	0	35500	
5954	0	35584	
5955	0	35680	
5956	0	35728	
5957	0	35784	
5958	0	35840	
5959	0	35916	
5960	0	36024	
5961	0	36048	
5962	0	36068	
5963	0	36122	
5964	0	36168	
5965	0	36288	
5966	0	36424	
5967	0	36572	
5968	0	36604	
5969	0	36608	
5970	0	36608	
5971	0	36704	
5972	0	36792	
5973	0	36888	
5974	0	37012	
5975	0	37104	
5976	0	37120	
5977	0	37168	
5978	0	37208	
5979	0	37248	
5980	0	37288	
5981	0	37352	
5982	0	37392	
5983	0	37392	
5984	0	37380	
5985	0	37314	
5986	0	37334	
5987	0	37344	
5988	0	37368	
5989	0	37408	
5990	0	37456	
5991	0	37462	
5992	0	37432	
5993	0	37404	
5994	0	37380	
5995	0	37372	
5996	0	37344	
5997	0	37328	
5998	0	37272	
5999	0	37224	
6000	0	37240	
6001	0	37284	
6002	0	37292	
6003	0	37300	
6004	0	37272	
6005	0	37256	
6006	0	37240	
6007	0	37196	
6008	0	37152	
6009	0	37108	
6010	0	37072	
6011	0	36992	
6012	0	36892	
6013	0	36748	
6014	0	36624	
6015	0	36540	
6016	0	36452	
6017	0	36288	
6018	0	36060	
6019	0	35868	
6020	0	35732	
6021	0	35642	
6022	0	35580	
6023	0	35488	
6024	0	35320	
6025	0	35104	
6026	0	34924	
6027	0	34746	
6028	0	34556	
6029	0	34336	
6030	0	34096	
6031	0	33846	
6032	0	33632	
6033	0	33408	
6034	0	33138	
6035	0	32876	
6036	0	32688	
6037	0	32492	
6038	0	32312	
6039	0	32156	
6040	0	31992	
6041	0	31828	
6042	0	31622	
6043	0	31364	
6044	0	31120	
6045	0	30886	
6046	0	30708	
6047	0	30544	
6048	0	30356	
6049	0	30176	
6050	0	30048	
6051	0	29966	
6052	0	29856	
6053	0	29736	
6054	0	29636	
6055	0	29548	
6056	0	29448	
6057	0	29320	
6058	0	29216	
6059	0	29106	
6060	0	29000	
6061	0	28920	
6062	0	28880	
6063	0	28808	
6064	0	28742	
6065	0	28676	
6066	0	28592	
6067	0	28512	
6068	0	28420	
6069	0	28364	
6070	0	28320	
6071	0	28288	
6072	0	28280	
6073	0	28232	
6074	0	28220	
6075	0	28244	
6076	0	28292	
6077	0	28288	
6078	0	28268	
6079	0	28192	
6080	0	28156	
6081	0	28164	
6082	0	28172	
6083	0	28128	
6084	0	28080	
6085	0	28020	
6086	0	27984	
6087	0	27972	
6088	0	28004	
6089	0	28060	
6090	0	28128	
6091	0	28208	
6092	0	28269	
6093	0	28292	
6094	0	28296	
6095	0	28304	
6096	0	28328	
6097	0	28296	
6098	0	28300	
6099	0	28320	
6100	0	28344	
6101	0	28382	
6102	0	28424	
6103	0	28472	
6104	0	28512	
6105	0	28578	
6106	0	28624	
6107	0	28648	
6108	0	28648	
6109	0	28612	
6110	0	28588	
6111	0	28608	
6112	0	28668	
6113	0	28736	
6114	0	28800	
6115	0	28864	
6116	0	28920	
6117	0	28936	
6118	0	28952	
6119	0	28928	
6120	0	28968	
6121	0	29004	
6122	0	28996	
6123	0	29000	
6124	0	29032	
6125	0	29080	
6126	0	29154	
6127	0	29216	
6128	0	29292	
6129	0	29372	
6130	0	29398	
6131	0	29416	
6132	0	29468	
6133	0	29548	
6134	0	29552	
6135	0	29556	
6136	0	29612	
6137	0	29680	
6138	0	29700	
6139	0	29736	
6140	0	29792	
6141	0	29864	
6142	0	29888	
6143	0	29914	
6144	0	29960	
6145	0	29992	
6146	0	30032	
6147	0	30128	
6148	0	30192	
6149	0	30180	
6150	0	30172	
6151	0	30204	
6152	0	30256	
6153	0	30292	
6154	0	30328	
6155	0	30336	
6156	0	30352	
6157	0	30384	
6158	0	30408	
6159	0	30424	
6160	0	30468	
6161	0	30528	
6162	0	30524	
6163	0	30492	
6164	0	30536	
6165	0	30584	
6166	0	30604	
6167	0	30624	
6168	0	30640	
6169	0	30676	
6170	0	30700	
6171	0	30756	
6172	0	30740	
6173	0	30736	
6174	0	30748	
6175	0	30768	
6176	0	30796	
6177	0	30788	
6178	0	30780	
6179	0	30784	
6180	0	30796	
6181	0	30872	
6182	0	30912	
6183	0	30964	
6184	0	30992	
6185	0	31004	
6186	0	31056	
6187	0	31092	
6188	0	31102	
6189	0	31104	
6190	0	31080	
6191	0	31052	
6192	0	31058	
6193	0	31076	
6194	0	31096	
6195	0	31104	
6196	0	31200	
6197	0	31296	
6198	0	31360	
6199	0	31384	
6200	0	31372	
6201	0	31252	
6202	0	31208	
6203	0	31248	
6204	0	31322	
6205	0	31324	
6206	0	31352	
6207	0	31348	
6208	0	31320	
6209	0	31360	
6210	0	31432	
6211	0	31432	
6212	0	31416	
6213	0	31360	
6214	0	31344	
6215	0	31394	
6216	0	31420	
6217	0	31434	
6218	0	31412	
6219	0	31408	
6220	0	31424	
6221	0	31448	
6222	0	31424	
6223	0	31412	
6224	0	31384	
6225	0	31384	
6226	0	31404	
6227	0	31428	
6228	0	31444	
6229	0	31440	
6230	0	31396	
6231	0	31356	
6232	0	31316	
6233	0	31276	
6234	0	31268	
6235	0	31284	
6236	0	31276	
6237	0	31272	
6238	0	31260	
6239	0	31288	
6240	0	31360	
6241	0	31412	
6242	0	31468	
6243	0	31520	
6244	0	31496	
6245	0	31482	
6246	0	31484	
6247	0	31456	
6248	0	31432	
6249	0	31452	
6250	0	31528	
6251	0	31564	
6252	0	31556	
6253	0	31536	
6254	0	31472	
6255	0	31482	
6256	0	31500	
6257	0	31512	
6258	0	31504	
6259	0	31460	
6260	0	31448	
6261	0	31500	
6262	0	31544	
6263	0	31508	
6264	0	31460	
6265	0	31480	
6266	0	31524	
6267	0	31548	
6268	0	31584	
6269	0	31636	
6270	0	31692	
6271	0	31736	
6272	0	31740	
6273	0	31672	
6274	0	31628	
6275	0	31600	
6276	0	31608	
6277	0	31642	
6278	0	31636	
6279	0	31634	
6280	0	31642	
6281	0	31656	
6282	0	31668	
6283	0	31656	
6284	0	31664	
6285	0	31644	
6286	0	31622	
6287	0	31600	
6288	0	31588	
6289	0	31596	
6290	0	31616	
6291	0	31632	
6292	0	31640	
6293	0	31600	
6294	0	31584	
6295	0	31608	
6296	0	31616	
6297	0	31616	
6298	0	31624	
6299	0	31652	
6300	0	31692	
6301	0	31748	
6302	0	31752	
6303	0	31720	
6304	0	31656	
6305	0	31600	
6306	0	31588	
6307	0	31568	
6308	0	31536	
6309	0	31472	
6310	0	31440	
6311	0	31480	
6312	0	31540	
6313	0	31616	
6314	0	31652	
6315	0	31692	
6316	0	31764	
6317	0	31786	
6318	0	31798	
6319	0	31792	
6320	0	31844	
6321	0	31848	
6322	0	31848	
6323	0	31856	
6324	0	31816	
6325	0	31736	
6326	0	31696	
6327	0	31716	
6328	0	31776	
6329	0	31800	
6330	0	31812	
6331	0	31792	
6332	0	31776	
6333	0	31776	
6334	0	31808	
6335	0	31896	
6336	0	31940	
6337	0	31890	
6338	0	31840	
6339	0	31796	
6340	0	31802	
6341	0	31784	
6342	0	31772	
6343	0	31744	
6344	0	31732	
6345	0	31752	
6346	0	31792	
6347	0	31770	
6348	0	31760	
6349	0	31730	
6350	0	31712	
6351	0	31696	
6352	0	31744	
6353	0	31776	
6354	0	31788	
6355	0	31816	
6356	0	31800	
6357	0	31776	
6358	0	31810	
6359	0	31800	
6360	0	31800	
6361	0	31832	
6362	0	31868	
6363	0	31928	
6364	0	31948	
6365	0	31992	
6366	0	32072	
6367	0	32092	
6368	0	32088	
6369	0	32068	
6370	0	32036	
6371	0	31988	
6372	0	31988	
6373	0	32056	
6374	0	32120	
6375	0	32156	
6376	0	32104	
6377	0	32060	
6378	0	32064	
6379	0	32084	
6380	0	32056	
6381	0	31992	
6382	0	31980	
6383	0	32018	
6384	0	32004	
6385	0	31964	
6386	0	32000	
6387	0	32024	
6388	0	32034	
6389	0	32068	
6390	0	32104	
6391	0	32144	
6392	0	32146	
6393	0	32148	
6394	0	32144	
6395	0	32152	
6396	0	32164	
6397	0	32196	
6398	0	32232	
6399	0	32200	
6400	0	32152	
6401	0	32096	
6402	0	32048	
6403	0	32024	
6404	0	32002	
6405	0	31976	
6406	0	32020	
6407	0	32048	
6408	0	32056	
6409	0	32072	
6410	0	32152	
6411	0	32180	
6412	0	32186	
6413	0	32224	
6414	0	32296	
6415	0	32338	
6416	0	32380	
6417	0	32400	
6418	0	32424	
6419	0	32392	
6420	0	32400	
6421	0	32448	
6422	0	32456	
6423	0	32436	
6424	0	32412	
6425	0	32396	
6426	0	32364	
6427	0	32368	
6428	0	32392	
6429	0	32404	
6430	0	32348	
6431	0	32308	
6432	0	32292	
6433	0	32288	
6434	0	32320	
6435	0	32340	
6436	0	32324	
6437	0	32352	
6438	0	32380	
6439	0	32420	
6440	0	32472	
6441	0	32532	
6442	0	32600	
6443	0	32696	
6444	0	32828	
6445	0	32904	
6446	0	32972	
6447	0	33044	
6448	0	33120	
6449	0	33168	
6450	0	33232	
6451	0	33280	
6452	0	33260	
6453	0	33256	
6454	0	33308	
6455	0	33392	
6456	0	33452	
6457	0	33384	
6458	0	33340	
6459	0	33296	
6460	0	33248	
6461	0	33208	
6462	0	33200	
6463	0	33168	
6464	0	33136	
6465	0	33116	
6466	0	33136	
6467	0	33198	
6468	0	33320	
6469	0	33472	
6470	0	33674	
6471	0	33904	
6472	0	34160	
6473	0	34416	
6474	0	34664	
6475	0	34848	
6476	0	34964	
6477	0	35088	
6478	0	35256	
6479	0	35392	
6480	0	35440	
6481	0	35432	
6482	0	35380	
6483	0	35296	
6484	0	35200	
6485	0	35112	
6486	0	35076	
6487	0	35040	
6488	0	34946	
6489	0	34796	
6490	0	34624	
6491	0	34472	
6492	0	34320	
6493	0	34168	
6494	0	34096	
6495	0	34036	
6496	0	33856	
6497	0	33684	
6498	0	33580	
6499	0	33472	
6500	0	33416	
6501	0	33360	
6502	0	33296	
6503	0	33204	
6504	0	33112	
6505	0	33004	
6506	0	32928	
6507	0	32864	
6508	0	32720	
6509	0	32576	
6510	0	32404	
6511	0	32244	
6512	0	32236	
6513	0	32272	
6514	0	32250	
6515	0	32224	
6516	0	32164	
6517	0	31988	
6518	0	31856	
6519	0	31738	
6520	0	31652	
6521	0	31608	
6522	0	31620	
6523	0	31636	
6524	0	31628	
6525	0	31644	
6526	0	31642	
6527	0	31648	
6528	0	31714	
6529	0	31692	
6530	0	31628	
6531	0	31528	
6532	0	31456	
6533	0	31428	
6534	0	31448	
6535	0	31476	
6536	0	31536	
6537	0	31612	
6538	0	31644	
6539	0	31648	
6540	0	31668	
6541	0	31704	
6542	0	31704	
6543	0	31704	
6544	0	31720	
6545	0	31752	
6546	0	31776	
6547	0	31800	
6548	0	31796	
6549	0	31828	
6550	0	31872	
6551	0	31868	
6552	0	31872	
6553	0	31908	
6554	0	31944	
6555	0	31996	
6556	0	31984	
6557	0	31916	
6558	0	31860	
6559	0	31736	
6560	0	31588	
6561	0	31376	
6562	0	30972	
6563	0	30440	
6564	0	29764	
6565	0	29096	
6566	0	28636	
6567	0	28448	
6568	0	28406	
6569	0	28496	
6570	0	28852	
6571	0	29488	
6572	0	30316	
6573	0	31276	
6574	0	32312	
6575	0	33544	
6576	0	35040	
6577	0	36708	
6578	0	38612	
6579	0	41000	
6580	0	43780	
6581	0	46976	
6582	0	50544	
6583	0	54208	
6584	0	57780	
6585	0	61104	
6586	0	63200	
6587	0	64312	
6588	0	64840	
6589	0	65080	
6590	0	65160	
6591	0	65136	
6592	0	65064	
6593	0	64976	
6594	0	64852	
6595	0	64728	
6596	0	59304	
6597	0	53400	
6598	0	48368	
6599	0	44264	
6600	0	40972	
6601	0	38320	
6602	0	36168	
6603	0	34340	
6604	0	32776	
6605	0	31328	
6606	0	29988	
6607	0	28674	
6608	0	27584	
6609	0	26848	
6610	0	26396	
6611	0	26078	
6612	0	25908	
6613	0	25844	
6614	0	25794	
6615	0	25716	
6616	0	25666	
6617	0	25796	
6618	0	26040	
6619	0	26372	
6620	0	26764	
6621	0	27216	
6622	0	27616	
6623	0	27960	
6624	0	28284	
6625	0	28576	
6626	0	28832	
6627	0	29048	
6628	0	29200	
6629	0	29336	
6630	0	29432	
6631	0	29504	
6632	0	29556	
6633	0	29592	
6634	0	29604	
6635	0	29616	
6636	0	29680	
6637	0	29792	
6638	0	29896	
6639	0	29908	
6640	0	29852	
6641	0	29824	
6642	0	29810	
6643	0	29800	
6644	0	29816	
6645	0	29860	
6646	0	29922	
6647	0	29932	
6648	0	29946	
6649	0	30000	
6650	0	30064	
6651	0	30056	
6652	0	30040	
6653	0	30076	
6654	0	30144	
6655	0	30264	
6656	0	30348	
6657	0	30392	
6658	0	30380	
6659	0	30336	
6660	0	30328	
6661	0	30324	
6662	0	30328	
6663	0	30370	
6664	0	30420	
6665	0	30476	
6666	0	30548	
6667	0	30572	
6668	0	30536	
6669	0	30542	
6670	0	30544	
6671	0	30560	
6672	0	30644	
6673	0	30748	
6674	0	30874	
6675	0	30948	
6676	0	31036	
6677	0	31130	
6678	0	31224	
6679	0	31312	
6680	0	31376	
6681	0	31428	
6682	0	31496	
6683	0	31544	
6684	0	31544	
6685	0	31484	
6686	0	31480	
6687	0	31476	
6688	0	31440	
6689	0	31384	
6690	0	31384	
6691	0	31452	
6692	0	31588	
6693	0	31712	
6694	0	31820	
6695	0	31876	
6696	0	31928	
6697	0	32052	
6698	0	32112	
6699	0	32066	
6700	0	32066	
6701	0	32084	
6702	0	32112	
6703	0	32104	
6704	0	32100	
6705	0	32148	
6706	0	32240	
6707	0	32336	
6708	0	32392	
6709	0	32452	
6710	0	32512	
6711	0	32584	
6712	0	32640	
6713	0	32660	
6714	0	32680	
6715	0	32708	
6716	0	32744	
6717	0	32776	
6718	0	32864	
6719	0	32956	
6720	0	33034	
6721	0	33080	
6722	0	33096	
6723	0	33140	
6724	0	33196	
6725	0	33240	
6726	0	33260	
6727	0	33288	
6728	0	33368	
6729	0	33456	
6730	0	33561	
6731	0	33636	
6732	0	33688	
6733	0	33744	
6734	0	33808	
6735	0	33826	
6736	0	33826	
6737	0	33872	
6738	0	33876	
6739	0	33932	
6740	0	33992	
6741	0	34084	
6742	0	34152	
6743	0	34228	
6744	0	34298	
6745	0	34320	
6746	0	34288	
6747	0	34298	
6748	0	34362	
6749	0	34474	
6750	0	34576	
6751	0	34652	
6752	0	34700	
6753	0	34748	
6754	0	34802	
6755	0	34888	
6756	0	34956	
6757	0	35016	
6758	0	35088	
6759	0	35162	
6760	0	35242	
6761	0	35360	
6762	0	35428	
6763	0	35528	
6764	0	35560	
6765	0	35624	
6766	0	35720	
6767	0	35880	
6768	0	35988	
6769	0	36098	
6770	0	36192	
6771	0	36284	
6772	0	36388	
6773	0	36432	
6774	0	36512	
6775	0	36560	
6776	0	36664	
6777	0	36748	
6778	0	36812	
6779	0	36884	
6780	0	36960	
6781	0	37038	
6782	0	37088	
6783	0	37152	
6784	0	37256	
6785	0	37320	
6786	0	37392	
6787	0	37452	
6788	0	37524	
6789	0	37630	
6790	0	37712	
6791	0	37692	
6792	0	37664	
6793	0	37732	
6794	0	37816	
6795	0	37876	
6796	0	37944	
6797	0	38036	
6798	0	38100	
6799	0	38092	
6800	0	38084	
6801	0	38028	
6802	0	37984	
6803	0	37944	
6804	0	37916	
6805	0	37912	
6806	0	37936	
6807	0	37944	
6808	0	37964	
6809	0	37996	
6810	0	38044	
6811	0	38056	
6812	0	38056	
6813	0	38032	
6814	0	37996	
6815	0	37956	
6816	0	37948	
6817	0	37908	
6818	0	37856	
6819	0	37852	
6820	0	37832	
6821	0	37768	
6822	0	37672	
6823	0	37536	
6824	0	37440	
6825	0	37372	
6826	0	37324	
6827	0	37220	
6828	0	37104	
6829	0	36950	
6830	0	36808	
6831	0	36704	
6832	0	36608	
6833	0	36496	
6834	0	36376	
6835	0	36216	
6836	0	36044	
6837	0	35856	
6838	0	35628	
6839	0	35420	
6840	0	35200	
6841	0	35028	
6842	0	34848	
6843	0	34632	
6844	0	34408	
6845	0	34196	
6846	0	33992	
6847	0	33764	
6848	0	33544	
6849	0	33268	
6850	0	32956	
6851	0	32712	
6852	0	32540	
6853	0	32360	
6854	0	32172	
6855	0	32020	
6856	0	31856	
6857	0	31672	
6858	0	31482	
6859	0	31308	
6860	0	31124	
6861	0	30920	
6862	0	30748	
6863	0	30604	
6864	0	30428	
6865	0	30256	
6866	0	30136	
6867	0	29956	
6868	0	29816	
6869	0	29708	
6870	0	29580	
6871	0	29442	
6872	0	29316	
6873	0	29228	
6874	0	29136	
6875	0	29052	
6876	0	28940	
6877	0	28828	
6878	0	28756	
6879	0	28688	
6880	0	28628	
6881	0	28608	
6882	0	28576	
6883	0	28560	
6884	0	28508	
6885	0	28464	
6886	0	28420	
6887	0	28388	
6888	0	28352	
6889	0	28300	
6890	0	28266	
6891	0	28236	
6892	0	28194	
6893	0	28176	
6894	0	28148	
6895	0	28158	
6896	0	28140	
6897	0	28124	
6898	0	28120	
6899	0	28120	
6900	0	28128	
6901	0	28124	
6902	0	28144	
6903	0	28172	
6904	0	28200	
6905	0	28244	
6906	0	28276	
6907	0	28276	
6908	0	28224	
6909	0	28224	
6910	0	28328	
6911	0	28384	
6912	0	28350	
6913	0	28280	
6914	0	28212	
6915	0	28156	
6916	0	28176	
6917	0	28236	
6918	0	28336	
6919	0	28432	
6920	0	28484	
6921	0	28536	
6922	0	28592	
6923	0	28672	
6924	0	28724	
6925	0	28732	
6926	0	28704	
6927	0	28708	
6928	0	28736	
6929	0	28768	
6930	0	28800	
6931	0	28832	
6932	0	28864	
6933	0	28896	
6934	0	28932	
6935	0	28964	
6936	0	29040	
6937	0	29132	
6938	0	29236	
6939	0	29272	
6940	0	29270	
6941	0	29256	
6942	0	29280	
6943	0	29348	
6944	0	29396	
6945	0	29448	
6946	0	29496	
6947	0	29552	
6948	0	29584	
6949	0	29616	
6950	0	29608	
6951	0	29644	
6952	0	29700	
6953	0	29746	
6954	0	29752	
6955	0	29776	
6956	0	29832	
6957	0	29904	
6958	0	29984	
6959	0	30016	
6960	0	30016	
6961	0	30032	
6962	0	30068	
6963	0	30096	
6964	0	30128	
6965	0	30192	
6966	0	30268	
6967	0	30276	
6968	0	30200	
6969	0	30148	
6970	0	30188	
6971	0	30240	
6972	0	30320	
6973	0	30416	
6974	0	30472	
6975	0	30512	
6976	0	30568	
6977	0	30580	
6978	0	30568	
6979	0	30592	
6980	0	30624	
6981	0	30720	
6982	0	30784	
6983	0	30824	
6984	0	30840	
6985	0	30868	
6986	0	30868	
6987	0	30864	
6988	0	30900	
6989	0	30912	
6990	0	30884	
6991	0	30856	
6992	0	30856	
6993	0	30896	
6994	0	30944	
6995	0	31048	
6996	0	31156	
6997	0	31184	
6998	0	31144	
6999	0	31112	
7000	0	31136	
7001	0	31148	
7002	0	31192	
7003	0	31228	
7004	0	31276	
7005	0	31352	
7006	0	31396	
7007	0	31448	
7008	0	31504	
7009	0	31528	
7010	0	31508	
7011	0	31508	
7012	0	31532	
7013	0	31568	
7014	0	31580	
7015	0	31594	
7016	0	31604	
7017	0	31592	
7018	0	31592	
7019	0	31572	
7020	0	31576	
7021	0	31584	
7022	0	31548	
7023	0	31516	
7024	0	31556	
7025	0	31584	
7026	0	31584	
7027	0	31548	
7028	0	31564	
7029	0	31616	
7030	0	31632	
7031	0	31616	
7032	0	31584	
7033	0	31580	
7034	0	31536	
7035	0	31460	
7036	0	31408	
7037	0	31408	
7038	0	31428	
7039	0	31504	
7040	0	31552	
7041	0	31552	
7042	0	31522	
7043	0	31516	
7044	0	31564	
7045	0	31620	
7046	0	31656	
7047	0	31680	
7048	0	31648	
7049	0	31612	
7050	0	31576	
7051	0	31564	
7052	0	31612	
7053	0	31668	
7054	0	31680	
7055	0	31664	
7056	0	31674	
7057	0	31656	
7058	0	31652	
7059	0	31656	
7060	0	31668	
7061	0	31672	
7062	0	31674	
7063	0	31668	
7064	0	31648	
7065	0	31648	
7066	0	31692	
7067	0	31704	
7068	0	31692	
7069	0	31676	
7070	0	31680	
7071	0	31720	
7072	0	31748	
7073	0	31734	
7074	0	31688	
7075	0	31680	
7076	0	31716	
7077	0	31800	
7078	0	31848	
7079	0	31896	
7080	0	31900	
7081	0	31868	
7082	0	31824	
7083	0	31732	
7084	0	31688	
7085	0	31664	
7086	0	31680	
7087	0	31764	
7088	0	31812	
7089	0	31792	
7090	0	31796	
7091	0	31816	
7092	0	31852	
7093	0	31888	
7094	0	31892	
7095	0	31884	
7096	0	31868	
7097	0	31848	
7098	0	31848	
7099	0	31876	
7100	0	31892	
7101	0	31860	
7102	0	31826	
7103	0	31804	
7104	0	31862	
7105	0	31868	
7106	0	31876	
7107	0	31896	
7108	0	31896	
7109	0	31908	
7110	0	31956	
7111	0	32010	
7112	0	31996	
7113	0	31980	
7114	0	32000	
7115	0	31996	
7116	0	32012	
7117	0	32024	
7118	0	31992	
7119	0	31976	
7120	0	31928	
7121	0	31924	
7122	0	32016	
7123	0	32060	
7124	0	32080	
7125	0	32100	
7126	0	32088	
7127	0	32048	
7128	0	32064	
7129	0	32100	
7130	0	32148	
7131	0	32220	
7132	0	32244	
7133	0	32224	
7134	0	32264	
7135	0	32288	
7136	0	32300	
7137	0	32264	
7138	0	32164	
7139	0	32172	
7140	0	32180	
7141	0	32218	
7142	0	32304	
7143	0	32348	
7144	0	32360	
7145	0	32380	
7146	0	32368	
7147	0	32298	
7148	0	32236	
7149	0	32296	
7150	0	32356	
7151	0	32312	
7152	0	32296	
7153	0	32312	
7154	0	32332	
7155	0	32320	
7156	0	32312	
7157	0	32328	
7158	0	32360	
7159	0	32448	
7160	0	32538	
7161	0	32500	
7162	0	32484	
7163	0	32476	
7164	0	32412	
7165	0	32412	
7166	0	32432	
7167	0	32428	
7168	0	32448	
7169	0	32464	
7170	0	32468	
7171	0	32488	
7172	0	32484	
7173	0	32540	
7174	0	32548	
7175	0	32520	
7176	0	32520	
7177	0	32556	
7178	0	32584	
7179	0	32624	
7180	0	32680	
7181	0	32744	
7182	0	32784	
7183	0	32830	
7184	0	32856	
7185	0	32924	
7186	0	32996	
7187	0	33020	
7188	0	33088	
7189	0	33184	
7190	0	33280	
7191	0	33440	
7192	0	33576	
7193	0	33696	
7194	0	33776	
7195	0	33828	
7196	0	33832	
7197	0	33752	
7198	0	33752	
7199	0	33752	
7200	0	33688	
7201	0	33600	
7202	0	33524	
7203	0	33446	
7204	0	33410	
7205	0	33452	
7206	0	33450	
7207	0	33396	
7208	0	33408	
7209	0	33460	
7210	0	33604	
7211	0	33788	
7212	0	33996	
7213	0	34240	
7214	0	34436	
7215	0	34632	
7216	0	34840	
7217	0	35024	
7218	0	35204	
7219	0	35332	
7220	0	35420	
7221	0	35508	
7222	0	35560	
7223	0	35536	
7224	0	35484	
7225	0	35400	
7226	0	35292	
7227	0	35204	
7228	0	35192	
7229	0	35128	
7230	0	35028	
7231	0	34880	
7232	0	34684	
7233	0	34560	
7234	0	34456	
7235	0	34316	
7236	0	34144	
7237	0	33956	
7238	0	33748	
7239	0	33584	
7240	0	33520	
7241	0	33516	
7242	0	33492	
7243	0	33464	
7244	0	33452	
7245	0	33336	
7246	0	33226	
7247	0	33152	
7248	0	33048	
7249	0	32956	
7250	0	32848	
7251	0	32760	
7252	0	32684	
7253	0	32608	
7254	0	32552	
7255	0	32436	
7256	0	32320	
7257	0	32184	
7258	0	32048	
7259	0	31916	
7260	0	31842	
7261	0	31708	
7262	0	31596	
7263	0	31520	
7264	0	31464	
7265	0	31444	
7266	0	31452	
7267	0	31514	
7268	0	31576	
7269	0	31584	
7270	0	31556	
7271	0	31548	
7272	0	31540	
7273	0	31552	
7274	0	31560	
7275	0	31552	
7276	0	31536	
7277	0	31508	
7278	0	31496	
7279	0	31536	
7280	0	31636	
7281	0	31712	
7282	0	31748	
7283	0	31796	
7284	0	31784	
7285	0	31748	
7286	0	31732	
7287	0	31668	
7288	0	31644	
7289	0	31688	
7290	0	31712	
7291	0	31792	
7292	0	31848	
7293	0	31912	
7294	0	31956	
7295	0	31952	
7296	0	31968	
7297	0	32028	
7298	0	32040	
7299	0	32052	
7300	0	32060	
7301	0	31968	
7302	0	31808	
7303	0	31584	
7304	0	31282	
7305	0	30836	
7306	0	30264	
7307	0	29598	
7308	0	29056	
7309	0	28812	
7310	0	28716	
7311	0	28660	
7312	0	28864	
7313	0	29232	
7314	0	29852	
7315	0	30616	
7316	0	31516	
7317	0	32578	
7318	0	33904	
7319	0	35548	
7320	0	37352	
7321	0	39506	
7322	0	42012	
7323	0	44904	
7324	0	48356	
7325	0	52104	
7326	0	55784	
7327	0	59360	
7328	0	62272	
7329	0	63832	
7330	0	64648	
7331	0	65040	
7332	0	65176	
7333	0	65210	
7334	0	65140	
7335	0	65072	
7336	0	64960	
7337	0	64848	
7338	0	64712	
7339	0	59456	
7340	0	53720	
7341	0	48976	
7342	0	45112	
7343	0	41980	
7344	0	39492	
7345	0	37360	
7346	0	35416	
7347	0	33684	
7348	0	32080	
7349	0	30632	
7350	0	29424	
7351	0	28544	
7352	0	27888	
7353	0	27410	
7354	0	27028	
7355	0	26820	
7356	0	26724	
7357	0	26624	
7358	0	26528	
7359	0	26456	
7360	0	26560	
7361	0	26828	
7362	0	27112	
7363	0	27448	
7364	0	27852	
7365	0	28268	
7366	0	28592	
7367	0	28882	
7368	0	29076	
7369	0	29312	
7370	0	29480	
7371	0	29560	
7372	0	29672	
7373	0	29740	
7374	0	29760	
7375	0	29772	
7376	0	29704	
7377	0	29632	
7378	0	29580	
7379	0	29520	
7380	0	29470	
7381	0	29428	
7382	0	29496	
7383	0	29578	
7384	0	29616	
7385	0	29648	
7386	0	29688	
7387	0	29732	
7388	0	29720	
7389	0	29744	
7390	0	29816	
7391	0	29860	
7392	0	29820	
7393	0	29760	
7394	0	29728	
7395	0	29736	
7396	0	29780	
7397	0	29892	
7398	0	29964	
7399	0	29980	
7400	0	29978	
7401	0	29946	
7402	0	30028	
7403	0	30084	
7404	0	30132	
7405	0	30176	
7406	0	30216	
7407	0	30282	
7408	0	30332	
7409	0	30392	
7410	0	30460	
7411	0	30520	
7412	0	30576	
7413	0	30664	
7414	0	30776	
7415	0	30848	
7416	0	30900	
7417	0	30980	
7418	0	31030	
7419	0	30996	
7420	0	30948	
7421	0	30980	
7422	0	31008	
7423	0	31040	
7424	0	31072	
7425	0	31108	
7426	0	31088	
7427	0	31104	
7428	0	31112	
7429	0	31148	
7430	0	31224	
7431	0	31348	
7432	0	31304	
7433	0	31294	
7434	0	31364	
7435	0	31432	
7436	0	31464	
7437	0	31516	
7438	0	31608	
7439	0	31642	
7440	0	31680	
7441	0	31724	
7442	0	31792	
7443	0	31852	
7444	0	31928	
7445	0	31962	
7446	0	31972	
7447	0	31992	
7448	0	32032	
7449	0	32088	
7450	0	32124	
7451	0	32176	
7452	0	32216	
7453	0	32208	
7454	0	32238	
7455	0	32274	
7456	0	32296	
7457	0	32344	
7458	0	32392	
7459	0	32392	
7460	0	32432	
7461	0	32456	
7462	0	32476	
7463	0	32548	
7464	0	32600	
7465	0	32644	
7466	0	32712	
7467	0	32824	
7468	0	32912	
7469	0	33004	
7470	0	33084	
7471	0	33200	
7472	0	33256	
7473	0	33276	
7474	0	33352	
7475	0	33472	
7476	0	33524	
7477	0	33568	
7478	0	33608	
7479	0	33648	
7480	0	33696	
7481	0	33740	
7482	0	33784	
7483	0	33816	
7484	0	33824	
7485	0	33844	
7486	0	33908	
7487	0	33952	
7488	0	33952	
7489	0	33992	
7490	0	34084	
7491	0	34152	
7492	0	34224	
7493	0	34256	
7494	0	34216	
7495	0	34232	
7496	0	34332	
7497	0	34434	
7498	0	34528	
7499	0	34648	
7500	0	34744	
7501	0	34876	
7502	0	34884	
7503	0	34902	
7504	0	34960	
7505	0	35048	
7506	0	35144	
7507	0	35264	
7508	0	35384	
7509	0	35488	
7510	0	35576	
7511	0	35680	
7512	0	35800	
7513	0	35896	
7514	0	35988	
7515	0	36128	
7516	0	36276	
7517	0	36424	
7518	0	36516	
7519	0	36520	
7520	0	36544	
7521	0	36612	
7522	0	36708	
7523	0	36832	
7524	0	36980	
7525	0	37104	
7526	0	37148	
7527	0	37152	
7528	0	37150	
7529	0	37196	
7530	0	37320	
7531	0	37424	
7532	0	37492	
7533	0	37568	
7534	0	37588	
7535	0	37560	
7536	0	37496	
7537	0	37464	
7538	0	37394	
7539	0	37356	
7540	0	37408	
7541	0	37496	
7542	0	37600	
7543	0	37692	
7544	0	37780	
7545	0	37864	
7546	0	37892	
7547	0	37980	
7548	0	38028	
7549	0	38018	
7550	0	38028	
7551	0	38008	
7552	0	37968	
7553	0	37872	
7554	0	37804	
7555	0	37708	
7556	0	37600	
7557	0	37440	
7558	0	37340	
7559	0	37256	
7560	0	37236	
7561	0	37236	
7562	0	37292	
7563	0	37280	
7564	0	37284	
7565	0	37280	
7566	0	37276	
7567	0	37260	
7568	0	37164	
7569	0	37068	
7570	0	37032	
7571	0	36980	
7572	0	36868	
7573	0	36712	
7574	0	36600	
7575	0	36484	
7576	0	36300	
7577	0	36132	
7578	0	35968	
7579	0	35776	
7580	0	35586	
7581	0	35396	
7582	0	35196	
7583	0	34964	
7584	0	34680	
7585	0	34456	
7586	0	34266	
7587	0	34096	
7588	0	33942	
7589	0	33804	
7590	0	33524	
7591	0	33258	
7592	0	33064	
7593	0	32864	
7594	0	32676	
7595	0	32538	
7596	0	32392	
7597	0	32246	
7598	0	32084	
7599	0	31872	
7600	0	31668	
7601	0	31500	
7602	0	31292	
7603	0	31088	
7604	0	30844	
7605	0	30628	
7606	0	30448	
7607	0	30312	
7608	0	30208	
7609	0	30116	
7610	0	30012	
7611	0	29908	
7612	0	29844	
7613	0	29740	
7614	0	29656	
7615	0	29522	
7616	0	29278	
7617	0	29152	
7618	0	29064	
7619	0	28984	
7620	0	28932	
7621	0	28890	
7622	0	28906	
7623	0	28892	
7624	0	28868	
7625	0	28928	
7626	0	29024	
7627	0	29000	
7628	0	28924	
7629	0	28880	
7630	0	28840	
7631	0	28800	
7632	0	28704	
7633	0	28644	
7634	0	28560	
7635	0	28512	
7636	0	28544	
7637	0	28592	
7638	0	28580	
7639	0	28568	
7640	0	28564	
7641	0	28600	
7642	0	28606	
7643	0	28568	
7644	0	28512	
7645	0	28472	
7646	0	28492	
7647	0	28504	
7648	0	28580	
7649	0	28664	
7650	0	28680	
7651	0	28640	
7652	0	28616	
7653	0	28532	
7654	0	28456	
7655	0	28452	
7656	0	28526	
7657	0	28586	
7658	0	28668	
7659	0	28656	
7660	0	28680	
7661	0	28762	
7662	0	28856	
7663	0	28908	
7664	0	28960	
7665	0	29056	
7666	0	29112	
7667	0	29128	
7668	0	29132	
7669	0	29146	
7670	0	29200	
7671	0	29288	
7672	0	29320	
7673	0	29376	
7674	0	29428	
7675	0	29456	
7676	0	29456	
7677	0	29448	
7678	0	29452	
7679	0	29528	
7680	0	29604	
7681	0	29612	
7682	0	29628	
7683	0	29676	
7684	0	29784	
7685	0	29892	
7686	0	29972	
7687	0	30024	
7688	0	30076	
7689	0	30232	
7690	0	30304	
7691	0	30264	
7692	0	30212	
7693	0	30224	
7694	0	30284	
7695	0	30320	
7696	0	30260	
7697	0	30212	
7698	0	30204	
7699	0	30252	
7700	0	30328	
7701	0	30388	
7702	0	30428	
7703	0	30480	
7704	0	30592	
7705	0	30704	
7706	0	30776	
7707	0	30840	
7708	0	30968	
7709	0	31074	
7710	0	31082	
7711	0	31116	
7712	0	31140	
7713	0	31124	
7714	0	31104	
7715	0	31060	
7716	0	31024	
7717	0	31036	
7718	0	31044	
7719	0	31048	
7720	0	31092	
7721	0	31072	
7722	0	31052	
7723	0	31092	
7724	0	31072	
7725	0	31084	
7726	0	31088	
7727	0	31124	
7728	0	31136	
7729	0	31040	
7730	0	30940	
7731	0	30912	
7732	0	30932	
7733	0	31068	
7734	0	31176	
7735	0	31200	
7736	0	31216	
7737	0	31324	
7738	0	31424	
7739	0	31448	
7740	0	31412	
7741	0	31456	
7742	0	31496	
7743	0	31512	
7744	0	31546	
7745	0	31492	
7746	0	31472	
7747	0	31516	
7748	0	31548	
7749	0	31604	
7750	0	31720	
7751	0	31808	
7752	0	31890	
7753	0	31932	
7754	0	31864	
7755	0	31870	
7756	0	31844	
7757	0	31770	
7758	0	31644	
7759	0	31580	
7760	0	31592	
7761	0	31568	
7762	0	31564	
7763	0	31580	
7764	0	31576	
7765	0	31618	
7766	0	31696	
7767	0	31784	
7768	0	31896	
7769	0	31978	
7770	0	32032	
7771	0	32112	
7772	0	32168	
7773	0	32158	
7774	0	32128	
7775	0	32068	
7776	0	31968	
7777	0	31904	
7778	0	31876	
7779	0	31904	
7780	0	32032	
7781	0	32172	
7782	0	32208	
7783	0	32256	
7784	0	32322	
7785	0	32436	
7786	0	32464	
7787	0	32412	
7788	0	32308	
7789	0	32184	
7790	0	32064	
7791	0	31978	
7792	0	31920	
7793	0	31896	
7794	0	31816	
7795	0	31802	
7796	0	31812	
7797	0	31812	
7798	0	31812	
7799	0	31874	
7800	0	31892	
7801	0	31800	
7802	0	31744	
7803	0	31700	
7804	0	31650	
7805	0	31642	
7806	0	31620	
7807	0	31620	
7808	0	31728	
7809	0	31792	
7810	0	31856	
7811	0	31912	
7812	0	31940	
7813	0	31920	
7814	0	31844	
7815	0	31776	
7816	0	31732	
7817	0	31692	
7818	0	31662	
7819	0	31608	
7820	0	31588	
7821	0	31620	
7822	0	31688	
7823	0	31656	
7824	0	31640	
7825	0	31648	
7826	0	31664	
7827	0	31680	
7828	0	31620	
7829	0	31624	
7830	0	31700	
7831	0	31840	
7832	0	31952	
7833	0	32020	
7834	0	32016	
7835	0	32084	
7836	0	32130	
7837	0	32232	
7838	0	32252	
7839	0	32196	
7840	0	32088	
7841	0	32008	
7842	0	31968	
7843	0	31966	
7844	0	32048	
7845	0	32016	
7846	0	31936	
7847	0	31864	
7848	0	31800	
7849	0	31788	
7850	0	31816	
7851	0	31896	
7852	0	31992	
7853	0	32152	
7854	0	32220	
7855	0	32208	
7856	0	32144	
7857	0	32144	
7858	0	32152	
7859	0	32196	
7860	0	32372	
7861	0	32436	
7862	0	32456	
7863	0	32460	
7864	0	32484	
7865	0	32464	
7866	0	32530	
7867	0	32624	
7868	0	32712	
7869	0	32736	
7870	0	32712	
7871	0	32724	
7872	0	32804	
7873	0	32942	
7874	0	33092	
7875	0	33168	
7876	0	33164	
7877	0	33128	
7878	0	33128	
7879	0	33088	
7880	0	33056	
7881	0	33036	
7882	0	33056	
7883	0	32972	
7884	0	32924	
7885	0	32988	
7886	0	33140	
7887	0	33380	
7888	0	33626	
7889	0	33882	
7890	0	34052	
7891	0	34348	
7892	0	34632	
7893	0	34792	
7894	0	34956	
7895	0	35088	
7896	0	35140	
7897	0	35136	
7898	0	35112	
7899	0	34984	
7900	0	34848	
7901	0	34706	
7902	0	34616	
7903	0	34608	
7904	0	34644	
7905	0	34592	
7906	0	34436	
7907	0	34224	
7908	0	33980	
7909	0	33800	
7910	0	33608	
7911	0	33488	
7912	0	33360	
7913	0	33172	
7914	0	33032	
7915	0	32916	
7916	0	32906	
7917	0	33012	
7918	0	33248	
7919	0	33456	
7920	0	33580	
7921	0	33352	
7922	0	33074	
7923	0	32856	
7924	0	32636	
7925	0	32456	
7926	0	32376	
7927	0	32284	
7928	0	32234	
7929	0	32324	
7930	0	32376	
7931	0	32300	
7932	0	32168	
7933	0	32076	
7934	0	32032	
7935	0	31890	
7936	0	31808	
7937	0	31840	
7938	0	31884	
7939	0	31748	
7940	0	31600	
7941	0	31552	
7942	0	31600	
7943	0	31596	
7944	0	31564	
7945	0	31488	
7946	0	31524	
7947	0	31614	
7948	0	31640	
7949	0	31600	
7950	0	31496	
7951	0	31296	
7952	0	31208	
7953	0	31056	
7954	0	30968	
7955	0	30904	
7956	0	30928	
7957	0	30984	
7958	0	31136	
7959	0	31364	
7960	0	31544	
7961	0	31628	
7962	0	31628	
7963	0	31764	
7964	0	31822	
7965	0	31760	
7966	0	31708	
7967	0	31608	
7968	0	31500	
7969	0	31428	
7970	0	31386	
7971	0	31428	
7972	0	31516	
7973	0	31596	
7974	0	31724	
7975	0	31908	
7976	0	31956	
7977	0	31904	
7978	0	31776	
7979	0	31618	
7980	0	31500	
7981	0	31200	
7982	0	30712	
7983	0	30172	
7984	0	29744	
7985	0	29568	
7986	0	29632	
7987	0	29696	
7988	0	29752	
7989	0	29888	
7990	0	30304	
7991	0	31008	
7992	0	31792	
7993	0	32692	
7994	0	33758	
7995	0	35084	
7996	0	36736	
7997	0	38680	
7998	0	40972	
7999	0	43592	
8000	0	46624	
8001	0	49912	
8002	0	53196	
8003	0	56492	
8004	0	59816	
8005	0	62408	
8006	0	63796	
8007	0	64500	
8008	0	64832	
8009	0	64940	
8010	0	64944	
8011	0	64900	
8012	0	64812	
8013	0	63484	
8014	0	57372	
8015	0	51268	
8016	0	45408	
8017	0	40432	
8018	0	36704	
8019	0	34028	
8020	0	32140	
8021	0	30752	
8022	0	29772	
8023	0	29104	
8024	0	28480	
8025	0	27676	
8026	0	26824	
8027	0	26080	
8028	0	25552	
8029	0	25260	
8030	0	25248	
8031	0	25332	
8032	0	25422	
8033	0	25516	
8034	0	25508	
8035	0	25360	
8036	0	25400	
8037	0	25568	
8038	0	25832	
8039	0	26146	
8040	0	26500	
8041	0	26912	
8042	0	27464	
8043	0	27968	
8044	0	28440	
8045	0	28864	
8046	0	29216	
8047	0	29432	
8048	0	29544	
8049	0	29672	
8050	0	29754	
8051	0	29760	
8052	0	29818	
8053	0	29876	
8054	0	29928	
8055	0	29938	
8056	0	30056	
8057	0	30212	
8058	0	30488	
8059	0	30808	
8060	0	30952	
8061	0	30896	
8062	0	30836	
8063	0	30912	
8064	0	30984	
8065	0	30976	
8066	0	31052	
8067	0	30980	
8068	0	30754	
8069	0	30572	
8070	0	30656	
8071	0	30892	
8072	0	31040	
8073	0	31104	
8074	0	31168	
8075	0	31176	
8076	0	31136	
8077	0	31168	
8078	0	31192	
8079	0	31196	
8080	0	31256	
8081	0	31288	
8082	0	31202	
8083	0	31216	
8084	0	31324	
8085	0	31392	
8086	0	31400	
8087	0	31304	
8088	0	31282	
8089	0	31350	
8090	0	31432	
8091	0	31488	
8092	0	31644	
8093	0	31832	
8094	0	31980	
8095	0	32106	
8096	0	32196	
8097	0	32356	
8098	0	32528	
8099	0	32552	
8100	0	32412	
8101	0	32248	
8102	0	32096	
8103	0	32004	
8104	0	31932	
8105	0	31944	
8106	0	31968	
8107	0	31996	
8108	0	31952	
8109	0	32032	
8110	0	32260	
8111	0	32416	
8112	0	32480	
8113	0	32556	
8114	0	32684	
8115	0	32712	
8116	0	32772	
8117	0	32768	
8118	0	32704	
8119	0	32700	
8120	0	32768	
8121	0	32928	
8122	0	33136	
8123	0	33290	
8124	0	33380	
8125	0	33264	
8126	0	33130	
8127	0	33140	
8128	0	33132	
8129	0	33124	
8130	0	33064	
8131	0	32960	
8132	0	32908	
8133	0	32940	
8134	0	33028	
8135	0	33148	
8136	0	33296	
8137	0	33452	
8138	0	33560	
8139	0	33580	
8140	0	33588	
8141	0	33704	
8142	0	33860	
8143	0	34088	
8144	0	34164	
8145	0	34156	
8146	0	34176	
8147	0	34244	
8148	0	34272	
8149	0	34268	
8150	0	34316	
8151	0	34352	
8152	0	34328	
8153	0	34284	
8154	0	34192	
8155	0	34080	
8156	0	34030	
8157	0	33992	
8158	0	33956	
8159	0	34008	
8160	0	34160	
8161	0	34424	
8162	0	34656	
8163	0	34960	
8164	0	35344	
8165	0	35600	
8166	0	35776	
8167	0	35864	
8168	0	35872	
8169	0	35956	
8170	0	36024	
8171	0	35944	
8172	0	35716	
8173	0	35504	
8174	0	35380	
8175	0	35320	
8176	0	35280	
8177	0	35440	
8178	0	35756	
8179	0	36020	
8180	0	36124	
8181	0	36208	
8182	0	36276	
8183	0	36304	
8184	0	36440	
8185	0	36644	
8186	0	36820	
8187	0	36928	
8188	0	37068	
8189	0	37124	
8190	0	37124	
8191	0	37216	
8192	0	37208	
8193	0	37132	
8194	0	37160	
8195	0	37208	
8196	0	37360	
8197	0	37596	
8198	0	37862	
8199	0	38156	
8200	0	38292	
8201	0	38420	
8202	0	38504	
8203	0	38560	
8204	0	38624	
8205	0	38720	
8206	0	38704	
8207	0	38588	
8208	0	38456	
8209	0	38450	
8210	0	38464	
8211	0	38544	
8212	0	38632	
8213	0	38688	
8214	0	38812	
8215	0	38944	
8216	0	38988	
8217	0	39028	
8218	0	38980	
8219	0	39048	
8220	0	39092	
8221	0	39064	
8222	0	39040	
8223	0	39048	
8224	0	38984	
8225	0	39008	
8226	0	39028	
8227	0	39028	
8228	0	39004	
8229	0	38964	
8230	0	38952	
8231	0	38848	
8232	0	38684	
8233	0	38584	
8234	0	38624	
8235	0	38744	
8236	0	38820	
8237	0	38840	
8238	0	38904	
8239	0	38912	
8240	0	38812	
8241	0	38736	
8242	0	38616	
8243	0	38376	
8244	0	38024	
8245	0	37728	
8246	0	37456	
8247	0	37132	
8248	0	36732	
8249	0	36484	
8250	0	36356	
8251	0	36328	
8252	0	36298	
8253	0	36144	
8254	0	36088	
8255	0	36192	
8256	0	36202	
8257	0	36042	
8258	0	35828	
8259	0	35508	
8260	0	34972	
8261	0	34404	
8262	0	33954	
8263	0	33532	
8264	0	33272	
8265	0	33102	
8266	0	32864	
8267	0	32576	
8268	0	32272	
8269	0	31860	
8270	0	31664	
8271	0	31660	
8272	0	31824	
8273	0	31788	
8274	0	31472	
8275	0	31140	
8276	0	30904	
8277	0	30736	
8278	0	30568	
8279	0	30316	
8280	0	30080	
8281	0	29868	
8282	0	29652	
8283	0	29492	
8284	0	29424	
8285	0	29284	
8286	0	28976	
8287	0	28768	
8288	0	28712	
8289	0	28636	
8290	0	28536	
8291	0	28512	
8292	0	28564	
8293	0	28634	
8294	0	28592	
8295	0	28496	
8296	0	28476	
8297	0	28436	
8298	0	28256	
8299	0	28052	
8300	0	27928	
8301	0	27888	
8302	0	27888	
8303	0	27948	
8304	0	27884	
8305	0	27812	
8306	0	27908	
8307	0	28036	
8308	0	28184	
8309	0	28152	
8310	0	28048	
8311	0	27968	
8312	0	27908	
8313	0	27792	
8314	0	27616	
8315	0	27552	
8316	0	27520	
8317	0	27560	
8318	0	27644	
8319	0	27672	
8320	0	27648	
8321	0	27540	
8322	0	27422	
8323	0	27424	
8324	0	27508	
8325	0	27704	
8326	0	27900	
8327	0	28056	
8328	0	28260	
8329	0	28426	
8330	0	28576	
8331	0	28660	
8332	0	28576	
8333	0	28604	
8334	0	28680	
8335	0	28684	
8336	0	28580	
8337	0	28430	
8338	0	28314	
8339	0	28256	
8340	0	28193	
8341	0	28144	
8342	0	28120	
8343	0	28216	
8344	0	28340	
8345	0	28540	
8346	0	28656	
8347	0	28712	
8348	0	28896	
8349	0	29088	
8350	0	29080	
8351	0	28972	
8352	0	28860	
8353	0	28740	
8354	0	28680	
8355	0	28628	
8356	0	28560	
8357	0	28436	
8358	0	28286	
8359	0	28340	
8360	0	28378	
8361	0	28354	
8362	0	28420	
8363	0	28492	
8364	0	28668	
8365	0	28980	
8366	0	29316	
8367	0	29560	
8368	0	29640	
8369	0	29628	
8370	0	29740	
8371	0	29896	
8372	0	29944	
8373	0	30018	
8374	0	30156	
8375	0	30288	
8376	0	30352	
8377	0	30378	
8378	0	30392	
8379	0	30416	
8380	0	30432	
8381	0	30416	
8382	0	30344	
8383	0	30316	
8384	0	30296	
8385	0	30222	
8386	0	30112	
8387	0	29948	
8388	0	29752	
8389	0	29644	
8390	0	29678	
8391	0	29720	
8392	0	29812	
8393	0	30024	
8394	0	30260	
8395	0	30480	
8396	0	30544	
8397	0	30528	
8398	0	30716	
8399	0	30928	
8400	0	31084	
8401	0	31240	
8402	0	31412	
8403	0	31546	
8404	0	31592	
8405	0	31568	
8406	0	31456	
8407	0	31356	
8408	0	31344	
8409	0	31296	
8410	0	31120	
8411	0	30896	
8412	0	30700	
8413	0	30744	
8414	0	30796	
8415	0	30944	
8416	0	31122	
8417	0	31244	
8418	0	31240	
8419	0	31152	
8420	0	31040	
8421	0	31024	
8422	0	31136	
8423	0	31244	
8424	0	31280	
8425	0	31308	
8426	0	31388	
8427	0	31556	
8428	0	31604	
8429	0	31584	
8430	0	31604	
8431	0	31628	
8432	0	31648	
8433	0	31624	
8434	0	31664	
8435	0	31748	
8436	0	31892	
8437	0	31960	
8438	0	31960	
8439	0	31896	
8440	0	31836	
8441	0	31844	
8442	0	31812	
8443	0	31728	
8444	0	31676	
8445	0	31740	
8446	0	31824	
8447	0	31848	
8448	0	31802	
8449	0	31794	
8450	0	31784	
8451	0	31776	
8452	0	31712	
8453	0	31684	
8454	0	31604	
8455	0	31520	
8456	0	31460	
8457	0	31524	
8458	0	31596	
8459	0	31664	
8460	0	31680	
8461	0	31600	
8462	0	31616	
8463	0	31648	
8464	0	31674	
8465	0	31720	
8466	0	31728	
8467	0	31744	
8468	0	31712	
8469	0	31642	
8470	0	31564	
8471	0	31528	
8472	0	31516	
8473	0	31620	
8474	0	31720	
8475	0	31708	
8476	0	31732	
8477	0	31908	
8478	0	32136	
8479	0	32260	
8480	0	32180	
8481	0	32104	
8482	0	32076	
8483	0	31888	
8484	0	31760	
8485	0	31684	
8486	0	31704	
8487	0	31688	
8488	0	31792	
8489	0	31864	
8490	0	31832	
8491	0	31840	
8492	0	31956	
8493	0	32160	
8494	0	32340	
8495	0	32242	
8496	0	32024	
8497	0	31968	
8498	0	32096	
8499	0	32196	
8500	0	32240	
8501	0	32344	
8502	0	32520	
8503	0	32718	
8504	0	32868	
8505	0	32964	
8506	0	32976	
8507	0	33012	
8508	0	33000	
8509	0	32992	
8510	0	32944	
8511	0	32864	
8512	0	32728	
8513	0	32608	
8514	0	32512	
8515	0	32528	
8516	0	32692	
8517	0	32800	
8518	0	32832	
8519	0	32952	
8520	0	33152	
8521	0	33312	
8522	0	33496	
8523	0	33832	
8524	0	34112	
8525	0	34116	
8526	0	34052	
8527	0	34048	
8528	0	34216	
8529	0	34452	
8530	0	34660	
8531	0	34904	
8532	0	35076	
8533	0	35088	
8534	0	34968	
8535	0	34728	
8536	0	34368	
8537	0	34112	
8538	0	33916	
8539	0	33616	
8540	0	33344	
8541	0	33128	
8542	0	33144	
8543	0	33266	
8544	0	33376	
8545	0	33424	
8546	0	33308	
8547	0	33208	
8548	0	33200	
8549	0	33184	
8550	0	33292	
8551	0	33344	
8552	0	33376	
8553	0	33224	
8554	0	33028	
8555	0	32916	
8556	0	32774	
8557	0	32572	
8558	0	32452	
8559	0	32272	
8560	0	32088	
8561	0	31976	
8562	0	32040	
8563	0	32088	
8564	0	31820	
8565	0	31336	
8566	0	30860	
8567	0	30440	
8568	0	30354	
8569	0	30500	
8570	0	30828	
8571	0	31096	
8572	0	31388	
8573	0	31688	
8574	0	31900	
8575	0	31888	
8576	0	31728	
8577	0	31512	
8578	0	31132	
8579	0	30864	
8580	0	30732	
8581	0	30808	
8582	0	30964	
8583	0	31160	
8584	0	31328	
8585	0	31364	
8586	0	31296	
8587	0	31248	
8588	0	31266	
8589	0	31220	
8590	0	31128	
8591	0	31032	
