# OpenSignals Text File Format. Version 1
# {"00:07:80:4B:15:F7": {"position": 0, "device": "biosignalsplux", "device name": "00:07:80:4B:15:F7", "device connection": "BTH00:07:80:4B:15:F7", "sampling rate": 1000, "resolution": [16], "firmware version": 775, "comments": "", "keywords": "", "mode": 0, "sync interval": 2, "date": "2023-3-14", "time": "14:56:11.88", "channels": [1], "sensor": ["ECG"], "label": ["CH1"], "column": ["nSeq", "DI", "CH1"], "special": [{"SpO2": [80, 40, 5, 4, 3, 3]}, {"SpO2": [80, 40, 5, 4, 3, 3]}, {"SpO2": [80, 40, 5, 4, 3, 3]}, {"SpO2": [80, 40, 5, 4, 3, 3]}, {"SpO2": [80, 40, 5, 4, 3, 3]}, {"SpO2": [80, 40, 5, 4, 3, 3]}, {"SpO2": [80, 40, 5, 4, 3, 3]}, {"SpO2": [80, 40, 5, 4, 3, 3]}], "digital IO": [0, 1], "sleeve color": ["green"], "convertedValues": 0}}
# EndOfHeader
0	0	33160	
1	0	33204	
2	0	33276	
3	0	33380	
4	0	33524	
5	0	33648	
6	0	33712	
7	0	33708	
8	0	33648	
9	0	33616	
10	0	33672	
11	0	33704	
12	0	33768	
13	0	33744	
14	0	33696	
15	0	33740	
16	0	33752	
17	0	33768	
18	0	33804	
19	0	33872	
20	0	34024	
21	0	34144	
22	0	34240	
23	0	34336	
24	0	34436	
25	0	34540	
26	0	34668	
27	0	34740	
28	0	34784	
29	0	34752	
30	0	34784	
31	0	34876	
32	0	34924	
33	0	34960	
34	0	35048	
35	0	35098	
36	0	35096	
37	0	35150	
38	0	35148	
39	0	35208	
40	0	35354	
41	0	35536	
42	0	35672	
43	0	35774	
44	0	35876	
45	0	35992	
46	0	36116	
47	0	36192	
48	0	36216	
49	0	36280	
50	0	36356	
51	0	36384	
52	0	36372	
53	0	36384	
54	0	36436	
55	0	36514	
56	0	36584	
57	0	36652	
58	0	36716	
59	0	36808	
60	0	36916	
61	0	36948	
62	0	36980	
63	0	37144	
64	0	37260	
65	0	37344	
66	0	37408	
67	0	37448	
68	0	37450	
69	0	37444	
70	0	37440	
71	0	37512	
72	0	37532	
73	0	37492	
74	0	37460	
75	0	37440	
76	0	37476	
77	0	37504	
78	0	37504	
79	0	37568	
80	0	37668	
81	0	37696	
82	0	37744	
83	0	37756	
84	0	37712	
85	0	37724	
86	0	37728	
87	0	37620	
88	0	37564	
89	0	37476	
90	0	37384	
91	0	37296	
92	0	37228	
93	0	37152	
94	0	37024	
95	0	36916	
96	0	36752	
97	0	36632	
98	0	36524	
99	0	36408	
100	0	36300	
101	0	36212	
102	0	36116	
103	0	35996	
104	0	35848	
105	0	35648	
106	0	35452	
107	0	35288	
108	0	35136	
109	0	34952	
110	0	34756	
111	0	34516	
112	0	34256	
113	0	34016	
114	0	33820	
115	0	33584	
116	0	33348	
117	0	33188	
118	0	33048	
119	0	32848	
120	0	32688	
121	0	32552	
122	0	32484	
123	0	32404	
124	0	32228	
125	0	32034	
126	0	31908	
127	0	31760	
128	0	31568	
129	0	31412	
130	0	31300	
131	0	31120	
132	0	30896	
133	0	30704	
134	0	30548	
135	0	30352	
136	0	30216	
137	0	30102	
138	0	30004	
139	0	29936	
140	0	29872	
141	0	29856	
142	0	29832	
143	0	29780	
144	0	29766	
145	0	29760	
146	0	29772	
147	0	29740	
148	0	29696	
149	0	29572	
150	0	29470	
151	0	29408	
152	0	29340	
153	0	29296	
154	0	29244	
155	0	29202	
156	0	29196	
157	0	29224	
158	0	29176	
159	0	29184	
160	0	29324	
161	0	29384	
162	0	29354	
163	0	29400	
164	0	29448	
165	0	29476	
166	0	29528	
167	0	29632	
168	0	29596	
169	0	29516	
170	0	29424	
171	0	29368	
172	0	29344	
173	0	29292	
174	0	29248	
175	0	29232	
176	0	29248	
177	0	29308	
178	0	29356	
179	0	29360	
180	0	29408	
181	0	29476	
182	0	29544	
183	0	29576	
184	0	29604	
185	0	29672	
186	0	29768	
187	0	29816	
188	0	29800	
189	0	29760	
190	0	29760	
191	0	29776	
192	0	29782	
193	0	29824	
194	0	29852	
195	0	29824	
196	0	29818	
197	0	29868	
198	0	29944	
199	0	30016	
200	0	30060	
201	0	30106	
202	0	30156	
203	0	30170	
204	0	30232	
205	0	30284	
206	0	30316	
207	0	30320	
208	0	30356	
209	0	30380	
210	0	30392	
211	0	30316	
212	0	30300	
213	0	30312	
214	0	30344	
215	0	30344	
216	0	30352	
217	0	30376	
218	0	30416	
219	0	30460	
220	0	30540	
221	0	30604	
222	0	30680	
223	0	30772	
224	0	30832	
225	0	30856	
226	0	30872	
227	0	30880	
228	0	30860	
229	0	30844	
230	0	30856	
231	0	30904	
232	0	30908	
233	0	30880	
234	0	30848	
235	0	30848	
236	0	30864	
237	0	30880	
238	0	30960	
239	0	31036	
240	0	31072	
241	0	31152	
242	0	31204	
243	0	31220	
244	0	31276	
245	0	31348	
246	0	31332	
247	0	31240	
248	0	31176	
249	0	31164	
250	0	31156	
251	0	31184	
252	0	31208	
253	0	31228	
254	0	31200	
255	0	31240	
256	0	31264	
257	0	31224	
258	0	31240	
259	0	31258	
260	0	31244	
261	0	31264	
262	0	31292	
263	0	31332	
264	0	31364	
265	0	31420	
266	0	31448	
267	0	31484	
268	0	31472	
269	0	31408	
270	0	31374	
271	0	31384	
272	0	31420	
273	0	31356	
274	0	31356	
275	0	31380	
276	0	31372	
277	0	31424	
278	0	31468	
279	0	31444	
280	0	31442	
281	0	31488	
282	0	31564	
283	0	31628	
284	0	31736	
285	0	31776	
286	0	31840	
287	0	31844	
288	0	31788	
289	0	31700	
290	0	31644	
291	0	31608	
292	0	31604	
293	0	31642	
294	0	31600	
295	0	31608	
296	0	31568	
297	0	31504	
298	0	31504	
299	0	31548	
300	0	31584	
301	0	31644	
302	0	31720	
303	0	31776	
304	0	31812	
305	0	31856	
306	0	31880	
307	0	31908	
308	0	31860	
309	0	31772	
310	0	31712	
311	0	31680	
312	0	31676	
313	0	31688	
314	0	31684	
315	0	31664	
316	0	31672	
317	0	31642	
318	0	31636	
319	0	31676	
320	0	31716	
321	0	31756	
322	0	31832	
323	0	31918	
324	0	31946	
325	0	31930	
326	0	31984	
327	0	31992	
328	0	31896	
329	0	31828	
330	0	31792	
331	0	31776	
332	0	31760	
333	0	31760	
334	0	31712	
335	0	31728	
336	0	31736	
337	0	31712	
338	0	31752	
339	0	31768	
340	0	31832	
341	0	31964	
342	0	32088	
343	0	32208	
344	0	32224	
345	0	32228	
346	0	32276	
347	0	32304	
348	0	32228	
349	0	32204	
350	0	32216	
351	0	32244	
352	0	32212	
353	0	32156	
354	0	32120	
355	0	32144	
356	0	32236	
357	0	32232	
358	0	32216	
359	0	32300	
360	0	32308	
361	0	32312	
362	0	32440	
363	0	32588	
364	0	32776	
365	0	32928	
366	0	33068	
367	0	33164	
368	0	33220	
369	0	33328	
370	0	33464	
371	0	33548	
372	0	33564	
373	0	33524	
374	0	33532	
375	0	33592	
376	0	33680	
377	0	33748	
378	0	33868	
379	0	33888	
380	0	33932	
381	0	33992	
382	0	34048	
383	0	34104	
384	0	34168	
385	0	34344	
386	0	34520	
387	0	34620	
388	0	34732	
389	0	34876	
390	0	34992	
391	0	35080	
392	0	35164	
393	0	35280	
394	0	35136	
395	0	34972	
396	0	34912	
397	0	34924	
398	0	35008	
399	0	35068	
400	0	35128	
401	0	35240	
402	0	35400	
403	0	35468	
404	0	35416	
405	0	35308	
406	0	35300	
407	0	35260	
408	0	35112	
409	0	34874	
410	0	34668	
411	0	34464	
412	0	34240	
413	0	34128	
414	0	34052	
415	0	33980	
416	0	33900	
417	0	33884	
418	0	33880	
419	0	33864	
420	0	33876	
421	0	33864	
422	0	33856	
423	0	33832	
424	0	33796	
425	0	33764	
426	0	33732	
427	0	33660	
428	0	33544	
429	0	33340	
430	0	33128	
431	0	33016	
432	0	32994	
433	0	32948	
434	0	32848	
435	0	32732	
436	0	32620	
437	0	32516	
438	0	32428	
439	0	32348	
440	0	32276	
441	0	32220	
442	0	32236	
443	0	32224	
444	0	32136	
445	0	32032	
446	0	32008	
447	0	32024	
448	0	32012	
449	0	31940	
450	0	31880	
451	0	31820	
452	0	31804	
453	0	31800	
454	0	31800	
455	0	31820	
456	0	31784	
457	0	31722	
458	0	31732	
459	0	31800	
460	0	31832	
461	0	31828	
462	0	31864	
463	0	31884	
464	0	31912	
465	0	31972	
466	0	31996	
467	0	31948	
468	0	31970	
469	0	31980	
470	0	31956	
471	0	31944	
472	0	31970	
473	0	31948	
474	0	31856	
475	0	31796	
476	0	31776	
477	0	31792	
478	0	31840	
479	0	31856	
480	0	31916	
481	0	31988	
482	0	32080	
483	0	32112	
484	0	32164	
485	0	32208	
486	0	32276	
487	0	32296	
488	0	32324	
489	0	32352	
490	0	32360	
491	0	32352	
492	0	32312	
493	0	32276	
494	0	32264	
495	0	32280	
496	0	32288	
497	0	32224	
498	0	32144	
499	0	32052	
500	0	31944	
501	0	31832	
502	0	31670	
503	0	31544	
504	0	31452	
505	0	31344	
506	0	31290	
507	0	31384	
508	0	31424	
509	0	31378	
510	0	31472	
511	0	31784	
512	0	32264	
513	0	32868	
514	0	33576	
515	0	34536	
516	0	35704	
517	0	37072	
518	0	38620	
519	0	40236	
520	0	41696	
521	0	43252	
522	0	44844	
523	0	46448	
524	0	47988	
525	0	49416	
526	0	50716	
527	0	51960	
528	0	53236	
529	0	54460	
530	0	55656	
531	0	56848	
532	0	58032	
533	0	59188	
534	0	60104	
535	0	60648	
536	0	60640	
537	0	59704	
538	0	57936	
539	0	55320	
540	0	52000	
541	0	48584	
542	0	44960	
543	0	40828	
544	0	36348	
545	0	32032	
546	0	28632	
547	0	26376	
548	0	25120	
549	0	24580	
550	0	24530	
551	0	24852	
552	0	25248	
553	0	25556	
554	0	25802	
555	0	26056	
556	0	26342	
557	0	26704	
558	0	27060	
559	0	27348	
560	0	27720	
561	0	28104	
562	0	28500	
563	0	28860	
564	0	29248	
565	0	29658	
566	0	29992	
567	0	30176	
568	0	30316	
569	0	30388	
570	0	30352	
571	0	30272	
572	0	30196	
573	0	30178	
574	0	30108	
575	0	30016	
576	0	29992	
577	0	30016	
578	0	30048	
579	0	30068	
580	0	30042	
581	0	30084	
582	0	30140	
583	0	30224	
584	0	30232	
585	0	30300	
586	0	30356	
587	0	30336	
588	0	30308	
589	0	30280	
590	0	30264	
591	0	30240	
592	0	30292	
593	0	30252	
594	0	30264	
595	0	30332	
596	0	30332	
597	0	30332	
598	0	30376	
599	0	30432	
600	0	30528	
601	0	30612	
602	0	30602	
603	0	30634	
604	0	30636	
605	0	30704	
606	0	30836	
607	0	30952	
608	0	31004	
609	0	30924	
610	0	30932	
611	0	30894	
612	0	30892	
613	0	30956	
614	0	30972	
615	0	30992	
616	0	31008	
617	0	31096	
618	0	31160	
619	0	31156	
620	0	31212	
621	0	31312	
622	0	31384	
623	0	31440	
624	0	31482	
625	0	31544	
626	0	31616	
627	0	31652	
628	0	31604	
629	0	31596	
630	0	31616	
631	0	31652	
632	0	31684	
633	0	31700	
634	0	31692	
635	0	31704	
636	0	31688	
637	0	31664	
638	0	31668	
639	0	31724	
640	0	31832	
641	0	31872	
642	0	31928	
643	0	31980	
644	0	32064	
645	0	32196	
646	0	32232	
647	0	32256	
648	0	32256	
649	0	32212	
650	0	32216	
651	0	32192	
652	0	32096	
653	0	32124	
654	0	32118	
655	0	32156	
656	0	32144	
657	0	32144	
658	0	32218	
659	0	32232	
660	0	32264	
661	0	32300	
662	0	32368	
663	0	32480	
664	0	32568	
665	0	32608	
666	0	32632	
667	0	32688	
668	0	32724	
669	0	32698	
670	0	32692	
671	0	32720	
672	0	32704	
673	0	32684	
674	0	32700	
675	0	32740	
676	0	32768	
677	0	32788	
678	0	32832	
679	0	32924	
680	0	32988	
681	0	33060	
682	0	33144	
683	0	33220	
684	0	33296	
685	0	33352	
686	0	33400	
687	0	33400	
688	0	33390	
689	0	33360	
690	0	33322	
691	0	33336	
692	0	33408	
693	0	33424	
694	0	33416	
695	0	33420	
696	0	33448	
697	0	33504	
698	0	33552	
699	0	33656	
700	0	33748	
701	0	33808	
702	0	33916	
703	0	34012	
704	0	34128	
705	0	34168	
706	0	34260	
707	0	34344	
708	0	34392	
709	0	34368	
710	0	34372	
711	0	34432	
712	0	34480	
713	0	34484	
714	0	34516	
715	0	34592	
716	0	34608	
717	0	34632	
718	0	34704	
719	0	34872	
720	0	35024	
721	0	35168	
722	0	35272	
723	0	35348	
724	0	35396	
725	0	35508	
726	0	35632	
727	0	35752	
728	0	35812	
729	0	35810	
730	0	35796	
731	0	35868	
732	0	35944	
733	0	36000	
734	0	36050	
735	0	36160	
736	0	36212	
737	0	36324	
738	0	36424	
739	0	36552	
740	0	36660	
741	0	36744	
742	0	36826	
743	0	36904	
744	0	36970	
745	0	37006	
746	0	37088	
747	0	37140	
748	0	37200	
749	0	37224	
750	0	37228	
751	0	37240	
752	0	37216	
753	0	37212	
754	0	37216	
755	0	37232	
756	0	37264	
757	0	37272	
758	0	37300	
759	0	37376	
760	0	37412	
761	0	37506	
762	0	37560	
763	0	37640	
764	0	37612	
765	0	37600	
766	0	37624	
767	0	37608	
768	0	37524	
769	0	37412	
770	0	37288	
771	0	37208	
772	0	37144	
773	0	37032	
774	0	36936	
775	0	36824	
776	0	36712	
777	0	36648	
778	0	36536	
779	0	36516	
780	0	36464	
781	0	36340	
782	0	36200	
783	0	36068	
784	0	35904	
785	0	35780	
786	0	35664	
787	0	35448	
788	0	35236	
789	0	34992	
790	0	34772	
791	0	34584	
792	0	34354	
793	0	34096	
794	0	33852	
795	0	33620	
796	0	33424	
797	0	33284	
798	0	33104	
799	0	32928	
800	0	32796	
801	0	32632	
802	0	32480	
803	0	32360	
804	0	32252	
805	0	32088	
806	0	31896	
807	0	31708	
808	0	31528	
809	0	31356	
810	0	31152	
811	0	31000	
812	0	30832	
813	0	30680	
814	0	30500	
815	0	30336	
816	0	30236	
817	0	30145	
818	0	30052	
819	0	29972	
820	0	29876	
821	0	29816	
822	0	29744	
823	0	29758	
824	0	29780	
825	0	29736	
826	0	29628	
827	0	29552	
828	0	29552	
829	0	29536	
830	0	29440	
831	0	29352	
832	0	29280	
833	0	29230	
834	0	29188	
835	0	29162	
836	0	29144	
837	0	29196	
838	0	29200	
839	0	29184	
840	0	29258	
841	0	29320	
842	0	29368	
843	0	29418	
844	0	29464	
845	0	29496	
846	0	29484	
847	0	29492	
848	0	29500	
849	0	29436	
850	0	29400	
851	0	29336	
852	0	29228	
853	0	29200	
854	0	29220	
855	0	29232	
856	0	29232	
857	0	29252	
858	0	29252	
859	0	29248	
860	0	29300	
861	0	29346	
862	0	29428	
863	0	29512	
864	0	29576	
865	0	29636	
866	0	29652	
867	0	29644	
868	0	29594	
869	0	29568	
870	0	29620	
871	0	29640	
872	0	29652	
873	0	29640	
874	0	29672	
875	0	29724	
876	0	29768	
877	0	29740	
878	0	29752	
879	0	29820	
880	0	29890	
881	0	29960	
882	0	30050	
883	0	30104	
884	0	30156	
885	0	30232	
886	0	30280	
887	0	30312	
888	0	30332	
889	0	30336	
890	0	30352	
891	0	30320	
892	0	30340	
893	0	30352	
894	0	30344	
895	0	30296	
896	0	30260	
897	0	30312	
898	0	30416	
899	0	30456	
900	0	30500	
901	0	30536	
902	0	30634	
903	0	30728	
904	0	30800	
905	0	30796	
906	0	30828	
907	0	30848	
908	0	30892	
909	0	30944	
910	0	30952	
911	0	30876	
912	0	30840	
913	0	30812	
914	0	30824	
915	0	30864	
916	0	30856	
917	0	30812	
918	0	30840	
919	0	30928	
920	0	31000	
921	0	31018	
922	0	31074	
923	0	31128	
924	0	31116	
925	0	31128	
926	0	31180	
927	0	31252	
928	0	31282	
929	0	31256	
930	0	31192	
931	0	31176	
932	0	31156	
933	0	31112	
934	0	31064	
935	0	31018	
936	0	31064	
937	0	31152	
938	0	31216	
939	0	31288	
940	0	31356	
941	0	31372	
942	0	31408	
943	0	31444	
944	0	31492	
945	0	31528	
946	0	31548	
947	0	31592	
948	0	31640	
949	0	31616	
950	0	31576	
951	0	31522	
952	0	31524	
953	0	31516	
954	0	31492	
955	0	31468	
956	0	31476	
957	0	31468	
958	0	31528	
959	0	31592	
960	0	31632	
961	0	31636	
962	0	31608	
963	0	31620	
964	0	31648	
965	0	31704	
966	0	31768	
967	0	31800	
968	0	31800	
969	0	31768	
970	0	31714	
971	0	31644	
972	0	31640	
973	0	31600	
974	0	31568	
975	0	31541	
976	0	31576	
977	0	31660	
978	0	31644	
979	0	31668	
980	0	31712	
981	0	31762	
982	0	31824	
983	0	31868	
984	0	31920	
985	0	31920	
986	0	31920	
987	0	31884	
988	0	31892	
989	0	31886	
990	0	31852	
991	0	31760	
992	0	31740	
993	0	31760	
994	0	31810	
995	0	31844	
996	0	31848	
997	0	31832	
998	0	31822	
999	0	31840	
1000	0	31848	
1001	0	31836	
1002	0	31840	
1003	0	31892	
1004	0	31944	
1005	0	31992	
1006	0	32010	
1007	0	32008	
1008	0	31992	
1009	0	31964	
1010	0	31944	
1011	0	31916	
1012	0	31928	
1013	0	31932	
1014	0	31940	
1015	0	31952	
1016	0	31936	
1017	0	31952	
1018	0	31976	
1019	0	31940	
1020	0	31956	
1021	0	31976	
1022	0	32028	
1023	0	32092	
1024	0	32184	
1025	0	32236	
1026	0	32192	
1027	0	32196	
1028	0	32200	
1029	0	32160	
1030	0	32106	
1031	0	32072	
1032	0	32058	
1033	0	32044	
1034	0	32032	
1035	0	32040	
1036	0	32072	
1037	0	32108	
1038	0	32100	
1039	0	32080	
1040	0	32152	
1041	0	32212	
1042	0	32208	
1043	0	32248	
1044	0	32260	
1045	0	32324	
1046	0	32380	
1047	0	32386	
1048	0	32368	
1049	0	32316	
1050	0	32322	
1051	0	32364	
1052	0	32402	
1053	0	32380	
1054	0	32384	
1055	0	32424	
1056	0	32460	
1057	0	32544	
1058	0	32656	
1059	0	32832	
1060	0	33032	
1061	0	33188	
1062	0	33344	
1063	0	33460	
1064	0	33556	
1065	0	33692	
1066	0	33842	
1067	0	33916	
1068	0	33932	
1069	0	33928	
1070	0	33952	
1071	0	34016	
1072	0	34068	
1073	0	34056	
1074	0	34036	
1075	0	34004	
1076	0	33988	
1077	0	34016	
1078	0	34074	
1079	0	34136	
1080	0	34240	
1081	0	34328	
1082	0	34460	
1083	0	34644	
1084	0	34796	
1085	0	34960	
1086	0	35136	
1087	0	35264	
1088	0	35336	
1089	0	35360	
1090	0	35296	
1091	0	35228	
1092	0	35128	
1093	0	35084	
1094	0	35048	
1095	0	35028	
1096	0	35060	
1097	0	35196	
1098	0	35272	
1099	0	35328	
1100	0	35276	
1101	0	35176	
1102	0	35096	
1103	0	35056	
1104	0	35016	
1105	0	34904	
1106	0	34736	
1107	0	34556	
1108	0	34316	
1109	0	34168	
1110	0	34088	
1111	0	34010	
1112	0	33924	
1113	0	33872	
1114	0	33796	
1115	0	33656	
1116	0	33540	
1117	0	33520	
1118	0	33520	
1119	0	33520	
1120	0	33516	
1121	0	33496	
1122	0	33504	
1123	0	33464	
1124	0	33444	
1125	0	33400	
1126	0	33314	
1127	0	33220	
1128	0	33112	
1129	0	32992	
1130	0	32896	
1131	0	32792	
1132	0	32656	
1133	0	32528	
1134	0	32392	
1135	0	32256	
1136	0	32152	
1137	0	32058	
1138	0	31986	
1139	0	31984	
1140	0	31952	
1141	0	31912	
1142	0	31896	
1143	0	31876	
1144	0	31880	
1145	0	31880	
1146	0	31864	
1147	0	31872	
1148	0	31868	
1149	0	31824	
1150	0	31808	
1151	0	31816	
1152	0	31844	
1153	0	31804	
1154	0	31788	
1155	0	31784	
1156	0	31760	
1157	0	31732	
1158	0	31716	
1159	0	31752	
1160	0	31796	
1161	0	31832	
1162	0	31856	
1163	0	31868	
1164	0	31856	
1165	0	31892	
1166	0	31976	
1167	0	31968	
1168	0	31906	
1169	0	31824	
1170	0	31832	
1171	0	31850	
1172	0	31852	
1173	0	31840	
1174	0	31826	
1175	0	31816	
1176	0	31814	
1177	0	31852	
1178	0	31888	
1179	0	31952	
1180	0	32052	
1181	0	32128	
1182	0	32168	
1183	0	32192	
1184	0	32212	
1185	0	32248	
1186	0	32248	
1187	0	32274	
1188	0	32264	
1189	0	32216	
1190	0	32176	
1191	0	32152	
1192	0	32076	
1193	0	31972	
1194	0	31948	
1195	0	31920	
1196	0	31868	
1197	0	31768	
1198	0	31636	
1199	0	31554	
1200	0	31456	
1201	0	31436	
1202	0	31460	
1203	0	31518	
1204	0	31678	
1205	0	31876	
1206	0	32276	
1207	0	32856	
1208	0	33444	
1209	0	34132	
1210	0	34976	
1211	0	35952	
1212	0	37116	
1213	0	38532	
1214	0	40076	
1215	0	41584	
1216	0	43000	
1217	0	44388	
1218	0	45816	
1219	0	47280	
1220	0	48688	
1221	0	50112	
1222	0	51488	
1223	0	52824	
1224	0	54168	
1225	0	55516	
1226	0	56848	
1227	0	58052	
1228	0	59100	
1229	0	59952	
1230	0	60548	
1231	0	60840	
1232	0	60296	
1233	0	58836	
1234	0	56504	
1235	0	53408	
1236	0	49960	
1237	0	46368	
1238	0	42456	
1239	0	38098	
1240	0	33730	
1241	0	30100	
1242	0	27584	
1243	0	26104	
1244	0	25404	
1245	0	25184	
1246	0	25320	
1247	0	25528	
1248	0	25760	
1249	0	26032	
1250	0	26302	
1251	0	26592	
1252	0	26984	
1253	0	27460	
1254	0	27932	
1255	0	28388	
1256	0	28844	
1257	0	29292	
1258	0	29672	
1259	0	29990	
1260	0	30256	
1261	0	30464	
1262	0	30532	
1263	0	30552	
1264	0	30540	
1265	0	30508	
1266	0	30436	
1267	0	30376	
1268	0	30324	
1269	0	30224	
1270	0	30136	
1271	0	30048	
1272	0	30012	
1273	0	29968	
1274	0	29956	
1275	0	29952	
1276	0	29960	
1277	0	29972	
1278	0	29976	
1279	0	30024	
1280	0	30056	
1281	0	30084	
1282	0	30112	
1283	0	30126	
1284	0	30146	
1285	0	30204	
1286	0	30244	
1287	0	30292	
1288	0	30284	
1289	0	30300	
1290	0	30340	
1291	0	30348	
1292	0	30370	
1293	0	30340	
1294	0	30320	
1295	0	30320	
1296	0	30360	
1297	0	30408	
1298	0	30460	
1299	0	30540	
1300	0	30620	
1301	0	30692	
1302	0	30736	
1303	0	30776	
1304	0	30826	
1305	0	30904	
1306	0	30948	
1307	0	30968	
1308	0	30992	
1309	0	30994	
1310	0	30960	
1311	0	30900	
1312	0	30928	
1313	0	30944	
1314	0	30946	
1315	0	30922	
1316	0	30964	
1317	0	30994	
1318	0	31072	
1319	0	31188	
1320	0	31284	
1321	0	31356	
1322	0	31420	
1323	0	31424	
1324	0	31456	
1325	0	31544	
1326	0	31576	
1327	0	31592	
1328	0	31534	
1329	0	31522	
1330	0	31562	
1331	0	31636	
1332	0	31648	
1333	0	31588	
1334	0	31564	
1335	0	31600	
1336	0	31672	
1337	0	31700	
1338	0	31728	
1339	0	31816	
1340	0	31840	
1341	0	31850	
1342	0	31928	
1343	0	32004	
1344	0	32056	
1345	0	32088	
1346	0	32090	
1347	0	32104	
1348	0	32152	
1349	0	32192	
1350	0	32200	
1351	0	32192	
1352	0	32168	
1353	0	32200	
1354	0	32240	
1355	0	32240	
1356	0	32284	
1357	0	32364	
1358	0	32420	
1359	0	32434	
1360	0	32492	
1361	0	32560	
1362	0	32604	
1363	0	32668	
1364	0	32728	
1365	0	32796	
1366	0	32832	
1367	0	32860	
1368	0	32864	
1369	0	32824	
1370	0	32780	
1371	0	32756	
1372	0	32754	
1373	0	32762	
1374	0	32752	
1375	0	32772	
1376	0	32832	
1377	0	32920	
1378	0	32968	
1379	0	33012	
1380	0	33096	
1381	0	33208	
1382	0	33264	
1383	0	33304	
1384	0	33336	
1385	0	33368	
1386	0	33452	
1387	0	33536	
1388	0	33568	
1389	0	33596	
1390	0	33608	
1391	0	33608	
1392	0	33600	
1393	0	33624	
1394	0	33652	
1395	0	33700	
1396	0	33764	
1397	0	33852	
1398	0	33920	
1399	0	33944	
1400	0	34032	
1401	0	34132	
1402	0	34194	
1403	0	34300	
1404	0	34408	
1405	0	34496	
1406	0	34548	
1407	0	34576	
1408	0	34584	
1409	0	34652	
1410	0	34720	
1411	0	34764	
1412	0	34820	
1413	0	34912	
1414	0	34956	
1415	0	34992	
1416	0	35072	
1417	0	35172	
1418	0	35276	
1419	0	35360	
1420	0	35456	
1421	0	35576	
1422	0	35668	
1423	0	35764	
1424	0	35888	
1425	0	35980	
1426	0	36012	
1427	0	36032	
1428	0	36100	
1429	0	36160	
1430	0	36204	
1431	0	36228	
1432	0	36232	
1433	0	36240	
1434	0	36316	
1435	0	36400	
1436	0	36484	
1437	0	36532	
1438	0	36616	
1439	0	36696	
1440	0	36804	
1441	0	36936	
1442	0	37056	
1443	0	37108	
1444	0	37188	
1445	0	37256	
1446	0	37300	
1447	0	37312	
1448	0	37320	
1449	0	37312	
1450	0	37340	
1451	0	37320	
1452	0	37292	
1453	0	37280	
1454	0	37252	
1455	0	37252	
1456	0	37272	
1457	0	37340	
1458	0	37384	
1459	0	37404	
1460	0	37428	
1461	0	37472	
1462	0	37496	
1463	0	37528	
1464	0	37532	
1465	0	37556	
1466	0	37536	
1467	0	37456	
1468	0	37360	
1469	0	37296	
1470	0	37144	
1471	0	36980	
1472	0	36848	
1473	0	36730	
1474	0	36592	
1475	0	36404	
1476	0	36268	
1477	0	36128	
1478	0	35936	
1479	0	35788	
1480	0	35668	
1481	0	35556	
1482	0	35416	
1483	0	35276	
1484	0	35128	
1485	0	34964	
1486	0	34804	
1487	0	34628	
1488	0	34388	
1489	0	34172	
1490	0	33944	
1491	0	33704	
1492	0	33492	
1493	0	33268	
1494	0	33088	
1495	0	32904	
1496	0	32732	
1497	0	32544	
1498	0	32360	
1499	0	32216	
1500	0	32080	
1501	0	31928	
1502	0	31824	
1503	0	31696	
1504	0	31572	
1505	0	31452	
1506	0	31328	
1507	0	31152	
1508	0	30960	
1509	0	30816	
1510	0	30672	
1511	0	30534	
1512	0	30404	
1513	0	30260	
1514	0	30144	
1515	0	30000	
1516	0	29916	
1517	0	29852	
1518	0	29824	
1519	0	29796	
1520	0	29774	
1521	0	29780	
1522	0	29776	
1523	0	29728	
1524	0	29724	
1525	0	29704	
1526	0	29658	
1527	0	29568	
1528	0	29452	
1529	0	29392	
1530	0	29364	
1531	0	29348	
1532	0	29308	
1533	0	29290	
1534	0	29244	
1535	0	29200	
1536	0	29164	
1537	0	29164	
1538	0	29200	
1539	0	29224	
1540	0	29256	
1541	0	29286	
1542	0	29348	
1543	0	29420	
1544	0	29472	
1545	0	29492	
1546	0	29480	
1547	0	29466	
1548	0	29436	
1549	0	29436	
1550	0	29428	
1551	0	29394	
1552	0	29376	
1553	0	29392	
1554	0	29400	
1555	0	29432	
1556	0	29472	
1557	0	29540	
1558	0	29536	
1559	0	29532	
1560	0	29588	
1561	0	29664	
1562	0	29748	
1563	0	29770	
1564	0	29812	
1565	0	29884	
1566	0	29904	
1567	0	29896	
1568	0	29920	
1569	0	29888	
1570	0	29816	
1571	0	29828	
1572	0	29884	
1573	0	29920	
1574	0	29928	
1575	0	29928	
1576	0	29932	
1577	0	29936	
1578	0	29964	
1579	0	30044	
1580	0	30160	
1581	0	30258	
1582	0	30320	
1583	0	30406	
1584	0	30424	
1585	0	30400	
1586	0	30380	
1587	0	30372	
1588	0	30356	
1589	0	30368	
1590	0	30376	
1591	0	30368	
1592	0	30348	
1593	0	30400	
1594	0	30424	
1595	0	30392	
1596	0	30452	
1597	0	30506	
1598	0	30532	
1599	0	30608	
1600	0	30652	
1601	0	30688	
1602	0	30760	
1603	0	30808	
1604	0	30768	
1605	0	30800	
1606	0	30832	
1607	0	30872	
1608	0	30888	
1609	0	30880	
1610	0	30876	
1611	0	30896	
1612	0	30908	
1613	0	30912	
1614	0	30908	
1615	0	30916	
1616	0	30924	
1617	0	30900	
1618	0	30920	
1619	0	30938	
1620	0	30992	
1621	0	31008	
1622	0	31020	
1623	0	31064	
1624	0	31112	
1625	0	31168	
1626	0	31212	
1627	0	31216	
1628	0	31184	
1629	0	31172	
1630	0	31180	
1631	0	31164	
1632	0	31152	
1633	0	31144	
1634	0	31088	
1635	0	31080	
1636	0	31112	
1637	0	31138	
1638	0	31172	
1639	0	31232	
1640	0	31264	
1641	0	31330	
1642	0	31386	
1643	0	31424	
1644	0	31434	
1645	0	31452	
1646	0	31444	
1647	0	31452	
1648	0	31440	
1649	0	31384	
1650	0	31348	
1651	0	31340	
1652	0	31360	
1653	0	31368	
1654	0	31384	
1655	0	31336	
1656	0	31296	
1657	0	31284	
1658	0	31392	
1659	0	31496	
1660	0	31576	
1661	0	31592	
1662	0	31560	
1663	0	31556	
1664	0	31648	
1665	0	31764	
1666	0	31740	
1667	0	31712	
1668	0	31732	
1669	0	31752	
1670	0	31752	
1671	0	31692	
1672	0	31648	
1673	0	31624	
1674	0	31608	
1675	0	31592	
1676	0	31600	
1677	0	31632	
1678	0	31664	
1679	0	31656	
1680	0	31676	
1681	0	31724	
1682	0	31784	
1683	0	31844	
1684	0	31916	
1685	0	31976	
1686	0	31972	
1687	0	31936	
1688	0	31888	
1689	0	31840	
1690	0	31854	
1691	0	31876	
1692	0	31820	
1693	0	31754	
1694	0	31716	
1695	0	31680	
1696	0	31712	
1697	0	31752	
1698	0	31728	
1699	0	31780	
1700	0	31852	
1701	0	31904	
1702	0	31942	
1703	0	31960	
1704	0	32000	
1705	0	32032	
1706	0	32078	
1707	0	32096	
1708	0	32068	
1709	0	32016	
1710	0	31964	
1711	0	31912	
1712	0	31856	
1713	0	31836	
1714	0	31828	
1715	0	31788	
1716	0	31768	
1717	0	31834	
1718	0	31900	
1719	0	31928	
1720	0	31944	
1721	0	31976	
1722	0	31978	
1723	0	31992	
1724	0	32052	
1725	0	32128	
1726	0	32116	
1727	0	32084	
1728	0	32048	
1729	0	32000	
1730	0	31968	
1731	0	31900	
1732	0	31872	
1733	0	31920	
1734	0	31956	
1735	0	31976	
1736	0	32024	
1737	0	32072	
1738	0	32106	
1739	0	32088	
1740	0	32064	
1741	0	32040	
1742	0	32076	
1743	0	32172	
1744	0	32224	
1745	0	32224	
1746	0	32264	
1747	0	32320	
1748	0	32308	
1749	0	32288	
1750	0	32272	
1751	0	32264	
1752	0	32260	
1753	0	32248	
1754	0	32240	
1755	0	32250	
1756	0	32268	
1757	0	32328	
1758	0	32372	
1759	0	32404	
1760	0	32416	
1761	0	32432	
1762	0	32472	
1763	0	32478	
1764	0	32492	
1765	0	32484	
1766	0	32476	
1767	0	32448	
1768	0	32392	
1769	0	32382	
1770	0	32400	
1771	0	32352	
1772	0	32304	
1773	0	32332	
1774	0	32424	
1775	0	32572	
1776	0	32686	
1777	0	32772	
1778	0	32892	
1779	0	33036	
1780	0	33220	
1781	0	33402	
1782	0	33552	
1783	0	33658	
1784	0	33780	
1785	0	33968	
1786	0	34116	
1787	0	34176	
1788	0	34144	
1789	0	34072	
1790	0	33976	
1791	0	33936	
1792	0	33944	
1793	0	34036	
1794	0	34096	
1795	0	34096	
1796	0	34148	
1797	0	34220	
1798	0	34280	
1799	0	34320	
1800	0	34332	
1801	0	34472	
1802	0	34720	
1803	0	34896	
1804	0	35040	
1805	0	35206	
1806	0	35348	
1807	0	35440	
1808	0	35492	
1809	0	35460	
1810	0	35380	
1811	0	35248	
1812	0	35164	
1813	0	35128	
1814	0	35096	
1815	0	35120	
1816	0	35148	
1817	0	35196	
1818	0	35320	
1819	0	35400	
1820	0	35368	
1821	0	35298	
1822	0	35192	
1823	0	35112	
1824	0	35020	
1825	0	34872	
1826	0	34684	
1827	0	34512	
1828	0	34340	
1829	0	34136	
1830	0	34040	
1831	0	33968	
1832	0	33856	
1833	0	33776	
1834	0	33716	
1835	0	33648	
1836	0	33532	
1837	0	33456	
1838	0	33456	
1839	0	33480	
1840	0	33484	
1841	0	33496	
1842	0	33544	
1843	0	33520	
1844	0	33412	
1845	0	33296	
1846	0	33148	
1847	0	33080	
1848	0	33036	
1849	0	32920	
1850	0	32792	
1851	0	32696	
1852	0	32644	
1853	0	32508	
1854	0	32404	
1855	0	32296	
1856	0	32232	
1857	0	32161	
1858	0	32108	
1859	0	32044	
1860	0	31970	
1861	0	31904	
1862	0	31848	
1863	0	31784	
1864	0	31768	
1865	0	31806	
1866	0	31818	
1867	0	31776	
1868	0	31768	
1869	0	31728	
1870	0	31648	
1871	0	31624	
1872	0	31632	
1873	0	31648	
1874	0	31644	
1875	0	31664	
1876	0	31668	
1877	0	31696	
1878	0	31718	
1879	0	31752	
1880	0	31788	
1881	0	31820	
1882	0	31820	
1883	0	31804	
1884	0	31816	
1885	0	31840	
1886	0	31858	
1887	0	31828	
1888	0	31760	
1889	0	31708	
1890	0	31680	
1891	0	31680	
1892	0	31680	
1893	0	31656	
1894	0	31668	
1895	0	31656	
1896	0	31636	
1897	0	31676	
1898	0	31728	
1899	0	31768	
1900	0	31792	
1901	0	31848	
1902	0	31992	
1903	0	32096	
1904	0	32156	
1905	0	32172	
1906	0	32148	
1907	0	32084	
1908	0	32060	
1909	0	32044	
1910	0	32064	
1911	0	32000	
1912	0	31938	
1913	0	31876	
1914	0	31836	
1915	0	31736	
1916	0	31688	
1917	0	31636	
1918	0	31488	
1919	0	31402	
1920	0	31384	
1921	0	31372	
1922	0	31388	
1923	0	31428	
1924	0	31480	
1925	0	31660	
1926	0	32052	
1927	0	32568	
1928	0	33076	
1929	0	33652	
1930	0	34420	
1931	0	35400	
1932	0	36532	
1933	0	37796	
1934	0	39256	
1935	0	40796	
1936	0	42208	
1937	0	43584	
1938	0	44984	
1939	0	46496	
1940	0	48052	
1941	0	49560	
1942	0	51008	
1943	0	52356	
1944	0	53740	
1945	0	55204	
1946	0	56592	
1947	0	57776	
1948	0	58800	
1949	0	59672	
1950	0	60360	
1951	0	60872	
1952	0	60628	
1953	0	59316	
1954	0	57220	
1955	0	54324	
1956	0	50932	
1957	0	47448	
1958	0	43652	
1959	0	39352	
1960	0	34876	
1961	0	31148	
1962	0	28504	
1963	0	26804	
1964	0	25888	
1965	0	25466	
1966	0	25394	
1967	0	25542	
1968	0	25738	
1969	0	25984	
1970	0	26300	
1971	0	26752	
1972	0	27264	
1973	0	27812	
1974	0	28324	
1975	0	28752	
1976	0	29168	
1977	0	29532	
1978	0	29892	
1979	0	30156	
1980	0	30324	
1981	0	30404	
1982	0	30468	
1983	0	30504	
1984	0	30512	
1985	0	30448	
1986	0	30400	
1987	0	30320	
1988	0	30228	
1989	0	30144	
1990	0	30104	
1991	0	30044	
1992	0	29976	
1993	0	29918	
1994	0	29868	
1995	0	29848	
1996	0	29876	
1997	0	29868	
1998	0	29872	
1999	0	29920	
2000	0	29964	
2001	0	30000	
2002	0	30028	
2003	0	30068	
2004	0	30100	
2005	0	30092	
2006	0	30144	
2007	0	30188	
2008	0	30168	
2009	0	30136	
2010	0	30136	
2011	0	30116	
2012	0	30112	
2013	0	30112	
2014	0	30092	
2015	0	30168	
2016	0	30236	
2017	0	30278	
2018	0	30356	
2019	0	30418	
2020	0	30452	
2021	0	30516	
2022	0	30568	
2023	0	30584	
2024	0	30650	
2025	0	30704	
2026	0	30760	
2027	0	30820	
2028	0	30844	
2029	0	30856	
2030	0	30820	
2031	0	30816	
2032	0	30800	
2033	0	30804	
2034	0	30832	
2035	0	30816	
2036	0	30848	
2037	0	30912	
2038	0	30996	
2039	0	31096	
2040	0	31196	
2041	0	31224	
2042	0	31258	
2043	0	31276	
2044	0	31284	
2045	0	31272	
2046	0	31292	
2047	0	31344	
2048	0	31392	
2049	0	31400	
2050	0	31410	
2051	0	31388	
2052	0	31354	
2053	0	31382	
2054	0	31448	
2055	0	31508	
2056	0	31568	
2057	0	31576	
2058	0	31592	
2059	0	31656	
2060	0	31752	
2061	0	31776	
2062	0	31804	
2063	0	31872	
2064	0	31900	
2065	0	31892	
2066	0	31888	
2067	0	31892	
2068	0	31884	
2069	0	31858	
2070	0	31848	
2071	0	31880	
2072	0	31904	
2073	0	31924	
2074	0	31940	
2075	0	31956	
2076	0	32012	
2077	0	32016	
2078	0	32064	
2079	0	32144	
2080	0	32276	
2081	0	32352	
2082	0	32390	
2083	0	32364	
2084	0	32386	
2085	0	32396	
2086	0	32400	
2087	0	32408	
2088	0	32432	
2089	0	32426	
2090	0	32380	
2091	0	32340	
2092	0	32352	
2093	0	32428	
2094	0	32504	
2095	0	32528	
2096	0	32552	
2097	0	32564	
2098	0	32616	
2099	0	32694	
2100	0	32748	
2101	0	32860	
2102	0	32992	
2103	0	33112	
2104	0	33162	
2105	0	33204	
2106	0	33220	
2107	0	33232	
2108	0	33256	
2109	0	33276	
2110	0	33312	
2111	0	33328	
2112	0	33336	
2113	0	33340	
2114	0	33364	
2115	0	33400	
2116	0	33428	
2117	0	33504	
2118	0	33644	
2119	0	33748	
2120	0	33836	
2121	0	33936	
2122	0	34012	
2123	0	34136	
2124	0	34268	
2125	0	34360	
2126	0	34428	
2127	0	34456	
2128	0	34412	
2129	0	34408	
2130	0	34484	
2131	0	34540	
2132	0	34572	
2133	0	34576	
2134	0	34664	
2135	0	34720	
2136	0	34788	
2137	0	34872	
2138	0	34928	
2139	0	35044	
2140	0	35156	
2141	0	35296	
2142	0	35412	
2143	0	35508	
2144	0	35592	
2145	0	35712	
2146	0	35856	
2147	0	35944	
2148	0	35980	
2149	0	36012	
2150	0	36020	
2151	0	35988	
2152	0	36016	
2153	0	36132	
2154	0	36224	
2155	0	36264	
2156	0	36318	
2157	0	36448	
2158	0	36516	
2159	0	36592	
2160	0	36664	
2161	0	36736	
2162	0	36796	
2163	0	36864	
2164	0	36960	
2165	0	37080	
2166	0	37140	
2167	0	37176	
2168	0	37180	
2169	0	37172	
2170	0	37188	
2171	0	37192	
2172	0	37228	
2173	0	37196	
2174	0	37140	
2175	0	37160	
2176	0	37204	
2177	0	37196	
2178	0	37200	
2179	0	37232	
2180	0	37240	
2181	0	37304	
2182	0	37352	
2183	0	37376	
2184	0	37380	
2185	0	37408	
2186	0	37432	
2187	0	37436	
2188	0	37392	
2189	0	37288	
2190	0	37128	
2191	0	36988	
2192	0	36880	
2193	0	36760	
2194	0	36592	
2195	0	36468	
2196	0	36352	
2197	0	36228	
2198	0	36124	
2199	0	36000	
2200	0	35840	
2201	0	35696	
2202	0	35560	
2203	0	35428	
2204	0	35264	
2205	0	35088	
2206	0	34898	
2207	0	34672	
2208	0	34448	
2209	0	34208	
2210	0	33956	
2211	0	33730	
2212	0	33532	
2213	0	33298	
2214	0	33092	
2215	0	32922	
2216	0	32732	
2217	0	32552	
2218	0	32436	
2219	0	32306	
2220	0	32176	
2221	0	32036	
2222	0	31924	
2223	0	31836	
2224	0	31688	
2225	0	31484	
2226	0	31372	
2227	0	31268	
2228	0	31100	
2229	0	30964	
2230	0	30808	
2231	0	30624	
2232	0	30456	
2233	0	30304	
2234	0	30152	
2235	0	29996	
2236	0	29888	
2237	0	29825	
2238	0	29764	
2239	0	29712	
2240	0	29672	
2241	0	29648	
2242	0	29604	
2243	0	29596	
2244	0	29616	
2245	0	29596	
2246	0	29568	
2247	0	29448	
2248	0	29378	
2249	0	29272	
2250	0	29160	
2251	0	29100	
2252	0	29136	
2253	0	29140	
2254	0	29128	
2255	0	29072	
2256	0	29012	
2257	0	29004	
2258	0	28952	
2259	0	28994	
2260	0	29116	
2261	0	29260	
2262	0	29364	
2263	0	29408	
2264	0	29388	
2265	0	29432	
2266	0	29440	
2267	0	29404	
2268	0	29328	
2269	0	29328	
2270	0	29334	
2271	0	29324	
2272	0	29272	
2273	0	29191	
2274	0	29204	
2275	0	29216	
2276	0	29232	
2277	0	29308	
2278	0	29392	
2279	0	29456	
2280	0	29476	
2281	0	29528	
2282	0	29640	
2283	0	29752	
2284	0	29816	
2285	0	29808	
2286	0	29788	
2287	0	29760	
2288	0	29792	
2289	0	29836	
2290	0	29832	
2291	0	29864	
2292	0	29872	
2293	0	29848	
2294	0	29812	
2295	0	29822	
2296	0	29904	
2297	0	29920	
2298	0	29972	
2299	0	30024	
2300	0	30060	
2301	0	30144	
2302	0	30220	
2303	0	30268	
2304	0	30260	
2305	0	30316	
2306	0	30360	
2307	0	30292	
2308	0	30246	
2309	0	30256	
2310	0	30268	
2311	0	30300	
2312	0	30312	
2313	0	30296	
2314	0	30288	
2315	0	30324	
2316	0	30360	
2317	0	30424	
2318	0	30498	
2319	0	30520	
2320	0	30476	
2321	0	30512	
2322	0	30650	
2323	0	30788	
2324	0	30836	
2325	0	30820	
2326	0	30844	
2327	0	30836	
2328	0	30760	
2329	0	30688	
2330	0	30600	
2331	0	30616	
2332	0	30644	
2333	0	30640	
2334	0	30664	
2335	0	30664	
2336	0	30672	
2337	0	30720	
2338	0	30776	
2339	0	30792	
2340	0	30800	
2341	0	30912	
2342	0	31008	
2343	0	31072	
2344	0	31104	
2345	0	31092	
2346	0	31064	
2347	0	31068	
2348	0	31080	
2349	0	31052	
2350	0	30940	
2351	0	30680	
2352	0	30560	
2353	0	30720	
2354	0	30948	
2355	0	31020	
2356	0	31042	
2357	0	31028	
2358	0	30928	
2359	0	30812	
2360	0	30940	
2361	0	31112	
2362	0	31120	
2363	0	31156	
2364	0	31328	
2365	0	31428	
2366	0	31368	
2367	0	31304	
2368	0	31332	
2369	0	31320	
2370	0	31204	
2371	0	31144	
2372	0	31180	
2373	0	31256	
2374	0	31244	
2375	0	31192	
2376	0	31232	
2377	0	31256	
2378	0	31300	
2379	0	31348	
2380	0	31424	
2381	0	31448	
2382	0	31472	
2383	0	31528	
2384	0	31580	
2385	0	31612	
2386	0	31616	
2387	0	31620	
2388	0	31664	
2389	0	31644	
2390	0	31572	
2391	0	31544	
2392	0	31532	
2393	0	31532	
2394	0	31504	
2395	0	31476	
2396	0	31544	
2397	0	31568	
2398	0	31564	
2399	0	31532	
2400	0	31612	
2401	0	31720	
2402	0	31778	
2403	0	31816	
2404	0	31876	
2405	0	31904	
2406	0	31904	
2407	0	31916	
2408	0	31864	
2409	0	31768	
2410	0	31736	
2411	0	31728	
2412	0	31732	
2413	0	31736	
2414	0	31750	
2415	0	31752	
2416	0	31756	
2417	0	31748	
2418	0	31792	
2419	0	31820	
2420	0	31792	
2421	0	31804	
2422	0	31832	
2423	0	31868	
2424	0	31952	
2425	0	31960	
2426	0	31968	
2427	0	32016	
2428	0	32024	
2429	0	32008	
2430	0	31960	
2431	0	31916	
2432	0	31940	
2433	0	31922	
2434	0	31916	
2435	0	31904	
2436	0	31880	
2437	0	31800	
2438	0	31714	
2439	0	31784	
2440	0	31936	
2441	0	32044	
2442	0	32108	
2443	0	32060	
2444	0	32064	
2445	0	32080	
2446	0	32044	
2447	0	32056	
2448	0	32120	
2449	0	32092	
2450	0	32008	
2451	0	31956	
2452	0	31928	
2453	0	31898	
2454	0	31916	
2455	0	31978	
2456	0	32036	
2457	0	32040	
2458	0	32040	
2459	0	32098	
2460	0	32136	
2461	0	32164	
2462	0	32224	
2463	0	32304	
2464	0	32380	
2465	0	32416	
2466	0	32404	
2467	0	32434	
2468	0	32416	
2469	0	32312	
2470	0	32232	
2471	0	32256	
2472	0	32268	
2473	0	32228	
2474	0	32228	
2475	0	32260	
2476	0	32208	
2477	0	32176	
2478	0	32228	
2479	0	32300	
2480	0	32332	
2481	0	32356	
2482	0	32380	
2483	0	32440	
2484	0	32458	
2485	0	32368	
2486	0	32296	
2487	0	32288	
2488	0	32336	
2489	0	32360	
2490	0	32266	
2491	0	32232	
2492	0	32224	
2493	0	32236	
2494	0	32268	
2495	0	32316	
2496	0	32328	
2497	0	32328	
2498	0	32328	
2499	0	32340	
2500	0	32360	
2501	0	32468	
2502	0	32512	
2503	0	32560	
2504	0	32616	
2505	0	32656	
2506	0	32648	
2507	0	32572	
2508	0	32536	
2509	0	32496	
2510	0	32464	
2511	0	32428	
2512	0	32420	
2513	0	32440	
2514	0	32484	
2515	0	32544	
2516	0	32636	
2517	0	32756	
2518	0	32884	
2519	0	33104	
2520	0	33372	
2521	0	33592	
2522	0	33680	
2523	0	33768	
2524	0	33864	
2525	0	33960	
2526	0	34032	
2527	0	34074	
2528	0	34112	
2529	0	34062	
2530	0	33984	
2531	0	33984	
2532	0	34012	
2533	0	34060	
2534	0	34108	
2535	0	34112	
2536	0	34200	
2537	0	34264	
2538	0	34306	
2539	0	34336	
2540	0	34408	
2541	0	34536	
2542	0	34720	
2543	0	34944	
2544	0	35144	
2545	0	35304	
2546	0	35392	
2547	0	35404	
2548	0	35464	
2549	0	35456	
2550	0	35396	
2551	0	35340	
2552	0	35304	
2553	0	35288	
2554	0	35258	
2555	0	35240	
2556	0	35296	
2557	0	35424	
2558	0	35520	
2559	0	35520	
2560	0	35408	
2561	0	35288	
2562	0	35162	
2563	0	35068	
2564	0	34936	
2565	0	34736	
2566	0	34532	
2567	0	34356	
2568	0	34204	
2569	0	34108	
2570	0	34012	
2571	0	33864	
2572	0	33724	
2573	0	33632	
2574	0	33520	
2575	0	33456	
2576	0	33460	
2577	0	33480	
2578	0	33484	
2579	0	33472	
2580	0	33504	
2581	0	33484	
2582	0	33424	
2583	0	33424	
2584	0	33436	
2585	0	33328	
2586	0	33216	
2587	0	33096	
2588	0	32976	
2589	0	32912	
2590	0	32772	
2591	0	32598	
2592	0	32456	
2593	0	32336	
2594	0	32238	
2595	0	32144	
2596	0	32096	
2597	0	32026	
2598	0	31936	
2599	0	31868	
2600	0	31840	
2601	0	31800	
2602	0	31764	
2603	0	31760	
2604	0	31796	
2605	0	31800	
2606	0	31802	
2607	0	31752	
2608	0	31700	
2609	0	31690	
2610	0	31712	
2611	0	31640	
2612	0	31550	
2613	0	31538	
2614	0	31544	
2615	0	31488	
2616	0	31552	
2617	0	31640	
2618	0	31708	
2619	0	31772	
2620	0	31840	
2621	0	31884	
2622	0	31924	
2623	0	31908	
2624	0	31880	
2625	0	31844	
2626	0	31868	
2627	0	31880	
2628	0	31868	
2629	0	31856	
2630	0	31796	
2631	0	31720	
2632	0	31676	
2633	0	31676	
2634	0	31680	
2635	0	31716	
2636	0	31728	
2637	0	31792	
2638	0	31840	
2639	0	31900	
2640	0	31988	
2641	0	32040	
2642	0	32088	
2643	0	32112	
2644	0	32092	
2645	0	32124	
2646	0	32180	
2647	0	32220	
2648	0	32272	
2649	0	32256	
2650	0	32184	
2651	0	32148	
2652	0	32096	
2653	0	32000	
2654	0	31900	
2655	0	31760	
2656	0	31632	
2657	0	31568	
2658	0	31424	
2659	0	31296	
2660	0	31196	
2661	0	31264	
2662	0	31328	
2663	0	31360	
2664	0	31520	
2665	0	31816	
2666	0	32248	
2667	0	32756	
2668	0	33328	
2669	0	34080	
2670	0	35020	
2671	0	36056	
2672	0	37252	
2673	0	38692	
2674	0	40256	
2675	0	41744	
2676	0	43160	
2677	0	44640	
2678	0	46100	
2679	0	47672	
2680	0	49236	
2681	0	50752	
2682	0	52252	
2683	0	53696	
2684	0	55060	
2685	0	56396	
2686	0	57656	
2687	0	58752	
2688	0	59640	
2689	0	60224	
2690	0	60672	
2691	0	60584	
2692	0	59368	
2693	0	57268	
2694	0	54352	
2695	0	51000	
2696	0	47536	
2697	0	43840	
2698	0	39624	
2699	0	35120	
2700	0	31276	
2701	0	28536	
2702	0	26844	
2703	0	25972	
2704	0	25608	
2705	0	25574	
2706	0	25728	
2707	0	25908	
2708	0	26164	
2709	0	26400	
2710	0	26808	
2711	0	27284	
2712	0	27780	
2713	0	28266	
2714	0	28712	
2715	0	29124	
2716	0	29564	
2717	0	29920	
2718	0	30180	
2719	0	30348	
2720	0	30504	
2721	0	30576	
2722	0	30568	
2723	0	30548	
2724	0	30520	
2725	0	30464	
2726	0	30336	
2727	0	30208	
2728	0	30108	
2729	0	30060	
2730	0	29984	
2731	0	29896	
2732	0	29828	
2733	0	29864	
2734	0	29884	
2735	0	29876	
2736	0	29864	
2737	0	29904	
2738	0	29904	
2739	0	29920	
2740	0	29996	
2741	0	30056	
2742	0	30126	
2743	0	30172	
2744	0	30136	
2745	0	30108	
2746	0	30132	
2747	0	30170	
2748	0	30196	
2749	0	30204	
2750	0	30202	
2751	0	30196	
2752	0	30200	
2753	0	30172	
2754	0	30184	
2755	0	30260	
2756	0	30312	
2757	0	30376	
2758	0	30440	
2759	0	30484	
2760	0	30516	
2761	0	30576	
2762	0	30672	
2763	0	30736	
2764	0	30796	
2765	0	30888	
2766	0	30928	
2767	0	30946	
2768	0	30904	
2769	0	30876	
2770	0	30892	
2771	0	30892	
2772	0	30868	
2773	0	30860	
2774	0	30828	
2775	0	30816	
2776	0	30936	
2777	0	31052	
2778	0	31100	
2779	0	31112	
2780	0	31144	
2781	0	31208	
2782	0	31300	
2783	0	31372	
2784	0	31404	
2785	0	31416	
2786	0	31464	
2787	0	31476	
2788	0	31452	
2789	0	31426	
2790	0	31404	
2791	0	31396	
2792	0	31384	
2793	0	31412	
2794	0	31462	
2795	0	31424	
2796	0	31480	
2797	0	31614	
2798	0	31636	
2799	0	31674	
2800	0	31768	
2801	0	31832	
2802	0	31840	
2803	0	31860	
2804	0	31856	
2805	0	31856	
2806	0	31856	
2807	0	31816	
2808	0	31820	
2809	0	31808	
2810	0	31756	
2811	0	31720	
2812	0	31692	
2813	0	31764	
2814	0	31918	
2815	0	31957	
2816	0	31964	
2817	0	32024	
2818	0	32096	
2819	0	32196	
2820	0	32256	
2821	0	32304	
2822	0	32340	
2823	0	32416	
2824	0	32428	
2825	0	32384	
2826	0	32368	
2827	0	32360	
2828	0	32380	
2829	0	32380	
2830	0	32404	
2831	0	32474	
2832	0	32464	
2833	0	32416	
2834	0	32460	
2835	0	32544	
2836	0	32576	
2837	0	32636	
2838	0	32680	
2839	0	32704	
2840	0	32824	
2841	0	32924	
2842	0	33024	
2843	0	33088	
2844	0	33052	
2845	0	33020	
2846	0	33084	
2847	0	33168	
2848	0	33204	
2849	0	33292	
2850	0	33368	
2851	0	33360	
2852	0	33288	
2853	0	33288	
2854	0	33336	
2855	0	33368	
2856	0	33392	
2857	0	33412	
2858	0	33452	
2859	0	33544	
2860	0	33616	
2861	0	33688	
2862	0	33780	
2863	0	33884	
2864	0	33952	
2865	0	33976	
2866	0	34004	
2867	0	34072	
2868	0	34092	
2869	0	34112	
2870	0	34120	
2871	0	34176	
2872	0	34272	
2873	0	34352	
2874	0	34436	
2875	0	34588	
2876	0	34712	
2877	0	34788	
2878	0	34832	
2879	0	34888	
2880	0	35068	
2881	0	35164	
2882	0	35152	
2883	0	35216	
2884	0	35344	
2885	0	35472	
2886	0	35520	
2887	0	35572	
2888	0	35616	
2889	0	35648	
2890	0	35644	
2891	0	35684	
2892	0	35728	
2893	0	35782	
2894	0	35824	
2895	0	35888	
2896	0	35968	
2897	0	36024	
2898	0	36080	
2899	0	36168	
2900	0	36300	
2901	0	36424	
2902	0	36472	
2903	0	36544	
2904	0	36616	
2905	0	36680	
2906	0	36712	
2907	0	36768	
2908	0	36788	
2909	0	36772	
2910	0	36760	
2911	0	36740	
2912	0	36760	
2913	0	36832	
2914	0	36848	
2915	0	36820	
2916	0	36844	
2917	0	36904	
2918	0	36908	
2919	0	36980	
2920	0	37032	
2921	0	37040	
2922	0	37008	
2923	0	37000	
2924	0	37056	
2925	0	37064	
2926	0	37048	
2927	0	36996	
2928	0	36922	
2929	0	36796	
2930	0	36704	
2931	0	36588	
2932	0	36448	
2933	0	36320	
2934	0	36212	
2935	0	36140	
2936	0	36026	
2937	0	35864	
2938	0	35728	
2939	0	35642	
2940	0	35568	
2941	0	35476	
2942	0	35304	
2943	0	35100	
2944	0	34936	
2945	0	34780	
2946	0	34584	
2947	0	34340	
2948	0	34096	
2949	0	33888	
2950	0	33636	
2951	0	33340	
2952	0	33040	
2953	0	32852	
2954	0	32688	
2955	0	32524	
2956	0	32376	
2957	0	32196	
2958	0	32024	
2959	0	31876	
2960	0	31708	
2961	0	31580	
2962	0	31524	
2963	0	31432	
2964	0	31264	
2965	0	31092	
2966	0	30944	
2967	0	30792	
2968	0	30600	
2969	0	30384	
2970	0	30188	
2971	0	30088	
2972	0	29972	
2973	0	29868	
2974	0	29772	
2975	0	29656	
2976	0	29564	
2977	0	29432	
2978	0	29336	
2979	0	29316	
2980	0	29304	
2981	0	29256	
2982	0	29168	
2983	0	29132	
2984	0	29052	
2985	0	29020	
2986	0	28992	
2987	0	28932	
2988	0	28884	
2989	0	28800	
2990	0	28732	
2991	0	28682	
2992	0	28648	
2993	0	28540	
2994	0	28480	
2995	0	28558	
2996	0	28624	
2997	0	28624	
2998	0	28636	
2999	0	28676	
3000	0	28704	
3001	0	28756	
3002	0	28818	
3003	0	28888	
3004	0	28952	
3005	0	28960	
3006	0	28940	
3007	0	28916	
3008	0	28880	
3009	0	28760	
3010	0	28680	
3011	0	28696	
3012	0	28768	
3013	0	28828	
3014	0	28812	
3015	0	28780	
3016	0	28776	
3017	0	28832	
3018	0	28858	
3019	0	28906	
3020	0	28948	
3021	0	29000	
3022	0	29068	
3023	0	29148	
3024	0	29228	
3025	0	29248	
3026	0	29232	
3027	0	29244	
3028	0	29244	
3029	0	29224	
3030	0	29210	
3031	0	29216	
3032	0	29240	
3033	0	29248	
3034	0	29284	
3035	0	29300	
3036	0	29300	
3037	0	29324	
3038	0	29368	
3039	0	29444	
3040	0	29504	
3041	0	29576	
3042	0	29664	
3043	0	29716	
3044	0	29800	
3045	0	29832	
3046	0	29824	
3047	0	29802	
3048	0	29808	
3049	0	29800	
3050	0	29848	
3051	0	29852	
3052	0	29836	
3053	0	29828	
3054	0	29852	
3055	0	29900	
3056	0	29904	
3057	0	29950	
3058	0	30028	
3059	0	30088	
3060	0	30108	
3061	0	30146	
3062	0	30268	
3063	0	30324	
3064	0	30328	
3065	0	30344	
3066	0	30344	
3067	0	30336	
3068	0	30336	
3069	0	30368	
3070	0	30316	
3071	0	30248	
3072	0	30276	
3073	0	30316	
3074	0	30336	
3075	0	30376	
3076	0	30442	
3077	0	30460	
3078	0	30532	
3079	0	30624	
3080	0	30712	
3081	0	30776	
3082	0	30754	
3083	0	30724	
3084	0	30680	
3085	0	30672	
3086	0	30652	
3087	0	30650	
3088	0	30624	
3089	0	30624	
3090	0	30620	
3091	0	30596	
3092	0	30608	
3093	0	30632	
3094	0	30668	
3095	0	30692	
3096	0	30796	
3097	0	30860	
3098	0	30884	
3099	0	30892	
3100	0	30912	
3101	0	30928	
3102	0	30940	
3103	0	30952	
3104	0	30996	
3105	0	31008	
3106	0	31020	
3107	0	31060	
3108	0	31060	
3109	0	31040	
3110	0	30984	
3111	0	30962	
3112	0	31004	
3113	0	30944	
3114	0	30908	
3115	0	30932	
3116	0	30962	
3117	0	30970	
3118	0	30956	
3119	0	31016	
3120	0	31036	
3121	0	31084	
3122	0	31152	
3123	0	31200	
3124	0	31240	
3125	0	31332	
3126	0	31288	
3127	0	31168	
3128	0	31140	
3129	0	31180	
3130	0	31216	
3131	0	31176	
3132	0	31168	
3133	0	31188	
3134	0	31176	
3135	0	31184	
3136	0	31216	
3137	0	31244	
3138	0	31280	
3139	0	31334	
3140	0	31384	
3141	0	31436	
3142	0	31492	
3143	0	31530	
3144	0	31556	
3145	0	31640	
3146	0	31664	
3147	0	31592	
3148	0	31532	
3149	0	31516	
3150	0	31488	
3151	0	31408	
3152	0	31376	
3153	0	31400	
3154	0	31388	
3155	0	31376	
3156	0	31382	
3157	0	31456	
3158	0	31604	
3159	0	31692	
3160	0	31716	
3161	0	31752	
3162	0	31820	
3163	0	31864	
3164	0	31852	
3165	0	31840	
3166	0	31812	
3167	0	31656	
3168	0	31588	
3169	0	31624	
3170	0	31608	
3171	0	31528	
3172	0	31464	
3173	0	31448	
3174	0	31472	
3175	0	31490	
3176	0	31516	
3177	0	31612	
3178	0	31700	
3179	0	31760	
3180	0	31792	
3181	0	31784	
3182	0	31680	
3183	0	31672	
3184	0	31752	
3185	0	31772	
3186	0	31752	
3187	0	31740	
3188	0	31734	
3189	0	31708	
3190	0	31692	
3191	0	31656	
3192	0	31632	
3193	0	31672	
3194	0	31740	
3195	0	31776	
3196	0	31768	
3197	0	31792	
3198	0	31856	
3199	0	31936	
3200	0	32024	
3201	0	32048	
3202	0	31992	
3203	0	32014	
3204	0	32088	
3205	0	32076	
3206	0	32020	
3207	0	31968	
3208	0	31980	
3209	0	31930	
3210	0	31868	
3211	0	31840	
3212	0	31944	
3213	0	31956	
3214	0	31964	
3215	0	31932	
3216	0	31920	
3217	0	31960	
3218	0	32038	
3219	0	32124	
3220	0	32160	
3221	0	32172	
3222	0	32238	
3223	0	32316	
3224	0	32336	
3225	0	32336	
3226	0	32392	
3227	0	32412	
3228	0	32428	
3229	0	32436	
3230	0	32412	
3231	0	32416	
3232	0	32498	
3233	0	32640	
3234	0	32764	
3235	0	32868	
3236	0	33004	
3237	0	33120	
3238	0	33284	
3239	0	33478	
3240	0	33644	
3241	0	33716	
3242	0	33752	
3243	0	33740	
3244	0	33760	
3245	0	33800	
3246	0	33800	
3247	0	33784	
3248	0	33748	
3249	0	33806	
3250	0	33904	
3251	0	33872	
3252	0	33900	
3253	0	33984	
3254	0	34088	
3255	0	34176	
3256	0	34312	
3257	0	34512	
3258	0	34716	
3259	0	34858	
3260	0	34980	
3261	0	35084	
3262	0	35144	
3263	0	35200	
3264	0	35200	
3265	0	35120	
3266	0	35104	
3267	0	35120	
3268	0	35148	
3269	0	35164	
3270	0	35188	
3271	0	35228	
3272	0	35204	
3273	0	35080	
3274	0	34944	
3275	0	34912	
3276	0	34864	
3277	0	34736	
3278	0	34584	
3279	0	34512	
3280	0	34440	
3281	0	34284	
3282	0	34184	
3283	0	34132	
3284	0	34080	
3285	0	34040	
3286	0	34004	
3287	0	33856	
3288	0	33744	
3289	0	33598	
3290	0	33408	
3291	0	33304	
3292	0	33232	
3293	0	33188	
3294	0	33132	
3295	0	33120	
3296	0	33120	
3297	0	32984	
3298	0	32852	
3299	0	32880	
3300	0	32864	
3301	0	32808	
3302	0	32824	
3303	0	32792	
3304	0	32744	
3305	0	32640	
3306	0	32468	
3307	0	32352	
3308	0	32296	
3309	0	32168	
3310	0	32076	
3311	0	31936	
3312	0	31826	
3313	0	31712	
3314	0	31624	
3315	0	31572	
3316	0	31592	
3317	0	31588	
3318	0	31616	
3319	0	31656	
3320	0	31712	
3321	0	31784	
3322	0	31804	
3323	0	31840	
3324	0	31840	
3325	0	31844	
3326	0	31880	
3327	0	31908	
3328	0	31880	
3329	0	31778	
3330	0	31714	
3331	0	31736	
3332	0	31730	
3333	0	31640	
3334	0	31616	
3335	0	31588	
3336	0	31564	
3337	0	31562	
3338	0	31632	
3339	0	31700	
3340	0	31748	
3341	0	31836	
3342	0	31872	
3343	0	31794	
3344	0	31792	
3345	0	31824	
3346	0	31840	
3347	0	31808	
3348	0	31810	
3349	0	31836	
3350	0	31820	
3351	0	31792	
3352	0	31800	
3353	0	31804	
3354	0	31744	
3355	0	31692	
3356	0	31692	
3357	0	31724	
3358	0	31732	
3359	0	31760	
3360	0	31856	
3361	0	31944	
3362	0	31968	
3363	0	31982	
3364	0	32036	
3365	0	32044	
3366	0	31964	
3367	0	31944	
3368	0	31920	
3369	0	31800	
3370	0	31712	
3371	0	31580	
3372	0	31404	
3373	0	31268	
3374	0	31128	
3375	0	30996	
3376	0	30896	
3377	0	30960	
3378	0	31129	
3379	0	31360	
3380	0	31776	
3381	0	32292	
3382	0	32892	
3383	0	33584	
3384	0	34476	
3385	0	35548	
3386	0	36728	
3387	0	38140	
3388	0	39680	
3389	0	41120	
3390	0	42568	
3391	0	44044	
3392	0	45536	
3393	0	47072	
3394	0	48584	
3395	0	50028	
3396	0	51320	
3397	0	52656	
3398	0	53992	
3399	0	55352	
3400	0	56700	
3401	0	57940	
3402	0	59088	
3403	0	59948	
3404	0	60392	
3405	0	60400	
3406	0	59492	
3407	0	57724	
3408	0	55128	
3409	0	51860	
3410	0	48404	
3411	0	44832	
3412	0	40788	
3413	0	36340	
3414	0	31964	
3415	0	28468	
3416	0	26208	
3417	0	25028	
3418	0	24592	
3419	0	24604	
3420	0	24946	
3421	0	25348	
3422	0	25680	
3423	0	25964	
3424	0	26284	
3425	0	26612	
3426	0	26860	
3427	0	27152	
3428	0	27532	
3429	0	27952	
3430	0	28288	
3431	0	28596	
3432	0	28956	
3433	0	29296	
3434	0	29600	
3435	0	29824	
3436	0	29984	
3437	0	30112	
3438	0	30168	
3439	0	30176	
3440	0	30152	
3441	0	30128	
3442	0	30124	
3443	0	30112	
3444	0	30080	
3445	0	29992	
3446	0	29916	
3447	0	29922	
3448	0	29904	
3449	0	29908	
3450	0	29832	
3451	0	29842	
3452	0	29826	
3453	0	29840	
3454	0	29824	
3455	0	29864	
3456	0	29964	
3457	0	30052	
3458	0	30144	
3459	0	30236	
3460	0	30336	
3461	0	30360	
3462	0	30284	
3463	0	30284	
3464	0	30338	
3465	0	30388	
3466	0	30484	
3467	0	30492	
3468	0	30448	
3469	0	30360	
3470	0	30284	
3471	0	30224	
3472	0	30224	
3473	0	30272	
3474	0	30352	
3475	0	30444	
3476	0	30484	
3477	0	30460	
3478	0	30484	
3479	0	30592	
3480	0	30712	
3481	0	30816	
3482	0	30908	
3483	0	30952	
3484	0	30954	
3485	0	30964	
3486	0	31036	
3487	0	31076	
3488	0	31088	
3489	0	31072	
3490	0	31032	
3491	0	31008	
3492	0	31002	
3493	0	30984	
3494	0	30942	
3495	0	30904	
3496	0	30944	
3497	0	31008	
3498	0	31048	
3499	0	31192	
3500	0	31376	
3501	0	31472	
3502	0	31540	
3503	0	31588	
3504	0	31576	
3505	0	31540	
3506	0	31516	
3507	0	31512	
3508	0	31534	
3509	0	31624	
3510	0	31628	
3511	0	31540	
3512	0	31456	
3513	0	31450	
3514	0	31512	
3515	0	31524	
3516	0	31624	
3517	0	31712	
3518	0	31732	
3519	0	31844	
3520	0	31920	
3521	0	31908	
3522	0	31904	
3523	0	31908	
3524	0	31944	
3525	0	32008	
3526	0	32040	
3527	0	32032	
3528	0	32004	
3529	0	31904	
3530	0	31924	
3531	0	32032	
3532	0	32074	
3533	0	32092	
3534	0	32096	
3535	0	32048	
3536	0	32106	
3537	0	32232	
3538	0	32336	
3539	0	32376	
3540	0	32488	
3541	0	32560	
3542	0	32608	
3543	0	32624	
3544	0	32680	
3545	0	32752	
3546	0	32776	
3547	0	32740	
3548	0	32720	
3549	0	32736	
3550	0	32704	
3551	0	32652	
3552	0	32656	
3553	0	32660	
3554	0	32612	
3555	0	32696	
3556	0	32844	
3557	0	32940	
3558	0	33052	
3559	0	33116	
3560	0	33184	
3561	0	33296	
3562	0	33372	
3563	0	33384	
3564	0	33378	
3565	0	33414	
3566	0	33500	
3567	0	33544	
3568	0	33568	
3569	0	33532	
3570	0	33496	
3571	0	33504	
3572	0	33610	
3573	0	33640	
3574	0	33648	
3575	0	33710	
3576	0	33752	
3577	0	33784	
3578	0	33844	
3579	0	33948	
3580	0	34154	
3581	0	34241	
3582	0	34336	
3583	0	34436	
3584	0	34464	
3585	0	34396	
3586	0	34400	
3587	0	34476	
3588	0	34608	
3589	0	34744	
3590	0	34804	
3591	0	34836	
3592	0	34860	
3593	0	34952	
3594	0	35072	
3595	0	35244	
3596	0	35308	
3597	0	35416	
3598	0	35536	
3599	0	35592	
3600	0	35684	
3601	0	35796	
3602	0	35928	
3603	0	35980	
3604	0	36064	
3605	0	36136	
3606	0	36164	
3607	0	36116	
3608	0	36064	
3609	0	36032	
3610	0	36120	
3611	0	36192	
3612	0	36196	
3613	0	36224	
3614	0	36348	
3615	0	36488	
3616	0	36594	
3617	0	36692	
3618	0	36852	
3619	0	36972	
3620	0	37096	
3621	0	37212	
3622	0	37284	
3623	0	37304	
3624	0	37344	
3625	0	37376	
3626	0	37356	
3627	0	37344	
3628	0	37316	
3629	0	37320	
3630	0	37280	
3631	0	37216	
3632	0	37156	
3633	0	37120	
3634	0	37088	
3635	0	37144	
3636	0	37224	
3637	0	37344	
3638	0	37432	
3639	0	37404	
3640	0	37360	
3641	0	37296	
3642	0	37240	
3643	0	37288	
3644	0	37200	
3645	0	37096	
3646	0	37016	
3647	0	36928	
3648	0	36824	
3649	0	36720	
3650	0	36532	
3651	0	36296	
3652	0	36064	
3653	0	35952	
3654	0	35868	
3655	0	35696	
3656	0	35548	
3657	0	35412	
3658	0	35232	
3659	0	35040	
3660	0	34864	
3661	0	34744	
3662	0	34656	
3663	0	34528	
3664	0	34276	
3665	0	34076	
3666	0	33868	
3667	0	33658	
3668	0	33452	
3669	0	33236	
3670	0	33008	
3671	0	32760	
3672	0	32496	
3673	0	32262	
3674	0	32052	
3675	0	31900	
3676	0	31800	
3677	0	31680	
3678	0	31568	
3679	0	31504	
3680	0	31472	
3681	0	31408	
3682	0	31194	
3683	0	30970	
3684	0	30784	
3685	0	30620	
3686	0	30444	
3687	0	30332	
3688	0	30180	
3689	0	30050	
3690	0	29904	
3691	0	29744	
3692	0	29624	
3693	0	29508	
3694	0	29496	
3695	0	29414	
3696	0	29392	
3697	0	29390	
3698	0	29328	
3699	0	29300	
3700	0	29276	
3701	0	29252	
3702	0	29316	
3703	0	29324	
3704	0	29256	
3705	0	29228	
3706	0	29212	
3707	0	29188	
3708	0	29188	
3709	0	29192	
3710	0	29132	
3711	0	29136	
3712	0	29084	
3713	0	28996	
3714	0	28940	
3715	0	28968	
3716	0	29030	
3717	0	29012	
3718	0	29016	
3719	0	29104	
3720	0	29160	
3721	0	29156	
3722	0	29212	
3723	0	29276	
3724	0	29284	
3725	0	29280	
3726	0	29228	
3727	0	29236	
3728	0	29248	
3729	0	29216	
3730	0	29148	
3731	0	29184	
3732	0	29268	
3733	0	29312	
3734	0	29380	
3735	0	29344	
3736	0	29308	
3737	0	29512	
3738	0	29640	
3739	0	29624	
3740	0	29632	
3741	0	29580	
3742	0	29560	
3743	0	29616	
3744	0	29682	
3745	0	29744	
3746	0	29780	
3747	0	29740	
3748	0	29664	
3749	0	29644	
3750	0	29664	
3751	0	29706	
3752	0	29704	
3753	0	29648	
3754	0	29668	
3755	0	29736	
3756	0	29884	
3757	0	30032	
3758	0	30104	
3759	0	30156	
3760	0	30192	
3761	0	30228	
3762	0	30224	
3763	0	30154	
3764	0	30144	
3765	0	30244	
3766	0	30304	
3767	0	30312	
3768	0	30276	
3769	0	30252	
3770	0	30232	
3771	0	30184	
3772	0	30232	
3773	0	30264	
3774	0	30344	
3775	0	30440	
3776	0	30452	
3777	0	30432	
3778	0	30496	
3779	0	30544	
3780	0	30564	
3781	0	30576	
3782	0	30596	
3783	0	30696	
3784	0	30730	
3785	0	30704	
3786	0	30728	
3787	0	30752	
3788	0	30752	
3789	0	30746	
3790	0	30744	
3791	0	30752	
3792	0	30792	
3793	0	30816	
3794	0	30784	
3795	0	30764	
3796	0	30864	
3797	0	30996	
3798	0	31004	
3799	0	30996	
3800	0	31028	
3801	0	31088	
3802	0	31152	
3803	0	31192	
3804	0	31204	
3805	0	31176	
3806	0	31172	
3807	0	31194	
3808	0	31164	
3809	0	31092	
3810	0	31072	
3811	0	31076	
3812	0	31116	
3813	0	31106	
3814	0	31096	
3815	0	31120	
3816	0	31214	
3817	0	31272	
3818	0	31272	
3819	0	31320	
3820	0	31308	
3821	0	31388	
3822	0	31404	
3823	0	31308	
3824	0	31244	
3825	0	31320	
3826	0	31404	
3827	0	31444	
3828	0	31456	
3829	0	31456	
3830	0	31396	
3831	0	31392	
3832	0	31384	
3833	0	31368	
3834	0	31340	
3835	0	31336	
3836	0	31392	
3837	0	31472	
3838	0	31516	
3839	0	31516	
3840	0	31504	
3841	0	31528	
3842	0	31576	
3843	0	31552	
3844	0	31604	
3845	0	31624	
3846	0	31600	
3847	0	31500	
3848	0	31472	
3849	0	31484	
3850	0	31480	
3851	0	31488	
3852	0	31524	
3853	0	31554	
3854	0	31540	
3855	0	31580	
3856	0	31700	
3857	0	31744	
3858	0	31780	
3859	0	31836	
3860	0	31852	
3861	0	31856	
3862	0	31880	
3863	0	31840	
3864	0	31828	
3865	0	31812	
3866	0	31828	
3867	0	31752	
3868	0	31704	
3869	0	31620	
3870	0	31588	
3871	0	31600	
3872	0	31548	
3873	0	31540	
3874	0	31544	
3875	0	31584	
3876	0	31676	
3877	0	31708	
3878	0	31744	
3879	0	31834	
3880	0	31892	
3881	0	31894	
3882	0	31912	
3883	0	31948	
3884	0	31970	
3885	0	31944	
3886	0	31856	
3887	0	31802	
3888	0	31812	
3889	0	31824	
3890	0	31808	
3891	0	31784	
3892	0	31772	
3893	0	31744	
3894	0	31772	
3895	0	31820	
3896	0	31936	
3897	0	31944	
3898	0	31928	
3899	0	31852	
3900	0	31844	
3901	0	31888	
3902	0	31924	
3903	0	31944	
3904	0	31972	
3905	0	32056	
3906	0	32088	
3907	0	32028	
3908	0	31994	
3909	0	31998	
3910	0	31996	
3911	0	31976	
3912	0	32024	
3913	0	32088	
3914	0	32152	
3915	0	32288	
3916	0	32440	
3917	0	32604	
3918	0	32744	
3919	0	32896	
3920	0	33080	
3921	0	33280	
3922	0	33352	
3923	0	33384	
3924	0	33440	
3925	0	33512	
3926	0	33560	
3927	0	33480	
3928	0	33444	
3929	0	33440	
3930	0	33448	
3931	0	33536	
3932	0	33588	
3933	0	33600	
3934	0	33622	
3935	0	33696	
3936	0	33852	
3937	0	34032	
3938	0	34184	
3939	0	34330	
3940	0	34512	
3941	0	34664	
3942	0	34786	
3943	0	34912	
3944	0	35034	
3945	0	35044	
3946	0	34956	
3947	0	34808	
3948	0	34736	
3949	0	34708	
3950	0	34688	
3951	0	34762	
3952	0	34828	
3953	0	34968	
3954	0	35028	
3955	0	34936	
3956	0	34848	
3957	0	34784	
3958	0	34692	
3959	0	34568	
3960	0	34512	
3961	0	34432	
3962	0	34292	
3963	0	34136	
3964	0	33976	
3965	0	33908	
3966	0	33870	
3967	0	33764	
3968	0	33692	
3969	0	33620	
3970	0	33584	
3971	0	33514	
3972	0	33420	
3973	0	33340	
3974	0	33292	
3975	0	33280	
3976	0	33248	
3977	0	33208	
3978	0	33064	
3979	0	33028	
3980	0	32968	
3981	0	32872	
3982	0	32852	
3983	0	32860	
3984	0	32776	
3985	0	32684	
3986	0	32572	
3987	0	32428	
3988	0	32246	
3989	0	32164	
3990	0	32072	
3991	0	31968	
3992	0	31840	
3993	0	31804	
3994	0	31764	
3995	0	31714	
3996	0	31592	
3997	0	31552	
3998	0	31536	
3999	0	31552	
4000	0	31537	
4001	0	31496	
4002	0	31544	
4003	0	31636	
4004	0	31680	
4005	0	31672	
4006	0	31696	
4007	0	31612	
4008	0	31552	
4009	0	31520	
4010	0	31516	
4011	0	31524	
4012	0	31492	
4013	0	31472	
4014	0	31496	
4015	0	31552	
4016	0	31548	
4017	0	31532	
4018	0	31560	
4019	0	31610	
4020	0	31664	
4021	0	31744	
4022	0	31824	
4023	0	31824	
4024	0	31824	
4025	0	31828	
4026	0	31812	
4027	0	31736	
4028	0	31752	
4029	0	31744	
4030	0	31624	
4031	0	31548	
4032	0	31544	
4033	0	31548	
4034	0	31608	
4035	0	31664	
4036	0	31684	
4037	0	31736	
4038	0	31860	
4039	0	31928	
4040	0	31972	
4041	0	31968	
4042	0	31994	
4043	0	32004	
4044	0	32060	
4045	0	32116	
4046	0	32136	
4047	0	32120	
4048	0	32062	
4049	0	32076	
4050	0	32084	
4051	0	31952	
4052	0	31952	
4053	0	31924	
4054	0	31870	
4055	0	31822	
4056	0	31752	
4057	0	31676	
4058	0	31476	
4059	0	31352	
4060	0	31380	
4061	0	31364	
4062	0	31304	
4063	0	31328	
4064	0	31480	
4065	0	31776	
4066	0	32172	
4067	0	32690	
4068	0	33320	
4069	0	34076	
4070	0	35060	
4071	0	36232	
4072	0	37724	
4073	0	39384	
4074	0	40948	
4075	0	42412	
4076	0	43968	
4077	0	45594	
4078	0	47224	
4079	0	48776	
4080	0	50200	
4081	0	51488	
4082	0	52780	
4083	0	54048	
4084	0	55236	
4085	0	56444	
4086	0	57636	
4087	0	58728	
4088	0	59752	
4089	0	60544	
4090	0	60760	
4091	0	60016	
4092	0	58480	
4093	0	56176	
4094	0	53016	
4095	0	49556	
4096	0	46048	
4097	0	42216	
4098	0	37968	
4099	0	33608	
4100	0	29892	
4101	0	27212	
4102	0	25660	
4103	0	24984	
4104	0	24760	
4105	0	24824	
4106	0	25152	
4107	0	25472	
4108	0	25720	
4109	0	25984	
4110	0	26212	
4111	0	26434	
4112	0	26740	
4113	0	27020	
4114	0	27268	
4115	0	27496	
4116	0	27804	
4117	0	28178	
4118	0	28580	
4119	0	28968	
4120	0	29336	
4121	0	29708	
4122	0	30018	
4123	0	30272	
4124	0	30424	
4125	0	30484	
4126	0	30504	
4127	0	30472	
4128	0	30442	
4129	0	30388	
4130	0	30324	
4131	0	30328	
4132	0	30370	
4133	0	30372	
4134	0	30372	
4135	0	30396	
4136	0	30368	
4137	0	30352	
4138	0	30380	
4139	0	30420	
4140	0	30464	
4141	0	30532	
4142	0	30604	
4143	0	30658	
4144	0	30688	
4145	0	30644	
4146	0	30628	
4147	0	30560	
4148	0	30544	
4149	0	30524	
4150	0	30480	
4151	0	30456	
4152	0	30496	
4153	0	30524	
4154	0	30504	
4155	0	30528	
4156	0	30586	
4157	0	30628	
4158	0	30696	
4159	0	30792	
4160	0	30864	
4161	0	31000	
4162	0	31040	
4163	0	31080	
4164	0	31144	
4165	0	31152	
4166	0	31136	
4167	0	31150	
4168	0	31156	
4169	0	31136	
4170	0	31072	
4171	0	31088	
4172	0	31188	
4173	0	31272	
4174	0	31340	
4175	0	31376	
4176	0	31424	
4177	0	31450	
4178	0	31516	
4179	0	31610	
4180	0	31700	
4181	0	31680	
4182	0	31704	
4183	0	31728	
4184	0	31728	
4185	0	31672	
4186	0	31654	
4187	0	31636	
4188	0	31646	
4189	0	31608	
4190	0	31596	
4191	0	31620	
4192	0	31616	
4193	0	31616	
4194	0	31652	
4195	0	31740	
4196	0	31812	
4197	0	31900	
4198	0	32000	
4199	0	32060	
4200	0	32136	
4201	0	32160	
4202	0	32200	
4203	0	32244	
4204	0	32266	
4205	0	32280	
4206	0	32352	
4207	0	32476	
4208	0	32522	
4209	0	32500	
4210	0	32480	
4211	0	32460	
4212	0	32416	
4213	0	32424	
4214	0	32432	
4215	0	32532	
4216	0	32656	
4217	0	32648	
4218	0	32700	
4219	0	32808	
4220	0	32888	
4221	0	32900	
4222	0	32896	
4223	0	32940	
4224	0	33020	
4225	0	33032	
4226	0	33040	
4227	0	33084	
4228	0	33072	
4229	0	33064	
4230	0	33016	
4231	0	32956	
4232	0	32954	
4233	0	32960	
4234	0	32964	
4235	0	33008	
4236	0	33092	
4237	0	33160	
4238	0	33236	
4239	0	33292	
4240	0	33336	
4241	0	33384	
4242	0	33472	
4243	0	33488	
4244	0	33464	
4245	0	33464	
4246	0	33460	
4247	0	33464	
4248	0	33448	
4249	0	33464	
4250	0	33524	
4251	0	33508	
4252	0	33536	
4253	0	33608	
4254	0	33728	
4255	0	33832	
4256	0	33856	
4257	0	33914	
4258	0	33952	
4259	0	34092	
4260	0	34184	
4261	0	34264	
4262	0	34348	
4263	0	34472	
4264	0	34492	
4265	0	34472	
4266	0	34508	
4267	0	34540	
4268	0	34572	
4269	0	34640	
4270	0	34640	
4271	0	34592	
4272	0	34626	
4273	0	34728	
4274	0	34784	
4275	0	34944	
4276	0	35104	
4277	0	35264	
4278	0	35392	
4279	0	35452	
4280	0	35492	
4281	0	35572	
4282	0	35748	
4283	0	35856	
4284	0	35924	
4285	0	35892	
4286	0	35904	
4287	0	35960	
4288	0	36060	
4289	0	36160	
4290	0	36186	
4291	0	36252	
4292	0	36304	
4293	0	36380	
4294	0	36404	
4295	0	36480	
4296	0	36548	
4297	0	36634	
4298	0	36796	
4299	0	36976	
4300	0	37104	
4301	0	37184	
4302	0	37236	
4303	0	37328	
4304	0	37388	
4305	0	37344	
4306	0	37344	
4307	0	37400	
4308	0	37424	
4309	0	37456	
4310	0	37472	
4311	0	37448	
4312	0	37400	
4313	0	37404	
4314	0	37452	
4315	0	37524	
4316	0	37560	
4317	0	37620	
4318	0	37728	
4319	0	37756	
4320	0	37760	
4321	0	37748	
4322	0	37728	
4323	0	37632	
4324	0	37592	
4325	0	37472	
4326	0	37364	
4327	0	37288	
4328	0	37204	
4329	0	37044	
4330	0	36916	
4331	0	36820	
4332	0	36732	
4333	0	36672	
4334	0	36604	
4335	0	36552	
4336	0	36440	
4337	0	36256	
4338	0	36040	
4339	0	35872	
4340	0	35752	
4341	0	35608	
4342	0	35452	
4343	0	35320	
4344	0	35128	
4345	0	34936	
4346	0	34728	
4347	0	34472	
4348	0	34200	
4349	0	33968	
4350	0	33768	
4351	0	33592	
4352	0	33376	
4353	0	33156	
4354	0	33008	
4355	0	32808	
4356	0	32676	
4357	0	32540	
4358	0	32372	
4359	0	32248	
4360	0	32120	
4361	0	31960	
4362	0	31824	
4363	0	31692	
4364	0	31528	
4365	0	31336	
4366	0	31088	
4367	0	30880	
4368	0	30724	
4369	0	30564	
4370	0	30420	
4371	0	30314	
4372	0	30144	
4373	0	29930	
4374	0	29836	
4375	0	29816	
4376	0	29760	
4377	0	29736	
4378	0	29724	
4379	0	29688	
4380	0	29672	
4381	0	29592	
4382	0	29536	
4383	0	29512	
4384	0	29498	
4385	0	29384	
4386	0	29324	
4387	0	29324	
4388	0	29416	
4389	0	29364	
4390	0	29200	
4391	0	29144	
4392	0	29120	
4393	0	29122	
4394	0	29164	
4395	0	29184	
4396	0	29166	
4397	0	29100	
4398	0	29132	
4399	0	29190	
4400	0	29260	
4401	0	29356	
4402	0	29440	
4403	0	29464	
4404	0	29444	
4405	0	29388	
4406	0	29324	
4407	0	29284	
4408	0	29292	
4409	0	29324	
4410	0	29312	
4411	0	29284	
4412	0	29308	
4413	0	29320	
4414	0	29312	
4415	0	29404	
4416	0	29484	
4417	0	29536	
4418	0	29576	
4419	0	29584	
4420	0	29660	
4421	0	29740	
4422	0	29788	
4423	0	29786	
4424	0	29802	
4425	0	29840	
4426	0	29880	
4427	0	29816	
4428	0	29764	
4429	0	29712	
4430	0	29742	
4431	0	29744	
4432	0	29728	
4433	0	29720	
4434	0	29696	
4435	0	29744	
4436	0	29856	
4437	0	29976	
4438	0	30068	
4439	0	30136	
4440	0	30188	
4441	0	30256	
4442	0	30308	
4443	0	30348	
4444	0	30380	
4445	0	30380	
4446	0	30352	
4447	0	30364	
4448	0	30368	
4449	0	30346	
4450	0	30368	
4451	0	30320	
4452	0	30272	
4453	0	30284	
4454	0	30294	
4455	0	30362	
4456	0	30450	
4457	0	30548	
4458	0	30608	
4459	0	30680	
4460	0	30692	
4461	0	30732	
4462	0	30736	
4463	0	30780	
4464	0	30854	
4465	0	30880	
4466	0	30872	
4467	0	30912	
4468	0	30856	
4469	0	30760	
4470	0	30740	
4471	0	30752	
4472	0	30768	
4473	0	30784	
4474	0	30756	
4475	0	30776	
4476	0	30880	
4477	0	31000	
4478	0	31040	
4479	0	31052	
4480	0	31068	
4481	0	31108	
4482	0	31168	
4483	0	31208	
4484	0	31260	
4485	0	31296	
4486	0	31252	
4487	0	31272	
4488	0	31284	
4489	0	31300	
4490	0	31346	
4491	0	31356	
4492	0	31320	
4493	0	31280	
4494	0	31324	
4495	0	31416	
4496	0	31440	
4497	0	31424	
4498	0	31444	
4499	0	31552	
4500	0	31624	
4501	0	31648	
4502	0	31704	
4503	0	31684	
4504	0	31672	
4505	0	31616	
4506	0	31484	
4507	0	31422	
4508	0	31456	
4509	0	31460	
4510	0	31480	
4511	0	31504	
4512	0	31512	
4513	0	31554	
4514	0	31540	
4515	0	31512	
4516	0	31540	
4517	0	31648	
4518	0	31716	
4519	0	31788	
4520	0	31848	
4521	0	31861	
4522	0	31892	
4523	0	31928	
4524	0	31936	
4525	0	31904	
4526	0	31844	
4527	0	31764	
4528	0	31696	
4529	0	31672	
4530	0	31724	
4531	0	31772	
4532	0	31764	
4533	0	31720	
4534	0	31704	
4535	0	31768	
4536	0	31840	
4537	0	31844	
4538	0	31870	
4539	0	31928	
4540	0	32024	
4541	0	32056	
4542	0	32082	
4543	0	32084	
4544	0	32048	
4545	0	32020	
4546	0	31960	
4547	0	31906	
4548	0	31896	
4549	0	31832	
4550	0	31832	
4551	0	31840	
4552	0	31776	
4553	0	31756	
4554	0	31764	
4555	0	31780	
4556	0	31800	
4557	0	31804	
4558	0	31796	
4559	0	31840	
4560	0	31920	
4561	0	31960	
4562	0	32040	
4563	0	32044	
4564	0	32036	
4565	0	32048	
4566	0	32090	
4567	0	32100	
4568	0	32064	
4569	0	31968	
4570	0	31936	
4571	0	31924	
4572	0	31916	
4573	0	31944	
4574	0	31948	
4575	0	31948	
4576	0	31980	
4577	0	32008	
4578	0	31992	
4579	0	32034	
4580	0	32142	
4581	0	32228	
4582	0	32316	
4583	0	32266	
4584	0	32228	
4585	0	32232	
4586	0	32180	
4587	0	32108	
4588	0	32060	
4589	0	32008	
4590	0	31972	
4591	0	31972	
4592	0	31928	
4593	0	31932	
4594	0	32032	
4595	0	32072	
4596	0	32132	
4597	0	32160	
4598	0	32184	
4599	0	32224	
4600	0	32240	
4601	0	32288	
4602	0	32336	
4603	0	32372	
4604	0	32396	
4605	0	32350	
4606	0	32336	
4607	0	32328	
4608	0	32280	
4609	0	32242	
4610	0	32284	
4611	0	32280	
4612	0	32244	
4613	0	32272	
4614	0	32312	
4615	0	32360	
4616	0	32448	
4617	0	32534	
4618	0	32684	
4619	0	32808	
4620	0	32916	
4621	0	33044	
4622	0	33224	
4623	0	33408	
4624	0	33504	
4625	0	33568	
4626	0	33640	
4627	0	33716	
4628	0	33776	
4629	0	33856	
4630	0	33868	
4631	0	33832	
4632	0	33720	
4633	0	33772	
4634	0	33856	
4635	0	33932	
4636	0	34012	
4637	0	34128	
4638	0	34224	
4639	0	34232	
4640	0	34272	
4641	0	34356	
4642	0	34380	
4643	0	34380	
4644	0	34448	
4645	0	34564	
4646	0	34792	
4647	0	34920	
4648	0	35052	
4649	0	35164	
4650	0	35228	
4651	0	35208	
4652	0	35124	
4653	0	35060	
4654	0	35032	
4655	0	35064	
4656	0	35136	
4657	0	35240	
4658	0	35352	
4659	0	35488	
4660	0	35556	
4661	0	35552	
4662	0	35444	
4663	0	35288	
4664	0	35216	
4665	0	35104	
4666	0	34972	
4667	0	34802	
4668	0	34594	
4669	0	34388	
4670	0	34200	
4671	0	34088	
4672	0	34040	
4673	0	33980	
4674	0	33922	
4675	0	33892	
4676	0	33884	
4677	0	33844	
4678	0	33792	
4679	0	33740	
4680	0	33672	
4681	0	33636	
4682	0	33624	
4683	0	33596	
4684	0	33556	
4685	0	33472	
4686	0	33340	
4687	0	33224	
4688	0	33104	
4689	0	32992	
4690	0	32952	
4691	0	32900	
4692	0	32808	
4693	0	32696	
4694	0	32600	
4695	0	32532	
4696	0	32464	
4697	0	32456	
4698	0	32416	
4699	0	32364	
4700	0	32352	
4701	0	32248	
4702	0	32160	
4703	0	32056	
4704	0	31968	
4705	0	31912	
4706	0	31846	
4707	0	31764	
4708	0	31708	
4709	0	31732	
4710	0	31736	
4711	0	31724	
4712	0	31736	
4713	0	31720	
4714	0	31744	
4715	0	31738	
4716	0	31808	
4717	0	31872	
4718	0	31904	
4719	0	31964	
4720	0	31968	
4721	0	31928	
4722	0	31872	
4723	0	31880	
4724	0	31938	
4725	0	31960	
4726	0	31912	
4727	0	31844	
4728	0	31784	
4729	0	31816	
4730	0	31772	
4731	0	31680	
4732	0	31696	
4733	0	31800	
4734	0	31900	
4735	0	31908	
4736	0	31864	
4737	0	31860	
4738	0	31884	
4739	0	31948	
4740	0	32040	
4741	0	32068	
4742	0	32080	
4743	0	32104	
4744	0	32120	
4745	0	32144	
4746	0	32116	
4747	0	32104	
4748	0	32096	
4749	0	32052	
4750	0	32008	
4751	0	31972	
4752	0	32028	
4753	0	32076	
4754	0	32088	
4755	0	32128	
4756	0	32164	
4757	0	32224	
4758	0	32228	
4759	0	32196	
4760	0	32112	
4761	0	32048	
4762	0	31976	
4763	0	31824	
4764	0	31632	
4765	0	31512	
4766	0	31468	
4767	0	31488	
4768	0	31532	
4769	0	31632	
4770	0	31874	
4771	0	32356	
4772	0	32916	
4773	0	33584	
4774	0	34504	
4775	0	35656	
4776	0	36904	
4777	0	38248	
4778	0	39772	
4779	0	41356	
4780	0	42904	
4781	0	44436	
4782	0	45892	
4783	0	47292	
4784	0	48680	
4785	0	49992	
4786	0	51296	
4787	0	52528	
4788	0	53752	
4789	0	54964	
4790	0	56232	
4791	0	57552	
4792	0	58720	
4793	0	59700	
4794	0	60352	
4795	0	60804	
4796	0	60552	
4797	0	59304	
4798	0	57280	
4799	0	54424	
4800	0	51096	
4801	0	47616	
4802	0	43812	
4803	0	39556	
4804	0	35060	
4805	0	31120	
4806	0	28232	
4807	0	26432	
4808	0	25522	
4809	0	25152	
4810	0	25204	
4811	0	25444	
4812	0	25672	
4813	0	25892	
4814	0	26180	
4815	0	26516	
4816	0	26900	
4817	0	27284	
4818	0	27688	
4819	0	28122	
4820	0	28544	
4821	0	29012	
4822	0	29436	
4823	0	29792	
4824	0	30106	
4825	0	30272	
4826	0	30320	
4827	0	30342	
4828	0	30356	
4829	0	30320	
4830	0	30260	
4831	0	30136	
4832	0	30064	
4833	0	29980	
4834	0	29944	
4835	0	29948	
4836	0	29956	
4837	0	29972	
4838	0	29984	
4839	0	29976	
4840	0	29992	
4841	0	30104	
4842	0	30208	
4843	0	30192	
4844	0	30188	
4845	0	30148	
4846	0	30084	
4847	0	30092	
4848	0	30092	
4849	0	30080	
4850	0	30064	
4851	0	30084	
4852	0	30050	
4853	0	30072	
4854	0	30184	
4855	0	30288	
4856	0	30370	
4857	0	30392	
4858	0	30408	
4859	0	30504	
4860	0	30576	
4861	0	30604	
4862	0	30668	
4863	0	30708	
4864	0	30660	
4865	0	30656	
4866	0	30724	
4867	0	30776	
4868	0	30800	
4869	0	30804	
4870	0	30820	
4871	0	30856	
4872	0	30882	
4873	0	30864	
4874	0	30832	
4875	0	30844	
4876	0	30876	
4877	0	30980	
4878	0	31048	
4879	0	31084	
4880	0	31140	
4881	0	31220	
4882	0	31320	
4883	0	31336	
4884	0	31372	
4885	0	31416	
4886	0	31416	
4887	0	31424	
4888	0	31448	
4889	0	31432	
4890	0	31380	
4891	0	31344	
4892	0	31316	
4893	0	31356	
4894	0	31392	
4895	0	31424	
4896	0	31496	
4897	0	31544	
4898	0	31584	
4899	0	31674	
4900	0	31728	
4901	0	31728	
4902	0	31792	
4903	0	31836	
4904	0	31880	
4905	0	31872	
4906	0	31848	
4907	0	31884	
4908	0	31904	
4909	0	31908	
4910	0	31924	
4911	0	31902	
4912	0	31932	
4913	0	31956	
4914	0	31992	
4915	0	32032	
4916	0	32106	
4917	0	32172	
4918	0	32228	
4919	0	32288	
4920	0	32348	
4921	0	32444	
4922	0	32516	
4923	0	32564	
4924	0	32576	
4925	0	32520	
4926	0	32436	
4927	0	32432	
4928	0	32468	
4929	0	32496	
4930	0	32488	
4931	0	32488	
4932	0	32504	
4933	0	32508	
4934	0	32532	
4935	0	32584	
4936	0	32644	
4937	0	32688	
4938	0	32704	
4939	0	32784	
4940	0	32848	
4941	0	32892	
4942	0	32992	
4943	0	33024	
4944	0	33044	
4945	0	33092	
4946	0	33084	
4947	0	33068	
4948	0	33124	
4949	0	33176	
4950	0	33180	
4951	0	33172	
4952	0	33196	
4953	0	33256	
4954	0	33380	
4955	0	33488	
4956	0	33560	
4957	0	33688	
4958	0	33796	
4959	0	33888	
4960	0	33956	
4961	0	34000	
4962	0	34044	
4963	0	34080	
4964	0	34136	
4965	0	34184	
4966	0	34244	
4967	0	34240	
4968	0	34248	
4969	0	34244	
4970	0	34264	
4971	0	34312	
4972	0	34380	
4973	0	34440	
4974	0	34508	
4975	0	34616	
4976	0	34754	
4977	0	34868	
4978	0	34926	
4979	0	35000	
4980	0	35096	
4981	0	35224	
4982	0	35336	
4983	0	35420	
4984	0	35516	
4985	0	35580	
4986	0	35624	
4987	0	35600	
4988	0	35656	
4989	0	35704	
4990	0	35732	
4991	0	35800	
4992	0	35844	
4993	0	35912	
4994	0	35992	
4995	0	36088	
4996	0	36192	
4997	0	36328	
4998	0	36488	
4999	0	36596	
5000	0	36668	
5001	0	36776	
5002	0	36800	
5003	0	36812	
5004	0	36856	
5005	0	36860	
5006	0	36868	
5007	0	36884	
5008	0	36884	
5009	0	36888	
5010	0	36912	
5011	0	36948	
5012	0	36976	
5013	0	36992	
5014	0	36992	
5015	0	37056	
5016	0	37148	
5017	0	37218	
5018	0	37336	
5019	0	37464	
5020	0	37552	
5021	0	37572	
5022	0	37568	
5023	0	37580	
5024	0	37560	
5025	0	37536	
5026	0	37520	
5027	0	37484	
5028	0	37424	
5029	0	37336	
5030	0	37248	
5031	0	37200	
5032	0	37184	
5033	0	37160	
5034	0	37048	
5035	0	36968	
5036	0	36952	
5037	0	36928	
5038	0	36904	
5039	0	36856	
5040	0	36732	
5041	0	36576	
5042	0	36412	
5043	0	36248	
5044	0	36080	
5045	0	35882	
5046	0	35660	
5047	0	35440	
5048	0	35216	
5049	0	34992	
5050	0	34772	
5051	0	34560	
5052	0	34348	
5053	0	34100	
5054	0	33896	
5055	0	33784	
5056	0	33664	
5057	0	33538	
5058	0	33392	
5059	0	33226	
5060	0	33040	
5061	0	32876	
5062	0	32708	
5063	0	32532	
5064	0	32356	
5065	0	32120	
5066	0	31920	
5067	0	31680	
5068	0	31476	
5069	0	31308	
5070	0	31132	
5071	0	30972	
5072	0	30832	
5073	0	30704	
5074	0	30616	
5075	0	30548	
5076	0	30462	
5077	0	30364	
5078	0	30312	
5079	0	30260	
5080	0	30200	
5081	0	30124	
5082	0	30024	
5083	0	29932	
5084	0	29850	
5085	0	29712	
5086	0	29592	
5087	0	29520	
5088	0	29448	
5089	0	29360	
5090	0	29312	
5091	0	29268	
5092	0	29248	
5093	0	29248	
5094	0	29236	
5095	0	29260	
5096	0	29328	
5097	0	29348	
5098	0	29344	
5099	0	29348	
5100	0	29352	
5101	0	29412	
5102	0	29408	
5103	0	29380	
5104	0	29360	
5105	0	29336	
5106	0	29328	
5107	0	29336	
5108	0	29276	
5109	0	29252	
5110	0	29268	
5111	0	29300	
5112	0	29288	
5113	0	29296	
5114	0	29336	
5115	0	29364	
5116	0	29412	
5117	0	29480	
5118	0	29474	
5119	0	29528	
5120	0	29602	
5121	0	29640	
5122	0	29656	
5123	0	29688	
5124	0	29712	
5125	0	29704	
5126	0	29652	
5127	0	29592	
5128	0	29548	
5129	0	29570	
5130	0	29600	
5131	0	29608	
5132	0	29616	
5133	0	29632	
5134	0	29704	
5135	0	29740	
5136	0	29772	
5137	0	29848	
5138	0	29916	
5139	0	29986	
5140	0	30064	
5141	0	30104	
5142	0	30096	
5143	0	30084	
5144	0	30080	
5145	0	30076	
5146	0	30100	
5147	0	30090	
5148	0	30100	
5149	0	30112	
5150	0	30112	
5151	0	30100	
5152	0	30080	
5153	0	30096	
5154	0	30164	
5155	0	30216	
5156	0	30244	
5157	0	30312	
5158	0	30404	
5159	0	30516	
5160	0	30560	
5161	0	30572	
5162	0	30570	
5163	0	30488	
5164	0	30492	
5165	0	30600	
5166	0	30592	
5167	0	30580	
5168	0	30608	
5169	0	30628	
5170	0	30604	
5171	0	30600	
5172	0	30592	
5173	0	30608	
5174	0	30664	
5175	0	30716	
5176	0	30792	
5177	0	30828	
5178	0	30880	
5179	0	30948	
5180	0	31040	
5181	0	31076	
5182	0	31072	
5183	0	31092	
5184	0	31140	
5185	0	31160	
5186	0	31124	
5187	0	31069	
5188	0	31040	
5189	0	31044	
5190	0	31024	
5191	0	30976	
5192	0	31008	
5193	0	31000	
5194	0	31040	
5195	0	31076	
5196	0	31084	
5197	0	31156	
5198	0	31224	
5199	0	31280	
5200	0	31352	
5201	0	31380	
5202	0	31416	
5203	0	31436	
5204	0	31396	
5205	0	31364	
5206	0	31372	
5207	0	31384	
5208	0	31360	
5209	0	31364	
5210	0	31400	
5211	0	31392	
5212	0	31384	
5213	0	31400	
5214	0	31480	
5215	0	31484	
5216	0	31506	
5217	0	31544	
5218	0	31652	
5219	0	31704	
5220	0	31740	
5221	0	31772	
5222	0	31768	
5223	0	31704	
5224	0	31676	
5225	0	31712	
5226	0	31720	
5227	0	31672	
5228	0	31662	
5229	0	31664	
5230	0	31690	
5231	0	31692	
5232	0	31680	
5233	0	31686	
5234	0	31716	
5235	0	31744	
5236	0	31784	
5237	0	31872	
5238	0	31928	
5239	0	31960	
5240	0	31984	
5241	0	31988	
5242	0	31984	
5243	0	31964	
5244	0	31956	
5245	0	31960	
5246	0	31936	
5247	0	31908	
5248	0	31872	
5249	0	31860	
5250	0	31828	
5251	0	31836	
5252	0	31864	
5253	0	31888	
5254	0	31944	
5255	0	32040	
5256	0	32044	
5257	0	32034	
5258	0	32028	
5259	0	32088	
5260	0	32188	
5261	0	32212	
5262	0	32168	
5263	0	32156	
5264	0	32144	
5265	0	32108	
5266	0	32088	
5267	0	32100	
5268	0	32088	
5269	0	32062	
5270	0	31980	
5271	0	31936	
5272	0	31924	
5273	0	31932	
5274	0	31944	
5275	0	32000	
5276	0	32044	
5277	0	32088	
5278	0	32148	
5279	0	32156	
5280	0	32184	
5281	0	32212	
5282	0	32196	
5283	0	32184	
5284	0	32184	
5285	0	32144	
5286	0	32104	
5287	0	32120	
5288	0	32104	
5289	0	32052	
5290	0	32020	
5291	0	31992	
5292	0	31964	
5293	0	31992	
5294	0	32056	
5295	0	32116	
5296	0	32212	
5297	0	32268	
5298	0	32296	
5299	0	32324	
5300	0	32356	
5301	0	32388	
5302	0	32392	
5303	0	32378	
5304	0	32308	
5305	0	32296	
5306	0	32316	
5307	0	32312	
5308	0	32228	
5309	0	32168	
5310	0	32148	
5311	0	32168	
5312	0	32228	
5313	0	32248	
5314	0	32248	
5315	0	32314	
5316	0	32348	
5317	0	32376	
5318	0	32424	
5319	0	32472	
5320	0	32476	
5321	0	32516	
5322	0	32524	
5323	0	32512	
5324	0	32556	
5325	0	32604	
5326	0	32612	
5327	0	32640	
5328	0	32612	
5329	0	32620	
5330	0	32700	
5331	0	32820	
5332	0	33012	
5333	0	33216	
5334	0	33400	
5335	0	33544	
5336	0	33680	
5337	0	33900	
5338	0	34116	
5339	0	34240	
5340	0	34308	
5341	0	34332	
5342	0	34302	
5343	0	34260	
5344	0	34290	
5345	0	34304	
5346	0	34336	
5347	0	34346	
5348	0	34304	
5349	0	34256	
5350	0	34236	
5351	0	34288	
5352	0	34324	
5353	0	34436	
5354	0	34558	
5355	0	34668	
5356	0	34844	
5357	0	35036	
5358	0	35228	
5359	0	35340	
5360	0	35412	
5361	0	35444	
5362	0	35416	
5363	0	35336	
5364	0	35284	
5365	0	35240	
5366	0	35256	
5367	0	35244	
5368	0	35228	
5369	0	35232	
5370	0	35276	
5371	0	35248	
5372	0	35140	
5373	0	35000	
5374	0	34916	
5375	0	34888	
5376	0	34816	
5377	0	34704	
5378	0	34572	
5379	0	34434	
5380	0	34292	
5381	0	34208	
5382	0	34148	
5383	0	34096	
5384	0	33996	
5385	0	33920	
5386	0	33816	
5387	0	33702	
5388	0	33580	
5389	0	33440	
5390	0	33372	
5391	0	33344	
5392	0	33336	
5393	0	33368	
5394	0	33348	
5395	0	33332	
5396	0	33280	
5397	0	33220	
5398	0	33188	
5399	0	33176	
5400	0	33100	
5401	0	33052	
5402	0	32960	
5403	0	32840	
5404	0	32688	
5405	0	32536	
5406	0	32488	
5407	0	32392	
5408	0	32288	
5409	0	32168	
5410	0	32100	
5411	0	31960	
5412	0	31876	
5413	0	31828	
5414	0	31776	
5415	0	31786	
5416	0	31812	
5417	0	31826	
5418	0	31840	
5419	0	31870	
5420	0	31940	
5421	0	31980	
5422	0	31940	
5423	0	31956	
5424	0	31972	
5425	0	31904	
5426	0	31852	
5427	0	31788	
5428	0	31728	
5429	0	31704	
5430	0	31692	
5431	0	31668	
5432	0	31656	
5433	0	31704	
5434	0	31784	
5435	0	31824	
5436	0	31840	
5437	0	31848	
5438	0	31888	
5439	0	31916	
5440	0	31948	
5441	0	31944	
5442	0	31904	
5443	0	31924	
5444	0	31916	
5445	0	31900	
5446	0	31880	
5447	0	31872	
5448	0	31852	
5449	0	31832	
5450	0	31828	
5451	0	31840	
5452	0	31840	
5453	0	31852	
5454	0	31852	
5455	0	31924	
5456	0	31996	
5457	0	32044	
5458	0	32104	
5459	0	32148	
5460	0	32196	
5461	0	32192	
5462	0	32216	
5463	0	32240	
5464	0	32224	
5465	0	32184	
5466	0	32120	
5467	0	32026	
5468	0	31946	
5469	0	31864	
5470	0	31800	
5471	0	31728	
5472	0	31588	
5473	0	31432	
5474	0	31328	
5475	0	31264	
5476	0	31324	
5477	0	31438	
5478	0	31600	
5479	0	31796	
5480	0	32188	
5481	0	32802	
5482	0	33412	
5483	0	34100	
5484	0	34952	
5485	0	35940	
5486	0	37088	
5487	0	38376	
5488	0	39816	
5489	0	41328	
5490	0	42700	
5491	0	44012	
5492	0	45336	
5493	0	46748	
5494	0	48224	
5495	0	49656	
5496	0	51048	
5497	0	52400	
5498	0	53824	
5499	0	55240	
5500	0	56628	
5501	0	57900	
5502	0	58948	
5503	0	59884	
5504	0	60596	
5505	0	60992	
5506	0	60656	
5507	0	59272	
5508	0	57108	
5509	0	54144	
5510	0	50668	
5511	0	47072	
5512	0	43128	
5513	0	38780	
5514	0	34364	
5515	0	30676	
5516	0	28032	
5517	0	26400	
5518	0	25576	
5519	0	25212	
5520	0	25180	
5521	0	25376	
5522	0	25656	
5523	0	25956	
5524	0	26280	
5525	0	26696	
5526	0	27168	
5527	0	27700	
5528	0	28190	
5529	0	28688	
5530	0	29116	
5531	0	29534	
5532	0	29888	
5533	0	30160	
5534	0	30292	
5535	0	30340	
5536	0	30344	
5537	0	30380	
5538	0	30476	
5539	0	30488	
5540	0	30464	
5541	0	30404	
5542	0	30324	
5543	0	30234	
5544	0	30126	
5545	0	30004	
5546	0	29908	
5547	0	29848	
5548	0	29844	
5549	0	29804	
5550	0	29752	
5551	0	29736	
5552	0	29744	
5553	0	29756	
5554	0	29840	
5555	0	29896	
5556	0	29932	
5557	0	29996	
5558	0	30068	
5559	0	30108	
5560	0	30192	
5561	0	30220	
5562	0	30216	
5563	0	30184	
5564	0	30164	
5565	0	30156	
5566	0	30152	
5567	0	30176	
5568	0	30164	
5569	0	30192	
5570	0	30176	
5571	0	30176	
5572	0	30236	
5573	0	30280	
5574	0	30352	
5575	0	30416	
5576	0	30496	
5577	0	30606	
5578	0	30692	
5579	0	30720	
5580	0	30752	
5581	0	30784	
5582	0	30808	
5583	0	30844	
5584	0	30862	
5585	0	30832	
5586	0	30792	
5587	0	30768	
5588	0	30796	
5589	0	30792	
5590	0	30816	
5591	0	30820	
5592	0	30820	
5593	0	30892	
5594	0	30924	
5595	0	30970	
5596	0	31036	
5597	0	31072	
5598	0	31148	
5599	0	31260	
5600	0	31388	
5601	0	31496	
5602	0	31532	
5603	0	31552	
5604	0	31512	
5605	0	31424	
5606	0	31384	
5607	0	31380	
5608	0	31400	
5609	0	31404	
5610	0	31456	
5611	0	31504	
5612	0	31544	
5613	0	31556	
5614	0	31612	
5615	0	31692	
5616	0	31816	
5617	0	31900	
5618	0	31904	
5619	0	31908	
5620	0	31888	
5621	0	31904	
5622	0	31976	
5623	0	32048	
5624	0	32084	
5625	0	32064	
5626	0	32032	
5627	0	32032	
5628	0	32004	
5629	0	31996	
5630	0	31996	
5631	0	31984	
5632	0	31968	
5633	0	32016	
5634	0	32144	
5635	0	32244	
5636	0	32304	
5637	0	32360	
5638	0	32388	
5639	0	32396	
5640	0	32440	
5641	0	32512	
5642	0	32524	
5643	0	32544	
5644	0	32516	
5645	0	32492	
5646	0	32496	
5647	0	32524	
5648	0	32596	
5649	0	32608	
5650	0	32608	
5651	0	32616	
5652	0	32652	
5653	0	32704	
5654	0	32772	
5655	0	32800	
5656	0	32832	
5657	0	32932	
5658	0	33040	
5659	0	33120	
5660	0	33152	
5661	0	33176	
5662	0	33200	
5663	0	33212	
5664	0	33244	
5665	0	33292	
5666	0	33296	
5667	0	33332	
5668	0	33316	
5669	0	33336	
5670	0	33376	
5671	0	33456	
5672	0	33546	
5673	0	33572	
5674	0	33592	
5675	0	33648	
5676	0	33768	
5677	0	33888	
5678	0	34004	
5679	0	34092	
5680	0	34140	
5681	0	34216	
5682	0	34224	
5683	0	34282	
5684	0	34344	
5685	0	34392	
5686	0	34468	
5687	0	34552	
5688	0	34612	
5689	0	34672	
5690	0	34752	
5691	0	34828	
5692	0	34896	
5693	0	34992	
5694	0	35068	
5695	0	35160	
5696	0	35236	
5697	0	35316	
5698	0	35412	
5699	0	35532	
5700	0	35684	
5701	0	35832	
5702	0	35928	
5703	0	35976	
5704	0	36004	
5705	0	36058	
5706	0	36120	
5707	0	36176	
5708	0	36192	
5709	0	36224	
5710	0	36208	
5711	0	36228	
5712	0	36304	
5713	0	36416	
5714	0	36516	
5715	0	36584	
5716	0	36644	
5717	0	36728	
5718	0	36840	
5719	0	36920	
5720	0	37032	
5721	0	37108	
5722	0	37132	
5723	0	37120	
5724	0	37128	
5725	0	37160	
5726	0	37192	
5727	0	37204	
5728	0	37228	
5729	0	37248	
5730	0	37212	
5731	0	37184	
5732	0	37220	
5733	0	37252	
5734	0	37288	
5735	0	37312	
5736	0	37360	
5737	0	37360	
5738	0	37376	
5739	0	37408	
5740	0	37400	
5741	0	37300	
5742	0	37204	
5743	0	37088	
5744	0	36964	
5745	0	36880	
5746	0	36748	
5747	0	36610	
5748	0	36520	
5749	0	36400	
5750	0	36220	
5751	0	36044	
5752	0	35948	
5753	0	35864	
5754	0	35706	
5755	0	35584	
5756	0	35456	
5757	0	35296	
5758	0	35136	
5759	0	34952	
5760	0	34796	
5761	0	34644	
5762	0	34476	
5763	0	34280	
5764	0	34044	
5765	0	33784	
5766	0	33568	
5767	0	33352	
5768	0	33088	
5769	0	32872	
5770	0	32664	
5771	0	32452	
5772	0	32266	
5773	0	32094	
5774	0	31920	
5775	0	31756	
5776	0	31660	
5777	0	31528	
5778	0	31416	
5779	0	31304	
5780	0	31188	
5781	0	31052	
5782	0	30928	
5783	0	30824	
5784	0	30720	
5785	0	30520	
5786	0	30328	
5787	0	30164	
5788	0	30000	
5789	0	29868	
5790	0	29784	
5791	0	29728	
5792	0	29672	
5793	0	29624	
5794	0	29588	
5795	0	29528	
5796	0	29472	
5797	0	29448	
5798	0	29496	
5799	0	29532	
5800	0	29536	
5801	0	29504	
5802	0	29426	
5803	0	29344	
5804	0	29288	
5805	0	29218	
5806	0	29132	
5807	0	29064	
5808	0	29076	
5809	0	29056	
5810	0	29036	
5811	0	29040	
5812	0	29062	
5813	0	29044	
5814	0	29112	
5815	0	29180	
5816	0	29184	
5817	0	29202	
5818	0	29268	
5819	0	29312	
5820	0	29360	
5821	0	29400	
5822	0	29408	
5823	0	29402	
5824	0	29392	
5825	0	29352	
5826	0	29308	
5827	0	29280	
5828	0	29260	
5829	0	29268	
5830	0	29314	
5831	0	29336	
5832	0	29324	
5833	0	29328	
5834	0	29396	
5835	0	29492	
5836	0	29624	
5837	0	29768	
5838	0	29844	
5839	0	29864	
5840	0	29856	
5841	0	29868	
5842	0	29880	
5843	0	29906	
5844	0	29940	
5845	0	29952	
5846	0	29960	
5847	0	29928	
5848	0	29884	
5849	0	29860	
5850	0	29840	
5851	0	29856	
5852	0	29880	
5853	0	29904	
5854	0	29976	
5855	0	30080	
5856	0	30162	
5857	0	30240	
5858	0	30336	
5859	0	30392	
5860	0	30456	
5861	0	30516	
5862	0	30500	
5863	0	30456	
5864	0	30444	
5865	0	30434	
5866	0	30468	
5867	0	30476	
5868	0	30456	
5869	0	30474	
5870	0	30458	
5871	0	30452	
5872	0	30412	
5873	0	30400	
5874	0	30434	
5875	0	30496	
5876	0	30572	
5877	0	30652	
5878	0	30700	
5879	0	30728	
5880	0	30772	
5881	0	30816	
5882	0	30832	
5883	0	30816	
5884	0	30800	
5885	0	30752	
5886	0	30740	
5887	0	30744	
5888	0	30736	
5889	0	30696	
5890	0	30700	
5891	0	30752	
5892	0	30784	
5893	0	30844	
5894	0	30868	
5895	0	30908	
5896	0	30946	
5897	0	31000	
5898	0	31008	
5899	0	31056	
5900	0	31148	
5901	0	31164	
5902	0	31132	
5903	0	31128	
5904	0	31064	
5905	0	31012	
5906	0	30960	
5907	0	30936	
5908	0	30928	
5909	0	30928	
5910	0	30912	
5911	0	30872	
5912	0	30944	
5913	0	31008	
5914	0	31048	
5915	0	31050	
5916	0	31072	
5917	0	31132	
5918	0	31180	
5919	0	31242	
5920	0	31310	
5921	0	31304	
5922	0	31296	
5923	0	31290	
5924	0	31290	
5925	0	31252	
5926	0	31202	
5927	0	31140	
5928	0	31104	
5929	0	31108	
5930	0	31140	
5931	0	31132	
5932	0	31104	
5933	0	31112	
5934	0	31140	
5935	0	31160	
5936	0	31180	
5937	0	31258	
5938	0	31316	
5939	0	31408	
5940	0	31460	
5941	0	31484	
5942	0	31480	
5943	0	31496	
5944	0	31476	
5945	0	31432	
5946	0	31412	
5947	0	31396	
5948	0	31360	
5949	0	31344	
5950	0	31360	
5951	0	31380	
5952	0	31380	
5953	0	31348	
5954	0	31372	
5955	0	31400	
5956	0	31452	
5957	0	31560	
5958	0	31640	
5959	0	31652	
5960	0	31656	
5961	0	31680	
5962	0	31696	
5963	0	31682	
5964	0	31680	
5965	0	31640	
5966	0	31568	
5967	0	31492	
5968	0	31408	
5969	0	31400	
5970	0	31448	
5971	0	31480	
5972	0	31492	
5973	0	31504	
5974	0	31530	
5975	0	31596	
5976	0	31666	
5977	0	31696	
5978	0	31760	
5979	0	31808	
5980	0	31784	
5981	0	31808	
5982	0	31864	
5983	0	31868	
5984	0	31844	
5985	0	31812	
5986	0	31740	
5987	0	31690	
5988	0	31652	
5989	0	31644	
5990	0	31640	
5991	0	31616	
5992	0	31628	
5993	0	31624	
5994	0	31684	
5995	0	31744	
5996	0	31800	
5997	0	31868	
5998	0	31900	
5999	0	31924	
6000	0	31984	
6001	0	32028	
6002	0	31996	
6003	0	31952	
6004	0	31928	
6005	0	31920	
6006	0	31876	
6007	0	31784	
6008	0	31728	
6009	0	31672	
6010	0	31668	
6011	0	31728	
6012	0	31800	
6013	0	31848	
6014	0	31852	
6015	0	31896	
6016	0	31936	
6017	0	32000	
6018	0	32088	
6019	0	32120	
6020	0	32136	
6021	0	32184	
6022	0	32196	
6023	0	32172	
6024	0	32148	
6025	0	32072	
6026	0	31980	
6027	0	31960	
6028	0	31968	
6029	0	32028	
6030	0	32044	
6031	0	32052	
6032	0	32064	
6033	0	32092	
6034	0	32128	
6035	0	32164	
6036	0	32220	
6037	0	32304	
6038	0	32384	
6039	0	32352	
6040	0	32354	
6041	0	32320	
6042	0	32292	
6043	0	32240	
6044	0	32224	
6045	0	32184	
6046	0	32194	
6047	0	32180	
6048	0	32172	
6049	0	32236	
6050	0	32336	
6051	0	32436	
6052	0	32546	
6053	0	32652	
6054	0	32828	
6055	0	33012	
6056	0	33176	
6057	0	33378	
6058	0	33568	
6059	0	33728	
6060	0	33832	
6061	0	33916	
6062	0	33924	
6063	0	33920	
6064	0	33896	
6065	0	33864	
6066	0	33872	
6067	0	33912	
6068	0	33936	
6069	0	34024	
6070	0	34080	
6071	0	34100	
6072	0	34144	
6073	0	34156	
6074	0	34172	
6075	0	34256	
6076	0	34420	
6077	0	34612	
6078	0	34776	
6079	0	34928	
6080	0	35104	
6081	0	35240	
6082	0	35304	
6083	0	35248	
6084	0	35156	
6085	0	35060	
6086	0	34988	
6087	0	35004	
6088	0	35008	
6089	0	35008	
6090	0	35016	
6091	0	35048	
6092	0	35128	
6093	0	35128	
6094	0	35072	
6095	0	35056	
6096	0	34992	
6097	0	34888	
6098	0	34752	
6099	0	34568	
6100	0	34424	
6101	0	34296	
6102	0	34220	
6103	0	34100	
6104	0	34012	
6105	0	33948	
6106	0	33840	
6107	0	33652	
6108	0	33552	
6109	0	33460	
6110	0	33364	
6111	0	33296	
6112	0	33312	
6113	0	33336	
6114	0	33336	
6115	0	33328	
6116	0	33304	
6117	0	33260	
6118	0	33232	
6119	0	33204	
6120	0	33144	
6121	0	33032	
6122	0	32952	
6123	0	32840	
6124	0	32684	
6125	0	32540	
6126	0	32416	
6127	0	32256	
6128	0	32096	
6129	0	31968	
6130	0	31896	
6131	0	31844	
6132	0	31764	
6133	0	31666	
6134	0	31592	
6135	0	31536	
6136	0	31488	
6137	0	31508	
6138	0	31536	
6139	0	31572	
6140	0	31600	
6141	0	31608	
6142	0	31624	
6143	0	31664	
6144	0	31652	
6145	0	31612	
6146	0	31536	
6147	0	31476	
6148	0	31500	
6149	0	31452	
6150	0	31436	
6151	0	31444	
6152	0	31460	
6153	0	31472	
6154	0	31524	
6155	0	31588	
6156	0	31630	
6157	0	31680	
6158	0	31708	
6159	0	31720	
6160	0	31736	
6161	0	31736	
6162	0	31752	
6163	0	31768	
6164	0	31748	
6165	0	31684	
6166	0	31648	
6167	0	31628	
6168	0	31632	
6169	0	31612	
6170	0	31556	
6171	0	31520	
6172	0	31512	
6173	0	31548	
6174	0	31564	
6175	0	31648	
6176	0	31752	
6177	0	31800	
6178	0	31840	
6179	0	31928	
6180	0	32004	
6181	0	32024	
6182	0	32022	
6183	0	32052	
6184	0	32068	
6185	0	32090	
6186	0	32084	
6187	0	32048	
6188	0	31960	
6189	0	31896	
6190	0	31832	
6191	0	31760	
6192	0	31664	
6193	0	31608	
6194	0	31520	
6195	0	31384	
6196	0	31320	
6197	0	31288	
6198	0	31332	
6199	0	31380	
6200	0	31484	
6201	0	31692	
6202	0	32096	
6203	0	32656	
6204	0	33248	
6205	0	33948	
6206	0	34820	
6207	0	35804	
6208	0	37016	
6209	0	38348	
6210	0	39804	
6211	0	41280	
6212	0	42664	
6213	0	44068	
6214	0	45480	
6215	0	46944	
6216	0	48416	
6217	0	49912	
6218	0	51368	
6219	0	52764	
6220	0	54228	
6221	0	55632	
6222	0	56928	
6223	0	58108	
6224	0	59136	
6225	0	59940	
6226	0	60576	
6227	0	60952	
6228	0	60408	
6229	0	58896	
6230	0	56576	
6231	0	53484	
6232	0	50048	
6233	0	46572	
6234	0	42652	
6235	0	38244	
6236	0	33872	
6237	0	30368	
6238	0	27964	
6239	0	26490	
6240	0	25764	
6241	0	25472	
6242	0	25450	
6243	0	25624	
6244	0	25888	
6245	0	26140	
6246	0	26420	
6247	0	26832	
6248	0	27328	
6249	0	27848	
6250	0	28360	
6251	0	28796	
6252	0	29256	
6253	0	29684	
6254	0	30036	
6255	0	30288	
6256	0	30480	
6257	0	30570	
6258	0	30608	
6259	0	30592	
6260	0	30588	
6261	0	30580	
6262	0	30512	
6263	0	30388	
6264	0	30228	
6265	0	30104	
6266	0	30000	
6267	0	29896	
6268	0	29840	
6269	0	29812	
6270	0	29772	
6271	0	29736	
6272	0	29834	
6273	0	29924	
6274	0	29928	
6275	0	29952	
6276	0	30032	
6277	0	30056	
6278	0	30124	
6279	0	30180	
6280	0	30216	
6281	0	30240	
6282	0	30252	
6283	0	30244	
6284	0	30244	
6285	0	30244	
6286	0	30296	
6287	0	30288	
6288	0	30292	
6289	0	30328	
6290	0	30324	
6291	0	30272	
6292	0	30240	
6293	0	30276	
6294	0	30320	
6295	0	30360	
6296	0	30432	
6297	0	30548	
6298	0	30640	
6299	0	30700	
6300	0	30784	
6301	0	30804	
6302	0	30824	
6303	0	30828	
6304	0	30820	
6305	0	30824	
6306	0	30832	
6307	0	30828	
6308	0	30824	
6309	0	30804	
6310	0	30756	
6311	0	30746	
6312	0	30812	
6313	0	30872	
6314	0	30936	
6315	0	31020	
6316	0	31060	
6317	0	31104	
6318	0	31170	
6319	0	31234	
6320	0	31288	
6321	0	31296	
6322	0	31312	
6323	0	31288	
6324	0	31280	
6325	0	31288	
6326	0	31280	
6327	0	31252	
6328	0	31268	
6329	0	31320	
6330	0	31376	
6331	0	31412	
6332	0	31424	
6333	0	31484	
6334	0	31556	
6335	0	31616	
6336	0	31654	
6337	0	31728	
6338	0	31772	
6339	0	31808	
6340	0	31860	
6341	0	31912	
6342	0	31944	
6343	0	31932	
6344	0	31920	
6345	0	31916	
6346	0	31952	
6347	0	31940	
6348	0	31916	
6349	0	31918	
6350	0	31893	
6351	0	31896	
6352	0	31924	
6353	0	32020	
6354	0	32064	
6355	0	32128	
6356	0	32196	
6357	0	32248	
6358	0	32304	
6359	0	32396	
6360	0	32456	
6361	0	32536	
6362	0	32564	
6363	0	32576	
6364	0	32592	
6365	0	32600	
6366	0	32532	
6367	0	32460	
6368	0	32424	
6369	0	32432	
6370	0	32416	
6371	0	32444	
6372	0	32540	
6373	0	32656	
6374	0	32728	
6375	0	32780	
6376	0	32864	
6377	0	32972	
6378	0	33068	
6379	0	33104	
6380	0	33136	
6381	0	33184	
6382	0	33184	
6383	0	33156	
6384	0	33188	
6385	0	33188	
6386	0	33208	
6387	0	33204	
6388	0	33220	
6389	0	33232	
6390	0	33256	
6391	0	33344	
6392	0	33440	
6393	0	33532	
6394	0	33628	
6395	0	33696	
6396	0	33764	
6397	0	33896	
6398	0	34020	
6399	0	34140	
6400	0	34232	
6401	0	34296	
6402	0	34316	
6403	0	34288	
6404	0	34292	
6405	0	34304	
6406	0	34296	
6407	0	34292	
6408	0	34360	
6409	0	34428	
6410	0	34512	
6411	0	34648	
6412	0	34752	
6413	0	34822	
6414	0	34900	
6415	0	34992	
6416	0	35078	
6417	0	35156	
6418	0	35264	
6419	0	35452	
6420	0	35648	
6421	0	35752	
6422	0	35792	
6423	0	35844	
6424	0	35888	
6425	0	35944	
6426	0	36004	
6427	0	36032	
6428	0	36076	
6429	0	36152	
6430	0	36200	
6431	0	36238	
6432	0	36292	
6433	0	36372	
6434	0	36412	
6435	0	36492	
6436	0	36612	
6437	0	36744	
6438	0	36888	
6439	0	36996	
6440	0	37096	
6441	0	37128	
6442	0	37152	
6443	0	37176	
6444	0	37184	
6445	0	37156	
6446	0	37088	
6447	0	37056	
6448	0	37056	
6449	0	37080	
6450	0	37108	
6451	0	37144	
6452	0	37216	
6453	0	37248	
6454	0	37256	
6455	0	37272	
6456	0	37328	
6457	0	37372	
6458	0	37384	
6459	0	37408	
6460	0	37418	
6461	0	37440	
6462	0	37408	
6463	0	37364	
6464	0	37292	
6465	0	37204	
6466	0	37048	
6467	0	36882	
6468	0	36784	
6469	0	36768	
6470	0	36708	
6471	0	36612	
6472	0	36500	
6473	0	36400	
6474	0	36340	
6475	0	36224	
6476	0	36078	
6477	0	35968	
6478	0	35816	
6479	0	35656	
6480	0	35484	
6481	0	35308	
6482	0	35108	
6483	0	34856	
6484	0	34588	
6485	0	34348	
6486	0	34180	
6487	0	33968	
6488	0	33748	
6489	0	33528	
6490	0	33274	
6491	0	33104	
6492	0	32960	
6493	0	32804	
6494	0	32636	
6495	0	32468	
6496	0	32320	
6497	0	32188	
6498	0	32048	
6499	0	31928	
6500	0	31828	
6501	0	31634	
6502	0	31432	
6503	0	31276	
6504	0	31076	
6505	0	30932	
6506	0	30836	
6507	0	30664	
6508	0	30528	
6509	0	30408	
6510	0	30268	
6511	0	30174	
6512	0	30068	
6513	0	29996	
6514	0	29964	
6515	0	29964	
6516	0	29896	
6517	0	29856	
6518	0	29840	
6519	0	29792	
6520	0	29744	
6521	0	29732	
6522	0	29644	
6523	0	29508	
6524	0	29420	
6525	0	29356	
6526	0	29344	
6527	0	29328	
6528	0	29294	
6529	0	29244	
6530	0	29196	
6531	0	29152	
6532	0	29144	
6533	0	29176	
6534	0	29252	
6535	0	29296	
6536	0	29292	
6537	0	29328	
6538	0	29350	
6539	0	29336	
6540	0	29316	
6541	0	29284	
6542	0	29320	
6543	0	29368	
6544	0	29352	
6545	0	29312	
6546	0	29240	
6547	0	29220	
6548	0	29216	
6549	0	29240	
6550	0	29268	
6551	0	29262	
6552	0	29288	
6553	0	29376	
6554	0	29434	
6555	0	29496	
6556	0	29624	
6557	0	29708	
6558	0	29716	
6559	0	29728	
6560	0	29744	
6561	0	29808	
6562	0	29824	
6563	0	29820	
6564	0	29816	
6565	0	29792	
6566	0	29804	
6567	0	29812	
6568	0	29804	
6569	0	29836	
6570	0	29824	
6571	0	29852	
6572	0	29888	
6573	0	29948	
6574	0	30048	
6575	0	30092	
6576	0	30144	
6577	0	30188	
6578	0	30232	
6579	0	30260	
6580	0	30304	
6581	0	30368	
6582	0	30412	
6583	0	30432	
6584	0	30448	
6585	0	30452	
6586	0	30412	
6587	0	30338	
6588	0	30316	
6589	0	30324	
6590	0	30320	
6591	0	30320	
6592	0	30336	
6593	0	30396	
6594	0	30448	
6595	0	30504	
6596	0	30556	
6597	0	30640	
6598	0	30672	
6599	0	30636	
6600	0	30696	
6601	0	30732	
6602	0	30756	
6603	0	30752	
6604	0	30732	
6605	0	30730	
6606	0	30752	
6607	0	30764	
6608	0	30756	
6609	0	30740	
6610	0	30728	
6611	0	30740	
6612	0	30768	
6613	0	30860	
6614	0	30936	
6615	0	30960	
6616	0	31008	
6617	0	31020	
6618	0	31104	
6619	0	31189	
6620	0	31216	
6621	0	31184	
6622	0	31124	
6623	0	31068	
6624	0	31024	
6625	0	30996	
6626	0	31016	
6627	0	31028	
6628	0	31004	
6629	0	30996	
6630	0	30988	
6631	0	31008	
6632	0	31012	
6633	0	31024	
6634	0	31036	
6635	0	31072	
6636	0	31168	
6637	0	31232	
6638	0	31232	
6639	0	31284	
6640	0	31340	
6641	0	31344	
6642	0	31318	
6643	0	31308	
6644	0	31292	
6645	0	31220	
6646	0	31210	
6647	0	31212	
6648	0	31202	
6649	0	31212	
6650	0	31246	
6651	0	31284	
6652	0	31388	
6653	0	31458	
6654	0	31480	
6655	0	31552	
6656	0	31604	
6657	0	31640	
6658	0	31644	
6659	0	31688	
6660	0	31720	
6661	0	31724	
6662	0	31716	
6663	0	31636	
6664	0	31620	
6665	0	31620	
6666	0	31552	
6667	0	31516	
6668	0	31536	
6669	0	31556	
6670	0	31544	
6671	0	31504	
6672	0	31508	
6673	0	31556	
6674	0	31604	
6675	0	31616	
6676	0	31632	
6677	0	31704	
6678	0	31768	
6679	0	31820	
6680	0	31880	
6681	0	31884	
6682	0	31848	
6683	0	31816	
6684	0	31800	
6685	0	31796	
6686	0	31804	
6687	0	31756	
6688	0	31724	
6689	0	31688	
6690	0	31700	
6691	0	31696	
6692	0	31684	
6693	0	31700	
6694	0	31744	
6695	0	31808	
6696	0	31866	
6697	0	31908	
6698	0	31936	
6699	0	31980	
6700	0	32008	
6701	0	31968	
6702	0	31900	
6703	0	31896	
6704	0	31878	
6705	0	31864	
6706	0	31860	
6707	0	31850	
6708	0	31824	
6709	0	31760	
6710	0	31724	
6711	0	31772	
6712	0	31796	
6713	0	31772	
6714	0	31808	
6715	0	31868	
6716	0	31956	
6717	0	32028	
6718	0	32080	
6719	0	32092	
6720	0	32096	
6721	0	32084	
6722	0	32048	
6723	0	32024	
6724	0	32020	
6725	0	32068	
6726	0	32048	
6727	0	31996	
6728	0	31908	
6729	0	31856	
6730	0	31848	
6731	0	31916	
6732	0	31988	
6733	0	32032	
6734	0	32056	
6735	0	32072	
6736	0	32152	
6737	0	32238	
6738	0	32308	
6739	0	32320	
6740	0	32308	
6741	0	32288	
6742	0	32288	
6743	0	32236	
6744	0	32156	
6745	0	32116	
6746	0	32096	
6747	0	32048	
6748	0	32024	
6749	0	32002	
6750	0	32004	
6751	0	32028	
6752	0	32036	
6753	0	32080	
6754	0	32144	
6755	0	32184	
6756	0	32152	
6757	0	32176	
6758	0	32254	
6759	0	32288	
6760	0	32308	
6761	0	32346	
6762	0	32348	
6763	0	32272	
6764	0	32248	
6765	0	32236	
6766	0	32184	
6767	0	32160	
6768	0	32164	
6769	0	32184	
6770	0	32164	
6771	0	32110	
6772	0	32072	
6773	0	32078	
6774	0	32120	
6775	0	32176	
6776	0	32216	
6777	0	32344	
6778	0	32456	
6779	0	32492	
6780	0	32500	
6781	0	32488	
6782	0	32452	
6783	0	32380	
6784	0	32340	
6785	0	32320	
6786	0	32320	
6787	0	32264	
6788	0	32232	
6789	0	32236	
6790	0	32202	
6791	0	32188	
6792	0	32164	
6793	0	32224	
6794	0	32308	
6795	0	32392	
6796	0	32504	
6797	0	32570	
6798	0	32584	
6799	0	32552	
6800	0	32532	
6801	0	32500	
6802	0	32500	
6803	0	32476	
6804	0	32404	
6805	0	32396	
6806	0	32416	
6807	0	32384	
6808	0	32346	
6809	0	32416	
6810	0	32536	
6811	0	32660	
6812	0	32800	
6813	0	32928	
6814	0	33010	
6815	0	33104	
6816	0	33252	
6817	0	33400	
6818	0	33540	
6819	0	33700	
6820	0	33860	
6821	0	33876	
6822	0	33852	
6823	0	33808	
6824	0	33776	
6825	0	33796	
6826	0	33864	
6827	0	33904	
6828	0	33952	
6829	0	33914	
6830	0	33840	
6831	0	33856	
6832	0	33924	
6833	0	34036	
6834	0	34132	
6835	0	34240	
6836	0	34380	
6837	0	34584	
6838	0	34768	
6839	0	34948	
6840	0	35068	
6841	0	35116	
6842	0	35106	
6843	0	35084	
6844	0	35012	
6845	0	34952	
6846	0	34888	
6847	0	34832	
6848	0	34832	
6849	0	34880	
6850	0	34920	
6851	0	34956	
6852	0	34952	
6853	0	34860	
6854	0	34708	
6855	0	34596	
6856	0	34540	
6857	0	34452	
6858	0	34268	
6859	0	34024	
6860	0	33848	
6861	0	33722	
6862	0	33640	
6863	0	33572	
6864	0	33482	
6865	0	33408	
6866	0	33376	
6867	0	33292	
6868	0	33236	
6869	0	33168	
6870	0	33180	
6871	0	33220	
6872	0	33260	
6873	0	33296	
6874	0	33280	
6875	0	33216	
6876	0	33116	
6877	0	33012	
6878	0	32896	
6879	0	32824	
6880	0	32752	
6881	0	32708	
6882	0	32652	
6883	0	32552	
6884	0	32408	
6885	0	32224	
6886	0	32046	
6887	0	31864	
6888	0	31656	
6889	0	31488	
6890	0	31346	
6891	0	31232	
6892	0	31200	
6893	0	31208	
6894	0	31228	
6895	0	31252	
6896	0	31346	
6897	0	31432	
6898	0	31508	
6899	0	31584	
6900	0	31656	
6901	0	31704	
6902	0	31732	
6903	0	31760	
6904	0	31752	
6905	0	31696	
6906	0	31636	
6907	0	31560	
6908	0	31520	
6909	0	31500	
6910	0	31496	
6911	0	31504	
6912	0	31524	
6913	0	31532	
6914	0	31520	
6915	0	31516	
6916	0	31504	
6917	0	31520	
6918	0	31564	
6919	0	31584	
6920	0	31596	
6921	0	31552	
6922	0	31480	
6923	0	31452	
6924	0	31444	
6925	0	31392	
6926	0	31360	
6927	0	31310	
6928	0	31304	
6929	0	31328	
6930	0	31312	
6931	0	31280	
6932	0	31264	
6933	0	31368	
6934	0	31456	
6935	0	31500	
6936	0	31568	
6937	0	31700	
6938	0	31780	
6939	0	31840	
6940	0	31860	
6941	0	31840	
6942	0	31836	
6943	0	31892	
6944	0	31944	
6945	0	31904	
6946	0	31844	
6947	0	31776	
6948	0	31728	
6949	0	31600	
6950	0	31504	
6951	0	31384	
6952	0	31260	
6953	0	31168	
6954	0	31040	
6955	0	30912	
6956	0	30880	
6957	0	30892	
6958	0	31008	
6959	0	31232	
6960	0	31504	
6961	0	31876	
6962	0	32388	
6963	0	32976	
6964	0	33648	
6965	0	34536	
6966	0	35600	
6967	0	36860	
6968	0	38248	
6969	0	39696	
6970	0	41204	
6971	0	42628	
6972	0	44072	
6973	0	45584	
6974	0	47136	
6975	0	48660	
6976	0	50124	
6977	0	51580	
6978	0	53004	
6979	0	54368	
6980	0	55748	
6981	0	57088	
6982	0	58228	
6983	0	59224	
6984	0	59976	
6985	0	60436	
6986	0	60440	
6987	0	59416	
6988	0	57584	
6989	0	54976	
6990	0	51720	
6991	0	48320	
6992	0	44736	
6993	0	40660	
6994	0	36132	
6995	0	31880	
6996	0	28636	
6997	0	26536	
6998	0	25412	
6999	0	24936	
7000	0	24868	
7001	0	25024	
7002	0	25220	
7003	0	25496	
7004	0	25836	
7005	0	26234	
7006	0	26628	
7007	0	27072	
7008	0	27540	
7009	0	28008	
7010	0	28512	
7011	0	28960	
7012	0	29368	
7013	0	29680	
7014	0	29914	
7015	0	30048	
7016	0	30188	
7017	0	30244	
7018	0	30260	
7019	0	30264	
7020	0	30230	
7021	0	30092	
7022	0	29964	
7023	0	29864	
7024	0	29740	
7025	0	29672	
7026	0	29656	
7027	0	29588	
7028	0	29518	
7029	0	29416	
7030	0	29380	
7031	0	29440	
7032	0	29492	
7033	0	29528	
7034	0	29560	
7035	0	29576	
7036	0	29608	
7037	0	29664	
7038	0	29700	
7039	0	29752	
7040	0	29800	
7041	0	29832	
7042	0	29804	
7043	0	29780	
7044	0	29776	
7045	0	29760	
7046	0	29740	
7047	0	29692	
7048	0	29716	
7049	0	29736	
7050	0	29792	
7051	0	29832	
7052	0	29852	
7053	0	29928	
7054	0	30000	
7055	0	30064	
7056	0	30108	
7057	0	30224	
7058	0	30372	
7059	0	30472	
7060	0	30492	
7061	0	30432	
7062	0	30356	
7063	0	30342	
7064	0	30368	
7065	0	30432	
7066	0	30400	
7067	0	30372	
7068	0	30370	
7069	0	30356	
7070	0	30304	
7071	0	30332	
7072	0	30380	
7073	0	30444	
7074	0	30540	
7075	0	30640	
7076	0	30744	
7077	0	30832	
7078	0	30904	
7079	0	30924	
7080	0	30864	
7081	0	30840	
7082	0	30924	
7083	0	31004	
7084	0	31052	
7085	0	31040	
7086	0	30952	
7087	0	30864	
7088	0	30828	
7089	0	30868	
7090	0	30908	
7091	0	30976	
7092	0	31056	
7093	0	31152	
7094	0	31196	
7095	0	31284	
7096	0	31384	
7097	0	31400	
7098	0	31432	
7099	0	31552	
7100	0	31608	
7101	0	31676	
7102	0	31764	
7103	0	31768	
7104	0	31696	
7105	0	31688	
7106	0	31712	
7107	0	31680	
7108	0	31672	
7109	0	31692	
7110	0	31672	
7111	0	31692	
7112	0	31752	
7113	0	31832	
7114	0	31916	
7115	0	31952	
7116	0	32060	
7117	0	32140	
7118	0	32140	
7119	0	32148	
7120	0	32200	
7121	0	32264	
7122	0	32328	
7123	0	32348	
7124	0	32380	
7125	0	32352	
7126	0	32316	
7127	0	32332	
7128	0	32376	
7129	0	32416	
7130	0	32372	
7131	0	32356	
7132	0	32368	
7133	0	32424	
7134	0	32472	
7135	0	32576	
7136	0	32654	
7137	0	32736	
7138	0	32844	
7139	0	32948	
7140	0	33016	
7141	0	33064	
7142	0	33152	
7143	0	33172	
7144	0	33160	
7145	0	33172	
7146	0	33156	
7147	0	33092	
7148	0	33026	
7149	0	33072	
7150	0	33168	
7151	0	33244	
7152	0	33300	
7153	0	33376	
7154	0	33476	
7155	0	33608	
7156	0	33690	
7157	0	33764	
7158	0	33828	
7159	0	33932	
7160	0	34020	
7161	0	34116	
7162	0	34172	
7163	0	34176	
7164	0	34248	
7165	0	34344	
7166	0	34410	
7167	0	34452	
7168	0	34464	
7169	0	34490	
7170	0	34512	
7171	0	34612	
7172	0	34732	
7173	0	34784	
7174	0	34900	
7175	0	34920	
7176	0	34976	
7177	0	35120	
7178	0	35216	
7179	0	35352	
7180	0	35428	
7181	0	35448	
7182	0	35504	
7183	0	35584	
7184	0	35608	
7185	0	35652	
7186	0	35664	
7187	0	35732	
7188	0	35834	
7189	0	35916	
7190	0	35992	
7191	0	36104	
7192	0	36192	
7193	0	36312	
7194	0	36392	
7195	0	36456	
7196	0	36580	
7197	0	36652	
7198	0	36672	
7199	0	36744	
7200	0	36840	
7201	0	36936	
7202	0	37000	
7203	0	37052	
7204	0	37032	
7205	0	37008	
7206	0	36980	
7207	0	36942	
7208	0	36922	
7209	0	36960	
7210	0	37040	
7211	0	37088	
7212	0	37120	
7213	0	37108	
7214	0	37140	
7215	0	37192	
7216	0	37272	
7217	0	37380	
7218	0	37448	
7219	0	37496	
7220	0	37488	
7221	0	37452	
7222	0	37440	
7223	0	37408	
7224	0	37362	
7225	0	37252	
7226	0	37176	
7227	0	37040	
7228	0	36916	
7229	0	36862	
7230	0	36780	
7231	0	36680	
7232	0	36548	
7233	0	36428	
7234	0	36308	
7235	0	36196	
7236	0	36092	
7237	0	35952	
7238	0	35768	
7239	0	35524	
7240	0	35318	
7241	0	35112	
7242	0	34848	
7243	0	34652	
7244	0	34544	
7245	0	34344	
7246	0	34124	
7247	0	33920	
7248	0	33704	
7249	0	33520	
7250	0	33336	
7251	0	33160	
7252	0	32972	
7253	0	32800	
7254	0	32712	
7255	0	32600	
7256	0	32472	
7257	0	32312	
7258	0	32176	
7259	0	32016	
7260	0	31796	
7261	0	31610	
7262	0	31436	
7263	0	31208	
7264	0	30968	
7265	0	30732	
7266	0	30528	
7267	0	30348	
7268	0	30256	
7269	0	30168	
7270	0	30112	
7271	0	30060	
7272	0	29972	
7273	0	29896	
7274	0	29814	
7275	0	29812	
7276	0	29816	
7277	0	29844	
7278	0	29920	
7279	0	29924	
7280	0	29860	
7281	0	29848	
7282	0	29880	
7283	0	29896	
7284	0	29880	
7285	0	29880	
7286	0	29888	
7287	0	29852	
7288	0	29784	
7289	0	29740	
7290	0	29728	
7291	0	29752	
7292	0	29788	
7293	0	29816	
7294	0	29892	
7295	0	29908	
7296	0	29900	
7297	0	29928	
7298	0	29976	
7299	0	30016	
7300	0	29996	
7301	0	30082	
7302	0	30160	
7303	0	30212	
7304	0	30208	
7305	0	30152	
7306	0	30120	
7307	0	30104	
7308	0	30088	
7309	0	30084	
7310	0	30096	
7311	0	30168	
7312	0	30216	
7313	0	30216	
7314	0	30168	
7315	0	30140	
7316	0	30220	
7317	0	30364	
7318	0	30408	
7319	0	30428	
7320	0	30456	
7321	0	30504	
7322	0	30552	
7323	0	30484	
7324	0	30432	
7325	0	30436	
7326	0	30432	
7327	0	30392	
7328	0	30336	
7329	0	30354	
7330	0	30360	
7331	0	30344	
7332	0	30376	
7333	0	30452	
7334	0	30520	
7335	0	30576	
7336	0	30672	
7337	0	30784	
7338	0	30860	
7339	0	30900	
7340	0	30924	
7341	0	30976	
7342	0	31012	
7343	0	30968	
7344	0	30856	
7345	0	30812	
7346	0	30778	
7347	0	30732	
7348	0	30728	
7349	0	30756	
7350	0	30829	
7351	0	30860	
7352	0	30888	
7353	0	30944	
7354	0	31008	
7355	0	31056	
7356	0	31080	
7357	0	31064	
7358	0	31072	
7359	0	31140	
7360	0	31232	
7361	0	31228	
7362	0	31276	
7363	0	31324	
7364	0	31292	
7365	0	31160	
7366	0	31128	
7367	0	31144	
7368	0	31136	
7369	0	31152	
7370	0	31104	
7371	0	31088	
7372	0	31140	
7373	0	31208	
7374	0	31228	
7375	0	31284	
7376	0	31308	
7377	0	31292	
7378	0	31292	
7379	0	31328	
7380	0	31360	
7381	0	31316	
7382	0	31280	
7383	0	31264	
7384	0	31308	
7385	0	31306	
7386	0	31340	
7387	0	31368	
7388	0	31392	
7389	0	31396	
7390	0	31376	
7391	0	31360	
7392	0	31396	
7393	0	31464	
7394	0	31480	
7395	0	31456	
7396	0	31456	
7397	0	31528	
7398	0	31612	
7399	0	31646	
7400	0	31648	
7401	0	31630	
7402	0	31592	
7403	0	31568	
7404	0	31540	
7405	0	31484	
7406	0	31436	
7407	0	31392	
7408	0	31332	
7409	0	31328	
7410	0	31348	
7411	0	31372	
7412	0	31376	
7413	0	31428	
7414	0	31500	
7415	0	31520	
7416	0	31564	
7417	0	31664	
7418	0	31728	
7419	0	31728	
7420	0	31756	
7421	0	31764	
7422	0	31776	
7423	0	31744	
7424	0	31728	
7425	0	31704	
7426	0	31652	
7427	0	31620	
7428	0	31584	
7429	0	31548	
7430	0	31540	
7431	0	31580	
7432	0	31668	
7433	0	31756	
7434	0	31824	
7435	0	31776	
7436	0	31772	
7437	0	31812	
7438	0	31848	
7439	0	31904	
7440	0	31920	
7441	0	31908	
7442	0	31900	
7443	0	31932	
7444	0	31936	
7445	0	31898	
7446	0	31852	
7447	0	31784	
7448	0	31744	
7449	0	31704	
7450	0	31636	
7451	0	31640	
7452	0	31720	
7453	0	31800	
7454	0	31826	
7455	0	31820	
7456	0	31784	
7457	0	31768	
7458	0	31800	
7459	0	31876	
7460	0	31936	
7461	0	31908	
7462	0	31824	
7463	0	31784	
7464	0	31728	
7465	0	31708	
7466	0	31640	
7467	0	31636	
7468	0	31600	
7469	0	31628	
7470	0	31632	
7471	0	31656	
7472	0	31744	
7473	0	31808	
7474	0	31832	
7475	0	31818	
7476	0	31882	
7477	0	31886	
7478	0	31856	
7479	0	31880	
7480	0	31900	
7481	0	31904	
7482	0	31988	
7483	0	32016	
7484	0	31956	
7485	0	31872	
7486	0	31776	
7487	0	31688	
7488	0	31660	
7489	0	31680	
7490	0	31764	
7491	0	31852	
7492	0	31928	
7493	0	31980	
7494	0	32058	
7495	0	32096	
7496	0	32165	
7497	0	32210	
7498	0	32196	
7499	0	32208	
7500	0	32138	
7501	0	32128	
7502	0	32180	
7503	0	32240	
7504	0	32240	
7505	0	32192	
7506	0	32144	
7507	0	32072	
7508	0	32016	
7509	0	31988	
7510	0	32008	
7511	0	31996	
7512	0	32052	
7513	0	32080	
7514	0	32076	
7515	0	32084	
7516	0	32124	
7517	0	32220	
7518	0	32308	
7519	0	32356	
7520	0	32320	
7521	0	32252	
7522	0	32224	
7523	0	32256	
7524	0	32256	
7525	0	32226	
7526	0	32216	
7527	0	32288	
7528	0	32356	
7529	0	32424	
7530	0	32472	
7531	0	32616	
7532	0	32768	
7533	0	32964	
7534	0	33160	
7535	0	33300	
7536	0	33376	
7537	0	33440	
7538	0	33548	
7539	0	33648	
7540	0	33664	
7541	0	33564	
7542	0	33524	
7543	0	33562	
7544	0	33654	
7545	0	33744	
7546	0	33758	
7547	0	33772	
7548	0	33824	
7549	0	33808	
7550	0	33848	
7551	0	33964	
7552	0	34100	
7553	0	34160	
7554	0	34272	
7555	0	34464	
7556	0	34684	
7557	0	34900	
7558	0	35092	
7559	0	35196	
7560	0	35224	
7561	0	35236	
7562	0	35188	
7563	0	35108	
7564	0	35056	
7565	0	35068	
7566	0	35076	
7567	0	35112	
7568	0	35146	
7569	0	35228	
7570	0	35308	
7571	0	35248	
7572	0	35152	
7573	0	35070	
7574	0	35024	
7575	0	34980	
7576	0	34888	
7577	0	34768	
7578	0	34556	
7579	0	34344	
7580	0	34116	
7581	0	33968	
7582	0	33984	
7583	0	33920	
7584	0	33872	
7585	0	33808	
7586	0	33696	
7587	0	33588	
7588	0	33552	
7589	0	33544	
7590	0	33460	
7591	0	33388	
7592	0	33416	
7593	0	33440	
7594	0	33408	
7595	0	33288	
7596	0	33140	
7597	0	33064	
7598	0	33018	
7599	0	32952	
7600	0	32940	
7601	0	32844	
7602	0	32672	
7603	0	32448	
7604	0	32288	
7605	0	32296	
7606	0	32252	
7607	0	32184	
7608	0	32170	
7609	0	32088	
7610	0	31924	
7611	0	31840	
7612	0	31764	
7613	0	31744	
7614	0	31764	
7615	0	31804	
7616	0	31844	
7617	0	31824	
7618	0	31816	
7619	0	31832	
7620	0	31856	
7621	0	31912	
7622	0	31928	
7623	0	31880	
7624	0	31844	
7625	0	31788	
7626	0	31768	
7627	0	31784	
7628	0	31752	
7629	0	31736	
7630	0	31740	
7631	0	31720	
7632	0	31708	
7633	0	31648	
7634	0	31644	
7635	0	31704	
7636	0	31720	
7637	0	31744	
7638	0	31760	
7639	0	31804	
7640	0	31828	
7641	0	31758	
7642	0	31664	
7643	0	31676	
7644	0	31680	
7645	0	31604	
7646	0	31568	
7647	0	31532	
7648	0	31520	
7649	0	31620	
7650	0	31696	
7651	0	31684	
7652	0	31656	
7653	0	31668	
7654	0	31712	
7655	0	31852	
7656	0	31916	
7657	0	31976	
7658	0	32044	
7659	0	32072	
7660	0	32054	
7661	0	32056	
7662	0	32090	
7663	0	32128	
7664	0	32136	
7665	0	32072	
7666	0	31976	
7667	0	31912	
7668	0	31852	
7669	0	31756	
7670	0	31748	
7671	0	31778	
7672	0	31684	
7673	0	31496	
7674	0	31364	
7675	0	31244	
7676	0	31156	
7677	0	31176	
7678	0	31212	
7679	0	31328	
7680	0	31596	
7681	0	32012	
7682	0	32500	
7683	0	33072	
7684	0	33708	
7685	0	34652	
7686	0	35770	
7687	0	37072	
7688	0	38576	
7689	0	40124	
7690	0	41572	
7691	0	43032	
7692	0	44596	
7693	0	46232	
7694	0	47824	
7695	0	49344	
7696	0	50696	
7697	0	51944	
7698	0	53248	
7699	0	54456	
7700	0	55644	
7701	0	56792	
7702	0	57876	
7703	0	58904	
7704	0	59792	
7705	0	60296	
7706	0	60148	
7707	0	59000	
7708	0	57112	
7709	0	54332	
7710	0	50888	
7711	0	47364	
7712	0	43716	
7713	0	39644	
7714	0	35240	
7715	0	31072	
7716	0	27836	
7717	0	25700	
7718	0	24588	
7719	0	24276	
7720	0	24440	
7721	0	24760	
7722	0	25154	
7723	0	25480	
7724	0	25780	
7725	0	26004	
7726	0	26252	
7727	0	26568	
7728	0	26848	
7729	0	27092	
7730	0	27348	
7731	0	27616	
7732	0	27928	
7733	0	28332	
7734	0	28728	
7735	0	29134	
7736	0	29556	
7737	0	29920	
7738	0	30144	
7739	0	30268	
7740	0	30296	
7741	0	30300	
7742	0	30332	
7743	0	30304	
7744	0	30228	
7745	0	30152	
7746	0	30184	
7747	0	30136	
7748	0	30074	
7749	0	30008	
7750	0	30016	
7751	0	30024	
7752	0	30016	
7753	0	30076	
7754	0	30156	
7755	0	30200	
7756	0	30268	
7757	0	30352	
7758	0	30380	
7759	0	30428	
7760	0	30464	
7761	0	30526	
7762	0	30568	
7763	0	30532	
7764	0	30452	
7765	0	30402	
7766	0	30434	
7767	0	30488	
7768	0	30540	
7769	0	30592	
7770	0	30648	
7771	0	30680	
7772	0	30708	
7773	0	30752	
7774	0	30768	
7775	0	30800	
7776	0	30864	
7777	0	30988	
7778	0	31072	
7779	0	31152	
7780	0	31198	
7781	0	31208	
7782	0	31216	
7783	0	31214	
7784	0	31184	
7785	0	31248	
7786	0	31272	
7787	0	31220	
7788	0	31212	
7789	0	31180	
7790	0	31182	
7791	0	31226	
7792	0	31316	
7793	0	31400	
7794	0	31456	
7795	0	31508	
7796	0	31536	
7797	0	31572	
7798	0	31656	
7799	0	31688	
7800	0	31616	
7801	0	31556	
7802	0	31552	
7803	0	31504	
7804	0	31440	
7805	0	31512	
7806	0	31600	
7807	0	31628	
7808	0	31672	
7809	0	31702	
7810	0	31712	
7811	0	31740	
7812	0	31720	
7813	0	31768	
7814	0	31868	
7815	0	31936	
7816	0	31956	
7817	0	32048	
7818	0	32052	
7819	0	32048	
7820	0	32036	
7821	0	32056	
7822	0	32076	
7823	0	32032	
7824	0	31996	
7825	0	32092	
7826	0	32164	
7827	0	32136	
7828	0	32148	
7829	0	32148	
7830	0	32160	
7831	0	32210	
7832	0	32300	
7833	0	32392	
7834	0	32468	
7835	0	32524	
7836	0	32556	
7837	0	32588	
7838	0	32608	
7839	0	32648	
7840	0	32744	
7841	0	32824	
7842	0	32860	
7843	0	32808	
7844	0	32736	
7845	0	32728	
7846	0	32730	
7847	0	32746	
7848	0	32728	
7849	0	32654	
7850	0	32652	
7851	0	32712	
7852	0	32768	
7853	0	32860	
7854	0	32952	
7855	0	33056	
7856	0	33108	
7857	0	33184	
7858	0	33240	
7859	0	33296	
7860	0	33352	
7861	0	33372	
7862	0	33354	
7863	0	33298	
7864	0	33304	
7865	0	33396	
7866	0	33464	
7867	0	33472	
7868	0	33504	
7869	0	33454	
7870	0	33500	
7871	0	33646	
7872	0	33788	
7873	0	33888	
7874	0	33920	
7875	0	33940	
7876	0	34040	
7877	0	34154	
7878	0	34240	
7879	0	34320	
7880	0	34356	
7881	0	34376	
7882	0	34368	
7883	0	34464	
7884	0	34568	
7885	0	34604	
7886	0	34572	
7887	0	34556	
7888	0	34592	
7889	0	34656	
7890	0	34712	
7891	0	34776	
7892	0	34896	
7893	0	35060	
7894	0	35236	
7895	0	35384	
7896	0	35568	
7897	0	35680	
7898	0	35760	
7899	0	35828	
7900	0	35872	
7901	0	35888	
7902	0	35928	
7903	0	35956	
7904	0	36000	
7905	0	36088	
7906	0	36164	
7907	0	36202	
7908	0	36224	
7909	0	36252	
7910	0	36320	
7911	0	36416	
7912	0	36532	
7913	0	36618	
7914	0	36748	
7915	0	36908	
7916	0	37026	
7917	0	37088	
7918	0	37136	
7919	0	37228	
7920	0	37296	
7921	0	37312	
7922	0	37288	
7923	0	37220	
7924	0	37224	
7925	0	37204	
7926	0	37156	
7927	0	37160	
7928	0	37216	
7929	0	37216	
7930	0	37300	
7931	0	37456	
7932	0	37588	
7933	0	37608	
7934	0	37612	
7935	0	37656	
7936	0	37692	
7937	0	37672	
7938	0	37672	
7939	0	37760	
7940	0	37848	
7941	0	37774	
7942	0	37624	
7943	0	37462	
7944	0	37328	
7945	0	37232	
7946	0	37120	
7947	0	37008	
7948	0	36892	
7949	0	36824	
7950	0	36730	
7951	0	36664	
7952	0	36584	
7953	0	36460	
7954	0	36300	
7955	0	36152	
7956	0	36104	
7957	0	36012	
7958	0	35872	
7959	0	35688	
7960	0	35464	
7961	0	35280	
7962	0	35084	
7963	0	34836	
7964	0	34600	
7965	0	34324	
7966	0	34028	
7967	0	33796	
7968	0	33612	
7969	0	33388	
7970	0	33216	
7971	0	33082	
7972	0	32876	
7973	0	32668	
7974	0	32492	
7975	0	32332	
7976	0	32188	
7977	0	32044	
7978	0	31928	
7979	0	31776	
7980	0	31560	
7981	0	31396	
7982	0	31264	
7983	0	31084	
7984	0	30898	
7985	0	30708	
7986	0	30520	
7987	0	30400	
7988	0	30264	
7989	0	30112	
7990	0	29992	
7991	0	29872	
7992	0	29832	
7993	0	29794	
7994	0	29782	
7995	0	29736	
7996	0	29702	
7997	0	29676	
7998	0	29648	
7999	0	29668	
8000	0	29656	
8001	0	29564	
8002	0	29508	
8003	0	29468	
8004	0	29348	
8005	0	29216	
8006	0	29060	
8007	0	29040	
8008	0	29044	
8009	0	28968	
8010	0	28980	
8011	0	29024	
8012	0	29052	
8013	0	29016	
8014	0	29016	
8015	0	29056	
8016	0	29080	
8017	0	29092	
8018	0	29180	
8019	0	29260	
8020	0	29256	
8021	0	29232	
8022	0	29232	
8023	0	29220	
8024	0	29172	
8025	0	29076	
8026	0	28992	
8027	0	29048	
8028	0	29048	
8029	0	29044	
8030	0	29060	
8031	0	29024	
8032	0	29076	
8033	0	29196	
8034	0	29328	
8035	0	29452	
8036	0	29580	
8037	0	29654	
8038	0	29674	
8039	0	29632	
8040	0	29568	
8041	0	29584	
8042	0	29610	
8043	0	29692	
8044	0	29714	
8045	0	29644	
8046	0	29572	
8047	0	29564	
8048	0	29580	
8049	0	29592	
8050	0	29596	
8051	0	29692	
8052	0	29744	
8053	0	29824	
8054	0	29940	
8055	0	29960	
8056	0	29964	
8057	0	30060	
8058	0	30192	
8059	0	30252	
8060	0	30284	
8061	0	30232	
8062	0	30222	
8063	0	30228	
8064	0	30192	
8065	0	30164	
8066	0	30168	
8067	0	30156	
8068	0	30136	
8069	0	30208	
8070	0	30212	
8071	0	30234	
8072	0	30292	
8073	0	30336	
8074	0	30400	
8075	0	30472	
8076	0	30540	
8077	0	30608	
8078	0	30572	
8079	0	30524	
8080	0	30512	
8081	0	30572	
8082	0	30656	
8083	0	30724	
8084	0	30700	
8085	0	30596	
8086	0	30520	
8087	0	30532	
8088	0	30588	
8089	0	30624	
8090	0	30608	
8091	0	30650	
8092	0	30684	
8093	0	30688	
8094	0	30692	
8095	0	30772	
8096	0	30840	
8097	0	30940	
8098	0	30972	
8099	0	31020	
8100	0	31104	
8101	0	31088	
8102	0	31048	
8103	0	31024	
8104	0	30992	
8105	0	30936	
8106	0	30976	
8107	0	30984	
8108	0	30976	
8109	0	30964	
8110	0	31028	
8111	0	31072	
8112	0	31040	
8113	0	31000	
8114	0	31056	
8115	0	31168	
8116	0	31256	
8117	0	31320	
8118	0	31436	
8119	0	31476	
8120	0	31432	
8121	0	31372	
8122	0	31352	
8123	0	31376	
8124	0	31396	
8125	0	31400	
8126	0	31364	
8127	0	31376	
8128	0	31476	
8129	0	31496	
8130	0	31522	
8131	0	31572	
8132	0	31548	
8133	0	31520	
8134	0	31516	
8135	0	31576	
8136	0	31636	
8137	0	31712	
8138	0	31764	
8139	0	31778	
8140	0	31728	
8141	0	31660	
8142	0	31644	
8143	0	31676	
8144	0	31728	
8145	0	31712	
8146	0	31648	
8147	0	31556	
8148	0	31460	
8149	0	31432	
8150	0	31480	
8151	0	31552	
8152	0	31628	
8153	0	31672	
8154	0	31736	
8155	0	31840	
8156	0	31920	
8157	0	31916	
8158	0	31936	
8159	0	31932	
8160	0	31960	
8161	0	31968	
8162	0	31928	
8163	0	31840	
8164	0	31832	
8165	0	31788	
8166	0	31746	
8167	0	31712	
8168	0	31730	
8169	0	31752	
8170	0	31736	
8171	0	31792	
8172	0	31884	
8173	0	31936	
8174	0	31980	
8175	0	32016	
8176	0	32002	
8177	0	31992	
8178	0	32028	
8179	0	32072	
8180	0	32044	
8181	0	32020	
8182	0	31978	
8183	0	32000	
8184	0	32016	
8185	0	31996	
8186	0	31988	
8187	0	31948	
8188	0	31968	
8189	0	32000	
8190	0	31984	
8191	0	31964	
8192	0	31988	
8193	0	32036	
8194	0	32060	
8195	0	32108	
8196	0	32196	
8197	0	32272	
8198	0	32284	
8199	0	32300	
8200	0	32216	
8201	0	32188	
8202	0	32160	
8203	0	32108	
8204	0	32116	
8205	0	32044	
8206	0	31988	
8207	0	31952	
8208	0	31896	
8209	0	31872	
8210	0	31880	
8211	0	31892	
8212	0	31964	
8213	0	32044	
8214	0	32128	
8215	0	32244	
8216	0	32396	
8217	0	32540	
8218	0	32660	
8219	0	32736	
8220	0	32760	
8221	0	32872	
8222	0	32976	
8223	0	33004	
8224	0	33032	
8225	0	33124	
8226	0	33220	
8227	0	33320	
8228	0	33352	
8229	0	33306	
8230	0	33280	
8231	0	33300	
8232	0	33360	
8233	0	33472	
8234	0	33612	
8235	0	33716	
8236	0	33760	
8237	0	33844	
8238	0	33996	
8239	0	34124	
8240	0	34132	
8241	0	34160	
8242	0	34156	
8243	0	34148	
8244	0	34152	
8245	0	34244	
8246	0	34352	
8247	0	34516	
8248	0	34708	
8249	0	34800	
8250	0	34884	
8251	0	34968	
8252	0	35040	
8253	0	35044	
8254	0	35050	
8255	0	35068	
8256	0	35136	
8257	0	35200	
8258	0	35312	
8259	0	35452	
8260	0	35532	
8261	0	35444	
8262	0	35264	
8263	0	35088	
8264	0	34944	
8265	0	34832	
8266	0	34680	
8267	0	34452	
8268	0	34220	
8269	0	34016	
8270	0	33936	
8271	0	33968	
8272	0	33928	
8273	0	33948	
8274	0	34010	
8275	0	34004	
8276	0	33996	
8277	0	33968	
8278	0	33956	
8279	0	33892	
8280	0	33812	
8281	0	33744	
8282	0	33712	
8283	0	33644	
8284	0	33504	
8285	0	33344	
8286	0	33192	
8287	0	33048	
8288	0	32884	
8289	0	32774	
8290	0	32772	
8291	0	32744	
8292	0	32668	
8293	0	32608	
8294	0	32584	
8295	0	32568	
8296	0	32532	
8297	0	32528	
8298	0	32436	
8299	0	32304	
8300	0	32194	
8301	0	32104	
8302	0	31972	
8303	0	31872	
8304	0	31812	
8305	0	31802	
8306	0	31728	
8307	0	31672	
8308	0	31620	
8309	0	31590	
8310	0	31584	
8311	0	31584	
8312	0	31660	
8313	0	31752	
8314	0	31764	
8315	0	31780	
8316	0	31824	
8317	0	31844	
8318	0	31852	
8319	0	31936	
8320	0	31988	
8321	0	31944	
8322	0	31848	
8323	0	31752	
8324	0	31674	
8325	0	31672	
8326	0	31720	
8327	0	31760	
8328	0	31732	
8329	0	31692	
8330	0	31672	
8331	0	31660	
8332	0	31696	
8333	0	31742	
8334	0	31776	
8335	0	31816	
8336	0	31956	
8337	0	31976	
8338	0	31892	
8339	0	31876	
8340	0	31876	
8341	0	31868	
8342	0	31912	
8343	0	31964	
8344	0	31940	
8345	0	31956	
8346	0	31984	
8347	0	31968	
8348	0	31924	
8349	0	31940	
8350	0	31968	
8351	0	32002	
8352	0	32040	
8353	0	32080	
8354	0	32124	
8355	0	32152	
8356	0	32204	
8357	0	32300	
8358	0	32312	
8359	0	32308	
8360	0	32204	
8361	0	32112	
8362	0	32032	
8363	0	31964	
8364	0	31804	
8365	0	31612	
8366	0	31448	
8367	0	31244	
8368	0	31088	
8369	0	31148	
8370	0	31296	
8371	0	31436	
8372	0	31768	
8373	0	32348	
8374	0	33008	
8375	0	33690	
8376	0	34604	
8377	0	35745	
8378	0	37052	
8379	0	38522	
8380	0	40140	
8381	0	41664	
8382	0	43084	
8383	0	44516	
8384	0	46024	
8385	0	47580	
8386	0	49036	
8387	0	50328	
8388	0	51492	
8389	0	52708	
8390	0	53980	
8391	0	55276	
8392	0	56424	
8393	0	57556	
8394	0	58720	
8395	0	59812	
8396	0	60532	
8397	0	60736	
8398	0	60000	
8399	0	58412	
8400	0	55976	
8401	0	52680	
8402	0	49108	
8403	0	45468	
8404	0	41572	
8405	0	37228	
8406	0	32832	
8407	0	29108	
8408	0	26468	
8409	0	24916	
8410	0	24262	
8411	0	24189	
8412	0	24544	
8413	0	24972	
8414	0	25372	
8415	0	25732	
8416	0	26106	
8417	0	26396	
8418	0	26668	
8419	0	26864	
8420	0	27052	
8421	0	27264	
8422	0	27460	
8423	0	27640	
8424	0	27988	
8425	0	28388	
8426	0	28780	
8427	0	29172	
8428	0	29476	
8429	0	29708	
8430	0	29944	
8431	0	30044	
8432	0	30132	
8433	0	30178	
8434	0	30180	
8435	0	30232	
8436	0	30224	
8437	0	30268	
8438	0	30300	
8439	0	30264	
8440	0	30220	
8441	0	30240	
8442	0	30272	
8443	0	30236	
8444	0	30228	
8445	0	30248	
8446	0	30172	
8447	0	30072	
8448	0	30080	
8449	0	30152	
8450	0	30264	
8451	0	30328	
8452	0	30384	
8453	0	30424	
8454	0	30464	
8455	0	30560	
8456	0	30596	
8457	0	30636	
8458	0	30708	
8459	0	30760	
8460	0	30840	
8461	0	30824	
8462	0	30814	
8463	0	30820	
8464	0	30852	
8465	0	30908	
8466	0	30932	
8467	0	30884	
8468	0	30796	
8469	0	30778	
8470	0	30828	
8471	0	30852	
8472	0	30912	
8473	0	31016	
8474	0	31120	
8475	0	31194	
8476	0	31292	
8477	0	31400	
8478	0	31440	
8479	0	31416	
8480	0	31376	
8481	0	31360	
8482	0	31356	
8483	0	31312	
8484	0	31304	
8485	0	31320	
8486	0	31368	
8487	0	31404	
8488	0	31408	
8489	0	31440	
8490	0	31464	
8491	0	31508	
8492	0	31604	
8493	0	31724	
8494	0	31796	
8495	0	31844	
8496	0	31920	
8497	0	31976	
8498	0	32000	
8499	0	31972	
8500	0	31996	
8501	0	32068	
8502	0	32016	
8503	0	31928	
8504	0	31856	
8505	0	31824	
8506	0	31884	
8507	0	31936	
8508	0	31960	
8509	0	32000	
8510	0	32060	
8511	0	32128	
8512	0	32252	
8513	0	32348	
8514	0	32396	
8515	0	32484	
8516	0	32568	
8517	0	32606	
8518	0	32608	
8519	0	32632	
8520	0	32608	
8521	0	32568	
8522	0	32572	
8523	0	32540	
8524	0	32496	
8525	0	32420	
8526	0	32408	
8527	0	32460	
8528	0	32532	
8529	0	32516	
8530	0	32564	
8531	0	32576	
8532	0	32624	
8533	0	32684	
8534	0	32690	
8535	0	32760	
8536	0	32916	
8537	0	33024	
8538	0	33056	
8539	0	33084	
8540	0	33096	
8541	0	33120	
8542	0	33172	
8543	0	33268	
8544	0	33252	
8545	0	33192	
8546	0	33216	
8547	0	33240	
8548	0	33212	
8549	0	33184	
8550	0	33178	
8551	0	33284	
8552	0	33408	
8553	0	33476	
8554	0	33560	
8555	0	33628	
8556	0	33676	
8557	0	33788	
8558	0	33864	
8559	0	33880	
8560	0	33860	
8561	0	33844	
8562	0	33876	
8563	0	33992	
8564	0	34004	
8565	0	33920	
8566	0	33888	
8567	0	33968	
8568	0	33972	
8569	0	34024	
8570	0	34132	
8571	0	34232	
8572	0	34266	
8573	0	34316	
8574	0	34460	
8575	0	34600	
8576	0	34696	
8577	0	34786	
8578	0	34840	
8579	0	34856	
8580	0	34912	
8581	0	35008	
8582	0	35068	
8583	0	35096	
8584	0	35124	
8585	0	35208	
8586	0	35328	
8587	0	35394	
8588	0	35440	
8589	0	35488	
8590	0	35564	
8591	0	35692	
8592	0	35880	
