# OpenSignals Text File Format. Version 1
# {"00:07:80:4B:15:F7": {"position": 0, "device": "biosignalsplux", "device name": "00:07:80:4B:15:F7", "device connection": "BTH00:07:80:4B:15:F7", "sampling rate": 1000, "resolution": [16], "firmware version": 775, "comments": "", "keywords": "", "mode": 0, "sync interval": 2, "date": "2023-3-14", "time": "14:45:11.609", "channels": [1], "sensor": ["ECG"], "label": ["CH1"], "column": ["nSeq", "DI", "CH1"], "special": [{"SpO2": [80, 40, 5, 4, 3, 3]}, {"SpO2": [80, 40, 5, 4, 3, 3]}, {"SpO2": [80, 40, 5, 4, 3, 3]}, {"SpO2": [80, 40, 5, 4, 3, 3]}, {"SpO2": [80, 40, 5, 4, 3, 3]}, {"SpO2": [80, 40, 5, 4, 3, 3]}, {"SpO2": [80, 40, 5, 4, 3, 3]}, {"SpO2": [80, 40, 5, 4, 3, 3]}], "digital IO": [0, 1], "sleeve color": ["green"], "convertedValues": 0}}
# EndOfHeader
0	0	30840	
1	0	30832	
2	0	30828	
3	0	30848	
4	0	30858	
5	0	30912	
6	0	30948	
7	0	31008	
8	0	31016	
9	0	31012	
10	0	31040	
11	0	31068	
12	0	31088	
13	0	31096	
14	0	31116	
15	0	31156	
16	0	31156	
17	0	31184	
18	0	31212	
19	0	31216	
20	0	31236	
21	0	31256	
22	0	31288	
23	0	31284	
24	0	31296	
25	0	31324	
26	0	31370	
27	0	31408	
28	0	31444	
29	0	31488	
30	0	31520	
31	0	31556	
32	0	31560	
33	0	31580	
34	0	31576	
35	0	31580	
36	0	31576	
37	0	31560	
38	0	31542	
39	0	31524	
40	0	31496	
41	0	31480	
42	0	31460	
43	0	31460	
44	0	31464	
45	0	31448	
46	0	31468	
47	0	31516	
48	0	31552	
49	0	31584	
50	0	31624	
51	0	31684	
52	0	31736	
53	0	31764	
54	0	31768	
55	0	31792	
56	0	31820	
57	0	31854	
58	0	31868	
59	0	31904	
60	0	31920	
61	0	31908	
62	0	31896	
63	0	31912	
64	0	31928	
65	0	31952	
66	0	31952	
67	0	31972	
68	0	32008	
69	0	32004	
70	0	32024	
71	0	32036	
72	0	32064	
73	0	32040	
74	0	31996	
75	0	32012	
76	0	32016	
77	0	31968	
78	0	31912	
79	0	31880	
80	0	31864	
81	0	31844	
82	0	31832	
83	0	31824	
84	0	31828	
85	0	31856	
86	0	31872	
87	0	31904	
88	0	31932	
89	0	31932	
90	0	31924	
91	0	31922	
92	0	31920	
93	0	31932	
94	0	31944	
95	0	31936	
96	0	31924	
97	0	31952	
98	0	31956	
99	0	31948	
100	0	31944	
101	0	31920	
102	0	31916	
103	0	31888	
104	0	31924	
105	0	31952	
106	0	31944	
107	0	31952	
108	0	31948	
109	0	31944	
110	0	31952	
111	0	31956	
112	0	31964	
113	0	31976	
114	0	31960	
115	0	31984	
116	0	31992	
117	0	31960	
118	0	31928	
119	0	31908	
120	0	31914	
121	0	31916	
122	0	31912	
123	0	31904	
124	0	31888	
125	0	31888	
126	0	31904	
127	0	31960	
128	0	31984	
129	0	31994	
130	0	32040	
131	0	32048	
132	0	32044	
133	0	32068	
134	0	32084	
135	0	32060	
136	0	32040	
137	0	32056	
138	0	32080	
139	0	32100	
140	0	32116	
141	0	32080	
142	0	32068	
143	0	32056	
144	0	32016	
145	0	31956	
146	0	31880	
147	0	31840	
148	0	31824	
149	0	31848	
150	0	31872	
151	0	31904	
152	0	31940	
153	0	31944	
154	0	31970	
155	0	32020	
156	0	32040	
157	0	32016	
158	0	32004	
159	0	32008	
160	0	32053	
161	0	32080	
162	0	32076	
163	0	32032	
164	0	31984	
165	0	31960	
166	0	31944	
167	0	31982	
168	0	31996	
169	0	32012	
170	0	32064	
171	0	32096	
172	0	32144	
173	0	32156	
174	0	32160	
175	0	32156	
176	0	32160	
177	0	32176	
178	0	32192	
179	0	32200	
180	0	32188	
181	0	32150	
182	0	32116	
183	0	32092	
184	0	32064	
185	0	32056	
186	0	32064	
187	0	32084	
188	0	32108	
189	0	32112	
190	0	32128	
191	0	32128	
192	0	32148	
193	0	32208	
194	0	32252	
195	0	32312	
196	0	32346	
197	0	32356	
198	0	32348	
199	0	32356	
200	0	32332	
201	0	32252	
202	0	32196	
203	0	32162	
204	0	32164	
205	0	32140	
206	0	32144	
207	0	32160	
208	0	32224	
209	0	32288	
210	0	32344	
211	0	32360	
212	0	32380	
213	0	32408	
214	0	32444	
215	0	32488	
216	0	32528	
217	0	32520	
218	0	32508	
219	0	32520	
220	0	32512	
221	0	32464	
222	0	32408	
223	0	32328	
224	0	32304	
225	0	32296	
226	0	32324	
227	0	32380	
228	0	32464	
229	0	32564	
230	0	32644	
231	0	32680	
232	0	32688	
233	0	32736	
234	0	32776	
235	0	32820	
236	0	32852	
237	0	32872	
238	0	32888	
239	0	32884	
240	0	32884	
241	0	32844	
242	0	32844	
243	0	32816	
244	0	32780	
245	0	32816	
246	0	32856	
247	0	32876	
248	0	32900	
249	0	32916	
250	0	32920	
251	0	32920	
252	0	32956	
253	0	33064	
254	0	33148	
255	0	33228	
256	0	33340	
257	0	33432	
258	0	33521	
259	0	33596	
260	0	33684	
261	0	33756	
262	0	33792	
263	0	33856	
264	0	33888	
265	0	33916	
266	0	33944	
267	0	34024	
268	0	34084	
269	0	34124	
270	0	34160	
271	0	34168	
272	0	34172	
273	0	34172	
274	0	34148	
275	0	34080	
276	0	33972	
277	0	33876	
278	0	33756	
279	0	33632	
280	0	33500	
281	0	33376	
282	0	33256	
283	0	33176	
284	0	33120	
285	0	33076	
286	0	33080	
287	0	33088	
288	0	33100	
289	0	33116	
290	0	33064	
291	0	33000	
292	0	32948	
293	0	32912	
294	0	32856	
295	0	32864	
296	0	32864	
297	0	32896	
298	0	32936	
299	0	32968	
300	0	32976	
301	0	32928	
302	0	32856	
303	0	32786	
304	0	32708	
305	0	32644	
306	0	32576	
307	0	32540	
308	0	32532	
309	0	32496	
310	0	32464	
311	0	32444	
312	0	32392	
313	0	32352	
314	0	32304	
315	0	32196	
316	0	32116	
317	0	32080	
318	0	32084	
319	0	32068	
320	0	32032	
321	0	32004	
322	0	32004	
323	0	32012	
324	0	32012	
325	0	32020	
326	0	31984	
327	0	31936	
328	0	31900	
329	0	31896	
330	0	31880	
331	0	31904	
332	0	31944	
333	0	31962	
334	0	31956	
335	0	31936	
336	0	31924	
337	0	31925	
338	0	31920	
339	0	31912	
340	0	31916	
341	0	31916	
342	0	31876	
343	0	31844	
344	0	31820	
345	0	31812	
346	0	31824	
347	0	31880	
348	0	31960	
349	0	31992	
350	0	32028	
351	0	32064	
352	0	32132	
353	0	32154	
354	0	32116	
355	0	32076	
356	0	32060	
357	0	32026	
358	0	31984	
359	0	31986	
360	0	31968	
361	0	31928	
362	0	31916	
363	0	31912	
364	0	31920	
365	0	31920	
366	0	31964	
367	0	32000	
368	0	32036	
369	0	32040	
370	0	32036	
371	0	32004	
372	0	32008	
373	0	32040	
374	0	32064	
375	0	32044	
376	0	32044	
377	0	32048	
378	0	32040	
379	0	32044	
380	0	32016	
381	0	32008	
382	0	32008	
383	0	32024	
384	0	32048	
385	0	32088	
386	0	32128	
387	0	32178	
388	0	32244	
389	0	32356	
390	0	32410	
391	0	32448	
392	0	32464	
393	0	32456	
394	0	32480	
395	0	32436	
396	0	32364	
397	0	32296	
398	0	32244	
399	0	32268	
400	0	32416	
401	0	32688	
402	0	32956	
403	0	33240	
404	0	33540	
405	0	33834	
406	0	34004	
407	0	34088	
408	0	34200	
409	0	34400	
410	0	34772	
411	0	35256	
412	0	35836	
413	0	36544	
414	0	37376	
415	0	38436	
416	0	39658	
417	0	40836	
418	0	42008	
419	0	43224	
420	0	44524	
421	0	45912	
422	0	47276	
423	0	48472	
424	0	49440	
425	0	50304	
426	0	51136	
427	0	52004	
428	0	52816	
429	0	53280	
430	0	53050	
431	0	51752	
432	0	49448	
433	0	46556	
434	0	43400	
435	0	40192	
436	0	37156	
437	0	34508	
438	0	32464	
439	0	31184	
440	0	30412	
441	0	29944	
442	0	29692	
443	0	29536	
444	0	29456	
445	0	29452	
446	0	29556	
447	0	29772	
448	0	30008	
449	0	30212	
450	0	30440	
451	0	30708	
452	0	30912	
453	0	31080	
454	0	31220	
455	0	31376	
456	0	31520	
457	0	31596	
458	0	31656	
459	0	31720	
460	0	31772	
461	0	31752	
462	0	31692	
463	0	31612	
464	0	31552	
465	0	31552	
466	0	31552	
467	0	31540	
468	0	31508	
469	0	31472	
470	0	31440	
471	0	31432	
472	0	31400	
473	0	31396	
474	0	31384	
475	0	31396	
476	0	31412	
477	0	31400	
478	0	31392	
479	0	31392	
480	0	31394	
481	0	31380	
482	0	31360	
483	0	31364	
484	0	31380	
485	0	31394	
486	0	31408	
487	0	31436	
488	0	31460	
489	0	31464	
490	0	31472	
491	0	31484	
492	0	31476	
493	0	31456	
494	0	31468	
495	0	31480	
496	0	31496	
497	0	31512	
498	0	31520	
499	0	31552	
500	0	31592	
501	0	31624	
502	0	31632	
503	0	31632	
504	0	31648	
505	0	31676	
506	0	31728	
507	0	31760	
508	0	31804	
509	0	31852	
510	0	31948	
511	0	32004	
512	0	32016	
513	0	32008	
514	0	31984	
515	0	31976	
516	0	31972	
517	0	31968	
518	0	31980	
519	0	31980	
520	0	31996	
521	0	32024	
522	0	32080	
523	0	32102	
524	0	32112	
525	0	32160	
526	0	32204	
527	0	32224	
528	0	32228	
529	0	32276	
530	0	32356	
531	0	32440	
532	0	32516	
533	0	32548	
534	0	32564	
535	0	32576	
536	0	32612	
537	0	32628	
538	0	32640	
539	0	32636	
540	0	32642	
541	0	32668	
542	0	32676	
543	0	32672	
544	0	32666	
545	0	32674	
546	0	32712	
547	0	32800	
548	0	32852	
549	0	32860	
550	0	32872	
551	0	32880	
552	0	32882	
553	0	32864	
554	0	32820	
555	0	32858	
556	0	32912	
557	0	32960	
558	0	32968	
559	0	33008	
560	0	33064	
561	0	33120	
562	0	33168	
563	0	33160	
564	0	33168	
565	0	33192	
566	0	33232	
567	0	33244	
568	0	33200	
569	0	33180	
570	0	33184	
571	0	33180	
572	0	33208	
573	0	33228	
574	0	33256	
575	0	33276	
576	0	33308	
577	0	33324	
578	0	33324	
579	0	33304	
580	0	33320	
581	0	33340	
582	0	33352	
583	0	33396	
584	0	33448	
585	0	33468	
586	0	33484	
587	0	33530	
588	0	33548	
589	0	33596	
590	0	33652	
591	0	33668	
592	0	33696	
593	0	33728	
594	0	33740	
595	0	33736	
596	0	33732	
597	0	33760	
598	0	33740	
599	0	33690	
600	0	33660	
601	0	33656	
602	0	33680	
603	0	33736	
604	0	33740	
605	0	33736	
606	0	33740	
607	0	33740	
608	0	33748	
609	0	33744	
610	0	33744	
611	0	33728	
612	0	33740	
613	0	33760	
614	0	33808	
615	0	33832	
616	0	33816	
617	0	33792	
618	0	33752	
619	0	33708	
620	0	33672	
621	0	33632	
622	0	33616	
623	0	33634	
624	0	33644	
625	0	33648	
626	0	33640	
627	0	33604	
628	0	33600	
629	0	33626	
630	0	33664	
631	0	33692	
632	0	33696	
633	0	33688	
634	0	33692	
635	0	33680	
636	0	33700	
637	0	33728	
638	0	33736	
639	0	33744	
640	0	33714	
641	0	33704	
642	0	33700	
643	0	33700	
644	0	33692	
645	0	33648	
646	0	33644	
647	0	33680	
648	0	33728	
649	0	33716	
650	0	33684	
651	0	33704	
652	0	33698	
653	0	33708	
654	0	33704	
655	0	33700	
656	0	33716	
657	0	33712	
658	0	33656	
659	0	33624	
660	0	33612	
661	0	33576	
662	0	33544	
663	0	33556	
664	0	33572	
665	0	33600	
666	0	33652	
667	0	33642	
668	0	33640	
669	0	33632	
670	0	33656	
671	0	33712	
672	0	33760	
673	0	33784	
674	0	33784	
675	0	33756	
676	0	33756	
677	0	33760	
678	0	33744	
679	0	33748	
680	0	33736	
681	0	33754	
682	0	33744	
683	0	33698	
684	0	33640	
685	0	33556	
686	0	33488	
687	0	33468	
688	0	33440	
689	0	33426	
690	0	33412	
691	0	33416	
692	0	33424	
693	0	33452	
694	0	33420	
695	0	33404	
696	0	33360	
697	0	33336	
698	0	33336	
699	0	33328	
700	0	33333	
701	0	33288	
702	0	33220	
703	0	33140	
704	0	33080	
705	0	33008	
706	0	32936	
707	0	32832	
708	0	32752	
709	0	32688	
710	0	32644	
711	0	32596	
712	0	32592	
713	0	32544	
714	0	32452	
715	0	32356	
716	0	32276	
717	0	32188	
718	0	32116	
719	0	32044	
720	0	31980	
721	0	31924	
722	0	31840	
723	0	31726	
724	0	31640	
725	0	31556	
726	0	31528	
727	0	31452	
728	0	31384	
729	0	31328	
730	0	31288	
731	0	31276	
732	0	31260	
733	0	31228	
734	0	31178	
735	0	31152	
736	0	31124	
737	0	31064	
738	0	30996	
739	0	30924	
740	0	30836	
741	0	30804	
742	0	30808	
743	0	30828	
744	0	30804	
745	0	30736	
746	0	30692	
747	0	30692	
748	0	30668	
749	0	30720	
750	0	30764	
751	0	30784	
752	0	30850	
753	0	30896	
754	0	30861	
755	0	30862	
756	0	30884	
757	0	30852	
758	0	30820	
759	0	30816	
760	0	30784	
761	0	30752	
762	0	30736	
763	0	30712	
764	0	30720	
765	0	30752	
766	0	30784	
767	0	30800	
768	0	30824	
769	0	30852	
770	0	30872	
771	0	30920	
772	0	30934	
773	0	30912	
774	0	30888	
775	0	30896	
776	0	30886	
777	0	30868	
778	0	30820	
779	0	30788	
780	0	30792	
781	0	30810	
782	0	30860	
783	0	30936	
784	0	30988	
785	0	31024	
786	0	31068	
787	0	31096	
788	0	31144	
789	0	31172	
790	0	31176	
791	0	31164	
792	0	31152	
793	0	31172	
794	0	31216	
795	0	31248	
796	0	31272	
797	0	31288	
798	0	31322	
799	0	31380	
800	0	31378	
801	0	31348	
802	0	31328	
803	0	31264	
804	0	31248	
805	0	31240	
806	0	31236	
807	0	31264	
808	0	31280	
809	0	31312	
810	0	31360	
811	0	31372	
812	0	31360	
813	0	31364	
814	0	31356	
815	0	31338	
816	0	31352	
817	0	31316	
818	0	31296	
819	0	31300	
820	0	31312	
821	0	31324	
822	0	31310	
823	0	31292	
824	0	31308	
825	0	31350	
826	0	31404	
827	0	31504	
828	0	31594	
829	0	31664	
830	0	31674	
831	0	31680	
832	0	31668	
833	0	31720	
834	0	31736	
835	0	31744	
836	0	31756	
837	0	31768	
838	0	31756	
839	0	31712	
840	0	31660	
841	0	31620	
842	0	31586	
843	0	31592	
844	0	31616	
845	0	31620	
846	0	31628	
847	0	31624	
848	0	31656	
849	0	31702	
850	0	31748	
851	0	31793	
852	0	31856	
853	0	31860	
854	0	31816	
855	0	31792	
856	0	31736	
857	0	31700	
858	0	31696	
859	0	31720	
860	0	31734	
861	0	31724	
862	0	31708	
863	0	31712	
864	0	31724	
865	0	31724	
866	0	31738	
867	0	31740	
868	0	31720	
869	0	31688	
870	0	31680	
871	0	31660	
872	0	31648	
873	0	31656	
874	0	31674	
875	0	31676	
876	0	31664	
877	0	31600	
878	0	31538	
879	0	31520	
880	0	31496	
881	0	31470	
882	0	31472	
883	0	31504	
884	0	31552	
885	0	31620	
886	0	31656	
887	0	31720	
888	0	31728	
889	0	31716	
890	0	31720	
891	0	31744	
892	0	31748	
893	0	31752	
894	0	31762	
895	0	31752	
896	0	31748	
897	0	31720	
898	0	31688	
899	0	31652	
900	0	31636	
901	0	31628	
902	0	31616	
903	0	31648	
904	0	31640	
905	0	31640	
906	0	31652	
907	0	31680	
908	0	31712	
909	0	31728	
910	0	31716	
911	0	31692	
912	0	31692	
913	0	31700	
914	0	31704	
915	0	31736	
916	0	31776	
917	0	31812	
918	0	31824	
919	0	31796	
920	0	31808	
921	0	31812	
922	0	31792	
923	0	31800	
924	0	31784	
925	0	31760	
926	0	31708	
927	0	31656	
928	0	31620	
929	0	31608	
930	0	31588	
931	0	31616	
932	0	31648	
933	0	31688	
934	0	31724	
935	0	31760	
936	0	31728	
937	0	31656	
938	0	31608	
939	0	31620	
940	0	31680	
941	0	31740	
942	0	31736	
943	0	31764	
944	0	31772	
945	0	31808	
946	0	31856	
947	0	31912	
948	0	31988	
949	0	32028	
950	0	32074	
951	0	32100	
952	0	32088	
953	0	32064	
954	0	32072	
955	0	32104	
956	0	32140	
957	0	32168	
958	0	32156	
959	0	32120	
960	0	32064	
961	0	32008	
962	0	31968	
963	0	31944	
964	0	31984	
965	0	32048	
966	0	32108	
967	0	32148	
968	0	32172	
969	0	32220	
970	0	32312	
971	0	32392	
972	0	32456	
973	0	32520	
974	0	32544	
975	0	32556	
976	0	32512	
977	0	32424	
978	0	32324	
979	0	32256	
980	0	32212	
981	0	32180	
982	0	32152	
983	0	32176	
984	0	32232	
985	0	32288	
986	0	32304	
987	0	32360	
988	0	32464	
989	0	32596	
990	0	32720	
991	0	32888	
992	0	33032	
993	0	33168	
994	0	33272	
995	0	33360	
996	0	33472	
997	0	33556	
998	0	33608	
999	0	33680	
1000	0	33752	
1001	0	33828	
1002	0	33896	
1003	0	33988	
1004	0	34072	
1005	0	34116	
1006	0	34124	
1007	0	34092	
1008	0	34044	
1009	0	33960	
1010	0	33848	
1011	0	33744	
1012	0	33640	
1013	0	33584	
1014	0	33568	
1015	0	33522	
1016	0	33450	
1017	0	33344	
1018	0	33250	
1019	0	33180	
1020	0	33160	
1021	0	33144	
1022	0	33096	
1023	0	33024	
1024	0	32964	
1025	0	32876	
1026	0	32816	
1027	0	32760	
1028	0	32724	
1029	0	32736	
1030	0	32708	
1031	0	32656	
1032	0	32656	
1033	0	32652	
1034	0	32698	
1035	0	32732	
1036	0	32732	
1037	0	32704	
1038	0	32628	
1039	0	32556	
1040	0	32508	
1041	0	32448	
1042	0	32430	
1043	0	32440	
1044	0	32424	
1045	0	32380	
1046	0	32304	
1047	0	32250	
1048	0	32188	
1049	0	32144	
1050	0	32108	
1051	0	32088	
1052	0	32008	
1053	0	31980	
1054	0	31964	
1055	0	31948	
1056	0	31948	
1057	0	31940	
1058	0	31940	
1059	0	31952	
1060	0	31976	
1061	0	31968	
1062	0	31992	
1063	0	32016	
1064	0	32086	
1065	0	32172	
1066	0	32216	
1067	0	32236	
1068	0	32240	
1069	0	32320	
1070	0	32344	
1071	0	32310	
1072	0	32228	
1073	0	32196	
1074	0	32170	
1075	0	32132	
1076	0	32096	
1077	0	32084	
1078	0	32076	
1079	0	32064	
1080	0	32080	
1081	0	32084	
1082	0	32128	
1083	0	32160	
1084	0	32180	
1085	0	32208	
1086	0	32216	
1087	0	32276	
1088	0	32284	
1089	0	32306	
1090	0	32314	
1091	0	32328	
1092	0	32296	
1093	0	32298	
1094	0	32288	
1095	0	32216	
1096	0	32144	
1097	0	32092	
1098	0	32044	
1099	0	32016	
1100	0	32052	
1101	0	32080	
1102	0	32076	
1103	0	32068	
1104	0	32068	
1105	0	32072	
1106	0	32108	
1107	0	32148	
1108	0	32196	
1109	0	32240	
1110	0	32304	
1111	0	32328	
1112	0	32332	
1113	0	32324	
1114	0	32292	
1115	0	32262	
1116	0	32264	
1117	0	32276	
1118	0	32304	
1119	0	32336	
1120	0	32348	
1121	0	32344	
1122	0	32332	
1123	0	32324	
1124	0	32364	
1125	0	32436	
1126	0	32504	
1127	0	32552	
1128	0	32580	
1129	0	32580	
1130	0	32564	
1131	0	32560	
1132	0	32528	
1133	0	32512	
1134	0	32562	
1135	0	32672	
1136	0	32868	
1137	0	33192	
1138	0	33540	
1139	0	33916	
1140	0	34284	
1141	0	34588	
1142	0	34764	
1143	0	34784	
1144	0	34816	
1145	0	34972	
1146	0	35296	
1147	0	35812	
1148	0	36484	
1149	0	37296	
1150	0	38280	
1151	0	39488	
1152	0	40860	
1153	0	42128	
1154	0	43408	
1155	0	44776	
1156	0	46256	
1157	0	47804	
1158	0	49232	
1159	0	50448	
1160	0	51436	
1161	0	52248	
1162	0	53064	
1163	0	53908	
1164	0	54656	
1165	0	54976	
1166	0	54508	
1167	0	52912	
1168	0	50404	
1169	0	47344	
1170	0	44016	
1171	0	40652	
1172	0	37528	
1173	0	34912	
1174	0	32968	
1175	0	31668	
1176	0	30780	
1177	0	30200	
1178	0	29888	
1179	0	29714	
1180	0	29656	
1181	0	29698	
1182	0	29856	
1183	0	30082	
1184	0	30336	
1185	0	30600	
1186	0	30880	
1187	0	31144	
1188	0	31328	
1189	0	31484	
1190	0	31672	
1191	0	31832	
1192	0	31960	
1193	0	32032	
1194	0	32064	
1195	0	32104	
1196	0	32133	
1197	0	32128	
1198	0	32108	
1199	0	32090	
1200	0	32044	
1201	0	31960	
1202	0	31878	
1203	0	31804	
1204	0	31780	
1205	0	31744	
1206	0	31732	
1207	0	31744	
1208	0	31732	
1209	0	31728	
1210	0	31744	
1211	0	31720	
1212	0	31684	
1213	0	31668	
1214	0	31664	
1215	0	31692	
1216	0	31712	
1217	0	31744	
1218	0	31760	
1219	0	31768	
1220	0	31768	
1221	0	31768	
1222	0	31778	
1223	0	31780	
1224	0	31772	
1225	0	31812	
1226	0	31844	
1227	0	31860	
1228	0	31840	
1229	0	31832	
1230	0	31856	
1231	0	31900	
1232	0	31978	
1233	0	32012	
1234	0	32080	
1235	0	32128	
1236	0	32152	
1237	0	32172	
1238	0	32156	
1239	0	32156	
1240	0	32180	
1241	0	32160	
1242	0	32112	
1243	0	32084	
1244	0	32084	
1245	0	32100	
1246	0	32116	
1247	0	32136	
1248	0	32144	
1249	0	32128	
1250	0	32136	
1251	0	32136	
1252	0	32164	
1253	0	32164	
1254	0	32196	
1255	0	32208	
1256	0	32218	
1257	0	32216	
1258	0	32228	
1259	0	32242	
1260	0	32308	
1261	0	32336	
1262	0	32372	
1263	0	32420	
1264	0	32458	
1265	0	32528	
1266	0	32596	
1267	0	32624	
1268	0	32620	
1269	0	32648	
1270	0	32688	
1271	0	32728	
1272	0	32748	
1273	0	32772	
1274	0	32776	
1275	0	32764	
1276	0	32776	
1277	0	32808	
1278	0	32848	
1279	0	32860	
1280	0	32860	
1281	0	32860	
1282	0	32848	
1283	0	32792	
1284	0	32748	
1285	0	32748	
1286	0	32764	
1287	0	32792	
1288	0	32816	
1289	0	32852	
1290	0	32896	
1291	0	32940	
1292	0	32980	
1293	0	33044	
1294	0	33096	
1295	0	33156	
1296	0	33192	
1297	0	33208	
1298	0	33224	
1299	0	33226	
1300	0	33244	
1301	0	33244	
1302	0	33236	
1303	0	33236	
1304	0	33240	
1305	0	33246	
1306	0	33280	
1307	0	33332	
1308	0	33368	
1309	0	33380	
1310	0	33420	
1311	0	33448	
1312	0	33488	
1313	0	33500	
1314	0	33528	
1315	0	33528	
1316	0	33524	
1317	0	33516	
1318	0	33548	
1319	0	33568	
1320	0	33592	
1321	0	33608	
1322	0	33616	
1323	0	33624	
1324	0	33620	
1325	0	33624	
1326	0	33640	
1327	0	33664	
1328	0	33716	
1329	0	33752	
1330	0	33776	
1331	0	33764	
1332	0	33776	
1333	0	33804	
1334	0	33824	
1335	0	33816	
1336	0	33796	
1337	0	33768	
1338	0	33760	
1339	0	33776	
1340	0	33808	
1341	0	33824	
1342	0	33828	
1343	0	33816	
1344	0	33832	
1345	0	33840	
1346	0	33844	
1347	0	33840	
1348	0	33848	
1349	0	33876	
1350	0	33940	
1351	0	33968	
1352	0	33996	
1353	0	34024	
1354	0	34020	
1355	0	34032	
1356	0	34024	
1357	0	34052	
1358	0	34032	
1359	0	34040	
1360	0	34050	
1361	0	34064	
1362	0	34064	
1363	0	34084	
1364	0	34092	
1365	0	34076	
1366	0	34104	
1367	0	34108	
1368	0	34084	
1369	0	34096	
1370	0	34096	
1371	0	34084	
1372	0	34112	
1373	0	34148	
1374	0	34144	
1375	0	34120	
1376	0	34092	
1377	0	34064	
1378	0	34068	
1379	0	34048	
1380	0	34036	
1381	0	34016	
1382	0	34008	
1383	0	34000	
1384	0	34016	
1385	0	34008	
1386	0	34004	
1387	0	33984	
1388	0	33988	
1389	0	34016	
1390	0	34024	
1391	0	34028	
1392	0	34040	
1393	0	34060	
1394	0	34034	
1395	0	34040	
1396	0	34056	
1397	0	34086	
1398	0	34080	
1399	0	34064	
1400	0	34048	
1401	0	34076	
1402	0	34104	
1403	0	34116	
1404	0	34164	
1405	0	34192	
1406	0	34192	
1407	0	34180	
1408	0	34164	
1409	0	34176	
1410	0	34192	
1411	0	34184	
1412	0	34192	
1413	0	34180	
1414	0	34160	
1415	0	34152	
1416	0	34112	
1417	0	34066	
1418	0	34022	
1419	0	34008	
1420	0	34004	
1421	0	33968	
1422	0	33940	
1423	0	33932	
1424	0	33904	
1425	0	33912	
1426	0	33912	
1427	0	33928	
1428	0	33956	
1429	0	33936	
1430	0	33920	
1431	0	33886	
1432	0	33856	
1433	0	33824	
1434	0	33728	
1435	0	33696	
1436	0	33668	
1437	0	33600	
1438	0	33504	
1439	0	33412	
1440	0	33328	
1441	0	33232	
1442	0	33116	
1443	0	33008	
1444	0	32912	
1445	0	32812	
1446	0	32744	
1447	0	32716	
1448	0	32704	
1449	0	32642	
1450	0	32584	
1451	0	32512	
1452	0	32460	
1453	0	32408	
1454	0	32324	
1455	0	32256	
1456	0	32168	
1457	0	32080	
1458	0	32032	
1459	0	31992	
1460	0	31944	
1461	0	31840	
1462	0	31740	
1463	0	31676	
1464	0	31626	
1465	0	31584	
1466	0	31552	
1467	0	31508	
1468	0	31436	
1469	0	31418	
1470	0	31408	
1471	0	31368	
1472	0	31354	
1473	0	31344	
1474	0	31312	
1475	0	31284	
1476	0	31264	
1477	0	31208	
1478	0	31188	
1479	0	31136	
1480	0	31068	
1481	0	30992	
1482	0	30930	
1483	0	30860	
1484	0	30848	
1485	0	30844	
1486	0	30856	
1487	0	30872	
1488	0	30872	
1489	0	30896	
1490	0	30924	
1491	0	30938	
1492	0	30988	
1493	0	31008	
1494	0	31052	
1495	0	31088	
1496	0	31088	
1497	0	31080	
1498	0	31080	
1499	0	31068	
1500	0	31080	
1501	0	31084	
1502	0	31088	
1503	0	31088	
1504	0	31080	
1505	0	31120	
1506	0	31156	
1507	0	31216	
1508	0	31220	
1509	0	31224	
1510	0	31244	
1511	0	31272	
1512	0	31276	
1513	0	31308	
1514	0	31360	
1515	0	31426	
1516	0	31500	
1517	0	31536	
1518	0	31570	
1519	0	31560	
1520	0	31572	
1521	0	31564	
1522	0	31528	
1523	0	31520	
1524	0	31536	
1525	0	31572	
1526	0	31592	
1527	0	31596	
1528	0	31648	
1529	0	31680	
1530	0	31688	
1531	0	31720	
1532	0	31768	
1533	0	31832	
1534	0	31860	
1535	0	31840	
1536	0	31796	
1537	0	31756	
1538	0	31712	
1539	0	31708	
1540	0	31732	
1541	0	31720	
1542	0	31706	
1543	0	31716	
1544	0	31750	
1545	0	31772	
1546	0	31774	
1547	0	31804	
1548	0	31852	
1549	0	31886	
1550	0	31900	
1551	0	31930	
1552	0	31968	
1553	0	32008	
1554	0	32036	
1555	0	31992	
1556	0	31944	
1557	0	31924	
1558	0	31940	
1559	0	31968	
1560	0	31956	
1561	0	31968	
1562	0	31960	
1563	0	31964	
1564	0	31960	
1565	0	31980	
1566	0	31992	
1567	0	31968	
1568	0	31934	
1569	0	31948	
1570	0	31954	
1571	0	31960	
1572	0	31940	
1573	0	31896	
1574	0	31852	
1575	0	31828	
1576	0	31796	
1577	0	31780	
1578	0	31770	
1579	0	31738	
1580	0	31680	
1581	0	31628	
1582	0	31612	
1583	0	31616	
1584	0	31592	
1585	0	31624	
1586	0	31684	
1587	0	31724	
1588	0	31744	
1589	0	31712	
1590	0	31712	
1591	0	31704	
1592	0	31740	
1593	0	31778	
1594	0	31792	
1595	0	31804	
1596	0	31816	
1597	0	31826	
1598	0	31808	
1599	0	31788	
1600	0	31768	
1601	0	31748	
1602	0	31736	
1603	0	31720	
1604	0	31688	
1605	0	31688	
1606	0	31688	
1607	0	31664	
1608	0	31648	
1609	0	31652	
1610	0	31652	
1611	0	31656	
1612	0	31680	
1613	0	31684	
1614	0	31704	
1615	0	31696	
1616	0	31684	
1617	0	31688	
1618	0	31680	
1619	0	31668	
1620	0	31656	
1621	0	31624	
1622	0	31596	
1623	0	31580	
1624	0	31580	
1625	0	31600	
1626	0	31620	
1627	0	31624	
1628	0	31620	
1629	0	31624	
1630	0	31652	
1631	0	31712	
1632	0	31736	
1633	0	31738	
1634	0	31744	
1635	0	31776	
1636	0	31776	
1637	0	31768	
1638	0	31784	
1639	0	31764	
1640	0	31768	
1641	0	31778	
1642	0	31802	
1643	0	31832	
1644	0	31864	
1645	0	31882	
1646	0	31872	
1647	0	31852	
1648	0	31864	
1649	0	31896	
1650	0	31928	
1651	0	31940	
1652	0	31940	
1653	0	31924	
1654	0	31888	
1655	0	31860	
1656	0	31816	
1657	0	31792	
1658	0	31800	
1659	0	31824	
1660	0	31840	
1661	0	31816	
1662	0	31778	
1663	0	31778	
1664	0	31808	
1665	0	31860	
1666	0	31888	
1667	0	31900	
1668	0	31908	
1669	0	31904	
1670	0	31902	
1671	0	31920	
1672	0	31916	
1673	0	31928	
1674	0	31956	
1675	0	31960	
1676	0	31976	
1677	0	31976	
1678	0	31960	
1679	0	31980	
1680	0	31978	
1681	0	31972	
1682	0	31944	
1683	0	31928	
1684	0	31912	
1685	0	31920	
1686	0	31916	
1687	0	31938	
1688	0	31956	
1689	0	31976	
1690	0	31970	
1691	0	31972	
1692	0	31996	
1693	0	32018	
1694	0	32020	
1695	0	32020	
1696	0	31992	
1697	0	31956	
1698	0	31944	
1699	0	31932	
1700	0	31908	
1701	0	31884	
1702	0	31856	
1703	0	31840	
1704	0	31848	
1705	0	31856	
1706	0	31876	
1707	0	31900	
1708	0	31928	
1709	0	31976	
1710	0	32032	
1711	0	32096	
1712	0	32140	
1713	0	32162	
1714	0	32176	
1715	0	32224	
1716	0	32272	
1717	0	32284	
1718	0	32300	
1719	0	32288	
1720	0	32276	
1721	0	32236	
1722	0	32208	
1723	0	32168	
1724	0	32144	
1725	0	32120	
1726	0	32138	
1727	0	32204	
1728	0	32264	
1729	0	32268	
1730	0	32268	
1731	0	32272	
1732	0	32296	
1733	0	32384	
1734	0	32480	
1735	0	32612	
1736	0	32740	
1737	0	32852	
1738	0	32916	
1739	0	32996	
1740	0	33104	
1741	0	33200	
1742	0	33304	
1743	0	33416	
1744	0	33468	
1745	0	33520	
1746	0	33616	
1747	0	33740	
1748	0	33820	
1749	0	33900	
1750	0	33956	
1751	0	33936	
1752	0	33932	
1753	0	33896	
1754	0	33752	
1755	0	33588	
1756	0	33472	
1757	0	33408	
1758	0	33320	
1759	0	33220	
1760	0	33124	
1761	0	33016	
1762	0	32888	
1763	0	32834	
1764	0	32776	
1765	0	32764	
1766	0	32752	
1767	0	32752	
1768	0	32744	
1769	0	32728	
1770	0	32704	
1771	0	32616	
1772	0	32572	
1773	0	32548	
1774	0	32512	
1775	0	32464	
1776	0	32424	
1777	0	32412	
1778	0	32432	
1779	0	32448	
1780	0	32442	
1781	0	32428	
1782	0	32384	
1783	0	32340	
1784	0	32308	
1785	0	32272	
1786	0	32192	
1787	0	32176	
1788	0	32212	
1789	0	32208	
1790	0	32212	
1791	0	32192	
1792	0	32132	
1793	0	32096	
1794	0	32040	
1795	0	31980	
1796	0	31928	
1797	0	31924	
1798	0	31904	
1799	0	31900	
1800	0	31884	
1801	0	31876	
1802	0	31840	
1803	0	31832	
1804	0	31828	
1805	0	31808	
1806	0	31748	
1807	0	31728	
1808	0	31750	
1809	0	31764	
1810	0	31776	
1811	0	31804	
1812	0	31820	
1813	0	31852	
1814	0	31888	
1815	0	31924	
1816	0	31936	
1817	0	31928	
1818	0	31936	
1819	0	31960	
1820	0	31928	
1821	0	31916	
1822	0	31936	
1823	0	31944	
1824	0	31976	
1825	0	31996	
1826	0	32032	
1827	0	32072	
1828	0	32104	
1829	0	32148	
1830	0	32164	
1831	0	32160	
1832	0	32188	
1833	0	32232	
1834	0	32296	
1835	0	32336	
1836	0	32340	
1837	0	32340	
1838	0	32368	
1839	0	32380	
1840	0	32364	
1841	0	32344	
1842	0	32346	
1843	0	32368	
1844	0	32418	
1845	0	32476	
1846	0	32532	
1847	0	32568	
1848	0	32628	
1849	0	32676	
1850	0	32732	
1851	0	32728	
1852	0	32706	
1853	0	32696	
1854	0	32672	
1855	0	32636	
1856	0	32616	
1857	0	32612	
1858	0	32596	
1859	0	32552	
1860	0	32510	
1861	0	32476	
1862	0	32464	
1863	0	32456	
1864	0	32472	
1865	0	32488	
1866	0	32548	
1867	0	32636	
1868	0	32704	
1869	0	32816	
1870	0	32882	
1871	0	32928	
1872	0	32992	
1873	0	33022	
1874	0	33036	
1875	0	33016	
1876	0	32944	
1877	0	32869	
1878	0	32840	
1879	0	32824	
1880	0	32860	
1881	0	33036	
1882	0	33312	
1883	0	33592	
1884	0	33940	
1885	0	34236	
1886	0	34468	
1887	0	34604	
1888	0	34608	
1889	0	34656	
1890	0	34836	
1891	0	35224	
1892	0	35808	
1893	0	36500	
1894	0	37356	
1895	0	38416	
1896	0	39660	
1897	0	40928	
1898	0	42172	
1899	0	43424	
1900	0	44824	
1901	0	46292	
1902	0	47760	
1903	0	49064	
1904	0	50152	
1905	0	51096	
1906	0	52004	
1907	0	53056	
1908	0	53988	
1909	0	54668	
1910	0	54860	
1911	0	54104	
1912	0	52304	
1913	0	49668	
1914	0	46584	
1915	0	43304	
1916	0	40020	
1917	0	37060	
1918	0	34744	
1919	0	33096	
1920	0	32000	
1921	0	31312	
1922	0	30932	
1923	0	30736	
1924	0	30640	
1925	0	30588	
1926	0	30532	
1927	0	30580	
1928	0	30696	
1929	0	30868	
1930	0	31080	
1931	0	31280	
1932	0	31472	
1933	0	31640	
1934	0	31744	
1935	0	31898	
1936	0	32048	
1937	0	32112	
1938	0	32180	
1939	0	32240	
1940	0	32238	
1941	0	32216	
1942	0	32176	
1943	0	32112	
1944	0	32032	
1945	0	31968	
1946	0	31940	
1947	0	31940	
1948	0	31956	
1949	0	31956	
1950	0	31944	
1951	0	31956	
1952	0	31922	
1953	0	31920	
1954	0	31920	
1955	0	31932	
1956	0	31904	
1957	0	31856	
1958	0	31808	
1959	0	31776	
1960	0	31764	
1961	0	31748	
1962	0	31728	
1963	0	31712	
1964	0	31732	
1965	0	31752	
1966	0	31744	
1967	0	31764	
1968	0	31780	
1969	0	31812	
1970	0	31864	
1971	0	31900	
1972	0	31968	
1973	0	32000	
1974	0	32024	
1975	0	32060	
1976	0	32092	
1977	0	32096	
1978	0	32097	
1979	0	32096	
1980	0	32124	
1981	0	32108	
1982	0	32100	
1983	0	32108	
1984	0	32136	
1985	0	32148	
1986	0	32192	
1987	0	32240	
1988	0	32248	
1989	0	32256	
1990	0	32320	
1991	0	32332	
1992	0	32374	
1993	0	32400	
1994	0	32436	
1995	0	32460	
1996	0	32472	
1997	0	32472	
1998	0	32472	
1999	0	32468	
2000	0	32456	
2001	0	32468	
2002	0	32484	
2003	0	32484	
2004	0	32464	
2005	0	32504	
2006	0	32524	
2007	0	32536	
2008	0	32572	
2009	0	32596	
2010	0	32644	
2011	0	32672	
2012	0	32704	
2013	0	32736	
2014	0	32712	
2015	0	32700	
2016	0	32660	
2017	0	32616	
2018	0	32584	
2019	0	32564	
2020	0	32528	
2021	0	32500	
2022	0	32520	
2023	0	32544	
2024	0	32560	
2025	0	32608	
2026	0	32640	
2027	0	32680	
2028	0	32720	
2029	0	32760	
2030	0	32772	
2031	0	32796	
2032	0	32798	
2033	0	32808	
2034	0	32852	
2035	0	32888	
2036	0	32892	
2037	0	32904	
2038	0	32908	
2039	0	32892	
2040	0	32888	
2041	0	32920	
2042	0	32956	
2043	0	32992	
2044	0	33020	
2045	0	33040	
2046	0	33048	
2047	0	33096	
2048	0	33144	
2049	0	33184	
2050	0	33220	
2051	0	33224	
2052	0	33240	
2053	0	33268	
2054	0	33260	
2055	0	33248	
2056	0	33244	
2057	0	33232	
2058	0	33232	
2059	0	33236	
2060	0	33232	
2061	0	33236	
2062	0	33232	
2063	0	33242	
2064	0	33292	
2065	0	33324	
2066	0	33348	
2067	0	33372	
2068	0	33392	
2069	0	33432	
2070	0	33464	
2071	0	33504	
2072	0	33512	
2073	0	33532	
2074	0	33564	
2075	0	33596	
2076	0	33600	
2077	0	33612	
2078	0	33648	
2079	0	33672	
2080	0	33648	
2081	0	33644	
2082	0	33644	
2083	0	33676	
2084	0	33708	
2085	0	33744	
2086	0	33756	
2087	0	33796	
2088	0	33824	
2089	0	33816	
2090	0	33844	
2091	0	33856	
2092	0	33860	
2093	0	33852	
2094	0	33848	
2095	0	33840	
2096	0	33844	
2097	0	33856	
2098	0	33844	
2099	0	33836	
2100	0	33806	
2101	0	33768	
2102	0	33760	
2103	0	33746	
2104	0	33760	
2105	0	33799	
2106	0	33816	
2107	0	33858	
2108	0	33896	
2109	0	33908	
2110	0	33912	
2111	0	33920	
2112	0	33904	
2113	0	33916	
2114	0	33900	
2115	0	33884	
2116	0	33892	
2117	0	33900	
2118	0	33876	
2119	0	33860	
2120	0	33848	
2121	0	33828	
2122	0	33793	
2123	0	33772	
2124	0	33760	
2125	0	33752	
2126	0	33760	
2127	0	33764	
2128	0	33752	
2129	0	33738	
2130	0	33740	
2131	0	33736	
2132	0	33752	
2133	0	33740	
2134	0	33736	
2135	0	33720	
2136	0	33712	
2137	0	33700	
2138	0	33688	
2139	0	33672	
2140	0	33670	
2141	0	33644	
2142	0	33640	
2143	0	33632	
2144	0	33612	
2145	0	33632	
2146	0	33656	
2147	0	33680	
2148	0	33700	
2149	0	33712	
2150	0	33724	
2151	0	33728	
2152	0	33684	
2153	0	33680	
2154	0	33666	
2155	0	33640	
2156	0	33612	
2157	0	33588	
2158	0	33572	
2159	0	33568	
2160	0	33552	
2161	0	33540	
2162	0	33532	
2163	0	33556	
2164	0	33572	
2165	0	33564	
2166	0	33572	
2167	0	33588	
2168	0	33592	
2169	0	33584	
2170	0	33592	
2171	0	33592	
2172	0	33562	
2173	0	33552	
2174	0	33500	
2175	0	33464	
2176	0	33428	
2177	0	33388	
2178	0	33344	
2179	0	33272	
2180	0	33184	
2181	0	33120	
2182	0	33076	
2183	0	33020	
2184	0	32984	
2185	0	32946	
2186	0	32908	
2187	0	32896	
2188	0	32868	
2189	0	32816	
2190	0	32760	
2191	0	32698	
2192	0	32640	
2193	0	32572	
2194	0	32492	
2195	0	32412	
2196	0	32332	
2197	0	32252	
2198	0	32176	
2199	0	32124	
2200	0	32072	
2201	0	32000	
2202	0	31900	
2203	0	31800	
2204	0	31742	
2205	0	31684	
2206	0	31616	
2207	0	31568	
2208	0	31528	
2209	0	31456	
2210	0	31400	
2211	0	31336	
2212	0	31282	
2213	0	31266	
2214	0	31216	
2215	0	31168	
2216	0	31100	
2217	0	31036	
2218	0	30980	
2219	0	30920	
2220	0	30844	
2221	0	30800	
2222	0	30768	
2223	0	30712	
2224	0	30680	
2225	0	30668	
2226	0	30664	
2227	0	30650	
2228	0	30656	
2229	0	30680	
2230	0	30688	
2231	0	30666	
2232	0	30660	
2233	0	30684	
2234	0	30704	
2235	0	30728	
2236	0	30736	
2237	0	30736	
2238	0	30748	
2239	0	30736	
2240	0	30736	
2241	0	30744	
2242	0	30744	
2243	0	30744	
2244	0	30768	
2245	0	30784	
2246	0	30820	
2247	0	30836	
2248	0	30872	
2249	0	30932	
2250	0	30996	
2251	0	31040	
2252	0	31060	
2253	0	31056	
2254	0	31052	
2255	0	31064	
2256	0	31088	
2257	0	31084	
2258	0	31072	
2259	0	31096	
2260	0	31104	
2261	0	31104	
2262	0	31092	
2263	0	31084	
2264	0	31088	
2265	0	31092	
2266	0	31106	
2267	0	31132	
2268	0	31168	
2269	0	31188	
2270	0	31224	
2271	0	31258	
2272	0	31264	
2273	0	31280	
2274	0	31304	
2275	0	31328	
2276	0	31340	
2277	0	31344	
2278	0	31356	
2279	0	31384	
2280	0	31384	
2281	0	31372	
2282	0	31392	
2283	0	31404	
2284	0	31420	
2285	0	31432	
2286	0	31456	
2287	0	31476	
2288	0	31516	
2289	0	31572	
2290	0	31584	
2291	0	31600	
2292	0	31636	
2293	0	31652	
2294	0	31668	
2295	0	31684	
2296	0	31684	
2297	0	31656	
2298	0	31652	
2299	0	31656	
2300	0	31650	
2301	0	31620	
2302	0	31596	
2303	0	31584	
2304	0	31616	
2305	0	31644	
2306	0	31664	
2307	0	31720	
2308	0	31768	
2309	0	31804	
2310	0	31820	
2311	0	31832	
2312	0	31832	
2313	0	31836	
2314	0	31816	
2315	0	31804	
2316	0	31784	
2317	0	31764	
2318	0	31748	
2319	0	31740	
2320	0	31712	
2321	0	31720	
2322	0	31696	
2323	0	31684	
2324	0	31684	
2325	0	31700	
2326	0	31692	
2327	0	31728	
2328	0	31728	
2329	0	31704	
2330	0	31696	
2331	0	31696	
2332	0	31696	
2333	0	31732	
2334	0	31760	
2335	0	31752	
2336	0	31726	
2337	0	31680	
2338	0	31680	
2339	0	31688	
2340	0	31682	
2341	0	31660	
2342	0	31620	
2343	0	31600	
2344	0	31624	
2345	0	31644	
2346	0	31628	
2347	0	31640	
2348	0	31632	
2349	0	31620	
2350	0	31640	
2351	0	31680	
2352	0	31680	
2353	0	31672	
2354	0	31668	
2355	0	31640	
2356	0	31624	
2357	0	31616	
2358	0	31612	
2359	0	31616	
2360	0	31604	
2361	0	31580	
2362	0	31552	
2363	0	31548	
2364	0	31584	
2365	0	31600	
2366	0	31624	
2367	0	31656	
2368	0	31680	
2369	0	31680	
2370	0	31684	
2371	0	31692	
2372	0	31696	
2373	0	31712	
2374	0	31728	
2375	0	31724	
2376	0	31728	
2377	0	31700	
2378	0	31712	
2379	0	31728	
2380	0	31696	
2381	0	31688	
2382	0	31680	
2383	0	31680	
2384	0	31672	
2385	0	31680	
2386	0	31704	
2387	0	31736	
2388	0	31784	
2389	0	31816	
2390	0	31848	
2391	0	31880	
2392	0	31896	
2393	0	31896	
2394	0	31872	
2395	0	31840	
2396	0	31840	
2397	0	31828	
2398	0	31804	
2399	0	31776	
2400	0	31762	
2401	0	31744	
2402	0	31724	
2403	0	31728	
2404	0	31744	
2405	0	31740	
2406	0	31736	
2407	0	31776	
2408	0	31794	
2409	0	31824	
2410	0	31860	
2411	0	31880	
2412	0	31888	
2413	0	31892	
2414	0	31884	
2415	0	31852	
2416	0	31860	
2417	0	31880	
2418	0	31876	
2419	0	31860	
2420	0	31856	
2421	0	31828	
2422	0	31824	
2423	0	31808	
2424	0	31824	
2425	0	31856	
2426	0	31880	
2427	0	31896	
2428	0	31900	
2429	0	31896	
2430	0	31893	
2431	0	31892	
2432	0	31888	
2433	0	31904	
2434	0	31908	
2435	0	31920	
2436	0	31928	
2437	0	31904	
2438	0	31868	
2439	0	31844	
2440	0	31840	
2441	0	31860	
2442	0	31848	
2443	0	31848	
2444	0	31850	
2445	0	31856	
2446	0	31894	
2447	0	31928	
2448	0	31946	
2449	0	31952	
2450	0	31968	
2451	0	31988	
2452	0	32016	
2453	0	32024	
2454	0	32048	
2455	0	32052	
2456	0	32048	
2457	0	32048	
2458	0	32032	
2459	0	32032	
2460	0	32060	
2461	0	32060	
2462	0	32052	
2463	0	32068	
2464	0	32090	
2465	0	32104	
2466	0	32120	
2467	0	32148	
2468	0	32152	
2469	0	32156	
2470	0	32172	
2471	0	32204	
2472	0	32200	
2473	0	32208	
2474	0	32212	
2475	0	32224	
2476	0	32212	
2477	0	32200	
2478	0	32196	
2479	0	32176	
2480	0	32180	
2481	0	32160	
2482	0	32180	
2483	0	32204	
2484	0	32220	
2485	0	32256	
2486	0	32288	
2487	0	32296	
2488	0	32314	
2489	0	32312	
2490	0	32340	
2491	0	32348	
2492	0	32376	
2493	0	32400	
2494	0	32416	
2495	0	32404	
2496	0	32404	
2497	0	32384	
2498	0	32380	
2499	0	32372	
2500	0	32368	
2501	0	32372	
2502	0	32352	
2503	0	32352	
2504	0	32384	
2505	0	32368	
2506	0	32380	
2507	0	32384	
2508	0	32396	
2509	0	32388	
2510	0	32412	
2511	0	32420	
2512	0	32440	
2513	0	32476	
2514	0	32500	
2515	0	32524	
2516	0	32528	
2517	0	32532	
2518	0	32528	
2519	0	32520	
2520	0	32512	
2521	0	32504	
2522	0	32512	
2523	0	32540	
2524	0	32552	
2525	0	32560	
2526	0	32588	
2527	0	32620	
2528	0	32644	
2529	0	32662	
2530	0	32664	
2531	0	32668	
2532	0	32680	
2533	0	32688	
2534	0	32704	
2535	0	32724	
2536	0	32760	
2537	0	32788	
2538	0	32844	
2539	0	32884	
2540	0	32916	
2541	0	32960	
2542	0	33004	
2543	0	33024	
2544	0	33056	
2545	0	33092	
2546	0	33104	
2547	0	33128	
2548	0	33128	
2549	0	33096	
2550	0	33070	
2551	0	33056	
2552	0	33048	
2553	0	33044	
2554	0	33024	
2555	0	33008	
2556	0	32996	
2557	0	32984	
2558	0	32940	
2559	0	32920	
2560	0	32928	
2561	0	32974	
2562	0	33056	
2563	0	33192	
2564	0	33320	
2565	0	33428	
2566	0	33520	
2567	0	33632	
2568	0	33740	
2569	0	33828	
2570	0	33968	
2571	0	34084	
2572	0	34168	
2573	0	34240	
2574	0	34276	
2575	0	34328	
2576	0	34376	
2577	0	34384	
2578	0	34348	
2579	0	34280	
2580	0	34216	
2581	0	34108	
2582	0	33972	
2583	0	33864	
2584	0	33760	
2585	0	33688	
2586	0	33632	
2587	0	33548	
2588	0	33480	
2589	0	33384	
2590	0	33316	
2591	0	33260	
2592	0	33224	
2593	0	33160	
2594	0	33124	
2595	0	33072	
2596	0	33014	
2597	0	32952	
2598	0	32948	
2599	0	32940	
2600	0	32916	
2601	0	32860	
2602	0	32828	
2603	0	32792	
2604	0	32760	
2605	0	32758	
2606	0	32776	
2607	0	32816	
2608	0	32876	
2609	0	32920	
2610	0	32932	
2611	0	32928	
2612	0	32920	
2613	0	32924	
2614	0	32904	
2615	0	32848	
2616	0	32778	
2617	0	32728	
2618	0	32688	
2619	0	32640	
2620	0	32580	
2621	0	32512	
2622	0	32448	
2623	0	32392	
2624	0	32368	
2625	0	32336	
2626	0	32288	
2627	0	32272	
2628	0	32266	
2629	0	32252	
2630	0	32248	
2631	0	32256	
2632	0	32252	
2633	0	32256	
2634	0	32232	
2635	0	32184	
2636	0	32156	
2637	0	32120	
2638	0	32080	
2639	0	32050	
2640	0	32042	
2641	0	32032	
2642	0	32028	
2643	0	32016	
2644	0	32040	
2645	0	32056	
2646	0	32068	
2647	0	32080	
2648	0	32112	
2649	0	32132	
2650	0	32148	
2651	0	32168	
2652	0	32208	
2653	0	32240	
2654	0	32266	
2655	0	32252	
2656	0	32236	
2657	0	32224	
2658	0	32212	
2659	0	32216	
2660	0	32200	
2661	0	32186	
2662	0	32196	
2663	0	32224	
2664	0	32268	
2665	0	32288	
2666	0	32328	
2667	0	32352	
2668	0	32392	
2669	0	32416	
2670	0	32432	
2671	0	32480	
2672	0	32536	
2673	0	32588	
2674	0	32632	
2675	0	32640	
2676	0	32656	
2677	0	32672	
2678	0	32656	
2679	0	32668	
2680	0	32656	
2681	0	32680	
2682	0	32692	
2683	0	32704	
2684	0	32704	
2685	0	32700	
2686	0	32720	
2687	0	32760	
2688	0	32756	
2689	0	32760	
2690	0	32768	
2691	0	32764	
2692	0	32760	
2693	0	32776	
2694	0	32800	
2695	0	32860	
2696	0	32908	
2697	0	32936	
2698	0	32972	
2699	0	33012	
2700	0	33012	
2701	0	32992	
2702	0	32904	
2703	0	32832	
2704	0	32776	
2705	0	32728	
2706	0	32720	
2707	0	32856	
2708	0	33144	
2709	0	33436	
2710	0	33740	
2711	0	34040	
2712	0	34292	
2713	0	34464	
2714	0	34552	
2715	0	34594	
2716	0	34720	
2717	0	34968	
2718	0	35408	
2719	0	35944	
2720	0	36664	
2721	0	37504	
2722	0	38544	
2723	0	39680	
2724	0	40800	
2725	0	41912	
2726	0	43128	
2727	0	44432	
2728	0	45752	
2729	0	47016	
2730	0	48064	
2731	0	48980	
2732	0	49784	
2733	0	50704	
2734	0	51684	
2735	0	52496	
2736	0	53040	
2737	0	52852	
2738	0	51608	
2739	0	49360	
2740	0	46554	
2741	0	43492	
2742	0	40380	
2743	0	37468	
2744	0	34996	
2745	0	33204	
2746	0	32044	
2747	0	31336	
2748	0	30952	
2749	0	30820	
2750	0	30764	
2751	0	30732	
2752	0	30728	
2753	0	30732	
2754	0	30784	
2755	0	30872	
2756	0	30976	
2757	0	31096	
2758	0	31212	
2759	0	31320	
2760	0	31392	
2761	0	31496	
2762	0	31620	
2763	0	31724	
2764	0	31812	
2765	0	31888	
2766	0	31940	
2767	0	31952	
2768	0	31936	
2769	0	31908	
2770	0	31868	
2771	0	31832	
2772	0	31792	
2773	0	31728	
2774	0	31672	
2775	0	31664	
2776	0	31632	
2777	0	31588	
2778	0	31550	
2779	0	31522	
2780	0	31476	
2781	0	31432	
2782	0	31388	
2783	0	31388	
2784	0	31376	
2785	0	31380	
2786	0	31396	
2787	0	31412	
2788	0	31428	
2789	0	31440	
2790	0	31444	
2791	0	31440	
2792	0	31468	
2793	0	31504	
2794	0	31520	
2795	0	31536	
2796	0	31538	
2797	0	31552	
2798	0	31560	
2799	0	31540	
2800	0	31536	
2801	0	31514	
2802	0	31536	
2803	0	31552	
2804	0	31566	
2805	0	31596	
2806	0	31652	
2807	0	31712	
2808	0	31732	
2809	0	31760	
2810	0	31802	
2811	0	31800	
2812	0	31808	
2813	0	31808	
2814	0	31816	
2815	0	31840	
2816	0	31852	
2817	0	31840	
2818	0	31824	
2819	0	31824	
2820	0	31832	
2821	0	31848	
2822	0	31842	
2823	0	31820	
2824	0	31846	
2825	0	31856	
2826	0	31872	
2827	0	31916	
2828	0	31936	
2829	0	31960	
2830	0	31984	
2831	0	32008	
2832	0	32024	
2833	0	32032	
2834	0	32032	
2835	0	32034	
2836	0	32048	
2837	0	32044	
2838	0	32036	
2839	0	32036	
2840	0	32020	
2841	0	32010	
2842	0	32008	
2843	0	31996	
2844	0	31992	
2845	0	32000	
2846	0	32000	
2847	0	32028	
2848	0	32052	
2849	0	32088	
2850	0	32116	
2851	0	32140	
2852	0	32160	
2853	0	32196	
2854	0	32182	
2855	0	32168	
2856	0	32172	
2857	0	32148	
2858	0	32148	
2859	0	32168	
2860	0	32196	
2861	0	32192	
2862	0	32204	
2863	0	32220	
2864	0	32228	
2865	0	32248	
2866	0	32292	
2867	0	32328	
2868	0	32372	
2869	0	32392	
2870	0	32428	
2871	0	32460	
2872	0	32500	
2873	0	32524	
2874	0	32520	
2875	0	32504	
2876	0	32496	
2877	0	32504	
2878	0	32512	
2879	0	32516	
2880	0	32532	
2881	0	32520	
2882	0	32524	
2883	0	32548	
2884	0	32560	
2885	0	32580	
2886	0	32620	
2887	0	32644	
2888	0	32656	
2889	0	32676	
2890	0	32708	
2891	0	32746	
2892	0	32760	
2893	0	32788	
2894	0	32800	
2895	0	32810	
2896	0	32824	
2897	0	32826	
2898	0	32848	
2899	0	32848	
2900	0	32844	
2901	0	32844	
2902	0	32864	
2903	0	32876	
2904	0	32906	
2905	0	32944	
2906	0	32992	
2907	0	33012	
2908	0	33034	
2909	0	33066	
2910	0	33084	
2911	0	33116	
2912	0	33168	
2913	0	33184	
2914	0	33192	
2915	0	33192	
2916	0	33200	
2917	0	33216	
2918	0	33220	
2919	0	33224	
2920	0	33258	
2921	0	33260	
2922	0	33264	
2923	0	33284	
2924	0	33288	
2925	0	33304	
2926	0	33300	
2927	0	33316	
2928	0	33336	
2929	0	33360	
2930	0	33380	
2931	0	33393	
2932	0	33424	
2933	0	33456	
2934	0	33460	
2935	0	33472	
2936	0	33460	
2937	0	33444	
2938	0	33428	
2939	0	33416	
2940	0	33440	
2941	0	33440	
2942	0	33440	
2943	0	33436	
2944	0	33438	
2945	0	33432	
2946	0	33448	
2947	0	33456	
2948	0	33460	
2949	0	33462	
2950	0	33498	
2951	0	33504	
2952	0	33496	
2953	0	33504	
2954	0	33496	
2955	0	33484	
2956	0	33448	
2957	0	33448	
2958	0	33432	
2959	0	33412	
2960	0	33392	
2961	0	33380	
2962	0	33360	
2963	0	33340	
2964	0	33328	
2965	0	33344	
2966	0	33360	
2967	0	33368	
2968	0	33352	
2969	0	33352	
2970	0	33372	
2971	0	33364	
2972	0	33364	
2973	0	33360	
2974	0	33344	
2975	0	33344	
2976	0	33332	
2977	0	33340	
2978	0	33336	
2979	0	33328	
2980	0	33296	
2981	0	33280	
2982	0	33242	
2983	0	33216	
2984	0	33208	
2985	0	33220	
2986	0	33240	
2987	0	33256	
2988	0	33276	
2989	0	33292	
2990	0	33312	
2991	0	33320	
2992	0	33332	
2993	0	33312	
2994	0	33304	
2995	0	33304	
2996	0	33304	
2997	0	33296	
2998	0	33280	
2999	0	33264	
3000	0	33248	
3001	0	33192	
3002	0	33180	
3003	0	33168	
3004	0	33144	
3005	0	33144	
3006	0	33120	
3007	0	33128	
3008	0	33084	
3009	0	33064	
3010	0	33058	
3011	0	33026	
3012	0	33000	
3013	0	32988	
3014	0	32968	
3015	0	32936	
3016	0	32868	
3017	0	32834	
3018	0	32800	
3019	0	32732	
3020	0	32652	
3021	0	32584	
3022	0	32516	
3023	0	32464	
3024	0	32424	
3025	0	32388	
3026	0	32336	
3027	0	32316	
3028	0	32248	
3029	0	32196	
3030	0	32128	
3031	0	32068	
3032	0	32000	
3033	0	31936	
3034	0	31876	
3035	0	31816	
3036	0	31768	
3037	0	31700	
3038	0	31640	
3039	0	31604	
3040	0	31536	
3041	0	31488	
3042	0	31448	
3043	0	31392	
3044	0	31328	
3045	0	31296	
3046	0	31284	
3047	0	31228	
3048	0	31188	
3049	0	31136	
3050	0	31084	
3051	0	31052	
3052	0	31028	
3053	0	31008	
3054	0	30992	
3055	0	30988	
3056	0	30968	
3057	0	30956	
3058	0	30952	
3059	0	30904	
3060	0	30848	
3061	0	30812	
3062	0	30800	
3063	0	30800	
3064	0	30784	
3065	0	30772	
3066	0	30776	
3067	0	30812	
3068	0	30840	
3069	0	30844	
3070	0	30856	
3071	0	30860	
3072	0	30876	
3073	0	30880	
3074	0	30888	
3075	0	30892	
3076	0	30884	
3077	0	30880	
3078	0	30872	
3079	0	30884	
3080	0	30908	
3081	0	30912	
3082	0	30932	
3083	0	30904	
3084	0	30928	
3085	0	30944	
3086	0	30976	
3087	0	30980	
3088	0	31000	
3089	0	31028	
3090	0	31044	
3091	0	31072	
3092	0	31116	
3093	0	31144	
3094	0	31168	
3095	0	31180	
3096	0	31184	
3097	0	31156	
3098	0	31160	
3099	0	31164	
3100	0	31148	
3101	0	31136	
3102	0	31132	
3103	0	31144	
3104	0	31184	
3105	0	31220	
3106	0	31246	
3107	0	31274	
3108	0	31292	
3109	0	31328	
3110	0	31364	
3111	0	31396	
3112	0	31406	
3113	0	31392	
3114	0	31384	
3115	0	31376	
3116	0	31388	
3117	0	31396	
3118	0	31400	
3119	0	31396	
3120	0	31418	
3121	0	31408	
3122	0	31416	
3123	0	31412	
3124	0	31416	
3125	0	31432	
3126	0	31440	
3127	0	31468	
3128	0	31468	
3129	0	31480	
3130	0	31492	
3131	0	31512	
3132	0	31552	
3133	0	31576	
3134	0	31580	
3135	0	31580	
3136	0	31568	
3137	0	31544	
3138	0	31536	
3139	0	31520	
3140	0	31520	
3141	0	31520	
3142	0	31512	
3143	0	31524	
3144	0	31512	
3145	0	31496	
3146	0	31500	
3147	0	31528	
3148	0	31552	
3149	0	31548	
3150	0	31552	
3151	0	31568	
3152	0	31570	
3153	0	31588	
3154	0	31584	
3155	0	31564	
3156	0	31528	
3157	0	31522	
3158	0	31528	
3159	0	31520	
3160	0	31516	
3161	0	31520	
3162	0	31492	
3163	0	31470	
3164	0	31482	
3165	0	31484	
3166	0	31512	
3167	0	31552	
3168	0	31560	
3169	0	31552	
3170	0	31588	
3171	0	31608	
3172	0	31628	
3173	0	31620	
3174	0	31648	
3175	0	31628	
3176	0	31616	
3177	0	31616	
3178	0	31616	
3179	0	31608	
3180	0	31608	
3181	0	31616	
3182	0	31636	
3183	0	31600	
3184	0	31588	
3185	0	31616	
3186	0	31624	
3187	0	31624	
3188	0	31618	
3189	0	31624	
3190	0	31644	
3191	0	31660	
3192	0	31700	
3193	0	31732	
3194	0	31744	
3195	0	31724	
3196	0	31720	
3197	0	31728	
3198	0	31724	
3199	0	31720	
3200	0	31720	
3201	0	31720	
3202	0	31720	
3203	0	31720	
3204	0	31736	
3205	0	31768	
3206	0	31820	
3207	0	31856	
3208	0	31864	
3209	0	31892	
3210	0	31928	
3211	0	31940	
3212	0	31948	
3213	0	31920	
3214	0	31896	
3215	0	31868	
3216	0	31840	
3217	0	31824	
3218	0	31772	
3219	0	31768	
3220	0	31736	
3221	0	31698	
3222	0	31660	
3223	0	31652	
3224	0	31648	
3225	0	31620	
3226	0	31640	
3227	0	31692	
3228	0	31716	
3229	0	31716	
3230	0	31716	
3231	0	31738	
3232	0	31740	
3233	0	31752	
3234	0	31744	
3235	0	31736	
3236	0	31716	
3237	0	31728	
3238	0	31778	
3239	0	31816	
3240	0	31848	
3241	0	31848	
3242	0	31848	
3243	0	31880	
3244	0	31900	
3245	0	31924	
3246	0	31936	
3247	0	31952	
3248	0	31984	
3249	0	32004	
3250	0	32008	
3251	0	32036	
3252	0	32036	
3253	0	32032	
3254	0	32056	
3255	0	32076	
3256	0	32096	
3257	0	32096	
3258	0	32096	
3259	0	32104	
3260	0	32140	
3261	0	32144	
3262	0	32152	
3263	0	32192	
3264	0	32178	
3265	0	32172	
3266	0	32140	
3267	0	32140	
3268	0	32148	
3269	0	32161	
3270	0	32180	
3271	0	32176	
3272	0	32184	
3273	0	32172	
3274	0	32188	
3275	0	32192	
3276	0	32180	
3277	0	32176	
3278	0	32176	
3279	0	32192	
3280	0	32192	
3281	0	32196	
3282	0	32176	
3283	0	32168	
3284	0	32160	
3285	0	32172	
3286	0	32210	
3287	0	32248	
3288	0	32272	
3289	0	32304	
3290	0	32304	
3291	0	32304	
3292	0	32328	
3293	0	32316	
3294	0	32332	
3295	0	32336	
3296	0	32340	
3297	0	32352	
3298	0	32352	
3299	0	32364	
3300	0	32376	
3301	0	32396	
3302	0	32404	
3303	0	32432	
3304	0	32426	
3305	0	32464	
3306	0	32488	
3307	0	32512	
3308	0	32480	
3309	0	32472	
3310	0	32436	
3311	0	32428	
3312	0	32412	
3313	0	32404	
3314	0	32392	
3315	0	32400	
3316	0	32416	
3317	0	32418	
3318	0	32420	
3319	0	32420	
3320	0	32396	
3321	0	32376	
3322	0	32360	
3323	0	32346	
3324	0	32372	
3325	0	32416	
3326	0	32432	
3327	0	32456	
3328	0	32480	
3329	0	32464	
3330	0	32436	
3331	0	32448	
3332	0	32440	
3333	0	32456	
3334	0	32452	
3335	0	32432	
3336	0	32424	
3337	0	32404	
3338	0	32408	
3339	0	32404	
3340	0	32384	
3341	0	32392	
3342	0	32416	
3343	0	32448	
3344	0	32456	
3345	0	32458	
3346	0	32488	
3347	0	32516	
3348	0	32526	
3349	0	32508	
3350	0	32492	
3351	0	32488	
3352	0	32496	
3353	0	32512	
3354	0	32504	
3355	0	32488	
3356	0	32460	
3357	0	32456	
3358	0	32480	
3359	0	32488	
3360	0	32482	
3361	0	32484	
3362	0	32476	
3363	0	32474	
3364	0	32468	
3365	0	32480	
3366	0	32506	
3367	0	32540	
3368	0	32560	
3369	0	32560	
3370	0	32592	
3371	0	32556	
3372	0	32540	
3373	0	32576	
3374	0	32600	
3375	0	32578	
3376	0	32532	
3377	0	32508	
3378	0	32504	
3379	0	32476	
3380	0	32480	
3381	0	32476	
3382	0	32448	
3383	0	32440	
3384	0	32432	
3385	0	32432	
3386	0	32452	
3387	0	32476	
3388	0	32484	
3389	0	32504	
3390	0	32492	
3391	0	32448	
3392	0	32440	
3393	0	32448	
3394	0	32440	
3395	0	32448	
3396	0	32424	
3397	0	32428	
3398	0	32452	
3399	0	32472	
3400	0	32480	
3401	0	32480	
3402	0	32496	
3403	0	32508	
3404	0	32528	
3405	0	32525	
3406	0	32560	
3407	0	32554	
3408	0	32552	
3409	0	32568	
3410	0	32588	
3411	0	32600	
3412	0	32626	
3413	0	32672	
3414	0	32728	
3415	0	32784	
3416	0	32836	
3417	0	32872	
3418	0	32880	
3419	0	32936	
3420	0	32996	
3421	0	33068	
3422	0	33120	
3423	0	33136	
3424	0	33154	
3425	0	33156	
3426	0	33148	
3427	0	33136	
3428	0	33124	
3429	0	33116	
3430	0	33080	
3431	0	33080	
3432	0	33088	
3433	0	33066	
3434	0	33056	
3435	0	33036	
3436	0	33034	
3437	0	33080	
3438	0	33148	
3439	0	33260	
3440	0	33356	
3441	0	33500	
3442	0	33660	
3443	0	33840	
3444	0	33976	
3445	0	34100	
3446	0	34208	
3447	0	34308	
3448	0	34384	
3449	0	34440	
3450	0	34492	
3451	0	34504	
3452	0	34492	
3453	0	34480	
3454	0	34500	
3455	0	34484	
3456	0	34408	
3457	0	34312	
3458	0	34248	
3459	0	34208	
3460	0	34148	
3461	0	34052	
3462	0	33964	
3463	0	33884	
3464	0	33816	
3465	0	33736	
3466	0	33668	
3467	0	33564	
3468	0	33448	
3469	0	33388	
3470	0	33360	
3471	0	33360	
3472	0	33360	
3473	0	33384	
3474	0	33356	
3475	0	33352	
3476	0	33324	
3477	0	33312	
3478	0	33312	
3479	0	33288	
3480	0	33268	
3481	0	33232	
3482	0	33176	
3483	0	33148	
3484	0	33120	
3485	0	33168	
3486	0	33232	
3487	0	33252	
3488	0	33216	
3489	0	33200	
3490	0	33184	
3491	0	33164	
3492	0	33164	
3493	0	33140	
3494	0	33080	
3495	0	33016	
3496	0	32942	
3497	0	32856	
3498	0	32784	
3499	0	32676	
3500	0	32568	
3501	0	32492	
3502	0	32436	
3503	0	32408	
3504	0	32388	
3505	0	32368	
3506	0	32388	
3507	0	32376	
3508	0	32380	
3509	0	32384	
3510	0	32424	
3511	0	32452	
3512	0	32456	
3513	0	32456	
3514	0	32464	
3515	0	32484	
3516	0	32492	
3517	0	32504	
3518	0	32500	
3519	0	32496	
3520	0	32504	
3521	0	32508	
3522	0	32508	
3523	0	32488	
3524	0	32484	
3525	0	32484	
3526	0	32488	
3527	0	32480	
3528	0	32464	
3529	0	32480	
3530	0	32524	
3531	0	32560	
3532	0	32636	
3533	0	32664	
3534	0	32654	
3535	0	32664	
3536	0	32672	
3537	0	32664	
3538	0	32672	
3539	0	32660	
3540	0	32648	
3541	0	32624	
3542	0	32636	
3543	0	32656	
3544	0	32648	
3545	0	32656	
3546	0	32660	
3547	0	32648	
3548	0	32604	
3549	0	32616	
3550	0	32624	
3551	0	32640	
3552	0	32680	
3553	0	32680	
3554	0	32656	
3555	0	32620	
3556	0	32600	
3557	0	32584	
3558	0	32588	
3559	0	32612	
3560	0	32636	
3561	0	32632	
3562	0	32648	
3563	0	32688	
3564	0	32724	
3565	0	32736	
3566	0	32720	
3567	0	32712	
3568	0	32756	
3569	0	32768	
3570	0	32808	
3571	0	32868	
3572	0	32912	
3573	0	32964	
3574	0	33004	
3575	0	33032	
3576	0	33030	
3577	0	33016	
3578	0	32988	
3579	0	32932	
3580	0	32852	
3581	0	32800	
3582	0	32796	
3583	0	32900	
3584	0	33148	
3585	0	33444	
3586	0	33752	
3587	0	34056	
3588	0	34316	
3589	0	34476	
3590	0	34552	
3591	0	34632	
3592	0	34816	
3593	0	35080	
3594	0	35492	
3595	0	36036	
3596	0	36728	
3597	0	37588	
3598	0	38632	
3599	0	39856	
3600	0	41048	
3601	0	42220	
3602	0	43456	
3603	0	44804	
3604	0	46240	
3605	0	47672	
3606	0	48944	
3607	0	50000	
3608	0	50950	
3609	0	51840	
3610	0	52764	
3611	0	53608	
3612	0	54168	
3613	0	54076	
3614	0	52980	
3615	0	50864	
3616	0	48060	
3617	0	44946	
3618	0	41724	
3619	0	38616	
3620	0	35876	
3621	0	33752	
3622	0	32346	
3623	0	31474	
3624	0	30968	
3625	0	30666	
3626	0	30492	
3627	0	30372	
3628	0	30324	
3629	0	30394	
3630	0	30560	
3631	0	30792	
3632	0	30984	
3633	0	31184	
3634	0	31380	
3635	0	31528	
3636	0	31664	
3637	0	31804	
3638	0	31942	
3639	0	32116	
3640	0	32228	
3641	0	32272	
3642	0	32286	
3643	0	32272	
3644	0	32248	
3645	0	32252	
3646	0	32236	
3647	0	32212	
3648	0	32144	
3649	0	32116	
3650	0	32096	
3651	0	32076	
3652	0	32048	
3653	0	31978	
3654	0	31932	
3655	0	31920	
3656	0	31896	
3657	0	31876	
3658	0	31836	
3659	0	31802	
3660	0	31810	
3661	0	31808	
3662	0	31756	
3663	0	31732	
3664	0	31696	
3665	0	31716	
3666	0	31752	
3667	0	31784	
3668	0	31820	
3669	0	31840	
3670	0	31868	
3671	0	31884	
3672	0	31872	
3673	0	31864	
3674	0	31860	
3675	0	31856	
3676	0	31864	
3677	0	31876	
3678	0	31884	
3679	0	31928	
3680	0	31984	
3681	0	32036	
3682	0	32084	
3683	0	32132	
3684	0	32144	
3685	0	32132	
3686	0	32156	
3687	0	32196	
3688	0	32224	
3689	0	32264	
3690	0	32296	
3691	0	32312	
3692	0	32336	
3693	0	32360	
3694	0	32388	
3695	0	32380	
3696	0	32360	
3697	0	32348	
3698	0	32332	
3699	0	32352	
3700	0	32396	
3701	0	32440	
3702	0	32460	
3703	0	32484	
3704	0	32484	
3705	0	32488	
3706	0	32472	
3707	0	32464	
3708	0	32432	
3709	0	32428	
3710	0	32464	
3711	0	32468	
3712	0	32512	
3713	0	32540	
3714	0	32528	
3715	0	32496	
3716	0	32516	
3717	0	32588	
3718	0	32636	
3719	0	32676	
3720	0	32692	
3721	0	32700	
3722	0	32724	
3723	0	32704	
3724	0	32700	
3725	0	32704	
3726	0	32692	
3727	0	32700	
3728	0	32700	
3729	0	32700	
3730	0	32712	
3731	0	32732	
3732	0	32752	
3733	0	32776	
3734	0	32776	
3735	0	32792	
3736	0	32836	
3737	0	32888	
3738	0	32920	
3739	0	32928	
3740	0	32926	
3741	0	32896	
3742	0	32884	
3743	0	32896	
3744	0	32908	
3745	0	32920	
3746	0	32956	
3747	0	33008	
3748	0	33064	
3749	0	33132	
3750	0	33188	
3751	0	33228	
3752	0	33276	
3753	0	33328	
3754	0	33376	
3755	0	33372	
3756	0	33352	
3757	0	33348	
3758	0	33364	
3759	0	33392	
3760	0	33400	
3761	0	33392	
3762	0	33376	
3763	0	33400	
3764	0	33442	
3765	0	33464	
3766	0	33452	
3767	0	33460	
3768	0	33436	
3769	0	33440	
3770	0	33440	
3771	0	33432	
3772	0	33460	
3773	0	33472	
3774	0	33488	
3775	0	33488	
3776	0	33464	
3777	0	33458	
3778	0	33492	
3779	0	33512	
3780	0	33492	
3781	0	33452	
3782	0	33448	
3783	0	33472	
3784	0	33516	
3785	0	33576	
3786	0	33616	
3787	0	33632	
3788	0	33652	
3789	0	33704	
3790	0	33732	
3791	0	33738	
3792	0	33752	
3793	0	33780	
3794	0	33824	
3795	0	33836	
3796	0	33832	
3797	0	33824	
3798	0	33816	
3799	0	33816	
3800	0	33772	
3801	0	33728	
3802	0	33668	
3803	0	33656	
3804	0	33628	
3805	0	33684	
3806	0	33740	
3807	0	33800	
3808	0	33808	
3809	0	33808	
3810	0	33816	
3811	0	33828	
3812	0	33832	
3813	0	33820	
3814	0	33794	
3815	0	33784	
3816	0	33776	
3817	0	33758	
3818	0	33772	
3819	0	33760	
3820	0	33736	
3821	0	33724	
3822	0	33688	
3823	0	33664	
3824	0	33652	
3825	0	33604	
3826	0	33584	
3827	0	33562	
3828	0	33564	
3829	0	33600	
3830	0	33644	
3831	0	33672	
3832	0	33684	
3833	0	33744	
3834	0	33832	
3835	0	33852	
3836	0	33804	
3837	0	33796	
3838	0	33804	
3839	0	33808	
3840	0	33760	
3841	0	33728	
3842	0	33688	
3843	0	33624	
3844	0	33570	
3845	0	33512	
3846	0	33472	
3847	0	33460	
3848	0	33456	
3849	0	33452	
3850	0	33456	
3851	0	33464	
3852	0	33448	
3853	0	33440	
3854	0	33472	
3855	0	33488	
3856	0	33480	
3857	0	33444	
3858	0	33370	
3859	0	33342	
3860	0	33332	
3861	0	33316	
3862	0	33322	
3863	0	33292	
3864	0	33264	
3865	0	33264	
3866	0	33276	
3867	0	33288	
3868	0	33284	
3869	0	33272	
3870	0	33300	
3871	0	33348	
3872	0	33388	
3873	0	33408	
3874	0	33412	
3875	0	33416	
3876	0	33428	
3877	0	33440	
3878	0	33432	
3879	0	33404	
3880	0	33400	
3881	0	33416	
3882	0	33420	
3883	0	33416	
3884	0	33428	
3885	0	33410	
3886	0	33348	
3887	0	33312	
3888	0	33316	
3889	0	33292	
3890	0	33260	
3891	0	33208	
3892	0	33168	
3893	0	33152	
3894	0	33116	
3895	0	33066	
3896	0	33048	
3897	0	32980	
3898	0	32924	
3899	0	32872	
3900	0	32834	
3901	0	32808	
3902	0	32768	
3903	0	32744	
3904	0	32764	
3905	0	32728	
3906	0	32616	
3907	0	32512	
3908	0	32460	
3909	0	32376	
3910	0	32280	
3911	0	32240	
3912	0	32208	
3913	0	32204	
3914	0	32144	
3915	0	32048	
3916	0	31936	
3917	0	31860	
3918	0	31820	
3919	0	31778	
3920	0	31714	
3921	0	31708	
3922	0	31693	
3923	0	31656	
3924	0	31640	
3925	0	31648	
3926	0	31668	
3927	0	31628	
3928	0	31552	
3929	0	31508	
3930	0	31472	
3931	0	31424	
3932	0	31372	
3933	0	31348	
3934	0	31324	
3935	0	31274	
3936	0	31248	
3937	0	31272	
3938	0	31296	
3939	0	31308	
3940	0	31288	
3941	0	31264	
3942	0	31256	
3943	0	31274	
3944	0	31276	
3945	0	31272	
3946	0	31288	
3947	0	31252	
3948	0	31252	
3949	0	31248	
3950	0	31188	
3951	0	31132	
3952	0	31128	
3953	0	31132	
3954	0	31124	
3955	0	31138	
3956	0	31148	
3957	0	31136	
3958	0	31116	
3959	0	31144	
3960	0	31146	
3961	0	31104	
3962	0	31096	
3963	0	31158	
3964	0	31184	
3965	0	31180	
3966	0	31208	
3967	0	31234	
3968	0	31268	
3969	0	31292	
3970	0	31340	
3971	0	31348	
3972	0	31380	
3973	0	31416	
3974	0	31424	
3975	0	31416	
3976	0	31456	
3977	0	31510	
3978	0	31504	
3979	0	31492	
3980	0	31452	
3981	0	31452	
3982	0	31440	
3983	0	31408	
3984	0	31372	
3985	0	31348	
3986	0	31332	
3987	0	31336	
3988	0	31396	
3989	0	31464	
3990	0	31500	
3991	0	31536	
3992	0	31608	
3993	0	31680	
3994	0	31736	
3995	0	31748	
3996	0	31780	
3997	0	31840	
3998	0	31916	
3999	0	31948	
4000	0	31944	
4001	0	31936	
4002	0	31872	
4003	0	31784	
4004	0	31724	
4005	0	31716	
4006	0	31732	
4007	0	31746	
4008	0	31796	
4009	0	31840	
4010	0	31872	
4011	0	31864	
4012	0	31856	
4013	0	31880	
4014	0	31904	
4015	0	31908	
4016	0	31920	
4017	0	31932	
4018	0	31936	
4019	0	31936	
4020	0	31936	
4021	0	31952	
4022	0	31964	
4023	0	31960	
4024	0	31992	
4025	0	32004	
4026	0	32028	
4027	0	32020	
4028	0	32028	
4029	0	32008	
4030	0	31968	
4031	0	31960	
4032	0	31968	
4033	0	31956	
4034	0	31944	
4035	0	31936	
4036	0	31908	
4037	0	31872	
4038	0	31876	
4039	0	31908	
4040	0	31932	
4041	0	31956	
4042	0	31964	
4043	0	31996	
4044	0	32040	
4045	0	32084	
4046	0	32088	
4047	0	32072	
4048	0	32032	
4049	0	32012	
4050	0	31960	
4051	0	31916	
4052	0	31896	
4053	0	31896	
4054	0	31896	
4055	0	31892	
4056	0	31868	
4057	0	31832	
4058	0	31826	
4059	0	31804	
4060	0	31776	
4061	0	31792	
4062	0	31792	
4063	0	31772	
4064	0	31824	
4065	0	31904	
4066	0	31956	
4067	0	31972	
4068	0	31960	
4069	0	31944	
4070	0	31928	
4071	0	31936	
4072	0	31906	
4073	0	31896	
4074	0	31872	
4075	0	31872	
4076	0	31842	
4077	0	31824	
4078	0	31800	
4079	0	31788	
4080	0	31744	
4081	0	31716	
4082	0	31704	
4083	0	31708	
4084	0	31764	
4085	0	31824	
4086	0	31888	
4087	0	31948	
4088	0	31958	
4089	0	31932	
4090	0	31896	
4091	0	31888	
4092	0	31900	
4093	0	31890	
4094	0	31856	
4095	0	31824	
4096	0	31796	
4097	0	31800	
4098	0	31816	
4099	0	31800	
4100	0	31784	
4101	0	31776	
4102	0	31768	
4103	0	31752	
4104	0	31752	
4105	0	31764	
4106	0	31778	
4107	0	31802	
4108	0	31840	
4109	0	31856	
4110	0	31872	
4111	0	31920	
4112	0	31928	
4113	0	31900	
4114	0	31840	
4115	0	31748	
4116	0	31680	
4117	0	31688	
4118	0	31712	
4119	0	31716	
4120	0	31720	
4121	0	31756	
4122	0	31768	
4123	0	31816	
4124	0	31896	
4125	0	31962	
4126	0	32040	
4127	0	32092	
4128	0	32136	
4129	0	32144	
4130	0	32140	
4131	0	32132	
4132	0	32100	
4133	0	32052	
4134	0	32036	
4135	0	32034	
4136	0	31996	
4137	0	31984	
4138	0	31984	
4139	0	31996	
4140	0	31994	
4141	0	31998	
4142	0	32024	
4143	0	32064	
4144	0	32088	
4145	0	32108	
4146	0	32124	
4147	0	32152	
4148	0	32148	
4149	0	32132	
4150	0	32132	
4151	0	32156	
4152	0	32220	
4153	0	32256	
4154	0	32276	
4155	0	32288	
4156	0	32288	
4157	0	32292	
4158	0	32296	
4159	0	32256	
4160	0	32224	
4161	0	32224	
4162	0	32216	
4163	0	32216	
4164	0	32224	
4165	0	32248	
4166	0	32308	
4167	0	32320	
4168	0	32336	
4169	0	32312	
4170	0	32264	
4171	0	32244	
4172	0	32212	
4173	0	32210	
4174	0	32212	
4175	0	32196	
4176	0	32208	
4177	0	32218	
4178	0	32268	
4179	0	32336	
4180	0	32432	
4181	0	32548	
4182	0	32620	
4183	0	32588	
4184	0	32584	
4185	0	32612	
4186	0	32620	
4187	0	32604	
4188	0	32564	
4189	0	32552	
4190	0	32568	
4191	0	32588	
4192	0	32592	
4193	0	32604	
4194	0	32608	
4195	0	32584	
4196	0	32540	
4197	0	32516	
4198	0	32548	
4199	0	32600	
4200	0	32672	
4201	0	32784	
4202	0	32892	
4203	0	32976	
4204	0	33108	
4205	0	33260	
4206	0	33400	
4207	0	33504	
4208	0	33600	
4209	0	33676	
4210	0	33744	
4211	0	33792	
4212	0	33816	
4213	0	33868	
4214	0	33936	
4215	0	34024	
4216	0	34024	
4217	0	34008	
4218	0	33968	
4219	0	33876	
4220	0	33780	
4221	0	33636	
4222	0	33536	
4223	0	33408	
4224	0	33324	
4225	0	33232	
4226	0	33172	
4227	0	33104	
4228	0	33060	
4229	0	33052	
4230	0	33024	
4231	0	33016	
4232	0	32984	
4233	0	32896	
4234	0	32844	
4235	0	32824	
4236	0	32800	
4237	0	32792	
4238	0	32808	
4239	0	32768	
4240	0	32720	
4241	0	32692	
4242	0	32664	
4243	0	32648	
4244	0	32640	
4245	0	32554	
4246	0	32504	
4247	0	32476	
4248	0	32480	
4249	0	32448	
4250	0	32408	
4251	0	32336	
4252	0	32276	
4253	0	32216	
4254	0	32180	
4255	0	32144	
4256	0	32112	
4257	0	32096	
4258	0	32116	
4259	0	32092	
4260	0	32056	
4261	0	32016	
4262	0	31932	
4263	0	31872	
4264	0	31880	
4265	0	31904	
4266	0	31904	
4267	0	31908	
4268	0	31884	
4269	0	31896	
4270	0	31896	
4271	0	31868	
4272	0	31804	
4273	0	31772	
4274	0	31720	
4275	0	31688	
4276	0	31688	
4277	0	31712	
4278	0	31764	
4279	0	31784	
4280	0	31776	
4281	0	31740	
4282	0	31744	
4283	0	31778	
4284	0	31776	
4285	0	31800	
4286	0	31844	
4287	0	31844	
4288	0	31824	
4289	0	31820	
4290	0	31822	
4291	0	31820	
4292	0	31848	
4293	0	31904	
4294	0	31948	
4295	0	31996	
4296	0	32036	
4297	0	32076	
4298	0	32096	
4299	0	32088	
4300	0	32140	
4301	0	32192	
4302	0	32216	
4303	0	32256	
4304	0	32276	
4305	0	32300	
4306	0	32284	
4307	0	32280	
4308	0	32296	
4309	0	32276	
4310	0	32260	
4311	0	32224	
4312	0	32160	
4313	0	32074	
4314	0	32004	
4315	0	31984	
4316	0	32012	
4317	0	32034	
4318	0	32068	
4319	0	32056	
4320	0	32024	
4321	0	32012	
4322	0	32056	
4323	0	32106	
4324	0	32180	
4325	0	32204	
4326	0	32280	
4327	0	32336	
4328	0	32388	
4329	0	32432	
4330	0	32476	
4331	0	32512	
4332	0	32560	
4333	0	32596	
4334	0	32632	
4335	0	32680	
4336	0	32700	
4337	0	32724	
4338	0	32736	
4339	0	32704	
4340	0	32620	
4341	0	32520	
4342	0	32408	
4343	0	32352	
4344	0	32324	
4345	0	32420	
4346	0	32656	
4347	0	33004	
4348	0	33364	
4349	0	33736	
4350	0	34108	
4351	0	34392	
4352	0	34508	
4353	0	34536	
4354	0	34596	
4355	0	34824	
4356	0	35236	
4357	0	35860	
4358	0	36576	
4359	0	37384	
4360	0	38440	
4361	0	39728	
4362	0	41152	
4363	0	42508	
4364	0	43892	
4365	0	45376	
4366	0	46952	
4367	0	48568	
4368	0	50048	
4369	0	51328	
4370	0	52384	
4371	0	53264	
4372	0	54172	
4373	0	55064	
4374	0	55696	
4375	0	55788	
4376	0	55024	
4377	0	53208	
4378	0	50472	
4379	0	47264	
4380	0	43824	
4381	0	40392	
4382	0	37228	
4383	0	34636	
4384	0	32736	
4385	0	31524	
4386	0	30728	
4387	0	30228	
4388	0	29940	
4389	0	29808	
4390	0	29804	
4391	0	29952	
4392	0	30180	
4393	0	30424	
4394	0	30656	
4395	0	30884	
4396	0	31112	
4397	0	31280	
4398	0	31396	
4399	0	31504	
4400	0	31624	
4401	0	31768	
4402	0	31864	
4403	0	31960	
4404	0	32012	
4405	0	32004	
4406	0	32004	
4407	0	31984	
4408	0	31932	
4409	0	31872	
4410	0	31808	
4411	0	31736	
4412	0	31696	
4413	0	31664	
4414	0	31640	
4415	0	31648	
4416	0	31660	
4417	0	31624	
4418	0	31586	
4419	0	31564	
4420	0	31600	
4421	0	31648	
4422	0	31656	
4423	0	31658	
4424	0	31656	
4425	0	31652	
4426	0	31662	
4427	0	31676	
4428	0	31700	
4429	0	31736	
4430	0	31744	
4431	0	31748	
4432	0	31752	
4433	0	31736	
4434	0	31688	
4435	0	31648	
4436	0	31656	
4437	0	31676	
4438	0	31688	
4439	0	31712	
4440	0	31716	
4441	0	31706	
4442	0	31684	
4443	0	31704	
4444	0	31732	
4445	0	31776	
4446	0	31808	
4447	0	31844	
4448	0	31872	
4449	0	31908	
4450	0	31934	
4451	0	31968	
4452	0	31992	
4453	0	31996	
4454	0	32016	
4455	0	32040	
4456	0	32064	
4457	0	32096	
4458	0	32160	
4459	0	32204	
4460	0	32216	
4461	0	32264	
4462	0	32296	
4463	0	32352	
4464	0	32404	
4465	0	32472	
4466	0	32504	
4467	0	32488	
4468	0	32456	
4469	0	32420	
4470	0	32410	
4471	0	32388	
4472	0	32392	
4473	0	32400	
4474	0	32400	
4475	0	32388	
4476	0	32392	
4477	0	32400	
4478	0	32412	
4479	0	32396	
4480	0	32404	
4481	0	32412	
4482	0	32428	
4483	0	32448	
4484	0	32484	
4485	0	32536	
4486	0	32592	
4487	0	32636	
4488	0	32700	
4489	0	32764	
4490	0	32840	
4491	0	32868	
4492	0	32884	
4493	0	32904	
4494	0	32904	
4495	0	32892	
4496	0	32872	
4497	0	32868	
4498	0	32892	
4499	0	32908	
4500	0	32920	
4501	0	32964	
4502	0	32984	
4503	0	33004	
4504	0	33016	
4505	0	33012	
4506	0	33024	
4507	0	33056	
4508	0	33088	
4509	0	33124	
4510	0	33160	
4511	0	33172	
4512	0	33180	
4513	0	33148	
4514	0	33144	
4515	0	33132	
4516	0	33160	
4517	0	33160	
4518	0	33184	
4519	0	33180	
4520	0	33184	
4521	0	33208	
4522	0	33216	
4523	0	33216	
4524	0	33232	
4525	0	33252	
4526	0	33260	
4527	0	33304	
4528	0	33340	
4529	0	33368	
4530	0	33380	
4531	0	33368	
4532	0	33372	
4533	0	33376	
4534	0	33376	
4535	0	33372	
4536	0	33368	
4537	0	33408	
4538	0	33416	
4539	0	33428	
4540	0	33456	
4541	0	33472	
4542	0	33500	
4543	0	33534	
4544	0	33544	
4545	0	33548	
4546	0	33552	
4547	0	33552	
4548	0	33576	
4549	0	33572	
4550	0	33576	
4551	0	33620	
4552	0	33656	
4553	0	33652	
4554	0	33648	
4555	0	33604	
4556	0	33584	
4557	0	33576	
4558	0	33576	
4559	0	33604	
4560	0	33600	
4561	0	33588	
4562	0	33592	
4563	0	33634	
4564	0	33672	
4565	0	33704	
4566	0	33736	
4567	0	33792	
4568	0	33832	
4569	0	33872	
4570	0	33892	
4571	0	33920	
4572	0	33964	
4573	0	33972	
4574	0	33952	
4575	0	33958	
4576	0	33980	
4577	0	33992	
4578	0	33964	
4579	0	33940	
4580	0	33904	
4581	0	33880	
4582	0	33888	
4583	0	33876	
4584	0	33880	
4585	0	33912	
4586	0	33916	
4587	0	33908	
4588	0	33892	
4589	0	33882	
4590	0	33888	
4591	0	33886	
4592	0	33876	
4593	0	33880	
4594	0	33888	
4595	0	33860	
4596	0	33828	
4597	0	33808	
4598	0	33768	
4599	0	33708	
4600	0	33652	
4601	0	33628	
4602	0	33584	
4603	0	33560	
4604	0	33520	
4605	0	33514	
4606	0	33504	
4607	0	33520	
4608	0	33546	
4609	0	33548	
4610	0	33516	
4611	0	33512	
4612	0	33504	
4613	0	33492	
4614	0	33472	
4615	0	33464	
4616	0	33480	
4617	0	33500	
4618	0	33528	
4619	0	33548	
4620	0	33544	
4621	0	33540	
4622	0	33548	
4623	0	33538	
4624	0	33520	
4625	0	33532	
4626	0	33524	
4627	0	33536	
4628	0	33524	
4629	0	33552	
4630	0	33568	
4631	0	33560	
4632	0	33564	
4633	0	33524	
4634	0	33518	
4635	0	33504	
4636	0	33484	
4637	0	33464	
4638	0	33432	
4639	0	33416	
4640	0	33402	
4641	0	33352	
4642	0	33336	
4643	0	33306	
4644	0	33280	
4645	0	33256	
4646	0	33200	
4647	0	33136	
4648	0	33080	
4649	0	33000	
4650	0	32928	
4651	0	32856	
4652	0	32788	
4653	0	32704	
4654	0	32608	
4655	0	32498	
4656	0	32404	
4657	0	32352	
4658	0	32274	
4659	0	32216	
4660	0	32156	
4661	0	32120	
4662	0	32108	
4663	0	32084	
4664	0	32068	
4665	0	32056	
4666	0	32072	
4667	0	32068	
4668	0	32068	
4669	0	32040	
4670	0	31962	
4671	0	31896	
4672	0	31816	
4673	0	31700	
4674	0	31544	
4675	0	31404	
4676	0	31324	
4677	0	31284	
4678	0	31208	
4679	0	31128	
4680	0	31056	
4681	0	31016	
4682	0	30980	
4683	0	30978	
4684	0	30952	
4685	0	30960	
4686	0	30960	
4687	0	30984	
4688	0	30976	
4689	0	31016	
4690	0	31016	
4691	0	31032	
4692	0	31024	
4693	0	30996	
4694	0	30964	
4695	0	30928	
4696	0	30920	
4697	0	30904	
4698	0	30896	
4699	0	30872	
4700	0	30880	
4701	0	30872	
4702	0	30872	
4703	0	30868	
4704	0	30888	
4705	0	30932	
4706	0	30930	
4707	0	30948	
4708	0	30976	
4709	0	31032	
4710	0	31064	
4711	0	31072	
4712	0	31076	
4713	0	31048	
4714	0	31056	
4715	0	31032	
4716	0	31052	
4717	0	31052	
4718	0	31068	
4719	0	31084	
4720	0	31096	
4721	0	31132	
4722	0	31136	
4723	0	31154	
4724	0	31200	
4725	0	31252	
4726	0	31296	
4727	0	31356	
4728	0	31376	
4729	0	31400	
4730	0	31448	
4731	0	31496	
4732	0	31488	
4733	0	31472	
4734	0	31460	
4735	0	31468	
4736	0	31464	
4737	0	31480	
4738	0	31504	
4739	0	31500	
4740	0	31512	
4741	0	31552	
4742	0	31596	
4743	0	31628	
4744	0	31672	
4745	0	31712	
4746	0	31736	
4747	0	31732	
4748	0	31720	
4749	0	31724	
4750	0	31722	
4751	0	31702	
4752	0	31744	
4753	0	31772	
4754	0	31768	
4755	0	31768	
4756	0	31752	
4757	0	31716	
4758	0	31704	
4759	0	31680	
4760	0	31680	
4761	0	31668	
4762	0	31688	
4763	0	31674	
4764	0	31696	
4765	0	31708	
4766	0	31728	
4767	0	31732	
4768	0	31752	
4769	0	31776	
4770	0	31808	
4771	0	31808	
4772	0	31800	
4773	0	31764	
4774	0	31744	
4775	0	31725	
4776	0	31744	
4777	0	31776	
4778	0	31768	
4779	0	31746	
4780	0	31736	
4781	0	31740	
4782	0	31748	
4783	0	31732	
4784	0	31792	
4785	0	31860	
4786	0	31896	
4787	0	31936	
4788	0	31968	
4789	0	31988	
4790	0	32004	
4791	0	32016	
4792	0	32000	
4793	0	31976	
4794	0	31976	
4795	0	31948	
4796	0	31940	
4797	0	31928	
4798	0	31900	
4799	0	31840	
4800	0	31808	
4801	0	31796	
4802	0	31762	
4803	0	31736	
4804	0	31732	
4805	0	31728	
4806	0	31736	
4807	0	31760	
4808	0	31768	
4809	0	31800	
4810	0	31804	
4811	0	31764	
4812	0	31736	
4813	0	31728	
4814	0	31728	
4815	0	31728	
4816	0	31752	
4817	0	31760	
4818	0	31766	
4819	0	31772	
4820	0	31768	
4821	0	31760	
4822	0	31784	
4823	0	31816	
4824	0	31860	
4825	0	31900	
4826	0	31944	
4827	0	31960	
4828	0	31976	
4829	0	31980	
4830	0	31996	
4831	0	31968	
4832	0	31940	
4833	0	31928	
4834	0	31874	
4835	0	31848	
4836	0	31840	
4837	0	31812	
4838	0	31748	
4839	0	31688	
4840	0	31648	
4841	0	31604	
4842	0	31596	
4843	0	31616	
4844	0	31648	
4845	0	31660	
4846	0	31716	
4847	0	31728	
4848	0	31724	
4849	0	31716	
4850	0	31744	
4851	0	31768	
4852	0	31784	
4853	0	31808	
4854	0	31848	
4855	0	31860	
4856	0	31848	
4857	0	31832	
4858	0	31800	
4859	0	31768	
4860	0	31800	
4861	0	31808	
4862	0	31802	
4863	0	31812	
4864	0	31836	
4865	0	31880	
4866	0	31896	
4867	0	31924	
4868	0	31944	
4869	0	31944	
4870	0	31972	
4871	0	31980	
4872	0	31964	
4873	0	31954	
4874	0	31924	
4875	0	31904	
4876	0	31900	
4877	0	31888	
4878	0	31876	
4879	0	31852	
4880	0	31840	
4881	0	31824	
4882	0	31832	
4883	0	31876	
4884	0	31900	
4885	0	31928	
4886	0	31944	
4887	0	31960	
4888	0	31976	
4889	0	31964	
4890	0	32000	
4891	0	32050	
4892	0	32108	
4893	0	32112	
4894	0	32100	
4895	0	32108	
4896	0	32100	
4897	0	32120	
4898	0	32108	
4899	0	32100	
4900	0	32104	
4901	0	32092	
4902	0	32048	
4903	0	32064	
4904	0	32080	
4905	0	32104	
4906	0	32116	
4907	0	32130	
4908	0	32172	
4909	0	32224	
4910	0	32244	
4911	0	32236	
4912	0	32240	
4913	0	32224	
4914	0	32228	
4915	0	32224	
4916	0	32260	
4917	0	32240	
4918	0	32224	
4919	0	32204	
4920	0	32192	
4921	0	32176	
4922	0	32156	
4923	0	32160	
4924	0	32208	
4925	0	32272	
4926	0	32320	
4927	0	32368	
4928	0	32396	
4929	0	32412	
4930	0	32424	
4931	0	32444	
4932	0	32468	
4933	0	32456	
4934	0	32456	
4935	0	32432	
4936	0	32412	
4937	0	32384	
4938	0	32352	
4939	0	32308	
4940	0	32272	
4941	0	32248	
4942	0	32244	
4943	0	32250	
4944	0	32292	
4945	0	32344	
4946	0	32364	
4947	0	32380	
4948	0	32408	
4949	0	32412	
4950	0	32428	
4951	0	32428	
4952	0	32428	
4953	0	32412	
4954	0	32412	
4955	0	32424	
4956	0	32424	
4957	0	32448	
4958	0	32448	
4959	0	32448	
4960	0	32444	
4961	0	32436	
4962	0	32436	
4963	0	32432	
4964	0	32456	
4965	0	32540	
4966	0	32640	
4967	0	32712	
4968	0	32748	
4969	0	32784	
4970	0	32832	
4971	0	32892	
4972	0	32952	
4973	0	32968	
4974	0	32960	
4975	0	32952	
4976	0	32936	
4977	0	32880	
4978	0	32850	
4979	0	32780	
4980	0	32708	
4981	0	32692	
4982	0	32696	
4983	0	32700	
4984	0	32704	
4985	0	32712	
4986	0	32728	
4987	0	32736	
4988	0	32754	
4989	0	32844	
4990	0	32944	
4991	0	33032	
4992	0	33140	
4993	0	33260	
4994	0	33338	
4995	0	33402	
4996	0	33496	
4997	0	33584	
4998	0	33696	
4999	0	33796	
5000	0	33888	
5001	0	33960	
5002	0	34056	
5003	0	34160	
5004	0	34240	
5005	0	34284	
5006	0	34324	
5007	0	34332	
5008	0	34304	
5009	0	34240	
5010	0	34116	
5011	0	33960	
5012	0	33816	
5013	0	33697	
5014	0	33608	
5015	0	33504	
5016	0	33398	
5017	0	33296	
5018	0	33204	
5019	0	33084	
5020	0	33064	
5021	0	33036	
5022	0	33064	
5023	0	33036	
5024	0	33026	
5025	0	33008	
5026	0	32972	
5027	0	32960	
5028	0	32968	
5029	0	32976	
5030	0	32964	
5031	0	32960	
5032	0	32932	
5033	0	32924	
5034	0	32916	
5035	0	32908	
5036	0	32912	
5037	0	32912	
5038	0	32900	
5039	0	32836	
5040	0	32768	
5041	0	32724	
5042	0	32696	
5043	0	32668	
5044	0	32624	
5045	0	32608	
5046	0	32580	
5047	0	32546	
5048	0	32504	
5049	0	32448	
5050	0	32420	
5051	0	32352	
5052	0	32312	
5053	0	32270	
5054	0	32248	
5055	0	32224	
5056	0	32228	
5057	0	32228	
5058	0	32232	
5059	0	32248	
5060	0	32256	
5061	0	32248	
5062	0	32256	
5063	0	32244	
5064	0	32224	
5065	0	32224	
5066	0	32232	
5067	0	32260	
5068	0	32268	
5069	0	32296	
5070	0	32332	
5071	0	32354	
5072	0	32364	
5073	0	32380	
5074	0	32380	
5075	0	32396	
5076	0	32396	
5077	0	32388	
5078	0	32396	
5079	0	32384	
5080	0	32344	
5081	0	32336	
5082	0	32344	
5083	0	32348	
5084	0	32352	
5085	0	32364	
5086	0	32390	
5087	0	32380	
5088	0	32372	
5089	0	32346	
5090	0	32324	
5091	0	32324	
5092	0	32340	
5093	0	32352	
5094	0	32352	
5095	0	32368	
5096	0	32384	
5097	0	32376	
5098	0	32384	
5099	0	32392	
5100	0	32380	
5101	0	32360	
5102	0	32360	
5103	0	32384	
5104	0	32414	
5105	0	32432	
5106	0	32468	
5107	0	32500	
5108	0	32544	
5109	0	32576	
5110	0	32608	
5111	0	32640	
5112	0	32644	
5113	0	32656	
5114	0	32676	
5115	0	32684	
5116	0	32684	
5117	0	32692	
5118	0	32676	
5119	0	32664	
5120	0	32700	
5121	0	32736	
5122	0	32784	
5123	0	32872	
5124	0	32960	
5125	0	33006	
5126	0	33036	
5127	0	33056	
5128	0	33080	
5129	0	33100	
5130	0	33080	
5131	0	33024	
5132	0	32970	
5133	0	32922	
5134	0	32912	
5135	0	33004	
5136	0	33232	
5137	0	33504	
5138	0	33828	
5139	0	34132	
5140	0	34400	
5141	0	34616	
5142	0	34708	
5143	0	34728	
5144	0	34804	
5145	0	35024	
5146	0	35436	
5147	0	36012	
5148	0	36736	
5149	0	37628	
5150	0	38720	
5151	0	39972	
5152	0	41200	
5153	0	42432	
5154	0	43680	
5155	0	45100	
5156	0	46564	
5157	0	47988	
5158	0	49184	
5159	0	50192	
5160	0	51072	
5161	0	51960	
5162	0	52960	
5163	0	53792	
5164	0	54352	
5165	0	54312	
5166	0	53256	
5167	0	51176	
5168	0	48424	
5169	0	45288	
5170	0	42020	
5171	0	38864	
5172	0	36140	
5173	0	34080	
5174	0	32676	
5175	0	31760	
5176	0	31220	
5177	0	30972	
5178	0	30828	
5179	0	30708	
5180	0	30652	
5181	0	30636	
5182	0	30716	
5183	0	30864	
5184	0	31020	
5185	0	31176	
5186	0	31340	
5187	0	31504	
5188	0	31652	
5189	0	31792	
5190	0	31964	
5191	0	32100	
5192	0	32204	
5193	0	32240	
5194	0	32232	
5195	0	32232	
5196	0	32200	
5197	0	32144	
5198	0	32056	
5199	0	31976	
5200	0	31908	
5201	0	31848	
5202	0	31812	
5203	0	31800	
5204	0	31784	
5205	0	31788	
5206	0	31792	
5207	0	31780	
5208	0	31760	
5209	0	31752	
5210	0	31752	
5211	0	31764	
5212	0	31750	
5213	0	31740	
5214	0	31744	
5215	0	31756	
5216	0	31752	
5217	0	31752	
5218	0	31760	
5219	0	31788	
5220	0	31780	
5221	0	31792	
5222	0	31802	
5223	0	31804	
5224	0	31828	
5225	0	31868	
5226	0	31900	
5227	0	31948	
5228	0	31980	
5229	0	32020	
5230	0	32036	
5231	0	32056	
5232	0	32080	
5233	0	32108	
5234	0	32108	
5235	0	32090	
5236	0	32090	
5237	0	32084	
5238	0	32080	
5239	0	32090	
5240	0	32088	
5241	0	32076	
5242	0	32104	
5243	0	32116	
5244	0	32116	
5245	0	32124	
5246	0	32140	
5247	0	32144	
5248	0	32180	
5249	0	32212	
5250	0	32240	
5251	0	32260	
5252	0	32296	
5253	0	32290	
5254	0	32280	
5255	0	32280	
5256	0	32262	
5257	0	32272	
5258	0	32280	
5259	0	32288	
5260	0	32296	
5261	0	32320	
5262	0	32368	
5263	0	32426	
5264	0	32448	
5265	0	32484	
5266	0	32536	
5267	0	32596	
5268	0	32636	
5269	0	32648	
5270	0	32698	
5271	0	32736	
5272	0	32756	
5273	0	32792	
5274	0	32792	
5275	0	32816	
5276	0	32826	
5277	0	32840	
5278	0	32888	
5279	0	32892	
5280	0	32900	
5281	0	32932	
5282	0	32952	
5283	0	32988	
5284	0	33020	
5285	0	33036	
5286	0	33052	
5287	0	33064	
5288	0	33088	
5289	0	33108	
5290	0	33144	
5291	0	33164	
5292	0	33172	
5293	0	33194	
5294	0	33212	
5295	0	33188	
5296	0	33186	
5297	0	33188	
5298	0	33196	
5299	0	33208	
5300	0	33200	
5301	0	33216	
5302	0	33240	
5303	0	33260	
5304	0	33280	
5305	0	33304	
5306	0	33332	
5307	0	33376	
5308	0	33392	
5309	0	33428	
5310	0	33456	
5311	0	33472	
5312	0	33460	
5313	0	33464	
5314	0	33452	
5315	0	33476	
5316	0	33492	
5317	0	33480	
5318	0	33470	
5319	0	33472	
5320	0	33472	
5321	0	33482	
5322	0	33512	
5323	0	33508	
5324	0	33548	
5325	0	33568	
5326	0	33620	
5327	0	33632	
5328	0	33656	
5329	0	33680	
5330	0	33708	
5331	0	33728	
5332	0	33736	
5333	0	33728	
5334	0	33728	
5335	0	33712	
5336	0	33692	
5337	0	33696	
5338	0	33688	
5339	0	33672	
5340	0	33692	
5341	0	33688	
5342	0	33680	
5343	0	33708	
5344	0	33740	
5345	0	33764	
5346	0	33800	
5347	0	33808	
5348	0	33800	
5349	0	33796	
5350	0	33792	
5351	0	33810	
5352	0	33816	
5353	0	33824	
5354	0	33850	
5355	0	33846	
5356	0	33848	
5357	0	33844	
5358	0	33832	
5359	0	33824	
5360	0	33828	
5361	0	33856	
5362	0	33896	
5363	0	33900	
5364	0	33928	
5365	0	33928	
5366	0	33932	
5367	0	33944	
5368	0	33948	
5369	0	33976	
5370	0	33992	
5371	0	34008	
5372	0	34002	
5373	0	33992	
5374	0	33986	
5375	0	33992	
5376	0	33988	
5377	0	33984	
5378	0	34000	
5379	0	33980	
5380	0	33976	
5381	0	33964	
5382	0	33960	
5383	0	33936	
5384	0	33932	
5385	0	33920	
5386	0	33920	
5387	0	33932	
5388	0	33928	
5389	0	33908	
5390	0	33904	
5391	0	33912	
5392	0	33916	
5393	0	33896	
5394	0	33876	
5395	0	33884	
5396	0	33872	
5397	0	33856	
5398	0	33836	
5399	0	33800	
5400	0	33792	
5401	0	33786	
5402	0	33796	
5403	0	33818	
5404	0	33820	
5405	0	33812	
5406	0	33832	
5407	0	33832	
5408	0	33876	
5409	0	33892	
5410	0	33880	
5411	0	33872	
5412	0	33864	
5413	0	33868	
5414	0	33880	
5415	0	33852	
5416	0	33844	
5417	0	33820	
5418	0	33808	
5419	0	33792	
5420	0	33760	
5421	0	33744	
5422	0	33728	
5423	0	33732	
5424	0	33752	
5425	0	33768	
5426	0	33784	
5427	0	33760	
5428	0	33752	
5429	0	33716	
5430	0	33690	
5431	0	33676	
5432	0	33664	
5433	0	33624	
5434	0	33576	
5435	0	33520	
5436	0	33488	
5437	0	33426	
5438	0	33376	
5439	0	33324	
5440	0	33280	
5441	0	33224	
5442	0	33162	
5443	0	33120	
5444	0	33076	
5445	0	33032	
5446	0	32976	
5447	0	32928	
5448	0	32880	
5449	0	32836	
5450	0	32784	
5451	0	32720	
5452	0	32644	
5453	0	32552	
5454	0	32476	
5455	0	32392	
5456	0	32348	
5457	0	32284	
5458	0	32218	
5459	0	32154	
5460	0	32064	
5461	0	32012	
5462	0	31972	
5463	0	31952	
5464	0	31908	
5465	0	31869	
5466	0	31836	
5467	0	31796	
5468	0	31768	
5469	0	31696	
5470	0	31642	
5471	0	31576	
5472	0	31532	
5473	0	31472	
5474	0	31418	
5475	0	31356	
5476	0	31296	
5477	0	31244	
5478	0	31202	
5479	0	31168	
5480	0	31112	
5481	0	31092	
5482	0	31056	
5483	0	31052	
5484	0	31044	
5485	0	31036	
5486	0	31028	
5487	0	31008	
5488	0	30984	
5489	0	31016	
5490	0	31016	
5491	0	30992	
5492	0	30970	
5493	0	30956	
5494	0	30964	
5495	0	30972	
5496	0	30960	
5497	0	30956	
5498	0	30956	
5499	0	30952	
5500	0	30960	
5501	0	30996	
5502	0	31000	
5503	0	31016	
5504	0	31072	
5505	0	31104	
5506	0	31132	
5507	0	31144	
5508	0	31168	
5509	0	31184	
5510	0	31200	
5511	0	31200	
5512	0	31196	
5513	0	31204	
5514	0	31200	
5515	0	31192	
5516	0	31188	
5517	0	31200	
5518	0	31212	
5519	0	31216	
5520	0	31216	
5521	0	31210	
5522	0	31224	
5523	0	31264	
5524	0	31280	
5525	0	31312	
5526	0	31340	
5527	0	31372	
5528	0	31400	
5529	0	31416	
5530	0	31460	
5531	0	31492	
5532	0	31520	
5533	0	31536	
5534	0	31524	
5535	0	31536	
5536	0	31556	
5537	0	31600	
5538	0	31616	
5539	0	31624	
5540	0	31636	
5541	0	31628	
5542	0	31628	
5543	0	31668	
5544	0	31700	
5545	0	31724	
5546	0	31736	
5547	0	31784	
5548	0	31792	
5549	0	31794	
5550	0	31794	
5551	0	31796	
5552	0	31792	
5553	0	31784	
5554	0	31752	
5555	0	31728	
5556	0	31720	
5557	0	31704	
5558	0	31680	
5559	0	31688	
5560	0	31680	
5561	0	31704	
5562	0	31734	
5563	0	31744	
5564	0	31768	
5565	0	31776	
5566	0	31800	
5567	0	31818	
5568	0	31840	
5569	0	31852	
5570	0	31856	
5571	0	31856	
5572	0	31868	
5573	0	31856	
5574	0	31828	
5575	0	31828	
5576	0	31808	
5577	0	31804	
5578	0	31752	
5579	0	31744	
5580	0	31740	
5581	0	31744	
5582	0	31754	
5583	0	31764	
5584	0	31792	
5585	0	31808	
5586	0	31850	
5587	0	31864	
5588	0	31888	
5589	0	31900	
5590	0	31892	
5591	0	31920	
5592	0	31912	
5593	0	31880	
5594	0	31860	
5595	0	31840	
5596	0	31824	
5597	0	31824	
5598	0	31796	
5599	0	31760	
5600	0	31756	
5601	0	31744	
5602	0	31724	
5603	0	31698	
5604	0	31736	
5605	0	31744	
5606	0	31740	
5607	0	31728	
5608	0	31748	
5609	0	31784	
5610	0	31768	
5611	0	31768	
5612	0	31740	
5613	0	31716	
5614	0	31706	
5615	0	31688	
5616	0	31664	
5617	0	31652	
5618	0	31624	
5619	0	31600	
5620	0	31584	
5621	0	31564	
5622	0	31544	
5623	0	31548	
5624	0	31564	
5625	0	31578	
5626	0	31592	
5627	0	31616	
5628	0	31640	
5629	0	31660	
5630	0	31680	
5631	0	31684	
5632	0	31680	
5633	0	31700	
5634	0	31712	
5635	0	31708	
5636	0	31716	
5637	0	31712	
5638	0	31724	
5639	0	31728	
5640	0	31728	
5641	0	31740	
5642	0	31764	
5643	0	31792	
5644	0	31842	
5645	0	31856	
5646	0	31888	
5647	0	31892	
5648	0	31900	
5649	0	31920	
5650	0	31932	
5651	0	31920	
5652	0	31920	
5653	0	31924	
5654	0	31912	
5655	0	31920	
5656	0	31892	
5657	0	31884	
5658	0	31872	
5659	0	31842	
5660	0	31840	
5661	0	31848	
5662	0	31860	
5663	0	31874	
5664	0	31900	
5665	0	31902	
5666	0	31940	
5667	0	31952	
5668	0	31948	
5669	0	31960	
5670	0	31948	
5671	0	31956	
5672	0	31960	
5673	0	31924	
5674	0	31916	
5675	0	31912	
5676	0	31896	
5677	0	31852	
5678	0	31818	
5679	0	31800	
5680	0	31776	
5681	0	31776	
5682	0	31776	
5683	0	31788	
5684	0	31804	
5685	0	31820	
5686	0	31860	
5687	0	31888	
5688	0	31904	
5689	0	31908	
5690	0	31904	
5691	0	31892	
5692	0	31872	
5693	0	31844	
5694	0	31840	
5695	0	31828	
5696	0	31816	
5697	0	31824	
5698	0	31824	
5699	0	31844	
5700	0	31816	
5701	0	31808	
5702	0	31822	
5703	0	31856	
5704	0	31892	
5705	0	31916	
5706	0	31944	
5707	0	31944	
5708	0	31984	
5709	0	31992	
5710	0	32008	
5711	0	31996	
5712	0	31972	
5713	0	31972	
5714	0	31984	
5715	0	31998	
5716	0	32004	
5717	0	32016	
5718	0	31984	
5719	0	31976	
5720	0	31972	
5721	0	31978	
5722	0	31976	
5723	0	32004	
5724	0	32044	
5725	0	32064	
5726	0	32104	
5727	0	32124	
5728	0	32140	
5729	0	32176	
5730	0	32188	
5731	0	32180	
5732	0	32202	
5733	0	32228	
5734	0	32224	
5735	0	32246	
5736	0	32244	
5737	0	32236	
5738	0	32216	
5739	0	32204	
5740	0	32188	
5741	0	32196	
5742	0	32192	
5743	0	32192	
5744	0	32208	
5745	0	32224	
5746	0	32252	
5747	0	32268	
5748	0	32290	
5749	0	32312	
5750	0	32338	
5751	0	32332	
5752	0	32332	
5753	0	32320	
5754	0	32320	
5755	0	32332	
5756	0	32320	
5757	0	32304	
5758	0	32280	
5759	0	32288	
5760	0	32312	
5761	0	32340	
5762	0	32376	
5763	0	32384	
5764	0	32424	
5765	0	32440	
5766	0	32466	
5767	0	32496	
5768	0	32528	
5769	0	32540	
5770	0	32540	
5771	0	32544	
5772	0	32528	
5773	0	32512	
5774	0	32504	
5775	0	32480	
5776	0	32448	
5777	0	32434	
5778	0	32384	
5779	0	32384	
5780	0	32404	
5781	0	32400	
5782	0	32424	
5783	0	32440	
5784	0	32476	
5785	0	32520	
5786	0	32528	
5787	0	32536	
5788	0	32532	
5789	0	32552	
5790	0	32566	
5791	0	32576	
5792	0	32564	
5793	0	32556	
5794	0	32554	
5795	0	32548	
5796	0	32576	
5797	0	32576	
5798	0	32564	
5799	0	32536	
5800	0	32520	
5801	0	32528	
5802	0	32536	
5803	0	32572	
5804	0	32592	
5805	0	32600	
5806	0	32628	
5807	0	32640	
5808	0	32636	
5809	0	32668	
5810	0	32688	
5811	0	32724	
5812	0	32716	
5813	0	32704	
5814	0	32684	
5815	0	32652	
5816	0	32640	
5817	0	32640	
5818	0	32624	
5819	0	32632	
5820	0	32660	
5821	0	32700	
5822	0	32744	
5823	0	32816	
5824	0	32888	
5825	0	32936	
5826	0	33016	
5827	0	33092	
5828	0	33178	
5829	0	33228	
5830	0	33236	
5831	0	33232	
5832	0	33224	
5833	0	33200	
5834	0	33160	
5835	0	33088	
5836	0	33048	
5837	0	33026	
5838	0	33000	
5839	0	32964	
5840	0	32980	
5841	0	33012	
5842	0	32984	
5843	0	32986	
5844	0	33012	
5845	0	33050	
5846	0	33116	
5847	0	33232	
5848	0	33388	
5849	0	33528	
5850	0	33668	
5851	0	33744	
5852	0	33824	
5853	0	33924	
5854	0	34020	
5855	0	34104	
5856	0	34192	
5857	0	34232	
5858	0	34236	
5859	0	34260	
5860	0	34305	
5861	0	34352	
5862	0	34360	
5863	0	34332	
5864	0	34316	
5865	0	34228	
5866	0	34164	
5867	0	34064	
5868	0	33924	
5869	0	33832	
5870	0	33736	
5871	0	33664	
5872	0	33592	
5873	0	33508	
5874	0	33432	
5875	0	33360	
5876	0	33300	
5877	0	33232	
5878	0	33160	
5879	0	33108	
5880	0	33048	
5881	0	33004	
5882	0	32996	
5883	0	32974	
5884	0	32940	
5885	0	32920	
5886	0	32900	
5887	0	32904	
5888	0	32892	
5889	0	32848	
5890	0	32844	
5891	0	32864	
5892	0	32864	
5893	0	32864	
5894	0	32864	
5895	0	32840	
5896	0	32800	
5897	0	32776	
5898	0	32732	
5899	0	32720	
5900	0	32708	
5901	0	32674	
5902	0	32644	
5903	0	32604	
5904	0	32580	
5905	0	32544	
5906	0	32496	
5907	0	32456	
5908	0	32408	
5909	0	32372	
5910	0	32324	
5911	0	32288	
5912	0	32272	
5913	0	32230	
5914	0	32216	
5915	0	32192	
5916	0	32176	
5917	0	32192	
5918	0	32176	
5919	0	32172	
5920	0	32168	
5921	0	32184	
5922	0	32176	
5923	0	32164	
5924	0	32156	
5925	0	32152	
5926	0	32154	
5927	0	32180	
5928	0	32204	
5929	0	32232	
5930	0	32260	
5931	0	32276	
5932	0	32256	
5933	0	32256	
5934	0	32276	
5935	0	32292	
5936	0	32284	
5937	0	32272	
5938	0	32308	
5939	0	32320	
5940	0	32340	
5941	0	32348	
5942	0	32346	
5943	0	32356	
5944	0	32392	
5945	0	32424	
5946	0	32456	
5947	0	32476	
5948	0	32476	
5949	0	32492	
5950	0	32484	
5951	0	32504	
5952	0	32524	
5953	0	32540	
5954	0	32552	
5955	0	32552	
5956	0	32552	
5957	0	32556	
5958	0	32528	
5959	0	32526	
5960	0	32548	
5961	0	32564	
5962	0	32564	
5963	0	32600	
5964	0	32640	
5965	0	32660	
5966	0	32676	
5967	0	32704	
5968	0	32728	
5969	0	32756	
5970	0	32752	
5971	0	32748	
5972	0	32752	
5973	0	32752	
5974	0	32744	
5975	0	32752	
5976	0	32760	
5977	0	32768	
5978	0	32800	
5979	0	32848	
5980	0	32884	
5981	0	32936	
5982	0	32992	
5983	0	33040	
5984	0	33076	
5985	0	33068	
5986	0	33036	
5987	0	32980	
5988	0	32936	
5989	0	32884	
5990	0	32904	
5991	0	33024	
5992	0	33268	
5993	0	33544	
5994	0	33864	
5995	0	34148	
5996	0	34368	
5997	0	34528	
5998	0	34560	
5999	0	34608	
6000	0	34744	
6001	0	35052	
6002	0	35516	
6003	0	36092	
6004	0	36820	
6005	0	37696	
6006	0	38728	
6007	0	39852	
6008	0	40996	
6009	0	42124	
6010	0	43352	
6011	0	44624	
6012	0	45896	
6013	0	47060	
6014	0	48024	
6015	0	48864	
6016	0	49580	
6017	0	50480	
6018	0	51394	
6019	0	52128	
6020	0	52548	
6021	0	52144	
6022	0	50656	
6023	0	48264	
6024	0	45380	
6025	0	42360	
6026	0	39376	
6027	0	36652	
6028	0	34456	
6029	0	32904	
6030	0	31920	
6031	0	31348	
6032	0	31072	
6033	0	30988	
6034	0	30964	
6035	0	30964	
6036	0	30992	
6037	0	31004	
6038	0	31052	
6039	0	31136	
6040	0	31292	
6041	0	31424	
6042	0	31564	
6043	0	31676	
6044	0	31804	
6045	0	31956	
6046	0	32124	
6047	0	32244	
6048	0	32336	
6049	0	32400	
6050	0	32424	
6051	0	32424	
6052	0	32372	
6053	0	32316	
6054	0	32256	
6055	0	32180	
6056	0	32104	
6057	0	32032	
6058	0	31968	
6059	0	31916	
6060	0	31874	
6061	0	31872	
6062	0	31872	
6063	0	31836	
6064	0	31836	
6065	0	31840	
6066	0	31856	
6067	0	31872	
6068	0	31880	
6069	0	31884	
6070	0	31888	
6071	0	31908	
6072	0	31892	
6073	0	31880	
6074	0	31872	
6075	0	31872	
6076	0	31860	
6077	0	31848	
6078	0	31840	
6079	0	31840	
6080	0	31844	
6081	0	31872	
6082	0	31874	
6083	0	31888	
6084	0	31916	
6085	0	31960	
6086	0	31976	
6087	0	32004	
6088	0	32028	
6089	0	32052	
6090	0	32080	
6091	0	32112	
6092	0	32112	
6093	0	32120	
6094	0	32132	
6095	0	32128	
6096	0	32128	
6097	0	32132	
6098	0	32136	
6099	0	32160	
6100	0	32172	
6101	0	32192	
6102	0	32232	
6103	0	32256	
6104	0	32276	
6105	0	32296	
6106	0	32344	
6107	0	32372	
6108	0	32376	
6109	0	32402	
6110	0	32424	
6111	0	32424	
6112	0	32440	
6113	0	32436	
6114	0	32428	
6115	0	32420	
6116	0	32416	
6117	0	32424	
6118	0	32428	
6119	0	32436	
6120	0	32464	
6121	0	32476	
6122	0	32480	
6123	0	32508	
6124	0	32544	
6125	0	32600	
6126	0	32628	
6127	0	32672	
6128	0	32696	
6129	0	32720	
6130	0	32760	
6131	0	32780	
6132	0	32800	
6133	0	32800	
6134	0	32800	
6135	0	32812	
6136	0	32828	
6137	0	32844	
6138	0	32852	
6139	0	32864	
6140	0	32864	
6141	0	32860	
6142	0	32880	
6143	0	32920	
6144	0	32960	
6145	0	32984	
6146	0	32984	
6147	0	33002	
6148	0	33052	
6149	0	33088	
6150	0	33108	
6151	0	33128	
6152	0	33168	
6153	0	33168	
6154	0	33186	
6155	0	33184	
6156	0	33192	
6157	0	33208	
6158	0	33208	
6159	0	33196	
6160	0	33216	
6161	0	33240	
6162	0	33248	
6163	0	33256	
6164	0	33312	
6165	0	33352	
6166	0	33400	
6167	0	33420	
6168	0	33428	
6169	0	33456	
6170	0	33464	
6171	0	33492	
6172	0	33500	
6173	0	33488	
6174	0	33500	
6175	0	33504	
6176	0	33504	
6177	0	33508	
6178	0	33498	
6179	0	33484	
6180	0	33500	
6181	0	33516	
6182	0	33544	
6183	0	33568	
6184	0	33588	
6185	0	33616	
6186	0	33642	
6187	0	33636	
6188	0	33660	
6189	0	33688	
6190	0	33700	
6191	0	33722	
6192	0	33732	
6193	0	33760	
6194	0	33756	
6195	0	33768	
6196	0	33772	
6197	0	33772	
6198	0	33752	
6199	0	33740	
6200	0	33732	
6201	0	33752	
6202	0	33776	
6203	0	33804	
6204	0	33850	
6205	0	33876	
6206	0	33884	
6207	0	33880	
6208	0	33900	
6209	0	33904	
6210	0	33920	
6211	0	33912	
6212	0	33896	
6213	0	33892	
6214	0	33884	
6215	0	33860	
6216	0	33848	
6217	0	33836	
6218	0	33824	
6219	0	33848	
6220	0	33864	
6221	0	33882	
6222	0	33876	
6223	0	33880	
6224	0	33880	
6225	0	33888	
6226	0	33906	
6227	0	33896	
6228	0	33904	
6229	0	33912	
6230	0	33944	
6231	0	33952	
6232	0	33944	
6233	0	33920	
6234	0	33900	
6235	0	33892	
6236	0	33860	
6237	0	33840	
6238	0	33818	
6239	0	33816	
6240	0	33796	
6241	0	33786	
6242	0	33776	
6243	0	33784	
6244	0	33808	
6245	0	33856	
6246	0	33860	
6247	0	33872	
6248	0	33888	
6249	0	33916	
6250	0	33912	
6251	0	33918	
6252	0	33904	
6253	0	33884	
6254	0	33852	
6255	0	33840	
6256	0	33836	
6257	0	33840	
6258	0	33848	
6259	0	33832	
6260	0	33808	
6261	0	33800	
6262	0	33804	
6263	0	33808	
6264	0	33844	
6265	0	33848	
6266	0	33860	
6267	0	33856	
6268	0	33868	
6269	0	33892	
6270	0	33908	
6271	0	33920	
6272	0	33924	
6273	0	33920	
6274	0	33912	
6275	0	33916	
6276	0	33898	
6277	0	33886	
6278	0	33856	
6279	0	33828	
6280	0	33800	
6281	0	33744	
6282	0	33720	
6283	0	33704	
6284	0	33712	
6285	0	33696	
6286	0	33688	
6287	0	33640	
6288	0	33600	
6289	0	33584	
6290	0	33528	
6291	0	33460	
6292	0	33422	
6293	0	33384	
6294	0	33292	
6295	0	33244	
6296	0	33200	
6297	0	33156	
6298	0	33088	
6299	0	33024	
6300	0	32960	
6301	0	32908	
6302	0	32864	
6303	0	32836	
6304	0	32800	
6305	0	32760	
6306	0	32748	
6307	0	32716	
6308	0	32688	
6309	0	32640	
6310	0	32600	
6311	0	32528	
6312	0	32458	
6313	0	32392	
6314	0	32336	
6315	0	32266	
6316	0	32192	
6317	0	32116	
6318	0	32000	
6319	0	31940	
6320	0	31904	
6321	0	31856	
6322	0	31788	
6323	0	31736	
6324	0	31682	
6325	0	31648	
6326	0	31608	
6327	0	31560	
6328	0	31496	
6329	0	31452	
6330	0	31392	
6331	0	31338	
6332	0	31296	
6333	0	31226	
6334	0	31192	
6335	0	31136	
6336	0	31044	
6337	0	30972	
6338	0	30924	
6339	0	30920	
6340	0	30900	
6341	0	30896	
6342	0	30900	
6343	0	30936	
6344	0	30956	
6345	0	30980	
6346	0	30976	
6347	0	30972	
6348	0	31012	
6349	0	31040	
6350	0	31052	
6351	0	31020	
6352	0	31008	
6353	0	31000	
6354	0	30972	
6355	0	30968	
6356	0	30952	
6357	0	30924	
6358	0	30892	
6359	0	30896	
6360	0	30928	
6361	0	30940	
6362	0	30940	
6363	0	30964	
6364	0	30996	
6365	0	30996	
6366	0	31012	
6367	0	31064	
6368	0	31112	
6369	0	31132	
6370	0	31114	
6371	0	31108	
6372	0	31104	
6373	0	31108	
6374	0	31096	
6375	0	31092	
6376	0	31096	
6377	0	31104	
6378	0	31084	
6379	0	31096	
6380	0	31104	
6381	0	31124	
6382	0	31136	
6383	0	31192	
6384	0	31230	
6385	0	31268	
6386	0	31296	
6387	0	31324	
6388	0	31336	
6389	0	31352	
6390	0	31368	
6391	0	31404	
6392	0	31424	
6393	0	31424	
6394	0	31424	
6395	0	31444	
6396	0	31468	
6397	0	31492	
6398	0	31486	
6399	0	31504	
6400	0	31500	
6401	0	31500	
6402	0	31496	
6403	0	31540	
6404	0	31576	
6405	0	31580	
6406	0	31588	
6407	0	31632	
6408	0	31656	
6409	0	31676	
6410	0	31704	
6411	0	31704	
6412	0	31650	
6413	0	31636	
6414	0	31628	
6415	0	31636	
6416	0	31640	
6417	0	31642	
6418	0	31616	
6419	0	31616	
6420	0	31608	
6421	0	31628	
6422	0	31660	
6423	0	31684	
6424	0	31696	
6425	0	31704	
6426	0	31728	
6427	0	31772	
6428	0	31800	
6429	0	31822	
6430	0	31848	
6431	0	31848	
6432	0	31848	
6433	0	31845	
6434	0	31840	
6435	0	31842	
6436	0	31836	
6437	0	31812	
6438	0	31804	
6439	0	31796	
6440	0	31792	
6441	0	31776	
6442	0	31788	
6443	0	31812	
6444	0	31840	
6445	0	31852	
6446	0	31840	
6447	0	31824	
6448	0	31792	
6449	0	31750	
6450	0	31720	
6451	0	31720	
6452	0	31680	
6453	0	31656	
6454	0	31648	
6455	0	31648	
6456	0	31624	
6457	0	31628	
6458	0	31628	
6459	0	31608	
6460	0	31584	
6461	0	31632	
6462	0	31688	
6463	0	31730	
6464	0	31784	
6465	0	31784	
6466	0	31800	
6467	0	31822	
6468	0	31872	
6469	0	31896	
6470	0	31892	
6471	0	31876	
6472	0	31848	
6473	0	31824	
6474	0	31800	
6475	0	31744	
6476	0	31702	
6477	0	31680	
6478	0	31704	
6479	0	31676	
6480	0	31668	
6481	0	31656	
6482	0	31640	
6483	0	31656	
6484	0	31676	
6485	0	31674	
6486	0	31652	
6487	0	31692	
6488	0	31728	
6489	0	31752	
6490	0	31784	
6491	0	31802	
6492	0	31820	
6493	0	31808	
6494	0	31772	
6495	0	31738	
6496	0	31692	
6497	0	31648	
6498	0	31636	
6499	0	31620	
6500	0	31596	
6501	0	31584	
6502	0	31572	
6503	0	31598	
6504	0	31604	
6505	0	31608	
6506	0	31608	
6507	0	31624	
6508	0	31642	
6509	0	31672	
6510	0	31724	
6511	0	31748	
6512	0	31752	
6513	0	31770	
6514	0	31812	
6515	0	31826	
6516	0	31812	
6517	0	31810	
6518	0	31804	
6519	0	31800	
6520	0	31820	
6521	0	31832	
6522	0	31864	
6523	0	31860	
6524	0	31860	
6525	0	31864	
6526	0	31890	
6527	0	31932	
6528	0	31936	
6529	0	31944	
6530	0	31940	
6531	0	31948	
6532	0	31960	
6533	0	31980	
6534	0	31988	
6535	0	31982	
6536	0	31954	
6537	0	31960	
6538	0	31978	
6539	0	32016	
6540	0	32064	
6541	0	32096	
6542	0	32104	
6543	0	32104	
6544	0	32120	
6545	0	32116	
6546	0	32112	
6547	0	32132	
6548	0	32148	
6549	0	32172	
6550	0	32160	
6551	0	32128	
6552	0	32128	
6553	0	32136	
6554	0	32160	
6555	0	32208	
6556	0	32248	
6557	0	32264	
6558	0	32252	
6559	0	32268	
6560	0	32288	
6561	0	32280	
6562	0	32292	
6563	0	32302	
6564	0	32276	
6565	0	32276	
6566	0	32280	
6567	0	32290	
6568	0	32280	
6569	0	32272	
6570	0	32256	
6571	0	32204	
6572	0	32128	
6573	0	32128	
6574	0	32100	
6575	0	32076	
6576	0	32072	
6577	0	32048	
6578	0	32020	
6579	0	32008	
6580	0	32032	
6581	0	32032	
6582	0	32044	
6583	0	32092	
6584	0	32132	
6585	0	32140	
6586	0	32188	
6587	0	32252	
6588	0	32312	
6589	0	32336	
6590	0	32352	
6591	0	32352	
6592	0	32360	
6593	0	32384	
6594	0	32452	
6595	0	32520	
6596	0	32552	
6597	0	32576	
6598	0	32616	
6599	0	32624	
6600	0	32620	
6601	0	32656	
6602	0	32696	
6603	0	32736	
6604	0	32772	
6605	0	32794	
6606	0	32784	
6607	0	32772	
6608	0	32802	
6609	0	32818	
6610	0	32840	
6611	0	32804	
6612	0	32756	
6613	0	32720	
6614	0	32708	
6615	0	32664	
6616	0	32620	
6617	0	32636	
6618	0	32660	
6619	0	32684	
6620	0	32756	
6621	0	32888	
6622	0	33046	
6623	0	33184	
6624	0	33332	
6625	0	33472	
6626	0	33592	
6627	0	33668	
6628	0	33740	
6629	0	33824	
6630	0	33876	
6631	0	33904	
6632	0	33948	
6633	0	34014	
6634	0	34078	
6635	0	34092	
6636	0	34080	
6637	0	34080	
6638	0	34024	
6639	0	33968	
6640	0	33888	
6641	0	33808	
6642	0	33696	
6643	0	33592	
6644	0	33508	
6645	0	33444	
6646	0	33354	
6647	0	33264	
6648	0	33233	
6649	0	33210	
6650	0	33180	
6651	0	33172	
6652	0	33128	
6653	0	33108	
6654	0	33032	
6655	0	32960	
6656	0	32928	
6657	0	32868	
6658	0	32794	
6659	0	32728	
6660	0	32704	
6661	0	32664	
6662	0	32602	
6663	0	32576	
6664	0	32560	
6665	0	32560	
6666	0	32572	
6667	0	32560	
6668	0	32544	
6669	0	32548	
6670	0	32532	
6671	0	32492	
6672	0	32448	
6673	0	32392	
6674	0	32332	
6675	0	32280	
6676	0	32248	
6677	0	32240	
6678	0	32228	
6679	0	32216	
6680	0	32220	
6681	0	32248	
6682	0	32240	
6683	0	32192	
6684	0	32168	
6685	0	32160	
6686	0	32132	
6687	0	32124	
6688	0	32122	
6689	0	32080	
6690	0	32036	
6691	0	31988	
6692	0	31924	
6693	0	31869	
6694	0	31840	
6695	0	31832	
6696	0	31836	
6697	0	31856	
6698	0	31864	
6699	0	31896	
6700	0	31900	
6701	0	31928	
6702	0	31952	
6703	0	31980	
6704	0	32028	
6705	0	32086	
6706	0	32140	
6707	0	32180	
6708	0	32204	
6709	0	32224	
6710	0	32240	
6711	0	32256	
6712	0	32260	
6713	0	32220	
6714	0	32240	
6715	0	32248	
6716	0	32228	
6717	0	32228	
6718	0	32236	
6719	0	32232	
6720	0	32202	
6721	0	32164	
6722	0	32140	
6723	0	32144	
6724	0	32160	
6725	0	32208	
6726	0	32208	
6727	0	32216	
6728	0	32224	
6729	0	32264	
6730	0	32268	
6731	0	32288	
6732	0	32320	
6733	0	32332	
6734	0	32340	
6735	0	32328	
6736	0	32340	
6737	0	32384	
6738	0	32428	
6739	0	32436	
6740	0	32424	
6741	0	32412	
6742	0	32440	
6743	0	32458	
6744	0	32444	
6745	0	32428	
6746	0	32440	
6747	0	32468	
6748	0	32500	
6749	0	32528	
6750	0	32548	
6751	0	32576	
6752	0	32592	
6753	0	32612	
6754	0	32610	
6755	0	32604	
6756	0	32608	
6757	0	32636	
6758	0	32680	
6759	0	32720	
6760	0	32736	
6761	0	32720	
6762	0	32688	
6763	0	32628	
6764	0	32592	
6765	0	32624	
6766	0	32732	
6767	0	32976	
6768	0	33244	
6769	0	33572	
6770	0	33912	
6771	0	34184	
6772	0	34320	
6773	0	34396	
6774	0	34520	
6775	0	34770	
6776	0	35096	
6777	0	35560	
6778	0	36172	
6779	0	36868	
6780	0	37688	
6781	0	38720	
6782	0	39948	
6783	0	41100	
6784	0	42228	
6785	0	43456	
6786	0	44784	
6787	0	46212	
6788	0	47548	
6789	0	48700	
6790	0	49616	
6791	0	50456	
6792	0	51296	
6793	0	52140	
6794	0	52896	
6795	0	53256	
6796	0	52932	
6797	0	51568	
6798	0	49180	
6799	0	46260	
6800	0	43120	
6801	0	39952	
6802	0	36928	
6803	0	34320	
6804	0	32352	
6805	0	31144	
6806	0	30456	
6807	0	30032	
6808	0	29776	
6809	0	29624	
6810	0	29594	
6811	0	29680	
6812	0	29864	
6813	0	30076	
6814	0	30288	
6815	0	30514	
6816	0	30732	
6817	0	30936	
6818	0	31116	
6819	0	31244	
6820	0	31372	
6821	0	31468	
6822	0	31580	
6823	0	31680	
6824	0	31756	
6825	0	31856	
6826	0	31898	
6827	0	31924	
6828	0	31908	
6829	0	31872	
6830	0	31896	
6831	0	31900	
6832	0	31844	
6833	0	31816	
6834	0	31792	
6835	0	31724	
6836	0	31656	
6837	0	31592	
6838	0	31508	
6839	0	31392	
6840	0	31340	
6841	0	31316	
6842	0	31304	
6843	0	31320	
6844	0	31348	
6845	0	31372	
6846	0	31396	
6847	0	31436	
6848	0	31460	
6849	0	31460	
6850	0	31472	
6851	0	31456	
6852	0	31456	
6853	0	31448	
6854	0	31420	
6855	0	31436	
6856	0	31412	
6857	0	31408	
6858	0	31392	
6859	0	31448	
6860	0	31532	
6861	0	31562	
6862	0	31592	
6863	0	31648	
6864	0	31680	
6865	0	31708	
6866	0	31728	
6867	0	31740	
6868	0	31748	
6869	0	31756	
6870	0	31786	
6871	0	31812	
6872	0	31804	
6873	0	31768	
6874	0	31744	
6875	0	31764	
6876	0	31776	
6877	0	31776	
6878	0	31820	
6879	0	31880	
6880	0	31904	
6881	0	31922	
6882	0	31948	
6883	0	31976	
6884	0	32000	
6885	0	31992	
6886	0	31996	
6887	0	31976	
6888	0	31960	
6889	0	31984	
6890	0	32024	
6891	0	32064	
6892	0	32044	
6893	0	32052	
6894	0	32108	
6895	0	32172	
6896	0	32224	
6897	0	32244	
6898	0	32308	
6899	0	32324	
6900	0	32324	
6901	0	32348	
6902	0	32364	
6903	0	32408	
6904	0	32440	
6905	0	32428	
6906	0	32408	
6907	0	32396	
6908	0	32404	
6909	0	32420	
6910	0	32416	
6911	0	32388	
6912	0	32368	
6913	0	32316	
6914	0	32296	
6915	0	32296	
6916	0	32284	
6917	0	32292	
6918	0	32328	
6919	0	32356	
6920	0	32374	
6921	0	32416	
6922	0	32460	
6923	0	32480	
6924	0	32540	
6925	0	32612	
6926	0	32640	
6927	0	32684	
6928	0	32712	
6929	0	32760	
6930	0	32784	
6931	0	32792	
6932	0	32780	
6933	0	32748	
6934	0	32760	
6935	0	32752	
6936	0	32744	
6937	0	32746	
6938	0	32768	
6939	0	32756	
6940	0	32760	
6941	0	32800	
6942	0	32824	
6943	0	32832	
6944	0	32836	
6945	0	32888	
6946	0	32928	
6947	0	32972	
6948	0	32984	
6949	0	32984	
6950	0	32992	
6951	0	32952	
6952	0	32948	
6953	0	32942	
6954	0	32936	
6955	0	32920	
6956	0	32908	
6957	0	32920	
6958	0	32940	
6959	0	32964	
6960	0	32988	
6961	0	32968	
6962	0	32952	
6963	0	32940	
6964	0	32920	
6965	0	32888	
6966	0	32896	
6967	0	32944	
6968	0	33004	
6969	0	33096	
6970	0	33164	
6971	0	33228	
6972	0	33264	
6973	0	33256	
6974	0	33232	
6975	0	33216	
6976	0	33180	
6977	0	33176	
6978	0	33160	
6979	0	33144	
6980	0	33132	
6981	0	33144	
6982	0	33176	
6983	0	33208	
6984	0	33260	
6985	0	33312	
6986	0	33360	
6987	0	33376	
6988	0	33372	
6989	0	33376	
6990	0	33376	
6991	0	33388	
6992	0	33360	
6993	0	33312	
6994	0	33272	
6995	0	33236	
6996	0	33240	
6997	0	33240	
6998	0	33216	
6999	0	33208	
7000	0	33208	
7001	0	33236	
7002	0	33256	
7003	0	33296	
7004	0	33304	
7005	0	33312	
7006	0	33280	
7007	0	33248	
7008	0	33248	
7009	0	33252	
7010	0	33248	
7011	0	33216	
7012	0	33200	
7013	0	33176	
7014	0	33166	
7015	0	33184	
7016	0	33184	
7017	0	33184	
7018	0	33160	
7019	0	33168	
7020	0	33140	
7021	0	33124	
7022	0	33128	
7023	0	33144	
7024	0	33160	
7025	0	33176	
7026	0	33184	
7027	0	33176	
7028	0	33184	
7029	0	33176	
7030	0	33168	
7031	0	33132	
7032	0	33104	
7033	0	33120	
7034	0	33160	
7035	0	33186	
7036	0	33184	
7037	0	33208	
7038	0	33216	
7039	0	33248	
7040	0	33260	
7041	0	33284	
7042	0	33296	
7043	0	33256	
7044	0	33244	
7045	0	33272	
7046	0	33290	
7047	0	33344	
7048	0	33380	
7049	0	33404	
7050	0	33428	
7051	0	33432	
7052	0	33376	
7053	0	33336	
7054	0	33284	
7055	0	33252	
7056	0	33224	
7057	0	33208	
7058	0	33178	
7059	0	33148	
7060	0	33128	
7061	0	33152	
7062	0	33144	
7063	0	33124	
7064	0	33096	
7065	0	33054	
7066	0	33000	
7067	0	32964	
7068	0	32916	
7069	0	32908	
7070	0	32880	
7071	0	32816	
7072	0	32773	
7073	0	32704	
7074	0	32640	
7075	0	32600	
7076	0	32556	
7077	0	32488	
7078	0	32428	
7079	0	32344	
7080	0	32252	
7081	0	32176	
7082	0	32108	
7083	0	32044	
7084	0	32004	
7085	0	31944	
7086	0	31892	
7087	0	31864	
7088	0	31816	
7089	0	31726	
7090	0	31672	
7091	0	31628	
7092	0	31552	
7093	0	31444	
7094	0	31400	
7095	0	31380	
7096	0	31386	
7097	0	31360	
7098	0	31288	
7099	0	31240	
7100	0	31226	
7101	0	31152	
7102	0	31100	
7103	0	31040	
7104	0	31004	
7105	0	30956	
7106	0	30936	
7107	0	30888	
7108	0	30848	
7109	0	30832	
7110	0	30872	
7111	0	30888	
7112	0	30892	
7113	0	30888	
7114	0	30852	
7115	0	30784	
7116	0	30730	
7117	0	30708	
7118	0	30676	
7119	0	30654	
7120	0	30656	
7121	0	30688	
7122	0	30740	
7123	0	30776	
7124	0	30762	
7125	0	30752	
7126	0	30756	
7127	0	30756	
7128	0	30776	
7129	0	30764	
7130	0	30776	
7131	0	30768	
7132	0	30764	
7133	0	30760	
7134	0	30724	
7135	0	30670	
7136	0	30660	
7137	0	30664	
7138	0	30664	
7139	0	30634	
7140	0	30624	
7141	0	30658	
7142	0	30732	
7143	0	30798	
7144	0	30832	
7145	0	30884	
7146	0	30912	
7147	0	30960	
7148	0	30976	
7149	0	30988	
7150	0	30996	
7151	0	31016	
7152	0	31024	
7153	0	31020	
7154	0	31044	
7155	0	31080	
7156	0	31100	
7157	0	31112	
7158	0	31124	
7159	0	31140	
7160	0	31148	
7161	0	31184	
7162	0	31232	
7163	0	31264	
7164	0	31284	
7165	0	31272	
7166	0	31288	
7167	0	31328	
7168	0	31360	
7169	0	31380	
7170	0	31392	
7171	0	31420	
7172	0	31420	
7173	0	31428	
7174	0	31440	
7175	0	31436	
7176	0	31424	
7177	0	31388	
7178	0	31400	
7179	0	31432	
7180	0	31456	
7181	0	31456	
7182	0	31448	
7183	0	31436	
7184	0	31500	
7185	0	31564	
7186	0	31604	
7187	0	31608	
7188	0	31624	
7189	0	31616	
7190	0	31636	
7191	0	31664	
7192	0	31676	
7193	0	31668	
7194	0	31648	
7195	0	31648	
7196	0	31648	
7197	0	31608	
7198	0	31540	
7199	0	31544	
7200	0	31536	
7201	0	31564	
7202	0	31600	
7203	0	31604	
7204	0	31620	
7205	0	31620	
7206	0	31652	
7207	0	31664	
7208	0	31672	
7209	0	31696	
7210	0	31704	
7211	0	31730	
7212	0	31748	
7213	0	31752	
7214	0	31760	
7215	0	31776	
7216	0	31740	
7217	0	31712	
7218	0	31716	
7219	0	31700	
7220	0	31672	
7221	0	31636	
7222	0	31628	
7223	0	31648	
7224	0	31644	
7225	0	31642	
7226	0	31648	
7227	0	31672	
7228	0	31676	
7229	0	31656	
7230	0	31662	
7231	0	31640	
7232	0	31628	
7233	0	31640	
7234	0	31676	
7235	0	31656	
7236	0	31628	
7237	0	31632	
7238	0	31620	
7239	0	31656	
7240	0	31680	
7241	0	31704	
7242	0	31736	
7243	0	31784	
7244	0	31816	
7245	0	31820	
7246	0	31850	
7247	0	31856	
7248	0	31840	
7249	0	31816	
7250	0	31768	
7251	0	31744	
7252	0	31760	
7253	0	31760	
7254	0	31780	
7255	0	31780	
7256	0	31756	
7257	0	31680	
7258	0	31644	
7259	0	31604	
7260	0	31580	
7261	0	31580	
7262	0	31572	
7263	0	31582	
7264	0	31600	
7265	0	31636	
7266	0	31644	
7267	0	31624	
7268	0	31632	
7269	0	31684	
7270	0	31708	
7271	0	31725	
7272	0	31772	
7273	0	31784	
7274	0	31794	
7275	0	31832	
7276	0	31824	
7277	0	31816	
7278	0	31796	
7279	0	31772	
7280	0	31792	
7281	0	31784	
7282	0	31784	
7283	0	31792	
7284	0	31828	
7285	0	31872	
7286	0	31912	
7287	0	31944	
7288	0	31932	
7289	0	31924	
7290	0	31928	
7291	0	31928	
7292	0	31920	
7293	0	31892	
7294	0	31920	
7295	0	31948	
7296	0	31984	
7297	0	32028	
7298	0	32032	
7299	0	32012	
7300	0	32000	
7301	0	32000	
7302	0	32008	
7303	0	32024	
7304	0	32010	
7305	0	31992	
7306	0	31972	
7307	0	31970	
7308	0	31940	
7309	0	31940	
7310	0	31952	
7311	0	31988	
7312	0	32012	
7313	0	32018	
7314	0	32040	
7315	0	32040	
7316	0	32032	
7317	0	32004	
7318	0	32004	
7319	0	32016	
7320	0	32032	
7321	0	32052	
7322	0	32098	
7323	0	32168	
7324	0	32236	
7325	0	32257	
7326	0	32280	
7327	0	32360	
7328	0	32420	
7329	0	32496	
7330	0	32580	
7331	0	32612	
7332	0	32608	
7333	0	32588	
7334	0	32608	
7335	0	32596	
7336	0	32544	
7337	0	32512	
7338	0	32544	
7339	0	32544	
7340	0	32538	
7341	0	32540	
7342	0	32544	
7343	0	32564	
7344	0	32584	
7345	0	32666	
7346	0	32748	
7347	0	32858	
7348	0	32968	
7349	0	33072	
7350	0	33184	
7351	0	33276	
7352	0	33388	
7353	0	33496	
7354	0	33612	
7355	0	33744	
7356	0	33840	
7357	0	33908	
7358	0	33940	
7359	0	33968	
7360	0	33988	
7361	0	34000	
7362	0	34004	
7363	0	33964	
7364	0	33964	
7365	0	33940	
7366	0	33840	
7367	0	33720	
7368	0	33604	
7369	0	33504	
7370	0	33416	
7371	0	33312	
7372	0	33224	
7373	0	33092	
7374	0	32960	
7375	0	32872	
7376	0	32812	
7377	0	32788	
7378	0	32728	
7379	0	32662	
7380	0	32624	
7381	0	32576	
7382	0	32544	
7383	0	32560	
7384	0	32550	
7385	0	32540	
7386	0	32524	
7387	0	32512	
7388	0	32528	
7389	0	32588	
7390	0	32608	
7391	0	32616	
7392	0	32608	
7393	0	32580	
7394	0	32562	
7395	0	32516	
7396	0	32456	
7397	0	32376	
7398	0	32312	
7399	0	32272	
7400	0	32248	
7401	0	32180	
7402	0	32140	
7403	0	32120	
7404	0	32068	
7405	0	32036	
7406	0	32012	
7407	0	32012	
7408	0	31996	
7409	0	32016	
7410	0	31988	
7411	0	31968	
7412	0	31936	
7413	0	31964	
7414	0	31972	
7415	0	31944	
7416	0	31928	
7417	0	31920	
7418	0	31940	
7419	0	31944	
7420	0	31970	
7421	0	31988	
7422	0	32002	
7423	0	32000	
7424	0	32028	
7425	0	32040	
7426	0	32040	
7427	0	32060	
7428	0	32092	
7429	0	32112	
7430	0	32112	
7431	0	32092	
7432	0	32080	
7433	0	32040	
7434	0	32020	
7435	0	31970	
7436	0	31940	
7437	0	31940	
7438	0	31944	
7439	0	31960	
7440	0	31968	
7441	0	31968	
7442	0	31944	
7443	0	31944	
7444	0	31972	
7445	0	31984	
7446	0	32000	
7447	0	32020	
7448	0	32064	
7449	0	32076	
7450	0	32096	
7451	0	32088	
7452	0	32068	
7453	0	32052	
7454	0	32032	
7455	0	32008	
7456	0	31988	
7457	0	31968	
7458	0	31952	
7459	0	31952	
7460	0	31944	
7461	0	31960	
7462	0	32008	
7463	0	32040	
7464	0	32064	
7465	0	32074	
7466	0	32080	
7467	0	32132	
7468	0	32156	
7469	0	32160	
7470	0	32168	
7471	0	32180	
7472	0	32196	
7473	0	32200	
7474	0	32216	
7475	0	32204	
7476	0	32204	
7477	0	32216	
7478	0	32208	
7479	0	32192	
7480	0	32180	
7481	0	32212	
7482	0	32276	
7483	0	32352	
7484	0	32396	
7485	0	32456	
7486	0	32508	
7487	0	32548	
7488	0	32520	
7489	0	32488	
7490	0	32496	
7491	0	32516	
7492	0	32552	
7493	0	32672	
7494	0	32926	
7495	0	33288	
7496	0	33632	
7497	0	34016	
7498	0	34372	
7499	0	34632	
7500	0	34716	
7501	0	34728	
7502	0	34798	
7503	0	35040	
7504	0	35452	
7505	0	36052	
7506	0	36776	
7507	0	37640	
7508	0	38720	
7509	0	39980	
7510	0	41232	
7511	0	42432	
7512	0	43668	
7513	0	45016	
7514	0	46464	
7515	0	47922	
7516	0	49200	
7517	0	50264	
7518	0	51112	
7519	0	51888	
7520	0	52776	
7521	0	53600	
7522	0	54160	
7523	0	54192	
7524	0	53324	
7525	0	51336	
7526	0	48576	
7527	0	45416	
7528	0	42064	
7529	0	38784	
7530	0	35892	
7531	0	33592	
7532	0	32008	
7533	0	30992	
7534	0	30384	
7535	0	30080	
7536	0	29888	
7537	0	29800	
7538	0	29816	
7539	0	29896	
7540	0	30072	
7541	0	30292	
7542	0	30528	
7543	0	30784	
7544	0	31046	
7545	0	31252	
7546	0	31416	
7547	0	31584	
7548	0	31764	
7549	0	31944	
7550	0	32052	
7551	0	32112	
7552	0	32144	
7553	0	32164	
7554	0	32164	
7555	0	32152	
7556	0	32104	
7557	0	32072	
7558	0	32036	
7559	0	31992	
7560	0	31956	
7561	0	31932	
7562	0	31914	
7563	0	31910	
7564	0	31914	
7565	0	31916	
7566	0	31912	
7567	0	31928	
7568	0	31928	
7569	0	31916	
7570	0	31902	
7571	0	31900	
7572	0	31888	
7573	0	31880	
7574	0	31880	
7575	0	31864	
7576	0	31872	
7577	0	31876	
7578	0	31888	
7579	0	31916	
7580	0	31924	
7581	0	31928	
7582	0	31956	
7583	0	31972	
7584	0	31976	
7585	0	31992	
7586	0	32016	
7587	0	32036	
7588	0	32048	
7589	0	32090	
7590	0	32112	
7591	0	32124	
7592	0	32176	
7593	0	32224	
7594	0	32258	
7595	0	32300	
7596	0	32340	
7597	0	32372	
7598	0	32396	
7599	0	32428	
7600	0	32432	
7601	0	32396	
7602	0	32416	
7603	0	32440	
7604	0	32464	
7605	0	32520	
7606	0	32572	
7607	0	32584	
7608	0	32604	
7609	0	32642	
7610	0	32682	
7611	0	32728	
7612	0	32760	
7613	0	32796	
7614	0	32808	
7615	0	32802	
7616	0	32828	
7617	0	32860	
7618	0	32848	
7619	0	32844	
7620	0	32844	
7621	0	32868	
7622	0	32888	
7623	0	32908	
7624	0	32928	
7625	0	32940	
7626	0	32960	
7627	0	33008	
7628	0	33060	
7629	0	33100	
7630	0	33128	
7631	0	33132	
7632	0	33140	
7633	0	33124	
7634	0	33120	
7635	0	33104	
7636	0	33120	
7637	0	33140	
7638	0	33144	
7639	0	33136	
7640	0	33128	
7641	0	33144	
7642	0	33176	
7643	0	33192	
7644	0	33200	
7645	0	33228	
7646	0	33238	
7647	0	33288	
7648	0	33328	
7649	0	33372	
7650	0	33400	
7651	0	33408	
7652	0	33424	
7653	0	33424	
7654	0	33452	
7655	0	33492	
7656	0	33516	
7657	0	33500	
7658	0	33488	
7659	0	33496	
7660	0	33508	
7661	0	33524	
7662	0	33564	
7663	0	33580	
7664	0	33596	
7665	0	33620	
7666	0	33656	
7667	0	33672	
7668	0	33692	
7669	0	33728	
7670	0	33748	
7671	0	33744	
7672	0	33744	
7673	0	33754	
7674	0	33756	
7675	0	33758	
7676	0	33752	
7677	0	33760	
7678	0	33780	
7679	0	33776	
7680	0	33784	
7681	0	33800	
7682	0	33824	
7683	0	33856	
7684	0	33880	
7685	0	33886	
7686	0	33904	
7687	0	33936	
7688	0	33976	
7689	0	33980	
7690	0	33972	
7691	0	33976	
7692	0	33964	
7693	0	33944	
7694	0	33956	
7695	0	33984	
7696	0	34024	
7697	0	34020	
7698	0	33992	
7699	0	33972	
7700	0	33976	
7701	0	33992	
7702	0	34036	
7703	0	34058	
7704	0	34088	
7705	0	34112	
7706	0	34136	
7707	0	34156	
7708	0	34188	
7709	0	34212	
7710	0	34224	
7711	0	34240	
7712	0	34244	
7713	0	34232	
7714	0	34244	
7715	0	34260	
7716	0	34256	
7717	0	34208	
7718	0	34176	
7719	0	34168	
7720	0	34156	
7721	0	34164	
7722	0	34204	
7723	0	34232	
7724	0	34272	
7725	0	34296	
7726	0	34344	
7727	0	34390	
7728	0	34428	
7729	0	34456	
7730	0	34476	
7731	0	34490	
7732	0	34478	
7733	0	34484	
7734	0	34504	
7735	0	34504	
7736	0	34524	
7737	0	34548	
7738	0	34536	
7739	0	34512	
7740	0	34500	
7741	0	34492	
7742	0	34476	
7743	0	34456	
7744	0	34428	
7745	0	34402	
7746	0	34396	
7747	0	34372	
7748	0	34376	
7749	0	34392	
7750	0	34408	
7751	0	34384	
7752	0	34384	
7753	0	34384	
7754	0	34388	
7755	0	34380	
7756	0	34354	
7757	0	34368	
7758	0	34352	
7759	0	34316	
7760	0	34276	
7761	0	34252	
7762	0	34260	
7763	0	34264	
7764	0	34264	
7765	0	34256	
7766	0	34236	
7767	0	34216	
7768	0	34220	
7769	0	34232	
7770	0	34228	
7771	0	34244	
7772	0	34232	
7773	0	34208	
7774	0	34200	
7775	0	34164	
7776	0	34116	
7777	0	34064	
7778	0	34024	
7779	0	34012	
7780	0	33968	
7781	0	33932	
7782	0	33872	
7783	0	33824	
7784	0	33824	
7785	0	33816	
7786	0	33776	
7787	0	33744	
7788	0	33752	
7789	0	33740	
7790	0	33684	
7791	0	33608	
7792	0	33536	
7793	0	33484	
7794	0	33408	
7795	0	33348	
7796	0	33300	
7797	0	33228	
7798	0	33112	
7799	0	33008	
7800	0	32916	
7801	0	32836	
7802	0	32764	
7803	0	32724	
7804	0	32688	
7805	0	32644	
7806	0	32612	
7807	0	32560	
7808	0	32512	
7809	0	32464	
7810	0	32420	
7811	0	32344	
7812	0	32274	
7813	0	32184	
7814	0	32096	
7815	0	31988	
7816	0	31904	
7817	0	31844	
7818	0	31760	
7819	0	31692	
7820	0	31636	
7821	0	31556	
7822	0	31468	
7823	0	31408	
7824	0	31352	
7825	0	31304	
7826	0	31256	
7827	0	31224	
7828	0	31180	
7829	0	31140	
7830	0	31104	
7831	0	31056	
7832	0	31000	
7833	0	30960	
7834	0	30908	
7835	0	30856	
7836	0	30812	
7837	0	30792	
7838	0	30764	
7839	0	30736	
7840	0	30708	
7841	0	30684	
7842	0	30700	
7843	0	30720	
7844	0	30732	
7845	0	30744	
7846	0	30772	
7847	0	30784	
7848	0	30816	
7849	0	30856	
7850	0	30880	
7851	0	30876	
7852	0	30852	
7853	0	30856	
7854	0	30868	
7855	0	30888	
7856	0	30928	
7857	0	30944	
7858	0	30936	
7859	0	30904	
7860	0	30882	
7861	0	30876	
7862	0	30884	
7863	0	30920	
7864	0	30972	
7865	0	30992	
7866	0	30996	
7867	0	31036	
7868	0	31064	
7869	0	31096	
7870	0	31148	
7871	0	31184	
7872	0	31208	
7873	0	31216	
7874	0	31236	
7875	0	31256	
7876	0	31276	
7877	0	31280	
7878	0	31300	
7879	0	31300	
7880	0	31322	
7881	0	31320	
7882	0	31344	
7883	0	31400	
7884	0	31444	
7885	0	31496	
7886	0	31518	
7887	0	31524	
7888	0	31548	
7889	0	31584	
7890	0	31592	
7891	0	31620	
7892	0	31672	
7893	0	31712	
7894	0	31732	
7895	0	31740	
7896	0	31712	
7897	0	31712	
7898	0	31700	
7899	0	31684	
7900	0	31668	
7901	0	31684	
7902	0	31700	
7903	0	31728	
7904	0	31756	
7905	0	31768	
7906	0	31784	
7907	0	31808	
7908	0	31860	
7909	0	31888	
7910	0	31884	
7911	0	31872	
7912	0	31882	
7913	0	31904	
7914	0	31924	
7915	0	31936	
7916	0	31952	
7917	0	31970	
7918	0	31968	
7919	0	31964	
7920	0	31968	
7921	0	31972	
7922	0	31976	
7923	0	31956	
7924	0	31988	
7925	0	32036	
7926	0	32072	
7927	0	32112	
7928	0	32128	
7929	0	32136	
7930	0	32140	
7931	0	32152	
7932	0	32152	
7933	0	32128	
7934	0	32092	
7935	0	32072	
7936	0	32064	
7937	0	32076	
7938	0	32068	
7939	0	32064	
7940	0	32064	
7941	0	32056	
7942	0	32052	
7943	0	32072	
7944	0	32056	
7945	0	32076	
7946	0	32104	
7947	0	32088	
7948	0	32108	
7949	0	32128	
7950	0	32152	
7951	0	32160	
7952	0	32156	
7953	0	32140	
7954	0	32136	
7955	0	32124	
7956	0	32088	
7957	0	32056	
7958	0	32062	
7959	0	32072	
7960	0	32070	
7961	0	32052	
7962	0	32028	
7963	0	32032	
7964	0	32060	
7965	0	32060	
7966	0	32044	
7967	0	32052	
7968	0	32068	
7969	0	32068	
7970	0	32076	
7971	0	32074	
7972	0	32040	
7973	0	32020	
7974	0	31992	
7975	0	31960	
7976	0	31968	
7977	0	31984	
7978	0	31960	
7979	0	31940	
7980	0	31928	
7981	0	31884	
7982	0	31876	
7983	0	31896	
7984	0	31912	
7985	0	31936	
7986	0	31944	
7987	0	31952	
7988	0	31952	
7989	0	31968	
7990	0	31996	
7991	0	31988	
7992	0	31964	
7993	0	31952	
7994	0	31936	
7995	0	31920	
7996	0	31908	
7997	0	31892	
7998	0	31856	
7999	0	31824	
8000	0	31804	
8001	0	31816	
8002	0	31856	
8003	0	31872	
8004	0	31900	
8005	0	31932	
8006	0	31964	
8007	0	32004	
8008	0	32004	
8009	0	32028	
8010	0	32048	
8011	0	32068	
8012	0	32052	
8013	0	32032	
8014	0	32006	
8015	0	31984	
8016	0	31970	
8017	0	31968	
8018	0	31992	
8019	0	31992	
8020	0	31984	
8021	0	32004	
8022	0	32040	
8023	0	32046	
8024	0	32032	
8025	0	32036	
8026	0	32056	
8027	0	32092	
8028	0	32088	
8029	0	32076	
8030	0	32068	
8031	0	32064	
8032	0	32068	
8033	0	32080	
8034	0	32082	
8035	0	32064	
8036	0	32056	
8037	0	32076	
8038	0	32084	
8039	0	32076	
8040	0	32084	
8041	0	32096	
8042	0	32108	
8043	0	32108	
8044	0	32122	
8045	0	32132	
8046	0	32136	
8047	0	32128	
8048	0	32116	
8049	0	32104	
8050	0	32096	
8051	0	32120	
8052	0	32132	
8053	0	32128	
8054	0	32100	
8055	0	32060	
8056	0	32024	
8057	0	32020	
8058	0	32026	
8059	0	32052	
8060	0	32040	
8061	0	32036	
8062	0	32036	
8063	0	32032	
8064	0	32044	
8065	0	32052	
8066	0	32088	
8067	0	32128	
8068	0	32176	
8069	0	32248	
8070	0	32316	
8071	0	32384	
8072	0	32432	
8073	0	32468	
8074	0	32480	
8075	0	32512	
8076	0	32548	
8077	0	32544	
8078	0	32552	
8079	0	32536	
8080	0	32532	
8081	0	32524	
8082	0	32506	
8083	0	32492	
8084	0	32500	
8085	0	32532	
8086	0	32562	
8087	0	32592	
8088	0	32628	
8089	0	32656	
8090	0	32632	
8091	0	32608	
8092	0	32596	
8093	0	32632	
8094	0	32720	
8095	0	32832	
8096	0	32944	
8097	0	33056	
8098	0	33140	
8099	0	33228	
8100	0	33288	
8101	0	33400	
8102	0	33520	
8103	0	33616	
8104	0	33714	
8105	0	33818	
8106	0	33880	
8107	0	33948	
8108	0	34032	
8109	0	34114	
8110	0	34200	
8111	0	34248	
8112	0	34232	
8113	0	34180	
8114	0	34092	
8115	0	33964	
8116	0	33848	
8117	0	33748	
8118	0	33672	
8119	0	33560	
8120	0	33464	
8121	0	33360	
8122	0	33292	
8123	0	33220	
8124	0	33166	
8125	0	33124	
8126	0	33116	
8127	0	33096	
8128	0	33064	
8129	0	33024	
8130	0	32984	
8131	0	32956	
8132	0	32922	
8133	0	32908	
8134	0	32848	
8135	0	32824	
8136	0	32804	
8137	0	32784	
8138	0	32784	
8139	0	32800	
8140	0	32840	
8141	0	32880	
8142	0	32860	
8143	0	32810	
8144	0	32788	
8145	0	32772	
8146	0	32762	
8147	0	32708	
8148	0	32668	
8149	0	32624	
8150	0	32596	
8151	0	32588	
8152	0	32548	
8153	0	32472	
8154	0	32396	
8155	0	32332	
8156	0	32272	
8157	0	32212	
8158	0	32156	
8159	0	32100	
8160	0	32088	
8161	0	32084	
8162	0	32124	
8163	0	32132	
8164	0	32148	
8165	0	32172	
8166	0	32176	
8167	0	32160	
8168	0	32148	
8169	0	32152	
8170	0	32192	
8171	0	32204	
8172	0	32208	
8173	0	32212	
8174	0	32200	
8175	0	32194	
8176	0	32204	
8177	0	32224	
8178	0	32228	
8179	0	32212	
8180	0	32210	
8181	0	32212	
8182	0	32220	
8183	0	32256	
8184	0	32276	
8185	0	32296	
8186	0	32328	
8187	0	32364	
8188	0	32420	
8189	0	32456	
8190	0	32488	
8191	0	32506	
8192	0	32520	
8193	0	32544	
8194	0	32512	
8195	0	32520	
8196	0	32532	
8197	0	32544	
8198	0	32520	
8199	0	32496	
8200	0	32488	
8201	0	32480	
8202	0	32480	
8203	0	32496	
8204	0	32520	
8205	0	32540	
8206	0	32552	
8207	0	32576	
8208	0	32592	
8209	0	32602	
8210	0	32616	
8211	0	32648	
8212	0	32656	
8213	0	32664	
8214	0	32644	
8215	0	32632	
8216	0	32628	
8217	0	32648	
8218	0	32632	
8219	0	32628	
8220	0	32602	
8221	0	32580	
8222	0	32600	
8223	0	32616	
8224	0	32620	
8225	0	32652	
8226	0	32680	
8227	0	32724	
8228	0	32756	
8229	0	32856	
8230	0	32940	
8231	0	32992	
8232	0	33040	
8233	0	33044	
8234	0	33040	
8235	0	33056	
8236	0	33012	
8237	0	32968	
8238	0	32924	
8239	0	32880	
8240	0	32824	
8241	0	32864	
8242	0	33072	
8243	0	33364	
8244	0	33668	
8245	0	33996	
8246	0	34296	
8247	0	34528	
8248	0	34640	
8249	0	34692	
8250	0	34768	
8251	0	34924	
8252	0	35240	
8253	0	35728	
8254	0	36340	
8255	0	37120	
8256	0	38056	
8257	0	39176	
8258	0	40284	
8259	0	41400	
8260	0	42548	
8261	0	43860	
8262	0	45224	
8263	0	46592	
8264	0	47772	
8265	0	48800	
8266	0	49636	
8267	0	50512	
8268	0	51516	
8269	0	52392	
8270	0	53088	
8271	0	53248	
8272	0	52424	
8273	0	50504	
8274	0	47844	
8275	0	44824	
8276	0	41684	
8277	0	38656	
8278	0	35984	
8279	0	33944	
8280	0	32552	
8281	0	31668	
8282	0	31200	
8283	0	30976	
8284	0	30906	
8285	0	30880	
8286	0	30868	
8287	0	30848	
8288	0	30880	
8289	0	30984	
8290	0	31140	
8291	0	31312	
8292	0	31444	
8293	0	31568	
8294	0	31668	
8295	0	31784	
8296	0	31964	
8297	0	32108	
8298	0	32200	
8299	0	32264	
8300	0	32264	
8301	0	32260	
8302	0	32232	
8303	0	32200	
8304	0	32152	
8305	0	32120	
8306	0	32080	
8307	0	32032	
8308	0	31992	
8309	0	31952	
8310	0	31936	
8311	0	31896	
8312	0	31866	
8313	0	31848	
8314	0	31832	
8315	0	31812	
8316	0	31820	
8317	0	31816	
8318	0	31804	
8319	0	31800	
8320	0	31796	
8321	0	31802	
8322	0	31800	
8323	0	31802	
8324	0	31824	
8325	0	31860	
8326	0	31892	
8327	0	31944	
8328	0	31988	
8329	0	32020	
8330	0	32032	
8331	0	32032	
8332	0	32028	
8333	0	32032	
8334	0	32040	
8335	0	32024	
8336	0	32028	
8337	0	32004	
8338	0	31980	
8339	0	31980	
8340	0	31964	
8341	0	31952	
8342	0	31948	
8343	0	31972	
8344	0	31984	
8345	0	32000	
8346	0	32012	
8347	0	32034	
8348	0	32060	
8349	0	32104	
8350	0	32152	
8351	0	32156	
8352	0	32160	
8353	0	32188	
8354	0	32176	
8355	0	32192	
8356	0	32220	
8357	0	32216	
8358	0	32208	
8359	0	32216	
8360	0	32240	
8361	0	32234	
8362	0	32240	
8363	0	32288	
8364	0	32320	
8365	0	32344	
8366	0	32380	
8367	0	32412	
8368	0	32450	
8369	0	32496	
8370	0	32544	
8371	0	32564	
8372	0	32572	
8373	0	32568	
8374	0	32568	
8375	0	32568	
8376	0	32568	
8377	0	32544	
8378	0	32560	
8379	0	32556	
8380	0	32540	
8381	0	32568	
8382	0	32592	
8383	0	32632	
8384	0	32676	
8385	0	32724	
8386	0	32784	
8387	0	32832	
8388	0	32848	
8389	0	32858	
8390	0	32864	
8391	0	32864	
8392	0	32884	
8393	0	32888	
8394	0	32904	
8395	0	32920	
8396	0	32912	
8397	0	32916	
8398	0	32946	
8399	0	32952	
8400	0	32948	
8401	0	32936	
8402	0	32948	
8403	0	32976	
8404	0	33024	
8405	0	33084	
8406	0	33112	
8407	0	33120	
8408	0	33152	
8409	0	33196	
8410	0	33228	
8411	0	33240	
8412	0	33260	
8413	0	33268	
8414	0	33288	
8415	0	33296	
8416	0	33292	
8417	0	33312	
8418	0	33324	
8419	0	33312	
8420	0	33304	
8421	0	33320	
8422	0	33328	
8423	0	33376	
8424	0	33420	
8425	0	33452	
8426	0	33476	
8427	0	33480	
8428	0	33484	
8429	0	33484	
8430	0	33492	
8431	0	33508	
8432	0	33524	
8433	0	33536	
8434	0	33524	
8435	0	33500	
8436	0	33512	
8437	0	33520	
8438	0	33524	
8439	0	33540	
8440	0	33520	
8441	0	33524	
8442	0	33548	
8443	0	33572	
8444	0	33592	
8445	0	33616	
8446	0	33624	
8447	0	33684	
8448	0	33728	
8449	0	33761	
8450	0	33748	
8451	0	33756	
8452	0	33760	
8453	0	33792	
8454	0	33800	
8455	0	33828	
8456	0	33836	
8457	0	33844	
8458	0	33844	
8459	0	33840	
8460	0	33844	
8461	0	33860	
8462	0	33866	
8463	0	33904	
8464	0	33940	
8465	0	33964	
8466	0	33980	
8467	0	33984	
8468	0	33992	
8469	0	34008	
8470	0	34008	
8471	0	34024	
8472	0	34008	
8473	0	33980	
8474	0	33976	
8475	0	33980	
8476	0	33972	
8477	0	33972	
8478	0	33952	
8479	0	33956	
8480	0	33948	
8481	0	33940	
8482	0	33936	
8483	0	33940	
8484	0	33960	
8485	0	33984	
8486	0	34008	
8487	0	34020	
8488	0	34044	
8489	0	34058	
8490	0	34056	
8491	0	34052	
8492	0	34028	
8493	0	34028	
8494	0	34016	
8495	0	34004	
8496	0	34000	
8497	0	33984	
8498	0	33960	
8499	0	33956	
8500	0	33972	
8501	0	33964	
8502	0	33956	
8503	0	33970	
8504	0	33984	
8505	0	33988	
8506	0	34028	
8507	0	34024	
8508	0	34060	
8509	0	34068	
8510	0	34064	
8511	0	34056	
8512	0	34068	
8513	0	34080	
8514	0	34056	
8515	0	34024	
8516	0	34012	
8517	0	33984	
8518	0	33964	
8519	0	33944	
8520	0	33932	
8521	0	33924	
8522	0	33928	
8523	0	33924	
8524	0	33928	
8525	0	33952	
8526	0	33936	
8527	0	33932	
8528	0	33936	
8529	0	33928	
8530	0	33924	
8531	0	33914	
8532	0	33924	
8533	0	33916	
8534	0	33864	
8535	0	33832	
8536	0	33784	
8537	0	33724	
8538	0	33656	
8539	0	33600	
8540	0	33556	
8541	0	33504	
8542	0	33444	
8543	0	33392	
8544	0	33356	
8545	0	33304	
8546	0	33218	
8547	0	33152	
8548	0	33076	
8549	0	33028	
8550	0	32988	
8551	0	32942	
8552	0	32876	
8553	0	32800	
8554	0	32730	
8555	0	32652	
8556	0	32568	
8557	0	32472	
8558	0	32392	
8559	0	32304	
8560	0	32212	
8561	0	32112	
8562	0	32064	
8563	0	32012	
8564	0	31944	
8565	0	31892	
8566	0	31850	
8567	0	31816	
8568	0	31760	
8569	0	31716	
8570	0	31680	
8571	0	31600	
8572	0	31514	
8573	0	31464	
8574	0	31408	
8575	0	31332	
8576	0	31264	
8577	0	31196	
8578	0	31132	
8579	0	31060	
8580	0	31016	
8581	0	30996	
8582	0	30964	
8583	0	30928	
8584	0	30924	
8585	0	30924	
8586	0	30900	
8587	0	30912	
8588	0	30916	
8589	0	30904	
8590	0	30896	
8591	0	30896	
