# OpenSignals Text File Format. Version 1
# {"00:07:80:4B:15:F7": {"position": 0, "device": "biosignalsplux", "device name": "00:07:80:4B:15:F7", "device connection": "BTH00:07:80:4B:15:F7", "sampling rate": 1000, "resolution": [16], "firmware version": 775, "comments": "", "keywords": "", "mode": 0, "sync interval": 2, "date": "2023-3-14", "time": "15:2:13.74", "channels": [1], "sensor": ["ECG"], "label": ["CH1"], "column": ["nSeq", "DI", "CH1"], "special": [{"SpO2": [80, 40, 5, 4, 3, 3]}, {"SpO2": [80, 40, 5, 4, 3, 3]}, {"SpO2": [80, 40, 5, 4, 3, 3]}, {"SpO2": [80, 40, 5, 4, 3, 3]}, {"SpO2": [80, 40, 5, 4, 3, 3]}, {"SpO2": [80, 40, 5, 4, 3, 3]}, {"SpO2": [80, 40, 5, 4, 3, 3]}, {"SpO2": [80, 40, 5, 4, 3, 3]}], "digital IO": [0, 1], "sleeve color": ["green"], "convertedValues": 0}}
# EndOfHeader
0	0	36496	
1	0	36402	
2	0	36266	
3	0	36096	
4	0	35932	
5	0	35800	
6	0	35692	
7	0	35554	
8	0	35368	
9	0	35136	
10	0	34928	
11	0	34752	
12	0	34564	
13	0	34400	
14	0	34276	
15	0	34072	
16	0	33960	
17	0	33880	
18	0	33704	
19	0	33532	
20	0	33376	
21	0	33236	
22	0	33088	
23	0	32902	
24	0	32708	
25	0	32508	
26	0	32360	
27	0	32192	
28	0	31972	
29	0	31752	
30	0	31560	
31	0	31372	
32	0	31228	
33	0	31150	
34	0	31044	
35	0	30904	
36	0	30824	
37	0	30704	
38	0	30580	
39	0	30512	
40	0	30458	
41	0	30344	
42	0	30224	
43	0	30096	
44	0	29984	
45	0	29874	
46	0	29696	
47	0	29556	
48	0	29472	
49	0	29428	
50	0	29404	
51	0	29336	
52	0	29328	
53	0	29292	
54	0	29296	
55	0	29324	
56	0	29328	
57	0	29296	
58	0	29254	
59	0	29220	
60	0	29200	
61	0	29184	
62	0	29176	
63	0	29180	
64	0	29212	
65	0	29218	
66	0	29216	
67	0	29224	
68	0	29240	
69	0	29272	
70	0	29260	
71	0	29208	
72	0	29120	
73	0	29084	
74	0	29153	
75	0	29232	
76	0	29254	
77	0	29300	
78	0	29316	
79	0	29278	
80	0	29288	
81	0	29332	
82	0	29332	
83	0	29356	
84	0	29368	
85	0	29376	
86	0	29392	
87	0	29314	
88	0	29344	
89	0	29392	
90	0	29426	
91	0	29424	
92	0	29464	
93	0	29496	
94	0	29536	
95	0	29572	
96	0	29592	
97	0	29644	
98	0	29700	
99	0	29708	
100	0	29716	
101	0	29748	
102	0	29792	
103	0	29888	
104	0	29978	
105	0	29992	
106	0	29976	
107	0	29948	
108	0	29956	
109	0	30004	
110	0	30080	
111	0	30184	
112	0	30248	
113	0	30288	
114	0	30324	
115	0	30314	
116	0	30320	
117	0	30364	
118	0	30416	
119	0	30440	
120	0	30472	
121	0	30484	
122	0	30508	
123	0	30508	
124	0	30472	
125	0	30500	
126	0	30528	
127	0	30512	
128	0	30488	
129	0	30444	
130	0	30428	
131	0	30480	
132	0	30524	
133	0	30540	
134	0	30656	
135	0	30752	
136	0	30792	
137	0	30816	
138	0	30880	
139	0	30916	
140	0	30914	
141	0	30864	
142	0	30860	
143	0	30872	
144	0	30908	
145	0	30964	
146	0	30984	
147	0	30996	
148	0	30964	
149	0	30912	
150	0	30896	
151	0	30896	
152	0	30948	
153	0	31000	
154	0	31052	
155	0	31068	
156	0	31072	
157	0	31056	
158	0	31084	
159	0	31152	
160	0	31192	
161	0	31268	
162	0	31324	
163	0	31320	
164	0	31292	
165	0	31248	
166	0	31312	
167	0	31372	
168	0	31346	
169	0	31272	
170	0	31280	
171	0	31312	
172	0	31340	
173	0	31332	
174	0	31328	
175	0	31352	
176	0	31412	
177	0	31476	
178	0	31560	
179	0	31596	
180	0	31560	
181	0	31536	
182	0	31592	
183	0	31642	
184	0	31644	
185	0	31636	
186	0	31628	
187	0	31604	
188	0	31544	
189	0	31472	
190	0	31470	
191	0	31480	
192	0	31456	
193	0	31456	
194	0	31464	
195	0	31472	
196	0	31476	
197	0	31468	
198	0	31508	
199	0	31616	
200	0	31680	
201	0	31684	
202	0	31728	
203	0	31700	
204	0	31704	
205	0	31756	
206	0	31820	
207	0	31844	
208	0	31808	
209	0	31716	
210	0	31652	
211	0	31680	
212	0	31700	
213	0	31660	
214	0	31672	
215	0	31710	
216	0	31724	
217	0	31768	
218	0	31784	
219	0	31788	
220	0	31796	
221	0	31826	
222	0	31848	
223	0	31860	
224	0	31898	
225	0	31900	
226	0	31882	
227	0	31860	
228	0	31820	
229	0	31804	
230	0	31888	
231	0	31940	
232	0	31944	
233	0	31944	
234	0	31944	
235	0	31968	
236	0	31968	
237	0	31980	
238	0	31988	
239	0	31976	
240	0	31988	
241	0	31932	
242	0	31868	
243	0	31864	
244	0	31908	
245	0	31968	
246	0	31928	
247	0	31876	
248	0	31860	
249	0	31880	
250	0	31868	
251	0	31836	
252	0	31840	
253	0	31908	
254	0	31960	
255	0	32044	
256	0	32088	
257	0	32132	
258	0	32080	
259	0	32044	
260	0	32048	
261	0	32068	
262	0	32162	
263	0	32196	
264	0	32140	
265	0	32120	
266	0	32112	
267	0	32120	
268	0	32132	
269	0	32128	
270	0	32124	
271	0	32056	
272	0	32016	
273	0	32032	
274	0	32100	
275	0	32136	
276	0	32096	
277	0	32104	
278	0	32204	
279	0	32356	
280	0	32428	
281	0	32484	
282	0	32544	
283	0	32634	
284	0	32720	
285	0	32772	
286	0	32844	
287	0	32956	
288	0	33044	
289	0	33140	
290	0	33168	
291	0	33232	
292	0	33376	
293	0	33544	
294	0	33644	
295	0	33696	
296	0	33728	
297	0	33752	
298	0	33772	
299	0	33844	
300	0	33884	
301	0	33884	
302	0	33948	
303	0	33992	
304	0	34016	
305	0	33984	
306	0	34040	
307	0	34128	
308	0	34280	
309	0	34444	
310	0	34548	
311	0	34668	
312	0	34856	
313	0	35044	
314	0	35168	
315	0	35156	
316	0	35068	
317	0	35012	
318	0	35002	
319	0	35032	
320	0	35176	
321	0	35348	
322	0	35436	
323	0	35552	
324	0	35584	
325	0	35504	
326	0	35352	
327	0	35208	
328	0	35056	
329	0	34936	
330	0	34804	
331	0	34668	
332	0	34476	
333	0	34236	
334	0	34092	
335	0	34054	
336	0	34064	
337	0	34052	
338	0	34072	
339	0	34072	
340	0	34008	
341	0	33988	
342	0	33992	
343	0	33942	
344	0	33884	
345	0	33820	
346	0	33772	
347	0	33720	
348	0	33572	
349	0	33380	
350	0	33200	
351	0	33072	
352	0	32952	
353	0	32900	
354	0	32844	
355	0	32804	
356	0	32740	
357	0	32644	
358	0	32536	
359	0	32452	
360	0	32400	
361	0	32346	
362	0	32272	
363	0	32192	
364	0	32084	
365	0	31896	
366	0	31808	
367	0	31752	
368	0	31684	
369	0	31612	
370	0	31556	
371	0	31544	
372	0	31576	
373	0	31596	
374	0	31652	
375	0	31696	
376	0	31722	
377	0	31668	
378	0	31612	
379	0	31616	
380	0	31676	
381	0	31784	
382	0	31788	
383	0	31796	
384	0	31796	
385	0	31770	
386	0	31804	
387	0	31864	
388	0	31856	
389	0	31808	
390	0	31752	
391	0	31684	
392	0	31728	
393	0	31792	
394	0	31824	
395	0	31896	
396	0	31948	
397	0	31924	
398	0	31900	
399	0	31920	
400	0	31980	
401	0	32032	
402	0	32052	
403	0	32084	
404	0	32180	
405	0	32202	
406	0	32184	
407	0	32144	
408	0	32064	
409	0	31964	
410	0	31908	
411	0	31970	
412	0	32064	
413	0	32088	
414	0	32108	
415	0	32140	
416	0	32288	
417	0	32332	
418	0	32272	
419	0	32216	
420	0	32196	
421	0	32186	
422	0	32146	
423	0	32058	
424	0	31904	
425	0	31784	
426	0	31684	
427	0	31530	
428	0	31396	
429	0	31320	
430	0	31280	
431	0	31292	
432	0	31446	
433	0	31826	
434	0	32376	
435	0	33032	
436	0	33764	
437	0	34624	
438	0	35648	
439	0	36940	
440	0	38480	
441	0	40136	
442	0	41636	
443	0	43032	
444	0	44520	
445	0	46104	
446	0	47712	
447	0	49276	
448	0	50692	
449	0	51944	
450	0	53172	
451	0	54412	
452	0	55712	
453	0	56936	
454	0	58012	
455	0	59100	
456	0	60124	
457	0	60800	
458	0	60880	
459	0	59968	
460	0	58272	
461	0	55736	
462	0	52408	
463	0	48924	
464	0	45312	
465	0	41244	
466	0	36764	
467	0	32312	
468	0	28700	
469	0	26196	
470	0	24801	
471	0	24304	
472	0	24360	
473	0	24684	
474	0	25116	
475	0	25528	
476	0	25824	
477	0	26050	
478	0	26356	
479	0	26740	
480	0	27064	
481	0	27324	
482	0	27596	
483	0	27896	
484	0	28200	
485	0	28554	
486	0	28876	
487	0	29152	
488	0	29464	
489	0	29856	
490	0	30184	
491	0	30380	
492	0	30412	
493	0	30384	
494	0	30372	
495	0	30368	
496	0	30312	
497	0	30226	
498	0	30192	
499	0	30194	
500	0	30250	
501	0	30240	
502	0	30276	
503	0	30356	
504	0	30312	
505	0	30292	
506	0	30272	
507	0	30280	
508	0	30272	
509	0	30316	
510	0	30320	
511	0	30288	
512	0	30320	
513	0	30388	
514	0	30360	
515	0	30296	
516	0	30312	
517	0	30344	
518	0	30400	
519	0	30484	
520	0	30608	
521	0	30688	
522	0	30682	
523	0	30688	
524	0	30656	
525	0	30664	
526	0	30754	
527	0	30828	
528	0	30852	
529	0	30856	
530	0	30844	
531	0	30836	
532	0	30886	
533	0	30872	
534	0	30900	
535	0	30960	
536	0	31032	
537	0	31122	
538	0	31196	
539	0	31280	
540	0	31338	
541	0	31376	
542	0	31376	
543	0	31332	
544	0	31360	
545	0	31372	
546	0	31396	
547	0	31464	
548	0	31528	
549	0	31576	
550	0	31580	
551	0	31568	
552	0	31616	
553	0	31676	
554	0	31740	
555	0	31828	
556	0	31876	
557	0	31880	
558	0	31888	
559	0	31876	
560	0	31828	
561	0	31816	
562	0	31784	
563	0	31760	
564	0	31744	
565	0	31720	
566	0	31736	
567	0	31816	
568	0	31876	
569	0	31890	
570	0	31944	
571	0	31996	
572	0	32040	
573	0	32072	
574	0	32128	
575	0	32192	
576	0	32240	
577	0	32272	
578	0	32276	
579	0	32288	
580	0	32304	
581	0	32330	
582	0	32312	
583	0	32324	
584	0	32344	
585	0	32392	
586	0	32532	
587	0	32660	
588	0	32756	
589	0	32808	
590	0	32832	
591	0	32880	
592	0	32892	
593	0	32944	
594	0	32988	
595	0	32932	
596	0	32896	
597	0	32848	
598	0	32800	
599	0	32860	
600	0	32960	
601	0	33044	
602	0	33120	
603	0	33168	
604	0	33204	
605	0	33260	
606	0	33308	
607	0	33336	
608	0	33372	
609	0	33392	
610	0	33416	
611	0	33456	
612	0	33488	
613	0	33500	
614	0	33520	
615	0	33588	
616	0	33658	
617	0	33704	
618	0	33806	
619	0	33876	
620	0	33956	
621	0	34072	
622	0	34120	
623	0	34096	
624	0	34088	
625	0	34088	
626	0	34160	
627	0	34208	
628	0	34236	
629	0	34292	
630	0	34360	
631	0	34448	
632	0	34540	
633	0	34648	
634	0	34708	
635	0	34760	
636	0	34876	
637	0	35008	
638	0	35072	
639	0	35144	
640	0	35228	
641	0	35288	
642	0	35352	
643	0	35420	
644	0	35480	
645	0	35528	
646	0	35576	
647	0	35636	
648	0	35672	
649	0	35732	
650	0	35776	
651	0	35848	
652	0	35932	
653	0	36040	
654	0	36164	
655	0	36300	
656	0	36392	
657	0	36468	
658	0	36540	
659	0	36592	
660	0	36664	
661	0	36772	
662	0	36872	
663	0	36928	
664	0	36982	
665	0	37052	
666	0	37054	
667	0	37028	
668	0	37034	
669	0	37016	
670	0	37012	
671	0	37024	
672	0	37072	
673	0	37120	
674	0	37178	
675	0	37264	
676	0	37336	
677	0	37428	
678	0	37480	
679	0	37532	
680	0	37576	
681	0	37632	
682	0	37660	
683	0	37624	
684	0	37600	
685	0	37584	
686	0	37544	
687	0	37560	
688	0	37518	
689	0	37428	
690	0	37396	
691	0	37344	
692	0	37308	
693	0	37312	
694	0	37312	
695	0	37284	
696	0	37224	
697	0	37100	
698	0	36952	
699	0	36816	
700	0	36724	
701	0	36636	
702	0	36524	
703	0	36432	
704	0	36328	
705	0	36176	
706	0	35952	
707	0	35752	
708	0	35596	
709	0	35352	
710	0	35104	
711	0	34908	
712	0	34700	
713	0	34486	
714	0	34296	
715	0	34116	
716	0	33892	
717	0	33680	
718	0	33480	
719	0	33296	
720	0	33120	
721	0	32952	
722	0	32816	
723	0	32720	
724	0	32584	
725	0	32444	
726	0	32228	
727	0	32008	
728	0	31840	
729	0	31668	
730	0	31488	
731	0	31392	
732	0	31268	
733	0	31148	
734	0	31028	
735	0	30888	
736	0	30728	
737	0	30600	
738	0	30492	
739	0	30424	
740	0	30344	
741	0	30288	
742	0	30232	
743	0	30180	
744	0	30132	
745	0	30032	
746	0	29872	
747	0	29752	
748	0	29722	
749	0	29712	
750	0	29736	
751	0	29740	
752	0	29696	
753	0	29664	
754	0	29676	
755	0	29688	
756	0	29632	
757	0	29584	
758	0	29512	
759	0	29448	
760	0	29364	
761	0	29336	
762	0	29384	
763	0	29420	
764	0	29424	
765	0	29372	
766	0	29276	
767	0	29208	
768	0	29242	
769	0	29280	
770	0	29312	
771	0	29368	
772	0	29400	
773	0	29460	
774	0	29516	
775	0	29540	
776	0	29584	
777	0	29628	
778	0	29596	
779	0	29560	
780	0	29564	
781	0	29556	
782	0	29548	
783	0	29552	
784	0	29588	
785	0	29644	
786	0	29696	
787	0	29688	
788	0	29636	
789	0	29634	
790	0	29704	
791	0	29772	
792	0	29792	
793	0	29768	
794	0	29804	
795	0	29844	
796	0	29896	
797	0	29984	
798	0	30040	
799	0	30072	
800	0	30096	
801	0	30136	
802	0	30160	
803	0	30164	
804	0	30184	
805	0	30244	
806	0	30296	
807	0	30288	
808	0	30304	
809	0	30344	
810	0	30336	
811	0	30324	
812	0	30372	
813	0	30380	
814	0	30400	
815	0	30492	
816	0	30524	
817	0	30528	
818	0	30500	
819	0	30472	
820	0	30460	
821	0	30488	
822	0	30456	
823	0	30460	
824	0	30488	
825	0	30560	
826	0	30640	
827	0	30684	
828	0	30728	
829	0	30808	
830	0	30888	
831	0	30904	
832	0	30936	
833	0	30984	
834	0	31020	
835	0	31072	
836	0	31108	
837	0	31104	
838	0	31080	
839	0	31112	
840	0	31176	
841	0	31226	
842	0	31184	
843	0	31108	
844	0	31180	
845	0	31252	
846	0	31272	
847	0	31280	
848	0	31272	
849	0	31248	
850	0	31252	
851	0	31288	
852	0	31348	
853	0	31412	
854	0	31432	
855	0	31444	
856	0	31464	
857	0	31456	
858	0	31480	
859	0	31492	
860	0	31516	
861	0	31564	
862	0	31584	
863	0	31596	
864	0	31636	
865	0	31662	
866	0	31612	
867	0	31588	
868	0	31608	
869	0	31616	
870	0	31584	
871	0	31540	
872	0	31520	
873	0	31564	
874	0	31640	
875	0	31676	
876	0	31704	
877	0	31748	
878	0	31820	
879	0	31836	
880	0	31772	
881	0	31760	
882	0	31792	
883	0	31840	
884	0	31872	
885	0	31896	
886	0	31880	
887	0	31844	
888	0	31832	
889	0	31776	
890	0	31776	
891	0	31784	
892	0	31804	
893	0	31840	
894	0	31900	
895	0	31976	
896	0	31964	
897	0	31920	
898	0	31932	
899	0	31968	
900	0	32004	
901	0	32032	
902	0	32004	
903	0	31948	
904	0	31906	
905	0	31872	
906	0	31864	
907	0	31856	
908	0	31852	
909	0	31832	
910	0	31820	
911	0	31860	
912	0	31940	
913	0	31990	
914	0	32000	
915	0	32024	
916	0	32056	
917	0	32112	
918	0	32156	
919	0	32154	
920	0	32080	
921	0	32034	
922	0	32052	
923	0	32108	
924	0	32100	
925	0	32096	
926	0	32088	
927	0	32088	
928	0	32040	
929	0	32028	
930	0	31982	
931	0	32024	
932	0	32050	
933	0	32064	
934	0	32156	
935	0	32188	
936	0	32156	
937	0	32148	
938	0	32144	
939	0	32132	
940	0	32176	
941	0	32248	
942	0	32320	
943	0	32352	
944	0	32340	
945	0	32336	
946	0	32340	
947	0	32354	
948	0	32410	
949	0	32412	
950	0	32420	
951	0	32544	
952	0	32700	
953	0	32816	
954	0	32960	
955	0	33108	
956	0	33252	
957	0	33404	
958	0	33548	
959	0	33640	
960	0	33640	
961	0	33620	
962	0	33596	
963	0	33656	
964	0	33692	
965	0	33740	
966	0	33828	
967	0	33872	
968	0	33864	
969	0	33880	
970	0	33866	
971	0	33860	
972	0	33864	
973	0	33928	
974	0	34008	
975	0	34096	
976	0	34256	
977	0	34488	
978	0	34684	
979	0	34856	
980	0	35048	
981	0	35196	
982	0	35248	
983	0	35204	
984	0	35172	
985	0	35192	
986	0	35232	
987	0	35232	
988	0	35232	
989	0	35288	
990	0	35384	
991	0	35456	
992	0	35396	
993	0	35212	
994	0	35032	
995	0	34928	
996	0	34828	
997	0	34704	
998	0	34520	
999	0	34328	
1000	0	34184	
1001	0	34080	
1002	0	34016	
1003	0	33972	
1004	0	33912	
1005	0	33840	
1006	0	33818	
1007	0	33800	
1008	0	33768	
1009	0	33736	
1010	0	33696	
1011	0	33644	
1012	0	33648	
1013	0	33584	
1014	0	33544	
1015	0	33488	
1016	0	33380	
1017	0	33232	
1018	0	33072	
1019	0	32972	
1020	0	32912	
1021	0	32858	
1022	0	32800	
1023	0	32736	
1024	0	32668	
1025	0	32546	
1026	0	32416	
1027	0	32284	
1028	0	32128	
1029	0	32020	
1030	0	31924	
1031	0	31852	
1032	0	31800	
1033	0	31744	
1034	0	31744	
1035	0	31756	
1036	0	31832	
1037	0	31876	
1038	0	31834	
1039	0	31776	
1040	0	31736	
1041	0	31716	
1042	0	31676	
1043	0	31628	
1044	0	31652	
1045	0	31706	
1046	0	31812	
1047	0	31872	
1048	0	31860	
1049	0	31804	
1050	0	31800	
1051	0	31750	
1052	0	31712	
1053	0	31744	
1054	0	31778	
1055	0	31776	
1056	0	31840	
1057	0	31892	
1058	0	31876	
1059	0	31892	
1060	0	31900	
1061	0	31888	
1062	0	31896	
1063	0	31876	
1064	0	31848	
1065	0	31840	
1066	0	31816	
1067	0	31788	
1068	0	31752	
1069	0	31680	
1070	0	31652	
1071	0	31668	
1072	0	31712	
1073	0	31776	
1074	0	31840	
1075	0	31864	
1076	0	31876	
1077	0	31896	
1078	0	31908	
1079	0	31964	
1080	0	32028	
1081	0	32040	
1082	0	32044	
1083	0	32060	
1084	0	32072	
1085	0	32116	
1086	0	32072	
1087	0	32052	
1088	0	32016	
1089	0	31976	
1090	0	31930	
1091	0	31848	
1092	0	31696	
1093	0	31536	
1094	0	31424	
1095	0	31284	
1096	0	31200	
1097	0	31130	
1098	0	31148	
1099	0	31250	
1100	0	31444	
1101	0	31832	
1102	0	32360	
1103	0	33000	
1104	0	33832	
1105	0	34864	
1106	0	36084	
1107	0	37492	
1108	0	39088	
1109	0	40720	
1110	0	42296	
1111	0	43864	
1112	0	45432	
1113	0	47088	
1114	0	48772	
1115	0	50280	
1116	0	51604	
1117	0	52864	
1118	0	54096	
1119	0	55352	
1120	0	56536	
1121	0	57680	
1122	0	58876	
1123	0	60048	
1124	0	60876	
1125	0	61304	
1126	0	60872	
1127	0	59460	
1128	0	57248	
1129	0	54152	
1130	0	50632	
1131	0	47024	
1132	0	43092	
1133	0	38744	
1134	0	34288	
1135	0	30400	
1136	0	27516	
1137	0	25692	
1138	0	24824	
1139	0	24604	
1140	0	24792	
1141	0	25200	
1142	0	25616	
1143	0	25896	
1144	0	26156	
1145	0	26336	
1146	0	26496	
1147	0	26720	
1148	0	26972	
1149	0	27180	
1150	0	27396	
1151	0	27722	
1152	0	28104	
1153	0	28480	
1154	0	28820	
1155	0	29120	
1156	0	29460	
1157	0	29756	
1158	0	29930	
1159	0	30080	
1160	0	30196	
1161	0	30236	
1162	0	30226	
1163	0	30192	
1164	0	30172	
1165	0	30200	
1166	0	30244	
1167	0	30240	
1168	0	30176	
1169	0	30108	
1170	0	30036	
1171	0	30052	
1172	0	30088	
1173	0	30112	
1174	0	30176	
1175	0	30216	
1176	0	30240	
1177	0	30280	
1178	0	30328	
1179	0	30396	
1180	0	30402	
1181	0	30380	
1182	0	30362	
1183	0	30388	
1184	0	30424	
1185	0	30476	
1186	0	30517	
1187	0	30536	
1188	0	30560	
1189	0	30584	
1190	0	30584	
1191	0	30576	
1192	0	30598	
1193	0	30664	
1194	0	30768	
1195	0	30780	
1196	0	30784	
1197	0	30744	
1198	0	30724	
1199	0	30784	
1200	0	30880	
1201	0	30932	
1202	0	30980	
1203	0	31040	
1204	0	31064	
1205	0	31060	
1206	0	31056	
1207	0	31064	
1208	0	31124	
1209	0	31176	
1210	0	31168	
1211	0	31136	
1212	0	31120	
1213	0	31132	
1214	0	31196	
1215	0	31288	
1216	0	31360	
1217	0	31432	
1218	0	31496	
1219	0	31532	
1220	0	31580	
1221	0	31608	
1222	0	31648	
1223	0	31684	
1224	0	31696	
1225	0	31704	
1226	0	31664	
1227	0	31644	
1228	0	31676	
1229	0	31680	
1230	0	31680	
1231	0	31668	
1232	0	31636	
1233	0	31576	
1234	0	31536	
1235	0	31608	
1236	0	31728	
1237	0	31818	
1238	0	31896	
1239	0	31964	
1240	0	32024	
1241	0	32080	
1242	0	32128	
1243	0	32208	
1244	0	32232	
1245	0	32224	
1246	0	32192	
1247	0	32240	
1248	0	32296	
1249	0	32316	
1250	0	32322	
1251	0	32352	
1252	0	32360	
1253	0	32352	
1254	0	32392	
1255	0	32404	
1256	0	32408	
1257	0	32472	
1258	0	32536	
1259	0	32576	
1260	0	32628	
1261	0	32636	
1262	0	32632	
1263	0	32628	
1264	0	32664	
1265	0	32736	
1266	0	32780	
1267	0	32812	
1268	0	32872	
1269	0	32932	
1270	0	32962	
1271	0	32978	
1272	0	33020	
1273	0	33016	
1274	0	33060	
1275	0	33068	
1276	0	33112	
1277	0	33200	
1278	0	33248	
1279	0	33304	
1280	0	33344	
1281	0	33392	
1282	0	33404	
1283	0	33464	
1284	0	33556	
1285	0	33637	
1286	0	33676	
1287	0	33740	
1288	0	33776	
1289	0	33770	
1290	0	33888	
1291	0	33984	
1292	0	34016	
1293	0	33984	
1294	0	34028	
1295	0	34120	
1296	0	34212	
1297	0	34236	
1298	0	34276	
1299	0	34392	
1300	0	34480	
1301	0	34576	
1302	0	34592	
1303	0	34604	
1304	0	34644	
1305	0	34752	
1306	0	34864	
1307	0	34912	
1308	0	34936	
1309	0	34996	
1310	0	35072	
1311	0	35096	
1312	0	35152	
1313	0	35284	
1314	0	35416	
1315	0	35524	
1316	0	35608	
1317	0	35700	
1318	0	35764	
1319	0	35864	
1320	0	35960	
1321	0	36044	
1322	0	36108	
1323	0	36188	
1324	0	36284	
1325	0	36364	
1326	0	36400	
1327	0	36408	
1328	0	36444	
1329	0	36500	
1330	0	36576	
1331	0	36636	
1332	0	36696	
1333	0	36760	
1334	0	36848	
1335	0	36912	
1336	0	36912	
1337	0	36898	
1338	0	36936	
1339	0	36980	
1340	0	37052	
1341	0	37140	
1342	0	37220	
1343	0	37280	
1344	0	37292	
1345	0	37288	
1346	0	37340	
1347	0	37322	
1348	0	37250	
1349	0	37204	
1350	0	37154	
1351	0	37140	
1352	0	37148	
1353	0	37172	
1354	0	37216	
1355	0	37232	
1356	0	37204	
1357	0	37140	
1358	0	37120	
1359	0	37120	
1360	0	37112	
1361	0	37080	
1362	0	37004	
1363	0	36904	
1364	0	36816	
1365	0	36684	
1366	0	36568	
1367	0	36448	
1368	0	36320	
1369	0	36152	
1370	0	36036	
1371	0	35900	
1372	0	35728	
1373	0	35568	
1374	0	35392	
1375	0	35264	
1376	0	35176	
1377	0	35028	
1378	0	34824	
1379	0	34616	
1380	0	34436	
1381	0	34254	
1382	0	34072	
1383	0	33872	
1384	0	33640	
1385	0	33392	
1386	0	33196	
1387	0	32960	
1388	0	32736	
1389	0	32564	
1390	0	32404	
1391	0	32200	
1392	0	31964	
1393	0	31768	
1394	0	31612	
1395	0	31464	
1396	0	31348	
1397	0	31240	
1398	0	31076	
1399	0	30968	
1400	0	30896	
1401	0	30788	
1402	0	30628	
1403	0	30478	
1404	0	30348	
1405	0	30228	
1406	0	30136	
1407	0	30056	
1408	0	29984	
1409	0	29912	
1410	0	29808	
1411	0	29756	
1412	0	29690	
1413	0	29604	
1414	0	29552	
1415	0	29516	
1416	0	29484	
1417	0	29464	
1418	0	29452	
1419	0	29456	
1420	0	29432	
1421	0	29400	
1422	0	29412	
1423	0	29452	
1424	0	29460	
1425	0	29412	
1426	0	29384	
1427	0	29392	
1428	0	29392	
1429	0	29376	
1430	0	29348	
1431	0	29306	
1432	0	29280	
1433	0	29268	
1434	0	29296	
1435	0	29344	
1436	0	29392	
1437	0	29452	
1438	0	29460	
1439	0	29466	
1440	0	29500	
1441	0	29496	
1442	0	29460	
1443	0	29440	
1444	0	29424	
1445	0	29436	
1446	0	29464	
1447	0	29452	
1448	0	29388	
1449	0	29404	
1450	0	29480	
1451	0	29556	
1452	0	29576	
1453	0	29608	
1454	0	29676	
1455	0	29732	
1456	0	29776	
1457	0	29780	
1458	0	29792	
1459	0	29814	
1460	0	29788	
1461	0	29824	
1462	0	29924	
1463	0	29984	
1464	0	30020	
1465	0	30008	
1466	0	30024	
1467	0	30044	
1468	0	30008	
1469	0	30000	
1470	0	30042	
1471	0	30068	
1472	0	30040	
1473	0	30036	
1474	0	30108	
1475	0	30216	
1476	0	30306	
1477	0	30332	
1478	0	30344	
1479	0	30348	
1480	0	30344	
1481	0	30384	
1482	0	30400	
1483	0	30412	
1484	0	30444	
1485	0	30480	
1486	0	30496	
1487	0	30552	
1488	0	30568	
1489	0	30536	
1490	0	30560	
1491	0	30548	
1492	0	30576	
1493	0	30672	
1494	0	30776	
1495	0	30844	
1496	0	30912	
1497	0	30936	
1498	0	30900	
1499	0	30884	
1500	0	30896	
1501	0	30904	
1502	0	30904	
1503	0	30912	
1504	0	30924	
1505	0	30904	
1506	0	30888	
1507	0	30912	
1508	0	30936	
1509	0	30954	
1510	0	30960	
1511	0	30968	
1512	0	30996	
1513	0	31046	
1514	0	31118	
1515	0	31192	
1516	0	31244	
1517	0	31276	
1518	0	31280	
1519	0	31300	
1520	0	31296	
1521	0	31296	
1522	0	31292	
1523	0	31292	
1524	0	31296	
1525	0	31300	
1526	0	31304	
1527	0	31332	
1528	0	31360	
1529	0	31400	
1530	0	31452	
1531	0	31468	
1532	0	31504	
1533	0	31540	
1534	0	31588	
1535	0	31612	
1536	0	31656	
1537	0	31688	
1538	0	31672	
1539	0	31616	
1540	0	31580	
1541	0	31560	
1542	0	31552	
1543	0	31576	
1544	0	31584	
1545	0	31604	
1546	0	31576	
1547	0	31536	
1548	0	31560	
1549	0	31576	
1550	0	31616	
1551	0	31616	
1552	0	31652	
1553	0	31660	
1554	0	31672	
1555	0	31728	
1556	0	31776	
1557	0	31790	
1558	0	31784	
1559	0	31794	
1560	0	31834	
1561	0	31836	
1562	0	31770	
1563	0	31740	
1564	0	31724	
1565	0	31732	
1566	0	31720	
1567	0	31684	
1568	0	31636	
1569	0	31612	
1570	0	31620	
1571	0	31648	
1572	0	31708	
1573	0	31728	
1574	0	31716	
1575	0	31732	
1576	0	31772	
1577	0	31840	
1578	0	31936	
1579	0	31936	
1580	0	31896	
1581	0	31856	
1582	0	31816	
1583	0	31800	
1584	0	31788	
1585	0	31776	
1586	0	31792	
1587	0	31864	
1588	0	31876	
1589	0	31888	
1590	0	31884	
1591	0	31888	
1592	0	31908	
1593	0	31872	
1594	0	31848	
1595	0	31880	
1596	0	31920	
1597	0	31928	
1598	0	31940	
1599	0	31956	
1600	0	32018	
1601	0	32072	
1602	0	32056	
1603	0	32036	
1604	0	32034	
1605	0	32032	
1606	0	32038	
1607	0	32044	
1608	0	32082	
1609	0	32088	
1610	0	32098	
1611	0	32072	
1612	0	32040	
1613	0	32032	
1614	0	32056	
1615	0	32092	
1616	0	32138	
1617	0	32164	
1618	0	32160	
1619	0	32208	
1620	0	32260	
1621	0	32256	
1622	0	32210	
1623	0	32152	
1624	0	32124	
1625	0	32120	
1626	0	32140	
1627	0	32184	
1628	0	32172	
1629	0	32164	
1630	0	32128	
1631	0	32148	
1632	0	32218	
1633	0	32288	
1634	0	32296	
1635	0	32300	
1636	0	32328	
1637	0	32352	
1638	0	32320	
1639	0	32316	
1640	0	32348	
1641	0	32368	
1642	0	32416	
1643	0	32424	
1644	0	32440	
1645	0	32440	
1646	0	32468	
1647	0	32512	
1648	0	32564	
1649	0	32616	
1650	0	32668	
1651	0	32668	
1652	0	32708	
1653	0	32776	
1654	0	32892	
1655	0	33068	
1656	0	33244	
1657	0	33400	
1658	0	33432	
1659	0	33408	
1660	0	33472	
1661	0	33652	
1662	0	33792	
1663	0	33844	
1664	0	33888	
1665	0	33892	
1666	0	33920	
1667	0	33984	
1668	0	34060	
1669	0	34108	
1670	0	34136	
1671	0	34176	
1672	0	34208	
1673	0	34244	
1674	0	34284	
1675	0	34336	
1676	0	34452	
1677	0	34596	
1678	0	34732	
1679	0	34840	
1680	0	34984	
1681	0	35128	
1682	0	35196	
1683	0	35260	
1684	0	35304	
1685	0	35272	
1686	0	35216	
1687	0	35168	
1688	0	35140	
1689	0	35108	
1690	0	35092	
1691	0	35132	
1692	0	35264	
1693	0	35412	
1694	0	35440	
1695	0	35388	
1696	0	35344	
1697	0	35236	
1698	0	35148	
1699	0	34992	
1700	0	34768	
1701	0	34560	
1702	0	34396	
1703	0	34260	
1704	0	34120	
1705	0	33988	
1706	0	33892	
1707	0	33816	
1708	0	33780	
1709	0	33728	
1710	0	33656	
1711	0	33552	
1712	0	33488	
1713	0	33472	
1714	0	33488	
1715	0	33488	
1716	0	33492	
1717	0	33464	
1718	0	33420	
1719	0	33368	
1720	0	33304	
1721	0	33224	
1722	0	33144	
1723	0	33040	
1724	0	32932	
1725	0	32804	
1726	0	32662	
1727	0	32576	
1728	0	32440	
1729	0	32296	
1730	0	32216	
1731	0	32188	
1732	0	32136	
1733	0	32100	
1734	0	32028	
1735	0	31940	
1736	0	31884	
1737	0	31832	
1738	0	31788	
1739	0	31724	
1740	0	31696	
1741	0	31708	
1742	0	31696	
1743	0	31740	
1744	0	31736	
1745	0	31722	
1746	0	31728	
1747	0	31720	
1748	0	31692	
1749	0	31600	
1750	0	31552	
1751	0	31536	
1752	0	31564	
1753	0	31616	
1754	0	31696	
1755	0	31720	
1756	0	31698	
1757	0	31720	
1758	0	31736	
1759	0	31728	
1760	0	31752	
1761	0	31800	
1762	0	31796	
1763	0	31732	
1764	0	31636	
1765	0	31588	
1766	0	31584	
1767	0	31612	
1768	0	31676	
1769	0	31752	
1770	0	31824	
1771	0	31928	
1772	0	31978	
1773	0	31984	
1774	0	31988	
1775	0	32036	
1776	0	32072	
1777	0	32076	
1778	0	32096	
1779	0	32096	
1780	0	32060	
1781	0	31984	
1782	0	31928	
1783	0	31912	
1784	0	31920	
1785	0	31948	
1786	0	31924	
1787	0	31912	
1788	0	31898	
1789	0	31852	
1790	0	31784	
1791	0	31696	
1792	0	31568	
1793	0	31456	
1794	0	31360	
1795	0	31308	
1796	0	31336	
1797	0	31412	
1798	0	31496	
1799	0	31712	
1800	0	32068	
1801	0	32604	
1802	0	33184	
1803	0	33912	
1804	0	34826	
1805	0	35940	
1806	0	37196	
1807	0	38648	
1808	0	40224	
1809	0	41804	
1810	0	43256	
1811	0	44656	
1812	0	46092	
1813	0	47560	
1814	0	49032	
1815	0	50450	
1816	0	51838	
1817	0	53216	
1818	0	54568	
1819	0	55880	
1820	0	57236	
1821	0	58516	
1822	0	59616	
1823	0	60508	
1824	0	61088	
1825	0	61356	
1826	0	60716	
1827	0	59096	
1828	0	56652	
1829	0	53424	
1830	0	49920	
1831	0	46300	
1832	0	42240	
1833	0	37784	
1834	0	33380	
1835	0	29824	
1836	0	27334	
1837	0	25864	
1838	0	25144	
1839	0	24890	
1840	0	25012	
1841	0	25276	
1842	0	25500	
1843	0	25758	
1844	0	26064	
1845	0	26380	
1846	0	26744	
1847	0	27164	
1848	0	27608	
1849	0	28092	
1850	0	28572	
1851	0	29016	
1852	0	29412	
1853	0	29744	
1854	0	30024	
1855	0	30196	
1856	0	30288	
1857	0	30316	
1858	0	30312	
1859	0	30288	
1860	0	30264	
1861	0	30184	
1862	0	30108	
1863	0	30048	
1864	0	29996	
1865	0	29916	
1866	0	29872	
1867	0	29864	
1868	0	29872	
1869	0	29882	
1870	0	29856	
1871	0	29872	
1872	0	29924	
1873	0	29952	
1874	0	29932	
1875	0	29920	
1876	0	29920	
1877	0	29988	
1878	0	30036	
1879	0	30040	
1880	0	30068	
1881	0	30104	
1882	0	30110	
1883	0	30112	
1884	0	30160	
1885	0	30240	
1886	0	30256	
1887	0	30244	
1888	0	30256	
1889	0	30272	
1890	0	30296	
1891	0	30324	
1892	0	30364	
1893	0	30448	
1894	0	30496	
1895	0	30528	
1896	0	30562	
1897	0	30636	
1898	0	30690	
1899	0	30700	
1900	0	30732	
1901	0	30780	
1902	0	30844	
1903	0	30836	
1904	0	30848	
1905	0	30884	
1906	0	30928	
1907	0	30952	
1908	0	30952	
1909	0	30980	
1910	0	31004	
1911	0	31016	
1912	0	31036	
1913	0	31100	
1914	0	31196	
1915	0	31268	
1916	0	31264	
1917	0	31268	
1918	0	31300	
1919	0	31348	
1920	0	31402	
1921	0	31424	
1922	0	31468	
1923	0	31464	
1924	0	31448	
1925	0	31408	
1926	0	31368	
1927	0	31384	
1928	0	31392	
1929	0	31440	
1930	0	31492	
1931	0	31576	
1932	0	31616	
1933	0	31664	
1934	0	31700	
1935	0	31680	
1936	0	31732	
1937	0	31792	
1938	0	31816	
1939	0	31856	
1940	0	31924	
1941	0	31968	
1942	0	32016	
1943	0	32064	
1944	0	32100	
1945	0	32100	
1946	0	32100	
1947	0	32096	
1948	0	32092	
1949	0	32092	
1950	0	32092	
1951	0	32100	
1952	0	32144	
1953	0	32192	
1954	0	32228	
1955	0	32302	
1956	0	32352	
1957	0	32376	
1958	0	32384	
1959	0	32368	
1960	0	32384	
1961	0	32448	
1962	0	32472	
1963	0	32496	
1964	0	32548	
1965	0	32552	
1966	0	32564	
1967	0	32624	
1968	0	32676	
1969	0	32704	
1970	0	32728	
1971	0	32760	
1972	0	32756	
1973	0	32760	
1974	0	32792	
1975	0	32860	
1976	0	32948	
1977	0	33044	
1978	0	33144	
1979	0	33216	
1980	0	33264	
1981	0	33336	
1982	0	33392	
1983	0	33472	
1984	0	33520	
1985	0	33552	
1986	0	33576	
1987	0	33616	
1988	0	33664	
1989	0	33684	
1990	0	33728	
1991	0	33792	
1992	0	33820	
1993	0	33828	
1994	0	33868	
1995	0	33956	
1996	0	34058	
1997	0	34156	
1998	0	34244	
1999	0	34324	
2000	0	34384	
2001	0	34478	
2002	0	34552	
2003	0	34612	
2004	0	34628	
2005	0	34658	
2006	0	34672	
2007	0	34740	
2008	0	34800	
2009	0	34856	
2010	0	34960	
2011	0	35052	
2012	0	35116	
2013	0	35204	
2014	0	35292	
2015	0	35396	
2016	0	35480	
2017	0	35556	
2018	0	35664	
2019	0	35760	
2020	0	35858	
2021	0	35916	
2022	0	35978	
2023	0	36008	
2024	0	36008	
2025	0	36028	
2026	0	36052	
2027	0	36124	
2028	0	36244	
2029	0	36384	
2030	0	36448	
2031	0	36512	
2032	0	36592	
2033	0	36680	
2034	0	36752	
2035	0	36760	
2036	0	36772	
2037	0	36832	
2038	0	36888	
2039	0	36948	
2040	0	37000	
2041	0	37056	
2042	0	37090	
2043	0	37092	
2044	0	37092	
2045	0	37100	
2046	0	37092	
2047	0	37076	
2048	0	37092	
2049	0	37128	
2050	0	37144	
2051	0	37156	
2052	0	37172	
2053	0	37176	
2054	0	37172	
2055	0	37176	
2056	0	37192	
2057	0	37148	
2058	0	37136	
2059	0	37112	
2060	0	37056	
2061	0	36976	
2062	0	36932	
2063	0	36864	
2064	0	36764	
2065	0	36672	
2066	0	36560	
2067	0	36440	
2068	0	36276	
2069	0	36112	
2070	0	35952	
2071	0	35764	
2072	0	35660	
2073	0	35520	
2074	0	35320	
2075	0	35120	
2076	0	34952	
2077	0	34808	
2078	0	34652	
2079	0	34500	
2080	0	34344	
2081	0	34200	
2082	0	34010	
2083	0	33800	
2084	0	33592	
2085	0	33412	
2086	0	33200	
2087	0	33012	
2088	0	32824	
2089	0	32660	
2090	0	32460	
2091	0	32252	
2092	0	32080	
2093	0	31924	
2094	0	31800	
2095	0	31672	
2096	0	31560	
2097	0	31424	
2098	0	31304	
2099	0	31144	
2100	0	30984	
2101	0	30828	
2102	0	30680	
2103	0	30576	
2104	0	30472	
2105	0	30376	
2106	0	30308	
2107	0	30216	
2108	0	30096	
2109	0	29976	
2110	0	29872	
2111	0	29780	
2112	0	29728	
2113	0	29686	
2114	0	29668	
2115	0	29672	
2116	0	29664	
2117	0	29624	
2118	0	29584	
2119	0	29548	
2120	0	29537	
2121	0	29508	
2122	0	29444	
2123	0	29378	
2124	0	29354	
2125	0	29316	
2126	0	29252	
2127	0	29248	
2128	0	29264	
2129	0	29294	
2130	0	29288	
2131	0	29336	
2132	0	29386	
2133	0	29392	
2134	0	29408	
2135	0	29406	
2136	0	29416	
2137	0	29420	
2138	0	29424	
2139	0	29426	
2140	0	29452	
2141	0	29498	
2142	0	29540	
2143	0	29536	
2144	0	29532	
2145	0	29560	
2146	0	29576	
2147	0	29572	
2148	0	29568	
2149	0	29596	
2150	0	29620	
2151	0	29656	
2152	0	29672	
2153	0	29722	
2154	0	29732	
2155	0	29760	
2156	0	29844	
2157	0	29920	
2158	0	29986	
2159	0	29996	
2160	0	29980	
2161	0	29992	
2162	0	29996	
2163	0	29996	
2164	0	29976	
2165	0	29976	
2166	0	30008	
2167	0	30028	
2168	0	30060	
2169	0	30064	
2170	0	30112	
2171	0	30144	
2172	0	30188	
2173	0	30242	
2174	0	30296	
2175	0	30364	
2176	0	30410	
2177	0	30442	
2178	0	30468	
2179	0	30476	
2180	0	30464	
2181	0	30468	
2182	0	30468	
2183	0	30484	
2184	0	30452	
2185	0	30436	
2186	0	30476	
2187	0	30520	
2188	0	30552	
2189	0	30576	
2190	0	30600	
2191	0	30608	
2192	0	30672	
2193	0	30728	
2194	0	30756	
2195	0	30768	
2196	0	30804	
2197	0	30840	
2198	0	30860	
2199	0	30884	
2200	0	30872	
2201	0	30852	
2202	0	30856	
2203	0	30904	
2204	0	30980	
2205	0	31048	
2206	0	31044	
2207	0	31016	
2208	0	30980	
2209	0	30938	
2210	0	30952	
2211	0	30996	
2212	0	31056	
2213	0	31104	
2214	0	31108	
2215	0	31122	
2216	0	31132	
2217	0	31152	
2218	0	31180	
2219	0	31176	
2220	0	31180	
2221	0	31164	
2222	0	31140	
2223	0	31176	
2224	0	31188	
2225	0	31208	
2226	0	31248	
2227	0	31264	
2228	0	31264	
2229	0	31288	
2230	0	31338	
2231	0	31408	
2232	0	31432	
2233	0	31440	
2234	0	31424	
2235	0	31456	
2236	0	31492	
2237	0	31492	
2238	0	31488	
2239	0	31492	
2240	0	31496	
2241	0	31512	
2242	0	31516	
2243	0	31500	
2244	0	31492	
2245	0	31472	
2246	0	31484	
2247	0	31484	
2248	0	31464	
2249	0	31444	
2250	0	31464	
2251	0	31512	
2252	0	31532	
2253	0	31586	
2254	0	31636	
2255	0	31640	
2256	0	31648	
2257	0	31696	
2258	0	31704	
2259	0	31712	
2260	0	31736	
2261	0	31744	
2262	0	31746	
2263	0	31688	
2264	0	31664	
2265	0	31648	
2266	0	31680	
2267	0	31680	
2268	0	31664	
2269	0	31664	
2270	0	31696	
2271	0	31720	
2272	0	31720	
2273	0	31696	
2274	0	31688	
2275	0	31712	
2276	0	31748	
2277	0	31760	
2278	0	31788	
2279	0	31824	
2280	0	31900	
2281	0	31912	
2282	0	31868	
2283	0	31836	
2284	0	31816	
2285	0	31828	
2286	0	31832	
2287	0	31812	
2288	0	31784	
2289	0	31800	
2290	0	31844	
2291	0	31880	
2292	0	31892	
2293	0	31884	
2294	0	31884	
2295	0	31916	
2296	0	31940	
2297	0	31960	
2298	0	32005	
2299	0	32016	
2300	0	32040	
2301	0	32032	
2302	0	32008	
2303	0	32006	
2304	0	31984	
2305	0	31948	
2306	0	31904	
2307	0	31876	
2308	0	31864	
2309	0	31888	
2310	0	31888	
2311	0	31920	
2312	0	31968	
2313	0	32034	
2314	0	32064	
2315	0	32080	
2316	0	32152	
2317	0	32192	
2318	0	32176	
2319	0	32136	
2320	0	32152	
2321	0	32128	
2322	0	32080	
2323	0	32084	
2324	0	32072	
2325	0	32028	
2326	0	32036	
2327	0	32052	
2328	0	32088	
2329	0	32124	
2330	0	32112	
2331	0	32116	
2332	0	32120	
2333	0	32132	
2334	0	32180	
2335	0	32228	
2336	0	32236	
2337	0	32260	
2338	0	32288	
2339	0	32264	
2340	0	32216	
2341	0	32216	
2342	0	32248	
2343	0	32257	
2344	0	32228	
2345	0	32220	
2346	0	32200	
2347	0	32176	
2348	0	32112	
2349	0	32120	
2350	0	32136	
2351	0	32160	
2352	0	32208	
2353	0	32272	
2354	0	32332	
2355	0	32396	
2356	0	32448	
2357	0	32474	
2358	0	32432	
2359	0	32396	
2360	0	32416	
2361	0	32396	
2362	0	32380	
2363	0	32380	
2364	0	32376	
2365	0	32376	
2366	0	32384	
2367	0	32380	
2368	0	32332	
2369	0	32272	
2370	0	32252	
2371	0	32228	
2372	0	32232	
2373	0	32248	
2374	0	32258	
2375	0	32304	
2376	0	32384	
2377	0	32476	
2378	0	32524	
2379	0	32552	
2380	0	32604	
2381	0	32656	
2382	0	32720	
2383	0	32756	
2384	0	32826	
2385	0	32892	
2386	0	32988	
2387	0	33136	
2388	0	33296	
2389	0	33480	
2390	0	33640	
2391	0	33760	
2392	0	33864	
2393	0	33984	
2394	0	34096	
2395	0	34148	
2396	0	34168	
2397	0	34156	
2398	0	34180	
2399	0	34248	
2400	0	34364	
2401	0	34432	
2402	0	34436	
2403	0	34396	
2404	0	34401	
2405	0	34436	
2406	0	34448	
2407	0	34476	
2408	0	34528	
2409	0	34624	
2410	0	34752	
2411	0	34860	
2412	0	34936	
2413	0	35068	
2414	0	35196	
2415	0	35300	
2416	0	35376	
2417	0	35360	
2418	0	35328	
2419	0	35268	
2420	0	35276	
2421	0	35308	
2422	0	35352	
2423	0	35344	
2424	0	35364	
2425	0	35440	
2426	0	35512	
2427	0	35464	
2428	0	35280	
2429	0	35104	
2430	0	35004	
2431	0	34952	
2432	0	34896	
2433	0	34732	
2434	0	34548	
2435	0	34376	
2436	0	34276	
2437	0	34178	
2438	0	34100	
2439	0	34020	
2440	0	33933	
2441	0	33856	
2442	0	33792	
2443	0	33717	
2444	0	33608	
2445	0	33520	
2446	0	33488	
2447	0	33488	
2448	0	33512	
2449	0	33496	
2450	0	33432	
2451	0	33376	
2452	0	33312	
2453	0	33248	
2454	0	33184	
2455	0	33144	
2456	0	33068	
2457	0	33024	
2458	0	32988	
2459	0	32924	
2460	0	32840	
2461	0	32740	
2462	0	32608	
2463	0	32464	
2464	0	32320	
2465	0	32192	
2466	0	32076	
2467	0	31932	
2468	0	31812	
2469	0	31722	
2470	0	31672	
2471	0	31664	
2472	0	31636	
2473	0	31616	
2474	0	31616	
2475	0	31652	
2476	0	31660	
2477	0	31656	
2478	0	31668	
2479	0	31660	
2480	0	31632	
2481	0	31612	
2482	0	31588	
2483	0	31652	
2484	0	31692	
2485	0	31672	
2486	0	31684	
2487	0	31692	
2488	0	31700	
2489	0	31712	
2490	0	31716	
2491	0	31706	
2492	0	31700	
2493	0	31700	
2494	0	31752	
2495	0	31776	
2496	0	31800	
2497	0	31832	
2498	0	31856	
2499	0	31872	
2500	0	31820	
2501	0	31754	
2502	0	31732	
2503	0	31736	
2504	0	31744	
2505	0	31760	
2506	0	31784	
2507	0	31824	
2508	0	31808	
2509	0	31824	
2510	0	31844	
2511	0	31842	
2512	0	31852	
2513	0	31884	
2514	0	31920	
2515	0	31924	
2516	0	31928	
2517	0	31936	
2518	0	31948	
2519	0	31968	
2520	0	31944	
2521	0	31872	
2522	0	31828	
2523	0	31736	
2524	0	31576	
2525	0	31404	
2526	0	31288	
2527	0	31210	
2528	0	31252	
2529	0	31280	
2530	0	31340	
2531	0	31532	
2532	0	31964	
2533	0	32536	
2534	0	33132	
2535	0	33880	
2536	0	34784	
2537	0	35768	
2538	0	36944	
2539	0	38216	
2540	0	39668	
2541	0	41144	
2542	0	42480	
2543	0	43768	
2544	0	45128	
2545	0	46576	
2546	0	48088	
2547	0	49632	
2548	0	51096	
2549	0	52488	
2550	0	53968	
2551	0	55376	
2552	0	56696	
2553	0	57920	
2554	0	59028	
2555	0	60052	
2556	0	60852	
2557	0	61352	
2558	0	61096	
2559	0	59780	
2560	0	57644	
2561	0	54668	
2562	0	51188	
2563	0	47660	
2564	0	43760	
2565	0	39340	
2566	0	34860	
2567	0	31120	
2568	0	28440	
2569	0	26696	
2570	0	25716	
2571	0	25240	
2572	0	25132	
2573	0	25304	
2574	0	25596	
2575	0	25976	
2576	0	26464	
2577	0	27028	
2578	0	27554	
2579	0	28064	
2580	0	28546	
2581	0	29024	
2582	0	29460	
2583	0	29832	
2584	0	30072	
2585	0	30168	
2586	0	30220	
2587	0	30248	
2588	0	30204	
2589	0	30204	
2590	0	30220	
2591	0	30208	
2592	0	30148	
2593	0	30084	
2594	0	30000	
2595	0	29940	
2596	0	29940	
2597	0	29916	
2598	0	29904	
2599	0	29856	
2600	0	29820	
2601	0	29824	
2602	0	29840	
2603	0	29864	
2604	0	29858	
2605	0	29804	
2606	0	29764	
2607	0	29808	
2608	0	29840	
2609	0	29884	
2610	0	29930	
2611	0	29976	
2612	0	30024	
2613	0	30048	
2614	0	30008	
2615	0	30004	
2616	0	30016	
2617	0	30070	
2618	0	30128	
2619	0	30184	
2620	0	30248	
2621	0	30288	
2622	0	30296	
2623	0	30300	
2624	0	30296	
2625	0	30332	
2626	0	30332	
2627	0	30312	
2628	0	30308	
2629	0	30368	
2630	0	30436	
2631	0	30464	
2632	0	30474	
2633	0	30532	
2634	0	30624	
2635	0	30688	
2636	0	30736	
2637	0	30832	
2638	0	30948	
2639	0	30964	
2640	0	30888	
2641	0	30836	
2642	0	30860	
2643	0	30880	
2644	0	30864	
2645	0	30868	
2646	0	30928	
2647	0	30980	
2648	0	31040	
2649	0	31042	
2650	0	31040	
2651	0	31100	
2652	0	31197	
2653	0	31272	
2654	0	31284	
2655	0	31300	
2656	0	31288	
2657	0	31330	
2658	0	31404	
2659	0	31492	
2660	0	31544	
2661	0	31536	
2662	0	31540	
2663	0	31536	
2664	0	31536	
2665	0	31560	
2666	0	31568	
2667	0	31584	
2668	0	31592	
2669	0	31612	
2670	0	31668	
2671	0	31712	
2672	0	31776	
2673	0	31864	
2674	0	31932	
2675	0	32004	
2676	0	32028	
2677	0	31984	
2678	0	31996	
2679	0	32042	
2680	0	32112	
2681	0	32104	
2682	0	32108	
2683	0	32172	
2684	0	32204	
2685	0	32208	
2686	0	32232	
2687	0	32240	
2688	0	32228	
2689	0	32216	
2690	0	32236	
2691	0	32284	
2692	0	32360	
2693	0	32400	
2694	0	32424	
2695	0	32492	
2696	0	32600	
2697	0	32650	
2698	0	32680	
2699	0	32748	
2700	0	32756	
2701	0	32728	
2702	0	32788	
2703	0	32880	
2704	0	32886	
2705	0	32856	
2706	0	32862	
2707	0	32896	
2708	0	32952	
2709	0	33024	
2710	0	33024	
2711	0	33008	
2712	0	33004	
2713	0	33056	
2714	0	33128	
2715	0	33216	
2716	0	33242	
2717	0	33292	
2718	0	33384	
2719	0	33480	
2720	0	33536	
2721	0	33580	
2722	0	33608	
2723	0	33684	
2724	0	33728	
2725	0	33744	
2726	0	33772	
2727	0	33804	
2728	0	33836	
2729	0	33916	
2730	0	34032	
2731	0	34144	
2732	0	34266	
2733	0	34360	
2734	0	34432	
2735	0	34500	
2736	0	34560	
2737	0	34608	
2738	0	34684	
2739	0	34704	
2740	0	34746	
2741	0	34840	
2742	0	34916	
2743	0	35000	
2744	0	35048	
2745	0	35096	
2746	0	35192	
2747	0	35244	
2748	0	35288	
2749	0	35338	
2750	0	35484	
2751	0	35596	
2752	0	35720	
2753	0	35822	
2754	0	35868	
2755	0	35932	
2756	0	36004	
2757	0	36056	
2758	0	36120	
2759	0	36196	
2760	0	36264	
2761	0	36292	
2762	0	36352	
2763	0	36456	
2764	0	36536	
2765	0	36602	
2766	0	36634	
2767	0	36648	
2768	0	36672	
2769	0	36706	
2770	0	36724	
2771	0	36776	
2772	0	36836	
2773	0	36884	
2774	0	36904	
2775	0	36922	
2776	0	36904	
2777	0	36936	
2778	0	37000	
2779	0	37032	
2780	0	37056	
2781	0	37104	
2782	0	37144	
2783	0	37168	
2784	0	37168	
2785	0	37116	
2786	0	37120	
2787	0	37104	
2788	0	37076	
2789	0	37080	
2790	0	37072	
2791	0	37028	
2792	0	36972	
2793	0	36924	
2794	0	36896	
2795	0	36836	
2796	0	36764	
2797	0	36700	
2798	0	36666	
2799	0	36576	
2800	0	36424	
2801	0	36268	
2802	0	36100	
2803	0	35904	
2804	0	35684	
2805	0	35532	
2806	0	35412	
2807	0	35290	
2808	0	35136	
2809	0	35004	
2810	0	34888	
2811	0	34672	
2812	0	34420	
2813	0	34216	
2814	0	34056	
2815	0	33864	
2816	0	33720	
2817	0	33582	
2818	0	33444	
2819	0	33256	
2820	0	33036	
2821	0	32796	
2822	0	32576	
2823	0	32428	
2824	0	32250	
2825	0	32076	
2826	0	31932	
2827	0	31772	
2828	0	31596	
2829	0	31480	
2830	0	31360	
2831	0	31220	
2832	0	31048	
2833	0	30872	
2834	0	30748	
2835	0	30632	
2836	0	30536	
2837	0	30492	
2838	0	30436	
2839	0	30380	
2840	0	30272	
2841	0	30184	
2842	0	30120	
2843	0	30056	
2844	0	29936	
2845	0	29848	
2846	0	29752	
2847	0	29682	
2848	0	29600	
2849	0	29508	
2850	0	29416	
2851	0	29396	
2852	0	29376	
2853	0	29396	
2854	0	29448	
2855	0	29504	
2856	0	29532	
2857	0	29508	
2858	0	29472	
2859	0	29432	
2860	0	29376	
2861	0	29332	
2862	0	29316	
2863	0	29356	
2864	0	29352	
2865	0	29340	
2866	0	29344	
2867	0	29330	
2868	0	29320	
2869	0	29312	
2870	0	29304	
2871	0	29326	
2872	0	29380	
2873	0	29416	
2874	0	29428	
2875	0	29390	
2876	0	29372	
2877	0	29384	
2878	0	29448	
2879	0	29480	
2880	0	29500	
2881	0	29488	
2882	0	29492	
2883	0	29532	
2884	0	29592	
2885	0	29640	
2886	0	29666	
2887	0	29676	
2888	0	29696	
2889	0	29712	
2890	0	29754	
2891	0	29796	
2892	0	29824	
2893	0	29888	
2894	0	29940	
2895	0	29940	
2896	0	29960	
2897	0	29992	
2898	0	29992	
2899	0	30024	
2900	0	30072	
2901	0	30092	
2902	0	30108	
2903	0	30116	
2904	0	30096	
2905	0	30128	
2906	0	30184	
2907	0	30224	
2908	0	30250	
2909	0	30254	
2910	0	30276	
2911	0	30368	
2912	0	30392	
2913	0	30332	
2914	0	30312	
2915	0	30376	
2916	0	30472	
2917	0	30528	
2918	0	30508	
2919	0	30508	
2920	0	30580	
2921	0	30660	
2922	0	30668	
2923	0	30668	
2924	0	30664	
2925	0	30640	
2926	0	30656	
2927	0	30628	
2928	0	30580	
2929	0	30600	
2930	0	30632	
2931	0	30684	
2932	0	30752	
2933	0	30788	
2934	0	30850	
2935	0	30904	
2936	0	30952	
2937	0	30992	
2938	0	31032	
2939	0	31036	
2940	0	31072	
2941	0	31108	
2942	0	31086	
2943	0	31068	
2944	0	31048	
2945	0	31040	
2946	0	31000	
2947	0	30924	
2948	0	30908	
2949	0	30928	
2950	0	30956	
2951	0	30976	
2952	0	31016	
2953	0	31048	
2954	0	31076	
2955	0	31084	
2956	0	31152	
2957	0	31220	
2958	0	31264	
2959	0	31224	
2960	0	31168	
2961	0	31160	
2962	0	31148	
2963	0	31168	
2964	0	31200	
2965	0	31180	
2966	0	31136	
2967	0	31168	
2968	0	31192	
2969	0	31192	
2970	0	31212	
2971	0	31252	
2972	0	31280	
2973	0	31340	
2974	0	31392	
2975	0	31384	
2976	0	31348	
2977	0	31356	
2978	0	31393	
2979	0	31404	
2980	0	31380	
2981	0	31372	
2982	0	31430	
2983	0	31456	
2984	0	31464	
2985	0	31484	
2986	0	31516	
2987	0	31468	
2988	0	31440	
2989	0	31468	
2990	0	31492	
2991	0	31554	
2992	0	31592	
2993	0	31608	
2994	0	31676	
2995	0	31716	
2996	0	31660	
2997	0	31692	
2998	0	31732	
2999	0	31704	
3000	0	31696	
3001	0	31664	
3002	0	31688	
3003	0	31720	
3004	0	31716	
3005	0	31728	
3006	0	31776	
3007	0	31776	
3008	0	31744	
3009	0	31704	
3010	0	31712	
3011	0	31732	
3012	0	31744	
3013	0	31784	
3014	0	31802	
3015	0	31856	
3016	0	31856	
3017	0	31840	
3018	0	31828	
3019	0	31848	
3020	0	31936	
3021	0	32006	
3022	0	31960	
3023	0	31872	
3024	0	31852	
3025	0	31864	
3026	0	31824	
3027	0	31768	
3028	0	31804	
3029	0	31908	
3030	0	31964	
3031	0	31936	
3032	0	31916	
3033	0	31964	
3034	0	32032	
3035	0	32068	
3036	0	32048	
3037	0	32000	
3038	0	31968	
3039	0	32024	
3040	0	32056	
3041	0	32028	
3042	0	32012	
3043	0	32024	
3044	0	32032	
3045	0	32024	
3046	0	32000	
3047	0	31996	
3048	0	32000	
3049	0	32000	
3050	0	32056	
3051	0	32080	
3052	0	32080	
3053	0	32072	
3054	0	32092	
3055	0	32116	
3056	0	32116	
3057	0	32120	
3058	0	32112	
3059	0	32104	
3060	0	32096	
3061	0	32104	
3062	0	32122	
3063	0	32128	
3064	0	32132	
3065	0	32132	
3066	0	32096	
3067	0	32104	
3068	0	32164	
3069	0	32188	
3070	0	32168	
3071	0	32176	
3072	0	32212	
3073	0	32208	
3074	0	32240	
3075	0	32266	
3076	0	32288	
3077	0	32288	
3078	0	32292	
3079	0	32276	
3080	0	32284	
3081	0	32356	
3082	0	32396	
3083	0	32420	
3084	0	32380	
3085	0	32320	
3086	0	32268	
3087	0	32222	
3088	0	32216	
3089	0	32200	
3090	0	32218	
3091	0	32272	
3092	0	32300	
3093	0	32308	
3094	0	32280	
3095	0	32300	
3096	0	32364	
3097	0	32432	
3098	0	32456	
3099	0	32460	
3100	0	32466	
3101	0	32450	
3102	0	32436	
3103	0	32420	
3104	0	32466	
3105	0	32472	
3106	0	32456	
3107	0	32436	
3108	0	32436	
3109	0	32440	
3110	0	32432	
3111	0	32476	
3112	0	32512	
3113	0	32544	
3114	0	32584	
3115	0	32596	
3116	0	32620	
3117	0	32656	
3118	0	32684	
3119	0	32692	
3120	0	32666	
3121	0	32676	
3122	0	32672	
3123	0	32664	
3124	0	32628	
3125	0	32576	
3126	0	32524	
3127	0	32480	
3128	0	32504	
3129	0	32584	
3130	0	32616	
3131	0	32600	
3132	0	32600	
3133	0	32632	
3134	0	32636	
3135	0	32656	
3136	0	32688	
3137	0	32726	
3138	0	32740	
3139	0	32758	
3140	0	32704	
3141	0	32652	
3142	0	32634	
3143	0	32564	
3144	0	32570	
3145	0	32624	
3146	0	32656	
3147	0	32666	
3148	0	32692	
3149	0	32724	
3150	0	32768	
3151	0	32866	
3152	0	32936	
3153	0	33004	
3154	0	33080	
3155	0	33164	
3156	0	33300	
3157	0	33440	
3158	0	33568	
3159	0	33678	
3160	0	33764	
3161	0	33872	
3162	0	33940	
3163	0	34052	
3164	0	34124	
3165	0	34136	
3166	0	34104	
3167	0	34084	
3168	0	34076	
3169	0	34168	
3170	0	34296	
3171	0	34404	
3172	0	34490	
3173	0	34532	
3174	0	34540	
3175	0	34560	
3176	0	34596	
3177	0	34640	
3178	0	34668	
3179	0	34692	
3180	0	34788	
3181	0	34912	
3182	0	35024	
3183	0	35180	
3184	0	35352	
3185	0	35456	
3186	0	35520	
3187	0	35504	
3188	0	35492	
3189	0	35460	
3190	0	35464	
3191	0	35480	
3192	0	35414	
3193	0	35428	
3194	0	35444	
3195	0	35516	
3196	0	35610	
3197	0	35616	
3198	0	35520	
3199	0	35354	
3200	0	35232	
3201	0	35104	
3202	0	34896	
3203	0	34680	
3204	0	34488	
3205	0	34312	
3206	0	34156	
3207	0	34032	
3208	0	33972	
3209	0	33920	
3210	0	33872	
3211	0	33840	
3212	0	33788	
3213	0	33684	
3214	0	33600	
3215	0	33584	
3216	0	33626	
3217	0	33650	
3218	0	33668	
3219	0	33652	
3220	0	33624	
3221	0	33568	
3222	0	33450	
3223	0	33280	
3224	0	33208	
3225	0	33140	
3226	0	33056	
3227	0	32968	
3228	0	32888	
3229	0	32768	
3230	0	32666	
3231	0	32556	
3232	0	32436	
3233	0	32332	
3234	0	32272	
3235	0	32208	
3236	0	32136	
3237	0	32036	
3238	0	31928	
3239	0	31822	
3240	0	31728	
3241	0	31668	
3242	0	31658	
3243	0	31628	
3244	0	31656	
3245	0	31668	
3246	0	31700	
3247	0	31708	
3248	0	31668	
3249	0	31644	
3250	0	31628	
3251	0	31624	
3252	0	31648	
3253	0	31656	
3254	0	31648	
3255	0	31688	
3256	0	31724	
3257	0	31740	
3258	0	31740	
3259	0	31736	
3260	0	31752	
3261	0	31736	
3262	0	31720	
3263	0	31660	
3264	0	31644	
3265	0	31620	
3266	0	31572	
3267	0	31556	
3268	0	31504	
3269	0	31498	
3270	0	31532	
3271	0	31556	
3272	0	31608	
3273	0	31664	
3274	0	31724	
3275	0	31796	
3276	0	31852	
3277	0	31840	
3278	0	31788	
3279	0	31818	
3280	0	31826	
3281	0	31826	
3282	0	31824	
3283	0	31824	
3284	0	31824	
3285	0	31796	
3286	0	31754	
3287	0	31756	
3288	0	31768	
3289	0	31752	
3290	0	31752	
3291	0	31712	
3292	0	31676	
3293	0	31596	
3294	0	31500	
3295	0	31364	
3296	0	31216	
3297	0	31072	
3298	0	30944	
3299	0	30972	
3300	0	31036	
3301	0	31092	
3302	0	31284	
3303	0	31612	
3304	0	32120	
3305	0	32708	
3306	0	33444	
3307	0	34360	
3308	0	35396	
3309	0	36576	
3310	0	37880	
3311	0	39424	
3312	0	41008	
3313	0	42416	
3314	0	43780	
3315	0	45184	
3316	0	46640	
3317	0	48200	
3318	0	49820	
3319	0	51348	
3320	0	52828	
3321	0	54328	
3322	0	55768	
3323	0	57088	
3324	0	58176	
3325	0	59148	
3326	0	59988	
3327	0	60616	
3328	0	60936	
3329	0	60364	
3330	0	58808	
3331	0	56488	
3332	0	53456	
3333	0	50036	
3334	0	46568	
3335	0	42664	
3336	0	38192	
3337	0	33744	
3338	0	30236	
3339	0	27824	
3340	0	26336	
3341	0	25572	
3342	0	25204	
3343	0	25176	
3344	0	25321	
3345	0	25536	
3346	0	25840	
3347	0	26220	
3348	0	26728	
3349	0	27256	
3350	0	27757	
3351	0	28192	
3352	0	28600	
3353	0	29048	
3354	0	29428	
3355	0	29692	
3356	0	29876	
3357	0	29988	
3358	0	30010	
3359	0	30008	
3360	0	29944	
3361	0	29888	
3362	0	29844	
3363	0	29744	
3364	0	29676	
3365	0	29592	
3366	0	29472	
3367	0	29376	
3368	0	29340	
3369	0	29252	
3370	0	29180	
3371	0	29172	
3372	0	29200	
3373	0	29236	
3374	0	29276	
3375	0	29308	
3376	0	29336	
3377	0	29360	
3378	0	29396	
3379	0	29418	
3380	0	29402	
3381	0	29388	
3382	0	29394	
3383	0	29432	
3384	0	29440	
3385	0	29468	
3386	0	29516	
3387	0	29532	
3388	0	29532	
3389	0	29568	
3390	0	29616	
3391	0	29648	
3392	0	29726	
3393	0	29748	
3394	0	29760	
3395	0	29796	
3396	0	29888	
3397	0	29948	
3398	0	29972	
3399	0	30008	
3400	0	30016	
3401	0	30040	
3402	0	30036	
3403	0	30056	
3404	0	30058	
3405	0	30056	
3406	0	30096	
3407	0	30128	
3408	0	30136	
3409	0	30154	
3410	0	30196	
3411	0	30264	
3412	0	30304	
3413	0	30356	
3414	0	30412	
3415	0	30456	
3416	0	30516	
3417	0	30616	
3418	0	30668	
3419	0	30664	
3420	0	30648	
3421	0	30664	
3422	0	30688	
3423	0	30656	
3424	0	30640	
3425	0	30608	
3426	0	30608	
3427	0	30660	
3428	0	30694	
3429	0	30708	
3430	0	30804	
3431	0	30912	
3432	0	30916	
3433	0	30944	
3434	0	31010	
3435	0	31076	
3436	0	31116	
3437	0	31192	
3438	0	31256	
3439	0	31312	
3440	0	31284	
3441	0	31312	
3442	0	31312	
3443	0	31264	
3444	0	31260	
3445	0	31320	
3446	0	31364	
3447	0	31348	
3448	0	31340	
3449	0	31364	
3450	0	31400	
3451	0	31386	
3452	0	31392	
3453	0	31424	
3454	0	31502	
3455	0	31616	
3456	0	31680	
3457	0	31716	
3458	0	31732	
3459	0	31756	
3460	0	31784	
3461	0	31796	
3462	0	31800	
3463	0	31792	
3464	0	31832	
3465	0	31856	
3466	0	31864	
3467	0	31912	
3468	0	31952	
3469	0	31984	
3470	0	32052	
3471	0	32088	
3472	0	32104	
3473	0	32172	
3474	0	32196	
3475	0	32200	
3476	0	32192	
3477	0	32192	
3478	0	32216	
3479	0	32252	
3480	0	32292	
3481	0	32352	
3482	0	32440	
3483	0	32488	
3484	0	32544	
3485	0	32608	
3486	0	32612	
3487	0	32624	
3488	0	32692	
3489	0	32736	
3490	0	32792	
3491	0	32832	
3492	0	32876	
3493	0	32952	
3494	0	33060	
3495	0	33124	
3496	0	33112	
3497	0	33204	
3498	0	33312	
3499	0	33388	
3500	0	33424	
3501	0	33476	
3502	0	33544	
3503	0	33584	
3504	0	33620	
3505	0	33644	
3506	0	33724	
3507	0	33856	
3508	0	33952	
3509	0	34020	
3510	0	34092	
3511	0	34156	
3512	0	34268	
3513	0	34368	
3514	0	34408	
3515	0	34488	
3516	0	34576	
3517	0	34672	
3518	0	34776	
3519	0	34840	
3520	0	34864	
3521	0	34944	
3522	0	35016	
3523	0	35032	
3524	0	35076	
3525	0	35152	
3526	0	35240	
3527	0	35316	
3528	0	35428	
3529	0	35544	
3530	0	35642	
3531	0	35696	
3532	0	35720	
3533	0	35776	
3534	0	35840	
3535	0	35892	
3536	0	35988	
3537	0	36080	
3538	0	36152	
3539	0	36208	
3540	0	36260	
3541	0	36236	
3542	0	36204	
3543	0	36184	
3544	0	36240	
3545	0	36272	
3546	0	36300	
3547	0	36396	
3548	0	36462	
3549	0	36548	
3550	0	36660	
3551	0	36672	
3552	0	36704	
3553	0	36740	
3554	0	36764	
3555	0	36828	
3556	0	36832	
3557	0	36880	
3558	0	36896	
3559	0	36824	
3560	0	36724	
3561	0	36688	
3562	0	36704	
3563	0	36656	
3564	0	36604	
3565	0	36556	
3566	0	36500	
3567	0	36464	
3568	0	36396	
3569	0	36336	
3570	0	36248	
3571	0	36148	
3572	0	36044	
3573	0	35966	
3574	0	35888	
3575	0	35844	
3576	0	35676	
3577	0	35470	
3578	0	35288	
3579	0	35128	
3580	0	34976	
3581	0	34820	
3582	0	34656	
3583	0	34456	
3584	0	34224	
3585	0	34028	
3586	0	33816	
3587	0	33612	
3588	0	33428	
3589	0	33200	
3590	0	32964	
3591	0	32784	
3592	0	32666	
3593	0	32576	
3594	0	32496	
3595	0	32352	
3596	0	32140	
3597	0	31960	
3598	0	31824	
3599	0	31672	
3600	0	31480	
3601	0	31268	
3602	0	31056	
3603	0	30882	
3604	0	30704	
3605	0	30560	
3606	0	30416	
3607	0	30248	
3608	0	30154	
3609	0	30124	
3610	0	30042	
3611	0	29904	
3612	0	29808	
3613	0	29732	
3614	0	29640	
3615	0	29548	
3616	0	29468	
3617	0	29356	
3618	0	29284	
3619	0	29256	
3620	0	29172	
3621	0	29068	
3622	0	28960	
3623	0	28952	
3624	0	28948	
3625	0	28956	
3626	0	28916	
3627	0	28884	
3628	0	28866	
3629	0	28836	
3630	0	28856	
3631	0	28880	
3632	0	28896	
3633	0	28880	
3634	0	28932	
3635	0	28952	
3636	0	28896	
3637	0	28828	
3638	0	28760	
3639	0	28696	
3640	0	28640	
3641	0	28612	
3642	0	28692	
3643	0	28788	
3644	0	28836	
3645	0	28840	
3646	0	28830	
3647	0	28848	
3648	0	28880	
3649	0	28876	
3650	0	28884	
3651	0	28928	
3652	0	28924	
3653	0	28964	
3654	0	29096	
3655	0	29216	
3656	0	29252	
3657	0	29296	
3658	0	29336	
3659	0	29352	
3660	0	29344	
3661	0	29284	
3662	0	29276	
3663	0	29276	
3664	0	29348	
3665	0	29444	
3666	0	29448	
3667	0	29402	
3668	0	29404	
3669	0	29448	
3670	0	29484	
3671	0	29490	
3672	0	29532	
3673	0	29560	
3674	0	29596	
3675	0	29664	
3676	0	29688	
3677	0	29728	
3678	0	29772	
3679	0	29804	
3680	0	29816	
3681	0	29804	
3682	0	29804	
3683	0	29856	
3684	0	29844	
3685	0	29820	
3686	0	29820	
3687	0	29852	
3688	0	29846	
3689	0	29872	
3690	0	29928	
3691	0	30032	
3692	0	30092	
3693	0	30146	
3694	0	30172	
3695	0	30208	
3696	0	30292	
3697	0	30284	
3698	0	30264	
3699	0	30284	
3700	0	30316	
3701	0	30372	
3702	0	30376	
3703	0	30420	
3704	0	30404	
3705	0	30400	
3706	0	30392	
3707	0	30370	
3708	0	30340	
3709	0	30340	
3710	0	30368	
3711	0	30396	
3712	0	30460	
3713	0	30520	
3714	0	30544	
3715	0	30588	
3716	0	30604	
3717	0	30624	
3718	0	30640	
3719	0	30664	
3720	0	30656	
3721	0	30520	
3722	0	30488	
3723	0	30496	
3724	0	30552	
3725	0	30568	
3726	0	30580	
3727	0	30580	
3728	0	30576	
3729	0	30608	
3730	0	30688	
3731	0	30768	
3732	0	30820	
3733	0	30810	
3734	0	30864	
3735	0	30962	
3736	0	31016	
3737	0	31040	
3738	0	31064	
3739	0	31064	
3740	0	31052	
3741	0	30992	
3742	0	30944	
3743	0	30920	
3744	0	30940	
3745	0	30976	
3746	0	31000	
3747	0	31080	
3748	0	31112	
3749	0	31168	
3750	0	31208	
3751	0	31208	
3752	0	31204	
3753	0	31236	
3754	0	31220	
3755	0	31164	
3756	0	31166	
3757	0	31216	
3758	0	31220	
3759	0	31212	
3760	0	31216	
3761	0	31188	
3762	0	31188	
3763	0	31212	
3764	0	31180	
3765	0	31184	
3766	0	31198	
3767	0	31208	
3768	0	31296	
3769	0	31336	
3770	0	31376	
3771	0	31404	
3772	0	31364	
3773	0	31322	
3774	0	31360	
3775	0	31400	
3776	0	31436	
3777	0	31468	
3778	0	31436	
3779	0	31416	
3780	0	31422	
3781	0	31440	
3782	0	31408	
3783	0	31436	
3784	0	31360	
3785	0	31352	
3786	0	31296	
3787	0	31272	
3788	0	31320	
3789	0	31384	
3790	0	31364	
3791	0	31336	
3792	0	31332	
3793	0	31392	
3794	0	31460	
3795	0	31512	
3796	0	31632	
3797	0	31704	
3798	0	31676	
3799	0	31586	
3800	0	31520	
3801	0	31532	
3802	0	31512	
3803	0	31516	
3804	0	31568	
3805	0	31600	
3806	0	31596	
3807	0	31556	
3808	0	31532	
3809	0	31552	
3810	0	31572	
3811	0	31562	
3812	0	31568	
3813	0	31616	
3814	0	31682	
3815	0	31696	
3816	0	31712	
3817	0	31816	
3818	0	31896	
3819	0	31888	
3820	0	31780	
3821	0	31764	
3822	0	31828	
3823	0	31860	
3824	0	31808	
3825	0	31760	
3826	0	31754	
3827	0	31680	
3828	0	31600	
3829	0	31604	
3830	0	31640	
3831	0	31720	
3832	0	31808	
3833	0	31796	
3834	0	31832	
3835	0	31916	
3836	0	31948	
3837	0	31892	
3838	0	31864	
3839	0	31828	
3840	0	31888	
3841	0	31880	
3842	0	31802	
3843	0	31812	
3844	0	31872	
3845	0	31874	
3846	0	31892	
3847	0	31936	
3848	0	31960	
3849	0	31984	
3850	0	32032	
3851	0	32050	
3852	0	32048	
3853	0	32116	
3854	0	32196	
3855	0	32248	
3856	0	32244	
3857	0	32168	
3858	0	32040	
3859	0	32000	
3860	0	32084	
3861	0	32120	
3862	0	32094	
3863	0	32020	
3864	0	32048	
3865	0	32056	
3866	0	32016	
3867	0	31984	
3868	0	32020	
3869	0	32104	
3870	0	32164	
3871	0	32178	
3872	0	32160	
3873	0	32156	
3874	0	32176	
3875	0	32202	
3876	0	32204	
3877	0	32136	
3878	0	32124	
3879	0	32158	
3880	0	32260	
3881	0	32304	
3882	0	32336	
3883	0	32384	
3884	0	32452	
3885	0	32464	
3886	0	32496	
3887	0	32640	
3888	0	32744	
3889	0	32864	
3890	0	32992	
3891	0	33104	
3892	0	33296	
3893	0	33418	
3894	0	33508	
3895	0	33588	
3896	0	33580	
3897	0	33536	
3898	0	33468	
3899	0	33480	
3900	0	33544	
3901	0	33580	
3902	0	33632	
3903	0	33680	
3904	0	33756	
3905	0	33828	
3906	0	33836	
3907	0	33864	
3908	0	33924	
3909	0	34016	
3910	0	34116	
3911	0	34256	
3912	0	34404	
3913	0	34508	
3914	0	34654	
3915	0	34824	
3916	0	34892	
3917	0	34960	
3918	0	35018	
3919	0	35040	
3920	0	35008	
3921	0	34988	
3922	0	35024	
3923	0	35072	
3924	0	35156	
3925	0	35224	
3926	0	35340	
3927	0	35428	
3928	0	35456	
3929	0	35344	
3930	0	35266	
3931	0	35180	
3932	0	35020	
3933	0	34824	
3934	0	34616	
3935	0	34484	
3936	0	34352	
3937	0	34164	
3938	0	34024	
3939	0	33960	
3940	0	33948	
3941	0	33944	
3942	0	33946	
3943	0	33886	
3944	0	33776	
3945	0	33696	
3946	0	33668	
3947	0	33608	
3948	0	33536	
3949	0	33492	
3950	0	33436	
3951	0	33324	
3952	0	33232	
3953	0	33068	
3954	0	32924	
3955	0	32984	
3956	0	32994	
3957	0	32904	
3958	0	32772	
3959	0	32620	
3960	0	32568	
3961	0	32548	
3962	0	32436	
3963	0	32280	
3964	0	32152	
3965	0	32052	
3966	0	31980	
3967	0	31888	
3968	0	31792	
3969	0	31708	
3970	0	31712	
3971	0	31736	
3972	0	31716	
3973	0	31652	
3974	0	31560	
3975	0	31532	
3976	0	31580	
3977	0	31592	
3978	0	31538	
3979	0	31532	
3980	0	31620	
3981	0	31706	
3982	0	31736	
3983	0	31724	
3984	0	31660	
3985	0	31628	
3986	0	31660	
3987	0	31668	
3988	0	31688	
3989	0	31692	
3990	0	31752	
3991	0	31800	
3992	0	31788	
3993	0	31668	
3994	0	31584	
3995	0	31652	
3996	0	31744	
3997	0	31728	
3998	0	31700	
3999	0	31728	
4000	0	31640	
4001	0	31580	
4002	0	31560	
4003	0	31616	
4004	0	31680	
4005	0	31632	
4006	0	31660	
4007	0	31696	
4008	0	31668	
4009	0	31644	
4010	0	31752	
4011	0	31872	
4012	0	31978	
4013	0	32064	
4014	0	32096	
4015	0	32092	
4016	0	32124	
4017	0	32186	
4018	0	32200	
4019	0	32152	
4020	0	32076	
4021	0	31952	
4022	0	31900	
4023	0	31872	
4024	0	31848	
4025	0	31800	
4026	0	31616	
4027	0	31412	
4028	0	31288	
4029	0	31164	
4030	0	31144	
4031	0	31194	
4032	0	31300	
4033	0	31374	
4034	0	31572	
4035	0	31976	
4036	0	32496	
4037	0	33072	
4038	0	33844	
4039	0	34944	
4040	0	36160	
4041	0	37508	
4042	0	39120	
4043	0	40746	
4044	0	42196	
4045	0	43688	
4046	0	45192	
4047	0	46784	
4048	0	48400	
4049	0	49928	
4050	0	51236	
4051	0	52424	
4052	0	53656	
4053	0	54904	
4054	0	56136	
4055	0	57328	
4056	0	58544	
4057	0	59712	
4058	0	60512	
4059	0	60840	
4060	0	60460	
4061	0	59116	
4062	0	56984	
4063	0	54016	
4064	0	50524	
4065	0	46972	
4066	0	43248	
4067	0	38916	
4068	0	34344	
4069	0	30216	
4070	0	27200	
4071	0	25352	
4072	0	24432	
4073	0	24192	
4074	0	24352	
4075	0	24842	
4076	0	25348	
4077	0	25780	
4078	0	26080	
4079	0	26412	
4080	0	26786	
4081	0	27100	
4082	0	27336	
4083	0	27572	
4084	0	27868	
4085	0	28144	
4086	0	28420	
4087	0	28776	
4088	0	29060	
4089	0	29324	
4090	0	29632	
4091	0	29888	
4092	0	30124	
4093	0	30208	
4094	0	30252	
4095	0	30232	
4096	0	30152	
4097	0	30128	
4098	0	30096	
4099	0	29988	
4100	0	29960	
4101	0	29980	
4102	0	29972	
4103	0	29924	
4104	0	29908	
4105	0	29868	
4106	0	29860	
4107	0	29940	
4108	0	29984	
4109	0	29912	
4110	0	29864	
4111	0	29904	
4112	0	30000	
4113	0	30084	
4114	0	30144	
4115	0	30156	
4116	0	30218	
4117	0	30276	
4118	0	30300	
4119	0	30328	
4120	0	30336	
4121	0	30328	
4122	0	30360	
4123	0	30384	
4124	0	30428	
4125	0	30444	
4126	0	30472	
4127	0	30544	
4128	0	30596	
4129	0	30620	
4130	0	30656	
4131	0	30672	
4132	0	30732	
4133	0	30820	
4134	0	30864	
4135	0	30914	
4136	0	30924	
4137	0	30920	
4138	0	30936	
4139	0	30960	
4140	0	30956	
4141	0	30986	
4142	0	30984	
4143	0	31064	
4144	0	31084	
4145	0	31080	
4146	0	31106	
4147	0	31200	
4148	0	31296	
4149	0	31376	
4150	0	31322	
4151	0	31264	
4152	0	31216	
4153	0	31192	
4154	0	31240	
4155	0	31336	
4156	0	31468	
4157	0	31496	
4158	0	31604	
4159	0	31688	
4160	0	31692	
4161	0	31720	
4162	0	31664	
4163	0	31640	
4164	0	31664	
4165	0	31720	
4166	0	31772	
4167	0	31828	
4168	0	31948	
4169	0	32016	
4170	0	31976	
4171	0	31944	
4172	0	31896	
4173	0	31900	
4174	0	31960	
4175	0	32036	
4176	0	32112	
4177	0	32168	
4178	0	32152	
4179	0	32076	
4180	0	32046	
4181	0	32016	
4182	0	32004	
4183	0	31992	
4184	0	32040	
4185	0	32092	
4186	0	32116	
4187	0	32164	
4188	0	32240	
4189	0	32404	
4190	0	32460	
4191	0	32460	
4192	0	32496	
4193	0	32504	
4194	0	32492	
4195	0	32496	
4196	0	32552	
4197	0	32628	
4198	0	32618	
4199	0	32640	
4200	0	32686	
4201	0	32688	
4202	0	32724	
4203	0	32784	
4204	0	32832	
4205	0	32884	
4206	0	32878	
4207	0	32912	
4208	0	33032	
4209	0	33114	
4210	0	33172	
4211	0	33268	
4212	0	33348	
4213	0	33432	
4214	0	33520	
4215	0	33544	
4216	0	33532	
4217	0	33460	
4218	0	33400	
4219	0	33480	
4220	0	33588	
4221	0	33632	
4222	0	33708	
4223	0	33784	
4224	0	33864	
4225	0	33904	
4226	0	33978	
4227	0	34080	
4228	0	34170	
4229	0	34106	
4230	0	34080	
4231	0	34136	
4232	0	34292	
4233	0	34464	
4234	0	34560	
4235	0	34616	
4236	0	34640	
4237	0	34721	
4238	0	34836	
4239	0	34952	
4240	0	35072	
4241	0	35156	
4242	0	35204	
4243	0	35220	
4244	0	35252	
4245	0	35248	
4246	0	35308	
4247	0	35392	
4248	0	35440	
4249	0	35480	
4250	0	35572	
4251	0	35564	
4252	0	35588	
4253	0	35744	
4254	0	35904	
4255	0	36084	
4256	0	36172	
4257	0	36280	
4258	0	36316	
4259	0	36400	
4260	0	36468	
4261	0	36532	
4262	0	36560	
4263	0	36644	
4264	0	36708	
4265	0	36800	
4266	0	36896	
4267	0	36896	
4268	0	36868	
4269	0	36880	
4270	0	36976	
4271	0	37104	
4272	0	37184	
4273	0	37216	
4274	0	37252	
4275	0	37352	
4276	0	37466	
4277	0	37504	
4278	0	37508	
4279	0	37500	
4280	0	37544	
4281	0	37560	
4282	0	37532	
4283	0	37528	
4284	0	37560	
4285	0	37576	
4286	0	37552	
4287	0	37500	
4288	0	37532	
4289	0	37496	
4290	0	37424	
4291	0	37400	
4292	0	37424	
4293	0	37418	
4294	0	37436	
4295	0	37412	
4296	0	37372	
4297	0	37272	
4298	0	37264	
4299	0	37224	
4300	0	37128	
4301	0	37056	
4302	0	36912	
4303	0	36680	
4304	0	36464	
4305	0	36352	
4306	0	36288	
4307	0	36204	
4308	0	36044	
4309	0	35808	
4310	0	35680	
4311	0	35520	
4312	0	35288	
4313	0	35112	
4314	0	34932	
4315	0	34780	
4316	0	34664	
4317	0	34436	
4318	0	34208	
4319	0	34016	
4320	0	33868	
4321	0	33680	
4322	0	33508	
4323	0	33316	
4324	0	33120	
4325	0	32900	
4326	0	32648	
4327	0	32416	
4328	0	32256	
4329	0	32096	
4330	0	31952	
4331	0	31800	
4332	0	31612	
4333	0	31500	
4334	0	31320	
4335	0	31236	
4336	0	31160	
4337	0	31040	
4338	0	30944	
4339	0	30804	
4340	0	30712	
4341	0	30644	
4342	0	30432	
4343	0	30296	
4344	0	30284	
4345	0	30216	
4346	0	30092	
4347	0	29908	
4348	0	29796	
4349	0	29800	
4350	0	29768	
4351	0	29712	
4352	0	29712	
4353	0	29716	
4354	0	29668	
4355	0	29668	
4356	0	29676	
4357	0	29656	
4358	0	29576	
4359	0	29468	
4360	0	29428	
4361	0	29388	
4362	0	29300	
4363	0	29240	
4364	0	29232	
4365	0	29248	
4366	0	29280	
4367	0	29330	
4368	0	29316	
4369	0	29320	
4370	0	29360	
4371	0	29384	
4372	0	29372	
4373	0	29400	
4374	0	29468	
4375	0	29508	
4376	0	29520	
4377	0	29548	
4378	0	29572	
4379	0	29548	
4380	0	29536	
4381	0	29520	
4382	0	29500	
4383	0	29488	
4384	0	29460	
4385	0	29474	
4386	0	29568	
4387	0	29620	
4388	0	29632	
4389	0	29660	
4390	0	29604	
4391	0	29544	
4392	0	29628	
4393	0	29696	
4394	0	29698	
4395	0	29776	
4396	0	29860	
4397	0	29924	
4398	0	29900	
4399	0	29892	
4400	0	29928	
4401	0	29972	
4402	0	29992	
4403	0	30022	
4404	0	30068	
4405	0	30068	
4406	0	30080	
4407	0	30048	
4408	0	30044	
4409	0	30044	
4410	0	30116	
4411	0	30204	
4412	0	30276	
4413	0	30266	
4414	0	30244	
4415	0	30284	
4416	0	30384	
4417	0	30416	
4418	0	30404	
4419	0	30422	
4420	0	30528	
4421	0	30578	
4422	0	30540	
4423	0	30504	
4424	0	30426	
4425	0	30460	
4426	0	30504	
4427	0	30448	
4428	0	30496	
4429	0	30552	
4430	0	30652	
4431	0	30688	
4432	0	30708	
4433	0	30746	
4434	0	30816	
4435	0	30868	
4436	0	30864	
4437	0	30860	
4438	0	30900	
4439	0	30880	
4440	0	30896	
4441	0	30900	
4442	0	30884	
4443	0	30896	
4444	0	30948	
4445	0	31040	
4446	0	31104	
4447	0	31072	
4448	0	31040	
4449	0	31082	
4450	0	31120	
4451	0	31156	
4452	0	31164	
4453	0	31184	
4454	0	31208	
4455	0	31186	
4456	0	31194	
4457	0	31132	
4458	0	31184	
4459	0	31320	
4460	0	31396	
4461	0	31412	
4462	0	31372	
4463	0	31330	
4464	0	31328	
4465	0	31328	
4466	0	31348	
4467	0	31404	
4468	0	31428	
4469	0	31436	
4470	0	31484	
4471	0	31508	
4472	0	31496	
4473	0	31500	
4474	0	31488	
4475	0	31432	
4476	0	31500	
4477	0	31560	
4478	0	31588	
4479	0	31576	
4480	0	31508	
4481	0	31500	
4482	0	31556	
4483	0	31620	
4484	0	31672	
4485	0	31652	
4486	0	31580	
4487	0	31688	
4488	0	31760	
4489	0	31792	
4490	0	31768	
4491	0	31744	
4492	0	31776	
4493	0	31776	
4494	0	31776	
4495	0	31808	
4496	0	31872	
4497	0	31856	
4498	0	31784	
4499	0	31754	
4500	0	31792	
4501	0	31834	
4502	0	31856	
4503	0	31908	
4504	0	32016	
4505	0	32024	
4506	0	31972	
4507	0	31932	
4508	0	31932	
4509	0	31968	
4510	0	31994	
4511	0	32000	
4512	0	32008	
4513	0	31992	
4514	0	31976	
4515	0	31992	
4516	0	32076	
4517	0	32092	
4518	0	32044	
4519	0	32044	
4520	0	31996	
4521	0	31976	
4522	0	31996	
4523	0	31952	
4524	0	31968	
4525	0	32024	
4526	0	32066	
4527	0	32064	
4528	0	32068	
4529	0	32132	
4530	0	32196	
4531	0	32228	
4532	0	32208	
4533	0	32232	
4534	0	32256	
4535	0	32272	
4536	0	32288	
4537	0	32264	
4538	0	32280	
4539	0	32288	
4540	0	32268	
4541	0	32228	
4542	0	32172	
4543	0	32110	
4544	0	32072	
4545	0	32064	
4546	0	32080	
4547	0	32104	
4548	0	32124	
4549	0	32092	
4550	0	32116	
4551	0	32192	
4552	0	32188	
4553	0	32172	
4554	0	32184	
4555	0	32174	
4556	0	32160	
4557	0	32180	
4558	0	32272	
4559	0	32288	
4560	0	32268	
4561	0	32248	
4562	0	32256	
4563	0	32276	
4564	0	32258	
4565	0	32288	
4566	0	32272	
4567	0	32264	
4568	0	32348	
4569	0	32440	
4570	0	32544	
4571	0	32632	
4572	0	32676	
4573	0	32712	
4574	0	32696	
4575	0	32708	
4576	0	32804	
4577	0	32948	
4578	0	33148	
4579	0	33276	
4580	0	33372	
4581	0	33412	
4582	0	33434	
4583	0	33504	
4584	0	33604	
4585	0	33648	
4586	0	33640	
4587	0	33640	
4588	0	33628	
4589	0	33652	
4590	0	33712	
4591	0	33800	
4592	0	33848	
4593	0	33952	
4594	0	34032	
4595	0	34056	
4596	0	34080	
4597	0	34112	
4598	0	34208	
4599	0	34300	
4600	0	34324	
4601	0	34354	
4602	0	34572	
4603	0	34752	
4604	0	34884	
4605	0	35044	
4606	0	35192	
4607	0	35236	
4608	0	35304	
4609	0	35324	
4610	0	35296	
4611	0	35288	
4612	0	35296	
4613	0	35360	
4614	0	35464	
4615	0	35528	
4616	0	35552	
4617	0	35552	
4618	0	35452	
4619	0	35272	
4620	0	35128	
4621	0	35024	
4622	0	34824	
4623	0	34608	
4624	0	34424	
4625	0	34232	
4626	0	34088	
4627	0	33944	
4628	0	33924	
4629	0	33936	
4630	0	33932	
4631	0	33924	
4632	0	33908	
4633	0	33832	
4634	0	33736	
4635	0	33752	
4636	0	33760	
4637	0	33772	
4638	0	33744	
4639	0	33664	
4640	0	33568	
4641	0	33452	
4642	0	33300	
4643	0	33172	
4644	0	33060	
4645	0	32976	
4646	0	32952	
4647	0	32900	
4648	0	32844	
4649	0	32728	
4650	0	32588	
4651	0	32480	
4652	0	32396	
4653	0	32368	
4654	0	32372	
4655	0	32344	
4656	0	32272	
4657	0	32244	
4658	0	32184	
4659	0	32052	
4660	0	31898	
4661	0	31796	
4662	0	31728	
4663	0	31712	
4664	0	31672	
4665	0	31616	
4666	0	31636	
4667	0	31752	
4668	0	31812	
4669	0	31792	
4670	0	31792	
4671	0	31808	
4672	0	31812	
4673	0	31792	
4674	0	31744	
4675	0	31736	
4676	0	31788	
4677	0	31864	
4678	0	31864	
4679	0	31836	
4680	0	31824	
4681	0	31808	
4682	0	31744	
4683	0	31712	
4684	0	31720	
4685	0	31752	
4686	0	31820	
4687	0	31848	
4688	0	31792	
4689	0	31772	
4690	0	31828	
4691	0	31868	
4692	0	31836	
4693	0	31820	
4694	0	31920	
4695	0	31968	
4696	0	31928	
4697	0	31940	
4698	0	31989	
4699	0	32016	
4700	0	31960	
4701	0	31952	
4702	0	31962	
4703	0	32052	
4704	0	32088	
4705	0	32124	
4706	0	32156	
4707	0	32160	
4708	0	32168	
4709	0	32196	
4710	0	32168	
4711	0	32172	
4712	0	32168	
4713	0	32132	
4714	0	32058	
4715	0	31988	
4716	0	31884	
4717	0	31768	
4718	0	31580	
4719	0	31424	
4720	0	31300	
4721	0	31236	
4722	0	31236	
4723	0	31244	
4724	0	31232	
4725	0	31452	
4726	0	31936	
4727	0	32560	
4728	0	33268	
4729	0	34088	
4730	0	35144	
4731	0	36528	
4732	0	38064	
4733	0	39720	
4734	0	41332	
4735	0	42880	
4736	0	44416	
4737	0	45944	
4738	0	47436	
4739	0	48940	
4740	0	50364	
4741	0	51636	
4742	0	52864	
4743	0	54136	
4744	0	55456	
4745	0	56712	
4746	0	57928	
4747	0	59096	
4748	0	60264	
4749	0	61132	
4750	0	61560	
4751	0	61264	
4752	0	60032	
4753	0	58044	
4754	0	55144	
4755	0	51604	
4756	0	47896	
4757	0	43924	
4758	0	39620	
4759	0	35144	
4760	0	31112	
4761	0	28085	
4762	0	26176	
4763	0	25196	
4764	0	24836	
4765	0	24892	
4766	0	25172	
4767	0	25492	
4768	0	25812	
4769	0	26000	
4770	0	26300	
4771	0	26664	
4772	0	26952	
4773	0	27220	
4774	0	27596	
4775	0	27978	
4776	0	28388	
4777	0	28812	
4778	0	29168	
4779	0	29492	
4780	0	29760	
4781	0	29920	
4782	0	30020	
4783	0	30176	
4784	0	30292	
4785	0	30324	
4786	0	30306	
4787	0	30284	
4788	0	30272	
4789	0	30260	
4790	0	30240	
4791	0	30208	
4792	0	30184	
4793	0	30180	
4794	0	30192	
4795	0	30188	
4796	0	30170	
4797	0	30138	
4798	0	30124	
4799	0	30148	
4800	0	30108	
4801	0	30084	
4802	0	30096	
4803	0	30120	
4804	0	30144	
4805	0	30140	
4806	0	30160	
4807	0	30224	
4808	0	30272	
4809	0	30300	
4810	0	30388	
4811	0	30472	
4812	0	30504	
4813	0	30556	
4814	0	30608	
4815	0	30604	
4816	0	30644	
4817	0	30684	
4818	0	30704	
4819	0	30720	
4820	0	30692	
4821	0	30636	
4822	0	30736	
4823	0	30816	
4824	0	30780	
4825	0	30848	
4826	0	30864	
4827	0	30870	
4828	0	30872	
4829	0	30928	
4830	0	31056	
4831	0	31120	
4832	0	31142	
4833	0	31136	
4834	0	31132	
4835	0	31148	
4836	0	31188	
4837	0	31224	
4838	0	31244	
4839	0	31250	
4840	0	31320	
4841	0	31420	
4842	0	31468	
4843	0	31464	
4844	0	31528	
4845	0	31518	
4846	0	31512	
4847	0	31520	
4848	0	31596	
4849	0	31616	
4850	0	31620	
4851	0	31644	
4852	0	31660	
4853	0	31720	
4854	0	31784	
4855	0	31752	
4856	0	31772	
4857	0	31788	
4858	0	31824	
4859	0	31840	
4860	0	31828	
4861	0	31904	
4862	0	31928	
4863	0	31880	
4864	0	31896	
4865	0	31968	
4866	0	31972	
4867	0	31976	
4868	0	32040	
4869	0	32144	
4870	0	32220	
4871	0	32196	
4872	0	32180	
4873	0	32208	
4874	0	32228	
4875	0	32312	
4876	0	32410	
4877	0	32492	
4878	0	32500	
4879	0	32430	
4880	0	32424	
4881	0	32444	
4882	0	32460	
4883	0	32488	
4884	0	32526	
4885	0	32552	
4886	0	32580	
4887	0	32646	
4888	0	32712	
4889	0	32724	
4890	0	32720	
4891	0	32774	
4892	0	32880	
4893	0	32952	
4894	0	32988	
4895	0	33032	
4896	0	33088	
4897	0	33136	
4898	0	33144	
4899	0	33192	
4900	0	33248	
4901	0	33268	
4902	0	33236	
4903	0	33248	
4904	0	33312	
4905	0	33380	
4906	0	33440	
4907	0	33440	
4908	0	33500	
4909	0	33602	
4910	0	33652	
4911	0	33736	
4912	0	33800	
4913	0	33836	
4914	0	33818	
4915	0	33824	
4916	0	33844	
4917	0	33880	
4918	0	33956	
4919	0	34052	
4920	0	34088	
4921	0	34124	
4922	0	34160	
4923	0	34220	
4924	0	34372	
4925	0	34448	
4926	0	34500	
4927	0	34592	
4928	0	34648	
4929	0	34712	
4930	0	34748	
4931	0	34808	
4932	0	34904	
4933	0	34976	
4934	0	35056	
4935	0	35124	
4936	0	35224	
4937	0	35316	
4938	0	35396	
4939	0	35452	
4940	0	35504	
4941	0	35576	
4942	0	35672	
4943	0	35760	
4944	0	35856	
4945	0	35912	
4946	0	35972	
4947	0	36048	
4948	0	36160	
4949	0	36240	
4950	0	36288	
4951	0	36308	
4952	0	36336	
4953	0	36452	
4954	0	36560	
4955	0	36624	
4956	0	36648	
4957	0	36672	
4958	0	36716	
4959	0	36776	
4960	0	36856	
4961	0	36940	
4962	0	36980	
4963	0	36996	
4964	0	37008	
4965	0	37028	
4966	0	37032	
4967	0	37088	
4968	0	37208	
4969	0	37216	
4970	0	37220	
4971	0	37296	
4972	0	37360	
4973	0	37368	
4974	0	37352	
4975	0	37368	
4976	0	37368	
4977	0	37402	
4978	0	37376	
4979	0	37320	
4980	0	37296	
4981	0	37232	
4982	0	37172	
4983	0	37152	
4984	0	37104	
4985	0	37036	
4986	0	36984	
4987	0	36936	
4988	0	36812	
4989	0	36724	
4990	0	36604	
4991	0	36468	
4992	0	36340	
4993	0	36224	
4994	0	36088	
4995	0	35960	
4996	0	35892	
4997	0	35724	
4998	0	35520	
4999	0	35332	
5000	0	35148	
5001	0	35020	
5002	0	34812	
5003	0	34568	
5004	0	34382	
5005	0	34200	
5006	0	34048	
5007	0	33928	
5008	0	33796	
5009	0	33604	
5010	0	33348	
5011	0	33116	
5012	0	32940	
5013	0	32760	
5014	0	32568	
5015	0	32364	
5016	0	32184	
5017	0	31996	
5018	0	31842	
5019	0	31736	
5020	0	31604	
5021	0	31440	
5022	0	31276	
5023	0	31124	
5024	0	30984	
5025	0	30832	
5026	0	30736	
5027	0	30640	
5028	0	30492	
5029	0	30348	
5030	0	30280	
5031	0	30242	
5032	0	30172	
5033	0	30064	
5034	0	29944	
5035	0	29850	
5036	0	29764	
5037	0	29716	
5038	0	29660	
5039	0	29628	
5040	0	29576	
5041	0	29504	
5042	0	29444	
5043	0	29456	
5044	0	29448	
5045	0	29384	
5046	0	29288	
5047	0	29208	
5048	0	29268	
5049	0	29344	
5050	0	29384	
5051	0	29348	
5052	0	29340	
5053	0	29424	
5054	0	29400	
5055	0	29368	
5056	0	29404	
5057	0	29392	
5058	0	29308	
5059	0	29304	
5060	0	29356	
5061	0	29418	
5062	0	29444	
5063	0	29482	
5064	0	29492	
5065	0	29434	
5066	0	29416	
5067	0	29424	
5068	0	29404	
5069	0	29400	
5070	0	29424	
5071	0	29440	
5072	0	29452	
5073	0	29484	
5074	0	29504	
5075	0	29504	
5076	0	29536	
5077	0	29570	
5078	0	29540	
5079	0	29544	
5080	0	29588	
5081	0	29624	
5082	0	29628	
5083	0	29632	
5084	0	29626	
5085	0	29636	
5086	0	29650	
5087	0	29694	
5088	0	29740	
5089	0	29792	
5090	0	29848	
5091	0	29888	
5092	0	29948	
5093	0	30000	
5094	0	29984	
5095	0	29936	
5096	0	29912	
5097	0	29972	
5098	0	30032	
5099	0	30076	
5100	0	30108	
5101	0	30168	
5102	0	30176	
5103	0	30154	
5104	0	30140	
5105	0	30120	
5106	0	30124	
5107	0	30196	
5108	0	30260	
5109	0	30272	
5110	0	30298	
5111	0	30360	
5112	0	30416	
5113	0	30488	
5114	0	30544	
5115	0	30564	
5116	0	30560	
5117	0	30580	
5118	0	30628	
5119	0	30624	
5120	0	30632	
5121	0	30634	
5122	0	30664	
5123	0	30640	
5124	0	30622	
5125	0	30624	
5126	0	30648	
5127	0	30756	
5128	0	30848	
5129	0	30864	
5130	0	30844	
5131	0	30878	
5132	0	30906	
5133	0	30976	
5134	0	30980	
5135	0	31020	
5136	0	31066	
5137	0	31064	
5138	0	31052	
5139	0	31098	
5140	0	31112	
5141	0	31124	
5142	0	31132	
5143	0	31140	
5144	0	31144	
5145	0	31128	
5146	0	31148	
5147	0	31192	
5148	0	31228	
5149	0	31272	
5150	0	31362	
5151	0	31436	
5152	0	31464	
5153	0	31476	
5154	0	31524	
5155	0	31592	
5156	0	31616	
5157	0	31568	
5158	0	31496	
5159	0	31432	
5160	0	31406	
5161	0	31456	
5162	0	31468	
5163	0	31460	
5164	0	31440	
5165	0	31408	
5166	0	31436	
5167	0	31504	
5168	0	31576	
5169	0	31602	
5170	0	31600	
5171	0	31632	
5172	0	31636	
5173	0	31704	
5174	0	31800	
5175	0	31800	
5176	0	31800	
5177	0	31808	
5178	0	31764	
5179	0	31728	
5180	0	31736	
5181	0	31756	
5182	0	31752	
5183	0	31800	
5184	0	31788	
5185	0	31708	
5186	0	31652	
5187	0	31672	
5188	0	31724	
5189	0	31784	
5190	0	31800	
5191	0	31872	
5192	0	31888	
5193	0	31904	
5194	0	31932	
5195	0	31888	
5196	0	31828	
5197	0	31808	
5198	0	31860	
5199	0	31856	
5200	0	31840	
5201	0	31872	
5202	0	31900	
5203	0	31836	
5204	0	31784	
5205	0	31760	
5206	0	31820	
5207	0	31968	
5208	0	32016	
5209	0	31980	
5210	0	31936	
5211	0	31884	
5212	0	31944	
5213	0	32016	
5214	0	31984	
5215	0	31960	
5216	0	31940	
5217	0	31904	
5218	0	31880	
5219	0	31796	
5220	0	31760	
5221	0	31788	
5222	0	31840	
5223	0	31880	
5224	0	31940	
5225	0	31976	
5226	0	32016	
5227	0	31940	
5228	0	31912	
5229	0	31904	
5230	0	31884	
5231	0	31848	
5232	0	31900	
5233	0	31936	
5234	0	31908	
5235	0	31940	
5236	0	31944	
5237	0	31836	
5238	0	31832	
5239	0	31860	
5240	0	31840	
5241	0	31888	
5242	0	32016	
5243	0	32088	
5244	0	32000	
5245	0	31884	
5246	0	31856	
5247	0	31900	
5248	0	31976	
5249	0	32080	
5250	0	32104	
5251	0	32192	
5252	0	32256	
5253	0	32280	
5254	0	32276	
5255	0	32238	
5256	0	32180	
5257	0	32164	
5258	0	32256	
5259	0	32340	
5260	0	32328	
5261	0	32244	
5262	0	32220	
5263	0	32196	
5264	0	32172	
5265	0	32132	
5266	0	32176	
5267	0	32180	
5268	0	32128	
5269	0	32152	
5270	0	32136	
5271	0	32204	
5272	0	32232	
5273	0	32196	
5274	0	32196	
5275	0	32254	
5276	0	32344	
5277	0	32352	
5278	0	32324	
5279	0	32244	
5280	0	32272	
5281	0	32348	
5282	0	32400	
5283	0	32448	
5284	0	32208	
5285	0	31972	
5286	0	32072	
5287	0	32196	
5288	0	32144	
5289	0	31920	
5290	0	31840	
5291	0	31952	
5292	0	32080	
5293	0	32292	
5294	0	32464	
5295	0	32536	
5296	0	32456	
5297	0	32364	
5298	0	32368	
5299	0	32268	
5300	0	32078	
5301	0	31956	
5302	0	32056	
5303	0	32240	
5304	0	32332	
5305	0	32288	
5306	0	32244	
5307	0	32268	
5308	0	32364	
5309	0	32440	
5310	0	32416	
5311	0	32476	
5312	0	32488	
5313	0	32382	
5314	0	32368	
5315	0	32492	
5316	0	32640	
5317	0	32868	
5318	0	33012	
5319	0	33156	
5320	0	33312	
5321	0	33452	
5322	0	33608	
5323	0	33642	
5324	0	33712	
5325	0	33858	
5326	0	33946	
5327	0	34096	
5328	0	34244	
5329	0	34242	
5330	0	34200	
5331	0	34204	
5332	0	34208	
5333	0	34202	
5334	0	34270	
5335	0	34304	
5336	0	34204	
5337	0	34108	
5338	0	34220	
5339	0	34404	
5340	0	34600	
5341	0	34600	
5342	0	34572	
5343	0	34504	
5344	0	34614	
5345	0	34712	
5346	0	34864	
5347	0	34988	
5348	0	35092	
5349	0	35242	
5350	0	35338	
5351	0	35264	
5352	0	35204	
5353	0	35174	
5354	0	35176	
5355	0	35196	
5356	0	35232	
5357	0	35200	
5358	0	35240	
5359	0	35312	
5360	0	35152	
5361	0	35012	
5362	0	34896	
5363	0	34768	
5364	0	34612	
5365	0	34456	
5366	0	34296	
5367	0	34148	
5368	0	34020	
5369	0	33960	
5370	0	33864	
5371	0	33784	
5372	0	33746	
5373	0	33620	
5374	0	33472	
5375	0	33400	
5376	0	33372	
5377	0	33352	
5378	0	33356	
5379	0	33340	
5380	0	33360	
5381	0	33386	
5382	0	33368	
5383	0	33320	
5384	0	33248	
5385	0	33128	
5386	0	33008	
5387	0	32916	
5388	0	32794	
5389	0	32836	
5390	0	32992	
5391	0	33040	
5392	0	32900	
5393	0	32712	
5394	0	32584	
5395	0	32496	
5396	0	32384	
5397	0	32228	
5398	0	32072	
5399	0	31936	
5400	0	31776	
5401	0	31568	
5402	0	31500	
5403	0	31572	
5404	0	31604	
5405	0	31564	
5406	0	31604	
5407	0	31696	
5408	0	31778	
5409	0	31786	
5410	0	31836	
5411	0	31852	
5412	0	31776	
5413	0	31660	
5414	0	31624	
5415	0	31612	
5416	0	31656	
5417	0	31668	
5418	0	31648	
5419	0	31692	
5420	0	31744	
5421	0	31748	
5422	0	31768	
5423	0	31852	
5424	0	31876	
5425	0	31848	
5426	0	31808	
5427	0	31760	
5428	0	31692	
5429	0	31688	
5430	0	31680	
5431	0	31704	
5432	0	31784	
5433	0	31888	
5434	0	31972	
5435	0	32044	
5436	0	32090	
5437	0	32058	
5438	0	32052	
5439	0	32044	
5440	0	31936	
5441	0	31860	
5442	0	31852	
5443	0	31804	
5444	0	31780	
5445	0	31760	
5446	0	31692	
5447	0	31712	
5448	0	31772	
5449	0	31812	
5450	0	31810	
5451	0	31788	
5452	0	31824	
5453	0	31892	
5454	0	31908	
5455	0	31852	
5456	0	31760	
5457	0	31672	
5458	0	31544	
5459	0	31528	
5460	0	31436	
5461	0	31336	
5462	0	31356	
5463	0	31456	
5464	0	31612	
5465	0	32036	
5466	0	32636	
5467	0	33220	
5468	0	33920	
5469	0	34760	
5470	0	35788	
5471	0	37020	
5472	0	38356	
5473	0	39892	
5474	0	41488	
5475	0	42912	
5476	0	44280	
5477	0	45580	
5478	0	46888	
5479	0	48304	
5480	0	49824	
5481	0	51224	
5482	0	52588	
5483	0	54124	
5484	0	55664	
5485	0	57104	
5486	0	58356	
5487	0	59336	
5488	0	60316	
5489	0	61288	
5490	0	62020	
5491	0	62048	
5492	0	60936	
5493	0	59096	
5494	0	56304	
5495	0	52784	
5496	0	49104	
5497	0	45204	
5498	0	40840	
5499	0	36272	
5500	0	32212	
5501	0	29176	
5502	0	27188	
5503	0	26024	
5504	0	25444	
5505	0	25188	
5506	0	25232	
5507	0	25400	
5508	0	25664	
5509	0	26052	
5510	0	26580	
5511	0	27188	
5512	0	27804	
5513	0	28304	
5514	0	28812	
5515	0	29372	
5516	0	29844	
5517	0	30072	
5518	0	30272	
5519	0	30368	
5520	0	30432	
5521	0	30440	
5522	0	30408	
5523	0	30328	
5524	0	30268	
5525	0	30184	
5526	0	30092	
5527	0	30010	
5528	0	30016	
5529	0	29992	
5530	0	29856	
5531	0	29788	
5532	0	29820	
5533	0	29872	
5534	0	29856	
5535	0	29840	
5536	0	29768	
5537	0	29776	
5538	0	29766	
5539	0	29776	
5540	0	29812	
5541	0	29792	
5542	0	29752	
5543	0	29656	
5544	0	29664	
5545	0	29856	
5546	0	29944	
5547	0	30000	
5548	0	30104	
5549	0	30196	
5550	0	30244	
5551	0	30292	
5552	0	30332	
5553	0	30368	
5554	0	30400	
5555	0	30404	
5556	0	30418	
5557	0	30480	
5558	0	30496	
5559	0	30476	
5560	0	30440	
5561	0	30416	
5562	0	30452	
5563	0	30448	
5564	0	30480	
5565	0	30518	
5566	0	30572	
5567	0	30608	
5568	0	30588	
5569	0	30592	
5570	0	30650	
5571	0	30752	
5572	0	30816	
5573	0	30852	
5574	0	30844	
5575	0	30840	
5576	0	30850	
5577	0	30836	
5578	0	30880	
5579	0	30944	
5580	0	31040	
5581	0	31120	
5582	0	31120	
5583	0	31110	
5584	0	31164	
5585	0	31224	
5586	0	31264	
5587	0	31328	
5588	0	31418	
5589	0	31468	
5590	0	31484	
5591	0	31496	
5592	0	31556	
5593	0	31658	
5594	0	31748	
5595	0	31840	
5596	0	31856	
5597	0	31792	
5598	0	31732	
5599	0	31720	
5600	0	31704	
5601	0	31692	
5602	0	31672	
5603	0	31720	
5604	0	31740	
5605	0	31760	
5606	0	31824	
5607	0	31896	
5608	0	31880	
5609	0	31872	
5610	0	31908	
5611	0	31940	
5612	0	31972	
5613	0	32000	
5614	0	32028	
5615	0	32060	
5616	0	32064	
5617	0	32072	
5618	0	32112	
5619	0	32208	
5620	0	32272	
5621	0	32304	
5622	0	32360	
5623	0	32372	
5624	0	32352	
5625	0	32312	
5626	0	32304	
5627	0	32320	
5628	0	32356	
5629	0	32424	
5630	0	32452	
5631	0	32468	
5632	0	32496	
5633	0	32568	
5634	0	32608	
5635	0	32608	
5636	0	32624	
5637	0	32704	
5638	0	32720	
5639	0	32780	
5640	0	32792	
5641	0	32788	
5642	0	32816	
5643	0	32804	
5644	0	32848	
5645	0	32960	
5646	0	33112	
5647	0	33148	
5648	0	33176	
5649	0	33268	
5650	0	33344	
5651	0	33428	
5652	0	33440	
5653	0	33464	
5654	0	33588	
5655	0	33688	
5656	0	33668	
5657	0	33604	
5658	0	33620	
5659	0	33592	
5660	0	33740	
5661	0	33902	
5662	0	33968	
5663	0	34016	
5664	0	34024	
5665	0	34028	
5666	0	34088	
5667	0	34160	
5668	0	34240	
5669	0	34336	
5670	0	34460	
5671	0	34584	
5672	0	34680	
5673	0	34704	
5674	0	34778	
5675	0	34888	
5676	0	34992	
5677	0	35064	
5678	0	35124	
5679	0	35192	
5680	0	35240	
5681	0	35336	
5682	0	35456	
5683	0	35540	
5684	0	35556	
5685	0	35616	
5686	0	35712	
5687	0	35840	
5688	0	35920	
5689	0	35972	
5690	0	36068	
5691	0	36144	
5692	0	36220	
5693	0	36292	
5694	0	36442	
5695	0	36526	
5696	0	36564	
5697	0	36576	
5698	0	36548	
5699	0	36524	
5700	0	36584	
5701	0	36624	
5702	0	36692	
5703	0	36736	
5704	0	36800	
5705	0	36828	
5706	0	36840	
5707	0	36970	
5708	0	37096	
5709	0	37196	
5710	0	37184	
5711	0	37192	
5712	0	37268	
5713	0	37308	
5714	0	37312	
5715	0	37328	
5716	0	37324	
5717	0	37344	
5718	0	37284	
5719	0	37272	
5720	0	37220	
5721	0	37196	
5722	0	37136	
5723	0	37084	
5724	0	37082	
5725	0	37052	
5726	0	37032	
5727	0	36980	
5728	0	36880	
5729	0	36808	
5730	0	36784	
5731	0	36752	
5732	0	36632	
5733	0	36516	
5734	0	36372	
5735	0	36250	
5736	0	36208	
5737	0	36080	
5738	0	35904	
5739	0	35696	
5740	0	35524	
5741	0	35360	
5742	0	35200	
5743	0	34984	
5744	0	34736	
5745	0	34632	
5746	0	34496	
5747	0	34308	
5748	0	34152	
5749	0	33956	
5750	0	33752	
5751	0	33584	
5752	0	33448	
5753	0	33300	
5754	0	33128	
5755	0	32952	
5756	0	32720	
5757	0	32552	
5758	0	32384	
5759	0	32192	
5760	0	31964	
5761	0	31764	
5762	0	31568	
5763	0	31432	
5764	0	31348	
5765	0	31264	
5766	0	31176	
5767	0	31056	
5768	0	30932	
5769	0	30792	
5770	0	30604	
5771	0	30432	
5772	0	30400	
5773	0	30436	
5774	0	30452	
5775	0	30356	
5776	0	30232	
5777	0	30096	
5778	0	29996	
5779	0	29936	
5780	0	29840	
5781	0	29740	
5782	0	29682	
5783	0	29656	
5784	0	29624	
5785	0	29592	
5786	0	29568	
5787	0	29532	
5788	0	29504	
5789	0	29504	
5790	0	29444	
5791	0	29400	
5792	0	29376	
5793	0	29348	
5794	0	29370	
5795	0	29404	
5796	0	29472	
5797	0	29448	
5798	0	29376	
5799	0	29328	
5800	0	29276	
5801	0	29288	
5802	0	29332	
5803	0	29332	
5804	0	29360	
5805	0	29386	
5806	0	29420	
5807	0	29484	
5808	0	29480	
5809	0	29440	
5810	0	29472	
5811	0	29564	
5812	0	29644	
5813	0	29696	
5814	0	29624	
5815	0	29620	
5816	0	29610	
5817	0	29650	
5818	0	29712	
5819	0	29760	
5820	0	29792	
5821	0	29796	
5822	0	29848	
5823	0	29820	
5824	0	29840	
5825	0	29928	
5826	0	30076	
5827	0	30192	
5828	0	30224	
5829	0	30196	
5830	0	30208	
5831	0	30204	
5832	0	30184	
5833	0	30176	
5834	0	30204	
5835	0	30232	
5836	0	30212	
5837	0	30184	
5838	0	30220	
5839	0	30276	
5840	0	30234	
5841	0	30172	
5842	0	30216	
5843	0	30296	
5844	0	30284	
5845	0	30266	
5846	0	30264	
5847	0	30368	
5848	0	30418	
5849	0	30476	
5850	0	30532	
5851	0	30540	
5852	0	30552	
5853	0	30612	
5854	0	30576	
5855	0	30624	
5856	0	30730	
5857	0	30776	
5858	0	30808	
5859	0	30776	
5860	0	30732	
5861	0	30700	
5862	0	30720	
5863	0	30716	
5864	0	30712	
5865	0	30756	
5866	0	30816	
5867	0	30912	
5868	0	31032	
5869	0	31136	
5870	0	31200	
5871	0	31196	
5872	0	31176	
5873	0	31168	
5874	0	31148	
5875	0	31168	
5876	0	31188	
5877	0	31156	
5878	0	31120	
5879	0	31104	
5880	0	31068	
5881	0	31104	
5882	0	31144	
5883	0	31210	
5884	0	31184	
5885	0	31140	
5886	0	31096	
5887	0	31064	
5888	0	31060	
5889	0	31072	
5890	0	31172	
5891	0	31272	
5892	0	31328	
5893	0	31320	
5894	0	31360	
5895	0	31428	
5896	0	31484	
5897	0	31508	
5898	0	31528	
5899	0	31536	
5900	0	31524	
5901	0	31504	
5902	0	31448	
5903	0	31400	
5904	0	31352	
5905	0	31336	
5906	0	31426	
5907	0	31532	
5908	0	31596	
5909	0	31672	
5910	0	31776	
5911	0	31792	
5912	0	31780	
5913	0	31776	
5914	0	31816	
5915	0	31876	
5916	0	31884	
5917	0	31824	
5918	0	31696	
5919	0	31696	
5920	0	31762	
5921	0	31820	
5922	0	31824	
5923	0	31832	
5924	0	31776	
5925	0	31760	
5926	0	31772	
5927	0	31802	
5928	0	31824	
5929	0	31840	
5930	0	31812	
5931	0	31824	
5932	0	31888	
5933	0	31964	
5934	0	32000	
5935	0	32048	
5936	0	32008	
5937	0	32028	
5938	0	32040	
5939	0	32040	
5940	0	32052	
5941	0	31996	
5942	0	32008	
5943	0	32012	
5944	0	32000	
5945	0	31980	
5946	0	31988	
5947	0	32016	
5948	0	31992	
5949	0	32024	
5950	0	32096	
5951	0	32128	
5952	0	32092	
5953	0	32088	
5954	0	32108	
5955	0	32154	
5956	0	32168	
5957	0	32196	
5958	0	32176	
5959	0	32128	
5960	0	32112	
5961	0	32056	
5962	0	32056	
5963	0	32060	
5964	0	32016	
5965	0	32032	
5966	0	32028	
5967	0	32032	
5968	0	32112	
5969	0	32130	
5970	0	32076	
5971	0	32090	
5972	0	32160	
5973	0	32236	
5974	0	32280	
5975	0	32296	
5976	0	32236	
5977	0	32176	
5978	0	32120	
5979	0	32034	
5980	0	32024	
5981	0	32052	
5982	0	32020	
5983	0	31988	
5984	0	32032	
5985	0	32080	
5986	0	32084	
5987	0	32120	
5988	0	32116	
5989	0	32172	
5990	0	32254	
5991	0	32272	
5992	0	32216	
5993	0	32256	
5994	0	32248	
5995	0	32280	
5996	0	32288	
5997	0	32268	
5998	0	32260	
5999	0	32280	
6000	0	32260	
6001	0	32226	
6002	0	32192	
6003	0	32176	
6004	0	32196	
6005	0	32212	
6006	0	32204	
6007	0	32272	
6008	0	32280	
6009	0	32290	
6010	0	32300	
6011	0	32320	
6012	0	32348	
6013	0	32300	
6014	0	32312	
6015	0	32344	
6016	0	32344	
6017	0	32288	
6018	0	32248	
6019	0	32304	
6020	0	32296	
6021	0	32312	
6022	0	32320	
6023	0	32320	
6024	0	32276	
6025	0	32216	
6026	0	32336	
6027	0	32392	
6028	0	32428	
6029	0	32430	
6030	0	32456	
6031	0	32488	
6032	0	32480	
6033	0	32500	
6034	0	32520	
6035	0	32500	
6036	0	32492	
6037	0	32408	
6038	0	32348	
6039	0	32328	
6040	0	32338	
6041	0	32354	
6042	0	32412	
6043	0	32448	
6044	0	32460	
6045	0	32464	
6046	0	32472	
6047	0	32564	
6048	0	32584	
6049	0	32614	
6050	0	32664	
6051	0	32688	
6052	0	32672	
6053	0	32666	
6054	0	32696	
6055	0	32644	
6056	0	32568	
6057	0	32584	
6058	0	32608	
6059	0	32572	
6060	0	32516	
6061	0	32480	
6062	0	32410	
6063	0	32448	
6064	0	32596	
6065	0	32728	
6066	0	32760	
6067	0	32760	
6068	0	32844	
6069	0	32928	
6070	0	33026	
6071	0	33172	
6072	0	33308	
6073	0	33472	
6074	0	33716	
6075	0	33908	
6076	0	33964	
6077	0	33928	
6078	0	33916	
6079	0	33968	
6080	0	34080	
6081	0	34132	
6082	0	34136	
6083	0	34112	
6084	0	34088	
6085	0	34126	
6086	0	34216	
6087	0	34266	
6088	0	34304	
6089	0	34372	
6090	0	34462	
6091	0	34540	
6092	0	34576	
6093	0	34572	
6094	0	34608	
6095	0	34660	
6096	0	34776	
6097	0	34892	
6098	0	35072	
6099	0	35224	
6100	0	35384	
6101	0	35504	
6102	0	35538	
6103	0	35548	
6104	0	35468	
6105	0	35392	
6106	0	35372	
6107	0	35400	
6108	0	35428	
6109	0	35488	
6110	0	35548	
6111	0	35648	
6112	0	35692	
6113	0	35612	
6114	0	35476	
6115	0	35384	
6116	0	35260	
6117	0	35048	
6118	0	34788	
6119	0	34520	
6120	0	34314	
6121	0	34248	
6122	0	34168	
6123	0	34072	
6124	0	34016	
6125	0	33956	
6126	0	33936	
6127	0	33888	
6128	0	33760	
6129	0	33720	
6130	0	33690	
6131	0	33672	
6132	0	33752	
6133	0	33832	
6134	0	33824	
6135	0	33688	
6136	0	33578	
6137	0	33508	
6138	0	33432	
6139	0	33328	
6140	0	33264	
6141	0	33196	
6142	0	33168	
6143	0	33068	
6144	0	32912	
6145	0	32784	
6146	0	32652	
6147	0	32552	
6148	0	32480	
6149	0	32380	
6150	0	32260	
6151	0	32108	
6152	0	31968	
6153	0	31940	
6154	0	31928	
6155	0	31948	
6156	0	31912	
6157	0	31892	
6158	0	31856	
6159	0	31860	
6160	0	31860	
6161	0	31824	
6162	0	31836	
6163	0	31808	
6164	0	31772	
6165	0	31784	
6166	0	31812	
6167	0	31804	
6168	0	31816	
6169	0	31836	
6170	0	31892	
6171	0	31968	
6172	0	32000	
6173	0	31984	
6174	0	31976	
6175	0	31968	
6176	0	31948	
6177	0	31924	
6178	0	31902	
6179	0	31880	
6180	0	31888	
6181	0	31836	
6182	0	31860	
6183	0	31944	
6184	0	31932	
6185	0	31896	
6186	0	31896	
6187	0	31892	
6188	0	31860	
6189	0	31912	
6190	0	31928	
6191	0	31944	
6192	0	31946	
6193	0	31956	
6194	0	32012	
6195	0	32128	
6196	0	32132	
6197	0	32098	
6198	0	32040	
6199	0	32020	
6200	0	32040	
6201	0	32064	
6202	0	32144	
6203	0	32128	
6204	0	32128	
6205	0	32140	
6206	0	32132	
6207	0	32104	
6208	0	32000	
6209	0	31964	
6210	0	31852	
6211	0	31728	
6212	0	31584	
6213	0	31472	
6214	0	31344	
6215	0	31324	
6216	0	31348	
6217	0	31416	
6218	0	31580	
6219	0	31924	
6220	0	32448	
6221	0	32984	
6222	0	33648	
6223	0	34536	
6224	0	35640	
6225	0	36864	
6226	0	38276	
6227	0	39792	
6228	0	41324	
6229	0	42812	
6230	0	44196	
6231	0	45636	
6232	0	47160	
6233	0	48724	
6234	0	50176	
6235	0	51536	
6236	0	52856	
6237	0	54136	
6238	0	55384	
6239	0	56664	
6240	0	57904	
6241	0	58964	
6242	0	59792	
6243	0	60448	
6244	0	60840	
6245	0	60328	
6246	0	58804	
6247	0	56368	
6248	0	53228	
6249	0	49780	
6250	0	46120	
6251	0	42104	
6252	0	37672	
6253	0	33256	
6254	0	29692	
6255	0	27184	
6256	0	25738	
6257	0	25096	
6258	0	24954	
6259	0	25130	
6260	0	25384	
6261	0	25616	
6262	0	25890	
6263	0	26252	
6264	0	26656	
6265	0	27048	
6266	0	27368	
6267	0	27808	
6268	0	28366	
6269	0	28848	
6270	0	29264	
6271	0	29668	
6272	0	30056	
6273	0	30280	
6274	0	30404	
6275	0	30452	
6276	0	30440	
6277	0	30440	
6278	0	30432	
6279	0	30424	
6280	0	30320	
6281	0	30272	
6282	0	30252	
6283	0	30226	
6284	0	30120	
6285	0	30024	
6286	0	30024	
6287	0	30048	
6288	0	30024	
6289	0	30040	
6290	0	30036	
6291	0	30128	
6292	0	30228	
6293	0	30264	
6294	0	30260	
6295	0	30272	
6296	0	30240	
6297	0	30200	
6298	0	30188	
6299	0	30180	
6300	0	30216	
6301	0	30248	
6302	0	30244	
6303	0	30228	
6304	0	30260	
6305	0	30284	
6306	0	30336	
6307	0	30396	
6308	0	30452	
6309	0	30496	
6310	0	30592	
6311	0	30620	
6312	0	30616	
6313	0	30612	
6314	0	30608	
6315	0	30644	
6316	0	30676	
6317	0	30736	
6318	0	30792	
6319	0	30764	
6320	0	30768	
6321	0	30828	
6322	0	30888	
6323	0	30908	
6324	0	30952	
6325	0	31048	
6326	0	31108	
6327	0	31140	
6328	0	31212	
6329	0	31252	
6330	0	31280	
6331	0	31308	
6332	0	31344	
6333	0	31404	
6334	0	31428	
6335	0	31444	
6336	0	31456	
6337	0	31444	
6338	0	31324	
6339	0	31228	
6340	0	31344	
6341	0	31472	
6342	0	31518	
6343	0	31528	
6344	0	31532	
6345	0	31544	
6346	0	31464	
6347	0	31412	
6348	0	31544	
6349	0	31744	
6350	0	31828	
6351	0	31896	
6352	0	31968	
6353	0	31980	
6354	0	31992	
6355	0	32010	
6356	0	32006	
6357	0	31968	
6358	0	31840	
6359	0	31736	
6360	0	31836	
6361	0	31968	
6362	0	31994	
6363	0	31888	
6364	0	31820	
6365	0	31908	
6366	0	31992	
6367	0	32016	
6368	0	32008	
6369	0	32092	
6370	0	32204	
6371	0	32244	
6372	0	32304	
6373	0	32380	
6374	0	32424	
6375	0	32412	
6376	0	32380	
6377	0	32400	
6378	0	32504	
6379	0	32608	
6380	0	32592	
6381	0	32576	
6382	0	32588	
6383	0	32608	
6384	0	32648	
6385	0	32680	
6386	0	32704	
6387	0	32706	
6388	0	32754	
6389	0	32812	
6390	0	32826	
6391	0	32832	
6392	0	32880	
6393	0	32928	
6394	0	32976	
6395	0	32984	
6396	0	33008	
6397	0	33108	
6398	0	33220	
6399	0	33256	
6400	0	33276	
6401	0	33266	
6402	0	33224	
6403	0	33144	
6404	0	33300	
6405	0	33492	
6406	0	33524	
6407	0	33504	
6408	0	33520	
6409	0	33560	
6410	0	33632	
6411	0	33728	
6412	0	33752	
6413	0	33848	
6414	0	33948	
6415	0	34010	
6416	0	34056	
6417	0	34108	
6418	0	34084	
6419	0	34128	
6420	0	34256	
6421	0	34364	
6422	0	34354	
6423	0	34348	
6424	0	34488	
6425	0	34656	
6426	0	34752	
6427	0	34754	
6428	0	34836	
6429	0	34976	
6430	0	35080	
6431	0	35112	
6432	0	35196	
6433	0	35316	
6434	0	35384	
6435	0	35480	
6436	0	35554	
6437	0	35656	
6438	0	35632	
6439	0	35616	
6440	0	35632	
6441	0	35784	
6442	0	35904	
6443	0	35980	
6444	0	36052	
6445	0	36104	
6446	0	36124	
6447	0	36244	
6448	0	36384	
6449	0	36468	
6450	0	36508	
6451	0	36600	
6452	0	36736	
6453	0	36800	
6454	0	36888	
6455	0	36900	
6456	0	36968	
6457	0	37016	
6458	0	36988	
6459	0	36936	
6460	0	36920	
6461	0	36956	
6462	0	36992	
6463	0	37100	
6464	0	37168	
6465	0	37216	
6466	0	37168	
6467	0	37264	
6468	0	37332	
6469	0	37352	
6470	0	37320	
6471	0	37316	
6472	0	37376	
6473	0	37340	
6474	0	37292	
6475	0	37216	
6476	0	37296	
6477	0	37368	
6478	0	37328	
6479	0	37284	
6480	0	37232	
6481	0	37176	
6482	0	37060	
6483	0	36972	
6484	0	36892	
6485	0	36800	
6486	0	36736	
6487	0	36660	
6488	0	36548	
6489	0	36436	
6490	0	36304	
6491	0	36148	
6492	0	35936	
6493	0	35720	
6494	0	35540	
6495	0	35380	
6496	0	35164	
6497	0	34992	
6498	0	34834	
6499	0	34676	
6500	0	34452	
6501	0	34264	
6502	0	34072	
6503	0	33888	
6504	0	33708	
6505	0	33536	
6506	0	33365	
6507	0	33204	
6508	0	33074	
6509	0	32880	
6510	0	32672	
6511	0	32520	
6512	0	32324	
6513	0	32140	
6514	0	31996	
6515	0	31822	
6516	0	31588	
6517	0	31416	
6518	0	31322	
6519	0	31228	
6520	0	30992	
6521	0	30808	
6522	0	30680	
6523	0	30556	
6524	0	30440	
6525	0	30328	
6526	0	30288	
6527	0	30244	
6528	0	30192	
6529	0	30124	
6530	0	30032	
6531	0	29964	
6532	0	29930	
6533	0	29892	
6534	0	29824	
6535	0	29760	
6536	0	29672	
6537	0	29608	
6538	0	29584	
6539	0	29552	
6540	0	29476	
6541	0	29372	
6542	0	29380	
6543	0	29380	
6544	0	29372	
6545	0	29356	
6546	0	29340	
6547	0	29272	
6548	0	29260	
6549	0	29308	
6550	0	29232	
6551	0	29232	
6552	0	29350	
6553	0	29448	
6554	0	29432	
6555	0	29324	
6556	0	29360	
6557	0	29368	
6558	0	29308	
6559	0	29284	
6560	0	29224	
6561	0	29252	
6562	0	29320	
6563	0	29392	
6564	0	29436	
6565	0	29452	
6566	0	29448	
6567	0	29420	
6568	0	29380	
6569	0	29376	
6570	0	29416	
6571	0	29460	
6572	0	29492	
6573	0	29560	
6574	0	29608	
6575	0	29644	
6576	0	29728	
6577	0	29748	
6578	0	29680	
6579	0	29656	
6580	0	29684	
6581	0	29700	
6582	0	29664	
6583	0	29708	
6584	0	29826	
6585	0	29904	
6586	0	29928	
6587	0	29956	
6588	0	29944	
6589	0	29928	
6590	0	30012	
6591	0	30068	
6592	0	30132	
6593	0	30148	
6594	0	30108	
6595	0	30132	
6596	0	30196	
6597	0	30192	
6598	0	30210	
6599	0	30234	
6600	0	30260	
6601	0	30280	
6602	0	30280	
6603	0	30342	
6604	0	30400	
6605	0	30460	
6606	0	30448	
6607	0	30364	
6608	0	30380	
6609	0	30524	
6610	0	30624	
6611	0	30684	
6612	0	30720	
6613	0	30736	
6614	0	30748	
6615	0	30744	
6616	0	30716	
6617	0	30712	
6618	0	30672	
6619	0	30728	
6620	0	30784	
6621	0	30746	
6622	0	30720	
6623	0	30768	
6624	0	30824	
6625	0	30824	
6626	0	30752	
6627	0	30744	
6628	0	30828	
6629	0	30904	
6630	0	30920	
6631	0	30934	
6632	0	31036	
6633	0	31092	
6634	0	31074	
6635	0	31064	
6636	0	31060	
6637	0	31084	
6638	0	31056	
6639	0	31048	
6640	0	31096	
6641	0	31104	
6642	0	31116	
6643	0	31120	
6644	0	31128	
6645	0	31112	
6646	0	31104	
6647	0	31236	
6648	0	31380	
6649	0	31408	
6650	0	31368	
6651	0	31300	
6652	0	31312	
6653	0	31364	
6654	0	31360	
6655	0	31336	
6656	0	31352	
6657	0	31324	
6658	0	31290	
6659	0	31288	
6660	0	31304	
6661	0	31292	
6662	0	31316	
6663	0	31432	
6664	0	31528	
6665	0	31580	
6666	0	31604	
6667	0	31584	
6668	0	31532	
6669	0	31464	
6670	0	31420	
6671	0	31400	
6672	0	31428	
6673	0	31456	
6674	0	31448	
6675	0	31432	
6676	0	31360	
6677	0	31380	
6678	0	31524	
6679	0	31592	
6680	0	31644	
6681	0	31680	
6682	0	31650	
6683	0	31610	
6684	0	31608	
6685	0	31672	
6686	0	31724	
6687	0	31776	
6688	0	31820	
6689	0	31800	
6690	0	31844	
6691	0	31904	
6692	0	31904	
6693	0	31844	
6694	0	31832	
6695	0	31788	
6696	0	31788	
6697	0	31784	
6698	0	31736	
6699	0	31736	
6700	0	31744	
6701	0	31756	
6702	0	31788	
6703	0	31764	
6704	0	31708	
6705	0	31644	
6706	0	31640	
6707	0	31740	
6708	0	31752	
6709	0	31824	
6710	0	32012	
6711	0	32072	
6712	0	32092	
6713	0	32044	
6714	0	31968	
6715	0	31948	
6716	0	31948	
6717	0	31912	
6718	0	31864	
6719	0	31808	
6720	0	31784	
6721	0	31824	
6722	0	31836	
6723	0	31852	
6724	0	31808	
6725	0	31812	
6726	0	31820	
6727	0	31872	
6728	0	31908	
6729	0	31924	
6730	0	31936	
6731	0	31900	
6732	0	31920	
6733	0	31932	
6734	0	31906	
6735	0	31832	
6736	0	31760	
6737	0	31818	
6738	0	31976	
6739	0	32016	
6740	0	32012	
6741	0	32028	
6742	0	32050	
6743	0	32072	
6744	0	32122	
6745	0	32064	
6746	0	32004	
6747	0	32020	
6748	0	32016	
6749	0	31876	
6750	0	31996	
6751	0	32220	
6752	0	32244	
6753	0	32280	
6754	0	32304	
6755	0	32336	
6756	0	32356	
6757	0	32288	
6758	0	32084	
6759	0	32068	
6760	0	32172	
6761	0	32180	
6762	0	32052	
6763	0	32036	
6764	0	32052	
6765	0	32168	
6766	0	32206	
6767	0	32258	
6768	0	32346	
6769	0	32356	
6770	0	32352	
6771	0	32332	
6772	0	32272	
6773	0	32200	
6774	0	32272	
6775	0	32372	
6776	0	32400	
6777	0	32392	
6778	0	32344	
6779	0	32348	
6780	0	32300	
6781	0	32318	
6782	0	32384	
6783	0	32432	
6784	0	32492	
6785	0	32576	
6786	0	32552	
6787	0	32512	
6788	0	32520	
6789	0	32634	
6790	0	32672	
6791	0	32640	
6792	0	32620	
6793	0	32604	
6794	0	32620	
6795	0	32568	
6796	0	32508	
6797	0	32600	
6798	0	32636	
6799	0	32500	
6800	0	32376	
6801	0	32396	
6802	0	32452	
6803	0	32624	
6804	0	32736	
6805	0	32732	
6806	0	32676	
6807	0	32698	
6808	0	32716	
6809	0	32784	
6810	0	32840	
6811	0	32888	
6812	0	32892	
6813	0	32816	
6814	0	32768	
6815	0	32732	
6816	0	32744	
6817	0	32700	
6818	0	32660	
6819	0	32664	
6820	0	32696	
6821	0	32736	
6822	0	32788	
6823	0	32752	
6824	0	32840	
6825	0	32916	
6826	0	32872	
6827	0	32912	
6828	0	32948	
6829	0	32940	
6830	0	32944	
6831	0	32920	
6832	0	32880	
6833	0	32968	
6834	0	33064	
6835	0	33024	
6836	0	32948	
6837	0	32900	
6838	0	32992	
6839	0	33092	
6840	0	33150	
6841	0	33184	
6842	0	33284	
6843	0	33380	
6844	0	33576	
6845	0	33780	
6846	0	33944	
6847	0	34012	
6848	0	34144	
6849	0	34240	
6850	0	34402	
6851	0	34460	
6852	0	34412	
6853	0	34440	
6854	0	34404	
6855	0	34364	
6856	0	34364	
6857	0	34376	
6858	0	34368	
6859	0	34392	
6860	0	34464	
6861	0	34556	
6862	0	34720	
6863	0	34804	
6864	0	34820	
6865	0	34940	
6866	0	35072	
6867	0	35192	
6868	0	35312	
6869	0	35468	
6870	0	35688	
6871	0	35776	
6872	0	35764	
6873	0	35816	
6874	0	35860	
6875	0	35840	
6876	0	35752	
6877	0	35680	
6878	0	35742	
6879	0	35736	
6880	0	35744	
6881	0	35728	
6882	0	35800	
6883	0	35806	
6884	0	35676	
6885	0	35612	
6886	0	35536	
6887	0	35432	
6888	0	35300	
6889	0	35156	
6890	0	35028	
6891	0	34880	
6892	0	34788	
6893	0	34586	
6894	0	34412	
6895	0	34208	
6896	0	34044	
6897	0	34056	
6898	0	34052	
6899	0	33976	
6900	0	33972	
6901	0	34002	
6902	0	34034	
6903	0	34024	
6904	0	34072	
6905	0	34164	
6906	0	34232	
6907	0	34144	
6908	0	33980	
6909	0	33796	
6910	0	33572	
6911	0	33512	
6912	0	33452	
6913	0	33456	
6914	0	33552	
6915	0	33528	
6916	0	33364	
6917	0	33200	
6918	0	33064	
6919	0	32912	
6920	0	32784	
6921	0	32704	
6922	0	32632	
6923	0	32508	
6924	0	32396	
6925	0	32344	
6926	0	32296	
6927	0	32228	
6928	0	32172	
6929	0	32192	
6930	0	32216	
6931	0	32184	
6932	0	32192	
6933	0	32228	
6934	0	32276	
6935	0	32284	
6936	0	32252	
6937	0	32272	
6938	0	32298	
6939	0	32248	
6940	0	32168	
6941	0	32140	
6942	0	32136	
6943	0	32124	
6944	0	32056	
6945	0	32028	
6946	0	32092	
6947	0	32172	
6948	0	32220	
6949	0	32220	
6950	0	32240	
6951	0	32284	
6952	0	32348	
6953	0	32328	
6954	0	32224	
6955	0	32196	
6956	0	32116	
6957	0	32112	
6958	0	32172	
6959	0	32152	
6960	0	32156	
6961	0	32164	
6962	0	32188	
6963	0	32160	
6964	0	32240	
6965	0	32308	
6966	0	32304	
6967	0	32384	
6968	0	32440	
6969	0	32480	
6970	0	32504	
6971	0	32532	
6972	0	32500	
6973	0	32448	
6974	0	32432	
6975	0	32468	
6976	0	32456	
6977	0	32300	
6978	0	32208	
6979	0	32212	
6980	0	32192	
6981	0	32128	
6982	0	31956	
6983	0	31824	
6984	0	31712	
6985	0	31692	
6986	0	31724	
6987	0	31656	
6988	0	31668	
6989	0	31840	
6990	0	32296	
6991	0	32872	
6992	0	33428	
6993	0	34092	
6994	0	34984	
6995	0	36036	
6996	0	37296	
6997	0	38700	
6998	0	40176	
6999	0	41632	
7000	0	43060	
7001	0	44580	
7002	0	46074	
7003	0	47600	
7004	0	49160	
7005	0	50696	
7006	0	52204	
7007	0	53704	
7008	0	55196	
7009	0	56644	
7010	0	58096	
7011	0	59312	
7012	0	60296	
7013	0	61144	
7014	0	61792	
7015	0	62112	
7016	0	61420	
7017	0	59700	
7018	0	57104	
7019	0	53852	
7020	0	50340	
7021	0	46708	
7022	0	42616	
7023	0	38112	
7024	0	33836	
7025	0	30504	
7026	0	28216	
7027	0	26808	
7028	0	26040	
7029	0	25728	
7030	0	25729	
7031	0	25996	
7032	0	26324	
7033	0	26658	
7034	0	27100	
7035	0	27504	
7036	0	27896	
7037	0	28400	
7038	0	28840	
7039	0	29248	
7040	0	29648	
7041	0	29948	
7042	0	30132	
7043	0	30304	
7044	0	30432	
7045	0	30576	
7046	0	30694	
7047	0	30732	
7048	0	30688	
7049	0	30538	
7050	0	30432	
7051	0	30340	
7052	0	30248	
7053	0	30224	
7054	0	30158	
7055	0	30088	
7056	0	30072	
7057	0	30036	
7058	0	29998	
7059	0	29956	
7060	0	30012	
7061	0	30120	
7062	0	30192	
7063	0	30130	
7064	0	30076	
7065	0	30108	
7066	0	30134	
7067	0	30092	
7068	0	30104	
7069	0	30134	
7070	0	30130	
7071	0	30188	
7072	0	30228	
7073	0	30300	
7074	0	30308	
7075	0	30316	
7076	0	30324	
7077	0	30334	
7078	0	30296	
7079	0	30272	
7080	0	30340	
7081	0	30372	
7082	0	30352	
7083	0	30360	
7084	0	30440	
7085	0	30504	
7086	0	30536	
7087	0	30592	
7088	0	30620	
7089	0	30612	
7090	0	30580	
7091	0	30728	
7092	0	30904	
7093	0	30926	
7094	0	30928	
7095	0	30892	
7096	0	30780	
7097	0	30690	
7098	0	30720	
7099	0	30696	
7100	0	30736	
7101	0	30820	
7102	0	30928	
7103	0	31008	
7104	0	31052	
7105	0	31120	
7106	0	31196	
7107	0	31242	
7108	0	31186	
7109	0	31296	
7110	0	31400	
7111	0	31408	
7112	0	31368	
7113	0	31358	
7114	0	31412	
7115	0	31440	
7116	0	31484	
7117	0	31584	
7118	0	31612	
7119	0	31612	
7120	0	31628	
7121	0	31624	
7122	0	31648	
7123	0	31726	
7124	0	31768	
7125	0	31792	
7126	0	31864	
7127	0	31872	
7128	0	31892	
7129	0	31968	
7130	0	31996	
7131	0	31964	
7132	0	31982	
7133	0	31992	
7134	0	32040	
7135	0	32032	
7136	0	31976	
7137	0	31948	
7138	0	31980	
7139	0	32000	
7140	0	32072	
7141	0	32048	
7142	0	31984	
7143	0	32060	
7144	0	32152	
7145	0	32196	
7146	0	32266	
7147	0	32356	
7148	0	32380	
7149	0	32372	
7150	0	32404	
7151	0	32456	
7152	0	32508	
7153	0	32520	
7154	0	32524	
7155	0	32524	
7156	0	32510	
7157	0	32480	
7158	0	32536	
7159	0	32580	
7160	0	32600	
7161	0	32616	
7162	0	32640	
7163	0	32700	
7164	0	32772	
7165	0	32864	
7166	0	32904	
7167	0	32929	
7168	0	33012	
7169	0	33064	
7170	0	33056	
7171	0	33082	
7172	0	33124	
7173	0	33152	
7174	0	33200	
7175	0	33272	
7176	0	33312	
7177	0	33320	
7178	0	33300	
7179	0	33344	
7180	0	33410	
7181	0	33456	
7182	0	33508	
7183	0	33556	
7184	0	33600	
7185	0	33656	
7186	0	33744	
7187	0	33832	
7188	0	33868	
7189	0	33940	
7190	0	34048	
7191	0	34144	
7192	0	34240	
7193	0	34284	
7194	0	34264	
7195	0	34266	
7196	0	34336	
7197	0	34440	
7198	0	34528	
7199	0	34596	
7200	0	34656	
7201	0	34696	
7202	0	34736	
7203	0	34884	
7204	0	34944	
7205	0	34936	
7206	0	35024	
7207	0	35156	
7208	0	35284	
7209	0	35344	
7210	0	35460	
7211	0	35540	
7212	0	35644	
7213	0	35716	
7214	0	35752	
7215	0	35784	
7216	0	35880	
7217	0	35960	
7218	0	35972	
7219	0	35956	
7220	0	36040	
7221	0	36216	
7222	0	36336	
7223	0	36378	
7224	0	36440	
7225	0	36456	
7226	0	36436	
7227	0	36360	
7228	0	36472	
7229	0	36576	
7230	0	36640	
7231	0	36708	
7232	0	36816	
7233	0	36824	
7234	0	36896	
7235	0	36952	
7236	0	36944	
7237	0	36906	
7238	0	36900	
7239	0	36920	
7240	0	37016	
7241	0	37076	
7242	0	37128	
7243	0	37096	
7244	0	37140	
7245	0	37152	
7246	0	37136	
7247	0	37098	
7248	0	37032	
7249	0	37056	
7250	0	37080	
7251	0	37060	
7252	0	37008	
7253	0	36976	
7254	0	36932	
7255	0	36792	
7256	0	36668	
7257	0	36640	
7258	0	36580	
7259	0	36428	
7260	0	36236	
7261	0	36080	
7262	0	35992	
7263	0	35856	
7264	0	35696	
7265	0	35520	
7266	0	35392	
7267	0	35276	
7268	0	35100	
7269	0	34908	
7270	0	34688	
7271	0	34520	
7272	0	34312	
7273	0	34124	
7274	0	33940	
7275	0	33720	
7276	0	33560	
7277	0	33372	
7278	0	33236	
7279	0	33064	
7280	0	32848	
7281	0	32640	
7282	0	32448	
7283	0	32286	
7284	0	32128	
7285	0	31960	
7286	0	31840	
7287	0	31712	
7288	0	31584	
7289	0	31488	
7290	0	31316	
7291	0	31160	
7292	0	31020	
7293	0	30884	
7294	0	30800	
7295	0	30674	
7296	0	30544	
7297	0	30468	
7298	0	30380	
7299	0	30236	
7300	0	30112	
7301	0	29994	
7302	0	29976	
7303	0	29952	
7304	0	29828	
7305	0	29708	
7306	0	29688	
7307	0	29672	
7308	0	29610	
7309	0	29552	
7310	0	29512	
7311	0	29464	
7312	0	29442	
7313	0	29472	
7314	0	29464	
7315	0	29358	
7316	0	29256	
7317	0	29196	
7318	0	29152	
7319	0	29172	
7320	0	29164	
7321	0	29152	
7322	0	29144	
7323	0	29128	
7324	0	29144	
7325	0	29162	
7326	0	29208	
7327	0	29270	
7328	0	29264	
7329	0	29232	
7330	0	29340	
7331	0	29444	
7332	0	29472	
7333	0	29516	
7334	0	29472	
7335	0	29416	
7336	0	29320	
7337	0	29324	
7338	0	29370	
7339	0	29392	
7340	0	29376	
7341	0	29356	
7342	0	29360	
7343	0	29416	
7344	0	29520	
7345	0	29568	
7346	0	29568	
7347	0	29608	
7348	0	29632	
7349	0	29656	
7350	0	29668	
7351	0	29644	
7352	0	29652	
7353	0	29660	
7354	0	29748	
7355	0	29822	
7356	0	29804	
7357	0	29744	
7358	0	29712	
7359	0	29696	
7360	0	29740	
7361	0	29840	
7362	0	29952	
7363	0	29964	
7364	0	29996	
7365	0	30028	
7366	0	30028	
7367	0	30072	
7368	0	30144	
7369	0	30160	
7370	0	30192	
7371	0	30252	
7372	0	30324	
7373	0	30376	
7374	0	30376	
7375	0	30368	
7376	0	30344	
7377	0	30352	
7378	0	30336	
7379	0	30328	
7380	0	30348	
7381	0	30344	
7382	0	30370	
7383	0	30416	
7384	0	30452	
7385	0	30524	
7386	0	30640	
7387	0	30702	
7388	0	30696	
7389	0	30720	
7390	0	30688	
7391	0	30638	
7392	0	30648	
7393	0	30732	
7394	0	30764	
7395	0	30748	
7396	0	30720	
7397	0	30706	
7398	0	30664	
7399	0	30656	
7400	0	30652	
7401	0	30714	
7402	0	30772	
7403	0	30784	
7404	0	30752	
7405	0	30672	
7406	0	30676	
7407	0	30818	
7408	0	30908	
7409	0	30912	
7410	0	30912	
7411	0	30900	
7412	0	30864	
7413	0	30848	
7414	0	30912	
7415	0	30944	
7416	0	30924	
7417	0	30900	
7418	0	30908	
7419	0	30924	
7420	0	30940	
7421	0	30964	
7422	0	31008	
7423	0	31004	
7424	0	30988	
7425	0	31072	
7426	0	31148	
7427	0	31168	
7428	0	31188	
7429	0	31232	
7430	0	31212	
7431	0	31136	
7432	0	31116	
7433	0	31152	
7434	0	31140	
7435	0	31168	
7436	0	31132	
7437	0	31120	
7438	0	31072	
7439	0	31124	
7440	0	31220	
7441	0	31260	
7442	0	31300	
7443	0	31288	
7444	0	31296	
7445	0	31328	
7446	0	31336	
7447	0	31364	
7448	0	31340	
7449	0	31342	
7450	0	31408	
7451	0	31448	
7452	0	31476	
7453	0	31480	
7454	0	31464	
7455	0	31408	
7456	0	31392	
7457	0	31384	
7458	0	31408	
7459	0	31424	
7460	0	31504	
7461	0	31500	
7462	0	31472	
7463	0	31468	
7464	0	31492	
7465	0	31500	
7466	0	31596	
7467	0	31628	
7468	0	31584	
7469	0	31580	
7470	0	31538	
7471	0	31530	
7472	0	31562	
7473	0	31580	
7474	0	31624	
7475	0	31620	
7476	0	31616	
7477	0	31652	
7478	0	31646	
7479	0	31636	
7480	0	31536	
7481	0	31480	
7482	0	31512	
7483	0	31636	
7484	0	31652	
7485	0	31636	
7486	0	31668	
7487	0	31748	
7488	0	31792	
7489	0	31824	
7490	0	31760	
7491	0	31700	
7492	0	31696	
7493	0	31744	
7494	0	31714	
7495	0	31608	
7496	0	31608	
7497	0	31670	
7498	0	31720	
7499	0	31760	
7500	0	31760	
7501	0	31748	
7502	0	31742	
7503	0	31680	
7504	0	31700	
7505	0	31776	
7506	0	31816	
7507	0	31832	
7508	0	31824	
7509	0	31820	
7510	0	31856	
7511	0	31896	
7512	0	31904	
7513	0	31900	
7514	0	31892	
7515	0	31860	
7516	0	31920	
7517	0	31952	
7518	0	31872	
7519	0	31784	
7520	0	31748	
7521	0	31736	
7522	0	31756	
7523	0	31780	
7524	0	31840	
7525	0	31862	
7526	0	31892	
7527	0	31928	
7528	0	31952	
7529	0	31968	
7530	0	32012	
7531	0	32064	
7532	0	32036	
7533	0	32012	
7534	0	32016	
7535	0	32036	
7536	0	32080	
7537	0	32068	
7538	0	31994	
7539	0	31964	
7540	0	31988	
7541	0	32000	
7542	0	32004	
7543	0	32072	
7544	0	32124	
7545	0	32128	
7546	0	32116	
7547	0	32090	
7548	0	32092	
7549	0	32160	
7550	0	32248	
7551	0	32266	
7552	0	32288	
7553	0	32298	
7554	0	32252	
7555	0	32216	
7556	0	32170	
7557	0	32172	
7558	0	32180	
7559	0	32184	
7560	0	32192	
7561	0	32248	
7562	0	32296	
7563	0	32308	
7564	0	32272	
7565	0	32268	
7566	0	32304	
7567	0	32344	
7568	0	32372	
7569	0	32376	
7570	0	32416	
7571	0	32472	
7572	0	32416	
7573	0	32308	
7574	0	32228	
7575	0	32244	
7576	0	32220	
7577	0	32228	
7578	0	32196	
7579	0	32212	
7580	0	32280	
7581	0	32256	
7582	0	32300	
7583	0	32344	
7584	0	32372	
7585	0	32376	
7586	0	32404	
7587	0	32476	
7588	0	32522	
7589	0	32572	
7590	0	32576	
7591	0	32528	
7592	0	32548	
7593	0	32536	
7594	0	32540	
7595	0	32568	
7596	0	32564	
7597	0	32620	
7598	0	32672	
7599	0	32692	
7600	0	32716	
7601	0	32832	
7602	0	32944	
7603	0	33092	
7604	0	33282	
7605	0	33420	
7606	0	33536	
7607	0	33628	
7608	0	33748	
7609	0	33904	
7610	0	34036	
7611	0	34120	
7612	0	34168	
7613	0	34176	
7614	0	34168	
7615	0	34132	
7616	0	34132	
7617	0	34196	
7618	0	34320	
7619	0	34324	
7620	0	34280	
7621	0	34260	
7622	0	34268	
7623	0	34316	
7624	0	34444	
7625	0	34580	
7626	0	34724	
7627	0	34892	
7628	0	35040	
7629	0	35172	
7630	0	35308	
7631	0	35428	
7632	0	35500	
7633	0	35472	
7634	0	35416	
7635	0	35352	
7636	0	35360	
7637	0	35328	
7638	0	35344	
7639	0	35404	
7640	0	35428	
7641	0	35412	
7642	0	35392	
7643	0	35332	
7644	0	35220	
7645	0	35116	
7646	0	34984	
7647	0	34828	
7648	0	34698	
7649	0	34524	
7650	0	34368	
7651	0	34254	
7652	0	34164	
7653	0	34048	
7654	0	33968	
7655	0	33856	
7656	0	33812	
7657	0	33804	
7658	0	33740	
7659	0	33676	
7660	0	33632	
7661	0	33596	
7662	0	33636	
7663	0	33678	
7664	0	33676	
7665	0	33632	
7666	0	33584	
7667	0	33516	
7668	0	33412	
7669	0	33312	
7670	0	33232	
7671	0	33128	
7672	0	33028	
7673	0	32992	
7674	0	32930	
7675	0	32844	
7676	0	32704	
7677	0	32512	
7678	0	32332	
7679	0	32244	
7680	0	32236	
7681	0	32128	
7682	0	31916	
7683	0	31752	
7684	0	31720	
7685	0	31720	
7686	0	31732	
7687	0	31716	
7688	0	31656	
7689	0	31618	
7690	0	31668	
7691	0	31704	
7692	0	31756	
7693	0	31772	
7694	0	31792	
7695	0	31816	
7696	0	31744	
7697	0	31640	
7698	0	31636	
7699	0	31608	
7700	0	31592	
7701	0	31552	
7702	0	31520	
7703	0	31548	
7704	0	31648	
7705	0	31640	
7706	0	31632	
7707	0	31676	
7708	0	31668	
7709	0	31702	
7710	0	31720	
7711	0	31728	
7712	0	31720	
7713	0	31776	
7714	0	31760	
7715	0	31708	
7716	0	31712	
7717	0	31792	
7718	0	31816	
7719	0	31752	
7720	0	31800	
7721	0	31860	
7722	0	31832	
7723	0	31740	
7724	0	31764	
7725	0	31840	
7726	0	31936	
7727	0	31988	
7728	0	31988	
7729	0	32020	
7730	0	32112	
7731	0	32136	
7732	0	32128	
7733	0	32132	
7734	0	32116	
7735	0	32048	
7736	0	31924	
7737	0	31852	
7738	0	31784	
7739	0	31672	
7740	0	31482	
7741	0	31344	
7742	0	31212	
7743	0	31100	
7744	0	31072	
7745	0	31152	
7746	0	31224	
7747	0	31432	
7748	0	31848	
7749	0	32386	
7750	0	32920	
7751	0	33552	
7752	0	34346	
7753	0	35304	
7754	0	36528	
7755	0	37912	
7756	0	39424	
7757	0	40896	
7758	0	42276	
7759	0	43712	
7760	0	45148	
7761	0	46728	
7762	0	48340	
7763	0	49936	
7764	0	51492	
7765	0	53004	
7766	0	54516	
7767	0	56040	
7768	0	57594	
7769	0	58860	
7770	0	59928	
7771	0	60808	
7772	0	61432	
7773	0	61640	
7774	0	61008	
7775	0	59440	
7776	0	56864	
7777	0	53532	
7778	0	49952	
7779	0	46332	
7780	0	42328	
7781	0	37852	
7782	0	33540	
7783	0	30194	
7784	0	27920	
7785	0	26528	
7786	0	25858	
7787	0	25556	
7788	0	25528	
7789	0	25668	
7790	0	25896	
7791	0	26200	
7792	0	26648	
7793	0	27246	
7794	0	27772	
7795	0	28268	
7796	0	28748	
7797	0	29176	
7798	0	29552	
7799	0	29896	
7800	0	30176	
7801	0	30312	
7802	0	30352	
7803	0	30400	
7804	0	30364	
7805	0	30288	
7806	0	30196	
7807	0	30076	
7808	0	29984	
7809	0	29940	
7810	0	29888	
7811	0	29864	
7812	0	29844	
7813	0	29760	
7814	0	29640	
7815	0	29648	
7816	0	29668	
7817	0	29632	
7818	0	29578	
7819	0	29588	
7820	0	29570	
7821	0	29552	
7822	0	29584	
7823	0	29648	
7824	0	29660	
7825	0	29628	
7826	0	29652	
7827	0	29780	
7828	0	29856	
7829	0	29920	
7830	0	29876	
7831	0	29860	
7832	0	29924	
7833	0	29968	
7834	0	29944	
7835	0	29880	
7836	0	29856	
7837	0	29888	
7838	0	29928	
7839	0	29976	
7840	0	30012	
7841	0	30072	
7842	0	30136	
7843	0	30176	
7844	0	30212	
7845	0	30248	
7846	0	30316	
7847	0	30404	
7848	0	30472	
7849	0	30496	
7850	0	30492	
7851	0	30488	
7852	0	30520	
7853	0	30524	
7854	0	30512	
7855	0	30504	
7856	0	30508	
7857	0	30500	
7858	0	30580	
7859	0	30648	
7860	0	30656	
7861	0	30608	
7862	0	30624	
7863	0	30744	
7864	0	30876	
7865	0	30968	
7866	0	31012	
7867	0	31060	
7868	0	31040	
7869	0	31000	
7870	0	31052	
7871	0	31092	
7872	0	31112	
7873	0	31128	
7874	0	31160	
7875	0	31168	
7876	0	31192	
7877	0	31256	
7878	0	31312	
7879	0	31376	
7880	0	31424	
7881	0	31424	
7882	0	31464	
7883	0	31496	
7884	0	31496	
7885	0	31528	
7886	0	31568	
7887	0	31620	
7888	0	31648	
7889	0	31672	
7890	0	31720	
7891	0	31688	
7892	0	31628	
7893	0	31656	
7894	0	31720	
7895	0	31760	
7896	0	31812	
7897	0	31828	
7898	0	31768	
7899	0	31824	
7900	0	31868	
7901	0	31896	
7902	0	32000	
7903	0	32082	
7904	0	32136	
7905	0	32172	
7906	0	32192	
7907	0	32200	
7908	0	32236	
7909	0	32212	
7910	0	32232	
7911	0	32360	
7912	0	32500	
7913	0	32534	
7914	0	32520	
7915	0	32460	
7916	0	32464	
7917	0	32480	
7918	0	32564	
7919	0	32602	
7920	0	32608	
7921	0	32616	
7922	0	32660	
7923	0	32716	
7924	0	32752	
7925	0	32816	
7926	0	32832	
7927	0	32775	
7928	0	32792	
7929	0	32876	
7930	0	32962	
7931	0	33084	
7932	0	33128	
7933	0	33172	
7934	0	33168	
7935	0	33248	
7936	0	33376	
7937	0	33376	
7938	0	33400	
7939	0	33472	
7940	0	33562	
7941	0	33624	
7942	0	33664	
7943	0	33736	
7944	0	33816	
7945	0	33832	
7946	0	33828	
7947	0	33834	
7948	0	33896	
7949	0	34048	
7950	0	34124	
7951	0	34144	
7952	0	34240	
7953	0	34344	
7954	0	34456	
7955	0	34576	
7956	0	34560	
7957	0	34584	
7958	0	34616	
7959	0	34672	
7960	0	34768	
7961	0	34792	
7962	0	34852	
7963	0	34944	
7964	0	35056	
7965	0	35200	
7966	0	35292	
7967	0	35376	
7968	0	35540	
7969	0	35680	
7970	0	35768	
7971	0	35838	
7972	0	35940	
7973	0	35980	
7974	0	35992	
7975	0	35970	
7976	0	35928	
7977	0	35896	
7978	0	35916	
7979	0	35916	
7980	0	35904	
7981	0	35912	
7982	0	35996	
7983	0	36108	
7984	0	36216	
7985	0	36344	
7986	0	36440	
7987	0	36524	
7988	0	36568	
7989	0	36616	
7990	0	36688	
7991	0	36720	
7992	0	36700	
7993	0	36644	
7994	0	36524	
7995	0	36616	
7996	0	36720	
7997	0	36720	
7998	0	36728	
7999	0	36756	
8000	0	36840	
8001	0	36888	
8002	0	36928	
8003	0	36924	
8004	0	36868	
8005	0	36840	
8006	0	36832	
8007	0	36800	
8008	0	36842	
8009	0	36864	
8010	0	36848	
8011	0	36696	
8012	0	36632	
8013	0	36592	
8014	0	36552	
8015	0	36432	
8016	0	36296	
8017	0	36212	
8018	0	36112	
8019	0	35992	
8020	0	35908	
8021	0	35800	
8022	0	35676	
8023	0	35512	
8024	0	35308	
8025	0	35108	
8026	0	34944	
8027	0	34828	
8028	0	34588	
8029	0	34348	
8030	0	34232	
8031	0	34144	
8032	0	34000	
8033	0	33800	
8034	0	33600	
8035	0	33416	
8036	0	33200	
8037	0	33078	
8038	0	32976	
8039	0	32832	
8040	0	32620	
8041	0	32404	
8042	0	32192	
8043	0	31980	
8044	0	31872	
8045	0	31812	
8046	0	31608	
8047	0	31456	
8048	0	31380	
8049	0	31248	
8050	0	31064	
8051	0	30946	
8052	0	30804	
8053	0	30660	
8054	0	30624	
8055	0	30524	
8056	0	30388	
8057	0	30288	
8058	0	30168	
8059	0	30076	
8060	0	29976	
8061	0	29958	
8062	0	29930	
8063	0	29852	
8064	0	29672	
8065	0	29580	
8066	0	29542	
8067	0	29532	
8068	0	29528	
8069	0	29432	
8070	0	29376	
8071	0	29332	
8072	0	29244	
8073	0	29160	
8074	0	29122	
8075	0	29088	
8076	0	29076	
8077	0	29082	
8078	0	29122	
8079	0	29212	
8080	0	29228	
8081	0	29196	
8082	0	29236	
8083	0	29248	
8084	0	29212	
8085	0	29236	
8086	0	29292	
8087	0	29280	
8088	0	29252	
8089	0	29265	
8090	0	29272	
8091	0	29240	
8092	0	29218	
8093	0	29248	
8094	0	29300	
8095	0	29372	
8096	0	29328	
8097	0	29336	
8098	0	29352	
8099	0	29348	
8100	0	29308	
8101	0	29328	
8102	0	29364	
8103	0	29424	
8104	0	29516	
8105	0	29584	
8106	0	29624	
8107	0	29672	
8108	0	29760	
8109	0	29828	
8110	0	29868	
8111	0	29914	
8112	0	29936	
8113	0	29954	
8114	0	29978	
8115	0	30000	
8116	0	30032	
8117	0	30028	
8118	0	30040	
8119	0	30028	
8120	0	30004	
8121	0	30072	
8122	0	30112	
8123	0	30140	
8124	0	30148	
8125	0	30144	
8126	0	30148	
8127	0	30180	
8128	0	30216	
8129	0	30256	
8130	0	30304	
8131	0	30400	
8132	0	30448	
8133	0	30468	
8134	0	30488	
8135	0	30476	
8136	0	30432	
8137	0	30400	
8138	0	30368	
8139	0	30380	
8140	0	30400	
8141	0	30420	
8142	0	30472	
8143	0	30504	
8144	0	30484	
8145	0	30496	
8146	0	30564	
8147	0	30620	
8148	0	30728	
8149	0	30784	
8150	0	30764	
8151	0	30744	
8152	0	30692	
8153	0	30656	
8154	0	30700	
8155	0	30720	
8156	0	30680	
8157	0	30666	
8158	0	30664	
8159	0	30716	
8160	0	30764	
8161	0	30812	
8162	0	30808	
8163	0	30832	
8164	0	30876	
8165	0	30888	
8166	0	30892	
8167	0	30856	
8168	0	30846	
8169	0	30884	
8170	0	30944	
8171	0	30940	
8172	0	30888	
8173	0	30844	
8174	0	30856	
8175	0	30888	
8176	0	30922	
8177	0	30928	
8178	0	30928	
8179	0	30956	
8180	0	31008	
8181	0	31028	
8182	0	31016	
8183	0	30992	
8184	0	31002	
8185	0	31072	
8186	0	31144	
8187	0	31188	
8188	0	31220	
8189	0	31192	
8190	0	31180	
8191	0	31160	
8192	0	31152	
8193	0	31152	
8194	0	31124	
8195	0	31168	
8196	0	31192	
8197	0	31200	
8198	0	31216	
8199	0	31176	
8200	0	31124	
8201	0	31164	
8202	0	31208	
8203	0	31220	
8204	0	31216	
8205	0	31258	
8206	0	31308	
8207	0	31332	
8208	0	31300	
8209	0	31324	
8210	0	31344	
8211	0	31360	
8212	0	31360	
8213	0	31304	
8214	0	31264	
8215	0	31164	
8216	0	31184	
8217	0	31308	
8218	0	31358	
8219	0	31348	
8220	0	31296	
8221	0	31228	
8222	0	31256	
8223	0	31330	
8224	0	31360	
8225	0	31364	
8226	0	31408	
8227	0	31424	
8228	0	31428	
8229	0	31440	
8230	0	31464	
8231	0	31464	
8232	0	31448	
8233	0	31448	
8234	0	31464	
8235	0	31472	
8236	0	31464	
8237	0	31456	
8238	0	31436	
8239	0	31448	
8240	0	31502	
8241	0	31512	
8242	0	31528	
8243	0	31572	
8244	0	31568	
8245	0	31542	
8246	0	31536	
8247	0	31560	
8248	0	31620	
8249	0	31640	
8250	0	31656	
8251	0	31668	
8252	0	31700	
8253	0	31656	
8254	0	31618	
8255	0	31568	
8256	0	31584	
8257	0	31636	
8258	0	31736	
8259	0	31784	
8260	0	31784	
8261	0	31728	
8262	0	31714	
8263	0	31732	
8264	0	31744	
8265	0	31716	
8266	0	31740	
8267	0	31752	
8268	0	31740	
8269	0	31732	
8270	0	31740	
8271	0	31736	
8272	0	31732	
8273	0	31732	
8274	0	31752	
8275	0	31750	
8276	0	31706	
8277	0	31702	
8278	0	31630	
8279	0	31588	
8280	0	31596	
8281	0	31610	
8282	0	31592	
8283	0	31656	
8284	0	31688	
8285	0	31676	
8286	0	31688	
8287	0	31708	
8288	0	31672	
8289	0	31660	
8290	0	31676	
8291	0	31736	
8292	0	31776	
8293	0	31748	
8294	0	31752	
8295	0	31744	
8296	0	31712	
8297	0	31744	
8298	0	31794	
8299	0	31800	
8300	0	31756	
8301	0	31736	
8302	0	31772	
8303	0	31824	
8304	0	31848	
8305	0	31876	
8306	0	31918	
8307	0	31924	
8308	0	31900	
8309	0	31876	
8310	0	31868	
8311	0	31872	
8312	0	31880	
8313	0	31882	
8314	0	31860	
8315	0	31804	
8316	0	31796	
8317	0	31800	
8318	0	31816	
8319	0	31802	
8320	0	31784	
8321	0	31808	
8322	0	31860	
8323	0	31888	
8324	0	31914	
8325	0	31928	
8326	0	31916	
8327	0	31952	
8328	0	31984	
8329	0	31996	
8330	0	32004	
8331	0	32064	
8332	0	32136	
8333	0	32144	
8334	0	32228	
8335	0	32336	
8336	0	32416	
8337	0	32558	
8338	0	32704	
8339	0	32808	
8340	0	32928	
8341	0	33024	
8342	0	33148	
8343	0	33284	
8344	0	33420	
8345	0	33590	
8346	0	33708	
8347	0	33684	
8348	0	33632	
8349	0	33648	
8350	0	33708	
8351	0	33776	
8352	0	33840	
8353	0	33884	
8354	0	33936	
8355	0	33972	
8356	0	33972	
8357	0	33972	
8358	0	34052	
8359	0	34160	
8360	0	34280	
8361	0	34384	
8362	0	34520	
8363	0	34684	
8364	0	34824	
8365	0	34850	
8366	0	34928	
8367	0	34984	
8368	0	35008	
8369	0	34992	
8370	0	34912	
8371	0	34852	
8372	0	34836	
8373	0	34880	
8374	0	34884	
8375	0	34906	
8376	0	34956	
8377	0	34944	
8378	0	34824	
8379	0	34636	
8380	0	34524	
8381	0	34480	
8382	0	34332	
8383	0	34116	
8384	0	33960	
8385	0	33818	
8386	0	33680	
8387	0	33564	
8388	0	33496	
8389	0	33512	
8390	0	33525	
8391	0	33448	
8392	0	33320	
8393	0	33192	
8394	0	33066	
8395	0	32996	
8396	0	32964	
8397	0	32952	
8398	0	32924	
8399	0	32868	
8400	0	32824	
8401	0	32724	
8402	0	32652	
8403	0	32588	
8404	0	32500	
8405	0	32392	
8406	0	32324	
8407	0	32288	
8408	0	32240	
8409	0	32148	
8410	0	32084	
8411	0	32024	
8412	0	31956	
8413	0	31876	
8414	0	31756	
8415	0	31620	
8416	0	31494	
8417	0	31364	
8418	0	31250	
8419	0	31144	
8420	0	31068	
8421	0	30996	
8422	0	30996	
8423	0	31068	
8424	0	31120	
8425	0	31152	
8426	0	31200	
8427	0	31232	
8428	0	31236	
8429	0	31228	
8430	0	31204	
8431	0	31136	
8432	0	31100	
8433	0	31144	
8434	0	31196	
8435	0	31176	
8436	0	31112	
8437	0	31084	
8438	0	31060	
8439	0	31060	
8440	0	31092	
8441	0	31086	
8442	0	31096	
8443	0	31140	
8444	0	31160	
8445	0	31208	
8446	0	31264	
8447	0	31336	
8448	0	31352	
8449	0	31340	
8450	0	31368	
8451	0	31356	
8452	0	31342	
8453	0	31376	
8454	0	31404	
8455	0	31452	
8456	0	31456	
8457	0	31464	
8458	0	31400	
8459	0	31336	
8460	0	31352	
8461	0	31300	
8462	0	31284	
8463	0	31332	
8464	0	31386	
8465	0	31420	
8466	0	31456	
8467	0	31520	
8468	0	31560	
8469	0	31554	
8470	0	31528	
8471	0	31426	
8472	0	31340	
8473	0	31232	
8474	0	31098	
8475	0	30956	
8476	0	30792	
8477	0	30596	
8478	0	30448	
8479	0	30408	
8480	0	30476	
8481	0	30572	
8482	0	30826	
8483	0	31232	
8484	0	31712	
8485	0	32266	
8486	0	32960	
8487	0	33860	
8488	0	34908	
8489	0	36192	
8490	0	37660	
8491	0	39188	
8492	0	40620	
8493	0	42080	
8494	0	43612	
8495	0	45172	
8496	0	46768	
8497	0	48384	
8498	0	49928	
8499	0	51416	
8500	0	52880	
8501	0	54312	
8502	0	55764	
8503	0	57204	
8504	0	58432	
8505	0	59472	
8506	0	60208	
8507	0	60624	
8508	0	60588	
8509	0	59532	
8510	0	57568	
8511	0	54808	
8512	0	51368	
8513	0	47728	
8514	0	43908	
8515	0	39760	
8516	0	35188	
8517	0	30916	
8518	0	27772	
8519	0	25794	
8520	0	24786	
8521	0	24384	
8522	0	24396	
8523	0	24672	
8524	0	24952	
8525	0	25248	
8526	0	25646	
8527	0	26092	
8528	0	26572	
8529	0	27065	
8530	0	27528	
8531	0	27976	
8532	0	28404	
8533	0	28784	
8534	0	29156	
8535	0	29460	
8536	0	29688	
8537	0	29764	
8538	0	29772	
8539	0	29760	
8540	0	29728	
8541	0	29716	
8542	0	29724	
8543	0	29714	
8544	0	29664	
8545	0	29588	
8546	0	29572	
8547	0	29568	
8548	0	29564	
8549	0	29560	
8550	0	29524	
8551	0	29516	
8552	0	29536	
8553	0	29512	
8554	0	29456	
8555	0	29432	
8556	0	29368	
8557	0	29368	
8558	0	29344	
8559	0	29368	
8560	0	29440	
8561	0	29480	
8562	0	29536	
8563	0	29584	
8564	0	29610	
8565	0	29640	
8566	0	29658	
8567	0	29672	
8568	0	29708	
8569	0	29740	
8570	0	29728	
8571	0	29676	
8572	0	29696	
8573	0	29764	
8574	0	29792	
8575	0	29792	
8576	0	29824	
8577	0	29816	
8578	0	29840	
8579	0	29856	
8580	0	29880	
8581	0	29932	
8582	0	30000	
8583	0	30080	
8584	0	30092	
8585	0	30084	
8586	0	30186	
8587	0	30272	
8588	0	30336	
8589	0	30484	
8590	0	30564	
8591	0	30544	
8592	0	30492	
