# OpenSignals Text File Format. Version 1
# {"00:07:80:4B:15:F7": {"position": 0, "device": "biosignalsplux", "device name": "00:07:80:4B:15:F7", "device connection": "BTH00:07:80:4B:15:F7", "sampling rate": 1000, "resolution": [16], "firmware version": 775, "comments": "", "keywords": "", "mode": 0, "sync interval": 2, "date": "2023-3-14", "time": "15:24:9.290", "channels": [1], "sensor": ["ECG"], "label": ["CH1"], "column": ["nSeq", "DI", "CH1"], "special": [{"SpO2": [80, 40, 5, 4, 3, 3]}, {"SpO2": [80, 40, 5, 4, 3, 3]}, {"SpO2": [80, 40, 5, 4, 3, 3]}, {"SpO2": [80, 40, 5, 4, 3, 3]}, {"SpO2": [80, 40, 5, 4, 3, 3]}, {"SpO2": [80, 40, 5, 4, 3, 3]}, {"SpO2": [80, 40, 5, 4, 3, 3]}, {"SpO2": [80, 40, 5, 4, 3, 3]}], "digital IO": [0, 1], "sleeve color": ["green"], "convertedValues": 0}}
# EndOfHeader
0	0	32416	
1	0	32472	
2	0	32548	
3	0	32676	
4	0	32796	
5	0	32884	
6	0	32940	
7	0	32960	
8	0	33012	
9	0	33036	
10	0	33020	
11	0	33020	
12	0	33012	
13	0	33024	
14	0	32992	
15	0	32960	
16	0	32952	
17	0	32976	
18	0	33032	
19	0	33100	
20	0	33178	
21	0	33232	
22	0	33292	
23	0	33392	
24	0	33536	
25	0	33640	
26	0	33692	
27	0	33752	
28	0	33796	
29	0	33848	
30	0	33860	
31	0	33828	
32	0	33834	
33	0	33876	
34	0	33924	
35	0	33928	
36	0	33952	
37	0	33992	
38	0	34040	
39	0	34112	
40	0	34180	
41	0	34256	
42	0	34332	
43	0	34464	
44	0	34544	
45	0	34608	
46	0	34736	
47	0	34864	
48	0	34980	
49	0	35032	
50	0	35096	
51	0	35168	
52	0	35212	
53	0	35252	
54	0	35302	
55	0	35364	
56	0	35420	
57	0	35496	
58	0	35564	
59	0	35664	
60	0	35792	
61	0	35940	
62	0	36076	
63	0	36188	
64	0	36324	
65	0	36480	
66	0	36692	
67	0	36844	
68	0	36948	
69	0	37012	
70	0	37072	
71	0	37148	
72	0	37192	
73	0	37288	
74	0	37436	
75	0	37600	
76	0	37704	
77	0	37792	
78	0	37852	
79	0	37904	
80	0	38036	
81	0	38184	
82	0	38416	
83	0	38684	
84	0	38912	
85	0	39020	
86	0	39088	
87	0	39216	
88	0	39296	
89	0	39300	
90	0	39308	
91	0	39312	
92	0	39316	
93	0	39316	
94	0	39308	
95	0	39332	
96	0	39328	
97	0	39324	
98	0	39376	
99	0	39400	
100	0	39440	
101	0	39516	
102	0	39584	
103	0	39616	
104	0	39632	
105	0	39628	
106	0	39624	
107	0	39596	
108	0	39540	
109	0	39480	
110	0	39388	
111	0	39288	
112	0	39200	
113	0	39068	
114	0	38896	
115	0	38772	
116	0	38688	
117	0	38576	
118	0	38554	
119	0	38504	
120	0	38412	
121	0	38316	
122	0	38220	
123	0	38148	
124	0	38000	
125	0	37824	
126	0	37680	
127	0	37568	
128	0	37388	
129	0	37088	
130	0	36752	
131	0	36436	
132	0	36132	
133	0	35816	
134	0	35452	
135	0	35120	
136	0	34832	
137	0	34524	
138	0	34284	
139	0	34064	
140	0	33804	
141	0	33564	
142	0	33320	
143	0	33064	
144	0	32852	
145	0	32648	
146	0	32424	
147	0	32236	
148	0	31988	
149	0	31700	
150	0	31432	
151	0	31216	
152	0	31004	
153	0	30776	
154	0	30512	
155	0	30266	
156	0	30032	
157	0	29864	
158	0	29716	
159	0	29584	
160	0	29432	
161	0	29292	
162	0	29176	
163	0	29096	
164	0	29052	
165	0	29008	
166	0	28980	
167	0	28890	
168	0	28770	
169	0	28614	
170	0	28468	
171	0	28320	
172	0	28188	
173	0	28096	
174	0	27974	
175	0	27868	
176	0	27792	
177	0	27716	
178	0	27696	
179	0	27720	
180	0	27780	
181	0	27744	
182	0	27696	
183	0	27720	
184	0	27800	
185	0	27852	
186	0	27844	
187	0	27828	
188	0	27872	
189	0	27900	
190	0	27876	
191	0	27812	
192	0	27800	
193	0	27788	
194	0	27756	
195	0	27734	
196	0	27716	
197	0	27640	
198	0	27604	
199	0	27580	
200	0	27608	
201	0	27660	
202	0	27744	
203	0	27870	
204	0	27992	
205	0	28080	
206	0	28154	
207	0	28196	
208	0	28216	
209	0	28184	
210	0	28164	
211	0	28208	
212	0	28212	
213	0	28148	
214	0	28136	
215	0	28184	
216	0	28176	
217	0	28184	
218	0	28210	
219	0	28224	
220	0	28248	
221	0	28256	
222	0	28312	
223	0	28392	
224	0	28484	
225	0	28548	
226	0	28592	
227	0	28648	
228	0	28696	
229	0	28704	
230	0	28692	
231	0	28666	
232	0	28672	
233	0	28706	
234	0	28744	
235	0	28756	
236	0	28784	
237	0	28804	
238	0	28852	
239	0	28840	
240	0	28900	
241	0	29018	
242	0	29160	
243	0	29308	
244	0	29432	
245	0	29568	
246	0	29680	
247	0	29756	
248	0	29824	
249	0	29834	
250	0	29852	
251	0	29860	
252	0	29860	
253	0	29848	
254	0	29840	
255	0	29864	
256	0	29880	
257	0	29900	
258	0	29960	
259	0	30050	
260	0	30108	
261	0	30160	
262	0	30248	
263	0	30304	
264	0	30372	
265	0	30436	
266	0	30492	
267	0	30574	
268	0	30666	
269	0	30728	
270	0	30784	
271	0	30816	
272	0	30800	
273	0	30760	
274	0	30728	
275	0	30756	
276	0	30804	
277	0	30820	
278	0	30836	
279	0	30936	
280	0	31048	
281	0	31156	
282	0	31258	
283	0	31386	
284	0	31456	
285	0	31456	
286	0	31472	
287	0	31504	
288	0	31556	
289	0	31608	
290	0	31628	
291	0	31584	
292	0	31552	
293	0	31516	
294	0	31472	
295	0	31426	
296	0	31424	
297	0	31452	
298	0	31496	
299	0	31508	
300	0	31564	
301	0	31652	
302	0	31752	
303	0	31864	
304	0	31904	
305	0	31872	
306	0	31908	
307	0	31956	
308	0	31992	
309	0	31976	
310	0	31940	
311	0	31908	
312	0	31888	
313	0	31848	
314	0	31772	
315	0	31680	
316	0	31648	
317	0	31608	
318	0	31644	
319	0	31712	
320	0	31840	
321	0	31884	
322	0	31892	
323	0	31916	
324	0	31960	
325	0	32024	
326	0	32100	
327	0	32160	
328	0	32132	
329	0	32048	
330	0	31992	
331	0	32000	
332	0	31976	
333	0	31940	
334	0	31888	
335	0	31880	
336	0	31872	
337	0	31848	
338	0	31802	
339	0	31796	
340	0	31812	
341	0	31832	
342	0	31856	
343	0	31896	
344	0	31968	
345	0	32040	
346	0	32120	
347	0	32184	
348	0	32208	
349	0	32172	
350	0	32140	
351	0	32076	
352	0	31956	
353	0	31908	
354	0	31848	
355	0	31728	
356	0	31658	
357	0	31648	
358	0	31656	
359	0	31688	
360	0	31780	
361	0	31904	
362	0	31998	
363	0	32048	
364	0	32064	
365	0	32076	
366	0	32048	
367	0	31990	
368	0	32044	
369	0	32088	
370	0	32064	
371	0	31976	
372	0	31908	
373	0	31908	
374	0	31880	
375	0	31808	
376	0	31800	
377	0	31816	
378	0	31844	
379	0	31852	
380	0	31900	
381	0	31912	
382	0	31948	
383	0	31988	
384	0	32032	
385	0	32096	
386	0	32152	
387	0	32168	
388	0	32152	
389	0	32104	
390	0	32096	
391	0	32064	
392	0	32064	
393	0	32032	
394	0	31912	
395	0	31824	
396	0	31796	
397	0	31808	
398	0	31860	
399	0	31920	
400	0	32028	
401	0	32128	
402	0	32152	
403	0	32152	
404	0	32200	
405	0	32260	
406	0	32320	
407	0	32380	
408	0	32424	
409	0	32396	
410	0	32296	
411	0	32204	
412	0	32152	
413	0	32112	
414	0	32076	
415	0	32048	
416	0	32016	
417	0	31994	
418	0	32020	
419	0	32088	
420	0	32168	
421	0	32192	
422	0	32196	
423	0	32276	
424	0	32348	
425	0	32332	
426	0	32300	
427	0	32292	
428	0	32296	
429	0	32352	
430	0	32336	
431	0	32340	
432	0	32296	
433	0	32276	
434	0	32264	
435	0	32272	
436	0	32264	
437	0	32290	
438	0	32304	
439	0	32328	
440	0	32388	
441	0	32456	
442	0	32492	
443	0	32498	
444	0	32492	
445	0	32500	
446	0	32504	
447	0	32556	
448	0	32624	
449	0	32580	
450	0	32528	
451	0	32464	
452	0	32408	
453	0	32336	
454	0	32288	
455	0	32248	
456	0	32244	
457	0	32256	
458	0	32308	
459	0	32376	
460	0	32416	
461	0	32436	
462	0	32448	
463	0	32500	
464	0	32560	
465	0	32592	
466	0	32616	
467	0	32636	
468	0	32624	
469	0	32628	
470	0	32608	
471	0	32576	
472	0	32544	
473	0	32508	
474	0	32488	
475	0	32456	
476	0	32400	
477	0	32396	
478	0	32500	
479	0	32588	
480	0	32640	
481	0	32632	
482	0	32596	
483	0	32564	
484	0	32556	
485	0	32564	
486	0	32604	
487	0	32612	
488	0	32608	
489	0	32576	
490	0	32528	
491	0	32488	
492	0	32444	
493	0	32408	
494	0	32372	
495	0	32332	
496	0	32312	
497	0	32300	
498	0	32352	
499	0	32404	
500	0	32464	
501	0	32536	
502	0	32588	
503	0	32640	
504	0	32680	
505	0	32752	
506	0	32794	
507	0	32866	
508	0	32904	
509	0	32844	
510	0	32788	
511	0	32680	
512	0	32584	
513	0	32528	
514	0	32512	
515	0	32512	
516	0	32524	
517	0	32576	
518	0	32608	
519	0	32580	
520	0	32604	
521	0	32656	
522	0	32716	
523	0	32768	
524	0	32840	
525	0	32928	
526	0	32980	
527	0	33012	
528	0	33040	
529	0	33072	
530	0	33080	
531	0	33136	
532	0	33184	
533	0	33188	
534	0	33168	
535	0	33184	
536	0	33240	
537	0	33300	
538	0	33348	
539	0	33380	
540	0	33412	
541	0	33440	
542	0	33560	
543	0	33668	
544	0	33688	
545	0	33704	
546	0	33648	
547	0	33572	
548	0	33540	
549	0	33556	
550	0	33520	
551	0	33472	
552	0	33428	
553	0	33396	
554	0	33360	
555	0	33400	
556	0	33496	
557	0	33724	
558	0	33984	
559	0	34236	
560	0	34536	
561	0	34816	
562	0	35048	
563	0	35208	
564	0	35300	
565	0	35380	
566	0	35520	
567	0	35650	
568	0	35748	
569	0	35752	
570	0	35672	
571	0	35532	
572	0	35354	
573	0	35200	
574	0	35056	
575	0	34968	
576	0	34882	
577	0	34712	
578	0	34480	
579	0	34312	
580	0	34220	
581	0	34148	
582	0	34064	
583	0	33984	
584	0	33944	
585	0	33916	
586	0	33836	
587	0	33800	
588	0	33732	
589	0	33588	
590	0	33400	
591	0	33284	
592	0	33196	
593	0	33104	
594	0	32984	
595	0	32840	
596	0	32704	
597	0	32692	
598	0	32680	
599	0	32602	
600	0	32524	
601	0	32448	
602	0	32344	
603	0	32300	
604	0	32280	
605	0	32232	
606	0	32152	
607	0	32080	
608	0	31976	
609	0	31848	
610	0	31704	
611	0	31560	
612	0	31468	
613	0	31384	
614	0	31300	
615	0	31208	
616	0	31208	
617	0	31232	
618	0	31284	
619	0	31320	
620	0	31336	
621	0	31344	
622	0	31336	
623	0	31448	
624	0	31560	
625	0	31646	
626	0	31694	
627	0	31720	
628	0	31724	
629	0	31752	
630	0	31700	
631	0	31654	
632	0	31644	
633	0	31620	
634	0	31560	
635	0	31548	
636	0	31580	
637	0	31604	
638	0	31596	
639	0	31564	
640	0	31540	
641	0	31536	
642	0	31520	
643	0	31640	
644	0	31760	
645	0	31860	
646	0	31914	
647	0	31888	
648	0	31908	
649	0	31872	
650	0	31824	
651	0	31792	
652	0	31752	
653	0	31642	
654	0	31472	
655	0	31212	
656	0	30796	
657	0	30244	
658	0	29548	
659	0	28936	
660	0	28512	
661	0	28292	
662	0	28308	
663	0	28512	
664	0	28864	
665	0	29426	
666	0	30184	
667	0	31256	
668	0	32532	
669	0	33944	
670	0	35488	
671	0	37132	
672	0	38780	
673	0	40728	
674	0	42928	
675	0	45424	
676	0	48464	
677	0	51696	
678	0	54872	
679	0	57912	
680	0	60804	
681	0	62732	
682	0	63712	
683	0	64200	
684	0	64428	
685	0	64464	
686	0	64440	
687	0	64368	
688	0	64280	
689	0	64168	
690	0	64048	
691	0	63924	
692	0	59520	
693	0	54508	
694	0	50372	
695	0	46832	
696	0	43820	
697	0	41240	
698	0	38840	
699	0	36704	
700	0	34872	
701	0	33320	
702	0	32032	
703	0	30914	
704	0	29926	
705	0	29068	
706	0	28496	
707	0	28100	
708	0	27824	
709	0	27712	
710	0	27728	
711	0	27674	
712	0	27476	
713	0	27208	
714	0	26992	
715	0	26882	
716	0	26860	
717	0	26984	
718	0	27234	
719	0	27516	
720	0	27824	
721	0	28136	
722	0	28356	
723	0	28512	
724	0	28640	
725	0	28768	
726	0	28824	
727	0	28836	
728	0	28820	
729	0	28756	
730	0	28708	
731	0	28688	
732	0	28672	
733	0	28632	
734	0	28560	
735	0	28520	
736	0	28532	
737	0	28528	
738	0	28500	
739	0	28552	
740	0	28602	
741	0	28644	
742	0	28712	
743	0	28738	
744	0	28780	
745	0	28884	
746	0	29008	
747	0	29096	
748	0	29090	
749	0	28992	
750	0	28964	
751	0	29008	
752	0	29040	
753	0	29082	
754	0	29104	
755	0	29132	
756	0	29204	
757	0	29256	
758	0	29302	
759	0	29336	
760	0	29388	
761	0	29488	
762	0	29556	
763	0	29616	
764	0	29676	
765	0	29780	
766	0	29896	
767	0	29984	
768	0	30024	
769	0	30036	
770	0	29976	
771	0	29928	
772	0	29904	
773	0	29944	
774	0	29976	
775	0	29974	
776	0	29986	
777	0	29970	
778	0	30052	
779	0	30190	
780	0	30320	
781	0	30432	
782	0	30504	
783	0	30530	
784	0	30592	
785	0	30744	
786	0	30848	
787	0	30912	
788	0	30960	
789	0	30968	
790	0	30928	
791	0	30976	
792	0	30980	
793	0	30956	
794	0	30960	
795	0	31008	
796	0	30996	
797	0	31000	
798	0	31024	
799	0	31088	
800	0	31164	
801	0	31296	
802	0	31394	
803	0	31496	
804	0	31576	
805	0	31672	
806	0	31778	
807	0	31924	
808	0	32028	
809	0	31992	
810	0	31956	
811	0	31944	
812	0	31948	
813	0	31946	
814	0	31964	
815	0	31968	
816	0	32002	
817	0	32000	
818	0	32022	
819	0	32040	
820	0	32112	
821	0	32196	
822	0	32272	
823	0	32336	
824	0	32420	
825	0	32520	
826	0	32576	
827	0	32624	
828	0	32652	
829	0	32656	
830	0	32672	
831	0	32708	
832	0	32728	
833	0	32728	
834	0	32752	
835	0	32760	
836	0	32752	
837	0	32776	
838	0	32840	
839	0	32908	
840	0	32960	
841	0	33068	
842	0	33216	
843	0	33320	
844	0	33408	
845	0	33540	
846	0	33708	
847	0	33780	
848	0	33824	
849	0	33848	
850	0	33884	
851	0	33914	
852	0	33908	
853	0	33900	
854	0	33968	
855	0	34060	
856	0	34140	
857	0	34204	
858	0	34264	
859	0	34332	
860	0	34473	
861	0	34672	
862	0	34744	
863	0	34754	
864	0	34816	
865	0	34928	
866	0	35084	
867	0	35232	
868	0	35324	
869	0	35428	
870	0	35544	
871	0	35592	
872	0	35620	
873	0	35696	
874	0	35724	
875	0	35756	
876	0	35872	
877	0	35984	
878	0	36088	
879	0	36164	
880	0	36268	
881	0	36396	
882	0	36532	
883	0	36716	
884	0	36920	
885	0	37088	
886	0	37234	
887	0	37372	
888	0	37460	
889	0	37536	
890	0	37584	
891	0	37640	
892	0	37692	
893	0	37728	
894	0	37756	
895	0	37724	
896	0	37836	
897	0	37960	
898	0	38036	
899	0	38084	
900	0	38160	
901	0	38272	
902	0	38400	
903	0	38516	
904	0	38628	
905	0	38784	
906	0	38944	
907	0	39072	
908	0	39120	
909	0	39104	
910	0	39048	
911	0	38988	
912	0	38880	
913	0	38784	
914	0	38768	
915	0	38736	
916	0	38704	
917	0	38688	
918	0	38620	
919	0	38544	
920	0	38520	
921	0	38524	
922	0	38580	
923	0	38592	
924	0	38592	
925	0	38640	
926	0	38652	
927	0	38600	
928	0	38532	
929	0	38416	
930	0	38280	
931	0	38132	
932	0	37968	
933	0	37772	
934	0	37532	
935	0	37276	
936	0	37024	
937	0	36848	
938	0	36648	
939	0	36400	
940	0	36184	
941	0	35976	
942	0	35800	
943	0	35616	
944	0	35380	
945	0	35120	
946	0	34844	
947	0	34592	
948	0	34336	
949	0	34108	
950	0	33800	
951	0	33460	
952	0	33156	
953	0	32880	
954	0	32564	
955	0	32280	
956	0	32012	
957	0	31712	
958	0	31448	
959	0	31248	
960	0	31076	
961	0	30884	
962	0	30700	
963	0	30516	
964	0	30364	
965	0	30284	
966	0	30204	
967	0	30088	
968	0	29948	
969	0	29794	
970	0	29716	
971	0	29632	
972	0	29448	
973	0	29260	
974	0	29056	
975	0	28852	
976	0	28688	
977	0	28560	
978	0	28432	
979	0	28320	
980	0	28272	
981	0	28280	
982	0	28312	
983	0	28320	
984	0	28308	
985	0	28324	
986	0	28320	
987	0	28284	
988	0	28260	
989	0	28252	
990	0	28224	
991	0	28168	
992	0	28130	
993	0	28080	
994	0	28040	
995	0	28000	
996	0	27972	
997	0	27924	
998	0	27916	
999	0	27924	
1000	0	27976	
1001	0	28056	
1002	0	28092	
1003	0	28092	
1004	0	28150	
1005	0	28186	
1006	0	28208	
1007	0	28232	
1008	0	28268	
1009	0	28260	
1010	0	28196	
1011	0	28108	
1012	0	28136	
1013	0	28188	
1014	0	28220	
1015	0	28208	
1016	0	28208	
1017	0	28196	
1018	0	28256	
1019	0	28280	
1020	0	28288	
1021	0	28352	
1022	0	28344	
1023	0	28408	
1024	0	28616	
1025	0	28748	
1026	0	28808	
1027	0	28840	
1028	0	28860	
1029	0	28896	
1030	0	28864	
1031	0	28792	
1032	0	28740	
1033	0	28688	
1034	0	28676	
1035	0	28680	
1036	0	28684	
1037	0	28700	
1038	0	28708	
1039	0	28760	
1040	0	28864	
1041	0	28970	
1042	0	29096	
1043	0	29216	
1044	0	29336	
1045	0	29396	
1046	0	29424	
1047	0	29436	
1048	0	29482	
1049	0	29544	
1050	0	29576	
1051	0	29576	
1052	0	29552	
1053	0	29524	
1054	0	29508	
1055	0	29508	
1056	0	29528	
1057	0	29512	
1058	0	29484	
1059	0	29480	
1060	0	29504	
1061	0	29568	
1062	0	29660	
1063	0	29784	
1064	0	29868	
1065	0	29924	
1066	0	30000	
1067	0	30074	
1068	0	30128	
1069	0	30124	
1070	0	30144	
1071	0	30170	
1072	0	30156	
1073	0	30152	
1074	0	30180	
1075	0	30192	
1076	0	30204	
1077	0	30220	
1078	0	30224	
1079	0	30252	
1080	0	30296	
1081	0	30344	
1082	0	30432	
1083	0	30544	
1084	0	30664	
1085	0	30752	
1086	0	30820	
1087	0	30876	
1088	0	30896	
1089	0	30952	
1090	0	30980	
1091	0	30972	
1092	0	30936	
1093	0	30888	
1094	0	30872	
1095	0	30884	
1096	0	30876	
1097	0	30884	
1098	0	30876	
1099	0	30904	
1100	0	30960	
1101	0	31064	
1102	0	31168	
1103	0	31240	
1104	0	31316	
1105	0	31376	
1106	0	31376	
1107	0	31384	
1108	0	31404	
1109	0	31400	
1110	0	31444	
1111	0	31456	
1112	0	31420	
1113	0	31400	
1114	0	31380	
1115	0	31384	
1116	0	31356	
1117	0	31316	
1118	0	31308	
1119	0	31330	
1120	0	31376	
1121	0	31440	
1122	0	31500	
1123	0	31572	
1124	0	31632	
1125	0	31716	
1126	0	31784	
1127	0	31784	
1128	0	31780	
1129	0	31800	
1130	0	31772	
1131	0	31712	
1132	0	31708	
1133	0	31740	
1134	0	31692	
1135	0	31676	
1136	0	31664	
1137	0	31628	
1138	0	31608	
1139	0	31640	
1140	0	31708	
1141	0	31752	
1142	0	31780	
1143	0	31884	
1144	0	31982	
1145	0	32024	
1146	0	32008	
1147	0	31988	
1148	0	32012	
1149	0	32016	
1150	0	32012	
1151	0	31992	
1152	0	31952	
1153	0	31880	
1154	0	31772	
1155	0	31648	
1156	0	31564	
1157	0	31514	
1158	0	31516	
1159	0	31552	
1160	0	31560	
1161	0	31604	
1162	0	31656	
1163	0	31720	
1164	0	31788	
1165	0	31802	
1166	0	31792	
1167	0	31812	
1168	0	31848	
1169	0	31864	
1170	0	31876	
1171	0	31880	
1172	0	31900	
1173	0	31840	
1174	0	31748	
1175	0	31652	
1176	0	31544	
1177	0	31444	
1178	0	31392	
1179	0	31400	
1180	0	31448	
1181	0	31492	
1182	0	31544	
1183	0	31584	
1184	0	31616	
1185	0	31668	
1186	0	31752	
1187	0	31840	
1188	0	31900	
1189	0	31916	
1190	0	31900	
1191	0	31832	
1192	0	31776	
1193	0	31724	
1194	0	31684	
1195	0	31640	
1196	0	31624	
1197	0	31616	
1198	0	31624	
1199	0	31604	
1200	0	31612	
1201	0	31644	
1202	0	31660	
1203	0	31724	
1204	0	31818	
1205	0	31868	
1206	0	31888	
1207	0	31988	
1208	0	32068	
1209	0	32052	
1210	0	32028	
1211	0	31968	
1212	0	31896	
1213	0	31820	
1214	0	31840	
1215	0	31876	
1216	0	31840	
1217	0	31792	
1218	0	31752	
1219	0	31744	
1220	0	31792	
1221	0	31864	
1222	0	31928	
1223	0	31960	
1224	0	32032	
1225	0	32178	
1226	0	32242	
1227	0	32236	
1228	0	32312	
1229	0	32312	
1230	0	32256	
1231	0	32188	
1232	0	32104	
1233	0	32036	
1234	0	32044	
1235	0	32004	
1236	0	32016	
1237	0	32000	
1238	0	31950	
1239	0	31904	
1240	0	31960	
1241	0	32056	
1242	0	32104	
1243	0	32108	
1244	0	32104	
1245	0	32176	
1246	0	32316	
1247	0	32384	
1248	0	32336	
1249	0	32308	
1250	0	32284	
1251	0	32238	
1252	0	32208	
1253	0	32160	
1254	0	32140	
1255	0	32132	
1256	0	32136	
1257	0	32144	
1258	0	32136	
1259	0	32128	
1260	0	32168	
1261	0	32232	
1262	0	32312	
1263	0	32376	
1264	0	32400	
1265	0	32464	
1266	0	32512	
1267	0	32456	
1268	0	32512	
1269	0	32544	
1270	0	32506	
1271	0	32432	
1272	0	32380	
1273	0	32376	
1274	0	32352	
1275	0	32352	
1276	0	32352	
1277	0	32300	
1278	0	32280	
1279	0	32240	
1280	0	32248	
1281	0	32340	
1282	0	32416	
1283	0	32448	
1284	0	32500	
1285	0	32532	
1286	0	32570	
1287	0	32628	
1288	0	32648	
1289	0	32644	
1290	0	32592	
1291	0	32510	
1292	0	32434	
1293	0	32388	
1294	0	32322	
1295	0	32280	
1296	0	32244	
1297	0	32244	
1298	0	32220	
1299	0	32240	
1300	0	32276	
1301	0	32324	
1302	0	32380	
1303	0	32440	
1304	0	32532	
1305	0	32588	
1306	0	32644	
1307	0	32728	
1308	0	32804	
1309	0	32792	
1310	0	32772	
1311	0	32708	
1312	0	32642	
1313	0	32612	
1314	0	32536	
1315	0	32552	
1316	0	32544	
1317	0	32496	
1318	0	32448	
1319	0	32476	
1320	0	32516	
1321	0	32578	
1322	0	32648	
1323	0	32700	
1324	0	32768	
1325	0	32860	
1326	0	32920	
1327	0	32932	
1328	0	32960	
1329	0	32908	
1330	0	32856	
1331	0	32812	
1332	0	32752	
1333	0	32728	
1334	0	32704	
1335	0	32696	
1336	0	32716	
1337	0	32720	
1338	0	32680	
1339	0	32692	
1340	0	32728	
1341	0	32804	
1342	0	32876	
1343	0	32960	
1344	0	33000	
1345	0	33084	
1346	0	33200	
1347	0	33320	
1348	0	33400	
1349	0	33536	
1350	0	33680	
1351	0	33720	
1352	0	33676	
1353	0	33632	
1354	0	33696	
1355	0	33740	
1356	0	33760	
1357	0	33796	
1358	0	33820	
1359	0	33846	
1360	0	33904	
1361	0	33900	
1362	0	33860	
1363	0	33824	
1364	0	33844	
1365	0	33812	
1366	0	33728	
1367	0	33712	
1368	0	33696	
1369	0	33684	
1370	0	33728	
1371	0	33772	
1372	0	33828	
1373	0	33932	
1374	0	34034	
1375	0	34208	
1376	0	34432	
1377	0	34672	
1378	0	34872	
1379	0	35004	
1380	0	35072	
1381	0	35188	
1382	0	35388	
1383	0	35548	
1384	0	35712	
1385	0	35856	
1386	0	35912	
1387	0	35868	
1388	0	35832	
1389	0	35788	
1390	0	35692	
1391	0	35568	
1392	0	35440	
1393	0	35320	
1394	0	35152	
1395	0	34928	
1396	0	34696	
1397	0	34484	
1398	0	34288	
1399	0	34188	
1400	0	34140	
1401	0	34088	
1402	0	34028	
1403	0	33912	
1404	0	33784	
1405	0	33692	
1406	0	33652	
1407	0	33632	
1408	0	33632	
1409	0	33580	
1410	0	33472	
1411	0	33324	
1412	0	33160	
1413	0	33006	
1414	0	32892	
1415	0	32760	
1416	0	32688	
1417	0	32584	
1418	0	32476	
1419	0	32424	
1420	0	32408	
1421	0	32376	
1422	0	32320	
1423	0	32248	
1424	0	32224	
1425	0	32148	
1426	0	32036	
1427	0	31920	
1428	0	31856	
1429	0	31776	
1430	0	31700	
1431	0	31604	
1432	0	31560	
1433	0	31564	
1434	0	31504	
1435	0	31464	
1436	0	31428	
1437	0	31356	
1438	0	31340	
1439	0	31384	
1440	0	31460	
1441	0	31548	
1442	0	31620	
1443	0	31676	
1444	0	31748	
1445	0	31824	
1446	0	31872	
1447	0	31908	
1448	0	31936	
1449	0	31904	
1450	0	31868	
1451	0	31844	
1452	0	31796	
1453	0	31724	
1454	0	31652	
1455	0	31648	
1456	0	31680	
1457	0	31680	
1458	0	31684	
1459	0	31664	
1460	0	31664	
1461	0	31762	
1462	0	31828	
1463	0	31854	
1464	0	31884	
1465	0	31912	
1466	0	31932	
1467	0	31954	
1468	0	31944	
1469	0	31880	
1470	0	31776	
1471	0	31608	
1472	0	31332	
1473	0	30904	
1474	0	30320	
1475	0	29616	
1476	0	28984	
1477	0	28532	
1478	0	28312	
1479	0	28360	
1480	0	28576	
1481	0	28992	
1482	0	29592	
1483	0	30376	
1484	0	31388	
1485	0	32600	
1486	0	33972	
1487	0	35564	
1488	0	37224	
1489	0	38986	
1490	0	41072	
1491	0	43340	
1492	0	46056	
1493	0	49264	
1494	0	52536	
1495	0	55664	
1496	0	58752	
1497	0	61544	
1498	0	63208	
1499	0	64080	
1500	0	64468	
1501	0	64632	
1502	0	64660	
1503	0	64636	
1504	0	64544	
1505	0	64448	
1506	0	64328	
1507	0	64200	
1508	0	64100	
1509	0	58864	
1510	0	54048	
1511	0	50152	
1512	0	46820	
1513	0	43952	
1514	0	41408	
1515	0	39008	
1516	0	36840	
1517	0	34932	
1518	0	33224	
1519	0	31800	
1520	0	30656	
1521	0	29642	
1522	0	28856	
1523	0	28344	
1524	0	28004	
1525	0	27844	
1526	0	27828	
1527	0	27852	
1528	0	27748	
1529	0	27536	
1530	0	27288	
1531	0	27056	
1532	0	26952	
1533	0	27040	
1534	0	27240	
1535	0	27476	
1536	0	27628	
1537	0	27704	
1538	0	27804	
1539	0	27944	
1540	0	28096	
1541	0	28208	
1542	0	28332	
1543	0	28420	
1544	0	28408	
1545	0	28386	
1546	0	28432	
1547	0	28440	
1548	0	28408	
1549	0	28432	
1550	0	28444	
1551	0	28456	
1552	0	28476	
1553	0	28456	
1554	0	28440	
1555	0	28400	
1556	0	28396	
1557	0	28412	
1558	0	28464	
1559	0	28536	
1560	0	28592	
1561	0	28676	
1562	0	28772	
1563	0	28844	
1564	0	28916	
1565	0	29042	
1566	0	29148	
1567	0	29172	
1568	0	29200	
1569	0	29180	
1570	0	29104	
1571	0	29020	
1572	0	29052	
1573	0	29164	
1574	0	29264	
1575	0	29336	
1576	0	29352	
1577	0	29324	
1578	0	29324	
1579	0	29384	
1580	0	29536	
1581	0	29728	
1582	0	29856	
1583	0	29900	
1584	0	29896	
1585	0	29912	
1586	0	29976	
1587	0	30064	
1588	0	30138	
1589	0	30192	
1590	0	30228	
1591	0	30258	
1592	0	30272	
1593	0	30368	
1594	0	30428	
1595	0	30336	
1596	0	30232	
1597	0	30248	
1598	0	30320	
1599	0	30400	
1600	0	30496	
1601	0	30572	
1602	0	30716	
1603	0	30784	
1604	0	30784	
1605	0	30864	
1606	0	30952	
1607	0	31012	
1608	0	31028	
1609	0	31080	
1610	0	31120	
1611	0	31188	
1612	0	31274	
1613	0	31316	
1614	0	31308	
1615	0	31306	
1616	0	31372	
1617	0	31404	
1618	0	31400	
1619	0	31432	
1620	0	31520	
1621	0	31576	
1622	0	31648	
1623	0	31736	
1624	0	31848	
1625	0	31920	
1626	0	31900	
1627	0	31956	
1628	0	31968	
1629	0	31972	
1630	0	32016	
1631	0	32032	
1632	0	31984	
1633	0	31936	
1634	0	31956	
1635	0	32000	
1636	0	32020	
1637	0	32068	
1638	0	32116	
1639	0	32216	
1640	0	32284	
1641	0	32356	
1642	0	32448	
1643	0	32490	
1644	0	32572	
1645	0	32696	
1646	0	32864	
1647	0	32912	
1648	0	32944	
1649	0	32936	
1650	0	32964	
1651	0	32980	
1652	0	33004	
1653	0	33012	
1654	0	32968	
1655	0	32920	
1656	0	33004	
1657	0	33136	
1658	0	33296	
1659	0	33344	
1660	0	33296	
1661	0	33328	
1662	0	33356	
1663	0	33368	
1664	0	33504	
1665	0	33772	
1666	0	33984	
1667	0	34100	
1668	0	34088	
1669	0	34072	
1670	0	34072	
1671	0	34148	
1672	0	34196	
1673	0	34244	
1674	0	34284	
1675	0	34320	
1676	0	34440	
1677	0	34588	
1678	0	34648	
1679	0	34680	
1680	0	34732	
1681	0	34856	
1682	0	34968	
1683	0	35064	
1684	0	35184	
1685	0	35384	
1686	0	35584	
1687	0	35708	
1688	0	35770	
1689	0	35836	
1690	0	35964	
1691	0	36032	
1692	0	36064	
1693	0	36104	
1694	0	36164	
1695	0	36232	
1696	0	36256	
1697	0	36284	
1698	0	36368	
1699	0	36544	
1700	0	36672	
1701	0	36864	
1702	0	37016	
1703	0	37156	
1704	0	37304	
1705	0	37448	
1706	0	37588	
1707	0	37668	
1708	0	37752	
1709	0	37820	
1710	0	37968	
1711	0	38084	
1712	0	38144	
1713	0	38164	
1714	0	38196	
1715	0	38232	
1716	0	38280	
1717	0	38352	
1718	0	38348	
1719	0	38360	
1720	0	38432	
1721	0	38484	
1722	0	38504	
1723	0	38584	
1724	0	38620	
1725	0	38708	
1726	0	38792	
1727	0	38856	
1728	0	38920	
1729	0	38940	
1730	0	38904	
1731	0	38894	
1732	0	38864	
1733	0	38768	
1734	0	38672	
1735	0	38728	
1736	0	38732	
1737	0	38624	
1738	0	38528	
1739	0	38472	
1740	0	38388	
1741	0	38344	
1742	0	38324	
1743	0	38324	
1744	0	38352	
1745	0	38376	
1746	0	38280	
1747	0	38120	
1748	0	38048	
1749	0	37920	
1750	0	37800	
1751	0	37672	
1752	0	37488	
1753	0	37288	
1754	0	37116	
1755	0	36892	
1756	0	36632	
1757	0	36332	
1758	0	36028	
1759	0	35746	
1760	0	35488	
1761	0	35288	
1762	0	35100	
1763	0	34856	
1764	0	34632	
1765	0	34444	
1766	0	34242	
1767	0	33968	
1768	0	33704	
1769	0	33468	
1770	0	33228	
1771	0	32984	
1772	0	32698	
1773	0	32384	
1774	0	32036	
1775	0	31732	
1776	0	31522	
1777	0	31332	
1778	0	31108	
1779	0	30880	
1780	0	30724	
1781	0	30548	
1782	0	30424	
1783	0	30304	
1784	0	30152	
1785	0	30048	
1786	0	29944	
1787	0	29840	
1788	0	29728	
1789	0	29626	
1790	0	29530	
1791	0	29412	
1792	0	29232	
1793	0	29028	
1794	0	28844	
1795	0	28744	
1796	0	28664	
1797	0	28576	
1798	0	28480	
1799	0	28392	
1800	0	28304	
1801	0	28224	
1802	0	28152	
1803	0	28136	
1804	0	28156	
1805	0	28192	
1806	0	28260	
1807	0	28322	
1808	0	28292	
1809	0	28284	
1810	0	28240	
1811	0	28180	
1812	0	28096	
1813	0	27964	
1814	0	27890	
1815	0	27792	
1816	0	27660	
1817	0	27540	
1818	0	27464	
1819	0	27412	
1820	0	27440	
1821	0	27556	
1822	0	27580	
1823	0	27620	
1824	0	27728	
1825	0	27844	
1826	0	27976	
1827	0	28064	
1828	0	28112	
1829	0	28176	
1830	0	28224	
1831	0	28200	
1832	0	28196	
1833	0	28212	
1834	0	28172	
1835	0	28104	
1836	0	28096	
1837	0	28176	
1838	0	28264	
1839	0	28254	
1840	0	28264	
1841	0	28292	
1842	0	28320	
1843	0	28366	
1844	0	28448	
1845	0	28556	
1846	0	28660	
1847	0	28736	
1848	0	28768	
1849	0	28786	
1850	0	28826	
1851	0	28860	
1852	0	28884	
1853	0	28890	
1854	0	28920	
1855	0	28986	
1856	0	29008	
1857	0	29012	
1858	0	29068	
1859	0	29084	
1860	0	29144	
1861	0	29200	
1862	0	29296	
1863	0	29368	
1864	0	29448	
1865	0	29560	
1866	0	29648	
1867	0	29700	
1868	0	29776	
1869	0	29940	
1870	0	29988	
1871	0	29980	
1872	0	29992	
1873	0	29936	
1874	0	29852	
1875	0	29856	
1876	0	29856	
1877	0	29826	
1878	0	29868	
1879	0	29904	
1880	0	29932	
1881	0	29984	
1882	0	30048	
1883	0	30100	
1884	0	30176	
1885	0	30276	
1886	0	30354	
1887	0	30440	
1888	0	30532	
1889	0	30624	
1890	0	30688	
1891	0	30700	
1892	0	30712	
1893	0	30672	
1894	0	30636	
1895	0	30640	
1896	0	30656	
1897	0	30632	
1898	0	30592	
1899	0	30608	
1900	0	30648	
1901	0	30692	
1902	0	30748	
1903	0	30840	
1904	0	30932	
1905	0	31002	
1906	0	31026	
1907	0	31080	
1908	0	31132	
1909	0	31216	
1910	0	31272	
1911	0	31280	
1912	0	31210	
1913	0	31128	
1914	0	31096	
1915	0	31052	
1916	0	31024	
1917	0	31004	
1918	0	30948	
1919	0	30914	
1920	0	30930	
1921	0	30984	
1922	0	31052	
1923	0	31120	
1924	0	31210	
1925	0	31328	
1926	0	31432	
1927	0	31468	
1928	0	31488	
1929	0	31556	
1930	0	31564	
1931	0	31544	
1932	0	31520	
1933	0	31472	
1934	0	31432	
1935	0	31388	
1936	0	31352	
1937	0	31320	
1938	0	31244	
1939	0	31232	
1940	0	31244	
1941	0	31250	
1942	0	31352	
1943	0	31460	
1944	0	31496	
1945	0	31524	
1946	0	31552	
1947	0	31608	
1948	0	31616	
1949	0	31576	
1950	0	31528	
1951	0	31520	
1952	0	31484	
1953	0	31408	
1954	0	31356	
1955	0	31288	
1956	0	31220	
1957	0	31216	
1958	0	31248	
1959	0	31280	
1960	0	31328	
1961	0	31340	
1962	0	31344	
1963	0	31376	
1964	0	31432	
1965	0	31488	
1966	0	31536	
1967	0	31588	
1968	0	31680	
1969	0	31740	
1970	0	31752	
1971	0	31712	
1972	0	31648	
1973	0	31608	
1974	0	31552	
1975	0	31482	
1976	0	31404	
1977	0	31360	
1978	0	31380	
1979	0	31368	
1980	0	31360	
1981	0	31360	
1982	0	31400	
1983	0	31460	
1984	0	31472	
1985	0	31488	
1986	0	31568	
1987	0	31640	
1988	0	31680	
1989	0	31730	
1990	0	31762	
1991	0	31720	
1992	0	31604	
1993	0	31484	
1994	0	31444	
1995	0	31404	
1996	0	31312	
1997	0	31292	
1998	0	31300	
1999	0	31288	
2000	0	31328	
2001	0	31392	
2002	0	31456	
2003	0	31500	
2004	0	31552	
2005	0	31612	
2006	0	31632	
2007	0	31688	
2008	0	31696	
2009	0	31752	
2010	0	31800	
2011	0	31824	
2012	0	31788	
2013	0	31732	
2014	0	31688	
2015	0	31636	
2016	0	31584	
2017	0	31548	
2018	0	31536	
2019	0	31496	
2020	0	31476	
2021	0	31500	
2022	0	31512	
2023	0	31496	
2024	0	31564	
2025	0	31640	
2026	0	31696	
2027	0	31764	
2028	0	31808	
2029	0	31840	
2030	0	31904	
2031	0	31914	
2032	0	31888	
2033	0	31820	
2034	0	31756	
2035	0	31720	
2036	0	31656	
2037	0	31620	
2038	0	31596	
2039	0	31588	
2040	0	31580	
2041	0	31616	
2042	0	31764	
2043	0	31850	
2044	0	31848	
2045	0	31920	
2046	0	32032	
2047	0	32068	
2048	0	32136	
2049	0	32152	
2050	0	32128	
2051	0	32116	
2052	0	32100	
2053	0	32096	
2054	0	32052	
2055	0	31948	
2056	0	31880	
2057	0	31800	
2058	0	31800	
2059	0	31776	
2060	0	31800	
2061	0	31912	
2062	0	32020	
2063	0	32044	
2064	0	32064	
2065	0	32136	
2066	0	32220	
2067	0	32308	
2068	0	32344	
2069	0	32314	
2070	0	32272	
2071	0	32228	
2072	0	32128	
2073	0	32048	
2074	0	31976	
2075	0	31912	
2076	0	31842	
2077	0	31768	
2078	0	31736	
2079	0	31776	
2080	0	31852	
2081	0	31896	
2082	0	31908	
2083	0	31948	
2084	0	31976	
2085	0	32044	
2086	0	32084	
2087	0	32156	
2088	0	32260	
2089	0	32332	
2090	0	32396	
2091	0	32408	
2092	0	32424	
2093	0	32400	
2094	0	32304	
2095	0	32192	
2096	0	32208	
2097	0	32148	
2098	0	32048	
2099	0	32032	
2100	0	32040	
2101	0	32068	
2102	0	32108	
2103	0	32120	
2104	0	32124	
2105	0	32176	
2106	0	32296	
2107	0	32380	
2108	0	32436	
2109	0	32492	
2110	0	32456	
2111	0	32408	
2112	0	32420	
2113	0	32372	
2114	0	32280	
2115	0	32216	
2116	0	32220	
2117	0	32212	
2118	0	32224	
2119	0	32192	
2120	0	32116	
2121	0	32072	
2122	0	32096	
2123	0	32196	
2124	0	32320	
2125	0	32436	
2126	0	32540	
2127	0	32588	
2128	0	32628	
2129	0	32616	
2130	0	32584	
2131	0	32616	
2132	0	32592	
2133	0	32512	
2134	0	32460	
2135	0	32372	
2136	0	32308	
2137	0	32288	
2138	0	32252	
2139	0	32314	
2140	0	32360	
2141	0	32432	
2142	0	32484	
2143	0	32472	
2144	0	32508	
2145	0	32560	
2146	0	32600	
2147	0	32696	
2148	0	32768	
2149	0	32784	
2150	0	32700	
2151	0	32620	
2152	0	32628	
2153	0	32632	
2154	0	32576	
2155	0	32520	
2156	0	32496	
2157	0	32452	
2158	0	32448	
2159	0	32496	
2160	0	32544	
2161	0	32580	
2162	0	32620	
2163	0	32680	
2164	0	32724	
2165	0	32764	
2166	0	32826	
2167	0	32864	
2168	0	32848	
2169	0	32862	
2170	0	32856	
2171	0	32844	
2172	0	32860	
2173	0	32838	
2174	0	32792	
2175	0	32800	
2176	0	32820	
2177	0	32788	
2178	0	32744	
2179	0	32732	
2180	0	32792	
2181	0	32824	
2182	0	32824	
2183	0	32828	
2184	0	32864	
2185	0	32976	
2186	0	33080	
2187	0	33112	
2188	0	33112	
2189	0	33160	
2190	0	33184	
2191	0	33156	
2192	0	33096	
2193	0	33064	
2194	0	33100	
2195	0	33110	
2196	0	33088	
2197	0	33096	
2198	0	33184	
2199	0	33276	
2200	0	33368	
2201	0	33432	
2202	0	33508	
2203	0	33608	
2204	0	33688	
2205	0	33804	
2206	0	33940	
2207	0	34004	
2208	0	34042	
2209	0	34000	
2210	0	33938	
2211	0	33894	
2212	0	33798	
2213	0	33688	
2214	0	33628	
2215	0	33532	
2216	0	33472	
2217	0	33444	
2218	0	33484	
2219	0	33572	
2220	0	33716	
2221	0	33956	
2222	0	34300	
2223	0	34632	
2224	0	34904	
2225	0	35184	
2226	0	35424	
2227	0	35608	
2228	0	35860	
2229	0	36112	
2230	0	36252	
2231	0	36272	
2232	0	36228	
2233	0	36080	
2234	0	35932	
2235	0	35800	
2236	0	35680	
2237	0	35568	
2238	0	35464	
2239	0	35384	
2240	0	35276	
2241	0	35092	
2242	0	34928	
2243	0	34792	
2244	0	34678	
2245	0	34592	
2246	0	34564	
2247	0	34480	
2248	0	34368	
2249	0	34280	
2250	0	34160	
2251	0	34030	
2252	0	33908	
2253	0	33784	
2254	0	33676	
2255	0	33560	
2256	0	33424	
2257	0	33324	
2258	0	33264	
2259	0	33144	
2260	0	33008	
2261	0	32968	
2262	0	32924	
2263	0	32844	
2264	0	32784	
2265	0	32816	
2266	0	32832	
2267	0	32824	
2268	0	32808	
2269	0	32712	
2270	0	32560	
2271	0	32420	
2272	0	32264	
2273	0	32120	
2274	0	31992	
2275	0	31832	
2276	0	31676	
2277	0	31584	
2278	0	31578	
2279	0	31612	
2280	0	31656	
2281	0	31676	
2282	0	31704	
2283	0	31728	
2284	0	31764	
2285	0	31768	
2286	0	31752	
2287	0	31754	
2288	0	31772	
2289	0	31824	
2290	0	31828	
2291	0	31800	
2292	0	31770	
2293	0	31728	
2294	0	31680	
2295	0	31608	
2296	0	31584	
2297	0	31556	
2298	0	31536	
2299	0	31540	
2300	0	31576	
2301	0	31608	
2302	0	31664	
2303	0	31752	
2304	0	31760	
2305	0	31768	
2306	0	31824	
2307	0	31940	
2308	0	32076	
2309	0	32180	
2310	0	32180	
2311	0	32138	
2312	0	32040	
2313	0	31936	
2314	0	31824	
2315	0	31688	
2316	0	31520	
2317	0	31264	
2318	0	30900	
2319	0	30336	
2320	0	29632	
2321	0	28980	
2322	0	28524	
2323	0	28224	
2324	0	28128	
2325	0	28248	
2326	0	28580	
2327	0	29060	
2328	0	29748	
2329	0	30650	
2330	0	31712	
2331	0	32864	
2332	0	34176	
2333	0	35672	
2334	0	37188	
2335	0	38948	
2336	0	41120	
2337	0	43516	
2338	0	46432	
2339	0	49616	
2340	0	52808	
2341	0	55940	
2342	0	59024	
2343	0	61864	
2344	0	63496	
2345	0	64340	
2346	0	64744	
2347	0	64880	
2348	0	64924	
2349	0	64888	
2350	0	64796	
2351	0	64680	
2352	0	64560	
2353	0	64448	
2354	0	60544	
2355	0	55652	
2356	0	51596	
2357	0	48112	
2358	0	45164	
2359	0	42628	
2360	0	40300	
2361	0	38100	
2362	0	36192	
2363	0	34392	
2364	0	32736	
2365	0	31324	
2366	0	30160	
2367	0	29184	
2368	0	28512	
2369	0	28080	
2370	0	27780	
2371	0	27580	
2372	0	27450	
2373	0	27241	
2374	0	26948	
2375	0	26732	
2376	0	26568	
2377	0	26576	
2378	0	26636	
2379	0	26736	
2380	0	26972	
2381	0	27300	
2382	0	27554	
2383	0	27764	
2384	0	28012	
2385	0	28232	
2386	0	28376	
2387	0	28456	
2388	0	28548	
2389	0	28616	
2390	0	28610	
2391	0	28576	
2392	0	28520	
2393	0	28448	
2394	0	28376	
2395	0	28328	
2396	0	28264	
2397	0	28212	
2398	0	28216	
2399	0	28240	
2400	0	28286	
2401	0	28316	
2402	0	28332	
2403	0	28376	
2404	0	28460	
2405	0	28580	
2406	0	28704	
2407	0	28752	
2408	0	28804	
2409	0	28856	
2410	0	28876	
2411	0	28840	
2412	0	28796	
2413	0	28840	
2414	0	28880	
2415	0	28852	
2416	0	28808	
2417	0	28776	
2418	0	28820	
2419	0	28888	
2420	0	28900	
2421	0	28960	
2422	0	29052	
2423	0	29104	
2424	0	29164	
2425	0	29240	
2426	0	29364	
2427	0	29430	
2428	0	29504	
2429	0	29600	
2430	0	29632	
2431	0	29644	
2432	0	29696	
2433	0	29780	
2434	0	29832	
2435	0	29838	
2436	0	29820	
2437	0	29812	
2438	0	29888	
2439	0	29940	
2440	0	30020	
2441	0	30104	
2442	0	30154	
2443	0	30208	
2444	0	30240	
2445	0	30290	
2446	0	30372	
2447	0	30448	
2448	0	30544	
2449	0	30648	
2450	0	30704	
2451	0	30736	
2452	0	30736	
2453	0	30716	
2454	0	30692	
2455	0	30656	
2456	0	30592	
2457	0	30600	
2458	0	30640	
2459	0	30684	
2460	0	30740	
2461	0	30768	
2462	0	30816	
2463	0	30904	
2464	0	31008	
2465	0	31092	
2466	0	31144	
2467	0	31180	
2468	0	31244	
2469	0	31404	
2470	0	31424	
2471	0	31380	
2472	0	31404	
2473	0	31480	
2474	0	31520	
2475	0	31508	
2476	0	31540	
2477	0	31610	
2478	0	31684	
2479	0	31788	
2480	0	31888	
2481	0	31896	
2482	0	31852	
2483	0	31808	
2484	0	31824	
2485	0	31828	
2486	0	31876	
2487	0	32016	
2488	0	32164	
2489	0	32288	
2490	0	32404	
2491	0	32460	
2492	0	32440	
2493	0	32448	
2494	0	32480	
2495	0	32508	
2496	0	32504	
2497	0	32504	
2498	0	32520	
2499	0	32532	
2500	0	32568	
2501	0	32666	
2502	0	32836	
2503	0	32940	
2504	0	33038	
2505	0	33120	
2506	0	33180	
2507	0	33240	
2508	0	33288	
2509	0	33384	
2510	0	33520	
2511	0	33612	
2512	0	33584	
2513	0	33546	
2514	0	33576	
2515	0	33596	
2516	0	33608	
2517	0	33690	
2518	0	33708	
2519	0	33770	
2520	0	33834	
2521	0	33882	
2522	0	33980	
2523	0	34106	
2524	0	34256	
2525	0	34408	
2526	0	34552	
2527	0	34704	
2528	0	34848	
2529	0	34980	
2530	0	35088	
2531	0	35160	
2532	0	35288	
2533	0	35384	
2534	0	35448	
2535	0	35488	
2536	0	35512	
2537	0	35584	
2538	0	35676	
2539	0	35800	
2540	0	35924	
2541	0	36056	
2542	0	36204	
2543	0	36332	
2544	0	36476	
2545	0	36600	
2546	0	36736	
2547	0	36844	
2548	0	36980	
2549	0	37064	
2550	0	37144	
2551	0	37136	
2552	0	37172	
2553	0	37264	
2554	0	37368	
2555	0	37460	
2556	0	37528	
2557	0	37612	
2558	0	37648	
2559	0	37648	
2560	0	37664	
2561	0	37728	
2562	0	37808	
2563	0	37912	
2564	0	38040	
2565	0	38152	
2566	0	38276	
2567	0	38324	
2568	0	38368	
2569	0	38388	
2570	0	38464	
2571	0	38480	
2572	0	38488	
2573	0	38496	
2574	0	38508	
2575	0	38496	
2576	0	38452	
2577	0	38404	
2578	0	38412	
2579	0	38428	
2580	0	38412	
2581	0	38436	
2582	0	38412	
2583	0	38436	
2584	0	38464	
2585	0	38440	
2586	0	38456	
2587	0	38432	
2588	0	38444	
2589	0	38352	
2590	0	38240	
2591	0	38100	
2592	0	37948	
2593	0	37840	
2594	0	37680	
2595	0	37452	
2596	0	37256	
2597	0	37080	
2598	0	36948	
2599	0	36768	
2600	0	36544	
2601	0	36296	
2602	0	36082	
2603	0	35962	
2604	0	35816	
2605	0	35640	
2606	0	35456	
2607	0	35176	
2608	0	34916	
2609	0	34664	
2610	0	34392	
2611	0	34124	
2612	0	33880	
2613	0	33596	
2614	0	33344	
2615	0	33106	
2616	0	32836	
2617	0	32572	
2618	0	32314	
2619	0	32088	
2620	0	31948	
2621	0	31752	
2622	0	31524	
2623	0	31340	
2624	0	31136	
2625	0	30964	
2626	0	30828	
2627	0	30708	
2628	0	30552	
2629	0	30390	
2630	0	30276	
2631	0	30112	
2632	0	29884	
2633	0	29668	
2634	0	29476	
2635	0	29304	
2636	0	29170	
2637	0	29036	
2638	0	28872	
2639	0	28720	
2640	0	28628	
2641	0	28596	
2642	0	28552	
2643	0	28496	
2644	0	28448	
2645	0	28368	
2646	0	28308	
2647	0	28280	
2648	0	28264	
2649	0	28234	
2650	0	28216	
2651	0	28156	
2652	0	28070	
2653	0	27992	
2654	0	27932	
2655	0	27880	
2656	0	27812	
2657	0	27784	
2658	0	27768	
2659	0	27720	
2660	0	27692	
2661	0	27708	
2662	0	27708	
2663	0	27744	
2664	0	27784	
2665	0	27796	
2666	0	27896	
2667	0	27952	
2668	0	27936	
2669	0	27948	
2670	0	27972	
2671	0	27988	
2672	0	28000	
2673	0	28024	
2674	0	28080	
2675	0	28118	
2676	0	28044	
2677	0	28028	
2678	0	28004	
2679	0	27984	
2680	0	28038	
2681	0	28180	
2682	0	28292	
2683	0	28342	
2684	0	28392	
2685	0	28480	
2686	0	28584	
2687	0	28640	
2688	0	28664	
2689	0	28724	
2690	0	28778	
2691	0	28792	
2692	0	28796	
2693	0	28844	
2694	0	28832	
2695	0	28800	
2696	0	28800	
2697	0	28856	
2698	0	28924	
2699	0	28940	
2700	0	28944	
2701	0	28972	
2702	0	29008	
2703	0	29048	
2704	0	29060	
2705	0	29176	
2706	0	29280	
2707	0	29348	
2708	0	29440	
2709	0	29548	
2710	0	29608	
2711	0	29666	
2712	0	29720	
2713	0	29754	
2714	0	29752	
2715	0	29796	
2716	0	29840	
2717	0	29858	
2718	0	29888	
2719	0	29876	
2720	0	29884	
2721	0	29912	
2722	0	29944	
2723	0	30016	
2724	0	30124	
2725	0	30214	
2726	0	30276	
2727	0	30372	
2728	0	30440	
2729	0	30484	
2730	0	30488	
2731	0	30480	
2732	0	30456	
2733	0	30400	
2734	0	30380	
2735	0	30356	
2736	0	30362	
2737	0	30376	
2738	0	30416	
2739	0	30464	
2740	0	30480	
2741	0	30528	
2742	0	30628	
2743	0	30724	
2744	0	30788	
2745	0	30876	
2746	0	30932	
2747	0	30928	
2748	0	30948	
2749	0	30976	
2750	0	30984	
2751	0	30960	
2752	0	30904	
2753	0	30848	
2754	0	30816	
2755	0	30776	
2756	0	30736	
2757	0	30754	
2758	0	30804	
2759	0	30850	
2760	0	30920	
2761	0	30944	
2762	0	30976	
2763	0	31010	
2764	0	31060	
2765	0	31152	
2766	0	31266	
2767	0	31336	
2768	0	31376	
2769	0	31424	
2770	0	31420	
2771	0	31448	
2772	0	31472	
2773	0	31466	
2774	0	31450	
2775	0	31392	
2776	0	31328	
2777	0	31290	
2778	0	31288	
2779	0	31296	
2780	0	31348	
2781	0	31400	
2782	0	31428	
2783	0	31432	
2784	0	31468	
2785	0	31480	
2786	0	31512	
2787	0	31528	
2788	0	31552	
2789	0	31588	
2790	0	31612	
2791	0	31644	
2792	0	31640	
2793	0	31604	
2794	0	31584	
2795	0	31602	
2796	0	31536	
2797	0	31468	
2798	0	31460	
2799	0	31448	
2800	0	31476	
2801	0	31468	
2802	0	31500	
2803	0	31528	
2804	0	31572	
2805	0	31616	
2806	0	31652	
2807	0	31692	
2808	0	31724	
2809	0	31724	
2810	0	31736	
2811	0	31736	
2812	0	31712	
2813	0	31700	
2814	0	31656	
2815	0	31600	
2816	0	31528	
2817	0	31488	
2818	0	31466	
2819	0	31448	
2820	0	31432	
2821	0	31456	
2822	0	31488	
2823	0	31520	
2824	0	31584	
2825	0	31624	
2826	0	31644	
2827	0	31646	
2828	0	31604	
2829	0	31596	
2830	0	31604	
2831	0	31672	
2832	0	31734	
2833	0	31696	
2834	0	31660	
2835	0	31614	
2836	0	31572	
2837	0	31544	
2838	0	31572	
2839	0	31564	
2840	0	31524	
2841	0	31552	
2842	0	31620	
2843	0	31656	
2844	0	31696	
2845	0	31722	
2846	0	31776	
2847	0	31828	
2848	0	31808	
2849	0	31768	
2850	0	31832	
2851	0	31944	
2852	0	31930	
2853	0	31844	
2854	0	31780	
2855	0	31692	
2856	0	31660	
2857	0	31648	
2858	0	31614	
2859	0	31582	
2860	0	31560	
2861	0	31592	
2862	0	31640	
2863	0	31712	
2864	0	31828	
2865	0	31928	
2866	0	32008	
2867	0	32108	
2868	0	32172	
2869	0	32184	
2870	0	32188	
2871	0	32208	
2872	0	32224	
2873	0	32176	
2874	0	32104	
2875	0	32020	
2876	0	31944	
2877	0	31920	
2878	0	31908	
2879	0	31912	
2880	0	31926	
2881	0	31952	
2882	0	31996	
2883	0	32048	
2884	0	32064	
2885	0	32064	
2886	0	32104	
2887	0	32176	
2888	0	32218	
2889	0	32276	
2890	0	32332	
2891	0	32328	
2892	0	32240	
2893	0	32212	
2894	0	32204	
2895	0	32136	
2896	0	32096	
2897	0	32060	
2898	0	32048	
2899	0	32088	
2900	0	32112	
2901	0	32104	
2902	0	32124	
2903	0	32136	
2904	0	32160	
2905	0	32252	
2906	0	32312	
2907	0	32296	
2908	0	32312	
2909	0	32388	
2910	0	32416	
2911	0	32424	
2912	0	32396	
2913	0	32380	
2914	0	32336	
2915	0	32280	
2916	0	32216	
2917	0	32192	
2918	0	32118	
2919	0	32108	
2920	0	32132	
2921	0	32204	
2922	0	32240	
2923	0	32260	
2924	0	32288	
2925	0	32312	
2926	0	32372	
2927	0	32400	
2928	0	32448	
2929	0	32484	
2930	0	32542	
2931	0	32553	
2932	0	32508	
2933	0	32464	
2934	0	32480	
2935	0	32476	
2936	0	32400	
2937	0	32398	
2938	0	32368	
2939	0	32280	
2940	0	32202	
2941	0	32192	
2942	0	32256	
2943	0	32336	
2944	0	32380	
2945	0	32424	
2946	0	32458	
2947	0	32484	
2948	0	32460	
2949	0	32528	
2950	0	32608	
2951	0	32620	
2952	0	32616	
2953	0	32560	
2954	0	32568	
2955	0	32544	
2956	0	32432	
2957	0	32352	
2958	0	32332	
2959	0	32288	
2960	0	32240	
2961	0	32288	
2962	0	32332	
2963	0	32360	
2964	0	32386	
2965	0	32412	
2966	0	32480	
2967	0	32552	
2968	0	32660	
2969	0	32724	
2970	0	32704	
2971	0	32680	
2972	0	32636	
2973	0	32576	
2974	0	32536	
2975	0	32432	
2976	0	32354	
2977	0	32328	
2978	0	32256	
2979	0	32216	
2980	0	32280	
2981	0	32364	
2982	0	32440	
2983	0	32520	
2984	0	32556	
2985	0	32612	
2986	0	32664	
2987	0	32716	
2988	0	32712	
2989	0	32736	
2990	0	32756	
2991	0	32744	
2992	0	32672	
2993	0	32602	
2994	0	32604	
2995	0	32628	
2996	0	32616	
2997	0	32580	
2998	0	32540	
2999	0	32496	
3000	0	32448	
3001	0	32440	
3002	0	32448	
3003	0	32480	
3004	0	32528	
3005	0	32580	
3006	0	32684	
3007	0	32706	
3008	0	32748	
3009	0	32832	
3010	0	32890	
3011	0	32868	
3012	0	32876	
3013	0	32858	
3014	0	32796	
3015	0	32756	
3016	0	32776	
3017	0	32768	
3018	0	32732	
3019	0	32712	
3020	0	32724	
3021	0	32772	
3022	0	32836	
3023	0	32876	
3024	0	32896	
3025	0	32892	
3026	0	32912	
3027	0	32948	
3028	0	33012	
3029	0	33056	
3030	0	33122	
3031	0	33160	
3032	0	33056	
3033	0	32988	
3034	0	32976	
3035	0	32984	
3036	0	32996	
3037	0	32996	
3038	0	32960	
3039	0	32976	
3040	0	32992	
3041	0	33012	
3042	0	33088	
3043	0	33192	
3044	0	33248	
3045	0	33296	
3046	0	33376	
3047	0	33472	
3048	0	33556	
3049	0	33616	
3050	0	33704	
3051	0	33748	
3052	0	33720	
3053	0	33728	
3054	0	33740	
3055	0	33722	
3056	0	33696	
3057	0	33676	
3058	0	33584	
3059	0	33504	
3060	0	33440	
3061	0	33432	
3062	0	33444	
3063	0	33496	
3064	0	33508	
3065	0	33608	
3066	0	33712	
3067	0	33816	
3068	0	34000	
3069	0	34216	
3070	0	34476	
3071	0	34736	
3072	0	35044	
3073	0	35280	
3074	0	35412	
3075	0	35518	
3076	0	35616	
3077	0	35704	
3078	0	35828	
3079	0	35868	
3080	0	35852	
3081	0	35828	
3082	0	35772	
3083	0	35696	
3084	0	35624	
3085	0	35556	
3086	0	35496	
3087	0	35408	
3088	0	35264	
3089	0	35148	
3090	0	35044	
3091	0	34936	
3092	0	34788	
3093	0	34584	
3094	0	34344	
3095	0	34204	
3096	0	34072	
3097	0	33908	
3098	0	33728	
3099	0	33564	
3100	0	33392	
3101	0	33320	
3102	0	33336	
3103	0	33360	
3104	0	33340	
3105	0	33324	
3106	0	33312	
3107	0	33244	
3108	0	33216	
3109	0	33220	
3110	0	33180	
3111	0	33056	
3112	0	32888	
3113	0	32704	
3114	0	32608	
3115	0	32524	
3116	0	32412	
3117	0	32248	
3118	0	32032	
3119	0	31872	
3120	0	31800	
3121	0	31688	
3122	0	31620	
3123	0	31556	
3124	0	31516	
3125	0	31524	
3126	0	31528	
3127	0	31552	
3128	0	31578	
3129	0	31584	
3130	0	31600	
3131	0	31636	
3132	0	31716	
3133	0	31714	
3134	0	31680	
3135	0	31656	
3136	0	31520	
3137	0	31440	
3138	0	31480	
3139	0	31464	
3140	0	31424	
3141	0	31456	
3142	0	31468	
3143	0	31466	
3144	0	31520	
3145	0	31596	
3146	0	31764	
3147	0	31866	
3148	0	31860	
3149	0	31956	
3150	0	32032	
3151	0	31984	
3152	0	31812	
3153	0	31808	
3154	0	31812	
3155	0	31796	
3156	0	31712	
3157	0	31708	
3158	0	31756	
3159	0	31728	
3160	0	31656	
3161	0	31600	
3162	0	31580	
3163	0	31568	
3164	0	31556	
3165	0	31476	
3166	0	31272	
3167	0	30916	
3168	0	30388	
3169	0	29672	
3170	0	29036	
3171	0	28570	
3172	0	28272	
3173	0	28168	
3174	0	28238	
3175	0	28512	
3176	0	28928	
3177	0	29588	
3178	0	30504	
3179	0	31612	
3180	0	32836	
3181	0	34292	
3182	0	35776	
3183	0	37348	
3184	0	39348	
3185	0	41780	
3186	0	44512	
3187	0	47608	
3188	0	50860	
3189	0	53988	
3190	0	57072	
3191	0	60188	
3192	0	62800	
3193	0	64224	
3194	0	64920	
3195	0	65272	
3196	0	65392	
3197	0	65400	
3198	0	65336	
3199	0	65244	
3200	0	65136	
3201	0	65016	
3202	0	63168	
3203	0	57920	
3204	0	53620	
3205	0	50064	
3206	0	46940	
3207	0	44340	
3208	0	41944	
3209	0	39720	
3210	0	37676	
3211	0	35768	
3212	0	33900	
3213	0	32124	
3214	0	30676	
3215	0	29504	
3216	0	28549	
3217	0	27892	
3218	0	27528	
3219	0	27348	
3220	0	27216	
3221	0	27044	
3222	0	26832	
3223	0	26684	
3224	0	26560	
3225	0	26568	
3226	0	26762	
3227	0	26984	
3228	0	27200	
3229	0	27460	
3230	0	27712	
3231	0	27972	
3232	0	28164	
3233	0	28336	
3234	0	28564	
3235	0	28696	
3236	0	28696	
3237	0	28648	
3238	0	28654	
3239	0	28648	
3240	0	28640	
3241	0	28648	
3242	0	28688	
3243	0	28692	
3244	0	28688	
3245	0	28752	
3246	0	28816	
3247	0	28900	
3248	0	28936	
3249	0	28980	
3250	0	28986	
3251	0	28972	
3252	0	28960	
3253	0	28984	
3254	0	29008	
3255	0	29032	
3256	0	29044	
3257	0	28992	
3258	0	28972	
3259	0	29044	
3260	0	29082	
3261	0	29092	
3262	0	29172	
3263	0	29220	
3264	0	29264	
3265	0	29360	
3266	0	29468	
3267	0	29538	
3268	0	29608	
3269	0	29664	
3270	0	29732	
3271	0	29812	
3272	0	29860	
3273	0	29888	
3274	0	29896	
3275	0	29824	
3276	0	29804	
3277	0	29832	
3278	0	29860	
3279	0	29892	
3280	0	29920	
3281	0	30024	
3282	0	30160	
3283	0	30236	
3284	0	30328	
3285	0	30380	
3286	0	30460	
3287	0	30512	
3288	0	30544	
3289	0	30560	
3290	0	30628	
3291	0	30680	
3292	0	30672	
3293	0	30680	
3294	0	30704	
3295	0	30736	
3296	0	30784	
3297	0	30808	
3298	0	30812	
3299	0	30848	
3300	0	30886	
3301	0	30980	
3302	0	31104	
3303	0	31228	
3304	0	31328	
3305	0	31390	
3306	0	31408	
3307	0	31424	
3308	0	31488	
3309	0	31536	
3310	0	31552	
3311	0	31588	
3312	0	31632	
3313	0	31644	
3314	0	31672	
3315	0	31712	
3316	0	31680	
3317	0	31608	
3318	0	31528	
3319	0	31504	
3320	0	31522	
3321	0	31576	
3322	0	31648	
3323	0	31788	
3324	0	31912	
3325	0	32034	
3326	0	32088	
3327	0	32180	
3328	0	32288	
3329	0	32360	
3330	0	32472	
3331	0	32552	
3332	0	32536	
3333	0	32536	
3334	0	32524	
3335	0	32514	
3336	0	32488	
3337	0	32500	
3338	0	32476	
3339	0	32452	
3340	0	32472	
3341	0	32512	
3342	0	32604	
3343	0	32688	
3344	0	32816	
3345	0	32946	
3346	0	33128	
3347	0	33296	
3348	0	33460	
3349	0	33580	
3350	0	33624	
3351	0	33648	
3352	0	33680	
3353	0	33712	
3354	0	33748	
3355	0	33708	
3356	0	33692	
3357	0	33728	
3358	0	33748	
3359	0	33752	
3360	0	33780	
3361	0	33884	
3362	0	33988	
3363	0	34112	
3364	0	34256	
3365	0	34384	
3366	0	34456	
3367	0	34532	
3368	0	34624	
3369	0	34724	
3370	0	34808	
3371	0	34888	
3372	0	34924	
3373	0	34956	
3374	0	34992	
3375	0	35076	
3376	0	35114	
3377	0	35156	
3378	0	35200	
3379	0	35296	
3380	0	35404	
3381	0	35528	
3382	0	35636	
3383	0	35764	
3384	0	35820	
3385	0	35964	
3386	0	36152	
3387	0	36288	
3388	0	36392	
3389	0	36504	
3390	0	36624	
3391	0	36748	
3392	0	36856	
3393	0	36952	
3394	0	37020	
3395	0	37084	
3396	0	37100	
3397	0	37168	
3398	0	37264	
3399	0	37376	
3400	0	37456	
3401	0	37564	
3402	0	37696	
3403	0	37800	
3404	0	37888	
3405	0	37968	
3406	0	38080	
3407	0	38184	
3408	0	38320	
3409	0	38440	
3410	0	38560	
3411	0	38660	
3412	0	38720	
3413	0	38704	
3414	0	38680	
3415	0	38652	
3416	0	38676	
3417	0	38672	
3418	0	38600	
3419	0	38592	
3420	0	38588	
3421	0	38556	
3422	0	38544	
3423	0	38596	
3424	0	38644	
3425	0	38660	
3426	0	38728	
3427	0	38852	
3428	0	38936	
3429	0	38952	
3430	0	38940	
3431	0	38908	
3432	0	38880	
3433	0	38792	
3434	0	38728	
3435	0	38624	
3436	0	38484	
3437	0	38336	
3438	0	38276	
3439	0	38208	
3440	0	38128	
3441	0	38004	
3442	0	37868	
3443	0	37756	
3444	0	37644	
3445	0	37548	
3446	0	37440	
3447	0	37352	
3448	0	37216	
3449	0	37028	
3450	0	36808	
3451	0	36560	
3452	0	36352	
3453	0	36144	
3454	0	35890	
3455	0	35600	
3456	0	35284	
3457	0	34928	
3458	0	34604	
3459	0	34308	
3460	0	34034	
3461	0	33784	
3462	0	33548	
3463	0	33348	
3464	0	33168	
3465	0	32956	
3466	0	32768	
3467	0	32590	
3468	0	32388	
3469	0	32184	
3470	0	31952	
3471	0	31736	
3472	0	31528	
3473	0	31272	
3474	0	30984	
3475	0	30762	
3476	0	30504	
3477	0	30228	
3478	0	30016	
3479	0	29852	
3480	0	29684	
3481	0	29584	
3482	0	29504	
3483	0	29424	
3484	0	29312	
3485	0	29208	
3486	0	29140	
3487	0	29050	
3488	0	28968	
3489	0	28848	
3490	0	28728	
3491	0	28602	
3492	0	28546	
3493	0	28512	
3494	0	28442	
3495	0	28324	
3496	0	28176	
3497	0	28104	
3498	0	28040	
3499	0	27998	
3500	0	27952	
3501	0	27924	
3502	0	27960	
3503	0	27998	
3504	0	28072	
3505	0	28120	
3506	0	28152	
3507	0	28140	
3508	0	28114	
3509	0	28148	
3510	0	28186	
3511	0	28208	
3512	0	28192	
3513	0	28188	
3514	0	28148	
3515	0	28120	
3516	0	28081	
3517	0	28058	
3518	0	28032	
3519	0	28050	
3520	0	28096	
3521	0	28140	
3522	0	28186	
3523	0	28248	
3524	0	28320	
3525	0	28406	
3526	0	28512	
3527	0	28624	
3528	0	28716	
3529	0	28748	
3530	0	28834	
3531	0	28876	
3532	0	28924	
3533	0	28884	
3534	0	28860	
3535	0	28876	
3536	0	28896	
3537	0	28892	
3538	0	28848	
3539	0	28836	
3540	0	28900	
3541	0	28988	
3542	0	29040	
3543	0	29108	
3544	0	29200	
3545	0	29292	
3546	0	29408	
3547	0	29528	
3548	0	29604	
3549	0	29664	
3550	0	29760	
3551	0	29824	
3552	0	29888	
3553	0	29952	
3554	0	29984	
3555	0	29964	
3556	0	29956	
3557	0	29920	
3558	0	29954	
3559	0	29980	
3560	0	29928	
3561	0	29940	
3562	0	29978	
3563	0	30020	
3564	0	30044	
3565	0	30056	
3566	0	30103	
3567	0	30180	
3568	0	30312	
3569	0	30456	
3570	0	30590	
3571	0	30656	
3572	0	30712	
3573	0	30744	
3574	0	30728	
3575	0	30712	
3576	0	30696	
3577	0	30640	
3578	0	30584	
3579	0	30536	
3580	0	30500	
3581	0	30540	
3582	0	30568	
3583	0	30664	
3584	0	30766	
3585	0	30812	
3586	0	30824	
3587	0	30908	
3588	0	30960	
3589	0	30984	
3590	0	31044	
3591	0	31080	
3592	0	31116	
3593	0	31106	
3594	0	31088	
3595	0	31020	
3596	0	30996	
3597	0	30976	
3598	0	30952	
3599	0	30976	
3600	0	31028	
3601	0	31032	
3602	0	31044	
3603	0	31128	
3604	0	31202	
3605	0	31232	
3606	0	31266	
3607	0	31316	
3608	0	31336	
3609	0	31396	
3610	0	31472	
3611	0	31532	
3612	0	31576	
3613	0	31586	
3614	0	31594	
3615	0	31580	
3616	0	31532	
3617	0	31464	
3618	0	31408	
3619	0	31376	
3620	0	31392	
3621	0	31416	
3622	0	31444	
3623	0	31536	
3624	0	31578	
3625	0	31608	
3626	0	31672	
3627	0	31772	
3628	0	31860	
3629	0	31968	
3630	0	32056	
3631	0	32048	
3632	0	31984	
3633	0	31908	
3634	0	31856	
3635	0	31768	
3636	0	31672	
3637	0	31604	
3638	0	31540	
3639	0	31500	
3640	0	31464	
3641	0	31460	
3642	0	31480	
3643	0	31572	
3644	0	31608	
3645	0	31640	
3646	0	31712	
3647	0	31768	
3648	0	31848	
3649	0	31896	
3650	0	31936	
3651	0	31948	
3652	0	31936	
3653	0	31914	
3654	0	31860	
3655	0	31780	
3656	0	31712	
3657	0	31656	
3658	0	31600	
3659	0	31548	
3660	0	31496	
3661	0	31480	
3662	0	31484	
3663	0	31540	
3664	0	31564	
3665	0	31570	
3666	0	31604	
3667	0	31680	
3668	0	31712	
3669	0	31744	
3670	0	31776	
3671	0	31788	
3672	0	31800	
3673	0	31776	
3674	0	31662	
3675	0	31620	
3676	0	31624	
3677	0	31616	
3678	0	31600	
3679	0	31568	
3680	0	31546	
3681	0	31520	
3682	0	31528	
3683	0	31520	
3684	0	31548	
3685	0	31612	
3686	0	31692	
3687	0	31728	
3688	0	31788	
3689	0	31852	
3690	0	31882	
3691	0	31844	
3692	0	31816	
3693	0	31792	
3694	0	31750	
3695	0	31680	
3696	0	31660	
3697	0	31688	
3698	0	31652	
3699	0	31592	
3700	0	31588	
3701	0	31632	
3702	0	31648	
3703	0	31712	
3704	0	31796	
3705	0	31864	
3706	0	31948	
3707	0	32048	
3708	0	32112	
3709	0	32172	
3710	0	32208	
3711	0	32234	
3712	0	32244	
3713	0	32224	
3714	0	32188	
3715	0	32120	
3716	0	32068	
3717	0	32036	
3718	0	31960	
3719	0	31888	
3720	0	31872	
3721	0	31896	
3722	0	31920	
3723	0	31912	
3724	0	31920	
3725	0	31972	
3726	0	31992	
3727	0	32012	
3728	0	32060	
3729	0	32104	
3730	0	32116	
3731	0	32112	
3732	0	32096	
3733	0	32084	
3734	0	32044	
3735	0	32024	
3736	0	32036	
3737	0	32028	
3738	0	32016	
3739	0	32024	
3740	0	32028	
3741	0	32080	
3742	0	32112	
3743	0	32192	
3744	0	32260	
3745	0	32316	
3746	0	32344	
3747	0	32384	
3748	0	32460	
3749	0	32520	
3750	0	32600	
3751	0	32604	
3752	0	32552	
3753	0	32444	
3754	0	32346	
3755	0	32256	
3756	0	32200	
3757	0	32168	
3758	0	32164	
3759	0	32164	
3760	0	32116	
3761	0	32112	
3762	0	32136	
3763	0	32240	
3764	0	32360	
3765	0	32452	
3766	0	32472	
3767	0	32520	
3768	0	32636	
3769	0	32712	
3770	0	32752	
3771	0	32760	
3772	0	32764	
3773	0	32740	
3774	0	32674	
3775	0	32596	
3776	0	32484	
3777	0	32404	
3778	0	32410	
3779	0	32452	
3780	0	32480	
3781	0	32536	
3782	0	32580	
3783	0	32676	
3784	0	32754	
3785	0	32802	
3786	0	32836	
3787	0	32880	
3788	0	32904	
3789	0	32928	
3790	0	32940	
3791	0	32916	
3792	0	32872	
3793	0	32904	
3794	0	32884	
3795	0	32860	
3796	0	32810	
3797	0	32776	
3798	0	32704	
3799	0	32652	
3800	0	32668	
3801	0	32720	
3802	0	32788	
3803	0	32844	
3804	0	32952	
3805	0	33080	
3806	0	33152	
3807	0	33204	
3808	0	33236	
3809	0	33272	
3810	0	33344	
3811	0	33344	
3812	0	33332	
3813	0	33268	
3814	0	33192	
3815	0	33120	
3816	0	33050	
3817	0	33040	
3818	0	33064	
3819	0	33028	
3820	0	32940	
3821	0	32948	
3822	0	33048	
3823	0	33140	
3824	0	33244	
3825	0	33336	
3826	0	33452	
3827	0	33548	
3828	0	33712	
3829	0	33852	
3830	0	33924	
3831	0	33964	
3832	0	33972	
3833	0	33876	
3834	0	33804	
3835	0	33784	
3836	0	33752	
3837	0	33656	
3838	0	33532	
3839	0	33468	
3840	0	33408	
3841	0	33380	
3842	0	33384	
3843	0	33416	
3844	0	33496	
3845	0	33568	
3846	0	33650	
3847	0	33824	
3848	0	34068	
3849	0	34384	
3850	0	34780	
3851	0	35080	
3852	0	35280	
3853	0	35450	
3854	0	35584	
3855	0	35682	
3856	0	35772	
3857	0	35920	
3858	0	36072	
3859	0	36200	
3860	0	36232	
3861	0	36192	
3862	0	36180	
3863	0	36148	
3864	0	36072	
3865	0	35992	
3866	0	35912	
3867	0	35868	
3868	0	35792	
3869	0	35660	
3870	0	35488	
3871	0	35336	
3872	0	35184	
3873	0	35008	
3874	0	34868	
3875	0	34692	
3876	0	34544	
3877	0	34400	
3878	0	34276	
3879	0	34168	
3880	0	34088	
3881	0	33992	
3882	0	33964	
3883	0	33976	
3884	0	33876	
3885	0	33824	
3886	0	33756	
3887	0	33704	
3888	0	33728	
3889	0	33760	
3890	0	33664	
3891	0	33528	
3892	0	33452	
3893	0	33320	
3894	0	33176	
3895	0	33056	
3896	0	32976	
3897	0	32864	
3898	0	32728	
3899	0	32568	
3900	0	32412	
3901	0	32306	
3902	0	32220	
3903	0	32144	
3904	0	32104	
3905	0	32100	
3906	0	32202	
3907	0	32316	
3908	0	32360	
3909	0	32396	
3910	0	32496	
3911	0	32560	
3912	0	32536	
3913	0	32408	
3914	0	32280	
3915	0	32188	
3916	0	32136	
3917	0	32088	
3918	0	32064	
3919	0	32032	
3920	0	32024	
3921	0	32064	
3922	0	32148	
3923	0	32216	
3924	0	32244	
3925	0	32300	
3926	0	32360	
3927	0	32428	
3928	0	32456	
3929	0	32508	
3930	0	32552	
3931	0	32584	
3932	0	32592	
3933	0	32552	
3934	0	32500	
3935	0	32408	
3936	0	32360	
3937	0	32352	
3938	0	32360	
3939	0	32344	
3940	0	32344	
3941	0	32388	
3942	0	32400	
3943	0	32420	
3944	0	32412	
3945	0	32332	
3946	0	32118	
3947	0	31906	
3948	0	31594	
3949	0	31060	
3950	0	30436	
3951	0	29944	
3952	0	29633	
3953	0	29488	
3954	0	29540	
3955	0	29740	
3956	0	30112	
3957	0	30652	
3958	0	31368	
3959	0	32400	
3960	0	33568	
3961	0	34860	
3962	0	36280	
3963	0	37780	
3964	0	39368	
3965	0	41300	
3966	0	43684	
3967	0	46544	
3968	0	49508	
3969	0	52488	
3970	0	55388	
3971	0	58224	
3972	0	61128	
3973	0	63072	
3974	0	64072	
3975	0	64560	
3976	0	64768	
3977	0	64816	
3978	0	64776	
3979	0	64712	
3980	0	64620	
3981	0	64488	
3982	0	61696	
3983	0	56352	
3984	0	51528	
3985	0	47520	
3986	0	44180	
3987	0	41456	
3988	0	39244	
3989	0	37272	
3990	0	35516	
3991	0	33956	
3992	0	32400	
3993	0	30752	
3994	0	29164	
3995	0	27808	
3996	0	26742	
3997	0	26084	
3998	0	25748	
3999	0	25656	
4000	0	25802	
4001	0	25988	
4002	0	26072	
4003	0	26016	
4004	0	26020	
4005	0	26136	
4006	0	26308	
4007	0	26536	
4008	0	26874	
4009	0	27228	
4010	0	27608	
4011	0	27968	
4012	0	28252	
4013	0	28496	
4014	0	28810	
4015	0	29064	
4016	0	29236	
4017	0	29404	
4018	0	29552	
4019	0	29656	
4020	0	29716	
4021	0	29800	
4022	0	29852	
4023	0	29880	
4024	0	29920	
4025	0	29968	
4026	0	30020	
4027	0	30128	
4028	0	30240	
4029	0	30264	
4030	0	30272	
4031	0	30316	
4032	0	30368	
4033	0	30360	
4034	0	30332	
4035	0	30356	
4036	0	30376	
4037	0	30360	
4038	0	30376	
4039	0	30420	
4040	0	30472	
4041	0	30512	
4042	0	30540	
4043	0	30588	
4044	0	30692	
4045	0	30780	
4046	0	30844	
4047	0	30960	
4048	0	31010	
4049	0	31070	
4050	0	31112	
4051	0	31084	
4052	0	31090	
4053	0	31072	
4054	0	31060	
4055	0	31042	
4056	0	31012	
4057	0	30964	
4058	0	30966	
4059	0	31028	
4060	0	31086	
4061	0	31106	
4062	0	31140	
4063	0	31172	
4064	0	31180	
4065	0	31242	
4066	0	31328	
4067	0	31408	
4068	0	31566	
4069	0	31724	
4070	0	31836	
4071	0	31936	
4072	0	31988	
4073	0	31992	
4074	0	31904	
4075	0	31856	
4076	0	31794	
4077	0	31760	
4078	0	31700	
4079	0	31704	
4080	0	31712	
4081	0	31676	
4082	0	31700	
4083	0	31800	
4084	0	31886	
4085	0	32008	
4086	0	32168	
4087	0	32288	
4088	0	32384	
4089	0	32428	
4090	0	32528	
4091	0	32660	
4092	0	32716	
4093	0	32744	
4094	0	32768	
4095	0	32784	
4096	0	32826	
4097	0	32896	
4098	0	32916	
4099	0	32924	
4100	0	32936	
4101	0	32916	
4102	0	32864	
4103	0	32908	
4104	0	32992	
4105	0	33096	
4106	0	33192	
4107	0	33276	
4108	0	33352	
4109	0	33402	
4110	0	33428	
4111	0	33456	
4112	0	33440	
4113	0	33408	
4114	0	33396	
4115	0	33384	
4116	0	33400	
4117	0	33424	
4118	0	33468	
4119	0	33496	
4120	0	33508	
4121	0	33512	
4122	0	33540	
4123	0	33612	
4124	0	33760	
4125	0	33872	
4126	0	33980	
4127	0	34128	
4128	0	34212	
4129	0	34240	
4130	0	34298	
4131	0	34328	
4132	0	34400	
4133	0	34488	
4134	0	34544	
4135	0	34536	
4136	0	34524	
4137	0	34512	
4138	0	34560	
4139	0	34644	
4140	0	34692	
4141	0	34760	
4142	0	34860	
4143	0	34948	
4144	0	35060	
4145	0	35152	
4146	0	35244	
4147	0	35352	
4148	0	35484	
4149	0	35584	
4150	0	35680	
4151	0	35760	
4152	0	35820	
4153	0	35884	
4154	0	35892	
4155	0	35956	
4156	0	36016	
4157	0	36112	
4158	0	36164	
4159	0	36220	
4160	0	36292	
4161	0	36396	
4162	0	36436	
4163	0	36496	
4164	0	36608	
4165	0	36724	
4166	0	36816	
4167	0	36956	
4168	0	37120	
4169	0	37256	
4170	0	37418	
4171	0	37500	
4172	0	37584	
4173	0	37668	
4174	0	37744	
4175	0	37880	
4176	0	37996	
4177	0	38100	
4178	0	38208	
4179	0	38348	
4180	0	38444	
4181	0	38492	
4182	0	38516	
4183	0	38620	
4184	0	38720	
4185	0	38784	
4186	0	38820	
4187	0	38912	
4188	0	38976	
4189	0	38968	
4190	0	38992	
4191	0	39052	
4192	0	39080	
4193	0	39096	
4194	0	39104	
4195	0	39124	
4196	0	39160	
4197	0	39192	
4198	0	39200	
4199	0	39240	
4200	0	39292	
4201	0	39316	
4202	0	39298	
4203	0	39360	
4204	0	39388	
4205	0	39376	
4206	0	39376	
4207	0	39376	
4208	0	39386	
4209	0	39352	
4210	0	39300	
4211	0	39184	
4212	0	39068	
4213	0	39024	
4214	0	38968	
4215	0	38910	
4216	0	38840	
4217	0	38740	
4218	0	38636	
4219	0	38508	
4220	0	38360	
4221	0	38276	
4222	0	38208	
4223	0	38100	
4224	0	38008	
4225	0	37914	
4226	0	37856	
4227	0	37760	
4228	0	37588	
4229	0	37380	
4230	0	37148	
4231	0	36888	
4232	0	36600	
4233	0	36340	
4234	0	36092	
4235	0	35944	
4236	0	35748	
4237	0	35504	
4238	0	35248	
4239	0	35052	
4240	0	34776	
4241	0	34420	
4242	0	34104	
4243	0	33852	
4244	0	33592	
4245	0	33420	
4246	0	33200	
4247	0	33020	
4248	0	32888	
4249	0	32784	
4250	0	32636	
4251	0	32400	
4252	0	32188	
4253	0	31934	
4254	0	31720	
4255	0	31548	
4256	0	31336	
4257	0	31096	
4258	0	30812	
4259	0	30548	
4260	0	30360	
4261	0	30208	
4262	0	30120	
4263	0	30080	
4264	0	29980	
4265	0	29824	
4266	0	29628	
4267	0	29528	
4268	0	29424	
4269	0	29288	
4270	0	29192	
4271	0	29120	
4272	0	29044	
4273	0	28944	
4274	0	28816	
4275	0	28708	
4276	0	28584	
4277	0	28518	
4278	0	28512	
4279	0	28500	
4280	0	28472	
4281	0	28420	
4282	0	28384	
4283	0	28408	
4284	0	28472	
4285	0	28500	
4286	0	28508	
4287	0	28592	
4288	0	28644	
4289	0	28673	
4290	0	28700	
4291	0	28754	
4292	0	28780	
4293	0	28764	
4294	0	28682	
4295	0	28588	
4296	0	28484	
4297	0	28384	
4298	0	28306	
4299	0	28256	
4300	0	28248	
4301	0	28260	
4302	0	28288	
4303	0	28272	
4304	0	28252	
4305	0	28272	
4306	0	28340	
4307	0	28408	
4308	0	28464	
4309	0	28508	
4310	0	28644	
4311	0	28776	
4312	0	28836	
4313	0	28852	
4314	0	28824	
4315	0	28744	
4316	0	28696	
4317	0	28664	
4318	0	28712	
4319	0	28764	
4320	0	28820	
4321	0	28892	
4322	0	28964	
4323	0	29024	
4324	0	29096	
4325	0	29196	
4326	0	29328	
4327	0	29468	
4328	0	29560	
4329	0	29608	
4330	0	29648	
4331	0	29680	
4332	0	29728	
4333	0	29824	
4334	0	29896	
4335	0	29912	
4336	0	29868	
4337	0	29800	
4338	0	29772	
4339	0	29836	
4340	0	29856	
4341	0	29824	
4342	0	29804	
4343	0	29888	
4344	0	30040	
4345	0	30128	
4346	0	30148	
4347	0	30224	
4348	0	30288	
4349	0	30320	
4350	0	30356	
4351	0	30440	
4352	0	30512	
4353	0	30544	
4354	0	30532	
4355	0	30528	
4356	0	30528	
4357	0	30520	
4358	0	30596	
4359	0	30664	
4360	0	30680	
4361	0	30724	
4362	0	30780	
4363	0	30816	
4364	0	30832	
4365	0	30872	
4366	0	30948	
4367	0	31040	
4368	0	31154	
4369	0	31268	
4370	0	31340	
4371	0	31388	
4372	0	31388	
4373	0	31372	
4374	0	31348	
4375	0	31328	
4376	0	31276	
4377	0	31260	
4378	0	31256	
4379	0	31284	
4380	0	31316	
4381	0	31380	
4382	0	31496	
4383	0	31556	
4384	0	31592	
4385	0	31624	
4386	0	31668	
4387	0	31748	
4388	0	31820	
4389	0	31876	
4390	0	31952	
4391	0	32000	
4392	0	32000	
4393	0	31990	
4394	0	31924	
4395	0	31832	
4396	0	31724	
4397	0	31632	
4398	0	31604	
4399	0	31624	
4400	0	31656	
4401	0	31692	
4402	0	31776	
4403	0	31812	
4404	0	31856	
4405	0	31896	
4406	0	31892	
4407	0	31896	
4408	0	31956	
4409	0	32036	
4410	0	32128	
4411	0	32192	
4412	0	32176	
4413	0	32164	
4414	0	32156	
4415	0	32082	
4416	0	31998	
4417	0	31916	
4418	0	31860	
4419	0	31786	
4420	0	31736	
4421	0	31688	
4422	0	31668	
4423	0	31690	
4424	0	31732	
4425	0	31768	
4426	0	31792	
4427	0	31880	
4428	0	31996	
4429	0	32076	
4430	0	32104	
4431	0	32040	
4432	0	31948	
4433	0	31884	
4434	0	31802	
4435	0	31648	
4436	0	31548	
4437	0	31538	
4438	0	31524	
4439	0	31536	
4440	0	31600	
4441	0	31674	
4442	0	31728	
4443	0	31748	
4444	0	31740	
4445	0	31792	
4446	0	31872	
4447	0	31968	
4448	0	31960	
4449	0	31972	
4450	0	32044	
4451	0	32084	
4452	0	32032	
4453	0	31936	
4454	0	31912	
4455	0	31828	
4456	0	31712	
4457	0	31564	
4458	0	31464	
4459	0	31368	
4460	0	31308	
4461	0	31300	
4462	0	31336	
4463	0	31404	
4464	0	31468	
4465	0	31540	
4466	0	31600	
4467	0	31624	
4468	0	31668	
4469	0	31728	
4470	0	31776	
4471	0	31784	
4472	0	31768	
4473	0	31700	
4474	0	31624	
4475	0	31588	
4476	0	31588	
4477	0	31512	
4478	0	31440	
4479	0	31440	
4480	0	31480	
4481	0	31524	
4482	0	31556	
4483	0	31608	
4484	0	31604	
4485	0	31600	
4486	0	31600	
4487	0	31592	
4488	0	31648	
4489	0	31732	
4490	0	31866	
4491	0	31960	
4492	0	31980	
4493	0	31984	
4494	0	31954	
4495	0	31900	
4496	0	31812	
4497	0	31720	
4498	0	31692	
4499	0	31704	
4500	0	31688	
4501	0	31680	
4502	0	31740	
4503	0	31788	
4504	0	31748	
4505	0	31806	
4506	0	31844	
4507	0	31884	
4508	0	31944	
4509	0	32034	
4510	0	32176	
4511	0	32284	
4512	0	32368	
4513	0	32458	
4514	0	32528	
4515	0	32616	
4516	0	32652	
4517	0	32660	
4518	0	32688	
4519	0	32672	
4520	0	32640	
4521	0	32624	
4522	0	32596	
4523	0	32616	
4524	0	32720	
4525	0	32796	
4526	0	32768	
4527	0	32720	
4528	0	32752	
4529	0	32786	
4530	0	32764	
4531	0	32784	
4532	0	32844	
4533	0	32928	
4534	0	32992	
4535	0	33024	
4536	0	33052	
4537	0	33116	
4538	0	33248	
4539	0	33452	
4540	0	33680	
4541	0	33880	
4542	0	34104	
4543	0	34296	
4544	0	34508	
4545	0	34704	
4546	0	34928	
4547	0	35066	
4548	0	35152	
4549	0	35224	
4550	0	35274	
4551	0	35280	
4552	0	35152	
4553	0	34940	
4554	0	34794	
4555	0	34708	
4556	0	34580	
4557	0	34400	
4558	0	34136	
4559	0	33888	
4560	0	33684	
4561	0	33552	
4562	0	33456	
4563	0	33372	
4564	0	33316	
4565	0	33220	
4566	0	33112	
4567	0	32994	
4568	0	32932	
4569	0	32896	
4570	0	32886	
4571	0	32856	
4572	0	32736	
4573	0	32596	
4574	0	32460	
4575	0	32352	
4576	0	32288	
4577	0	32248	
4578	0	32168	
4579	0	32068	
4580	0	31948	
4581	0	31884	
4582	0	31820	
4583	0	31810	
4584	0	31824	
4585	0	31804	
4586	0	31740	
4587	0	31676	
4588	0	31612	
4589	0	31500	
4590	0	31350	
4591	0	31288	
4592	0	31288	
4593	0	31256	
4594	0	31154	
4595	0	31032	
4596	0	31008	
4597	0	30948	
4598	0	30844	
4599	0	30696	
4600	0	30632	
4601	0	30608	
4602	0	30632	
4603	0	30688	
4604	0	30800	
4605	0	30912	
4606	0	31020	
4607	0	31100	
4608	0	31168	
4609	0	31232	
4610	0	31274	
4611	0	31320	
4612	0	31336	
4613	0	31328	
4614	0	31312	
4615	0	31282	
4616	0	31202	
4617	0	31162	
4618	0	31168	
4619	0	31148	
4620	0	31112	
4621	0	31032	
4622	0	30976	
4623	0	31008	
4624	0	31072	
4625	0	31168	
4626	0	31304	
4627	0	31444	
4628	0	31552	
4629	0	31588	
4630	0	31572	
4631	0	31516	
4632	0	31464	
4633	0	31492	
4634	0	31560	
4635	0	31584	
4636	0	31504	
4637	0	31282	
4638	0	30876	
4639	0	30340	
4640	0	29680	
4641	0	29178	
4642	0	28820	
4643	0	28660	
4644	0	28660	
4645	0	28820	
4646	0	29204	
4647	0	29784	
4648	0	30648	
4649	0	31732	
4650	0	32924	
4651	0	34232	
4652	0	35586	
4653	0	36996	
4654	0	38528	
4655	0	40288	
4656	0	42368	
4657	0	44880	
4658	0	47580	
4659	0	50312	
4660	0	53056	
4661	0	55784	
4662	0	58560	
4663	0	61184	
4664	0	62768	
4665	0	63552	
4666	0	63948	
4667	0	64096	
4668	0	64120	
4669	0	64072	
4670	0	64000	
4671	0	62452	
4672	0	56720	
4673	0	51192	
4674	0	46008	
4675	0	41666	
4676	0	38244	
4677	0	35540	
4678	0	33532	
4679	0	32036	
4680	0	30892	
4681	0	29952	
4682	0	29120	
4683	0	28224	
4684	0	27224	
4685	0	26288	
4686	0	25482	
4687	0	24896	
4688	0	24640	
4689	0	24604	
4690	0	24696	
4691	0	24876	
4692	0	24956	
4693	0	24948	
4694	0	24964	
4695	0	25024	
4696	0	25196	
4697	0	25464	
4698	0	25758	
4699	0	26056	
4700	0	26380	
4701	0	26716	
4702	0	27076	
4703	0	27468	
4704	0	27868	
4705	0	28268	
4706	0	28712	
4707	0	29108	
4708	0	29404	
4709	0	29616	
4710	0	29772	
4711	0	29848	
4712	0	29924	
4713	0	30032	
4714	0	30092	
4715	0	30120	
4716	0	30120	
4717	0	30068	
4718	0	30064	
4719	0	30084	
4720	0	30072	
4721	0	30074	
4722	0	30100	
4723	0	30152	
4724	0	30256	
4725	0	30364	
4726	0	30512	
4727	0	30584	
4728	0	30680	
4729	0	30684	
4730	0	30636	
4731	0	30596	
4732	0	30568	
4733	0	30552	
4734	0	30556	
4735	0	30616	
4736	0	30652	
4737	0	30668	
4738	0	30640	
4739	0	30626	
4740	0	30632	
4741	0	30676	
4742	0	30720	
4743	0	30786	
4744	0	30920	
4745	0	30992	
4746	0	31048	
4747	0	31084	
4748	0	31164	
4749	0	31252	
4750	0	31292	
4751	0	31348	
4752	0	31412	
4753	0	31432	
4754	0	31428	
4755	0	31456	
4756	0	31496	
4757	0	31516	
4758	0	31528	
4759	0	31568	
4760	0	31628	
4761	0	31712	
4762	0	31776	
4763	0	31812	
4764	0	31852	
4765	0	31900	
4766	0	31968	
4767	0	32000	
4768	0	32032	
4769	0	32092	
4770	0	32160	
4771	0	32244	
4772	0	32272	
4773	0	32300	
4774	0	32292	
4775	0	32256	
4776	0	32220	
4777	0	32180	
4778	0	32184	
4779	0	32228	
4780	0	32240	
4781	0	32200	
4782	0	32180	
4783	0	32256	
4784	0	32380	
4785	0	32544	
4786	0	32648	
4787	0	32756	
4788	0	32844	
4789	0	32888	
4790	0	32932	
4791	0	32916	
4792	0	32896	
4793	0	32912	
4794	0	32964	
4795	0	33012	
4796	0	33026	
4797	0	33080	
4798	0	33112	
4799	0	33152	
4800	0	33144	
4801	0	33172	
4802	0	33240	
4803	0	33248	
4804	0	33236	
4805	0	33228	
4806	0	33224	
4807	0	33280	
4808	0	33336	
4809	0	33368	
4810	0	33440	
4811	0	33536	
4812	0	33636	
4813	0	33688	
4814	0	33728	
4815	0	33736	
4816	0	33688	
4817	0	33640	
4818	0	33668	
4819	0	33676	
4820	0	33728	
4821	0	33776	
4822	0	33856	
4823	0	33948	
4824	0	34040	
4825	0	34144	
4826	0	34212	
4827	0	34316	
4828	0	34432	
4829	0	34498	
4830	0	34568	
4831	0	34636	
4832	0	34740	
4833	0	34756	
4834	0	34756	
4835	0	34780	
4836	0	34836	
4837	0	34912	
4838	0	34952	
4839	0	35004	
4840	0	35080	
4841	0	35168	
4842	0	35232	
4843	0	35302	
4844	0	35422	
4845	0	35552	
4846	0	35664	
4847	0	35796	
4848	0	35944	
4849	0	36108	
4850	0	36272	
4851	0	36408	
4852	0	36464	
4853	0	36512	
4854	0	36584	
4855	0	36704	
4856	0	36792	
4857	0	36856	
4858	0	36866	
4859	0	36832	
4860	0	36900	
4861	0	36992	
4862	0	37096	
4863	0	37244	
4864	0	37416	
4865	0	37588	
4866	0	37740	
4867	0	37912	
4868	0	38032	
4869	0	38140	
4870	0	38224	
4871	0	38316	
4872	0	38440	
4873	0	38520	
4874	0	38588	
4875	0	38640	
4876	0	38672	
4877	0	38656	
4878	0	38706	
4879	0	38772	
4880	0	38828	
4881	0	38872	
4882	0	38888	
4883	0	38948	
4884	0	39040	
4885	0	39100	
4886	0	39128	
4887	0	39200	
4888	0	39248	
4889	0	39228	
4890	0	39208	
4891	0	39180	
4892	0	39136	
4893	0	39100	
4894	0	39060	
4895	0	38996	
4896	0	38964	
4897	0	38908	
4898	0	38836	
4899	0	38756	
4900	0	38716	
4901	0	38720	
4902	0	38652	
4903	0	38556	
4904	0	38500	
4905	0	38436	
4906	0	38372	
4907	0	38340	
4908	0	38316	
4909	0	38216	
4910	0	38128	
4911	0	38064	
4912	0	37904	
4913	0	37676	
4914	0	37392	
4915	0	37128	
4916	0	36884	
4917	0	36644	
4918	0	36378	
4919	0	36092	
4920	0	35796	
4921	0	35472	
4922	0	35156	
4923	0	34920	
4924	0	34704	
4925	0	34540	
4926	0	34386	
4927	0	34176	
4928	0	33886	
4929	0	33632	
4930	0	33396	
4931	0	33186	
4932	0	32948	
4933	0	32700	
4934	0	32416	
4935	0	32136	
4936	0	31904	
4937	0	31668	
4938	0	31436	
4939	0	31224	
4940	0	30952	
4941	0	30712	
4942	0	30480	
4943	0	30276	
4944	0	30074	
4945	0	29980	
4946	0	29868	
4947	0	29764	
4948	0	29676	
4949	0	29580	
4950	0	29484	
4951	0	29320	
4952	0	29168	
4953	0	29036	
4954	0	28876	
4955	0	28668	
4956	0	28476	
4957	0	28328	
4958	0	28244	
4959	0	28172	
4960	0	28032	
4961	0	27864	
4962	0	27778	
4963	0	27744	
4964	0	27728	
4965	0	27724	
4966	0	27764	
4967	0	27808	
4968	0	27784	
4969	0	27812	
4970	0	27888	
4971	0	27912	
4972	0	27908	
4973	0	27888	
4974	0	27860	
4975	0	27780	
4976	0	27684	
4977	0	27568	
4978	0	27536	
4979	0	27564	
4980	0	27580	
4981	0	27584	
4982	0	27604	
4983	0	27632	
4984	0	27722	
4985	0	27770	
4986	0	27816	
4987	0	27908	
4988	0	27984	
4989	0	27994	
4990	0	28012	
4991	0	27992	
4992	0	27988	
4993	0	27952	
4994	0	27888	
4995	0	27852	
4996	0	27836	
4997	0	27800	
4998	0	27788	
4999	0	27856	
5000	0	27930	
5001	0	27986	
5002	0	28000	
5003	0	28032	
5004	0	28072	
5005	0	28144	
5006	0	28200	
5007	0	28248	
5008	0	28356	
5009	0	28456	
5010	0	28512	
5011	0	28516	
5012	0	28540	
5013	0	28576	
5014	0	28572	
5015	0	28548	
5016	0	28580	
5017	0	28672	
5018	0	28732	
5019	0	28746	
5020	0	28740	
5021	0	28740	
5022	0	28792	
5023	0	28860	
5024	0	28948	
5025	0	29028	
5026	0	29120	
5027	0	29208	
5028	0	29252	
5029	0	29292	
5030	0	29388	
5031	0	29476	
5032	0	29536	
5033	0	29568	
5034	0	29618	
5035	0	29596	
5036	0	29488	
5037	0	29408	
5038	0	29448	
5039	0	29470	
5040	0	29500	
5041	0	29544	
5042	0	29600	
5043	0	29708	
5044	0	29816	
5045	0	29892	
5046	0	29964	
5047	0	30040	
5048	0	30116	
5049	0	30200	
5050	0	30278	
5051	0	30320	
5052	0	30306	
5053	0	30284	
5054	0	30288	
5055	0	30292	
5056	0	30304	
5057	0	30300	
5058	0	30316	
5059	0	30352	
5060	0	30380	
5061	0	30360	
5062	0	30328	
5063	0	30340	
5064	0	30368	
5065	0	30396	
5066	0	30466	
5067	0	30536	
5068	0	30636	
5069	0	30732	
5070	0	30820	
5071	0	30852	
5072	0	30832	
5073	0	30784	
5074	0	30732	
5075	0	30720	
5076	0	30736	
5077	0	30708	
5078	0	30704	
5079	0	30752	
5080	0	30790	
5081	0	30828	
5082	0	30860	
5083	0	30904	
5084	0	30936	
5085	0	30988	
5086	0	31040	
5087	0	31112	
5088	0	31192	
5089	0	31276	
5090	0	31288	
5091	0	31296	
5092	0	31290	
5093	0	31248	
5094	0	31212	
5095	0	31194	
5096	0	31136	
5097	0	31072	
5098	0	31028	
5099	0	31020	
5100	0	31024	
5101	0	31064	
5102	0	31104	
5103	0	31108	
5104	0	31148	
5105	0	31152	
5106	0	31152	
5107	0	31234	
5108	0	31376	
5109	0	31472	
5110	0	31520	
5111	0	31536	
5112	0	31526	
5113	0	31428	
5114	0	31312	
5115	0	31248	
5116	0	31188	
5117	0	31064	
5118	0	30964	
5119	0	30964	
5120	0	30988	
5121	0	30992	
5122	0	30968	
5123	0	30984	
5124	0	31060	
5125	0	31156	
5126	0	31220	
5127	0	31272	
5128	0	31328	
5129	0	31396	
5130	0	31528	
5131	0	31640	
5132	0	31708	
5133	0	31740	
5134	0	31700	
5135	0	31604	
5136	0	31508	
5137	0	31392	
5138	0	31196	
5139	0	31052	
5140	0	31018	
5141	0	30976	
5142	0	30936	
5143	0	30916	
5144	0	30992	
5145	0	31072	
5146	0	31178	
5147	0	31240	
5148	0	31304	
5149	0	31412	
5150	0	31500	
5151	0	31508	
5152	0	31464	
5153	0	31404	
5154	0	31320	
5155	0	31264	
5156	0	31236	
5157	0	31176	
5158	0	31156	
5159	0	31060	
5160	0	31032	
5161	0	30984	
5162	0	30996	
5163	0	31060	
5164	0	31152	
5165	0	31296	
5166	0	31400	
5167	0	31488	
5168	0	31580	
5169	0	31648	
5170	0	31704	
5171	0	31808	
5172	0	31904	
5173	0	31872	
5174	0	31844	
5175	0	31796	
5176	0	31708	
5177	0	31660	
5178	0	31624	
5179	0	31620	
5180	0	31664	
5181	0	31640	
5182	0	31604	
5183	0	31664	
5184	0	31732	
5185	0	31808	
5186	0	31860	
5187	0	31980	
5188	0	32140	
5189	0	32244	
5190	0	32266	
5191	0	32316	
5192	0	32376	
5193	0	32404	
5194	0	32416	
5195	0	32396	
5196	0	32328	
5197	0	32296	
5198	0	32204	
5199	0	32092	
5200	0	32032	
5201	0	31996	
5202	0	31976	
5203	0	31956	
5204	0	32004	
5205	0	32164	
5206	0	32372	
5207	0	32664	
5208	0	32984	
5209	0	33256	
5210	0	33544	
5211	0	33784	
5212	0	34004	
5213	0	34196	
5214	0	34400	
5215	0	34604	
5216	0	34728	
5217	0	34820	
5218	0	34848	
5219	0	34816	
5220	0	34720	
5221	0	34576	
5222	0	34466	
5223	0	34336	
5224	0	34220	
5225	0	34184	
5226	0	34168	
5227	0	34088	
5228	0	33944	
5229	0	33804	
5230	0	33736	
5231	0	33664	
5232	0	33480	
5233	0	33260	
5234	0	33060	
5235	0	32940	
5236	0	32804	
5237	0	32576	
5238	0	32388	
5239	0	32308	
5240	0	32324	
5241	0	32280	
5242	0	32192	
5243	0	32144	
5244	0	32128	
5245	0	32074	
5246	0	31964	
5247	0	31852	
5248	0	31784	
5249	0	31696	
5250	0	31656	
5251	0	31636	
5252	0	31632	
5253	0	31616	
5254	0	31496	
5255	0	31312	
5256	0	31112	
5257	0	30988	
5258	0	30818	
5259	0	30626	
5260	0	30490	
5261	0	30392	
5262	0	30376	
5263	0	30284	
5264	0	30212	
5265	0	30168	
5266	0	30176	
5267	0	30256	
5268	0	30320	
5269	0	30390	
5270	0	30436	
5271	0	30480	
5272	0	30520	
5273	0	30516	
5274	0	30532	
5275	0	30516	
5276	0	30452	
5277	0	30408	
5278	0	30394	
5279	0	30352	
5280	0	30368	
5281	0	30396	
5282	0	30452	
5283	0	30484	
5284	0	30508	
5285	0	30540	
5286	0	30560	
5287	0	30624	
5288	0	30728	
5289	0	30772	
5290	0	30804	
5291	0	30852	
5292	0	30884	
5293	0	30868	
5294	0	30898	
5295	0	30924	
5296	0	30900	
5297	0	30868	
5298	0	30836	
5299	0	30872	
5300	0	30884	
5301	0	30880	
5302	0	30886	
5303	0	30880	
5304	0	30884	
5305	0	30864	
5306	0	30768	
5307	0	30564	
5308	0	30320	
5309	0	29856	
5310	0	29208	
5311	0	28608	
5312	0	28204	
5313	0	27976	
5314	0	27936	
5315	0	28104	
5316	0	28436	
5317	0	28956	
5318	0	29632	
5319	0	30616	
5320	0	31768	
5321	0	32988	
5322	0	34348	
5323	0	35852	
5324	0	37412	
5325	0	39264	
5326	0	41368	
5327	0	43788	
5328	0	46560	
5329	0	49516	
5330	0	52456	
5331	0	55252	
5332	0	58048	
5333	0	60864	
5334	0	63008	
5335	0	64128	
5336	0	64688	
5337	0	64916	
5338	0	64992	
5339	0	64976	
5340	0	64904	
5341	0	64804	
5342	0	61704	
5343	0	56400	
5344	0	51152	
5345	0	46384	
5346	0	42388	
5347	0	39104	
5348	0	36480	
5349	0	34428	
5350	0	32748	
5351	0	31336	
5352	0	30090	
5353	0	28828	
5354	0	27548	
5355	0	26412	
5356	0	25506	
5357	0	24888	
5358	0	24508	
5359	0	24320	
5360	0	24378	
5361	0	24552	
5362	0	24796	
5363	0	24940	
5364	0	24930	
5365	0	25020	
5366	0	25184	
5367	0	25400	
5368	0	25684	
5369	0	26060	
5370	0	26412	
5371	0	26720	
5372	0	27020	
5373	0	27300	
5374	0	27556	
5375	0	27792	
5376	0	28000	
5377	0	28220	
5378	0	28380	
5379	0	28474	
5380	0	28584	
5381	0	28700	
5382	0	28820	
5383	0	28890	
5384	0	28976	
5385	0	29044	
5386	0	29140	
5387	0	29212	
5388	0	29280	
5389	0	29348	
5390	0	29384	
5391	0	29404	
5392	0	29438	
5393	0	29480	
5394	0	29504	
5395	0	29508	
5396	0	29536	
5397	0	29520	
5398	0	29512	
5399	0	29512	
5400	0	29536	
5401	0	29612	
5402	0	29628	
5403	0	29620	
5404	0	29652	
5405	0	29662	
5406	0	29712	
5407	0	29832	
5408	0	29992	
5409	0	30100	
5410	0	30204	
5411	0	30368	
5412	0	30528	
5413	0	30612	
5414	0	30636	
5415	0	30636	
5416	0	30564	
5417	0	30492	
5418	0	30428	
5419	0	30364	
5420	0	30336	
5421	0	30344	
5422	0	30344	
5423	0	30416	
5424	0	30496	
5425	0	30568	
5426	0	30704	
5427	0	30856	
5428	0	30953	
5429	0	31048	
5430	0	31108	
5431	0	31156	
5432	0	31192	
5433	0	31196	
5434	0	31176	
5435	0	31228	
5436	0	31294	
5437	0	31332	
5438	0	31392	
5439	0	31424	
5440	0	31464	
5441	0	31520	
5442	0	31476	
5443	0	31480	
5444	0	31508	
5445	0	31584	
5446	0	31692	
5447	0	31746	
5448	0	31792	
5449	0	31864	
5450	0	31944	
5451	0	32040	
5452	0	32148	
5453	0	32236	
5454	0	32312	
5455	0	32376	
5456	0	32408	
5457	0	32424	
5458	0	32392	
5459	0	32340	
5460	0	32308	
5461	0	32332	
5462	0	32380	
5463	0	32460	
5464	0	32542	
5465	0	32632	
5466	0	32696	
5467	0	32760	
5468	0	32836	
5469	0	32926	
5470	0	32968	
5471	0	33012	
5472	0	33076	
5473	0	33116	
5474	0	33136	
5475	0	33152	
5476	0	33124	
5477	0	33108	
5478	0	33064	
5479	0	33016	
5480	0	32992	
5481	0	33024	
5482	0	33048	
5483	0	33104	
5484	0	33162	
5485	0	33240	
5486	0	33304	
5487	0	33388	
5488	0	33508	
5489	0	33628	
5490	0	33740	
5491	0	33852	
5492	0	33944	
5493	0	34024	
5494	0	34080	
5495	0	34124	
5496	0	34160	
5497	0	34174	
5498	0	34132	
5499	0	34128	
5500	0	34172	
5501	0	34204	
5502	0	34204	
5503	0	34184	
5504	0	34188	
5505	0	34224	
5506	0	34300	
5507	0	34462	
5508	0	34640	
5509	0	34874	
5510	0	35080	
5511	0	35244	
5512	0	35376	
5513	0	35496	
5514	0	35548	
5515	0	35528	
5516	0	35524	
5517	0	35528	
5518	0	35568	
5519	0	35624	
5520	0	35728	
5521	0	35840	
5522	0	35912	
5523	0	36020	
5524	0	36124	
5525	0	36248	
5526	0	36364	
5527	0	36492	
5528	0	36648	
5529	0	36808	
5530	0	36956	
5531	0	37104	
5532	0	37272	
5533	0	37382	
5534	0	37496	
5535	0	37568	
5536	0	37640	
5537	0	37760	
5538	0	37876	
5539	0	37972	
5540	0	38020	
5541	0	38112	
5542	0	38200	
5543	0	38256	
5544	0	38340	
5545	0	38458	
5546	0	38600	
5547	0	38768	
5548	0	38904	
5549	0	39000	
5550	0	39060	
5551	0	39100	
5552	0	39188	
5553	0	39256	
5554	0	39288	
5555	0	39264	
5556	0	39184	
5557	0	39136	
5558	0	39120	
5559	0	39116	
5560	0	39116	
5561	0	39112	
5562	0	39104	
5563	0	39104	
5564	0	39092	
5565	0	39136	
5566	0	39188	
5567	0	39268	
5568	0	39290	
5569	0	39296	
5570	0	39336	
5571	0	39340	
5572	0	39300	
5573	0	39232	
5574	0	39140	
5575	0	39012	
5576	0	38848	
5577	0	38732	
5578	0	38592	
5579	0	38412	
5580	0	38248	
5581	0	38088	
5582	0	37944	
5583	0	37800	
5584	0	37628	
5585	0	37468	
5586	0	37268	
5587	0	37056	
5588	0	36912	
5589	0	36696	
5590	0	36452	
5591	0	36228	
5592	0	35996	
5593	0	35784	
5594	0	35556	
5595	0	35304	
5596	0	35048	
5597	0	34732	
5598	0	34372	
5599	0	34014	
5600	0	33692	
5601	0	33388	
5602	0	33068	
5603	0	32752	
5604	0	32428	
5605	0	32216	
5606	0	32012	
5607	0	31848	
5608	0	31712	
5609	0	31572	
5610	0	31404	
5611	0	31228	
5612	0	31088	
5613	0	30932	
5614	0	30744	
5615	0	30496	
5616	0	30288	
5617	0	30064	
5618	0	29864	
5619	0	29712	
5620	0	29588	
5621	0	29468	
5622	0	29344	
5623	0	29216	
5624	0	29082	
5625	0	29048	
5626	0	29028	
5627	0	29012	
5628	0	28982	
5629	0	29018	
5630	0	28992	
5631	0	28896	
5632	0	28812	
5633	0	28714	
5634	0	28604	
5635	0	28536	
5636	0	28496	
5637	0	28456	
5638	0	28444	
5639	0	28384	
5640	0	28256	
5641	0	28104	
5642	0	28028	
5643	0	28084	
5644	0	28132	
5645	0	28192	
5646	0	28208	
5647	0	28204	
5648	0	28276	
5649	0	28362	
5650	0	28458	
5651	0	28446	
5652	0	28408	
5653	0	28368	
5654	0	28384	
5655	0	28376	
5656	0	28378	
5657	0	28356	
5658	0	28320	
5659	0	28292	
5660	0	28240	
5661	0	28264	
5662	0	28304	
5663	0	28356	
5664	0	28388	
5665	0	28464	
5666	0	28536	
5667	0	28632	
5668	0	28724	
5669	0	28780	
5670	0	28814	
5671	0	28860	
5672	0	28912	
5673	0	28949	
5674	0	29012	
5675	0	29032	
5676	0	29056	
5677	0	29044	
5678	0	29024	
5679	0	28996	
5680	0	29000	
5681	0	29028	
5682	0	29096	
5683	0	29122	
5684	0	29156	
5685	0	29220	
5686	0	29312	
5687	0	29372	
5688	0	29448	
5689	0	29576	
5690	0	29664	
5691	0	29674	
5692	0	29708	
5693	0	29772	
5694	0	29800	
5695	0	29836	
5696	0	29864	
5697	0	29880	
5698	0	29880	
5699	0	29880	
5700	0	29888	
5701	0	29868	
5702	0	29888	
5703	0	29928	
5704	0	29940	
5705	0	29980	
5706	0	30032	
5707	0	30114	
5708	0	30232	
5709	0	30344	
5710	0	30424	
5711	0	30468	
5712	0	30504	
5713	0	30562	
5714	0	30620	
5715	0	30664	
5716	0	30688	
5717	0	30664	
5718	0	30592	
5719	0	30560	
5720	0	30538	
5721	0	30532	
5722	0	30516	
5723	0	30572	
5724	0	30636	
5725	0	30708	
5726	0	30778	
5727	0	30836	
5728	0	30944	
5729	0	31060	
5730	0	31084	
5731	0	31128	
5732	0	31200	
5733	0	31236	
5734	0	31224	
5735	0	31208	
5736	0	31164	
5737	0	31112	
5738	0	31144	
5739	0	31184	
5740	0	31184	
5741	0	31132	
5742	0	31096	
5743	0	31076	
5744	0	31084	
5745	0	31144	
5746	0	31162	
5747	0	31232	
5748	0	31320	
5749	0	31384	
5750	0	31456	
5751	0	31576	
5752	0	31620	
5753	0	31624	
5754	0	31620	
5755	0	31632	
5756	0	31632	
5757	0	31636	
5758	0	31684	
5759	0	31680	
5760	0	31696	
5761	0	31728	
5762	0	31716	
5763	0	31656	
5764	0	31684	
5765	0	31730	
5766	0	31732	
5767	0	31744	
5768	0	31820	
5769	0	31900	
5770	0	31916	
5771	0	31896	
5772	0	31856	
5773	0	31864	
5774	0	31860	
5775	0	31836	
5776	0	31784	
5777	0	31724	
5778	0	31740	
5779	0	31712	
5780	0	31688	
5781	0	31712	
5782	0	31712	
5783	0	31672	
5784	0	31596	
5785	0	31624	
5786	0	31740	
5787	0	31808	
5788	0	31836	
5789	0	31836	
5790	0	31844	
5791	0	31904	
5792	0	31976	
5793	0	32016	
5794	0	32016	
5795	0	31944	
5796	0	31912	
5797	0	31892	
5798	0	31824	
5799	0	31714	
5800	0	31656	
5801	0	31664	
5802	0	31674	
5803	0	31650	
5804	0	31608	
5805	0	31624	
5806	0	31690	
5807	0	31778	
5808	0	31908	
5809	0	31952	
5810	0	31976	
5811	0	32070	
5812	0	32072	
5813	0	32034	
5814	0	31928	
5815	0	31876	
5816	0	31848	
5817	0	31796	
5818	0	31764	
5819	0	31708	
5820	0	31652	
5821	0	31680	
5822	0	31716	
5823	0	31744	
5824	0	31732	
5825	0	31760	
5826	0	31780	
5827	0	31836	
5828	0	31892	
5829	0	31968	
5830	0	32040	
5831	0	32088	
5832	0	32068	
5833	0	32084	
5834	0	32122	
5835	0	32124	
5836	0	32052	
5837	0	31968	
5838	0	31900	
5839	0	31886	
5840	0	31832	
5841	0	31772	
5842	0	31768	
5843	0	31756	
5844	0	31736	
5845	0	31752	
5846	0	31756	
5847	0	31728	
5848	0	31808	
5849	0	31968	
5850	0	32024	
5851	0	32040	
5852	0	32120	
5853	0	32224	
5854	0	32248	
5855	0	32184	
5856	0	32136	
5857	0	32088	
5858	0	32020	
5859	0	32056	
5860	0	32200	
5861	0	32352	
5862	0	32462	
5863	0	32508	
5864	0	32556	
5865	0	32664	
5866	0	32828	
5867	0	33000	
5868	0	33204	
5869	0	33364	
5870	0	33440	
5871	0	33484	
5872	0	33556	
5873	0	33572	
5874	0	33524	
5875	0	33460	
5876	0	33352	
5877	0	33252	
5878	0	33184	
5879	0	33112	
5880	0	33064	
5881	0	33004	
5882	0	32940	
5883	0	32968	
5884	0	33040	
5885	0	33112	
5886	0	33296	
5887	0	33572	
5888	0	33832	
5889	0	34128	
5890	0	34428	
5891	0	34668	
5892	0	34864	
5893	0	35028	
5894	0	35100	
5895	0	35160	
5896	0	35232	
5897	0	35276	
5898	0	35264	
5899	0	35216	
5900	0	35120	
5901	0	35008	
5902	0	34920	
5903	0	34848	
5904	0	34752	
5905	0	34664	
5906	0	34576	
5907	0	34480	
5908	0	34336	
5909	0	34164	
5910	0	34012	
5911	0	33944	
5912	0	33920	
5913	0	33876	
5914	0	33792	
5915	0	33636	
5916	0	33476	
5917	0	33256	
5918	0	33140	
5919	0	33100	
5920	0	33064	
5921	0	32958	
5922	0	32824	
5923	0	32740	
5924	0	32692	
5925	0	32692	
5926	0	32700	
5927	0	32640	
5928	0	32552	
5929	0	32488	
5930	0	32448	
5931	0	32396	
5932	0	32364	
5933	0	32272	
5934	0	32132	
5935	0	32008	
5936	0	31900	
5937	0	31784	
5938	0	31648	
5939	0	31564	
5940	0	31444	
5941	0	31268	
5942	0	31100	
5943	0	31000	
5944	0	31020	
5945	0	31026	
5946	0	30984	
5947	0	31012	
5948	0	31066	
5949	0	31096	
5950	0	31128	
5951	0	31112	
5952	0	31040	
5953	0	31052	
5954	0	31136	
5955	0	31144	
5956	0	31078	
5957	0	31036	
5958	0	31048	
5959	0	31096	
5960	0	31128	
5961	0	31148	
5962	0	31160	
5963	0	31236	
5964	0	31244	
5965	0	31320	
5966	0	31392	
5967	0	31396	
5968	0	31444	
5969	0	31512	
5970	0	31580	
5971	0	31620	
5972	0	31696	
5973	0	31816	
5974	0	31824	
5975	0	31778	
5976	0	31664	
5977	0	31646	
5978	0	31616	
5979	0	31528	
5980	0	31464	
5981	0	31434	
5982	0	31446	
5983	0	31472	
5984	0	31472	
5985	0	31412	
5986	0	31396	
5987	0	31360	
5988	0	31228	
5989	0	30976	
5990	0	30516	
5991	0	29928	
5992	0	29308	
5993	0	28888	
5994	0	28660	
5995	0	28600	
5996	0	28756	
5997	0	29012	
5998	0	29420	
5999	0	30052	
6000	0	30924	
6001	0	32056	
6002	0	33396	
6003	0	34872	
6004	0	36492	
6005	0	38224	
6006	0	40204	
6007	0	42408	
6008	0	44816	
6009	0	47768	
6010	0	51002	
6011	0	54184	
6012	0	57212	
6013	0	60104	
6014	0	62568	
6015	0	63924	
6016	0	64616	
6017	0	64956	
6018	0	65056	
6019	0	65056	
6020	0	64984	
6021	0	64920	
6022	0	64808	
6023	0	64684	
6024	0	63496	
6025	0	57672	
6026	0	52436	
6027	0	47940	
6028	0	44148	
6029	0	40980	
6030	0	38296	
6031	0	35888	
6032	0	33664	
6033	0	31752	
6034	0	30172	
6035	0	28936	
6036	0	27936	
6037	0	27096	
6038	0	26448	
6039	0	26026	
6040	0	25856	
6041	0	25828	
6042	0	25908	
6043	0	26060	
6044	0	26176	
6045	0	26168	
6046	0	26080	
6047	0	26064	
6048	0	26152	
6049	0	26316	
6050	0	26592	
6051	0	26976	
6052	0	27356	
6053	0	27640	
6054	0	27916	
6055	0	28192	
6056	0	28360	
6057	0	28416	
6058	0	28416	
6059	0	28404	
6060	0	28396	
6061	0	28420	
6062	0	28460	
6063	0	28500	
6064	0	28536	
6065	0	28544	
6066	0	28552	
6067	0	28584	
6068	0	28644	
6069	0	28722	
6070	0	28784	
6071	0	28852	
6072	0	28920	
6073	0	28948	
6074	0	28984	
6075	0	28996	
6076	0	28980	
6077	0	28988	
6078	0	28916	
6079	0	28852	
6080	0	28852	
6081	0	28770	
6082	0	28736	
6083	0	28740	
6084	0	28792	
6085	0	28912	
6086	0	29028	
6087	0	29162	
6088	0	29304	
6089	0	29472	
6090	0	29580	
6091	0	29584	
6092	0	29604	
6093	0	29582	
6094	0	29548	
6095	0	29492	
6096	0	29448	
6097	0	29408	
6098	0	29456	
6099	0	29512	
6100	0	29604	
6101	0	29700	
6102	0	29720	
6103	0	29746	
6104	0	29764	
6105	0	29828	
6106	0	29908	
6107	0	29970	
6108	0	30056	
6109	0	30156	
6110	0	30208	
6111	0	30236	
6112	0	30304	
6113	0	30368	
6114	0	30384	
6115	0	30392	
6116	0	30428	
6117	0	30456	
6118	0	30464	
6119	0	30448	
6120	0	30452	
6121	0	30482	
6122	0	30552	
6123	0	30596	
6124	0	30648	
6125	0	30688	
6126	0	30780	
6127	0	30868	
6128	0	30944	
6129	0	31016	
6130	0	31136	
6131	0	31216	
6132	0	31240	
6133	0	31248	
6134	0	31268	
6135	0	31324	
6136	0	31346	
6137	0	31336	
6138	0	31280	
6139	0	31232	
6140	0	31236	
6141	0	31298	
6142	0	31328	
6143	0	31380	
6144	0	31468	
6145	0	31536	
6146	0	31556	
6147	0	31612	
6148	0	31668	
6149	0	31752	
6150	0	31840	
6151	0	31892	
6152	0	31916	
6153	0	31964	
6154	0	31970	
6155	0	31952	
6156	0	31952	
6157	0	31952	
6158	0	31932	
6159	0	31908	
6160	0	31980	
6161	0	32108	
6162	0	32208	
6163	0	32240	
6164	0	32272	
6165	0	32304	
6166	0	32368	
6167	0	32440	
6168	0	32484	
6169	0	32588	
6170	0	32652	
6171	0	32704	
6172	0	32760	
6173	0	32848	
6174	0	32856	
6175	0	32888	
6176	0	32924	
6177	0	32920	
6178	0	32864	
6179	0	32872	
6180	0	32920	
6181	0	32984	
6182	0	33088	
6183	0	33204	
6184	0	33304	
6185	0	33424	
6186	0	33576	
6187	0	33712	
6188	0	33844	
6189	0	33924	
6190	0	33988	
6191	0	34100	
6192	0	34210	
6193	0	34288	
6194	0	34344	
6195	0	34400	
6196	0	34464	
6197	0	34512	
6198	0	34556	
6199	0	34620	
6200	0	34692	
6201	0	34832	
6202	0	34904	
6203	0	34948	
6204	0	35032	
6205	0	35172	
6206	0	35368	
6207	0	35492	
6208	0	35620	
6209	0	35764	
6210	0	35940	
6211	0	36116	
6212	0	36272	
6213	0	36404	
6214	0	36468	
6215	0	36492	
6216	0	36532	
6217	0	36568	
6218	0	36604	
6219	0	36656	
6220	0	36704	
6221	0	36832	
6222	0	36928	
6223	0	37028	
6224	0	37188	
6225	0	37352	
6226	0	37480	
6227	0	37620	
6228	0	37760	
6229	0	37936	
6230	0	38044	
6231	0	38112	
6232	0	38208	
6233	0	38288	
6234	0	38352	
6235	0	38408	
6236	0	38440	
6237	0	38464	
6238	0	38440	
6239	0	38424	
6240	0	38452	
6241	0	38480	
6242	0	38488	
6243	0	38472	
6244	0	38504	
6245	0	38548	
6246	0	38568	
6247	0	38608	
6248	0	38632	
6249	0	38664	
6250	0	38738	
6251	0	38764	
6252	0	38736	
6253	0	38740	
6254	0	38728	
6255	0	38664	
6256	0	38560	
6257	0	38400	
6258	0	38224	
6259	0	38104	
6260	0	37952	
6261	0	37832	
6262	0	37696	
6263	0	37556	
6264	0	37420	
6265	0	37272	
6266	0	37136	
6267	0	37020	
6268	0	36880	
6269	0	36680	
6270	0	36452	
6271	0	36208	
6272	0	35980	
6273	0	35768	
6274	0	35552	
6275	0	35316	
6276	0	35032	
6277	0	34772	
6278	0	34452	
6279	0	34124	
6280	0	33832	
6281	0	33552	
6282	0	33288	
6283	0	33048	
6284	0	32848	
6285	0	32668	
6286	0	32464	
6287	0	32264	
6288	0	32138	
6289	0	32016	
6290	0	31852	
6291	0	31656	
6292	0	31520	
6293	0	31336	
6294	0	31108	
6295	0	30884	
6296	0	30696	
6297	0	30504	
6298	0	30256	
6299	0	30070	
6300	0	29912	
6301	0	29744	
6302	0	29636	
6303	0	29524	
6304	0	29358	
6305	0	29268	
6306	0	29204	
6307	0	29120	
6308	0	29104	
6309	0	29116	
6310	0	29116	
6311	0	29072	
6312	0	28964	
6313	0	28864	
6314	0	28780	
6315	0	28724	
6316	0	28692	
6317	0	28680	
6318	0	28676	
6319	0	28624	
6320	0	28552	
6321	0	28512	
6322	0	28480	
6323	0	28458	
6324	0	28480	
6325	0	28552	
6326	0	28584	
6327	0	28588	
6328	0	28584	
6329	0	28624	
6330	0	28696	
6331	0	28808	
6332	0	28896	
6333	0	29016	
6334	0	29072	
6335	0	29068	
6336	0	29000	
6337	0	28954	
6338	0	28912	
6339	0	28882	
6340	0	28904	
6341	0	28896	
6342	0	28888	
6343	0	28920	
6344	0	28912	
6345	0	28896	
6346	0	28992	
6347	0	29124	
6348	0	29192	
6349	0	29232	
6350	0	29368	
6351	0	29460	
6352	0	29552	
6353	0	29624	
6354	0	29610	
6355	0	29538	
6356	0	29504	
6357	0	29544	
6358	0	29556	
6359	0	29560	
6360	0	29516	
6361	0	29472	
6362	0	29440	
6363	0	29425	
6364	0	29424	
6365	0	29488	
6366	0	29580	
6367	0	29656	
6368	0	29744	
6369	0	29858	
6370	0	29978	
6371	0	30056	
6372	0	30116	
6373	0	30152	
6374	0	30148	
6375	0	30112	
6376	0	30084	
6377	0	30080	
6378	0	30024	
6379	0	30000	
6380	0	30024	
6381	0	30028	
6382	0	30056	
6383	0	30112	
6384	0	30200	
6385	0	30228	
6386	0	30244	
6387	0	30316	
6388	0	30380	
6389	0	30400	
6390	0	30420	
6391	0	30500	
6392	0	30612	
6393	0	30680	
6394	0	30728	
6395	0	30740	
6396	0	30752	
6397	0	30712	
6398	0	30636	
6399	0	30592	
6400	0	30528	
6401	0	30524	
6402	0	30552	
6403	0	30628	
6404	0	30712	
6405	0	30792	
6406	0	30884	
6407	0	30944	
6408	0	31000	
6409	0	31016	
6410	0	31080	
6411	0	31208	
6412	0	31336	
6413	0	31400	
6414	0	31472	
6415	0	31504	
6416	0	31504	
6417	0	31432	
6418	0	31400	
6419	0	31372	
6420	0	31340	
6421	0	31352	
6422	0	31364	
6423	0	31320	
6424	0	31396	
6425	0	31516	
6426	0	31610	
6427	0	31678	
6428	0	31724	
6429	0	31784	
6430	0	31896	
6431	0	31936	
6432	0	31952	
6433	0	31996	
6434	0	32004	
6435	0	31980	
6436	0	32020	
6437	0	31980	
6438	0	31928	
6439	0	31882	
6440	0	31896	
6441	0	32004	
6442	0	32028	
6443	0	31920	
6444	0	31848	
6445	0	31836	
6446	0	31872	
6447	0	31896	
6448	0	31924	
6449	0	31988	
6450	0	32068	
6451	0	32160	
6452	0	32216	
6453	0	32256	
6454	0	32280	
6455	0	32264	
6456	0	32252	
6457	0	32208	
6458	0	32168	
6459	0	32208	
6460	0	32224	
6461	0	32184	
6462	0	32140	
6463	0	32148	
6464	0	32120	
6465	0	32076	
6466	0	32092	
6467	0	32140	
6468	0	32200	
6469	0	32288	
6470	0	32352	
6471	0	32364	
6472	0	32396	
6473	0	32436	
6474	0	32452	
6475	0	32444	
6476	0	32360	
6477	0	32268	
6478	0	32240	
6479	0	32276	
6480	0	32226	
6481	0	32152	
6482	0	32096	
6483	0	32068	
6484	0	32068	
6485	0	32104	
6486	0	32132	
6487	0	32180	
6488	0	32224	
6489	0	32280	
6490	0	32344	
6491	0	32416	
6492	0	32452	
6493	0	32492	
6494	0	32464	
6495	0	32464	
6496	0	32404	
6497	0	32344	
6498	0	32388	
6499	0	32404	
6500	0	32296	
6501	0	32212	
6502	0	32188	
6503	0	32140	
6504	0	32068	
6505	0	32036	
6506	0	32088	
6507	0	32132	
6508	0	32144	
6509	0	32160	
6510	0	32168	
6511	0	32276	
6512	0	32448	
6513	0	32540	
6514	0	32528	
6515	0	32424	
6516	0	32368	
6517	0	32356	
6518	0	32336	
6519	0	32280	
6520	0	32196	
6521	0	32146	
6522	0	32104	
6523	0	32060	
6524	0	32116	
6525	0	32224	
6526	0	32312	
6527	0	32328	
6528	0	32384	
6529	0	32468	
6530	0	32482	
6531	0	32452	
6532	0	32456	
6533	0	32458	
6534	0	32424	
6535	0	32344	
6536	0	32292	
6537	0	32264	
6538	0	32216	
6539	0	32156	
6540	0	32088	
6541	0	32068	
6542	0	32080	
6543	0	32096	
6544	0	32108	
6545	0	32140	
6546	0	32208	
6547	0	32288	
6548	0	32340	
6549	0	32384	
6550	0	32408	
6551	0	32424	
6552	0	32456	
6553	0	32500	
6554	0	32488	
6555	0	32428	
6556	0	32314	
6557	0	32248	
6558	0	32212	
6559	0	32164	
6560	0	32160	
6561	0	32194	
6562	0	32228	
6563	0	32220	
6564	0	32256	
6565	0	32288	
6566	0	32304	
6567	0	32340	
6568	0	32408	
6569	0	32460	
6570	0	32520	
6571	0	32570	
6572	0	32636	
6573	0	32666	
6574	0	32624	
6575	0	32676	
6576	0	32624	
6577	0	32590	
6578	0	32544	
6579	0	32432	
6580	0	32352	
6581	0	32366	
6582	0	32344	
6583	0	32298	
6584	0	32296	
6585	0	32316	
6586	0	32364	
6587	0	32448	
6588	0	32540	
6589	0	32608	
6590	0	32676	
6591	0	32716	
6592	0	32720	
6593	0	32648	
6594	0	32568	
6595	0	32488	
6596	0	32444	
6597	0	32400	
6598	0	32376	
6599	0	32352	
6600	0	32322	
6601	0	32308	
6602	0	32300	
6603	0	32316	
6604	0	32310	
6605	0	32356	
6606	0	32424	
6607	0	32548	
6608	0	32676	
6609	0	32772	
6610	0	32832	
6611	0	32912	
6612	0	32964	
6613	0	32948	
6614	0	32882	
6615	0	32792	
6616	0	32674	
6617	0	32576	
6618	0	32540	
6619	0	32560	
6620	0	32604	
6621	0	32632	
6622	0	32592	
6623	0	32552	
6624	0	32570	
6625	0	32624	
6626	0	32740	
6627	0	32856	
6628	0	32896	
6629	0	32892	
6630	0	32876	
6631	0	32908	
6632	0	32948	
6633	0	32976	
6634	0	32944	
6635	0	32920	
6636	0	32932	
6637	0	32988	
6638	0	32996	
6639	0	33076	
6640	0	33172	
6641	0	33268	
6642	0	33352	
6643	0	33408	
6644	0	33516	
6645	0	33688	
6646	0	33864	
6647	0	34052	
6648	0	34180	
6649	0	34160	
6650	0	34168	
6651	0	34300	
6652	0	34424	
6653	0	34476	
6654	0	34436	
6655	0	34352	
6656	0	34208	
6657	0	34080	
6658	0	34000	
6659	0	33936	
6660	0	33912	
6661	0	33920	
6662	0	33944	
6663	0	33968	
6664	0	34024	
6665	0	34120	
6666	0	34264	
6667	0	34408	
6668	0	34632	
6669	0	34928	
6670	0	35272	
6671	0	35456	
6672	0	35524	
6673	0	35604	
6674	0	35640	
6675	0	35692	
6676	0	35792	
6677	0	35864	
6678	0	35864	
6679	0	35800	
6680	0	35700	
6681	0	35596	
6682	0	35512	
6683	0	35440	
6684	0	35308	
6685	0	35232	
6686	0	35184	
6687	0	35100	
6688	0	34944	
6689	0	34806	
6690	0	34708	
6691	0	34644	
6692	0	34560	
6693	0	34472	
6694	0	34360	
6695	0	34260	
6696	0	34136	
6697	0	34016	
6698	0	33900	
6699	0	33792	
6700	0	33688	
6701	0	33616	
6702	0	33538	
6703	0	33456	
6704	0	33372	
6705	0	33272	
6706	0	33252	
6707	0	33264	
6708	0	33260	
6709	0	33252	
6710	0	33216	
6711	0	33130	
6712	0	33056	
6713	0	32996	
6714	0	32916	
6715	0	32842	
6716	0	32728	
6717	0	32572	
6718	0	32428	
6719	0	32298	
6720	0	32100	
6721	0	31928	
6722	0	31804	
6723	0	31728	
6724	0	31712	
6725	0	31690	
6726	0	31728	
6727	0	31816	
6728	0	31916	
6729	0	31976	
6730	0	32008	
6731	0	32028	
6732	0	32028	
6733	0	32032	
6734	0	31984	
6735	0	31956	
6736	0	31964	
6737	0	31936	
6738	0	31878	
6739	0	31844	
6740	0	31828	
6741	0	31812	
6742	0	31828	
6743	0	31852	
6744	0	31800	
6745	0	31768	
6746	0	31802	
6747	0	31848	
6748	0	31912	
6749	0	31980	
6750	0	32088	
6751	0	32172	
6752	0	32246	
6753	0	32308	
6754	0	32288	
6755	0	32260	
6756	0	32208	
6757	0	32180	
6758	0	32056	
6759	0	31956	
6760	0	32024	
6761	0	32140	
6762	0	32156	
6763	0	32104	
6764	0	32064	
6765	0	32000	
6766	0	31940	
6767	0	31800	
6768	0	31520	
6769	0	31048	
6770	0	30388	
6771	0	29832	
6772	0	29528	
6773	0	29316	
6774	0	29234	
6775	0	29392	
6776	0	29732	
6777	0	30172	
6778	0	30708	
6779	0	31588	
6780	0	32744	
6781	0	34060	
6782	0	35584	
6783	0	37312	
6784	0	39136	
6785	0	41116	
6786	0	43344	
6787	0	45868	
6788	0	48864	
6789	0	52020	
6790	0	55200	
6791	0	58256	
6792	0	61088	
6793	0	63040	
6794	0	64040	
6795	0	64560	
6796	0	64772	
6797	0	64832	
6798	0	64788	
6799	0	64716	
6800	0	64624	
6801	0	64512	
6802	0	64372	
6803	0	64256	
6804	0	60132	
6805	0	54848	
6806	0	50484	
6807	0	46792	
6808	0	43636	
6809	0	40864	
6810	0	38272	
6811	0	35896	
6812	0	34104	
6813	0	32772	
6814	0	31638	
6815	0	30596	
6816	0	29720	
6817	0	28956	
6818	0	28296	
6819	0	27824	
6820	0	27584	
6821	0	27608	
6822	0	27712	
6823	0	27752	
6824	0	27628	
6825	0	27364	
6826	0	27222	
6827	0	27180	
6828	0	27344	
6829	0	27548	
6830	0	27788	
6831	0	28032	
6832	0	28288	
6833	0	28464	
6834	0	28560	
6835	0	28652	
6836	0	28748	
6837	0	28836	
6838	0	28808	
6839	0	28692	
6840	0	28562	
6841	0	28544	
6842	0	28496	
6843	0	28512	
6844	0	28552	
6845	0	28576	
6846	0	28636	
6847	0	28720	
6848	0	28724	
6849	0	28716	
6850	0	28778	
6851	0	28790	
6852	0	28792	
6853	0	28920	
6854	0	28928	
6855	0	28856	
6856	0	28828	
6857	0	28856	
6858	0	28896	
6859	0	28888	
6860	0	28864	
6861	0	28850	
6862	0	28828	
6863	0	28904	
6864	0	28996	
6865	0	29016	
6866	0	29026	
6867	0	29056	
6868	0	29128	
6869	0	29244	
6870	0	29428	
6871	0	29560	
6872	0	29616	
6873	0	29628	
6874	0	29664	
6875	0	29648	
6876	0	29626	
6877	0	29620	
6878	0	29680	
6879	0	29700	
6880	0	29704	
6881	0	29680	
6882	0	29680	
6883	0	29656	
6884	0	29676	
6885	0	29696	
6886	0	29728	
6887	0	29792	
6888	0	29868	
6889	0	29944	
6890	0	30068	
6891	0	30140	
6892	0	30208	
6893	0	30264	
6894	0	30292	
6895	0	30320	
6896	0	30352	
6897	0	30372	
6898	0	30392	
6899	0	30400	
6900	0	30380	
6901	0	30360	
6902	0	30376	
6903	0	30416	
6904	0	30464	
6905	0	30500	
6906	0	30552	
6907	0	30650	
6908	0	30744	
6909	0	30796	
6910	0	30880	
6911	0	30980	
6912	0	31020	
6913	0	31064	
6914	0	31096	
6915	0	31140	
6916	0	31162	
6917	0	31136	
6918	0	31112	
6919	0	31044	
6920	0	31068	
6921	0	31092	
6922	0	31080	
6923	0	31072	
6924	0	31108	
6925	0	31160	
6926	0	31196	
6927	0	31256	
6928	0	31328	
6929	0	31480	
6930	0	31674	
6931	0	31712	
6932	0	31696	
6933	0	31728	
6934	0	31702	
6935	0	31680	
6936	0	31698	
6937	0	31752	
6938	0	31804	
6939	0	31908	
6940	0	31960	
6941	0	31868	
6942	0	31796	
6943	0	31760	
6944	0	31760	
6945	0	31792	
6946	0	31852	
6947	0	31972	
6948	0	32156	
6949	0	32248	
6950	0	32320	
6951	0	32444	
6952	0	32512	
6953	0	32556	
6954	0	32624	
6955	0	32704	
6956	0	32736	
6957	0	32704	
6958	0	32604	
6959	0	32504	
6960	0	32544	
6961	0	32616	
6962	0	32706	
6963	0	32756	
6964	0	32792	
6965	0	32852	
6966	0	32952	
6967	0	33096	
6968	0	33248	
6969	0	33424	
6970	0	33560	
6971	0	33652	
6972	0	33720	
6973	0	33804	
6974	0	33864	
6975	0	33936	
6976	0	34000	
6977	0	33964	
6978	0	33956	
6979	0	33992	
6980	0	34012	
6981	0	34156	
6982	0	34240	
6983	0	34284	
6984	0	34400	
6985	0	34528	
6986	0	34692	
6987	0	34856	
6988	0	35052	
6989	0	35210	
6990	0	35304	
6991	0	35380	
6992	0	35396	
6993	0	35426	
6994	0	35504	
6995	0	35642	
6996	0	35784	
6997	0	35888	
6998	0	35980	
6999	0	36072	
7000	0	36128	
7001	0	36192	
7002	0	36288	
7003	0	36372	
7004	0	36484	
7005	0	36632	
7006	0	36768	
7007	0	36856	
7008	0	36880	
7009	0	37016	
7010	0	37162	
7011	0	37284	
7012	0	37348	
7013	0	37392	
7014	0	37440	
7015	0	37472	
7016	0	37536	
7017	0	37584	
7018	0	37592	
7019	0	37540	
7020	0	37510	
7021	0	37460	
7022	0	37456	
7023	0	37500	
7024	0	37536	
7025	0	37568	
7026	0	37664	
7027	0	37744	
7028	0	37768	
7029	0	37792	
7030	0	37832	
7031	0	37836	
7032	0	37826	
7033	0	37916	
7034	0	38032	
7035	0	38060	
7036	0	38028	
7037	0	37888	
7038	0	37736	
7039	0	37612	
7040	0	37520	
7041	0	37476	
7042	0	37448	
7043	0	37344	
7044	0	37144	
7045	0	36920	
7046	0	36776	
7047	0	36684	
7048	0	36604	
7049	0	36516	
7050	0	36400	
7051	0	36244	
7052	0	36032	
7053	0	35816	
7054	0	35540	
7055	0	35264	
7056	0	34984	
7057	0	34756	
7058	0	34528	
7059	0	34228	
7060	0	33852	
7061	0	33530	
7062	0	33288	
7063	0	33032	
7064	0	32780	
7065	0	32544	
7066	0	32352	
7067	0	32182	
7068	0	31992	
7069	0	31840	
7070	0	31704	
7071	0	31612	
7072	0	31488	
7073	0	31300	
7074	0	31068	
7075	0	30850	
7076	0	30656	
7077	0	30440	
7078	0	30260	
7079	0	30076	
7080	0	29864	
7081	0	29682	
7082	0	29504	
7083	0	29322	
7084	0	29288	
7085	0	29280	
7086	0	29224	
7087	0	29160	
7088	0	29120	
7089	0	29072	
7090	0	29012	
7091	0	28968	
7092	0	28920	
7093	0	28896	
7094	0	28860	
7095	0	28816	
7096	0	28752	
7097	0	28696	
7098	0	28632	
7099	0	28546	
7100	0	28464	
7101	0	28408	
7102	0	28368	
7103	0	28328	
7104	0	28308	
7105	0	28278	
7106	0	28296	
7107	0	28352	
7108	0	28388	
7109	0	28448	
7110	0	28536	
7111	0	28554	
7112	0	28532	
7113	0	28530	
7114	0	28544	
7115	0	28536	
7116	0	28520	
7117	0	28480	
7118	0	28424	
7119	0	28396	
7120	0	28396	
7121	0	28420	
7122	0	28440	
7123	0	28466	
7124	0	28504	
7125	0	28524	
7126	0	28564	
7127	0	28628	
7128	0	28716	
7129	0	28800	
7130	0	28892	
7131	0	28980	
7132	0	29062	
7133	0	29104	
7134	0	29160	
7135	0	29194	
7136	0	29212	
7137	0	29208	
7138	0	29198	
7139	0	29188	
7140	0	29184	
7141	0	29160	
7142	0	29132	
7143	0	29136	
7144	0	29180	
7145	0	29208	
7146	0	29260	
7147	0	29316	
7148	0	29356	
7149	0	29410	
7150	0	29498	
7151	0	29584	
7152	0	29664	
7153	0	29740	
7154	0	29796	
7155	0	29808	
7156	0	29800	
7157	0	29784	
7158	0	29760	
7159	0	29772	
7160	0	29788	
7161	0	29808	
7162	0	29846	
7163	0	29856	
7164	0	29876	
7165	0	29896	
7166	0	29964	
7167	0	30044	
7168	0	30112	
7169	0	30180	
7170	0	30256	
7171	0	30356	
7172	0	30432	
7173	0	30500	
7174	0	30536	
7175	0	30528	
7176	0	30564	
7177	0	30528	
7178	0	30504	
7179	0	30492	
7180	0	30480	
7181	0	30452	
7182	0	30420	
7183	0	30444	
7184	0	30490	
7185	0	30520	
7186	0	30562	
7187	0	30600	
7188	0	30656	
7189	0	30696	
7190	0	30728	
7191	0	30808	
7192	0	30872	
7193	0	30928	
7194	0	31020	
7195	0	31088	
7196	0	31150	
7197	0	31184	
7198	0	31188	
7199	0	31176	
7200	0	31136	
7201	0	31088	
7202	0	31104	
7203	0	31176	
7204	0	31204	
7205	0	31152	
7206	0	31136	
7207	0	31124	
7208	0	31140	
7209	0	31220	
7210	0	31288	
7211	0	31328	
7212	0	31392	
7213	0	31480	
7214	0	31560	
7215	0	31612	
7216	0	31616	
7217	0	31584	
7218	0	31596	
7219	0	31608	
7220	0	31624	
7221	0	31604	
7222	0	31552	
7223	0	31584	
7224	0	31620	
7225	0	31648	
7226	0	31680	
7227	0	31700	
7228	0	31696	
7229	0	31744	
7230	0	31832	
7231	0	31920	
7232	0	32052	
7233	0	32200	
7234	0	32300	
7235	0	32296	
7236	0	32202	
7237	0	32132	
7238	0	32082	
7239	0	32028	
7240	0	32040	
7241	0	32080	
7242	0	32108	
7243	0	32132	
7244	0	32162	
7245	0	32184	
7246	0	32244	
7247	0	32344	
7248	0	32368	
7249	0	32360	
7250	0	32412	
7251	0	32480	
7252	0	32464	
7253	0	32456	
7254	0	32528	
7255	0	32548	
7256	0	32552	
7257	0	32504	
7258	0	32400	
7259	0	32300	
7260	0	32228	
7261	0	32192	
7262	0	32192	
7263	0	32216	
7264	0	32212	
7265	0	32228	
7266	0	32260	
7267	0	32288	
7268	0	32292	
7269	0	32322	
7270	0	32368	
7271	0	32448	
7272	0	32468	
7273	0	32412	
7274	0	32392	
7275	0	32400	
7276	0	32376	
7277	0	32364	
7278	0	32344	
7279	0	32308	
7280	0	32236	
7281	0	32168	
7282	0	32104	
7283	0	32052	
7284	0	32034	
7285	0	32012	
7286	0	32040	
7287	0	32124	
7288	0	32200	
7289	0	32216	
7290	0	32260	
7291	0	32324	
7292	0	32376	
7293	0	32416	
7294	0	32444	
7295	0	32452	
7296	0	32406	
7297	0	32368	
7298	0	32300	
7299	0	32236	
7300	0	32180	
7301	0	32144	
7302	0	32128	
7303	0	32204	
7304	0	32236	
7305	0	32236	
7306	0	32232	
7307	0	32216	
7308	0	32176	
7309	0	32188	
7310	0	32218	
7311	0	32244	
7312	0	32240	
7313	0	32298	
7314	0	32376	
7315	0	32380	
7316	0	32352	
7317	0	32298	
7318	0	32288	
7319	0	32296	
7320	0	32268	
7321	0	32224	
7322	0	32176	
7323	0	32120	
7324	0	32032	
7325	0	31960	
7326	0	31964	
7327	0	32072	
7328	0	32132	
7329	0	32228	
7330	0	32328	
7331	0	32408	
7332	0	32464	
7333	0	32466	
7334	0	32424	
7335	0	32368	
7336	0	32328	
7337	0	32266	
7338	0	32232	
7339	0	32220	
7340	0	32192	
7341	0	32188	
7342	0	32176	
7343	0	32172	
7344	0	32218	
7345	0	32284	
7346	0	32268	
7347	0	32288	
7348	0	32320	
7349	0	32344	
7350	0	32388	
7351	0	32452	
7352	0	32512	
7353	0	32584	
7354	0	32606	
7355	0	32570	
7356	0	32580	
7357	0	32584	
7358	0	32552	
7359	0	32504	
7360	0	32472	
7361	0	32432	
7362	0	32384	
7363	0	32320	
7364	0	32274	
7365	0	32272	
7366	0	32306	
7367	0	32384	
7368	0	32416	
7369	0	32444	
7370	0	32572	
7371	0	32652	
7372	0	32728	
7373	0	32776	
7374	0	32770	
7375	0	32728	
7376	0	32656	
7377	0	32618	
7378	0	32592	
7379	0	32544	
7380	0	32484	
7381	0	32468	
7382	0	32488	
7383	0	32504	
7384	0	32488	
7385	0	32520	
7386	0	32460	
7387	0	32472	
7388	0	32524	
7389	0	32584	
7390	0	32640	
7391	0	32732	
7392	0	32804	
7393	0	32840	
7394	0	32804	
7395	0	32780	
7396	0	32708	
7397	0	32616	
7398	0	32484	
7399	0	32488	
7400	0	32528	
7401	0	32552	
7402	0	32508	
7403	0	32492	
7404	0	32478	
7405	0	32452	
7406	0	32472	
7407	0	32552	
7408	0	32660	
7409	0	32768	
7410	0	32872	
7411	0	32968	
7412	0	33008	
7413	0	33028	
7414	0	33056	
7415	0	33056	
7416	0	33052	
7417	0	33008	
7418	0	32964	
7419	0	32956	
7420	0	32972	
7421	0	32948	
7422	0	32896	
7423	0	32888	
7424	0	32898	
7425	0	32908	
7426	0	32892	
7427	0	32885	
7428	0	32944	
7429	0	32994	
7430	0	33044	
7431	0	33068	
7432	0	33072	
7433	0	33088	
7434	0	33108	
7435	0	33152	
7436	0	33184	
7437	0	33184	
7438	0	33200	
7439	0	33168	
7440	0	33120	
7441	0	33104	
7442	0	33080	
7443	0	33040	
7444	0	33008	
7445	0	33008	
7446	0	33064	
7447	0	33088	
7448	0	33096	
7449	0	33136	
7450	0	33216	
7451	0	33282	
7452	0	33364	
7453	0	33390	
7454	0	33408	
7455	0	33408	
7456	0	33348	
7457	0	33304	
7458	0	33260	
7459	0	33268	
7460	0	33256	
7461	0	33192	
7462	0	33146	
7463	0	33172	
7464	0	33152	
7465	0	33128	
7466	0	33148	
7467	0	33120	
7468	0	33152	
7469	0	33216	
7470	0	33274	
7471	0	33264	
7472	0	33252	
7473	0	33260	
7474	0	33296	
7475	0	33362	
7476	0	33404	
7477	0	33412	
7478	0	33358	
7479	0	33292	
7480	0	33232	
7481	0	33228	
7482	0	33208	
7483	0	33208	
7484	0	33236	
7485	0	33220	
7486	0	33216	
7487	0	33248	
7488	0	33280	
7489	0	33312	
7490	0	33386	
7491	0	33480	
7492	0	33548	
7493	0	33544	
7494	0	33564	
7495	0	33594	
7496	0	33608	
7497	0	33596	
7498	0	33528	
7499	0	33440	
7500	0	33402	
7501	0	33400	
7502	0	33368	
7503	0	33388	
7504	0	33444	
7505	0	33466	
7506	0	33484	
7507	0	33560	
7508	0	33688	
7509	0	33820	
7510	0	33944	
7511	0	34028	
7512	0	34084	
7513	0	34200	
7514	0	34320	
7515	0	34336	
7516	0	34288	
7517	0	34242	
7518	0	34256	
7519	0	34256	
7520	0	34240	
7521	0	34188	
7522	0	34136	
7523	0	34044	
7524	0	33984	
7525	0	33932	
7526	0	33876	
7527	0	33852	
7528	0	33848	
7529	0	33904	
7530	0	33996	
7531	0	34120	
7532	0	34236	
7533	0	34392	
7534	0	34572	
7535	0	34776	
7536	0	34984	
7537	0	35240	
7538	0	35448	
7539	0	35588	
7540	0	35712	
7541	0	35850	
7542	0	35968	
7543	0	36058	
7544	0	36160	
7545	0	36212	
7546	0	36260	
7547	0	36220	
7548	0	36138	
7549	0	36056	
7550	0	36010	
7551	0	35944	
7552	0	35848	
7553	0	35740	
7554	0	35600	
7555	0	35404	
7556	0	35192	
7557	0	34989	
7558	0	34820	
7559	0	34656	
7560	0	34500	
7561	0	34336	
7562	0	34256	
7563	0	34216	
7564	0	34128	
7565	0	34012	
7566	0	33888	
7567	0	33800	
7568	0	33768	
7569	0	33712	
7570	0	33660	
7571	0	33624	
7572	0	33572	
7573	0	33592	
7574	0	33604	
7575	0	33552	
7576	0	33460	
7577	0	33368	
7578	0	33248	
7579	0	33128	
7580	0	33008	
7581	0	32876	
7582	0	32784	
7583	0	32684	
7584	0	32592	
7585	0	32450	
7586	0	32332	
7587	0	32232	
7588	0	32180	
7589	0	32192	
7590	0	32220	
7591	0	32244	
7592	0	32290	
7593	0	32348	
7594	0	32376	
7595	0	32364	
7596	0	32366	
7597	0	32312	
7598	0	32212	
7599	0	32100	
7600	0	32024	
7601	0	31904	
7602	0	31848	
7603	0	31840	
7604	0	31872	
7605	0	31936	
7606	0	32004	
7607	0	32024	
7608	0	32056	
7609	0	32132	
7610	0	32192	
7611	0	32260	
7612	0	32308	
7613	0	32344	
7614	0	32380	
7615	0	32388	
7616	0	32388	
7617	0	32352	
7618	0	32312	
7619	0	32248	
7620	0	32204	
7621	0	32180	
7622	0	32112	
7623	0	32118	
7624	0	32200	
7625	0	32248	
7626	0	32256	
7627	0	32328	
7628	0	32428	
7629	0	32480	
7630	0	32464	
7631	0	32480	
7632	0	32496	
7633	0	32400	
7634	0	32276	
7635	0	31984	
7636	0	31504	
7637	0	30864	
7638	0	30074	
7639	0	29392	
7640	0	28944	
7641	0	28724	
7642	0	28736	
7643	0	28904	
7644	0	29276	
7645	0	29848	
7646	0	30632	
7647	0	31616	
7648	0	32844	
7649	0	34216	
7650	0	35792	
7651	0	37476	
7652	0	39292	
7653	0	41464	
7654	0	43852	
7655	0	46676	
7656	0	49856	
7657	0	53064	
7658	0	56192	
7659	0	59296	
7660	0	61924	
7661	0	63384	
7662	0	64132	
7663	0	64472	
7664	0	64580	
7665	0	64600	
7666	0	64544	
7667	0	64464	
7668	0	64368	
7669	0	64240	
7670	0	64120	
7671	0	63972	
7672	0	58336	
7673	0	53860	
7674	0	50192	
7675	0	47048	
7676	0	44304	
7677	0	41768	
7678	0	39420	
7679	0	37328	
7680	0	35432	
7681	0	33784	
7682	0	32352	
7683	0	31140	
7684	0	30080	
7685	0	29272	
7686	0	28748	
7687	0	28420	
7688	0	28224	
7689	0	28184	
7690	0	28152	
7691	0	27992	
7692	0	27786	
7693	0	27644	
7694	0	27572	
7695	0	27512	
7696	0	27540	
7697	0	27700	
7698	0	27944	
7699	0	28180	
7700	0	28386	
7701	0	28540	
7702	0	28692	
7703	0	28816	
7704	0	28874	
7705	0	28880	
7706	0	28856	
7707	0	28880	
7708	0	28908	
7709	0	28900	
7710	0	28916	
7711	0	28916	
7712	0	28932	
7713	0	28892	
7714	0	28896	
7715	0	28860	
7716	0	28820	
7717	0	28828	
7718	0	28780	
7719	0	28720	
7720	0	28716	
7721	0	28736	
7722	0	28768	
7723	0	28808	
7724	0	28848	
7725	0	28880	
7726	0	28928	
7727	0	29024	
7728	0	29136	
7729	0	29252	
7730	0	29376	
7731	0	29458	
7732	0	29568	
7733	0	29660	
7734	0	29690	
7735	0	29608	
7736	0	29564	
7737	0	29556	
7738	0	29520	
7739	0	29480	
7740	0	29448	
7741	0	29464	
7742	0	29464	
7743	0	29532	
7744	0	29568	
7745	0	29588	
7746	0	29648	
7747	0	29716	
7748	0	29796	
7749	0	29888	
7750	0	29996	
7751	0	30124	
7752	0	30240	
7753	0	30288	
7754	0	30332	
7755	0	30416	
7756	0	30424	
7757	0	30444	
7758	0	30472	
7759	0	30444	
7760	0	30428	
7761	0	30464	
7762	0	30516	
7763	0	30548	
7764	0	30596	
7765	0	30704	
7766	0	30772	
7767	0	30840	
7768	0	30960	
7769	0	31064	
7770	0	31108	
7771	0	31176	
7772	0	31276	
7773	0	31336	
7774	0	31396	
7775	0	31476	
7776	0	31500	
7777	0	31500	
7778	0	31476	
7779	0	31448	
7780	0	31484	
7781	0	31544	
7782	0	31584	
7783	0	31600	
7784	0	31612	
7785	0	31598	
7786	0	31620	
7787	0	31684	
7788	0	31780	
7789	0	31904	
7790	0	32036	
7791	0	32168	
7792	0	32224	
7793	0	32272	
7794	0	32330	
7795	0	32352	
7796	0	32340	
7797	0	32372	
7798	0	32392	
7799	0	32376	
7800	0	32380	
7801	0	32392	
7802	0	32368	
7803	0	32344	
7804	0	32308	
7805	0	32336	
7806	0	32484	
7807	0	32624	
7808	0	32684	
7809	0	32768	
7810	0	32828	
7811	0	32920	
7812	0	32976	
7813	0	33072	
7814	0	33176	
7815	0	33328	
7816	0	33448	
7817	0	33460	
7818	0	33472	
7819	0	33456	
7820	0	33440	
7821	0	33428	
7822	0	33428	
7823	0	33448	
7824	0	33520	
7825	0	33648	
7826	0	33792	
7827	0	33880	
7828	0	33920	
7829	0	34028	
7830	0	34160	
7831	0	34252	
7832	0	34332	
7833	0	34360	
7834	0	34412	
7835	0	34484	
7836	0	34526	
7837	0	34544	
7838	0	34576	
7839	0	34580	
7840	0	34596	
7841	0	34632	
7842	0	34712	
7843	0	34864	
7844	0	34972	
7845	0	35060	
7846	0	35144	
7847	0	35300	
7848	0	35440	
7849	0	35536	
7850	0	35680	
7851	0	35824	
7852	0	35920	
7853	0	36044	
7854	0	36156	
7855	0	36236	
7856	0	36296	
7857	0	36394	
7858	0	36480	
7859	0	36556	
7860	0	36660	
7861	0	36760	
7862	0	36840	
7863	0	36908	
7864	0	37004	
7865	0	37116	
7866	0	37288	
7867	0	37452	
7868	0	37600	
7869	0	37800	
7870	0	37928	
7871	0	38020	
7872	0	38156	
7873	0	38234	
7874	0	38308	
7875	0	38396	
7876	0	38472	
7877	0	38496	
7878	0	38504	
7879	0	38484	
7880	0	38500	
7881	0	38548	
7882	0	38584	
7883	0	38664	
7884	0	38736	
7885	0	38808	
7886	0	38872	
7887	0	38900	
7888	0	38936	
7889	0	38976	
7890	0	39008	
7891	0	39032	
7892	0	39048	
7893	0	39076	
7894	0	39096	
7895	0	39060	
7896	0	39000	
7897	0	38904	
7898	0	38876	
7899	0	38856	
7900	0	38800	
7901	0	38752	
7902	0	38708	
7903	0	38680	
7904	0	38688	
7905	0	38684	
7906	0	38656	
7907	0	38596	
7908	0	38540	
7909	0	38488	
7910	0	38464	
7911	0	38476	
7912	0	38464	
7913	0	38288	
7914	0	38078	
7915	0	37908	
7916	0	37712	
7917	0	37496	
7918	0	37250	
7919	0	37024	
7920	0	36804	
7921	0	36588	
7922	0	36316	
7923	0	36064	
7924	0	35824	
7925	0	35584	
7926	0	35296	
7927	0	35032	
7928	0	34752	
7929	0	34436	
7930	0	34200	
7931	0	33964	
7932	0	33720	
7933	0	33504	
7934	0	33276	
7935	0	32996	
7936	0	32676	
7937	0	32388	
7938	0	32144	
7939	0	31924	
7940	0	31714	
7941	0	31468	
7942	0	31272	
7943	0	31104	
7944	0	30996	
7945	0	30869	
7946	0	30716	
7947	0	30560	
7948	0	30466	
7949	0	30406	
7950	0	30272	
7951	0	30176	
7952	0	30124	
7953	0	30028	
7954	0	29916	
7955	0	29784	
7956	0	29650	
7957	0	29488	
7958	0	29260	
7959	0	29056	
7960	0	28872	
7961	0	28708	
7962	0	28596	
7963	0	28504	
7964	0	28484	
7965	0	28512	
7966	0	28504	
7967	0	28516	
7968	0	28524	
7969	0	28544	
7970	0	28576	
7971	0	28538	
7972	0	28488	
7973	0	28432	
7974	0	28432	
7975	0	28426	
7976	0	28370	
7977	0	28304	
7978	0	28216	
7979	0	28152	
7980	0	28136	
7981	0	28116	
7982	0	28138	
7983	0	28168	
7984	0	28208	
7985	0	28276	
7986	0	28320	
7987	0	28364	
7988	0	28392	
7989	0	28426	
7990	0	28520	
7991	0	28640	
7992	0	28744	
7993	0	28736	
7994	0	28688	
7995	0	28664	
7996	0	28664	
7997	0	28672	
7998	0	28668	
7999	0	28680	
8000	0	28652	
8001	0	28604	
8002	0	28588	
8003	0	28588	
8004	0	28648	
8005	0	28692	
8006	0	28740	
8007	0	28804	
8008	0	28916	
8009	0	29046	
8010	0	29156	
8011	0	29228	
8012	0	29256	
8013	0	29316	
8014	0	29392	
8015	0	29458	
8016	0	29464	
8017	0	29408	
8018	0	29356	
8019	0	29328	
8020	0	29328	
8021	0	29348	
8022	0	29412	
8023	0	29480	
8024	0	29512	
8025	0	29516	
8026	0	29520	
8027	0	29528	
8028	0	29576	
8029	0	29624	
8030	0	29728	
8031	0	29822	
8032	0	29890	
8033	0	29960	
8034	0	30024	
8035	0	30072	
8036	0	30088	
8037	0	30100	
8038	0	30140	
8039	0	30160	
8040	0	30148	
8041	0	30124	
8042	0	30076	
8043	0	30080	
8044	0	30108	
8045	0	30152	
8046	0	30196	
8047	0	30264	
8048	0	30324	
8049	0	30364	
8050	0	30436	
8051	0	30572	
8052	0	30632	
8053	0	30660	
8054	0	30708	
8055	0	30736	
8056	0	30704	
8057	0	30668	
8058	0	30656	
8059	0	30682	
8060	0	30692	
8061	0	30708	
8062	0	30752	
8063	0	30756	
8064	0	30720	
8065	0	30760	
8066	0	30812	
8067	0	30856	
8068	0	30872	
8069	0	30928	
8070	0	31064	
8071	0	31204	
8072	0	31336	
8073	0	31432	
8074	0	31444	
8075	0	31432	
8076	0	31410	
8077	0	31425	
8078	0	31472	
8079	0	31444	
8080	0	31340	
8081	0	31304	
8082	0	31284	
8083	0	31242	
8084	0	31272	
8085	0	31292	
8086	0	31280	
8087	0	31325	
8088	0	31360	
8089	0	31400	
8090	0	31440	
8091	0	31464	
8092	0	31472	
8093	0	31536	
8094	0	31628	
8095	0	31708	
8096	0	31708	
8097	0	31664	
8098	0	31616	
8099	0	31604	
8100	0	31592	
8101	0	31540	
8102	0	31544	
8103	0	31520	
8104	0	31512	
8105	0	31576	
8106	0	31668	
8107	0	31732	
8108	0	31720	
8109	0	31728	
8110	0	31732	
8111	0	31772	
8112	0	31820	
8113	0	31888	
8114	0	31960	
8115	0	31930	
8116	0	31868	
8117	0	31816	
8118	0	31824	
8119	0	31824	
8120	0	31812	
8121	0	31768	
8122	0	31724	
8123	0	31696	
8124	0	31688	
8125	0	31728	
8126	0	31732	
8127	0	31740	
8128	0	31744	
8129	0	31716	
8130	0	31736	
8131	0	31756	
8132	0	31764	
8133	0	31752	
8134	0	31772	
8135	0	31804	
8136	0	31840	
8137	0	31776	
8138	0	31676	
8139	0	31632	
8140	0	31628	
8141	0	31680	
8142	0	31676	
8143	0	31688	
8144	0	31708	
8145	0	31628	
8146	0	31588	
8147	0	31637	
8148	0	31756	
8149	0	31822	
8150	0	31864	
8151	0	31900	
8152	0	31936	
8153	0	31968	
8154	0	31968	
8155	0	31952	
8156	0	31884	
8157	0	31852	
8158	0	31800	
8159	0	31728	
8160	0	31664	
8161	0	31644	
8162	0	31612	
8163	0	31552	
8164	0	31460	
8165	0	31468	
8166	0	31520	
8167	0	31568	
8168	0	31620	
8169	0	31652	
8170	0	31712	
8171	0	31808	
8172	0	31890	
8173	0	31968	
8174	0	32012	
8175	0	32000	
8176	0	31980	
8177	0	31936	
8178	0	31908	
8179	0	31848	
8180	0	31744	
8181	0	31636	
8182	0	31532	
8183	0	31482	
8184	0	31456	
8185	0	31472	
8186	0	31484	
8187	0	31464	
8188	0	31410	
8189	0	31348	
8190	0	31400	
8191	0	31552	
8192	0	31712	
8193	0	31800	
8194	0	31872	
8195	0	31880	
8196	0	31868	
8197	0	31800	
8198	0	31764	
8199	0	31752	
8200	0	31716	
8201	0	31676	
8202	0	31604	
8203	0	31546	
8204	0	31508	
8205	0	31528	
8206	0	31544	
8207	0	31576	
8208	0	31632	
8209	0	31712	
8210	0	31744	
8211	0	31824	
8212	0	31928	
8213	0	32064	
8214	0	32108	
8215	0	32108	
8216	0	32090	
8217	0	31992	
8218	0	31872	
8219	0	31744	
8220	0	31656	
8221	0	31664	
8222	0	31696	
8223	0	31704	
8224	0	31692	
8225	0	31636	
8226	0	31620	
8227	0	31632	
8228	0	31644	
8229	0	31684	
8230	0	31792	
8231	0	31900	
8232	0	31952	
8233	0	31992	
8234	0	32024	
8235	0	32066	
8236	0	32088	
8237	0	32096	
8238	0	32104	
8239	0	32032	
8240	0	31976	
8241	0	31936	
8242	0	31968	
8243	0	31992	
8244	0	31932	
8245	0	31808	
8246	0	31732	
8247	0	31768	
8248	0	31848	
8249	0	31952	
8250	0	32060	
8251	0	32148	
8252	0	32160	
8253	0	32156	
8254	0	32136	
8255	0	32130	
8256	0	32116	
8257	0	32120	
8258	0	32116	
8259	0	32132	
8260	0	32124	
8261	0	32082	
8262	0	32044	
8263	0	32050	
8264	0	32036	
8265	0	32036	
8266	0	32072	
8267	0	32104	
8268	0	32164	
8269	0	32192	
8270	0	32268	
8271	0	32336	
8272	0	32396	
8273	0	32436	
8274	0	32504	
8275	0	32494	
8276	0	32468	
8277	0	32452	
8278	0	32412	
8279	0	32352	
8280	0	32256	
8281	0	32196	
8282	0	32176	
8283	0	32168	
8284	0	32184	
8285	0	32232	
8286	0	32260	
8287	0	32264	
8288	0	32264	
8289	0	32290	
8290	0	32352	
8291	0	32464	
8292	0	32504	
8293	0	32530	
8294	0	32548	
8295	0	32544	
8296	0	32544	
8297	0	32536	
8298	0	32452	
8299	0	32360	
8300	0	32268	
8301	0	32206	
8302	0	32200	
8303	0	32212	
8304	0	32204	
8305	0	32232	
8306	0	32316	
8307	0	32400	
8308	0	32468	
8309	0	32544	
8310	0	32640	
8311	0	32672	
8312	0	32672	
8313	0	32716	
8314	0	32752	
8315	0	32788	
8316	0	32760	
8317	0	32724	
8318	0	32665	
8319	0	32632	
8320	0	32556	
8321	0	32488	
8322	0	32460	
8323	0	32468	
8324	0	32536	
8325	0	32640	
8326	0	32708	
8327	0	32800	
8328	0	32954	
8329	0	33124	
8330	0	33240	
8331	0	33336	
8332	0	33396	
8333	0	33424	
8334	0	33412	
8335	0	33440	
8336	0	33496	
8337	0	33504	
8338	0	33468	
8339	0	33432	
8340	0	33416	
8341	0	33368	
8342	0	33276	
8343	0	33180	
8344	0	33104	
8345	0	33128	
8346	0	33188	
8347	0	33244	
8348	0	33292	
8349	0	33404	
8350	0	33636	
8351	0	33884	
8352	0	34168	
8353	0	34444	
8354	0	34712	
8355	0	34936	
8356	0	35104	
8357	0	35208	
8358	0	35272	
8359	0	35428	
8360	0	35540	
8361	0	35564	
8362	0	35516	
8363	0	35432	
8364	0	35300	
8365	0	35152	
8366	0	35036	
8367	0	35000	
8368	0	35016	
8369	0	34968	
8370	0	34896	
8371	0	34788	
8372	0	34664	
8373	0	34506	
8374	0	34320	
8375	0	34180	
8376	0	34036	
8377	0	33880	
8378	0	33712	
8379	0	33576	
8380	0	33472	
8381	0	33390	
8382	0	33304	
8383	0	33230	
8384	0	33200	
8385	0	33132	
8386	0	33088	
8387	0	33066	
8388	0	33088	
8389	0	33100	
8390	0	33064	
8391	0	33032	
8392	0	32960	
8393	0	32836	
8394	0	32712	
8395	0	32620	
8396	0	32484	
8397	0	32396	
8398	0	32312	
8399	0	32204	
8400	0	32076	
8401	0	31932	
8402	0	31760	
8403	0	31624	
8404	0	31556	
8405	0	31484	
8406	0	31444	
8407	0	31416	
8408	0	31432	
8409	0	31456	
8410	0	31424	
8411	0	31492	
8412	0	31548	
8413	0	31612	
8414	0	31680	
8415	0	31714	
8416	0	31706	
8417	0	31664	
8418	0	31628	
8419	0	31656	
8420	0	31652	
8421	0	31642	
8422	0	31612	
8423	0	31628	
8424	0	31672	
8425	0	31726	
8426	0	31740	
8427	0	31744	
8428	0	31752	
8429	0	31764	
8430	0	31760	
8431	0	31784	
8432	0	31834	
8433	0	31896	
8434	0	31928	
8435	0	31920	
8436	0	31944	
8437	0	31908	
8438	0	31788	
8439	0	31752	
8440	0	31724	
8441	0	31720	
8442	0	31712	
8443	0	31772	
8444	0	31796	
8445	0	31732	
8446	0	31724	
8447	0	31788	
8448	0	31824	
8449	0	31720	
8450	0	31560	
8451	0	31328	
8452	0	30996	
8453	0	30504	
8454	0	29952	
8455	0	29528	
8456	0	29232	
8457	0	29120	
8458	0	29104	
8459	0	29224	
8460	0	29492	
8461	0	30016	
8462	0	30816	
8463	0	31856	
8464	0	33068	
8465	0	34452	
8466	0	35980	
8467	0	37588	
8468	0	39296	
8469	0	41284	
8470	0	43648	
8471	0	46408	
8472	0	49292	
8473	0	52236	
8474	0	55176	
8475	0	58092	
8476	0	60956	
8477	0	62820	
8478	0	63788	
8479	0	64240	
8480	0	64432	
8481	0	64484	
8482	0	64464	
8483	0	64384	
8484	0	64276	
8485	0	64016	
8486	0	58196	
8487	0	52768	
8488	0	47844	
8489	0	43728	
8490	0	40384	
8491	0	37812	
8492	0	35808	
8493	0	34212	
8494	0	32844	
8495	0	31580	
8496	0	30364	
8497	0	29012	
8498	0	27744	
8499	0	26632	
8500	0	25756	
8501	0	25244	
8502	0	25012	
8503	0	24952	
8504	0	25048	
8505	0	25228	
8506	0	25318	
8507	0	25356	
8508	0	25424	
8509	0	25580	
8510	0	25816	
8511	0	26132	
8512	0	26436	
8513	0	26752	
8514	0	27092	
8515	0	27444	
8516	0	27788	
8517	0	28152	
8518	0	28472	
8519	0	28760	
8520	0	28984	
8521	0	29172	
8522	0	29328	
8523	0	29492	
8524	0	29592	
8525	0	29664	
8526	0	29712	
8527	0	29808	
8528	0	29904	
8529	0	29932	
8530	0	30004	
8531	0	30100	
8532	0	30164	
8533	0	30176	
8534	0	30236	
8535	0	30300	
8536	0	30380	
8537	0	30416	
8538	0	30428	
8539	0	30408	
8540	0	30384	
8541	0	30408	
8542	0	30416	
8543	0	30450	
8544	0	30516	
8545	0	30552	
8546	0	30608	
8547	0	30708	
8548	0	30824	
8549	0	30880	
8550	0	30968	
8551	0	31100	
8552	0	31192	
8553	0	31236	
8554	0	31324	
8555	0	31372	
8556	0	31376	
8557	0	31340	
8558	0	31352	
8559	0	31386	
8560	0	31416	
8561	0	31414	
8562	0	31384	
8563	0	31352	
8564	0	31362	
8565	0	31340	
8566	0	31342	
8567	0	31444	
8568	0	31576	
8569	0	31708	
8570	0	31842	
8571	0	31948	
8572	0	32026	
8573	0	32096	
8574	0	32152	
8575	0	32192	
8576	0	32244	
8577	0	32244	
8578	0	32240	
8579	0	32250	
8580	0	32240	
8581	0	32284	
8582	0	32350	
8583	0	32324	
8584	0	32276	
8585	0	32228	
8586	0	32172	
8587	0	32208	
8588	0	32284	
8589	0	32416	
8590	0	32480	
8591	0	32528	
8592	0	32638	
