# OpenSignals Text File Format. Version 1
# {"00:07:80:4B:15:F7": {"position": 0, "device": "biosignalsplux", "device name": "00:07:80:4B:15:F7", "device connection": "BTH00:07:80:4B:15:F7", "sampling rate": 1000, "resolution": [16], "firmware version": 775, "comments": "", "keywords": "", "mode": 0, "sync interval": 2, "date": "2023-3-14", "time": "14:51:39.86", "channels": [1], "sensor": ["ECG"], "label": ["CH1"], "column": ["nSeq", "DI", "CH1"], "special": [{"SpO2": [80, 40, 5, 4, 3, 3]}, {"SpO2": [80, 40, 5, 4, 3, 3]}, {"SpO2": [80, 40, 5, 4, 3, 3]}, {"SpO2": [80, 40, 5, 4, 3, 3]}, {"SpO2": [80, 40, 5, 4, 3, 3]}, {"SpO2": [80, 40, 5, 4, 3, 3]}, {"SpO2": [80, 40, 5, 4, 3, 3]}, {"SpO2": [80, 40, 5, 4, 3, 3]}], "digital IO": [0, 1], "sleeve color": ["green"], "convertedValues": 0}}
# EndOfHeader
0	0	32064	
1	0	32076	
2	0	32164	
3	0	32204	
4	0	32268	
5	0	32348	
6	0	32374	
7	0	32352	
8	0	32368	
9	0	32456	
10	0	32496	
11	0	32480	
12	0	32460	
13	0	32404	
14	0	32344	
15	0	32280	
16	0	32304	
17	0	32292	
18	0	32252	
19	0	32280	
20	0	32300	
21	0	32322	
22	0	32360	
23	0	32396	
24	0	32464	
25	0	32516	
26	0	32568	
27	0	32640	
28	0	32656	
29	0	32692	
30	0	32680	
31	0	32602	
32	0	32612	
33	0	32634	
34	0	32660	
35	0	32616	
36	0	32540	
37	0	32448	
38	0	32438	
39	0	32432	
40	0	32380	
41	0	32340	
42	0	32384	
43	0	32516	
44	0	32604	
45	0	32724	
46	0	32798	
47	0	32848	
48	0	32924	
49	0	33012	
50	0	33072	
51	0	33048	
52	0	33000	
53	0	32928	
54	0	32826	
55	0	32700	
56	0	32628	
57	0	32620	
58	0	32660	
59	0	32660	
60	0	32624	
61	0	32576	
62	0	32592	
63	0	32676	
64	0	32720	
65	0	32744	
66	0	32776	
67	0	32812	
68	0	32836	
69	0	32908	
70	0	32992	
71	0	32996	
72	0	32960	
73	0	32928	
74	0	32896	
75	0	32860	
76	0	32840	
77	0	32856	
78	0	32848	
79	0	32808	
80	0	32824	
81	0	32876	
82	0	32984	
83	0	33072	
84	0	33128	
85	0	33304	
86	0	33504	
87	0	33632	
88	0	33700	
89	0	33872	
90	0	33960	
91	0	33972	
92	0	34048	
93	0	34124	
94	0	34168	
95	0	34152	
96	0	34136	
97	0	34116	
98	0	34116	
99	0	34042	
100	0	34016	
101	0	34064	
102	0	34176	
103	0	34272	
104	0	34380	
105	0	34532	
106	0	34664	
107	0	34740	
108	0	34776	
109	0	34832	
110	0	34936	
111	0	35060	
112	0	35240	
113	0	35412	
114	0	35496	
115	0	35460	
116	0	35432	
117	0	35456	
118	0	35456	
119	0	35402	
120	0	35332	
121	0	35276	
122	0	35320	
123	0	35408	
124	0	35428	
125	0	35424	
126	0	35464	
127	0	35456	
128	0	35436	
129	0	35416	
130	0	35344	
131	0	35272	
132	0	35140	
133	0	34964	
134	0	34812	
135	0	34600	
136	0	34356	
137	0	34212	
138	0	34148	
139	0	34140	
140	0	34116	
141	0	34096	
142	0	34136	
143	0	34164	
144	0	34152	
145	0	34096	
146	0	34160	
147	0	34228	
148	0	34272	
149	0	34308	
150	0	34210	
151	0	34088	
152	0	33944	
153	0	33820	
154	0	33748	
155	0	33600	
156	0	33448	
157	0	33344	
158	0	33216	
159	0	33112	
160	0	32960	
161	0	32836	
162	0	32784	
163	0	32696	
164	0	32600	
165	0	32548	
166	0	32540	
167	0	32508	
168	0	32476	
169	0	32480	
170	0	32476	
171	0	32360	
172	0	32278	
173	0	32236	
174	0	32264	
175	0	32288	
176	0	32216	
177	0	32180	
178	0	32200	
179	0	32204	
180	0	32252	
181	0	32272	
182	0	32288	
183	0	32252	
184	0	32216	
185	0	32208	
186	0	32250	
187	0	32320	
188	0	32412	
189	0	32480	
190	0	32496	
191	0	32464	
192	0	32432	
193	0	32404	
194	0	32344	
195	0	32304	
196	0	32244	
197	0	32136	
198	0	32088	
199	0	32112	
200	0	32112	
201	0	32150	
202	0	32152	
203	0	32216	
204	0	32348	
205	0	32368	
206	0	32380	
207	0	32414	
208	0	32448	
209	0	32452	
210	0	32492	
211	0	32532	
212	0	32532	
213	0	32548	
214	0	32532	
215	0	32464	
216	0	32372	
217	0	32354	
218	0	32400	
219	0	32400	
220	0	32404	
221	0	32444	
222	0	32456	
223	0	32400	
224	0	32296	
225	0	32288	
226	0	32252	
227	0	32148	
228	0	32024	
229	0	31896	
230	0	31792	
231	0	31760	
232	0	31784	
233	0	31872	
234	0	31960	
235	0	32178	
236	0	32576	
237	0	33114	
238	0	33728	
239	0	34548	
240	0	35640	
241	0	36888	
242	0	38328	
243	0	39924	
244	0	41488	
245	0	43040	
246	0	44576	
247	0	46060	
248	0	47552	
249	0	49028	
250	0	50416	
251	0	51692	
252	0	52920	
253	0	54136	
254	0	55392	
255	0	56552	
256	0	57600	
257	0	58712	
258	0	59780	
259	0	60560	
260	0	60960	
261	0	60600	
262	0	59340	
263	0	57376	
264	0	54568	
265	0	51280	
266	0	47928	
267	0	44260	
268	0	40120	
269	0	35784	
270	0	31808	
271	0	28772	
272	0	26794	
273	0	25784	
274	0	25404	
275	0	25402	
276	0	25632	
277	0	25820	
278	0	25992	
279	0	26156	
280	0	26344	
281	0	26616	
282	0	26924	
283	0	27264	
284	0	27532	
285	0	27848	
286	0	28172	
287	0	28536	
288	0	28912	
289	0	29276	
290	0	29584	
291	0	29904	
292	0	30160	
293	0	30228	
294	0	30196	
295	0	30204	
296	0	30164	
297	0	30088	
298	0	29972	
299	0	29840	
300	0	29786	
301	0	29736	
302	0	29736	
303	0	29800	
304	0	29920	
305	0	30040	
306	0	30108	
307	0	30176	
308	0	30184	
309	0	30280	
310	0	30384	
311	0	30392	
312	0	30408	
313	0	30316	
314	0	30208	
315	0	30184	
316	0	30220	
317	0	30196	
318	0	30156	
319	0	30176	
320	0	30288	
321	0	30368	
322	0	30368	
323	0	30392	
324	0	30444	
325	0	30504	
326	0	30592	
327	0	30736	
328	0	30824	
329	0	30868	
330	0	30868	
331	0	30868	
332	0	30892	
333	0	30864	
334	0	30840	
335	0	30786	
336	0	30746	
337	0	30744	
338	0	30704	
339	0	30656	
340	0	30676	
341	0	30796	
342	0	30932	
343	0	31010	
344	0	31080	
345	0	31144	
346	0	31228	
347	0	31364	
348	0	31480	
349	0	31516	
350	0	31496	
351	0	31476	
352	0	31488	
353	0	31480	
354	0	31440	
355	0	31436	
356	0	31420	
357	0	31332	
358	0	31312	
359	0	31292	
360	0	31288	
361	0	31304	
362	0	31408	
363	0	31520	
364	0	31600	
365	0	31696	
366	0	31776	
367	0	31840	
368	0	31876	
369	0	31962	
370	0	31920	
371	0	31910	
372	0	31876	
373	0	31856	
374	0	31816	
375	0	31812	
376	0	31808	
377	0	31768	
378	0	31750	
379	0	31728	
380	0	31748	
381	0	31792	
382	0	31792	
383	0	31808	
384	0	31868	
385	0	31920	
386	0	31996	
387	0	32088	
388	0	32156	
389	0	32196	
390	0	32220	
391	0	32168	
392	0	32164	
393	0	32204	
394	0	32236	
395	0	32266	
396	0	32296	
397	0	32264	
398	0	32256	
399	0	32272	
400	0	32260	
401	0	32256	
402	0	32248	
403	0	32328	
404	0	32456	
405	0	32552	
406	0	32664	
407	0	32688	
408	0	32708	
409	0	32814	
410	0	32916	
411	0	32964	
412	0	33024	
413	0	33028	
414	0	32972	
415	0	32900	
416	0	32800	
417	0	32720	
418	0	32772	
419	0	32864	
420	0	32968	
421	0	33004	
422	0	33096	
423	0	33176	
424	0	33290	
425	0	33392	
426	0	33476	
427	0	33520	
428	0	33632	
429	0	33720	
430	0	33796	
431	0	33824	
432	0	33852	
433	0	33856	
434	0	33788	
435	0	33712	
436	0	33640	
437	0	33644	
438	0	33728	
439	0	33760	
440	0	33840	
441	0	33960	
442	0	34080	
443	0	34252	
444	0	34412	
445	0	34496	
446	0	34592	
447	0	34680	
448	0	34760	
449	0	34880	
450	0	34968	
451	0	34996	
452	0	35012	
453	0	35088	
454	0	35168	
455	0	35336	
456	0	35426	
457	0	35384	
458	0	35324	
459	0	35368	
460	0	35484	
461	0	35532	
462	0	35620	
463	0	35760	
464	0	35932	
465	0	36104	
466	0	36236	
467	0	36328	
468	0	36440	
469	0	36536	
470	0	36612	
471	0	36716	
472	0	36752	
473	0	36748	
474	0	36704	
475	0	36680	
476	0	36676	
477	0	36680	
478	0	36724	
479	0	36672	
480	0	36704	
481	0	36796	
482	0	36880	
483	0	36952	
484	0	36922	
485	0	36940	
486	0	37020	
487	0	37064	
488	0	37152	
489	0	37220	
490	0	37248	
491	0	37236	
492	0	37168	
493	0	37098	
494	0	37012	
495	0	36948	
496	0	36906	
497	0	36812	
498	0	36732	
499	0	36704	
500	0	36656	
501	0	36632	
502	0	36608	
503	0	36596	
504	0	36492	
505	0	36448	
506	0	36388	
507	0	36308	
508	0	36252	
509	0	36240	
510	0	36168	
511	0	36068	
512	0	35912	
513	0	35664	
514	0	35424	
515	0	35252	
516	0	35036	
517	0	34924	
518	0	34780	
519	0	34568	
520	0	34328	
521	0	34116	
522	0	33934	
523	0	33792	
524	0	33636	
525	0	33484	
526	0	33376	
527	0	33236	
528	0	33084	
529	0	32880	
530	0	32697	
531	0	32540	
532	0	32376	
533	0	32224	
534	0	32068	
535	0	31888	
536	0	31644	
537	0	31400	
538	0	31200	
539	0	31008	
540	0	30848	
541	0	30700	
542	0	30584	
543	0	30508	
544	0	30412	
545	0	30352	
546	0	30260	
547	0	30188	
548	0	30112	
549	0	30076	
550	0	30020	
551	0	30000	
552	0	29956	
553	0	29824	
554	0	29708	
555	0	29600	
556	0	29476	
557	0	29324	
558	0	29210	
559	0	29092	
560	0	29064	
561	0	29092	
562	0	29104	
563	0	29108	
564	0	29076	
565	0	29080	
566	0	29124	
567	0	29200	
568	0	29208	
569	0	29244	
570	0	29272	
571	0	29252	
572	0	29220	
573	0	29208	
574	0	29216	
575	0	29192	
576	0	29076	
577	0	28920	
578	0	28922	
579	0	28930	
580	0	28920	
581	0	28928	
582	0	28944	
583	0	28960	
584	0	29056	
585	0	29116	
586	0	29122	
587	0	29210	
588	0	29314	
589	0	29360	
590	0	29368	
591	0	29372	
592	0	29408	
593	0	29474	
594	0	29520	
595	0	29556	
596	0	29520	
597	0	29436	
598	0	29440	
599	0	29468	
600	0	29420	
601	0	29384	
602	0	29424	
603	0	29500	
604	0	29556	
605	0	29604	
606	0	29696	
607	0	29792	
608	0	29872	
609	0	29960	
610	0	30012	
611	0	29992	
612	0	29936	
613	0	29912	
614	0	29852	
615	0	29800	
616	0	29796	
617	0	29796	
618	0	29780	
619	0	29844	
620	0	29896	
621	0	29936	
622	0	30008	
623	0	30100	
624	0	30160	
625	0	30216	
626	0	30352	
627	0	30494	
628	0	30536	
629	0	30572	
630	0	30580	
631	0	30584	
632	0	30552	
633	0	30484	
634	0	30420	
635	0	30368	
636	0	30348	
637	0	30352	
638	0	30384	
639	0	30396	
640	0	30416	
641	0	30466	
642	0	30560	
643	0	30576	
644	0	30560	
645	0	30592	
646	0	30664	
647	0	30744	
648	0	30880	
649	0	31024	
650	0	31080	
651	0	31120	
652	0	31150	
653	0	31120	
654	0	31120	
655	0	31116	
656	0	31104	
657	0	31088	
658	0	31038	
659	0	30980	
660	0	30932	
661	0	30912	
662	0	30956	
663	0	31038	
664	0	31008	
665	0	30980	
666	0	31000	
667	0	31096	
668	0	31266	
669	0	31424	
670	0	31492	
671	0	31496	
672	0	31460	
673	0	31452	
674	0	31436	
675	0	31432	
676	0	31356	
677	0	31296	
678	0	31220	
679	0	31136	
680	0	31072	
681	0	31068	
682	0	31148	
683	0	31200	
684	0	31160	
685	0	31184	
686	0	31264	
687	0	31344	
688	0	31412	
689	0	31484	
690	0	31552	
691	0	31552	
692	0	31584	
693	0	31608	
694	0	31624	
695	0	31592	
696	0	31536	
697	0	31496	
698	0	31444	
699	0	31452	
700	0	31492	
701	0	31552	
702	0	31632	
703	0	31718	
704	0	31714	
705	0	31754	
706	0	31892	
707	0	32000	
708	0	31996	
709	0	32028	
710	0	32020	
711	0	32002	
712	0	31956	
713	0	31900	
714	0	31914	
715	0	31888	
716	0	31828	
717	0	31716	
718	0	31640	
719	0	31588	
720	0	31564	
721	0	31588	
722	0	31608	
723	0	31656	
724	0	31714	
725	0	31808	
726	0	31884	
727	0	31932	
728	0	31988	
729	0	32004	
730	0	32026	
731	0	32000	
732	0	31988	
733	0	31980	
734	0	32000	
735	0	31988	
736	0	31960	
737	0	31988	
738	0	31930	
739	0	31848	
740	0	31828	
741	0	31840	
742	0	31840	
743	0	31856	
744	0	31944	
745	0	32052	
746	0	32180	
747	0	32224	
748	0	32256	
749	0	32320	
750	0	32432	
751	0	32504	
752	0	32448	
753	0	32368	
754	0	32344	
755	0	32324	
756	0	32228	
757	0	32170	
758	0	32096	
759	0	31976	
760	0	31888	
761	0	31880	
762	0	31956	
763	0	32016	
764	0	32040	
765	0	32076	
766	0	32160	
767	0	32298	
768	0	32396	
769	0	32452	
770	0	32444	
771	0	32436	
772	0	32418	
773	0	32412	
774	0	32412	
775	0	32396	
776	0	32290	
777	0	32244	
778	0	32208	
779	0	32180	
780	0	32184	
781	0	32240	
782	0	32264	
783	0	32312	
784	0	32344	
785	0	32396	
786	0	32456	
787	0	32468	
788	0	32468	
789	0	32532	
790	0	32554	
791	0	32576	
792	0	32568	
793	0	32576	
794	0	32596	
795	0	32540	
796	0	32396	
797	0	32264	
798	0	32268	
799	0	32276	
800	0	32328	
801	0	32368	
802	0	32432	
803	0	32460	
804	0	32472	
805	0	32512	
806	0	32562	
807	0	32612	
808	0	32688	
809	0	32796	
810	0	32844	
811	0	32928	
812	0	32952	
813	0	32964	
814	0	33000	
815	0	33032	
816	0	33036	
817	0	33088	
818	0	33192	
819	0	33352	
820	0	33404	
821	0	33504	
822	0	33660	
823	0	33748	
824	0	33793	
825	0	33840	
826	0	33872	
827	0	33924	
828	0	34016	
829	0	34120	
830	0	34184	
831	0	34224	
832	0	34256	
833	0	34240	
834	0	34208	
835	0	34228	
836	0	34252	
837	0	34240	
838	0	34312	
839	0	34432	
840	0	34540	
841	0	34640	
842	0	34784	
843	0	34944	
844	0	35056	
845	0	35120	
846	0	35180	
847	0	35204	
848	0	35188	
849	0	35240	
850	0	35312	
851	0	35308	
852	0	35352	
853	0	35392	
854	0	35392	
855	0	35360	
856	0	35236	
857	0	35056	
858	0	34916	
859	0	34784	
860	0	34644	
861	0	34528	
862	0	34416	
863	0	34344	
864	0	34256	
865	0	34184	
866	0	34164	
867	0	34184	
868	0	34190	
869	0	34248	
870	0	34220	
871	0	34192	
872	0	34104	
873	0	34000	
874	0	33856	
875	0	33716	
876	0	33560	
877	0	33464	
878	0	33384	
879	0	33304	
880	0	33196	
881	0	33128	
882	0	33060	
883	0	32992	
884	0	32952	
885	0	32904	
886	0	32904	
887	0	32856	
888	0	32780	
889	0	32768	
890	0	32788	
891	0	32748	
892	0	32660	
893	0	32530	
894	0	32340	
895	0	32172	
896	0	32016	
897	0	31928	
898	0	31832	
899	0	31688	
900	0	31584	
901	0	31524	
902	0	31492	
903	0	31524	
904	0	31580	
905	0	31648	
906	0	31776	
907	0	31860	
908	0	31884	
909	0	31908	
910	0	31940	
911	0	31932	
912	0	31924	
913	0	31900	
914	0	31868	
915	0	31876	
916	0	31824	
917	0	31800	
918	0	31768	
919	0	31760	
920	0	31748	
921	0	31740	
922	0	31648	
923	0	31620	
924	0	31672	
925	0	31716	
926	0	31840	
927	0	31908	
928	0	31972	
929	0	32012	
930	0	32004	
931	0	31988	
932	0	31952	
933	0	31904	
934	0	31816	
935	0	31824	
936	0	31802	
937	0	31756	
938	0	31800	
939	0	31828	
940	0	31816	
941	0	31804	
942	0	31888	
943	0	32032	
944	0	32096	
945	0	32136	
946	0	32232	
947	0	32368	
948	0	32472	
949	0	32480	
950	0	32436	
951	0	32420	
952	0	32352	
953	0	32200	
954	0	32084	
955	0	32012	
956	0	31894	
957	0	31648	
958	0	31432	
959	0	31320	
960	0	31208	
961	0	31148	
962	0	31204	
963	0	31368	
964	0	31588	
965	0	31932	
966	0	32432	
967	0	32992	
968	0	33660	
969	0	34476	
970	0	35564	
971	0	36756	
972	0	38152	
973	0	39716	
974	0	41164	
975	0	42492	
976	0	43864	
977	0	45256	
978	0	46692	
979	0	48160	
980	0	49536	
981	0	50756	
982	0	51972	
983	0	53184	
984	0	54432	
985	0	55700	
986	0	56968	
987	0	58280	
988	0	59584	
989	0	60624	
990	0	61216	
991	0	61096	
992	0	59920	
993	0	57964	
994	0	55152	
995	0	51660	
996	0	48028	
997	0	44280	
998	0	40168	
999	0	35804	
1000	0	31724	
1001	0	28548	
1002	0	26480	
1003	0	25368	
1004	0	24924	
1005	0	24888	
1006	0	25160	
1007	0	25568	
1008	0	25924	
1009	0	26168	
1010	0	26364	
1011	0	26608	
1012	0	26840	
1013	0	27112	
1014	0	27320	
1015	0	27536	
1016	0	27800	
1017	0	28124	
1018	0	28416	
1019	0	28700	
1020	0	28986	
1021	0	29284	
1022	0	29564	
1023	0	29808	
1024	0	30028	
1025	0	30104	
1026	0	30128	
1027	0	30196	
1028	0	30196	
1029	0	30136	
1030	0	30124	
1031	0	30112	
1032	0	30064	
1033	0	30036	
1034	0	30000	
1035	0	29880	
1036	0	29788	
1037	0	29780	
1038	0	29766	
1039	0	29760	
1040	0	29792	
1041	0	29796	
1042	0	29812	
1043	0	29848	
1044	0	29944	
1045	0	30072	
1046	0	30204	
1047	0	30264	
1048	0	30320	
1049	0	30420	
1050	0	30440	
1051	0	30392	
1052	0	30400	
1053	0	30432	
1054	0	30492	
1055	0	30488	
1056	0	30440	
1057	0	30408	
1058	0	30448	
1059	0	30456	
1060	0	30508	
1061	0	30568	
1062	0	30648	
1063	0	30752	
1064	0	30832	
1065	0	30944	
1066	0	31040	
1067	0	31128	
1068	0	31104	
1069	0	31128	
1070	0	31182	
1071	0	31180	
1072	0	31128	
1073	0	31060	
1074	0	31060	
1075	0	31064	
1076	0	31052	
1077	0	31028	
1078	0	30984	
1079	0	30976	
1080	0	30976	
1081	0	31012	
1082	0	31080	
1083	0	31192	
1084	0	31248	
1085	0	31328	
1086	0	31440	
1087	0	31524	
1088	0	31616	
1089	0	31712	
1090	0	31792	
1091	0	31880	
1092	0	31904	
1093	0	31840	
1094	0	31800	
1095	0	31776	
1096	0	31740	
1097	0	31690	
1098	0	31696	
1099	0	31682	
1100	0	31608	
1101	0	31644	
1102	0	31668	
1103	0	31736	
1104	0	31772	
1105	0	31832	
1106	0	31956	
1107	0	32008	
1108	0	32024	
1109	0	32064	
1110	0	32120	
1111	0	32130	
1112	0	32104	
1113	0	32094	
1114	0	32144	
1115	0	32200	
1116	0	32200	
1117	0	32224	
1118	0	32204	
1119	0	32176	
1120	0	32204	
1121	0	32184	
1122	0	32196	
1123	0	32276	
1124	0	32372	
1125	0	32476	
1126	0	32556	
1127	0	32584	
1128	0	32568	
1129	0	32624	
1130	0	32690	
1131	0	32688	
1132	0	32636	
1133	0	32600	
1134	0	32548	
1135	0	32520	
1136	0	32564	
1137	0	32640	
1138	0	32724	
1139	0	32672	
1140	0	32620	
1141	0	32616	
1142	0	32672	
1143	0	32768	
1144	0	32872	
1145	0	32964	
1146	0	33108	
1147	0	33228	
1148	0	33332	
1149	0	33412	
1150	0	33520	
1151	0	33596	
1152	0	33630	
1153	0	33604	
1154	0	33576	
1155	0	33572	
1156	0	33592	
1157	0	33632	
1158	0	33624	
1159	0	33628	
1160	0	33680	
1161	0	33728	
1162	0	33812	
1163	0	33916	
1164	0	34040	
1165	0	34136	
1166	0	34256	
1167	0	34432	
1168	0	34564	
1169	0	34680	
1170	0	34748	
1171	0	34768	
1172	0	34832	
1173	0	34896	
1174	0	34892	
1175	0	34880	
1176	0	34884	
1177	0	34904	
1178	0	34964	
1179	0	34992	
1180	0	35040	
1181	0	35104	
1182	0	35144	
1183	0	35282	
1184	0	35424	
1185	0	35536	
1186	0	35668	
1187	0	35810	
1188	0	35940	
1189	0	36076	
1190	0	36202	
1191	0	36304	
1192	0	36386	
1193	0	36452	
1194	0	36508	
1195	0	36532	
1196	0	36520	
1197	0	36536	
1198	0	36616	
1199	0	36692	
1200	0	36760	
1201	0	36792	
1202	0	36872	
1203	0	36968	
1204	0	37096	
1205	0	37252	
1206	0	37380	
1207	0	37452	
1208	0	37536	
1209	0	37560	
1210	0	37568	
1211	0	37600	
1212	0	37588	
1213	0	37556	
1214	0	37500	
1215	0	37436	
1216	0	37340	
1217	0	37300	
1218	0	37280	
1219	0	37240	
1220	0	37232	
1221	0	37260	
1222	0	37372	
1223	0	37432	
1224	0	37424	
1225	0	37440	
1226	0	37508	
1227	0	37524	
1228	0	37488	
1229	0	37460	
1230	0	37420	
1231	0	37256	
1232	0	37072	
1233	0	37008	
1234	0	36928	
1235	0	36804	
1236	0	36600	
1237	0	36380	
1238	0	36256	
1239	0	36148	
1240	0	36008	
1241	0	35842	
1242	0	35716	
1243	0	35600	
1244	0	35524	
1245	0	35454	
1246	0	35354	
1247	0	35192	
1248	0	35076	
1249	0	34984	
1250	0	34824	
1251	0	34628	
1252	0	34388	
1253	0	34116	
1254	0	33812	
1255	0	33524	
1256	0	33232	
1257	0	32996	
1258	0	32800	
1259	0	32634	
1260	0	32396	
1261	0	32242	
1262	0	32144	
1263	0	32028	
1264	0	31880	
1265	0	31796	
1266	0	31696	
1267	0	31588	
1268	0	31508	
1269	0	31448	
1270	0	31320	
1271	0	31212	
1272	0	31096	
1273	0	30976	
1274	0	30816	
1275	0	30632	
1276	0	30456	
1277	0	30305	
1278	0	30192	
1279	0	30144	
1280	0	30044	
1281	0	29920	
1282	0	29836	
1283	0	29828	
1284	0	29828	
1285	0	29820	
1286	0	29788	
1287	0	29788	
1288	0	29760	
1289	0	29776	
1290	0	29764	
1291	0	29714	
1292	0	29656	
1293	0	29608	
1294	0	29588	
1295	0	29520	
1296	0	29460	
1297	0	29404	
1298	0	29308	
1299	0	29280	
1300	0	29264	
1301	0	29244	
1302	0	29264	
1303	0	29292	
1304	0	29268	
1305	0	29328	
1306	0	29416	
1307	0	29528	
1308	0	29640	
1309	0	29724	
1310	0	29756	
1311	0	29658	
1312	0	29556	
1313	0	29536	
1314	0	29488	
1315	0	29500	
1316	0	29492	
1317	0	29498	
1318	0	29460	
1319	0	29432	
1320	0	29458	
1321	0	29464	
1322	0	29472	
1323	0	29464	
1324	0	29500	
1325	0	29612	
1326	0	29736	
1327	0	29796	
1328	0	29856	
1329	0	29896	
1330	0	29924	
1331	0	29888	
1332	0	29864	
1333	0	29842	
1334	0	29816	
1335	0	29800	
1336	0	29816	
1337	0	29808	
1338	0	29840	
1339	0	29860	
1340	0	29872	
1341	0	29906	
1342	0	29940	
1343	0	29968	
1344	0	29990	
1345	0	30024	
1346	0	30112	
1347	0	30216	
1348	0	30324	
1349	0	30408	
1350	0	30452	
1351	0	30496	
1352	0	30480	
1353	0	30478	
1354	0	30480	
1355	0	30464	
1356	0	30456	
1357	0	30456	
1358	0	30512	
1359	0	30558	
1360	0	30572	
1361	0	30532	
1362	0	30592	
1363	0	30682	
1364	0	30688	
1365	0	30708	
1366	0	30792	
1367	0	30868	
1368	0	30886	
1369	0	30912	
1370	0	30948	
1371	0	30988	
1372	0	31086	
1373	0	31068	
1374	0	30988	
1375	0	30952	
1376	0	30932	
1377	0	30836	
1378	0	30826	
1379	0	30808	
1380	0	30816	
1381	0	30860	
1382	0	30916	
1383	0	30964	
1384	0	31020	
1385	0	31104	
1386	0	31192	
1387	0	31296	
1388	0	31348	
1389	0	31444	
1390	0	31456	
1391	0	31396	
1392	0	31408	
1393	0	31412	
1394	0	31412	
1395	0	31360	
1396	0	31252	
1397	0	31256	
1398	0	31256	
1399	0	31258	
1400	0	31252	
1401	0	31304	
1402	0	31384	
1403	0	31408	
1404	0	31432	
1405	0	31492	
1406	0	31576	
1407	0	31690	
1408	0	31760	
1409	0	31804	
1410	0	31816	
1411	0	31800	
1412	0	31756	
1413	0	31680	
1414	0	31640	
1415	0	31612	
1416	0	31596	
1417	0	31604	
1418	0	31560	
1419	0	31520	
1420	0	31502	
1421	0	31488	
1422	0	31532	
1423	0	31624	
1424	0	31700	
1425	0	31700	
1426	0	31724	
1427	0	31780	
1428	0	31840	
1429	0	31960	
1430	0	32024	
1431	0	32020	
1432	0	32032	
1433	0	32052	
1434	0	31996	
1435	0	31904	
1436	0	31832	
1437	0	31792	
1438	0	31746	
1439	0	31720	
1440	0	31764	
1441	0	31768	
1442	0	31768	
1443	0	31784	
1444	0	31808	
1445	0	31868	
1446	0	32008	
1447	0	32108	
1448	0	32152	
1449	0	32164	
1450	0	32108	
1451	0	32048	
1452	0	32032	
1453	0	32060	
1454	0	32028	
1455	0	31948	
1456	0	31896	
1457	0	31848	
1458	0	31848	
1459	0	31852	
1460	0	31844	
1461	0	31920	
1462	0	32032	
1463	0	32080	
1464	0	32124	
1465	0	32160	
1466	0	32188	
1467	0	32274	
1468	0	32352	
1469	0	32352	
1470	0	32328	
1471	0	32296	
1472	0	32284	
1473	0	32288	
1474	0	32260	
1475	0	32192	
1476	0	32140	
1477	0	32064	
1478	0	32018	
1479	0	32036	
1480	0	32080	
1481	0	32096	
1482	0	32100	
1483	0	32096	
1484	0	32108	
1485	0	32188	
1486	0	32276	
1487	0	32344	
1488	0	32400	
1489	0	32480	
1490	0	32532	
1491	0	32570	
1492	0	32524	
1493	0	32384	
1494	0	32356	
1495	0	32400	
1496	0	32368	
1497	0	32252	
1498	0	32192	
1499	0	32240	
1500	0	32272	
1501	0	32304	
1502	0	32352	
1503	0	32424	
1504	0	32464	
1505	0	32516	
1506	0	32588	
1507	0	32604	
1508	0	32632	
1509	0	32656	
1510	0	32690	
1511	0	32712	
1512	0	32746	
1513	0	32752	
1514	0	32672	
1515	0	32602	
1516	0	32552	
1517	0	32512	
1518	0	32428	
1519	0	32380	
1520	0	32376	
1521	0	32400	
1522	0	32414	
1523	0	32404	
1524	0	32424	
1525	0	32506	
1526	0	32592	
1527	0	32676	
1528	0	32732	
1529	0	32824	
1530	0	32864	
1531	0	32864	
1532	0	32788	
1533	0	32714	
1534	0	32712	
1535	0	32716	
1536	0	32664	
1537	0	32596	
1538	0	32600	
1539	0	32544	
1540	0	32552	
1541	0	32560	
1542	0	32584	
1543	0	32624	
1544	0	32648	
1545	0	32732	
1546	0	32856	
1547	0	32944	
1548	0	32972	
1549	0	33004	
1550	0	33020	
1551	0	32992	
1552	0	32896	
1553	0	32860	
1554	0	32902	
1555	0	32924	
1556	0	32896	
1557	0	32900	
1558	0	32892	
1559	0	32840	
1560	0	32848	
1561	0	32912	
1562	0	32964	
1563	0	32964	
1564	0	32916	
1565	0	32924	
1566	0	32980	
1567	0	33024	
1568	0	33080	
1569	0	33132	
1570	0	33152	
1571	0	33156	
1572	0	33124	
1573	0	33068	
1574	0	33052	
1575	0	33084	
1576	0	33012	
1577	0	32904	
1578	0	32844	
1579	0	32826	
1580	0	32768	
1581	0	32784	
1582	0	32788	
1583	0	32816	
1584	0	32860	
1585	0	32974	
1586	0	33100	
1587	0	33264	
1588	0	33432	
1589	0	33528	
1590	0	33652	
1591	0	33744	
1592	0	33800	
1593	0	33852	
1594	0	33892	
1595	0	33976	
1596	0	34018	
1597	0	34060	
1598	0	34100	
1599	0	34152	
1600	0	34152	
1601	0	34176	
1602	0	34224	
1603	0	34304	
1604	0	34424	
1605	0	34552	
1606	0	34588	
1607	0	34620	
1608	0	34660	
1609	0	34680	
1610	0	34684	
1611	0	34792	
1612	0	34912	
1613	0	34968	
1614	0	35024	
1615	0	35044	
1616	0	35092	
1617	0	35208	
1618	0	35272	
1619	0	35332	
1620	0	35388	
1621	0	35388	
1622	0	35396	
1623	0	35384	
1624	0	35412	
1625	0	35396	
1626	0	35424	
1627	0	35488	
1628	0	35610	
1629	0	35776	
1630	0	35848	
1631	0	35752	
1632	0	35588	
1633	0	35416	
1634	0	35248	
1635	0	35072	
1636	0	34872	
1637	0	34648	
1638	0	34404	
1639	0	34308	
1640	0	34150	
1641	0	34028	
1642	0	34004	
1643	0	34016	
1644	0	34040	
1645	0	34048	
1646	0	34008	
1647	0	33972	
1648	0	33964	
1649	0	33960	
1650	0	33980	
1651	0	33972	
1652	0	33952	
1653	0	33912	
1654	0	33832	
1655	0	33696	
1656	0	33580	
1657	0	33452	
1658	0	33306	
1659	0	33232	
1660	0	33132	
1661	0	33088	
1662	0	33044	
1663	0	33026	
1664	0	33012	
1665	0	32960	
1666	0	32892	
1667	0	32848	
1668	0	32836	
1669	0	32848	
1670	0	32802	
1671	0	32704	
1672	0	32506	
1673	0	32298	
1674	0	32188	
1675	0	32120	
1676	0	32060	
1677	0	31984	
1678	0	31904	
1679	0	31888	
1680	0	31928	
1681	0	31984	
1682	0	32020	
1683	0	32128	
1684	0	32188	
1685	0	32196	
1686	0	32244	
1687	0	32312	
1688	0	32344	
1689	0	32336	
1690	0	32316	
1691	0	32332	
1692	0	32306	
1693	0	32232	
1694	0	32176	
1695	0	32176	
1696	0	32128	
1697	0	32096	
1698	0	32072	
1699	0	32064	
1700	0	32044	
1701	0	32012	
1702	0	31976	
1703	0	31988	
1704	0	32080	
1705	0	32160	
1706	0	32192	
1707	0	32228	
1708	0	32288	
1709	0	32352	
1710	0	32360	
1711	0	32392	
1712	0	32384	
1713	0	32376	
1714	0	32392	
1715	0	32352	
1716	0	32228	
1717	0	32204	
1718	0	32280	
1719	0	32288	
1720	0	32300	
1721	0	32288	
1722	0	32248	
1723	0	32232	
1724	0	32260	
1725	0	32312	
1726	0	32332	
1727	0	32336	
1728	0	32298	
1729	0	32262	
1730	0	32140	
1731	0	32020	
1732	0	31876	
1733	0	31776	
1734	0	31696	
1735	0	31660	
1736	0	31712	
1737	0	31872	
1738	0	32200	
1739	0	32736	
1740	0	33296	
1741	0	33880	
1742	0	34744	
1743	0	35844	
1744	0	37084	
1745	0	38476	
1746	0	40028	
1747	0	41568	
1748	0	43052	
1749	0	44460	
1750	0	45844	
1751	0	47232	
1752	0	48672	
1753	0	49960	
1754	0	51176	
1755	0	52356	
1756	0	53608	
1757	0	54840	
1758	0	56112	
1759	0	57440	
1760	0	58684	
1761	0	59776	
1762	0	60636	
1763	0	61212	
1764	0	61304	
1765	0	60400	
1766	0	58628	
1767	0	55996	
1768	0	52704	
1769	0	49280	
1770	0	45628	
1771	0	41588	
1772	0	37240	
1773	0	33024	
1774	0	29704	
1775	0	27428	
1776	0	26132	
1777	0	25562	
1778	0	25416	
1779	0	25500	
1780	0	25632	
1781	0	25816	
1782	0	26068	
1783	0	26384	
1784	0	26692	
1785	0	27018	
1786	0	27368	
1787	0	27828	
1788	0	28300	
1789	0	28704	
1790	0	29064	
1791	0	29448	
1792	0	29800	
1793	0	29996	
1794	0	30128	
1795	0	30220	
1796	0	30216	
1797	0	30220	
1798	0	30192	
1799	0	30152	
1800	0	30152	
1801	0	30176	
1802	0	30132	
1803	0	30088	
1804	0	30068	
1805	0	30100	
1806	0	30156	
1807	0	30180	
1808	0	30216	
1809	0	30228	
1810	0	30168	
1811	0	30172	
1812	0	30156	
1813	0	30152	
1814	0	30114	
1815	0	30128	
1816	0	30110	
1817	0	30100	
1818	0	30124	
1819	0	30148	
1820	0	30228	
1821	0	30304	
1822	0	30400	
1823	0	30448	
1824	0	30470	
1825	0	30558	
1826	0	30680	
1827	0	30726	
1828	0	30760	
1829	0	30788	
1830	0	30780	
1831	0	30824	
1832	0	30852	
1833	0	30880	
1834	0	30836	
1835	0	30848	
1836	0	30808	
1837	0	30760	
1838	0	30768	
1839	0	30752	
1840	0	30808	
1841	0	30852	
1842	0	30880	
1843	0	30924	
1844	0	30988	
1845	0	31092	
1846	0	31213	
1847	0	31300	
1848	0	31348	
1849	0	31320	
1850	0	31354	
1851	0	31396	
1852	0	31364	
1853	0	31360	
1854	0	31332	
1855	0	31268	
1856	0	31224	
1857	0	31224	
1858	0	31228	
1859	0	31176	
1860	0	31200	
1861	0	31288	
1862	0	31372	
1863	0	31432	
1864	0	31476	
1865	0	31568	
1866	0	31648	
1867	0	31724	
1868	0	31834	
1869	0	31904	
1870	0	31908	
1871	0	31896	
1872	0	31840	
1873	0	31792	
1874	0	31776	
1875	0	31716	
1876	0	31652	
1877	0	31668	
1878	0	31660	
1879	0	31660	
1880	0	31660	
1881	0	31676	
1882	0	31740	
1883	0	31860	
1884	0	31976	
1885	0	32056	
1886	0	32076	
1887	0	32120	
1888	0	32220	
1889	0	32298	
1890	0	32380	
1891	0	32396	
1892	0	32392	
1893	0	32408	
1894	0	32448	
1895	0	32444	
1896	0	32364	
1897	0	32220	
1898	0	32168	
1899	0	32216	
1900	0	32284	
1901	0	32348	
1902	0	32400	
1903	0	32388	
1904	0	32366	
1905	0	32404	
1906	0	32496	
1907	0	32548	
1908	0	32608	
1909	0	32688	
1910	0	32728	
1911	0	32792	
1912	0	32876	
1913	0	32928	
1914	0	32924	
1915	0	32864	
1916	0	32882	
1917	0	32928	
1918	0	32940	
1919	0	32956	
1920	0	33002	
1921	0	33062	
1922	0	33168	
1923	0	33224	
1924	0	33316	
1925	0	33344	
1926	0	33408	
1927	0	33524	
1928	0	33600	
1929	0	33652	
1930	0	33656	
1931	0	33666	
1932	0	33746	
1933	0	33784	
1934	0	33768	
1935	0	33772	
1936	0	33784	
1937	0	33786	
1938	0	33826	
1939	0	33864	
1940	0	33916	
1941	0	33924	
1942	0	34032	
1943	0	34208	
1944	0	34332	
1945	0	34448	
1946	0	34612	
1947	0	34740	
1948	0	34860	
1949	0	34996	
1950	0	35072	
1951	0	35140	
1952	0	35156	
1953	0	35188	
1954	0	35252	
1955	0	35304	
1956	0	35344	
1957	0	35380	
1958	0	35460	
1959	0	35520	
1960	0	35588	
1961	0	35708	
1962	0	35852	
1963	0	35950	
1964	0	36064	
1965	0	36148	
1966	0	36220	
1967	0	36300	
1968	0	36408	
1969	0	36568	
1970	0	36652	
1971	0	36748	
1972	0	36764	
1973	0	36728	
1974	0	36696	
1975	0	36704	
1976	0	36728	
1977	0	36764	
1978	0	36840	
1979	0	36940	
1980	0	37008	
1981	0	37032	
1982	0	37040	
1983	0	37096	
1984	0	37192	
1985	0	37252	
1986	0	37320	
1987	0	37404	
1988	0	37428	
1989	0	37508	
1990	0	37552	
1991	0	37568	
1992	0	37576	
1993	0	37570	
1994	0	37524	
1995	0	37472	
1996	0	37420	
1997	0	37396	
1998	0	37380	
1999	0	37368	
2000	0	37288	
2001	0	37240	
2002	0	37188	
2003	0	37152	
2004	0	37128	
2005	0	37088	
2006	0	37080	
2007	0	37144	
2008	0	37172	
2009	0	37064	
2010	0	36898	
2011	0	36776	
2012	0	36666	
2013	0	36500	
2014	0	36304	
2015	0	36144	
2016	0	35960	
2017	0	35752	
2018	0	35544	
2019	0	35356	
2020	0	35184	
2021	0	34972	
2022	0	34768	
2023	0	34624	
2024	0	34512	
2025	0	34364	
2026	0	34256	
2027	0	34160	
2028	0	34050	
2029	0	33896	
2030	0	33700	
2031	0	33456	
2032	0	33210	
2033	0	32964	
2034	0	32752	
2035	0	32504	
2036	0	32272	
2037	0	32052	
2038	0	31872	
2039	0	31702	
2040	0	31520	
2041	0	31388	
2042	0	31236	
2043	0	31080	
2044	0	30978	
2045	0	30936	
2046	0	30888	
2047	0	30812	
2048	0	30696	
2049	0	30612	
2050	0	30552	
2051	0	30476	
2052	0	30360	
2053	0	30204	
2054	0	30056	
2055	0	29888	
2056	0	29752	
2057	0	29616	
2058	0	29496	
2059	0	29416	
2060	0	29416	
2061	0	29396	
2062	0	29380	
2063	0	29348	
2064	0	29393	
2065	0	29432	
2066	0	29460	
2067	0	29492	
2068	0	29516	
2069	0	29532	
2070	0	29476	
2071	0	29368	
2072	0	29260	
2073	0	29236	
2074	0	29196	
2075	0	29208	
2076	0	29180	
2077	0	29112	
2078	0	29056	
2079	0	29056	
2080	0	29076	
2081	0	29108	
2082	0	29132	
2083	0	29144	
2084	0	29172	
2085	0	29234	
2086	0	29340	
2087	0	29432	
2088	0	29468	
2089	0	29464	
2090	0	29460	
2091	0	29448	
2092	0	29468	
2093	0	29458	
2094	0	29456	
2095	0	29392	
2096	0	29340	
2097	0	29384	
2098	0	29424	
2099	0	29380	
2100	0	29368	
2101	0	29408	
2102	0	29472	
2103	0	29512	
2104	0	29552	
2105	0	29664	
2106	0	29804	
2107	0	29856	
2108	0	29904	
2109	0	29952	
2110	0	29924	
2111	0	29936	
2112	0	29948	
2113	0	29920	
2114	0	29856	
2115	0	29780	
2116	0	29772	
2117	0	29744	
2118	0	29712	
2119	0	29720	
2120	0	29792	
2121	0	29880	
2122	0	29944	
2123	0	30012	
2124	0	30064	
2125	0	30156	
2126	0	30220	
2127	0	30272	
2128	0	30364	
2129	0	30396	
2130	0	30400	
2131	0	30424	
2132	0	30448	
2133	0	30434	
2134	0	30400	
2135	0	30416	
2136	0	30400	
2137	0	30392	
2138	0	30400	
2139	0	30368	
2140	0	30356	
2141	0	30370	
2142	0	30436	
2143	0	30508	
2144	0	30544	
2145	0	30592	
2146	0	30660	
2147	0	30744	
2148	0	30796	
2149	0	30788	
2150	0	30784	
2151	0	30824	
2152	0	30852	
2153	0	30828	
2154	0	30784	
2155	0	30764	
2156	0	30752	
2157	0	30746	
2158	0	30728	
2159	0	30688	
2160	0	30664	
2161	0	30660	
2162	0	30664	
2163	0	30728	
2164	0	30784	
2165	0	30852	
2166	0	30936	
2167	0	31020	
2168	0	31100	
2169	0	31192	
2170	0	31252	
2171	0	31224	
2172	0	31184	
2173	0	31140	
2174	0	31052	
2175	0	30960	
2176	0	30940	
2177	0	30962	
2178	0	30948	
2179	0	30938	
2180	0	30952	
2181	0	30984	
2182	0	31060	
2183	0	31168	
2184	0	31256	
2185	0	31360	
2186	0	31468	
2187	0	31544	
2188	0	31556	
2189	0	31616	
2190	0	31626	
2191	0	31648	
2192	0	31620	
2193	0	31508	
2194	0	31464	
2195	0	31436	
2196	0	31392	
2197	0	31340	
2198	0	31292	
2199	0	31288	
2200	0	31316	
2201	0	31388	
2202	0	31404	
2203	0	31442	
2204	0	31524	
2205	0	31584	
2206	0	31616	
2207	0	31676	
2208	0	31748	
2209	0	31776	
2210	0	31796	
2211	0	31828	
2212	0	31784	
2213	0	31748	
2214	0	31748	
2215	0	31688	
2216	0	31628	
2217	0	31600	
2218	0	31620	
2219	0	31680	
2220	0	31720	
2221	0	31728	
2222	0	31764	
2223	0	31828	
2224	0	31936	
2225	0	31968	
2226	0	31970	
2227	0	31988	
2228	0	32036	
2229	0	32034	
2230	0	32028	
2231	0	32080	
2232	0	32064	
2233	0	32024	
2234	0	31876	
2235	0	31820	
2236	0	31802	
2237	0	31832	
2238	0	31864	
2239	0	31804	
2240	0	31758	
2241	0	31788	
2242	0	31868	
2243	0	31876	
2244	0	31904	
2245	0	31984	
2246	0	32032	
2247	0	32076	
2248	0	32144	
2249	0	32196	
2250	0	32188	
2251	0	32152	
2252	0	32124	
2253	0	32096	
2254	0	32068	
2255	0	32028	
2256	0	31998	
2257	0	31956	
2258	0	31908	
2259	0	31852	
2260	0	31868	
2261	0	31928	
2262	0	32014	
2263	0	32084	
2264	0	32112	
2265	0	32160	
2266	0	32204	
2267	0	32232	
2268	0	32236	
2269	0	32296	
2270	0	32312	
2271	0	32336	
2272	0	32324	
2273	0	32292	
2274	0	32256	
2275	0	32220	
2276	0	32176	
2277	0	32136	
2278	0	32108	
2279	0	32100	
2280	0	32108	
2281	0	32104	
2282	0	32168	
2283	0	32276	
2284	0	32320	
2285	0	32348	
2286	0	32396	
2287	0	32416	
2288	0	32500	
2289	0	32580	
2290	0	32572	
2291	0	32568	
2292	0	32560	
2293	0	32504	
2294	0	32432	
2295	0	32364	
2296	0	32340	
2297	0	32312	
2298	0	32292	
2299	0	32322	
2300	0	32328	
2301	0	32356	
2302	0	32464	
2303	0	32524	
2304	0	32560	
2305	0	32612	
2306	0	32652	
2307	0	32676	
2308	0	32732	
2309	0	32800	
2310	0	32812	
2311	0	32808	
2312	0	32712	
2313	0	32592	
2314	0	32560	
2315	0	32512	
2316	0	32472	
2317	0	32428	
2318	0	32416	
2319	0	32400	
2320	0	32436	
2321	0	32508	
2322	0	32568	
2323	0	32568	
2324	0	32632	
2325	0	32704	
2326	0	32744	
2327	0	32792	
2328	0	32866	
2329	0	32900	
2330	0	32948	
2331	0	32960	
2332	0	32908	
2333	0	32800	
2334	0	32788	
2335	0	32782	
2336	0	32764	
2337	0	32732	
2338	0	32728	
2339	0	32736	
2340	0	32752	
2341	0	32736	
2342	0	32708	
2343	0	32700	
2344	0	32764	
2345	0	32800	
2346	0	32856	
2347	0	32936	
2348	0	32956	
2349	0	32924	
2350	0	32886	
2351	0	32916	
2352	0	32936	
2353	0	32868	
2354	0	32816	
2355	0	32776	
2356	0	32696	
2357	0	32620	
2358	0	32576	
2359	0	32580	
2360	0	32560	
2361	0	32560	
2362	0	32584	
2363	0	32638	
2364	0	32748	
2365	0	32848	
2366	0	32892	
2367	0	32936	
2368	0	32980	
2369	0	33016	
2370	0	33000	
2371	0	32972	
2372	0	32944	
2373	0	32916	
2374	0	32880	
2375	0	32888	
2376	0	32808	
2377	0	32780	
2378	0	32736	
2379	0	32704	
2380	0	32736	
2381	0	32780	
2382	0	32792	
2383	0	32820	
2384	0	32856	
2385	0	32864	
2386	0	32896	
2387	0	32928	
2388	0	33012	
2389	0	33156	
2390	0	33272	
2391	0	33324	
2392	0	33376	
2393	0	33436	
2394	0	33496	
2395	0	33548	
2396	0	33628	
2397	0	33716	
2398	0	33800	
2399	0	33848	
2400	0	33864	
2401	0	33908	
2402	0	34030	
2403	0	34156	
2404	0	34236	
2405	0	34288	
2406	0	34324	
2407	0	34344	
2408	0	34476	
2409	0	34610	
2410	0	34708	
2411	0	34692	
2412	0	34648	
2413	0	34640	
2414	0	34688	
2415	0	34736	
2416	0	34744	
2417	0	34732	
2418	0	34756	
2419	0	34816	
2420	0	34920	
2421	0	35020	
2422	0	35200	
2423	0	35412	
2424	0	35524	
2425	0	35632	
2426	0	35656	
2427	0	35656	
2428	0	35620	
2429	0	35608	
2430	0	35592	
2431	0	35520	
2432	0	35500	
2433	0	35520	
2434	0	35540	
2435	0	35588	
2436	0	35504	
2437	0	35328	
2438	0	35120	
2439	0	35000	
2440	0	34868	
2441	0	34768	
2442	0	34660	
2443	0	34560	
2444	0	34492	
2445	0	34432	
2446	0	34360	
2447	0	34272	
2448	0	34210	
2449	0	34168	
2450	0	34092	
2451	0	34020	
2452	0	33924	
2453	0	33868	
2454	0	33812	
2455	0	33776	
2456	0	33748	
2457	0	33724	
2458	0	33720	
2459	0	33708	
2460	0	33676	
2461	0	33616	
2462	0	33552	
2463	0	33532	
2464	0	33508	
2465	0	33452	
2466	0	33404	
2467	0	33376	
2468	0	33384	
2469	0	33360	
2470	0	33296	
2471	0	33184	
2472	0	33044	
2473	0	32912	
2474	0	32778	
2475	0	32600	
2476	0	32344	
2477	0	32124	
2478	0	32000	
2479	0	31936	
2480	0	31860	
2481	0	31796	
2482	0	31784	
2483	0	31792	
2484	0	31836	
2485	0	31905	
2486	0	31976	
2487	0	32088	
2488	0	32180	
2489	0	32240	
2490	0	32254	
2491	0	32220	
2492	0	32196	
2493	0	32192	
2494	0	32096	
2495	0	32060	
2496	0	32048	
2497	0	32024	
2498	0	32000	
2499	0	31964	
2500	0	31968	
2501	0	31988	
2502	0	32024	
2503	0	32032	
2504	0	32100	
2505	0	32192	
2506	0	32248	
2507	0	32288	
2508	0	32300	
2509	0	32304	
2510	0	32360	
2511	0	32328	
2512	0	32228	
2513	0	32160	
2514	0	32084	
2515	0	32096	
2516	0	32144	
2517	0	32128	
2518	0	32100	
2519	0	32064	
2520	0	32072	
2521	0	32112	
2522	0	32152	
2523	0	32250	
2524	0	32342	
2525	0	32416	
2526	0	32480	
2527	0	32484	
2528	0	32472	
2529	0	32418	
2530	0	32404	
2531	0	32384	
2532	0	32280	
2533	0	32152	
2534	0	31956	
2535	0	31784	
2536	0	31648	
2537	0	31504	
2538	0	31456	
2539	0	31528	
2540	0	31644	
2541	0	31756	
2542	0	32056	
2543	0	32576	
2544	0	33108	
2545	0	33724	
2546	0	34556	
2547	0	35572	
2548	0	36752	
2549	0	38124	
2550	0	39564	
2551	0	41056	
2552	0	42472	
2553	0	43800	
2554	0	45076	
2555	0	46344	
2556	0	47640	
2557	0	48984	
2558	0	50364	
2559	0	51672	
2560	0	52992	
2561	0	54279	
2562	0	55624	
2563	0	56976	
2564	0	58300	
2565	0	59448	
2566	0	60424	
2567	0	61160	
2568	0	61508	
2569	0	60856	
2570	0	59296	
2571	0	56904	
2572	0	53792	
2573	0	50340	
2574	0	46724	
2575	0	42776	
2576	0	38448	
2577	0	34128	
2578	0	30544	
2579	0	28044	
2580	0	26560	
2581	0	25828	
2582	0	25550	
2583	0	25542	
2584	0	25660	
2585	0	25824	
2586	0	26076	
2587	0	26344	
2588	0	26718	
2589	0	27102	
2590	0	27540	
2591	0	27996	
2592	0	28420	
2593	0	28824	
2594	0	29196	
2595	0	29512	
2596	0	29744	
2597	0	29896	
2598	0	30004	
2599	0	29964	
2600	0	29896	
2601	0	29848	
2602	0	29896	
2603	0	29896	
2604	0	29884	
2605	0	29920	
2606	0	29884	
2607	0	29896	
2608	0	29920	
2609	0	29892	
2610	0	29888	
2611	0	29892	
2612	0	29856	
2613	0	29812	
2614	0	29784	
2615	0	29760	
2616	0	29728	
2617	0	29680	
2618	0	29676	
2619	0	29648	
2620	0	29640	
2621	0	29680	
2622	0	29804	
2623	0	29914	
2624	0	29984	
2625	0	30092	
2626	0	30168	
2627	0	30248	
2628	0	30332	
2629	0	30332	
2630	0	30360	
2631	0	30376	
2632	0	30400	
2633	0	30432	
2634	0	30428	
2635	0	30400	
2636	0	30328	
2637	0	30340	
2638	0	30348	
2639	0	30328	
2640	0	30356	
2641	0	30392	
2642	0	30400	
2643	0	30448	
2644	0	30496	
2645	0	30596	
2646	0	30708	
2647	0	30812	
2648	0	30882	
2649	0	30896	
2650	0	30904	
2651	0	30890	
2652	0	30864	
2653	0	30872	
2654	0	30896	
2655	0	30884	
2656	0	30856	
2657	0	30844	
2658	0	30844	
2659	0	30888	
2660	0	30920	
2661	0	30908	
2662	0	30956	
2663	0	31028	
2664	0	31064	
2665	0	31106	
2666	0	31142	
2667	0	31192	
2668	0	31260	
2669	0	31280	
2670	0	31300	
2671	0	31324	
2672	0	31368	
2673	0	31370	
2674	0	31352	
2675	0	31320	
2676	0	31308	
2677	0	31280	
2678	0	31244	
2679	0	31272	
2680	0	31336	
2681	0	31440	
2682	0	31528	
2683	0	31616	
2684	0	31660	
2685	0	31700	
2686	0	31760	
2687	0	31796	
2688	0	31832	
2689	0	31868	
2690	0	31900	
2691	0	31928	
2692	0	31884	
2693	0	31820	
2694	0	31812	
2695	0	31768	
2696	0	31732	
2697	0	31700	
2698	0	31732	
2699	0	31792	
2700	0	31824	
2701	0	31848	
2702	0	31884	
2703	0	31908	
2704	0	31948	
2705	0	32032	
2706	0	32144	
2707	0	32268	
2708	0	32346	
2709	0	32416	
2710	0	32468	
2711	0	32520	
2712	0	32424	
2713	0	32368	
2714	0	32440	
2715	0	32484	
2716	0	32528	
2717	0	32540	
2718	0	32556	
2719	0	32572	
2720	0	32564	
2721	0	32576	
2722	0	32604	
2723	0	32668	
2724	0	32700	
2725	0	32788	
2726	0	32866	
2727	0	32916	
2728	0	32978	
2729	0	33056	
2730	0	33120	
2731	0	33184	
2732	0	33228	
2733	0	33292	
2734	0	33332	
2735	0	33336	
2736	0	33332	
2737	0	33380	
2738	0	33456	
2739	0	33488	
2740	0	33504	
2741	0	33548	
2742	0	33600	
2743	0	33688	
2744	0	33756	
2745	0	33880	
2746	0	34000	
2747	0	34104	
2748	0	34224	
2749	0	34368	
2750	0	34424	
2751	0	34396	
2752	0	34408	
2753	0	34452	
2754	0	34520	
2755	0	34572	
2756	0	34592	
2757	0	34604	
2758	0	34648	
2759	0	34752	
2760	0	34840	
2761	0	34952	
2762	0	35068	
2763	0	35180	
2764	0	35352	
2765	0	35516	
2766	0	35656	
2767	0	35792	
2768	0	35916	
2769	0	35994	
2770	0	36088	
2771	0	36184	
2772	0	36260	
2773	0	36300	
2774	0	36336	
2775	0	36392	
2776	0	36408	
2777	0	36432	
2778	0	36456	
2779	0	36460	
2780	0	36480	
2781	0	36504	
2782	0	36552	
2783	0	36632	
2784	0	36768	
2785	0	36948	
2786	0	37080	
2787	0	37160	
2788	0	37212	
2789	0	37192	
2790	0	37136	
2791	0	37160	
2792	0	37216	
2793	0	37224	
2794	0	37152	
2795	0	37108	
2796	0	37104	
2797	0	37104	
2798	0	37066	
2799	0	37040	
2800	0	37012	
2801	0	37114	
2802	0	37164	
2803	0	37168	
2804	0	37184	
2805	0	37192	
2806	0	37208	
2807	0	37228	
2808	0	37204	
2809	0	37140	
2810	0	37064	
2811	0	36992	
2812	0	36856	
2813	0	36724	
2814	0	36596	
2815	0	36416	
2816	0	36240	
2817	0	36100	
2818	0	35976	
2819	0	35824	
2820	0	35640	
2821	0	35480	
2822	0	35360	
2823	0	35268	
2824	0	35184	
2825	0	35068	
2826	0	34940	
2827	0	34824	
2828	0	34660	
2829	0	34468	
2830	0	34256	
2831	0	34012	
2832	0	33768	
2833	0	33552	
2834	0	33306	
2835	0	33028	
2836	0	32828	
2837	0	32592	
2838	0	32364	
2839	0	32196	
2840	0	32084	
2841	0	31904	
2842	0	31824	
2843	0	31724	
2844	0	31610	
2845	0	31492	
2846	0	31432	
2847	0	31296	
2848	0	31156	
2849	0	31068	
2850	0	30920	
2851	0	30736	
2852	0	30624	
2853	0	30488	
2854	0	30280	
2855	0	30112	
2856	0	29996	
2857	0	29860	
2858	0	29756	
2859	0	29652	
2860	0	29564	
2861	0	29552	
2862	0	29556	
2863	0	29548	
2864	0	29536	
2865	0	29504	
2866	0	29498	
2867	0	29472	
2868	0	29444	
2869	0	29418	
2870	0	29344	
2871	0	29316	
2872	0	29316	
2873	0	29276	
2874	0	29188	
2875	0	29136	
2876	0	29064	
2877	0	29052	
2878	0	29068	
2879	0	29092	
2880	0	29112	
2881	0	29134	
2882	0	29120	
2883	0	29124	
2884	0	29208	
2885	0	29272	
2886	0	29304	
2887	0	29292	
2888	0	29420	
2889	0	29452	
2890	0	29344	
2891	0	29228	
2892	0	29192	
2893	0	29130	
2894	0	29068	
2895	0	29016	
2896	0	29056	
2897	0	29084	
2898	0	29130	
2899	0	29152	
2900	0	29136	
2901	0	29176	
2902	0	29288	
2903	0	29392	
2904	0	29472	
2905	0	29556	
2906	0	29624	
2907	0	29660	
2908	0	29744	
2909	0	29792	
2910	0	29816	
2911	0	29812	
2912	0	29800	
2913	0	29776	
2914	0	29744	
2915	0	29666	
2916	0	29628	
2917	0	29664	
2918	0	29676	
2919	0	29728	
2920	0	29812	
2921	0	29872	
2922	0	29816	
2923	0	29820	
2924	0	29832	
2925	0	29888	
2926	0	29946	
2927	0	30020	
2928	0	30114	
2929	0	30170	
2930	0	30208	
2931	0	30240	
2932	0	30240	
2933	0	30200	
2934	0	30178	
2935	0	30164	
2936	0	30124	
2937	0	30058	
2938	0	30100	
2939	0	30104	
2940	0	30136	
2941	0	30256	
2942	0	30388	
2943	0	30456	
2944	0	30512	
2945	0	30584	
2946	0	30608	
2947	0	30636	
2948	0	30708	
2949	0	30688	
2950	0	30684	
2951	0	30712	
2952	0	30744	
2953	0	30768	
2954	0	30768	
2955	0	30740	
2956	0	30660	
2957	0	30584	
2958	0	30612	
2959	0	30676	
2960	0	30696	
2961	0	30728	
2962	0	30804	
2963	0	30868	
2964	0	30896	
2965	0	30888	
2966	0	30914	
2967	0	30988	
2968	0	31018	
2969	0	31000	
2970	0	31036	
2971	0	31048	
2972	0	31004	
2973	0	30984	
2974	0	30936	
2975	0	30872	
2976	0	30896	
2977	0	30916	
2978	0	30904	
2979	0	30928	
2980	0	30936	
2981	0	30996	
2982	0	31080	
2983	0	31120	
2984	0	31168	
2985	0	31244	
2986	0	31294	
2987	0	31350	
2988	0	31352	
2989	0	31352	
2990	0	31392	
2991	0	31420	
2992	0	31362	
2993	0	31304	
2994	0	31220	
2995	0	31168	
2996	0	31136	
2997	0	31136	
2998	0	31128	
2999	0	31100	
3000	0	31116	
3001	0	31176	
3002	0	31266	
3003	0	31356	
3004	0	31460	
3005	0	31576	
3006	0	31648	
3007	0	31620	
3008	0	31616	
3009	0	31668	
3010	0	31702	
3011	0	31632	
3012	0	31596	
3013	0	31544	
3014	0	31504	
3015	0	31488	
3016	0	31458	
3017	0	31384	
3018	0	31412	
3019	0	31432	
3020	0	31456	
3021	0	31476	
3022	0	31556	
3023	0	31580	
3024	0	31636	
3025	0	31704	
3026	0	31796	
3027	0	31892	
3028	0	31992	
3029	0	31960	
3030	0	31884	
3031	0	31896	
3032	0	31864	
3033	0	31776	
3034	0	31786	
3035	0	31712	
3036	0	31668	
3037	0	31684	
3038	0	31668	
3039	0	31660	
3040	0	31720	
3041	0	31786	
3042	0	31816	
3043	0	31880	
3044	0	31908	
3045	0	31968	
3046	0	32036	
3047	0	32088	
3048	0	32116	
3049	0	32080	
3050	0	32060	
3051	0	32008	
3052	0	31940	
3053	0	31884	
3054	0	31868	
3055	0	31892	
3056	0	31892	
3057	0	31788	
3058	0	31664	
3059	0	31656	
3060	0	31810	
3061	0	32004	
3062	0	32092	
3063	0	32108	
3064	0	32158	
3065	0	32240	
3066	0	32220	
3067	0	32228	
3068	0	32188	
3069	0	32096	
3070	0	32004	
3071	0	32026	
3072	0	32074	
3073	0	32100	
3074	0	32016	
3075	0	31920	
3076	0	31928	
3077	0	32008	
3078	0	32032	
3079	0	32040	
3080	0	32032	
3081	0	32060	
3082	0	32104	
3083	0	32048	
3084	0	32028	
3085	0	32198	
3086	0	32308	
3087	0	32356	
3088	0	32432	
3089	0	32476	
3090	0	32428	
3091	0	32364	
3092	0	32304	
3093	0	32264	
3094	0	32208	
3095	0	32216	
3096	0	32212	
3097	0	32116	
3098	0	32052	
3099	0	32128	
3100	0	32172	
3101	0	32240	
3102	0	32328	
3103	0	32364	
3104	0	32384	
3105	0	32492	
3106	0	32592	
3107	0	32680	
3108	0	32676	
3109	0	32564	
3110	0	32484	
3111	0	32480	
3112	0	32512	
3113	0	32468	
3114	0	32386	
3115	0	32304	
3116	0	32272	
3117	0	32224	
3118	0	32284	
3119	0	32368	
3120	0	32444	
3121	0	32444	
3122	0	32416	
3123	0	32428	
3124	0	32392	
3125	0	32388	
3126	0	32576	
3127	0	32688	
3128	0	32768	
3129	0	32760	
3130	0	32744	
3131	0	32714	
3132	0	32632	
3133	0	32612	
3134	0	32648	
3135	0	32638	
3136	0	32612	
3137	0	32568	
3138	0	32506	
3139	0	32480	
3140	0	32488	
3141	0	32480	
3142	0	32516	
3143	0	32584	
3144	0	32600	
3145	0	32660	
3146	0	32736	
3147	0	32672	
3148	0	32624	
3149	0	32632	
3150	0	32620	
3151	0	32672	
3152	0	32636	
3153	0	32632	
3154	0	32656	
3155	0	32592	
3156	0	32484	
3157	0	32424	
3158	0	32352	
3159	0	32356	
3160	0	32380	
3161	0	32392	
3162	0	32480	
3163	0	32522	
3164	0	32596	
3165	0	32676	
3166	0	32680	
3167	0	32712	
3168	0	32740	
3169	0	32736	
3170	0	32770	
3171	0	32780	
3172	0	32732	
3173	0	32696	
3174	0	32644	
3175	0	32568	
3176	0	32504	
3177	0	32452	
3178	0	32456	
3179	0	32448	
3180	0	32468	
3181	0	32488	
3182	0	32524	
3183	0	32628	
3184	0	32658	
3185	0	32612	
3186	0	32664	
3187	0	32816	
3188	0	32876	
3189	0	32868	
3190	0	32908	
3191	0	32892	
3192	0	32816	
3193	0	32784	
3194	0	32744	
3195	0	32700	
3196	0	32664	
3197	0	32592	
3198	0	32528	
3199	0	32524	
3200	0	32588	
3201	0	32680	
3202	0	32808	
3203	0	32832	
3204	0	32848	
3205	0	32896	
3206	0	32848	
3207	0	32830	
3208	0	32864	
3209	0	32852	
3210	0	32852	
3211	0	32868	
3212	0	32868	
3213	0	32804	
3214	0	32704	
3215	0	32680	
3216	0	32736	
3217	0	32802	
3218	0	32744	
3219	0	32744	
3220	0	32864	
3221	0	33072	
3222	0	33270	
3223	0	33352	
3224	0	33460	
3225	0	33612	
3226	0	33720	
3227	0	33838	
3228	0	33920	
3229	0	33980	
3230	0	34040	
3231	0	34052	
3232	0	34012	
3233	0	33952	
3234	0	33932	
3235	0	33980	
3236	0	34024	
3237	0	34144	
3238	0	34228	
3239	0	34272	
3240	0	34288	
3241	0	34308	
3242	0	34344	
3243	0	34416	
3244	0	34594	
3245	0	34760	
3246	0	34916	
3247	0	35104	
3248	0	35260	
3249	0	35342	
3250	0	35428	
3251	0	35496	
3252	0	35468	
3253	0	35432	
3254	0	35388	
3255	0	35356	
3256	0	35200	
3257	0	35040	
3258	0	34988	
3259	0	35000	
3260	0	35040	
3261	0	35100	
3262	0	35196	
3263	0	35216	
3264	0	35256	
3265	0	35212	
3266	0	35068	
3267	0	34964	
3268	0	34848	
3269	0	34744	
3270	0	34586	
3271	0	34388	
3272	0	34212	
3273	0	34036	
3274	0	33928	
3275	0	33832	
3276	0	33752	
3277	0	33708	
3278	0	33688	
3279	0	33624	
3280	0	33560	
3281	0	33550	
3282	0	33568	
3283	0	33608	
3284	0	33692	
3285	0	33808	
3286	0	33848	
3287	0	33808	
3288	0	33776	
3289	0	33804	
3290	0	33756	
3291	0	33616	
3292	0	33460	
3293	0	33320	
3294	0	33218	
3295	0	33088	
3296	0	32952	
3297	0	32808	
3298	0	32648	
3299	0	32604	
3300	0	32536	
3301	0	32512	
3302	0	32480	
3303	0	32420	
3304	0	32332	
3305	0	32244	
3306	0	32192	
3307	0	32148	
3308	0	32116	
3309	0	32044	
3310	0	32008	
3311	0	32000	
3312	0	31992	
3313	0	31972	
3314	0	31916	
3315	0	31836	
3316	0	31800	
3317	0	31812	
3318	0	31848	
3319	0	31886	
3320	0	31904	
3321	0	31956	
3322	0	32024	
3323	0	32076	
3324	0	32172	
3325	0	32248	
3326	0	32284	
3327	0	32352	
3328	0	32364	
3329	0	32328	
3330	0	32252	
3331	0	32160	
3332	0	32026	
3333	0	31924	
3334	0	31852	
3335	0	31840	
3336	0	31842	
3337	0	31804	
3338	0	31776	
3339	0	31796	
3340	0	31864	
3341	0	31988	
3342	0	32056	
3343	0	32156	
3344	0	32312	
3345	0	32352	
3346	0	32328	
3347	0	32352	
3348	0	32364	
3349	0	32336	
3350	0	32272	
3351	0	32186	
3352	0	32124	
3353	0	32028	
3354	0	31944	
3355	0	31960	
3356	0	31940	
3357	0	31924	
3358	0	31852	
3359	0	31794	
3360	0	31700	
3361	0	31584	
3362	0	31476	
3363	0	31364	
3364	0	31336	
3365	0	31424	
3366	0	31576	
3367	0	31778	
3368	0	32040	
3369	0	32466	
3370	0	32936	
3371	0	33408	
3372	0	34064	
3373	0	34912	
3374	0	35880	
3375	0	36992	
3376	0	38304	
3377	0	39796	
3378	0	41240	
3379	0	42568	
3380	0	43936	
3381	0	45304	
3382	0	46688	
3383	0	48168	
3384	0	49656	
3385	0	51032	
3386	0	52284	
3387	0	53624	
3388	0	54960	
3389	0	56324	
3390	0	57556	
3391	0	58638	
3392	0	59560	
3393	0	60264	
3394	0	60754	
3395	0	60512	
3396	0	59260	
3397	0	57284	
3398	0	54476	
3399	0	51156	
3400	0	47788	
3401	0	44194	
3402	0	40096	
3403	0	35810	
3404	0	31984	
3405	0	29152	
3406	0	27376	
3407	0	26402	
3408	0	25912	
3409	0	25724	
3410	0	25724	
3411	0	25850	
3412	0	25984	
3413	0	26196	
3414	0	26464	
3415	0	26816	
3416	0	27208	
3417	0	27664	
3418	0	28092	
3419	0	28488	
3420	0	28900	
3421	0	29236	
3422	0	29504	
3423	0	29760	
3424	0	29988	
3425	0	30084	
3426	0	30060	
3427	0	30104	
3428	0	30116	
3429	0	30084	
3430	0	30026	
3431	0	29960	
3432	0	29880	
3433	0	29792	
3434	0	29632	
3435	0	29488	
3436	0	29434	
3437	0	29480	
3438	0	29540	
3439	0	29556	
3440	0	29548	
3441	0	29532	
3442	0	29544	
3443	0	29572	
3444	0	29640	
3445	0	29732	
3446	0	29794	
3447	0	29860	
3448	0	29952	
3449	0	29962	
3450	0	29940	
3451	0	29984	
3452	0	30048	
3453	0	30064	
3454	0	30008	
3455	0	29972	
3456	0	29916	
3457	0	29840	
3458	0	29776	
3459	0	29812	
3460	0	29896	
3461	0	30010	
3462	0	30136	
3463	0	30248	
3464	0	30348	
3465	0	30416	
3466	0	30468	
3467	0	30512	
3468	0	30546	
3469	0	30580	
3470	0	30572	
3471	0	30468	
3472	0	30424	
3473	0	30420	
3474	0	30476	
3475	0	30496	
3476	0	30528	
3477	0	30560	
3478	0	30592	
3479	0	30592	
3480	0	30668	
3481	0	30736	
3482	0	30812	
3483	0	30894	
3484	0	30932	
3485	0	30956	
3486	0	30988	
3487	0	31056	
3488	0	31124	
3489	0	31172	
3490	0	31160	
3491	0	31124	
3492	0	31048	
3493	0	31012	
3494	0	31040	
3495	0	31044	
3496	0	31040	
3497	0	31034	
3498	0	30996	
3499	0	30996	
3500	0	31032	
3501	0	31120	
3502	0	31224	
3503	0	31268	
3504	0	31320	
3505	0	31424	
3506	0	31509	
3507	0	31612	
3508	0	31684	
3509	0	31712	
3510	0	31692	
3511	0	31616	
3512	0	31652	
3513	0	31632	
3514	0	31624	
3515	0	31642	
3516	0	31624	
3517	0	31546	
3518	0	31500	
3519	0	31462	
3520	0	31472	
3521	0	31580	
3522	0	31728	
3523	0	31852	
3524	0	31900	
3525	0	31936	
3526	0	31960	
3527	0	31972	
3528	0	31996	
3529	0	32008	
3530	0	32024	
3531	0	32064	
3532	0	32064	
3533	0	32032	
3534	0	32072	
3535	0	32132	
3536	0	32160	
3537	0	32152	
3538	0	32122	
3539	0	32160	
3540	0	32218	
3541	0	32250	
3542	0	32384	
3543	0	32528	
3544	0	32640	
3545	0	32744	
3546	0	32840	
3547	0	32896	
3548	0	32876	
3549	0	32864	
3550	0	32860	
3551	0	32892	
3552	0	32916	
3553	0	32928	
3554	0	32900	
3555	0	32892	
3556	0	32970	
3557	0	33036	
3558	0	33058	
3559	0	33104	
3560	0	33168	
3561	0	33216	
3562	0	33284	
3563	0	33400	
3564	0	33524	
3565	0	33612	
3566	0	33720	
3567	0	33812	
3568	0	33900	
3569	0	33984	
3570	0	34044	
3571	0	34116	
3572	0	34200	
3573	0	34240	
3574	0	34200	
3575	0	34184	
3576	0	34210	
3577	0	34240	
3578	0	34272	
3579	0	34330	
3580	0	34420	
3581	0	34516	
3582	0	34648	
3583	0	34724	
3584	0	34816	
3585	0	34980	
3586	0	35124	
3587	0	35232	
3588	0	35344	
3589	0	35424	
3590	0	35512	
3591	0	35536	
3592	0	35560	
3593	0	35616	
3594	0	35656	
3595	0	35668	
3596	0	35672	
3597	0	35716	
3598	0	35804	
3599	0	35920	
3600	0	36024	
3601	0	36072	
3602	0	36164	
3603	0	36256	
3604	0	36408	
3605	0	36566	
3606	0	36672	
3607	0	36684	
3608	0	36724	
3609	0	36792	
3610	0	36832	
3611	0	36844	
3612	0	36864	
3613	0	36884	
3614	0	36924	
3615	0	36904	
3616	0	36912	
3617	0	36928	
3618	0	36960	
3619	0	36952	
3620	0	36976	
3621	0	37024	
3622	0	37072	
3623	0	37144	
3624	0	37208	
3625	0	37268	
3626	0	37316	
3627	0	37320	
3628	0	37280	
3629	0	37248	
3630	0	37220	
3631	0	37196	
3632	0	37156	
3633	0	37068	
3634	0	36984	
3635	0	36920	
3636	0	36834	
3637	0	36726	
3638	0	36606	
3639	0	36532	
3640	0	36512	
3641	0	36480	
3642	0	36412	
3643	0	36328	
3644	0	36288	
3645	0	36216	
3646	0	36048	
3647	0	35952	
3648	0	35864	
3649	0	35696	
3650	0	35564	
3651	0	35420	
3652	0	35236	
3653	0	35024	
3654	0	34784	
3655	0	34504	
3656	0	34272	
3657	0	34088	
3658	0	33916	
3659	0	33764	
3660	0	33656	
3661	0	33506	
3662	0	33328	
3663	0	33160	
3664	0	32962	
3665	0	32844	
3666	0	32736	
3667	0	32576	
3668	0	32384	
3669	0	32100	
3670	0	31840	
3671	0	31642	
3672	0	31504	
3673	0	31360	
3674	0	31208	
3675	0	31006	
3676	0	30936	
3677	0	30816	
3678	0	30646	
3679	0	30472	
3680	0	30408	
3681	0	30364	
3682	0	30320	
3683	0	30236	
3684	0	30176	
3685	0	30084	
3686	0	30024	
3687	0	29980	
3688	0	29912	
3689	0	29792	
3690	0	29668	
3691	0	29546	
3692	0	29442	
3693	0	29370	
3694	0	29284	
3695	0	29184	
3696	0	29108	
3697	0	29064	
3698	0	29032	
3699	0	29021	
3700	0	29024	
3701	0	29016	
3702	0	28984	
3703	0	28992	
3704	0	29024	
3705	0	29056	
3706	0	29156	
3707	0	29224	
3708	0	29252	
3709	0	29252	
3710	0	29232	
3711	0	29276	
3712	0	29224	
3713	0	29136	
3714	0	29072	
3715	0	29052	
3716	0	28968	
3717	0	28920	
3718	0	28896	
3719	0	28892	
3720	0	28856	
3721	0	28900	
3722	0	28956	
3723	0	29072	
3724	0	29200	
3725	0	29312	
3726	0	29400	
3727	0	29468	
3728	0	29508	
3729	0	29492	
3730	0	29460	
3731	0	29424	
3732	0	29420	
3733	0	29454	
3734	0	29440	
3735	0	29368	
3736	0	29344	
3737	0	29364	
3738	0	29402	
3739	0	29424	
3740	0	29508	
3741	0	29632	
3742	0	29704	
3743	0	29744	
3744	0	29800	
3745	0	29816	
3746	0	29876	
3747	0	29968	
3748	0	30034	
3749	0	30080	
3750	0	30096	
3751	0	30056	
3752	0	30028	
3753	0	30020	
3754	0	29992	
3755	0	29944	
3756	0	29896	
3757	0	29868	
3758	0	29860	
3759	0	29912	
3760	0	29968	
3761	0	30048	
3762	0	30152	
3763	0	30192	
3764	0	30200	
3765	0	30228	
3766	0	30292	
3767	0	30316	
3768	0	30356	
3769	0	30448	
3770	0	30556	
3771	0	30586	
3772	0	30592	
3773	0	30476	
3774	0	30340	
3775	0	30220	
3776	0	30212	
3777	0	30282	
3778	0	30325	
3779	0	30400	
3780	0	30432	
3781	0	30464	
3782	0	30544	
3783	0	30552	
3784	0	30576	
3785	0	30652	
3786	0	30660	
3787	0	30740	
3788	0	30812	
3789	0	30896	
3790	0	30908	
3791	0	30752	
3792	0	30736	
3793	0	30856	
3794	0	30884	
3795	0	30788	
3796	0	30600	
3797	0	30508	
3798	0	30542	
3799	0	30588	
3800	0	30604	
3801	0	30648	
3802	0	30804	
3803	0	30828	
3804	0	30860	
3805	0	30976	
3806	0	31224	
3807	0	31378	
3808	0	31436	
3809	0	31360	
3810	0	31072	
3811	0	31012	
3812	0	31066	
3813	0	30948	
3814	0	30912	
3815	0	31008	
3816	0	31034	
3817	0	31044	
3818	0	31088	
3819	0	31152	
3820	0	31236	
3821	0	31264	
3822	0	31296	
3823	0	31296	
3824	0	31344	
3825	0	31406	
3826	0	31392	
3827	0	31412	
3828	0	31424	
3829	0	31352	
3830	0	31380	
3831	0	31492	
3832	0	31460	
3833	0	31280	
3834	0	31212	
3835	0	31236	
3836	0	31210	
3837	0	31248	
3838	0	31258	
3839	0	31232	
3840	0	31264	
3841	0	31328	
3842	0	31360	
3843	0	31376	
3844	0	31392	
3845	0	31448	
3846	0	31496	
3847	0	31580	
3848	0	31616	
3849	0	31676	
3850	0	31704	
3851	0	31674	
3852	0	31660	
3853	0	31584	
3854	0	31488	
3855	0	31520	
3856	0	31608	
3857	0	31566	
3858	0	31516	
3859	0	31540	
3860	0	31580	
3861	0	31652	
3862	0	31740	
3863	0	31768	
3864	0	31740	
3865	0	31740	
3866	0	31740	
3867	0	31784	
3868	0	31848	
3869	0	31840	
3870	0	31792	
3871	0	31800	
3872	0	31768	
3873	0	31736	
3874	0	31716	
3875	0	31714	
3876	0	31728	
3877	0	31656	
3878	0	31588	
3879	0	31588	
3880	0	31636	
3881	0	31728	
3882	0	31788	
3883	0	31828	
3884	0	31892	
3885	0	31920	
3886	0	31972	
3887	0	32040	
3888	0	32088	
3889	0	32072	
3890	0	31936	
3891	0	31888	
3892	0	31892	
3893	0	31854	
3894	0	31780	
3895	0	31792	
3896	0	31832	
3897	0	31828	
3898	0	31808	
3899	0	31826	
3900	0	31872	
3901	0	31908	
3902	0	31948	
3903	0	32028	
3904	0	32072	
3905	0	32112	
3906	0	32168	
3907	0	32228	
3908	0	32344	
3909	0	32404	
3910	0	32400	
3911	0	32332	
3912	0	32232	
3913	0	32160	
3914	0	32088	
3915	0	32040	
3916	0	32032	
3917	0	32028	
3918	0	32034	
3919	0	32056	
3920	0	32072	
3921	0	32020	
3922	0	32144	
3923	0	32292	
3924	0	32300	
3925	0	32264	
3926	0	32332	
3927	0	32436	
3928	0	32380	
3929	0	32444	
3930	0	32496	
3931	0	32432	
3932	0	32416	
3933	0	32520	
3934	0	32464	
3935	0	32360	
3936	0	32292	
3937	0	32312	
3938	0	32356	
3939	0	32384	
3940	0	32336	
3941	0	32336	
3942	0	32436	
3943	0	32494	
3944	0	32544	
3945	0	32536	
3946	0	32602	
3947	0	32720	
3948	0	32720	
3949	0	32762	
3950	0	32766	
3951	0	32684	
3952	0	32592	
3953	0	32544	
3954	0	32384	
3955	0	32260	
3956	0	32282	
3957	0	32304	
3958	0	32304	
3959	0	32388	
3960	0	32474	
3961	0	32552	
3962	0	32592	
3963	0	32636	
3964	0	32652	
3965	0	32712	
3966	0	32808	
3967	0	32832	
3968	0	32828	
3969	0	32916	
3970	0	32952	
3971	0	32904	
3972	0	32848	
3973	0	32764	
3974	0	32620	
3975	0	32608	
3976	0	32632	
3977	0	32656	
3978	0	32680	
3979	0	32648	
3980	0	32660	
3981	0	32676	
3982	0	32576	
3983	0	32578	
3984	0	32716	
3985	0	32768	
3986	0	32812	
3987	0	32936	
3988	0	32996	
3989	0	33052	
3990	0	33032	
3991	0	32940	
3992	0	32812	
3993	0	32706	
3994	0	32632	
3995	0	32564	
3996	0	32528	
3997	0	32532	
3998	0	32536	
3999	0	32556	
4000	0	32528	
4001	0	32504	
4002	0	32512	
4003	0	32552	
4004	0	32690	
4005	0	32792	
4006	0	32796	
4007	0	32912	
4008	0	33096	
4009	0	33180	
4010	0	33164	
4011	0	33088	
4012	0	33016	
4013	0	32928	
4014	0	32808	
4015	0	32660	
4016	0	32608	
4017	0	32632	
4018	0	32734	
4019	0	32824	
4020	0	32848	
4021	0	32840	
4022	0	32824	
4023	0	32832	
4024	0	32892	
4025	0	32956	
4026	0	33008	
4027	0	33072	
4028	0	33012	
4029	0	32972	
4030	0	32940	
4031	0	32944	
4032	0	32968	
4033	0	32952	
4034	0	32956	
4035	0	32932	
4036	0	33016	
4037	0	33072	
4038	0	33158	
4039	0	33236	
4040	0	33336	
4041	0	33460	
4042	0	33594	
4043	0	33696	
4044	0	33816	
4045	0	33920	
4046	0	34016	
4047	0	34088	
4048	0	34128	
4049	0	34168	
4050	0	34098	
4051	0	33984	
4052	0	33960	
4053	0	34040	
4054	0	34084	
4055	0	34192	
4056	0	34252	
4057	0	34248	
4058	0	34336	
4059	0	34444	
4060	0	34554	
4061	0	34668	
4062	0	34824	
4063	0	35040	
4064	0	35164	
4065	0	35324	
4066	0	35522	
4067	0	35644	
4068	0	35666	
4069	0	35656	
4070	0	35680	
4071	0	35656	
4072	0	35548	
4073	0	35400	
4074	0	35340	
4075	0	35220	
4076	0	35080	
4077	0	35032	
4078	0	35000	
4079	0	35100	
4080	0	35120	
4081	0	35032	
4082	0	34956	
4083	0	34884	
4084	0	34840	
4085	0	34764	
4086	0	34668	
4087	0	34592	
4088	0	34528	
4089	0	34420	
4090	0	34292	
4091	0	34208	
4092	0	34148	
4093	0	34008	
4094	0	33856	
4095	0	33808	
4096	0	33712	
4097	0	33628	
4098	0	33596	
4099	0	33576	
4100	0	33620	
4101	0	33740	
4102	0	33888	
4103	0	33940	
4104	0	33904	
4105	0	33832	
4106	0	33704	
4107	0	33632	
4108	0	33544	
4109	0	33484	
4110	0	33430	
4111	0	33292	
4112	0	33184	
4113	0	33053	
4114	0	32920	
4115	0	32776	
4116	0	32622	
4117	0	32508	
4118	0	32464	
4119	0	32416	
4120	0	32332	
4121	0	32260	
4122	0	32236	
4123	0	32196	
4124	0	32144	
4125	0	32112	
4126	0	32088	
4127	0	32072	
4128	0	32072	
4129	0	32094	
4130	0	32104	
4131	0	32084	
4132	0	32122	
4133	0	32158	
4134	0	32120	
4135	0	32112	
4136	0	32068	
4137	0	32044	
4138	0	32044	
4139	0	32052	
4140	0	32072	
4141	0	32092	
4142	0	32224	
4143	0	32316	
4144	0	32360	
4145	0	32412	
4146	0	32464	
4147	0	32448	
4148	0	32376	
4149	0	32364	
4150	0	32344	
4151	0	32328	
4152	0	32280	
4153	0	32240	
4154	0	32196	
4155	0	32164	
4156	0	32128	
4157	0	32080	
4158	0	32064	
4159	0	32086	
4160	0	32148	
4161	0	32168	
4162	0	32204	
4163	0	32264	
4164	0	32332	
4165	0	32468	
4166	0	32532	
4167	0	32528	
4168	0	32480	
4169	0	32480	
4170	0	32496	
4171	0	32476	
4172	0	32432	
4173	0	32352	
4174	0	32224	
4175	0	32116	
4176	0	32016	
4177	0	31856	
4178	0	31640	
4179	0	31500	
4180	0	31436	
4181	0	31450	
4182	0	31476	
4183	0	31522	
4184	0	31624	
4185	0	31956	
4186	0	32528	
4187	0	33120	
4188	0	33736	
4189	0	34516	
4190	0	35488	
4191	0	36556	
4192	0	37728	
4193	0	39056	
4194	0	40512	
4195	0	41914	
4196	0	43232	
4197	0	44520	
4198	0	45872	
4199	0	47352	
4200	0	48860	
4201	0	50312	
4202	0	51720	
4203	0	53140	
4204	0	54536	
4205	0	55896	
4206	0	57244	
4207	0	58432	
4208	0	59412	
4209	0	60204	
4210	0	60856	
4211	0	61040	
4212	0	60172	
4213	0	58424	
4214	0	55932	
4215	0	52732	
4216	0	49312	
4217	0	45816	
4218	0	41884	
4219	0	37560	
4220	0	33406	
4221	0	30108	
4222	0	27932	
4223	0	26710	
4224	0	26120	
4225	0	25932	
4226	0	26080	
4227	0	26284	
4228	0	26428	
4229	0	26610	
4230	0	26816	
4231	0	27124	
4232	0	27534	
4233	0	27992	
4234	0	28392	
4235	0	28808	
4236	0	29168	
4237	0	29464	
4238	0	29760	
4239	0	30036	
4240	0	30204	
4241	0	30232	
4242	0	30316	
4243	0	30392	
4244	0	30380	
4245	0	30408	
4246	0	30376	
4247	0	30276	
4248	0	30228	
4249	0	30276	
4250	0	30328	
4251	0	30244	
4252	0	30088	
4253	0	29889	
4254	0	29824	
4255	0	29844	
4256	0	29860	
4257	0	29856	
4258	0	29856	
4259	0	29864	
4260	0	29848	
4261	0	29850	
4262	0	29832	
4263	0	29888	
4264	0	30024	
4265	0	30112	
4266	0	30200	
4267	0	30312	
4268	0	30332	
4269	0	30312	
4270	0	30220	
4271	0	30116	
4272	0	30104	
4273	0	30112	
4274	0	30080	
4275	0	30056	
4276	0	30172	
4277	0	30244	
4278	0	30248	
4279	0	30260	
4280	0	30282	
4281	0	30378	
4282	0	30512	
4283	0	30622	
4284	0	30724	
4285	0	30704	
4286	0	30724	
4287	0	30788	
4288	0	30828	
4289	0	30868	
4290	0	30858	
4291	0	30844	
4292	0	30860	
4293	0	30844	
4294	0	30844	
4295	0	30864	
4296	0	30876	
4297	0	30900	
4298	0	30896	
4299	0	30844	
4300	0	30860	
4301	0	30896	
4302	0	30952	
4303	0	31000	
4304	0	31020	
4305	0	31148	
4306	0	31300	
4307	0	31392	
4308	0	31432	
4309	0	31456	
4310	0	31472	
4311	0	31492	
4312	0	31524	
4313	0	31504	
4314	0	31456	
4315	0	31416	
4316	0	31332	
4317	0	31284	
4318	0	31320	
4319	0	31332	
4320	0	31312	
4321	0	31392	
4322	0	31576	
4323	0	31636	
4324	0	31652	
4325	0	31652	
4326	0	31684	
4327	0	31744	
4328	0	31784	
4329	0	31808	
4330	0	31828	
4331	0	31816	
4332	0	31736	
4333	0	31736	
4334	0	31740	
4335	0	31716	
4336	0	31748	
4337	0	31816	
4338	0	31860	
4339	0	31904	
4340	0	31992	
4341	0	32036	
4342	0	32024	
4343	0	32076	
4344	0	32180	
4345	0	32224	
4346	0	32336	
4347	0	32428	
4348	0	32444	
4349	0	32444	
4350	0	32450	
4351	0	32432	
4352	0	32428	
4353	0	32428	
4354	0	32368	
4355	0	32324	
4356	0	32320	
4357	0	32276	
4358	0	32285	
4359	0	32380	
4360	0	32480	
4361	0	32544	
4362	0	32592	
4363	0	32716	
4364	0	32840	
4365	0	32932	
4366	0	33034	
4367	0	33116	
4368	0	33104	
4369	0	33080	
4370	0	33096	
4371	0	33172	
4372	0	33244	
4373	0	33272	
4374	0	33296	
4375	0	33360	
4376	0	33424	
4377	0	33464	
4378	0	33448	
4379	0	33332	
4380	0	33352	
4381	0	33492	
4382	0	33620	
4383	0	33748	
4384	0	33896	
4385	0	34040	
4386	0	34152	
4387	0	34240	
4388	0	34240	
4389	0	34196	
4390	0	34196	
4391	0	34288	
4392	0	34376	
4393	0	34452	
4394	0	34508	
4395	0	34480	
4396	0	34416	
4397	0	34524	
4398	0	34652	
4399	0	34808	
4400	0	34968	
4401	0	35096	
4402	0	35092	
4403	0	35104	
4404	0	35276	
4405	0	35444	
4406	0	35572	
4407	0	35708	
4408	0	35752	
4409	0	35768	
4410	0	35816	
4411	0	35906	
4412	0	35956	
4413	0	35964	
4414	0	36020	
4415	0	36116	
4416	0	36152	
4417	0	36228	
4418	0	36280	
4419	0	36352	
4420	0	36472	
4421	0	36524	
4422	0	36568	
4423	0	36680	
4424	0	36808	
4425	0	36928	
4426	0	36992	
4427	0	37076	
4428	0	37216	
4429	0	37314	
4430	0	37292	
4431	0	37164	
4432	0	37120	
4433	0	37132	
4434	0	37112	
4435	0	37114	
4436	0	37100	
4437	0	37132	
4438	0	37162	
4439	0	37100	
4440	0	37080	
4441	0	37184	
4442	0	37244	
4443	0	37316	
4444	0	37392	
4445	0	37464	
4446	0	37504	
4447	0	37496	
4448	0	37444	
4449	0	37456	
4450	0	37456	
4451	0	37360	
4452	0	37280	
4453	0	37176	
4454	0	37080	
4455	0	36936	
4456	0	36840	
4457	0	36720	
4458	0	36632	
4459	0	36624	
4460	0	36558	
4461	0	36440	
4462	0	36288	
4463	0	36168	
4464	0	36072	
4465	0	35976	
4466	0	35904	
4467	0	35792	
4468	0	35616	
4469	0	35456	
4470	0	35288	
4471	0	35096	
4472	0	34908	
4473	0	34696	
4474	0	34480	
4475	0	34242	
4476	0	34028	
4477	0	33828	
4478	0	33620	
4479	0	33448	
4480	0	33312	
4481	0	33160	
4482	0	32968	
4483	0	32820	
4484	0	32592	
4485	0	32336	
4486	0	32154	
4487	0	32072	
4488	0	32024	
4489	0	31882	
4490	0	31728	
4491	0	31576	
4492	0	31400	
4493	0	31248	
4494	0	31066	
4495	0	30888	
4496	0	30752	
4497	0	30608	
4498	0	30496	
4499	0	30436	
4500	0	30412	
4501	0	30352	
4502	0	30304	
4503	0	30264	
4504	0	30202	
4505	0	30152	
4506	0	30068	
4507	0	29980	
4508	0	29852	
4509	0	29802	
4510	0	29740	
4511	0	29648	
4512	0	29560	
4513	0	29456	
4514	0	29400	
4515	0	29300	
4516	0	29196	
4517	0	29168	
4518	0	29192	
4519	0	29230	
4520	0	29268	
4521	0	29344	
4522	0	29378	
4523	0	29280	
4524	0	29244	
4525	0	29280	
4526	0	29346	
4527	0	29384	
4528	0	29416	
4529	0	29452	
4530	0	29396	
4531	0	29314	
4532	0	29280	
4533	0	29280	
4534	0	29280	
4535	0	29284	
4536	0	29216	
4537	0	29168	
4538	0	29192	
4539	0	29196	
4540	0	29262	
4541	0	29320	
4542	0	29312	
4543	0	29404	
4544	0	29572	
4545	0	29632	
4546	0	29634	
4547	0	29632	
4548	0	29552	
4549	0	29552	
4550	0	29612	
4551	0	29648	
4552	0	29628	
4553	0	29672	
4554	0	29760	
4555	0	29780	
4556	0	29752	
4557	0	29704	
4558	0	29696	
4559	0	29728	
4560	0	29768	
4561	0	29836	
4562	0	29856	
4563	0	29832	
4564	0	29988	
4565	0	30116	
4566	0	30160	
4567	0	30178	
4568	0	30188	
4569	0	30192	
4570	0	30184	
4571	0	30152	
4572	0	30120	
4573	0	30100	
4574	0	30044	
4575	0	30016	
4576	0	30048	
4577	0	30120	
4578	0	30252	
4579	0	30364	
4580	0	30402	
4581	0	30436	
4582	0	30528	
4583	0	30612	
4584	0	30680	
4585	0	30732	
4586	0	30804	
4587	0	30844	
4588	0	30888	
4589	0	30864	
4590	0	30800	
4591	0	30728	
4592	0	30692	
4593	0	30738	
4594	0	30772	
4595	0	30704	
4596	0	30660	
4597	0	30656	
4598	0	30664	
4599	0	30740	
4600	0	30816	
4601	0	30828	
4602	0	30792	
4603	0	30850	
4604	0	30968	
4605	0	31024	
4606	0	31072	
4607	0	31152	
4608	0	31160	
4609	0	31124	
4610	0	31104	
4611	0	31104	
4612	0	31116	
4613	0	31120	
4614	0	31112	
4615	0	31116	
4616	0	31084	
4617	0	31064	
4618	0	31040	
4619	0	30968	
4620	0	30984	
4621	0	31080	
4622	0	31196	
4623	0	31308	
4624	0	31348	
4625	0	31336	
4626	0	31344	
4627	0	31384	
4628	0	31368	
4629	0	31364	
4630	0	31368	
4631	0	31352	
4632	0	31272	
4633	0	31168	
4634	0	31064	
4635	0	31016	
4636	0	31000	
4637	0	31012	
4638	0	31048	
4639	0	31124	
4640	0	31204	
4641	0	31264	
4642	0	31338	
4643	0	31456	
4644	0	31556	
4645	0	31644	
4646	0	31653	
4647	0	31680	
4648	0	31692	
4649	0	31648	
4650	0	31580	
4651	0	31504	
4652	0	31476	
4653	0	31372	
4654	0	31312	
4655	0	31352	
4656	0	31396	
4657	0	31384	
4658	0	31376	
4659	0	31328	
4660	0	31396	
4661	0	31552	
4662	0	31616	
4663	0	31696	
4664	0	31776	
4665	0	31752	
4666	0	31736	
4667	0	31836	
4668	0	31906	
4669	0	31792	
4670	0	31696	
4671	0	31704	
4672	0	31708	
4673	0	31708	
4674	0	31728	
4675	0	31660	
4676	0	31568	
4677	0	31524	
4678	0	31528	
4679	0	31610	
4680	0	31672	
4681	0	31776	
4682	0	31930	
4683	0	31976	
4684	0	31972	
4685	0	31960	
4686	0	31948	
4687	0	31928	
4688	0	31964	
4689	0	31956	
4690	0	31968	
4691	0	31924	
4692	0	31884	
4693	0	31860	
4694	0	31868	
4695	0	31928	
4696	0	32000	
4697	0	31928	
4698	0	31812	
4699	0	31752	
4700	0	31832	
4701	0	31924	
4702	0	32032	
4703	0	32096	
4704	0	32172	
4705	0	32218	
4706	0	32200	
4707	0	32144	
4708	0	32096	
4709	0	32060	
4710	0	32108	
4711	0	32136	
4712	0	32128	
4713	0	32140	
4714	0	32072	
4715	0	31972	
4716	0	31900	
4717	0	31896	
4718	0	31936	
4719	0	31980	
4720	0	32024	
4721	0	32012	
4722	0	31988	
4723	0	31992	
4724	0	32036	
4725	0	32046	
4726	0	32176	
4727	0	32332	
4728	0	32378	
4729	0	32392	
4730	0	32360	
4731	0	32340	
4732	0	32344	
4733	0	32280	
4734	0	32192	
4735	0	32052	
4736	0	32000	
4737	0	32072	
4738	0	32040	
4739	0	32040	
4740	0	32164	
4741	0	32252	
4742	0	32272	
4743	0	32304	
4744	0	32338	
4745	0	32380	
4746	0	32360	
4747	0	32388	
4748	0	32432	
4749	0	32450	
4750	0	32476	
4751	0	32524	
4752	0	32500	
4753	0	32400	
4754	0	32332	
4755	0	32320	
4756	0	32332	
4757	0	32300	
4758	0	32320	
4759	0	32384	
4760	0	32448	
4761	0	32500	
4762	0	32496	
4763	0	32560	
4764	0	32708	
4765	0	32788	
4766	0	32812	
4767	0	32840	
4768	0	32826	
4769	0	32820	
4770	0	32824	
4771	0	32760	
4772	0	32724	
4773	0	32736	
4774	0	32668	
4775	0	32536	
4776	0	32472	
4777	0	32448	
4778	0	32478	
4779	0	32552	
4780	0	32576	
4781	0	32600	
4782	0	32660	
4783	0	32740	
4784	0	32784	
4785	0	32792	
4786	0	32842	
4787	0	32876	
4788	0	32904	
4789	0	32912	
4790	0	32888	
4791	0	32848	
4792	0	32780	
4793	0	32744	
4794	0	32688	
4795	0	32620	
4796	0	32604	
4797	0	32604	
4798	0	32640	
4799	0	32672	
4800	0	32704	
4801	0	32720	
4802	0	32704	
4803	0	32744	
4804	0	32816	
4805	0	32884	
4806	0	32960	
4807	0	32944	
4808	0	32948	
4809	0	32928	
4810	0	32880	
4811	0	32840	
4812	0	32756	
4813	0	32668	
4814	0	32584	
4815	0	32608	
4816	0	32616	
4817	0	32592	
4818	0	32592	
4819	0	32648	
4820	0	32724	
4821	0	32784	
4822	0	32832	
4823	0	32864	
4824	0	32890	
4825	0	32880	
4826	0	32844	
4827	0	32832	
4828	0	32848	
4829	0	32856	
4830	0	32828	
4831	0	32808	
4832	0	32780	
4833	0	32724	
4834	0	32696	
4835	0	32752	
4836	0	32760	
4837	0	32796	
4838	0	32832	
4839	0	32868	
4840	0	32984	
4841	0	33148	
4842	0	33314	
4843	0	33460	
4844	0	33608	
4845	0	33764	
4846	0	33948	
4847	0	34040	
4848	0	34048	
4849	0	34048	
4850	0	34080	
4851	0	34140	
4852	0	34216	
4853	0	34220	
4854	0	34170	
4855	0	34124	
4856	0	34136	
4857	0	34152	
4858	0	34224	
4859	0	34272	
4860	0	34340	
4861	0	34508	
4862	0	34700	
4863	0	34868	
4864	0	34984	
4865	0	35048	
4866	0	35124	
4867	0	35184	
4868	0	35264	
4869	0	35368	
4870	0	35514	
4871	0	35584	
4872	0	35556	
4873	0	35472	
4874	0	35400	
4875	0	35312	
4876	0	35208	
4877	0	35216	
4878	0	35204	
4879	0	35124	
4880	0	35076	
4881	0	35092	
4882	0	35172	
4883	0	35236	
4884	0	35228	
4885	0	35156	
4886	0	35056	
4887	0	35008	
4888	0	34942	
4889	0	34748	
4890	0	34512	
4891	0	34308	
4892	0	34188	
4893	0	34070	
4894	0	33944	
4895	0	33808	
4896	0	33800	
4897	0	33800	
4898	0	33760	
4899	0	33744	
4900	0	33752	
4901	0	33776	
4902	0	33768	
4903	0	33760	
4904	0	33816	
4905	0	33888	
4906	0	33968	
4907	0	33956	
4908	0	33848	
4909	0	33728	
4910	0	33584	
4911	0	33400	
4912	0	33260	
4913	0	33128	
4914	0	33056	
4915	0	32970	
4916	0	32848	
4917	0	32680	
4918	0	32640	
4919	0	32640	
4920	0	32640	
4921	0	32568	
4922	0	32504	
4923	0	32480	
4924	0	32424	
4925	0	32340	
4926	0	32192	
4927	0	32060	
4928	0	31988	
4929	0	31952	
4930	0	31924	
4931	0	31850	
4932	0	31760	
4933	0	31728	
4934	0	31696	
4935	0	31688	
4936	0	31668	
4937	0	31704	
4938	0	31748	
4939	0	31784	
4940	0	31840	
4941	0	31896	
4942	0	31938	
4943	0	32000	
4944	0	32048	
4945	0	32052	
4946	0	32052	
4947	0	32036	
4948	0	31984	
4949	0	31948	
4950	0	31920	
4951	0	31888	
4952	0	31862	
4953	0	31844	
4954	0	31776	
4955	0	31688	
4956	0	31616	
4957	0	31608	
4958	0	31636	
4959	0	31682	
4960	0	31756	
4961	0	31800	
4962	0	31858	
4963	0	31912	
4964	0	31984	
4965	0	32064	
4966	0	32156	
4967	0	32208	
4968	0	32196	
4969	0	32156	
4970	0	32080	
4971	0	32076	
4972	0	32060	
4973	0	31968	
4974	0	31876	
4975	0	31832	
4976	0	31802	
4977	0	31712	
4978	0	31616	
4979	0	31528	
4980	0	31440	
4981	0	31280	
4982	0	31108	
4983	0	31016	
4984	0	31028	
4985	0	31128	
4986	0	31224	
4987	0	31272	
4988	0	31440	
4989	0	31848	
4990	0	32292	
4991	0	32768	
4992	0	33460	
4993	0	34332	
4994	0	35322	
4995	0	36512	
4996	0	37880	
4997	0	39348	
4998	0	40808	
4999	0	42176	
5000	0	43600	
5001	0	45080	
5002	0	46596	
5003	0	48144	
5004	0	49720	
5005	0	51216	
5006	0	52628	
5007	0	53920	
5008	0	55200	
5009	0	56516	
5010	0	57752	
5011	0	58800	
5012	0	59612	
5013	0	60184	
5014	0	60476	
5015	0	59932	
5016	0	58472	
5017	0	56252	
5018	0	53236	
5019	0	49888	
5020	0	46512	
5021	0	42816	
5022	0	38596	
5023	0	34264	
5024	0	30652	
5025	0	28124	
5026	0	26618	
5027	0	25824	
5028	0	25492	
5029	0	25482	
5030	0	25600	
5031	0	25738	
5032	0	25944	
5033	0	26176	
5034	0	26416	
5035	0	26724	
5036	0	27052	
5037	0	27456	
5038	0	27968	
5039	0	28444	
5040	0	28848	
5041	0	29236	
5042	0	29528	
5043	0	29752	
5044	0	29928	
5045	0	30064	
5046	0	30104	
5047	0	30112	
5048	0	29974	
5049	0	29788	
5050	0	29768	
5051	0	29760	
5052	0	29708	
5053	0	29592	
5054	0	29504	
5055	0	29432	
5056	0	29316	
5057	0	29268	
5058	0	29216	
5059	0	29232	
5060	0	29288	
5061	0	29316	
5062	0	29290	
5063	0	29328	
5064	0	29464	
5065	0	29536	
5066	0	29536	
5067	0	29572	
5068	0	29592	
5069	0	29596	
5070	0	29600	
5071	0	29588	
5072	0	29592	
5073	0	29632	
5074	0	29620	
5075	0	29580	
5076	0	29572	
5077	0	29576	
5078	0	29604	
5079	0	29664	
5080	0	29716	
5081	0	29768	
5082	0	29780	
5083	0	29832	
5084	0	29888	
5085	0	29952	
5086	0	30008	
5087	0	30080	
5088	0	30140	
5089	0	30220	
5090	0	30240	
5091	0	30192	
5092	0	30152	
5093	0	30162	
5094	0	30216	
5095	0	30232	
5096	0	30172	
5097	0	30140	
5098	0	30156	
5099	0	30232	
5100	0	30324	
5101	0	30412	
5102	0	30464	
5103	0	30516	
5104	0	30596	
5105	0	30648	
5106	0	30746	
5107	0	30768	
5108	0	30816	
5109	0	30864	
5110	0	30860	
5111	0	30832	
5112	0	30876	
5113	0	30858	
5114	0	30860	
5115	0	30844	
5116	0	30792	
5117	0	30796	
5118	0	30856	
5119	0	30968	
5120	0	31068	
5121	0	31076	
5122	0	31144	
5123	0	31204	
5124	0	31260	
5125	0	31296	
5126	0	31282	
5127	0	31264	
5128	0	31292	
5129	0	31372	
5130	0	31394	
5131	0	31320	
5132	0	31296	
5133	0	31312	
5134	0	31350	
5135	0	31328	
5136	0	31288	
5137	0	31272	
5138	0	31320	
5139	0	31420	
5140	0	31472	
5141	0	31520	
5142	0	31588	
5143	0	31684	
5144	0	31746	
5145	0	31800	
5146	0	31872	
5147	0	31936	
5148	0	31949	
5149	0	31900	
5150	0	31796	
5151	0	31676	
5152	0	31624	
5153	0	31708	
5154	0	31784	
5155	0	31800	
5156	0	31804	
5157	0	31796	
5158	0	31820	
5159	0	31880	
5160	0	31928	
5161	0	32024	
5162	0	32104	
5163	0	32152	
5164	0	32264	
5165	0	32380	
5166	0	32464	
5167	0	32504	
5168	0	32528	
5169	0	32516	
5170	0	32528	
5171	0	32516	
5172	0	32504	
5173	0	32488	
5174	0	32424	
5175	0	32360	
5176	0	32392	
5177	0	32436	
5178	0	32460	
5179	0	32684	
5180	0	32816	
5181	0	32912	
5182	0	32992	
5183	0	33064	
5184	0	33128	
5185	0	33180	
5186	0	33240	
5187	0	33276	
5188	0	33376	
5189	0	33456	
5190	0	33516	
5191	0	33552	
5192	0	33512	
5193	0	33450	
5194	0	33480	
5195	0	33552	
5196	0	33624	
5197	0	33704	
5198	0	33808	
5199	0	33872	
5200	0	34004	
5201	0	34140	
5202	0	34212	
5203	0	34336	
5204	0	34488	
5205	0	34592	
5206	0	34704	
5207	0	34804	
5208	0	34864	
5209	0	34920	
5210	0	35032	
5211	0	35104	
5212	0	35068	
5213	0	35016	
5214	0	35032	
5215	0	35112	
5216	0	35176	
5217	0	35232	
5218	0	35348	
5219	0	35506	
5220	0	35672	
5221	0	35820	
5222	0	35934	
5223	0	36032	
5224	0	36128	
5225	0	36220	
5226	0	36320	
5227	0	36420	
5228	0	36484	
5229	0	36452	
5230	0	36420	
5231	0	36384	
5232	0	36360	
5233	0	36380	
5234	0	36388	
5235	0	36452	
5236	0	36460	
5237	0	36540	
5238	0	36608	
5239	0	36640	
5240	0	36650	
5241	0	36672	
5242	0	36792	
5243	0	36920	
5244	0	36996	
5245	0	37044	
5246	0	37100	
5247	0	37108	
5248	0	37044	
5249	0	36948	
5250	0	36904	
5251	0	36896	
5252	0	36836	
5253	0	36768	
5254	0	36688	
5255	0	36616	
5256	0	36468	
5257	0	36352	
5258	0	36290	
5259	0	36240	
5260	0	36208	
5261	0	36176	
5262	0	36120	
5263	0	36100	
5264	0	36048	
5265	0	35948	
5266	0	35888	
5267	0	35800	
5268	0	35712	
5269	0	35552	
5270	0	35316	
5271	0	35084	
5272	0	34856	
5273	0	34628	
5274	0	34448	
5275	0	34292	
5276	0	34114	
5277	0	33950	
5278	0	33804	
5279	0	33624	
5280	0	33452	
5281	0	33232	
5282	0	33064	
5283	0	32944	
5284	0	32796	
5285	0	32700	
5286	0	32584	
5287	0	32448	
5288	0	32208	
5289	0	31970	
5290	0	31776	
5291	0	31568	
5292	0	31400	
5293	0	31202	
5294	0	31022	
5295	0	30776	
5296	0	30568	
5297	0	30436	
5298	0	30336	
5299	0	30244	
5300	0	30184	
5301	0	30088	
5302	0	29986	
5303	0	29924	
5304	0	29848	
5305	0	29772	
5306	0	29728	
5307	0	29640	
5308	0	29524	
5309	0	29436	
5310	0	29336	
5311	0	29208	
5312	0	29024	
5313	0	28828	
5314	0	28730	
5315	0	28664	
5316	0	28668	
5317	0	28722	
5318	0	28728	
5319	0	28656	
5320	0	28640	
5321	0	28630	
5322	0	28608	
5323	0	28652	
5324	0	28704	
5325	0	28776	
5326	0	28852	
5327	0	28876	
5328	0	28896	
5329	0	28840	
5330	0	28736	
5331	0	28640	
5332	0	28604	
5333	0	28528	
5334	0	28448	
5335	0	28500	
5336	0	28572	
5337	0	28600	
5338	0	28612	
5339	0	28688	
5340	0	28780	
5341	0	28784	
5342	0	28792	
5343	0	28904	
5344	0	29010	
5345	0	29116	
5346	0	29192	
5347	0	29240	
5348	0	29184	
5349	0	29156	
5350	0	29112	
5351	0	29108	
5352	0	29128	
5353	0	29128	
5354	0	29096	
5355	0	29072	
5356	0	29120	
5357	0	29204	
5358	0	29240	
5359	0	29272	
5360	0	29316	
5361	0	29352	
5362	0	29408	
5363	0	29468	
5364	0	29524	
5365	0	29596	
5366	0	29642	
5367	0	29664	
5368	0	29696	
5369	0	29688	
5370	0	29704	
5371	0	29668	
5372	0	29620	
5373	0	29584	
5374	0	29600	
5375	0	29640	
5376	0	29576	
5377	0	29580	
5378	0	29680	
5379	0	29788	
5380	0	29892	
5381	0	29968	
5382	0	30024	
5383	0	30032	
5384	0	30016	
5385	0	30036	
5386	0	30104	
5387	0	30128	
5388	0	30144	
5389	0	30136	
5390	0	30156	
5391	0	30108	
5392	0	30064	
5393	0	30112	
5394	0	30100	
5395	0	30142	
5396	0	30144	
5397	0	30136	
5398	0	30168	
5399	0	30208	
5400	0	30292	
5401	0	30348	
5402	0	30364	
5403	0	30456	
5404	0	30540	
5405	0	30628	
5406	0	30696	
5407	0	30732	
5408	0	30748	
5409	0	30720	
5410	0	30708	
5411	0	30692	
5412	0	30684	
5413	0	30696	
5414	0	30636	
5415	0	30608	
5416	0	30592	
5417	0	30568	
5418	0	30592	
5419	0	30580	
5420	0	30594	
5421	0	30616	
5422	0	30664	
5423	0	30740	
5424	0	30784	
5425	0	30816	
5426	0	30888	
5427	0	30948	
5428	0	31016	
5429	0	31104	
5430	0	31100	
5431	0	30988	
5432	0	30952	
5433	0	30920	
5434	0	30964	
5435	0	30976	
5436	0	30928	
5437	0	30996	
5438	0	30980	
5439	0	30852	
5440	0	30884	
5441	0	31004	
5442	0	31064	
5443	0	31092	
5444	0	31128	
5445	0	31148	
5446	0	31216	
5447	0	31264	
5448	0	31248	
5449	0	31272	
5450	0	31300	
5451	0	31276	
5452	0	31180	
5453	0	31180	
5454	0	31204	
5455	0	31212	
5456	0	31160	
5457	0	31112	
5458	0	31128	
5459	0	31160	
5460	0	31196	
5461	0	31196	
5462	0	31192	
5463	0	31212	
5464	0	31256	
5465	0	31356	
5466	0	31472	
5467	0	31568	
5468	0	31624	
5469	0	31594	
5470	0	31536	
5471	0	31576	
5472	0	31504	
5473	0	31296	
5474	0	31152	
5475	0	31100	
5476	0	31124	
5477	0	31160	
5478	0	31184	
5479	0	31240	
5480	0	31276	
5481	0	31348	
5482	0	31420	
5483	0	31540	
5484	0	31652	
5485	0	31644	
5486	0	31704	
5487	0	31740	
5488	0	31716	
5489	0	31734	
5490	0	31776	
5491	0	31712	
5492	0	31624	
5493	0	31496	
5494	0	31406	
5495	0	31456	
5496	0	31538	
5497	0	31568	
5498	0	31584	
5499	0	31616	
5500	0	31668	
5501	0	31730	
5502	0	31764	
5503	0	31908	
5504	0	32064	
5505	0	32112	
5506	0	32120	
5507	0	32116	
5508	0	32036	
5509	0	31936	
5510	0	31884	
5511	0	31820	
5512	0	31776	
5513	0	31700	
5514	0	31636	
5515	0	31660	
5516	0	31660	
5517	0	31616	
5518	0	31632	
5519	0	31600	
5520	0	31536	
5521	0	31564	
5522	0	31624	
5523	0	31732	
5524	0	31824	
5525	0	31860	
5526	0	31908	
5527	0	31920	
5528	0	31900	
5529	0	31808	
5530	0	31768	
5531	0	31800	
5532	0	31788	
5533	0	31732	
5534	0	31700	
5535	0	31800	
5536	0	31848	
5537	0	31860	
5538	0	31876	
5539	0	31856	
5540	0	31892	
5541	0	31980	
5542	0	32032	
5543	0	32120	
5544	0	32186	
5545	0	32224	
5546	0	32272	
5547	0	32336	
5548	0	32332	
5549	0	32252	
5550	0	32232	
5551	0	32212	
5552	0	32140	
5553	0	32088	
5554	0	32024	
5555	0	31964	
5556	0	31960	
5557	0	32016	
5558	0	32072	
5559	0	32098	
5560	0	32122	
5561	0	32108	
5562	0	32148	
5563	0	32296	
5564	0	32432	
5565	0	32444	
5566	0	32440	
5567	0	32480	
5568	0	32626	
5569	0	32780	
5570	0	32864	
5571	0	32946	
5572	0	32980	
5573	0	32948	
5574	0	32984	
5575	0	33128	
5576	0	33312	
5577	0	33392	
5578	0	33460	
5579	0	33576	
5580	0	33576	
5581	0	33612	
5582	0	33708	
5583	0	33796	
5584	0	33848	
5585	0	33920	
5586	0	34060	
5587	0	34128	
5588	0	34088	
5589	0	34100	
5590	0	34148	
5591	0	34172	
5592	0	34172	
5593	0	34220	
5594	0	34324	
5595	0	34428	
5596	0	34564	
5597	0	34688	
5598	0	34816	
5599	0	34844	
5600	0	34888	
5601	0	34944	
5602	0	34940	
5603	0	35004	
5604	0	35120	
5605	0	35140	
5606	0	35216	
5607	0	35372	
5608	0	35516	
5609	0	35560	
5610	0	35488	
5611	0	35340	
5612	0	35208	
5613	0	35016	
5614	0	34752	
5615	0	34468	
5616	0	34276	
5617	0	34068	
5618	0	33912	
5619	0	33816	
5620	0	33804	
5621	0	33820	
5622	0	33844	
5623	0	33900	
5624	0	33968	
5625	0	34032	
5626	0	34088	
5627	0	33996	
5628	0	33892	
5629	0	33784	
5630	0	33760	
5631	0	33724	
5632	0	33592	
5633	0	33492	
5634	0	33360	
5635	0	33180	
5636	0	33040	
5637	0	32916	
5638	0	32832	
5639	0	32720	
5640	0	32676	
5641	0	32654	
5642	0	32536	
5643	0	32504	
5644	0	32464	
5645	0	32444	
5646	0	32400	
5647	0	32372	
5648	0	32304	
5649	0	32216	
5650	0	32084	
5651	0	31960	
5652	0	31868	
5653	0	31736	
5654	0	31624	
5655	0	31478	
5656	0	31392	
5657	0	31380	
5658	0	31392	
5659	0	31416	
5660	0	31508	
5661	0	31636	
5662	0	31680	
5663	0	31722	
5664	0	31796	
5665	0	31864	
5666	0	31932	
5667	0	31860	
5668	0	31800	
5669	0	31786	
5670	0	31784	
5671	0	31696	
5672	0	31692	
5673	0	31618	
5674	0	31552	
5675	0	31628	
5676	0	31676	
5677	0	31676	
5678	0	31674	
5679	0	31736	
5680	0	31756	
5681	0	31820	
5682	0	31924	
5683	0	31976	
5684	0	31936	
5685	0	31908	
5686	0	31944	
5687	0	32012	
5688	0	32036	
5689	0	31992	
5690	0	32036	
5691	0	32040	
5692	0	31984	
5693	0	31888	
5694	0	31876	
5695	0	31904	
5696	0	31904	
5697	0	31912	
5698	0	31858	
5699	0	31844	
5700	0	31912	
5701	0	32074	
5702	0	32216	
5703	0	32306	
5704	0	32264	
5705	0	32172	
5706	0	32128	
5707	0	32060	
5708	0	31876	
5709	0	31672	
5710	0	31544	
5711	0	31336	
5712	0	31144	
5713	0	31108	
5714	0	31088	
5715	0	31136	
5716	0	31342	
5717	0	31694	
5718	0	32244	
5719	0	32968	
5720	0	33760	
5721	0	34724	
5722	0	35864	
5723	0	37240	
5724	0	38794	
5725	0	40372	
5726	0	41822	
5727	0	43220	
5728	0	44676	
5729	0	46192	
5730	0	47744	
5731	0	49156	
5732	0	50472	
5733	0	51680	
5734	0	52868	
5735	0	53984	
5736	0	55100	
5737	0	56112	
5738	0	57180	
5739	0	58264	
5740	0	59240	
5741	0	59912	
5742	0	60096	
5743	0	59408	
5744	0	57808	
5745	0	55384	
5746	0	52232	
5747	0	48840	
5748	0	45384	
5749	0	41592	
5750	0	37372	
5751	0	33012	
5752	0	29364	
5753	0	26772	
5754	0	25260	
5755	0	24644	
5756	0	24472	
5757	0	24636	
5758	0	24960	
5759	0	25376	
5760	0	25784	
5761	0	26100	
5762	0	26324	
5763	0	26666	
5764	0	26984	
5765	0	27220	
5766	0	27472	
5767	0	27692	
5768	0	27928	
5769	0	28226	
5770	0	28568	
5771	0	28916	
5772	0	29208	
5773	0	29432	
5774	0	29660	
5775	0	29852	
5776	0	29884	
5777	0	29932	
5778	0	29920	
5779	0	29896	
5780	0	29928	
5781	0	30012	
5782	0	30052	
5783	0	30104	
5784	0	30164	
5785	0	30210	
5786	0	30280	
5787	0	30216	
5788	0	30096	
5789	0	30064	
5790	0	30036	
5791	0	30024	
5792	0	29972	
5793	0	29940	
5794	0	29914	
5795	0	29944	
5796	0	30004	
5797	0	30064	
5798	0	30136	
5799	0	30208	
5800	0	30266	
5801	0	30360	
5802	0	30512	
5803	0	30608	
5804	0	30704	
5805	0	30744	
5806	0	30768	
5807	0	30760	
5808	0	30724	
5809	0	30736	
5810	0	30676	
5811	0	30600	
5812	0	30612	
5813	0	30644	
5814	0	30636	
5815	0	30628	
5816	0	30656	
5817	0	30730	
5818	0	30820	
5819	0	30816	
5820	0	30848	
5821	0	30936	
5822	0	31040	
5823	0	31084	
5824	0	31192	
5825	0	31224	
5826	0	31248	
5827	0	31268	
5828	0	31324	
5829	0	31356	
5830	0	31452	
5831	0	31428	
5832	0	31392	
5833	0	31320	
5834	0	31248	
5835	0	31260	
5836	0	31204	
5837	0	31192	
5838	0	31196	
5839	0	31152	
5840	0	31186	
5841	0	31296	
5842	0	31288	
5843	0	31416	
5844	0	31628	
5845	0	31808	
5846	0	31808	
5847	0	31780	
5848	0	31804	
5849	0	31800	
5850	0	31786	
5851	0	31736	
5852	0	31660	
5853	0	31540	
5854	0	31572	
5855	0	31616	
5856	0	31616	
5857	0	31604	
5858	0	31552	
5859	0	31616	
5860	0	31736	
5861	0	31840	
5862	0	31932	
5863	0	31956	
5864	0	31992	
5865	0	32092	
5866	0	32176	
5867	0	32260	
5868	0	32346	
5869	0	32364	
5870	0	32416	
5871	0	32392	
5872	0	32312	
5873	0	32224	
5874	0	32236	
5875	0	32264	
5876	0	32366	
5877	0	32440	
5878	0	32440	
5879	0	32504	
5880	0	32560	
5881	0	32560	
5882	0	32574	
5883	0	32636	
5884	0	32740	
5885	0	32852	
5886	0	32904	
5887	0	32896	
5888	0	32908	
5889	0	32944	
5890	0	32924	
5891	0	32900	
5892	0	32784	
5893	0	32634	
5894	0	32584	
5895	0	32600	
5896	0	32560	
5897	0	32616	
5898	0	32756	
5899	0	33020	
5900	0	33208	
5901	0	33308	
5902	0	33340	
5903	0	33420	
5904	0	33536	
5905	0	33640	
5906	0	33720	
5907	0	33716	
5908	0	33744	
5909	0	33824	
5910	0	33824	
5911	0	33840	
5912	0	33952	
5913	0	33996	
5914	0	34008	
5915	0	34020	
5916	0	33976	
5917	0	34000	
5918	0	34052	
5919	0	34048	
5920	0	34092	
5921	0	34126	
5922	0	34208	
5923	0	34364	
5924	0	34436	
5925	0	34572	
5926	0	34812	
5927	0	34952	
5928	0	34952	
5929	0	34928	
5930	0	34828	
5931	0	34784	
5932	0	34880	
5933	0	34960	
5934	0	35024	
5935	0	35120	
5936	0	35232	
5937	0	35320	
5938	0	35408	
5939	0	35472	
5940	0	35600	
5941	0	35760	
5942	0	35920	
5943	0	36016	
5944	0	36096	
5945	0	36208	
5946	0	36328	
5947	0	36496	
5948	0	36628	
5949	0	36656	
5950	0	36652	
5951	0	36664	
5952	0	36664	
5953	0	36624	
5954	0	36588	
5955	0	36624	
5956	0	36620	
5957	0	36628	
5958	0	36752	
5959	0	36868	
5960	0	36904	
5961	0	36956	
5962	0	37068	
5963	0	37148	
5964	0	37228	
5965	0	37324	
5966	0	37412	
5967	0	37472	
5968	0	37432	
5969	0	37412	
5970	0	37428	
5971	0	37376	
5972	0	37280	
5973	0	37236	
5974	0	37240	
5975	0	37216	
5976	0	37200	
5977	0	37188	
5978	0	37172	
5979	0	37180	
5980	0	37240	
5981	0	37250	
5982	0	37308	
5983	0	37328	
5984	0	37344	
5985	0	37356	
5986	0	37314	
5987	0	37260	
5988	0	37178	
5989	0	37032	
5990	0	36832	
5991	0	36664	
5992	0	36424	
5993	0	36136	
5994	0	35828	
5995	0	35588	
5996	0	35468	
5997	0	35360	
5998	0	35144	
5999	0	34980	
6000	0	34868	
6001	0	34776	
6002	0	34712	
6003	0	34612	
6004	0	34608	
6005	0	34492	
6006	0	34316	
6007	0	34132	
6008	0	33996	
6009	0	33832	
6010	0	33564	
6011	0	33216	
6012	0	32908	
6013	0	32592	
6014	0	32324	
6015	0	32128	
6016	0	31924	
6017	0	31776	
6018	0	31640	
6019	0	31436	
6020	0	31372	
6021	0	31372	
6022	0	31312	
6023	0	31230	
6024	0	31072	
6025	0	30954	
6026	0	30932	
6027	0	30820	
6028	0	30664	
6029	0	30532	
6030	0	30424	
6031	0	30244	
6032	0	30032	
6033	0	29910	
6034	0	29860	
6035	0	29772	
6036	0	29656	
6037	0	29620	
6038	0	29604	
6039	0	29532	
6040	0	29524	
6041	0	29444	
6042	0	29408	
6043	0	29440	
6044	0	29424	
6045	0	29496	
6046	0	29504	
6047	0	29448	
6048	0	29376	
6049	0	29372	
6050	0	29284	
6051	0	29192	
6052	0	29120	
6053	0	29020	
6054	0	28992	
6055	0	28908	
6056	0	28860	
6057	0	28924	
6058	0	29028	
6059	0	29044	
6060	0	29048	
6061	0	29140	
6062	0	29244	
6063	0	29372	
6064	0	29460	
6065	0	29568	
6066	0	29628	
6067	0	29624	
6068	0	29620	
6069	0	29632	
6070	0	29616	
6071	0	29632	
6072	0	29568	
6073	0	29508	
6074	0	29452	
6075	0	29360	
6076	0	29236	
6077	0	29268	
6078	0	29324	
6079	0	29324	
6080	0	29378	
6081	0	29536	
6082	0	29640	
6083	0	29720	
6084	0	29840	
6085	0	29896	
6086	0	29908	
6087	0	29986	
6088	0	29966	
6089	0	29848	
6090	0	29732	
6091	0	29748	
6092	0	29824	
6093	0	29880	
6094	0	29856	
6095	0	29896	
6096	0	29872	
6097	0	29864	
6098	0	29980	
6099	0	30100	
6100	0	30180	
6101	0	30234	
6102	0	30272	
6103	0	30304	
6104	0	30316	
6105	0	30440	
6106	0	30528	
6107	0	30548	
6108	0	30516	
6109	0	30496	
6110	0	30500	
6111	0	30432	
6112	0	30468	
6113	0	30484	
6114	0	30392	
6115	0	30300	
6116	0	30364	
6117	0	30408	
6118	0	30408	
6119	0	30524	
6120	0	30704	
6121	0	30814	
6122	0	30812	
6123	0	30872	
6124	0	30932	
6125	0	30924	
6126	0	30860	
6127	0	30780	
6128	0	30800	
6129	0	30848	
6130	0	30880	
6131	0	30912	
6132	0	30930	
6133	0	30924	
6134	0	30896	
6135	0	30804	
6136	0	30804	
6137	0	30924	
6138	0	31028	
6139	0	31098	
6140	0	31124	
6141	0	31136	
6142	0	31144	
6143	0	31152	
6144	0	31240	
6145	0	31356	
6146	0	31336	
6147	0	31200	
6148	0	31148	
6149	0	31264	
6150	0	31408	
6151	0	31384	
6152	0	31312	
6153	0	31172	
6154	0	31064	
6155	0	31092	
6156	0	31172	
6157	0	31266	
6158	0	31336	
6159	0	31364	
6160	0	31392	
6161	0	31436	
6162	0	31544	
6163	0	31528	
6164	0	31468	
6165	0	31528	
6166	0	31600	
6167	0	31680	
6168	0	31704	
6169	0	31648	
6170	0	31500	
6171	0	31400	
6172	0	31328	
6173	0	31368	
6174	0	31420	
6175	0	31458	
6176	0	31506	
6177	0	31528	
6178	0	31520	
6179	0	31512	
6180	0	31564	
6181	0	31636	
6182	0	31746	
6183	0	31828	
6184	0	31892	
6185	0	31956	
6186	0	32056	
6187	0	32100	
6188	0	32088	
6189	0	31968	
6190	0	31812	
6191	0	31716	
6192	0	31656	
6193	0	31592	
6194	0	31600	
6195	0	31680	
6196	0	31664	
6197	0	31632	
6198	0	31688	
6199	0	31716	
6200	0	31738	
6201	0	31756	
6202	0	31768	
6203	0	31852	
6204	0	31876	
6205	0	31856	
6206	0	31912	
6207	0	31984	
6208	0	32078	
6209	0	32072	
6210	0	31968	
6211	0	31938	
6212	0	31976	
6213	0	31872	
6214	0	31776	
6215	0	31722	
6216	0	31632	
6217	0	31660	
6218	0	31704	
6219	0	31736	
6220	0	31772	
6221	0	31832	
6222	0	31928	
6223	0	31984	
6224	0	32002	
6225	0	32064	
6226	0	32172	
6227	0	32232	
6228	0	32276	
6229	0	32252	
6230	0	32224	
6231	0	32208	
6232	0	32188	
6233	0	32128	
6234	0	32084	
6235	0	32072	
6236	0	32016	
6237	0	31936	
6238	0	31936	
6239	0	31988	
6240	0	32120	
6241	0	32240	
6242	0	32336	
6243	0	32412	
6244	0	32420	
6245	0	32412	
6246	0	32376	
6247	0	32352	
6248	0	32308	
6249	0	32298	
6250	0	32280	
6251	0	32328	
6252	0	32426	
6253	0	32460	
6254	0	32512	
6255	0	32618	
6256	0	32706	
6257	0	32776	
6258	0	32864	
6259	0	33040	
6260	0	33234	
6261	0	33448	
6262	0	33632	
6263	0	33696	
6264	0	33584	
6265	0	33520	
6266	0	33572	
6267	0	33716	
6268	0	33812	
6269	0	33698	
6270	0	33544	
6271	0	33552	
6272	0	33644	
6273	0	33712	
6274	0	33776	
6275	0	33852	
6276	0	33852	
6277	0	33820	
6278	0	33908	
6279	0	34156	
6280	0	34368	
6281	0	34508	
6282	0	34700	
6283	0	34892	
6284	0	34948	
6285	0	34980	
6286	0	35120	
6287	0	35212	
6288	0	35176	
6289	0	35084	
6290	0	35080	
6291	0	35096	
6292	0	35224	
6293	0	35296	
6294	0	35312	
6295	0	35296	
6296	0	35168	
6297	0	35008	
6298	0	34900	
6299	0	34800	
6300	0	34740	
6301	0	34664	
6302	0	34504	
6303	0	34384	
6304	0	34292	
6305	0	34216	
6306	0	34228	
6307	0	34264	
6308	0	34294	
6309	0	34316	
6310	0	34268	
6311	0	34096	
6312	0	33844	
6313	0	33676	
6314	0	33648	
6315	0	33584	
6316	0	33508	
6317	0	33452	
6318	0	33324	
6319	0	33216	
6320	0	33164	
6321	0	33092	
6322	0	33024	
6323	0	32948	
6324	0	32968	
6325	0	33028	
6326	0	33000	
6327	0	32864	
6328	0	32704	
6329	0	32616	
6330	0	32484	
6331	0	32368	
6332	0	32288	
6333	0	32164	
6334	0	32052	
6335	0	32024	
6336	0	31944	
6337	0	31792	
6338	0	31656	
6339	0	31636	
6340	0	31692	
6341	0	31800	
6342	0	31876	
6343	0	31976	
6344	0	32012	
6345	0	32032	
6346	0	32020	
6347	0	32072	
6348	0	32184	
6349	0	32140	
6350	0	32062	
6351	0	31948	
6352	0	31872	
6353	0	31812	
6354	0	31752	
6355	0	31760	
6356	0	31720	
6357	0	31720	
6358	0	31684	
6359	0	31646	
6360	0	31688	
6361	0	31724	
6362	0	31760	
6363	0	31872	
6364	0	31972	
6365	0	32036	
6366	0	32080	
6367	0	32040	
6368	0	31968	
6369	0	31898	
6370	0	31936	
6371	0	31956	
6372	0	31892	
6373	0	31692	
6374	0	31548	
6375	0	31560	
6376	0	31614	
6377	0	31716	
6378	0	31824	
6379	0	31924	
6380	0	32000	
6381	0	32024	
6382	0	32068	
6383	0	32128	
6384	0	32236	
6385	0	32348	
6386	0	32476	
6387	0	32564	
6388	0	32568	
6389	0	32568	
6390	0	32516	
6391	0	32392	
6392	0	32232	
6393	0	32108	
6394	0	31964	
6395	0	31762	
6396	0	31624	
6397	0	31484	
6398	0	31394	
6399	0	31280	
6400	0	31264	
6401	0	31364	
6402	0	31428	
6403	0	31524	
6404	0	31836	
6405	0	32432	
6406	0	33056	
6407	0	33720	
6408	0	34624	
6409	0	35636	
6410	0	36800	
6411	0	38248	
6412	0	39800	
6413	0	41224	
6414	0	42608	
6415	0	44092	
6416	0	45700	
6417	0	47344	
6418	0	48856	
6419	0	50132	
6420	0	51368	
6421	0	52560	
6422	0	53816	
6423	0	55056	
6424	0	56184	
6425	0	57228	
6426	0	58272	
6427	0	59404	
6428	0	60264	
6429	0	60648	
6430	0	60120	
6431	0	58684	
6432	0	56440	
6433	0	53296	
6434	0	49768	
6435	0	46188	
6436	0	42420	
6437	0	38298	
6438	0	34000	
6439	0	30116	
6440	0	27282	
6441	0	25616	
6442	0	24896	
6443	0	24742	
6444	0	24952	
6445	0	25324	
6446	0	25692	
6447	0	26018	
6448	0	26232	
6449	0	26416	
6450	0	26640	
6451	0	26892	
6452	0	27040	
6453	0	27084	
6454	0	27200	
6455	0	27416	
6456	0	27724	
6457	0	28084	
6458	0	28464	
6459	0	28860	
6460	0	29232	
6461	0	29546	
6462	0	29848	
6463	0	30104	
6464	0	30240	
6465	0	30376	
6466	0	30480	
6467	0	30456	
6468	0	30436	
6469	0	30328	
6470	0	30240	
6471	0	30086	
6472	0	29978	
6473	0	29952	
6474	0	29980	
6475	0	29984	
6476	0	29912	
6477	0	29864	
6478	0	29812	
6479	0	29800	
6480	0	29824	
6481	0	29856	
6482	0	30052	
6483	0	30252	
6484	0	30384	
6485	0	30496	
6486	0	30592	
6487	0	30626	
6488	0	30696	
6489	0	30704	
6490	0	30640	
6491	0	30544	
6492	0	30476	
6493	0	30504	
6494	0	30548	
6495	0	30560	
6496	0	30636	
6497	0	30628	
6498	0	30596	
6499	0	30632	
6500	0	30748	
6501	0	30872	
6502	0	30964	
6503	0	31084	
6504	0	31244	
6505	0	31364	
6506	0	31456	
6507	0	31448	
6508	0	31404	
6509	0	31428	
6510	0	31440	
6511	0	31320	
6512	0	31200	
6513	0	31152	
6514	0	31172	
6515	0	31168	
6516	0	31152	
6517	0	31168	
6518	0	31238	
6519	0	31348	
6520	0	31416	
6521	0	31464	
6522	0	31552	
6523	0	31648	
6524	0	31736	
6525	0	31792	
6526	0	31840	
6527	0	31884	
6528	0	31824	
6529	0	31796	
6530	0	31788	
6531	0	31772	
6532	0	31640	
6533	0	31532	
6534	0	31528	
6535	0	31524	
6536	0	31520	
6537	0	31614	
6538	0	31724	
6539	0	31792	
6540	0	31900	
6541	0	31972	
6542	0	32060	
6543	0	32152	
6544	0	32228	
6545	0	32340	
6546	0	32348	
6547	0	32336	
6548	0	32364	
6549	0	32344	
6550	0	32344	
6551	0	32320	
6552	0	32288	
6553	0	32288	
6554	0	32288	
6555	0	32296	
6556	0	32336	
6557	0	32340	
6558	0	32308	
6559	0	32314	
6560	0	32320	
6561	0	32396	
6562	0	32562	
6563	0	32704	
6564	0	32808	
6565	0	32896	
6566	0	32960	
6567	0	32908	
6568	0	32838	
6569	0	32864	
6570	0	32834	
6571	0	32776	
6572	0	32764	
6573	0	32736	
6574	0	32728	
6575	0	32768	
6576	0	32824	
6577	0	32864	
6578	0	32960	
6579	0	33030	
6580	0	33086	
6581	0	33224	
6582	0	33412	
6583	0	33580	
6584	0	33704	
6585	0	33824	
6586	0	33834	
6587	0	33764	
6588	0	33704	
6589	0	33660	
6590	0	33616	
6591	0	33644	
6592	0	33664	
6593	0	33700	
6594	0	33740	
6595	0	33776	
6596	0	33824	
6597	0	33844	
6598	0	33852	
6599	0	33944	
6600	0	34020	
6601	0	34204	
6602	0	34396	
6603	0	34508	
6604	0	34654	
6605	0	34792	
6606	0	34868	
6607	0	34928	
6608	0	35032	
6609	0	35112	
6610	0	35104	
6611	0	35024	
6612	0	34980	
6613	0	34924	
6614	0	34920	
6615	0	35004	
6616	0	35024	
6617	0	35070	
6618	0	35192	
6619	0	35360	
6620	0	35492	
6621	0	35584	
6622	0	35764	
6623	0	36032	
6624	0	36190	
6625	0	36236	
6626	0	36342	
6627	0	36400	
6628	0	36400	
6629	0	36428	
6630	0	36444	
6631	0	36472	
6632	0	36496	
6633	0	36524	
6634	0	36570	
6635	0	36596	
6636	0	36728	
6637	0	36888	
6638	0	37008	
6639	0	37056	
6640	0	37108	
6641	0	37184	
6642	0	37256	
6643	0	37372	
6644	0	37468	
6645	0	37536	
6646	0	37628	
6647	0	37688	
6648	0	37698	
6649	0	37736	
6650	0	37696	
6651	0	37612	
6652	0	37546	
6653	0	37480	
6654	0	37460	
6655	0	37456	
6656	0	37464	
6657	0	37476	
6658	0	37480	
6659	0	37552	
6660	0	37572	
6661	0	37634	
6662	0	37736	
6663	0	37832	
6664	0	37848	
6665	0	37824	
6666	0	37832	
6667	0	37810	
6668	0	37716	
6669	0	37588	
6670	0	37420	
6671	0	37248	
6672	0	37092	
6673	0	36972	
6674	0	36832	
6675	0	36724	
6676	0	36660	
6677	0	36556	
6678	0	36432	
6679	0	36316	
6680	0	36220	
6681	0	36072	
6682	0	35936	
6683	0	35856	
6684	0	35760	
6685	0	35628	
6686	0	35480	
6687	0	35264	
6688	0	35004	
6689	0	34792	
6690	0	34564	
6691	0	34304	
6692	0	34044	
6693	0	33808	
6694	0	33616	
6695	0	33348	
6696	0	33152	
6697	0	32984	
6698	0	32872	
6699	0	32752	
6700	0	32624	
6701	0	32516	
6702	0	32376	
6703	0	32232	
6704	0	32116	
6705	0	32078	
6706	0	31968	
6707	0	31820	
6708	0	31700	
6709	0	31524	
6710	0	31250	
6711	0	31012	
6712	0	30840	
6713	0	30700	
6714	0	30516	
6715	0	30312	
6716	0	30184	
6717	0	30104	
6718	0	30088	
6719	0	30080	
6720	0	30096	
6721	0	30096	
6722	0	30180	
6723	0	30136	
6724	0	30076	
6725	0	30008	
6726	0	29920	
6727	0	29832	
6728	0	29736	
6729	0	29696	
6730	0	29690	
6731	0	29656	
6732	0	29564	
6733	0	29444	
6734	0	29452	
6735	0	29452	
6736	0	29400	
6737	0	29420	
6738	0	29488	
6739	0	29466	
6740	0	29480	
6741	0	29504	
6742	0	29532	
6743	0	29600	
6744	0	29680	
6745	0	29736	
6746	0	29772	
6747	0	29764	
6748	0	29772	
6749	0	29792	
6750	0	29700	
6751	0	29620	
6752	0	29472	
6753	0	29384	
6754	0	29344	
6755	0	29292	
6756	0	29328	
6757	0	29356	
6758	0	29352	
6759	0	29376	
6760	0	29444	
6761	0	29600	
6762	0	29856	
6763	0	30048	
6764	0	30168	
6765	0	30188	
6766	0	30144	
6767	0	30120	
6768	0	30124	
6769	0	30116	
6770	0	30096	
6771	0	30160	
6772	0	30128	
6773	0	30052	
6774	0	29980	
6775	0	29908	
6776	0	29964	
6777	0	30012	
6778	0	30060	
6779	0	30124	
6780	0	30192	
6781	0	30292	
6782	0	30364	
6783	0	30424	
6784	0	30480	
6785	0	30540	
6786	0	30596	
6787	0	30628	
6788	0	30608	
6789	0	30584	
6790	0	30568	
6791	0	30504	
6792	0	30450	
6793	0	30400	
6794	0	30360	
6795	0	30380	
6796	0	30428	
6797	0	30496	
6798	0	30596	
6799	0	30684	
6800	0	30736	
6801	0	30836	
6802	0	30948	
6803	0	31032	
6804	0	31128	
6805	0	31220	
6806	0	31224	
6807	0	31200	
6808	0	31172	
6809	0	31148	
6810	0	31156	
6811	0	31116	
6812	0	31052	
6813	0	30992	
6814	0	31004	
6815	0	31092	
6816	0	31156	
6817	0	31170	
6818	0	31180	
6819	0	31162	
6820	0	31228	
6821	0	31284	
6822	0	31374	
6823	0	31512	
6824	0	31604	
6825	0	31672	
6826	0	31724	
6827	0	31720	
6828	0	31756	
6829	0	31716	
6830	0	31624	
6831	0	31566	
6832	0	31520	
6833	0	31444	
6834	0	31392	
6835	0	31340	
6836	0	31352	
6837	0	31360	
6838	0	31360	
6839	0	31392	
6840	0	31512	
6841	0	31644	
6842	0	31808	
6843	0	31904	
6844	0	31912	
6845	0	31930	
6846	0	31968	
6847	0	31980	
6848	0	31948	
6849	0	31892	
6850	0	31812	
6851	0	31740	
6852	0	31700	
6853	0	31628	
6854	0	31620	
6855	0	31610	
6856	0	31636	
6857	0	31688	
6858	0	31708	
6859	0	31780	
6860	0	31800	
6861	0	31872	
6862	0	31948	
6863	0	31984	
6864	0	32032	
6865	0	32096	
6866	0	32096	
6867	0	32088	
6868	0	32020	
6869	0	32008	
6870	0	31966	
6871	0	31928	
6872	0	31792	
6873	0	31802	
6874	0	31820	
6875	0	31808	
6876	0	31788	
6877	0	31756	
6878	0	31752	
6879	0	31800	
6880	0	31844	
6881	0	31936	
6882	0	32016	
6883	0	32048	
6884	0	32064	
6885	0	32098	
6886	0	32116	
6887	0	32152	
6888	0	32192	
6889	0	32232	
6890	0	32204	
6891	0	32160	
6892	0	32096	
6893	0	32036	
6894	0	31984	
6895	0	31944	
6896	0	31944	
6897	0	31980	
6898	0	32076	
6899	0	32084	
6900	0	32100	
6901	0	32136	
6902	0	32236	
6903	0	32280	
6904	0	32276	
6905	0	32288	
6906	0	32272	
6907	0	32214	
6908	0	32152	
6909	0	32184	
6910	0	32164	
6911	0	32136	
6912	0	32104	
6913	0	32080	
6914	0	32096	
6915	0	32112	
6916	0	32144	
6917	0	32132	
6918	0	32148	
6919	0	32156	
6920	0	32204	
6921	0	32268	
6922	0	32360	
6923	0	32488	
6924	0	32544	
6925	0	32536	
6926	0	32516	
6927	0	32476	
6928	0	32416	
6929	0	32340	
6930	0	32284	
6931	0	32266	
6932	0	32240	
6933	0	32188	
6934	0	32188	
6935	0	32224	
6936	0	32196	
6937	0	32148	
6938	0	32192	
6939	0	32248	
6940	0	32276	
6941	0	32360	
6942	0	32432	
6943	0	32472	
6944	0	32544	
6945	0	32616	
6946	0	32700	
6947	0	32812	
6948	0	32872	
6949	0	32844	
6950	0	32848	
6951	0	32944	
6952	0	33056	
6953	0	33176	
6954	0	33304	
6955	0	33388	
6956	0	33476	
6957	0	33636	
6958	0	33872	
6959	0	34016	
6960	0	34120	
6961	0	34224	
6962	0	34316	
6963	0	34384	
6964	0	34424	
6965	0	34488	
6966	0	34536	
6967	0	34544	
6968	0	34496	
6969	0	34492	
6970	0	34496	
6971	0	34468	
6972	0	34512	
6973	0	34612	
6974	0	34684	
6975	0	34760	
6976	0	34812	
6977	0	34928	
6978	0	35052	
6979	0	35256	
6980	0	35360	
6981	0	35400	
6982	0	35416	
6983	0	35440	
6984	0	35528	
6985	0	35584	
6986	0	35580	
6987	0	35584	
6988	0	35596	
6989	0	35668	
6990	0	35712	
6991	0	35628	
6992	0	35484	
6993	0	35232	
6994	0	35024	
6995	0	34864	
6996	0	34740	
6997	0	34596	
6998	0	34456	
6999	0	34360	
7000	0	34252	
7001	0	34232	
7002	0	34264	
7003	0	34232	
7004	0	34148	
7005	0	34092	
7006	0	34112	
7007	0	34056	
7008	0	33924	
7009	0	33876	
7010	0	33844	
7011	0	33768	
7012	0	33612	
7013	0	33436	
7014	0	33304	
7015	0	33192	
7016	0	33120	
7017	0	33066	
7018	0	33026	
7019	0	32996	
7020	0	32976	
7021	0	32968	
7022	0	32892	
7023	0	32816	
7024	0	32808	
7025	0	32768	
7026	0	32712	
7027	0	32652	
7028	0	32588	
7029	0	32464	
7030	0	32346	
7031	0	32218	
7032	0	32052	
7033	0	31924	
7034	0	31796	
7035	0	31672	
7036	0	31604	
7037	0	31568	
7038	0	31580	
7039	0	31654	
7040	0	31700	
7041	0	31744	
7042	0	31800	
7043	0	31896	
7044	0	31960	
7045	0	31984	
7046	0	32012	
7047	0	31988	
7048	0	31970	
7049	0	31920	
7050	0	31856	
7051	0	31804	
7052	0	31714	
7053	0	31688	
7054	0	31648	
7055	0	31572	
7056	0	31532	
7057	0	31488	
7058	0	31532	
7059	0	31600	
7060	0	31652	
7061	0	31792	
7062	0	31860	
7063	0	31888	
7064	0	31984	
7065	0	32096	
7066	0	32128	
7067	0	32090	
7068	0	32024	
7069	0	31972	
7070	0	31960	
7071	0	31928	
7072	0	31908	
7073	0	31872	
7074	0	31872	
7075	0	31872	
7076	0	31840	
7077	0	31824	
7078	0	31840	
7079	0	31956	
7080	0	32088	
7081	0	32168	
7082	0	32232	
7083	0	32268	
7084	0	32284	
7085	0	32260	
7086	0	32220	
7087	0	32160	
7088	0	32084	
7089	0	31948	
7090	0	31760	
7091	0	31570	
7092	0	31416	
7093	0	31316	
7094	0	31340	
7095	0	31360	
7096	0	31480	
7097	0	31780	
7098	0	32280	
7099	0	32848	
7100	0	33444	
7101	0	34184	
7102	0	35164	
7103	0	36320	
7104	0	37616	
7105	0	39112	
7106	0	40692	
7107	0	42156	
7108	0	43476	
7109	0	44762	
7110	0	46064	
7111	0	47420	
7112	0	48748	
7113	0	50108	
7114	0	51424	
7115	0	52736	
7116	0	54040	
7117	0	55320	
7118	0	56660	
7119	0	58008	
7120	0	59244	
7121	0	60280	
7122	0	61056	
7123	0	61472	
7124	0	61044	
7125	0	59584	
7126	0	57232	
7127	0	54072	
7128	0	50540	
7129	0	46828	
7130	0	42856	
7131	0	38468	
7132	0	34056	
7133	0	30344	
7134	0	27712	
7135	0	26084	
7136	0	25226	
7137	0	24880	
7138	0	24916	
7139	0	25102	
7140	0	25304	
7141	0	25540	
7142	0	25904	
7143	0	26304	
7144	0	26724	
7145	0	27180	
7146	0	27692	
7147	0	28144	
7148	0	28560	
7149	0	28976	
7150	0	29260	
7151	0	29536	
7152	0	29772	
7153	0	29902	
7154	0	29964	
7155	0	29976	
7156	0	29968	
7157	0	29984	
7158	0	29980	
7159	0	29940	
7160	0	29900	
7161	0	29896	
7162	0	29888	
7163	0	29884	
7164	0	29900	
7165	0	29928	
7166	0	29844	
7167	0	29772	
7168	0	29792	
7169	0	29788	
7170	0	29736	
7171	0	29652	
7172	0	29596	
7173	0	29556	
7174	0	29580	
7175	0	29688	
7176	0	29744	
7177	0	29804	
7178	0	29872	
7179	0	29904	
7180	0	30000	
7181	0	30120	
7182	0	30256	
7183	0	30312	
7184	0	30416	
7185	0	30504	
7186	0	30544	
7187	0	30536	
7188	0	30496	
7189	0	30440	
7190	0	30340	
7191	0	30258	
7192	0	30212	
7193	0	30272	
7194	0	30332	
7195	0	30292	
7196	0	30292	
7197	0	30392	
7198	0	30532	
7199	0	30656	
7200	0	30728	
7201	0	30844	
7202	0	30908	
7203	0	30956	
7204	0	31064	
7205	0	31136	
7206	0	31168	
7207	0	31224	
7208	0	31276	
7209	0	31304	
7210	0	31244	
7211	0	31148	
7212	0	31116	
7213	0	31064	
7214	0	31004	
7215	0	30984	
7216	0	30932	
7217	0	30872	
7218	0	30956	
7219	0	31020	
7220	0	31172	
7221	0	31316	
7222	0	31312	
7223	0	31324	
7224	0	31376	
7225	0	31416	
7226	0	31482	
7227	0	31552	
7228	0	31566	
7229	0	31556	
7230	0	31484	
7231	0	31440	
7232	0	31408	
7233	0	31344	
7234	0	31320	
7235	0	31284	
7236	0	31312	
7237	0	31412	
7238	0	31496	
7239	0	31616	
7240	0	31784	
7241	0	31872	
7242	0	31912	
7243	0	31996	
7244	0	32056	
7245	0	32132	
7246	0	32144	
7247	0	32112	
7248	0	32132	
7249	0	32092	
7250	0	32032	
7251	0	32008	
7252	0	31880	
7253	0	31764	
7254	0	31696	
7255	0	31852	
7256	0	32028	
7257	0	32072	
7258	0	32112	
7259	0	32206	
7260	0	32344	
7261	0	32448	
7262	0	32504	
7263	0	32520	
7264	0	32498	
7265	0	32440	
7266	0	32360	
7267	0	32352	
7268	0	32340	
7269	0	32400	
7270	0	32480	
7271	0	32504	
7272	0	32460	
7273	0	32464	
7274	0	32536	
7275	0	32612	
7276	0	32632	
7277	0	32644	
7278	0	32696	
7279	0	32752	
7280	0	32816	
7281	0	32948	
7282	0	33052	
7283	0	33120	
7284	0	33204	
7285	0	33320	
7286	0	33400	
7287	0	33408	
7288	0	33436	
7289	0	33480	
7290	0	33492	
7291	0	33388	
7292	0	33338	
7293	0	33316	
7294	0	33396	
7295	0	33466	
7296	0	33496	
7297	0	33608	
7298	0	33688	
7299	0	33796	
7300	0	33872	
7301	0	33984	
7302	0	34092	
7303	0	34192	
7304	0	34298	
7305	0	34456	
7306	0	34576	
7307	0	34652	
7308	0	34732	
7309	0	34832	
7310	0	34828	
7311	0	34820	
7312	0	34824	
7313	0	34796	
7314	0	34804	
7315	0	34900	
7316	0	35016	
7317	0	35116	
7318	0	35176	
7319	0	35272	
7320	0	35412	
7321	0	35608	
7322	0	35732	
7323	0	35860	
7324	0	36016	
7325	0	36184	
7326	0	36264	
7327	0	36344	
7328	0	36356	
7329	0	36344	
7330	0	36384	
7331	0	36368	
7332	0	36312	
7333	0	36328	
7334	0	36376	
7335	0	36460	
7336	0	36536	
7337	0	36612	
7338	0	36688	
7339	0	36754	
7340	0	36896	
7341	0	37012	
7342	0	37076	
7343	0	37120	
7344	0	37180	
7345	0	37240	
7346	0	37260	
7347	0	37268	
7348	0	37304	
7349	0	37278	
7350	0	37220	
7351	0	37172	
7352	0	37168	
7353	0	37108	
7354	0	37008	
7355	0	37016	
7356	0	37016	
7357	0	36976	
7358	0	37024	
7359	0	37072	
7360	0	37040	
7361	0	37032	
7362	0	37040	
7363	0	37008	
7364	0	36968	
7365	0	36936	
7366	0	36848	
7367	0	36732	
7368	0	36576	
7369	0	36460	
7370	0	36328	
7371	0	36162	
7372	0	35964	
7373	0	35728	
7374	0	35524	
7375	0	35320	
7376	0	35180	
7377	0	35008	
7378	0	34908	
7379	0	34784	
7380	0	34564	
7381	0	34480	
7382	0	34448	
7383	0	34352	
7384	0	34216	
7385	0	34106	
7386	0	33920	
7387	0	33672	
7388	0	33440	
7389	0	33248	
7390	0	33016	
7391	0	32796	
7392	0	32564	
7393	0	32320	
7394	0	32116	
7395	0	31892	
7396	0	31672	
7397	0	31536	
7398	0	31424	
7399	0	31316	
7400	0	31244	
7401	0	31172	
7402	0	31080	
7403	0	31004	
7404	0	30936	
7405	0	30824	
7406	0	30700	
7407	0	30598	
7408	0	30444	
7409	0	30320	
7410	0	30100	
7411	0	29936	
7412	0	29816	
7413	0	29664	
7414	0	29496	
7415	0	29392	
7416	0	29356	
7417	0	29300	
7418	0	29280	
7419	0	29256	
7420	0	29276	
7421	0	29304	
7422	0	29320	
7423	0	29326	
7424	0	29344	
7425	0	29380	
7426	0	29360	
7427	0	29316	
7428	0	29285	
7429	0	29244	
7430	0	29140	
7431	0	29076	
7432	0	29016	
7433	0	28960	
7434	0	28928	
7435	0	28874	
7436	0	28836	
7437	0	28936	
7438	0	29048	
7439	0	29172	
7440	0	29212	
7441	0	29252	
7442	0	29264	
7443	0	29280	
7444	0	29300	
7445	0	29344	
7446	0	29336	
7447	0	29332	
7448	0	29308	
7449	0	29304	
7450	0	29268	
7451	0	29242	
7452	0	29192	
7453	0	29176	
7454	0	29184	
7455	0	29212	
7456	0	29232	
7457	0	29248	
7458	0	29292	
7459	0	29364	
7460	0	29480	
7461	0	29568	
7462	0	29624	
7463	0	29704	
7464	0	29804	
7465	0	29868	
7466	0	29856	
7467	0	29912	
7468	0	29948	
7469	0	29948	
7470	0	29928	
7471	0	29924	
7472	0	29868	
7473	0	29820	
7474	0	29760	
7475	0	29760	
7476	0	29812	
7477	0	29868	
7478	0	29884	
7479	0	29900	
7480	0	29984	
7481	0	30060	
7482	0	30120	
7483	0	30224	
7484	0	30308	
7485	0	30316	
7486	0	30338	
7487	0	30388	
7488	0	30382	
7489	0	30336	
7490	0	30260	
7491	0	30220	
7492	0	30192	
7493	0	30216	
7494	0	30236	
7495	0	30168	
7496	0	30152	
7497	0	30200	
7498	0	30288	
7499	0	30392	
7500	0	30460	
7501	0	30508	
7502	0	30572	
7503	0	30620	
7504	0	30632	
7505	0	30680	
7506	0	30728	
7507	0	30728	
7508	0	30720	
7509	0	30704	
7510	0	30680	
7511	0	30652	
7512	0	30636	
7513	0	30604	
7514	0	30556	
7515	0	30514	
7516	0	30548	
7517	0	30604	
7518	0	30666	
7519	0	30752	
7520	0	30839	
7521	0	30884	
7522	0	30924	
7523	0	31008	
7524	0	31116	
7525	0	31140	
7526	0	31104	
7527	0	31024	
7528	0	30976	
7529	0	30932	
7530	0	30850	
7531	0	30752	
7532	0	30688	
7533	0	30674	
7534	0	30728	
7535	0	30784	
7536	0	30700	
7537	0	30664	
7538	0	30696	
7539	0	30752	
7540	0	30824	
7541	0	30976	
7542	0	31104	
7543	0	31156	
7544	0	31212	
7545	0	31308	
7546	0	31412	
7547	0	31380	
7548	0	31296	
7549	0	31224	
7550	0	31188	
7551	0	31160	
7552	0	31116	
7553	0	31048	
7554	0	31032	
7555	0	31040	
7556	0	31040	
7557	0	31076	
7558	0	31128	
7559	0	31220	
7560	0	31296	
7561	0	31392	
7562	0	31404	
7563	0	31384	
7564	0	31392	
7565	0	31412	
7566	0	31404	
7567	0	31460	
7568	0	31512	
7569	0	31530	
7570	0	31504	
7571	0	31440	
7572	0	31400	
7573	0	31364	
7574	0	31326	
7575	0	31296	
7576	0	31294	
7577	0	31328	
7578	0	31340	
7579	0	31418	
7580	0	31528	
7581	0	31572	
7582	0	31616	
7583	0	31674	
7584	0	31720	
7585	0	31800	
7586	0	31834	
7587	0	31806	
7588	0	31748	
7589	0	31736	
7590	0	31724	
7591	0	31648	
7592	0	31610	
7593	0	31584	
7594	0	31568	
7595	0	31568	
7596	0	31576	
7597	0	31628	
7598	0	31688	
7599	0	31760	
7600	0	31868	
7601	0	31958	
7602	0	32080	
7603	0	32212	
7604	0	32264	
7605	0	32310	
7606	0	32378	
7607	0	32440	
7608	0	32480	
7609	0	32538	
7610	0	32636	
7611	0	32772	
7612	0	32920	
7613	0	33032	
7614	0	33120	
7615	0	33200	
7616	0	33248	
7617	0	33360	
7618	0	33408	
7619	0	33440	
7620	0	33548	
7621	0	33688	
7622	0	33804	
7623	0	33912	
7624	0	33960	
7625	0	34048	
7626	0	34144	
7627	0	34152	
7628	0	34160	
7629	0	34224	
7630	0	34280	
7631	0	34372	
7632	0	34420	
7633	0	34448	
7634	0	34536	
7635	0	34620	
7636	0	34676	
7637	0	34796	
7638	0	34880	
7639	0	34836	
7640	0	34810	
7641	0	34904	
7642	0	35068	
7643	0	35156	
7644	0	35248	
7645	0	35340	
7646	0	35372	
7647	0	35432	
7648	0	35360	
7649	0	35184	
7650	0	34952	
7651	0	34756	
7652	0	34588	
7653	0	34396	
7654	0	34216	
7655	0	34072	
7656	0	33892	
7657	0	33736	
7658	0	33664	
7659	0	33642	
7660	0	33656	
7661	0	33636	
7662	0	33592	
7663	0	33620	
7664	0	33592	
7665	0	33556	
7666	0	33508	
7667	0	33492	
7668	0	33448	
7669	0	33332	
7670	0	33180	
7671	0	33032	
7672	0	32892	
7673	0	32744	
7674	0	32564	
7675	0	32416	
7676	0	32376	
7677	0	32400	
7678	0	32384	
7679	0	32300	
7680	0	32204	
7681	0	32124	
7682	0	32072	
7683	0	32052	
7684	0	31968	
7685	0	31880	
7686	0	31848	
7687	0	31824	
7688	0	31784	
7689	0	31680	
7690	0	31542	
7691	0	31404	
7692	0	31280	
7693	0	31200	
7694	0	31156	
7695	0	31144	
7696	0	31144	
7697	0	31172	
7698	0	31232	
7699	0	31308	
7700	0	31372	
7701	0	31512	
7702	0	31590	
7703	0	31544	
7704	0	31572	
7705	0	31626	
7706	0	31672	
7707	0	31656	
7708	0	31560	
7709	0	31488	
7710	0	31456	
7711	0	31404	
7712	0	31312	
7713	0	31268	
7714	0	31264	
7715	0	31250	
7716	0	31280	
7717	0	31308	
7718	0	31332	
7719	0	31328	
7720	0	31320	
7721	0	31368	
7722	0	31456	
7723	0	31516	
7724	0	31564	
7725	0	31620	
7726	0	31641	
7727	0	31632	
7728	0	31580	
7729	0	31516	
7730	0	31488	
7731	0	31536	
7732	0	31532	
7733	0	31524	
7734	0	31548	
7735	0	31608	
7736	0	31616	
7737	0	31640	
7738	0	31688	
7739	0	31740	
7740	0	31776	
7741	0	31820	
7742	0	31852	
7743	0	31824	
7744	0	31760	
7745	0	31656	
7746	0	31508	
7747	0	31352	
7748	0	31232	
7749	0	31052	
7750	0	30880	
7751	0	30800	
7752	0	30808	
7753	0	30880	
7754	0	31116	
7755	0	31548	
7756	0	32104	
7757	0	32756	
7758	0	33652	
7759	0	34744	
7760	0	35868	
7761	0	37268	
7762	0	38928	
7763	0	40544	
7764	0	42004	
7765	0	43372	
7766	0	44764	
7767	0	46180	
7768	0	47636	
7769	0	49064	
7770	0	50432	
7771	0	51768	
7772	0	53156	
7773	0	54496	
7774	0	55912	
7775	0	57292	
7776	0	58572	
7777	0	59712	
7778	0	60644	
7779	0	61256	
7780	0	61324	
7781	0	60404	
7782	0	58636	
7783	0	56032	
7784	0	52704	
7785	0	49136	
7786	0	45418	
7787	0	41300	
7788	0	36756	
7789	0	32464	
7790	0	29045	
7791	0	26742	
7792	0	25416	
7793	0	24736	
7794	0	24448	
7795	0	24480	
7796	0	24652	
7797	0	24908	
7798	0	25240	
7799	0	25564	
7800	0	25968	
7801	0	26512	
7802	0	27120	
7803	0	27692	
7804	0	28236	
7805	0	28714	
7806	0	29132	
7807	0	29472	
7808	0	29652	
7809	0	29788	
7810	0	29880	
7811	0	29880	
7812	0	29780	
7813	0	29664	
7814	0	29592	
7815	0	29648	
7816	0	29684	
7817	0	29720	
7818	0	29684	
7819	0	29634	
7820	0	29634	
7821	0	29604	
7822	0	29676	
7823	0	29736	
7824	0	29728	
7825	0	29708	
7826	0	29684	
7827	0	29664	
7828	0	29688	
7829	0	29696	
7830	0	29648	
7831	0	29592	
7832	0	29538	
7833	0	29524	
7834	0	29544	
7835	0	29548	
7836	0	29556	
7837	0	29618	
7838	0	29708	
7839	0	29768	
7840	0	29864	
7841	0	29980	
7842	0	30024	
7843	0	30044	
7844	0	30064	
7845	0	30112	
7846	0	30188	
7847	0	30240	
7848	0	30194	
7849	0	30168	
7850	0	30160	
7851	0	30128	
7852	0	30092	
7853	0	30102	
7854	0	30072	
7855	0	30128	
7856	0	30266	
7857	0	30384	
7858	0	30408	
7859	0	30436	
7860	0	30544	
7861	0	30668	
7862	0	30764	
7863	0	30824	
7864	0	30900	
7865	0	31014	
7866	0	31040	
7867	0	31028	
7868	0	31040	
7869	0	31072	
7870	0	31064	
7871	0	30970	
7872	0	30868	
7873	0	30764	
7874	0	30720	
7875	0	30764	
7876	0	30816	
7877	0	30888	
7878	0	30998	
7879	0	31068	
7880	0	31120	
7881	0	31192	
7882	0	31296	
7883	0	31412	
7884	0	31504	
7885	0	31556	
7886	0	31560	
7887	0	31578	
7888	0	31608	
7889	0	31600	
7890	0	31548	
7891	0	31444	
7892	0	31366	
7893	0	31340	
7894	0	31392	
7895	0	31400	
7896	0	31408	
7897	0	31504	
7898	0	31640	
7899	0	31716	
7900	0	31760	
7901	0	31800	
7902	0	31856	
7903	0	31936	
7904	0	32060	
7905	0	32132	
7906	0	32122	
7907	0	32128	
7908	0	32128	
7909	0	32128	
7910	0	32128	
7911	0	32124	
7912	0	32088	
7913	0	32120	
7914	0	32156	
7915	0	32176	
7916	0	32188	
7917	0	32232	
7918	0	32288	
7919	0	32364	
7920	0	32364	
7921	0	32396	
7922	0	32544	
7923	0	32668	
7924	0	32792	
7925	0	32876	
7926	0	32928	
7927	0	32912	
7928	0	32880	
7929	0	32888	
7930	0	32852	
7931	0	32788	
7932	0	32752	
7933	0	32728	
7934	0	32656	
7935	0	32646	
7936	0	32684	
7937	0	32746	
7938	0	32892	
7939	0	33028	
7940	0	33148	
7941	0	33292	
7942	0	33404	
7943	0	33472	
7944	0	33568	
7945	0	33648	
7946	0	33660	
7947	0	33690	
7948	0	33728	
7949	0	33768	
7950	0	33768	
7951	0	33736	
7952	0	33690	
7953	0	33676	
7954	0	33656	
7955	0	33696	
7956	0	33824	
7957	0	33924	
7958	0	34028	
7959	0	34136	
7960	0	34284	
7961	0	34436	
7962	0	34564	
7963	0	34672	
7964	0	34796	
7965	0	34880	
7966	0	34932	
7967	0	34952	
7968	0	34964	
7969	0	34952	
7970	0	34972	
7971	0	34986	
7972	0	35040	
7973	0	35102	
7974	0	35212	
7975	0	35336	
7976	0	35444	
7977	0	35488	
7978	0	35572	
7979	0	35712	
7980	0	35880	
7981	0	35996	
7982	0	36088	
7983	0	36200	
7984	0	36314	
7985	0	36432	
7986	0	36516	
7987	0	36596	
7988	0	36600	
7989	0	36568	
7990	0	36544	
7991	0	36476	
7992	0	36416	
7993	0	36392	
7994	0	36448	
7995	0	36560	
7996	0	36576	
7997	0	36640	
7998	0	36724	
7999	0	36808	
8000	0	36832	
8001	0	36944	
8002	0	37032	
8003	0	37060	
8004	0	37124	
8005	0	37156	
8006	0	37164	
8007	0	37176	
8008	0	37180	
8009	0	37148	
8010	0	37096	
8011	0	37040	
8012	0	36948	
8013	0	36876	
8014	0	36818	
8015	0	36744	
8016	0	36704	
8017	0	36672	
8018	0	36672	
8019	0	36688	
8020	0	36696	
8021	0	36704	
8022	0	36700	
8023	0	36632	
8024	0	36556	
8025	0	36444	
8026	0	36336	
8027	0	36132	
8028	0	35936	
8029	0	35722	
8030	0	35488	
8031	0	35276	
8032	0	35104	
8033	0	34944	
8034	0	34712	
8035	0	34480	
8036	0	34292	
8037	0	34136	
8038	0	34016	
8039	0	33928	
8040	0	33816	
8041	0	33688	
8042	0	33532	
8043	0	33424	
8044	0	33336	
8045	0	33180	
8046	0	32972	
8047	0	32748	
8048	0	32492	
8049	0	32276	
8050	0	32064	
8051	0	31828	
8052	0	31630	
8053	0	31456	
8054	0	31256	
8055	0	31100	
8056	0	30980	
8057	0	30880	
8058	0	30768	
8059	0	30680	
8060	0	30624	
8061	0	30616	
8062	0	30586	
8063	0	30544	
8064	0	30444	
8065	0	30376	
8066	0	30288	
8067	0	30160	
8068	0	30032	
8069	0	29920	
8070	0	29864	
8071	0	29748	
8072	0	29608	
8073	0	29466	
8074	0	29360	
8075	0	29316	
8076	0	29310	
8077	0	29244	
8078	0	29236	
8079	0	29284	
8080	0	29352	
8081	0	29440	
8082	0	29480	
8083	0	29484	
8084	0	29496	
8085	0	29528	
8086	0	29568	
8087	0	29536	
8088	0	29484	
8089	0	29404	
8090	0	29324	
8091	0	29272	
8092	0	29184	
8093	0	29156	
8094	0	29148	
8095	0	29152	
8096	0	29184	
8097	0	29256	
8098	0	29272	
8099	0	29332	
8100	0	29460	
8101	0	29592	
8102	0	29714	
8103	0	29812	
8104	0	29896	
8105	0	29884	
8106	0	29856	
8107	0	29820	
8108	0	29776	
8109	0	29732	
8110	0	29752	
8111	0	29712	
8112	0	29652	
8113	0	29664	
8114	0	29660	
8115	0	29648	
8116	0	29672	
8117	0	29748	
8118	0	29840	
8119	0	29944	
8120	0	30016	
8121	0	30120	
8122	0	30236	
8123	0	30328	
8124	0	30380	
8125	0	30456	
8126	0	30512	
8127	0	30484	
8128	0	30464	
8129	0	30424	
8130	0	30356	
8131	0	30336	
8132	0	30336	
8133	0	30306	
8134	0	30244	
8135	0	30252	
8136	0	30308	
8137	0	30352	
8138	0	30436	
8139	0	30528	
8140	0	30620	
8141	0	30744	
8142	0	30856	
8143	0	30960	
8144	0	31036	
8145	0	31060	
8146	0	31048	
8147	0	31040	
8148	0	31044	
8149	0	31008	
8150	0	30948	
8151	0	30880	
8152	0	30837	
8153	0	30876	
8154	0	30896	
8155	0	30864	
8156	0	30914	
8157	0	30984	
8158	0	31028	
8159	0	31064	
8160	0	31124	
8161	0	31204	
8162	0	31368	
8163	0	31500	
8164	0	31544	
8165	0	31528	
8166	0	31500	
8167	0	31488	
8168	0	31460	
8169	0	31412	
8170	0	31356	
8171	0	31316	
8172	0	31272	
8173	0	31228	
8174	0	31196	
8175	0	31200	
8176	0	31202	
8177	0	31300	
8178	0	31388	
8179	0	31392	
8180	0	31412	
8181	0	31452	
8182	0	31520	
8183	0	31604	
8184	0	31728	
8185	0	31780	
8186	0	31796	
8187	0	31772	
8188	0	31744	
8189	0	31704	
8190	0	31624	
8191	0	31604	
8192	0	31596	
8193	0	31560	
8194	0	31556	
8195	0	31560	
8196	0	31592	
8197	0	31625	
8198	0	31640	
8199	0	31660	
8200	0	31684	
8201	0	31768	
8202	0	31864	
8203	0	31896	
8204	0	31940	
8205	0	31956	
8206	0	31968	
8207	0	31924	
8208	0	31856	
8209	0	31818	
8210	0	31768	
8211	0	31712	
8212	0	31688	
8213	0	31704	
8214	0	31706	
8215	0	31708	
8216	0	31716	
8217	0	31744	
8218	0	31816	
8219	0	31856	
8220	0	31868	
8221	0	31916	
8222	0	31972	
8223	0	32068	
8224	0	32176	
8225	0	32242	
8226	0	32304	
8227	0	32298	
8228	0	32220	
8229	0	32160	
8230	0	32136	
8231	0	32160	
8232	0	32136	
8233	0	32112	
8234	0	32188	
8235	0	32240	
8236	0	32248	
8237	0	32316	
8238	0	32428	
8239	0	32640	
8240	0	32852	
8241	0	33094	
8242	0	33336	
8243	0	33548	
8244	0	33708	
8245	0	33832	
8246	0	33936	
8247	0	33948	
8248	0	33920	
8249	0	33860	
8250	0	33836	
8251	0	33856	
8252	0	33880	
8253	0	33884	
8254	0	33908	
8255	0	33900	
8256	0	33916	
8257	0	33984	
8258	0	34088	
8259	0	34192	
8260	0	34356	
8261	0	34540	
8262	0	34700	
8263	0	34828	
8264	0	34952	
8265	0	35048	
8266	0	35096	
8267	0	35152	
8268	0	35156	
8269	0	35132	
8270	0	35080	
8271	0	35012	
8272	0	35000	
8273	0	35032	
8274	0	35056	
8275	0	35112	
8276	0	35176	
8277	0	35288	
8278	0	35376	
8279	0	35412	
8280	0	35360	
8281	0	35244	
8282	0	35128	
8283	0	35056	
8284	0	34972	
8285	0	34848	
8286	0	34724	
8287	0	34600	
8288	0	34410	
8289	0	34192	
8290	0	33996	
8291	0	33866	
8292	0	33756	
8293	0	33632	
8294	0	33500	
8295	0	33380	
8296	0	33296	
8297	0	33256	
8298	0	33288	
8299	0	33340	
8300	0	33376	
8301	0	33424	
8302	0	33440	
8303	0	33444	
8304	0	33320	
8305	0	33152	
8306	0	32956	
8307	0	32846	
8308	0	32808	
8309	0	32712	
8310	0	32616	
8311	0	32520	
8312	0	32408	
8313	0	32236	
8314	0	32076	
8315	0	31952	
8316	0	31844	
8317	0	31754	
8318	0	31690	
8319	0	31672	
8320	0	31676	
8321	0	31660	
8322	0	31648	
8323	0	31618	
8324	0	31636	
8325	0	31650	
8326	0	31608	
8327	0	31592	
8328	0	31520	
8329	0	31456	
8330	0	31404	
8331	0	31356	
8332	0	31308	
8333	0	31252	
8334	0	31232	
8335	0	31264	
8336	0	31328	
8337	0	31392	
8338	0	31456	
8339	0	31464	
8340	0	31516	
8341	0	31614	
8342	0	31672	
8343	0	31704	
8344	0	31752	
8345	0	31794	
8346	0	31756	
8347	0	31712	
8348	0	31660	
8349	0	31628	
8350	0	31568	
8351	0	31480	
8352	0	31412	
8353	0	31372	
8354	0	31348	
8355	0	31352	
8356	0	31384	
8357	0	31456	
8358	0	31540	
8359	0	31624	
8360	0	31728	
8361	0	31824	
8362	0	31944	
8363	0	32048	
8364	0	32080	
8365	0	32072	
8366	0	32048	
8367	0	32052	
8368	0	32056	
8369	0	32040	
8370	0	31960	
8371	0	31828	
8372	0	31728	
8373	0	31712	
8374	0	31700	
8375	0	31640	
8376	0	31608	
8377	0	31548	
8378	0	31428	
8379	0	31392	
8380	0	31340	
8381	0	31296	
8382	0	31256	
8383	0	31340	
8384	0	31452	
8385	0	31536	
8386	0	31714	
8387	0	32080	
8388	0	32520	
8389	0	33068	
8390	0	33812	
8391	0	34736	
8392	0	35812	
8393	0	37008	
8394	0	38424	
8395	0	39992	
8396	0	41472	
8397	0	42816	
8398	0	44224	
8399	0	45664	
8400	0	47152	
8401	0	48704	
8402	0	50268	
8403	0	51776	
8404	0	53328	
8405	0	54816	
8406	0	56280	
8407	0	57708	
8408	0	58976	
8409	0	60096	
8410	0	60996	
8411	0	61632	
8412	0	61856	
8413	0	60952	
8414	0	59160	
8415	0	56520	
8416	0	53216	
8417	0	49648	
8418	0	45912	
8419	0	41760	
8420	0	37220	
8421	0	32924	
8422	0	29572	
8423	0	27300	
8424	0	26024	
8425	0	25354	
8426	0	25026	
8427	0	25032	
8428	0	25192	
8429	0	25436	
8430	0	25736	
8431	0	26052	
8432	0	26452	
8433	0	26880	
8434	0	27348	
8435	0	27848	
8436	0	28380	
8437	0	28900	
8438	0	29360	
8439	0	29712	
8440	0	29996	
8441	0	30176	
8442	0	30264	
8443	0	30288	
8444	0	30344	
8445	0	30368	
8446	0	30288	
8447	0	30184	
8448	0	30048	
8449	0	29928	
8450	0	29856	
8451	0	29732	
8452	0	29640	
8453	0	29600	
8454	0	29560	
8455	0	29488	
8456	0	29456	
8457	0	29512	
8458	0	29614	
8459	0	29704	
8460	0	29792	
8461	0	29876	
8462	0	29944	
8463	0	30012	
8464	0	30104	
8465	0	30072	
8466	0	30088	
8467	0	30036	
8468	0	29960	
8469	0	29900	
8470	0	29956	
8471	0	29992	
8472	0	29956	
8473	0	29956	
8474	0	29888	
8475	0	29856	
8476	0	29884	
8477	0	29928	
8478	0	29968	
8479	0	30016	
8480	0	30152	
8481	0	30300	
8482	0	30404	
8483	0	30490	
8484	0	30596	
8485	0	30672	
8486	0	30696	
8487	0	30720	
8488	0	30756	
8489	0	30744	
8490	0	30676	
8491	0	30572	
8492	0	30528	
8493	0	30552	
8494	0	30604	
8495	0	30720	
8496	0	30804	
8497	0	30904	
8498	0	30960	
8499	0	31008	
8500	0	31036	
8501	0	31136	
8502	0	31208	
8503	0	31240	
8504	0	31328	
8505	0	31384	
8506	0	31408	
8507	0	31432	
8508	0	31408	
8509	0	31364	
8510	0	31324	
8511	0	31256	
8512	0	31272	
8513	0	31284	
8514	0	31320	
8515	0	31376	
8516	0	31392	
8517	0	31346	
8518	0	31384	
8519	0	31538	
8520	0	31636	
8521	0	31684	
8522	0	31717	
8523	0	31792	
8524	0	31868	
8525	0	31912	
8526	0	31952	
8527	0	31972	
8528	0	31954	
8529	0	31924	
8530	0	31904	
8531	0	31888	
8532	0	31856	
8533	0	31808	
8534	0	31800	
8535	0	31828	
8536	0	31880	
8537	0	31954	
8538	0	32040	
8539	0	32140	
8540	0	32208	
8541	0	32272	
8542	0	32312	
8543	0	32408	
8544	0	32468	
8545	0	32540	
8546	0	32574	
8547	0	32584	
8548	0	32584	
8549	0	32564	
8550	0	32520	
8551	0	32488	
8552	0	32524	
8553	0	32504	
8554	0	32432	
8555	0	32416	
8556	0	32448	
8557	0	32520	
8558	0	32652	
8559	0	32768	
8560	0	32820	
8561	0	32832	
8562	0	32856	
8563	0	32952	
8564	0	33028	
8565	0	33052	
8566	0	33088	
8567	0	33136	
8568	0	33172	
8569	0	33208	
8570	0	33236	
8571	0	33228	
8572	0	33232	
8573	0	33240	
8574	0	33300	
8575	0	33356	
8576	0	33408	
8577	0	33428	
8578	0	33538	
8579	0	33680	
8580	0	33856	
8581	0	34004	
8582	0	34016	
8583	0	34048	
8584	0	34144	
8585	0	34234	
8586	0	34320	
8587	0	34308	
8588	0	34272	
8589	0	34292	
8590	0	34328	
8591	0	34392	
8592	0	34448	
