# OpenSignals Text File Format. Version 1
# {"00:07:80:4B:15:F7": {"position": 0, "device": "biosignalsplux", "device name": "00:07:80:4B:15:F7", "device connection": "BTH00:07:80:4B:15:F7", "sampling rate": 1000, "resolution": [16], "firmware version": 775, "comments": "", "keywords": "", "mode": 0, "sync interval": 2, "date": "2023-3-14", "time": "15:35:36.482", "channels": [1], "sensor": ["ECG"], "label": ["CH1"], "column": ["nSeq", "DI", "CH1"], "special": [{"SpO2": [80, 40, 5, 4, 3, 3]}, {"SpO2": [80, 40, 5, 4, 3, 3]}, {"SpO2": [80, 40, 5, 4, 3, 3]}, {"SpO2": [80, 40, 5, 4, 3, 3]}, {"SpO2": [80, 40, 5, 4, 3, 3]}, {"SpO2": [80, 40, 5, 4, 3, 3]}, {"SpO2": [80, 40, 5, 4, 3, 3]}, {"SpO2": [80, 40, 5, 4, 3, 3]}], "digital IO": [0, 1], "sleeve color": ["green"], "convertedValues": 0}}
# EndOfHeader
0	0	28664	
1	0	28896	
2	0	29048	
3	0	29164	
4	0	29224	
5	0	29228	
6	0	29176	
7	0	29144	
8	0	29132	
9	0	29112	
10	0	29048	
11	0	28992	
12	0	28956	
13	0	28932	
14	0	28904	
15	0	28880	
16	0	28872	
17	0	28916	
18	0	29004	
19	0	29052	
20	0	29074	
21	0	29120	
22	0	29184	
23	0	29274	
24	0	29348	
25	0	29386	
26	0	29440	
27	0	29536	
28	0	29564	
29	0	29548	
30	0	29538	
31	0	29558	
32	0	29572	
33	0	29568	
34	0	29568	
35	0	29594	
36	0	29584	
37	0	29596	
38	0	29680	
39	0	29752	
40	0	29832	
41	0	29916	
42	0	30012	
43	0	30092	
44	0	30188	
45	0	30256	
46	0	30316	
47	0	30356	
48	0	30428	
49	0	30464	
50	0	30456	
51	0	30480	
52	0	30532	
53	0	30580	
54	0	30660	
55	0	30708	
56	0	30726	
57	0	30708	
58	0	30728	
59	0	30908	
60	0	31012	
61	0	31024	
62	0	31064	
63	0	31120	
64	0	31136	
65	0	31160	
66	0	31220	
67	0	31260	
68	0	31282	
69	0	31312	
70	0	31340	
71	0	31360	
72	0	31400	
73	0	31448	
74	0	31480	
75	0	31520	
76	0	31596	
77	0	31696	
78	0	31764	
79	0	31784	
80	0	31832	
81	0	31928	
82	0	32016	
83	0	32112	
84	0	32186	
85	0	32256	
86	0	32336	
87	0	32392	
88	0	32416	
89	0	32432	
90	0	32412	
91	0	32408	
92	0	32408	
93	0	32444	
94	0	32516	
95	0	32576	
96	0	32590	
97	0	32624	
98	0	32672	
99	0	32736	
100	0	32810	
101	0	32864	
102	0	32904	
103	0	33024	
104	0	33172	
105	0	33242	
106	0	33336	
107	0	33424	
108	0	33464	
109	0	33512	
110	0	33552	
111	0	33604	
112	0	33600	
113	0	33626	
114	0	33684	
115	0	33744	
116	0	33800	
117	0	33864	
118	0	33954	
119	0	34028	
120	0	34116	
121	0	34192	
122	0	34248	
123	0	34332	
124	0	34450	
125	0	34512	
126	0	34560	
127	0	34616	
128	0	34664	
129	0	34694	
130	0	34728	
131	0	34744	
132	0	34772	
133	0	34836	
134	0	34940	
135	0	35052	
136	0	35146	
137	0	35252	
138	0	35340	
139	0	35452	
140	0	35564	
141	0	35652	
142	0	35752	
143	0	35884	
144	0	36032	
145	0	36136	
146	0	36204	
147	0	36272	
148	0	36340	
149	0	36440	
150	0	36522	
151	0	36604	
152	0	36616	
153	0	36700	
154	0	36800	
155	0	36932	
156	0	37068	
157	0	37184	
158	0	37324	
159	0	37432	
160	0	37492	
161	0	37576	
162	0	37660	
163	0	37728	
164	0	37804	
165	0	37896	
166	0	38000	
167	0	38108	
168	0	38212	
169	0	38304	
170	0	38360	
171	0	38312	
172	0	38272	
173	0	38288	
174	0	38336	
175	0	38384	
176	0	38388	
177	0	38404	
178	0	38504	
179	0	38548	
180	0	38560	
181	0	38592	
182	0	38648	
183	0	38684	
184	0	38680	
185	0	38668	
186	0	38676	
187	0	38700	
188	0	38736	
189	0	38740	
190	0	38716	
191	0	38648	
192	0	38612	
193	0	38596	
194	0	38564	
195	0	38520	
196	0	38516	
197	0	38512	
198	0	38488	
199	0	38448	
200	0	38428	
201	0	38368	
202	0	38296	
203	0	38236	
204	0	38124	
205	0	38020	
206	0	37864	
207	0	37716	
208	0	37552	
209	0	37358	
210	0	37176	
211	0	36944	
212	0	36672	
213	0	36448	
214	0	36172	
215	0	35884	
216	0	35612	
217	0	35352	
218	0	35092	
219	0	34820	
220	0	34568	
221	0	34320	
222	0	34116	
223	0	33896	
224	0	33656	
225	0	33406	
226	0	33140	
227	0	32868	
228	0	32578	
229	0	32288	
230	0	32032	
231	0	31778	
232	0	31524	
233	0	31248	
234	0	31008	
235	0	30808	
236	0	30644	
237	0	30472	
238	0	30264	
239	0	30076	
240	0	29880	
241	0	29704	
242	0	29556	
243	0	29444	
244	0	29308	
245	0	29136	
246	0	28984	
247	0	28880	
248	0	28736	
249	0	28592	
250	0	28460	
251	0	28320	
252	0	28194	
253	0	28120	
254	0	28056	
255	0	28000	
256	0	27948	
257	0	27898	
258	0	27844	
259	0	27800	
260	0	27756	
261	0	27712	
262	0	27704	
263	0	27724	
264	0	27752	
265	0	27756	
266	0	27744	
267	0	27692	
268	0	27664	
269	0	27608	
270	0	27568	
271	0	27504	
272	0	27448	
273	0	27460	
274	0	27448	
275	0	27444	
276	0	27448	
277	0	27484	
278	0	27532	
279	0	27540	
280	0	27580	
281	0	27668	
282	0	27732	
283	0	27773	
284	0	27852	
285	0	27898	
286	0	27936	
287	0	28004	
288	0	28076	
289	0	28096	
290	0	28084	
291	0	28056	
292	0	28008	
293	0	28000	
294	0	28040	
295	0	28112	
296	0	28156	
297	0	28208	
298	0	28268	
299	0	28332	
300	0	28420	
301	0	28484	
302	0	28520	
303	0	28584	
304	0	28656	
305	0	28744	
306	0	28820	
307	0	28844	
308	0	28834	
309	0	28856	
310	0	28880	
311	0	28904	
312	0	28988	
313	0	29028	
314	0	29024	
315	0	29056	
316	0	29096	
317	0	29086	
318	0	29132	
319	0	29208	
320	0	29276	
321	0	29368	
322	0	29466	
323	0	29560	
324	0	29648	
325	0	29720	
326	0	29720	
327	0	29764	
328	0	29756	
329	0	29752	
330	0	29760	
331	0	29728	
332	0	29704	
333	0	29760	
334	0	29816	
335	0	29824	
336	0	29836	
337	0	29858	
338	0	29900	
339	0	30004	
340	0	30092	
341	0	30144	
342	0	30216	
343	0	30240	
344	0	30256	
345	0	30300	
346	0	30336	
347	0	30432	
348	0	30464	
349	0	30458	
350	0	30434	
351	0	30452	
352	0	30468	
353	0	30492	
354	0	30524	
355	0	30568	
356	0	30612	
357	0	30660	
358	0	30696	
359	0	30760	
360	0	30880	
361	0	30968	
362	0	31004	
363	0	31048	
364	0	31080	
365	0	31128	
366	0	31140	
367	0	31100	
368	0	31076	
369	0	31084	
370	0	31088	
371	0	31096	
372	0	31100	
373	0	31086	
374	0	31060	
375	0	31084	
376	0	31144	
377	0	31224	
378	0	31304	
379	0	31348	
380	0	31418	
381	0	31448	
382	0	31484	
383	0	31552	
384	0	31604	
385	0	31644	
386	0	31696	
387	0	31724	
388	0	31708	
389	0	31684	
390	0	31700	
391	0	31724	
392	0	31720	
393	0	31620	
394	0	31528	
395	0	31508	
396	0	31548	
397	0	31600	
398	0	31684	
399	0	31760	
400	0	31812	
401	0	31860	
402	0	31956	
403	0	32064	
404	0	32132	
405	0	32144	
406	0	32116	
407	0	32068	
408	0	32048	
409	0	32000	
410	0	31952	
411	0	31880	
412	0	31768	
413	0	31692	
414	0	31664	
415	0	31700	
416	0	31736	
417	0	31760	
418	0	31784	
419	0	31840	
420	0	31880	
421	0	31964	
422	0	32048	
423	0	32076	
424	0	32096	
425	0	32128	
426	0	32144	
427	0	32084	
428	0	32024	
429	0	31960	
430	0	31948	
431	0	31948	
432	0	31884	
433	0	31840	
434	0	31836	
435	0	31840	
436	0	31802	
437	0	31800	
438	0	31820	
439	0	31844	
440	0	31892	
441	0	31972	
442	0	32040	
443	0	32100	
444	0	32096	
445	0	32076	
446	0	32090	
447	0	32112	
448	0	32064	
449	0	32044	
450	0	32012	
451	0	31956	
452	0	31904	
453	0	31896	
454	0	31928	
455	0	31956	
456	0	31988	
457	0	32008	
458	0	31960	
459	0	31964	
460	0	32004	
461	0	32044	
462	0	32096	
463	0	32144	
464	0	32172	
465	0	32198	
466	0	32240	
467	0	32240	
468	0	32212	
469	0	32188	
470	0	32112	
471	0	32060	
472	0	32032	
473	0	32008	
474	0	31960	
475	0	31948	
476	0	31940	
477	0	31944	
478	0	31968	
479	0	32020	
480	0	32064	
481	0	32100	
482	0	32132	
483	0	32172	
484	0	32220	
485	0	32352	
486	0	32524	
487	0	32620	
488	0	32604	
489	0	32576	
490	0	32600	
491	0	32664	
492	0	32728	
493	0	32768	
494	0	32860	
495	0	32932	
496	0	33040	
497	0	33104	
498	0	33128	
499	0	33160	
500	0	33160	
501	0	33084	
502	0	33034	
503	0	32996	
504	0	32928	
505	0	32880	
506	0	32866	
507	0	32802	
508	0	32764	
509	0	32768	
510	0	32756	
511	0	32788	
512	0	32860	
513	0	33052	
514	0	33332	
515	0	33692	
516	0	34042	
517	0	34296	
518	0	34524	
519	0	34708	
520	0	34896	
521	0	35056	
522	0	35216	
523	0	35360	
524	0	35436	
525	0	35440	
526	0	35360	
527	0	35224	
528	0	35080	
529	0	34928	
530	0	34784	
531	0	34668	
532	0	34520	
533	0	34340	
534	0	34176	
535	0	34028	
536	0	33884	
537	0	33756	
538	0	33732	
539	0	33696	
540	0	33608	
541	0	33492	
542	0	33320	
543	0	33164	
544	0	32984	
545	0	32916	
546	0	32920	
547	0	32860	
548	0	32736	
549	0	32624	
550	0	32500	
551	0	32392	
552	0	32288	
553	0	32208	
554	0	32088	
555	0	31976	
556	0	31904	
557	0	31852	
558	0	31778	
559	0	31704	
560	0	31644	
561	0	31596	
562	0	31562	
563	0	31536	
564	0	31424	
565	0	31304	
566	0	31224	
567	0	31148	
568	0	31020	
569	0	30908	
570	0	30892	
571	0	30912	
572	0	30916	
573	0	30880	
574	0	30856	
575	0	30876	
576	0	30880	
577	0	30912	
578	0	30948	
579	0	30960	
580	0	30948	
581	0	30980	
582	0	31064	
583	0	31104	
584	0	31160	
585	0	31216	
586	0	31266	
587	0	31256	
588	0	31264	
589	0	31240	
590	0	31184	
591	0	31160	
592	0	31176	
593	0	31204	
594	0	31266	
595	0	31282	
596	0	31260	
597	0	31272	
598	0	31282	
599	0	31340	
600	0	31376	
601	0	31426	
602	0	31462	
603	0	31504	
604	0	31584	
605	0	31674	
606	0	31732	
607	0	31728	
608	0	31668	
609	0	31584	
610	0	31464	
611	0	31368	
612	0	31280	
613	0	31120	
614	0	30840	
615	0	30476	
616	0	29964	
617	0	29288	
618	0	28704	
619	0	28312	
620	0	28124	
621	0	28104	
622	0	28324	
623	0	28696	
624	0	29242	
625	0	29924	
626	0	30872	
627	0	32056	
628	0	33344	
629	0	34784	
630	0	36300	
631	0	37904	
632	0	39844	
633	0	42124	
634	0	44680	
635	0	47656	
636	0	50748	
637	0	53736	
638	0	56608	
639	0	59524	
640	0	62380	
641	0	64092	
642	0	64956	
643	0	65372	
644	0	65535	
645	0	65535	
646	0	65520	
647	0	65432	
648	0	65332	
649	0	65200	
650	0	63412	
651	0	57928	
652	0	53268	
653	0	49304	
654	0	45904	
655	0	43012	
656	0	40460	
657	0	38092	
658	0	36012	
659	0	34304	
660	0	32792	
661	0	31464	
662	0	30384	
663	0	29514	
664	0	28788	
665	0	28344	
666	0	28068	
667	0	27944	
668	0	27968	
669	0	27984	
670	0	27876	
671	0	27628	
672	0	27456	
673	0	27396	
674	0	27416	
675	0	27412	
676	0	27544	
677	0	27788	
678	0	28068	
679	0	28304	
680	0	28498	
681	0	28704	
682	0	28892	
683	0	29024	
684	0	29104	
685	0	29136	
686	0	29128	
687	0	29140	
688	0	29164	
689	0	29172	
690	0	29096	
691	0	29032	
692	0	29016	
693	0	28968	
694	0	28888	
695	0	28840	
696	0	28836	
697	0	28840	
698	0	28868	
699	0	28952	
700	0	29008	
701	0	29100	
702	0	29224	
703	0	29328	
704	0	29388	
705	0	29416	
706	0	29448	
707	0	29486	
708	0	29504	
709	0	29484	
710	0	29488	
711	0	29492	
712	0	29460	
713	0	29496	
714	0	29552	
715	0	29568	
716	0	29608	
717	0	29680	
718	0	29760	
719	0	29840	
720	0	29924	
721	0	29972	
722	0	30048	
723	0	30120	
724	0	30176	
725	0	30216	
726	0	30280	
727	0	30344	
728	0	30380	
729	0	30400	
730	0	30420	
731	0	30440	
732	0	30472	
733	0	30488	
734	0	30564	
735	0	30604	
736	0	30640	
737	0	30676	
738	0	30744	
739	0	30844	
740	0	30976	
741	0	31120	
742	0	31252	
743	0	31344	
744	0	31388	
745	0	31424	
746	0	31484	
747	0	31484	
748	0	31492	
749	0	31512	
750	0	31524	
751	0	31552	
752	0	31596	
753	0	31620	
754	0	31668	
755	0	31724	
756	0	31804	
757	0	31856	
758	0	31896	
759	0	31948	
760	0	32008	
761	0	32092	
762	0	32172	
763	0	32252	
764	0	32320	
765	0	32400	
766	0	32474	
767	0	32500	
768	0	32532	
769	0	32576	
770	0	32548	
771	0	32504	
772	0	32500	
773	0	32504	
774	0	32560	
775	0	32612	
776	0	32656	
777	0	32744	
778	0	32824	
779	0	32864	
780	0	32932	
781	0	33032	
782	0	33140	
783	0	33230	
784	0	33332	
785	0	33412	
786	0	33516	
787	0	33588	
788	0	33632	
789	0	33640	
790	0	33644	
791	0	33656	
792	0	33680	
793	0	33736	
794	0	33848	
795	0	33920	
796	0	34000	
797	0	34068	
798	0	34128	
799	0	34228	
800	0	34336	
801	0	34388	
802	0	34480	
803	0	34592	
804	0	34660	
805	0	34736	
806	0	34784	
807	0	34850	
808	0	34936	
809	0	34972	
810	0	35000	
811	0	35056	
812	0	35104	
813	0	35166	
814	0	35264	
815	0	35368	
816	0	35440	
817	0	35508	
818	0	35628	
819	0	35736	
820	0	35844	
821	0	35992	
822	0	36128	
823	0	36276	
824	0	36372	
825	0	36468	
826	0	36540	
827	0	36588	
828	0	36652	
829	0	36704	
830	0	36764	
831	0	36844	
832	0	36936	
833	0	37040	
834	0	37172	
835	0	37296	
836	0	37372	
837	0	37460	
838	0	37572	
839	0	37712	
840	0	37856	
841	0	37992	
842	0	38116	
843	0	38240	
844	0	38340	
845	0	38478	
846	0	38624	
847	0	38680	
848	0	38748	
849	0	38808	
850	0	38840	
851	0	38888	
852	0	38944	
853	0	38952	
854	0	38992	
855	0	39024	
856	0	39048	
857	0	39120	
858	0	39184	
859	0	39196	
860	0	39236	
861	0	39240	
862	0	39256	
863	0	39276	
864	0	39268	
865	0	39316	
866	0	39368	
867	0	39372	
868	0	39368	
869	0	39380	
870	0	39376	
871	0	39396	
872	0	39392	
873	0	39360	
874	0	39328	
875	0	39316	
876	0	39292	
877	0	39240	
878	0	39200	
879	0	39184	
880	0	39176	
881	0	39144	
882	0	39104	
883	0	39072	
884	0	38968	
885	0	38804	
886	0	38620	
887	0	38408	
888	0	38196	
889	0	37972	
890	0	37736	
891	0	37520	
892	0	37288	
893	0	37080	
894	0	36860	
895	0	36628	
896	0	36384	
897	0	36136	
898	0	35844	
899	0	35572	
900	0	35308	
901	0	35030	
902	0	34760	
903	0	34508	
904	0	34288	
905	0	34032	
906	0	33744	
907	0	33464	
908	0	33148	
909	0	32844	
910	0	32584	
911	0	32356	
912	0	32100	
913	0	31884	
914	0	31652	
915	0	31384	
916	0	31148	
917	0	30932	
918	0	30756	
919	0	30624	
920	0	30440	
921	0	30272	
922	0	30132	
923	0	30016	
924	0	29852	
925	0	29688	
926	0	29548	
927	0	29408	
928	0	29226	
929	0	29084	
930	0	28940	
931	0	28800	
932	0	28668	
933	0	28532	
934	0	28444	
935	0	28386	
936	0	28332	
937	0	28274	
938	0	28236	
939	0	28216	
940	0	28196	
941	0	28200	
942	0	28156	
943	0	28112	
944	0	28120	
945	0	28084	
946	0	28060	
947	0	28016	
948	0	27976	
949	0	27936	
950	0	27916	
951	0	27888	
952	0	27840	
953	0	27812	
954	0	27781	
955	0	27808	
956	0	27822	
957	0	27808	
958	0	27808	
959	0	27904	
960	0	27960	
961	0	28016	
962	0	28064	
963	0	28128	
964	0	28192	
965	0	28256	
966	0	28280	
967	0	28260	
968	0	28272	
969	0	28292	
970	0	28328	
971	0	28356	
972	0	28388	
973	0	28384	
974	0	28360	
975	0	28352	
976	0	28368	
977	0	28398	
978	0	28480	
979	0	28640	
980	0	28760	
981	0	28820	
982	0	28862	
983	0	28890	
984	0	28920	
985	0	28992	
986	0	29056	
987	0	29076	
988	0	29048	
989	0	29064	
990	0	29068	
991	0	29098	
992	0	29108	
993	0	29136	
994	0	29172	
995	0	29224	
996	0	29264	
997	0	29280	
998	0	29312	
999	0	29424	
1000	0	29532	
1001	0	29640	
1002	0	29746	
1003	0	29824	
1004	0	29888	
1005	0	29914	
1006	0	29952	
1007	0	29972	
1008	0	29986	
1009	0	29960	
1010	0	29940	
1011	0	29912	
1012	0	29892	
1013	0	29920	
1014	0	29956	
1015	0	29984	
1016	0	30032	
1017	0	30108	
1018	0	30202	
1019	0	30272	
1020	0	30304	
1021	0	30380	
1022	0	30428	
1023	0	30500	
1024	0	30592	
1025	0	30596	
1026	0	30588	
1027	0	30568	
1028	0	30528	
1029	0	30504	
1030	0	30480	
1031	0	30488	
1032	0	30496	
1033	0	30520	
1034	0	30556	
1035	0	30620	
1036	0	30664	
1037	0	30688	
1038	0	30736	
1039	0	30824	
1040	0	30912	
1041	0	30960	
1042	0	31020	
1043	0	31120	
1044	0	31230	
1045	0	31304	
1046	0	31325	
1047	0	31296	
1048	0	31280	
1049	0	31272	
1050	0	31288	
1051	0	31304	
1052	0	31272	
1053	0	31232	
1054	0	31252	
1055	0	31298	
1056	0	31304	
1057	0	31320	
1058	0	31368	
1059	0	31444	
1060	0	31504	
1061	0	31544	
1062	0	31546	
1063	0	31536	
1064	0	31544	
1065	0	31588	
1066	0	31620	
1067	0	31632	
1068	0	31626	
1069	0	31618	
1070	0	31632	
1071	0	31600	
1072	0	31612	
1073	0	31628	
1074	0	31668	
1075	0	31688	
1076	0	31688	
1077	0	31676	
1078	0	31660	
1079	0	31700	
1080	0	31776	
1081	0	31818	
1082	0	31864	
1083	0	31940	
1084	0	31952	
1085	0	31968	
1086	0	31964	
1087	0	31948	
1088	0	31864	
1089	0	31752	
1090	0	31724	
1091	0	31688	
1092	0	31632	
1093	0	31600	
1094	0	31584	
1095	0	31604	
1096	0	31648	
1097	0	31664	
1098	0	31676	
1099	0	31700	
1100	0	31764	
1101	0	31814	
1102	0	31860	
1103	0	31892	
1104	0	31912	
1105	0	31902	
1106	0	31884	
1107	0	31864	
1108	0	31824	
1109	0	31776	
1110	0	31764	
1111	0	31724	
1112	0	31696	
1113	0	31724	
1114	0	31772	
1115	0	31776	
1116	0	31768	
1117	0	31800	
1118	0	31848	
1119	0	31900	
1120	0	31896	
1121	0	31916	
1122	0	31976	
1123	0	32016	
1124	0	32028	
1125	0	32012	
1126	0	31996	
1127	0	31960	
1128	0	31916	
1129	0	31832	
1130	0	31824	
1131	0	31832	
1132	0	31812	
1133	0	31776	
1134	0	31728	
1135	0	31732	
1136	0	31756	
1137	0	31760	
1138	0	31790	
1139	0	31840	
1140	0	31888	
1141	0	31940	
1142	0	31968	
1143	0	32024	
1144	0	32058	
1145	0	32016	
1146	0	31960	
1147	0	31900	
1148	0	31904	
1149	0	31868	
1150	0	31832	
1151	0	31816	
1152	0	31808	
1153	0	31780	
1154	0	31772	
1155	0	31796	
1156	0	31824	
1157	0	31808	
1158	0	31828	
1159	0	31852	
1160	0	31852	
1161	0	31872	
1162	0	31964	
1163	0	32020	
1164	0	32012	
1165	0	32000	
1166	0	31944	
1167	0	31888	
1168	0	31812	
1169	0	31772	
1170	0	31760	
1171	0	31788	
1172	0	31802	
1173	0	31828	
1174	0	31820	
1175	0	31800	
1176	0	31792	
1177	0	31840	
1178	0	31868	
1179	0	31880	
1180	0	31912	
1181	0	31964	
1182	0	31952	
1183	0	31944	
1184	0	31944	
1185	0	31968	
1186	0	31972	
1187	0	31964	
1188	0	31946	
1189	0	31904	
1190	0	31880	
1191	0	31892	
1192	0	31912	
1193	0	31956	
1194	0	31976	
1195	0	32008	
1196	0	32000	
1197	0	32000	
1198	0	32024	
1199	0	32040	
1200	0	32044	
1201	0	32096	
1202	0	32132	
1203	0	32148	
1204	0	32168	
1205	0	32192	
1206	0	32192	
1207	0	32168	
1208	0	32144	
1209	0	32118	
1210	0	32080	
1211	0	32072	
1212	0	32036	
1213	0	32030	
1214	0	32066	
1215	0	32080	
1216	0	32108	
1217	0	32128	
1218	0	32124	
1219	0	32160	
1220	0	32212	
1221	0	32292	
1222	0	32388	
1223	0	32456	
1224	0	32468	
1225	0	32440	
1226	0	32472	
1227	0	32508	
1228	0	32504	
1229	0	32452	
1230	0	32386	
1231	0	32350	
1232	0	32324	
1233	0	32336	
1234	0	32372	
1235	0	32400	
1236	0	32428	
1237	0	32468	
1238	0	32522	
1239	0	32576	
1240	0	32620	
1241	0	32664	
1242	0	32776	
1243	0	32940	
1244	0	33020	
1245	0	33088	
1246	0	33152	
1247	0	33204	
1248	0	33244	
1249	0	33300	
1250	0	33320	
1251	0	33352	
1252	0	33364	
1253	0	33372	
1254	0	33416	
1255	0	33444	
1256	0	33400	
1257	0	33344	
1258	0	33320	
1259	0	33272	
1260	0	33232	
1261	0	33224	
1262	0	33228	
1263	0	33228	
1264	0	33212	
1265	0	33272	
1266	0	33316	
1267	0	33368	
1268	0	33472	
1269	0	33636	
1270	0	33832	
1271	0	34080	
1272	0	34378	
1273	0	34620	
1274	0	34868	
1275	0	35048	
1276	0	35192	
1277	0	35344	
1278	0	35464	
1279	0	35548	
1280	0	35610	
1281	0	35640	
1282	0	35608	
1283	0	35544	
1284	0	35472	
1285	0	35384	
1286	0	35328	
1287	0	35228	
1288	0	35096	
1289	0	34858	
1290	0	34632	
1291	0	34456	
1292	0	34320	
1293	0	34188	
1294	0	34080	
1295	0	33970	
1296	0	33904	
1297	0	33800	
1298	0	33690	
1299	0	33568	
1300	0	33472	
1301	0	33412	
1302	0	33360	
1303	0	33308	
1304	0	33228	
1305	0	33136	
1306	0	33048	
1307	0	32956	
1308	0	32888	
1309	0	32816	
1310	0	32720	
1311	0	32604	
1312	0	32488	
1313	0	32392	
1314	0	32352	
1315	0	32296	
1316	0	32188	
1317	0	32088	
1318	0	32008	
1319	0	31928	
1320	0	31840	
1321	0	31770	
1322	0	31672	
1323	0	31636	
1324	0	31630	
1325	0	31612	
1326	0	31572	
1327	0	31490	
1328	0	31432	
1329	0	31424	
1330	0	31408	
1331	0	31440	
1332	0	31464	
1333	0	31444	
1334	0	31436	
1335	0	31436	
1336	0	31440	
1337	0	31440	
1338	0	31488	
1339	0	31540	
1340	0	31580	
1341	0	31624	
1342	0	31668	
1343	0	31696	
1344	0	31696	
1345	0	31688	
1346	0	31716	
1347	0	31724	
1348	0	31752	
1349	0	31782	
1350	0	31808	
1351	0	31832	
1352	0	31856	
1353	0	31832	
1354	0	31828	
1355	0	31840	
1356	0	31868	
1357	0	31880	
1358	0	31932	
1359	0	32004	
1360	0	32060	
1361	0	32084	
1362	0	32092	
1363	0	32096	
1364	0	32088	
1365	0	32072	
1366	0	32044	
1367	0	31932	
1368	0	31728	
1369	0	31488	
1370	0	31120	
1371	0	30530	
1372	0	29752	
1373	0	29068	
1374	0	28648	
1375	0	28412	
1376	0	28392	
1377	0	28560	
1378	0	28928	
1379	0	29496	
1380	0	30186	
1381	0	31088	
1382	0	32228	
1383	0	33508	
1384	0	34944	
1385	0	36452	
1386	0	37980	
1387	0	39836	
1388	0	42024	
1389	0	44440	
1390	0	47316	
1391	0	50368	
1392	0	53344	
1393	0	56208	
1394	0	59092	
1395	0	61884	
1396	0	63616	
1397	0	64520	
1398	0	64928	
1399	0	65116	
1400	0	65136	
1401	0	65100	
1402	0	65016	
1403	0	64912	
1404	0	64796	
1405	0	63700	
1406	0	58336	
1407	0	53744	
1408	0	49856	
1409	0	46520	
1410	0	43700	
1411	0	41240	
1412	0	39016	
1413	0	36984	
1414	0	35252	
1415	0	33696	
1416	0	32236	
1417	0	31024	
1418	0	30024	
1419	0	29184	
1420	0	28624	
1421	0	28300	
1422	0	28180	
1423	0	28168	
1424	0	28196	
1425	0	28152	
1426	0	27976	
1427	0	27772	
1428	0	27604	
1429	0	27504	
1430	0	27512	
1431	0	27572	
1432	0	27732	
1433	0	27976	
1434	0	28238	
1435	0	28492	
1436	0	28714	
1437	0	28876	
1438	0	28992	
1439	0	29064	
1440	0	29112	
1441	0	29124	
1442	0	29160	
1443	0	29176	
1444	0	29176	
1445	0	29200	
1446	0	29216	
1447	0	29156	
1448	0	29132	
1449	0	29124	
1450	0	29148	
1451	0	29128	
1452	0	29104	
1453	0	29072	
1454	0	29082	
1455	0	29078	
1456	0	29060	
1457	0	29108	
1458	0	29216	
1459	0	29348	
1460	0	29456	
1461	0	29476	
1462	0	29540	
1463	0	29616	
1464	0	29664	
1465	0	29692	
1466	0	29720	
1467	0	29724	
1468	0	29716	
1469	0	29740	
1470	0	29792	
1471	0	29828	
1472	0	29802	
1473	0	29794	
1474	0	29852	
1475	0	29900	
1476	0	29952	
1477	0	30024	
1478	0	30052	
1479	0	30108	
1480	0	30212	
1481	0	30256	
1482	0	30292	
1483	0	30370	
1484	0	30464	
1485	0	30556	
1486	0	30622	
1487	0	30640	
1488	0	30636	
1489	0	30688	
1490	0	30716	
1491	0	30744	
1492	0	30764	
1493	0	30788	
1494	0	30812	
1495	0	30856	
1496	0	30908	
1497	0	30972	
1498	0	31054	
1499	0	31088	
1500	0	31144	
1501	0	31232	
1502	0	31316	
1503	0	31380	
1504	0	31456	
1505	0	31532	
1506	0	31576	
1507	0	31564	
1508	0	31532	
1509	0	31528	
1510	0	31548	
1511	0	31596	
1512	0	31636	
1513	0	31708	
1514	0	31764	
1515	0	31792	
1516	0	31836	
1517	0	31880	
1518	0	31924	
1519	0	31988	
1520	0	32044	
1521	0	32128	
1522	0	32216	
1523	0	32264	
1524	0	32324	
1525	0	32360	
1526	0	32388	
1527	0	32416	
1528	0	32432	
1529	0	32464	
1530	0	32464	
1531	0	32488	
1532	0	32516	
1533	0	32552	
1534	0	32612	
1535	0	32684	
1536	0	32752	
1537	0	32824	
1538	0	32904	
1539	0	33016	
1540	0	33116	
1541	0	33204	
1542	0	33268	
1543	0	33340	
1544	0	33408	
1545	0	33464	
1546	0	33540	
1547	0	33600	
1548	0	33648	
1549	0	33668	
1550	0	33688	
1551	0	33728	
1552	0	33808	
1553	0	33856	
1554	0	33904	
1555	0	33964	
1556	0	34040	
1557	0	34124	
1558	0	34196	
1559	0	34296	
1560	0	34432	
1561	0	34560	
1562	0	34612	
1563	0	34656	
1564	0	34740	
1565	0	34792	
1566	0	34840	
1567	0	34884	
1568	0	34948	
1569	0	35024	
1570	0	35112	
1571	0	35184	
1572	0	35240	
1573	0	35296	
1574	0	35328	
1575	0	35400	
1576	0	35476	
1577	0	35568	
1578	0	35688	
1579	0	35840	
1580	0	35996	
1581	0	36140	
1582	0	36260	
1583	0	36348	
1584	0	36468	
1585	0	36584	
1586	0	36628	
1587	0	36664	
1588	0	36768	
1589	0	36848	
1590	0	36924	
1591	0	36996	
1592	0	37096	
1593	0	37178	
1594	0	37260	
1595	0	37368	
1596	0	37448	
1597	0	37512	
1598	0	37578	
1599	0	37692	
1600	0	37808	
1601	0	37952	
1602	0	38116	
1603	0	38226	
1604	0	38264	
1605	0	38284	
1606	0	38408	
1607	0	38464	
1608	0	38456	
1609	0	38436	
1610	0	38424	
1611	0	38440	
1612	0	38480	
1613	0	38520	
1614	0	38576	
1615	0	38596	
1616	0	38664	
1617	0	38712	
1618	0	38764	
1619	0	38832	
1620	0	38860	
1621	0	38904	
1622	0	38952	
1623	0	38960	
1624	0	38976	
1625	0	38976	
1626	0	39008	
1627	0	39024	
1628	0	39030	
1629	0	39036	
1630	0	39016	
1631	0	38944	
1632	0	38840	
1633	0	38768	
1634	0	38736	
1635	0	38688	
1636	0	38636	
1637	0	38616	
1638	0	38576	
1639	0	38572	
1640	0	38536	
1641	0	38476	
1642	0	38432	
1643	0	38368	
1644	0	38244	
1645	0	38096	
1646	0	37956	
1647	0	37772	
1648	0	37522	
1649	0	37248	
1650	0	37036	
1651	0	36778	
1652	0	36504	
1653	0	36224	
1654	0	35972	
1655	0	35744	
1656	0	35520	
1657	0	35300	
1658	0	35082	
1659	0	34852	
1660	0	34600	
1661	0	34348	
1662	0	34112	
1663	0	33884	
1664	0	33688	
1665	0	33456	
1666	0	33220	
1667	0	32984	
1668	0	32716	
1669	0	32416	
1670	0	32124	
1671	0	31824	
1672	0	31556	
1673	0	31310	
1674	0	31056	
1675	0	30860	
1676	0	30660	
1677	0	30518	
1678	0	30360	
1679	0	30240	
1680	0	30100	
1681	0	29948	
1682	0	29816	
1683	0	29720	
1684	0	29616	
1685	0	29516	
1686	0	29412	
1687	0	29316	
1688	0	29162	
1689	0	29012	
1690	0	28852	
1691	0	28712	
1692	0	28584	
1693	0	28480	
1694	0	28392	
1695	0	28296	
1696	0	28192	
1697	0	28122	
1698	0	28112	
1699	0	28112	
1700	0	28124	
1701	0	28092	
1702	0	28108	
1703	0	28116	
1704	0	28128	
1705	0	28108	
1706	0	28100	
1707	0	28092	
1708	0	28060	
1709	0	28004	
1710	0	27972	
1711	0	27928	
1712	0	27900	
1713	0	27880	
1714	0	27944	
1715	0	27980	
1716	0	27968	
1717	0	28002	
1718	0	28072	
1719	0	28156	
1720	0	28224	
1721	0	28280	
1722	0	28336	
1723	0	28396	
1724	0	28444	
1725	0	28496	
1726	0	28568	
1727	0	28566	
1728	0	28568	
1729	0	28576	
1730	0	28552	
1731	0	28546	
1732	0	28524	
1733	0	28520	
1734	0	28562	
1735	0	28596	
1736	0	28648	
1737	0	28748	
1738	0	28864	
1739	0	28948	
1740	0	29060	
1741	0	29120	
1742	0	29204	
1743	0	29284	
1744	0	29352	
1745	0	29380	
1746	0	29392	
1747	0	29396	
1748	0	29398	
1749	0	29388	
1750	0	29420	
1751	0	29448	
1752	0	29432	
1753	0	29456	
1754	0	29532	
1755	0	29612	
1756	0	29644	
1757	0	29680	
1758	0	29786	
1759	0	29900	
1760	0	29992	
1761	0	30048	
1762	0	30144	
1763	0	30216	
1764	0	30280	
1765	0	30300	
1766	0	30284	
1767	0	30260	
1768	0	30264	
1769	0	30252	
1770	0	30216	
1771	0	30208	
1772	0	30216	
1773	0	30200	
1774	0	30194	
1775	0	30184	
1776	0	30192	
1777	0	30218	
1778	0	30284	
1779	0	30348	
1780	0	30380	
1781	0	30444	
1782	0	30544	
1783	0	30612	
1784	0	30692	
1785	0	30762	
1786	0	30732	
1787	0	30688	
1788	0	30676	
1789	0	30668	
1790	0	30690	
1791	0	30740	
1792	0	30740	
1793	0	30748	
1794	0	30752	
1795	0	30760	
1796	0	30776	
1797	0	30804	
1798	0	30864	
1799	0	30912	
1800	0	30992	
1801	0	31052	
1802	0	31116	
1803	0	31192	
1804	0	31230	
1805	0	31288	
1806	0	31304	
1807	0	31300	
1808	0	31288	
1809	0	31244	
1810	0	31220	
1811	0	31196	
1812	0	31164	
1813	0	31144	
1814	0	31160	
1815	0	31192	
1816	0	31196	
1817	0	31256	
1818	0	31288	
1819	0	31328	
1820	0	31398	
1821	0	31476	
1822	0	31544	
1823	0	31568	
1824	0	31596	
1825	0	31624	
1826	0	31668	
1827	0	31680	
1828	0	31684	
1829	0	31620	
1830	0	31556	
1831	0	31500	
1832	0	31456	
1833	0	31444	
1834	0	31440	
1835	0	31476	
1836	0	31524	
1837	0	31564	
1838	0	31604	
1839	0	31648	
1840	0	31624	
1841	0	31626	
1842	0	31660	
1843	0	31676	
1844	0	31712	
1845	0	31712	
1846	0	31698	
1847	0	31680	
1848	0	31640	
1849	0	31600	
1850	0	31584	
1851	0	31588	
1852	0	31596	
1853	0	31532	
1854	0	31548	
1855	0	31584	
1856	0	31584	
1857	0	31584	
1858	0	31636	
1859	0	31688	
1860	0	31696	
1861	0	31704	
1862	0	31704	
1863	0	31656	
1864	0	31572	
1865	0	31556	
1866	0	31560	
1867	0	31596	
1868	0	31616	
1869	0	31620	
1870	0	31584	
1871	0	31552	
1872	0	31560	
1873	0	31560	
1874	0	31544	
1875	0	31512	
1876	0	31440	
1877	0	31412	
1878	0	31470	
1879	0	31524	
1880	0	31588	
1881	0	31680	
1882	0	31768	
1883	0	31792	
1884	0	31804	
1885	0	31760	
1886	0	31704	
1887	0	31640	
1888	0	31570	
1889	0	31520	
1890	0	31460	
1891	0	31468	
1892	0	31460	
1893	0	31464	
1894	0	31424	
1895	0	31424	
1896	0	31428	
1897	0	31488	
1898	0	31540	
1899	0	31532	
1900	0	31594	
1901	0	31668	
1902	0	31744	
1903	0	31776	
1904	0	31808	
1905	0	31800	
1906	0	31772	
1907	0	31708	
1908	0	31648	
1909	0	31588	
1910	0	31544	
1911	0	31536	
1912	0	31528	
1913	0	31512	
1914	0	31564	
1915	0	31628	
1916	0	31660	
1917	0	31672	
1918	0	31724	
1919	0	31768	
1920	0	31808	
1921	0	31856	
1922	0	31900	
1923	0	31912	
1924	0	31924	
1925	0	31920	
1926	0	31856	
1927	0	31792	
1928	0	31744	
1929	0	31728	
1930	0	31664	
1931	0	31580	
1932	0	31524	
1933	0	31514	
1934	0	31552	
1935	0	31604	
1936	0	31568	
1937	0	31568	
1938	0	31596	
1939	0	31652	
1940	0	31728	
1941	0	31812	
1942	0	31928	
1943	0	32016	
1944	0	32080	
1945	0	32136	
1946	0	32080	
1947	0	32016	
1948	0	31964	
1949	0	31940	
1950	0	31900	
1951	0	31860	
1952	0	31816	
1953	0	31752	
1954	0	31716	
1955	0	31716	
1956	0	31724	
1957	0	31696	
1958	0	31760	
1959	0	31864	
1960	0	31968	
1961	0	32080	
1962	0	32192	
1963	0	32224	
1964	0	32228	
1965	0	32216	
1966	0	32140	
1967	0	32072	
1968	0	32064	
1969	0	32076	
1970	0	32020	
1971	0	31964	
1972	0	31944	
1973	0	31928	
1974	0	31888	
1975	0	31884	
1976	0	31916	
1977	0	31936	
1978	0	31960	
1979	0	31988	
1980	0	32038	
1981	0	32124	
1982	0	32236	
1983	0	32308	
1984	0	32368	
1985	0	32384	
1986	0	32348	
1987	0	32272	
1988	0	32218	
1989	0	32200	
1990	0	32180	
1991	0	32168	
1992	0	32180	
1993	0	32212	
1994	0	32224	
1995	0	32240	
1996	0	32268	
1997	0	32304	
1998	0	32356	
1999	0	32472	
2000	0	32576	
2001	0	32662	
2002	0	32728	
2003	0	32792	
2004	0	32868	
2005	0	32948	
2006	0	33000	
2007	0	33064	
2008	0	33112	
2009	0	33132	
2010	0	33140	
2011	0	33152	
2012	0	33164	
2013	0	33168	
2014	0	33180	
2015	0	33212	
2016	0	33208	
2017	0	33212	
2018	0	33172	
2019	0	33136	
2020	0	33088	
2021	0	33100	
2022	0	33112	
2023	0	33084	
2024	0	33080	
2025	0	33088	
2026	0	33136	
2027	0	33204	
2028	0	33304	
2029	0	33484	
2030	0	33736	
2031	0	33980	
2032	0	34240	
2033	0	34492	
2034	0	34738	
2035	0	34924	
2036	0	35066	
2037	0	35296	
2038	0	35556	
2039	0	35768	
2040	0	35880	
2041	0	35892	
2042	0	35852	
2043	0	35776	
2044	0	35680	
2045	0	35568	
2046	0	35460	
2047	0	35376	
2048	0	35264	
2049	0	35072	
2050	0	34852	
2051	0	34632	
2052	0	34448	
2053	0	34272	
2054	0	34128	
2055	0	33984	
2056	0	33914	
2057	0	33800	
2058	0	33700	
2059	0	33592	
2060	0	33500	
2061	0	33468	
2062	0	33472	
2063	0	33444	
2064	0	33384	
2065	0	33264	
2066	0	33152	
2067	0	33056	
2068	0	32956	
2069	0	32836	
2070	0	32698	
2071	0	32568	
2072	0	32488	
2073	0	32416	
2074	0	32336	
2075	0	32240	
2076	0	32192	
2077	0	32208	
2078	0	32216	
2079	0	32154	
2080	0	32064	
2081	0	31956	
2082	0	31856	
2083	0	31724	
2084	0	31680	
2085	0	31680	
2086	0	31692	
2087	0	31676	
2088	0	31648	
2089	0	31652	
2090	0	31636	
2091	0	31600	
2092	0	31616	
2093	0	31668	
2094	0	31688	
2095	0	31688	
2096	0	31676	
2097	0	31704	
2098	0	31720	
2099	0	31712	
2100	0	31668	
2101	0	31660	
2102	0	31688	
2103	0	31716	
2104	0	31756	
2105	0	31776	
2106	0	31776	
2107	0	31742	
2108	0	31708	
2109	0	31708	
2110	0	31760	
2111	0	31784	
2112	0	31792	
2113	0	31792	
2114	0	31778	
2115	0	31752	
2116	0	31760	
2117	0	31780	
2118	0	31872	
2119	0	32012	
2120	0	32116	
2121	0	32176	
2122	0	32212	
2123	0	32224	
2124	0	32228	
2125	0	32216	
2126	0	32136	
2127	0	31948	
2128	0	31712	
2129	0	31420	
2130	0	30988	
2131	0	30376	
2132	0	29658	
2133	0	28984	
2134	0	28528	
2135	0	28328	
2136	0	28360	
2137	0	28561	
2138	0	28960	
2139	0	29584	
2140	0	30394	
2141	0	31508	
2142	0	32744	
2143	0	33954	
2144	0	35288	
2145	0	36728	
2146	0	38204	
2147	0	39904	
2148	0	42040	
2149	0	44560	
2150	0	47372	
2151	0	50304	
2152	0	53248	
2153	0	56064	
2154	0	58924	
2155	0	61732	
2156	0	63436	
2157	0	64288	
2158	0	64684	
2159	0	64864	
2160	0	64880	
2161	0	64828	
2162	0	64756	
2163	0	64648	
2164	0	64536	
2165	0	59996	
2166	0	54852	
2167	0	50280	
2168	0	46442	
2169	0	43232	
2170	0	40580	
2171	0	38320	
2172	0	36336	
2173	0	34592	
2174	0	32976	
2175	0	31436	
2176	0	29972	
2177	0	28652	
2178	0	27548	
2179	0	26792	
2180	0	26320	
2181	0	26120	
2182	0	26208	
2183	0	26400	
2184	0	26596	
2185	0	26656	
2186	0	26592	
2187	0	26600	
2188	0	26656	
2189	0	26732	
2190	0	26884	
2191	0	27048	
2192	0	27236	
2193	0	27472	
2194	0	27764	
2195	0	28096	
2196	0	28382	
2197	0	28696	
2198	0	28938	
2199	0	29128	
2200	0	29308	
2201	0	29468	
2202	0	29540	
2203	0	29568	
2204	0	29588	
2205	0	29600	
2206	0	29600	
2207	0	29592	
2208	0	29568	
2209	0	29538	
2210	0	29500	
2211	0	29448	
2212	0	29386	
2213	0	29380	
2214	0	29456	
2215	0	29556	
2216	0	29608	
2217	0	29644	
2218	0	29686	
2219	0	29756	
2220	0	29840	
2221	0	29920	
2222	0	30000	
2223	0	30064	
2224	0	30156	
2225	0	30212	
2226	0	30244	
2227	0	30220	
2228	0	30204	
2229	0	30226	
2230	0	30266	
2231	0	30300	
2232	0	30332	
2233	0	30368	
2234	0	30388	
2235	0	30464	
2236	0	30568	
2237	0	30648	
2238	0	30728	
2239	0	30806	
2240	0	30824	
2241	0	30872	
2242	0	30928	
2243	0	30952	
2244	0	30948	
2245	0	30992	
2246	0	31052	
2247	0	31056	
2248	0	31048	
2249	0	31032	
2250	0	31016	
2251	0	31008	
2252	0	30996	
2253	0	31012	
2254	0	31040	
2255	0	31120	
2256	0	31168	
2257	0	31212	
2258	0	31316	
2259	0	31440	
2260	0	31482	
2261	0	31540	
2262	0	31592	
2263	0	31660	
2264	0	31712	
2265	0	31756	
2266	0	31770	
2267	0	31780	
2268	0	31796	
2269	0	31820	
2270	0	31816	
2271	0	31868	
2272	0	31908	
2273	0	31948	
2274	0	32048	
2275	0	32106	
2276	0	32208	
2277	0	32304	
2278	0	32378	
2279	0	32434	
2280	0	32464	
2281	0	32516	
2282	0	32584	
2283	0	32636	
2284	0	32724	
2285	0	32808	
2286	0	32836	
2287	0	32872	
2288	0	32916	
2289	0	32904	
2290	0	32896	
2291	0	32926	
2292	0	32980	
2293	0	33040	
2294	0	33100	
2295	0	33184	
2296	0	33256	
2297	0	33252	
2298	0	33244	
2299	0	33316	
2300	0	33408	
2301	0	33508	
2302	0	33584	
2303	0	33620	
2304	0	33708	
2305	0	33768	
2306	0	33808	
2307	0	33832	
2308	0	33864	
2309	0	33924	
2310	0	33992	
2311	0	34000	
2312	0	34036	
2313	0	34080	
2314	0	34128	
2315	0	34176	
2316	0	34266	
2317	0	34408	
2318	0	34564	
2319	0	34668	
2320	0	34752	
2321	0	34862	
2322	0	34980	
2323	0	35096	
2324	0	35192	
2325	0	35288	
2326	0	35288	
2327	0	35264	
2328	0	35272	
2329	0	35300	
2330	0	35316	
2331	0	35364	
2332	0	35432	
2333	0	35488	
2334	0	35488	
2335	0	35552	
2336	0	35648	
2337	0	35800	
2338	0	35904	
2339	0	36020	
2340	0	36128	
2341	0	36216	
2342	0	36376	
2343	0	36508	
2344	0	36616	
2345	0	36684	
2346	0	36784	
2347	0	36856	
2348	0	36954	
2349	0	37048	
2350	0	37184	
2351	0	37254	
2352	0	37344	
2353	0	37452	
2354	0	37548	
2355	0	37628	
2356	0	37660	
2357	0	37760	
2358	0	37880	
2359	0	37984	
2360	0	38120	
2361	0	38244	
2362	0	38352	
2363	0	38440	
2364	0	38512	
2365	0	38584	
2366	0	38624	
2367	0	38668	
2368	0	38688	
2369	0	38680	
2370	0	38672	
2371	0	38672	
2372	0	38652	
2373	0	38592	
2374	0	38596	
2375	0	38688	
2376	0	38756	
2377	0	38828	
2378	0	38908	
2379	0	38964	
2380	0	39028	
2381	0	39104	
2382	0	39192	
2383	0	39264	
2384	0	39316	
2385	0	39328	
2386	0	39276	
2387	0	39200	
2388	0	39100	
2389	0	39020	
2390	0	38944	
2391	0	38928	
2392	0	38892	
2393	0	38852	
2394	0	38856	
2395	0	38836	
2396	0	38816	
2397	0	38828	
2398	0	38800	
2399	0	38772	
2400	0	38696	
2401	0	38604	
2402	0	38528	
2403	0	38440	
2404	0	38304	
2405	0	38164	
2406	0	37992	
2407	0	37800	
2408	0	37608	
2409	0	37368	
2410	0	37108	
2411	0	36864	
2412	0	36636	
2413	0	36400	
2414	0	36164	
2415	0	35904	
2416	0	35660	
2417	0	35436	
2418	0	35200	
2419	0	34992	
2420	0	34768	
2421	0	34544	
2422	0	34316	
2423	0	34068	
2424	0	33820	
2425	0	33538	
2426	0	33236	
2427	0	33008	
2428	0	32748	
2429	0	32432	
2430	0	32136	
2431	0	31848	
2432	0	31628	
2433	0	31376	
2434	0	31146	
2435	0	30936	
2436	0	30746	
2437	0	30568	
2438	0	30368	
2439	0	30144	
2440	0	29940	
2441	0	29820	
2442	0	29732	
2443	0	29652	
2444	0	29560	
2445	0	29460	
2446	0	29312	
2447	0	29124	
2448	0	28976	
2449	0	28856	
2450	0	28772	
2451	0	28668	
2452	0	28544	
2453	0	28396	
2454	0	28260	
2455	0	28144	
2456	0	28048	
2457	0	27980	
2458	0	27932	
2459	0	27880	
2460	0	27860	
2461	0	27852	
2462	0	27828	
2463	0	27868	
2464	0	27904	
2465	0	27900	
2466	0	27848	
2467	0	27760	
2468	0	27684	
2469	0	27632	
2470	0	27656	
2471	0	27668	
2472	0	27672	
2473	0	27696	
2474	0	27768	
2475	0	27776	
2476	0	27728	
2477	0	27680	
2478	0	27620	
2479	0	27626	
2480	0	27712	
2481	0	27828	
2482	0	27920	
2483	0	27976	
2484	0	28008	
2485	0	28004	
2486	0	28020	
2487	0	28008	
2488	0	27996	
2489	0	27952	
2490	0	27924	
2491	0	27896	
2492	0	27896	
2493	0	27888	
2494	0	27880	
2495	0	27896	
2496	0	27934	
2497	0	27968	
2498	0	28040	
2499	0	28104	
2500	0	28120	
2501	0	28188	
2502	0	28292	
2503	0	28344	
2504	0	28376	
2505	0	28376	
2506	0	28384	
2507	0	28412	
2508	0	28456	
2509	0	28552	
2510	0	28640	
2511	0	28680	
2512	0	28648	
2513	0	28680	
2514	0	28696	
2515	0	28772	
2516	0	28904	
2517	0	28980	
2518	0	29036	
2519	0	29116	
2520	0	29244	
2521	0	29370	
2522	0	29508	
2523	0	29632	
2524	0	29680	
2525	0	29640	
2526	0	29592	
2527	0	29576	
2528	0	29548	
2529	0	29556	
2530	0	29592	
2531	0	29616	
2532	0	29610	
2533	0	29656	
2534	0	29700	
2535	0	29728	
2536	0	29740	
2537	0	29800	
2538	0	29896	
2539	0	29998	
2540	0	30060	
2541	0	30112	
2542	0	30188	
2543	0	30252	
2544	0	30352	
2545	0	30436	
2546	0	30520	
2547	0	30588	
2548	0	30600	
2549	0	30552	
2550	0	30476	
2551	0	30384	
2552	0	30360	
2553	0	30388	
2554	0	30402	
2555	0	30392	
2556	0	30416	
2557	0	30462	
2558	0	30548	
2559	0	30624	
2560	0	30720	
2561	0	30800	
2562	0	30888	
2563	0	30964	
2564	0	31012	
2565	0	31056	
2566	0	31080	
2567	0	31112	
2568	0	31104	
2569	0	31044	
2570	0	31024	
2571	0	31032	
2572	0	31076	
2573	0	31108	
2574	0	31104	
2575	0	31148	
2576	0	31176	
2577	0	31192	
2578	0	31248	
2579	0	31336	
2580	0	31416	
2581	0	31440	
2582	0	31488	
2583	0	31524	
2584	0	31520	
2585	0	31504	
2586	0	31456	
2587	0	31432	
2588	0	31408	
2589	0	31392	
2590	0	31348	
2591	0	31322	
2592	0	31316	
2593	0	31356	
2594	0	31416	
2595	0	31448	
2596	0	31448	
2597	0	31468	
2598	0	31496	
2599	0	31448	
2600	0	31424	
2601	0	31464	
2602	0	31520	
2603	0	31544	
2604	0	31528	
2605	0	31530	
2606	0	31500	
2607	0	31496	
2608	0	31448	
2609	0	31404	
2610	0	31408	
2611	0	31400	
2612	0	31356	
2613	0	31324	
2614	0	31304	
2615	0	31276	
2616	0	31256	
2617	0	31280	
2618	0	31308	
2619	0	31328	
2620	0	31400	
2621	0	31456	
2622	0	31500	
2623	0	31548	
2624	0	31576	
2625	0	31608	
2626	0	31602	
2627	0	31588	
2628	0	31552	
2629	0	31528	
2630	0	31504	
2631	0	31480	
2632	0	31480	
2633	0	31482	
2634	0	31444	
2635	0	31456	
2636	0	31484	
2637	0	31512	
2638	0	31508	
2639	0	31520	
2640	0	31540	
2641	0	31520	
2642	0	31496	
2643	0	31504	
2644	0	31560	
2645	0	31592	
2646	0	31596	
2647	0	31588	
2648	0	31540	
2649	0	31472	
2650	0	31388	
2651	0	31328	
2652	0	31324	
2653	0	31336	
2654	0	31352	
2655	0	31328	
2656	0	31364	
2657	0	31408	
2658	0	31452	
2659	0	31504	
2660	0	31568	
2661	0	31616	
2662	0	31684	
2663	0	31736	
2664	0	31760	
2665	0	31744	
2666	0	31736	
2667	0	31730	
2668	0	31654	
2669	0	31536	
2670	0	31448	
2671	0	31420	
2672	0	31412	
2673	0	31408	
2674	0	31412	
2675	0	31416	
2676	0	31448	
2677	0	31458	
2678	0	31472	
2679	0	31488	
2680	0	31512	
2681	0	31556	
2682	0	31600	
2683	0	31644	
2684	0	31708	
2685	0	31768	
2686	0	31794	
2687	0	31792	
2688	0	31778	
2689	0	31768	
2690	0	31724	
2691	0	31706	
2692	0	31724	
2693	0	31764	
2694	0	31784	
2695	0	31800	
2696	0	31796	
2697	0	31784	
2698	0	31808	
2699	0	31856	
2700	0	31880	
2701	0	31938	
2702	0	32006	
2703	0	32020	
2704	0	32024	
2705	0	32016	
2706	0	32040	
2707	0	32040	
2708	0	32036	
2709	0	31984	
2710	0	31928	
2711	0	31840	
2712	0	31800	
2713	0	31840	
2714	0	31864	
2715	0	31908	
2716	0	31952	
2717	0	31964	
2718	0	32036	
2719	0	32148	
2720	0	32228	
2721	0	32266	
2722	0	32324	
2723	0	32368	
2724	0	32360	
2725	0	32352	
2726	0	32368	
2727	0	32352	
2728	0	32288	
2729	0	32196	
2730	0	32178	
2731	0	32232	
2732	0	32316	
2733	0	32336	
2734	0	32304	
2735	0	32308	
2736	0	32364	
2737	0	32496	
2738	0	32624	
2739	0	32704	
2740	0	32768	
2741	0	32824	
2742	0	32904	
2743	0	33016	
2744	0	33128	
2745	0	33216	
2746	0	33188	
2747	0	33156	
2748	0	33180	
2749	0	33176	
2750	0	33156	
2751	0	33076	
2752	0	33012	
2753	0	32936	
2754	0	32864	
2755	0	32800	
2756	0	32764	
2757	0	32780	
2758	0	32816	
2759	0	32864	
2760	0	32916	
2761	0	33060	
2762	0	33204	
2763	0	33376	
2764	0	33596	
2765	0	33852	
2766	0	34096	
2767	0	34320	
2768	0	34508	
2769	0	34632	
2770	0	34792	
2771	0	34954	
2772	0	35104	
2773	0	35260	
2774	0	35360	
2775	0	35376	
2776	0	35328	
2777	0	35252	
2778	0	35176	
2779	0	35144	
2780	0	35092	
2781	0	35052	
2782	0	34956	
2783	0	34832	
2784	0	34620	
2785	0	34402	
2786	0	34228	
2787	0	34104	
2788	0	33972	
2789	0	33850	
2790	0	33730	
2791	0	33608	
2792	0	33480	
2793	0	33264	
2794	0	33104	
2795	0	33000	
2796	0	32944	
2797	0	32956	
2798	0	32960	
2799	0	32944	
2800	0	32896	
2801	0	32836	
2802	0	32784	
2803	0	32742	
2804	0	32716	
2805	0	32616	
2806	0	32480	
2807	0	32352	
2808	0	32240	
2809	0	32124	
2810	0	31992	
2811	0	31872	
2812	0	31760	
2813	0	31620	
2814	0	31492	
2815	0	31436	
2816	0	31368	
2817	0	31296	
2818	0	31236	
2819	0	31178	
2820	0	31144	
2821	0	31168	
2822	0	31248	
2823	0	31296	
2824	0	31364	
2825	0	31396	
2826	0	31376	
2827	0	31340	
2828	0	31308	
2829	0	31264	
2830	0	31232	
2831	0	31220	
2832	0	31240	
2833	0	31228	
2834	0	31248	
2835	0	31252	
2836	0	31224	
2837	0	31276	
2838	0	31324	
2839	0	31340	
2840	0	31388	
2841	0	31442	
2842	0	31556	
2843	0	31652	
2844	0	31706	
2845	0	31744	
2846	0	31740	
2847	0	31732	
2848	0	31700	
2849	0	31712	
2850	0	31736	
2851	0	31756	
2852	0	31768	
2853	0	31756	
2854	0	31776	
2855	0	31776	
2856	0	31748	
2857	0	31776	
2858	0	31832	
2859	0	31884	
2860	0	31888	
2861	0	31864	
2862	0	31808	
2863	0	31728	
2864	0	31604	
2865	0	31356	
2866	0	30988	
2867	0	30424	
2868	0	29748	
2869	0	29156	
2870	0	28734	
2871	0	28474	
2872	0	28440	
2873	0	28578	
2874	0	28916	
2875	0	29444	
2876	0	30224	
2877	0	31316	
2878	0	32476	
2879	0	33676	
2880	0	35020	
2881	0	36456	
2882	0	37968	
2883	0	39760	
2884	0	41948	
2885	0	44560	
2886	0	47328	
2887	0	50136	
2888	0	52960	
2889	0	55680	
2890	0	58516	
2891	0	61332	
2892	0	63232	
2893	0	64224	
2894	0	64688	
2895	0	64904	
2896	0	64944	
2897	0	64904	
2898	0	64836	
2899	0	64736	
2900	0	62068	
2901	0	56908	
2902	0	52012	
2903	0	47760	
2904	0	44256	
2905	0	41328	
2906	0	38878	
2907	0	36808	
2908	0	34992	
2909	0	33360	
2910	0	31826	
2911	0	30344	
2912	0	28920	
2913	0	27636	
2914	0	26596	
2915	0	25920	
2916	0	25568	
2917	0	25468	
2918	0	25624	
2919	0	25860	
2920	0	26086	
2921	0	26172	
2922	0	26164	
2923	0	26212	
2924	0	26320	
2925	0	26484	
2926	0	26648	
2927	0	26864	
2928	0	27136	
2929	0	27460	
2930	0	27788	
2931	0	28088	
2932	0	28368	
2933	0	28652	
2934	0	28900	
2935	0	29104	
2936	0	29258	
2937	0	29424	
2938	0	29568	
2939	0	29652	
2940	0	29712	
2941	0	29784	
2942	0	29828	
2943	0	29832	
2944	0	29824	
2945	0	29856	
2946	0	29820	
2947	0	29788	
2948	0	29744	
2949	0	29740	
2950	0	29768	
2951	0	29796	
2952	0	29788	
2953	0	29808	
2954	0	29816	
2955	0	29888	
2956	0	29920	
2957	0	29972	
2958	0	30056	
2959	0	30120	
2960	0	30160	
2961	0	30228	
2962	0	30292	
2963	0	30340	
2964	0	30392	
2965	0	30460	
2966	0	30528	
2967	0	30528	
2968	0	30528	
2969	0	30548	
2970	0	30572	
2971	0	30592	
2972	0	30612	
2973	0	30644	
2974	0	30674	
2975	0	30712	
2976	0	30786	
2977	0	30880	
2978	0	30936	
2979	0	30992	
2980	0	31036	
2981	0	31080	
2982	0	31188	
2983	0	31310	
2984	0	31370	
2985	0	31392	
2986	0	31384	
2987	0	31388	
2988	0	31348	
2989	0	31320	
2990	0	31316	
2991	0	31380	
2992	0	31440	
2993	0	31520	
2994	0	31561	
2995	0	31552	
2996	0	31584	
2997	0	31628	
2998	0	31680	
2999	0	31780	
3000	0	31882	
3001	0	31976	
3002	0	32032	
3003	0	32060	
3004	0	32092	
3005	0	32156	
3006	0	32210	
3007	0	32200	
3008	0	32224	
3009	0	32256	
3010	0	32272	
3011	0	32304	
3012	0	32344	
3013	0	32376	
3014	0	32428	
3015	0	32432	
3016	0	32448	
3017	0	32500	
3018	0	32556	
3019	0	32644	
3020	0	32732	
3021	0	32796	
3022	0	32864	
3023	0	32940	
3024	0	33016	
3025	0	33086	
3026	0	33144	
3027	0	33200	
3028	0	33232	
3029	0	33196	
3030	0	33180	
3031	0	33212	
3032	0	33230	
3033	0	33232	
3034	0	33250	
3035	0	33320	
3036	0	33400	
3037	0	33472	
3038	0	33568	
3039	0	33662	
3040	0	33720	
3041	0	33776	
3042	0	33828	
3043	0	33900	
3044	0	33956	
3045	0	34032	
3046	0	34088	
3047	0	34120	
3048	0	34136	
3049	0	34160	
3050	0	34192	
3051	0	34244	
3052	0	34258	
3053	0	34292	
3054	0	34348	
3055	0	34380	
3056	0	34456	
3057	0	34548	
3058	0	34676	
3059	0	34752	
3060	0	34864	
3061	0	35000	
3062	0	35124	
3063	0	35224	
3064	0	35296	
3065	0	35376	
3066	0	35428	
3067	0	35466	
3068	0	35480	
3069	0	35492	
3070	0	35488	
3071	0	35528	
3072	0	35588	
3073	0	35704	
3074	0	35848	
3075	0	35964	
3076	0	36096	
3077	0	36200	
3078	0	36312	
3079	0	36432	
3080	0	36548	
3081	0	36660	
3082	0	36784	
3083	0	36922	
3084	0	37042	
3085	0	37140	
3086	0	37216	
3087	0	37272	
3088	0	37320	
3089	0	37376	
3090	0	37488	
3091	0	37576	
3092	0	37642	
3093	0	37716	
3094	0	37828	
3095	0	37956	
3096	0	38076	
3097	0	38184	
3098	0	38308	
3099	0	38404	
3100	0	38480	
3101	0	38544	
3102	0	38676	
3103	0	38836	
3104	0	38936	
3105	0	39004	
3106	0	39080	
3107	0	39116	
3108	0	39092	
3109	0	39110	
3110	0	39130	
3111	0	39092	
3112	0	39068	
3113	0	39112	
3114	0	39136	
3115	0	39132	
3116	0	39160	
3117	0	39208	
3118	0	39284	
3119	0	39356	
3120	0	39400	
3121	0	39432	
3122	0	39442	
3123	0	39424	
3124	0	39420	
3125	0	39392	
3126	0	39364	
3127	0	39324	
3128	0	39276	
3129	0	39192	
3130	0	39136	
3131	0	39080	
3132	0	39008	
3133	0	38888	
3134	0	38776	
3135	0	38668	
3136	0	38524	
3137	0	38480	
3138	0	38412	
3139	0	38320	
3140	0	38224	
3141	0	38060	
3142	0	37900	
3143	0	37680	
3144	0	37424	
3145	0	37184	
3146	0	36912	
3147	0	36636	
3148	0	36376	
3149	0	36120	
3150	0	35844	
3151	0	35556	
3152	0	35244	
3153	0	34904	
3154	0	34588	
3155	0	34304	
3156	0	34050	
3157	0	33752	
3158	0	33456	
3159	0	33176	
3160	0	32920	
3161	0	32692	
3162	0	32480	
3163	0	32232	
3164	0	32016	
3165	0	31824	
3166	0	31584	
3167	0	31364	
3168	0	31096	
3169	0	30856	
3170	0	30608	
3171	0	30336	
3172	0	30086	
3173	0	29848	
3174	0	29644	
3175	0	29504	
3176	0	29356	
3177	0	29212	
3178	0	29064	
3179	0	28944	
3180	0	28854	
3181	0	28764	
3182	0	28640	
3183	0	28496	
3184	0	28392	
3185	0	28316	
3186	0	28176	
3187	0	28060	
3188	0	27936	
3189	0	27820	
3190	0	27716	
3191	0	27644	
3192	0	27600	
3193	0	27538	
3194	0	27482	
3195	0	27448	
3196	0	27408	
3197	0	27424	
3198	0	27476	
3199	0	27476	
3200	0	27482	
3201	0	27500	
3202	0	27526	
3203	0	27496	
3204	0	27488	
3205	0	27496	
3206	0	27452	
3207	0	27402	
3208	0	27372	
3209	0	27348	
3210	0	27324	
3211	0	27320	
3212	0	27296	
3213	0	27284	
3214	0	27276	
3215	0	27280	
3216	0	27296	
3217	0	27332	
3218	0	27368	
3219	0	27424	
3220	0	27472	
3221	0	27528	
3222	0	27576	
3223	0	27626	
3224	0	27684	
3225	0	27732	
3226	0	27760	
3227	0	27756	
3228	0	27742	
3229	0	27756	
3230	0	27744	
3231	0	27720	
3232	0	27722	
3233	0	27732	
3234	0	27754	
3235	0	27812	
3236	0	27852	
3237	0	27892	
3238	0	27988	
3239	0	28068	
3240	0	28108	
3241	0	28200	
3242	0	28276	
3243	0	28300	
3244	0	28348	
3245	0	28386	
3246	0	28396	
3247	0	28408	
3248	0	28416	
3249	0	28452	
3250	0	28480	
3251	0	28512	
3252	0	28532	
3253	0	28588	
3254	0	28608	
3255	0	28632	
3256	0	28700	
3257	0	28760	
3258	0	28800	
3259	0	28884	
3260	0	28960	
3261	0	29044	
3262	0	29128	
3263	0	29160	
3264	0	29184	
3265	0	29228	
3266	0	29320	
3267	0	29384	
3268	0	29418	
3269	0	29418	
3270	0	29440	
3271	0	29488	
3272	0	29520	
3273	0	29572	
3274	0	29692	
3275	0	29748	
3276	0	29728	
3277	0	29740	
3278	0	29800	
3279	0	29868	
3280	0	29952	
3281	0	30004	
3282	0	30032	
3283	0	30088	
3284	0	30124	
3285	0	30140	
3286	0	30164	
3287	0	30192	
3288	0	30220	
3289	0	30232	
3290	0	30210	
3291	0	30196	
3292	0	30208	
3293	0	30242	
3294	0	30284	
3295	0	30360	
3296	0	30420	
3297	0	30472	
3298	0	30560	
3299	0	30616	
3300	0	30632	
3301	0	30696	
3302	0	30762	
3303	0	30784	
3304	0	30816	
3305	0	30872	
3306	0	30892	
3307	0	30888	
3308	0	30864	
3309	0	30836	
3310	0	30844	
3311	0	30872	
3312	0	30920	
3313	0	30932	
3314	0	30920	
3315	0	30904	
3316	0	30924	
3317	0	31002	
3318	0	31096	
3319	0	31160	
3320	0	31196	
3321	0	31196	
3322	0	31210	
3323	0	31208	
3324	0	31216	
3325	0	31288	
3326	0	31348	
3327	0	31324	
3328	0	31300	
3329	0	31324	
3330	0	31336	
3331	0	31360	
3332	0	31364	
3333	0	31362	
3334	0	31368	
3335	0	31360	
3336	0	31416	
3337	0	31458	
3338	0	31496	
3339	0	31534	
3340	0	31560	
3341	0	31582	
3342	0	31596	
3343	0	31620	
3344	0	31624	
3345	0	31628	
3346	0	31636	
3347	0	31608	
3348	0	31600	
3349	0	31576	
3350	0	31536	
3351	0	31486	
3352	0	31464	
3353	0	31424	
3354	0	31384	
3355	0	31376	
3356	0	31372	
3357	0	31408	
3358	0	31458	
3359	0	31540	
3360	0	31604	
3361	0	31600	
3362	0	31588	
3363	0	31560	
3364	0	31552	
3365	0	31600	
3366	0	31612	
3367	0	31588	
3368	0	31536	
3369	0	31464	
3370	0	31408	
3371	0	31418	
3372	0	31400	
3373	0	31384	
3374	0	31396	
3375	0	31368	
3376	0	31360	
3377	0	31436	
3378	0	31492	
3379	0	31520	
3380	0	31520	
3381	0	31528	
3382	0	31552	
3383	0	31572	
3384	0	31560	
3385	0	31592	
3386	0	31600	
3387	0	31596	
3388	0	31580	
3389	0	31546	
3390	0	31524	
3391	0	31516	
3392	0	31520	
3393	0	31484	
3394	0	31472	
3395	0	31500	
3396	0	31544	
3397	0	31632	
3398	0	31696	
3399	0	31708	
3400	0	31724	
3401	0	31772	
3402	0	31786	
3403	0	31786	
3404	0	31794	
3405	0	31776	
3406	0	31772	
3407	0	31744	
3408	0	31696	
3409	0	31664	
3410	0	31642	
3411	0	31612	
3412	0	31584	
3413	0	31528	
3414	0	31548	
3415	0	31604	
3416	0	31648	
3417	0	31660	
3418	0	31640	
3419	0	31640	
3420	0	31668	
3421	0	31680	
3422	0	31732	
3423	0	31816	
3424	0	31856	
3425	0	31864	
3426	0	31852	
3427	0	31848	
3428	0	31832	
3429	0	31800	
3430	0	31780	
3431	0	31752	
3432	0	31744	
3433	0	31732	
3434	0	31768	
3435	0	31784	
3436	0	31752	
3437	0	31754	
3438	0	31800	
3439	0	31776	
3440	0	31808	
3441	0	31904	
3442	0	31976	
3443	0	31982	
3444	0	31972	
3445	0	31968	
3446	0	31960	
3447	0	31928	
3448	0	31946	
3449	0	31956	
3450	0	31944	
3451	0	31940	
3452	0	31900	
3453	0	31870	
3454	0	31888	
3455	0	31920	
3456	0	31936	
3457	0	31976	
3458	0	32012	
3459	0	32044	
3460	0	32056	
3461	0	32092	
3462	0	32128	
3463	0	32144	
3464	0	32184	
3465	0	32176	
3466	0	32176	
3467	0	32168	
3468	0	32180	
3469	0	32172	
3470	0	32152	
3471	0	32120	
3472	0	32096	
3473	0	32124	
3474	0	32128	
3475	0	32088	
3476	0	32076	
3477	0	32112	
3478	0	32148	
3479	0	32168	
3480	0	32208	
3481	0	32260	
3482	0	32296	
3483	0	32324	
3484	0	32320	
3485	0	32344	
3486	0	32360	
3487	0	32340	
3488	0	32328	
3489	0	32282	
3490	0	32268	
3491	0	32300	
3492	0	32302	
3493	0	32256	
3494	0	32232	
3495	0	32224	
3496	0	32256	
3497	0	32288	
3498	0	32332	
3499	0	32376	
3500	0	32384	
3501	0	32412	
3502	0	32456	
3503	0	32480	
3504	0	32532	
3505	0	32612	
3506	0	32636	
3507	0	32608	
3508	0	32544	
3509	0	32500	
3510	0	32512	
3511	0	32524	
3512	0	32552	
3513	0	32576	
3514	0	32592	
3515	0	32616	
3516	0	32616	
3517	0	32640	
3518	0	32720	
3519	0	32872	
3520	0	33000	
3521	0	33084	
3522	0	33132	
3523	0	33228	
3524	0	33360	
3525	0	33472	
3526	0	33536	
3527	0	33620	
3528	0	33650	
3529	0	33628	
3530	0	33600	
3531	0	33578	
3532	0	33564	
3533	0	33556	
3534	0	33496	
3535	0	33428	
3536	0	33348	
3537	0	33272	
3538	0	33260	
3539	0	33284	
3540	0	33312	
3541	0	33368	
3542	0	33476	
3543	0	33580	
3544	0	33704	
3545	0	33828	
3546	0	34016	
3547	0	34316	
3548	0	34612	
3549	0	34896	
3550	0	35100	
3551	0	35232	
3552	0	35324	
3553	0	35424	
3554	0	35564	
3555	0	35656	
3556	0	35740	
3557	0	35740	
3558	0	35696	
3559	0	35632	
3560	0	35556	
3561	0	35440	
3562	0	35340	
3563	0	35288	
3564	0	35264	
3565	0	35188	
3566	0	34996	
3567	0	34792	
3568	0	34616	
3569	0	34468	
3570	0	34316	
3571	0	34176	
3572	0	34032	
3573	0	33932	
3574	0	33832	
3575	0	33704	
3576	0	33616	
3577	0	33556	
3578	0	33488	
3579	0	33472	
3580	0	33468	
3581	0	33448	
3582	0	33360	
3583	0	33288	
3584	0	33208	
3585	0	33172	
3586	0	33108	
3587	0	33032	
3588	0	32920	
3589	0	32794	
3590	0	32684	
3591	0	32628	
3592	0	32588	
3593	0	32538	
3594	0	32444	
3595	0	32352	
3596	0	32276	
3597	0	32192	
3598	0	32040	
3599	0	31904	
3600	0	31840	
3601	0	31796	
3602	0	31778	
3603	0	31776	
3604	0	31784	
3605	0	31796	
3606	0	31808	
3607	0	31820	
3608	0	31786	
3609	0	31736	
3610	0	31688	
3611	0	31656	
3612	0	31608	
3613	0	31612	
3614	0	31612	
3615	0	31600	
3616	0	31604	
3617	0	31620	
3618	0	31672	
3619	0	31736	
3620	0	31780	
3621	0	31846	
3622	0	31936	
3623	0	31992	
3624	0	32042	
3625	0	32036	
3626	0	32020	
3627	0	32008	
3628	0	32004	
3629	0	32000	
3630	0	31960	
3631	0	31932	
3632	0	31948	
3633	0	31980	
3634	0	32002	
3635	0	32004	
3636	0	32042	
3637	0	32092	
3638	0	32136	
3639	0	32188	
3640	0	32224	
3641	0	32246	
3642	0	32240	
3643	0	32172	
3644	0	32088	
3645	0	31960	
3646	0	31692	
3647	0	31248	
3648	0	30668	
3649	0	29988	
3650	0	29448	
3651	0	29060	
3652	0	28856	
3653	0	28888	
3654	0	29132	
3655	0	29548	
3656	0	30130	
3657	0	30864	
3658	0	31840	
3659	0	33088	
3660	0	34448	
3661	0	35928	
3662	0	37508	
3663	0	39156	
3664	0	41116	
3665	0	43300	
3666	0	45808	
3667	0	48680	
3668	0	51584	
3669	0	54392	
3670	0	57184	
3671	0	59908	
3672	0	62472	
3673	0	63936	
3674	0	64708	
3675	0	65016	
3676	0	65148	
3677	0	65164	
3678	0	65096	
3679	0	65012	
3680	0	64904	
3681	0	64792	
3682	0	63720	
3683	0	58336	
3684	0	53696	
3685	0	49808	
3686	0	46504	
3687	0	43656	
3688	0	41168	
3689	0	38884	
3690	0	36832	
3691	0	35084	
3692	0	33596	
3693	0	32336	
3694	0	31266	
3695	0	30352	
3696	0	29604	
3697	0	29114	
3698	0	28780	
3699	0	28554	
3700	0	28520	
3701	0	28558	
3702	0	28512	
3703	0	28304	
3704	0	28056	
3705	0	27864	
3706	0	27741	
3707	0	27684	
3708	0	27760	
3709	0	27948	
3710	0	28120	
3711	0	28268	
3712	0	28432	
3713	0	28584	
3714	0	28712	
3715	0	28816	
3716	0	28924	
3717	0	28976	
3718	0	29012	
3719	0	29040	
3720	0	29048	
3721	0	29100	
3722	0	29128	
3723	0	29120	
3724	0	29124	
3725	0	29148	
3726	0	29168	
3727	0	29134	
3728	0	29056	
3729	0	29008	
3730	0	28972	
3731	0	28936	
3732	0	28952	
3733	0	28976	
3734	0	29024	
3735	0	29084	
3736	0	29128	
3737	0	29136	
3738	0	29184	
3739	0	29258	
3740	0	29348	
3741	0	29408	
3742	0	29480	
3743	0	29556	
3744	0	29596	
3745	0	29600	
3746	0	29624	
3747	0	29672	
3748	0	29728	
3749	0	29720	
3750	0	29732	
3751	0	29776	
3752	0	29776	
3753	0	29788	
3754	0	29812	
3755	0	29848	
3756	0	29908	
3757	0	29984	
3758	0	30100	
3759	0	30196	
3760	0	30260	
3761	0	30368	
3762	0	30492	
3763	0	30524	
3764	0	30524	
3765	0	30532	
3766	0	30612	
3767	0	30684	
3768	0	30724	
3769	0	30780	
3770	0	30776	
3771	0	30732	
3772	0	30724	
3773	0	30780	
3774	0	30812	
3775	0	30840	
3776	0	30874	
3777	0	30986	
3778	0	31104	
3779	0	31172	
3780	0	31200	
3781	0	31256	
3782	0	31280	
3783	0	31344	
3784	0	31380	
3785	0	31432	
3786	0	31490	
3787	0	31536	
3788	0	31560	
3789	0	31564	
3790	0	31544	
3791	0	31544	
3792	0	31572	
3793	0	31620	
3794	0	31680	
3795	0	31734	
3796	0	31816	
3797	0	31868	
3798	0	31888	
3799	0	31952	
3800	0	32008	
3801	0	32068	
3802	0	32144	
3803	0	32224	
3804	0	32282	
3805	0	32380	
3806	0	32416	
3807	0	32464	
3808	0	32514	
3809	0	32516	
3810	0	32480	
3811	0	32464	
3812	0	32472	
3813	0	32448	
3814	0	32464	
3815	0	32544	
3816	0	32644	
3817	0	32748	
3818	0	32812	
3819	0	32868	
3820	0	32912	
3821	0	32940	
3822	0	32984	
3823	0	33016	
3824	0	33112	
3825	0	33256	
3826	0	33344	
3827	0	33376	
3828	0	33392	
3829	0	33392	
3830	0	33436	
3831	0	33464	
3832	0	33500	
3833	0	33592	
3834	0	33696	
3835	0	33720	
3836	0	33732	
3837	0	33832	
3838	0	33952	
3839	0	34064	
3840	0	34144	
3841	0	34216	
3842	0	34320	
3843	0	34424	
3844	0	34472	
3845	0	34552	
3846	0	34648	
3847	0	34784	
3848	0	34900	
3849	0	34932	
3850	0	34916	
3851	0	34916	
3852	0	34942	
3853	0	35004	
3854	0	35056	
3855	0	35156	
3856	0	35264	
3857	0	35392	
3858	0	35496	
3859	0	35608	
3860	0	35728	
3861	0	35864	
3862	0	36008	
3863	0	36160	
3864	0	36280	
3865	0	36400	
3866	0	36512	
3867	0	36620	
3868	0	36696	
3869	0	36768	
3870	0	36836	
3871	0	36898	
3872	0	36968	
3873	0	37018	
3874	0	37120	
3875	0	37172	
3876	0	37208	
3877	0	37328	
3878	0	37464	
3879	0	37600	
3880	0	37760	
3881	0	37904	
3882	0	38064	
3883	0	38184	
3884	0	38240	
3885	0	38288	
3886	0	38308	
3887	0	38328	
3888	0	38380	
3889	0	38426	
3890	0	38464	
3891	0	38508	
3892	0	38564	
3893	0	38624	
3894	0	38680	
3895	0	38728	
3896	0	38780	
3897	0	38816	
3898	0	38820	
3899	0	38860	
3900	0	38924	
3901	0	39000	
3902	0	39036	
3903	0	39064	
3904	0	39124	
3905	0	39128	
3906	0	39112	
3907	0	39028	
3908	0	38984	
3909	0	38968	
3910	0	38944	
3911	0	38896	
3912	0	38844	
3913	0	38800	
3914	0	38720	
3915	0	38644	
3916	0	38644	
3917	0	38668	
3918	0	38652	
3919	0	38548	
3920	0	38432	
3921	0	38344	
3922	0	38280	
3923	0	38172	
3924	0	38014	
3925	0	37808	
3926	0	37564	
3927	0	37324	
3928	0	37068	
3929	0	36816	
3930	0	36576	
3931	0	36288	
3932	0	35980	
3933	0	35702	
3934	0	35424	
3935	0	35176	
3936	0	34892	
3937	0	34636	
3938	0	34360	
3939	0	34124	
3940	0	33920	
3941	0	33672	
3942	0	33424	
3943	0	33188	
3944	0	32952	
3945	0	32712	
3946	0	32428	
3947	0	32128	
3948	0	31848	
3949	0	31608	
3950	0	31372	
3951	0	31156	
3952	0	30888	
3953	0	30600	
3954	0	30344	
3955	0	30108	
3956	0	29900	
3957	0	29716	
3958	0	29584	
3959	0	29508	
3960	0	29380	
3961	0	29240	
3962	0	29132	
3963	0	28992	
3964	0	28876	
3965	0	28784	
3966	0	28680	
3967	0	28556	
3968	0	28420	
3969	0	28284	
3970	0	28176	
3971	0	28080	
3972	0	27980	
3973	0	27916	
3974	0	27888	
3975	0	27856	
3976	0	27842	
3977	0	27808	
3978	0	27800	
3979	0	27792	
3980	0	27812	
3981	0	27824	
3982	0	27792	
3983	0	27796	
3984	0	27832	
3985	0	27856	
3986	0	27832	
3987	0	27796	
3988	0	27742	
3989	0	27708	
3990	0	27680	
3991	0	27632	
3992	0	27588	
3993	0	27558	
3994	0	27572	
3995	0	27628	
3996	0	27636	
3997	0	27636	
3998	0	27684	
3999	0	27772	
4000	0	27816	
4001	0	27880	
4002	0	27948	
4003	0	27976	
4004	0	28016	
4005	0	28036	
4006	0	28056	
4007	0	28092	
4008	0	28112	
4009	0	28052	
4010	0	28048	
4011	0	28058	
4012	0	28036	
4013	0	28080	
4014	0	28136	
4015	0	28176	
4016	0	28224	
4017	0	28264	
4018	0	28320	
4019	0	28412	
4020	0	28480	
4021	0	28534	
4022	0	28602	
4023	0	28684	
4024	0	28752	
4025	0	28840	
4026	0	28908	
4027	0	28928	
4028	0	28898	
4029	0	28868	
4030	0	28892	
4031	0	28912	
4032	0	28860	
4033	0	28800	
4034	0	28816	
4035	0	28864	
4036	0	28932	
4037	0	29064	
4038	0	29164	
4039	0	29204	
4040	0	29252	
4041	0	29304	
4042	0	29392	
4043	0	29496	
4044	0	29560	
4045	0	29592	
4046	0	29564	
4047	0	29552	
4048	0	29524	
4049	0	29540	
4050	0	29554	
4051	0	29530	
4052	0	29556	
4053	0	29610	
4054	0	29644	
4055	0	29696	
4056	0	29744	
4057	0	29780	
4058	0	29856	
4059	0	29988	
4060	0	30092	
4061	0	30146	
4062	0	30200	
4063	0	30228	
4064	0	30302	
4065	0	30360	
4066	0	30408	
4067	0	30388	
4068	0	30352	
4069	0	30304	
4070	0	30264	
4071	0	30272	
4072	0	30284	
4073	0	30300	
4074	0	30340	
4075	0	30444	
4076	0	30484	
4077	0	30504	
4078	0	30540	
4079	0	30584	
4080	0	30620	
4081	0	30680	
4082	0	30752	
4083	0	30828	
4084	0	30918	
4085	0	30984	
4086	0	30976	
4087	0	30950	
4088	0	30904	
4089	0	30880	
4090	0	30912	
4091	0	30936	
4092	0	30920	
4093	0	30868	
4094	0	30856	
4095	0	30872	
4096	0	30912	
4097	0	30944	
4098	0	30964	
4099	0	31000	
4100	0	31042	
4101	0	31076	
4102	0	31136	
4103	0	31168	
4104	0	31216	
4105	0	31272	
4106	0	31322	
4107	0	31356	
4108	0	31344	
4109	0	31384	
4110	0	31376	
4111	0	31272	
4112	0	31236	
4113	0	31208	
4114	0	31220	
4115	0	31240	
4116	0	31260	
4117	0	31292	
4118	0	31332	
4119	0	31392	
4120	0	31452	
4121	0	31492	
4122	0	31512	
4123	0	31520	
4124	0	31496	
4125	0	31504	
4126	0	31536	
4127	0	31576	
4128	0	31608	
4129	0	31600	
4130	0	31588	
4131	0	31576	
4132	0	31566	
4133	0	31592	
4134	0	31548	
4135	0	31496	
4136	0	31512	
4137	0	31556	
4138	0	31604	
4139	0	31640	
4140	0	31664	
4141	0	31696	
4142	0	31732	
4143	0	31820	
4144	0	31824	
4145	0	31808	
4146	0	31792	
4147	0	31752	
4148	0	31696	
4149	0	31688	
4150	0	31656	
4151	0	31612	
4152	0	31584	
4153	0	31564	
4154	0	31576	
4155	0	31586	
4156	0	31612	
4157	0	31616	
4158	0	31636	
4159	0	31712	
4160	0	31792	
4161	0	31824	
4162	0	31856	
4163	0	31896	
4164	0	31940	
4165	0	31948	
4166	0	31944	
4167	0	31920	
4168	0	31936	
4169	0	31944	
4170	0	31976	
4171	0	31980	
4172	0	31900	
4173	0	31816	
4174	0	31776	
4175	0	31768	
4176	0	31794	
4177	0	31836	
4178	0	31876	
4179	0	31912	
4180	0	31936	
4181	0	31968	
4182	0	32024	
4183	0	32036	
4184	0	32024	
4185	0	32024	
4186	0	32056	
4187	0	32016	
4188	0	32012	
4189	0	31972	
4190	0	31948	
4191	0	31912	
4192	0	31916	
4193	0	31896	
4194	0	31868	
4195	0	31856	
4196	0	31856	
4197	0	31888	
4198	0	31960	
4199	0	32030	
4200	0	32052	
4201	0	32056	
4202	0	32104	
4203	0	32168	
4204	0	32212	
4205	0	32220	
4206	0	32184	
4207	0	32180	
4208	0	32152	
4209	0	32104	
4210	0	32084	
4211	0	32060	
4212	0	32032	
4213	0	32032	
4214	0	32048	
4215	0	32032	
4216	0	32028	
4217	0	32024	
4218	0	32068	
4219	0	32104	
4220	0	32128	
4221	0	32172	
4222	0	32284	
4223	0	32396	
4224	0	32428	
4225	0	32456	
4226	0	32428	
4227	0	32388	
4228	0	32344	
4229	0	32288	
4230	0	32256	
4231	0	32264	
4232	0	32288	
4233	0	32264	
4234	0	32196	
4235	0	32148	
4236	0	32088	
4237	0	32092	
4238	0	32108	
4239	0	32180	
4240	0	32280	
4241	0	32352	
4242	0	32378	
4243	0	32396	
4244	0	32420	
4245	0	32444	
4246	0	32412	
4247	0	32408	
4248	0	32372	
4249	0	32344	
4250	0	32268	
4251	0	32204	
4252	0	32200	
4253	0	32232	
4254	0	32280	
4255	0	32320	
4256	0	32300	
4257	0	32300	
4258	0	32324	
4259	0	32336	
4260	0	32368	
4261	0	32388	
4262	0	32392	
4263	0	32408	
4264	0	32448	
4265	0	32474	
4266	0	32480	
4267	0	32428	
4268	0	32460	
4269	0	32492	
4270	0	32464	
4271	0	32440	
4272	0	32424	
4273	0	32426	
4274	0	32432	
4275	0	32472	
4276	0	32480	
4277	0	32504	
4278	0	32476	
4279	0	32508	
4280	0	32506	
4281	0	32504	
4282	0	32520	
4283	0	32540	
4284	0	32596	
4285	0	32616	
4286	0	32620	
4287	0	32592	
4288	0	32592	
4289	0	32568	
4290	0	32576	
4291	0	32584	
4292	0	32572	
4293	0	32572	
4294	0	32616	
4295	0	32644	
4296	0	32660	
4297	0	32676	
4298	0	32692	
4299	0	32736	
4300	0	32800	
4301	0	32832	
4302	0	32858	
4303	0	32886	
4304	0	32882	
4305	0	32888	
4306	0	32908	
4307	0	32920	
4308	0	32868	
4309	0	32820	
4310	0	32780	
4311	0	32700	
4312	0	32700	
4313	0	32704	
4314	0	32680	
4315	0	32680	
4316	0	32704	
4317	0	32728	
4318	0	32820	
4319	0	32864	
4320	0	32872	
4321	0	32872	
4322	0	32896	
4323	0	32920	
4324	0	32944	
4325	0	32976	
4326	0	32952	
4327	0	32920	
4328	0	32920	
4329	0	32916	
4330	0	32948	
4331	0	32940	
4332	0	32928	
4333	0	32944	
4334	0	32944	
4335	0	32964	
4336	0	32952	
4337	0	32952	
4338	0	33006	
4339	0	33116	
4340	0	33248	
4341	0	33344	
4342	0	33444	
4343	0	33480	
4344	0	33524	
4345	0	33592	
4346	0	33652	
4347	0	33692	
4348	0	33716	
4349	0	33704	
4350	0	33692	
4351	0	33712	
4352	0	33732	
4353	0	33696	
4354	0	33632	
4355	0	33576	
4356	0	33532	
4357	0	33504	
4358	0	33484	
4359	0	33476	
4360	0	33520	
4361	0	33624	
4362	0	33700	
4363	0	33768	
4364	0	33888	
4365	0	34020	
4366	0	34126	
4367	0	34304	
4368	0	34464	
4369	0	34644	
4370	0	34864	
4371	0	35040	
4372	0	35184	
4373	0	35344	
4374	0	35556	
4375	0	35752	
4376	0	35856	
4377	0	35936	
4378	0	35940	
4379	0	35920	
4380	0	35904	
4381	0	35840	
4382	0	35760	
4383	0	35704	
4384	0	35600	
4385	0	35482	
4386	0	35284	
4387	0	35052	
4388	0	34856	
4389	0	34656	
4390	0	34476	
4391	0	34312	
4392	0	34176	
4393	0	34096	
4394	0	34012	
4395	0	33868	
4396	0	33784	
4397	0	33752	
4398	0	33712	
4399	0	33688	
4400	0	33632	
4401	0	33520	
4402	0	33400	
4403	0	33296	
4404	0	33248	
4405	0	33208	
4406	0	33208	
4407	0	33200	
4408	0	33120	
4409	0	33024	
4410	0	32912	
4411	0	32816	
4412	0	32728	
4413	0	32632	
4414	0	32528	
4415	0	32448	
4416	0	32380	
4417	0	32280	
4418	0	32160	
4419	0	32068	
4420	0	31992	
4421	0	31952	
4422	0	31912	
4423	0	31872	
4424	0	31840	
4425	0	31868	
4426	0	31908	
4427	0	31920	
4428	0	31896	
4429	0	31904	
4430	0	31912	
4431	0	31920	
4432	0	31912	
4433	0	31880	
4434	0	31888	
4435	0	31860	
4436	0	31840	
4437	0	31848	
4438	0	31878	
4439	0	31896	
4440	0	31936	
4441	0	31992	
4442	0	32088	
4443	0	32148	
4444	0	32176	
4445	0	32224	
4446	0	32212	
4447	0	32180	
4448	0	32140	
4449	0	32128	
4450	0	32076	
4451	0	32040	
4452	0	32004	
4453	0	32008	
4454	0	32032	
4455	0	32080	
4456	0	32108	
4457	0	32152	
4458	0	32192	
4459	0	32260	
4460	0	32296	
4461	0	32298	
4462	0	32296	
4463	0	32276	
4464	0	32208	
4465	0	32076	
4466	0	31852	
4467	0	31456	
4468	0	30872	
4469	0	30192	
4470	0	29566	
4471	0	29104	
4472	0	28856	
4473	0	28848	
4474	0	29012	
4475	0	29332	
4476	0	29836	
4477	0	30500	
4478	0	31440	
4479	0	32608	
4480	0	33946	
4481	0	35388	
4482	0	36888	
4483	0	38416	
4484	0	40244	
4485	0	42424	
4486	0	44896	
4487	0	47800	
4488	0	50804	
4489	0	53764	
4490	0	56600	
4491	0	59420	
4492	0	62072	
4493	0	63664	
4494	0	64460	
4495	0	64860	
4496	0	64986	
4497	0	65016	
4498	0	64960	
4499	0	64872	
4500	0	64776	
4501	0	64648	
4502	0	64536	
4503	0	60484	
4504	0	55672	
4505	0	51640	
4506	0	48268	
4507	0	45344	
4508	0	42820	
4509	0	40492	
4510	0	38354	
4511	0	36508	
4512	0	34868	
4513	0	33464	
4514	0	32260	
4515	0	31252	
4516	0	30352	
4517	0	29724	
4518	0	29284	
4519	0	28992	
4520	0	28868	
4521	0	28824	
4522	0	28744	
4523	0	28520	
4524	0	28312	
4525	0	28128	
4526	0	28000	
4527	0	27902	
4528	0	27932	
4529	0	28076	
4530	0	28268	
4531	0	28448	
4532	0	28608	
4533	0	28782	
4534	0	28896	
4535	0	29004	
4536	0	29086	
4537	0	29120	
4538	0	29124	
4539	0	29128	
4540	0	29148	
4541	0	29156	
4542	0	29192	
4543	0	29248	
4544	0	29300	
4545	0	29306	
4546	0	29308	
4547	0	29268	
4548	0	29256	
4549	0	29224	
4550	0	29212	
4551	0	29216	
4552	0	29232	
4553	0	29236	
4554	0	29232	
4555	0	29216	
4556	0	29256	
4557	0	29316	
4558	0	29384	
4559	0	29444	
4560	0	29504	
4561	0	29576	
4562	0	29648	
4563	0	29712	
4564	0	29732	
4565	0	29720	
4566	0	29728	
4567	0	29748	
4568	0	29748	
4569	0	29780	
4570	0	29804	
4571	0	29820	
4572	0	29860	
4573	0	29888	
4574	0	29984	
4575	0	30076	
4576	0	30136	
4577	0	30160	
4578	0	30188	
4579	0	30272	
4580	0	30356	
4581	0	30440	
4582	0	30508	
4583	0	30628	
4584	0	30712	
4585	0	30744	
4586	0	30756	
4587	0	30804	
4588	0	30832	
4589	0	30804	
4590	0	30788	
4591	0	30768	
4592	0	30760	
4593	0	30768	
4594	0	30816	
4595	0	30856	
4596	0	30904	
4597	0	30952	
4598	0	31064	
4599	0	31156	
4600	0	31208	
4601	0	31296	
4602	0	31408	
4603	0	31476	
4604	0	31536	
4605	0	31584	
4606	0	31612	
4607	0	31628	
4608	0	31652	
4609	0	31646	
4610	0	31676	
4611	0	31686	
4612	0	31688	
4613	0	31700	
4614	0	31708	
4615	0	31738	
4616	0	31776	
4617	0	31836	
4618	0	31906	
4619	0	31984	
4620	0	32056	
4621	0	32104	
4622	0	32176	
4623	0	32220	
4624	0	32260	
4625	0	32344	
4626	0	32384	
4627	0	32392	
4628	0	32376	
4629	0	32432	
4630	0	32464	
4631	0	32480	
4632	0	32512	
4633	0	32524	
4634	0	32576	
4635	0	32604	
4636	0	32652	
4637	0	32720	
4638	0	32788	
4639	0	32868	
4640	0	32936	
4641	0	33024	
4642	0	33148	
4643	0	33256	
4644	0	33360	
4645	0	33424	
4646	0	33420	
4647	0	33422	
4648	0	33456	
4649	0	33444	
4650	0	33480	
4651	0	33580	
4652	0	33640	
4653	0	33720	
4654	0	33792	
4655	0	33804	
4656	0	33836	
4657	0	33888	
4658	0	33976	
4659	0	34092	
4660	0	34196	
4661	0	34302	
4662	0	34364	
4663	0	34424	
4664	0	34492	
4665	0	34596	
4666	0	34674	
4667	0	34712	
4668	0	34730	
4669	0	34784	
4670	0	34888	
4671	0	34964	
4672	0	35008	
4673	0	35104	
4674	0	35184	
4675	0	35272	
4676	0	35352	
4677	0	35428	
4678	0	35546	
4679	0	35674	
4680	0	35776	
4681	0	35864	
4682	0	35948	
4683	0	36032	
4684	0	36128	
4685	0	36204	
4686	0	36288	
4687	0	36384	
4688	0	36464	
4689	0	36572	
4690	0	36648	
4691	0	36720	
4692	0	36768	
4693	0	36888	
4694	0	36988	
4695	0	37116	
4696	0	37240	
4697	0	37360	
4698	0	37504	
4699	0	37652	
4700	0	37776	
4701	0	37900	
4702	0	37992	
4703	0	38072	
4704	0	38136	
4705	0	38248	
4706	0	38382	
4707	0	38440	
4708	0	38464	
4709	0	38492	
4710	0	38500	
4711	0	38508	
4712	0	38556	
4713	0	38628	
4714	0	38700	
4715	0	38744	
4716	0	38772	
4717	0	38824	
4718	0	38872	
4719	0	38928	
4720	0	38944	
4721	0	38960	
4722	0	38976	
4723	0	39000	
4724	0	39048	
4725	0	39116	
4726	0	39156	
4727	0	39152	
4728	0	39120	
4729	0	39060	
4730	0	38976	
4731	0	38924	
4732	0	38872	
4733	0	38824	
4734	0	38816	
4735	0	38792	
4736	0	38756	
4737	0	38752	
4738	0	38668	
4739	0	38592	
4740	0	38480	
4741	0	38360	
4742	0	38272	
4743	0	38172	
4744	0	38048	
4745	0	37920	
4746	0	37748	
4747	0	37536	
4748	0	37280	
4749	0	37012	
4750	0	36736	
4751	0	36472	
4752	0	36178	
4753	0	35888	
4754	0	35616	
4755	0	35370	
4756	0	35084	
4757	0	34760	
4758	0	34520	
4759	0	34304	
4760	0	34084	
4761	0	33856	
4762	0	33656	
4763	0	33472	
4764	0	33192	
4765	0	32908	
4766	0	32632	
4767	0	32356	
4768	0	32066	
4769	0	31808	
4770	0	31536	
4771	0	31288	
4772	0	31036	
4773	0	30764	
4774	0	30492	
4775	0	30248	
4776	0	30024	
4777	0	29848	
4778	0	29712	
4779	0	29608	
4780	0	29472	
4781	0	29340	
4782	0	29244	
4783	0	29092	
4784	0	28962	
4785	0	28860	
4786	0	28746	
4787	0	28592	
4788	0	28416	
4789	0	28264	
4790	0	28128	
4791	0	28048	
4792	0	27952	
4793	0	27848	
4794	0	27760	
4795	0	27672	
4796	0	27616	
4797	0	27584	
4798	0	27564	
4799	0	27544	
4800	0	27506	
4801	0	27480	
4802	0	27452	
4803	0	27432	
4804	0	27392	
4805	0	27396	
4806	0	27380	
4807	0	27336	
4808	0	27330	
4809	0	27314	
4810	0	27296	
4811	0	27272	
4812	0	27236	
4813	0	27252	
4814	0	27314	
4815	0	27360	
4816	0	27340	
4817	0	27384	
4818	0	27416	
4819	0	27444	
4820	0	27492	
4821	0	27576	
4822	0	27676	
4823	0	27714	
4824	0	27784	
4825	0	27840	
4826	0	27808	
4827	0	27792	
4828	0	27796	
4829	0	27804	
4830	0	27818	
4831	0	27826	
4832	0	27804	
4833	0	27770	
4834	0	27772	
4835	0	27792	
4836	0	27816	
4837	0	27860	
4838	0	27962	
4839	0	28092	
4840	0	28180	
4841	0	28260	
4842	0	28356	
4843	0	28428	
4844	0	28488	
4845	0	28488	
4846	0	28486	
4847	0	28484	
4848	0	28524	
4849	0	28568	
4850	0	28636	
4851	0	28664	
4852	0	28672	
4853	0	28680	
4854	0	28692	
4855	0	28768	
4856	0	28818	
4857	0	28880	
4858	0	28956	
4859	0	29012	
4860	0	29096	
4861	0	29176	
4862	0	29244	
4863	0	29300	
4864	0	29388	
4865	0	29444	
4866	0	29434	
4867	0	29464	
4868	0	29436	
4869	0	29436	
4870	0	29448	
4871	0	29470	
4872	0	29488	
4873	0	29536	
4874	0	29596	
4875	0	29668	
4876	0	29672	
4877	0	29680	
4878	0	29736	
4879	0	29804	
4880	0	29860	
4881	0	29892	
4882	0	29940	
4883	0	30008	
4884	0	30080	
4885	0	30132	
4886	0	30160	
4887	0	30176	
4888	0	30186	
4889	0	30168	
4890	0	30164	
4891	0	30188	
4892	0	30224	
4893	0	30232	
4894	0	30240	
4895	0	30308	
4896	0	30320	
4897	0	30312	
4898	0	30324	
4899	0	30380	
4900	0	30444	
4901	0	30512	
4902	0	30576	
4903	0	30608	
4904	0	30632	
4905	0	30658	
4906	0	30692	
4907	0	30740	
4908	0	30760	
4909	0	30776	
4910	0	30810	
4911	0	30824	
4912	0	30820	
4913	0	30844	
4914	0	30868	
4915	0	30928	
4916	0	30954	
4917	0	30968	
4918	0	30996	
4919	0	31076	
4920	0	31144	
4921	0	31204	
4922	0	31264	
4923	0	31320	
4924	0	31384	
4925	0	31412	
4926	0	31420	
4927	0	31388	
4928	0	31388	
4929	0	31396	
4930	0	31404	
4931	0	31360	
4932	0	31336	
4933	0	31324	
4934	0	31352	
4935	0	31384	
4936	0	31448	
4937	0	31488	
4938	0	31528	
4939	0	31552	
4940	0	31564	
4941	0	31540	
4942	0	31564	
4943	0	31608	
4944	0	31624	
4945	0	31612	
4946	0	31648	
4947	0	31708	
4948	0	31692	
4949	0	31652	
4950	0	31620	
4951	0	31600	
4952	0	31604	
4953	0	31608	
4954	0	31564	
4955	0	31506	
4956	0	31544	
4957	0	31584	
4958	0	31620	
4959	0	31652	
4960	0	31648	
4961	0	31656	
4962	0	31680	
4963	0	31716	
4964	0	31744	
4965	0	31760	
4966	0	31736	
4967	0	31688	
4968	0	31620	
4969	0	31608	
4970	0	31616	
4971	0	31616	
4972	0	31580	
4973	0	31536	
4974	0	31512	
4975	0	31520	
4976	0	31540	
4977	0	31568	
4978	0	31628	
4979	0	31680	
4980	0	31664	
4981	0	31676	
4982	0	31696	
4983	0	31712	
4984	0	31776	
4985	0	31808	
4986	0	31780	
4987	0	31784	
4988	0	31796	
4989	0	31764	
4990	0	31720	
4991	0	31636	
4992	0	31552	
4993	0	31480	
4994	0	31420	
4995	0	31392	
4996	0	31428	
4997	0	31492	
4998	0	31560	
4999	0	31642	
5000	0	31682	
5001	0	31644	
5002	0	31658	
5003	0	31660	
5004	0	31656	
5005	0	31664	
5006	0	31724	
5007	0	31796	
5008	0	31848	
5009	0	31848	
5010	0	31808	
5011	0	31720	
5012	0	31660	
5013	0	31640	
5014	0	31620	
5015	0	31656	
5016	0	31680	
5017	0	31700	
5018	0	31724	
5019	0	31800	
5020	0	31890	
5021	0	31936	
5022	0	31996	
5023	0	32026	
5024	0	32058	
5025	0	32028	
5026	0	31968	
5027	0	31904	
5028	0	31840	
5029	0	31812	
5030	0	31776	
5031	0	31776	
5032	0	31758	
5033	0	31764	
5034	0	31776	
5035	0	31800	
5036	0	31824	
5037	0	31860	
5038	0	31864	
5039	0	31916	
5040	0	31952	
5041	0	31984	
5042	0	31976	
5043	0	31984	
5044	0	32026	
5045	0	32076	
5046	0	32116	
5047	0	32124	
5048	0	32136	
5049	0	32122	
5050	0	32104	
5051	0	32064	
5052	0	32004	
5053	0	31924	
5054	0	31868	
5055	0	31888	
5056	0	31952	
5057	0	31968	
5058	0	32024	
5059	0	32028	
5060	0	32044	
5061	0	32092	
5062	0	32130	
5063	0	32156	
5064	0	32192	
5065	0	32194	
5066	0	32168	
5067	0	32160	
5068	0	32176	
5069	0	32194	
5070	0	32200	
5071	0	32144	
5072	0	32078	
5073	0	32052	
5074	0	32024	
5075	0	32024	
5076	0	32048	
5077	0	32064	
5078	0	32080	
5079	0	32144	
5080	0	32204	
5081	0	32252	
5082	0	32284	
5083	0	32288	
5084	0	32266	
5085	0	32268	
5086	0	32248	
5087	0	32212	
5088	0	32194	
5089	0	32180	
5090	0	32168	
5091	0	32192	
5092	0	32200	
5093	0	32224	
5094	0	32232	
5095	0	32244	
5096	0	32216	
5097	0	32204	
5098	0	32192	
5099	0	32248	
5100	0	32344	
5101	0	32388	
5102	0	32436	
5103	0	32472	
5104	0	32480	
5105	0	32462	
5106	0	32416	
5107	0	32384	
5108	0	32332	
5109	0	32304	
5110	0	32290	
5111	0	32296	
5112	0	32304	
5113	0	32320	
5114	0	32352	
5115	0	32386	
5116	0	32384	
5117	0	32369	
5118	0	32384	
5119	0	32392	
5120	0	32390	
5121	0	32412	
5122	0	32468	
5123	0	32544	
5124	0	32556	
5125	0	32562	
5126	0	32548	
5127	0	32552	
5128	0	32524	
5129	0	32488	
5130	0	32472	
5131	0	32492	
5132	0	32524	
5133	0	32512	
5134	0	32464	
5135	0	32432	
5136	0	32412	
5137	0	32428	
5138	0	32480	
5139	0	32556	
5140	0	32608	
5141	0	32652	
5142	0	32684	
5143	0	32676	
5144	0	32692	
5145	0	32744	
5146	0	32704	
5147	0	32672	
5148	0	32688	
5149	0	32684	
5150	0	32624	
5151	0	32592	
5152	0	32604	
5153	0	32616	
5154	0	32610	
5155	0	32644	
5156	0	32656	
5157	0	32658	
5158	0	32708	
5159	0	32712	
5160	0	32748	
5161	0	32732	
5162	0	32708	
5163	0	32728	
5164	0	32732	
5165	0	32736	
5166	0	32748	
5167	0	32788	
5168	0	32802	
5169	0	32804	
5170	0	32832	
5171	0	32816	
5172	0	32848	
5173	0	32876	
5174	0	32920	
5175	0	32988	
5176	0	33060	
5177	0	33120	
5178	0	33192	
5179	0	33252	
5180	0	33352	
5181	0	33416	
5182	0	33464	
5183	0	33488	
5184	0	33524	
5185	0	33552	
5186	0	33548	
5187	0	33558	
5188	0	33540	
5189	0	33492	
5190	0	33424	
5191	0	33332	
5192	0	33244	
5193	0	33200	
5194	0	33160	
5195	0	33116	
5196	0	33128	
5197	0	33184	
5198	0	33236	
5199	0	33336	
5200	0	33472	
5201	0	33696	
5202	0	33952	
5203	0	34228	
5204	0	34528	
5205	0	34786	
5206	0	35012	
5207	0	35160	
5208	0	35280	
5209	0	35408	
5210	0	35588	
5211	0	35728	
5212	0	35828	
5213	0	35840	
5214	0	35792	
5215	0	35696	
5216	0	35586	
5217	0	35476	
5218	0	35380	
5219	0	35328	
5220	0	35288	
5221	0	35200	
5222	0	35040	
5223	0	34874	
5224	0	34756	
5225	0	34612	
5226	0	34445	
5227	0	34324	
5228	0	34204	
5229	0	34104	
5230	0	33936	
5231	0	33732	
5232	0	33592	
5233	0	33480	
5234	0	33352	
5235	0	33244	
5236	0	33232	
5237	0	33212	
5238	0	33128	
5239	0	33084	
5240	0	33058	
5241	0	33024	
5242	0	32986	
5243	0	32910	
5244	0	32840	
5245	0	32712	
5246	0	32616	
5247	0	32544	
5248	0	32448	
5249	0	32388	
5250	0	32264	
5251	0	32110	
5252	0	32004	
5253	0	31864	
5254	0	31712	
5255	0	31580	
5256	0	31528	
5257	0	31504	
5258	0	31488	
5259	0	31560	
5260	0	31640	
5261	0	31712	
5262	0	31772	
5263	0	31816	
5264	0	31844	
5265	0	31832	
5266	0	31824	
5267	0	31792	
5268	0	31772	
5269	0	31744	
5270	0	31706	
5271	0	31652	
5272	0	31620	
5273	0	31684	
5274	0	31750	
5275	0	31792	
5276	0	31816	
5277	0	31856	
5278	0	31912	
5279	0	31956	
5280	0	31996	
5281	0	32064	
5282	0	32160	
5283	0	32160	
5284	0	32132	
5285	0	32120	
5286	0	32112	
5287	0	32116	
5288	0	32132	
5289	0	32172	
5290	0	32164	
5291	0	32176	
5292	0	32168	
5293	0	32160	
5294	0	32176	
5295	0	32236	
5296	0	32304	
5297	0	32292	
5298	0	32236	
5299	0	32152	
5300	0	32004	
5301	0	31832	
5302	0	31505	
5303	0	31004	
5304	0	30324	
5305	0	29632	
5306	0	29124	
5307	0	28820	
5308	0	28704	
5309	0	28800	
5310	0	29068	
5311	0	29532	
5312	0	30120	
5313	0	30960	
5314	0	32036	
5315	0	33224	
5316	0	34592	
5317	0	36052	
5318	0	37564	
5319	0	39364	
5320	0	41604	
5321	0	44104	
5322	0	47044	
5323	0	50144	
5324	0	53264	
5325	0	56264	
5326	0	59188	
5327	0	61976	
5328	0	63656	
5329	0	64504	
5330	0	64920	
5331	0	65080	
5332	0	65112	
5333	0	65064	
5334	0	64984	
5335	0	64880	
5336	0	64760	
5337	0	64628	
5338	0	61264	
5339	0	56384	
5340	0	52376	
5341	0	48866	
5342	0	45840	
5343	0	43200	
5344	0	40828	
5345	0	38604	
5346	0	36688	
5347	0	34960	
5348	0	33372	
5349	0	31968	
5350	0	30840	
5351	0	29820	
5352	0	29056	
5353	0	28604	
5354	0	28352	
5355	0	28276	
5356	0	28252	
5357	0	28192	
5358	0	28036	
5359	0	27824	
5360	0	27704	
5361	0	27624	
5362	0	27618	
5363	0	27672	
5364	0	27784	
5365	0	27984	
5366	0	28228	
5367	0	28452	
5368	0	28660	
5369	0	28872	
5370	0	29024	
5371	0	29144	
5372	0	29204	
5373	0	29192	
5374	0	29208	
5375	0	29208	
5376	0	29204	
5377	0	29176	
5378	0	29140	
5379	0	29140	
5380	0	29150	
5381	0	29216	
5382	0	29280	
5383	0	29288	
5384	0	29296	
5385	0	29310	
5386	0	29314	
5387	0	29336	
5388	0	29284	
5389	0	29268	
5390	0	29264	
5391	0	29282	
5392	0	29290	
5393	0	29284	
5394	0	29288	
5395	0	29306	
5396	0	29340	
5397	0	29448	
5398	0	29544	
5399	0	29596	
5400	0	29644	
5401	0	29706	
5402	0	29804	
5403	0	29898	
5404	0	29976	
5405	0	30020	
5406	0	30056	
5407	0	30076	
5408	0	30100	
5409	0	30104	
5410	0	30088	
5411	0	30056	
5412	0	30016	
5413	0	30036	
5414	0	30096	
5415	0	30160	
5416	0	30220	
5417	0	30328	
5418	0	30428	
5419	0	30508	
5420	0	30564	
5421	0	30638	
5422	0	30728	
5423	0	30844	
5424	0	30964	
5425	0	30972	
5426	0	30944	
5427	0	30932	
5428	0	30964	
5429	0	31076	
5430	0	31160	
5431	0	31200	
5432	0	31228	
5433	0	31276	
5434	0	31350	
5435	0	31372	
5436	0	31384	
5437	0	31404	
5438	0	31448	
5439	0	31552	
5440	0	31592	
5441	0	31632	
5442	0	31684	
5443	0	31772	
5444	0	31844	
5445	0	31880	
5446	0	31852	
5447	0	31816	
5448	0	31796	
5449	0	31796	
5450	0	31796	
5451	0	31820	
5452	0	31840	
5453	0	31916	
5454	0	31972	
5455	0	31968	
5456	0	31988	
5457	0	32056	
5458	0	32204	
5459	0	32328	
5460	0	32404	
5461	0	32496	
5462	0	32616	
5463	0	32720	
5464	0	32792	
5465	0	32824	
5466	0	32860	
5467	0	32872	
5468	0	32872	
5469	0	32886	
5470	0	32888	
5471	0	32888	
5472	0	32900	
5473	0	32928	
5474	0	32916	
5475	0	32952	
5476	0	33044	
5477	0	33110	
5478	0	33136	
5479	0	33208	
5480	0	33284	
5481	0	33404	
5482	0	33492	
5483	0	33544	
5484	0	33544	
5485	0	33604	
5486	0	33720	
5487	0	33820	
5488	0	33888	
5489	0	33956	
5490	0	34040	
5491	0	34124	
5492	0	34188	
5493	0	34256	
5494	0	34324	
5495	0	34400	
5496	0	34420	
5497	0	34424	
5498	0	34504	
5499	0	34602	
5500	0	34728	
5501	0	34828	
5502	0	34904	
5503	0	34952	
5504	0	35040	
5505	0	35144	
5506	0	35288	
5507	0	35388	
5508	0	35424	
5509	0	35436	
5510	0	35512	
5511	0	35608	
5512	0	35648	
5513	0	35684	
5514	0	35744	
5515	0	35860	
5516	0	35984	
5517	0	36064	
5518	0	36176	
5519	0	36292	
5520	0	36460	
5521	0	36616	
5522	0	36720	
5523	0	36784	
5524	0	36888	
5525	0	37028	
5526	0	37120	
5527	0	37178	
5528	0	37248	
5529	0	37332	
5530	0	37408	
5531	0	37536	
5532	0	37640	
5533	0	37708	
5534	0	37804	
5535	0	37944	
5536	0	38088	
5537	0	38264	
5538	0	38376	
5539	0	38408	
5540	0	38488	
5541	0	38560	
5542	0	38640	
5543	0	38696	
5544	0	38728	
5545	0	38784	
5546	0	38820	
5547	0	38800	
5548	0	38800	
5549	0	38816	
5550	0	38848	
5551	0	38880	
5552	0	38944	
5553	0	38984	
5554	0	39024	
5555	0	39064	
5556	0	39138	
5557	0	39184	
5558	0	39216	
5559	0	39280	
5560	0	39296	
5561	0	39360	
5562	0	39392	
5563	0	39416	
5564	0	39404	
5565	0	39380	
5566	0	39340	
5567	0	39272	
5568	0	39192	
5569	0	39184	
5570	0	39148	
5571	0	39104	
5572	0	39004	
5573	0	38884	
5574	0	38752	
5575	0	38680	
5576	0	38636	
5577	0	38632	
5578	0	38552	
5579	0	38380	
5580	0	38192	
5581	0	38012	
5582	0	37908	
5583	0	37772	
5584	0	37592	
5585	0	37408	
5586	0	37176	
5587	0	36920	
5588	0	36664	
5589	0	36428	
5590	0	36130	
5591	0	35792	
5592	0	35480	
5593	0	35128	
5594	0	34824	
5595	0	34576	
5596	0	34370	
5597	0	34112	
5598	0	33828	
5599	0	33616	
5600	0	33408	
5601	0	33176	
5602	0	33000	
5603	0	32798	
5604	0	32576	
5605	0	32316	
5606	0	32040	
5607	0	31792	
5608	0	31524	
5609	0	31232	
5610	0	30996	
5611	0	30776	
5612	0	30560	
5613	0	30380	
5614	0	30176	
5615	0	30008	
5616	0	29884	
5617	0	29760	
5618	0	29588	
5619	0	29434	
5620	0	29288	
5621	0	29162	
5622	0	29032	
5623	0	28940	
5624	0	28832	
5625	0	28744	
5626	0	28640	
5627	0	28540	
5628	0	28444	
5629	0	28340	
5630	0	28264	
5631	0	28176	
5632	0	28108	
5633	0	28076	
5634	0	28032	
5635	0	27992	
5636	0	27936	
5637	0	27884	
5638	0	27844	
5639	0	27824	
5640	0	27814	
5641	0	27740	
5642	0	27674	
5643	0	27620	
5644	0	27600	
5645	0	27640	
5646	0	27648	
5647	0	27624	
5648	0	27616	
5649	0	27618	
5650	0	27608	
5651	0	27628	
5652	0	27604	
5653	0	27582	
5654	0	27616	
5655	0	27688	
5656	0	27724	
5657	0	27776	
5658	0	27848	
5659	0	27928	
5660	0	27968	
5661	0	28028	
5662	0	28044	
5663	0	28068	
5664	0	28104	
5665	0	28160	
5666	0	28208	
5667	0	28240	
5668	0	28280	
5669	0	28300	
5670	0	28312	
5671	0	28316	
5672	0	28336	
5673	0	28360	
5674	0	28428	
5675	0	28512	
5676	0	28584	
5677	0	28648	
5678	0	28648	
5679	0	28624	
5680	0	28692	
5681	0	28784	
5682	0	28878	
5683	0	28972	
5684	0	28984	
5685	0	28992	
5686	0	28988	
5687	0	28972	
5688	0	29016	
5689	0	29044	
5690	0	29044	
5691	0	29020	
5692	0	28992	
5693	0	29032	
5694	0	29052	
5695	0	29076	
5696	0	29116	
5697	0	29212	
5698	0	29292	
5699	0	29364	
5700	0	29416	
5701	0	29472	
5702	0	29540	
5703	0	29628	
5704	0	29680	
5705	0	29760	
5706	0	29780	
5707	0	29796	
5708	0	29792	
5709	0	29792	
5710	0	29824	
5711	0	29904	
5712	0	29992	
5713	0	30064	
5714	0	30084	
5715	0	30106	
5716	0	30132	
5717	0	30168	
5718	0	30220	
5719	0	30304	
5720	0	30372	
5721	0	30400	
5722	0	30408	
5723	0	30404	
5724	0	30448	
5725	0	30520	
5726	0	30516	
5727	0	30528	
5728	0	30554	
5729	0	30548	
5730	0	30528	
5731	0	30512	
5732	0	30516	
5733	0	30440	
5734	0	30400	
5735	0	30432	
5736	0	30492	
5737	0	30584	
5738	0	30648	
5739	0	30720	
5740	0	30804	
5741	0	30856	
5742	0	30884	
5743	0	30936	
5744	0	30988	
5745	0	31024	
5746	0	31056	
5747	0	31072	
5748	0	31072	
5749	0	31066	
5750	0	31040	
5751	0	31008	
5752	0	30948	
5753	0	30938	
5754	0	30948	
5755	0	30968	
5756	0	31016	
5757	0	31090	
5758	0	31136	
5759	0	31192	
5760	0	31248	
5761	0	31304	
5762	0	31328	
5763	0	31376	
5764	0	31424	
5765	0	31448	
5766	0	31456	
5767	0	31488	
5768	0	31512	
5769	0	31472	
5770	0	31472	
5771	0	31468	
5772	0	31412	
5773	0	31400	
5774	0	31384	
5775	0	31336	
5776	0	31340	
5777	0	31328	
5778	0	31332	
5779	0	31348	
5780	0	31384	
5781	0	31424	
5782	0	31442	
5783	0	31472	
5784	0	31464	
5785	0	31472	
5786	0	31460	
5787	0	31392	
5788	0	31328	
5789	0	31272	
5790	0	31252	
5791	0	31288	
5792	0	31316	
5793	0	31316	
5794	0	31344	
5795	0	31356	
5796	0	31378	
5797	0	31400	
5798	0	31440	
5799	0	31488	
5800	0	31504	
5801	0	31504	
5802	0	31512	
5803	0	31520	
5804	0	31552	
5805	0	31552	
5806	0	31556	
5807	0	31536	
5808	0	31504	
5809	0	31440	
5810	0	31408	
5811	0	31372	
5812	0	31360	
5813	0	31376	
5814	0	31376	
5815	0	31364	
5816	0	31364	
5817	0	31336	
5818	0	31358	
5819	0	31388	
5820	0	31392	
5821	0	31428	
5822	0	31504	
5823	0	31576	
5824	0	31588	
5825	0	31580	
5826	0	31536	
5827	0	31516	
5828	0	31476	
5829	0	31420	
5830	0	31412	
5831	0	31436	
5832	0	31436	
5833	0	31392	
5834	0	31360	
5835	0	31380	
5836	0	31456	
5837	0	31464	
5838	0	31424	
5839	0	31400	
5840	0	31400	
5841	0	31460	
5842	0	31480	
5843	0	31466	
5844	0	31456	
5845	0	31448	
5846	0	31444	
5847	0	31400	
5848	0	31388	
5849	0	31432	
5850	0	31472	
5851	0	31520	
5852	0	31540	
5853	0	31548	
5854	0	31600	
5855	0	31656	
5856	0	31680	
5857	0	31672	
5858	0	31660	
5859	0	31664	
5860	0	31668	
5861	0	31720	
5862	0	31784	
5863	0	31796	
5864	0	31816	
5865	0	31856	
5866	0	31884	
5867	0	31864	
5868	0	31834	
5869	0	31782	
5870	0	31784	
5871	0	31804	
5872	0	31840	
5873	0	31848	
5874	0	31818	
5875	0	31776	
5876	0	31792	
5877	0	31808	
5878	0	31840	
5879	0	31876	
5880	0	31944	
5881	0	32032	
5882	0	32096	
5883	0	32064	
5884	0	32080	
5885	0	32080	
5886	0	32060	
5887	0	32000	
5888	0	31904	
5889	0	31832	
5890	0	31856	
5891	0	31832	
5892	0	31808	
5893	0	31836	
5894	0	31928	
5895	0	31976	
5896	0	31936	
5897	0	31896	
5898	0	31916	
5899	0	31936	
5900	0	31962	
5901	0	32068	
5902	0	32096	
5903	0	32088	
5904	0	32092	
5905	0	32112	
5906	0	32116	
5907	0	32120	
5908	0	32136	
5909	0	32176	
5910	0	32160	
5911	0	32148	
5912	0	32112	
5913	0	32048	
5914	0	32104	
5915	0	32124	
5916	0	32096	
5917	0	32104	
5918	0	32148	
5919	0	32140	
5920	0	32168	
5921	0	32218	
5922	0	32232	
5923	0	32186	
5924	0	32160	
5925	0	32176	
5926	0	32208	
5927	0	32220	
5928	0	32234	
5929	0	32208	
5930	0	32220	
5931	0	32240	
5932	0	32260	
5933	0	32316	
5934	0	32312	
5935	0	32312	
5936	0	32340	
5937	0	32368	
5938	0	32444	
5939	0	32540	
5940	0	32636	
5941	0	32660	
5942	0	32672	
5943	0	32640	
5944	0	32632	
5945	0	32610	
5946	0	32664	
5947	0	32636	
5948	0	32592	
5949	0	32534	
5950	0	32488	
5951	0	32456	
5952	0	32492	
5953	0	32576	
5954	0	32604	
5955	0	32588	
5956	0	32624	
5957	0	32692	
5958	0	32800	
5959	0	32888	
5960	0	32916	
5961	0	32940	
5962	0	33024	
5963	0	33116	
5964	0	33212	
5965	0	33300	
5966	0	33344	
5967	0	33364	
5968	0	33360	
5969	0	33408	
5970	0	33440	
5971	0	33416	
5972	0	33404	
5973	0	33304	
5974	0	33224	
5975	0	33232	
5976	0	33204	
5977	0	33136	
5978	0	33124	
5979	0	33208	
5980	0	33372	
5981	0	33464	
5982	0	33504	
5983	0	33616	
5984	0	33828	
5985	0	34138	
5986	0	34344	
5987	0	34516	
5988	0	34704	
5989	0	34828	
5990	0	34940	
5991	0	35044	
5992	0	35220	
5993	0	35392	
5994	0	35496	
5995	0	35572	
5996	0	35584	
5997	0	35544	
5998	0	35508	
5999	0	35484	
6000	0	35496	
6001	0	35460	
6002	0	35372	
6003	0	35212	
6004	0	35036	
6005	0	34912	
6006	0	34776	
6007	0	34624	
6008	0	34472	
6009	0	34272	
6010	0	34136	
6011	0	34056	
6012	0	33924	
6013	0	33796	
6014	0	33700	
6015	0	33632	
6016	0	33560	
6017	0	33552	
6018	0	33548	
6019	0	33468	
6020	0	33400	
6021	0	33356	
6022	0	33372	
6023	0	33356	
6024	0	33260	
6025	0	33104	
6026	0	32928	
6027	0	32760	
6028	0	32612	
6029	0	32528	
6030	0	32452	
6031	0	32340	
6032	0	32244	
6033	0	32132	
6034	0	31976	
6035	0	31868	
6036	0	31792	
6037	0	31714	
6038	0	31648	
6039	0	31578	
6040	0	31504	
6041	0	31468	
6042	0	31448	
6043	0	31488	
6044	0	31556	
6045	0	31546	
6046	0	31594	
6047	0	31636	
6048	0	31644	
6049	0	31640	
6050	0	31644	
6051	0	31572	
6052	0	31552	
6053	0	31572	
6054	0	31588	
6055	0	31616	
6056	0	31652	
6057	0	31708	
6058	0	31776	
6059	0	31808	
6060	0	31832	
6061	0	31886	
6062	0	31952	
6063	0	32008	
6064	0	32034	
6065	0	32040	
6066	0	32032	
6067	0	32024	
6068	0	32048	
6069	0	32072	
6070	0	32088	
6071	0	32054	
6072	0	31984	
6073	0	31936	
6074	0	31964	
6075	0	32012	
6076	0	32048	
6077	0	32072	
6078	0	32124	
6079	0	32136	
6080	0	32112	
6081	0	32058	
6082	0	31972	
6083	0	31852	
6084	0	31640	
6085	0	31256	
6086	0	30656	
6087	0	29936	
6088	0	29360	
6089	0	28968	
6090	0	28776	
6091	0	28768	
6092	0	28920	
6093	0	29304	
6094	0	29860	
6095	0	30652	
6096	0	31744	
6097	0	33020	
6098	0	34348	
6099	0	35764	
6100	0	37224	
6101	0	38772	
6102	0	40608	
6103	0	42762	
6104	0	45284	
6105	0	48080	
6106	0	50922	
6107	0	53760	
6108	0	56512	
6109	0	59352	
6110	0	62048	
6111	0	63600	
6112	0	64380	
6113	0	64752	
6114	0	64880	
6115	0	64900	
6116	0	64856	
6117	0	64768	
6118	0	64656	
6119	0	62120	
6120	0	56720	
6121	0	51684	
6122	0	47296	
6123	0	43744	
6124	0	40928	
6125	0	38664	
6126	0	36736	
6127	0	35128	
6128	0	33676	
6129	0	32312	
6130	0	30912	
6131	0	29488	
6132	0	28194	
6133	0	27108	
6134	0	26296	
6135	0	25848	
6136	0	25684	
6137	0	25720	
6138	0	25882	
6139	0	25980	
6140	0	25976	
6141	0	25976	
6142	0	26028	
6143	0	26196	
6144	0	26464	
6145	0	26736	
6146	0	27000	
6147	0	27308	
6148	0	27656	
6149	0	27988	
6150	0	28312	
6151	0	28604	
6152	0	28866	
6153	0	29104	
6154	0	29288	
6155	0	29456	
6156	0	29648	
6157	0	29840	
6158	0	29992	
6159	0	30104	
6160	0	30164	
6161	0	30232	
6162	0	30260	
6163	0	30200	
6164	0	30128	
6165	0	30120	
6166	0	30172	
6167	0	30220	
6168	0	30252	
6169	0	30360	
6170	0	30432	
6171	0	30416	
6172	0	30352	
6173	0	30344	
6174	0	30324	
6175	0	30360	
6176	0	30432	
6177	0	30544	
6178	0	30640	
6179	0	30748	
6180	0	30832	
6181	0	30914	
6182	0	31008	
6183	0	31076	
6184	0	31164	
6185	0	31240	
6186	0	31226	
6187	0	31224	
6188	0	31216	
6189	0	31188	
6190	0	31216	
6191	0	31262	
6192	0	31308	
6193	0	31381	
6194	0	31434	
6195	0	31472	
6196	0	31512	
6197	0	31536	
6198	0	31640	
6199	0	31724	
6200	0	31784	
6201	0	31856	
6202	0	31872	
6203	0	31900	
6204	0	31928	
6205	0	31840	
6206	0	31816	
6207	0	31816	
6208	0	31842	
6209	0	31876	
6210	0	31860	
6211	0	31874	
6212	0	31932	
6213	0	32000	
6214	0	32054	
6215	0	32116	
6216	0	32200	
6217	0	32276	
6218	0	32312	
6219	0	32380	
6220	0	32472	
6221	0	32576	
6222	0	32618	
6223	0	32620	
6224	0	32684	
6225	0	32752	
6226	0	32772	
6227	0	32810	
6228	0	32808	
6229	0	32788	
6230	0	32832	
6231	0	32852	
6232	0	32824	
6233	0	32832	
6234	0	32872	
6235	0	32948	
6236	0	32976	
6237	0	33040	
6238	0	33112	
6239	0	33140	
6240	0	33204	
6241	0	33304	
6242	0	33344	
6243	0	33380	
6244	0	33408	
6245	0	33408	
6246	0	33384	
6247	0	33384	
6248	0	33372	
6249	0	33372	
6250	0	33408	
6251	0	33440	
6252	0	33532	
6253	0	33624	
6254	0	33712	
6255	0	33792	
6256	0	33896	
6257	0	33986	
6258	0	34064	
6259	0	34092	
6260	0	34152	
6261	0	34258	
6262	0	34332	
6263	0	34368	
6264	0	34368	
6265	0	34368	
6266	0	34384	
6267	0	34380	
6268	0	34392	
6269	0	34388	
6270	0	34412	
6271	0	34424	
6272	0	34440	
6273	0	34468	
6274	0	34532	
6275	0	34604	
6276	0	34736	
6277	0	34880	
6278	0	35012	
6279	0	35124	
6280	0	35244	
6281	0	35316	
6282	0	35372	
6283	0	35440	
6284	0	35528	
6285	0	35608	
6286	0	35648	
6287	0	35672	
6288	0	35764	
6289	0	35800	
6290	0	35848	
6291	0	35960	
6292	0	36064	
6293	0	36186	
6294	0	36256	
6295	0	36340	
6296	0	36456	
6297	0	36542	
6298	0	36620	
6299	0	36748	
6300	0	36912	
6301	0	37040	
6302	0	37136	
6303	0	37252	
6304	0	37396	
6305	0	37480	
6306	0	37576	
6307	0	37672	
6308	0	37744	
6309	0	37776	
6310	0	37780	
6311	0	37804	
6312	0	37860	
6313	0	37928	
6314	0	37976	
6315	0	38112	
6316	0	38292	
6317	0	38516	
6318	0	38690	
6319	0	38780	
6320	0	38856	
6321	0	38952	
6322	0	39052	
6323	0	39176	
6324	0	39272	
6325	0	39324	
6326	0	39336	
6327	0	39352	
6328	0	39388	
6329	0	39432	
6330	0	39432	
6331	0	39428	
6332	0	39472	
6333	0	39528	
6334	0	39540	
6335	0	39560	
6336	0	39660	
6337	0	39752	
6338	0	39796	
6339	0	39848	
6340	0	39904	
6341	0	39968	
6342	0	39960	
6343	0	39960	
6344	0	39904	
6345	0	39824	
6346	0	39728	
6347	0	39616	
6348	0	39548	
6349	0	39432	
6350	0	39332	
6351	0	39240	
6352	0	39120	
6353	0	39032	
6354	0	38992	
6355	0	38936	
6356	0	38856	
6357	0	38788	
6358	0	38744	
6359	0	38668	
6360	0	38572	
6361	0	38444	
6362	0	38304	
6363	0	38152	
6364	0	37976	
6365	0	37812	
6366	0	37592	
6367	0	37360	
6368	0	37108	
6369	0	36836	
6370	0	36584	
6371	0	36304	
6372	0	36024	
6373	0	35720	
6374	0	35424	
6375	0	35196	
6376	0	34980	
6377	0	34756	
6378	0	34508	
6379	0	34196	
6380	0	33888	
6381	0	33646	
6382	0	33440	
6383	0	33236	
6384	0	32976	
6385	0	32672	
6386	0	32384	
6387	0	32104	
6388	0	31796	
6389	0	31480	
6390	0	31212	
6391	0	30992	
6392	0	30768	
6393	0	30532	
6394	0	30368	
6395	0	30194	
6396	0	29984	
6397	0	29788	
6398	0	29652	
6399	0	29504	
6400	0	29336	
6401	0	29228	
6402	0	29132	
6403	0	29052	
6404	0	28988	
6405	0	28866	
6406	0	28696	
6407	0	28512	
6408	0	28336	
6409	0	28196	
6410	0	28056	
6411	0	27932	
6412	0	27812	
6413	0	27716	
6414	0	27648	
6415	0	27584	
6416	0	27532	
6417	0	27472	
6418	0	27432	
6419	0	27408	
6420	0	27404	
6421	0	27432	
6422	0	27456	
6423	0	27474	
6424	0	27460	
6425	0	27442	
6426	0	27440	
6427	0	27466	
6428	0	27456	
6429	0	27404	
6430	0	27372	
6431	0	27312	
6432	0	27284	
6433	0	27244	
6434	0	27226	
6435	0	27232	
6436	0	27240	
6437	0	27224	
6438	0	27260	
6439	0	27276	
6440	0	27320	
6441	0	27348	
6442	0	27364	
6443	0	27408	
6444	0	27476	
6445	0	27536	
6446	0	27570	
6447	0	27540	
6448	0	27564	
6449	0	27636	
6450	0	27676	
6451	0	27676	
6452	0	27664	
6453	0	27636	
6454	0	27676	
6455	0	27768	
6456	0	27840	
6457	0	27896	
6458	0	27968	
6459	0	28044	
6460	0	28112	
6461	0	28188	
6462	0	28224	
6463	0	28254	
6464	0	28316	
6465	0	28300	
6466	0	28320	
6467	0	28304	
6468	0	28280	
6469	0	28274	
6470	0	28328	
6471	0	28392	
6472	0	28456	
6473	0	28496	
6474	0	28520	
6475	0	28572	
6476	0	28586	
6477	0	28642	
6478	0	28744	
6479	0	28874	
6480	0	29016	
6481	0	29100	
6482	0	29144	
6483	0	29200	
6484	0	29240	
6485	0	29260	
6486	0	29244	
6487	0	29260	
6488	0	29316	
6489	0	29372	
6490	0	29424	
6491	0	29432	
6492	0	29408	
6493	0	29432	
6494	0	29476	
6495	0	29512	
6496	0	29584	
6497	0	29692	
6498	0	29804	
6499	0	29872	
6500	0	29920	
6501	0	30010	
6502	0	30112	
6503	0	30208	
6504	0	30276	
6505	0	30280	
6506	0	30288	
6507	0	30276	
6508	0	30258	
6509	0	30240	
6510	0	30218	
6511	0	30192	
6512	0	30180	
6513	0	30186	
6514	0	30244	
6515	0	30380	
6516	0	30484	
6517	0	30560	
6518	0	30604	
6519	0	30660	
6520	0	30712	
6521	0	30752	
6522	0	30804	
6523	0	30900	
6524	0	30988	
6525	0	31048	
6526	0	31044	
6527	0	31004	
6528	0	31032	
6529	0	31032	
6530	0	31008	
6531	0	30980	
6532	0	30968	
6533	0	30992	
6534	0	30992	
6535	0	31024	
6536	0	31036	
6537	0	31056	
6538	0	31120	
6539	0	31152	
6540	0	31220	
6541	0	31272	
6542	0	31292	
6543	0	31328	
6544	0	31356	
6545	0	31340	
6546	0	31340	
6547	0	31328	
6548	0	31328	
6549	0	31352	
6550	0	31368	
6551	0	31364	
6552	0	31328	
6553	0	31320	
6554	0	31308	
6555	0	31280	
6556	0	31320	
6557	0	31370	
6558	0	31432	
6559	0	31496	
6560	0	31568	
6561	0	31584	
6562	0	31572	
6563	0	31572	
6564	0	31576	
6565	0	31552	
6566	0	31552	
6567	0	31484	
6568	0	31428	
6569	0	31438	
6570	0	31424	
6571	0	31400	
6572	0	31344	
6573	0	31272	
6574	0	31276	
6575	0	31296	
6576	0	31220	
6577	0	31256	
6578	0	31360	
6579	0	31440	
6580	0	31474	
6581	0	31440	
6582	0	31438	
6583	0	31436	
6584	0	31416	
6585	0	31424	
6586	0	31412	
6587	0	31388	
6588	0	31360	
6589	0	31336	
6590	0	31290	
6591	0	31284	
6592	0	31272	
6593	0	31236	
6594	0	31224	
6595	0	31204	
6596	0	31210	
6597	0	31212	
6598	0	31236	
6599	0	31264	
6600	0	31292	
6601	0	31268	
6602	0	31246	
6603	0	31300	
6604	0	31336	
6605	0	31312	
6606	0	31312	
6607	0	31316	
6608	0	31288	
6609	0	31248	
6610	0	31248	
6611	0	31238	
6612	0	31208	
6613	0	31192	
6614	0	31228	
6615	0	31280	
6616	0	31328	
6617	0	31384	
6618	0	31432	
6619	0	31424	
6620	0	31456	
6621	0	31472	
6622	0	31468	
6623	0	31476	
6624	0	31544	
6625	0	31572	
6626	0	31568	
6627	0	31576	
6628	0	31536	
6629	0	31428	
6630	0	31400	
6631	0	31394	
6632	0	31408	
6633	0	31400	
6634	0	31380	
6635	0	31400	
6636	0	31416	
6637	0	31448	
6638	0	31512	
6639	0	31576	
6640	0	31612	
6641	0	31634	
6642	0	31664	
6643	0	31668	
6644	0	31616	
6645	0	31596	
6646	0	31656	
6647	0	31696	
6648	0	31700	
6649	0	31692	
6650	0	31684	
6651	0	31662	
6652	0	31648	
6653	0	31648	
6654	0	31632	
6655	0	31640	
6656	0	31644	
6657	0	31658	
6658	0	31712	
6659	0	31760	
6660	0	31816	
6661	0	31876	
6662	0	31872	
6663	0	31872	
6664	0	31912	
6665	0	31896	
6666	0	31872	
6667	0	31844	
6668	0	31788	
6669	0	31716	
6670	0	31692	
6671	0	31712	
6672	0	31740	
6673	0	31776	
6674	0	31808	
6675	0	31872	
6676	0	31926	
6677	0	31980	
6678	0	32016	
6679	0	32020	
6680	0	32004	
6681	0	32028	
6682	0	32072	
6683	0	32088	
6684	0	32096	
6685	0	32132	
6686	0	32146	
6687	0	32140	
6688	0	32140	
6689	0	32124	
6690	0	32104	
6691	0	32124	
6692	0	32184	
6693	0	32240	
6694	0	32240	
6695	0	32276	
6696	0	32322	
6697	0	32424	
6698	0	32572	
6699	0	32716	
6700	0	32826	
6701	0	32888	
6702	0	32944	
6703	0	33050	
6704	0	33144	
6705	0	33232	
6706	0	33288	
6707	0	33312	
6708	0	33348	
6709	0	33380	
6710	0	33424	
6711	0	33432	
6712	0	33400	
6713	0	33364	
6714	0	33308	
6715	0	33232	
6716	0	33184	
6717	0	33168	
6718	0	33168	
6719	0	33192	
6720	0	33208	
6721	0	33296	
6722	0	33388	
6723	0	33480	
6724	0	33652	
6725	0	33858	
6726	0	34124	
6727	0	34368	
6728	0	34592	
6729	0	34768	
6730	0	34916	
6731	0	35070	
6732	0	35228	
6733	0	35424	
6734	0	35592	
6735	0	35684	
6736	0	35756	
6737	0	35736	
6738	0	35672	
6739	0	35600	
6740	0	35552	
6741	0	35500	
6742	0	35412	
6743	0	35368	
6744	0	35288	
6745	0	35128	
6746	0	34948	
6747	0	34792	
6748	0	34652	
6749	0	34524	
6750	0	34364	
6751	0	34216	
6752	0	34104	
6753	0	33956	
6754	0	33816	
6755	0	33716	
6756	0	33692	
6757	0	33648	
6758	0	33648	
6759	0	33664	
6760	0	33648	
6761	0	33620	
6762	0	33568	
6763	0	33532	
6764	0	33516	
6765	0	33472	
6766	0	33384	
6767	0	33276	
6768	0	33180	
6769	0	33064	
6770	0	32972	
6771	0	32924	
6772	0	32828	
6773	0	32756	
6774	0	32688	
6775	0	32612	
6776	0	32536	
6777	0	32464	
6778	0	32396	
6779	0	32364	
6780	0	32392	
6781	0	32426	
6782	0	32424	
6783	0	32410	
6784	0	32356	
6785	0	32276	
6786	0	32176	
6787	0	32064	
6788	0	32000	
6789	0	31976	
6790	0	31900	
6791	0	31852	
6792	0	31916	
6793	0	32024	
6794	0	32052	
6795	0	32012	
6796	0	32032	
6797	0	32096	
6798	0	32172	
6799	0	32244	
6800	0	32272	
6801	0	32324	
6802	0	32404	
6803	0	32400	
6804	0	32288	
6805	0	32176	
6806	0	32156	
6807	0	32148	
6808	0	32132	
6809	0	32152	
6810	0	32184	
6811	0	32224	
6812	0	32304	
6813	0	32420	
6814	0	32490	
6815	0	32480	
6816	0	32464	
6817	0	32500	
6818	0	32584	
6819	0	32672	
6820	0	32720	
6821	0	32708	
6822	0	32676	
6823	0	32596	
6824	0	32460	
6825	0	32260	
6826	0	31920	
6827	0	31356	
6828	0	30652	
6829	0	29920	
6830	0	29380	
6831	0	29072	
6832	0	28996	
6833	0	29108	
6834	0	29476	
6835	0	30008	
6836	0	30724	
6837	0	31722	
6838	0	32872	
6839	0	34044	
6840	0	35336	
6841	0	36712	
6842	0	38076	
6843	0	39708	
6844	0	41700	
6845	0	44088	
6846	0	46824	
6847	0	49732	
6848	0	52668	
6849	0	55464	
6850	0	58256	
6851	0	61064	
6852	0	62916	
6853	0	63864	
6854	0	64320	
6855	0	64512	
6856	0	64540	
6857	0	64500	
6858	0	64444	
6859	0	64344	
6860	0	64224	
6861	0	61356	
6862	0	56100	
6863	0	51304	
6864	0	47300	
6865	0	44044	
6866	0	41256	
6867	0	38932	
6868	0	36920	
6869	0	35168	
6870	0	33600	
6871	0	32112	
6872	0	30656	
6873	0	29280	
6874	0	28112	
6875	0	27212	
6876	0	26700	
6877	0	26446	
6878	0	26448	
6879	0	26620	
6880	0	26800	
6881	0	26864	
6882	0	26772	
6883	0	26712	
6884	0	26764	
6885	0	26836	
6886	0	26944	
6887	0	27088	
6888	0	27292	
6889	0	27536	
6890	0	27828	
6891	0	28116	
6892	0	28408	
6893	0	28668	
6894	0	28936	
6895	0	29204	
6896	0	29424	
6897	0	29600	
6898	0	29736	
6899	0	29820	
6900	0	29920	
6901	0	29964	
6902	0	29988	
6903	0	30024	
6904	0	30004	
6905	0	29978	
6906	0	29976	
6907	0	29976	
6908	0	29976	
6909	0	29900	
6910	0	29890	
6911	0	29896	
6912	0	29920	
6913	0	29952	
6914	0	29996	
6915	0	30052	
6916	0	30064	
6917	0	30072	
6918	0	30084	
6919	0	30148	
6920	0	30216	
6921	0	30304	
6922	0	30388	
6923	0	30448	
6924	0	30460	
6925	0	30456	
6926	0	30466	
6927	0	30532	
6928	0	30592	
6929	0	30596	
6930	0	30596	
6931	0	30600	
6932	0	30608	
6933	0	30624	
6934	0	30624	
6935	0	30616	
6936	0	30588	
6937	0	30632	
6938	0	30732	
6939	0	30824	
6940	0	30908	
6941	0	30992	
6942	0	31056	
6943	0	31144	
6944	0	31208	
6945	0	31260	
6946	0	31264	
6947	0	31280	
6948	0	31290	
6949	0	31296	
6950	0	31296	
6951	0	31304	
6952	0	31360	
6953	0	31388	
6954	0	31412	
6955	0	31438	
6956	0	31492	
6957	0	31552	
6958	0	31616	
6959	0	31688	
6960	0	31752	
6961	0	31776	
6962	0	31778	
6963	0	31832	
6964	0	31872	
6965	0	31904	
6966	0	31948	
6967	0	31960	
6968	0	31952	
6969	0	31984	
6970	0	32064	
6971	0	32132	
6972	0	32188	
6973	0	32200	
6974	0	32168	
6975	0	32144	
6976	0	32196	
6977	0	32256	
6978	0	32296	
6979	0	32364	
6980	0	32396	
6981	0	32396	
6982	0	32448	
6983	0	32604	
6984	0	32760	
6985	0	32768	
6986	0	32740	
6987	0	32670	
6988	0	32680	
6989	0	32704	
6990	0	32786	
6991	0	32892	
6992	0	32888	
6993	0	32904	
6994	0	32936	
6995	0	32992	
6996	0	33080	
6997	0	33184	
6998	0	33308	
6999	0	33404	
7000	0	33512	
7001	0	33608	
7002	0	33696	
7003	0	33724	
7004	0	33816	
7005	0	33896	
7006	0	33956	
7007	0	33972	
7008	0	33944	
7009	0	33916	
7010	0	33872	
7011	0	33856	
7012	0	33898	
7013	0	33960	
7014	0	34040	
7015	0	34076	
7016	0	34092	
7017	0	34128	
7018	0	34208	
7019	0	34324	
7020	0	34428	
7021	0	34548	
7022	0	34628	
7023	0	34640	
7024	0	34660	
7025	0	34720	
7026	0	34796	
7027	0	34864	
7028	0	34984	
7029	0	35080	
7030	0	35148	
7031	0	35204	
7032	0	35200	
7033	0	35232	
7034	0	35296	
7035	0	35364	
7036	0	35484	
7037	0	35656	
7038	0	35828	
7039	0	35960	
7040	0	35992	
7041	0	36048	
7042	0	36140	
7043	0	36200	
7044	0	36256	
7045	0	36332	
7046	0	36396	
7047	0	36486	
7048	0	36560	
7049	0	36632	
7050	0	36696	
7051	0	36768	
7052	0	36880	
7053	0	36960	
7054	0	37092	
7055	0	37252	
7056	0	37356	
7057	0	37440	
7058	0	37576	
7059	0	37716	
7060	0	37876	
7061	0	38024	
7062	0	38100	
7063	0	38184	
7064	0	38272	
7065	0	38352	
7066	0	38412	
7067	0	38436	
7068	0	38488	
7069	0	38532	
7070	0	38504	
7071	0	38496	
7072	0	38508	
7073	0	38548	
7074	0	38584	
7075	0	38596	
7076	0	38616	
7077	0	38636	
7078	0	38720	
7079	0	38808	
7080	0	38876	
7081	0	38928	
7082	0	38972	
7083	0	38968	
7084	0	38940	
7085	0	38900	
7086	0	38856	
7087	0	38816	
7088	0	38760	
7089	0	38752	
7090	0	38720	
7091	0	38676	
7092	0	38632	
7093	0	38560	
7094	0	38484	
7095	0	38472	
7096	0	38448	
7097	0	38384	
7098	0	38296	
7099	0	38164	
7100	0	38040	
7101	0	37920	
7102	0	37792	
7103	0	37688	
7104	0	37560	
7105	0	37384	
7106	0	37184	
7107	0	36928	
7108	0	36600	
7109	0	36272	
7110	0	35984	
7111	0	35700	
7112	0	35424	
7113	0	35144	
7114	0	34906	
7115	0	34656	
7116	0	34372	
7117	0	34112	
7118	0	33868	
7119	0	33614	
7120	0	33348	
7121	0	33112	
7122	0	32812	
7123	0	32528	
7124	0	32248	
7125	0	31976	
7126	0	31712	
7127	0	31440	
7128	0	31178	
7129	0	30880	
7130	0	30624	
7131	0	30372	
7132	0	30096	
7133	0	29856	
7134	0	29696	
7135	0	29514	
7136	0	29356	
7137	0	29204	
7138	0	29012	
7139	0	28840	
7140	0	28660	
7141	0	28516	
7142	0	28384	
7143	0	28270	
7144	0	28168	
7145	0	28020	
7146	0	27904	
7147	0	27808	
7148	0	27656	
7149	0	27520	
7150	0	27420	
7151	0	27272	
7152	0	27044	
7153	0	26952	
7154	0	26940	
7155	0	26928	
7156	0	26888	
7157	0	26864	
7158	0	26856	
7159	0	26880	
7160	0	26942	
7161	0	26930	
7162	0	26876	
7163	0	26856	
7164	0	26856	
7165	0	26844	
7166	0	26840	
7167	0	26824	
7168	0	26746	
7169	0	26716	
7170	0	26762	
7171	0	26768	
7172	0	26772	
7173	0	26752	
7174	0	26762	
7175	0	26800	
7176	0	26864	
7177	0	26912	
7178	0	26940	
7179	0	26964	
7180	0	27020	
7181	0	27056	
7182	0	27098	
7183	0	27144	
7184	0	27200	
7185	0	27236	
7186	0	27180	
7187	0	27116	
7188	0	27104	
7189	0	27128	
7190	0	27184	
7191	0	27221	
7192	0	27232	
7193	0	27296	
7194	0	27360	
7195	0	27396	
7196	0	27448	
7197	0	27504	
7198	0	27600	
7199	0	27680	
7200	0	27736	
7201	0	27832	
7202	0	27872	
7203	0	27936	
7204	0	27976	
7205	0	28036	
7206	0	28064	
7207	0	28040	
7208	0	28018	
7209	0	28024	
7210	0	28032	
7211	0	28064	
7212	0	28108	
7213	0	28144	
7214	0	28144	
7215	0	28168	
7216	0	28240	
7217	0	28304	
7218	0	28372	
7219	0	28456	
7220	0	28538	
7221	0	28616	
7222	0	28684	
7223	0	28736	
7224	0	28800	
7225	0	28800	
7226	0	28794	
7227	0	28774	
7228	0	28756	
7229	0	28746	
7230	0	28768	
7231	0	28812	
7232	0	28864	
7233	0	28928	
7234	0	28992	
7235	0	29052	
7236	0	29098	
7237	0	29142	
7238	0	29184	
7239	0	29224	
7240	0	29284	
7241	0	29308	
7242	0	29340	
7243	0	29376	
7244	0	29442	
7245	0	29464	
7246	0	29472	
7247	0	29472	
7248	0	29468	
7249	0	29480	
7250	0	29496	
7251	0	29488	
7252	0	29484	
7253	0	29516	
7254	0	29532	
7255	0	29576	
7256	0	29640	
7257	0	29748	
7258	0	29828	
7259	0	29896	
7260	0	29916	
7261	0	29944	
7262	0	29960	
7263	0	29952	
7264	0	30000	
7265	0	29980	
7266	0	29984	
7267	0	30032	
7268	0	30068	
7269	0	30040	
7270	0	30048	
7271	0	30058	
7272	0	30076	
7273	0	30124	
7274	0	30160	
7275	0	30172	
7276	0	30202	
7277	0	30264	
7278	0	30288	
7279	0	30384	
7280	0	30484	
7281	0	30564	
7282	0	30620	
7283	0	30644	
7284	0	30656	
7285	0	30644	
7286	0	30596	
7287	0	30528	
7288	0	30484	
7289	0	30476	
7290	0	30472	
7291	0	30492	
7292	0	30476	
7293	0	30496	
7294	0	30492	
7295	0	30508	
7296	0	30542	
7297	0	30588	
7298	0	30636	
7299	0	30668	
7300	0	30724	
7301	0	30724	
7302	0	30688	
7303	0	30672	
7304	0	30696	
7305	0	30764	
7306	0	30812	
7307	0	30816	
7308	0	30776	
7309	0	30680	
7310	0	30652	
7311	0	30648	
7312	0	30656	
7313	0	30656	
7314	0	30656	
7315	0	30644	
7316	0	30648	
7317	0	30720	
7318	0	30768	
7319	0	30812	
7320	0	30864	
7321	0	30922	
7322	0	30932	
7323	0	30944	
7324	0	30964	
7325	0	30984	
7326	0	30968	
7327	0	30892	
7328	0	30820	
7329	0	30784	
7330	0	30772	
7331	0	30760	
7332	0	30732	
7333	0	30704	
7334	0	30696	
7335	0	30720	
7336	0	30796	
7337	0	30872	
7338	0	30902	
7339	0	30892	
7340	0	30908	
7341	0	30932	
7342	0	30948	
7343	0	30968	
7344	0	30940	
7345	0	30952	
7346	0	30956	
7347	0	30964	
7348	0	30948	
7349	0	30936	
7350	0	30912	
7351	0	30896	
7352	0	30872	
7353	0	30828	
7354	0	30816	
7355	0	30820	
7356	0	30808	
7357	0	30804	
7358	0	30846	
7359	0	30880	
7360	0	30928	
7361	0	30964	
7362	0	30976	
7363	0	30984	
7364	0	30976	
7365	0	30972	
7366	0	30988	
7367	0	31008	
7368	0	30964	
7369	0	30896	
7370	0	30860	
7371	0	30838	
7372	0	30824	
7373	0	30820	
7374	0	30816	
7375	0	30844	
7376	0	30892	
7377	0	30960	
7378	0	31016	
7379	0	31072	
7380	0	31164	
7381	0	31224	
7382	0	31260	
7383	0	31272	
7384	0	31252	
7385	0	31212	
7386	0	31184	
7387	0	31176	
7388	0	31204	
7389	0	31192	
7390	0	31192	
7391	0	31184	
7392	0	31204	
7393	0	31256	
7394	0	31236	
7395	0	31266	
7396	0	31300	
7397	0	31360	
7398	0	31420	
7399	0	31440	
7400	0	31472	
7401	0	31544	
7402	0	31624	
7403	0	31648	
7404	0	31656	
7405	0	31632	
7406	0	31596	
7407	0	31532	
7408	0	31492	
7409	0	31474	
7410	0	31460	
7411	0	31456	
7412	0	31476	
7413	0	31512	
7414	0	31564	
7415	0	31624	
7416	0	31632	
7417	0	31616	
7418	0	31628	
7419	0	31660	
7420	0	31712	
7421	0	31752	
7422	0	31780	
7423	0	31828	
7424	0	31848	
7425	0	31860	
7426	0	31890	
7427	0	31896	
7428	0	31904	
7429	0	31876	
7430	0	31852	
7431	0	31818	
7432	0	31784	
7433	0	31784	
7434	0	31828	
7435	0	31864	
7436	0	31896	
7437	0	31924	
7438	0	31960	
7439	0	32010	
7440	0	32044	
7441	0	32080	
7442	0	32116	
7443	0	32112	
7444	0	32144	
7445	0	32164	
7446	0	32184	
7447	0	32168	
7448	0	32128	
7449	0	32120	
7450	0	32088	
7451	0	32092	
7452	0	32112	
7453	0	32136	
7454	0	32152	
7455	0	32170	
7456	0	32192	
7457	0	32240	
7458	0	32272	
7459	0	32300	
7460	0	32384	
7461	0	32468	
7462	0	32530	
7463	0	32540	
7464	0	32520	
7465	0	32508	
7466	0	32488	
7467	0	32480	
7468	0	32444	
7469	0	32416	
7470	0	32424	
7471	0	32440	
7472	0	32456	
7473	0	32456	
7474	0	32460	
7475	0	32448	
7476	0	32468	
7477	0	32498	
7478	0	32560	
7479	0	32616	
7480	0	32594	
7481	0	32584	
7482	0	32604	
7483	0	32632	
7484	0	32634	
7485	0	32612	
7486	0	32596	
7487	0	32608	
7488	0	32620	
7489	0	32588	
7490	0	32600	
7491	0	32648	
7492	0	32668	
7493	0	32656	
7494	0	32760	
7495	0	32956	
7496	0	33144	
7497	0	33244	
7498	0	33288	
7499	0	33344	
7500	0	33424	
7501	0	33516	
7502	0	33620	
7503	0	33688	
7504	0	33716	
7505	0	33712	
7506	0	33694	
7507	0	33592	
7508	0	33520	
7509	0	33484	
7510	0	33440	
7511	0	33346	
7512	0	33232	
7513	0	33176	
7514	0	33208	
7515	0	33292	
7516	0	33352	
7517	0	33452	
7518	0	33576	
7519	0	33736	
7520	0	33916	
7521	0	34160	
7522	0	34458	
7523	0	34752	
7524	0	35004	
7525	0	35232	
7526	0	35384	
7527	0	35468	
7528	0	35584	
7529	0	35696	
7530	0	35808	
7531	0	35864	
7532	0	35856	
7533	0	35780	
7534	0	35696	
7535	0	35668	
7536	0	35608	
7537	0	35498	
7538	0	35416	
7539	0	35360	
7540	0	35296	
7541	0	35128	
7542	0	34952	
7543	0	34848	
7544	0	34712	
7545	0	34508	
7546	0	34376	
7547	0	34260	
7548	0	34112	
7549	0	33952	
7550	0	33764	
7551	0	33632	
7552	0	33516	
7553	0	33420	
7554	0	33376	
7555	0	33376	
7556	0	33344	
7557	0	33260	
7558	0	33180	
7559	0	33132	
7560	0	33104	
7561	0	33096	
7562	0	33032	
7563	0	32948	
7564	0	32880	
7565	0	32824	
7566	0	32712	
7567	0	32648	
7568	0	32544	
7569	0	32436	
7570	0	32296	
7571	0	32148	
7572	0	32044	
7573	0	31936	
7574	0	31812	
7575	0	31724	
7576	0	31700	
7577	0	31660	
7578	0	31624	
7579	0	31628	
7580	0	31696	
7581	0	31732	
7582	0	31724	
7583	0	31720	
7584	0	31744	
7585	0	31736	
7586	0	31708	
7587	0	31680	
7588	0	31656	
7589	0	31624	
7590	0	31624	
7591	0	31644	
7592	0	31668	
7593	0	31712	
7594	0	31762	
7595	0	31822	
7596	0	31880	
7597	0	31912	
7598	0	31916	
7599	0	31932	
7600	0	31952	
7601	0	32028	
7602	0	32116	
7603	0	32232	
7604	0	32260	
7605	0	32184	
7606	0	32144	
7607	0	32104	
7608	0	32024	
7609	0	32008	
7610	0	32028	
7611	0	32060	
7612	0	32088	
7613	0	32140	
7614	0	32220	
7615	0	32248	
7616	0	32240	
7617	0	32236	
7618	0	32194	
7619	0	32124	
7620	0	32008	
7621	0	31812	
7622	0	31476	
7623	0	31028	
7624	0	30416	
7625	0	29828	
7626	0	29376	
7627	0	29088	
7628	0	29024	
7629	0	29192	
7630	0	29480	
7631	0	29944	
7632	0	30560	
7633	0	31500	
7634	0	32684	
7635	0	34076	
7636	0	35588	
7637	0	37152	
7638	0	38680	
7639	0	40504	
7640	0	42624	
7641	0	45008	
7642	0	47840	
7643	0	50824	
7644	0	53808	
7645	0	56632	
7646	0	59392	
7647	0	62120	
7648	0	63936	
7649	0	64856	
7650	0	65316	
7651	0	65488	
7652	0	65528	
7653	0	65488	
7654	0	65400	
7655	0	65304	
7656	0	65176	
7657	0	65056	
7658	0	60512	
7659	0	55556	
7660	0	51340	
7661	0	47828	
7662	0	44808	
7663	0	42240	
7664	0	39904	
7665	0	37780	
7666	0	35966	
7667	0	34404	
7668	0	33060	
7669	0	31896	
7670	0	30912	
7671	0	30052	
7672	0	29404	
7673	0	28938	
7674	0	28584	
7675	0	28456	
7676	0	28468	
7677	0	28480	
7678	0	28344	
7679	0	28148	
7680	0	27952	
7681	0	27804	
7682	0	27732	
7683	0	27760	
7684	0	27914	
7685	0	28148	
7686	0	28332	
7687	0	28528	
7688	0	28680	
7689	0	28812	
7690	0	28900	
7691	0	28954	
7692	0	29008	
7693	0	29062	
7694	0	29104	
7695	0	29100	
7696	0	29112	
7697	0	29120	
7698	0	29080	
7699	0	29044	
7700	0	29076	
7701	0	29104	
7702	0	29156	
7703	0	29200	
7704	0	29236	
7705	0	29236	
7706	0	29196	
7707	0	29152	
7708	0	29152	
7709	0	29160	
7710	0	29184	
7711	0	29252	
7712	0	29308	
7713	0	29348	
7714	0	29348	
7715	0	29384	
7716	0	29448	
7717	0	29508	
7718	0	29584	
7719	0	29668	
7720	0	29744	
7721	0	29792	
7722	0	29832	
7723	0	29944	
7724	0	30028	
7725	0	30068	
7726	0	30100	
7727	0	30112	
7728	0	30112	
7729	0	30146	
7730	0	30168	
7731	0	30202	
7732	0	30256	
7733	0	30308	
7734	0	30400	
7735	0	30440	
7736	0	30432	
7737	0	30468	
7738	0	30556	
7739	0	30644	
7740	0	30748	
7741	0	30826	
7742	0	30900	
7743	0	30942	
7744	0	30988	
7745	0	31004	
7746	0	30980	
7747	0	30988	
7748	0	30984	
7749	0	31004	
7750	0	31032	
7751	0	31080	
7752	0	31108	
7753	0	31152	
7754	0	31260	
7755	0	31336	
7756	0	31420	
7757	0	31504	
7758	0	31600	
7759	0	31704	
7760	0	31776	
7761	0	31828	
7762	0	31868	
7763	0	31884	
7764	0	31912	
7765	0	31952	
7766	0	31976	
7767	0	32012	
7768	0	32042	
7769	0	32036	
7770	0	32028	
7771	0	32036	
7772	0	32064	
7773	0	32100	
7774	0	32120	
7775	0	32184	
7776	0	32284	
7777	0	32372	
7778	0	32420	
7779	0	32504	
7780	0	32608	
7781	0	32688	
7782	0	32736	
7783	0	32760	
7784	0	32760	
7785	0	32772	
7786	0	32812	
7787	0	32816	
7788	0	32792	
7789	0	32804	
7790	0	32904	
7791	0	32980	
7792	0	33008	
7793	0	33078	
7794	0	33160	
7795	0	33216	
7796	0	33300	
7797	0	33388	
7798	0	33464	
7799	0	33552	
7800	0	33640	
7801	0	33700	
7802	0	33736	
7803	0	33808	
7804	0	33904	
7805	0	33952	
7806	0	34016	
7807	0	34060	
7808	0	34096	
7809	0	34106	
7810	0	34128	
7811	0	34148	
7812	0	34208	
7813	0	34240	
7814	0	34264	
7815	0	34352	
7816	0	34456	
7817	0	34508	
7818	0	34596	
7819	0	34656	
7820	0	34724	
7821	0	34840	
7822	0	34940	
7823	0	35016	
7824	0	35106	
7825	0	35258	
7826	0	35352	
7827	0	35404	
7828	0	35452	
7829	0	35512	
7830	0	35604	
7831	0	35668	
7832	0	35752	
7833	0	35808	
7834	0	35898	
7835	0	35972	
7836	0	36032	
7837	0	36140	
7838	0	36280	
7839	0	36400	
7840	0	36500	
7841	0	36588	
7842	0	36704	
7843	0	36832	
7844	0	36948	
7845	0	37032	
7846	0	37116	
7847	0	37184	
7848	0	37272	
7849	0	37352	
7850	0	37432	
7851	0	37488	
7852	0	37556	
7853	0	37640	
7854	0	37726	
7855	0	37836	
7856	0	37972	
7857	0	38112	
7858	0	38280	
7859	0	38448	
7860	0	38560	
7861	0	38652	
7862	0	38704	
7863	0	38740	
7864	0	38756	
7865	0	38784	
7866	0	38848	
7867	0	38908	
7868	0	38972	
7869	0	38976	
7870	0	38996	
7871	0	39020	
7872	0	39040	
7873	0	39088	
7874	0	39136	
7875	0	39192	
7876	0	39232	
7877	0	39272	
7878	0	39344	
7879	0	39384	
7880	0	39424	
7881	0	39452	
7882	0	39500	
7883	0	39528	
7884	0	39528	
7885	0	39468	
7886	0	39376	
7887	0	39320	
7888	0	39264	
7889	0	39200	
7890	0	39148	
7891	0	39120	
7892	0	39098	
7893	0	39052	
7894	0	39032	
7895	0	38988	
7896	0	38960	
7897	0	38912	
7898	0	38820	
7899	0	38698	
7900	0	38580	
7901	0	38464	
7902	0	38304	
7903	0	38136	
7904	0	37968	
7905	0	37776	
7906	0	37576	
7907	0	37344	
7908	0	37088	
7909	0	36840	
7910	0	36580	
7911	0	36240	
7912	0	35916	
7913	0	35588	
7914	0	35256	
7915	0	35000	
7916	0	34760	
7917	0	34548	
7918	0	34328	
7919	0	34060	
7920	0	33812	
7921	0	33564	
7922	0	33324	
7923	0	33064	
7924	0	32836	
7925	0	32588	
7926	0	32312	
7927	0	32044	
7928	0	31824	
7929	0	31580	
7930	0	31316	
7931	0	31088	
7932	0	30856	
7933	0	30676	
7934	0	30462	
7935	0	30236	
7936	0	30080	
7937	0	29950	
7938	0	29864	
7939	0	29752	
7940	0	29628	
7941	0	29540	
7942	0	29412	
7943	0	29296	
7944	0	29176	
7945	0	29040	
7946	0	28920	
7947	0	28812	
7948	0	28720	
7949	0	28604	
7950	0	28472	
7951	0	28360	
7952	0	28260	
7953	0	28192	
7954	0	28128	
7955	0	28100	
7956	0	28124	
7957	0	28156	
7958	0	28144	
7959	0	28128	
7960	0	28154	
7961	0	28178	
7962	0	28176	
7963	0	28184	
7964	0	28160	
7965	0	28106	
7966	0	28054	
7967	0	28012	
7968	0	27968	
7969	0	27904	
7970	0	27884	
7971	0	27908	
7972	0	27950	
7973	0	27952	
7974	0	27920	
7975	0	27916	
7976	0	27950	
7977	0	28004	
7978	0	28056	
7979	0	28096	
7980	0	28176	
7981	0	28228	
7982	0	28296	
7983	0	28368	
7984	0	28388	
7985	0	28400	
7986	0	28396	
7987	0	28388	
7988	0	28408	
7989	0	28448	
7990	0	28480	
7991	0	28496	
7992	0	28524	
7993	0	28600	
7994	0	28656	
7995	0	28704	
7996	0	28752	
7997	0	28808	
7998	0	28892	
7999	0	28968	
8000	0	29024	
8001	0	29084	
8002	0	29120	
8003	0	29160	
8004	0	29192	
8005	0	29208	
8006	0	29200	
8007	0	29230	
8008	0	29248	
8009	0	29288	
8010	0	29328	
8011	0	29346	
8012	0	29396	
8013	0	29440	
8014	0	29476	
8015	0	29492	
8016	0	29504	
8017	0	29564	
8018	0	29620	
8019	0	29674	
8020	0	29760	
8021	0	29840	
8022	0	29900	
8023	0	29984	
8024	0	30036	
8025	0	30048	
8026	0	30072	
8027	0	30068	
8028	0	30054	
8029	0	30060	
8030	0	30072	
8031	0	30112	
8032	0	30100	
8033	0	30088	
8034	0	30088	
8035	0	30124	
8036	0	30160	
8037	0	30240	
8038	0	30336	
8039	0	30426	
8040	0	30516	
8041	0	30548	
8042	0	30570	
8043	0	30608	
8044	0	30668	
8045	0	30696	
8046	0	30720	
8047	0	30720	
8048	0	30752	
8049	0	30760	
8050	0	30740	
8051	0	30708	
8052	0	30720	
8053	0	30768	
8054	0	30826	
8055	0	30872	
8056	0	30956	
8057	0	30984	
8058	0	30968	
8059	0	31028	
8060	0	31136	
8061	0	31152	
8062	0	31136	
8063	0	31148	
8064	0	31184	
8065	0	31204	
8066	0	31208	
8067	0	31208	
8068	0	31196	
8069	0	31176	
8070	0	31172	
8071	0	31196	
8072	0	31160	
8073	0	31150	
8074	0	31160	
8075	0	31208	
8076	0	31304	
8077	0	31356	
8078	0	31416	
8079	0	31464	
8080	0	31512	
8081	0	31536	
8082	0	31572	
8083	0	31596	
8084	0	31608	
8085	0	31616	
8086	0	31624	
8087	0	31592	
8088	0	31590	
8089	0	31568	
8090	0	31548	
8091	0	31540	
8092	0	31542	
8093	0	31556	
8094	0	31568	
8095	0	31596	
8096	0	31656	
8097	0	31716	
8098	0	31748	
8099	0	31744	
8100	0	31720	
8101	0	31732	
8102	0	31768	
8103	0	31824	
8104	0	31868	
8105	0	31844	
8106	0	31832	
8107	0	31808	
8108	0	31824	
8109	0	31848	
8110	0	31844	
8111	0	31816	
8112	0	31788	
8113	0	31772	
8114	0	31740	
8115	0	31728	
8116	0	31750	
8117	0	31800	
8118	0	31852	
8119	0	31896	
8120	0	31928	
8121	0	31944	
8122	0	31952	
8123	0	31930	
8124	0	31880	
8125	0	31848	
8126	0	31836	
8127	0	31830	
8128	0	31780	
8129	0	31736	
8130	0	31738	
8131	0	31824	
8132	0	31884	
8133	0	31921	
8134	0	31968	
8135	0	31952	
8136	0	31974	
8137	0	32020	
8138	0	32072	
8139	0	32144	
8140	0	32156	
8141	0	32160	
8142	0	32136	
8143	0	32160	
8144	0	32192	
8145	0	32192	
8146	0	32180	
8147	0	32128	
8148	0	32068	
8149	0	32036	
8150	0	32012	
8151	0	31968	
8152	0	31964	
8153	0	31976	
8154	0	31980	
8155	0	31980	
8156	0	31980	
8157	0	32024	
8158	0	32072	
8159	0	32140	
8160	0	32180	
8161	0	32176	
8162	0	32192	
8163	0	32240	
8164	0	32236	
8165	0	32216	
8166	0	32178	
8167	0	32152	
8168	0	32120	
8169	0	32076	
8170	0	32028	
8171	0	31980	
8172	0	31940	
8173	0	31934	
8174	0	31928	
8175	0	32004	
8176	0	32088	
8177	0	32148	
8178	0	32156	
8179	0	32148	
8180	0	32208	
8181	0	32252	
8182	0	32282	
8183	0	32322	
8184	0	32352	
8185	0	32304	
8186	0	32280	
8187	0	32284	
8188	0	32272	
8189	0	32240	
8190	0	32184	
8191	0	32144	
8192	0	32164	
8193	0	32212	
8194	0	32268	
8195	0	32272	
8196	0	32304	
8197	0	32352	
8198	0	32400	
8199	0	32460	
8200	0	32512	
8201	0	32500	
8202	0	32472	
8203	0	32476	
8204	0	32480	
8205	0	32440	
8206	0	32404	
8207	0	32368	
8208	0	32338	
8209	0	32296	
8210	0	32296	
8211	0	32272	
8212	0	32250	
8213	0	32268	
8214	0	32288	
8215	0	32304	
8216	0	32316	
8217	0	32346	
8218	0	32352	
8219	0	32352	
8220	0	32384	
8221	0	32424	
8222	0	32428	
8223	0	32416	
8224	0	32400	
8225	0	32400	
8226	0	32416	
8227	0	32400	
8228	0	32356	
8229	0	32320	
8230	0	32312	
8231	0	32308	
8232	0	32316	
8233	0	32356	
8234	0	32376	
8235	0	32376	
8236	0	32416	
8237	0	32448	
8238	0	32476	
8239	0	32532	
8240	0	32560	
8241	0	32556	
8242	0	32596	
8243	0	32632	
8244	0	32618	
8245	0	32574	
8246	0	32504	
8247	0	32488	
8248	0	32472	
8249	0	32442	
8250	0	32400	
8251	0	32396	
8252	0	32396	
8253	0	32396	
8254	0	32376	
8255	0	32436	
8256	0	32512	
8257	0	32552	
8258	0	32580	
8259	0	32576	
8260	0	32616	
8261	0	32672	
8262	0	32716	
8263	0	32752	
8264	0	32740	
8265	0	32656	
8266	0	32592	
8267	0	32592	
8268	0	32580	
8269	0	32570	
8270	0	32578	
8271	0	32584	
8272	0	32592	
8273	0	32570	
8274	0	32564	
8275	0	32536	
8276	0	32564	
8277	0	32600	
8278	0	32660	
8279	0	32704	
8280	0	32716	
8281	0	32704	
8282	0	32752	
8283	0	32776	
8284	0	32810	
8285	0	32812	
8286	0	32800	
8287	0	32754	
8288	0	32792	
8289	0	32808	
8290	0	32784	
8291	0	32752	
8292	0	32720	
8293	0	32660	
8294	0	32640	
8295	0	32660	
8296	0	32684	
8297	0	32720	
8298	0	32752	
8299	0	32764	
8300	0	32800	
8301	0	32832	
8302	0	32872	
8303	0	32884	
8304	0	32848	
8305	0	32808	
8306	0	32768	
8307	0	32736	
8308	0	32736	
8309	0	32724	
8310	0	32736	
8311	0	32732	
8312	0	32728	
8313	0	32732	
8314	0	32708	
8315	0	32692	
8316	0	32740	
8317	0	32780	
8318	0	32852	
8319	0	32896	
8320	0	32888	
8321	0	32868	
8322	0	32844	
8323	0	32852	
8324	0	32892	
8325	0	32968	
8326	0	32968	
8327	0	32944	
8328	0	32898	
8329	0	32852	
8330	0	32864	
8331	0	32860	
8332	0	32832	
8333	0	32816	
8334	0	32864	
8335	0	32932	
8336	0	32992	
8337	0	33028	
8338	0	33076	
8339	0	33136	
8340	0	33220	
8341	0	33328	
8342	0	33408	
8343	0	33436	
8344	0	33440	
8345	0	33432	
8346	0	33460	
8347	0	33500	
8348	0	33528	
8349	0	33500	
8350	0	33508	
8351	0	33560	
8352	0	33596	
8353	0	33652	
8354	0	33680	
8355	0	33684	
8356	0	33644	
8357	0	33568	
8358	0	33476	
8359	0	33424	
8360	0	33432	
8361	0	33488	
8362	0	33580	
8363	0	33662	
8364	0	33722	
8365	0	33834	
8366	0	33980	
8367	0	34156	
8368	0	34400	
8369	0	34652	
8370	0	34916	
8371	0	35136	
8372	0	35344	
8373	0	35520	
8374	0	35704	
8375	0	35904	
8376	0	36050	
8377	0	36156	
8378	0	36200	
8379	0	36188	
8380	0	36152	
8381	0	36064	
8382	0	35948	
8383	0	35852	
8384	0	35712	
8385	0	35544	
8386	0	35336	
8387	0	35124	
8388	0	34872	
8389	0	34702	
8390	0	34524	
8391	0	34360	
8392	0	34216	
8393	0	34092	
8394	0	33960	
8395	0	33860	
8396	0	33752	
8397	0	33668	
8398	0	33584	
8399	0	33536	
8400	0	33524	
8401	0	33496	
8402	0	33460	
8403	0	33396	
8404	0	33312	
8405	0	33224	
8406	0	33136	
8407	0	33066	
8408	0	33028	
8409	0	32956	
8410	0	32864	
8411	0	32716	
8412	0	32584	
8413	0	32504	
8414	0	32436	
8415	0	32404	
8416	0	32374	
8417	0	32320	
8418	0	32220	
8419	0	32108	
8420	0	32008	
8421	0	31952	
8422	0	31892	
8423	0	31840	
8424	0	31824	
8425	0	31800	
8426	0	31772	
8427	0	31736	
8428	0	31706	
8429	0	31676	
8430	0	31636	
8431	0	31596	
8432	0	31592	
8433	0	31604	
8434	0	31640	
8435	0	31660	
8436	0	31680	
8437	0	31744	
8438	0	31780	
8439	0	31812	
8440	0	31874	
8441	0	31872	
8442	0	31916	
8443	0	32004	
8444	0	32032	
8445	0	32008	
8446	0	31980	
8447	0	31944	
8448	0	31940	
8449	0	31968	
8450	0	32000	
8451	0	31980	
8452	0	31944	
8453	0	31920	
8454	0	31918	
8455	0	31952	
8456	0	32044	
8457	0	32064	
8458	0	32096	
8459	0	32152	
8460	0	32252	
8461	0	32380	
8462	0	32452	
8463	0	32412	
8464	0	32320	
8465	0	32220	
8466	0	32058	
8467	0	31748	
8468	0	31232	
8469	0	30548	
8470	0	29828	
8471	0	29288	
8472	0	28928	
8473	0	28744	
8474	0	28768	
8475	0	29000	
8476	0	29432	
8477	0	30004	
8478	0	30776	
8479	0	31800	
8480	0	33012	
8481	0	34388	
8482	0	35898	
8483	0	37448	
8484	0	39100	
8485	0	41088	
8486	0	43320	
8487	0	45948	
8488	0	48928	
8489	0	51912	
8490	0	54908	
8491	0	57832	
8492	0	60716	
8493	0	62804	
8494	0	63888	
8495	0	64412	
8496	0	64640	
8497	0	64704	
8498	0	64688	
8499	0	64608	
8500	0	64506	
8501	0	64404	
8502	0	64280	
8503	0	64160	
8504	0	59544	
8505	0	54796	
8506	0	50832	
8507	0	47476	
8508	0	44600	
8509	0	42050	
8510	0	39712	
8511	0	37656	
8512	0	35880	
8513	0	34336	
8514	0	33036	
8515	0	31968	
8516	0	31002	
8517	0	30192	
8518	0	29600	
8519	0	29148	
8520	0	28880	
8521	0	28748	
8522	0	28664	
8523	0	28524	
8524	0	28256	
8525	0	27962	
8526	0	27716	
8527	0	27600	
8528	0	27580	
8529	0	27660	
8530	0	27812	
8531	0	28008	
8532	0	28200	
8533	0	28392	
8534	0	28552	
8535	0	28696	
8536	0	28824	
8537	0	28924	
8538	0	28984	
8539	0	29032	
8540	0	29076	
8541	0	29116	
8542	0	29108	
8543	0	29084	
8544	0	29048	
8545	0	29036	
8546	0	29004	
8547	0	28912	
8548	0	28848	
8549	0	28824	
8550	0	28824	
8551	0	28800	
8552	0	28796	
8553	0	28860	
8554	0	28952	
8555	0	28984	
8556	0	29040	
8557	0	29100	
8558	0	29152	
8559	0	29208	
8560	0	29256	
8561	0	29330	
8562	0	29412	
8563	0	29480	
8564	0	29544	
8565	0	29624	
8566	0	29630	
8567	0	29588	
8568	0	29564	
8569	0	29544	
8570	0	29572	
8571	0	29616	
8572	0	29672	
8573	0	29728	
8574	0	29780	
8575	0	29836	
8576	0	29924	
8577	0	29968	
8578	0	29980	
8579	0	30024	
8580	0	30096	
8581	0	30160	
8582	0	30216	
8583	0	30288	
8584	0	30324	
8585	0	30364	
8586	0	30408	
8587	0	30424	
8588	0	30410	
8589	0	30412	
8590	0	30394	
8591	0	30392	
