# OpenSignals Text File Format. Version 1
# {"00:07:80:4B:15:F7": {"position": 0, "device": "biosignalsplux", "device name": "00:07:80:4B:15:F7", "device connection": "BTH00:07:80:4B:15:F7", "sampling rate": 1000, "resolution": [16], "firmware version": 775, "comments": "", "keywords": "", "mode": 0, "sync interval": 2, "date": "2023-3-14", "time": "15:37:20.6", "channels": [1], "sensor": ["ECG"], "label": ["CH1"], "column": ["nSeq", "DI", "CH1"], "special": [{"SpO2": [80, 40, 5, 4, 3, 3]}, {"SpO2": [80, 40, 5, 4, 3, 3]}, {"SpO2": [80, 40, 5, 4, 3, 3]}, {"SpO2": [80, 40, 5, 4, 3, 3]}, {"SpO2": [80, 40, 5, 4, 3, 3]}, {"SpO2": [80, 40, 5, 4, 3, 3]}, {"SpO2": [80, 40, 5, 4, 3, 3]}, {"SpO2": [80, 40, 5, 4, 3, 3]}], "digital IO": [0, 1], "sleeve color": ["green"], "convertedValues": 0}}
# EndOfHeader
0	0	30568	
1	0	30608	
2	0	30644	
3	0	30672	
4	0	30712	
5	0	30768	
6	0	30776	
7	0	30776	
8	0	30768	
9	0	30740	
10	0	30728	
11	0	30760	
12	0	30800	
13	0	30784	
14	0	30788	
15	0	30816	
16	0	30824	
17	0	30864	
18	0	30920	
19	0	30988	
20	0	31032	
21	0	31100	
22	0	31140	
23	0	31160	
24	0	31206	
25	0	31304	
26	0	31364	
27	0	31380	
28	0	31360	
29	0	31312	
30	0	31242	
31	0	31180	
32	0	31200	
33	0	31252	
34	0	31240	
35	0	31192	
36	0	31168	
37	0	31226	
38	0	31296	
39	0	31360	
40	0	31408	
41	0	31440	
42	0	31468	
43	0	31504	
44	0	31572	
45	0	31616	
46	0	31568	
47	0	31520	
48	0	31568	
49	0	31604	
50	0	31622	
51	0	31552	
52	0	31392	
53	0	31336	
54	0	31292	
55	0	31306	
56	0	31324	
57	0	31364	
58	0	31372	
59	0	31416	
60	0	31545	
61	0	31660	
62	0	31708	
63	0	31744	
64	0	31768	
65	0	31752	
66	0	31748	
67	0	31744	
68	0	31696	
69	0	31576	
70	0	31480	
71	0	31476	
72	0	31472	
73	0	31488	
74	0	31456	
75	0	31416	
76	0	31404	
77	0	31460	
78	0	31496	
79	0	31528	
80	0	31560	
81	0	31624	
82	0	31692	
83	0	31716	
84	0	31684	
85	0	31692	
86	0	31704	
87	0	31688	
88	0	31624	
89	0	31572	
90	0	31520	
91	0	31476	
92	0	31416	
93	0	31408	
94	0	31416	
95	0	31440	
96	0	31484	
97	0	31512	
98	0	31568	
99	0	31648	
100	0	31672	
101	0	31648	
102	0	31680	
103	0	31680	
104	0	31680	
105	0	31726	
106	0	31752	
107	0	31752	
108	0	31728	
109	0	31700	
110	0	31666	
111	0	31640	
112	0	31596	
113	0	31548	
114	0	31516	
115	0	31524	
116	0	31540	
117	0	31516	
118	0	31540	
119	0	31612	
120	0	31668	
121	0	31680	
122	0	31676	
123	0	31764	
124	0	31836	
125	0	31856	
126	0	31868	
127	0	31776	
128	0	31696	
129	0	31674	
130	0	31660	
131	0	31596	
132	0	31512	
133	0	31520	
134	0	31576	
135	0	31588	
136	0	31616	
137	0	31680	
138	0	31680	
139	0	31700	
140	0	31756	
141	0	31786	
142	0	31788	
143	0	31776	
144	0	31756	
145	0	31800	
146	0	31848	
147	0	31900	
148	0	31932	
149	0	31928	
150	0	31932	
151	0	31896	
152	0	31876	
153	0	31876	
154	0	31904	
155	0	31968	
156	0	32068	
157	0	32184	
158	0	32288	
159	0	32396	
160	0	32476	
161	0	32556	
162	0	32654	
163	0	32858	
164	0	33072	
165	0	33186	
166	0	33252	
167	0	33312	
168	0	33356	
169	0	33348	
170	0	33240	
171	0	33112	
172	0	33000	
173	0	32918	
174	0	32856	
175	0	32776	
176	0	32712	
177	0	32720	
178	0	32792	
179	0	32872	
180	0	32952	
181	0	33020	
182	0	33184	
183	0	33416	
184	0	33702	
185	0	34032	
186	0	34348	
187	0	34580	
188	0	34732	
189	0	34824	
190	0	34880	
191	0	34928	
192	0	34984	
193	0	35044	
194	0	35060	
195	0	35052	
196	0	35020	
197	0	34968	
198	0	34908	
199	0	34820	
200	0	34748	
201	0	34700	
202	0	34664	
203	0	34520	
204	0	34272	
205	0	34064	
206	0	33932	
207	0	33796	
208	0	33764	
209	0	33700	
210	0	33584	
211	0	33428	
212	0	33244	
213	0	33024	
214	0	32832	
215	0	32816	
216	0	32768	
217	0	32628	
218	0	32528	
219	0	32488	
220	0	32452	
221	0	32432	
222	0	32380	
223	0	32352	
224	0	32304	
225	0	32236	
226	0	32152	
227	0	32076	
228	0	31968	
229	0	31820	
230	0	31680	
231	0	31572	
232	0	31488	
233	0	31308	
234	0	31092	
235	0	30924	
236	0	30822	
237	0	30764	
238	0	30740	
239	0	30744	
240	0	30792	
241	0	30874	
242	0	30912	
243	0	30952	
244	0	31020	
245	0	31028	
246	0	31032	
247	0	31076	
248	0	31076	
249	0	31028	
250	0	30976	
251	0	30944	
252	0	30904	
253	0	30896	
254	0	30912	
255	0	30940	
256	0	30940	
257	0	30956	
258	0	31000	
259	0	31052	
260	0	31132	
261	0	31204	
262	0	31280	
263	0	31376	
264	0	31448	
265	0	31472	
266	0	31448	
267	0	31460	
268	0	31496	
269	0	31472	
270	0	31464	
271	0	31462	
272	0	31468	
273	0	31520	
274	0	31496	
275	0	31400	
276	0	31472	
277	0	31520	
278	0	31520	
279	0	31564	
280	0	31612	
281	0	31624	
282	0	31604	
283	0	31504	
284	0	31368	
285	0	31134	
286	0	30720	
287	0	30156	
288	0	29516	
289	0	28896	
290	0	28400	
291	0	28240	
292	0	28340	
293	0	28540	
294	0	28908	
295	0	29440	
296	0	30216	
297	0	31268	
298	0	32512	
299	0	33896	
300	0	35420	
301	0	37018	
302	0	38724	
303	0	40800	
304	0	43208	
305	0	45912	
306	0	48984	
307	0	52096	
308	0	55040	
309	0	57888	
310	0	60820	
311	0	63148	
312	0	64380	
313	0	64992	
314	0	65264	
315	0	65336	
316	0	65332	
317	0	65264	
318	0	65176	
319	0	65056	
320	0	64944	
321	0	61696	
322	0	56376	
323	0	51920	
324	0	48136	
325	0	44920	
326	0	42200	
327	0	39776	
328	0	37460	
329	0	35396	
330	0	33580	
331	0	31924	
332	0	30480	
333	0	29352	
334	0	28442	
335	0	27812	
336	0	27456	
337	0	27260	
338	0	27188	
339	0	27260	
340	0	27356	
341	0	27324	
342	0	27232	
343	0	27224	
344	0	27276	
345	0	27408	
346	0	27576	
347	0	27796	
348	0	28048	
349	0	28296	
350	0	28532	
351	0	28732	
352	0	28860	
353	0	29000	
354	0	29100	
355	0	29112	
356	0	29136	
357	0	29174	
358	0	29162	
359	0	29144	
360	0	29128	
361	0	29146	
362	0	29172	
363	0	29194	
364	0	29220	
365	0	29224	
366	0	29288	
367	0	29332	
368	0	29348	
369	0	29326	
370	0	29288	
371	0	29276	
372	0	29260	
373	0	29276	
374	0	29284	
375	0	29324	
376	0	29352	
377	0	29404	
378	0	29500	
379	0	29592	
380	0	29684	
381	0	29812	
382	0	29876	
383	0	29914	
384	0	29952	
385	0	30016	
386	0	30044	
387	0	30068	
388	0	30056	
389	0	30036	
390	0	30016	
391	0	30000	
392	0	29988	
393	0	29956	
394	0	29928	
395	0	30002	
396	0	30120	
397	0	30200	
398	0	30260	
399	0	30324	
400	0	30416	
401	0	30524	
402	0	30588	
403	0	30652	
404	0	30704	
405	0	30778	
406	0	30856	
407	0	30900	
408	0	30880	
409	0	30868	
410	0	30904	
411	0	30952	
412	0	30976	
413	0	31000	
414	0	31044	
415	0	31060	
416	0	31084	
417	0	31140	
418	0	31228	
419	0	31328	
420	0	31440	
421	0	31504	
422	0	31568	
423	0	31656	
424	0	31704	
425	0	31732	
426	0	31740	
427	0	31756	
428	0	31792	
429	0	31824	
430	0	31826	
431	0	31842	
432	0	31872	
433	0	31900	
434	0	31912	
435	0	31960	
436	0	32036	
437	0	32096	
438	0	32126	
439	0	32192	
440	0	32292	
441	0	32392	
442	0	32448	
443	0	32512	
444	0	32588	
445	0	32664	
446	0	32700	
447	0	32732	
448	0	32752	
449	0	32776	
450	0	32768	
451	0	32752	
452	0	32800	
453	0	32840	
454	0	32864	
455	0	32908	
456	0	32968	
457	0	33008	
458	0	33068	
459	0	33144	
460	0	33248	
461	0	33348	
462	0	33460	
463	0	33544	
464	0	33588	
465	0	33588	
466	0	33608	
467	0	33660	
468	0	33700	
469	0	33756	
470	0	33792	
471	0	33836	
472	0	33870	
473	0	33900	
474	0	33940	
475	0	33986	
476	0	34016	
477	0	34036	
478	0	34090	
479	0	34164	
480	0	34296	
481	0	34424	
482	0	34552	
483	0	34640	
484	0	34746	
485	0	34792	
486	0	34872	
487	0	34944	
488	0	34968	
489	0	34976	
490	0	35004	
491	0	35004	
492	0	35048	
493	0	35104	
494	0	35196	
495	0	35284	
496	0	35328	
497	0	35384	
498	0	35472	
499	0	35572	
500	0	35688	
501	0	35820	
502	0	35948	
503	0	36060	
504	0	36136	
505	0	36232	
506	0	36296	
507	0	36364	
508	0	36384	
509	0	36388	
510	0	36492	
511	0	36560	
512	0	36604	
513	0	36640	
514	0	36704	
515	0	36760	
516	0	36848	
517	0	36936	
518	0	37040	
519	0	37192	
520	0	37272	
521	0	37288	
522	0	37332	
523	0	37424	
524	0	37512	
525	0	37588	
526	0	37640	
527	0	37672	
528	0	37696	
529	0	37696	
530	0	37720	
531	0	37700	
532	0	37660	
533	0	37600	
534	0	37616	
535	0	37664	
536	0	37696	
537	0	37756	
538	0	37772	
539	0	37824	
540	0	37856	
541	0	37860	
542	0	37884	
543	0	37944	
544	0	37952	
545	0	37936	
546	0	37940	
547	0	37926	
548	0	37868	
549	0	37808	
550	0	37700	
551	0	37630	
552	0	37570	
553	0	37536	
554	0	37506	
555	0	37492	
556	0	37432	
557	0	37396	
558	0	37360	
559	0	37312	
560	0	37272	
561	0	37208	
562	0	37168	
563	0	37148	
564	0	37120	
565	0	37064	
566	0	36944	
567	0	36736	
568	0	36524	
569	0	36280	
570	0	36020	
571	0	35788	
572	0	35544	
573	0	35344	
574	0	35152	
575	0	34924	
576	0	34704	
577	0	34528	
578	0	34364	
579	0	34204	
580	0	33980	
581	0	33780	
582	0	33552	
583	0	33360	
584	0	33152	
585	0	32948	
586	0	32736	
587	0	32500	
588	0	32272	
589	0	32048	
590	0	31832	
591	0	31582	
592	0	31372	
593	0	31152	
594	0	31000	
595	0	30836	
596	0	30684	
597	0	30540	
598	0	30392	
599	0	30308	
600	0	30196	
601	0	30084	
602	0	29992	
603	0	29894	
604	0	29804	
605	0	29700	
606	0	29564	
607	0	29448	
608	0	29386	
609	0	29312	
610	0	29184	
611	0	29060	
612	0	29000	
613	0	28954	
614	0	28888	
615	0	28824	
616	0	28724	
617	0	28644	
618	0	28608	
619	0	28572	
620	0	28560	
621	0	28518	
622	0	28536	
623	0	28572	
624	0	28612	
625	0	28632	
626	0	28648	
627	0	28676	
628	0	28672	
629	0	28644	
630	0	28642	
631	0	28644	
632	0	28584	
633	0	28564	
634	0	28600	
635	0	28596	
636	0	28538	
637	0	28536	
638	0	28560	
639	0	28608	
640	0	28682	
641	0	28772	
642	0	28872	
643	0	28952	
644	0	29012	
645	0	29032	
646	0	29024	
647	0	29056	
648	0	29060	
649	0	29036	
650	0	28988	
651	0	28988	
652	0	29008	
653	0	29052	
654	0	29110	
655	0	29152	
656	0	29200	
657	0	29280	
658	0	29360	
659	0	29416	
660	0	29512	
661	0	29580	
662	0	29656	
663	0	29740	
664	0	29812	
665	0	29888	
666	0	29956	
667	0	30052	
668	0	30104	
669	0	30096	
670	0	30084	
671	0	30104	
672	0	30092	
673	0	30032	
674	0	30016	
675	0	30028	
676	0	30044	
677	0	30076	
678	0	30112	
679	0	30172	
680	0	30232	
681	0	30308	
682	0	30388	
683	0	30480	
684	0	30552	
685	0	30616	
686	0	30684	
687	0	30732	
688	0	30752	
689	0	30744	
690	0	30716	
691	0	30680	
692	0	30644	
693	0	30644	
694	0	30636	
695	0	30648	
696	0	30656	
697	0	30692	
698	0	30732	
699	0	30788	
700	0	30864	
701	0	30940	
702	0	30976	
703	0	30988	
704	0	31040	
705	0	31112	
706	0	31160	
707	0	31184	
708	0	31144	
709	0	31088	
710	0	31044	
711	0	31020	
712	0	30984	
713	0	30996	
714	0	31020	
715	0	31024	
716	0	31064	
717	0	31060	
718	0	31024	
719	0	31076	
720	0	31156	
721	0	31248	
722	0	31332	
723	0	31440	
724	0	31484	
725	0	31512	
726	0	31492	
727	0	31496	
728	0	31476	
729	0	31420	
730	0	31376	
731	0	31346	
732	0	31320	
733	0	31320	
734	0	31328	
735	0	31350	
736	0	31348	
737	0	31364	
738	0	31396	
739	0	31460	
740	0	31508	
741	0	31554	
742	0	31586	
743	0	31608	
744	0	31600	
745	0	31640	
746	0	31696	
747	0	31680	
748	0	31616	
749	0	31580	
750	0	31580	
751	0	31528	
752	0	31518	
753	0	31490	
754	0	31456	
755	0	31452	
756	0	31460	
757	0	31464	
758	0	31504	
759	0	31544	
760	0	31536	
761	0	31552	
762	0	31540	
763	0	31572	
764	0	31592	
765	0	31608	
766	0	31600	
767	0	31584	
768	0	31584	
769	0	31540	
770	0	31496	
771	0	31496	
772	0	31492	
773	0	31460	
774	0	31436	
775	0	31448	
776	0	31444	
777	0	31428	
778	0	31440	
779	0	31440	
780	0	31484	
781	0	31490	
782	0	31508	
783	0	31528	
784	0	31552	
785	0	31584	
786	0	31616	
787	0	31616	
788	0	31592	
789	0	31552	
790	0	31552	
791	0	31588	
792	0	31584	
793	0	31548	
794	0	31524	
795	0	31520	
796	0	31504	
797	0	31476	
798	0	31468	
799	0	31496	
800	0	31520	
801	0	31600	
802	0	31696	
803	0	31724	
804	0	31732	
805	0	31760	
806	0	31760	
807	0	31752	
808	0	31768	
809	0	31792	
810	0	31754	
811	0	31696	
812	0	31650	
813	0	31632	
814	0	31614	
815	0	31616	
816	0	31660	
817	0	31676	
818	0	31680	
819	0	31680	
820	0	31704	
821	0	31748	
822	0	31824	
823	0	31900	
824	0	31948	
825	0	31980	
826	0	31984	
827	0	31996	
828	0	31960	
829	0	31924	
830	0	31872	
831	0	31820	
832	0	31820	
833	0	31816	
834	0	31832	
835	0	31828	
836	0	31816	
837	0	31784	
838	0	31800	
839	0	31832	
840	0	31872	
841	0	31912	
842	0	31956	
843	0	31980	
844	0	32018	
845	0	32072	
846	0	32084	
847	0	32064	
848	0	32028	
849	0	32008	
850	0	31924	
851	0	31852	
852	0	31808	
853	0	31864	
854	0	31940	
855	0	31936	
856	0	31940	
857	0	31966	
858	0	31956	
859	0	31920	
860	0	31928	
861	0	31970	
862	0	32072	
863	0	32176	
864	0	32206	
865	0	32208	
866	0	32212	
867	0	32186	
868	0	32176	
869	0	32148	
870	0	32116	
871	0	32116	
872	0	32112	
873	0	32196	
874	0	32220	
875	0	32176	
876	0	32164	
877	0	32192	
878	0	32284	
879	0	32400	
880	0	32500	
881	0	32552	
882	0	32636	
883	0	32768	
884	0	32898	
885	0	33028	
886	0	33160	
887	0	33220	
888	0	33234	
889	0	33216	
890	0	33176	
891	0	33112	
892	0	33026	
893	0	32944	
894	0	32826	
895	0	32732	
896	0	32704	
897	0	32648	
898	0	32632	
899	0	32672	
900	0	32728	
901	0	32780	
902	0	32858	
903	0	32980	
904	0	33152	
905	0	33420	
906	0	33740	
907	0	34048	
908	0	34284	
909	0	34468	
910	0	34692	
911	0	34856	
912	0	34968	
913	0	35068	
914	0	35184	
915	0	35312	
916	0	35360	
917	0	35360	
918	0	35288	
919	0	35202	
920	0	35052	
921	0	34932	
922	0	34836	
923	0	34772	
924	0	34648	
925	0	34482	
926	0	34302	
927	0	34176	
928	0	34064	
929	0	33888	
930	0	33692	
931	0	33552	
932	0	33440	
933	0	33312	
934	0	33144	
935	0	32976	
936	0	32876	
937	0	32816	
938	0	32800	
939	0	32732	
940	0	32608	
941	0	32504	
942	0	32444	
943	0	32440	
944	0	32432	
945	0	32368	
946	0	32304	
947	0	32212	
948	0	32064	
949	0	31968	
950	0	31840	
951	0	31704	
952	0	31592	
953	0	31536	
954	0	31456	
955	0	31384	
956	0	31276	
957	0	31168	
958	0	31112	
959	0	31092	
960	0	31060	
961	0	31045	
962	0	31084	
963	0	31164	
964	0	31224	
965	0	31260	
966	0	31256	
967	0	31208	
968	0	31152	
969	0	31080	
970	0	31036	
971	0	31004	
972	0	30958	
973	0	30920	
974	0	30892	
975	0	30890	
976	0	30932	
977	0	30964	
978	0	31004	
979	0	31048	
980	0	31104	
981	0	31156	
982	0	31276	
983	0	31344	
984	0	31408	
985	0	31448	
986	0	31476	
987	0	31520	
988	0	31512	
989	0	31474	
990	0	31424	
991	0	31380	
992	0	31380	
993	0	31392	
994	0	31420	
995	0	31464	
996	0	31522	
997	0	31544	
998	0	31572	
999	0	31624	
1000	0	31664	
1001	0	31676	
1002	0	31648	
1003	0	31596	
1004	0	31508	
1005	0	31360	
1006	0	31136	
1007	0	30788	
1008	0	30232	
1009	0	29568	
1010	0	28960	
1011	0	28548	
1012	0	28332	
1013	0	28280	
1014	0	28410	
1015	0	28794	
1016	0	29396	
1017	0	30196	
1018	0	31328	
1019	0	32584	
1020	0	33908	
1021	0	35292	
1022	0	36768	
1023	0	38368	
1024	0	40260	
1025	0	42560	
1026	0	45240	
1027	0	48128	
1028	0	51040	
1029	0	53940	
1030	0	56720	
1031	0	59552	
1032	0	62288	
1033	0	63888	
1034	0	64688	
1035	0	65072	
1036	0	65204	
1037	0	65228	
1038	0	65176	
1039	0	65092	
1040	0	64984	
1041	0	62400	
1042	0	57048	
1043	0	51968	
1044	0	47520	
1045	0	43856	
1046	0	40816	
1047	0	38368	
1048	0	36352	
1049	0	34538	
1050	0	32920	
1051	0	31396	
1052	0	29912	
1053	0	28444	
1054	0	27200	
1055	0	26272	
1056	0	25644	
1057	0	25312	
1058	0	25268	
1059	0	25434	
1060	0	25640	
1061	0	25828	
1062	0	25876	
1063	0	25908	
1064	0	26068	
1065	0	26284	
1066	0	26552	
1067	0	26880	
1068	0	27232	
1069	0	27560	
1070	0	27860	
1071	0	28216	
1072	0	28576	
1073	0	28840	
1074	0	29060	
1075	0	29260	
1076	0	29448	
1077	0	29568	
1078	0	29636	
1079	0	29685	
1080	0	29728	
1081	0	29776	
1082	0	29800	
1083	0	29852	
1084	0	29880	
1085	0	29908	
1086	0	29956	
1087	0	30000	
1088	0	29998	
1089	0	29996	
1090	0	30000	
1091	0	29968	
1092	0	29932	
1093	0	29940	
1094	0	29982	
1095	0	30000	
1096	0	30024	
1097	0	30064	
1098	0	30120	
1099	0	30160	
1100	0	30250	
1101	0	30304	
1102	0	30344	
1103	0	30400	
1104	0	30468	
1105	0	30496	
1106	0	30556	
1107	0	30648	
1108	0	30722	
1109	0	30732	
1110	0	30712	
1111	0	30696	
1112	0	30688	
1113	0	30688	
1114	0	30704	
1115	0	30756	
1116	0	30832	
1117	0	30928	
1118	0	30988	
1119	0	30970	
1120	0	31020	
1121	0	31080	
1122	0	31140	
1123	0	31260	
1124	0	31368	
1125	0	31464	
1126	0	31556	
1127	0	31596	
1128	0	31600	
1129	0	31584	
1130	0	31572	
1131	0	31544	
1132	0	31536	
1133	0	31536	
1134	0	31572	
1135	0	31608	
1136	0	31652	
1137	0	31700	
1138	0	31764	
1139	0	31864	
1140	0	31964	
1141	0	32064	
1142	0	32172	
1143	0	32284	
1144	0	32376	
1145	0	32444	
1146	0	32504	
1147	0	32520	
1148	0	32518	
1149	0	32540	
1150	0	32544	
1151	0	32520	
1152	0	32500	
1153	0	32524	
1154	0	32520	
1155	0	32452	
1156	0	32460	
1157	0	32496	
1158	0	32560	
1159	0	32664	
1160	0	32816	
1161	0	32948	
1162	0	32992	
1163	0	33048	
1164	0	33112	
1165	0	33184	
1166	0	33232	
1167	0	33276	
1168	0	33346	
1169	0	33388	
1170	0	33408	
1171	0	33408	
1172	0	33390	
1173	0	33352	
1174	0	33380	
1175	0	33424	
1176	0	33502	
1177	0	33572	
1178	0	33640	
1179	0	33696	
1180	0	33768	
1181	0	33852	
1182	0	33968	
1183	0	34048	
1184	0	34096	
1185	0	34156	
1186	0	34228	
1187	0	34272	
1188	0	34316	
1189	0	34368	
1190	0	34416	
1191	0	34424	
1192	0	34432	
1193	0	34436	
1194	0	34464	
1195	0	34540	
1196	0	34584	
1197	0	34640	
1198	0	34728	
1199	0	34796	
1200	0	34876	
1201	0	34936	
1202	0	35040	
1203	0	35124	
1204	0	35192	
1205	0	35264	
1206	0	35324	
1207	0	35376	
1208	0	35440	
1209	0	35520	
1210	0	35552	
1211	0	35572	
1212	0	35564	
1213	0	35584	
1214	0	35588	
1215	0	35640	
1216	0	35676	
1217	0	35768	
1218	0	35884	
1219	0	35984	
1220	0	36072	
1221	0	36186	
1222	0	36280	
1223	0	36424	
1224	0	36524	
1225	0	36640	
1226	0	36714	
1227	0	36788	
1228	0	36856	
1229	0	36920	
1230	0	36960	
1231	0	36964	
1232	0	36968	
1233	0	37000	
1234	0	37048	
1235	0	37056	
1236	0	37052	
1237	0	37096	
1238	0	37208	
1239	0	37356	
1240	0	37424	
1241	0	37464	
1242	0	37520	
1243	0	37584	
1244	0	37632	
1245	0	37712	
1246	0	37772	
1247	0	37816	
1248	0	37844	
1249	0	37840	
1250	0	37848	
1251	0	37844	
1252	0	37812	
1253	0	37804	
1254	0	37820	
1255	0	37832	
1256	0	37864	
1257	0	37880	
1258	0	37896	
1259	0	37912	
1260	0	37920	
1261	0	37934	
1262	0	37972	
1263	0	38004	
1264	0	38008	
1265	0	38020	
1266	0	38028	
1267	0	38024	
1268	0	38020	
1269	0	37996	
1270	0	37940	
1271	0	37880	
1272	0	37836	
1273	0	37772	
1274	0	37688	
1275	0	37612	
1276	0	37528	
1277	0	37512	
1278	0	37516	
1279	0	37498	
1280	0	37444	
1281	0	37412	
1282	0	37384	
1283	0	37328	
1284	0	37252	
1285	0	37132	
1286	0	36984	
1287	0	36856	
1288	0	36688	
1289	0	36528	
1290	0	36396	
1291	0	36264	
1292	0	36096	
1293	0	35860	
1294	0	35628	
1295	0	35424	
1296	0	35240	
1297	0	35064	
1298	0	34880	
1299	0	34680	
1300	0	34496	
1301	0	34308	
1302	0	34132	
1303	0	33952	
1304	0	33772	
1305	0	33566	
1306	0	33352	
1307	0	33140	
1308	0	32908	
1309	0	32620	
1310	0	32360	
1311	0	32156	
1312	0	31938	
1313	0	31736	
1314	0	31552	
1315	0	31340	
1316	0	31144	
1317	0	31004	
1318	0	30868	
1319	0	30700	
1320	0	30560	
1321	0	30432	
1322	0	30320	
1323	0	30208	
1324	0	30080	
1325	0	29984	
1326	0	29868	
1327	0	29786	
1328	0	29656	
1329	0	29508	
1330	0	29408	
1331	0	29280	
1332	0	29164	
1333	0	29040	
1334	0	28928	
1335	0	28880	
1336	0	28828	
1337	0	28740	
1338	0	28654	
1339	0	28596	
1340	0	28586	
1341	0	28618	
1342	0	28656	
1343	0	28692	
1344	0	28676	
1345	0	28636	
1346	0	28648	
1347	0	28624	
1348	0	28576	
1349	0	28520	
1350	0	28504	
1351	0	28488	
1352	0	28448	
1353	0	28388	
1354	0	28348	
1355	0	28314	
1356	0	28312	
1357	0	28360	
1358	0	28424	
1359	0	28482	
1360	0	28564	
1361	0	28636	
1362	0	28680	
1363	0	28768	
1364	0	28832	
1365	0	28868	
1366	0	28904	
1367	0	28960	
1368	0	28996	
1369	0	29012	
1370	0	28980	
1371	0	28970	
1372	0	29000	
1373	0	29012	
1374	0	29024	
1375	0	29092	
1376	0	29168	
1377	0	29208	
1378	0	29208	
1379	0	29224	
1380	0	29312	
1381	0	29402	
1382	0	29476	
1383	0	29548	
1384	0	29600	
1385	0	29584	
1386	0	29660	
1387	0	29752	
1388	0	29776	
1389	0	29752	
1390	0	29736	
1391	0	29772	
1392	0	29814	
1393	0	29872	
1394	0	29932	
1395	0	29952	
1396	0	29932	
1397	0	29916	
1398	0	29956	
1399	0	30052	
1400	0	30148	
1401	0	30248	
1402	0	30300	
1403	0	30352	
1404	0	30428	
1405	0	30496	
1406	0	30548	
1407	0	30588	
1408	0	30610	
1409	0	30640	
1410	0	30596	
1411	0	30532	
1412	0	30488	
1413	0	30468	
1414	0	30428	
1415	0	30468	
1416	0	30572	
1417	0	30640	
1418	0	30670	
1419	0	30728	
1420	0	30784	
1421	0	30864	
1422	0	30976	
1423	0	31056	
1424	0	31060	
1425	0	31104	
1426	0	31160	
1427	0	31212	
1428	0	31200	
1429	0	31156	
1430	0	31120	
1431	0	31104	
1432	0	31072	
1433	0	31060	
1434	0	31052	
1435	0	31074	
1436	0	31092	
1437	0	31136	
1438	0	31176	
1439	0	31244	
1440	0	31308	
1441	0	31360	
1442	0	31408	
1443	0	31456	
1444	0	31532	
1445	0	31560	
1446	0	31588	
1447	0	31576	
1448	0	31556	
1449	0	31528	
1450	0	31488	
1451	0	31456	
1452	0	31444	
1453	0	31416	
1454	0	31392	
1455	0	31374	
1456	0	31352	
1457	0	31332	
1458	0	31336	
1459	0	31370	
1460	0	31424	
1461	0	31480	
1462	0	31536	
1463	0	31576	
1464	0	31592	
1465	0	31632	
1466	0	31672	
1467	0	31704	
1468	0	31648	
1469	0	31596	
1470	0	31568	
1471	0	31528	
1472	0	31456	
1473	0	31400	
1474	0	31320	
1475	0	31264	
1476	0	31252	
1477	0	31260	
1478	0	31264	
1479	0	31256	
1480	0	31288	
1481	0	31340	
1482	0	31388	
1483	0	31416	
1484	0	31456	
1485	0	31464	
1486	0	31476	
1487	0	31496	
1488	0	31516	
1489	0	31468	
1490	0	31440	
1491	0	31408	
1492	0	31380	
1493	0	31356	
1494	0	31284	
1495	0	31256	
1496	0	31240	
1497	0	31248	
1498	0	31276	
1499	0	31344	
1500	0	31360	
1501	0	31440	
1502	0	31520	
1503	0	31556	
1504	0	31580	
1505	0	31588	
1506	0	31592	
1507	0	31568	
1508	0	31524	
1509	0	31490	
1510	0	31456	
1511	0	31408	
1512	0	31360	
1513	0	31322	
1514	0	31276	
1515	0	31276	
1516	0	31272	
1517	0	31272	
1518	0	31276	
1519	0	31276	
1520	0	31328	
1521	0	31352	
1522	0	31396	
1523	0	31456	
1524	0	31552	
1525	0	31620	
1526	0	31646	
1527	0	31660	
1528	0	31608	
1529	0	31572	
1530	0	31520	
1531	0	31420	
1532	0	31364	
1533	0	31320	
1534	0	31272	
1535	0	31296	
1536	0	31322	
1537	0	31330	
1538	0	31320	
1539	0	31380	
1540	0	31468	
1541	0	31584	
1542	0	31672	
1543	0	31736	
1544	0	31720	
1545	0	31680	
1546	0	31680	
1547	0	31728	
1548	0	31712	
1549	0	31662	
1550	0	31624	
1551	0	31584	
1552	0	31584	
1553	0	31556	
1554	0	31524	
1555	0	31524	
1556	0	31532	
1557	0	31548	
1558	0	31596	
1559	0	31656	
1560	0	31724	
1561	0	31728	
1562	0	31764	
1563	0	31844	
1564	0	31900	
1565	0	31960	
1566	0	31978	
1567	0	31980	
1568	0	31976	
1569	0	31932	
1570	0	31868	
1571	0	31804	
1572	0	31788	
1573	0	31752	
1574	0	31740	
1575	0	31748	
1576	0	31740	
1577	0	31748	
1578	0	31780	
1579	0	31848	
1580	0	31880	
1581	0	31924	
1582	0	31980	
1583	0	32036	
1584	0	32118	
1585	0	32148	
1586	0	32164	
1587	0	32266	
1588	0	32336	
1589	0	32384	
1590	0	32488	
1591	0	32564	
1592	0	32584	
1593	0	32592	
1594	0	32648	
1595	0	32740	
1596	0	32844	
1597	0	32916	
1598	0	32992	
1599	0	33076	
1600	0	33152	
1601	0	33232	
1602	0	33252	
1603	0	33260	
1604	0	33232	
1605	0	33232	
1606	0	33228	
1607	0	33168	
1608	0	33056	
1609	0	32996	
1610	0	32980	
1611	0	32944	
1612	0	32866	
1613	0	32816	
1614	0	32860	
1615	0	32968	
1616	0	33152	
1617	0	33408	
1618	0	33712	
1619	0	34016	
1620	0	34304	
1621	0	34508	
1622	0	34688	
1623	0	34840	
1624	0	34960	
1625	0	35084	
1626	0	35200	
1627	0	35248	
1628	0	35124	
1629	0	35004	
1630	0	34896	
1631	0	34736	
1632	0	34612	
1633	0	34528	
1634	0	34420	
1635	0	34260	
1636	0	34072	
1637	0	33882	
1638	0	33756	
1639	0	33684	
1640	0	33626	
1641	0	33556	
1642	0	33488	
1643	0	33408	
1644	0	33304	
1645	0	33192	
1646	0	33132	
1647	0	33064	
1648	0	33026	
1649	0	32932	
1650	0	32738	
1651	0	32576	
1652	0	32424	
1653	0	32304	
1654	0	32264	
1655	0	32236	
1656	0	32176	
1657	0	32108	
1658	0	32004	
1659	0	31940	
1660	0	31888	
1661	0	31808	
1662	0	31736	
1663	0	31692	
1664	0	31688	
1665	0	31648	
1666	0	31556	
1667	0	31384	
1668	0	31152	
1669	0	31048	
1670	0	30956	
1671	0	30864	
1672	0	30848	
1673	0	30880	
1674	0	30876	
1675	0	30892	
1676	0	30880	
1677	0	30874	
1678	0	30884	
1679	0	30916	
1680	0	31008	
1681	0	31100	
1682	0	31144	
1683	0	31184	
1684	0	31220	
1685	0	31280	
1686	0	31296	
1687	0	31316	
1688	0	31300	
1689	0	31264	
1690	0	31276	
1691	0	31300	
1692	0	31340	
1693	0	31340	
1694	0	31296	
1695	0	31256	
1696	0	31300	
1697	0	31356	
1698	0	31356	
1699	0	31376	
1700	0	31412	
1701	0	31444	
1702	0	31448	
1703	0	31522	
1704	0	31624	
1705	0	31648	
1706	0	31660	
1707	0	31692	
1708	0	31704	
1709	0	31728	
1710	0	31776	
1711	0	31804	
1712	0	31780	
1713	0	31764	
1714	0	31708	
1715	0	31580	
1716	0	31448	
1717	0	31252	
1718	0	30920	
1719	0	30520	
1720	0	30036	
1721	0	29480	
1722	0	29028	
1723	0	28720	
1724	0	28628	
1725	0	28716	
1726	0	29020	
1727	0	29504	
1728	0	30136	
1729	0	30970	
1730	0	31980	
1731	0	33076	
1732	0	34370	
1733	0	35860	
1734	0	37412	
1735	0	39184	
1736	0	41328	
1737	0	43688	
1738	0	46448	
1739	0	49528	
1740	0	52636	
1741	0	55620	
1742	0	58480	
1743	0	61370	
1744	0	63328	
1745	0	64348	
1746	0	64816	
1747	0	65016	
1748	0	65064	
1749	0	65032	
1750	0	64952	
1751	0	64840	
1752	0	64740	
1753	0	64624	
1754	0	59008	
1755	0	54008	
1756	0	49800	
1757	0	46200	
1758	0	43232	
1759	0	40754	
1760	0	38496	
1761	0	36378	
1762	0	34552	
1763	0	32892	
1764	0	31416	
1765	0	30204	
1766	0	29236	
1767	0	28400	
1768	0	27780	
1769	0	27432	
1770	0	27262	
1771	0	27260	
1772	0	27328	
1773	0	27384	
1774	0	27280	
1775	0	27216	
1776	0	27260	
1777	0	27324	
1778	0	27504	
1779	0	27772	
1780	0	28080	
1781	0	28420	
1782	0	28700	
1783	0	28960	
1784	0	29236	
1785	0	29452	
1786	0	29632	
1787	0	29752	
1788	0	29780	
1789	0	29764	
1790	0	29674	
1791	0	29560	
1792	0	29406	
1793	0	29292	
1794	0	29252	
1795	0	29236	
1796	0	29224	
1797	0	29208	
1798	0	29196	
1799	0	29220	
1800	0	29288	
1801	0	29354	
1802	0	29448	
1803	0	29536	
1804	0	29644	
1805	0	29700	
1806	0	29716	
1807	0	29712	
1808	0	29698	
1809	0	29704	
1810	0	29720	
1811	0	29744	
1812	0	29736	
1813	0	29724	
1814	0	29724	
1815	0	29720	
1816	0	29768	
1817	0	29836	
1818	0	29872	
1819	0	29904	
1820	0	29960	
1821	0	30048	
1822	0	30144	
1823	0	30210	
1824	0	30280	
1825	0	30382	
1826	0	30432	
1827	0	30514	
1828	0	30540	
1829	0	30532	
1830	0	30530	
1831	0	30554	
1832	0	30612	
1833	0	30632	
1834	0	30644	
1835	0	30656	
1836	0	30700	
1837	0	30808	
1838	0	30892	
1839	0	30968	
1840	0	30992	
1841	0	31032	
1842	0	31120	
1843	0	31192	
1844	0	31268	
1845	0	31332	
1846	0	31394	
1847	0	31460	
1848	0	31496	
1849	0	31488	
1850	0	31436	
1851	0	31460	
1852	0	31500	
1853	0	31584	
1854	0	31672	
1855	0	31664	
1856	0	31628	
1857	0	31652	
1858	0	31712	
1859	0	31770	
1860	0	31844	
1861	0	31908	
1862	0	31928	
1863	0	31924	
1864	0	31972	
1865	0	32054	
1866	0	32144	
1867	0	32160	
1868	0	32140	
1869	0	32116	
1870	0	32108	
1871	0	32144	
1872	0	32176	
1873	0	32200	
1874	0	32232	
1875	0	32224	
1876	0	32236	
1877	0	32264	
1878	0	32284	
1879	0	32364	
1880	0	32480	
1881	0	32592	
1882	0	32688	
1883	0	32776	
1884	0	32876	
1885	0	32992	
1886	0	33088	
1887	0	33208	
1888	0	33228	
1889	0	33216	
1890	0	33184	
1891	0	33124	
1892	0	33102	
1893	0	33112	
1894	0	33168	
1895	0	33232	
1896	0	33292	
1897	0	33332	
1898	0	33372	
1899	0	33456	
1900	0	33564	
1901	0	33632	
1902	0	33682	
1903	0	33736	
1904	0	33818	
1905	0	33892	
1906	0	33960	
1907	0	34020	
1908	0	34092	
1909	0	34140	
1910	0	34144	
1911	0	34144	
1912	0	34192	
1913	0	34216	
1914	0	34236	
1915	0	34308	
1916	0	34376	
1917	0	34428	
1918	0	34484	
1919	0	34584	
1920	0	34682	
1921	0	34796	
1922	0	34920	
1923	0	35052	
1924	0	35128	
1925	0	35232	
1926	0	35352	
1927	0	35416	
1928	0	35504	
1929	0	35632	
1930	0	35684	
1931	0	35676	
1932	0	35648	
1933	0	35712	
1934	0	35736	
1935	0	35752	
1936	0	35776	
1937	0	35808	
1938	0	35856	
1939	0	35932	
1940	0	36008	
1941	0	36100	
1942	0	36260	
1943	0	36368	
1944	0	36448	
1945	0	36528	
1946	0	36636	
1947	0	36736	
1948	0	36856	
1949	0	36948	
1950	0	37004	
1951	0	37056	
1952	0	37084	
1953	0	37088	
1954	0	37120	
1955	0	37136	
1956	0	37156	
1957	0	37180	
1958	0	37204	
1959	0	37248	
1960	0	37316	
1961	0	37392	
1962	0	37344	
1963	0	37312	
1964	0	37396	
1965	0	37504	
1966	0	37568	
1967	0	37652	
1968	0	37680	
1969	0	37706	
1970	0	37664	
1971	0	37620	
1972	0	37608	
1973	0	37596	
1974	0	37608	
1975	0	37616	
1976	0	37616	
1977	0	37568	
1978	0	37520	
1979	0	37496	
1980	0	37432	
1981	0	37412	
1982	0	37426	
1983	0	37500	
1984	0	37568	
1985	0	37568	
1986	0	37528	
1987	0	37486	
1988	0	37432	
1989	0	37332	
1990	0	37188	
1991	0	37072	
1992	0	36940	
1993	0	36840	
1994	0	36820	
1995	0	36780	
1996	0	36660	
1997	0	36576	
1998	0	36448	
1999	0	36324	
2000	0	36240	
2001	0	36144	
2002	0	36024	
2003	0	35948	
2004	0	35888	
2005	0	35696	
2006	0	35460	
2007	0	35132	
2008	0	34848	
2009	0	34592	
2010	0	34312	
2011	0	34128	
2012	0	33964	
2013	0	33818	
2014	0	33632	
2015	0	33368	
2016	0	33124	
2017	0	32908	
2018	0	32712	
2019	0	32456	
2020	0	32224	
2021	0	32016	
2022	0	31824	
2023	0	31690	
2024	0	31592	
2025	0	31484	
2026	0	31346	
2027	0	31200	
2028	0	31044	
2029	0	30900	
2030	0	30708	
2031	0	30466	
2032	0	30226	
2033	0	30016	
2034	0	29856	
2035	0	29640	
2036	0	29524	
2037	0	29432	
2038	0	29248	
2039	0	29160	
2040	0	29116	
2041	0	29056	
2042	0	29048	
2043	0	29036	
2044	0	29024	
2045	0	29000	
2046	0	28908	
2047	0	28748	
2048	0	28666	
2049	0	28628	
2050	0	28552	
2051	0	28540	
2052	0	28500	
2053	0	28456	
2054	0	28448	
2055	0	28432	
2056	0	28396	
2057	0	28376	
2058	0	28316	
2059	0	28304	
2060	0	28308	
2061	0	28348	
2062	0	28388	
2063	0	28436	
2064	0	28444	
2065	0	28404	
2066	0	28380	
2067	0	28348	
2068	0	28336	
2069	0	28360	
2070	0	28396	
2071	0	28420	
2072	0	28440	
2073	0	28448	
2074	0	28468	
2075	0	28522	
2076	0	28536	
2077	0	28580	
2078	0	28682	
2079	0	28748	
2080	0	28832	
2081	0	28848	
2082	0	28910	
2083	0	28992	
2084	0	29060	
2085	0	29162	
2086	0	29264	
2087	0	29320	
2088	0	29376	
2089	0	29424	
2090	0	29448	
2091	0	29440	
2092	0	29428	
2093	0	29384	
2094	0	29308	
2095	0	29348	
2096	0	29456	
2097	0	29520	
2098	0	29564	
2099	0	29592	
2100	0	29640	
2101	0	29632	
2102	0	29632	
2103	0	29728	
2104	0	29812	
2105	0	29968	
2106	0	30156	
2107	0	30272	
2108	0	30320	
2109	0	30328	
2110	0	30376	
2111	0	30336	
2112	0	30256	
2113	0	30176	
2114	0	30136	
2115	0	30196	
2116	0	30284	
2117	0	30316	
2118	0	30288	
2119	0	30272	
2120	0	30320	
2121	0	30394	
2122	0	30504	
2123	0	30530	
2124	0	30536	
2125	0	30548	
2126	0	30628	
2127	0	30784	
2128	0	30840	
2129	0	30904	
2130	0	30880	
2131	0	30776	
2132	0	30720	
2133	0	30696	
2134	0	30712	
2135	0	30776	
2136	0	30872	
2137	0	30940	
2138	0	30964	
2139	0	31040	
2140	0	31144	
2141	0	31216	
2142	0	31194	
2143	0	31136	
2144	0	31132	
2145	0	31116	
2146	0	31112	
2147	0	31106	
2148	0	31168	
2149	0	31252	
2150	0	31252	
2151	0	31148	
2152	0	31084	
2153	0	31034	
2154	0	31060	
2155	0	31116	
2156	0	31200	
2157	0	31264	
2158	0	31272	
2159	0	31304	
2160	0	31356	
2161	0	31408	
2162	0	31484	
2163	0	31568	
2164	0	31624	
2165	0	31640	
2166	0	31656	
2167	0	31652	
2168	0	31684	
2169	0	31696	
2170	0	31708	
2171	0	31780	
2172	0	31792	
2173	0	31804	
2174	0	31816	
2175	0	31796	
2176	0	31768	
2177	0	31784	
2178	0	31808	
2179	0	31804	
2180	0	31816	
2181	0	31844	
2182	0	31896	
2183	0	31860	
2184	0	31836	
2185	0	31876	
2186	0	31840	
2187	0	31796	
2188	0	31756	
2189	0	31744	
2190	0	31764	
2191	0	31752	
2192	0	31760	
2193	0	31712	
2194	0	31668	
2195	0	31660	
2196	0	31708	
2197	0	31760	
2198	0	31800	
2199	0	31808	
2200	0	31816	
2201	0	31796	
2202	0	31764	
2203	0	31704	
2204	0	31676	
2205	0	31674	
2206	0	31672	
2207	0	31696	
2208	0	31776	
2209	0	31834	
2210	0	31832	
2211	0	31788	
2212	0	31704	
2213	0	31608	
2214	0	31530	
2215	0	31552	
2216	0	31604	
2217	0	31628	
2218	0	31640	
2219	0	31648	
2220	0	31664	
2221	0	31712	
2222	0	31768	
2223	0	31792	
2224	0	31808	
2225	0	31842	
2226	0	31844	
2227	0	31844	
2228	0	31840	
2229	0	31808	
2230	0	31808	
2231	0	31788	
2232	0	31712	
2233	0	31584	
2234	0	31468	
2235	0	31436	
2236	0	31456	
2237	0	31468	
2238	0	31448	
2239	0	31524	
2240	0	31584	
2241	0	31588	
2242	0	31568	
2243	0	31600	
2244	0	31664	
2245	0	31712	
2246	0	31724	
2247	0	31700	
2248	0	31640	
2249	0	31632	
2250	0	31612	
2251	0	31632	
2252	0	31672	
2253	0	31700	
2254	0	31704	
2255	0	31728	
2256	0	31730	
2257	0	31768	
2258	0	31796	
2259	0	31820	
2260	0	31888	
2261	0	31952	
2262	0	31988	
2263	0	32028	
2264	0	32132	
2265	0	32112	
2266	0	31976	
2267	0	31896	
2268	0	31860	
2269	0	31822	
2270	0	31792	
2271	0	31804	
2272	0	31856	
2273	0	31880	
2274	0	31888	
2275	0	31884	
2276	0	31904	
2277	0	31956	
2278	0	32004	
2279	0	32024	
2280	0	32048	
2281	0	32068	
2282	0	32048	
2283	0	32116	
2284	0	32236	
2285	0	32320	
2286	0	32372	
2287	0	32416	
2288	0	32416	
2289	0	32416	
2290	0	32424	
2291	0	32400	
2292	0	32376	
2293	0	32340	
2294	0	32280	
2295	0	32220	
2296	0	32196	
2297	0	32193	
2298	0	32248	
2299	0	32328	
2300	0	32388	
2301	0	32416	
2302	0	32464	
2303	0	32588	
2304	0	32756	
2305	0	32926	
2306	0	33056	
2307	0	33216	
2308	0	33412	
2309	0	33512	
2310	0	33472	
2311	0	33364	
2312	0	33304	
2313	0	33268	
2314	0	33188	
2315	0	33116	
2316	0	33032	
2317	0	32996	
2318	0	32988	
2319	0	32940	
2320	0	32876	
2321	0	32864	
2322	0	32900	
2323	0	33076	
2324	0	33216	
2325	0	33376	
2326	0	33594	
2327	0	33904	
2328	0	34208	
2329	0	34484	
2330	0	34668	
2331	0	34812	
2332	0	34946	
2333	0	35024	
2334	0	35152	
2335	0	35292	
2336	0	35412	
2337	0	35453	
2338	0	35412	
2339	0	35380	
2340	0	35328	
2341	0	35288	
2342	0	35232	
2343	0	35136	
2344	0	35112	
2345	0	35104	
2346	0	34980	
2347	0	34796	
2348	0	34600	
2349	0	34444	
2350	0	34296	
2351	0	34178	
2352	0	34056	
2353	0	33928	
2354	0	33712	
2355	0	33500	
2356	0	33392	
2357	0	33308	
2358	0	33304	
2359	0	33268	
2360	0	33232	
2361	0	33248	
2362	0	33248	
2363	0	33264	
2364	0	33256	
2365	0	33204	
2366	0	33108	
2367	0	33020	
2368	0	32944	
2369	0	32858	
2370	0	32692	
2371	0	32524	
2372	0	32384	
2373	0	32264	
2374	0	32152	
2375	0	32032	
2376	0	31888	
2377	0	31732	
2378	0	31626	
2379	0	31520	
2380	0	31480	
2381	0	31424	
2382	0	31400	
2383	0	31470	
2384	0	31504	
2385	0	31528	
2386	0	31544	
2387	0	31532	
2388	0	31512	
2389	0	31544	
2390	0	31584	
2391	0	31612	
2392	0	31648	
2393	0	31576	
2394	0	31568	
2395	0	31572	
2396	0	31552	
2397	0	31588	
2398	0	31636	
2399	0	31664	
2400	0	31712	
2401	0	31792	
2402	0	31802	
2403	0	31688	
2404	0	31650	
2405	0	31676	
2406	0	31732	
2407	0	31776	
2408	0	31800	
2409	0	31828	
2410	0	31840	
2411	0	31780	
2412	0	31752	
2413	0	31700	
2414	0	31660	
2415	0	31636	
2416	0	31600	
2417	0	31660	
2418	0	31772	
2419	0	31912	
2420	0	32018	
2421	0	32036	
2422	0	32052	
2423	0	32064	
2424	0	32092	
2425	0	32056	
2426	0	31868	
2427	0	31584	
2428	0	31200	
2429	0	30760	
2430	0	30144	
2431	0	29582	
2432	0	29136	
2433	0	28956	
2434	0	28920	
2435	0	28968	
2436	0	29186	
2437	0	29588	
2438	0	30302	
2439	0	31362	
2440	0	32600	
2441	0	33968	
2442	0	35368	
2443	0	36884	
2444	0	38556	
2445	0	40492	
2446	0	42708	
2447	0	45380	
2448	0	48312	
2449	0	51248	
2450	0	54184	
2451	0	56992	
2452	0	59828	
2453	0	62280	
2454	0	63648	
2455	0	64332	
2456	0	64648	
2457	0	64752	
2458	0	64744	
2459	0	64688	
2460	0	64592	
2461	0	64496	
2462	0	59456	
2463	0	53952	
2464	0	48708	
2465	0	44140	
2466	0	40448	
2467	0	37460	
2468	0	35166	
2469	0	33468	
2470	0	32120	
2471	0	30992	
2472	0	29914	
2473	0	28824	
2474	0	27716	
2475	0	26656	
2476	0	25696	
2477	0	24996	
2478	0	24660	
2479	0	24624	
2480	0	24832	
2481	0	25200	
2482	0	25596	
2483	0	25844	
2484	0	26068	
2485	0	26276	
2486	0	26496	
2487	0	26828	
2488	0	27108	
2489	0	27322	
2490	0	27578	
2491	0	27860	
2492	0	28141	
2493	0	28396	
2494	0	28730	
2495	0	29092	
2496	0	29376	
2497	0	29564	
2498	0	29736	
2499	0	29896	
2500	0	30084	
2501	0	30272	
2502	0	30384	
2503	0	30420	
2504	0	30464	
2505	0	30512	
2506	0	30549	
2507	0	30580	
2508	0	30616	
2509	0	30640	
2510	0	30640	
2511	0	30616	
2512	0	30604	
2513	0	30612	
2514	0	30624	
2515	0	30656	
2516	0	30660	
2517	0	30656	
2518	0	30672	
2519	0	30740	
2520	0	30800	
2521	0	30834	
2522	0	30836	
2523	0	30844	
2524	0	30920	
2525	0	31020	
2526	0	31110	
2527	0	31144	
2528	0	31204	
2529	0	31242	
2530	0	31204	
2531	0	31248	
2532	0	31312	
2533	0	31340	
2534	0	31384	
2535	0	31384	
2536	0	31332	
2537	0	31308	
2538	0	31332	
2539	0	31420	
2540	0	31570	
2541	0	31684	
2542	0	31800	
2543	0	31896	
2544	0	31968	
2545	0	31984	
2546	0	31960	
2547	0	31932	
2548	0	31912	
2549	0	31972	
2550	0	32000	
2551	0	32008	
2552	0	32036	
2553	0	32080	
2554	0	32098	
2555	0	32120	
2556	0	32140	
2557	0	32184	
2558	0	32300	
2559	0	32384	
2560	0	32450	
2561	0	32552	
2562	0	32640	
2563	0	32696	
2564	0	32780	
2565	0	32864	
2566	0	32920	
2567	0	32908	
2568	0	32872	
2569	0	32868	
2570	0	32856	
2571	0	32836	
2572	0	32824	
2573	0	32828	
2574	0	32841	
2575	0	32852	
2576	0	32828	
2577	0	32816	
2578	0	32868	
2579	0	32952	
2580	0	33048	
2581	0	33124	
2582	0	33208	
2583	0	33296	
2584	0	33392	
2585	0	33448	
2586	0	33496	
2587	0	33548	
2588	0	33532	
2589	0	33504	
2590	0	33496	
2591	0	33440	
2592	0	33432	
2593	0	33408	
2594	0	33404	
2595	0	33456	
2596	0	33540	
2597	0	33592	
2598	0	33680	
2599	0	33768	
2600	0	33828	
2601	0	33896	
2602	0	33992	
2603	0	34076	
2604	0	34144	
2605	0	34184	
2606	0	34226	
2607	0	34252	
2608	0	34256	
2609	0	34272	
2610	0	34260	
2611	0	34300	
2612	0	34376	
2613	0	34384	
2614	0	34452	
2615	0	34516	
2616	0	34472	
2617	0	34424	
2618	0	34480	
2619	0	34560	
2620	0	34696	
2621	0	34784	
2622	0	34924	
2623	0	35064	
2624	0	35180	
2625	0	35312	
2626	0	35442	
2627	0	35532	
2628	0	35568	
2629	0	35610	
2630	0	35672	
2631	0	35652	
2632	0	35644	
2633	0	35696	
2634	0	35756	
2635	0	35794	
2636	0	35860	
2637	0	35916	
2638	0	35976	
2639	0	36100	
2640	0	36212	
2641	0	36268	
2642	0	36304	
2643	0	36384	
2644	0	36524	
2645	0	36616	
2646	0	36712	
2647	0	36840	
2648	0	36920	
2649	0	36948	
2650	0	37052	
2651	0	37160	
2652	0	37224	
2653	0	37236	
2654	0	37228	
2655	0	37256	
2656	0	37292	
2657	0	37370	
2658	0	37440	
2659	0	37578	
2660	0	37716	
2661	0	37856	
2662	0	37932	
2663	0	37994	
2664	0	38052	
2665	0	38088	
2666	0	38120	
2667	0	38152	
2668	0	38216	
2669	0	38236	
2670	0	38284	
2671	0	38364	
2672	0	38376	
2673	0	38380	
2674	0	38400	
2675	0	38360	
2676	0	38280	
2677	0	38260	
2678	0	38228	
2679	0	38224	
2680	0	38228	
2681	0	38260	
2682	0	38276	
2683	0	38274	
2684	0	38296	
2685	0	38304	
2686	0	38336	
2687	0	38340	
2688	0	38312	
2689	0	38304	
2690	0	38276	
2691	0	38220	
2692	0	38116	
2693	0	38024	
2694	0	37944	
2695	0	37932	
2696	0	37904	
2697	0	37832	
2698	0	37776	
2699	0	37760	
2700	0	37760	
2701	0	37740	
2702	0	37740	
2703	0	37720	
2704	0	37576	
2705	0	37396	
2706	0	37221	
2707	0	37024	
2708	0	36896	
2709	0	36732	
2710	0	36512	
2711	0	36264	
2712	0	36048	
2713	0	35848	
2714	0	35636	
2715	0	35460	
2716	0	35212	
2717	0	34952	
2718	0	34768	
2719	0	34604	
2720	0	34352	
2721	0	34076	
2722	0	33872	
2723	0	33720	
2724	0	33536	
2725	0	33376	
2726	0	33196	
2727	0	33020	
2728	0	32800	
2729	0	32532	
2730	0	32244	
2731	0	31920	
2732	0	31644	
2733	0	31388	
2734	0	31160	
2735	0	30984	
2736	0	30856	
2737	0	30696	
2738	0	30544	
2739	0	30418	
2740	0	30312	
2741	0	30224	
2742	0	30080	
2743	0	29976	
2744	0	29912	
2745	0	29864	
2746	0	29760	
2747	0	29696	
2748	0	29672	
2749	0	29604	
2750	0	29464	
2751	0	29268	
2752	0	29056	
2753	0	28874	
2754	0	28736	
2755	0	28664	
2756	0	28538	
2757	0	28440	
2758	0	28440	
2759	0	28464	
2760	0	28428	
2761	0	28448	
2762	0	28426	
2763	0	28356	
2764	0	28286	
2765	0	28288	
2766	0	28272	
2767	0	28264	
2768	0	28276	
2769	0	28256	
2770	0	28204	
2771	0	28140	
2772	0	28068	
2773	0	27994	
2774	0	27954	
2775	0	28000	
2776	0	28052	
2777	0	28104	
2778	0	28192	
2779	0	28276	
2780	0	28338	
2781	0	28400	
2782	0	28424	
2783	0	28472	
2784	0	28468	
2785	0	28456	
2786	0	28396	
2787	0	28372	
2788	0	28308	
2789	0	28252	
2790	0	28184	
2791	0	28124	
2792	0	28124	
2793	0	28168	
2794	0	28236	
2795	0	28292	
2796	0	28368	
2797	0	28456	
2798	0	28560	
2799	0	28680	
2800	0	28840	
2801	0	28916	
2802	0	28996	
2803	0	29048	
2804	0	29104	
2805	0	29128	
2806	0	29148	
2807	0	29200	
2808	0	29248	
2809	0	29248	
2810	0	29264	
2811	0	29320	
2812	0	29368	
2813	0	29344	
2814	0	29280	
2815	0	29242	
2816	0	29248	
2817	0	29328	
2818	0	29442	
2819	0	29560	
2820	0	29660	
2821	0	29748	
2822	0	29836	
2823	0	29952	
2824	0	30016	
2825	0	30016	
2826	0	30000	
2827	0	30028	
2828	0	30060	
2829	0	30064	
2830	0	30120	
2831	0	30176	
2832	0	30156	
2833	0	30120	
2834	0	30120	
2835	0	30124	
2836	0	30112	
2837	0	30168	
2838	0	30272	
2839	0	30322	
2840	0	30324	
2841	0	30416	
2842	0	30514	
2843	0	30602	
2844	0	30676	
2845	0	30760	
2846	0	30832	
2847	0	30880	
2848	0	30888	
2849	0	30868	
2850	0	30820	
2851	0	30820	
2852	0	30786	
2853	0	30804	
2854	0	30784	
2855	0	30784	
2856	0	30816	
2857	0	30896	
2858	0	30932	
2859	0	30904	
2860	0	30948	
2861	0	31016	
2862	0	31112	
2863	0	31236	
2864	0	31356	
2865	0	31408	
2866	0	31432	
2867	0	31400	
2868	0	31328	
2869	0	31298	
2870	0	31288	
2871	0	31290	
2872	0	31272	
2873	0	31296	
2874	0	31328	
2875	0	31336	
2876	0	31352	
2877	0	31424	
2878	0	31448	
2879	0	31456	
2880	0	31476	
2881	0	31496	
2882	0	31516	
2883	0	31568	
2884	0	31616	
2885	0	31604	
2886	0	31544	
2887	0	31480	
2888	0	31500	
2889	0	31528	
2890	0	31530	
2891	0	31556	
2892	0	31556	
2893	0	31588	
2894	0	31560	
2895	0	31584	
2896	0	31568	
2897	0	31496	
2898	0	31456	
2899	0	31416	
2900	0	31380	
2901	0	31404	
2902	0	31456	
2903	0	31532	
2904	0	31584	
2905	0	31632	
2906	0	31716	
2907	0	31696	
2908	0	31644	
2909	0	31520	
2910	0	31452	
2911	0	31388	
2912	0	31316	
2913	0	31272	
2914	0	31248	
2915	0	31244	
2916	0	31236	
2917	0	31220	
2918	0	31200	
2919	0	31200	
2920	0	31208	
2921	0	31220	
2922	0	31320	
2923	0	31444	
2924	0	31544	
2925	0	31608	
2926	0	31648	
2927	0	31636	
2928	0	31540	
2929	0	31400	
2930	0	31324	
2931	0	31244	
2932	0	31160	
2933	0	31084	
2934	0	31036	
2935	0	31020	
2936	0	30976	
2937	0	30938	
2938	0	30936	
2939	0	30980	
2940	0	31044	
2941	0	31100	
2942	0	31160	
2943	0	31208	
2944	0	31240	
2945	0	31236	
2946	0	31224	
2947	0	31202	
2948	0	31168	
2949	0	31136	
2950	0	31168	
2951	0	31168	
2952	0	31160	
2953	0	31222	
2954	0	31256	
2955	0	31284	
2956	0	31344	
2957	0	31372	
2958	0	31384	
2959	0	31344	
2960	0	31332	
2961	0	31402	
2962	0	31480	
2963	0	31576	
2964	0	31676	
2965	0	31728	
2966	0	31756	
2967	0	31756	
2968	0	31832	
2969	0	31976	
2970	0	32088	
2971	0	32136	
2972	0	32160	
2973	0	32122	
2974	0	32068	
2975	0	32112	
2976	0	32192	
2977	0	32252	
2978	0	32332	
2979	0	32410	
2980	0	32488	
2981	0	32488	
2982	0	32416	
2983	0	32346	
2984	0	32312	
2985	0	32304	
2986	0	32304	
2987	0	32268	
2988	0	32264	
2989	0	32306	
2990	0	32448	
2991	0	32688	
2992	0	32930	
2993	0	33204	
2994	0	33464	
2995	0	33708	
2996	0	33944	
2997	0	34164	
2998	0	34308	
2999	0	34392	
3000	0	34508	
3001	0	34608	
3002	0	34644	
3003	0	34596	
3004	0	34528	
3005	0	34428	
3006	0	34348	
3007	0	34264	
3008	0	34128	
3009	0	34016	
3010	0	33864	
3011	0	33692	
3012	0	33560	
3013	0	33406	
3014	0	33228	
3015	0	33104	
3016	0	32980	
3017	0	32816	
3018	0	32666	
3019	0	32528	
3020	0	32448	
3021	0	32408	
3022	0	32416	
3023	0	32416	
3024	0	32424	
3025	0	32332	
3026	0	32180	
3027	0	32064	
3028	0	31968	
3029	0	31876	
3030	0	31740	
3031	0	31620	
3032	0	31536	
3033	0	31468	
3034	0	31408	
3035	0	31344	
3036	0	31220	
3037	0	31092	
3038	0	30964	
3039	0	30880	
3040	0	30856	
3041	0	30832	
3042	0	30784	
3043	0	30716	
3044	0	30676	
3045	0	30588	
3046	0	30494	
3047	0	30468	
3048	0	30480	
3049	0	30472	
3050	0	30416	
3051	0	30308	
3052	0	30272	
3053	0	30312	
3054	0	30408	
3055	0	30476	
3056	0	30512	
3057	0	30504	
3058	0	30496	
3059	0	30524	
3060	0	30586	
3061	0	30654	
3062	0	30728	
3063	0	30796	
3064	0	30828	
3065	0	30820	
3066	0	30816	
3067	0	30816	
3068	0	30864	
3069	0	30924	
3070	0	30896	
3071	0	30840	
3072	0	30880	
3073	0	30920	
3074	0	30928	
3075	0	30948	
3076	0	31012	
3077	0	31074	
3078	0	31172	
3079	0	31216	
3080	0	31176	
3081	0	31148	
3082	0	31144	
3083	0	31112	
3084	0	31120	
3085	0	31136	
3086	0	31140	
3087	0	31112	
3088	0	31104	
3089	0	31128	
3090	0	31084	
3091	0	30940	
3092	0	30744	
3093	0	30424	
3094	0	29978	
3095	0	29394	
3096	0	28872	
3097	0	28464	
3098	0	28264	
3099	0	28260	
3100	0	28408	
3101	0	28744	
3102	0	29252	
3103	0	29984	
3104	0	30928	
3105	0	32028	
3106	0	33172	
3107	0	34456	
3108	0	35868	
3109	0	37392	
3110	0	39160	
3111	0	41184	
3112	0	43580	
3113	0	46332	
3114	0	49244	
3115	0	52200	
3116	0	55040	
3117	0	57836	
3118	0	60704	
3119	0	62848	
3120	0	63980	
3121	0	64536	
3122	0	64760	
3123	0	64864	
3124	0	64836	
3125	0	64760	
3126	0	64664	
3127	0	60896	
3128	0	55388	
3129	0	49888	
3130	0	44852	
3131	0	40640	
3132	0	37276	
3133	0	34676	
3134	0	32732	
3135	0	31196	
3136	0	30024	
3137	0	28984	
3138	0	27956	
3139	0	26936	
3140	0	25996	
3141	0	25192	
3142	0	24604	
3143	0	24396	
3144	0	24332	
3145	0	24400	
3146	0	24556	
3147	0	24800	
3148	0	24970	
3149	0	25020	
3150	0	25104	
3151	0	25312	
3152	0	25600	
3153	0	25900	
3154	0	26228	
3155	0	26564	
3156	0	26892	
3157	0	27252	
3158	0	27608	
3159	0	28032	
3160	0	28432	
3161	0	28758	
3162	0	29032	
3163	0	29220	
3164	0	29380	
3165	0	29514	
3166	0	29660	
3167	0	29772	
3168	0	29848	
3169	0	29872	
3170	0	29840	
3171	0	29784	
3172	0	29720	
3173	0	29688	
3174	0	29664	
3175	0	29648	
3176	0	29700	
3177	0	29788	
3178	0	29884	
3179	0	29944	
3180	0	30000	
3181	0	30048	
3182	0	30104	
3183	0	30136	
3184	0	30208	
3185	0	30248	
3186	0	30280	
3187	0	30300	
3188	0	30292	
3189	0	30280	
3190	0	30272	
3191	0	30308	
3192	0	30356	
3193	0	30432	
3194	0	30508	
3195	0	30564	
3196	0	30608	
3197	0	30668	
3198	0	30728	
3199	0	30820	
3200	0	30888	
3201	0	30940	
3202	0	30984	
3203	0	31016	
3204	0	31076	
3205	0	31144	
3206	0	31164	
3207	0	31144	
3208	0	31132	
3209	0	31128	
3210	0	31108	
3211	0	31080	
3212	0	31080	
3213	0	31128	
3214	0	31216	
3215	0	31256	
3216	0	31264	
3217	0	31308	
3218	0	31344	
3219	0	31400	
3220	0	31452	
3221	0	31552	
3222	0	31668	
3223	0	31800	
3224	0	31904	
3225	0	31978	
3226	0	32032	
3227	0	32128	
3228	0	32224	
3229	0	32228	
3230	0	32216	
3231	0	32224	
3232	0	32200	
3233	0	32168	
3234	0	32116	
3235	0	32104	
3236	0	32128	
3237	0	32188	
3238	0	32234	
3239	0	32288	
3240	0	32340	
3241	0	32424	
3242	0	32460	
3243	0	32524	
3244	0	32608	
3245	0	32708	
3246	0	32736	
3247	0	32784	
3248	0	32848	
3249	0	32860	
3250	0	32880	
3251	0	32936	
3252	0	32974	
3253	0	32968	
3254	0	32960	
3255	0	32984	
3256	0	33048	
3257	0	33116	
3258	0	33232	
3259	0	33260	
3260	0	33344	
3261	0	33460	
3262	0	33588	
3263	0	33672	
3264	0	33728	
3265	0	33776	
3266	0	33816	
3267	0	33864	
3268	0	33948	
3269	0	34040	
3270	0	34076	
3271	0	34032	
3272	0	33992	
3273	0	34004	
3274	0	33984	
3275	0	33992	
3276	0	34004	
3277	0	34008	
3278	0	34017	
3279	0	34080	
3280	0	34172	
3281	0	34332	
3282	0	34488	
3283	0	34652	
3284	0	34744	
3285	0	34848	
3286	0	34992	
3287	0	35068	
3288	0	35056	
3289	0	35056	
3290	0	35072	
3291	0	35096	
3292	0	35104	
3293	0	35116	
3294	0	35156	
3295	0	35188	
3296	0	35184	
3297	0	35204	
3298	0	35234	
3299	0	35296	
3300	0	35412	
3301	0	35520	
3302	0	35672	
3303	0	35856	
3304	0	36004	
3305	0	36052	
3306	0	36108	
3307	0	36180	
3308	0	36276	
3309	0	36364	
3310	0	36476	
3311	0	36560	
3312	0	36672	
3313	0	36752	
3314	0	36796	
3315	0	36860	
3316	0	36922	
3317	0	37020	
3318	0	37108	
3319	0	37200	
3320	0	37268	
3321	0	37360	
3322	0	37480	
3323	0	37592	
3324	0	37696	
3325	0	37844	
3326	0	37992	
3327	0	38052	
3328	0	38068	
3329	0	38088	
3330	0	38092	
3331	0	38164	
3332	0	38248	
3333	0	38256	
3334	0	38228	
3335	0	38224	
3336	0	38252	
3337	0	38268	
3338	0	38308	
3339	0	38344	
3340	0	38368	
3341	0	38424	
3342	0	38460	
3343	0	38520	
3344	0	38564	
3345	0	38564	
3346	0	38588	
3347	0	38610	
3348	0	38528	
3349	0	38484	
3350	0	38484	
3351	0	38428	
3352	0	38376	
3353	0	38300	
3354	0	38232	
3355	0	38176	
3356	0	38112	
3357	0	38052	
3358	0	37984	
3359	0	37940	
3360	0	37904	
3361	0	37828	
3362	0	37812	
3363	0	37792	
3364	0	37752	
3365	0	37692	
3366	0	37640	
3367	0	37588	
3368	0	37516	
3369	0	37408	
3370	0	37266	
3371	0	37104	
3372	0	36928	
3373	0	36792	
3374	0	36600	
3375	0	36372	
3376	0	36124	
3377	0	35862	
3378	0	35592	
3379	0	35392	
3380	0	35208	
3381	0	35000	
3382	0	34822	
3383	0	34592	
3384	0	34392	
3385	0	34208	
3386	0	34012	
3387	0	33780	
3388	0	33488	
3389	0	33204	
3390	0	32916	
3391	0	32608	
3392	0	32308	
3393	0	32080	
3394	0	31888	
3395	0	31680	
3396	0	31496	
3397	0	31338	
3398	0	31152	
3399	0	31056	
3400	0	30932	
3401	0	30812	
3402	0	30680	
3403	0	30544	
3404	0	30412	
3405	0	30324	
3406	0	30232	
3407	0	30092	
3408	0	29944	
3409	0	29754	
3410	0	29592	
3411	0	29452	
3412	0	29316	
3413	0	29192	
3414	0	29104	
3415	0	29040	
3416	0	28956	
3417	0	28832	
3418	0	28724	
3419	0	28648	
3420	0	28608	
3421	0	28586	
3422	0	28572	
3423	0	28544	
3424	0	28528	
3425	0	28536	
3426	0	28536	
3427	0	28512	
3428	0	28468	
3429	0	28372	
3430	0	28304	
3431	0	28272	
3432	0	28260	
3433	0	28200	
3434	0	28164	
3435	0	28140	
3436	0	28128	
3437	0	28128	
3438	0	28148	
3439	0	28160	
3440	0	28152	
3441	0	28184	
3442	0	28264	
3443	0	28312	
3444	0	28352	
3445	0	28430	
3446	0	28472	
3447	0	28476	
3448	0	28492	
3449	0	28492	
3450	0	28440	
3451	0	28416	
3452	0	28400	
3453	0	28408	
3454	0	28426	
3455	0	28452	
3456	0	28472	
3457	0	28484	
3458	0	28532	
3459	0	28624	
3460	0	28744	
3461	0	28860	
3462	0	28940	
3463	0	29004	
3464	0	29044	
3465	0	29100	
3466	0	29096	
3467	0	29076	
3468	0	29092	
3469	0	29096	
3470	0	29052	
3471	0	29040	
3472	0	29032	
3473	0	29072	
3474	0	29140	
3475	0	29212	
3476	0	29280	
3477	0	29364	
3478	0	29412	
3479	0	29456	
3480	0	29500	
3481	0	29572	
3482	0	29640	
3483	0	29748	
3484	0	29844	
3485	0	29904	
3486	0	29984	
3487	0	30068	
3488	0	30137	
3489	0	30156	
3490	0	30176	
3491	0	30178	
3492	0	30212	
3493	0	30176	
3494	0	30136	
3495	0	30104	
3496	0	30112	
3497	0	30144	
3498	0	30156	
3499	0	30180	
3500	0	30244	
3501	0	30344	
3502	0	30380	
3503	0	30456	
3504	0	30578	
3505	0	30736	
3506	0	30832	
3507	0	30904	
3508	0	30964	
3509	0	31000	
3510	0	30996	
3511	0	30968	
3512	0	30968	
3513	0	30970	
3514	0	31024	
3515	0	31040	
3516	0	30952	
3517	0	30860	
3518	0	30832	
3519	0	30856	
3520	0	30956	
3521	0	31112	
3522	0	31208	
3523	0	31228	
3524	0	31232	
3525	0	31226	
3526	0	31224	
3527	0	31216	
3528	0	31210	
3529	0	31200	
3530	0	31200	
3531	0	31228	
3532	0	31242	
3533	0	31216	
3534	0	31188	
3535	0	31196	
3536	0	31232	
3537	0	31248	
3538	0	31248	
3539	0	31320	
3540	0	31404	
3541	0	31448	
3542	0	31496	
3543	0	31500	
3544	0	31504	
3545	0	31520	
3546	0	31572	
3547	0	31640	
3548	0	31664	
3549	0	31720	
3550	0	31744	
3551	0	31772	
3552	0	31784	
3553	0	31804	
3554	0	31776	
3555	0	31712	
3556	0	31696	
3557	0	31684	
3558	0	31660	
3559	0	31612	
3560	0	31564	
3561	0	31532	
3562	0	31554	
3563	0	31552	
3564	0	31564	
3565	0	31608	
3566	0	31616	
3567	0	31584	
3568	0	31568	
3569	0	31556	
3570	0	31556	
3571	0	31540	
3572	0	31528	
3573	0	31508	
3574	0	31512	
3575	0	31484	
3576	0	31472	
3577	0	31472	
3578	0	31440	
3579	0	31476	
3580	0	31592	
3581	0	31676	
3582	0	31672	
3583	0	31632	
3584	0	31620	
3585	0	31656	
3586	0	31672	
3587	0	31712	
3588	0	31752	
3589	0	31732	
3590	0	31664	
3591	0	31616	
3592	0	31544	
3593	0	31508	
3594	0	31496	
3595	0	31476	
3596	0	31496	
3597	0	31496	
3598	0	31488	
3599	0	31488	
3600	0	31432	
3601	0	31440	
3602	0	31440	
3603	0	31480	
3604	0	31552	
3605	0	31580	
3606	0	31534	
3607	0	31520	
3608	0	31516	
3609	0	31512	
3610	0	31506	
3611	0	31466	
3612	0	31432	
3613	0	31412	
3614	0	31444	
3615	0	31440	
3616	0	31392	
3617	0	31334	
3618	0	31340	
3619	0	31348	
3620	0	31376	
3621	0	31416	
3622	0	31464	
3623	0	31480	
3624	0	31508	
3625	0	31536	
3626	0	31536	
3627	0	31552	
3628	0	31532	
3629	0	31528	
3630	0	31500	
3631	0	31456	
3632	0	31384	
3633	0	31364	
3634	0	31344	
3635	0	31324	
3636	0	31338	
3637	0	31384	
3638	0	31444	
3639	0	31504	
3640	0	31592	
3641	0	31680	
3642	0	31778	
3643	0	31868	
3644	0	31976	
3645	0	32092	
3646	0	32160	
3647	0	32200	
3648	0	32240	
3649	0	32304	
3650	0	32396	
3651	0	32492	
3652	0	32552	
3653	0	32588	
3654	0	32680	
3655	0	32724	
3656	0	32744	
3657	0	32756	
3658	0	32768	
3659	0	32800	
3660	0	32772	
3661	0	32740	
3662	0	32706	
3663	0	32646	
3664	0	32644	
3665	0	32712	
3666	0	32784	
3667	0	32858	
3668	0	32956	
3669	0	33064	
3670	0	33156	
3671	0	33292	
3672	0	33480	
3673	0	33752	
3674	0	34042	
3675	0	34276	
3676	0	34480	
3677	0	34634	
3678	0	34748	
3679	0	34852	
3680	0	34984	
3681	0	35148	
3682	0	35274	
3683	0	35356	
3684	0	35356	
3685	0	35320	
3686	0	35192	
3687	0	35052	
3688	0	34930	
3689	0	34792	
3690	0	34644	
3691	0	34448	
3692	0	34236	
3693	0	34000	
3694	0	33800	
3695	0	33652	
3696	0	33518	
3697	0	33378	
3698	0	33332	
3699	0	33242	
3700	0	33152	
3701	0	33044	
3702	0	32944	
3703	0	32946	
3704	0	32972	
3705	0	33002	
3706	0	32952	
3707	0	32868	
3708	0	32836	
3709	0	32732	
3710	0	32592	
3711	0	32440	
3712	0	32288	
3713	0	32156	
3714	0	32024	
3715	0	31940	
3716	0	31884	
3717	0	31840	
3718	0	31816	
3719	0	31772	
3720	0	31648	
3721	0	31496	
3722	0	31384	
3723	0	31312	
3724	0	31240	
3725	0	31184	
3726	0	31144	
3727	0	31084	
3728	0	31020	
3729	0	30992	
3730	0	30960	
3731	0	30908	
3732	0	30872	
3733	0	30830	
3734	0	30846	
3735	0	30836	
3736	0	30820	
3737	0	30812	
3738	0	30832	
3739	0	30928	
3740	0	30992	
3741	0	31012	
3742	0	31012	
3743	0	31012	
3744	0	31064	
3745	0	31112	
3746	0	31176	
3747	0	31228	
3748	0	31272	
3749	0	31314	
3750	0	31332	
3751	0	31340	
3752	0	31348	
3753	0	31336	
3754	0	31354	
3755	0	31400	
3756	0	31426	
3757	0	31328	
3758	0	31252	
3759	0	31252	
3760	0	31380	
3761	0	31560	
3762	0	31648	
3763	0	31668	
3764	0	31700	
3765	0	31768	
3766	0	31816	
3767	0	31824	
3768	0	31768	
3769	0	31688	
3770	0	31568	
3771	0	31484	
3772	0	31364	
3773	0	31164	
3774	0	30804	
3775	0	30324	
3776	0	29740	
3777	0	29204	
3778	0	28868	
3779	0	28734	
3780	0	28820	
3781	0	29036	
3782	0	29424	
3783	0	29964	
3784	0	30732	
3785	0	31672	
3786	0	32712	
3787	0	33900	
3788	0	35292	
3789	0	36824	
3790	0	38412	
3791	0	40268	
3792	0	42436	
3793	0	44916	
3794	0	47896	
3795	0	51100	
3796	0	54264	
3797	0	57224	
3798	0	60096	
3799	0	62584	
3800	0	63936	
3801	0	64644	
3802	0	64944	
3803	0	65048	
3804	0	65056	
3805	0	64992	
3806	0	64900	
3807	0	64796	
3808	0	63556	
3809	0	57778	
3810	0	52176	
3811	0	47072	
3812	0	42832	
3813	0	39340	
3814	0	36532	
3815	0	34332	
3816	0	32488	
3817	0	30896	
3818	0	29522	
3819	0	28264	
3820	0	27148	
3821	0	26314	
3822	0	25756	
3823	0	25340	
3824	0	25164	
3825	0	25218	
3826	0	25416	
3827	0	25653	
3828	0	25904	
3829	0	26068	
3830	0	26128	
3831	0	26158	
3832	0	26240	
3833	0	26392	
3834	0	26668	
3835	0	26948	
3836	0	27268	
3837	0	27608	
3838	0	27952	
3839	0	28312	
3840	0	28664	
3841	0	28980	
3842	0	29264	
3843	0	29448	
3844	0	29532	
3845	0	29580	
3846	0	29600	
3847	0	29600	
3848	0	29624	
3849	0	29632	
3850	0	29652	
3851	0	29652	
3852	0	29640	
3853	0	29612	
3854	0	29588	
3855	0	29604	
3856	0	29600	
3857	0	29626	
3858	0	29656	
3859	0	29656	
3860	0	29696	
3861	0	29756	
3862	0	29848	
3863	0	29940	
3864	0	30004	
3865	0	30048	
3866	0	30096	
3867	0	30176	
3868	0	30252	
3869	0	30308	
3870	0	30312	
3871	0	30288	
3872	0	30220	
3873	0	30196	
3874	0	30152	
3875	0	30112	
3876	0	30088	
3877	0	30172	
3878	0	30284	
3879	0	30368	
3880	0	30436	
3881	0	30528	
3882	0	30612	
3883	0	30696	
3884	0	30764	
3885	0	30780	
3886	0	30820	
3887	0	30856	
3888	0	30920	
3889	0	30996	
3890	0	31032	
3891	0	31040	
3892	0	31002	
3893	0	30976	
3894	0	30956	
3895	0	30944	
3896	0	30936	
3897	0	30968	
3898	0	31016	
3899	0	31108	
3900	0	31232	
3901	0	31408	
3902	0	31548	
3903	0	31584	
3904	0	31548	
3905	0	31572	
3906	0	31600	
3907	0	31592	
3908	0	31592	
3909	0	31564	
3910	0	31600	
3911	0	31668	
3912	0	31688	
3913	0	31704	
3914	0	31692	
3915	0	31668	
3916	0	31640	
3917	0	31704	
3918	0	31848	
3919	0	31988	
3920	0	32088	
3921	0	32148	
3922	0	32184	
3923	0	32220	
3924	0	32240	
3925	0	32272	
3926	0	32328	
3927	0	32384	
3928	0	32462	
3929	0	32528	
3930	0	32544	
3931	0	32560	
3932	0	32544	
3933	0	32516	
3934	0	32464	
3935	0	32416	
3936	0	32428	
3937	0	32464	
3938	0	32552	
3939	0	32664	
3940	0	32776	
3941	0	32832	
3942	0	32876	
3943	0	32940	
3944	0	33076	
3945	0	33182	
3946	0	33252	
3947	0	33304	
3948	0	33360	
3949	0	33380	
3950	0	33416	
3951	0	33468	
3952	0	33548	
3953	0	33540	
3954	0	33508	
3955	0	33504	
3956	0	33520	
3957	0	33544	
3958	0	33584	
3959	0	33616	
3960	0	33668	
3961	0	33752	
3962	0	33860	
3963	0	33956	
3964	0	34080	
3965	0	34132	
3966	0	34172	
3967	0	34232	
3968	0	34316	
3969	0	34400	
3970	0	34464	
3971	0	34532	
3972	0	34576	
3973	0	34592	
3974	0	34624	
3975	0	34644	
3976	0	34712	
3977	0	34788	
3978	0	34868	
3979	0	34968	
3980	0	35096	
3981	0	35248	
3982	0	35352	
3983	0	35484	
3984	0	35592	
3985	0	35704	
3986	0	35808	
3987	0	35930	
3988	0	35988	
3989	0	36020	
3990	0	36080	
3991	0	36140	
3992	0	36136	
3993	0	36148	
3994	0	36228	
3995	0	36320	
3996	0	36432	
3997	0	36544	
3998	0	36660	
3999	0	36728	
4000	0	36812	
4001	0	36908	
4002	0	36988	
4003	0	37048	
4004	0	37128	
4005	0	37252	
4006	0	37376	
4007	0	37492	
4008	0	37576	
4009	0	37644	
4010	0	37692	
4011	0	37696	
4012	0	37708	
4013	0	37760	
4014	0	37788	
4015	0	37816	
4016	0	37860	
4017	0	37896	
4018	0	37944	
4019	0	37964	
4020	0	37952	
4021	0	37928	
4022	0	37892	
4023	0	37920	
4024	0	38012	
4025	0	38064	
4026	0	38120	
4027	0	38164	
4028	0	38172	
4029	0	38168	
4030	0	38104	
4031	0	38012	
4032	0	37936	
4033	0	37884	
4034	0	37824	
4035	0	37816	
4036	0	37816	
4037	0	37812	
4038	0	37816	
4039	0	37848	
4040	0	37876	
4041	0	37908	
4042	0	37936	
4043	0	38004	
4044	0	37964	
4045	0	37912	
4046	0	37824	
4047	0	37672	
4048	0	37540	
4049	0	37432	
4050	0	37360	
4051	0	37268	
4052	0	37204	
4053	0	37104	
4054	0	36964	
4055	0	36764	
4056	0	36480	
4057	0	36208	
4058	0	35936	
4059	0	35680	
4060	0	35488	
4061	0	35384	
4062	0	35208	
4063	0	34968	
4064	0	34776	
4065	0	34572	
4066	0	34396	
4067	0	34152	
4068	0	33896	
4069	0	33684	
4070	0	33476	
4071	0	33204	
4072	0	32952	
4073	0	32748	
4074	0	32540	
4075	0	32296	
4076	0	32044	
4077	0	31792	
4078	0	31564	
4079	0	31420	
4080	0	31296	
4081	0	31184	
4082	0	31092	
4083	0	30992	
4084	0	30880	
4085	0	30768	
4086	0	30608	
4087	0	30432	
4088	0	30240	
4089	0	30028	
4090	0	29890	
4091	0	29760	
4092	0	29632	
4093	0	29532	
4094	0	29396	
4095	0	29282	
4096	0	29152	
4097	0	29060	
4098	0	29000	
4099	0	28952	
4100	0	28896	
4101	0	28880	
4102	0	28840	
4103	0	28776	
4104	0	28740	
4105	0	28704	
4106	0	28642	
4107	0	28620	
4108	0	28608	
4109	0	28592	
4110	0	28560	
4111	0	28520	
4112	0	28472	
4113	0	28464	
4114	0	28484	
4115	0	28520	
4116	0	28544	
4117	0	28548	
4118	0	28560	
4119	0	28556	
4120	0	28568	
4121	0	28576	
4122	0	28620	
4123	0	28664	
4124	0	28712	
4125	0	28768	
4126	0	28828	
4127	0	28886	
4128	0	28948	
4129	0	28988	
4130	0	28944	
4131	0	28932	
4132	0	28914	
4133	0	28968	
4134	0	28986	
4135	0	28956	
4136	0	28952	
4137	0	28972	
4138	0	28980	
4139	0	28972	
4140	0	29000	
4141	0	29046	
4142	0	29132	
4143	0	29218	
4144	0	29256	
4145	0	29356	
4146	0	29472	
4147	0	29564	
4148	0	29624	
4149	0	29632	
4150	0	29620	
4151	0	29616	
4152	0	29600	
4153	0	29512	
4154	0	29460	
4155	0	29456	
4156	0	29484	
4157	0	29540	
4158	0	29600	
4159	0	29678	
4160	0	29740	
4161	0	29800	
4162	0	29876	
4163	0	29972	
4164	0	30068	
4165	0	30136	
4166	0	30164	
4167	0	30236	
4168	0	30304	
4169	0	30334	
4170	0	30308	
4171	0	30244	
4172	0	30220	
4173	0	30212	
4174	0	30216	
4175	0	30148	
4176	0	30080	
4177	0	30072	
4178	0	30120	
4179	0	30224	
4180	0	30292	
4181	0	30384	
4182	0	30528	
4183	0	30584	
4184	0	30588	
4185	0	30652	
4186	0	30712	
4187	0	30772	
4188	0	30796	
4189	0	30796	
4190	0	30816	
4191	0	30824	
4192	0	30856	
4193	0	30822	
4194	0	30756	
4195	0	30760	
4196	0	30804	
4197	0	30876	
4198	0	30952	
4199	0	31024	
4200	0	31064	
4201	0	31168	
4202	0	31216	
4203	0	31242	
4204	0	31300	
4205	0	31368	
4206	0	31350	
4207	0	31344	
4208	0	31338	
4209	0	31312	
4210	0	31320	
4211	0	31320	
4212	0	31268	
4213	0	31236	
4214	0	31220	
4215	0	31180	
4216	0	31164	
4217	0	31176	
4218	0	31224	
4219	0	31252	
4220	0	31322	
4221	0	31422	
4222	0	31512	
4223	0	31568	
4224	0	31636	
4225	0	31664	
4226	0	31672	
4227	0	31700	
4228	0	31732	
4229	0	31800	
4230	0	31836	
4231	0	31828	
4232	0	31832	
4233	0	31804	
4234	0	31756	
4235	0	31712	
4236	0	31680	
4237	0	31626	
4238	0	31644	
4239	0	31696	
4240	0	31744	
4241	0	31740	
4242	0	31764	
4243	0	31820	
4244	0	31872	
4245	0	31912	
4246	0	31952	
4247	0	31952	
4248	0	31980	
4249	0	31968	
4250	0	31924	
4251	0	31916	
4252	0	31892	
4253	0	31816	
4254	0	31712	
4255	0	31680	
4256	0	31672	
4257	0	31688	
4258	0	31736	
4259	0	31756	
4260	0	31784	
4261	0	31852	
4262	0	31884	
4263	0	31904	
4264	0	31916	
4265	0	31924	
4266	0	31952	
4267	0	31968	
4268	0	31946	
4269	0	31888	
4270	0	31868	
4271	0	31840	
4272	0	31828	
4273	0	31820	
4274	0	31800	
4275	0	31764	
4276	0	31704	
4277	0	31648	
4278	0	31656	
4279	0	31688	
4280	0	31736	
4281	0	31776	
4282	0	31778	
4283	0	31776	
4284	0	31852	
4285	0	31924	
4286	0	32016	
4287	0	32102	
4288	0	32088	
4289	0	32072	
4290	0	32056	
4291	0	32002	
4292	0	31944	
4293	0	31922	
4294	0	31900	
4295	0	31898	
4296	0	31840	
4297	0	31756	
4298	0	31706	
4299	0	31656	
4300	0	31664	
4301	0	31712	
4302	0	31800	
4303	0	31844	
4304	0	31860	
4305	0	31940	
4306	0	32016	
4307	0	32020	
4308	0	31992	
4309	0	31982	
4310	0	31992	
4311	0	32032	
4312	0	32032	
4313	0	32008	
4314	0	31952	
4315	0	31912	
4316	0	31896	
4317	0	31874	
4318	0	31908	
4319	0	31924	
4320	0	31972	
4321	0	31980	
4322	0	32004	
4323	0	32044	
4324	0	32040	
4325	0	32060	
4326	0	32100	
4327	0	32136	
4328	0	32104	
4329	0	32056	
4330	0	32020	
4331	0	31980	
4332	0	31952	
4333	0	31936	
4334	0	31904	
4335	0	31880	
4336	0	31892	
4337	0	31944	
4338	0	31992	
4339	0	32020	
4340	0	32064	
4341	0	32100	
4342	0	32140	
4343	0	32196	
4344	0	32260	
4345	0	32344	
4346	0	32448	
4347	0	32480	
4348	0	32460	
4349	0	32440	
4350	0	32392	
4351	0	32326	
4352	0	32276	
4353	0	32216	
4354	0	32146	
4355	0	32082	
4356	0	32028	
4357	0	32000	
4358	0	31996	
4359	0	31994	
4360	0	32032	
4361	0	32092	
4362	0	32182	
4363	0	32240	
4364	0	32332	
4365	0	32436	
4366	0	32512	
4367	0	32576	
4368	0	32622	
4369	0	32672	
4370	0	32708	
4371	0	32716	
4372	0	32732	
4373	0	32800	
4374	0	32860	
4375	0	32908	
4376	0	32944	
4377	0	32968	
4378	0	33072	
4379	0	33204	
4380	0	33348	
4381	0	33472	
4382	0	33580	
4383	0	33652	
4384	0	33708	
4385	0	33784	
4386	0	33784	
4387	0	33728	
4388	0	33660	
4389	0	33552	
4390	0	33482	
4391	0	33420	
4392	0	33400	
4393	0	33384	
4394	0	33324	
4395	0	33256	
4396	0	33256	
4397	0	33304	
4398	0	33382	
4399	0	33488	
4400	0	33676	
4401	0	33920	
4402	0	34192	
4403	0	34456	
4404	0	34728	
4405	0	34980	
4406	0	35116	
4407	0	35200	
4408	0	35272	
4409	0	35348	
4410	0	35404	
4411	0	35416	
4412	0	35320	
4413	0	35176	
4414	0	34988	
4415	0	34808	
4416	0	34680	
4417	0	34584	
4418	0	34496	
4419	0	34432	
4420	0	34368	
4421	0	34256	
4422	0	34140	
4423	0	34012	
4424	0	33912	
4425	0	33808	
4426	0	33764	
4427	0	33764	
4428	0	33660	
4429	0	33532	
4430	0	33460	
4431	0	33376	
4432	0	33293	
4433	0	33268	
4434	0	33232	
4435	0	33140	
4436	0	33028	
4437	0	32860	
4438	0	32688	
4439	0	32592	
4440	0	32544	
4441	0	32488	
4442	0	32432	
4443	0	32400	
4444	0	32392	
4445	0	32380	
4446	0	32340	
4447	0	32288	
4448	0	32202	
4449	0	32092	
4450	0	31984	
4451	0	31836	
4452	0	31672	
4453	0	31540	
4454	0	31400	
4455	0	31288	
4456	0	31220	
4457	0	31160	
4458	0	31144	
4459	0	31164	
4460	0	31184	
4461	0	31212	
4462	0	31244	
4463	0	31312	
4464	0	31376	
4465	0	31392	
4466	0	31440	
4467	0	31456	
4468	0	31476	
4469	0	31480	
4470	0	31488	
4471	0	31476	
4472	0	31488	
4473	0	31512	
4474	0	31528	
4475	0	31504	
4476	0	31478	
4477	0	31424	
4478	0	31368	
4479	0	31376	
4480	0	31420	
4481	0	31522	
4482	0	31612	
4483	0	31668	
4484	0	31758	
4485	0	31824	
4486	0	31832	
4487	0	31800	
4488	0	31800	
4489	0	31824	
4490	0	31856	
4491	0	31840	
4492	0	31808	
4493	0	31796	
4494	0	31792	
4495	0	31820	
4496	0	31864	
4497	0	31882	
4498	0	31848	
4499	0	31776	
4500	0	31662	
4501	0	31504	
4502	0	31272	
4503	0	30880	
4504	0	30336	
4505	0	29728	
4506	0	29320	
4507	0	29092	
4508	0	29064	
4509	0	29218	
4510	0	29528	
4511	0	29996	
4512	0	30660	
4513	0	31552	
4514	0	32628	
4515	0	33818	
4516	0	35146	
4517	0	36680	
4518	0	38304	
4519	0	40128	
4520	0	42252	
4521	0	44616	
4522	0	47484	
4523	0	50760	
4524	0	54084	
4525	0	57244	
4526	0	60240	
4527	0	62632	
4528	0	63936	
4529	0	64556	
4530	0	64844	
4531	0	64944	
4532	0	64936	
4533	0	64864	
4534	0	64772	
4535	0	64672	
4536	0	64544	
4537	0	63424	
4538	0	57464	
4539	0	51864	
4540	0	47032	
4541	0	43060	
4542	0	39768	
4543	0	37113	
4544	0	34876	
4545	0	32864	
4546	0	31116	
4547	0	29634	
4548	0	28500	
4549	0	27656	
4550	0	27048	
4551	0	26528	
4552	0	26156	
4553	0	26032	
4554	0	26080	
4555	0	26244	
4556	0	26488	
4557	0	26710	
4558	0	26720	
4559	0	26700	
4560	0	26704	
4561	0	26768	
4562	0	26900	
4563	0	27112	
4564	0	27442	
4565	0	27808	
4566	0	28180	
4567	0	28528	
4568	0	28826	
4569	0	29076	
4570	0	29256	
4571	0	29436	
4572	0	29504	
4573	0	29504	
4574	0	29488	
4575	0	29440	
4576	0	29412	
4577	0	29392	
4578	0	29396	
4579	0	29448	
4580	0	29520	
4581	0	29596	
4582	0	29624	
4583	0	29624	
4584	0	29656	
4585	0	29676	
4586	0	29700	
4587	0	29748	
4588	0	29784	
4589	0	29840	
4590	0	29852	
4591	0	29824	
4592	0	29786	
4593	0	29760	
4594	0	29768	
4595	0	29808	
4596	0	29824	
4597	0	29852	
4598	0	29876	
4599	0	29916	
4600	0	29968	
4601	0	30012	
4602	0	30044	
4603	0	30108	
4604	0	30180	
4605	0	30268	
4606	0	30376	
4607	0	30520	
4608	0	30628	
4609	0	30684	
4610	0	30760	
4611	0	30828	
4612	0	30840	
4613	0	30800	
4614	0	30752	
4615	0	30672	
4616	0	30636	
4617	0	30656	
4618	0	30664	
4619	0	30704	
4620	0	30744	
4621	0	30784	
4622	0	30836	
4623	0	30922	
4624	0	31038	
4625	0	31208	
4626	0	31328	
4627	0	31398	
4628	0	31452	
4629	0	31512	
4630	0	31540	
4631	0	31536	
4632	0	31520	
4633	0	31524	
4634	0	31522	
4635	0	31524	
4636	0	31540	
4637	0	31552	
4638	0	31608	
4639	0	31588	
4640	0	31564	
4641	0	31572	
4642	0	31632	
4643	0	31692	
4644	0	31792	
4645	0	31852	
4646	0	31880	
4647	0	31920	
4648	0	32024	
4649	0	32108	
4650	0	32176	
4651	0	32216	
4652	0	32220	
4653	0	32232	
4654	0	32236	
4655	0	32252	
4656	0	32266	
4657	0	32282	
4658	0	32260	
4659	0	32284	
4660	0	32376	
4661	0	32456	
4662	0	32530	
4663	0	32648	
4664	0	32748	
4665	0	32826	
4666	0	32868	
4667	0	32908	
4668	0	32950	
4669	0	32988	
4670	0	33052	
4671	0	33052	
4672	0	33016	
4673	0	32984	
4674	0	32964	
4675	0	32960	
4676	0	33000	
4677	0	33040	
4678	0	33104	
4679	0	33168	
4680	0	33236	
4681	0	33288	
4682	0	33352	
4683	0	33440	
4684	0	33528	
4685	0	33620	
4686	0	33724	
4687	0	33836	
4688	0	33948	
4689	0	34016	
4690	0	34104	
4691	0	34136	
4692	0	34132	
4693	0	34092	
4694	0	34072	
4695	0	34060	
4696	0	34048	
4697	0	34100	
4698	0	34168	
4699	0	34256	
4700	0	34324	
4701	0	34392	
4702	0	34480	
4703	0	34592	
4704	0	34716	
4705	0	34848	
4706	0	34920	
4707	0	35016	
4708	0	35146	
4709	0	35246	
4710	0	35314	
4711	0	35332	
4712	0	35352	
4713	0	35348	
4714	0	35352	
4715	0	35384	
4716	0	35424	
4717	0	35520	
4718	0	35624	
4719	0	35684	
4720	0	35740	
4721	0	35856	
4722	0	35996	
4723	0	36112	
4724	0	36260	
4725	0	36400	
4726	0	36504	
4727	0	36604	
4728	0	36652	
4729	0	36712	
4730	0	36728	
4731	0	36756	
4732	0	36796	
4733	0	36912	
4734	0	36964	
4735	0	37016	
4736	0	37104	
4737	0	37140	
4738	0	37164	
4739	0	37216	
4740	0	37224	
4741	0	37216	
4742	0	37252	
4743	0	37328	
4744	0	37444	
4745	0	37608	
4746	0	37768	
4747	0	37900	
4748	0	37976	
4749	0	37988	
4750	0	37992	
4751	0	37976	
4752	0	37972	
4753	0	37956	
4754	0	37920	
4755	0	37936	
4756	0	37904	
4757	0	37852	
4758	0	37812	
4759	0	37772	
4760	0	37808	
4761	0	37776	
4762	0	37744	
4763	0	37796	
4764	0	37896	
4765	0	37960	
4766	0	37952	
4767	0	37888	
4768	0	37856	
4769	0	37820	
4770	0	37732	
4771	0	37636	
4772	0	37548	
4773	0	37492	
4774	0	37448	
4775	0	37400	
4776	0	37324	
4777	0	37240	
4778	0	37160	
4779	0	37100	
4780	0	37032	
4781	0	36928	
4782	0	36844	
4783	0	36760	
4784	0	36676	
4785	0	36532	
4786	0	36344	
4787	0	36128	
4788	0	35936	
4789	0	35744	
4790	0	35532	
4791	0	35292	
4792	0	35068	
4793	0	34860	
4794	0	34612	
4795	0	34298	
4796	0	34032	
4797	0	33760	
4798	0	33504	
4799	0	33252	
4800	0	33040	
4801	0	32848	
4802	0	32680	
4803	0	32524	
4804	0	32384	
4805	0	32236	
4806	0	32064	
4807	0	31892	
4808	0	31708	
4809	0	31524	
4810	0	31366	
4811	0	31194	
4812	0	31004	
4813	0	30776	
4814	0	30580	
4815	0	30368	
4816	0	30172	
4817	0	29992	
4818	0	29856	
4819	0	29730	
4820	0	29616	
4821	0	29532	
4822	0	29468	
4823	0	29450	
4824	0	29432	
4825	0	29380	
4826	0	29308	
4827	0	29272	
4828	0	29218	
4829	0	29080	
4830	0	28984	
4831	0	28896	
4832	0	28820	
4833	0	28714	
4834	0	28636	
4835	0	28604	
4836	0	28536	
4837	0	28508	
4838	0	28524	
4839	0	28528	
4840	0	28544	
4841	0	28524	
4842	0	28496	
4843	0	28496	
4844	0	28496	
4845	0	28536	
4846	0	28566	
4847	0	28580	
4848	0	28572	
4849	0	28544	
4850	0	28568	
4851	0	28582	
4852	0	28536	
4853	0	28464	
4854	0	28468	
4855	0	28508	
4856	0	28572	
4857	0	28608	
4858	0	28664	
4859	0	28728	
4860	0	28784	
4861	0	28842	
4862	0	28872	
4863	0	28944	
4864	0	29040	
4865	0	29160	
4866	0	29264	
4867	0	29304	
4868	0	29316	
4869	0	29340	
4870	0	29356	
4871	0	29396	
4872	0	29444	
4873	0	29472	
4874	0	29464	
4875	0	29456	
4876	0	29460	
4877	0	29504	
4878	0	29524	
4879	0	29496	
4880	0	29488	
4881	0	29480	
4882	0	29508	
4883	0	29588	
4884	0	29668	
4885	0	29756	
4886	0	29824	
4887	0	29904	
4888	0	29968	
4889	0	30004	
4890	0	30020	
4891	0	30028	
4892	0	30024	
4893	0	30032	
4894	0	30040	
4895	0	30060	
4896	0	30092	
4897	0	30108	
4898	0	30140	
4899	0	30164	
4900	0	30188	
4901	0	30256	
4902	0	30322	
4903	0	30420	
4904	0	30524	
4905	0	30608	
4906	0	30720	
4907	0	30808	
4908	0	30808	
4909	0	30760	
4910	0	30720	
4911	0	30696	
4912	0	30676	
4913	0	30656	
4914	0	30612	
4915	0	30600	
4916	0	30620	
4917	0	30624	
4918	0	30644	
4919	0	30688	
4920	0	30746	
4921	0	30780	
4922	0	30836	
4923	0	30920	
4924	0	31028	
4925	0	31118	
4926	0	31184	
4927	0	31308	
4928	0	31416	
4929	0	31436	
4930	0	31464	
4931	0	31420	
4932	0	31312	
4933	0	31200	
4934	0	31096	
4935	0	31044	
4936	0	31028	
4937	0	31012	
4938	0	30988	
4939	0	31036	
4940	0	31100	
4941	0	31184	
4942	0	31252	
4943	0	31304	
4944	0	31320	
4945	0	31372	
4946	0	31432	
4947	0	31512	
4948	0	31560	
4949	0	31596	
4950	0	31596	
4951	0	31584	
4952	0	31568	
4953	0	31522	
4954	0	31476	
4955	0	31436	
4956	0	31360	
4957	0	31340	
4958	0	31348	
4959	0	31328	
4960	0	31352	
4961	0	31428	
4962	0	31520	
4963	0	31536	
4964	0	31556	
4965	0	31600	
4966	0	31680	
4967	0	31740	
4968	0	31772	
4969	0	31768	
4970	0	31740	
4971	0	31720	
4972	0	31698	
4973	0	31652	
4974	0	31600	
4975	0	31548	
4976	0	31532	
4977	0	31540	
4978	0	31572	
4979	0	31624	
4980	0	31660	
4981	0	31716	
4982	0	31796	
4983	0	31888	
4984	0	31936	
4985	0	31940	
4986	0	31952	
4987	0	31952	
4988	0	31896	
4989	0	31824	
4990	0	31808	
4991	0	31776	
4992	0	31752	
4993	0	31740	
4994	0	31732	
4995	0	31736	
4996	0	31760	
4997	0	31772	
4998	0	31776	
4999	0	31776	
5000	0	31808	
5001	0	31860	
5002	0	31888	
5003	0	31884	
5004	0	31873	
5005	0	31864	
5006	0	31900	
5007	0	31936	
5008	0	31944	
5009	0	31952	
5010	0	31940	
5011	0	31904	
5012	0	31872	
5013	0	31808	
5014	0	31820	
5015	0	31868	
5016	0	31874	
5017	0	31864	
5018	0	31852	
5019	0	31784	
5020	0	31704	
5021	0	31664	
5022	0	31722	
5023	0	31784	
5024	0	31820	
5025	0	31892	
5026	0	31916	
5027	0	31936	
5028	0	31956	
5029	0	31968	
5030	0	31996	
5031	0	31988	
5032	0	31940	
5033	0	31924	
5034	0	31896	
5035	0	31876	
5036	0	31868	
5037	0	31868	
5038	0	31892	
5039	0	31930	
5040	0	31984	
5041	0	32022	
5042	0	31994	
5043	0	31960	
5044	0	31912	
5045	0	31948	
5046	0	31976	
5047	0	32012	
5048	0	32040	
5049	0	32054	
5050	0	32036	
5051	0	31992	
5052	0	31962	
5053	0	31972	
5054	0	31960	
5055	0	31880	
5056	0	31804	
5057	0	31740	
5058	0	31692	
5059	0	31680	
5060	0	31696	
5061	0	31720	
5062	0	31748	
5063	0	31760	
5064	0	31812	
5065	0	31868	
5066	0	31908	
5067	0	31960	
5068	0	31968	
5069	0	31984	
5070	0	32024	
5071	0	32016	
5072	0	31960	
5073	0	31928	
5074	0	31888	
5075	0	31884	
5076	0	31880	
5077	0	31896	
5078	0	31940	
5079	0	31944	
5080	0	31944	
5081	0	31972	
5082	0	32020	
5083	0	32070	
5084	0	32144	
5085	0	32216	
5086	0	32280	
5087	0	32348	
5088	0	32388	
5089	0	32336	
5090	0	32276	
5091	0	32254	
5092	0	32200	
5093	0	32108	
5094	0	32016	
5095	0	31952	
5096	0	31900	
5097	0	31852	
5098	0	31868	
5099	0	31892	
5100	0	31900	
5101	0	31928	
5102	0	32000	
5103	0	32096	
5104	0	32200	
5105	0	32264	
5106	0	32308	
5107	0	32336	
5108	0	32344	
5109	0	32328	
5110	0	32290	
5111	0	32244	
5112	0	32188	
5113	0	32116	
5114	0	32076	
5115	0	32076	
5116	0	32080	
5117	0	32096	
5118	0	32108	
5119	0	32144	
5120	0	32168	
5121	0	32184	
5122	0	32232	
5123	0	32320	
5124	0	32368	
5125	0	32370	
5126	0	32396	
5127	0	32444	
5128	0	32476	
5129	0	32476	
5130	0	32520	
5131	0	32524	
5132	0	32460	
5133	0	32432	
5134	0	32356	
5135	0	32338	
5136	0	32372	
5137	0	32400	
5138	0	32400	
5139	0	32366	
5140	0	32364	
5141	0	32404	
5142	0	32408	
5143	0	32424	
5144	0	32428	
5145	0	32448	
5146	0	32468	
5147	0	32488	
5148	0	32464	
5149	0	32492	
5150	0	32536	
5151	0	32560	
5152	0	32580	
5153	0	32628	
5154	0	32664	
5155	0	32672	
5156	0	32640	
5157	0	32696	
5158	0	32784	
5159	0	32896	
5160	0	33000	
5161	0	33128	
5162	0	33250	
5163	0	33400	
5164	0	33520	
5165	0	33616	
5166	0	33680	
5167	0	33720	
5168	0	33780	
5169	0	33800	
5170	0	33772	
5171	0	33706	
5172	0	33612	
5173	0	33508	
5174	0	33420	
5175	0	33338	
5176	0	33288	
5177	0	33298	
5178	0	33296	
5179	0	33320	
5180	0	33344	
5181	0	33404	
5182	0	33504	
5183	0	33658	
5184	0	33908	
5185	0	34212	
5186	0	34528	
5187	0	34768	
5188	0	34960	
5189	0	35068	
5190	0	35172	
5191	0	35244	
5192	0	35328	
5193	0	35424	
5194	0	35476	
5195	0	35424	
5196	0	35292	
5197	0	35092	
5198	0	34912	
5199	0	34808	
5200	0	34760	
5201	0	34780	
5202	0	34768	
5203	0	34688	
5204	0	34568	
5205	0	34448	
5206	0	34300	
5207	0	34220	
5208	0	34136	
5209	0	34036	
5210	0	33888	
5211	0	33744	
5212	0	33576	
5213	0	33436	
5214	0	33328	
5215	0	33184	
5216	0	33064	
5217	0	33016	
5218	0	32980	
5219	0	32968	
5220	0	32912	
5221	0	32832	
5222	0	32764	
5223	0	32768	
5224	0	32756	
5225	0	32704	
5226	0	32624	
5227	0	32516	
5228	0	32432	
5229	0	32352	
5230	0	32296	
5231	0	32176	
5232	0	32052	
5233	0	31928	
5234	0	31804	
5235	0	31672	
5236	0	31514	
5237	0	31388	
5238	0	31300	
5239	0	31244	
5240	0	31280	
5241	0	31324	
5242	0	31368	
5243	0	31420	
5244	0	31480	
5245	0	31548	
5246	0	31560	
5247	0	31586	
5248	0	31568	
5249	0	31516	
5250	0	31464	
5251	0	31412	
5252	0	31348	
5253	0	31288	
5254	0	31264	
5255	0	31296	
5256	0	31304	
5257	0	31266	
5258	0	31236	
5259	0	31224	
5260	0	31208	
5261	0	31296	
5262	0	31424	
5263	0	31548	
5264	0	31648	
5265	0	31752	
5266	0	31808	
5267	0	31792	
5268	0	31808	
5269	0	31852	
5270	0	31896	
5271	0	31900	
5272	0	31872	
5273	0	31860	
5274	0	31810	
5275	0	31736	
5276	0	31692	
5277	0	31736	
5278	0	31792	
5279	0	31832	
5280	0	31820	
5281	0	31796	
5282	0	31788	
5283	0	31720	
5284	0	31564	
5285	0	31312	
5286	0	30972	
5287	0	30496	
5288	0	30000	
5289	0	29588	
5290	0	29288	
5291	0	29172	
5292	0	29256	
5293	0	29516	
5294	0	29960	
5295	0	30624	
5296	0	31532	
5297	0	32600	
5298	0	33780	
5299	0	35116	
5300	0	36688	
5301	0	38340	
5302	0	40200	
5303	0	42344	
5304	0	44704	
5305	0	47548	
5306	0	50800	
5307	0	54108	
5308	0	57264	
5309	0	60208	
5310	0	62568	
5311	0	63832	
5312	0	64460	
5313	0	64740	
5314	0	64836	
5315	0	64824	
5316	0	64772	
5317	0	64668	
5318	0	64568	
5319	0	64464	
5320	0	63780	
5321	0	57848	
5322	0	52364	
5323	0	47642	
5324	0	43724	
5325	0	40504	
5326	0	37864	
5327	0	35640	
5328	0	33656	
5329	0	31912	
5330	0	30364	
5331	0	29060	
5332	0	28048	
5333	0	27336	
5334	0	26776	
5335	0	26460	
5336	0	26364	
5337	0	26380	
5338	0	26468	
5339	0	26624	
5340	0	26780	
5341	0	26804	
5342	0	26820	
5343	0	26828	
5344	0	26900	
5345	0	27080	
5346	0	27300	
5347	0	27588	
5348	0	27944	
5349	0	28288	
5350	0	28610	
5351	0	28832	
5352	0	29016	
5353	0	29184	
5354	0	29316	
5355	0	29381	
5356	0	29376	
5357	0	29376	
5358	0	29396	
5359	0	29380	
5360	0	29356	
5361	0	29344	
5362	0	29368	
5363	0	29400	
5364	0	29416	
5365	0	29376	
5366	0	29372	
5367	0	29388	
5368	0	29360	
5369	0	29340	
5370	0	29324	
5371	0	29340	
5372	0	29372	
5373	0	29392	
5374	0	29436	
5375	0	29500	
5376	0	29552	
5377	0	29600	
5378	0	29624	
5379	0	29594	
5380	0	29632	
5381	0	29672	
5382	0	29776	
5383	0	29892	
5384	0	29992	
5385	0	30116	
5386	0	30208	
5387	0	30260	
5388	0	30288	
5389	0	30264	
5390	0	30280	
5391	0	30312	
5392	0	30312	
5393	0	30320	
5394	0	30336	
5395	0	30360	
5396	0	30388	
5397	0	30412	
5398	0	30478	
5399	0	30596	
5400	0	30690	
5401	0	30788	
5402	0	30868	
5403	0	30956	
5404	0	31008	
5405	0	31048	
5406	0	31100	
5407	0	31144	
5408	0	31192	
5409	0	31256	
5410	0	31260	
5411	0	31256	
5412	0	31264	
5413	0	31284	
5414	0	31312	
5415	0	31300	
5416	0	31256	
5417	0	31192	
5418	0	31176	
5419	0	31242	
5420	0	31356	
5421	0	31448	
5422	0	31540	
5423	0	31616	
5424	0	31688	
5425	0	31764	
5426	0	31828	
5427	0	31884	
5428	0	31968	
5429	0	32026	
5430	0	32054	
5431	0	32048	
5432	0	32020	
5433	0	32012	
5434	0	32036	
5435	0	32052	
5436	0	32084	
5437	0	32108	
5438	0	32176	
5439	0	32160	
5440	0	32138	
5441	0	32148	
5442	0	32166	
5443	0	32224	
5444	0	32332	
5445	0	32452	
5446	0	32496	
5447	0	32536	
5448	0	32568	
5449	0	32600	
5450	0	32636	
5451	0	32644	
5452	0	32636	
5453	0	32648	
5454	0	32704	
5455	0	32740	
5456	0	32780	
5457	0	32844	
5458	0	32936	
5459	0	33000	
5460	0	33088	
5461	0	33216	
5462	0	33334	
5463	0	33392	
5464	0	33460	
5465	0	33540	
5466	0	33616	
5467	0	33688	
5468	0	33776	
5469	0	33816	
5470	0	33836	
5471	0	33832	
5472	0	33796	
5473	0	33781	
5474	0	33792	
5475	0	33788	
5476	0	33784	
5477	0	33852	
5478	0	33920	
5479	0	34000	
5480	0	34092	
5481	0	34216	
5482	0	34346	
5483	0	34488	
5484	0	34608	
5485	0	34704	
5486	0	34776	
5487	0	34856	
5488	0	34920	
5489	0	35048	
5490	0	35128	
5491	0	35120	
5492	0	35136	
5493	0	35120	
5494	0	35064	
5495	0	35024	
5496	0	35040	
5497	0	35088	
5498	0	35148	
5499	0	35212	
5500	0	35340	
5501	0	35492	
5502	0	35688	
5503	0	35872	
5504	0	36060	
5505	0	36196	
5506	0	36240	
5507	0	36272	
5508	0	36304	
5509	0	36356	
5510	0	36384	
5511	0	36408	
5512	0	36432	
5513	0	36448	
5514	0	36444	
5515	0	36460	
5516	0	36512	
5517	0	36556	
5518	0	36640	
5519	0	36752	
5520	0	36912	
5521	0	37036	
5522	0	37152	
5523	0	37220	
5524	0	37284	
5525	0	37368	
5526	0	37436	
5527	0	37500	
5528	0	37556	
5529	0	37592	
5530	0	37600	
5531	0	37600	
5532	0	37576	
5533	0	37576	
5534	0	37600	
5535	0	37584	
5536	0	37632	
5537	0	37640	
5538	0	37624	
5539	0	37612	
5540	0	37620	
5541	0	37640	
5542	0	37690	
5543	0	37764	
5544	0	37840	
5545	0	37888	
5546	0	37928	
5547	0	37932	
5548	0	37968	
5549	0	37988	
5550	0	37936	
5551	0	37876	
5552	0	37824	
5553	0	37792	
5554	0	37704	
5555	0	37588	
5556	0	37488	
5557	0	37424	
5558	0	37396	
5559	0	37324	
5560	0	37292	
5561	0	37260	
5562	0	37204	
5563	0	37152	
5564	0	37104	
5565	0	37036	
5566	0	36960	
5567	0	36860	
5568	0	36728	
5569	0	36620	
5570	0	36476	
5571	0	36284	
5572	0	36076	
5573	0	35864	
5574	0	35600	
5575	0	35384	
5576	0	35180	
5577	0	34952	
5578	0	34700	
5579	0	34464	
5580	0	34280	
5581	0	34112	
5582	0	33976	
5583	0	33784	
5584	0	33632	
5585	0	33456	
5586	0	33292	
5587	0	33124	
5588	0	32920	
5589	0	32716	
5590	0	32476	
5591	0	32250	
5592	0	32000	
5593	0	31786	
5594	0	31560	
5595	0	31340	
5596	0	31164	
5597	0	30986	
5598	0	30800	
5599	0	30632	
5600	0	30464	
5601	0	30360	
5602	0	30272	
5603	0	30168	
5604	0	30064	
5605	0	29976	
5606	0	29870	
5607	0	29776	
5608	0	29660	
5609	0	29594	
5610	0	29512	
5611	0	29412	
5612	0	29296	
5613	0	29180	
5614	0	29080	
5615	0	28996	
5616	0	28948	
5617	0	28888	
5618	0	28804	
5619	0	28756	
5620	0	28740	
5621	0	28744	
5622	0	28744	
5623	0	28720	
5624	0	28736	
5625	0	28768	
5626	0	28788	
5627	0	28780	
5628	0	28804	
5629	0	28840	
5630	0	28836	
5631	0	28784	
5632	0	28752	
5633	0	28684	
5634	0	28632	
5635	0	28604	
5636	0	28596	
5637	0	28610	
5638	0	28604	
5639	0	28552	
5640	0	28564	
5641	0	28624	
5642	0	28704	
5643	0	28802	
5644	0	28874	
5645	0	28944	
5646	0	29040	
5647	0	29112	
5648	0	29240	
5649	0	29316	
5650	0	29328	
5651	0	29312	
5652	0	29252	
5653	0	29228	
5654	0	29204	
5655	0	29192	
5656	0	29120	
5657	0	29060	
5658	0	29088	
5659	0	29146	
5660	0	29212	
5661	0	29280	
5662	0	29352	
5663	0	29452	
5664	0	29506	
5665	0	29548	
5666	0	29608	
5667	0	29708	
5668	0	29768	
5669	0	29856	
5670	0	29909	
5671	0	29916	
5672	0	29940	
5673	0	29956	
5674	0	29984	
5675	0	30016	
5676	0	30048	
5677	0	30032	
5678	0	30032	
5679	0	30050	
5680	0	30100	
5681	0	30180	
5682	0	30284	
5683	0	30356	
5684	0	30408	
5685	0	30458	
5686	0	30496	
5687	0	30522	
5688	0	30560	
5689	0	30584	
5690	0	30600	
5691	0	30620	
5692	0	30608	
5693	0	30568	
5694	0	30516	
5695	0	30484	
5696	0	30492	
5697	0	30532	
5698	0	30560	
5699	0	30592	
5700	0	30632	
5701	0	30684	
5702	0	30764	
5703	0	30820	
5704	0	30872	
5705	0	30952	
5706	0	31008	
5707	0	31084	
5708	0	31156	
5709	0	31152	
5710	0	31144	
5711	0	31140	
5712	0	31148	
5713	0	31152	
5714	0	31156	
5715	0	31108	
5716	0	31024	
5717	0	30976	
5718	0	31002	
5719	0	31016	
5720	0	31048	
5721	0	31104	
5722	0	31194	
5723	0	31300	
5724	0	31364	
5725	0	31420	
5726	0	31472	
5727	0	31480	
5728	0	31448	
5729	0	31468	
5730	0	31524	
5731	0	31584	
5732	0	31612	
5733	0	31596	
5734	0	31540	
5735	0	31472	
5736	0	31468	
5737	0	31500	
5738	0	31536	
5739	0	31624	
5740	0	31696	
5741	0	31712	
5742	0	31720	
5743	0	31712	
5744	0	31744	
5745	0	31776	
5746	0	31816	
5747	0	31884	
5748	0	31948	
5749	0	31992	
5750	0	32016	
5751	0	31988	
5752	0	31976	
5753	0	31940	
5754	0	31912	
5755	0	31876	
5756	0	31872	
5757	0	31868	
5758	0	31840	
5759	0	31828	
5760	0	31796	
5761	0	31820	
5762	0	31876	
5763	0	31936	
5764	0	31996	
5765	0	32024	
5766	0	32040	
5767	0	32064	
5768	0	32092	
5769	0	32124	
5770	0	32064	
5771	0	32040	
5772	0	32016	
5773	0	31972	
5774	0	31904	
5775	0	31816	
5776	0	31772	
5777	0	31776	
5778	0	31792	
5779	0	31816	
5780	0	31844	
5781	0	31884	
5782	0	31892	
5783	0	31932	
5784	0	31988	
5785	0	32036	
5786	0	32064	
5787	0	32116	
5788	0	32172	
5789	0	32208	
5790	0	32172	
5791	0	32106	
5792	0	32032	
5793	0	32008	
5794	0	31992	
5795	0	31932	
5796	0	31872	
5797	0	31836	
5798	0	31788	
5799	0	31808	
5800	0	31834	
5801	0	31904	
5802	0	31970	
5803	0	32016	
5804	0	32052	
5805	0	32072	
5806	0	32088	
5807	0	32068	
5808	0	32076	
5809	0	32128	
5810	0	32144	
5811	0	32156	
5812	0	32132	
5813	0	32052	
5814	0	31976	
5815	0	31952	
5816	0	31948	
5817	0	31944	
5818	0	31938	
5819	0	31908	
5820	0	31932	
5821	0	31948	
5822	0	31956	
5823	0	31976	
5824	0	32056	
5825	0	32146	
5826	0	32196	
5827	0	32180	
5828	0	32164	
5829	0	32136	
5830	0	32128	
5831	0	32120	
5832	0	32112	
5833	0	32088	
5834	0	32048	
5835	0	32008	
5836	0	31984	
5837	0	31984	
5838	0	32026	
5839	0	32048	
5840	0	32048	
5841	0	32048	
5842	0	32052	
5843	0	32076	
5844	0	32140	
5845	0	32180	
5846	0	32192	
5847	0	32168	
5848	0	32186	
5849	0	32220	
5850	0	32232	
5851	0	32224	
5852	0	32246	
5853	0	32208	
5854	0	32152	
5855	0	32132	
5856	0	32116	
5857	0	32088	
5858	0	32044	
5859	0	32048	
5860	0	32090	
5861	0	32120	
5862	0	32168	
5863	0	32208	
5864	0	32268	
5865	0	32320	
5866	0	32320	
5867	0	32304	
5868	0	32364	
5869	0	32444	
5870	0	32480	
5871	0	32444	
5872	0	32372	
5873	0	32316	
5874	0	32272	
5875	0	32284	
5876	0	32256	
5877	0	32212	
5878	0	32204	
5879	0	32204	
5880	0	32212	
5881	0	32258	
5882	0	32318	
5883	0	32352	
5884	0	32388	
5885	0	32420	
5886	0	32432	
5887	0	32468	
5888	0	32512	
5889	0	32548	
5890	0	32572	
5891	0	32568	
5892	0	32556	
5893	0	32520	
5894	0	32536	
5895	0	32560	
5896	0	32552	
5897	0	32552	
5898	0	32562	
5899	0	32576	
5900	0	32584	
5901	0	32552	
5902	0	32520	
5903	0	32456	
5904	0	32400	
5905	0	32388	
5906	0	32432	
5907	0	32476	
5908	0	32514	
5909	0	32576	
5910	0	32632	
5911	0	32632	
5912	0	32552	
5913	0	32468	
5914	0	32396	
5915	0	32376	
5916	0	32352	
5917	0	32320	
5918	0	32352	
5919	0	32410	
5920	0	32444	
5921	0	32476	
5922	0	32504	
5923	0	32536	
5924	0	32584	
5925	0	32600	
5926	0	32620	
5927	0	32680	
5928	0	32728	
5929	0	32716	
5930	0	32712	
5931	0	32704	
5932	0	32640	
5933	0	32604	
5934	0	32596	
5935	0	32564	
5936	0	32540	
5937	0	32504	
5938	0	32524	
5939	0	32586	
5940	0	32668	
5941	0	32744	
5942	0	32816	
5943	0	32860	
5944	0	32944	
5945	0	33048	
5946	0	33168	
5947	0	33292	
5948	0	33416	
5949	0	33504	
5950	0	33536	
5951	0	33552	
5952	0	33552	
5953	0	33528	
5954	0	33528	
5955	0	33578	
5956	0	33644	
5957	0	33692	
5958	0	33684	
5959	0	33644	
5960	0	33584	
5961	0	33496	
5962	0	33448	
5963	0	33420	
5964	0	33424	
5965	0	33460	
5966	0	33538	
5967	0	33584	
5968	0	33636	
5969	0	33692	
5970	0	33768	
5971	0	33892	
5972	0	34072	
5973	0	34284	
5974	0	34468	
5975	0	34688	
5976	0	34852	
5977	0	34928	
5978	0	35012	
5979	0	35092	
5980	0	35200	
5981	0	35320	
5982	0	35472	
5983	0	35522	
5984	0	35508	
5985	0	35488	
5986	0	35468	
5987	0	35404	
5988	0	35340	
5989	0	35272	
5990	0	35232	
5991	0	35128	
5992	0	34904	
5993	0	34624	
5994	0	34376	
5995	0	34156	
5996	0	33982	
5997	0	33832	
5998	0	33736	
5999	0	33620	
6000	0	33512	
6001	0	33416	
6002	0	33388	
6003	0	33376	
6004	0	33312	
6005	0	33312	
6006	0	33312	
6007	0	33266	
6008	0	33200	
6009	0	33146	
6010	0	33112	
6011	0	33112	
6012	0	33008	
6013	0	32888	
6014	0	32770	
6015	0	32672	
6016	0	32580	
6017	0	32500	
6018	0	32428	
6019	0	32320	
6020	0	32180	
6021	0	32068	
6022	0	31940	
6023	0	31820	
6024	0	31728	
6025	0	31696	
6026	0	31712	
6027	0	31714	
6028	0	31728	
6029	0	31716	
6030	0	31668	
6031	0	31632	
6032	0	31632	
6033	0	31628	
6034	0	31584	
6035	0	31516	
6036	0	31496	
6037	0	31484	
6038	0	31520	
6039	0	31560	
6040	0	31592	
6041	0	31640	
6042	0	31680	
6043	0	31712	
6044	0	31698	
6045	0	31680	
6046	0	31682	
6047	0	31720	
6048	0	31792	
6049	0	31840	
6050	0	31860	
6051	0	31862	
6052	0	31828	
6053	0	31792	
6054	0	31792	
6055	0	31820	
6056	0	31828	
6057	0	31808	
6058	0	31832	
6059	0	31888	
6060	0	31936	
6061	0	31984	
6062	0	32002	
6063	0	32040	
6064	0	32080	
6065	0	32172	
6066	0	32248	
6067	0	32276	
6068	0	32282	
6069	0	32256	
6070	0	32128	
6071	0	31920	
6072	0	31588	
6073	0	31156	
6074	0	30592	
6075	0	29964	
6076	0	29464	
6077	0	29154	
6078	0	29024	
6079	0	29056	
6080	0	29276	
6081	0	29784	
6082	0	30488	
6083	0	31384	
6084	0	32444	
6085	0	33612	
6086	0	34952	
6087	0	36476	
6088	0	38092	
6089	0	39848	
6090	0	41898	
6091	0	44160	
6092	0	46872	
6093	0	50120	
6094	0	53488	
6095	0	56720	
6096	0	59792	
6097	0	62180	
6098	0	63456	
6099	0	64080	
6100	0	64356	
6101	0	64472	
6102	0	64448	
6103	0	64408	
6104	0	64312	
6105	0	64192	
6106	0	64084	
6107	0	63952	
6108	0	59432	
6109	0	53752	
6110	0	48832	
6111	0	44720	
6112	0	41284	
6113	0	38448	
6114	0	36080	
6115	0	33968	
6116	0	32096	
6117	0	30476	
6118	0	29124	
6119	0	28052	
6120	0	27296	
6121	0	26784	
6122	0	26540	
6123	0	26484	
6124	0	26496	
6125	0	26592	
6126	0	26768	
6127	0	26912	
6128	0	26948	
6129	0	26976	
6130	0	26984	
6131	0	27004	
6132	0	27068	
6133	0	27188	
6134	0	27380	
6135	0	27674	
6136	0	27992	
6137	0	28300	
6138	0	28572	
6139	0	28810	
6140	0	29028	
6141	0	29178	
6142	0	29292	
6143	0	29328	
6144	0	29392	
6145	0	29428	
6146	0	29460	
6147	0	29472	
6148	0	29500	
6149	0	29482	
6150	0	29448	
6151	0	29432	
6152	0	29376	
6153	0	29336	
6154	0	29292	
6155	0	29252	
6156	0	29192	
6157	0	29156	
6158	0	29152	
6159	0	29192	
6160	0	29250	
6161	0	29370	
6162	0	29492	
6163	0	29560	
6164	0	29648	
6165	0	29708	
6166	0	29768	
6167	0	29816	
6168	0	29888	
6169	0	29928	
6170	0	29926	
6171	0	29932	
6172	0	29988	
6173	0	30004	
6174	0	29964	
6175	0	29906	
6176	0	29904	
6177	0	29920	
6178	0	29944	
6179	0	30016	
6180	0	30098	
6181	0	30180	
6182	0	30260	
6183	0	30370	
6184	0	30504	
6185	0	30568	
6186	0	30632	
6187	0	30656	
6188	0	30648	
6189	0	30692	
6190	0	30700	
6191	0	30680	
6192	0	30660	
6193	0	30640	
6194	0	30624	
6195	0	30624	
6196	0	30600	
6197	0	30664	
6198	0	30734	
6199	0	30796	
6200	0	30872	
6201	0	30952	
6202	0	31012	
6203	0	31104	
6204	0	31204	
6205	0	31288	
6206	0	31336	
6207	0	31424	
6208	0	31528	
6209	0	31584	
6210	0	31576	
6211	0	31524	
6212	0	31488	
6213	0	31472	
6214	0	31492	
6215	0	31552	
6216	0	31640	
6217	0	31652	
6218	0	31632	
6219	0	31648	
6220	0	31712	
6221	0	31776	
6222	0	31848	
6223	0	31904	
6224	0	31972	
6225	0	32060	
6226	0	32176	
6227	0	32308	
6228	0	32386	
6229	0	32460	
6230	0	32464	
6231	0	32432	
6232	0	32396	
6233	0	32324	
6234	0	32300	
6235	0	32296	
6236	0	32292	
6237	0	32260	
6238	0	32280	
6239	0	32336	
6240	0	32388	
6241	0	32440	
6242	0	32532	
6243	0	32592	
6244	0	32666	
6245	0	32768	
6246	0	32902	
6247	0	33000	
6248	0	33114	
6249	0	33196	
6250	0	33242	
6251	0	33248	
6252	0	33232	
6253	0	33244	
6254	0	33256	
6255	0	33248	
6256	0	33280	
6257	0	33344	
6258	0	33388	
6259	0	33412	
6260	0	33424	
6261	0	33460	
6262	0	33504	
6263	0	33608	
6264	0	33712	
6265	0	33808	
6266	0	33904	
6267	0	33988	
6268	0	34076	
6269	0	34164	
6270	0	34250	
6271	0	34316	
6272	0	34344	
6273	0	34368	
6274	0	34386	
6275	0	34412	
6276	0	34452	
6277	0	34496	
6278	0	34484	
6279	0	34480	
6280	0	34492	
6281	0	34578	
6282	0	34740	
6283	0	34896	
6284	0	34996	
6285	0	35068	
6286	0	35168	
6287	0	35288	
6288	0	35436	
6289	0	35568	
6290	0	35672	
6291	0	35736	
6292	0	35744	
6293	0	35784	
6294	0	35808	
6295	0	35824	
6296	0	35820	
6297	0	35802	
6298	0	35840	
6299	0	35920	
6300	0	35988	
6301	0	36068	
6302	0	36168	
6303	0	36300	
6304	0	36432	
6305	0	36560	
6306	0	36672	
6307	0	36760	
6308	0	36804	
6309	0	36876	
6310	0	36930	
6311	0	37000	
6312	0	37080	
6313	0	37092	
6314	0	37044	
6315	0	36996	
6316	0	37000	
6317	0	37034	
6318	0	37028	
6319	0	37044	
6320	0	37070	
6321	0	37100	
6322	0	37114	
6323	0	37170	
6324	0	37240	
6325	0	37312	
6326	0	37388	
6327	0	37448	
6328	0	37460	
6329	0	37468	
6330	0	37436	
6331	0	37376	
6332	0	37320	
6333	0	37280	
6334	0	37216	
6335	0	37152	
6336	0	37104	
6337	0	37058	
6338	0	37004	
6339	0	36964	
6340	0	37012	
6341	0	37024	
6342	0	37008	
6343	0	36980	
6344	0	36924	
6345	0	36940	
6346	0	36984	
6347	0	37008	
6348	0	37032	
6349	0	36992	
6350	0	36920	
6351	0	36836	
6352	0	36686	
6353	0	36524	
6354	0	36320	
6355	0	36104	
6356	0	35924	
6357	0	35728	
6358	0	35624	
6359	0	35464	
6360	0	35308	
6361	0	35144	
6362	0	35032	
6363	0	34892	
6364	0	34724	
6365	0	34552	
6366	0	34416	
6367	0	34236	
6368	0	34032	
6369	0	33820	
6370	0	33620	
6371	0	33372	
6372	0	33144	
6373	0	32920	
6374	0	32664	
6375	0	32396	
6376	0	32128	
6377	0	31924	
6378	0	31722	
6379	0	31584	
6380	0	31456	
6381	0	31330	
6382	0	31196	
6383	0	31064	
6384	0	30940	
6385	0	30856	
6386	0	30778	
6387	0	30676	
6388	0	30568	
6389	0	30404	
6390	0	30236	
6391	0	30084	
6392	0	29938	
6393	0	29828	
6394	0	29714	
6395	0	29588	
6396	0	29444	
6397	0	29320	
6398	0	29216	
6399	0	29156	
6400	0	29088	
6401	0	29048	
6402	0	29020	
6403	0	29012	
6404	0	29016	
6405	0	29012	
6406	0	29016	
6407	0	29018	
6408	0	29008	
6409	0	28980	
6410	0	28948	
6411	0	28880	
6412	0	28824	
6413	0	28772	
6414	0	28768	
6415	0	28704	
6416	0	28644	
6417	0	28616	
6418	0	28620	
6419	0	28632	
6420	0	28652	
6421	0	28704	
6422	0	28740	
6423	0	28792	
6424	0	28812	
6425	0	28820	
6426	0	28864	
6427	0	28908	
6428	0	28952	
6429	0	28984	
6430	0	28996	
6431	0	28992	
6432	0	28956	
6433	0	28904	
6434	0	28856	
6435	0	28834	
6436	0	28840	
6437	0	28860	
6438	0	28912	
6439	0	28960	
6440	0	29012	
6441	0	29112	
6442	0	29160	
6443	0	29148	
6444	0	29132	
6445	0	29220	
6446	0	29340	
6447	0	29412	
6448	0	29492	
6449	0	29596	
6450	0	29692	
6451	0	29764	
6452	0	29786	
6453	0	29756	
6454	0	29736	
6455	0	29744	
6456	0	29768	
6457	0	29740	
6458	0	29748	
6459	0	29762	
6460	0	29780	
6461	0	29896	
6462	0	30048	
6463	0	30172	
6464	0	30264	
6465	0	30336	
6466	0	30368	
6467	0	30378	
6468	0	30364	
6469	0	30356	
6470	0	30388	
6471	0	30400	
6472	0	30404	
6473	0	30404	
6474	0	30412	
6475	0	30426	
6476	0	30408	
6477	0	30424	
6478	0	30468	
6479	0	30496	
6480	0	30452	
6481	0	30464	
6482	0	30528	
6483	0	30624	
6484	0	30696	
6485	0	30796	
6486	0	30868	
6487	0	30912	
6488	0	30984	
6489	0	31040	
6490	0	31072	
6491	0	31080	
6492	0	31080	
6493	0	31056	
6494	0	31048	
6495	0	31028	
6496	0	31022	
6497	0	31000	
6498	0	30980	
6499	0	30976	
6500	0	30980	
6501	0	30980	
6502	0	31032	
6503	0	31088	
6504	0	31176	
6505	0	31256	
6506	0	31306	
6507	0	31352	
6508	0	31440	
6509	0	31476	
6510	0	31476	
6511	0	31460	
6512	0	31420	
6513	0	31356	
6514	0	31324	
6515	0	31324	
6516	0	31308	
6517	0	31290	
6518	0	31252	
6519	0	31256	
6520	0	31274	
6521	0	31324	
6522	0	31368	
6523	0	31484	
6524	0	31608	
6525	0	31656	
6526	0	31696	
6527	0	31748	
6528	0	31796	
6529	0	31796	
6530	0	31816	
6531	0	31752	
6532	0	31664	
6533	0	31584	
6534	0	31580	
6535	0	31544	
6536	0	31452	
6537	0	31448	
6538	0	31468	
6539	0	31516	
6540	0	31536	
6541	0	31528	
6542	0	31568	
6543	0	31628	
6544	0	31680	
6545	0	31708	
6546	0	31720	
6547	0	31736	
6548	0	31752	
6549	0	31724	
6550	0	31728	
6551	0	31712	
6552	0	31700	
6553	0	31668	
6554	0	31648	
6555	0	31636	
6556	0	31610	
6557	0	31568	
6558	0	31548	
6559	0	31584	
6560	0	31620	
6561	0	31636	
6562	0	31644	
6563	0	31648	
6564	0	31648	
6565	0	31588	
6566	0	31512	
6567	0	31448	
6568	0	31424	
6569	0	31468	
6570	0	31536	
6571	0	31560	
6572	0	31540	
6573	0	31528	
6574	0	31492	
6575	0	31464	
6576	0	31436	
6577	0	31412	
6578	0	31392	
6579	0	31412	
6580	0	31488	
6581	0	31536	
6582	0	31588	
6583	0	31628	
6584	0	31680	
6585	0	31712	
6586	0	31748	
6587	0	31756	
6588	0	31788	
6589	0	31780	
6590	0	31732	
6591	0	31692	
6592	0	31648	
6593	0	31580	
6594	0	31508	
6595	0	31480	
6596	0	31480	
6597	0	31456	
6598	0	31392	
6599	0	31364	
6600	0	31388	
6601	0	31408	
6602	0	31416	
6603	0	31452	
6604	0	31540	
6605	0	31644	
6606	0	31752	
6607	0	31816	
6608	0	31824	
6609	0	31772	
6610	0	31712	
6611	0	31672	
6612	0	31628	
6613	0	31600	
6614	0	31612	
6615	0	31616	
6616	0	31536	
6617	0	31488	
6618	0	31424	
6619	0	31400	
6620	0	31412	
6621	0	31450	
6622	0	31488	
6623	0	31520	
6624	0	31584	
6625	0	31676	
6626	0	31776	
6627	0	31828	
6628	0	31852	
6629	0	31880	
6630	0	31880	
6631	0	31892	
6632	0	31840	
6633	0	31802	
6634	0	31800	
6635	0	31772	
6636	0	31770	
6637	0	31724	
6638	0	31722	
6639	0	31724	
6640	0	31692	
6641	0	31736	
6642	0	31780	
6643	0	31776	
6644	0	31776	
6645	0	31836	
6646	0	31872	
6647	0	31832	
6648	0	31808	
6649	0	31840	
6650	0	31872	
6651	0	31880	
6652	0	31860	
6653	0	31876	
6654	0	31940	
6655	0	31912	
6656	0	31844	
6657	0	31840	
6658	0	31852	
6659	0	31884	
6660	0	31924	
6661	0	31952	
6662	0	31964	
6663	0	31936	
6664	0	31884	
6665	0	31904	
6666	0	31972	
6667	0	32028	
6668	0	32058	
6669	0	32068	
6670	0	32040	
6671	0	32112	
6672	0	32184	
6673	0	32176	
6674	0	32096	
6675	0	32016	
6676	0	31972	
6677	0	31948	
6678	0	31896	
6679	0	31848	
6680	0	31820	
6681	0	31804	
6682	0	31840	
6683	0	31904	
6684	0	31956	
6685	0	31996	
6686	0	31984	
6687	0	31964	
6688	0	31996	
6689	0	32056	
6690	0	32064	
6691	0	32056	
6692	0	32044	
6693	0	32036	
6694	0	31976	
6695	0	31952	
6696	0	31924	
6697	0	31952	
6698	0	31978	
6699	0	31992	
6700	0	31956	
6701	0	31928	
6702	0	31968	
6703	0	31964	
6704	0	31944	
6705	0	31968	
6706	0	32052	
6707	0	32144	
6708	0	32220	
6709	0	32288	
6710	0	32256	
6711	0	32172	
6712	0	32096	
6713	0	32056	
6714	0	32064	
6715	0	32064	
6716	0	32056	
6717	0	31994	
6718	0	31936	
6719	0	31920	
6720	0	31936	
6721	0	31992	
6722	0	32064	
6723	0	32116	
6724	0	32190	
6725	0	32296	
6726	0	32332	
6727	0	32372	
6728	0	32428	
6729	0	32488	
6730	0	32588	
6731	0	32712	
6732	0	32792	
6733	0	32804	
6734	0	32856	
6735	0	32944	
6736	0	33012	
6737	0	33070	
6738	0	33152	
6739	0	33216	
6740	0	33304	
6741	0	33400	
6742	0	33458	
6743	0	33492	
6744	0	33504	
6745	0	33476	
6746	0	33428	
6747	0	33352	
6748	0	33300	
6749	0	33228	
6750	0	33120	
6751	0	33002	
6752	0	32964	
6753	0	32976	
6754	0	33044	
6755	0	33132	
6756	0	33280	
6757	0	33508	
6758	0	33748	
6759	0	34004	
6760	0	34228	
6761	0	34432	
6762	0	34560	
6763	0	34600	
6764	0	34672	
6765	0	34840	
6766	0	35002	
6767	0	35156	
6768	0	35192	
6769	0	35180	
6770	0	35108	
6771	0	34964	
6772	0	34808	
6773	0	34672	
6774	0	34488	
6775	0	34324	
6776	0	34128	
6777	0	33924	
6778	0	33780	
6779	0	33634	
6780	0	33540	
6781	0	33464	
6782	0	33456	
6783	0	33416	
6784	0	33312	
6785	0	33156	
6786	0	33064	
6787	0	33024	
6788	0	33040	
6789	0	33068	
6790	0	33004	
6791	0	32880	
6792	0	32776	
6793	0	32660	
6794	0	32564	
6795	0	32504	
6796	0	32368	
6797	0	32260	
6798	0	32172	
6799	0	32060	
6800	0	31952	
6801	0	31852	
6802	0	31788	
6803	0	31740	
6804	0	31704	
6805	0	31636	
6806	0	31556	
6807	0	31444	
6808	0	31344	
6809	0	31248	
6810	0	31156	
6811	0	31068	
6812	0	31012	
6813	0	30952	
6814	0	30880	
6815	0	30848	
6816	0	30832	
6817	0	30856	
6818	0	30874	
6819	0	30892	
6820	0	30892	
6821	0	30928	
6822	0	30988	
6823	0	31036	
6824	0	31076	
6825	0	31096	
6826	0	31128	
6827	0	31164	
6828	0	31180	
6829	0	31210	
6830	0	31180	
6831	0	31164	
6832	0	31200	
6833	0	31200	
6834	0	31168	
6835	0	31132	
6836	0	31120	
6837	0	31164	
6838	0	31208	
6839	0	31260	
6840	0	31330	
6841	0	31368	
6842	0	31406	
6843	0	31440	
6844	0	31512	
6845	0	31578	
6846	0	31648	
6847	0	31696	
6848	0	31768	
6849	0	31812	
6850	0	31856	
6851	0	31840	
6852	0	31764	
6853	0	31712	
6854	0	31588	
6855	0	31372	
6856	0	30992	
6857	0	30496	
6858	0	29864	
6859	0	29212	
6860	0	28740	
6861	0	28504	
6862	0	28472	
6863	0	28624	
6864	0	28960	
6865	0	29516	
6866	0	30268	
6867	0	31248	
6868	0	32364	
6869	0	33604	
6870	0	35020	
6871	0	36544	
6872	0	38132	
6873	0	39894	
6874	0	41916	
6875	0	44188	
6876	0	46940	
6877	0	50184	
6878	0	53544	
6879	0	56788	
6880	0	59840	
6881	0	62392	
6882	0	63792	
6883	0	64504	
6884	0	64824	
6885	0	64940	
6886	0	64920	
6887	0	64884	
6888	0	64768	
6889	0	64680	
6890	0	64568	
6891	0	63352	
6892	0	57448	
6893	0	52004	
6894	0	47296	
6895	0	43404	
6896	0	40160	
6897	0	37516	
6898	0	35248	
6899	0	33200	
6900	0	31432	
6901	0	29888	
6902	0	28582	
6903	0	27530	
6904	0	26808	
6905	0	26320	
6906	0	26096	
6907	0	26060	
6908	0	26128	
6909	0	26298	
6910	0	26540	
6911	0	26688	
6912	0	26704	
6913	0	26693	
6914	0	26692	
6915	0	26776	
6916	0	26928	
6917	0	27104	
6918	0	27320	
6919	0	27616	
6920	0	27908	
6921	0	28192	
6922	0	28476	
6923	0	28788	
6924	0	29012	
6925	0	29170	
6926	0	29332	
6927	0	29420	
6928	0	29476	
6929	0	29472	
6930	0	29456	
6931	0	29432	
6932	0	29400	
6933	0	29388	
6934	0	29356	
6935	0	29296	
6936	0	29240	
6937	0	29208	
6938	0	29212	
6939	0	29200	
6940	0	29236	
6941	0	29308	
6942	0	29352	
6943	0	29368	
6944	0	29408	
6945	0	29508	
6946	0	29604	
6947	0	29644	
6948	0	29624	
6949	0	29600	
6950	0	29624	
6951	0	29652	
6952	0	29668	
6953	0	29660	
6954	0	29708	
6955	0	29800	
6956	0	29842	
6957	0	29808	
6958	0	29760	
6959	0	29738	
6960	0	29758	
6961	0	29784	
6962	0	29880	
6963	0	29952	
6964	0	30034	
6965	0	30120	
6966	0	30208	
6967	0	30288	
6968	0	30380	
6969	0	30448	
6970	0	30496	
6971	0	30516	
6972	0	30508	
6973	0	30560	
6974	0	30544	
6975	0	30528	
6976	0	30538	
6977	0	30576	
6978	0	30632	
6979	0	30704	
6980	0	30800	
6981	0	30880	
6982	0	30952	
6983	0	30996	
6984	0	31048	
6985	0	31104	
6986	0	31200	
6987	0	31272	
6988	0	31312	
6989	0	31332	
6990	0	31292	
6991	0	31232	
6992	0	31216	
6993	0	31200	
6994	0	31176	
6995	0	31200	
6996	0	31236	
6997	0	31232	
6998	0	31264	
6999	0	31348	
7000	0	31440	
7001	0	31474	
7002	0	31528	
7003	0	31610	
7004	0	31692	
7005	0	31776	
7006	0	31852	
7007	0	31920	
7008	0	31988	
7009	0	32064	
7010	0	32100	
7011	0	32104	
7012	0	32088	
7013	0	32100	
7014	0	32104	
7015	0	32124	
7016	0	32148	
7017	0	32152	
7018	0	32172	
7019	0	32224	
7020	0	32304	
7021	0	32374	
7022	0	32476	
7023	0	32580	
7024	0	32658	
7025	0	32724	
7026	0	32792	
7027	0	32832	
7028	0	32874	
7029	0	32932	
7030	0	32942	
7031	0	32948	
7032	0	32984	
7033	0	32976	
7034	0	32964	
7035	0	32968	
7036	0	33020	
7037	0	33084	
7038	0	33168	
7039	0	33232	
7040	0	33264	
7041	0	33316	
7042	0	33400	
7043	0	33504	
7044	0	33600	
7045	0	33720	
7046	0	33844	
7047	0	33978	
7048	0	34028	
7049	0	34078	
7050	0	34136	
7051	0	34188	
7052	0	34208	
7053	0	34216	
7054	0	34196	
7055	0	34220	
7056	0	34232	
7057	0	34272	
7058	0	34332	
7059	0	34388	
7060	0	34464	
7061	0	34568	
7062	0	34698	
7063	0	34840	
7064	0	34940	
7065	0	35024	
7066	0	35140	
7067	0	35232	
7068	0	35300	
7069	0	35344	
7070	0	35392	
7071	0	35456	
7072	0	35516	
7073	0	35560	
7074	0	35616	
7075	0	35652	
7076	0	35708	
7077	0	35728	
7078	0	35770	
7079	0	35828	
7080	0	35904	
7081	0	36020	
7082	0	36160	
7083	0	36320	
7084	0	36428	
7085	0	36484	
7086	0	36560	
7087	0	36620	
7088	0	36676	
7089	0	36744	
7090	0	36764	
7091	0	36784	
7092	0	36824	
7093	0	36844	
7094	0	36836	
7095	0	36860	
7096	0	36840	
7097	0	36848	
7098	0	36856	
7099	0	36900	
7100	0	36944	
7101	0	37012	
7102	0	37104	
7103	0	37164	
7104	0	37184	
7105	0	37168	
7106	0	37164	
7107	0	37240	
7108	0	37312	
7109	0	37360	
7110	0	37360	
7111	0	37360	
7112	0	37376	
7113	0	37332	
7114	0	37284	
7115	0	37224	
7116	0	37144	
7117	0	37100	
7118	0	37096	
7119	0	37064	
7120	0	37032	
7121	0	37040	
7122	0	37100	
7123	0	37152	
7124	0	37148	
7125	0	37132	
7126	0	37160	
7127	0	37156	
7128	0	37108	
7129	0	37072	
7130	0	37024	
7131	0	36942	
7132	0	36816	
7133	0	36728	
7134	0	36608	
7135	0	36480	
7136	0	36352	
7137	0	36256	
7138	0	36160	
7139	0	36108	
7140	0	36036	
7141	0	35984	
7142	0	35908	
7143	0	35752	
7144	0	35584	
7145	0	35396	
7146	0	35216	
7147	0	35080	
7148	0	34940	
7149	0	34832	
7150	0	34696	
7151	0	34432	
7152	0	34114	
7153	0	33856	
7154	0	33640	
7155	0	33390	
7156	0	33184	
7157	0	33004	
7158	0	32836	
7159	0	32640	
7160	0	32460	
7161	0	32288	
7162	0	32122	
7163	0	31996	
7164	0	31868	
7165	0	31748	
7166	0	31648	
7167	0	31528	
7168	0	31348	
7169	0	31176	
7170	0	31016	
7171	0	30856	
7172	0	30664	
7173	0	30504	
7174	0	30362	
7175	0	30254	
7176	0	30136	
7177	0	30008	
7178	0	29880	
7179	0	29744	
7180	0	29656	
7181	0	29568	
7182	0	29496	
7183	0	29464	
7184	0	29424	
7185	0	29366	
7186	0	29336	
7187	0	29356	
7188	0	29276	
7189	0	29164	
7190	0	29060	
7191	0	28962	
7192	0	28908	
7193	0	28868	
7194	0	28816	
7195	0	28792	
7196	0	28754	
7197	0	28736	
7198	0	28720	
7199	0	28720	
7200	0	28736	
7201	0	28728	
7202	0	28748	
7203	0	28784	
7204	0	28872	
7205	0	28940	
7206	0	29000	
7207	0	29046	
7208	0	29092	
7209	0	29112	
7210	0	29124	
7211	0	29100	
7212	0	29056	
7213	0	29000	
7214	0	28984	
7215	0	28988	
7216	0	28988	
7217	0	28976	
7218	0	29006	
7219	0	29104	
7220	0	29176	
7221	0	29232	
7222	0	29332	
7223	0	29480	
7224	0	29624	
7225	0	29706	
7226	0	29768	
7227	0	29826	
7228	0	29888	
7229	0	29916	
7230	0	29962	
7231	0	29976	
7232	0	29988	
7233	0	29956	
7234	0	29926	
7235	0	29898	
7236	0	29896	
7237	0	29912	
7238	0	29932	
7239	0	30012	
7240	0	30052	
7241	0	30112	
7242	0	30176	
7243	0	30248	
7244	0	30344	
7245	0	30436	
7246	0	30474	
7247	0	30520	
7248	0	30568	
7249	0	30636	
7250	0	30636	
7251	0	30636	
7252	0	30638	
7253	0	30652	
7254	0	30660	
7255	0	30656	
7256	0	30672	
7257	0	30688	
7258	0	30660	
7259	0	30658	
7260	0	30664	
7261	0	30744	
7262	0	30844	
7263	0	30944	
7264	0	31004	
7265	0	31044	
7266	0	31104	
7267	0	31146	
7268	0	31172	
7269	0	31200	
7270	0	31216	
7271	0	31232	
7272	0	31184	
7273	0	31140	
7274	0	31138	
7275	0	31136	
7276	0	31140	
7277	0	31152	
7278	0	31192	
7279	0	31252	
7280	0	31300	
7281	0	31316	
7282	0	31368	
7283	0	31426	
7284	0	31504	
7285	0	31592	
7286	0	31700	
7287	0	31760	
7288	0	31778	
7289	0	31784	
7290	0	31786	
7291	0	31716	
7292	0	31620	
7293	0	31552	
7294	0	31524	
7295	0	31552	
7296	0	31568	
7297	0	31572	
7298	0	31568	
7299	0	31592	
7300	0	31600	
7301	0	31636	
7302	0	31704	
7303	0	31740	
7304	0	31768	
7305	0	31852	
7306	0	31912	
7307	0	31964	
7308	0	32004	
7309	0	32032	
7310	0	32072	
7311	0	32068	
7312	0	32000	
7313	0	31932	
7314	0	31888	
7315	0	31824	
7316	0	31748	
7317	0	31714	
7318	0	31680	
7319	0	31608	
7320	0	31568	
7321	0	31576	
7322	0	31584	
7323	0	31632	
7324	0	31740	
7325	0	31828	
7326	0	31872	
7327	0	31900	
7328	0	31904	
7329	0	31916	
7330	0	31860	
7331	0	31800	
7332	0	31796	
7333	0	31794	
7334	0	31812	
7335	0	31788	
7336	0	31754	
7337	0	31748	
7338	0	31738	
7339	0	31684	
7340	0	31644	
7341	0	31608	
7342	0	31576	
7343	0	31636	
7344	0	31684	
7345	0	31688	
7346	0	31712	
7347	0	31748	
7348	0	31852	
7349	0	31964	
7350	0	32004	
7351	0	31996	
7352	0	31944	
7353	0	31912	
7354	0	31876	
7355	0	31832	
7356	0	31778	
7357	0	31724	
7358	0	31640	
7359	0	31644	
7360	0	31676	
7361	0	31724	
7362	0	31764	
7363	0	31808	
7364	0	31860	
7365	0	31872	
7366	0	31888	
7367	0	31924	
7368	0	31972	
7369	0	31978	
7370	0	31980	
7371	0	31980	
7372	0	31922	
7373	0	31772	
7374	0	31628	
7375	0	31492	
7376	0	31380	
7377	0	31352	
7378	0	31392	
7379	0	31500	
7380	0	31576	
7381	0	31600	
7382	0	31620	
7383	0	31632	
7384	0	31680	
7385	0	31744	
7386	0	31824	
7387	0	31940	
7388	0	32026	
7389	0	32096	
7390	0	32108	
7391	0	32128	
7392	0	32106	
7393	0	32000	
7394	0	31930	
7395	0	31860	
7396	0	31724	
7397	0	31648	
7398	0	31616	
7399	0	31608	
7400	0	31648	
7401	0	31716	
7402	0	31768	
7403	0	31816	
7404	0	31876	
7405	0	31968	
7406	0	32060	
7407	0	32112	
7408	0	32172	
7409	0	32234	
7410	0	32280	
7411	0	32304	
7412	0	32260	
7413	0	32228	
7414	0	32152	
7415	0	32088	
7416	0	32016	
7417	0	31988	
7418	0	31988	
7419	0	31992	
7420	0	31984	
7421	0	31992	
7422	0	32004	
7423	0	32024	
7424	0	32044	
7425	0	32084	
7426	0	32108	
7427	0	32136	
7428	0	32212	
7429	0	32256	
7430	0	32288	
7431	0	32296	
7432	0	32256	
7433	0	32186	
7434	0	32152	
7435	0	32154	
7436	0	32148	
7437	0	32168	
7438	0	32192	
7439	0	32204	
7440	0	32224	
7441	0	32232	
7442	0	32248	
7443	0	32296	
7444	0	32352	
7445	0	32420	
7446	0	32480	
7447	0	32524	
7448	0	32556	
7449	0	32544	
7450	0	32496	
7451	0	32472	
7452	0	32480	
7453	0	32472	
7454	0	32478	
7455	0	32396	
7456	0	32316	
7457	0	32248	
7458	0	32232	
7459	0	32244	
7460	0	32288	
7461	0	32298	
7462	0	32314	
7463	0	32388	
7464	0	32448	
7465	0	32516	
7466	0	32624	
7467	0	32680	
7468	0	32736	
7469	0	32744	
7470	0	32724	
7471	0	32712	
7472	0	32700	
7473	0	32664	
7474	0	32552	
7475	0	32472	
7476	0	32432	
7477	0	32416	
7478	0	32404	
7479	0	32432	
7480	0	32464	
7481	0	32516	
7482	0	32596	
7483	0	32684	
7484	0	32748	
7485	0	32784	
7486	0	32856	
7487	0	32888	
7488	0	32880	
7489	0	32888	
7490	0	32912	
7491	0	32924	
7492	0	32924	
7493	0	32920	
7494	0	32912	
7495	0	32938	
7496	0	33000	
7497	0	33076	
7498	0	33152	
7499	0	33176	
7500	0	33216	
7501	0	33312	
7502	0	33404	
7503	0	33508	
7504	0	33632	
7505	0	33776	
7506	0	33920	
7507	0	34016	
7508	0	34092	
7509	0	34160	
7510	0	34116	
7511	0	34024	
7512	0	33880	
7513	0	33800	
7514	0	33720	
7515	0	33664	
7516	0	33620	
7517	0	33568	
7518	0	33548	
7519	0	33544	
7520	0	33568	
7521	0	33620	
7522	0	33764	
7523	0	33944	
7524	0	34216	
7525	0	34544	
7526	0	34928	
7527	0	35224	
7528	0	35424	
7529	0	35544	
7530	0	35616	
7531	0	35712	
7532	0	35832	
7533	0	35928	
7534	0	35978	
7535	0	35920	
7536	0	35752	
7537	0	35552	
7538	0	35436	
7539	0	35352	
7540	0	35260	
7541	0	35192	
7542	0	35124	
7543	0	34994	
7544	0	34856	
7545	0	34760	
7546	0	34644	
7547	0	34576	
7548	0	34494	
7549	0	34396	
7550	0	34312	
7551	0	34160	
7552	0	34012	
7553	0	33868	
7554	0	33736	
7555	0	33604	
7556	0	33492	
7557	0	33360	
7558	0	33220	
7559	0	33088	
7560	0	32984	
7561	0	32968	
7562	0	32976	
7563	0	32980	
7564	0	32968	
7565	0	32944	
7566	0	32880	
7567	0	32800	
7568	0	32728	
7569	0	32696	
7570	0	32632	
7571	0	32476	
7572	0	32340	
7573	0	32200	
7574	0	32040	
7575	0	31896	
7576	0	31788	
7577	0	31700	
7578	0	31668	
7579	0	31632	
7580	0	31600	
7581	0	31592	
7582	0	31620	
7583	0	31648	
7584	0	31700	
7585	0	31736	
7586	0	31776	
7587	0	31840	
7588	0	31880	
7589	0	31896	
7590	0	31932	
7591	0	31940	
7592	0	31940	
7593	0	31892	
7594	0	31832	
7595	0	31804	
7596	0	31824	
7597	0	31816	
7598	0	31772	
7599	0	31712	
7600	0	31692	
7601	0	31692	
7602	0	31744	
7603	0	31792	
7604	0	31900	
7605	0	32004	
7606	0	32084	
7607	0	32156	
7608	0	32208	
7609	0	32260	
7610	0	32284	
7611	0	32332	
7612	0	32368	
7613	0	32336	
7614	0	32280	
7615	0	32216	
7616	0	32204	
7617	0	32168	
7618	0	32160	
7619	0	32084	
7620	0	31940	
7621	0	31804	
7622	0	31636	
7623	0	31368	
7624	0	30912	
7625	0	30312	
7626	0	29738	
7627	0	29380	
7628	0	29222	
7629	0	29268	
7630	0	29460	
7631	0	29856	
7632	0	30400	
7633	0	31216	
7634	0	32208	
7635	0	33244	
7636	0	34412	
7637	0	35800	
7638	0	37368	
7639	0	39004	
7640	0	40956	
7641	0	43216	
7642	0	45824	
7643	0	48952	
7644	0	52346	
7645	0	55672	
7646	0	58832	
7647	0	61656	
7648	0	63248	
7649	0	64080	
7650	0	64456	
7651	0	64608	
7652	0	64620	
7653	0	64596	
7654	0	64496	
7655	0	64412	
7656	0	64288	
7657	0	64160	
7658	0	59528	
7659	0	53828	
7660	0	48832	
7661	0	44708	
7662	0	41300	
7663	0	38536	
7664	0	36272	
7665	0	34280	
7666	0	32532	
7667	0	30996	
7668	0	29572	
7669	0	28340	
7670	0	27424	
7671	0	26792	
7672	0	26376	
7673	0	26176	
7674	0	26160	
7675	0	26252	
7676	0	26360	
7677	0	26416	
7678	0	26416	
7679	0	26492	
7680	0	26604	
7681	0	26764	
7682	0	26968	
7683	0	27272	
7684	0	27632	
7685	0	27992	
7686	0	28348	
7687	0	28720	
7688	0	29056	
7689	0	29316	
7690	0	29536	
7691	0	29668	
7692	0	29760	
7693	0	29776	
7694	0	29746	
7695	0	29714	
7696	0	29680	
7697	0	29678	
7698	0	29688	
7699	0	29684	
7700	0	29632	
7701	0	29634	
7702	0	29632	
7703	0	29708	
7704	0	29808	
7705	0	29856	
7706	0	29888	
7707	0	29936	
7708	0	29985	
7709	0	30048	
7710	0	30092	
7711	0	30112	
7712	0	30112	
7713	0	30088	
7714	0	30084	
7715	0	30064	
7716	0	30040	
7717	0	30008	
7718	0	29988	
7719	0	29996	
7720	0	30080	
7721	0	30140	
7722	0	30220	
7723	0	30314	
7724	0	30436	
7725	0	30528	
7726	0	30608	
7727	0	30656	
7728	0	30712	
7729	0	30784	
7730	0	30816	
7731	0	30872	
7732	0	30888	
7733	0	30920	
7734	0	30930	
7735	0	30928	
7736	0	30932	
7737	0	30936	
7738	0	30964	
7739	0	30980	
7740	0	30980	
7741	0	31064	
7742	0	31148	
7743	0	31212	
7744	0	31252	
7745	0	31320	
7746	0	31408	
7747	0	31474	
7748	0	31528	
7749	0	31560	
7750	0	31568	
7751	0	31624	
7752	0	31628	
7753	0	31612	
7754	0	31612	
7755	0	31600	
7756	0	31556	
7757	0	31540	
7758	0	31576	
7759	0	31620	
7760	0	31688	
7761	0	31776	
7762	0	31884	
7763	0	31984	
7764	0	32052	
7765	0	32120	
7766	0	32192	
7767	0	32260	
7768	0	32328	
7769	0	32392	
7770	0	32424	
7771	0	32420	
7772	0	32400	
7773	0	32412	
7774	0	32420	
7775	0	32412	
7776	0	32408	
7777	0	32416	
7778	0	32416	
7779	0	32450	
7780	0	32520	
7781	0	32592	
7782	0	32668	
7783	0	32760	
7784	0	32824	
7785	0	32886	
7786	0	32924	
7787	0	32964	
7788	0	32996	
7789	0	33032	
7790	0	33056	
7791	0	33112	
7792	0	33156	
7793	0	33176	
7794	0	33188	
7795	0	33216	
7796	0	33212	
7797	0	33216	
7798	0	33276	
7799	0	33304	
7800	0	33340	
7801	0	33408	
7802	0	33520	
7803	0	33644	
7804	0	33752	
7805	0	33780	
7806	0	33832	
7807	0	33934	
7808	0	34016	
7809	0	34116	
7810	0	34216	
7811	0	34232	
7812	0	34236	
7813	0	34224	
7814	0	34240	
7815	0	34264	
7816	0	34266	
7817	0	34248	
7818	0	34286	
7819	0	34368	
7820	0	34444	
7821	0	34500	
7822	0	34600	
7823	0	34732	
7824	0	34864	
7825	0	34964	
7826	0	35064	
7827	0	35152	
7828	0	35200	
7829	0	35276	
7830	0	35284	
7831	0	35292	
7832	0	35328	
7833	0	35356	
7834	0	35392	
7835	0	35424	
7836	0	35424	
7837	0	35444	
7838	0	35496	
7839	0	35604	
7840	0	35708	
7841	0	35812	
7842	0	35924	
7843	0	36056	
7844	0	36164	
7845	0	36308	
7846	0	36448	
7847	0	36580	
7848	0	36629	
7849	0	36648	
7850	0	36658	
7851	0	36664	
7852	0	36692	
7853	0	36704	
7854	0	36696	
7855	0	36728	
7856	0	36752	
7857	0	36776	
7858	0	36768	
7859	0	36796	
7860	0	36792	
7861	0	36800	
7862	0	36876	
7863	0	36992	
7864	0	37108	
7865	0	37172	
7866	0	37228	
7867	0	37216	
7868	0	37256	
7869	0	37296	
7870	0	37344	
7871	0	37360	
7872	0	37360	
7873	0	37320	
7874	0	37268	
7875	0	37200	
7876	0	37112	
7877	0	37056	
7878	0	37024	
7879	0	37004	
7880	0	36944	
7881	0	36926	
7882	0	36948	
7883	0	37022	
7884	0	37060	
7885	0	37084	
7886	0	37116	
7887	0	37124	
7888	0	37112	
7889	0	37040	
7890	0	36972	
7891	0	36904	
7892	0	36844	
7893	0	36824	
7894	0	36816	
7895	0	36780	
7896	0	36704	
7897	0	36596	
7898	0	36512	
7899	0	36428	
7900	0	36320	
7901	0	36196	
7902	0	36100	
7903	0	35976	
7904	0	35928	
7905	0	35872	
7906	0	35794	
7907	0	35732	
7908	0	35632	
7909	0	35552	
7910	0	35396	
7911	0	35160	
7912	0	34920	
7913	0	34692	
7914	0	34458	
7915	0	34200	
7916	0	33972	
7917	0	33720	
7918	0	33440	
7919	0	33252	
7920	0	33088	
7921	0	32960	
7922	0	32848	
7923	0	32720	
7924	0	32620	
7925	0	32508	
7926	0	32384	
7927	0	32218	
7928	0	32096	
7929	0	31944	
7930	0	31776	
7931	0	31580	
7932	0	31368	
7933	0	31176	
7934	0	31000	
7935	0	30836	
7936	0	30682	
7937	0	30536	
7938	0	30400	
7939	0	30272	
7940	0	30128	
7941	0	29988	
7942	0	29876	
7943	0	29744	
7944	0	29656	
7945	0	29612	
7946	0	29596	
7947	0	29548	
7948	0	29484	
7949	0	29388	
7950	0	29296	
7951	0	29216	
7952	0	29112	
7953	0	29024	
7954	0	28908	
7955	0	28832	
7956	0	28756	
7957	0	28748	
7958	0	28748	
7959	0	28768	
7960	0	28712	
7961	0	28640	
7962	0	28624	
7963	0	28696	
7964	0	28744	
7965	0	28744	
7966	0	28698	
7967	0	28704	
7968	0	28720	
7969	0	28764	
7970	0	28820	
7971	0	28840	
7972	0	28788	
7973	0	28710	
7974	0	28660	
7975	0	28652	
7976	0	28644	
7977	0	28634	
7978	0	28688	
7979	0	28768	
7980	0	28816	
7981	0	28856	
7982	0	28880	
7983	0	28984	
7984	0	29108	
7985	0	29220	
7986	0	29356	
7987	0	29500	
7988	0	29572	
7989	0	29588	
7990	0	29576	
7991	0	29516	
7992	0	29484	
7993	0	29436	
7994	0	29396	
7995	0	29376	
7996	0	29364	
7997	0	29340	
7998	0	29360	
7999	0	29416	
8000	0	29452	
8001	0	29504	
8002	0	29572	
8003	0	29668	
8004	0	29778	
8005	0	29896	
8006	0	30000	
8007	0	30056	
8008	0	30092	
8009	0	30144	
8010	0	30168	
8011	0	30208	
8012	0	30216	
8013	0	30144	
8014	0	30088	
8015	0	30112	
8016	0	30168	
8017	0	30240	
8018	0	30268	
8019	0	30288	
8020	0	30324	
8021	0	30424	
8022	0	30500	
8023	0	30512	
8024	0	30544	
8025	0	30616	
8026	0	30666	
8027	0	30672	
8028	0	30720	
8029	0	30784	
8030	0	30824	
8031	0	30828	
8032	0	30800	
8033	0	30760	
8034	0	30684	
8035	0	30612	
8036	0	30528	
8037	0	30516	
8038	0	30552	
8039	0	30620	
8040	0	30708	
8041	0	30772	
8042	0	30832	
8043	0	30900	
8044	0	30960	
8045	0	31040	
8046	0	31156	
8047	0	31272	
8048	0	31320	
8049	0	31332	
8050	0	31344	
8051	0	31360	
8052	0	31356	
8053	0	31340	
8054	0	31348	
8055	0	31300	
8056	0	31216	
8057	0	31140	
8058	0	31112	
8059	0	31124	
8060	0	31096	
8061	0	31112	
8062	0	31180	
8063	0	31268	
8064	0	31360	
8065	0	31428	
8066	0	31468	
8067	0	31524	
8068	0	31548	
8069	0	31552	
8070	0	31578	
8071	0	31578	
8072	0	31560	
8073	0	31536	
8074	0	31520	
8075	0	31536	
8076	0	31508	
8077	0	31448	
8078	0	31388	
8079	0	31360	
8080	0	31372	
8081	0	31388	
8082	0	31396	
8083	0	31420	
8084	0	31444	
8085	0	31480	
8086	0	31552	
8087	0	31600	
8088	0	31640	
8089	0	31648	
8090	0	31668	
8091	0	31648	
8092	0	31614	
8093	0	31564	
8094	0	31512	
8095	0	31448	
8096	0	31384	
8097	0	31316	
8098	0	31284	
8099	0	31264	
8100	0	31264	
8101	0	31296	
8102	0	31316	
8103	0	31312	
8104	0	31328	
8105	0	31352	
8106	0	31400	
8107	0	31456	
8108	0	31552	
8109	0	31604	
8110	0	31626	
8111	0	31632	
8112	0	31580	
8113	0	31528	
8114	0	31460	
8115	0	31394	
8116	0	31368	
8117	0	31404	
8118	0	31440	
8119	0	31476	
8120	0	31506	
8121	0	31534	
8122	0	31552	
8123	0	31573	
8124	0	31600	
8125	0	31644	
8126	0	31674	
8127	0	31712	
8128	0	31692	
8129	0	31632	
8130	0	31592	
8131	0	31564	
8132	0	31490	
8133	0	31444	
8134	0	31392	
8135	0	31328	
8136	0	31272	
8137	0	31244	
8138	0	31196	
8139	0	31140	
8140	0	31220	
8141	0	31304	
8142	0	31394	
8143	0	31476	
8144	0	31528	
8145	0	31612	
8146	0	31684	
8147	0	31700	
8148	0	31708	
8149	0	31748	
8150	0	31732	
8151	0	31696	
8152	0	31696	
8153	0	31642	
8154	0	31592	
8155	0	31576	
8156	0	31558	
8157	0	31504	
8158	0	31472	
8159	0	31460	
8160	0	31464	
8161	0	31516	
8162	0	31544	
8163	0	31620	
8164	0	31696	
8165	0	31744	
8166	0	31772	
8167	0	31812	
8168	0	31824	
8169	0	31788	
8170	0	31802	
8171	0	31840	
8172	0	31840	
8173	0	31812	
8174	0	31778	
8175	0	31704	
8176	0	31616	
8177	0	31536	
8178	0	31536	
8179	0	31564	
8180	0	31616	
8181	0	31668	
8182	0	31708	
8183	0	31752	
8184	0	31792	
8185	0	31836	
8186	0	31864	
8187	0	31916	
8188	0	31968	
8189	0	32020	
8190	0	32032	
8191	0	32012	
8192	0	31972	
8193	0	31984	
8194	0	31928	
8195	0	31848	
8196	0	31792	
8197	0	31740	
8198	0	31706	
8199	0	31704	
8200	0	31712	
8201	0	31712	
8202	0	31728	
8203	0	31752	
8204	0	31784	
8205	0	31820	
8206	0	31880	
8207	0	31952	
8208	0	32024	
8209	0	32116	
8210	0	32132	
8211	0	32068	
8212	0	32024	
8213	0	31992	
8214	0	31968	
8215	0	31916	
8216	0	31888	
8217	0	31864	
8218	0	31868	
8219	0	31864	
8220	0	31904	
8221	0	31948	
8222	0	32000	
8223	0	32060	
8224	0	32132	
8225	0	32236	
8226	0	32324	
8227	0	32376	
8228	0	32380	
8229	0	32360	
8230	0	32316	
8231	0	32276	
8232	0	32236	
8233	0	32240	
8234	0	32240	
8235	0	32236	
8236	0	32176	
8237	0	32096	
8238	0	32088	
8239	0	32106	
8240	0	32144	
8241	0	32220	
8242	0	32320	
8243	0	32448	
8244	0	32628	
8245	0	32812	
8246	0	32924	
8247	0	33004	
8248	0	33104	
8249	0	33224	
8250	0	33356	
8251	0	33424	
8252	0	33452	
8253	0	33460	
8254	0	33476	
8255	0	33480	
8256	0	33480	
8257	0	33432	
8258	0	33332	
8259	0	33234	
8260	0	33142	
8261	0	33048	
8262	0	33004	
8263	0	33048	
8264	0	33096	
8265	0	33132	
8266	0	33172	
8267	0	33220	
8268	0	33276	
8269	0	33384	
8270	0	33540	
8271	0	33728	
8272	0	33976	
8273	0	34180	
8274	0	34372	
8275	0	34520	
8276	0	34634	
8277	0	34724	
8278	0	34836	
8279	0	34944	
8280	0	35072	
8281	0	35168	
8282	0	35196	
8283	0	35180	
8284	0	35120	
8285	0	35032	
8286	0	34984	
8287	0	34912	
8288	0	34852	
8289	0	34800	
8290	0	34668	
8291	0	34496	
8292	0	34296	
8293	0	34120	
8294	0	33952	
8295	0	33760	
8296	0	33488	
8297	0	33256	
8298	0	33108	
8299	0	32976	
8300	0	32892	
8301	0	32832	
8302	0	32800	
8303	0	32816	
8304	0	32800	
8305	0	32760	
8306	0	32696	
8307	0	32604	
8308	0	32540	
8309	0	32516	
8310	0	32476	
8311	0	32404	
8312	0	32272	
8313	0	32128	
8314	0	31984	
8315	0	31872	
8316	0	31756	
8317	0	31668	
8318	0	31580	
8319	0	31484	
8320	0	31400	
8321	0	31324	
8322	0	31238	
8323	0	31144	
8324	0	31076	
8325	0	31042	
8326	0	31056	
8327	0	31064	
8328	0	31080	
8329	0	31136	
8330	0	31148	
8331	0	31084	
8332	0	30964	
8333	0	30920	
8334	0	30892	
8335	0	30890	
8336	0	30872	
8337	0	30862	
8338	0	30840	
8339	0	30832	
8340	0	30880	
8341	0	30932	
8342	0	30992	
8343	0	31076	
8344	0	31162	
8345	0	31240	
8346	0	31298	
8347	0	31344	
8348	0	31400	
8349	0	31448	
8350	0	31484	
8351	0	31512	
8352	0	31520	
8353	0	31512	
8354	0	31498	
8355	0	31472	
8356	0	31424	
8357	0	31424	
8358	0	31428	
8359	0	31452	
8360	0	31464	
8361	0	31488	
8362	0	31544	
8363	0	31616	
8364	0	31664	
8365	0	31704	
8366	0	31740	
8367	0	31744	
8368	0	31620	
8369	0	31444	
8370	0	31088	
8371	0	30620	
8372	0	30016	
8373	0	29380	
8374	0	28892	
8375	0	28612	
8376	0	28556	
8377	0	28640	
8378	0	28976	
8379	0	29544	
8380	0	30330	
8381	0	31284	
8382	0	32368	
8383	0	33600	
8384	0	35012	
8385	0	36632	
8386	0	38332	
8387	0	40296	
8388	0	42632	
8389	0	45280	
8390	0	48384	
8391	0	51804	
8392	0	55192	
8393	0	58376	
8394	0	61288	
8395	0	63140	
8396	0	64092	
8397	0	64536	
8398	0	64704	
8399	0	64752	
8400	0	64720	
8401	0	64636	
8402	0	64544	
8403	0	64420	
8404	0	64296	
8405	0	60480	
8406	0	54660	
8407	0	49536	
8408	0	45256	
8409	0	41716	
8410	0	38816	
8411	0	36440	
8412	0	34352	
8413	0	32528	
8414	0	30880	
8415	0	29368	
8416	0	28096	
8417	0	27144	
8418	0	26480	
8419	0	25966	
8420	0	25680	
8421	0	25568	
8422	0	25632	
8423	0	25790	
8424	0	25984	
8425	0	26160	
8426	0	26336	
8427	0	26508	
8428	0	26716	
8429	0	26952	
8430	0	27192	
8431	0	27472	
8432	0	27808	
8433	0	28112	
8434	0	28332	
8435	0	28540	
8436	0	28776	
8437	0	28980	
8438	0	29156	
8439	0	29248	
8440	0	29272	
8441	0	29288	
8442	0	29356	
8443	0	29412	
8444	0	29436	
8445	0	29444	
8446	0	29468	
8447	0	29532	
8448	0	29608	
8449	0	29680	
8450	0	29688	
8451	0	29672	
8452	0	29672	
8453	0	29608	
8454	0	29604	
8455	0	29644	
8456	0	29656	
8457	0	29658	
8458	0	29672	
8459	0	29700	
8460	0	29728	
8461	0	29744	
8462	0	29768	
8463	0	29832	
8464	0	29890	
8465	0	29928	
8466	0	29976	
8467	0	30028	
8468	0	30084	
8469	0	30132	
8470	0	30176	
8471	0	30192	
8472	0	30232	
8473	0	30290	
8474	0	30336	
8475	0	30358	
8476	0	30384	
8477	0	30424	
8478	0	30464	
8479	0	30508	
8480	0	30536	
8481	0	30552	
8482	0	30584	
8483	0	30636	
8484	0	30704	
8485	0	30792	
8486	0	30912	
8487	0	30992	
8488	0	31044	
8489	0	31072	
8490	0	31048	
8491	0	31032	
8492	0	31056	
8493	0	31092	
8494	0	31108	
8495	0	31112	
8496	0	31128	
8497	0	31172	
8498	0	31212	
8499	0	31246	
8500	0	31280	
8501	0	31340	
8502	0	31412	
8503	0	31472	
8504	0	31588	
8505	0	31696	
8506	0	31788	
8507	0	31840	
8508	0	31872	
8509	0	31928	
8510	0	31962	
8511	0	31980	
8512	0	32017	
8513	0	32036	
8514	0	32016	
8515	0	32020	
8516	0	31996	
8517	0	32026	
8518	0	32064	
8519	0	32072	
8520	0	32096	
8521	0	32100	
8522	0	32152	
8523	0	32210	
8524	0	32240	
8525	0	32296	
8526	0	32384	
8527	0	32440	
8528	0	32496	
8529	0	32568	
8530	0	32640	
8531	0	32684	
8532	0	32676	
8533	0	32632	
8534	0	32588	
8535	0	32556	
8536	0	32540	
8537	0	32564	
8538	0	32640	
8539	0	32704	
8540	0	32738	
8541	0	32784	
8542	0	32800	
8543	0	32872	
8544	0	33008	
8545	0	33116	
8546	0	33200	
8547	0	33284	
8548	0	33400	
8549	0	33500	
8550	0	33520	
8551	0	33504	
8552	0	33500	
8553	0	33464	
8554	0	33376	
8555	0	33360	
8556	0	33400	
8557	0	33476	
8558	0	33552	
8559	0	33660	
8560	0	33740	
8561	0	33824	
8562	0	33912	
8563	0	34008	
8564	0	34104	
8565	0	34196	
8566	0	34284	
8567	0	34400	
8568	0	34522	
8569	0	34640	
8570	0	34728	
8571	0	34804	
8572	0	34868	
8573	0	34880	
8574	0	34872	
8575	0	34848	
8576	0	34840	
8577	0	34852	
8578	0	34868	
8579	0	34916	
8580	0	34968	
8581	0	35072	
8582	0	35168	
8583	0	35264	
8584	0	35392	
8585	0	35552	
8586	0	35616	
8587	0	35674	
8588	0	35776	
8589	0	35824	
8590	0	35847	
8591	0	35916	
8592	0	36002	
