# OpenSignals Text File Format. Version 1
# {"00:07:80:4B:15:F7": {"position": 0, "device": "biosignalsplux", "device name": "00:07:80:4B:15:F7", "device connection": "BTH00:07:80:4B:15:F7", "sampling rate": 1000, "resolution": [16], "firmware version": 775, "comments": "", "keywords": "", "mode": 0, "sync interval": 2, "date": "2023-3-14", "time": "14:40:2.590", "channels": [1], "sensor": ["ECG"], "label": ["CH1"], "column": ["nSeq", "DI", "CH1"], "special": [{"SpO2": [80, 40, 5, 4, 3, 3]}, {"SpO2": [80, 40, 5, 4, 3, 3]}, {"SpO2": [80, 40, 5, 4, 3, 3]}, {"SpO2": [80, 40, 5, 4, 3, 3]}, {"SpO2": [80, 40, 5, 4, 3, 3]}, {"SpO2": [80, 40, 5, 4, 3, 3]}, {"SpO2": [80, 40, 5, 4, 3, 3]}, {"SpO2": [80, 40, 5, 4, 3, 3]}], "digital IO": [0, 1], "sleeve color": ["green"], "convertedValues": 0}}
# EndOfHeader
0	0	33734	
1	0	33740	
2	0	33760	
3	0	33776	
4	0	33812	
5	0	33838	
6	0	33840	
7	0	33828	
8	0	33792	
9	0	33780	
10	0	33776	
11	0	33784	
12	0	33792	
13	0	33804	
14	0	33796	
15	0	33808	
16	0	33844	
17	0	33876	
18	0	33864	
19	0	33876	
20	0	33872	
21	0	33886	
22	0	33860	
23	0	33836	
24	0	33808	
25	0	33776	
26	0	33752	
27	0	33724	
28	0	33728	
29	0	33728	
30	0	33720	
31	0	33692	
32	0	33664	
33	0	33652	
34	0	33648	
35	0	33660	
36	0	33684	
37	0	33680	
38	0	33720	
39	0	33740	
40	0	33768	
41	0	33768	
42	0	33748	
43	0	33736	
44	0	33716	
45	0	33696	
46	0	33648	
47	0	33592	
48	0	33528	
49	0	33488	
50	0	33440	
51	0	33368	
52	0	33336	
53	0	33304	
54	0	33264	
55	0	33228	
56	0	33216	
57	0	33176	
58	0	33160	
59	0	33124	
60	0	33100	
61	0	33044	
62	0	32984	
63	0	32904	
64	0	32820	
65	0	32760	
66	0	32716	
67	0	32648	
68	0	32548	
69	0	32448	
70	0	32348	
71	0	32296	
72	0	32252	
73	0	32196	
74	0	32128	
75	0	32108	
76	0	32064	
77	0	32016	
78	0	31940	
79	0	31896	
80	0	31848	
81	0	31812	
82	0	31784	
83	0	31744	
84	0	31680	
85	0	31590	
86	0	31468	
87	0	31384	
88	0	31296	
89	0	31216	
90	0	31160	
91	0	31090	
92	0	31008	
93	0	30944	
94	0	30920	
95	0	30860	
96	0	30834	
97	0	30836	
98	0	30820	
99	0	30812	
100	0	30784	
101	0	30776	
102	0	30770	
103	0	30778	
104	0	30768	
105	0	30764	
106	0	30728	
107	0	30704	
108	0	30724	
109	0	30740	
110	0	30756	
111	0	30728	
112	0	30708	
113	0	30704	
114	0	30728	
115	0	30744	
116	0	30784	
117	0	30816	
118	0	30860	
119	0	30880	
120	0	30932	
121	0	31008	
122	0	31068	
123	0	31116	
124	0	31136	
125	0	31136	
126	0	31136	
127	0	31162	
128	0	31200	
129	0	31216	
130	0	31228	
131	0	31224	
132	0	31212	
133	0	31192	
134	0	31212	
135	0	31260	
136	0	31280	
137	0	31328	
138	0	31356	
139	0	31372	
140	0	31368	
141	0	31364	
142	0	31376	
143	0	31380	
144	0	31348	
145	0	31332	
146	0	31336	
147	0	31368	
148	0	31380	
149	0	31404	
150	0	31420	
151	0	31430	
152	0	31442	
153	0	31480	
154	0	31536	
155	0	31584	
156	0	31642	
157	0	31672	
158	0	31714	
159	0	31752	
160	0	31756	
161	0	31764	
162	0	31844	
163	0	31912	
164	0	31960	
165	0	31936	
166	0	31936	
167	0	31940	
168	0	31932	
169	0	31912	
170	0	31936	
171	0	31916	
172	0	31880	
173	0	31872	
174	0	31864	
175	0	31870	
176	0	31880	
177	0	31904	
178	0	31896	
179	0	31892	
180	0	31900	
181	0	31916	
182	0	31948	
183	0	31968	
184	0	31996	
185	0	31994	
186	0	31936	
187	0	31912	
188	0	31920	
189	0	31928	
190	0	31908	
191	0	31920	
192	0	31948	
193	0	31952	
194	0	31964	
195	0	31976	
196	0	32018	
197	0	32040	
198	0	32040	
199	0	32068	
200	0	32124	
201	0	32154	
202	0	32188	
203	0	32180	
204	0	32196	
205	0	32188	
206	0	32160	
207	0	32136	
208	0	32128	
209	0	32112	
210	0	32092	
211	0	32072	
212	0	32068	
213	0	32064	
214	0	32056	
215	0	32048	
216	0	32036	
217	0	32032	
218	0	32028	
219	0	32032	
220	0	32024	
221	0	32040	
222	0	32044	
223	0	32064	
224	0	32028	
225	0	32016	
226	0	31996	
227	0	31984	
228	0	31976	
229	0	31956	
230	0	31944	
231	0	31912	
232	0	31900	
233	0	31876	
234	0	31900	
235	0	31878	
236	0	31872	
237	0	31904	
238	0	31940	
239	0	31932	
240	0	31928	
241	0	31936	
242	0	31952	
243	0	31956	
244	0	31936	
245	0	31912	
246	0	31896	
247	0	31880	
248	0	31848	
249	0	31824	
250	0	31802	
251	0	31808	
252	0	31816	
253	0	31816	
254	0	31840	
255	0	31824	
256	0	31824	
257	0	31872	
258	0	31904	
259	0	31920	
260	0	31936	
261	0	31956	
262	0	31960	
263	0	31964	
264	0	31988	
265	0	31968	
266	0	31962	
267	0	31936	
268	0	31928	
269	0	31960	
270	0	31980	
271	0	31968	
272	0	31994	
273	0	32016	
274	0	32024	
275	0	32068	
276	0	32084	
277	0	32068	
278	0	32052	
279	0	32052	
280	0	32080	
281	0	32096	
282	0	32132	
283	0	32172	
284	0	32172	
285	0	32168	
286	0	32152	
287	0	32176	
288	0	32180	
289	0	32170	
290	0	32180	
291	0	32186	
292	0	32152	
293	0	32120	
294	0	32116	
295	0	32092	
296	0	32136	
297	0	32196	
298	0	32232	
299	0	32244	
300	0	32272	
301	0	32280	
302	0	32304	
303	0	32312	
304	0	32304	
305	0	32296	
306	0	32288	
307	0	32272	
308	0	32240	
309	0	32212	
310	0	32180	
311	0	32168	
312	0	32192	
313	0	32196	
314	0	32224	
315	0	32228	
316	0	32248	
317	0	32288	
318	0	32296	
319	0	32320	
320	0	32376	
321	0	32404	
322	0	32384	
323	0	32358	
324	0	32336	
325	0	32336	
326	0	32340	
327	0	32328	
328	0	32320	
329	0	32314	
330	0	32320	
331	0	32316	
332	0	32312	
333	0	32292	
334	0	32290	
335	0	32324	
336	0	32348	
337	0	32388	
338	0	32448	
339	0	32488	
340	0	32472	
341	0	32448	
342	0	32472	
343	0	32520	
344	0	32536	
345	0	32548	
346	0	32520	
347	0	32480	
348	0	32464	
349	0	32464	
350	0	32448	
351	0	32428	
352	0	32404	
353	0	32396	
354	0	32412	
355	0	32434	
356	0	32472	
357	0	32532	
358	0	32578	
359	0	32600	
360	0	32612	
361	0	32644	
362	0	32672	
363	0	32696	
364	0	32712	
365	0	32732	
366	0	32720	
367	0	32712	
368	0	32692	
369	0	32660	
370	0	32636	
371	0	32612	
372	0	32624	
373	0	32624	
374	0	32640	
375	0	32648	
376	0	32632	
377	0	32640	
378	0	32656	
379	0	32684	
380	0	32672	
381	0	32672	
382	0	32704	
383	0	32728	
384	0	32752	
385	0	32756	
386	0	32748	
387	0	32732	
388	0	32712	
389	0	32706	
390	0	32692	
391	0	32656	
392	0	32648	
393	0	32672	
394	0	32688	
395	0	32700	
396	0	32756	
397	0	32812	
398	0	32866	
399	0	32920	
400	0	32992	
401	0	33096	
402	0	33148	
403	0	33180	
404	0	33184	
405	0	33184	
406	0	33168	
407	0	33152	
408	0	33116	
409	0	33056	
410	0	33028	
411	0	32976	
412	0	32944	
413	0	32944	
414	0	32940	
415	0	32954	
416	0	32924	
417	0	32936	
418	0	32972	
419	0	33076	
420	0	33210	
421	0	33344	
422	0	33504	
423	0	33624	
424	0	33728	
425	0	33792	
426	0	33880	
427	0	33968	
428	0	34048	
429	0	34156	
430	0	34224	
431	0	34272	
432	0	34308	
433	0	34382	
434	0	34434	
435	0	34520	
436	0	34584	
437	0	34600	
438	0	34576	
439	0	34488	
440	0	34376	
441	0	34260	
442	0	34148	
443	0	34068	
444	0	33988	
445	0	33900	
446	0	33792	
447	0	33658	
448	0	33568	
449	0	33472	
450	0	33364	
451	0	33272	
452	0	33216	
453	0	33168	
454	0	33112	
455	0	33084	
456	0	33072	
457	0	33076	
458	0	33060	
459	0	33028	
460	0	33004	
461	0	33000	
462	0	33004	
463	0	33032	
464	0	33028	
465	0	33024	
466	0	33032	
467	0	33064	
468	0	33040	
469	0	33004	
470	0	32986	
471	0	32972	
472	0	32952	
473	0	32912	
474	0	32848	
475	0	32764	
476	0	32736	
477	0	32720	
478	0	32704	
479	0	32640	
480	0	32588	
481	0	32532	
482	0	32500	
483	0	32452	
484	0	32420	
485	0	32384	
486	0	32352	
487	0	32352	
488	0	32344	
489	0	32360	
490	0	32384	
491	0	32372	
492	0	32368	
493	0	32360	
494	0	32360	
495	0	32369	
496	0	32372	
497	0	32400	
498	0	32388	
499	0	32400	
500	0	32412	
501	0	32424	
502	0	32416	
503	0	32416	
504	0	32428	
505	0	32426	
506	0	32432	
507	0	32416	
508	0	32388	
509	0	32424	
510	0	32428	
511	0	32440	
512	0	32424	
513	0	32424	
514	0	32448	
515	0	32472	
516	0	32512	
517	0	32536	
518	0	32524	
519	0	32548	
520	0	32564	
521	0	32588	
522	0	32596	
523	0	32624	
524	0	32624	
525	0	32610	
526	0	32596	
527	0	32560	
528	0	32532	
529	0	32508	
530	0	32480	
531	0	32462	
532	0	32452	
533	0	32444	
534	0	32488	
535	0	32492	
536	0	32504	
537	0	32500	
538	0	32524	
539	0	32554	
540	0	32554	
541	0	32592	
542	0	32640	
543	0	32640	
544	0	32640	
545	0	32638	
546	0	32620	
547	0	32628	
548	0	32620	
549	0	32592	
550	0	32592	
551	0	32588	
552	0	32652	
553	0	32716	
554	0	32812	
555	0	32884	
556	0	32928	
557	0	32956	
558	0	32992	
559	0	32932	
560	0	32880	
561	0	32832	
562	0	32784	
563	0	32752	
564	0	32812	
565	0	33008	
566	0	33256	
567	0	33524	
568	0	33788	
569	0	33984	
570	0	34128	
571	0	34216	
572	0	34248	
573	0	34380	
574	0	34676	
575	0	35176	
576	0	35816	
577	0	36620	
578	0	37624	
579	0	38792	
580	0	40112	
581	0	41456	
582	0	42872	
583	0	44332	
584	0	45876	
585	0	47392	
586	0	48824	
587	0	50088	
588	0	51260	
589	0	52240	
590	0	53380	
591	0	54516	
592	0	55480	
593	0	56128	
594	0	56040	
595	0	54836	
596	0	52504	
597	0	49388	
598	0	45966	
599	0	42512	
600	0	39296	
601	0	36600	
602	0	34608	
603	0	33240	
604	0	32300	
605	0	31696	
606	0	31348	
607	0	31128	
608	0	30980	
609	0	30872	
610	0	30804	
611	0	30804	
612	0	30868	
613	0	30976	
614	0	31092	
615	0	31196	
616	0	31316	
617	0	31440	
618	0	31616	
619	0	31740	
620	0	31864	
621	0	31944	
622	0	32000	
623	0	32024	
624	0	31988	
625	0	31952	
626	0	31924	
627	0	31856	
628	0	31784	
629	0	31712	
630	0	31652	
631	0	31572	
632	0	31504	
633	0	31456	
634	0	31412	
635	0	31376	
636	0	31360	
637	0	31356	
638	0	31368	
639	0	31364	
640	0	31388	
641	0	31384	
642	0	31376	
643	0	31376	
644	0	31376	
645	0	31376	
646	0	31368	
647	0	31376	
648	0	31388	
649	0	31404	
650	0	31432	
651	0	31452	
652	0	31448	
653	0	31460	
654	0	31480	
655	0	31504	
656	0	31548	
657	0	31572	
658	0	31608	
659	0	31616	
660	0	31648	
661	0	31684	
662	0	31732	
663	0	31764	
664	0	31840	
665	0	31876	
666	0	31896	
667	0	31912	
668	0	31916	
669	0	31928	
670	0	31940	
671	0	31936	
672	0	31944	
673	0	31968	
674	0	31948	
675	0	31952	
676	0	32020	
677	0	32076	
678	0	32132	
679	0	32180	
680	0	32192	
681	0	32264	
682	0	32316	
683	0	32312	
684	0	32308	
685	0	32308	
686	0	32296	
687	0	32300	
688	0	32300	
689	0	32320	
690	0	32344	
691	0	32332	
692	0	32348	
693	0	32360	
694	0	32372	
695	0	32396	
696	0	32426	
697	0	32484	
698	0	32512	
699	0	32536	
700	0	32552	
701	0	32604	
702	0	32618	
703	0	32640	
704	0	32660	
705	0	32668	
706	0	32684	
707	0	32688	
708	0	32680	
709	0	32692	
710	0	32696	
711	0	32672	
712	0	32682	
713	0	32704	
714	0	32704	
715	0	32704	
716	0	32740	
717	0	32792	
718	0	32840	
719	0	32868	
720	0	32864	
721	0	32904	
722	0	32924	
723	0	32948	
724	0	32976	
725	0	32976	
726	0	32976	
727	0	33008	
728	0	33032	
729	0	33016	
730	0	33000	
731	0	33024	
732	0	33052	
733	0	33084	
734	0	33088	
735	0	33096	
736	0	33156	
737	0	33188	
738	0	33192	
739	0	33208	
740	0	33252	
741	0	33272	
742	0	33296	
743	0	33308	
744	0	33304	
745	0	33300	
746	0	33320	
747	0	33340	
748	0	33324	
749	0	33328	
750	0	33348	
751	0	33352	
752	0	33376	
753	0	33392	
754	0	33412	
755	0	33432	
756	0	33428	
757	0	33448	
758	0	33472	
759	0	33492	
760	0	33504	
761	0	33496	
762	0	33486	
763	0	33506	
764	0	33504	
765	0	33504	
766	0	33480	
767	0	33472	
768	0	33448	
769	0	33420	
770	0	33404	
771	0	33388	
772	0	33400	
773	0	33392	
774	0	33388	
775	0	33408	
776	0	33408	
777	0	33428	
778	0	33452	
779	0	33472	
780	0	33484	
781	0	33516	
782	0	33520	
783	0	33532	
784	0	33536	
785	0	33512	
786	0	33480	
787	0	33452	
788	0	33464	
789	0	33460	
790	0	33468	
791	0	33466	
792	0	33436	
793	0	33456	
794	0	33476	
795	0	33480	
796	0	33480	
797	0	33500	
798	0	33520	
799	0	33532	
800	0	33568	
801	0	33608	
802	0	33616	
803	0	33596	
804	0	33592	
805	0	33600	
806	0	33600	
807	0	33588	
808	0	33600	
809	0	33588	
810	0	33552	
811	0	33528	
812	0	33512	
813	0	33492	
814	0	33508	
815	0	33528	
816	0	33536	
817	0	33528	
818	0	33536	
819	0	33552	
820	0	33584	
821	0	33600	
822	0	33636	
823	0	33632	
824	0	33624	
825	0	33608	
826	0	33576	
827	0	33540	
828	0	33496	
829	0	33472	
830	0	33468	
831	0	33444	
832	0	33404	
833	0	33404	
834	0	33404	
835	0	33400	
836	0	33420	
837	0	33424	
838	0	33424	
839	0	33440	
840	0	33440	
841	0	33432	
842	0	33468	
843	0	33472	
844	0	33476	
845	0	33468	
846	0	33476	
847	0	33488	
848	0	33468	
849	0	33464	
850	0	33440	
851	0	33424	
852	0	33428	
853	0	33408	
854	0	33400	
855	0	33380	
856	0	33380	
857	0	33400	
858	0	33428	
859	0	33448	
860	0	33444	
861	0	33460	
862	0	33436	
863	0	33432	
864	0	33408	
865	0	33400	
866	0	33364	
867	0	33320	
868	0	33240	
869	0	33172	
870	0	33092	
871	0	33020	
872	0	32992	
873	0	32940	
874	0	32876	
875	0	32832	
876	0	32776	
877	0	32748	
878	0	32724	
879	0	32676	
880	0	32636	
881	0	32586	
882	0	32548	
883	0	32500	
884	0	32444	
885	0	32368	
886	0	32296	
887	0	32200	
888	0	32112	
889	0	32044	
890	0	31948	
891	0	31848	
892	0	31776	
893	0	31708	
894	0	31648	
895	0	31580	
896	0	31530	
897	0	31496	
898	0	31480	
899	0	31460	
900	0	31456	
901	0	31418	
902	0	31392	
903	0	31358	
904	0	31300	
905	0	31248	
906	0	31212	
907	0	31184	
908	0	31116	
909	0	31052	
910	0	30984	
911	0	30932	
912	0	30908	
913	0	30876	
914	0	30868	
915	0	30884	
916	0	30892	
917	0	30920	
918	0	30944	
919	0	30964	
920	0	30960	
921	0	30954	
922	0	30972	
923	0	30992	
924	0	30992	
925	0	30988	
926	0	30940	
927	0	30912	
928	0	30912	
929	0	30914	
930	0	30920	
931	0	30928	
932	0	30912	
933	0	30908	
934	0	30928	
935	0	30956	
936	0	30992	
937	0	31032	
938	0	31052	
939	0	31068	
940	0	31092	
941	0	31124	
942	0	31140	
943	0	31168	
944	0	31180	
945	0	31146	
946	0	31140	
947	0	31156	
948	0	31170	
949	0	31172	
950	0	31152	
951	0	31148	
952	0	31148	
953	0	31148	
954	0	31176	
955	0	31188	
956	0	31208	
957	0	31232	
958	0	31272	
959	0	31304	
960	0	31344	
961	0	31368	
962	0	31408	
963	0	31440	
964	0	31448	
965	0	31436	
966	0	31424	
967	0	31428	
968	0	31428	
969	0	31408	
970	0	31412	
971	0	31428	
972	0	31444	
973	0	31456	
974	0	31480	
975	0	31498	
976	0	31532	
977	0	31578	
978	0	31600	
979	0	31592	
980	0	31616	
981	0	31644	
982	0	31712	
983	0	31712	
984	0	31704	
985	0	31684	
986	0	31680	
987	0	31672	
988	0	31648	
989	0	31628	
990	0	31584	
991	0	31564	
992	0	31536	
993	0	31552	
994	0	31576	
995	0	31596	
996	0	31616	
997	0	31624	
998	0	31636	
999	0	31660	
1000	0	31704	
1001	0	31720	
1002	0	31756	
1003	0	31784	
1004	0	31778	
1005	0	31760	
1006	0	31728	
1007	0	31712	
1008	0	31708	
1009	0	31712	
1010	0	31680	
1011	0	31656	
1012	0	31628	
1013	0	31604	
1014	0	31614	
1015	0	31624	
1016	0	31642	
1017	0	31692	
1018	0	31724	
1019	0	31776	
1020	0	31800	
1021	0	31816	
1022	0	31842	
1023	0	31856	
1024	0	31852	
1025	0	31836	
1026	0	31820	
1027	0	31802	
1028	0	31788	
1029	0	31776	
1030	0	31740	
1031	0	31716	
1032	0	31708	
1033	0	31700	
1034	0	31692	
1035	0	31680	
1036	0	31692	
1037	0	31720	
1038	0	31728	
1039	0	31744	
1040	0	31776	
1041	0	31788	
1042	0	31792	
1043	0	31808	
1044	0	31808	
1045	0	31800	
1046	0	31784	
1047	0	31768	
1048	0	31752	
1049	0	31732	
1050	0	31732	
1051	0	31696	
1052	0	31668	
1053	0	31660	
1054	0	31652	
1055	0	31684	
1056	0	31720	
1057	0	31754	
1058	0	31780	
1059	0	31796	
1060	0	31816	
1061	0	31840	
1062	0	31836	
1063	0	31872	
1064	0	31872	
1065	0	31848	
1066	0	31808	
1067	0	31760	
1068	0	31752	
1069	0	31748	
1070	0	31728	
1071	0	31704	
1072	0	31680	
1073	0	31680	
1074	0	31672	
1075	0	31640	
1076	0	31632	
1077	0	31650	
1078	0	31678	
1079	0	31680	
1080	0	31704	
1081	0	31740	
1082	0	31776	
1083	0	31796	
1084	0	31808	
1085	0	31824	
1086	0	31824	
1087	0	31820	
1088	0	31816	
1089	0	31812	
1090	0	31808	
1091	0	31784	
1092	0	31782	
1093	0	31788	
1094	0	31802	
1095	0	31828	
1096	0	31848	
1097	0	31882	
1098	0	31904	
1099	0	31928	
1100	0	31968	
1101	0	31984	
1102	0	31980	
1103	0	31972	
1104	0	31984	
1105	0	31992	
1106	0	31992	
1107	0	31968	
1108	0	31956	
1109	0	31936	
1110	0	31944	
1111	0	31952	
1112	0	31924	
1113	0	31904	
1114	0	31914	
1115	0	31928	
1116	0	31944	
1117	0	31940	
1118	0	31952	
1119	0	31960	
1120	0	31976	
1121	0	31988	
1122	0	32004	
1123	0	32044	
1124	0	32064	
1125	0	32072	
1126	0	32072	
1127	0	32068	
1128	0	32068	
1129	0	32076	
1130	0	32080	
1131	0	32068	
1132	0	32080	
1133	0	32084	
1134	0	32106	
1135	0	32124	
1136	0	32148	
1137	0	32144	
1138	0	32152	
1139	0	32136	
1140	0	32154	
1141	0	32156	
1142	0	32176	
1143	0	32200	
1144	0	32212	
1145	0	32200	
1146	0	32176	
1147	0	32172	
1148	0	32164	
1149	0	32160	
1150	0	32168	
1151	0	32152	
1152	0	32148	
1153	0	32160	
1154	0	32184	
1155	0	32204	
1156	0	32240	
1157	0	32272	
1158	0	32296	
1159	0	32314	
1160	0	32320	
1161	0	32328	
1162	0	32336	
1163	0	32360	
1164	0	32368	
1165	0	32392	
1166	0	32396	
1167	0	32380	
1168	0	32360	
1169	0	32368	
1170	0	32356	
1171	0	32352	
1172	0	32352	
1173	0	32344	
1174	0	32352	
1175	0	32372	
1176	0	32410	
1177	0	32428	
1178	0	32452	
1179	0	32464	
1180	0	32476	
1181	0	32500	
1182	0	32516	
1183	0	32524	
1184	0	32532	
1185	0	32532	
1186	0	32504	
1187	0	32496	
1188	0	32516	
1189	0	32512	
1190	0	32500	
1191	0	32496	
1192	0	32484	
1193	0	32480	
1194	0	32492	
1195	0	32504	
1196	0	32508	
1197	0	32512	
1198	0	32532	
1199	0	32568	
1200	0	32616	
1201	0	32640	
1202	0	32672	
1203	0	32674	
1204	0	32672	
1205	0	32660	
1206	0	32648	
1207	0	32656	
1208	0	32640	
1209	0	32628	
1210	0	32632	
1211	0	32624	
1212	0	32608	
1213	0	32604	
1214	0	32618	
1215	0	32644	
1216	0	32664	
1217	0	32724	
1218	0	32748	
1219	0	32760	
1220	0	32764	
1221	0	32778	
1222	0	32812	
1223	0	32820	
1224	0	32824	
1225	0	32820	
1226	0	32824	
1227	0	32812	
1228	0	32816	
1229	0	32796	
1230	0	32776	
1231	0	32736	
1232	0	32740	
1233	0	32760	
1234	0	32788	
1235	0	32820	
1236	0	32852	
1237	0	32868	
1238	0	32902	
1239	0	32940	
1240	0	32968	
1241	0	33016	
1242	0	33056	
1243	0	33104	
1244	0	33112	
1245	0	33116	
1246	0	33120	
1247	0	33092	
1248	0	33060	
1249	0	33042	
1250	0	33020	
1251	0	32996	
1252	0	32976	
1253	0	32976	
1254	0	32976	
1255	0	32992	
1256	0	33006	
1257	0	33016	
1258	0	33032	
1259	0	33048	
1260	0	33060	
1261	0	33076	
1262	0	33088	
1263	0	33084	
1264	0	33088	
1265	0	33112	
1266	0	33104	
1267	0	33080	
1268	0	33072	
1269	0	33052	
1270	0	33048	
1271	0	33008	
1272	0	32968	
1273	0	32968	
1274	0	32964	
1275	0	32972	
1276	0	32992	
1277	0	33048	
1278	0	33088	
1279	0	33160	
1280	0	33204	
1281	0	33242	
1282	0	33296	
1283	0	33332	
1284	0	33360	
1285	0	33380	
1286	0	33390	
1287	0	33400	
1288	0	33388	
1289	0	33360	
1290	0	33312	
1291	0	33292	
1292	0	33252	
1293	0	33224	
1294	0	33212	
1295	0	33208	
1296	0	33248	
1297	0	33288	
1298	0	33328	
1299	0	33378	
1300	0	33376	
1301	0	33346	
1302	0	33364	
1303	0	33404	
1304	0	33464	
1305	0	33548	
1306	0	33664	
1307	0	33750	
1308	0	33844	
1309	0	33932	
1310	0	33992	
1311	0	34056	
1312	0	34116	
1313	0	34200	
1314	0	34284	
1315	0	34336	
1316	0	34376	
1317	0	34426	
1318	0	34472	
1319	0	34532	
1320	0	34564	
1321	0	34544	
1322	0	34496	
1323	0	34444	
1324	0	34372	
1325	0	34268	
1326	0	34156	
1327	0	34060	
1328	0	33968	
1329	0	33864	
1330	0	33764	
1331	0	33696	
1332	0	33600	
1333	0	33516	
1334	0	33452	
1335	0	33402	
1336	0	33388	
1337	0	33344	
1338	0	33316	
1339	0	33296	
1340	0	33296	
1341	0	33252	
1342	0	33228	
1343	0	33208	
1344	0	33168	
1345	0	33136	
1346	0	33094	
1347	0	33050	
1348	0	33016	
1349	0	33008	
1350	0	32992	
1351	0	32960	
1352	0	32908	
1353	0	32856	
1354	0	32832	
1355	0	32820	
1356	0	32800	
1357	0	32800	
1358	0	32768	
1359	0	32712	
1360	0	32676	
1361	0	32660	
1362	0	32628	
1363	0	32556	
1364	0	32504	
1365	0	32436	
1366	0	32376	
1367	0	32304	
1368	0	32248	
1369	0	32216	
1370	0	32210	
1371	0	32184	
1372	0	32168	
1373	0	32164	
1374	0	32180	
1375	0	32196	
1376	0	32220	
1377	0	32244	
1378	0	32264	
1379	0	32260	
1380	0	32248	
1381	0	32256	
1382	0	32300	
1383	0	32320	
1384	0	32320	
1385	0	32316	
1386	0	32324	
1387	0	32312	
1388	0	32276	
1389	0	32256	
1390	0	32248	
1391	0	32232	
1392	0	32228	
1393	0	32208	
1394	0	32208	
1395	0	32240	
1396	0	32264	
1397	0	32288	
1398	0	32292	
1399	0	32308	
1400	0	32344	
1401	0	32368	
1402	0	32388	
1403	0	32406	
1404	0	32396	
1405	0	32400	
1406	0	32380	
1407	0	32372	
1408	0	32410	
1409	0	32444	
1410	0	32456	
1411	0	32452	
1412	0	32436	
1413	0	32432	
1414	0	32464	
1415	0	32488	
1416	0	32528	
1417	0	32544	
1418	0	32548	
1419	0	32596	
1420	0	32636	
1421	0	32664	
1422	0	32704	
1423	0	32736	
1424	0	32720	
1425	0	32732	
1426	0	32724	
1427	0	32704	
1428	0	32696	
1429	0	32708	
1430	0	32720	
1431	0	32714	
1432	0	32704	
1433	0	32702	
1434	0	32712	
1435	0	32744	
1436	0	32816	
1437	0	32880	
1438	0	32956	
1439	0	33016	
1440	0	33088	
1441	0	33088	
1442	0	33088	
1443	0	33076	
1444	0	33020	
1445	0	32932	
1446	0	32844	
1447	0	32784	
1448	0	32784	
1449	0	32928	
1450	0	33168	
1451	0	33376	
1452	0	33628	
1453	0	33866	
1454	0	34060	
1455	0	34200	
1456	0	34296	
1457	0	34432	
1458	0	34660	
1459	0	35008	
1460	0	35528	
1461	0	36180	
1462	0	36960	
1463	0	37896	
1464	0	39016	
1465	0	40176	
1466	0	41368	
1467	0	42620	
1468	0	44000	
1469	0	45372	
1470	0	46772	
1471	0	48000	
1472	0	49064	
1473	0	49952	
1474	0	50832	
1475	0	51864	
1476	0	52904	
1477	0	53752	
1478	0	54168	
1479	0	53688	
1480	0	51992	
1481	0	49280	
1482	0	46180	
1483	0	43024	
1484	0	39920	
1485	0	37058	
1486	0	34728	
1487	0	33124	
1488	0	32120	
1489	0	31532	
1490	0	31214	
1491	0	31076	
1492	0	31012	
1493	0	30928	
1494	0	30924	
1495	0	30952	
1496	0	31048	
1497	0	31176	
1498	0	31312	
1499	0	31450	
1500	0	31568	
1501	0	31677	
1502	0	31800	
1503	0	31940	
1504	0	32072	
1505	0	32196	
1506	0	32252	
1507	0	32304	
1508	0	32304	
1509	0	32288	
1510	0	32208	
1511	0	32126	
1512	0	32048	
1513	0	31972	
1514	0	31916	
1515	0	31868	
1516	0	31836	
1517	0	31800	
1518	0	31784	
1519	0	31776	
1520	0	31756	
1521	0	31748	
1522	0	31756	
1523	0	31760	
1524	0	31760	
1525	0	31760	
1526	0	31752	
1527	0	31712	
1528	0	31680	
1529	0	31680	
1530	0	31664	
1531	0	31648	
1532	0	31632	
1533	0	31644	
1534	0	31664	
1535	0	31676	
1536	0	31704	
1537	0	31738	
1538	0	31786	
1539	0	31852	
1540	0	31880	
1541	0	31904	
1542	0	31956	
1543	0	32000	
1544	0	32036	
1545	0	32028	
1546	0	32040	
1547	0	32044	
1548	0	32048	
1549	0	32048	
1550	0	32036	
1551	0	32032	
1552	0	32020	
1553	0	32010	
1554	0	32040	
1555	0	32064	
1556	0	32110	
1557	0	32192	
1558	0	32212	
1559	0	32256	
1560	0	32296	
1561	0	32320	
1562	0	32340	
1563	0	32356	
1564	0	32348	
1565	0	32352	
1566	0	32344	
1567	0	32356	
1568	0	32392	
1569	0	32416	
1570	0	32410	
1571	0	32388	
1572	0	32398	
1573	0	32420	
1574	0	32436	
1575	0	32440	
1576	0	32448	
1577	0	32504	
1578	0	32522	
1579	0	32560	
1580	0	32620	
1581	0	32680	
1582	0	32728	
1583	0	32752	
1584	0	32760	
1585	0	32768	
1586	0	32778	
1587	0	32792	
1588	0	32812	
1589	0	32808	
1590	0	32808	
1591	0	32808	
1592	0	32840	
1593	0	32852	
1594	0	32864	
1595	0	32880	
1596	0	32920	
1597	0	32960	
1598	0	33004	
1599	0	33056	
1600	0	33100	
1601	0	33152	
1602	0	33180	
1603	0	33216	
1604	0	33232	
1605	0	33240	
1606	0	33260	
1607	0	33304	
1608	0	33320	
1609	0	33332	
1610	0	33328	
1611	0	33312	
1612	0	33300	
1613	0	33312	
1614	0	33332	
1615	0	33360	
1616	0	33384	
1617	0	33396	
1618	0	33456	
1619	0	33480	
1620	0	33490	
1621	0	33520	
1622	0	33564	
1623	0	33564	
1624	0	33588	
1625	0	33612	
1626	0	33616	
1627	0	33600	
1628	0	33600	
1629	0	33600	
1630	0	33564	
1631	0	33536	
1632	0	33524	
1633	0	33528	
1634	0	33552	
1635	0	33562	
1636	0	33576	
1637	0	33600	
1638	0	33632	
1639	0	33672	
1640	0	33708	
1641	0	33724	
1642	0	33732	
1643	0	33776	
1644	0	33792	
1645	0	33824	
1646	0	33828	
1647	0	33832	
1648	0	33844	
1649	0	33832	
1650	0	33828	
1651	0	33800	
1652	0	33772	
1653	0	33760	
1654	0	33760	
1655	0	33760	
1656	0	33776	
1657	0	33796	
1658	0	33836	
1659	0	33832	
1660	0	33832	
1661	0	33844	
1662	0	33844	
1663	0	33836	
1664	0	33824	
1665	0	33816	
1666	0	33800	
1667	0	33788	
1668	0	33768	
1669	0	33768	
1670	0	33740	
1671	0	33736	
1672	0	33724	
1673	0	33712	
1674	0	33736	
1675	0	33752	
1676	0	33768	
1677	0	33786	
1678	0	33780	
1679	0	33808	
1680	0	33826	
1681	0	33832	
1682	0	33844	
1683	0	33836	
1684	0	33824	
1685	0	33820	
1686	0	33808	
1687	0	33808	
1688	0	33800	
1689	0	33792	
1690	0	33768	
1691	0	33736	
1692	0	33696	
1693	0	33680	
1694	0	33680	
1695	0	33696	
1696	0	33704	
1697	0	33728	
1698	0	33756	
1699	0	33776	
1700	0	33796	
1701	0	33844	
1702	0	33858	
1703	0	33860	
1704	0	33868	
1705	0	33852	
1706	0	33840	
1707	0	33810	
1708	0	33784	
1709	0	33772	
1710	0	33760	
1711	0	33756	
1712	0	33760	
1713	0	33744	
1714	0	33724	
1715	0	33712	
1716	0	33720	
1717	0	33724	
1718	0	33736	
1719	0	33760	
1720	0	33776	
1721	0	33816	
1722	0	33816	
1723	0	33796	
1724	0	33772	
1725	0	33772	
1726	0	33744	
1727	0	33736	
1728	0	33724	
1729	0	33692	
1730	0	33648	
1731	0	33636	
1732	0	33626	
1733	0	33634	
1734	0	33652	
1735	0	33676	
1736	0	33680	
1737	0	33688	
1738	0	33680	
1739	0	33672	
1740	0	33680	
1741	0	33704	
1742	0	33708	
1743	0	33712	
1744	0	33720	
1745	0	33722	
1746	0	33700	
1747	0	33688	
1748	0	33648	
1749	0	33612	
1750	0	33568	
1751	0	33524	
1752	0	33472	
1753	0	33420	
1754	0	33376	
1755	0	33344	
1756	0	33336	
1757	0	33324	
1758	0	33304	
1759	0	33244	
1760	0	33212	
1761	0	33172	
1762	0	33144	
1763	0	33098	
1764	0	33050	
1765	0	32992	
1766	0	32916	
1767	0	32844	
1768	0	32772	
1769	0	32696	
1770	0	32644	
1771	0	32592	
1772	0	32544	
1773	0	32484	
1774	0	32432	
1775	0	32396	
1776	0	32384	
1777	0	32384	
1778	0	32368	
1779	0	32360	
1780	0	32296	
1781	0	32244	
1782	0	32180	
1783	0	32132	
1784	0	32048	
1785	0	31960	
1786	0	31884	
1787	0	31770	
1788	0	31688	
1789	0	31608	
1790	0	31536	
1791	0	31488	
1792	0	31416	
1793	0	31370	
1794	0	31344	
1795	0	31312	
1796	0	31328	
1797	0	31340	
1798	0	31356	
1799	0	31376	
1800	0	31384	
1801	0	31412	
1802	0	31376	
1803	0	31376	
1804	0	31352	
1805	0	31320	
1806	0	31296	
1807	0	31264	
1808	0	31208	
1809	0	31156	
1810	0	31100	
1811	0	31072	
1812	0	31040	
1813	0	31004	
1814	0	30992	
1815	0	30984	
1816	0	30968	
1817	0	30980	
1818	0	30996	
1819	0	31024	
1820	0	31040	
1821	0	31072	
1822	0	31104	
1823	0	31112	
1824	0	31112	
1825	0	31112	
1826	0	31128	
1827	0	31108	
1828	0	31105	
1829	0	31124	
1830	0	31112	
1831	0	31124	
1832	0	31132	
1833	0	31136	
1834	0	31136	
1835	0	31152	
1836	0	31168	
1837	0	31164	
1838	0	31176	
1839	0	31184	
1840	0	31188	
1841	0	31208	
1842	0	31212	
1843	0	31202	
1844	0	31184	
1845	0	31180	
1846	0	31154	
1847	0	31136	
1848	0	31136	
1849	0	31144	
1850	0	31156	
1851	0	31160	
1852	0	31172	
1853	0	31200	
1854	0	31228	
1855	0	31274	
1856	0	31328	
1857	0	31404	
1858	0	31452	
1859	0	31508	
1860	0	31556	
1861	0	31576	
1862	0	31608	
1863	0	31648	
1864	0	31660	
1865	0	31684	
1866	0	31708	
1867	0	31748	
1868	0	31776	
1869	0	31780	
1870	0	31804	
1871	0	31756	
1872	0	31724	
1873	0	31704	
1874	0	31704	
1875	0	31712	
1876	0	31712	
1877	0	31708	
1878	0	31728	
1879	0	31756	
1880	0	31794	
1881	0	31820	
1882	0	31816	
1883	0	31836	
1884	0	31844	
1885	0	31836	
1886	0	31816	
1887	0	31784	
1888	0	31768	
1889	0	31728	
1890	0	31720	
1891	0	31740	
1892	0	31738	
1893	0	31732	
1894	0	31756	
1895	0	31752	
1896	0	31720	
1897	0	31712	
1898	0	31712	
1899	0	31700	
1900	0	31682	
1901	0	31700	
1902	0	31704	
1903	0	31724	
1904	0	31752	
1905	0	31770	
1906	0	31768	
1907	0	31756	
1908	0	31776	
1909	0	31776	
1910	0	31736	
1911	0	31700	
1912	0	31690	
1913	0	31684	
1914	0	31736	
1915	0	31784	
1916	0	31844	
1917	0	31920	
1918	0	31968	
1919	0	31992	
1920	0	32036	
1921	0	32032	
1922	0	32044	
1923	0	32044	
1924	0	32028	
1925	0	32008	
1926	0	31992	
1927	0	31968	
1928	0	31944	
1929	0	31912	
1930	0	31848	
1931	0	31828	
1932	0	31784	
1933	0	31784	
1934	0	31812	
1935	0	31840	
1936	0	31848	
1937	0	31856	
1938	0	31872	
1939	0	31876	
1940	0	31872	
1941	0	31860	
1942	0	31876	
1943	0	31888	
1944	0	31896	
1945	0	31904	
1946	0	31940	
1947	0	31968	
1948	0	31940	
1949	0	31876	
1950	0	31816	
1951	0	31752	
1952	0	31760	
1953	0	31778	
1954	0	31808	
1955	0	31840	
1956	0	31852	
1957	0	31840	
1958	0	31844	
1959	0	31892	
1960	0	31956	
1961	0	31976	
1962	0	32000	
1963	0	32044	
1964	0	32096	
1965	0	32136	
1966	0	32104	
1967	0	32064	
1968	0	32036	
1969	0	31984	
1970	0	31960	
1971	0	31952	
1972	0	31924	
1973	0	31880	
1974	0	31844	
1975	0	31848	
1976	0	31880	
1977	0	31928	
1978	0	31980	
1979	0	32040	
1980	0	32088	
1981	0	32132	
1982	0	32156	
1983	0	32140	
1984	0	32160	
1985	0	32172	
1986	0	32140	
1987	0	32104	
1988	0	32080	
1989	0	32028	
1990	0	31988	
1991	0	31936	
1992	0	31920	
1993	0	31936	
1994	0	31968	
1995	0	31988	
1996	0	32032	
1997	0	32084	
1998	0	32148	
1999	0	32212	
2000	0	32260	
2001	0	32288	
2002	0	32308	
2003	0	32296	
2004	0	32252	
2005	0	32164	
2006	0	32088	
2007	0	32036	
2008	0	32016	
2009	0	31988	
2010	0	31956	
2011	0	31920	
2012	0	31904	
2013	0	31896	
2014	0	31892	
2015	0	31896	
2016	0	31880	
2017	0	31864	
2018	0	31876	
2019	0	31908	
2020	0	31896	
2021	0	31916	
2022	0	31972	
2023	0	32008	
2024	0	32000	
2025	0	31988	
2026	0	31952	
2027	0	31944	
2028	0	31950	
2029	0	31940	
2030	0	31936	
2031	0	31944	
2032	0	31944	
2033	0	31936	
2034	0	31944	
2035	0	31976	
2036	0	32024	
2037	0	32072	
2038	0	32096	
2039	0	32132	
2040	0	32144	
2041	0	32140	
2042	0	32108	
2043	0	32092	
2044	0	32056	
2045	0	32032	
2046	0	32036	
2047	0	32016	
2048	0	32004	
2049	0	32024	
2050	0	32060	
2051	0	32092	
2052	0	32116	
2053	0	32128	
2054	0	32156	
2055	0	32168	
2056	0	32204	
2057	0	32248	
2058	0	32304	
2059	0	32332	
2060	0	32368	
2061	0	32388	
2062	0	32392	
2063	0	32378	
2064	0	32346	
2065	0	32282	
2066	0	32228	
2067	0	32196	
2068	0	32192	
2069	0	32168	
2070	0	32144	
2071	0	32116	
2072	0	32080	
2073	0	32088	
2074	0	32088	
2075	0	32132	
2076	0	32180	
2077	0	32244	
2078	0	32304	
2079	0	32324	
2080	0	32352	
2081	0	32404	
2082	0	32428	
2083	0	32436	
2084	0	32480	
2085	0	32512	
2086	0	32528	
2087	0	32538	
2088	0	32544	
2089	0	32548	
2090	0	32516	
2091	0	32494	
2092	0	32464	
2093	0	32392	
2094	0	32346	
2095	0	32316	
2096	0	32316	
2097	0	32324	
2098	0	32344	
2099	0	32336	
2100	0	32328	
2101	0	32296	
2102	0	32328	
2103	0	32366	
2104	0	32376	
2105	0	32394	
2106	0	32400	
2107	0	32384	
2108	0	32384	
2109	0	32384	
2110	0	32360	
2111	0	32328	
2112	0	32300	
2113	0	32280	
2114	0	32264	
2115	0	32236	
2116	0	32280	
2117	0	32344	
2118	0	32380	
2119	0	32404	
2120	0	32432	
2121	0	32464	
2122	0	32472	
2123	0	32500	
2124	0	32536	
2125	0	32568	
2126	0	32600	
2127	0	32632	
2128	0	32656	
2129	0	32628	
2130	0	32572	
2131	0	32568	
2132	0	32560	
2133	0	32588	
2134	0	32612	
2135	0	32644	
2136	0	32696	
2137	0	32760	
2138	0	32800	
2139	0	32808	
2140	0	32824	
2141	0	32896	
2142	0	32960	
2143	0	33018	
2144	0	33056	
2145	0	33080	
2146	0	33114	
2147	0	33108	
2148	0	33108	
2149	0	33084	
2150	0	33072	
2151	0	33008	
2152	0	32948	
2153	0	32928	
2154	0	32904	
2155	0	32924	
2156	0	32944	
2157	0	32948	
2158	0	32968	
2159	0	33040	
2160	0	33172	
2161	0	33348	
2162	0	33520	
2163	0	33688	
2164	0	33860	
2165	0	34008	
2166	0	34120	
2167	0	34204	
2168	0	34248	
2169	0	34324	
2170	0	34408	
2171	0	34452	
2172	0	34452	
2173	0	34400	
2174	0	34338	
2175	0	34292	
2176	0	34282	
2177	0	34272	
2178	0	34260	
2179	0	34240	
2180	0	34184	
2181	0	34100	
2182	0	33992	
2183	0	33916	
2184	0	33832	
2185	0	33728	
2186	0	33616	
2187	0	33512	
2188	0	33424	
2189	0	33332	
2190	0	33296	
2191	0	33228	
2192	0	33120	
2193	0	33056	
2194	0	33040	
2195	0	33008	
2196	0	32964	
2197	0	32928	
2198	0	32908	
2199	0	32896	
2200	0	32864	
2201	0	32864	
2202	0	32840	
2203	0	32816	
2204	0	32840	
2205	0	32864	
2206	0	32876	
2207	0	32820	
2208	0	32760	
2209	0	32684	
2210	0	32608	
2211	0	32536	
2212	0	32492	
2213	0	32400	
2214	0	32316	
2215	0	32280	
2216	0	32268	
2217	0	32272	
2218	0	32236	
2219	0	32172	
2220	0	32124	
2221	0	32096	
2222	0	32064	
2223	0	32048	
2224	0	32028	
2225	0	32020	
2226	0	32034	
2227	0	32088	
2228	0	32168	
2229	0	32200	
2230	0	32240	
2231	0	32214	
2232	0	32196	
2233	0	32188	
2234	0	32212	
2235	0	32216	
2236	0	32200	
2237	0	32224	
2238	0	32244	
2239	0	32224	
2240	0	32224	
2241	0	32232	
2242	0	32264	
2243	0	32290	
2244	0	32292	
2245	0	32288	
2246	0	32256	
2247	0	32212	
2248	0	32200	
2249	0	32160	
2250	0	32144	
2251	0	32116	
2252	0	32076	
2253	0	32084	
2254	0	32112	
2255	0	32116	
2256	0	32156	
2257	0	32208	
2258	0	32216	
2259	0	32220	
2260	0	32216	
2261	0	32208	
2262	0	32208	
2263	0	32220	
2264	0	32272	
2265	0	32304	
2266	0	32352	
2267	0	32352	
2268	0	32392	
2269	0	32436	
2270	0	32448	
2271	0	32436	
2272	0	32404	
2273	0	32348	
2274	0	32290	
2275	0	32244	
2276	0	32228	
2277	0	32224	
2278	0	32240	
2279	0	32288	
2280	0	32340	
2281	0	32388	
2282	0	32424	
2283	0	32460	
2284	0	32464	
2285	0	32452	
2286	0	32460	
2287	0	32480	
2288	0	32472	
2289	0	32500	
2290	0	32560	
2291	0	32580	
2292	0	32608	
2293	0	32660	
2294	0	32760	
2295	0	32824	
2296	0	32852	
2297	0	32880	
2298	0	32848	
2299	0	32808	
2300	0	32784	
2301	0	32736	
2302	0	32656	
2303	0	32572	
2304	0	32576	
2305	0	32688	
2306	0	32880	
2307	0	33096	
2308	0	33284	
2309	0	33484	
2310	0	33748	
2311	0	33920	
2312	0	33912	
2313	0	33924	
2314	0	34116	
2315	0	34456	
2316	0	34924	
2317	0	35524	
2318	0	36304	
2319	0	37228	
2320	0	38304	
2321	0	39580	
2322	0	40944	
2323	0	42304	
2324	0	43700	
2325	0	45140	
2326	0	46720	
2327	0	48288	
2328	0	49720	
2329	0	50936	
2330	0	52036	
2331	0	53036	
2332	0	53960	
2333	0	54800	
2334	0	55364	
2335	0	55240	
2336	0	54176	
2337	0	51992	
2338	0	49056	
2339	0	45768	
2340	0	42388	
2341	0	39128	
2342	0	36196	
2343	0	33844	
2344	0	32208	
2345	0	31180	
2346	0	30472	
2347	0	29980	
2348	0	29680	
2349	0	29508	
2350	0	29484	
2351	0	29608	
2352	0	29824	
2353	0	30100	
2354	0	30348	
2355	0	30580	
2356	0	30796	
2357	0	30996	
2358	0	31172	
2359	0	31360	
2360	0	31524	
2361	0	31720	
2362	0	31864	
2363	0	31936	
2364	0	32012	
2365	0	32100	
2366	0	32102	
2367	0	32032	
2368	0	31900	
2369	0	31776	
2370	0	31688	
2371	0	31602	
2372	0	31520	
2373	0	31432	
2374	0	31360	
2375	0	31328	
2376	0	31360	
2377	0	31414	
2378	0	31444	
2379	0	31504	
2380	0	31564	
2381	0	31584	
2382	0	31580	
2383	0	31606	
2384	0	31616	
2385	0	31632	
2386	0	31616	
2387	0	31596	
2388	0	31592	
2389	0	31604	
2390	0	31602	
2391	0	31596	
2392	0	31596	
2393	0	31612	
2394	0	31608	
2395	0	31588	
2396	0	31604	
2397	0	31632	
2398	0	31684	
2399	0	31700	
2400	0	31728	
2401	0	31756	
2402	0	31796	
2403	0	31848	
2404	0	31916	
2405	0	31976	
2406	0	31988	
2407	0	31916	
2408	0	31848	
2409	0	31832	
2410	0	31880	
2411	0	31920	
2412	0	31970	
2413	0	31984	
2414	0	32016	
2415	0	32024	
2416	0	32032	
2417	0	32088	
2418	0	32112	
2419	0	32144	
2420	0	32144	
2421	0	32202	
2422	0	32272	
2423	0	32308	
2424	0	32312	
2425	0	32296	
2426	0	32296	
2427	0	32302	
2428	0	32312	
2429	0	32380	
2430	0	32444	
2431	0	32512	
2432	0	32608	
2433	0	32640	
2434	0	32640	
2435	0	32632	
2436	0	32604	
2437	0	32588	
2438	0	32592	
2439	0	32604	
2440	0	32612	
2441	0	32624	
2442	0	32644	
2443	0	32676	
2444	0	32712	
2445	0	32728	
2446	0	32756	
2447	0	32760	
2448	0	32752	
2449	0	32760	
2450	0	32808	
2451	0	32852	
2452	0	32864	
2453	0	32844	
2454	0	32832	
2455	0	32832	
2456	0	32860	
2457	0	32916	
2458	0	33008	
2459	0	33048	
2460	0	33072	
2461	0	33082	
2462	0	33108	
2463	0	33096	
2464	0	33056	
2465	0	33056	
2466	0	33088	
2467	0	33076	
2468	0	33044	
2469	0	33056	
2470	0	33092	
2471	0	33064	
2472	0	33040	
2473	0	33020	
2474	0	33064	
2475	0	33124	
2476	0	33184	
2477	0	33216	
2478	0	33208	
2479	0	33218	
2480	0	33264	
2481	0	33312	
2482	0	33348	
2483	0	33388	
2484	0	33420	
2485	0	33456	
2486	0	33504	
2487	0	33516	
2488	0	33488	
2489	0	33444	
2490	0	33376	
2491	0	33264	
2492	0	33188	
2493	0	33192	
2494	0	33200	
2495	0	33208	
2496	0	33216	
2497	0	33236	
2498	0	33324	
2499	0	33424	
2500	0	33498	
2501	0	33512	
2502	0	33528	
2503	0	33508	
2504	0	33510	
2505	0	33532	
2506	0	33568	
2507	0	33600	
2508	0	33624	
2509	0	33596	
2510	0	33536	
2511	0	33504	
2512	0	33498	
2513	0	33520	
2514	0	33568	
2515	0	33594	
2516	0	33616	
2517	0	33600	
2518	0	33592	
2519	0	33572	
2520	0	33592	
2521	0	33642	
2522	0	33688	
2523	0	33744	
2524	0	33824	
2525	0	33820	
2526	0	33772	
2527	0	33720	
2528	0	33648	
2529	0	33568	
2530	0	33524	
2531	0	33514	
2532	0	33564	
2533	0	33648	
2534	0	33688	
2535	0	33668	
2536	0	33696	
2537	0	33768	
2538	0	33792	
2539	0	33796	
2540	0	33800	
2541	0	33800	
2542	0	33808	
2543	0	33848	
2544	0	33888	
2545	0	33872	
2546	0	33848	
2547	0	33884	
2548	0	33856	
2549	0	33792	
2550	0	33704	
2551	0	33632	
2552	0	33608	
2553	0	33608	
2554	0	33624	
2555	0	33612	
2556	0	33624	
2557	0	33612	
2558	0	33608	
2559	0	33662	
2560	0	33700	
2561	0	33752	
2562	0	33764	
2563	0	33744	
2564	0	33736	
2565	0	33696	
2566	0	33640	
2567	0	33612	
2568	0	33628	
2569	0	33648	
2570	0	33628	
2571	0	33600	
2572	0	33536	
2573	0	33496	
2574	0	33496	
2575	0	33532	
2576	0	33520	
2577	0	33576	
2578	0	33660	
2579	0	33732	
2580	0	33760	
2581	0	33804	
2582	0	33836	
2583	0	33832	
2584	0	33798	
2585	0	33708	
2586	0	33668	
2587	0	33660	
2588	0	33660	
2589	0	33632	
2590	0	33580	
2591	0	33544	
2592	0	33528	
2593	0	33472	
2594	0	33448	
2595	0	33428	
2596	0	33420	
2597	0	33384	
2598	0	33376	
2599	0	33376	
2600	0	33384	
2601	0	33348	
2602	0	33324	
2603	0	33316	
2604	0	33312	
2605	0	33312	
2606	0	33280	
2607	0	33232	
2608	0	33192	
2609	0	33152	
2610	0	33072	
2611	0	32968	
2612	0	32868	
2613	0	32808	
2614	0	32736	
2615	0	32668	
2616	0	32592	
2617	0	32552	
2618	0	32482	
2619	0	32392	
2620	0	32362	
2621	0	32372	
2622	0	32362	
2623	0	32340	
2624	0	32268	
2625	0	32184	
2626	0	32136	
2627	0	32096	
2628	0	32096	
2629	0	32088	
2630	0	32024	
2631	0	31968	
2632	0	31956	
2633	0	31884	
2634	0	31852	
2635	0	31816	
2636	0	31832	
2637	0	31808	
2638	0	31712	
2639	0	31644	
2640	0	31570	
2641	0	31476	
2642	0	31384	
2643	0	31304	
2644	0	31240	
2645	0	31192	
2646	0	31152	
2647	0	31104	
2648	0	31040	
2649	0	30992	
2650	0	30964	
2651	0	30944	
2652	0	30908	
2653	0	30864	
2654	0	30792	
2655	0	30760	
2656	0	30728	
2657	0	30712	
2658	0	30684	
2659	0	30666	
2660	0	30656	
2661	0	30640	
2662	0	30632	
2663	0	30660	
2664	0	30724	
2665	0	30740	
2666	0	30792	
2667	0	30824	
2668	0	30844	
2669	0	30848	
2670	0	30820	
2671	0	30800	
2672	0	30784	
2673	0	30804	
2674	0	30800	
2675	0	30828	
2676	0	30898	
2677	0	30900	
2678	0	30904	
2679	0	30874	
2680	0	30820	
2681	0	30848	
2682	0	30876	
2683	0	30940	
2684	0	30944	
2685	0	30932	
2686	0	30972	
2687	0	31024	
2688	0	31008	
2689	0	30980	
2690	0	30946	
2691	0	30924	
2692	0	30904	
2693	0	30912	
2694	0	30932	
2695	0	30960	
2696	0	31008	
2697	0	31072	
2698	0	31144	
2699	0	31184	
2700	0	31204	
2701	0	31236	
2702	0	31272	
2703	0	31336	
2704	0	31380	
2705	0	31402	
2706	0	31384	
2707	0	31368	
2708	0	31372	
2709	0	31348	
2710	0	31322	
2711	0	31320	
2712	0	31336	
2713	0	31324	
2714	0	31352	
2715	0	31408	
2716	0	31464	
2717	0	31470	
2718	0	31472	
2719	0	31532	
2720	0	31608	
2721	0	31704	
2722	0	31788	
2723	0	31868	
2724	0	31896	
2725	0	31956	
2726	0	31980	
2727	0	31984	
2728	0	31956	
2729	0	31904	
2730	0	31852	
2731	0	31816	
2732	0	31800	
2733	0	31808	
2734	0	31820	
2735	0	31778	
2736	0	31776	
2737	0	31792	
2738	0	31796	
2739	0	31792	
2740	0	31768	
2741	0	31780	
2742	0	31808	
2743	0	31824	
2744	0	31784	
2745	0	31744	
2746	0	31754	
2747	0	31776	
2748	0	31788	
2749	0	31824	
2750	0	31864	
2751	0	31888	
2752	0	31832	
2753	0	31776	
2754	0	31752	
2755	0	31760	
2756	0	31740	
2757	0	31724	
2758	0	31744	
2759	0	31744	
2760	0	31740	
2761	0	31754	
2762	0	31792	
2763	0	31816	
2764	0	31860	
2765	0	31856	
2766	0	31788	
2767	0	31700	
2768	0	31632	
2769	0	31576	
2770	0	31564	
2771	0	31552	
2772	0	31524	
2773	0	31520	
2774	0	31520	
2775	0	31538	
2776	0	31544	
2777	0	31576	
2778	0	31618	
2779	0	31624	
2780	0	31628	
2781	0	31586	
2782	0	31578	
2783	0	31588	
2784	0	31592	
2785	0	31612	
2786	0	31632	
2787	0	31630	
2788	0	31616	
2789	0	31608	
2790	0	31568	
2791	0	31540	
2792	0	31540	
2793	0	31524	
2794	0	31520	
2795	0	31520	
2796	0	31528	
2797	0	31552	
2798	0	31592	
2799	0	31616	
2800	0	31616	
2801	0	31648	
2802	0	31704	
2803	0	31704	
2804	0	31668	
2805	0	31610	
2806	0	31588	
2807	0	31596	
2808	0	31584	
2809	0	31568	
2810	0	31556	
2811	0	31524	
2812	0	31504	
2813	0	31484	
2814	0	31460	
2815	0	31436	
2816	0	31442	
2817	0	31444	
2818	0	31420	
2819	0	31404	
2820	0	31392	
2821	0	31404	
2822	0	31440	
2823	0	31456	
2824	0	31436	
2825	0	31468	
2826	0	31512	
2827	0	31528	
2828	0	31584	
2829	0	31620	
2830	0	31644	
2831	0	31644	
2832	0	31648	
2833	0	31620	
2834	0	31584	
2835	0	31616	
2836	0	31624	
2837	0	31648	
2838	0	31720	
2839	0	31776	
2840	0	31812	
2841	0	31824	
2842	0	31860	
2843	0	31860	
2844	0	31832	
2845	0	31770	
2846	0	31756	
2847	0	31732	
2848	0	31698	
2849	0	31720	
2850	0	31712	
2851	0	31676	
2852	0	31624	
2853	0	31612	
2854	0	31588	
2855	0	31548	
2856	0	31556	
2857	0	31556	
2858	0	31576	
2859	0	31568	
2860	0	31584	
2861	0	31624	
2862	0	31668	
2863	0	31712	
2864	0	31712	
2865	0	31720	
2866	0	31716	
2867	0	31732	
2868	0	31792	
2869	0	31824	
2870	0	31832	
2871	0	31802	
2872	0	31808	
2873	0	31808	
2874	0	31808	
2875	0	31832	
2876	0	31860	
2877	0	31900	
2878	0	31920	
2879	0	31948	
2880	0	31948	
2881	0	31976	
2882	0	31968	
2883	0	31972	
2884	0	31976	
2885	0	32004	
2886	0	32016	
2887	0	31986	
2888	0	31912	
2889	0	31860	
2890	0	31816	
2891	0	31832	
2892	0	31832	
2893	0	31864	
2894	0	31924	
2895	0	31936	
2896	0	31952	
2897	0	31936	
2898	0	31936	
2899	0	31964	
2900	0	31984	
2901	0	32032	
2902	0	32064	
2903	0	32072	
2904	0	32036	
2905	0	32020	
2906	0	32004	
2907	0	32042	
2908	0	32092	
2909	0	32148	
2910	0	32256	
2911	0	32352	
2912	0	32432	
2913	0	32472	
2914	0	32496	
2915	0	32620	
2916	0	32728	
2917	0	32796	
2918	0	32816	
2919	0	32816	
2920	0	32840	
2921	0	32872	
2922	0	32892	
2923	0	32876	
2924	0	32848	
2925	0	32816	
2926	0	32778	
2927	0	32724	
2928	0	32708	
2929	0	32744	
2930	0	32780	
2931	0	32804	
2932	0	32814	
2933	0	32808	
2934	0	32816	
2935	0	32900	
2936	0	33076	
2937	0	33262	
2938	0	33440	
2939	0	33546	
2940	0	33608	
2941	0	33672	
2942	0	33772	
2943	0	33916	
2944	0	34032	
2945	0	34112	
2946	0	34132	
2947	0	34148	
2948	0	34216	
2949	0	34328	
2950	0	34388	
2951	0	34412	
2952	0	34416	
2953	0	34346	
2954	0	34228	
2955	0	34096	
2956	0	33912	
2957	0	33778	
2958	0	33708	
2959	0	33600	
2960	0	33532	
2961	0	33472	
2962	0	33364	
2963	0	33300	
2964	0	33248	
2965	0	33232	
2966	0	33186	
2967	0	33100	
2968	0	33056	
2969	0	33036	
2970	0	33024	
2971	0	33016	
2972	0	33044	
2973	0	33036	
2974	0	33000	
2975	0	32972	
2976	0	32936	
2977	0	32924	
2978	0	32926	
2979	0	32980	
2980	0	33064	
2981	0	33116	
2982	0	33124	
2983	0	33080	
2984	0	33036	
2985	0	32988	
2986	0	32900	
2987	0	32796	
2988	0	32736	
2989	0	32712	
2990	0	32720	
2991	0	32744	
2992	0	32706	
2993	0	32648	
2994	0	32572	
2995	0	32544	
2996	0	32520	
2997	0	32464	
2998	0	32396	
2999	0	32332	
3000	0	32252	
3001	0	32200	
3002	0	32188	
3003	0	32172	
3004	0	32148	
3005	0	32156	
3006	0	32160	
3007	0	32164	
3008	0	32180	
3009	0	32180	
3010	0	32152	
3011	0	32148	
3012	0	32156	
3013	0	32108	
3014	0	32084	
3015	0	32136	
3016	0	32216	
3017	0	32280	
3018	0	32320	
3019	0	32376	
3020	0	32432	
3021	0	32500	
3022	0	32564	
3023	0	32616	
3024	0	32608	
3025	0	32546	
3026	0	32496	
3027	0	32444	
3028	0	32360	
3029	0	32260	
3030	0	32188	
3031	0	32156	
3032	0	32104	
3033	0	32100	
3034	0	32096	
3035	0	32104	
3036	0	32140	
3037	0	32204	
3038	0	32260	
3039	0	32316	
3040	0	32364	
3041	0	32380	
3042	0	32448	
3043	0	32488	
3044	0	32500	
3045	0	32520	
3046	0	32528	
3047	0	32568	
3048	0	32612	
3049	0	32648	
3050	0	32664	
3051	0	32640	
3052	0	32668	
3053	0	32652	
3054	0	32676	
3055	0	32680	
3056	0	32684	
3057	0	32680	
3058	0	32712	
3059	0	32736	
3060	0	32766	
3061	0	32776	
3062	0	32764	
3063	0	32768	
3064	0	32792	
3065	0	32824	
3066	0	32852	
3067	0	32908	
3068	0	32980	
3069	0	33058	
3070	0	33088	
3071	0	33080	
3072	0	33048	
3073	0	32980	
3074	0	32916	
3075	0	32884	
3076	0	32864	
3077	0	32856	
3078	0	32886	
3079	0	33004	
3080	0	33260	
3081	0	33628	
3082	0	33988	
3083	0	34372	
3084	0	34752	
3085	0	35060	
3086	0	35248	
3087	0	35256	
3088	0	35248	
3089	0	35420	
3090	0	35792	
3091	0	36320	
3092	0	36976	
3093	0	37788	
3094	0	38820	
3095	0	40096	
3096	0	41516	
3097	0	42912	
3098	0	44372	
3099	0	45904	
3100	0	47504	
3101	0	49188	
3102	0	50764	
3103	0	52164	
3104	0	53324	
3105	0	54296	
3106	0	55296	
3107	0	56312	
3108	0	57108	
3109	0	57436	
3110	0	56960	
3111	0	55360	
3112	0	52740	
3113	0	49460	
3114	0	45856	
3115	0	42272	
3116	0	38912	
3117	0	36112	
3118	0	34028	
3119	0	32586	
3120	0	31574	
3121	0	30928	
3122	0	30560	
3123	0	30336	
3124	0	30192	
3125	0	30208	
3126	0	30312	
3127	0	30460	
3128	0	30640	
3129	0	30824	
3130	0	30988	
3131	0	31160	
3132	0	31272	
3133	0	31348	
3134	0	31466	
3135	0	31584	
3136	0	31708	
3137	0	31792	
3138	0	31836	
3139	0	31864	
3140	0	31880	
3141	0	31882	
3142	0	31856	
3143	0	31812	
3144	0	31744	
3145	0	31684	
3146	0	31664	
3147	0	31624	
3148	0	31616	
3149	0	31636	
3150	0	31660	
3151	0	31668	
3152	0	31632	
3153	0	31602	
3154	0	31560	
3155	0	31534	
3156	0	31560	
3157	0	31530	
3158	0	31496	
3159	0	31474	
3160	0	31464	
3161	0	31424	
3162	0	31424	
3163	0	31420	
3164	0	31432	
3165	0	31400	
3166	0	31392	
3167	0	31364	
3168	0	31324	
3169	0	31336	
3170	0	31382	
3171	0	31430	
3172	0	31496	
3173	0	31530	
3174	0	31536	
3175	0	31576	
3176	0	31588	
3177	0	31616	
3178	0	31644	
3179	0	31648	
3180	0	31636	
3181	0	31622	
3182	0	31628	
3183	0	31632	
3184	0	31648	
3185	0	31656	
3186	0	31680	
3187	0	31680	
3188	0	31704	
3189	0	31776	
3190	0	31852	
3191	0	31896	
3192	0	31948	
3193	0	32012	
3194	0	32058	
3195	0	32084	
3196	0	32104	
3197	0	32126	
3198	0	32160	
3199	0	32200	
3200	0	32272	
3201	0	32332	
3202	0	32400	
3203	0	32408	
3204	0	32356	
3205	0	32304	
3206	0	32312	
3207	0	32356	
3208	0	32392	
3209	0	32412	
3210	0	32406	
3211	0	32392	
3212	0	32384	
3213	0	32400	
3214	0	32440	
3215	0	32498	
3216	0	32528	
3217	0	32540	
3218	0	32560	
3219	0	32592	
3220	0	32640	
3221	0	32712	
3222	0	32756	
3223	0	32776	
3224	0	32800	
3225	0	32796	
3226	0	32764	
3227	0	32712	
3228	0	32696	
3229	0	32696	
3230	0	32692	
3231	0	32654	
3232	0	32624	
3233	0	32624	
3234	0	32644	
3235	0	32648	
3236	0	32680	
3237	0	32736	
3238	0	32804	
3239	0	32856	
3240	0	32928	
3241	0	32980	
3242	0	33024	
3243	0	33064	
3244	0	33084	
3245	0	33112	
3246	0	33104	
3247	0	33056	
3248	0	33016	
3249	0	32992	
3250	0	32948	
3251	0	32916	
3252	0	32924	
3253	0	32942	
3254	0	32952	
3255	0	32972	
3256	0	33016	
3257	0	33104	
3258	0	33152	
3259	0	33172	
3260	0	33216	
3261	0	33232	
3262	0	33272	
3263	0	33296	
3264	0	33332	
3265	0	33332	
3266	0	33314	
3267	0	33300	
3268	0	33292	
3269	0	33312	
3270	0	33356	
3271	0	33382	
3272	0	33384	
3273	0	33368	
3274	0	33364	
3275	0	33412	
3276	0	33460	
3277	0	33472	
3278	0	33440	
3279	0	33432	
3280	0	33416	
3281	0	33456	
3282	0	33476	
3283	0	33480	
3284	0	33472	
3285	0	33484	
3286	0	33484	
3287	0	33490	
3288	0	33512	
3289	0	33524	
3290	0	33556	
3291	0	33580	
3292	0	33572	
3293	0	33568	
3294	0	33612	
3295	0	33648	
3296	0	33668	
3297	0	33704	
3298	0	33736	
3299	0	33768	
3300	0	33832	
3301	0	33872	
3302	0	33892	
3303	0	33880	
3304	0	33866	
3305	0	33840	
3306	0	33820	
3307	0	33818	
3308	0	33824	
3309	0	33800	
3310	0	33788	
3311	0	33752	
3312	0	33752	
3313	0	33764	
3314	0	33808	
3315	0	33868	
3316	0	33924	
3317	0	33984	
3318	0	33996	
3319	0	33984	
3320	0	33956	
3321	0	33904	
3322	0	33880	
3323	0	33896	
3324	0	33936	
3325	0	33938	
3326	0	33936	
3327	0	33944	
3328	0	33922	
3329	0	33904	
3330	0	33860	
3331	0	33808	
3332	0	33720	
3333	0	33666	
3334	0	33656	
3335	0	33664	
3336	0	33634	
3337	0	33572	
3338	0	33584	
3339	0	33616	
3340	0	33632	
3341	0	33664	
3342	0	33676	
3343	0	33692	
3344	0	33712	
3345	0	33728	
3346	0	33728	
3347	0	33732	
3348	0	33740	
3349	0	33754	
3350	0	33728	
3351	0	33712	
3352	0	33664	
3353	0	33656	
3354	0	33664	
3355	0	33660	
3356	0	33688	
3357	0	33784	
3358	0	33800	
3359	0	33752	
3360	0	33736	
3361	0	33700	
3362	0	33672	
3363	0	33692	
3364	0	33696	
3365	0	33684	
3366	0	33644	
3367	0	33640	
3368	0	33628	
3369	0	33600	
3370	0	33552	
3371	0	33464	
3372	0	33416	
3373	0	33384	
3374	0	33316	
3375	0	33272	
3376	0	33244	
3377	0	33196	
3378	0	33130	
3379	0	33090	
3380	0	33112	
3381	0	33108	
3382	0	33040	
3383	0	32956	
3384	0	32880	
3385	0	32784	
3386	0	32696	
3387	0	32624	
3388	0	32568	
3389	0	32560	
3390	0	32572	
3391	0	32540	
3392	0	32452	
3393	0	32372	
3394	0	32288	
3395	0	32204	
3396	0	32152	
3397	0	32080	
3398	0	32016	
3399	0	31964	
3400	0	31916	
3401	0	31872	
3402	0	31816	
3403	0	31728	
3404	0	31648	
3405	0	31576	
3406	0	31548	
3407	0	31540	
3408	0	31480	
3409	0	31416	
3410	0	31328	
3411	0	31216	
3412	0	31100	
3413	0	31004	
3414	0	30936	
3415	0	30888	
3416	0	30860	
3417	0	30840	
3418	0	30816	
3419	0	30772	
3420	0	30732	
3421	0	30728	
3422	0	30736	
3423	0	30704	
3424	0	30644	
3425	0	30624	
3426	0	30656	
3427	0	30652	
3428	0	30636	
3429	0	30628	
3430	0	30608	
3431	0	30588	
3432	0	30532	
3433	0	30460	
3434	0	30432	
3435	0	30424	
3436	0	30408	
3437	0	30396	
3438	0	30416	
3439	0	30472	
3440	0	30528	
3441	0	30580	
3442	0	30620	
3443	0	30640	
3444	0	30636	
3445	0	30640	
3446	0	30620	
3447	0	30592	
3448	0	30580	
3449	0	30564	
3450	0	30544	
3451	0	30532	
3452	0	30544	
3453	0	30592	
3454	0	30644	
3455	0	30704	
3456	0	30752	
3457	0	30804	
3458	0	30856	
3459	0	30908	
3460	0	30924	
3461	0	30936	
3462	0	30944	
3463	0	30952	
3464	0	30972	
3465	0	30992	
3466	0	31000	
3467	0	31004	
3468	0	31008	
3469	0	31024	
3470	0	31040	
3471	0	31082	
3472	0	31096	
3473	0	31148	
3474	0	31180	
3475	0	31204	
3476	0	31266	
3477	0	31340	
3478	0	31420	
3479	0	31464	
3480	0	31488	
3481	0	31508	
3482	0	31520	
3483	0	31514	
3484	0	31496	
3485	0	31464	
3486	0	31444	
3487	0	31428	
3488	0	31360	
3489	0	31296	
3490	0	31288	
3491	0	31304	
3492	0	31340	
3493	0	31380	
3494	0	31404	
3495	0	31456	
3496	0	31520	
3497	0	31600	
3498	0	31680	
3499	0	31756	
3500	0	31800	
3501	0	31824	
3502	0	31820	
3503	0	31824	
3504	0	31868	
3505	0	31896	
3506	0	31888	
3507	0	31874	
3508	0	31868	
3509	0	31868	
3510	0	31868	
3511	0	31898	
3512	0	31944	
3513	0	32000	
3514	0	32040	
3515	0	32068	
3516	0	32112	
3517	0	32100	
3518	0	32096	
3519	0	32100	
3520	0	32120	
3521	0	32132	
3522	0	32112	
3523	0	32096	
3524	0	32096	
3525	0	32078	
3526	0	32052	
3527	0	32030	
3528	0	32020	
3529	0	32008	
3530	0	32002	
3531	0	31976	
3532	0	31946	
3533	0	31936	
3534	0	31940	
3535	0	31992	
3536	0	32016	
3537	0	32012	
3538	0	32044	
3539	0	32096	
3540	0	32168	
3541	0	32192	
3542	0	32184	
3543	0	32160	
3544	0	32160	
3545	0	32140	
3546	0	32104	
3547	0	32048	
3548	0	31992	
3549	0	31944	
3550	0	31936	
3551	0	31888	
3552	0	31838	
3553	0	31820	
3554	0	31824	
3555	0	31822	
3556	0	31824	
3557	0	31888	
3558	0	31932	
3559	0	31936	
3560	0	31960	
3561	0	31940	
3562	0	31930	
3563	0	31900	
3564	0	31904	
3565	0	31944	
3566	0	31976	
3567	0	31988	
3568	0	31956	
3569	0	31900	
3570	0	31844	
3571	0	31820	
3572	0	31768	
3573	0	31744	
3574	0	31732	
3575	0	31732	
3576	0	31760	
3577	0	31804	
3578	0	31864	
3579	0	31884	
3580	0	31896	
3581	0	31912	
3582	0	31924	
3583	0	31920	
3584	0	31956	
3585	0	31964	
3586	0	31960	
3587	0	32000	
3588	0	32008	
3589	0	31992	
3590	0	31976	
3591	0	31988	
3592	0	32000	
3593	0	32000	
3594	0	31984	
3595	0	31992	
3596	0	32010	
3597	0	32064	
3598	0	32096	
3599	0	32096	
3600	0	32072	
3601	0	32052	
3602	0	32032	
3603	0	31988	
3604	0	31944	
3605	0	31916	
3606	0	31892	
3607	0	31892	
3608	0	31896	
3609	0	31912	
3610	0	31892	
3611	0	31896	
3612	0	31916	
3613	0	31944	
3614	0	31936	
3615	0	31912	
3616	0	31904	
3617	0	31872	
3618	0	31852	
3619	0	31854	
3620	0	31880	
3621	0	31920	
3622	0	31944	
3623	0	31976	
3624	0	31972	
3625	0	31980	
3626	0	31984	
3627	0	32008	
3628	0	32032	
3629	0	32072	
3630	0	32100	
3631	0	32138	
3632	0	32140	
3633	0	32144	
3634	0	32164	
3635	0	32196	
3636	0	32228	
3637	0	32232	
3638	0	32240	
3639	0	32284	
3640	0	32312	
3641	0	32304	
3642	0	32284	
3643	0	32263	
3644	0	32272	
3645	0	32248	
3646	0	32236	
3647	0	32228	
3648	0	32216	
3649	0	32176	
3650	0	32112	
3651	0	32074	
3652	0	32064	
3653	0	32088	
3654	0	32122	
3655	0	32196	
3656	0	32216	
3657	0	32220	
3658	0	32244	
3659	0	32248	
3660	0	32240	
3661	0	32220	
3662	0	32188	
3663	0	32148	
3664	0	32108	
3665	0	32078	
3666	0	32040	
3667	0	31980	
3668	0	31916	
3669	0	31864	
3670	0	31848	
3671	0	31816	
3672	0	31840	
3673	0	31856	
3674	0	31880	
3675	0	31924	
3676	0	32000	
3677	0	32120	
3678	0	32240	
3679	0	32344	
3680	0	32416	
3681	0	32472	
3682	0	32520	
3683	0	32572	
3684	0	32624	
3685	0	32652	
3686	0	32672	
3687	0	32650	
3688	0	32564	
3689	0	32472	
3690	0	32424	
3691	0	32416	
3692	0	32414	
3693	0	32416	
3694	0	32440	
3695	0	32500	
3696	0	32524	
3697	0	32520	
3698	0	32516	
3699	0	32524	
3700	0	32508	
3701	0	32586	
3702	0	32732	
3703	0	32856	
3704	0	32960	
3705	0	33060	
3706	0	33136	
3707	0	33232	
3708	0	33336	
3709	0	33436	
3710	0	33520	
3711	0	33616	
3712	0	33696	
3713	0	33760	
3714	0	33824	
3715	0	33896	
3716	0	33976	
3717	0	34004	
3718	0	34000	
3719	0	33984	
3720	0	33932	
3721	0	33864	
3722	0	33776	
3723	0	33680	
3724	0	33576	
3725	0	33464	
3726	0	33380	
3727	0	33306	
3728	0	33224	
3729	0	33176	
3730	0	33112	
3731	0	33074	
3732	0	33032	
3733	0	33008	
3734	0	33004	
3735	0	32984	
3736	0	32952	
3737	0	32940	
3738	0	32936	
3739	0	32936	
3740	0	32900	
3741	0	32888	
3742	0	32876	
3743	0	32844	
3744	0	32832	
3745	0	32816	
3746	0	32802	
3747	0	32760	
3748	0	32728	
3749	0	32704	
3750	0	32688	
3751	0	32612	
3752	0	32544	
3753	0	32508	
3754	0	32428	
3755	0	32372	
3756	0	32352	
3757	0	32336	
3758	0	32316	
3759	0	32288	
3760	0	32292	
3761	0	32288	
3762	0	32252	
3763	0	32216	
3764	0	32180	
3765	0	32140	
3766	0	32096	
3767	0	32052	
3768	0	32024	
3769	0	32008	
3770	0	31960	
3771	0	31904	
3772	0	31840	
3773	0	31764	
3774	0	31684	
3775	0	31608	
3776	0	31600	
3777	0	31648	
3778	0	31692	
3779	0	31720	
3780	0	31724	
3781	0	31740	
3782	0	31788	
3783	0	31832	
3784	0	31836	
3785	0	31838	
3786	0	31856	
3787	0	31860	
3788	0	31860	
3789	0	31860	
3790	0	31830	
3791	0	31784	
3792	0	31744	
3793	0	31724	
3794	0	31712	
3795	0	31732	
3796	0	31744	
3797	0	31764	
3798	0	31804	
3799	0	31832	
3800	0	31856	
3801	0	31864	
3802	0	31872	
3803	0	31872	
3804	0	31840	
3805	0	31824	
3806	0	31826	
3807	0	31852	
3808	0	31840	
3809	0	31840	
3810	0	31856	
3811	0	31860	
3812	0	31888	
3813	0	31940	
3814	0	31948	
3815	0	31960	
3816	0	32004	
3817	0	32076	
3818	0	32136	
3819	0	32172	
3820	0	32218	
3821	0	32260	
3822	0	32308	
3823	0	32328	
3824	0	32336	
3825	0	32352	
3826	0	32364	
3827	0	32340	
3828	0	32348	
3829	0	32332	
3830	0	32328	
3831	0	32320	
3832	0	32320	
3833	0	32368	
3834	0	32448	
3835	0	32496	
3836	0	32512	
3837	0	32534	
3838	0	32528	
3839	0	32520	
3840	0	32572	
3841	0	32564	
3842	0	32528	
3843	0	32524	
3844	0	32536	
3845	0	32568	
3846	0	32756	
3847	0	33028	
3848	0	33336	
3849	0	33630	
3850	0	34004	
3851	0	34272	
3852	0	34440	
3853	0	34448	
3854	0	34432	
3855	0	34508	
3856	0	34796	
3857	0	35296	
3858	0	35964	
3859	0	36808	
3860	0	37844	
3861	0	39072	
3862	0	40408	
3863	0	41816	
3864	0	43280	
3865	0	44784	
3866	0	46384	
3867	0	47944	
3868	0	49408	
3869	0	50672	
3870	0	51744	
3871	0	52632	
3872	0	53616	
3873	0	54688	
3874	0	55540	
3875	0	56140	
3876	0	56120	
3877	0	54976	
3878	0	52732	
3879	0	49776	
3880	0	46448	
3881	0	42964	
3882	0	39656	
3883	0	36844	
3884	0	34724	
3885	0	33232	
3886	0	32204	
3887	0	31584	
3888	0	31224	
3889	0	31012	
3890	0	30860	
3891	0	30706	
3892	0	30548	
3893	0	30480	
3894	0	30524	
3895	0	30624	
3896	0	30788	
3897	0	30968	
3898	0	31104	
3899	0	31240	
3900	0	31364	
3901	0	31504	
3902	0	31628	
3903	0	31724	
3904	0	31776	
3905	0	31808	
3906	0	31784	
3907	0	31750	
3908	0	31696	
3909	0	31668	
3910	0	31628	
3911	0	31568	
3912	0	31498	
3913	0	31432	
3914	0	31408	
3915	0	31408	
3916	0	31392	
3917	0	31360	
3918	0	31368	
3919	0	31372	
3920	0	31372	
3921	0	31384	
3922	0	31420	
3923	0	31446	
3924	0	31416	
3925	0	31424	
3926	0	31440	
3927	0	31436	
3928	0	31424	
3929	0	31424	
3930	0	31392	
3931	0	31368	
3932	0	31356	
3933	0	31372	
3934	0	31348	
3935	0	31356	
3936	0	31360	
3937	0	31404	
3938	0	31450	
3939	0	31476	
3940	0	31508	
3941	0	31556	
3942	0	31592	
3943	0	31642	
3944	0	31676	
3945	0	31704	
3946	0	31732	
3947	0	31792	
3948	0	31840	
3949	0	31872	
3950	0	31880	
3951	0	31872	
3952	0	31884	
3953	0	31906	
3954	0	31940	
3955	0	31972	
3956	0	32016	
3957	0	32064	
3958	0	32052	
3959	0	32044	
3960	0	32040	
3961	0	32052	
3962	0	32084	
3963	0	32152	
3964	0	32216	
3965	0	32236	
3966	0	32256	
3967	0	32252	
3968	0	32240	
3969	0	32212	
3970	0	32184	
3971	0	32152	
3972	0	32128	
3973	0	32128	
3974	0	32176	
3975	0	32208	
3976	0	32228	
3977	0	32228	
3978	0	32260	
3979	0	32288	
3980	0	32288	
3981	0	32344	
3982	0	32424	
3983	0	32472	
3984	0	32492	
3985	0	32488	
3986	0	32524	
3987	0	32552	
3988	0	32548	
3989	0	32532	
3990	0	32544	
3991	0	32576	
3992	0	32576	
3993	0	32548	
3994	0	32560	
3995	0	32572	
3996	0	32600	
3997	0	32632	
3998	0	32668	
3999	0	32696	
4000	0	32734	
4001	0	32776	
4002	0	32828	
4003	0	32876	
4004	0	32916	
4005	0	32940	
4006	0	32964	
4007	0	32964	
4008	0	32972	
4009	0	32988	
4010	0	33008	
4011	0	33012	
4012	0	32980	
4013	0	32948	
4014	0	32960	
4015	0	32992	
4016	0	33024	
4017	0	33064	
4018	0	33100	
4019	0	33124	
4020	0	33140	
4021	0	33184	
4022	0	33216	
4023	0	33216	
4024	0	33208	
4025	0	33204	
4026	0	33184	
4027	0	33160	
4028	0	33164	
4029	0	33172	
4030	0	33168	
4031	0	33132	
4032	0	33092	
4033	0	33060	
4034	0	33068	
4035	0	33100	
4036	0	33132	
4037	0	33152	
4038	0	33188	
4039	0	33232	
4040	0	33264	
4041	0	33308	
4042	0	33356	
4043	0	33392	
4044	0	33384	
4045	0	33398	
4046	0	33404	
4047	0	33404	
4048	0	33380	
4049	0	33344	
4050	0	33328	
4051	0	33348	
4052	0	33372	
4053	0	33384	
4054	0	33396	
4055	0	33384	
4056	0	33404	
4057	0	33420	
4058	0	33408	
4059	0	33416	
4060	0	33464	
4061	0	33488	
4062	0	33496	
4063	0	33520	
4064	0	33548	
4065	0	33568	
4066	0	33560	
4067	0	33552	
4068	0	33560	
4069	0	33588	
4070	0	33596	
4071	0	33616	
4072	0	33640	
4073	0	33632	
4074	0	33632	
4075	0	33616	
4076	0	33628	
4077	0	33664	
4078	0	33704	
4079	0	33728	
4080	0	33776	
4081	0	33816	
4082	0	33852	
4083	0	33850	
4084	0	33840	
4085	0	33832	
4086	0	33818	
4087	0	33824	
4088	0	33848	
4089	0	33864	
4090	0	33884	
4091	0	33888	
4092	0	33904	
4093	0	33888	
4094	0	33872	
4095	0	33868	
4096	0	33864	
4097	0	33856	
4098	0	33856	
4099	0	33888	
4100	0	33912	
4101	0	33908	
4102	0	33888	
4103	0	33888	
4104	0	33908	
4105	0	33902	
4106	0	33884	
4107	0	33876	
4108	0	33888	
4109	0	33892	
4110	0	33876	
4111	0	33868	
4112	0	33856	
4113	0	33840	
4114	0	33816	
4115	0	33832	
4116	0	33832	
4117	0	33828	
4118	0	33848	
4119	0	33866	
4120	0	33888	
4121	0	33900	
4122	0	33916	
4123	0	33958	
4124	0	33976	
4125	0	33984	
4126	0	33972	
4127	0	33952	
4128	0	33944	
4129	0	33920	
4130	0	33888	
4131	0	33836	
4132	0	33788	
4133	0	33744	
4134	0	33716	
4135	0	33720	
4136	0	33728	
4137	0	33716	
4138	0	33692	
4139	0	33692	
4140	0	33692	
4141	0	33664	
4142	0	33668	
4143	0	33656	
4144	0	33612	
4145	0	33548	
4146	0	33496	
4147	0	33424	
4148	0	33308	
4149	0	33224	
4150	0	33164	
4151	0	33076	
4152	0	33004	
4153	0	32944	
4154	0	32888	
4155	0	32808	
4156	0	32736	
4157	0	32676	
4158	0	32636	
4159	0	32576	
4160	0	32512	
4161	0	32460	
4162	0	32402	
4163	0	32316	
4164	0	32220	
4165	0	32122	
4166	0	32036	
4167	0	31924	
4168	0	31864	
4169	0	31768	
4170	0	31664	
4171	0	31592	
4172	0	31514	
4173	0	31456	
4174	0	31368	
4175	0	31272	
4176	0	31212	
4177	0	31164	
4178	0	31148	
4179	0	31120	
4180	0	31088	
4181	0	31068	
4182	0	31036	
4183	0	31010	
4184	0	30956	
4185	0	30912	
4186	0	30848	
4187	0	30820	
4188	0	30748	
4189	0	30704	
4190	0	30652	
4191	0	30608	
4192	0	30560	
4193	0	30528	
4194	0	30484	
4195	0	30448	
4196	0	30468	
4197	0	30472	
4198	0	30468	
4199	0	30448	
4200	0	30460	
4201	0	30464	
4202	0	30488	
4203	0	30480	
4204	0	30464	
4205	0	30432	
4206	0	30404	
4207	0	30376	
4208	0	30356	
4209	0	30304	
4210	0	30256	
4211	0	30232	
4212	0	30232	
4213	0	30220	
4214	0	30232	
4215	0	30248	
4216	0	30244	
4217	0	30256	
4218	0	30292	
4219	0	30340	
4220	0	30372	
4221	0	30400	
4222	0	30448	
4223	0	30500	
4224	0	30528	
4225	0	30544	
4226	0	30560	
4227	0	30548	
4228	0	30528	
4229	0	30528	
4230	0	30528	
4231	0	30508	
4232	0	30536	
4233	0	30532	
4234	0	30552	
4235	0	30572	
4236	0	30600	
4237	0	30624	
4238	0	30648	
4239	0	30684	
4240	0	30712	
4241	0	30744	
4242	0	30776	
4243	0	30824	
4244	0	30864	
4245	0	30872	
4246	0	30898	
4247	0	30912	
4248	0	30929	
4249	0	30950	
4250	0	30944	
4251	0	30984	
4252	0	31028	
4253	0	31028	
4254	0	30996	
4255	0	31008	
4256	0	31064	
4257	0	31108	
4258	0	31168	
4259	0	31248	
4260	0	31304	
4261	0	31352	
4262	0	31388	
4263	0	31424	
4264	0	31468	
4265	0	31470	
4266	0	31460	
4267	0	31476	
4268	0	31464	
4269	0	31464	
4270	0	31448	
4271	0	31428	
4272	0	31404	
4273	0	31400	
4274	0	31400	
4275	0	31416	
4276	0	31380	
4277	0	31364	
4278	0	31356	
4279	0	31360	
4280	0	31396	
4281	0	31428	
4282	0	31444	
4283	0	31468	
4284	0	31476	
4285	0	31488	
4286	0	31480	
4287	0	31460	
4288	0	31434	
4289	0	31432	
4290	0	31412	
4291	0	31388	
4292	0	31368	
4293	0	31352	
4294	0	31338	
4295	0	31368	
4296	0	31404	
4297	0	31436	
4298	0	31440	
4299	0	31476	
4300	0	31488	
4301	0	31488	
4302	0	31490	
4303	0	31504	
4304	0	31520	
4305	0	31520	
4306	0	31520	
4307	0	31516	
4308	0	31496	
4309	0	31508	
4310	0	31492	
4311	0	31468	
4312	0	31452	
4313	0	31424	
4314	0	31420	
4315	0	31424	
4316	0	31424	
4317	0	31400	
4318	0	31416	
4319	0	31432	
4320	0	31436	
4321	0	31444	
4322	0	31424	
4323	0	31408	
4324	0	31392	
4325	0	31404	
4326	0	31392	
4327	0	31344	
4328	0	31336	
4329	0	31332	
4330	0	31304	
4331	0	31280	
4332	0	31256	
4333	0	31248	
4334	0	31260	
4335	0	31268	
4336	0	31296	
4337	0	31308	
4338	0	31280	
4339	0	31296	
4340	0	31348	
4341	0	31380	
4342	0	31416	
4343	0	31428	
4344	0	31424	
4345	0	31400	
4346	0	31384	
4347	0	31352	
4348	0	31360	
4349	0	31358	
4350	0	31364	
4351	0	31356	
4352	0	31312	
4353	0	31272	
4354	0	31260	
4355	0	31280	
4356	0	31296	
4357	0	31304	
4358	0	31320	
4359	0	31360	
4360	0	31396	
4361	0	31416	
4362	0	31428	
4363	0	31460	
4364	0	31492	
4365	0	31540	
4366	0	31520	
4367	0	31496	
4368	0	31492	
4369	0	31488	
4370	0	31476	
4371	0	31484	
4372	0	31472	
4373	0	31476	
4374	0	31490	
4375	0	31504	
4376	0	31536	
4377	0	31576	
4378	0	31612	
4379	0	31628	
4380	0	31648	
4381	0	31660	
4382	0	31664	
4383	0	31666	
4384	0	31680	
4385	0	31696	
4386	0	31728	
4387	0	31772	
4388	0	31772	
4389	0	31760	
4390	0	31756	
4391	0	31768	
4392	0	31760	
4393	0	31756	
4394	0	31784	
4395	0	31808	
4396	0	31860	
4397	0	31868	
4398	0	31880	
4399	0	31904	
4400	0	31932	
4401	0	31938	
4402	0	31960	
4403	0	31998	
4404	0	32008	
4405	0	32010	
4406	0	32004	
4407	0	31976	
4408	0	31952	
4409	0	31920	
4410	0	31914	
4411	0	31936	
4412	0	31968	
4413	0	31988	
4414	0	32004	
4415	0	32032	
4416	0	32028	
4417	0	32008	
4418	0	32052	
4419	0	32108	
4420	0	32112	
4421	0	32128	
4422	0	32128	
4423	0	32138	
4424	0	32162	
4425	0	32180	
4426	0	32192	
4427	0	32216	
4428	0	32200	
4429	0	32184	
4430	0	32164	
4431	0	32152	
4432	0	32116	
4433	0	32084	
4434	0	32052	
4435	0	32064	
4436	0	32072	
4437	0	32108	
4438	0	32132	
4439	0	32140	
4440	0	32148	
4441	0	32176	
4442	0	32208	
4443	0	32252	
4444	0	32272	
4445	0	32276	
4446	0	32304	
4447	0	32304	
4448	0	32280	
4449	0	32280	
4450	0	32284	
4451	0	32280	
4452	0	32268	
4453	0	32256	
4454	0	32252	
4455	0	32264	
4456	0	32288	
4457	0	32314	
4458	0	32344	
4459	0	32368	
4460	0	32384	
4461	0	32412	
4462	0	32444	
4463	0	32476	
4464	0	32470	
4465	0	32488	
4466	0	32492	
4467	0	32488	
4468	0	32488	
4469	0	32496	
4470	0	32504	
4471	0	32512	
4472	0	32512	
4473	0	32512	
4474	0	32488	
4475	0	32480	
4476	0	32496	
4477	0	32512	
4478	0	32518	
4479	0	32524	
4480	0	32552	
4481	0	32568	
4482	0	32600	
4483	0	32644	
4484	0	32652	
4485	0	32642	
4486	0	32648	
4487	0	32664	
4488	0	32660	
4489	0	32632	
4490	0	32628	
4491	0	32584	
4492	0	32572	
4493	0	32540	
4494	0	32524	
4495	0	32528	
4496	0	32512	
4497	0	32548	
4498	0	32564	
4499	0	32560	
4500	0	32604	
4501	0	32612	
4502	0	32644	
4503	0	32664	
4504	0	32666	
4505	0	32664	
4506	0	32688	
4507	0	32712	
4508	0	32704	
4509	0	32696	
4510	0	32696	
4511	0	32668	
4512	0	32640	
4513	0	32624	
4514	0	32620	
4515	0	32648	
4516	0	32646	
4517	0	32668	
4518	0	32676	
4519	0	32692	
4520	0	32712	
4521	0	32724	
4522	0	32748	
4523	0	32784	
4524	0	32804	
4525	0	32788	
4526	0	32800	
4527	0	32792	
4528	0	32752	
4529	0	32754	
4530	0	32772	
4531	0	32776	
4532	0	32760	
4533	0	32728	
4534	0	32716	
4535	0	32712	
4536	0	32722	
4537	0	32736	
4538	0	32776	
4539	0	32820	
4540	0	32844	
4541	0	32852	
4542	0	32868	
4543	0	32864	
4544	0	32836	
4545	0	32832	
4546	0	32804	
4547	0	32776	
4548	0	32748	
4549	0	32764	
4550	0	32792	
4551	0	32808	
4552	0	32824	
4553	0	32848	
4554	0	32888	
4555	0	32912	
4556	0	32960	
4557	0	33008	
4558	0	33056	
4559	0	33116	
4560	0	33152	
4561	0	33200	
4562	0	33248	
4563	0	33264	
4564	0	33250	
4565	0	33232	
4566	0	33220	
4567	0	33220	
4568	0	33220	
4569	0	33224	
4570	0	33236	
4571	0	33228	
4572	0	33184	
4573	0	33140	
4574	0	33144	
4575	0	33184	
4576	0	33272	
4577	0	33365	
4578	0	33522	
4579	0	33684	
4580	0	33820	
4581	0	33936	
4582	0	34048	
4583	0	34136	
4584	0	34236	
4585	0	34328	
4586	0	34384	
4587	0	34384	
4588	0	34360	
4589	0	34376	
4590	0	34416	
4591	0	34445	
4592	0	34440	
4593	0	34392	
4594	0	34348	
4595	0	34272	
4596	0	34160	
4597	0	34064	
4598	0	33952	
4599	0	33864	
4600	0	33794	
4601	0	33736	
4602	0	33688	
4603	0	33612	
4604	0	33528	
4605	0	33440	
4606	0	33368	
4607	0	33292	
4608	0	33232	
4609	0	33172	
4610	0	33116	
4611	0	33058	
4612	0	33032	
4613	0	33000	
4614	0	32984	
4615	0	32976	
4616	0	32960	
4617	0	32974	
4618	0	32984	
4619	0	32952	
4620	0	32960	
4621	0	32984	
4622	0	33016	
4623	0	33080	
4624	0	33088	
4625	0	33052	
4626	0	33032	
4627	0	33008	
4628	0	32980	
4629	0	32948	
4630	0	32904	
4631	0	32860	
4632	0	32800	
4633	0	32752	
4634	0	32684	
4635	0	32632	
4636	0	32572	
4637	0	32536	
4638	0	32508	
4639	0	32492	
4640	0	32448	
4641	0	32416	
4642	0	32416	
4643	0	32412	
4644	0	32412	
4645	0	32416	
4646	0	32452	
4647	0	32452	
4648	0	32436	
4649	0	32384	
4650	0	32344	
4651	0	32316	
4652	0	32272	
4653	0	32226	
4654	0	32196	
4655	0	32204	
4656	0	32232	
4657	0	32256	
4658	0	32296	
4659	0	32328	
4660	0	32348	
4661	0	32372	
4662	0	32400	
4663	0	32432	
4664	0	32456	
4665	0	32452	
4666	0	32424	
4667	0	32392	
4668	0	32396	
4669	0	32384	
4670	0	32368	
4671	0	32384	
4672	0	32356	
4673	0	32340	
4674	0	32324	
4675	0	32336	
4676	0	32344	
4677	0	32336	
4678	0	32348	
4679	0	32376	
4680	0	32392	
4681	0	32410	
4682	0	32420	
4683	0	32452	
4684	0	32496	
4685	0	32524	
4686	0	32524	
4687	0	32500	
4688	0	32480	
4689	0	32472	
4690	0	32456	
4691	0	32448	
4692	0	32432	
4693	0	32416	
4694	0	32410	
4695	0	32420	
4696	0	32440	
4697	0	32472	
4698	0	32496	
4699	0	32528	
4700	0	32540	
4701	0	32548	
4702	0	32564	
4703	0	32596	
4704	0	32620	
4705	0	32640	
4706	0	32656	
4707	0	32708	
4708	0	32788	
4709	0	32848	
4710	0	32880	
4711	0	32904	
4712	0	32922	
4713	0	32908	
4714	0	32840	
4715	0	32784	
4716	0	32740	
4717	0	32700	
4718	0	32688	
4719	0	32744	
4720	0	32940	
4721	0	33228	
4722	0	33528	
4723	0	33856	
4724	0	34136	
4725	0	34352	
4726	0	34492	
4727	0	34528	
4728	0	34580	
4729	0	34760	
4730	0	35106	
4731	0	35608	
4732	0	36224	
4733	0	37044	
4734	0	38064	
4735	0	39280	
4736	0	40520	
4737	0	41800	
4738	0	43144	
4739	0	44616	
4740	0	46096	
4741	0	47564	
4742	0	48864	
4743	0	50024	
4744	0	51084	
4745	0	52088	
4746	0	53264	
4747	0	54324	
4748	0	55136	
4749	0	55512	
4750	0	54960	
4751	0	53288	
4752	0	50704	
4753	0	47536	
4754	0	44132	
4755	0	40764	
4756	0	37740	
4757	0	35360	
4758	0	33680	
4759	0	32578	
4760	0	31884	
4761	0	31498	
4762	0	31320	
4763	0	31232	
4764	0	31164	
4765	0	31120	
4766	0	31108	
4767	0	31148	
4768	0	31216	
4769	0	31312	
4770	0	31400	
4771	0	31468	
4772	0	31524	
4773	0	31612	
4774	0	31732	
4775	0	31872	
4776	0	31984	
4777	0	32056	
4778	0	32116	
4779	0	32152	
4780	0	32140	
4781	0	32108	
4782	0	32080	
4783	0	32060	
4784	0	32008	
4785	0	31964	
4786	0	31924	
4787	0	31856	
4788	0	31820	
4789	0	31808	
4790	0	31808	
4791	0	31776	
4792	0	31730	
4793	0	31696	
4794	0	31688	
4795	0	31690	
4796	0	31692	
4797	0	31680	
4798	0	31688	
4799	0	31708	
4800	0	31732	
4801	0	31752	
4802	0	31744	
4803	0	31788	
4804	0	31820	
4805	0	31850	
4806	0	31856	
4807	0	31844	
4808	0	31840	
4809	0	31852	
4810	0	31828	
4811	0	31800	
4812	0	31780	
4813	0	31784	
4814	0	31780	
4815	0	31784	
4816	0	31800	
4817	0	31822	
4818	0	31818	
4819	0	31876	
4820	0	31936	
4821	0	31968	
4822	0	32002	
4823	0	32034	
4824	0	32052	
4825	0	32084	
4826	0	32088	
4827	0	32090	
4828	0	32072	
4829	0	32088	
4830	0	32112	
4831	0	32104	
4832	0	32112	
4833	0	32120	
4834	0	32140	
4835	0	32156	
4836	0	32188	
4837	0	32228	
4838	0	32240	
4839	0	32264	
4840	0	32276	
4841	0	32340	
4842	0	32396	
4843	0	32432	
4844	0	32460	
4845	0	32464	
4846	0	32472	
4847	0	32448	
4848	0	32436	
4849	0	32436	
4850	0	32456	
4851	0	32456	
4852	0	32464	
4853	0	32480	
4854	0	32464	
4855	0	32460	
4856	0	32480	
4857	0	32508	
4858	0	32556	
4859	0	32584	
4860	0	32616	
4861	0	32640	
4862	0	32660	
4863	0	32700	
4864	0	32724	
4865	0	32752	
4866	0	32752	
4867	0	32744	
4868	0	32736	
4869	0	32744	
4870	0	32748	
4871	0	32748	
4872	0	32736	
4873	0	32724	
4874	0	32736	
4875	0	32736	
4876	0	32776	
4877	0	32800	
4878	0	32824	
4879	0	32844	
4880	0	32888	
4881	0	32912	
4882	0	32928	
4883	0	32952	
4884	0	32996	
4885	0	33016	
4886	0	33036	
4887	0	33018	
4888	0	33012	
4889	0	33008	
4890	0	33026	
4891	0	33048	
4892	0	33050	
4893	0	33056	
4894	0	33056	
4895	0	33056	
4896	0	33092	
4897	0	33120	
4898	0	33148	
4899	0	33164	
4900	0	33188	
4901	0	33208	
4902	0	33220	
4903	0	33256	
4904	0	33260	
4905	0	33260	
4906	0	33292	
4907	0	33276	
4908	0	33276	
4909	0	33300	
4910	0	33296	
4911	0	33312	
4912	0	33348	
4913	0	33344	
4914	0	33336	
4915	0	33336	
4916	0	33360	
4917	0	33376	
4918	0	33396	
4919	0	33400	
4920	0	33440	
4921	0	33452	
4922	0	33458	
4923	0	33464	
4924	0	33508	
4925	0	33524	
4926	0	33532	
4927	0	33516	
4928	0	33520	
4929	0	33508	
4930	0	33488	
4931	0	33460	
4932	0	33448	
4933	0	33434	
4934	0	33416	
4935	0	33444	
4936	0	33480	
4937	0	33504	
4938	0	33508	
4939	0	33528	
4940	0	33544	
4941	0	33588	
4942	0	33618	
4943	0	33640	
4944	0	33676	
4945	0	33704	
4946	0	33676	
4947	0	33656	
4948	0	33652	
4949	0	33656	
4950	0	33632	
4951	0	33620	
4952	0	33608	
4953	0	33614	
4954	0	33624	
4955	0	33648	
4956	0	33664	
4957	0	33676	
4958	0	33720	
4959	0	33744	
4960	0	33744	
4961	0	33744	
4962	0	33772	
4963	0	33784	
4964	0	33784	
4965	0	33768	
4966	0	33752	
4967	0	33728	
4968	0	33716	
4969	0	33704	
4970	0	33712	
4971	0	33690	
4972	0	33644	
4973	0	33624	
4974	0	33600	
4975	0	33604	
4976	0	33600	
4977	0	33600	
4978	0	33614	
4979	0	33596	
4980	0	33572	
4981	0	33596	
4982	0	33604	
4983	0	33596	
4984	0	33592	
4985	0	33580	
4986	0	33568	
4987	0	33560	
4988	0	33548	
4989	0	33536	
4990	0	33524	
4991	0	33472	
4992	0	33460	
4993	0	33440	
4994	0	33392	
4995	0	33380	
4996	0	33400	
4997	0	33420	
4998	0	33452	
4999	0	33496	
5000	0	33504	
5001	0	33504	
5002	0	33516	
5003	0	33512	
5004	0	33520	
5005	0	33528	
5006	0	33544	
5007	0	33548	
5008	0	33524	
5009	0	33512	
5010	0	33504	
5011	0	33484	
5012	0	33460	
5013	0	33432	
5014	0	33408	
5015	0	33380	
5016	0	33408	
5017	0	33400	
5018	0	33376	
5019	0	33364	
5020	0	33352	
5021	0	33352	
5022	0	33356	
5023	0	33344	
5024	0	33328	
5025	0	33300	
5026	0	33256	
5027	0	33200	
5028	0	33140	
5029	0	33072	
5030	0	33012	
5031	0	32928	
5032	0	32828	
5033	0	32752	
5034	0	32696	
5035	0	32668	
5036	0	32616	
5037	0	32560	
5038	0	32516	
5039	0	32472	
5040	0	32412	
5041	0	32376	
5042	0	32312	
5043	0	32224	
5044	0	32172	
5045	0	32112	
5046	0	32044	
5047	0	31980	
5048	0	31900	
5049	0	31820	
5050	0	31760	
5051	0	31680	
5052	0	31596	
5053	0	31512	
5054	0	31444	
5055	0	31392	
5056	0	31336	
5057	0	31288	
5058	0	31264	
5059	0	31220	
5060	0	31188	
5061	0	31168	
5062	0	31112	
5063	0	31092	
5064	0	31056	
5065	0	30990	
5066	0	30956	
5067	0	30946	
5068	0	30908	
5069	0	30868	
5070	0	30820	
5071	0	30784	
5072	0	30760	
5073	0	30728	
5074	0	30720	
5075	0	30732	
5076	0	30756	
5077	0	30754	
5078	0	30788	
5079	0	30820	
5080	0	30824	
5081	0	30836	
5082	0	30840	
5083	0	30844	
5084	0	30876	
5085	0	30892	
5086	0	30892	
5087	0	30884	
5088	0	30864	
5089	0	30860	
5090	0	30864	
5091	0	30884	
5092	0	30872	
5093	0	30880	
5094	0	30898	
5095	0	30912	
5096	0	30920	
5097	0	30928	
5098	0	30968	
5099	0	30998	
5100	0	31032	
5101	0	31072	
5102	0	31096	
5103	0	31108	
5104	0	31128	
5105	0	31148	
5106	0	31204	
5107	0	31216	
5108	0	31200	
5109	0	31192	
5110	0	31212	
5111	0	31224	
5112	0	31220	
5113	0	31248	
5114	0	31258	
5115	0	31268	
5116	0	31280	
5117	0	31312	
5118	0	31332	
5119	0	31348	
5120	0	31368	
5121	0	31400	
5122	0	31404	
5123	0	31416	
5124	0	31440	
5125	0	31484	
5126	0	31508	
5127	0	31480	
5128	0	31480	
5129	0	31496	
5130	0	31488	
5131	0	31464	
5132	0	31460	
5133	0	31464	
5134	0	31474	
5135	0	31484	
5136	0	31492	
5137	0	31498	
5138	0	31520	
5139	0	31536	
5140	0	31568	
5141	0	31576	
5142	0	31584	
5143	0	31624	
5144	0	31680	
5145	0	31712	
5146	0	31704	
5147	0	31692	
5148	0	31664	
5149	0	31652	
5150	0	31638	
5151	0	31636	
5152	0	31644	
5153	0	31640	
5154	0	31632	
5155	0	31660	
5156	0	31684	
5157	0	31712	
5158	0	31720	
5159	0	31728	
5160	0	31724	
5161	0	31746	
5162	0	31780	
5163	0	31802	
5164	0	31810	
5165	0	31824	
5166	0	31832	
5167	0	31836	
5168	0	31840	
5169	0	31818	
5170	0	31816	
5171	0	31796	
5172	0	31752	
5173	0	31728	
5174	0	31720	
5175	0	31744	
5176	0	31752	
5177	0	31740	
5178	0	31776	
5179	0	31812	
5180	0	31824	
5181	0	31856	
5182	0	31848	
5183	0	31836	
5184	0	31852	
5185	0	31868	
5186	0	31892	
5187	0	31872	
5188	0	31836	
5189	0	31792	
5190	0	31772	
5191	0	31740	
5192	0	31700	
5193	0	31680	
5194	0	31664	
5195	0	31660	
5196	0	31676	
5197	0	31672	
5198	0	31696	
5199	0	31708	
5200	0	31728	
5201	0	31760	
5202	0	31776	
5203	0	31768	
5204	0	31728	
5205	0	31704	
5206	0	31680	
5207	0	31656	
5208	0	31672	
5209	0	31664	
5210	0	31622	
5211	0	31588	
5212	0	31564	
5213	0	31532	
5214	0	31520	
5215	0	31512	
5216	0	31516	
5217	0	31524	
5218	0	31560	
5219	0	31602	
5220	0	31656	
5221	0	31672	
5222	0	31648	
5223	0	31668	
5224	0	31688	
5225	0	31684	
5226	0	31672	
5227	0	31684	
5228	0	31688	
5229	0	31684	
5230	0	31660	
5231	0	31680	
5232	0	31688	
5233	0	31660	
5234	0	31652	
5235	0	31652	
5236	0	31668	
5237	0	31680	
5238	0	31708	
5239	0	31752	
5240	0	31784	
5241	0	31820	
5242	0	31872	
5243	0	31900	
5244	0	31918	
5245	0	31936	
5246	0	31958	
5247	0	31952	
5248	0	31944	
5249	0	31928	
5250	0	31922	
5251	0	31928	
5252	0	31924	
5253	0	31914	
5254	0	31908	
5255	0	31912	
5256	0	31920	
5257	0	31936	
5258	0	31952	
5259	0	31996	
5260	0	32000	
5261	0	32016	
5262	0	32064	
5263	0	32116	
5264	0	32140	
5265	0	32156	
5266	0	32168	
5267	0	32184	
5268	0	32196	
5269	0	32188	
5270	0	32168	
5271	0	32140	
5272	0	32128	
5273	0	32118	
5274	0	32112	
5275	0	32100	
5276	0	32104	
5277	0	32092	
5278	0	32096	
5279	0	32120	
5280	0	32144	
5281	0	32168	
5282	0	32192	
5283	0	32192	
5284	0	32208	
5285	0	32208	
5286	0	32216	
5287	0	32216	
5288	0	32212	
5289	0	32204	
5290	0	32188	
5291	0	32184	
5292	0	32188	
5293	0	32176	
5294	0	32164	
5295	0	32148	
5296	0	32148	
5297	0	32192	
5298	0	32232	
5299	0	32258	
5300	0	32274	
5301	0	32284	
5302	0	32320	
5303	0	32312	
5304	0	32324	
5305	0	32356	
5306	0	32360	
5307	0	32348	
5308	0	32344	
5309	0	32368	
5310	0	32372	
5311	0	32372	
5312	0	32356	
5313	0	32316	
5314	0	32298	
5315	0	32300	
5316	0	32292	
5317	0	32316	
5318	0	32336	
5319	0	32366	
5320	0	32380	
5321	0	32410	
5322	0	32440	
5323	0	32474	
5324	0	32484	
5325	0	32504	
5326	0	32540	
5327	0	32540	
5328	0	32532	
5329	0	32528	
5330	0	32532	
5331	0	32496	
5332	0	32460	
5333	0	32432	
5334	0	32424	
5335	0	32416	
5336	0	32420	
5337	0	32440	
5338	0	32442	
5339	0	32480	
5340	0	32496	
5341	0	32524	
5342	0	32568	
5343	0	32612	
5344	0	32668	
5345	0	32712	
5346	0	32732	
5347	0	32744	
5348	0	32736	
5349	0	32736	
5350	0	32728	
5351	0	32728	
5352	0	32720	
5353	0	32696	
5354	0	32656	
5355	0	32620	
5356	0	32600	
5357	0	32584	
5358	0	32588	
5359	0	32620	
5360	0	32656	
5361	0	32700	
5362	0	32712	
5363	0	32736	
5364	0	32746	
5365	0	32784	
5366	0	32800	
5367	0	32788	
5368	0	32776	
5369	0	32780	
5370	0	32780	
5371	0	32804	
5372	0	32776	
5373	0	32780	
5374	0	32776	
5375	0	32772	
5376	0	32788	
5377	0	32820	
5378	0	32816	
5379	0	32846	
5380	0	32900	
5381	0	32944	
5382	0	32986	
5383	0	33040	
5384	0	33044	
5385	0	33044	
5386	0	33048	
5387	0	33036	
5388	0	33040	
5389	0	33028	
5390	0	33020	
5391	0	33020	
5392	0	33016	
5393	0	33012	
5394	0	33008	
5395	0	32984	
5396	0	32952	
5397	0	32908	
5398	0	32868	
5399	0	32852	
5400	0	32812	
5401	0	32788	
5402	0	32796	
5403	0	32816	
5404	0	32824	
5405	0	32828	
5406	0	32832	
5407	0	32808	
5408	0	32776	
5409	0	32776	
5410	0	32754	
5411	0	32740	
5412	0	32736	
5413	0	32744	
5414	0	32732	
5415	0	32704	
5416	0	32684	
5417	0	32704	
5418	0	32712	
5419	0	32736	
5420	0	32756	
5421	0	32788	
5422	0	32836	
5423	0	32844	
5424	0	32872	
5425	0	32916	
5426	0	32928	
5427	0	32916	
5428	0	32884	
5429	0	32884	
5430	0	32860	
5431	0	32832	
5432	0	32820	
5433	0	32778	
5434	0	32748	
5435	0	32736	
5436	0	32772	
5437	0	32764	
5438	0	32768	
5439	0	32776	
5440	0	32784	
5441	0	32800	
5442	0	32820	
5443	0	32840	
5444	0	32848	
5445	0	32872	
5446	0	32866	
5447	0	32872	
5448	0	32864	
5449	0	32860	
5450	0	32864	
5451	0	32880	
5452	0	32860	
5453	0	32868	
5454	0	32872	
5455	0	32840	
5456	0	32812	
5457	0	32826	
5458	0	32836	
5459	0	32852	
5460	0	32840	
5461	0	32832	
5462	0	32832	
5463	0	32844	
5464	0	32856	
5465	0	32900	
5466	0	32956	
5467	0	32970	
5468	0	32940	
5469	0	32912	
5470	0	32900	
5471	0	32896	
5472	0	32892	
5473	0	32888	
5474	0	32884	
5475	0	32896	
5476	0	32922	
5477	0	32928	
5478	0	32940	
5479	0	32960	
5480	0	32988	
5481	0	33012	
5482	0	33044	
5483	0	33056	
5484	0	33056	
5485	0	33064	
5486	0	33060	
5487	0	33104	
5488	0	33120	
5489	0	33128	
5490	0	33148	
5491	0	33184	
5492	0	33190	
5493	0	33192	
5494	0	33208	
5495	0	33240	
5496	0	33304	
5497	0	33352	
5498	0	33392	
5499	0	33400	
5500	0	33390	
5501	0	33400	
5502	0	33420	
5503	0	33424	
5504	0	33420	
5505	0	33408	
5506	0	33400	
5507	0	33388	
5508	0	33368	
5509	0	33380	
5510	0	33380	
5511	0	33340	
5512	0	33308	
5513	0	33312	
5514	0	33328	
5515	0	33412	
5516	0	33524	
5517	0	33648	
5518	0	33764	
5519	0	33856	
5520	0	33968	
5521	0	34106	
5522	0	34208	
5523	0	34284	
5524	0	34352	
5525	0	34428	
5526	0	34476	
5527	0	34448	
5528	0	34456	
5529	0	34480	
5530	0	34484	
5531	0	34458	
5532	0	34432	
5533	0	34376	
5534	0	34320	
5535	0	34240	
5536	0	34160	
5537	0	34104	
5538	0	34056	
5539	0	34000	
5540	0	33908	
5541	0	33812	
5542	0	33720	
5543	0	33636	
5544	0	33560	
5545	0	33488	
5546	0	33444	
5547	0	33372	
5548	0	33316	
5549	0	33284	
5550	0	33256	
5551	0	33212	
5552	0	33192	
5553	0	33146	
5554	0	33120	
5555	0	33088	
5556	0	33056	
5557	0	33034	
5558	0	33032	
5559	0	33012	
5560	0	33016	
5561	0	33020	
5562	0	33024	
5563	0	32992	
5564	0	32952	
5565	0	32928	
5566	0	32912	
5567	0	32912	
5568	0	32904	
5569	0	32888	
5570	0	32832	
5571	0	32784	
5572	0	32764	
5573	0	32680	
5574	0	32608	
5575	0	32528	
5576	0	32452	
5577	0	32414	
5578	0	32384	
5579	0	32368	
5580	0	32356	
5581	0	32336	
5582	0	32312	
5583	0	32312	
5584	0	32320	
5585	0	32340	
5586	0	32360	
5587	0	32352	
5588	0	32328	
5589	0	32288	
5590	0	32244	
5591	0	32200	
5592	0	32148	
5593	0	32128	
5594	0	32154	
5595	0	32176	
5596	0	32180	
5597	0	32180	
5598	0	32192	
5599	0	32224	
5600	0	32284	
5601	0	32316	
5602	0	32352	
5603	0	32384	
5604	0	32428	
5605	0	32462	
5606	0	32464	
5607	0	32448	
5608	0	32412	
5609	0	32372	
5610	0	32368	
5611	0	32380	
5612	0	32344	
5613	0	32344	
5614	0	32348	
5615	0	32348	
5616	0	32352	
5617	0	32340	
5618	0	32360	
5619	0	32360	
5620	0	32356	
5621	0	32360	
5622	0	32372	
5623	0	32400	
5624	0	32440	
5625	0	32456	
5626	0	32452	
5627	0	32448	
5628	0	32474	
5629	0	32468	
5630	0	32460	
5631	0	32456	
5632	0	32448	
5633	0	32424	
5634	0	32416	
5635	0	32416	
5636	0	32408	
5637	0	32428	
5638	0	32448	
5639	0	32512	
5640	0	32560	
5641	0	32584	
5642	0	32592	
5643	0	32628	
5644	0	32688	
5645	0	32740	
5646	0	32802	
5647	0	32876	
5648	0	32928	
5649	0	32972	
5650	0	32992	
5651	0	32992	
5652	0	32968	
5653	0	32912	
5654	0	32792	
5655	0	32696	
5656	0	32642	
5657	0	32656	
5658	0	32768	
5659	0	33008	
5660	0	33282	
5661	0	33528	
5662	0	33796	
5663	0	34028	
5664	0	34200	
5665	0	34280	
5666	0	34336	
5667	0	34428	
5668	0	34644	
5669	0	35024	
5670	0	35540	
5671	0	36160	
5672	0	36960	
5673	0	37872	
5674	0	39056	
5675	0	40308	
5676	0	41570	
5677	0	42896	
5678	0	44308	
5679	0	45796	
5680	0	47264	
5681	0	48596	
5682	0	49684	
5683	0	50628	
5684	0	51580	
5685	0	52580	
5686	0	53552	
5687	0	54256	
5688	0	54440	
5689	0	53752	
5690	0	52008	
5691	0	49400	
5692	0	46348	
5693	0	43144	
5694	0	39968	
5695	0	37040	
5696	0	34666	
5697	0	33004	
5698	0	32008	
5699	0	31396	
5700	0	31012	
5701	0	30756	
5702	0	30594	
5703	0	30516	
5704	0	30584	
5705	0	30726	
5706	0	30868	
5707	0	31028	
5708	0	31128	
5709	0	31236	
5710	0	31356	
5711	0	31448	
5712	0	31520	
5713	0	31612	
5714	0	31724	
5715	0	31808	
5716	0	31844	
5717	0	31856	
5718	0	31856	
5719	0	31884	
5720	0	31892	
5721	0	31896	
5722	0	31904	
5723	0	31896	
5724	0	31876	
5725	0	31844	
5726	0	31824	
5727	0	31816	
5728	0	31778	
5729	0	31720	
5730	0	31672	
5731	0	31632	
5732	0	31640	
5733	0	31616	
5734	0	31584	
5735	0	31604	
5736	0	31636	
5737	0	31674	
5738	0	31680	
5739	0	31692	
5740	0	31712	
5741	0	31720	
5742	0	31708	
5743	0	31716	
5744	0	31708	
5745	0	31728	
5746	0	31736	
5747	0	31729	
5748	0	31736	
5749	0	31784	
5750	0	31825	
5751	0	31840	
5752	0	31828	
5753	0	31828	
5754	0	31828	
5755	0	31848	
5756	0	31912	
5757	0	31916	
5758	0	31912	
5759	0	31932	
5760	0	31952	
5761	0	31996	
5762	0	32012	
5763	0	32020	
5764	0	32056	
5765	0	32096	
5766	0	32116	
5767	0	32120	
5768	0	32072	
5769	0	32048	
5770	0	32048	
5771	0	32076	
5772	0	32080	
5773	0	32076	
5774	0	32064	
5775	0	32096	
5776	0	32116	
5777	0	32128	
5778	0	32170	
5779	0	32224	
5780	0	32240	
5781	0	32248	
5782	0	32228	
5783	0	32208	
5784	0	32208	
5785	0	32224	
5786	0	32236	
5787	0	32216	
5788	0	32200	
5789	0	32180	
5790	0	32192	
5791	0	32212	
5792	0	32232	
5793	0	32256	
5794	0	32296	
5795	0	32332	
5796	0	32372	
5797	0	32448	
5798	0	32484	
5799	0	32468	
5800	0	32460	
5801	0	32464	
5802	0	32508	
5803	0	32600	
5804	0	32652	
5805	0	32684	
5806	0	32704	
5807	0	32748	
5808	0	32788	
5809	0	32816	
5810	0	32848	
5811	0	32848	
5812	0	32840	
5813	0	32808	
5814	0	32748	
5815	0	32716	
5816	0	32700	
5817	0	32684	
5818	0	32696	
5819	0	32732	
5820	0	32752	
5821	0	32784	
5822	0	32800	
5823	0	32848	
5824	0	32904	
5825	0	32948	
5826	0	33004	
5827	0	33044	
5828	0	33066	
5829	0	33036	
5830	0	33040	
5831	0	33004	
5832	0	32952	
5833	0	32912	
5834	0	32888	
5835	0	32880	
5836	0	32904	
5837	0	32932	
5838	0	32960	
5839	0	33008	
5840	0	33066	
5841	0	33120	
5842	0	33136	
5843	0	33156	
5844	0	33194	
5845	0	33256	
5846	0	33306	
5847	0	33328	
5848	0	33302	
5849	0	33242	
5850	0	33224	
5851	0	33264	
5852	0	33292	
5853	0	33264	
5854	0	33284	
5855	0	33306	
5856	0	33312	
5857	0	33332	
5858	0	33360	
5859	0	33376	
5860	0	33388	
5861	0	33408	
5862	0	33448	
5863	0	33504	
5864	0	33512	
5865	0	33516	
5866	0	33500	
5867	0	33480	
5868	0	33456	
5869	0	33440	
5870	0	33440	
5871	0	33468	
5872	0	33464	
5873	0	33432	
5874	0	33408	
5875	0	33408	
5876	0	33444	
5877	0	33464	
5878	0	33496	
5879	0	33508	
5880	0	33524	
5881	0	33572	
5882	0	33572	
5883	0	33644	
5884	0	33700	
5885	0	33760	
5886	0	33760	
5887	0	33728	
5888	0	33736	
5889	0	33756	
5890	0	33780	
5891	0	33800	
5892	0	33772	
5893	0	33720	
5894	0	33676	
5895	0	33664	
5896	0	33648	
5897	0	33676	
5898	0	33712	
5899	0	33712	
5900	0	33732	
5901	0	33760	
5902	0	33756	
5903	0	33748	
5904	0	33716	
5905	0	33688	
5906	0	33664	
5907	0	33624	
5908	0	33572	
5909	0	33544	
5910	0	33508	
5911	0	33496	
5912	0	33512	
5913	0	33520	
5914	0	33520	
5915	0	33548	
5916	0	33584	
5917	0	33588	
5918	0	33548	
5919	0	33528	
5920	0	33548	
5921	0	33556	
5922	0	33564	
5923	0	33572	
5924	0	33592	
5925	0	33580	
5926	0	33560	
5927	0	33548	
5928	0	33520	
5929	0	33512	
5930	0	33472	
5931	0	33440	
5932	0	33432	
5933	0	33408	
5934	0	33360	
5935	0	33312	
5936	0	33288	
5937	0	33260	
5938	0	33248	
5939	0	33256	
5940	0	33300	
5941	0	33356	
5942	0	33348	
5943	0	33338	
5944	0	33368	
5945	0	33380	
5946	0	33376	
5947	0	33356	
5948	0	33336	
5949	0	33328	
5950	0	33316	
5951	0	33288	
5952	0	33252	
5953	0	33240	
5954	0	33212	
5955	0	33184	
5956	0	33172	
5957	0	33152	
5958	0	33176	
5959	0	33200	
5960	0	33244	
5961	0	33252	
5962	0	33248	
5963	0	33240	
5964	0	33220	
5965	0	33216	
5966	0	33192	
5967	0	33128	
5968	0	33052	
5969	0	32948	
5970	0	32864	
5971	0	32808	
5972	0	32712	
5973	0	32660	
5974	0	32572	
5975	0	32504	
5976	0	32484	
5977	0	32440	
5978	0	32368	
5979	0	32328	
5980	0	32296	
5981	0	32280	
5982	0	32232	
5983	0	32192	
5984	0	32148	
5985	0	32080	
5986	0	31992	
5987	0	31924	
5988	0	31874	
5989	0	31792	
5990	0	31688	
5991	0	31596	
5992	0	31488	
5993	0	31344	
5994	0	31220	
5995	0	31132	
5996	0	31074	
5997	0	31008	
5998	0	31000	
5999	0	30964	
6000	0	30952	
6001	0	30924	
6002	0	30912	
6003	0	30900	
6004	0	30880	
6005	0	30816	
6006	0	30756	
6007	0	30724	
6008	0	30712	
6009	0	30652	
6010	0	30612	
6011	0	30588	
6012	0	30584	
6013	0	30564	
6014	0	30548	
6015	0	30544	
6016	0	30548	
6017	0	30552	
6018	0	30552	
6019	0	30544	
6020	0	30552	
6021	0	30528	
6022	0	30496	
6023	0	30466	
6024	0	30480	
6025	0	30480	
6026	0	30484	
6027	0	30468	
6028	0	30464	
6029	0	30480	
6030	0	30484	
6031	0	30508	
6032	0	30548	
6033	0	30588	
6034	0	30626	
6035	0	30660	
6036	0	30688	
6037	0	30704	
6038	0	30740	
6039	0	30752	
6040	0	30784	
6041	0	30840	
6042	0	30888	
6043	0	30916	
6044	0	30920	
6045	0	30924	
6046	0	30948	
6047	0	30952	
6048	0	30952	
6049	0	30976	
6050	0	30996	
6051	0	30992	
6052	0	30938	
6053	0	30898	
6054	0	30888	
6055	0	30888	
6056	0	30872	
6057	0	30880	
6058	0	30900	
6059	0	30904	
6060	0	30912	
6061	0	30936	
6062	0	30952	
6063	0	30984	
6064	0	31056	
6065	0	31092	
6066	0	31124	
6067	0	31152	
6068	0	31192	
6069	0	31196	
6070	0	31208	
6071	0	31216	
6072	0	31260	
6073	0	31272	
6074	0	31288	
6075	0	31296	
6076	0	31284	
6077	0	31292	
6078	0	31336	
6079	0	31400	
6080	0	31452	
6081	0	31508	
6082	0	31544	
6083	0	31560	
6084	0	31632	
6085	0	31680	
6086	0	31708	
6087	0	31736	
6088	0	31744	
6089	0	31744	
6090	0	31708	
6091	0	31656	
6092	0	31620	
6093	0	31592	
6094	0	31572	
6095	0	31540	
6096	0	31524	
6097	0	31532	
6098	0	31552	
6099	0	31596	
6100	0	31640	
6101	0	31632	
6102	0	31608	
6103	0	31624	
6104	0	31652	
6105	0	31664	
6106	0	31652	
6107	0	31660	
6108	0	31640	
6109	0	31628	
6110	0	31608	
6111	0	31586	
6112	0	31568	
6113	0	31504	
6114	0	31476	
6115	0	31440	
6116	0	31408	
6117	0	31388	
6118	0	31364	
6119	0	31376	
6120	0	31398	
6121	0	31416	
6122	0	31428	
6123	0	31444	
6124	0	31448	
6125	0	31440	
6126	0	31464	
6127	0	31496	
6128	0	31528	
6129	0	31516	
6130	0	31496	
6131	0	31460	
6132	0	31416	
6133	0	31392	
6134	0	31376	
6135	0	31376	
6136	0	31380	
6137	0	31432	
6138	0	31480	
6139	0	31496	
6140	0	31488	
6141	0	31484	
6142	0	31484	
6143	0	31472	
6144	0	31460	
6145	0	31456	
6146	0	31452	
6147	0	31456	
6148	0	31452	
6149	0	31464	
6150	0	31468	
6151	0	31460	
6152	0	31488	
6153	0	31512	
6154	0	31520	
6155	0	31496	
6156	0	31472	
6157	0	31512	
6158	0	31532	
6159	0	31552	
6160	0	31568	
6161	0	31576	
6162	0	31616	
6163	0	31656	
6164	0	31708	
6165	0	31728	
6166	0	31732	
6167	0	31752	
6168	0	31800	
6169	0	31816	
6170	0	31792	
6171	0	31776	
6172	0	31756	
6173	0	31728	
6174	0	31708	
6175	0	31708	
6176	0	31768	
6177	0	31808	
6178	0	31832	
6179	0	31860	
6180	0	31874	
6181	0	31866	
6182	0	31848	
6183	0	31832	
6184	0	31840	
6185	0	31832	
6186	0	31824	
6187	0	31832	
6188	0	31828	
6189	0	31812	
6190	0	31796	
6191	0	31794	
6192	0	31752	
6193	0	31682	
6194	0	31636	
6195	0	31600	
6196	0	31604	
6197	0	31616	
6198	0	31652	
6199	0	31672	
6200	0	31712	
6201	0	31772	
6202	0	31840	
6203	0	31872	
6204	0	31896	
6205	0	31936	
6206	0	31952	
6207	0	31988	
6208	0	32008	
6209	0	32004	
6210	0	31992	
6211	0	32004	
6212	0	32000	
6213	0	31976	
6214	0	31956	
6215	0	31952	
6216	0	31952	
6217	0	31968	
6218	0	31968	
6219	0	31976	
6220	0	31976	
6221	0	32016	
6222	0	32040	
6223	0	32032	
6224	0	32032	
6225	0	32032	
6226	0	32020	
6227	0	32044	
6228	0	32060	
6229	0	32040	
6230	0	32004	
6231	0	31988	
6232	0	31984	
6233	0	31948	
6234	0	31904	
6235	0	31872	
6236	0	31872	
6237	0	31912	
6238	0	31946	
6239	0	31960	
6240	0	32010	
6241	0	32032	
6242	0	32048	
6243	0	32066	
6244	0	32080	
6245	0	32104	
6246	0	32094	
6247	0	32104	
6248	0	32112	
6249	0	32128	
6250	0	32132	
6251	0	32136	
6252	0	32108	
6253	0	32104	
6254	0	32108	
6255	0	32128	
6256	0	32112	
6257	0	32112	
6258	0	32152	
6259	0	32186	
6260	0	32216	
6261	0	32244	
6262	0	32276	
6263	0	32292	
6264	0	32276	
6265	0	32292	
6266	0	32264	
6267	0	32232	
6268	0	32220	
6269	0	32224	
6270	0	32220	
6271	0	32212	
6272	0	32212	
6273	0	32192	
6274	0	32188	
6275	0	32184	
6276	0	32180	
6277	0	32184	
6278	0	32208	
6279	0	32232	
6280	0	32264	
6281	0	32332	
6282	0	32376	
6283	0	32440	
6284	0	32472	
6285	0	32504	
6286	0	32532	
6287	0	32506	
6288	0	32460	
6289	0	32448	
6290	0	32448	
6291	0	32448	
6292	0	32456	
6293	0	32464	
6294	0	32472	
6295	0	32480	
6296	0	32480	
6297	0	32448	
6298	0	32440	
6299	0	32460	
6300	0	32496	
6301	0	32520	
6302	0	32552	
6303	0	32572	
6304	0	32604	
6305	0	32632	
6306	0	32632	
6307	0	32600	
6308	0	32528	
6309	0	32468	
6310	0	32452	
6311	0	32420	
6312	0	32384	
6313	0	32368	
6314	0	32356	
6315	0	32356	
6316	0	32372	
6317	0	32388	
6318	0	32416	
6319	0	32424	
6320	0	32436	
6321	0	32444	
6322	0	32464	
6323	0	32472	
6324	0	32480	
6325	0	32496	
6326	0	32528	
6327	0	32532	
6328	0	32540	
6329	0	32544	
6330	0	32576	
6331	0	32600	
6332	0	32604	
6333	0	32608	
6334	0	32644	
6335	0	32704	
6336	0	32724	
6337	0	32748	
6338	0	32774	
6339	0	32804	
6340	0	32824	
6341	0	32824	
6342	0	32800	
6343	0	32776	
6344	0	32776	
6345	0	32776	
6346	0	32776	
6347	0	32788	
6348	0	32776	
6349	0	32736	
6350	0	32664	
6351	0	32622	
6352	0	32636	
6353	0	32668	
6354	0	32764	
6355	0	32892	
6356	0	33004	
6357	0	33120	
6358	0	33260	
6359	0	33380	
6360	0	33496	
6361	0	33604	
6362	0	33712	
6363	0	33790	
6364	0	33872	
6365	0	33948	
6366	0	34000	
6367	0	34076	
6368	0	34136	
6369	0	34160	
6370	0	34144	
6371	0	34088	
6372	0	34024	
6373	0	33944	
6374	0	33852	
6375	0	33700	
6376	0	33590	
6377	0	33540	
6378	0	33500	
6379	0	33436	
6380	0	33352	
6381	0	33276	
6382	0	33208	
6383	0	33148	
6384	0	33104	
6385	0	33064	
6386	0	33036	
6387	0	32992	
6388	0	32948	
6389	0	32884	
6390	0	32832	
6391	0	32760	
6392	0	32712	
6393	0	32656	
6394	0	32624	
6395	0	32616	
6396	0	32628	
6397	0	32632	
6398	0	32612	
6399	0	32624	
6400	0	32636	
6401	0	32640	
6402	0	32650	
6403	0	32668	
6404	0	32660	
6405	0	32652	
6406	0	32618	
6407	0	32560	
6408	0	32492	
6409	0	32456	
6410	0	32416	
6411	0	32360	
6412	0	32296	
6413	0	32208	
6414	0	32104	
6415	0	32024	
6416	0	31960	
6417	0	31930	
6418	0	31930	
6419	0	31956	
6420	0	31960	
6421	0	31984	
6422	0	31992	
6423	0	32012	
6424	0	32048	
6425	0	32082	
6426	0	32112	
6427	0	32096	
6428	0	32060	
6429	0	32028	
6430	0	32004	
6431	0	31980	
6432	0	31952	
6433	0	31962	
6434	0	31952	
6435	0	31932	
6436	0	31936	
6437	0	31956	
6438	0	31972	
6439	0	32008	
6440	0	32044	
6441	0	32084	
6442	0	32096	
6443	0	32112	
6444	0	32112	
6445	0	32100	
6446	0	32112	
6447	0	32136	
6448	0	32160	
6449	0	32144	
6450	0	32128	
6451	0	32116	
6452	0	32116	
6453	0	32096	
6454	0	32082	
6455	0	32100	
6456	0	32116	
6457	0	32130	
6458	0	32144	
6459	0	32156	
6460	0	32152	
6461	0	32172	
6462	0	32208	
6463	0	32240	
6464	0	32276	
6465	0	32332	
6466	0	32360	
6467	0	32376	
6468	0	32396	
6469	0	32384	
6470	0	32364	
6471	0	32348	
6472	0	32346	
6473	0	32322	
6474	0	32336	
6475	0	32372	
6476	0	32396	
6477	0	32420	
6478	0	32428	
6479	0	32440	
6480	0	32472	
6481	0	32520	
6482	0	32564	
6483	0	32540	
6484	0	32526	
6485	0	32568	
6486	0	32608	
6487	0	32672	
6488	0	32728	
6489	0	32736	
6490	0	32768	
6491	0	32800	
6492	0	32808	
6493	0	32792	
6494	0	32716	
6495	0	32618	
6496	0	32536	
6497	0	32488	
6498	0	32532	
6499	0	32728	
6500	0	33016	
6501	0	33312	
6502	0	33616	
6503	0	33948	
6504	0	34232	
6505	0	34440	
6506	0	34452	
6507	0	34448	
6508	0	34484	
6509	0	34720	
6510	0	35136	
6511	0	35704	
6512	0	36440	
6513	0	37360	
6514	0	38468	
6515	0	39784	
6516	0	41122	
6517	0	42480	
6518	0	43896	
6519	0	45378	
6520	0	46992	
6521	0	48596	
6522	0	50072	
6523	0	51312	
6524	0	52352	
6525	0	53324	
6526	0	54336	
6527	0	55312	
6528	0	55996	
6529	0	56076	
6530	0	55264	
6531	0	53352	
6532	0	50504	
6533	0	47208	
6534	0	43716	
6535	0	40300	
6536	0	37192	
6537	0	34656	
6538	0	32892	
6539	0	31752	
6540	0	30992	
6541	0	30484	
6542	0	30192	
6543	0	30072	
6544	0	30048	
6545	0	30148	
6546	0	30352	
6547	0	30552	
6548	0	30748	
6549	0	30912	
6550	0	31076	
6551	0	31232	
6552	0	31340	
6553	0	31444	
6554	0	31540	
6555	0	31628	
6556	0	31692	
6557	0	31728	
6558	0	31776	
6559	0	31824	
6560	0	31856	
6561	0	31848	
6562	0	31880	
6563	0	31868	
6564	0	31820	
6565	0	31768	
6566	0	31708	
6567	0	31628	
6568	0	31560	
6569	0	31520	
6570	0	31488	
6571	0	31472	
6572	0	31466	
6573	0	31470	
6574	0	31468	
6575	0	31456	
6576	0	31456	
6577	0	31484	
6578	0	31512	
6579	0	31536	
6580	0	31568	
6581	0	31576	
6582	0	31572	
6583	0	31596	
6584	0	31628	
6585	0	31668	
6586	0	31696	
6587	0	31752	
6588	0	31768	
6589	0	31788	
6590	0	31804	
6591	0	31824	
6592	0	31822	
6593	0	31824	
6594	0	31840	
6595	0	31856	
6596	0	31888	
6597	0	31928	
6598	0	31980	
6599	0	32020	
6600	0	32042	
6601	0	32044	
6602	0	32058	
6603	0	32060	
6604	0	32100	
6605	0	32132	
6606	0	32144	
6607	0	32120	
6608	0	32116	
6609	0	32112	
6610	0	32128	
6611	0	32162	
6612	0	32184	
6613	0	32160	
6614	0	32140	
6615	0	32164	
6616	0	32192	
6617	0	32216	
6618	0	32264	
6619	0	32324	
6620	0	32388	
6621	0	32424	
6622	0	32472	
6623	0	32488	
6624	0	32504	
6625	0	32540	
6626	0	32588	
6627	0	32616	
6628	0	32652	
6629	0	32668	
6630	0	32652	
6631	0	32684	
6632	0	32704	
6633	0	32708	
6634	0	32728	
6635	0	32720	
6636	0	32736	
6637	0	32788	
6638	0	32824	
6639	0	32852	
6640	0	32872	
6641	0	32888	
6642	0	32916	
6643	0	32936	
6644	0	32944	
6645	0	32948	
6646	0	32956	
6647	0	32968	
6648	0	32976	
6649	0	32980	
6650	0	32988	
6651	0	33028	
6652	0	33056	
6653	0	33088	
6654	0	33084	
6655	0	33088	
6656	0	33112	
6657	0	33112	
6658	0	33138	
6659	0	33176	
6660	0	33218	
6661	0	33240	
6662	0	33272	
6663	0	33336	
6664	0	33396	
6665	0	33448	
6666	0	33472	
6667	0	33484	
6668	0	33460	
6669	0	33440	
6670	0	33440	
6671	0	33460	
6672	0	33464	
6673	0	33472	
6674	0	33488	
6675	0	33496	
6676	0	33488	
6677	0	33508	
6678	0	33516	
6679	0	33544	
6680	0	33580	
6681	0	33620	
6682	0	33640	
6683	0	33652	
6684	0	33648	
6685	0	33644	
6686	0	33684	
6687	0	33656	
6688	0	33652	
6689	0	33644	
6690	0	33652	
6691	0	33656	
6692	0	33680	
6693	0	33696	
6694	0	33688	
6695	0	33676	
6696	0	33700	
6697	0	33728	
6698	0	33744	
6699	0	33760	
6700	0	33772	
6701	0	33792	
6702	0	33818	
6703	0	33832	
6704	0	33848	
6705	0	33852	
6706	0	33844	
6707	0	33864	
6708	0	33884	
6709	0	33888	
6710	0	33882	
6711	0	33886	
6712	0	33904	
6713	0	33900	
6714	0	33888	
6715	0	33912	
6716	0	33892	
6717	0	33920	
6718	0	33956	
6719	0	33980	
6720	0	34002	
6721	0	34044	
6722	0	34076	
6723	0	34096	
6724	0	34120	
6725	0	34148	
6726	0	34168	
6727	0	34168	
6728	0	34172	
6729	0	34144	
6730	0	34092	
6731	0	34064	
6732	0	34068	
6733	0	34084	
6734	0	34088	
6735	0	34072	
6736	0	34064	
6737	0	34092	
6738	0	34100	
6739	0	34120	
6740	0	34104	
6741	0	34116	
6742	0	34144	
6743	0	34180	
6744	0	34212	
6745	0	34228	
6746	0	34196	
6747	0	34184	
6748	0	34184	
6749	0	34176	
6750	0	34164	
6751	0	34144	
6752	0	34096	
6753	0	34060	
6754	0	34060	
6755	0	34032	
6756	0	34040	
6757	0	34034	
6758	0	34028	
6759	0	34020	
6760	0	34042	
6761	0	34060	
6762	0	34090	
6763	0	34104	
6764	0	34088	
6765	0	34092	
6766	0	34096	
6767	0	34072	
6768	0	34048	
6769	0	34030	
6770	0	34000	
6771	0	33984	
6772	0	33980	
6773	0	33992	
6774	0	33976	
6775	0	33956	
6776	0	33920	
6777	0	33910	
6778	0	33920	
6779	0	33944	
6780	0	33936	
6781	0	33948	
6782	0	33964	
6783	0	33972	
6784	0	33996	
6785	0	34016	
6786	0	34028	
6787	0	34012	
6788	0	34012	
6789	0	33984	
6790	0	33948	
6791	0	33940	
6792	0	33888	
6793	0	33868	
6794	0	33836	
6795	0	33788	
6796	0	33764	
6797	0	33764	
6798	0	33772	
6799	0	33756	
6800	0	33736	
6801	0	33722	
6802	0	33680	
6803	0	33632	
6804	0	33592	
6805	0	33552	
6806	0	33504	
6807	0	33452	
6808	0	33348	
6809	0	33224	
6810	0	33132	
6811	0	33048	
6812	0	32976	
6813	0	32908	
6814	0	32812	
6815	0	32700	
6816	0	32604	
6817	0	32492	
6818	0	32384	
6819	0	32324	
6820	0	32250	
6821	0	32192	
6822	0	32152	
6823	0	32108	
6824	0	32032	
6825	0	31972	
6826	0	31878	
6827	0	31808	
6828	0	31712	
6829	0	31616	
6830	0	31544	
6831	0	31474	
6832	0	31396	
6833	0	31344	
6834	0	31292	
6835	0	31260	
6836	0	31216	
6837	0	31180	
6838	0	31152	
6839	0	31108	
6840	0	31076	
6841	0	31036	
6842	0	31016	
6843	0	30996	
6844	0	30984	
6845	0	30996	
6846	0	30976	
6847	0	30940	
6848	0	30906	
6849	0	30880	
6850	0	30860	
6851	0	30852	
6852	0	30832	
6853	0	30796	
6854	0	30768	
6855	0	30744	
6856	0	30744	
6857	0	30716	
6858	0	30724	
6859	0	30720	
6860	0	30728	
6861	0	30740	
6862	0	30752	
6863	0	30784	
6864	0	30808	
6865	0	30832	
6866	0	30864	
6867	0	30864	
6868	0	30860	
6869	0	30844	
6870	0	30852	
6871	0	30856	
6872	0	30832	
6873	0	30832	
6874	0	30856	
6875	0	30844	
6876	0	30836	
6877	0	30848	
6878	0	30904	
6879	0	30944	
6880	0	30968	
6881	0	31020	
6882	0	31080	
6883	0	31096	
6884	0	31084	
6885	0	31092	
6886	0	31128	
6887	0	31152	
6888	0	31170	
6889	0	31180	
6890	0	31180	
6891	0	31168	
6892	0	31176	
6893	0	31188	
6894	0	31172	
6895	0	31164	
6896	0	31140	
6897	0	31140	
6898	0	31148	
6899	0	31152	
6900	0	31160	
6901	0	31196	
6902	0	31208	
6903	0	31256	
6904	0	31300	
6905	0	31320	
6906	0	31360	
6907	0	31384	
6908	0	31432	
6909	0	31448	
6910	0	31424	
6911	0	31432	
6912	0	31448	
6913	0	31480	
6914	0	31480	
6915	0	31508	
6916	0	31532	
6917	0	31552	
6918	0	31584	
6919	0	31616	
6920	0	31652	
6921	0	31660	
6922	0	31688	
6923	0	31736	
6924	0	31772	
6925	0	31800	
6926	0	31836	
6927	0	31844	
6928	0	31864	
6929	0	31840	
6930	0	31828	
6931	0	31800	
6932	0	31792	
6933	0	31780	
6934	0	31756	
6935	0	31724	
6936	0	31700	
6937	0	31700	
6938	0	31716	
6939	0	31746	
6940	0	31794	
6941	0	31802	
6942	0	31808	
6943	0	31828	
6944	0	31850	
6945	0	31856	
6946	0	31868	
6947	0	31852	
6948	0	31840	
6949	0	31836	
6950	0	31800	
6951	0	31772	
6952	0	31788	
6953	0	31776	
6954	0	31784	
6955	0	31760	
6956	0	31760	
6957	0	31784	
6958	0	31804	
6959	0	31824	
6960	0	31840	
6961	0	31872	
6962	0	31877	
6963	0	31884	
6964	0	31896	
6965	0	31930	
6966	0	31920	
6967	0	31912	
6968	0	31888	
6969	0	31884	
6970	0	31822	
6971	0	31800	
6972	0	31796	
6973	0	31812	
6974	0	31816	
6975	0	31840	
6976	0	31852	
6977	0	31848	
6978	0	31856	
6979	0	31888	
6980	0	31888	
6981	0	31872	
6982	0	31890	
6983	0	31912	
6984	0	31952	
6985	0	31984	
6986	0	31984	
6987	0	31960	
6988	0	31936	
6989	0	31916	
6990	0	31916	
6991	0	31884	
6992	0	31860	
6993	0	31832	
6994	0	31800	
6995	0	31778	
6996	0	31768	
6997	0	31796	
6998	0	31808	
6999	0	31816	
7000	0	31828	
7001	0	31820	
7002	0	31848	
7003	0	31860	
7004	0	31880	
7005	0	31920	
7006	0	31908	
7007	0	31900	
7008	0	31932	
7009	0	31930	
7010	0	31906	
7011	0	31890	
7012	0	31888	
7013	0	31880	
7014	0	31848	
7015	0	31820	
7016	0	31792	
7017	0	31784	
7018	0	31788	
7019	0	31832	
7020	0	31856	
7021	0	31852	
7022	0	31876	
7023	0	31908	
7024	0	31932	
7025	0	31936	
7026	0	31956	
7027	0	31940	
7028	0	31904	
7029	0	31874	
7030	0	31832	
7031	0	31812	
7032	0	31792	
7033	0	31756	
7034	0	31728	
7035	0	31728	
7036	0	31720	
7037	0	31714	
7038	0	31736	
7039	0	31776	
7040	0	31824	
7041	0	31864	
7042	0	31912	
7043	0	31928	
7044	0	31932	
7045	0	31952	
7046	0	31952	
7047	0	31964	
7048	0	31984	
7049	0	31968	
7050	0	31960	
7051	0	31944	
7052	0	31928	
7053	0	31924	
7054	0	31912	
7055	0	31884	
7056	0	31868	
7057	0	31876	
7058	0	31920	
7059	0	31952	
7060	0	31968	
7061	0	32016	
7062	0	32056	
7063	0	32080	
7064	0	32110	
7065	0	32112	
7066	0	32114	
7067	0	32120	
7068	0	32120	
7069	0	32104	
7070	0	32080	
7071	0	32044	
7072	0	32032	
7073	0	32040	
7074	0	32032	
7075	0	32010	
7076	0	32016	
7077	0	32020	
7078	0	32024	
7079	0	32040	
7080	0	32052	
7081	0	32052	
7082	0	32104	
7083	0	32088	
7084	0	32078	
7085	0	32076	
7086	0	32072	
7087	0	32092	
7088	0	32092	
7089	0	32072	
7090	0	32076	
7091	0	32072	
7092	0	32056	
7093	0	32048	
7094	0	32032	
7095	0	32028	
7096	0	32052	
7097	0	32072	
7098	0	32064	
7099	0	32076	
7100	0	32096	
7101	0	32100	
7102	0	32116	
7103	0	32148	
7104	0	32192	
7105	0	32224	
7106	0	32218	
7107	0	32204	
7108	0	32180	
7109	0	32164	
7110	0	32136	
7111	0	32120	
7112	0	32124	
7113	0	32120	
7114	0	32112	
7115	0	32104	
7116	0	32100	
7117	0	32120	
7118	0	32120	
7119	0	32116	
7120	0	32126	
7121	0	32168	
7122	0	32180	
7123	0	32188	
7124	0	32176	
7125	0	32136	
7126	0	32152	
7127	0	32172	
7128	0	32176	
7129	0	32192	
7130	0	32184	
7131	0	32162	
7132	0	32160	
7133	0	32188	
7134	0	32196	
7135	0	32184	
7136	0	32196	
7137	0	32224	
7138	0	32252	
7139	0	32264	
7140	0	32276	
7141	0	32280	
7142	0	32300	
7143	0	32340	
7144	0	32372	
7145	0	32360	
7146	0	32352	
7147	0	32356	
7148	0	32352	
7149	0	32360	
7150	0	32360	
7151	0	32360	
7152	0	32336	
7153	0	32308	
7154	0	32312	
7155	0	32280	
7156	0	32280	
7157	0	32292	
7158	0	32336	
7159	0	32376	
7160	0	32394	
7161	0	32416	
7162	0	32464	
7163	0	32476	
7164	0	32500	
7165	0	32552	
7166	0	32572	
7167	0	32572	
7168	0	32564	
7169	0	32544	
7170	0	32532	
7171	0	32528	
7172	0	32520	
7173	0	32500	
7174	0	32480	
7175	0	32448	
7176	0	32460	
7177	0	32500	
7178	0	32500	
7179	0	32508	
7180	0	32508	
7181	0	32508	
7182	0	32540	
7183	0	32552	
7184	0	32570	
7185	0	32590	
7186	0	32596	
7187	0	32624	
7188	0	32614	
7189	0	32596	
7190	0	32584	
7191	0	32590	
7192	0	32588	
7193	0	32568	
7194	0	32568	
7195	0	32572	
7196	0	32556	
7197	0	32552	
7198	0	32556	
7199	0	32548	
7200	0	32584	
7201	0	32616	
7202	0	32636	
7203	0	32670	
7204	0	32676	
7205	0	32696	
7206	0	32720	
7207	0	32704	
7208	0	32696	
7209	0	32696	
7210	0	32680	
7211	0	32676	
7212	0	32688	
7213	0	32676	
7214	0	32658	
7215	0	32636	
7216	0	32628	
7217	0	32644	
7218	0	32684	
7219	0	32730	
7220	0	32736	
7221	0	32764	
7222	0	32748	
7223	0	32752	
7224	0	32768	
7225	0	32800	
7226	0	32800	
7227	0	32800	
7228	0	32812	
7229	0	32802	
7230	0	32776	
7231	0	32736	
7232	0	32720	
7233	0	32728	
7234	0	32712	
7235	0	32712	
7236	0	32708	
7237	0	32704	
7238	0	32712	
7239	0	32724	
7240	0	32752	
7241	0	32800	
7242	0	32848	
7243	0	32872	
7244	0	32888	
7245	0	32914	
7246	0	32940	
7247	0	32952	
7248	0	32972	
7249	0	32968	
7250	0	32960	
7251	0	32952	
7252	0	32956	
7253	0	32944	
7254	0	32912	
7255	0	32880	
7256	0	32858	
7257	0	32848	
7258	0	32840	
7259	0	32862	
7260	0	32872	
7261	0	32890	
7262	0	32902	
7263	0	32940	
7264	0	32976	
7265	0	33004	
7266	0	33012	
7267	0	33072	
7268	0	33120	
7269	0	33156	
7270	0	33184	
7271	0	33208	
7272	0	33242	
7273	0	33248	
7274	0	33264	
7275	0	33248	
7276	0	33268	
7277	0	33312	
7278	0	33288	
7279	0	33284	
7280	0	33268	
7281	0	33252	
7282	0	33264	
7283	0	33280	
7284	0	33304	
7285	0	33320	
7286	0	33316	
7287	0	33312	
7288	0	33288	
7289	0	33292	
7290	0	33304	
7291	0	33340	
7292	0	33436	
7293	0	33548	
7294	0	33684	
7295	0	33788	
7296	0	33876	
7297	0	33956	
7298	0	34056	
7299	0	34164	
7300	0	34248	
7301	0	34308	
7302	0	34372	
7303	0	34440	
7304	0	34496	
7305	0	34520	
7306	0	34572	
7307	0	34612	
7308	0	34624	
7309	0	34584	
7310	0	34528	
7311	0	34468	
7312	0	34368	
7313	0	34248	
7314	0	34140	
7315	0	34052	
7316	0	33972	
7317	0	33892	
7318	0	33816	
7319	0	33784	
7320	0	33740	
7321	0	33712	
7322	0	33688	
7323	0	33656	
7324	0	33644	
7325	0	33640	
7326	0	33600	
7327	0	33572	
7328	0	33532	
7329	0	33484	
7330	0	33456	
7331	0	33416	
7332	0	33376	
7333	0	33370	
7334	0	33328	
7335	0	33276	
7336	0	33260	
7337	0	33296	
7338	0	33312	
7339	0	33340	
7340	0	33328	
7341	0	33312	
7342	0	33316	
7343	0	33328	
7344	0	33328	
7345	0	33344	
7346	0	33320	
7347	0	33260	
7348	0	33192	
7349	0	33128	
7350	0	33056	
7351	0	32992	
7352	0	32900	
7353	0	32780	
7354	0	32676	
7355	0	32608	
7356	0	32556	
7357	0	32528	
7358	0	32512	
7359	0	32520	
7360	0	32516	
7361	0	32536	
7362	0	32564	
7363	0	32584	
7364	0	32588	
7365	0	32602	
7366	0	32576	
7367	0	32552	
7368	0	32512	
7369	0	32472	
7370	0	32452	
7371	0	32456	
7372	0	32456	
7373	0	32452	
7374	0	32456	
7375	0	32428	
7376	0	32404	
7377	0	32408	
7378	0	32420	
7379	0	32448	
7380	0	32452	
7381	0	32492	
7382	0	32524	
7383	0	32572	
7384	0	32596	
7385	0	32616	
7386	0	32624	
7387	0	32634	
7388	0	32616	
7389	0	32612	
7390	0	32600	
7391	0	32592	
7392	0	32580	
7393	0	32544	
7394	0	32524	
7395	0	32524	
7396	0	32536	
7397	0	32564	
7398	0	32588	
7399	0	32608	
7400	0	32636	
7401	0	32672	
7402	0	32676	
7403	0	32688	
7404	0	32704	
7405	0	32728	
7406	0	32720	
7407	0	32704	
7408	0	32692	
7409	0	32664	
7410	0	32644	
7411	0	32640	
7412	0	32640	
7413	0	32616	
7414	0	32616	
7415	0	32612	
7416	0	32592	
7417	0	32608	
7418	0	32624	
7419	0	32640	
7420	0	32688	
7421	0	32752	
7422	0	32808	
7423	0	32884	
7424	0	32960	
7425	0	33020	
7426	0	33060	
7427	0	33100	
7428	0	33096	
7429	0	33040	
7430	0	32980	
7431	0	32908	
7432	0	32832	
7433	0	32770	
7434	0	32814	
7435	0	32992	
7436	0	33248	
7437	0	33524	
7438	0	33824	
7439	0	34068	
7440	0	34264	
7441	0	34388	
7442	0	34444	
7443	0	34570	
7444	0	34780	
7445	0	35176	
7446	0	35708	
7447	0	36352	
7448	0	37168	
7449	0	38160	
7450	0	39344	
7451	0	40570	
7452	0	41832	
7453	0	43092	
7454	0	44464	
7455	0	45876	
7456	0	47290	
7457	0	48552	
7458	0	49652	
7459	0	50624	
7460	0	51592	
7461	0	52688	
7462	0	53712	
7463	0	54480	
7464	0	54744	
7465	0	54096	
7466	0	52376	
7467	0	49760	
7468	0	46636	
7469	0	43296	
7470	0	40036	
7471	0	37066	
7472	0	34648	
7473	0	32952	
7474	0	31856	
7475	0	31184	
7476	0	30844	
7477	0	30672	
7478	0	30584	
7479	0	30552	
7480	0	30552	
7481	0	30600	
7482	0	30680	
7483	0	30800	
7484	0	30944	
7485	0	31048	
7486	0	31152	
7487	0	31244	
7488	0	31336	
7489	0	31460	
7490	0	31588	
7491	0	31688	
7492	0	31764	
7493	0	31800	
7494	0	31800	
7495	0	31764	
7496	0	31716	
7497	0	31680	
7498	0	31676	
7499	0	31652	
7500	0	31616	
7501	0	31576	
7502	0	31560	
7503	0	31520	
7504	0	31500	
7505	0	31496	
7506	0	31480	
7507	0	31456	
7508	0	31412	
7509	0	31392	
7510	0	31388	
7511	0	31372	
7512	0	31364	
7513	0	31344	
7514	0	31332	
7515	0	31328	
7516	0	31336	
7517	0	31340	
7518	0	31346	
7519	0	31356	
7520	0	31368	
7521	0	31412	
7522	0	31444	
7523	0	31472	
7524	0	31508	
7525	0	31524	
7526	0	31560	
7527	0	31576	
7528	0	31592	
7529	0	31616	
7530	0	31600	
7531	0	31592	
7532	0	31584	
7533	0	31600	
7534	0	31596	
7535	0	31580	
7536	0	31560	
7537	0	31556	
7538	0	31556	
7539	0	31580	
7540	0	31624	
7541	0	31672	
7542	0	31712	
7543	0	31752	
7544	0	31784	
7545	0	31820	
7546	0	31836	
7547	0	31862	
7548	0	31896	
7549	0	31916	
7550	0	31948	
7551	0	31972	
7552	0	31976	
7553	0	31964	
7554	0	31972	
7555	0	31992	
7556	0	32028	
7557	0	32076	
7558	0	32112	
7559	0	32168	
7560	0	32212	
7561	0	32280	
7562	0	32344	
7563	0	32368	
7564	0	32426	
7565	0	32472	
7566	0	32508	
7567	0	32538	
7568	0	32560	
7569	0	32568	
7570	0	32552	
7571	0	32560	
7572	0	32578	
7573	0	32570	
7574	0	32584	
7575	0	32576	
7576	0	32608	
7577	0	32624	
7578	0	32640	
7579	0	32668	
7580	0	32684	
7581	0	32716	
7582	0	32760	
7583	0	32812	
7584	0	32848	
7585	0	32880	
7586	0	32900	
7587	0	32912	
7588	0	32916	
7589	0	32910	
7590	0	32916	
7591	0	32928	
7592	0	32916	
7593	0	32888	
7594	0	32892	
7595	0	32903	
7596	0	32920	
7597	0	32956	
7598	0	32992	
7599	0	33056	
7600	0	33088	
7601	0	33132	
7602	0	33180	
7603	0	33220	
7604	0	33284	
7605	0	33324	
7606	0	33364	
7607	0	33368	
7608	0	33388	
7609	0	33396	
7610	0	33392	
7611	0	33404	
7612	0	33400	
7613	0	33376	
7614	0	33344	
7615	0	33320	
7616	0	33292	
7617	0	33296	
7618	0	33304	
7619	0	33328	
7620	0	33376	
7621	0	33408	
7622	0	33444	
7623	0	33500	
7624	0	33552	
7625	0	33580	
7626	0	33608	
7627	0	33624	
7628	0	33632	
7629	0	33640	
7630	0	33644	
7631	0	33640	
7632	0	33644	
7633	0	33620	
7634	0	33600	
7635	0	33616	
7636	0	33632	
7637	0	33616	
7638	0	33630	
7639	0	33676	
7640	0	33696	
7641	0	33704	
7642	0	33720	
7643	0	33744	
7644	0	33776	
7645	0	33800	
7646	0	33832	
7647	0	33856	
7648	0	33882	
7649	0	33888	
7650	0	33872	
7651	0	33876	
7652	0	33872	
7653	0	33840	
7654	0	33824	
7655	0	33796	
7656	0	33756	
7657	0	33764	
7658	0	33796	
7659	0	33800	
7660	0	33800	
7661	0	33836	
7662	0	33872	
7663	0	33892	
7664	0	33928	
7665	0	33968	
7666	0	33984	
7667	0	34008	
7668	0	33988	
7669	0	33988	
7670	0	33988	
7671	0	33976	
7672	0	33976	
7673	0	33984	
7674	0	33960	
7675	0	33952	
7676	0	33952	
7677	0	33956	
7678	0	33952	
7679	0	33952	
7680	0	33960	
7681	0	33986	
7682	0	33980	
7683	0	33984	
7684	0	33972	
7685	0	33964	
7686	0	33968	
7687	0	33956	
7688	0	33944	
7689	0	33932	
7690	0	33900	
7691	0	33896	
7692	0	33884	
7693	0	33856	
7694	0	33844	
7695	0	33826	
7696	0	33808	
7697	0	33784	
7698	0	33788	
7699	0	33812	
7700	0	33832	
7701	0	33860	
7702	0	33886	
7703	0	33884	
7704	0	33892	
7705	0	33928	
7706	0	33940	
7707	0	33928	
7708	0	33936	
7709	0	33908	
7710	0	33864	
7711	0	33824	
7712	0	33816	
7713	0	33804	
7714	0	33764	
7715	0	33756	
7716	0	33728	
7717	0	33720	
7718	0	33712	
7719	0	33740	
7720	0	33752	
7721	0	33764	
7722	0	33748	
7723	0	33744	
7724	0	33736	
7725	0	33724	
7726	0	33708	
7727	0	33720	
7728	0	33708	
7729	0	33680	
7730	0	33640	
7731	0	33624	
7732	0	33608	
7733	0	33560	
7734	0	33532	
7735	0	33490	
7736	0	33456	
7737	0	33428	
7738	0	33412	
7739	0	33376	
7740	0	33352	
7741	0	33312	
7742	0	33284	
7743	0	33248	
7744	0	33240	
7745	0	33208	
7746	0	33152	
7747	0	33100	
7748	0	33036	
7749	0	32968	
7750	0	32900	
7751	0	32816	
7752	0	32740	
7753	0	32640	
7754	0	32556	
7755	0	32484	
7756	0	32396	
7757	0	32336	
7758	0	32296	
7759	0	32272	
7760	0	32224	
7761	0	32172	
7762	0	32120	
7763	0	32040	
7764	0	31992	
7765	0	31912	
7766	0	31864	
7767	0	31788	
7768	0	31716	
7769	0	31648	
7770	0	31568	
7771	0	31516	
7772	0	31432	
7773	0	31360	
7774	0	31306	
7775	0	31240	
7776	0	31188	
7777	0	31160	
7778	0	31124	
7779	0	31100	
7780	0	31088	
7781	0	31056	
7782	0	31048	
7783	0	31032	
7784	0	31032	
7785	0	30988	
7786	0	30984	
7787	0	30980	
7788	0	30956	
7789	0	30920	
7790	0	30908	
7791	0	30904	
7792	0	30912	
7793	0	30912	
7794	0	30896	
7795	0	30876	
7796	0	30864	
7797	0	30864	
7798	0	30896	
7799	0	30932	
7800	0	30936	
7801	0	30932	
7802	0	30948	
7803	0	30984	
7804	0	31008	
7805	0	31036	
7806	0	31048	
7807	0	31038	
7808	0	31056	
7809	0	31072	
7810	0	31056	
7811	0	31028	
7812	0	31024	
7813	0	31012	
7814	0	30988	
7815	0	30976	
7816	0	31012	
7817	0	31028	
7818	0	31042	
7819	0	31088	
7820	0	31140	
7821	0	31168	
7822	0	31168	
7823	0	31194	
7824	0	31258	
7825	0	31276	
7826	0	31296	
7827	0	31328	
7828	0	31360	
7829	0	31360	
7830	0	31344	
7831	0	31344	
7832	0	31344	
7833	0	31356	
7834	0	31340	
7835	0	31348	
7836	0	31352	
7837	0	31344	
7838	0	31356	
7839	0	31372	
7840	0	31388	
7841	0	31408	
7842	0	31400	
7843	0	31416	
7844	0	31424	
7845	0	31428	
7846	0	31444	
7847	0	31428	
7848	0	31414	
7849	0	31388	
7850	0	31360	
7851	0	31360	
7852	0	31340	
7853	0	31336	
7854	0	31340	
7855	0	31324	
7856	0	31332	
7857	0	31340	
7858	0	31364	
7859	0	31372	
7860	0	31412	
7861	0	31452	
7862	0	31480	
7863	0	31496	
7864	0	31520	
7865	0	31564	
7866	0	31608	
7867	0	31642	
7868	0	31660	
7869	0	31656	
7870	0	31636	
7871	0	31632	
7872	0	31628	
7873	0	31620	
7874	0	31572	
7875	0	31544	
7876	0	31540	
7877	0	31540	
7878	0	31564	
7879	0	31616	
7880	0	31660	
7881	0	31666	
7882	0	31692	
7883	0	31712	
7884	0	31724	
7885	0	31712	
7886	0	31732	
7887	0	31736	
7888	0	31712	
7889	0	31708	
7890	0	31700	
7891	0	31666	
7892	0	31656	
7893	0	31600	
7894	0	31564	
7895	0	31560	
7896	0	31546	
7897	0	31552	
7898	0	31592	
7899	0	31612	
7900	0	31628	
7901	0	31656	
7902	0	31680	
7903	0	31700	
7904	0	31728	
7905	0	31748	
7906	0	31784	
7907	0	31788	
7908	0	31792	
7909	0	31792	
7910	0	31764	
7911	0	31776	
7912	0	31800	
7913	0	31800	
7914	0	31784	
7915	0	31778	
7916	0	31778	
7917	0	31772	
7918	0	31752	
7919	0	31760	
7920	0	31764	
7921	0	31792	
7922	0	31808	
7923	0	31812	
7924	0	31816	
7925	0	31816	
7926	0	31828	
7927	0	31816	
7928	0	31808	
7929	0	31808	
7930	0	31808	
7931	0	31808	
7932	0	31770	
7933	0	31740	
7934	0	31728	
7935	0	31712	
7936	0	31712	
7937	0	31728	
7938	0	31756	
7939	0	31776	
7940	0	31792	
7941	0	31784	
7942	0	31776	
7943	0	31788	
7944	0	31808	
7945	0	31828	
7946	0	31844	
7947	0	31848	
7948	0	31844	
7949	0	31844	
7950	0	31828	
7951	0	31812	
7952	0	31812	
7953	0	31820	
7954	0	31792	
7955	0	31760	
7956	0	31768	
7957	0	31768	
7958	0	31792	
7959	0	31812	
7960	0	31854	
7961	0	31868	
7962	0	31884	
7963	0	31898	
7964	0	31908	
7965	0	31944	
7966	0	31956	
7967	0	31948	
7968	0	31932	
7969	0	31912	
7970	0	31880	
7971	0	31880	
7972	0	31888	
7973	0	31888	
7974	0	31884	
7975	0	31880	
7976	0	31880	
7977	0	31884	
7978	0	31872	
7979	0	31880	
7980	0	31892	
7981	0	31916	
7982	0	31952	
7983	0	32012	
7984	0	32020	
7985	0	32016	
7986	0	32052	
7987	0	32056	
7988	0	32044	
7989	0	32028	
7990	0	32000	
7991	0	32004	
7992	0	31992	
7993	0	31968	
7994	0	31944	
7995	0	31948	
7996	0	31936	
7997	0	31960	
7998	0	31976	
7999	0	31984	
8000	0	32020	
8001	0	32044	
8002	0	32072	
8003	0	32080	
8004	0	32108	
8005	0	32100	
8006	0	32080	
8007	0	32080	
8008	0	32086	
8009	0	32066	
8010	0	32048	
8011	0	32028	
8012	0	32016	
8013	0	32016	
8014	0	31980	
8015	0	31980	
8016	0	31976	
8017	0	31996	
8018	0	32016	
8019	0	32020	
8020	0	32048	
8021	0	32076	
8022	0	32092	
8023	0	32094	
8024	0	32080	
8025	0	32090	
8026	0	32120	
8027	0	32136	
8028	0	32148	
8029	0	32132	
8030	0	32108	
8031	0	32080	
8032	0	32052	
8033	0	32028	
8034	0	32024	
8035	0	32000	
8036	0	31980	
8037	0	31976	
8038	0	31960	
8039	0	31976	
8040	0	32012	
8041	0	32032	
8042	0	32044	
8043	0	32046	
8044	0	32104	
8045	0	32136	
8046	0	32140	
8047	0	32156	
8048	0	32164	
8049	0	32160	
8050	0	32148	
8051	0	32128	
8052	0	32120	
8053	0	32116	
8054	0	32108	
8055	0	32088	
8056	0	32084	
8057	0	32068	
8058	0	32076	
8059	0	32088	
8060	0	32116	
8061	0	32160	
8062	0	32224	
8063	0	32280	
8064	0	32316	
8065	0	32320	
8066	0	32344	
8067	0	32368	
8068	0	32368	
8069	0	32356	
8070	0	32368	
8071	0	32380	
8072	0	32372	
8073	0	32342	
8074	0	32320	
8075	0	32304	
8076	0	32280	
8077	0	32248	
8078	0	32248	
8079	0	32272	
8080	0	32296	
8081	0	32320	
8082	0	32332	
8083	0	32352	
8084	0	32372	
8085	0	32396	
8086	0	32440	
8087	0	32466	
8088	0	32496	
8089	0	32520	
8090	0	32520	
8091	0	32516	
8092	0	32516	
8093	0	32516	
8094	0	32524	
8095	0	32504	
8096	0	32508	
8097	0	32504	
8098	0	32532	
8099	0	32568	
8100	0	32584	
8101	0	32604	
8102	0	32632	
8103	0	32664	
8104	0	32704	
8105	0	32732	
8106	0	32752	
8107	0	32764	
8108	0	32752	
8109	0	32736	
8110	0	32728	
8111	0	32704	
8112	0	32700	
8113	0	32672	
8114	0	32642	
8115	0	32616	
8116	0	32568	
8117	0	32600	
8118	0	32648	
8119	0	32666	
8120	0	32698	
8121	0	32728	
8122	0	32772	
8123	0	32824	
8124	0	32864	
8125	0	32872	
8126	0	32904	
8127	0	32906	
8128	0	32928	
8129	0	32920	
8130	0	32896	
8131	0	32876	
8132	0	32880	
8133	0	32880	
8134	0	32864	
8135	0	32844	
8136	0	32826	
8137	0	32816	
8138	0	32796	
8139	0	32802	
8140	0	32820	
8141	0	32848	
8142	0	32872	
8143	0	32884	
8144	0	32896	
8145	0	32896	
8146	0	32908	
8147	0	32928	
8148	0	32916	
8149	0	32880	
8150	0	32868	
8151	0	32836	
8152	0	32808	
8153	0	32772	
8154	0	32744	
8155	0	32740	
8156	0	32716	
8157	0	32708	
8158	0	32728	
8159	0	32732	
8160	0	32756	
8161	0	32780	
8162	0	32816	
8163	0	32844	
8164	0	32848	
8165	0	32848	
8166	0	32848	
8167	0	32852	
8168	0	32860	
8169	0	32848	
8170	0	32864	
8171	0	32832	
8172	0	32800	
8173	0	32778	
8174	0	32740	
8175	0	32706	
8176	0	32684	
8177	0	32668	
8178	0	32668	
8179	0	32656	
8180	0	32660	
8181	0	32656	
8182	0	32672	
8183	0	32692	
8184	0	32704	
8185	0	32720	
8186	0	32752	
8187	0	32778	
8188	0	32780	
8189	0	32784	
8190	0	32762	
8191	0	32744	
8192	0	32732	
8193	0	32701	
8194	0	32696	
8195	0	32684	
8196	0	32668	
8197	0	32664	
8198	0	32672	
8199	0	32688	
8200	0	32688	
8201	0	32684	
8202	0	32720	
8203	0	32740	
8204	0	32768	
8205	0	32816	
8206	0	32856	
8207	0	32892	
8208	0	32920	
8209	0	32936	
8210	0	32932	
8211	0	32952	
8212	0	32964	
8213	0	32968	
8214	0	32968	
8215	0	32964	
8216	0	32956	
8217	0	32952	
8218	0	32952	
8219	0	32944	
8220	0	32960	
8221	0	32984	
8222	0	32976	
8223	0	33000	
8224	0	33032	
8225	0	33076	
8226	0	33096	
8227	0	33136	
8228	0	33144	
8229	0	33152	
8230	0	33128	
8231	0	33136	
8232	0	33120	
8233	0	33100	
8234	0	33080	
8235	0	33056	
8236	0	33068	
8237	0	33104	
8238	0	33120	
8239	0	33140	
8240	0	33164	
8241	0	33224	
8242	0	33280	
8243	0	33328	
8244	0	33376	
8245	0	33436	
8246	0	33472	
8247	0	33500	
8248	0	33484	
8249	0	33464	
8250	0	33416	
8251	0	33384	
8252	0	33388	
8253	0	33376	
8254	0	33372	
8255	0	33388	
8256	0	33392	
8257	0	33428	
8258	0	33480	
8259	0	33480	
8260	0	33480	
8261	0	33508	
8262	0	33584	
8263	0	33668	
8264	0	33792	
8265	0	33936	
8266	0	34098	
8267	0	34200	
8268	0	34300	
8269	0	34348	
8270	0	34432	
8271	0	34484	
8272	0	34528	
8273	0	34572	
8274	0	34624	
8275	0	34640	
8276	0	34656	
8277	0	34660	
8278	0	34700	
8279	0	34752	
8280	0	34752	
8281	0	34704	
8282	0	34656	
8283	0	34592	
8284	0	34520	
8285	0	34436	
8286	0	34380	
8287	0	34324	
8288	0	34224	
8289	0	34112	
8290	0	33996	
8291	0	33912	
8292	0	33828	
8293	0	33732	
8294	0	33640	
8295	0	33612	
8296	0	33592	
8297	0	33528	
8298	0	33492	
8299	0	33464	
8300	0	33460	
8301	0	33448	
8302	0	33424	
8303	0	33388	
8304	0	33356	
8305	0	33320	
8306	0	33276	
8307	0	33242	
8308	0	33224	
8309	0	33228	
8310	0	33228	
8311	0	33216	
8312	0	33208	
8313	0	33156	
8314	0	33104	
8315	0	33040	
8316	0	32992	
8317	0	32996	
8318	0	32960	
8319	0	32916	
8320	0	32912	
8321	0	32904	
8322	0	32856	
8323	0	32816	
8324	0	32756	
8325	0	32728	
8326	0	32704	
8327	0	32660	
8328	0	32636	
8329	0	32600	
8330	0	32576	
8331	0	32556	
8332	0	32552	
8333	0	32534	
8334	0	32512	
8335	0	32488	
8336	0	32472	
8337	0	32480	
8338	0	32500	
8339	0	32488	
8340	0	32472	
8341	0	32450	
8342	0	32400	
8343	0	32352	
8344	0	32356	
8345	0	32384	
8346	0	32396	
8347	0	32408	
8348	0	32416	
8349	0	32448	
8350	0	32484	
8351	0	32496	
8352	0	32480	
8353	0	32476	
8354	0	32496	
8355	0	32496	
8356	0	32498	
8357	0	32488	
8358	0	32480	
8359	0	32512	
8360	0	32536	
8361	0	32572	
8362	0	32604	
8363	0	32664	
8364	0	32712	
8365	0	32760	
8366	0	32760	
8367	0	32736	
8368	0	32740	
8369	0	32716	
8370	0	32696	
8371	0	32700	
8372	0	32678	
8373	0	32672	
8374	0	32672	
8375	0	32676	
8376	0	32692	
8377	0	32672	
8378	0	32632	
8379	0	32620	
8380	0	32656	
8381	0	32668	
8382	0	32680	
8383	0	32700	
8384	0	32708	
8385	0	32750	
8386	0	32776	
8387	0	32792	
8388	0	32796	
8389	0	32784	
8390	0	32794	
8391	0	32808	
8392	0	32816	
8393	0	32856	
8394	0	32944	
8395	0	33032	
8396	0	33084	
8397	0	33108	
8398	0	33128	
8399	0	33108	
8400	0	33086	
8401	0	33060	
8402	0	33028	
8403	0	32956	
8404	0	32904	
8405	0	32864	
8406	0	32876	
8407	0	33060	
8408	0	33308	
8409	0	33540	
8410	0	33780	
8411	0	34008	
8412	0	34208	
8413	0	34348	
8414	0	34432	
8415	0	34548	
8416	0	34756	
8417	0	35084	
8418	0	35586	
8419	0	36216	
8420	0	37012	
8421	0	37944	
8422	0	39056	
8423	0	40292	
8424	0	41528	
8425	0	42784	
8426	0	44128	
8427	0	45512	
8428	0	46968	
8429	0	48312	
8430	0	49404	
8431	0	50304	
8432	0	51200	
8433	0	52168	
8434	0	53136	
8435	0	53896	
8436	0	54296	
8437	0	53908	
8438	0	52512	
8439	0	50100	
8440	0	47176	
8441	0	44020	
8442	0	40836	
8443	0	37864	
8444	0	35312	
8445	0	33476	
8446	0	32344	
8447	0	31612	
8448	0	31140	
8449	0	30852	
8450	0	30688	
8451	0	30580	
8452	0	30564	
8453	0	30602	
8454	0	30664	
8455	0	30732	
8456	0	30840	
8457	0	30946	
8458	0	31116	
8459	0	31248	
8460	0	31380	
8461	0	31540	
8462	0	31704	
8463	0	31852	
8464	0	32008	
8465	0	32112	
8466	0	32180	
8467	0	32234	
8468	0	32260	
8469	0	32224	
8470	0	32172	
8471	0	32120	
8472	0	32092	
8473	0	32060	
8474	0	31982	
8475	0	31924	
8476	0	31896	
8477	0	31844	
8478	0	31828	
8479	0	31816	
8480	0	31792	
8481	0	31772	
8482	0	31760	
8483	0	31784	
8484	0	31824	
8485	0	31860	
8486	0	31864	
8487	0	31852	
8488	0	31832	
8489	0	31812	
8490	0	31796	
8491	0	31792	
8492	0	31780	
8493	0	31760	
8494	0	31732	
8495	0	31720	
8496	0	31712	
8497	0	31684	
8498	0	31680	
8499	0	31720	
8500	0	31764	
8501	0	31804	
8502	0	31844	
8503	0	31880	
8504	0	31920	
8505	0	31952	
8506	0	32004	
8507	0	32048	
8508	0	32072	
8509	0	32116	
8510	0	32132	
8511	0	32136	
8512	0	32138	
8513	0	32156	
8514	0	32176	
8515	0	32164	
8516	0	32160	
8517	0	32160	
8518	0	32160	
8519	0	32192	
8520	0	32216	
8521	0	32260	
8522	0	32304	
8523	0	32364	
8524	0	32408	
8525	0	32448	
8526	0	32492	
8527	0	32520	
8528	0	32540	
8529	0	32560	
8530	0	32548	
8531	0	32568	
8532	0	32588	
8533	0	32572	
8534	0	32544	
8535	0	32528	
8536	0	32554	
8537	0	32572	
8538	0	32596	
8539	0	32608	
8540	0	32652	
8541	0	32680	
8542	0	32696	
8543	0	32700	
8544	0	32728	
8545	0	32756	
8546	0	32744	
8547	0	32720	
8548	0	32698	
8549	0	32684	
8550	0	32680	
8551	0	32656	
8552	0	32624	
8553	0	32644	
8554	0	32676	
8555	0	32680	
8556	0	32660	
8557	0	32652	
8558	0	32636	
8559	0	32640	
8560	0	32628	
8561	0	32640	
8562	0	32664	
8563	0	32680	
8564	0	32728	
8565	0	32764	
8566	0	32802	
8567	0	32834	
8568	0	32872	
8569	0	32928	
8570	0	32976	
8571	0	32978	
8572	0	32976	
8573	0	32960	
8574	0	32944	
8575	0	32908	
8576	0	32900	
8577	0	32900	
8578	0	32892	
8579	0	32908	
8580	0	32960	
8581	0	33008	
8582	0	33076	
8583	0	33140	
8584	0	33196	
8585	0	33248	
8586	0	33304	
8587	0	33324	
8588	0	33356	
8589	0	33364	
8590	0	33324	
8591	0	33320	
8592	0	33348	
