# OpenSignals Text File Format. Version 1
# {"00:07:80:4B:15:F7": {"position": 0, "device": "biosignalsplux", "device name": "00:07:80:4B:15:F7", "device connection": "BTH00:07:80:4B:15:F7", "sampling rate": 1000, "resolution": [16], "firmware version": 775, "comments": "", "keywords": "", "mode": 0, "sync interval": 2, "date": "2023-3-14", "time": "14:29:18.593", "channels": [1], "sensor": ["ECG"], "label": ["CH1"], "column": ["nSeq", "DI", "CH1"], "special": [{"SpO2": [80, 40, 5, 4, 3, 3]}, {"SpO2": [80, 40, 5, 4, 3, 3]}, {"SpO2": [80, 40, 5, 4, 3, 3]}, {"SpO2": [80, 40, 5, 4, 3, 3]}, {"SpO2": [80, 40, 5, 4, 3, 3]}, {"SpO2": [80, 40, 5, 4, 3, 3]}, {"SpO2": [80, 40, 5, 4, 3, 3]}, {"SpO2": [80, 40, 5, 4, 3, 3]}], "digital IO": [0, 1], "sleeve color": ["green"], "convertedValues": 0}}
# EndOfHeader
0	0	31840	
1	0	31865	
2	0	31906	
3	0	31912	
4	0	31904	
5	0	31936	
6	0	31968	
7	0	32036	
8	0	32066	
9	0	32076	
10	0	32060	
11	0	32012	
12	0	32000	
13	0	31968	
14	0	31960	
15	0	31980	
16	0	31980	
17	0	31968	
18	0	31980	
19	0	31996	
20	0	32000	
21	0	32020	
22	0	32052	
23	0	32072	
24	0	32072	
25	0	32084	
26	0	32100	
27	0	32124	
28	0	32140	
29	0	32180	
30	0	32192	
31	0	32200	
32	0	32192	
33	0	32188	
34	0	32176	
35	0	32164	
36	0	32104	
37	0	32012	
38	0	31972	
39	0	32004	
40	0	32008	
41	0	32032	
42	0	32056	
43	0	32082	
44	0	32084	
45	0	32108	
46	0	32140	
47	0	32164	
48	0	32200	
49	0	32244	
50	0	32276	
51	0	32272	
52	0	32240	
53	0	32282	
54	0	32264	
55	0	32216	
56	0	32200	
57	0	32180	
58	0	32164	
59	0	32148	
60	0	32148	
61	0	32172	
62	0	32220	
63	0	32232	
64	0	32208	
65	0	32168	
66	0	32160	
67	0	32168	
68	0	32166	
69	0	32192	
70	0	32200	
71	0	32200	
72	0	32196	
73	0	32176	
74	0	32172	
75	0	32176	
76	0	32212	
77	0	32268	
78	0	32312	
79	0	32320	
80	0	32376	
81	0	32468	
82	0	32552	
83	0	32600	
84	0	32592	
85	0	32604	
86	0	32616	
87	0	32624	
88	0	32652	
89	0	32664	
90	0	32640	
91	0	32596	
92	0	32552	
93	0	32528	
94	0	32496	
95	0	32484	
96	0	32456	
97	0	32432	
98	0	32440	
99	0	32476	
100	0	32556	
101	0	32684	
102	0	32848	
103	0	33000	
104	0	33140	
105	0	33288	
106	0	33466	
107	0	33572	
108	0	33692	
109	0	33836	
110	0	33976	
111	0	34016	
112	0	34048	
113	0	34080	
114	0	34144	
115	0	34224	
116	0	34292	
117	0	34280	
118	0	34232	
119	0	34144	
120	0	34040	
121	0	33920	
122	0	33802	
123	0	33676	
124	0	33568	
125	0	33476	
126	0	33376	
127	0	33300	
128	0	33242	
129	0	33140	
130	0	32998	
131	0	32868	
132	0	32768	
133	0	32684	
134	0	32648	
135	0	32596	
136	0	32528	
137	0	32474	
138	0	32468	
139	0	32432	
140	0	32464	
141	0	32520	
142	0	32580	
143	0	32624	
144	0	32648	
145	0	32660	
146	0	32680	
147	0	32724	
148	0	32708	
149	0	32664	
150	0	32642	
151	0	32600	
152	0	32542	
153	0	32504	
154	0	32468	
155	0	32440	
156	0	32380	
157	0	32316	
158	0	32284	
159	0	32236	
160	0	32184	
161	0	32156	
162	0	32116	
163	0	32084	
164	0	32032	
165	0	32022	
166	0	32044	
167	0	32060	
168	0	32064	
169	0	32092	
170	0	32092	
171	0	32058	
172	0	32024	
173	0	31994	
174	0	31968	
175	0	31944	
176	0	31904	
177	0	31920	
178	0	31928	
179	0	31940	
180	0	31992	
181	0	32032	
182	0	32088	
183	0	32128	
184	0	32184	
185	0	32216	
186	0	32272	
187	0	32320	
188	0	32324	
189	0	32380	
190	0	32392	
191	0	32376	
192	0	32356	
193	0	32338	
194	0	32328	
195	0	32306	
196	0	32264	
197	0	32220	
198	0	32200	
199	0	32208	
200	0	32240	
201	0	32276	
202	0	32304	
203	0	32344	
204	0	32368	
205	0	32420	
206	0	32480	
207	0	32500	
208	0	32536	
209	0	32572	
210	0	32576	
211	0	32576	
212	0	32608	
213	0	32592	
214	0	32572	
215	0	32536	
216	0	32508	
217	0	32480	
218	0	32460	
219	0	32452	
220	0	32464	
221	0	32508	
222	0	32560	
223	0	32610	
224	0	32624	
225	0	32616	
226	0	32640	
227	0	32644	
228	0	32664	
229	0	32720	
230	0	32720	
231	0	32696	
232	0	32656	
233	0	32652	
234	0	32712	
235	0	32776	
236	0	32832	
237	0	32880	
238	0	32932	
239	0	32936	
240	0	32960	
241	0	32968	
242	0	32924	
243	0	32880	
244	0	32840	
245	0	32838	
246	0	32928	
247	0	33184	
248	0	33488	
249	0	33764	
250	0	34084	
251	0	34336	
252	0	34540	
253	0	34632	
254	0	34684	
255	0	34752	
256	0	34952	
257	0	35380	
258	0	35956	
259	0	36656	
260	0	37536	
261	0	38600	
262	0	39888	
263	0	41224	
264	0	42516	
265	0	43824	
266	0	45280	
267	0	46844	
268	0	48416	
269	0	49808	
270	0	50952	
271	0	51904	
272	0	52804	
273	0	53816	
274	0	54800	
275	0	55516	
276	0	55780	
277	0	55136	
278	0	53372	
279	0	50644	
280	0	47368	
281	0	43852	
282	0	40372	
283	0	37248	
284	0	34728	
285	0	33000	
286	0	31872	
287	0	31184	
288	0	30796	
289	0	30604	
290	0	30464	
291	0	30356	
292	0	30304	
293	0	30348	
294	0	30460	
295	0	30592	
296	0	30728	
297	0	30904	
298	0	31040	
299	0	31172	
300	0	31328	
301	0	31508	
302	0	31652	
303	0	31784	
304	0	31880	
305	0	31956	
306	0	32004	
307	0	32018	
308	0	32036	
309	0	32052	
310	0	32028	
311	0	31976	
312	0	31912	
313	0	31844	
314	0	31764	
315	0	31680	
316	0	31668	
317	0	31660	
318	0	31628	
319	0	31596	
320	0	31596	
321	0	31648	
322	0	31692	
323	0	31732	
324	0	31768	
325	0	31812	
326	0	31812	
327	0	31828	
328	0	31856	
329	0	31884	
330	0	31900	
331	0	31908	
332	0	31908	
333	0	31880	
334	0	31896	
335	0	31932	
336	0	31924	
337	0	31912	
338	0	31932	
339	0	31960	
340	0	32004	
341	0	32048	
342	0	32056	
343	0	32060	
344	0	32088	
345	0	32128	
346	0	32152	
347	0	32148	
348	0	32156	
349	0	32156	
350	0	32120	
351	0	32112	
352	0	32104	
353	0	32104	
354	0	32104	
355	0	32116	
356	0	32120	
357	0	32120	
358	0	32132	
359	0	32128	
360	0	32164	
361	0	32228	
362	0	32280	
363	0	32320	
364	0	32380	
365	0	32432	
366	0	32452	
367	0	32488	
368	0	32512	
369	0	32536	
370	0	32536	
371	0	32532	
372	0	32528	
373	0	32508	
374	0	32508	
375	0	32520	
376	0	32540	
377	0	32568	
378	0	32572	
379	0	32580	
380	0	32620	
381	0	32664	
382	0	32696	
383	0	32724	
384	0	32746	
385	0	32784	
386	0	32864	
387	0	32936	
388	0	32976	
389	0	33012	
390	0	33000	
391	0	33022	
392	0	33068	
393	0	33064	
394	0	33084	
395	0	33084	
396	0	33080	
397	0	33104	
398	0	33116	
399	0	33128	
400	0	33122	
401	0	33156	
402	0	33184	
403	0	33230	
404	0	33292	
405	0	33344	
406	0	33360	
407	0	33388	
408	0	33384	
409	0	33396	
410	0	33392	
411	0	33376	
412	0	33380	
413	0	33368	
414	0	33378	
415	0	33412	
416	0	33436	
417	0	33416	
418	0	33392	
419	0	33420	
420	0	33448	
421	0	33484	
422	0	33540	
423	0	33560	
424	0	33594	
425	0	33624	
426	0	33644	
427	0	33664	
428	0	33688	
429	0	33720	
430	0	33732	
431	0	33720	
432	0	33720	
433	0	33728	
434	0	33748	
435	0	33748	
436	0	33744	
437	0	33714	
438	0	33732	
439	0	33784	
440	0	33816	
441	0	33832	
442	0	33824	
443	0	33836	
444	0	33832	
445	0	33848	
446	0	33888	
447	0	33944	
448	0	33968	
449	0	33984	
450	0	33956	
451	0	33932	
452	0	33920	
453	0	33908	
454	0	33872	
455	0	33872	
456	0	33876	
457	0	33900	
458	0	33908	
459	0	33952	
460	0	33996	
461	0	34016	
462	0	34064	
463	0	34104	
464	0	34144	
465	0	34174	
466	0	34196	
467	0	34232	
468	0	34240	
469	0	34268	
470	0	34284	
471	0	34236	
472	0	34218	
473	0	34228	
474	0	34216	
475	0	34220	
476	0	34200	
477	0	34176	
478	0	34186	
479	0	34212	
480	0	34224	
481	0	34264	
482	0	34340	
483	0	34360	
484	0	34368	
485	0	34396	
486	0	34400	
487	0	34392	
488	0	34380	
489	0	34348	
490	0	34312	
491	0	34240	
492	0	34208	
493	0	34180	
494	0	34148	
495	0	34132	
496	0	34152	
497	0	34152	
498	0	34136	
499	0	34120	
500	0	34120	
501	0	34144	
502	0	34168	
503	0	34176	
504	0	34172	
505	0	34192	
506	0	34200	
507	0	34224	
508	0	34212	
509	0	34228	
510	0	34204	
511	0	34156	
512	0	34104	
513	0	34052	
514	0	34008	
515	0	34016	
516	0	34036	
517	0	34016	
518	0	34034	
519	0	34028	
520	0	34052	
521	0	34088	
522	0	34128	
523	0	34164	
524	0	34160	
525	0	34144	
526	0	34120	
527	0	34072	
528	0	34058	
529	0	34064	
530	0	34016	
531	0	33984	
532	0	33952	
533	0	33928	
534	0	33904	
535	0	33896	
536	0	33900	
537	0	33876	
538	0	33864	
539	0	33856	
540	0	33828	
541	0	33804	
542	0	33808	
543	0	33828	
544	0	33832	
545	0	33832	
546	0	33776	
547	0	33736	
548	0	33652	
549	0	33600	
550	0	33504	
551	0	33408	
552	0	33328	
553	0	33224	
554	0	33104	
555	0	33028	
556	0	32936	
557	0	32864	
558	0	32796	
559	0	32728	
560	0	32672	
561	0	32608	
562	0	32532	
563	0	32444	
564	0	32384	
565	0	32336	
566	0	32272	
567	0	32224	
568	0	32184	
569	0	32112	
570	0	32042	
571	0	31936	
572	0	31840	
573	0	31744	
574	0	31676	
575	0	31604	
576	0	31504	
577	0	31404	
578	0	31292	
579	0	31228	
580	0	31208	
581	0	31188	
582	0	31148	
583	0	31112	
584	0	31088	
585	0	31048	
586	0	30992	
587	0	30968	
588	0	30922	
589	0	30888	
590	0	30816	
591	0	30754	
592	0	30712	
593	0	30666	
594	0	30606	
595	0	30560	
596	0	30528	
597	0	30528	
598	0	30488	
599	0	30452	
600	0	30436	
601	0	30468	
602	0	30476	
603	0	30458	
604	0	30440	
605	0	30440	
606	0	30440	
607	0	30460	
608	0	30476	
609	0	30448	
610	0	30428	
611	0	30412	
612	0	30364	
613	0	30364	
614	0	30368	
615	0	30388	
616	0	30360	
617	0	30384	
618	0	30408	
619	0	30412	
620	0	30448	
621	0	30528	
622	0	30584	
623	0	30600	
624	0	30640	
625	0	30680	
626	0	30704	
627	0	30752	
628	0	30816	
629	0	30840	
630	0	30824	
631	0	30804	
632	0	30820	
633	0	30800	
634	0	30756	
635	0	30776	
636	0	30784	
637	0	30804	
638	0	30836	
639	0	30854	
640	0	30912	
641	0	30960	
642	0	31024	
643	0	31036	
644	0	31064	
645	0	31068	
646	0	31076	
647	0	31102	
648	0	31168	
649	0	31224	
650	0	31248	
651	0	31256	
652	0	31256	
653	0	31242	
654	0	31212	
655	0	31184	
656	0	31176	
657	0	31180	
658	0	31212	
659	0	31296	
660	0	31324	
661	0	31346	
662	0	31380	
663	0	31416	
664	0	31444	
665	0	31488	
666	0	31554	
667	0	31612	
668	0	31656	
669	0	31668	
670	0	31656	
671	0	31649	
672	0	31656	
673	0	31684	
674	0	31714	
675	0	31748	
676	0	31732	
677	0	31728	
678	0	31716	
679	0	31720	
680	0	31760	
681	0	31788	
682	0	31820	
683	0	31840	
684	0	31848	
685	0	31840	
686	0	31832	
687	0	31872	
688	0	31880	
689	0	31872	
690	0	31864	
691	0	31852	
692	0	31864	
693	0	31872	
694	0	31860	
695	0	31852	
696	0	31848	
697	0	31856	
698	0	31856	
699	0	31896	
700	0	31912	
701	0	31960	
702	0	32020	
703	0	32044	
704	0	32088	
705	0	32120	
706	0	32152	
707	0	32156	
708	0	32164	
709	0	32176	
710	0	32120	
711	0	32064	
712	0	32024	
713	0	32032	
714	0	32032	
715	0	32000	
716	0	31972	
717	0	31948	
718	0	31936	
719	0	31924	
720	0	31936	
721	0	31962	
722	0	31980	
723	0	32008	
724	0	32022	
725	0	32033	
726	0	32064	
727	0	32064	
728	0	32072	
729	0	32068	
730	0	32048	
731	0	32000	
732	0	31972	
733	0	31932	
734	0	31924	
735	0	31940	
736	0	31936	
737	0	31932	
738	0	31972	
739	0	32000	
740	0	32040	
741	0	32052	
742	0	32092	
743	0	32100	
744	0	32092	
745	0	32120	
746	0	32136	
747	0	32144	
748	0	32172	
749	0	32140	
750	0	32080	
751	0	32044	
752	0	32032	
753	0	32008	
754	0	31994	
755	0	32008	
756	0	32036	
757	0	32024	
758	0	32010	
759	0	32024	
760	0	32016	
761	0	32044	
762	0	32076	
763	0	32104	
764	0	32116	
765	0	32132	
766	0	32156	
767	0	32200	
768	0	32220	
769	0	32188	
770	0	32136	
771	0	32116	
772	0	32104	
773	0	32096	
774	0	32076	
775	0	32064	
776	0	32072	
777	0	32068	
778	0	32052	
779	0	32092	
780	0	32144	
781	0	32156	
782	0	32168	
783	0	32148	
784	0	32168	
785	0	32192	
786	0	32216	
787	0	32260	
788	0	32268	
789	0	32236	
790	0	32212	
791	0	32216	
792	0	32244	
793	0	32244	
794	0	32232	
795	0	32224	
796	0	32200	
797	0	32178	
798	0	32164	
799	0	32172	
800	0	32224	
801	0	32288	
802	0	32344	
803	0	32388	
804	0	32424	
805	0	32456	
806	0	32464	
807	0	32472	
808	0	32492	
809	0	32504	
810	0	32468	
811	0	32424	
812	0	32384	
813	0	32368	
814	0	32360	
815	0	32352	
816	0	32308	
817	0	32312	
818	0	32312	
819	0	32288	
820	0	32308	
821	0	32316	
822	0	32320	
823	0	32340	
824	0	32352	
825	0	32380	
826	0	32396	
827	0	32392	
828	0	32376	
829	0	32336	
830	0	32304	
831	0	32304	
832	0	32288	
833	0	32264	
834	0	32244	
835	0	32216	
836	0	32240	
837	0	32262	
838	0	32264	
839	0	32290	
840	0	32320	
841	0	32312	
842	0	32304	
843	0	32336	
844	0	32364	
845	0	32408	
846	0	32424	
847	0	32420	
848	0	32412	
849	0	32428	
850	0	32436	
851	0	32412	
852	0	32388	
853	0	32348	
854	0	32348	
855	0	32356	
856	0	32380	
857	0	32416	
858	0	32444	
859	0	32504	
860	0	32536	
861	0	32540	
862	0	32548	
863	0	32554	
864	0	32576	
865	0	32608	
866	0	32616	
867	0	32648	
868	0	32676	
869	0	32656	
870	0	32628	
871	0	32632	
872	0	32648	
873	0	32640	
874	0	32640	
875	0	32624	
876	0	32592	
877	0	32560	
878	0	32528	
879	0	32540	
880	0	32592	
881	0	32644	
882	0	32670	
883	0	32692	
884	0	32704	
885	0	32740	
886	0	32736	
887	0	32752	
888	0	32748	
889	0	32712	
890	0	32704	
891	0	32704	
892	0	32708	
893	0	32704	
894	0	32704	
895	0	32704	
896	0	32728	
897	0	32720	
898	0	32704	
899	0	32708	
900	0	32736	
901	0	32756	
902	0	32796	
903	0	32848	
904	0	32912	
905	0	32916	
906	0	32888	
907	0	32856	
908	0	32884	
909	0	32916	
910	0	32892	
911	0	32872	
912	0	32864	
913	0	32856	
914	0	32856	
915	0	32868	
916	0	32872	
917	0	32880	
918	0	32864	
919	0	32856	
920	0	32852	
921	0	32856	
922	0	32888	
923	0	32888	
924	0	32900	
925	0	32932	
926	0	32936	
927	0	32952	
928	0	32976	
929	0	32992	
930	0	32992	
931	0	32960	
932	0	32944	
933	0	32896	
934	0	32888	
935	0	32896	
936	0	32868	
937	0	32848	
938	0	32860	
939	0	32910	
940	0	32960	
941	0	33024	
942	0	33088	
943	0	33148	
944	0	33236	
945	0	33312	
946	0	33360	
947	0	33408	
948	0	33440	
949	0	33440	
950	0	33396	
951	0	33326	
952	0	33292	
953	0	33256	
954	0	33200	
955	0	33156	
956	0	33144	
957	0	33136	
958	0	33082	
959	0	33080	
960	0	33120	
961	0	33176	
962	0	33204	
963	0	33264	
964	0	33380	
965	0	33492	
966	0	33608	
967	0	33768	
968	0	33904	
969	0	34004	
970	0	34080	
971	0	34160	
972	0	34244	
973	0	34324	
974	0	34408	
975	0	34464	
976	0	34516	
977	0	34564	
978	0	34616	
979	0	34660	
980	0	34640	
981	0	34608	
982	0	34540	
983	0	34448	
984	0	34328	
985	0	34248	
986	0	34156	
987	0	34040	
988	0	33994	
989	0	33924	
990	0	33832	
991	0	33748	
992	0	33642	
993	0	33564	
994	0	33524	
995	0	33456	
996	0	33376	
997	0	33328	
998	0	33320	
999	0	33308	
1000	0	33280	
1001	0	33268	
1002	0	33248	
1003	0	33220	
1004	0	33240	
1005	0	33216	
1006	0	33208	
1007	0	33216	
1008	0	33220	
1009	0	33220	
1010	0	33210	
1011	0	33188	
1012	0	33108	
1013	0	33048	
1014	0	33004	
1015	0	33000	
1016	0	32980	
1017	0	32948	
1018	0	32888	
1019	0	32848	
1020	0	32832	
1021	0	32824	
1022	0	32816	
1023	0	32772	
1024	0	32724	
1025	0	32684	
1026	0	32634	
1027	0	32596	
1028	0	32596	
1029	0	32588	
1030	0	32562	
1031	0	32544	
1032	0	32500	
1033	0	32472	
1034	0	32472	
1035	0	32460	
1036	0	32424	
1037	0	32380	
1038	0	32348	
1039	0	32336	
1040	0	32376	
1041	0	32416	
1042	0	32432	
1043	0	32436	
1044	0	32464	
1045	0	32480	
1046	0	32480	
1047	0	32468	
1048	0	32480	
1049	0	32488	
1050	0	32500	
1051	0	32500	
1052	0	32500	
1053	0	32480	
1054	0	32488	
1055	0	32480	
1056	0	32444	
1057	0	32430	
1058	0	32416	
1059	0	32404	
1060	0	32432	
1061	0	32488	
1062	0	32528	
1063	0	32552	
1064	0	32560	
1065	0	32552	
1066	0	32536	
1067	0	32540	
1068	0	32552	
1069	0	32544	
1070	0	32532	
1071	0	32524	
1072	0	32528	
1073	0	32524	
1074	0	32508	
1075	0	32500	
1076	0	32480	
1077	0	32424	
1078	0	32408	
1079	0	32448	
1080	0	32496	
1081	0	32520	
1082	0	32532	
1083	0	32556	
1084	0	32576	
1085	0	32588	
1086	0	32608	
1087	0	32632	
1088	0	32624	
1089	0	32592	
1090	0	32564	
1091	0	32508	
1092	0	32472	
1093	0	32456	
1094	0	32464	
1095	0	32512	
1096	0	32560	
1097	0	32612	
1098	0	32672	
1099	0	32752	
1100	0	32804	
1101	0	32860	
1102	0	32876	
1103	0	32792	
1104	0	32744	
1105	0	32730	
1106	0	32680	
1107	0	32696	
1108	0	32878	
1109	0	33124	
1110	0	33388	
1111	0	33672	
1112	0	33896	
1113	0	34080	
1114	0	34228	
1115	0	34330	
1116	0	34416	
1117	0	34560	
1118	0	34926	
1119	0	35456	
1120	0	36072	
1121	0	36876	
1122	0	37820	
1123	0	38960	
1124	0	40136	
1125	0	41344	
1126	0	42616	
1127	0	43996	
1128	0	45416	
1129	0	46836	
1130	0	48128	
1131	0	49200	
1132	0	50120	
1133	0	50972	
1134	0	51980	
1135	0	53016	
1136	0	53800	
1137	0	54196	
1138	0	53760	
1139	0	52224	
1140	0	49748	
1141	0	46672	
1142	0	43360	
1143	0	40076	
1144	0	37112	
1145	0	34688	
1146	0	32992	
1147	0	31936	
1148	0	31304	
1149	0	30948	
1150	0	30772	
1151	0	30660	
1152	0	30588	
1153	0	30576	
1154	0	30608	
1155	0	30708	
1156	0	30816	
1157	0	30948	
1158	0	31068	
1159	0	31198	
1160	0	31340	
1161	0	31476	
1162	0	31628	
1163	0	31820	
1164	0	31964	
1165	0	32012	
1166	0	32052	
1167	0	32088	
1168	0	32110	
1169	0	32092	
1170	0	32008	
1171	0	31944	
1172	0	31880	
1173	0	31816	
1174	0	31776	
1175	0	31728	
1176	0	31676	
1177	0	31644	
1178	0	31600	
1179	0	31584	
1180	0	31578	
1181	0	31576	
1182	0	31566	
1183	0	31576	
1184	0	31620	
1185	0	31664	
1186	0	31678	
1187	0	31696	
1188	0	31692	
1189	0	31668	
1190	0	31668	
1191	0	31668	
1192	0	31664	
1193	0	31656	
1194	0	31616	
1195	0	31601	
1196	0	31564	
1197	0	31564	
1198	0	31560	
1199	0	31612	
1200	0	31672	
1201	0	31696	
1202	0	31748	
1203	0	31800	
1204	0	31876	
1205	0	31912	
1206	0	31921	
1207	0	31940	
1208	0	31960	
1209	0	31962	
1210	0	31964	
1211	0	31972	
1212	0	31956	
1213	0	31940	
1214	0	31940	
1215	0	31924	
1216	0	31924	
1217	0	31924	
1218	0	31916	
1219	0	31944	
1220	0	31996	
1221	0	32056	
1222	0	32092	
1223	0	32112	
1224	0	32132	
1225	0	32132	
1226	0	32132	
1227	0	32164	
1228	0	32208	
1229	0	32186	
1230	0	32168	
1231	0	32160	
1232	0	32144	
1233	0	32156	
1234	0	32168	
1235	0	32188	
1236	0	32208	
1237	0	32234	
1238	0	32264	
1239	0	32296	
1240	0	32336	
1241	0	32360	
1242	0	32364	
1243	0	32376	
1244	0	32430	
1245	0	32468	
1246	0	32508	
1247	0	32540	
1248	0	32568	
1249	0	32556	
1250	0	32560	
1251	0	32540	
1252	0	32536	
1253	0	32520	
1254	0	32516	
1255	0	32520	
1256	0	32482	
1257	0	32500	
1258	0	32552	
1259	0	32584	
1260	0	32628	
1261	0	32648	
1262	0	32640	
1263	0	32648	
1264	0	32684	
1265	0	32728	
1266	0	32768	
1267	0	32784	
1268	0	32800	
1269	0	32820	
1270	0	32808	
1271	0	32816	
1272	0	32824	
1273	0	32820	
1274	0	32826	
1275	0	32792	
1276	0	32832	
1277	0	32884	
1278	0	32912	
1279	0	32952	
1280	0	32984	
1281	0	33004	
1282	0	33048	
1283	0	33084	
1284	0	33112	
1285	0	33120	
1286	0	33108	
1287	0	33116	
1288	0	33120	
1289	0	33100	
1290	0	33064	
1291	0	33052	
1292	0	33056	
1293	0	33048	
1294	0	33056	
1295	0	33034	
1296	0	33000	
1297	0	32976	
1298	0	32972	
1299	0	32984	
1300	0	33032	
1301	0	33066	
1302	0	33068	
1303	0	33088	
1304	0	33088	
1305	0	33112	
1306	0	33160	
1307	0	33168	
1308	0	33196	
1309	0	33196	
1310	0	33176	
1311	0	33124	
1312	0	33084	
1313	0	33052	
1314	0	33036	
1315	0	32994	
1316	0	32988	
1317	0	33036	
1318	0	33060	
1319	0	33108	
1320	0	33176	
1321	0	33240	
1322	0	33280	
1323	0	33312	
1324	0	33356	
1325	0	33380	
1326	0	33396	
1327	0	33442	
1328	0	33480	
1329	0	33472	
1330	0	33452	
1331	0	33440	
1332	0	33416	
1333	0	33432	
1334	0	33456	
1335	0	33460	
1336	0	33484	
1337	0	33496	
1338	0	33524	
1339	0	33568	
1340	0	33624	
1341	0	33668	
1342	0	33698	
1343	0	33722	
1344	0	33740	
1345	0	33728	
1346	0	33756	
1347	0	33764	
1348	0	33770	
1349	0	33768	
1350	0	33760	
1351	0	33756	
1352	0	33744	
1353	0	33720	
1354	0	33696	
1355	0	33676	
1356	0	33668	
1357	0	33688	
1358	0	33696	
1359	0	33690	
1360	0	33688	
1361	0	33720	
1362	0	33736	
1363	0	33760	
1364	0	33808	
1365	0	33816	
1366	0	33816	
1367	0	33828	
1368	0	33868	
1369	0	33848	
1370	0	33808	
1371	0	33774	
1372	0	33760	
1373	0	33720	
1374	0	33692	
1375	0	33674	
1376	0	33656	
1377	0	33628	
1378	0	33656	
1379	0	33664	
1380	0	33692	
1381	0	33732	
1382	0	33760	
1383	0	33792	
1384	0	33812	
1385	0	33796	
1386	0	33768	
1387	0	33752	
1388	0	33760	
1389	0	33780	
1390	0	33768	
1391	0	33732	
1392	0	33680	
1393	0	33666	
1394	0	33688	
1395	0	33680	
1396	0	33656	
1397	0	33648	
1398	0	33644	
1399	0	33636	
1400	0	33672	
1401	0	33680	
1402	0	33676	
1403	0	33688	
1404	0	33696	
1405	0	33696	
1406	0	33668	
1407	0	33616	
1408	0	33568	
1409	0	33480	
1410	0	33416	
1411	0	33384	
1412	0	33328	
1413	0	33260	
1414	0	33182	
1415	0	33108	
1416	0	33026	
1417	0	32952	
1418	0	32880	
1419	0	32816	
1420	0	32776	
1421	0	32748	
1422	0	32716	
1423	0	32652	
1424	0	32596	
1425	0	32540	
1426	0	32456	
1427	0	32396	
1428	0	32308	
1429	0	32194	
1430	0	32090	
1431	0	32012	
1432	0	31940	
1433	0	31856	
1434	0	31778	
1435	0	31668	
1436	0	31584	
1437	0	31528	
1438	0	31468	
1439	0	31380	
1440	0	31332	
1441	0	31280	
1442	0	31204	
1443	0	31160	
1444	0	31092	
1445	0	31044	
1446	0	30976	
1447	0	30932	
1448	0	30852	
1449	0	30796	
1450	0	30712	
1451	0	30628	
1452	0	30564	
1453	0	30500	
1454	0	30444	
1455	0	30400	
1456	0	30364	
1457	0	30344	
1458	0	30332	
1459	0	30332	
1460	0	30344	
1461	0	30356	
1462	0	30360	
1463	0	30350	
1464	0	30372	
1465	0	30376	
1466	0	30392	
1467	0	30380	
1468	0	30340	
1469	0	30304	
1470	0	30304	
1471	0	30280	
1472	0	30292	
1473	0	30304	
1474	0	30296	
1475	0	30298	
1476	0	30272	
1477	0	30244	
1478	0	30274	
1479	0	30284	
1480	0	30300	
1481	0	30308	
1482	0	30320	
1483	0	30376	
1484	0	30408	
1485	0	30444	
1486	0	30456	
1487	0	30488	
1488	0	30464	
1489	0	30464	
1490	0	30484	
1491	0	30492	
1492	0	30488	
1493	0	30508	
1494	0	30520	
1495	0	30520	
1496	0	30504	
1497	0	30524	
1498	0	30564	
1499	0	30612	
1500	0	30680	
1501	0	30768	
1502	0	30798	
1503	0	30832	
1504	0	30876	
1505	0	30944	
1506	0	31008	
1507	0	31048	
1508	0	31076	
1509	0	31100	
1510	0	31104	
1511	0	31104	
1512	0	31108	
1513	0	31156	
1514	0	31156	
1515	0	31178	
1516	0	31184	
1517	0	31168	
1518	0	31140	
1519	0	31122	
1520	0	31180	
1521	0	31232	
1522	0	31244	
1523	0	31264	
1524	0	31288	
1525	0	31288	
1526	0	31292	
1527	0	31284	
1528	0	31264	
1529	0	31228	
1530	0	31188	
1531	0	31160	
1532	0	31166	
1533	0	31192	
1534	0	31192	
1535	0	31140	
1536	0	31144	
1537	0	31140	
1538	0	31152	
1539	0	31208	
1540	0	31256	
1541	0	31290	
1542	0	31316	
1543	0	31372	
1544	0	31420	
1545	0	31440	
1546	0	31456	
1547	0	31458	
1548	0	31460	
1549	0	31456	
1550	0	31456	
1551	0	31444	
1552	0	31404	
1553	0	31392	
1554	0	31384	
1555	0	31364	
1556	0	31350	
1557	0	31368	
1558	0	31376	
1559	0	31384	
1560	0	31410	
1561	0	31480	
1562	0	31504	
1563	0	31528	
1564	0	31524	
1565	0	31528	
1566	0	31520	
1567	0	31544	
1568	0	31528	
1569	0	31472	
1570	0	31436	
1571	0	31436	
1572	0	31432	
1573	0	31418	
1574	0	31452	
1575	0	31468	
1576	0	31452	
1577	0	31456	
1578	0	31464	
1579	0	31500	
1580	0	31508	
1581	0	31480	
1582	0	31456	
1583	0	31468	
1584	0	31474	
1585	0	31516	
1586	0	31562	
1587	0	31576	
1588	0	31562	
1589	0	31536	
1590	0	31492	
1591	0	31440	
1592	0	31412	
1593	0	31380	
1594	0	31384	
1595	0	31404	
1596	0	31436	
1597	0	31428	
1598	0	31428	
1599	0	31420	
1600	0	31452	
1601	0	31496	
1602	0	31508	
1603	0	31520	
1604	0	31536	
1605	0	31552	
1606	0	31534	
1607	0	31516	
1608	0	31504	
1609	0	31508	
1610	0	31504	
1611	0	31460	
1612	0	31424	
1613	0	31428	
1614	0	31422	
1615	0	31428	
1616	0	31440	
1617	0	31444	
1618	0	31474	
1619	0	31520	
1620	0	31600	
1621	0	31664	
1622	0	31676	
1623	0	31660	
1624	0	31656	
1625	0	31632	
1626	0	31616	
1627	0	31612	
1628	0	31624	
1629	0	31664	
1630	0	31652	
1631	0	31652	
1632	0	31628	
1633	0	31588	
1634	0	31544	
1635	0	31512	
1636	0	31484	
1637	0	31494	
1638	0	31500	
1639	0	31524	
1640	0	31576	
1641	0	31608	
1642	0	31608	
1643	0	31632	
1644	0	31656	
1645	0	31704	
1646	0	31724	
1647	0	31728	
1648	0	31724	
1649	0	31690	
1650	0	31664	
1651	0	31656	
1652	0	31638	
1653	0	31646	
1654	0	31636	
1655	0	31596	
1656	0	31580	
1657	0	31604	
1658	0	31612	
1659	0	31620	
1660	0	31676	
1661	0	31728	
1662	0	31776	
1663	0	31824	
1664	0	31870	
1665	0	31914	
1666	0	31920	
1667	0	31944	
1668	0	31936	
1669	0	31932	
1670	0	31968	
1671	0	31972	
1672	0	31928	
1673	0	31886	
1674	0	31834	
1675	0	31792	
1676	0	31752	
1677	0	31704	
1678	0	31708	
1679	0	31752	
1680	0	31732	
1681	0	31720	
1682	0	31772	
1683	0	31844	
1684	0	31864	
1685	0	31848	
1686	0	31848	
1687	0	31860	
1688	0	31848	
1689	0	31828	
1690	0	31816	
1691	0	31834	
1692	0	31864	
1693	0	31888	
1694	0	31884	
1695	0	31876	
1696	0	31840	
1697	0	31836	
1698	0	31836	
1699	0	31876	
1700	0	31916	
1701	0	31888	
1702	0	31884	
1703	0	31880	
1704	0	31896	
1705	0	31924	
1706	0	31968	
1707	0	31996	
1708	0	31980	
1709	0	31916	
1710	0	31880	
1711	0	31884	
1712	0	31868	
1713	0	31840	
1714	0	31776	
1715	0	31712	
1716	0	31744	
1717	0	31772	
1718	0	31820	
1719	0	31872	
1720	0	31900	
1721	0	31968	
1722	0	32068	
1723	0	32120	
1724	0	32176	
1725	0	32208	
1726	0	32180	
1727	0	32192	
1728	0	32176	
1729	0	32140	
1730	0	32096	
1731	0	32056	
1732	0	32028	
1733	0	31960	
1734	0	31972	
1735	0	31996	
1736	0	32034	
1737	0	32096	
1738	0	32160	
1739	0	32204	
1740	0	32244	
1741	0	32308	
1742	0	32374	
1743	0	32412	
1744	0	32420	
1745	0	32424	
1746	0	32456	
1747	0	32460	
1748	0	32456	
1749	0	32432	
1750	0	32392	
1751	0	32380	
1752	0	32372	
1753	0	32382	
1754	0	32384	
1755	0	32388	
1756	0	32404	
1757	0	32384	
1758	0	32384	
1759	0	32396	
1760	0	32480	
1761	0	32556	
1762	0	32624	
1763	0	32684	
1764	0	32688	
1765	0	32688	
1766	0	32700	
1767	0	32720	
1768	0	32690	
1769	0	32644	
1770	0	32596	
1771	0	32596	
1772	0	32584	
1773	0	32596	
1774	0	32572	
1775	0	32564	
1776	0	32540	
1777	0	32544	
1778	0	32572	
1779	0	32608	
1780	0	32636	
1781	0	32664	
1782	0	32692	
1783	0	32712	
1784	0	32752	
1785	0	32784	
1786	0	32800	
1787	0	32836	
1788	0	32820	
1789	0	32756	
1790	0	32696	
1791	0	32624	
1792	0	32556	
1793	0	32528	
1794	0	32504	
1795	0	32528	
1796	0	32548	
1797	0	32576	
1798	0	32564	
1799	0	32592	
1800	0	32664	
1801	0	32736	
1802	0	32784	
1803	0	32824	
1804	0	32816	
1805	0	32768	
1806	0	32714	
1807	0	32628	
1808	0	32516	
1809	0	32456	
1810	0	32472	
1811	0	32520	
1812	0	32544	
1813	0	32540	
1814	0	32532	
1815	0	32560	
1816	0	32588	
1817	0	32612	
1818	0	32660	
1819	0	32712	
1820	0	32764	
1821	0	32816	
1822	0	32864	
1823	0	32912	
1824	0	32964	
1825	0	33012	
1826	0	33016	
1827	0	33024	
1828	0	33036	
1829	0	33016	
1830	0	32996	
1831	0	32984	
1832	0	32976	
1833	0	32952	
1834	0	32956	
1835	0	32976	
1836	0	32988	
1837	0	33032	
1838	0	33076	
1839	0	33088	
1840	0	33088	
1841	0	33108	
1842	0	33092	
1843	0	33082	
1844	0	33056	
1845	0	33084	
1846	0	33112	
1847	0	33176	
1848	0	33256	
1849	0	33316	
1850	0	33428	
1851	0	33548	
1852	0	33592	
1853	0	33656	
1854	0	33756	
1855	0	33828	
1856	0	33916	
1857	0	34012	
1858	0	34084	
1859	0	34146	
1860	0	34228	
1861	0	34284	
1862	0	34312	
1863	0	34336	
1864	0	34316	
1865	0	34260	
1866	0	34208	
1867	0	34132	
1868	0	34004	
1869	0	33896	
1870	0	33824	
1871	0	33736	
1872	0	33696	
1873	0	33632	
1874	0	33544	
1875	0	33508	
1876	0	33468	
1877	0	33448	
1878	0	33412	
1879	0	33388	
1880	0	33356	
1881	0	33360	
1882	0	33384	
1883	0	33420	
1884	0	33410	
1885	0	33372	
1886	0	33292	
1887	0	33256	
1888	0	33184	
1889	0	33072	
1890	0	32976	
1891	0	32952	
1892	0	32960	
1893	0	32944	
1894	0	32912	
1895	0	32864	
1896	0	32832	
1897	0	32816	
1898	0	32824	
1899	0	32852	
1900	0	32908	
1901	0	32948	
1902	0	32944	
1903	0	32912	
1904	0	32892	
1905	0	32858	
1906	0	32816	
1907	0	32788	
1908	0	32688	
1909	0	32592	
1910	0	32514	
1911	0	32464	
1912	0	32460	
1913	0	32436	
1914	0	32404	
1915	0	32392	
1916	0	32412	
1917	0	32428	
1918	0	32444	
1919	0	32492	
1920	0	32544	
1921	0	32544	
1922	0	32544	
1923	0	32544	
1924	0	32520	
1925	0	32512	
1926	0	32500	
1927	0	32500	
1928	0	32504	
1929	0	32512	
1930	0	32520	
1931	0	32508	
1932	0	32496	
1933	0	32520	
1934	0	32536	
1935	0	32504	
1936	0	32500	
1937	0	32516	
1938	0	32528	
1939	0	32544	
1940	0	32564	
1941	0	32560	
1942	0	32552	
1943	0	32586	
1944	0	32624	
1945	0	32672	
1946	0	32736	
1947	0	32776	
1948	0	32784	
1949	0	32760	
1950	0	32736	
1951	0	32716	
1952	0	32676	
1953	0	32632	
1954	0	32596	
1955	0	32556	
1956	0	32520	
1957	0	32520	
1958	0	32588	
1959	0	32680	
1960	0	32764	
1961	0	32844	
1962	0	32864	
1963	0	32864	
1964	0	32884	
1965	0	32880	
1966	0	32856	
1967	0	32868	
1968	0	32866	
1969	0	32828	
1970	0	32848	
1971	0	32864	
1972	0	32846	
1973	0	32792	
1974	0	32728	
1975	0	32664	
1976	0	32680	
1977	0	32704	
1978	0	32762	
1979	0	32852	
1980	0	32940	
1981	0	33000	
1982	0	33056	
1983	0	33116	
1984	0	33128	
1985	0	33072	
1986	0	33024	
1987	0	33004	
1988	0	32940	
1989	0	32836	
1990	0	32848	
1991	0	32988	
1992	0	33232	
1993	0	33486	
1994	0	33772	
1995	0	34028	
1996	0	34208	
1997	0	34312	
1998	0	34368	
1999	0	34510	
2000	0	34780	
2001	0	35200	
2002	0	35716	
2003	0	36384	
2004	0	37192	
2005	0	38176	
2006	0	39388	
2007	0	40720	
2008	0	41976	
2009	0	43276	
2010	0	44648	
2011	0	46112	
2012	0	47674	
2013	0	49104	
2014	0	50308	
2015	0	51264	
2016	0	52108	
2017	0	52912	
2018	0	53816	
2019	0	54596	
2020	0	54944	
2021	0	54512	
2022	0	53016	
2023	0	50464	
2024	0	47392	
2025	0	44052	
2026	0	40764	
2027	0	37704	
2028	0	35128	
2029	0	33252	
2030	0	32030	
2031	0	31266	
2032	0	30752	
2033	0	30400	
2034	0	30160	
2035	0	30032	
2036	0	30048	
2037	0	30256	
2038	0	30508	
2039	0	30736	
2040	0	30920	
2041	0	31108	
2042	0	31272	
2043	0	31432	
2044	0	31588	
2045	0	31784	
2046	0	31984	
2047	0	32108	
2048	0	32160	
2049	0	32192	
2050	0	32232	
2051	0	32274	
2052	0	32264	
2053	0	32216	
2054	0	32104	
2055	0	32008	
2056	0	31932	
2057	0	31870	
2058	0	31818	
2059	0	31872	
2060	0	31912	
2061	0	31928	
2062	0	31956	
2063	0	31968	
2064	0	31952	
2065	0	31928	
2066	0	31940	
2067	0	31940	
2068	0	31898	
2069	0	31868	
2070	0	31870	
2071	0	31800	
2072	0	31736	
2073	0	31680	
2074	0	31656	
2075	0	31674	
2076	0	31704	
2077	0	31762	
2078	0	31844	
2079	0	31924	
2080	0	32004	
2081	0	32056	
2082	0	32096	
2083	0	32104	
2084	0	32128	
2085	0	32152	
2086	0	32164	
2087	0	32188	
2088	0	32178	
2089	0	32168	
2090	0	32124	
2091	0	32088	
2092	0	32024	
2093	0	31992	
2094	0	32008	
2095	0	32024	
2096	0	32032	
2097	0	32016	
2098	0	32008	
2099	0	32048	
2100	0	32082	
2101	0	32100	
2102	0	32144	
2103	0	32188	
2104	0	32224	
2105	0	32250	
2106	0	32292	
2107	0	32324	
2108	0	32344	
2109	0	32372	
2110	0	32368	
2111	0	32356	
2112	0	32372	
2113	0	32416	
2114	0	32460	
2115	0	32504	
2116	0	32508	
2117	0	32510	
2118	0	32540	
2119	0	32552	
2120	0	32548	
2121	0	32532	
2122	0	32516	
2123	0	32528	
2124	0	32508	
2125	0	32552	
2126	0	32632	
2127	0	32736	
2128	0	32764	
2129	0	32756	
2130	0	32712	
2131	0	32680	
2132	0	32644	
2133	0	32652	
2134	0	32680	
2135	0	32688	
2136	0	32692	
2137	0	32716	
2138	0	32744	
2139	0	32780	
2140	0	32820	
2141	0	32820	
2142	0	32804	
2143	0	32792	
2144	0	32804	
2145	0	32824	
2146	0	32864	
2147	0	32888	
2148	0	32900	
2149	0	32928	
2150	0	32988	
2151	0	33040	
2152	0	33064	
2153	0	33108	
2154	0	33108	
2155	0	33090	
2156	0	33108	
2157	0	33108	
2158	0	33172	
2159	0	33248	
2160	0	33304	
2161	0	33312	
2162	0	33340	
2163	0	33384	
2164	0	33424	
2165	0	33472	
2166	0	33464	
2167	0	33430	
2168	0	33352	
2169	0	33312	
2170	0	33320	
2171	0	33328	
2172	0	33306	
2173	0	33272	
2174	0	33232	
2175	0	33240	
2176	0	33268	
2177	0	33292	
2178	0	33326	
2179	0	33332	
2180	0	33344	
2181	0	33376	
2182	0	33380	
2183	0	33344	
2184	0	33320	
2185	0	33344	
2186	0	33408	
2187	0	33464	
2188	0	33490	
2189	0	33512	
2190	0	33524	
2191	0	33520	
2192	0	33520	
2193	0	33512	
2194	0	33516	
2195	0	33528	
2196	0	33560	
2197	0	33612	
2198	0	33640	
2199	0	33640	
2200	0	33580	
2201	0	33528	
2202	0	33512	
2203	0	33504	
2204	0	33532	
2205	0	33560	
2206	0	33564	
2207	0	33560	
2208	0	33544	
2209	0	33528	
2210	0	33572	
2211	0	33620	
2212	0	33636	
2213	0	33648	
2214	0	33632	
2215	0	33592	
2216	0	33576	
2217	0	33608	
2218	0	33684	
2219	0	33732	
2220	0	33764	
2221	0	33794	
2222	0	33792	
2223	0	33780	
2224	0	33780	
2225	0	33810	
2226	0	33808	
2227	0	33808	
2228	0	33808	
2229	0	33786	
2230	0	33784	
2231	0	33768	
2232	0	33796	
2233	0	33800	
2234	0	33828	
2235	0	33838	
2236	0	33856	
2237	0	33900	
2238	0	33924	
2239	0	33952	
2240	0	33992	
2241	0	34024	
2242	0	34056	
2243	0	34068	
2244	0	34076	
2245	0	34072	
2246	0	34070	
2247	0	34072	
2248	0	34064	
2249	0	34016	
2250	0	33940	
2251	0	33892	
2252	0	33888	
2253	0	33860	
2254	0	33832	
2255	0	33824	
2256	0	33800	
2257	0	33748	
2258	0	33736	
2259	0	33722	
2260	0	33732	
2261	0	33704	
2262	0	33728	
2263	0	33754	
2264	0	33796	
2265	0	33864	
2266	0	33920	
2267	0	33924	
2268	0	33916	
2269	0	33904	
2270	0	33868	
2271	0	33792	
2272	0	33754	
2273	0	33724	
2274	0	33696	
2275	0	33664	
2276	0	33640	
2277	0	33664	
2278	0	33712	
2279	0	33744	
2280	0	33760	
2281	0	33768	
2282	0	33800	
2283	0	33808	
2284	0	33780	
2285	0	33788	
2286	0	33840	
2287	0	33824	
2288	0	33772	
2289	0	33696	
2290	0	33708	
2291	0	33684	
2292	0	33658	
2293	0	33596	
2294	0	33472	
2295	0	33392	
2296	0	33352	
2297	0	33344	
2298	0	33344	
2299	0	33320	
2300	0	33340	
2301	0	33340	
2302	0	33308	
2303	0	33288	
2304	0	33232	
2305	0	33108	
2306	0	32938	
2307	0	32764	
2308	0	32608	
2309	0	32480	
2310	0	32380	
2311	0	32312	
2312	0	32256	
2313	0	32192	
2314	0	32124	
2315	0	32028	
2316	0	31920	
2317	0	31892	
2318	0	31852	
2319	0	31812	
2320	0	31780	
2321	0	31720	
2322	0	31664	
2323	0	31652	
2324	0	31678	
2325	0	31684	
2326	0	31684	
2327	0	31644	
2328	0	31552	
2329	0	31476	
2330	0	31412	
2331	0	31340	
2332	0	31274	
2333	0	31216	
2334	0	31152	
2335	0	31118	
2336	0	31076	
2337	0	31020	
2338	0	30976	
2339	0	30964	
2340	0	30960	
2341	0	30928	
2342	0	30908	
2343	0	30912	
2344	0	30936	
2345	0	30968	
2346	0	30978	
2347	0	30944	
2348	0	30884	
2349	0	30868	
2350	0	30813	
2351	0	30744	
2352	0	30720	
2353	0	30740	
2354	0	30764	
2355	0	30752	
2356	0	30776	
2357	0	30796	
2358	0	30836	
2359	0	30908	
2360	0	30920	
2361	0	30924	
2362	0	30900	
2363	0	30912	
2364	0	30936	
2365	0	30980	
2366	0	31016	
2367	0	31034	
2368	0	31040	
2369	0	31064	
2370	0	31064	
2371	0	31068	
2372	0	31024	
2373	0	30976	
2374	0	30940	
2375	0	30944	
2376	0	30956	
2377	0	30932	
2378	0	30948	
2379	0	30984	
2380	0	31032	
2381	0	31088	
2382	0	31154	
2383	0	31200	
2384	0	31242	
2385	0	31300	
2386	0	31348	
2387	0	31392	
2388	0	31412	
2389	0	31440	
2390	0	31460	
2391	0	31480	
2392	0	31496	
2393	0	31500	
2394	0	31516	
2395	0	31504	
2396	0	31520	
2397	0	31540	
2398	0	31568	
2399	0	31596	
2400	0	31636	
2401	0	31660	
2402	0	31676	
2403	0	31680	
2404	0	31680	
2405	0	31690	
2406	0	31720	
2407	0	31732	
2408	0	31724	
2409	0	31744	
2410	0	31764	
2411	0	31760	
2412	0	31744	
2413	0	31740	
2414	0	31748	
2415	0	31712	
2416	0	31684	
2417	0	31712	
2418	0	31776	
2419	0	31832	
2420	0	31888	
2421	0	31912	
2422	0	31924	
2423	0	31940	
2424	0	31984	
2425	0	32016	
2426	0	32060	
2427	0	32028	
2428	0	31988	
2429	0	31946	
2430	0	31924	
2431	0	31892	
2432	0	31840	
2433	0	31828	
2434	0	31820	
2435	0	31796	
2436	0	31784	
2437	0	31816	
2438	0	31868	
2439	0	31940	
2440	0	32004	
2441	0	32040	
2442	0	32072	
2443	0	32140	
2444	0	32156	
2445	0	32176	
2446	0	32168	
2447	0	32136	
2448	0	32044	
2449	0	31968	
2450	0	31904	
2451	0	31876	
2452	0	31844	
2453	0	31808	
2454	0	31792	
2455	0	31736	
2456	0	31724	
2457	0	31776	
2458	0	31872	
2459	0	31956	
2460	0	31972	
2461	0	31948	
2462	0	31908	
2463	0	31920	
2464	0	31948	
2465	0	31996	
2466	0	32056	
2467	0	32072	
2468	0	32052	
2469	0	32016	
2470	0	32032	
2471	0	32036	
2472	0	32000	
2473	0	31980	
2474	0	31952	
2475	0	31964	
2476	0	31984	
2477	0	31972	
2478	0	31988	
2479	0	32016	
2480	0	32026	
2481	0	32036	
2482	0	32044	
2483	0	32052	
2484	0	32060	
2485	0	32072	
2486	0	32052	
2487	0	32020	
2488	0	31984	
2489	0	31972	
2490	0	31960	
2491	0	31944	
2492	0	31920	
2493	0	31928	
2494	0	31950	
2495	0	31976	
2496	0	32000	
2497	0	32008	
2498	0	32008	
2499	0	32048	
2500	0	32084	
2501	0	32072	
2502	0	32032	
2503	0	32036	
2504	0	32056	
2505	0	32056	
2506	0	32040	
2507	0	32028	
2508	0	32020	
2509	0	32004	
2510	0	31994	
2511	0	31984	
2512	0	31932	
2513	0	31888	
2514	0	31840	
2515	0	31834	
2516	0	31864	
2517	0	31900	
2518	0	31948	
2519	0	31988	
2520	0	32008	
2521	0	32012	
2522	0	32020	
2523	0	32032	
2524	0	32024	
2525	0	32012	
2526	0	32084	
2527	0	32146	
2528	0	32132	
2529	0	32122	
2530	0	32100	
2531	0	32088	
2532	0	32060	
2533	0	32064	
2534	0	32056	
2535	0	32016	
2536	0	31984	
2537	0	32032	
2538	0	32064	
2539	0	32048	
2540	0	32032	
2541	0	32044	
2542	0	32016	
2543	0	31972	
2544	0	31976	
2545	0	32004	
2546	0	32052	
2547	0	32064	
2548	0	32012	
2549	0	31994	
2550	0	32012	
2551	0	32028	
2552	0	32040	
2553	0	32064	
2554	0	32084	
2555	0	32040	
2556	0	32032	
2557	0	32076	
2558	0	32160	
2559	0	32220	
2560	0	32236	
2561	0	32216	
2562	0	32216	
2563	0	32236	
2564	0	32274	
2565	0	32312	
2566	0	32308	
2567	0	32274	
2568	0	32244	
2569	0	32212	
2570	0	32204	
2571	0	32188	
2572	0	32168	
2573	0	32164	
2574	0	32164	
2575	0	32184	
2576	0	32228	
2577	0	32284	
2578	0	32308	
2579	0	32320	
2580	0	32316	
2581	0	32328	
2582	0	32370	
2583	0	32352	
2584	0	32376	
2585	0	32428	
2586	0	32480	
2587	0	32448	
2588	0	32404	
2589	0	32384	
2590	0	32348	
2591	0	32346	
2592	0	32324	
2593	0	32264	
2594	0	32228	
2595	0	32242	
2596	0	32236	
2597	0	32224	
2598	0	32252	
2599	0	32296	
2600	0	32276	
2601	0	32276	
2602	0	32280	
2603	0	32296	
2604	0	32292	
2605	0	32300	
2606	0	32344	
2607	0	32368	
2608	0	32376	
2609	0	32344	
2610	0	32300	
2611	0	32280	
2612	0	32252	
2613	0	32260	
2614	0	32306	
2615	0	32312	
2616	0	32316	
2617	0	32324	
2618	0	32348	
2619	0	32364	
2620	0	32388	
2621	0	32386	
2622	0	32380	
2623	0	32396	
2624	0	32424	
2625	0	32448	
2626	0	32464	
2627	0	32500	
2628	0	32548	
2629	0	32580	
2630	0	32576	
2631	0	32616	
2632	0	32632	
2633	0	32660	
2634	0	32740	
2635	0	32786	
2636	0	32788	
2637	0	32792	
2638	0	32804	
2639	0	32816	
2640	0	32816	
2641	0	32772	
2642	0	32776	
2643	0	32780	
2644	0	32784	
2645	0	32820	
2646	0	32864	
2647	0	32856	
2648	0	32808	
2649	0	32774	
2650	0	32776	
2651	0	32804	
2652	0	32892	
2653	0	33016	
2654	0	33132	
2655	0	33272	
2656	0	33372	
2657	0	33480	
2658	0	33608	
2659	0	33736	
2660	0	33876	
2661	0	34000	
2662	0	34116	
2663	0	34244	
2664	0	34328	
2665	0	34368	
2666	0	34460	
2667	0	34550	
2668	0	34544	
2669	0	34492	
2670	0	34428	
2671	0	34344	
2672	0	34200	
2673	0	34032	
2674	0	33908	
2675	0	33808	
2676	0	33664	
2677	0	33560	
2678	0	33464	
2679	0	33400	
2680	0	33348	
2681	0	33264	
2682	0	33168	
2683	0	33096	
2684	0	33060	
2685	0	33040	
2686	0	33012	
2687	0	32944	
2688	0	32864	
2689	0	32788	
2690	0	32720	
2691	0	32684	
2692	0	32660	
2693	0	32653	
2694	0	32614	
2695	0	32600	
2696	0	32644	
2697	0	32688	
2698	0	32744	
2699	0	32836	
2700	0	32856	
2701	0	32832	
2702	0	32816	
2703	0	32808	
2704	0	32792	
2705	0	32748	
2706	0	32716	
2707	0	32660	
2708	0	32580	
2709	0	32538	
2710	0	32460	
2711	0	32352	
2712	0	32234	
2713	0	32132	
2714	0	32096	
2715	0	32052	
2716	0	32036	
2717	0	32028	
2718	0	32060	
2719	0	32104	
2720	0	32152	
2721	0	32184	
2722	0	32208	
2723	0	32216	
2724	0	32220	
2725	0	32224	
2726	0	32228	
2727	0	32192	
2728	0	32192	
2729	0	32184	
2730	0	32184	
2731	0	32160	
2732	0	32136	
2733	0	32128	
2734	0	32144	
2735	0	32136	
2736	0	32160	
2737	0	32176	
2738	0	32200	
2739	0	32228	
2740	0	32240	
2741	0	32252	
2742	0	32260	
2743	0	32264	
2744	0	32288	
2745	0	32324	
2746	0	32328	
2747	0	32320	
2748	0	32296	
2749	0	32244	
2750	0	32232	
2751	0	32228	
2752	0	32244	
2753	0	32254	
2754	0	32244	
2755	0	32240	
2756	0	32244	
2757	0	32268	
2758	0	32320	
2759	0	32360	
2760	0	32388	
2761	0	32408	
2762	0	32464	
2763	0	32476	
2764	0	32476	
2765	0	32512	
2766	0	32560	
2767	0	32536	
2768	0	32512	
2769	0	32484	
2770	0	32448	
2771	0	32400	
2772	0	32352	
2773	0	32332	
2774	0	32306	
2775	0	32304	
2776	0	32324	
2777	0	32352	
2778	0	32364	
2779	0	32352	
2780	0	32352	
2781	0	32414	
2782	0	32496	
2783	0	32544	
2784	0	32608	
2785	0	32700	
2786	0	32776	
2787	0	32816	
2788	0	32848	
2789	0	32872	
2790	0	32844	
2791	0	32820	
2792	0	32760	
2793	0	32628	
2794	0	32564	
2795	0	32536	
2796	0	32576	
2797	0	32796	
2798	0	33112	
2799	0	33432	
2800	0	33736	
2801	0	34056	
2802	0	34324	
2803	0	34464	
2804	0	34528	
2805	0	34592	
2806	0	34746	
2807	0	35082	
2808	0	35616	
2809	0	36296	
2810	0	37120	
2811	0	38100	
2812	0	39340	
2813	0	40660	
2814	0	41934	
2815	0	43224	
2816	0	44636	
2817	0	46196	
2818	0	47840	
2819	0	49348	
2820	0	50600	
2821	0	51648	
2822	0	52540	
2823	0	53504	
2824	0	54520	
2825	0	55368	
2826	0	55788	
2827	0	55404	
2828	0	53908	
2829	0	51448	
2830	0	48320	
2831	0	44840	
2832	0	41312	
2833	0	38004	
2834	0	35240	
2835	0	33232	
2836	0	31980	
2837	0	31208	
2838	0	30740	
2839	0	30492	
2840	0	30368	
2841	0	30316	
2842	0	30356	
2843	0	30480	
2844	0	30616	
2845	0	30776	
2846	0	30924	
2847	0	31040	
2848	0	31148	
2849	0	31240	
2850	0	31336	
2851	0	31480	
2852	0	31636	
2853	0	31776	
2854	0	31844	
2855	0	31892	
2856	0	31920	
2857	0	31984	
2858	0	32032	
2859	0	32036	
2860	0	32040	
2861	0	31968	
2862	0	31904	
2863	0	31888	
2864	0	31868	
2865	0	31834	
2866	0	31792	
2867	0	31748	
2868	0	31678	
2869	0	31620	
2870	0	31554	
2871	0	31552	
2872	0	31580	
2873	0	31556	
2874	0	31548	
2875	0	31528	
2876	0	31520	
2877	0	31536	
2878	0	31580	
2879	0	31598	
2880	0	31608	
2881	0	31628	
2882	0	31700	
2883	0	31732	
2884	0	31784	
2885	0	31808	
2886	0	31828	
2887	0	31828	
2888	0	31832	
2889	0	31852	
2890	0	31876	
2891	0	31860	
2892	0	31848	
2893	0	31834	
2894	0	31818	
2895	0	31796	
2896	0	31792	
2897	0	31822	
2898	0	31856	
2899	0	31900	
2900	0	31952	
2901	0	31996	
2902	0	32064	
2903	0	32128	
2904	0	32156	
2905	0	32168	
2906	0	32208	
2907	0	32200	
2908	0	32196	
2909	0	32218	
2910	0	32220	
2911	0	32224	
2912	0	32180	
2913	0	32156	
2914	0	32128	
2915	0	32140	
2916	0	32192	
2917	0	32272	
2918	0	32316	
2919	0	32356	
2920	0	32360	
2921	0	32396	
2922	0	32448	
2923	0	32488	
2924	0	32572	
2925	0	32632	
2926	0	32672	
2927	0	32700	
2928	0	32708	
2929	0	32712	
2930	0	32732	
2931	0	32756	
2932	0	32768	
2933	0	32752	
2934	0	32772	
2935	0	32820	
2936	0	32872	
2937	0	32920	
2938	0	32970	
2939	0	33008	
2940	0	33044	
2941	0	33084	
2942	0	33104	
2943	0	33136	
2944	0	33140	
2945	0	33136	
2946	0	33152	
2947	0	33140	
2948	0	33148	
2949	0	33128	
2950	0	33116	
2951	0	33104	
2952	0	33092	
2953	0	33088	
2954	0	33088	
2955	0	33068	
2956	0	33092	
2957	0	33120	
2958	0	33148	
2959	0	33176	
2960	0	33182	
2961	0	33188	
2962	0	33216	
2963	0	33200	
2964	0	33216	
2965	0	33264	
2966	0	33252	
2967	0	33234	
2968	0	33224	
2969	0	33242	
2970	0	33256	
2971	0	33240	
2972	0	33216	
2973	0	33176	
2974	0	33172	
2975	0	33196	
2976	0	33200	
2977	0	33240	
2978	0	33312	
2979	0	33344	
2980	0	33368	
2981	0	33360	
2982	0	33384	
2983	0	33404	
2984	0	33428	
2985	0	33464	
2986	0	33472	
2987	0	33436	
2988	0	33396	
2989	0	33400	
2990	0	33400	
2991	0	33402	
2992	0	33408	
2993	0	33400	
2994	0	33404	
2995	0	33440	
2996	0	33436	
2997	0	33460	
2998	0	33466	
2999	0	33524	
3000	0	33572	
3001	0	33596	
3002	0	33640	
3003	0	33682	
3004	0	33716	
3005	0	33748	
3006	0	33764	
3007	0	33744	
3008	0	33712	
3009	0	33696	
3010	0	33696	
3011	0	33700	
3012	0	33680	
3013	0	33672	
3014	0	33676	
3015	0	33700	
3016	0	33712	
3017	0	33744	
3018	0	33792	
3019	0	33832	
3020	0	33856	
3021	0	33856	
3022	0	33864	
3023	0	33872	
3024	0	33904	
3025	0	33914	
3026	0	33920	
3027	0	33876	
3028	0	33836	
3029	0	33824	
3030	0	33792	
3031	0	33760	
3032	0	33708	
3033	0	33672	
3034	0	33636	
3035	0	33626	
3036	0	33620	
3037	0	33634	
3038	0	33624	
3039	0	33648	
3040	0	33640	
3041	0	33640	
3042	0	33640	
3043	0	33688	
3044	0	33722	
3045	0	33760	
3046	0	33798	
3047	0	33812	
3048	0	33772	
3049	0	33736	
3050	0	33732	
3051	0	33748	
3052	0	33760	
3053	0	33748	
3054	0	33730	
3055	0	33684	
3056	0	33664	
3057	0	33672	
3058	0	33692	
3059	0	33716	
3060	0	33744	
3061	0	33768	
3062	0	33820	
3063	0	33856	
3064	0	33880	
3065	0	33900	
3066	0	33886	
3067	0	33872	
3068	0	33834	
3069	0	33799	
3070	0	33776	
3071	0	33820	
3072	0	33826	
3073	0	33824	
3074	0	33832	
3075	0	33840	
3076	0	33872	
3077	0	33920	
3078	0	33972	
3079	0	34008	
3080	0	33984	
3081	0	34008	
3082	0	34016	
3083	0	34024	
3084	0	34004	
3085	0	33968	
3086	0	33932	
3087	0	33872	
3088	0	33838	
3089	0	33768	
3090	0	33696	
3091	0	33628	
3092	0	33600	
3093	0	33548	
3094	0	33492	
3095	0	33456	
3096	0	33424	
3097	0	33408	
3098	0	33376	
3099	0	33320	
3100	0	33276	
3101	0	33260	
3102	0	33214	
3103	0	33156	
3104	0	33052	
3105	0	32996	
3106	0	32944	
3107	0	32888	
3108	0	32816	
3109	0	32720	
3110	0	32608	
3111	0	32496	
3112	0	32408	
3113	0	32300	
3114	0	32192	
3115	0	32132	
3116	0	32068	
3117	0	32002	
3118	0	31936	
3119	0	31904	
3120	0	31872	
3121	0	31826	
3122	0	31750	
3123	0	31688	
3124	0	31600	
3125	0	31504	
3126	0	31424	
3127	0	31344	
3128	0	31264	
3129	0	31172	
3130	0	31096	
3131	0	31020	
3132	0	30930	
3133	0	30890	
3134	0	30840	
3135	0	30788	
3136	0	30740	
3137	0	30688	
3138	0	30688	
3139	0	30690	
3140	0	30640	
3141	0	30608	
3142	0	30576	
3143	0	30552	
3144	0	30540	
3145	0	30536	
3146	0	30536	
3147	0	30492	
3148	0	30432	
3149	0	30408	
3150	0	30364	
3151	0	30360	
3152	0	30324	
3153	0	30280	
3154	0	30240	
3155	0	30248	
3156	0	30272	
3157	0	30296	
3158	0	30340	
3159	0	30372	
3160	0	30400	
3161	0	30432	
3162	0	30460	
3163	0	30484	
3164	0	30496	
3165	0	30496	
3166	0	30480	
3167	0	30464	
3168	0	30486	
3169	0	30488	
3170	0	30512	
3171	0	30532	
3172	0	30560	
3173	0	30560	
3174	0	30544	
3175	0	30536	
3176	0	30528	
3177	0	30576	
3178	0	30648	
3179	0	30692	
3180	0	30730	
3181	0	30756	
3182	0	30782	
3183	0	30828	
3184	0	30848	
3185	0	30880	
3186	0	30914	
3187	0	30920	
3188	0	30912	
3189	0	30912	
3190	0	30932	
3191	0	30952	
3192	0	30956	
3193	0	30964	
3194	0	30968	
3195	0	30968	
3196	0	31008	
3197	0	31048	
3198	0	31096	
3199	0	31128	
3200	0	31156	
3201	0	31176	
3202	0	31196	
3203	0	31208	
3204	0	31224	
3205	0	31260	
3206	0	31264	
3207	0	31260	
3208	0	31236	
3209	0	31266	
3210	0	31300	
3211	0	31340	
3212	0	31372	
3213	0	31384	
3214	0	31372	
3215	0	31388	
3216	0	31404	
3217	0	31440	
3218	0	31504	
3219	0	31540	
3220	0	31560	
3221	0	31548	
3222	0	31556	
3223	0	31596	
3224	0	31620	
3225	0	31640	
3226	0	31628	
3227	0	31584	
3228	0	31540	
3229	0	31504	
3230	0	31500	
3231	0	31472	
3232	0	31428	
3233	0	31404	
3234	0	31412	
3235	0	31408	
3236	0	31404	
3237	0	31450	
3238	0	31488	
3239	0	31512	
3240	0	31528	
3241	0	31564	
3242	0	31616	
3243	0	31652	
3244	0	31660	
3245	0	31700	
3246	0	31716	
3247	0	31732	
3248	0	31724	
3249	0	31708	
3250	0	31696	
3251	0	31704	
3252	0	31684	
3253	0	31664	
3254	0	31660	
3255	0	31652	
3256	0	31648	
3257	0	31672	
3258	0	31712	
3259	0	31728	
3260	0	31764	
3261	0	31792	
3262	0	31808	
3263	0	31832	
3264	0	31848	
3265	0	31844	
3266	0	31840	
3267	0	31832	
3268	0	31820	
3269	0	31800	
3270	0	31776	
3271	0	31756	
3272	0	31740	
3273	0	31708	
3274	0	31720	
3275	0	31720	
3276	0	31720	
3277	0	31772	
3278	0	31796	
3279	0	31802	
3280	0	31792	
3281	0	31778	
3282	0	31776	
3283	0	31808	
3284	0	31824	
3285	0	31840	
3286	0	31866	
3287	0	31848	
3288	0	31808	
3289	0	31800	
3290	0	31760	
3291	0	31738	
3292	0	31736	
3293	0	31714	
3294	0	31672	
3295	0	31672	
3296	0	31650	
3297	0	31644	
3298	0	31680	
3299	0	31700	
3300	0	31706	
3301	0	31688	
3302	0	31720	
3303	0	31732	
3304	0	31728	
3305	0	31768	
3306	0	31740	
3307	0	31680	
3308	0	31644	
3309	0	31640	
3310	0	31648	
3311	0	31656	
3312	0	31616	
3313	0	31616	
3314	0	31636	
3315	0	31664	
3316	0	31696	
3317	0	31744	
3318	0	31796	
3319	0	31820	
3320	0	31828	
3321	0	31824	
3322	0	31840	
3323	0	31908	
3324	0	31936	
3325	0	31912	
3326	0	31884	
3327	0	31848	
3328	0	31836	
3329	0	31810	
3330	0	31792	
3331	0	31792	
3332	0	31788	
3333	0	31768	
3334	0	31732	
3335	0	31704	
3336	0	31716	
3337	0	31740	
3338	0	31792	
3339	0	31808	
3340	0	31812	
3341	0	31832	
3342	0	31832	
3343	0	31844	
3344	0	31876	
3345	0	31904	
3346	0	31924	
3347	0	31916	
3348	0	31932	
3349	0	31928	
3350	0	31904	
3351	0	31888	
3352	0	31872	
3353	0	31852	
3354	0	31840	
3355	0	31828	
3356	0	31848	
3357	0	31872	
3358	0	31914	
3359	0	31944	
3360	0	31968	
3361	0	31992	
3362	0	32016	
3363	0	32020	
3364	0	32032	
3365	0	32064	
3366	0	32068	
3367	0	32064	
3368	0	32036	
3369	0	32032	
3370	0	32032	
3371	0	32036	
3372	0	32028	
3373	0	32004	
3374	0	31978	
3375	0	31968	
3376	0	31988	
3377	0	32028	
3378	0	32064	
3379	0	32080	
3380	0	32088	
3381	0	32124	
3382	0	32148	
3383	0	32188	
3384	0	32228	
3385	0	32276	
3386	0	32308	
3387	0	32272	
3388	0	32256	
3389	0	32232	
3390	0	32216	
3391	0	32208	
3392	0	32192	
3393	0	32160	
3394	0	32156	
3395	0	32192	
3396	0	32256	
3397	0	32298	
3398	0	32312	
3399	0	32328	
3400	0	32332	
3401	0	32320	
3402	0	32312	
3403	0	32316	
3404	0	32308	
3405	0	32308	
3406	0	32312	
3407	0	32282	
3408	0	32248	
3409	0	32236	
3410	0	32228	
3411	0	32196	
3412	0	32180	
3413	0	32162	
3414	0	32140	
3415	0	32150	
3416	0	32176	
3417	0	32192	
3418	0	32208	
3419	0	32212	
3420	0	32202	
3421	0	32196	
3422	0	32220	
3423	0	32222	
3424	0	32228	
3425	0	32240	
3426	0	32252	
3427	0	32232	
3428	0	32204	
3429	0	32196	
3430	0	32180	
3431	0	32164	
3432	0	32148	
3433	0	32124	
3434	0	32108	
3435	0	32104	
3436	0	32120	
3437	0	32148	
3438	0	32196	
3439	0	32244	
3440	0	32240	
3441	0	32244	
3442	0	32288	
3443	0	32320	
3444	0	32352	
3445	0	32380	
3446	0	32364	
3447	0	32292	
3448	0	32272	
3449	0	32260	
3450	0	32240	
3451	0	32240	
3452	0	32244	
3453	0	32228	
3454	0	32220	
3455	0	32188	
3456	0	32192	
3457	0	32224	
3458	0	32240	
3459	0	32256	
3460	0	32266	
3461	0	32296	
3462	0	32340	
3463	0	32388	
3464	0	32448	
3465	0	32536	
3466	0	32612	
3467	0	32636	
3468	0	32672	
3469	0	32708	
3470	0	32732	
3471	0	32780	
3472	0	32760	
3473	0	32760	
3474	0	32756	
3475	0	32732	
3476	0	32760	
3477	0	32784	
3478	0	32800	
3479	0	32776	
3480	0	32752	
3481	0	32748	
3482	0	32760	
3483	0	32800	
3484	0	32810	
3485	0	32816	
3486	0	32792	
3487	0	32782	
3488	0	32792	
3489	0	32840	
3490	0	32904	
3491	0	33020	
3492	0	33144	
3493	0	33244	
3494	0	33348	
3495	0	33476	
3496	0	33616	
3497	0	33736	
3498	0	33856	
3499	0	33968	
3500	0	34064	
3501	0	34152	
3502	0	34240	
3503	0	34344	
3504	0	34412	
3505	0	34472	
3506	0	34436	
3507	0	34336	
3508	0	34244	
3509	0	34132	
3510	0	33988	
3511	0	33852	
3512	0	33722	
3513	0	33616	
3514	0	33552	
3515	0	33520	
3516	0	33456	
3517	0	33400	
3518	0	33360	
3519	0	33304	
3520	0	33248	
3521	0	33240	
3522	0	33204	
3523	0	33156	
3524	0	33132	
3525	0	33136	
3526	0	33096	
3527	0	33036	
3528	0	33008	
3529	0	32960	
3530	0	32916	
3531	0	32890	
3532	0	32882	
3533	0	32856	
3534	0	32828	
3535	0	32832	
3536	0	32884	
3537	0	32940	
3538	0	32932	
3539	0	32908	
3540	0	32896	
3541	0	32896	
3542	0	32908	
3543	0	32884	
3544	0	32824	
3545	0	32800	
3546	0	32732	
3547	0	32640	
3548	0	32572	
3549	0	32536	
3550	0	32468	
3551	0	32404	
3552	0	32360	
3553	0	32332	
3554	0	32304	
3555	0	32248	
3556	0	32236	
3557	0	32228	
3558	0	32264	
3559	0	32296	
3560	0	32332	
3561	0	32364	
3562	0	32392	
3563	0	32400	
3564	0	32420	
3565	0	32436	
3566	0	32416	
3567	0	32384	
3568	0	32332	
3569	0	32328	
3570	0	32324	
3571	0	32320	
3572	0	32368	
3573	0	32392	
3574	0	32432	
3575	0	32440	
3576	0	32468	
3577	0	32492	
3578	0	32496	
3579	0	32452	
3580	0	32428	
3581	0	32426	
3582	0	32468	
3583	0	32448	
3584	0	32448	
3585	0	32464	
3586	0	32484	
3587	0	32470	
3588	0	32460	
3589	0	32440	
3590	0	32426	
3591	0	32412	
3592	0	32414	
3593	0	32384	
3594	0	32372	
3595	0	32380	
3596	0	32388	
3597	0	32424	
3598	0	32476	
3599	0	32484	
3600	0	32512	
3601	0	32500	
3602	0	32504	
3603	0	32564	
3604	0	32632	
3605	0	32656	
3606	0	32668	
3607	0	32680	
3608	0	32668	
3609	0	32656	
3610	0	32632	
3611	0	32600	
3612	0	32608	
3613	0	32580	
3614	0	32564	
3615	0	32600	
3616	0	32640	
3617	0	32652	
3618	0	32708	
3619	0	32744	
3620	0	32760	
3621	0	32826	
3622	0	32920	
3623	0	32978	
3624	0	33052	
3625	0	33120	
3626	0	33128	
3627	0	33064	
3628	0	33014	
3629	0	32928	
3630	0	32888	
3631	0	32832	
3632	0	32760	
3633	0	32776	
3634	0	32916	
3635	0	33164	
3636	0	33440	
3637	0	33696	
3638	0	33992	
3639	0	34184	
3640	0	34312	
3641	0	34400	
3642	0	34500	
3643	0	34696	
3644	0	35072	
3645	0	35568	
3646	0	36140	
3647	0	36872	
3648	0	37736	
3649	0	38792	
3650	0	39920	
3651	0	41048	
3652	0	42208	
3653	0	43520	
3654	0	44872	
3655	0	46224	
3656	0	47464	
3657	0	48512	
3658	0	49424	
3659	0	50288	
3660	0	51272	
3661	0	52240	
3662	0	53052	
3663	0	53416	
3664	0	52936	
3665	0	51392	
3666	0	48884	
3667	0	45812	
3668	0	42572	
3669	0	39340	
3670	0	36416	
3671	0	34018	
3672	0	32384	
3673	0	31380	
3674	0	30776	
3675	0	30472	
3676	0	30420	
3677	0	30456	
3678	0	30512	
3679	0	30540	
3680	0	30604	
3681	0	30712	
3682	0	30852	
3683	0	30998	
3684	0	31136	
3685	0	31272	
3686	0	31384	
3687	0	31492	
3688	0	31636	
3689	0	31744	
3690	0	31820	
3691	0	31892	
3692	0	31936	
3693	0	31972	
3694	0	31992	
3695	0	31992	
3696	0	31960	
3697	0	31968	
3698	0	31960	
3699	0	31936	
3700	0	31904	
3701	0	31864	
3702	0	31852	
3703	0	31828	
3704	0	31828	
3705	0	31804	
3706	0	31768	
3707	0	31756	
3708	0	31740	
3709	0	31720	
3710	0	31690	
3711	0	31684	
3712	0	31672	
3713	0	31652	
3714	0	31652	
3715	0	31640	
3716	0	31652	
3717	0	31648	
3718	0	31676	
3719	0	31704	
3720	0	31728	
3721	0	31772	
3722	0	31840	
3723	0	31914	
3724	0	31952	
3725	0	31956	
3726	0	31928	
3727	0	31944	
3728	0	31996	
3729	0	32000	
3730	0	32024	
3731	0	32064	
3732	0	32056	
3733	0	32032	
3734	0	32072	
3735	0	32080	
3736	0	32100	
3737	0	32128	
3738	0	32164	
3739	0	32180	
3740	0	32172	
3741	0	32184	
3742	0	32212	
3743	0	32232	
3744	0	32248	
3745	0	32260	
3746	0	32264	
3747	0	32258	
3748	0	32256	
3749	0	32224	
3750	0	32204	
3751	0	32192	
3752	0	32184	
3753	0	32176	
3754	0	32184	
3755	0	32224	
3756	0	32256	
3757	0	32272	
3758	0	32272	
3759	0	32276	
3760	0	32296	
3761	0	32336	
3762	0	32380	
3763	0	32394	
3764	0	32420	
3765	0	32440	
3766	0	32434	
3767	0	32424	
3768	0	32428	
3769	0	32428	
3770	0	32408	
3771	0	32396	
3772	0	32400	
3773	0	32428	
3774	0	32428	
3775	0	32416	
3776	0	32452	
3777	0	32496	
3778	0	32546	
3779	0	32576	
3780	0	32568	
3781	0	32600	
3782	0	32636	
3783	0	32658	
3784	0	32684	
3785	0	32720	
3786	0	32704	
3787	0	32660	
3788	0	32648	
3789	0	32624	
3790	0	32602	
3791	0	32584	
3792	0	32556	
3793	0	32528	
3794	0	32516	
3795	0	32538	
3796	0	32540	
3797	0	32576	
3798	0	32636	
3799	0	32656	
3800	0	32700	
3801	0	32730	
3802	0	32712	
3803	0	32712	
3804	0	32760	
3805	0	32808	
3806	0	32832	
3807	0	32848	
3808	0	32844	
3809	0	32852	
3810	0	32864	
3811	0	32880	
3812	0	32864	
3813	0	32844	
3814	0	32828	
3815	0	32880	
3816	0	32948	
3817	0	32980	
3818	0	33048	
3819	0	33096	
3820	0	33136	
3821	0	33180	
3822	0	33196	
3823	0	33216	
3824	0	33248	
3825	0	33256	
3826	0	33250	
3827	0	33236	
3828	0	33228	
3829	0	33260	
3830	0	33256	
3831	0	33256	
3832	0	33258	
3833	0	33236	
3834	0	33224	
3835	0	33256	
3836	0	33280	
3837	0	33320	
3838	0	33356	
3839	0	33364	
3840	0	33384	
3841	0	33436	
3842	0	33468	
3843	0	33472	
3844	0	33472	
3845	0	33504	
3846	0	33516	
3847	0	33530	
3848	0	33524	
3849	0	33520	
3850	0	33492	
3851	0	33456	
3852	0	33412	
3853	0	33388	
3854	0	33400	
3855	0	33428	
3856	0	33456	
3857	0	33532	
3858	0	33620	
3859	0	33612	
3860	0	33604	
3861	0	33640	
3862	0	33644	
3863	0	33632	
3864	0	33636	
3865	0	33640	
3866	0	33620	
3867	0	33616	
3868	0	33600	
3869	0	33564	
3870	0	33540	
3871	0	33500	
3872	0	33472	
3873	0	33434	
3874	0	33408	
3875	0	33396	
3876	0	33432	
3877	0	33440	
3878	0	33432	
3879	0	33436	
3880	0	33410	
3881	0	33404	
3882	0	33424	
3883	0	33440	
3884	0	33444	
3885	0	33448	
3886	0	33416	
3887	0	33400	
3888	0	33364	
3889	0	33344	
3890	0	33332	
3891	0	33352	
3892	0	33364	
3893	0	33344	
3894	0	33356	
3895	0	33340	
3896	0	33376	
3897	0	33416	
3898	0	33452	
3899	0	33444	
3900	0	33444	
3901	0	33440	
3902	0	33432	
3903	0	33440	
3904	0	33468	
3905	0	33456	
3906	0	33404	
3907	0	33364	
3908	0	33354	
3909	0	33356	
3910	0	33352	
3911	0	33324	
3912	0	33306	
3913	0	33292	
3914	0	33280	
3915	0	33292	
3916	0	33348	
3917	0	33376	
3918	0	33392	
3919	0	33416	
3920	0	33428	
3921	0	33466	
3922	0	33480	
3923	0	33504	
3924	0	33528	
3925	0	33562	
3926	0	33548	
3927	0	33516	
3928	0	33488	
3929	0	33456	
3930	0	33416	
3931	0	33408	
3932	0	33384	
3933	0	33368	
3934	0	33320	
3935	0	33268	
3936	0	33220	
3937	0	33208	
3938	0	33194	
3939	0	33156	
3940	0	33108	
3941	0	33080	
3942	0	33052	
3943	0	33000	
3944	0	32944	
3945	0	32884	
3946	0	32800	
3947	0	32724	
3948	0	32636	
3949	0	32540	
3950	0	32448	
3951	0	32356	
3952	0	32292	
3953	0	32228	
3954	0	32152	
3955	0	32096	
3956	0	32068	
3957	0	32014	
3958	0	31972	
3959	0	31904	
3960	0	31844	
3961	0	31792	
3962	0	31740	
3963	0	31688	
3964	0	31636	
3965	0	31584	
3966	0	31484	
3967	0	31424	
3968	0	31360	
3969	0	31288	
3970	0	31244	
3971	0	31180	
3972	0	31104	
3973	0	31012	
3974	0	30972	
3975	0	30944	
3976	0	30920	
3977	0	30912	
3978	0	30908	
3979	0	30888	
3980	0	30872	
3981	0	30864	
3982	0	30880	
3983	0	30869	
3984	0	30864	
3985	0	30884	
3986	0	30920	
3987	0	30906	
3988	0	30868	
3989	0	30840	
3990	0	30836	
3991	0	30832	
3992	0	30812	
3993	0	30768	
3994	0	30764	
3995	0	30768	
3996	0	30768	
3997	0	30788	
3998	0	30792	
3999	0	30792	
4000	0	30812	
4001	0	30828	
4002	0	30884	
4003	0	30900	
4004	0	30914	
4005	0	30912	
4006	0	30906	
4007	0	30888	
4008	0	30892	
4009	0	30884	
4010	0	30864	
4011	0	30844	
4012	0	30832	
4013	0	30832	
4014	0	30864	
4015	0	30896	
4016	0	30944	
4017	0	30988	
4018	0	31028	
4019	0	31060	
4020	0	31100	
4021	0	31141	
4022	0	31164	
4023	0	31200	
4024	0	31200	
4025	0	31172	
4026	0	31136	
4027	0	31120	
4028	0	31128	
4029	0	31152	
4030	0	31144	
4031	0	31138	
4032	0	31112	
4033	0	31112	
4034	0	31136	
4035	0	31184	
4036	0	31234	
4037	0	31272	
4038	0	31312	
4039	0	31332	
4040	0	31372	
4041	0	31448	
4042	0	31540	
4043	0	31600	
4044	0	31624	
4045	0	31620	
4046	0	31576	
4047	0	31552	
4048	0	31576	
4049	0	31564	
4050	0	31576	
4051	0	31594	
4052	0	31604	
4053	0	31604	
4054	0	31596	
4055	0	31584	
4056	0	31582	
4057	0	31604	
4058	0	31644	
4059	0	31684	
4060	0	31708	
4061	0	31696	
4062	0	31716	
4063	0	31764	
4064	0	31760	
4065	0	31748	
4066	0	31716	
4067	0	31712	
4068	0	31704	
4069	0	31682	
4070	0	31680	
4071	0	31720	
4072	0	31744	
4073	0	31776	
4074	0	31824	
4075	0	31892	
4076	0	31988	
4077	0	32008	
4078	0	32000	
4079	0	31976	
4080	0	31956	
4081	0	31960	
4082	0	31932	
4083	0	31948	
4084	0	31956	
4085	0	31924	
4086	0	31896	
4087	0	31872	
4088	0	31832	
4089	0	31816	
4090	0	31796	
4091	0	31784	
4092	0	31780	
4093	0	31756	
4094	0	31744	
4095	0	31780	
4096	0	31808	
4097	0	31848	
4098	0	31860	
4099	0	31860	
4100	0	31860	
4101	0	31872	
4102	0	31884	
4103	0	31912	
4104	0	31976	
4105	0	31984	
4106	0	31940	
4107	0	31890	
4108	0	31836	
4109	0	31824	
4110	0	31808	
4111	0	31788	
4112	0	31760	
4113	0	31740	
4114	0	31712	
4115	0	31664	
4116	0	31684	
4117	0	31732	
4118	0	31752	
4119	0	31752	
4120	0	31724	
4121	0	31692	
4122	0	31692	
4123	0	31720	
4124	0	31768	
4125	0	31752	
4126	0	31680	
4127	0	31652	
4128	0	31608	
4129	0	31594	
4130	0	31556	
4131	0	31544	
4132	0	31504	
4133	0	31488	
4134	0	31456	
4135	0	31424	
4136	0	31416	
4137	0	31456	
4138	0	31476	
4139	0	31496	
4140	0	31536	
4141	0	31588	
4142	0	31632	
4143	0	31672	
4144	0	31696	
4145	0	31664	
4146	0	31604	
4147	0	31536	
4148	0	31504	
4149	0	31464	
4150	0	31472	
4151	0	31500	
4152	0	31488	
4153	0	31472	
4154	0	31492	
4155	0	31532	
4156	0	31560	
4157	0	31606	
4158	0	31652	
4159	0	31684	
4160	0	31712	
4161	0	31736	
4162	0	31772	
4163	0	31776	
4164	0	31776	
4165	0	31760	
4166	0	31744	
4167	0	31716	
4168	0	31720	
4169	0	31732	
4170	0	31712	
4171	0	31648	
4172	0	31632	
4173	0	31596	
4174	0	31592	
4175	0	31646	
4176	0	31748	
4177	0	31824	
4178	0	31860	
4179	0	31880	
4180	0	31904	
4181	0	31912	
4182	0	31904	
4183	0	31904	
4184	0	31884	
4185	0	31852	
4186	0	31812	
4187	0	31808	
4188	0	31792	
4189	0	31754	
4190	0	31740	
4191	0	31714	
4192	0	31644	
4193	0	31640	
4194	0	31652	
4195	0	31700	
4196	0	31752	
4197	0	31812	
4198	0	31852	
4199	0	31840	
4200	0	31860	
4201	0	31874	
4202	0	31924	
4203	0	31964	
4204	0	31992	
4205	0	31996	
4206	0	31980	
4207	0	31986	
4208	0	31992	
4209	0	31936	
4210	0	31860	
4211	0	31848	
4212	0	31840	
4213	0	31860	
4214	0	31876	
4215	0	31896	
4216	0	31960	
4217	0	32016	
4218	0	32024	
4219	0	32020	
4220	0	32028	
4221	0	32048	
4222	0	32054	
4223	0	32048	
4224	0	32072	
4225	0	32078	
4226	0	32074	
4227	0	32034	
4228	0	32004	
4229	0	31976	
4230	0	31960	
4231	0	31960	
4232	0	31960	
4233	0	31976	
4234	0	32016	
4235	0	32080	
4236	0	32132	
4237	0	32180	
4238	0	32200	
4239	0	32204	
4240	0	32240	
4241	0	32252	
4242	0	32284	
4243	0	32322	
4244	0	32364	
4245	0	32362	
4246	0	32360	
4247	0	32348	
4248	0	32296	
4249	0	32236	
4250	0	32244	
4251	0	32240	
4252	0	32228	
4253	0	32184	
4254	0	32172	
4255	0	32230	
4256	0	32320	
4257	0	32380	
4258	0	32430	
4259	0	32468	
4260	0	32564	
4261	0	32628	
4262	0	32638	
4263	0	32632	
4264	0	32608	
4265	0	32556	
4266	0	32488	
4267	0	32428	
4268	0	32384	
4269	0	32344	
4270	0	32340	
4271	0	32352	
4272	0	32344	
4273	0	32336	
4274	0	32344	
4275	0	32328	
4276	0	32344	
4277	0	32406	
4278	0	32460	
4279	0	32484	
4280	0	32542	
4281	0	32612	
4282	0	32668	
4283	0	32716	
4284	0	32732	
4285	0	32732	
4286	0	32676	
4287	0	32608	
4288	0	32576	
4289	0	32584	
4290	0	32604	
4291	0	32616	
4292	0	32664	
4293	0	32688	
4294	0	32664	
4295	0	32652	
4296	0	32668	
4297	0	32694	
4298	0	32684	
4299	0	32664	
4300	0	32648	
4301	0	32668	
4302	0	32712	
4303	0	32756	
4304	0	32784	
4305	0	32784	
4306	0	32740	
4307	0	32724	
4308	0	32708	
4309	0	32684	
4310	0	32688	
4311	0	32676	
4312	0	32640	
4313	0	32602	
4314	0	32564	
4315	0	32524	
4316	0	32516	
4317	0	32520	
4318	0	32516	
4319	0	32520	
4320	0	32556	
4321	0	32600	
4322	0	32672	
4323	0	32728	
4324	0	32736	
4325	0	32696	
4326	0	32692	
4327	0	32744	
4328	0	32792	
4329	0	32800	
4330	0	32832	
4331	0	32908	
4332	0	32936	
4333	0	32968	
4334	0	33004	
4335	0	33082	
4336	0	33176	
4337	0	33244	
4338	0	33320	
4339	0	33338	
4340	0	33356	
4341	0	33354	
4342	0	33352	
4343	0	33340	
4344	0	33308	
4345	0	33300	
4346	0	33240	
4347	0	33200	
4348	0	33186	
4349	0	33176	
4350	0	33160	
4351	0	33070	
4352	0	32976	
4353	0	32932	
4354	0	32924	
4355	0	32948	
4356	0	33064	
4357	0	33244	
4358	0	33416	
4359	0	33536	
4360	0	33664	
4361	0	33800	
4362	0	33952	
4363	0	34092	
4364	0	34200	
4365	0	34292	
4366	0	34360	
4367	0	34384	
4368	0	34354	
4369	0	34324	
4370	0	34280	
4371	0	34280	
4372	0	34248	
4373	0	34184	
4374	0	34152	
4375	0	34100	
4376	0	34016	
4377	0	33936	
4378	0	33824	
4379	0	33740	
4380	0	33668	
4381	0	33572	
4382	0	33456	
4383	0	33376	
4384	0	33320	
4385	0	33248	
4386	0	33160	
4387	0	33064	
4388	0	32984	
4389	0	32912	
4390	0	32856	
4391	0	32828	
4392	0	32788	
4393	0	32784	
4394	0	32768	
4395	0	32756	
4396	0	32772	
4397	0	32768	
4398	0	32772	
4399	0	32788	
4400	0	32772	
4401	0	32764	
4402	0	32748	
4403	0	32712	
4404	0	32672	
4405	0	32606	
4406	0	32512	
4407	0	32452	
4408	0	32428	
4409	0	32388	
4410	0	32340	
4411	0	32296	
4412	0	32300	
4413	0	32300	
4414	0	32248	
4415	0	32224	
4416	0	32200	
4417	0	32184	
4418	0	32128	
4419	0	32116	
4420	0	32156	
4421	0	32176	
4422	0	32188	
4423	0	32196	
4424	0	32200	
4425	0	32200	
4426	0	32206	
4427	0	32228	
4428	0	32236	
4429	0	32236	
4430	0	32258	
4431	0	32222	
4432	0	32140	
4433	0	32056	
4434	0	31992	
4435	0	31976	
4436	0	31972	
4437	0	32032	
4438	0	32048	
4439	0	32032	
4440	0	32096	
4441	0	32160	
4442	0	32224	
4443	0	32304	
4444	0	32340	
4445	0	32344	
4446	0	32352	
4447	0	32346	
4448	0	32364	
4449	0	32352	
4450	0	32368	
4451	0	32352	
4452	0	32296	
4453	0	32228	
4454	0	32192	
4455	0	32216	
4456	0	32242	
4457	0	32292	
4458	0	32308	
4459	0	32312	
4460	0	32328	
4461	0	32320	
4462	0	32352	
4463	0	32408	
4464	0	32424	
4465	0	32372	
4466	0	32312	
4467	0	32280	
4468	0	32263	
4469	0	32320	
4470	0	32352	
4471	0	32388	
4472	0	32424	
4473	0	32436	
4474	0	32456	
4475	0	32468	
4476	0	32452	
4477	0	32458	
4478	0	32448	
4479	0	32468	
4480	0	32496	
4481	0	32484	
4482	0	32468	
4483	0	32492	
4484	0	32528	
4485	0	32548	
4486	0	32556	
4487	0	32556	
4488	0	32524	
4489	0	32568	
4490	0	32648	
4491	0	32672	
4492	0	32684	
4493	0	32698	
4494	0	32660	
4495	0	32588	
4496	0	32540	
4497	0	32520	
4498	0	32584	
4499	0	32740	
4500	0	33070	
4501	0	33372	
4502	0	33672	
4503	0	33956	
4504	0	34182	
4505	0	34288	
4506	0	34284	
4507	0	34320	
4508	0	34524	
4509	0	34868	
4510	0	35372	
4511	0	36016	
4512	0	36784	
4513	0	37720	
4514	0	38848	
4515	0	40150	
4516	0	41384	
4517	0	42664	
4518	0	44008	
4519	0	45452	
4520	0	47028	
4521	0	48528	
4522	0	49848	
4523	0	50924	
4524	0	51892	
4525	0	52764	
4526	0	53634	
4527	0	54484	
4528	0	54968	
4529	0	54792	
4530	0	53656	
4531	0	51422	
4532	0	48468	
4533	0	45200	
4534	0	41816	
4535	0	38632	
4536	0	35840	
4537	0	33664	
4538	0	32280	
4539	0	31484	
4540	0	30952	
4541	0	30612	
4542	0	30396	
4543	0	30304	
4544	0	30372	
4545	0	30530	
4546	0	30720	
4547	0	30872	
4548	0	31008	
4549	0	31136	
4550	0	31252	
4551	0	31408	
4552	0	31536	
4553	0	31658	
4554	0	31804	
4555	0	31956	
4556	0	32076	
4557	0	32136	
4558	0	32160	
4559	0	32156	
4560	0	32176	
4561	0	32200	
4562	0	32224	
4563	0	32264	
4564	0	32288	
4565	0	32248	
4566	0	32128	
4567	0	32053	
4568	0	32005	
4569	0	31960	
4570	0	31904	
4571	0	31848	
4572	0	31780	
4573	0	31728	
4574	0	31672	
4575	0	31636	
4576	0	31642	
4577	0	31680	
4578	0	31708	
4579	0	31744	
4580	0	31760	
4581	0	31784	
4582	0	31832	
4583	0	31906	
4584	0	31952	
4585	0	31928	
4586	0	31892	
4587	0	31916	
4588	0	31928	
4589	0	31964	
4590	0	31972	
4591	0	31936	
4592	0	31944	
4593	0	31984	
4594	0	32020	
4595	0	32060	
4596	0	32096	
4597	0	32116	
4598	0	32136	
4599	0	32212	
4600	0	32248	
4601	0	32256	
4602	0	32288	
4603	0	32332	
4604	0	32334	
4605	0	32304	
4606	0	32296	
4607	0	32296	
4608	0	32300	
4609	0	32284	
4610	0	32292	
4611	0	32324	
4612	0	32344	
4613	0	32372	
4614	0	32440	
4615	0	32508	
4616	0	32544	
4617	0	32560	
4618	0	32592	
4619	0	32608	
4620	0	32608	
4621	0	32592	
4622	0	32588	
4623	0	32648	
4624	0	32652	
4625	0	32608	
4626	0	32592	
4627	0	32588	
4628	0	32612	
4629	0	32632	
4630	0	32636	
4631	0	32636	
4632	0	32664	
4633	0	32656	
4634	0	32684	
4635	0	32716	
4636	0	32728	
4637	0	32756	
4638	0	32764	
4639	0	32760	
4640	0	32808	
4641	0	32858	
4642	0	32864	
4643	0	32880	
4644	0	32900	
4645	0	32924	
4646	0	32960	
4647	0	32976	
4648	0	33012	
4649	0	33072	
4650	0	33092	
4651	0	33104	
4652	0	33108	
4653	0	33104	
4654	0	33116	
4655	0	33120	
4656	0	33176	
4657	0	33232	
4658	0	33232	
4659	0	33240	
4660	0	33248	
4661	0	33280	
4662	0	33300	
4663	0	33320	
4664	0	33328	
4665	0	33296	
4666	0	33254	
4667	0	33248	
4668	0	33292	
4669	0	33304	
4670	0	33296	
4671	0	33296	
4672	0	33300	
4673	0	33336	
4674	0	33352	
4675	0	33360	
4676	0	33388	
4677	0	33428	
4678	0	33472	
4679	0	33528	
4680	0	33586	
4681	0	33608	
4682	0	33656	
4683	0	33704	
4684	0	33744	
4685	0	33732	
4686	0	33760	
4687	0	33760	
4688	0	33752	
4689	0	33752	
4690	0	33746	
4691	0	33712	
4692	0	33696	
4693	0	33692	
4694	0	33672	
4695	0	33660	
4696	0	33656	
4697	0	33664	
4698	0	33668	
4699	0	33680	
4700	0	33740	
4701	0	33776	
4702	0	33800	
4703	0	33886	
4704	0	33884	
4705	0	33868	
4706	0	33856	
4707	0	33852	
4708	0	33872	
4709	0	33892	
4710	0	33898	
4711	0	33880	
4712	0	33844	
4713	0	33818	
4714	0	33812	
4715	0	33856	
4716	0	33892	
4717	0	33912	
4718	0	33912	
4719	0	33944	
4720	0	33984	
4721	0	34044	
4722	0	34080	
4723	0	34120	
4724	0	34100	
4725	0	34076	
4726	0	34044	
4727	0	34024	
4728	0	34012	
4729	0	34028	
4730	0	34032	
4731	0	33964	
4732	0	33944	
4733	0	33952	
4734	0	33952	
4735	0	33976	
4736	0	34004	
4737	0	34032	
4738	0	34048	
4739	0	34068	
4740	0	34078	
4741	0	34084	
4742	0	34128	
4743	0	34156	
4744	0	34152	
4745	0	34112	
4746	0	34080	
4747	0	34032	
4748	0	34008	
4749	0	34014	
4750	0	34000	
4751	0	33936	
4752	0	33888	
4753	0	33868	
4754	0	33864	
4755	0	33864	
4756	0	33884	
4757	0	33900	
4758	0	33908	
4759	0	33896	
4760	0	33912	
4761	0	33920	
4762	0	33928	
4763	0	33952	
4764	0	33932	
4765	0	33912	
4766	0	33840	
4767	0	33824	
4768	0	33788	
4769	0	33744	
4770	0	33740	
4771	0	33740	
4772	0	33724	
4773	0	33664	
4774	0	33624	
4775	0	33636	
4776	0	33656	
4777	0	33652	
4778	0	33656	
4779	0	33684	
4780	0	33696	
4781	0	33692	
4782	0	33680	
4783	0	33692	
4784	0	33666	
4785	0	33620	
4786	0	33608	
4787	0	33624	
4788	0	33632	
4789	0	33608	
4790	0	33594	
4791	0	33592	
4792	0	33560	
4793	0	33496	
4794	0	33504	
4795	0	33496	
4796	0	33536	
4797	0	33564	
4798	0	33540	
4799	0	33500	
4800	0	33488	
4801	0	33464	
4802	0	33442	
4803	0	33396	
4804	0	33340	
4805	0	33256	
4806	0	33196	
4807	0	33128	
4808	0	33020	
4809	0	32928	
4810	0	32844	
4811	0	32776	
4812	0	32736	
4813	0	32668	
4814	0	32592	
4815	0	32532	
4816	0	32482	
4817	0	32432	
4818	0	32384	
4819	0	32348	
4820	0	32292	
4821	0	32252	
4822	0	32188	
4823	0	32084	
4824	0	31956	
4825	0	31870	
4826	0	31810	
4827	0	31740	
4828	0	31620	
4829	0	31512	
4830	0	31408	
4831	0	31284	
4832	0	31188	
4833	0	31108	
4834	0	31056	
4835	0	31012	
4836	0	31016	
4837	0	31004	
4838	0	30944	
4839	0	30888	
4840	0	30840	
4841	0	30808	
4842	0	30804	
4843	0	30792	
4844	0	30784	
4845	0	30724	
4846	0	30668	
4847	0	30612	
4848	0	30592	
4849	0	30556	
4850	0	30528	
4851	0	30540	
4852	0	30548	
4853	0	30536	
4854	0	30530	
4855	0	30564	
4856	0	30600	
4857	0	30592	
4858	0	30568	
4859	0	30532	
4860	0	30552	
4861	0	30560	
4862	0	30572	
4863	0	30588	
4864	0	30580	
4865	0	30584	
4866	0	30580	
4867	0	30588	
4868	0	30624	
4869	0	30680	
4870	0	30712	
4871	0	30772	
4872	0	30804	
4873	0	30800	
4874	0	30828	
4875	0	30872	
4876	0	30940	
4877	0	30968	
4878	0	30960	
4879	0	30984	
4880	0	31000	
4881	0	31032	
4882	0	31024	
4883	0	31040	
4884	0	31032	
4885	0	31024	
4886	0	31008	
4887	0	30992	
4888	0	30968	
4889	0	30920	
4890	0	30860	
4891	0	30828	
4892	0	30824	
4893	0	30864	
4894	0	30906	
4895	0	30956	
4896	0	30964	
4897	0	30972	
4898	0	30988	
4899	0	31020	
4900	0	31036	
4901	0	31072	
4902	0	31144	
4903	0	31184	
4904	0	31176	
4905	0	31132	
4906	0	31104	
4907	0	31068	
4908	0	31036	
4909	0	31038	
4910	0	31068	
4911	0	31092	
4912	0	31080	
4913	0	31060	
4914	0	31068	
4915	0	31128	
4916	0	31168	
4917	0	31212	
4918	0	31228	
4919	0	31248	
4920	0	31300	
4921	0	31360	
4922	0	31440	
4923	0	31456	
4924	0	31456	
4925	0	31444	
4926	0	31424	
4927	0	31440	
4928	0	31460	
4929	0	31480	
4930	0	31464	
4931	0	31416	
4932	0	31400	
4933	0	31396	
4934	0	31424	
4935	0	31444	
4936	0	31444	
4937	0	31490	
4938	0	31548	
4939	0	31568	
4940	0	31572	
4941	0	31552	
4942	0	31594	
4943	0	31616	
4944	0	31585	
4945	0	31544	
4946	0	31504	
4947	0	31472	
4948	0	31416	
4949	0	31368	
4950	0	31364	
4951	0	31320	
4952	0	31284	
4953	0	31284	
4954	0	31290	
4955	0	31276	
4956	0	31300	
4957	0	31304	
4958	0	31272	
4959	0	31272	
4960	0	31296	
4961	0	31328	
4962	0	31336	
4963	0	31336	
4964	0	31296	
4965	0	31258	
4966	0	31232	
4967	0	31196	
4968	0	31176	
4969	0	31188	
4970	0	31216	
4971	0	31212	
4972	0	31242	
4973	0	31310	
4974	0	31372	
4975	0	31408	
4976	0	31434	
4977	0	31424	
4978	0	31406	
4979	0	31452	
4980	0	31512	
4981	0	31556	
4982	0	31572	
4983	0	31572	
4984	0	31508	
4985	0	31472	
4986	0	31432	
4987	0	31408	
4988	0	31368	
4989	0	31364	
4990	0	31348	
4991	0	31360	
4992	0	31368	
4993	0	31360	
4994	0	31400	
4995	0	31476	
4996	0	31524	
4997	0	31572	
4998	0	31608	
4999	0	31642	
5000	0	31672	
5001	0	31672	
5002	0	31688	
5003	0	31720	
5004	0	31724	
5005	0	31700	
5006	0	31680	
5007	0	31688	
5008	0	31692	
5009	0	31674	
5010	0	31648	
5011	0	31596	
5012	0	31548	
5013	0	31508	
5014	0	31488	
5015	0	31540	
5016	0	31624	
5017	0	31624	
5018	0	31608	
5019	0	31618	
5020	0	31648	
5021	0	31696	
5022	0	31736	
5023	0	31748	
5024	0	31724	
5025	0	31688	
5026	0	31636	
5027	0	31600	
5028	0	31570	
5029	0	31584	
5030	0	31600	
5031	0	31588	
5032	0	31568	
5033	0	31564	
5034	0	31548	
5035	0	31560	
5036	0	31580	
5037	0	31632	
5038	0	31720	
5039	0	31808	
5040	0	31832	
5041	0	31872	
5042	0	31920	
5043	0	31946	
5044	0	31972	
5045	0	31972	
5046	0	31996	
5047	0	32004	
5048	0	32012	
5049	0	32016	
5050	0	32020	
5051	0	31984	
5052	0	31992	
5053	0	31980	
5054	0	31984	
5055	0	31992	
5056	0	31996	
5057	0	31988	
5058	0	31984	
5059	0	31984	
5060	0	31992	
5061	0	32012	
5062	0	32032	
5063	0	32052	
5064	0	32036	
5065	0	32028	
5066	0	32032	
5067	0	32036	
5068	0	32014	
5069	0	32004	
5070	0	32004	
5071	0	31960	
5072	0	31968	
5073	0	32004	
5074	0	32052	
5075	0	32076	
5076	0	32104	
5077	0	32080	
5078	0	32092	
5079	0	32112	
5080	0	32140	
5081	0	32176	
5082	0	32232	
5083	0	32288	
5084	0	32272	
5085	0	32240	
5086	0	32208	
5087	0	32164	
5088	0	32144	
5089	0	32116	
5090	0	32094	
5091	0	32084	
5092	0	32092	
5093	0	32120	
5094	0	32162	
5095	0	32212	
5096	0	32236	
5097	0	32220	
5098	0	32228	
5099	0	32240	
5100	0	32280	
5101	0	32304	
5102	0	32328	
5103	0	32348	
5104	0	32336	
5105	0	32288	
5106	0	32284	
5107	0	32288	
5108	0	32272	
5109	0	32288	
5110	0	32288	
5111	0	32296	
5112	0	32308	
5113	0	32308	
5114	0	32336	
5115	0	32368	
5116	0	32376	
5117	0	32404	
5118	0	32432	
5119	0	32452	
5120	0	32476	
5121	0	32488	
5122	0	32490	
5123	0	32500	
5124	0	32472	
5125	0	32440	
5126	0	32408	
5127	0	32400	
5128	0	32376	
5129	0	32344	
5130	0	32316	
5131	0	32300	
5132	0	32304	
5133	0	32320	
5134	0	32344	
5135	0	32356	
5136	0	32368	
5137	0	32384	
5138	0	32424	
5139	0	32456	
5140	0	32492	
5141	0	32536	
5142	0	32576	
5143	0	32596	
5144	0	32592	
5145	0	32620	
5146	0	32692	
5147	0	32760	
5148	0	32778	
5149	0	32752	
5150	0	32756	
5151	0	32716	
5152	0	32652	
5153	0	32582	
5154	0	32568	
5155	0	32582	
5156	0	32628	
5157	0	32660	
5158	0	32680	
5159	0	32704	
5160	0	32736	
5161	0	32728	
5162	0	32732	
5163	0	32756	
5164	0	32812	
5165	0	32888	
5166	0	32980	
5167	0	33064	
5168	0	33200	
5169	0	33312	
5170	0	33380	
5171	0	33436	
5172	0	33504	
5173	0	33596	
5174	0	33676	
5175	0	33768	
5176	0	33832	
5177	0	33852	
5178	0	33888	
5179	0	33968	
5180	0	34076	
5181	0	34124	
5182	0	34120	
5183	0	34096	
5184	0	34012	
5185	0	33880	
5186	0	33752	
5187	0	33648	
5188	0	33560	
5189	0	33480	
5190	0	33408	
5191	0	33332	
5192	0	33252	
5193	0	33144	
5194	0	33064	
5195	0	33032	
5196	0	33034	
5197	0	33032	
5198	0	33004	
5199	0	32964	
5200	0	32952	
5201	0	32924	
5202	0	32924	
5203	0	32924	
5204	0	32920	
5205	0	32884	
5206	0	32828	
5207	0	32776	
5208	0	32748	
5209	0	32752	
5210	0	32740	
5211	0	32740	
5212	0	32716	
5213	0	32716	
5214	0	32712	
5215	0	32728	
5216	0	32720	
5217	0	32728	
5218	0	32672	
5219	0	32636	
5220	0	32652	
5221	0	32668	
5222	0	32656	
5223	0	32586	
5224	0	32464	
5225	0	32378	
5226	0	32312	
5227	0	32244	
5228	0	32184	
5229	0	32148	
5230	0	32144	
5231	0	32148	
5232	0	32154	
5233	0	32176	
5234	0	32216	
5235	0	32222	
5236	0	32252	
5237	0	32232	
5238	0	32236	
5239	0	32264	
5240	0	32292	
5241	0	32336	
5242	0	32360	
5243	0	32340	
5244	0	32302	
5245	0	32256	
5246	0	32264	
5247	0	32280	
5248	0	32288	
5249	0	32304	
5250	0	32348	
5251	0	32362	
5252	0	32364	
5253	0	32392	
5254	0	32448	
5255	0	32500	
5256	0	32556	
5257	0	32584	
5258	0	32608	
5259	0	32600	
5260	0	32602	
5261	0	32596	
5262	0	32584	
5263	0	32596	
5264	0	32572	
5265	0	32540	
5266	0	32504	
5267	0	32464	
5268	0	32456	
5269	0	32480	
5270	0	32468	
5271	0	32480	
5272	0	32500	
5273	0	32536	
5274	0	32584	
5275	0	32620	
5276	0	32652	
5277	0	32720	
5278	0	32708	
5279	0	32708	
5280	0	32736	
5281	0	32800	
5282	0	32836	
5283	0	32836	
5284	0	32820	
5285	0	32780	
5286	0	32760	
5287	0	32732	
5288	0	32732	
5289	0	32704	
5290	0	32704	
5291	0	32714	
5292	0	32720	
5293	0	32714	
5294	0	32752	
5295	0	32826	
5296	0	32904	
5297	0	32972	
5298	0	33068	
5299	0	33184	
5300	0	33252	
5301	0	33288	
5302	0	33328	
5303	0	33328	
5304	0	33312	
5305	0	33240	
5306	0	33164	
5307	0	33112	
5308	0	33052	
5309	0	33080	
5310	0	33218	
5311	0	33492	
5312	0	33780	
5313	0	34116	
5314	0	34430	
5315	0	34692	
5316	0	34928	
5317	0	35048	
5318	0	35160	
5319	0	35312	
5320	0	35608	
5321	0	36084	
5322	0	36720	
5323	0	37476	
5324	0	38336	
5325	0	39444	
5326	0	40696	
5327	0	41904	
5328	0	43128	
5329	0	44448	
5330	0	45884	
5331	0	47376	
5332	0	48824	
5333	0	50112	
5334	0	51212	
5335	0	52196	
5336	0	53160	
5337	0	54144	
5338	0	55040	
5339	0	55552	
5340	0	55428	
5341	0	54240	
5342	0	52016	
5343	0	49048	
5344	0	45640	
5345	0	42112	
5346	0	38724	
5347	0	35824	
5348	0	33616	
5349	0	32184	
5350	0	31308	
5351	0	30788	
5352	0	30496	
5353	0	30352	
5354	0	30336	
5355	0	30420	
5356	0	30544	
5357	0	30680	
5358	0	30844	
5359	0	31044	
5360	0	31208	
5361	0	31376	
5362	0	31536	
5363	0	31656	
5364	0	31760	
5365	0	31880	
5366	0	31984	
5367	0	32060	
5368	0	32112	
5369	0	32132	
5370	0	32124	
5371	0	32082	
5372	0	32056	
5373	0	32044	
5374	0	32032	
5375	0	32024	
5376	0	31992	
5377	0	31940	
5378	0	31892	
5379	0	31886	
5380	0	31872	
5381	0	31876	
5382	0	31908	
5383	0	31920	
5384	0	31872	
5385	0	31832	
5386	0	31824	
5387	0	31816	
5388	0	31828	
5389	0	31856	
5390	0	31828	
5391	0	31808	
5392	0	31792	
5393	0	31824	
5394	0	31872	
5395	0	31948	
5396	0	32024	
5397	0	32058	
5398	0	32096	
5399	0	32152	
5400	0	32224	
5401	0	32248	
5402	0	32244	
5403	0	32228	
5404	0	32208	
5405	0	32200	
5406	0	32184	
5407	0	32176	
5408	0	32148	
5409	0	32132	
5410	0	32136	
5411	0	32132	
5412	0	32168	
5413	0	32208	
5414	0	32264	
5415	0	32316	
5416	0	32370	
5417	0	32404	
5418	0	32424	
5419	0	32480	
5420	0	32538	
5421	0	32578	
5422	0	32604	
5423	0	32614	
5424	0	32608	
5425	0	32612	
5426	0	32628	
5427	0	32632	
5428	0	32640	
5429	0	32648	
5430	0	32648	
5431	0	32660	
5432	0	32698	
5433	0	32744	
5434	0	32808	
5435	0	32872	
5436	0	32908	
5437	0	32928	
5438	0	32992	
5439	0	33032	
5440	0	33068	
5441	0	33096	
5442	0	33128	
5443	0	33140	
5444	0	33148	
5445	0	33156	
5446	0	33140	
5447	0	33120	
5448	0	33144	
5449	0	33160	
5450	0	33160	
5451	0	33172	
5452	0	33184	
5453	0	33200	
5454	0	33220	
5455	0	33240	
5456	0	33228	
5457	0	33232	
5458	0	33252	
5459	0	33264	
5460	0	33272	
5461	0	33304	
5462	0	33332	
5463	0	33328	
5464	0	33320	
5465	0	33328	
5466	0	33328	
5467	0	33320	
5468	0	33288	
5469	0	33264	
5470	0	33268	
5471	0	33256	
5472	0	33268	
5473	0	33300	
5474	0	33336	
5475	0	33376	
5476	0	33384	
5477	0	33392	
5478	0	33432	
5479	0	33472	
5480	0	33508	
5481	0	33520	
5482	0	33548	
5483	0	33556	
5484	0	33540	
5485	0	33536	
5486	0	33540	
5487	0	33556	
5488	0	33532	
5489	0	33526	
5490	0	33536	
5491	0	33540	
5492	0	33506	
5493	0	33532	
5494	0	33568	
5495	0	33628	
5496	0	33652	
5497	0	33652	
5498	0	33676	
5499	0	33700	
5500	0	33736	
5501	0	33780	
5502	0	33824	
5503	0	33848	
5504	0	33836	
5505	0	33844	
5506	0	33856	
5507	0	33876	
5508	0	33888	
5509	0	33876	
5510	0	33812	
5511	0	33768	
5512	0	33764	
5513	0	33792	
5514	0	33832	
5515	0	33872	
5516	0	33876	
5517	0	33860	
5518	0	33852	
5519	0	33882	
5520	0	33940	
5521	0	33984	
5522	0	34004	
5523	0	34028	
5524	0	34020	
5525	0	34024	
5526	0	34032	
5527	0	34032	
5528	0	34020	
5529	0	34032	
5530	0	34000	
5531	0	33968	
5532	0	33964	
5533	0	33972	
5534	0	33994	
5535	0	34016	
5536	0	34052	
5537	0	34092	
5538	0	34132	
5539	0	34146	
5540	0	34160	
5541	0	34144	
5542	0	34136	
5543	0	34144	
5544	0	34148	
5545	0	34144	
5546	0	34136	
5547	0	34128	
5548	0	34144	
5549	0	34138	
5550	0	34124	
5551	0	34112	
5552	0	34112	
5553	0	34120	
5554	0	34124	
5555	0	34128	
5556	0	34180	
5557	0	34200	
5558	0	34176	
5559	0	34172	
5560	0	34138	
5561	0	34112	
5562	0	34072	
5563	0	34024	
5564	0	33968	
5565	0	33952	
5566	0	33924	
5567	0	33920	
5568	0	33916	
5569	0	33928	
5570	0	33928	
5571	0	33900	
5572	0	33858	
5573	0	33824	
5574	0	33810	
5575	0	33848	
5576	0	33872	
5577	0	33908	
5578	0	33924	
5579	0	33920	
5580	0	33906	
5581	0	33952	
5582	0	33992	
5583	0	33968	
5584	0	33936	
5585	0	33900	
5586	0	33880	
5587	0	33864	
5588	0	33872	
5589	0	33856	
5590	0	33848	
5591	0	33840	
5592	0	33844	
5593	0	33852	
5594	0	33860	
5595	0	33888	
5596	0	33928	
5597	0	33914	
5598	0	33928	
5599	0	33940	
5600	0	33944	
5601	0	33948	
5602	0	33936	
5603	0	33908	
5604	0	33860	
5605	0	33776	
5606	0	33728	
5607	0	33680	
5608	0	33632	
5609	0	33548	
5610	0	33484	
5611	0	33434	
5612	0	33376	
5613	0	33332	
5614	0	33292	
5615	0	33248	
5616	0	33232	
5617	0	33184	
5618	0	33144	
5619	0	33088	
5620	0	33000	
5621	0	32916	
5622	0	32828	
5623	0	32724	
5624	0	32608	
5625	0	32484	
5626	0	32388	
5627	0	32320	
5628	0	32200	
5629	0	32092	
5630	0	31988	
5631	0	31880	
5632	0	31784	
5633	0	31700	
5634	0	31656	
5635	0	31628	
5636	0	31592	
5637	0	31562	
5638	0	31500	
5639	0	31452	
5640	0	31396	
5641	0	31316	
5642	0	31258	
5643	0	31180	
5644	0	31128	
5645	0	31036	
5646	0	30928	
5647	0	30848	
5648	0	30768	
5649	0	30656	
5650	0	30600	
5651	0	30536	
5652	0	30500	
5653	0	30476	
5654	0	30456	
5655	0	30428	
5656	0	30416	
5657	0	30426	
5658	0	30404	
5659	0	30394	
5660	0	30384	
5661	0	30348	
5662	0	30328	
5663	0	30292	
5664	0	30252	
5665	0	30236	
5666	0	30232	
5667	0	30200	
5668	0	30164	
5669	0	30136	
5670	0	30140	
5671	0	30136	
5672	0	30136	
5673	0	30168	
5674	0	30208	
5675	0	30248	
5676	0	30252	
5677	0	30260	
5678	0	30296	
5679	0	30354	
5680	0	30372	
5681	0	30408	
5682	0	30440	
5683	0	30432	
5684	0	30400	
5685	0	30368	
5686	0	30356	
5687	0	30376	
5688	0	30384	
5689	0	30382	
5690	0	30364	
5691	0	30336	
5692	0	30304	
5693	0	30336	
5694	0	30404	
5695	0	30468	
5696	0	30542	
5697	0	30584	
5698	0	30608	
5699	0	30660	
5700	0	30712	
5701	0	30752	
5702	0	30776	
5703	0	30780	
5704	0	30776	
5705	0	30776	
5706	0	30764	
5707	0	30768	
5708	0	30788	
5709	0	30776	
5710	0	30768	
5711	0	30800	
5712	0	30836	
5713	0	30876	
5714	0	30932	
5715	0	30988	
5716	0	31008	
5717	0	31004	
5718	0	31040	
5719	0	31048	
5720	0	31064	
5721	0	31088	
5722	0	31128	
5723	0	31128	
5724	0	31124	
5725	0	31112	
5726	0	31112	
5727	0	31112	
5728	0	31068	
5729	0	31040	
5730	0	31040	
5731	0	31060	
5732	0	31092	
5733	0	31124	
5734	0	31128	
5735	0	31140	
5736	0	31156	
5737	0	31188	
5738	0	31236	
5739	0	31272	
5740	0	31300	
5741	0	31316	
5742	0	31346	
5743	0	31336	
5744	0	31280	
5745	0	31258	
5746	0	31236	
5747	0	31256	
5748	0	31228	
5749	0	31208	
5750	0	31184	
5751	0	31160	
5752	0	31144	
5753	0	31136	
5754	0	31152	
5755	0	31176	
5756	0	31180	
5757	0	31192	
5758	0	31248	
5759	0	31288	
5760	0	31300	
5761	0	31316	
5762	0	31308	
5763	0	31234	
5764	0	31184	
5765	0	31156	
5766	0	31136	
5767	0	31112	
5768	0	31104	
5769	0	31100	
5770	0	31056	
5771	0	31028	
5772	0	31024	
5773	0	31032	
5774	0	31080	
5775	0	31104	
5776	0	31120	
5777	0	31136	
5778	0	31120	
5779	0	31108	
5780	0	31136	
5781	0	31166	
5782	0	31196	
5783	0	31184	
5784	0	31168	
5785	0	31154	
5786	0	31132	
5787	0	31100	
5788	0	31068	
5789	0	31038	
5790	0	31020	
5791	0	31036	
5792	0	31064	
5793	0	31106	
5794	0	31144	
5795	0	31184	
5796	0	31208	
5797	0	31212	
5798	0	31232	
5799	0	31276	
5800	0	31296	
5801	0	31320	
5802	0	31344	
5803	0	31340	
5804	0	31308	
5805	0	31290	
5806	0	31280	
5807	0	31276	
5808	0	31248	
5809	0	31240	
5810	0	31232	
5811	0	31232	
5812	0	31248	
5813	0	31264	
5814	0	31288	
5815	0	31336	
5816	0	31352	
5817	0	31384	
5818	0	31424	
5819	0	31448	
5820	0	31442	
5821	0	31452	
5822	0	31428	
5823	0	31428	
5824	0	31440	
5825	0	31412	
5826	0	31392	
5827	0	31368	
5828	0	31364	
5829	0	31376	
5830	0	31356	
5831	0	31374	
5832	0	31436	
5833	0	31476	
5834	0	31520	
5835	0	31532	
5836	0	31528	
5837	0	31508	
5838	0	31528	
5839	0	31552	
5840	0	31552	
5841	0	31514	
5842	0	31504	
5843	0	31480	
5844	0	31448	
5845	0	31432	
5846	0	31440	
5847	0	31428	
5848	0	31434	
5849	0	31416	
5850	0	31400	
5851	0	31384	
5852	0	31384	
5853	0	31384	
5854	0	31408	
5855	0	31460	
5856	0	31492	
5857	0	31528	
5858	0	31536	
5859	0	31552	
5860	0	31568	
5861	0	31586	
5862	0	31588	
5863	0	31536	
5864	0	31504	
5865	0	31496	
5866	0	31500	
5867	0	31496	
5868	0	31516	
5869	0	31508	
5870	0	31524	
5871	0	31580	
5872	0	31604	
5873	0	31648	
5874	0	31682	
5875	0	31712	
5876	0	31728	
5877	0	31752	
5878	0	31776	
5879	0	31788	
5880	0	31808	
5881	0	31832	
5882	0	31870	
5883	0	31864	
5884	0	31840	
5885	0	31808	
5886	0	31800	
5887	0	31802	
5888	0	31796	
5889	0	31764	
5890	0	31724	
5891	0	31712	
5892	0	31720	
5893	0	31740	
5894	0	31780	
5895	0	31828	
5896	0	31820	
5897	0	31824	
5898	0	31824	
5899	0	31852	
5900	0	31860	
5901	0	31904	
5902	0	31928	
5903	0	31900	
5904	0	31872	
5905	0	31840	
5906	0	31848	
5907	0	31856	
5908	0	31836	
5909	0	31826	
5910	0	31792	
5911	0	31772	
5912	0	31778	
5913	0	31800	
5914	0	31836	
5915	0	31880	
5916	0	31900	
5917	0	31912	
5918	0	31920	
5919	0	31954	
5920	0	31994	
5921	0	32016	
5922	0	32020	
5923	0	31996	
5924	0	31976	
5925	0	31940	
5926	0	31908	
5927	0	31900	
5928	0	31896	
5929	0	31904	
5930	0	31912	
5931	0	31912	
5932	0	31912	
5933	0	31944	
5934	0	31972	
5935	0	31996	
5936	0	32024	
5937	0	32048	
5938	0	32072	
5939	0	32088	
5940	0	32124	
5941	0	32160	
5942	0	32192	
5943	0	32164	
5944	0	32132	
5945	0	32096	
5946	0	32096	
5947	0	32108	
5948	0	32096	
5949	0	32076	
5950	0	32056	
5951	0	32072	
5952	0	32088	
5953	0	32108	
5954	0	32160	
5955	0	32216	
5956	0	32240	
5957	0	32260	
5958	0	32272	
5959	0	32304	
5960	0	32346	
5961	0	32384	
5962	0	32384	
5963	0	32378	
5964	0	32376	
5965	0	32376	
5966	0	32372	
5967	0	32356	
5968	0	32356	
5969	0	32328	
5970	0	32296	
5971	0	32280	
5972	0	32304	
5973	0	32348	
5974	0	32392	
5975	0	32412	
5976	0	32400	
5977	0	32412	
5978	0	32424	
5979	0	32432	
5980	0	32444	
5981	0	32480	
5982	0	32496	
5983	0	32484	
5984	0	32488	
5985	0	32496	
5986	0	32524	
5987	0	32528	
5988	0	32496	
5989	0	32504	
5990	0	32488	
5991	0	32496	
5992	0	32488	
5993	0	32524	
5994	0	32548	
5995	0	32576	
5996	0	32576	
5997	0	32604	
5998	0	32664	
5999	0	32720	
6000	0	32786	
6001	0	32864	
6002	0	32872	
6003	0	32892	
6004	0	32920	
6005	0	32968	
6006	0	32980	
6007	0	32952	
6008	0	32916	
6009	0	32928	
6010	0	32906	
6011	0	32840	
6012	0	32820	
6013	0	32832	
6014	0	32856	
6015	0	32848	
6016	0	32848	
6017	0	32864	
6018	0	32868	
6019	0	32840	
6020	0	32848	
6021	0	32906	
6022	0	32956	
6023	0	32996	
6024	0	33072	
6025	0	33160	
6026	0	33272	
6027	0	33376	
6028	0	33488	
6029	0	33600	
6030	0	33664	
6031	0	33716	
6032	0	33808	
6033	0	33916	
6034	0	34016	
6035	0	34088	
6036	0	34124	
6037	0	34152	
6038	0	34216	
6039	0	34266	
6040	0	34256	
6041	0	34216	
6042	0	34132	
6043	0	33996	
6044	0	33824	
6045	0	33664	
6046	0	33540	
6047	0	33416	
6048	0	33312	
6049	0	33220	
6050	0	33132	
6051	0	33072	
6052	0	33028	
6053	0	33024	
6054	0	32972	
6055	0	32924	
6056	0	32900	
6057	0	32868	
6058	0	32836	
6059	0	32836	
6060	0	32816	
6061	0	32800	
6062	0	32752	
6063	0	32692	
6064	0	32672	
6065	0	32648	
6066	0	32614	
6067	0	32586	
6068	0	32576	
6069	0	32576	
6070	0	32584	
6071	0	32576	
6072	0	32576	
6073	0	32584	
6074	0	32616	
6075	0	32644	
6076	0	32664	
6077	0	32640	
6078	0	32608	
6079	0	32564	
6080	0	32540	
6081	0	32538	
6082	0	32464	
6083	0	32344	
6084	0	32240	
6085	0	32136	
6086	0	32060	
6087	0	32000	
6088	0	31962	
6089	0	31932	
6090	0	31904	
6091	0	31884	
6092	0	31888	
6093	0	31920	
6094	0	31956	
6095	0	31984	
6096	0	32000	
6097	0	32028	
6098	0	32014	
6099	0	32040	
6100	0	32036	
6101	0	32064	
6102	0	32072	
6103	0	32056	
6104	0	32072	
6105	0	32072	
6106	0	32052	
6107	0	32028	
6108	0	31984	
6109	0	31978	
6110	0	32000	
6111	0	32024	
6112	0	32028	
6113	0	32048	
6114	0	32092	
6115	0	32124	
6116	0	32148	
6117	0	32204	
6118	0	32224	
6119	0	32232	
6120	0	32268	
6121	0	32288	
6122	0	32280	
6123	0	32224	
6124	0	32188	
6125	0	32164	
6126	0	32168	
6127	0	32204	
6128	0	32204	
6129	0	32224	
6130	0	32216	
6131	0	32244	
6132	0	32296	
6133	0	32328	
6134	0	32380	
6135	0	32440	
6136	0	32480	
6137	0	32536	
6138	0	32580	
6139	0	32616	
6140	0	32632	
6141	0	32640	
6142	0	32608	
6143	0	32584	
6144	0	32584	
6145	0	32580	
6146	0	32554	
6147	0	32544	
6148	0	32520	
6149	0	32514	
6150	0	32512	
6151	0	32536	
6152	0	32560	
6153	0	32612	
6154	0	32656	
6155	0	32720	
6156	0	32778	
6157	0	32848	
6158	0	32896	
6159	0	32952	
6160	0	32992	
6161	0	33032	
6162	0	33008	
6163	0	32940	
6164	0	32849	
6165	0	32784	
6166	0	32728	
6167	0	32700	
6168	0	32800	
6169	0	33052	
6170	0	33304	
6171	0	33580	
6172	0	33876	
6173	0	34136	
6174	0	34348	
6175	0	34464	
6176	0	34554	
6177	0	34738	
6178	0	35016	
6179	0	35476	
6180	0	36032	
6181	0	36748	
6182	0	37552	
6183	0	38552	
6184	0	39704	
6185	0	40852	
6186	0	42024	
6187	0	43276	
6188	0	44584	
6189	0	45888	
6190	0	47152	
6191	0	48228	
6192	0	49244	
6193	0	50114	
6194	0	51032	
6195	0	52064	
6196	0	52952	
6197	0	53560	
6198	0	53488	
6199	0	52368	
6200	0	50220	
6201	0	47388	
6202	0	44200	
6203	0	40932	
6204	0	37840	
6205	0	35168	
6206	0	33200	
6207	0	31944	
6208	0	31200	
6209	0	30801	
6210	0	30660	
6211	0	30660	
6212	0	30680	
6213	0	30720	
6214	0	30816	
6215	0	30940	
6216	0	31092	
6217	0	31248	
6218	0	31388	
6219	0	31512	
6220	0	31656	
6221	0	31808	
6222	0	31906	
6223	0	32036	
6224	0	32128	
6225	0	32204	
6226	0	32288	
6227	0	32328	
6228	0	32324	
6229	0	32256	
6230	0	32188	
6231	0	32160	
6232	0	32128	
6233	0	32128	
6234	0	32100	
6235	0	32064	
6236	0	32048	
6237	0	32068	
6238	0	32072	
6239	0	32056	
6240	0	32090	
6241	0	32108	
6242	0	32092	
6243	0	32036	
6244	0	31984	
6245	0	31940	
6246	0	31920	
6247	0	31904	
6248	0	31914	
6249	0	31904	
6250	0	31920	
6251	0	31900	
6252	0	31896	
6253	0	31932	
6254	0	31994	
6255	0	32040	
6256	0	32068	
6257	0	32108	
6258	0	32152	
6259	0	32192	
6260	0	32232	
6261	0	32248	
6262	0	32244	
6263	0	32228	
6264	0	32212	
6265	0	32180	
6266	0	32176	
6267	0	32176	
6268	0	32176	
6269	0	32180	
6270	0	32176	
6271	0	32220	
6272	0	32296	
6273	0	32352	
6274	0	32400	
6275	0	32410	
6276	0	32448	
6277	0	32512	
6278	0	32576	
6279	0	32624	
6280	0	32644	
6281	0	32674	
6282	0	32680	
6283	0	32672	
6284	0	32680	
6285	0	32680	
6286	0	32700	
6287	0	32696	
6288	0	32728	
6289	0	32756	
6290	0	32752	
6291	0	32764	
6292	0	32784	
6293	0	32836	
6294	0	32864	
6295	0	32888	
6296	0	32916	
6297	0	32972	
6298	0	33008	
6299	0	33048	
6300	0	33088	
6301	0	33128	
6302	0	33124	
6303	0	33100	
6304	0	33100	
6305	0	33104	
6306	0	33112	
6307	0	33120	
6308	0	33104	
6309	0	33104	
6310	0	33076	
6311	0	33072	
6312	0	33088	
6313	0	33132	
6314	0	33188	
6315	0	33224	
6316	0	33232	
6317	0	33244	
6318	0	33276	
6319	0	33300	
6320	0	33344	
6321	0	33368	
6322	0	33380	
6323	0	33388	
6324	0	33392	
6325	0	33368	
6326	0	33360	
6327	0	33348	
6328	0	33348	
6329	0	33364	
6330	0	33374	
6331	0	33380	
6332	0	33388	
6333	0	33424	
6334	0	33448	
6335	0	33460	
6336	0	33480	
6337	0	33528	
6338	0	33564	
6339	0	33588	
6340	0	33628	
6341	0	33656	
6342	0	33632	
6343	0	33588	
6344	0	33560	
6345	0	33568	
6346	0	33592	
6347	0	33600	
6348	0	33620	
6349	0	33572	
6350	0	33544	
6351	0	33584	
6352	0	33626	
6353	0	33664	
6354	0	33704	
6355	0	33728	
6356	0	33746	
6357	0	33764	
6358	0	33792	
6359	0	33784	
6360	0	33832	
6361	0	33832	
6362	0	33812	
6363	0	33824	
6364	0	33832	
6365	0	33856	
6366	0	33856	
6367	0	33856	
6368	0	33848	
6369	0	33844	
6370	0	33852	
6371	0	33888	
6372	0	33952	
6373	0	33988	
6374	0	34029	
6375	0	34066	
6376	0	34080	
6377	0	34104	
6378	0	34124	
6379	0	34152	
6380	0	34145	
6381	0	34152	
6382	0	34156	
6383	0	34144	
6384	0	34128	
6385	0	34108	
6386	0	34108	
6387	0	34096	
6388	0	34064	
6389	0	34040	
6390	0	34060	
6391	0	34084	
6392	0	34124	
6393	0	34148	
6394	0	34180	
6395	0	34202	
6396	0	34232	
6397	0	34248	
6398	0	34232	
6399	0	34216	
6400	0	34252	
6401	0	34284	
6402	0	34292	
6403	0	34248	
6404	0	34232	
6405	0	34204	
6406	0	34188	
6407	0	34172	
6408	0	34180	
6409	0	34196	
6410	0	34220	
6411	0	34236	
6412	0	34268	
6413	0	34296	
6414	0	34330	
6415	0	34372	
6416	0	34420	
6417	0	34420	
6418	0	34432	
6419	0	34432	
6420	0	34396	
6421	0	34380	
6422	0	34356	
6423	0	34284	
6424	0	34236	
6425	0	34192	
6426	0	34184	
6427	0	34192	
6428	0	34216	
6429	0	34196	
6430	0	34196	
6431	0	34204	
6432	0	34216	
6433	0	34272	
6434	0	34284	
6435	0	34256	
6436	0	34250	
6437	0	34252	
6438	0	34236	
6439	0	34232	
6440	0	34264	
6441	0	34252	
6442	0	34176	
6443	0	34104	
6444	0	34080	
6445	0	34080	
6446	0	34096	
6447	0	34100	
6448	0	34072	
6449	0	34014	
6450	0	34000	
6451	0	34004	
6452	0	34028	
6453	0	34068	
6454	0	34104	
6455	0	34120	
6456	0	34120	
6457	0	34092	
6458	0	34088	
6459	0	34032	
6460	0	34016	
6461	0	34018	
6462	0	33988	
6463	0	33936	
6464	0	33876	
6465	0	33860	
6466	0	33816	
6467	0	33784	
6468	0	33754	
6469	0	33712	
6470	0	33652	
6471	0	33636	
6472	0	33608	
6473	0	33584	
6474	0	33576	
6475	0	33552	
6476	0	33536	
6477	0	33506	
6478	0	33456	
6479	0	33406	
6480	0	33360	
6481	0	33280	
6482	0	33160	
6483	0	33044	
6484	0	32924	
6485	0	32808	
6486	0	32696	
6487	0	32604	
6488	0	32496	
6489	0	32428	
6490	0	32336	
6491	0	32252	
6492	0	32204	
6493	0	32170	
6494	0	32096	
6495	0	32032	
6496	0	31988	
6497	0	31952	
6498	0	31948	
6499	0	31928	
6500	0	31852	
6501	0	31820	
6502	0	31736	
6503	0	31648	
6504	0	31548	
6505	0	31432	
6506	0	31340	
6507	0	31268	
6508	0	31184	
6509	0	31096	
6510	0	31044	
6511	0	31048	
6512	0	31045	
6513	0	31010	
6514	0	31024	
6515	0	31028	
6516	0	31008	
6517	0	30992	
6518	0	30976	
6519	0	30944	
6520	0	30912	
6521	0	30916	
6522	0	30884	
6523	0	30852	
6524	0	30868	
6525	0	30858	
6526	0	30846	
6527	0	30840	
6528	0	30812	
6529	0	30776	
6530	0	30768	
6531	0	30768	
6532	0	30764	
6533	0	30820	
6534	0	30880	
6535	0	30886	
6536	0	30892	
6537	0	30920	
6538	0	30944	
6539	0	31008	
6540	0	31076	
6541	0	31080	
6542	0	31044	
6543	0	31034	
6544	0	31016	
6545	0	31024	
6546	0	31016	
6547	0	31032	
6548	0	31020	
6549	0	31068	
6550	0	31116	
6551	0	31136	
6552	0	31160	
6553	0	31176	
6554	0	31212	
6555	0	31296	
6556	0	31373	
6557	0	31456	
6558	0	31512	
6559	0	31544	
6560	0	31576	
6561	0	31572	
6562	0	31548	
6563	0	31512	
6564	0	31500	
6565	0	31490	
6566	0	31500	
6567	0	31528	
6568	0	31512	
6569	0	31504	
6570	0	31488	
6571	0	31504	
6572	0	31520	
6573	0	31526	
6574	0	31544	
6575	0	31540	
6576	0	31536	
6577	0	31552	
6578	0	31552	
6579	0	31576	
6580	0	31604	
6581	0	31624	
6582	0	31632	
6583	0	31616	
6584	0	31608	
6585	0	31568	
6586	0	31552	
6587	0	31580	
6588	0	31576	
6589	0	31604	
6590	0	31616	
6591	0	31672	
6592	0	31740	
6593	0	31780	
6594	0	31772	
6595	0	31772	
6596	0	31796	
6597	0	31836	
6598	0	31840	
6599	0	31828	
6600	0	31808	
6601	0	31796	
6602	0	31808	
6603	0	31812	
6604	0	31788	
6605	0	31736	
6606	0	31704	
6607	0	31672	
6608	0	31646	
6609	0	31656	
6610	0	31676	
6611	0	31728	
6612	0	31768	
6613	0	31812	
6614	0	31880	
6615	0	31924	
6616	0	31936	
6617	0	31956	
6618	0	32028	
6619	0	32048	
6620	0	32040	
6621	0	32036	
6622	0	32008	
6623	0	31978	
6624	0	32036	
6625	0	32036	
6626	0	32000	
6627	0	31948	
6628	0	31928	
6629	0	31880	
6630	0	31848	
6631	0	31836	
6632	0	31808	
6633	0	31852	
6634	0	31872	
6635	0	31846	
6636	0	31828	
6637	0	31808	
6638	0	31776	
6639	0	31800	
6640	0	31844	
6641	0	31868	
6642	0	31836	
6643	0	31776	
6644	0	31744	
6645	0	31748	
6646	0	31768	
6647	0	31744	
6648	0	31700	
6649	0	31664	
6650	0	31676	
6651	0	31736	
6652	0	31776	
6653	0	31780	
6654	0	31800	
6655	0	31820	
6656	0	31848	
6657	0	31848	
6658	0	31848	
6659	0	31856	
6660	0	31908	
6661	0	31940	
6662	0	31893	
6663	0	31840	
6664	0	31808	
6665	0	31788	
6666	0	31796	
6667	0	31776	
6668	0	31724	
6669	0	31704	
6670	0	31680	
6671	0	31674	
6672	0	31674	
6673	0	31692	
6674	0	31720	
6675	0	31760	
6676	0	31776	
6677	0	31776	
6678	0	31860	
6679	0	31916	
6680	0	31944	
6681	0	31944	
6682	0	31912	
6683	0	31864	
6684	0	31816	
6685	0	31796	
6686	0	31776	
6687	0	31764	
6688	0	31732	
6689	0	31684	
6690	0	31648	
6691	0	31646	
6692	0	31686	
6693	0	31696	
6694	0	31720	
6695	0	31700	
6696	0	31700	
6697	0	31722	
6698	0	31760	
6699	0	31808	
6700	0	31804	
6701	0	31808	
6702	0	31772	
6703	0	31736	
6704	0	31724	
6705	0	31714	
6706	0	31724	
6707	0	31748	
6708	0	31784	
6709	0	31800	
6710	0	31840	
6711	0	31864	
6712	0	31898	
6713	0	31924	
6714	0	31928	
6715	0	31922	
6716	0	31908	
6717	0	31916	
6718	0	31886	
6719	0	31876	
6720	0	31860	
6721	0	31848	
6722	0	31842	
6723	0	31836	
6724	0	31852	
6725	0	31840	
6726	0	31864	
6727	0	31908	
6728	0	31944	
6729	0	31952	
6730	0	32020	
6731	0	32072	
6732	0	32132	
6733	0	32158	
6734	0	32160	
6735	0	32128	
6736	0	32088	
6737	0	32040	
6738	0	32044	
6739	0	32064	
6740	0	32068	
6741	0	32012	
6742	0	31962	
6743	0	31936	
6744	0	31944	
6745	0	31976	
6746	0	31980	
6747	0	31980	
6748	0	31984	
6749	0	31960	
6750	0	31936	
6751	0	31904	
6752	0	31904	
6753	0	31948	
6754	0	31976	
6755	0	32024	
6756	0	32048	
6757	0	32032	
6758	0	32000	
6759	0	32028	
6760	0	32088	
6761	0	32128	
6762	0	32156	
6763	0	32168	
6764	0	32184	
6765	0	32184	
6766	0	32164	
6767	0	32160	
6768	0	32128	
6769	0	32088	
6770	0	32058	
6771	0	32040	
6772	0	32072	
6773	0	32122	
6774	0	32136	
6775	0	32168	
6776	0	32192	
6777	0	32204	
6778	0	32264	
6779	0	32332	
6780	0	32360	
6781	0	32352	
6782	0	32320	
6783	0	32248	
6784	0	32216	
6785	0	32192	
6786	0	32180	
6787	0	32172	
6788	0	32116	
6789	0	32124	
6790	0	32116	
6791	0	32144	
6792	0	32180	
6793	0	32232	
6794	0	32284	
6795	0	32320	
6796	0	32380	
6797	0	32416	
6798	0	32460	
6799	0	32496	
6800	0	32508	
6801	0	32472	
6802	0	32428	
6803	0	32352	
6804	0	32324	
6805	0	32296	
6806	0	32288	
6807	0	32300	
6808	0	32248	
6809	0	32216	
6810	0	32176	
6811	0	32200	
6812	0	32244	
6813	0	32324	
6814	0	32376	
6815	0	32380	
6816	0	32376	
6817	0	32396	
6818	0	32408	
6819	0	32400	
6820	0	32384	
6821	0	32392	
6822	0	32380	
6823	0	32336	
6824	0	32256	
6825	0	32164	
6826	0	32116	
6827	0	32094	
6828	0	32064	
6829	0	32104	
6830	0	32132	
6831	0	32180	
6832	0	32236	
6833	0	32288	
6834	0	32348	
6835	0	32372	
6836	0	32346	
6837	0	32356	
6838	0	32416	
6839	0	32488	
6840	0	32508	
6841	0	32516	
6842	0	32516	
6843	0	32524	
6844	0	32524	
6845	0	32496	
6846	0	32480	
6847	0	32500	
6848	0	32472	
6849	0	32452	
6850	0	32420	
6851	0	32404	
6852	0	32428	
6853	0	32456	
6854	0	32480	
6855	0	32488	
6856	0	32532	
6857	0	32532	
6858	0	32556	
6859	0	32556	
6860	0	32552	
6861	0	32544	
6862	0	32560	
6863	0	32524	
6864	0	32472	
6865	0	32428	
6866	0	32396	
6867	0	32400	
6868	0	32392	
6869	0	32380	
6870	0	32412	
6871	0	32440	
6872	0	32448	
6873	0	32476	
6874	0	32504	
6875	0	32556	
6876	0	32624	
6877	0	32692	
6878	0	32724	
6879	0	32724	
6880	0	32724	
6881	0	32708	
6882	0	32684	
6883	0	32696	
6884	0	32660	
6885	0	32638	
6886	0	32616	
6887	0	32624	
6888	0	32608	
6889	0	32576	
6890	0	32592	
6891	0	32652	
6892	0	32732	
6893	0	32780	
6894	0	32812	
6895	0	32864	
6896	0	32928	
6897	0	33008	
6898	0	33088	
6899	0	33128	
6900	0	33180	
6901	0	33224	
6902	0	33240	
6903	0	33240	
6904	0	33200	
6905	0	33144	
6906	0	33124	
6907	0	33072	
6908	0	33032	
6909	0	33004	
6910	0	33016	
6911	0	33056	
6912	0	33100	
6913	0	33130	
6914	0	33132	
6915	0	33164	
6916	0	33224	
6917	0	33324	
6918	0	33420	
6919	0	33540	
6920	0	33632	
6921	0	33740	
6922	0	33880	
6923	0	33996	
6924	0	34068	
6925	0	34132	
6926	0	34216	
6927	0	34248	
6928	0	34276	
6929	0	34252	
6930	0	34260	
6931	0	34300	
6932	0	34336	
6933	0	34372	
6934	0	34398	
6935	0	34404	
6936	0	34400	
6937	0	34344	
6938	0	34292	
6939	0	34280	
6940	0	34228	
6941	0	34156	
6942	0	34048	
6943	0	33934	
6944	0	33878	
6945	0	33800	
6946	0	33708	
6947	0	33616	
6948	0	33536	
6949	0	33472	
6950	0	33400	
6951	0	33316	
6952	0	33298	
6953	0	33280	
6954	0	33260	
6955	0	33260	
6956	0	33260	
6957	0	33204	
6958	0	33132	
6959	0	33116	
6960	0	33136	
6961	0	33108	
6962	0	33096	
6963	0	33108	
6964	0	33080	
6965	0	33048	
6966	0	33020	
6967	0	33016	
6968	0	33004	
6969	0	33000	
6970	0	32968	
6971	0	32920	
6972	0	32884	
6973	0	32852	
6974	0	32828	
6975	0	32792	
6976	0	32756	
6977	0	32700	
6978	0	32664	
6979	0	32636	
6980	0	32612	
6981	0	32624	
6982	0	32632	
6983	0	32608	
6984	0	32608	
6985	0	32612	
6986	0	32660	
6987	0	32716	
6988	0	32704	
6989	0	32620	
6990	0	32536	
6991	0	32512	
6992	0	32456	
6993	0	32412	
6994	0	32378	
6995	0	32384	
6996	0	32412	
6997	0	32444	
6998	0	32456	
6999	0	32448	
7000	0	32408	
7001	0	32368	
7002	0	32344	
7003	0	32362	
7004	0	32392	
7005	0	32400	
7006	0	32424	
7007	0	32466	
7008	0	32512	
7009	0	32584	
7010	0	32664	
7011	0	32720	
7012	0	32792	
7013	0	32864	
7014	0	32936	
7015	0	32936	
7016	0	32944	
7017	0	32912	
7018	0	32866	
7019	0	32872	
7020	0	32880	
7021	0	32872	
7022	0	32864	
7023	0	32846	
7024	0	32816	
7025	0	32828	
7026	0	32824	
7027	0	32858	
7028	0	32872	
7029	0	32888	
7030	0	32888	
7031	0	32924	
7032	0	32932	
7033	0	32900	
7034	0	32852	
7035	0	32860	
7036	0	32858	
7037	0	32852	
7038	0	32884	
7039	0	32914	
7040	0	32944	
7041	0	32956	
7042	0	32948	
7043	0	32928	
7044	0	32924	
7045	0	32920	
7046	0	32896	
7047	0	32864	
7048	0	32864	
7049	0	32880	
7050	0	32916	
7051	0	32952	
7052	0	33016	
7053	0	33096	
7054	0	33164	
7055	0	33132	
7056	0	33088	
7057	0	33024	
7058	0	32984	
7059	0	32992	
7060	0	33072	
7061	0	33260	
7062	0	33482	
7063	0	33732	
7064	0	34024	
7065	0	34284	
7066	0	34432	
7067	0	34404	
7068	0	34330	
7069	0	34432	
7070	0	34652	
7071	0	35048	
7072	0	35688	
7073	0	36452	
7074	0	37332	
7075	0	38408	
7076	0	39680	
7077	0	41016	
7078	0	42288	
7079	0	43612	
7080	0	45000	
7081	0	46488	
7082	0	48032	
7083	0	49428	
7084	0	50600	
7085	0	51600	
7086	0	52524	
7087	0	53372	
7088	0	54200	
7089	0	54832	
7090	0	54924	
7091	0	54216	
7092	0	52572	
7093	0	49912	
7094	0	46748	
7095	0	43376	
7096	0	40040	
7097	0	36904	
7098	0	34216	
7099	0	32316	
7100	0	31148	
7101	0	30424	
7102	0	29932	
7103	0	29684	
7104	0	29586	
7105	0	29612	
7106	0	29768	
7107	0	30016	
7108	0	30268	
7109	0	30516	
7110	0	30756	
7111	0	30976	
7112	0	31188	
7113	0	31330	
7114	0	31424	
7115	0	31536	
7116	0	31640	
7117	0	31752	
7118	0	31852	
7119	0	31928	
7120	0	31968	
7121	0	31992	
7122	0	32020	
7123	0	32040	
7124	0	32032	
7125	0	32008	
7126	0	32000	
7127	0	31992	
7128	0	31908	
7129	0	31840	
7130	0	31792	
7131	0	31756	
7132	0	31744	
7133	0	31760	
7134	0	31764	
7135	0	31764	
7136	0	31760	
7137	0	31796	
7138	0	31796	
7139	0	31780	
7140	0	31792	
7141	0	31756	
7142	0	31724	
7143	0	31732	
7144	0	31768	
7145	0	31776	
7146	0	31832	
7147	0	31856	
7148	0	31844	
7149	0	31852	
7150	0	31916	
7151	0	31970	
7152	0	32032	
7153	0	32096	
7154	0	32128	
7155	0	32108	
7156	0	32056	
7157	0	32012	
7158	0	32024	
7159	0	32048	
7160	0	32072	
7161	0	32032	
7162	0	32020	
7163	0	32016	
7164	0	32028	
7165	0	32068	
7166	0	32060	
7167	0	32042	
7168	0	32016	
7169	0	31972	
7170	0	31984	
7171	0	32028	
7172	0	32076	
7173	0	32124	
7174	0	32172	
7175	0	32212	
7176	0	32236	
7177	0	32252	
7178	0	32292	
7179	0	32304	
7180	0	32276	
7181	0	32256	
7182	0	32248	
7183	0	32224	
7184	0	32172	
7185	0	32152	
7186	0	32152	
7187	0	32140	
7188	0	32164	
7189	0	32172	
7190	0	32192	
7191	0	32220	
7192	0	32280	
7193	0	32296	
7194	0	32320	
7195	0	32360	
7196	0	32416	
7197	0	32448	
7198	0	32468	
7199	0	32482	
7200	0	32464	
7201	0	32404	
7202	0	32360	
7203	0	32312	
7204	0	32264	
7205	0	32268	
7206	0	32320	
7207	0	32328	
7208	0	32338	
7209	0	32380	
7210	0	32444	
7211	0	32528	
7212	0	32568	
7213	0	32592	
7214	0	32608	
7215	0	32661	
7216	0	32696	
7217	0	32712	
7218	0	32744	
7219	0	32772	
7220	0	32792	
7221	0	32800	
7222	0	32808	
7223	0	32800	
7224	0	32800	
7225	0	32796	
7226	0	32828	
7227	0	32836	
7228	0	32866	
7229	0	32888	
7230	0	32904	
7231	0	32940	
7232	0	32972	
7233	0	32988	
7234	0	32980	
7235	0	33004	
7236	0	33052	
7237	0	33116	
7238	0	33164	
7239	0	33236	
7240	0	33312	
7241	0	33364	
7242	0	33376	
7243	0	33380	
7244	0	33400	
7245	0	33396	
7246	0	33388	
7247	0	33392	
7248	0	33396	
7249	0	33400	
7250	0	33420	
7251	0	33448	
7252	0	33448	
7253	0	33476	
7254	0	33480	
7255	0	33480	
7256	0	33528	
7257	0	33576	
7258	0	33596	
7259	0	33600	
7260	0	33616	
7261	0	33584	
7262	0	33568	
7263	0	33616	
7264	0	33636	
7265	0	33636	
7266	0	33620	
7267	0	33612	
7268	0	33604	
7269	0	33556	
7270	0	33528	
7271	0	33516	
7272	0	33528	
7273	0	33560	
7274	0	33584	
7275	0	33592	
7276	0	33620	
7277	0	33666	
7278	0	33728	
7279	0	33776	
7280	0	33812	
7281	0	33808	
7282	0	33788	
7283	0	33764	
7284	0	33760	
7285	0	33760	
7286	0	33772	
7287	0	33752	
7288	0	33720	
7289	0	33740	
7290	0	33764	
7291	0	33788	
7292	0	33824	
7293	0	33876	
7294	0	33920	
7295	0	34016	
7296	0	34108	
7297	0	34164	
7298	0	34232	
7299	0	34304	
7300	0	34348	
7301	0	34316	
7302	0	34280	
7303	0	34232	
7304	0	34188	
7305	0	34164	
7306	0	34120	
7307	0	34036	
7308	0	33924	
7309	0	33884	
7310	0	33912	
7311	0	33968	
7312	0	34004	
7313	0	33996	
7314	0	33996	
7315	0	34020	
7316	0	34064	
7317	0	34076	
7318	0	34080	
7319	0	34116	
7320	0	34132	
7321	0	34102	
7322	0	34040	
7323	0	34000	
7324	0	33960	
7325	0	33936	
7326	0	33904	
7327	0	33860	
7328	0	33844	
7329	0	33844	
7330	0	33868	
7331	0	33880	
7332	0	33904	
7333	0	33964	
7334	0	33976	
7335	0	33994	
7336	0	34012	
7337	0	33968	
7338	0	33952	
7339	0	33932	
7340	0	33896	
7341	0	33912	
7342	0	33964	
7343	0	34004	
7344	0	33996	
7345	0	33980	
7346	0	33952	
7347	0	33916	
7348	0	33908	
7349	0	33928	
7350	0	33956	
7351	0	33976	
7352	0	33980	
7353	0	34000	
7354	0	34000	
7355	0	33980	
7356	0	33960	
7357	0	33964	
7358	0	33970	
7359	0	33968	
7360	0	33908	
7361	0	33820	
7362	0	33724	
7363	0	33636	
7364	0	33532	
7365	0	33464	
7366	0	33416	
7367	0	33336	
7368	0	33232	
7369	0	33168	
7370	0	33112	
7371	0	33060	
7372	0	33048	
7373	0	33024	
7374	0	33000	
7375	0	32944	
7376	0	32912	
7377	0	32864	
7378	0	32812	
7379	0	32736	
7380	0	32640	
7381	0	32564	
7382	0	32468	
7383	0	32364	
7384	0	32280	
7385	0	32184	
7386	0	32072	
7387	0	31948	
7388	0	31840	
7389	0	31796	
7390	0	31780	
7391	0	31746	
7392	0	31708	
7393	0	31716	
7394	0	31696	
7395	0	31668	
7396	0	31660	
7397	0	31668	
7398	0	31668	
7399	0	31648	
7400	0	31592	
7401	0	31536	
7402	0	31472	
7403	0	31444	
7404	0	31364	
7405	0	31288	
7406	0	31260	
7407	0	31216	
7408	0	31140	
7409	0	31124	
7410	0	31088	
7411	0	31076	
7412	0	31084	
7413	0	31076	
7414	0	31052	
7415	0	31024	
7416	0	30996	
7417	0	31008	
7418	0	31012	
7419	0	30968	
7420	0	30908	
7421	0	30848	
7422	0	30816	
7423	0	30780	
7424	0	30736	
7425	0	30748	
7426	0	30784	
7427	0	30756	
7428	0	30728	
7429	0	30708	
7430	0	30696	
7431	0	30728	
7432	0	30780	
7433	0	30828	
7434	0	30888	
7435	0	30904	
7436	0	30936	
7437	0	30992	
7438	0	31036	
7439	0	31096	
7440	0	31112	
7441	0	31092	
7442	0	31076	
7443	0	31072	
7444	0	31084	
7445	0	31108	
7446	0	31152	
7447	0	31188	
7448	0	31200	
7449	0	31256	
7450	0	31304	
7451	0	31336	
7452	0	31376	
7453	0	31384	
7454	0	31394	
7455	0	31420	
7456	0	31452	
7457	0	31448	
7458	0	31480	
7459	0	31516	
7460	0	31544	
7461	0	31568	
7462	0	31596	
7463	0	31600	
7464	0	31588	
7465	0	31568	
7466	0	31584	
7467	0	31596	
7468	0	31596	
7469	0	31624	
7470	0	31656	
7471	0	31696	
7472	0	31748	
7473	0	31784	
7474	0	31832	
7475	0	31900	
7476	0	31924	
7477	0	31932	
7478	0	31940	
7479	0	31936	
7480	0	31900	
7481	0	31884	
7482	0	31872	
7483	0	31860	
7484	0	31836	
7485	0	31784	
7486	0	31724	
7487	0	31672	
7488	0	31642	
7489	0	31648	
7490	0	31656	
7491	0	31700	
7492	0	31732	
7493	0	31760	
7494	0	31780	
7495	0	31808	
7496	0	31836	
7497	0	31848	
7498	0	31840	
7499	0	31848	
7500	0	31840	
7501	0	31832	
7502	0	31836	
7503	0	31860	
7504	0	31824	
7505	0	31792	
7506	0	31800	
7507	0	31810	
7508	0	31824	
7509	0	31818	
7510	0	31812	
7511	0	31812	
7512	0	31832	
7513	0	31844	
7514	0	31848	
7515	0	31892	
7516	0	31924	
7517	0	31940	
7518	0	31952	
7519	0	31948	
7520	0	31912	
7521	0	31868	
7522	0	31804	
7523	0	31748	
7524	0	31724	
7525	0	31714	
7526	0	31752	
7527	0	31732	
7528	0	31720	
7529	0	31720	
7530	0	31778	
7531	0	31860	
7532	0	31900	
7533	0	31904	
7534	0	31896	
7535	0	31912	
7536	0	31904	
7537	0	31920	
7538	0	31928	
7539	0	31924	
7540	0	31908	
7541	0	31868	
7542	0	31820	
7543	0	31778	
7544	0	31752	
7545	0	31720	
7546	0	31684	
7547	0	31620	
7548	0	31596	
7549	0	31576	
7550	0	31600	
7551	0	31632	
7552	0	31628	
7553	0	31608	
7554	0	31594	
7555	0	31616	
7556	0	31644	
7557	0	31640	
7558	0	31680	
7559	0	31692	
7560	0	31680	
7561	0	31608	
7562	0	31532	
7563	0	31496	
7564	0	31488	
7565	0	31472	
7566	0	31472	
7567	0	31432	
7568	0	31416	
7569	0	31400	
7570	0	31444	
7571	0	31482	
7572	0	31536	
7573	0	31576	
7574	0	31600	
7575	0	31628	
7576	0	31662	
7577	0	31704	
7578	0	31740	
7579	0	31760	
7580	0	31776	
7581	0	31768	
7582	0	31740	
7583	0	31688	
7584	0	31696	
7585	0	31688	
7586	0	31660	
7587	0	31660	
7588	0	31664	
7589	0	31668	
7590	0	31692	
7591	0	31708	
7592	0	31724	
7593	0	31770	
7594	0	31768	
7595	0	31776	
7596	0	31816	
7597	0	31848	
7598	0	31872	
7599	0	31872	
7600	0	31828	
7601	0	31800	
7602	0	31768	
7603	0	31717	
7604	0	31680	
7605	0	31696	
7606	0	31674	
7607	0	31664	
7608	0	31652	
7609	0	31648	
7610	0	31680	
7611	0	31744	
7612	0	31788	
7613	0	31824	
7614	0	31856	
7615	0	31888	
7616	0	31930	
7617	0	31968	
7618	0	32004	
7619	0	32040	
7620	0	32036	
7621	0	32058	
7622	0	32064	
7623	0	32072	
7624	0	32096	
7625	0	32052	
7626	0	32034	
7627	0	32000	
7628	0	31952	
7629	0	31936	
7630	0	31932	
7631	0	31944	
7632	0	31936	
7633	0	31924	
7634	0	31920	
7635	0	31952	
7636	0	31976	
7637	0	32008	
7638	0	32048	
7639	0	32080	
7640	0	32088	
7641	0	32068	
7642	0	32064	
7643	0	32052	
7644	0	32036	
7645	0	32028	
7646	0	32012	
7647	0	31978	
7648	0	31984	
7649	0	32016	
7650	0	32016	
7651	0	32024	
7652	0	32016	
7653	0	32060	
7654	0	32084	
7655	0	32080	
7656	0	32108	
7657	0	32132	
7658	0	32144	
7659	0	32128	
7660	0	32112	
7661	0	32092	
7662	0	32064	
7663	0	32032	
7664	0	31996	
7665	0	31978	
7666	0	32024	
7667	0	32026	
7668	0	32044	
7669	0	32040	
7670	0	32044	
7671	0	32028	
7672	0	32008	
7673	0	31996	
7674	0	31980	
7675	0	32024	
7676	0	32040	
7677	0	32056	
7678	0	32096	
7679	0	32124	
7680	0	32128	
7681	0	32108	
7682	0	32080	
7683	0	32052	
7684	0	32048	
7685	0	32048	
7686	0	32032	
7687	0	31996	
7688	0	31996	
7689	0	32026	
7690	0	32048	
7691	0	32096	
7692	0	32144	
7693	0	32128	
7694	0	32132	
7695	0	32148	
7696	0	32176	
7697	0	32186	
7698	0	32232	
7699	0	32248	
7700	0	32228	
7701	0	32196	
7702	0	32136	
7703	0	32092	
7704	0	32044	
7705	0	32018	
7706	0	32044	
7707	0	32060	
7708	0	32092	
7709	0	32152	
7710	0	32218	
7711	0	32288	
7712	0	32356	
7713	0	32418	
7714	0	32480	
7715	0	32568	
7716	0	32648	
7717	0	32692	
7718	0	32706	
7719	0	32684	
7720	0	32600	
7721	0	32496	
7722	0	32432	
7723	0	32388	
7724	0	32392	
7725	0	32404	
7726	0	32380	
7727	0	32384	
7728	0	32408	
7729	0	32416	
7730	0	32440	
7731	0	32504	
7732	0	32568	
7733	0	32692	
7734	0	32800	
7735	0	32948	
7736	0	33058	
7737	0	33232	
7738	0	33364	
7739	0	33468	
7740	0	33540	
7741	0	33620	
7742	0	33712	
7743	0	33764	
7744	0	33812	
7745	0	33820	
7746	0	33848	
7747	0	33888	
7748	0	33940	
7749	0	33972	
7750	0	33976	
7751	0	33976	
7752	0	33940	
7753	0	33864	
7754	0	33768	
7755	0	33660	
7756	0	33588	
7757	0	33504	
7758	0	33416	
7759	0	33328	
7760	0	33204	
7761	0	33064	
7762	0	32964	
7763	0	32880	
7764	0	32832	
7765	0	32784	
7766	0	32716	
7767	0	32626	
7768	0	32556	
7769	0	32500	
7770	0	32456	
7771	0	32480	
7772	0	32496	
7773	0	32500	
7774	0	32512	
7775	0	32536	
7776	0	32552	
7777	0	32572	
7778	0	32588	
7779	0	32604	
7780	0	32580	
7781	0	32512	
7782	0	32448	
7783	0	32372	
7784	0	32332	
7785	0	32308	
7786	0	32248	
7787	0	32178	
7788	0	32136	
7789	0	32090	
7790	0	32072	
7791	0	32064	
7792	0	32052	
7793	0	32034	
7794	0	32032	
7795	0	32012	
7796	0	32024	
7797	0	32020	
7798	0	32012	
7799	0	32020	
7800	0	32048	
7801	0	32068	
7802	0	32076	
7803	0	32064	
7804	0	32032	
7805	0	32016	
7806	0	31964	
7807	0	31916	
7808	0	31872	
7809	0	31876	
7810	0	31904	
7811	0	31968	
7812	0	32026	
7813	0	32030	
7814	0	32042	
7815	0	32068	
7816	0	32072	
7817	0	32100	
7818	0	32092	
7819	0	32100	
7820	0	32080	
7821	0	32052	
7822	0	32004	
7823	0	32000	
7824	0	32036	
7825	0	32088	
7826	0	32092	
7827	0	32088	
7828	0	32096	
7829	0	32108	
7830	0	32120	
7831	0	32164	
7832	0	32208	
7833	0	32236	
7834	0	32280	
7835	0	32328	
7836	0	32356	
7837	0	32384	
7838	0	32428	
7839	0	32424	
7840	0	32424	
7841	0	32420	
7842	0	32416	
7843	0	32396	
7844	0	32336	
7845	0	32312	
7846	0	32288	
7847	0	32266	
7848	0	32280	
7849	0	32324	
7850	0	32404	
7851	0	32448	
7852	0	32512	
7853	0	32544	
7854	0	32532	
7855	0	32538	
7856	0	32564	
7857	0	32588	
7858	0	32624	
7859	0	32644	
7860	0	32620	
7861	0	32554	
7862	0	32558	
7863	0	32576	
7864	0	32616	
7865	0	32652	
7866	0	32688	
7867	0	32720	
7868	0	32760	
7869	0	32808	
7870	0	32860	
7871	0	32912	
7872	0	32952	
7873	0	32912	
7874	0	32840	
7875	0	32824	
7876	0	32812	
7877	0	32832	
7878	0	32976	
7879	0	33240	
7880	0	33520	
7881	0	33808	
7882	0	34128	
7883	0	34416	
7884	0	34612	
7885	0	34700	
7886	0	34756	
7887	0	34860	
7888	0	35120	
7889	0	35576	
7890	0	36184	
7891	0	36956	
7892	0	37868	
7893	0	38936	
7894	0	40220	
7895	0	41472	
7896	0	42752	
7897	0	44084	
7898	0	45516	
7899	0	47020	
7900	0	48464	
7901	0	49748	
7902	0	50840	
7903	0	51732	
7904	0	52588	
7905	0	53544	
7906	0	54440	
7907	0	55048	
7908	0	55104	
7909	0	54184	
7910	0	52136	
7911	0	49274	
7912	0	45936	
7913	0	42388	
7914	0	39016	
7915	0	36072	
7916	0	33772	
7917	0	32240	
7918	0	31298	
7919	0	30768	
7920	0	30480	
7921	0	30372	
7922	0	30324	
7923	0	30304	
7924	0	30364	
7925	0	30496	
7926	0	30650	
7927	0	30804	
7928	0	30972	
7929	0	31176	
7930	0	31332	
7931	0	31480	
7932	0	31624	
7933	0	31756	
7934	0	31892	
7935	0	32020	
7936	0	32120	
7937	0	32200	
7938	0	32248	
7939	0	32228	
7940	0	32200	
7941	0	32144	
7942	0	32114	
7943	0	32076	
7944	0	31988	
7945	0	31908	
7946	0	31848	
7947	0	31828	
7948	0	31818	
7949	0	31824	
7950	0	31820	
7951	0	31808	
7952	0	31804	
7953	0	31816	
7954	0	31820	
7955	0	31840	
7956	0	31860	
7957	0	31854	
7958	0	31900	
7959	0	31880	
7960	0	31884	
7961	0	31904	
7962	0	31904	
7963	0	31898	
7964	0	31888	
7965	0	31904	
7966	0	31916	
7967	0	31952	
7968	0	31968	
7969	0	31980	
7970	0	31960	
7971	0	31964	
7972	0	32004	
7973	0	32048	
7974	0	32108	
7975	0	32172	
7976	0	32244	
7977	0	32324	
7978	0	32376	
7979	0	32388	
7980	0	32352	
7981	0	32340	
7982	0	32360	
7983	0	32386	
7984	0	32380	
7985	0	32354	
7986	0	32332	
7987	0	32340	
7988	0	32356	
7989	0	32416	
7990	0	32452	
7991	0	32474	
7992	0	32508	
7993	0	32548	
7994	0	32584	
7995	0	32596	
7996	0	32616	
7997	0	32636	
7998	0	32668	
7999	0	32676	
8000	0	32672	
8001	0	32672	
8002	0	32672	
8003	0	32668	
8004	0	32672	
8005	0	32640	
8006	0	32648	
8007	0	32644	
8008	0	32648	
8009	0	32672	
8010	0	32728	
8011	0	32784	
8012	0	32800	
8013	0	32800	
8014	0	32848	
8015	0	32922	
8016	0	32972	
8017	0	33052	
8018	0	33120	
8019	0	33152	
8020	0	33144	
8021	0	33152	
8022	0	33172	
8023	0	33172	
8024	0	33192	
8025	0	33176	
8026	0	33156	
8027	0	33152	
8028	0	33148	
8029	0	33148	
8030	0	33180	
8031	0	33264	
8032	0	33320	
8033	0	33344	
8034	0	33376	
8035	0	33420	
8036	0	33460	
8037	0	33496	
8038	0	33548	
8039	0	33552	
8040	0	33544	
8041	0	33552	
8042	0	33556	
8043	0	33552	
8044	0	33504	
8045	0	33480	
8046	0	33484	
8047	0	33520	
8048	0	33544	
8049	0	33576	
8050	0	33612	
8051	0	33644	
8052	0	33656	
8053	0	33700	
8054	0	33756	
8055	0	33776	
8056	0	33784	
8057	0	33768	
8058	0	33802	
8059	0	33784	
8060	0	33736	
8061	0	33692	
8062	0	33648	
8063	0	33644	
8064	0	33664	
8065	0	33672	
8066	0	33680	
8067	0	33684	
8068	0	33682	
8069	0	33672	
8070	0	33700	
8071	0	33744	
8072	0	33812	
8073	0	33868	
8074	0	33900	
8075	0	33956	
8076	0	34024	
8077	0	34040	
8078	0	34080	
8079	0	34088	
8080	0	34092	
8081	0	34096	
8082	0	34088	
8083	0	34100	
8084	0	34096	
8085	0	34082	
8086	0	34060	
8087	0	34042	
8088	0	34040	
8089	0	34084	
8090	0	34108	
8091	0	34152	
8092	0	34184	
8093	0	34196	
8094	0	34220	
8095	0	34276	
8096	0	34274	
8097	0	34272	
8098	0	34296	
8099	0	34272	
8100	0	34264	
8101	0	34248	
8102	0	34240	
8103	0	34256	
8104	0	34284	
8105	0	34288	
8106	0	34274	
8107	0	34270	
8108	0	34260	
8109	0	34284	
8110	0	34316	
8111	0	34348	
8112	0	34362	
8113	0	34376	
8114	0	34420	
8115	0	34424	
8116	0	34444	
8117	0	34488	
8118	0	34512	
8119	0	34516	
8120	0	34500	
8121	0	34520	
8122	0	34516	
8123	0	34524	
8124	0	34512	
8125	0	34472	
8126	0	34436	
8127	0	34428	
8128	0	34448	
8129	0	34464	
8130	0	34496	
8131	0	34536	
8132	0	34568	
8133	0	34616	
8134	0	34624	
8135	0	34632	
8136	0	34652	
8137	0	34680	
8138	0	34684	
8139	0	34676	
8140	0	34640	
8141	0	34608	
8142	0	34568	
8143	0	34544	
8144	0	34524	
8145	0	34520	
8146	0	34492	
8147	0	34480	
8148	0	34508	
8149	0	34552	
8150	0	34584	
8151	0	34592	
8152	0	34584	
8153	0	34584	
8154	0	34618	
8155	0	34624	
8156	0	34652	
8157	0	34664	
8158	0	34688	
8159	0	34688	
8160	0	34648	
8161	0	34576	
8162	0	34528	
8163	0	34488	
8164	0	34480	
8165	0	34472	
8166	0	34448	
8167	0	34412	
8168	0	34420	
8169	0	34408	
8170	0	34404	
8171	0	34440	
8172	0	34432	
8173	0	34404	
8174	0	34414	
8175	0	34404	
8176	0	34384	
8177	0	34362	
8178	0	34308	
8179	0	34244	
8180	0	34144	
8181	0	34044	
8182	0	33932	
8183	0	33824	
8184	0	33744	
8185	0	33648	
8186	0	33552	
8187	0	33456	
8188	0	33344	
8189	0	33284	
8190	0	33240	
8191	0	33192	
8192	0	33136	
8193	0	33104	
8194	0	33072	
8195	0	33008	
8196	0	32944	
8197	0	32876	
8198	0	32832	
8199	0	32740	
8200	0	32620	
8201	0	32456	
8202	0	32332	
8203	0	32228	
8204	0	32148	
8205	0	32084	
8206	0	31992	
8207	0	31932	
8208	0	31848	
8209	0	31778	
8210	0	31732	
8211	0	31708	
8212	0	31664	
8213	0	31608	
8214	0	31584	
8215	0	31532	
8216	0	31512	
8217	0	31464	
8218	0	31412	
8219	0	31360	
8220	0	31296	
8221	0	31212	
8222	0	31128	
8223	0	31044	
8224	0	30980	
8225	0	30916	
8226	0	30876	
8227	0	30856	
8228	0	30836	
8229	0	30820	
8230	0	30836	
8231	0	30840	
8232	0	30856	
8233	0	30858	
8234	0	30868	
8235	0	30888	
8236	0	30884	
8237	0	30892	
8238	0	30880	
8239	0	30840	
8240	0	30820	
8241	0	30804	
8242	0	30776	
8243	0	30780	
8244	0	30744	
8245	0	30684	
8246	0	30656	
8247	0	30664	
8248	0	30720	
8249	0	30768	
8250	0	30812	
8251	0	30852	
8252	0	30908	
8253	0	30952	
8254	0	30992	
8255	0	31016	
8256	0	31028	
8257	0	31048	
8258	0	31076	
8259	0	31080	
8260	0	31072	
8261	0	31040	
8262	0	31064	
8263	0	31060	
8264	0	31024	
8265	0	31014	
8266	0	30992	
8267	0	30984	
8268	0	30992	
8269	0	31032	
8270	0	31072	
8271	0	31116	
8272	0	31156	
8273	0	31180	
8274	0	31212	
8275	0	31252	
8276	0	31256	
8277	0	31268	
8278	0	31276	
8279	0	31292	
8280	0	31320	
8281	0	31312	
8282	0	31310	
8283	0	31312	
8284	0	31316	
8285	0	31328	
8286	0	31296	
8287	0	31272	
8288	0	31280	
8289	0	31300	
8290	0	31352	
8291	0	31408	
8292	0	31476	
8293	0	31504	
8294	0	31534	
8295	0	31548	
8296	0	31532	
8297	0	31540	
8298	0	31522	
8299	0	31488	
8300	0	31444	
8301	0	31428	
8302	0	31418	
8303	0	31408	
8304	0	31408	
8305	0	31412	
8306	0	31408	
8307	0	31412	
8308	0	31436	
8309	0	31444	
8310	0	31476	
8311	0	31516	
8312	0	31548	
8313	0	31588	
8314	0	31637	
8315	0	31668	
8316	0	31692	
8317	0	31692	
8318	0	31692	
8319	0	31648	
8320	0	31608	
8321	0	31586	
8322	0	31560	
8323	0	31556	
8324	0	31560	
8325	0	31580	
8326	0	31568	
8327	0	31584	
8328	0	31600	
8329	0	31620	
8330	0	31652	
8331	0	31680	
8332	0	31712	
8333	0	31720	
8334	0	31742	
8335	0	31760	
8336	0	31776	
8337	0	31796	
8338	0	31812	
8339	0	31792	
8340	0	31772	
8341	0	31752	
8342	0	31696	
8343	0	31668	
8344	0	31664	
8345	0	31644	
8346	0	31616	
8347	0	31604	
8348	0	31612	
8349	0	31642	
8350	0	31672	
8351	0	31664	
8352	0	31674	
8353	0	31684	
8354	0	31692	
8355	0	31716	
8356	0	31748	
8357	0	31792	
8358	0	31772	
8359	0	31724	
8360	0	31660	
8361	0	31620	
8362	0	31592	
8363	0	31568	
8364	0	31556	
8365	0	31548	
8366	0	31560	
8367	0	31572	
8368	0	31570	
8369	0	31568	
8370	0	31588	
8371	0	31592	
8372	0	31600	
8373	0	31624	
8374	0	31656	
8375	0	31688	
8376	0	31700	
8377	0	31708	
8378	0	31696	
8379	0	31672	
8380	0	31644	
8381	0	31620	
8382	0	31600	
8383	0	31608	
8384	0	31636	
8385	0	31646	
8386	0	31642	
8387	0	31634	
8388	0	31636	
8389	0	31664	
8390	0	31672	
8391	0	31696	
8392	0	31700	
8393	0	31712	
8394	0	31744	
8395	0	31778	
8396	0	31784	
8397	0	31764	
8398	0	31744	
8399	0	31756	
8400	0	31778	
8401	0	31788	
8402	0	31768	
8403	0	31744	
8404	0	31732	
8405	0	31708	
8406	0	31720	
8407	0	31696	
8408	0	31648	
8409	0	31648	
8410	0	31664	
8411	0	31720	
8412	0	31740	
8413	0	31720	
8414	0	31704	
8415	0	31748	
8416	0	31808	
8417	0	31844	
8418	0	31848	
8419	0	31820	
8420	0	31820	
8421	0	31792	
8422	0	31780	
8423	0	31760	
8424	0	31728	
8425	0	31726	
8426	0	31740	
8427	0	31772	
8428	0	31756	
8429	0	31744	
8430	0	31800	
8431	0	31828	
8432	0	31832	
8433	0	31824	
8434	0	31818	
8435	0	31828	
8436	0	31836	
8437	0	31854	
8438	0	31888	
8439	0	31860	
8440	0	31852	
8441	0	31832	
8442	0	31812	
8443	0	31824	
8444	0	31792	
8445	0	31756	
8446	0	31732	
8447	0	31728	
8448	0	31740	
8449	0	31768	
8450	0	31812	
8451	0	31820	
8452	0	31828	
8453	0	31852	
8454	0	31884	
8455	0	31904	
8456	0	31888	
8457	0	31906	
8458	0	31924	
8459	0	31876	
8460	0	31856	
8461	0	31852	
8462	0	31856	
8463	0	31852	
8464	0	31848	
8465	0	31860	
8466	0	31828	
8467	0	31816	
8468	0	31836	
8469	0	31878	
8470	0	31936	
8471	0	31964	
8472	0	31980	
8473	0	32026	
8474	0	32056	
8475	0	32056	
8476	0	32040	
8477	0	32040	
8478	0	32044	
8479	0	32024	
8480	0	31996	
8481	0	31972	
8482	0	31960	
8483	0	31952	
8484	0	31944	
8485	0	31908	
8486	0	31888	
8487	0	31876	
8488	0	31912	
8489	0	31944	
8490	0	31960	
8491	0	31978	
8492	0	31948	
8493	0	31912	
8494	0	31896	
8495	0	31888	
8496	0	31904	
8497	0	31936	
8498	0	31944	
8499	0	31932	
8500	0	31944	
8501	0	31948	
8502	0	31960	
8503	0	31954	
8504	0	31948	
8505	0	31920	
8506	0	31916	
8507	0	31932	
8508	0	31984	
8509	0	32032	
8510	0	32112	
8511	0	32156	
8512	0	32172	
8513	0	32208	
8514	0	32256	
8515	0	32276	
8516	0	32284	
8517	0	32290	
8518	0	32272	
8519	0	32264	
8520	0	32224	
8521	0	32200	
8522	0	32212	
8523	0	32200	
8524	0	32168	
8525	0	32156	
8526	0	32160	
8527	0	32152	
8528	0	32168	
8529	0	32196	
8530	0	32212	
8531	0	32212	
8532	0	32240	
8533	0	32260	
8534	0	32290	
8535	0	32324	
8536	0	32360	
8537	0	32400	
8538	0	32420	
8539	0	32408	
8540	0	32388	
8541	0	32384	
8542	0	32348	
8543	0	32332	
8544	0	32316	
8545	0	32312	
8546	0	32296	
8547	0	32324	
8548	0	32368	
8549	0	32416	
8550	0	32464	
8551	0	32512	
8552	0	32552	
8553	0	32576	
8554	0	32580	
8555	0	32608	
8556	0	32642	
8557	0	32636	
8558	0	32608	
8559	0	32580	
8560	0	32584	
8561	0	32572	
8562	0	32568	
8563	0	32576	
8564	0	32576	
8565	0	32564	
8566	0	32552	
8567	0	32548	
8568	0	32576	
8569	0	32588	
8570	0	32620	
8571	0	32650	
8572	0	32684	
8573	0	32696	
8574	0	32730	
8575	0	32760	
8576	0	32792	
8577	0	32844	
8578	0	32844	
8579	0	32852	
8580	0	32864	
8581	0	32896	
8582	0	32928	
8583	0	32984	
8584	0	33056	
8585	0	33080	
8586	0	33090	
8587	0	33084	
8588	0	33136	
8589	0	33176	
8590	0	33208	
8591	0	33236	
