# OpenSignals Text File Format. Version 1
# {"00:07:80:4B:15:F7": {"position": 0, "device": "biosignalsplux", "device name": "00:07:80:4B:15:F7", "device connection": "BTH00:07:80:4B:15:F7", "sampling rate": 1000, "resolution": [16], "firmware version": 775, "comments": "", "keywords": "", "mode": 0, "sync interval": 2, "date": "2023-3-14", "time": "15:39:38.818", "channels": [1], "sensor": ["ECG"], "label": ["CH1"], "column": ["nSeq", "DI", "CH1"], "special": [{"SpO2": [80, 40, 5, 4, 3, 3]}, {"SpO2": [80, 40, 5, 4, 3, 3]}, {"SpO2": [80, 40, 5, 4, 3, 3]}, {"SpO2": [80, 40, 5, 4, 3, 3]}, {"SpO2": [80, 40, 5, 4, 3, 3]}, {"SpO2": [80, 40, 5, 4, 3, 3]}, {"SpO2": [80, 40, 5, 4, 3, 3]}, {"SpO2": [80, 40, 5, 4, 3, 3]}], "digital IO": [0, 1], "sleeve color": ["green"], "convertedValues": 0}}
# EndOfHeader
0	0	34520	
1	0	34508	
2	0	34488	
3	0	34520	
4	0	34552	
5	0	34604	
6	0	34720	
7	0	34804	
8	0	34892	
9	0	35024	
10	0	35108	
11	0	35152	
12	0	35220	
13	0	35296	
14	0	35396	
15	0	35472	
16	0	35528	
17	0	35600	
18	0	35680	
19	0	35724	
20	0	35756	
21	0	35832	
22	0	35928	
23	0	36002	
24	0	36108	
25	0	36248	
26	0	36404	
27	0	36520	
28	0	36632	
29	0	36704	
30	0	36752	
31	0	36808	
32	0	36880	
33	0	36972	
34	0	37060	
35	0	37136	
36	0	37224	
37	0	37296	
38	0	37392	
39	0	37500	
40	0	37624	
41	0	37752	
42	0	37856	
43	0	37992	
44	0	38088	
45	0	38176	
46	0	38248	
47	0	38336	
48	0	38424	
49	0	38528	
50	0	38620	
51	0	38628	
52	0	38624	
53	0	38628	
54	0	38672	
55	0	38744	
56	0	38808	
57	0	38880	
58	0	38944	
59	0	39004	
60	0	39004	
61	0	39012	
62	0	39012	
63	0	39040	
64	0	39080	
65	0	39144	
66	0	39204	
67	0	39176	
68	0	39152	
69	0	39120	
70	0	39080	
71	0	39044	
72	0	39016	
73	0	38984	
74	0	38896	
75	0	38808	
76	0	38692	
77	0	38604	
78	0	38540	
79	0	38524	
80	0	38524	
81	0	38508	
82	0	38432	
83	0	38324	
84	0	38228	
85	0	38128	
86	0	38016	
87	0	37916	
88	0	37788	
89	0	37704	
90	0	37596	
91	0	37442	
92	0	37272	
93	0	37048	
94	0	36748	
95	0	36432	
96	0	36128	
97	0	35872	
98	0	35636	
99	0	35440	
100	0	35228	
101	0	35032	
102	0	34864	
103	0	34664	
104	0	34432	
105	0	34196	
106	0	33922	
107	0	33676	
108	0	33432	
109	0	33180	
110	0	32946	
111	0	32752	
112	0	32552	
113	0	32324	
114	0	32072	
115	0	31844	
116	0	31620	
117	0	31388	
118	0	31116	
119	0	30900	
120	0	30696	
121	0	30492	
122	0	30296	
123	0	30120	
124	0	30024	
125	0	29920	
126	0	29778	
127	0	29624	
128	0	29462	
129	0	29372	
130	0	29258	
131	0	29132	
132	0	29072	
133	0	28992	
134	0	28912	
135	0	28824	
136	0	28784	
137	0	28722	
138	0	28668	
139	0	28632	
140	0	28600	
141	0	28592	
142	0	28556	
143	0	28456	
144	0	28368	
145	0	28320	
146	0	28280	
147	0	28232	
148	0	28220	
149	0	28240	
150	0	28240	
151	0	28168	
152	0	28128	
153	0	28068	
154	0	27984	
155	0	27936	
156	0	27932	
157	0	27890	
158	0	27930	
159	0	27960	
160	0	27996	
161	0	28020	
162	0	27968	
163	0	27940	
164	0	27928	
165	0	27960	
166	0	28020	
167	0	28060	
168	0	28084	
169	0	28116	
170	0	28168	
171	0	28216	
172	0	28240	
173	0	28276	
174	0	28300	
175	0	28336	
176	0	28408	
177	0	28496	
178	0	28544	
179	0	28526	
180	0	28528	
181	0	28604	
182	0	28676	
183	0	28668	
184	0	28656	
185	0	28676	
186	0	28688	
187	0	28684	
188	0	28676	
189	0	28736	
190	0	28754	
191	0	28752	
192	0	28736	
193	0	28762	
194	0	28826	
195	0	28888	
196	0	28984	
197	0	29044	
198	0	29048	
199	0	29068	
200	0	29144	
201	0	29200	
202	0	29240	
203	0	29252	
204	0	29300	
205	0	29352	
206	0	29432	
207	0	29474	
208	0	29490	
209	0	29482	
210	0	29488	
211	0	29528	
212	0	29580	
213	0	29656	
214	0	29728	
215	0	29796	
216	0	29840	
217	0	29892	
218	0	29960	
219	0	30012	
220	0	30052	
221	0	30102	
222	0	30204	
223	0	30288	
224	0	30276	
225	0	30248	
226	0	30272	
227	0	30324	
228	0	30368	
229	0	30410	
230	0	30392	
231	0	30376	
232	0	30384	
233	0	30392	
234	0	30392	
235	0	30410	
236	0	30456	
237	0	30520	
238	0	30576	
239	0	30636	
240	0	30700	
241	0	30764	
242	0	30824	
243	0	30876	
244	0	30896	
245	0	30916	
246	0	30940	
247	0	30996	
248	0	31048	
249	0	31056	
250	0	31072	
251	0	31064	
252	0	31008	
253	0	31016	
254	0	31052	
255	0	31096	
256	0	31112	
257	0	31152	
258	0	31184	
259	0	31192	
260	0	31204	
261	0	31260	
262	0	31348	
263	0	31432	
264	0	31468	
265	0	31440	
266	0	31416	
267	0	31400	
268	0	31420	
269	0	31468	
270	0	31508	
271	0	31510	
272	0	31476	
273	0	31448	
274	0	31444	
275	0	31396	
276	0	31368	
277	0	31372	
278	0	31428	
279	0	31460	
280	0	31452	
281	0	31436	
282	0	31388	
283	0	31404	
284	0	31472	
285	0	31576	
286	0	31624	
287	0	31600	
288	0	31580	
289	0	31568	
290	0	31552	
291	0	31524	
292	0	31524	
293	0	31500	
294	0	31464	
295	0	31428	
296	0	31392	
297	0	31376	
298	0	31380	
299	0	31396	
300	0	31412	
301	0	31416	
302	0	31468	
303	0	31512	
304	0	31528	
305	0	31552	
306	0	31570	
307	0	31568	
308	0	31588	
309	0	31588	
310	0	31588	
311	0	31528	
312	0	31464	
313	0	31392	
314	0	31332	
315	0	31320	
316	0	31360	
317	0	31348	
318	0	31336	
319	0	31316	
320	0	31272	
321	0	31240	
322	0	31248	
323	0	31304	
324	0	31344	
325	0	31380	
326	0	31400	
327	0	31352	
328	0	31296	
329	0	31296	
330	0	31314	
331	0	31348	
332	0	31400	
333	0	31444	
334	0	31468	
335	0	31444	
336	0	31392	
337	0	31348	
338	0	31332	
339	0	31376	
340	0	31432	
341	0	31448	
342	0	31388	
343	0	31336	
344	0	31284	
345	0	31280	
346	0	31324	
347	0	31360	
348	0	31408	
349	0	31418	
350	0	31348	
351	0	31290	
352	0	31280	
353	0	31336	
354	0	31398	
355	0	31432	
356	0	31456	
357	0	31456	
358	0	31456	
359	0	31440	
360	0	31424	
361	0	31436	
362	0	31456	
363	0	31456	
364	0	31428	
365	0	31448	
366	0	31480	
367	0	31492	
368	0	31522	
369	0	31520	
370	0	31528	
371	0	31536	
372	0	31544	
373	0	31544	
374	0	31544	
375	0	31552	
376	0	31584	
377	0	31584	
378	0	31578	
379	0	31560	
380	0	31556	
381	0	31560	
382	0	31520	
383	0	31476	
384	0	31468	
385	0	31514	
386	0	31560	
387	0	31552	
388	0	31574	
389	0	31620	
390	0	31656	
391	0	31668	
392	0	31672	
393	0	31682	
394	0	31688	
395	0	31688	
396	0	31660	
397	0	31652	
398	0	31672	
399	0	31680	
400	0	31680	
401	0	31724	
402	0	31808	
403	0	31860	
404	0	31880	
405	0	31856	
406	0	31776	
407	0	31676	
408	0	31672	
409	0	31746	
410	0	31808	
411	0	31848	
412	0	31834	
413	0	31812	
414	0	31832	
415	0	31852	
416	0	31884	
417	0	31932	
418	0	32016	
419	0	32128	
420	0	32288	
421	0	32450	
422	0	32528	
423	0	32540	
424	0	32600	
425	0	32724	
426	0	32848	
427	0	32952	
428	0	33076	
429	0	33140	
430	0	33152	
431	0	33140	
432	0	33108	
433	0	33050	
434	0	32972	
435	0	32896	
436	0	32860	
437	0	32816	
438	0	32800	
439	0	32784	
440	0	32796	
441	0	32892	
442	0	33004	
443	0	33116	
444	0	33164	
445	0	33188	
446	0	33312	
447	0	33528	
448	0	33792	
449	0	34056	
450	0	34344	
451	0	34588	
452	0	34748	
453	0	34836	
454	0	34900	
455	0	35024	
456	0	35184	
457	0	35312	
458	0	35392	
459	0	35380	
460	0	35284	
461	0	35196	
462	0	35096	
463	0	34896	
464	0	34700	
465	0	34542	
466	0	34432	
467	0	34268	
468	0	34120	
469	0	33984	
470	0	33836	
471	0	33706	
472	0	33604	
473	0	33544	
474	0	33496	
475	0	33416	
476	0	33332	
477	0	33224	
478	0	33152	
479	0	33090	
480	0	33068	
481	0	33008	
482	0	32896	
483	0	32816	
484	0	32752	
485	0	32688	
486	0	32632	
487	0	32592	
488	0	32538	
489	0	32476	
490	0	32344	
491	0	32180	
492	0	32032	
493	0	31908	
494	0	31776	
495	0	31708	
496	0	31656	
497	0	31548	
498	0	31456	
499	0	31360	
500	0	31212	
501	0	31104	
502	0	31040	
503	0	31056	
504	0	31056	
505	0	31016	
506	0	31040	
507	0	31068	
508	0	31072	
509	0	31104	
510	0	31092	
511	0	31042	
512	0	31008	
513	0	30984	
514	0	31004	
515	0	30956	
516	0	30924	
517	0	30944	
518	0	30946	
519	0	30946	
520	0	31012	
521	0	31116	
522	0	31196	
523	0	31240	
524	0	31264	
525	0	31320	
526	0	31353	
527	0	31348	
528	0	31322	
529	0	31352	
530	0	31328	
531	0	31304	
532	0	31304	
533	0	31376	
534	0	31404	
535	0	31380	
536	0	31368	
537	0	31428	
538	0	31502	
539	0	31532	
540	0	31520	
541	0	31516	
542	0	31536	
543	0	31576	
544	0	31608	
545	0	31596	
546	0	31564	
547	0	31464	
548	0	31312	
549	0	31040	
550	0	30612	
551	0	30010	
552	0	29336	
553	0	28784	
554	0	28410	
555	0	28224	
556	0	28250	
557	0	28468	
558	0	28874	
559	0	29408	
560	0	30156	
561	0	31136	
562	0	32204	
563	0	33464	
564	0	34908	
565	0	36472	
566	0	38116	
567	0	40080	
568	0	42340	
569	0	44936	
570	0	47952	
571	0	51060	
572	0	54100	
573	0	56980	
574	0	59796	
575	0	62356	
576	0	63860	
577	0	64612	
578	0	64976	
579	0	65096	
580	0	65112	
581	0	65048	
582	0	64960	
583	0	64864	
584	0	64752	
585	0	61448	
586	0	56378	
587	0	52000	
588	0	48336	
589	0	45180	
590	0	42580	
591	0	40324	
592	0	38204	
593	0	36136	
594	0	34256	
595	0	32612	
596	0	31216	
597	0	30028	
598	0	28980	
599	0	28088	
600	0	27516	
601	0	27228	
602	0	27048	
603	0	26944	
604	0	26920	
605	0	26896	
606	0	26800	
607	0	26664	
608	0	26636	
609	0	26684	
610	0	26784	
611	0	27024	
612	0	27264	
613	0	27496	
614	0	27796	
615	0	28088	
616	0	28332	
617	0	28496	
618	0	28576	
619	0	28656	
620	0	28724	
621	0	28780	
622	0	28792	
623	0	28768	
624	0	28770	
625	0	28776	
626	0	28804	
627	0	28840	
628	0	28884	
629	0	28888	
630	0	28880	
631	0	28824	
632	0	28832	
633	0	28864	
634	0	28892	
635	0	28930	
636	0	28932	
637	0	28992	
638	0	29000	
639	0	29008	
640	0	29056	
641	0	29140	
642	0	29184	
643	0	29248	
644	0	29276	
645	0	29284	
646	0	29316	
647	0	29412	
648	0	29440	
649	0	29452	
650	0	29456	
651	0	29488	
652	0	29532	
653	0	29560	
654	0	29588	
655	0	29648	
656	0	29736	
657	0	29804	
658	0	29884	
659	0	29912	
660	0	29972	
661	0	30080	
662	0	30156	
663	0	30184	
664	0	30208	
665	0	30228	
666	0	30232	
667	0	30208	
668	0	30212	
669	0	30262	
670	0	30312	
671	0	30324	
672	0	30328	
673	0	30368	
674	0	30436	
675	0	30508	
676	0	30580	
677	0	30620	
678	0	30668	
679	0	30740	
680	0	30832	
681	0	30906	
682	0	30964	
683	0	31076	
684	0	31096	
685	0	31052	
686	0	31016	
687	0	31016	
688	0	31028	
689	0	31076	
690	0	31150	
691	0	31208	
692	0	31244	
693	0	31316	
694	0	31378	
695	0	31418	
696	0	31460	
697	0	31490	
698	0	31512	
699	0	31536	
700	0	31552	
701	0	31584	
702	0	31600	
703	0	31636	
704	0	31732	
705	0	31824	
706	0	31920	
707	0	32048	
708	0	32120	
709	0	32176	
710	0	32180	
711	0	32172	
712	0	32224	
713	0	32296	
714	0	32352	
715	0	32408	
716	0	32460	
717	0	32524	
718	0	32592	
719	0	32684	
720	0	32768	
721	0	32808	
722	0	32868	
723	0	32928	
724	0	32976	
725	0	33058	
726	0	33160	
727	0	33232	
728	0	33280	
729	0	33336	
730	0	33376	
731	0	33368	
732	0	33388	
733	0	33456	
734	0	33512	
735	0	33552	
736	0	33560	
737	0	33588	
738	0	33684	
739	0	33796	
740	0	33868	
741	0	33884	
742	0	34012	
743	0	34080	
744	0	34128	
745	0	34174	
746	0	34260	
747	0	34404	
748	0	34496	
749	0	34568	
750	0	34652	
751	0	34722	
752	0	34796	
753	0	34868	
754	0	34980	
755	0	35064	
756	0	35124	
757	0	35200	
758	0	35264	
759	0	35412	
760	0	35556	
761	0	35684	
762	0	35808	
763	0	35952	
764	0	36064	
765	0	36160	
766	0	36276	
767	0	36412	
768	0	36488	
769	0	36520	
770	0	36570	
771	0	36682	
772	0	36820	
773	0	36948	
774	0	37024	
775	0	37132	
776	0	37224	
777	0	37288	
778	0	37388	
779	0	37538	
780	0	37664	
781	0	37708	
782	0	37768	
783	0	37860	
784	0	37988	
785	0	38104	
786	0	38232	
787	0	38334	
788	0	38424	
789	0	38512	
790	0	38586	
791	0	38592	
792	0	38612	
793	0	38656	
794	0	38800	
795	0	38880	
796	0	38896	
797	0	38936	
798	0	38872	
799	0	38812	
800	0	38760	
801	0	38728	
802	0	38784	
803	0	38754	
804	0	38684	
805	0	38736	
806	0	38760	
807	0	38728	
808	0	38640	
809	0	38570	
810	0	38616	
811	0	38652	
812	0	38608	
813	0	38620	
814	0	38544	
815	0	38448	
816	0	38394	
817	0	38412	
818	0	38304	
819	0	38210	
820	0	38104	
821	0	37932	
822	0	37784	
823	0	37610	
824	0	37468	
825	0	37360	
826	0	37172	
827	0	37016	
828	0	36892	
829	0	36672	
830	0	36378	
831	0	36088	
832	0	35876	
833	0	35608	
834	0	35344	
835	0	35102	
836	0	34864	
837	0	34612	
838	0	34428	
839	0	34232	
840	0	33944	
841	0	33620	
842	0	33376	
843	0	33192	
844	0	33008	
845	0	32768	
846	0	32496	
847	0	32232	
848	0	32040	
849	0	31852	
850	0	31672	
851	0	31440	
852	0	31236	
853	0	31068	
854	0	30900	
855	0	30680	
856	0	30468	
857	0	30300	
858	0	30200	
859	0	30122	
860	0	30064	
861	0	29972	
862	0	29828	
863	0	29660	
864	0	29456	
865	0	29232	
866	0	29128	
867	0	29064	
868	0	29000	
869	0	28916	
870	0	28872	
871	0	28768	
872	0	28664	
873	0	28608	
874	0	28536	
875	0	28512	
876	0	28512	
877	0	28448	
878	0	28372	
879	0	28320	
880	0	28288	
881	0	28322	
882	0	28352	
883	0	28360	
884	0	28384	
885	0	28388	
886	0	28436	
887	0	28440	
888	0	28448	
889	0	28444	
890	0	28434	
891	0	28440	
892	0	28436	
893	0	28404	
894	0	28400	
895	0	28392	
896	0	28360	
897	0	28320	
898	0	28344	
899	0	28424	
900	0	28474	
901	0	28532	
902	0	28584	
903	0	28596	
904	0	28604	
905	0	28676	
906	0	28752	
907	0	28736	
908	0	28740	
909	0	28776	
910	0	28804	
911	0	28812	
912	0	28832	
913	0	28856	
914	0	28860	
915	0	28832	
916	0	28856	
917	0	28968	
918	0	29056	
919	0	29112	
920	0	29112	
921	0	29132	
922	0	29220	
923	0	29300	
924	0	29354	
925	0	29408	
926	0	29496	
927	0	29586	
928	0	29584	
929	0	29644	
930	0	29664	
931	0	29678	
932	0	29692	
933	0	29756	
934	0	29804	
935	0	29794	
936	0	29682	
937	0	29584	
938	0	29568	
939	0	29636	
940	0	29704	
941	0	29704	
942	0	29752	
943	0	29832	
944	0	29920	
945	0	30040	
946	0	30164	
947	0	30216	
948	0	30264	
949	0	30346	
950	0	30420	
951	0	30384	
952	0	30378	
953	0	30424	
954	0	30452	
955	0	30488	
956	0	30554	
957	0	30628	
958	0	30682	
959	0	30700	
960	0	30680	
961	0	30648	
962	0	30666	
963	0	30740	
964	0	30796	
965	0	30744	
966	0	30708	
967	0	30732	
968	0	30808	
969	0	30844	
970	0	30844	
971	0	30888	
972	0	30976	
973	0	31084	
974	0	31164	
975	0	31160	
976	0	31152	
977	0	31200	
978	0	31292	
979	0	31332	
980	0	31296	
981	0	31324	
982	0	31368	
983	0	31306	
984	0	31284	
985	0	31336	
986	0	31420	
987	0	31424	
988	0	31416	
989	0	31476	
990	0	31508	
991	0	31520	
992	0	31546	
993	0	31564	
994	0	31560	
995	0	31584	
996	0	31584	
997	0	31552	
998	0	31492	
999	0	31496	
1000	0	31520	
1001	0	31572	
1002	0	31632	
1003	0	31720	
1004	0	31776	
1005	0	31784	
1006	0	31728	
1007	0	31736	
1008	0	31786	
1009	0	31816	
1010	0	31842	
1011	0	31872	
1012	0	31836	
1013	0	31824	
1014	0	31784	
1015	0	31824	
1016	0	31808	
1017	0	31732	
1018	0	31712	
1019	0	31720	
1020	0	31720	
1021	0	31728	
1022	0	31700	
1023	0	31652	
1024	0	31712	
1025	0	31784	
1026	0	31848	
1027	0	31872	
1028	0	31834	
1029	0	31820	
1030	0	31792	
1031	0	31764	
1032	0	31768	
1033	0	31792	
1034	0	31748	
1035	0	31812	
1036	0	31796	
1037	0	31764	
1038	0	31756	
1039	0	31748	
1040	0	31772	
1041	0	31800	
1042	0	31824	
1043	0	31896	
1044	0	31988	
1045	0	32088	
1046	0	32092	
1047	0	32068	
1048	0	32120	
1049	0	32092	
1050	0	32004	
1051	0	31912	
1052	0	31844	
1053	0	31768	
1054	0	31756	
1055	0	31776	
1056	0	31736	
1057	0	31664	
1058	0	31629	
1059	0	31640	
1060	0	31696	
1061	0	31776	
1062	0	31852	
1063	0	31928	
1064	0	31978	
1065	0	32064	
1066	0	32124	
1067	0	32120	
1068	0	32096	
1069	0	32136	
1070	0	32136	
1071	0	32084	
1072	0	32056	
1073	0	32010	
1074	0	31976	
1075	0	31960	
1076	0	31936	
1077	0	31930	
1078	0	31956	
1079	0	31984	
1080	0	32012	
1081	0	31992	
1082	0	31976	
1083	0	31992	
1084	0	32020	
1085	0	32112	
1086	0	32204	
1087	0	32220	
1088	0	32140	
1089	0	32044	
1090	0	32060	
1091	0	32120	
1092	0	32144	
1093	0	32120	
1094	0	32056	
1095	0	32012	
1096	0	32016	
1097	0	32048	
1098	0	32064	
1099	0	32012	
1100	0	32040	
1101	0	32128	
1102	0	32192	
1103	0	32304	
1104	0	32352	
1105	0	32356	
1106	0	32416	
1107	0	32476	
1108	0	32488	
1109	0	32424	
1110	0	32392	
1111	0	32376	
1112	0	32312	
1113	0	32296	
1114	0	32322	
1115	0	32309	
1116	0	32244	
1117	0	32184	
1118	0	32208	
1119	0	32224	
1120	0	32260	
1121	0	32320	
1122	0	32420	
1123	0	32500	
1124	0	32428	
1125	0	32404	
1126	0	32468	
1127	0	32536	
1128	0	32544	
1129	0	32560	
1130	0	32560	
1131	0	32524	
1132	0	32544	
1133	0	32536	
1134	0	32528	
1135	0	32536	
1136	0	32556	
1137	0	32592	
1138	0	32552	
1139	0	32560	
1140	0	32592	
1141	0	32608	
1142	0	32600	
1143	0	32600	
1144	0	32612	
1145	0	32628	
1146	0	32652	
1147	0	32680	
1148	0	32812	
1149	0	32980	
1150	0	33100	
1151	0	33142	
1152	0	33132	
1153	0	33160	
1154	0	33204	
1155	0	33320	
1156	0	33416	
1157	0	33520	
1158	0	33632	
1159	0	33712	
1160	0	33752	
1161	0	33762	
1162	0	33708	
1163	0	33652	
1164	0	33600	
1165	0	33584	
1166	0	33556	
1167	0	33496	
1168	0	33460	
1169	0	33352	
1170	0	33336	
1171	0	33352	
1172	0	33376	
1173	0	33476	
1174	0	33640	
1175	0	33820	
1176	0	34024	
1177	0	34232	
1178	0	34560	
1179	0	34872	
1180	0	35040	
1181	0	35100	
1182	0	35168	
1183	0	35200	
1184	0	35280	
1185	0	35416	
1186	0	35484	
1187	0	35488	
1188	0	35460	
1189	0	35364	
1190	0	35264	
1191	0	35172	
1192	0	35080	
1193	0	35008	
1194	0	34976	
1195	0	34908	
1196	0	34772	
1197	0	34616	
1198	0	34472	
1199	0	34312	
1200	0	34168	
1201	0	34076	
1202	0	33992	
1203	0	33888	
1204	0	33772	
1205	0	33616	
1206	0	33552	
1207	0	33540	
1208	0	33484	
1209	0	33396	
1210	0	33266	
1211	0	33116	
1212	0	32984	
1213	0	32900	
1214	0	32880	
1215	0	32884	
1216	0	32876	
1217	0	32732	
1218	0	32532	
1219	0	32340	
1220	0	32224	
1221	0	32188	
1222	0	32146	
1223	0	32114	
1224	0	32080	
1225	0	32032	
1226	0	31968	
1227	0	31852	
1228	0	31696	
1229	0	31564	
1230	0	31464	
1231	0	31384	
1232	0	31312	
1233	0	31258	
1234	0	31272	
1235	0	31260	
1236	0	31208	
1237	0	31168	
1238	0	31120	
1239	0	31156	
1240	0	31258	
1241	0	31306	
1242	0	31332	
1243	0	31364	
1244	0	31392	
1245	0	31450	
1246	0	31472	
1247	0	31494	
1248	0	31532	
1249	0	31428	
1250	0	31376	
1251	0	31408	
1252	0	31472	
1253	0	31504	
1254	0	31536	
1255	0	31556	
1256	0	31544	
1257	0	31604	
1258	0	31604	
1259	0	31604	
1260	0	31638	
1261	0	31672	
1262	0	31664	
1263	0	31696	
1264	0	31756	
1265	0	31800	
1266	0	31864	
1267	0	31900	
1268	0	31924	
1269	0	31912	
1270	0	31912	
1271	0	31940	
1272	0	31836	
1273	0	31832	
1274	0	31868	
1275	0	31778	
1276	0	31644	
1277	0	31380	
1278	0	31056	
1279	0	30588	
1280	0	29954	
1281	0	29296	
1282	0	28796	
1283	0	28536	
1284	0	28416	
1285	0	28480	
1286	0	28796	
1287	0	29320	
1288	0	29960	
1289	0	30792	
1290	0	31778	
1291	0	32868	
1292	0	34218	
1293	0	35768	
1294	0	37384	
1295	0	39116	
1296	0	41120	
1297	0	43390	
1298	0	46208	
1299	0	49400	
1300	0	52552	
1301	0	55580	
1302	0	58528	
1303	0	61324	
1304	0	63252	
1305	0	64224	
1306	0	64712	
1307	0	64912	
1308	0	64960	
1309	0	64904	
1310	0	64840	
1311	0	64730	
1312	0	64624	
1313	0	64500	
1314	0	60272	
1315	0	55380	
1316	0	51400	
1317	0	47940	
1318	0	45008	
1319	0	42592	
1320	0	40384	
1321	0	38368	
1322	0	36540	
1323	0	34864	
1324	0	33328	
1325	0	31876	
1326	0	30656	
1327	0	29620	
1328	0	28826	
1329	0	28292	
1330	0	27976	
1331	0	27728	
1332	0	27656	
1333	0	27584	
1334	0	27296	
1335	0	26960	
1336	0	26872	
1337	0	26940	
1338	0	27020	
1339	0	27200	
1340	0	27448	
1341	0	27724	
1342	0	28032	
1343	0	28266	
1344	0	28564	
1345	0	28824	
1346	0	28948	
1347	0	29016	
1348	0	29064	
1349	0	29080	
1350	0	28988	
1351	0	28932	
1352	0	28928	
1353	0	28912	
1354	0	28884	
1355	0	28846	
1356	0	28848	
1357	0	28868	
1358	0	28832	
1359	0	28820	
1360	0	28852	
1361	0	28844	
1362	0	28840	
1363	0	28872	
1364	0	28972	
1365	0	28988	
1366	0	28970	
1367	0	28980	
1368	0	29056	
1369	0	29112	
1370	0	29164	
1371	0	29284	
1372	0	29372	
1373	0	29480	
1374	0	29564	
1375	0	29632	
1376	0	29620	
1377	0	29560	
1378	0	29504	
1379	0	29512	
1380	0	29536	
1381	0	29596	
1382	0	29680	
1383	0	29816	
1384	0	29860	
1385	0	29900	
1386	0	30052	
1387	0	30164	
1388	0	30240	
1389	0	30292	
1390	0	30370	
1391	0	30368	
1392	0	30360	
1393	0	30420	
1394	0	30532	
1395	0	30600	
1396	0	30624	
1397	0	30592	
1398	0	30624	
1399	0	30632	
1400	0	30616	
1401	0	30576	
1402	0	30656	
1403	0	30800	
1404	0	30912	
1405	0	30944	
1406	0	30960	
1407	0	30988	
1408	0	31060	
1409	0	31196	
1410	0	31362	
1411	0	31424	
1412	0	31368	
1413	0	31280	
1414	0	31220	
1415	0	31252	
1416	0	31274	
1417	0	31276	
1418	0	31264	
1419	0	31328	
1420	0	31456	
1421	0	31560	
1422	0	31604	
1423	0	31696	
1424	0	31812	
1425	0	31888	
1426	0	31964	
1427	0	31936	
1428	0	31932	
1429	0	32024	
1430	0	32156	
1431	0	32228	
1432	0	32270	
1433	0	32304	
1434	0	32268	
1435	0	32232	
1436	0	32256	
1437	0	32328	
1438	0	32336	
1439	0	32352	
1440	0	32472	
1441	0	32516	
1442	0	32480	
1443	0	32488	
1444	0	32564	
1445	0	32652	
1446	0	32740	
1447	0	32832	
1448	0	32904	
1449	0	32936	
1450	0	32956	
1451	0	32992	
1452	0	33068	
1453	0	33096	
1454	0	33044	
1455	0	33112	
1456	0	33228	
1457	0	33292	
1458	0	33324	
1459	0	33420	
1460	0	33500	
1461	0	33512	
1462	0	33536	
1463	0	33642	
1464	0	33772	
1465	0	33904	
1466	0	34040	
1467	0	34092	
1468	0	34120	
1469	0	34216	
1470	0	34316	
1471	0	34340	
1472	0	34360	
1473	0	34396	
1474	0	34452	
1475	0	34552	
1476	0	34628	
1477	0	34704	
1478	0	34768	
1479	0	34872	
1480	0	34984	
1481	0	35100	
1482	0	35200	
1483	0	35260	
1484	0	35320	
1485	0	35460	
1486	0	35520	
1487	0	35602	
1488	0	35764	
1489	0	35976	
1490	0	36090	
1491	0	36076	
1492	0	36140	
1493	0	36224	
1494	0	36408	
1495	0	36596	
1496	0	36610	
1497	0	36728	
1498	0	36920	
1499	0	37040	
1500	0	37088	
1501	0	37172	
1502	0	37268	
1503	0	37290	
1504	0	37332	
1505	0	37460	
1506	0	37628	
1507	0	37796	
1508	0	37896	
1509	0	37988	
1510	0	38028	
1511	0	38106	
1512	0	38184	
1513	0	38260	
1514	0	38396	
1515	0	38524	
1516	0	38616	
1517	0	38724	
1518	0	38720	
1519	0	38668	
1520	0	38700	
1521	0	38624	
1522	0	38626	
1523	0	38682	
1524	0	38704	
1525	0	38712	
1526	0	38708	
1527	0	38732	
1528	0	38756	
1529	0	38792	
1530	0	38776	
1531	0	38780	
1532	0	38780	
1533	0	38780	
1534	0	38808	
1535	0	38784	
1536	0	38720	
1537	0	38688	
1538	0	38664	
1539	0	38648	
1540	0	38652	
1541	0	38592	
1542	0	38512	
1543	0	38472	
1544	0	38496	
1545	0	38496	
1546	0	38416	
1547	0	38288	
1548	0	38132	
1549	0	38000	
1550	0	37812	
1551	0	37544	
1552	0	37336	
1553	0	37240	
1554	0	37112	
1555	0	36916	
1556	0	36604	
1557	0	36402	
1558	0	36200	
1559	0	35980	
1560	0	35744	
1561	0	35500	
1562	0	35320	
1563	0	35228	
1564	0	35112	
1565	0	34912	
1566	0	34692	
1567	0	34400	
1568	0	34220	
1569	0	34052	
1570	0	33822	
1571	0	33496	
1572	0	33216	
1573	0	32904	
1574	0	32668	
1575	0	32426	
1576	0	32184	
1577	0	31952	
1578	0	31756	
1579	0	31584	
1580	0	31418	
1581	0	31250	
1582	0	31048	
1583	0	30884	
1584	0	30720	
1585	0	30588	
1586	0	30452	
1587	0	30284	
1588	0	30126	
1589	0	29948	
1590	0	29824	
1591	0	29748	
1592	0	29592	
1593	0	29424	
1594	0	29296	
1595	0	29224	
1596	0	29064	
1597	0	28916	
1598	0	28764	
1599	0	28760	
1600	0	28844	
1601	0	28852	
1602	0	28724	
1603	0	28588	
1604	0	28560	
1605	0	28500	
1606	0	28394	
1607	0	28400	
1608	0	28336	
1609	0	28264	
1610	0	28220	
1611	0	28186	
1612	0	28160	
1613	0	28140	
1614	0	28116	
1615	0	28124	
1616	0	28184	
1617	0	28180	
1618	0	28168	
1619	0	28204	
1620	0	28208	
1621	0	28200	
1622	0	28208	
1623	0	28272	
1624	0	28312	
1625	0	28300	
1626	0	28344	
1627	0	28370	
1628	0	28384	
1629	0	28284	
1630	0	28316	
1631	0	28404	
1632	0	28396	
1633	0	28432	
1634	0	28560	
1635	0	28624	
1636	0	28672	
1637	0	28628	
1638	0	28612	
1639	0	28652	
1640	0	28748	
1641	0	28738	
1642	0	28712	
1643	0	28756	
1644	0	28808	
1645	0	28908	
1646	0	28952	
1647	0	29000	
1648	0	29088	
1649	0	29152	
1650	0	29232	
1651	0	29288	
1652	0	29384	
1653	0	29368	
1654	0	29336	
1655	0	29296	
1656	0	29324	
1657	0	29332	
1658	0	29368	
1659	0	29420	
1660	0	29512	
1661	0	29622	
1662	0	29648	
1663	0	29624	
1664	0	29584	
1665	0	29616	
1666	0	29720	
1667	0	29768	
1668	0	29784	
1669	0	29824	
1670	0	29892	
1671	0	29936	
1672	0	29940	
1673	0	29960	
1674	0	30004	
1675	0	30024	
1676	0	30140	
1677	0	30240	
1678	0	30236	
1679	0	30228	
1680	0	30152	
1681	0	30028	
1682	0	29984	
1683	0	30016	
1684	0	29960	
1685	0	30128	
1686	0	30320	
1687	0	30416	
1688	0	30440	
1689	0	30448	
1690	0	30460	
1691	0	30528	
1692	0	30576	
1693	0	30556	
1694	0	30592	
1695	0	30632	
1696	0	30720	
1697	0	30772	
1698	0	30804	
1699	0	30860	
1700	0	30940	
1701	0	30896	
1702	0	30804	
1703	0	30872	
1704	0	30940	
1705	0	30900	
1706	0	30864	
1707	0	30948	
1708	0	31004	
1709	0	31020	
1710	0	31056	
1711	0	31144	
1712	0	31202	
1713	0	31216	
1714	0	31220	
1715	0	31232	
1716	0	31168	
1717	0	31132	
1718	0	31060	
1719	0	31116	
1720	0	31144	
1721	0	31108	
1722	0	31188	
1723	0	31244	
1724	0	31272	
1725	0	31258	
1726	0	31252	
1727	0	31204	
1728	0	31194	
1729	0	31196	
1730	0	31252	
1731	0	31340	
1732	0	31388	
1733	0	31408	
1734	0	31428	
1735	0	31452	
1736	0	31438	
1737	0	31460	
1738	0	31468	
1739	0	31454	
1740	0	31496	
1741	0	31470	
1742	0	31436	
1743	0	31492	
1744	0	31588	
1745	0	31772	
1746	0	31820	
1747	0	31720	
1748	0	31536	
1749	0	31496	
1750	0	31544	
1751	0	31512	
1752	0	31420	
1753	0	31438	
1754	0	31464	
1755	0	31440	
1756	0	31512	
1757	0	31500	
1758	0	31472	
1759	0	31464	
1760	0	31500	
1761	0	31504	
1762	0	31504	
1763	0	31592	
1764	0	31648	
1765	0	31584	
1766	0	31560	
1767	0	31616	
1768	0	31668	
1769	0	31664	
1770	0	31616	
1771	0	31608	
1772	0	31612	
1773	0	31568	
1774	0	31564	
1775	0	31616	
1776	0	31636	
1777	0	31596	
1778	0	31556	
1779	0	31642	
1780	0	31684	
1781	0	31576	
1782	0	31578	
1783	0	31620	
1784	0	31584	
1785	0	31528	
1786	0	31448	
1787	0	31488	
1788	0	31544	
1789	0	31538	
1790	0	31456	
1791	0	31504	
1792	0	31492	
1793	0	31436	
1794	0	31412	
1795	0	31428	
1796	0	31448	
1797	0	31460	
1798	0	31528	
1799	0	31592	
1800	0	31644	
1801	0	31636	
1802	0	31660	
1803	0	31708	
1804	0	31720	
1805	0	31664	
1806	0	31748	
1807	0	31808	
1808	0	31792	
1809	0	31708	
1810	0	31688	
1811	0	31684	
1812	0	31660	
1813	0	31648	
1814	0	31604	
1815	0	31584	
1816	0	31580	
1817	0	31568	
1818	0	31568	
1819	0	31600	
1820	0	31600	
1821	0	31596	
1822	0	31672	
1823	0	31620	
1824	0	31552	
1825	0	31680	
1826	0	31692	
1827	0	31664	
1828	0	31680	
1829	0	31698	
1830	0	31748	
1831	0	31800	
1832	0	31752	
1833	0	31688	
1834	0	31688	
1835	0	31688	
1836	0	31688	
1837	0	31720	
1838	0	31754	
1839	0	31816	
1840	0	31868	
1841	0	31912	
1842	0	31932	
1843	0	31920	
1844	0	31888	
1845	0	31936	
1846	0	31992	
1847	0	32024	
1848	0	32064	
1849	0	32084	
1850	0	32040	
1851	0	32016	
1852	0	31960	
1853	0	31976	
1854	0	31968	
1855	0	31956	
1856	0	31968	
1857	0	31956	
1858	0	31900	
1859	0	31896	
1860	0	31952	
1861	0	31972	
1862	0	32000	
1863	0	32104	
1864	0	32168	
1865	0	32088	
1866	0	32124	
1867	0	32204	
1868	0	32220	
1869	0	32224	
1870	0	32244	
1871	0	32292	
1872	0	32290	
1873	0	32236	
1874	0	32200	
1875	0	32184	
1876	0	32202	
1877	0	32160	
1878	0	32048	
1879	0	31968	
1880	0	31956	
1881	0	31984	
1882	0	31980	
1883	0	32054	
1884	0	32122	
1885	0	32164	
1886	0	32228	
1887	0	32288	
1888	0	32336	
1889	0	32424	
1890	0	32536	
1891	0	32640	
1892	0	32712	
1893	0	32768	
1894	0	32796	
1895	0	32865	
1896	0	33004	
1897	0	33122	
1898	0	33168	
1899	0	33242	
1900	0	33296	
1901	0	33388	
1902	0	33426	
1903	0	33344	
1904	0	33308	
1905	0	33232	
1906	0	33120	
1907	0	33056	
1908	0	33020	
1909	0	33008	
1910	0	32960	
1911	0	33016	
1912	0	33040	
1913	0	33028	
1914	0	33088	
1915	0	33212	
1916	0	33380	
1917	0	33544	
1918	0	33820	
1919	0	34100	
1920	0	34384	
1921	0	34632	
1922	0	34864	
1923	0	35032	
1924	0	35156	
1925	0	35244	
1926	0	35316	
1927	0	35460	
1928	0	35568	
1929	0	35540	
1930	0	35436	
1931	0	35320	
1932	0	35168	
1933	0	35048	
1934	0	34964	
1935	0	34920	
1936	0	34804	
1937	0	34640	
1938	0	34464	
1939	0	34308	
1940	0	34208	
1941	0	34148	
1942	0	34112	
1943	0	34048	
1944	0	33984	
1945	0	33888	
1946	0	33760	
1947	0	33568	
1948	0	33436	
1949	0	33340	
1950	0	33248	
1951	0	33136	
1952	0	32994	
1953	0	32864	
1954	0	32776	
1955	0	32700	
1956	0	32608	
1957	0	32488	
1958	0	32392	
1959	0	32388	
1960	0	32400	
1961	0	32372	
1962	0	32304	
1963	0	32196	
1964	0	32080	
1965	0	31976	
1966	0	31880	
1967	0	31780	
1968	0	31640	
1969	0	31492	
1970	0	31364	
1971	0	31282	
1972	0	31252	
1973	0	31218	
1974	0	31224	
1975	0	31256	
1976	0	31238	
1977	0	31192	
1978	0	31164	
1979	0	31116	
1980	0	31132	
1981	0	31192	
1982	0	31248	
1983	0	31296	
1984	0	31328	
1985	0	31348	
1986	0	31348	
1987	0	31354	
1988	0	31384	
1989	0	31436	
1990	0	31424	
1991	0	31384	
1992	0	31392	
1993	0	31488	
1994	0	31524	
1995	0	31560	
1996	0	31624	
1997	0	31584	
1998	0	31488	
1999	0	31480	
2000	0	31476	
2001	0	31516	
2002	0	31552	
2003	0	31570	
2004	0	31556	
2005	0	31588	
2006	0	31652	
2007	0	31760	
2008	0	31832	
2009	0	31840	
2010	0	31840	
2011	0	31852	
2012	0	31844	
2013	0	31820	
2014	0	31824	
2015	0	31792	
2016	0	31696	
2017	0	31560	
2018	0	31304	
2019	0	30884	
2020	0	30362	
2021	0	29700	
2022	0	29056	
2023	0	28628	
2024	0	28372	
2025	0	28324	
2026	0	28458	
2027	0	28736	
2028	0	29196	
2029	0	29848	
2030	0	30700	
2031	0	31692	
2032	0	32836	
2033	0	34196	
2034	0	35680	
2035	0	37232	
2036	0	39038	
2037	0	41140	
2038	0	43488	
2039	0	46320	
2040	0	49432	
2041	0	52480	
2042	0	55424	
2043	0	58344	
2044	0	61216	
2045	0	63160	
2046	0	64200	
2047	0	64684	
2048	0	64892	
2049	0	64948	
2050	0	64916	
2051	0	64840	
2052	0	64748	
2053	0	64616	
2054	0	64504	
2055	0	59200	
2056	0	54564	
2057	0	50704	
2058	0	47392	
2059	0	44548	
2060	0	42172	
2061	0	40040	
2062	0	38064	
2063	0	36276	
2064	0	34604	
2065	0	33080	
2066	0	31748	
2067	0	30624	
2068	0	29648	
2069	0	28908	
2070	0	28404	
2071	0	27968	
2072	0	27712	
2073	0	27600	
2074	0	27472	
2075	0	27276	
2076	0	27100	
2077	0	26996	
2078	0	26980	
2079	0	27074	
2080	0	27268	
2081	0	27520	
2082	0	27812	
2083	0	28120	
2084	0	28358	
2085	0	28600	
2086	0	28794	
2087	0	28920	
2088	0	28980	
2089	0	29004	
2090	0	28976	
2091	0	28956	
2092	0	28908	
2093	0	28862	
2094	0	28804	
2095	0	28784	
2096	0	28812	
2097	0	28808	
2098	0	28828	
2099	0	28864	
2100	0	28908	
2101	0	28992	
2102	0	29040	
2103	0	29054	
2104	0	29032	
2105	0	29016	
2106	0	29032	
2107	0	29088	
2108	0	29122	
2109	0	29144	
2110	0	29152	
2111	0	29120	
2112	0	29088	
2113	0	29089	
2114	0	29136	
2115	0	29200	
2116	0	29272	
2117	0	29360	
2118	0	29416	
2119	0	29448	
2120	0	29498	
2121	0	29556	
2122	0	29632	
2123	0	29712	
2124	0	29816	
2125	0	29880	
2126	0	29984	
2127	0	30076	
2128	0	30120	
2129	0	30160	
2130	0	30168	
2131	0	30188	
2132	0	30242	
2133	0	30280	
2134	0	30312	
2135	0	30368	
2136	0	30388	
2137	0	30388	
2138	0	30412	
2139	0	30388	
2140	0	30396	
2141	0	30412	
2142	0	30488	
2143	0	30576	
2144	0	30640	
2145	0	30668	
2146	0	30688	
2147	0	30762	
2148	0	30840	
2149	0	30916	
2150	0	30972	
2151	0	31000	
2152	0	31000	
2153	0	30960	
2154	0	30952	
2155	0	30976	
2156	0	30976	
2157	0	30984	
2158	0	31024	
2159	0	31086	
2160	0	31168	
2161	0	31216	
2162	0	31234	
2163	0	31312	
2164	0	31372	
2165	0	31448	
2166	0	31540	
2167	0	31610	
2168	0	31700	
2169	0	31732	
2170	0	31736	
2171	0	31776	
2172	0	31816	
2173	0	31848	
2174	0	31850	
2175	0	31844	
2176	0	31886	
2177	0	31888	
2178	0	31892	
2179	0	31914	
2180	0	31960	
2181	0	31996	
2182	0	32048	
2183	0	32152	
2184	0	32212	
2185	0	32204	
2186	0	32296	
2187	0	32428	
2188	0	32496	
2189	0	32548	
2190	0	32556	
2191	0	32560	
2192	0	32528	
2193	0	32516	
2194	0	32568	
2195	0	32640	
2196	0	32692	
2197	0	32714	
2198	0	32824	
2199	0	32936	
2200	0	33060	
2201	0	33136	
2202	0	33152	
2203	0	33188	
2204	0	33264	
2205	0	33368	
2206	0	33456	
2207	0	33568	
2208	0	33664	
2209	0	33760	
2210	0	33828	
2211	0	33892	
2212	0	33972	
2213	0	34064	
2214	0	34104	
2215	0	34132	
2216	0	34176	
2217	0	34212	
2218	0	34288	
2219	0	34352	
2220	0	34408	
2221	0	34456	
2222	0	34540	
2223	0	34664	
2224	0	34784	
2225	0	34880	
2226	0	34956	
2227	0	35034	
2228	0	35160	
2229	0	35296	
2230	0	35400	
2231	0	35500	
2232	0	35632	
2233	0	35744	
2234	0	35832	
2235	0	35904	
2236	0	35932	
2237	0	35956	
2238	0	36020	
2239	0	36112	
2240	0	36212	
2241	0	36336	
2242	0	36464	
2243	0	36592	
2244	0	36712	
2245	0	36840	
2246	0	36968	
2247	0	37048	
2248	0	37184	
2249	0	37268	
2250	0	37372	
2251	0	37460	
2252	0	37552	
2253	0	37622	
2254	0	37692	
2255	0	37752	
2256	0	37800	
2257	0	37856	
2258	0	37872	
2259	0	37884	
2260	0	37920	
2261	0	37936	
2262	0	37970	
2263	0	38036	
2264	0	38050	
2265	0	38096	
2266	0	38068	
2267	0	37976	
2268	0	37964	
2269	0	37996	
2270	0	37964	
2271	0	37924	
2272	0	37944	
2273	0	38016	
2274	0	38060	
2275	0	38080	
2276	0	38056	
2277	0	38048	
2278	0	38016	
2279	0	37968	
2280	0	37928	
2281	0	37888	
2282	0	37828	
2283	0	37764	
2284	0	37712	
2285	0	37728	
2286	0	37696	
2287	0	37644	
2288	0	37552	
2289	0	37480	
2290	0	37416	
2291	0	37304	
2292	0	37192	
2293	0	37044	
2294	0	36812	
2295	0	36612	
2296	0	36392	
2297	0	36180	
2298	0	35992	
2299	0	35724	
2300	0	35452	
2301	0	35232	
2302	0	35084	
2303	0	34952	
2304	0	34764	
2305	0	34576	
2306	0	34368	
2307	0	34148	
2308	0	33940	
2309	0	33712	
2310	0	33488	
2311	0	33268	
2312	0	33048	
2313	0	32836	
2314	0	32604	
2315	0	32396	
2316	0	32184	
2317	0	31972	
2318	0	31784	
2319	0	31580	
2320	0	31432	
2321	0	31296	
2322	0	31096	
2323	0	30932	
2324	0	30784	
2325	0	30626	
2326	0	30516	
2327	0	30370	
2328	0	30220	
2329	0	30040	
2330	0	29848	
2331	0	29712	
2332	0	29568	
2333	0	29444	
2334	0	29356	
2335	0	29270	
2336	0	29172	
2337	0	29096	
2338	0	28976	
2339	0	28874	
2340	0	28825	
2341	0	28744	
2342	0	28680	
2343	0	28664	
2344	0	28668	
2345	0	28604	
2346	0	28490	
2347	0	28420	
2348	0	28420	
2349	0	28448	
2350	0	28488	
2351	0	28508	
2352	0	28528	
2353	0	28500	
2354	0	28484	
2355	0	28452	
2356	0	28416	
2357	0	28408	
2358	0	28380	
2359	0	28368	
2360	0	28344	
2361	0	28336	
2362	0	28368	
2363	0	28412	
2364	0	28460	
2365	0	28516	
2366	0	28528	
2367	0	28536	
2368	0	28576	
2369	0	28652	
2370	0	28728	
2371	0	28764	
2372	0	28776	
2373	0	28752	
2374	0	28744	
2375	0	28784	
2376	0	28768	
2377	0	28712	
2378	0	28768	
2379	0	28832	
2380	0	28852	
2381	0	28860	
2382	0	28896	
2383	0	28904	
2384	0	28948	
2385	0	29056	
2386	0	29172	
2387	0	29280	
2388	0	29320	
2389	0	29360	
2390	0	29436	
2391	0	29500	
2392	0	29504	
2393	0	29440	
2394	0	29444	
2395	0	29480	
2396	0	29520	
2397	0	29536	
2398	0	29552	
2399	0	29588	
2400	0	29688	
2401	0	29736	
2402	0	29780	
2403	0	29840	
2404	0	29896	
2405	0	29904	
2406	0	29896	
2407	0	29952	
2408	0	30020	
2409	0	30068	
2410	0	30040	
2411	0	30002	
2412	0	30032	
2413	0	30120	
2414	0	30212	
2415	0	30316	
2416	0	30402	
2417	0	30444	
2418	0	30464	
2419	0	30448	
2420	0	30496	
2421	0	30528	
2422	0	30600	
2423	0	30700	
2424	0	30768	
2425	0	30844	
2426	0	30904	
2427	0	30952	
2428	0	30976	
2429	0	30980	
2430	0	30984	
2431	0	30984	
2432	0	30916	
2433	0	30836	
2434	0	30800	
2435	0	30796	
2436	0	30764	
2437	0	30736	
2438	0	30768	
2439	0	30814	
2440	0	30838	
2441	0	30888	
2442	0	30972	
2443	0	31088	
2444	0	31164	
2445	0	31212	
2446	0	31220	
2447	0	31232	
2448	0	31212	
2449	0	31224	
2450	0	31256	
2451	0	31256	
2452	0	31256	
2453	0	31260	
2454	0	31240	
2455	0	31200	
2456	0	31142	
2457	0	31192	
2458	0	31272	
2459	0	31380	
2460	0	31496	
2461	0	31532	
2462	0	31556	
2463	0	31574	
2464	0	31646	
2465	0	31732	
2466	0	31856	
2467	0	31888	
2468	0	31864	
2469	0	31876	
2470	0	31904	
2471	0	31908	
2472	0	31872	
2473	0	31848	
2474	0	31832	
2475	0	31848	
2476	0	31860	
2477	0	31900	
2478	0	31948	
2479	0	31968	
2480	0	31996	
2481	0	31962	
2482	0	31936	
2483	0	31856	
2484	0	31860	
2485	0	31836	
2486	0	31784	
2487	0	31748	
2488	0	31752	
2489	0	31828	
2490	0	31848	
2491	0	31864	
2492	0	31876	
2493	0	31866	
2494	0	31852	
2495	0	31836	
2496	0	31852	
2497	0	31880	
2498	0	31888	
2499	0	31872	
2500	0	31840	
2501	0	31828	
2502	0	31800	
2503	0	31756	
2504	0	31740	
2505	0	31724	
2506	0	31732	
2507	0	31736	
2508	0	31728	
2509	0	31712	
2510	0	31712	
2511	0	31660	
2512	0	31664	
2513	0	31688	
2514	0	31692	
2515	0	31704	
2516	0	31656	
2517	0	31636	
2518	0	31620	
2519	0	31556	
2520	0	31584	
2521	0	31640	
2522	0	31672	
2523	0	31688	
2524	0	31756	
2525	0	31868	
2526	0	31984	
2527	0	32096	
2528	0	32200	
2529	0	32244	
2530	0	32224	
2531	0	32100	
2532	0	31992	
2533	0	31916	
2534	0	31880	
2535	0	31880	
2536	0	31880	
2537	0	31856	
2538	0	31844	
2539	0	31808	
2540	0	31796	
2541	0	31808	
2542	0	31836	
2543	0	31876	
2544	0	31856	
2545	0	31848	
2546	0	31832	
2547	0	31884	
2548	0	31916	
2549	0	31892	
2550	0	31852	
2551	0	31840	
2552	0	31880	
2553	0	31892	
2554	0	31874	
2555	0	31872	
2556	0	31888	
2557	0	31940	
2558	0	31976	
2559	0	31952	
2560	0	31976	
2561	0	32016	
2562	0	31988	
2563	0	32036	
2564	0	32090	
2565	0	32098	
2566	0	32088	
2567	0	32036	
2568	0	32008	
2569	0	32040	
2570	0	32052	
2571	0	32080	
2572	0	32104	
2573	0	32136	
2574	0	32148	
2575	0	32140	
2576	0	32088	
2577	0	32052	
2578	0	32020	
2579	0	31964	
2580	0	31936	
2581	0	31970	
2582	0	32016	
2583	0	32096	
2584	0	32180	
2585	0	32256	
2586	0	32268	
2587	0	32236	
2588	0	32232	
2589	0	32226	
2590	0	32256	
2591	0	32308	
2592	0	32288	
2593	0	32244	
2594	0	32234	
2595	0	32244	
2596	0	32192	
2597	0	32136	
2598	0	32132	
2599	0	32152	
2600	0	32196	
2601	0	32300	
2602	0	32432	
2603	0	32548	
2604	0	32632	
2605	0	32736	
2606	0	32836	
2607	0	32992	
2608	0	33096	
2609	0	33224	
2610	0	33344	
2611	0	33412	
2612	0	33436	
2613	0	33376	
2614	0	33404	
2615	0	33440	
2616	0	33392	
2617	0	33264	
2618	0	33184	
2619	0	33160	
2620	0	33148	
2621	0	33156	
2622	0	33192	
2623	0	33248	
2624	0	33304	
2625	0	33304	
2626	0	33328	
2627	0	33376	
2628	0	33496	
2629	0	33660	
2630	0	33876	
2631	0	34132	
2632	0	34372	
2633	0	34536	
2634	0	34698	
2635	0	34880	
2636	0	35064	
2637	0	35284	
2638	0	35456	
2639	0	35624	
2640	0	35712	
2641	0	35744	
2642	0	35760	
2643	0	35744	
2644	0	35696	
2645	0	35544	
2646	0	35408	
2647	0	35336	
2648	0	35216	
2649	0	35036	
2650	0	34864	
2651	0	34716	
2652	0	34616	
2653	0	34464	
2654	0	34324	
2655	0	34208	
2656	0	34080	
2657	0	33932	
2658	0	33776	
2659	0	33608	
2660	0	33530	
2661	0	33544	
2662	0	33548	
2663	0	33416	
2664	0	33264	
2665	0	33188	
2666	0	33156	
2667	0	33184	
2668	0	33108	
2669	0	32996	
2670	0	32880	
2671	0	32768	
2672	0	32657	
2673	0	32548	
2674	0	32432	
2675	0	32344	
2676	0	32240	
2677	0	32132	
2678	0	32036	
2679	0	31860	
2680	0	31656	
2681	0	31520	
2682	0	31460	
2683	0	31432	
2684	0	31424	
2685	0	31396	
2686	0	31360	
2687	0	31356	
2688	0	31364	
2689	0	31336	
2690	0	31300	
2691	0	31296	
2692	0	31232	
2693	0	31200	
2694	0	31220	
2695	0	31224	
2696	0	31240	
2697	0	31280	
2698	0	31356	
2699	0	31436	
2700	0	31490	
2701	0	31456	
2702	0	31424	
2703	0	31428	
2704	0	31472	
2705	0	31516	
2706	0	31590	
2707	0	31680	
2708	0	31784	
2709	0	31872	
2710	0	31928	
2711	0	31904	
2712	0	31862	
2713	0	31816	
2714	0	31804	
2715	0	31820	
2716	0	31872	
2717	0	31904	
2718	0	31952	
2719	0	32012	
2720	0	32032	
2721	0	32052	
2722	0	32056	
2723	0	32016	
2724	0	31940	
2725	0	31900	
2726	0	31844	
2727	0	31792	
2728	0	31740	
2729	0	31660	
2730	0	31508	
2731	0	31272	
2732	0	30902	
2733	0	30380	
2734	0	29740	
2735	0	29248	
2736	0	28916	
2737	0	28740	
2738	0	28704	
2739	0	28804	
2740	0	29104	
2741	0	29656	
2742	0	30472	
2743	0	31528	
2744	0	32624	
2745	0	33830	
2746	0	35168	
2747	0	36636	
2748	0	38212	
2749	0	40066	
2750	0	42248	
2751	0	44864	
2752	0	47704	
2753	0	50656	
2754	0	53608	
2755	0	56416	
2756	0	59228	
2757	0	61896	
2758	0	63480	
2759	0	64292	
2760	0	64672	
2761	0	64820	
2762	0	64852	
2763	0	64788	
2764	0	64700	
2765	0	64132	
2766	0	58840	
2767	0	53808	
2768	0	49056	
2769	0	45044	
2770	0	41784	
2771	0	39168	
2772	0	37164	
2773	0	35504	
2774	0	34008	
2775	0	32610	
2776	0	31308	
2777	0	30024	
2778	0	28696	
2779	0	27548	
2780	0	26592	
2781	0	25940	
2782	0	25610	
2783	0	25478	
2784	0	25512	
2785	0	25680	
2786	0	25792	
2787	0	25848	
2788	0	25922	
2789	0	26010	
2790	0	26160	
2791	0	26410	
2792	0	26720	
2793	0	27056	
2794	0	27436	
2795	0	27716	
2796	0	27946	
2797	0	28226	
2798	0	28504	
2799	0	28712	
2800	0	28932	
2801	0	29108	
2802	0	29244	
2803	0	29396	
2804	0	29548	
2805	0	29668	
2806	0	29748	
2807	0	29794	
2808	0	29800	
2809	0	29768	
2810	0	29784	
2811	0	29880	
2812	0	29952	
2813	0	29976	
2814	0	29928	
2815	0	29908	
2816	0	29972	
2817	0	30034	
2818	0	30108	
2819	0	30176	
2820	0	30228	
2821	0	30312	
2822	0	30336	
2823	0	30348	
2824	0	30392	
2825	0	30408	
2826	0	30416	
2827	0	30420	
2828	0	30440	
2829	0	30488	
2830	0	30544	
2831	0	30612	
2832	0	30680	
2833	0	30684	
2834	0	30680	
2835	0	30704	
2836	0	30728	
2837	0	30784	
2838	0	30816	
2839	0	30856	
2840	0	30884	
2841	0	30996	
2842	0	31136	
2843	0	31232	
2844	0	31328	
2845	0	31432	
2846	0	31520	
2847	0	31556	
2848	0	31584	
2849	0	31588	
2850	0	31532	
2851	0	31498	
2852	0	31504	
2853	0	31516	
2854	0	31544	
2855	0	31568	
2856	0	31644	
2857	0	31756	
2858	0	31848	
2859	0	31912	
2860	0	31924	
2861	0	31932	
2862	0	31912	
2863	0	31888	
2864	0	31900	
2865	0	31972	
2866	0	32096	
2867	0	32272	
2868	0	32372	
2869	0	32432	
2870	0	32472	
2871	0	32504	
2872	0	32528	
2873	0	32584	
2874	0	32660	
2875	0	32696	
2876	0	32672	
2877	0	32684	
2878	0	32666	
2879	0	32680	
2880	0	32704	
2881	0	32736	
2882	0	32714	
2883	0	32704	
2884	0	32716	
2885	0	32720	
2886	0	32764	
2887	0	32824	
2888	0	32868	
2889	0	32908	
2890	0	32992	
2891	0	33072	
2892	0	33096	
2893	0	33100	
2894	0	33076	
2895	0	33072	
2896	0	33188	
2897	0	33376	
2898	0	33556	
2899	0	33656	
2900	0	33704	
2901	0	33792	
2902	0	33860	
2903	0	33952	
2904	0	34000	
2905	0	34100	
2906	0	34200	
2907	0	34264	
2908	0	34376	
2909	0	34488	
2910	0	34544	
2911	0	34528	
2912	0	34544	
2913	0	34540	
2914	0	34488	
2915	0	34498	
2916	0	34524	
2917	0	34656	
2918	0	34752	
2919	0	34784	
2920	0	34842	
2921	0	34848	
2922	0	34848	
2923	0	34828	
2924	0	34912	
2925	0	35030	
2926	0	35112	
2927	0	35252	
2928	0	35300	
2929	0	35288	
2930	0	35396	
2931	0	35524	
2932	0	35672	
2933	0	35856	
2934	0	35834	
2935	0	35840	
2936	0	36028	
2937	0	36084	
2938	0	36112	
2939	0	36200	
2940	0	36280	
2941	0	36400	
2942	0	36544	
2943	0	36644	
2944	0	36746	
2945	0	36824	
2946	0	36874	
2947	0	36940	
2948	0	37056	
2949	0	37164	
2950	0	37292	
2951	0	37472	
2952	0	37640	
2953	0	37768	
2954	0	37852	
2955	0	37888	
2956	0	37944	
2957	0	37972	
2958	0	37976	
2959	0	37928	
2960	0	37848	
2961	0	37704	
2962	0	37656	
2963	0	37708	
2964	0	37784	
2965	0	37952	
2966	0	38156	
2967	0	38316	
2968	0	38496	
2969	0	38608	
2970	0	38722	
2971	0	38832	
2972	0	38888	
2973	0	38896	
2974	0	38816	
2975	0	38696	
2976	0	38656	
2977	0	38616	
2978	0	38600	
2979	0	38592	
2980	0	38632	
2981	0	38692	
2982	0	38744	
2983	0	38792	
2984	0	38768	
2985	0	38800	
2986	0	38836	
2987	0	38856	
2988	0	38800	
2989	0	38716	
2990	0	38624	
2991	0	38552	
2992	0	38424	
2993	0	38312	
2994	0	38184	
2995	0	38128	
2996	0	37996	
2997	0	37854	
2998	0	37736	
2999	0	37676	
3000	0	37652	
3001	0	37604	
3002	0	37544	
3003	0	37540	
3004	0	37464	
3005	0	37304	
3006	0	37152	
3007	0	37044	
3008	0	36936	
3009	0	36800	
3010	0	36632	
3011	0	36396	
3012	0	36072	
3013	0	35756	
3014	0	35512	
3015	0	35284	
3016	0	35000	
3017	0	34738	
3018	0	34524	
3019	0	34304	
3020	0	34064	
3021	0	33788	
3022	0	33572	
3023	0	33378	
3024	0	33184	
3025	0	33028	
3026	0	32872	
3027	0	32704	
3028	0	32520	
3029	0	32364	
3030	0	32248	
3031	0	32154	
3032	0	31992	
3033	0	31716	
3034	0	31472	
3035	0	31312	
3036	0	31128	
3037	0	30936	
3038	0	30812	
3039	0	30668	
3040	0	30468	
3041	0	30252	
3042	0	30080	
3043	0	29884	
3044	0	29688	
3045	0	29568	
3046	0	29472	
3047	0	29452	
3048	0	29496	
3049	0	29528	
3050	0	29524	
3051	0	29452	
3052	0	29384	
3053	0	29308	
3054	0	29196	
3055	0	29116	
3056	0	29028	
3057	0	28976	
3058	0	28920	
3059	0	28828	
3060	0	28788	
3061	0	28720	
3062	0	28754	
3063	0	28728	
3064	0	28712	
3065	0	28700	
3066	0	28584	
3067	0	28488	
3068	0	28410	
3069	0	28452	
3070	0	28496	
3071	0	28484	
3072	0	28424	
3073	0	28340	
3074	0	28300	
3075	0	28348	
3076	0	28480	
3077	0	28540	
3078	0	28560	
3079	0	28552	
3080	0	28576	
3081	0	28572	
3082	0	28584	
3083	0	28532	
3084	0	28484	
3085	0	28468	
3086	0	28488	
3087	0	28604	
3088	0	28624	
3089	0	28616	
3090	0	28680	
3091	0	28744	
3092	0	28784	
3093	0	28800	
3094	0	28804	
3095	0	28872	
3096	0	28968	
3097	0	28922	
3098	0	28924	
3099	0	29036	
3100	0	29104	
3101	0	29162	
3102	0	29178	
3103	0	29160	
3104	0	29184	
3105	0	29252	
3106	0	29312	
3107	0	29332	
3108	0	29392	
3109	0	29344	
3110	0	29304	
3111	0	29422	
3112	0	29464	
3113	0	29472	
3114	0	29416	
3115	0	29472	
3116	0	29580	
3117	0	29596	
3118	0	29600	
3119	0	29660	
3120	0	29720	
3121	0	29800	
3122	0	29920	
3123	0	30004	
3124	0	30048	
3125	0	30068	
3126	0	30140	
3127	0	30218	
3128	0	30280	
3129	0	30288	
3130	0	30268	
3131	0	30312	
3132	0	30368	
3133	0	30408	
3134	0	30448	
3135	0	30460	
3136	0	30498	
3137	0	30586	
3138	0	30652	
3139	0	30668	
3140	0	30664	
3141	0	30704	
3142	0	30708	
3143	0	30760	
3144	0	30818	
3145	0	30892	
3146	0	30924	
3147	0	30980	
3148	0	30992	
3149	0	30880	
3150	0	30860	
3151	0	30824	
3152	0	30852	
3153	0	30948	
3154	0	31060	
3155	0	31096	
3156	0	31102	
3157	0	31116	
3158	0	31126	
3159	0	31172	
3160	0	31160	
3161	0	31212	
3162	0	31328	
3163	0	31428	
3164	0	31490	
3165	0	31528	
3166	0	31492	
3167	0	31530	
3168	0	31564	
3169	0	31528	
3170	0	31480	
3171	0	31528	
3172	0	31584	
3173	0	31552	
3174	0	31440	
3175	0	31444	
3176	0	31556	
3177	0	31648	
3178	0	31680	
3179	0	31708	
3180	0	31664	
3181	0	31584	
3182	0	31544	
3183	0	31656	
3184	0	31816	
3185	0	31936	
3186	0	32112	
3187	0	32304	
3188	0	32308	
3189	0	32208	
3190	0	32192	
3191	0	32248	
3192	0	32288	
3193	0	32256	
3194	0	32172	
3195	0	32072	
3196	0	31960	
3197	0	31812	
3198	0	31680	
3199	0	31664	
3200	0	31636	
3201	0	31628	
3202	0	31636	
3203	0	31700	
3204	0	31824	
3205	0	31968	
3206	0	32028	
3207	0	32044	
3208	0	31996	
3209	0	31900	
3210	0	31840	
3211	0	31796	
3212	0	31786	
3213	0	31792	
3214	0	31764	
3215	0	31780	
3216	0	31820	
3217	0	31868	
3218	0	31866	
3219	0	31824	
3220	0	31764	
3221	0	31740	
3222	0	31764	
3223	0	31740	
3224	0	31738	
3225	0	31744	
3226	0	31792	
3227	0	31880	
3228	0	31988	
3229	0	32016	
3230	0	32004	
3231	0	31972	
3232	0	31924	
3233	0	31844	
3234	0	31776	
3235	0	31728	
3236	0	31692	
3237	0	31664	
3238	0	31664	
3239	0	31632	
3240	0	31668	
3241	0	31680	
3242	0	31696	
3243	0	31688	
3244	0	31648	
3245	0	31644	
3246	0	31608	
3247	0	31648	
3248	0	31712	
3249	0	31730	
3250	0	31668	
3251	0	31584	
3252	0	31596	
3253	0	31616	
3254	0	31576	
3255	0	31460	
3256	0	31420	
3257	0	31504	
3258	0	31612	
3259	0	31664	
3260	0	31724	
3261	0	31784	
3262	0	31868	
3263	0	31992	
3264	0	32068	
3265	0	32080	
3266	0	32156	
3267	0	32280	
3268	0	32348	
3269	0	32376	
3270	0	32340	
3271	0	32310	
3272	0	32408	
3273	0	32560	
3274	0	32624	
3275	0	32640	
3276	0	32680	
3277	0	32756	
3278	0	32836	
3279	0	32896	
3280	0	32888	
3281	0	32874	
3282	0	32824	
3283	0	32760	
3284	0	32828	
3285	0	32920	
3286	0	32956	
3287	0	32908	
3288	0	32880	
3289	0	32924	
3290	0	32948	
3291	0	33024	
3292	0	33144	
3293	0	33340	
3294	0	33528	
3295	0	33680	
3296	0	33844	
3297	0	34012	
3298	0	34144	
3299	0	34312	
3300	0	34496	
3301	0	34636	
3302	0	34732	
3303	0	34864	
3304	0	34992	
3305	0	35112	
3306	0	35144	
3307	0	35136	
3308	0	35136	
3309	0	35060	
3310	0	34924	
3311	0	34796	
3312	0	34688	
3313	0	34592	
3314	0	34432	
3315	0	34272	
3316	0	34112	
3317	0	33952	
3318	0	33782	
3319	0	33668	
3320	0	33584	
3321	0	33432	
3322	0	33252	
3323	0	33116	
3324	0	32948	
3325	0	32878	
3326	0	32904	
3327	0	32936	
3328	0	32922	
3329	0	32808	
3330	0	32632	
3331	0	32448	
3332	0	32252	
3333	0	32146	
3334	0	32056	
3335	0	31928	
3336	0	31832	
3337	0	31778	
3338	0	31776	
3339	0	31756	
3340	0	31716	
3341	0	31652	
3342	0	31592	
3343	0	31552	
3344	0	31612	
3345	0	31528	
3346	0	31360	
3347	0	31252	
3348	0	31234	
3349	0	31272	
3350	0	31264	
3351	0	31200	
3352	0	31144	
3353	0	31064	
3354	0	30996	
3355	0	30892	
3356	0	30820	
3357	0	30784	
3358	0	30776	
3359	0	30784	
3360	0	30872	
3361	0	31008	
3362	0	31040	
3363	0	31086	
3364	0	31132	
3365	0	31120	
3366	0	31172	
3367	0	31160	
3368	0	31160	
3369	0	31108	
3370	0	31120	
3371	0	31208	
3372	0	31360	
3373	0	31370	
3374	0	31360	
3375	0	31340	
3376	0	31320	
3377	0	31380	
3378	0	31440	
3379	0	31406	
3380	0	31362	
3381	0	31344	
3382	0	31328	
3383	0	31328	
3384	0	31296	
3385	0	31334	
3386	0	31364	
3387	0	31392	
3388	0	31444	
3389	0	31456	
3390	0	31496	
3391	0	31520	
3392	0	31514	
3393	0	31468	
3394	0	31392	
3395	0	31296	
3396	0	31196	
3397	0	31064	
3398	0	30768	
3399	0	30276	
3400	0	29680	
3401	0	29164	
3402	0	28808	
3403	0	28632	
3404	0	28628	
3405	0	28680	
3406	0	28928	
3407	0	29376	
3408	0	30074	
3409	0	31006	
3410	0	32056	
3411	0	33160	
3412	0	34368	
3413	0	35640	
3414	0	37060	
3415	0	38732	
3416	0	40668	
3417	0	43032	
3418	0	45800	
3419	0	48736	
3420	0	51688	
3421	0	54572	
3422	0	57328	
3423	0	60064	
3424	0	62296	
3425	0	63528	
3426	0	64120	
3427	0	64392	
3428	0	64472	
3429	0	64440	
3430	0	64404	
3431	0	64176	
3432	0	58756	
3433	0	53528	
3434	0	48384	
3435	0	43752	
3436	0	39884	
3437	0	36832	
3438	0	34496	
3439	0	32788	
3440	0	31488	
3441	0	30420	
3442	0	29480	
3443	0	28588	
3444	0	27616	
3445	0	26674	
3446	0	25816	
3447	0	25168	
3448	0	24784	
3449	0	24630	
3450	0	24560	
3451	0	24656	
3452	0	24776	
3453	0	24832	
3454	0	24856	
3455	0	24888	
3456	0	25018	
3457	0	25280	
3458	0	25604	
3459	0	25938	
3460	0	26292	
3461	0	26668	
3462	0	26992	
3463	0	27328	
3464	0	27684	
3465	0	28068	
3466	0	28420	
3467	0	28668	
3468	0	28882	
3469	0	29112	
3470	0	29316	
3471	0	29440	
3472	0	29528	
3473	0	29568	
3474	0	29588	
3475	0	29620	
3476	0	29632	
3477	0	29616	
3478	0	29600	
3479	0	29612	
3480	0	29640	
3481	0	29684	
3482	0	29768	
3483	0	29760	
3484	0	29712	
3485	0	29684	
3486	0	29724	
3487	0	29722	
3488	0	29724	
3489	0	29794	
3490	0	29896	
3491	0	29876	
3492	0	29872	
3493	0	29912	
3494	0	29936	
3495	0	30004	
3496	0	30072	
3497	0	30128	
3498	0	30164	
3499	0	30200	
3500	0	30232	
3501	0	30242	
3502	0	30256	
3503	0	30360	
3504	0	30508	
3505	0	30594	
3506	0	30592	
3507	0	30648	
3508	0	30712	
3509	0	30816	
3510	0	30888	
3511	0	30904	
3512	0	30920	
3513	0	30946	
3514	0	30976	
3515	0	31012	
3516	0	31048	
3517	0	31036	
3518	0	30996	
3519	0	31048	
3520	0	31152	
3521	0	31244	
3522	0	31284	
3523	0	31284	
3524	0	31260	
3525	0	31296	
3526	0	31416	
3527	0	31520	
3528	0	31572	
3529	0	31688	
3530	0	31820	
3531	0	31872	
3532	0	31888	
3533	0	31932	
3534	0	31996	
3535	0	32058	
3536	0	32082	
3537	0	32042	
3538	0	32004	
3539	0	32024	
3540	0	32064	
3541	0	32080	
3542	0	32120	
3543	0	32192	
3544	0	32296	
3545	0	32372	
3546	0	32424	
3547	0	32480	
3548	0	32496	
3549	0	32460	
3550	0	32416	
3551	0	32472	
3552	0	32524	
3553	0	32584	
3554	0	32652	
3555	0	32640	
3556	0	32596	
3557	0	32608	
3558	0	32688	
3559	0	32752	
3560	0	32832	
3561	0	32900	
3562	0	32984	
3563	0	33092	
3564	0	33248	
3565	0	33364	
3566	0	33406	
3567	0	33424	
3568	0	33464	
3569	0	33500	
3570	0	33568	
3571	0	33592	
3572	0	33578	
3573	0	33600	
3574	0	33668	
3575	0	33692	
3576	0	33688	
3577	0	33716	
3578	0	33732	
3579	0	33800	
3580	0	33896	
3581	0	34008	
3582	0	34130	
3583	0	34200	
3584	0	34264	
3585	0	34368	
3586	0	34516	
3587	0	34624	
3588	0	34724	
3589	0	34756	
3590	0	34784	
3591	0	34842	
3592	0	34904	
3593	0	34940	
3594	0	34948	
3595	0	35000	
3596	0	35130	
3597	0	35224	
3598	0	35288	
3599	0	35332	
3600	0	35408	
3601	0	35516	
3602	0	35632	
3603	0	35728	
3604	0	35792	
3605	0	35984	
3606	0	36176	
3607	0	36304	
3608	0	36312	
3609	0	36344	
3610	0	36430	
3611	0	36552	
3612	0	36640	
3613	0	36756	
3614	0	36868	
3615	0	36928	
3616	0	36988	
3617	0	37080	
3618	0	37168	
3619	0	37272	
3620	0	37392	
3621	0	37528	
3622	0	37620	
3623	0	37716	
3624	0	37816	
3625	0	37864	
3626	0	37940	
3627	0	38056	
3628	0	38176	
3629	0	38248	
3630	0	38256	
3631	0	38268	
3632	0	38256	
3633	0	38280	
3634	0	38324	
3635	0	38368	
3636	0	38412	
3637	0	38420	
3638	0	38496	
3639	0	38556	
3640	0	38568	
3641	0	38592	
3642	0	38580	
3643	0	38540	
3644	0	38544	
3645	0	38564	
3646	0	38568	
3647	0	38560	
3648	0	38592	
3649	0	38594	
3650	0	38604	
3651	0	38560	
3652	0	38468	
3653	0	38344	
3654	0	38204	
3655	0	38104	
3656	0	38060	
3657	0	38052	
3658	0	38056	
3659	0	38040	
3660	0	37988	
3661	0	37936	
3662	0	37872	
3663	0	37856	
3664	0	37800	
3665	0	37756	
3666	0	37696	
3667	0	37628	
3668	0	37504	
3669	0	37328	
3670	0	37144	
3671	0	36920	
3672	0	36688	
3673	0	36416	
3674	0	36136	
3675	0	35912	
3676	0	35744	
3677	0	35500	
3678	0	35194	
3679	0	34912	
3680	0	34648	
3681	0	34432	
3682	0	34266	
3683	0	34080	
3684	0	33912	
3685	0	33724	
3686	0	33584	
3687	0	33440	
3688	0	33268	
3689	0	33100	
3690	0	32936	
3691	0	32736	
3692	0	32504	
3693	0	32290	
3694	0	32052	
3695	0	31764	
3696	0	31548	
3697	0	31392	
3698	0	31224	
3699	0	31008	
3700	0	30776	
3701	0	30556	
3702	0	30340	
3703	0	30116	
3704	0	29980	
3705	0	29840	
3706	0	29700	
3707	0	29632	
3708	0	29530	
3709	0	29464	
3710	0	29376	
3711	0	29256	
3712	0	29093	
3713	0	28928	
3714	0	28788	
3715	0	28744	
3716	0	28744	
3717	0	28728	
3718	0	28640	
3719	0	28568	
3720	0	28552	
3721	0	28562	
3722	0	28572	
3723	0	28568	
3724	0	28576	
3725	0	28540	
3726	0	28536	
3727	0	28532	
3728	0	28476	
3729	0	28444	
3730	0	28428	
3731	0	28428	
3732	0	28468	
3733	0	28512	
3734	0	28480	
3735	0	28388	
3736	0	28304	
3737	0	28242	
3738	0	28212	
3739	0	28224	
3740	0	28280	
3741	0	28344	
3742	0	28388	
3743	0	28372	
3744	0	28432	
3745	0	28444	
3746	0	28438	
3747	0	28424	
3748	0	28416	
3749	0	28432	
3750	0	28450	
3751	0	28448	
3752	0	28440	
3753	0	28460	
3754	0	28520	
3755	0	28644	
3756	0	28756	
3757	0	28800	
3758	0	28836	
3759	0	28856	
3760	0	28844	
3761	0	28816	
3762	0	28836	
3763	0	28856	
3764	0	28884	
3765	0	28928	
3766	0	28944	
3767	0	28984	
3768	0	29038	
3769	0	29112	
3770	0	29188	
3771	0	29248	
3772	0	29296	
3773	0	29352	
3774	0	29432	
3775	0	29460	
3776	0	29500	
3777	0	29544	
3778	0	29596	
3779	0	29624	
3780	0	29632	
3781	0	29664	
3782	0	29732	
3783	0	29796	
3784	0	29866	
3785	0	29934	
3786	0	30004	
3787	0	30036	
3788	0	30100	
3789	0	30124	
3790	0	30168	
3791	0	30200	
3792	0	30264	
3793	0	30300	
3794	0	30324	
3795	0	30316	
3796	0	30304	
3797	0	30354	
3798	0	30404	
3799	0	30474	
3800	0	30528	
3801	0	30540	
3802	0	30544	
3803	0	30528	
3804	0	30536	
3805	0	30564	
3806	0	30656	
3807	0	30732	
3808	0	30776	
3809	0	30792	
3810	0	30808	
3811	0	30844	
3812	0	30860	
3813	0	30872	
3814	0	30888	
3815	0	30882	
3816	0	30868	
3817	0	30840	
3818	0	30849	
3819	0	30876	
3820	0	30932	
3821	0	30988	
3822	0	31020	
3823	0	31078	
3824	0	31098	
3825	0	31112	
3826	0	31156	
3827	0	31220	
3828	0	31292	
3829	0	31296	
3830	0	31272	
3831	0	31240	
3832	0	31232	
3833	0	31232	
3834	0	31256	
3835	0	31280	
3836	0	31320	
3837	0	31356	
3838	0	31380	
3839	0	31384	
3840	0	31384	
3841	0	31336	
3842	0	31290	
3843	0	31296	
3844	0	31280	
3845	0	31276	
3846	0	31308	
3847	0	31396	
3848	0	31468	
3849	0	31504	
3850	0	31544	
3851	0	31544	
3852	0	31576	
3853	0	31566	
3854	0	31520	
3855	0	31472	
3856	0	31488	
3857	0	31514	
3858	0	31544	
3859	0	31564	
3860	0	31504	
3861	0	31404	
3862	0	31392	
3863	0	31416	
3864	0	31464	
3865	0	31524	
3866	0	31536	
3867	0	31512	
3868	0	31448	
3869	0	31456	
3870	0	31464	
3871	0	31476	
3872	0	31496	
3873	0	31458	
3874	0	31436	
3875	0	31424	
3876	0	31392	
3877	0	31404	
3878	0	31380	
3879	0	31356	
3880	0	31340	
3881	0	31364	
3882	0	31444	
3883	0	31482	
3884	0	31516	
3885	0	31536	
3886	0	31560	
3887	0	31584	
3888	0	31624	
3889	0	31644	
3890	0	31628	
3891	0	31600	
3892	0	31532	
3893	0	31476	
3894	0	31460	
3895	0	31400	
3896	0	31364	
3897	0	31304	
3898	0	31262	
3899	0	31272	
3900	0	31248	
3901	0	31184	
3902	0	31172	
3903	0	31216	
3904	0	31288	
3905	0	31352	
3906	0	31384	
3907	0	31420	
3908	0	31472	
3909	0	31530	
3910	0	31536	
3911	0	31532	
3912	0	31532	
3913	0	31508	
3914	0	31496	
3915	0	31496	
3916	0	31516	
3917	0	31524	
3918	0	31484	
3919	0	31432	
3920	0	31416	
3921	0	31450	
3922	0	31468	
3923	0	31476	
3924	0	31498	
3925	0	31500	
3926	0	31500	
3927	0	31564	
3928	0	31610	
3929	0	31632	
3930	0	31664	
3931	0	31688	
3932	0	31756	
3933	0	31856	
3934	0	31936	
3935	0	32040	
3936	0	32092	
3937	0	32104	
3938	0	32128	
3939	0	32192	
3940	0	32380	
3941	0	32504	
3942	0	32552	
3943	0	32652	
3944	0	32708	
3945	0	32640	
3946	0	32524	
3947	0	32400	
3948	0	32348	
3949	0	32340	
3950	0	32356	
3951	0	32392	
3952	0	32394	
3953	0	32416	
3954	0	32460	
3955	0	32500	
3956	0	32532	
3957	0	32512	
3958	0	32560	
3959	0	32704	
3960	0	32912	
3961	0	33140	
3962	0	33444	
3963	0	33728	
3964	0	33972	
3965	0	34240	
3966	0	34400	
3967	0	34532	
3968	0	34676	
3969	0	34848	
3970	0	35000	
3971	0	35064	
3972	0	34976	
3973	0	34818	
3974	0	34664	
3975	0	34508	
3976	0	34360	
3977	0	34248	
3978	0	34156	
3979	0	34096	
3980	0	33890	
3981	0	33664	
3982	0	33484	
3983	0	33364	
3984	0	33296	
3985	0	33248	
3986	0	33216	
3987	0	33178	
3988	0	33152	
3989	0	33064	
3990	0	32888	
3991	0	32688	
3992	0	32568	
3993	0	32508	
3994	0	32388	
3995	0	32268	
3996	0	32124	
3997	0	32042	
3998	0	31968	
3999	0	31908	
4000	0	31800	
4001	0	31732	
4002	0	31648	
4003	0	31524	
4004	0	31460	
4005	0	31388	
4006	0	31308	
4007	0	31212	
4008	0	31152	
4009	0	31060	
4010	0	30936	
4011	0	30824	
4012	0	30748	
4013	0	30680	
4014	0	30612	
4015	0	30592	
4016	0	30616	
4017	0	30596	
4018	0	30572	
4019	0	30576	
4020	0	30608	
4021	0	30592	
4022	0	30608	
4023	0	30680	
4024	0	30784	
4025	0	30849	
4026	0	30890	
4027	0	30920	
4028	0	30980	
4029	0	31004	
4030	0	30984	
4031	0	30948	
4032	0	30944	
4033	0	30932	
4034	0	30872	
4035	0	30840	
4036	0	30816	
4037	0	30844	
4038	0	30844	
4039	0	30848	
4040	0	30820	
4041	0	30768	
4042	0	30768	
4043	0	30844	
4044	0	30904	
4045	0	30928	
4046	0	30976	
4047	0	31076	
4048	0	31134	
4049	0	31208	
4050	0	31296	
4051	0	31308	
4052	0	31316	
4053	0	31332	
4054	0	31361	
4055	0	31412	
4056	0	31392	
4057	0	31392	
4058	0	31352	
4059	0	31312	
4060	0	31280	
4061	0	31184	
4062	0	31036	
4063	0	30754	
4064	0	30380	
4065	0	29904	
4066	0	29312	
4067	0	28788	
4068	0	28440	
4069	0	28260	
4070	0	28280	
4071	0	28448	
4072	0	28800	
4073	0	29344	
4074	0	30088	
4075	0	31052	
4076	0	32116	
4077	0	33220	
4078	0	34524	
4079	0	35952	
4080	0	37496	
4081	0	39324	
4082	0	41472	
4083	0	43936	
4084	0	46840	
4085	0	49972	
4086	0	53072	
4087	0	56000	
4088	0	58820	
4089	0	61576	
4090	0	63440	
4091	0	64404	
4092	0	64860	
4093	0	65048	
4094	0	65088	
4095	0	65064	
4096	0	64976	
4097	0	64876	
4098	0	64724	
4099	0	59176	
4100	0	54064	
4101	0	49460	
4102	0	45652	
4103	0	42464	
4104	0	39800	
4105	0	37624	
4106	0	35652	
4107	0	33780	
4108	0	32104	
4109	0	30568	
4110	0	29120	
4111	0	27880	
4112	0	26992	
4113	0	26316	
4114	0	25874	
4115	0	25664	
4116	0	25672	
4117	0	25752	
4118	0	25848	
4119	0	25868	
4120	0	25836	
4121	0	25848	
4122	0	25870	
4123	0	25936	
4124	0	26144	
4125	0	26444	
4126	0	26760	
4127	0	27132	
4128	0	27544	
4129	0	27900	
4130	0	28236	
4131	0	28564	
4132	0	28868	
4133	0	29080	
4134	0	29172	
4135	0	29216	
4136	0	29242	
4137	0	29240	
4138	0	29248	
4139	0	29248	
4140	0	29192	
4141	0	29128	
4142	0	29132	
4143	0	29180	
4144	0	29224	
4145	0	29268	
4146	0	29344	
4147	0	29412	
4148	0	29488	
4149	0	29500	
4150	0	29528	
4151	0	29564	
4152	0	29608	
4153	0	29620	
4154	0	29628	
4155	0	29644	
4156	0	29668	
4157	0	29700	
4158	0	29728	
4159	0	29756	
4160	0	29784	
4161	0	29812	
4162	0	29792	
4163	0	29760	
4164	0	29792	
4165	0	29848	
4166	0	29956	
4167	0	30056	
4168	0	30216	
4169	0	30336	
4170	0	30400	
4171	0	30448	
4172	0	30452	
4173	0	30480	
4174	0	30484	
4175	0	30520	
4176	0	30532	
4177	0	30524	
4178	0	30564	
4179	0	30616	
4180	0	30644	
4181	0	30672	
4182	0	30718	
4183	0	30776	
4184	0	30848	
4185	0	30912	
4186	0	30952	
4187	0	31028	
4188	0	31100	
4189	0	31212	
4190	0	31316	
4191	0	31392	
4192	0	31444	
4193	0	31448	
4194	0	31440	
4195	0	31456	
4196	0	31520	
4197	0	31572	
4198	0	31624	
4199	0	31696	
4200	0	31736	
4201	0	31760	
4202	0	31832	
4203	0	31916	
4204	0	31976	
4205	0	32008	
4206	0	32004	
4207	0	32016	
4208	0	32076	
4209	0	32146	
4210	0	32256	
4211	0	32352	
4212	0	32432	
4213	0	32500	
4214	0	32456	
4215	0	32388	
4216	0	32392	
4217	0	32404	
4218	0	32408	
4219	0	32432	
4220	0	32476	
4221	0	32516	
4222	0	32532	
4223	0	32608	
4224	0	32688	
4225	0	32778	
4226	0	32860	
4227	0	32916	
4228	0	33004	
4229	0	33056	
4230	0	33120	
4231	0	33240	
4232	0	33364	
4233	0	33460	
4234	0	33528	
4235	0	33568	
4236	0	33564	
4237	0	33556	
4238	0	33588	
4239	0	33648	
4240	0	33672	
4241	0	33696	
4242	0	33784	
4243	0	33850	
4244	0	33904	
4245	0	34024	
4246	0	34148	
4247	0	34264	
4248	0	34376	
4249	0	34488	
4250	0	34592	
4251	0	34656	
4252	0	34716	
4253	0	34778	
4254	0	34836	
4255	0	34884	
4256	0	34936	
4257	0	34964	
4258	0	34970	
4259	0	34978	
4260	0	35040	
4261	0	35108	
4262	0	35220	
4263	0	35332	
4264	0	35424	
4265	0	35552	
4266	0	35680	
4267	0	35808	
4268	0	35956	
4269	0	36084	
4270	0	36160	
4271	0	36256	
4272	0	36348	
4273	0	36424	
4274	0	36488	
4275	0	36568	
4276	0	36656	
4277	0	36712	
4278	0	36754	
4279	0	36808	
4280	0	36864	
4281	0	36888	
4282	0	36940	
4283	0	36984	
4284	0	37080	
4285	0	37204	
4286	0	37328	
4287	0	37444	
4288	0	37532	
4289	0	37612	
4290	0	37720	
4291	0	37876	
4292	0	37996	
4293	0	38080	
4294	0	38184	
4295	0	38260	
4296	0	38348	
4297	0	38432	
4298	0	38488	
4299	0	38544	
4300	0	38572	
4301	0	38608	
4302	0	38648	
4303	0	38672	
4304	0	38740	
4305	0	38804	
4306	0	38848	
4307	0	38908	
4308	0	38976	
4309	0	39024	
4310	0	39048	
4311	0	39088	
4312	0	39096	
4313	0	39080	
4314	0	39020	
4315	0	38980	
4316	0	38944	
4317	0	38908	
4318	0	38872	
4319	0	38848	
4320	0	38856	
4321	0	38796	
4322	0	38776	
4323	0	38744	
4324	0	38728	
4325	0	38688	
4326	0	38636	
4327	0	38560	
4328	0	38484	
4329	0	38432	
4330	0	38360	
4331	0	38208	
4332	0	38036	
4333	0	37896	
4334	0	37772	
4335	0	37632	
4336	0	37476	
4337	0	37336	
4338	0	37176	
4339	0	36985	
4340	0	36740	
4341	0	36496	
4342	0	36256	
4343	0	36012	
4344	0	35784	
4345	0	35512	
4346	0	35312	
4347	0	35144	
4348	0	34912	
4349	0	34620	
4350	0	34384	
4351	0	34132	
4352	0	33888	
4353	0	33624	
4354	0	33348	
4355	0	33120	
4356	0	32898	
4357	0	32688	
4358	0	32500	
4359	0	32298	
4360	0	32132	
4361	0	31944	
4362	0	31772	
4363	0	31576	
4364	0	31368	
4365	0	31138	
4366	0	30925	
4367	0	30768	
4368	0	30616	
4369	0	30432	
4370	0	30292	
4371	0	30184	
4372	0	30064	
4373	0	29940	
4374	0	29824	
4375	0	29692	
4376	0	29580	
4377	0	29474	
4378	0	29384	
4379	0	29288	
4380	0	29188	
4381	0	29116	
4382	0	29040	
4383	0	28944	
4384	0	28856	
4385	0	28776	
4386	0	28680	
4387	0	28608	
4388	0	28596	
4389	0	28596	
4390	0	28578	
4391	0	28560	
4392	0	28572	
4393	0	28608	
4394	0	28624	
4395	0	28622	
4396	0	28600	
4397	0	28568	
4398	0	28480	
4399	0	28448	
4400	0	28428	
4401	0	28416	
4402	0	28416	
4403	0	28416	
4404	0	28412	
4405	0	28404	
4406	0	28432	
4407	0	28488	
4408	0	28512	
4409	0	28512	
4410	0	28524	
4411	0	28544	
4412	0	28560	
4413	0	28592	
4414	0	28596	
4415	0	28592	
4416	0	28608	
4417	0	28624	
4418	0	28618	
4419	0	28624	
4420	0	28612	
4421	0	28664	
4422	0	28712	
4423	0	28752	
4424	0	28784	
4425	0	28828	
4426	0	28918	
4427	0	28988	
4428	0	29016	
4429	0	29058	
4430	0	29088	
4431	0	29128	
4432	0	29132	
4433	0	29165	
4434	0	29248	
4435	0	29328	
4436	0	29378	
4437	0	29392	
4438	0	29376	
4439	0	29378	
4440	0	29408	
4441	0	29432	
4442	0	29464	
4443	0	29532	
4444	0	29616	
4445	0	29688	
4446	0	29712	
4447	0	29724	
4448	0	29756	
4449	0	29796	
4450	0	29836	
4451	0	29856	
4452	0	29848	
4453	0	29824	
4454	0	29850	
4455	0	29892	
4456	0	29944	
4457	0	29930	
4458	0	29928	
4459	0	29956	
4460	0	30008	
4461	0	30080	
4462	0	30148	
4463	0	30196	
4464	0	30248	
4465	0	30272	
4466	0	30308	
4467	0	30350	
4468	0	30380	
4469	0	30380	
4470	0	30388	
4471	0	30412	
4472	0	30464	
4473	0	30512	
4474	0	30536	
4475	0	30558	
4476	0	30592	
4477	0	30632	
4478	0	30624	
4479	0	30634	
4480	0	30624	
4481	0	30616	
4482	0	30644	
4483	0	30656	
4484	0	30660	
4485	0	30712	
4486	0	30752	
4487	0	30796	
4488	0	30796	
4489	0	30820	
4490	0	30856	
4491	0	30888	
4492	0	30928	
4493	0	30920	
4494	0	30912	
4495	0	30908	
4496	0	30928	
4497	0	30936	
4498	0	30904	
4499	0	30828	
4500	0	30744	
4501	0	30712	
4502	0	30740	
4503	0	30784	
4504	0	30852	
4505	0	30920	
4506	0	30992	
4507	0	31056	
4508	0	31108	
4509	0	31152	
4510	0	31224	
4511	0	31300	
4512	0	31292	
4513	0	31288	
4514	0	31240	
4515	0	31236	
4516	0	31220	
4517	0	31224	
4518	0	31268	
4519	0	31296	
4520	0	31328	
4521	0	31316	
4522	0	31296	
4523	0	31260	
4524	0	31280	
4525	0	31356	
4526	0	31424	
4527	0	31500	
4528	0	31564	
4529	0	31544	
4530	0	31512	
4531	0	31380	
4532	0	31274	
4533	0	31188	
4534	0	31144	
4535	0	31116	
4536	0	31156	
4537	0	31212	
4538	0	31252	
4539	0	31290	
4540	0	31296	
4541	0	31288	
4542	0	31274	
4543	0	31264	
4544	0	31224	
4545	0	31248	
4546	0	31304	
4547	0	31352	
4548	0	31360	
4549	0	31336	
4550	0	31328	
4551	0	31344	
4552	0	31402	
4553	0	31416	
4554	0	31404	
4555	0	31372	
4556	0	31324	
4557	0	31266	
4558	0	31248	
4559	0	31284	
4560	0	31352	
4561	0	31356	
4562	0	31352	
4563	0	31324	
4564	0	31332	
4565	0	31340	
4566	0	31346	
4567	0	31336	
4568	0	31336	
4569	0	31354	
4570	0	31368	
4571	0	31388	
4572	0	31400	
4573	0	31416	
4574	0	31404	
4575	0	31364	
4576	0	31348	
4577	0	31280	
4578	0	31200	
4579	0	31144	
4580	0	31128	
4581	0	31072	
4582	0	31084	
4583	0	31132	
4584	0	31144	
4585	0	31164	
4586	0	31200	
4587	0	31240	
4588	0	31348	
4589	0	31396	
4590	0	31376	
4591	0	31388	
4592	0	31408	
4593	0	31440	
4594	0	31508	
4595	0	31566	
4596	0	31620	
4597	0	31640	
4598	0	31568	
4599	0	31532	
4600	0	31440	
4601	0	31300	
4602	0	31184	
4603	0	31120	
4604	0	31120	
4605	0	31184	
4606	0	31268	
4607	0	31352	
4608	0	31420	
4609	0	31464	
4610	0	31544	
4611	0	31588	
4612	0	31664	
4613	0	31760	
4614	0	31860	
4615	0	32004	
4616	0	32172	
4617	0	32292	
4618	0	32288	
4619	0	32156	
4620	0	32100	
4621	0	32116	
4622	0	32212	
4623	0	32392	
4624	0	32568	
4625	0	32668	
4626	0	32680	
4627	0	32664	
4628	0	32632	
4629	0	32608	
4630	0	32576	
4631	0	32520	
4632	0	32444	
4633	0	32364	
4634	0	32300	
4635	0	32248	
4636	0	32296	
4637	0	32376	
4638	0	32372	
4639	0	32416	
4640	0	32524	
4641	0	32672	
4642	0	32844	
4643	0	33040	
4644	0	33288	
4645	0	33604	
4646	0	33900	
4647	0	34136	
4648	0	34308	
4649	0	34464	
4650	0	34556	
4651	0	34640	
4652	0	34772	
4653	0	34800	
4654	0	34728	
4655	0	34628	
4656	0	34536	
4657	0	34468	
4658	0	34384	
4659	0	34288	
4660	0	34204	
4661	0	34104	
4662	0	33972	
4663	0	33868	
4664	0	33728	
4665	0	33628	
4666	0	33564	
4667	0	33536	
4668	0	33492	
4669	0	33400	
4670	0	33288	
4671	0	33188	
4672	0	33028	
4673	0	32880	
4674	0	32808	
4675	0	32744	
4676	0	32612	
4677	0	32412	
4678	0	32196	
4679	0	32026	
4680	0	31936	
4681	0	31896	
4682	0	31820	
4683	0	31744	
4684	0	31696	
4685	0	31612	
4686	0	31544	
4687	0	31460	
4688	0	31420	
4689	0	31380	
4690	0	31352	
4691	0	31284	
4692	0	31168	
4693	0	31026	
4694	0	30904	
4695	0	30808	
4696	0	30708	
4697	0	30604	
4698	0	30516	
4699	0	30496	
4700	0	30468	
4701	0	30448	
4702	0	30426	
4703	0	30424	
4704	0	30416	
4705	0	30432	
4706	0	30456	
4707	0	30488	
4708	0	30552	
4709	0	30612	
4710	0	30624	
4711	0	30612	
4712	0	30642	
4713	0	30640	
4714	0	30616	
4715	0	30608	
4716	0	30592	
4717	0	30552	
4718	0	30548	
4719	0	30560	
4720	0	30516	
4721	0	30496	
4722	0	30516	
4723	0	30622	
4724	0	30744	
4725	0	30844	
4726	0	30956	
4727	0	31048	
4728	0	31116	
4729	0	31216	
4730	0	31266	
4731	0	31220	
4732	0	31240	
4733	0	31296	
4734	0	31336	
4735	0	31356	
4736	0	31392	
4737	0	31408	
4738	0	31408	
4739	0	31420	
4740	0	31402	
4741	0	31376	
4742	0	31332	
4743	0	31240	
4744	0	31060	
4745	0	30876	
4746	0	30632	
4747	0	30192	
4748	0	29612	
4749	0	29008	
4750	0	28532	
4751	0	28224	
4752	0	28084	
4753	0	28128	
4754	0	28312	
4755	0	28672	
4756	0	29236	
4757	0	30048	
4758	0	31080	
4759	0	32288	
4760	0	33704	
4761	0	35284	
4762	0	36932	
4763	0	38724	
4764	0	40860	
4765	0	43224	
4766	0	45984	
4767	0	49088	
4768	0	52244	
4769	0	55288	
4770	0	58240	
4771	0	61084	
4772	0	63340	
4773	0	64536	
4774	0	65128	
4775	0	65372	
4776	0	65440	
4777	0	65428	
4778	0	65356	
4779	0	65260	
4780	0	65144	
4781	0	65024	
4782	0	61856	
4783	0	56632	
4784	0	52096	
4785	0	48336	
4786	0	45112	
4787	0	42320	
4788	0	39784	
4789	0	37480	
4790	0	35490	
4791	0	33824	
4792	0	32512	
4793	0	31396	
4794	0	30400	
4795	0	29524	
4796	0	28792	
4797	0	28228	
4798	0	27774	
4799	0	27510	
4800	0	27432	
4801	0	27380	
4802	0	27268	
4803	0	27085	
4804	0	26960	
4805	0	26880	
4806	0	26860	
4807	0	26912	
4808	0	27060	
4809	0	27324	
4810	0	27564	
4811	0	27804	
4812	0	28020	
4813	0	28236	
4814	0	28428	
4815	0	28528	
4816	0	28560	
4817	0	28564	
4818	0	28556	
4819	0	28506	
4820	0	28488	
4821	0	28496	
4822	0	28512	
4823	0	28508	
4824	0	28548	
4825	0	28576	
4826	0	28612	
4827	0	28620	
4828	0	28652	
4829	0	28688	
4830	0	28804	
4831	0	28856	
4832	0	28842	
4833	0	28800	
4834	0	28752	
4835	0	28740	
4836	0	28788	
4837	0	28856	
4838	0	28920	
4839	0	28880	
4840	0	28856	
4841	0	28928	
4842	0	28964	
4843	0	29008	
4844	0	29104	
4845	0	29192	
4846	0	29264	
4847	0	29272	
4848	0	29316	
4849	0	29400	
4850	0	29472	
4851	0	29500	
4852	0	29544	
4853	0	29626	
4854	0	29728	
4855	0	29792	
4856	0	29840	
4857	0	29900	
4858	0	29952	
4859	0	29978	
4860	0	30012	
4861	0	30032	
4862	0	30072	
4863	0	30108	
4864	0	30100	
4865	0	30096	
4866	0	30084	
4867	0	30080	
4868	0	30164	
4869	0	30304	
4870	0	30440	
4871	0	30528	
4872	0	30576	
4873	0	30638	
4874	0	30656	
4875	0	30656	
4876	0	30648	
4877	0	30624	
4878	0	30636	
4879	0	30696	
4880	0	30752	
4881	0	30792	
4882	0	30848	
4883	0	30904	
4884	0	30952	
4885	0	31034	
4886	0	31128	
4887	0	31160	
4888	0	31178	
4889	0	31224	
4890	0	31308	
4891	0	31384	
4892	0	31428	
4893	0	31476	
4894	0	31516	
4895	0	31576	
4896	0	31628	
4897	0	31628	
4898	0	31612	
4899	0	31648	
4900	0	31696	
4901	0	31720	
4902	0	31760	
4903	0	31808	
4904	0	31844	
4905	0	31904	
4906	0	31916	
4907	0	31952	
4908	0	32056	
4909	0	32140	
4910	0	32176	
4911	0	32220	
4912	0	32276	
4913	0	32334	
4914	0	32384	
4915	0	32416	
4916	0	32472	
4917	0	32578	
4918	0	32652	
4919	0	32704	
4920	0	32772	
4921	0	32824	
4922	0	32892	
4923	0	32956	
4924	0	33056	
4925	0	33164	
4926	0	33264	
4927	0	33352	
4928	0	33392	
4929	0	33452	
4930	0	33512	
4931	0	33600	
4932	0	33688	
4933	0	33700	
4934	0	33728	
4935	0	33784	
4936	0	33826	
4937	0	33892	
4938	0	33988	
4939	0	34060	
4940	0	34104	
4941	0	34176	
4942	0	34272	
4943	0	34384	
4944	0	34452	
4945	0	34536	
4946	0	34640	
4947	0	34752	
4948	0	34840	
4949	0	34936	
4950	0	35012	
4951	0	35100	
4952	0	35220	
4953	0	35336	
4954	0	35420	
4955	0	35460	
4956	0	35524	
4957	0	35662	
4958	0	35772	
4959	0	35832	
4960	0	35872	
4961	0	35930	
4962	0	35972	
4963	0	36016	
4964	0	36068	
4965	0	36208	
4966	0	36380	
4967	0	36552	
4968	0	36736	
4969	0	36912	
4970	0	37048	
4971	0	37156	
4972	0	37296	
4973	0	37400	
4974	0	37512	
4975	0	37608	
4976	0	37688	
4977	0	37732	
4978	0	37764	
4979	0	37788	
4980	0	37872	
4981	0	37936	
4982	0	37980	
4983	0	38048	
4984	0	38124	
4985	0	38176	
4986	0	38244	
4987	0	38300	
4988	0	38356	
4989	0	38452	
4990	0	38508	
4991	0	38584	
4992	0	38624	
4993	0	38620	
4994	0	38632	
4995	0	38680	
4996	0	38724	
4997	0	38728	
4998	0	38648	
4999	0	38540	
5000	0	38496	
5001	0	38456	
5002	0	38400	
5003	0	38348	
5004	0	38288	
5005	0	38280	
5006	0	38288	
5007	0	38280	
5008	0	38272	
5009	0	38316	
5010	0	38324	
5011	0	38280	
5012	0	38236	
5013	0	38192	
5014	0	38096	
5015	0	37992	
5016	0	37876	
5017	0	37736	
5018	0	37568	
5019	0	37384	
5020	0	37238	
5021	0	37080	
5022	0	36896	
5023	0	36712	
5024	0	36464	
5025	0	36176	
5026	0	35932	
5027	0	35716	
5028	0	35532	
5029	0	35340	
5030	0	35106	
5031	0	34872	
5032	0	34652	
5033	0	34408	
5034	0	34136	
5035	0	33844	
5036	0	33552	
5037	0	33300	
5038	0	33057	
5039	0	32872	
5040	0	32656	
5041	0	32440	
5042	0	32280	
5043	0	32096	
5044	0	31936	
5045	0	31776	
5046	0	31636	
5047	0	31468	
5048	0	31340	
5049	0	31200	
5050	0	31040	
5051	0	30840	
5052	0	30592	
5053	0	30402	
5054	0	30308	
5055	0	30208	
5056	0	29984	
5057	0	29716	
5058	0	29480	
5059	0	29280	
5060	0	29124	
5061	0	29052	
5062	0	29012	
5063	0	28972	
5064	0	28980	
5065	0	29024	
5066	0	28992	
5067	0	28908	
5068	0	28872	
5069	0	28854	
5070	0	28824	
5071	0	28768	
5072	0	28720	
5073	0	28668	
5074	0	28604	
5075	0	28560	
5076	0	28528	
5077	0	28480	
5078	0	28420	
5079	0	28386	
5080	0	28420	
5081	0	28440	
5082	0	28416	
5083	0	28424	
5084	0	28472	
5085	0	28512	
5086	0	28600	
5087	0	28672	
5088	0	28644	
5089	0	28576	
5090	0	28456	
5091	0	28356	
5092	0	28336	
5093	0	28364	
5094	0	28408	
5095	0	28452	
5096	0	28472	
5097	0	28492	
5098	0	28512	
5099	0	28532	
5100	0	28540	
5101	0	28560	
5102	0	28608	
5103	0	28624	
5104	0	28676	
5105	0	28776	
5106	0	28872	
5107	0	28964	
5108	0	29060	
5109	0	29136	
5110	0	29192	
5111	0	29200	
5112	0	29192	
5113	0	29232	
5114	0	29256	
5115	0	29288	
5116	0	29344	
5117	0	29392	
5118	0	29448	
5119	0	29454	
5120	0	29398	
5121	0	29332	
5122	0	29308	
5123	0	29324	
5124	0	29392	
5125	0	29464	
5126	0	29548	
5127	0	29668	
5128	0	29768	
5129	0	29792	
5130	0	29788	
5131	0	29776	
5132	0	29844	
5133	0	29948	
5134	0	30024	
5135	0	30068	
5136	0	30048	
5137	0	30060	
5138	0	30068	
5139	0	30060	
5140	0	30056	
5141	0	30052	
5142	0	30049	
5143	0	30084	
5144	0	30092	
5145	0	30132	
5146	0	30176	
5147	0	30196	
5148	0	30208	
5149	0	30244	
5150	0	30272	
5151	0	30324	
5152	0	30352	
5153	0	30428	
5154	0	30528	
5155	0	30626	
5156	0	30680	
5157	0	30716	
5158	0	30716	
5159	0	30732	
5160	0	30760	
5161	0	30812	
5162	0	30852	
5163	0	30876	
5164	0	30896	
5165	0	30868	
5166	0	30868	
5167	0	30884	
5168	0	30944	
5169	0	31044	
5170	0	31132	
5171	0	31160	
5172	0	31148	
5173	0	31132	
5174	0	31100	
5175	0	31112	
5176	0	31160	
5177	0	31144	
5178	0	31176	
5179	0	31226	
5180	0	31232	
5181	0	31250	
5182	0	31304	
5183	0	31356	
5184	0	31424	
5185	0	31456	
5186	0	31500	
5187	0	31572	
5188	0	31596	
5189	0	31576	
5190	0	31508	
5191	0	31512	
5192	0	31556	
5193	0	31626	
5194	0	31660	
5195	0	31648	
5196	0	31656	
5197	0	31688	
5198	0	31704	
5199	0	31720	
5200	0	31704	
5201	0	31680	
5202	0	31668	
5203	0	31744	
5204	0	31816	
5205	0	31812	
5206	0	31816	
5207	0	31860	
5208	0	31876	
5209	0	31840	
5210	0	31852	
5211	0	31880	
5212	0	31964	
5213	0	32020	
5214	0	32060	
5215	0	32076	
5216	0	32060	
5217	0	32012	
5218	0	31964	
5219	0	31936	
5220	0	31912	
5221	0	31860	
5222	0	31892	
5223	0	31940	
5224	0	31968	
5225	0	31988	
5226	0	32056	
5227	0	32032	
5228	0	32004	
5229	0	32024	
5230	0	32080	
5231	0	32120	
5232	0	32128	
5233	0	32136	
5234	0	32132	
5235	0	32122	
5236	0	32124	
5237	0	32072	
5238	0	32032	
5239	0	32040	
5240	0	32036	
5241	0	32008	
5242	0	32021	
5243	0	32052	
5244	0	32060	
5245	0	32068	
5246	0	32056	
5247	0	32068	
5248	0	32028	
5249	0	31944	
5250	0	31908	
5251	0	31948	
5252	0	31996	
5253	0	32002	
5254	0	32008	
5255	0	32020	
5256	0	32040	
5257	0	32084	
5258	0	32084	
5259	0	32072	
5260	0	32084	
5261	0	32096	
5262	0	32112	
5263	0	32168	
5264	0	32200	
5265	0	32200	
5266	0	32196	
5267	0	32174	
5268	0	32204	
5269	0	32186	
5270	0	32152	
5271	0	32160	
5272	0	32176	
5273	0	32176	
5274	0	32152	
5275	0	32092	
5276	0	32080	
5277	0	32120	
5278	0	32096	
5279	0	32100	
5280	0	32124	
5281	0	32136	
5282	0	32140	
5283	0	32136	
5284	0	32128	
5285	0	32104	
5286	0	32096	
5287	0	32080	
5288	0	32064	
5289	0	32116	
5290	0	32200	
5291	0	32240	
5292	0	32228	
5293	0	32224	
5294	0	32220	
5295	0	32176	
5296	0	32148	
5297	0	32120	
5298	0	32088	
5299	0	32080	
5300	0	32056	
5301	0	32064	
5302	0	32064	
5303	0	32052	
5304	0	32088	
5305	0	32128	
5306	0	32232	
5307	0	32364	
5308	0	32404	
5309	0	32386	
5310	0	32380	
5311	0	32412	
5312	0	32432	
5313	0	32440	
5314	0	32432	
5315	0	32424	
5316	0	32416	
5317	0	32408	
5318	0	32398	
5319	0	32348	
5320	0	32312	
5321	0	32288	
5322	0	32288	
5323	0	32340	
5324	0	32404	
5325	0	32464	
5326	0	32514	
5327	0	32528	
5328	0	32528	
5329	0	32512	
5330	0	32512	
5331	0	32504	
5332	0	32520	
5333	0	32544	
5334	0	32552	
5335	0	32540	
5336	0	32540	
5337	0	32544	
5338	0	32532	
5339	0	32504	
5340	0	32416	
5341	0	32332	
5342	0	32316	
5343	0	32356	
5344	0	32408	
5345	0	32448	
5346	0	32494	
5347	0	32528	
5348	0	32576	
5349	0	32664	
5350	0	32772	
5351	0	32912	
5352	0	33072	
5353	0	33192	
5354	0	33240	
5355	0	33332	
5356	0	33456	
5357	0	33560	
5358	0	33632	
5359	0	33696	
5360	0	33776	
5361	0	33810	
5362	0	33852	
5363	0	33872	
5364	0	33856	
5365	0	33816	
5366	0	33788	
5367	0	33728	
5368	0	33688	
5369	0	33592	
5370	0	33514	
5371	0	33468	
5372	0	33422	
5373	0	33352	
5374	0	33352	
5375	0	33476	
5376	0	33642	
5377	0	33856	
5378	0	34104	
5379	0	34388	
5380	0	34628	
5381	0	34896	
5382	0	35148	
5383	0	35372	
5384	0	35528	
5385	0	35628	
5386	0	35748	
5387	0	35832	
5388	0	35856	
5389	0	35808	
5390	0	35680	
5391	0	35552	
5392	0	35480	
5393	0	35424	
5394	0	35328	
5395	0	35248	
5396	0	35180	
5397	0	35056	
5398	0	34872	
5399	0	34712	
5400	0	34612	
5401	0	34526	
5402	0	34424	
5403	0	34292	
5404	0	34148	
5405	0	34048	
5406	0	33912	
5407	0	33805	
5408	0	33740	
5409	0	33716	
5410	0	33700	
5411	0	33624	
5412	0	33516	
5413	0	33392	
5414	0	33312	
5415	0	33236	
5416	0	33200	
5417	0	33128	
5418	0	33024	
5419	0	32896	
5420	0	32776	
5421	0	32708	
5422	0	32656	
5423	0	32580	
5424	0	32492	
5425	0	32384	
5426	0	32304	
5427	0	32248	
5428	0	32184	
5429	0	32124	
5430	0	32028	
5431	0	31892	
5432	0	31736	
5433	0	31672	
5434	0	31700	
5435	0	31712	
5436	0	31632	
5437	0	31604	
5438	0	31648	
5439	0	31632	
5440	0	31604	
5441	0	31594	
5442	0	31552	
5443	0	31536	
5444	0	31532	
5445	0	31648	
5446	0	31792	
5447	0	31868	
5448	0	31860	
5449	0	31872	
5450	0	31876	
5451	0	31856	
5452	0	31788	
5453	0	31796	
5454	0	31768	
5455	0	31712	
5456	0	31692	
5457	0	31776	
5458	0	31800	
5459	0	31792	
5460	0	31748	
5461	0	31720	
5462	0	31732	
5463	0	31752	
5464	0	31808	
5465	0	31876	
5466	0	31934	
5467	0	32000	
5468	0	32058	
5469	0	32096	
5470	0	32136	
5471	0	32128	
5472	0	32076	
5473	0	32104	
5474	0	32172	
5475	0	32220	
5476	0	32204	
5477	0	32120	
5478	0	31954	
5479	0	31756	
5480	0	31472	
5481	0	31036	
5482	0	30432	
5483	0	29704	
5484	0	29120	
5485	0	28728	
5486	0	28556	
5487	0	28624	
5488	0	28848	
5489	0	29240	
5490	0	29784	
5491	0	30504	
5492	0	31440	
5493	0	32588	
5494	0	33868	
5495	0	35306	
5496	0	36784	
5497	0	38332	
5498	0	40152	
5499	0	42224	
5500	0	44684	
5501	0	47728	
5502	0	50840	
5503	0	53794	
5504	0	56720	
5505	0	59640	
5506	0	62288	
5507	0	63832	
5508	0	64612	
5509	0	64992	
5510	0	65120	
5511	0	65120	
5512	0	65080	
5513	0	65000	
5514	0	64876	
5515	0	64772	
5516	0	64512	
5517	0	58944	
5518	0	54296	
5519	0	50448	
5520	0	47208	
5521	0	44448	
5522	0	42080	
5523	0	39856	
5524	0	37844	
5525	0	35992	
5526	0	34380	
5527	0	33050	
5528	0	31884	
5529	0	30848	
5530	0	29952	
5531	0	29316	
5532	0	28816	
5533	0	28500	
5534	0	28356	
5535	0	28276	
5536	0	28152	
5537	0	27940	
5538	0	27794	
5539	0	27696	
5540	0	27680	
5541	0	27748	
5542	0	27916	
5543	0	28112	
5544	0	28224	
5545	0	28356	
5546	0	28524	
5547	0	28688	
5548	0	28888	
5549	0	29032	
5550	0	29080	
5551	0	29032	
5552	0	29026	
5553	0	29076	
5554	0	29116	
5555	0	29100	
5556	0	29090	
5557	0	29060	
5558	0	28986	
5559	0	28944	
5560	0	28964	
5561	0	29008	
5562	0	29044	
5563	0	29112	
5564	0	29176	
5565	0	29164	
5566	0	29108	
5567	0	29068	
5568	0	29108	
5569	0	29138	
5570	0	29202	
5571	0	29332	
5572	0	29388	
5573	0	29408	
5574	0	29448	
5575	0	29452	
5576	0	29424	
5577	0	29444	
5578	0	29493	
5579	0	29528	
5580	0	29580	
5581	0	29616	
5582	0	29660	
5583	0	29724	
5584	0	29784	
5585	0	29880	
5586	0	29952	
5587	0	30050	
5588	0	30124	
5589	0	30140	
5590	0	30180	
5591	0	30240	
5592	0	30228	
5593	0	30216	
5594	0	30264	
5595	0	30300	
5596	0	30308	
5597	0	30308	
5598	0	30288	
5599	0	30272	
5600	0	30340	
5601	0	30464	
5602	0	30552	
5603	0	30658	
5604	0	30708	
5605	0	30736	
5606	0	30712	
5607	0	30784	
5608	0	30892	
5609	0	31000	
5610	0	31056	
5611	0	31136	
5612	0	31188	
5613	0	31132	
5614	0	31072	
5615	0	31112	
5616	0	31200	
5617	0	31292	
5618	0	31320	
5619	0	31336	
5620	0	31348	
5621	0	31388	
5622	0	31400	
5623	0	31400	
5624	0	31408	
5625	0	31464	
5626	0	31584	
5627	0	31712	
5628	0	31800	
5629	0	31828	
5630	0	31840	
5631	0	31868	
5632	0	31888	
5633	0	31924	
5634	0	32004	
5635	0	32068	
5636	0	32096	
5637	0	32046	
5638	0	32020	
5639	0	32064	
5640	0	32124	
5641	0	32164	
5642	0	32196	
5643	0	32212	
5644	0	32232	
5645	0	32304	
5646	0	32444	
5647	0	32532	
5648	0	32576	
5649	0	32590	
5650	0	32584	
5651	0	32608	
5652	0	32784	
5653	0	32900	
5654	0	32932	
5655	0	33024	
5656	0	33132	
5657	0	33184	
5658	0	33224	
5659	0	33288	
5660	0	33306	
5661	0	33344	
5662	0	33392	
5663	0	33440	
5664	0	33500	
5665	0	33524	
5666	0	33552	
5667	0	33616	
5668	0	33684	
5669	0	33788	
5670	0	33920	
5671	0	33996	
5672	0	34036	
5673	0	34084	
5674	0	34184	
5675	0	34260	
5676	0	34300	
5677	0	34320	
5678	0	34332	
5679	0	34460	
5680	0	34560	
5681	0	34564	
5682	0	34600	
5683	0	34732	
5684	0	34856	
5685	0	34996	
5686	0	35132	
5687	0	35236	
5688	0	35336	
5689	0	35424	
5690	0	35552	
5691	0	35636	
5692	0	35728	
5693	0	35800	
5694	0	35884	
5695	0	35952	
5696	0	35992	
5697	0	36052	
5698	0	36148	
5699	0	36213	
5700	0	36256	
5701	0	36376	
5702	0	36500	
5703	0	36648	
5704	0	36784	
5705	0	36870	
5706	0	36956	
5707	0	37024	
5708	0	37108	
5709	0	37196	
5710	0	37360	
5711	0	37444	
5712	0	37504	
5713	0	37616	
5714	0	37682	
5715	0	37738	
5716	0	37764	
5717	0	37796	
5718	0	37868	
5719	0	37936	
5720	0	37916	
5721	0	37892	
5722	0	37876	
5723	0	37894	
5724	0	37904	
5725	0	37990	
5726	0	38108	
5727	0	38204	
5728	0	38240	
5729	0	38248	
5730	0	38244	
5731	0	38240	
5732	0	38240	
5733	0	38248	
5734	0	38232	
5735	0	38272	
5736	0	38284	
5737	0	38272	
5738	0	38272	
5739	0	38240	
5740	0	38172	
5741	0	38104	
5742	0	38016	
5743	0	37952	
5744	0	37920	
5745	0	37940	
5746	0	37936	
5747	0	37884	
5748	0	37800	
5749	0	37712	
5750	0	37600	
5751	0	37482	
5752	0	37376	
5753	0	37248	
5754	0	37148	
5755	0	36948	
5756	0	36716	
5757	0	36488	
5758	0	36288	
5759	0	36128	
5760	0	35992	
5761	0	35824	
5762	0	35648	
5763	0	35476	
5764	0	35288	
5765	0	35092	
5766	0	34856	
5767	0	34624	
5768	0	34420	
5769	0	34208	
5770	0	34030	
5771	0	33824	
5772	0	33632	
5773	0	33472	
5774	0	33280	
5775	0	33040	
5776	0	32764	
5777	0	32516	
5778	0	32282	
5779	0	32068	
5780	0	31864	
5781	0	31704	
5782	0	31520	
5783	0	31376	
5784	0	31272	
5785	0	31152	
5786	0	30884	
5787	0	30628	
5788	0	30488	
5789	0	30352	
5790	0	30136	
5791	0	29940	
5792	0	29832	
5793	0	29760	
5794	0	29736	
5795	0	29716	
5796	0	29668	
5797	0	29572	
5798	0	29404	
5799	0	29296	
5800	0	29212	
5801	0	29140	
5802	0	29040	
5803	0	28946	
5804	0	28884	
5805	0	28802	
5806	0	28740	
5807	0	28684	
5808	0	28656	
5809	0	28700	
5810	0	28716	
5811	0	28660	
5812	0	28620	
5813	0	28600	
5814	0	28512	
5815	0	28468	
5816	0	28456	
5817	0	28480	
5818	0	28468	
5819	0	28460	
5820	0	28480	
5821	0	28504	
5822	0	28514	
5823	0	28480	
5824	0	28436	
5825	0	28448	
5826	0	28520	
5827	0	28564	
5828	0	28540	
5829	0	28580	
5830	0	28660	
5831	0	28732	
5832	0	28808	
5833	0	28816	
5834	0	28852	
5835	0	28844	
5836	0	28800	
5837	0	28784	
5838	0	28748	
5839	0	28780	
5840	0	28846	
5841	0	28900	
5842	0	28954	
5843	0	28990	
5844	0	29012	
5845	0	29064	
5846	0	29148	
5847	0	29232	
5848	0	29324	
5849	0	29392	
5850	0	29456	
5851	0	29512	
5852	0	29548	
5853	0	29568	
5854	0	29560	
5855	0	29576	
5856	0	29624	
5857	0	29680	
5858	0	29712	
5859	0	29736	
5860	0	29792	
5861	0	29864	
5862	0	29944	
5863	0	29984	
5864	0	30048	
5865	0	30096	
5866	0	30080	
5867	0	30108	
5868	0	30152	
5869	0	30193	
5870	0	30228	
5871	0	30268	
5872	0	30312	
5873	0	30252	
5874	0	30148	
5875	0	30144	
5876	0	30144	
5877	0	30196	
5878	0	30296	
5879	0	30370	
5880	0	30480	
5881	0	30572	
5882	0	30660	
5883	0	30688	
5884	0	30728	
5885	0	30792	
5886	0	30808	
5887	0	30876	
5888	0	30920	
5889	0	30952	
5890	0	30980	
5891	0	31004	
5892	0	31056	
5893	0	31072	
5894	0	31088	
5895	0	31192	
5896	0	31338	
5897	0	31376	
5898	0	31336	
5899	0	31260	
5900	0	31120	
5901	0	30896	
5902	0	30892	
5903	0	30988	
5904	0	31076	
5905	0	31176	
5906	0	31300	
5907	0	31408	
5908	0	31512	
5909	0	31558	
5910	0	31604	
5911	0	31620	
5912	0	31578	
5913	0	31564	
5914	0	31576	
5915	0	31584	
5916	0	31552	
5917	0	31560	
5918	0	31560	
5919	0	31576	
5920	0	31564	
5921	0	31588	
5922	0	31612	
5923	0	31632	
5924	0	31652	
5925	0	31664	
5926	0	31676	
5927	0	31696	
5928	0	31704	
5929	0	31744	
5930	0	31828	
5931	0	31860	
5932	0	31876	
5933	0	31840	
5934	0	31812	
5935	0	31808	
5936	0	31780	
5937	0	31776	
5938	0	31768	
5939	0	31744	
5940	0	31736	
5941	0	31756	
5942	0	31736	
5943	0	31692	
5944	0	31664	
5945	0	31750	
5946	0	31892	
5947	0	31920	
5948	0	31832	
5949	0	31756	
5950	0	31776	
5951	0	31812	
5952	0	31868	
5953	0	31920	
5954	0	31892	
5955	0	31812	
5956	0	31736	
5957	0	31794	
5958	0	31904	
5959	0	31856	
5960	0	31784	
5961	0	31800	
5962	0	31832	
5963	0	31840	
5964	0	31820	
5965	0	31800	
5966	0	31764	
5967	0	31754	
5968	0	31800	
5969	0	31792	
5970	0	31772	
5971	0	31756	
5972	0	31824	
5973	0	31920	
5974	0	31940	
5975	0	31872	
5976	0	31840	
5977	0	31828	
5978	0	31832	
5979	0	31810	
5980	0	31778	
5981	0	31776	
5982	0	31752	
5983	0	31704	
5984	0	31670	
5985	0	31688	
5986	0	31744	
5987	0	31812	
5988	0	31864	
5989	0	31912	
5990	0	31960	
5991	0	31956	
5992	0	31956	
5993	0	31988	
5994	0	32028	
5995	0	32060	
5996	0	32014	
5997	0	31968	
5998	0	31908	
5999	0	31864	
6000	0	31868	
6001	0	31880	
6002	0	31876	
6003	0	31872	
6004	0	31904	
6005	0	31954	
6006	0	31976	
6007	0	31992	
6008	0	31972	
6009	0	31960	
6010	0	31952	
6011	0	31968	
6012	0	32004	
6013	0	32024	
6014	0	32000	
6015	0	31984	
6016	0	32010	
6017	0	32016	
6018	0	32016	
6019	0	32032	
6020	0	32064	
6021	0	32120	
6022	0	32024	
6023	0	31892	
6024	0	31896	
6025	0	31940	
6026	0	31972	
6027	0	31936	
6028	0	31876	
6029	0	31876	
6030	0	31988	
6031	0	32064	
6032	0	32084	
6033	0	32094	
6034	0	32104	
6035	0	32168	
6036	0	32208	
6037	0	32228	
6038	0	32178	
6039	0	32112	
6040	0	32028	
6041	0	32000	
6042	0	32000	
6043	0	31948	
6044	0	31916	
6045	0	31990	
6046	0	32080	
6047	0	32092	
6048	0	32056	
6049	0	32110	
6050	0	32156	
6051	0	32140	
6052	0	32104	
6053	0	32072	
6054	0	32074	
6055	0	32140	
6056	0	32160	
6057	0	32192	
6058	0	32208	
6059	0	32176	
6060	0	32154	
6061	0	32128	
6062	0	32160	
6063	0	32192	
6064	0	32224	
6065	0	32250	
6066	0	32240	
6067	0	32184	
6068	0	32172	
6069	0	32192	
6070	0	32232	
6071	0	32240	
6072	0	32224	
6073	0	32268	
6074	0	32328	
6075	0	32328	
6076	0	32288	
6077	0	32264	
6078	0	32256	
6079	0	32260	
6080	0	32216	
6081	0	32194	
6082	0	32216	
6083	0	32256	
6084	0	32264	
6085	0	32244	
6086	0	32298	
6087	0	32372	
6088	0	32400	
6089	0	32424	
6090	0	32464	
6091	0	32460	
6092	0	32470	
6093	0	32456	
6094	0	32420	
6095	0	32416	
6096	0	32448	
6097	0	32508	
6098	0	32508	
6099	0	32424	
6100	0	32376	
6101	0	32376	
6102	0	32388	
6103	0	32386	
6104	0	32380	
6105	0	32376	
6106	0	32396	
6107	0	32488	
6108	0	32548	
6109	0	32590	
6110	0	32608	
6111	0	32634	
6112	0	32644	
6113	0	32680	
6114	0	32720	
6115	0	32704	
6116	0	32644	
6117	0	32624	
6118	0	32592	
6119	0	32500	
6120	0	32412	
6121	0	32464	
6122	0	32500	
6123	0	32568	
6124	0	32640	
6125	0	32612	
6126	0	32612	
6127	0	32640	
6128	0	32708	
6129	0	32796	
6130	0	32876	
6131	0	32924	
6132	0	32960	
6133	0	33000	
6134	0	33096	
6135	0	33216	
6136	0	33292	
6137	0	33304	
6138	0	33322	
6139	0	33434	
6140	0	33556	
6141	0	33580	
6142	0	33616	
6143	0	33664	
6144	0	33696	
6145	0	33716	
6146	0	33760	
6147	0	33708	
6148	0	33588	
6149	0	33504	
6150	0	33448	
6151	0	33476	
6152	0	33492	
6153	0	33424	
6154	0	33348	
6155	0	33324	
6156	0	33368	
6157	0	33456	
6158	0	33556	
6159	0	33664	
6160	0	33812	
6161	0	34096	
6162	0	34424	
6163	0	34680	
6164	0	34920	
6165	0	35136	
6166	0	35320	
6167	0	35488	
6168	0	35608	
6169	0	35664	
6170	0	35780	
6171	0	35888	
6172	0	35928	
6173	0	35856	
6174	0	35668	
6175	0	35518	
6176	0	35412	
6177	0	35360	
6178	0	35284	
6179	0	35182	
6180	0	35080	
6181	0	34940	
6182	0	34752	
6183	0	34604	
6184	0	34464	
6185	0	34324	
6186	0	34224	
6187	0	34180	
6188	0	34112	
6189	0	34004	
6190	0	33848	
6191	0	33772	
6192	0	33728	
6193	0	33660	
6194	0	33556	
6195	0	33444	
6196	0	33312	
6197	0	33190	
6198	0	33064	
6199	0	32964	
6200	0	32928	
6201	0	32896	
6202	0	32828	
6203	0	32746	
6204	0	32640	
6205	0	32540	
6206	0	32424	
6207	0	32316	
6208	0	32240	
6209	0	32192	
6210	0	32110	
6211	0	31992	
6212	0	31864	
6213	0	31720	
6214	0	31624	
6215	0	31540	
6216	0	31472	
6217	0	31416	
6218	0	31388	
6219	0	31386	
6220	0	31404	
6221	0	31396	
6222	0	31384	
6223	0	31380	
6224	0	31392	
6225	0	31432	
6226	0	31448	
6227	0	31402	
6228	0	31372	
6229	0	31378	
6230	0	31396	
6231	0	31416	
6232	0	31440	
6233	0	31456	
6234	0	31464	
6235	0	31456	
6236	0	31464	
6237	0	31472	
6238	0	31464	
6239	0	31476	
6240	0	31496	
6241	0	31536	
6242	0	31548	
6243	0	31540	
6244	0	31584	
6245	0	31636	
6246	0	31696	
6247	0	31732	
6248	0	31768	
6249	0	31828	
6250	0	31880	
6251	0	31940	
6252	0	32008	
6253	0	32056	
6254	0	32084	
6255	0	32052	
6256	0	31968	
6257	0	31904	
6258	0	31848	
6259	0	31792	
6260	0	31668	
6261	0	31504	
6262	0	31304	
6263	0	31024	
6264	0	30628	
6265	0	30048	
6266	0	29392	
6267	0	28920	
6268	0	28608	
6269	0	28496	
6270	0	28548	
6271	0	28772	
6272	0	29188	
6273	0	29732	
6274	0	30464	
6275	0	31396	
6276	0	32488	
6277	0	33788	
6278	0	35188	
6279	0	36636	
6280	0	38296	
6281	0	40292	
6282	0	42512	
6283	0	45088	
6284	0	48064	
6285	0	51092	
6286	0	54044	
6287	0	56912	
6288	0	59780	
6289	0	62256	
6290	0	63648	
6291	0	64336	
6292	0	64640	
6293	0	64752	
6294	0	64760	
6295	0	64716	
6296	0	64624	
6297	0	64508	
6298	0	64384	
6299	0	61476	
6300	0	56624	
6301	0	52544	
6302	0	49064	
6303	0	46104	
6304	0	43652	
6305	0	41536	
6306	0	39552	
6307	0	37696	
6308	0	35992	
6309	0	34388	
6310	0	32956	
6311	0	31786	
6312	0	30732	
6313	0	29784	
6314	0	29116	
6315	0	28636	
6316	0	28304	
6317	0	28124	
6318	0	27980	
6319	0	27744	
6320	0	27464	
6321	0	27224	
6322	0	27084	
6323	0	27052	
6324	0	27160	
6325	0	27336	
6326	0	27616	
6327	0	27900	
6328	0	28164	
6329	0	28376	
6330	0	28588	
6331	0	28760	
6332	0	28832	
6333	0	28864	
6334	0	28860	
6335	0	28848	
6336	0	28832	
6337	0	28804	
6338	0	28720	
6339	0	28648	
6340	0	28636	
6341	0	28642	
6342	0	28672	
6343	0	28708	
6344	0	28664	
6345	0	28642	
6346	0	28670	
6347	0	28736	
6348	0	28796	
6349	0	28840	
6350	0	28864	
6351	0	28896	
6352	0	28942	
6353	0	29008	
6354	0	29024	
6355	0	29056	
6356	0	29064	
6357	0	29074	
6358	0	29088	
6359	0	29088	
6360	0	29114	
6361	0	29176	
6362	0	29256	
6363	0	29320	
6364	0	29368	
6365	0	29372	
6366	0	29384	
6367	0	29412	
6368	0	29392	
6369	0	29388	
6370	0	29380	
6371	0	29404	
6372	0	29432	
6373	0	29488	
6374	0	29576	
6375	0	29612	
6376	0	29612	
6377	0	29644	
6378	0	29728	
6379	0	29776	
6380	0	29836	
6381	0	29904	
6382	0	29980	
6383	0	30100	
6384	0	30240	
6385	0	30336	
6386	0	30408	
6387	0	30468	
6388	0	30512	
6389	0	30568	
6390	0	30672	
6391	0	30720	
6392	0	30768	
6393	0	30808	
6394	0	30836	
6395	0	30844	
6396	0	30860	
6397	0	30928	
6398	0	31000	
6399	0	31008	
6400	0	30960	
6401	0	30904	
6402	0	30900	
6403	0	30884	
6404	0	30932	
6405	0	31044	
6406	0	31136	
6407	0	31260	
6408	0	31352	
6409	0	31412	
6410	0	31412	
6411	0	31472	
6412	0	31560	
6413	0	31608	
6414	0	31652	
6415	0	31700	
6416	0	31700	
6417	0	31644	
6418	0	31664	
6419	0	31754	
6420	0	31840	
6421	0	31896	
6422	0	31908	
6423	0	31938	
6424	0	32020	
6425	0	32080	
6426	0	32136	
6427	0	32176	
6428	0	32248	
6429	0	32306	
6430	0	32380	
6431	0	32460	
6432	0	32504	
6433	0	32552	
6434	0	32624	
6435	0	32692	
6436	0	32720	
6437	0	32716	
6438	0	32724	
6439	0	32760	
6440	0	32812	
6441	0	32868	
6442	0	32980	
6443	0	33056	
6444	0	33152	
6445	0	33220	
6446	0	33252	
6447	0	33312	
6448	0	33372	
6449	0	33460	
6450	0	33476	
6451	0	33504	
6452	0	33592	
6453	0	33668	
6454	0	33768	
6455	0	33856	
6456	0	33928	
6457	0	33992	
6458	0	34060	
6459	0	34160	
6460	0	34272	
6461	0	34312	
6462	0	34332	
6463	0	34408	
6464	0	34528	
6465	0	34600	
6466	0	34640	
6467	0	34724	
6468	0	34872	
6469	0	34968	
6470	0	35032	
6471	0	35092	
6472	0	35160	
6473	0	35272	
6474	0	35344	
6475	0	35438	
6476	0	35540	
6477	0	35620	
6478	0	35710	
6479	0	35808	
6480	0	35876	
6481	0	35916	
6482	0	35944	
6483	0	36016	
6484	0	36120	
6485	0	36236	
6486	0	36380	
6487	0	36480	
6488	0	36616	
6489	0	36724	
6490	0	36824	
6491	0	36922	
6492	0	37024	
6493	0	37096	
6494	0	37192	
6495	0	37244	
6496	0	37296	
6497	0	37320	
6498	0	37356	
6499	0	37422	
6500	0	37532	
6501	0	37588	
6502	0	37632	
6503	0	37676	
6504	0	37728	
6505	0	37764	
6506	0	37816	
6507	0	37880	
6508	0	37976	
6509	0	38048	
6510	0	38080	
6511	0	38104	
6512	0	38084	
6513	0	38072	
6514	0	38076	
6515	0	38080	
6516	0	38042	
6517	0	38052	
6518	0	38048	
6519	0	38048	
6520	0	37988	
6521	0	37912	
6522	0	37840	
6523	0	37788	
6524	0	37780	
6525	0	37804	
6526	0	37832	
6527	0	37848	
6528	0	37820	
6529	0	37758	
6530	0	37676	
6531	0	37584	
6532	0	37528	
6533	0	37460	
6534	0	37384	
6535	0	37280	
6536	0	37176	
6537	0	37048	
6538	0	36922	
6539	0	36776	
6540	0	36628	
6541	0	36460	
6542	0	36272	
6543	0	36040	
6544	0	35840	
6545	0	35688	
6546	0	35536	
6547	0	35356	
6548	0	35160	
6549	0	34948	
6550	0	34744	
6551	0	34564	
6552	0	34360	
6553	0	34136	
6554	0	33932	
6555	0	33720	
6556	0	33484	
6557	0	33248	
6558	0	33052	
6559	0	32856	
6560	0	32668	
6561	0	32448	
6562	0	32236	
6563	0	32052	
6564	0	31882	
6565	0	31680	
6566	0	31444	
6567	0	31202	
6568	0	31024	
6569	0	30884	
6570	0	30732	
6571	0	30576	
6572	0	30464	
6573	0	30312	
6574	0	30188	
6575	0	30080	
6576	0	30048	
6577	0	29976	
6578	0	29844	
6579	0	29728	
6580	0	29612	
6581	0	29516	
6582	0	29420	
6583	0	29292	
6584	0	29156	
6585	0	29028	
6586	0	28938	
6587	0	28920	
6588	0	28892	
6589	0	28864	
6590	0	28852	
6591	0	28832	
6592	0	28844	
6593	0	28852	
6594	0	28824	
6595	0	28732	
6596	0	28656	
6597	0	28620	
6598	0	28560	
6599	0	28528	
6600	0	28536	
6601	0	28532	
6602	0	28508	
6603	0	28484	
6604	0	28464	
6605	0	28492	
6606	0	28524	
6607	0	28580	
6608	0	28580	
6609	0	28592	
6610	0	28584	
6611	0	28584	
6612	0	28612	
6613	0	28616	
6614	0	28608	
6615	0	28652	
6616	0	28720	
6617	0	28736	
6618	0	28736	
6619	0	28752	
6620	0	28728	
6621	0	28736	
6622	0	28760	
6623	0	28808	
6624	0	28868	
6625	0	28908	
6626	0	28976	
6627	0	29032	
6628	0	29080	
6629	0	29104	
6630	0	29128	
6631	0	29160	
6632	0	29244	
6633	0	29300	
6634	0	29352	
6635	0	29352	
6636	0	29328	
6637	0	29328	
6638	0	29316	
6639	0	29320	
6640	0	29368	
6641	0	29404	
6642	0	29472	
6643	0	29568	
6644	0	29640	
6645	0	29716	
6646	0	29796	
6647	0	29900	
6648	0	29964	
6649	0	29928	
6650	0	29918	
6651	0	29952	
6652	0	29996	
6653	0	30064	
6654	0	30116	
6655	0	30148	
6656	0	30128	
6657	0	30116	
6658	0	30120	
6659	0	30136	
6660	0	30185	
6661	0	30280	
6662	0	30372	
6663	0	30404	
6664	0	30452	
6665	0	30492	
6666	0	30560	
6667	0	30660	
6668	0	30730	
6669	0	30762	
6670	0	30800	
6671	0	30848	
6672	0	30892	
6673	0	30880	
6674	0	30896	
6675	0	30924	
6676	0	30978	
6677	0	30960	
6678	0	30880	
6679	0	30840	
6680	0	30804	
6681	0	30792	
6682	0	30764	
6683	0	30752	
6684	0	30770	
6685	0	30796	
6686	0	30816	
6687	0	30908	
6688	0	31024	
6689	0	31096	
6690	0	31168	
6691	0	31252	
6692	0	31316	
6693	0	31308	
6694	0	31264	
6695	0	31224	
6696	0	31176	
6697	0	31180	
6698	0	31184	
6699	0	31156	
6700	0	31180	
6701	0	31256	
6702	0	31308	
6703	0	31344	
6704	0	31352	
6705	0	31384	
6706	0	31448	
6707	0	31520	
6708	0	31524	
6709	0	31504	
6710	0	31512	
6711	0	31520	
6712	0	31520	
6713	0	31536	
6714	0	31568	
6715	0	31592	
6716	0	31584	
6717	0	31612	
6718	0	31632	
6719	0	31628	
6720	0	31614	
6721	0	31600	
6722	0	31568	
6723	0	31564	
6724	0	31580	
6725	0	31592	
6726	0	31584	
6727	0	31564	
6728	0	31562	
6729	0	31564	
6730	0	31600	
6731	0	31680	
6732	0	31740	
6733	0	31778	
6734	0	31808	
6735	0	31760	
6736	0	31664	
6737	0	31604	
6738	0	31588	
6739	0	31580	
6740	0	31600	
6741	0	31604	
6742	0	31597	
6743	0	31604	
6744	0	31680	
6745	0	31748	
6746	0	31792	
6747	0	31792	
6748	0	31772	
6749	0	31772	
6750	0	31804	
6751	0	31768	
6752	0	31744	
6753	0	31728	
6754	0	31684	
6755	0	31668	
6756	0	31648	
6757	0	31600	
6758	0	31568	
6759	0	31592	
6760	0	31602	
6761	0	31564	
6762	0	31540	
6763	0	31568	
6764	0	31564	
6765	0	31548	
6766	0	31504	
6767	0	31544	
6768	0	31576	
6769	0	31620	
6770	0	31680	
6771	0	31676	
6772	0	31656	
6773	0	31680	
6774	0	31696	
6775	0	31708	
6776	0	31740	
6777	0	31804	
6778	0	31820	
6779	0	31840	
6780	0	31834	
6781	0	31824	
6782	0	31806	
6783	0	31792	
6784	0	31820	
6785	0	31812	
6786	0	31744	
6787	0	31740	
6788	0	31774	
6789	0	31784	
6790	0	31816	
6791	0	31840	
6792	0	31824	
6793	0	31808	
6794	0	31828	
6795	0	31868	
6796	0	31872	
6797	0	31832	
6798	0	31816	
6799	0	31800	
6800	0	31760	
6801	0	31696	
6802	0	31696	
6803	0	31716	
6804	0	31720	
6805	0	31688	
6806	0	31684	
6807	0	31724	
6808	0	31768	
6809	0	31804	
6810	0	31832	
6811	0	31884	
6812	0	31936	
6813	0	31964	
6814	0	31984	
6815	0	31972	
6816	0	31992	
6817	0	31980	
6818	0	31944	
6819	0	31912	
6820	0	31880	
6821	0	31868	
6822	0	31872	
6823	0	31860	
6824	0	31836	
6825	0	31776	
6826	0	31796	
6827	0	31784	
6828	0	31748	
6829	0	31736	
6830	0	31736	
6831	0	31720	
6832	0	31716	
6833	0	31736	
6834	0	31744	
6835	0	31756	
6836	0	31792	
6837	0	31816	
6838	0	31840	
6839	0	31860	
6840	0	31896	
6841	0	31964	
6842	0	31992	
6843	0	32028	
6844	0	32010	
6845	0	31948	
6846	0	31876	
6847	0	31864	
6848	0	31840	
6849	0	31844	
6850	0	31840	
6851	0	31808	
6852	0	31840	
6853	0	31860	
6854	0	31848	
6855	0	31842	
6856	0	31852	
6857	0	31904	
6858	0	31940	
6859	0	31980	
6860	0	32008	
6861	0	32032	
6862	0	32016	
6863	0	31952	
6864	0	31914	
6865	0	31908	
6866	0	31936	
6867	0	32016	
6868	0	32080	
6869	0	32088	
6870	0	32136	
6871	0	32132	
6872	0	32120	
6873	0	32128	
6874	0	32128	
6875	0	32096	
6876	0	32012	
6877	0	31972	
6878	0	31936	
6879	0	31964	
6880	0	32052	
6881	0	32132	
6882	0	32192	
6883	0	32232	
6884	0	32272	
6885	0	32280	
6886	0	32256	
6887	0	32260	
6888	0	32316	
6889	0	32416	
6890	0	32512	
6891	0	32640	
6892	0	32666	
6893	0	32732	
6894	0	32816	
6895	0	32868	
6896	0	32916	
6897	0	32984	
6898	0	33060	
6899	0	33168	
6900	0	33216	
6901	0	33220	
6902	0	33212	
6903	0	33184	
6904	0	33216	
6905	0	33224	
6906	0	33224	
6907	0	33232	
6908	0	33236	
6909	0	33220	
6910	0	33144	
6911	0	33084	
6912	0	33056	
6913	0	33084	
6914	0	33160	
6915	0	33240	
6916	0	33264	
6917	0	33320	
6918	0	33440	
6919	0	33640	
6920	0	33876	
6921	0	34128	
6922	0	34396	
6923	0	34672	
6924	0	34872	
6925	0	35024	
6926	0	35204	
6927	0	35384	
6928	0	35544	
6929	0	35656	
6930	0	35700	
6931	0	35640	
6932	0	35540	
6933	0	35404	
6934	0	35252	
6935	0	35160	
6936	0	35048	
6937	0	34912	
6938	0	34800	
6939	0	34656	
6940	0	34508	
6941	0	34400	
6942	0	34266	
6943	0	34108	
6944	0	33964	
6945	0	33852	
6946	0	33696	
6947	0	33560	
6948	0	33476	
6949	0	33452	
6950	0	33452	
6951	0	33464	
6952	0	33486	
6953	0	33388	
6954	0	33212	
6955	0	33080	
6956	0	32960	
6957	0	32796	
6958	0	32676	
6959	0	32600	
6960	0	32480	
6961	0	32396	
6962	0	32344	
6963	0	32288	
6964	0	32180	
6965	0	32052	
6966	0	31920	
6967	0	31832	
6968	0	31688	
6969	0	31564	
6970	0	31392	
6971	0	31192	
6972	0	31032	
6973	0	30940	
6974	0	30960	
6975	0	31040	
6976	0	31100	
6977	0	31168	
6978	0	31184	
6979	0	31184	
6980	0	31148	
6981	0	31136	
6982	0	31176	
6983	0	31216	
6984	0	31192	
6985	0	31200	
6986	0	31202	
6987	0	31200	
6988	0	31220	
6989	0	31296	
6990	0	31352	
6991	0	31420	
6992	0	31500	
6993	0	31538	
6994	0	31564	
6995	0	31540	
6996	0	31516	
6997	0	31492	
6998	0	31508	
6999	0	31528	
7000	0	31518	
7001	0	31492	
7002	0	31468	
7003	0	31528	
7004	0	31616	
7005	0	31680	
7006	0	31744	
7007	0	31820	
7008	0	31924	
7009	0	31968	
7010	0	32032	
7011	0	32104	
7012	0	32152	
7013	0	32156	
7014	0	32122	
7015	0	32008	
7016	0	31948	
7017	0	31856	
7018	0	31752	
7019	0	31584	
7020	0	31344	
7021	0	30956	
7022	0	30372	
7023	0	29688	
7024	0	29120	
7025	0	28768	
7026	0	28596	
7027	0	28588	
7028	0	28712	
7029	0	29040	
7030	0	29608	
7031	0	30408	
7032	0	31436	
7033	0	32504	
7034	0	33680	
7035	0	35020	
7036	0	36428	
7037	0	37952	
7038	0	39752	
7039	0	41836	
7040	0	44352	
7041	0	47200	
7042	0	50168	
7043	0	53144	
7044	0	56008	
7045	0	58856	
7046	0	61636	
7047	0	63404	
7048	0	64320	
7049	0	64760	
7050	0	64944	
7051	0	64984	
7052	0	64928	
7053	0	64848	
7054	0	64748	
7055	0	61792	
7056	0	56584	
7057	0	51664	
7058	0	47440	
7059	0	43964	
7060	0	41100	
7061	0	38800	
7062	0	36896	
7063	0	35164	
7064	0	33624	
7065	0	32204	
7066	0	30784	
7067	0	29368	
7068	0	28116	
7069	0	27160	
7070	0	26522	
7071	0	26136	
7072	0	25926	
7073	0	25928	
7074	0	26020	
7075	0	26076	
7076	0	25980	
7077	0	25889	
7078	0	25936	
7079	0	26116	
7080	0	26354	
7081	0	26649	
7082	0	26996	
7083	0	27360	
7084	0	27732	
7085	0	28064	
7086	0	28440	
7087	0	28816	
7088	0	29072	
7089	0	29268	
7090	0	29420	
7091	0	29540	
7092	0	29664	
7093	0	29772	
7094	0	29872	
7095	0	29960	
7096	0	29968	
7097	0	29936	
7098	0	29928	
7099	0	29886	
7100	0	29872	
7101	0	29812	
7102	0	29776	
7103	0	29776	
7104	0	29816	
7105	0	29864	
7106	0	29940	
7107	0	30024	
7108	0	30096	
7109	0	30160	
7110	0	30148	
7111	0	30144	
7112	0	30168	
7113	0	30196	
7114	0	30272	
7115	0	30380	
7116	0	30432	
7117	0	30448	
7118	0	30480	
7119	0	30472	
7120	0	30464	
7121	0	30488	
7122	0	30532	
7123	0	30560	
7124	0	30608	
7125	0	30638	
7126	0	30696	
7127	0	30778	
7128	0	30856	
7129	0	30884	
7130	0	30916	
7131	0	30964	
7132	0	31016	
7133	0	31054	
7134	0	31080	
7135	0	31108	
7136	0	31124	
7137	0	31172	
7138	0	31232	
7139	0	31272	
7140	0	31304	
7141	0	31326	
7142	0	31344	
7143	0	31396	
7144	0	31456	
7145	0	31552	
7146	0	31666	
7147	0	31740	
7148	0	31796	
7149	0	31818	
7150	0	31860	
7151	0	31980	
7152	0	32088	
7153	0	32112	
7154	0	32128	
7155	0	32144	
7156	0	32160	
7157	0	32224	
7158	0	32248	
7159	0	32262	
7160	0	32276	
7161	0	32320	
7162	0	32328	
7163	0	32312	
7164	0	32292	
7165	0	32270	
7166	0	32320	
7167	0	32388	
7168	0	32472	
7169	0	32596	
7170	0	32708	
7171	0	32756	
7172	0	32720	
7173	0	32704	
7174	0	32760	
7175	0	32816	
7176	0	32872	
7177	0	32936	
7178	0	32988	
7179	0	33044	
7180	0	33096	
7181	0	33146	
7182	0	33168	
7183	0	33236	
7184	0	33288	
7185	0	33352	
7186	0	33388	
7187	0	33428	
7188	0	33480	
7189	0	33544	
7190	0	33628	
7191	0	33672	
7192	0	33680	
7193	0	33696	
7194	0	33696	
7195	0	33720	
7196	0	33744	
7197	0	33760	
7198	0	33816	
7199	0	33840	
7200	0	33888	
7201	0	33940	
7202	0	33988	
7203	0	34072	
7204	0	34172	
7205	0	34252	
7206	0	34320	
7207	0	34404	
7208	0	34520	
7209	0	34644	
7210	0	34748	
7211	0	34840	
7212	0	34936	
7213	0	35032	
7214	0	35100	
7215	0	35156	
7216	0	35200	
7217	0	35244	
7218	0	35320	
7219	0	35384	
7220	0	35448	
7221	0	35500	
7222	0	35552	
7223	0	35640	
7224	0	35712	
7225	0	35752	
7226	0	35816	
7227	0	35924	
7228	0	35992	
7229	0	36024	
7230	0	36096	
7231	0	36188	
7232	0	36272	
7233	0	36384	
7234	0	36528	
7235	0	36636	
7236	0	36760	
7237	0	36890	
7238	0	36980	
7239	0	37024	
7240	0	37080	
7241	0	37196	
7242	0	37320	
7243	0	37404	
7244	0	37452	
7245	0	37560	
7246	0	37696	
7247	0	37824	
7248	0	37932	
7249	0	38012	
7250	0	38060	
7251	0	38064	
7252	0	38076	
7253	0	38136	
7254	0	38208	
7255	0	38252	
7256	0	38304	
7257	0	38400	
7258	0	38490	
7259	0	38528	
7260	0	38556	
7261	0	38584	
7262	0	38618	
7263	0	38632	
7264	0	38656	
7265	0	38668	
7266	0	38674	
7267	0	38664	
7268	0	38636	
7269	0	38640	
7270	0	38664	
7271	0	38680	
7272	0	38704	
7273	0	38668	
7274	0	38680	
7275	0	38624	
7276	0	38616	
7277	0	38600	
7278	0	38516	
7279	0	38440	
7280	0	38400	
7281	0	38328	
7282	0	38244	
7283	0	38136	
7284	0	38040	
7285	0	37964	
7286	0	37880	
7287	0	37772	
7288	0	37740	
7289	0	37732	
7290	0	37740	
7291	0	37656	
7292	0	37528	
7293	0	37440	
7294	0	37348	
7295	0	37204	
7296	0	37004	
7297	0	36804	
7298	0	36640	
7299	0	36480	
7300	0	36340	
7301	0	36152	
7302	0	35932	
7303	0	35704	
7304	0	35476	
7305	0	35220	
7306	0	34964	
7307	0	34728	
7308	0	34496	
7309	0	34282	
7310	0	34088	
7311	0	33882	
7312	0	33684	
7313	0	33496	
7314	0	33272	
7315	0	33028	
7316	0	32804	
7317	0	32612	
7318	0	32428	
7319	0	32292	
7320	0	32144	
7321	0	31978	
7322	0	31812	
7323	0	31620	
7324	0	31412	
7325	0	31208	
7326	0	31000	
7327	0	30824	
7328	0	30672	
7329	0	30532	
7330	0	30424	
7331	0	30296	
7332	0	30156	
7333	0	30036	
7334	0	29900	
7335	0	29800	
7336	0	29716	
7337	0	29600	
7338	0	29472	
7339	0	29328	
7340	0	29216	
7341	0	29120	
7342	0	29060	
7343	0	29016	
7344	0	28964	
7345	0	28884	
7346	0	28792	
7347	0	28752	
7348	0	28740	
7349	0	28744	
7350	0	28724	
7351	0	28706	
7352	0	28680	
7353	0	28612	
7354	0	28572	
7355	0	28532	
7356	0	28508	
7357	0	28440	
7358	0	28384	
7359	0	28332	
7360	0	28296	
7361	0	28288	
7362	0	28324	
7363	0	28364	
7364	0	28364	
7365	0	28340	
7366	0	28340	
7367	0	28360	
7368	0	28396	
7369	0	28460	
7370	0	28524	
7371	0	28572	
7372	0	28634	
7373	0	28720	
7374	0	28784	
7375	0	28834	
7376	0	28852	
7377	0	28876	
7378	0	28876	
7379	0	28868	
7380	0	28840	
7381	0	28828	
7382	0	28832	
7383	0	28816	
7384	0	28852	
7385	0	28896	
7386	0	28952	
7387	0	29020	
7388	0	29096	
7389	0	29136	
7390	0	29194	
7391	0	29208	
7392	0	29220	
7393	0	29260	
7394	0	29304	
7395	0	29328	
7396	0	29378	
7397	0	29432	
7398	0	29460	
7399	0	29504	
7400	0	29536	
7401	0	29596	
7402	0	29644	
7403	0	29652	
7404	0	29636	
7405	0	29660	
7406	0	29720	
7407	0	29832	
7408	0	29912	
7409	0	29984	
7410	0	30064	
7411	0	30096	
7412	0	30084	
7413	0	30112	
7414	0	30128	
7415	0	30144	
7416	0	30168	
7417	0	30242	
7418	0	30280	
7419	0	30276	
7420	0	30268	
7421	0	30272	
7422	0	30308	
7423	0	30332	
7424	0	30337	
7425	0	30400	
7426	0	30500	
7427	0	30576	
7428	0	30640	
7429	0	30682	
7430	0	30688	
7431	0	30672	
7432	0	30666	
7433	0	30696	
7434	0	30740	
7435	0	30780	
7436	0	30820	
7437	0	30868	
7438	0	30918	
7439	0	30912	
7440	0	30876	
7441	0	30868	
7442	0	30912	
7443	0	30992	
7444	0	31052	
7445	0	31108	
7446	0	31136	
7447	0	31150	
7448	0	31168	
7449	0	31228	
7450	0	31288	
7451	0	31330	
7452	0	31392	
7453	0	31468	
7454	0	31492	
7455	0	31494	
7456	0	31512	
7457	0	31484	
7458	0	31460	
7459	0	31436	
7460	0	31466	
7461	0	31520	
7462	0	31532	
7463	0	31516	
7464	0	31500	
7465	0	31460	
7466	0	31512	
7467	0	31620	
7468	0	31688	
7469	0	31690	
7470	0	31656	
7471	0	31604	
7472	0	31576	
7473	0	31584	
7474	0	31608	
7475	0	31632	
7476	0	31624	
7477	0	31626	
7478	0	31616	
7479	0	31628	
7480	0	31672	
7481	0	31738	
7482	0	31812	
7483	0	31816	
7484	0	31852	
7485	0	31868	
7486	0	31840	
7487	0	31772	
7488	0	31782	
7489	0	31800	
7490	0	31816	
7491	0	31840	
7492	0	31844	
7493	0	31868	
7494	0	31864	
7495	0	31816	
7496	0	31736	
7497	0	31664	
7498	0	31608	
7499	0	31608	
7500	0	31624	
7501	0	31644	
7502	0	31608	
7503	0	31580	
7504	0	31624	
7505	0	31676	
7506	0	31702	
7507	0	31704	
7508	0	31704	
7509	0	31728	
7510	0	31760	
7511	0	31744	
7512	0	31744	
7513	0	31736	
7514	0	31716	
7515	0	31648	
7516	0	31624	
7517	0	31564	
7518	0	31552	
7519	0	31528	
7520	0	31524	
7521	0	31530	
7522	0	31512	
7523	0	31464	
7524	0	31430	
7525	0	31480	
7526	0	31520	
7527	0	31552	
7528	0	31564	
7529	0	31556	
7530	0	31496	
7531	0	31476	
7532	0	31472	
7533	0	31464	
7534	0	31428	
7535	0	31372	
7536	0	31388	
7537	0	31420	
7538	0	31424	
7539	0	31424	
7540	0	31424	
7541	0	31432	
7542	0	31456	
7543	0	31432	
7544	0	31444	
7545	0	31456	
7546	0	31472	
7547	0	31528	
7548	0	31592	
7549	0	31608	
7550	0	31620	
7551	0	31632	
7552	0	31660	
7553	0	31640	
7554	0	31610	
7555	0	31544	
7556	0	31500	
7557	0	31520	
7558	0	31516	
7559	0	31476	
7560	0	31452	
7561	0	31420	
7562	0	31396	
7563	0	31360	
7564	0	31340	
7565	0	31368	
7566	0	31412	
7567	0	31496	
7568	0	31552	
7569	0	31584	
7570	0	31600	
7571	0	31584	
7572	0	31588	
7573	0	31588	
7574	0	31576	
7575	0	31552	
7576	0	31552	
7577	0	31534	
7578	0	31524	
7579	0	31496	
7580	0	31500	
7581	0	31536	
7582	0	31500	
7583	0	31464	
7584	0	31432	
7585	0	31480	
7586	0	31540	
7587	0	31608	
7588	0	31632	
7589	0	31596	
7590	0	31584	
7591	0	31584	
7592	0	31628	
7593	0	31704	
7594	0	31768	
7595	0	31824	
7596	0	31848	
7597	0	31856	
7598	0	31840	
7599	0	31808	
7600	0	31800	
7601	0	31804	
7602	0	31824	
7603	0	31824	
7604	0	31836	
7605	0	31856	
7606	0	31892	
7607	0	31936	
7608	0	32032	
7609	0	32180	
7610	0	32328	
7611	0	32440	
7612	0	32484	
7613	0	32512	
7614	0	32544	
7615	0	32634	
7616	0	32764	
7617	0	32844	
7618	0	32904	
7619	0	32962	
7620	0	33022	
7621	0	33100	
7622	0	33112	
7623	0	33052	
7624	0	33040	
7625	0	32992	
7626	0	32968	
7627	0	32942	
7628	0	32928	
7629	0	32904	
7630	0	32892	
7631	0	32864	
7632	0	32872	
7633	0	32940	
7634	0	33032	
7635	0	33164	
7636	0	33360	
7637	0	33600	
7638	0	33912	
7639	0	34208	
7640	0	34382	
7641	0	34564	
7642	0	34684	
7643	0	34724	
7644	0	34816	
7645	0	34920	
7646	0	35012	
7647	0	35076	
7648	0	35104	
7649	0	35040	
7650	0	34964	
7651	0	34888	
7652	0	34808	
7653	0	34756	
7654	0	34712	
7655	0	34626	
7656	0	34460	
7657	0	34240	
7658	0	34020	
7659	0	33832	
7660	0	33724	
7661	0	33624	
7662	0	33568	
7663	0	33500	
7664	0	33352	
7665	0	33216	
7666	0	33124	
7667	0	33056	
7668	0	33028	
7669	0	32996	
7670	0	32912	
7671	0	32784	
7672	0	32680	
7673	0	32620	
7674	0	32604	
7675	0	32576	
7676	0	32464	
7677	0	32326	
7678	0	32136	
7679	0	31912	
7680	0	31724	
7681	0	31616	
7682	0	31512	
7683	0	31420	
7684	0	31352	
7685	0	31308	
7686	0	31244	
7687	0	31160	
7688	0	31072	
7689	0	31004	
7690	0	30948	
7691	0	30920	
7692	0	30904	
7693	0	30864	
7694	0	30852	
7695	0	30860	
7696	0	30904	
7697	0	30904	
7698	0	30848	
7699	0	30756	
7700	0	30658	
7701	0	30632	
7702	0	30652	
7703	0	30714	
7704	0	30796	
7705	0	30852	
7706	0	30876	
7707	0	30890	
7708	0	30944	
7709	0	31028	
7710	0	31116	
7711	0	31176	
7712	0	31236	
7713	0	31256	
7714	0	31252	
7715	0	31188	
7716	0	31080	
7717	0	30974	
7718	0	30900	
7719	0	30872	
7720	0	30916	
7721	0	30968	
7722	0	30964	
7723	0	30936	
7724	0	30984	
7725	0	31068	
7726	0	31172	
7727	0	31252	
7728	0	31314	
7729	0	31364	
7730	0	31348	
7731	0	31336	
7732	0	31340	
7733	0	31376	
7734	0	31416	
7735	0	31376	
7736	0	31248	
7737	0	31016	
7738	0	30728	
7739	0	30328	
7740	0	29768	
7741	0	29098	
7742	0	28508	
7743	0	28104	
7744	0	27900	
7745	0	27904	
7746	0	28000	
7747	0	28308	
7748	0	28832	
7749	0	29604	
7750	0	30562	
7751	0	31594	
7752	0	32752	
7753	0	34082	
7754	0	35514	
7755	0	37024	
7756	0	38824	
7757	0	40996	
7758	0	43496	
7759	0	46416	
7760	0	49520	
7761	0	52596	
7762	0	55524	
7763	0	58452	
7764	0	61344	
7765	0	63272	
7766	0	64264	
7767	0	64732	
7768	0	64928	
7769	0	65000	
7770	0	64948	
7771	0	64872	
7772	0	64768	
7773	0	64640	
7774	0	59688	
7775	0	54764	
7776	0	50416	
7777	0	46784	
7778	0	43688	
7779	0	41128	
7780	0	38988	
7781	0	37008	
7782	0	35178	
7783	0	33460	
7784	0	31808	
7785	0	30216	
7786	0	28906	
7787	0	27856	
7788	0	27086	
7789	0	26546	
7790	0	26240	
7791	0	26096	
7792	0	26060	
7793	0	26052	
7794	0	25964	
7795	0	25924	
7796	0	25956	
7797	0	26008	
7798	0	26160	
7799	0	26372	
7800	0	26618	
7801	0	26880	
7802	0	27232	
7803	0	27642	
7804	0	27980	
7805	0	28312	
7806	0	28584	
7807	0	28786	
7808	0	28908	
7809	0	28984	
7810	0	29020	
7811	0	29002	
7812	0	29044	
7813	0	29092	
7814	0	29082	
7815	0	29032	
7816	0	29024	
7817	0	29036	
7818	0	29040	
7819	0	29056	
7820	0	29058	
7821	0	29056	
7822	0	29036	
7823	0	29024	
7824	0	29064	
7825	0	29150	
7826	0	29212	
7827	0	29256	
7828	0	29284	
7829	0	29298	
7830	0	29336	
7831	0	29384	
7832	0	29460	
7833	0	29528	
7834	0	29580	
7835	0	29592	
7836	0	29616	
7837	0	29644	
7838	0	29688	
7839	0	29732	
7840	0	29752	
7841	0	29780	
7842	0	29832	
7843	0	29872	
7844	0	29916	
7845	0	29944	
7846	0	29996	
7847	0	30064	
7848	0	30136	
7849	0	30184	
7850	0	30220	
7851	0	30304	
7852	0	30392	
7853	0	30440	
7854	0	30490	
7855	0	30548	
7856	0	30564	
7857	0	30592	
7858	0	30592	
7859	0	30576	
7860	0	30560	
7861	0	30576	
7862	0	30616	
7863	0	30684	
7864	0	30768	
7865	0	30828	
7866	0	30876	
7867	0	30932	
7868	0	31032	
7869	0	31112	
7870	0	31188	
7871	0	31232	
7872	0	31264	
7873	0	31304	
7874	0	31360	
7875	0	31410	
7876	0	31416	
7877	0	31432	
7878	0	31448	
7879	0	31456	
7880	0	31476	
7881	0	31524	
7882	0	31568	
7883	0	31638	
7884	0	31736	
7885	0	31796	
7886	0	31872	
7887	0	31932	
7888	0	31968	
7889	0	32008	
7890	0	32076	
7891	0	32132	
7892	0	32188	
7893	0	32276	
7894	0	32332	
7895	0	32348	
7896	0	32320	
7897	0	32300	
7898	0	32280	
7899	0	32308	
7900	0	32368	
7901	0	32416	
7902	0	32524	
7903	0	32636	
7904	0	32736	
7905	0	32796	
7906	0	32840	
7907	0	32948	
7908	0	33060	
7909	0	33136	
7910	0	33196	
7911	0	33248	
7912	0	33276	
7913	0	33328	
7914	0	33392	
7915	0	33432	
7916	0	33428	
7917	0	33392	
7918	0	33428	
7919	0	33548	
7920	0	33644	
7921	0	33732	
7922	0	33768	
7923	0	33848	
7924	0	33948	
7925	0	33984	
7926	0	34024	
7927	0	34084	
7928	0	34112	
7929	0	34176	
7930	0	34288	
7931	0	34408	
7932	0	34520	
7933	0	34604	
7934	0	34712	
7935	0	34800	
7936	0	34920	
7937	0	35052	
7938	0	35092	
7939	0	35124	
7940	0	35152	
7941	0	35234	
7942	0	35328	
7943	0	35412	
7944	0	35520	
7945	0	35596	
7946	0	35664	
7947	0	35780	
7948	0	35880	
7949	0	35976	
7950	0	36120	
7951	0	36252	
7952	0	36380	
7953	0	36468	
7954	0	36580	
7955	0	36680	
7956	0	36776	
7957	0	36876	
7958	0	36968	
7959	0	37052	
7960	0	37096	
7961	0	37146	
7962	0	37196	
7963	0	37192	
7964	0	37272	
7965	0	37344	
7966	0	37444	
7967	0	37540	
7968	0	37688	
7969	0	37796	
7970	0	37908	
7971	0	38004	
7972	0	38104	
7973	0	38184	
7974	0	38266	
7975	0	38328	
7976	0	38384	
7977	0	38402	
7978	0	38404	
7979	0	38428	
7980	0	38464	
7981	0	38468	
7982	0	38420	
7983	0	38428	
7984	0	38440	
7985	0	38460	
7986	0	38456	
7987	0	38456	
7988	0	38472	
7989	0	38480	
7990	0	38516	
7991	0	38524	
7992	0	38468	
7993	0	38424	
7994	0	38392	
7995	0	38376	
7996	0	38344	
7997	0	38284	
7998	0	38240	
7999	0	38236	
8000	0	38204	
8001	0	38132	
8002	0	38052	
8003	0	37980	
8004	0	37914	
8005	0	37868	
8006	0	37832	
8007	0	37780	
8008	0	37688	
8009	0	37572	
8010	0	37376	
8011	0	37176	
8012	0	37008	
8013	0	36880	
8014	0	36764	
8015	0	36616	
8016	0	36420	
8017	0	36212	
8018	0	35980	
8019	0	35772	
8020	0	35548	
8021	0	35328	
8022	0	35104	
8023	0	34904	
8024	0	34720	
8025	0	34500	
8026	0	34288	
8027	0	34060	
8028	0	33796	
8029	0	33580	
8030	0	33368	
8031	0	33152	
8032	0	32896	
8033	0	32616	
8034	0	32376	
8035	0	32200	
8036	0	31996	
8037	0	31784	
8038	0	31620	
8039	0	31432	
8040	0	31212	
8041	0	31016	
8042	0	30820	
8043	0	30616	
8044	0	30400	
8045	0	30200	
8046	0	30032	
8047	0	29936	
8048	0	29908	
8049	0	29856	
8050	0	29784	
8051	0	29744	
8052	0	29658	
8053	0	29488	
8054	0	29316	
8055	0	29212	
8056	0	29132	
8057	0	29068	
8058	0	28952	
8059	0	28848	
8060	0	28716	
8061	0	28656	
8062	0	28584	
8063	0	28533	
8064	0	28528	
8065	0	28520	
8066	0	28500	
8067	0	28480	
8068	0	28448	
8069	0	28424	
8070	0	28408	
8071	0	28384	
8072	0	28364	
8073	0	28356	
8074	0	28304	
8075	0	28272	
8076	0	28276	
8077	0	28264	
8078	0	28264	
8079	0	28248	
8080	0	28202	
8081	0	28156	
8082	0	28152	
8083	0	28148	
8084	0	28128	
8085	0	28140	
8086	0	28168	
8087	0	28212	
8088	0	28288	
8089	0	28352	
8090	0	28380	
8091	0	28406	
8092	0	28476	
8093	0	28560	
8094	0	28608	
8095	0	28612	
8096	0	28644	
8097	0	28660	
8098	0	28672	
8099	0	28672	
8100	0	28680	
8101	0	28682	
8102	0	28712	
8103	0	28730	
8104	0	28762	
8105	0	28818	
8106	0	28896	
8107	0	29008	
8108	0	29108	
8109	0	29188	
8110	0	29252	
8111	0	29284	
8112	0	29344	
8113	0	29414	
8114	0	29418	
8115	0	29384	
8116	0	29402	
8117	0	29380	
8118	0	29352	
8119	0	29336	
8120	0	29368	
8121	0	29396	
8122	0	29468	
8123	0	29504	
8124	0	29538	
8125	0	29608	
8126	0	29744	
8127	0	29864	
8128	0	29922	
8129	0	29976	
8130	0	29984	
8131	0	30038	
8132	0	30080	
8133	0	30084	
8134	0	30112	
8135	0	30112	
8136	0	30116	
8137	0	30120	
8138	0	30104	
8139	0	30120	
8140	0	30138	
8141	0	30124	
8142	0	30128	
8143	0	30176	
8144	0	30256	
8145	0	30336	
8146	0	30348	
8147	0	30404	
8148	0	30520	
8149	0	30596	
8150	0	30640	
8151	0	30672	
8152	0	30688	
8153	0	30680	
8154	0	30688	
8155	0	30712	
8156	0	30716	
8157	0	30724	
8158	0	30780	
8159	0	30844	
8160	0	30840	
8161	0	30784	
8162	0	30708	
8163	0	30656	
8164	0	30688	
8165	0	30772	
8166	0	30862	
8167	0	30960	
8168	0	31036	
8169	0	31076	
8170	0	31156	
8171	0	31232	
8172	0	31249	
8173	0	31216	
8174	0	31188	
8175	0	31228	
8176	0	31256	
8177	0	31224	
8178	0	31218	
8179	0	31226	
8180	0	31226	
8181	0	31220	
8182	0	31200	
8183	0	31180	
8184	0	31196	
8185	0	31252	
8186	0	31288	
8187	0	31344	
8188	0	31372	
8189	0	31408	
8190	0	31444	
8191	0	31496	
8192	0	31496	
8193	0	31480	
8194	0	31496	
8195	0	31524	
8196	0	31520	
8197	0	31508	
8198	0	31444	
8199	0	31404	
8200	0	31312	
8201	0	31200	
8202	0	31152	
8203	0	31230	
8204	0	31348	
8205	0	31440	
8206	0	31500	
8207	0	31520	
8208	0	31512	
8209	0	31504	
8210	0	31500	
8211	0	31524	
8212	0	31548	
8213	0	31576	
8214	0	31616	
8215	0	31636	
8216	0	31616	
8217	0	31624	
8218	0	31588	
8219	0	31560	
8220	0	31520	
8221	0	31506	
8222	0	31516	
8223	0	31530	
8224	0	31588	
8225	0	31624	
8226	0	31620	
8227	0	31596	
8228	0	31600	
8229	0	31584	
8230	0	31600	
8231	0	31642	
8232	0	31660	
8233	0	31664	
8234	0	31664	
8235	0	31698	
8236	0	31672	
8237	0	31640	
8238	0	31644	
8239	0	31656	
8240	0	31684	
8241	0	31692	
8242	0	31678	
8243	0	31636	
8244	0	31604	
8245	0	31568	
8246	0	31560	
8247	0	31544	
8248	0	31536	
8249	0	31552	
8250	0	31592	
8251	0	31616	
8252	0	31636	
8253	0	31668	
8254	0	31668	
8255	0	31624	
8256	0	31660	
8257	0	31712	
8258	0	31732	
8259	0	31708	
8260	0	31692	
8261	0	31684	
8262	0	31708	
8263	0	31762	
8264	0	31812	
8265	0	31788	
8266	0	31736	
8267	0	31716	
8268	0	31752	
8269	0	31776	
8270	0	31816	
8271	0	31808	
8272	0	31808	
8273	0	31814	
8274	0	31820	
8275	0	31824	
8276	0	31832	
8277	0	31832	
8278	0	31852	
8279	0	31868	
8280	0	31848	
8281	0	31832	
8282	0	31860	
8283	0	31880	
8284	0	31848	
8285	0	31840	
8286	0	31840	
8287	0	31828	
8288	0	31864	
8289	0	31940	
8290	0	31960	
8291	0	31964	
8292	0	31992	
8293	0	32012	
8294	0	32020	
8295	0	32044	
8296	0	32032	
8297	0	31996	
8298	0	32000	
8299	0	32028	
8300	0	32040	
8301	0	32068	
8302	0	32108	
8303	0	32128	
8304	0	32168	
8305	0	32160	
8306	0	32144	
8307	0	32152	
8308	0	32152	
8309	0	32148	
8310	0	32128	
8311	0	32106	
8312	0	32140	
8313	0	32220	
8314	0	32280	
8315	0	32288	
8316	0	32332	
8317	0	32312	
8318	0	32290	
8319	0	32240	
8320	0	32220	
8321	0	32184	
8322	0	32126	
8323	0	32080	
8324	0	32088	
8325	0	32128	
8326	0	32176	
8327	0	32244	
8328	0	32288	
8329	0	32314	
8330	0	32332	
8331	0	32360	
8332	0	32376	
8333	0	32422	
8334	0	32472	
8335	0	32448	
8336	0	32448	
8337	0	32440	
8338	0	32408	
8339	0	32372	
8340	0	32328	
8341	0	32328	
8342	0	32324	
8343	0	32304	
8344	0	32272	
8345	0	32272	
8346	0	32300	
8347	0	32380	
8348	0	32436	
8349	0	32486	
8350	0	32520	
8351	0	32520	
8352	0	32500	
8353	0	32488	
8354	0	32464	
8355	0	32416	
8356	0	32416	
8357	0	32384	
8358	0	32392	
8359	0	32448	
8360	0	32496	
8361	0	32508	
8362	0	32540	
8363	0	32544	
8364	0	32572	
8365	0	32620	
8366	0	32664	
8367	0	32672	
8368	0	32664	
8369	0	32688	
8370	0	32748	
8371	0	32844	
8372	0	32920	
8373	0	32980	
8374	0	33072	
8375	0	33168	
8376	0	33256	
8377	0	33312	
8378	0	33368	
8379	0	33446	
8380	0	33568	
8381	0	33616	
8382	0	33632	
8383	0	33684	
8384	0	33712	
8385	0	33744	
8386	0	33768	
8387	0	33728	
8388	0	33680	
8389	0	33628	
8390	0	33546	
8391	0	33464	
8392	0	33416	
8393	0	33416	
8394	0	33418	
8395	0	33364	
8396	0	33324	
8397	0	33340	
8398	0	33472	
8399	0	33626	
8400	0	33808	
8401	0	34020	
8402	0	34284	
8403	0	34576	
8404	0	34840	
8405	0	35032	
8406	0	35164	
8407	0	35188	
8408	0	35196	
8409	0	35224	
8410	0	35332	
8411	0	35472	
8412	0	35652	
8413	0	35700	
8414	0	35696	
8415	0	35676	
8416	0	35608	
8417	0	35516	
8418	0	35392	
8419	0	35236	
8420	0	35052	
8421	0	34816	
8422	0	34636	
8423	0	34536	
8424	0	34432	
8425	0	34368	
8426	0	34304	
8427	0	34224	
8428	0	34148	
8429	0	33996	
8430	0	33924	
8431	0	33824	
8432	0	33684	
8433	0	33604	
8434	0	33568	
8435	0	33488	
8436	0	33380	
8437	0	33270	
8438	0	33144	
8439	0	33072	
8440	0	33060	
8441	0	33032	
8442	0	32974	
8443	0	32880	
8444	0	32800	
8445	0	32680	
8446	0	32564	
8447	0	32496	
8448	0	32442	
8449	0	32344	
8450	0	32176	
8451	0	32008	
8452	0	31892	
8453	0	31792	
8454	0	31704	
8455	0	31640	
8456	0	31564	
8457	0	31472	
8458	0	31416	
8459	0	31376	
8460	0	31312	
8461	0	31288	
8462	0	31272	
8463	0	31312	
8464	0	31348	
8465	0	31396	
8466	0	31432	
8467	0	31516	
8468	0	31612	
8469	0	31632	
8470	0	31620	
8471	0	31636	
8472	0	31712	
8473	0	31748	
8474	0	31724	
8475	0	31744	
8476	0	31740	
8477	0	31752	
8478	0	31792	
8479	0	31764	
8480	0	31736	
8481	0	31748	
8482	0	31744	
8483	0	31760	
8484	0	31784	
8485	0	31832	
8486	0	31832	
8487	0	31836	
8488	0	31888	
8489	0	31936	
8490	0	31996	
8491	0	32064	
8492	0	32112	
8493	0	32128	
8494	0	32126	
8495	0	32116	
8496	0	32104	
8497	0	32076	
8498	0	32040	
8499	0	31976	
8500	0	31880	
8501	0	31692	
8502	0	31408	
8503	0	31008	
8504	0	30460	
8505	0	29804	
8506	0	29248	
8507	0	28872	
8508	0	28658	
8509	0	28636	
8510	0	28792	
8511	0	29156	
8512	0	29666	
8513	0	30388	
8514	0	31328	
8515	0	32408	
8516	0	33660	
8517	0	35032	
8518	0	36504	
8519	0	38048	
8520	0	39944	
8521	0	42104	
8522	0	44560	
8523	0	47528	
8524	0	50650	
8525	0	53680	
8526	0	56624	
8527	0	59480	
8528	0	62144	
8529	0	63712	
8530	0	64504	
8531	0	64880	
8532	0	65036	
8533	0	65056	
8534	0	64992	
8535	0	64908	
8536	0	64812	
8537	0	64688	
8538	0	63132	
8539	0	57876	
8540	0	53336	
8541	0	49584	
8542	0	46400	
8543	0	43764	
8544	0	41496	
8545	0	39368	
8546	0	37392	
8547	0	35634	
8548	0	34012	
8549	0	32628	
8550	0	31456	
8551	0	30372	
8552	0	29400	
8553	0	28736	
8554	0	28240	
8555	0	27916	
8556	0	27740	
8557	0	27660	
8558	0	27500	
8559	0	27308	
8560	0	27136	
8561	0	27066	
8562	0	27076	
8563	0	27208	
8564	0	27416	
8565	0	27708	
8566	0	28020	
8567	0	28368	
8568	0	28656	
8569	0	28860	
8570	0	28988	
8571	0	29052	
8572	0	29098	
8573	0	29052	
8574	0	29000	
8575	0	28936	
8576	0	28874	
8577	0	28848	
8578	0	28860	
8579	0	28848	
8580	0	28804	
8581	0	28804	
8582	0	28836	
8583	0	28896	
8584	0	28954	
8585	0	28984	
8586	0	29020	
8587	0	29104	
8588	0	29180	
8589	0	29200	
8590	0	29260	
8591	0	29424	
