# OpenSignals Text File Format. Version 1
# {"00:07:80:4B:15:F7": {"position": 0, "device": "biosignalsplux", "device name": "00:07:80:4B:15:F7", "device connection": "BTH00:07:80:4B:15:F7", "sampling rate": 1000, "resolution": [16], "firmware version": 775, "comments": "", "keywords": "", "mode": 0, "sync interval": 2, "date": "2023-3-14", "time": "14:13:27.48", "channels": [1], "sensor": ["ECG"], "label": ["CH1"], "column": ["nSeq", "DI", "CH1"], "special": [{"SpO2": [80, 40, 5, 4, 3, 3]}, {"SpO2": [80, 40, 5, 4, 3, 3]}, {"SpO2": [80, 40, 5, 4, 3, 3]}, {"SpO2": [80, 40, 5, 4, 3, 3]}, {"SpO2": [80, 40, 5, 4, 3, 3]}, {"SpO2": [80, 40, 5, 4, 3, 3]}, {"SpO2": [80, 40, 5, 4, 3, 3]}, {"SpO2": [80, 40, 5, 4, 3, 3]}], "digital IO": [0, 1], "sleeve color": ["green"], "convertedValues": 0}}
# EndOfHeader
0	0	32128	
1	0	32142	
2	0	32156	
3	0	32184	
4	0	32192	
5	0	32224	
6	0	32240	
7	0	32270	
8	0	32300	
9	0	32306	
10	0	32292	
11	0	32292	
12	0	32280	
13	0	32256	
14	0	32254	
15	0	32272	
16	0	32284	
17	0	32274	
18	0	32296	
19	0	32336	
20	0	32348	
21	0	32360	
22	0	32340	
23	0	32332	
24	0	32324	
25	0	32296	
26	0	32300	
27	0	32284	
28	0	32296	
29	0	32300	
30	0	32304	
31	0	32288	
32	0	32296	
33	0	32328	
34	0	32368	
35	0	32416	
36	0	32476	
37	0	32532	
38	0	32568	
39	0	32608	
40	0	32634	
41	0	32664	
42	0	32712	
43	0	32724	
44	0	32748	
45	0	32764	
46	0	32792	
47	0	32784	
48	0	32736	
49	0	32704	
50	0	32704	
51	0	32668	
52	0	32664	
53	0	32680	
54	0	32720	
55	0	32752	
56	0	32792	
57	0	32812	
58	0	32824	
59	0	32820	
60	0	32824	
61	0	32884	
62	0	32944	
63	0	32976	
64	0	32988	
65	0	32976	
66	0	32952	
67	0	32912	
68	0	32876	
69	0	32838	
70	0	32802	
71	0	32778	
72	0	32780	
73	0	32788	
74	0	32816	
75	0	32820	
76	0	32832	
77	0	32856	
78	0	32916	
79	0	32996	
80	0	33088	
81	0	33172	
82	0	33244	
83	0	33292	
84	0	33296	
85	0	33292	
86	0	33336	
87	0	33336	
88	0	33320	
89	0	33296	
90	0	33264	
91	0	33254	
92	0	33280	
93	0	33272	
94	0	33252	
95	0	33252	
96	0	33272	
97	0	33292	
98	0	33320	
99	0	33328	
100	0	33344	
101	0	33346	
102	0	33328	
103	0	33328	
104	0	33364	
105	0	33444	
106	0	33528	
107	0	33600	
108	0	33684	
109	0	33760	
110	0	33860	
111	0	33992	
112	0	34104	
113	0	34210	
114	0	34322	
115	0	34436	
116	0	34540	
117	0	34612	
118	0	34656	
119	0	34708	
120	0	34764	
121	0	34784	
122	0	34784	
123	0	34732	
124	0	34628	
125	0	34476	
126	0	34298	
127	0	34140	
128	0	34036	
129	0	33912	
130	0	33792	
131	0	33708	
132	0	33600	
133	0	33504	
134	0	33418	
135	0	33360	
136	0	33320	
137	0	33284	
138	0	33252	
139	0	33236	
140	0	33248	
141	0	33280	
142	0	33296	
143	0	33272	
144	0	33216	
145	0	33168	
146	0	33140	
147	0	33096	
148	0	33060	
149	0	33064	
150	0	33076	
151	0	33080	
152	0	33096	
153	0	33112	
154	0	33088	
155	0	33100	
156	0	33108	
157	0	33072	
158	0	33020	
159	0	33000	
160	0	32932	
161	0	32884	
162	0	32832	
163	0	32752	
164	0	32712	
165	0	32642	
166	0	32568	
167	0	32460	
168	0	32352	
169	0	32272	
170	0	32192	
171	0	32160	
172	0	32164	
173	0	32184	
174	0	32244	
175	0	32312	
176	0	32362	
177	0	32380	
178	0	32380	
179	0	32384	
180	0	32384	
181	0	32400	
182	0	32408	
183	0	32380	
184	0	32372	
185	0	32372	
186	0	32344	
187	0	32320	
188	0	32296	
189	0	32292	
190	0	32276	
191	0	32252	
192	0	32240	
193	0	32264	
194	0	32280	
195	0	32308	
196	0	32340	
197	0	32356	
198	0	32380	
199	0	32436	
200	0	32452	
201	0	32480	
202	0	32496	
203	0	32516	
204	0	32519	
205	0	32508	
206	0	32500	
207	0	32440	
208	0	32386	
209	0	32344	
210	0	32368	
211	0	32380	
212	0	32400	
213	0	32440	
214	0	32480	
215	0	32512	
216	0	32552	
217	0	32588	
218	0	32584	
219	0	32568	
220	0	32584	
221	0	32640	
222	0	32672	
223	0	32668	
224	0	32656	
225	0	32624	
226	0	32580	
227	0	32538	
228	0	32508	
229	0	32480	
230	0	32472	
231	0	32448	
232	0	32440	
233	0	32464	
234	0	32476	
235	0	32512	
236	0	32584	
237	0	32640	
238	0	32704	
239	0	32756	
240	0	32768	
241	0	32728	
242	0	32696	
243	0	32600	
244	0	32552	
245	0	32542	
246	0	32616	
247	0	32812	
248	0	33096	
249	0	33376	
250	0	33708	
251	0	34024	
252	0	34284	
253	0	34464	
254	0	34552	
255	0	34660	
256	0	34940	
257	0	35360	
258	0	35944	
259	0	36692	
260	0	37664	
261	0	38772	
262	0	40048	
263	0	41376	
264	0	42748	
265	0	44144	
266	0	45648	
267	0	47218	
268	0	48748	
269	0	50112	
270	0	51268	
271	0	52224	
272	0	53120	
273	0	54124	
274	0	55048	
275	0	55656	
276	0	55748	
277	0	54936	
278	0	53032	
279	0	50164	
280	0	46742	
281	0	43140	
282	0	39632	
283	0	36472	
284	0	33976	
285	0	32204	
286	0	30984	
287	0	30176	
288	0	29710	
289	0	29472	
290	0	29400	
291	0	29424	
292	0	29564	
293	0	29802	
294	0	30088	
295	0	30336	
296	0	30580	
297	0	30812	
298	0	31004	
299	0	31182	
300	0	31364	
301	0	31552	
302	0	31712	
303	0	31812	
304	0	31864	
305	0	31904	
306	0	31920	
307	0	31912	
308	0	31886	
309	0	31844	
310	0	31768	
311	0	31672	
312	0	31624	
313	0	31590	
314	0	31596	
315	0	31616	
316	0	31632	
317	0	31640	
318	0	31656	
319	0	31636	
320	0	31608	
321	0	31576	
322	0	31556	
323	0	31544	
324	0	31530	
325	0	31528	
326	0	31524	
327	0	31520	
328	0	31492	
329	0	31460	
330	0	31424	
331	0	31404	
332	0	31388	
333	0	31392	
334	0	31424	
335	0	31496	
336	0	31564	
337	0	31592	
338	0	31620	
339	0	31684	
340	0	31716	
341	0	31736	
342	0	31752	
343	0	31764	
344	0	31768	
345	0	31816	
346	0	31832	
347	0	31852	
348	0	31852	
349	0	31844	
350	0	31844	
351	0	31844	
352	0	31832	
353	0	31904	
354	0	31980	
355	0	32064	
356	0	32088	
357	0	32116	
358	0	32156	
359	0	32184	
360	0	32216	
361	0	32236	
362	0	32266	
363	0	32280	
364	0	32320	
365	0	32344	
366	0	32338	
367	0	32320	
368	0	32360	
369	0	32368	
370	0	32376	
371	0	32392	
372	0	32408	
373	0	32452	
374	0	32512	
375	0	32528	
376	0	32520	
377	0	32536	
378	0	32576	
379	0	32608	
380	0	32656	
381	0	32724	
382	0	32764	
383	0	32772	
384	0	32746	
385	0	32730	
386	0	32740	
387	0	32768	
388	0	32800	
389	0	32776	
390	0	32768	
391	0	32740	
392	0	32740	
393	0	32732	
394	0	32728	
395	0	32736	
396	0	32780	
397	0	32824	
398	0	32897	
399	0	32952	
400	0	32992	
401	0	33072	
402	0	33132	
403	0	33148	
404	0	33132	
405	0	33136	
406	0	33168	
407	0	33180	
408	0	33168	
409	0	33148	
410	0	33148	
411	0	33136	
412	0	33146	
413	0	33180	
414	0	33212	
415	0	33240	
416	0	33252	
417	0	33304	
418	0	33380	
419	0	33448	
420	0	33480	
421	0	33484	
422	0	33500	
423	0	33516	
424	0	33512	
425	0	33528	
426	0	33500	
427	0	33484	
428	0	33496	
429	0	33500	
430	0	33480	
431	0	33496	
432	0	33504	
433	0	33552	
434	0	33608	
435	0	33688	
436	0	33740	
437	0	33744	
438	0	33748	
439	0	33780	
440	0	33852	
441	0	33888	
442	0	33896	
443	0	33924	
444	0	33924	
445	0	33928	
446	0	33920	
447	0	33888	
448	0	33838	
449	0	33808	
450	0	33786	
451	0	33770	
452	0	33768	
453	0	33788	
454	0	33792	
455	0	33824	
456	0	33872	
457	0	33916	
458	0	33936	
459	0	33956	
460	0	33964	
461	0	33976	
462	0	33992	
463	0	33978	
464	0	33980	
465	0	33992	
466	0	34008	
467	0	34036	
468	0	34064	
469	0	34056	
470	0	33996	
471	0	33960	
472	0	33952	
473	0	33972	
474	0	33976	
475	0	33992	
476	0	34024	
477	0	34060	
478	0	34132	
479	0	34184	
480	0	34240	
481	0	34248	
482	0	34276	
483	0	34288	
484	0	34280	
485	0	34276	
486	0	34290	
487	0	34284	
488	0	34280	
489	0	34246	
490	0	34228	
491	0	34216	
492	0	34204	
493	0	34208	
494	0	34208	
495	0	34208	
496	0	34208	
497	0	34232	
498	0	34264	
499	0	34256	
500	0	34264	
501	0	34296	
502	0	34320	
503	0	34320	
504	0	34272	
505	0	34242	
506	0	34202	
507	0	34148	
508	0	34088	
509	0	34020	
510	0	33976	
511	0	33960	
512	0	33924	
513	0	33920	
514	0	33896	
515	0	33928	
516	0	33964	
517	0	33984	
518	0	34008	
519	0	34040	
520	0	34080	
521	0	34116	
522	0	34132	
523	0	34104	
524	0	34084	
525	0	34060	
526	0	34016	
527	0	33980	
528	0	33936	
529	0	33916	
530	0	33924	
531	0	33912	
532	0	33908	
533	0	33920	
534	0	33938	
535	0	33936	
536	0	33968	
537	0	33976	
538	0	33984	
539	0	33992	
540	0	34000	
541	0	34010	
542	0	33992	
543	0	33980	
544	0	33936	
545	0	33884	
546	0	33812	
547	0	33752	
548	0	33672	
549	0	33600	
550	0	33544	
551	0	33492	
552	0	33436	
553	0	33388	
554	0	33292	
555	0	33208	
556	0	33160	
557	0	33108	
558	0	33032	
559	0	32968	
560	0	32904	
561	0	32860	
562	0	32808	
563	0	32740	
564	0	32648	
565	0	32564	
566	0	32448	
567	0	32364	
568	0	32248	
569	0	32124	
570	0	32020	
571	0	31928	
572	0	31844	
573	0	31764	
574	0	31720	
575	0	31664	
576	0	31612	
577	0	31550	
578	0	31512	
579	0	31464	
580	0	31408	
581	0	31368	
582	0	31340	
583	0	31316	
584	0	31248	
585	0	31168	
586	0	31068	
587	0	30976	
588	0	30896	
589	0	30828	
590	0	30784	
591	0	30732	
592	0	30720	
593	0	30714	
594	0	30708	
595	0	30704	
596	0	30696	
597	0	30660	
598	0	30624	
599	0	30598	
600	0	30564	
601	0	30520	
602	0	30488	
603	0	30437	
604	0	30396	
605	0	30364	
606	0	30312	
607	0	30284	
608	0	30240	
609	0	30240	
610	0	30236	
611	0	30204	
612	0	30172	
613	0	30176	
614	0	30192	
615	0	30188	
616	0	30208	
617	0	30248	
618	0	30288	
619	0	30296	
620	0	30324	
621	0	30360	
622	0	30384	
623	0	30390	
624	0	30364	
625	0	30344	
626	0	30344	
627	0	30336	
628	0	30308	
629	0	30300	
630	0	30328	
631	0	30360	
632	0	30394	
633	0	30436	
634	0	30448	
635	0	30444	
636	0	30428	
637	0	30448	
638	0	30512	
639	0	30528	
640	0	30528	
641	0	30570	
642	0	30624	
643	0	30648	
644	0	30660	
645	0	30668	
646	0	30680	
647	0	30676	
648	0	30680	
649	0	30656	
650	0	30626	
651	0	30592	
652	0	30572	
653	0	30592	
654	0	30628	
655	0	30688	
656	0	30732	
657	0	30780	
658	0	30820	
659	0	30864	
660	0	30896	
661	0	30936	
662	0	30972	
663	0	30984	
664	0	30960	
665	0	30920	
666	0	30880	
667	0	30844	
668	0	30808	
669	0	30772	
670	0	30776	
671	0	30788	
672	0	30796	
673	0	30812	
674	0	30816	
675	0	30844	
676	0	30876	
677	0	30912	
678	0	30968	
679	0	30996	
680	0	31024	
681	0	31068	
682	0	31086	
683	0	31072	
684	0	31060	
685	0	31060	
686	0	31052	
687	0	31018	
688	0	30980	
689	0	30936	
690	0	30904	
691	0	30888	
692	0	30892	
693	0	30920	
694	0	30908	
695	0	30908	
696	0	30904	
697	0	30908	
698	0	30948	
699	0	30968	
700	0	30996	
701	0	30992	
702	0	31000	
703	0	31008	
704	0	30984	
705	0	30976	
706	0	30976	
707	0	30960	
708	0	30888	
709	0	30828	
710	0	30780	
711	0	30776	
712	0	30768	
713	0	30756	
714	0	30768	
715	0	30772	
716	0	30784	
717	0	30788	
718	0	30830	
719	0	30872	
720	0	30884	
721	0	30908	
722	0	30896	
723	0	30860	
724	0	30836	
725	0	30816	
726	0	30792	
727	0	30756	
728	0	30704	
729	0	30672	
730	0	30648	
731	0	30632	
732	0	30584	
733	0	30572	
734	0	30560	
735	0	30568	
736	0	30576	
737	0	30616	
738	0	30640	
739	0	30676	
740	0	30688	
741	0	30732	
742	0	30752	
743	0	30768	
744	0	30744	
745	0	30752	
746	0	30764	
747	0	30752	
748	0	30744	
749	0	30708	
750	0	30712	
751	0	30708	
752	0	30744	
753	0	30780	
754	0	30820	
755	0	30832	
756	0	30845	
757	0	30872	
758	0	30932	
759	0	30968	
760	0	30996	
761	0	31032	
762	0	31056	
763	0	31068	
764	0	31040	
765	0	31052	
766	0	31056	
767	0	31060	
768	0	31072	
769	0	31074	
770	0	31084	
771	0	31104	
772	0	31100	
773	0	31096	
774	0	31108	
775	0	31116	
776	0	31126	
777	0	31132	
778	0	31160	
779	0	31184	
780	0	31220	
781	0	31244	
782	0	31260	
783	0	31284	
784	0	31272	
785	0	31280	
786	0	31296	
787	0	31312	
788	0	31288	
789	0	31240	
790	0	31196	
791	0	31180	
792	0	31186	
793	0	31224	
794	0	31264	
795	0	31296	
796	0	31354	
797	0	31436	
798	0	31504	
799	0	31570	
800	0	31596	
801	0	31620	
802	0	31640	
803	0	31652	
804	0	31652	
805	0	31660	
806	0	31664	
807	0	31656	
808	0	31652	
809	0	31644	
810	0	31652	
811	0	31640	
812	0	31636	
813	0	31656	
814	0	31676	
815	0	31692	
816	0	31688	
817	0	31688	
818	0	31716	
819	0	31744	
820	0	31784	
821	0	31820	
822	0	31832	
823	0	31840	
824	0	31824	
825	0	31840	
826	0	31836	
827	0	31804	
828	0	31780	
829	0	31760	
830	0	31760	
831	0	31736	
832	0	31740	
833	0	31772	
834	0	31792	
835	0	31808	
836	0	31812	
837	0	31844	
838	0	31872	
839	0	31896	
840	0	31932	
841	0	31956	
842	0	31956	
843	0	31932	
844	0	31904	
845	0	31892	
846	0	31896	
847	0	31889	
848	0	31872	
849	0	31864	
850	0	31876	
851	0	31896	
852	0	31920	
853	0	31952	
854	0	31976	
855	0	31978	
856	0	31996	
857	0	32020	
858	0	32028	
859	0	32056	
860	0	32076	
861	0	32124	
862	0	32172	
863	0	32220	
864	0	32228	
865	0	32228	
866	0	32206	
867	0	32174	
868	0	32152	
869	0	32144	
870	0	32160	
871	0	32172	
872	0	32172	
873	0	32184	
874	0	32212	
875	0	32240	
876	0	32256	
877	0	32280	
878	0	32312	
879	0	32332	
880	0	32364	
881	0	32404	
882	0	32416	
883	0	32412	
884	0	32408	
885	0	32398	
886	0	32412	
887	0	32424	
888	0	32416	
889	0	32416	
890	0	32440	
891	0	32440	
892	0	32412	
893	0	32440	
894	0	32452	
895	0	32480	
896	0	32504	
897	0	32544	
898	0	32560	
899	0	32584	
900	0	32608	
901	0	32642	
902	0	32643	
903	0	32616	
904	0	32608	
905	0	32592	
906	0	32580	
907	0	32544	
908	0	32524	
909	0	32497	
910	0	32484	
911	0	32464	
912	0	32476	
913	0	32514	
914	0	32548	
915	0	32584	
916	0	32620	
917	0	32672	
918	0	32724	
919	0	32736	
920	0	32760	
921	0	32764	
922	0	32776	
923	0	32764	
924	0	32776	
925	0	32788	
926	0	32804	
927	0	32784	
928	0	32734	
929	0	32680	
930	0	32652	
931	0	32628	
932	0	32608	
933	0	32584	
934	0	32552	
935	0	32520	
936	0	32528	
937	0	32576	
938	0	32664	
939	0	32724	
940	0	32800	
941	0	32852	
942	0	32884	
943	0	32896	
944	0	32924	
945	0	32938	
946	0	32928	
947	0	32906	
948	0	32872	
949	0	32868	
950	0	32840	
951	0	32808	
952	0	32776	
953	0	32768	
954	0	32784	
955	0	32786	
956	0	32800	
957	0	32840	
958	0	32856	
959	0	32826	
960	0	32832	
961	0	32872	
962	0	32928	
963	0	32986	
964	0	33088	
965	0	33216	
966	0	33328	
967	0	33416	
968	0	33504	
969	0	33576	
970	0	33660	
971	0	33752	
972	0	33866	
973	0	33968	
974	0	34036	
975	0	34064	
976	0	34112	
977	0	34184	
978	0	34292	
979	0	34316	
980	0	34312	
981	0	34256	
982	0	34152	
983	0	34024	
984	0	33932	
985	0	33812	
986	0	33697	
987	0	33588	
988	0	33472	
989	0	33376	
990	0	33274	
991	0	33176	
992	0	33116	
993	0	33052	
994	0	33002	
995	0	32978	
996	0	32948	
997	0	32904	
998	0	32920	
999	0	32912	
1000	0	32916	
1001	0	32892	
1002	0	32868	
1003	0	32844	
1004	0	32828	
1005	0	32812	
1006	0	32780	
1007	0	32756	
1008	0	32732	
1009	0	32724	
1010	0	32692	
1011	0	32640	
1012	0	32604	
1013	0	32600	
1014	0	32608	
1015	0	32620	
1016	0	32592	
1017	0	32552	
1018	0	32544	
1019	0	32536	
1020	0	32524	
1021	0	32506	
1022	0	32472	
1023	0	32372	
1024	0	32304	
1025	0	32236	
1026	0	32178	
1027	0	32128	
1028	0	32072	
1029	0	32024	
1030	0	32000	
1031	0	32012	
1032	0	32012	
1033	0	32018	
1034	0	32040	
1035	0	32044	
1036	0	32044	
1037	0	32056	
1038	0	32072	
1039	0	32076	
1040	0	32098	
1041	0	32128	
1042	0	32160	
1043	0	32184	
1044	0	32180	
1045	0	32184	
1046	0	32156	
1047	0	32136	
1048	0	32120	
1049	0	32116	
1050	0	32124	
1051	0	32132	
1052	0	32116	
1053	0	32144	
1054	0	32164	
1055	0	32208	
1056	0	32240	
1057	0	32292	
1058	0	32344	
1059	0	32380	
1060	0	32404	
1061	0	32440	
1062	0	32472	
1063	0	32488	
1064	0	32482	
1065	0	32472	
1066	0	32464	
1067	0	32440	
1068	0	32444	
1069	0	32440	
1070	0	32436	
1071	0	32420	
1072	0	32416	
1073	0	32456	
1074	0	32482	
1075	0	32506	
1076	0	32528	
1077	0	32536	
1078	0	32540	
1079	0	32552	
1080	0	32576	
1081	0	32592	
1082	0	32620	
1083	0	32634	
1084	0	32676	
1085	0	32688	
1086	0	32696	
1087	0	32686	
1088	0	32674	
1089	0	32672	
1090	0	32696	
1091	0	32708	
1092	0	32728	
1093	0	32772	
1094	0	32832	
1095	0	32892	
1096	0	32928	
1097	0	32968	
1098	0	32984	
1099	0	32960	
1100	0	32944	
1101	0	32908	
1102	0	32874	
1103	0	32868	
1104	0	33028	
1105	0	33308	
1106	0	33576	
1107	0	33860	
1108	0	34140	
1109	0	34348	
1110	0	34544	
1111	0	34672	
1112	0	34716	
1113	0	34832	
1114	0	35132	
1115	0	35600	
1116	0	36196	
1117	0	36984	
1118	0	37924	
1119	0	39056	
1120	0	40256	
1121	0	41500	
1122	0	42820	
1123	0	44232	
1124	0	45708	
1125	0	47148	
1126	0	48416	
1127	0	49488	
1128	0	50398	
1129	0	51200	
1130	0	52136	
1131	0	53108	
1132	0	53832	
1133	0	54168	
1134	0	53720	
1135	0	52228	
1136	0	49732	
1137	0	46600	
1138	0	43172	
1139	0	39740	
1140	0	36640	
1141	0	34184	
1142	0	32408	
1143	0	31272	
1144	0	30588	
1145	0	30288	
1146	0	30168	
1147	0	30144	
1148	0	30188	
1149	0	30260	
1150	0	30360	
1151	0	30532	
1152	0	30694	
1153	0	30880	
1154	0	31054	
1155	0	31236	
1156	0	31360	
1157	0	31516	
1158	0	31692	
1159	0	31852	
1160	0	32000	
1161	0	32092	
1162	0	32152	
1163	0	32144	
1164	0	32122	
1165	0	32090	
1166	0	32032	
1167	0	31960	
1168	0	31872	
1169	0	31784	
1170	0	31712	
1171	0	31648	
1172	0	31620	
1173	0	31612	
1174	0	31584	
1175	0	31592	
1176	0	31616	
1177	0	31612	
1178	0	31632	
1179	0	31640	
1180	0	31652	
1181	0	31656	
1182	0	31648	
1183	0	31620	
1184	0	31604	
1185	0	31584	
1186	0	31572	
1187	0	31576	
1188	0	31548	
1189	0	31540	
1190	0	31532	
1191	0	31544	
1192	0	31554	
1193	0	31592	
1194	0	31620	
1195	0	31648	
1196	0	31680	
1197	0	31708	
1198	0	31760	
1199	0	31828	
1200	0	31888	
1201	0	31936	
1202	0	31960	
1203	0	31988	
1204	0	31988	
1205	0	32000	
1206	0	32048	
1207	0	32058	
1208	0	32028	
1209	0	32036	
1210	0	32052	
1211	0	32072	
1212	0	32088	
1213	0	32116	
1214	0	32156	
1215	0	32168	
1216	0	32200	
1217	0	32252	
1218	0	32284	
1219	0	32332	
1220	0	32356	
1221	0	32384	
1222	0	32421	
1223	0	32460	
1224	0	32454	
1225	0	32468	
1226	0	32444	
1227	0	32464	
1228	0	32460	
1229	0	32456	
1230	0	32464	
1231	0	32480	
1232	0	32496	
1233	0	32524	
1234	0	32564	
1235	0	32608	
1236	0	32640	
1237	0	32648	
1238	0	32684	
1239	0	32720	
1240	0	32760	
1241	0	32776	
1242	0	32792	
1243	0	32792	
1244	0	32792	
1245	0	32800	
1246	0	32792	
1247	0	32782	
1248	0	32776	
1249	0	32792	
1250	0	32768	
1251	0	32774	
1252	0	32788	
1253	0	32808	
1254	0	32848	
1255	0	32864	
1256	0	32892	
1257	0	32924	
1258	0	32962	
1259	0	32992	
1260	0	33020	
1261	0	33064	
1262	0	33108	
1263	0	33144	
1264	0	33144	
1265	0	33160	
1266	0	33152	
1267	0	33140	
1268	0	33116	
1269	0	33096	
1270	0	33080	
1271	0	33096	
1272	0	33128	
1273	0	33144	
1274	0	33156	
1275	0	33184	
1276	0	33232	
1277	0	33274	
1278	0	33328	
1279	0	33384	
1280	0	33426	
1281	0	33460	
1282	0	33476	
1283	0	33476	
1284	0	33492	
1285	0	33468	
1286	0	33446	
1287	0	33444	
1288	0	33436	
1289	0	33424	
1290	0	33408	
1291	0	33400	
1292	0	33400	
1293	0	33432	
1294	0	33452	
1295	0	33472	
1296	0	33488	
1297	0	33508	
1298	0	33544	
1299	0	33600	
1300	0	33664	
1301	0	33708	
1302	0	33748	
1303	0	33784	
1304	0	33788	
1305	0	33820	
1306	0	33816	
1307	0	33804	
1308	0	33824	
1309	0	33816	
1310	0	33808	
1311	0	33812	
1312	0	33808	
1313	0	33824	
1314	0	33828	
1315	0	33864	
1316	0	33900	
1317	0	33946	
1318	0	33996	
1319	0	34036	
1320	0	34080	
1321	0	34124	
1322	0	34160	
1323	0	34168	
1324	0	34160	
1325	0	34188	
1326	0	34208	
1327	0	34204	
1328	0	34200	
1329	0	34188	
1330	0	34188	
1331	0	34152	
1332	0	34140	
1333	0	34164	
1334	0	34180	
1335	0	34244	
1336	0	34280	
1337	0	34320	
1338	0	34356	
1339	0	34372	
1340	0	34408	
1341	0	34424	
1342	0	34440	
1343	0	34464	
1344	0	34464	
1345	0	34472	
1346	0	34446	
1347	0	34424	
1348	0	34412	
1349	0	34416	
1350	0	34428	
1351	0	34442	
1352	0	34448	
1353	0	34484	
1354	0	34524	
1355	0	34552	
1356	0	34572	
1357	0	34624	
1358	0	34648	
1359	0	34668	
1360	0	34688	
1361	0	34712	
1362	0	34720	
1363	0	34716	
1364	0	34700	
1365	0	34688	
1366	0	34660	
1367	0	34640	
1368	0	34616	
1369	0	34564	
1370	0	34520	
1371	0	34500	
1372	0	34472	
1373	0	34460	
1374	0	34436	
1375	0	34440	
1376	0	34424	
1377	0	34416	
1378	0	34416	
1379	0	34448	
1380	0	34464	
1381	0	34480	
1382	0	34478	
1383	0	34472	
1384	0	34458	
1385	0	34424	
1386	0	34386	
1387	0	34360	
1388	0	34340	
1389	0	34280	
1390	0	34234	
1391	0	34188	
1392	0	34152	
1393	0	34148	
1394	0	34148	
1395	0	34112	
1396	0	34116	
1397	0	34116	
1398	0	34136	
1399	0	34164	
1400	0	34172	
1401	0	34184	
1402	0	34182	
1403	0	34160	
1404	0	34120	
1405	0	34096	
1406	0	34064	
1407	0	34004	
1408	0	33968	
1409	0	33920	
1410	0	33848	
1411	0	33762	
1412	0	33688	
1413	0	33640	
1414	0	33578	
1415	0	33488	
1416	0	33416	
1417	0	33372	
1418	0	33324	
1419	0	33272	
1420	0	33248	
1421	0	33192	
1422	0	33112	
1423	0	33020	
1424	0	32924	
1425	0	32832	
1426	0	32744	
1427	0	32656	
1428	0	32556	
1429	0	32480	
1430	0	32396	
1431	0	32320	
1432	0	32240	
1433	0	32220	
1434	0	32168	
1435	0	32120	
1436	0	32048	
1437	0	31996	
1438	0	31960	
1439	0	31908	
1440	0	31872	
1441	0	31844	
1442	0	31792	
1443	0	31728	
1444	0	31696	
1445	0	31648	
1446	0	31602	
1447	0	31536	
1448	0	31480	
1449	0	31432	
1450	0	31332	
1451	0	31252	
1452	0	31200	
1453	0	31168	
1454	0	31148	
1455	0	31112	
1456	0	31104	
1457	0	31096	
1458	0	31080	
1459	0	31060	
1460	0	31052	
1461	0	31072	
1462	0	31076	
1463	0	31060	
1464	0	31040	
1465	0	31004	
1466	0	30960	
1467	0	30916	
1468	0	30880	
1469	0	30844	
1470	0	30820	
1471	0	30796	
1472	0	30776	
1473	0	30788	
1474	0	30796	
1475	0	30832	
1476	0	30860	
1477	0	30876	
1478	0	30884	
1479	0	30916	
1480	0	30960	
1481	0	31000	
1482	0	31012	
1483	0	31016	
1484	0	31036	
1485	0	31028	
1486	0	31060	
1487	0	31064	
1488	0	31060	
1489	0	31040	
1490	0	31024	
1491	0	31028	
1492	0	31036	
1493	0	31064	
1494	0	31104	
1495	0	31120	
1496	0	31152	
1497	0	31184	
1498	0	31248	
1499	0	31308	
1500	0	31340	
1501	0	31364	
1502	0	31392	
1503	0	31392	
1504	0	31404	
1505	0	31400	
1506	0	31388	
1507	0	31396	
1508	0	31394	
1509	0	31392	
1510	0	31396	
1511	0	31416	
1512	0	31440	
1513	0	31464	
1514	0	31452	
1515	0	31480	
1516	0	31516	
1517	0	31552	
1518	0	31578	
1519	0	31588	
1520	0	31620	
1521	0	31660	
1522	0	31704	
1523	0	31704	
1524	0	31700	
1525	0	31692	
1526	0	31676	
1527	0	31648	
1528	0	31652	
1529	0	31656	
1530	0	31646	
1531	0	31640	
1532	0	31648	
1533	0	31680	
1534	0	31700	
1535	0	31708	
1536	0	31732	
1537	0	31772	
1538	0	31808	
1539	0	31844	
1540	0	31880	
1541	0	31912	
1542	0	31940	
1543	0	31930	
1544	0	31916	
1545	0	31916	
1546	0	31916	
1547	0	31912	
1548	0	31880	
1549	0	31860	
1550	0	31858	
1551	0	31844	
1552	0	31832	
1553	0	31844	
1554	0	31864	
1555	0	31860	
1556	0	31864	
1557	0	31888	
1558	0	31920	
1559	0	31960	
1560	0	32010	
1561	0	32016	
1562	0	32012	
1563	0	31992	
1564	0	31984	
1565	0	31988	
1566	0	31968	
1567	0	31940	
1568	0	31908	
1569	0	31884	
1570	0	31860	
1571	0	31828	
1572	0	31832	
1573	0	31848	
1574	0	31872	
1575	0	31900	
1576	0	31896	
1577	0	31872	
1578	0	31888	
1579	0	31920	
1580	0	31928	
1581	0	31936	
1582	0	31924	
1583	0	31900	
1584	0	31880	
1585	0	31864	
1586	0	31854	
1587	0	31826	
1588	0	31804	
1589	0	31780	
1590	0	31748	
1591	0	31750	
1592	0	31772	
1593	0	31796	
1594	0	31824	
1595	0	31852	
1596	0	31904	
1597	0	31936	
1598	0	31948	
1599	0	31952	
1600	0	31980	
1601	0	32026	
1602	0	32026	
1603	0	32000	
1604	0	31984	
1605	0	31984	
1606	0	31984	
1607	0	31984	
1608	0	32008	
1609	0	32004	
1610	0	31972	
1611	0	31956	
1612	0	31952	
1613	0	31960	
1614	0	31984	
1615	0	31976	
1616	0	31980	
1617	0	31988	
1618	0	32036	
1619	0	32052	
1620	0	32076	
1621	0	32130	
1622	0	32116	
1623	0	32104	
1624	0	32090	
1625	0	32080	
1626	0	32068	
1627	0	32012	
1628	0	31984	
1629	0	31940	
1630	0	31898	
1631	0	31884	
1632	0	31864	
1633	0	31900	
1634	0	31912	
1635	0	31904	
1636	0	31924	
1637	0	31944	
1638	0	31994	
1639	0	32032	
1640	0	32052	
1641	0	32076	
1642	0	32080	
1643	0	32096	
1644	0	32088	
1645	0	32100	
1646	0	32094	
1647	0	32072	
1648	0	32040	
1649	0	32020	
1650	0	31992	
1651	0	31992	
1652	0	32008	
1653	0	32052	
1654	0	32084	
1655	0	32080	
1656	0	32100	
1657	0	32136	
1658	0	32172	
1659	0	32194	
1660	0	32224	
1661	0	32256	
1662	0	32248	
1663	0	32248	
1664	0	32234	
1665	0	32222	
1666	0	32200	
1667	0	32168	
1668	0	32148	
1669	0	32132	
1670	0	32116	
1671	0	32100	
1672	0	32092	
1673	0	32136	
1674	0	32140	
1675	0	32160	
1676	0	32194	
1677	0	32216	
1678	0	32248	
1679	0	32268	
1680	0	32298	
1681	0	32332	
1682	0	32336	
1683	0	32314	
1684	0	32320	
1685	0	32316	
1686	0	32284	
1687	0	32252	
1688	0	32212	
1689	0	32188	
1690	0	32184	
1691	0	32160	
1692	0	32184	
1693	0	32216	
1694	0	32248	
1695	0	32248	
1696	0	32280	
1697	0	32324	
1698	0	32364	
1699	0	32384	
1700	0	32436	
1701	0	32448	
1702	0	32480	
1703	0	32488	
1704	0	32476	
1705	0	32488	
1706	0	32500	
1707	0	32476	
1708	0	32452	
1709	0	32424	
1710	0	32416	
1711	0	32412	
1712	0	32416	
1713	0	32450	
1714	0	32496	
1715	0	32480	
1716	0	32508	
1717	0	32508	
1718	0	32540	
1719	0	32596	
1720	0	32620	
1721	0	32670	
1722	0	32688	
1723	0	32680	
1724	0	32664	
1725	0	32656	
1726	0	32648	
1727	0	32648	
1728	0	32628	
1729	0	32624	
1730	0	32616	
1731	0	32624	
1732	0	32628	
1733	0	32656	
1734	0	32656	
1735	0	32650	
1736	0	32656	
1737	0	32668	
1738	0	32696	
1739	0	32700	
1740	0	32724	
1741	0	32736	
1742	0	32744	
1743	0	32740	
1744	0	32736	
1745	0	32716	
1746	0	32684	
1747	0	32674	
1748	0	32656	
1749	0	32624	
1750	0	32600	
1751	0	32580	
1752	0	32576	
1753	0	32592	
1754	0	32612	
1755	0	32632	
1756	0	32648	
1757	0	32664	
1758	0	32686	
1759	0	32688	
1760	0	32708	
1761	0	32712	
1762	0	32712	
1763	0	32692	
1764	0	32682	
1765	0	32666	
1766	0	32656	
1767	0	32604	
1768	0	32560	
1769	0	32536	
1770	0	32496	
1771	0	32448	
1772	0	32456	
1773	0	32480	
1774	0	32512	
1775	0	32538	
1776	0	32560	
1777	0	32596	
1778	0	32608	
1779	0	32628	
1780	0	32672	
1781	0	32692	
1782	0	32700	
1783	0	32708	
1784	0	32704	
1785	0	32704	
1786	0	32696	
1787	0	32684	
1788	0	32660	
1789	0	32628	
1790	0	32608	
1791	0	32600	
1792	0	32564	
1793	0	32572	
1794	0	32608	
1795	0	32624	
1796	0	32640	
1797	0	32660	
1798	0	32708	
1799	0	32776	
1800	0	32812	
1801	0	32824	
1802	0	32840	
1803	0	32816	
1804	0	32812	
1805	0	32832	
1806	0	32848	
1807	0	32836	
1808	0	32840	
1809	0	32808	
1810	0	32758	
1811	0	32764	
1812	0	32772	
1813	0	32780	
1814	0	32792	
1815	0	32804	
1816	0	32800	
1817	0	32820	
1818	0	32858	
1819	0	32882	
1820	0	32888	
1821	0	32872	
1822	0	32876	
1823	0	32864	
1824	0	32858	
1825	0	32836	
1826	0	32812	
1827	0	32788	
1828	0	32760	
1829	0	32744	
1830	0	32714	
1831	0	32708	
1832	0	32712	
1833	0	32752	
1834	0	32770	
1835	0	32760	
1836	0	32764	
1837	0	32800	
1838	0	32848	
1839	0	32900	
1840	0	32956	
1841	0	33016	
1842	0	33060	
1843	0	33104	
1844	0	33132	
1845	0	33140	
1846	0	33164	
1847	0	33200	
1848	0	33224	
1849	0	33216	
1850	0	33216	
1851	0	33228	
1852	0	33252	
1853	0	33268	
1854	0	33272	
1855	0	33264	
1856	0	33280	
1857	0	33324	
1858	0	33340	
1859	0	33372	
1860	0	33418	
1861	0	33460	
1862	0	33468	
1863	0	33440	
1864	0	33412	
1865	0	33432	
1866	0	33464	
1867	0	33530	
1868	0	33628	
1869	0	33756	
1870	0	33860	
1871	0	33980	
1872	0	34080	
1873	0	34172	
1874	0	34264	
1875	0	34348	
1876	0	34428	
1877	0	34504	
1878	0	34572	
1879	0	34604	
1880	0	34628	
1881	0	34648	
1882	0	34688	
1883	0	34652	
1884	0	34592	
1885	0	34536	
1886	0	34452	
1887	0	34340	
1888	0	34216	
1889	0	34120	
1890	0	33996	
1891	0	33868	
1892	0	33784	
1893	0	33712	
1894	0	33664	
1895	0	33596	
1896	0	33544	
1897	0	33476	
1898	0	33440	
1899	0	33408	
1900	0	33402	
1901	0	33412	
1902	0	33412	
1903	0	33358	
1904	0	33328	
1905	0	33260	
1906	0	33208	
1907	0	33128	
1908	0	33052	
1909	0	33012	
1910	0	32992	
1911	0	32992	
1912	0	32972	
1913	0	32988	
1914	0	32984	
1915	0	32980	
1916	0	32952	
1917	0	32968	
1918	0	32984	
1919	0	32984	
1920	0	32992	
1921	0	32936	
1922	0	32888	
1923	0	32856	
1924	0	32824	
1925	0	32776	
1926	0	32674	
1927	0	32552	
1928	0	32456	
1929	0	32360	
1930	0	32284	
1931	0	32224	
1932	0	32206	
1933	0	32212	
1934	0	32228	
1935	0	32268	
1936	0	32292	
1937	0	32320	
1938	0	32336	
1939	0	32348	
1940	0	32348	
1941	0	32364	
1942	0	32352	
1943	0	32304	
1944	0	32280	
1945	0	32272	
1946	0	32264	
1947	0	32236	
1948	0	32212	
1949	0	32192	
1950	0	32160	
1951	0	32160	
1952	0	32168	
1953	0	32172	
1954	0	32184	
1955	0	32216	
1956	0	32236	
1957	0	32244	
1958	0	32252	
1959	0	32264	
1960	0	32280	
1961	0	32288	
1962	0	32304	
1963	0	32272	
1964	0	32252	
1965	0	32244	
1966	0	32228	
1967	0	32240	
1968	0	32236	
1969	0	32220	
1970	0	32208	
1971	0	32196	
1972	0	32192	
1973	0	32224	
1974	0	32264	
1975	0	32280	
1976	0	32332	
1977	0	32392	
1978	0	32416	
1979	0	32444	
1980	0	32480	
1981	0	32544	
1982	0	32568	
1983	0	32592	
1984	0	32576	
1985	0	32564	
1986	0	32536	
1987	0	32544	
1988	0	32528	
1989	0	32512	
1990	0	32480	
1991	0	32484	
1992	0	32500	
1993	0	32520	
1994	0	32576	
1995	0	32618	
1996	0	32684	
1997	0	32748	
1998	0	32800	
1999	0	32852	
2000	0	32880	
2001	0	32882	
2002	0	32860	
2003	0	32808	
2004	0	32746	
2005	0	32676	
2006	0	32590	
2007	0	32608	
2008	0	32776	
2009	0	33044	
2010	0	33288	
2011	0	33576	
2012	0	33848	
2013	0	34056	
2014	0	34256	
2015	0	34396	
2016	0	34548	
2017	0	34776	
2018	0	35108	
2019	0	35604	
2020	0	36228	
2021	0	37056	
2022	0	38000	
2023	0	39084	
2024	0	40208	
2025	0	41408	
2026	0	42656	
2027	0	43996	
2028	0	45344	
2029	0	46640	
2030	0	47736	
2031	0	48700	
2032	0	49544	
2033	0	50408	
2034	0	51424	
2035	0	52320	
2036	0	52964	
2037	0	53040	
2038	0	52096	
2039	0	50080	
2040	0	47236	
2041	0	44000	
2042	0	40672	
2043	0	37496	
2044	0	34768	
2045	0	32708	
2046	0	31396	
2047	0	30592	
2048	0	30220	
2049	0	30128	
2050	0	30140	
2051	0	30212	
2052	0	30272	
2053	0	30388	
2054	0	30572	
2055	0	30736	
2056	0	30904	
2057	0	31072	
2058	0	31224	
2059	0	31378	
2060	0	31520	
2061	0	31704	
2062	0	31888	
2063	0	32040	
2064	0	32157	
2065	0	32204	
2066	0	32236	
2067	0	32236	
2068	0	32192	
2069	0	32136	
2070	0	32096	
2071	0	32028	
2072	0	31976	
2073	0	31944	
2074	0	31920	
2075	0	31908	
2076	0	31904	
2077	0	31916	
2078	0	31920	
2079	0	31912	
2080	0	31916	
2081	0	31892	
2082	0	31890	
2083	0	31920	
2084	0	31924	
2085	0	31912	
2086	0	31888	
2087	0	31860	
2088	0	31796	
2089	0	31768	
2090	0	31748	
2091	0	31740	
2092	0	31760	
2093	0	31776	
2094	0	31816	
2095	0	31840	
2096	0	31840	
2097	0	31876	
2098	0	31912	
2099	0	31920	
2100	0	31960	
2101	0	31988	
2102	0	32010	
2103	0	32016	
2104	0	32032	
2105	0	32020	
2106	0	32016	
2107	0	32012	
2108	0	31984	
2109	0	31948	
2110	0	31952	
2111	0	31944	
2112	0	31948	
2113	0	31972	
2114	0	32020	
2115	0	32060	
2116	0	32104	
2117	0	32140	
2118	0	32176	
2119	0	32200	
2120	0	32248	
2121	0	32288	
2122	0	32316	
2123	0	32336	
2124	0	32352	
2125	0	32356	
2126	0	32384	
2127	0	32396	
2128	0	32392	
2129	0	32376	
2130	0	32384	
2131	0	32376	
2132	0	32388	
2133	0	32424	
2134	0	32472	
2135	0	32524	
2136	0	32556	
2137	0	32572	
2138	0	32608	
2139	0	32632	
2140	0	32668	
2141	0	32700	
2142	0	32704	
2143	0	32680	
2144	0	32684	
2145	0	32680	
2146	0	32668	
2147	0	32668	
2148	0	32640	
2149	0	32616	
2150	0	32602	
2151	0	32608	
2152	0	32636	
2153	0	32672	
2154	0	32712	
2155	0	32720	
2156	0	32738	
2157	0	32796	
2158	0	32848	
2159	0	32888	
2160	0	32932	
2161	0	32972	
2162	0	33021	
2163	0	33016	
2164	0	33016	
2165	0	33012	
2166	0	32992	
2167	0	32992	
2168	0	32992	
2169	0	32984	
2170	0	32972	
2171	0	33004	
2172	0	33036	
2173	0	33064	
2174	0	33096	
2175	0	33116	
2176	0	33152	
2177	0	33180	
2178	0	33216	
2179	0	33260	
2180	0	33296	
2181	0	33344	
2182	0	33340	
2183	0	33338	
2184	0	33356	
2185	0	33332	
2186	0	33312	
2187	0	33308	
2188	0	33308	
2189	0	33304	
2190	0	33296	
2191	0	33272	
2192	0	33304	
2193	0	33304	
2194	0	33360	
2195	0	33388	
2196	0	33416	
2197	0	33448	
2198	0	33492	
2199	0	33532	
2200	0	33556	
2201	0	33580	
2202	0	33576	
2203	0	33572	
2204	0	33588	
2205	0	33600	
2206	0	33608	
2207	0	33596	
2208	0	33612	
2209	0	33612	
2210	0	33632	
2211	0	33648	
2212	0	33656	
2213	0	33692	
2214	0	33698	
2215	0	33692	
2216	0	33700	
2217	0	33728	
2218	0	33752	
2219	0	33760	
2220	0	33788	
2221	0	33824	
2222	0	33856	
2223	0	33888	
2224	0	33908	
2225	0	33928	
2226	0	33920	
2227	0	33880	
2228	0	33856	
2229	0	33836	
2230	0	33832	
2231	0	33824	
2232	0	33850	
2233	0	33852	
2234	0	33876	
2235	0	33932	
2236	0	33960	
2237	0	34008	
2238	0	34070	
2239	0	34112	
2240	0	34148	
2241	0	34168	
2242	0	34168	
2243	0	34164	
2244	0	34136	
2245	0	34112	
2246	0	34080	
2247	0	34032	
2248	0	34012	
2249	0	34004	
2250	0	33988	
2251	0	33992	
2252	0	33996	
2253	0	34004	
2254	0	34032	
2255	0	34032	
2256	0	34008	
2257	0	33964	
2258	0	33960	
2259	0	33964	
2260	0	33948	
2261	0	33952	
2262	0	33932	
2263	0	33912	
2264	0	33908	
2265	0	33880	
2266	0	33870	
2267	0	33824	
2268	0	33788	
2269	0	33764	
2270	0	33752	
2271	0	33748	
2272	0	33760	
2273	0	33776	
2274	0	33816	
2275	0	33832	
2276	0	33852	
2277	0	33860	
2278	0	33866	
2279	0	33876	
2280	0	33884	
2281	0	33912	
2282	0	33920	
2283	0	33900	
2284	0	33884	
2285	0	33856	
2286	0	33850	
2287	0	33796	
2288	0	33744	
2289	0	33716	
2290	0	33676	
2291	0	33652	
2292	0	33672	
2293	0	33680	
2294	0	33680	
2295	0	33700	
2296	0	33724	
2297	0	33728	
2298	0	33744	
2299	0	33754	
2300	0	33780	
2301	0	33804	
2302	0	33832	
2303	0	33808	
2304	0	33772	
2305	0	33724	
2306	0	33684	
2307	0	33616	
2308	0	33568	
2309	0	33528	
2310	0	33472	
2311	0	33436	
2312	0	33420	
2313	0	33416	
2314	0	33376	
2315	0	33360	
2316	0	33316	
2317	0	33304	
2318	0	33288	
2319	0	33256	
2320	0	33192	
2321	0	33132	
2322	0	33080	
2323	0	33016	
2324	0	32930	
2325	0	32848	
2326	0	32768	
2327	0	32688	
2328	0	32576	
2329	0	32442	
2330	0	32320	
2331	0	32216	
2332	0	32104	
2333	0	32020	
2334	0	31952	
2335	0	31888	
2336	0	31824	
2337	0	31788	
2338	0	31726	
2339	0	31670	
2340	0	31608	
2341	0	31560	
2342	0	31528	
2343	0	31496	
2344	0	31432	
2345	0	31358	
2346	0	31280	
2347	0	31194	
2348	0	31124	
2349	0	31024	
2350	0	30944	
2351	0	30880	
2352	0	30856	
2353	0	30844	
2354	0	30820	
2355	0	30788	
2356	0	30784	
2357	0	30776	
2358	0	30788	
2359	0	30808	
2360	0	30816	
2361	0	30792	
2362	0	30776	
2363	0	30776	
2364	0	30784	
2365	0	30800	
2366	0	30792	
2367	0	30752	
2368	0	30684	
2369	0	30672	
2370	0	30656	
2371	0	30648	
2372	0	30600	
2373	0	30576	
2374	0	30593	
2375	0	30600	
2376	0	30620	
2377	0	30632	
2378	0	30680	
2379	0	30708	
2380	0	30724	
2381	0	30732	
2382	0	30744	
2383	0	30736	
2384	0	30740	
2385	0	30736	
2386	0	30700	
2387	0	30698	
2388	0	30676	
2389	0	30688	
2390	0	30668	
2391	0	30660	
2392	0	30688	
2393	0	30700	
2394	0	30716	
2395	0	30750	
2396	0	30772	
2397	0	30804	
2398	0	30816	
2399	0	30848	
2400	0	30906	
2401	0	30952	
2402	0	30976	
2403	0	31020	
2404	0	31056	
2405	0	31040	
2406	0	31040	
2407	0	31016	
2408	0	31000	
2409	0	31008	
2410	0	31014	
2411	0	30992	
2412	0	30996	
2413	0	31012	
2414	0	31028	
2415	0	31064	
2416	0	31064	
2417	0	31080	
2418	0	31116	
2419	0	31136	
2420	0	31156	
2421	0	31184	
2422	0	31220	
2423	0	31224	
2424	0	31224	
2425	0	31208	
2426	0	31196	
2427	0	31172	
2428	0	31164	
2429	0	31148	
2430	0	31136	
2431	0	31144	
2432	0	31178	
2433	0	31212	
2434	0	31280	
2435	0	31320	
2436	0	31348	
2437	0	31392	
2438	0	31378	
2439	0	31336	
2440	0	31296	
2441	0	31300	
2442	0	31320	
2443	0	31320	
2444	0	31316	
2445	0	31308	
2446	0	31272	
2447	0	31224	
2448	0	31200	
2449	0	31180	
2450	0	31168	
2451	0	31152	
2452	0	31144	
2453	0	31168	
2454	0	31196	
2455	0	31222	
2456	0	31232	
2457	0	31284	
2458	0	31332	
2459	0	31392	
2460	0	31432	
2461	0	31436	
2462	0	31434	
2463	0	31432	
2464	0	31452	
2465	0	31444	
2466	0	31448	
2467	0	31418	
2468	0	31392	
2469	0	31364	
2470	0	31354	
2471	0	31336	
2472	0	31314	
2473	0	31300	
2474	0	31300	
2475	0	31308	
2476	0	31324	
2477	0	31348	
2478	0	31364	
2479	0	31376	
2480	0	31368	
2481	0	31360	
2482	0	31372	
2483	0	31362	
2484	0	31300	
2485	0	31232	
2486	0	31178	
2487	0	31120	
2488	0	31080	
2489	0	31056	
2490	0	31040	
2491	0	31036	
2492	0	31054	
2493	0	31096	
2494	0	31112	
2495	0	31116	
2496	0	31152	
2497	0	31192	
2498	0	31228	
2499	0	31236	
2500	0	31300	
2501	0	31320	
2502	0	31320	
2503	0	31356	
2504	0	31368	
2505	0	31352	
2506	0	31322	
2507	0	31236	
2508	0	31156	
2509	0	31112	
2510	0	31108	
2511	0	31112	
2512	0	31136	
2513	0	31156	
2514	0	31192	
2515	0	31248	
2516	0	31316	
2517	0	31372	
2518	0	31392	
2519	0	31394	
2520	0	31388	
2521	0	31420	
2522	0	31420	
2523	0	31386	
2524	0	31360	
2525	0	31336	
2526	0	31320	
2527	0	31316	
2528	0	31296	
2529	0	31296	
2530	0	31310	
2531	0	31304	
2532	0	31316	
2533	0	31300	
2534	0	31332	
2535	0	31356	
2536	0	31372	
2537	0	31372	
2538	0	31340	
2539	0	31316	
2540	0	31304	
2541	0	31292	
2542	0	31272	
2543	0	31276	
2544	0	31284	
2545	0	31272	
2546	0	31292	
2547	0	31316	
2548	0	31320	
2549	0	31320	
2550	0	31324	
2551	0	31304	
2552	0	31292	
2553	0	31300	
2554	0	31306	
2555	0	31358	
2556	0	31428	
2557	0	31528	
2558	0	31600	
2559	0	31640	
2560	0	31664	
2561	0	31664	
2562	0	31608	
2563	0	31604	
2564	0	31576	
2565	0	31548	
2566	0	31544	
2567	0	31480	
2568	0	31440	
2569	0	31416	
2570	0	31432	
2571	0	31436	
2572	0	31448	
2573	0	31448	
2574	0	31468	
2575	0	31484	
2576	0	31550	
2577	0	31600	
2578	0	31596	
2579	0	31612	
2580	0	31636	
2581	0	31632	
2582	0	31652	
2583	0	31664	
2584	0	31676	
2585	0	31720	
2586	0	31752	
2587	0	31760	
2588	0	31748	
2589	0	31704	
2590	0	31704	
2591	0	31744	
2592	0	31796	
2593	0	31853	
2594	0	31884	
2595	0	31936	
2596	0	32010	
2597	0	32080	
2598	0	32108	
2599	0	32128	
2600	0	32152	
2601	0	32144	
2602	0	32168	
2603	0	32208	
2604	0	32224	
2605	0	32192	
2606	0	32172	
2607	0	32158	
2608	0	32160	
2609	0	32136	
2610	0	32088	
2611	0	32072	
2612	0	32112	
2613	0	32132	
2614	0	32108	
2615	0	32160	
2616	0	32228	
2617	0	32304	
2618	0	32340	
2619	0	32324	
2620	0	32332	
2621	0	32356	
2622	0	32368	
2623	0	32404	
2624	0	32428	
2625	0	32452	
2626	0	32496	
2627	0	32484	
2628	0	32480	
2629	0	32448	
2630	0	32360	
2631	0	32320	
2632	0	32336	
2633	0	32348	
2634	0	32404	
2635	0	32452	
2636	0	32478	
2637	0	32524	
2638	0	32568	
2639	0	32588	
2640	0	32584	
2641	0	32576	
2642	0	32532	
2643	0	32436	
2644	0	32388	
2645	0	32372	
2646	0	32312	
2647	0	32236	
2648	0	32202	
2649	0	32192	
2650	0	32204	
2651	0	32220	
2652	0	32224	
2653	0	32256	
2654	0	32288	
2655	0	32296	
2656	0	32332	
2657	0	32368	
2658	0	32384	
2659	0	32438	
2660	0	32496	
2661	0	32528	
2662	0	32528	
2663	0	32516	
2664	0	32544	
2665	0	32564	
2666	0	32584	
2667	0	32604	
2668	0	32608	
2669	0	32608	
2670	0	32596	
2671	0	32592	
2672	0	32592	
2673	0	32640	
2674	0	32664	
2675	0	32668	
2676	0	32676	
2677	0	32664	
2678	0	32648	
2679	0	32648	
2680	0	32664	
2681	0	32680	
2682	0	32708	
2683	0	32736	
2684	0	32760	
2685	0	32740	
2686	0	32680	
2687	0	32648	
2688	0	32624	
2689	0	32576	
2690	0	32508	
2691	0	32464	
2692	0	32476	
2693	0	32480	
2694	0	32484	
2695	0	32480	
2696	0	32524	
2697	0	32556	
2698	0	32556	
2699	0	32584	
2700	0	32576	
2701	0	32608	
2702	0	32624	
2703	0	32616	
2704	0	32608	
2705	0	32588	
2706	0	32564	
2707	0	32544	
2708	0	32532	
2709	0	32516	
2710	0	32524	
2711	0	32552	
2712	0	32588	
2713	0	32638	
2714	0	32672	
2715	0	32700	
2716	0	32712	
2717	0	32744	
2718	0	32820	
2719	0	32832	
2720	0	32836	
2721	0	32864	
2722	0	32908	
2723	0	32954	
2724	0	33008	
2725	0	33072	
2726	0	33104	
2727	0	33128	
2728	0	33144	
2729	0	33108	
2730	0	33036	
2731	0	32904	
2732	0	32812	
2733	0	32784	
2734	0	32764	
2735	0	32768	
2736	0	32776	
2737	0	32832	
2738	0	32896	
2739	0	32960	
2740	0	33044	
2741	0	33132	
2742	0	33232	
2743	0	33386	
2744	0	33540	
2745	0	33706	
2746	0	33852	
2747	0	33960	
2748	0	34000	
2749	0	34068	
2750	0	34136	
2751	0	34160	
2752	0	34230	
2753	0	34284	
2754	0	34280	
2755	0	34272	
2756	0	34244	
2757	0	34208	
2758	0	34184	
2759	0	34156	
2760	0	34140	
2761	0	34108	
2762	0	33988	
2763	0	33856	
2764	0	33752	
2765	0	33664	
2766	0	33572	
2767	0	33464	
2768	0	33356	
2769	0	33252	
2770	0	33124	
2771	0	33040	
2772	0	32996	
2773	0	32992	
2774	0	33004	
2775	0	33000	
2776	0	32992	
2777	0	32980	
2778	0	33016	
2779	0	33016	
2780	0	33016	
2781	0	33024	
2782	0	32980	
2783	0	32944	
2784	0	32896	
2785	0	32872	
2786	0	32792	
2787	0	32712	
2788	0	32672	
2789	0	32656	
2790	0	32600	
2791	0	32544	
2792	0	32552	
2793	0	32576	
2794	0	32572	
2795	0	32532	
2796	0	32506	
2797	0	32524	
2798	0	32528	
2799	0	32528	
2800	0	32522	
2801	0	32452	
2802	0	32396	
2803	0	32304	
2804	0	32192	
2805	0	32116	
2806	0	32040	
2807	0	31988	
2808	0	31976	
2809	0	31988	
2810	0	32012	
2811	0	32056	
2812	0	32136	
2813	0	32196	
2814	0	32240	
2815	0	32288	
2816	0	32352	
2817	0	32392	
2818	0	32412	
2819	0	32388	
2820	0	32386	
2821	0	32388	
2822	0	32404	
2823	0	32400	
2824	0	32360	
2825	0	32324	
2826	0	32296	
2827	0	32288	
2828	0	32248	
2829	0	32258	
2830	0	32248	
2831	0	32240	
2832	0	32280	
2833	0	32328	
2834	0	32376	
2835	0	32388	
2836	0	32404	
2837	0	32392	
2838	0	32376	
2839	0	32386	
2840	0	32400	
2841	0	32408	
2842	0	32368	
2843	0	32368	
2844	0	32352	
2845	0	32336	
2846	0	32364	
2847	0	32408	
2848	0	32444	
2849	0	32448	
2850	0	32440	
2851	0	32464	
2852	0	32536	
2853	0	32560	
2854	0	32580	
2855	0	32584	
2856	0	32600	
2857	0	32600	
2858	0	32592	
2859	0	32592	
2860	0	32608	
2861	0	32648	
2862	0	32690	
2863	0	32724	
2864	0	32736	
2865	0	32728	
2866	0	32652	
2867	0	32544	
2868	0	32480	
2869	0	32468	
2870	0	32474	
2871	0	32480	
2872	0	32548	
2873	0	32672	
2874	0	32748	
2875	0	32776	
2876	0	32788	
2877	0	32784	
2878	0	32692	
2879	0	32618	
2880	0	32536	
2881	0	32504	
2882	0	32484	
2883	0	32584	
2884	0	32836	
2885	0	33116	
2886	0	33372	
2887	0	33668	
2888	0	33944	
2889	0	34172	
2890	0	34252	
2891	0	34280	
2892	0	34392	
2893	0	34648	
2894	0	35100	
2895	0	35732	
2896	0	36538	
2897	0	37524	
2898	0	38620	
2899	0	39856	
2900	0	41236	
2901	0	42620	
2902	0	44088	
2903	0	45572	
2904	0	47156	
2905	0	48720	
2906	0	50080	
2907	0	51200	
2908	0	52120	
2909	0	52976	
2910	0	53792	
2911	0	54544	
2912	0	55080	
2913	0	55040	
2914	0	54124	
2915	0	52180	
2916	0	49364	
2917	0	46040	
2918	0	42520	
2919	0	39088	
2920	0	36018	
2921	0	33520	
2922	0	31784	
2923	0	30664	
2924	0	29952	
2925	0	29504	
2926	0	29280	
2927	0	29160	
2928	0	29184	
2929	0	29416	
2930	0	29764	
2931	0	30148	
2932	0	30488	
2933	0	30772	
2934	0	31016	
2935	0	31200	
2936	0	31372	
2937	0	31524	
2938	0	31688	
2939	0	31828	
2940	0	31956	
2941	0	31992	
2942	0	32024	
2943	0	32040	
2944	0	32036	
2945	0	32004	
2946	0	31992	
2947	0	31968	
2948	0	31944	
2949	0	31924	
2950	0	31884	
2951	0	31824	
2952	0	31760	
2953	0	31688	
2954	0	31668	
2955	0	31670	
2956	0	31680	
2957	0	31660	
2958	0	31664	
2959	0	31716	
2960	0	31792	
2961	0	31852	
2962	0	31860	
2963	0	31884	
2964	0	31882	
2965	0	31880	
2966	0	31884	
2967	0	31876	
2968	0	31840	
2969	0	31826	
2970	0	31814	
2971	0	31764	
2972	0	31728	
2973	0	31744	
2974	0	31784	
2975	0	31840	
2976	0	31884	
2977	0	31908	
2978	0	31940	
2979	0	31976	
2980	0	32024	
2981	0	32088	
2982	0	32140	
2983	0	32152	
2984	0	32192	
2985	0	32240	
2986	0	32248	
2987	0	32204	
2988	0	32164	
2989	0	32124	
2990	0	32120	
2991	0	32152	
2992	0	32184	
2993	0	32216	
2994	0	32244	
2995	0	32268	
2996	0	32272	
2997	0	32296	
2998	0	32312	
2999	0	32320	
3000	0	32304	
3001	0	32312	
3002	0	32352	
3003	0	32412	
3004	0	32432	
3005	0	32432	
3006	0	32420	
3007	0	32416	
3008	0	32424	
3009	0	32444	
3010	0	32480	
3011	0	32496	
3012	0	32484	
3013	0	32476	
3014	0	32476	
3015	0	32472	
3016	0	32500	
3017	0	32516	
3018	0	32564	
3019	0	32620	
3020	0	32688	
3021	0	32760	
3022	0	32800	
3023	0	32840	
3024	0	32848	
3025	0	32840	
3026	0	32816	
3027	0	32808	
3028	0	32760	
3029	0	32684	
3030	0	32644	
3031	0	32666	
3032	0	32724	
3033	0	32784	
3034	0	32860	
3035	0	32914	
3036	0	32968	
3037	0	33020	
3038	0	33064	
3039	0	33120	
3040	0	33200	
3041	0	33260	
3042	0	33280	
3043	0	33304	
3044	0	33316	
3045	0	33296	
3046	0	33244	
3047	0	33172	
3048	0	33106	
3049	0	33044	
3050	0	33012	
3051	0	33016	
3052	0	33056	
3053	0	33084	
3054	0	33092	
3055	0	33132	
3056	0	33160	
3057	0	33196	
3058	0	33216	
3059	0	33236	
3060	0	33288	
3061	0	33312	
3062	0	33324	
3063	0	33365	
3064	0	33392	
3065	0	33416	
3066	0	33456	
3067	0	33488	
3068	0	33520	
3069	0	33512	
3070	0	33496	
3071	0	33488	
3072	0	33512	
3073	0	33516	
3074	0	33508	
3075	0	33504	
3076	0	33472	
3077	0	33440	
3078	0	33436	
3079	0	33448	
3080	0	33480	
3081	0	33476	
3082	0	33532	
3083	0	33600	
3084	0	33680	
3085	0	33720	
3086	0	33736	
3087	0	33668	
3088	0	33584	
3089	0	33512	
3090	0	33512	
3091	0	33560	
3092	0	33600	
3093	0	33648	
3094	0	33720	
3095	0	33804	
3096	0	33884	
3097	0	33952	
3098	0	33984	
3099	0	34008	
3100	0	34008	
3101	0	33984	
3102	0	33944	
3103	0	33924	
3104	0	33956	
3105	0	33980	
3106	0	33984	
3107	0	33960	
3108	0	33944	
3109	0	33956	
3110	0	33970	
3111	0	33996	
3112	0	34036	
3113	0	34072	
3114	0	34116	
3115	0	34100	
3116	0	34100	
3117	0	34140	
3118	0	34152	
3119	0	34172	
3120	0	34204	
3121	0	34204	
3122	0	34200	
3123	0	34242	
3124	0	34292	
3125	0	34272	
3126	0	34244	
3127	0	34250	
3128	0	34232	
3129	0	34232	
3130	0	34240	
3131	0	34224	
3132	0	34200	
3133	0	34224	
3134	0	34264	
3135	0	34348	
3136	0	34408	
3137	0	34448	
3138	0	34472	
3139	0	34464	
3140	0	34436	
3141	0	34420	
3142	0	34440	
3143	0	34456	
3144	0	34440	
3145	0	34405	
3146	0	34372	
3147	0	34336	
3148	0	34276	
3149	0	34232	
3150	0	34184	
3151	0	34176	
3152	0	34196	
3153	0	34236	
3154	0	34272	
3155	0	34288	
3156	0	34308	
3157	0	34368	
3158	0	34432	
3159	0	34426	
3160	0	34392	
3161	0	34352	
3162	0	34312	
3163	0	34312	
3164	0	34320	
3165	0	34320	
3166	0	34260	
3167	0	34192	
3168	0	34156	
3169	0	34176	
3170	0	34232	
3171	0	34280	
3172	0	34320	
3173	0	34320	
3174	0	34352	
3175	0	34348	
3176	0	34332	
3177	0	34368	
3178	0	34388	
3179	0	34394	
3180	0	34412	
3181	0	34392	
3182	0	34312	
3183	0	34224	
3184	0	34176	
3185	0	34112	
3186	0	34020	
3187	0	33904	
3188	0	33812	
3189	0	33704	
3190	0	33628	
3191	0	33584	
3192	0	33540	
3193	0	33512	
3194	0	33468	
3195	0	33424	
3196	0	33352	
3197	0	33310	
3198	0	33250	
3199	0	33188	
3200	0	33136	
3201	0	33056	
3202	0	32960	
3203	0	32880	
3204	0	32800	
3205	0	32726	
3206	0	32624	
3207	0	32504	
3208	0	32388	
3209	0	32256	
3210	0	32154	
3211	0	32084	
3212	0	32056	
3213	0	32032	
3214	0	31988	
3215	0	31912	
3216	0	31848	
3217	0	31812	
3218	0	31770	
3219	0	31740	
3220	0	31696	
3221	0	31640	
3222	0	31568	
3223	0	31492	
3224	0	31440	
3225	0	31376	
3226	0	31314	
3227	0	31236	
3228	0	31176	
3229	0	31148	
3230	0	31136	
3231	0	31096	
3232	0	31068	
3233	0	31032	
3234	0	30976	
3235	0	30916	
3236	0	30864	
3237	0	30848	
3238	0	30880	
3239	0	30880	
3240	0	30880	
3241	0	30864	
3242	0	30882	
3243	0	30852	
3244	0	30844	
3245	0	30776	
3246	0	30684	
3247	0	30596	
3248	0	30564	
3249	0	30560	
3250	0	30552	
3251	0	30544	
3252	0	30528	
3253	0	30516	
3254	0	30514	
3255	0	30512	
3256	0	30520	
3257	0	30548	
3258	0	30628	
3259	0	30684	
3260	0	30728	
3261	0	30780	
3262	0	30816	
3263	0	30820	
3264	0	30860	
3265	0	30868	
3266	0	30844	
3267	0	30808	
3268	0	30828	
3269	0	30864	
3270	0	30914	
3271	0	30960	
3272	0	31008	
3273	0	31048	
3274	0	31084	
3275	0	31116	
3276	0	31108	
3277	0	31072	
3278	0	31104	
3279	0	31180	
3280	0	31224	
3281	0	31264	
3282	0	31256	
3283	0	31272	
3284	0	31304	
3285	0	31220	
3286	0	31136	
3287	0	31096	
3288	0	31108	
3289	0	31142	
3290	0	31158	
3291	0	31120	
3292	0	31116	
3293	0	31144	
3294	0	31176	
3295	0	31236	
3296	0	31316	
3297	0	31402	
3298	0	31448	
3299	0	31468	
3300	0	31460	
3301	0	31424	
3302	0	31420	
3303	0	31448	
3304	0	31476	
3305	0	31472	
3306	0	31400	
3307	0	31352	
3308	0	31322	
3309	0	31304	
3310	0	31312	
3311	0	31344	
3312	0	31328	
3313	0	31340	
3314	0	31376	
3315	0	31436	
3316	0	31480	
3317	0	31460	
3318	0	31424	
3319	0	31400	
3320	0	31368	
3321	0	31368	
3322	0	31376	
3323	0	31368	
3324	0	31362	
3325	0	31408	
3326	0	31428	
3327	0	31424	
3328	0	31444	
3329	0	31496	
3330	0	31532	
3331	0	31560	
3332	0	31576	
3333	0	31536	
3334	0	31512	
3335	0	31504	
3336	0	31520	
3337	0	31532	
3338	0	31584	
3339	0	31612	
3340	0	31624	
3341	0	31612	
3342	0	31608	
3343	0	31616	
3344	0	31648	
3345	0	31668	
3346	0	31692	
3347	0	31692	
3348	0	31652	
3349	0	31568	
3350	0	31512	
3351	0	31536	
3352	0	31552	
3353	0	31544	
3354	0	31504	
3355	0	31504	
3356	0	31536	
3357	0	31556	
3358	0	31540	
3359	0	31512	
3360	0	31504	
3361	0	31528	
3362	0	31528	
3363	0	31484	
3364	0	31500	
3365	0	31488	
3366	0	31476	
3367	0	31444	
3368	0	31428	
3369	0	31468	
3370	0	31496	
3371	0	31520	
3372	0	31576	
3373	0	31608	
3374	0	31612	
3375	0	31632	
3376	0	31628	
3377	0	31632	
3378	0	31636	
3379	0	31636	
3380	0	31620	
3381	0	31592	
3382	0	31536	
3383	0	31524	
3384	0	31496	
3385	0	31488	
3386	0	31468	
3387	0	31484	
3388	0	31480	
3389	0	31456	
3390	0	31448	
3391	0	31428	
3392	0	31456	
3393	0	31496	
3394	0	31520	
3395	0	31524	
3396	0	31536	
3397	0	31544	
3398	0	31556	
3399	0	31564	
3400	0	31616	
3401	0	31652	
3402	0	31732	
3403	0	31832	
3404	0	31912	
3405	0	31936	
3406	0	31948	
3407	0	31896	
3408	0	31816	
3409	0	31752	
3410	0	31682	
3411	0	31680	
3412	0	31700	
3413	0	31712	
3414	0	31758	
3415	0	31800	
3416	0	31816	
3417	0	31852	
3418	0	31896	
3419	0	31936	
3420	0	31980	
3421	0	32028	
3422	0	32058	
3423	0	32056	
3424	0	32064	
3425	0	32040	
3426	0	31980	
3427	0	31932	
3428	0	31920	
3429	0	31944	
3430	0	31960	
3431	0	31968	
3432	0	32048	
3433	0	32096	
3434	0	32088	
3435	0	32064	
3436	0	32048	
3437	0	32048	
3438	0	32048	
3439	0	32084	
3440	0	32116	
3441	0	32122	
3442	0	32120	
3443	0	32096	
3444	0	32040	
3445	0	31976	
3446	0	31976	
3447	0	31994	
3448	0	31976	
3449	0	31940	
3450	0	31928	
3451	0	31932	
3452	0	31920	
3453	0	31968	
3454	0	32028	
3455	0	32108	
3456	0	32176	
3457	0	32240	
3458	0	32306	
3459	0	32292	
3460	0	32308	
3461	0	32330	
3462	0	32320	
3463	0	32344	
3464	0	32352	
3465	0	32336	
3466	0	32320	
3467	0	32320	
3468	0	32276	
3469	0	32240	
3470	0	32160	
3471	0	32112	
3472	0	32116	
3473	0	32136	
3474	0	32168	
3475	0	32184	
3476	0	32232	
3477	0	32336	
3478	0	32428	
3479	0	32504	
3480	0	32532	
3481	0	32544	
3482	0	32560	
3483	0	32560	
3484	0	32548	
3485	0	32560	
3486	0	32540	
3487	0	32588	
3488	0	32600	
3489	0	32616	
3490	0	32620	
3491	0	32604	
3492	0	32568	
3493	0	32544	
3494	0	32564	
3495	0	32588	
3496	0	32604	
3497	0	32640	
3498	0	32666	
3499	0	32728	
3500	0	32792	
3501	0	32856	
3502	0	32920	
3503	0	33020	
3504	0	33100	
3505	0	33192	
3506	0	33300	
3507	0	33424	
3508	0	33550	
3509	0	33632	
3510	0	33728	
3511	0	33848	
3512	0	33968	
3513	0	34048	
3514	0	34108	
3515	0	34184	
3516	0	34276	
3517	0	34328	
3518	0	34352	
3519	0	34376	
3520	0	34376	
3521	0	34340	
3522	0	34244	
3523	0	34144	
3524	0	34054	
3525	0	33912	
3526	0	33716	
3527	0	33512	
3528	0	33348	
3529	0	33224	
3530	0	33132	
3531	0	33072	
3532	0	33064	
3533	0	33048	
3534	0	33040	
3535	0	33048	
3536	0	33076	
3537	0	33056	
3538	0	33020	
3539	0	32984	
3540	0	32944	
3541	0	32920	
3542	0	32888	
3543	0	32852	
3544	0	32866	
3545	0	32864	
3546	0	32836	
3547	0	32800	
3548	0	32768	
3549	0	32740	
3550	0	32692	
3551	0	32600	
3552	0	32508	
3553	0	32436	
3554	0	32424	
3555	0	32404	
3556	0	32384	
3557	0	32316	
3558	0	32257	
3559	0	32256	
3560	0	32216	
3561	0	32168	
3562	0	32032	
3563	0	31928	
3564	0	31848	
3565	0	31828	
3566	0	31840	
3567	0	31828	
3568	0	31832	
3569	0	31824	
3570	0	31840	
3571	0	31834	
3572	0	31832	
3573	0	31832	
3574	0	31840	
3575	0	31856	
3576	0	31862	
3577	0	31888	
3578	0	31932	
3579	0	31976	
3580	0	32004	
3581	0	32060	
3582	0	32076	
3583	0	32064	
3584	0	32048	
3585	0	32036	
3586	0	31992	
3587	0	31924	
3588	0	31856	
3589	0	31808	
3590	0	31800	
3591	0	31836	
3592	0	31868	
3593	0	31868	
3594	0	31876	
3595	0	31912	
3596	0	31928	
3597	0	31944	
3598	0	31976	
3599	0	31992	
3600	0	32020	
3601	0	32036	
3602	0	32020	
3603	0	31992	
3604	0	31960	
3605	0	31940	
3606	0	31936	
3607	0	31928	
3608	0	31900	
3609	0	31916	
3610	0	31960	
3611	0	32044	
3612	0	32088	
3613	0	32112	
3614	0	32120	
3615	0	32148	
3616	0	32128	
3617	0	32180	
3618	0	32244	
3619	0	32290	
3620	0	32312	
3621	0	32304	
3622	0	32300	
3623	0	32320	
3624	0	32322	
3625	0	32352	
3626	0	32364	
3627	0	32384	
3628	0	32384	
3629	0	32392	
3630	0	32424	
3631	0	32432	
3632	0	32468	
3633	0	32528	
3634	0	32600	
3635	0	32680	
3636	0	32764	
3637	0	32812	
3638	0	32808	
3639	0	32808	
3640	0	32712	
3641	0	32624	
3642	0	32560	
3643	0	32556	
3644	0	32632	
3645	0	32880	
3646	0	33192	
3647	0	33524	
3648	0	33880	
3649	0	34224	
3650	0	34496	
3651	0	34672	
3652	0	34744	
3653	0	34812	
3654	0	34980	
3655	0	35320	
3656	0	35888	
3657	0	36628	
3658	0	37528	
3659	0	38636	
3660	0	39888	
3661	0	41274	
3662	0	42700	
3663	0	44204	
3664	0	45748	
3665	0	47376	
3666	0	49008	
3667	0	50484	
3668	0	51776	
3669	0	52832	
3670	0	53704	
3671	0	54644	
3672	0	55584	
3673	0	56264	
3674	0	56496	
3675	0	55956	
3676	0	54376	
3677	0	51744	
3678	0	48424	
3679	0	44820	
3680	0	41200	
3681	0	37792	
3682	0	35000	
3683	0	32960	
3684	0	31544	
3685	0	30560	
3686	0	29960	
3687	0	29632	
3688	0	29496	
3689	0	29464	
3690	0	29512	
3691	0	29668	
3692	0	29928	
3693	0	30224	
3694	0	30504	
3695	0	30792	
3696	0	31026	
3697	0	31192	
3698	0	31320	
3699	0	31448	
3700	0	31588	
3701	0	31632	
3702	0	31648	
3703	0	31658	
3704	0	31656	
3705	0	31658	
3706	0	31644	
3707	0	31624	
3708	0	31564	
3709	0	31490	
3710	0	31396	
3711	0	31300	
3712	0	31237	
3713	0	31216	
3714	0	31200	
3715	0	31210	
3716	0	31248	
3717	0	31304	
3718	0	31348	
3719	0	31384	
3720	0	31436	
3721	0	31476	
3722	0	31496	
3723	0	31512	
3724	0	31460	
3725	0	31414	
3726	0	31396	
3727	0	31372	
3728	0	31360	
3729	0	31324	
3730	0	31312	
3731	0	31324	
3732	0	31352	
3733	0	31396	
3734	0	31444	
3735	0	31512	
3736	0	31592	
3737	0	31664	
3738	0	31720	
3739	0	31728	
3740	0	31744	
3741	0	31768	
3742	0	31776	
3743	0	31772	
3744	0	31760	
3745	0	31736	
3746	0	31728	
3747	0	31736	
3748	0	31732	
3749	0	31736	
3750	0	31776	
3751	0	31796	
3752	0	31844	
3753	0	31888	
3754	0	31928	
3755	0	31984	
3756	0	32058	
3757	0	32116	
3758	0	32156	
3759	0	32220	
3760	0	32256	
3761	0	32296	
3762	0	32280	
3763	0	32232	
3764	0	32212	
3765	0	32228	
3766	0	32204	
3767	0	32184	
3768	0	32172	
3769	0	32164	
3770	0	32168	
3771	0	32204	
3772	0	32244	
3773	0	32298	
3774	0	32304	
3775	0	32336	
3776	0	32380	
3777	0	32428	
3778	0	32496	
3779	0	32560	
3780	0	32616	
3781	0	32672	
3782	0	32716	
3783	0	32724	
3784	0	32756	
3785	0	32800	
3786	0	32824	
3787	0	32836	
3788	0	32816	
3789	0	32796	
3790	0	32772	
3791	0	32764	
3792	0	32776	
3793	0	32824	
3794	0	32850	
3795	0	32868	
3796	0	32876	
3797	0	32884	
3798	0	32924	
3799	0	32984	
3800	0	33016	
3801	0	33010	
3802	0	33016	
3803	0	33052	
3804	0	33052	
3805	0	33080	
3806	0	33120	
3807	0	33144	
3808	0	33164	
3809	0	33168	
3810	0	33184	
3811	0	33192	
3812	0	33212	
3813	0	33236	
3814	0	33248	
3815	0	33256	
3816	0	33276	
3817	0	33312	
3818	0	33384	
3819	0	33432	
3820	0	33508	
3821	0	33528	
3822	0	33536	
3823	0	33560	
3824	0	33600	
3825	0	33612	
3826	0	33656	
3827	0	33660	
3828	0	33672	
3829	0	33640	
3830	0	33628	
3831	0	33624	
3832	0	33628	
3833	0	33632	
3834	0	33636	
3835	0	33656	
3836	0	33660	
3837	0	33688	
3838	0	33728	
3839	0	33760	
3840	0	33808	
3841	0	33816	
3842	0	33840	
3843	0	33916	
3844	0	33952	
3845	0	33984	
3846	0	33992	
3847	0	34008	
3848	0	34000	
3849	0	33992	
3850	0	33986	
3851	0	33984	
3852	0	33984	
3853	0	34048	
3854	0	34094	
3855	0	34116	
3856	0	34136	
3857	0	34164	
3858	0	34224	
3859	0	34272	
3860	0	34336	
3861	0	34376	
3862	0	34386	
3863	0	34396	
3864	0	34404	
3865	0	34380	
3866	0	34356	
3867	0	34336	
3868	0	34300	
3869	0	34272	
3870	0	34272	
3871	0	34308	
3872	0	34352	
3873	0	34356	
3874	0	34376	
3875	0	34368	
3876	0	34372	
3877	0	34380	
3878	0	34436	
3879	0	34496	
3880	0	34532	
3881	0	34536	
3882	0	34520	
3883	0	34508	
3884	0	34492	
3885	0	34500	
3886	0	34516	
3887	0	34508	
3888	0	34478	
3889	0	34402	
3890	0	34344	
3891	0	34336	
3892	0	34308	
3893	0	34308	
3894	0	34344	
3895	0	34336	
3896	0	34336	
3897	0	34324	
3898	0	34320	
3899	0	34330	
3900	0	34368	
3901	0	34408	
3902	0	34412	
3903	0	34412	
3904	0	34364	
3905	0	34320	
3906	0	34292	
3907	0	34288	
3908	0	34272	
3909	0	34292	
3910	0	34280	
3911	0	34260	
3912	0	34248	
3913	0	34224	
3914	0	34240	
3915	0	34284	
3916	0	34324	
3917	0	34352	
3918	0	34362	
3919	0	34376	
3920	0	34396	
3921	0	34392	
3922	0	34354	
3923	0	34328	
3924	0	34276	
3925	0	34248	
3926	0	34240	
3927	0	34220	
3928	0	34178	
3929	0	34154	
3930	0	34160	
3931	0	34188	
3932	0	34244	
3933	0	34248	
3934	0	34236	
3935	0	34248	
3936	0	34286	
3937	0	34316	
3938	0	34336	
3939	0	34320	
3940	0	34276	
3941	0	34200	
3942	0	34148	
3943	0	34112	
3944	0	34072	
3945	0	34008	
3946	0	33896	
3947	0	33782	
3948	0	33648	
3949	0	33516	
3950	0	33376	
3951	0	33284	
3952	0	33192	
3953	0	33072	
3954	0	32950	
3955	0	32872	
3956	0	32816	
3957	0	32760	
3958	0	32736	
3959	0	32732	
3960	0	32704	
3961	0	32616	
3962	0	32496	
3963	0	32392	
3964	0	32296	
3965	0	32188	
3966	0	32032	
3967	0	31936	
3968	0	31824	
3969	0	31712	
3970	0	31596	
3971	0	31520	
3972	0	31448	
3973	0	31352	
3974	0	31264	
3975	0	31212	
3976	0	31200	
3977	0	31152	
3978	0	31116	
3979	0	31074	
3980	0	31042	
3981	0	31028	
3982	0	30988	
3983	0	30936	
3984	0	30872	
3985	0	30800	
3986	0	30720	
3987	0	30656	
3988	0	30608	
3989	0	30558	
3990	0	30500	
3991	0	30488	
3992	0	30464	
3993	0	30424	
3994	0	30380	
3995	0	30352	
3996	0	30312	
3997	0	30304	
3998	0	30308	
3999	0	30312	
4000	0	30334	
4001	0	30320	
4002	0	30312	
4003	0	30292	
4004	0	30264	
4005	0	30244	
4006	0	30228	
4007	0	30216	
4008	0	30208	
4009	0	30202	
4010	0	30200	
4011	0	30216	
4012	0	30244	
4013	0	30280	
4014	0	30316	
4015	0	30336	
4016	0	30388	
4017	0	30424	
4018	0	30476	
4019	0	30528	
4020	0	30560	
4021	0	30580	
4022	0	30580	
4023	0	30560	
4024	0	30568	
4025	0	30560	
4026	0	30562	
4027	0	30556	
4028	0	30536	
4029	0	30524	
4030	0	30560	
4031	0	30600	
4032	0	30656	
4033	0	30688	
4034	0	30716	
4035	0	30748	
4036	0	30800	
4037	0	30864	
4038	0	30908	
4039	0	30960	
4040	0	31008	
4041	0	31048	
4042	0	31056	
4043	0	31050	
4044	0	31044	
4045	0	31046	
4046	0	31048	
4047	0	31044	
4048	0	31056	
4049	0	31060	
4050	0	31056	
4051	0	31072	
4052	0	31080	
4053	0	31104	
4054	0	31100	
4055	0	31092	
4056	0	31116	
4057	0	31132	
4058	0	31192	
4059	0	31240	
4060	0	31280	
4061	0	31320	
4062	0	31332	
4063	0	31312	
4064	0	31290	
4065	0	31288	
4066	0	31280	
4067	0	31280	
4068	0	31268	
4069	0	31248	
4070	0	31244	
4071	0	31252	
4072	0	31284	
4073	0	31328	
4074	0	31360	
4075	0	31380	
4076	0	31406	
4077	0	31408	
4078	0	31440	
4079	0	31456	
4080	0	31476	
4081	0	31496	
4082	0	31508	
4083	0	31520	
4084	0	31524	
4085	0	31528	
4086	0	31504	
4087	0	31480	
4088	0	31420	
4089	0	31384	
4090	0	31368	
4091	0	31352	
4092	0	31332	
4093	0	31352	
4094	0	31372	
4095	0	31376	
4096	0	31428	
4097	0	31444	
4098	0	31480	
4099	0	31528	
4100	0	31573	
4101	0	31608	
4102	0	31606	
4103	0	31588	
4104	0	31556	
4105	0	31532	
4106	0	31508	
4107	0	31480	
4108	0	31456	
4109	0	31436	
4110	0	31432	
4111	0	31424	
4112	0	31440	
4113	0	31448	
4114	0	31456	
4115	0	31452	
4116	0	31494	
4117	0	31544	
4118	0	31560	
4119	0	31592	
4120	0	31596	
4121	0	31592	
4122	0	31586	
4123	0	31564	
4124	0	31532	
4125	0	31512	
4126	0	31502	
4127	0	31480	
4128	0	31440	
4129	0	31432	
4130	0	31428	
4131	0	31440	
4132	0	31456	
4133	0	31496	
4134	0	31528	
4135	0	31540	
4136	0	31572	
4137	0	31612	
4138	0	31668	
4139	0	31724	
4140	0	31768	
4141	0	31776	
4142	0	31804	
4143	0	31832	
4144	0	31844	
4145	0	31864	
4146	0	31876	
4147	0	31864	
4148	0	31840	
4149	0	31836	
4150	0	31820	
4151	0	31816	
4152	0	31836	
4153	0	31840	
4154	0	31844	
4155	0	31848	
4156	0	31888	
4157	0	31948	
4158	0	31988	
4159	0	32040	
4160	0	32088	
4161	0	32116	
4162	0	32140	
4163	0	32142	
4164	0	32112	
4165	0	32072	
4166	0	31996	
4167	0	31944	
4168	0	31896	
4169	0	31872	
4170	0	31864	
4171	0	31864	
4172	0	31848	
4173	0	31848	
4174	0	31840	
4175	0	31856	
4176	0	31892	
4177	0	31928	
4178	0	31974	
4179	0	31992	
4180	0	32034	
4181	0	32064	
4182	0	32064	
4183	0	32048	
4184	0	32092	
4185	0	32104	
4186	0	32124	
4187	0	32116	
4188	0	32104	
4189	0	32084	
4190	0	32080	
4191	0	32096	
4192	0	32120	
4193	0	32124	
4194	0	32132	
4195	0	32144	
4196	0	32196	
4197	0	32246	
4198	0	32272	
4199	0	32314	
4200	0	32348	
4201	0	32368	
4202	0	32368	
4203	0	32348	
4204	0	32320	
4205	0	32256	
4206	0	32184	
4207	0	32156	
4208	0	32136	
4209	0	32104	
4210	0	32064	
4211	0	32048	
4212	0	32092	
4213	0	32096	
4214	0	32096	
4215	0	32120	
4216	0	32146	
4217	0	32204	
4218	0	32248	
4219	0	32276	
4220	0	32280	
4221	0	32272	
4222	0	32248	
4223	0	32236	
4224	0	32232	
4225	0	32220	
4226	0	32200	
4227	0	32144	
4228	0	32116	
4229	0	32064	
4230	0	32046	
4231	0	32036	
4232	0	32040	
4233	0	32064	
4234	0	32080	
4235	0	32088	
4236	0	32112	
4237	0	32160	
4238	0	32220	
4239	0	32248	
4240	0	32268	
4241	0	32260	
4242	0	32252	
4243	0	32260	
4244	0	32264	
4245	0	32304	
4246	0	32314	
4247	0	32332	
4248	0	32356	
4249	0	32404	
4250	0	32480	
4251	0	32532	
4252	0	32576	
4253	0	32586	
4254	0	32600	
4255	0	32624	
4256	0	32628	
4257	0	32652	
4258	0	32660	
4259	0	32684	
4260	0	32704	
4261	0	32696	
4262	0	32684	
4263	0	32692	
4264	0	32700	
4265	0	32640	
4266	0	32592	
4267	0	32564	
4268	0	32580	
4269	0	32616	
4270	0	32696	
4271	0	32808	
4272	0	32936	
4273	0	33056	
4274	0	33144	
4275	0	33256	
4276	0	33384	
4277	0	33500	
4278	0	33624	
4279	0	33720	
4280	0	33812	
4281	0	33888	
4282	0	33940	
4283	0	34008	
4284	0	34064	
4285	0	34112	
4286	0	34112	
4287	0	34052	
4288	0	33984	
4289	0	33882	
4290	0	33776	
4291	0	33676	
4292	0	33604	
4293	0	33532	
4294	0	33464	
4295	0	33408	
4296	0	33344	
4297	0	33304	
4298	0	33260	
4299	0	33216	
4300	0	33188	
4301	0	33144	
4302	0	33104	
4303	0	33048	
4304	0	33012	
4305	0	32980	
4306	0	32912	
4307	0	32852	
4308	0	32808	
4309	0	32768	
4310	0	32736	
4311	0	32742	
4312	0	32760	
4313	0	32816	
4314	0	32872	
4315	0	32952	
4316	0	33000	
4317	0	33028	
4318	0	33008	
4319	0	33008	
4320	0	32980	
4321	0	32952	
4322	0	32912	
4323	0	32876	
4324	0	32816	
4325	0	32756	
4326	0	32712	
4327	0	32652	
4328	0	32560	
4329	0	32456	
4330	0	32400	
4331	0	32340	
4332	0	32312	
4333	0	32312	
4334	0	32288	
4335	0	32284	
4336	0	32316	
4337	0	32336	
4338	0	32332	
4339	0	32336	
4340	0	32322	
4341	0	32272	
4342	0	32196	
4343	0	32176	
4344	0	32144	
4345	0	32126	
4346	0	32112	
4347	0	32112	
4348	0	32112	
4349	0	32096	
4350	0	32084	
4351	0	32092	
4352	0	32128	
4353	0	32168	
4354	0	32220	
4355	0	32252	
4356	0	32314	
4357	0	32360	
4358	0	32404	
4359	0	32436	
4360	0	32448	
4361	0	32448	
4362	0	32436	
4363	0	32416	
4364	0	32388	
4365	0	32384	
4366	0	32372	
4367	0	32336	
4368	0	32292	
4369	0	32260	
4370	0	32258	
4371	0	32280	
4372	0	32300	
4373	0	32336	
4374	0	32360	
4375	0	32388	
4376	0	32424	
4377	0	32452	
4378	0	32496	
4379	0	32504	
4380	0	32528	
4381	0	32540	
4382	0	32528	
4383	0	32520	
4384	0	32500	
4385	0	32460	
4386	0	32472	
4387	0	32460	
4388	0	32448	
4389	0	32444	
4390	0	32448	
4391	0	32480	
4392	0	32504	
4393	0	32520	
4394	0	32544	
4395	0	32584	
4396	0	32624	
4397	0	32688	
4398	0	32756	
4399	0	32816	
4400	0	32884	
4401	0	32968	
4402	0	33036	
4403	0	33064	
4404	0	33084	
4405	0	33128	
4406	0	33108	
4407	0	33024	
4408	0	32940	
4409	0	32880	
4410	0	32862	
4411	0	32908	
4412	0	33100	
4413	0	33416	
4414	0	33784	
4415	0	34168	
4416	0	34524	
4417	0	34816	
4418	0	35084	
4419	0	35232	
4420	0	35320	
4421	0	35476	
4422	0	35788	
4423	0	36280	
4424	0	36872	
4425	0	37684	
4426	0	38656	
4427	0	39796	
4428	0	40960	
4429	0	42184	
4430	0	43468	
4431	0	44872	
4432	0	46288	
4433	0	47672	
4434	0	48944	
4435	0	50064	
4436	0	51016	
4437	0	51868	
4438	0	52868	
4439	0	53808	
4440	0	54512	
4441	0	54760	
4442	0	54108	
4443	0	52408	
4444	0	49760	
4445	0	46496	
4446	0	42968	
4447	0	39472	
4448	0	36320	
4449	0	33864	
4450	0	32144	
4451	0	31020	
4452	0	30392	
4453	0	30144	
4454	0	30104	
4455	0	30140	
4456	0	30200	
4457	0	30292	
4458	0	30476	
4459	0	30712	
4460	0	30940	
4461	0	31136	
4462	0	31320	
4463	0	31496	
4464	0	31624	
4465	0	31768	
4466	0	31900	
4467	0	32036	
4468	0	32112	
4469	0	32172	
4470	0	32204	
4471	0	32216	
4472	0	32192	
4473	0	32160	
4474	0	32144	
4475	0	32132	
4476	0	32112	
4477	0	32084	
4478	0	32064	
4479	0	32056	
4480	0	32032	
4481	0	31996	
4482	0	31964	
4483	0	31936	
4484	0	31896	
4485	0	31872	
4486	0	31828	
4487	0	31792	
4488	0	31744	
4489	0	31704	
4490	0	31696	
4491	0	31692	
4492	0	31732	
4493	0	31760	
4494	0	31792	
4495	0	31824	
4496	0	31884	
4497	0	31964	
4498	0	32012	
4499	0	32048	
4500	0	32088	
4501	0	32120	
4502	0	32142	
4503	0	32162	
4504	0	32168	
4505	0	32176	
4506	0	32168	
4507	0	32160	
4508	0	32148	
4509	0	32116	
4510	0	32104	
4511	0	32128	
4512	0	32160	
4513	0	32192	
4514	0	32232	
4515	0	32284	
4516	0	32328	
4517	0	32368	
4518	0	32400	
4519	0	32464	
4520	0	32532	
4521	0	32546	
4522	0	32544	
4523	0	32528	
4524	0	32508	
4525	0	32488	
4526	0	32476	
4527	0	32456	
4528	0	32460	
4529	0	32496	
4530	0	32512	
4531	0	32546	
4532	0	32588	
4533	0	32624	
4534	0	32660	
4535	0	32688	
4536	0	32736	
4537	0	32760	
4538	0	32800	
4539	0	32832	
4540	0	32876	
4541	0	32900	
4542	0	32908	
4543	0	32916	
4544	0	32916	
4545	0	32916	
4546	0	32904	
4547	0	32872	
4548	0	32848	
4549	0	32824	
4550	0	32840	
4551	0	32860	
4552	0	32878	
4553	0	32916	
4554	0	32945	
4555	0	32956	
4556	0	32996	
4557	0	33032	
4558	0	33068	
4559	0	33108	
4560	0	33140	
4561	0	33144	
4562	0	33170	
4563	0	33200	
4564	0	33200	
4565	0	33180	
4566	0	33176	
4567	0	33168	
4568	0	33146	
4569	0	33148	
4570	0	33196	
4571	0	33248	
4572	0	33306	
4573	0	33344	
4574	0	33388	
4575	0	33448	
4576	0	33528	
4577	0	33590	
4578	0	33656	
4579	0	33684	
4580	0	33684	
4581	0	33652	
4582	0	33648	
4583	0	33620	
4584	0	33588	
4585	0	33584	
4586	0	33544	
4587	0	33536	
4588	0	33532	
4589	0	33528	
4590	0	33532	
4591	0	33536	
4592	0	33536	
4593	0	33572	
4594	0	33592	
4595	0	33644	
4596	0	33696	
4597	0	33728	
4598	0	33760	
4599	0	33796	
4600	0	33836	
4601	0	33856	
4602	0	33876	
4603	0	33892	
4604	0	33908	
4605	0	33900	
4606	0	33896	
4607	0	33892	
4608	0	33888	
4609	0	33872	
4610	0	33856	
4611	0	33868	
4612	0	33884	
4613	0	33920	
4614	0	33936	
4615	0	33952	
4616	0	33980	
4617	0	34000	
4618	0	34040	
4619	0	34088	
4620	0	34112	
4621	0	34092	
4622	0	34076	
4623	0	34056	
4624	0	34040	
4625	0	34016	
4626	0	33976	
4627	0	33940	
4628	0	33928	
4629	0	33920	
4630	0	33938	
4631	0	33968	
4632	0	34008	
4633	0	34024	
4634	0	34036	
4635	0	34072	
4636	0	34112	
4637	0	34164	
4638	0	34208	
4639	0	34252	
4640	0	34296	
4641	0	34332	
4642	0	34352	
4643	0	34344	
4644	0	34328	
4645	0	34324	
4646	0	34332	
4647	0	34332	
4648	0	34320	
4649	0	34344	
4650	0	34348	
4651	0	34352	
4652	0	34380	
4653	0	34400	
4654	0	34400	
4655	0	34428	
4656	0	34456	
4657	0	34472	
4658	0	34496	
4659	0	34504	
4660	0	34524	
4661	0	34520	
4662	0	34544	
4663	0	34548	
4664	0	34520	
4665	0	34504	
4666	0	34480	
4667	0	34444	
4668	0	34428	
4669	0	34392	
4670	0	34376	
4671	0	34352	
4672	0	34372	
4673	0	34376	
4674	0	34352	
4675	0	34368	
4676	0	34402	
4677	0	34416	
4678	0	34440	
4679	0	34488	
4680	0	34528	
4681	0	34512	
4682	0	34504	
4683	0	34512	
4684	0	34524	
4685	0	34520	
4686	0	34504	
4687	0	34468	
4688	0	34436	
4689	0	34404	
4690	0	34364	
4691	0	34344	
4692	0	34350	
4693	0	34352	
4694	0	34328	
4695	0	34332	
4696	0	34344	
4697	0	34368	
4698	0	34404	
4699	0	34416	
4700	0	34420	
4701	0	34424	
4702	0	34400	
4703	0	34392	
4704	0	34368	
4705	0	34328	
4706	0	34260	
4707	0	34208	
4708	0	34144	
4709	0	34080	
4710	0	34040	
4711	0	34008	
4712	0	33976	
4713	0	33936	
4714	0	33880	
4715	0	33844	
4716	0	33800	
4717	0	33762	
4718	0	33732	
4719	0	33676	
4720	0	33592	
4721	0	33496	
4722	0	33392	
4723	0	33312	
4724	0	33240	
4725	0	33164	
4726	0	33052	
4727	0	32936	
4728	0	32832	
4729	0	32728	
4730	0	32624	
4731	0	32544	
4732	0	32468	
4733	0	32372	
4734	0	32284	
4735	0	32212	
4736	0	32132	
4737	0	32064	
4738	0	31996	
4739	0	31944	
4740	0	31864	
4741	0	31788	
4742	0	31696	
4743	0	31608	
4744	0	31528	
4745	0	31456	
4746	0	31380	
4747	0	31312	
4748	0	31233	
4749	0	31168	
4750	0	31096	
4751	0	31048	
4752	0	31016	
4753	0	30976	
4754	0	30948	
4755	0	30924	
4756	0	30914	
4757	0	30900	
4758	0	30892	
4759	0	30884	
4760	0	30876	
4761	0	30832	
4762	0	30790	
4763	0	30752	
4764	0	30708	
4765	0	30652	
4766	0	30570	
4767	0	30496	
4768	0	30464	
4769	0	30434	
4770	0	30408	
4771	0	30408	
4772	0	30424	
4773	0	30424	
4774	0	30432	
4775	0	30468	
4776	0	30500	
4777	0	30532	
4778	0	30566	
4779	0	30584	
4780	0	30590	
4781	0	30572	
4782	0	30584	
4783	0	30600	
4784	0	30592	
4785	0	30570	
4786	0	30548	
4787	0	30520	
4788	0	30512	
4789	0	30498	
4790	0	30486	
4791	0	30480	
4792	0	30504	
4793	0	30528	
4794	0	30548	
4795	0	30592	
4796	0	30632	
4797	0	30672	
4798	0	30720	
4799	0	30768	
4800	0	30788	
4801	0	30816	
4802	0	30812	
4803	0	30808	
4804	0	30808	
4805	0	30808	
4806	0	30816	
4807	0	30796	
4808	0	30776	
4809	0	30746	
4810	0	30732	
4811	0	30728	
4812	0	30736	
4813	0	30756	
4814	0	30768	
4815	0	30788	
4816	0	30836	
4817	0	30868	
4818	0	30904	
4819	0	30916	
4820	0	30952	
4821	0	30972	
4822	0	31000	
4823	0	31016	
4824	0	31028	
4825	0	31004	
4826	0	30972	
4827	0	30968	
4828	0	30988	
4829	0	30992	
4830	0	30996	
4831	0	31022	
4832	0	31048	
4833	0	31072	
4834	0	31084	
4835	0	31104	
4836	0	31132	
4837	0	31168	
4838	0	31184	
4839	0	31228	
4840	0	31236	
4841	0	31208	
4842	0	31188	
4843	0	31184	
4844	0	31160	
4845	0	31144	
4846	0	31120	
4847	0	31096	
4848	0	31084	
4849	0	31070	
4850	0	31068	
4851	0	31084	
4852	0	31140	
4853	0	31136	
4854	0	31156	
4855	0	31176	
4856	0	31200	
4857	0	31228	
4858	0	31284	
4859	0	31332	
4860	0	31362	
4861	0	31382	
4862	0	31368	
4863	0	31364	
4864	0	31372	
4865	0	31362	
4866	0	31320	
4867	0	31292	
4868	0	31260	
4869	0	31256	
4870	0	31200	
4871	0	31180	
4872	0	31152	
4873	0	31144	
4874	0	31160	
4875	0	31152	
4876	0	31164	
4877	0	31188	
4878	0	31202	
4879	0	31224	
4880	0	31240	
4881	0	31248	
4882	0	31232	
4883	0	31216	
4884	0	31180	
4885	0	31132	
4886	0	31104	
4887	0	31084	
4888	0	31072	
4889	0	31066	
4890	0	31044	
4891	0	31060	
4892	0	31088	
4893	0	31108	
4894	0	31146	
4895	0	31172	
4896	0	31220	
4897	0	31256	
4898	0	31284	
4899	0	31320	
4900	0	31356	
4901	0	31364	
4902	0	31348	
4903	0	31348	
4904	0	31336	
4905	0	31308	
4906	0	31292	
4907	0	31280	
4908	0	31264	
4909	0	31248	
4910	0	31228	
4911	0	31244	
4912	0	31272	
4913	0	31298	
4914	0	31328	
4915	0	31360	
4916	0	31388	
4917	0	31412	
4918	0	31448	
4919	0	31484	
4920	0	31512	
4921	0	31536	
4922	0	31548	
4923	0	31556	
4924	0	31552	
4925	0	31552	
4926	0	31524	
4927	0	31508	
4928	0	31480	
4929	0	31468	
4930	0	31460	
4931	0	31476	
4932	0	31508	
4933	0	31508	
4934	0	31536	
4935	0	31592	
4936	0	31636	
4937	0	31672	
4938	0	31696	
4939	0	31692	
4940	0	31700	
4941	0	31692	
4942	0	31684	
4943	0	31668	
4944	0	31648	
4945	0	31616	
4946	0	31584	
4947	0	31568	
4948	0	31552	
4949	0	31528	
4950	0	31512	
4951	0	31520	
4952	0	31552	
4953	0	31584	
4954	0	31608	
4955	0	31648	
4956	0	31684	
4957	0	31736	
4958	0	31752	
4959	0	31776	
4960	0	31788	
4961	0	31792	
4962	0	31774	
4963	0	31776	
4964	0	31752	
4965	0	31716	
4966	0	31664	
4967	0	31636	
4968	0	31600	
4969	0	31588	
4970	0	31568	
4971	0	31584	
4972	0	31604	
4973	0	31610	
4974	0	31644	
4975	0	31672	
4976	0	31724	
4977	0	31752	
4978	0	31788	
4979	0	31828	
4980	0	31844	
4981	0	31852	
4982	0	31840	
4983	0	31812	
4984	0	31794	
4985	0	31780	
4986	0	31748	
4987	0	31720	
4988	0	31696	
4989	0	31672	
4990	0	31660	
4991	0	31664	
4992	0	31660	
4993	0	31668	
4994	0	31700	
4995	0	31712	
4996	0	31720	
4997	0	31748	
4998	0	31784	
4999	0	31792	
5000	0	31786	
5001	0	31760	
5002	0	31744	
5003	0	31728	
5004	0	31712	
5005	0	31696	
5006	0	31664	
5007	0	31640	
5008	0	31608	
5009	0	31610	
5010	0	31632	
5011	0	31656	
5012	0	31682	
5013	0	31700	
5014	0	31724	
5015	0	31756	
5016	0	31776	
5017	0	31808	
5018	0	31820	
5019	0	31840	
5020	0	31856	
5021	0	31860	
5022	0	31864	
5023	0	31848	
5024	0	31828	
5025	0	31796	
5026	0	31764	
5027	0	31760	
5028	0	31748	
5029	0	31768	
5030	0	31800	
5031	0	31872	
5032	0	31972	
5033	0	32054	
5034	0	32128	
5035	0	32184	
5036	0	32270	
5037	0	32356	
5038	0	32444	
5039	0	32488	
5040	0	32496	
5041	0	32504	
5042	0	32488	
5043	0	32456	
5044	0	32420	
5045	0	32372	
5046	0	32346	
5047	0	32320	
5048	0	32288	
5049	0	32276	
5050	0	32304	
5051	0	32324	
5052	0	32348	
5053	0	32384	
5054	0	32428	
5055	0	32496	
5056	0	32632	
5057	0	32788	
5058	0	32944	
5059	0	33082	
5060	0	33232	
5061	0	33348	
5062	0	33458	
5063	0	33560	
5064	0	33644	
5065	0	33688	
5066	0	33712	
5067	0	33736	
5068	0	33720	
5069	0	33728	
5070	0	33764	
5071	0	33816	
5072	0	33816	
5073	0	33780	
5074	0	33756	
5075	0	33688	
5076	0	33596	
5077	0	33508	
5078	0	33440	
5079	0	33372	
5080	0	33268	
5081	0	33172	
5082	0	33064	
5083	0	32968	
5084	0	32872	
5085	0	32816	
5086	0	32736	
5087	0	32684	
5088	0	32620	
5089	0	32568	
5090	0	32544	
5091	0	32516	
5092	0	32500	
5093	0	32480	
5094	0	32464	
5095	0	32460	
5096	0	32492	
5097	0	32504	
5098	0	32516	
5099	0	32516	
5100	0	32500	
5101	0	32492	
5102	0	32508	
5103	0	32476	
5104	0	32416	
5105	0	32356	
5106	0	32328	
5107	0	32292	
5108	0	32266	
5109	0	32220	
5110	0	32180	
5111	0	32136	
5112	0	32082	
5113	0	32056	
5114	0	32016	
5115	0	31978	
5116	0	31968	
5117	0	31968	
5118	0	31940	
5119	0	31928	
5120	0	31936	
5121	0	31944	
5122	0	31936	
5123	0	31928	
5124	0	31914	
5125	0	31912	
5126	0	31884	
5127	0	31854	
5128	0	31816	
5129	0	31776	
5130	0	31760	
5131	0	31752	
5132	0	31754	
5133	0	31764	
5134	0	31784	
5135	0	31808	
5136	0	31828	
5137	0	31856	
5138	0	31892	
5139	0	31924	
5140	0	31946	
5141	0	31936	
5142	0	31932	
5143	0	31936	
5144	0	31936	
5145	0	31928	
5146	0	31924	
5147	0	31888	
5148	0	31876	
5149	0	31872	
5150	0	31872	
5151	0	31880	
5152	0	31888	
5153	0	31905	
5154	0	31940	
5155	0	31976	
5156	0	32056	
5157	0	32124	
5158	0	32184	
5159	0	32224	
5160	0	32236	
5161	0	32228	
5162	0	32224	
5163	0	32252	
5164	0	32266	
5165	0	32264	
5166	0	32250	
5167	0	32232	
5168	0	32224	
5169	0	32232	
5170	0	32244	
5171	0	32268	
5172	0	32288	
5173	0	32320	
5174	0	32324	
5175	0	32360	
5176	0	32390	
5177	0	32394	
5178	0	32400	
5179	0	32436	
5180	0	32448	
5181	0	32476	
5182	0	32488	
5183	0	32480	
5184	0	32464	
5185	0	32456	
5186	0	32464	
5187	0	32504	
5188	0	32528	
5189	0	32528	
5190	0	32588	
5191	0	32612	
5192	0	32626	
5193	0	32648	
5194	0	32606	
5195	0	32552	
5196	0	32516	
5197	0	32512	
5198	0	32562	
5199	0	32752	
5200	0	33064	
5201	0	33380	
5202	0	33688	
5203	0	33984	
5204	0	34224	
5205	0	34396	
5206	0	34476	
5207	0	34524	
5208	0	34640	
5209	0	34924	
5210	0	35388	
5211	0	35984	
5212	0	36800	
5213	0	37732	
5214	0	38792	
5215	0	39928	
5216	0	41120	
5217	0	42360	
5218	0	43704	
5219	0	45024	
5220	0	46280	
5221	0	47408	
5222	0	48384	
5223	0	49232	
5224	0	50048	
5225	0	51008	
5226	0	51924	
5227	0	52600	
5228	0	52784	
5229	0	51976	
5230	0	50040	
5231	0	47276	
5232	0	44060	
5233	0	40712	
5234	0	37504	
5235	0	34732	
5236	0	32664	
5237	0	31304	
5238	0	30516	
5239	0	30160	
5240	0	30088	
5241	0	30138	
5242	0	30260	
5243	0	30356	
5244	0	30452	
5245	0	30552	
5246	0	30696	
5247	0	30836	
5248	0	30968	
5249	0	31092	
5250	0	31228	
5251	0	31360	
5252	0	31532	
5253	0	31736	
5254	0	31904	
5255	0	32040	
5256	0	32160	
5257	0	32224	
5258	0	32272	
5259	0	32280	
5260	0	32272	
5261	0	32208	
5262	0	32144	
5263	0	32072	
5264	0	32028	
5265	0	31968	
5266	0	31904	
5267	0	31804	
5268	0	31772	
5269	0	31712	
5270	0	31696	
5271	0	31712	
5272	0	31736	
5273	0	31764	
5274	0	31816	
5275	0	31852	
5276	0	31892	
5277	0	31928	
5278	0	31944	
5279	0	31976	
5280	0	31996	
5281	0	31984	
5282	0	31976	
5283	0	32008	
5284	0	32012	
5285	0	32013	
5286	0	32008	
5287	0	32004	
5288	0	31996	
5289	0	31992	
5290	0	32034	
5291	0	32076	
5292	0	32108	
5293	0	32160	
5294	0	32216	
5295	0	32272	
5296	0	32300	
5297	0	32324	
5298	0	32364	
5299	0	32380	
5300	0	32416	
5301	0	32444	
5302	0	32440	
5303	0	32436	
5304	0	32448	
5305	0	32460	
5306	0	32480	
5307	0	32484	
5308	0	32478	
5309	0	32464	
5310	0	32476	
5311	0	32504	
5312	0	32532	
5313	0	32576	
5314	0	32620	
5315	0	32676	
5316	0	32752	
5317	0	32792	
5318	0	32844	
5319	0	32916	
5320	0	32952	
5321	0	32988	
5322	0	33000	
5323	0	32988	
5324	0	32992	
5325	0	32994	
5326	0	32984	
5327	0	32964	
5328	0	32948	
5329	0	32940	
5330	0	32964	
5331	0	32984	
5332	0	33020	
5333	0	33024	
5334	0	33040	
5335	0	33096	
5336	0	33120	
5337	0	33168	
5338	0	33216	
5339	0	33240	
5340	0	33268	
5341	0	33280	
5342	0	33272	
5343	0	33280	
5344	0	33292	
5345	0	33264	
5346	0	33236	
5347	0	33224	
5348	0	33204	
5349	0	33212	
5350	0	33216	
5351	0	33236	
5352	0	33252	
5353	0	33264	
5354	0	33276	
5355	0	33320	
5356	0	33368	
5357	0	33392	
5358	0	33416	
5359	0	33464	
5360	0	33460	
5361	0	33436	
5362	0	33412	
5363	0	33424	
5364	0	33424	
5365	0	33400	
5366	0	33396	
5367	0	33384	
5368	0	33380	
5369	0	33380	
5370	0	33404	
5371	0	33424	
5372	0	33436	
5373	0	33440	
5374	0	33440	
5375	0	33450	
5376	0	33480	
5377	0	33506	
5378	0	33540	
5379	0	33584	
5380	0	33620	
5381	0	33632	
5382	0	33636	
5383	0	33648	
5384	0	33664	
5385	0	33664	
5386	0	33656	
5387	0	33642	
5388	0	33640	
5389	0	33612	
5390	0	33628	
5391	0	33660	
5392	0	33696	
5393	0	33724	
5394	0	33744	
5395	0	33808	
5396	0	33864	
5397	0	33904	
5398	0	33960	
5399	0	34016	
5400	0	34020	
5401	0	34032	
5402	0	34040	
5403	0	34040	
5404	0	34028	
5405	0	34024	
5406	0	33996	
5407	0	33978	
5408	0	33960	
5409	0	33940	
5410	0	33948	
5411	0	33972	
5412	0	34012	
5413	0	34056	
5414	0	34088	
5415	0	34140	
5416	0	34188	
5417	0	34210	
5418	0	34248	
5419	0	34280	
5420	0	34308	
5421	0	34360	
5422	0	34396	
5423	0	34396	
5424	0	34396	
5425	0	34356	
5426	0	34336	
5427	0	34336	
5428	0	34332	
5429	0	34312	
5430	0	34312	
5431	0	34340	
5432	0	34368	
5433	0	34384	
5434	0	34396	
5435	0	34436	
5436	0	34472	
5437	0	34492	
5438	0	34512	
5439	0	34556	
5440	0	34572	
5441	0	34552	
5442	0	34528	
5443	0	34522	
5444	0	34520	
5445	0	34520	
5446	0	34528	
5447	0	34488	
5448	0	34472	
5449	0	34440	
5450	0	34440	
5451	0	34456	
5452	0	34476	
5453	0	34492	
5454	0	34498	
5455	0	34522	
5456	0	34508	
5457	0	34508	
5458	0	34516	
5459	0	34528	
5460	0	34540	
5461	0	34544	
5462	0	34528	
5463	0	34504	
5464	0	34508	
5465	0	34512	
5466	0	34508	
5467	0	34420	
5468	0	34376	
5469	0	34336	
5470	0	34320	
5471	0	34312	
5472	0	34292	
5473	0	34272	
5474	0	34260	
5475	0	34264	
5476	0	34288	
5477	0	34290	
5478	0	34292	
5479	0	34296	
5480	0	34304	
5481	0	34304	
5482	0	34288	
5483	0	34256	
5484	0	34196	
5485	0	34152	
5486	0	34104	
5487	0	34080	
5488	0	34056	
5489	0	34048	
5490	0	34052	
5491	0	34030	
5492	0	33988	
5493	0	33952	
5494	0	33936	
5495	0	33948	
5496	0	33952	
5497	0	33946	
5498	0	33932	
5499	0	33896	
5500	0	33856	
5501	0	33792	
5502	0	33712	
5503	0	33644	
5504	0	33564	
5505	0	33464	
5506	0	33372	
5507	0	33244	
5508	0	33120	
5509	0	33026	
5510	0	32940	
5511	0	32840	
5512	0	32720	
5513	0	32616	
5514	0	32524	
5515	0	32444	
5516	0	32376	
5517	0	32320	
5518	0	32268	
5519	0	32236	
5520	0	32212	
5521	0	32148	
5522	0	32032	
5523	0	31912	
5524	0	31764	
5525	0	31632	
5526	0	31544	
5527	0	31424	
5528	0	31308	
5529	0	31260	
5530	0	31220	
5531	0	31196	
5532	0	31168	
5533	0	31144	
5534	0	31104	
5535	0	31056	
5536	0	31056	
5537	0	31052	
5538	0	31024	
5539	0	30976	
5540	0	30944	
5541	0	30928	
5542	0	30896	
5543	0	30834	
5544	0	30804	
5545	0	30756	
5546	0	30692	
5547	0	30628	
5548	0	30568	
5549	0	30544	
5550	0	30548	
5551	0	30560	
5552	0	30568	
5553	0	30560	
5554	0	30544	
5555	0	30528	
5556	0	30514	
5557	0	30544	
5558	0	30568	
5559	0	30592	
5560	0	30606	
5561	0	30608	
5562	0	30608	
5563	0	30588	
5564	0	30580	
5565	0	30540	
5566	0	30508	
5567	0	30496	
5568	0	30468	
5569	0	30428	
5570	0	30416	
5571	0	30392	
5572	0	30368	
5573	0	30392	
5574	0	30432	
5575	0	30490	
5576	0	30524	
5577	0	30548	
5578	0	30576	
5579	0	30624	
5580	0	30680	
5581	0	30700	
5582	0	30744	
5583	0	30776	
5584	0	30800	
5585	0	30816	
5586	0	30776	
5587	0	30768	
5588	0	30736	
5589	0	30740	
5590	0	30768	
5591	0	30820	
5592	0	30838	
5593	0	30864	
5594	0	30868	
5595	0	30896	
5596	0	30912	
5597	0	30928	
5598	0	30968	
5599	0	31016	
5600	0	31032	
5601	0	31024	
5602	0	31024	
5603	0	31040	
5604	0	31044	
5605	0	31060	
5606	0	31052	
5607	0	31068	
5608	0	31052	
5609	0	31036	
5610	0	31020	
5611	0	31024	
5612	0	31060	
5613	0	31112	
5614	0	31140	
5615	0	31156	
5616	0	31176	
5617	0	31200	
5618	0	31240	
5619	0	31256	
5620	0	31300	
5621	0	31324	
5622	0	31348	
5623	0	31336	
5624	0	31332	
5625	0	31338	
5626	0	31300	
5627	0	31260	
5628	0	31200	
5629	0	31132	
5630	0	31080	
5631	0	31074	
5632	0	31072	
5633	0	31088	
5634	0	31104	
5635	0	31152	
5636	0	31208	
5637	0	31280	
5638	0	31320	
5639	0	31376	
5640	0	31432	
5641	0	31468	
5642	0	31476	
5643	0	31456	
5644	0	31420	
5645	0	31392	
5646	0	31342	
5647	0	31256	
5648	0	31168	
5649	0	31112	
5650	0	31116	
5651	0	31096	
5652	0	31096	
5653	0	31120	
5654	0	31166	
5655	0	31220	
5656	0	31276	
5657	0	31332	
5658	0	31376	
5659	0	31412	
5660	0	31460	
5661	0	31500	
5662	0	31516	
5663	0	31520	
5664	0	31476	
5665	0	31424	
5666	0	31360	
5667	0	31316	
5668	0	31312	
5669	0	31298	
5670	0	31280	
5671	0	31280	
5672	0	31274	
5673	0	31268	
5674	0	31276	
5675	0	31288	
5676	0	31332	
5677	0	31376	
5678	0	31400	
5679	0	31396	
5680	0	31380	
5681	0	31350	
5682	0	31328	
5683	0	31308	
5684	0	31272	
5685	0	31244	
5686	0	31224	
5687	0	31252	
5688	0	31284	
5689	0	31300	
5690	0	31312	
5691	0	31328	
5692	0	31384	
5693	0	31460	
5694	0	31492	
5695	0	31496	
5696	0	31500	
5697	0	31498	
5698	0	31524	
5699	0	31564	
5700	0	31560	
5701	0	31536	
5702	0	31488	
5703	0	31496	
5704	0	31520	
5705	0	31504	
5706	0	31456	
5707	0	31396	
5708	0	31354	
5709	0	31364	
5710	0	31364	
5711	0	31376	
5712	0	31400	
5713	0	31444	
5714	0	31464	
5715	0	31500	
5716	0	31552	
5717	0	31572	
5718	0	31624	
5719	0	31660	
5720	0	31624	
5721	0	31554	
5722	0	31504	
5723	0	31501	
5724	0	31484	
5725	0	31428	
5726	0	31394	
5727	0	31352	
5728	0	31336	
5729	0	31380	
5730	0	31372	
5731	0	31388	
5732	0	31410	
5733	0	31440	
5734	0	31480	
5735	0	31512	
5736	0	31564	
5737	0	31616	
5738	0	31660	
5739	0	31720	
5740	0	31800	
5741	0	31860	
5742	0	31892	
5743	0	31896	
5744	0	31880	
5745	0	31866	
5746	0	31828	
5747	0	31788	
5748	0	31760	
5749	0	31720	
5750	0	31708	
5751	0	31692	
5752	0	31720	
5753	0	31776	
5754	0	31840	
5755	0	31852	
5756	0	31864	
5757	0	31884	
5758	0	31888	
5759	0	31880	
5760	0	31860	
5761	0	31844	
5762	0	31820	
5763	0	31824	
5764	0	31832	
5765	0	31808	
5766	0	31796	
5767	0	31764	
5768	0	31760	
5769	0	31792	
5770	0	31880	
5771	0	31916	
5772	0	31960	
5773	0	31980	
5774	0	31992	
5775	0	31996	
5776	0	32016	
5777	0	31996	
5778	0	32012	
5779	0	32052	
5780	0	32084	
5781	0	32096	
5782	0	32088	
5783	0	32080	
5784	0	32064	
5785	0	32032	
5786	0	32012	
5787	0	32024	
5788	0	32012	
5789	0	32020	
5790	0	32068	
5791	0	32088	
5792	0	32080	
5793	0	32128	
5794	0	32132	
5795	0	32128	
5796	0	32136	
5797	0	32160	
5798	0	32200	
5799	0	32232	
5800	0	32268	
5801	0	32280	
5802	0	32288	
5803	0	32272	
5804	0	32250	
5805	0	32236	
5806	0	32252	
5807	0	32232	
5808	0	32188	
5809	0	32168	
5810	0	32180	
5811	0	32152	
5812	0	32192	
5813	0	32248	
5814	0	32280	
5815	0	32296	
5816	0	32340	
5817	0	32388	
5818	0	32408	
5819	0	32432	
5820	0	32460	
5821	0	32472	
5822	0	32484	
5823	0	32480	
5824	0	32468	
5825	0	32432	
5826	0	32408	
5827	0	32376	
5828	0	32296	
5829	0	32192	
5830	0	32140	
5831	0	32148	
5832	0	32176	
5833	0	32212	
5834	0	32296	
5835	0	32380	
5836	0	32436	
5837	0	32532	
5838	0	32608	
5839	0	32680	
5840	0	32724	
5841	0	32720	
5842	0	32696	
5843	0	32700	
5844	0	32684	
5845	0	32674	
5846	0	32654	
5847	0	32632	
5848	0	32616	
5849	0	32616	
5850	0	32608	
5851	0	32672	
5852	0	32688	
5853	0	32736	
5854	0	32744	
5855	0	32768	
5856	0	32820	
5857	0	32846	
5858	0	32944	
5859	0	33084	
5860	0	33212	
5861	0	33336	
5862	0	33444	
5863	0	33538	
5864	0	33632	
5865	0	33740	
5866	0	33832	
5867	0	33880	
5868	0	33914	
5869	0	33904	
5870	0	33912	
5871	0	33920	
5872	0	33948	
5873	0	33992	
5874	0	34044	
5875	0	34092	
5876	0	34144	
5877	0	34160	
5878	0	34112	
5879	0	34024	
5880	0	33960	
5881	0	33896	
5882	0	33824	
5883	0	33732	
5884	0	33600	
5885	0	33468	
5886	0	33336	
5887	0	33208	
5888	0	33100	
5889	0	33048	
5890	0	32972	
5891	0	32892	
5892	0	32852	
5893	0	32872	
5894	0	32900	
5895	0	32912	
5896	0	32896	
5897	0	32850	
5898	0	32844	
5899	0	32884	
5900	0	32916	
5901	0	32944	
5902	0	33000	
5903	0	33044	
5904	0	33104	
5905	0	33104	
5906	0	33072	
5907	0	32976	
5908	0	32864	
5909	0	32776	
5910	0	32672	
5911	0	32572	
5912	0	32552	
5913	0	32536	
5914	0	32500	
5915	0	32488	
5916	0	32488	
5917	0	32484	
5918	0	32468	
5919	0	32428	
5920	0	32400	
5921	0	32360	
5922	0	32292	
5923	0	32236	
5924	0	32232	
5925	0	32212	
5926	0	32180	
5927	0	32172	
5928	0	32168	
5929	0	32148	
5930	0	32144	
5931	0	32184	
5932	0	32206	
5933	0	32164	
5934	0	32128	
5935	0	32120	
5936	0	32164	
5937	0	32160	
5938	0	32180	
5939	0	32192	
5940	0	32216	
5941	0	32232	
5942	0	32264	
5943	0	32254	
5944	0	32260	
5945	0	32272	
5946	0	32284	
5947	0	32284	
5948	0	32300	
5949	0	32272	
5950	0	32220	
5951	0	32176	
5952	0	32180	
5953	0	32176	
5954	0	32160	
5955	0	32172	
5956	0	32192	
5957	0	32228	
5958	0	32296	
5959	0	32336	
5960	0	32380	
5961	0	32396	
5962	0	32408	
5963	0	32416	
5964	0	32432	
5965	0	32440	
5966	0	32468	
5967	0	32444	
5968	0	32420	
5969	0	32400	
5970	0	32380	
5971	0	32364	
5972	0	32364	
5973	0	32368	
5974	0	32384	
5975	0	32388	
5976	0	32420	
5977	0	32424	
5978	0	32432	
5979	0	32448	
5980	0	32472	
5981	0	32460	
5982	0	32442	
5983	0	32456	
5984	0	32476	
5985	0	32456	
5986	0	32448	
5987	0	32436	
5988	0	32450	
5989	0	32464	
5990	0	32492	
5991	0	32588	
5992	0	32628	
5993	0	32640	
5994	0	32656	
5995	0	32664	
5996	0	32714	
5997	0	32736	
5998	0	32748	
5999	0	32752	
6000	0	32756	
6001	0	32824	
6002	0	33024	
6003	0	33288	
6004	0	33536	
6005	0	33804	
6006	0	34052	
6007	0	34252	
6008	0	34292	
6009	0	34272	
6010	0	34362	
6011	0	34584	
6012	0	35016	
6013	0	35642	
6014	0	36394	
6015	0	37292	
6016	0	38304	
6017	0	39496	
6018	0	40828	
6019	0	42232	
6020	0	43692	
6021	0	45152	
6022	0	46716	
6023	0	48240	
6024	0	49564	
6025	0	50636	
6026	0	51552	
6027	0	52392	
6028	0	53216	
6029	0	54016	
6030	0	54520	
6031	0	54440	
6032	0	53420	
6033	0	51276	
6034	0	48288	
6035	0	44920	
6036	0	41428	
6037	0	38076	
6038	0	35104	
6039	0	32808	
6040	0	31264	
6041	0	30288	
6042	0	29740	
6043	0	29492	
6044	0	29380	
6045	0	29390	
6046	0	29518	
6047	0	29728	
6048	0	29972	
6049	0	30208	
6050	0	30412	
6051	0	30612	
6052	0	30764	
6053	0	30872	
6054	0	30980	
6055	0	31128	
6056	0	31280	
6057	0	31432	
6058	0	31564	
6059	0	31700	
6060	0	31796	
6061	0	31800	
6062	0	31752	
6063	0	31688	
6064	0	31624	
6065	0	31556	
6066	0	31524	
6067	0	31484	
6068	0	31432	
6069	0	31368	
6070	0	31280	
6071	0	31168	
6072	0	31092	
6073	0	31088	
6074	0	31140	
6075	0	31164	
6076	0	31188	
6077	0	31256	
6078	0	31320	
6079	0	31420	
6080	0	31512	
6081	0	31548	
6082	0	31576	
6083	0	31552	
6084	0	31528	
6085	0	31476	
6086	0	31456	
6087	0	31448	
6088	0	31480	
6089	0	31496	
6090	0	31504	
6091	0	31532	
6092	0	31600	
6093	0	31696	
6094	0	31800	
6095	0	31900	
6096	0	31988	
6097	0	32040	
6098	0	32068	
6099	0	32088	
6100	0	32048	
6101	0	32024	
6102	0	31988	
6103	0	31996	
6104	0	32024	
6105	0	31968	
6106	0	31940	
6107	0	31896	
6108	0	31894	
6109	0	31880	
6110	0	31904	
6111	0	31960	
6112	0	32008	
6113	0	32064	
6114	0	32152	
6115	0	32260	
6116	0	32400	
6117	0	32496	
6118	0	32560	
6119	0	32552	
6120	0	32520	
6121	0	32460	
6122	0	32384	
6123	0	32320	
6124	0	32262	
6125	0	32240	
6126	0	32252	
6127	0	32264	
6128	0	32320	
6129	0	32348	
6130	0	32372	
6131	0	32428	
6132	0	32480	
6133	0	32540	
6134	0	32588	
6135	0	32664	
6136	0	32724	
6137	0	32744	
6138	0	32808	
6139	0	32884	
6140	0	32924	
6141	0	32952	
6142	0	32984	
6143	0	33004	
6144	0	32964	
6145	0	32952	
6146	0	32970	
6147	0	32992	
6148	0	32980	
6149	0	32988	
6150	0	33000	
6151	0	32990	
6152	0	32960	
6153	0	32928	
6154	0	32936	
6155	0	32980	
6156	0	33004	
6157	0	33032	
6158	0	33056	
6159	0	33072	
6160	0	33064	
6161	0	33048	
6162	0	33066	
6163	0	33080	
6164	0	33072	
6165	0	33044	
6166	0	32992	
6167	0	32920	
6168	0	32878	
6169	0	32888	
6170	0	32892	
6171	0	32904	
6172	0	32928	
6173	0	32972	
6174	0	33004	
6175	0	33068	
6176	0	33178	
6177	0	33256	
6178	0	33292	
6179	0	33356	
6180	0	33416	
6181	0	33464	
6182	0	33512	
6183	0	33546	
6184	0	33532	
6185	0	33520	
6186	0	33512	
6187	0	33525	
6188	0	33504	
6189	0	33500	
6190	0	33524	
6191	0	33556	
6192	0	33562	
6193	0	33560	
6194	0	33560	
6195	0	33580	
6196	0	33620	
6197	0	33664	
6198	0	33732	
6199	0	33824	
6200	0	33920	
6201	0	33972	
6202	0	33992	
6203	0	33940	
6204	0	33872	
6205	0	33804	
6206	0	33708	
6207	0	33656	
6208	0	33640	
6209	0	33610	
6210	0	33668	
6211	0	33800	
6212	0	33898	
6213	0	33928	
6214	0	33928	
6215	0	33924	
6216	0	33916	
6217	0	33912	
6218	0	33948	
6219	0	34016	
6220	0	34072	
6221	0	34092	
6222	0	34080	
6223	0	34100	
6224	0	34096	
6225	0	34104	
6226	0	34100	
6227	0	34084	
6228	0	34132	
6229	0	34208	
6230	0	34244	
6231	0	34266	
6232	0	34316	
6233	0	34392	
6234	0	34452	
6235	0	34440	
6236	0	34412	
6237	0	34412	
6238	0	34472	
6239	0	34544	
6240	0	34588	
6241	0	34612	
6242	0	34640	
6243	0	34624	
6244	0	34592	
6245	0	34532	
6246	0	34468	
6247	0	34464	
6248	0	34448	
6249	0	34394	
6250	0	34380	
6251	0	34412	
6252	0	34440	
6253	0	34460	
6254	0	34432	
6255	0	34416	
6256	0	34476	
6257	0	34572	
6258	0	34632	
6259	0	34652	
6260	0	34640	
6261	0	34612	
6262	0	34584	
6263	0	34568	
6264	0	34540	
6265	0	34552	
6266	0	34560	
6267	0	34572	
6268	0	34588	
6269	0	34552	
6270	0	34520	
6271	0	34464	
6272	0	34448	
6273	0	34500	
6274	0	34552	
6275	0	34554	
6276	0	34534	
6277	0	34536	
6278	0	34516	
6279	0	34508	
6280	0	34516	
6281	0	34520	
6282	0	34480	
6283	0	34432	
6284	0	34380	
6285	0	34368	
6286	0	34360	
6287	0	34356	
6288	0	34376	
6289	0	34380	
6290	0	34368	
6291	0	34392	
6292	0	34360	
6293	0	34348	
6294	0	34320	
6295	0	34304	
6296	0	34300	
6297	0	34296	
6298	0	34280	
6299	0	34252	
6300	0	34216	
6301	0	34176	
6302	0	34176	
6303	0	34192	
6304	0	34204	
6305	0	34160	
6306	0	34064	
6307	0	33920	
6308	0	33778	
6309	0	33648	
6310	0	33576	
6311	0	33564	
6312	0	33580	
6313	0	33544	
6314	0	33432	
6315	0	33308	
6316	0	33180	
6317	0	33064	
6318	0	32948	
6319	0	32864	
6320	0	32740	
6321	0	32608	
6322	0	32420	
6323	0	32240	
6324	0	32164	
6325	0	32096	
6326	0	32032	
6327	0	31956	
6328	0	31880	
6329	0	31809	
6330	0	31728	
6331	0	31632	
6332	0	31548	
6333	0	31460	
6334	0	31420	
6335	0	31390	
6336	0	31384	
6337	0	31376	
6338	0	31296	
6339	0	31200	
6340	0	31052	
6341	0	30928	
6342	0	30864	
6343	0	30832	
6344	0	30792	
6345	0	30700	
6346	0	30586	
6347	0	30552	
6348	0	30540	
6349	0	30496	
6350	0	30432	
6351	0	30410	
6352	0	30408	
6353	0	30396	
6354	0	30364	
6355	0	30340	
6356	0	30328	
6357	0	30308	
6358	0	30328	
6359	0	30412	
6360	0	30440	
6361	0	30472	
6362	0	30516	
6363	0	30500	
6364	0	30452	
6365	0	30456	
6366	0	30436	
6367	0	30436	
6368	0	30424	
6369	0	30400	
6370	0	30408	
6371	0	30448	
6372	0	30508	
6373	0	30580	
6374	0	30600	
6375	0	30612	
6376	0	30660	
6377	0	30744	
6378	0	30840	
6379	0	30930	
6380	0	30964	
6381	0	30952	
6382	0	30973	
6383	0	30996	
6384	0	30988	
6385	0	30948	
6386	0	30952	
6387	0	30928	
6388	0	30904	
6389	0	30836	
6390	0	30764	
6391	0	30796	
6392	0	30856	
6393	0	30880	
6394	0	30904	
6395	0	30944	
6396	0	31020	
6397	0	31116	
6398	0	31244	
6399	0	31320	
6400	0	31376	
6401	0	31368	
6402	0	31372	
6403	0	31388	
6404	0	31384	
6405	0	31384	
6406	0	31356	
6407	0	31352	
6408	0	31360	
6409	0	31384	
6410	0	31356	
6411	0	31360	
6412	0	31344	
6413	0	31316	
6414	0	31252	
6415	0	31184	
6416	0	31180	
6417	0	31224	
6418	0	31248	
6419	0	31328	
6420	0	31372	
6421	0	31388	
6422	0	31420	
6423	0	31492	
6424	0	31544	
6425	0	31560	
6426	0	31594	
6427	0	31676	
6428	0	31728	
6429	0	31764	
6430	0	31744	
6431	0	31672	
6432	0	31660	
6433	0	31628	
6434	0	31604	
6435	0	31560	
6436	0	31552	
6437	0	31600	
6438	0	31640	
6439	0	31632	
6440	0	31620	
6441	0	31572	
6442	0	31580	
6443	0	31610	
6444	0	31624	
6445	0	31640	
6446	0	31624	
6447	0	31580	
6448	0	31564	
6449	0	31556	
6450	0	31568	
6451	0	31544	
6452	0	31532	
6453	0	31516	
6454	0	31528	
6455	0	31608	
6456	0	31672	
6457	0	31736	
6458	0	31792	
6459	0	31844	
6460	0	31840	
6461	0	31816	
6462	0	31760	
6463	0	31708	
6464	0	31630	
6465	0	31584	
6466	0	31552	
6467	0	31520	
6468	0	31468	
6469	0	31400	
6470	0	31316	
6471	0	31336	
6472	0	31402	
6473	0	31422	
6474	0	31420	
6475	0	31450	
6476	0	31458	
6477	0	31436	
6478	0	31428	
6479	0	31456	
6480	0	31456	
6481	0	31420	
6482	0	31364	
6483	0	31358	
6484	0	31372	
6485	0	31380	
6486	0	31432	
6487	0	31488	
6488	0	31524	
6489	0	31568	
6490	0	31632	
6491	0	31604	
6492	0	31592	
6493	0	31552	
6494	0	31512	
6495	0	31488	
6496	0	31464	
6497	0	31384	
6498	0	31324	
6499	0	31296	
6500	0	31320	
6501	0	31352	
6502	0	31388	
6503	0	31404	
6504	0	31380	
6505	0	31312	
6506	0	31304	
6507	0	31324	
6508	0	31370	
6509	0	31336	
6510	0	31256	
6511	0	31194	
6512	0	31140	
6513	0	31156	
6514	0	31240	
6515	0	31360	
6516	0	31452	
6517	0	31504	
6518	0	31540	
6519	0	31608	
6520	0	31740	
6521	0	31796	
6522	0	31820	
6523	0	31828	
6524	0	31800	
6525	0	31736	
6526	0	31642	
6527	0	31600	
6528	0	31600	
6529	0	31576	
6530	0	31522	
6531	0	31488	
6532	0	31496	
6533	0	31508	
6534	0	31496	
6535	0	31472	
6536	0	31424	
6537	0	31440	
6538	0	31444	
6539	0	31448	
6540	0	31536	
6541	0	31636	
6542	0	31656	
6543	0	31650	
6544	0	31644	
6545	0	31604	
6546	0	31564	
6547	0	31496	
6548	0	31440	
6549	0	31408	
6550	0	31360	
6551	0	31328	
6552	0	31296	
6553	0	31296	
6554	0	31304	
6555	0	31334	
6556	0	31448	
6557	0	31584	
6558	0	31712	
6559	0	31840	
6560	0	31904	
6561	0	31964	
6562	0	32024	
6563	0	32090	
6564	0	32160	
6565	0	32156	
6566	0	32156	
6567	0	32112	
6568	0	32072	
6569	0	32012	
6570	0	31968	
6571	0	31952	
6572	0	31940	
6573	0	31920	
6574	0	31848	
6575	0	31828	
6576	0	31892	
6577	0	31992	
6578	0	32064	
6579	0	32200	
6580	0	32376	
6581	0	32528	
6582	0	32680	
6583	0	32864	
6584	0	32984	
6585	0	33048	
6586	0	33068	
6587	0	33116	
6588	0	33184	
6589	0	33336	
6590	0	33428	
6591	0	33440	
6592	0	33416	
6593	0	33412	
6594	0	33444	
6595	0	33476	
6596	0	33476	
6597	0	33472	
6598	0	33444	
6599	0	33372	
6600	0	33276	
6601	0	33168	
6602	0	33116	
6603	0	33064	
6604	0	32940	
6605	0	32840	
6606	0	32788	
6607	0	32736	
6608	0	32668	
6609	0	32608	
6610	0	32608	
6611	0	32620	
6612	0	32604	
6613	0	32536	
6614	0	32464	
6615	0	32448	
6616	0	32444	
6617	0	32420	
6618	0	32372	
6619	0	32392	
6620	0	32414	
6621	0	32412	
6622	0	32344	
6623	0	32308	
6624	0	32300	
6625	0	32284	
6626	0	32284	
6627	0	32212	
6628	0	32096	
6629	0	32024	
6630	0	31976	
6631	0	31924	
6632	0	31896	
6633	0	31816	
6634	0	31752	
6635	0	31702	
6636	0	31664	
6637	0	31700	
6638	0	31754	
6639	0	31764	
6640	0	31780	
6641	0	31788	
6642	0	31792	
6643	0	31764	
6644	0	31680	
6645	0	31616	
6646	0	31552	
6647	0	31520	
6648	0	31456	
6649	0	31432	
6650	0	31468	
6651	0	31496	
6652	0	31552	
6653	0	31612	
6654	0	31620	
6655	0	31616	
6656	0	31600	
6657	0	31636	
6658	0	31678	
6659	0	31716	
6660	0	31760	
6661	0	31760	
6662	0	31704	
6663	0	31668	
6664	0	31672	
6665	0	31760	
6666	0	31808	
6667	0	31752	
6668	0	31708	
6669	0	31692	
6670	0	31712	
6671	0	31782	
6672	0	31816	
6673	0	31908	
6674	0	31944	
6675	0	31944	
6676	0	31908	
6677	0	31892	
6678	0	31930	
6679	0	31936	
6680	0	31924	
6681	0	31928	
6682	0	31948	
6683	0	31968	
6684	0	31988	
6685	0	32008	
6686	0	32016	
6687	0	31988	
6688	0	31996	
6689	0	32012	
6690	0	32024	
6691	0	32084	
6692	0	32164	
6693	0	32220	
6694	0	32224	
6695	0	32232	
6696	0	32268	
6697	0	32296	
6698	0	32336	
6699	0	32404	
6700	0	32444	
6701	0	32440	
6702	0	32386	
6703	0	32352	
6704	0	32332	
6705	0	32248	
6706	0	32176	
6707	0	32152	
6708	0	32160	
6709	0	32204	
6710	0	32296	
6711	0	32384	
6712	0	32488	
6713	0	32596	
6714	0	32684	
6715	0	32756	
6716	0	32784	
6717	0	32788	
6718	0	32768	
6719	0	32736	
6720	0	32722	
6721	0	32728	
6722	0	32760	
6723	0	32900	
6724	0	33228	
6725	0	33600	
6726	0	33948	
6727	0	34260	
6728	0	34520	
6729	0	34784	
6730	0	34952	
6731	0	35026	
6732	0	35096	
6733	0	35348	
6734	0	35784	
6735	0	36392	
6736	0	37152	
6737	0	38100	
6738	0	39260	
6739	0	40640	
6740	0	42144	
6741	0	43660	
6742	0	45280	
6743	0	46956	
6744	0	48688	
6745	0	50472	
6746	0	52032	
6747	0	53360	
6748	0	54432	
6749	0	55360	
6750	0	56448	
6751	0	57384	
6752	0	57960	
6753	0	57968	
6754	0	56956	
6755	0	54756	
6756	0	51664	
6757	0	48104	
6758	0	44320	
6759	0	40624	
6760	0	37304	
6761	0	34680	
6762	0	32792	
6763	0	31424	
6764	0	30488	
6765	0	29968	
6766	0	29664	
6767	0	29544	
6768	0	29476	
6769	0	29504	
6770	0	29668	
6771	0	29888	
6772	0	30164	
6773	0	30420	
6774	0	30668	
6775	0	30880	
6776	0	31068	
6777	0	31304	
6778	0	31520	
6779	0	31696	
6780	0	31760	
6781	0	31780	
6782	0	31810	
6783	0	31808	
6784	0	31824	
6785	0	31824	
6786	0	31754	
6787	0	31692	
6788	0	31648	
6789	0	31568	
6790	0	31524	
6791	0	31508	
6792	0	31564	
6793	0	31592	
6794	0	31592	
6795	0	31596	
6796	0	31612	
6797	0	31628	
6798	0	31620	
6799	0	31664	
6800	0	31700	
6801	0	31680	
6802	0	31652	
6803	0	31672	
6804	0	31732	
6805	0	31752	
6806	0	31748	
6807	0	31720	
6808	0	31692	
6809	0	31660	
6810	0	31636	
6811	0	31568	
6812	0	31538	
6813	0	31564	
6814	0	31584	
6815	0	31600	
6816	0	31656	
6817	0	31736	
6818	0	31824	
6819	0	31908	
6820	0	31944	
6821	0	31912	
6822	0	31914	
6823	0	31912	
6824	0	31904	
6825	0	31876	
6826	0	31896	
6827	0	31900	
6828	0	31916	
6829	0	31944	
6830	0	31996	
6831	0	32060	
6832	0	32136	
6833	0	32252	
6834	0	32348	
6835	0	32420	
6836	0	32498	
6837	0	32556	
6838	0	32556	
6839	0	32576	
6840	0	32636	
6841	0	32664	
6842	0	32628	
6843	0	32592	
6844	0	32592	
6845	0	32588	
6846	0	32592	
6847	0	32608	
6848	0	32632	
6849	0	32716	
6850	0	32800	
6851	0	32848	
6852	0	32864	
6853	0	32956	
6854	0	32992	
6855	0	32936	
6856	0	32876	
6857	0	32824	
6858	0	32808	
6859	0	32848	
6860	0	32904	
6861	0	32928	
6862	0	32936	
6863	0	32972	
6864	0	33024	
6865	0	33012	
6866	0	32972	
6867	0	32924	
6868	0	32908	
6869	0	32872	
6870	0	32832	
6871	0	32820	
6872	0	32808	
6873	0	32816	
6874	0	32832	
6875	0	32880	
6876	0	32940	
6877	0	32980	
6878	0	33032	
6879	0	33096	
6880	0	33184	
6881	0	33232	
6882	0	33260	
6883	0	33320	
6884	0	33320	
6885	0	33312	
6886	0	33288	
6887	0	33288	
6888	0	33332	
6889	0	33344	
6890	0	33364	
6891	0	33396	
6892	0	33444	
6893	0	33488	
6894	0	33508	
6895	0	33532	
6896	0	33548	
6897	0	33600	
6898	0	33658	
6899	0	33706	
6900	0	33760	
6901	0	33764	
6902	0	33732	
6903	0	33700	
6904	0	33684	
6905	0	33700	
6906	0	33740	
6907	0	33768	
6908	0	33792	
6909	0	33786	
6910	0	33768	
6911	0	33780	
6912	0	33860	
6913	0	33952	
6914	0	34020	
6915	0	34088	
6916	0	34112	
6917	0	34096	
6918	0	34076	
6919	0	34116	
6920	0	34172	
6921	0	34220	
6922	0	34232	
6923	0	34260	
6924	0	34240	
6925	0	34188	
6926	0	34144	
6927	0	34080	
6928	0	34024	
6929	0	34016	
6930	0	34016	
6931	0	34072	
6932	0	34164	
6933	0	34244	
6934	0	34360	
6935	0	34440	
6936	0	34464	
6937	0	34456	
6938	0	34470	
6939	0	34528	
6940	0	34618	
6941	0	34704	
6942	0	34776	
6943	0	34824	
6944	0	34804	
6945	0	34794	
6946	0	34780	
6947	0	34760	
6948	0	34728	
6949	0	34712	
6950	0	34692	
6951	0	34664	
6952	0	34640	
6953	0	34608	
6954	0	34600	
6955	0	34620	
6956	0	34656	
6957	0	34668	
6958	0	34680	
6959	0	34664	
6960	0	34624	
6961	0	34634	
6962	0	34656	
6963	0	34652	
6964	0	34636	
6965	0	34644	
6966	0	34668	
6967	0	34692	
6968	0	34672	
6969	0	34656	
6970	0	34636	
6971	0	34640	
6972	0	34644	
6973	0	34656	
6974	0	34708	
6975	0	34720	
6976	0	34740	
6977	0	34808	
6978	0	34820	
6979	0	34834	
6980	0	34840	
6981	0	34832	
6982	0	34832	
6983	0	34858	
6984	0	34892	
6985	0	34896	
6986	0	34904	
6987	0	34884	
6988	0	34846	
6989	0	34808	
6990	0	34756	
6991	0	34716	
6992	0	34698	
6993	0	34732	
6994	0	34746	
6995	0	34768	
6996	0	34784	
6997	0	34796	
6998	0	34792	
6999	0	34808	
7000	0	34828	
7001	0	34828	
7002	0	34792	
7003	0	34776	
7004	0	34740	
7005	0	34676	
7006	0	34620	
7007	0	34560	
7008	0	34512	
7009	0	34496	
7010	0	34504	
7011	0	34520	
7012	0	34492	
7013	0	34416	
7014	0	34352	
7015	0	34272	
7016	0	34216	
7017	0	34208	
7018	0	34156	
7019	0	34056	
7020	0	33960	
7021	0	33850	
7022	0	33724	
7023	0	33632	
7024	0	33552	
7025	0	33476	
7026	0	33406	
7027	0	33324	
7028	0	33248	
7029	0	33164	
7030	0	33072	
7031	0	32956	
7032	0	32816	
7033	0	32672	
7034	0	32568	
7035	0	32496	
7036	0	32448	
7037	0	32384	
7038	0	32292	
7039	0	32188	
7040	0	32060	
7041	0	31960	
7042	0	31864	
7043	0	31768	
7044	0	31644	
7045	0	31544	
7046	0	31412	
7047	0	31276	
7048	0	31120	
7049	0	31028	
7050	0	30986	
7051	0	30944	
7052	0	30912	
7053	0	30848	
7054	0	30768	
7055	0	30688	
7056	0	30618	
7057	0	30528	
7058	0	30480	
7059	0	30452	
7060	0	30452	
7061	0	30392	
7062	0	30340	
7063	0	30272	
7064	0	30160	
7065	0	30048	
7066	0	29984	
7067	0	29900	
7068	0	29836	
7069	0	29820	
7070	0	29820	
7071	0	29836	
7072	0	29852	
7073	0	29872	
7074	0	29882	
7075	0	29936	
7076	0	30000	
7077	0	30076	
7078	0	30108	
7079	0	30136	
7080	0	30180	
7081	0	30160	
7082	0	30120	
7083	0	30084	
7084	0	30028	
7085	0	30000	
7086	0	30000	
7087	0	29992	
7088	0	30020	
7089	0	30044	
7090	0	30056	
7091	0	30072	
7092	0	30084	
7093	0	30092	
7094	0	30120	
7095	0	30144	
7096	0	30176	
7097	0	30232	
7098	0	30316	
7099	0	30392	
7100	0	30428	
7101	0	30456	
7102	0	30460	
7103	0	30464	
7104	0	30512	
7105	0	30536	
7106	0	30528	
7107	0	30528	
7108	0	30536	
7109	0	30584	
7110	0	30604	
7111	0	30616	
7112	0	30664	
7113	0	30720	
7114	0	30784	
7115	0	30820	
7116	0	30908	
7117	0	30952	
7118	0	30960	
7119	0	30972	
7120	0	31028	
7121	0	31064	
7122	0	31090	
7123	0	31140	
7124	0	31152	
7125	0	31168	
7126	0	31184	
7127	0	31168	
7128	0	31148	
7129	0	31130	
7130	0	31156	
7131	0	31224	
7132	0	31324	
7133	0	31376	
7134	0	31408	
7135	0	31426	
7136	0	31472	
7137	0	31544	
7138	0	31620	
7139	0	31664	
7140	0	31668	
7141	0	31656	
7142	0	31642	
7143	0	31640	
7144	0	31660	
7145	0	31656	
7146	0	31652	
7147	0	31592	
7148	0	31488	
7149	0	31420	
7150	0	31428	
7151	0	31480	
7152	0	31548	
7153	0	31616	
7154	0	31672	
7155	0	31708	
7156	0	31776	
7157	0	31832	
7158	0	31876	
7159	0	31948	
7160	0	31972	
7161	0	31956	
7162	0	31920	
7163	0	31940	
7164	0	31952	
7165	0	31924	
7166	0	31908	
7167	0	31902	
7168	0	31904	
7169	0	31898	
7170	0	31860	
7171	0	31800	
7172	0	31732	
7173	0	31668	
7174	0	31616	
7175	0	31596	
7176	0	31608	
7177	0	31636	
7178	0	31624	
7179	0	31632	
7180	0	31680	
7181	0	31720	
7182	0	31760	
7183	0	31792	
7184	0	31768	
7185	0	31748	
7186	0	31714	
7187	0	31664	
7188	0	31628	
7189	0	31628	
7190	0	31648	
7191	0	31680	
7192	0	31700	
7193	0	31728	
7194	0	31744	
7195	0	31704	
7196	0	31676	
7197	0	31700	
7198	0	31712	
7199	0	31744	
7200	0	31788	
7201	0	31824	
7202	0	31816	
7203	0	31812	
7204	0	31816	
7205	0	31816	
7206	0	31760	
7207	0	31752	
7208	0	31712	
7209	0	31684	
7210	0	31640	
7211	0	31640	
7212	0	31672	
7213	0	31656	
7214	0	31632	
7215	0	31584	
7216	0	31560	
7217	0	31548	
7218	0	31560	
7219	0	31564	
7220	0	31576	
7221	0	31562	
7222	0	31544	
7223	0	31532	
7224	0	31528	
7225	0	31476	
7226	0	31428	
7227	0	31424	
7228	0	31416	
7229	0	31388	
7230	0	31360	
7231	0	31352	
7232	0	31372	
7233	0	31400	
7234	0	31460	
7235	0	31496	
7236	0	31516	
7237	0	31548	
7238	0	31536	
7239	0	31544	
7240	0	31552	
7241	0	31552	
7242	0	31530	
7243	0	31496	
7244	0	31464	
7245	0	31456	
7246	0	31446	
7247	0	31396	
7248	0	31324	
7249	0	31300	
7250	0	31314	
7251	0	31356	
7252	0	31436	
7253	0	31492	
7254	0	31520	
7255	0	31534	
7256	0	31552	
7257	0	31546	
7258	0	31552	
7259	0	31580	
7260	0	31622	
7261	0	31640	
7262	0	31632	
7263	0	31610	
7264	0	31610	
7265	0	31596	
7266	0	31572	
7267	0	31568	
7268	0	31560	
7269	0	31546	
7270	0	31608	
7271	0	31676	
7272	0	31720	
7273	0	31776	
7274	0	31820	
7275	0	31876	
7276	0	31948	
7277	0	31992	
7278	0	32024	
7279	0	32068	
7280	0	32104	
7281	0	32122	
7282	0	32120	
7283	0	32080	
7284	0	32060	
7285	0	32008	
7286	0	31968	
7287	0	31940	
7288	0	31956	
7289	0	31964	
7290	0	31984	
7291	0	32028	
7292	0	32078	
7293	0	32138	
7294	0	32216	
7295	0	32280	
7296	0	32298	
7297	0	32280	
7298	0	32258	
7299	0	32240	
7300	0	32236	
7301	0	32224	
7302	0	32244	
7303	0	32288	
7304	0	32344	
7305	0	32400	
7306	0	32428	
7307	0	32452	
7308	0	32480	
7309	0	32504	
7310	0	32476	
7311	0	32416	
7312	0	32384	
7313	0	32372	
7314	0	32384	
7315	0	32390	
7316	0	32420	
7317	0	32452	
7318	0	32468	
7319	0	32520	
7320	0	32576	
7321	0	32608	
7322	0	32632	
7323	0	32604	
7324	0	32612	
7325	0	32624	
7326	0	32656	
7327	0	32772	
7328	0	32880	
7329	0	32960	
7330	0	33080	
7331	0	33216	
7332	0	33360	
7333	0	33496	
7334	0	33592	
7335	0	33708	
7336	0	33816	
7337	0	33892	
7338	0	33972	
7339	0	34056	
7340	0	34124	
7341	0	34180	
7342	0	34214	
7343	0	34216	
7344	0	34176	
7345	0	34084	
7346	0	33964	
7347	0	33820	
7348	0	33700	
7349	0	33600	
7350	0	33512	
7351	0	33444	
7352	0	33400	
7353	0	33340	
7354	0	33300	
7355	0	33228	
7356	0	33216	
7357	0	33240	
7358	0	33248	
7359	0	33236	
7360	0	33256	
7361	0	33244	
7362	0	33242	
7363	0	33204	
7364	0	33148	
7365	0	33088	
7366	0	32984	
7367	0	32852	
7368	0	32728	
7369	0	32616	
7370	0	32592	
7371	0	32608	
7372	0	32624	
7373	0	32632	
7374	0	32640	
7375	0	32644	
7376	0	32660	
7377	0	32668	
7378	0	32644	
7379	0	32632	
7380	0	32608	
7381	0	32612	
7382	0	32608	
7383	0	32584	
7384	0	32528	
7385	0	32488	
7386	0	32436	
7387	0	32400	
7388	0	32364	
7389	0	32332	
7390	0	32320	
7391	0	32304	
7392	0	32280	
7393	0	32256	
7394	0	32232	
7395	0	32228	
7396	0	32238	
7397	0	32258	
7398	0	32240	
7399	0	32232	
7400	0	32248	
7401	0	32256	
7402	0	32248	
7403	0	32220	
7404	0	32208	
7405	0	32216	
7406	0	32232	
7407	0	32244	
7408	0	32248	
7409	0	32244	
7410	0	32216	
7411	0	32234	
7412	0	32248	
7413	0	32220	
7414	0	32232	
7415	0	32252	
7416	0	32280	
7417	0	32308	
7418	0	32340	
7419	0	32340	
7420	0	32368	
7421	0	32412	
7422	0	32416	
7423	0	32420	
7424	0	32424	
7425	0	32420	
7426	0	32392	
7427	0	32368	
7428	0	32332	
7429	0	32276	
7430	0	32236	
7431	0	32224	
7432	0	32224	
7433	0	32280	
7434	0	32320	
7435	0	32356	
7436	0	32440	
7437	0	32528	
7438	0	32568	
7439	0	32616	
7440	0	32628	
7441	0	32602	
7442	0	32592	
7443	0	32608	
7444	0	32596	
7445	0	32552	
7446	0	32480	
7447	0	32432	
7448	0	32392	
7449	0	32364	
7450	0	32352	
7451	0	32336	
7452	0	32364	
7453	0	32428	
7454	0	32480	
7455	0	32552	
7456	0	32636	
7457	0	32728	
7458	0	32852	
7459	0	32956	
7460	0	33000	
7461	0	33016	
7462	0	33024	
7463	0	33060	
7464	0	33060	
7465	0	33036	
7466	0	33004	
7467	0	32916	
7468	0	32852	
7469	0	32896	
7470	0	33096	
7471	0	33448	
7472	0	33816	
7473	0	34208	
7474	0	34642	
7475	0	34988	
7476	0	35240	
7477	0	35408	
7478	0	35480	
7479	0	35656	
7480	0	36036	
7481	0	36576	
7482	0	37248	
7483	0	38060	
7484	0	39080	
7485	0	40296	
7486	0	41604	
7487	0	43012	
7488	0	44560	
7489	0	46152	
7490	0	47792	
7491	0	49360	
7492	0	50768	
7493	0	51972	
7494	0	53040	
7495	0	54016	
7496	0	55132	
7497	0	56204	
7498	0	56976	
7499	0	57376	
7500	0	56848	
7501	0	55160	
7502	0	52528	
7503	0	49248	
7504	0	45644	
7505	0	41948	
7506	0	38552	
7507	0	35796	
7508	0	33744	
7509	0	32312	
7510	0	31368	
7511	0	30856	
7512	0	30576	
7513	0	30456	
7514	0	30404	
7515	0	30352	
7516	0	30356	
7517	0	30458	
7518	0	30652	
7519	0	30860	
7520	0	31068	
7521	0	31260	
7522	0	31432	
7523	0	31600	
7524	0	31748	
7525	0	31884	
7526	0	31982	
7527	0	32032	
7528	0	32016	
7529	0	32030	
7530	0	32052	
7531	0	32032	
7532	0	31968	
7533	0	31944	
7534	0	31896	
7535	0	31842	
7536	0	31792	
7537	0	31772	
7538	0	31754	
7539	0	31760	
7540	0	31760	
7541	0	31760	
7542	0	31778	
7543	0	31826	
7544	0	31856	
7545	0	31864	
7546	0	31816	
7547	0	31768	
7548	0	31712	
7549	0	31680	
7550	0	31692	
7551	0	31700	
7552	0	31708	
7553	0	31700	
7554	0	31688	
7555	0	31696	
7556	0	31710	
7557	0	31768	
7558	0	31812	
7559	0	31856	
7560	0	31902	
7561	0	31936	
7562	0	31964	
7563	0	32024	
7564	0	32084	
7565	0	32104	
7566	0	32108	
7567	0	32112	
7568	0	32096	
7569	0	32064	
7570	0	32072	
7571	0	32104	
7572	0	32144	
7573	0	32156	
7574	0	32176	
7575	0	32176	
7576	0	32192	
7577	0	32192	
7578	0	32200	
7579	0	32236	
7580	0	32292	
7581	0	32320	
7582	0	32340	
7583	0	32352	
7584	0	32352	
7585	0	32320	
7586	0	32320	
7587	0	32304	
7588	0	32252	
7589	0	32236	
7590	0	32244	
7591	0	32272	
7592	0	32280	
7593	0	32296	
7594	0	32344	
7595	0	32432	
7596	0	32540	
7597	0	32624	
7598	0	32696	
7599	0	32732	
7600	0	32744	
7601	0	32756	
7602	0	32768	
7603	0	32772	
7604	0	32792	
7605	0	32832	
7606	0	32828	
7607	0	32800	
7608	0	32768	
7609	0	32752	
7610	0	32756	
7611	0	32744	
7612	0	32764	
7613	0	32796	
7614	0	32828	
7615	0	32836	
7616	0	32856	
7617	0	32904	
7618	0	32976	
7619	0	33016	
7620	0	33064	
7621	0	33084	
7622	0	33084	
7623	0	33088	
7624	0	33092	
7625	0	33084	
7626	0	33076	
7627	0	33090	
7628	0	33132	
7629	0	33180	
7630	0	33204	
7631	0	33210	
7632	0	33242	
7633	0	33258	
7634	0	33304	
7635	0	33328	
7636	0	33332	
7637	0	33404	
7638	0	33472	
7639	0	33540	
7640	0	33584	
7641	0	33568	
7642	0	33544	
7643	0	33536	
7644	0	33548	
7645	0	33584	
7646	0	33624	
7647	0	33632	
7648	0	33640	
7649	0	33645	
7650	0	33668	
7651	0	33696	
7652	0	33732	
7653	0	33768	
7654	0	33766	
7655	0	33768	
7656	0	33764	
7657	0	33808	
7658	0	33868	
7659	0	33956	
7660	0	34016	
7661	0	34052	
7662	0	34076	
7663	0	34128	
7664	0	34140	
7665	0	34120	
7666	0	34104	
7667	0	34090	
7668	0	34108	
7669	0	34088	
7670	0	34060	
7671	0	34076	
7672	0	34152	
7673	0	34216	
7674	0	34240	
7675	0	34298	
7676	0	34336	
7677	0	34396	
7678	0	34396	
7679	0	34396	
7680	0	34432	
7681	0	34444	
7682	0	34420	
7683	0	34444	
7684	0	34452	
7685	0	34432	
7686	0	34420	
7687	0	34360	
7688	0	34320	
7689	0	34300	
7690	0	34288	
7691	0	34296	
7692	0	34308	
7693	0	34352	
7694	0	34424	
7695	0	34484	
7696	0	34528	
7697	0	34604	
7698	0	34664	
7699	0	34716	
7700	0	34748	
7701	0	34752	
7702	0	34748	
7703	0	34724	
7704	0	34696	
7705	0	34642	
7706	0	34608	
7707	0	34572	
7708	0	34568	
7709	0	34564	
7710	0	34568	
7711	0	34536	
7712	0	34540	
7713	0	34548	
7714	0	34578	
7715	0	34592	
7716	0	34640	
7717	0	34688	
7718	0	34720	
7719	0	34728	
7720	0	34746	
7721	0	34740	
7722	0	34752	
7723	0	34716	
7724	0	34708	
7725	0	34700	
7726	0	34676	
7727	0	34656	
7728	0	34624	
7729	0	34620	
7730	0	34656	
7731	0	34672	
7732	0	34712	
7733	0	34728	
7734	0	34732	
7735	0	34708	
7736	0	34688	
7737	0	34688	
7738	0	34668	
7739	0	34688	
7740	0	34720	
7741	0	34760	
7742	0	34788	
7743	0	34812	
7744	0	34820	
7745	0	34808	
7746	0	34784	
7747	0	34768	
7748	0	34752	
7749	0	34720	
7750	0	34736	
7751	0	34716	
7752	0	34720	
7753	0	34746	
7754	0	34752	
7755	0	34752	
7756	0	34792	
7757	0	34832	
7758	0	34864	
7759	0	34876	
7760	0	34816	
7761	0	34776	
7762	0	34728	
7763	0	34640	
7764	0	34568	
7765	0	34508	
7766	0	34428	
7767	0	34340	
7768	0	34252	
7769	0	34184	
7770	0	34144	
7771	0	34064	
7772	0	33984	
7773	0	33888	
7774	0	33808	
7775	0	33712	
7776	0	33640	
7777	0	33568	
7778	0	33504	
7779	0	33380	
7780	0	33248	
7781	0	33148	
7782	0	33040	
7783	0	32928	
7784	0	32800	
7785	0	32640	
7786	0	32520	
7787	0	32364	
7788	0	32228	
7789	0	32128	
7790	0	32032	
7791	0	31948	
7792	0	31904	
7793	0	31840	
7794	0	31792	
7795	0	31728	
7796	0	31664	
7797	0	31624	
7798	0	31566	
7799	0	31508	
7800	0	31448	
7801	0	31408	
7802	0	31328	
7803	0	31258	
7804	0	31184	
7805	0	31120	
7806	0	31036	
7807	0	30964	
7808	0	30848	
7809	0	30768	
7810	0	30728	
7811	0	30692	
7812	0	30644	
7813	0	30636	
7814	0	30588	
7815	0	30572	
7816	0	30512	
7817	0	30506	
7818	0	30496	
7819	0	30504	
7820	0	30516	
7821	0	30524	
7822	0	30496	
7823	0	30472	
7824	0	30448	
7825	0	30404	
7826	0	30344	
7827	0	30328	
7828	0	30296	
7829	0	30232	
7830	0	30212	
7831	0	30200	
7832	0	30190	
7833	0	30180	
7834	0	30200	
7835	0	30212	
7836	0	30236	
7837	0	30280	
7838	0	30348	
7839	0	30400	
7840	0	30432	
7841	0	30434	
7842	0	30424	
7843	0	30408	
7844	0	30404	
7845	0	30400	
7846	0	30412	
7847	0	30416	
7848	0	30412	
7849	0	30420	
7850	0	30416	
7851	0	30432	
7852	0	30444	
7853	0	30456	
7854	0	30476	
7855	0	30528	
7856	0	30600	
7857	0	30660	
7858	0	30720	
7859	0	30778	
7860	0	30844	
7861	0	30876	
7862	0	30882	
7863	0	30880	
7864	0	30880	
7865	0	30916	
7866	0	30940	
7867	0	30964	
7868	0	30984	
7869	0	30974	
7870	0	30988	
7871	0	31008	
7872	0	31068	
7873	0	31129	
7874	0	31160	
7875	0	31184	
7876	0	31216	
7877	0	31272	
7878	0	31320	
7879	0	31328	
7880	0	31362	
7881	0	31418	
7882	0	31446	
7883	0	31424	
7884	0	31440	
7885	0	31424	
7886	0	31400	
7887	0	31356	
7888	0	31320	
7889	0	31288	
7890	0	31264	
7891	0	31226	
7892	0	31182	
7893	0	31184	
7894	0	31192	
7895	0	31188	
7896	0	31192	
7897	0	31236	
7898	0	31272	
7899	0	31290	
7900	0	31314	
7901	0	31372	
7902	0	31388	
7903	0	31376	
7904	0	31360	
7905	0	31348	
7906	0	31344	
7907	0	31310	
7908	0	31280	
7909	0	31240	
7910	0	31240	
7911	0	31268	
7912	0	31296	
7913	0	31320	
7914	0	31336	
7915	0	31338	
7916	0	31320	
7917	0	31376	
7918	0	31416	
7919	0	31448	
7920	0	31476	
7921	0	31484	
7922	0	31480	
7923	0	31464	
7924	0	31452	
7925	0	31440	
7926	0	31392	
7927	0	31364	
7928	0	31280	
7929	0	31210	
7930	0	31168	
7931	0	31128	
7932	0	31138	
7933	0	31164	
7934	0	31188	
7935	0	31216	
7936	0	31260	
7937	0	31296	
7938	0	31332	
7939	0	31352	
7940	0	31372	
7941	0	31360	
7942	0	31348	
7943	0	31324	
7944	0	31330	
7945	0	31328	
7946	0	31316	
7947	0	31316	
7948	0	31308	
7949	0	31304	
7950	0	31274	
7951	0	31248	
7952	0	31260	
7953	0	31300	
7954	0	31304	
7955	0	31272	
7956	0	31308	
7957	0	31360	
7958	0	31404	
7959	0	31416	
7960	0	31418	
7961	0	31424	
7962	0	31408	
7963	0	31392	
7964	0	31360	
7965	0	31328	
7966	0	31308	
7967	0	31284	
7968	0	31258	
7969	0	31232	
7970	0	31208	
7971	0	31232	
7972	0	31264	
7973	0	31300	
7974	0	31316	
7975	0	31332	
7976	0	31348	
7977	0	31364	
7978	0	31412	
7979	0	31456	
7980	0	31508	
7981	0	31552	
7982	0	31552	
7983	0	31546	
7984	0	31532	
7985	0	31480	
7986	0	31444	
7987	0	31380	
7988	0	31352	
7989	0	31308	
7990	0	31276	
7991	0	31276	
7992	0	31288	
7993	0	31264	
7994	0	31248	
7995	0	31248	
7996	0	31252	
7997	0	31292	
7998	0	31348	
7999	0	31360	
8000	0	31400	
8001	0	31436	
8002	0	31452	
8003	0	31440	
8004	0	31416	
8005	0	31408	
8006	0	31358	
8007	0	31328	
8008	0	31298	
8009	0	31280	
8010	0	31266	
8011	0	31252	
8012	0	31268	
8013	0	31316	
8014	0	31348	
8015	0	31352	
8016	0	31340	
8017	0	31340	
8018	0	31356	
8019	0	31364	
8020	0	31416	
8021	0	31488	
8022	0	31512	
8023	0	31520	
8024	0	31534	
8025	0	31520	
8026	0	31464	
8027	0	31416	
8028	0	31404	
8029	0	31394	
8030	0	31380	
8031	0	31376	
8032	0	31420	
8033	0	31424	
8034	0	31464	
8035	0	31476	
8036	0	31492	
8037	0	31520	
8038	0	31564	
8039	0	31620	
8040	0	31664	
8041	0	31712	
8042	0	31728	
8043	0	31716	
8044	0	31728	
8045	0	31740	
8046	0	31732	
8047	0	31704	
8048	0	31708	
8049	0	31704	
8050	0	31712	
8051	0	31736	
8052	0	31764	
8053	0	31792	
8054	0	31820	
8055	0	31860	
8056	0	31920	
8057	0	31978	
8058	0	32048	
8059	0	32084	
8060	0	32104	
8061	0	32132	
8062	0	32120	
8063	0	32104	
8064	0	32108	
8065	0	32096	
8066	0	32072	
8067	0	32040	
8068	0	32032	
8069	0	32024	
8070	0	32032	
8071	0	32064	
8072	0	32052	
8073	0	32068	
8074	0	32096	
8075	0	32136	
8076	0	32184	
8077	0	32208	
8078	0	32232	
8079	0	32244	
8080	0	32248	
8081	0	32252	
8082	0	32264	
8083	0	32256	
8084	0	32244	
8085	0	32250	
8086	0	32256	
8087	0	32260	
8088	0	32244	
8089	0	32256	
8090	0	32256	
8091	0	32256	
8092	0	32288	
8093	0	32288	
8094	0	32282	
8095	0	32290	
8096	0	32304	
8097	0	32316	
8098	0	32324	
8099	0	32356	
8100	0	32388	
8101	0	32416	
8102	0	32418	
8103	0	32388	
8104	0	32376	
8105	0	32376	
8106	0	32340	
8107	0	32288	
8108	0	32268	
8109	0	32220	
8110	0	32216	
8111	0	32196	
8112	0	32204	
8113	0	32220	
8114	0	32248	
8115	0	32274	
8116	0	32304	
8117	0	32352	
8118	0	32392	
8119	0	32440	
8120	0	32466	
8121	0	32500	
8122	0	32510	
8123	0	32500	
8124	0	32456	
8125	0	32416	
8126	0	32392	
8127	0	32364	
8128	0	32368	
8129	0	32368	
8130	0	32364	
8131	0	32368	
8132	0	32360	
8133	0	32380	
8134	0	32408	
8135	0	32430	
8136	0	32456	
8137	0	32464	
8138	0	32500	
8139	0	32524	
8140	0	32552	
8141	0	32608	
8142	0	32604	
8143	0	32624	
8144	0	32616	
8145	0	32588	
8146	0	32576	
8147	0	32556	
8148	0	32544	
8149	0	32528	
8150	0	32524	
8151	0	32520	
8152	0	32552	
8153	0	32560	
8154	0	32572	
8155	0	32560	
8156	0	32556	
8157	0	32568	
8158	0	32580	
8159	0	32600	
8160	0	32644	
8161	0	32664	
8162	0	32684	
8163	0	32696	
8164	0	32688	
8165	0	32692	
8166	0	32692	
8167	0	32684	
8168	0	32660	
8169	0	32624	
8170	0	32616	
8171	0	32596	
8172	0	32608	
8173	0	32612	
8174	0	32632	
8175	0	32640	
8176	0	32642	
8177	0	32680	
8178	0	32704	
8179	0	32736	
8180	0	32780	
8181	0	32800	
8182	0	32796	
8183	0	32802	
8184	0	32832	
8185	0	32834	
8186	0	32824	
8187	0	32800	
8188	0	32768	
8189	0	32728	
8190	0	32680	
8191	0	32672	
8192	0	32656	
8193	0	32640	
8194	0	32640	
8195	0	32664	
8196	0	32660	
8197	0	32668	
8198	0	32676	
8199	0	32716	
8200	0	32728	
8201	0	32760	
8202	0	32736	
8203	0	32684	
8204	0	32660	
8205	0	32668	
8206	0	32652	
8207	0	32640	
8208	0	32624	
8209	0	32604	
8210	0	32580	
8211	0	32560	
8212	0	32540	
8213	0	32556	
8214	0	32572	
8215	0	32568	
8216	0	32596	
8217	0	32592	
8218	0	32632	
8219	0	32684	
8220	0	32704	
8221	0	32736	
8222	0	32736	
8223	0	32716	
8224	0	32716	
8225	0	32704	
8226	0	32674	
8227	0	32648	
8228	0	32628	
8229	0	32616	
8230	0	32608	
8231	0	32616	
8232	0	32608	
8233	0	32624	
8234	0	32656	
8235	0	32664	
8236	0	32692	
8237	0	32696	
8238	0	32696	
8239	0	32706	
8240	0	32736	
8241	0	32752	
8242	0	32748	
8243	0	32748	
8244	0	32758	
8245	0	32792	
8246	0	32810	
8247	0	32848	
8248	0	32880	
8249	0	32920	
8250	0	32936	
8251	0	32984	
8252	0	33056	
8253	0	33108	
8254	0	33128	
8255	0	33128	
8256	0	33176	
8257	0	33200	
8258	0	33220	
8259	0	33256	
8260	0	33292	
8261	0	33332	
8262	0	33344	
8263	0	33328	
8264	0	33304	
8265	0	33296	
8266	0	33240	
8267	0	33220	
8268	0	33188	
8269	0	33164	
8270	0	33178	
8271	0	33262	
8272	0	33384	
8273	0	33520	
8274	0	33656	
8275	0	33794	
8276	0	33928	
8277	0	34048	
8278	0	34160	
8279	0	34240	
8280	0	34344	
8281	0	34412	
8282	0	34432	
8283	0	34408	
8284	0	34388	
8285	0	34380	
8286	0	34352	
8287	0	34304	
8288	0	34240	
8289	0	34164	
8290	0	34060	
8291	0	33924	
8292	0	33852	
8293	0	33760	
8294	0	33676	
8295	0	33596	
8296	0	33536	
8297	0	33484	
8298	0	33448	
8299	0	33424	
8300	0	33408	
8301	0	33404	
8302	0	33388	
8303	0	33344	
8304	0	33308	
8305	0	33272	
8306	0	33236	
8307	0	33204	
8308	0	33148	
8309	0	33072	
8310	0	32996	
8311	0	32948	
8312	0	32920	
8313	0	32920	
8314	0	32916	
8315	0	32932	
8316	0	32968	
8317	0	33040	
8318	0	33072	
8319	0	33076	
8320	0	33064	
8321	0	33048	
8322	0	33020	
8323	0	32980	
8324	0	32928	
8325	0	32872	
8326	0	32824	
8327	0	32760	
8328	0	32716	
8329	0	32620	
8330	0	32512	
8331	0	32432	
8332	0	32384	
8333	0	32332	
8334	0	32320	
8335	0	32324	
8336	0	32344	
8337	0	32376	
8338	0	32428	
8339	0	32448	
8340	0	32480	
8341	0	32500	
8342	0	32480	
8343	0	32456	
8344	0	32448	
8345	0	32408	
8346	0	32352	
8347	0	32304	
8348	0	32276	
8349	0	32260	
8350	0	32266	
8351	0	32268	
8352	0	32276	
8353	0	32288	
8354	0	32288	
8355	0	32304	
8356	0	32332	
8357	0	32384	
8358	0	32424	
8359	0	32456	
8360	0	32484	
8361	0	32520	
8362	0	32516	
8363	0	32520	
8364	0	32540	
8365	0	32544	
8366	0	32536	
8367	0	32512	
8368	0	32504	
8369	0	32500	
8370	0	32512	
8371	0	32528	
8372	0	32572	
8373	0	32602	
8374	0	32628	
8375	0	32640	
8376	0	32662	
8377	0	32718	
8378	0	32768	
8379	0	32800	
8380	0	32832	
8381	0	32864	
8382	0	32888	
8383	0	32886	
8384	0	32892	
8385	0	32890	
8386	0	32868	
8387	0	32872	
8388	0	32848	
8389	0	32848	
8390	0	32856	
8391	0	32872	
8392	0	32888	
8393	0	32900	
8394	0	32922	
8395	0	32932	
8396	0	32948	
8397	0	33000	
8398	0	33064	
8399	0	33126	
8400	0	33216	
8401	0	33268	
8402	0	33312	
8403	0	33336	
8404	0	33356	
8405	0	33320	
8406	0	33252	
8407	0	33192	
8408	0	33136	
8409	0	33032	
8410	0	32992	
8411	0	33152	
8412	0	33476	
8413	0	33832	
8414	0	34184	
8415	0	34528	
8416	0	34784	
8417	0	35064	
8418	0	35272	
8419	0	35380	
8420	0	35556	
8421	0	35872	
8422	0	36324	
8423	0	36904	
8424	0	37666	
8425	0	38580	
8426	0	39644	
8427	0	40800	
8428	0	42004	
8429	0	43296	
8430	0	44700	
8431	0	46170	
8432	0	47584	
8433	0	48896	
8434	0	50048	
8435	0	51056	
8436	0	51952	
8437	0	53020	
8438	0	54092	
8439	0	54928	
8440	0	55360	
8441	0	55000	
8442	0	53496	
8443	0	51056	
8444	0	47912	
8445	0	44400	
8446	0	40856	
8447	0	37612	
8448	0	34948	
8449	0	33020	
8450	0	31752	
8451	0	30992	
8452	0	30594	
8453	0	30416	
8454	0	30364	
8455	0	30380	
8456	0	30392	
8457	0	30500	
8458	0	30656	
8459	0	30828	
8460	0	31024	
8461	0	31224	
8462	0	31396	
8463	0	31500	
8464	0	31636	
8465	0	31788	
8466	0	31904	
8467	0	31992	
8468	0	32024	
8469	0	32044	
8470	0	32064	
8471	0	32060	
8472	0	32032	
8473	0	31992	
8474	0	31968	
8475	0	31922	
8476	0	31892	
8477	0	31866	
8478	0	31852	
8479	0	31826	
8480	0	31808	
8481	0	31786	
8482	0	31764	
8483	0	31712	
8484	0	31688	
8485	0	31640	
8486	0	31588	
8487	0	31544	
8488	0	31500	
8489	0	31460	
8490	0	31428	
8491	0	31408	
8492	0	31404	
8493	0	31444	
8494	0	31464	
8495	0	31490	
8496	0	31544	
8497	0	31576	
8498	0	31608	
8499	0	31608	
8500	0	31632	
8501	0	31648	
8502	0	31660	
8503	0	31688	
8504	0	31700	
8505	0	31700	
8506	0	31684	
8507	0	31692	
8508	0	31656	
8509	0	31648	
8510	0	31636	
8511	0	31630	
8512	0	31664	
8513	0	31676	
8514	0	31696	
8515	0	31712	
8516	0	31732	
8517	0	31792	
8518	0	31848	
8519	0	31896	
8520	0	31940	
8521	0	31992	
8522	0	32016	
8523	0	32036	
8524	0	32048	
8525	0	32060	
8526	0	32064	
8527	0	32064	
8528	0	32032	
8529	0	32008	
8530	0	31972	
8531	0	31964	
8532	0	31996	
8533	0	32012	
8534	0	32028	
8535	0	32040	
8536	0	32052	
8537	0	32060	
8538	0	32076	
8539	0	32116	
8540	0	32144	
8541	0	32192	
8542	0	32222	
8543	0	32204	
8544	0	32184	
8545	0	32208	
8546	0	32212	
8547	0	32204	
8548	0	32204	
8549	0	32204	
8550	0	32184	
8551	0	32196	
8552	0	32244	
8553	0	32256	
8554	0	32288	
8555	0	32336	
8556	0	32356	
8557	0	32368	
8558	0	32420	
8559	0	32432	
8560	0	32448	
8561	0	32472	
8562	0	32520	
8563	0	32536	
8564	0	32548	
8565	0	32544	
8566	0	32524	
8567	0	32468	
8568	0	32456	
8569	0	32440	
8570	0	32416	
8571	0	32416	
8572	0	32440	
8573	0	32448	
8574	0	32480	
8575	0	32520	
8576	0	32544	
8577	0	32600	
8578	0	32628	
8579	0	32640	
8580	0	32688	
8581	0	32728	
8582	0	32752	
8583	0	32760	
8584	0	32784	
8585	0	32800	
8586	0	32800	
8587	0	32800	
8588	0	32780	
8589	0	32780	
8590	0	32780	
8591	0	32776	
8592	0	32764	
