# OpenSignals Text File Format. Version 1
# {"00:07:80:4B:15:F7": {"position": 0, "device": "biosignalsplux", "device name": "00:07:80:4B:15:F7", "device connection": "BTH00:07:80:4B:15:F7", "sampling rate": 1000, "resolution": [16], "firmware version": 775, "comments": "", "keywords": "", "mode": 0, "sync interval": 2, "date": "2023-3-14", "time": "15:28:6.400", "channels": [1], "sensor": ["ECG"], "label": ["CH1"], "column": ["nSeq", "DI", "CH1"], "special": [{"SpO2": [80, 40, 5, 4, 3, 3]}, {"SpO2": [80, 40, 5, 4, 3, 3]}, {"SpO2": [80, 40, 5, 4, 3, 3]}, {"SpO2": [80, 40, 5, 4, 3, 3]}, {"SpO2": [80, 40, 5, 4, 3, 3]}, {"SpO2": [80, 40, 5, 4, 3, 3]}, {"SpO2": [80, 40, 5, 4, 3, 3]}, {"SpO2": [80, 40, 5, 4, 3, 3]}], "digital IO": [0, 1], "sleeve color": ["green"], "convertedValues": 0}}
# EndOfHeader
0	0	32008	
1	0	32020	
2	0	32044	
3	0	32058	
4	0	32120	
5	0	32152	
6	0	32164	
7	0	32210	
8	0	32236	
9	0	32264	
10	0	32280	
11	0	32312	
12	0	32336	
13	0	32336	
14	0	32280	
15	0	32238	
16	0	32216	
17	0	32200	
18	0	32192	
19	0	32218	
20	0	32220	
21	0	32216	
22	0	32224	
23	0	32240	
24	0	32284	
25	0	32304	
26	0	32316	
27	0	32340	
28	0	32352	
29	0	32416	
30	0	32508	
31	0	32536	
32	0	32540	
33	0	32564	
34	0	32532	
35	0	32536	
36	0	32504	
37	0	32480	
38	0	32460	
39	0	32432	
40	0	32364	
41	0	32324	
42	0	32372	
43	0	32420	
44	0	32440	
45	0	32476	
46	0	32504	
47	0	32588	
48	0	32668	
49	0	32724	
50	0	32796	
51	0	32808	
52	0	32832	
53	0	32800	
54	0	32744	
55	0	32728	
56	0	32688	
57	0	32628	
58	0	32584	
59	0	32542	
60	0	32512	
61	0	32512	
62	0	32524	
63	0	32520	
64	0	32548	
65	0	32588	
66	0	32624	
67	0	32652	
68	0	32660	
69	0	32696	
70	0	32720	
71	0	32752	
72	0	32748	
73	0	32736	
74	0	32728	
75	0	32680	
76	0	32616	
77	0	32620	
78	0	32652	
79	0	32612	
80	0	32520	
81	0	32476	
82	0	32472	
83	0	32568	
84	0	32660	
85	0	32676	
86	0	32688	
87	0	32736	
88	0	32772	
89	0	32788	
90	0	32800	
91	0	32808	
92	0	32740	
93	0	32688	
94	0	32632	
95	0	32580	
96	0	32584	
97	0	32576	
98	0	32564	
99	0	32540	
100	0	32520	
101	0	32548	
102	0	32600	
103	0	32628	
104	0	32656	
105	0	32700	
106	0	32752	
107	0	32792	
108	0	32836	
109	0	32868	
110	0	32916	
111	0	32948	
112	0	32912	
113	0	32856	
114	0	32780	
115	0	32688	
116	0	32640	
117	0	32592	
118	0	32568	
119	0	32560	
120	0	32580	
121	0	32600	
122	0	32644	
123	0	32692	
124	0	32714	
125	0	32785	
126	0	32896	
127	0	33012	
128	0	33136	
129	0	33260	
130	0	33396	
131	0	33460	
132	0	33532	
133	0	33612	
134	0	33620	
135	0	33602	
136	0	33604	
137	0	33620	
138	0	33686	
139	0	33744	
140	0	33712	
141	0	33676	
142	0	33644	
143	0	33640	
144	0	33644	
145	0	33636	
146	0	33608	
147	0	33568	
148	0	33584	
149	0	33604	
150	0	33612	
151	0	33680	
152	0	33720	
153	0	33788	
154	0	33892	
155	0	33992	
156	0	34172	
157	0	34388	
158	0	34628	
159	0	34860	
160	0	35088	
161	0	35248	
162	0	35454	
163	0	35648	
164	0	35824	
165	0	36008	
166	0	36108	
167	0	36100	
168	0	35992	
169	0	35824	
170	0	35704	
171	0	35660	
172	0	35612	
173	0	35572	
174	0	35448	
175	0	35196	
176	0	34884	
177	0	34640	
178	0	34440	
179	0	34304	
180	0	34180	
181	0	34084	
182	0	33968	
183	0	33808	
184	0	33720	
185	0	33608	
186	0	33520	
187	0	33496	
188	0	33492	
189	0	33468	
190	0	33424	
191	0	33344	
192	0	33244	
193	0	33156	
194	0	33088	
195	0	32988	
196	0	32896	
197	0	32796	
198	0	32688	
199	0	32546	
200	0	32420	
201	0	32346	
202	0	32256	
203	0	32188	
204	0	32120	
205	0	32040	
206	0	31964	
207	0	31890	
208	0	31824	
209	0	31780	
210	0	31728	
211	0	31708	
212	0	31656	
213	0	31584	
214	0	31540	
215	0	31524	
216	0	31508	
217	0	31520	
218	0	31546	
219	0	31552	
220	0	31552	
221	0	31572	
222	0	31600	
223	0	31632	
224	0	31672	
225	0	31704	
226	0	31772	
227	0	31900	
228	0	32024	
229	0	32092	
230	0	32128	
231	0	32160	
232	0	32148	
233	0	32116	
234	0	32076	
235	0	32032	
236	0	31972	
237	0	31930	
238	0	31932	
239	0	31940	
240	0	31956	
241	0	32004	
242	0	32068	
243	0	32120	
244	0	32132	
245	0	32208	
246	0	32256	
247	0	32286	
248	0	32292	
249	0	32240	
250	0	32144	
251	0	31964	
252	0	31624	
253	0	31136	
254	0	30520	
255	0	29796	
256	0	29200	
257	0	28824	
258	0	28644	
259	0	28668	
260	0	28888	
261	0	29224	
262	0	29816	
263	0	30676	
264	0	31746	
265	0	32964	
266	0	34368	
267	0	35948	
268	0	37608	
269	0	39508	
270	0	41784	
271	0	44356	
272	0	47428	
273	0	50816	
274	0	54208	
275	0	57496	
276	0	60672	
277	0	62712	
278	0	63776	
279	0	64288	
280	0	64504	
281	0	64584	
282	0	64552	
283	0	64476	
284	0	64372	
285	0	64272	
286	0	64148	
287	0	64048	
288	0	62304	
289	0	56936	
290	0	52700	
291	0	49152	
292	0	46072	
293	0	43400	
294	0	40928	
295	0	38604	
296	0	36520	
297	0	34586	
298	0	32824	
299	0	31300	
300	0	30060	
301	0	29060	
302	0	28428	
303	0	27932	
304	0	27672	
305	0	27632	
306	0	27632	
307	0	27488	
308	0	27360	
309	0	27264	
310	0	27250	
311	0	27340	
312	0	27488	
313	0	27684	
314	0	27912	
315	0	28164	
316	0	28378	
317	0	28586	
318	0	28752	
319	0	28858	
320	0	28930	
321	0	28976	
322	0	28972	
323	0	28944	
324	0	28984	
325	0	29004	
326	0	29024	
327	0	29112	
328	0	29184	
329	0	29204	
330	0	29174	
331	0	29152	
332	0	29156	
333	0	29140	
334	0	29112	
335	0	29050	
336	0	29000	
337	0	28940	
338	0	28912	
339	0	28940	
340	0	29036	
341	0	29104	
342	0	29216	
343	0	29332	
344	0	29408	
345	0	29444	
346	0	29488	
347	0	29560	
348	0	29632	
349	0	29676	
350	0	29708	
351	0	29744	
352	0	29780	
353	0	29784	
354	0	29788	
355	0	29792	
356	0	29808	
357	0	29796	
358	0	29796	
359	0	29884	
360	0	29952	
361	0	30012	
362	0	30028	
363	0	29992	
364	0	29980	
365	0	30036	
366	0	30076	
367	0	30084	
368	0	30220	
369	0	30392	
370	0	30504	
371	0	30568	
372	0	30628	
373	0	30656	
374	0	30624	
375	0	30632	
376	0	30612	
377	0	30560	
378	0	30584	
379	0	30618	
380	0	30666	
381	0	30692	
382	0	30732	
383	0	30800	
384	0	30900	
385	0	31000	
386	0	31104	
387	0	31252	
388	0	31372	
389	0	31432	
390	0	31456	
391	0	31468	
392	0	31510	
393	0	31544	
394	0	31580	
395	0	31568	
396	0	31532	
397	0	31492	
398	0	31496	
399	0	31548	
400	0	31608	
401	0	31636	
402	0	31682	
403	0	31708	
404	0	31704	
405	0	31736	
406	0	31832	
407	0	31940	
408	0	32076	
409	0	32180	
410	0	32284	
411	0	32352	
412	0	32364	
413	0	32360	
414	0	32324	
415	0	32324	
416	0	32340	
417	0	32360	
418	0	32400	
419	0	32432	
420	0	32460	
421	0	32492	
422	0	32552	
423	0	32620	
424	0	32720	
425	0	32828	
426	0	32956	
427	0	33056	
428	0	33164	
429	0	33260	
430	0	33316	
431	0	33336	
432	0	33352	
433	0	33344	
434	0	33384	
435	0	33420	
436	0	33456	
437	0	33498	
438	0	33492	
439	0	33508	
440	0	33560	
441	0	33608	
442	0	33716	
443	0	33818	
444	0	33896	
445	0	33964	
446	0	34024	
447	0	34136	
448	0	34256	
449	0	34388	
450	0	34492	
451	0	34584	
452	0	34632	
453	0	34664	
454	0	34700	
455	0	34764	
456	0	34832	
457	0	34896	
458	0	34948	
459	0	35000	
460	0	35052	
461	0	35136	
462	0	35208	
463	0	35336	
464	0	35520	
465	0	35644	
466	0	35768	
467	0	35888	
468	0	35968	
469	0	36088	
470	0	36204	
471	0	36272	
472	0	36336	
473	0	36376	
474	0	36436	
475	0	36480	
476	0	36536	
477	0	36580	
478	0	36656	
479	0	36736	
480	0	36866	
481	0	36972	
482	0	37068	
483	0	37180	
484	0	37300	
485	0	37412	
486	0	37500	
487	0	37576	
488	0	37684	
489	0	37788	
490	0	37912	
491	0	37976	
492	0	38056	
493	0	38120	
494	0	38116	
495	0	38060	
496	0	38040	
497	0	38072	
498	0	38092	
499	0	38092	
500	0	38056	
501	0	38032	
502	0	38056	
503	0	38104	
504	0	38208	
505	0	38288	
506	0	38348	
507	0	38356	
508	0	38344	
509	0	38332	
510	0	38336	
511	0	38376	
512	0	38368	
513	0	38340	
514	0	38300	
515	0	38200	
516	0	38068	
517	0	37912	
518	0	37792	
519	0	37744	
520	0	37696	
521	0	37664	
522	0	37632	
523	0	37600	
524	0	37552	
525	0	37440	
526	0	37344	
527	0	37232	
528	0	37168	
529	0	37060	
530	0	36908	
531	0	36728	
532	0	36504	
533	0	36232	
534	0	35944	
535	0	35648	
536	0	35376	
537	0	35152	
538	0	34932	
539	0	34680	
540	0	34402	
541	0	34132	
542	0	33904	
543	0	33664	
544	0	33460	
545	0	33240	
546	0	33036	
547	0	32808	
548	0	32572	
549	0	32404	
550	0	32264	
551	0	32064	
552	0	31768	
553	0	31484	
554	0	31200	
555	0	30986	
556	0	30752	
557	0	30508	
558	0	30280	
559	0	30088	
560	0	29864	
561	0	29704	
562	0	29584	
563	0	29488	
564	0	29434	
565	0	29348	
566	0	29228	
567	0	29096	
568	0	29000	
569	0	28922	
570	0	28880	
571	0	28804	
572	0	28724	
573	0	28634	
574	0	28512	
575	0	28416	
576	0	28292	
577	0	28216	
578	0	28132	
579	0	28034	
580	0	27940	
581	0	27864	
582	0	27844	
583	0	27868	
584	0	27864	
585	0	27852	
586	0	27868	
587	0	27884	
588	0	27894	
589	0	27872	
590	0	27842	
591	0	27848	
592	0	27832	
593	0	27816	
594	0	27824	
595	0	27808	
596	0	27804	
597	0	27744	
598	0	27672	
599	0	27650	
600	0	27672	
601	0	27702	
602	0	27732	
603	0	27816	
604	0	27888	
605	0	27960	
606	0	28052	
607	0	28144	
608	0	28230	
609	0	28308	
610	0	28312	
611	0	28330	
612	0	28368	
613	0	28408	
614	0	28416	
615	0	28424	
616	0	28448	
617	0	28448	
618	0	28388	
619	0	28364	
620	0	28392	
621	0	28408	
622	0	28464	
623	0	28528	
624	0	28624	
625	0	28708	
626	0	28788	
627	0	28868	
628	0	28936	
629	0	28988	
630	0	29038	
631	0	29096	
632	0	29130	
633	0	29184	
634	0	29212	
635	0	29200	
636	0	29216	
637	0	29256	
638	0	29332	
639	0	29364	
640	0	29336	
641	0	29344	
642	0	29338	
643	0	29356	
644	0	29436	
645	0	29516	
646	0	29616	
647	0	29720	
648	0	29824	
649	0	29912	
650	0	30012	
651	0	30048	
652	0	30008	
653	0	30004	
654	0	30004	
655	0	29992	
656	0	30000	
657	0	29984	
658	0	30000	
659	0	30028	
660	0	30032	
661	0	30016	
662	0	30064	
663	0	30136	
664	0	30200	
665	0	30268	
666	0	30312	
667	0	30320	
668	0	30318	
669	0	30340	
670	0	30400	
671	0	30432	
672	0	30436	
673	0	30450	
674	0	30420	
675	0	30472	
676	0	30488	
677	0	30484	
678	0	30472	
679	0	30508	
680	0	30528	
681	0	30584	
682	0	30634	
683	0	30688	
684	0	30696	
685	0	30740	
686	0	30764	
687	0	30828	
688	0	30852	
689	0	30872	
690	0	30888	
691	0	30880	
692	0	30872	
693	0	30844	
694	0	30856	
695	0	30880	
696	0	30864	
697	0	30804	
698	0	30744	
699	0	30704	
700	0	30736	
701	0	30776	
702	0	30788	
703	0	30824	
704	0	30864	
705	0	30928	
706	0	30988	
707	0	31028	
708	0	31084	
709	0	31172	
710	0	31248	
711	0	31268	
712	0	31264	
713	0	31216	
714	0	31168	
715	0	31140	
716	0	31124	
717	0	31104	
718	0	31088	
719	0	31092	
720	0	31132	
721	0	31128	
722	0	31112	
723	0	31128	
724	0	31164	
725	0	31208	
726	0	31240	
727	0	31256	
728	0	31268	
729	0	31280	
730	0	31316	
731	0	31344	
732	0	31266	
733	0	31224	
734	0	31192	
735	0	31156	
736	0	31132	
737	0	31092	
738	0	31080	
739	0	31064	
740	0	31052	
741	0	31016	
742	0	30996	
743	0	30996	
744	0	30952	
745	0	30996	
746	0	31048	
747	0	31112	
748	0	31160	
749	0	31200	
750	0	31252	
751	0	31308	
752	0	31312	
753	0	31292	
754	0	31240	
755	0	31136	
756	0	31056	
757	0	31016	
758	0	30944	
759	0	30860	
760	0	30884	
761	0	30948	
762	0	30980	
763	0	31016	
764	0	31072	
765	0	31152	
766	0	31200	
767	0	31228	
768	0	31260	
769	0	31288	
770	0	31332	
771	0	31354	
772	0	31376	
773	0	31392	
774	0	31346	
775	0	31308	
776	0	31300	
777	0	31220	
778	0	31160	
779	0	31124	
780	0	31106	
781	0	31052	
782	0	31048	
783	0	31092	
784	0	31160	
785	0	31212	
786	0	31268	
787	0	31336	
788	0	31400	
789	0	31458	
790	0	31480	
791	0	31452	
792	0	31444	
793	0	31436	
794	0	31388	
795	0	31328	
796	0	31284	
797	0	31260	
798	0	31204	
799	0	31164	
800	0	31136	
801	0	31110	
802	0	31116	
803	0	31136	
804	0	31180	
805	0	31240	
806	0	31320	
807	0	31432	
808	0	31492	
809	0	31524	
810	0	31524	
811	0	31528	
812	0	31528	
813	0	31508	
814	0	31472	
815	0	31488	
816	0	31484	
817	0	31468	
818	0	31472	
819	0	31424	
820	0	31368	
821	0	31344	
822	0	31328	
823	0	31328	
824	0	31336	
825	0	31376	
826	0	31416	
827	0	31468	
828	0	31520	
829	0	31612	
830	0	31736	
831	0	31788	
832	0	31752	
833	0	31712	
834	0	31688	
835	0	31676	
836	0	31668	
837	0	31662	
838	0	31616	
839	0	31536	
840	0	31456	
841	0	31460	
842	0	31532	
843	0	31560	
844	0	31594	
845	0	31680	
846	0	31744	
847	0	31796	
848	0	31824	
849	0	31868	
850	0	31868	
851	0	31832	
852	0	31800	
853	0	31808	
854	0	31784	
855	0	31712	
856	0	31664	
857	0	31632	
858	0	31612	
859	0	31600	
860	0	31604	
861	0	31616	
862	0	31648	
863	0	31720	
864	0	31812	
865	0	31884	
866	0	31948	
867	0	32008	
868	0	32044	
869	0	32080	
870	0	32096	
871	0	32070	
872	0	31992	
873	0	31932	
874	0	31864	
875	0	31844	
876	0	31832	
877	0	31800	
878	0	31772	
879	0	31756	
880	0	31744	
881	0	31776	
882	0	31816	
883	0	31872	
884	0	31920	
885	0	31996	
886	0	32028	
887	0	31986	
888	0	31988	
889	0	32000	
890	0	32080	
891	0	32164	
892	0	32192	
893	0	32204	
894	0	32168	
895	0	32076	
896	0	32016	
897	0	31976	
898	0	31952	
899	0	31952	
900	0	31976	
901	0	32024	
902	0	32076	
903	0	32116	
904	0	32208	
905	0	32300	
906	0	32400	
907	0	32456	
908	0	32504	
909	0	32544	
910	0	32564	
911	0	32488	
912	0	32448	
913	0	32398	
914	0	32328	
915	0	32252	
916	0	32236	
917	0	32240	
918	0	32232	
919	0	32204	
920	0	32164	
921	0	32164	
922	0	32193	
923	0	32268	
924	0	32332	
925	0	32372	
926	0	32400	
927	0	32428	
928	0	32448	
929	0	32416	
930	0	32412	
931	0	32396	
932	0	32408	
933	0	32416	
934	0	32396	
935	0	32384	
936	0	32376	
937	0	32328	
938	0	32320	
939	0	32324	
940	0	32300	
941	0	32352	
942	0	32369	
943	0	32356	
944	0	32272	
945	0	32264	
946	0	32312	
947	0	32460	
948	0	32602	
949	0	32704	
950	0	32772	
951	0	32840	
952	0	32850	
953	0	32852	
954	0	32828	
955	0	32808	
956	0	32864	
957	0	32984	
958	0	33092	
959	0	33172	
960	0	33256	
961	0	33328	
962	0	33386	
963	0	33400	
964	0	33460	
965	0	33528	
966	0	33568	
967	0	33540	
968	0	33460	
969	0	33344	
970	0	33184	
971	0	33100	
972	0	33096	
973	0	33104	
974	0	33096	
975	0	33036	
976	0	32992	
977	0	32948	
978	0	33012	
979	0	33244	
980	0	33568	
981	0	33952	
982	0	34316	
983	0	34604	
984	0	34872	
985	0	35100	
986	0	35280	
987	0	35428	
988	0	35536	
989	0	35680	
990	0	35752	
991	0	35720	
992	0	35616	
993	0	35432	
994	0	35220	
995	0	35008	
996	0	34846	
997	0	34700	
998	0	34536	
999	0	34348	
1000	0	34168	
1001	0	34060	
1002	0	33964	
1003	0	33856	
1004	0	33768	
1005	0	33736	
1006	0	33700	
1007	0	33660	
1008	0	33600	
1009	0	33520	
1010	0	33448	
1011	0	33380	
1012	0	33304	
1013	0	33140	
1014	0	32920	
1015	0	32756	
1016	0	32628	
1017	0	32560	
1018	0	32440	
1019	0	32320	
1020	0	32200	
1021	0	32108	
1022	0	32032	
1023	0	31968	
1024	0	31928	
1025	0	31872	
1026	0	31836	
1027	0	31820	
1028	0	31784	
1029	0	31720	
1030	0	31632	
1031	0	31532	
1032	0	31450	
1033	0	31364	
1034	0	31292	
1035	0	31220	
1036	0	31092	
1037	0	31024	
1038	0	30984	
1039	0	30968	
1040	0	30960	
1041	0	30980	
1042	0	31028	
1043	0	31040	
1044	0	31020	
1045	0	31036	
1046	0	31096	
1047	0	31152	
1048	0	31232	
1049	0	31320	
1050	0	31408	
1051	0	31504	
1052	0	31520	
1053	0	31516	
1054	0	31476	
1055	0	31424	
1056	0	31364	
1057	0	31320	
1058	0	31328	
1059	0	31348	
1060	0	31300	
1061	0	31288	
1062	0	31324	
1063	0	31360	
1064	0	31392	
1065	0	31468	
1066	0	31564	
1067	0	31684	
1068	0	31796	
1069	0	31856	
1070	0	31888	
1071	0	31872	
1072	0	31772	
1073	0	31600	
1074	0	31336	
1075	0	31056	
1076	0	30696	
1077	0	30168	
1078	0	29448	
1079	0	28816	
1080	0	28384	
1081	0	28140	
1082	0	28128	
1083	0	28336	
1084	0	28796	
1085	0	29492	
1086	0	30460	
1087	0	31636	
1088	0	32864	
1089	0	34216	
1090	0	35768	
1091	0	37336	
1092	0	39020	
1093	0	41114	
1094	0	43632	
1095	0	46568	
1096	0	49816	
1097	0	53172	
1098	0	56480	
1099	0	59696	
1100	0	62516	
1101	0	64064	
1102	0	64860	
1103	0	65216	
1104	0	65380	
1105	0	65372	
1106	0	65328	
1107	0	65236	
1108	0	65136	
1109	0	64992	
1110	0	64888	
1111	0	59040	
1112	0	53836	
1113	0	49496	
1114	0	45888	
1115	0	42776	
1116	0	40104	
1117	0	37728	
1118	0	35616	
1119	0	33736	
1120	0	31968	
1121	0	30380	
1122	0	28812	
1123	0	27516	
1124	0	26644	
1125	0	26128	
1126	0	25916	
1127	0	25892	
1128	0	25988	
1129	0	26146	
1130	0	26184	
1131	0	26132	
1132	0	26180	
1133	0	26316	
1134	0	26544	
1135	0	26752	
1136	0	26956	
1137	0	27184	
1138	0	27452	
1139	0	27740	
1140	0	28020	
1141	0	28360	
1142	0	28644	
1143	0	28878	
1144	0	29140	
1145	0	29360	
1146	0	29468	
1147	0	29512	
1148	0	29580	
1149	0	29640	
1150	0	29760	
1151	0	29848	
1152	0	29824	
1153	0	29772	
1154	0	29708	
1155	0	29634	
1156	0	29585	
1157	0	29572	
1158	0	29532	
1159	0	29492	
1160	0	29468	
1161	0	29474	
1162	0	29544	
1163	0	29580	
1164	0	29676	
1165	0	29786	
1166	0	29936	
1167	0	30004	
1168	0	30028	
1169	0	30084	
1170	0	30152	
1171	0	30176	
1172	0	30196	
1173	0	30236	
1174	0	30284	
1175	0	30264	
1176	0	30232	
1177	0	30232	
1178	0	30208	
1179	0	30240	
1180	0	30280	
1181	0	30314	
1182	0	30372	
1183	0	30412	
1184	0	30480	
1185	0	30544	
1186	0	30608	
1187	0	30688	
1188	0	30804	
1189	0	30906	
1190	0	31000	
1191	0	31028	
1192	0	31060	
1193	0	31136	
1194	0	31188	
1195	0	31216	
1196	0	31220	
1197	0	31212	
1198	0	31224	
1199	0	31240	
1200	0	31296	
1201	0	31388	
1202	0	31488	
1203	0	31620	
1204	0	31706	
1205	0	31764	
1206	0	31864	
1207	0	31984	
1208	0	32036	
1209	0	32096	
1210	0	32200	
1211	0	32296	
1212	0	32300	
1213	0	32264	
1214	0	32244	
1215	0	32216	
1216	0	32216	
1217	0	32280	
1218	0	32336	
1219	0	32380	
1220	0	32480	
1221	0	32576	
1222	0	32596	
1223	0	32604	
1224	0	32648	
1225	0	32688	
1226	0	32704	
1227	0	32772	
1228	0	32856	
1229	0	32920	
1230	0	33016	
1231	0	33096	
1232	0	33150	
1233	0	33148	
1234	0	33144	
1235	0	33136	
1236	0	33116	
1237	0	33164	
1238	0	33218	
1239	0	33276	
1240	0	33326	
1241	0	33368	
1242	0	33372	
1243	0	33432	
1244	0	33528	
1245	0	33664	
1246	0	33744	
1247	0	33836	
1248	0	33920	
1249	0	33940	
1250	0	33992	
1251	0	34080	
1252	0	34168	
1253	0	34192	
1254	0	34272	
1255	0	34384	
1256	0	34384	
1257	0	34376	
1258	0	34372	
1259	0	34374	
1260	0	34400	
1261	0	34392	
1262	0	34424	
1263	0	34588	
1264	0	34660	
1265	0	34692	
1266	0	34784	
1267	0	34914	
1268	0	35004	
1269	0	35024	
1270	0	35040	
1271	0	35116	
1272	0	35194	
1273	0	35336	
1274	0	35404	
1275	0	35448	
1276	0	35452	
1277	0	35460	
1278	0	35528	
1279	0	35616	
1280	0	35728	
1281	0	35800	
1282	0	35868	
1283	0	35996	
1284	0	36164	
1285	0	36224	
1286	0	36286	
1287	0	36372	
1288	0	36436	
1289	0	36560	
1290	0	36768	
1291	0	36928	
1292	0	37112	
1293	0	37244	
1294	0	37290	
1295	0	37280	
1296	0	37336	
1297	0	37412	
1298	0	37412	
1299	0	37460	
1300	0	37510	
1301	0	37524	
1302	0	37568	
1303	0	37640	
1304	0	37708	
1305	0	37834	
1306	0	37992	
1307	0	38156	
1308	0	38284	
1309	0	38382	
1310	0	38464	
1311	0	38556	
1312	0	38648	
1313	0	38704	
1314	0	38708	
1315	0	38728	
1316	0	38728	
1317	0	38752	
1318	0	38792	
1319	0	38816	
1320	0	38858	
1321	0	38892	
1322	0	38912	
1323	0	38880	
1324	0	38864	
1325	0	38924	
1326	0	38972	
1327	0	38996	
1328	0	39012	
1329	0	38984	
1330	0	38968	
1331	0	38968	
1332	0	38932	
1333	0	38812	
1334	0	38688	
1335	0	38568	
1336	0	38524	
1337	0	38472	
1338	0	38436	
1339	0	38432	
1340	0	38416	
1341	0	38376	
1342	0	38292	
1343	0	38212	
1344	0	38176	
1345	0	38188	
1346	0	38116	
1347	0	38040	
1348	0	37980	
1349	0	37960	
1350	0	37888	
1351	0	37760	
1352	0	37608	
1353	0	37412	
1354	0	37136	
1355	0	36800	
1356	0	36568	
1357	0	36308	
1358	0	36048	
1359	0	35840	
1360	0	35612	
1361	0	35392	
1362	0	35176	
1363	0	34936	
1364	0	34718	
1365	0	34552	
1366	0	34392	
1367	0	34256	
1368	0	34112	
1369	0	33872	
1370	0	33608	
1371	0	33344	
1372	0	33056	
1373	0	32772	
1374	0	32512	
1375	0	32300	
1376	0	32076	
1377	0	31876	
1378	0	31676	
1379	0	31432	
1380	0	31232	
1381	0	31084	
1382	0	30944	
1383	0	30780	
1384	0	30632	
1385	0	30448	
1386	0	30344	
1387	0	30288	
1388	0	30256	
1389	0	30160	
1390	0	30084	
1391	0	30018	
1392	0	29978	
1393	0	29828	
1394	0	29612	
1395	0	29512	
1396	0	29424	
1397	0	29256	
1398	0	29108	
1399	0	28976	
1400	0	28812	
1401	0	28696	
1402	0	28569	
1403	0	28508	
1404	0	28504	
1405	0	28528	
1406	0	28528	
1407	0	28544	
1408	0	28528	
1409	0	28536	
1410	0	28564	
1411	0	28564	
1412	0	28536	
1413	0	28560	
1414	0	28504	
1415	0	28446	
1416	0	28368	
1417	0	28320	
1418	0	28336	
1419	0	28344	
1420	0	28346	
1421	0	28364	
1422	0	28448	
1423	0	28528	
1424	0	28600	
1425	0	28600	
1426	0	28624	
1427	0	28696	
1428	0	28728	
1429	0	28776	
1430	0	28802	
1431	0	28840	
1432	0	28864	
1433	0	28872	
1434	0	28880	
1435	0	28864	
1436	0	28860	
1437	0	28860	
1438	0	28832	
1439	0	28832	
1440	0	28856	
1441	0	28952	
1442	0	29026	
1443	0	29136	
1444	0	29176	
1445	0	29192	
1446	0	29256	
1447	0	29344	
1448	0	29460	
1449	0	29548	
1450	0	29632	
1451	0	29632	
1452	0	29588	
1453	0	29664	
1454	0	29656	
1455	0	29588	
1456	0	29536	
1457	0	29536	
1458	0	29604	
1459	0	29646	
1460	0	29724	
1461	0	29780	
1462	0	29840	
1463	0	29924	
1464	0	29968	
1465	0	30012	
1466	0	30112	
1467	0	30184	
1468	0	30284	
1469	0	30388	
1470	0	30476	
1471	0	30520	
1472	0	30524	
1473	0	30448	
1474	0	30388	
1475	0	30400	
1476	0	30392	
1477	0	30408	
1478	0	30476	
1479	0	30580	
1480	0	30664	
1481	0	30736	
1482	0	30780	
1483	0	30744	
1484	0	30688	
1485	0	30724	
1486	0	30808	
1487	0	30914	
1488	0	31004	
1489	0	31072	
1490	0	31216	
1491	0	31320	
1492	0	31328	
1493	0	31244	
1494	0	31184	
1495	0	31192	
1496	0	31176	
1497	0	31132	
1498	0	31072	
1499	0	31092	
1500	0	31148	
1501	0	31188	
1502	0	31220	
1503	0	31220	
1504	0	31216	
1505	0	31252	
1506	0	31344	
1507	0	31476	
1508	0	31624	
1509	0	31808	
1510	0	31952	
1511	0	32008	
1512	0	32064	
1513	0	32020	
1514	0	31928	
1515	0	31828	
1516	0	31764	
1517	0	31708	
1518	0	31660	
1519	0	31668	
1520	0	31672	
1521	0	31668	
1522	0	31680	
1523	0	31760	
1524	0	31848	
1525	0	31944	
1526	0	32016	
1527	0	32064	
1528	0	32124	
1529	0	32144	
1530	0	32148	
1531	0	32100	
1532	0	32084	
1533	0	32044	
1534	0	32028	
1535	0	31924	
1536	0	31804	
1537	0	31684	
1538	0	31600	
1539	0	31562	
1540	0	31552	
1541	0	31572	
1542	0	31600	
1543	0	31692	
1544	0	31748	
1545	0	31800	
1546	0	31896	
1547	0	31992	
1548	0	32092	
1549	0	32080	
1550	0	32064	
1551	0	32064	
1552	0	32012	
1553	0	31920	
1554	0	31808	
1555	0	31729	
1556	0	31716	
1557	0	31696	
1558	0	31676	
1559	0	31716	
1560	0	31740	
1561	0	31776	
1562	0	31912	
1563	0	32004	
1564	0	32044	
1565	0	32116	
1566	0	32180	
1567	0	32228	
1568	0	32212	
1569	0	32144	
1570	0	32140	
1571	0	32100	
1572	0	31972	
1573	0	31960	
1574	0	31944	
1575	0	31870	
1576	0	31752	
1577	0	31672	
1578	0	31722	
1579	0	31776	
1580	0	31772	
1581	0	31752	
1582	0	31752	
1583	0	31784	
1584	0	31840	
1585	0	31932	
1586	0	32032	
1587	0	32072	
1588	0	32088	
1589	0	32124	
1590	0	32152	
1591	0	32184	
1592	0	32132	
1593	0	32024	
1594	0	31948	
1595	0	31924	
1596	0	31868	
1597	0	31736	
1598	0	31680	
1599	0	31672	
1600	0	31656	
1601	0	31688	
1602	0	31734	
1603	0	31764	
1604	0	31800	
1605	0	31848	
1606	0	31876	
1607	0	31936	
1608	0	32064	
1609	0	32104	
1610	0	32116	
1611	0	32160	
1612	0	32140	
1613	0	32096	
1614	0	32064	
1615	0	31984	
1616	0	31872	
1617	0	31872	
1618	0	31886	
1619	0	31840	
1620	0	31752	
1621	0	31848	
1622	0	31920	
1623	0	31928	
1624	0	31960	
1625	0	32064	
1626	0	32172	
1627	0	32240	
1628	0	32208	
1629	0	32200	
1630	0	32204	
1631	0	32240	
1632	0	32290	
1633	0	32344	
1634	0	32404	
1635	0	32360	
1636	0	32352	
1637	0	32204	
1638	0	32136	
1639	0	31996	
1640	0	31848	
1641	0	31792	
1642	0	31896	
1643	0	31952	
1644	0	32052	
1645	0	32160	
1646	0	32288	
1647	0	32380	
1648	0	32460	
1649	0	32500	
1650	0	32460	
1651	0	32498	
1652	0	32484	
1653	0	32480	
1654	0	32456	
1655	0	32448	
1656	0	32328	
1657	0	32314	
1658	0	32276	
1659	0	32236	
1660	0	32210	
1661	0	32072	
1662	0	32040	
1663	0	32244	
1664	0	32360	
1665	0	32446	
1666	0	32580	
1667	0	32544	
1668	0	32528	
1669	0	32584	
1670	0	32608	
1671	0	32644	
1672	0	32672	
1673	0	32664	
1674	0	32560	
1675	0	32476	
1676	0	32376	
1677	0	32260	
1678	0	32168	
1679	0	32084	
1680	0	32072	
1681	0	32132	
1682	0	32192	
1683	0	32272	
1684	0	32368	
1685	0	32396	
1686	0	32372	
1687	0	32368	
1688	0	32424	
1689	0	32416	
1690	0	32408	
1691	0	32418	
1692	0	32432	
1693	0	32424	
1694	0	32424	
1695	0	32444	
1696	0	32428	
1697	0	32396	
1698	0	32432	
1699	0	32512	
1700	0	32580	
1701	0	32564	
1702	0	32508	
1703	0	32512	
1704	0	32572	
1705	0	32588	
1706	0	32636	
1707	0	32776	
1708	0	32844	
1709	0	32888	
1710	0	32928	
1711	0	32960	
1712	0	33036	
1713	0	33112	
1714	0	33224	
1715	0	33352	
1716	0	33328	
1717	0	33264	
1718	0	33294	
1719	0	33304	
1720	0	33288	
1721	0	33260	
1722	0	33216	
1723	0	33196	
1724	0	33232	
1725	0	33256	
1726	0	33240	
1727	0	33232	
1728	0	33268	
1729	0	33336	
1730	0	33356	
1731	0	33380	
1732	0	33428	
1733	0	33588	
1734	0	33860	
1735	0	34176	
1736	0	34522	
1737	0	34784	
1738	0	34928	
1739	0	34936	
1740	0	34876	
1741	0	34888	
1742	0	35052	
1743	0	35264	
1744	0	35416	
1745	0	35524	
1746	0	35544	
1747	0	35560	
1748	0	35588	
1749	0	35552	
1750	0	35476	
1751	0	35400	
1752	0	35304	
1753	0	35176	
1754	0	34976	
1755	0	34768	
1756	0	34624	
1757	0	34476	
1758	0	34348	
1759	0	34220	
1760	0	34188	
1761	0	33988	
1762	0	33800	
1763	0	33632	
1764	0	33504	
1765	0	33376	
1766	0	33368	
1767	0	33440	
1768	0	33400	
1769	0	33264	
1770	0	33128	
1771	0	32968	
1772	0	32884	
1773	0	32896	
1774	0	32768	
1775	0	32532	
1776	0	32328	
1777	0	32176	
1778	0	32040	
1779	0	31940	
1780	0	31792	
1781	0	31764	
1782	0	31728	
1783	0	31704	
1784	0	31680	
1785	0	31700	
1786	0	31724	
1787	0	31676	
1788	0	31676	
1789	0	31548	
1790	0	31488	
1791	0	31568	
1792	0	31616	
1793	0	31560	
1794	0	31468	
1795	0	31424	
1796	0	31400	
1797	0	31344	
1798	0	31240	
1799	0	31140	
1800	0	31061	
1801	0	31048	
1802	0	31124	
1803	0	31124	
1804	0	31140	
1805	0	31200	
1806	0	31288	
1807	0	31364	
1808	0	31496	
1809	0	31628	
1810	0	31772	
1811	0	31884	
1812	0	31952	
1813	0	31992	
1814	0	31984	
1815	0	31952	
1816	0	31892	
1817	0	31840	
1818	0	31800	
1819	0	31780	
1820	0	31800	
1821	0	31904	
1822	0	31896	
1823	0	31856	
1824	0	31904	
1825	0	31988	
1826	0	32128	
1827	0	32208	
1828	0	32128	
1829	0	32028	
1830	0	32012	
1831	0	31888	
1832	0	31580	
1833	0	31146	
1834	0	30632	
1835	0	30056	
1836	0	29518	
1837	0	29152	
1838	0	29008	
1839	0	29000	
1840	0	29168	
1841	0	29600	
1842	0	30310	
1843	0	31248	
1844	0	32356	
1845	0	33568	
1846	0	34900	
1847	0	36408	
1848	0	38096	
1849	0	39920	
1850	0	42024	
1851	0	44488	
1852	0	47316	
1853	0	50188	
1854	0	53044	
1855	0	55944	
1856	0	58716	
1857	0	61392	
1858	0	63048	
1859	0	63912	
1860	0	64300	
1861	0	64468	
1862	0	64492	
1863	0	64460	
1864	0	64380	
1865	0	64280	
1866	0	62192	
1867	0	56552	
1868	0	51168	
1869	0	46228	
1870	0	42048	
1871	0	38760	
1872	0	36244	
1873	0	34368	
1874	0	32960	
1875	0	31864	
1876	0	30912	
1877	0	29948	
1878	0	28818	
1879	0	27764	
1880	0	26816	
1881	0	26096	
1882	0	25664	
1883	0	25536	
1884	0	25512	
1885	0	25600	
1886	0	25674	
1887	0	25652	
1888	0	25560	
1889	0	25552	
1890	0	25740	
1891	0	26032	
1892	0	26420	
1893	0	26802	
1894	0	27168	
1895	0	27516	
1896	0	27872	
1897	0	28268	
1898	0	28608	
1899	0	28948	
1900	0	29248	
1901	0	29512	
1902	0	29728	
1903	0	29936	
1904	0	30188	
1905	0	30442	
1906	0	30560	
1907	0	30592	
1908	0	30626	
1909	0	30648	
1910	0	30656	
1911	0	30584	
1912	0	30624	
1913	0	30612	
1914	0	30560	
1915	0	30544	
1916	0	30552	
1917	0	30584	
1918	0	30670	
1919	0	30720	
1920	0	30752	
1921	0	30824	
1922	0	30900	
1923	0	30964	
1924	0	30996	
1925	0	30980	
1926	0	30978	
1927	0	31080	
1928	0	31176	
1929	0	31256	
1930	0	31300	
1931	0	31320	
1932	0	31372	
1933	0	31376	
1934	0	31372	
1935	0	31360	
1936	0	31386	
1937	0	31436	
1938	0	31472	
1939	0	31448	
1940	0	31448	
1941	0	31488	
1942	0	31548	
1943	0	31578	
1944	0	31680	
1945	0	31832	
1946	0	31924	
1947	0	31956	
1948	0	31978	
1949	0	32004	
1950	0	32064	
1951	0	32144	
1952	0	32180	
1953	0	32140	
1954	0	32116	
1955	0	32094	
1956	0	32076	
1957	0	32124	
1958	0	32160	
1959	0	32208	
1960	0	32208	
1961	0	32220	
1962	0	32246	
1963	0	32340	
1964	0	32472	
1965	0	32560	
1966	0	32660	
1967	0	32762	
1968	0	32848	
1969	0	32864	
1970	0	32868	
1971	0	32952	
1972	0	32996	
1973	0	32984	
1974	0	32912	
1975	0	32868	
1976	0	32944	
1977	0	33002	
1978	0	33004	
1979	0	32944	
1980	0	32908	
1981	0	32912	
1982	0	32904	
1983	0	32940	
1984	0	33052	
1985	0	33192	
1986	0	33306	
1987	0	33328	
1988	0	33346	
1989	0	33408	
1990	0	33448	
1991	0	33444	
1992	0	33420	
1993	0	33528	
1994	0	33664	
1995	0	33660	
1996	0	33620	
1997	0	33580	
1998	0	33576	
1999	0	33592	
2000	0	33692	
2001	0	33788	
2002	0	33832	
2003	0	33900	
2004	0	33988	
2005	0	34072	
2006	0	34196	
2007	0	34312	
2008	0	34384	
2009	0	34368	
2010	0	34368	
2011	0	34358	
2012	0	34340	
2013	0	34352	
2014	0	34346	
2015	0	34378	
2016	0	34384	
2017	0	34424	
2018	0	34480	
2019	0	34564	
2020	0	34632	
2021	0	34692	
2022	0	34780	
2023	0	34824	
2024	0	34884	
2025	0	35000	
2026	0	35120	
2027	0	35168	
2028	0	35248	
2029	0	35328	
2030	0	35400	
2031	0	35532	
2032	0	35580	
2033	0	35592	
2034	0	35624	
2035	0	35664	
2036	0	35728	
2037	0	35752	
2038	0	35832	
2039	0	35932	
2040	0	36040	
2041	0	36120	
2042	0	36244	
2043	0	36328	
2044	0	36376	
2045	0	36408	
2046	0	36476	
2047	0	36600	
2048	0	36740	
2049	0	36880	
2050	0	37008	
2051	0	37096	
2052	0	37186	
2053	0	37288	
2054	0	37328	
2055	0	37376	
2056	0	37452	
2057	0	37568	
2058	0	37648	
2059	0	37708	
2060	0	37776	
2061	0	37872	
2062	0	37976	
2063	0	38048	
2064	0	38144	
2065	0	38240	
2066	0	38344	
2067	0	38444	
2068	0	38512	
2069	0	38620	
2070	0	38708	
2071	0	38744	
2072	0	38788	
2073	0	38820	
2074	0	38792	
2075	0	38800	
2076	0	38800	
2077	0	38876	
2078	0	38944	
2079	0	38916	
2080	0	38888	
2081	0	38864	
2082	0	38848	
2083	0	38840	
2084	0	38824	
2085	0	38860	
2086	0	38896	
2087	0	38964	
2088	0	38968	
2089	0	38960	
2090	0	38972	
2091	0	38900	
2092	0	38776	
2093	0	38688	
2094	0	38684	
2095	0	38660	
2096	0	38648	
2097	0	38620	
2098	0	38544	
2099	0	38420	
2100	0	38252	
2101	0	38120	
2102	0	38020	
2103	0	37946	
2104	0	37884	
2105	0	37784	
2106	0	37648	
2107	0	37532	
2108	0	37392	
2109	0	37196	
2110	0	37016	
2111	0	36776	
2112	0	36516	
2113	0	36272	
2114	0	35972	
2115	0	35648	
2116	0	35392	
2117	0	35154	
2118	0	34904	
2119	0	34624	
2120	0	34356	
2121	0	34120	
2122	0	33884	
2123	0	33688	
2124	0	33452	
2125	0	33224	
2126	0	33016	
2127	0	32824	
2128	0	32592	
2129	0	32440	
2130	0	32280	
2131	0	32112	
2132	0	31896	
2133	0	31616	
2134	0	31348	
2135	0	31044	
2136	0	30844	
2137	0	30648	
2138	0	30420	
2139	0	30204	
2140	0	29986	
2141	0	29840	
2142	0	29736	
2143	0	29668	
2144	0	29552	
2145	0	29488	
2146	0	29444	
2147	0	29432	
2148	0	29356	
2149	0	29200	
2150	0	29060	
2151	0	28944	
2152	0	28832	
2153	0	28724	
2154	0	28644	
2155	0	28568	
2156	0	28440	
2157	0	28276	
2158	0	28104	
2159	0	28000	
2160	0	27912	
2161	0	27818	
2162	0	27792	
2163	0	27772	
2164	0	27778	
2165	0	27800	
2166	0	27868	
2167	0	27944	
2168	0	28016	
2169	0	28028	
2170	0	27996	
2171	0	27956	
2172	0	27928	
2173	0	27928	
2174	0	27912	
2175	0	27868	
2176	0	27840	
2177	0	27824	
2178	0	27796	
2179	0	27768	
2180	0	27770	
2181	0	27820	
2182	0	27864	
2183	0	27904	
2184	0	27912	
2185	0	27924	
2186	0	27956	
2187	0	28000	
2188	0	28068	
2189	0	28176	
2190	0	28240	
2191	0	28228	
2192	0	28160	
2193	0	28138	
2194	0	28144	
2195	0	28164	
2196	0	28208	
2197	0	28268	
2198	0	28300	
2199	0	28360	
2200	0	28374	
2201	0	28368	
2202	0	28400	
2203	0	28488	
2204	0	28552	
2205	0	28628	
2206	0	28706	
2207	0	28756	
2208	0	28816	
2209	0	28912	
2210	0	28968	
2211	0	28976	
2212	0	29008	
2213	0	29004	
2214	0	29048	
2215	0	29000	
2216	0	28980	
2217	0	28984	
2218	0	29044	
2219	0	29096	
2220	0	29112	
2221	0	29120	
2222	0	29146	
2223	0	29172	
2224	0	29188	
2225	0	29312	
2226	0	29464	
2227	0	29604	
2228	0	29704	
2229	0	29796	
2230	0	29828	
2231	0	29792	
2232	0	29784	
2233	0	29772	
2234	0	29708	
2235	0	29654	
2236	0	29672	
2237	0	29688	
2238	0	29696	
2239	0	29728	
2240	0	29788	
2241	0	29892	
2242	0	29948	
2243	0	29928	
2244	0	29960	
2245	0	30008	
2246	0	30064	
2247	0	30176	
2248	0	30300	
2249	0	30392	
2250	0	30472	
2251	0	30532	
2252	0	30568	
2253	0	30604	
2254	0	30616	
2255	0	30656	
2256	0	30700	
2257	0	30682	
2258	0	30676	
2259	0	30682	
2260	0	30696	
2261	0	30704	
2262	0	30700	
2263	0	30672	
2264	0	30660	
2265	0	30672	
2266	0	30720	
2267	0	30762	
2268	0	30816	
2269	0	30836	
2270	0	30816	
2271	0	30800	
2272	0	30872	
2273	0	30976	
2274	0	31016	
2275	0	31028	
2276	0	31008	
2277	0	30928	
2278	0	30928	
2279	0	30928	
2280	0	30916	
2281	0	30888	
2282	0	30936	
2283	0	31056	
2284	0	31208	
2285	0	31280	
2286	0	31376	
2287	0	31520	
2288	0	31552	
2289	0	31452	
2290	0	31320	
2291	0	31260	
2292	0	31228	
2293	0	31162	
2294	0	31124	
2295	0	31084	
2296	0	31028	
2297	0	30960	
2298	0	30912	
2299	0	30922	
2300	0	30932	
2301	0	30956	
2302	0	30996	
2303	0	31040	
2304	0	31092	
2305	0	31124	
2306	0	31184	
2307	0	31336	
2308	0	31416	
2309	0	31412	
2310	0	31424	
2311	0	31388	
2312	0	31316	
2313	0	31284	
2314	0	31228	
2315	0	31138	
2316	0	31104	
2317	0	31040	
2318	0	30984	
2319	0	30960	
2320	0	30908	
2321	0	30920	
2322	0	30952	
2323	0	30968	
2324	0	30976	
2325	0	31000	
2326	0	31036	
2327	0	31040	
2328	0	31092	
2329	0	31136	
2330	0	31208	
2331	0	31242	
2332	0	31272	
2333	0	31234	
2334	0	31168	
2335	0	31108	
2336	0	31040	
2337	0	30964	
2338	0	30908	
2339	0	30876	
2340	0	30868	
2341	0	30900	
2342	0	30928	
2343	0	30944	
2344	0	30972	
2345	0	30988	
2346	0	30980	
2347	0	30976	
2348	0	31020	
2349	0	31068	
2350	0	31096	
2351	0	31120	
2352	0	31160	
2353	0	31120	
2354	0	31064	
2355	0	30980	
2356	0	30952	
2357	0	30932	
2358	0	30914	
2359	0	30936	
2360	0	30904	
2361	0	30872	
2362	0	30848	
2363	0	30864	
2364	0	30894	
2365	0	30944	
2366	0	30996	
2367	0	31028	
2368	0	31040	
2369	0	31060	
2370	0	31028	
2371	0	31000	
2372	0	31016	
2373	0	31068	
2374	0	31052	
2375	0	30976	
2376	0	30904	
2377	0	30832	
2378	0	30816	
2379	0	30784	
2380	0	30768	
2381	0	30756	
2382	0	30744	
2383	0	30844	
2384	0	30952	
2385	0	31000	
2386	0	30984	
2387	0	31036	
2388	0	31080	
2389	0	31140	
2390	0	31204	
2391	0	31252	
2392	0	31232	
2393	0	31176	
2394	0	31160	
2395	0	31168	
2396	0	31120	
2397	0	31088	
2398	0	31028	
2399	0	30948	
2400	0	30888	
2401	0	30908	
2402	0	30996	
2403	0	31092	
2404	0	31160	
2405	0	31172	
2406	0	31146	
2407	0	31136	
2408	0	31104	
2409	0	31052	
2410	0	31064	
2411	0	31088	
2412	0	31068	
2413	0	31072	
2414	0	31084	
2415	0	30996	
2416	0	30936	
2417	0	30920	
2418	0	30884	
2419	0	30844	
2420	0	30788	
2421	0	30778	
2422	0	30778	
2423	0	30804	
2424	0	30848	
2425	0	30912	
2426	0	30980	
2427	0	31048	
2428	0	31168	
2429	0	31280	
2430	0	31372	
2431	0	31464	
2432	0	31532	
2433	0	31608	
2434	0	31612	
2435	0	31564	
2436	0	31532	
2437	0	31592	
2438	0	31664	
2439	0	31720	
2440	0	31812	
2441	0	31912	
2442	0	32032	
2443	0	32112	
2444	0	32176	
2445	0	32200	
2446	0	32184	
2447	0	32148	
2448	0	32140	
2449	0	32168	
2450	0	32180	
2451	0	32184	
2452	0	32244	
2453	0	32284	
2454	0	32280	
2455	0	32220	
2456	0	32132	
2457	0	32100	
2458	0	32142	
2459	0	32290	
2460	0	32548	
2461	0	32836	
2462	0	33152	
2463	0	33484	
2464	0	33716	
2465	0	33904	
2466	0	34132	
2467	0	34344	
2468	0	34564	
2469	0	34720	
2470	0	34740	
2471	0	34688	
2472	0	34600	
2473	0	34460	
2474	0	34324	
2475	0	34188	
2476	0	34006	
2477	0	33848	
2478	0	33704	
2479	0	33528	
2480	0	33340	
2481	0	33164	
2482	0	33048	
2483	0	32964	
2484	0	32904	
2485	0	32840	
2486	0	32776	
2487	0	32660	
2488	0	32538	
2489	0	32464	
2490	0	32404	
2491	0	32392	
2492	0	32352	
2493	0	32240	
2494	0	32098	
2495	0	31930	
2496	0	31776	
2497	0	31664	
2498	0	31552	
2499	0	31416	
2500	0	31316	
2501	0	31288	
2502	0	31304	
2503	0	31310	
2504	0	31352	
2505	0	31384	
2506	0	31312	
2507	0	31240	
2508	0	31172	
2509	0	31072	
2510	0	30984	
2511	0	30850	
2512	0	30768	
2513	0	30716	
2514	0	30700	
2515	0	30636	
2516	0	30592	
2517	0	30544	
2518	0	30484	
2519	0	30466	
2520	0	30476	
2521	0	30492	
2522	0	30496	
2523	0	30504	
2524	0	30528	
2525	0	30564	
2526	0	30592	
2527	0	30664	
2528	0	30720	
2529	0	30724	
2530	0	30724	
2531	0	30716	
2532	0	30752	
2533	0	30796	
2534	0	30816	
2535	0	30848	
2536	0	30884	
2537	0	30916	
2538	0	30922	
2539	0	30908	
2540	0	30884	
2541	0	30892	
2542	0	30874	
2543	0	30880	
2544	0	30940	
2545	0	31028	
2546	0	31100	
2547	0	31200	
2548	0	31260	
2549	0	31340	
2550	0	31408	
2551	0	31466	
2552	0	31476	
2553	0	31424	
2554	0	31332	
2555	0	31200	
2556	0	31012	
2557	0	30712	
2558	0	30268	
2559	0	29636	
2560	0	28992	
2561	0	28488	
2562	0	28228	
2563	0	28112	
2564	0	28100	
2565	0	28268	
2566	0	28640	
2567	0	29240	
2568	0	30144	
2569	0	31288	
2570	0	32468	
2571	0	33736	
2572	0	35160	
2573	0	36688	
2574	0	38272	
2575	0	40188	
2576	0	42452	
2577	0	45100	
2578	0	48152	
2579	0	51352	
2580	0	54516	
2581	0	57568	
2582	0	60536	
2583	0	62936	
2584	0	64244	
2585	0	64884	
2586	0	65184	
2587	0	65280	
2588	0	65256	
2589	0	65196	
2590	0	65100	
2591	0	64992	
2592	0	61584	
2593	0	55912	
2594	0	50560	
2595	0	45992	
2596	0	42292	
2597	0	39252	
2598	0	36776	
2599	0	34732	
2600	0	32972	
2601	0	31480	
2602	0	30080	
2603	0	28772	
2604	0	27496	
2605	0	26524	
2606	0	25840	
2607	0	25500	
2608	0	25368	
2609	0	25452	
2610	0	25642	
2611	0	25864	
2612	0	25948	
2613	0	25922	
2614	0	25972	
2615	0	26066	
2616	0	26194	
2617	0	26364	
2618	0	26596	
2619	0	26880	
2620	0	27168	
2621	0	27496	
2622	0	27862	
2623	0	28224	
2624	0	28592	
2625	0	28884	
2626	0	29144	
2627	0	29368	
2628	0	29512	
2629	0	29628	
2630	0	29732	
2631	0	29796	
2632	0	29832	
2633	0	29864	
2634	0	29792	
2635	0	29720	
2636	0	29684	
2637	0	29684	
2638	0	29664	
2639	0	29664	
2640	0	29688	
2641	0	29720	
2642	0	29744	
2643	0	29820	
2644	0	29928	
2645	0	29984	
2646	0	30000	
2647	0	30016	
2648	0	30092	
2649	0	30232	
2650	0	30384	
2651	0	30480	
2652	0	30568	
2653	0	30624	
2654	0	30624	
2655	0	30596	
2656	0	30588	
2657	0	30612	
2658	0	30672	
2659	0	30744	
2660	0	30774	
2661	0	30764	
2662	0	30804	
2663	0	30832	
2664	0	30808	
2665	0	30816	
2666	0	30900	
2667	0	31020	
2668	0	31104	
2669	0	31200	
2670	0	31296	
2671	0	31388	
2672	0	31468	
2673	0	31520	
2674	0	31508	
2675	0	31500	
2676	0	31468	
2677	0	31424	
2678	0	31372	
2679	0	31352	
2680	0	31376	
2681	0	31432	
2682	0	31496	
2683	0	31596	
2684	0	31748	
2685	0	31824	
2686	0	31884	
2687	0	31924	
2688	0	32004	
2689	0	32056	
2690	0	32128	
2691	0	32152	
2692	0	32140	
2693	0	32142	
2694	0	32148	
2695	0	32176	
2696	0	32160	
2697	0	32124	
2698	0	32152	
2699	0	32232	
2700	0	32288	
2701	0	32300	
2702	0	32304	
2703	0	32348	
2704	0	32440	
2705	0	32544	
2706	0	32636	
2707	0	32728	
2708	0	32788	
2709	0	32860	
2710	0	32952	
2711	0	33008	
2712	0	33056	
2713	0	33064	
2714	0	33028	
2715	0	32976	
2716	0	32949	
2717	0	32928	
2718	0	32948	
2719	0	33016	
2720	0	33072	
2721	0	33124	
2722	0	33118	
2723	0	33136	
2724	0	33220	
2725	0	33332	
2726	0	33468	
2727	0	33580	
2728	0	33706	
2729	0	33816	
2730	0	33932	
2731	0	34036	
2732	0	34112	
2733	0	34122	
2734	0	34112	
2735	0	34124	
2736	0	34176	
2737	0	34168	
2738	0	34164	
2739	0	34168	
2740	0	34164	
2741	0	34180	
2742	0	34192	
2743	0	34216	
2744	0	34280	
2745	0	34344	
2746	0	34436	
2747	0	34552	
2748	0	34684	
2749	0	34832	
2750	0	34964	
2751	0	35060	
2752	0	35108	
2753	0	35120	
2754	0	35184	
2755	0	35228	
2756	0	35260	
2757	0	35288	
2758	0	35308	
2759	0	35352	
2760	0	35420	
2761	0	35536	
2762	0	35632	
2763	0	35712	
2764	0	35836	
2765	0	36014	
2766	0	36144	
2767	0	36228	
2768	0	36344	
2769	0	36456	
2770	0	36552	
2771	0	36672	
2772	0	36792	
2773	0	36908	
2774	0	36952	
2775	0	36968	
2776	0	37020	
2777	0	37048	
2778	0	37092	
2779	0	37112	
2780	0	37176	
2781	0	37268	
2782	0	37316	
2783	0	37416	
2784	0	37512	
2785	0	37616	
2786	0	37780	
2787	0	37904	
2788	0	38000	
2789	0	38084	
2790	0	38180	
2791	0	38276	
2792	0	38348	
2793	0	38372	
2794	0	38432	
2795	0	38432	
2796	0	38412	
2797	0	38408	
2798	0	38408	
2799	0	38428	
2800	0	38460	
2801	0	38472	
2802	0	38504	
2803	0	38608	
2804	0	38708	
2805	0	38720	
2806	0	38676	
2807	0	38690	
2808	0	38732	
2809	0	38816	
2810	0	38840	
2811	0	38808	
2812	0	38748	
2813	0	38696	
2814	0	38596	
2815	0	38516	
2816	0	38464	
2817	0	38420	
2818	0	38364	
2819	0	38320	
2820	0	38284	
2821	0	38256	
2822	0	38168	
2823	0	38072	
2824	0	38032	
2825	0	38016	
2826	0	37968	
2827	0	37936	
2828	0	37884	
2829	0	37828	
2830	0	37704	
2831	0	37536	
2832	0	37364	
2833	0	37176	
2834	0	37008	
2835	0	36768	
2836	0	36516	
2837	0	36260	
2838	0	35994	
2839	0	35744	
2840	0	35472	
2841	0	35156	
2842	0	34864	
2843	0	34612	
2844	0	34416	
2845	0	34224	
2846	0	34068	
2847	0	33880	
2848	0	33728	
2849	0	33572	
2850	0	33328	
2851	0	33048	
2852	0	32730	
2853	0	32504	
2854	0	32240	
2855	0	31944	
2856	0	31664	
2857	0	31386	
2858	0	31178	
2859	0	30996	
2860	0	30794	
2861	0	30596	
2862	0	30384	
2863	0	30260	
2864	0	30208	
2865	0	30160	
2866	0	30090	
2867	0	29984	
2868	0	29840	
2869	0	29728	
2870	0	29592	
2871	0	29476	
2872	0	29388	
2873	0	29292	
2874	0	29208	
2875	0	29124	
2876	0	29032	
2877	0	28884	
2878	0	28756	
2879	0	28676	
2880	0	28608	
2881	0	28512	
2882	0	28392	
2883	0	28300	
2884	0	28272	
2885	0	28268	
2886	0	28272	
2887	0	28256	
2888	0	28272	
2889	0	28320	
2890	0	28364	
2891	0	28388	
2892	0	28396	
2893	0	28396	
2894	0	28372	
2895	0	28338	
2896	0	28276	
2897	0	28218	
2898	0	28200	
2899	0	28166	
2900	0	28156	
2901	0	28162	
2902	0	28172	
2903	0	28202	
2904	0	28224	
2905	0	28240	
2906	0	28268	
2907	0	28320	
2908	0	28376	
2909	0	28432	
2910	0	28528	
2911	0	28600	
2912	0	28672	
2913	0	28676	
2914	0	28620	
2915	0	28592	
2916	0	28532	
2917	0	28532	
2918	0	28560	
2919	0	28652	
2920	0	28712	
2921	0	28782	
2922	0	28832	
2923	0	28924	
2924	0	28976	
2925	0	28976	
2926	0	29012	
2927	0	29128	
2928	0	29224	
2929	0	29316	
2930	0	29394	
2931	0	29452	
2932	0	29528	
2933	0	29568	
2934	0	29534	
2935	0	29532	
2936	0	29544	
2937	0	29498	
2938	0	29480	
2939	0	29468	
2940	0	29496	
2941	0	29508	
2942	0	29612	
2943	0	29754	
2944	0	29832	
2945	0	29864	
2946	0	29900	
2947	0	30016	
2948	0	30164	
2949	0	30296	
2950	0	30348	
2951	0	30370	
2952	0	30400	
2953	0	30388	
2954	0	30368	
2955	0	30368	
2956	0	30384	
2957	0	30376	
2958	0	30360	
2959	0	30410	
2960	0	30456	
2961	0	30424	
2962	0	30444	
2963	0	30460	
2964	0	30490	
2965	0	30556	
2966	0	30644	
2967	0	30708	
2968	0	30832	
2969	0	30960	
2970	0	31028	
2971	0	31036	
2972	0	31048	
2973	0	31072	
2974	0	31072	
2975	0	31072	
2976	0	31036	
2977	0	31020	
2978	0	31024	
2979	0	31024	
2980	0	31032	
2981	0	31068	
2982	0	31156	
2983	0	31200	
2984	0	31248	
2985	0	31312	
2986	0	31384	
2987	0	31468	
2988	0	31520	
2989	0	31552	
2990	0	31584	
2991	0	31588	
2992	0	31592	
2993	0	31608	
2994	0	31584	
2995	0	31544	
2996	0	31512	
2997	0	31480	
2998	0	31488	
2999	0	31512	
3000	0	31552	
3001	0	31524	
3002	0	31522	
3003	0	31556	
3004	0	31588	
3005	0	31564	
3006	0	31632	
3007	0	31732	
3008	0	31826	
3009	0	31888	
3010	0	31884	
3011	0	31900	
3012	0	31884	
3013	0	31860	
3014	0	31802	
3015	0	31740	
3016	0	31704	
3017	0	31696	
3018	0	31664	
3019	0	31636	
3020	0	31592	
3021	0	31542	
3022	0	31620	
3023	0	31728	
3024	0	31792	
3025	0	31756	
3026	0	31748	
3027	0	31776	
3028	0	31832	
3029	0	31880	
3030	0	31912	
3031	0	31940	
3032	0	31944	
3033	0	31952	
3034	0	31952	
3035	0	31874	
3036	0	31820	
3037	0	31734	
3038	0	31662	
3039	0	31648	
3040	0	31636	
3041	0	31636	
3042	0	31652	
3043	0	31680	
3044	0	31700	
3045	0	31724	
3046	0	31788	
3047	0	31824	
3048	0	31884	
3049	0	31908	
3050	0	31892	
3051	0	31872	
3052	0	31840	
3053	0	31812	
3054	0	31832	
3055	0	31824	
3056	0	31744	
3057	0	31624	
3058	0	31544	
3059	0	31508	
3060	0	31496	
3061	0	31496	
3062	0	31536	
3063	0	31568	
3064	0	31608	
3065	0	31664	
3066	0	31692	
3067	0	31700	
3068	0	31752	
3069	0	31832	
3070	0	31868	
3071	0	31872	
3072	0	31880	
3073	0	31880	
3074	0	31856	
3075	0	31812	
3076	0	31784	
3077	0	31744	
3078	0	31692	
3079	0	31652	
3080	0	31552	
3081	0	31502	
3082	0	31524	
3083	0	31584	
3084	0	31632	
3085	0	31692	
3086	0	31744	
3087	0	31784	
3088	0	31804	
3089	0	31816	
3090	0	31840	
3091	0	31872	
3092	0	31880	
3093	0	31900	
3094	0	31904	
3095	0	31872	
3096	0	31872	
3097	0	31852	
3098	0	31800	
3099	0	31764	
3100	0	31728	
3101	0	31736	
3102	0	31772	
3103	0	31796	
3104	0	31852	
3105	0	31900	
3106	0	31960	
3107	0	31990	
3108	0	32040	
3109	0	32040	
3110	0	32058	
3111	0	32044	
3112	0	32020	
3113	0	32028	
3114	0	31976	
3115	0	31900	
3116	0	31896	
3117	0	31912	
3118	0	31888	
3119	0	31876	
3120	0	31812	
3121	0	31768	
3122	0	31768	
3123	0	31836	
3124	0	31892	
3125	0	31948	
3126	0	32020	
3127	0	32070	
3128	0	32104	
3129	0	32112	
3130	0	32152	
3131	0	32190	
3132	0	32216	
3133	0	32198	
3134	0	32180	
3135	0	32148	
3136	0	32112	
3137	0	32064	
3138	0	32026	
3139	0	32004	
3140	0	31972	
3141	0	31962	
3142	0	31952	
3143	0	32012	
3144	0	32052	
3145	0	32104	
3146	0	32180	
3147	0	32248	
3148	0	32296	
3149	0	32372	
3150	0	32436	
3151	0	32432	
3152	0	32360	
3153	0	32306	
3154	0	32260	
3155	0	32224	
3156	0	32216	
3157	0	32168	
3158	0	32148	
3159	0	32090	
3160	0	32024	
3161	0	32016	
3162	0	32032	
3163	0	32092	
3164	0	32184	
3165	0	32256	
3166	0	32380	
3167	0	32480	
3168	0	32556	
3169	0	32628	
3170	0	32668	
3171	0	32740	
3172	0	32784	
3173	0	32816	
3174	0	32864	
3175	0	32900	
3176	0	32912	
3177	0	33008	
3178	0	33068	
3179	0	33136	
3180	0	33252	
3181	0	33348	
3182	0	33440	
3183	0	33528	
3184	0	33568	
3185	0	33680	
3186	0	33786	
3187	0	33794	
3188	0	33708	
3189	0	33648	
3190	0	33608	
3191	0	33536	
3192	0	33456	
3193	0	33340	
3194	0	33268	
3195	0	33204	
3196	0	33112	
3197	0	33120	
3198	0	33144	
3199	0	33250	
3200	0	33504	
3201	0	33792	
3202	0	34088	
3203	0	34408	
3204	0	34716	
3205	0	34896	
3206	0	35080	
3207	0	35248	
3208	0	35412	
3209	0	35592	
3210	0	35748	
3211	0	35796	
3212	0	35756	
3213	0	35632	
3214	0	35472	
3215	0	35332	
3216	0	35172	
3217	0	34992	
3218	0	34856	
3219	0	34772	
3220	0	34608	
3221	0	34424	
3222	0	34252	
3223	0	34156	
3224	0	34060	
3225	0	34016	
3226	0	33968	
3227	0	33864	
3228	0	33788	
3229	0	33684	
3230	0	33548	
3231	0	33422	
3232	0	33358	
3233	0	33344	
3234	0	33200	
3235	0	32972	
3236	0	32772	
3237	0	32628	
3238	0	32538	
3239	0	32520	
3240	0	32448	
3241	0	32332	
3242	0	32260	
3243	0	32200	
3244	0	32176	
3245	0	32132	
3246	0	32092	
3247	0	32042	
3248	0	32000	
3249	0	31928	
3250	0	31816	
3251	0	31728	
3252	0	31672	
3253	0	31616	
3254	0	31512	
3255	0	31416	
3256	0	31328	
3257	0	31256	
3258	0	31180	
3259	0	31152	
3260	0	31148	
3261	0	31152	
3262	0	31164	
3263	0	31204	
3264	0	31280	
3265	0	31352	
3266	0	31380	
3267	0	31424	
3268	0	31432	
3269	0	31436	
3270	0	31448	
3271	0	31520	
3272	0	31572	
3273	0	31580	
3274	0	31564	
3275	0	31536	
3276	0	31536	
3277	0	31512	
3278	0	31468	
3279	0	31440	
3280	0	31456	
3281	0	31496	
3282	0	31544	
3283	0	31564	
3284	0	31632	
3285	0	31738	
3286	0	31792	
3287	0	31816	
3288	0	31856	
3289	0	31884	
3290	0	31924	
3291	0	31988	
3292	0	32044	
3293	0	32072	
3294	0	32032	
3295	0	31964	
3296	0	31864	
3297	0	31668	
3298	0	31340	
3299	0	30856	
3300	0	30308	
3301	0	29696	
3302	0	29152	
3303	0	28792	
3304	0	28632	
3305	0	28736	
3306	0	28992	
3307	0	29408	
3308	0	30048	
3309	0	30860	
3310	0	31880	
3311	0	33040	
3312	0	34312	
3313	0	35804	
3314	0	37452	
3315	0	39140	
3316	0	41124	
3317	0	43336	
3318	0	45920	
3319	0	49004	
3320	0	52200	
3321	0	55304	
3322	0	58336	
3323	0	61248	
3324	0	63216	
3325	0	64240	
3326	0	64744	
3327	0	64944	
3328	0	65000	
3329	0	64968	
3330	0	64888	
3331	0	64800	
3332	0	64672	
3333	0	64568	
3334	0	62032	
3335	0	56388	
3336	0	51560	
3337	0	47512	
3338	0	44056	
3339	0	41156	
3340	0	38688	
3341	0	36392	
3342	0	34320	
3343	0	32576	
3344	0	31156	
3345	0	29972	
3346	0	29014	
3347	0	28226	
3348	0	27648	
3349	0	27258	
3350	0	27072	
3351	0	27092	
3352	0	27228	
3353	0	27364	
3354	0	27348	
3355	0	27242	
3356	0	27082	
3357	0	27008	
3358	0	26996	
3359	0	27152	
3360	0	27444	
3361	0	27724	
3362	0	28020	
3363	0	28304	
3364	0	28580	
3365	0	28820	
3366	0	28980	
3367	0	29112	
3368	0	29232	
3369	0	29276	
3370	0	29284	
3371	0	29312	
3372	0	29300	
3373	0	29292	
3374	0	29260	
3375	0	29208	
3376	0	29184	
3377	0	29176	
3378	0	29192	
3379	0	29216	
3380	0	29184	
3381	0	29140	
3382	0	29120	
3383	0	29124	
3384	0	29136	
3385	0	29192	
3386	0	29248	
3387	0	29312	
3388	0	29376	
3389	0	29464	
3390	0	29548	
3391	0	29632	
3392	0	29652	
3393	0	29640	
3394	0	29644	
3395	0	29712	
3396	0	29768	
3397	0	29794	
3398	0	29808	
3399	0	29836	
3400	0	29872	
3401	0	29836	
3402	0	29840	
3403	0	29912	
3404	0	29968	
3405	0	29972	
3406	0	30016	
3407	0	30096	
3408	0	30212	
3409	0	30356	
3410	0	30516	
3411	0	30604	
3412	0	30648	
3413	0	30632	
3414	0	30612	
3415	0	30628	
3416	0	30640	
3417	0	30664	
3418	0	30670	
3419	0	30688	
3420	0	30732	
3421	0	30770	
3422	0	30780	
3423	0	30840	
3424	0	30936	
3425	0	30980	
3426	0	31068	
3427	0	31180	
3428	0	31236	
3429	0	31308	
3430	0	31376	
3431	0	31428	
3432	0	31492	
3433	0	31560	
3434	0	31584	
3435	0	31588	
3436	0	31592	
3437	0	31597	
3438	0	31616	
3439	0	31640	
3440	0	31664	
3441	0	31692	
3442	0	31760	
3443	0	31864	
3444	0	32004	
3445	0	32076	
3446	0	32112	
3447	0	32148	
3448	0	32164	
3449	0	32180	
3450	0	32240	
3451	0	32312	
3452	0	32424	
3453	0	32530	
3454	0	32560	
3455	0	32540	
3456	0	32460	
3457	0	32384	
3458	0	32376	
3459	0	32392	
3460	0	32408	
3461	0	32468	
3462	0	32544	
3463	0	32648	
3464	0	32716	
3465	0	32804	
3466	0	32908	
3467	0	32970	
3468	0	33040	
3469	0	33104	
3470	0	33160	
3471	0	33248	
3472	0	33316	
3473	0	33344	
3474	0	33360	
3475	0	33404	
3476	0	33400	
3477	0	33400	
3478	0	33460	
3479	0	33472	
3480	0	33496	
3481	0	33580	
3482	0	33664	
3483	0	33708	
3484	0	33768	
3485	0	33824	
3486	0	33900	
3487	0	33936	
3488	0	33996	
3489	0	34132	
3490	0	34240	
3491	0	34344	
3492	0	34420	
3493	0	34536	
3494	0	34620	
3495	0	34632	
3496	0	34600	
3497	0	34596	
3498	0	34652	
3499	0	34754	
3500	0	34828	
3501	0	34864	
3502	0	34920	
3503	0	34972	
3504	0	35000	
3505	0	35088	
3506	0	35176	
3507	0	35304	
3508	0	35440	
3509	0	35620	
3510	0	35776	
3511	0	35880	
3512	0	35992	
3513	0	36056	
3514	0	36088	
3515	0	36140	
3516	0	36240	
3517	0	36314	
3518	0	36362	
3519	0	36420	
3520	0	36488	
3521	0	36584	
3522	0	36672	
3523	0	36776	
3524	0	36908	
3525	0	37016	
3526	0	37120	
3527	0	37240	
3528	0	37376	
3529	0	37512	
3530	0	37584	
3531	0	37672	
3532	0	37752	
3533	0	37788	
3534	0	37848	
3535	0	37880	
3536	0	37940	
3537	0	37992	
3538	0	38016	
3539	0	38040	
3540	0	38056	
3541	0	38076	
3542	0	38160	
3543	0	38228	
3544	0	38228	
3545	0	38252	
3546	0	38272	
3547	0	38336	
3548	0	38432	
3549	0	38484	
3550	0	38492	
3551	0	38488	
3552	0	38508	
3553	0	38492	
3554	0	38436	
3555	0	38380	
3556	0	38316	
3557	0	38272	
3558	0	38236	
3559	0	38232	
3560	0	38188	
3561	0	38072	
3562	0	37996	
3563	0	37936	
3564	0	37876	
3565	0	37856	
3566	0	37836	
3567	0	37836	
3568	0	37824	
3569	0	37804	
3570	0	37776	
3571	0	37680	
3572	0	37544	
3573	0	37396	
3574	0	37196	
3575	0	36968	
3576	0	36760	
3577	0	36564	
3578	0	36324	
3579	0	36048	
3580	0	35804	
3581	0	35564	
3582	0	35360	
3583	0	35148	
3584	0	34944	
3585	0	34772	
3586	0	34552	
3587	0	34340	
3588	0	34132	
3589	0	33872	
3590	0	33604	
3591	0	33396	
3592	0	33176	
3593	0	32908	
3594	0	32644	
3595	0	32372	
3596	0	32112	
3597	0	31844	
3598	0	31584	
3599	0	31380	
3600	0	31156	
3601	0	30928	
3602	0	30712	
3603	0	30532	
3604	0	30360	
3605	0	30200	
3606	0	30052	
3607	0	29924	
3608	0	29844	
3609	0	29768	
3610	0	29704	
3611	0	29582	
3612	0	29424	
3613	0	29280	
3614	0	29152	
3615	0	29040	
3616	0	28908	
3617	0	28748	
3618	0	28576	
3619	0	28468	
3620	0	28388	
3621	0	28292	
3622	0	28232	
3623	0	28208	
3624	0	28192	
3625	0	28212	
3626	0	28194	
3627	0	28202	
3628	0	28196	
3629	0	28194	
3630	0	28208	
3631	0	28224	
3632	0	28228	
3633	0	28212	
3634	0	28218	
3635	0	28168	
3636	0	28084	
3637	0	28012	
3638	0	27980	
3639	0	27974	
3640	0	27960	
3641	0	27928	
3642	0	27876	
3643	0	27892	
3644	0	27940	
3645	0	28008	
3646	0	28060	
3647	0	28084	
3648	0	28134	
3649	0	28192	
3650	0	28272	
3651	0	28320	
3652	0	28336	
3653	0	28344	
3654	0	28336	
3655	0	28328	
3656	0	28316	
3657	0	28300	
3658	0	28292	
3659	0	28344	
3660	0	28376	
3661	0	28398	
3662	0	28460	
3663	0	28528	
3664	0	28584	
3665	0	28620	
3666	0	28672	
3667	0	28816	
3668	0	28900	
3669	0	28948	
3670	0	28996	
3671	0	29008	
3672	0	29012	
3673	0	29080	
3674	0	29122	
3675	0	29132	
3676	0	29108	
3677	0	29076	
3678	0	29004	
3679	0	29032	
3680	0	29076	
3681	0	29112	
3682	0	29160	
3683	0	29240	
3684	0	29332	
3685	0	29424	
3686	0	29500	
3687	0	29584	
3688	0	29696	
3689	0	29772	
3690	0	29772	
3691	0	29780	
3692	0	29800	
3693	0	29812	
3694	0	29860	
3695	0	29912	
3696	0	29936	
3697	0	29948	
3698	0	29928	
3699	0	29888	
3700	0	29880	
3701	0	29884	
3702	0	29924	
3703	0	30000	
3704	0	30056	
3705	0	30088	
3706	0	30124	
3707	0	30228	
3708	0	30300	
3709	0	30360	
3710	0	30432	
3711	0	30448	
3712	0	30434	
3713	0	30420	
3714	0	30458	
3715	0	30512	
3716	0	30516	
3717	0	30508	
3718	0	30444	
3719	0	30388	
3720	0	30384	
3721	0	30392	
3722	0	30432	
3723	0	30500	
3724	0	30588	
3725	0	30644	
3726	0	30676	
3727	0	30688	
3728	0	30776	
3729	0	30892	
3730	0	30972	
3731	0	31032	
3732	0	31040	
3733	0	31028	
3734	0	31008	
3735	0	30972	
3736	0	30948	
3737	0	30908	
3738	0	30844	
3739	0	30854	
3740	0	30856	
3741	0	30860	
3742	0	30864	
3743	0	30912	
3744	0	30964	
3745	0	31012	
3746	0	31088	
3747	0	31160	
3748	0	31198	
3749	0	31276	
3750	0	31328	
3751	0	31352	
3752	0	31360	
3753	0	31372	
3754	0	31348	
3755	0	31328	
3756	0	31308	
3757	0	31292	
3758	0	31288	
3759	0	31256	
3760	0	31272	
3761	0	31280	
3762	0	31280	
3763	0	31296	
3764	0	31328	
3765	0	31392	
3766	0	31420	
3767	0	31456	
3768	0	31508	
3769	0	31584	
3770	0	31668	
3771	0	31712	
3772	0	31746	
3773	0	31768	
3774	0	31728	
3775	0	31642	
3776	0	31600	
3777	0	31556	
3778	0	31508	
3779	0	31446	
3780	0	31384	
3781	0	31338	
3782	0	31328	
3783	0	31346	
3784	0	31356	
3785	0	31348	
3786	0	31414	
3787	0	31476	
3788	0	31516	
3789	0	31576	
3790	0	31620	
3791	0	31616	
3792	0	31616	
3793	0	31636	
3794	0	31628	
3795	0	31596	
3796	0	31526	
3797	0	31480	
3798	0	31464	
3799	0	31460	
3800	0	31458	
3801	0	31476	
3802	0	31492	
3803	0	31504	
3804	0	31540	
3805	0	31565	
3806	0	31616	
3807	0	31648	
3808	0	31708	
3809	0	31768	
3810	0	31844	
3811	0	31876	
3812	0	31896	
3813	0	31868	
3814	0	31840	
3815	0	31792	
3816	0	31728	
3817	0	31684	
3818	0	31668	
3819	0	31648	
3820	0	31624	
3821	0	31572	
3822	0	31548	
3823	0	31560	
3824	0	31588	
3825	0	31572	
3826	0	31644	
3827	0	31680	
3828	0	31716	
3829	0	31736	
3830	0	31768	
3831	0	31800	
3832	0	31824	
3833	0	31840	
3834	0	31840	
3835	0	31832	
3836	0	31844	
3837	0	31828	
3838	0	31792	
3839	0	31816	
3840	0	31848	
3841	0	31800	
3842	0	31724	
3843	0	31664	
3844	0	31624	
3845	0	31648	
3846	0	31664	
3847	0	31664	
3848	0	31728	
3849	0	31820	
3850	0	31876	
3851	0	31936	
3852	0	31948	
3853	0	31948	
3854	0	31964	
3855	0	31948	
3856	0	31904	
3857	0	31868	
3858	0	31848	
3859	0	31728	
3860	0	31660	
3861	0	31680	
3862	0	31700	
3863	0	31748	
3864	0	31816	
3865	0	31854	
3866	0	31896	
3867	0	31932	
3868	0	31956	
3869	0	31980	
3870	0	32008	
3871	0	32004	
3872	0	32028	
3873	0	32004	
3874	0	31974	
3875	0	31970	
3876	0	31964	
3877	0	31948	
3878	0	31904	
3879	0	31880	
3880	0	31872	
3881	0	31844	
3882	0	31816	
3883	0	31876	
3884	0	31936	
3885	0	31968	
3886	0	32004	
3887	0	32054	
3888	0	32110	
3889	0	32156	
3890	0	32196	
3891	0	32244	
3892	0	32224	
3893	0	32224	
3894	0	32204	
3895	0	32156	
3896	0	32144	
3897	0	32096	
3898	0	32048	
3899	0	32072	
3900	0	32060	
3901	0	32048	
3902	0	32092	
3903	0	32084	
3904	0	32032	
3905	0	32048	
3906	0	32080	
3907	0	32132	
3908	0	32208	
3909	0	32276	
3910	0	32348	
3911	0	32396	
3912	0	32428	
3913	0	32400	
3914	0	32376	
3915	0	32352	
3916	0	32380	
3917	0	32376	
3918	0	32320	
3919	0	32304	
3920	0	32288	
3921	0	32320	
3922	0	32296	
3923	0	32244	
3924	0	32236	
3925	0	32280	
3926	0	32368	
3927	0	32428	
3928	0	32460	
3929	0	32488	
3930	0	32528	
3931	0	32556	
3932	0	32580	
3933	0	32596	
3934	0	32564	
3935	0	32522	
3936	0	32504	
3937	0	32482	
3938	0	32536	
3939	0	32564	
3940	0	32588	
3941	0	32584	
3942	0	32576	
3943	0	32620	
3944	0	32748	
3945	0	32932	
3946	0	33098	
3947	0	33168	
3948	0	33196	
3949	0	33292	
3950	0	33432	
3951	0	33584	
3952	0	33696	
3953	0	33788	
3954	0	33792	
3955	0	33768	
3956	0	33752	
3957	0	33764	
3958	0	33716	
3959	0	33664	
3960	0	33616	
3961	0	33534	
3962	0	33480	
3963	0	33404	
3964	0	33400	
3965	0	33432	
3966	0	33448	
3967	0	33504	
3968	0	33602	
3969	0	33688	
3970	0	33816	
3971	0	33992	
3972	0	34180	
3973	0	34460	
3974	0	34752	
3975	0	35024	
3976	0	35220	
3977	0	35352	
3978	0	35428	
3979	0	35500	
3980	0	35532	
3981	0	35592	
3982	0	35656	
3983	0	35652	
3984	0	35556	
3985	0	35472	
3986	0	35412	
3987	0	35336	
3988	0	35296	
3989	0	35248	
3990	0	35208	
3991	0	35092	
3992	0	34904	
3993	0	34714	
3994	0	34556	
3995	0	34408	
3996	0	34278	
3997	0	34168	
3998	0	34056	
3999	0	33916	
4000	0	33766	
4001	0	33592	
4002	0	33436	
4003	0	33336	
4004	0	33296	
4005	0	33248	
4006	0	33184	
4007	0	33144	
4008	0	33064	
4009	0	33032	
4010	0	33026	
4011	0	32960	
4012	0	32884	
4013	0	32752	
4014	0	32572	
4015	0	32414	
4016	0	32312	
4017	0	32208	
4018	0	32100	
4019	0	32002	
4020	0	31928	
4021	0	31856	
4022	0	31728	
4023	0	31600	
4024	0	31504	
4025	0	31444	
4026	0	31400	
4027	0	31424	
4028	0	31468	
4029	0	31492	
4030	0	31552	
4031	0	31564	
4032	0	31556	
4033	0	31572	
4034	0	31540	
4035	0	31466	
4036	0	31384	
4037	0	31320	
4038	0	31288	
4039	0	31264	
4040	0	31256	
4041	0	31264	
4042	0	31280	
4043	0	31296	
4044	0	31344	
4045	0	31404	
4046	0	31504	
4047	0	31644	
4048	0	31728	
4049	0	31764	
4050	0	31780	
4051	0	31784	
4052	0	31788	
4053	0	31796	
4054	0	31778	
4055	0	31748	
4056	0	31736	
4057	0	31736	
4058	0	31724	
4059	0	31704	
4060	0	31720	
4061	0	31784	
4062	0	31820	
4063	0	31848	
4064	0	31908	
4065	0	31936	
4066	0	31928	
4067	0	31918	
4068	0	31880	
4069	0	31752	
4070	0	31496	
4071	0	31112	
4072	0	30560	
4073	0	29904	
4074	0	29396	
4075	0	29036	
4076	0	28892	
4077	0	28928	
4078	0	29108	
4079	0	29464	
4080	0	29996	
4081	0	30796	
4082	0	31836	
4083	0	33136	
4084	0	34608	
4085	0	36212	
4086	0	37896	
4087	0	39676	
4088	0	41784	
4089	0	44160	
4090	0	47016	
4091	0	50288	
4092	0	53592	
4093	0	56772	
4094	0	59840	
4095	0	62464	
4096	0	63928	
4097	0	64664	
4098	0	65008	
4099	0	65136	
4100	0	65152	
4101	0	65108	
4102	0	65000	
4103	0	64896	
4104	0	64768	
4105	0	64648	
4106	0	62428	
4107	0	56952	
4108	0	52424	
4109	0	48680	
4110	0	45460	
4111	0	42752	
4112	0	40292	
4113	0	37936	
4114	0	35856	
4115	0	34084	
4116	0	32612	
4117	0	31312	
4118	0	30174	
4119	0	29204	
4120	0	28516	
4121	0	28056	
4122	0	27772	
4123	0	27684	
4124	0	27744	
4125	0	27820	
4126	0	27724	
4127	0	27642	
4128	0	27612	
4129	0	27648	
4130	0	27766	
4131	0	27988	
4132	0	28292	
4133	0	28512	
4134	0	28700	
4135	0	28864	
4136	0	28996	
4137	0	29074	
4138	0	29136	
4139	0	29168	
4140	0	29178	
4141	0	29152	
4142	0	29152	
4143	0	29124	
4144	0	29096	
4145	0	29120	
4146	0	29192	
4147	0	29248	
4148	0	29280	
4149	0	29308	
4150	0	29352	
4151	0	29384	
4152	0	29424	
4153	0	29416	
4154	0	29408	
4155	0	29400	
4156	0	29381	
4157	0	29352	
4158	0	29396	
4159	0	29416	
4160	0	29412	
4161	0	29392	
4162	0	29408	
4163	0	29472	
4164	0	29544	
4165	0	29592	
4166	0	29640	
4167	0	29692	
4168	0	29732	
4169	0	29792	
4170	0	29860	
4171	0	29928	
4172	0	30016	
4173	0	30104	
4174	0	30148	
4175	0	30164	
4176	0	30156	
4177	0	30130	
4178	0	30136	
4179	0	30176	
4180	0	30228	
4181	0	30264	
4182	0	30264	
4183	0	30320	
4184	0	30408	
4185	0	30476	
4186	0	30578	
4187	0	30708	
4188	0	30828	
4189	0	30906	
4190	0	30928	
4191	0	30960	
4192	0	31012	
4193	0	31040	
4194	0	31044	
4195	0	31016	
4196	0	31008	
4197	0	31040	
4198	0	31052	
4199	0	31048	
4200	0	31008	
4201	0	31052	
4202	0	31144	
4203	0	31184	
4204	0	31216	
4205	0	31282	
4206	0	31336	
4207	0	31396	
4208	0	31516	
4209	0	31628	
4210	0	31712	
4211	0	31744	
4212	0	31760	
4213	0	31764	
4214	0	31764	
4215	0	31768	
4216	0	31824	
4217	0	31884	
4218	0	31952	
4219	0	31964	
4220	0	31952	
4221	0	31964	
4222	0	31960	
4223	0	32000	
4224	0	32076	
4225	0	32188	
4226	0	32288	
4227	0	32388	
4228	0	32476	
4229	0	32564	
4230	0	32632	
4231	0	32696	
4232	0	32752	
4233	0	32784	
4234	0	32764	
4235	0	32746	
4236	0	32712	
4237	0	32706	
4238	0	32752	
4239	0	32832	
4240	0	32928	
4241	0	32960	
4242	0	33000	
4243	0	33056	
4244	0	33096	
4245	0	33138	
4246	0	33224	
4247	0	33292	
4248	0	33340	
4249	0	33408	
4250	0	33536	
4251	0	33616	
4252	0	33720	
4253	0	33786	
4254	0	33884	
4255	0	33908	
4256	0	33928	
4257	0	33932	
4258	0	33924	
4259	0	33944	
4260	0	33984	
4261	0	34032	
4262	0	34076	
4263	0	34136	
4264	0	34280	
4265	0	34414	
4266	0	34528	
4267	0	34624	
4268	0	34704	
4269	0	34800	
4270	0	34892	
4271	0	34964	
4272	0	35036	
4273	0	35100	
4274	0	35192	
4275	0	35256	
4276	0	35304	
4277	0	35352	
4278	0	35406	
4279	0	35480	
4280	0	35540	
4281	0	35596	
4282	0	35652	
4283	0	35764	
4284	0	35888	
4285	0	35984	
4286	0	36128	
4287	0	36284	
4288	0	36416	
4289	0	36528	
4290	0	36692	
4291	0	36812	
4292	0	36936	
4293	0	37032	
4294	0	37136	
4295	0	37212	
4296	0	37272	
4297	0	37292	
4298	0	37312	
4299	0	37340	
4300	0	37352	
4301	0	37444	
4302	0	37536	
4303	0	37602	
4304	0	37700	
4305	0	37856	
4306	0	37992	
4307	0	38112	
4308	0	38200	
4309	0	38268	
4310	0	38348	
4311	0	38456	
4312	0	38512	
4313	0	38540	
4314	0	38576	
4315	0	38588	
4316	0	38580	
4317	0	38592	
4318	0	38592	
4319	0	38568	
4320	0	38560	
4321	0	38516	
4322	0	38456	
4323	0	38488	
4324	0	38552	
4325	0	38640	
4326	0	38724	
4327	0	38740	
4328	0	38740	
4329	0	38760	
4330	0	38776	
4331	0	38800	
4332	0	38816	
4333	0	38780	
4334	0	38768	
4335	0	38704	
4336	0	38620	
4337	0	38520	
4338	0	38440	
4339	0	38344	
4340	0	38216	
4341	0	38076	
4342	0	37952	
4343	0	37824	
4344	0	37720	
4345	0	37584	
4346	0	37468	
4347	0	37380	
4348	0	37252	
4349	0	37096	
4350	0	36900	
4351	0	36704	
4352	0	36488	
4353	0	36244	
4354	0	35964	
4355	0	35716	
4356	0	35488	
4357	0	35232	
4358	0	34940	
4359	0	34660	
4360	0	34384	
4361	0	34124	
4362	0	33852	
4363	0	33592	
4364	0	33360	
4365	0	33120	
4366	0	32936	
4367	0	32740	
4368	0	32544	
4369	0	32344	
4370	0	32164	
4371	0	31988	
4372	0	31754	
4373	0	31516	
4374	0	31326	
4375	0	31108	
4376	0	30896	
4377	0	30700	
4378	0	30484	
4379	0	30232	
4380	0	30020	
4381	0	29868	
4382	0	29788	
4383	0	29680	
4384	0	29568	
4385	0	29488	
4386	0	29432	
4387	0	29400	
4388	0	29384	
4389	0	29320	
4390	0	29248	
4391	0	29180	
4392	0	29152	
4393	0	29036	
4394	0	28872	
4395	0	28712	
4396	0	28592	
4397	0	28500	
4398	0	28372	
4399	0	28324	
4400	0	28296	
4401	0	28320	
4402	0	28336	
4403	0	28324	
4404	0	28324	
4405	0	28352	
4406	0	28404	
4407	0	28464	
4408	0	28532	
4409	0	28564	
4410	0	28544	
4411	0	28544	
4412	0	28532	
4413	0	28488	
4414	0	28508	
4415	0	28540	
4416	0	28556	
4417	0	28584	
4418	0	28592	
4419	0	28500	
4420	0	28396	
4421	0	28380	
4422	0	28390	
4423	0	28440	
4424	0	28492	
4425	0	28560	
4426	0	28612	
4427	0	28660	
4428	0	28704	
4429	0	28788	
4430	0	28868	
4431	0	28944	
4432	0	29016	
4433	0	29054	
4434	0	29084	
4435	0	29080	
4436	0	29068	
4437	0	29024	
4438	0	28984	
4439	0	28996	
4440	0	29024	
4441	0	29056	
4442	0	29076	
4443	0	29128	
4444	0	29212	
4445	0	29316	
4446	0	29416	
4447	0	29480	
4448	0	29532	
4449	0	29592	
4450	0	29650	
4451	0	29668	
4452	0	29726	
4453	0	29744	
4454	0	29760	
4455	0	29784	
4456	0	29796	
4457	0	29760	
4458	0	29696	
4459	0	29684	
4460	0	29720	
4461	0	29756	
4462	0	29770	
4463	0	29832	
4464	0	29936	
4465	0	30016	
4466	0	30048	
4467	0	30116	
4468	0	30160	
4469	0	30240	
4470	0	30304	
4471	0	30338	
4472	0	30388	
4473	0	30476	
4474	0	30568	
4475	0	30568	
4476	0	30508	
4477	0	30440	
4478	0	30392	
4479	0	30424	
4480	0	30458	
4481	0	30484	
4482	0	30516	
4483	0	30556	
4484	0	30600	
4485	0	30660	
4486	0	30728	
4487	0	30808	
4488	0	30892	
4489	0	30968	
4490	0	31052	
4491	0	31152	
4492	0	31240	
4493	0	31224	
4494	0	31168	
4495	0	31104	
4496	0	31048	
4497	0	31028	
4498	0	30996	
4499	0	31016	
4500	0	31064	
4501	0	31088	
4502	0	31072	
4503	0	31084	
4504	0	31120	
4505	0	31168	
4506	0	31212	
4507	0	31260	
4508	0	31308	
4509	0	31376	
4510	0	31392	
4511	0	31420	
4512	0	31468	
4513	0	31488	
4514	0	31468	
4515	0	31420	
4516	0	31392	
4517	0	31376	
4518	0	31344	
4519	0	31344	
4520	0	31368	
4521	0	31384	
4522	0	31400	
4523	0	31456	
4524	0	31504	
4525	0	31492	
4526	0	31492	
4527	0	31532	
4528	0	31596	
4529	0	31668	
4530	0	31720	
4531	0	31720	
4532	0	31712	
4533	0	31694	
4534	0	31674	
4535	0	31672	
4536	0	31696	
4537	0	31728	
4538	0	31736	
4539	0	31716	
4540	0	31728	
4541	0	31728	
4542	0	31722	
4543	0	31720	
4544	0	31744	
4545	0	31776	
4546	0	31808	
4547	0	31860	
4548	0	31896	
4549	0	31946	
4550	0	31984	
4551	0	31992	
4552	0	32016	
4553	0	32048	
4554	0	32048	
4555	0	31992	
4556	0	31932	
4557	0	31900	
4558	0	31834	
4559	0	31748	
4560	0	31684	
4561	0	31668	
4562	0	31664	
4563	0	31668	
4564	0	31676	
4565	0	31702	
4566	0	31752	
4567	0	31776	
4568	0	31832	
4569	0	31920	
4570	0	32000	
4571	0	32042	
4572	0	32016	
4573	0	32036	
4574	0	32000	
4575	0	31948	
4576	0	31932	
4577	0	31888	
4578	0	31832	
4579	0	31780	
4580	0	31760	
4581	0	31732	
4582	0	31706	
4583	0	31724	
4584	0	31740	
4585	0	31768	
4586	0	31796	
4587	0	31860	
4588	0	31870	
4589	0	31888	
4590	0	31908	
4591	0	31944	
4592	0	31972	
4593	0	31980	
4594	0	31968	
4595	0	31960	
4596	0	31900	
4597	0	31860	
4598	0	31848	
4599	0	31824	
4600	0	31824	
4601	0	31832	
4602	0	31832	
4603	0	31840	
4604	0	31876	
4605	0	31892	
4606	0	31892	
4607	0	31948	
4608	0	31996	
4609	0	32052	
4610	0	32132	
4611	0	32186	
4612	0	32186	
4613	0	32138	
4614	0	32096	
4615	0	32032	
4616	0	32000	
4617	0	31996	
4618	0	31956	
4619	0	31908	
4620	0	31896	
4621	0	31876	
4622	0	31872	
4623	0	31898	
4624	0	31920	
4625	0	31934	
4626	0	31932	
4627	0	31936	
4628	0	31968	
4629	0	32000	
4630	0	32092	
4631	0	32116	
4632	0	32128	
4633	0	32144	
4634	0	32120	
4635	0	32084	
4636	0	32048	
4637	0	32044	
4638	0	31992	
4639	0	31944	
4640	0	31944	
4641	0	31920	
4642	0	31904	
4643	0	31928	
4644	0	31948	
4645	0	31984	
4646	0	32060	
4647	0	32084	
4648	0	32108	
4649	0	32148	
4650	0	32172	
4651	0	32200	
4652	0	32220	
4653	0	32236	
4654	0	32228	
4655	0	32212	
4656	0	32164	
4657	0	32104	
4658	0	32052	
4659	0	32028	
4660	0	32048	
4661	0	32074	
4662	0	32092	
4663	0	32088	
4664	0	32104	
4665	0	32152	
4666	0	32220	
4667	0	32244	
4668	0	32272	
4669	0	32328	
4670	0	32400	
4671	0	32444	
4672	0	32502	
4673	0	32528	
4674	0	32516	
4675	0	32516	
4676	0	32556	
4677	0	32644	
4678	0	32762	
4679	0	32892	
4680	0	32992	
4681	0	33064	
4682	0	33104	
4683	0	33120	
4684	0	33188	
4685	0	33320	
4686	0	33464	
4687	0	33564	
4688	0	33664	
4689	0	33760	
4690	0	33780	
4691	0	33728	
4692	0	33688	
4693	0	33636	
4694	0	33548	
4695	0	33448	
4696	0	33360	
4697	0	33332	
4698	0	33324	
4699	0	33248	
4700	0	33224	
4701	0	33236	
4702	0	33320	
4703	0	33508	
4704	0	33760	
4705	0	34060	
4706	0	34376	
4707	0	34636	
4708	0	34908	
4709	0	35128	
4710	0	35272	
4711	0	35392	
4712	0	35504	
4713	0	35640	
4714	0	35736	
4715	0	35736	
4716	0	35660	
4717	0	35554	
4718	0	35408	
4719	0	35248	
4720	0	35096	
4721	0	34952	
4722	0	34818	
4723	0	34684	
4724	0	34560	
4725	0	34460	
4726	0	34340	
4727	0	34264	
4728	0	34224	
4729	0	34156	
4730	0	34050	
4731	0	33956	
4732	0	33824	
4733	0	33696	
4734	0	33586	
4735	0	33512	
4736	0	33416	
4737	0	33256	
4738	0	33056	
4739	0	32864	
4740	0	32792	
4741	0	32773	
4742	0	32752	
4743	0	32684	
4744	0	32616	
4745	0	32520	
4746	0	32410	
4747	0	32376	
4748	0	32352	
4749	0	32320	
4750	0	32248	
4751	0	32152	
4752	0	32070	
4753	0	31960	
4754	0	31840	
4755	0	31696	
4756	0	31532	
4757	0	31424	
4758	0	31332	
4759	0	31274	
4760	0	31236	
4761	0	31242	
4762	0	31248	
4763	0	31258	
4764	0	31264	
4765	0	31288	
4766	0	31340	
4767	0	31388	
4768	0	31504	
4769	0	31616	
4770	0	31640	
4771	0	31668	
4772	0	31712	
4773	0	31708	
4774	0	31632	
4775	0	31584	
4776	0	31544	
4777	0	31512	
4778	0	31520	
4779	0	31542	
4780	0	31572	
4781	0	31616	
4782	0	31648	
4783	0	31676	
4784	0	31740	
4785	0	31800	
4786	0	31824	
4787	0	31860	
4788	0	31892	
4789	0	31960	
4790	0	32034	
4791	0	32100	
4792	0	32140	
4793	0	32102	
4794	0	32024	
4795	0	31992	
4796	0	32048	
4797	0	32044	
4798	0	31968	
4799	0	31884	
4800	0	31760	
4801	0	31520	
4802	0	31244	
4803	0	30856	
4804	0	30320	
4805	0	29684	
4806	0	29136	
4807	0	28784	
4808	0	28588	
4809	0	28608	
4810	0	28788	
4811	0	29160	
4812	0	29664	
4813	0	30360	
4814	0	31284	
4815	0	32404	
4816	0	33696	
4817	0	35200	
4818	0	36820	
4819	0	38536	
4820	0	40594	
4821	0	42976	
4822	0	45724	
4823	0	49000	
4824	0	52388	
4825	0	55720	
4826	0	58944	
4827	0	61752	
4828	0	63328	
4829	0	64124	
4830	0	64512	
4831	0	64656	
4832	0	64668	
4833	0	64624	
4834	0	64544	
4835	0	64432	
4836	0	64320	
4837	0	64192	
4838	0	63280	
4839	0	57416	
4840	0	52612	
4841	0	48592	
4842	0	45188	
4843	0	42344	
4844	0	39840	
4845	0	37512	
4846	0	35416	
4847	0	33580	
4848	0	32016	
4849	0	30728	
4850	0	29620	
4851	0	28696	
4852	0	28044	
4853	0	27712	
4854	0	27474	
4855	0	27328	
4856	0	27368	
4857	0	27416	
4858	0	27262	
4859	0	27104	
4860	0	27080	
4861	0	27168	
4862	0	27308	
4863	0	27560	
4864	0	27852	
4865	0	28196	
4866	0	28456	
4867	0	28704	
4868	0	28964	
4869	0	29220	
4870	0	29388	
4871	0	29440	
4872	0	29464	
4873	0	29428	
4874	0	29340	
4875	0	29276	
4876	0	29208	
4877	0	29092	
4878	0	28977	
4879	0	28924	
4880	0	28924	
4881	0	28928	
4882	0	28912	
4883	0	28932	
4884	0	28984	
4885	0	29072	
4886	0	29146	
4887	0	29210	
4888	0	29320	
4889	0	29468	
4890	0	29576	
4891	0	29592	
4892	0	29528	
4893	0	29452	
4894	0	29452	
4895	0	29466	
4896	0	29448	
4897	0	29442	
4898	0	29428	
4899	0	29456	
4900	0	29480	
4901	0	29540	
4902	0	29640	
4903	0	29752	
4904	0	29840	
4905	0	29872	
4906	0	29868	
4907	0	29888	
4908	0	29980	
4909	0	30056	
4910	0	30110	
4911	0	30200	
4912	0	30324	
4913	0	30396	
4914	0	30400	
4915	0	30336	
4916	0	30296	
4917	0	30260	
4918	0	30272	
4919	0	30282	
4920	0	30348	
4921	0	30432	
4922	0	30488	
4923	0	30560	
4924	0	30656	
4925	0	30744	
4926	0	30840	
4927	0	30888	
4928	0	30924	
4929	0	30972	
4930	0	31032	
4931	0	31040	
4932	0	31072	
4933	0	31146	
4934	0	31200	
4935	0	31244	
4936	0	31252	
4937	0	31220	
4938	0	31256	
4939	0	31272	
4940	0	31248	
4941	0	31272	
4942	0	31304	
4943	0	31404	
4944	0	31504	
4945	0	31588	
4946	0	31680	
4947	0	31760	
4948	0	31784	
4949	0	31832	
4950	0	31912	
4951	0	31988	
4952	0	32060	
4953	0	32112	
4954	0	32152	
4955	0	32136	
4956	0	32133	
4957	0	32156	
4958	0	32168	
4959	0	32180	
4960	0	32196	
4961	0	32248	
4962	0	32296	
4963	0	32364	
4964	0	32424	
4965	0	32484	
4966	0	32556	
4967	0	32618	
4968	0	32656	
4969	0	32732	
4970	0	32764	
4971	0	32840	
4972	0	32924	
4973	0	33000	
4974	0	33052	
4975	0	33072	
4976	0	33076	
4977	0	33084	
4978	0	33104	
4979	0	33122	
4980	0	33162	
4981	0	33184	
4982	0	33204	
4983	0	33280	
4984	0	33340	
4985	0	33388	
4986	0	33460	
4987	0	33540	
4988	0	33660	
4989	0	33768	
4990	0	33824	
4991	0	33888	
4992	0	33940	
4993	0	33976	
4994	0	34032	
4995	0	34068	
4996	0	34112	
4997	0	34144	
4998	0	34152	
4999	0	34188	
5000	0	34252	
5001	0	34336	
5002	0	34412	
5003	0	34504	
5004	0	34604	
5005	0	34704	
5006	0	34824	
5007	0	34960	
5008	0	35096	
5009	0	35172	
5010	0	35244	
5011	0	35328	
5012	0	35392	
5013	0	35488	
5014	0	35568	
5015	0	35576	
5016	0	35588	
5017	0	35632	
5018	0	35712	
5019	0	35800	
5020	0	35904	
5021	0	36020	
5022	0	36132	
5023	0	36284	
5024	0	36424	
5025	0	36552	
5026	0	36648	
5027	0	36728	
5028	0	36812	
5029	0	36944	
5030	0	37068	
5031	0	37168	
5032	0	37240	
5033	0	37312	
5034	0	37396	
5035	0	37468	
5036	0	37536	
5037	0	37600	
5038	0	37644	
5039	0	37648	
5040	0	37640	
5041	0	37626	
5042	0	37660	
5043	0	37692	
5044	0	37776	
5045	0	37860	
5046	0	37968	
5047	0	38052	
5048	0	38144	
5049	0	38232	
5050	0	38272	
5051	0	38312	
5052	0	38336	
5053	0	38338	
5054	0	38328	
5055	0	38252	
5056	0	38172	
5057	0	38112	
5058	0	38076	
5059	0	38032	
5060	0	37996	
5061	0	37948	
5062	0	37920	
5063	0	37904	
5064	0	37904	
5065	0	37952	
5066	0	37968	
5067	0	38000	
5068	0	38000	
5069	0	37952	
5070	0	37876	
5071	0	37780	
5072	0	37704	
5073	0	37604	
5074	0	37504	
5075	0	37348	
5076	0	37152	
5077	0	36948	
5078	0	36764	
5079	0	36536	
5080	0	36332	
5081	0	36128	
5082	0	35920	
5083	0	35696	
5084	0	35472	
5085	0	35252	
5086	0	35044	
5087	0	34852	
5088	0	34644	
5089	0	34444	
5090	0	34242	
5091	0	34040	
5092	0	33776	
5093	0	33500	
5094	0	33200	
5095	0	32920	
5096	0	32672	
5097	0	32404	
5098	0	32172	
5099	0	31912	
5100	0	31672	
5101	0	31470	
5102	0	31276	
5103	0	31098	
5104	0	30948	
5105	0	30768	
5106	0	30618	
5107	0	30488	
5108	0	30356	
5109	0	30226	
5110	0	30100	
5111	0	29976	
5112	0	29826	
5113	0	29706	
5114	0	29536	
5115	0	29364	
5116	0	29228	
5117	0	29082	
5118	0	28940	
5119	0	28872	
5120	0	28748	
5121	0	28624	
5122	0	28500	
5123	0	28408	
5124	0	28352	
5125	0	28328	
5126	0	28280	
5127	0	28236	
5128	0	28232	
5129	0	28218	
5130	0	28236	
5131	0	28276	
5132	0	28264	
5133	0	28224	
5134	0	28268	
5135	0	28284	
5136	0	28186	
5137	0	28052	
5138	0	27964	
5139	0	27925	
5140	0	27884	
5141	0	27838	
5142	0	27808	
5143	0	27800	
5144	0	27836	
5145	0	27924	
5146	0	28020	
5147	0	28112	
5148	0	28152	
5149	0	28188	
5150	0	28276	
5151	0	28348	
5152	0	28352	
5153	0	28320	
5154	0	28300	
5155	0	28268	
5156	0	28288	
5157	0	28296	
5158	0	28268	
5159	0	28248	
5160	0	28246	
5161	0	28274	
5162	0	28328	
5163	0	28408	
5164	0	28480	
5165	0	28528	
5166	0	28568	
5167	0	28588	
5168	0	28668	
5169	0	28762	
5170	0	28892	
5171	0	29020	
5172	0	29056	
5173	0	29050	
5174	0	29040	
5175	0	29036	
5176	0	29040	
5177	0	29026	
5178	0	29016	
5179	0	29056	
5180	0	29120	
5181	0	29144	
5182	0	29192	
5183	0	29244	
5184	0	29308	
5185	0	29376	
5186	0	29460	
5187	0	29520	
5188	0	29568	
5189	0	29636	
5190	0	29720	
5191	0	29800	
5192	0	29864	
5193	0	29920	
5194	0	29944	
5195	0	29916	
5196	0	29908	
5197	0	29920	
5198	0	29924	
5199	0	29932	
5200	0	29968	
5201	0	29972	
5202	0	29962	
5203	0	29984	
5204	0	30008	
5205	0	30048	
5206	0	30124	
5207	0	30208	
5208	0	30292	
5209	0	30386	
5210	0	30456	
5211	0	30508	
5212	0	30530	
5213	0	30552	
5214	0	30576	
5215	0	30588	
5216	0	30568	
5217	0	30536	
5218	0	30552	
5219	0	30572	
5220	0	30544	
5221	0	30520	
5222	0	30544	
5223	0	30560	
5224	0	30600	
5225	0	30672	
5226	0	30736	
5227	0	30772	
5228	0	30836	
5229	0	30908	
5230	0	30960	
5231	0	30996	
5232	0	30996	
5233	0	30996	
5234	0	31040	
5235	0	31048	
5236	0	31052	
5237	0	31036	
5238	0	31006	
5239	0	30960	
5240	0	30900	
5241	0	30896	
5242	0	30872	
5243	0	30888	
5244	0	30916	
5245	0	30972	
5246	0	31056	
5247	0	31128	
5248	0	31178	
5249	0	31232	
5250	0	31296	
5251	0	31336	
5252	0	31368	
5253	0	31416	
5254	0	31456	
5255	0	31394	
5256	0	31328	
5257	0	31280	
5258	0	31252	
5259	0	31228	
5260	0	31224	
5261	0	31248	
5262	0	31308	
5263	0	31360	
5264	0	31344	
5265	0	31248	
5266	0	31200	
5267	0	31244	
5268	0	31328	
5269	0	31410	
5270	0	31502	
5271	0	31556	
5272	0	31556	
5273	0	31532	
5274	0	31520	
5275	0	31504	
5276	0	31488	
5277	0	31452	
5278	0	31420	
5279	0	31416	
5280	0	31440	
5281	0	31456	
5282	0	31412	
5283	0	31396	
5284	0	31432	
5285	0	31480	
5286	0	31476	
5287	0	31460	
5288	0	31448	
5289	0	31444	
5290	0	31424	
5291	0	31448	
5292	0	31492	
5293	0	31564	
5294	0	31592	
5295	0	31524	
5296	0	31444	
5297	0	31412	
5298	0	31368	
5299	0	31336	
5300	0	31308	
5301	0	31272	
5302	0	31236	
5303	0	31248	
5304	0	31260	
5305	0	31300	
5306	0	31308	
5307	0	31280	
5308	0	31298	
5309	0	31340	
5310	0	31344	
5311	0	31344	
5312	0	31308	
5313	0	31280	
5314	0	31268	
5315	0	31284	
5316	0	31348	
5317	0	31360	
5318	0	31364	
5319	0	31360	
5320	0	31404	
5321	0	31452	
5322	0	31512	
5323	0	31544	
5324	0	31560	
5325	0	31576	
5326	0	31552	
5327	0	31544	
5328	0	31532	
5329	0	31534	
5330	0	31588	
5331	0	31652	
5332	0	31692	
5333	0	31792	
5334	0	31820	
5335	0	31744	
5336	0	31712	
5337	0	31648	
5338	0	31560	
5339	0	31460	
5340	0	31424	
5341	0	31422	
5342	0	31428	
5343	0	31472	
5344	0	31548	
5345	0	31584	
5346	0	31680	
5347	0	31780	
5348	0	31856	
5349	0	31928	
5350	0	32012	
5351	0	32112	
5352	0	32160	
5353	0	32164	
5354	0	32172	
5355	0	32212	
5356	0	32260	
5357	0	32308	
5358	0	32360	
5359	0	32420	
5360	0	32464	
5361	0	32508	
5362	0	32520	
5363	0	32524	
5364	0	32516	
5365	0	32484	
5366	0	32476	
5367	0	32484	
5368	0	32448	
5369	0	32444	
5370	0	32468	
5371	0	32476	
5372	0	32480	
5373	0	32468	
5374	0	32472	
5375	0	32568	
5376	0	32772	
5377	0	32984	
5378	0	33224	
5379	0	33500	
5380	0	33740	
5381	0	33948	
5382	0	34128	
5383	0	34280	
5384	0	34392	
5385	0	34488	
5386	0	34624	
5387	0	34792	
5388	0	34896	
5389	0	34928	
5390	0	34928	
5391	0	34920	
5392	0	34888	
5393	0	34804	
5394	0	34676	
5395	0	34508	
5396	0	34320	
5397	0	34120	
5398	0	33972	
5399	0	33822	
5400	0	33680	
5401	0	33568	
5402	0	33448	
5403	0	33340	
5404	0	33232	
5405	0	33100	
5406	0	32988	
5407	0	32904	
5408	0	32836	
5409	0	32776	
5410	0	32682	
5411	0	32560	
5412	0	32424	
5413	0	32328	
5414	0	32268	
5415	0	32192	
5416	0	32056	
5417	0	31908	
5418	0	31804	
5419	0	31660	
5420	0	31540	
5421	0	31444	
5422	0	31308	
5423	0	31140	
5424	0	31016	
5425	0	30960	
5426	0	30896	
5427	0	30852	
5428	0	30816	
5429	0	30786	
5430	0	30788	
5431	0	30820	
5432	0	30812	
5433	0	30796	
5434	0	30812	
5435	0	30760	
5436	0	30682	
5437	0	30616	
5438	0	30596	
5439	0	30536	
5440	0	30492	
5441	0	30492	
5442	0	30524	
5443	0	30544	
5444	0	30572	
5445	0	30632	
5446	0	30692	
5447	0	30780	
5448	0	30876	
5449	0	30962	
5450	0	31010	
5451	0	31072	
5452	0	31104	
5453	0	31152	
5454	0	31212	
5455	0	31224	
5456	0	31168	
5457	0	31096	
5458	0	31084	
5459	0	31072	
5460	0	31004	
5461	0	30980	
5462	0	31034	
5463	0	31134	
5464	0	31244	
5465	0	31312	
5466	0	31332	
5467	0	31381	
5468	0	31452	
5469	0	31560	
5470	0	31624	
5471	0	31584	
5472	0	31484	
5473	0	31300	
5474	0	31172	
5475	0	31032	
5476	0	30788	
5477	0	30348	
5478	0	29682	
5479	0	28920	
5480	0	28280	
5481	0	27856	
5482	0	27634	
5483	0	27644	
5484	0	27840	
5485	0	28260	
5486	0	28848	
5487	0	29640	
5488	0	30704	
5489	0	31982	
5490	0	33436	
5491	0	35010	
5492	0	36632	
5493	0	38408	
5494	0	40608	
5495	0	43236	
5496	0	46264	
5497	0	49624	
5498	0	53064	
5499	0	56376	
5500	0	59648	
5501	0	62408	
5502	0	63912	
5503	0	64656	
5504	0	65000	
5505	0	65136	
5506	0	65136	
5507	0	65080	
5508	0	65008	
5509	0	64896	
5510	0	64772	
5511	0	64640	
5512	0	61728	
5513	0	56436	
5514	0	52104	
5515	0	48360	
5516	0	45204	
5517	0	42480	
5518	0	39972	
5519	0	37576	
5520	0	35444	
5521	0	33532	
5522	0	31746	
5523	0	30196	
5524	0	28992	
5525	0	28076	
5526	0	27436	
5527	0	27056	
5528	0	26936	
5529	0	26936	
5530	0	26964	
5531	0	26864	
5532	0	26808	
5533	0	26744	
5534	0	26736	
5535	0	26800	
5536	0	26912	
5537	0	27104	
5538	0	27360	
5539	0	27652	
5540	0	27952	
5541	0	28228	
5542	0	28488	
5543	0	28696	
5544	0	28820	
5545	0	28872	
5546	0	28908	
5547	0	28940	
5548	0	28988	
5549	0	29016	
5550	0	29076	
5551	0	29076	
5552	0	29054	
5553	0	29044	
5554	0	29024	
5555	0	29012	
5556	0	28976	
5557	0	28938	
5558	0	28896	
5559	0	28820	
5560	0	28796	
5561	0	28836	
5562	0	28900	
5563	0	28960	
5564	0	29004	
5565	0	29048	
5566	0	29112	
5567	0	29160	
5568	0	29184	
5569	0	29260	
5570	0	29332	
5571	0	29416	
5572	0	29512	
5573	0	29580	
5574	0	29600	
5575	0	29576	
5576	0	29568	
5577	0	29544	
5578	0	29528	
5579	0	29480	
5580	0	29480	
5581	0	29512	
5582	0	29538	
5583	0	29584	
5584	0	29620	
5585	0	29640	
5586	0	29676	
5587	0	29762	
5588	0	29860	
5589	0	29972	
5590	0	30096	
5591	0	30188	
5592	0	30304	
5593	0	30364	
5594	0	30390	
5595	0	30424	
5596	0	30456	
5597	0	30480	
5598	0	30468	
5599	0	30436	
5600	0	30440	
5601	0	30488	
5602	0	30562	
5603	0	30616	
5604	0	30612	
5605	0	30612	
5606	0	30716	
5607	0	30824	
5608	0	30872	
5609	0	30852	
5610	0	30872	
5611	0	30944	
5612	0	31016	
5613	0	31068	
5614	0	31132	
5615	0	31132	
5616	0	31152	
5617	0	31144	
5618	0	31178	
5619	0	31240	
5620	0	31296	
5621	0	31364	
5622	0	31460	
5623	0	31512	
5624	0	31520	
5625	0	31564	
5626	0	31620	
5627	0	31664	
5628	0	31688	
5629	0	31756	
5630	0	31856	
5631	0	31960	
5632	0	32008	
5633	0	31996	
5634	0	32016	
5635	0	32056	
5636	0	32066	
5637	0	32088	
5638	0	32104	
5639	0	32120	
5640	0	32148	
5641	0	32200	
5642	0	32290	
5643	0	32388	
5644	0	32444	
5645	0	32556	
5646	0	32706	
5647	0	32864	
5648	0	33032	
5649	0	33096	
5650	0	33172	
5651	0	33224	
5652	0	33228	
5653	0	33292	
5654	0	33384	
5655	0	33488	
5656	0	33540	
5657	0	33480	
5658	0	33376	
5659	0	33260	
5660	0	33244	
5661	0	33304	
5662	0	33416	
5663	0	33564	
5664	0	33640	
5665	0	33700	
5666	0	33720	
5667	0	33770	
5668	0	33888	
5669	0	34024	
5670	0	34140	
5671	0	34236	
5672	0	34336	
5673	0	34444	
5674	0	34544	
5675	0	34708	
5676	0	34804	
5677	0	34872	
5678	0	34880	
5679	0	34868	
5680	0	34888	
5681	0	34960	
5682	0	35060	
5683	0	35168	
5684	0	35232	
5685	0	35336	
5686	0	35444	
5687	0	35568	
5688	0	35712	
5689	0	35844	
5690	0	35984	
5691	0	36160	
5692	0	36260	
5693	0	36386	
5694	0	36436	
5695	0	36512	
5696	0	36556	
5697	0	36584	
5698	0	36612	
5699	0	36660	
5700	0	36740	
5701	0	36852	
5702	0	36996	
5703	0	37132	
5704	0	37256	
5705	0	37320	
5706	0	37472	
5707	0	37600	
5708	0	37720	
5709	0	37840	
5710	0	37940	
5711	0	38008	
5712	0	38100	
5713	0	38160	
5714	0	38200	
5715	0	38208	
5716	0	38208	
5717	0	38200	
5718	0	38208	
5719	0	38200	
5720	0	38232	
5721	0	38280	
5722	0	38252	
5723	0	38292	
5724	0	38316	
5725	0	38380	
5726	0	38396	
5727	0	38376	
5728	0	38432	
5729	0	38542	
5730	0	38560	
5731	0	38540	
5732	0	38476	
5733	0	38448	
5734	0	38436	
5735	0	38408	
5736	0	38432	
5737	0	38380	
5738	0	38324	
5739	0	38284	
5740	0	38228	
5741	0	38200	
5742	0	38216	
5743	0	38176	
5744	0	38064	
5745	0	37968	
5746	0	37764	
5747	0	37548	
5748	0	37380	
5749	0	37236	
5750	0	37116	
5751	0	36984	
5752	0	36832	
5753	0	36652	
5754	0	36368	
5755	0	36080	
5756	0	35832	
5757	0	35616	
5758	0	35276	
5759	0	34936	
5760	0	34632	
5761	0	34324	
5762	0	33990	
5763	0	33672	
5764	0	33432	
5765	0	33232	
5766	0	33048	
5767	0	32872	
5768	0	32672	
5769	0	32468	
5770	0	32244	
5771	0	32032	
5772	0	31812	
5773	0	31592	
5774	0	31360	
5775	0	31092	
5776	0	30972	
5777	0	30800	
5778	0	30636	
5779	0	30436	
5780	0	30256	
5781	0	30064	
5782	0	29876	
5783	0	29744	
5784	0	29668	
5785	0	29612	
5786	0	29480	
5787	0	29392	
5788	0	29300	
5789	0	29224	
5790	0	29130	
5791	0	29044	
5792	0	28976	
5793	0	28908	
5794	0	28820	
5795	0	28708	
5796	0	28610	
5797	0	28532	
5798	0	28448	
5799	0	28324	
5800	0	28212	
5801	0	28188	
5802	0	28172	
5803	0	28088	
5804	0	28036	
5805	0	28076	
5806	0	28124	
5807	0	28204	
5808	0	28224	
5809	0	28184	
5810	0	28168	
5811	0	28192	
5812	0	28224	
5813	0	28200	
5814	0	28192	
5815	0	28152	
5816	0	28040	
5817	0	27968	
5818	0	27940	
5819	0	27920	
5820	0	27894	
5821	0	27892	
5822	0	27948	
5823	0	28020	
5824	0	28114	
5825	0	28176	
5826	0	28208	
5827	0	28284	
5828	0	28372	
5829	0	28420	
5830	0	28488	
5831	0	28512	
5832	0	28508	
5833	0	28512	
5834	0	28532	
5835	0	28568	
5836	0	28600	
5837	0	28652	
5838	0	28644	
5839	0	28672	
5840	0	28728	
5841	0	28736	
5842	0	28762	
5843	0	28784	
5844	0	28808	
5845	0	28840	
5846	0	28916	
5847	0	29036	
5848	0	29120	
5849	0	29140	
5850	0	29144	
5851	0	29248	
5852	0	29360	
5853	0	29424	
5854	0	29444	
5855	0	29440	
5856	0	29412	
5857	0	29416	
5858	0	29432	
5859	0	29442	
5860	0	29448	
5861	0	29544	
5862	0	29680	
5863	0	29792	
5864	0	29820	
5865	0	29792	
5866	0	29792	
5867	0	29864	
5868	0	29928	
5869	0	29984	
5870	0	30028	
5871	0	30076	
5872	0	30096	
5873	0	30152	
5874	0	30168	
5875	0	30152	
5876	0	30160	
5877	0	30160	
5878	0	30208	
5879	0	30220	
5880	0	30260	
5881	0	30232	
5882	0	30156	
5883	0	30176	
5884	0	30228	
5885	0	30328	
5886	0	30400	
5887	0	30440	
5888	0	30484	
5889	0	30532	
5890	0	30624	
5891	0	30720	
5892	0	30784	
5893	0	30796	
5894	0	30768	
5895	0	30712	
5896	0	30658	
5897	0	30676	
5898	0	30748	
5899	0	30800	
5900	0	30840	
5901	0	30896	
5902	0	30912	
5903	0	30924	
5904	0	30900	
5905	0	30856	
5906	0	30944	
5907	0	30984	
5908	0	30998	
5909	0	31060	
5910	0	31092	
5911	0	31064	
5912	0	31044	
5913	0	31100	
5914	0	31200	
5915	0	31248	
5916	0	31272	
5917	0	31288	
5918	0	31296	
5919	0	31274	
5920	0	31272	
5921	0	31184	
5922	0	31112	
5923	0	31040	
5924	0	31048	
5925	0	31114	
5926	0	31204	
5927	0	31300	
5928	0	31376	
5929	0	31480	
5930	0	31528	
5931	0	31568	
5932	0	31600	
5933	0	31584	
5934	0	31600	
5935	0	31580	
5936	0	31536	
5937	0	31448	
5938	0	31356	
5939	0	31328	
5940	0	31328	
5941	0	31316	
5942	0	31252	
5943	0	31200	
5944	0	31258	
5945	0	31392	
5946	0	31496	
5947	0	31520	
5948	0	31528	
5949	0	31520	
5950	0	31520	
5951	0	31528	
5952	0	31568	
5953	0	31620	
5954	0	31676	
5955	0	31684	
5956	0	31612	
5957	0	31514	
5958	0	31444	
5959	0	31378	
5960	0	31364	
5961	0	31380	
5962	0	31328	
5963	0	31312	
5964	0	31332	
5965	0	31360	
5966	0	31348	
5967	0	31332	
5968	0	31384	
5969	0	31472	
5970	0	31548	
5971	0	31600	
5972	0	31584	
5973	0	31584	
5974	0	31644	
5975	0	31628	
5976	0	31552	
5977	0	31516	
5978	0	31436	
5979	0	31346	
5980	0	31336	
5981	0	31360	
5982	0	31424	
5983	0	31528	
5984	0	31544	
5985	0	31532	
5986	0	31560	
5987	0	31568	
5988	0	31584	
5989	0	31588	
5990	0	31604	
5991	0	31632	
5992	0	31712	
5993	0	31796	
5994	0	31852	
5995	0	31912	
5996	0	32028	
5997	0	32044	
5998	0	32012	
5999	0	31988	
6000	0	32020	
6001	0	32080	
6002	0	32136	
6003	0	32210	
6004	0	32328	
6005	0	32472	
6006	0	32572	
6007	0	32672	
6008	0	32660	
6009	0	32792	
6010	0	32888	
6011	0	32804	
6012	0	32688	
6013	0	32636	
6014	0	32592	
6015	0	32520	
6016	0	32520	
6017	0	32496	
6018	0	32392	
6019	0	32332	
6020	0	32400	
6021	0	32604	
6022	0	32792	
6023	0	33000	
6024	0	33242	
6025	0	33568	
6026	0	33876	
6027	0	34106	
6028	0	34312	
6029	0	34500	
6030	0	34640	
6031	0	34860	
6032	0	35008	
6033	0	35104	
6034	0	35120	
6035	0	35020	
6036	0	34876	
6037	0	34704	
6038	0	34592	
6039	0	34500	
6040	0	34368	
6041	0	34170	
6042	0	33948	
6043	0	33800	
6044	0	33744	
6045	0	33716	
6046	0	33712	
6047	0	33696	
6048	0	33588	
6049	0	33408	
6050	0	33280	
6051	0	33176	
6052	0	33052	
6053	0	32976	
6054	0	32896	
6055	0	32776	
6056	0	32548	
6057	0	32344	
6058	0	32240	
6059	0	32176	
6060	0	32036	
6061	0	31864	
6062	0	31720	
6063	0	31648	
6064	0	31628	
6065	0	31616	
6066	0	31612	
6067	0	31536	
6068	0	31420	
6069	0	31384	
6070	0	31384	
6071	0	31288	
6072	0	31116	
6073	0	30952	
6074	0	30856	
6075	0	30816	
6076	0	30744	
6077	0	30660	
6078	0	30628	
6079	0	30604	
6080	0	30560	
6081	0	30512	
6082	0	30466	
6083	0	30452	
6084	0	30524	
6085	0	30612	
6086	0	30724	
6087	0	30784	
6088	0	30804	
6089	0	30796	
6090	0	30928	
6091	0	31020	
6092	0	31056	
6093	0	31056	
6094	0	31048	
6095	0	31034	
6096	0	31032	
6097	0	31016	
6098	0	30996	
6099	0	30948	
6100	0	30884	
6101	0	30938	
6102	0	31004	
6103	0	31096	
6104	0	31108	
6105	0	31124	
6106	0	31224	
6107	0	31348	
6108	0	31488	
6109	0	31592	
6110	0	31672	
6111	0	31704	
6112	0	31740	
6113	0	31748	
6114	0	31644	
6115	0	31556	
6116	0	31472	
6117	0	31386	
6118	0	31316	
6119	0	31218	
6120	0	31120	
6121	0	30940	
6122	0	30552	
6123	0	30072	
6124	0	29504	
6125	0	28858	
6126	0	28296	
6127	0	27972	
6128	0	27848	
6129	0	27896	
6130	0	28160	
6131	0	28600	
6132	0	29192	
6133	0	30016	
6134	0	31040	
6135	0	32128	
6136	0	33468	
6137	0	34996	
6138	0	36572	
6139	0	38360	
6140	0	40608	
6141	0	43264	
6142	0	46224	
6143	0	49392	
6144	0	52684	
6145	0	55912	
6146	0	59136	
6147	0	62196	
6148	0	63944	
6149	0	64832	
6150	0	65256	
6151	0	65432	
6152	0	65472	
6153	0	65428	
6154	0	65348	
6155	0	65228	
6156	0	65116	
6157	0	65000	
6158	0	60272	
6159	0	55552	
6160	0	51728	
6161	0	48408	
6162	0	45596	
6163	0	43132	
6164	0	40858	
6165	0	38744	
6166	0	36816	
6167	0	34996	
6168	0	33220	
6169	0	31680	
6170	0	30368	
6171	0	29312	
6172	0	28556	
6173	0	28144	
6174	0	27936	
6175	0	27840	
6176	0	27712	
6177	0	27468	
6178	0	27228	
6179	0	27060	
6180	0	27012	
6181	0	27152	
6182	0	27328	
6183	0	27544	
6184	0	27780	
6185	0	28056	
6186	0	28314	
6187	0	28544	
6188	0	28820	
6189	0	29072	
6190	0	29268	
6191	0	29368	
6192	0	29424	
6193	0	29352	
6194	0	29240	
6195	0	29160	
6196	0	29088	
6197	0	28992	
6198	0	28864	
6199	0	28872	
6200	0	28836	
6201	0	28836	
6202	0	28868	
6203	0	28872	
6204	0	28840	
6205	0	28840	
6206	0	28924	
6207	0	29028	
6208	0	29104	
6209	0	29192	
6210	0	29320	
6211	0	29424	
6212	0	29460	
6213	0	29452	
6214	0	29464	
6215	0	29496	
6216	0	29524	
6217	0	29528	
6218	0	29530	
6219	0	29488	
6220	0	29440	
6221	0	29468	
6222	0	29520	
6223	0	29572	
6224	0	29636	
6225	0	29688	
6226	0	29752	
6227	0	29792	
6228	0	29888	
6229	0	29970	
6230	0	30028	
6231	0	30116	
6232	0	30220	
6233	0	30276	
6234	0	30288	
6235	0	30344	
6236	0	30400	
6237	0	30452	
6238	0	30440	
6239	0	30424	
6240	0	30440	
6241	0	30444	
6242	0	30492	
6243	0	30544	
6244	0	30624	
6245	0	30708	
6246	0	30776	
6247	0	30840	
6248	0	30904	
6249	0	30960	
6250	0	31000	
6251	0	31060	
6252	0	31146	
6253	0	31180	
6254	0	31200	
6255	0	31252	
6256	0	31208	
6257	0	31310	
6258	0	31360	
6259	0	31328	
6260	0	31364	
6261	0	31380	
6262	0	31336	
6263	0	31328	
6264	0	31468	
6265	0	31636	
6266	0	31812	
6267	0	31876	
6268	0	31936	
6269	0	32028	
6270	0	32072	
6271	0	32056	
6272	0	32092	
6273	0	32152	
6274	0	32224	
6275	0	32252	
6276	0	32232	
6277	0	32200	
6278	0	32168	
6279	0	32176	
6280	0	32260	
6281	0	32328	
6282	0	32384	
6283	0	32448	
6284	0	32544	
6285	0	32664	
6286	0	32794	
6287	0	32924	
6288	0	32992	
6289	0	33050	
6290	0	33188	
6291	0	33336	
6292	0	33456	
6293	0	33536	
6294	0	33604	
6295	0	33652	
6296	0	33688	
6297	0	33664	
6298	0	33656	
6299	0	33664	
6300	0	33648	
6301	0	33596	
6302	0	33620	
6303	0	33748	
6304	0	33848	
6305	0	33972	
6306	0	34156	
6307	0	34264	
6308	0	34316	
6309	0	34356	
6310	0	34460	
6311	0	34592	
6312	0	34720	
6313	0	34784	
6314	0	34776	
6315	0	34874	
6316	0	34992	
6317	0	35000	
6318	0	34972	
6319	0	35004	
6320	0	35048	
6321	0	35168	
6322	0	35256	
6323	0	35280	
6324	0	35276	
6325	0	35420	
6326	0	35548	
6327	0	35684	
6328	0	35856	
6329	0	36032	
6330	0	36160	
6331	0	36248	
6332	0	36320	
6333	0	36384	
6334	0	36400	
6335	0	36476	
6336	0	36556	
6337	0	36572	
6338	0	36628	
6339	0	36778	
6340	0	36864	
6341	0	36858	
6342	0	36940	
6343	0	37068	
6344	0	37244	
6345	0	37320	
6346	0	37428	
6347	0	37632	
6348	0	37872	
6349	0	38004	
6350	0	38016	
6351	0	38104	
6352	0	38236	
6353	0	38320	
6354	0	38336	
6355	0	38238	
6356	0	38056	
6357	0	37964	
6358	0	37980	
6359	0	38048	
6360	0	38180	
6361	0	38208	
6362	0	38152	
6363	0	38204	
6364	0	38276	
6365	0	38320	
6366	0	38416	
6367	0	38484	
6368	0	38560	
6369	0	38640	
6370	0	38680	
6371	0	38720	
6372	0	38696	
6373	0	38588	
6374	0	38508	
6375	0	38520	
6376	0	38552	
6377	0	38512	
6378	0	38376	
6379	0	38298	
6380	0	38292	
6381	0	38248	
6382	0	38256	
6383	0	38256	
6384	0	38180	
6385	0	38108	
6386	0	38048	
6387	0	37944	
6388	0	37840	
6389	0	37788	
6390	0	37768	
6391	0	37728	
6392	0	37560	
6393	0	37388	
6394	0	37208	
6395	0	37000	
6396	0	36776	
6397	0	36544	
6398	0	36264	
6399	0	35968	
6400	0	35688	
6401	0	35424	
6402	0	35144	
6403	0	34938	
6404	0	34796	
6405	0	34536	
6406	0	34288	
6407	0	34064	
6408	0	33836	
6409	0	33624	
6410	0	33404	
6411	0	33176	
6412	0	32968	
6413	0	32744	
6414	0	32556	
6415	0	32304	
6416	0	32052	
6417	0	31828	
6418	0	31568	
6419	0	31268	
6420	0	30976	
6421	0	30792	
6422	0	30672	
6423	0	30476	
6424	0	30272	
6425	0	30036	
6426	0	29856	
6427	0	29698	
6428	0	29580	
6429	0	29512	
6430	0	29480	
6431	0	29476	
6432	0	29436	
6433	0	29280	
6434	0	29132	
6435	0	29016	
6436	0	28884	
6437	0	28768	
6438	0	28696	
6439	0	28634	
6440	0	28512	
6441	0	28364	
6442	0	28284	
6443	0	28250	
6444	0	28188	
6445	0	28152	
6446	0	28236	
6447	0	28312	
6448	0	28376	
6449	0	28396	
6450	0	28384	
6451	0	28376	
6452	0	28388	
6453	0	28346	
6454	0	28301	
6455	0	28266	
6456	0	28308	
6457	0	28330	
6458	0	28332	
6459	0	28338	
6460	0	28364	
6461	0	28320	
6462	0	28228	
6463	0	28120	
6464	0	28132	
6465	0	28216	
6466	0	28308	
6467	0	28352	
6468	0	28384	
6469	0	28460	
6470	0	28552	
6471	0	28616	
6472	0	28672	
6473	0	28756	
6474	0	28856	
6475	0	28866	
6476	0	28868	
6477	0	28864	
6478	0	28848	
6479	0	28824	
6480	0	28832	
6481	0	28864	
6482	0	28928	
6483	0	29024	
6484	0	29076	
6485	0	29120	
6486	0	29188	
6487	0	29252	
6488	0	29324	
6489	0	29388	
6490	0	29456	
6491	0	29544	
6492	0	29648	
6493	0	29752	
6494	0	29816	
6495	0	29832	
6496	0	29812	
6497	0	29870	
6498	0	29976	
6499	0	30032	
6500	0	29940	
6501	0	29936	
6502	0	30084	
6503	0	30224	
6504	0	30256	
6505	0	30312	
6506	0	30394	
6507	0	30484	
6508	0	30568	
6509	0	30644	
6510	0	30648	
6511	0	30656	
6512	0	30796	
6513	0	30912	
6514	0	30936	
6515	0	30912	
6516	0	30880	
6517	0	30852	
6518	0	30906	
6519	0	31004	
6520	0	31028	
6521	0	30948	
6522	0	30876	
6523	0	30892	
6524	0	31000	
6525	0	31092	
6526	0	31152	
6527	0	31224	
6528	0	31296	
6529	0	31348	
6530	0	31396	
6531	0	31456	
6532	0	31496	
6533	0	31505	
6534	0	31548	
6535	0	31576	
6536	0	31588	
6537	0	31624	
6538	0	31608	
6539	0	31636	
6540	0	31706	
6541	0	31712	
6542	0	31696	
6543	0	31660	
6544	0	31624	
6545	0	31712	
6546	0	31824	
6547	0	31840	
6548	0	31820	
6549	0	31828	
6550	0	31900	
6551	0	31972	
6552	0	31980	
6553	0	31984	
6554	0	31936	
6555	0	31904	
6556	0	31896	
6557	0	31920	
6558	0	31970	
6559	0	31964	
6560	0	31936	
6561	0	31924	
6562	0	31848	
6563	0	31822	
6564	0	31868	
6565	0	31900	
6566	0	32016	
6567	0	32156	
6568	0	32200	
6569	0	32256	
6570	0	32266	
6571	0	32196	
6572	0	32152	
6573	0	32176	
6574	0	32184	
6575	0	32148	
6576	0	32072	
6577	0	32124	
6578	0	32188	
6579	0	32144	
6580	0	32052	
6581	0	32008	
6582	0	32008	
6583	0	32002	
6584	0	31984	
6585	0	31984	
6586	0	31964	
6587	0	31968	
6588	0	32100	
6589	0	32202	
6590	0	32276	
6591	0	32320	
6592	0	32312	
6593	0	32256	
6594	0	32212	
6595	0	32180	
6596	0	32108	
6597	0	32064	
6598	0	32056	
6599	0	32032	
6600	0	31996	
6601	0	31936	
6602	0	31956	
6603	0	31924	
6604	0	31916	
6605	0	31980	
6606	0	32000	
6607	0	32060	
6608	0	32160	
6609	0	32280	
6610	0	32312	
6611	0	32320	
6612	0	32336	
6613	0	32336	
6614	0	32276	
6615	0	32200	
6616	0	32116	
6617	0	32036	
6618	0	31984	
6619	0	31928	
6620	0	31856	
6621	0	31824	
6622	0	31728	
6623	0	31792	
6624	0	31892	
6625	0	31880	
6626	0	31892	
6627	0	31992	
6628	0	32060	
6629	0	32048	
6630	0	32049	
6631	0	32052	
6632	0	32108	
6633	0	32180	
6634	0	32228	
6635	0	32236	
6636	0	32160	
6637	0	32082	
6638	0	32032	
6639	0	32012	
6640	0	32020	
6641	0	32008	
6642	0	32000	
6643	0	31908	
6644	0	31844	
6645	0	31844	
6646	0	31944	
6647	0	32020	
6648	0	32032	
6649	0	32104	
6650	0	32256	
6651	0	32372	
6652	0	32480	
6653	0	32568	
6654	0	32592	
6655	0	32648	
6656	0	32632	
6657	0	32580	
6658	0	32640	
6659	0	32714	
6660	0	32786	
6661	0	32864	
6662	0	32880	
6663	0	32876	
6664	0	32936	
6665	0	33036	
6666	0	33096	
6667	0	33128	
6668	0	33148	
6669	0	33160	
6670	0	33176	
6671	0	33148	
6672	0	33068	
6673	0	32992	
6674	0	32986	
6675	0	32996	
6676	0	33004	
6677	0	33032	
6678	0	33054	
6679	0	33152	
6680	0	33332	
6681	0	33572	
6682	0	33832	
6683	0	34152	
6684	0	34458	
6685	0	34788	
6686	0	35008	
6687	0	35128	
6688	0	35220	
6689	0	35392	
6690	0	35580	
6691	0	35716	
6692	0	35718	
6693	0	35656	
6694	0	35580	
6695	0	35480	
6696	0	35312	
6697	0	35096	
6698	0	34940	
6699	0	34808	
6700	0	34616	
6701	0	34468	
6702	0	34416	
6703	0	34340	
6704	0	34272	
6705	0	34192	
6706	0	34084	
6707	0	33962	
6708	0	33852	
6709	0	33752	
6710	0	33632	
6711	0	33472	
6712	0	33320	
6713	0	33240	
6714	0	33160	
6715	0	32976	
6716	0	32714	
6717	0	32660	
6718	0	32626	
6719	0	32504	
6720	0	32352	
6721	0	32212	
6722	0	32090	
6723	0	31952	
6724	0	31908	
6725	0	31870	
6726	0	31836	
6727	0	31808	
6728	0	31746	
6729	0	31724	
6730	0	31696	
6731	0	31608	
6732	0	31512	
6733	0	31416	
6734	0	31264	
6735	0	31136	
6736	0	31080	
6737	0	31036	
6738	0	30996	
6739	0	30996	
6740	0	30996	
6741	0	31004	
6742	0	30952	
6743	0	30920	
6744	0	30856	
6745	0	30916	
6746	0	30980	
6747	0	31000	
6748	0	31044	
6749	0	31128	
6750	0	31188	
6751	0	31224	
6752	0	31280	
6753	0	31340	
6754	0	31312	
6755	0	31292	
6756	0	31264	
6757	0	31216	
6758	0	31160	
6759	0	31096	
6760	0	31084	
6761	0	31156	
6762	0	31164	
6763	0	31172	
6764	0	31212	
6765	0	31268	
6766	0	31326	
6767	0	31372	
6768	0	31416	
6769	0	31444	
6770	0	31440	
6771	0	31480	
6772	0	31504	
6773	0	31540	
6774	0	31586	
6775	0	31536	
6776	0	31438	
6777	0	31344	
6778	0	31196	
6779	0	30996	
6780	0	30764	
6781	0	30392	
6782	0	29876	
6783	0	29204	
6784	0	28565	
6785	0	28116	
6786	0	27884	
6787	0	27864	
6788	0	28036	
6789	0	28416	
6790	0	29004	
6791	0	29712	
6792	0	30688	
6793	0	31856	
6794	0	33164	
6795	0	34608	
6796	0	36096	
6797	0	37680	
6798	0	39696	
6799	0	42148	
6800	0	44954	
6801	0	48040	
6802	0	51292	
6803	0	54464	
6804	0	57564	
6805	0	60768	
6806	0	62888	
6807	0	64000	
6808	0	64536	
6809	0	64784	
6810	0	64840	
6811	0	64816	
6812	0	64736	
6813	0	64672	
6814	0	64536	
6815	0	64424	
6816	0	61912	
6817	0	56864	
6818	0	52764	
6819	0	49236	
6820	0	46200	
6821	0	43644	
6822	0	41240	
6823	0	38976	
6824	0	36952	
6825	0	35136	
6826	0	33404	
6827	0	31816	
6828	0	30504	
6829	0	29464	
6830	0	28664	
6831	0	28160	
6832	0	27920	
6833	0	27836	
6834	0	27840	
6835	0	27676	
6836	0	27392	
6837	0	27172	
6838	0	27056	
6839	0	27048	
6840	0	27176	
6841	0	27380	
6842	0	27596	
6843	0	27844	
6844	0	28108	
6845	0	28316	
6846	0	28496	
6847	0	28672	
6848	0	28832	
6849	0	28968	
6850	0	29012	
6851	0	28968	
6852	0	28968	
6853	0	28966	
6854	0	28952	
6855	0	28924	
6856	0	28849	
6857	0	28792	
6858	0	28730	
6859	0	28680	
6860	0	28656	
6861	0	28640	
6862	0	28616	
6863	0	28648	
6864	0	28696	
6865	0	28736	
6866	0	28784	
6867	0	28888	
6868	0	29004	
6869	0	29120	
6870	0	29196	
6871	0	29216	
6872	0	29232	
6873	0	29228	
6874	0	29220	
6875	0	29248	
6876	0	29312	
6877	0	29348	
6878	0	29368	
6879	0	29376	
6880	0	29348	
6881	0	29324	
6882	0	29356	
6883	0	29428	
6884	0	29464	
6885	0	29488	
6886	0	29560	
6887	0	29612	
6888	0	29660	
6889	0	29778	
6890	0	29884	
6891	0	29964	
6892	0	30068	
6893	0	30162	
6894	0	30200	
6895	0	30194	
6896	0	30148	
6897	0	30156	
6898	0	30160	
6899	0	30168	
6900	0	30172	
6901	0	30184	
6902	0	30212	
6903	0	30266	
6904	0	30304	
6905	0	30396	
6906	0	30500	
6907	0	30580	
6908	0	30696	
6909	0	30800	
6910	0	30860	
6911	0	30912	
6912	0	31000	
6913	0	31136	
6914	0	31224	
6915	0	31252	
6916	0	31272	
6917	0	31258	
6918	0	31236	
6919	0	31232	
6920	0	31228	
6921	0	31252	
6922	0	31348	
6923	0	31492	
6924	0	31592	
6925	0	31664	
6926	0	31744	
6927	0	31850	
6928	0	31928	
6929	0	31956	
6930	0	32032	
6931	0	32080	
6932	0	32144	
6933	0	32160	
6934	0	32204	
6935	0	32218	
6936	0	32204	
6937	0	32204	
6938	0	32238	
6939	0	32272	
6940	0	32324	
6941	0	32308	
6942	0	32300	
6943	0	32368	
6944	0	32508	
6945	0	32682	
6946	0	32772	
6947	0	32840	
6948	0	32926	
6949	0	33024	
6950	0	33096	
6951	0	33100	
6952	0	33136	
6953	0	33232	
6954	0	33284	
6955	0	33340	
6956	0	33412	
6957	0	33440	
6958	0	33432	
6959	0	33376	
6960	0	33376	
6961	0	33408	
6962	0	33500	
6963	0	33604	
6964	0	33732	
6965	0	33848	
6966	0	33976	
6967	0	34084	
6968	0	34180	
6969	0	34272	
6970	0	34360	
6971	0	34416	
6972	0	34456	
6973	0	34516	
6974	0	34564	
6975	0	34624	
6976	0	34616	
6977	0	34600	
6978	0	34680	
6979	0	34788	
6980	0	34900	
6981	0	34984	
6982	0	35036	
6983	0	35120	
6984	0	35224	
6985	0	35412	
6986	0	35546	
6987	0	35668	
6988	0	35796	
6989	0	35916	
6990	0	36060	
6991	0	36144	
6992	0	36196	
6993	0	36232	
6994	0	36284	
6995	0	36376	
6996	0	36468	
6997	0	36548	
6998	0	36624	
6999	0	36680	
7000	0	36732	
7001	0	36756	
7002	0	36792	
7003	0	36848	
7004	0	36936	
7005	0	37024	
7006	0	37122	
7007	0	37256	
7008	0	37384	
7009	0	37536	
7010	0	37676	
7011	0	37768	
7012	0	37864	
7013	0	37948	
7014	0	37988	
7015	0	38020	
7016	0	38036	
7017	0	38060	
7018	0	38068	
7019	0	38096	
7020	0	38116	
7021	0	38144	
7022	0	38128	
7023	0	38142	
7024	0	38196	
7025	0	38296	
7026	0	38340	
7027	0	38328	
7028	0	38324	
7029	0	38368	
7030	0	38404	
7031	0	38436	
7032	0	38408	
7033	0	38440	
7034	0	38492	
7035	0	38484	
7036	0	38468	
7037	0	38456	
7038	0	38360	
7039	0	38216	
7040	0	38096	
7041	0	38028	
7042	0	37968	
7043	0	37928	
7044	0	37884	
7045	0	37824	
7046	0	37776	
7047	0	37708	
7048	0	37652	
7049	0	37536	
7050	0	37424	
7051	0	37292	
7052	0	37176	
7053	0	37072	
7054	0	36896	
7055	0	36664	
7056	0	36428	
7057	0	36136	
7058	0	35838	
7059	0	35552	
7060	0	35264	
7061	0	35016	
7062	0	34744	
7063	0	34508	
7064	0	34276	
7065	0	34016	
7066	0	33796	
7067	0	33600	
7068	0	33428	
7069	0	33272	
7070	0	33132	
7071	0	32992	
7072	0	32784	
7073	0	32436	
7074	0	32080	
7075	0	31804	
7076	0	31604	
7077	0	31384	
7078	0	31164	
7079	0	30976	
7080	0	30796	
7081	0	30628	
7082	0	30440	
7083	0	30236	
7084	0	30026	
7085	0	29864	
7086	0	29744	
7087	0	29608	
7088	0	29500	
7089	0	29416	
7090	0	29372	
7091	0	29260	
7092	0	29136	
7093	0	29046	
7094	0	28976	
7095	0	28900	
7096	0	28776	
7097	0	28576	
7098	0	28410	
7099	0	28256	
7100	0	28104	
7101	0	28048	
7102	0	28088	
7103	0	28108	
7104	0	28124	
7105	0	28158	
7106	0	28212	
7107	0	28220	
7108	0	28240	
7109	0	28240	
7110	0	28288	
7111	0	28316	
7112	0	28364	
7113	0	28420	
7114	0	28408	
7115	0	28368	
7116	0	28236	
7117	0	28132	
7118	0	28052	
7119	0	27984	
7120	0	27912	
7121	0	27850	
7122	0	27772	
7123	0	27780	
7124	0	27840	
7125	0	27940	
7126	0	27980	
7127	0	28020	
7128	0	28068	
7129	0	28136	
7130	0	28240	
7131	0	28380	
7132	0	28504	
7133	0	28576	
7134	0	28600	
7135	0	28616	
7136	0	28648	
7137	0	28640	
7138	0	28652	
7139	0	28680	
7140	0	28712	
7141	0	28728	
7142	0	28704	
7143	0	28732	
7144	0	28776	
7145	0	28826	
7146	0	28936	
7147	0	29060	
7148	0	29144	
7149	0	29184	
7150	0	29232	
7151	0	29312	
7152	0	29424	
7153	0	29492	
7154	0	29516	
7155	0	29532	
7156	0	29528	
7157	0	29520	
7158	0	29536	
7159	0	29548	
7160	0	29556	
7161	0	29613	
7162	0	29680	
7163	0	29720	
7164	0	29776	
7165	0	29856	
7166	0	29900	
7167	0	29904	
7168	0	29946	
7169	0	30040	
7170	0	30096	
7171	0	30160	
7172	0	30184	
7173	0	30192	
7174	0	30176	
7175	0	30196	
7176	0	30240	
7177	0	30240	
7178	0	30248	
7179	0	30274	
7180	0	30250	
7181	0	30224	
7182	0	30292	
7183	0	30376	
7184	0	30464	
7185	0	30528	
7186	0	30612	
7187	0	30716	
7188	0	30840	
7189	0	30960	
7190	0	30984	
7191	0	30944	
7192	0	30944	
7193	0	30980	
7194	0	31008	
7195	0	30976	
7196	0	30904	
7197	0	30932	
7198	0	30994	
7199	0	30988	
7200	0	30924	
7201	0	30872	
7202	0	30892	
7203	0	30944	
7204	0	31000	
7205	0	31076	
7206	0	31144	
7207	0	31232	
7208	0	31336	
7209	0	31400	
7210	0	31440	
7211	0	31432	
7212	0	31416	
7213	0	31444	
7214	0	31440	
7215	0	31408	
7216	0	31388	
7217	0	31344	
7218	0	31312	
7219	0	31324	
7220	0	31324	
7221	0	31272	
7222	0	31260	
7223	0	31288	
7224	0	31320	
7225	0	31358	
7226	0	31384	
7227	0	31436	
7228	0	31520	
7229	0	31680	
7230	0	31782	
7231	0	31772	
7232	0	31752	
7233	0	31690	
7234	0	31708	
7235	0	31720	
7236	0	31708	
7237	0	31648	
7238	0	31584	
7239	0	31572	
7240	0	31496	
7241	0	31444	
7242	0	31420	
7243	0	31404	
7244	0	31440	
7245	0	31502	
7246	0	31532	
7247	0	31556	
7248	0	31576	
7249	0	31596	
7250	0	31596	
7251	0	31612	
7252	0	31702	
7253	0	31768	
7254	0	31784	
7255	0	31760	
7256	0	31708	
7257	0	31610	
7258	0	31492	
7259	0	31416	
7260	0	31368	
7261	0	31362	
7262	0	31384	
7263	0	31392	
7264	0	31380	
7265	0	31392	
7266	0	31416	
7267	0	31496	
7268	0	31556	
7269	0	31604	
7270	0	31660	
7271	0	31664	
7272	0	31688	
7273	0	31720	
7274	0	31704	
7275	0	31696	
7276	0	31628	
7277	0	31588	
7278	0	31524	
7279	0	31392	
7280	0	31312	
7281	0	31246	
7282	0	31216	
7283	0	31210	
7284	0	31216	
7285	0	31240	
7286	0	31276	
7287	0	31316	
7288	0	31404	
7289	0	31484	
7290	0	31558	
7291	0	31608	
7292	0	31600	
7293	0	31616	
7294	0	31608	
7295	0	31568	
7296	0	31498	
7297	0	31448	
7298	0	31432	
7299	0	31416	
7300	0	31412	
7301	0	31470	
7302	0	31536	
7303	0	31532	
7304	0	31572	
7305	0	31576	
7306	0	31530	
7307	0	31496	
7308	0	31436	
7309	0	31432	
7310	0	31504	
7311	0	31620	
7312	0	31720	
7313	0	31792	
7314	0	31784	
7315	0	31768	
7316	0	31804	
7317	0	31856	
7318	0	31852	
7319	0	31888	
7320	0	31932	
7321	0	31944	
7322	0	31912	
7323	0	31904	
7324	0	31968	
7325	0	32096	
7326	0	32224	
7327	0	32390	
7328	0	32568	
7329	0	32724	
7330	0	32840	
7331	0	32940	
7332	0	33028	
7333	0	33050	
7334	0	32960	
7335	0	32848	
7336	0	32776	
7337	0	32700	
7338	0	32632	
7339	0	32532	
7340	0	32440	
7341	0	32372	
7342	0	32400	
7343	0	32416	
7344	0	32448	
7345	0	32552	
7346	0	32736	
7347	0	32992	
7348	0	33328	
7349	0	33708	
7350	0	34076	
7351	0	34368	
7352	0	34624	
7353	0	34848	
7354	0	35080	
7355	0	35316	
7356	0	35500	
7357	0	35604	
7358	0	35648	
7359	0	35572	
7360	0	35488	
7361	0	35372	
7362	0	35200	
7363	0	35024	
7364	0	34900	
7365	0	34868	
7366	0	34832	
7367	0	34756	
7368	0	34674	
7369	0	34592	
7370	0	34500	
7371	0	34368	
7372	0	34218	
7373	0	34112	
7374	0	33968	
7375	0	33826	
7376	0	33632	
7377	0	33352	
7378	0	33144	
7379	0	33056	
7380	0	32956	
7381	0	32804	
7382	0	32660	
7383	0	32492	
7384	0	32440	
7385	0	32464	
7386	0	32444	
7387	0	32396	
7388	0	32282	
7389	0	32200	
7390	0	32160	
7391	0	32084	
7392	0	31936	
7393	0	31780	
7394	0	31668	
7395	0	31568	
7396	0	31456	
7397	0	31340	
7398	0	31236	
7399	0	31072	
7400	0	30900	
7401	0	30772	
7402	0	30656	
7403	0	30592	
7404	0	30628	
7405	0	30720	
7406	0	30808	
7407	0	30832	
7408	0	30840	
7409	0	30892	
7410	0	30968	
7411	0	31000	
7412	0	31018	
7413	0	31012	
7414	0	31052	
7415	0	31048	
7416	0	31072	
7417	0	31060	
7418	0	31036	
7419	0	30984	
7420	0	30936	
7421	0	30916	
7422	0	30920	
7423	0	30968	
7424	0	30984	
7425	0	30992	
7426	0	31024	
7427	0	31076	
7428	0	31136	
7429	0	31266	
7430	0	31340	
7431	0	31380	
7432	0	31386	
7433	0	31356	
7434	0	31336	
7435	0	31300	
7436	0	31264	
7437	0	31272	
7438	0	31278	
7439	0	31328	
7440	0	31384	
7441	0	31396	
7442	0	31420	
7443	0	31408	
7444	0	31352	
7445	0	31288	
7446	0	31104	
7447	0	30792	
7448	0	30368	
7449	0	29820	
7450	0	29204	
7451	0	28610	
7452	0	28196	
7453	0	28042	
7454	0	28096	
7455	0	28290	
7456	0	28680	
7457	0	29252	
7458	0	30072	
7459	0	31192	
7460	0	32488	
7461	0	33832	
7462	0	35280	
7463	0	36828	
7464	0	38520	
7465	0	40588	
7466	0	43084	
7467	0	45952	
7468	0	49008	
7469	0	52140	
7470	0	55268	
7471	0	58344	
7472	0	61408	
7473	0	63296	
7474	0	64272	
7475	0	64752	
7476	0	64948	
7477	0	64992	
7478	0	64960	
7479	0	64880	
7480	0	64776	
7481	0	64664	
7482	0	61504	
7483	0	56016	
7484	0	51116	
7485	0	47000	
7486	0	43536	
7487	0	40756	
7488	0	38476	
7489	0	36532	
7490	0	34752	
7491	0	33124	
7492	0	31480	
7493	0	29760	
7494	0	28162	
7495	0	26828	
7496	0	25840	
7497	0	25252	
7498	0	24868	
7499	0	24788	
7500	0	24904	
7501	0	25088	
7502	0	25192	
7503	0	25172	
7504	0	25162	
7505	0	25276	
7506	0	25522	
7507	0	25818	
7508	0	26172	
7509	0	26568	
7510	0	26960	
7511	0	27360	
7512	0	27764	
7513	0	28112	
7514	0	28432	
7515	0	28670	
7516	0	28848	
7517	0	28980	
7518	0	29092	
7519	0	29160	
7520	0	29132	
7521	0	29148	
7522	0	29228	
7523	0	29276	
7524	0	29240	
7525	0	29236	
7526	0	29268	
7527	0	29292	
7528	0	29372	
7529	0	29444	
7530	0	29484	
7531	0	29556	
7532	0	29572	
7533	0	29592	
7534	0	29616	
7535	0	29640	
7536	0	29636	
7537	0	29632	
7538	0	29660	
7539	0	29697	
7540	0	29712	
7541	0	29772	
7542	0	29824	
7543	0	29848	
7544	0	29852	
7545	0	29852	
7546	0	29936	
7547	0	30084	
7548	0	30196	
7549	0	30312	
7550	0	30336	
7551	0	30384	
7552	0	30448	
7553	0	30512	
7554	0	30568	
7555	0	30552	
7556	0	30536	
7557	0	30532	
7558	0	30556	
7559	0	30588	
7560	0	30612	
7561	0	30664	
7562	0	30712	
7563	0	30752	
7564	0	30804	
7565	0	30892	
7566	0	30976	
7567	0	31056	
7568	0	31104	
7569	0	31120	
7570	0	31172	
7571	0	31236	
7572	0	31312	
7573	0	31420	
7574	0	31496	
7575	0	31500	
7576	0	31468	
7577	0	31436	
7578	0	31332	
7579	0	31308	
7580	0	31396	
7581	0	31544	
7582	0	31664	
7583	0	31712	
7584	0	31752	
7585	0	31856	
7586	0	31988	
7587	0	32112	
7588	0	32236	
7589	0	32352	
7590	0	32376	
7591	0	32376	
7592	0	32448	
7593	0	32464	
7594	0	32516	
7595	0	32526	
7596	0	32456	
7597	0	32368	
7598	0	32348	
7599	0	32368	
7600	0	32414	
7601	0	32546	
7602	0	32616	
7603	0	32632	
7604	0	32728	
7605	0	32812	
7606	0	32832	
7607	0	32922	
7608	0	33076	
7609	0	33224	
7610	0	33312	
7611	0	33404	
7612	0	33504	
7613	0	33620	
7614	0	33592	
7615	0	33544	
7616	0	33512	
7617	0	33472	
7618	0	33452	
7619	0	33520	
7620	0	33572	
7621	0	33620	
7622	0	33688	
7623	0	33764	
7624	0	33826	
7625	0	33924	
7626	0	34024	
7627	0	34112	
7628	0	34176	
7629	0	34256	
7630	0	34370	
7631	0	34420	
7632	0	34520	
7633	0	34632	
7634	0	34744	
7635	0	34858	
7636	0	34940	
7637	0	34980	
7638	0	34972	
7639	0	34892	
7640	0	34840	
7641	0	34872	
7642	0	34944	
7643	0	35040	
7644	0	35192	
7645	0	35304	
7646	0	35396	
7647	0	35492	
7648	0	35556	
7649	0	35644	
7650	0	35760	
7651	0	35856	
7652	0	35948	
7653	0	36036	
7654	0	36092	
7655	0	36152	
7656	0	36208	
7657	0	36204	
7658	0	36232	
7659	0	36296	
7660	0	36368	
7661	0	36488	
7662	0	36572	
7663	0	36608	
7664	0	36704	
7665	0	36814	
7666	0	36896	
7667	0	36976	
7668	0	37124	
7669	0	37296	
7670	0	37436	
7671	0	37576	
7672	0	37744	
7673	0	37852	
7674	0	37900	
7675	0	37928	
7676	0	37908	
7677	0	37912	
7678	0	37904	
7679	0	37952	
7680	0	38074	
7681	0	38196	
7682	0	38242	
7683	0	38264	
7684	0	38320	
7685	0	38400	
7686	0	38484	
7687	0	38568	
7688	0	38584	
7689	0	38568	
7690	0	38576	
7691	0	38592	
7692	0	38660	
7693	0	38672	
7694	0	38592	
7695	0	38560	
7696	0	38484	
7697	0	38396	
7698	0	38318	
7699	0	38284	
7700	0	38264	
7701	0	38232	
7702	0	38212	
7703	0	38192	
7704	0	38188	
7705	0	38172	
7706	0	38180	
7707	0	38144	
7708	0	38152	
7709	0	38228	
7710	0	38272	
7711	0	38208	
7712	0	38140	
7713	0	38016	
7714	0	37844	
7715	0	37688	
7716	0	37556	
7717	0	37384	
7718	0	37232	
7719	0	37004	
7720	0	36808	
7721	0	36636	
7722	0	36464	
7723	0	36232	
7724	0	36000	
7725	0	35816	
7726	0	35648	
7727	0	35502	
7728	0	35316	
7729	0	35088	
7730	0	34888	
7731	0	34706	
7732	0	34464	
7733	0	34240	
7734	0	34016	
7735	0	33796	
7736	0	33600	
7737	0	33376	
7738	0	33104	
7739	0	32768	
7740	0	32424	
7741	0	32152	
7742	0	31936	
7743	0	31720	
7744	0	31520	
7745	0	31336	
7746	0	31152	
7747	0	30976	
7748	0	30820	
7749	0	30714	
7750	0	30616	
7751	0	30450	
7752	0	30304	
7753	0	30202	
7754	0	30108	
7755	0	29998	
7756	0	29770	
7757	0	29516	
7758	0	29276	
7759	0	29084	
7760	0	28926	
7761	0	28852	
7762	0	28788	
7763	0	28692	
7764	0	28596	
7765	0	28508	
7766	0	28460	
7767	0	28436	
7768	0	28404	
7769	0	28376	
7770	0	28388	
7771	0	28440	
7772	0	28464	
7773	0	28448	
7774	0	28424	
7775	0	28372	
7776	0	28304	
7777	0	28228	
7778	0	28112	
7779	0	28032	
7780	0	27968	
7781	0	27936	
7782	0	27936	
7783	0	27912	
7784	0	27890	
7785	0	27892	
7786	0	27936	
7787	0	27964	
7788	0	28012	
7789	0	28048	
7790	0	28076	
7791	0	28056	
7792	0	28052	
7793	0	28096	
7794	0	28138	
7795	0	28156	
7796	0	28160	
7797	0	28128	
7798	0	28084	
7799	0	28092	
7800	0	28128	
7801	0	28164	
7802	0	28192	
7803	0	28270	
7804	0	28330	
7805	0	28332	
7806	0	28348	
7807	0	28392	
7808	0	28476	
7809	0	28576	
7810	0	28676	
7811	0	28796	
7812	0	28918	
7813	0	28980	
7814	0	29036	
7815	0	29044	
7816	0	29040	
7817	0	29018	
7818	0	28968	
7819	0	28928	
7820	0	28960	
7821	0	28996	
7822	0	29034	
7823	0	29056	
7824	0	29072	
7825	0	29164	
7826	0	29362	
7827	0	29524	
7828	0	29632	
7829	0	29720	
7830	0	29752	
7831	0	29748	
7832	0	29788	
7833	0	29880	
7834	0	29956	
7835	0	30004	
7836	0	30048	
7837	0	30068	
7838	0	30040	
7839	0	30032	
7840	0	30034	
7841	0	30052	
7842	0	30092	
7843	0	30176	
7844	0	30224	
7845	0	30304	
7846	0	30412	
7847	0	30576	
7848	0	30674	
7849	0	30728	
7850	0	30712	
7851	0	30690	
7852	0	30656	
7853	0	30666	
7854	0	30648	
7855	0	30688	
7856	0	30732	
7857	0	30698	
7858	0	30658	
7859	0	30668	
7860	0	30728	
7861	0	30768	
7862	0	30796	
7863	0	30764	
7864	0	30712	
7865	0	30720	
7866	0	30786	
7867	0	30842	
7868	0	30884	
7869	0	30992	
7870	0	31092	
7871	0	31212	
7872	0	31320	
7873	0	31404	
7874	0	31428	
7875	0	31436	
7876	0	31468	
7877	0	31496	
7878	0	31500	
7879	0	31522	
7880	0	31528	
7881	0	31456	
7882	0	31396	
7883	0	31384	
7884	0	31420	
7885	0	31456	
7886	0	31522	
7887	0	31592	
7888	0	31614	
7889	0	31624	
7890	0	31676	
7891	0	31704	
7892	0	31740	
7893	0	31808	
7894	0	31828	
7895	0	31816	
7896	0	31832	
7897	0	31826	
7898	0	31840	
7899	0	31840	
7900	0	31784	
7901	0	31688	
7902	0	31624	
7903	0	31560	
7904	0	31536	
7905	0	31588	
7906	0	31700	
7907	0	31816	
7908	0	31832	
7909	0	31800	
7910	0	31778	
7911	0	31752	
7912	0	31722	
7913	0	31672	
7914	0	31626	
7915	0	31592	
7916	0	31584	
7917	0	31584	
7918	0	31544	
7919	0	31464	
7920	0	31428	
7921	0	31456	
7922	0	31548	
7923	0	31600	
7924	0	31574	
7925	0	31546	
7926	0	31472	
7927	0	31392	
7928	0	31420	
7929	0	31540	
7930	0	31664	
7931	0	31688	
7932	0	31712	
7933	0	31708	
7934	0	31630	
7935	0	31534	
7936	0	31514	
7937	0	31528	
7938	0	31552	
7939	0	31520	
7940	0	31452	
7941	0	31382	
7942	0	31404	
7943	0	31436	
7944	0	31456	
7945	0	31472	
7946	0	31500	
7947	0	31560	
7948	0	31636	
7949	0	31668	
7950	0	31660	
7951	0	31660	
7952	0	31688	
7953	0	31648	
7954	0	31584	
7955	0	31528	
7956	0	31492	
7957	0	31472	
7958	0	31452	
7959	0	31364	
7960	0	31364	
7961	0	31412	
7962	0	31468	
7963	0	31520	
7964	0	31636	
7965	0	31778	
7966	0	31936	
7967	0	32036	
7968	0	32016	
7969	0	32000	
7970	0	32046	
7971	0	32156	
7972	0	32320	
7973	0	32464	
7974	0	32568	
7975	0	32620	
7976	0	32620	
7977	0	32632	
7978	0	32620	
7979	0	32568	
7980	0	32512	
7981	0	32464	
7982	0	32472	
7983	0	32516	
7984	0	32476	
7985	0	32430	
7986	0	32432	
7987	0	32464	
7988	0	32480	
7989	0	32500	
7990	0	32532	
7991	0	32680	
7992	0	32892	
7993	0	33104	
7994	0	33276	
7995	0	33420	
7996	0	33588	
7997	0	33800	
7998	0	34020	
7999	0	34200	
8000	0	34368	
8001	0	34540	
8002	0	34624	
8003	0	34660	
8004	0	34656	
8005	0	34692	
8006	0	34760	
8007	0	34748	
8008	0	34672	
8009	0	34596	
8010	0	34496	
8011	0	34352	
8012	0	34192	
8013	0	34016	
8014	0	33884	
8015	0	33768	
8016	0	33676	
8017	0	33596	
8018	0	33496	
8019	0	33368	
8020	0	33136	
8021	0	32892	
8022	0	32624	
8023	0	32468	
8024	0	32418	
8025	0	32430	
8026	0	32376	
8027	0	32282	
8028	0	32184	
8029	0	32140	
8030	0	32104	
8031	0	32048	
8032	0	31992	
8033	0	31972	
8034	0	31872	
8035	0	31740	
8036	0	31592	
8037	0	31444	
8038	0	31296	
8039	0	31132	
8040	0	30984	
8041	0	30880	
8042	0	30768	
8043	0	30656	
8044	0	30624	
8045	0	30624	
8046	0	30648	
8047	0	30672	
8048	0	30640	
8049	0	30624	
8050	0	30612	
8051	0	30648	
8052	0	30688	
8053	0	30710	
8054	0	30688	
8055	0	30632	
8056	0	30596	
8057	0	30552	
8058	0	30530	
8059	0	30528	
8060	0	30600	
8061	0	30660	
8062	0	30680	
8063	0	30640	
8064	0	30624	
8065	0	30688	
8066	0	30780	
8067	0	30788	
8068	0	30808	
8069	0	30860	
8070	0	30944	
8071	0	30996	
8072	0	31080	
8073	0	31148	
8074	0	31164	
8075	0	31164	
8076	0	31144	
8077	0	31100	
8078	0	31020	
8079	0	30920	
8080	0	30884	
8081	0	30888	
8082	0	30918	
8083	0	30976	
8084	0	31000	
8085	0	31004	
8086	0	31052	
8087	0	31160	
8088	0	31272	
8089	0	31344	
8090	0	31412	
8091	0	31388	
8092	0	31272	
8093	0	31060	
8094	0	30760	
8095	0	30248	
8096	0	29552	
8097	0	28892	
8098	0	28404	
8099	0	28092	
8100	0	27978	
8101	0	28024	
8102	0	28256	
8103	0	28712	
8104	0	29466	
8105	0	30524	
8106	0	31740	
8107	0	33088	
8108	0	34548	
8109	0	36124	
8110	0	37872	
8111	0	39924	
8112	0	42280	
8113	0	45024	
8114	0	47940	
8115	0	50848	
8116	0	53808	
8117	0	56684	
8118	0	59592	
8119	0	62280	
8120	0	63828	
8121	0	64600	
8122	0	64968	
8123	0	65120	
8124	0	65136	
8125	0	65080	
8126	0	64980	
8127	0	63584	
8128	0	58012	
8129	0	52596	
8130	0	47540	
8131	0	43168	
8132	0	39548	
8133	0	36660	
8134	0	34472	
8135	0	32820	
8136	0	31432	
8137	0	30192	
8138	0	29020	
8139	0	27824	
8140	0	26668	
8141	0	25680	
8142	0	24852	
8143	0	24336	
8144	0	24096	
8145	0	24060	
8146	0	24220	
8147	0	24509	
8148	0	24788	
8149	0	24936	
8150	0	25108	
8151	0	25300	
8152	0	25600	
8153	0	25956	
8154	0	26296	
8155	0	26672	
8156	0	27048	
8157	0	27336	
8158	0	27624	
8159	0	27928	
8160	0	28204	
8161	0	28412	
8162	0	28596	
8163	0	28800	
8164	0	29012	
8165	0	29256	
8166	0	29476	
8167	0	29620	
8168	0	29744	
8169	0	29900	
8170	0	30032	
8171	0	30080	
8172	0	30080	
8173	0	30064	
8174	0	30088	
8175	0	30076	
8176	0	30008	
8177	0	29932	
8178	0	29914	
8179	0	29868	
8180	0	29864	
8181	0	29888	
8182	0	29920	
8183	0	29972	
8184	0	30016	
8185	0	30048	
8186	0	30184	
8187	0	30324	
8188	0	30408	
8189	0	30524	
8190	0	30578	
8191	0	30596	
8192	0	30620	
8193	0	30652	
8194	0	30716	
8195	0	30756	
8196	0	30712	
8197	0	30700	
8198	0	30706	
8199	0	30684	
8200	0	30660	
8201	0	30684	
8202	0	30686	
8203	0	30720	
8204	0	30776	
8205	0	30860	
8206	0	30952	
8207	0	31072	
8208	0	31184	
8209	0	31296	
8210	0	31376	
8211	0	31476	
8212	0	31568	
8213	0	31604	
8214	0	31628	
8215	0	31562	
8216	0	31520	
8217	0	31520	
8218	0	31594	
8219	0	31652	
8220	0	31698	
8221	0	31744	
8222	0	31792	
8223	0	31860	
8224	0	31944	
8225	0	32028	
8226	0	32088	
8227	0	32124	
8228	0	32144	
8229	0	32220	
8230	0	32272	
8231	0	32272	
8232	0	32244	
8233	0	32280	
8234	0	32344	
8235	0	32352	
8236	0	32380	
8237	0	32428	
8238	0	32448	
8239	0	32500	
8240	0	32528	
8241	0	32520	
8242	0	32496	
8243	0	32452	
8244	0	32404	
8245	0	32424	
8246	0	32530	
8247	0	32656	
8248	0	32816	
8249	0	32956	
8250	0	33112	
8251	0	33178	
8252	0	33248	
8253	0	33332	
8254	0	33332	
8255	0	33332	
8256	0	33324	
8257	0	33322	
8258	0	33352	
8259	0	33364	
8260	0	33344	
8261	0	33304	
8262	0	33352	
8263	0	33472	
8264	0	33584	
8265	0	33672	
8266	0	33760	
8267	0	33788	
8268	0	33840	
8269	0	33992	
8270	0	34120	
8271	0	34176	
8272	0	34188	
8273	0	34224	
8274	0	34272	
8275	0	34322	
8276	0	34328	
8277	0	34340	
8278	0	34308	
8279	0	34314	
8280	0	34360	
8281	0	34368	
8282	0	34408	
8283	0	34492	
8284	0	34584	
8285	0	34712	
8286	0	34832	
8287	0	34976	
8288	0	35112	
8289	0	35208	
8290	0	35308	
8291	0	35432	
8292	0	35504	
8293	0	35602	
8294	0	35616	
8295	0	35708	
8296	0	35752	
8297	0	35784	
8298	0	35872	
8299	0	35944	
8300	0	36080	
8301	0	36176	
8302	0	36196	
8303	0	36244	
8304	0	36292	
8305	0	36424	
8306	0	36572	
8307	0	36724	
8308	0	36856	
8309	0	37000	
8310	0	37120	
8311	0	37248	
8312	0	37332	
8313	0	37388	
8314	0	37464	
8315	0	37504	
8316	0	37496	
8317	0	37504	
8318	0	37600	
8319	0	37736	
8320	0	37848	
8321	0	37932	
8322	0	37984	
8323	0	38000	
8324	0	38040	
8325	0	38064	
8326	0	38184	
8327	0	38288	
8328	0	38388	
8329	0	38528	
8330	0	38664	
8331	0	38752	
8332	0	38812	
8333	0	38836	
8334	0	38864	
8335	0	38884	
8336	0	38836	
8337	0	38808	
8338	0	38792	
8339	0	38744	
8340	0	38730	
8341	0	38736	
8342	0	38748	
8343	0	38764	
8344	0	38772	
8345	0	38764	
8346	0	38836	
8347	0	38884	
8348	0	38916	
8349	0	38960	
8350	0	38992	
8351	0	38928	
8352	0	38816	
8353	0	38708	
8354	0	38664	
8355	0	38624	
8356	0	38576	
8357	0	38436	
8358	0	38264	
8359	0	38104	
8360	0	37936	
8361	0	37780	
8362	0	37668	
8363	0	37560	
8364	0	37464	
8365	0	37364	
8366	0	37196	
8367	0	36996	
8368	0	36804	
8369	0	36642	
8370	0	36410	
8371	0	36136	
8372	0	35856	
8373	0	35632	
8374	0	35400	
8375	0	35148	
8376	0	34880	
8377	0	34572	
8378	0	34284	
8379	0	33980	
8380	0	33704	
8381	0	33456	
8382	0	33200	
8383	0	33032	
8384	0	32868	
8385	0	32704	
8386	0	32588	
8387	0	32460	
8388	0	32346	
8389	0	32168	
8390	0	31936	
8391	0	31688	
8392	0	31496	
8393	0	31344	
8394	0	31128	
8395	0	30912	
8396	0	30708	
8397	0	30490	
8398	0	30304	
8399	0	30116	
8400	0	29868	
8401	0	29680	
8402	0	29548	
8403	0	29448	
8404	0	29352	
8405	0	29220	
8406	0	29124	
8407	0	29064	
8408	0	28992	
8409	0	28936	
8410	0	28968	
8411	0	29020	
8412	0	29008	
8413	0	28944	
8414	0	28836	
8415	0	28756	
8416	0	28656	
8417	0	28578	
8418	0	28536	
8419	0	28484	
8420	0	28384	
8421	0	28300	
8422	0	28300	
8423	0	28292	
8424	0	28280	
8425	0	28264	
8426	0	28272	
8427	0	28308	
8428	0	28368	
8429	0	28456	
8430	0	28516	
8431	0	28548	
8432	0	28536	
8433	0	28496	
8434	0	28444	
8435	0	28412	
8436	0	28360	
8437	0	28312	
8438	0	28272	
8439	0	28232	
8440	0	28240	
8441	0	28208	
8442	0	28124	
8443	0	28078	
8444	0	28072	
8445	0	28090	
8446	0	28148	
8447	0	28240	
8448	0	28380	
8449	0	28568	
8450	0	28628	
8451	0	28672	
8452	0	28752	
8453	0	28808	
8454	0	28856	
8455	0	28880	
8456	0	28872	
8457	0	28856	
8458	0	28840	
8459	0	28848	
8460	0	28808	
8461	0	28764	
8462	0	28772	
8463	0	28772	
8464	0	28808	
8465	0	28888	
8466	0	28996	
8467	0	29088	
8468	0	29152	
8469	0	29260	
8470	0	29388	
8471	0	29500	
8472	0	29576	
8473	0	29608	
8474	0	29608	
8475	0	29648	
8476	0	29684	
8477	0	29640	
8478	0	29588	
8479	0	29600	
8480	0	29624	
8481	0	29622	
8482	0	29628	
8483	0	29648	
8484	0	29644	
8485	0	29696	
8486	0	29774	
8487	0	29888	
8488	0	30004	
8489	0	30072	
8490	0	30136	
8491	0	30192	
8492	0	30272	
8493	0	30296	
8494	0	30324	
8495	0	30344	
8496	0	30352	
8497	0	30370	
8498	0	30416	
8499	0	30440	
8500	0	30480	
8501	0	30508	
8502	0	30504	
8503	0	30516	
8504	0	30532	
8505	0	30580	
8506	0	30636	
8507	0	30724	
8508	0	30836	
8509	0	30936	
8510	0	31036	
8511	0	31104	
8512	0	31140	
8513	0	31156	
8514	0	31144	
8515	0	31104	
8516	0	31072	
8517	0	31064	
8518	0	31124	
8519	0	31164	
8520	0	31188	
8521	0	31168	
8522	0	31160	
8523	0	31188	
8524	0	31232	
8525	0	31274	
8526	0	31344	
8527	0	31364	
8528	0	31432	
8529	0	31476	
8530	0	31508	
8531	0	31576	
8532	0	31672	
8533	0	31680	
8534	0	31652	
8535	0	31652	
8536	0	31688	
8537	0	31712	
8538	0	31716	
8539	0	31684	
8540	0	31672	
8541	0	31660	
8542	0	31664	
8543	0	31664	
8544	0	31680	
8545	0	31666	
8546	0	31684	
8547	0	31716	
8548	0	31776	
8549	0	31864	
8550	0	31906	
8551	0	31900	
8552	0	31840	
8553	0	31812	
8554	0	31840	
8555	0	31836	
8556	0	31828	
8557	0	31784	
8558	0	31704	
8559	0	31644	
8560	0	31612	
8561	0	31572	
8562	0	31544	
8563	0	31528	
8564	0	31552	
8565	0	31616	
8566	0	31652	
8567	0	31664	
8568	0	31704	
8569	0	31732	
8570	0	31728	
8571	0	31752	
8572	0	31824	
8573	0	31820	
8574	0	31778	
8575	0	31728	
8576	0	31680	
8577	0	31648	
8578	0	31604	
8579	0	31584	
8580	0	31544	
8581	0	31518	
8582	0	31516	
8583	0	31520	
8584	0	31532	
8585	0	31548	
8586	0	31572	
8587	0	31560	
8588	0	31568	
8589	0	31628	
8590	0	31696	
8591	0	31716	
8592	0	31748	
