# OpenSignals Text File Format. Version 1
# {"00:07:80:4B:15:F7": {"position": 0, "device": "biosignalsplux", "device name": "00:07:80:4B:15:F7", "device connection": "BTH00:07:80:4B:15:F7", "sampling rate": 1000, "resolution": [16], "firmware version": 775, "comments": "", "keywords": "", "mode": 0, "sync interval": 2, "date": "2023-3-14", "time": "15:6:34.690", "channels": [1], "sensor": ["ECG"], "label": ["CH1"], "column": ["nSeq", "DI", "CH1"], "special": [{"SpO2": [80, 40, 5, 4, 3, 3]}, {"SpO2": [80, 40, 5, 4, 3, 3]}, {"SpO2": [80, 40, 5, 4, 3, 3]}, {"SpO2": [80, 40, 5, 4, 3, 3]}, {"SpO2": [80, 40, 5, 4, 3, 3]}, {"SpO2": [80, 40, 5, 4, 3, 3]}, {"SpO2": [80, 40, 5, 4, 3, 3]}, {"SpO2": [80, 40, 5, 4, 3, 3]}], "digital IO": [0, 1], "sleeve color": ["green"], "convertedValues": 0}}
# EndOfHeader
0	0	35336	
1	0	35432	
2	0	35588	
3	0	35752	
4	0	35850	
5	0	35924	
6	0	35924	
7	0	36024	
8	0	36048	
9	0	36090	
10	0	36232	
11	0	36288	
12	0	36392	
13	0	36496	
14	0	36544	
15	0	36556	
16	0	36560	
17	0	36548	
18	0	36576	
19	0	36644	
20	0	36768	
21	0	36800	
22	0	36856	
23	0	36932	
24	0	37008	
25	0	37128	
26	0	37236	
27	0	37300	
28	0	37260	
29	0	37288	
30	0	37328	
31	0	37242	
32	0	37220	
33	0	37252	
34	0	37272	
35	0	37264	
36	0	37296	
37	0	37280	
38	0	37284	
39	0	37256	
40	0	37240	
41	0	37248	
42	0	37256	
43	0	37296	
44	0	37252	
45	0	37072	
46	0	36984	
47	0	36944	
48	0	36916	
49	0	36800	
50	0	36768	
51	0	36672	
52	0	36536	
53	0	36492	
54	0	36408	
55	0	36224	
56	0	36056	
57	0	35904	
58	0	35708	
59	0	35584	
60	0	35424	
61	0	35112	
62	0	34786	
63	0	34620	
64	0	34480	
65	0	34356	
66	0	34222	
67	0	34116	
68	0	34060	
69	0	34002	
70	0	33872	
71	0	33580	
72	0	33360	
73	0	33120	
74	0	32976	
75	0	32836	
76	0	32704	
77	0	32536	
78	0	32296	
79	0	32076	
80	0	31932	
81	0	31816	
82	0	31692	
83	0	31544	
84	0	31328	
85	0	31144	
86	0	30972	
87	0	30928	
88	0	30944	
89	0	30904	
90	0	30844	
91	0	30808	
92	0	30736	
93	0	30692	
94	0	30536	
95	0	30388	
96	0	30288	
97	0	30172	
98	0	30036	
99	0	29912	
100	0	29934	
101	0	29924	
102	0	29964	
103	0	29870	
104	0	29760	
105	0	29737	
106	0	29816	
107	0	29832	
108	0	29906	
109	0	29972	
110	0	29996	
111	0	29920	
112	0	29896	
113	0	29908	
114	0	29948	
115	0	30016	
116	0	29844	
117	0	29680	
118	0	29680	
119	0	29698	
120	0	29648	
121	0	29616	
122	0	29600	
123	0	29632	
124	0	29668	
125	0	29720	
126	0	29716	
127	0	29740	
128	0	29800	
129	0	29752	
130	0	29804	
131	0	29824	
132	0	29888	
133	0	29932	
134	0	29892	
135	0	29880	
136	0	29876	
137	0	29920	
138	0	29892	
139	0	29864	
140	0	29896	
141	0	29938	
142	0	29996	
143	0	30058	
144	0	30096	
145	0	30084	
146	0	30132	
147	0	30180	
148	0	30242	
149	0	30352	
150	0	30372	
151	0	30300	
152	0	30312	
153	0	30266	
154	0	30232	
155	0	30296	
156	0	30380	
157	0	30408	
158	0	30376	
159	0	30412	
160	0	30492	
161	0	30568	
162	0	30604	
163	0	30640	
164	0	30764	
165	0	30816	
166	0	30724	
167	0	30668	
168	0	30746	
169	0	30752	
170	0	30784	
171	0	30810	
172	0	30804	
173	0	30808	
174	0	30881	
175	0	30944	
176	0	30896	
177	0	30920	
178	0	31048	
179	0	31184	
180	0	31088	
181	0	31096	
182	0	31144	
183	0	31168	
184	0	31152	
185	0	31136	
186	0	31092	
187	0	31064	
188	0	30964	
189	0	30940	
190	0	30944	
191	0	31048	
192	0	31168	
193	0	31220	
194	0	31293	
195	0	31384	
196	0	31384	
197	0	31352	
198	0	31352	
199	0	31424	
200	0	31532	
201	0	31576	
202	0	31600	
203	0	31620	
204	0	31580	
205	0	31556	
206	0	31532	
207	0	31458	
208	0	31464	
209	0	31500	
210	0	31540	
211	0	31612	
212	0	31610	
213	0	31712	
214	0	31732	
215	0	31760	
216	0	31736	
217	0	31760	
218	0	31832	
219	0	31816	
220	0	31808	
221	0	31768	
222	0	31784	
223	0	31772	
224	0	31800	
225	0	31812	
226	0	31840	
227	0	31876	
228	0	31928	
229	0	31948	
230	0	31952	
231	0	31916	
232	0	31932	
233	0	31860	
234	0	31788	
235	0	31904	
236	0	31985	
237	0	31996	
238	0	31952	
239	0	31932	
240	0	31936	
241	0	31972	
242	0	32016	
243	0	32136	
244	0	32168	
245	0	32120	
246	0	32168	
247	0	32252	
248	0	32236	
249	0	32188	
250	0	32160	
251	0	32128	
252	0	32138	
253	0	32132	
254	0	32176	
255	0	32220	
256	0	32192	
257	0	32140	
258	0	32156	
259	0	32248	
260	0	32432	
261	0	32652	
262	0	32872	
263	0	33056	
264	0	33156	
265	0	33216	
266	0	33210	
267	0	33256	
268	0	33316	
269	0	33416	
270	0	33480	
271	0	33548	
272	0	33552	
273	0	33568	
274	0	33616	
275	0	33632	
276	0	33572	
277	0	33508	
278	0	33496	
279	0	33566	
280	0	33656	
281	0	33780	
282	0	33868	
283	0	33928	
284	0	34012	
285	0	34168	
286	0	34336	
287	0	34512	
288	0	34600	
289	0	34644	
290	0	34676	
291	0	34688	
292	0	34768	
293	0	34852	
294	0	34868	
295	0	34952	
296	0	35056	
297	0	35114	
298	0	35132	
299	0	35010	
300	0	34848	
301	0	34696	
302	0	34528	
303	0	34392	
304	0	34308	
305	0	34288	
306	0	34144	
307	0	33960	
308	0	33844	
309	0	33784	
310	0	33672	
311	0	33596	
312	0	33568	
313	0	33552	
314	0	33460	
315	0	33380	
316	0	33340	
317	0	33296	
318	0	33220	
319	0	33200	
320	0	33192	
321	0	33168	
322	0	33140	
323	0	33116	
324	0	33098	
325	0	33048	
326	0	32908	
327	0	32788	
328	0	32638	
329	0	32480	
330	0	32352	
331	0	32266	
332	0	32144	
333	0	32014	
334	0	31924	
335	0	31848	
336	0	31796	
337	0	31652	
338	0	31524	
339	0	31460	
340	0	31480	
341	0	31398	
342	0	31238	
343	0	31144	
344	0	31120	
345	0	31156	
346	0	31236	
347	0	31280	
348	0	31274	
349	0	31272	
350	0	31292	
351	0	31340	
352	0	31324	
353	0	31296	
354	0	31372	
355	0	31424	
356	0	31396	
357	0	31296	
358	0	31244	
359	0	31248	
360	0	31260	
361	0	31264	
362	0	31210	
363	0	31208	
364	0	31268	
365	0	31300	
366	0	31272	
367	0	31312	
368	0	31384	
369	0	31476	
370	0	31520	
371	0	31428	
372	0	31336	
373	0	31316	
374	0	31280	
375	0	31352	
376	0	31420	
377	0	31424	
378	0	31348	
379	0	31324	
380	0	31256	
381	0	31264	
382	0	31364	
383	0	31362	
384	0	31432	
385	0	31524	
386	0	31676	
387	0	31770	
388	0	31828	
389	0	31824	
390	0	31788	
391	0	31812	
392	0	31850	
393	0	31884	
394	0	31808	
395	0	31706	
396	0	31720	
397	0	31704	
398	0	31568	
399	0	31424	
400	0	31236	
401	0	31016	
402	0	30832	
403	0	30680	
404	0	30648	
405	0	30716	
406	0	30784	
407	0	30956	
408	0	31300	
409	0	31754	
410	0	32388	
411	0	33136	
412	0	34028	
413	0	35056	
414	0	36312	
415	0	37784	
416	0	39464	
417	0	41032	
418	0	42480	
419	0	43848	
420	0	45328	
421	0	46932	
422	0	48488	
423	0	49882	
424	0	51168	
425	0	52376	
426	0	53568	
427	0	54752	
428	0	55908	
429	0	57072	
430	0	58312	
431	0	59436	
432	0	60160	
433	0	60372	
434	0	59604	
435	0	57992	
436	0	55392	
437	0	51948	
438	0	48340	
439	0	44652	
440	0	40552	
441	0	36088	
442	0	31708	
443	0	28168	
444	0	25792	
445	0	24530	
446	0	24140	
447	0	24248	
448	0	24520	
449	0	24960	
450	0	25456	
451	0	25868	
452	0	26112	
453	0	26352	
454	0	26632	
455	0	26824	
456	0	26964	
457	0	27080	
458	0	27288	
459	0	27532	
460	0	27872	
461	0	28250	
462	0	28548	
463	0	28900	
464	0	29276	
465	0	29560	
466	0	29738	
467	0	29916	
468	0	30080	
469	0	30144	
470	0	30176	
471	0	30224	
472	0	30212	
473	0	30132	
474	0	30032	
475	0	30068	
476	0	30060	
477	0	30092	
478	0	30124	
479	0	30176	
480	0	30180	
481	0	30088	
482	0	30048	
483	0	29984	
484	0	29996	
485	0	30072	
486	0	30164	
487	0	30240	
488	0	30284	
489	0	30280	
490	0	30260	
491	0	30288	
492	0	30224	
493	0	30228	
494	0	30292	
495	0	30312	
496	0	30360	
497	0	30464	
498	0	30548	
499	0	30552	
500	0	30608	
501	0	30628	
502	0	30616	
503	0	30656	
504	0	30704	
505	0	30724	
506	0	30744	
507	0	30736	
508	0	30808	
509	0	30920	
510	0	31002	
511	0	30988	
512	0	31000	
513	0	31004	
514	0	31048	
515	0	31080	
516	0	31030	
517	0	31074	
518	0	31176	
519	0	31248	
520	0	31196	
521	0	31196	
522	0	31188	
523	0	31252	
524	0	31370	
525	0	31468	
526	0	31540	
527	0	31656	
528	0	31736	
529	0	31676	
530	0	31676	
531	0	31712	
532	0	31756	
533	0	31728	
534	0	31692	
535	0	31700	
536	0	31744	
537	0	31740	
538	0	31800	
539	0	31810	
540	0	31816	
541	0	31836	
542	0	31836	
543	0	31872	
544	0	31952	
545	0	31988	
546	0	32060	
547	0	32140	
548	0	32196	
549	0	32274	
550	0	32264	
551	0	32296	
552	0	32352	
553	0	32312	
554	0	32240	
555	0	32244	
556	0	32276	
557	0	32280	
558	0	32316	
559	0	32396	
560	0	32440	
561	0	32432	
562	0	32396	
563	0	32426	
564	0	32532	
565	0	32632	
566	0	32728	
567	0	32776	
568	0	32784	
569	0	32760	
570	0	32788	
571	0	32844	
572	0	32856	
573	0	32860	
574	0	32892	
575	0	32928	
576	0	32928	
577	0	32908	
578	0	32936	
579	0	32988	
580	0	33032	
581	0	33080	
582	0	33120	
583	0	33210	
584	0	33348	
585	0	33496	
586	0	33580	
587	0	33628	
588	0	33672	
589	0	33738	
590	0	33808	
591	0	33844	
592	0	33848	
593	0	33844	
594	0	33848	
595	0	33908	
596	0	33968	
597	0	33928	
598	0	33972	
599	0	34040	
600	0	34020	
601	0	34056	
602	0	34096	
603	0	34132	
604	0	34272	
605	0	34432	
606	0	34508	
607	0	34580	
608	0	34644	
609	0	34760	
610	0	34912	
611	0	35060	
612	0	35116	
613	0	35196	
614	0	35188	
615	0	35104	
616	0	35052	
617	0	35080	
618	0	35170	
619	0	35296	
620	0	35400	
621	0	35488	
622	0	35592	
623	0	35648	
624	0	35712	
625	0	35816	
626	0	35948	
627	0	36072	
628	0	36228	
629	0	36332	
630	0	36444	
631	0	36464	
632	0	36504	
633	0	36572	
634	0	36624	
635	0	36724	
636	0	36784	
637	0	36756	
638	0	36788	
639	0	36836	
640	0	36872	
641	0	36892	
642	0	36928	
643	0	36936	
644	0	36968	
645	0	37008	
646	0	37112	
647	0	37136	
648	0	37132	
649	0	37128	
650	0	37072	
651	0	37052	
652	0	37088	
653	0	37080	
654	0	37056	
655	0	37032	
656	0	37032	
657	0	37004	
658	0	36996	
659	0	37032	
660	0	36992	
661	0	36940	
662	0	36884	
663	0	36824	
664	0	36756	
665	0	36732	
666	0	36740	
667	0	36678	
668	0	36596	
669	0	36512	
670	0	36448	
671	0	36340	
672	0	36192	
673	0	36028	
674	0	35828	
675	0	35648	
676	0	35400	
677	0	35160	
678	0	34932	
679	0	34764	
680	0	34620	
681	0	34360	
682	0	34120	
683	0	33960	
684	0	33812	
685	0	33608	
686	0	33440	
687	0	33312	
688	0	33164	
689	0	33024	
690	0	32896	
691	0	32736	
692	0	32492	
693	0	32352	
694	0	32172	
695	0	31976	
696	0	31808	
697	0	31588	
698	0	31408	
699	0	31284	
700	0	31164	
701	0	30972	
702	0	30804	
703	0	30672	
704	0	30596	
705	0	30492	
706	0	30360	
707	0	30296	
708	0	30288	
709	0	30232	
710	0	30122	
711	0	30000	
712	0	29944	
713	0	29868	
714	0	29788	
715	0	29676	
716	0	29656	
717	0	29648	
718	0	29596	
719	0	29552	
720	0	29504	
721	0	29428	
722	0	29400	
723	0	29346	
724	0	29368	
725	0	29314	
726	0	29344	
727	0	29352	
728	0	29320	
729	0	29324	
730	0	29380	
731	0	29408	
732	0	29372	
733	0	29322	
734	0	29372	
735	0	29386	
736	0	29368	
737	0	29320	
738	0	29256	
739	0	29262	
740	0	29310	
741	0	29344	
742	0	29316	
743	0	29312	
744	0	29332	
745	0	29416	
746	0	29496	
747	0	29524	
748	0	29488	
749	0	29482	
750	0	29504	
751	0	29520	
752	0	29584	
753	0	29632	
754	0	29600	
755	0	29568	
756	0	29514	
757	0	29540	
758	0	29620	
759	0	29640	
760	0	29674	
761	0	29692	
762	0	29724	
763	0	29740	
764	0	29816	
765	0	29836	
766	0	29844	
767	0	29872	
768	0	29896	
769	0	29936	
770	0	29976	
771	0	30004	
772	0	30048	
773	0	30056	
774	0	30038	
775	0	29956	
776	0	29944	
777	0	30004	
778	0	30020	
779	0	30012	
780	0	30032	
781	0	30056	
782	0	30120	
783	0	30216	
784	0	30232	
785	0	30264	
786	0	30292	
787	0	30352	
788	0	30400	
789	0	30384	
790	0	30400	
791	0	30356	
792	0	30344	
793	0	30336	
794	0	30388	
795	0	30432	
796	0	30434	
797	0	30432	
798	0	30402	
799	0	30402	
800	0	30468	
801	0	30544	
802	0	30596	
803	0	30656	
804	0	30740	
805	0	30772	
806	0	30852	
807	0	30940	
808	0	30960	
809	0	30964	
810	0	30936	
811	0	30988	
812	0	31072	
813	0	31024	
814	0	30988	
815	0	30968	
816	0	30920	
817	0	30940	
818	0	30952	
819	0	30932	
820	0	30928	
821	0	30964	
822	0	31004	
823	0	31080	
824	0	31120	
825	0	31176	
826	0	31228	
827	0	31256	
828	0	31264	
829	0	31304	
830	0	31336	
831	0	31348	
832	0	31384	
833	0	31396	
834	0	31424	
835	0	31448	
836	0	31456	
837	0	31440	
838	0	31456	
839	0	31432	
840	0	31448	
841	0	31472	
842	0	31450	
843	0	31444	
844	0	31460	
845	0	31464	
846	0	31458	
847	0	31444	
848	0	31512	
849	0	31568	
850	0	31540	
851	0	31548	
852	0	31564	
853	0	31572	
854	0	31556	
855	0	31520	
856	0	31488	
857	0	31462	
858	0	31420	
859	0	31452	
860	0	31564	
861	0	31660	
862	0	31648	
863	0	31660	
864	0	31688	
865	0	31668	
866	0	31652	
867	0	31608	
868	0	31632	
869	0	31684	
870	0	31688	
871	0	31664	
872	0	31684	
873	0	31672	
874	0	31644	
875	0	31628	
876	0	31616	
877	0	31600	
878	0	31608	
879	0	31580	
880	0	31600	
881	0	31636	
882	0	31680	
883	0	31700	
884	0	31724	
885	0	31760	
886	0	31770	
887	0	31760	
888	0	31768	
889	0	31788	
890	0	31836	
891	0	31844	
892	0	31808	
893	0	31796	
894	0	31756	
895	0	31768	
896	0	31824	
897	0	31856	
898	0	31946	
899	0	32000	
900	0	31960	
901	0	31944	
902	0	31936	
903	0	31926	
904	0	32000	
905	0	32128	
906	0	32260	
907	0	32408	
908	0	32544	
909	0	32672	
910	0	32752	
911	0	32894	
912	0	33064	
913	0	33132	
914	0	33168	
915	0	33196	
916	0	33184	
917	0	33192	
918	0	33232	
919	0	33320	
920	0	33408	
921	0	33468	
922	0	33504	
923	0	33568	
924	0	33616	
925	0	33592	
926	0	33632	
927	0	33688	
928	0	33704	
929	0	33828	
930	0	33968	
931	0	34088	
932	0	34228	
933	0	34384	
934	0	34508	
935	0	34564	
936	0	34584	
937	0	34624	
938	0	34644	
939	0	34672	
940	0	34704	
941	0	34712	
942	0	34752	
943	0	34780	
944	0	34832	
945	0	34904	
946	0	34900	
947	0	34784	
948	0	34608	
949	0	34496	
950	0	34380	
951	0	34272	
952	0	34112	
953	0	33980	
954	0	33832	
955	0	33688	
956	0	33528	
957	0	33432	
958	0	33344	
959	0	33276	
960	0	33232	
961	0	33204	
962	0	33232	
963	0	33240	
964	0	33216	
965	0	33176	
966	0	33148	
967	0	33072	
968	0	33016	
969	0	32960	
970	0	32924	
971	0	32836	
972	0	32672	
973	0	32616	
974	0	32576	
975	0	32554	
976	0	32500	
977	0	32432	
978	0	32308	
979	0	32188	
980	0	31988	
981	0	31874	
982	0	31780	
983	0	31716	
984	0	31660	
985	0	31552	
986	0	31508	
987	0	31504	
988	0	31468	
989	0	31424	
990	0	31400	
991	0	31370	
992	0	31352	
993	0	31340	
994	0	31364	
995	0	31322	
996	0	31324	
997	0	31348	
998	0	31336	
999	0	31328	
1000	0	31332	
1001	0	31328	
1002	0	31332	
1003	0	31392	
1004	0	31436	
1005	0	31444	
1006	0	31400	
1007	0	31382	
1008	0	31452	
1009	0	31468	
1010	0	31472	
1011	0	31440	
1012	0	31412	
1013	0	31424	
1014	0	31390	
1015	0	31332	
1016	0	31328	
1017	0	31384	
1018	0	31432	
1019	0	31432	
1020	0	31416	
1021	0	31388	
1022	0	31352	
1023	0	31388	
1024	0	31404	
1025	0	31392	
1026	0	31416	
1027	0	31448	
1028	0	31520	
1029	0	31568	
1030	0	31596	
1031	0	31608	
1032	0	31584	
1033	0	31584	
1034	0	31648	
1035	0	31688	
1036	0	31664	
1037	0	31616	
1038	0	31604	
1039	0	31628	
1040	0	31604	
1041	0	31560	
1042	0	31528	
1043	0	31450	
1044	0	31348	
1045	0	31232	
1046	0	31112	
1047	0	31016	
1048	0	30950	
1049	0	30928	
1050	0	30904	
1051	0	30956	
1052	0	31088	
1053	0	31368	
1054	0	31912	
1055	0	32496	
1056	0	33136	
1057	0	34016	
1058	0	35112	
1059	0	36388	
1060	0	37840	
1061	0	39512	
1062	0	41072	
1063	0	42532	
1064	0	43984	
1065	0	45460	
1066	0	46864	
1067	0	48264	
1068	0	49648	
1069	0	50940	
1070	0	52264	
1071	0	53660	
1072	0	55000	
1073	0	56292	
1074	0	57596	
1075	0	58824	
1076	0	59928	
1077	0	60752	
1078	0	61232	
1079	0	60912	
1080	0	59528	
1081	0	57312	
1082	0	54136	
1083	0	50504	
1084	0	46788	
1085	0	42876	
1086	0	38562	
1087	0	34016	
1088	0	30088	
1089	0	27314	
1090	0	25624	
1091	0	24820	
1092	0	24500	
1093	0	24554	
1094	0	24862	
1095	0	25172	
1096	0	25432	
1097	0	25690	
1098	0	26028	
1099	0	26356	
1100	0	26704	
1101	0	27132	
1102	0	27584	
1103	0	28048	
1104	0	28532	
1105	0	28936	
1106	0	29312	
1107	0	29616	
1108	0	29858	
1109	0	30048	
1110	0	30204	
1111	0	30297	
1112	0	30260	
1113	0	30208	
1114	0	30048	
1115	0	29924	
1116	0	29864	
1117	0	29820	
1118	0	29696	
1119	0	29656	
1120	0	29656	
1121	0	29704	
1122	0	29804	
1123	0	29880	
1124	0	29920	
1125	0	29984	
1126	0	30004	
1127	0	30036	
1128	0	30044	
1129	0	30024	
1130	0	30080	
1131	0	30124	
1132	0	30110	
1133	0	30080	
1134	0	30084	
1135	0	30108	
1136	0	30112	
1137	0	30136	
1138	0	30208	
1139	0	30256	
1140	0	30228	
1141	0	30208	
1142	0	30272	
1143	0	30336	
1144	0	30400	
1145	0	30480	
1146	0	30520	
1147	0	30580	
1148	0	30656	
1149	0	30704	
1150	0	30724	
1151	0	30700	
1152	0	30650	
1153	0	30658	
1154	0	30692	
1155	0	30720	
1156	0	30748	
1157	0	30756	
1158	0	30754	
1159	0	30796	
1160	0	30856	
1161	0	30920	
1162	0	30964	
1163	0	30964	
1164	0	30986	
1165	0	31056	
1166	0	31152	
1167	0	31182	
1168	0	31168	
1169	0	31256	
1170	0	31356	
1171	0	31394	
1172	0	31368	
1173	0	31360	
1174	0	31336	
1175	0	31306	
1176	0	31276	
1177	0	31320	
1178	0	31412	
1179	0	31468	
1180	0	31520	
1181	0	31604	
1182	0	31680	
1183	0	31732	
1184	0	31750	
1185	0	31772	
1186	0	31776	
1187	0	31816	
1188	0	31900	
1189	0	31944	
1190	0	31948	
1191	0	31948	
1192	0	32004	
1193	0	32036	
1194	0	32056	
1195	0	32068	
1196	0	32048	
1197	0	32032	
1198	0	32052	
1199	0	32076	
1200	0	32116	
1201	0	32180	
1202	0	32212	
1203	0	32208	
1204	0	32280	
1205	0	32320	
1206	0	32368	
1207	0	32424	
1208	0	32484	
1209	0	32508	
1210	0	32536	
1211	0	32556	
1212	0	32560	
1213	0	32554	
1214	0	32580	
1215	0	32634	
1216	0	32662	
1217	0	32668	
1218	0	32688	
1219	0	32724	
1220	0	32748	
1221	0	32728	
1222	0	32756	
1223	0	32842	
1224	0	32926	
1225	0	32954	
1226	0	32992	
1227	0	33044	
1228	0	33128	
1229	0	33204	
1230	0	33260	
1231	0	33288	
1232	0	33288	
1233	0	33344	
1234	0	33392	
1235	0	33408	
1236	0	33450	
1237	0	33480	
1238	0	33508	
1239	0	33576	
1240	0	33600	
1241	0	33624	
1242	0	33704	
1243	0	33796	
1244	0	33884	
1245	0	33972	
1246	0	34080	
1247	0	34132	
1248	0	34164	
1249	0	34242	
1250	0	34300	
1251	0	34312	
1252	0	34392	
1253	0	34472	
1254	0	34572	
1255	0	34628	
1256	0	34700	
1257	0	34702	
1258	0	34720	
1259	0	34816	
1260	0	34904	
1261	0	34962	
1262	0	35040	
1263	0	35112	
1264	0	35196	
1265	0	35308	
1266	0	35408	
1267	0	35508	
1268	0	35616	
1269	0	35714	
1270	0	35760	
1271	0	35856	
1272	0	35960	
1273	0	35984	
1274	0	36032	
1275	0	36068	
1276	0	36116	
1277	0	36184	
1278	0	36242	
1279	0	36320	
1280	0	36352	
1281	0	36430	
1282	0	36484	
1283	0	36504	
1284	0	36556	
1285	0	36628	
1286	0	36664	
1287	0	36712	
1288	0	36784	
1289	0	36852	
1290	0	36896	
1291	0	36948	
1292	0	36960	
1293	0	36952	
1294	0	36980	
1295	0	37040	
1296	0	37088	
1297	0	37080	
1298	0	37036	
1299	0	37076	
1300	0	37100	
1301	0	37092	
1302	0	37104	
1303	0	37116	
1304	0	37144	
1305	0	37168	
1306	0	37160	
1307	0	37108	
1308	0	37060	
1309	0	36976	
1310	0	36892	
1311	0	36768	
1312	0	36648	
1313	0	36548	
1314	0	36408	
1315	0	36240	
1316	0	36128	
1317	0	35988	
1318	0	35808	
1319	0	35652	
1320	0	35496	
1321	0	35328	
1322	0	35156	
1323	0	34972	
1324	0	34856	
1325	0	34740	
1326	0	34580	
1327	0	34432	
1328	0	34272	
1329	0	34104	
1330	0	33944	
1331	0	33720	
1332	0	33512	
1333	0	33272	
1334	0	33016	
1335	0	32812	
1336	0	32656	
1337	0	32480	
1338	0	32320	
1339	0	32128	
1340	0	31924	
1341	0	31788	
1342	0	31664	
1343	0	31524	
1344	0	31396	
1345	0	31312	
1346	0	31198	
1347	0	31004	
1348	0	30872	
1349	0	30768	
1350	0	30652	
1351	0	30568	
1352	0	30472	
1353	0	30324	
1354	0	30252	
1355	0	30154	
1356	0	30056	
1357	0	29930	
1358	0	29792	
1359	0	29732	
1360	0	29650	
1361	0	29584	
1362	0	29536	
1363	0	29552	
1364	0	29536	
1365	0	29480	
1366	0	29456	
1367	0	29452	
1368	0	29460	
1369	0	29440	
1370	0	29432	
1371	0	29384	
1372	0	29348	
1373	0	29332	
1374	0	29330	
1375	0	29324	
1376	0	29332	
1377	0	29304	
1378	0	29320	
1379	0	29304	
1380	0	29336	
1381	0	29360	
1382	0	29370	
1383	0	29372	
1384	0	29344	
1385	0	29372	
1386	0	29416	
1387	0	29460	
1388	0	29472	
1389	0	29476	
1390	0	29456	
1391	0	29448	
1392	0	29458	
1393	0	29444	
1394	0	29492	
1395	0	29508	
1396	0	29520	
1397	0	29532	
1398	0	29544	
1399	0	29584	
1400	0	29608	
1401	0	29636	
1402	0	29656	
1403	0	29730	
1404	0	29768	
1405	0	29780	
1406	0	29840	
1407	0	29872	
1408	0	29868	
1409	0	29844	
1410	0	29876	
1411	0	29852	
1412	0	29792	
1413	0	29804	
1414	0	29840	
1415	0	29952	
1416	0	30042	
1417	0	30080	
1418	0	30052	
1419	0	30048	
1420	0	30076	
1421	0	30092	
1422	0	30112	
1423	0	30176	
1424	0	30216	
1425	0	30236	
1426	0	30224	
1427	0	30202	
1428	0	30220	
1429	0	30300	
1430	0	30340	
1431	0	30344	
1432	0	30336	
1433	0	30320	
1434	0	30300	
1435	0	30364	
1436	0	30420	
1437	0	30436	
1438	0	30420	
1439	0	30484	
1440	0	30528	
1441	0	30496	
1442	0	30500	
1443	0	30568	
1444	0	30604	
1445	0	30628	
1446	0	30672	
1447	0	30692	
1448	0	30736	
1449	0	30816	
1450	0	30840	
1451	0	30880	
1452	0	30864	
1453	0	30888	
1454	0	30936	
1455	0	30940	
1456	0	30932	
1457	0	30936	
1458	0	30908	
1459	0	30876	
1460	0	30940	
1461	0	30988	
1462	0	31032	
1463	0	31092	
1464	0	31132	
1465	0	31140	
1466	0	31180	
1467	0	31244	
1468	0	31296	
1469	0	31288	
1470	0	31280	
1471	0	31260	
1472	0	31240	
1473	0	31232	
1474	0	31308	
1475	0	31360	
1476	0	31396	
1477	0	31428	
1478	0	31380	
1479	0	31348	
1480	0	31306	
1481	0	31304	
1482	0	31340	
1483	0	31380	
1484	0	31386	
1485	0	31424	
1486	0	31504	
1487	0	31572	
1488	0	31612	
1489	0	31632	
1490	0	31616	
1491	0	31600	
1492	0	31584	
1493	0	31556	
1494	0	31512	
1495	0	31516	
1496	0	31512	
1497	0	31480	
1498	0	31480	
1499	0	31528	
1500	0	31592	
1501	0	31620	
1502	0	31656	
1503	0	31692	
1504	0	31700	
1505	0	31692	
1506	0	31704	
1507	0	31732	
1508	0	31760	
1509	0	31776	
1510	0	31792	
1511	0	31800	
1512	0	31804	
1513	0	31736	
1514	0	31696	
1515	0	31700	
1516	0	31728	
1517	0	31750	
1518	0	31756	
1519	0	31808	
1520	0	31840	
1521	0	31832	
1522	0	31884	
1523	0	31920	
1524	0	31960	
1525	0	31968	
1526	0	31964	
1527	0	31948	
1528	0	31968	
1529	0	31980	
1530	0	31944	
1531	0	31914	
1532	0	31912	
1533	0	31904	
1534	0	31944	
1535	0	31944	
1536	0	31924	
1537	0	31872	
1538	0	31868	
1539	0	31904	
1540	0	31940	
1541	0	31952	
1542	0	31928	
1543	0	31904	
1544	0	31902	
1545	0	31956	
1546	0	32008	
1547	0	32028	
1548	0	32020	
1549	0	32016	
1550	0	32036	
1551	0	32060	
1552	0	32076	
1553	0	32068	
1554	0	32056	
1555	0	32012	
1556	0	31992	
1557	0	31984	
1558	0	31976	
1559	0	31948	
1560	0	31960	
1561	0	31980	
1562	0	31996	
1563	0	32044	
1564	0	32058	
1565	0	32048	
1566	0	32100	
1567	0	32100	
1568	0	32096	
1569	0	32096	
1570	0	32146	
1571	0	32176	
1572	0	32144	
1573	0	32120	
1574	0	32148	
1575	0	32240	
1576	0	32338	
1577	0	32396	
1578	0	32416	
1579	0	32480	
1580	0	32544	
1581	0	32644	
1582	0	32812	
1583	0	33028	
1584	0	33228	
1585	0	33340	
1586	0	33444	
1587	0	33588	
1588	0	33716	
1589	0	33812	
1590	0	33852	
1591	0	33860	
1592	0	33880	
1593	0	33928	
1594	0	33980	
1595	0	34024	
1596	0	34096	
1597	0	34104	
1598	0	34124	
1599	0	34148	
1600	0	34160	
1601	0	34180	
1602	0	34236	
1603	0	34308	
1604	0	34412	
1605	0	34552	
1606	0	34684	
1607	0	34804	
1608	0	34952	
1609	0	35040	
1610	0	35076	
1611	0	35066	
1612	0	35000	
1613	0	34960	
1614	0	34976	
1615	0	35000	
1616	0	34992	
1617	0	34956	
1618	0	34920	
1619	0	34980	
1620	0	35108	
1621	0	35112	
1622	0	35008	
1623	0	34868	
1624	0	34720	
1625	0	34716	
1626	0	34652	
1627	0	34536	
1628	0	34388	
1629	0	34244	
1630	0	34088	
1631	0	33900	
1632	0	33756	
1633	0	33640	
1634	0	33588	
1635	0	33528	
1636	0	33448	
1637	0	33372	
1638	0	33312	
1639	0	33316	
1640	0	33316	
1641	0	33292	
1642	0	33292	
1643	0	33272	
1644	0	33284	
1645	0	33276	
1646	0	33216	
1647	0	33176	
1648	0	33096	
1649	0	33040	
1650	0	32986	
1651	0	32916	
1652	0	32780	
1653	0	32688	
1654	0	32568	
1655	0	32412	
1656	0	32268	
1657	0	32160	
1658	0	32056	
1659	0	31936	
1660	0	31852	
1661	0	31780	
1662	0	31740	
1663	0	31732	
1664	0	31656	
1665	0	31564	
1666	0	31516	
1667	0	31496	
1668	0	31484	
1669	0	31484	
1670	0	31496	
1671	0	31536	
1672	0	31532	
1673	0	31552	
1674	0	31520	
1675	0	31468	
1676	0	31410	
1677	0	31428	
1678	0	31424	
1679	0	31416	
1680	0	31396	
1681	0	31372	
1682	0	31394	
1683	0	31432	
1684	0	31428	
1685	0	31432	
1686	0	31456	
1687	0	31468	
1688	0	31512	
1689	0	31552	
1690	0	31568	
1691	0	31576	
1692	0	31532	
1693	0	31504	
1694	0	31508	
1695	0	31496	
1696	0	31480	
1697	0	31556	
1698	0	31624	
1699	0	31624	
1700	0	31584	
1701	0	31596	
1702	0	31656	
1703	0	31700	
1704	0	31732	
1705	0	31768	
1706	0	31738	
1707	0	31776	
1708	0	31812	
1709	0	31856	
1710	0	31874	
1711	0	31900	
1712	0	31920	
1713	0	31884	
1714	0	31832	
1715	0	31752	
1716	0	31676	
1717	0	31596	
1718	0	31520	
1719	0	31392	
1720	0	31266	
1721	0	31200	
1722	0	31160	
1723	0	31216	
1724	0	31320	
1725	0	31424	
1726	0	31552	
1727	0	31876	
1728	0	32344	
1729	0	32836	
1730	0	33396	
1731	0	34180	
1732	0	35060	
1733	0	36060	
1734	0	37300	
1735	0	38704	
1736	0	40260	
1737	0	41688	
1738	0	42960	
1739	0	44240	
1740	0	45600	
1741	0	46996	
1742	0	48408	
1743	0	49852	
1744	0	51264	
1745	0	52748	
1746	0	54284	
1747	0	55752	
1748	0	57024	
1749	0	58168	
1750	0	59196	
1751	0	60152	
1752	0	60828	
1753	0	61112	
1754	0	60416	
1755	0	58772	
1756	0	56320	
1757	0	53060	
1758	0	49472	
1759	0	45740	
1760	0	41552	
1761	0	36988	
1762	0	32616	
1763	0	29210	
1764	0	26888	
1765	0	25528	
1766	0	24872	
1767	0	24600	
1768	0	24660	
1769	0	24948	
1770	0	25308	
1771	0	25728	
1772	0	26244	
1773	0	26816	
1774	0	27408	
1775	0	27976	
1776	0	28544	
1777	0	29058	
1778	0	29452	
1779	0	29752	
1780	0	29974	
1781	0	30112	
1782	0	30176	
1783	0	30228	
1784	0	30244	
1785	0	30248	
1786	0	30228	
1787	0	30186	
1788	0	30152	
1789	0	30092	
1790	0	30032	
1791	0	29984	
1792	0	29944	
1793	0	29920	
1794	0	29844	
1795	0	29824	
1796	0	29824	
1797	0	29772	
1798	0	29722	
1799	0	29680	
1800	0	29710	
1801	0	29776	
1802	0	29796	
1803	0	29864	
1804	0	29904	
1805	0	29936	
1806	0	29960	
1807	0	29982	
1808	0	30008	
1809	0	30008	
1810	0	30040	
1811	0	30100	
1812	0	30104	
1813	0	30140	
1814	0	30164	
1815	0	30154	
1816	0	30148	
1817	0	30172	
1818	0	30160	
1819	0	30156	
1820	0	30232	
1821	0	30324	
1822	0	30376	
1823	0	30372	
1824	0	30432	
1825	0	30528	
1826	0	30550	
1827	0	30596	
1828	0	30608	
1829	0	30672	
1830	0	30754	
1831	0	30788	
1832	0	30744	
1833	0	30714	
1834	0	30748	
1835	0	30796	
1836	0	30854	
1837	0	30856	
1838	0	30866	
1839	0	30928	
1840	0	30988	
1841	0	31028	
1842	0	31072	
1843	0	31088	
1844	0	31088	
1845	0	31168	
1846	0	31258	
1847	0	31300	
1848	0	31328	
1849	0	31360	
1850	0	31364	
1851	0	31352	
1852	0	31348	
1853	0	31392	
1854	0	31476	
1855	0	31504	
1856	0	31516	
1857	0	31552	
1858	0	31580	
1859	0	31584	
1860	0	31600	
1861	0	31648	
1862	0	31700	
1863	0	31738	
1864	0	31760	
1865	0	31802	
1866	0	31848	
1867	0	31896	
1868	0	31948	
1869	0	32008	
1870	0	32036	
1871	0	32033	
1872	0	32020	
1873	0	32020	
1874	0	32068	
1875	0	32090	
1876	0	32064	
1877	0	32096	
1878	0	32096	
1879	0	32152	
1880	0	32180	
1881	0	32216	
1882	0	32282	
1883	0	32344	
1884	0	32384	
1885	0	32440	
1886	0	32488	
1887	0	32472	
1888	0	32512	
1889	0	32536	
1890	0	32512	
1891	0	32544	
1892	0	32610	
1893	0	32642	
1894	0	32664	
1895	0	32716	
1896	0	32764	
1897	0	32808	
1898	0	32832	
1899	0	32810	
1900	0	32848	
1901	0	32884	
1902	0	32932	
1903	0	32952	
1904	0	33036	
1905	0	33132	
1906	0	33232	
1907	0	33304	
1908	0	33348	
1909	0	33400	
1910	0	33448	
1911	0	33504	
1912	0	33556	
1913	0	33632	
1914	0	33676	
1915	0	33684	
1916	0	33700	
1917	0	33744	
1918	0	33784	
1919	0	33840	
1920	0	33888	
1921	0	33920	
1922	0	33988	
1923	0	34054	
1924	0	34152	
1925	0	34284	
1926	0	34352	
1927	0	34396	
1928	0	34488	
1929	0	34552	
1930	0	34612	
1931	0	34684	
1932	0	34744	
1933	0	34784	
1934	0	34844	
1935	0	34880	
1936	0	34944	
1937	0	35012	
1938	0	35056	
1939	0	35120	
1940	0	35184	
1941	0	35244	
1942	0	35348	
1943	0	35444	
1944	0	35564	
1945	0	35680	
1946	0	35764	
1947	0	35832	
1948	0	35940	
1949	0	36076	
1950	0	36200	
1951	0	36284	
1952	0	36380	
1953	0	36380	
1954	0	36392	
1955	0	36390	
1956	0	36392	
1957	0	36444	
1958	0	36524	
1959	0	36576	
1960	0	36608	
1961	0	36652	
1962	0	36708	
1963	0	36784	
1964	0	36860	
1965	0	36924	
1966	0	36976	
1967	0	37036	
1968	0	37116	
1969	0	37168	
1970	0	37168	
1971	0	37150	
1972	0	37140	
1973	0	37136	
1974	0	37124	
1975	0	37132	
1976	0	37184	
1977	0	37252	
1978	0	37248	
1979	0	37200	
1980	0	37128	
1981	0	37092	
1982	0	37068	
1983	0	37060	
1984	0	37024	
1985	0	36940	
1986	0	36888	
1987	0	36856	
1988	0	36808	
1989	0	36724	
1990	0	36656	
1991	0	36484	
1992	0	36320	
1993	0	36160	
1994	0	35980	
1995	0	35804	
1996	0	35628	
1997	0	35420	
1998	0	35172	
1999	0	34920	
2000	0	34688	
2001	0	34480	
2002	0	34336	
2003	0	34184	
2004	0	34012	
2005	0	33852	
2006	0	33692	
2007	0	33524	
2008	0	33344	
2009	0	33192	
2010	0	33004	
2011	0	32784	
2012	0	32616	
2013	0	32484	
2014	0	32292	
2015	0	32128	
2016	0	31960	
2017	0	31808	
2018	0	31630	
2019	0	31456	
2020	0	31324	
2021	0	31168	
2022	0	31032	
2023	0	30908	
2024	0	30832	
2025	0	30740	
2026	0	30586	
2027	0	30496	
2028	0	30424	
2029	0	30328	
2030	0	30212	
2031	0	30076	
2032	0	29980	
2033	0	29880	
2034	0	29780	
2035	0	29730	
2036	0	29652	
2037	0	29608	
2038	0	29524	
2039	0	29488	
2040	0	29484	
2041	0	29498	
2042	0	29500	
2043	0	29488	
2044	0	29460	
2045	0	29456	
2046	0	29488	
2047	0	29476	
2048	0	29464	
2049	0	29440	
2050	0	29424	
2051	0	29464	
2052	0	29464	
2053	0	29409	
2054	0	29376	
2055	0	29370	
2056	0	29364	
2057	0	29320	
2058	0	29276	
2059	0	29280	
2060	0	29356	
2061	0	29408	
2062	0	29470	
2063	0	29544	
2064	0	29596	
2065	0	29620	
2066	0	29656	
2067	0	29676	
2068	0	29636	
2069	0	29556	
2070	0	29536	
2071	0	29624	
2072	0	29748	
2073	0	29818	
2074	0	29808	
2075	0	29800	
2076	0	29844	
2077	0	29860	
2078	0	29840	
2079	0	29788	
2080	0	29788	
2081	0	29816	
2082	0	29836	
2083	0	29904	
2084	0	29976	
2085	0	30024	
2086	0	30064	
2087	0	30080	
2088	0	30140	
2089	0	30176	
2090	0	30188	
2091	0	30176	
2092	0	30168	
2093	0	30172	
2094	0	30232	
2095	0	30272	
2096	0	30244	
2097	0	30236	
2098	0	30224	
2099	0	30240	
2100	0	30196	
2101	0	30248	
2102	0	30304	
2103	0	30392	
2104	0	30488	
2105	0	30538	
2106	0	30540	
2107	0	30512	
2108	0	30480	
2109	0	30480	
2110	0	30496	
2111	0	30552	
2112	0	30552	
2113	0	30548	
2114	0	30566	
2115	0	30588	
2116	0	30596	
2117	0	30600	
2118	0	30614	
2119	0	30656	
2120	0	30720	
2121	0	30768	
2122	0	30836	
2123	0	30848	
2124	0	30836	
2125	0	30860	
2126	0	30896	
2127	0	30944	
2128	0	30960	
2129	0	30968	
2130	0	31004	
2131	0	31016	
2132	0	30956	
2133	0	30944	
2134	0	30960	
2135	0	30964	
2136	0	30988	
2137	0	31020	
2138	0	31024	
2139	0	31012	
2140	0	31056	
2141	0	31096	
2142	0	31090	
2143	0	31112	
2144	0	31152	
2145	0	31188	
2146	0	31220	
2147	0	31216	
2148	0	31220	
2149	0	31266	
2150	0	31264	
2151	0	31260	
2152	0	31280	
2153	0	31300	
2154	0	31316	
2155	0	31320	
2156	0	31296	
2157	0	31296	
2158	0	31284	
2159	0	31268	
2160	0	31280	
2161	0	31296	
2162	0	31336	
2163	0	31368	
2164	0	31388	
2165	0	31392	
2166	0	31404	
2167	0	31420	
2168	0	31404	
2169	0	31388	
2170	0	31412	
2171	0	31464	
2172	0	31472	
2173	0	31486	
2174	0	31476	
2175	0	31458	
2176	0	31464	
2177	0	31488	
2178	0	31488	
2179	0	31500	
2180	0	31528	
2181	0	31584	
2182	0	31648	
2183	0	31676	
2184	0	31692	
2185	0	31708	
2186	0	31724	
2187	0	31768	
2188	0	31764	
2189	0	31752	
2190	0	31752	
2191	0	31746	
2192	0	31744	
2193	0	31744	
2194	0	31716	
2195	0	31704	
2196	0	31720	
2197	0	31740	
2198	0	31720	
2199	0	31728	
2200	0	31748	
2201	0	31788	
2202	0	31824	
2203	0	31820	
2204	0	31876	
2205	0	31914	
2206	0	31944	
2207	0	31988	
2208	0	32016	
2209	0	32004	
2210	0	31980	
2211	0	31980	
2212	0	31950	
2213	0	31952	
2214	0	31924	
2215	0	31896	
2216	0	31920	
2217	0	31920	
2218	0	31908	
2219	0	31884	
2220	0	31880	
2221	0	31888	
2222	0	31928	
2223	0	31920	
2224	0	31916	
2225	0	31952	
2226	0	32012	
2227	0	32048	
2228	0	32108	
2229	0	32096	
2230	0	32076	
2231	0	32108	
2232	0	32117	
2233	0	32120	
2234	0	32112	
2235	0	32076	
2236	0	32056	
2237	0	32084	
2238	0	32098	
2239	0	32096	
2240	0	32100	
2241	0	32084	
2242	0	32076	
2243	0	32104	
2244	0	32128	
2245	0	32184	
2246	0	32192	
2247	0	32176	
2248	0	32180	
2249	0	32176	
2250	0	32184	
2251	0	32196	
2252	0	32200	
2253	0	32192	
2254	0	32168	
2255	0	32194	
2256	0	32228	
2257	0	32288	
2258	0	32296	
2259	0	32248	
2260	0	32248	
2261	0	32240	
2262	0	32232	
2263	0	32250	
2264	0	32248	
2265	0	32256	
2266	0	32312	
2267	0	32332	
2268	0	32288	
2269	0	32284	
2270	0	32336	
2271	0	32380	
2272	0	32386	
2273	0	32380	
2274	0	32380	
2275	0	32384	
2276	0	32380	
2277	0	32392	
2278	0	32392	
2279	0	32380	
2280	0	32360	
2281	0	32328	
2282	0	32276	
2283	0	32268	
2284	0	32348	
2285	0	32480	
2286	0	32664	
2287	0	32784	
2288	0	32856	
2289	0	32912	
2290	0	33032	
2291	0	33190	
2292	0	33352	
2293	0	33496	
2294	0	33672	
2295	0	33744	
2296	0	33764	
2297	0	33856	
2298	0	34004	
2299	0	34144	
2300	0	34200	
2301	0	34212	
2302	0	34256	
2303	0	34336	
2304	0	34428	
2305	0	34496	
2306	0	34524	
2307	0	34564	
2308	0	34632	
2309	0	34688	
2310	0	34696	
2311	0	34724	
2312	0	34764	
2313	0	34848	
2314	0	34952	
2315	0	35034	
2316	0	35116	
2317	0	35188	
2318	0	35252	
2319	0	35308	
2320	0	35372	
2321	0	35376	
2322	0	35338	
2323	0	35304	
2324	0	35276	
2325	0	35280	
2326	0	35280	
2327	0	35274	
2328	0	35252	
2329	0	35308	
2330	0	35416	
2331	0	35468	
2332	0	35412	
2333	0	35296	
2334	0	35128	
2335	0	34972	
2336	0	34796	
2337	0	34632	
2338	0	34488	
2339	0	34352	
2340	0	34236	
2341	0	34128	
2342	0	34024	
2343	0	33924	
2344	0	33856	
2345	0	33780	
2346	0	33710	
2347	0	33648	
2348	0	33608	
2349	0	33584	
2350	0	33568	
2351	0	33560	
2352	0	33612	
2353	0	33628	
2354	0	33568	
2355	0	33468	
2356	0	33364	
2357	0	33216	
2358	0	33152	
2359	0	33128	
2360	0	33048	
2361	0	32968	
2362	0	32914	
2363	0	32816	
2364	0	32762	
2365	0	32684	
2366	0	32564	
2367	0	32444	
2368	0	32296	
2369	0	32144	
2370	0	32052	
2371	0	31932	
2372	0	31828	
2373	0	31756	
2374	0	31658	
2375	0	31616	
2376	0	31604	
2377	0	31588	
2378	0	31588	
2379	0	31556	
2380	0	31596	
2381	0	31628	
2382	0	31640	
2383	0	31688	
2384	0	31704	
2385	0	31656	
2386	0	31628	
2387	0	31648	
2388	0	31640	
2389	0	31584	
2390	0	31624	
2391	0	31684	
2392	0	31668	
2393	0	31628	
2394	0	31596	
2395	0	31596	
2396	0	31616	
2397	0	31624	
2398	0	31628	
2399	0	31624	
2400	0	31668	
2401	0	31708	
2402	0	31720	
2403	0	31732	
2404	0	31784	
2405	0	31808	
2406	0	31816	
2407	0	31836	
2408	0	31864	
2409	0	31904	
2410	0	31936	
2411	0	31948	
2412	0	31928	
2413	0	31916	
2414	0	31900	
2415	0	31934	
2416	0	31948	
2417	0	31968	
2418	0	31960	
2419	0	31980	
2420	0	32052	
2421	0	32116	
2422	0	32142	
2423	0	32180	
2424	0	32192	
2425	0	32120	
2426	0	32068	
2427	0	32032	
2428	0	31936	
2429	0	31822	
2430	0	31708	
2431	0	31644	
2432	0	31640	
2433	0	31674	
2434	0	31736	
2435	0	31808	
2436	0	31960	
2437	0	32320	
2438	0	32836	
2439	0	33408	
2440	0	34112	
2441	0	34928	
2442	0	35832	
2443	0	36912	
2444	0	38216	
2445	0	39712	
2446	0	41136	
2447	0	42380	
2448	0	43604	
2449	0	44856	
2450	0	46216	
2451	0	47680	
2452	0	49184	
2453	0	50620	
2454	0	52132	
2455	0	53776	
2456	0	55232	
2457	0	56528	
2458	0	57688	
2459	0	58608	
2460	0	59544	
2461	0	60376	
2462	0	61008	
2463	0	60960	
2464	0	59792	
2465	0	57788	
2466	0	54912	
2467	0	51480	
2468	0	47828	
2469	0	43856	
2470	0	39434	
2471	0	34956	
2472	0	31152	
2473	0	28468	
2474	0	26776	
2475	0	25760	
2476	0	25264	
2477	0	25152	
2478	0	25292	
2479	0	25616	
2480	0	26122	
2481	0	26720	
2482	0	27408	
2483	0	28096	
2484	0	28768	
2485	0	29364	
2486	0	29872	
2487	0	30264	
2488	0	30496	
2489	0	30644	
2490	0	30724	
2491	0	30752	
2492	0	30708	
2493	0	30704	
2494	0	30672	
2495	0	30592	
2496	0	30512	
2497	0	30448	
2498	0	30420	
2499	0	30370	
2500	0	30300	
2501	0	30236	
2502	0	30212	
2503	0	30176	
2504	0	30146	
2505	0	30160	
2506	0	30160	
2507	0	30116	
2508	0	30100	
2509	0	30116	
2510	0	30092	
2511	0	30120	
2512	0	30120	
2513	0	30104	
2514	0	30072	
2515	0	30112	
2516	0	30156	
2517	0	30180	
2518	0	30212	
2519	0	30228	
2520	0	30232	
2521	0	30290	
2522	0	30336	
2523	0	30396	
2524	0	30448	
2525	0	30480	
2526	0	30476	
2527	0	30496	
2528	0	30540	
2529	0	30572	
2530	0	30570	
2531	0	30596	
2532	0	30576	
2533	0	30564	
2534	0	30620	
2535	0	30632	
2536	0	30656	
2537	0	30664	
2538	0	30712	
2539	0	30744	
2540	0	30792	
2541	0	30856	
2542	0	30916	
2543	0	30976	
2544	0	31056	
2545	0	31124	
2546	0	31178	
2547	0	31196	
2548	0	31168	
2549	0	31176	
2550	0	31156	
2551	0	31164	
2552	0	31172	
2553	0	31208	
2554	0	31244	
2555	0	31296	
2556	0	31292	
2557	0	31296	
2558	0	31324	
2559	0	31364	
2560	0	31416	
2561	0	31488	
2562	0	31548	
2563	0	31588	
2564	0	31628	
2565	0	31656	
2566	0	31664	
2567	0	31662	
2568	0	31648	
2569	0	31662	
2570	0	31716	
2571	0	31824	
2572	0	31876	
2573	0	31876	
2574	0	31888	
2575	0	31880	
2576	0	31898	
2577	0	31940	
2578	0	31972	
2579	0	31992	
2580	0	32024	
2581	0	32054	
2582	0	32072	
2583	0	32076	
2584	0	32068	
2585	0	32124	
2586	0	32152	
2587	0	32172	
2588	0	32194	
2589	0	32248	
2590	0	32312	
2591	0	32296	
2592	0	32332	
2593	0	32416	
2594	0	32464	
2595	0	32512	
2596	0	32544	
2597	0	32528	
2598	0	32524	
2599	0	32560	
2600	0	32592	
2601	0	32592	
2602	0	32636	
2603	0	32692	
2604	0	32760	
2605	0	32832	
2606	0	32876	
2607	0	32952	
2608	0	33020	
2609	0	33040	
2610	0	33052	
2611	0	33052	
2612	0	33056	
2613	0	33084	
2614	0	33140	
2615	0	33200	
2616	0	33248	
2617	0	33268	
2618	0	33292	
2619	0	33344	
2620	0	33392	
2621	0	33440	
2622	0	33488	
2623	0	33576	
2624	0	33640	
2625	0	33700	
2626	0	33776	
2627	0	33868	
2628	0	33936	
2629	0	33972	
2630	0	34000	
2631	0	33992	
2632	0	33976	
2633	0	34008	
2634	0	34020	
2635	0	34092	
2636	0	34168	
2637	0	34232	
2638	0	34320	
2639	0	34404	
2640	0	34532	
2641	0	34620	
2642	0	34724	
2643	0	34796	
2644	0	34880	
2645	0	35004	
2646	0	35120	
2647	0	35200	
2648	0	35284	
2649	0	35372	
2650	0	35384	
2651	0	35428	
2652	0	35456	
2653	0	35468	
2654	0	35512	
2655	0	35552	
2656	0	35568	
2657	0	35652	
2658	0	35736	
2659	0	35844	
2660	0	35904	
2661	0	35988	
2662	0	36064	
2663	0	36152	
2664	0	36240	
2665	0	36284	
2666	0	36368	
2667	0	36412	
2668	0	36488	
2669	0	36556	
2670	0	36592	
2671	0	36600	
2672	0	36620	
2673	0	36674	
2674	0	36732	
2675	0	36760	
2676	0	36768	
2677	0	36762	
2678	0	36796	
2679	0	36848	
2680	0	36884	
2681	0	36912	
2682	0	36968	
2683	0	37016	
2684	0	37080	
2685	0	37152	
2686	0	37244	
2687	0	37324	
2688	0	37272	
2689	0	37128	
2690	0	37056	
2691	0	37028	
2692	0	37056	
2693	0	37116	
2694	0	37088	
2695	0	37012	
2696	0	36936	
2697	0	36804	
2698	0	36704	
2699	0	36608	
2700	0	36500	
2701	0	36388	
2702	0	36316	
2703	0	36224	
2704	0	36072	
2705	0	35888	
2706	0	35744	
2707	0	35612	
2708	0	35428	
2709	0	35244	
2710	0	35108	
2711	0	34904	
2712	0	34692	
2713	0	34524	
2714	0	34368	
2715	0	34172	
2716	0	33984	
2717	0	33808	
2718	0	33604	
2719	0	33408	
2720	0	33240	
2721	0	33090	
2722	0	32924	
2723	0	32752	
2724	0	32564	
2725	0	32392	
2726	0	32240	
2727	0	32080	
2728	0	31932	
2729	0	31808	
2730	0	31664	
2731	0	31516	
2732	0	31368	
2733	0	31240	
2734	0	31114	
2735	0	30988	
2736	0	30846	
2737	0	30700	
2738	0	30560	
2739	0	30462	
2740	0	30336	
2741	0	30240	
2742	0	30192	
2743	0	30132	
2744	0	30092	
2745	0	30040	
2746	0	29976	
2747	0	29916	
2748	0	29892	
2749	0	29888	
2750	0	29824	
2751	0	29754	
2752	0	29684	
2753	0	29636	
2754	0	29608	
2755	0	29570	
2756	0	29576	
2757	0	29548	
2758	0	29524	
2759	0	29512	
2760	0	29488	
2761	0	29508	
2762	0	29520	
2763	0	29528	
2764	0	29540	
2765	0	29516	
2766	0	29498	
2767	0	29532	
2768	0	29560	
2769	0	29600	
2770	0	29668	
2771	0	29684	
2772	0	29680	
2773	0	29652	
2774	0	29660	
2775	0	29648	
2776	0	29608	
2777	0	29628	
2778	0	29684	
2779	0	29720	
2780	0	29708	
2781	0	29712	
2782	0	29732	
2783	0	29744	
2784	0	29776	
2785	0	29802	
2786	0	29844	
2787	0	29908	
2788	0	29984	
2789	0	30056	
2790	0	30056	
2791	0	30080	
2792	0	30108	
2793	0	30148	
2794	0	30180	
2795	0	30154	
2796	0	30104	
2797	0	30104	
2798	0	30144	
2799	0	30216	
2800	0	30288	
2801	0	30316	
2802	0	30332	
2803	0	30380	
2804	0	30424	
2805	0	30432	
2806	0	30408	
2807	0	30396	
2808	0	30386	
2809	0	30380	
2810	0	30428	
2811	0	30476	
2812	0	30528	
2813	0	30576	
2814	0	30580	
2815	0	30592	
2816	0	30558	
2817	0	30592	
2818	0	30656	
2819	0	30692	
2820	0	30720	
2821	0	30724	
2822	0	30752	
2823	0	30752	
2824	0	30788	
2825	0	30848	
2826	0	30868	
2827	0	30876	
2828	0	30892	
2829	0	30942	
2830	0	30988	
2831	0	31012	
2832	0	31016	
2833	0	31004	
2834	0	30996	
2835	0	31008	
2836	0	31004	
2837	0	31000	
2838	0	30996	
2839	0	31020	
2840	0	31036	
2841	0	31072	
2842	0	31100	
2843	0	31096	
2844	0	31112	
2845	0	31152	
2846	0	31212	
2847	0	31248	
2848	0	31280	
2849	0	31300	
2850	0	31290	
2851	0	31272	
2852	0	31268	
2853	0	31236	
2854	0	31210	
2855	0	31228	
2856	0	31248	
2857	0	31232	
2858	0	31224	
2859	0	31256	
2860	0	31264	
2861	0	31284	
2862	0	31360	
2863	0	31396	
2864	0	31412	
2865	0	31456	
2866	0	31452	
2867	0	31448	
2868	0	31432	
2869	0	31436	
2870	0	31436	
2871	0	31444	
2872	0	31432	
2873	0	31404	
2874	0	31368	
2875	0	31340	
2876	0	31368	
2877	0	31416	
2878	0	31458	
2879	0	31476	
2880	0	31488	
2881	0	31492	
2882	0	31528	
2883	0	31552	
2884	0	31576	
2885	0	31584	
2886	0	31584	
2887	0	31604	
2888	0	31608	
2889	0	31596	
2890	0	31600	
2891	0	31624	
2892	0	31678	
2893	0	31708	
2894	0	31708	
2895	0	31704	
2896	0	31704	
2897	0	31688	
2898	0	31676	
2899	0	31672	
2900	0	31724	
2901	0	31780	
2902	0	31820	
2903	0	31868	
2904	0	31852	
2905	0	31840	
2906	0	31848	
2907	0	31832	
2908	0	31828	
2909	0	31864	
2910	0	31880	
2911	0	31880	
2912	0	31856	
2913	0	31822	
2914	0	31808	
2915	0	31813	
2916	0	31824	
2917	0	31808	
2918	0	31780	
2919	0	31760	
2920	0	31778	
2921	0	31804	
2922	0	31824	
2923	0	31876	
2924	0	31924	
2925	0	31952	
2926	0	31984	
2927	0	32016	
2928	0	32016	
2929	0	32036	
2930	0	32048	
2931	0	32034	
2932	0	32036	
2933	0	32004	
2934	0	31984	
2935	0	31980	
2936	0	31997	
2937	0	32000	
2938	0	31976	
2939	0	31984	
2940	0	32016	
2941	0	32076	
2942	0	32076	
2943	0	32056	
2944	0	32080	
2945	0	32156	
2946	0	32224	
2947	0	32248	
2948	0	32224	
2949	0	32212	
2950	0	32196	
2951	0	32146	
2952	0	32168	
2953	0	32164	
2954	0	32140	
2955	0	32160	
2956	0	32168	
2957	0	32140	
2958	0	32168	
2959	0	32204	
2960	0	32240	
2961	0	32248	
2962	0	32200	
2963	0	32192	
2964	0	32152	
2965	0	32152	
2966	0	32196	
2967	0	32232	
2968	0	32236	
2969	0	32212	
2970	0	32224	
2971	0	32224	
2972	0	32216	
2973	0	32272	
2974	0	32288	
2975	0	32272	
2976	0	32264	
2977	0	32244	
2978	0	32216	
2979	0	32236	
2980	0	32288	
2981	0	32344	
2982	0	32388	
2983	0	32392	
2984	0	32368	
2985	0	32380	
2986	0	32384	
2987	0	32392	
2988	0	32420	
2989	0	32492	
2990	0	32580	
2991	0	32620	
2992	0	32688	
2993	0	32800	
2994	0	32992	
2995	0	33218	
2996	0	33428	
2997	0	33566	
2998	0	33668	
2999	0	33772	
3000	0	33880	
3001	0	34016	
3002	0	34112	
3003	0	34192	
3004	0	34208	
3005	0	34250	
3006	0	34328	
3007	0	34388	
3008	0	34456	
3009	0	34520	
3010	0	34536	
3011	0	34492	
3012	0	34496	
3013	0	34500	
3014	0	34532	
3015	0	34616	
3016	0	34712	
3017	0	34812	
3018	0	34916	
3019	0	35044	
3020	0	35172	
3021	0	35240	
3022	0	35312	
3023	0	35360	
3024	0	35368	
3025	0	35344	
3026	0	35284	
3027	0	35306	
3028	0	35368	
3029	0	35384	
3030	0	35396	
3031	0	35424	
3032	0	35444	
3033	0	35456	
3034	0	35384	
3035	0	35260	
3036	0	35136	
3037	0	35048	
3038	0	34952	
3039	0	34768	
3040	0	34600	
3041	0	34432	
3042	0	34264	
3043	0	34156	
3044	0	34056	
3045	0	33996	
3046	0	33944	
3047	0	33880	
3048	0	33808	
3049	0	33732	
3050	0	33668	
3051	0	33588	
3052	0	33520	
3053	0	33504	
3054	0	33576	
3055	0	33564	
3056	0	33512	
3057	0	33386	
3058	0	33272	
3059	0	33136	
3060	0	33056	
3061	0	32976	
3062	0	32884	
3063	0	32800	
3064	0	32706	
3065	0	32616	
3066	0	32512	
3067	0	32432	
3068	0	32328	
3069	0	32188	
3070	0	32064	
3071	0	31968	
3072	0	31864	
3073	0	31744	
3074	0	31684	
3075	0	31592	
3076	0	31480	
3077	0	31420	
3078	0	31416	
3079	0	31440	
3080	0	31488	
3081	0	31584	
3082	0	31672	
3083	0	31660	
3084	0	31632	
3085	0	31650	
3086	0	31700	
3087	0	31706	
3088	0	31676	
3089	0	31632	
3090	0	31640	
3091	0	31672	
3092	0	31648	
3093	0	31640	
3094	0	31652	
3095	0	31632	
3096	0	31636	
3097	0	31608	
3098	0	31540	
3099	0	31492	
3100	0	31504	
3101	0	31552	
3102	0	31556	
3103	0	31548	
3104	0	31586	
3105	0	31640	
3106	0	31637	
3107	0	31632	
3108	0	31684	
3109	0	31718	
3110	0	31744	
3111	0	31744	
3112	0	31724	
3113	0	31716	
3114	0	31744	
3115	0	31764	
3116	0	31770	
3117	0	31754	
3118	0	31756	
3119	0	31808	
3120	0	31840	
3121	0	31872	
3122	0	31896	
3123	0	31956	
3124	0	32000	
3125	0	32012	
3126	0	32020	
3127	0	32008	
3128	0	31956	
3129	0	31920	
3130	0	31808	
3131	0	31648	
3132	0	31456	
3133	0	31264	
3134	0	31154	
3135	0	31168	
3136	0	31216	
3137	0	31332	
3138	0	31560	
3139	0	31960	
3140	0	32500	
3141	0	33092	
3142	0	33836	
3143	0	34728	
3144	0	35700	
3145	0	36856	
3146	0	38160	
3147	0	39636	
3148	0	41064	
3149	0	42368	
3150	0	43720	
3151	0	45132	
3152	0	46576	
3153	0	48104	
3154	0	49672	
3155	0	51088	
3156	0	52552	
3157	0	54064	
3158	0	55480	
3159	0	56740	
3160	0	57828	
3161	0	58792	
3162	0	59736	
3163	0	60512	
3164	0	60960	
3165	0	60612	
3166	0	59248	
3167	0	56936	
3168	0	53744	
3169	0	50208	
3170	0	46560	
3171	0	42488	
3172	0	37964	
3173	0	33576	
3174	0	30088	
3175	0	27676	
3176	0	26184	
3177	0	25380	
3178	0	25052	
3179	0	25092	
3180	0	25301	
3181	0	25648	
3182	0	26104	
3183	0	26688	
3184	0	27332	
3185	0	27956	
3186	0	28580	
3187	0	29232	
3188	0	29756	
3189	0	30136	
3190	0	30396	
3191	0	30500	
3192	0	30554	
3193	0	30552	
3194	0	30528	
3195	0	30496	
3196	0	30468	
3197	0	30404	
3198	0	30344	
3199	0	30272	
3200	0	30216	
3201	0	30132	
3202	0	30064	
3203	0	30076	
3204	0	30100	
3205	0	30070	
3206	0	30028	
3207	0	30022	
3208	0	30024	
3209	0	30008	
3210	0	30000	
3211	0	30044	
3212	0	30042	
3213	0	30068	
3214	0	30108	
3215	0	30126	
3216	0	30080	
3217	0	30004	
3218	0	30012	
3219	0	29984	
3220	0	29956	
3221	0	29992	
3222	0	30084	
3223	0	30202	
3224	0	30280	
3225	0	30304	
3226	0	30308	
3227	0	30316	
3228	0	30286	
3229	0	30284	
3230	0	30308	
3231	0	30388	
3232	0	30444	
3233	0	30460	
3234	0	30476	
3235	0	30520	
3236	0	30536	
3237	0	30552	
3238	0	30574	
3239	0	30628	
3240	0	30698	
3241	0	30752	
3242	0	30784	
3243	0	30788	
3244	0	30816	
3245	0	30848	
3246	0	30930	
3247	0	30996	
3248	0	30996	
3249	0	31008	
3250	0	31008	
3251	0	31008	
3252	0	31040	
3253	0	31044	
3254	0	31016	
3255	0	31032	
3256	0	31076	
3257	0	31080	
3258	0	31084	
3259	0	31104	
3260	0	31152	
3261	0	31224	
3262	0	31312	
3263	0	31388	
3264	0	31448	
3265	0	31488	
3266	0	31528	
3267	0	31520	
3268	0	31564	
3269	0	31632	
3270	0	31660	
3271	0	31620	
3272	0	31584	
3273	0	31568	
3274	0	31560	
3275	0	31576	
3276	0	31648	
3277	0	31674	
3278	0	31728	
3279	0	31768	
3280	0	31796	
3281	0	31860	
3282	0	31876	
3283	0	31912	
3284	0	31952	
3285	0	32016	
3286	0	32060	
3287	0	32092	
3288	0	32100	
3289	0	32120	
3290	0	32136	
3291	0	32158	
3292	0	32176	
3293	0	32192	
3294	0	32228	
3295	0	32260	
3296	0	32304	
3297	0	32352	
3298	0	32384	
3299	0	32396	
3300	0	32392	
3301	0	32428	
3302	0	32496	
3303	0	32572	
3304	0	32612	
3305	0	32644	
3306	0	32686	
3307	0	32756	
3308	0	32828	
3309	0	32864	
3310	0	32860	
3311	0	32876	
3312	0	32920	
3313	0	32944	
3314	0	32984	
3315	0	33020	
3316	0	33040	
3317	0	33064	
3318	0	33124	
3319	0	33180	
3320	0	33232	
3321	0	33272	
3322	0	33312	
3323	0	33360	
3324	0	33448	
3325	0	33536	
3326	0	33596	
3327	0	33656	
3328	0	33728	
3329	0	33764	
3330	0	33760	
3331	0	33712	
3332	0	33728	
3333	0	33808	
3334	0	33854	
3335	0	33896	
3336	0	33980	
3337	0	34056	
3338	0	34112	
3339	0	34168	
3340	0	34240	
3341	0	34296	
3342	0	34350	
3343	0	34412	
3344	0	34472	
3345	0	34500	
3346	0	34604	
3347	0	34732	
3348	0	34828	
3349	0	34928	
3350	0	34976	
3351	0	34984	
3352	0	34992	
3353	0	35024	
3354	0	35106	
3355	0	35232	
3356	0	35352	
3357	0	35464	
3358	0	35576	
3359	0	35640	
3360	0	35680	
3361	0	35696	
3362	0	35764	
3363	0	35848	
3364	0	35896	
3365	0	35956	
3366	0	36024	
3367	0	36100	
3368	0	36112	
3369	0	36124	
3370	0	36196	
3371	0	36256	
3372	0	36320	
3373	0	36400	
3374	0	36408	
3375	0	36436	
3376	0	36428	
3377	0	36444	
3378	0	36504	
3379	0	36544	
3380	0	36592	
3381	0	36664	
3382	0	36708	
3383	0	36712	
3384	0	36756	
3385	0	36812	
3386	0	36844	
3387	0	36816	
3388	0	36816	
3389	0	36814	
3390	0	36794	
3391	0	36792	
3392	0	36776	
3393	0	36760	
3394	0	36736	
3395	0	36696	
3396	0	36648	
3397	0	36624	
3398	0	36556	
3399	0	36504	
3400	0	36448	
3401	0	36392	
3402	0	36272	
3403	0	36168	
3404	0	36076	
3405	0	35968	
3406	0	35800	
3407	0	35676	
3408	0	35596	
3409	0	35480	
3410	0	35296	
3411	0	35080	
3412	0	34900	
3413	0	34752	
3414	0	34528	
3415	0	34328	
3416	0	34112	
3417	0	33844	
3418	0	33616	
3419	0	33464	
3420	0	33368	
3421	0	33226	
3422	0	33050	
3423	0	32864	
3424	0	32664	
3425	0	32508	
3426	0	32372	
3427	0	32186	
3428	0	32032	
3429	0	31904	
3430	0	31728	
3431	0	31564	
3432	0	31452	
3433	0	31332	
3434	0	31216	
3435	0	31084	
3436	0	30944	
3437	0	30800	
3438	0	30706	
3439	0	30600	
3440	0	30480	
3441	0	30388	
3442	0	30344	
3443	0	30272	
3444	0	30172	
3445	0	30072	
3446	0	29996	
3447	0	29944	
3448	0	29920	
3449	0	29888	
3450	0	29808	
3451	0	29724	
3452	0	29652	
3453	0	29596	
3454	0	29568	
3455	0	29548	
3456	0	29524	
3457	0	29484	
3458	0	29472	
3459	0	29452	
3460	0	29428	
3461	0	29424	
3462	0	29464	
3463	0	29504	
3464	0	29488	
3465	0	29492	
3466	0	29488	
3467	0	29504	
3468	0	29548	
3469	0	29544	
3470	0	29496	
3471	0	29404	
3472	0	29408	
3473	0	29444	
3474	0	29408	
3475	0	29364	
3476	0	29376	
3477	0	29460	
3478	0	29572	
3479	0	29612	
3480	0	29598	
3481	0	29580	
3482	0	29620	
3483	0	29664	
3484	0	29720	
3485	0	29752	
3486	0	29792	
3487	0	29820	
3488	0	29840	
3489	0	29876	
3490	0	29872	
3491	0	29848	
3492	0	29856	
3493	0	29916	
3494	0	29956	
3495	0	29984	
3496	0	30004	
3497	0	30002	
3498	0	30056	
3499	0	30128	
3500	0	30172	
3501	0	30124	
3502	0	30088	
3503	0	30112	
3504	0	30164	
3505	0	30188	
3506	0	30236	
3507	0	30288	
3508	0	30304	
3509	0	30276	
3510	0	30284	
3511	0	30304	
3512	0	30318	
3513	0	30356	
3514	0	30348	
3515	0	30336	
3516	0	30324	
3517	0	30328	
3518	0	30368	
3519	0	30416	
3520	0	30484	
3521	0	30500	
3522	0	30512	
3523	0	30536	
3524	0	30558	
3525	0	30600	
3526	0	30672	
3527	0	30688	
3528	0	30700	
3529	0	30748	
3530	0	30776	
3531	0	30788	
3532	0	30760	
3533	0	30708	
3534	0	30664	
3535	0	30676	
3536	0	30676	
3537	0	30672	
3538	0	30704	
3539	0	30736	
3540	0	30768	
3541	0	30848	
3542	0	30900	
3543	0	30912	
3544	0	30944	
3545	0	30988	
3546	0	31032	
3547	0	31068	
3548	0	31104	
3549	0	31076	
3550	0	31044	
3551	0	31016	
3552	0	30996	
3553	0	30976	
3554	0	30978	
3555	0	31008	
3556	0	31004	
3557	0	31008	
3558	0	31028	
3559	0	31056	
3560	0	31084	
3561	0	31104	
3562	0	31136	
3563	0	31204	
3564	0	31220	
3565	0	31204	
3566	0	31208	
3567	0	31180	
3568	0	31164	
3569	0	31200	
3570	0	31216	
3571	0	31256	
3572	0	31272	
3573	0	31280	
3574	0	31264	
3575	0	31228	
3576	0	31216	
3577	0	31228	
3578	0	31232	
3579	0	31240	
3580	0	31266	
3581	0	31304	
3582	0	31348	
3583	0	31392	
3584	0	31408	
3585	0	31404	
3586	0	31432	
3587	0	31448	
3588	0	31432	
3589	0	31440	
3590	0	31456	
3591	0	31448	
3592	0	31420	
3593	0	31404	
3594	0	31416	
3595	0	31452	
3596	0	31480	
3597	0	31514	
3598	0	31532	
3599	0	31552	
3600	0	31584	
3601	0	31592	
3602	0	31628	
3603	0	31672	
3604	0	31664	
3605	0	31660	
3606	0	31680	
3607	0	31696	
3608	0	31708	
3609	0	31716	
3610	0	31698	
3611	0	31656	
3612	0	31644	
3613	0	31628	
3614	0	31612	
3615	0	31620	
3616	0	31640	
3617	0	31620	
3618	0	31636	
3619	0	31660	
3620	0	31664	
3621	0	31684	
3622	0	31708	
3623	0	31744	
3624	0	31752	
3625	0	31756	
3626	0	31784	
3627	0	31812	
3628	0	31840	
3629	0	31850	
3630	0	31832	
3631	0	31780	
3632	0	31760	
3633	0	31756	
3634	0	31788	
3635	0	31816	
3636	0	31824	
3637	0	31792	
3638	0	31784	
3639	0	31792	
3640	0	31816	
3641	0	31844	
3642	0	31900	
3643	0	31896	
3644	0	31884	
3645	0	31888	
3646	0	31912	
3647	0	31944	
3648	0	31944	
3649	0	31920	
3650	0	31888	
3651	0	31860	
3652	0	31872	
3653	0	31904	
3654	0	31896	
3655	0	31888	
3656	0	31900	
3657	0	31902	
3658	0	31940	
3659	0	31940	
3660	0	31928	
3661	0	31920	
3662	0	31932	
3663	0	31950	
3664	0	32002	
3665	0	32088	
3666	0	32090	
3667	0	32080	
3668	0	32084	
3669	0	32064	
3670	0	32020	
3671	0	31972	
3672	0	31960	
3673	0	31956	
3674	0	31984	
3675	0	32024	
3676	0	32040	
3677	0	32048	
3678	0	32032	
3679	0	32064	
3680	0	32088	
3681	0	32130	
3682	0	32180	
3683	0	32200	
3684	0	32256	
3685	0	32332	
3686	0	32412	
3687	0	32480	
3688	0	32544	
3689	0	32632	
3690	0	32752	
3691	0	32856	
3692	0	33002	
3693	0	33188	
3694	0	33312	
3695	0	33428	
3696	0	33572	
3697	0	33676	
3698	0	33792	
3699	0	33840	
3700	0	33868	
3701	0	33864	
3702	0	33912	
3703	0	33992	
3704	0	34080	
3705	0	34144	
3706	0	34176	
3707	0	34228	
3708	0	34316	
3709	0	34396	
3710	0	34464	
3711	0	34496	
3712	0	34540	
3713	0	34628	
3714	0	34752	
3715	0	34862	
3716	0	34976	
3717	0	35048	
3718	0	35144	
3719	0	35216	
3720	0	35208	
3721	0	35130	
3722	0	35116	
3723	0	35164	
3724	0	35208	
3725	0	35232	
3726	0	35220	
3727	0	35220	
3728	0	35272	
3729	0	35320	
3730	0	35256	
3731	0	35160	
3732	0	35034	
3733	0	34880	
3734	0	34684	
3735	0	34460	
3736	0	34276	
3737	0	34096	
3738	0	33956	
3739	0	33828	
3740	0	33756	
3741	0	33684	
3742	0	33604	
3743	0	33516	
3744	0	33492	
3745	0	33460	
3746	0	33392	
3747	0	33340	
3748	0	33248	
3749	0	33224	
3750	0	33234	
3751	0	33216	
3752	0	33168	
3753	0	33070	
3754	0	32888	
3755	0	32708	
3756	0	32564	
3757	0	32516	
3758	0	32548	
3759	0	32568	
3760	0	32494	
3761	0	32372	
3762	0	32280	
3763	0	32180	
3764	0	32072	
3765	0	31950	
3766	0	31824	
3767	0	31688	
3768	0	31604	
3769	0	31528	
3770	0	31448	
3771	0	31396	
3772	0	31328	
3773	0	31284	
3774	0	31240	
3775	0	31214	
3776	0	31200	
3777	0	31192	
3778	0	31200	
3779	0	31208	
3780	0	31216	
3781	0	31266	
3782	0	31328	
3783	0	31340	
3784	0	31350	
3785	0	31392	
3786	0	31458	
3787	0	31476	
3788	0	31440	
3789	0	31392	
3790	0	31368	
3791	0	31340	
3792	0	31324	
3793	0	31340	
3794	0	31312	
3795	0	31288	
3796	0	31296	
3797	0	31256	
3798	0	31220	
3799	0	31224	
3800	0	31248	
3801	0	31296	
3802	0	31372	
3803	0	31388	
3804	0	31432	
3805	0	31482	
3806	0	31522	
3807	0	31564	
3808	0	31600	
3809	0	31612	
3810	0	31608	
3811	0	31588	
3812	0	31584	
3813	0	31570	
3814	0	31584	
3815	0	31580	
3816	0	31596	
3817	0	31652	
3818	0	31694	
3819	0	31692	
3820	0	31700	
3821	0	31680	
3822	0	31648	
3823	0	31572	
3824	0	31472	
3825	0	31348	
3826	0	31192	
3827	0	31032	
3828	0	30912	
3829	0	30922	
3830	0	30964	
3831	0	31048	
3832	0	31204	
3833	0	31588	
3834	0	32088	
3835	0	32656	
3836	0	33376	
3837	0	34256	
3838	0	35256	
3839	0	36472	
3840	0	37864	
3841	0	39450	
3842	0	40972	
3843	0	42376	
3844	0	43780	
3845	0	45208	
3846	0	46700	
3847	0	48284	
3848	0	49856	
3849	0	51364	
3850	0	52848	
3851	0	54380	
3852	0	55824	
3853	0	57120	
3854	0	58200	
3855	0	59152	
3856	0	59960	
3857	0	60600	
3858	0	60820	
3859	0	60112	
3860	0	58448	
3861	0	55812	
3862	0	52432	
3863	0	48776	
3864	0	45028	
3865	0	40780	
3866	0	36180	
3867	0	31936	
3868	0	28748	
3869	0	26644	
3870	0	25468	
3871	0	24858	
3872	0	24664	
3873	0	24792	
3874	0	25144	
3875	0	25508	
3876	0	25888	
3877	0	26368	
3878	0	26952	
3879	0	27592	
3880	0	28148	
3881	0	28676	
3882	0	29216	
3883	0	29681	
3884	0	30004	
3885	0	30200	
3886	0	30328	
3887	0	30426	
3888	0	30440	
3889	0	30404	
3890	0	30320	
3891	0	30176	
3892	0	30048	
3893	0	29952	
3894	0	29832	
3895	0	29728	
3896	0	29692	
3897	0	29708	
3898	0	29728	
3899	0	29760	
3900	0	29800	
3901	0	29804	
3902	0	29800	
3903	0	29840	
3904	0	29868	
3905	0	29828	
3906	0	29778	
3907	0	29752	
3908	0	29720	
3909	0	29712	
3910	0	29684	
3911	0	29672	
3912	0	29688	
3913	0	29724	
3914	0	29716	
3915	0	29752	
3916	0	29818	
3917	0	29868	
3918	0	29924	
3919	0	29954	
3920	0	29994	
3921	0	30028	
3922	0	30080	
3923	0	30092	
3924	0	30068	
3925	0	30080	
3926	0	30132	
3927	0	30188	
3928	0	30272	
3929	0	30292	
3930	0	30268	
3931	0	30292	
3932	0	30372	
3933	0	30420	
3934	0	30440	
3935	0	30424	
3936	0	30420	
3937	0	30436	
3938	0	30512	
3939	0	30556	
3940	0	30592	
3941	0	30660	
3942	0	30696	
3943	0	30752	
3944	0	30840	
3945	0	30880	
3946	0	30924	
3947	0	30924	
3948	0	30952	
3949	0	30956	
3950	0	30944	
3951	0	30986	
3952	0	30996	
3953	0	31032	
3954	0	31028	
3955	0	31020	
3956	0	31072	
3957	0	31100	
3958	0	31116	
3959	0	31132	
3960	0	31160	
3961	0	31212	
3962	0	31236	
3963	0	31312	
3964	0	31372	
3965	0	31388	
3966	0	31424	
3967	0	31448	
3968	0	31440	
3969	0	31428	
3970	0	31464	
3971	0	31520	
3972	0	31516	
3973	0	31496	
3974	0	31520	
3975	0	31592	
3976	0	31636	
3977	0	31604	
3978	0	31630	
3979	0	31660	
3980	0	31752	
3981	0	31850	
3982	0	31914	
3983	0	31968	
3984	0	31988	
3985	0	31980	
3986	0	32032	
3987	0	32080	
3988	0	32128	
3989	0	32176	
3990	0	32172	
3991	0	32148	
3992	0	32148	
3993	0	32160	
3994	0	32160	
3995	0	32216	
3996	0	32212	
3997	0	32240	
3998	0	32292	
3999	0	32332	
4000	0	32352	
4001	0	32460	
4002	0	32584	
4003	0	32664	
4004	0	32702	
4005	0	32736	
4006	0	32768	
4007	0	32826	
4008	0	32854	
4009	0	32864	
4010	0	32884	
4011	0	32896	
4012	0	32948	
4013	0	32948	
4014	0	32988	
4015	0	33048	
4016	0	33084	
4017	0	33112	
4018	0	33160	
4019	0	33236	
4020	0	33300	
4021	0	33388	
4022	0	33484	
4023	0	33616	
4024	0	33736	
4025	0	33788	
4026	0	33770	
4027	0	33764	
4028	0	33826	
4029	0	33898	
4030	0	33960	
4031	0	33992	
4032	0	34052	
4033	0	34100	
4034	0	34096	
4035	0	34074	
4036	0	34140	
4037	0	34204	
4038	0	34292	
4039	0	34416	
4040	0	34580	
4041	0	34720	
4042	0	34802	
4043	0	34856	
4044	0	34924	
4045	0	34984	
4046	0	35042	
4047	0	35136	
4048	0	35246	
4049	0	35296	
4050	0	35284	
4051	0	35320	
4052	0	35376	
4053	0	35428	
4054	0	35452	
4055	0	35464	
4056	0	35512	
4057	0	35578	
4058	0	35660	
4059	0	35728	
4060	0	35756	
4061	0	35776	
4062	0	35852	
4063	0	35968	
4064	0	36060	
4065	0	36160	
4066	0	36204	
4067	0	36232	
4068	0	36244	
4069	0	36296	
4070	0	36380	
4071	0	36404	
4072	0	36456	
4073	0	36508	
4074	0	36496	
4075	0	36488	
4076	0	36544	
4077	0	36600	
4078	0	36580	
4079	0	36564	
4080	0	36540	
4081	0	36578	
4082	0	36664	
4083	0	36652	
4084	0	36608	
4085	0	36620	
4086	0	36608	
4087	0	36592	
4088	0	36616	
4089	0	36568	
4090	0	36536	
4091	0	36546	
4092	0	36528	
4093	0	36460	
4094	0	36352	
4095	0	36288	
4096	0	36216	
4097	0	36096	
4098	0	35972	
4099	0	35856	
4100	0	35788	
4101	0	35700	
4102	0	35544	
4103	0	35420	
4104	0	35252	
4105	0	35100	
4106	0	34940	
4107	0	34796	
4108	0	34592	
4109	0	34336	
4110	0	34120	
4111	0	33956	
4112	0	33744	
4113	0	33568	
4114	0	33376	
4115	0	33188	
4116	0	32944	
4117	0	32720	
4118	0	32520	
4119	0	32344	
4120	0	32180	
4121	0	32008	
4122	0	31860	
4123	0	31776	
4124	0	31684	
4125	0	31568	
4126	0	31408	
4127	0	31264	
4128	0	31092	
4129	0	30928	
4130	0	30808	
4131	0	30728	
4132	0	30636	
4133	0	30548	
4134	0	30488	
4135	0	30380	
4136	0	30232	
4137	0	30056	
4138	0	29948	
4139	0	29876	
4140	0	29760	
4141	0	29664	
4142	0	29662	
4143	0	29616	
4144	0	29576	
4145	0	29512	
4146	0	29468	
4147	0	29464	
4148	0	29466	
4149	0	29456	
4150	0	29428	
4151	0	29360	
4152	0	29268	
4153	0	29196	
4154	0	29188	
4155	0	29220	
4156	0	29212	
4157	0	29208	
4158	0	29216	
4159	0	29254	
4160	0	29248	
4161	0	29220	
4162	0	29260	
4163	0	29292	
4164	0	29328	
4165	0	29352	
4166	0	29376	
4167	0	29386	
4168	0	29334	
4169	0	29272	
4170	0	29236	
4171	0	29194	
4172	0	29172	
4173	0	29184	
4174	0	29216	
4175	0	29252	
4176	0	29276	
4177	0	29344	
4178	0	29424	
4179	0	29524	
4180	0	29560	
4181	0	29576	
4182	0	29548	
4183	0	29536	
4184	0	29596	
4185	0	29696	
4186	0	29744	
4187	0	29768	
4188	0	29804	
4189	0	29820	
4190	0	29812	
4191	0	29804	
4192	0	29820	
4193	0	29820	
4194	0	29892	
4195	0	29920	
4196	0	29900	
4197	0	29904	
4198	0	29940	
4199	0	29948	
4200	0	29992	
4201	0	30040	
4202	0	30084	
4203	0	30084	
4204	0	30120	
4205	0	30172	
4206	0	30272	
4207	0	30284	
4208	0	30240	
4209	0	30232	
4210	0	30264	
4211	0	30308	
4212	0	30332	
4213	0	30320	
4214	0	30304	
4215	0	30340	
4216	0	30408	
4217	0	30476	
4218	0	30508	
4219	0	30560	
4220	0	30622	
4221	0	30624	
4222	0	30624	
4223	0	30652	
4224	0	30736	
4225	0	30792	
4226	0	30792	
4227	0	30784	
4228	0	30790	
4229	0	30804	
4230	0	30776	
4231	0	30840	
4232	0	30868	
4233	0	30872	
4234	0	30852	
4235	0	30816	
4236	0	30752	
4237	0	30736	
4238	0	30816	
4239	0	30880	
4240	0	30888	
4241	0	30864	
4242	0	30888	
4243	0	30930	
4244	0	30942	
4245	0	30968	
4246	0	31016	
4247	0	31044	
4248	0	31040	
4249	0	31084	
4250	0	31092	
4251	0	31120	
4252	0	31056	
4253	0	31004	
4254	0	31058	
4255	0	31104	
4256	0	31052	
4257	0	31040	
4258	0	31168	
4259	0	31234	
4260	0	31216	
4261	0	31200	
4262	0	31256	
4263	0	31300	
4264	0	31312	
4265	0	31322	
4266	0	31368	
4267	0	31392	
4268	0	31356	
4269	0	31312	
4270	0	31298	
4271	0	31360	
4272	0	31358	
4273	0	31264	
4274	0	31260	
4275	0	31296	
4276	0	31264	
4277	0	31244	
4278	0	31300	
4279	0	31346	
4280	0	31308	
4281	0	31304	
4282	0	31296	
4283	0	31290	
4284	0	31332	
4285	0	31436	
4286	0	31548	
4287	0	31578	
4288	0	31536	
4289	0	31492	
4290	0	31428	
4291	0	31368	
4292	0	31336	
4293	0	31380	
4294	0	31460	
4295	0	31504	
4296	0	31520	
4297	0	31540	
4298	0	31548	
4299	0	31572	
4300	0	31616	
4301	0	31616	
4302	0	31574	
4303	0	31528	
4304	0	31608	
4305	0	31682	
4306	0	31712	
4307	0	31664	
4308	0	31636	
4309	0	31588	
4310	0	31524	
4311	0	31488	
4312	0	31504	
4313	0	31512	
4314	0	31568	
4315	0	31616	
4316	0	31624	
4317	0	31656	
4318	0	31712	
4319	0	31808	
4320	0	31892	
4321	0	31892	
4322	0	31868	
4323	0	31900	
4324	0	31888	
4325	0	31840	
4326	0	31872	
4327	0	31912	
4328	0	31872	
4329	0	31840	
4330	0	31816	
4331	0	31828	
4332	0	31826	
4333	0	31864	
4334	0	31816	
4335	0	31778	
4336	0	31792	
4337	0	31868	
4338	0	32014	
4339	0	32104	
4340	0	32168	
4341	0	32212	
4342	0	32276	
4343	0	32376	
4344	0	32476	
4345	0	32584	
4346	0	32674	
4347	0	32788	
4348	0	32946	
4349	0	33088	
4350	0	33268	
4351	0	33376	
4352	0	33352	
4353	0	33268	
4354	0	33184	
4355	0	33260	
4356	0	33376	
4357	0	33416	
4358	0	33424	
4359	0	33504	
4360	0	33600	
4361	0	33652	
4362	0	33730	
4363	0	33820	
4364	0	33980	
4365	0	34088	
4366	0	34164	
4367	0	34256	
4368	0	34404	
4369	0	34658	
4370	0	34832	
4371	0	34930	
4372	0	35032	
4373	0	35040	
4374	0	34992	
4375	0	34944	
4376	0	34904	
4377	0	34924	
4378	0	34938	
4379	0	34992	
4380	0	35040	
4381	0	35108	
4382	0	35184	
4383	0	35204	
4384	0	35168	
4385	0	35104	
4386	0	34992	
4387	0	34814	
4388	0	34588	
4389	0	34332	
4390	0	34208	
4391	0	34122	
4392	0	33904	
4393	0	33740	
4394	0	33676	
4395	0	33588	
4396	0	33576	
4397	0	33632	
4398	0	33720	
4399	0	33704	
4400	0	33622	
4401	0	33500	
4402	0	33468	
4403	0	33388	
4404	0	33342	
4405	0	33248	
4406	0	33108	
4407	0	32940	
4408	0	32836	
4409	0	32774	
4410	0	32768	
4411	0	32740	
4412	0	32660	
4413	0	32544	
4414	0	32448	
4415	0	32308	
4416	0	32202	
4417	0	32120	
4418	0	31972	
4419	0	31860	
4420	0	31800	
4421	0	31702	
4422	0	31624	
4423	0	31568	
4424	0	31536	
4425	0	31468	
4426	0	31424	
4427	0	31416	
4428	0	31436	
4429	0	31432	
4430	0	31456	
4431	0	31500	
4432	0	31504	
4433	0	31492	
4434	0	31392	
4435	0	31296	
4436	0	31224	
4437	0	31208	
4438	0	31232	
4439	0	31248	
4440	0	31236	
4441	0	31312	
4442	0	31444	
4443	0	31472	
4444	0	31456	
4445	0	31432	
4446	0	31452	
4447	0	31480	
4448	0	31456	
4449	0	31432	
4450	0	31396	
4451	0	31436	
4452	0	31486	
4453	0	31488	
4454	0	31496	
4455	0	31540	
4456	0	31568	
4457	0	31524	
4458	0	31512	
4459	0	31560	
4460	0	31600	
4461	0	31644	
4462	0	31672	
4463	0	31716	
4464	0	31740	
4465	0	31744	
4466	0	31792	
4467	0	31826	
4468	0	31812	
4469	0	31740	
4470	0	31722	
4471	0	31712	
4472	0	31677	
4473	0	31636	
4474	0	31678	
4475	0	31738	
4476	0	31748	
4477	0	31740	
4478	0	31704	
4479	0	31552	
4480	0	31352	
4481	0	31124	
4482	0	30942	
4483	0	30868	
4484	0	30876	
4485	0	30928	
4486	0	31092	
4487	0	31328	
4488	0	31700	
4489	0	32284	
4490	0	32980	
4491	0	33776	
4492	0	34728	
4493	0	35932	
4494	0	37444	
4495	0	39076	
4496	0	40696	
4497	0	42200	
4498	0	43728	
4499	0	45360	
4500	0	47048	
4501	0	48712	
4502	0	50192	
4503	0	51560	
4504	0	52884	
4505	0	54164	
4506	0	55424	
4507	0	56608	
4508	0	57700	
4509	0	58664	
4510	0	59560	
4511	0	60144	
4512	0	60308	
4513	0	59540	
4514	0	57976	
4515	0	55480	
4516	0	52144	
4517	0	48632	
4518	0	44940	
4519	0	40920	
4520	0	36480	
4521	0	32056	
4522	0	28376	
4523	0	25832	
4524	0	24384	
4525	0	23842	
4526	0	23832	
4527	0	24124	
4528	0	24608	
4529	0	25140	
4530	0	25578	
4531	0	25936	
4532	0	26236	
4533	0	26560	
4534	0	26872	
4535	0	27148	
4536	0	27448	
4537	0	27762	
4538	0	28156	
4539	0	28572	
4540	0	28976	
4541	0	29344	
4542	0	29648	
4543	0	29896	
4544	0	30136	
4545	0	30344	
4546	0	30496	
4547	0	30512	
4548	0	30456	
4549	0	30432	
4550	0	30402	
4551	0	30340	
4552	0	30316	
4553	0	30240	
4554	0	30204	
4555	0	30224	
4556	0	30224	
4557	0	30200	
4558	0	30240	
4559	0	30260	
4560	0	30256	
4561	0	30264	
4562	0	30296	
4563	0	30372	
4564	0	30424	
4565	0	30452	
4566	0	30480	
4567	0	30456	
4568	0	30432	
4569	0	30516	
4570	0	30584	
4571	0	30596	
4572	0	30576	
4573	0	30588	
4574	0	30624	
4575	0	30652	
4576	0	30632	
4577	0	30596	
4578	0	30596	
4579	0	30640	
4580	0	30712	
4581	0	30736	
4582	0	30760	
4583	0	30824	
4584	0	30860	
4585	0	30968	
4586	0	31008	
4587	0	31008	
4588	0	31000	
4589	0	30998	
4590	0	30980	
4591	0	30980	
4592	0	31016	
4593	0	31044	
4594	0	31104	
4595	0	31192	
4596	0	31196	
4597	0	31144	
4598	0	31112	
4599	0	31092	
4600	0	31116	
4601	0	31204	
4602	0	31336	
4603	0	31436	
4604	0	31436	
4605	0	31456	
4606	0	31492	
4607	0	31488	
4608	0	31472	
4609	0	31488	
4610	0	31548	
4611	0	31640	
4612	0	31604	
4613	0	31576	
4614	0	31628	
4615	0	31660	
4616	0	31648	
4617	0	31700	
4618	0	31844	
4619	0	31872	
4620	0	31944	
4621	0	32014	
4622	0	32060	
4623	0	32116	
4624	0	32132	
4625	0	32132	
4626	0	32172	
4627	0	32200	
4628	0	32204	
4629	0	32248	
4630	0	32312	
4631	0	32333	
4632	0	32300	
4633	0	32268	
4634	0	32276	
4635	0	32276	
4636	0	32312	
4637	0	32368	
4638	0	32356	
4639	0	32356	
4640	0	32424	
4641	0	32484	
4642	0	32536	
4643	0	32600	
4644	0	32596	
4645	0	32660	
4646	0	32728	
4647	0	32796	
4648	0	32844	
4649	0	32808	
4650	0	32760	
4651	0	32744	
4652	0	32744	
4653	0	32764	
4654	0	32820	
4655	0	32836	
4656	0	32848	
4657	0	32844	
4658	0	32876	
4659	0	32916	
4660	0	32984	
4661	0	33060	
4662	0	33116	
4663	0	33148	
4664	0	33228	
4665	0	33352	
4666	0	33460	
4667	0	33436	
4668	0	33372	
4669	0	33408	
4670	0	33386	
4671	0	33384	
4672	0	33440	
4673	0	33496	
4674	0	33544	
4675	0	33580	
4676	0	33656	
4677	0	33696	
4678	0	33752	
4679	0	33832	
4680	0	33948	
4681	0	34004	
4682	0	34084	
4683	0	34200	
4684	0	34320	
4685	0	34364	
4686	0	34444	
4687	0	34552	
4688	0	34596	
4689	0	34656	
4690	0	34680	
4691	0	34712	
4692	0	34772	
4693	0	34824	
4694	0	34898	
4695	0	35056	
4696	0	35200	
4697	0	35352	
4698	0	35432	
4699	0	35456	
4700	0	35448	
4701	0	35520	
4702	0	35676	
4703	0	35764	
4704	0	35808	
4705	0	35872	
4706	0	35928	
4707	0	35912	
4708	0	35928	
4709	0	36020	
4710	0	36140	
4711	0	36212	
4712	0	36248	
4713	0	36264	
4714	0	36352	
4715	0	36428	
4716	0	36456	
4717	0	36512	
4718	0	36564	
4719	0	36592	
4720	0	36648	
4721	0	36688	
4722	0	36696	
4723	0	36708	
4724	0	36752	
4725	0	36848	
4726	0	36928	
4727	0	36960	
4728	0	36984	
4729	0	37004	
4730	0	37024	
4731	0	37040	
4732	0	37024	
4733	0	37048	
4734	0	37044	
4735	0	37024	
4736	0	37036	
4737	0	37076	
4738	0	37124	
4739	0	37128	
4740	0	37146	
4741	0	37176	
4742	0	37176	
4743	0	37092	
4744	0	36972	
4745	0	36892	
4746	0	36828	
4747	0	36784	
4748	0	36696	
4749	0	36644	
4750	0	36528	
4751	0	36376	
4752	0	36212	
4753	0	36040	
4754	0	36004	
4755	0	35980	
4756	0	35840	
4757	0	35620	
4758	0	35448	
4759	0	35292	
4760	0	35080	
4761	0	34872	
4762	0	34736	
4763	0	34592	
4764	0	34428	
4765	0	34242	
4766	0	34064	
4767	0	33924	
4768	0	33730	
4769	0	33484	
4770	0	33284	
4771	0	33100	
4772	0	32876	
4773	0	32676	
4774	0	32544	
4775	0	32408	
4776	0	32240	
4777	0	32064	
4778	0	31872	
4779	0	31716	
4780	0	31568	
4781	0	31416	
4782	0	31292	
4783	0	31130	
4784	0	30984	
4785	0	30824	
4786	0	30698	
4787	0	30588	
4788	0	30520	
4789	0	30448	
4790	0	30316	
4791	0	30228	
4792	0	30144	
4793	0	30036	
4794	0	29914	
4795	0	29828	
4796	0	29776	
4797	0	29832	
4798	0	29880	
4799	0	29780	
4800	0	29704	
4801	0	29724	
4802	0	29700	
4803	0	29606	
4804	0	29528	
4805	0	29424	
4806	0	29352	
4807	0	29296	
4808	0	29280	
4809	0	29348	
4810	0	29372	
4811	0	29344	
4812	0	29344	
4813	0	29338	
4814	0	29380	
4815	0	29436	
4816	0	29440	
4817	0	29364	
4818	0	29306	
4819	0	29312	
4820	0	29320	
4821	0	29396	
4822	0	29466	
4823	0	29464	
4824	0	29472	
4825	0	29484	
4826	0	29452	
4827	0	29492	
4828	0	29538	
4829	0	29574	
4830	0	29632	
4831	0	29648	
4832	0	29608	
4833	0	29640	
4834	0	29674	
4835	0	29716	
4836	0	29736	
4837	0	29728	
4838	0	29800	
4839	0	29832	
4840	0	29792	
4841	0	29792	
4842	0	29784	
4843	0	29816	
4844	0	29832	
4845	0	29896	
4846	0	29964	
4847	0	30000	
4848	0	30078	
4849	0	30052	
4850	0	29986	
4851	0	29984	
4852	0	30008	
4853	0	30018	
4854	0	30072	
4855	0	30128	
4856	0	30200	
4857	0	30272	
4858	0	30316	
4859	0	30380	
4860	0	30420	
4861	0	30424	
4862	0	30424	
4863	0	30434	
4864	0	30432	
4865	0	30416	
4866	0	30424	
4867	0	30436	
4868	0	30412	
4869	0	30400	
4870	0	30366	
4871	0	30308	
4872	0	30320	
4873	0	30384	
4874	0	30394	
4875	0	30396	
4876	0	30488	
4877	0	30536	
4878	0	30596	
4879	0	30724	
4880	0	30854	
4881	0	30880	
4882	0	30844	
4883	0	30884	
4884	0	30948	
4885	0	30976	
4886	0	31024	
4887	0	31044	
4888	0	31060	
4889	0	31028	
4890	0	30976	
4891	0	30956	
4892	0	31018	
4893	0	31092	
4894	0	31076	
4895	0	31016	
4896	0	31020	
4897	0	31120	
4898	0	31228	
4899	0	31264	
4900	0	31248	
4901	0	31208	
4902	0	31248	
4903	0	31308	
4904	0	31344	
4905	0	31384	
4906	0	31412	
4907	0	31388	
4908	0	31388	
4909	0	31408	
4910	0	31456	
4911	0	31392	
4912	0	31312	
4913	0	31356	
4914	0	31424	
4915	0	31468	
4916	0	31504	
4917	0	31560	
4918	0	31576	
4919	0	31636	
4920	0	31736	
4921	0	31676	
4922	0	31600	
4923	0	31624	
4924	0	31600	
4925	0	31584	
4926	0	31584	
4927	0	31616	
4928	0	31684	
4929	0	31712	
4930	0	31728	
4931	0	31780	
4932	0	31800	
4933	0	31836	
4934	0	31872	
4935	0	31828	
4936	0	31760	
4937	0	31776	
4938	0	31772	
4939	0	31784	
4940	0	31824	
4941	0	31880	
4942	0	31904	
4943	0	31888	
4944	0	31968	
4945	0	32004	
4946	0	32000	
4947	0	31982	
4948	0	31924	
4949	0	31912	
4950	0	31872	
4951	0	31832	
4952	0	31760	
4953	0	31768	
4954	0	31812	
4955	0	31808	
4956	0	31792	
4957	0	31800	
4958	0	31768	
4959	0	31784	
4960	0	31834	
4961	0	31848	
4962	0	31898	
4963	0	31996	
4964	0	32064	
4965	0	32092	
4966	0	32120	
4967	0	32136	
4968	0	32200	
4969	0	32272	
4970	0	32252	
4971	0	32288	
4972	0	32428	
4973	0	32520	
4974	0	32608	
4975	0	32756	
4976	0	32840	
4977	0	32944	
4978	0	33044	
4979	0	33180	
4980	0	33304	
4981	0	33432	
4982	0	33560	
4983	0	33568	
4984	0	33488	
4985	0	33488	
4986	0	33576	
4987	0	33668	
4988	0	33704	
4989	0	33776	
4990	0	33792	
4991	0	33772	
4992	0	33796	
4993	0	33824	
4994	0	33872	
4995	0	33888	
4996	0	33920	
4997	0	34048	
4998	0	34204	
4999	0	34424	
5000	0	34620	
5001	0	34804	
5002	0	34884	
5003	0	34984	
5004	0	35072	
5005	0	35072	
5006	0	35032	
5007	0	35000	
5008	0	34972	
5009	0	34928	
5010	0	34944	
5011	0	35016	
5012	0	35100	
5013	0	35200	
5014	0	35200	
5015	0	35116	
5016	0	34988	
5017	0	34884	
5018	0	34808	
5019	0	34720	
5020	0	34612	
5021	0	34452	
5022	0	34238	
5023	0	34020	
5024	0	33888	
5025	0	33756	
5026	0	33664	
5027	0	33686	
5028	0	33680	
5029	0	33672	
5030	0	33696	
5031	0	33676	
5032	0	33612	
5033	0	33564	
5034	0	33532	
5035	0	33448	
5036	0	33360	
5037	0	33256	
5038	0	33168	
5039	0	33040	
5040	0	32940	
5041	0	32856	
5042	0	32808	
5043	0	32808	
5044	0	32784	
5045	0	32728	
5046	0	32656	
5047	0	32556	
5048	0	32420	
5049	0	32376	
5050	0	32296	
5051	0	32172	
5052	0	32064	
5053	0	31912	
5054	0	31752	
5055	0	31572	
5056	0	31416	
5057	0	31340	
5058	0	31280	
5059	0	31296	
5060	0	31392	
5061	0	31456	
5062	0	31468	
5063	0	31504	
5064	0	31592	
5065	0	31612	
5066	0	31660	
5067	0	31696	
5068	0	31660	
5069	0	31616	
5070	0	31620	
5071	0	31656	
5072	0	31644	
5073	0	31608	
5074	0	31608	
5075	0	31616	
5076	0	31572	
5077	0	31552	
5078	0	31600	
5079	0	31660	
5080	0	31720	
5081	0	31760	
5082	0	31808	
5083	0	31834	
5084	0	31800	
5085	0	31732	
5086	0	31696	
5087	0	31684	
5088	0	31616	
5089	0	31552	
5090	0	31508	
5091	0	31496	
5092	0	31560	
5093	0	31660	
5094	0	31692	
5095	0	31724	
5096	0	31744	
5097	0	31794	
5098	0	31822	
5099	0	31816	
5100	0	31840	
5101	0	31880	
5102	0	31936	
5103	0	31992	
5104	0	32028	
5105	0	32100	
5106	0	32148	
5107	0	32136	
5108	0	32064	
5109	0	32028	
5110	0	31972	
5111	0	31892	
5112	0	31820	
5113	0	31680	
5114	0	31552	
5115	0	31416	
5116	0	31332	
5117	0	31380	
5118	0	31436	
5119	0	31536	
5120	0	31768	
5121	0	32184	
5122	0	32792	
5123	0	33556	
5124	0	34472	
5125	0	35564	
5126	0	36892	
5127	0	38432	
5128	0	40072	
5129	0	41584	
5130	0	43044	
5131	0	44524	
5132	0	46124	
5133	0	47804	
5134	0	49432	
5135	0	50754	
5136	0	52000	
5137	0	53248	
5138	0	54520	
5139	0	55700	
5140	0	56736	
5141	0	57768	
5142	0	58784	
5143	0	59720	
5144	0	60332	
5145	0	60336	
5146	0	59340	
5147	0	57476	
5148	0	54672	
5149	0	51144	
5150	0	47532	
5151	0	43878	
5152	0	39856	
5153	0	35500	
5154	0	31220	
5155	0	27828	
5156	0	25640	
5157	0	24544	
5158	0	24158	
5159	0	24232	
5160	0	24560	
5161	0	25004	
5162	0	25544	
5163	0	26004	
5164	0	26348	
5165	0	26652	
5166	0	26880	
5167	0	27106	
5168	0	27328	
5169	0	27512	
5170	0	27688	
5171	0	27920	
5172	0	28228	
5173	0	28564	
5174	0	28884	
5175	0	29214	
5176	0	29584	
5177	0	29866	
5178	0	30064	
5179	0	30272	
5180	0	30412	
5181	0	30480	
5182	0	30472	
5183	0	30440	
5184	0	30384	
5185	0	30416	
5186	0	30412	
5187	0	30432	
5188	0	30488	
5189	0	30424	
5190	0	30368	
5191	0	30372	
5192	0	30296	
5193	0	30220	
5194	0	30244	
5195	0	30272	
5196	0	30410	
5197	0	30504	
5198	0	30544	
5199	0	30542	
5200	0	30528	
5201	0	30576	
5202	0	30616	
5203	0	30612	
5204	0	30628	
5205	0	30696	
5206	0	30760	
5207	0	30752	
5208	0	30780	
5209	0	30816	
5210	0	30836	
5211	0	30824	
5212	0	30852	
5213	0	30876	
5214	0	30864	
5215	0	30896	
5216	0	30984	
5217	0	31078	
5218	0	31128	
5219	0	31184	
5220	0	31200	
5221	0	31200	
5222	0	31176	
5223	0	31196	
5224	0	31284	
5225	0	31314	
5226	0	31308	
5227	0	31290	
5228	0	31272	
5229	0	31348	
5230	0	31392	
5231	0	31400	
5232	0	31408	
5233	0	31440	
5234	0	31440	
5235	0	31480	
5236	0	31534	
5237	0	31528	
5238	0	31560	
5239	0	31604	
5240	0	31706	
5241	0	31816	
5242	0	31820	
5243	0	31800	
5244	0	31868	
5245	0	31928	
5246	0	31944	
5247	0	31984	
5248	0	32020	
5249	0	32028	
5250	0	32056	
5251	0	32084	
5252	0	32104	
5253	0	32112	
5254	0	32168	
5255	0	32152	
5256	0	32096	
5257	0	32112	
5258	0	32160	
5259	0	32164	
5260	0	32172	
5261	0	32240	
5262	0	32298	
5263	0	32356	
5264	0	32398	
5265	0	32440	
5266	0	32496	
5267	0	32512	
5268	0	32492	
5269	0	32532	
5270	0	32576	
5271	0	32548	
5272	0	32548	
5273	0	32580	
5274	0	32616	
5275	0	32638	
5276	0	32692	
5277	0	32706	
5278	0	32756	
5279	0	32800	
5280	0	32852	
5281	0	32908	
5282	0	32956	
5283	0	32984	
5284	0	33020	
5285	0	33016	
5286	0	33012	
5287	0	33064	
5288	0	33128	
5289	0	33172	
5290	0	33188	
5291	0	33248	
5292	0	33312	
5293	0	33348	
5294	0	33360	
5295	0	33396	
5296	0	33442	
5297	0	33544	
5298	0	33648	
5299	0	33720	
5300	0	33724	
5301	0	33716	
5302	0	33800	
5303	0	33916	
5304	0	33992	
5305	0	34020	
5306	0	34090	
5307	0	34112	
5308	0	34120	
5309	0	34136	
5310	0	34132	
5311	0	34202	
5312	0	34288	
5313	0	34380	
5314	0	34480	
5315	0	34544	
5316	0	34620	
5317	0	34656	
5318	0	34648	
5319	0	34726	
5320	0	34796	
5321	0	34852	
5322	0	35016	
5323	0	35120	
5324	0	35196	
5325	0	35288	
5326	0	35308	
5327	0	35284	
5328	0	35288	
5329	0	35332	
5330	0	35428	
5331	0	35504	
5332	0	35520	
5333	0	35552	
5334	0	35612	
5335	0	35668	
5336	0	35728	
5337	0	35740	
5338	0	35840	
5339	0	35968	
5340	0	36040	
5341	0	36060	
5342	0	36152	
5343	0	36276	
5344	0	36400	
5345	0	36484	
5346	0	36556	
5347	0	36600	
5348	0	36656	
5349	0	36736	
5350	0	36808	
5351	0	36880	
5352	0	36900	
5353	0	36896	
5354	0	36928	
5355	0	36944	
5356	0	37012	
5357	0	37060	
5358	0	37072	
5359	0	37068	
5360	0	37124	
5361	0	37144	
5362	0	37172	
5363	0	37192	
5364	0	37196	
5365	0	37184	
5366	0	37216	
5367	0	37272	
5368	0	37276	
5369	0	37214	
5370	0	37188	
5371	0	37186	
5372	0	37120	
5373	0	37088	
5374	0	37064	
5375	0	36976	
5376	0	36912	
5377	0	36826	
5378	0	36794	
5379	0	36752	
5380	0	36688	
5381	0	36592	
5382	0	36492	
5383	0	36432	
5384	0	36340	
5385	0	36232	
5386	0	36048	
5387	0	35880	
5388	0	35772	
5389	0	35640	
5390	0	35448	
5391	0	35212	
5392	0	34972	
5393	0	34760	
5394	0	34568	
5395	0	34360	
5396	0	34140	
5397	0	33956	
5398	0	33856	
5399	0	33756	
5400	0	33532	
5401	0	33348	
5402	0	33204	
5403	0	33060	
5404	0	32952	
5405	0	32768	
5406	0	32536	
5407	0	32352	
5408	0	32216	
5409	0	32032	
5410	0	31848	
5411	0	31688	
5412	0	31520	
5413	0	31360	
5414	0	31240	
5415	0	31088	
5416	0	30944	
5417	0	30828	
5418	0	30752	
5419	0	30658	
5420	0	30586	
5421	0	30496	
5422	0	30408	
5423	0	30316	
5424	0	30272	
5425	0	30250	
5426	0	30212	
5427	0	30100	
5428	0	29952	
5429	0	29888	
5430	0	29816	
5431	0	29776	
5432	0	29736	
5433	0	29688	
5434	0	29660	
5435	0	29612	
5436	0	29560	
5437	0	29492	
5438	0	29472	
5439	0	29472	
5440	0	29444	
5441	0	29412	
5442	0	29424	
5443	0	29464	
5444	0	29424	
5445	0	29432	
5446	0	29432	
5447	0	29452	
5448	0	29520	
5449	0	29568	
5450	0	29564	
5451	0	29520	
5452	0	29488	
5453	0	29516	
5454	0	29508	
5455	0	29484	
5456	0	29540	
5457	0	29596	
5458	0	29620	
5459	0	29604	
5460	0	29672	
5461	0	29688	
5462	0	29712	
5463	0	29728	
5464	0	29704	
5465	0	29744	
5466	0	29728	
5467	0	29712	
5468	0	29716	
5469	0	29760	
5470	0	29824	
5471	0	29912	
5472	0	29984	
5473	0	30000	
5474	0	30036	
5475	0	30044	
5476	0	30040	
5477	0	30060	
5478	0	30117	
5479	0	30184	
5480	0	30284	
5481	0	30296	
5482	0	30276	
5483	0	30248	
5484	0	30240	
5485	0	30280	
5486	0	30352	
5487	0	30392	
5488	0	30382	
5489	0	30372	
5490	0	30369	
5491	0	30404	
5492	0	30432	
5493	0	30420	
5494	0	30416	
5495	0	30434	
5496	0	30456	
5497	0	30484	
5498	0	30532	
5499	0	30596	
5500	0	30672	
5501	0	30756	
5502	0	30752	
5503	0	30748	
5504	0	30784	
5505	0	30816	
5506	0	30816	
5507	0	30784	
5508	0	30868	
5509	0	30976	
5510	0	30986	
5511	0	30964	
5512	0	30944	
5513	0	30938	
5514	0	30956	
5515	0	30980	
5516	0	31008	
5517	0	31072	
5518	0	31136	
5519	0	31156	
5520	0	31180	
5521	0	31184	
5522	0	31212	
5523	0	31258	
5524	0	31256	
5525	0	31244	
5526	0	31226	
5527	0	31260	
5528	0	31284	
5529	0	31288	
5530	0	31288	
5531	0	31298	
5532	0	31322	
5533	0	31332	
5534	0	31360	
5535	0	31344	
5536	0	31376	
5537	0	31428	
5538	0	31448	
5539	0	31465	
5540	0	31516	
5541	0	31560	
5542	0	31580	
5543	0	31584	
5544	0	31600	
5545	0	31640	
5546	0	31672	
5547	0	31672	
5548	0	31680	
5549	0	31716	
5550	0	31736	
5551	0	31738	
5552	0	31724	
5553	0	31728	
5554	0	31694	
5555	0	31664	
5556	0	31672	
5557	0	31728	
5558	0	31772	
5559	0	31818	
5560	0	31832	
5561	0	31836	
5562	0	31816	
5563	0	31786	
5564	0	31784	
5565	0	31756	
5566	0	31764	
5567	0	31804	
5568	0	31778	
5569	0	31776	
5570	0	31776	
5571	0	31760	
5572	0	31672	
5573	0	31608	
5574	0	31624	
5575	0	31676	
5576	0	31734	
5577	0	31736	
5578	0	31772	
5579	0	31800	
5580	0	31808	
5581	0	31800	
5582	0	31802	
5583	0	31840	
5584	0	31872	
5585	0	31872	
5586	0	31904	
5587	0	31944	
5588	0	31932	
5589	0	31896	
5590	0	31876	
5591	0	31836	
5592	0	31848	
5593	0	31868	
5594	0	31904	
5595	0	31896	
5596	0	31856	
5597	0	31880	
5598	0	31920	
5599	0	31940	
5600	0	31980	
5601	0	32016	
5602	0	32053	
5603	0	32112	
5604	0	32128	
5605	0	32160	
5606	0	32250	
5607	0	32376	
5608	0	32508	
5609	0	32592	
5610	0	32664	
5611	0	32780	
5612	0	32944	
5613	0	33088	
5614	0	33180	
5615	0	33220	
5616	0	33216	
5617	0	33192	
5618	0	33230	
5619	0	33276	
5620	0	33360	
5621	0	33472	
5622	0	33552	
5623	0	33628	
5624	0	33696	
5625	0	33784	
5626	0	33888	
5627	0	33880	
5628	0	33904	
5629	0	33976	
5630	0	34040	
5631	0	34132	
5632	0	34244	
5633	0	34416	
5634	0	34584	
5635	0	34676	
5636	0	34728	
5637	0	34692	
5638	0	34640	
5639	0	34628	
5640	0	34660	
5641	0	34760	
5642	0	34828	
5643	0	34844	
5644	0	34932	
5645	0	34976	
5646	0	34956	
5647	0	34880	
5648	0	34752	
5649	0	34684	
5650	0	34576	
5651	0	34408	
5652	0	34216	
5653	0	34036	
5654	0	33908	
5655	0	33748	
5656	0	33608	
5657	0	33548	
5658	0	33504	
5659	0	33472	
5660	0	33426	
5661	0	33392	
5662	0	33384	
5663	0	33416	
5664	0	33428	
5665	0	33392	
5666	0	33364	
5667	0	33332	
5668	0	33288	
5669	0	33256	
5670	0	33192	
5671	0	33052	
5672	0	32916	
5673	0	32820	
5674	0	32688	
5675	0	32584	
5676	0	32516	
5677	0	32418	
5678	0	32352	
5679	0	32224	
5680	0	32118	
5681	0	31972	
5682	0	31906	
5683	0	31866	
5684	0	31776	
5685	0	31708	
5686	0	31612	
5687	0	31480	
5688	0	31304	
5689	0	31208	
5690	0	31152	
5691	0	31128	
5692	0	31120	
5693	0	31184	
5694	0	31232	
5695	0	31272	
5696	0	31292	
5697	0	31336	
5698	0	31392	
5699	0	31366	
5700	0	31384	
5701	0	31404	
5702	0	31372	
5703	0	31372	
5704	0	31388	
5705	0	31388	
5706	0	31404	
5707	0	31456	
5708	0	31424	
5709	0	31376	
5710	0	31348	
5711	0	31288	
5712	0	31256	
5713	0	31256	
5714	0	31232	
5715	0	31272	
5716	0	31320	
5717	0	31300	
5718	0	31288	
5719	0	31338	
5720	0	31361	
5721	0	31350	
5722	0	31392	
5723	0	31436	
5724	0	31452	
5725	0	31512	
5726	0	31556	
5727	0	31562	
5728	0	31560	
5729	0	31584	
5730	0	31620	
5731	0	31648	
5732	0	31624	
5733	0	31628	
5734	0	31652	
5735	0	31708	
5736	0	31736	
5737	0	31752	
5738	0	31748	
5739	0	31744	
5740	0	31704	
5741	0	31688	
5742	0	31628	
5743	0	31540	
5744	0	31368	
5745	0	31168	
5746	0	30968	
5747	0	30826	
5748	0	30716	
5749	0	30776	
5750	0	30918	
5751	0	31104	
5752	0	31456	
5753	0	32032	
5754	0	32612	
5755	0	33316	
5756	0	34250	
5757	0	35372	
5758	0	36688	
5759	0	38272	
5760	0	39916	
5761	0	41432	
5762	0	42924	
5763	0	44398	
5764	0	45928	
5765	0	47532	
5766	0	49036	
5767	0	50384	
5768	0	51704	
5769	0	53056	
5770	0	54336	
5771	0	55580	
5772	0	56800	
5773	0	58020	
5774	0	59176	
5775	0	60084	
5776	0	60656	
5777	0	60696	
5778	0	59760	
5779	0	57928	
5780	0	55096	
5781	0	51636	
5782	0	48048	
5783	0	44256	
5784	0	40016	
5785	0	35532	
5786	0	31284	
5787	0	27968	
5788	0	25760	
5789	0	24608	
5790	0	24225	
5791	0	24288	
5792	0	24652	
5793	0	25048	
5794	0	25376	
5795	0	25708	
5796	0	26064	
5797	0	26456	
5798	0	26832	
5799	0	27168	
5800	0	27552	
5801	0	27928	
5802	0	28276	
5803	0	28660	
5804	0	29060	
5805	0	29408	
5806	0	29732	
5807	0	29988	
5808	0	30112	
5809	0	30200	
5810	0	30252	
5811	0	30264	
5812	0	30228	
5813	0	30144	
5814	0	30080	
5815	0	30048	
5816	0	29976	
5817	0	29904	
5818	0	29880	
5819	0	29876	
5820	0	29872	
5821	0	29860	
5822	0	29824	
5823	0	29824	
5824	0	29840	
5825	0	29840	
5826	0	29848	
5827	0	29872	
5828	0	29936	
5829	0	29936	
5830	0	29960	
5831	0	30016	
5832	0	30076	
5833	0	30120	
5834	0	30160	
5835	0	30208	
5836	0	30208	
5837	0	30200	
5838	0	30240	
5839	0	30324	
5840	0	30408	
5841	0	30486	
5842	0	30492	
5843	0	30536	
5844	0	30576	
5845	0	30600	
5846	0	30678	
5847	0	30688	
5848	0	30628	
5849	0	30640	
5850	0	30680	
5851	0	30692	
5852	0	30664	
5853	0	30696	
5854	0	30780	
5855	0	30800	
5856	0	30808	
5857	0	30832	
5858	0	30862	
5859	0	30912	
5860	0	30948	
5861	0	30968	
5862	0	31036	
5863	0	31108	
5864	0	31172	
5865	0	31220	
5866	0	31308	
5867	0	31350	
5868	0	31372	
5869	0	31365	
5870	0	31372	
5871	0	31390	
5872	0	31424	
5873	0	31468	
5874	0	31442	
5875	0	31440	
5876	0	31500	
5877	0	31520	
5878	0	31540	
5879	0	31584	
5880	0	31656	
5881	0	31720	
5882	0	31748	
5883	0	31836	
5884	0	31880	
5885	0	31908	
5886	0	31904	
5887	0	31896	
5888	0	31876	
5889	0	31918	
5890	0	31952	
5891	0	32000	
5892	0	32036	
5893	0	32088	
5894	0	32164	
5895	0	32202	
5896	0	32172	
5897	0	32176	
5898	0	32176	
5899	0	32200	
5900	0	32260	
5901	0	32308	
5902	0	32352	
5903	0	32456	
5904	0	32476	
5905	0	32464	
5906	0	32484	
5907	0	32468	
5908	0	32444	
5909	0	32432	
5910	0	32464	
5911	0	32488	
5912	0	32488	
5913	0	32520	
5914	0	32572	
5915	0	32592	
5916	0	32592	
5917	0	32668	
5918	0	32775	
5919	0	32816	
5920	0	32860	
5921	0	32940	
5922	0	32992	
5923	0	33016	
5924	0	33088	
5925	0	33212	
5926	0	33244	
5927	0	33242	
5928	0	33268	
5929	0	33284	
5930	0	33280	
5931	0	33304	
5932	0	33348	
5933	0	33408	
5934	0	33452	
5935	0	33496	
5936	0	33564	
5937	0	33664	
5938	0	33752	
5939	0	33824	
5940	0	33848	
5941	0	33868	
5942	0	33936	
5943	0	33984	
5944	0	33996	
5945	0	34052	
5946	0	34108	
5947	0	34138	
5948	0	34232	
5949	0	34272	
5950	0	34308	
5951	0	34380	
5952	0	34458	
5953	0	34500	
5954	0	34568	
5955	0	34636	
5956	0	34684	
5957	0	34728	
5958	0	34812	
5959	0	34944	
5960	0	35060	
5961	0	35120	
5962	0	35212	
5963	0	35312	
5964	0	35392	
5965	0	35456	
5966	0	35508	
5967	0	35596	
5968	0	35628	
5969	0	35652	
5970	0	35712	
5971	0	35792	
5972	0	35828	
5973	0	35836	
5974	0	35888	
5975	0	35938	
5976	0	36040	
5977	0	36104	
5978	0	36152	
5979	0	36200	
5980	0	36292	
5981	0	36440	
5982	0	36548	
5983	0	36632	
5984	0	36656	
5985	0	36652	
5986	0	36684	
5987	0	36708	
5988	0	36724	
5989	0	36752	
5990	0	36736	
5991	0	36744	
5992	0	36792	
5993	0	36800	
5994	0	36840	
5995	0	36856	
5996	0	36884	
5997	0	36856	
5998	0	36844	
5999	0	36884	
6000	0	36908	
6001	0	36928	
6002	0	36948	
6003	0	36992	
6004	0	36984	
6005	0	36936	
6006	0	36900	
6007	0	36852	
6008	0	36808	
6009	0	36756	
6010	0	36664	
6011	0	36568	
6012	0	36476	
6013	0	36386	
6014	0	36280	
6015	0	36140	
6016	0	36020	
6017	0	35876	
6018	0	35752	
6019	0	35632	
6020	0	35512	
6021	0	35360	
6022	0	35192	
6023	0	35088	
6024	0	34944	
6025	0	34780	
6026	0	34572	
6027	0	34340	
6028	0	34144	
6029	0	33944	
6030	0	33772	
6031	0	33592	
6032	0	33412	
6033	0	33204	
6034	0	33016	
6035	0	32864	
6036	0	32690	
6037	0	32520	
6038	0	32332	
6039	0	32192	
6040	0	32056	
6041	0	31874	
6042	0	31730	
6043	0	31584	
6044	0	31432	
6045	0	31268	
6046	0	31144	
6047	0	31016	
6048	0	30880	
6049	0	30764	
6050	0	30632	
6051	0	30522	
6052	0	30424	
6053	0	30304	
6054	0	30204	
6055	0	30108	
6056	0	30020	
6057	0	29980	
6058	0	29944	
6059	0	29888	
6060	0	29880	
6061	0	29860	
6062	0	29810	
6063	0	29772	
6064	0	29724	
6065	0	29696	
6066	0	29688	
6067	0	29672	
6068	0	29652	
6069	0	29612	
6070	0	29540	
6071	0	29466	
6072	0	29416	
6073	0	29380	
6074	0	29380	
6075	0	29376	
6076	0	29316	
6077	0	29288	
6078	0	29316	
6079	0	29360	
6080	0	29368	
6081	0	29436	
6082	0	29492	
6083	0	29528	
6084	0	29528	
6085	0	29564	
6086	0	29540	
6087	0	29502	
6088	0	29516	
6089	0	29544	
6090	0	29548	
6091	0	29572	
6092	0	29544	
6093	0	29528	
6094	0	29552	
6095	0	29600	
6096	0	29616	
6097	0	29634	
6098	0	29680	
6099	0	29732	
6100	0	29728	
6101	0	29742	
6102	0	29796	
6103	0	29896	
6104	0	29952	
6105	0	29934	
6106	0	29900	
6107	0	29908	
6108	0	29956	
6109	0	30016	
6110	0	30084	
6111	0	30108	
6112	0	30116	
6113	0	30120	
6114	0	30140	
6115	0	30136	
6116	0	30144	
6117	0	30184	
6118	0	30244	
6119	0	30300	
6120	0	30320	
6121	0	30344	
6122	0	30368	
6123	0	30408	
6124	0	30456	
6125	0	30466	
6126	0	30488	
6127	0	30470	
6128	0	30472	
6129	0	30476	
6130	0	30452	
6131	0	30412	
6132	0	30400	
6133	0	30440	
6134	0	30504	
6135	0	30568	
6136	0	30620	
6137	0	30656	
6138	0	30708	
6139	0	30776	
6140	0	30836	
6141	0	30852	
6142	0	30864	
6143	0	30832	
6144	0	30844	
6145	0	30872	
6146	0	30944	
6147	0	30986	
6148	0	31020	
6149	0	31024	
6150	0	30972	
6151	0	30968	
6152	0	30984	
6153	0	31016	
6154	0	31040	
6155	0	31048	
6156	0	31042	
6157	0	31068	
6158	0	31140	
6159	0	31160	
6160	0	31148	
6161	0	31196	
6162	0	31224	
6163	0	31186	
6164	0	31148	
6165	0	31124	
6166	0	31188	
6167	0	31208	
6168	0	31192	
6169	0	31180	
6170	0	31212	
6171	0	31252	
6172	0	31232	
6173	0	31212	
6174	0	31226	
6175	0	31308	
6176	0	31340	
6177	0	31356	
6178	0	31384	
6179	0	31412	
6180	0	31476	
6181	0	31506	
6182	0	31528	
6183	0	31552	
6184	0	31610	
6185	0	31640	
6186	0	31652	
6187	0	31658	
6188	0	31640	
6189	0	31584	
6190	0	31592	
6191	0	31624	
6192	0	31604	
6193	0	31580	
6194	0	31552	
6195	0	31516	
6196	0	31528	
6197	0	31508	
6198	0	31520	
6199	0	31568	
6200	0	31640	
6201	0	31684	
6202	0	31736	
6203	0	31788	
6204	0	31768	
6205	0	31752	
6206	0	31756	
6207	0	31808	
6208	0	31812	
6209	0	31808	
6210	0	31784	
6211	0	31784	
6212	0	31796	
6213	0	31784	
6214	0	31776	
6215	0	31768	
6216	0	31794	
6217	0	31800	
6218	0	31748	
6219	0	31764	
6220	0	31848	
6221	0	31916	
6222	0	31914	
6223	0	31888	
6224	0	31928	
6225	0	31936	
6226	0	31928	
6227	0	31964	
6228	0	31956	
6229	0	31944	
6230	0	31944	
6231	0	31960	
6232	0	31984	
6233	0	32016	
6234	0	32060	
6235	0	32064	
6236	0	32090	
6237	0	32168	
6238	0	32244	
6239	0	32328	
6240	0	32488	
6241	0	32656	
6242	0	32856	
6243	0	32984	
6244	0	33096	
6245	0	33264	
6246	0	33412	
6247	0	33468	
6248	0	33504	
6249	0	33536	
6250	0	33516	
6251	0	33484	
6252	0	33508	
6253	0	33556	
6254	0	33648	
6255	0	33776	
6256	0	33868	
6257	0	33924	
6258	0	33984	
6259	0	34056	
6260	0	34140	
6261	0	34164	
6262	0	34300	
6263	0	34496	
6264	0	34608	
6265	0	34648	
6266	0	34768	
6267	0	34944	
6268	0	35064	
6269	0	35124	
6270	0	35112	
6271	0	35040	
6272	0	35016	
6273	0	35024	
6274	0	35028	
6275	0	35040	
6276	0	35084	
6277	0	35128	
6278	0	35188	
6279	0	35204	
6280	0	35140	
6281	0	35066	
6282	0	34976	
6283	0	34860	
6284	0	34704	
6285	0	34524	
6286	0	34320	
6287	0	34124	
6288	0	33920	
6289	0	33744	
6290	0	33628	
6291	0	33596	
6292	0	33536	
6293	0	33452	
6294	0	33376	
6295	0	33340	
6296	0	33292	
6297	0	33296	
6298	0	33324	
6299	0	33312	
6300	0	33272	
6301	0	33210	
6302	0	33128	
6303	0	33032	
6304	0	32884	
6305	0	32744	
6306	0	32640	
6307	0	32596	
6308	0	32596	
6309	0	32522	
6310	0	32416	
6311	0	32344	
6312	0	32244	
6313	0	32056	
6314	0	31905	
6315	0	31872	
6316	0	31822	
6317	0	31704	
6318	0	31572	
6319	0	31460	
6320	0	31352	
6321	0	31232	
6322	0	31172	
6323	0	31152	
6324	0	31222	
6325	0	31320	
6326	0	31364	
6327	0	31336	
6328	0	31310	
6329	0	31300	
6330	0	31300	
6331	0	31264	
6332	0	31256	
6333	0	31280	
6334	0	31296	
6335	0	31328	
6336	0	31376	
6337	0	31404	
6338	0	31380	
6339	0	31320	
6340	0	31346	
6341	0	31404	
6342	0	31460	
6343	0	31456	
6344	0	31420	
6345	0	31404	
6346	0	31364	
6347	0	31300	
6348	0	31284	
6349	0	31272	
6350	0	31308	
6351	0	31320	
6352	0	31360	
6353	0	31412	
6354	0	31408	
6355	0	31396	
6356	0	31388	
6357	0	31416	
6358	0	31448	
6359	0	31466	
6360	0	31504	
6361	0	31554	
6362	0	31516	
6363	0	31528	
6364	0	31520	
6365	0	31504	
6366	0	31612	
6367	0	31720	
6368	0	31820	
6369	0	31832	
6370	0	31756	
6371	0	31680	
6372	0	31676	
6373	0	31712	
6374	0	31680	
6375	0	31592	
6376	0	31484	
6377	0	31314	
6378	0	31088	
6379	0	30920	
6380	0	30868	
6381	0	30948	
6382	0	31024	
6383	0	31106	
6384	0	31320	
6385	0	31808	
6386	0	32320	
6387	0	32928	
6388	0	33736	
6389	0	34708	
6390	0	35768	
6391	0	37032	
6392	0	38464	
6393	0	40008	
6394	0	41512	
6395	0	42896	
6396	0	44312	
6397	0	45804	
6398	0	47328	
6399	0	48844	
6400	0	50376	
6401	0	51836	
6402	0	53312	
6403	0	54824	
6404	0	56320	
6405	0	57708	
6406	0	58936	
6407	0	60008	
6408	0	60832	
6409	0	61384	
6410	0	61440	
6411	0	60444	
6412	0	58552	
6413	0	55848	
6414	0	52392	
6415	0	48688	
6416	0	44864	
6417	0	40602	
6418	0	36044	
6419	0	31856	
6420	0	28700	
6421	0	26616	
6422	0	25496	
6423	0	24988	
6424	0	24858	
6425	0	24976	
6426	0	25212	
6427	0	25512	
6428	0	25864	
6429	0	26288	
6430	0	26796	
6431	0	27328	
6432	0	27912	
6433	0	28450	
6434	0	28932	
6435	0	29388	
6436	0	29760	
6437	0	30016	
6438	0	30162	
6439	0	30256	
6440	0	30284	
6441	0	30304	
6442	0	30328	
6443	0	30292	
6444	0	30250	
6445	0	30192	
6446	0	30124	
6447	0	30038	
6448	0	29976	
6449	0	29916	
6450	0	29848	
6451	0	29794	
6452	0	29752	
6453	0	29720	
6454	0	29752	
6455	0	29808	
6456	0	29808	
6457	0	29820	
6458	0	29852	
6459	0	29856	
6460	0	29868	
6461	0	29860	
6462	0	29876	
6463	0	29850	
6464	0	29868	
6465	0	29909	
6466	0	29952	
6467	0	29972	
6468	0	30008	
6469	0	30044	
6470	0	30056	
6471	0	30096	
6472	0	30140	
6473	0	30176	
6474	0	30224	
6475	0	30276	
6476	0	30348	
6477	0	30388	
6478	0	30400	
6479	0	30400	
6480	0	30420	
6481	0	30484	
6482	0	30556	
6483	0	30632	
6484	0	30704	
6485	0	30756	
6486	0	30760	
6487	0	30746	
6488	0	30756	
6489	0	30764	
6490	0	30776	
6491	0	30792	
6492	0	30784	
6493	0	30748	
6494	0	30768	
6495	0	30812	
6496	0	30904	
6497	0	30988	
6498	0	31088	
6499	0	31120	
6500	0	31178	
6501	0	31228	
6502	0	31264	
6503	0	31280	
6504	0	31304	
6505	0	31340	
6506	0	31356	
6507	0	31400	
6508	0	31384	
6509	0	31388	
6510	0	31408	
6511	0	31468	
6512	0	31548	
6513	0	31584	
6514	0	31596	
6515	0	31616	
6516	0	31648	
6517	0	31676	
6518	0	31720	
6519	0	31780	
6520	0	31828	
6521	0	31840	
6522	0	31884	
6523	0	31932	
6524	0	31996	
6525	0	32024	
6526	0	32018	
6527	0	32072	
6528	0	32096	
6529	0	32056	
6530	0	32040	
6531	0	32044	
6532	0	32064	
6533	0	32060	
6534	0	32048	
6535	0	32040	
6536	0	32116	
6537	0	32240	
6538	0	32344	
6539	0	32424	
6540	0	32416	
6541	0	32420	
6542	0	32464	
6543	0	32532	
6544	0	32572	
6545	0	32568	
6546	0	32592	
6547	0	32620	
6548	0	32628	
6549	0	32642	
6550	0	32672	
6551	0	32712	
6552	0	32728	
6553	0	32716	
6554	0	32704	
6555	0	32720	
6556	0	32780	
6557	0	32856	
6558	0	32932	
6559	0	32996	
6560	0	33024	
6561	0	33008	
6562	0	33024	
6563	0	33072	
6564	0	33112	
6565	0	33184	
6566	0	33244	
6567	0	33304	
6568	0	33368	
6569	0	33384	
6570	0	33438	
6571	0	33500	
6572	0	33552	
6573	0	33608	
6574	0	33656	
6575	0	33748	
6576	0	33816	
6577	0	33844	
6578	0	33908	
6579	0	33992	
6580	0	34064	
6581	0	34108	
6582	0	34124	
6583	0	34184	
6584	0	34232	
6585	0	34284	
6586	0	34388	
6587	0	34488	
6588	0	34552	
6589	0	34584	
6590	0	34646	
6591	0	34704	
6592	0	34704	
6593	0	34780	
6594	0	34852	
6595	0	34936	
6596	0	35036	
6597	0	35124	
6598	0	35200	
6599	0	35248	
6600	0	35338	
6601	0	35444	
6602	0	35520	
6603	0	35596	
6604	0	35620	
6605	0	35708	
6606	0	35800	
6607	0	35840	
6608	0	35872	
6609	0	35936	
6610	0	35948	
6611	0	35988	
6612	0	36080	
6613	0	36144	
6614	0	36240	
6615	0	36280	
6616	0	36304	
6617	0	36336	
6618	0	36388	
6619	0	36448	
6620	0	36520	
6621	0	36580	
6622	0	36648	
6623	0	36676	
6624	0	36672	
6625	0	36676	
6626	0	36692	
6627	0	36740	
6628	0	36768	
6629	0	36768	
6630	0	36724	
6631	0	36744	
6632	0	36768	
6633	0	36774	
6634	0	36788	
6635	0	36722	
6636	0	36728	
6637	0	36720	
6638	0	36652	
6639	0	36640	
6640	0	36632	
6641	0	36600	
6642	0	36544	
6643	0	36488	
6644	0	36440	
6645	0	36348	
6646	0	36220	
6647	0	36064	
6648	0	35936	
6649	0	35836	
6650	0	35728	
6651	0	35608	
6652	0	35458	
6653	0	35312	
6654	0	35120	
6655	0	34968	
6656	0	34822	
6657	0	34656	
6658	0	34504	
6659	0	34348	
6660	0	34136	
6661	0	33920	
6662	0	33720	
6663	0	33536	
6664	0	33380	
6665	0	33188	
6666	0	33000	
6667	0	32832	
6668	0	32684	
6669	0	32516	
6670	0	32380	
6671	0	32188	
6672	0	32032	
6673	0	31876	
6674	0	31720	
6675	0	31584	
6676	0	31436	
6677	0	31304	
6678	0	31188	
6679	0	31076	
6680	0	30960	
6681	0	30866	
6682	0	30784	
6683	0	30644	
6684	0	30460	
6685	0	30348	
6686	0	30264	
6687	0	30144	
6688	0	30072	
6689	0	29984	
6690	0	29964	
6691	0	29920	
6692	0	29824	
6693	0	29740	
6694	0	29696	
6695	0	29664	
6696	0	29700	
6697	0	29728	
6698	0	29696	
6699	0	29648	
6700	0	29604	
6701	0	29596	
6702	0	29560	
6703	0	29540	
6704	0	29548	
6705	0	29556	
6706	0	29564	
6707	0	29584	
6708	0	29576	
6709	0	29548	
6710	0	29528	
6711	0	29484	
6712	0	29484	
6713	0	29462	
6714	0	29484	
6715	0	29520	
6716	0	29528	
6717	0	29576	
6718	0	29608	
6719	0	29584	
6720	0	29612	
6721	0	29680	
6722	0	29696	
6723	0	29692	
6724	0	29716	
6725	0	29748	
6726	0	29744	
6727	0	29740	
6728	0	29760	
6729	0	29800	
6730	0	29792	
6731	0	29836	
6732	0	29888	
6733	0	29888	
6734	0	29908	
6735	0	29960	
6736	0	30036	
6737	0	30048	
6738	0	30056	
6739	0	30076	
6740	0	30120	
6741	0	30100	
6742	0	30128	
6743	0	30220	
6744	0	30280	
6745	0	30288	
6746	0	30266	
6747	0	30228	
6748	0	30272	
6749	0	30316	
6750	0	30338	
6751	0	30312	
6752	0	30296	
6753	0	30280	
6754	0	30264	
6755	0	30296	
6756	0	30349	
6757	0	30468	
6758	0	30552	
6759	0	30600	
6760	0	30624	
6761	0	30628	
6762	0	30640	
6763	0	30712	
6764	0	30804	
6765	0	30840	
6766	0	30852	
6767	0	30868	
6768	0	30868	
6769	0	30844	
6770	0	30836	
6771	0	30810	
6772	0	30832	
6773	0	30796	
6774	0	30816	
6775	0	30916	
6776	0	30980	
6777	0	31000	
6778	0	30954	
6779	0	30992	
6780	0	31020	
6781	0	31068	
6782	0	31124	
6783	0	31144	
6784	0	31152	
6785	0	31138	
6786	0	31096	
6787	0	31084	
6788	0	31096	
6789	0	31052	
6790	0	31060	
6791	0	31112	
6792	0	31156	
6793	0	31152	
6794	0	31096	
6795	0	31116	
6796	0	31124	
6797	0	31060	
6798	0	31056	
6799	0	31128	
6800	0	31228	
6801	0	31264	
6802	0	31328	
6803	0	31408	
6804	0	31432	
6805	0	31456	
6806	0	31472	
6807	0	31492	
6808	0	31454	
6809	0	31364	
6810	0	31368	
6811	0	31416	
6812	0	31394	
6813	0	31372	
6814	0	31376	
6815	0	31420	
6816	0	31464	
6817	0	31488	
6818	0	31500	
6819	0	31480	
6820	0	31524	
6821	0	31564	
6822	0	31560	
6823	0	31560	
6824	0	31584	
6825	0	31620	
6826	0	31644	
6827	0	31592	
6828	0	31520	
6829	0	31522	
6830	0	31540	
6831	0	31572	
6832	0	31644	
6833	0	31620	
6834	0	31620	
6835	0	31664	
6836	0	31680	
6837	0	31684	
6838	0	31692	
6839	0	31760	
6840	0	31780	
6841	0	31762	
6842	0	31764	
6843	0	31796	
6844	0	31880	
6845	0	31924	
6846	0	31912	
6847	0	31836	
6848	0	31752	
6849	0	31720	
6850	0	31724	
6851	0	31744	
6852	0	31778	
6853	0	31760	
6854	0	31788	
6855	0	31816	
6856	0	31784	
6857	0	31820	
6858	0	31876	
6859	0	31886	
6860	0	31896	
6861	0	31908	
6862	0	31850	
6863	0	31832	
6864	0	31860	
6865	0	31904	
6866	0	31896	
6867	0	31896	
6868	0	31856	
6869	0	31840	
6870	0	31828	
6871	0	31776	
6872	0	31784	
6873	0	31818	
6874	0	31848	
6875	0	31908	
6876	0	32060	
6877	0	32180	
6878	0	32248	
6879	0	32244	
6880	0	32332	
6881	0	32464	
6882	0	32636	
6883	0	32732	
6884	0	32884	
6885	0	33028	
6886	0	33148	
6887	0	33300	
6888	0	33456	
6889	0	33616	
6890	0	33680	
6891	0	33712	
6892	0	33760	
6893	0	33848	
6894	0	33882	
6895	0	33912	
6896	0	34002	
6897	0	34100	
6898	0	34172	
6899	0	34226	
6900	0	34264	
6901	0	34312	
6902	0	34336	
6903	0	34352	
6904	0	34464	
6905	0	34616	
6906	0	34732	
6907	0	34800	
6908	0	34924	
6909	0	35032	
6910	0	35164	
6911	0	35208	
6912	0	35212	
6913	0	35120	
6914	0	35026	
6915	0	35016	
6916	0	35068	
6917	0	35108	
6918	0	35136	
6919	0	35152	
6920	0	35192	
6921	0	35236	
6922	0	35226	
6923	0	35148	
6924	0	35008	
6925	0	34912	
6926	0	34844	
6927	0	34720	
6928	0	34496	
6929	0	34300	
6930	0	34128	
6931	0	33912	
6932	0	33708	
6933	0	33604	
6934	0	33572	
6935	0	33544	
6936	0	33488	
6937	0	33440	
6938	0	33416	
6939	0	33424	
6940	0	33410	
6941	0	33408	
6942	0	33392	
6943	0	33364	
6944	0	33296	
6945	0	33208	
6946	0	33032	
6947	0	32860	
6948	0	32724	
6949	0	32596	
6950	0	32588	
6951	0	32568	
6952	0	32488	
6953	0	32388	
6954	0	32220	
6955	0	32076	
6956	0	32000	
6957	0	31908	
6958	0	31792	
6959	0	31684	
6960	0	31580	
6961	0	31532	
6962	0	31480	
6963	0	31392	
6964	0	31332	
6965	0	31332	
6966	0	31308	
6967	0	31276	
6968	0	31236	
6969	0	31202	
6970	0	31188	
6971	0	31172	
6972	0	31168	
6973	0	31172	
6974	0	31228	
6975	0	31272	
6976	0	31272	
6977	0	31280	
6978	0	31334	
6979	0	31364	
6980	0	31292	
6981	0	31252	
6982	0	31280	
6983	0	31320	
6984	0	31360	
6985	0	31408	
6986	0	31404	
6987	0	31392	
6988	0	31338	
6989	0	31332	
6990	0	31368	
6991	0	31384	
6992	0	31384	
6993	0	31340	
6994	0	31304	
6995	0	31340	
6996	0	31400	
6997	0	31412	
6998	0	31400	
6999	0	31360	
7000	0	31380	
7001	0	31424	
7002	0	31440	
7003	0	31496	
7004	0	31568	
7005	0	31600	
7006	0	31616	
7007	0	31644	
7008	0	31676	
7009	0	31672	
7010	0	31648	
7011	0	31672	
7012	0	31712	
7013	0	31674	
7014	0	31636	
7015	0	31596	
7016	0	31552	
7017	0	31548	
7018	0	31496	
7019	0	31396	
7020	0	31272	
7021	0	31128	
7022	0	30936	
7023	0	30848	
7024	0	30898	
7025	0	30968	
7026	0	31120	
7027	0	31400	
7028	0	31904	
7029	0	32490	
7030	0	33152	
7031	0	33952	
7032	0	34840	
7033	0	35874	
7034	0	37060	
7035	0	38504	
7036	0	40084	
7037	0	41576	
7038	0	42960	
7039	0	44372	
7040	0	45848	
7041	0	47400	
7042	0	49024	
7043	0	50576	
7044	0	52088	
7045	0	53672	
7046	0	55224	
7047	0	56600	
7048	0	57832	
7049	0	58852	
7050	0	59880	
7051	0	60816	
7052	0	61432	
7053	0	61544	
7054	0	60544	
7055	0	58560	
7056	0	55760	
7057	0	52300	
7058	0	48672	
7059	0	44836	
7060	0	40480	
7061	0	35848	
7062	0	31752	
7063	0	28784	
7064	0	26840	
7065	0	25724	
7066	0	25152	
7067	0	24986	
7068	0	25154	
7069	0	25416	
7070	0	25700	
7071	0	26144	
7072	0	26692	
7073	0	27276	
7074	0	27882	
7075	0	28544	
7076	0	29168	
7077	0	29704	
7078	0	30048	
7079	0	30264	
7080	0	30408	
7081	0	30464	
7082	0	30468	
7083	0	30446	
7084	0	30390	
7085	0	30324	
7086	0	30288	
7087	0	30204	
7088	0	30096	
7089	0	29988	
7090	0	29864	
7091	0	29768	
7092	0	29708	
7093	0	29666	
7094	0	29688	
7095	0	29664	
7096	0	29640	
7097	0	29644	
7098	0	29672	
7099	0	29722	
7100	0	29752	
7101	0	29760	
7102	0	29754	
7103	0	29808	
7104	0	29860	
7105	0	29818	
7106	0	29820	
7107	0	29896	
7108	0	29952	
7109	0	29966	
7110	0	29976	
7111	0	29992	
7112	0	30060	
7113	0	30044	
7114	0	29993	
7115	0	30004	
7116	0	30072	
7117	0	30136	
7118	0	30180	
7119	0	30200	
7120	0	30248	
7121	0	30240	
7122	0	30272	
7123	0	30344	
7124	0	30420	
7125	0	30464	
7126	0	30500	
7127	0	30508	
7128	0	30544	
7129	0	30562	
7130	0	30556	
7131	0	30600	
7132	0	30648	
7133	0	30640	
7134	0	30608	
7135	0	30656	
7136	0	30724	
7137	0	30816	
7138	0	30868	
7139	0	30888	
7140	0	30922	
7141	0	30908	
7142	0	30944	
7143	0	30968	
7144	0	30952	
7145	0	31004	
7146	0	31056	
7147	0	31104	
7148	0	31108	
7149	0	31096	
7150	0	31112	
7151	0	31132	
7152	0	31176	
7153	0	31240	
7154	0	31288	
7155	0	31340	
7156	0	31384	
7157	0	31404	
7158	0	31436	
7159	0	31460	
7160	0	31496	
7161	0	31572	
7162	0	31632	
7163	0	31682	
7164	0	31698	
7165	0	31692	
7166	0	31688	
7167	0	31704	
7168	0	31756	
7169	0	31792	
7170	0	31844	
7171	0	31864	
7172	0	31882	
7173	0	31906	
7174	0	31936	
7175	0	32016	
7176	0	32076	
7177	0	32108	
7178	0	32168	
7179	0	32212	
7180	0	32218	
7181	0	32192	
7182	0	32188	
7183	0	32220	
7184	0	32328	
7185	0	32404	
7186	0	32404	
7187	0	32394	
7188	0	32432	
7189	0	32496	
7190	0	32528	
7191	0	32564	
7192	0	32608	
7193	0	32640	
7194	0	32652	
7195	0	32660	
7196	0	32704	
7197	0	32748	
7198	0	32824	
7199	0	32880	
7200	0	32892	
7201	0	32884	
7202	0	32900	
7203	0	32996	
7204	0	33080	
7205	0	33128	
7206	0	33176	
7207	0	33200	
7208	0	33246	
7209	0	33292	
7210	0	33352	
7211	0	33408	
7212	0	33416	
7213	0	33460	
7214	0	33548	
7215	0	33634	
7216	0	33688	
7217	0	33732	
7218	0	33776	
7219	0	33876	
7220	0	33988	
7221	0	34040	
7222	0	34072	
7223	0	34124	
7224	0	34200	
7225	0	34252	
7226	0	34312	
7227	0	34336	
7228	0	34384	
7229	0	34424	
7230	0	34496	
7231	0	34576	
7232	0	34592	
7233	0	34660	
7234	0	34700	
7235	0	34780	
7236	0	34848	
7237	0	34908	
7238	0	34984	
7239	0	35020	
7240	0	35072	
7241	0	35164	
7242	0	35280	
7243	0	35392	
7244	0	35448	
7245	0	35516	
7246	0	35564	
7247	0	35636	
7248	0	35704	
7249	0	35764	
7250	0	35824	
7251	0	35816	
7252	0	35784	
7253	0	35842	
7254	0	35952	
7255	0	36032	
7256	0	36104	
7257	0	36152	
7258	0	36224	
7259	0	36320	
7260	0	36384	
7261	0	36448	
7262	0	36532	
7263	0	36604	
7264	0	36654	
7265	0	36672	
7266	0	36676	
7267	0	36720	
7268	0	36736	
7269	0	36724	
7270	0	36696	
7271	0	36704	
7272	0	36748	
7273	0	36744	
7274	0	36724	
7275	0	36700	
7276	0	36700	
7277	0	36706	
7278	0	36744	
7279	0	36784	
7280	0	36804	
7281	0	36792	
7282	0	36768	
7283	0	36708	
7284	0	36666	
7285	0	36592	
7286	0	36500	
7287	0	36424	
7288	0	36316	
7289	0	36184	
7290	0	36016	
7291	0	35936	
7292	0	35868	
7293	0	35748	
7294	0	35620	
7295	0	35492	
7296	0	35386	
7297	0	35258	
7298	0	35056	
7299	0	34900	
7300	0	34712	
7301	0	34516	
7302	0	34360	
7303	0	34224	
7304	0	34020	
7305	0	33828	
7306	0	33632	
7307	0	33454	
7308	0	33246	
7309	0	33056	
7310	0	32874	
7311	0	32716	
7312	0	32544	
7313	0	32356	
7314	0	32218	
7315	0	32032	
7316	0	31892	
7317	0	31784	
7318	0	31672	
7319	0	31512	
7320	0	31340	
7321	0	31230	
7322	0	31104	
7323	0	30976	
7324	0	30844	
7325	0	30732	
7326	0	30650	
7327	0	30512	
7328	0	30348	
7329	0	30204	
7330	0	30132	
7331	0	30096	
7332	0	30016	
7333	0	29904	
7334	0	29832	
7335	0	29776	
7336	0	29720	
7337	0	29656	
7338	0	29612	
7339	0	29572	
7340	0	29568	
7341	0	29560	
7342	0	29568	
7343	0	29568	
7344	0	29556	
7345	0	29520	
7346	0	29512	
7347	0	29516	
7348	0	29512	
7349	0	29480	
7350	0	29496	
7351	0	29440	
7352	0	29384	
7353	0	29364	
7354	0	29336	
7355	0	29328	
7356	0	29372	
7357	0	29452	
7358	0	29504	
7359	0	29496	
7360	0	29472	
7361	0	29482	
7362	0	29480	
7363	0	29480	
7364	0	29532	
7365	0	29536	
7366	0	29488	
7367	0	29472	
7368	0	29488	
7369	0	29514	
7370	0	29524	
7371	0	29552	
7372	0	29570	
7373	0	29568	
7374	0	29572	
7375	0	29608	
7376	0	29628	
7377	0	29632	
7378	0	29668	
7379	0	29712	
7380	0	29812	
7381	0	29880	
7382	0	29888	
7383	0	29892	
7384	0	29948	
7385	0	29996	
7386	0	30004	
7387	0	29960	
7388	0	29922	
7389	0	29946	
7390	0	29960	
7391	0	30016	
7392	0	30016	
7393	0	30000	
7394	0	30004	
7395	0	30016	
7396	0	30020	
7397	0	30048	
7398	0	30064	
7399	0	30112	
7400	0	30240	
7401	0	30342	
7402	0	30376	
7403	0	30448	
7404	0	30556	
7405	0	30516	
7406	0	30432	
7407	0	30384	
7408	0	30410	
7409	0	30460	
7410	0	30508	
7411	0	30544	
7412	0	30504	
7413	0	30516	
7414	0	30544	
7415	0	30540	
7416	0	30512	
7417	0	30500	
7418	0	30548	
7419	0	30596	
7420	0	30656	
7421	0	30672	
7422	0	30708	
7423	0	30760	
7424	0	30784	
7425	0	30804	
7426	0	30812	
7427	0	30800	
7428	0	30804	
7429	0	30788	
7430	0	30752	
7431	0	30752	
7432	0	30730	
7433	0	30740	
7434	0	30696	
7435	0	30664	
7436	0	30672	
7437	0	30720	
7438	0	30764	
7439	0	30804	
7440	0	30848	
7441	0	30864	
7442	0	30880	
7443	0	30908	
7444	0	30928	
7445	0	30928	
7446	0	30896	
7447	0	30908	
7448	0	30924	
7449	0	30904	
7450	0	30938	
7451	0	30896	
7452	0	30816	
7453	0	30844	
7454	0	30908	
7455	0	30936	
7456	0	31004	
7457	0	31000	
7458	0	30972	
7459	0	31020	
7460	0	31072	
7461	0	31064	
7462	0	31052	
7463	0	31072	
7464	0	31052	
7465	0	31064	
7466	0	31132	
7467	0	31160	
7468	0	31120	
7469	0	31004	
7470	0	30984	
7471	0	30968	
7472	0	30964	
7473	0	31004	
7474	0	31036	
7475	0	31092	
7476	0	31140	
7477	0	31128	
7478	0	31116	
7479	0	31144	
7480	0	31188	
7481	0	31236	
7482	0	31238	
7483	0	31244	
7484	0	31296	
7485	0	31360	
7486	0	31344	
7487	0	31304	
7488	0	31280	
7489	0	31272	
7490	0	31272	
7491	0	31282	
7492	0	31304	
7493	0	31252	
7494	0	31260	
7495	0	31264	
7496	0	31284	
7497	0	31280	
7498	0	31260	
7499	0	31280	
7500	0	31322	
7501	0	31376	
7502	0	31392	
7503	0	31428	
7504	0	31452	
7505	0	31436	
7506	0	31412	
7507	0	31404	
7508	0	31392	
7509	0	31346	
7510	0	31364	
7511	0	31388	
7512	0	31364	
7513	0	31360	
7514	0	31400	
7515	0	31416	
7516	0	31468	
7517	0	31528	
7518	0	31552	
7519	0	31472	
7520	0	31408	
7521	0	31432	
7522	0	31456	
7523	0	31532	
7524	0	31656	
7525	0	31744	
7526	0	31804	
7527	0	31828	
7528	0	31812	
7529	0	31872	
7530	0	31996	
7531	0	32160	
7532	0	32330	
7533	0	32452	
7534	0	32544	
7535	0	32642	
7536	0	32766	
7537	0	32936	
7538	0	33108	
7539	0	33172	
7540	0	33214	
7541	0	33232	
7542	0	33296	
7543	0	33400	
7544	0	33516	
7545	0	33604	
7546	0	33608	
7547	0	33580	
7548	0	33572	
7549	0	33612	
7550	0	33616	
7551	0	33640	
7552	0	33700	
7553	0	33800	
7554	0	33936	
7555	0	34072	
7556	0	34232	
7557	0	34404	
7558	0	34528	
7559	0	34592	
7560	0	34680	
7561	0	34696	
7562	0	34704	
7563	0	34720	
7564	0	34656	
7565	0	34624	
7566	0	34608	
7567	0	34628	
7568	0	34708	
7569	0	34736	
7570	0	34688	
7571	0	34576	
7572	0	34453	
7573	0	34348	
7574	0	34256	
7575	0	34144	
7576	0	33976	
7577	0	33804	
7578	0	33660	
7579	0	33524	
7580	0	33444	
7581	0	33328	
7582	0	33240	
7583	0	33164	
7584	0	33076	
7585	0	33032	
7586	0	33016	
7587	0	32980	
7588	0	32864	
7589	0	32804	
7590	0	32802	
7591	0	32708	
7592	0	32576	
7593	0	32496	
7594	0	32332	
7595	0	32152	
7596	0	32048	
7597	0	32040	
7598	0	32072	
7599	0	32024	
7600	0	31920	
7601	0	31908	
7602	0	31900	
7603	0	31818	
7604	0	31690	
7605	0	31532	
7606	0	31360	
7607	0	31232	
7608	0	31108	
7609	0	31002	
7610	0	30904	
7611	0	30888	
7612	0	30844	
7613	0	30764	
7614	0	30768	
7615	0	30848	
7616	0	30908	
7617	0	30912	
7618	0	30904	
7619	0	30924	
7620	0	30916	
7621	0	30936	
7622	0	30944	
7623	0	30960	
7624	0	30992	
7625	0	30976	
7626	0	30944	
7627	0	30922	
7628	0	30886	
7629	0	30856	
7630	0	30836	
7631	0	30840	
7632	0	30836	
7633	0	30816	
7634	0	30828	
7635	0	30862	
7636	0	30864	
7637	0	30856	
7638	0	30888	
7639	0	30980	
7640	0	31024	
7641	0	31052	
7642	0	31088	
7643	0	31112	
7644	0	31084	
7645	0	31040	
7646	0	31052	
7647	0	31080	
7648	0	31096	
7649	0	31104	
7650	0	31096	
7651	0	31120	
7652	0	31130	
7653	0	31128	
7654	0	31168	
7655	0	31212	
7656	0	31216	
7657	0	31224	
7658	0	31264	
7659	0	31316	
7660	0	31392	
7661	0	31448	
7662	0	31488	
7663	0	31508	
7664	0	31456	
7665	0	31400	
7666	0	31336	
7667	0	31216	
7668	0	31044	
7669	0	30840	
7670	0	30668	
7671	0	30484	
7672	0	30336	
7673	0	30312	
7674	0	30394	
7675	0	30524	
7676	0	30740	
7677	0	31124	
7678	0	31680	
7679	0	32292	
7680	0	33052	
7681	0	34028	
7682	0	35112	
7683	0	36360	
7684	0	37816	
7685	0	39388	
7686	0	40948	
7687	0	42416	
7688	0	43888	
7689	0	45372	
7690	0	46856	
7691	0	48392	
7692	0	49920	
7693	0	51340	
7694	0	52776	
7695	0	54244	
7696	0	55760	
7697	0	57136	
7698	0	58304	
7699	0	59280	
7700	0	60096	
7701	0	60696	
7702	0	60828	
7703	0	59936	
7704	0	58112	
7705	0	55438	
7706	0	52046	
7707	0	48356	
7708	0	44480	
7709	0	40084	
7710	0	35308	
7711	0	30964	
7712	0	27648	
7713	0	25588	
7714	0	24538	
7715	0	24160	
7716	0	24196	
7717	0	24424	
7718	0	24760	
7719	0	25178	
7720	0	25576	
7721	0	25968	
7722	0	26436	
7723	0	27000	
7724	0	27568	
7725	0	28064	
7726	0	28522	
7727	0	28972	
7728	0	29388	
7729	0	29716	
7730	0	29864	
7731	0	29968	
7732	0	29964	
7733	0	29944	
7734	0	29940	
7735	0	29912	
7736	0	29884	
7737	0	29848	
7738	0	29848	
7739	0	29836	
7740	0	29776	
7741	0	29764	
7742	0	29772	
7743	0	29769	
7744	0	29756	
7745	0	29756	
7746	0	29728	
7747	0	29728	
7748	0	29668	
7749	0	29600	
7750	0	29556	
7751	0	29508	
7752	0	29512	
7753	0	29544	
7754	0	29608	
7755	0	29680	
7756	0	29796	
7757	0	29844	
7758	0	29900	
7759	0	29924	
7760	0	29984	
7761	0	30016	
7762	0	30000	
7763	0	30004	
7764	0	30048	
7765	0	30100	
7766	0	30136	
7767	0	30100	
7768	0	30092	
7769	0	30148	
7770	0	30176	
7771	0	30188	
7772	0	30224	
7773	0	30248	
7774	0	30208	
7775	0	30252	
7776	0	30368	
7777	0	30424	
7778	0	30472	
7779	0	30592	
7780	0	30756	
7781	0	30784	
7782	0	30794	
7783	0	30856	
7784	0	30868	
7785	0	30836	
7786	0	30820	
7787	0	30812	
7788	0	30800	
7789	0	30816	
7790	0	30812	
7791	0	30796	
7792	0	30796	
7793	0	30868	
7794	0	30916	
7795	0	30889	
7796	0	30864	
7797	0	30876	
7798	0	30988	
7799	0	31056	
7800	0	31120	
7801	0	31140	
7802	0	31200	
7803	0	31288	
7804	0	31344	
7805	0	31432	
7806	0	31468	
7807	0	31468	
7808	0	31480	
7809	0	31464	
7810	0	31552	
7811	0	31514	
7812	0	31488	
7813	0	31508	
7814	0	31636	
7815	0	31672	
7816	0	31644	
7817	0	31596	
7818	0	31672	
7819	0	31808	
7820	0	31890	
7821	0	31932	
7822	0	31932	
7823	0	31992	
7824	0	32068	
7825	0	32092	
7826	0	32012	
7827	0	31958	
7828	0	32028	
7829	0	32060	
7830	0	32060	
7831	0	32048	
7832	0	32028	
7833	0	32040	
7834	0	32088	
7835	0	32128	
7836	0	32144	
7837	0	32168	
7838	0	32248	
7839	0	32314	
7840	0	32348	
7841	0	32412	
7842	0	32476	
7843	0	32526	
7844	0	32592	
7845	0	32632	
7846	0	32644	
7847	0	32684	
7848	0	32664	
7849	0	32656	
7850	0	32664	
7851	0	32712	
7852	0	32800	
7853	0	32820	
7854	0	32880	
7855	0	32945	
7856	0	33028	
7857	0	33066	
7858	0	33096	
7859	0	33122	
7860	0	33136	
7861	0	33204	
7862	0	33304	
7863	0	33344	
7864	0	33344	
7865	0	33324	
7866	0	33392	
7867	0	33476	
7868	0	33530	
7869	0	33558	
7870	0	33636	
7871	0	33696	
7872	0	33740	
7873	0	33800	
7874	0	33904	
7875	0	33992	
7876	0	34020	
7877	0	34064	
7878	0	34028	
7879	0	34088	
7880	0	34208	
7881	0	34336	
7882	0	34444	
7883	0	34564	
7884	0	34708	
7885	0	34740	
7886	0	34742	
7887	0	34828	
7888	0	34940	
7889	0	35056	
7890	0	35120	
7891	0	35156	
7892	0	35192	
7893	0	35316	
7894	0	35380	
7895	0	35412	
7896	0	35440	
7897	0	35472	
7898	0	35578	
7899	0	35696	
7900	0	35816	
7901	0	35888	
7902	0	35928	
7903	0	35992	
7904	0	36052	
7905	0	36160	
7906	0	36244	
7907	0	36248	
7908	0	36256	
7909	0	36296	
7910	0	36308	
7911	0	36300	
7912	0	36276	
7913	0	36300	
7914	0	36384	
7915	0	36464	
7916	0	36576	
7917	0	36644	
7918	0	36648	
7919	0	36672	
7920	0	36748	
7921	0	36792	
7922	0	36756	
7923	0	36618	
7924	0	36608	
7925	0	36656	
7926	0	36688	
7927	0	36720	
7928	0	36688	
7929	0	36636	
7930	0	36602	
7931	0	36624	
7932	0	36624	
7933	0	36572	
7934	0	36608	
7935	0	36576	
7936	0	36536	
7937	0	36464	
7938	0	36424	
7939	0	36344	
7940	0	36288	
7941	0	36236	
7942	0	36116	
7943	0	35860	
7944	0	35708	
7945	0	35628	
7946	0	35412	
7947	0	35180	
7948	0	34944	
7949	0	34788	
7950	0	34664	
7951	0	34540	
7952	0	34344	
7953	0	34096	
7954	0	33940	
7955	0	33752	
7956	0	33588	
7957	0	33380	
7958	0	33184	
7959	0	33016	
7960	0	32764	
7961	0	32640	
7962	0	32588	
7963	0	32420	
7964	0	32212	
7965	0	32016	
7966	0	31840	
7967	0	31688	
7968	0	31522	
7969	0	31376	
7970	0	31266	
7971	0	31120	
7972	0	30992	
7973	0	30824	
7974	0	30648	
7975	0	30568	
7976	0	30488	
7977	0	30312	
7978	0	30128	
7979	0	30072	
7980	0	30084	
7981	0	30056	
7982	0	30020	
7983	0	29962	
7984	0	29948	
7985	0	29856	
7986	0	29768	
7987	0	29752	
7988	0	29724	
7989	0	29608	
7990	0	29500	
7991	0	29480	
7992	0	29520	
7993	0	29496	
7994	0	29424	
7995	0	29444	
7996	0	29436	
7997	0	29436	
7998	0	29452	
7999	0	29488	
8000	0	29512	
8001	0	29496	
8002	0	29456	
8003	0	29420	
8004	0	29472	
8005	0	29468	
8006	0	29520	
8007	0	29448	
8008	0	29400	
8009	0	29416	
8010	0	29360	
8011	0	29380	
8012	0	29444	
8013	0	29488	
8014	0	29548	
8015	0	29540	
8016	0	29508	
8017	0	29522	
8018	0	29608	
8019	0	29604	
8020	0	29562	
8021	0	29536	
8022	0	29540	
8023	0	29580	
8024	0	29640	
8025	0	29696	
8026	0	29712	
8027	0	29720	
8028	0	29754	
8029	0	29784	
8030	0	29800	
8031	0	29792	
8032	0	29824	
8033	0	29856	
8034	0	29928	
8035	0	29988	
8036	0	30008	
8037	0	30042	
8038	0	30104	
8039	0	30172	
8040	0	30216	
8041	0	30172	
8042	0	30168	
8043	0	30216	
8044	0	30240	
8045	0	30272	
8046	0	30324	
8047	0	30336	
8048	0	30292	
8049	0	30302	
8050	0	30336	
8051	0	30352	
8052	0	30338	
8053	0	30336	
8054	0	30344	
8055	0	30420	
8056	0	30448	
8057	0	30528	
8058	0	30608	
8059	0	30628	
8060	0	30664	
8061	0	30672	
8062	0	30652	
8063	0	30604	
8064	0	30608	
8065	0	30674	
8066	0	30740	
8067	0	30746	
8068	0	30748	
8069	0	30718	
8070	0	30760	
8071	0	30824	
8072	0	30808	
8073	0	30824	
8074	0	30900	
8075	0	30896	
8076	0	30920	
8077	0	30976	
8078	0	31000	
8079	0	30992	
8080	0	31004	
8081	0	31012	
8082	0	30986	
8083	0	31036	
8084	0	31058	
8085	0	31080	
8086	0	31148	
8087	0	31140	
8088	0	31088	
8089	0	31200	
8090	0	31288	
8091	0	31248	
8092	0	31196	
8093	0	31184	
8094	0	31160	
8095	0	31192	
8096	0	31236	
8097	0	31256	
8098	0	31242	
8099	0	31258	
8100	0	31272	
8101	0	31288	
8102	0	31348	
8103	0	31412	
8104	0	31440	
8105	0	31458	
8106	0	31520	
8107	0	31546	
8108	0	31512	
8109	0	31456	
8110	0	31456	
8111	0	31444	
8112	0	31408	
8113	0	31400	
8114	0	31440	
8115	0	31476	
8116	0	31512	
8117	0	31490	
8118	0	31464	
8119	0	31444	
8120	0	31486	
8121	0	31508	
8122	0	31540	
8123	0	31644	
8124	0	31680	
8125	0	31652	
8126	0	31592	
8127	0	31608	
8128	0	31600	
8129	0	31640	
8130	0	31712	
8131	0	31792	
8132	0	31788	
8133	0	31744	
8134	0	31716	
8135	0	31712	
8136	0	31704	
8137	0	31704	
8138	0	31736	
8139	0	31704	
8140	0	31652	
8141	0	31608	
8142	0	31588	
8143	0	31660	
8144	0	31748	
8145	0	31738	
8146	0	31742	
8147	0	31736	
8148	0	31744	
8149	0	31812	
8150	0	31784	
8151	0	31768	
8152	0	31852	
8153	0	31912	
8154	0	31922	
8155	0	31968	
8156	0	31976	
8157	0	31968	
8158	0	31992	
8159	0	32032	
8160	0	32132	
8161	0	32240	
8162	0	32436	
8163	0	32552	
8164	0	32640	
8165	0	32812	
8166	0	32972	
8167	0	33112	
8168	0	33180	
8169	0	33144	
8170	0	33092	
8171	0	33072	
8172	0	33104	
8173	0	33234	
8174	0	33344	
8175	0	33468	
8176	0	33572	
8177	0	33640	
8178	0	33640	
8179	0	33648	
8180	0	33712	
8181	0	33808	
8182	0	33888	
8183	0	33964	
8184	0	34164	
8185	0	34324	
8186	0	34496	
8187	0	34628	
8188	0	34728	
8189	0	34786	
8190	0	34820	
8191	0	34804	
8192	0	34724	
8193	0	34688	
8194	0	34696	
8195	0	34740	
8196	0	34792	
8197	0	34880	
8198	0	34936	
8199	0	35062	
8200	0	35096	
8201	0	35016	
8202	0	34936	
8203	0	34856	
8204	0	34776	
8205	0	34626	
8206	0	34388	
8207	0	34132	
8208	0	33928	
8209	0	33760	
8210	0	33664	
8211	0	33592	
8212	0	33560	
8213	0	33492	
8214	0	33448	
8215	0	33520	
8216	0	33556	
8217	0	33612	
8218	0	33592	
8219	0	33496	
8220	0	33436	
8221	0	33436	
8222	0	33404	
8223	0	33332	
8224	0	33220	
8225	0	32988	
8226	0	32712	
8227	0	32524	
8228	0	32504	
8229	0	32586	
8230	0	32572	
8231	0	32444	
8232	0	32292	
8233	0	32160	
8234	0	32048	
8235	0	31968	
8236	0	31900	
8237	0	31856	
8238	0	31768	
8239	0	31688	
8240	0	31622	
8241	0	31576	
8242	0	31476	
8243	0	31416	
8244	0	31416	
8245	0	31408	
8246	0	31428	
8247	0	31436	
8248	0	31412	
8249	0	31384	
8250	0	31392	
8251	0	31432	
8252	0	31448	
8253	0	31416	
8254	0	31320	
8255	0	31216	
8256	0	31268	
8257	0	31384	
8258	0	31440	
8259	0	31500	
8260	0	31560	
8261	0	31568	
8262	0	31552	
8263	0	31556	
8264	0	31548	
8265	0	31548	
8266	0	31496	
8267	0	31484	
8268	0	31504	
8269	0	31524	
8270	0	31516	
8271	0	31504	
8272	0	31512	
8273	0	31460	
8274	0	31432	
8275	0	31486	
8276	0	31564	
8277	0	31588	
8278	0	31620	
8279	0	31668	
8280	0	31740	
8281	0	31744	
8282	0	31752	
8283	0	31776	
8284	0	31784	
8285	0	31848	
8286	0	31924	
8287	0	31996	
8288	0	31996	
8289	0	31936	
8290	0	31892	
8291	0	31984	
8292	0	32056	
8293	0	32064	
8294	0	32000	
8295	0	31944	
8296	0	31944	
8297	0	31832	
8298	0	31668	
8299	0	31522	
8300	0	31356	
8301	0	31272	
8302	0	31180	
8303	0	31100	
8304	0	31092	
8305	0	31109	
8306	0	31136	
8307	0	31308	
8308	0	31632	
8309	0	32040	
8310	0	32578	
8311	0	33272	
8312	0	34112	
8313	0	35212	
8314	0	36572	
8315	0	38212	
8316	0	39932	
8317	0	41488	
8318	0	42988	
8319	0	44608	
8320	0	46284	
8321	0	47968	
8322	0	49536	
8323	0	50872	
8324	0	52072	
8325	0	53416	
8326	0	54672	
8327	0	55856	
8328	0	56960	
8329	0	58084	
8330	0	59132	
8331	0	59932	
8332	0	60472	
8333	0	60416	
8334	0	59348	
8335	0	57464	
8336	0	54652	
8337	0	51212	
8338	0	47616	
8339	0	43840	
8340	0	39704	
8341	0	35304	
8342	0	31156	
8343	0	27844	
8344	0	25608	
8345	0	24384	
8346	0	23952	
8347	0	24060	
8348	0	24416	
8349	0	24852	
8350	0	25272	
8351	0	25680	
8352	0	26056	
8353	0	26384	
8354	0	26646	
8355	0	26944	
8356	0	27260	
8357	0	27576	
8358	0	27892	
8359	0	28192	
8360	0	28556	
8361	0	28928	
8362	0	29316	
8363	0	29704	
8364	0	29952	
8365	0	30112	
8366	0	30232	
8367	0	30348	
8368	0	30424	
8369	0	30436	
8370	0	30448	
8371	0	30436	
8372	0	30402	
8373	0	30408	
8374	0	30380	
8375	0	30388	
8376	0	30440	
8377	0	30432	
8378	0	30360	
8379	0	30332	
8380	0	30276	
8381	0	30192	
8382	0	30264	
8383	0	30240	
8384	0	30172	
8385	0	30216	
8386	0	30236	
8387	0	30220	
8388	0	30240	
8389	0	30356	
8390	0	30448	
8391	0	30402	
8392	0	30436	
8393	0	30608	
8394	0	30768	
8395	0	30796	
8396	0	30844	
8397	0	30880	
8398	0	30848	
8399	0	30716	
8400	0	30664	
8401	0	30716	
8402	0	30804	
8403	0	30832	
8404	0	30848	
8405	0	30852	
8406	0	30842	
8407	0	30872	
8408	0	30956	
8409	0	30992	
8410	0	31020	
8411	0	30970	
8412	0	30956	
8413	0	30948	
8414	0	31016	
8415	0	31116	
8416	0	31176	
8417	0	31232	
8418	0	31332	
8419	0	31384	
8420	0	31456	
8421	0	31464	
8422	0	31452	
8423	0	31442	
8424	0	31456	
8425	0	31514	
8426	0	31596	
8427	0	31572	
8428	0	31624	
8429	0	31656	
8430	0	31652	
8431	0	31690	
8432	0	31768	
8433	0	31840	
8434	0	31848	
8435	0	31912	
8436	0	31952	
8437	0	31952	
8438	0	31992	
8439	0	31988	
8440	0	32012	
8441	0	32016	
8442	0	31996	
8443	0	32032	
8444	0	32076	
8445	0	32156	
8446	0	32224	
8447	0	32264	
8448	0	32288	
8449	0	32256	
8450	0	32224	
8451	0	32256	
8452	0	32324	
8453	0	32372	
8454	0	32366	
8455	0	32444	
8456	0	32574	
8457	0	32632	
8458	0	32564	
8459	0	32548	
8460	0	32588	
8461	0	32620	
8462	0	32648	
8463	0	32624	
8464	0	32648	
8465	0	32712	
8466	0	32732	
8467	0	32720	
8468	0	32696	
8469	0	32748	
8470	0	32836	
8471	0	32884	
8472	0	32912	
8473	0	32992	
8474	0	33068	
8475	0	33150	
8476	0	33208	
8477	0	33220	
8478	0	33192	
8479	0	33188	
8480	0	33212	
8481	0	33232	
8482	0	33292	
8483	0	33396	
8484	0	33444	
8485	0	33524	
8486	0	33612	
8487	0	33636	
8488	0	33560	
8489	0	33556	
8490	0	33600	
8491	0	33688	
8492	0	33800	
8493	0	33885	
8494	0	33932	
8495	0	33984	
8496	0	33972	
8497	0	34004	
8498	0	34040	
8499	0	34120	
8500	0	34260	
8501	0	34344	
8502	0	34420	
8503	0	34484	
8504	0	34536	
8505	0	34608	
8506	0	34692	
8507	0	34804	
8508	0	34896	
8509	0	34868	
8510	0	34856	
8511	0	34896	
8512	0	34968	
8513	0	35040	
8514	0	35080	
8515	0	35136	
8516	0	35204	
8517	0	35264	
8518	0	35384	
8519	0	35508	
8520	0	35600	
8521	0	35716	
8522	0	35792	
8523	0	35904	
8524	0	36024	
8525	0	36072	
8526	0	36060	
8527	0	36132	
8528	0	36232	
8529	0	36260	
8530	0	36296	
8531	0	36346	
8532	0	36424	
8533	0	36492	
8534	0	36532	
8535	0	36548	
8536	0	36628	
8537	0	36680	
8538	0	36804	
8539	0	36920	
8540	0	36976	
8541	0	36992	
8542	0	37032	
8543	0	37008	
8544	0	36984	
8545	0	36932	
8546	0	36896	
8547	0	36948	
8548	0	37044	
8549	0	37072	
8550	0	37072	
8551	0	37092	
8552	0	37156	
8553	0	37152	
8554	0	37125	
8555	0	37082	
8556	0	37112	
8557	0	37208	
8558	0	37248	
8559	0	37256	
8560	0	37268	
8561	0	37196	
8562	0	37132	
8563	0	37048	
8564	0	36992	
8565	0	36864	
8566	0	36744	
8567	0	36720	
8568	0	36688	
8569	0	36608	
8570	0	36498	
8571	0	36346	
8572	0	36128	
8573	0	35912	
8574	0	35760	
8575	0	35648	
8576	0	35556	
8577	0	35480	
8578	0	35332	
8579	0	35240	
8580	0	35160	
8581	0	35020	
8582	0	34860	
8583	0	34660	
8584	0	34548	
8585	0	34368	
8586	0	34152	
8587	0	33912	
8588	0	33560	
8589	0	33304	
8590	0	33152	
8591	0	32928	
8592	0	32652	
