# OpenSignals Text File Format. Version 1
# {"00:07:80:4B:15:F7": {"position": 0, "device": "biosignalsplux", "device name": "00:07:80:4B:15:F7", "device connection": "BTH00:07:80:4B:15:F7", "sampling rate": 1000, "resolution": [16], "firmware version": 775, "comments": "", "keywords": "", "mode": 0, "sync interval": 2, "date": "2023-3-14", "time": "15:46:24.426", "channels": [1], "sensor": ["ECG"], "label": ["CH1"], "column": ["nSeq", "DI", "CH1"], "special": [{"SpO2": [80, 40, 5, 4, 3, 3]}, {"SpO2": [80, 40, 5, 4, 3, 3]}, {"SpO2": [80, 40, 5, 4, 3, 3]}, {"SpO2": [80, 40, 5, 4, 3, 3]}, {"SpO2": [80, 40, 5, 4, 3, 3]}, {"SpO2": [80, 40, 5, 4, 3, 3]}, {"SpO2": [80, 40, 5, 4, 3, 3]}, {"SpO2": [80, 40, 5, 4, 3, 3]}], "digital IO": [0, 1], "sleeve color": ["green"], "convertedValues": 0}}
# EndOfHeader
0	0	28448	
1	0	28416	
2	0	28400	
3	0	28442	
4	0	28474	
5	0	28536	
6	0	28528	
7	0	28492	
8	0	28492	
9	0	28428	
10	0	28332	
11	0	28264	
12	0	28256	
13	0	28276	
14	0	28284	
15	0	28322	
16	0	28336	
17	0	28345	
18	0	28396	
19	0	28432	
20	0	28460	
21	0	28516	
22	0	28538	
23	0	28564	
24	0	28596	
25	0	28644	
26	0	28678	
27	0	28736	
28	0	28768	
29	0	28776	
30	0	28740	
31	0	28724	
32	0	28744	
33	0	28762	
34	0	28752	
35	0	28768	
36	0	28808	
37	0	28872	
38	0	29004	
39	0	29096	
40	0	29092	
41	0	29060	
42	0	29108	
43	0	29176	
44	0	29260	
45	0	29356	
46	0	29408	
47	0	29480	
48	0	29572	
49	0	29656	
50	0	29704	
51	0	29732	
52	0	29736	
53	0	29730	
54	0	29712	
55	0	29704	
56	0	29744	
57	0	29760	
58	0	29792	
59	0	29812	
60	0	29844	
61	0	29904	
62	0	29964	
63	0	30012	
64	0	30064	
65	0	30080	
66	0	30096	
67	0	30160	
68	0	30240	
69	0	30272	
70	0	30258	
71	0	30256	
72	0	30256	
73	0	30320	
74	0	30360	
75	0	30388	
76	0	30412	
77	0	30420	
78	0	30432	
79	0	30516	
80	0	30604	
81	0	30644	
82	0	30642	
83	0	30608	
84	0	30612	
85	0	30632	
86	0	30656	
87	0	30680	
88	0	30672	
89	0	30668	
90	0	30700	
91	0	30736	
92	0	30788	
93	0	30828	
94	0	30820	
95	0	30832	
96	0	30868	
97	0	30924	
98	0	30938	
99	0	31040	
100	0	31096	
101	0	31112	
102	0	31124	
103	0	31132	
104	0	31136	
105	0	31152	
106	0	31144	
107	0	31172	
108	0	31194	
109	0	31192	
110	0	31240	
111	0	31276	
112	0	31288	
113	0	31280	
114	0	31300	
115	0	31328	
116	0	31356	
117	0	31364	
118	0	31352	
119	0	31360	
120	0	31392	
121	0	31464	
122	0	31560	
123	0	31628	
124	0	31636	
125	0	31612	
126	0	31572	
127	0	31544	
128	0	31480	
129	0	31424	
130	0	31440	
131	0	31464	
132	0	31468	
133	0	31426	
134	0	31404	
135	0	31418	
136	0	31416	
137	0	31456	
138	0	31512	
139	0	31528	
140	0	31496	
141	0	31498	
142	0	31528	
143	0	31550	
144	0	31544	
145	0	31564	
146	0	31596	
147	0	31620	
148	0	31652	
149	0	31640	
150	0	31618	
151	0	31604	
152	0	31594	
153	0	31568	
154	0	31564	
155	0	31560	
156	0	31556	
157	0	31568	
158	0	31562	
159	0	31564	
160	0	31496	
161	0	31360	
162	0	31320	
163	0	31348	
164	0	31378	
165	0	31418	
166	0	31456	
167	0	31506	
168	0	31568	
169	0	31580	
170	0	31600	
171	0	31592	
172	0	31528	
173	0	31464	
174	0	31464	
175	0	31444	
176	0	31428	
177	0	31388	
178	0	31376	
179	0	31402	
180	0	31392	
181	0	31384	
182	0	31420	
183	0	31448	
184	0	31488	
185	0	31504	
186	0	31528	
187	0	31480	
188	0	31436	
189	0	31408	
190	0	31408	
191	0	31400	
192	0	31412	
193	0	31408	
194	0	31400	
195	0	31392	
196	0	31380	
197	0	31376	
198	0	31388	
199	0	31440	
200	0	31496	
201	0	31532	
202	0	31556	
203	0	31576	
204	0	31604	
205	0	31632	
206	0	31628	
207	0	31648	
208	0	31676	
209	0	31700	
210	0	31688	
211	0	31660	
212	0	31672	
213	0	31656	
214	0	31632	
215	0	31616	
216	0	31622	
217	0	31568	
218	0	31476	
219	0	31436	
220	0	31412	
221	0	31424	
222	0	31450	
223	0	31500	
224	0	31568	
225	0	31608	
226	0	31604	
227	0	31632	
228	0	31672	
229	0	31680	
230	0	31676	
231	0	31660	
232	0	31700	
233	0	31720	
234	0	31712	
235	0	31724	
236	0	31768	
237	0	31772	
238	0	31752	
239	0	31728	
240	0	31716	
241	0	31664	
242	0	31668	
243	0	31700	
244	0	31748	
245	0	31848	
246	0	31950	
247	0	32000	
248	0	31960	
249	0	31960	
250	0	31908	
251	0	31824	
252	0	31760	
253	0	31756	
254	0	31684	
255	0	31616	
256	0	31632	
257	0	31648	
258	0	31664	
259	0	31680	
260	0	31720	
261	0	31784	
262	0	31848	
263	0	31932	
264	0	32008	
265	0	32080	
266	0	32136	
267	0	32218	
268	0	32264	
269	0	32232	
270	0	32160	
271	0	32104	
272	0	32032	
273	0	31976	
274	0	31940	
275	0	31944	
276	0	31948	
277	0	31936	
278	0	31948	
279	0	32006	
280	0	32020	
281	0	32028	
282	0	32092	
283	0	32124	
284	0	32156	
285	0	32176	
286	0	32168	
287	0	32168	
288	0	32188	
289	0	32208	
290	0	32228	
291	0	32192	
292	0	32132	
293	0	32088	
294	0	32072	
295	0	32100	
296	0	32104	
297	0	32148	
298	0	32204	
299	0	32192	
300	0	32168	
301	0	32192	
302	0	32256	
303	0	32304	
304	0	32284	
305	0	32232	
306	0	32200	
307	0	32228	
308	0	32232	
309	0	32244	
310	0	32276	
311	0	32244	
312	0	32218	
313	0	32208	
314	0	32226	
315	0	32276	
316	0	32336	
317	0	32352	
318	0	32360	
319	0	32424	
320	0	32456	
321	0	32456	
322	0	32500	
323	0	32536	
324	0	32536	
325	0	32556	
326	0	32600	
327	0	32576	
328	0	32524	
329	0	32464	
330	0	32412	
331	0	32408	
332	0	32460	
333	0	32456	
334	0	32480	
335	0	32484	
336	0	32452	
337	0	32442	
338	0	32468	
339	0	32504	
340	0	32566	
341	0	32648	
342	0	32724	
343	0	32775	
344	0	32780	
345	0	32788	
346	0	32828	
347	0	32894	
348	0	32988	
349	0	33040	
350	0	33080	
351	0	33112	
352	0	33188	
353	0	33296	
354	0	33392	
355	0	33440	
356	0	33438	
357	0	33464	
358	0	33556	
359	0	33604	
360	0	33584	
361	0	33608	
362	0	33604	
363	0	33578	
364	0	33576	
365	0	33520	
366	0	33484	
367	0	33472	
368	0	33508	
369	0	33568	
370	0	33640	
371	0	33704	
372	0	33756	
373	0	33812	
374	0	33978	
375	0	34260	
376	0	34540	
377	0	34794	
378	0	35012	
379	0	35116	
380	0	35168	
381	0	35296	
382	0	35464	
383	0	35632	
384	0	35728	
385	0	35704	
386	0	35608	
387	0	35508	
388	0	35428	
389	0	35362	
390	0	35296	
391	0	35234	
392	0	35160	
393	0	35012	
394	0	34912	
395	0	34824	
396	0	34700	
397	0	34544	
398	0	34368	
399	0	34268	
400	0	34226	
401	0	34124	
402	0	33992	
403	0	33854	
404	0	33724	
405	0	33592	
406	0	33504	
407	0	33408	
408	0	33296	
409	0	33224	
410	0	33136	
411	0	33068	
412	0	33024	
413	0	32946	
414	0	32904	
415	0	32848	
416	0	32812	
417	0	32756	
418	0	32752	
419	0	32644	
420	0	32516	
421	0	32416	
422	0	32320	
423	0	32196	
424	0	32084	
425	0	32016	
426	0	31944	
427	0	31912	
428	0	31848	
429	0	31792	
430	0	31722	
431	0	31714	
432	0	31770	
433	0	31832	
434	0	31864	
435	0	31872	
436	0	31852	
437	0	31778	
438	0	31668	
439	0	31576	
440	0	31552	
441	0	31568	
442	0	31592	
443	0	31636	
444	0	31684	
445	0	31736	
446	0	31776	
447	0	31840	
448	0	31888	
449	0	31944	
450	0	32012	
451	0	32052	
452	0	32050	
453	0	32016	
454	0	31952	
455	0	31930	
456	0	31972	
457	0	32012	
458	0	32010	
459	0	32020	
460	0	32024	
461	0	32064	
462	0	32140	
463	0	32248	
464	0	32288	
465	0	32288	
466	0	32304	
467	0	32296	
468	0	32208	
469	0	32044	
470	0	31784	
471	0	31460	
472	0	31044	
473	0	30480	
474	0	29804	
475	0	29272	
476	0	28890	
477	0	28664	
478	0	28652	
479	0	28816	
480	0	29248	
481	0	29924	
482	0	30848	
483	0	31984	
484	0	33204	
485	0	34508	
486	0	35916	
487	0	37360	
488	0	38932	
489	0	40856	
490	0	43216	
491	0	45932	
492	0	48940	
493	0	52092	
494	0	55104	
495	0	57992	
496	0	60920	
497	0	63080	
498	0	64200	
499	0	64760	
500	0	65004	
501	0	65072	
502	0	65056	
503	0	64968	
504	0	64872	
505	0	64752	
506	0	64480	
507	0	59040	
508	0	54404	
509	0	50472	
510	0	47160	
511	0	44320	
512	0	42024	
513	0	40004	
514	0	38100	
515	0	36280	
516	0	34618	
517	0	33008	
518	0	31460	
519	0	30176	
520	0	29168	
521	0	28480	
522	0	28000	
523	0	27752	
524	0	27676	
525	0	27628	
526	0	27496	
527	0	27360	
528	0	27396	
529	0	27484	
530	0	27570	
531	0	27660	
532	0	27878	
533	0	28104	
534	0	28232	
535	0	28376	
536	0	28600	
537	0	28884	
538	0	29140	
539	0	29380	
540	0	29548	
541	0	29626	
542	0	29652	
543	0	29648	
544	0	29656	
545	0	29676	
546	0	29762	
547	0	29876	
548	0	29928	
549	0	29890	
550	0	29858	
551	0	29844	
552	0	29848	
553	0	29776	
554	0	29658	
555	0	29584	
556	0	29624	
557	0	29648	
558	0	29680	
559	0	29684	
560	0	29696	
561	0	29764	
562	0	29866	
563	0	30004	
564	0	30108	
565	0	30176	
566	0	30200	
567	0	30232	
568	0	30284	
569	0	30332	
570	0	30360	
571	0	30376	
572	0	30416	
573	0	30436	
574	0	30476	
575	0	30558	
576	0	30616	
577	0	30624	
578	0	30664	
579	0	30688	
580	0	30684	
581	0	30752	
582	0	30868	
583	0	30920	
584	0	30944	
585	0	30954	
586	0	30970	
587	0	30992	
588	0	31044	
589	0	31066	
590	0	31100	
591	0	31124	
592	0	31156	
593	0	31168	
594	0	31196	
595	0	31216	
596	0	31222	
597	0	31292	
598	0	31332	
599	0	31348	
600	0	31380	
601	0	31456	
602	0	31460	
603	0	31424	
604	0	31472	
605	0	31592	
606	0	31664	
607	0	31728	
608	0	31848	
609	0	31920	
610	0	31948	
611	0	31968	
612	0	32020	
613	0	32080	
614	0	32100	
615	0	32124	
616	0	32184	
617	0	32196	
618	0	32216	
619	0	32228	
620	0	32244	
621	0	32252	
622	0	32280	
623	0	32280	
624	0	32288	
625	0	32316	
626	0	32404	
627	0	32536	
628	0	32648	
629	0	32664	
630	0	32688	
631	0	32724	
632	0	32724	
633	0	32704	
634	0	32696	
635	0	32744	
636	0	32796	
637	0	32884	
638	0	32980	
639	0	33080	
640	0	33154	
641	0	33240	
642	0	33304	
643	0	33296	
644	0	33372	
645	0	33460	
646	0	33556	
647	0	33656	
648	0	33688	
649	0	33706	
650	0	33740	
651	0	33786	
652	0	33868	
653	0	33920	
654	0	33984	
655	0	34052	
656	0	34104	
657	0	34178	
658	0	34252	
659	0	34304	
660	0	34364	
661	0	34464	
662	0	34554	
663	0	34528	
664	0	34528	
665	0	34560	
666	0	34624	
667	0	34680	
668	0	34796	
669	0	34908	
670	0	35032	
671	0	35114	
672	0	35184	
673	0	35224	
674	0	35264	
675	0	35324	
676	0	35376	
677	0	35440	
678	0	35560	
679	0	35644	
680	0	35732	
681	0	35808	
682	0	35888	
683	0	35972	
684	0	36064	
685	0	36164	
686	0	36256	
687	0	36304	
688	0	36368	
689	0	36416	
690	0	36456	
691	0	36514	
692	0	36592	
693	0	36652	
694	0	36736	
695	0	36816	
696	0	36880	
697	0	36948	
698	0	37036	
699	0	37080	
700	0	37112	
701	0	37176	
702	0	37220	
703	0	37276	
704	0	37340	
705	0	37408	
706	0	37504	
707	0	37560	
708	0	37612	
709	0	37636	
710	0	37616	
711	0	37636	
712	0	37676	
713	0	37680	
714	0	37684	
715	0	37648	
716	0	37600	
717	0	37564	
718	0	37544	
719	0	37484	
720	0	37464	
721	0	37488	
722	0	37512	
723	0	37520	
724	0	37556	
725	0	37608	
726	0	37664	
727	0	37716	
728	0	37780	
729	0	37826	
730	0	37848	
731	0	37850	
732	0	37772	
733	0	37664	
734	0	37548	
735	0	37496	
736	0	37464	
737	0	37410	
738	0	37312	
739	0	37216	
740	0	37104	
741	0	37000	
742	0	36868	
743	0	36752	
744	0	36640	
745	0	36488	
746	0	36392	
747	0	36260	
748	0	36080	
749	0	35872	
750	0	35748	
751	0	35620	
752	0	35424	
753	0	35172	
754	0	34964	
755	0	34832	
756	0	34672	
757	0	34466	
758	0	34252	
759	0	34004	
760	0	33728	
761	0	33488	
762	0	33258	
763	0	33026	
764	0	32812	
765	0	32612	
766	0	32372	
767	0	32140	
768	0	31988	
769	0	31872	
770	0	31752	
771	0	31652	
772	0	31488	
773	0	31324	
774	0	31098	
775	0	30880	
776	0	30696	
777	0	30502	
778	0	30306	
779	0	30140	
780	0	30000	
781	0	29834	
782	0	29732	
783	0	29660	
784	0	29632	
785	0	29556	
786	0	29504	
787	0	29440	
788	0	29400	
789	0	29304	
790	0	29220	
791	0	29156	
792	0	29040	
793	0	28916	
794	0	28810	
795	0	28764	
796	0	28748	
797	0	28680	
798	0	28616	
799	0	28584	
800	0	28588	
801	0	28538	
802	0	28514	
803	0	28512	
804	0	28474	
805	0	28456	
806	0	28448	
807	0	28420	
808	0	28408	
809	0	28388	
810	0	28336	
811	0	28312	
812	0	28308	
813	0	28332	
814	0	28332	
815	0	28292	
816	0	28280	
817	0	28280	
818	0	28322	
819	0	28352	
820	0	28346	
821	0	28368	
822	0	28416	
823	0	28452	
824	0	28448	
825	0	28468	
826	0	28500	
827	0	28540	
828	0	28572	
829	0	28620	
830	0	28684	
831	0	28752	
832	0	28748	
833	0	28632	
834	0	28572	
835	0	28592	
836	0	28668	
837	0	28768	
838	0	28848	
839	0	28864	
840	0	28908	
841	0	28952	
842	0	29000	
843	0	29068	
844	0	29168	
845	0	29274	
846	0	29284	
847	0	29244	
848	0	29226	
849	0	29248	
850	0	29328	
851	0	29416	
852	0	29428	
853	0	29420	
854	0	29436	
855	0	29436	
856	0	29460	
857	0	29472	
858	0	29476	
859	0	29532	
860	0	29620	
861	0	29696	
862	0	29680	
863	0	29648	
864	0	29684	
865	0	29804	
866	0	29916	
867	0	30016	
868	0	30112	
869	0	30144	
870	0	30180	
871	0	30244	
872	0	30324	
873	0	30420	
874	0	30488	
875	0	30516	
876	0	30504	
877	0	30532	
878	0	30532	
879	0	30572	
880	0	30572	
881	0	30522	
882	0	30548	
883	0	30600	
884	0	30682	
885	0	30792	
886	0	30890	
887	0	31012	
888	0	31080	
889	0	31068	
890	0	31076	
891	0	31096	
892	0	31056	
893	0	31072	
894	0	31124	
895	0	31140	
896	0	31156	
897	0	31156	
898	0	31192	
899	0	31216	
900	0	31224	
901	0	31252	
902	0	31304	
903	0	31336	
904	0	31444	
905	0	31528	
906	0	31580	
907	0	31600	
908	0	31536	
909	0	31512	
910	0	31508	
911	0	31488	
912	0	31424	
913	0	31376	
914	0	31408	
915	0	31432	
916	0	31448	
917	0	31456	
918	0	31442	
919	0	31440	
920	0	31444	
921	0	31444	
922	0	31520	
923	0	31596	
924	0	31604	
925	0	31624	
926	0	31660	
927	0	31676	
928	0	31712	
929	0	31720	
930	0	31724	
931	0	31684	
932	0	31648	
933	0	31676	
934	0	31676	
935	0	31644	
936	0	31664	
937	0	31664	
938	0	31612	
939	0	31596	
940	0	31560	
941	0	31580	
942	0	31604	
943	0	31634	
944	0	31676	
945	0	31684	
946	0	31694	
947	0	31688	
948	0	31640	
949	0	31576	
950	0	31628	
951	0	31672	
952	0	31664	
953	0	31616	
954	0	31596	
955	0	31596	
956	0	31568	
957	0	31544	
958	0	31512	
959	0	31552	
960	0	31664	
961	0	31751	
962	0	31764	
963	0	31808	
964	0	31928	
965	0	32000	
966	0	31994	
967	0	31924	
968	0	31876	
969	0	31776	
970	0	31680	
971	0	31652	
972	0	31584	
973	0	31548	
974	0	31588	
975	0	31600	
976	0	31538	
977	0	31464	
978	0	31474	
979	0	31496	
980	0	31548	
981	0	31620	
982	0	31680	
983	0	31688	
984	0	31760	
985	0	31916	
986	0	32020	
987	0	32020	
988	0	31992	
989	0	31948	
990	0	31904	
991	0	31868	
992	0	31816	
993	0	31760	
994	0	31758	
995	0	31816	
996	0	31820	
997	0	31716	
998	0	31620	
999	0	31600	
1000	0	31656	
1001	0	31700	
1002	0	31764	
1003	0	31728	
1004	0	31716	
1005	0	31792	
1006	0	31768	
1007	0	31712	
1008	0	31736	
1009	0	31764	
1010	0	31776	
1011	0	31768	
1012	0	31816	
1013	0	31856	
1014	0	31892	
1015	0	31840	
1016	0	31736	
1017	0	31656	
1018	0	31648	
1019	0	31616	
1020	0	31596	
1021	0	31612	
1022	0	31724	
1023	0	31856	
1024	0	31952	
1025	0	31992	
1026	0	31972	
1027	0	31904	
1028	0	31900	
1029	0	31960	
1030	0	32026	
1031	0	32032	
1032	0	32008	
1033	0	31976	
1034	0	31952	
1035	0	31928	
1036	0	31928	
1037	0	31992	
1038	0	32040	
1039	0	32052	
1040	0	31992	
1041	0	31920	
1042	0	31896	
1043	0	31884	
1044	0	31908	
1045	0	31992	
1046	0	32056	
1047	0	32016	
1048	0	31936	
1049	0	31912	
1050	0	31960	
1051	0	32028	
1052	0	32072	
1053	0	32092	
1054	0	32132	
1055	0	32164	
1056	0	32192	
1057	0	32248	
1058	0	32292	
1059	0	32360	
1060	0	32392	
1061	0	32392	
1062	0	32336	
1063	0	32260	
1064	0	32218	
1065	0	32224	
1066	0	32260	
1067	0	32272	
1068	0	32288	
1069	0	32360	
1070	0	32380	
1071	0	32304	
1072	0	32260	
1073	0	32268	
1074	0	32232	
1075	0	32200	
1076	0	32200	
1077	0	32188	
1078	0	32154	
1079	0	32160	
1080	0	32216	
1081	0	32296	
1082	0	32368	
1083	0	32416	
1084	0	32472	
1085	0	32532	
1086	0	32576	
1087	0	32624	
1088	0	32672	
1089	0	32684	
1090	0	32728	
1091	0	32756	
1092	0	32752	
1093	0	32721	
1094	0	32696	
1095	0	32764	
1096	0	32888	
1097	0	33080	
1098	0	33252	
1099	0	33376	
1100	0	33456	
1101	0	33496	
1102	0	33516	
1103	0	33508	
1104	0	33496	
1105	0	33476	
1106	0	33392	
1107	0	33274	
1108	0	33192	
1109	0	33082	
1110	0	32984	
1111	0	32916	
1112	0	32868	
1113	0	32864	
1114	0	32896	
1115	0	32972	
1116	0	33168	
1117	0	33424	
1118	0	33690	
1119	0	33928	
1120	0	34224	
1121	0	34480	
1122	0	34668	
1123	0	34800	
1124	0	34940	
1125	0	35128	
1126	0	35256	
1127	0	35448	
1128	0	35600	
1129	0	35672	
1130	0	35616	
1131	0	35440	
1132	0	35254	
1133	0	35144	
1134	0	35084	
1135	0	35008	
1136	0	34932	
1137	0	34748	
1138	0	34508	
1139	0	34296	
1140	0	34120	
1141	0	33976	
1142	0	33892	
1143	0	33852	
1144	0	33808	
1145	0	33688	
1146	0	33594	
1147	0	33536	
1148	0	33556	
1149	0	33556	
1150	0	33544	
1151	0	33492	
1152	0	33384	
1153	0	33272	
1154	0	33136	
1155	0	33024	
1156	0	33028	
1157	0	32996	
1158	0	32928	
1159	0	32832	
1160	0	32704	
1161	0	32552	
1162	0	32452	
1163	0	32364	
1164	0	32296	
1165	0	32192	
1166	0	32044	
1167	0	31912	
1168	0	31776	
1169	0	31672	
1170	0	31636	
1171	0	31632	
1172	0	31656	
1173	0	31624	
1174	0	31576	
1175	0	31536	
1176	0	31560	
1177	0	31512	
1178	0	31464	
1179	0	31444	
1180	0	31468	
1181	0	31564	
1182	0	31604	
1183	0	31584	
1184	0	31556	
1185	0	31540	
1186	0	31508	
1187	0	31480	
1188	0	31520	
1189	0	31536	
1190	0	31564	
1191	0	31580	
1192	0	31584	
1193	0	31628	
1194	0	31712	
1195	0	31738	
1196	0	31744	
1197	0	31644	
1198	0	31596	
1199	0	31616	
1200	0	31652	
1201	0	31712	
1202	0	31744	
1203	0	31840	
1204	0	31912	
1205	0	31988	
1206	0	32080	
1207	0	32168	
1208	0	32156	
1209	0	32160	
1210	0	32168	
1211	0	32128	
1212	0	32044	
1213	0	31952	
1214	0	31820	
1215	0	31612	
1216	0	31361	
1217	0	30984	
1218	0	30396	
1219	0	29770	
1220	0	29368	
1221	0	29248	
1222	0	29240	
1223	0	29312	
1224	0	29540	
1225	0	29940	
1226	0	30612	
1227	0	31500	
1228	0	32556	
1229	0	33668	
1230	0	34808	
1231	0	36016	
1232	0	37368	
1233	0	38968	
1234	0	40916	
1235	0	43212	
1236	0	45900	
1237	0	48808	
1238	0	51836	
1239	0	54816	
1240	0	57672	
1241	0	60488	
1242	0	62712	
1243	0	63896	
1244	0	64484	
1245	0	64728	
1246	0	64816	
1247	0	64796	
1248	0	64736	
1249	0	64620	
1250	0	61172	
1251	0	55888	
1252	0	50714	
1253	0	46016	
1254	0	42072	
1255	0	38928	
1256	0	36432	
1257	0	34496	
1258	0	32968	
1259	0	31712	
1260	0	30672	
1261	0	29696	
1262	0	28680	
1263	0	27660	
1264	0	26752	
1265	0	26072	
1266	0	25656	
1267	0	25490	
1268	0	25372	
1269	0	25374	
1270	0	25472	
1271	0	25628	
1272	0	25782	
1273	0	25928	
1274	0	26168	
1275	0	26528	
1276	0	26960	
1277	0	27376	
1278	0	27720	
1279	0	28108	
1280	0	28448	
1281	0	28740	
1282	0	29024	
1283	0	29328	
1284	0	29604	
1285	0	29760	
1286	0	29880	
1287	0	30016	
1288	0	30168	
1289	0	30228	
1290	0	30232	
1291	0	30252	
1292	0	30232	
1293	0	30264	
1294	0	30292	
1295	0	30298	
1296	0	30280	
1297	0	30356	
1298	0	30496	
1299	0	30648	
1300	0	30778	
1301	0	30888	
1302	0	30980	
1303	0	31072	
1304	0	31128	
1305	0	31106	
1306	0	31092	
1307	0	31096	
1308	0	31064	
1309	0	31028	
1310	0	31032	
1311	0	31036	
1312	0	31056	
1313	0	31076	
1314	0	31120	
1315	0	31112	
1316	0	31104	
1317	0	31132	
1318	0	31168	
1319	0	31200	
1320	0	31252	
1321	0	31288	
1322	0	31332	
1323	0	31344	
1324	0	31400	
1325	0	31432	
1326	0	31476	
1327	0	31528	
1328	0	31548	
1329	0	31592	
1330	0	31640	
1331	0	31716	
1332	0	31784	
1333	0	31842	
1334	0	31872	
1335	0	31832	
1336	0	31776	
1337	0	31712	
1338	0	31692	
1339	0	31696	
1340	0	31744	
1341	0	31832	
1342	0	31894	
1343	0	31960	
1344	0	32064	
1345	0	32196	
1346	0	32300	
1347	0	32372	
1348	0	32464	
1349	0	32552	
1350	0	32566	
1351	0	32516	
1352	0	32512	
1353	0	32554	
1354	0	32552	
1355	0	32576	
1356	0	32624	
1357	0	32728	
1358	0	32840	
1359	0	32960	
1360	0	33040	
1361	0	33120	
1362	0	33166	
1363	0	33224	
1364	0	33260	
1365	0	33312	
1366	0	33312	
1367	0	33308	
1368	0	33348	
1369	0	33408	
1370	0	33484	
1371	0	33432	
1372	0	33340	
1373	0	33260	
1374	0	33208	
1375	0	33188	
1376	0	33224	
1377	0	33272	
1378	0	33328	
1379	0	33490	
1380	0	33628	
1381	0	33756	
1382	0	33848	
1383	0	33908	
1384	0	33964	
1385	0	34074	
1386	0	34164	
1387	0	34216	
1388	0	34244	
1389	0	34188	
1390	0	34152	
1391	0	34176	
1392	0	34216	
1393	0	34220	
1394	0	34220	
1395	0	34168	
1396	0	34152	
1397	0	34176	
1398	0	34300	
1399	0	34404	
1400	0	34508	
1401	0	34596	
1402	0	34712	
1403	0	34824	
1404	0	34916	
1405	0	34980	
1406	0	35060	
1407	0	35172	
1408	0	35312	
1409	0	35424	
1410	0	35520	
1411	0	35544	
1412	0	35468	
1413	0	35392	
1414	0	35404	
1415	0	35468	
1416	0	35516	
1417	0	35596	
1418	0	35672	
1419	0	35732	
1420	0	35820	
1421	0	35940	
1422	0	36056	
1423	0	36112	
1424	0	36156	
1425	0	36216	
1426	0	36284	
1427	0	36352	
1428	0	36448	
1429	0	36524	
1430	0	36672	
1431	0	36788	
1432	0	36908	
1433	0	37016	
1434	0	37088	
1435	0	37164	
1436	0	37220	
1437	0	37288	
1438	0	37324	
1439	0	37384	
1440	0	37480	
1441	0	37624	
1442	0	37800	
1443	0	37914	
1444	0	38016	
1445	0	38104	
1446	0	38152	
1447	0	38216	
1448	0	38260	
1449	0	38264	
1450	0	38208	
1451	0	38168	
1452	0	38128	
1453	0	38144	
1454	0	38164	
1455	0	38224	
1456	0	38296	
1457	0	38360	
1458	0	38408	
1459	0	38480	
1460	0	38584	
1461	0	38676	
1462	0	38778	
1463	0	38900	
1464	0	38944	
1465	0	38944	
1466	0	38874	
1467	0	38780	
1468	0	38728	
1469	0	38704	
1470	0	38668	
1471	0	38608	
1472	0	38494	
1473	0	38416	
1474	0	38324	
1475	0	38260	
1476	0	38188	
1477	0	38064	
1478	0	37992	
1479	0	37964	
1480	0	37930	
1481	0	37900	
1482	0	37876	
1483	0	37788	
1484	0	37658	
1485	0	37584	
1486	0	37540	
1487	0	37476	
1488	0	37400	
1489	0	37228	
1490	0	37058	
1491	0	36844	
1492	0	36616	
1493	0	36442	
1494	0	36252	
1495	0	36008	
1496	0	35744	
1497	0	35488	
1498	0	35256	
1499	0	34996	
1500	0	34726	
1501	0	34504	
1502	0	34336	
1503	0	34100	
1504	0	33836	
1505	0	33608	
1506	0	33400	
1507	0	33216	
1508	0	33048	
1509	0	32832	
1510	0	32632	
1511	0	32432	
1512	0	32224	
1513	0	32088	
1514	0	31960	
1515	0	31816	
1516	0	31656	
1517	0	31456	
1518	0	31256	
1519	0	31040	
1520	0	30888	
1521	0	30744	
1522	0	30592	
1523	0	30504	
1524	0	30452	
1525	0	30404	
1526	0	30276	
1527	0	30128	
1528	0	29920	
1529	0	29724	
1530	0	29552	
1531	0	29384	
1532	0	29260	
1533	0	29180	
1534	0	29092	
1535	0	29036	
1536	0	28984	
1537	0	28936	
1538	0	28924	
1539	0	28928	
1540	0	28928	
1541	0	28920	
1542	0	28870	
1543	0	28856	
1544	0	28840	
1545	0	28824	
1546	0	28800	
1547	0	28740	
1548	0	28696	
1549	0	28636	
1550	0	28612	
1551	0	28564	
1552	0	28488	
1553	0	28420	
1554	0	28384	
1555	0	28392	
1556	0	28420	
1557	0	28384	
1558	0	28352	
1559	0	28348	
1560	0	28378	
1561	0	28456	
1562	0	28540	
1563	0	28588	
1564	0	28628	
1565	0	28680	
1566	0	28672	
1567	0	28640	
1568	0	28620	
1569	0	28620	
1570	0	28596	
1571	0	28592	
1572	0	28620	
1573	0	28656	
1574	0	28656	
1575	0	28668	
1576	0	28664	
1577	0	28680	
1578	0	28696	
1579	0	28748	
1580	0	28820	
1581	0	28880	
1582	0	28936	
1583	0	28976	
1584	0	28960	
1585	0	28976	
1586	0	29012	
1587	0	29024	
1588	0	29064	
1589	0	29112	
1590	0	29164	
1591	0	29216	
1592	0	29218	
1593	0	29224	
1594	0	29268	
1595	0	29344	
1596	0	29448	
1597	0	29482	
1598	0	29416	
1599	0	29348	
1600	0	29252	
1601	0	29232	
1602	0	29280	
1603	0	29336	
1604	0	29424	
1605	0	29524	
1606	0	29650	
1607	0	29818	
1608	0	29936	
1609	0	30000	
1610	0	30048	
1611	0	30102	
1612	0	30132	
1613	0	30116	
1614	0	30136	
1615	0	30202	
1616	0	30256	
1617	0	30290	
1618	0	30284	
1619	0	30292	
1620	0	30292	
1621	0	30232	
1622	0	30180	
1623	0	30156	
1624	0	30172	
1625	0	30232	
1626	0	30314	
1627	0	30420	
1628	0	30440	
1629	0	30456	
1630	0	30492	
1631	0	30572	
1632	0	30632	
1633	0	30692	
1634	0	30760	
1635	0	30836	
1636	0	30860	
1637	0	30838	
1638	0	30744	
1639	0	30752	
1640	0	30816	
1641	0	30936	
1642	0	31074	
1643	0	31144	
1644	0	31152	
1645	0	31200	
1646	0	31216	
1647	0	31196	
1648	0	31224	
1649	0	31296	
1650	0	31354	
1651	0	31350	
1652	0	31256	
1653	0	31252	
1654	0	31272	
1655	0	31248	
1656	0	31176	
1657	0	31126	
1658	0	31112	
1659	0	31136	
1660	0	31176	
1661	0	31208	
1662	0	31224	
1663	0	31252	
1664	0	31272	
1665	0	31316	
1666	0	31384	
1667	0	31464	
1668	0	31524	
1669	0	31536	
1670	0	31528	
1671	0	31536	
1672	0	31536	
1673	0	31552	
1674	0	31560	
1675	0	31524	
1676	0	31532	
1677	0	31580	
1678	0	31612	
1679	0	31624	
1680	0	31632	
1681	0	31660	
1682	0	31672	
1683	0	31680	
1684	0	31684	
1685	0	31660	
1686	0	31578	
1687	0	31488	
1688	0	31448	
1689	0	31456	
1690	0	31472	
1691	0	31456	
1692	0	31464	
1693	0	31512	
1694	0	31548	
1695	0	31564	
1696	0	31584	
1697	0	31600	
1698	0	31596	
1699	0	31608	
1700	0	31612	
1701	0	31632	
1702	0	31680	
1703	0	31724	
1704	0	31744	
1705	0	31748	
1706	0	31722	
1707	0	31632	
1708	0	31540	
1709	0	31460	
1710	0	31404	
1711	0	31352	
1712	0	31328	
1713	0	31298	
1714	0	31288	
1715	0	31276	
1716	0	31292	
1717	0	31304	
1718	0	31280	
1719	0	31300	
1720	0	31324	
1721	0	31328	
1722	0	31360	
1723	0	31404	
1724	0	31472	
1725	0	31524	
1726	0	31584	
1727	0	31572	
1728	0	31558	
1729	0	31596	
1730	0	31612	
1731	0	31572	
1732	0	31520	
1733	0	31524	
1734	0	31556	
1735	0	31612	
1736	0	31624	
1737	0	31600	
1738	0	31572	
1739	0	31596	
1740	0	31548	
1741	0	31492	
1742	0	31524	
1743	0	31580	
1744	0	31656	
1745	0	31656	
1746	0	31608	
1747	0	31580	
1748	0	31588	
1749	0	31560	
1750	0	31564	
1751	0	31576	
1752	0	31536	
1753	0	31492	
1754	0	31480	
1755	0	31484	
1756	0	31500	
1757	0	31552	
1758	0	31608	
1759	0	31668	
1760	0	31720	
1761	0	31736	
1762	0	31796	
1763	0	31832	
1764	0	31848	
1765	0	31816	
1766	0	31792	
1767	0	31776	
1768	0	31804	
1769	0	31844	
1770	0	31874	
1771	0	31912	
1772	0	31932	
1773	0	31940	
1774	0	31968	
1775	0	31968	
1776	0	31976	
1777	0	31956	
1778	0	31916	
1779	0	31872	
1780	0	31840	
1781	0	31834	
1782	0	31844	
1783	0	31868	
1784	0	31912	
1785	0	31924	
1786	0	31952	
1787	0	31992	
1788	0	32002	
1789	0	32016	
1790	0	32024	
1791	0	32024	
1792	0	31980	
1793	0	31956	
1794	0	31920	
1795	0	31872	
1796	0	31840	
1797	0	31820	
1798	0	31868	
1799	0	31936	
1800	0	31996	
1801	0	32064	
1802	0	32172	
1803	0	32224	
1804	0	32228	
1805	0	32264	
1806	0	32352	
1807	0	32440	
1808	0	32564	
1809	0	32608	
1810	0	32608	
1811	0	32584	
1812	0	32520	
1813	0	32500	
1814	0	32600	
1815	0	32702	
1816	0	32784	
1817	0	32884	
1818	0	33012	
1819	0	33096	
1820	0	33130	
1821	0	33173	
1822	0	33222	
1823	0	33184	
1824	0	33056	
1825	0	32976	
1826	0	32896	
1827	0	32792	
1828	0	32756	
1829	0	32776	
1830	0	32776	
1831	0	32800	
1832	0	32900	
1833	0	33076	
1834	0	33344	
1835	0	33672	
1836	0	33996	
1837	0	34240	
1838	0	34456	
1839	0	34624	
1840	0	34780	
1841	0	34912	
1842	0	35008	
1843	0	35084	
1844	0	35160	
1845	0	35184	
1846	0	35156	
1847	0	35056	
1848	0	34932	
1849	0	34832	
1850	0	34760	
1851	0	34696	
1852	0	34632	
1853	0	34476	
1854	0	34254	
1855	0	34024	
1856	0	33852	
1857	0	33736	
1858	0	33608	
1859	0	33444	
1860	0	33312	
1861	0	33224	
1862	0	33152	
1863	0	33040	
1864	0	32944	
1865	0	32912	
1866	0	32932	
1867	0	32968	
1868	0	32924	
1869	0	32820	
1870	0	32684	
1871	0	32596	
1872	0	32544	
1873	0	32472	
1874	0	32360	
1875	0	32236	
1876	0	32100	
1877	0	31992	
1878	0	31904	
1879	0	31832	
1880	0	31760	
1881	0	31656	
1882	0	31552	
1883	0	31452	
1884	0	31374	
1885	0	31280	
1886	0	31180	
1887	0	31152	
1888	0	31116	
1889	0	31084	
1890	0	31008	
1891	0	30912	
1892	0	30880	
1893	0	30846	
1894	0	30772	
1895	0	30708	
1896	0	30704	
1897	0	30744	
1898	0	30804	
1899	0	30800	
1900	0	30860	
1901	0	30912	
1902	0	30956	
1903	0	30996	
1904	0	31024	
1905	0	31100	
1906	0	31168	
1907	0	31182	
1908	0	31208	
1909	0	31192	
1910	0	31232	
1911	0	31240	
1912	0	31208	
1913	0	31144	
1914	0	31092	
1915	0	31072	
1916	0	31108	
1917	0	31172	
1918	0	31220	
1919	0	31248	
1920	0	31272	
1921	0	31300	
1922	0	31344	
1923	0	31384	
1924	0	31436	
1925	0	31476	
1926	0	31500	
1927	0	31500	
1928	0	31448	
1929	0	31360	
1930	0	31248	
1931	0	31092	
1932	0	30876	
1933	0	30572	
1934	0	30120	
1935	0	29512	
1936	0	28888	
1937	0	28456	
1938	0	28276	
1939	0	28224	
1940	0	28252	
1941	0	28504	
1942	0	28960	
1943	0	29616	
1944	0	30544	
1945	0	31616	
1946	0	32736	
1947	0	33956	
1948	0	35320	
1949	0	36812	
1950	0	38568	
1951	0	40586	
1952	0	42960	
1953	0	45736	
1954	0	48800	
1955	0	51948	
1956	0	54984	
1957	0	57896	
1958	0	60744	
1959	0	62844	
1960	0	63960	
1961	0	64488	
1962	0	64736	
1963	0	64816	
1964	0	64764	
1965	0	64688	
1966	0	64600	
1967	0	64044	
1968	0	58552	
1969	0	53248	
1970	0	48452	
1971	0	44408	
1972	0	41064	
1973	0	38324	
1974	0	36180	
1975	0	34388	
1976	0	32800	
1977	0	31384	
1978	0	30048	
1979	0	28728	
1980	0	27448	
1981	0	26440	
1982	0	25760	
1983	0	25380	
1984	0	25144	
1985	0	25156	
1986	0	25316	
1987	0	25476	
1988	0	25536	
1989	0	25598	
1990	0	25752	
1991	0	25940	
1992	0	26164	
1993	0	26460	
1994	0	26800	
1995	0	27112	
1996	0	27448	
1997	0	27788	
1998	0	28132	
1999	0	28442	
2000	0	28748	
2001	0	29000	
2002	0	29224	
2003	0	29392	
2004	0	29524	
2005	0	29632	
2006	0	29690	
2007	0	29744	
2008	0	29760	
2009	0	29768	
2010	0	29784	
2011	0	29784	
2012	0	29812	
2013	0	29816	
2014	0	29792	
2015	0	29816	
2016	0	29828	
2017	0	29844	
2018	0	29892	
2019	0	29972	
2020	0	30032	
2021	0	30000	
2022	0	29980	
2023	0	29944	
2024	0	29908	
2025	0	29844	
2026	0	29772	
2027	0	29772	
2028	0	29840	
2029	0	29896	
2030	0	29984	
2031	0	30080	
2032	0	30156	
2033	0	30236	
2034	0	30324	
2035	0	30412	
2036	0	30488	
2037	0	30556	
2038	0	30612	
2039	0	30654	
2040	0	30712	
2041	0	30756	
2042	0	30778	
2043	0	30784	
2044	0	30764	
2045	0	30788	
2046	0	30888	
2047	0	31000	
2048	0	31036	
2049	0	31032	
2050	0	30992	
2051	0	30992	
2052	0	31020	
2053	0	31080	
2054	0	31112	
2055	0	31120	
2056	0	31156	
2057	0	31250	
2058	0	31316	
2059	0	31344	
2060	0	31356	
2061	0	31432	
2062	0	31482	
2063	0	31532	
2064	0	31572	
2065	0	31684	
2066	0	31788	
2067	0	31876	
2068	0	31952	
2069	0	31964	
2070	0	31984	
2071	0	32000	
2072	0	31988	
2073	0	31988	
2074	0	32008	
2075	0	32024	
2076	0	32010	
2077	0	32016	
2078	0	32050	
2079	0	32088	
2080	0	32142	
2081	0	32224	
2082	0	32276	
2083	0	32320	
2084	0	32408	
2085	0	32524	
2086	0	32584	
2087	0	32620	
2088	0	32620	
2089	0	32584	
2090	0	32540	
2091	0	32524	
2092	0	32544	
2093	0	32624	
2094	0	32740	
2095	0	32808	
2096	0	32856	
2097	0	32892	
2098	0	32928	
2099	0	32992	
2100	0	33090	
2101	0	33196	
2102	0	33292	
2103	0	33360	
2104	0	33420	
2105	0	33528	
2106	0	33616	
2107	0	33680	
2108	0	33704	
2109	0	33720	
2110	0	33792	
2111	0	33856	
2112	0	33884	
2113	0	33940	
2114	0	34008	
2115	0	34052	
2116	0	34048	
2117	0	34078	
2118	0	34142	
2119	0	34196	
2120	0	34232	
2121	0	34336	
2122	0	34460	
2123	0	34540	
2124	0	34568	
2125	0	34624	
2126	0	34664	
2127	0	34680	
2128	0	34696	
2129	0	34758	
2130	0	34796	
2131	0	34832	
2132	0	34888	
2133	0	34952	
2134	0	35040	
2135	0	35112	
2136	0	35216	
2137	0	35292	
2138	0	35376	
2139	0	35468	
2140	0	35584	
2141	0	35704	
2142	0	35840	
2143	0	35952	
2144	0	36044	
2145	0	36112	
2146	0	36192	
2147	0	36332	
2148	0	36424	
2149	0	36504	
2150	0	36608	
2151	0	36680	
2152	0	36756	
2153	0	36828	
2154	0	36872	
2155	0	36928	
2156	0	37000	
2157	0	37088	
2158	0	37160	
2159	0	37260	
2160	0	37300	
2161	0	37336	
2162	0	37360	
2163	0	37448	
2164	0	37532	
2165	0	37616	
2166	0	37664	
2167	0	37664	
2168	0	37676	
2169	0	37716	
2170	0	37816	
2171	0	37924	
2172	0	37988	
2173	0	38056	
2174	0	38088	
2175	0	38052	
2176	0	38050	
2177	0	38124	
2178	0	38160	
2179	0	38216	
2180	0	38264	
2181	0	38288	
2182	0	38332	
2183	0	38336	
2184	0	38324	
2185	0	38304	
2186	0	38300	
2187	0	38292	
2188	0	38244	
2189	0	38196	
2190	0	38164	
2191	0	38168	
2192	0	38200	
2193	0	38204	
2194	0	38152	
2195	0	38068	
2196	0	37992	
2197	0	37916	
2198	0	37866	
2199	0	37796	
2200	0	37656	
2201	0	37500	
2202	0	37368	
2203	0	37296	
2204	0	37200	
2205	0	37132	
2206	0	36984	
2207	0	36772	
2208	0	36552	
2209	0	36360	
2210	0	36200	
2211	0	35992	
2212	0	35776	
2213	0	35568	
2214	0	35360	
2215	0	35114	
2216	0	34872	
2217	0	34656	
2218	0	34424	
2219	0	34180	
2220	0	33948	
2221	0	33748	
2222	0	33536	
2223	0	33292	
2224	0	32984	
2225	0	32704	
2226	0	32440	
2227	0	32148	
2228	0	31856	
2229	0	31608	
2230	0	31422	
2231	0	31264	
2232	0	31140	
2233	0	31008	
2234	0	30868	
2235	0	30704	
2236	0	30538	
2237	0	30408	
2238	0	30252	
2239	0	30108	
2240	0	29970	
2241	0	29820	
2242	0	29672	
2243	0	29520	
2244	0	29332	
2245	0	29160	
2246	0	29060	
2247	0	28968	
2248	0	28900	
2249	0	28848	
2250	0	28768	
2251	0	28716	
2252	0	28664	
2253	0	28596	
2254	0	28544	
2255	0	28496	
2256	0	28396	
2257	0	28352	
2258	0	28292	
2259	0	28208	
2260	0	28156	
2261	0	28122	
2262	0	28064	
2263	0	28000	
2264	0	27968	
2265	0	28012	
2266	0	28128	
2267	0	28188	
2268	0	28216	
2269	0	28224	
2270	0	28208	
2271	0	28180	
2272	0	28178	
2273	0	28160	
2274	0	28132	
2275	0	28088	
2276	0	28120	
2277	0	28164	
2278	0	28200	
2279	0	28264	
2280	0	28260	
2281	0	28248	
2282	0	28268	
2283	0	28320	
2284	0	28372	
2285	0	28420	
2286	0	28424	
2287	0	28396	
2288	0	28436	
2289	0	28464	
2290	0	28512	
2291	0	28524	
2292	0	28566	
2293	0	28628	
2294	0	28648	
2295	0	28642	
2296	0	28616	
2297	0	28584	
2298	0	28560	
2299	0	28608	
2300	0	28708	
2301	0	28792	
2302	0	28848	
2303	0	28864	
2304	0	28880	
2305	0	28932	
2306	0	29008	
2307	0	29068	
2308	0	29164	
2309	0	29246	
2310	0	29292	
2311	0	29336	
2312	0	29368	
2313	0	29400	
2314	0	29438	
2315	0	29488	
2316	0	29486	
2317	0	29478	
2318	0	29472	
2319	0	29492	
2320	0	29512	
2321	0	29544	
2322	0	29596	
2323	0	29676	
2324	0	29772	
2325	0	29844	
2326	0	29884	
2327	0	29896	
2328	0	29884	
2329	0	29857	
2330	0	29848	
2331	0	29820	
2332	0	29826	
2333	0	29834	
2334	0	29884	
2335	0	29968	
2336	0	30020	
2337	0	30064	
2338	0	30140	
2339	0	30260	
2340	0	30324	
2341	0	30376	
2342	0	30456	
2343	0	30528	
2344	0	30564	
2345	0	30556	
2346	0	30582	
2347	0	30596	
2348	0	30620	
2349	0	30632	
2350	0	30664	
2351	0	30684	
2352	0	30712	
2353	0	30720	
2354	0	30708	
2355	0	30700	
2356	0	30704	
2357	0	30716	
2358	0	30732	
2359	0	30752	
2360	0	30788	
2361	0	30876	
2362	0	30956	
2363	0	31040	
2364	0	31096	
2365	0	31068	
2366	0	31008	
2367	0	30936	
2368	0	30940	
2369	0	30996	
2370	0	31036	
2371	0	31076	
2372	0	31144	
2373	0	31192	
2374	0	31236	
2375	0	31264	
2376	0	31304	
2377	0	31324	
2378	0	31368	
2379	0	31384	
2380	0	31356	
2381	0	31336	
2382	0	31320	
2383	0	31320	
2384	0	31360	
2385	0	31440	
2386	0	31496	
2387	0	31533	
2388	0	31550	
2389	0	31564	
2390	0	31592	
2391	0	31560	
2392	0	31520	
2393	0	31464	
2394	0	31440	
2395	0	31448	
2396	0	31436	
2397	0	31420	
2398	0	31418	
2399	0	31408	
2400	0	31412	
2401	0	31456	
2402	0	31504	
2403	0	31532	
2404	0	31532	
2405	0	31536	
2406	0	31528	
2407	0	31540	
2408	0	31554	
2409	0	31544	
2410	0	31552	
2411	0	31576	
2412	0	31568	
2413	0	31576	
2414	0	31568	
2415	0	31564	
2416	0	31548	
2417	0	31508	
2418	0	31496	
2419	0	31492	
2420	0	31504	
2421	0	31536	
2422	0	31516	
2423	0	31456	
2424	0	31496	
2425	0	31568	
2426	0	31602	
2427	0	31632	
2428	0	31628	
2429	0	31568	
2430	0	31552	
2431	0	31532	
2432	0	31520	
2433	0	31520	
2434	0	31560	
2435	0	31612	
2436	0	31648	
2437	0	31640	
2438	0	31614	
2439	0	31608	
2440	0	31640	
2441	0	31712	
2442	0	31764	
2443	0	31728	
2444	0	31692	
2445	0	31700	
2446	0	31684	
2447	0	31692	
2448	0	31708	
2449	0	31732	
2450	0	31708	
2451	0	31672	
2452	0	31632	
2453	0	31624	
2454	0	31632	
2455	0	31604	
2456	0	31588	
2457	0	31648	
2458	0	31672	
2459	0	31676	
2460	0	31724	
2461	0	31740	
2462	0	31712	
2463	0	31704	
2464	0	31648	
2465	0	31600	
2466	0	31576	
2467	0	31624	
2468	0	31668	
2469	0	31624	
2470	0	31576	
2471	0	31552	
2472	0	31524	
2473	0	31528	
2474	0	31548	
2475	0	31584	
2476	0	31632	
2477	0	31640	
2478	0	31652	
2479	0	31692	
2480	0	31736	
2481	0	31760	
2482	0	31788	
2483	0	31824	
2484	0	31872	
2485	0	31884	
2486	0	31856	
2487	0	31840	
2488	0	31848	
2489	0	31852	
2490	0	31876	
2491	0	31864	
2492	0	31864	
2493	0	31868	
2494	0	31868	
2495	0	31832	
2496	0	31832	
2497	0	31848	
2498	0	31860	
2499	0	31884	
2500	0	31904	
2501	0	31944	
2502	0	31968	
2503	0	31980	
2504	0	31940	
2505	0	31896	
2506	0	31856	
2507	0	31840	
2508	0	31896	
2509	0	31964	
2510	0	32012	
2511	0	32008	
2512	0	32024	
2513	0	32050	
2514	0	32036	
2515	0	31980	
2516	0	31914	
2517	0	31904	
2518	0	31944	
2519	0	31992	
2520	0	32008	
2521	0	32036	
2522	0	32104	
2523	0	32188	
2524	0	32264	
2525	0	32288	
2526	0	32280	
2527	0	32248	
2528	0	32180	
2529	0	32172	
2530	0	32196	
2531	0	32196	
2532	0	32132	
2533	0	32088	
2534	0	32088	
2535	0	32108	
2536	0	32144	
2537	0	32188	
2538	0	32224	
2539	0	32236	
2540	0	32216	
2541	0	32282	
2542	0	32352	
2543	0	32358	
2544	0	32380	
2545	0	32412	
2546	0	32404	
2547	0	32384	
2548	0	32332	
2549	0	32352	
2550	0	32324	
2551	0	32332	
2552	0	32372	
2553	0	32388	
2554	0	32380	
2555	0	32352	
2556	0	32320	
2557	0	32320	
2558	0	32324	
2559	0	32384	
2560	0	32448	
2561	0	32496	
2562	0	32560	
2563	0	32624	
2564	0	32748	
2565	0	32876	
2566	0	32984	
2567	0	33036	
2568	0	33084	
2569	0	33132	
2570	0	33216	
2571	0	33304	
2572	0	33396	
2573	0	33452	
2574	0	33476	
2575	0	33461	
2576	0	33496	
2577	0	33520	
2578	0	33492	
2579	0	33448	
2580	0	33416	
2581	0	33360	
2582	0	33312	
2583	0	33290	
2584	0	33296	
2585	0	33272	
2586	0	33288	
2587	0	33316	
2588	0	33396	
2589	0	33492	
2590	0	33632	
2591	0	33876	
2592	0	34144	
2593	0	34432	
2594	0	34696	
2595	0	34898	
2596	0	35024	
2597	0	35092	
2598	0	35184	
2599	0	35280	
2600	0	35392	
2601	0	35460	
2602	0	35458	
2603	0	35354	
2604	0	35266	
2605	0	35208	
2606	0	35128	
2607	0	35052	
2608	0	34976	
2609	0	34876	
2610	0	34748	
2611	0	34562	
2612	0	34356	
2613	0	34228	
2614	0	34084	
2615	0	33952	
2616	0	33876	
2617	0	33808	
2618	0	33676	
2619	0	33572	
2620	0	33500	
2621	0	33400	
2622	0	33300	
2623	0	33256	
2624	0	33244	
2625	0	33200	
2626	0	33132	
2627	0	33060	
2628	0	33004	
2629	0	32942	
2630	0	32880	
2631	0	32816	
2632	0	32756	
2633	0	32672	
2634	0	32568	
2635	0	32428	
2636	0	32328	
2637	0	32312	
2638	0	32212	
2639	0	32048	
2640	0	31912	
2641	0	31736	
2642	0	31632	
2643	0	31532	
2644	0	31420	
2645	0	31364	
2646	0	31312	
2647	0	31276	
2648	0	31292	
2649	0	31304	
2650	0	31332	
2651	0	31376	
2652	0	31424	
2653	0	31444	
2654	0	31412	
2655	0	31440	
2656	0	31428	
2657	0	31380	
2658	0	31360	
2659	0	31328	
2660	0	31284	
2661	0	31264	
2662	0	31304	
2663	0	31368	
2664	0	31428	
2665	0	31488	
2666	0	31500	
2667	0	31496	
2668	0	31544	
2669	0	31624	
2670	0	31656	
2671	0	31716	
2672	0	31712	
2673	0	31628	
2674	0	31584	
2675	0	31604	
2676	0	31648	
2677	0	31712	
2678	0	31752	
2679	0	31762	
2680	0	31768	
2681	0	31802	
2682	0	31836	
2683	0	31856	
2684	0	31868	
2685	0	31872	
2686	0	31824	
2687	0	31720	
2688	0	31528	
2689	0	31252	
2690	0	30880	
2691	0	30344	
2692	0	29668	
2693	0	29120	
2694	0	28756	
2695	0	28568	
2696	0	28596	
2697	0	28800	
2698	0	29184	
2699	0	29744	
2700	0	30500	
2701	0	31512	
2702	0	32764	
2703	0	34148	
2704	0	35700	
2705	0	37304	
2706	0	39000	
2707	0	41032	
2708	0	43296	
2709	0	46008	
2710	0	49152	
2711	0	52360	
2712	0	55396	
2713	0	58264	
2714	0	60992	
2715	0	63144	
2716	0	64296	
2717	0	64856	
2718	0	65096	
2719	0	65176	
2720	0	65152	
2721	0	65088	
2722	0	64976	
2723	0	64868	
2724	0	64744	
2725	0	63248	
2726	0	57880	
2727	0	53408	
2728	0	49656	
2729	0	46468	
2730	0	43768	
2731	0	41384	
2732	0	39112	
2733	0	37020	
2734	0	35208	
2735	0	33708	
2736	0	32436	
2737	0	31300	
2738	0	30294	
2739	0	29456	
2740	0	28888	
2741	0	28536	
2742	0	28340	
2743	0	28322	
2744	0	28346	
2745	0	28260	
2746	0	28076	
2747	0	27876	
2748	0	27733	
2749	0	27642	
2750	0	27692	
2751	0	27828	
2752	0	28032	
2753	0	28276	
2754	0	28524	
2755	0	28696	
2756	0	28800	
2757	0	28900	
2758	0	29006	
2759	0	29060	
2760	0	29028	
2761	0	28992	
2762	0	28928	
2763	0	28894	
2764	0	28900	
2765	0	28944	
2766	0	28948	
2767	0	28968	
2768	0	28992	
2769	0	29000	
2770	0	28988	
2771	0	28968	
2772	0	29000	
2773	0	29040	
2774	0	29092	
2775	0	29092	
2776	0	29092	
2777	0	29104	
2778	0	29104	
2779	0	29128	
2780	0	29168	
2781	0	29208	
2782	0	29236	
2783	0	29280	
2784	0	29328	
2785	0	29396	
2786	0	29456	
2787	0	29496	
2788	0	29532	
2789	0	29528	
2790	0	29554	
2791	0	29620	
2792	0	29688	
2793	0	29740	
2794	0	29740	
2795	0	29722	
2796	0	29688	
2797	0	29728	
2798	0	29800	
2799	0	29832	
2800	0	29880	
2801	0	29896	
2802	0	29888	
2803	0	29960	
2804	0	30072	
2805	0	30176	
2806	0	30274	
2807	0	30376	
2808	0	30456	
2809	0	30488	
2810	0	30536	
2811	0	30568	
2812	0	30576	
2813	0	30582	
2814	0	30624	
2815	0	30656	
2816	0	30676	
2817	0	30720	
2818	0	30736	
2819	0	30744	
2820	0	30796	
2821	0	30884	
2822	0	30914	
2823	0	30952	
2824	0	31016	
2825	0	31076	
2826	0	31104	
2827	0	31088	
2828	0	31120	
2829	0	31152	
2830	0	31156	
2831	0	31156	
2832	0	31208	
2833	0	31252	
2834	0	31296	
2835	0	31332	
2836	0	31396	
2837	0	31474	
2838	0	31588	
2839	0	31676	
2840	0	31748	
2841	0	31834	
2842	0	31928	
2843	0	31964	
2844	0	32000	
2845	0	32064	
2846	0	32124	
2847	0	32192	
2848	0	32224	
2849	0	32216	
2850	0	32216	
2851	0	32260	
2852	0	32256	
2853	0	32280	
2854	0	32290	
2855	0	32288	
2856	0	32344	
2857	0	32432	
2858	0	32512	
2859	0	32576	
2860	0	32640	
2861	0	32700	
2862	0	32788	
2863	0	32866	
2864	0	32964	
2865	0	33060	
2866	0	33160	
2867	0	33224	
2868	0	33264	
2869	0	33300	
2870	0	33344	
2871	0	33376	
2872	0	33412	
2873	0	33418	
2874	0	33444	
2875	0	33452	
2876	0	33456	
2877	0	33512	
2878	0	33584	
2879	0	33682	
2880	0	33776	
2881	0	33894	
2882	0	34008	
2883	0	34126	
2884	0	34204	
2885	0	34280	
2886	0	34340	
2887	0	34412	
2888	0	34492	
2889	0	34544	
2890	0	34620	
2891	0	34684	
2892	0	34736	
2893	0	34768	
2894	0	34852	
2895	0	34912	
2896	0	34948	
2897	0	35008	
2898	0	35100	
2899	0	35192	
2900	0	35264	
2901	0	35322	
2902	0	35380	
2903	0	35432	
2904	0	35488	
2905	0	35636	
2906	0	35808	
2907	0	35960	
2908	0	36076	
2909	0	36160	
2910	0	36216	
2911	0	36272	
2912	0	36364	
2913	0	36440	
2914	0	36568	
2915	0	36652	
2916	0	36720	
2917	0	36784	
2918	0	36880	
2919	0	36976	
2920	0	37088	
2921	0	37184	
2922	0	37296	
2923	0	37416	
2924	0	37516	
2925	0	37528	
2926	0	37548	
2927	0	37576	
2928	0	37656	
2929	0	37748	
2930	0	37800	
2931	0	37824	
2932	0	37824	
2933	0	37780	
2934	0	37800	
2935	0	37840	
2936	0	37836	
2937	0	37796	
2938	0	37786	
2939	0	37808	
2940	0	37804	
2941	0	37792	
2942	0	37816	
2943	0	37868	
2944	0	37920	
2945	0	37940	
2946	0	37988	
2947	0	38036	
2948	0	38016	
2949	0	37984	
2950	0	37994	
2951	0	37966	
2952	0	37956	
2953	0	37940	
2954	0	37928	
2955	0	37880	
2956	0	37844	
2957	0	37764	
2958	0	37696	
2959	0	37530	
2960	0	37370	
2961	0	37260	
2962	0	37172	
2963	0	37080	
2964	0	36936	
2965	0	36764	
2966	0	36600	
2967	0	36452	
2968	0	36252	
2969	0	36048	
2970	0	35832	
2971	0	35576	
2972	0	35328	
2973	0	35056	
2974	0	34824	
2975	0	34592	
2976	0	34348	
2977	0	34104	
2978	0	33888	
2979	0	33714	
2980	0	33576	
2981	0	33388	
2982	0	33208	
2983	0	32980	
2984	0	32776	
2985	0	32572	
2986	0	32344	
2987	0	32160	
2988	0	31968	
2989	0	31732	
2990	0	31512	
2991	0	31296	
2992	0	31080	
2993	0	30852	
2994	0	30696	
2995	0	30516	
2996	0	30272	
2997	0	30084	
2998	0	29952	
2999	0	29800	
3000	0	29608	
3001	0	29444	
3002	0	29336	
3003	0	29268	
3004	0	29176	
3005	0	29080	
3006	0	29052	
3007	0	29010	
3008	0	28976	
3009	0	28944	
3010	0	28868	
3011	0	28784	
3012	0	28704	
3013	0	28634	
3014	0	28556	
3015	0	28484	
3016	0	28442	
3017	0	28392	
3018	0	28352	
3019	0	28324	
3020	0	28324	
3021	0	28322	
3022	0	28270	
3023	0	28248	
3024	0	28284	
3025	0	28296	
3026	0	28304	
3027	0	28312	
3028	0	28336	
3029	0	28350	
3030	0	28344	
3031	0	28316	
3032	0	28296	
3033	0	28284	
3034	0	28272	
3035	0	28284	
3036	0	28280	
3037	0	28264	
3038	0	28312	
3039	0	28400	
3040	0	28440	
3041	0	28480	
3042	0	28536	
3043	0	28604	
3044	0	28652	
3045	0	28664	
3046	0	28684	
3047	0	28688	
3048	0	28700	
3049	0	28736	
3050	0	28808	
3051	0	28892	
3052	0	28904	
3053	0	28928	
3054	0	28936	
3055	0	28956	
3056	0	29024	
3057	0	29096	
3058	0	29152	
3059	0	29204	
3060	0	29248	
3061	0	29310	
3062	0	29400	
3063	0	29448	
3064	0	29492	
3065	0	29530	
3066	0	29572	
3067	0	29592	
3068	0	29636	
3069	0	29612	
3070	0	29604	
3071	0	29622	
3072	0	29652	
3073	0	29664	
3074	0	29684	
3075	0	29720	
3076	0	29764	
3077	0	29796	
3078	0	29848	
3079	0	29914	
3080	0	29960	
3081	0	30016	
3082	0	30056	
3083	0	30108	
3084	0	30160	
3085	0	30204	
3086	0	30180	
3087	0	30156	
3088	0	30160	
3089	0	30164	
3090	0	30172	
3091	0	30172	
3092	0	30228	
3093	0	30304	
3094	0	30348	
3095	0	30324	
3096	0	30272	
3097	0	30264	
3098	0	30302	
3099	0	30376	
3100	0	30480	
3101	0	30596	
3102	0	30700	
3103	0	30728	
3104	0	30718	
3105	0	30732	
3106	0	30768	
3107	0	30792	
3108	0	30844	
3109	0	30884	
3110	0	30884	
3111	0	30856	
3112	0	30826	
3113	0	30848	
3114	0	30856	
3115	0	30900	
3116	0	30938	
3117	0	30924	
3118	0	30928	
3119	0	30984	
3120	0	31000	
3121	0	30992	
3122	0	30968	
3123	0	31000	
3124	0	31092	
3125	0	31162	
3126	0	31212	
3127	0	31244	
3128	0	31266	
3129	0	31304	
3130	0	31332	
3131	0	31376	
3132	0	31388	
3133	0	31396	
3134	0	31384	
3135	0	31380	
3136	0	31360	
3137	0	31364	
3138	0	31400	
3139	0	31408	
3140	0	31442	
3141	0	31504	
3142	0	31524	
3143	0	31536	
3144	0	31556	
3145	0	31596	
3146	0	31648	
3147	0	31668	
3148	0	31640	
3149	0	31616	
3150	0	31592	
3151	0	31576	
3152	0	31588	
3153	0	31604	
3154	0	31600	
3155	0	31600	
3156	0	31652	
3157	0	31644	
3158	0	31590	
3159	0	31544	
3160	0	31554	
3161	0	31620	
3162	0	31692	
3163	0	31736	
3164	0	31768	
3165	0	31784	
3166	0	31764	
3167	0	31752	
3168	0	31784	
3169	0	31844	
3170	0	31868	
3171	0	31864	
3172	0	31808	
3173	0	31784	
3174	0	31748	
3175	0	31720	
3176	0	31692	
3177	0	31684	
3178	0	31720	
3179	0	31764	
3180	0	31776	
3181	0	31792	
3182	0	31808	
3183	0	31800	
3184	0	31826	
3185	0	31840	
3186	0	31857	
3187	0	31872	
3188	0	31864	
3189	0	31840	
3190	0	31840	
3191	0	31820	
3192	0	31820	
3193	0	31828	
3194	0	31840	
3195	0	31808	
3196	0	31800	
3197	0	31802	
3198	0	31824	
3199	0	31828	
3200	0	31836	
3201	0	31840	
3202	0	31872	
3203	0	31924	
3204	0	31992	
3205	0	32032	
3206	0	32048	
3207	0	32086	
3208	0	32104	
3209	0	32108	
3210	0	32048	
3211	0	31992	
3212	0	31944	
3213	0	31900	
3214	0	31880	
3215	0	31864	
3216	0	31880	
3217	0	31912	
3218	0	31916	
3219	0	31908	
3220	0	31944	
3221	0	31972	
3222	0	32016	
3223	0	32040	
3224	0	32064	
3225	0	32072	
3226	0	32048	
3227	0	32020	
3228	0	32052	
3229	0	32032	
3230	0	32028	
3231	0	32032	
3232	0	32048	
3233	0	32056	
3234	0	32060	
3235	0	32032	
3236	0	32008	
3237	0	31992	
3238	0	31992	
3239	0	32008	
3240	0	32036	
3241	0	32092	
3242	0	32124	
3243	0	32124	
3244	0	32112	
3245	0	32120	
3246	0	32122	
3247	0	32104	
3248	0	32096	
3249	0	32048	
3250	0	32034	
3251	0	32096	
3252	0	32132	
3253	0	32120	
3254	0	32096	
3255	0	32088	
3256	0	32069	
3257	0	32064	
3258	0	32090	
3259	0	32124	
3260	0	32124	
3261	0	32124	
3262	0	32140	
3263	0	32172	
3264	0	32212	
3265	0	32256	
3266	0	32280	
3267	0	32276	
3268	0	32240	
3269	0	32236	
3270	0	32216	
3271	0	32200	
3272	0	32216	
3273	0	32208	
3274	0	32208	
3275	0	32224	
3276	0	32208	
3277	0	32200	
3278	0	32184	
3279	0	32168	
3280	0	32140	
3281	0	32136	
3282	0	32132	
3283	0	32186	
3284	0	32208	
3285	0	32224	
3286	0	32260	
3287	0	32296	
3288	0	32304	
3289	0	32308	
3290	0	32256	
3291	0	32220	
3292	0	32212	
3293	0	32212	
3294	0	32216	
3295	0	32218	
3296	0	32200	
3297	0	32188	
3298	0	32220	
3299	0	32256	
3300	0	32312	
3301	0	32336	
3302	0	32338	
3303	0	32328	
3304	0	32340	
3305	0	32344	
3306	0	32372	
3307	0	32384	
3308	0	32392	
3309	0	32388	
3310	0	32404	
3311	0	32408	
3312	0	32396	
3313	0	32392	
3314	0	32396	
3315	0	32416	
3316	0	32428	
3317	0	32444	
3318	0	32476	
3319	0	32488	
3320	0	32456	
3321	0	32472	
3322	0	32480	
3323	0	32506	
3324	0	32596	
3325	0	32654	
3326	0	32616	
3327	0	32560	
3328	0	32540	
3329	0	32464	
3330	0	32384	
3331	0	32340	
3332	0	32308	
3333	0	32232	
3334	0	32184	
3335	0	32224	
3336	0	32248	
3337	0	32260	
3338	0	32304	
3339	0	32372	
3340	0	32484	
3341	0	32532	
3342	0	32592	
3343	0	32636	
3344	0	32640	
3345	0	32628	
3346	0	32660	
3347	0	32684	
3348	0	32700	
3349	0	32680	
3350	0	32592	
3351	0	32544	
3352	0	32568	
3353	0	32620	
3354	0	32656	
3355	0	32648	
3356	0	32580	
3357	0	32560	
3358	0	32560	
3359	0	32628	
3360	0	32680	
3361	0	32628	
3362	0	32588	
3363	0	32634	
3364	0	32680	
3365	0	32754	
3366	0	32808	
3367	0	32864	
3368	0	32908	
3369	0	32928	
3370	0	32924	
3371	0	32936	
3372	0	32988	
3373	0	32988	
3374	0	33012	
3375	0	33028	
3376	0	32984	
3377	0	32928	
3378	0	32876	
3379	0	32836	
3380	0	32832	
3381	0	32896	
3382	0	32940	
3383	0	32972	
3384	0	33008	
3385	0	33016	
3386	0	33050	
3387	0	33062	
3388	0	33072	
3389	0	33128	
3390	0	33240	
3391	0	33364	
3392	0	33420	
3393	0	33472	
3394	0	33520	
3395	0	33550	
3396	0	33588	
3397	0	33638	
3398	0	33688	
3399	0	33704	
3400	0	33736	
3401	0	33804	
3402	0	33844	
3403	0	33884	
3404	0	33860	
3405	0	33788	
3406	0	33728	
3407	0	33676	
3408	0	33682	
3409	0	33704	
3410	0	33668	
3411	0	33628	
3412	0	33626	
3413	0	33652	
3414	0	33664	
3415	0	33736	
3416	0	33904	
3417	0	34152	
3418	0	34432	
3419	0	34768	
3420	0	35064	
3421	0	35242	
3422	0	35364	
3423	0	35502	
3424	0	35632	
3425	0	35728	
3426	0	35818	
3427	0	35876	
3428	0	35848	
3429	0	35792	
3430	0	35660	
3431	0	35500	
3432	0	35306	
3433	0	35180	
3434	0	35124	
3435	0	35016	
3436	0	34808	
3437	0	34616	
3438	0	34454	
3439	0	34290	
3440	0	34204	
3441	0	34182	
3442	0	34140	
3443	0	34076	
3444	0	33908	
3445	0	33736	
3446	0	33650	
3447	0	33616	
3448	0	33584	
3449	0	33520	
3450	0	33468	
3451	0	33424	
3452	0	33324	
3453	0	33240	
3454	0	33176	
3455	0	33120	
3456	0	33116	
3457	0	33096	
3458	0	33056	
3459	0	32992	
3460	0	32908	
3461	0	32832	
3462	0	32744	
3463	0	32624	
3464	0	32500	
3465	0	32388	
3466	0	32228	
3467	0	32100	
3468	0	31996	
3469	0	31900	
3470	0	31812	
3471	0	31736	
3472	0	31684	
3473	0	31632	
3474	0	31544	
3475	0	31492	
3476	0	31512	
3477	0	31500	
3478	0	31452	
3479	0	31424	
3480	0	31416	
3481	0	31464	
3482	0	31482	
3483	0	31540	
3484	0	31568	
3485	0	31604	
3486	0	31604	
3487	0	31600	
3488	0	31600	
3489	0	31604	
3490	0	31608	
3491	0	31632	
3492	0	31668	
3493	0	31708	
3494	0	31712	
3495	0	31692	
3496	0	31676	
3497	0	31688	
3498	0	31716	
3499	0	31764	
3500	0	31800	
3501	0	31808	
3502	0	31840	
3503	0	31904	
3504	0	31976	
3505	0	32016	
3506	0	32000	
3507	0	32012	
3508	0	32076	
3509	0	32096	
3510	0	32060	
3511	0	32012	
3512	0	31916	
3513	0	31756	
3514	0	31512	
3515	0	31136	
3516	0	30608	
3517	0	29908	
3518	0	29314	
3519	0	28924	
3520	0	28704	
3521	0	28648	
3522	0	28756	
3523	0	29040	
3524	0	29572	
3525	0	30204	
3526	0	31180	
3527	0	32368	
3528	0	33676	
3529	0	35128	
3530	0	36744	
3531	0	38384	
3532	0	40276	
3533	0	42456	
3534	0	44968	
3535	0	48020	
3536	0	51224	
3537	0	54380	
3538	0	57440	
3539	0	60292	
3540	0	62708	
3541	0	64040	
3542	0	64692	
3543	0	64996	
3544	0	65088	
3545	0	65072	
3546	0	65012	
3547	0	64928	
3548	0	64808	
3549	0	64688	
3550	0	64576	
3551	0	62468	
3552	0	57400	
3553	0	53348	
3554	0	49956	
3555	0	47040	
3556	0	44528	
3557	0	42172	
3558	0	39970	
3559	0	38050	
3560	0	36456	
3561	0	35092	
3562	0	33848	
3563	0	32752	
3564	0	31776	
3565	0	31024	
3566	0	30436	
3567	0	29984	
3568	0	29664	
3569	0	29464	
3570	0	29202	
3571	0	28780	
3572	0	28398	
3573	0	28084	
3574	0	27908	
3575	0	27892	
3576	0	27936	
3577	0	28032	
3578	0	28220	
3579	0	28444	
3580	0	28628	
3581	0	28748	
3582	0	28820	
3583	0	28884	
3584	0	28880	
3585	0	28880	
3586	0	28872	
3587	0	28852	
3588	0	28832	
3589	0	28796	
3590	0	28728	
3591	0	28692	
3592	0	28696	
3593	0	28640	
3594	0	28576	
3595	0	28560	
3596	0	28596	
3597	0	28648	
3598	0	28704	
3599	0	28732	
3600	0	28732	
3601	0	28724	
3602	0	28724	
3603	0	28756	
3604	0	28796	
3605	0	28860	
3606	0	28908	
3607	0	28948	
3608	0	28980	
3609	0	29008	
3610	0	29040	
3611	0	29080	
3612	0	29124	
3613	0	29124	
3614	0	29148	
3615	0	29164	
3616	0	29188	
3617	0	29224	
3618	0	29280	
3619	0	29296	
3620	0	29316	
3621	0	29380	
3622	0	29472	
3623	0	29516	
3624	0	29592	
3625	0	29664	
3626	0	29712	
3627	0	29740	
3628	0	29788	
3629	0	29840	
3630	0	29892	
3631	0	29912	
3632	0	29848	
3633	0	29832	
3634	0	29908	
3635	0	29984	
3636	0	30024	
3637	0	30076	
3638	0	30132	
3639	0	30172	
3640	0	30218	
3641	0	30276	
3642	0	30336	
3643	0	30388	
3644	0	30436	
3645	0	30484	
3646	0	30508	
3647	0	30572	
3648	0	30664	
3649	0	30720	
3650	0	30760	
3651	0	30816	
3652	0	30852	
3653	0	30876	
3654	0	30920	
3655	0	30964	
3656	0	31032	
3657	0	31072	
3658	0	31132	
3659	0	31176	
3660	0	31212	
3661	0	31284	
3662	0	31352	
3663	0	31384	
3664	0	31420	
3665	0	31476	
3666	0	31536	
3667	0	31584	
3668	0	31632	
3669	0	31664	
3670	0	31702	
3671	0	31696	
3672	0	31680	
3673	0	31720	
3674	0	31788	
3675	0	31856	
3676	0	31872	
3677	0	31896	
3678	0	31924	
3679	0	31956	
3680	0	32026	
3681	0	32112	
3682	0	32240	
3683	0	32320	
3684	0	32304	
3685	0	32336	
3686	0	32410	
3687	0	32428	
3688	0	32456	
3689	0	32508	
3690	0	32548	
3691	0	32588	
3692	0	32632	
3693	0	32680	
3694	0	32796	
3695	0	32896	
3696	0	32960	
3697	0	33024	
3698	0	33044	
3699	0	33100	
3700	0	33156	
3701	0	33256	
3702	0	33360	
3703	0	33472	
3704	0	33560	
3705	0	33640	
3706	0	33720	
3707	0	33788	
3708	0	33840	
3709	0	33896	
3710	0	33934	
3711	0	34016	
3712	0	34112	
3713	0	34200	
3714	0	34276	
3715	0	34344	
3716	0	34436	
3717	0	34512	
3718	0	34572	
3719	0	34628	
3720	0	34656	
3721	0	34704	
3722	0	34808	
3723	0	34888	
3724	0	34964	
3725	0	35032	
3726	0	35112	
3727	0	35248	
3728	0	35348	
3729	0	35404	
3730	0	35504	
3731	0	35628	
3732	0	35782	
3733	0	35932	
3734	0	36040	
3735	0	36036	
3736	0	35980	
3737	0	36024	
3738	0	36138	
3739	0	36250	
3740	0	36352	
3741	0	36456	
3742	0	36574	
3743	0	36656	
3744	0	36762	
3745	0	36844	
3746	0	36922	
3747	0	37016	
3748	0	37092	
3749	0	37176	
3750	0	37272	
3751	0	37324	
3752	0	37328	
3753	0	37324	
3754	0	37340	
3755	0	37372	
3756	0	37392	
3757	0	37436	
3758	0	37476	
3759	0	37532	
3760	0	37612	
3761	0	37664	
3762	0	37704	
3763	0	37744	
3764	0	37776	
3765	0	37864	
3766	0	37912	
3767	0	37928	
3768	0	37920	
3769	0	37924	
3770	0	37956	
3771	0	37998	
3772	0	37980	
3773	0	37972	
3774	0	38004	
3775	0	38016	
3776	0	37992	
3777	0	37960	
3778	0	37916	
3779	0	37900	
3780	0	37904	
3781	0	37912	
3782	0	37888	
3783	0	37828	
3784	0	37772	
3785	0	37684	
3786	0	37628	
3787	0	37540	
3788	0	37440	
3789	0	37330	
3790	0	37204	
3791	0	37040	
3792	0	36836	
3793	0	36688	
3794	0	36532	
3795	0	36312	
3796	0	36080	
3797	0	35884	
3798	0	35696	
3799	0	35476	
3800	0	35232	
3801	0	35048	
3802	0	34880	
3803	0	34612	
3804	0	34308	
3805	0	34080	
3806	0	33850	
3807	0	33640	
3808	0	33442	
3809	0	33216	
3810	0	32960	
3811	0	32684	
3812	0	32424	
3813	0	32196	
3814	0	31988	
3815	0	31804	
3816	0	31600	
3817	0	31364	
3818	0	31140	
3819	0	30964	
3820	0	30826	
3821	0	30676	
3822	0	30576	
3823	0	30450	
3824	0	30332	
3825	0	30204	
3826	0	30080	
3827	0	29988	
3828	0	29888	
3829	0	29746	
3830	0	29568	
3831	0	29396	
3832	0	29258	
3833	0	29130	
3834	0	29016	
3835	0	28920	
3836	0	28832	
3837	0	28760	
3838	0	28744	
3839	0	28720	
3840	0	28644	
3841	0	28556	
3842	0	28524	
3843	0	28506	
3844	0	28460	
3845	0	28432	
3846	0	28468	
3847	0	28440	
3848	0	28404	
3849	0	28396	
3850	0	28336	
3851	0	28284	
3852	0	28312	
3853	0	28384	
3854	0	28416	
3855	0	28352	
3856	0	28284	
3857	0	28282	
3858	0	28312	
3859	0	28292	
3860	0	28280	
3861	0	28284	
3862	0	28312	
3863	0	28380	
3864	0	28432	
3865	0	28456	
3866	0	28468	
3867	0	28492	
3868	0	28520	
3869	0	28496	
3870	0	28564	
3871	0	28596	
3872	0	28588	
3873	0	28630	
3874	0	28708	
3875	0	28756	
3876	0	28772	
3877	0	28828	
3878	0	28866	
3879	0	28916	
3880	0	28928	
3881	0	29028	
3882	0	29112	
3883	0	29144	
3884	0	29168	
3885	0	29208	
3886	0	29248	
3887	0	29292	
3888	0	29360	
3889	0	29349	
3890	0	29352	
3891	0	29412	
3892	0	29486	
3893	0	29520	
3894	0	29500	
3895	0	29464	
3896	0	29500	
3897	0	29568	
3898	0	29640	
3899	0	29648	
3900	0	29600	
3901	0	29564	
3902	0	29548	
3903	0	29624	
3904	0	29732	
3905	0	29844	
3906	0	29928	
3907	0	30016	
3908	0	30080	
3909	0	30100	
3910	0	30146	
3911	0	30208	
3912	0	30244	
3913	0	30312	
3914	0	30344	
3915	0	30356	
3916	0	30332	
3917	0	30300	
3918	0	30232	
3919	0	30254	
3920	0	30304	
3921	0	30408	
3922	0	30468	
3923	0	30524	
3924	0	30517	
3925	0	30560	
3926	0	30600	
3927	0	30558	
3928	0	30544	
3929	0	30564	
3930	0	30620	
3931	0	30656	
3932	0	30652	
3933	0	30648	
3934	0	30716	
3935	0	30804	
3936	0	30836	
3937	0	30856	
3938	0	30836	
3939	0	30880	
3940	0	30906	
3941	0	30924	
3942	0	31000	
3943	0	31048	
3944	0	31080	
3945	0	31136	
3946	0	31140	
3947	0	31176	
3948	0	31200	
3949	0	31192	
3950	0	31168	
3951	0	31180	
3952	0	31204	
3953	0	31232	
3954	0	31256	
3955	0	31234	
3956	0	31212	
3957	0	31188	
3958	0	31196	
3959	0	31212	
3960	0	31240	
3961	0	31276	
3962	0	31312	
3963	0	31368	
3964	0	31448	
3965	0	31460	
3966	0	31482	
3967	0	31500	
3968	0	31528	
3969	0	31512	
3970	0	31504	
3971	0	31560	
3972	0	31572	
3973	0	31580	
3974	0	31610	
3975	0	31608	
3976	0	31588	
3977	0	31608	
3978	0	31672	
3979	0	31716	
3980	0	31720	
3981	0	31724	
3982	0	31776	
3983	0	31812	
3984	0	31824	
3985	0	31848	
3986	0	31852	
3987	0	31832	
3988	0	31832	
3989	0	31796	
3990	0	31792	
3991	0	31856	
3992	0	31924	
3993	0	31932	
3994	0	31920	
3995	0	31916	
3996	0	31896	
3997	0	31900	
3998	0	31900	
3999	0	31908	
4000	0	31936	
4001	0	31970	
4002	0	32024	
4003	0	32088	
4004	0	32148	
4005	0	32132	
4006	0	32130	
4007	0	32088	
4008	0	32062	
4009	0	32016	
4010	0	31964	
4011	0	31936	
4012	0	31944	
4013	0	31968	
4014	0	31968	
4015	0	31980	
4016	0	31968	
4017	0	31956	
4018	0	31976	
4019	0	32020	
4020	0	32032	
4021	0	32042	
4022	0	32052	
4023	0	32040	
4024	0	32044	
4025	0	32068	
4026	0	32140	
4027	0	32168	
4028	0	32156	
4029	0	32144	
4030	0	32122	
4031	0	32036	
4032	0	31988	
4033	0	31956	
4034	0	31952	
4035	0	31984	
4036	0	32036	
4037	0	32068	
4038	0	32016	
4039	0	31968	
4040	0	31932	
4041	0	31944	
4042	0	31948	
4043	0	31940	
4044	0	31968	
4045	0	32000	
4046	0	32034	
4047	0	32034	
4048	0	32024	
4049	0	32028	
4050	0	32060	
4051	0	32112	
4052	0	32156	
4053	0	32152	
4054	0	32132	
4055	0	32120	
4056	0	32112	
4057	0	32096	
4058	0	32096	
4059	0	32112	
4060	0	32098	
4061	0	32120	
4062	0	32156	
4063	0	32200	
4064	0	32316	
4065	0	32386	
4066	0	32360	
4067	0	32320	
4068	0	32240	
4069	0	32204	
4070	0	32140	
4071	0	32064	
4072	0	32096	
4073	0	32164	
4074	0	32204	
4075	0	32192	
4076	0	32224	
4077	0	32216	
4078	0	32232	
4079	0	32280	
4080	0	32312	
4081	0	32352	
4082	0	32412	
4083	0	32444	
4084	0	32450	
4085	0	32428	
4086	0	32396	
4087	0	32376	
4088	0	32373	
4089	0	32372	
4090	0	32344	
4091	0	32312	
4092	0	32268	
4093	0	32224	
4094	0	32236	
4095	0	32248	
4096	0	32220	
4097	0	32212	
4098	0	32224	
4099	0	32266	
4100	0	32276	
4101	0	32252	
4102	0	32248	
4103	0	32328	
4104	0	32400	
4105	0	32440	
4106	0	32412	
4107	0	32388	
4108	0	32384	
4109	0	32364	
4110	0	32416	
4111	0	32474	
4112	0	32494	
4113	0	32524	
4114	0	32512	
4115	0	32504	
4116	0	32500	
4117	0	32496	
4118	0	32484	
4119	0	32472	
4120	0	32472	
4121	0	32512	
4122	0	32558	
4123	0	32600	
4124	0	32624	
4125	0	32656	
4126	0	32644	
4127	0	32592	
4128	0	32576	
4129	0	32576	
4130	0	32580	
4131	0	32564	
4132	0	32530	
4133	0	32528	
4134	0	32520	
4135	0	32520	
4136	0	32500	
4137	0	32496	
4138	0	32480	
4139	0	32504	
4140	0	32492	
4141	0	32464	
4142	0	32492	
4143	0	32540	
4144	0	32552	
4145	0	32568	
4146	0	32564	
4147	0	32536	
4148	0	32520	
4149	0	32508	
4150	0	32480	
4151	0	32448	
4152	0	32432	
4153	0	32452	
4154	0	32424	
4155	0	32400	
4156	0	32424	
4157	0	32444	
4158	0	32452	
4159	0	32452	
4160	0	32460	
4161	0	32480	
4162	0	32548	
4163	0	32640	
4164	0	32632	
4165	0	32604	
4166	0	32600	
4167	0	32636	
4168	0	32648	
4169	0	32648	
4170	0	32640	
4171	0	32664	
4172	0	32624	
4173	0	32584	
4174	0	32612	
4175	0	32632	
4176	0	32624	
4177	0	32616	
4178	0	32628	
4179	0	32652	
4180	0	32696	
4181	0	32760	
4182	0	32824	
4183	0	32812	
4184	0	32776	
4185	0	32820	
4186	0	32844	
4187	0	32824	
4188	0	32736	
4189	0	32676	
4190	0	32676	
4191	0	32688	
4192	0	32684	
4193	0	32712	
4194	0	32732	
4195	0	32740	
4196	0	32776	
4197	0	32752	
4198	0	32736	
4199	0	32752	
4200	0	32774	
4201	0	32804	
4202	0	32860	
4203	0	32928	
4204	0	33000	
4205	0	32986	
4206	0	32976	
4207	0	32972	
4208	0	32964	
4209	0	32984	
4210	0	33028	
4211	0	33008	
4212	0	32976	
4213	0	32924	
4214	0	32880	
4215	0	32888	
4216	0	32912	
4217	0	32868	
4218	0	32864	
4219	0	32892	
4220	0	32932	
4221	0	32940	
4222	0	32954	
4223	0	32980	
4224	0	33024	
4225	0	33056	
4226	0	33064	
4227	0	33072	
4228	0	33044	
4229	0	32992	
4230	0	32948	
4231	0	32940	
4232	0	32916	
4233	0	32904	
4234	0	32888	
4235	0	32900	
4236	0	32944	
4237	0	33016	
4238	0	33000	
4239	0	33016	
4240	0	32996	
4241	0	32968	
4242	0	32960	
4243	0	32992	
4244	0	32972	
4245	0	32952	
4246	0	32964	
4247	0	32988	
4248	0	32984	
4249	0	32992	
4250	0	32992	
4251	0	32980	
4252	0	32984	
4253	0	32992	
4254	0	32994	
4255	0	33064	
4256	0	33152	
4257	0	33248	
4258	0	33276	
4259	0	33320	
4260	0	33400	
4261	0	33492	
4262	0	33568	
4263	0	33620	
4264	0	33672	
4265	0	33680	
4266	0	33760	
4267	0	33816	
4268	0	33848	
4269	0	33872	
4270	0	33896	
4271	0	33904	
4272	0	33924	
4273	0	33996	
4274	0	34000	
4275	0	33924	
4276	0	33836	
4277	0	33748	
4278	0	33668	
4279	0	33632	
4280	0	33628	
4281	0	33684	
4282	0	33700	
4283	0	33700	
4284	0	33712	
4285	0	33756	
4286	0	33860	
4287	0	34024	
4288	0	34228	
4289	0	34508	
4290	0	34808	
4291	0	35070	
4292	0	35300	
4293	0	35412	
4294	0	35528	
4295	0	35722	
4296	0	35880	
4297	0	36032	
4298	0	36096	
4299	0	36090	
4300	0	36004	
4301	0	35872	
4302	0	35732	
4303	0	35656	
4304	0	35596	
4305	0	35544	
4306	0	35468	
4307	0	35336	
4308	0	35196	
4309	0	35048	
4310	0	34832	
4311	0	34616	
4312	0	34456	
4313	0	34388	
4314	0	34296	
4315	0	34160	
4316	0	34032	
4317	0	33884	
4318	0	33744	
4319	0	33620	
4320	0	33576	
4321	0	33560	
4322	0	33472	
4323	0	33356	
4324	0	33272	
4325	0	33232	
4326	0	33204	
4327	0	33176	
4328	0	33120	
4329	0	33038	
4330	0	32932	
4331	0	32846	
4332	0	32764	
4333	0	32688	
4334	0	32586	
4335	0	32432	
4336	0	32296	
4337	0	32160	
4338	0	32008	
4339	0	31924	
4340	0	31872	
4341	0	31792	
4342	0	31732	
4343	0	31696	
4344	0	31656	
4345	0	31680	
4346	0	31760	
4347	0	31804	
4348	0	31760	
4349	0	31680	
4350	0	31632	
4351	0	31674	
4352	0	31724	
4353	0	31736	
4354	0	31738	
4355	0	31716	
4356	0	31712	
4357	0	31708	
4358	0	31660	
4359	0	31640	
4360	0	31676	
4361	0	31712	
4362	0	31740	
4363	0	31810	
4364	0	31860	
4365	0	31940	
4366	0	32010	
4367	0	32064	
4368	0	32128	
4369	0	32156	
4370	0	32136	
4371	0	32104	
4372	0	32088	
4373	0	32124	
4374	0	32200	
4375	0	32280	
4376	0	32308	
4377	0	32256	
4378	0	32192	
4379	0	32224	
4380	0	32228	
4381	0	32128	
4382	0	31992	
4383	0	31868	
4384	0	31680	
4385	0	31372	
4386	0	30900	
4387	0	30272	
4388	0	29608	
4389	0	29088	
4390	0	28720	
4391	0	28496	
4392	0	28448	
4393	0	28632	
4394	0	29016	
4395	0	29528	
4396	0	30208	
4397	0	31174	
4398	0	32336	
4399	0	33608	
4400	0	35140	
4401	0	36794	
4402	0	38584	
4403	0	40746	
4404	0	43184	
4405	0	46004	
4406	0	49208	
4407	0	52416	
4408	0	55576	
4409	0	58624	
4410	0	61440	
4411	0	63216	
4412	0	64128	
4413	0	64568	
4414	0	64744	
4415	0	64788	
4416	0	64730	
4417	0	64648	
4418	0	64556	
4419	0	64432	
4420	0	64316	
4421	0	64200	
4422	0	60124	
4423	0	55760	
4424	0	52196	
4425	0	49144	
4426	0	46544	
4427	0	44208	
4428	0	41914	
4429	0	39872	
4430	0	38020	
4431	0	36372	
4432	0	34944	
4433	0	33668	
4434	0	32472	
4435	0	31480	
4436	0	30744	
4437	0	30132	
4438	0	29674	
4439	0	29384	
4440	0	29136	
4441	0	28842	
4442	0	28520	
4443	0	28220	
4444	0	28000	
4445	0	27888	
4446	0	27920	
4447	0	28008	
4448	0	28176	
4449	0	28340	
4450	0	28480	
4451	0	28640	
4452	0	28772	
4453	0	28892	
4454	0	28912	
4455	0	28884	
4456	0	28884	
4457	0	28866	
4458	0	28808	
4459	0	28752	
4460	0	28716	
4461	0	28738	
4462	0	28746	
4463	0	28780	
4464	0	28800	
4465	0	28840	
4466	0	28844	
4467	0	28832	
4468	0	28864	
4469	0	28912	
4470	0	28952	
4471	0	28992	
4472	0	28944	
4473	0	28920	
4474	0	28884	
4475	0	28848	
4476	0	28802	
4477	0	28804	
4478	0	28848	
4479	0	28866	
4480	0	28888	
4481	0	28916	
4482	0	29012	
4483	0	29112	
4484	0	29172	
4485	0	29240	
4486	0	29324	
4487	0	29404	
4488	0	29440	
4489	0	29504	
4490	0	29528	
4491	0	29576	
4492	0	29648	
4493	0	29660	
4494	0	29604	
4495	0	29576	
4496	0	29636	
4497	0	29738	
4498	0	29772	
4499	0	29768	
4500	0	29798	
4501	0	29772	
4502	0	29794	
4503	0	29814	
4504	0	29938	
4505	0	30084	
4506	0	30192	
4507	0	30250	
4508	0	30336	
4509	0	30380	
4510	0	30424	
4511	0	30452	
4512	0	30436	
4513	0	30408	
4514	0	30400	
4515	0	30428	
4516	0	30522	
4517	0	30626	
4518	0	30656	
4519	0	30688	
4520	0	30740	
4521	0	30796	
4522	0	30856	
4523	0	30912	
4524	0	30948	
4525	0	31032	
4526	0	31068	
4527	0	31084	
4528	0	31144	
4529	0	31208	
4530	0	31248	
4531	0	31260	
4532	0	31276	
4533	0	31296	
4534	0	31332	
4535	0	31364	
4536	0	31440	
4537	0	31480	
4538	0	31492	
4539	0	31528	
4540	0	31606	
4541	0	31648	
4542	0	31692	
4543	0	31744	
4544	0	31816	
4545	0	31896	
4546	0	31980	
4547	0	32056	
4548	0	32098	
4549	0	32096	
4550	0	32148	
4551	0	32208	
4552	0	32272	
4553	0	32340	
4554	0	32388	
4555	0	32416	
4556	0	32472	
4557	0	32506	
4558	0	32540	
4559	0	32592	
4560	0	32668	
4561	0	32708	
4562	0	32728	
4563	0	32748	
4564	0	32816	
4565	0	32888	
4566	0	32944	
4567	0	33024	
4568	0	33072	
4569	0	33108	
4570	0	33180	
4571	0	33220	
4572	0	33264	
4573	0	33348	
4574	0	33428	
4575	0	33516	
4576	0	33612	
4577	0	33696	
4578	0	33762	
4579	0	33808	
4580	0	33868	
4581	0	33960	
4582	0	34084	
4583	0	34176	
4584	0	34290	
4585	0	34376	
4586	0	34442	
4587	0	34520	
4588	0	34600	
4589	0	34668	
4590	0	34760	
4591	0	34804	
4592	0	34784	
4593	0	34794	
4594	0	34876	
4595	0	34956	
4596	0	35020	
4597	0	35064	
4598	0	35104	
4599	0	35180	
4600	0	35280	
4601	0	35360	
4602	0	35452	
4603	0	35560	
4604	0	35692	
4605	0	35816	
4606	0	35928	
4607	0	36024	
4608	0	36128	
4609	0	36228	
4610	0	36368	
4611	0	36456	
4612	0	36500	
4613	0	36544	
4614	0	36628	
4615	0	36680	
4616	0	36692	
4617	0	36716	
4618	0	36792	
4619	0	36890	
4620	0	36964	
4621	0	37028	
4622	0	37128	
4623	0	37210	
4624	0	37296	
4625	0	37380	
4626	0	37460	
4627	0	37504	
4628	0	37556	
4629	0	37636	
4630	0	37696	
4631	0	37736	
4632	0	37732	
4633	0	37756	
4634	0	37746	
4635	0	37720	
4636	0	37700	
4637	0	37724	
4638	0	37720	
4639	0	37684	
4640	0	37680	
4641	0	37708	
4642	0	37772	
4643	0	37820	
4644	0	37816	
4645	0	37844	
4646	0	37904	
4647	0	37928	
4648	0	37960	
4649	0	37984	
4650	0	37992	
4651	0	37994	
4652	0	37952	
4653	0	37880	
4654	0	37796	
4655	0	37712	
4656	0	37600	
4657	0	37504	
4658	0	37440	
4659	0	37312	
4660	0	37204	
4661	0	37088	
4662	0	36962	
4663	0	36832	
4664	0	36672	
4665	0	36500	
4666	0	36308	
4667	0	36152	
4668	0	35984	
4669	0	35812	
4670	0	35624	
4671	0	35396	
4672	0	35156	
4673	0	34908	
4674	0	34720	
4675	0	34480	
4676	0	34256	
4677	0	34012	
4678	0	33800	
4679	0	33576	
4680	0	33314	
4681	0	33088	
4682	0	32896	
4683	0	32708	
4684	0	32476	
4685	0	32244	
4686	0	32024	
4687	0	31820	
4688	0	31620	
4689	0	31408	
4690	0	31192	
4691	0	30972	
4692	0	30778	
4693	0	30576	
4694	0	30400	
4695	0	30176	
4696	0	29992	
4697	0	29888	
4698	0	29788	
4699	0	29664	
4700	0	29548	
4701	0	29420	
4702	0	29284	
4703	0	29220	
4704	0	29180	
4705	0	29144	
4706	0	29052	
4707	0	28892	
4708	0	28752	
4709	0	28645	
4710	0	28620	
4711	0	28544	
4712	0	28472	
4713	0	28356	
4714	0	28266	
4715	0	28226	
4716	0	28168	
4717	0	28100	
4718	0	28162	
4719	0	28176	
4720	0	28212	
4721	0	28280	
4722	0	28360	
4723	0	28332	
4724	0	28316	
4725	0	28352	
4726	0	28368	
4727	0	28404	
4728	0	28432	
4729	0	28440	
4730	0	28438	
4731	0	28424	
4732	0	28364	
4733	0	28308	
4734	0	28240	
4735	0	28152	
4736	0	28124	
4737	0	28152	
4738	0	28216	
4739	0	28288	
4740	0	28324	
4741	0	28366	
4742	0	28420	
4743	0	28468	
4744	0	28532	
4745	0	28596	
4746	0	28670	
4747	0	28704	
4748	0	28684	
4749	0	28704	
4750	0	28668	
4751	0	28648	
4752	0	28672	
4753	0	28712	
4754	0	28770	
4755	0	28812	
4756	0	28840	
4757	0	28856	
4758	0	28924	
4759	0	29004	
4760	0	28996	
4761	0	29008	
4762	0	29028	
4763	0	29056	
4764	0	29076	
4765	0	29180	
4766	0	29284	
4767	0	29320	
4768	0	29324	
4769	0	29352	
4770	0	29376	
4771	0	29404	
4772	0	29420	
4773	0	29434	
4774	0	29520	
4775	0	29568	
4776	0	29608	
4777	0	29648	
4778	0	29674	
4779	0	29736	
4780	0	29796	
4781	0	29828	
4782	0	29868	
4783	0	29924	
4784	0	29960	
4785	0	30016	
4786	0	30064	
4787	0	30112	
4788	0	30116	
4789	0	30100	
4790	0	30152	
4791	0	30204	
4792	0	30264	
4793	0	30284	
4794	0	30232	
4795	0	30136	
4796	0	30104	
4797	0	30146	
4798	0	30204	
4799	0	30260	
4800	0	30316	
4801	0	30376	
4802	0	30428	
4803	0	30480	
4804	0	30512	
4805	0	30528	
4806	0	30522	
4807	0	30568	
4808	0	30616	
4809	0	30632	
4810	0	30616	
4811	0	30624	
4812	0	30648	
4813	0	30616	
4814	0	30580	
4815	0	30576	
4816	0	30592	
4817	0	30612	
4818	0	30660	
4819	0	30712	
4820	0	30756	
4821	0	30812	
4822	0	30844	
4823	0	30888	
4824	0	30942	
4825	0	31004	
4826	0	31076	
4827	0	31108	
4828	0	31104	
4829	0	31124	
4830	0	31176	
4831	0	31208	
4832	0	31184	
4833	0	31056	
4834	0	30972	
4835	0	30948	
4836	0	30994	
4837	0	30992	
4838	0	30960	
4839	0	30998	
4840	0	31056	
4841	0	31152	
4842	0	31216	
4843	0	31200	
4844	0	31214	
4845	0	31256	
4846	0	31258	
4847	0	31240	
4848	0	31266	
4849	0	31352	
4850	0	31380	
4851	0	31364	
4852	0	31372	
4853	0	31402	
4854	0	31420	
4855	0	31420	
4856	0	31398	
4857	0	31428	
4858	0	31428	
4859	0	31424	
4860	0	31392	
4861	0	31364	
4862	0	31372	
4863	0	31380	
4864	0	31436	
4865	0	31482	
4866	0	31484	
4867	0	31432	
4868	0	31396	
4869	0	31380	
4870	0	31376	
4871	0	31352	
4872	0	31344	
4873	0	31360	
4874	0	31364	
4875	0	31348	
4876	0	31312	
4877	0	31324	
4878	0	31352	
4879	0	31356	
4880	0	31368	
4881	0	31392	
4882	0	31413	
4883	0	31412	
4884	0	31444	
4885	0	31480	
4886	0	31512	
4887	0	31492	
4888	0	31484	
4889	0	31488	
4890	0	31504	
4891	0	31532	
4892	0	31584	
4893	0	31620	
4894	0	31632	
4895	0	31616	
4896	0	31576	
4897	0	31540	
4898	0	31514	
4899	0	31480	
4900	0	31476	
4901	0	31512	
4902	0	31520	
4903	0	31512	
4904	0	31464	
4905	0	31444	
4906	0	31472	
4907	0	31496	
4908	0	31488	
4909	0	31496	
4910	0	31488	
4911	0	31472	
4912	0	31482	
4913	0	31492	
4914	0	31528	
4915	0	31516	
4916	0	31522	
4917	0	31492	
4918	0	31416	
4919	0	31386	
4920	0	31420	
4921	0	31464	
4922	0	31490	
4923	0	31492	
4924	0	31536	
4925	0	31540	
4926	0	31548	
4927	0	31560	
4928	0	31610	
4929	0	31668	
4930	0	31712	
4931	0	31732	
4932	0	31712	
4933	0	31720	
4934	0	31704	
4935	0	31688	
4936	0	31636	
4937	0	31616	
4938	0	31624	
4939	0	31624	
4940	0	31616	
4941	0	31616	
4942	0	31616	
4943	0	31632	
4944	0	31636	
4945	0	31636	
4946	0	31624	
4947	0	31656	
4948	0	31724	
4949	0	31760	
4950	0	31752	
4951	0	31764	
4952	0	31726	
4953	0	31756	
4954	0	31778	
4955	0	31752	
4956	0	31704	
4957	0	31652	
4958	0	31640	
4959	0	31604	
4960	0	31552	
4961	0	31576	
4962	0	31636	
4963	0	31704	
4964	0	31760	
4965	0	31820	
4966	0	31840	
4967	0	31904	
4968	0	31968	
4969	0	32008	
4970	0	32016	
4971	0	32032	
4972	0	32048	
4973	0	32044	
4974	0	32018	
4975	0	31988	
4976	0	31996	
4977	0	32024	
4978	0	31996	
4979	0	31950	
4980	0	31920	
4981	0	31916	
4982	0	31924	
4983	0	31948	
4984	0	31988	
4985	0	32032	
4986	0	32048	
4987	0	32020	
4988	0	32020	
4989	0	32008	
4990	0	32040	
4991	0	32048	
4992	0	32032	
4993	0	32016	
4994	0	32004	
4995	0	32018	
4996	0	31996	
4997	0	31948	
4998	0	31932	
4999	0	31932	
5000	0	31944	
5001	0	31980	
5002	0	31992	
5003	0	32012	
5004	0	32060	
5005	0	32122	
5006	0	32164	
5007	0	32168	
5008	0	32144	
5009	0	32232	
5010	0	32256	
5011	0	32240	
5012	0	32252	
5013	0	32236	
5014	0	32236	
5015	0	32240	
5016	0	32224	
5017	0	32184	
5018	0	32128	
5019	0	32148	
5020	0	32192	
5021	0	32220	
5022	0	32252	
5023	0	32266	
5024	0	32288	
5025	0	32296	
5026	0	32276	
5027	0	32272	
5028	0	32296	
5029	0	32360	
5030	0	32416	
5031	0	32392	
5032	0	32336	
5033	0	32320	
5034	0	32352	
5035	0	32348	
5036	0	32344	
5037	0	32272	
5038	0	32220	
5039	0	32144	
5040	0	32116	
5041	0	32160	
5042	0	32236	
5043	0	32324	
5044	0	32416	
5045	0	32440	
5046	0	32436	
5047	0	32416	
5048	0	32428	
5049	0	32432	
5050	0	32416	
5051	0	32416	
5052	0	32404	
5053	0	32410	
5054	0	32408	
5055	0	32420	
5056	0	32436	
5057	0	32440	
5058	0	32480	
5059	0	32512	
5060	0	32540	
5061	0	32524	
5062	0	32488	
5063	0	32464	
5064	0	32488	
5065	0	32544	
5066	0	32568	
5067	0	32492	
5068	0	32440	
5069	0	32466	
5070	0	32516	
5071	0	32568	
5072	0	32568	
5073	0	32528	
5074	0	32488	
5075	0	32448	
5076	0	32424	
5077	0	32426	
5078	0	32396	
5079	0	32392	
5080	0	32380	
5081	0	32392	
5082	0	32432	
5083	0	32472	
5084	0	32492	
5085	0	32528	
5086	0	32600	
5087	0	32661	
5088	0	32672	
5089	0	32656	
5090	0	32628	
5091	0	32608	
5092	0	32620	
5093	0	32616	
5094	0	32584	
5095	0	32548	
5096	0	32508	
5097	0	32484	
5098	0	32444	
5099	0	32460	
5100	0	32528	
5101	0	32560	
5102	0	32604	
5103	0	32640	
5104	0	32656	
5105	0	32674	
5106	0	32700	
5107	0	32720	
5108	0	32772	
5109	0	32844	
5110	0	32860	
5111	0	32812	
5112	0	32780	
5113	0	32784	
5114	0	32722	
5115	0	32696	
5116	0	32696	
5117	0	32728	
5118	0	32740	
5119	0	32766	
5120	0	32800	
5121	0	32858	
5122	0	32904	
5123	0	32940	
5124	0	32976	
5125	0	32964	
5126	0	33008	
5127	0	33068	
5128	0	33136	
5129	0	33176	
5130	0	33216	
5131	0	33256	
5132	0	33240	
5133	0	33240	
5134	0	33288	
5135	0	33324	
5136	0	33372	
5137	0	33418	
5138	0	33484	
5139	0	33516	
5140	0	33548	
5141	0	33600	
5142	0	33680	
5143	0	33752	
5144	0	33732	
5145	0	33704	
5146	0	33666	
5147	0	33640	
5148	0	33620	
5149	0	33612	
5150	0	33624	
5151	0	33648	
5152	0	33712	
5153	0	33756	
5154	0	33780	
5155	0	33840	
5156	0	33952	
5157	0	34188	
5158	0	34504	
5159	0	34816	
5160	0	35068	
5161	0	35310	
5162	0	35512	
5163	0	35648	
5164	0	35776	
5165	0	35888	
5166	0	36016	
5167	0	36104	
5168	0	36088	
5169	0	36020	
5170	0	35940	
5171	0	35824	
5172	0	35680	
5173	0	35552	
5174	0	35492	
5175	0	35392	
5176	0	35208	
5177	0	35008	
5178	0	34804	
5179	0	34648	
5180	0	34560	
5181	0	34504	
5182	0	34484	
5183	0	34436	
5184	0	34316	
5185	0	34176	
5186	0	34036	
5187	0	33920	
5188	0	33800	
5189	0	33736	
5190	0	33652	
5191	0	33528	
5192	0	33388	
5193	0	33256	
5194	0	33192	
5195	0	33140	
5196	0	33112	
5197	0	33072	
5198	0	32972	
5199	0	32864	
5200	0	32788	
5201	0	32728	
5202	0	32664	
5203	0	32572	
5204	0	32496	
5205	0	32416	
5206	0	32296	
5207	0	32176	
5208	0	32044	
5209	0	31924	
5210	0	31804	
5211	0	31748	
5212	0	31716	
5213	0	31656	
5214	0	31562	
5215	0	31500	
5216	0	31492	
5217	0	31490	
5218	0	31534	
5219	0	31588	
5220	0	31604	
5221	0	31625	
5222	0	31660	
5223	0	31720	
5224	0	31744	
5225	0	31746	
5226	0	31760	
5227	0	31832	
5228	0	31904	
5229	0	31924	
5230	0	31902	
5231	0	31920	
5232	0	31924	
5233	0	31936	
5234	0	31942	
5235	0	31972	
5236	0	32032	
5237	0	32084	
5238	0	32080	
5239	0	32040	
5240	0	32056	
5241	0	32084	
5242	0	32148	
5243	0	32236	
5244	0	32200	
5245	0	32184	
5246	0	32190	
5247	0	32260	
5248	0	32320	
5249	0	32328	
5250	0	32240	
5251	0	32084	
5252	0	31882	
5253	0	31584	
5254	0	31168	
5255	0	30624	
5256	0	29904	
5257	0	29224	
5258	0	28748	
5259	0	28460	
5260	0	28336	
5261	0	28420	
5262	0	28752	
5263	0	29336	
5264	0	30116	
5265	0	31096	
5266	0	32184	
5267	0	33392	
5268	0	34832	
5269	0	36416	
5270	0	38074	
5271	0	40028	
5272	0	42356	
5273	0	44924	
5274	0	48008	
5275	0	51316	
5276	0	54504	
5277	0	57580	
5278	0	60576	
5279	0	62872	
5280	0	64096	
5281	0	64692	
5282	0	64976	
5283	0	65050	
5284	0	65036	
5285	0	64964	
5286	0	64868	
5287	0	64756	
5288	0	64628	
5289	0	64504	
5290	0	60482	
5291	0	55956	
5292	0	52324	
5293	0	49188	
5294	0	46488	
5295	0	44084	
5296	0	41816	
5297	0	39688	
5298	0	37768	
5299	0	35978	
5300	0	34400	
5301	0	32992	
5302	0	31796	
5303	0	30712	
5304	0	30016	
5305	0	29504	
5306	0	29156	
5307	0	28954	
5308	0	28796	
5309	0	28528	
5310	0	28256	
5311	0	28044	
5312	0	27916	
5313	0	27844	
5314	0	27896	
5315	0	27936	
5316	0	28028	
5317	0	28160	
5318	0	28280	
5319	0	28464	
5320	0	28704	
5321	0	28840	
5322	0	28888	
5323	0	29024	
5324	0	29036	
5325	0	28972	
5326	0	29056	
5327	0	29128	
5328	0	29088	
5329	0	29128	
5330	0	29088	
5331	0	29036	
5332	0	29024	
5333	0	29052	
5334	0	29084	
5335	0	29144	
5336	0	29082	
5337	0	29068	
5338	0	29080	
5339	0	29056	
5340	0	29032	
5341	0	28976	
5342	0	29000	
5343	0	29122	
5344	0	29192	
5345	0	29232	
5346	0	29272	
5347	0	29324	
5348	0	29404	
5349	0	29436	
5350	0	29428	
5351	0	29436	
5352	0	29424	
5353	0	29424	
5354	0	29456	
5355	0	29468	
5356	0	29504	
5357	0	29582	
5358	0	29720	
5359	0	29760	
5360	0	29812	
5361	0	29868	
5362	0	29892	
5363	0	29898	
5364	0	29924	
5365	0	29992	
5366	0	30018	
5367	0	29960	
5368	0	29988	
5369	0	30048	
5370	0	30068	
5371	0	30080	
5372	0	30044	
5373	0	30048	
5374	0	30068	
5375	0	30092	
5376	0	30144	
5377	0	30256	
5378	0	30388	
5379	0	30490	
5380	0	30544	
5381	0	30588	
5382	0	30616	
5383	0	30698	
5384	0	30768	
5385	0	30856	
5386	0	30932	
5387	0	30978	
5388	0	31016	
5389	0	31056	
5390	0	31112	
5391	0	31168	
5392	0	31208	
5393	0	31208	
5394	0	31188	
5395	0	31048	
5396	0	30940	
5397	0	30968	
5398	0	30984	
5399	0	31008	
5400	0	31088	
5401	0	31200	
5402	0	31288	
5403	0	31392	
5404	0	31516	
5405	0	31656	
5406	0	31792	
5407	0	31884	
5408	0	31960	
5409	0	32008	
5410	0	32012	
5411	0	32056	
5412	0	32088	
5413	0	32136	
5414	0	32220	
5415	0	32308	
5416	0	32368	
5417	0	32378	
5418	0	32372	
5419	0	32392	
5420	0	32434	
5421	0	32476	
5422	0	32516	
5423	0	32580	
5424	0	32608	
5425	0	32704	
5426	0	32816	
5427	0	32880	
5428	0	32908	
5429	0	32936	
5430	0	32964	
5431	0	32984	
5432	0	33072	
5433	0	33168	
5434	0	33216	
5435	0	33216	
5436	0	33256	
5437	0	33280	
5438	0	33296	
5439	0	33384	
5440	0	33472	
5441	0	33496	
5442	0	33584	
5443	0	33712	
5444	0	33808	
5445	0	33856	
5446	0	33888	
5447	0	33916	
5448	0	34028	
5449	0	34152	
5450	0	34256	
5451	0	34332	
5452	0	34352	
5453	0	34442	
5454	0	34536	
5455	0	34496	
5456	0	34464	
5457	0	34480	
5458	0	34616	
5459	0	34756	
5460	0	34848	
5461	0	34872	
5462	0	34968	
5463	0	35072	
5464	0	35200	
5465	0	35380	
5466	0	35512	
5467	0	35684	
5468	0	35808	
5469	0	35842	
5470	0	35900	
5471	0	35944	
5472	0	35964	
5473	0	35996	
5474	0	36104	
5475	0	36152	
5476	0	36244	
5477	0	36304	
5478	0	36328	
5479	0	36368	
5480	0	36436	
5481	0	36548	
5482	0	36652	
5483	0	36736	
5484	0	36792	
5485	0	36920	
5486	0	37040	
5487	0	37120	
5488	0	37186	
5489	0	37236	
5490	0	37248	
5491	0	37226	
5492	0	37236	
5493	0	37268	
5494	0	37320	
5495	0	37336	
5496	0	37340	
5497	0	37336	
5498	0	37356	
5499	0	37396	
5500	0	37436	
5501	0	37544	
5502	0	37672	
5503	0	37728	
5504	0	37728	
5505	0	37696	
5506	0	37736	
5507	0	37768	
5508	0	37800	
5509	0	37796	
5510	0	37776	
5511	0	37720	
5512	0	37680	
5513	0	37608	
5514	0	37528	
5515	0	37448	
5516	0	37420	
5517	0	37416	
5518	0	37444	
5519	0	37460	
5520	0	37440	
5521	0	37440	
5522	0	37460	
5523	0	37504	
5524	0	37488	
5525	0	37440	
5526	0	37424	
5527	0	37352	
5528	0	37320	
5529	0	37228	
5530	0	37128	
5531	0	36932	
5532	0	36724	
5533	0	36588	
5534	0	36432	
5535	0	36248	
5536	0	36040	
5537	0	35840	
5538	0	35592	
5539	0	35380	
5540	0	35178	
5541	0	34944	
5542	0	34716	
5543	0	34528	
5544	0	34368	
5545	0	34272	
5546	0	34152	
5547	0	33980	
5548	0	33768	
5549	0	33556	
5550	0	33360	
5551	0	33148	
5552	0	32908	
5553	0	32628	
5554	0	32336	
5555	0	32024	
5556	0	31720	
5557	0	31538	
5558	0	31392	
5559	0	31280	
5560	0	31120	
5561	0	30992	
5562	0	30888	
5563	0	30804	
5564	0	30752	
5565	0	30640	
5566	0	30516	
5567	0	30360	
5568	0	30208	
5569	0	30104	
5570	0	30008	
5571	0	29888	
5572	0	29772	
5573	0	29648	
5574	0	29544	
5575	0	29468	
5576	0	29344	
5577	0	29216	
5578	0	29032	
5579	0	28848	
5580	0	28700	
5581	0	28616	
5582	0	28556	
5583	0	28512	
5584	0	28484	
5585	0	28488	
5586	0	28450	
5587	0	28392	
5588	0	28424	
5589	0	28424	
5590	0	28424	
5591	0	28412	
5592	0	28366	
5593	0	28332	
5594	0	28320	
5595	0	28312	
5596	0	28370	
5597	0	28400	
5598	0	28368	
5599	0	28368	
5600	0	28428	
5601	0	28440	
5602	0	28424	
5603	0	28436	
5604	0	28416	
5605	0	28376	
5606	0	28360	
5607	0	28424	
5608	0	28512	
5609	0	28608	
5610	0	28632	
5611	0	28626	
5612	0	28616	
5613	0	28568	
5614	0	28568	
5615	0	28596	
5616	0	28552	
5617	0	28536	
5618	0	28552	
5619	0	28628	
5620	0	28706	
5621	0	28728	
5622	0	28812	
5623	0	28936	
5624	0	29052	
5625	0	29156	
5626	0	29264	
5627	0	29380	
5628	0	29384	
5629	0	29432	
5630	0	29440	
5631	0	29416	
5632	0	29436	
5633	0	29528	
5634	0	29512	
5635	0	29408	
5636	0	29344	
5637	0	29304	
5638	0	29276	
5639	0	29248	
5640	0	29280	
5641	0	29364	
5642	0	29484	
5643	0	29524	
5644	0	29632	
5645	0	29752	
5646	0	29882	
5647	0	29964	
5648	0	29964	
5649	0	30000	
5650	0	30000	
5651	0	30000	
5652	0	30016	
5653	0	30066	
5654	0	30076	
5655	0	30056	
5656	0	30056	
5657	0	30072	
5658	0	30112	
5659	0	30128	
5660	0	30164	
5661	0	30240	
5662	0	30400	
5663	0	30532	
5664	0	30600	
5665	0	30588	
5666	0	30570	
5667	0	30612	
5668	0	30656	
5669	0	30720	
5670	0	30720	
5671	0	30768	
5672	0	30818	
5673	0	30878	
5674	0	30952	
5675	0	31012	
5676	0	31076	
5677	0	31068	
5678	0	31044	
5679	0	31064	
5680	0	31072	
5681	0	31076	
5682	0	31120	
5683	0	31178	
5684	0	31180	
5685	0	31096	
5686	0	31032	
5687	0	31076	
5688	0	31152	
5689	0	31200	
5690	0	31168	
5691	0	31100	
5692	0	31108	
5693	0	31176	
5694	0	31212	
5695	0	31276	
5696	0	31356	
5697	0	31425	
5698	0	31492	
5699	0	31544	
5700	0	31584	
5701	0	31592	
5702	0	31584	
5703	0	31576	
5704	0	31632	
5705	0	31660	
5706	0	31680	
5707	0	31704	
5708	0	31732	
5709	0	31768	
5710	0	31864	
5711	0	31884	
5712	0	31884	
5713	0	31836	
5714	0	31772	
5715	0	31740	
5716	0	31788	
5717	0	31808	
5718	0	31792	
5719	0	31756	
5720	0	31802	
5721	0	31836	
5722	0	31872	
5723	0	31856	
5724	0	31748	
5725	0	31660	
5726	0	31624	
5727	0	31604	
5728	0	31616	
5729	0	31664	
5730	0	31752	
5731	0	31784	
5732	0	31812	
5733	0	31832	
5734	0	31840	
5735	0	31816	
5736	0	31864	
5737	0	31872	
5738	0	31802	
5739	0	31668	
5740	0	31600	
5741	0	31580	
5742	0	31584	
5743	0	31614	
5744	0	31610	
5745	0	31644	
5746	0	31728	
5747	0	31688	
5748	0	31728	
5749	0	31816	
5750	0	31844	
5751	0	31792	
5752	0	31814	
5753	0	31840	
5754	0	31905	
5755	0	31956	
5756	0	31930	
5757	0	31844	
5758	0	31816	
5759	0	31792	
5760	0	31896	
5761	0	31972	
5762	0	31824	
5763	0	31690	
5764	0	31740	
5765	0	31776	
5766	0	31768	
5767	0	31900	
5768	0	31960	
5769	0	32072	
5770	0	32092	
5771	0	32032	
5772	0	32016	
5773	0	31988	
5774	0	31936	
5775	0	31982	
5776	0	31968	
5777	0	31916	
5778	0	31768	
5779	0	31720	
5780	0	31768	
5781	0	31928	
5782	0	32028	
5783	0	32032	
5784	0	32008	
5785	0	31984	
5786	0	32016	
5787	0	31972	
5788	0	31948	
5789	0	32044	
5790	0	32134	
5791	0	32160	
5792	0	32000	
5793	0	31808	
5794	0	31944	
5795	0	32012	
5796	0	32008	
5797	0	31964	
5798	0	31924	
5799	0	31928	
5800	0	31840	
5801	0	31820	
5802	0	31832	
5803	0	31728	
5804	0	31800	
5805	0	31940	
5806	0	31952	
5807	0	31976	
5808	0	32002	
5809	0	32012	
5810	0	32048	
5811	0	32044	
5812	0	32044	
5813	0	32132	
5814	0	32180	
5815	0	32172	
5816	0	32160	
5817	0	32052	
5818	0	31864	
5819	0	31776	
5820	0	31808	
5821	0	31764	
5822	0	31794	
5823	0	31824	
5824	0	31884	
5825	0	32032	
5826	0	32092	
5827	0	32172	
5828	0	32224	
5829	0	32268	
5830	0	32352	
5831	0	32428	
5832	0	32384	
5833	0	32300	
5834	0	32272	
5835	0	32236	
5836	0	32196	
5837	0	32148	
5838	0	32112	
5839	0	32100	
5840	0	32092	
5841	0	32168	
5842	0	32288	
5843	0	32276	
5844	0	32296	
5845	0	32320	
5846	0	32224	
5847	0	32184	
5848	0	32204	
5849	0	32212	
5850	0	32232	
5851	0	32280	
5852	0	32372	
5853	0	32466	
5854	0	32476	
5855	0	32472	
5856	0	32400	
5857	0	32380	
5858	0	32420	
5859	0	32448	
5860	0	32476	
5861	0	32488	
5862	0	32488	
5863	0	32424	
5864	0	32384	
5865	0	32376	
5866	0	32414	
5867	0	32480	
5868	0	32514	
5869	0	32560	
5870	0	32488	
5871	0	32396	
5872	0	32368	
5873	0	32340	
5874	0	32352	
5875	0	32400	
5876	0	32520	
5877	0	32608	
5878	0	32640	
5879	0	32632	
5880	0	32672	
5881	0	32692	
5882	0	32750	
5883	0	32804	
5884	0	32804	
5885	0	32792	
5886	0	32824	
5887	0	32808	
5888	0	32752	
5889	0	32704	
5890	0	32640	
5891	0	32628	
5892	0	32620	
5893	0	32616	
5894	0	32616	
5895	0	32656	
5896	0	32700	
5897	0	32808	
5898	0	32896	
5899	0	32912	
5900	0	32872	
5901	0	32832	
5902	0	32876	
5903	0	32956	
5904	0	32984	
5905	0	33012	
5906	0	33044	
5907	0	33092	
5908	0	33184	
5909	0	33240	
5910	0	33268	
5911	0	33276	
5912	0	33340	
5913	0	33424	
5914	0	33564	
5915	0	33696	
5916	0	33808	
5917	0	33908	
5918	0	33970	
5919	0	34000	
5920	0	33968	
5921	0	33920	
5922	0	33828	
5923	0	33778	
5924	0	33752	
5925	0	33684	
5926	0	33576	
5927	0	33496	
5928	0	33464	
5929	0	33444	
5930	0	33464	
5931	0	33492	
5932	0	33548	
5933	0	33680	
5934	0	33848	
5935	0	34060	
5936	0	34354	
5937	0	34672	
5938	0	34924	
5939	0	35172	
5940	0	35380	
5941	0	35580	
5942	0	35760	
5943	0	35928	
5944	0	36032	
5945	0	36112	
5946	0	36104	
5947	0	36072	
5948	0	35960	
5949	0	35788	
5950	0	35628	
5951	0	35488	
5952	0	35368	
5953	0	35188	
5954	0	35044	
5955	0	34864	
5956	0	34660	
5957	0	34472	
5958	0	34368	
5959	0	34252	
5960	0	34216	
5961	0	34160	
5962	0	34048	
5963	0	34000	
5964	0	34028	
5965	0	33952	
5966	0	33860	
5967	0	33900	
5968	0	33932	
5969	0	33900	
5970	0	33800	
5971	0	33580	
5972	0	33396	
5973	0	33288	
5974	0	33224	
5975	0	33188	
5976	0	33156	
5977	0	33088	
5978	0	32962	
5979	0	32832	
5980	0	32676	
5981	0	32572	
5982	0	32404	
5983	0	32260	
5984	0	32168	
5985	0	32072	
5986	0	31994	
5987	0	31952	
5988	0	31916	
5989	0	31956	
5990	0	32002	
5991	0	32032	
5992	0	32016	
5993	0	31968	
5994	0	32000	
5995	0	32032	
5996	0	32052	
5997	0	32064	
5998	0	32076	
5999	0	32040	
6000	0	31960	
6001	0	31920	
6002	0	31956	
6003	0	31976	
6004	0	31952	
6005	0	31896	
6006	0	31888	
6007	0	31920	
6008	0	32032	
6009	0	32192	
6010	0	32228	
6011	0	32242	
6012	0	32284	
6013	0	32376	
6014	0	32508	
6015	0	32516	
6016	0	32388	
6017	0	32304	
6018	0	32240	
6019	0	32232	
6020	0	32160	
6021	0	32112	
6022	0	32124	
6023	0	32200	
6024	0	32184	
6025	0	32202	
6026	0	32184	
6027	0	32224	
6028	0	32320	
6029	0	32372	
6030	0	32316	
6031	0	32100	
6032	0	31792	
6033	0	31432	
6034	0	30992	
6035	0	30464	
6036	0	29952	
6037	0	29568	
6038	0	29262	
6039	0	29152	
6040	0	29232	
6041	0	29498	
6042	0	29976	
6043	0	30680	
6044	0	31600	
6045	0	32672	
6046	0	33816	
6047	0	35068	
6048	0	36420	
6049	0	37952	
6050	0	39728	
6051	0	41764	
6052	0	44168	
6053	0	46936	
6054	0	49872	
6055	0	52872	
6056	0	55804	
6057	0	58644	
6058	0	61416	
6059	0	63120	
6060	0	63992	
6061	0	64408	
6062	0	64560	
6063	0	64592	
6064	0	64556	
6065	0	64464	
6066	0	64376	
6067	0	60896	
6068	0	55808	
6069	0	50904	
6070	0	46424	
6071	0	42676	
6072	0	39648	
6073	0	37292	
6074	0	35560	
6075	0	34176	
6076	0	32928	
6077	0	31798	
6078	0	30792	
6079	0	29732	
6080	0	28712	
6081	0	27760	
6082	0	27024	
6083	0	26608	
6084	0	26418	
6085	0	26316	
6086	0	26392	
6087	0	26420	
6088	0	26404	
6089	0	26428	
6090	0	26440	
6091	0	26624	
6092	0	26972	
6093	0	27268	
6094	0	27488	
6095	0	27716	
6096	0	27952	
6097	0	28260	
6098	0	28476	
6099	0	28692	
6100	0	28952	
6101	0	29272	
6102	0	29596	
6103	0	29924	
6104	0	30100	
6105	0	30252	
6106	0	30388	
6107	0	30424	
6108	0	30432	
6109	0	30448	
6110	0	30428	
6111	0	30336	
6112	0	30256	
6113	0	30224	
6114	0	30256	
6115	0	30324	
6116	0	30420	
6117	0	30476	
6118	0	30480	
6119	0	30512	
6120	0	30580	
6121	0	30644	
6122	0	30698	
6123	0	30736	
6124	0	30796	
6125	0	30824	
6126	0	30810	
6127	0	30756	
6128	0	30728	
6129	0	30760	
6130	0	30820	
6131	0	30896	
6132	0	30984	
6133	0	31032	
6134	0	31048	
6135	0	31040	
6136	0	31048	
6137	0	31064	
6138	0	31114	
6139	0	31188	
6140	0	31272	
6141	0	31344	
6142	0	31400	
6143	0	31476	
6144	0	31604	
6145	0	31676	
6146	0	31648	
6147	0	31628	
6148	0	31644	
6149	0	31624	
6150	0	31636	
6151	0	31616	
6152	0	31612	
6153	0	31648	
6154	0	31600	
6155	0	31672	
6156	0	31800	
6157	0	31888	
6158	0	31968	
6159	0	32052	
6160	0	32152	
6161	0	32200	
6162	0	32156	
6163	0	32160	
6164	0	32244	
6165	0	32324	
6166	0	32400	
6167	0	32440	
6168	0	32460	
6169	0	32520	
6170	0	32536	
6171	0	32496	
6172	0	32512	
6173	0	32536	
6174	0	32492	
6175	0	32428	
6176	0	32484	
6177	0	32616	
6178	0	32788	
6179	0	32880	
6180	0	32940	
6181	0	32980	
6182	0	33020	
6183	0	33040	
6184	0	32996	
6185	0	32932	
6186	0	32964	
6187	0	33044	
6188	0	33068	
6189	0	33074	
6190	0	33140	
6191	0	33192	
6192	0	33184	
6193	0	33216	
6194	0	33196	
6195	0	33196	
6196	0	33212	
6197	0	33264	
6198	0	33320	
6199	0	33368	
6200	0	33448	
6201	0	33520	
6202	0	33568	
6203	0	33634	
6204	0	33632	
6205	0	33640	
6206	0	33752	
6207	0	33896	
6208	0	34096	
6209	0	34228	
6210	0	34248	
6211	0	34242	
6212	0	34228	
6213	0	34232	
6214	0	34244	
6215	0	34264	
6216	0	34312	
6217	0	34372	
6218	0	34416	
6219	0	34500	
6220	0	34636	
6221	0	34776	
6222	0	34896	
6223	0	34988	
6224	0	34968	
6225	0	34992	
6226	0	35060	
6227	0	35112	
6228	0	35144	
6229	0	35178	
6230	0	35192	
6231	0	35192	
6232	0	35258	
6233	0	35328	
6234	0	35392	
6235	0	35488	
6236	0	35596	
6237	0	35650	
6238	0	35681	
6239	0	35736	
6240	0	35840	
6241	0	35908	
6242	0	36020	
6243	0	36152	
6244	0	36236	
6245	0	36344	
6246	0	36460	
6247	0	36538	
6248	0	36652	
6249	0	36744	
6250	0	36884	
6251	0	36954	
6252	0	37036	
6253	0	37144	
6254	0	37252	
6255	0	37356	
6256	0	37420	
6257	0	37448	
6258	0	37464	
6259	0	37472	
6260	0	37484	
6261	0	37544	
6262	0	37612	
6263	0	37764	
6264	0	37912	
6265	0	37976	
6266	0	38048	
6267	0	38104	
6268	0	38184	
6269	0	38240	
6270	0	38312	
6271	0	38340	
6272	0	38392	
6273	0	38452	
6274	0	38444	
6275	0	38464	
6276	0	38520	
6277	0	38468	
6278	0	38416	
6279	0	38464	
6280	0	38536	
6281	0	38572	
6282	0	38532	
6283	0	38532	
6284	0	38560	
6285	0	38596	
6286	0	38616	
6287	0	38636	
6288	0	38600	
6289	0	38532	
6290	0	38508	
6291	0	38456	
6292	0	38320	
6293	0	38264	
6294	0	38236	
6295	0	38192	
6296	0	38244	
6297	0	38264	
6298	0	38236	
6299	0	38176	
6300	0	38060	
6301	0	37956	
6302	0	37804	
6303	0	37632	
6304	0	37460	
6305	0	37304	
6306	0	37184	
6307	0	37072	
6308	0	36932	
6309	0	36736	
6310	0	36616	
6311	0	36552	
6312	0	36436	
6313	0	36284	
6314	0	36140	
6315	0	35968	
6316	0	35776	
6317	0	35512	
6318	0	35296	
6319	0	35068	
6320	0	34796	
6321	0	34440	
6322	0	34108	
6323	0	33832	
6324	0	33640	
6325	0	33476	
6326	0	33312	
6327	0	33104	
6328	0	32936	
6329	0	32768	
6330	0	32576	
6331	0	32444	
6332	0	32320	
6333	0	32220	
6334	0	32040	
6335	0	31852	
6336	0	31540	
6337	0	31232	
6338	0	30960	
6339	0	30688	
6340	0	30456	
6341	0	30244	
6342	0	30104	
6343	0	30020	
6344	0	29924	
6345	0	29808	
6346	0	29664	
6347	0	29560	
6348	0	29480	
6349	0	29394	
6350	0	29332	
6351	0	29208	
6352	0	29062	
6353	0	28952	
6354	0	28844	
6355	0	28736	
6356	0	28652	
6357	0	28632	
6358	0	28624	
6359	0	28608	
6360	0	28564	
6361	0	28500	
6362	0	28432	
6363	0	28416	
6364	0	28396	
6365	0	28412	
6366	0	28448	
6367	0	28440	
6368	0	28384	
6369	0	28344	
6370	0	28328	
6371	0	28276	
6372	0	28224	
6373	0	28136	
6374	0	28060	
6375	0	28000	
6376	0	27936	
6377	0	27868	
6378	0	27824	
6379	0	27832	
6380	0	27908	
6381	0	27980	
6382	0	27960	
6383	0	27932	
6384	0	27948	
6385	0	28012	
6386	0	28058	
6387	0	28080	
6388	0	28114	
6389	0	28156	
6390	0	28224	
6391	0	28304	
6392	0	28274	
6393	0	28108	
6394	0	27996	
6395	0	28000	
6396	0	28024	
6397	0	28112	
6398	0	28160	
6399	0	28208	
6400	0	28248	
6401	0	28296	
6402	0	28360	
6403	0	28404	
6404	0	28496	
6405	0	28608	
6406	0	28636	
6407	0	28688	
6408	0	28832	
6409	0	28924	
6410	0	28956	
6411	0	28976	
6412	0	29018	
6413	0	28954	
6414	0	28946	
6415	0	28924	
6416	0	28876	
6417	0	28892	
6418	0	28928	
6419	0	28948	
6420	0	28916	
6421	0	28968	
6422	0	29022	
6423	0	29076	
6424	0	29160	
6425	0	29228	
6426	0	29288	
6427	0	29376	
6428	0	29452	
6429	0	29524	
6430	0	29592	
6431	0	29626	
6432	0	29604	
6433	0	29608	
6434	0	29620	
6435	0	29569	
6436	0	29524	
6437	0	29536	
6438	0	29660	
6439	0	29788	
6440	0	29906	
6441	0	29972	
6442	0	30028	
6443	0	30040	
6444	0	30040	
6445	0	30048	
6446	0	30104	
6447	0	30144	
6448	0	30128	
6449	0	30072	
6450	0	30090	
6451	0	30124	
6452	0	30156	
6453	0	30170	
6454	0	30200	
6455	0	30188	
6456	0	30160	
6457	0	30156	
6458	0	30240	
6459	0	30368	
6460	0	30516	
6461	0	30608	
6462	0	30660	
6463	0	30744	
6464	0	30820	
6465	0	30880	
6466	0	30896	
6467	0	30908	
6468	0	30888	
6469	0	30792	
6470	0	30756	
6471	0	30728	
6472	0	30728	
6473	0	30740	
6474	0	30768	
6475	0	30800	
6476	0	30816	
6477	0	30792	
6478	0	30788	
6479	0	30832	
6480	0	30908	
6481	0	30964	
6482	0	31004	
6483	0	31056	
6484	0	31120	
6485	0	31224	
6486	0	31292	
6487	0	31328	
6488	0	31332	
6489	0	31248	
6490	0	31160	
6491	0	31080	
6492	0	31036	
6493	0	31036	
6494	0	31044	
6495	0	31080	
6496	0	31104	
6497	0	31136	
6498	0	31136	
6499	0	31092	
6500	0	31080	
6501	0	31146	
6502	0	31192	
6503	0	31200	
6504	0	31182	
6505	0	31280	
6506	0	31400	
6507	0	31492	
6508	0	31508	
6509	0	31524	
6510	0	31536	
6511	0	31536	
6512	0	31452	
6513	0	31328	
6514	0	31264	
6515	0	31288	
6516	0	31364	
6517	0	31376	
6518	0	31328	
6519	0	31268	
6520	0	31248	
6521	0	31256	
6522	0	31224	
6523	0	31184	
6524	0	31182	
6525	0	31136	
6526	0	31108	
6527	0	31136	
6528	0	31152	
6529	0	31156	
6530	0	31080	
6531	0	31032	
6532	0	31028	
6533	0	31026	
6534	0	31040	
6535	0	31052	
6536	0	31080	
6537	0	31088	
6538	0	31124	
6539	0	31180	
6540	0	31180	
6541	0	31136	
6542	0	31060	
6543	0	31096	
6544	0	31152	
6545	0	31172	
6546	0	31276	
6547	0	31324	
6548	0	31300	
6549	0	31242	
6550	0	31232	
6551	0	31236	
6552	0	31184	
6553	0	31164	
6554	0	31152	
6555	0	31144	
6556	0	31168	
6557	0	31188	
6558	0	31160	
6559	0	31112	
6560	0	31088	
6561	0	31104	
6562	0	31160	
6563	0	31224	
6564	0	31208	
6565	0	31200	
6566	0	31216	
6567	0	31204	
6568	0	31200	
6569	0	31196	
6570	0	31116	
6571	0	31064	
6572	0	31064	
6573	0	31056	
6574	0	31050	
6575	0	31056	
6576	0	31064	
6577	0	31084	
6578	0	31128	
6579	0	31184	
6580	0	31236	
6581	0	31216	
6582	0	31242	
6583	0	31306	
6584	0	31376	
6585	0	31440	
6586	0	31440	
6587	0	31426	
6588	0	31400	
6589	0	31400	
6590	0	31416	
6591	0	31456	
6592	0	31448	
6593	0	31428	
6594	0	31388	
6595	0	31328	
6596	0	31316	
6597	0	31352	
6598	0	31412	
6599	0	31466	
6600	0	31552	
6601	0	31548	
6602	0	31528	
6603	0	31484	
6604	0	31484	
6605	0	31504	
6606	0	31540	
6607	0	31544	
6608	0	31564	
6609	0	31604	
6610	0	31632	
6611	0	31608	
6612	0	31564	
6613	0	31552	
6614	0	31548	
6615	0	31584	
6616	0	31560	
6617	0	31576	
6618	0	31608	
6619	0	31652	
6620	0	31692	
6621	0	31712	
6622	0	31772	
6623	0	31820	
6624	0	31856	
6625	0	31900	
6626	0	31984	
6627	0	32080	
6628	0	32144	
6629	0	32140	
6630	0	32172	
6631	0	32244	
6632	0	32338	
6633	0	32448	
6634	0	32520	
6635	0	32624	
6636	0	32716	
6637	0	32788	
6638	0	32812	
6639	0	32836	
6640	0	32856	
6641	0	32808	
6642	0	32728	
6643	0	32672	
6644	0	32620	
6645	0	32608	
6646	0	32624	
6647	0	32656	
6648	0	32712	
6649	0	32736	
6650	0	32720	
6651	0	32764	
6652	0	32866	
6653	0	33000	
6654	0	33192	
6655	0	33408	
6656	0	33664	
6657	0	33824	
6658	0	33920	
6659	0	34052	
6660	0	34216	
6661	0	34432	
6662	0	34712	
6663	0	34872	
6664	0	34946	
6665	0	35000	
6666	0	35016	
6667	0	34992	
6668	0	34864	
6669	0	34784	
6670	0	34704	
6671	0	34608	
6672	0	34476	
6673	0	34274	
6674	0	34084	
6675	0	33944	
6676	0	33836	
6677	0	33684	
6678	0	33540	
6679	0	33420	
6680	0	33248	
6681	0	33096	
6682	0	32980	
6683	0	32884	
6684	0	32816	
6685	0	32748	
6686	0	32736	
6687	0	32712	
6688	0	32604	
6689	0	32480	
6690	0	32348	
6691	0	32244	
6692	0	32224	
6693	0	32256	
6694	0	32216	
6695	0	32072	
6696	0	31916	
6697	0	31836	
6698	0	31748	
6699	0	31664	
6700	0	31524	
6701	0	31392	
6702	0	31280	
6703	0	31140	
6704	0	31048	
6705	0	30996	
6706	0	30940	
6707	0	30932	
6708	0	30904	
6709	0	30832	
6710	0	30778	
6711	0	30816	
6712	0	30864	
6713	0	30864	
6714	0	30898	
6715	0	30912	
6716	0	30888	
6717	0	30856	
6718	0	30836	
6719	0	30864	
6720	0	30906	
6721	0	30904	
6722	0	30908	
6723	0	30964	
6724	0	31020	
6725	0	31062	
6726	0	31090	
6727	0	31108	
6728	0	31124	
6729	0	31172	
6730	0	31216	
6731	0	31216	
6732	0	31180	
6733	0	31164	
6734	0	31156	
6735	0	31104	
6736	0	31096	
6737	0	31112	
6738	0	31140	
6739	0	31176	
6740	0	31232	
6741	0	31352	
6742	0	31464	
6743	0	31516	
6744	0	31520	
6745	0	31528	
6746	0	31546	
6747	0	31584	
6748	0	31568	
6749	0	31508	
6750	0	31424	
6751	0	31212	
6752	0	30924	
6753	0	30544	
6754	0	30044	
6755	0	29456	
6756	0	28904	
6757	0	28504	
6758	0	28248	
6759	0	28156	
6760	0	28192	
6761	0	28448	
6762	0	28924	
6763	0	29676	
6764	0	30700	
6765	0	31828	
6766	0	33008	
6767	0	34336	
6768	0	35796	
6769	0	37368	
6770	0	39176	
6771	0	41280	
6772	0	43720	
6773	0	46512	
6774	0	49584	
6775	0	52712	
6776	0	55684	
6777	0	58640	
6778	0	61512	
6779	0	63392	
6780	0	64356	
6781	0	64824	
6782	0	65020	
6783	0	65064	
6784	0	65024	
6785	0	64940	
6786	0	64848	
6787	0	63872	
6788	0	58356	
6789	0	53184	
6790	0	48674	
6791	0	44928	
6792	0	41828	
6793	0	39260	
6794	0	37136	
6795	0	35284	
6796	0	33660	
6797	0	32204	
6798	0	30820	
6799	0	29472	
6800	0	28248	
6801	0	27270	
6802	0	26632	
6803	0	26256	
6804	0	26052	
6805	0	26036	
6806	0	26080	
6807	0	26136	
6808	0	26140	
6809	0	26130	
6810	0	26216	
6811	0	26384	
6812	0	26562	
6813	0	26786	
6814	0	27060	
6815	0	27368	
6816	0	27658	
6817	0	27968	
6818	0	28256	
6819	0	28564	
6820	0	28780	
6821	0	28944	
6822	0	29152	
6823	0	29328	
6824	0	29408	
6825	0	29460	
6826	0	29520	
6827	0	29564	
6828	0	29600	
6829	0	29626	
6830	0	29680	
6831	0	29728	
6832	0	29760	
6833	0	29776	
6834	0	29768	
6835	0	29746	
6836	0	29740	
6837	0	29736	
6838	0	29728	
6839	0	29704	
6840	0	29692	
6841	0	29768	
6842	0	29856	
6843	0	29916	
6844	0	29964	
6845	0	30042	
6846	0	30096	
6847	0	30082	
6848	0	30089	
6849	0	30068	
6850	0	30060	
6851	0	30108	
6852	0	30164	
6853	0	30168	
6854	0	30164	
6855	0	30220	
6856	0	30220	
6857	0	30232	
6858	0	30272	
6859	0	30312	
6860	0	30380	
6861	0	30436	
6862	0	30498	
6863	0	30572	
6864	0	30648	
6865	0	30706	
6866	0	30776	
6867	0	30896	
6868	0	30948	
6869	0	30976	
6870	0	31012	
6871	0	31048	
6872	0	31092	
6873	0	31116	
6874	0	31124	
6875	0	31138	
6876	0	31116	
6877	0	31132	
6878	0	31156	
6879	0	31200	
6880	0	31296	
6881	0	31392	
6882	0	31472	
6883	0	31484	
6884	0	31528	
6885	0	31608	
6886	0	31652	
6887	0	31686	
6888	0	31752	
6889	0	31840	
6890	0	31944	
6891	0	32028	
6892	0	32096	
6893	0	32128	
6894	0	32068	
6895	0	31980	
6896	0	31980	
6897	0	31996	
6898	0	32000	
6899	0	32044	
6900	0	32106	
6901	0	32160	
6902	0	32236	
6903	0	32314	
6904	0	32416	
6905	0	32496	
6906	0	32572	
6907	0	32620	
6908	0	32608	
6909	0	32660	
6910	0	32730	
6911	0	32744	
6912	0	32752	
6913	0	32800	
6914	0	32852	
6915	0	32886	
6916	0	32900	
6917	0	32952	
6918	0	32980	
6919	0	33048	
6920	0	33120	
6921	0	33160	
6922	0	33216	
6923	0	33284	
6924	0	33332	
6925	0	33396	
6926	0	33476	
6927	0	33516	
6928	0	33592	
6929	0	33664	
6930	0	33688	
6931	0	33720	
6932	0	33752	
6933	0	33812	
6934	0	33876	
6935	0	33920	
6936	0	33952	
6937	0	34002	
6938	0	34052	
6939	0	34112	
6940	0	34160	
6941	0	34240	
6942	0	34360	
6943	0	34504	
6944	0	34584	
6945	0	34644	
6946	0	34696	
6947	0	34784	
6948	0	34880	
6949	0	34916	
6950	0	34976	
6951	0	35012	
6952	0	35044	
6953	0	35108	
6954	0	35192	
6955	0	35224	
6956	0	35248	
6957	0	35288	
6958	0	35376	
6959	0	35468	
6960	0	35536	
6961	0	35572	
6962	0	35648	
6963	0	35756	
6964	0	35868	
6965	0	35968	
6966	0	36090	
6967	0	36176	
6968	0	36260	
6969	0	36348	
6970	0	36392	
6971	0	36448	
6972	0	36560	
6973	0	36658	
6974	0	36728	
6975	0	36764	
6976	0	36832	
6977	0	36920	
6978	0	37008	
6979	0	37056	
6980	0	37112	
6981	0	37204	
6982	0	37348	
6983	0	37460	
6984	0	37518	
6985	0	37572	
6986	0	37600	
6987	0	37640	
6988	0	37688	
6989	0	37688	
6990	0	37716	
6991	0	37796	
6992	0	37856	
6993	0	37916	
6994	0	37948	
6995	0	37984	
6996	0	37992	
6997	0	37988	
6998	0	38020	
6999	0	38048	
7000	0	38060	
7001	0	38092	
7002	0	38148	
7003	0	38200	
7004	0	38224	
7005	0	38236	
7006	0	38200	
7007	0	38180	
7008	0	38192	
7009	0	38164	
7010	0	38112	
7011	0	38096	
7012	0	38052	
7013	0	38012	
7014	0	37978	
7015	0	37940	
7016	0	37932	
7017	0	37882	
7018	0	37796	
7019	0	37616	
7020	0	37484	
7021	0	37424	
7022	0	37352	
7023	0	37236	
7024	0	37120	
7025	0	37000	
7026	0	36860	
7027	0	36752	
7028	0	36670	
7029	0	36552	
7030	0	36408	
7031	0	36264	
7032	0	36120	
7033	0	35944	
7034	0	35704	
7035	0	35484	
7036	0	35272	
7037	0	35016	
7038	0	34772	
7039	0	34536	
7040	0	34336	
7041	0	34064	
7042	0	33816	
7043	0	33592	
7044	0	33360	
7045	0	33160	
7046	0	32948	
7047	0	32728	
7048	0	32480	
7049	0	32264	
7050	0	32032	
7051	0	31808	
7052	0	31580	
7053	0	31368	
7054	0	31188	
7055	0	30996	
7056	0	30808	
7057	0	30640	
7058	0	30472	
7059	0	30324	
7060	0	30178	
7061	0	30040	
7062	0	29928	
7063	0	29800	
7064	0	29676	
7065	0	29572	
7066	0	29452	
7067	0	29328	
7068	0	29236	
7069	0	29088	
7070	0	28988	
7071	0	28924	
7072	0	28824	
7073	0	28720	
7074	0	28612	
7075	0	28560	
7076	0	28524	
7077	0	28488	
7078	0	28452	
7079	0	28384	
7080	0	28324	
7081	0	28332	
7082	0	28318	
7083	0	28308	
7084	0	28286	
7085	0	28304	
7086	0	28320	
7087	0	28360	
7088	0	28380	
7089	0	28376	
7090	0	28336	
7091	0	28284	
7092	0	28186	
7093	0	28084	
7094	0	28068	
7095	0	28068	
7096	0	28066	
7097	0	28064	
7098	0	28060	
7099	0	28032	
7100	0	28040	
7101	0	28064	
7102	0	28112	
7103	0	28144	
7104	0	28192	
7105	0	28260	
7106	0	28348	
7107	0	28472	
7108	0	28588	
7109	0	28640	
7110	0	28682	
7111	0	28724	
7112	0	28704	
7113	0	28696	
7114	0	28760	
7115	0	28776	
7116	0	28776	
7117	0	28784	
7118	0	28788	
7119	0	28788	
7120	0	28812	
7121	0	28792	
7122	0	28844	
7123	0	28904	
7124	0	28970	
7125	0	29018	
7126	0	29108	
7127	0	29204	
7128	0	29276	
7129	0	29308	
7130	0	29276	
7131	0	29216	
7132	0	29208	
7133	0	29224	
7134	0	29260	
7135	0	29316	
7136	0	29340	
7137	0	29364	
7138	0	29400	
7139	0	29428	
7140	0	29472	
7141	0	29500	
7142	0	29546	
7143	0	29620	
7144	0	29708	
7145	0	29808	
7146	0	29884	
7147	0	29964	
7148	0	30006	
7149	0	30032	
7150	0	30078	
7151	0	30124	
7152	0	30114	
7153	0	30108	
7154	0	30110	
7155	0	30128	
7156	0	30138	
7157	0	30188	
7158	0	30192	
7159	0	30218	
7160	0	30252	
7161	0	30280	
7162	0	30380	
7163	0	30500	
7164	0	30560	
7165	0	30544	
7166	0	30496	
7167	0	30456	
7168	0	30456	
7169	0	30456	
7170	0	30496	
7171	0	30528	
7172	0	30568	
7173	0	30624	
7174	0	30676	
7175	0	30720	
7176	0	30772	
7177	0	30824	
7178	0	30840	
7179	0	30880	
7180	0	30912	
7181	0	30920	
7182	0	30946	
7183	0	30996	
7184	0	31052	
7185	0	31096	
7186	0	31092	
7187	0	31080	
7188	0	31112	
7189	0	31148	
7190	0	31176	
7191	0	31148	
7192	0	31092	
7193	0	31056	
7194	0	31040	
7195	0	31016	
7196	0	31000	
7197	0	31016	
7198	0	31064	
7199	0	31100	
7200	0	31156	
7201	0	31196	
7202	0	31232	
7203	0	31264	
7204	0	31336	
7205	0	31392	
7206	0	31392	
7207	0	31366	
7208	0	31352	
7209	0	31324	
7210	0	31360	
7211	0	31408	
7212	0	31416	
7213	0	31408	
7214	0	31376	
7215	0	31386	
7216	0	31400	
7217	0	31390	
7218	0	31362	
7219	0	31320	
7220	0	31266	
7221	0	31236	
7222	0	31200	
7223	0	31216	
7224	0	31256	
7225	0	31288	
7226	0	31332	
7227	0	31400	
7228	0	31452	
7229	0	31460	
7230	0	31480	
7231	0	31500	
7232	0	31460	
7233	0	31436	
7234	0	31416	
7235	0	31424	
7236	0	31392	
7237	0	31336	
7238	0	31308	
7239	0	31308	
7240	0	31344	
7241	0	31392	
7242	0	31432	
7243	0	31490	
7244	0	31552	
7245	0	31584	
7246	0	31644	
7247	0	31656	
7248	0	31700	
7249	0	31692	
7250	0	31572	
7251	0	31472	
7252	0	31380	
7253	0	31296	
7254	0	31328	
7255	0	31388	
7256	0	31392	
7257	0	31392	
7258	0	31376	
7259	0	31420	
7260	0	31500	
7261	0	31596	
7262	0	31644	
7263	0	31650	
7264	0	31548	
7265	0	31456	
7266	0	31448	
7267	0	31452	
7268	0	31480	
7269	0	31508	
7270	0	31512	
7271	0	31504	
7272	0	31488	
7273	0	31516	
7274	0	31560	
7275	0	31564	
7276	0	31488	
7277	0	31432	
7278	0	31432	
7279	0	31468	
7280	0	31540	
7281	0	31592	
7282	0	31656	
7283	0	31728	
7284	0	31760	
7285	0	31760	
7286	0	31776	
7287	0	31776	
7288	0	31776	
7289	0	31792	
7290	0	31784	
7291	0	31756	
7292	0	31680	
7293	0	31640	
7294	0	31608	
7295	0	31620	
7296	0	31644	
7297	0	31664	
7298	0	31672	
7299	0	31608	
7300	0	31552	
7301	0	31580	
7302	0	31616	
7303	0	31680	
7304	0	31716	
7305	0	31720	
7306	0	31740	
7307	0	31736	
7308	0	31728	
7309	0	31728	
7310	0	31736	
7311	0	31728	
7312	0	31700	
7313	0	31672	
7314	0	31672	
7315	0	31684	
7316	0	31696	
7317	0	31696	
7318	0	31700	
7319	0	31704	
7320	0	31728	
7321	0	31760	
7322	0	31820	
7323	0	31848	
7324	0	31860	
7325	0	31888	
7326	0	31896	
7327	0	31894	
7328	0	31908	
7329	0	31924	
7330	0	31948	
7331	0	31968	
7332	0	31954	
7333	0	31936	
7334	0	31904	
7335	0	31884	
7336	0	31888	
7337	0	31884	
7338	0	31904	
7339	0	31920	
7340	0	31944	
7341	0	31952	
7342	0	32008	
7343	0	32072	
7344	0	32140	
7345	0	32128	
7346	0	32084	
7347	0	32104	
7348	0	32160	
7349	0	32288	
7350	0	32476	
7351	0	32624	
7352	0	32700	
7353	0	32792	
7354	0	32876	
7355	0	32972	
7356	0	33068	
7357	0	33180	
7358	0	33240	
7359	0	33276	
7360	0	33328	
7361	0	33400	
7362	0	33396	
7363	0	33388	
7364	0	33372	
7365	0	33344	
7366	0	33312	
7367	0	33272	
7368	0	33180	
7369	0	33136	
7370	0	33148	
7371	0	33180	
7372	0	33164	
7373	0	33172	
7374	0	33188	
7375	0	33200	
7376	0	33312	
7377	0	33512	
7378	0	33764	
7379	0	34084	
7380	0	34384	
7381	0	34632	
7382	0	34824	
7383	0	34952	
7384	0	35076	
7385	0	35172	
7386	0	35296	
7387	0	35332	
7388	0	35308	
7389	0	35256	
7390	0	35144	
7391	0	35000	
7392	0	34904	
7393	0	34864	
7394	0	34792	
7395	0	34688	
7396	0	34544	
7397	0	34360	
7398	0	34144	
7399	0	33984	
7400	0	33896	
7401	0	33816	
7402	0	33768	
7403	0	33712	
7404	0	33576	
7405	0	33416	
7406	0	33208	
7407	0	33128	
7408	0	33138	
7409	0	33128	
7410	0	33068	
7411	0	32904	
7412	0	32724	
7413	0	32526	
7414	0	32432	
7415	0	32444	
7416	0	32440	
7417	0	32320	
7418	0	32252	
7419	0	32256	
7420	0	32240	
7421	0	32160	
7422	0	32028	
7423	0	31972	
7424	0	31936	
7425	0	31880	
7426	0	31804	
7427	0	31752	
7428	0	31656	
7429	0	31528	
7430	0	31412	
7431	0	31376	
7432	0	31372	
7433	0	31332	
7434	0	31244	
7435	0	31180	
7436	0	31152	
7437	0	31104	
7438	0	31056	
7439	0	31104	
7440	0	31192	
7441	0	31252	
7442	0	31272	
7443	0	31248	
7444	0	31200	
7445	0	31200	
7446	0	31240	
7447	0	31260	
7448	0	31304	
7449	0	31348	
7450	0	31392	
7451	0	31388	
7452	0	31388	
7453	0	31420	
7454	0	31432	
7455	0	31460	
7456	0	31460	
7457	0	31456	
7458	0	31524	
7459	0	31570	
7460	0	31616	
7461	0	31644	
7462	0	31660	
7463	0	31668	
7464	0	31672	
7465	0	31692	
7466	0	31756	
7467	0	31792	
7468	0	31848	
7469	0	31908	
7470	0	31912	
7471	0	31856	
7472	0	31784	
7473	0	31648	
7474	0	31516	
7475	0	31320	
7476	0	30988	
7477	0	30528	
7478	0	29900	
7479	0	29260	
7480	0	28784	
7481	0	28528	
7482	0	28476	
7483	0	28628	
7484	0	28928	
7485	0	29408	
7486	0	30048	
7487	0	30868	
7488	0	31960	
7489	0	33216	
7490	0	34656	
7491	0	36220	
7492	0	37816	
7493	0	39616	
7494	0	41800	
7495	0	44208	
7496	0	47128	
7497	0	50400	
7498	0	53584	
7499	0	56688	
7500	0	59584	
7501	0	62276	
7502	0	63940	
7503	0	64808	
7504	0	65212	
7505	0	65376	
7506	0	65400	
7507	0	65344	
7508	0	65260	
7509	0	65160	
7510	0	65012	
7511	0	64912	
7512	0	62124	
7513	0	56864	
7514	0	52552	
7515	0	49008	
7516	0	45944	
7517	0	43312	
7518	0	40826	
7519	0	38480	
7520	0	36384	
7521	0	34728	
7522	0	33408	
7523	0	32248	
7524	0	31180	
7525	0	30252	
7526	0	29560	
7527	0	29106	
7528	0	28776	
7529	0	28624	
7530	0	28580	
7531	0	28512	
7532	0	28312	
7533	0	28060	
7534	0	27864	
7535	0	27736	
7536	0	27712	
7537	0	27840	
7538	0	28004	
7539	0	28164	
7540	0	28340	
7541	0	28544	
7542	0	28720	
7543	0	28872	
7544	0	28936	
7545	0	28968	
7546	0	29008	
7547	0	28976	
7548	0	28914	
7549	0	28880	
7550	0	28872	
7551	0	28848	
7552	0	28804	
7553	0	28748	
7554	0	28724	
7555	0	28736	
7556	0	28772	
7557	0	28808	
7558	0	28808	
7559	0	28836	
7560	0	28832	
7561	0	28888	
7562	0	28924	
7563	0	28992	
7564	0	29048	
7565	0	29136	
7566	0	29200	
7567	0	29232	
7568	0	29284	
7569	0	29316	
7570	0	29392	
7571	0	29420	
7572	0	29404	
7573	0	29392	
7574	0	29436	
7575	0	29528	
7576	0	29604	
7577	0	29644	
7578	0	29688	
7579	0	29700	
7580	0	29728	
7581	0	29728	
7582	0	29788	
7583	0	29880	
7584	0	29976	
7585	0	30074	
7586	0	30124	
7587	0	30140	
7588	0	30204	
7589	0	30244	
7590	0	30288	
7591	0	30304	
7592	0	30316	
7593	0	30274	
7594	0	30252	
7595	0	30304	
7596	0	30362	
7597	0	30364	
7598	0	30356	
7599	0	30384	
7600	0	30440	
7601	0	30504	
7602	0	30640	
7603	0	30752	
7604	0	30812	
7605	0	30828	
7606	0	30906	
7607	0	31048	
7608	0	31120	
7609	0	31160	
7610	0	31140	
7611	0	31148	
7612	0	31176	
7613	0	31248	
7614	0	31284	
7615	0	31312	
7616	0	31316	
7617	0	31352	
7618	0	31360	
7619	0	31428	
7620	0	31460	
7621	0	31472	
7622	0	31542	
7623	0	31628	
7624	0	31728	
7625	0	31832	
7626	0	31896	
7627	0	31896	
7628	0	31928	
7629	0	31980	
7630	0	32032	
7631	0	32036	
7632	0	31992	
7633	0	32016	
7634	0	32072	
7635	0	32104	
7636	0	32124	
7637	0	32176	
7638	0	32224	
7639	0	32252	
7640	0	32268	
7641	0	32296	
7642	0	32404	
7643	0	32464	
7644	0	32464	
7645	0	32490	
7646	0	32492	
7647	0	32520	
7648	0	32588	
7649	0	32664	
7650	0	32744	
7651	0	32836	
7652	0	32920	
7653	0	33000	
7654	0	33032	
7655	0	33048	
7656	0	33096	
7657	0	33168	
7658	0	33272	
7659	0	33400	
7660	0	33524	
7661	0	33612	
7662	0	33616	
7663	0	33572	
7664	0	33518	
7665	0	33530	
7666	0	33602	
7667	0	33680	
7668	0	33722	
7669	0	33776	
7670	0	33828	
7671	0	33886	
7672	0	33968	
7673	0	34044	
7674	0	34140	
7675	0	34248	
7676	0	34376	
7677	0	34484	
7678	0	34580	
7679	0	34688	
7680	0	34776	
7681	0	34840	
7682	0	34920	
7683	0	35036	
7684	0	35156	
7685	0	35240	
7686	0	35348	
7687	0	35444	
7688	0	35544	
7689	0	35584	
7690	0	35632	
7691	0	35692	
7692	0	35764	
7693	0	35800	
7694	0	35820	
7695	0	35874	
7696	0	35968	
7697	0	36088	
7698	0	36136	
7699	0	36232	
7700	0	36332	
7701	0	36420	
7702	0	36488	
7703	0	36564	
7704	0	36684	
7705	0	36844	
7706	0	36920	
7707	0	36944	
7708	0	36984	
7709	0	37056	
7710	0	37112	
7711	0	37120	
7712	0	37088	
7713	0	37104	
7714	0	37188	
7715	0	37228	
7716	0	37228	
7717	0	37232	
7718	0	37248	
7719	0	37236	
7720	0	37261	
7721	0	37264	
7722	0	37316	
7723	0	37392	
7724	0	37440	
7725	0	37516	
7726	0	37576	
7727	0	37620	
7728	0	37664	
7729	0	37708	
7730	0	37756	
7731	0	37776	
7732	0	37800	
7733	0	37840	
7734	0	37864	
7735	0	37872	
7736	0	37864	
7737	0	37816	
7738	0	37704	
7739	0	37616	
7740	0	37616	
7741	0	37668	
7742	0	37680	
7743	0	37700	
7744	0	37668	
7745	0	37592	
7746	0	37476	
7747	0	37372	
7748	0	37268	
7749	0	37172	
7750	0	37076	
7751	0	36984	
7752	0	36884	
7753	0	36720	
7754	0	36560	
7755	0	36368	
7756	0	36168	
7757	0	35904	
7758	0	35632	
7759	0	35384	
7760	0	35148	
7761	0	34952	
7762	0	34752	
7763	0	34544	
7764	0	34304	
7765	0	34088	
7766	0	33856	
7767	0	33616	
7768	0	33390	
7769	0	33192	
7770	0	32972	
7771	0	32748	
7772	0	32504	
7773	0	32328	
7774	0	32112	
7775	0	31882	
7776	0	31680	
7777	0	31484	
7778	0	31306	
7779	0	31124	
7780	0	30928	
7781	0	30722	
7782	0	30584	
7783	0	30478	
7784	0	30344	
7785	0	30208	
7786	0	30052	
7787	0	29890	
7788	0	29748	
7789	0	29608	
7790	0	29488	
7791	0	29380	
7792	0	29216	
7793	0	29096	
7794	0	29016	
7795	0	28960	
7796	0	28896	
7797	0	28840	
7798	0	28812	
7799	0	28772	
7800	0	28704	
7801	0	28640	
7802	0	28596	
7803	0	28612	
7804	0	28636	
7805	0	28624	
7806	0	28572	
7807	0	28580	
7808	0	28620	
7809	0	28608	
7810	0	28592	
7811	0	28524	
7812	0	28404	
7813	0	28296	
7814	0	28256	
7815	0	28256	
7816	0	28288	
7817	0	28302	
7818	0	28308	
7819	0	28312	
7820	0	28308	
7821	0	28312	
7822	0	28320	
7823	0	28394	
7824	0	28468	
7825	0	28528	
7826	0	28572	
7827	0	28632	
7828	0	28738	
7829	0	28836	
7830	0	28852	
7831	0	28832	
7832	0	28800	
7833	0	28796	
7834	0	28784	
7835	0	28832	
7836	0	28848	
7837	0	28860	
7838	0	28904	
7839	0	28956	
7840	0	28960	
7841	0	28964	
7842	0	28952	
7843	0	28940	
7844	0	28968	
7845	0	29020	
7846	0	29140	
7847	0	29236	
7848	0	29248	
7849	0	29244	
7850	0	29282	
7851	0	29328	
7852	0	29336	
7853	0	29376	
7854	0	29452	
7855	0	29508	
7856	0	29612	
7857	0	29708	
7858	0	29792	
7859	0	29856	
7860	0	29908	
7861	0	29944	
7862	0	29988	
7863	0	30020	
7864	0	30010	
7865	0	30052	
7866	0	30092	
7867	0	30116	
7868	0	30148	
7869	0	30148	
7870	0	30148	
7871	0	30182	
7872	0	30188	
7873	0	30248	
7874	0	30304	
7875	0	30264	
7876	0	30252	
7877	0	30252	
7878	0	30272	
7879	0	30288	
7880	0	30336	
7881	0	30420	
7882	0	30556	
7883	0	30656	
7884	0	30704	
7885	0	30744	
7886	0	30776	
7887	0	30744	
7888	0	30736	
7889	0	30800	
7890	0	30816	
7891	0	30768	
7892	0	30784	
7893	0	30817	
7894	0	30844	
7895	0	30864	
7896	0	30860	
7897	0	30860	
7898	0	30862	
7899	0	30864	
7900	0	30932	
7901	0	31008	
7902	0	31028	
7903	0	31044	
7904	0	31032	
7905	0	31028	
7906	0	31060	
7907	0	31108	
7908	0	31204	
7909	0	31296	
7910	0	31328	
7911	0	31312	
7912	0	31268	
7913	0	31272	
7914	0	31300	
7915	0	31300	
7916	0	31340	
7917	0	31400	
7918	0	31428	
7919	0	31460	
7920	0	31532	
7921	0	31572	
7922	0	31617	
7923	0	31658	
7924	0	31668	
7925	0	31724	
7926	0	31720	
7927	0	31724	
7928	0	31704	
7929	0	31696	
7930	0	31708	
7931	0	31716	
7932	0	31732	
7933	0	31706	
7934	0	31688	
7935	0	31722	
7936	0	31732	
7937	0	31712	
7938	0	31644	
7939	0	31672	
7940	0	31716	
7941	0	31720	
7942	0	31772	
7943	0	31824	
7944	0	31856	
7945	0	31896	
7946	0	31956	
7947	0	31956	
7948	0	31944	
7949	0	31968	
7950	0	31968	
7951	0	31968	
7952	0	31964	
7953	0	31936	
7954	0	31888	
7955	0	31784	
7956	0	31744	
7957	0	31800	
7958	0	31824	
7959	0	31852	
7960	0	31884	
7961	0	31888	
7962	0	31948	
7963	0	32052	
7964	0	32120	
7965	0	32170	
7966	0	32216	
7967	0	32232	
7968	0	32176	
7969	0	32096	
7970	0	31994	
7971	0	31932	
7972	0	31904	
7973	0	31980	
7974	0	32012	
7975	0	32020	
7976	0	32072	
7977	0	32104	
7978	0	32110	
7979	0	32136	
7980	0	32168	
7981	0	32192	
7982	0	32224	
7983	0	32248	
7984	0	32282	
7985	0	32288	
7986	0	32240	
7987	0	32208	
7988	0	32220	
7989	0	32192	
7990	0	32128	
7991	0	32084	
7992	0	32016	
7993	0	31968	
7994	0	31952	
7995	0	31952	
7996	0	31960	
7997	0	31992	
7998	0	32016	
7999	0	32028	
8000	0	32032	
8001	0	32076	
8002	0	32140	
8003	0	32152	
8004	0	32128	
8005	0	32120	
8006	0	32140	
8007	0	32158	
8008	0	32168	
8009	0	32168	
8010	0	32188	
8011	0	32168	
8012	0	32176	
8013	0	32200	
8014	0	32184	
8015	0	32112	
8016	0	32104	
8017	0	32076	
8018	0	32064	
8019	0	32080	
8020	0	32116	
8021	0	32124	
8022	0	32140	
8023	0	32160	
8024	0	32180	
8025	0	32176	
8026	0	32180	
8027	0	32200	
8028	0	32220	
8029	0	32234	
8030	0	32240	
8031	0	32256	
8032	0	32236	
8033	0	32260	
8034	0	32256	
8035	0	32234	
8036	0	32220	
8037	0	32172	
8038	0	32116	
8039	0	32122	
8040	0	32160	
8041	0	32192	
8042	0	32204	
8043	0	32222	
8044	0	32232	
8045	0	32272	
8046	0	32280	
8047	0	32288	
8048	0	32336	
8049	0	32380	
8050	0	32392	
8051	0	32388	
8052	0	32372	
8053	0	32396	
8054	0	32440	
8055	0	32464	
8056	0	32416	
8057	0	32268	
8058	0	32176	
8059	0	32184	
8060	0	32220	
8061	0	32192	
8062	0	32172	
8063	0	32244	
8064	0	32296	
8065	0	32332	
8066	0	32440	
8067	0	32460	
8068	0	32472	
8069	0	32480	
8070	0	32540	
8071	0	32544	
8072	0	32528	
8073	0	32512	
8074	0	32504	
8075	0	32456	
8076	0	32400	
8077	0	32358	
8078	0	32340	
8079	0	32352	
8080	0	32416	
8081	0	32478	
8082	0	32504	
8083	0	32488	
8084	0	32500	
8085	0	32554	
8086	0	32580	
8087	0	32552	
8088	0	32552	
8089	0	32568	
8090	0	32548	
8091	0	32544	
8092	0	32504	
8093	0	32516	
8094	0	32512	
8095	0	32498	
8096	0	32512	
8097	0	32524	
8098	0	32516	
8099	0	32570	
8100	0	32656	
8101	0	32756	
8102	0	32928	
8103	0	33080	
8104	0	33152	
8105	0	33244	
8106	0	33316	
8107	0	33380	
8108	0	33448	
8109	0	33568	
8110	0	33664	
8111	0	33712	
8112	0	33740	
8113	0	33752	
8114	0	33712	
8115	0	33632	
8116	0	33560	
8117	0	33504	
8118	0	33412	
8119	0	33320	
8120	0	33292	
8121	0	33328	
8122	0	33336	
8123	0	33376	
8124	0	33412	
8125	0	33496	
8126	0	33620	
8127	0	33776	
8128	0	33984	
8129	0	34236	
8130	0	34500	
8131	0	34784	
8132	0	35020	
8133	0	35200	
8134	0	35296	
8135	0	35292	
8136	0	35292	
8137	0	35360	
8138	0	35520	
8139	0	35572	
8140	0	35524	
8141	0	35444	
8142	0	35356	
8143	0	35232	
8144	0	35148	
8145	0	35112	
8146	0	35060	
8147	0	34964	
8148	0	34800	
8149	0	34624	
8150	0	34480	
8151	0	34404	
8152	0	34328	
8153	0	34220	
8154	0	34080	
8155	0	33968	
8156	0	33840	
8157	0	33720	
8158	0	33592	
8159	0	33540	
8160	0	33530	
8161	0	33488	
8162	0	33408	
8163	0	33264	
8164	0	33160	
8165	0	33088	
8166	0	33032	
8167	0	33032	
8168	0	32996	
8169	0	32908	
8170	0	32792	
8171	0	32620	
8172	0	32496	
8173	0	32428	
8174	0	32352	
8175	0	32296	
8176	0	32208	
8177	0	31996	
8178	0	31764	
8179	0	31594	
8180	0	31460	
8181	0	31360	
8182	0	31322	
8183	0	31296	
8184	0	31320	
8185	0	31356	
8186	0	31384	
8187	0	31426	
8188	0	31504	
8189	0	31520	
8190	0	31516	
8191	0	31498	
8192	0	31472	
8193	0	31432	
8194	0	31392	
8195	0	31404	
8196	0	31444	
8197	0	31448	
8198	0	31456	
8199	0	31520	
8200	0	31560	
8201	0	31568	
8202	0	31552	
8203	0	31556	
8204	0	31588	
8205	0	31648	
8206	0	31700	
8207	0	31722	
8208	0	31712	
8209	0	31732	
8210	0	31736	
8211	0	31692	
8212	0	31676	
8213	0	31712	
8214	0	31728	
8215	0	31700	
8216	0	31706	
8217	0	31744	
8218	0	31824	
8219	0	31900	
8220	0	31946	
8221	0	31972	
8222	0	31968	
8223	0	31956	
8224	0	31888	
8225	0	31760	
8226	0	31584	
8227	0	31266	
8228	0	30842	
8229	0	30268	
8230	0	29584	
8231	0	29012	
8232	0	28632	
8233	0	28390	
8234	0	28376	
8235	0	28588	
8236	0	29010	
8237	0	29584	
8238	0	30360	
8239	0	31352	
8240	0	32544	
8241	0	33884	
8242	0	35440	
8243	0	37064	
8244	0	38808	
8245	0	40912	
8246	0	43328	
8247	0	46088	
8248	0	49292	
8249	0	52520	
8250	0	55584	
8251	0	58516	
8252	0	61348	
8253	0	63344	
8254	0	64400	
8255	0	64892	
8256	0	65088	
8257	0	65160	
8258	0	65120	
8259	0	65060	
8260	0	64948	
8261	0	64832	
8262	0	64728	
8263	0	64324	
8264	0	58948	
8265	0	54616	
8266	0	50968	
8267	0	47832	
8268	0	45184	
8269	0	42816	
8270	0	40508	
8271	0	38416	
8272	0	36568	
8273	0	34964	
8274	0	33616	
8275	0	32440	
8276	0	31434	
8277	0	30616	
8278	0	30048	
8279	0	29584	
8280	0	29272	
8281	0	29132	
8282	0	29040	
8283	0	28828	
8284	0	28532	
8285	0	28268	
8286	0	28096	
8287	0	28032	
8288	0	28096	
8289	0	28216	
8290	0	28392	
8291	0	28600	
8292	0	28772	
8293	0	28918	
8294	0	29012	
8295	0	29032	
8296	0	29032	
8297	0	29024	
8298	0	29020	
8299	0	28996	
8300	0	28962	
8301	0	28972	
8302	0	28984	
8303	0	29008	
8304	0	29060	
8305	0	29084	
8306	0	29056	
8307	0	29040	
8308	0	28942	
8309	0	28884	
8310	0	28860	
8311	0	28912	
8312	0	28936	
8313	0	28972	
8314	0	28976	
8315	0	29004	
8316	0	29056	
8317	0	29066	
8318	0	29152	
8319	0	29252	
8320	0	29340	
8321	0	29404	
8322	0	29458	
8323	0	29512	
8324	0	29530	
8325	0	29540	
8326	0	29560	
8327	0	29616	
8328	0	29682	
8329	0	29696	
8330	0	29692	
8331	0	29664	
8332	0	29674	
8333	0	29732	
8334	0	29792	
8335	0	29824	
8336	0	29854	
8337	0	29904	
8338	0	29986	
8339	0	30048	
8340	0	30084	
8341	0	30116	
8342	0	30176	
8343	0	30260	
8344	0	30368	
8345	0	30436	
8346	0	30464	
8347	0	30460	
8348	0	30480	
8349	0	30520	
8350	0	30584	
8351	0	30664	
8352	0	30664	
8353	0	30676	
8354	0	30676	
8355	0	30720	
8356	0	30800	
8357	0	30856	
8358	0	30920	
8359	0	30988	
8360	0	31034	
8361	0	31056	
8362	0	31088	
8363	0	31104	
8364	0	31136	
8365	0	31232	
8366	0	31308	
8367	0	31356	
8368	0	31448	
8369	0	31492	
8370	0	31528	
8371	0	31580	
8372	0	31632	
8373	0	31656	
8374	0	31700	
8375	0	31720	
8376	0	31738	
8377	0	31772	
8378	0	31840	
8379	0	31900	
8380	0	31916	
8381	0	31948	
8382	0	31996	
8383	0	32096	
8384	0	32200	
8385	0	32268	
8386	0	32248	
8387	0	32236	
8388	0	32280	
8389	0	32340	
8390	0	32404	
8391	0	32464	
8392	0	32460	
8393	0	32460	
8394	0	32496	
8395	0	32528	
8396	0	32560	
8397	0	32640	
8398	0	32700	
8399	0	32760	
8400	0	32876	
8401	0	32980	
8402	0	33048	
8403	0	33100	
8404	0	33184	
8405	0	33248	
8406	0	33340	
8407	0	33432	
8408	0	33460	
8409	0	33504	
8410	0	33564	
8411	0	33636	
8412	0	33684	
8413	0	33720	
8414	0	33764	
8415	0	33796	
8416	0	33872	
8417	0	33936	
8418	0	33968	
8419	0	34036	
8420	0	34106	
8421	0	34180	
8422	0	34268	
8423	0	34332	
8424	0	34354	
8425	0	34388	
8426	0	34448	
8427	0	34516	
8428	0	34560	
8429	0	34640	
8430	0	34728	
8431	0	34842	
8432	0	34948	
8433	0	35040	
8434	0	35096	
8435	0	35144	
8436	0	35236	
8437	0	35360	
8438	0	35480	
8439	0	35570	
8440	0	35636	
8441	0	35704	
8442	0	35776	
8443	0	35848	
8444	0	35904	
8445	0	35988	
8446	0	36112	
8447	0	36244	
8448	0	36360	
8449	0	36412	
8450	0	36476	
8451	0	36538	
8452	0	36600	
8453	0	36648	
8454	0	36708	
8455	0	36760	
8456	0	36832	
8457	0	36904	
8458	0	36980	
8459	0	37064	
8460	0	37148	
8461	0	37168	
8462	0	37192	
8463	0	37216	
8464	0	37280	
8465	0	37320	
8466	0	37380	
8467	0	37444	
8468	0	37484	
8469	0	37540	
8470	0	37584	
8471	0	37624	
8472	0	37648	
8473	0	37664	
8474	0	37660	
8475	0	37692	
8476	0	37708	
8477	0	37696	
8478	0	37664	
8479	0	37680	
8480	0	37736	
8481	0	37808	
8482	0	37832	
8483	0	37844	
8484	0	37856	
8485	0	37904	
8486	0	37930	
8487	0	37912	
8488	0	37872	
8489	0	37882	
8490	0	37880	
8491	0	37856	
8492	0	37780	
8493	0	37700	
8494	0	37656	
8495	0	37616	
8496	0	37596	
8497	0	37500	
8498	0	37368	
8499	0	37264	
8500	0	37124	
8501	0	37008	
8502	0	36924	
8503	0	36848	
8504	0	36754	
8505	0	36644	
8506	0	36484	
8507	0	36312	
8508	0	36136	
8509	0	35932	
8510	0	35712	
8511	0	35472	
8512	0	35208	
8513	0	34988	
8514	0	34768	
8515	0	34516	
8516	0	34204	
8517	0	33958	
8518	0	33704	
8519	0	33416	
8520	0	33184	
8521	0	32960	
8522	0	32740	
8523	0	32540	
8524	0	32320	
8525	0	32116	
8526	0	31944	
8527	0	31754	
8528	0	31584	
8529	0	31424	
8530	0	31224	
8531	0	31052	
8532	0	30928	
8533	0	30772	
8534	0	30540	
8535	0	30312	
8536	0	30080	
8537	0	29844	
8538	0	29676	
8539	0	29524	
8540	0	29376	
8541	0	29230	
8542	0	29144	
8543	0	29108	
8544	0	29044	
8545	0	28972	
8546	0	28890	
8547	0	28848	
8548	0	28810	
8549	0	28752	
8550	0	28700	
8551	0	28640	
8552	0	28556	
8553	0	28460	
8554	0	28376	
8555	0	28332	
8556	0	28300	
8557	0	28220	
8558	0	28148	
8559	0	28124	
8560	0	28120	
8561	0	28136	
8562	0	28148	
8563	0	28136	
8564	0	28132	
8565	0	28120	
8566	0	28120	
8567	0	28152	
8568	0	28152	
8569	0	28104	
8570	0	28088	
8571	0	28068	
8572	0	28088	
8573	0	28112	
8574	0	28148	
8575	0	28168	
8576	0	28168	
8577	0	28192	
8578	0	28154	
8579	0	28112	
8580	0	28120	
8581	0	28184	
8582	0	28256	
8583	0	28304	
8584	0	28340	
8585	0	28404	
8586	0	28472	
8587	0	28504	
8588	0	28564	
8589	0	28588	
8590	0	28564	
8591	0	28596	
