# OpenSignals Text File Format. Version 1
# {"00:07:80:4B:15:F7": {"position": 0, "device": "biosignalsplux", "device name": "00:07:80:4B:15:F7", "device connection": "BTH00:07:80:4B:15:F7", "sampling rate": 1000, "resolution": [16], "firmware version": 775, "comments": "", "keywords": "", "mode": 0, "sync interval": 2, "date": "2023-3-14", "time": "15:42:51.497", "channels": [1], "sensor": ["ECG"], "label": ["CH1"], "column": ["nSeq", "DI", "CH1"], "special": [{"SpO2": [80, 40, 5, 4, 3, 3]}, {"SpO2": [80, 40, 5, 4, 3, 3]}, {"SpO2": [80, 40, 5, 4, 3, 3]}, {"SpO2": [80, 40, 5, 4, 3, 3]}, {"SpO2": [80, 40, 5, 4, 3, 3]}, {"SpO2": [80, 40, 5, 4, 3, 3]}, {"SpO2": [80, 40, 5, 4, 3, 3]}, {"SpO2": [80, 40, 5, 4, 3, 3]}], "digital IO": [0, 1], "sleeve color": ["green"], "convertedValues": 0}}
# EndOfHeader
0	0	32248	
1	0	32240	
2	0	32200	
3	0	32144	
4	0	32132	
5	0	32196	
6	0	32242	
7	0	32288	
8	0	32344	
9	0	32372	
10	0	32384	
11	0	32420	
12	0	32424	
13	0	32376	
14	0	32372	
15	0	32388	
16	0	32420	
17	0	32420	
18	0	32372	
19	0	32300	
20	0	32220	
21	0	32192	
22	0	32204	
23	0	32282	
24	0	32328	
25	0	32332	
26	0	32368	
27	0	32448	
28	0	32496	
29	0	32560	
30	0	32596	
31	0	32632	
32	0	32676	
33	0	32732	
34	0	32752	
35	0	32844	
36	0	32940	
37	0	33048	
38	0	33068	
39	0	33036	
40	0	33048	
41	0	33120	
42	0	33240	
43	0	33412	
44	0	33508	
45	0	33620	
46	0	33716	
47	0	33796	
48	0	33900	
49	0	33976	
50	0	34004	
51	0	34000	
52	0	33920	
53	0	33800	
54	0	33720	
55	0	33656	
56	0	33560	
57	0	33460	
58	0	33392	
59	0	33420	
60	0	33448	
61	0	33492	
62	0	33600	
63	0	33776	
64	0	34052	
65	0	34368	
66	0	34644	
67	0	34904	
68	0	35112	
69	0	35240	
70	0	35352	
71	0	35444	
72	0	35552	
73	0	35656	
74	0	35740	
75	0	35712	
76	0	35624	
77	0	35504	
78	0	35428	
79	0	35376	
80	0	35208	
81	0	34928	
82	0	34664	
83	0	34420	
84	0	34236	
85	0	34192	
86	0	34200	
87	0	34208	
88	0	34176	
89	0	34100	
90	0	33976	
91	0	33808	
92	0	33688	
93	0	33576	
94	0	33472	
95	0	33440	
96	0	33424	
97	0	33360	
98	0	33252	
99	0	33076	
100	0	32972	
101	0	32945	
102	0	32892	
103	0	32824	
104	0	32760	
105	0	32736	
106	0	32640	
107	0	32576	
108	0	32548	
109	0	32540	
110	0	32468	
111	0	32344	
112	0	32192	
113	0	32016	
114	0	31808	
115	0	31676	
116	0	31544	
117	0	31420	
118	0	31368	
119	0	31328	
120	0	31360	
121	0	31404	
122	0	31440	
123	0	31480	
124	0	31504	
125	0	31504	
126	0	31456	
127	0	31416	
128	0	31424	
129	0	31492	
130	0	31612	
131	0	31724	
132	0	31776	
133	0	31780	
134	0	31728	
135	0	31704	
136	0	31682	
137	0	31688	
138	0	31720	
139	0	31744	
140	0	31722	
141	0	31714	
142	0	31756	
143	0	31820	
144	0	31880	
145	0	31892	
146	0	31892	
147	0	31920	
148	0	31988	
149	0	32072	
150	0	32180	
151	0	32232	
152	0	32224	
153	0	32184	
154	0	32168	
155	0	32148	
156	0	32084	
157	0	32032	
158	0	32002	
159	0	31968	
160	0	31904	
161	0	31720	
162	0	31376	
163	0	30920	
164	0	30348	
165	0	29648	
166	0	29040	
167	0	28662	
168	0	28472	
169	0	28438	
170	0	28608	
171	0	28968	
172	0	29528	
173	0	30282	
174	0	31258	
175	0	32336	
176	0	33564	
177	0	35028	
178	0	36676	
179	0	38448	
180	0	40580	
181	0	43018	
182	0	45836	
183	0	49104	
184	0	52448	
185	0	55648	
186	0	58744	
187	0	61664	
188	0	63568	
189	0	64560	
190	0	65028	
191	0	65232	
192	0	65268	
193	0	65232	
194	0	65152	
195	0	65040	
196	0	64924	
197	0	64800	
198	0	63700	
199	0	58444	
200	0	54196	
201	0	50704	
202	0	47680	
203	0	45152	
204	0	42860	
205	0	40624	
206	0	38540	
207	0	36712	
208	0	35206	
209	0	33868	
210	0	32684	
211	0	31566	
212	0	30656	
213	0	29970	
214	0	29472	
215	0	29152	
216	0	28960	
217	0	28736	
218	0	28416	
219	0	28116	
220	0	27920	
221	0	27848	
222	0	27908	
223	0	28032	
224	0	28200	
225	0	28388	
226	0	28564	
227	0	28752	
228	0	28980	
229	0	29160	
230	0	29210	
231	0	29258	
232	0	29264	
233	0	29232	
234	0	29148	
235	0	29112	
236	0	29136	
237	0	29120	
238	0	29040	
239	0	28952	
240	0	28826	
241	0	28780	
242	0	28770	
243	0	28772	
244	0	28800	
245	0	28832	
246	0	28892	
247	0	28944	
248	0	29014	
249	0	29096	
250	0	29152	
251	0	29196	
252	0	29240	
253	0	29276	
254	0	29316	
255	0	29320	
256	0	29304	
257	0	29328	
258	0	29344	
259	0	29392	
260	0	29408	
261	0	29388	
262	0	29404	
263	0	29476	
264	0	29580	
265	0	29676	
266	0	29752	
267	0	29824	
268	0	29880	
269	0	29912	
270	0	29900	
271	0	29920	
272	0	29962	
273	0	30008	
274	0	30056	
275	0	30076	
276	0	30128	
277	0	30176	
278	0	30172	
279	0	30168	
280	0	30160	
281	0	30168	
282	0	30216	
283	0	30248	
284	0	30340	
285	0	30456	
286	0	30570	
287	0	30648	
288	0	30776	
289	0	30912	
290	0	30952	
291	0	30904	
292	0	30856	
293	0	30856	
294	0	30900	
295	0	30980	
296	0	31060	
297	0	31140	
298	0	31200	
299	0	31230	
300	0	31240	
301	0	31216	
302	0	31200	
303	0	31160	
304	0	31204	
305	0	31312	
306	0	31436	
307	0	31544	
308	0	31596	
309	0	31660	
310	0	31720	
311	0	31776	
312	0	31852	
313	0	31928	
314	0	31936	
315	0	31920	
316	0	31956	
317	0	32004	
318	0	32040	
319	0	32116	
320	0	32196	
321	0	32260	
322	0	32304	
323	0	32312	
324	0	32360	
325	0	32492	
326	0	32660	
327	0	32736	
328	0	32704	
329	0	32656	
330	0	32680	
331	0	32756	
332	0	32848	
333	0	32932	
334	0	32928	
335	0	32892	
336	0	32868	
337	0	32944	
338	0	32944	
339	0	32988	
340	0	33092	
341	0	33184	
342	0	33252	
343	0	33320	
344	0	33412	
345	0	33502	
346	0	33592	
347	0	33688	
348	0	33768	
349	0	33856	
350	0	33952	
351	0	33988	
352	0	34016	
353	0	34052	
354	0	34112	
355	0	34176	
356	0	34216	
357	0	34312	
358	0	34364	
359	0	34400	
360	0	34412	
361	0	34432	
362	0	34440	
363	0	34442	
364	0	34544	
365	0	34684	
366	0	34784	
367	0	34872	
368	0	34956	
369	0	35064	
370	0	35166	
371	0	35252	
372	0	35308	
373	0	35360	
374	0	35408	
375	0	35468	
376	0	35556	
377	0	35648	
378	0	35684	
379	0	35736	
380	0	35788	
381	0	35820	
382	0	35824	
383	0	35866	
384	0	35944	
385	0	36060	
386	0	36092	
387	0	36160	
388	0	36284	
389	0	36448	
390	0	36552	
391	0	36632	
392	0	36704	
393	0	36732	
394	0	36720	
395	0	36744	
396	0	36776	
397	0	36800	
398	0	36796	
399	0	36824	
400	0	36868	
401	0	36904	
402	0	36976	
403	0	37016	
404	0	36996	
405	0	37044	
406	0	37082	
407	0	37096	
408	0	37112	
409	0	37128	
410	0	37112	
411	0	37104	
412	0	37144	
413	0	37184	
414	0	37184	
415	0	37104	
416	0	37024	
417	0	36968	
418	0	36880	
419	0	36860	
420	0	36860	
421	0	36880	
422	0	36820	
423	0	36732	
424	0	36688	
425	0	36668	
426	0	36628	
427	0	36610	
428	0	36628	
429	0	36592	
430	0	36544	
431	0	36472	
432	0	36410	
433	0	36328	
434	0	36216	
435	0	36056	
436	0	35996	
437	0	35904	
438	0	35700	
439	0	35520	
440	0	35396	
441	0	35252	
442	0	35088	
443	0	34908	
444	0	34728	
445	0	34536	
446	0	34368	
447	0	34152	
448	0	33940	
449	0	33748	
450	0	33552	
451	0	33388	
452	0	33260	
453	0	33108	
454	0	32864	
455	0	32612	
456	0	32372	
457	0	32172	
458	0	31988	
459	0	31800	
460	0	31636	
461	0	31436	
462	0	31296	
463	0	31200	
464	0	31064	
465	0	30920	
466	0	30848	
467	0	30736	
468	0	30568	
469	0	30432	
470	0	30288	
471	0	30204	
472	0	30112	
473	0	30032	
474	0	29916	
475	0	29836	
476	0	29776	
477	0	29670	
478	0	29560	
479	0	29464	
480	0	29402	
481	0	29384	
482	0	29396	
483	0	29330	
484	0	29250	
485	0	29144	
486	0	28992	
487	0	28872	
488	0	28832	
489	0	28844	
490	0	28868	
491	0	28912	
492	0	28948	
493	0	28984	
494	0	28964	
495	0	28908	
496	0	28872	
497	0	28888	
498	0	28852	
499	0	28800	
500	0	28784	
501	0	28764	
502	0	28704	
503	0	28736	
504	0	28824	
505	0	28904	
506	0	28948	
507	0	28992	
508	0	29068	
509	0	29112	
510	0	29162	
511	0	29218	
512	0	29220	
513	0	29256	
514	0	29276	
515	0	29272	
516	0	29292	
517	0	29300	
518	0	29344	
519	0	29372	
520	0	29372	
521	0	29376	
522	0	29384	
523	0	29392	
524	0	29392	
525	0	29440	
526	0	29504	
527	0	29568	
528	0	29620	
529	0	29680	
530	0	29728	
531	0	29768	
532	0	29792	
533	0	29816	
534	0	29868	
535	0	29866	
536	0	29840	
537	0	29836	
538	0	29876	
539	0	29900	
540	0	29924	
541	0	29952	
542	0	29968	
543	0	30018	
544	0	30048	
545	0	30156	
546	0	30244	
547	0	30256	
548	0	30280	
549	0	30348	
550	0	30416	
551	0	30448	
552	0	30516	
553	0	30600	
554	0	30632	
555	0	30632	
556	0	30604	
557	0	30620	
558	0	30636	
559	0	30668	
560	0	30672	
561	0	30720	
562	0	30748	
563	0	30724	
564	0	30728	
565	0	30768	
566	0	30776	
567	0	30798	
568	0	30812	
569	0	30860	
570	0	30896	
571	0	30940	
572	0	31024	
573	0	31080	
574	0	31144	
575	0	31184	
576	0	31152	
577	0	31132	
578	0	31120	
579	0	31132	
580	0	31128	
581	0	31176	
582	0	31232	
583	0	31296	
584	0	31300	
585	0	31258	
586	0	31260	
587	0	31288	
588	0	31344	
589	0	31382	
590	0	31426	
591	0	31440	
592	0	31444	
593	0	31424	
594	0	31418	
595	0	31458	
596	0	31468	
597	0	31394	
598	0	31320	
599	0	31328	
600	0	31392	
601	0	31460	
602	0	31520	
603	0	31584	
604	0	31662	
605	0	31728	
606	0	31812	
607	0	31896	
608	0	31948	
609	0	31932	
610	0	31916	
611	0	31904	
612	0	31914	
613	0	31936	
614	0	31960	
615	0	31936	
616	0	31884	
617	0	31832	
618	0	31768	
619	0	31744	
620	0	31744	
621	0	31736	
622	0	31784	
623	0	31848	
624	0	31888	
625	0	31932	
626	0	32008	
627	0	32048	
628	0	32065	
629	0	32032	
630	0	31968	
631	0	31916	
632	0	31912	
633	0	31936	
634	0	31944	
635	0	31936	
636	0	31932	
637	0	31904	
638	0	31872	
639	0	31868	
640	0	31846	
641	0	31812	
642	0	31812	
643	0	31840	
644	0	31836	
645	0	31840	
646	0	31792	
647	0	31720	
648	0	31740	
649	0	31792	
650	0	31816	
651	0	31868	
652	0	31940	
653	0	31940	
654	0	31906	
655	0	31860	
656	0	31842	
657	0	31844	
658	0	31796	
659	0	31786	
660	0	31784	
661	0	31812	
662	0	31828	
663	0	31852	
664	0	31848	
665	0	31848	
666	0	31912	
667	0	31952	
668	0	32008	
669	0	32036	
670	0	31964	
671	0	31952	
672	0	32024	
673	0	32012	
674	0	31928	
675	0	31852	
676	0	31832	
677	0	31848	
678	0	31792	
679	0	31778	
680	0	31820	
681	0	31802	
682	0	31744	
683	0	31672	
684	0	31636	
685	0	31716	
686	0	31784	
687	0	31792	
688	0	31820	
689	0	31876	
690	0	31912	
691	0	31944	
692	0	31992	
693	0	32044	
694	0	32088	
695	0	32072	
696	0	32002	
697	0	32016	
698	0	32000	
699	0	31968	
700	0	31948	
701	0	31956	
702	0	31972	
703	0	31964	
704	0	31912	
705	0	31952	
706	0	32008	
707	0	32034	
708	0	32056	
709	0	32064	
710	0	32044	
711	0	32008	
712	0	31988	
713	0	31980	
714	0	32016	
715	0	32040	
716	0	32020	
717	0	32024	
718	0	32040	
719	0	32088	
720	0	32112	
721	0	32112	
722	0	32170	
723	0	32208	
724	0	32224	
725	0	32232	
726	0	32320	
727	0	32382	
728	0	32364	
729	0	32376	
730	0	32360	
731	0	32312	
732	0	32280	
733	0	32280	
734	0	32268	
735	0	32268	
736	0	32244	
737	0	32208	
738	0	32192	
739	0	32192	
740	0	32148	
741	0	32100	
742	0	32112	
743	0	32204	
744	0	32264	
745	0	32320	
746	0	32332	
747	0	32320	
748	0	32352	
749	0	32400	
750	0	32388	
751	0	32392	
752	0	32360	
753	0	32352	
754	0	32300	
755	0	32216	
756	0	32146	
757	0	32124	
758	0	32112	
759	0	32160	
760	0	32216	
761	0	32276	
762	0	32356	
763	0	32392	
764	0	32432	
765	0	32536	
766	0	32592	
767	0	32560	
768	0	32512	
769	0	32448	
770	0	32448	
771	0	32444	
772	0	32384	
773	0	32360	
774	0	32360	
775	0	32344	
776	0	32312	
777	0	32284	
778	0	32284	
779	0	32298	
780	0	32352	
781	0	32376	
782	0	32368	
783	0	32392	
784	0	32384	
785	0	32360	
786	0	32348	
787	0	32376	
788	0	32464	
789	0	32548	
790	0	32604	
791	0	32594	
792	0	32540	
793	0	32548	
794	0	32600	
795	0	32564	
796	0	32468	
797	0	32424	
798	0	32388	
799	0	32332	
800	0	32272	
801	0	32256	
802	0	32288	
803	0	32296	
804	0	32272	
805	0	32264	
806	0	32316	
807	0	32360	
808	0	32448	
809	0	32532	
810	0	32624	
811	0	32688	
812	0	32728	
813	0	32792	
814	0	32874	
815	0	33020	
816	0	33112	
817	0	33144	
818	0	33160	
819	0	33188	
820	0	33248	
821	0	33324	
822	0	33376	
823	0	33460	
824	0	33572	
825	0	33680	
826	0	33744	
827	0	33764	
828	0	33784	
829	0	33808	
830	0	33796	
831	0	33712	
832	0	33624	
833	0	33532	
834	0	33472	
835	0	33416	
836	0	33378	
837	0	33328	
838	0	33376	
839	0	33452	
840	0	33492	
841	0	33568	
842	0	33756	
843	0	33968	
844	0	34244	
845	0	34530	
846	0	34804	
847	0	34964	
848	0	35042	
849	0	35160	
850	0	35264	
851	0	35360	
852	0	35408	
853	0	35404	
854	0	35360	
855	0	35280	
856	0	35136	
857	0	35008	
858	0	34864	
859	0	34800	
860	0	34812	
861	0	34768	
862	0	34624	
863	0	34448	
864	0	34320	
865	0	34252	
866	0	34108	
867	0	34008	
868	0	33916	
869	0	33828	
870	0	33712	
871	0	33618	
872	0	33500	
873	0	33400	
874	0	33332	
875	0	33288	
876	0	33210	
877	0	33040	
878	0	32876	
879	0	32776	
880	0	32712	
881	0	32664	
882	0	32624	
883	0	32568	
884	0	32496	
885	0	32416	
886	0	32340	
887	0	32290	
888	0	32192	
889	0	32092	
890	0	32000	
891	0	31904	
892	0	31776	
893	0	31656	
894	0	31524	
895	0	31404	
896	0	31352	
897	0	31340	
898	0	31316	
899	0	31290	
900	0	31256	
901	0	31264	
902	0	31272	
903	0	31256	
904	0	31296	
905	0	31320	
906	0	31360	
907	0	31444	
908	0	31508	
909	0	31520	
910	0	31494	
911	0	31472	
912	0	31452	
913	0	31496	
914	0	31540	
915	0	31580	
916	0	31592	
917	0	31576	
918	0	31512	
919	0	31492	
920	0	31508	
921	0	31504	
922	0	31520	
923	0	31564	
924	0	31620	
925	0	31688	
926	0	31720	
927	0	31732	
928	0	31768	
929	0	31828	
930	0	31892	
931	0	31936	
932	0	31920	
933	0	31954	
934	0	31984	
935	0	31958	
936	0	31876	
937	0	31712	
938	0	31560	
939	0	31360	
940	0	31072	
941	0	30680	
942	0	30112	
943	0	29452	
944	0	28896	
945	0	28552	
946	0	28372	
947	0	28318	
948	0	28480	
949	0	28880	
950	0	29450	
951	0	30224	
952	0	31204	
953	0	32276	
954	0	33592	
955	0	35084	
956	0	36690	
957	0	38400	
958	0	40480	
959	0	42956	
960	0	45872	
961	0	49236	
962	0	52632	
963	0	55848	
964	0	58940	
965	0	61816	
966	0	63584	
967	0	64456	
968	0	64880	
969	0	65048	
970	0	65092	
971	0	65040	
972	0	64968	
973	0	64856	
974	0	64736	
975	0	64608	
976	0	62040	
977	0	57200	
978	0	53280	
979	0	50016	
980	0	47208	
981	0	44864	
982	0	42688	
983	0	40520	
984	0	38456	
985	0	36552	
986	0	34904	
987	0	33504	
988	0	32308	
989	0	31240	
990	0	30416	
991	0	29818	
992	0	29376	
993	0	29080	
994	0	28816	
995	0	28516	
996	0	28152	
997	0	27852	
998	0	27656	
999	0	27576	
1000	0	27594	
1001	0	27712	
1002	0	27918	
1003	0	28176	
1004	0	28416	
1005	0	28624	
1006	0	28868	
1007	0	29024	
1008	0	29080	
1009	0	29120	
1010	0	29160	
1011	0	29176	
1012	0	29184	
1013	0	29146	
1014	0	29068	
1015	0	28948	
1016	0	28872	
1017	0	28800	
1018	0	28704	
1019	0	28632	
1020	0	28640	
1021	0	28648	
1022	0	28688	
1023	0	28736	
1024	0	28764	
1025	0	28812	
1026	0	28836	
1027	0	28912	
1028	0	29006	
1029	0	29060	
1030	0	29076	
1031	0	29080	
1032	0	29108	
1033	0	29120	
1034	0	29148	
1035	0	29146	
1036	0	29172	
1037	0	29220	
1038	0	29240	
1039	0	29216	
1040	0	29236	
1041	0	29322	
1042	0	29408	
1043	0	29504	
1044	0	29624	
1045	0	29692	
1046	0	29704	
1047	0	29704	
1048	0	29800	
1049	0	29920	
1050	0	29940	
1051	0	29968	
1052	0	30052	
1053	0	30084	
1054	0	30112	
1055	0	30144	
1056	0	30170	
1057	0	30164	
1058	0	30120	
1059	0	30088	
1060	0	30088	
1061	0	30096	
1062	0	30120	
1063	0	30168	
1064	0	30268	
1065	0	30384	
1066	0	30432	
1067	0	30408	
1068	0	30456	
1069	0	30596	
1070	0	30672	
1071	0	30680	
1072	0	30720	
1073	0	30784	
1074	0	30848	
1075	0	30933	
1076	0	31024	
1077	0	31064	
1078	0	31056	
1079	0	31042	
1080	0	31068	
1081	0	31136	
1082	0	31200	
1083	0	31216	
1084	0	31228	
1085	0	31252	
1086	0	31288	
1087	0	31392	
1088	0	31504	
1089	0	31568	
1090	0	31584	
1091	0	31628	
1092	0	31696	
1093	0	31692	
1094	0	31706	
1095	0	31744	
1096	0	31724	
1097	0	31732	
1098	0	31748	
1099	0	31804	
1100	0	31856	
1101	0	31880	
1102	0	31944	
1103	0	32052	
1104	0	32136	
1105	0	32216	
1106	0	32320	
1107	0	32416	
1108	0	32506	
1109	0	32668	
1110	0	32820	
1111	0	32864	
1112	0	32872	
1113	0	32885	
1114	0	32896	
1115	0	32896	
1116	0	32904	
1117	0	32936	
1118	0	32960	
1119	0	33000	
1120	0	33064	
1121	0	33142	
1122	0	33244	
1123	0	33364	
1124	0	33444	
1125	0	33556	
1126	0	33648	
1127	0	33776	
1128	0	33868	
1129	0	33912	
1130	0	33960	
1131	0	34032	
1132	0	34092	
1133	0	34180	
1134	0	34316	
1135	0	34392	
1136	0	34420	
1137	0	34412	
1138	0	34410	
1139	0	34380	
1140	0	34372	
1141	0	34428	
1142	0	34580	
1143	0	34728	
1144	0	34842	
1145	0	34932	
1146	0	35024	
1147	0	35136	
1148	0	35226	
1149	0	35256	
1150	0	35296	
1151	0	35376	
1152	0	35478	
1153	0	35552	
1154	0	35640	
1155	0	35720	
1156	0	35808	
1157	0	35884	
1158	0	35956	
1159	0	36016	
1160	0	36016	
1161	0	36064	
1162	0	36148	
1163	0	36250	
1164	0	36308	
1165	0	36384	
1166	0	36464	
1167	0	36564	
1168	0	36640	
1169	0	36672	
1170	0	36708	
1171	0	36772	
1172	0	36824	
1173	0	36832	
1174	0	36896	
1175	0	36932	
1176	0	36952	
1177	0	36920	
1178	0	36928	
1179	0	36964	
1180	0	37032	
1181	0	37032	
1182	0	36988	
1183	0	37016	
1184	0	37096	
1185	0	37164	
1186	0	37188	
1187	0	37200	
1188	0	37192	
1189	0	37204	
1190	0	37196	
1191	0	37220	
1192	0	37212	
1193	0	37122	
1194	0	37076	
1195	0	37040	
1196	0	37028	
1197	0	37016	
1198	0	36944	
1199	0	36860	
1200	0	36796	
1201	0	36768	
1202	0	36784	
1203	0	36824	
1204	0	36872	
1205	0	36876	
1206	0	36808	
1207	0	36696	
1208	0	36648	
1209	0	36660	
1210	0	36660	
1211	0	36652	
1212	0	36576	
1213	0	36416	
1214	0	36264	
1215	0	36122	
1216	0	35960	
1217	0	35776	
1218	0	35612	
1219	0	35460	
1220	0	35264	
1221	0	35060	
1222	0	34848	
1223	0	34680	
1224	0	34560	
1225	0	34452	
1226	0	34312	
1227	0	34016	
1228	0	33640	
1229	0	33328	
1230	0	33092	
1231	0	32944	
1232	0	32788	
1233	0	32602	
1234	0	32400	
1235	0	32280	
1236	0	32146	
1237	0	31970	
1238	0	31728	
1239	0	31500	
1240	0	31300	
1241	0	31124	
1242	0	30992	
1243	0	30852	
1244	0	30724	
1245	0	30606	
1246	0	30460	
1247	0	30336	
1248	0	30280	
1249	0	30186	
1250	0	30064	
1251	0	29984	
1252	0	29916	
1253	0	29836	
1254	0	29708	
1255	0	29570	
1256	0	29416	
1257	0	29276	
1258	0	29184	
1259	0	29120	
1260	0	29058	
1261	0	28996	
1262	0	28912	
1263	0	28892	
1264	0	28924	
1265	0	28986	
1266	0	28956	
1267	0	28880	
1268	0	28784	
1269	0	28744	
1270	0	28728	
1271	0	28752	
1272	0	28780	
1273	0	28832	
1274	0	28846	
1275	0	28832	
1276	0	28798	
1277	0	28784	
1278	0	28710	
1279	0	28584	
1280	0	28496	
1281	0	28476	
1282	0	28490	
1283	0	28488	
1284	0	28504	
1285	0	28592	
1286	0	28704	
1287	0	28800	
1288	0	28848	
1289	0	28860	
1290	0	28888	
1291	0	28936	
1292	0	28968	
1293	0	28994	
1294	0	29032	
1295	0	29100	
1296	0	29160	
1297	0	29236	
1298	0	29240	
1299	0	29200	
1300	0	29152	
1301	0	29176	
1302	0	29212	
1303	0	29304	
1304	0	29386	
1305	0	29440	
1306	0	29440	
1307	0	29452	
1308	0	29552	
1309	0	29652	
1310	0	29730	
1311	0	29780	
1312	0	29780	
1313	0	29804	
1314	0	29884	
1315	0	29948	
1316	0	29980	
1317	0	29972	
1318	0	29976	
1319	0	30004	
1320	0	30000	
1321	0	30020	
1322	0	30104	
1323	0	30184	
1324	0	30240	
1325	0	30280	
1326	0	30316	
1327	0	30408	
1328	0	30484	
1329	0	30468	
1330	0	30420	
1331	0	30480	
1332	0	30576	
1333	0	30626	
1334	0	30593	
1335	0	30524	
1336	0	30472	
1337	0	30506	
1338	0	30568	
1339	0	30656	
1340	0	30720	
1341	0	30760	
1342	0	30784	
1343	0	30816	
1344	0	30840	
1345	0	30892	
1346	0	30989	
1347	0	31116	
1348	0	31184	
1349	0	31212	
1350	0	31248	
1351	0	31252	
1352	0	31260	
1353	0	31316	
1354	0	31336	
1355	0	31322	
1356	0	31290	
1357	0	31280	
1358	0	31248	
1359	0	31240	
1360	0	31248	
1361	0	31296	
1362	0	31308	
1363	0	31312	
1364	0	31332	
1365	0	31364	
1366	0	31420	
1367	0	31516	
1368	0	31584	
1369	0	31628	
1370	0	31632	
1371	0	31636	
1372	0	31644	
1373	0	31704	
1374	0	31672	
1375	0	31596	
1376	0	31564	
1377	0	31536	
1378	0	31500	
1379	0	31524	
1380	0	31572	
1381	0	31624	
1382	0	31680	
1383	0	31720	
1384	0	31712	
1385	0	31744	
1386	0	31866	
1387	0	31956	
1388	0	31960	
1389	0	31944	
1390	0	31956	
1391	0	31912	
1392	0	31892	
1393	0	31860	
1394	0	31880	
1395	0	31872	
1396	0	31868	
1397	0	31896	
1398	0	31896	
1399	0	31900	
1400	0	31872	
1401	0	31776	
1402	0	31692	
1403	0	31720	
1404	0	31808	
1405	0	31890	
1406	0	31920	
1407	0	31912	
1408	0	31936	
1409	0	31896	
1410	0	31848	
1411	0	31824	
1412	0	31900	
1413	0	31980	
1414	0	31976	
1415	0	31944	
1416	0	31920	
1417	0	31948	
1418	0	31968	
1419	0	31944	
1420	0	31920	
1421	0	31860	
1422	0	31840	
1423	0	31896	
1424	0	31952	
1425	0	31980	
1426	0	32036	
1427	0	32112	
1428	0	32132	
1429	0	32152	
1430	0	32108	
1431	0	32070	
1432	0	32048	
1433	0	32016	
1434	0	31948	
1435	0	31892	
1436	0	31888	
1437	0	31914	
1438	0	31888	
1439	0	31820	
1440	0	31732	
1441	0	31664	
1442	0	31652	
1443	0	31712	
1444	0	31832	
1445	0	31898	
1446	0	31900	
1447	0	31936	
1448	0	31952	
1449	0	31952	
1450	0	31952	
1451	0	31980	
1452	0	32020	
1453	0	32016	
1454	0	32008	
1455	0	31972	
1456	0	31904	
1457	0	31880	
1458	0	31844	
1459	0	31856	
1460	0	31920	
1461	0	31964	
1462	0	31936	
1463	0	31924	
1464	0	31912	
1465	0	31912	
1466	0	31948	
1467	0	32032	
1468	0	32160	
1469	0	32264	
1470	0	32188	
1471	0	32024	
1472	0	31920	
1473	0	31844	
1474	0	31816	
1475	0	31844	
1476	0	31908	
1477	0	31936	
1478	0	31912	
1479	0	31880	
1480	0	31892	
1481	0	31924	
1482	0	31952	
1483	0	31988	
1484	0	32000	
1485	0	32050	
1486	0	32128	
1487	0	32172	
1488	0	32176	
1489	0	32176	
1490	0	32204	
1491	0	32216	
1492	0	32220	
1493	0	32228	
1494	0	32244	
1495	0	32196	
1496	0	32144	
1497	0	32132	
1498	0	32112	
1499	0	32092	
1500	0	32064	
1501	0	32008	
1502	0	31956	
1503	0	31952	
1504	0	31988	
1505	0	32072	
1506	0	32168	
1507	0	32220	
1508	0	32212	
1509	0	32200	
1510	0	32216	
1511	0	32188	
1512	0	32156	
1513	0	32144	
1514	0	32180	
1515	0	32224	
1516	0	32250	
1517	0	32204	
1518	0	32184	
1519	0	32172	
1520	0	32200	
1521	0	32208	
1522	0	32228	
1523	0	32272	
1524	0	32328	
1525	0	32384	
1526	0	32428	
1527	0	32452	
1528	0	32516	
1529	0	32548	
1530	0	32590	
1531	0	32636	
1532	0	32576	
1533	0	32512	
1534	0	32448	
1535	0	32412	
1536	0	32400	
1537	0	32354	
1538	0	32320	
1539	0	32290	
1540	0	32312	
1541	0	32332	
1542	0	32360	
1543	0	32424	
1544	0	32476	
1545	0	32464	
1546	0	32484	
1547	0	32508	
1548	0	32500	
1549	0	32508	
1550	0	32516	
1551	0	32472	
1552	0	32480	
1553	0	32512	
1554	0	32520	
1555	0	32464	
1556	0	32442	
1557	0	32388	
1558	0	32364	
1559	0	32340	
1560	0	32368	
1561	0	32352	
1562	0	32320	
1563	0	32284	
1564	0	32332	
1565	0	32380	
1566	0	32404	
1567	0	32448	
1568	0	32528	
1569	0	32576	
1570	0	32640	
1571	0	32736	
1572	0	32800	
1573	0	32756	
1574	0	32677	
1575	0	32664	
1576	0	32660	
1577	0	32636	
1578	0	32608	
1579	0	32596	
1580	0	32572	
1581	0	32504	
1582	0	32416	
1583	0	32336	
1584	0	32300	
1585	0	32376	
1586	0	32404	
1587	0	32532	
1588	0	32660	
1589	0	32836	
1590	0	32960	
1591	0	33036	
1592	0	33152	
1593	0	33276	
1594	0	33400	
1595	0	33520	
1596	0	33608	
1597	0	33676	
1598	0	33720	
1599	0	33776	
1600	0	33840	
1601	0	33872	
1602	0	33928	
1603	0	33908	
1604	0	33944	
1605	0	33950	
1606	0	33940	
1607	0	33924	
1608	0	33884	
1609	0	33848	
1610	0	33836	
1611	0	33792	
1612	0	33728	
1613	0	33712	
1614	0	33700	
1615	0	33704	
1616	0	33644	
1617	0	33596	
1618	0	33664	
1619	0	33796	
1620	0	33980	
1621	0	34236	
1622	0	34512	
1623	0	34784	
1624	0	34984	
1625	0	35084	
1626	0	35164	
1627	0	35230	
1628	0	35388	
1629	0	35576	
1630	0	35668	
1631	0	35640	
1632	0	35520	
1633	0	35428	
1634	0	35360	
1635	0	35316	
1636	0	35240	
1637	0	35124	
1638	0	34972	
1639	0	34810	
1640	0	34656	
1641	0	34536	
1642	0	34400	
1643	0	34264	
1644	0	34176	
1645	0	34096	
1646	0	33968	
1647	0	33848	
1648	0	33736	
1649	0	33632	
1650	0	33504	
1651	0	33432	
1652	0	33388	
1653	0	33344	
1654	0	33288	
1655	0	33144	
1656	0	33000	
1657	0	32916	
1658	0	32856	
1659	0	32740	
1660	0	32600	
1661	0	32492	
1662	0	32340	
1663	0	32176	
1664	0	32084	
1665	0	32018	
1666	0	31928	
1667	0	31852	
1668	0	31784	
1669	0	31728	
1670	0	31648	
1671	0	31564	
1672	0	31554	
1673	0	31600	
1674	0	31576	
1675	0	31508	
1676	0	31456	
1677	0	31424	
1678	0	31432	
1679	0	31408	
1680	0	31340	
1681	0	31352	
1682	0	31392	
1683	0	31416	
1684	0	31514	
1685	0	31556	
1686	0	31536	
1687	0	31552	
1688	0	31620	
1689	0	31692	
1690	0	31732	
1691	0	31752	
1692	0	31732	
1693	0	31720	
1694	0	31720	
1695	0	31736	
1696	0	31804	
1697	0	31876	
1698	0	31844	
1699	0	31738	
1700	0	31548	
1701	0	31580	
1702	0	31656	
1703	0	31632	
1704	0	31644	
1705	0	31688	
1706	0	31722	
1707	0	31760	
1708	0	31832	
1709	0	31932	
1710	0	32008	
1711	0	32024	
1712	0	31952	
1713	0	31904	
1714	0	31848	
1715	0	31720	
1716	0	31516	
1717	0	31144	
1718	0	30600	
1719	0	29892	
1720	0	29184	
1721	0	28628	
1722	0	28304	
1723	0	28236	
1724	0	28336	
1725	0	28576	
1726	0	28932	
1727	0	29574	
1728	0	30492	
1729	0	31536	
1730	0	32676	
1731	0	33992	
1732	0	35452	
1733	0	37032	
1734	0	38872	
1735	0	41144	
1736	0	43776	
1737	0	46768	
1738	0	50028	
1739	0	53232	
1740	0	56364	
1741	0	59484	
1742	0	62176	
1743	0	63672	
1744	0	64408	
1745	0	64752	
1746	0	64896	
1747	0	64892	
1748	0	64828	
1749	0	64740	
1750	0	64640	
1751	0	64528	
1752	0	64388	
1753	0	60272	
1754	0	55856	
1755	0	52168	
1756	0	48986	
1757	0	46356	
1758	0	44028	
1759	0	41796	
1760	0	39664	
1761	0	37736	
1762	0	35920	
1763	0	34328	
1764	0	33016	
1765	0	31832	
1766	0	30848	
1767	0	30068	
1768	0	29456	
1769	0	29044	
1770	0	28744	
1771	0	28456	
1772	0	28076	
1773	0	27780	
1774	0	27584	
1775	0	27540	
1776	0	27552	
1777	0	27632	
1778	0	27784	
1779	0	27964	
1780	0	28138	
1781	0	28292	
1782	0	28500	
1783	0	28696	
1784	0	28832	
1785	0	28868	
1786	0	29028	
1787	0	29148	
1788	0	29152	
1789	0	29080	
1790	0	29004	
1791	0	28900	
1792	0	28848	
1793	0	28860	
1794	0	28872	
1795	0	28860	
1796	0	28832	
1797	0	28804	
1798	0	28768	
1799	0	28772	
1800	0	28816	
1801	0	28848	
1802	0	28834	
1803	0	28908	
1804	0	28976	
1805	0	28988	
1806	0	28924	
1807	0	28856	
1808	0	28912	
1809	0	28932	
1810	0	28978	
1811	0	29042	
1812	0	29148	
1813	0	29232	
1814	0	29232	
1815	0	29248	
1816	0	29280	
1817	0	29324	
1818	0	29360	
1819	0	29340	
1820	0	29392	
1821	0	29432	
1822	0	29508	
1823	0	29640	
1824	0	29752	
1825	0	29784	
1826	0	29832	
1827	0	29872	
1828	0	29892	
1829	0	29940	
1830	0	30000	
1831	0	30042	
1832	0	30108	
1833	0	30204	
1834	0	30272	
1835	0	30240	
1836	0	30212	
1837	0	30192	
1838	0	30176	
1839	0	30202	
1840	0	30272	
1841	0	30380	
1842	0	30420	
1843	0	30460	
1844	0	30564	
1845	0	30640	
1846	0	30760	
1847	0	30912	
1848	0	31040	
1849	0	31056	
1850	0	30984	
1851	0	30980	
1852	0	31016	
1853	0	31044	
1854	0	31080	
1855	0	31084	
1856	0	31120	
1857	0	31204	
1858	0	31228	
1859	0	31208	
1860	0	31244	
1861	0	31328	
1862	0	31424	
1863	0	31500	
1864	0	31536	
1865	0	31584	
1866	0	31608	
1867	0	31674	
1868	0	31804	
1869	0	31888	
1870	0	31876	
1871	0	31888	
1872	0	31860	
1873	0	31868	
1874	0	31924	
1875	0	32004	
1876	0	32118	
1877	0	32136	
1878	0	32104	
1879	0	32072	
1880	0	32112	
1881	0	32160	
1882	0	32192	
1883	0	32236	
1884	0	32336	
1885	0	32472	
1886	0	32568	
1887	0	32660	
1888	0	32692	
1889	0	32752	
1890	0	32826	
1891	0	32944	
1892	0	33052	
1893	0	33120	
1894	0	33224	
1895	0	33298	
1896	0	33388	
1897	0	33424	
1898	0	33420	
1899	0	33448	
1900	0	33520	
1901	0	33556	
1902	0	33616	
1903	0	33716	
1904	0	33812	
1905	0	33888	
1906	0	33988	
1907	0	34064	
1908	0	34084	
1909	0	34128	
1910	0	34172	
1911	0	34244	
1912	0	34340	
1913	0	34496	
1914	0	34556	
1915	0	34488	
1916	0	34568	
1917	0	34596	
1918	0	34624	
1919	0	34640	
1920	0	34680	
1921	0	34800	
1922	0	34912	
1923	0	35008	
1924	0	35104	
1925	0	35156	
1926	0	35228	
1927	0	35404	
1928	0	35520	
1929	0	35628	
1930	0	35752	
1931	0	35808	
1932	0	35858	
1933	0	35896	
1934	0	35904	
1935	0	35916	
1936	0	35968	
1937	0	36032	
1938	0	36092	
1939	0	36200	
1940	0	36292	
1941	0	36416	
1942	0	36480	
1943	0	36524	
1944	0	36616	
1945	0	36712	
1946	0	36808	
1947	0	36892	
1948	0	36980	
1949	0	37072	
1950	0	37184	
1951	0	37244	
1952	0	37240	
1953	0	37264	
1954	0	37264	
1955	0	37232	
1956	0	37208	
1957	0	37184	
1958	0	37184	
1959	0	37236	
1960	0	37264	
1961	0	37316	
1962	0	37336	
1963	0	37370	
1964	0	37440	
1965	0	37422	
1966	0	37364	
1967	0	37312	
1968	0	37308	
1969	0	37292	
1970	0	37300	
1971	0	37312	
1972	0	37320	
1973	0	37312	
1974	0	37228	
1975	0	37164	
1976	0	37144	
1977	0	37104	
1978	0	37068	
1979	0	37036	
1980	0	37024	
1981	0	37066	
1982	0	37032	
1983	0	36924	
1984	0	36824	
1985	0	36768	
1986	0	36704	
1987	0	36652	
1988	0	36532	
1989	0	36428	
1990	0	36316	
1991	0	36232	
1992	0	36072	
1993	0	35864	
1994	0	35696	
1995	0	35560	
1996	0	35416	
1997	0	35168	
1998	0	34948	
1999	0	34748	
2000	0	34564	
2001	0	34328	
2002	0	34056	
2003	0	33780	
2004	0	33624	
2005	0	33508	
2006	0	33380	
2007	0	33196	
2008	0	33008	
2009	0	32860	
2010	0	32714	
2011	0	32540	
2012	0	32348	
2013	0	32120	
2014	0	31878	
2015	0	31584	
2016	0	31312	
2017	0	31112	
2018	0	30948	
2019	0	30836	
2020	0	30720	
2021	0	30548	
2022	0	30412	
2023	0	30312	
2024	0	30184	
2025	0	30108	
2026	0	30052	
2027	0	29940	
2028	0	29844	
2029	0	29812	
2030	0	29732	
2031	0	29604	
2032	0	29512	
2033	0	29464	
2034	0	29408	
2035	0	29320	
2036	0	29192	
2037	0	29028	
2038	0	28908	
2039	0	28856	
2040	0	28788	
2041	0	28762	
2042	0	28712	
2043	0	28708	
2044	0	28668	
2045	0	28676	
2046	0	28706	
2047	0	28680	
2048	0	28608	
2049	0	28548	
2050	0	28556	
2051	0	28592	
2052	0	28632	
2053	0	28632	
2054	0	28596	
2055	0	28580	
2056	0	28576	
2057	0	28596	
2058	0	28584	
2059	0	28586	
2060	0	28564	
2061	0	28548	
2062	0	28576	
2063	0	28656	
2064	0	28700	
2065	0	28732	
2066	0	28776	
2067	0	28880	
2068	0	28952	
2069	0	28968	
2070	0	29008	
2071	0	29020	
2072	0	28964	
2073	0	28952	
2074	0	28964	
2075	0	28988	
2076	0	28998	
2077	0	29008	
2078	0	28980	
2079	0	28964	
2080	0	29020	
2081	0	29096	
2082	0	29144	
2083	0	29184	
2084	0	29212	
2085	0	29248	
2086	0	29348	
2087	0	29456	
2088	0	29584	
2089	0	29648	
2090	0	29664	
2091	0	29692	
2092	0	29760	
2093	0	29864	
2094	0	29924	
2095	0	29996	
2096	0	29984	
2097	0	29950	
2098	0	29924	
2099	0	29888	
2100	0	29920	
2101	0	30008	
2102	0	30068	
2103	0	30028	
2104	0	29996	
2105	0	30056	
2106	0	30120	
2107	0	30212	
2108	0	30284	
2109	0	30344	
2110	0	30396	
2111	0	30464	
2112	0	30544	
2113	0	30564	
2114	0	30560	
2115	0	30608	
2116	0	30664	
2117	0	30668	
2118	0	30624	
2119	0	30632	
2120	0	30640	
2121	0	30648	
2122	0	30688	
2123	0	30760	
2124	0	30812	
2125	0	30848	
2126	0	30836	
2127	0	30810	
2128	0	30832	
2129	0	30888	
2130	0	30928	
2131	0	30988	
2132	0	31060	
2133	0	31124	
2134	0	31112	
2135	0	31096	
2136	0	31112	
2137	0	31116	
2138	0	31136	
2139	0	31168	
2140	0	31208	
2141	0	31208	
2142	0	31192	
2143	0	31196	
2144	0	31240	
2145	0	31332	
2146	0	31400	
2147	0	31392	
2148	0	31356	
2149	0	31352	
2150	0	31408	
2151	0	31488	
2152	0	31592	
2153	0	31636	
2154	0	31636	
2155	0	31624	
2156	0	31620	
2157	0	31656	
2158	0	31668	
2159	0	31652	
2160	0	31672	
2161	0	31708	
2162	0	31712	
2163	0	31748	
2164	0	31778	
2165	0	31792	
2166	0	31750	
2167	0	31688	
2168	0	31680	
2169	0	31760	
2170	0	31808	
2171	0	31860	
2172	0	31916	
2173	0	31936	
2174	0	31892	
2175	0	31800	
2176	0	31720	
2177	0	31700	
2178	0	31720	
2179	0	31698	
2180	0	31674	
2181	0	31712	
2182	0	31752	
2183	0	31760	
2184	0	31672	
2185	0	31760	
2186	0	31784	
2187	0	31756	
2188	0	31768	
2189	0	31792	
2190	0	31808	
2191	0	31848	
2192	0	31912	
2193	0	31968	
2194	0	31892	
2195	0	31828	
2196	0	31800	
2197	0	31824	
2198	0	31840	
2199	0	31848	
2200	0	31792	
2201	0	31776	
2202	0	31752	
2203	0	31728	
2204	0	31688	
2205	0	31600	
2206	0	31568	
2207	0	31632	
2208	0	31700	
2209	0	31774	
2210	0	31784	
2211	0	31784	
2212	0	31732	
2213	0	31802	
2214	0	31840	
2215	0	31784	
2216	0	31772	
2217	0	31812	
2218	0	31820	
2219	0	31732	
2220	0	31668	
2221	0	31580	
2222	0	31616	
2223	0	31684	
2224	0	31672	
2225	0	31688	
2226	0	31688	
2227	0	31704	
2228	0	31688	
2229	0	31680	
2230	0	31748	
2231	0	31764	
2232	0	31712	
2233	0	31628	
2234	0	31600	
2235	0	31564	
2236	0	31568	
2237	0	31612	
2238	0	31632	
2239	0	31680	
2240	0	31752	
2241	0	31776	
2242	0	31780	
2243	0	31776	
2244	0	31742	
2245	0	31760	
2246	0	31808	
2247	0	31832	
2248	0	31848	
2249	0	31856	
2250	0	31860	
2251	0	31824	
2252	0	31842	
2253	0	31872	
2254	0	31860	
2255	0	31832	
2256	0	31820	
2257	0	31812	
2258	0	31778	
2259	0	31732	
2260	0	31708	
2261	0	31704	
2262	0	31724	
2263	0	31712	
2264	0	31720	
2265	0	31768	
2266	0	31812	
2267	0	31824	
2268	0	31808	
2269	0	31840	
2270	0	31920	
2271	0	32000	
2272	0	31988	
2273	0	31984	
2274	0	31928	
2275	0	31810	
2276	0	31784	
2277	0	31776	
2278	0	31748	
2279	0	31736	
2280	0	31736	
2281	0	31772	
2282	0	31868	
2283	0	31952	
2284	0	32036	
2285	0	32064	
2286	0	32064	
2287	0	32040	
2288	0	31988	
2289	0	31968	
2290	0	31980	
2291	0	32016	
2292	0	32068	
2293	0	32052	
2294	0	31988	
2295	0	31944	
2296	0	31916	
2297	0	31876	
2298	0	31864	
2299	0	31852	
2300	0	31840	
2301	0	31796	
2302	0	31792	
2303	0	31872	
2304	0	31952	
2305	0	31956	
2306	0	31968	
2307	0	31984	
2308	0	32032	
2309	0	32072	
2310	0	32100	
2311	0	32180	
2312	0	32232	
2313	0	32228	
2314	0	32184	
2315	0	32144	
2316	0	32060	
2317	0	32008	
2318	0	32016	
2319	0	32016	
2320	0	32020	
2321	0	32088	
2322	0	32140	
2323	0	32200	
2324	0	32216	
2325	0	32208	
2326	0	32216	
2327	0	32232	
2328	0	32252	
2329	0	32224	
2330	0	32236	
2331	0	32208	
2332	0	32244	
2333	0	32288	
2334	0	32320	
2335	0	32316	
2336	0	32304	
2337	0	32276	
2338	0	32260	
2339	0	32232	
2340	0	32184	
2341	0	32200	
2342	0	32208	
2343	0	32220	
2344	0	32264	
2345	0	32348	
2346	0	32444	
2347	0	32530	
2348	0	32584	
2349	0	32576	
2350	0	32572	
2351	0	32524	
2352	0	32524	
2353	0	32552	
2354	0	32552	
2355	0	32500	
2356	0	32472	
2357	0	32412	
2358	0	32384	
2359	0	32348	
2360	0	32392	
2361	0	32420	
2362	0	32410	
2363	0	32408	
2364	0	32428	
2365	0	32412	
2366	0	32424	
2367	0	32452	
2368	0	32508	
2369	0	32584	
2370	0	32628	
2371	0	32656	
2372	0	32732	
2373	0	32808	
2374	0	32840	
2375	0	32884	
2376	0	32928	
2377	0	33004	
2378	0	33024	
2379	0	32948	
2380	0	32936	
2381	0	33036	
2382	0	33176	
2383	0	33340	
2384	0	33460	
2385	0	33536	
2386	0	33592	
2387	0	33624	
2388	0	33692	
2389	0	33708	
2390	0	33688	
2391	0	33640	
2392	0	33568	
2393	0	33500	
2394	0	33448	
2395	0	33448	
2396	0	33372	
2397	0	33280	
2398	0	33256	
2399	0	33308	
2400	0	33440	
2401	0	33528	
2402	0	33576	
2403	0	33728	
2404	0	33984	
2405	0	34288	
2406	0	34572	
2407	0	34808	
2408	0	35034	
2409	0	35216	
2410	0	35396	
2411	0	35512	
2412	0	35620	
2413	0	35684	
2414	0	35672	
2415	0	35604	
2416	0	35488	
2417	0	35380	
2418	0	35376	
2419	0	35384	
2420	0	35360	
2421	0	35284	
2422	0	35092	
2423	0	34848	
2424	0	34680	
2425	0	34552	
2426	0	34432	
2427	0	34316	
2428	0	34212	
2429	0	34088	
2430	0	34000	
2431	0	33904	
2432	0	33858	
2433	0	33776	
2434	0	33692	
2435	0	33600	
2436	0	33472	
2437	0	33324	
2438	0	33152	
2439	0	33032	
2440	0	32964	
2441	0	32968	
2442	0	32944	
2443	0	32852	
2444	0	32728	
2445	0	32596	
2446	0	32448	
2447	0	32400	
2448	0	32396	
2449	0	32376	
2450	0	32300	
2451	0	32176	
2452	0	32096	
2453	0	32012	
2454	0	31866	
2455	0	31708	
2456	0	31644	
2457	0	31624	
2458	0	31552	
2459	0	31470	
2460	0	31392	
2461	0	31504	
2462	0	31588	
2463	0	31588	
2464	0	31530	
2465	0	31510	
2466	0	31528	
2467	0	31634	
2468	0	31776	
2469	0	31776	
2470	0	31692	
2471	0	31712	
2472	0	31708	
2473	0	31724	
2474	0	31704	
2475	0	31684	
2476	0	31660	
2477	0	31648	
2478	0	31680	
2479	0	31692	
2480	0	31692	
2481	0	31744	
2482	0	31816	
2483	0	31872	
2484	0	31928	
2485	0	32072	
2486	0	32064	
2487	0	32008	
2488	0	32028	
2489	0	32088	
2490	0	32202	
2491	0	32248	
2492	0	32264	
2493	0	32248	
2494	0	32220	
2495	0	32264	
2496	0	32240	
2497	0	32152	
2498	0	31928	
2499	0	31674	
2500	0	31316	
2501	0	30844	
2502	0	30228	
2503	0	29568	
2504	0	29002	
2505	0	28666	
2506	0	28604	
2507	0	28698	
2508	0	28908	
2509	0	29392	
2510	0	30100	
2511	0	30996	
2512	0	31992	
2513	0	33128	
2514	0	34410	
2515	0	35844	
2516	0	37468	
2517	0	39272	
2518	0	41428	
2519	0	44028	
2520	0	46996	
2521	0	50272	
2522	0	53496	
2523	0	56544	
2524	0	59564	
2525	0	62216	
2526	0	63688	
2527	0	64416	
2528	0	64780	
2529	0	64896	
2530	0	64904	
2531	0	64836	
2532	0	64760	
2533	0	64648	
2534	0	64528	
2535	0	63832	
2536	0	58492	
2537	0	54056	
2538	0	50336	
2539	0	47188	
2540	0	44496	
2541	0	42228	
2542	0	40108	
2543	0	38100	
2544	0	36244	
2545	0	34488	
2546	0	32800	
2547	0	31360	
2548	0	30140	
2549	0	29210	
2550	0	28508	
2551	0	28032	
2552	0	27808	
2553	0	27680	
2554	0	27572	
2555	0	27444	
2556	0	27316	
2557	0	27268	
2558	0	27296	
2559	0	27428	
2560	0	27624	
2561	0	27840	
2562	0	28076	
2563	0	28296	
2564	0	28492	
2565	0	28672	
2566	0	28912	
2567	0	29228	
2568	0	29496	
2569	0	29636	
2570	0	29688	
2571	0	29712	
2572	0	29740	
2573	0	29724	
2574	0	29616	
2575	0	29508	
2576	0	29516	
2577	0	29576	
2578	0	29608	
2579	0	29556	
2580	0	29448	
2581	0	29400	
2582	0	29452	
2583	0	29464	
2584	0	29556	
2585	0	29652	
2586	0	29716	
2587	0	29712	
2588	0	29718	
2589	0	29732	
2590	0	29752	
2591	0	29780	
2592	0	29844	
2593	0	29912	
2594	0	30000	
2595	0	30000	
2596	0	30032	
2597	0	30092	
2598	0	30100	
2599	0	30176	
2600	0	30256	
2601	0	30248	
2602	0	30216	
2603	0	30176	
2604	0	30180	
2605	0	30220	
2606	0	30276	
2607	0	30316	
2608	0	30348	
2609	0	30366	
2610	0	30408	
2611	0	30512	
2612	0	30584	
2613	0	30612	
2614	0	30680	
2615	0	30760	
2616	0	30780	
2617	0	30740	
2618	0	30708	
2619	0	30706	
2620	0	30696	
2621	0	30752	
2622	0	30828	
2623	0	30856	
2624	0	30900	
2625	0	30960	
2626	0	31012	
2627	0	31120	
2628	0	31232	
2629	0	31312	
2630	0	31424	
2631	0	31496	
2632	0	31420	
2633	0	31396	
2634	0	31476	
2635	0	31552	
2636	0	31660	
2637	0	31728	
2638	0	31708	
2639	0	31684	
2640	0	31674	
2641	0	31672	
2642	0	31612	
2643	0	31584	
2644	0	31664	
2645	0	31796	
2646	0	31864	
2647	0	31952	
2648	0	32034	
2649	0	32120	
2650	0	32220	
2651	0	32280	
2652	0	32340	
2653	0	32448	
2654	0	32528	
2655	0	32508	
2656	0	32460	
2657	0	32412	
2658	0	32388	
2659	0	32432	
2660	0	32556	
2661	0	32612	
2662	0	32624	
2663	0	32612	
2664	0	32688	
2665	0	32768	
2666	0	32840	
2667	0	32856	
2668	0	32904	
2669	0	33012	
2670	0	33100	
2671	0	33208	
2672	0	33296	
2673	0	33364	
2674	0	33412	
2675	0	33456	
2676	0	33500	
2677	0	33516	
2678	0	33556	
2679	0	33632	
2680	0	33708	
2681	0	33768	
2682	0	33812	
2683	0	33824	
2684	0	33812	
2685	0	33818	
2686	0	33900	
2687	0	34068	
2688	0	34216	
2689	0	34320	
2690	0	34316	
2691	0	34336	
2692	0	34436	
2693	0	34516	
2694	0	34520	
2695	0	34520	
2696	0	34560	
2697	0	34624	
2698	0	34684	
2699	0	34724	
2700	0	34772	
2701	0	34840	
2702	0	34914	
2703	0	35008	
2704	0	35064	
2705	0	35164	
2706	0	35252	
2707	0	35364	
2708	0	35464	
2709	0	35546	
2710	0	35596	
2711	0	35704	
2712	0	35764	
2713	0	35764	
2714	0	35800	
2715	0	35848	
2716	0	35948	
2717	0	36076	
2718	0	36188	
2719	0	36324	
2720	0	36488	
2721	0	36568	
2722	0	36612	
2723	0	36628	
2724	0	36636	
2725	0	36696	
2726	0	36712	
2727	0	36792	
2728	0	36944	
2729	0	37072	
2730	0	37192	
2731	0	37304	
2732	0	37356	
2733	0	37448	
2734	0	37460	
2735	0	37408	
2736	0	37384	
2737	0	37344	
2738	0	37308	
2739	0	37268	
2740	0	37264	
2741	0	37244	
2742	0	37260	
2743	0	37320	
2744	0	37368	
2745	0	37408	
2746	0	37460	
2747	0	37460	
2748	0	37432	
2749	0	37416	
2750	0	37494	
2751	0	37544	
2752	0	37576	
2753	0	37576	
2754	0	37556	
2755	0	37452	
2756	0	37376	
2757	0	37392	
2758	0	37400	
2759	0	37376	
2760	0	37344	
2761	0	37280	
2762	0	37228	
2763	0	37168	
2764	0	37120	
2765	0	37096	
2766	0	37088	
2767	0	37088	
2768	0	37076	
2769	0	37032	
2770	0	36956	
2771	0	36848	
2772	0	36768	
2773	0	36640	
2774	0	36524	
2775	0	36388	
2776	0	36200	
2777	0	36000	
2778	0	35808	
2779	0	35672	
2780	0	35568	
2781	0	35428	
2782	0	35236	
2783	0	35056	
2784	0	34804	
2785	0	34548	
2786	0	34336	
2787	0	34180	
2788	0	33984	
2789	0	33736	
2790	0	33476	
2791	0	33272	
2792	0	33104	
2793	0	32900	
2794	0	32760	
2795	0	32608	
2796	0	32440	
2797	0	32248	
2798	0	32080	
2799	0	31940	
2800	0	31792	
2801	0	31654	
2802	0	31496	
2803	0	31300	
2804	0	31040	
2805	0	30940	
2806	0	30928	
2807	0	30848	
2808	0	30732	
2809	0	30648	
2810	0	30544	
2811	0	30340	
2812	0	30124	
2813	0	29948	
2814	0	29848	
2815	0	29742	
2816	0	29672	
2817	0	29608	
2818	0	29488	
2819	0	29400	
2820	0	29316	
2821	0	29164	
2822	0	29104	
2823	0	29056	
2824	0	29024	
2825	0	29032	
2826	0	29120	
2827	0	29172	
2828	0	29156	
2829	0	29104	
2830	0	29092	
2831	0	29064	
2832	0	29008	
2833	0	28928	
2834	0	28824	
2835	0	28708	
2836	0	28602	
2837	0	28500	
2838	0	28456	
2839	0	28416	
2840	0	28404	
2841	0	28468	
2842	0	28510	
2843	0	28496	
2844	0	28492	
2845	0	28512	
2846	0	28540	
2847	0	28600	
2848	0	28648	
2849	0	28648	
2850	0	28656	
2851	0	28696	
2852	0	28732	
2853	0	28744	
2854	0	28736	
2855	0	28696	
2856	0	28724	
2857	0	28784	
2858	0	28794	
2859	0	28864	
2860	0	28976	
2861	0	29032	
2862	0	29080	
2863	0	29164	
2864	0	29284	
2865	0	29348	
2866	0	29364	
2867	0	29360	
2868	0	29404	
2869	0	29486	
2870	0	29572	
2871	0	29608	
2872	0	29666	
2873	0	29712	
2874	0	29636	
2875	0	29562	
2876	0	29536	
2877	0	29532	
2878	0	29544	
2879	0	29586	
2880	0	29640	
2881	0	29656	
2882	0	29700	
2883	0	29744	
2884	0	29792	
2885	0	29800	
2886	0	29852	
2887	0	29948	
2888	0	30064	
2889	0	30164	
2890	0	30248	
2891	0	30300	
2892	0	30344	
2893	0	30364	
2894	0	30344	
2895	0	30308	
2896	0	30276	
2897	0	30296	
2898	0	30340	
2899	0	30424	
2900	0	30472	
2901	0	30564	
2902	0	30586	
2903	0	30564	
2904	0	30560	
2905	0	30670	
2906	0	30772	
2907	0	30824	
2908	0	30868	
2909	0	30896	
2910	0	30904	
2911	0	30928	
2912	0	30900	
2913	0	30856	
2914	0	30840	
2915	0	30824	
2916	0	30772	
2917	0	30740	
2918	0	30796	
2919	0	30912	
2920	0	30990	
2921	0	31048	
2922	0	31156	
2923	0	31242	
2924	0	31300	
2925	0	31368	
2926	0	31408	
2927	0	31432	
2928	0	31396	
2929	0	31400	
2930	0	31516	
2931	0	31592	
2932	0	31580	
2933	0	31538	
2934	0	31604	
2935	0	31644	
2936	0	31572	
2937	0	31556	
2938	0	31584	
2939	0	31592	
2940	0	31610	
2941	0	31596	
2942	0	31604	
2943	0	31576	
2944	0	31552	
2945	0	31520	
2946	0	31508	
2947	0	31524	
2948	0	31564	
2949	0	31560	
2950	0	31528	
2951	0	31512	
2952	0	31488	
2953	0	31500	
2954	0	31588	
2955	0	31636	
2956	0	31668	
2957	0	31752	
2958	0	31820	
2959	0	31792	
2960	0	31744	
2961	0	31732	
2962	0	31740	
2963	0	31708	
2964	0	31722	
2965	0	31752	
2966	0	31796	
2967	0	31860	
2968	0	31916	
2969	0	31872	
2970	0	31796	
2971	0	31740	
2972	0	31700	
2973	0	31684	
2974	0	31688	
2975	0	31648	
2976	0	31620	
2977	0	31568	
2978	0	31496	
2979	0	31464	
2980	0	31480	
2981	0	31488	
2982	0	31456	
2983	0	31500	
2984	0	31548	
2985	0	31556	
2986	0	31604	
2987	0	31704	
2988	0	31756	
2989	0	31808	
2990	0	31816	
2991	0	31816	
2992	0	31812	
2993	0	31808	
2994	0	31832	
2995	0	31808	
2996	0	31740	
2997	0	31732	
2998	0	31716	
2999	0	31696	
3000	0	31696	
3001	0	31700	
3002	0	31712	
3003	0	31714	
3004	0	31720	
3005	0	31720	
3006	0	31760	
3007	0	31792	
3008	0	31780	
3009	0	31748	
3010	0	31656	
3011	0	31626	
3012	0	31596	
3013	0	31580	
3014	0	31604	
3015	0	31600	
3016	0	31580	
3017	0	31588	
3018	0	31524	
3019	0	31468	
3020	0	31504	
3021	0	31544	
3022	0	31572	
3023	0	31588	
3024	0	31600	
3025	0	31668	
3026	0	31748	
3027	0	31786	
3028	0	31808	
3029	0	31824	
3030	0	31840	
3031	0	31864	
3032	0	31888	
3033	0	31900	
3034	0	31872	
3035	0	31792	
3036	0	31712	
3037	0	31652	
3038	0	31576	
3039	0	31528	
3040	0	31504	
3041	0	31504	
3042	0	31552	
3043	0	31632	
3044	0	31672	
3045	0	31680	
3046	0	31668	
3047	0	31672	
3048	0	31708	
3049	0	31784	
3050	0	31880	
3051	0	31944	
3052	0	31936	
3053	0	31840	
3054	0	31800	
3055	0	31784	
3056	0	31736	
3057	0	31708	
3058	0	31696	
3059	0	31768	
3060	0	31880	
3061	0	31964	
3062	0	32004	
3063	0	32036	
3064	0	32020	
3065	0	32036	
3066	0	32048	
3067	0	32044	
3068	0	32028	
3069	0	32028	
3070	0	32028	
3071	0	32004	
3072	0	32016	
3073	0	32032	
3074	0	32064	
3075	0	32116	
3076	0	32148	
3077	0	32084	
3078	0	31984	
3079	0	31944	
3080	0	31920	
3081	0	31884	
3082	0	31880	
3083	0	31920	
3084	0	31956	
3085	0	32056	
3086	0	32196	
3087	0	32308	
3088	0	32384	
3089	0	32440	
3090	0	32474	
3091	0	32456	
3092	0	32440	
3093	0	32448	
3094	0	32480	
3095	0	32480	
3096	0	32480	
3097	0	32480	
3098	0	32456	
3099	0	32432	
3100	0	32428	
3101	0	32432	
3102	0	32480	
3103	0	32564	
3104	0	32620	
3105	0	32712	
3106	0	32800	
3107	0	32920	
3108	0	33024	
3109	0	33152	
3110	0	33284	
3111	0	33368	
3112	0	33448	
3113	0	33480	
3114	0	33504	
3115	0	33536	
3116	0	33532	
3117	0	33508	
3118	0	33432	
3119	0	33368	
3120	0	33356	
3121	0	33296	
3122	0	33228	
3123	0	33216	
3124	0	33208	
3125	0	33192	
3126	0	33112	
3127	0	33076	
3128	0	33156	
3129	0	33322	
3130	0	33568	
3131	0	33946	
3132	0	34312	
3133	0	34576	
3134	0	34672	
3135	0	34688	
3136	0	34740	
3137	0	34868	
3138	0	35060	
3139	0	35264	
3140	0	35460	
3141	0	35664	
3142	0	35688	
3143	0	35572	
3144	0	35364	
3145	0	35168	
3146	0	35050	
3147	0	35028	
3148	0	35040	
3149	0	34996	
3150	0	34876	
3151	0	34768	
3152	0	34690	
3153	0	34532	
3154	0	34332	
3155	0	34176	
3156	0	34032	
3157	0	33888	
3158	0	33732	
3159	0	33538	
3160	0	33388	
3161	0	33308	
3162	0	33232	
3163	0	33220	
3164	0	33220	
3165	0	33164	
3166	0	33114	
3167	0	33070	
3168	0	33104	
3169	0	33128	
3170	0	33064	
3171	0	32872	
3172	0	32624	
3173	0	32448	
3174	0	32292	
3175	0	32130	
3176	0	31916	
3177	0	31716	
3178	0	31480	
3179	0	31322	
3180	0	31232	
3181	0	31196	
3182	0	31148	
3183	0	31076	
3184	0	31052	
3185	0	31052	
3186	0	31116	
3187	0	31238	
3188	0	31378	
3189	0	31476	
3190	0	31508	
3191	0	31552	
3192	0	31580	
3193	0	31556	
3194	0	31500	
3195	0	31448	
3196	0	31420	
3197	0	31376	
3198	0	31352	
3199	0	31298	
3200	0	31248	
3201	0	31208	
3202	0	31196	
3203	0	31264	
3204	0	31344	
3205	0	31392	
3206	0	31426	
3207	0	31460	
3208	0	31520	
3209	0	31602	
3210	0	31664	
3211	0	31640	
3212	0	31624	
3213	0	31648	
3214	0	31652	
3215	0	31608	
3216	0	31604	
3217	0	31652	
3218	0	31656	
3219	0	31648	
3220	0	31664	
3221	0	31704	
3222	0	31732	
3223	0	31786	
3224	0	31852	
3225	0	31912	
3226	0	31832	
3227	0	31620	
3228	0	31344	
3229	0	30996	
3230	0	30476	
3231	0	29872	
3232	0	29352	
3233	0	28980	
3234	0	28816	
3235	0	28780	
3236	0	28948	
3237	0	29404	
3238	0	30064	
3239	0	30904	
3240	0	31852	
3241	0	32844	
3242	0	33968	
3243	0	35248	
3244	0	36708	
3245	0	38408	
3246	0	40436	
3247	0	42824	
3248	0	45548	
3249	0	48488	
3250	0	51440	
3251	0	54424	
3252	0	57400	
3253	0	60272	
3254	0	62512	
3255	0	63700	
3256	0	64296	
3257	0	64544	
3258	0	64636	
3259	0	64612	
3260	0	64544	
3261	0	64440	
3262	0	63676	
3263	0	58372	
3264	0	53272	
3265	0	48616	
3266	0	44576	
3267	0	41336	
3268	0	38816	
3269	0	36890	
3270	0	35268	
3271	0	33876	
3272	0	32664	
3273	0	31562	
3274	0	30408	
3275	0	29276	
3276	0	28184	
3277	0	27292	
3278	0	26668	
3279	0	26306	
3280	0	26036	
3281	0	25840	
3282	0	25768	
3283	0	25722	
3284	0	25684	
3285	0	25732	
3286	0	25898	
3287	0	26208	
3288	0	26532	
3289	0	26808	
3290	0	27072	
3291	0	27362	
3292	0	27656	
3293	0	27928	
3294	0	28218	
3295	0	28484	
3296	0	28744	
3297	0	28936	
3298	0	29056	
3299	0	29192	
3300	0	29320	
3301	0	29424	
3302	0	29480	
3303	0	29480	
3304	0	29516	
3305	0	29620	
3306	0	29772	
3307	0	29880	
3308	0	29972	
3309	0	30045	
3310	0	30088	
3311	0	30100	
3312	0	30104	
3313	0	30172	
3314	0	30200	
3315	0	30224	
3316	0	30252	
3317	0	30252	
3318	0	30284	
3319	0	30240	
3320	0	30178	
3321	0	30160	
3322	0	30156	
3323	0	30276	
3324	0	30400	
3325	0	30484	
3326	0	30544	
3327	0	30604	
3328	0	30664	
3329	0	30684	
3330	0	30724	
3331	0	30744	
3332	0	30704	
3333	0	30664	
3334	0	30680	
3335	0	30708	
3336	0	30644	
3337	0	30616	
3338	0	30664	
3339	0	30700	
3340	0	30744	
3341	0	30848	
3342	0	30992	
3343	0	31124	
3344	0	31240	
3345	0	31276	
3346	0	31296	
3347	0	31360	
3348	0	31412	
3349	0	31436	
3350	0	31428	
3351	0	31386	
3352	0	31364	
3353	0	31300	
3354	0	31332	
3355	0	31388	
3356	0	31484	
3357	0	31580	
3358	0	31660	
3359	0	31768	
3360	0	31868	
3361	0	31948	
3362	0	31924	
3363	0	31924	
3364	0	31952	
3365	0	32010	
3366	0	32076	
3367	0	32160	
3368	0	32224	
3369	0	32226	
3370	0	32242	
3371	0	32252	
3372	0	32248	
3373	0	32238	
3374	0	32240	
3375	0	32272	
3376	0	32296	
3377	0	32300	
3378	0	32284	
3379	0	32356	
3380	0	32384	
3381	0	32424	
3382	0	32472	
3383	0	32516	
3384	0	32610	
3385	0	32672	
3386	0	32712	
3387	0	32744	
3388	0	32772	
3389	0	32868	
3390	0	33004	
3391	0	33120	
3392	0	33208	
3393	0	33244	
3394	0	33196	
3395	0	33192	
3396	0	33234	
3397	0	33236	
3398	0	33266	
3399	0	33308	
3400	0	33328	
3401	0	33376	
3402	0	33448	
3403	0	33536	
3404	0	33640	
3405	0	33704	
3406	0	33792	
3407	0	33896	
3408	0	33968	
3409	0	34048	
3410	0	34100	
3411	0	34156	
3412	0	34268	
3413	0	34400	
3414	0	34492	
3415	0	34504	
3416	0	34468	
3417	0	34476	
3418	0	34528	
3419	0	34624	
3420	0	34772	
3421	0	34888	
3422	0	34952	
3423	0	35000	
3424	0	35088	
3425	0	35132	
3426	0	35176	
3427	0	35168	
3428	0	35180	
3429	0	35212	
3430	0	35296	
3431	0	35408	
3432	0	35540	
3433	0	35636	
3434	0	35736	
3435	0	35820	
3436	0	35924	
3437	0	36032	
3438	0	36092	
3439	0	36072	
3440	0	36044	
3441	0	36020	
3442	0	36032	
3443	0	36172	
3444	0	36328	
3445	0	36416	
3446	0	36528	
3447	0	36608	
3448	0	36676	
3449	0	36732	
3450	0	36788	
3451	0	36852	
3452	0	36960	
3453	0	37068	
3454	0	37112	
3455	0	37184	
3456	0	37224	
3457	0	37244	
3458	0	37276	
3459	0	37292	
3460	0	37364	
3461	0	37404	
3462	0	37472	
3463	0	37580	
3464	0	37696	
3465	0	37736	
3466	0	37744	
3467	0	37780	
3468	0	37804	
3469	0	37816	
3470	0	37836	
3471	0	37832	
3472	0	37864	
3473	0	37876	
3474	0	37914	
3475	0	37896	
3476	0	37856	
3477	0	37816	
3478	0	37792	
3479	0	37756	
3480	0	37744	
3481	0	37708	
3482	0	37660	
3483	0	37696	
3484	0	37728	
3485	0	37696	
3486	0	37568	
3487	0	37416	
3488	0	37336	
3489	0	37304	
3490	0	37288	
3491	0	37324	
3492	0	37328	
3493	0	37256	
3494	0	37160	
3495	0	37056	
3496	0	36960	
3497	0	36864	
3498	0	36748	
3499	0	36680	
3500	0	36588	
3501	0	36532	
3502	0	36432	
3503	0	36344	
3504	0	36296	
3505	0	36292	
3506	0	36236	
3507	0	35968	
3508	0	35668	
3509	0	35416	
3510	0	35148	
3511	0	34904	
3512	0	34676	
3513	0	34428	
3514	0	34212	
3515	0	34068	
3516	0	33876	
3517	0	33632	
3518	0	33364	
3519	0	33128	
3520	0	32896	
3521	0	32664	
3522	0	32460	
3523	0	32264	
3524	0	32080	
3525	0	31928	
3526	0	31804	
3527	0	31580	
3528	0	31396	
3529	0	31244	
3530	0	31152	
3531	0	31040	
3532	0	30872	
3533	0	30672	
3534	0	30464	
3535	0	30328	
3536	0	30256	
3537	0	30168	
3538	0	30048	
3539	0	29880	
3540	0	29692	
3541	0	29520	
3542	0	29328	
3543	0	29208	
3544	0	29125	
3545	0	29104	
3546	0	29056	
3547	0	29008	
3548	0	29012	
3549	0	29020	
3550	0	29024	
3551	0	28992	
3552	0	28864	
3553	0	28752	
3554	0	28668	
3555	0	28592	
3556	0	28496	
3557	0	28388	
3558	0	28348	
3559	0	28344	
3560	0	28368	
3561	0	28364	
3562	0	28416	
3563	0	28426	
3564	0	28380	
3565	0	28352	
3566	0	28352	
3567	0	28336	
3568	0	28316	
3569	0	28314	
3570	0	28328	
3571	0	28352	
3572	0	28356	
3573	0	28352	
3574	0	28348	
3575	0	28352	
3576	0	28352	
3577	0	28372	
3578	0	28388	
3579	0	28408	
3580	0	28408	
3581	0	28396	
3582	0	28424	
3583	0	28424	
3584	0	28448	
3585	0	28512	
3586	0	28552	
3587	0	28606	
3588	0	28656	
3589	0	28712	
3590	0	28756	
3591	0	28780	
3592	0	28796	
3593	0	28776	
3594	0	28768	
3595	0	28760	
3596	0	28744	
3597	0	28768	
3598	0	28776	
3599	0	28792	
3600	0	28840	
3601	0	28872	
3602	0	28940	
3603	0	28988	
3604	0	29072	
3605	0	29152	
3606	0	29204	
3607	0	29248	
3608	0	29300	
3609	0	29332	
3610	0	29388	
3611	0	29440	
3612	0	29500	
3613	0	29556	
3614	0	29606	
3615	0	29624	
3616	0	29632	
3617	0	29664	
3618	0	29700	
3619	0	29748	
3620	0	29796	
3621	0	29808	
3622	0	29848	
3623	0	29940	
3624	0	30040	
3625	0	30096	
3626	0	30124	
3627	0	30136	
3628	0	30152	
3629	0	30200	
3630	0	30250	
3631	0	30288	
3632	0	30334	
3633	0	30400	
3634	0	30420	
3635	0	30408	
3636	0	30428	
3637	0	30484	
3638	0	30528	
3639	0	30586	
3640	0	30600	
3641	0	30618	
3642	0	30644	
3643	0	30656	
3644	0	30656	
3645	0	30676	
3646	0	30705	
3647	0	30724	
3648	0	30780	
3649	0	30836	
3650	0	30872	
3651	0	30944	
3652	0	31072	
3653	0	31176	
3654	0	31264	
3655	0	31268	
3656	0	31152	
3657	0	31018	
3658	0	30912	
3659	0	30864	
3660	0	30924	
3661	0	31052	
3662	0	31144	
3663	0	31232	
3664	0	31318	
3665	0	31344	
3666	0	31348	
3667	0	31374	
3668	0	31444	
3669	0	31496	
3670	0	31512	
3671	0	31536	
3672	0	31560	
3673	0	31580	
3674	0	31576	
3675	0	31584	
3676	0	31580	
3677	0	31552	
3678	0	31468	
3679	0	31362	
3680	0	31356	
3681	0	31388	
3682	0	31444	
3683	0	31472	
3684	0	31424	
3685	0	31416	
3686	0	31432	
3687	0	31448	
3688	0	31364	
3689	0	31304	
3690	0	31366	
3691	0	31480	
3692	0	31582	
3693	0	31604	
3694	0	31548	
3695	0	31474	
3696	0	31454	
3697	0	31420	
3698	0	31400	
3699	0	31386	
3700	0	31400	
3701	0	31460	
3702	0	31556	
3703	0	31616	
3704	0	31660	
3705	0	31660	
3706	0	31664	
3707	0	31664	
3708	0	31684	
3709	0	31628	
3710	0	31560	
3711	0	31544	
3712	0	31560	
3713	0	31578	
3714	0	31580	
3715	0	31576	
3716	0	31576	
3717	0	31536	
3718	0	31512	
3719	0	31464	
3720	0	31452	
3721	0	31412	
3722	0	31380	
3723	0	31376	
3724	0	31376	
3725	0	31412	
3726	0	31416	
3727	0	31436	
3728	0	31432	
3729	0	31380	
3730	0	31388	
3731	0	31376	
3732	0	31328	
3733	0	31324	
3734	0	31352	
3735	0	31424	
3736	0	31488	
3737	0	31470	
3738	0	31412	
3739	0	31360	
3740	0	31376	
3741	0	31384	
3742	0	31384	
3743	0	31356	
3744	0	31380	
3745	0	31368	
3746	0	31320	
3747	0	31324	
3748	0	31404	
3749	0	31452	
3750	0	31464	
3751	0	31496	
3752	0	31512	
3753	0	31520	
3754	0	31456	
3755	0	31352	
3756	0	31264	
3757	0	31244	
3758	0	31228	
3759	0	31248	
3760	0	31288	
3761	0	31296	
3762	0	31304	
3763	0	31312	
3764	0	31296	
3765	0	31324	
3766	0	31388	
3767	0	31464	
3768	0	31528	
3769	0	31576	
3770	0	31592	
3771	0	31604	
3772	0	31630	
3773	0	31632	
3774	0	31594	
3775	0	31532	
3776	0	31524	
3777	0	31484	
3778	0	31408	
3779	0	31316	
3780	0	31272	
3781	0	31284	
3782	0	31314	
3783	0	31352	
3784	0	31424	
3785	0	31552	
3786	0	31636	
3787	0	31668	
3788	0	31712	
3789	0	31792	
3790	0	31788	
3791	0	31764	
3792	0	31760	
3793	0	31748	
3794	0	31728	
3795	0	31688	
3796	0	31704	
3797	0	31784	
3798	0	31816	
3799	0	31844	
3800	0	31924	
3801	0	32052	
3802	0	32184	
3803	0	32328	
3804	0	32464	
3805	0	32604	
3806	0	32704	
3807	0	32832	
3808	0	32962	
3809	0	33072	
3810	0	33100	
3811	0	33124	
3812	0	33132	
3813	0	33080	
3814	0	33008	
3815	0	32886	
3816	0	32776	
3817	0	32742	
3818	0	32720	
3819	0	32712	
3820	0	32760	
3821	0	32816	
3822	0	32844	
3823	0	32940	
3824	0	33148	
3825	0	33388	
3826	0	33676	
3827	0	33984	
3828	0	34284	
3829	0	34540	
3830	0	34720	
3831	0	34832	
3832	0	34932	
3833	0	35040	
3834	0	35120	
3835	0	35104	
3836	0	35064	
3837	0	34984	
3838	0	34880	
3839	0	34764	
3840	0	34632	
3841	0	34516	
3842	0	34424	
3843	0	34300	
3844	0	34160	
3845	0	34028	
3846	0	33968	
3847	0	33920	
3848	0	33832	
3849	0	33760	
3850	0	33688	
3851	0	33528	
3852	0	33304	
3853	0	33096	
3854	0	32932	
3855	0	32840	
3856	0	32810	
3857	0	32760	
3858	0	32616	
3859	0	32448	
3860	0	32260	
3861	0	32092	
3862	0	32052	
3863	0	32032	
3864	0	31956	
3865	0	31904	
3866	0	31896	
3867	0	31892	
3868	0	31880	
3869	0	31804	
3870	0	31692	
3871	0	31592	
3872	0	31484	
3873	0	31374	
3874	0	31248	
3875	0	31106	
3876	0	31000	
3877	0	30932	
3878	0	30896	
3879	0	30828	
3880	0	30784	
3881	0	30752	
3882	0	30692	
3883	0	30664	
3884	0	30688	
3885	0	30738	
3886	0	30780	
3887	0	30836	
3888	0	30860	
3889	0	30872	
3890	0	30844	
3891	0	30852	
3892	0	30876	
3893	0	30916	
3894	0	30944	
3895	0	30928	
3896	0	30894	
3897	0	30836	
3898	0	30820	
3899	0	30880	
3900	0	30908	
3901	0	30884	
3902	0	30920	
3903	0	30960	
3904	0	31008	
3905	0	31072	
3906	0	31148	
3907	0	31172	
3908	0	31258	
3909	0	31328	
3910	0	31376	
3911	0	31416	
3912	0	31440	
3913	0	31464	
3914	0	31424	
3915	0	31418	
3916	0	31432	
3917	0	31492	
3918	0	31540	
3919	0	31544	
3920	0	31476	
3921	0	31356	
3922	0	31096	
3923	0	30824	
3924	0	30432	
3925	0	29860	
3926	0	29272	
3927	0	28808	
3928	0	28520	
3929	0	28416	
3930	0	28436	
3931	0	28624	
3932	0	29008	
3933	0	29628	
3934	0	30484	
3935	0	31484	
3936	0	32576	
3937	0	33800	
3938	0	35140	
3939	0	36584	
3940	0	38240	
3941	0	40264	
3942	0	42640	
3943	0	45396	
3944	0	48480	
3945	0	51758	
3946	0	54960	
3947	0	58048	
3948	0	61052	
3949	0	63156	
3950	0	64264	
3951	0	64812	
3952	0	65040	
3953	0	65108	
3954	0	65092	
3955	0	65000	
3956	0	64916	
3957	0	64796	
3958	0	61016	
3959	0	55616	
3960	0	50744	
3961	0	46676	
3962	0	43320	
3963	0	40482	
3964	0	38208	
3965	0	36292	
3966	0	34588	
3967	0	33056	
3968	0	31648	
3969	0	30252	
3970	0	28892	
3971	0	27760	
3972	0	26944	
3973	0	26472	
3974	0	26128	
3975	0	25860	
3976	0	25716	
3977	0	25644	
3978	0	25536	
3979	0	25440	
3980	0	25448	
3981	0	25606	
3982	0	25880	
3983	0	26164	
3984	0	26496	
3985	0	26885	
3986	0	27264	
3987	0	27618	
3988	0	27989	
3989	0	28352	
3990	0	28644	
3991	0	28892	
3992	0	29092	
3993	0	29280	
3994	0	29444	
3995	0	29528	
3996	0	29536	
3997	0	29496	
3998	0	29492	
3999	0	29480	
4000	0	29480	
4001	0	29472	
4002	0	29484	
4003	0	29514	
4004	0	29472	
4005	0	29464	
4006	0	29468	
4007	0	29536	
4008	0	29616	
4009	0	29672	
4010	0	29714	
4011	0	29736	
4012	0	29788	
4013	0	29880	
4014	0	29852	
4015	0	29800	
4016	0	29788	
4017	0	29808	
4018	0	29812	
4019	0	29844	
4020	0	29856	
4021	0	29912	
4022	0	29972	
4023	0	30036	
4024	0	30072	
4025	0	30056	
4026	0	30144	
4027	0	30224	
4028	0	30292	
4029	0	30308	
4030	0	30332	
4031	0	30376	
4032	0	30428	
4033	0	30472	
4034	0	30512	
4035	0	30532	
4036	0	30600	
4037	0	30680	
4038	0	30724	
4039	0	30804	
4040	0	30832	
4041	0	30848	
4042	0	30932	
4043	0	31048	
4044	0	31072	
4045	0	31050	
4046	0	31104	
4047	0	31160	
4048	0	31188	
4049	0	31308	
4050	0	31408	
4051	0	31424	
4052	0	31448	
4053	0	31418	
4054	0	31328	
4055	0	31320	
4056	0	31372	
4057	0	31360	
4058	0	31362	
4059	0	31376	
4060	0	31432	
4061	0	31488	
4062	0	31512	
4063	0	31576	
4064	0	31648	
4065	0	31776	
4066	0	31896	
4067	0	31964	
4068	0	32044	
4069	0	32124	
4070	0	32208	
4071	0	32284	
4072	0	32312	
4073	0	32320	
4074	0	32344	
4075	0	32392	
4076	0	32396	
4077	0	32408	
4078	0	32436	
4079	0	32492	
4080	0	32528	
4081	0	32552	
4082	0	32596	
4083	0	32628	
4084	0	32700	
4085	0	32784	
4086	0	32880	
4087	0	32956	
4088	0	33000	
4089	0	33058	
4090	0	33120	
4091	0	33184	
4092	0	33236	
4093	0	33268	
4094	0	33328	
4095	0	33368	
4096	0	33376	
4097	0	33408	
4098	0	33456	
4099	0	33512	
4100	0	33512	
4101	0	33532	
4102	0	33576	
4103	0	33632	
4104	0	33708	
4105	0	33756	
4106	0	33832	
4107	0	33912	
4108	0	34008	
4109	0	34104	
4110	0	34152	
4111	0	34204	
4112	0	34256	
4113	0	34310	
4114	0	34388	
4115	0	34476	
4116	0	34540	
4117	0	34584	
4118	0	34652	
4119	0	34748	
4120	0	34840	
4121	0	34884	
4122	0	34928	
4123	0	34984	
4124	0	35040	
4125	0	35112	
4126	0	35176	
4127	0	35236	
4128	0	35328	
4129	0	35468	
4130	0	35592	
4131	0	35688	
4132	0	35784	
4133	0	35868	
4134	0	35920	
4135	0	35952	
4136	0	36028	
4137	0	36108	
4138	0	36160	
4139	0	36216	
4140	0	36296	
4141	0	36364	
4142	0	36436	
4143	0	36548	
4144	0	36666	
4145	0	36768	
4146	0	36856	
4147	0	36956	
4148	0	36960	
4149	0	36962	
4150	0	36984	
4151	0	37060	
4152	0	37152	
4153	0	37172	
4154	0	37216	
4155	0	37288	
4156	0	37328	
4157	0	37384	
4158	0	37460	
4159	0	37504	
4160	0	37536	
4161	0	37612	
4162	0	37724	
4163	0	37772	
4164	0	37740	
4165	0	37736	
4166	0	37752	
4167	0	37760	
4168	0	37768	
4169	0	37760	
4170	0	37776	
4171	0	37820	
4172	0	37836	
4173	0	37812	
4174	0	37756	
4175	0	37684	
4176	0	37628	
4177	0	37600	
4178	0	37536	
4179	0	37458	
4180	0	37420	
4181	0	37448	
4182	0	37500	
4183	0	37532	
4184	0	37392	
4185	0	37226	
4186	0	37080	
4187	0	37016	
4188	0	37044	
4189	0	37024	
4190	0	37028	
4191	0	37000	
4192	0	36896	
4193	0	36740	
4194	0	36556	
4195	0	36364	
4196	0	36224	
4197	0	36112	
4198	0	36008	
4199	0	35776	
4200	0	35452	
4201	0	35184	
4202	0	34980	
4203	0	34864	
4204	0	34768	
4205	0	34600	
4206	0	34348	
4207	0	34148	
4208	0	33920	
4209	0	33724	
4210	0	33616	
4211	0	33508	
4212	0	33384	
4213	0	33204	
4214	0	32960	
4215	0	32736	
4216	0	32500	
4217	0	32280	
4218	0	32096	
4219	0	31848	
4220	0	31632	
4221	0	31392	
4222	0	31228	
4223	0	31116	
4224	0	30988	
4225	0	30864	
4226	0	30684	
4227	0	30504	
4228	0	30348	
4229	0	30212	
4230	0	30096	
4231	0	29976	
4232	0	29848	
4233	0	29728	
4234	0	29580	
4235	0	29436	
4236	0	29298	
4237	0	29186	
4238	0	29073	
4239	0	28980	
4240	0	28880	
4241	0	28804	
4242	0	28748	
4243	0	28700	
4244	0	28656	
4245	0	28608	
4246	0	28568	
4247	0	28544	
4248	0	28568	
4249	0	28536	
4250	0	28496	
4251	0	28452	
4252	0	28420	
4253	0	28392	
4254	0	28380	
4255	0	28384	
4256	0	28352	
4257	0	28274	
4258	0	28224	
4259	0	28196	
4260	0	28172	
4261	0	28156	
4262	0	28168	
4263	0	28184	
4264	0	28208	
4265	0	28228	
4266	0	28288	
4267	0	28328	
4268	0	28384	
4269	0	28412	
4270	0	28444	
4271	0	28450	
4272	0	28412	
4273	0	28426	
4274	0	28472	
4275	0	28476	
4276	0	28500	
4277	0	28556	
4278	0	28560	
4279	0	28576	
4280	0	28568	
4281	0	28608	
4282	0	28658	
4283	0	28704	
4284	0	28772	
4285	0	28826	
4286	0	28904	
4287	0	28976	
4288	0	28980	
4289	0	28992	
4290	0	29064	
4291	0	29148	
4292	0	29220	
4293	0	29264	
4294	0	29300	
4295	0	29316	
4296	0	29300	
4297	0	29312	
4298	0	29328	
4299	0	29332	
4300	0	29312	
4301	0	29344	
4302	0	29456	
4303	0	29548	
4304	0	29584	
4305	0	29600	
4306	0	29658	
4307	0	29732	
4308	0	29820	
4309	0	29924	
4310	0	30024	
4311	0	30064	
4312	0	30088	
4313	0	30116	
4314	0	30164	
4315	0	30212	
4316	0	30264	
4317	0	30264	
4318	0	30246	
4319	0	30288	
4320	0	30324	
4321	0	30288	
4322	0	30258	
4323	0	30204	
4324	0	30116	
4325	0	30144	
4326	0	30234	
4327	0	30356	
4328	0	30492	
4329	0	30618	
4330	0	30744	
4331	0	30832	
4332	0	30840	
4333	0	30900	
4334	0	30928	
4335	0	30852	
4336	0	30800	
4337	0	30770	
4338	0	30752	
4339	0	30776	
4340	0	30886	
4341	0	30952	
4342	0	30944	
4343	0	30896	
4344	0	30944	
4345	0	31048	
4346	0	31100	
4347	0	31112	
4348	0	31120	
4349	0	31184	
4350	0	31268	
4351	0	31304	
4352	0	31360	
4353	0	31428	
4354	0	31468	
4355	0	31452	
4356	0	31416	
4357	0	31396	
4358	0	31404	
4359	0	31416	
4360	0	31460	
4361	0	31520	
4362	0	31532	
4363	0	31564	
4364	0	31616	
4365	0	31656	
4366	0	31668	
4367	0	31676	
4368	0	31704	
4369	0	31744	
4370	0	31812	
4371	0	31842	
4372	0	31804	
4373	0	31760	
4374	0	31780	
4375	0	31760	
4376	0	31728	
4377	0	31684	
4378	0	31668	
4379	0	31686	
4380	0	31744	
4381	0	31744	
4382	0	31732	
4383	0	31752	
4384	0	31796	
4385	0	31792	
4386	0	31816	
4387	0	31828	
4388	0	31816	
4389	0	31834	
4390	0	31852	
4391	0	31880	
4392	0	31920	
4393	0	31952	
4394	0	31924	
4395	0	31868	
4396	0	31812	
4397	0	31760	
4398	0	31772	
4399	0	31784	
4400	0	31800	
4401	0	31802	
4402	0	31800	
4403	0	31760	
4404	0	31728	
4405	0	31704	
4406	0	31708	
4407	0	31784	
4408	0	31780	
4409	0	31776	
4410	0	31784	
4411	0	31792	
4412	0	31778	
4413	0	31768	
4414	0	31748	
4415	0	31752	
4416	0	31804	
4417	0	31792	
4418	0	31844	
4419	0	31876	
4420	0	31840	
4421	0	31832	
4422	0	31840	
4423	0	31832	
4424	0	31808	
4425	0	31752	
4426	0	31728	
4427	0	31744	
4428	0	31744	
4429	0	31744	
4430	0	31744	
4431	0	31720	
4432	0	31696	
4433	0	31706	
4434	0	31700	
4435	0	31616	
4436	0	31568	
4437	0	31496	
4438	0	31448	
4439	0	31376	
4440	0	31328	
4441	0	31376	
4442	0	31452	
4443	0	31536	
4444	0	31636	
4445	0	31732	
4446	0	31808	
4447	0	31918	
4448	0	31996	
4449	0	32064	
4450	0	32064	
4451	0	32060	
4452	0	32008	
4453	0	31964	
4454	0	31952	
4455	0	31970	
4456	0	31960	
4457	0	31868	
4458	0	31834	
4459	0	31876	
4460	0	31940	
4461	0	31928	
4462	0	31888	
4463	0	31840	
4464	0	31832	
4465	0	31880	
4466	0	31904	
4467	0	31912	
4468	0	31924	
4469	0	31946	
4470	0	31964	
4471	0	31968	
4472	0	32004	
4473	0	32064	
4474	0	32068	
4475	0	32080	
4476	0	32096	
4477	0	32064	
4478	0	32000	
4479	0	31946	
4480	0	31930	
4481	0	31956	
4482	0	31976	
4483	0	31956	
4484	0	31924	
4485	0	31920	
4486	0	31960	
4487	0	32026	
4488	0	32104	
4489	0	32174	
4490	0	32228	
4491	0	32296	
4492	0	32336	
4493	0	32368	
4494	0	32388	
4495	0	32404	
4496	0	32456	
4497	0	32584	
4498	0	32688	
4499	0	32776	
4500	0	32840	
4501	0	32916	
4502	0	32988	
4503	0	33100	
4504	0	33250	
4505	0	33356	
4506	0	33424	
4507	0	33488	
4508	0	33568	
4509	0	33632	
4510	0	33672	
4511	0	33684	
4512	0	33668	
4513	0	33652	
4514	0	33616	
4515	0	33472	
4516	0	33358	
4517	0	33372	
4518	0	33440	
4519	0	33464	
4520	0	33460	
4521	0	33456	
4522	0	33532	
4523	0	33656	
4524	0	33900	
4525	0	34226	
4526	0	34560	
4527	0	34828	
4528	0	35028	
4529	0	35152	
4530	0	35242	
4531	0	35300	
4532	0	35404	
4533	0	35552	
4534	0	35680	
4535	0	35676	
4536	0	35612	
4537	0	35460	
4538	0	35256	
4539	0	35056	
4540	0	34944	
4541	0	34908	
4542	0	34828	
4543	0	34680	
4544	0	34524	
4545	0	34420	
4546	0	34340	
4547	0	34240	
4548	0	34084	
4549	0	33924	
4550	0	33844	
4551	0	33776	
4552	0	33684	
4553	0	33596	
4554	0	33456	
4555	0	33340	
4556	0	33240	
4557	0	33094	
4558	0	32944	
4559	0	32804	
4560	0	32664	
4561	0	32628	
4562	0	32568	
4563	0	32480	
4564	0	32440	
4565	0	32408	
4566	0	32312	
4567	0	32208	
4568	0	32124	
4569	0	32040	
4570	0	31984	
4571	0	31912	
4572	0	31820	
4573	0	31712	
4574	0	31560	
4575	0	31520	
4576	0	31472	
4577	0	31440	
4578	0	31372	
4579	0	31252	
4580	0	31200	
4581	0	31188	
4582	0	31212	
4583	0	31264	
4584	0	31220	
4585	0	31152	
4586	0	31072	
4587	0	31024	
4588	0	31040	
4589	0	31064	
4590	0	31100	
4591	0	31212	
4592	0	31264	
4593	0	31308	
4594	0	31372	
4595	0	31384	
4596	0	31372	
4597	0	31372	
4598	0	31424	
4599	0	31436	
4600	0	31408	
4601	0	31440	
4602	0	31528	
4603	0	31604	
4604	0	31676	
4605	0	31688	
4606	0	31672	
4607	0	31716	
4608	0	31792	
4609	0	31822	
4610	0	31800	
4611	0	31820	
4612	0	31872	
4613	0	31832	
4614	0	31808	
4615	0	31840	
4616	0	31904	
4617	0	31916	
4618	0	31868	
4619	0	31756	
4620	0	31620	
4621	0	31440	
4622	0	31194	
4623	0	30872	
4624	0	30440	
4625	0	29840	
4626	0	29256	
4627	0	28880	
4628	0	28704	
4629	0	28704	
4630	0	28812	
4631	0	29116	
4632	0	29590	
4633	0	30208	
4634	0	31040	
4635	0	32076	
4636	0	33340	
4637	0	34768	
4638	0	36384	
4639	0	38112	
4640	0	40168	
4641	0	42552	
4642	0	45220	
4643	0	48420	
4644	0	51832	
4645	0	55152	
4646	0	58256	
4647	0	61188	
4648	0	63296	
4649	0	64400	
4650	0	64928	
4651	0	65160	
4652	0	65232	
4653	0	65192	
4654	0	65112	
4655	0	65030	
4656	0	64912	
4657	0	64792	
4658	0	64664	
4659	0	60084	
4660	0	55328	
4661	0	51448	
4662	0	48120	
4663	0	45240	
4664	0	42704	
4665	0	40300	
4666	0	38048	
4667	0	36136	
4668	0	34616	
4669	0	33306	
4670	0	32124	
4671	0	31092	
4672	0	30216	
4673	0	29564	
4674	0	29080	
4675	0	28760	
4676	0	28548	
4677	0	28396	
4678	0	28252	
4679	0	28072	
4680	0	27838	
4681	0	27656	
4682	0	27632	
4683	0	27788	
4684	0	28076	
4685	0	28364	
4686	0	28588	
4687	0	28776	
4688	0	28932	
4689	0	29032	
4690	0	29044	
4691	0	29024	
4692	0	28988	
4693	0	28948	
4694	0	28936	
4695	0	28928	
4696	0	28948	
4697	0	28932	
4698	0	28836	
4699	0	28736	
4700	0	28692	
4701	0	28688	
4702	0	28676	
4703	0	28716	
4704	0	28782	
4705	0	28828	
4706	0	28772	
4707	0	28768	
4708	0	28864	
4709	0	28912	
4710	0	28928	
4711	0	28944	
4712	0	28996	
4713	0	29060	
4714	0	29104	
4715	0	29140	
4716	0	29152	
4717	0	29136	
4718	0	29132	
4719	0	29160	
4720	0	29256	
4721	0	29328	
4722	0	29376	
4723	0	29416	
4724	0	29474	
4725	0	29536	
4726	0	29608	
4727	0	29664	
4728	0	29680	
4729	0	29728	
4730	0	29824	
4731	0	29884	
4732	0	29880	
4733	0	29912	
4734	0	29968	
4735	0	30000	
4736	0	30012	
4737	0	30064	
4738	0	30136	
4739	0	30176	
4740	0	30224	
4741	0	30288	
4742	0	30224	
4743	0	30128	
4744	0	30120	
4745	0	30216	
4746	0	30360	
4747	0	30516	
4748	0	30632	
4749	0	30716	
4750	0	30804	
4751	0	30816	
4752	0	30796	
4753	0	30820	
4754	0	30856	
4755	0	30952	
4756	0	31084	
4757	0	31152	
4758	0	31154	
4759	0	31136	
4760	0	31196	
4761	0	31224	
4762	0	31296	
4763	0	31368	
4764	0	31424	
4765	0	31520	
4766	0	31584	
4767	0	31620	
4768	0	31684	
4769	0	31680	
4770	0	31700	
4771	0	31736	
4772	0	31752	
4773	0	31758	
4774	0	31752	
4775	0	31760	
4776	0	31792	
4777	0	31792	
4778	0	31812	
4779	0	31892	
4780	0	31960	
4781	0	32008	
4782	0	32044	
4783	0	32152	
4784	0	32258	
4785	0	32268	
4786	0	32264	
4787	0	32328	
4788	0	32440	
4789	0	32528	
4790	0	32596	
4791	0	32616	
4792	0	32648	
4793	0	32728	
4794	0	32792	
4795	0	32840	
4796	0	32884	
4797	0	32950	
4798	0	33036	
4799	0	33112	
4800	0	33218	
4801	0	33292	
4802	0	33312	
4803	0	33312	
4804	0	33344	
4805	0	33416	
4806	0	33538	
4807	0	33664	
4808	0	33748	
4809	0	33816	
4810	0	33882	
4811	0	33928	
4812	0	33944	
4813	0	34008	
4814	0	34084	
4815	0	34112	
4816	0	34112	
4817	0	34144	
4818	0	34232	
4819	0	34232	
4820	0	34282	
4821	0	34400	
4822	0	34520	
4823	0	34572	
4824	0	34700	
4825	0	34828	
4826	0	34928	
4827	0	35002	
4828	0	35072	
4829	0	35212	
4830	0	35372	
4831	0	35480	
4832	0	35520	
4833	0	35568	
4834	0	35572	
4835	0	35620	
4836	0	35662	
4837	0	35656	
4838	0	35668	
4839	0	35716	
4840	0	35760	
4841	0	35808	
4842	0	35952	
4843	0	36048	
4844	0	36104	
4845	0	36240	
4846	0	36380	
4847	0	36524	
4848	0	36672	
4849	0	36752	
4850	0	36832	
4851	0	36924	
4852	0	37040	
4853	0	37124	
4854	0	37216	
4855	0	37272	
4856	0	37252	
4857	0	37242	
4858	0	37256	
4859	0	37252	
4860	0	37260	
4861	0	37304	
4862	0	37352	
4863	0	37372	
4864	0	37386	
4865	0	37402	
4866	0	37444	
4867	0	37496	
4868	0	37520	
4869	0	37520	
4870	0	37580	
4871	0	37584	
4872	0	37560	
4873	0	37568	
4874	0	37576	
4875	0	37528	
4876	0	37448	
4877	0	37440	
4878	0	37440	
4879	0	37396	
4880	0	37368	
4881	0	37348	
4882	0	37356	
4883	0	37400	
4884	0	37412	
4885	0	37416	
4886	0	37370	
4887	0	37330	
4888	0	37300	
4889	0	37220	
4890	0	37136	
4891	0	37000	
4892	0	36924	
4893	0	36828	
4894	0	36704	
4895	0	36538	
4896	0	36356	
4897	0	36176	
4898	0	35980	
4899	0	35812	
4900	0	35648	
4901	0	35488	
4902	0	35338	
4903	0	35224	
4904	0	35032	
4905	0	34752	
4906	0	34516	
4907	0	34336	
4908	0	34172	
4909	0	34024	
4910	0	33800	
4911	0	33580	
4912	0	33460	
4913	0	33276	
4914	0	33032	
4915	0	32764	
4916	0	32608	
4917	0	32416	
4918	0	32212	
4919	0	31988	
4920	0	31736	
4921	0	31496	
4922	0	31280	
4923	0	31080	
4924	0	30928	
4925	0	30798	
4926	0	30660	
4927	0	30580	
4928	0	30484	
4929	0	30362	
4930	0	30224	
4931	0	30088	
4932	0	29968	
4933	0	29888	
4934	0	29828	
4935	0	29720	
4936	0	29564	
4937	0	29432	
4938	0	29298	
4939	0	29208	
4940	0	29140	
4941	0	29088	
4942	0	29072	
4943	0	29028	
4944	0	29044	
4945	0	29040	
4946	0	28976	
4947	0	28936	
4948	0	28908	
4949	0	28896	
4950	0	28864	
4951	0	28780	
4952	0	28776	
4953	0	28788	
4954	0	28770	
4955	0	28656	
4956	0	28584	
4957	0	28524	
4958	0	28492	
4959	0	28524	
4960	0	28564	
4961	0	28580	
4962	0	28584	
4963	0	28640	
4964	0	28640	
4965	0	28690	
4966	0	28796	
4967	0	28820	
4968	0	28832	
4969	0	28852	
4970	0	28848	
4971	0	28884	
4972	0	28922	
4973	0	28904	
4974	0	28856	
4975	0	28864	
4976	0	28888	
4977	0	28878	
4978	0	28892	
4979	0	28932	
4980	0	28928	
4981	0	28924	
4982	0	28980	
4983	0	29080	
4984	0	29105	
4985	0	29112	
4986	0	29152	
4987	0	29250	
4988	0	29372	
4989	0	29484	
4990	0	29536	
4991	0	29624	
4992	0	29660	
4993	0	29652	
4994	0	29660	
4995	0	29708	
4996	0	29736	
4997	0	29736	
4998	0	29752	
4999	0	29760	
5000	0	29784	
5001	0	29776	
5002	0	29740	
5003	0	29728	
5004	0	29816	
5005	0	29904	
5006	0	29988	
5007	0	30072	
5008	0	30152	
5009	0	30268	
5010	0	30334	
5011	0	30356	
5012	0	30304	
5013	0	30274	
5014	0	30284	
5015	0	30268	
5016	0	30272	
5017	0	30322	
5018	0	30356	
5019	0	30392	
5020	0	30376	
5021	0	30332	
5022	0	30368	
5023	0	30484	
5024	0	30586	
5025	0	30656	
5026	0	30704	
5027	0	30768	
5028	0	30812	
5029	0	30848	
5030	0	30932	
5031	0	30996	
5032	0	31048	
5033	0	31100	
5034	0	31088	
5035	0	31080	
5036	0	31064	
5037	0	31052	
5038	0	31064	
5039	0	31052	
5040	0	31002	
5041	0	30960	
5042	0	30992	
5043	0	31028	
5044	0	31040	
5045	0	31076	
5046	0	31128	
5047	0	31180	
5048	0	31182	
5049	0	31204	
5050	0	31208	
5051	0	31288	
5052	0	31352	
5053	0	31360	
5054	0	31352	
5055	0	31282	
5056	0	31224	
5057	0	31200	
5058	0	31208	
5059	0	31236	
5060	0	31228	
5061	0	31280	
5062	0	31332	
5063	0	31360	
5064	0	31336	
5065	0	31398	
5066	0	31474	
5067	0	31544	
5068	0	31568	
5069	0	31624	
5070	0	31662	
5071	0	31650	
5072	0	31604	
5073	0	31620	
5074	0	31672	
5075	0	31656	
5076	0	31600	
5077	0	31580	
5078	0	31604	
5079	0	31664	
5080	0	31668	
5081	0	31680	
5082	0	31688	
5083	0	31680	
5084	0	31656	
5085	0	31650	
5086	0	31732	
5087	0	31816	
5088	0	31864	
5089	0	31916	
5090	0	31936	
5091	0	31956	
5092	0	31960	
5093	0	31920	
5094	0	31840	
5095	0	31808	
5096	0	31804	
5097	0	31800	
5098	0	31802	
5099	0	31824	
5100	0	31780	
5101	0	31754	
5102	0	31756	
5103	0	31716	
5104	0	31706	
5105	0	31700	
5106	0	31706	
5107	0	31732	
5108	0	31784	
5109	0	31844	
5110	0	31776	
5111	0	31740	
5112	0	31756	
5113	0	31704	
5114	0	31656	
5115	0	31656	
5116	0	31680	
5117	0	31770	
5118	0	31832	
5119	0	31800	
5120	0	31724	
5121	0	31736	
5122	0	31726	
5123	0	31716	
5124	0	31680	
5125	0	31676	
5126	0	31752	
5127	0	31868	
5128	0	31920	
5129	0	31816	
5130	0	31752	
5131	0	31804	
5132	0	31864	
5133	0	31816	
5134	0	31704	
5135	0	31768	
5136	0	31820	
5137	0	31752	
5138	0	31724	
5139	0	31748	
5140	0	31796	
5141	0	31684	
5142	0	31616	
5143	0	31740	
5144	0	31816	
5145	0	31936	
5146	0	32024	
5147	0	32092	
5148	0	32080	
5149	0	32076	
5150	0	32160	
5151	0	32204	
5152	0	32096	
5153	0	32040	
5154	0	32024	
5155	0	32020	
5156	0	32020	
5157	0	32006	
5158	0	31984	
5159	0	31956	
5160	0	31952	
5161	0	31968	
5162	0	31984	
5163	0	32040	
5164	0	32104	
5165	0	32084	
5166	0	32092	
5167	0	32068	
5168	0	32084	
5169	0	32048	
5170	0	32032	
5171	0	32048	
5172	0	32000	
5173	0	32116	
5174	0	32240	
5175	0	32232	
5176	0	32184	
5177	0	32136	
5178	0	32112	
5179	0	32092	
5180	0	32056	
5181	0	32108	
5182	0	32116	
5183	0	32084	
5184	0	32064	
5185	0	32068	
5186	0	32136	
5187	0	32244	
5188	0	32320	
5189	0	32372	
5190	0	32392	
5191	0	32428	
5192	0	32418	
5193	0	32344	
5194	0	32284	
5195	0	32312	
5196	0	32376	
5197	0	32356	
5198	0	32296	
5199	0	32276	
5200	0	32192	
5201	0	32112	
5202	0	32112	
5203	0	32092	
5204	0	32084	
5205	0	32128	
5206	0	32144	
5207	0	32212	
5208	0	32332	
5209	0	32388	
5210	0	32384	
5211	0	32424	
5212	0	32476	
5213	0	32528	
5214	0	32532	
5215	0	32544	
5216	0	32620	
5217	0	32732	
5218	0	32856	
5219	0	32926	
5220	0	32984	
5221	0	33088	
5222	0	33210	
5223	0	33352	
5224	0	33490	
5225	0	33620	
5226	0	33752	
5227	0	33832	
5228	0	33888	
5229	0	33912	
5230	0	33920	
5231	0	33916	
5232	0	33844	
5233	0	33780	
5234	0	33712	
5235	0	33578	
5236	0	33476	
5237	0	33412	
5238	0	33388	
5239	0	33386	
5240	0	33380	
5241	0	33408	
5242	0	33512	
5243	0	33674	
5244	0	33856	
5245	0	34124	
5246	0	34456	
5247	0	34692	
5248	0	34936	
5249	0	35136	
5250	0	35256	
5251	0	35344	
5252	0	35496	
5253	0	35656	
5254	0	35648	
5255	0	35528	
5256	0	35384	
5257	0	35306	
5258	0	35184	
5259	0	35068	
5260	0	34976	
5261	0	34860	
5262	0	34772	
5263	0	34680	
5264	0	34552	
5265	0	34424	
5266	0	34332	
5267	0	34252	
5268	0	34160	
5269	0	34120	
5270	0	34052	
5271	0	33920	
5272	0	33752	
5273	0	33628	
5274	0	33572	
5275	0	33468	
5276	0	33372	
5277	0	33268	
5278	0	33172	
5279	0	33084	
5280	0	32944	
5281	0	32824	
5282	0	32632	
5283	0	32442	
5284	0	32380	
5285	0	32388	
5286	0	32324	
5287	0	32176	
5288	0	32090	
5289	0	32028	
5290	0	31948	
5291	0	31840	
5292	0	31776	
5293	0	31676	
5294	0	31580	
5295	0	31548	
5296	0	31432	
5297	0	31312	
5298	0	31256	
5299	0	31252	
5300	0	31266	
5301	0	31252	
5302	0	31260	
5303	0	31204	
5304	0	31226	
5305	0	31280	
5306	0	31264	
5307	0	31248	
5308	0	31320	
5309	0	31376	
5310	0	31376	
5311	0	31400	
5312	0	31440	
5313	0	31440	
5314	0	31504	
5315	0	31528	
5316	0	31464	
5317	0	31388	
5318	0	31378	
5319	0	31424	
5320	0	31544	
5321	0	31632	
5322	0	31648	
5323	0	31712	
5324	0	31720	
5325	0	31700	
5326	0	31700	
5327	0	31700	
5328	0	31736	
5329	0	31744	
5330	0	31800	
5331	0	31872	
5332	0	31912	
5333	0	31940	
5334	0	31928	
5335	0	31912	
5336	0	31888	
5337	0	31840	
5338	0	31800	
5339	0	31744	
5340	0	31664	
5341	0	31504	
5342	0	31312	
5343	0	31028	
5344	0	30500	
5345	0	29914	
5346	0	29296	
5347	0	28800	
5348	0	28456	
5349	0	28216	
5350	0	28212	
5351	0	28430	
5352	0	28888	
5353	0	29552	
5354	0	30368	
5355	0	31344	
5356	0	32456	
5357	0	33800	
5358	0	35360	
5359	0	37064	
5360	0	38976	
5361	0	41280	
5362	0	43868	
5363	0	46924	
5364	0	50312	
5365	0	53648	
5366	0	56900	
5367	0	60072	
5368	0	62612	
5369	0	63964	
5370	0	64648	
5371	0	64952	
5372	0	65044	
5373	0	65048	
5374	0	64992	
5375	0	64904	
5376	0	64784	
5377	0	64660	
5378	0	64536	
5379	0	61932	
5380	0	56932	
5381	0	52896	
5382	0	49472	
5383	0	46528	
5384	0	44032	
5385	0	41692	
5386	0	39472	
5387	0	37424	
5388	0	35632	
5389	0	34160	
5390	0	32860	
5391	0	31652	
5392	0	30560	
5393	0	29728	
5394	0	29116	
5395	0	28696	
5396	0	28438	
5397	0	28316	
5398	0	28188	
5399	0	27952	
5400	0	27712	
5401	0	27632	
5402	0	27620	
5403	0	27656	
5404	0	27752	
5405	0	27948	
5406	0	28148	
5407	0	28366	
5408	0	28600	
5409	0	28836	
5410	0	28968	
5411	0	28972	
5412	0	28944	
5413	0	28864	
5414	0	28748	
5415	0	28748	
5416	0	28812	
5417	0	28844	
5418	0	28828	
5419	0	28806	
5420	0	28832	
5421	0	28834	
5422	0	28816	
5423	0	28800	
5424	0	28788	
5425	0	28780	
5426	0	28784	
5427	0	28780	
5428	0	28800	
5429	0	28796	
5430	0	28820	
5431	0	28848	
5432	0	28836	
5433	0	28872	
5434	0	28940	
5435	0	28970	
5436	0	28996	
5437	0	28980	
5438	0	28888	
5439	0	28836	
5440	0	28808	
5441	0	28848	
5442	0	28940	
5443	0	28972	
5444	0	29040	
5445	0	29140	
5446	0	29182	
5447	0	29352	
5448	0	29488	
5449	0	29660	
5450	0	29744	
5451	0	29796	
5452	0	29844	
5453	0	29818	
5454	0	29812	
5455	0	29792	
5456	0	29832	
5457	0	29880	
5458	0	29882	
5459	0	29852	
5460	0	29860	
5461	0	29882	
5462	0	29906	
5463	0	29972	
5464	0	30056	
5465	0	30140	
5466	0	30260	
5467	0	30352	
5468	0	30384	
5469	0	30420	
5470	0	30516	
5471	0	30568	
5472	0	30612	
5473	0	30568	
5474	0	30528	
5475	0	30476	
5476	0	30484	
5477	0	30556	
5478	0	30568	
5479	0	30584	
5480	0	30696	
5481	0	30792	
5482	0	30856	
5483	0	30872	
5484	0	30880	
5485	0	30920	
5486	0	31004	
5487	0	31096	
5488	0	31196	
5489	0	31296	
5490	0	31376	
5491	0	31456	
5492	0	31520	
5493	0	31584	
5494	0	31628	
5495	0	31640	
5496	0	31608	
5497	0	31564	
5498	0	31528	
5499	0	31576	
5500	0	31624	
5501	0	31698	
5502	0	31748	
5503	0	31796	
5504	0	31876	
5505	0	32060	
5506	0	32208	
5507	0	32280	
5508	0	32312	
5509	0	32352	
5510	0	32346	
5511	0	32424	
5512	0	32532	
5513	0	32640	
5514	0	32708	
5515	0	32784	
5516	0	32812	
5517	0	32816	
5518	0	32842	
5519	0	32880	
5520	0	32956	
5521	0	33028	
5522	0	33044	
5523	0	33004	
5524	0	33036	
5525	0	33120	
5526	0	33216	
5527	0	33304	
5528	0	33360	
5529	0	33434	
5530	0	33508	
5531	0	33572	
5532	0	33680	
5533	0	33740	
5534	0	33816	
5535	0	33856	
5536	0	33850	
5537	0	33848	
5538	0	33888	
5539	0	33920	
5540	0	33952	
5541	0	34058	
5542	0	34240	
5543	0	34348	
5544	0	34432	
5545	0	34568	
5546	0	34720	
5547	0	34840	
5548	0	34916	
5549	0	35020	
5550	0	35136	
5551	0	35176	
5552	0	35220	
5553	0	35264	
5554	0	35328	
5555	0	35362	
5556	0	35436	
5557	0	35560	
5558	0	35668	
5559	0	35752	
5560	0	35820	
5561	0	35834	
5562	0	35824	
5563	0	35872	
5564	0	36004	
5565	0	36124	
5566	0	36212	
5567	0	36320	
5568	0	36440	
5569	0	36536	
5570	0	36616	
5571	0	36688	
5572	0	36752	
5573	0	36816	
5574	0	36856	
5575	0	36920	
5576	0	36996	
5577	0	37036	
5578	0	37080	
5579	0	37076	
5580	0	37088	
5581	0	37088	
5582	0	37048	
5583	0	37108	
5584	0	37232	
5585	0	37300	
5586	0	37300	
5587	0	37340	
5588	0	37356	
5589	0	37384	
5590	0	37424	
5591	0	37404	
5592	0	37344	
5593	0	37384	
5594	0	37432	
5595	0	37448	
5596	0	37396	
5597	0	37336	
5598	0	37300	
5599	0	37228	
5600	0	37248	
5601	0	37340	
5602	0	37336	
5603	0	37232	
5604	0	37220	
5605	0	37244	
5606	0	37256	
5607	0	37260	
5608	0	37248	
5609	0	37232	
5610	0	37188	
5611	0	37160	
5612	0	37108	
5613	0	36992	
5614	0	36852	
5615	0	36712	
5616	0	36580	
5617	0	36386	
5618	0	36208	
5619	0	36072	
5620	0	35928	
5621	0	35820	
5622	0	35652	
5623	0	35436	
5624	0	35260	
5625	0	35112	
5626	0	34968	
5627	0	34804	
5628	0	34520	
5629	0	34236	
5630	0	34060	
5631	0	33872	
5632	0	33660	
5633	0	33488	
5634	0	33278	
5635	0	33000	
5636	0	32724	
5637	0	32448	
5638	0	32152	
5639	0	31928	
5640	0	31760	
5641	0	31612	
5642	0	31476	
5643	0	31340	
5644	0	31216	
5645	0	31128	
5646	0	31012	
5647	0	30812	
5648	0	30596	
5649	0	30440	
5650	0	30312	
5651	0	30160	
5652	0	30004	
5653	0	29886	
5654	0	29712	
5655	0	29500	
5656	0	29384	
5657	0	29264	
5658	0	29160	
5659	0	29032	
5660	0	28956	
5661	0	28932	
5662	0	28872	
5663	0	28808	
5664	0	28744	
5665	0	28732	
5666	0	28760	
5667	0	28768	
5668	0	28760	
5669	0	28712	
5670	0	28684	
5671	0	28672	
5672	0	28630	
5673	0	28560	
5674	0	28464	
5675	0	28420	
5676	0	28372	
5677	0	28364	
5678	0	28348	
5679	0	28284	
5680	0	28256	
5681	0	28292	
5682	0	28312	
5683	0	28284	
5684	0	28296	
5685	0	28352	
5686	0	28404	
5687	0	28472	
5688	0	28556	
5689	0	28620	
5690	0	28672	
5691	0	28720	
5692	0	28716	
5693	0	28680	
5694	0	28620	
5695	0	28608	
5696	0	28664	
5697	0	28724	
5698	0	28756	
5699	0	28780	
5700	0	28808	
5701	0	28844	
5702	0	28888	
5703	0	28916	
5704	0	28992	
5705	0	29072	
5706	0	29144	
5707	0	29212	
5708	0	29298	
5709	0	29392	
5710	0	29480	
5711	0	29532	
5712	0	29568	
5713	0	29568	
5714	0	29556	
5715	0	29572	
5716	0	29576	
5717	0	29530	
5718	0	29480	
5719	0	29488	
5720	0	29508	
5721	0	29580	
5722	0	29666	
5723	0	29712	
5724	0	29788	
5725	0	29824	
5726	0	29892	
5727	0	29976	
5728	0	30066	
5729	0	30120	
5730	0	30156	
5731	0	30180	
5732	0	30148	
5733	0	30156	
5734	0	30192	
5735	0	30232	
5736	0	30260	
5737	0	30304	
5738	0	30304	
5739	0	30304	
5740	0	30304	
5741	0	30336	
5742	0	30328	
5743	0	30356	
5744	0	30400	
5745	0	30452	
5746	0	30504	
5747	0	30558	
5748	0	30588	
5749	0	30624	
5750	0	30664	
5751	0	30704	
5752	0	30720	
5753	0	30692	
5754	0	30656	
5755	0	30664	
5756	0	30670	
5757	0	30708	
5758	0	30752	
5759	0	30812	
5760	0	30884	
5761	0	30916	
5762	0	30914	
5763	0	30900	
5764	0	30912	
5765	0	30936	
5766	0	30976	
5767	0	31024	
5768	0	31072	
5769	0	31084	
5770	0	31088	
5771	0	31116	
5772	0	31144	
5773	0	31162	
5774	0	31204	
5775	0	31252	
5776	0	31304	
5777	0	31354	
5778	0	31332	
5779	0	31308	
5780	0	31272	
5781	0	31296	
5782	0	31312	
5783	0	31344	
5784	0	31396	
5785	0	31476	
5786	0	31500	
5787	0	31488	
5788	0	31504	
5789	0	31560	
5790	0	31604	
5791	0	31572	
5792	0	31560	
5793	0	31612	
5794	0	31572	
5795	0	31460	
5796	0	31424	
5797	0	31336	
5798	0	31324	
5799	0	31390	
5800	0	31424	
5801	0	31424	
5802	0	31472	
5803	0	31568	
5804	0	31624	
5805	0	31678	
5806	0	31714	
5807	0	31696	
5808	0	31752	
5809	0	31764	
5810	0	31696	
5811	0	31564	
5812	0	31516	
5813	0	31552	
5814	0	31554	
5815	0	31568	
5816	0	31594	
5817	0	31588	
5818	0	31504	
5819	0	31404	
5820	0	31360	
5821	0	31372	
5822	0	31508	
5823	0	31680	
5824	0	31800	
5825	0	31820	
5826	0	31808	
5827	0	31760	
5828	0	31732	
5829	0	31660	
5830	0	31652	
5831	0	31681	
5832	0	31688	
5833	0	31700	
5834	0	31696	
5835	0	31732	
5836	0	31744	
5837	0	31698	
5838	0	31652	
5839	0	31632	
5840	0	31640	
5841	0	31668	
5842	0	31708	
5843	0	31720	
5844	0	31796	
5845	0	31872	
5846	0	31876	
5847	0	31768	
5848	0	31728	
5849	0	31696	
5850	0	31660	
5851	0	31724	
5852	0	31748	
5853	0	31756	
5854	0	31752	
5855	0	31688	
5856	0	31632	
5857	0	31584	
5858	0	31560	
5859	0	31556	
5860	0	31564	
5861	0	31562	
5862	0	31572	
5863	0	31616	
5864	0	31680	
5865	0	31728	
5866	0	31768	
5867	0	31792	
5868	0	31818	
5869	0	31868	
5870	0	31872	
5871	0	31880	
5872	0	31856	
5873	0	31828	
5874	0	31840	
5875	0	31809	
5876	0	31740	
5877	0	31696	
5878	0	31700	
5879	0	31744	
5880	0	31816	
5881	0	31832	
5882	0	31796	
5883	0	31744	
5884	0	31812	
5885	0	31884	
5886	0	31880	
5887	0	31878	
5888	0	31928	
5889	0	31924	
5890	0	31916	
5891	0	31968	
5892	0	31952	
5893	0	31936	
5894	0	31992	
5895	0	32052	
5896	0	32068	
5897	0	32052	
5898	0	32000	
5899	0	31988	
5900	0	31984	
5901	0	31968	
5902	0	31906	
5903	0	31852	
5904	0	31856	
5905	0	31888	
5906	0	31868	
5907	0	31860	
5908	0	31856	
5909	0	31864	
5910	0	31884	
5911	0	31920	
5912	0	31948	
5913	0	32000	
5914	0	32060	
5915	0	32072	
5916	0	32072	
5917	0	32096	
5918	0	32072	
5919	0	32068	
5920	0	32128	
5921	0	32164	
5922	0	32188	
5923	0	32212	
5924	0	32256	
5925	0	32248	
5926	0	32188	
5927	0	32196	
5928	0	32194	
5929	0	32180	
5930	0	32224	
5931	0	32234	
5932	0	32196	
5933	0	32192	
5934	0	32208	
5935	0	32256	
5936	0	32284	
5937	0	32276	
5938	0	32216	
5939	0	32160	
5940	0	32190	
5941	0	32268	
5942	0	32314	
5943	0	32336	
5944	0	32352	
5945	0	32426	
5946	0	32476	
5947	0	32492	
5948	0	32456	
5949	0	32436	
5950	0	32424	
5951	0	32452	
5952	0	32568	
5953	0	32656	
5954	0	32680	
5955	0	32640	
5956	0	32592	
5957	0	32600	
5958	0	32684	
5959	0	32828	
5960	0	33004	
5961	0	33104	
5962	0	33180	
5963	0	33256	
5964	0	33344	
5965	0	33448	
5966	0	33564	
5967	0	33660	
5968	0	33760	
5969	0	33836	
5970	0	33968	
5971	0	34016	
5972	0	33984	
5973	0	33900	
5974	0	33764	
5975	0	33664	
5976	0	33600	
5977	0	33520	
5978	0	33450	
5979	0	33400	
5980	0	33376	
5981	0	33368	
5982	0	33370	
5983	0	33464	
5984	0	33620	
5985	0	33732	
5986	0	33920	
5987	0	34172	
5988	0	34520	
5989	0	34872	
5990	0	35120	
5991	0	35232	
5992	0	35262	
5993	0	35330	
5994	0	35444	
5995	0	35536	
5996	0	35504	
5997	0	35436	
5998	0	35344	
5999	0	35256	
6000	0	35156	
6001	0	35040	
6002	0	34976	
6003	0	34930	
6004	0	34818	
6005	0	34656	
6006	0	34524	
6007	0	34442	
6008	0	34408	
6009	0	34312	
6010	0	34176	
6011	0	34064	
6012	0	33933	
6013	0	33800	
6014	0	33714	
6015	0	33560	
6016	0	33368	
6017	0	33240	
6018	0	33190	
6019	0	33024	
6020	0	32892	
6021	0	32752	
6022	0	32644	
6023	0	32628	
6024	0	32640	
6025	0	32576	
6026	0	32460	
6027	0	32332	
6028	0	32260	
6029	0	32224	
6030	0	32120	
6031	0	32004	
6032	0	31892	
6033	0	31832	
6034	0	31728	
6035	0	31636	
6036	0	31560	
6037	0	31476	
6038	0	31420	
6039	0	31328	
6040	0	31264	
6041	0	31240	
6042	0	31192	
6043	0	31216	
6044	0	31200	
6045	0	31124	
6046	0	31056	
6047	0	31028	
6048	0	31080	
6049	0	31160	
6050	0	31220	
6051	0	31260	
6052	0	31296	
6053	0	31296	
6054	0	31332	
6055	0	31348	
6056	0	31376	
6057	0	31404	
6058	0	31420	
6059	0	31380	
6060	0	31336	
6061	0	31300	
6062	0	31332	
6063	0	31380	
6064	0	31440	
6065	0	31528	
6066	0	31600	
6067	0	31616	
6068	0	31664	
6069	0	31712	
6070	0	31712	
6071	0	31750	
6072	0	31820	
6073	0	31840	
6074	0	31876	
6075	0	31936	
6076	0	31972	
6077	0	31976	
6078	0	31944	
6079	0	31872	
6080	0	31804	
6081	0	31672	
6082	0	31480	
6083	0	31272	
6084	0	30970	
6085	0	30552	
6086	0	29996	
6087	0	29324	
6088	0	28780	
6089	0	28472	
6090	0	28360	
6091	0	28352	
6092	0	28504	
6093	0	28872	
6094	0	29396	
6095	0	30136	
6096	0	31048	
6097	0	32108	
6098	0	33476	
6099	0	34972	
6100	0	36556	
6101	0	38340	
6102	0	40512	
6103	0	43032	
6104	0	45916	
6105	0	49228	
6106	0	52604	
6107	0	55800	
6108	0	58920	
6109	0	61824	
6110	0	63648	
6111	0	64584	
6112	0	65040	
6113	0	65216	
6114	0	65242	
6115	0	65200	
6116	0	65124	
6117	0	65032	
6118	0	64908	
6119	0	64788	
6120	0	61796	
6121	0	57016	
6122	0	53076	
6123	0	49728	
6124	0	46960	
6125	0	44584	
6126	0	42392	
6127	0	40240	
6128	0	38228	
6129	0	36332	
6130	0	34660	
6131	0	33218	
6132	0	31952	
6133	0	30786	
6134	0	29884	
6135	0	29248	
6136	0	28764	
6137	0	28480	
6138	0	28260	
6139	0	27968	
6140	0	27648	
6141	0	27424	
6142	0	27296	
6143	0	27308	
6144	0	27440	
6145	0	27616	
6146	0	27792	
6147	0	27976	
6148	0	28200	
6149	0	28460	
6150	0	28664	
6151	0	28808	
6152	0	28872	
6153	0	28824	
6154	0	28720	
6155	0	28752	
6156	0	28804	
6157	0	28796	
6158	0	28736	
6159	0	28672	
6160	0	28628	
6161	0	28636	
6162	0	28636	
6163	0	28632	
6164	0	28624	
6165	0	28672	
6166	0	28752	
6167	0	28828	
6168	0	28880	
6169	0	28932	
6170	0	28960	
6171	0	28968	
6172	0	28912	
6173	0	28900	
6174	0	28960	
6175	0	28972	
6176	0	28928	
6177	0	28932	
6178	0	28932	
6179	0	28948	
6180	0	28976	
6181	0	29088	
6182	0	29158	
6183	0	29180	
6184	0	29184	
6185	0	29192	
6186	0	29216	
6187	0	29280	
6188	0	29372	
6189	0	29436	
6190	0	29488	
6191	0	29620	
6192	0	29792	
6193	0	29872	
6194	0	29900	
6195	0	29916	
6196	0	29844	
6197	0	29796	
6198	0	29816	
6199	0	29844	
6200	0	29856	
6201	0	29928	
6202	0	29980	
6203	0	30032	
6204	0	30108	
6205	0	30212	
6206	0	30264	
6207	0	30272	
6208	0	30316	
6209	0	30386	
6210	0	30464	
6211	0	30556	
6212	0	30676	
6213	0	30744	
6214	0	30848	
6215	0	30952	
6216	0	31048	
6217	0	31032	
6218	0	31004	
6219	0	30984	
6220	0	31008	
6221	0	31072	
6222	0	31132	
6223	0	31204	
6224	0	31272	
6225	0	31344	
6226	0	31396	
6227	0	31396	
6228	0	31332	
6229	0	31308	
6230	0	31336	
6231	0	31404	
6232	0	31496	
6233	0	31556	
6234	0	31600	
6235	0	31616	
6236	0	31608	
6237	0	31656	
6238	0	31688	
6239	0	31772	
6240	0	31848	
6241	0	31900	
6242	0	31928	
6243	0	31972	
6244	0	32080	
6245	0	32184	
6246	0	32210	
6247	0	32260	
6248	0	32328	
6249	0	32372	
6250	0	32380	
6251	0	32384	
6252	0	32432	
6253	0	32500	
6254	0	32528	
6255	0	32528	
6256	0	32530	
6257	0	32552	
6258	0	32608	
6259	0	32700	
6260	0	32774	
6261	0	32852	
6262	0	32920	
6263	0	32972	
6264	0	33076	
6265	0	33180	
6266	0	33276	
6267	0	33408	
6268	0	33528	
6269	0	33632	
6270	0	33688	
6271	0	33748	
6272	0	33744	
6273	0	33758	
6274	0	33772	
6275	0	33836	
6276	0	33840	
6277	0	33880	
6278	0	33932	
6279	0	33948	
6280	0	33936	
6281	0	34008	
6282	0	34116	
6283	0	34240	
6284	0	34392	
6285	0	34492	
6286	0	34556	
6287	0	34676	
6288	0	34812	
6289	0	34924	
6290	0	35028	
6291	0	35120	
6292	0	35252	
6293	0	35388	
6294	0	35464	
6295	0	35488	
6296	0	35476	
6297	0	35492	
6298	0	35536	
6299	0	35600	
6300	0	35624	
6301	0	35712	
6302	0	35828	
6303	0	35888	
6304	0	36000	
6305	0	36140	
6306	0	36256	
6307	0	36320	
6308	0	36360	
6309	0	36428	
6310	0	36500	
6311	0	36556	
6312	0	36612	
6313	0	36680	
6314	0	36716	
6315	0	36744	
6316	0	36760	
6317	0	36796	
6318	0	36856	
6319	0	36904	
6320	0	36936	
6321	0	36908	
6322	0	36896	
6323	0	36924	
6324	0	37012	
6325	0	37072	
6326	0	37120	
6327	0	37168	
6328	0	37216	
6329	0	37230	
6330	0	37228	
6331	0	37244	
6332	0	37300	
6333	0	37344	
6334	0	37340	
6335	0	37344	
6336	0	37336	
6337	0	37312	
6338	0	37308	
6339	0	37308	
6340	0	37304	
6341	0	37280	
6342	0	37288	
6343	0	37248	
6344	0	37148	
6345	0	37104	
6346	0	37080	
6347	0	37068	
6348	0	37088	
6349	0	37140	
6350	0	37146	
6351	0	37080	
6352	0	36932	
6353	0	36812	
6354	0	36760	
6355	0	36770	
6356	0	36768	
6357	0	36636	
6358	0	36404	
6359	0	36180	
6360	0	36040	
6361	0	35964	
6362	0	35828	
6363	0	35732	
6364	0	35616	
6365	0	35512	
6366	0	35376	
6367	0	35232	
6368	0	35040	
6369	0	34776	
6370	0	34556	
6371	0	34352	
6372	0	34164	
6373	0	33900	
6374	0	33628	
6375	0	33412	
6376	0	33240	
6377	0	33068	
6378	0	32882	
6379	0	32672	
6380	0	32452	
6381	0	32272	
6382	0	32096	
6383	0	31908	
6384	0	31696	
6385	0	31478	
6386	0	31304	
6387	0	31184	
6388	0	31064	
6389	0	30992	
6390	0	30856	
6391	0	30688	
6392	0	30546	
6393	0	30412	
6394	0	30304	
6395	0	30216	
6396	0	30096	
6397	0	29964	
6398	0	29808	
6399	0	29656	
6400	0	29576	
6401	0	29512	
6402	0	29432	
6403	0	29338	
6404	0	29236	
6405	0	29168	
6406	0	29112	
6407	0	29102	
6408	0	29088	
6409	0	28996	
6410	0	28916	
6411	0	28888	
6412	0	28904	
6413	0	28956	
6414	0	28960	
6415	0	28892	
6416	0	28810	
6417	0	28764	
6418	0	28720	
6419	0	28712	
6420	0	28736	
6421	0	28724	
6422	0	28736	
6423	0	28760	
6424	0	28836	
6425	0	28938	
6426	0	28992	
6427	0	29034	
6428	0	29062	
6429	0	29056	
6430	0	28984	
6431	0	28960	
6432	0	28896	
6433	0	28856	
6434	0	28880	
6435	0	28940	
6436	0	29018	
6437	0	29068	
6438	0	29104	
6439	0	29124	
6440	0	29144	
6441	0	29164	
6442	0	29154	
6443	0	29172	
6444	0	29284	
6445	0	29424	
6446	0	29532	
6447	0	29536	
6448	0	29552	
6449	0	29628	
6450	0	29708	
6451	0	29800	
6452	0	29852	
6453	0	29930	
6454	0	29992	
6455	0	29988	
6456	0	29924	
6457	0	29840	
6458	0	29800	
6459	0	29844	
6460	0	29930	
6461	0	30004	
6462	0	30012	
6463	0	30050	
6464	0	30130	
6465	0	30208	
6466	0	30256	
6467	0	30284	
6468	0	30328	
6469	0	30372	
6470	0	30392	
6471	0	30380	
6472	0	30416	
6473	0	30544	
6474	0	30648	
6475	0	30668	
6476	0	30664	
6477	0	30680	
6478	0	30624	
6479	0	30560	
6480	0	30596	
6481	0	30676	
6482	0	30712	
6483	0	30776	
6484	0	30848	
6485	0	30908	
6486	0	31000	
6487	0	31080	
6488	0	31140	
6489	0	31196	
6490	0	31220	
6491	0	31252	
6492	0	31272	
6493	0	31344	
6494	0	31364	
6495	0	31328	
6496	0	31284	
6497	0	31256	
6498	0	31276	
6499	0	31256	
6500	0	31208	
6501	0	31192	
6502	0	31186	
6503	0	31248	
6504	0	31396	
6505	0	31524	
6506	0	31564	
6507	0	31580	
6508	0	31560	
6509	0	31564	
6510	0	31632	
6511	0	31724	
6512	0	31748	
6513	0	31728	
6514	0	31672	
6515	0	31644	
6516	0	31676	
6517	0	31668	
6518	0	31644	
6519	0	31654	
6520	0	31676	
6521	0	31648	
6522	0	31640	
6523	0	31646	
6524	0	31662	
6525	0	31680	
6526	0	31696	
6527	0	31752	
6528	0	31784	
6529	0	31736	
6530	0	31720	
6531	0	31780	
6532	0	31784	
6533	0	31808	
6534	0	31796	
6535	0	31748	
6536	0	31728	
6537	0	31768	
6538	0	31776	
6539	0	31796	
6540	0	31828	
6541	0	31832	
6542	0	31802	
6543	0	31868	
6544	0	31992	
6545	0	32052	
6546	0	32002	
6547	0	31952	
6548	0	32032	
6549	0	32096	
6550	0	32080	
6551	0	32024	
6552	0	32052	
6553	0	32116	
6554	0	32132	
6555	0	32108	
6556	0	32016	
6557	0	31872	
6558	0	31864	
6559	0	31928	
6560	0	31984	
6561	0	31892	
6562	0	31888	
6563	0	31992	
6564	0	32036	
6565	0	32060	
6566	0	31968	
6567	0	31892	
6568	0	31924	
6569	0	31952	
6570	0	32024	
6571	0	32032	
6572	0	32012	
6573	0	31992	
6574	0	32000	
6575	0	31944	
6576	0	31940	
6577	0	31968	
6578	0	31904	
6579	0	31944	
6580	0	31984	
6581	0	31948	
6582	0	31916	
6583	0	31888	
6584	0	31772	
6585	0	31788	
6586	0	31872	
6587	0	31892	
6588	0	31840	
6589	0	31808	
6590	0	31840	
6591	0	31884	
6592	0	31912	
6593	0	31928	
6594	0	31888	
6595	0	31908	
6596	0	32008	
6597	0	32048	
6598	0	31988	
6599	0	31952	
6600	0	31986	
6601	0	32084	
6602	0	32156	
6603	0	32200	
6604	0	32304	
6605	0	32316	
6606	0	32296	
6607	0	32252	
6608	0	32224	
6609	0	32228	
6610	0	32192	
6611	0	32180	
6612	0	32192	
6613	0	32168	
6614	0	32116	
6615	0	32076	
6616	0	32048	
6617	0	32080	
6618	0	32188	
6619	0	32252	
6620	0	32184	
6621	0	32128	
6622	0	32096	
6623	0	32044	
6624	0	32056	
6625	0	32030	
6626	0	31968	
6627	0	31954	
6628	0	32016	
6629	0	32076	
6630	0	32096	
6631	0	32156	
6632	0	32164	
6633	0	32120	
6634	0	32128	
6635	0	32184	
6636	0	32236	
6637	0	32324	
6638	0	32304	
6639	0	32280	
6640	0	32268	
6641	0	32236	
6642	0	32260	
6643	0	32332	
6644	0	32400	
6645	0	32468	
6646	0	32472	
6647	0	32444	
6648	0	32410	
6649	0	32392	
6650	0	32388	
6651	0	32312	
6652	0	32274	
6653	0	32316	
6654	0	32380	
6655	0	32432	
6656	0	32436	
6657	0	32432	
6658	0	32432	
6659	0	32392	
6660	0	32396	
6661	0	32372	
6662	0	32332	
6663	0	32316	
6664	0	32340	
6665	0	32364	
6666	0	32444	
6667	0	32504	
6668	0	32512	
6669	0	32524	
6670	0	32536	
6671	0	32472	
6672	0	32412	
6673	0	32520	
6674	0	32564	
6675	0	32508	
6676	0	32456	
6677	0	32416	
6678	0	32380	
6679	0	32428	
6680	0	32460	
6681	0	32410	
6682	0	32412	
6683	0	32490	
6684	0	32556	
6685	0	32600	
6686	0	32672	
6687	0	32776	
6688	0	32868	
6689	0	32828	
6690	0	32716	
6691	0	32608	
6692	0	32512	
6693	0	32384	
6694	0	32368	
6695	0	32312	
6696	0	32276	
6697	0	32384	
6698	0	32456	
6699	0	32512	
6700	0	32564	
6701	0	32608	
6702	0	32664	
6703	0	32752	
6704	0	32816	
6705	0	32816	
6706	0	32836	
6707	0	32836	
6708	0	32864	
6709	0	32920	
6710	0	32956	
6711	0	33068	
6712	0	33180	
6713	0	33244	
6714	0	33388	
6715	0	33500	
6716	0	33588	
6717	0	33600	
6718	0	33684	
6719	0	33798	
6720	0	33760	
6721	0	33746	
6722	0	33748	
6723	0	33760	
6724	0	33712	
6725	0	33612	
6726	0	33540	
6727	0	33496	
6728	0	33464	
6729	0	33512	
6730	0	33640	
6731	0	33832	
6732	0	33792	
6733	0	33704	
6734	0	33676	
6735	0	33694	
6736	0	33776	
6737	0	33928	
6738	0	34140	
6739	0	34420	
6740	0	34692	
6741	0	34900	
6742	0	34978	
6743	0	35048	
6744	0	35208	
6745	0	35372	
6746	0	35552	
6747	0	35688	
6748	0	35684	
6749	0	35612	
6750	0	35498	
6751	0	35412	
6752	0	35360	
6753	0	35260	
6754	0	35212	
6755	0	35192	
6756	0	35036	
6757	0	34880	
6758	0	34760	
6759	0	34626	
6760	0	34400	
6761	0	34224	
6762	0	34128	
6763	0	34000	
6764	0	33860	
6765	0	33744	
6766	0	33668	
6767	0	33632	
6768	0	33636	
6769	0	33596	
6770	0	33488	
6771	0	33408	
6772	0	33356	
6773	0	33296	
6774	0	33194	
6775	0	33012	
6776	0	32820	
6777	0	32712	
6778	0	32604	
6779	0	32528	
6780	0	32496	
6781	0	32428	
6782	0	32316	
6783	0	32256	
6784	0	32240	
6785	0	32164	
6786	0	31994	
6787	0	31760	
6788	0	31630	
6789	0	31584	
6790	0	31548	
6791	0	31560	
6792	0	31624	
6793	0	31640	
6794	0	31588	
6795	0	31504	
6796	0	31436	
6797	0	31392	
6798	0	31388	
6799	0	31416	
6800	0	31416	
6801	0	31396	
6802	0	31376	
6803	0	31436	
6804	0	31510	
6805	0	31540	
6806	0	31576	
6807	0	31624	
6808	0	31624	
6809	0	31648	
6810	0	31688	
6811	0	31756	
6812	0	31844	
6813	0	31896	
6814	0	31906	
6815	0	31890	
6816	0	31872	
6817	0	31840	
6818	0	31800	
6819	0	31800	
6820	0	31812	
6821	0	31824	
6822	0	31824	
6823	0	31808	
6824	0	31832	
6825	0	31896	
6826	0	31944	
6827	0	32054	
6828	0	32150	
6829	0	32128	
6830	0	32168	
6831	0	32184	
6832	0	32120	
6833	0	31912	
6834	0	31596	
6835	0	31168	
6836	0	30584	
6837	0	29956	
6838	0	29300	
6839	0	28764	
6840	0	28404	
6841	0	28288	
6842	0	28340	
6843	0	28642	
6844	0	29124	
6845	0	29902	
6846	0	30892	
6847	0	31968	
6848	0	33156	
6849	0	34500	
6850	0	35984	
6851	0	37732	
6852	0	39704	
6853	0	42008	
6854	0	44624	
6855	0	47652	
6856	0	51032	
6857	0	54320	
6858	0	57476	
6859	0	60612	
6860	0	62824	
6861	0	63964	
6862	0	64544	
6863	0	64808	
6864	0	64860	
6865	0	64848	
6866	0	64784	
6867	0	64684	
6868	0	64576	
6869	0	64452	
6870	0	64324	
6871	0	59712	
6872	0	55456	
6873	0	51904	
6874	0	48832	
6875	0	46288	
6876	0	44072	
6877	0	41928	
6878	0	39832	
6879	0	37848	
6880	0	35988	
6881	0	34288	
6882	0	32882	
6883	0	31652	
6884	0	30624	
6885	0	29882	
6886	0	29344	
6887	0	28992	
6888	0	28796	
6889	0	28640	
6890	0	28368	
6891	0	28084	
6892	0	27888	
6893	0	27780	
6894	0	27812	
6895	0	27920	
6896	0	28080	
6897	0	28296	
6898	0	28476	
6899	0	28684	
6900	0	28892	
6901	0	29032	
6902	0	29152	
6903	0	29180	
6904	0	29140	
6905	0	29136	
6906	0	29148	
6907	0	29192	
6908	0	29160	
6909	0	29140	
6910	0	29172	
6911	0	29128	
6912	0	29058	
6913	0	29020	
6914	0	29016	
6915	0	28968	
6916	0	28932	
6917	0	28952	
6918	0	28924	
6919	0	28972	
6920	0	29076	
6921	0	29156	
6922	0	29144	
6923	0	29120	
6924	0	29176	
6925	0	29232	
6926	0	29296	
6927	0	29356	
6928	0	29448	
6929	0	29504	
6930	0	29564	
6931	0	29548	
6932	0	29520	
6933	0	29600	
6934	0	29620	
6935	0	29634	
6936	0	29712	
6937	0	29732	
6938	0	29724	
6939	0	29668	
6940	0	29708	
6941	0	29824	
6942	0	29848	
6943	0	29824	
6944	0	29936	
6945	0	29970	
6946	0	30012	
6947	0	30108	
6948	0	30220	
6949	0	30296	
6950	0	30324	
6951	0	30434	
6952	0	30536	
6953	0	30572	
6954	0	30590	
6955	0	30608	
6956	0	30652	
6957	0	30700	
6958	0	30736	
6959	0	30796	
6960	0	30836	
6961	0	30852	
6962	0	30944	
6963	0	31056	
6964	0	31168	
6965	0	31204	
6966	0	31080	
6967	0	31032	
6968	0	31034	
6969	0	31024	
6970	0	31080	
6971	0	31188	
6972	0	31228	
6973	0	31292	
6974	0	31364	
6975	0	31308	
6976	0	31256	
6977	0	31312	
6978	0	31432	
6979	0	31534	
6980	0	31632	
6981	0	31728	
6982	0	31824	
6983	0	31904	
6984	0	31960	
6985	0	32056	
6986	0	32112	
6987	0	32184	
6988	0	32272	
6989	0	32300	
6990	0	32356	
6991	0	32472	
6992	0	32568	
6993	0	32610	
6994	0	32568	
6995	0	32576	
6996	0	32596	
6997	0	32584	
6998	0	32616	
6999	0	32660	
7000	0	32624	
7001	0	32578	
7002	0	32572	
7003	0	32544	
7004	0	32608	
7005	0	32704	
7006	0	32780	
7007	0	32848	
7008	0	32908	
7009	0	32968	
7010	0	33000	
7011	0	33084	
7012	0	33160	
7013	0	33224	
7014	0	33234	
7015	0	33292	
7016	0	33256	
7017	0	33248	
7018	0	33200	
7019	0	33300	
7020	0	33504	
7021	0	33632	
7022	0	33712	
7023	0	33752	
7024	0	33832	
7025	0	33912	
7026	0	34040	
7027	0	34176	
7028	0	34232	
7029	0	34240	
7030	0	34232	
7031	0	34280	
7032	0	34360	
7033	0	34400	
7034	0	34424	
7035	0	34504	
7036	0	34606	
7037	0	34688	
7038	0	34740	
7039	0	34748	
7040	0	34800	
7041	0	34862	
7042	0	34908	
7043	0	35056	
7044	0	35292	
7045	0	35424	
7046	0	35464	
7047	0	35520	
7048	0	35634	
7049	0	35756	
7050	0	35832	
7051	0	35888	
7052	0	35932	
7053	0	35980	
7054	0	36020	
7055	0	36064	
7056	0	36068	
7057	0	36100	
7058	0	36140	
7059	0	36228	
7060	0	36320	
7061	0	36392	
7062	0	36488	
7063	0	36496	
7064	0	36492	
7065	0	36568	
7066	0	36680	
7067	0	36672	
7068	0	36628	
7069	0	36584	
7070	0	36644	
7071	0	36796	
7072	0	36892	
7073	0	36904	
7074	0	36888	
7075	0	36852	
7076	0	36912	
7077	0	37000	
7078	0	37052	
7079	0	37072	
7080	0	37112	
7081	0	37104	
7082	0	37100	
7083	0	37144	
7084	0	37138	
7085	0	37072	
7086	0	36992	
7087	0	37000	
7088	0	36944	
7089	0	36922	
7090	0	37088	
7091	0	37192	
7092	0	37152	
7093	0	37100	
7094	0	37012	
7095	0	36964	
7096	0	36940	
7097	0	36928	
7098	0	36936	
7099	0	36836	
7100	0	36688	
7101	0	36576	
7102	0	36492	
7103	0	36476	
7104	0	36488	
7105	0	36512	
7106	0	36504	
7107	0	36448	
7108	0	36336	
7109	0	36208	
7110	0	36108	
7111	0	35984	
7112	0	35772	
7113	0	35568	
7114	0	35380	
7115	0	35072	
7116	0	34948	
7117	0	34860	
7118	0	34632	
7119	0	34392	
7120	0	34172	
7121	0	33940	
7122	0	33832	
7123	0	33720	
7124	0	33576	
7125	0	33404	
7126	0	33220	
7127	0	32938	
7128	0	32738	
7129	0	32568	
7130	0	32364	
7131	0	32104	
7132	0	31840	
7133	0	31720	
7134	0	31568	
7135	0	31376	
7136	0	31164	
7137	0	31036	
7138	0	30956	
7139	0	30812	
7140	0	30612	
7141	0	30440	
7142	0	30324	
7143	0	30232	
7144	0	30132	
7145	0	29988	
7146	0	29868	
7147	0	29780	
7148	0	29776	
7149	0	29704	
7150	0	29556	
7151	0	29468	
7152	0	29400	
7153	0	29376	
7154	0	29280	
7155	0	29148	
7156	0	28992	
7157	0	28868	
7158	0	28768	
7159	0	28724	
7160	0	28740	
7161	0	28664	
7162	0	28586	
7163	0	28588	
7164	0	28636	
7165	0	28648	
7166	0	28580	
7167	0	28512	
7168	0	28572	
7169	0	28592	
7170	0	28600	
7171	0	28648	
7172	0	28684	
7173	0	28600	
7174	0	28544	
7175	0	28548	
7176	0	28560	
7177	0	28532	
7178	0	28474	
7179	0	28516	
7180	0	28540	
7181	0	28512	
7182	0	28504	
7183	0	28492	
7184	0	28524	
7185	0	28556	
7186	0	28592	
7187	0	28706	
7188	0	28764	
7189	0	28776	
7190	0	28860	
7191	0	28940	
7192	0	28948	
7193	0	28920	
7194	0	28996	
7195	0	29028	
7196	0	29018	
7197	0	29080	
7198	0	29196	
7199	0	29272	
7200	0	29224	
7201	0	29268	
7202	0	29296	
7203	0	29232	
7204	0	29276	
7205	0	29360	
7206	0	29408	
7207	0	29444	
7208	0	29516	
7209	0	29580	
7210	0	29600	
7211	0	29588	
7212	0	29576	
7213	0	29584	
7214	0	29644	
7215	0	29676	
7216	0	29728	
7217	0	29716	
7218	0	29680	
7219	0	29656	
7220	0	29680	
7221	0	29752	
7222	0	29816	
7223	0	29884	
7224	0	29984	
7225	0	30088	
7226	0	30228	
7227	0	30316	
7228	0	30300	
7229	0	30280	
7230	0	30304	
7231	0	30356	
7232	0	30448	
7233	0	30544	
7234	0	30604	
7235	0	30692	
7236	0	30728	
7237	0	30712	
7238	0	30708	
7239	0	30728	
7240	0	30728	
7241	0	30698	
7242	0	30648	
7243	0	30656	
7244	0	30704	
7245	0	30796	
7246	0	30848	
7247	0	30868	
7248	0	30848	
7249	0	30860	
7250	0	30888	
7251	0	30944	
7252	0	30964	
7253	0	31004	
7254	0	31038	
7255	0	31076	
7256	0	31120	
7257	0	31172	
7258	0	31216	
7259	0	31274	
7260	0	31284	
7261	0	31264	
7262	0	31308	
7263	0	31344	
7264	0	31350	
7265	0	31392	
7266	0	31424	
7267	0	31496	
7268	0	31564	
7269	0	31540	
7270	0	31424	
7271	0	31316	
7272	0	31248	
7273	0	31312	
7274	0	31350	
7275	0	31326	
7276	0	31324	
7277	0	31372	
7278	0	31444	
7279	0	31540	
7280	0	31536	
7281	0	31520	
7282	0	31520	
7283	0	31524	
7284	0	31488	
7285	0	31498	
7286	0	31516	
7287	0	31552	
7288	0	31592	
7289	0	31648	
7290	0	31676	
7291	0	31600	
7292	0	31568	
7293	0	31540	
7294	0	31516	
7295	0	31464	
7296	0	31388	
7297	0	31308	
7298	0	31368	
7299	0	31404	
7300	0	31386	
7301	0	31426	
7302	0	31468	
7303	0	31480	
7304	0	31524	
7305	0	31544	
7306	0	31536	
7307	0	31532	
7308	0	31544	
7309	0	31568	
7310	0	31560	
7311	0	31528	
7312	0	31512	
7313	0	31560	
7314	0	31616	
7315	0	31684	
7316	0	31716	
7317	0	31688	
7318	0	31674	
7319	0	31692	
7320	0	31638	
7321	0	31514	
7322	0	31488	
7323	0	31480	
7324	0	31476	
7325	0	31498	
7326	0	31564	
7327	0	31604	
7328	0	31568	
7329	0	31560	
7330	0	31584	
7331	0	31644	
7332	0	31680	
7333	0	31680	
7334	0	31728	
7335	0	31744	
7336	0	31720	
7337	0	31664	
7338	0	31608	
7339	0	31589	
7340	0	31620	
7341	0	31624	
7342	0	31588	
7343	0	31552	
7344	0	31504	
7345	0	31560	
7346	0	31588	
7347	0	31536	
7348	0	31514	
7349	0	31588	
7350	0	31664	
7351	0	31700	
7352	0	31716	
7353	0	31680	
7354	0	31652	
7355	0	31616	
7356	0	31594	
7357	0	31552	
7358	0	31544	
7359	0	31572	
7360	0	31604	
7361	0	31624	
7362	0	31636	
7363	0	31596	
7364	0	31588	
7365	0	31588	
7366	0	31648	
7367	0	31744	
7368	0	31788	
7369	0	31840	
7370	0	31820	
7371	0	31808	
7372	0	31824	
7373	0	31856	
7374	0	31928	
7375	0	31948	
7376	0	31876	
7377	0	31760	
7378	0	31648	
7379	0	31560	
7380	0	31476	
7381	0	31416	
7382	0	31388	
7383	0	31392	
7384	0	31492	
7385	0	31624	
7386	0	31732	
7387	0	31780	
7388	0	31874	
7389	0	31924	
7390	0	31924	
7391	0	31944	
7392	0	31968	
7393	0	31962	
7394	0	31928	
7395	0	31860	
7396	0	31808	
7397	0	31772	
7398	0	31648	
7399	0	31568	
7400	0	31560	
7401	0	31580	
7402	0	31610	
7403	0	31624	
7404	0	31692	
7405	0	31772	
7406	0	31776	
7407	0	31764	
7408	0	31740	
7409	0	31792	
7410	0	31832	
7411	0	31912	
7412	0	32004	
7413	0	32016	
7414	0	31976	
7415	0	31964	
7416	0	31980	
7417	0	31972	
7418	0	31956	
7419	0	31954	
7420	0	32010	
7421	0	32022	
7422	0	31988	
7423	0	31912	
7424	0	31888	
7425	0	31904	
7426	0	31940	
7427	0	31986	
7428	0	32030	
7429	0	32100	
7430	0	32154	
7431	0	32184	
7432	0	32260	
7433	0	32240	
7434	0	32200	
7435	0	32112	
7436	0	32040	
7437	0	31988	
7438	0	31956	
7439	0	31996	
7440	0	32020	
7441	0	32032	
7442	0	32044	
7443	0	32068	
7444	0	32112	
7445	0	32144	
7446	0	32126	
7447	0	32116	
7448	0	32152	
7449	0	32248	
7450	0	32304	
7451	0	32376	
7452	0	32436	
7453	0	32448	
7454	0	32380	
7455	0	32284	
7456	0	32204	
7457	0	32200	
7458	0	32164	
7459	0	32030	
7460	0	31928	
7461	0	32004	
7462	0	32160	
7463	0	32288	
7464	0	32384	
7465	0	32492	
7466	0	32640	
7467	0	32856	
7468	0	32996	
7469	0	33120	
7470	0	33216	
7471	0	33288	
7472	0	33344	
7473	0	33462	
7474	0	33576	
7475	0	33576	
7476	0	33484	
7477	0	33336	
7478	0	33216	
7479	0	33148	
7480	0	32980	
7481	0	32888	
7482	0	32936	
7483	0	32988	
7484	0	32952	
7485	0	32904	
7486	0	32976	
7487	0	33096	
7488	0	33272	
7489	0	33468	
7490	0	33752	
7491	0	34056	
7492	0	34376	
7493	0	34626	
7494	0	34768	
7495	0	34840	
7496	0	34896	
7497	0	35008	
7498	0	35184	
7499	0	35260	
7500	0	35268	
7501	0	35136	
7502	0	35020	
7503	0	34928	
7504	0	34912	
7505	0	34872	
7506	0	34842	
7507	0	34812	
7508	0	34680	
7509	0	34512	
7510	0	34434	
7511	0	34312	
7512	0	34148	
7513	0	34032	
7514	0	33908	
7515	0	33804	
7516	0	33692	
7517	0	33564	
7518	0	33420	
7519	0	33300	
7520	0	33242	
7521	0	33174	
7522	0	33040	
7523	0	32940	
7524	0	32832	
7525	0	32778	
7526	0	32784	
7527	0	32800	
7528	0	32752	
7529	0	32680	
7530	0	32584	
7531	0	32472	
7532	0	32364	
7533	0	32232	
7534	0	32132	
7535	0	32092	
7536	0	31994	
7537	0	31864	
7538	0	31712	
7539	0	31556	
7540	0	31384	
7541	0	31224	
7542	0	31176	
7543	0	31228	
7544	0	31312	
7545	0	31388	
7546	0	31384	
7547	0	31360	
7548	0	31356	
7549	0	31344	
7550	0	31308	
7551	0	31280	
7552	0	31264	
7553	0	31340	
7554	0	31380	
7555	0	31336	
7556	0	31336	
7557	0	31372	
7558	0	31408	
7559	0	31448	
7560	0	31480	
7561	0	31468	
7562	0	31446	
7563	0	31452	
7564	0	31508	
7565	0	31592	
7566	0	31620	
7567	0	31656	
7568	0	31668	
7569	0	31664	
7570	0	31682	
7571	0	31704	
7572	0	31712	
7573	0	31752	
7574	0	31778	
7575	0	31832	
7576	0	31882	
7577	0	31960	
7578	0	31968	
7579	0	31944	
7580	0	31920	
7581	0	31908	
7582	0	31872	
7583	0	31808	
7584	0	31724	
7585	0	31604	
7586	0	31372	
7587	0	30996	
7588	0	30488	
7589	0	29816	
7590	0	29192	
7591	0	28736	
7592	0	28436	
7593	0	28288	
7594	0	28344	
7595	0	28616	
7596	0	29056	
7597	0	29780	
7598	0	30704	
7599	0	31756	
7600	0	32972	
7601	0	34400	
7602	0	35992	
7603	0	37652	
7604	0	39576	
7605	0	41924	
7606	0	44604	
7607	0	47628	
7608	0	50908	
7609	0	54136	
7610	0	57152	
7611	0	60200	
7612	0	62656	
7613	0	63968	
7614	0	64640	
7615	0	64924	
7616	0	65032	
7617	0	65016	
7618	0	64956	
7619	0	64868	
7620	0	64744	
7621	0	64644	
7622	0	63780	
7623	0	58696	
7624	0	54584	
7625	0	51136	
7626	0	48160	
7627	0	45684	
7628	0	43496	
7629	0	41400	
7630	0	39362	
7631	0	37424	
7632	0	35588	
7633	0	33884	
7634	0	32460	
7635	0	31236	
7636	0	30200	
7637	0	29500	
7638	0	28988	
7639	0	28648	
7640	0	28488	
7641	0	28308	
7642	0	28016	
7643	0	27808	
7644	0	27696	
7645	0	27708	
7646	0	27802	
7647	0	27952	
7648	0	28096	
7649	0	28272	
7650	0	28442	
7651	0	28672	
7652	0	28900	
7653	0	29104	
7654	0	29234	
7655	0	29282	
7656	0	29216	
7657	0	29138	
7658	0	29152	
7659	0	29148	
7660	0	29120	
7661	0	29120	
7662	0	29064	
7663	0	28968	
7664	0	28900	
7665	0	28836	
7666	0	28856	
7667	0	28880	
7668	0	28892	
7669	0	28896	
7670	0	28952	
7671	0	28988	
7672	0	29020	
7673	0	29088	
7674	0	29128	
7675	0	29152	
7676	0	29172	
7677	0	29214	
7678	0	29232	
7679	0	29270	
7680	0	29308	
7681	0	29292	
7682	0	29264	
7683	0	29280	
7684	0	29372	
7685	0	29466	
7686	0	29488	
7687	0	29528	
7688	0	29544	
7689	0	29552	
7690	0	29584	
7691	0	29560	
7692	0	29536	
7693	0	29552	
7694	0	29626	
7695	0	29708	
7696	0	29788	
7697	0	29856	
7698	0	29920	
7699	0	29960	
7700	0	30016	
7701	0	30080	
7702	0	30136	
7703	0	30180	
7704	0	30208	
7705	0	30192	
7706	0	30204	
7707	0	30288	
7708	0	30384	
7709	0	30492	
7710	0	30592	
7711	0	30680	
7712	0	30736	
7713	0	30784	
7714	0	30828	
7715	0	30792	
7716	0	30754	
7717	0	30680	
7718	0	30580	
7719	0	30580	
7720	0	30668	
7721	0	30736	
7722	0	30768	
7723	0	30792	
7724	0	30822	
7725	0	30876	
7726	0	30984	
7727	0	31100	
7728	0	31232	
7729	0	31360	
7730	0	31468	
7731	0	31580	
7732	0	31600	
7733	0	31632	
7734	0	31700	
7735	0	31740	
7736	0	31740	
7737	0	31712	
7738	0	31700	
7739	0	31684	
7740	0	31736	
7741	0	31812	
7742	0	31928	
7743	0	32096	
7744	0	32204	
7745	0	32266	
7746	0	32334	
7747	0	32368	
7748	0	32396	
7749	0	32456	
7750	0	32524	
7751	0	32584	
7752	0	32632	
7753	0	32696	
7754	0	32800	
7755	0	32876	
7756	0	32908	
7757	0	32864	
7758	0	32864	
7759	0	32872	
7760	0	32848	
7761	0	32832	
7762	0	32888	
7763	0	32944	
7764	0	33076	
7765	0	33178	
7766	0	33260	
7767	0	33384	
7768	0	33500	
7769	0	33620	
7770	0	33704	
7771	0	33748	
7772	0	33748	
7773	0	33772	
7774	0	33816	
7775	0	33900	
7776	0	33920	
7777	0	33948	
7778	0	34016	
7779	0	34040	
7780	0	34064	
7781	0	34076	
7782	0	34112	
7783	0	34204	
7784	0	34330	
7785	0	34440	
7786	0	34536	
7787	0	34676	
7788	0	34828	
7789	0	34940	
7790	0	35000	
7791	0	35072	
7792	0	35176	
7793	0	35244	
7794	0	35320	
7795	0	35428	
7796	0	35468	
7797	0	35532	
7798	0	35628	
7799	0	35672	
7800	0	35684	
7801	0	35756	
7802	0	35824	
7803	0	35824	
7804	0	35936	
7805	0	36068	
7806	0	36168	
7807	0	36264	
7808	0	36360	
7809	0	36476	
7810	0	36588	
7811	0	36680	
7812	0	36724	
7813	0	36764	
7814	0	36784	
7815	0	36788	
7816	0	36800	
7817	0	36856	
7818	0	36884	
7819	0	36930	
7820	0	36984	
7821	0	37028	
7822	0	37072	
7823	0	37064	
7824	0	37052	
7825	0	37096	
7826	0	37192	
7827	0	37240	
7828	0	37280	
7829	0	37288	
7830	0	37284	
7831	0	37280	
7832	0	37320	
7833	0	37372	
7834	0	37416	
7835	0	37444	
7836	0	37444	
7837	0	37440	
7838	0	37396	
7839	0	37380	
7840	0	37400	
7841	0	37404	
7842	0	37432	
7843	0	37432	
7844	0	37448	
7845	0	37416	
7846	0	37372	
7847	0	37340	
7848	0	37308	
7849	0	37288	
7850	0	37260	
7851	0	37236	
7852	0	37184	
7853	0	37136	
7854	0	37058	
7855	0	36928	
7856	0	36832	
7857	0	36724	
7858	0	36608	
7859	0	36504	
7860	0	36416	
7861	0	36304	
7862	0	36192	
7863	0	36056	
7864	0	35928	
7865	0	35784	
7866	0	35624	
7867	0	35472	
7868	0	35320	
7869	0	35144	
7870	0	34956	
7871	0	34772	
7872	0	34562	
7873	0	34348	
7874	0	34176	
7875	0	33986	
7876	0	33770	
7877	0	33538	
7878	0	33296	
7879	0	33064	
7880	0	32888	
7881	0	32714	
7882	0	32536	
7883	0	32384	
7884	0	32224	
7885	0	32056	
7886	0	31896	
7887	0	31764	
7888	0	31612	
7889	0	31456	
7890	0	31284	
7891	0	31136	
7892	0	30976	
7893	0	30828	
7894	0	30696	
7895	0	30532	
7896	0	30376	
7897	0	30218	
7898	0	30048	
7899	0	29968	
7900	0	29900	
7901	0	29792	
7902	0	29640	
7903	0	29568	
7904	0	29530	
7905	0	29494	
7906	0	29416	
7907	0	29328	
7908	0	29266	
7909	0	29248	
7910	0	29242	
7911	0	29184	
7912	0	29160	
7913	0	29140	
7914	0	29076	
7915	0	28928	
7916	0	28836	
7917	0	28780	
7918	0	28706	
7919	0	28612	
7920	0	28500	
7921	0	28408	
7922	0	28328	
7923	0	28296	
7924	0	28324	
7925	0	28360	
7926	0	28392	
7927	0	28376	
7928	0	28348	
7929	0	28314	
7930	0	28370	
7931	0	28460	
7932	0	28568	
7933	0	28652	
7934	0	28706	
7935	0	28704	
7936	0	28736	
7937	0	28752	
7938	0	28808	
7939	0	28924	
7940	0	29002	
7941	0	29032	
7942	0	28976	
7943	0	28940	
7944	0	28924	
7945	0	28924	
7946	0	28962	
7947	0	29008	
7948	0	29020	
7949	0	29028	
7950	0	29088	
7951	0	29176	
7952	0	29184	
7953	0	29176	
7954	0	29220	
7955	0	29280	
7956	0	29340	
7957	0	29396	
7958	0	29392	
7959	0	29336	
7960	0	29276	
7961	0	29272	
7962	0	29282	
7963	0	29336	
7964	0	29500	
7965	0	29640	
7966	0	29728	
7967	0	29772	
7968	0	29828	
7969	0	29888	
7970	0	29940	
7971	0	30016	
7972	0	30092	
7973	0	30180	
7974	0	30196	
7975	0	30160	
7976	0	30144	
7977	0	30160	
7978	0	30176	
7979	0	30184	
7980	0	30232	
7981	0	30256	
7982	0	30264	
7983	0	30260	
7984	0	30296	
7985	0	30352	
7986	0	30372	
7987	0	30404	
7988	0	30426	
7989	0	30472	
7990	0	30548	
7991	0	30624	
7992	0	30692	
7993	0	30736	
7994	0	30752	
7995	0	30748	
7996	0	30776	
7997	0	30772	
7998	0	30740	
7999	0	30748	
8000	0	30808	
8001	0	30864	
8002	0	30908	
8003	0	30940	
8004	0	30972	
8005	0	31000	
8006	0	31004	
8007	0	31072	
8008	0	31212	
8009	0	31218	
8010	0	31184	
8011	0	31180	
8012	0	31172	
8013	0	31136	
8014	0	31168	
8015	0	31214	
8016	0	31224	
8017	0	31200	
8018	0	31176	
8019	0	31200	
8020	0	31192	
8021	0	31180	
8022	0	31176	
8023	0	31176	
8024	0	31204	
8025	0	31264	
8026	0	31348	
8027	0	31452	
8028	0	31516	
8029	0	31536	
8030	0	31548	
8031	0	31592	
8032	0	31572	
8033	0	31574	
8034	0	31564	
8035	0	31524	
8036	0	31472	
8037	0	31420	
8038	0	31410	
8039	0	31368	
8040	0	31348	
8041	0	31340	
8042	0	31360	
8043	0	31416	
8044	0	31440	
8045	0	31468	
8046	0	31484	
8047	0	31532	
8048	0	31552	
8049	0	31552	
8050	0	31580	
8051	0	31608	
8052	0	31644	
8053	0	31664	
8054	0	31640	
8055	0	31592	
8056	0	31492	
8057	0	31360	
8058	0	31280	
8059	0	31232	
8060	0	31248	
8061	0	31280	
8062	0	31360	
8063	0	31428	
8064	0	31512	
8065	0	31532	
8066	0	31616	
8067	0	31724	
8068	0	31792	
8069	0	31796	
8070	0	31776	
8071	0	31740	
8072	0	31756	
8073	0	31792	
8074	0	31828	
8075	0	31828	
8076	0	31756	
8077	0	31644	
8078	0	31572	
8079	0	31556	
8080	0	31592	
8081	0	31656	
8082	0	31668	
8083	0	31684	
8084	0	31696	
8085	0	31684	
8086	0	31640	
8087	0	31640	
8088	0	31716	
8089	0	31784	
8090	0	31786	
8091	0	31728	
8092	0	31588	
8093	0	31500	
8094	0	31540	
8095	0	31516	
8096	0	31512	
8097	0	31504	
8098	0	31524	
8099	0	31628	
8100	0	31688	
8101	0	31680	
8102	0	31648	
8103	0	31664	
8104	0	31680	
8105	0	31768	
8106	0	31920	
8107	0	31960	
8108	0	31932	
8109	0	31900	
8110	0	31888	
8111	0	31852	
8112	0	31832	
8113	0	31836	
8114	0	31828	
8115	0	31860	
8116	0	31938	
8117	0	31952	
8118	0	31920	
8119	0	31976	
8120	0	32002	
8121	0	32002	
8122	0	32008	
8123	0	32032	
8124	0	32040	
8125	0	32032	
8126	0	32018	
8127	0	31990	
8128	0	31960	
8129	0	31912	
8130	0	31892	
8131	0	31880	
8132	0	31864	
8133	0	31908	
8134	0	31924	
8135	0	31916	
8136	0	31904	
8137	0	31944	
8138	0	31954	
8139	0	32028	
8140	0	32076	
8141	0	32080	
8142	0	32072	
8143	0	32078	
8144	0	32108	
8145	0	32148	
8146	0	32264	
8147	0	32352	
8148	0	32450	
8149	0	32512	
8150	0	32552	
8151	0	32500	
8152	0	32432	
8153	0	32322	
8154	0	32192	
8155	0	32164	
8156	0	32188	
8157	0	32192	
8158	0	32192	
8159	0	32224	
8160	0	32324	
8161	0	32396	
8162	0	32496	
8163	0	32580	
8164	0	32704	
8165	0	32844	
8166	0	32928	
8167	0	33020	
8168	0	33136	
8169	0	33196	
8170	0	33220	
8171	0	33304	
8172	0	33364	
8173	0	33404	
8174	0	33448	
8175	0	33460	
8176	0	33456	
8177	0	33452	
8178	0	33412	
8179	0	33332	
8180	0	33284	
8181	0	33280	
8182	0	33280	
8183	0	33200	
8184	0	33032	
8185	0	32938	
8186	0	32944	
8187	0	32992	
8188	0	33052	
8189	0	33148	
8190	0	33280	
8191	0	33460	
8192	0	33740	
8193	0	34072	
8194	0	34396	
8195	0	34644	
8196	0	34880	
8197	0	35052	
8198	0	35154	
8199	0	35200	
8200	0	35312	
8201	0	35460	
8202	0	35512	
8203	0	35504	
8204	0	35544	
8205	0	35552	
8206	0	35488	
8207	0	35360	
8208	0	35266	
8209	0	35208	
8210	0	35132	
8211	0	35020	
8212	0	34920	
8213	0	34764	
8214	0	34612	
8215	0	34418	
8216	0	34256	
8217	0	34076	
8218	0	33872	
8219	0	33684	
8220	0	33528	
8221	0	33400	
8222	0	33368	
8223	0	33354	
8224	0	33332	
8225	0	33288	
8226	0	33252	
8227	0	33192	
8228	0	33168	
8229	0	33204	
8230	0	33232	
8231	0	33194	
8232	0	33100	
8233	0	32932	
8234	0	32740	
8235	0	32592	
8236	0	32522	
8237	0	32452	
8238	0	32348	
8239	0	32184	
8240	0	32000	
8241	0	31808	
8242	0	31648	
8243	0	31556	
8244	0	31492	
8245	0	31472	
8246	0	31480	
8247	0	31468	
8248	0	31464	
8249	0	31472	
8250	0	31520	
8251	0	31544	
8252	0	31536	
8253	0	31508	
8254	0	31464	
8255	0	31456	
8256	0	31484	
8257	0	31464	
8258	0	31452	
8259	0	31464	
8260	0	31468	
8261	0	31520	
8262	0	31600	
8263	0	31624	
8264	0	31564	
8265	0	31536	
8266	0	31620	
8267	0	31744	
8268	0	31796	
8269	0	31856	
8270	0	31888	
8271	0	31904	
8272	0	31918	
8273	0	31952	
8274	0	31996	
8275	0	32000	
8276	0	31992	
8277	0	31948	
8278	0	31864	
8279	0	31864	
8280	0	31890	
8281	0	31904	
8282	0	31916	
8283	0	31988	
8284	0	32032	
8285	0	32032	
8286	0	32024	
8287	0	31952	
8288	0	31800	
8289	0	31620	
8290	0	31346	
8291	0	30948	
8292	0	30386	
8293	0	29764	
8294	0	29212	
8295	0	28848	
8296	0	28628	
8297	0	28556	
8298	0	28692	
8299	0	29056	
8300	0	29664	
8301	0	30560	
8302	0	31624	
8303	0	32816	
8304	0	34137	
8305	0	35480	
8306	0	37032	
8307	0	38824	
8308	0	40952	
8309	0	43332	
8310	0	46016	
8311	0	48924	
8312	0	52000	
8313	0	55044	
8314	0	58000	
8315	0	60936	
8316	0	62968	
8317	0	64016	
8318	0	64528	
8319	0	64744	
8320	0	64792	
8321	0	64768	
8322	0	64688	
8323	0	64600	
8324	0	64496	
8325	0	59888	
8326	0	54808	
8327	0	50216	
8328	0	46292	
8329	0	43100	
8330	0	40548	
8331	0	38560	
8332	0	36852	
8333	0	35296	
8334	0	33872	
8335	0	32548	
8336	0	31136	
8337	0	29724	
8338	0	28384	
8339	0	27300	
8340	0	26564	
8341	0	26100	
8342	0	25830	
8343	0	25744	
8344	0	25736	
8345	0	25740	
8346	0	25764	
8347	0	25842	
8348	0	26056	
8349	0	26376	
8350	0	26714	
8351	0	27040	
8352	0	27352	
8353	0	27676	
8354	0	27964	
8355	0	28252	
8356	0	28576	
8357	0	28864	
8358	0	29068	
8359	0	29240	
8360	0	29408	
8361	0	29552	
8362	0	29664	
8363	0	29760	
8364	0	29792	
8365	0	29792	
8366	0	29792	
8367	0	29792	
8368	0	29772	
8369	0	29800	
8370	0	29856	
8371	0	29860	
8372	0	29848	
8373	0	29896	
8374	0	29888	
8375	0	29888	
8376	0	29920	
8377	0	29888	
8378	0	29876	
8379	0	29824	
8380	0	29736	
8381	0	29676	
8382	0	29748	
8383	0	29856	
8384	0	29952	
8385	0	30052	
8386	0	30152	
8387	0	30240	
8388	0	30240	
8389	0	30204	
8390	0	30272	
8391	0	30400	
8392	0	30528	
8393	0	30632	
8394	0	30724	
8395	0	30808	
8396	0	30820	
8397	0	30836	
8398	0	30864	
8399	0	30940	
8400	0	30952	
8401	0	30964	
8402	0	31032	
8403	0	31140	
8404	0	31336	
8405	0	31504	
8406	0	31572	
8407	0	31584	
8408	0	31580	
8409	0	31482	
8410	0	31404	
8411	0	31348	
8412	0	31316	
8413	0	31364	
8414	0	31400	
8415	0	31404	
8416	0	31472	
8417	0	31600	
8418	0	31712	
8419	0	31764	
8420	0	31772	
8421	0	31760	
8422	0	31700	
8423	0	31676	
8424	0	31688	
8425	0	31764	
8426	0	31888	
8427	0	31992	
8428	0	32060	
8429	0	32092	
8430	0	32124	
8431	0	32180	
8432	0	32292	
8433	0	32424	
8434	0	32533	
8435	0	32592	
8436	0	32584	
8437	0	32560	
8438	0	32548	
8439	0	32580	
8440	0	32592	
8441	0	32616	
8442	0	32684	
8443	0	32726	
8444	0	32772	
8445	0	32816	
8446	0	32828	
8447	0	32840	
8448	0	32916	
8449	0	32988	
8450	0	33076	
8451	0	33112	
8452	0	33160	
8453	0	33172	
8454	0	33192	
8455	0	33220	
8456	0	33216	
8457	0	33224	
8458	0	33244	
8459	0	33264	
8460	0	33336	
8461	0	33440	
8462	0	33556	
8463	0	33612	
8464	0	33696	
8465	0	33816	
8466	0	33892	
8467	0	33976	
8468	0	34048	
8469	0	34064	
8470	0	34068	
8471	0	34162	
8472	0	34232	
8473	0	34204	
8474	0	34188	
8475	0	34196	
8476	0	34284	
8477	0	34392	
8478	0	34436	
8479	0	34464	
8480	0	34556	
8481	0	34672	
8482	0	34784	
8483	0	34856	
8484	0	34912	
8485	0	34976	
8486	0	35064	
8487	0	35176	
8488	0	35313	
8489	0	35402	
8490	0	35504	
8491	0	35578	
8492	0	35592	
8493	0	35592	
8494	0	35612	
8495	0	35672	
8496	0	35804	
8497	0	35936	
8498	0	36008	
8499	0	36048	
8500	0	36076	
8501	0	36036	
8502	0	36042	
8503	0	36016	
8504	0	36052	
8505	0	36176	
8506	0	36316	
8507	0	36456	
8508	0	36548	
8509	0	36590	
8510	0	36640	
8511	0	36696	
8512	0	36832	
8513	0	36936	
8514	0	37052	
8515	0	37178	
8516	0	37256	
8517	0	37332	
8518	0	37332	
8519	0	37324	
8520	0	37360	
8521	0	37412	
8522	0	37500	
8523	0	37508	
8524	0	37500	
8525	0	37524	
8526	0	37544	
8527	0	37596	
8528	0	37600	
8529	0	37620	
8530	0	37696	
8531	0	37792	
8532	0	37856	
8533	0	37902	
8534	0	37928	
8535	0	37860	
8536	0	37776	
8537	0	37692	
8538	0	37620	
8539	0	37584	
8540	0	37536	
8541	0	37480	
8542	0	37416	
8543	0	37428	
8544	0	37462	
8545	0	37464	
8546	0	37452	
8547	0	37436	
8548	0	37368	
8549	0	37320	
8550	0	37308	
8551	0	37248	
8552	0	37184	
8553	0	37144	
8554	0	37128	
8555	0	37100	
8556	0	37000	
8557	0	36896	
8558	0	36848	
8559	0	36804	
8560	0	36748	
8561	0	36676	
8562	0	36604	
8563	0	36512	
8564	0	36410	
8565	0	36280	
8566	0	36152	
8567	0	36044	
8568	0	35912	
8569	0	35728	
8570	0	35544	
8571	0	35348	
8572	0	35136	
8573	0	34956	
8574	0	34778	
8575	0	34522	
8576	0	34288	
8577	0	34108	
8578	0	33936	
8579	0	33744	
8580	0	33552	
8581	0	33344	
8582	0	33140	
8583	0	32948	
8584	0	32772	
8585	0	32584	
8586	0	32404	
8587	0	32192	
8588	0	32096	
8589	0	31944	
8590	0	31768	
8591	0	31624	
