# OpenSignals Text File Format. Version 1
# {"00:07:80:4B:15:F7": {"position": 0, "device": "biosignalsplux", "device name": "00:07:80:4B:15:F7", "device connection": "BTH00:07:80:4B:15:F7", "sampling rate": 1000, "resolution": [16], "firmware version": 775, "comments": "", "keywords": "", "mode": 0, "sync interval": 2, "date": "2023-3-14", "time": "14:15:6.231", "channels": [1], "sensor": ["ECG"], "label": ["CH1"], "column": ["nSeq", "DI", "CH1"], "special": [{"SpO2": [80, 40, 5, 4, 3, 3]}, {"SpO2": [80, 40, 5, 4, 3, 3]}, {"SpO2": [80, 40, 5, 4, 3, 3]}, {"SpO2": [80, 40, 5, 4, 3, 3]}, {"SpO2": [80, 40, 5, 4, 3, 3]}, {"SpO2": [80, 40, 5, 4, 3, 3]}, {"SpO2": [80, 40, 5, 4, 3, 3]}, {"SpO2": [80, 40, 5, 4, 3, 3]}], "digital IO": [0, 1], "sleeve color": ["green"], "convertedValues": 0}}
# EndOfHeader
0	0	32196	
1	0	32190	
2	0	32240	
3	0	32296	
4	0	32312	
5	0	32348	
6	0	32352	
7	0	32356	
8	0	32360	
9	0	32364	
10	0	32364	
11	0	32416	
12	0	32476	
13	0	32552	
14	0	32576	
15	0	32624	
16	0	32632	
17	0	32640	
18	0	32712	
19	0	32788	
20	0	32860	
21	0	32892	
22	0	32856	
23	0	32828	
24	0	32816	
25	0	32788	
26	0	32776	
27	0	32776	
28	0	32772	
29	0	32784	
30	0	32800	
31	0	32844	
32	0	32868	
33	0	32900	
34	0	32936	
35	0	32956	
36	0	32916	
37	0	32876	
38	0	32884	
39	0	32920	
40	0	32932	
41	0	32960	
42	0	32962	
43	0	32980	
44	0	33008	
45	0	33052	
46	0	33068	
47	0	33068	
48	0	33076	
49	0	33064	
50	0	33050	
51	0	33048	
52	0	33088	
53	0	33140	
54	0	33188	
55	0	33212	
56	0	33220	
57	0	33198	
58	0	33184	
59	0	33200	
60	0	33184	
61	0	33184	
62	0	33196	
63	0	33168	
64	0	33148	
65	0	33168	
66	0	33196	
67	0	33216	
68	0	33228	
69	0	33240	
70	0	33236	
71	0	33264	
72	0	33340	
73	0	33384	
74	0	33428	
75	0	33476	
76	0	33480	
77	0	33440	
78	0	33400	
79	0	33376	
80	0	33384	
81	0	33440	
82	0	33464	
83	0	33440	
84	0	33424	
85	0	33376	
86	0	33344	
87	0	33332	
88	0	33346	
89	0	33328	
90	0	33372	
91	0	33432	
92	0	33480	
93	0	33532	
94	0	33600	
95	0	33612	
96	0	33604	
97	0	33600	
98	0	33584	
99	0	33600	
100	0	33616	
101	0	33616	
102	0	33596	
103	0	33576	
104	0	33556	
105	0	33536	
106	0	33524	
107	0	33516	
108	0	33540	
109	0	33556	
110	0	33560	
111	0	33616	
112	0	33696	
113	0	33744	
114	0	33816	
115	0	33866	
116	0	33884	
117	0	33888	
118	0	33900	
119	0	33932	
120	0	33960	
121	0	33952	
122	0	33912	
123	0	33880	
124	0	33844	
125	0	33772	
126	0	33744	
127	0	33752	
128	0	33760	
129	0	33752	
130	0	33732	
131	0	33736	
132	0	33740	
133	0	33740	
134	0	33740	
135	0	33744	
136	0	33752	
137	0	33740	
138	0	33720	
139	0	33704	
140	0	33697	
141	0	33700	
142	0	33672	
143	0	33664	
144	0	33648	
145	0	33664	
146	0	33672	
147	0	33704	
148	0	33768	
149	0	33796	
150	0	33780	
151	0	33772	
152	0	33788	
153	0	33784	
154	0	33808	
155	0	33816	
156	0	33848	
157	0	33852	
158	0	33848	
159	0	33832	
160	0	33818	
161	0	33800	
162	0	33764	
163	0	33744	
164	0	33724	
165	0	33668	
166	0	33604	
167	0	33584	
168	0	33536	
169	0	33496	
170	0	33440	
171	0	33420	
172	0	33396	
173	0	33376	
174	0	33356	
175	0	33324	
176	0	33264	
177	0	33224	
178	0	33188	
179	0	33124	
180	0	33012	
181	0	32884	
182	0	32746	
183	0	32628	
184	0	32524	
185	0	32416	
186	0	32328	
187	0	32288	
188	0	32224	
189	0	32160	
190	0	32092	
191	0	32012	
192	0	31936	
193	0	31904	
194	0	31876	
195	0	31816	
196	0	31756	
197	0	31736	
198	0	31636	
199	0	31544	
200	0	31456	
201	0	31388	
202	0	31300	
203	0	31232	
204	0	31184	
205	0	31128	
206	0	31060	
207	0	31008	
208	0	30968	
209	0	30940	
210	0	30876	
211	0	30836	
212	0	30792	
213	0	30748	
214	0	30656	
215	0	30594	
216	0	30560	
217	0	30544	
218	0	30516	
219	0	30484	
220	0	30448	
221	0	30404	
222	0	30400	
223	0	30408	
224	0	30364	
225	0	30372	
226	0	30352	
227	0	30344	
228	0	30340	
229	0	30364	
230	0	30384	
231	0	30408	
232	0	30432	
233	0	30436	
234	0	30432	
235	0	30440	
236	0	30448	
237	0	30440	
238	0	30424	
239	0	30424	
240	0	30428	
241	0	30432	
242	0	30408	
243	0	30376	
244	0	30340	
245	0	30344	
246	0	30356	
247	0	30384	
248	0	30360	
249	0	30336	
250	0	30348	
251	0	30392	
252	0	30480	
253	0	30568	
254	0	30632	
255	0	30692	
256	0	30688	
257	0	30688	
258	0	30712	
259	0	30688	
260	0	30688	
261	0	30720	
262	0	30760	
263	0	30796	
264	0	30816	
265	0	30818	
266	0	30832	
267	0	30832	
268	0	30868	
269	0	30900	
270	0	30956	
271	0	31004	
272	0	31040	
273	0	31076	
274	0	31092	
275	0	31148	
276	0	31176	
277	0	31192	
278	0	31232	
279	0	31268	
280	0	31296	
281	0	31310	
282	0	31332	
283	0	31378	
284	0	31416	
285	0	31436	
286	0	31460	
287	0	31480	
288	0	31496	
289	0	31544	
290	0	31608	
291	0	31640	
292	0	31660	
293	0	31696	
294	0	31716	
295	0	31720	
296	0	31752	
297	0	31796	
298	0	31834	
299	0	31876	
300	0	31856	
301	0	31856	
302	0	31840	
303	0	31776	
304	0	31706	
305	0	31642	
306	0	31584	
307	0	31576	
308	0	31604	
309	0	31628	
310	0	31632	
311	0	31652	
312	0	31684	
313	0	31712	
314	0	31746	
315	0	31812	
316	0	31852	
317	0	31880	
318	0	31884	
319	0	31908	
320	0	31936	
321	0	31960	
322	0	31952	
323	0	31928	
324	0	31916	
325	0	31888	
326	0	31884	
327	0	31904	
328	0	31900	
329	0	31904	
330	0	31904	
331	0	31912	
332	0	31940	
333	0	31968	
334	0	31960	
335	0	31928	
336	0	31936	
337	0	31920	
338	0	31888	
339	0	31856	
340	0	31816	
341	0	31764	
342	0	31732	
343	0	31672	
344	0	31624	
345	0	31592	
346	0	31596	
347	0	31620	
348	0	31628	
349	0	31660	
350	0	31672	
351	0	31672	
352	0	31704	
353	0	31732	
354	0	31752	
355	0	31792	
356	0	31842	
357	0	31868	
358	0	31856	
359	0	31808	
360	0	31756	
361	0	31752	
362	0	31760	
363	0	31760	
364	0	31744	
365	0	31724	
366	0	31706	
367	0	31714	
368	0	31744	
369	0	31736	
370	0	31728	
371	0	31744	
372	0	31740	
373	0	31744	
374	0	31746	
375	0	31756	
376	0	31726	
377	0	31692	
378	0	31652	
379	0	31650	
380	0	31646	
381	0	31608	
382	0	31572	
383	0	31560	
384	0	31536	
385	0	31504	
386	0	31500	
387	0	31520	
388	0	31548	
389	0	31584	
390	0	31632	
391	0	31652	
392	0	31688	
393	0	31712	
394	0	31728	
395	0	31728	
396	0	31744	
397	0	31736	
398	0	31704	
399	0	31680	
400	0	31676	
401	0	31644	
402	0	31600	
403	0	31584	
404	0	31576	
405	0	31608	
406	0	31652	
407	0	31668	
408	0	31660	
409	0	31648	
410	0	31656	
411	0	31674	
412	0	31688	
413	0	31712	
414	0	31752	
415	0	31786	
416	0	31792	
417	0	31768	
418	0	31768	
419	0	31760	
420	0	31728	
421	0	31700	
422	0	31656	
423	0	31664	
424	0	31696	
425	0	31728	
426	0	31744	
427	0	31741	
428	0	31736	
429	0	31720	
430	0	31720	
431	0	31732	
432	0	31768	
433	0	31820	
434	0	31852	
435	0	31840	
436	0	31856	
437	0	31856	
438	0	31840	
439	0	31840	
440	0	31848	
441	0	31868	
442	0	31872	
443	0	31860	
444	0	31832	
445	0	31832	
446	0	31864	
447	0	31912	
448	0	31940	
449	0	31932	
450	0	31908	
451	0	31936	
452	0	31980	
453	0	32040	
454	0	32084	
455	0	32112	
456	0	32112	
457	0	32096	
458	0	32132	
459	0	32144	
460	0	32120	
461	0	32100	
462	0	32100	
463	0	32080	
464	0	32060	
465	0	32040	
466	0	32040	
467	0	32040	
468	0	32060	
469	0	32072	
470	0	32098	
471	0	32136	
472	0	32160	
473	0	32168	
474	0	32196	
475	0	32208	
476	0	32252	
477	0	32288	
478	0	32320	
479	0	32380	
480	0	32416	
481	0	32440	
482	0	32464	
483	0	32468	
484	0	32496	
485	0	32516	
486	0	32544	
487	0	32568	
488	0	32592	
489	0	32620	
490	0	32624	
491	0	32632	
492	0	32644	
493	0	32680	
494	0	32704	
495	0	32696	
496	0	32716	
497	0	32736	
498	0	32748	
499	0	32768	
500	0	32768	
501	0	32828	
502	0	32912	
503	0	33000	
504	0	33096	
505	0	33196	
506	0	33304	
507	0	33412	
508	0	33504	
509	0	33600	
510	0	33652	
511	0	33728	
512	0	33810	
513	0	33898	
514	0	33980	
515	0	34000	
516	0	33996	
517	0	33992	
518	0	34024	
519	0	34056	
520	0	34042	
521	0	34032	
522	0	34000	
523	0	33880	
524	0	33776	
525	0	33644	
526	0	33536	
527	0	33444	
528	0	33360	
529	0	33312	
530	0	33292	
531	0	33248	
532	0	33192	
533	0	33144	
534	0	33120	
535	0	33120	
536	0	33090	
537	0	33048	
538	0	33000	
539	0	32948	
540	0	32908	
541	0	32856	
542	0	32816	
543	0	32740	
544	0	32668	
545	0	32616	
546	0	32572	
547	0	32548	
548	0	32600	
549	0	32654	
550	0	32680	
551	0	32672	
552	0	32668	
553	0	32652	
554	0	32640	
555	0	32632	
556	0	32628	
557	0	32612	
558	0	32608	
559	0	32572	
560	0	32534	
561	0	32460	
562	0	32364	
563	0	32288	
564	0	32208	
565	0	32160	
566	0	32128	
567	0	32096	
568	0	32068	
569	0	32042	
570	0	32028	
571	0	32072	
572	0	32130	
573	0	32162	
574	0	32188	
575	0	32200	
576	0	32216	
577	0	32156	
578	0	32124	
579	0	32136	
580	0	32168	
581	0	32172	
582	0	32140	
583	0	32132	
584	0	32148	
585	0	32172	
586	0	32168	
587	0	32184	
588	0	32202	
589	0	32180	
590	0	32168	
591	0	32196	
592	0	32236	
593	0	32304	
594	0	32340	
595	0	32360	
596	0	32336	
597	0	32324	
598	0	32280	
599	0	32220	
600	0	32200	
601	0	32212	
602	0	32220	
603	0	32192	
604	0	32154	
605	0	32132	
606	0	32128	
607	0	32132	
608	0	32152	
609	0	32140	
610	0	32152	
611	0	32156	
612	0	32176	
613	0	32178	
614	0	32204	
615	0	32260	
616	0	32304	
617	0	32324	
618	0	32320	
619	0	32306	
620	0	32284	
621	0	32304	
622	0	32360	
623	0	32364	
624	0	32324	
625	0	32288	
626	0	32276	
627	0	32252	
628	0	32248	
629	0	32224	
630	0	32218	
631	0	32250	
632	0	32306	
633	0	32372	
634	0	32460	
635	0	32560	
636	0	32608	
637	0	32648	
638	0	32700	
639	0	32708	
640	0	32656	
641	0	32568	
642	0	32440	
643	0	32320	
644	0	32240	
645	0	32176	
646	0	32266	
647	0	32512	
648	0	32802	
649	0	33096	
650	0	33432	
651	0	33736	
652	0	34032	
653	0	34288	
654	0	34476	
655	0	34688	
656	0	35008	
657	0	35484	
658	0	36072	
659	0	36756	
660	0	37668	
661	0	38768	
662	0	40028	
663	0	41392	
664	0	42756	
665	0	44144	
666	0	45592	
667	0	47192	
668	0	48800	
669	0	50228	
670	0	51416	
671	0	52412	
672	0	53276	
673	0	54176	
674	0	55072	
675	0	55680	
676	0	55776	
677	0	55056	
678	0	53304	
679	0	50556	
680	0	47148	
681	0	43484	
682	0	39848	
683	0	36528	
684	0	33796	
685	0	31836	
686	0	30464	
687	0	29548	
688	0	29004	
689	0	28756	
690	0	28682	
691	0	28712	
692	0	28864	
693	0	29184	
694	0	29520	
695	0	29812	
696	0	30068	
697	0	30306	
698	0	30496	
699	0	30624	
700	0	30768	
701	0	30932	
702	0	31086	
703	0	31200	
704	0	31240	
705	0	31252	
706	0	31288	
707	0	31316	
708	0	31322	
709	0	31280	
710	0	31224	
711	0	31200	
712	0	31196	
713	0	31172	
714	0	31112	
715	0	31082	
716	0	31080	
717	0	31072	
718	0	31064	
719	0	31052	
720	0	31044	
721	0	31036	
722	0	31028	
723	0	31032	
724	0	31036	
725	0	31040	
726	0	31036	
727	0	31052	
728	0	31052	
729	0	31068	
730	0	31116	
731	0	31144	
732	0	31192	
733	0	31264	
734	0	31324	
735	0	31388	
736	0	31424	
737	0	31456	
738	0	31488	
739	0	31520	
740	0	31520	
741	0	31544	
742	0	31560	
743	0	31584	
744	0	31596	
745	0	31612	
746	0	31640	
747	0	31646	
748	0	31660	
749	0	31680	
750	0	31684	
751	0	31704	
752	0	31740	
753	0	31772	
754	0	31844	
755	0	31888	
756	0	31956	
757	0	31992	
758	0	32040	
759	0	32062	
760	0	32064	
761	0	32064	
762	0	32080	
763	0	32096	
764	0	32120	
765	0	32128	
766	0	32096	
767	0	32096	
768	0	32084	
769	0	32100	
770	0	32140	
771	0	32168	
772	0	32208	
773	0	32268	
774	0	32344	
775	0	32372	
776	0	32396	
777	0	32440	
778	0	32500	
779	0	32568	
780	0	32592	
781	0	32600	
782	0	32572	
783	0	32560	
784	0	32560	
785	0	32552	
786	0	32540	
787	0	32560	
788	0	32556	
789	0	32580	
790	0	32632	
791	0	32644	
792	0	32668	
793	0	32700	
794	0	32736	
795	0	32752	
796	0	32764	
797	0	32802	
798	0	32832	
799	0	32864	
800	0	32896	
801	0	32900	
802	0	32904	
803	0	32896	
804	0	32900	
805	0	32868	
806	0	32816	
807	0	32800	
808	0	32808	
809	0	32820	
810	0	32856	
811	0	32888	
812	0	32920	
813	0	32976	
814	0	33004	
815	0	33024	
816	0	33080	
817	0	33096	
818	0	33152	
819	0	33164	
820	0	33146	
821	0	33140	
822	0	33116	
823	0	33108	
824	0	33098	
825	0	33064	
826	0	33068	
827	0	33100	
828	0	33120	
829	0	33140	
830	0	33184	
831	0	33248	
832	0	33284	
833	0	33300	
834	0	33324	
835	0	33376	
836	0	33424	
837	0	33440	
838	0	33464	
839	0	33476	
840	0	33488	
841	0	33476	
842	0	33502	
843	0	33508	
844	0	33500	
845	0	33496	
846	0	33492	
847	0	33520	
848	0	33562	
849	0	33588	
850	0	33624	
851	0	33630	
852	0	33656	
853	0	33680	
854	0	33714	
855	0	33780	
856	0	33860	
857	0	33928	
858	0	33984	
859	0	34008	
860	0	34036	
861	0	34040	
862	0	34046	
863	0	34040	
864	0	34056	
865	0	34040	
866	0	34028	
867	0	34008	
868	0	33992	
869	0	33970	
870	0	33968	
871	0	33944	
872	0	33964	
873	0	33988	
874	0	33998	
875	0	34032	
876	0	34080	
877	0	34074	
878	0	34056	
879	0	34048	
880	0	34036	
881	0	34034	
882	0	34056	
883	0	34068	
884	0	34088	
885	0	34096	
886	0	34080	
887	0	34120	
888	0	34148	
889	0	34154	
890	0	34164	
891	0	34202	
892	0	34256	
893	0	34292	
894	0	34308	
895	0	34336	
896	0	34376	
897	0	34372	
898	0	34360	
899	0	34336	
900	0	34332	
901	0	34316	
902	0	34276	
903	0	34240	
904	0	34216	
905	0	34188	
906	0	34160	
907	0	34156	
908	0	34184	
909	0	34220	
910	0	34236	
911	0	34216	
912	0	34240	
913	0	34308	
914	0	34340	
915	0	34344	
916	0	34352	
917	0	34360	
918	0	34368	
919	0	34372	
920	0	34384	
921	0	34372	
922	0	34328	
923	0	34312	
924	0	34332	
925	0	34336	
926	0	34312	
927	0	34304	
928	0	34296	
929	0	34280	
930	0	34274	
931	0	34252	
932	0	34236	
933	0	34220	
934	0	34200	
935	0	34208	
936	0	34224	
937	0	34210	
938	0	34176	
939	0	34168	
940	0	34156	
941	0	34154	
942	0	34112	
943	0	34004	
944	0	33912	
945	0	33844	
946	0	33764	
947	0	33688	
948	0	33632	
949	0	33576	
950	0	33492	
951	0	33388	
952	0	33280	
953	0	33196	
954	0	33116	
955	0	33044	
956	0	33004	
957	0	32960	
958	0	32888	
959	0	32812	
960	0	32732	
961	0	32660	
962	0	32584	
963	0	32480	
964	0	32380	
965	0	32288	
966	0	32210	
967	0	32124	
968	0	32044	
969	0	31968	
970	0	31896	
971	0	31824	
972	0	31792	
973	0	31736	
974	0	31700	
975	0	31664	
976	0	31616	
977	0	31552	
978	0	31482	
979	0	31400	
980	0	31312	
981	0	31240	
982	0	31148	
983	0	31052	
984	0	30956	
985	0	30884	
986	0	30816	
987	0	30764	
988	0	30724	
989	0	30684	
990	0	30668	
991	0	30656	
992	0	30644	
993	0	30620	
994	0	30618	
995	0	30584	
996	0	30560	
997	0	30568	
998	0	30548	
999	0	30528	
1000	0	30520	
1001	0	30480	
1002	0	30428	
1003	0	30372	
1004	0	30332	
1005	0	30320	
1006	0	30332	
1007	0	30304	
1008	0	30286	
1009	0	30304	
1010	0	30276	
1011	0	30268	
1012	0	30264	
1013	0	30284	
1014	0	30284	
1015	0	30316	
1016	0	30304	
1017	0	30240	
1018	0	30234	
1019	0	30224	
1020	0	30240	
1021	0	30264	
1022	0	30308	
1023	0	30320	
1024	0	30336	
1025	0	30344	
1026	0	30352	
1027	0	30410	
1028	0	30456	
1029	0	30504	
1030	0	30528	
1031	0	30552	
1032	0	30584	
1033	0	30632	
1034	0	30688	
1035	0	30752	
1036	0	30804	
1037	0	30816	
1038	0	30832	
1039	0	30860	
1040	0	30872	
1041	0	30868	
1042	0	30872	
1043	0	30896	
1044	0	30928	
1045	0	30956	
1046	0	30956	
1047	0	30976	
1048	0	31016	
1049	0	31044	
1050	0	31048	
1051	0	31040	
1052	0	31060	
1053	0	31092	
1054	0	31148	
1055	0	31172	
1056	0	31204	
1057	0	31248	
1058	0	31269	
1059	0	31284	
1060	0	31272	
1061	0	31272	
1062	0	31244	
1063	0	31216	
1064	0	31204	
1065	0	31226	
1066	0	31264	
1067	0	31304	
1068	0	31352	
1069	0	31392	
1070	0	31444	
1071	0	31484	
1072	0	31544	
1073	0	31604	
1074	0	31672	
1075	0	31728	
1076	0	31784	
1077	0	31832	
1078	0	31828	
1079	0	31832	
1080	0	31848	
1081	0	31864	
1082	0	31864	
1083	0	31816	
1084	0	31796	
1085	0	31776	
1086	0	31748	
1087	0	31752	
1088	0	31768	
1089	0	31776	
1090	0	31740	
1091	0	31752	
1092	0	31768	
1093	0	31812	
1094	0	31872	
1095	0	31904	
1096	0	31944	
1097	0	31932	
1098	0	31920	
1099	0	31912	
1100	0	31932	
1101	0	31944	
1102	0	31956	
1103	0	31948	
1104	0	31944	
1105	0	31936	
1106	0	31900	
1107	0	31864	
1108	0	31848	
1109	0	31824	
1110	0	31792	
1111	0	31792	
1112	0	31812	
1113	0	31856	
1114	0	31860	
1115	0	31876	
1116	0	31900	
1117	0	31880	
1118	0	31844	
1119	0	31812	
1120	0	31820	
1121	0	31800	
1122	0	31800	
1123	0	31796	
1124	0	31788	
1125	0	31788	
1126	0	31778	
1127	0	31792	
1128	0	31816	
1129	0	31816	
1130	0	31800	
1131	0	31792	
1132	0	31784	
1133	0	31792	
1134	0	31820	
1135	0	31876	
1136	0	31876	
1137	0	31872	
1138	0	31872	
1139	0	31868	
1140	0	31864	
1141	0	31840	
1142	0	31828	
1143	0	31832	
1144	0	31824	
1145	0	31812	
1146	0	31788	
1147	0	31794	
1148	0	31808	
1149	0	31828	
1150	0	31856	
1151	0	31856	
1152	0	31884	
1153	0	31905	
1154	0	31920	
1155	0	31956	
1156	0	31996	
1157	0	32004	
1158	0	32032	
1159	0	32032	
1160	0	32048	
1161	0	32032	
1162	0	32004	
1163	0	31976	
1164	0	31960	
1165	0	31920	
1166	0	31892	
1167	0	31892	
1168	0	31888	
1169	0	31888	
1170	0	31896	
1171	0	31900	
1172	0	31912	
1173	0	31944	
1174	0	31960	
1175	0	31976	
1176	0	32000	
1177	0	32004	
1178	0	32000	
1179	0	32000	
1180	0	32016	
1181	0	32016	
1182	0	31992	
1183	0	31944	
1184	0	31926	
1185	0	31888	
1186	0	31876	
1187	0	31860	
1188	0	31820	
1189	0	31804	
1190	0	31792	
1191	0	31796	
1192	0	31824	
1193	0	31836	
1194	0	31860	
1195	0	31904	
1196	0	31916	
1197	0	31912	
1198	0	31900	
1199	0	31894	
1200	0	31888	
1201	0	31874	
1202	0	31872	
1203	0	31868	
1204	0	31864	
1205	0	31840	
1206	0	31824	
1207	0	31836	
1208	0	31860	
1209	0	31868	
1210	0	31864	
1211	0	31880	
1212	0	31900	
1213	0	31900	
1214	0	31906	
1215	0	31928	
1216	0	31936	
1217	0	31932	
1218	0	31928	
1219	0	31944	
1220	0	31956	
1221	0	31928	
1222	0	31914	
1223	0	31928	
1224	0	31912	
1225	0	31944	
1226	0	31940	
1227	0	31944	
1228	0	31984	
1229	0	32010	
1230	0	32084	
1231	0	32156	
1232	0	32204	
1233	0	32248	
1234	0	32308	
1235	0	32356	
1236	0	32388	
1237	0	32416	
1238	0	32408	
1239	0	32364	
1240	0	32336	
1241	0	32328	
1242	0	32324	
1243	0	32332	
1244	0	32304	
1245	0	32308	
1246	0	32296	
1247	0	32304	
1248	0	32288	
1249	0	32296	
1250	0	32292	
1251	0	32264	
1252	0	32276	
1253	0	32296	
1254	0	32344	
1255	0	32416	
1256	0	32442	
1257	0	32460	
1258	0	32460	
1259	0	32484	
1260	0	32484	
1261	0	32480	
1262	0	32480	
1263	0	32492	
1264	0	32488	
1265	0	32492	
1266	0	32504	
1267	0	32492	
1268	0	32472	
1269	0	32460	
1270	0	32460	
1271	0	32464	
1272	0	32504	
1273	0	32572	
1274	0	32600	
1275	0	32672	
1276	0	32696	
1277	0	32716	
1278	0	32696	
1279	0	32672	
1280	0	32664	
1281	0	32644	
1282	0	32636	
1283	0	32652	
1284	0	32656	
1285	0	32644	
1286	0	32632	
1287	0	32636	
1288	0	32644	
1289	0	32656	
1290	0	32680	
1291	0	32700	
1292	0	32714	
1293	0	32724	
1294	0	32748	
1295	0	32792	
1296	0	32826	
1297	0	32832	
1298	0	32836	
1299	0	32824	
1300	0	32816	
1301	0	32800	
1302	0	32784	
1303	0	32740	
1304	0	32712	
1305	0	32722	
1306	0	32732	
1307	0	32736	
1308	0	32768	
1309	0	32770	
1310	0	32768	
1311	0	32764	
1312	0	32760	
1313	0	32768	
1314	0	32780	
1315	0	32812	
1316	0	32844	
1317	0	32824	
1318	0	32828	
1319	0	32808	
1320	0	32812	
1321	0	32808	
1322	0	32788	
1323	0	32760	
1324	0	32752	
1325	0	32740	
1326	0	32736	
1327	0	32740	
1328	0	32736	
1329	0	32740	
1330	0	32776	
1331	0	32784	
1332	0	32784	
1333	0	32820	
1334	0	32820	
1335	0	32824	
1336	0	32824	
1337	0	32796	
1338	0	32772	
1339	0	32768	
1340	0	32720	
1341	0	32680	
1342	0	32640	
1343	0	32636	
1344	0	32628	
1345	0	32632	
1346	0	32656	
1347	0	32696	
1348	0	32724	
1349	0	32780	
1350	0	32808	
1351	0	32840	
1352	0	32880	
1353	0	32912	
1354	0	32916	
1355	0	32968	
1356	0	33008	
1357	0	32996	
1358	0	33004	
1359	0	32960	
1360	0	32916	
1361	0	32908	
1362	0	32904	
1363	0	32884	
1364	0	32844	
1365	0	32784	
1366	0	32784	
1367	0	32776	
1368	0	32832	
1369	0	32922	
1370	0	33028	
1371	0	33124	
1372	0	33244	
1373	0	33409	
1374	0	33596	
1375	0	33800	
1376	0	33936	
1377	0	34056	
1378	0	34180	
1379	0	34282	
1380	0	34356	
1381	0	34368	
1382	0	34362	
1383	0	34348	
1384	0	34312	
1385	0	34276	
1386	0	34240	
1387	0	34180	
1388	0	34066	
1389	0	33960	
1390	0	33824	
1391	0	33720	
1392	0	33656	
1393	0	33610	
1394	0	33544	
1395	0	33456	
1396	0	33392	
1397	0	33304	
1398	0	33240	
1399	0	33192	
1400	0	33124	
1401	0	33036	
1402	0	32956	
1403	0	32892	
1404	0	32848	
1405	0	32808	
1406	0	32770	
1407	0	32736	
1408	0	32713	
1409	0	32684	
1410	0	32672	
1411	0	32636	
1412	0	32608	
1413	0	32612	
1414	0	32640	
1415	0	32672	
1416	0	32692	
1417	0	32664	
1418	0	32620	
1419	0	32596	
1420	0	32580	
1421	0	32544	
1422	0	32512	
1423	0	32468	
1424	0	32408	
1425	0	32376	
1426	0	32368	
1427	0	32344	
1428	0	32280	
1429	0	32180	
1430	0	32084	
1431	0	31994	
1432	0	31944	
1433	0	31920	
1434	0	31914	
1435	0	31904	
1436	0	31888	
1437	0	31864	
1438	0	31868	
1439	0	31872	
1440	0	31876	
1441	0	31904	
1442	0	31892	
1443	0	31872	
1444	0	31832	
1445	0	31812	
1446	0	31784	
1447	0	31760	
1448	0	31744	
1449	0	31784	
1450	0	31820	
1451	0	31834	
1452	0	31852	
1453	0	31856	
1454	0	31908	
1455	0	31948	
1456	0	31980	
1457	0	32008	
1458	0	32046	
1459	0	32072	
1460	0	32104	
1461	0	32148	
1462	0	32152	
1463	0	32130	
1464	0	32124	
1465	0	32128	
1466	0	32112	
1467	0	32112	
1468	0	32080	
1469	0	32048	
1470	0	32040	
1471	0	32036	
1472	0	32044	
1473	0	32044	
1474	0	32056	
1475	0	32060	
1476	0	32076	
1477	0	32084	
1478	0	32096	
1479	0	32072	
1480	0	32060	
1481	0	32048	
1482	0	32040	
1483	0	32040	
1484	0	32034	
1485	0	32016	
1486	0	31992	
1487	0	31988	
1488	0	31988	
1489	0	32012	
1490	0	32052	
1491	0	32056	
1492	0	32072	
1493	0	32100	
1494	0	32132	
1495	0	32148	
1496	0	32192	
1497	0	32244	
1498	0	32290	
1499	0	32352	
1500	0	32380	
1501	0	32384	
1502	0	32408	
1503	0	32416	
1504	0	32392	
1505	0	32368	
1506	0	32308	
1507	0	32240	
1508	0	32184	
1509	0	32116	
1510	0	32108	
1511	0	32232	
1512	0	32500	
1513	0	32780	
1514	0	33092	
1515	0	33444	
1516	0	33764	
1517	0	34028	
1518	0	34304	
1519	0	34472	
1520	0	34600	
1521	0	34856	
1522	0	35216	
1523	0	35708	
1524	0	36376	
1525	0	37220	
1526	0	38268	
1527	0	39436	
1528	0	40632	
1529	0	41932	
1530	0	43276	
1531	0	44684	
1532	0	46108	
1533	0	47440	
1534	0	48568	
1535	0	49568	
1536	0	50476	
1537	0	51316	
1538	0	52320	
1539	0	53196	
1540	0	53752	
1541	0	53776	
1542	0	52752	
1543	0	50720	
1544	0	47904	
1545	0	44616	
1546	0	41164	
1547	0	37916	
1548	0	35112	
1549	0	33000	
1550	0	31520	
1551	0	30520	
1552	0	29936	
1553	0	29744	
1554	0	29720	
1555	0	29760	
1556	0	29808	
1557	0	29872	
1558	0	30000	
1559	0	30188	
1560	0	30384	
1561	0	30560	
1562	0	30704	
1563	0	30868	
1564	0	31008	
1565	0	31124	
1566	0	31252	
1567	0	31388	
1568	0	31504	
1569	0	31584	
1570	0	31624	
1571	0	31664	
1572	0	31676	
1573	0	31669	
1574	0	31664	
1575	0	31628	
1576	0	31588	
1577	0	31532	
1578	0	31504	
1579	0	31496	
1580	0	31480	
1581	0	31440	
1582	0	31392	
1583	0	31328	
1584	0	31304	
1585	0	31280	
1586	0	31272	
1587	0	31248	
1588	0	31240	
1589	0	31248	
1590	0	31256	
1591	0	31280	
1592	0	31336	
1593	0	31392	
1594	0	31448	
1595	0	31480	
1596	0	31512	
1597	0	31528	
1598	0	31572	
1599	0	31596	
1600	0	31608	
1601	0	31636	
1602	0	31664	
1603	0	31688	
1604	0	31684	
1605	0	31704	
1606	0	31736	
1607	0	31756	
1608	0	31768	
1609	0	31808	
1610	0	31832	
1611	0	31868	
1612	0	31898	
1613	0	31948	
1614	0	31996	
1615	0	32020	
1616	0	32048	
1617	0	32060	
1618	0	32076	
1619	0	32088	
1620	0	32116	
1621	0	32168	
1622	0	32200	
1623	0	32192	
1624	0	32196	
1625	0	32216	
1626	0	32224	
1627	0	32260	
1628	0	32288	
1629	0	32308	
1630	0	32336	
1631	0	32372	
1632	0	32416	
1633	0	32444	
1634	0	32484	
1635	0	32512	
1636	0	32548	
1637	0	32560	
1638	0	32572	
1639	0	32568	
1640	0	32568	
1641	0	32568	
1642	0	32580	
1643	0	32584	
1644	0	32584	
1645	0	32580	
1646	0	32578	
1647	0	32592	
1648	0	32608	
1649	0	32660	
1650	0	32684	
1651	0	32752	
1652	0	32816	
1653	0	32876	
1654	0	32920	
1655	0	32960	
1656	0	32980	
1657	0	33020	
1658	0	33040	
1659	0	33052	
1660	0	33040	
1661	0	33036	
1662	0	33040	
1663	0	33024	
1664	0	33032	
1665	0	33040	
1666	0	33048	
1667	0	33064	
1668	0	33104	
1669	0	33132	
1670	0	33156	
1671	0	33184	
1672	0	33228	
1673	0	33280	
1674	0	33312	
1675	0	33356	
1676	0	33400	
1677	0	33412	
1678	0	33424	
1679	0	33420	
1680	0	33428	
1681	0	33450	
1682	0	33444	
1683	0	33428	
1684	0	33408	
1685	0	33396	
1686	0	33424	
1687	0	33428	
1688	0	33444	
1689	0	33448	
1690	0	33448	
1691	0	33484	
1692	0	33517	
1693	0	33516	
1694	0	33528	
1695	0	33568	
1696	0	33584	
1697	0	33596	
1698	0	33568	
1699	0	33568	
1700	0	33576	
1701	0	33592	
1702	0	33578	
1703	0	33560	
1704	0	33568	
1705	0	33568	
1706	0	33572	
1707	0	33592	
1708	0	33614	
1709	0	33632	
1710	0	33664	
1711	0	33672	
1712	0	33712	
1713	0	33748	
1714	0	33796	
1715	0	33834	
1716	0	33876	
1717	0	33896	
1718	0	33892	
1719	0	33880	
1720	0	33872	
1721	0	33864	
1722	0	33880	
1723	0	33920	
1724	0	33924	
1725	0	33920	
1726	0	33916	
1727	0	33900	
1728	0	33916	
1729	0	33924	
1730	0	33956	
1731	0	33972	
1732	0	33984	
1733	0	33988	
1734	0	34008	
1735	0	34048	
1736	0	34100	
1737	0	34096	
1738	0	34106	
1739	0	34076	
1740	0	34068	
1741	0	34116	
1742	0	34136	
1743	0	34152	
1744	0	34158	
1745	0	34160	
1746	0	34184	
1747	0	34194	
1748	0	34204	
1749	0	34200	
1750	0	34232	
1751	0	34292	
1752	0	34328	
1753	0	34360	
1754	0	34388	
1755	0	34408	
1756	0	34420	
1757	0	34404	
1758	0	34444	
1759	0	34512	
1760	0	34520	
1761	0	34484	
1762	0	34428	
1763	0	34388	
1764	0	34344	
1765	0	34268	
1766	0	34196	
1767	0	34184	
1768	0	34212	
1769	0	34228	
1770	0	34216	
1771	0	34224	
1772	0	34248	
1773	0	34272	
1774	0	34284	
1775	0	34300	
1776	0	34300	
1777	0	34296	
1778	0	34290	
1779	0	34304	
1780	0	34324	
1781	0	34320	
1782	0	34288	
1783	0	34260	
1784	0	34244	
1785	0	34240	
1786	0	34252	
1787	0	34272	
1788	0	34284	
1789	0	34312	
1790	0	34316	
1791	0	34316	
1792	0	34320	
1793	0	34312	
1794	0	34316	
1795	0	34388	
1796	0	34426	
1797	0	34468	
1798	0	34516	
1799	0	34512	
1800	0	34500	
1801	0	34496	
1802	0	34488	
1803	0	34440	
1804	0	34426	
1805	0	34376	
1806	0	34348	
1807	0	34324	
1808	0	34304	
1809	0	34268	
1810	0	34224	
1811	0	34200	
1812	0	34204	
1813	0	34184	
1814	0	34168	
1815	0	34136	
1816	0	34064	
1817	0	33968	
1818	0	33900	
1819	0	33856	
1820	0	33788	
1821	0	33716	
1822	0	33620	
1823	0	33524	
1824	0	33442	
1825	0	33376	
1826	0	33312	
1827	0	33252	
1828	0	33180	
1829	0	33124	
1830	0	33068	
1831	0	33000	
1832	0	32956	
1833	0	32916	
1834	0	32864	
1835	0	32824	
1836	0	32788	
1837	0	32740	
1838	0	32696	
1839	0	32620	
1840	0	32520	
1841	0	32448	
1842	0	32356	
1843	0	32256	
1844	0	32128	
1845	0	32016	
1846	0	31924	
1847	0	31888	
1848	0	31892	
1849	0	31860	
1850	0	31852	
1851	0	31868	
1852	0	31868	
1853	0	31840	
1854	0	31796	
1855	0	31748	
1856	0	31708	
1857	0	31628	
1858	0	31516	
1859	0	31440	
1860	0	31378	
1861	0	31312	
1862	0	31272	
1863	0	31192	
1864	0	31156	
1865	0	31144	
1866	0	31140	
1867	0	31160	
1868	0	31164	
1869	0	31148	
1870	0	31146	
1871	0	31184	
1872	0	31228	
1873	0	31272	
1874	0	31272	
1875	0	31292	
1876	0	31328	
1877	0	31312	
1878	0	31280	
1879	0	31252	
1880	0	31232	
1881	0	31204	
1882	0	31220	
1883	0	31232	
1884	0	31232	
1885	0	31242	
1886	0	31242	
1887	0	31220	
1888	0	31210	
1889	0	31184	
1890	0	31200	
1891	0	31250	
1892	0	31304	
1893	0	31328	
1894	0	31364	
1895	0	31406	
1896	0	31442	
1897	0	31442	
1898	0	31448	
1899	0	31464	
1900	0	31456	
1901	0	31449	
1902	0	31422	
1903	0	31376	
1904	0	31352	
1905	0	31348	
1906	0	31330	
1907	0	31336	
1908	0	31380	
1909	0	31393	
1910	0	31400	
1911	0	31432	
1912	0	31456	
1913	0	31488	
1914	0	31536	
1915	0	31612	
1916	0	31664	
1917	0	31688	
1918	0	31720	
1919	0	31748	
1920	0	31728	
1921	0	31720	
1922	0	31708	
1923	0	31700	
1924	0	31692	
1925	0	31664	
1926	0	31676	
1927	0	31696	
1928	0	31728	
1929	0	31744	
1930	0	31712	
1931	0	31716	
1932	0	31754	
1933	0	31800	
1934	0	31852	
1935	0	31924	
1936	0	31968	
1937	0	31996	
1938	0	32024	
1939	0	32064	
1940	0	32092	
1941	0	32096	
1942	0	32088	
1943	0	32088	
1944	0	32068	
1945	0	32016	
1946	0	31944	
1947	0	31924	
1948	0	31892	
1949	0	31842	
1950	0	31772	
1951	0	31740	
1952	0	31748	
1953	0	31740	
1954	0	31756	
1955	0	31770	
1956	0	31788	
1957	0	31828	
1958	0	31840	
1959	0	31848	
1960	0	31874	
1961	0	31864	
1962	0	31860	
1963	0	31836	
1964	0	31812	
1965	0	31800	
1966	0	31844	
1967	0	31904	
1968	0	31936	
1969	0	31928	
1970	0	31904	
1971	0	31916	
1972	0	31920	
1973	0	31904	
1974	0	31856	
1975	0	31800	
1976	0	31776	
1977	0	31736	
1978	0	31724	
1979	0	31730	
1980	0	31744	
1981	0	31736	
1982	0	31696	
1983	0	31664	
1984	0	31648	
1985	0	31636	
1986	0	31660	
1987	0	31688	
1988	0	31684	
1989	0	31676	
1990	0	31640	
1991	0	31650	
1992	0	31684	
1993	0	31712	
1994	0	31728	
1995	0	31712	
1996	0	31712	
1997	0	31712	
1998	0	31764	
1999	0	31768	
2000	0	31762	
2001	0	31760	
2002	0	31720	
2003	0	31696	
2004	0	31680	
2005	0	31648	
2006	0	31644	
2007	0	31684	
2008	0	31692	
2009	0	31672	
2010	0	31640	
2011	0	31606	
2012	0	31652	
2013	0	31760	
2014	0	31808	
2015	0	31832	
2016	0	31836	
2017	0	31816	
2018	0	31788	
2019	0	31724	
2020	0	31716	
2021	0	31712	
2022	0	31728	
2023	0	31744	
2024	0	31732	
2025	0	31696	
2026	0	31672	
2027	0	31680	
2028	0	31660	
2029	0	31636	
2030	0	31628	
2031	0	31648	
2032	0	31672	
2033	0	31688	
2034	0	31724	
2035	0	31764	
2036	0	31808	
2037	0	31852	
2038	0	31848	
2039	0	31808	
2040	0	31800	
2041	0	31796	
2042	0	31768	
2043	0	31728	
2044	0	31704	
2045	0	31704	
2046	0	31712	
2047	0	31716	
2048	0	31704	
2049	0	31688	
2050	0	31632	
2051	0	31616	
2052	0	31620	
2053	0	31652	
2054	0	31680	
2055	0	31736	
2056	0	31792	
2057	0	31812	
2058	0	31796	
2059	0	31780	
2060	0	31724	
2061	0	31620	
2062	0	31560	
2063	0	31528	
2064	0	31524	
2065	0	31536	
2066	0	31584	
2067	0	31660	
2068	0	31716	
2069	0	31760	
2070	0	31796	
2071	0	31844	
2072	0	31888	
2073	0	31960	
2074	0	32068	
2075	0	32112	
2076	0	32088	
2077	0	32044	
2078	0	32056	
2079	0	32060	
2080	0	32080	
2081	0	32068	
2082	0	32080	
2083	0	32066	
2084	0	31996	
2085	0	31960	
2086	0	31972	
2087	0	31964	
2088	0	31912	
2089	0	31812	
2090	0	31792	
2091	0	31840	
2092	0	31892	
2093	0	31944	
2094	0	32000	
2095	0	32080	
2096	0	32132	
2097	0	32192	
2098	0	32216	
2099	0	32216	
2100	0	32248	
2101	0	32220	
2102	0	32192	
2103	0	32192	
2104	0	32184	
2105	0	32148	
2106	0	32136	
2107	0	32184	
2108	0	32136	
2109	0	32100	
2110	0	32108	
2111	0	32124	
2112	0	32136	
2113	0	32212	
2114	0	32270	
2115	0	32288	
2116	0	32320	
2117	0	32320	
2118	0	32332	
2119	0	32328	
2120	0	32316	
2121	0	32280	
2122	0	32312	
2123	0	32324	
2124	0	32312	
2125	0	32312	
2126	0	32320	
2127	0	32340	
2128	0	32320	
2129	0	32312	
2130	0	32344	
2131	0	32392	
2132	0	32416	
2133	0	32436	
2134	0	32456	
2135	0	32490	
2136	0	32544	
2137	0	32544	
2138	0	32484	
2139	0	32440	
2140	0	32424	
2141	0	32456	
2142	0	32432	
2143	0	32386	
2144	0	32340	
2145	0	32288	
2146	0	32260	
2147	0	32284	
2148	0	32304	
2149	0	32348	
2150	0	32410	
2151	0	32500	
2152	0	32576	
2153	0	32676	
2154	0	32720	
2155	0	32708	
2156	0	32692	
2157	0	32672	
2158	0	32644	
2159	0	32628	
2160	0	32580	
2161	0	32556	
2162	0	32520	
2163	0	32536	
2164	0	32544	
2165	0	32580	
2166	0	32608	
2167	0	32596	
2168	0	32580	
2169	0	32568	
2170	0	32584	
2171	0	32596	
2172	0	32664	
2173	0	32696	
2174	0	32730	
2175	0	32760	
2176	0	32800	
2177	0	32872	
2178	0	32936	
2179	0	32952	
2180	0	32944	
2181	0	32888	
2182	0	32792	
2183	0	32660	
2184	0	32624	
2185	0	32654	
2186	0	32706	
2187	0	32720	
2188	0	32700	
2189	0	32672	
2190	0	32698	
2191	0	32776	
2192	0	32864	
2193	0	32940	
2194	0	32944	
2195	0	32996	
2196	0	33096	
2197	0	33136	
2198	0	33184	
2199	0	33298	
2200	0	33440	
2201	0	33580	
2202	0	33668	
2203	0	33772	
2204	0	33940	
2205	0	34112	
2206	0	34208	
2207	0	34286	
2208	0	34416	
2209	0	34524	
2210	0	34568	
2211	0	34584	
2212	0	34612	
2213	0	34620	
2214	0	34616	
2215	0	34604	
2216	0	34572	
2217	0	34496	
2218	0	34376	
2219	0	34236	
2220	0	34176	
2221	0	34112	
2222	0	34040	
2223	0	33956	
2224	0	33868	
2225	0	33784	
2226	0	33724	
2227	0	33668	
2228	0	33592	
2229	0	33484	
2230	0	33388	
2231	0	33328	
2232	0	33256	
2233	0	33200	
2234	0	33160	
2235	0	33136	
2236	0	33084	
2237	0	33028	
2238	0	32952	
2239	0	32872	
2240	0	32840	
2241	0	32788	
2242	0	32768	
2243	0	32780	
2244	0	32756	
2245	0	32716	
2246	0	32752	
2247	0	32818	
2248	0	32824	
2249	0	32796	
2250	0	32728	
2251	0	32628	
2252	0	32556	
2253	0	32572	
2254	0	32600	
2255	0	32572	
2256	0	32512	
2257	0	32436	
2258	0	32356	
2259	0	32262	
2260	0	32184	
2261	0	32160	
2262	0	32128	
2263	0	32092	
2264	0	32056	
2265	0	32052	
2266	0	32084	
2267	0	32088	
2268	0	32112	
2269	0	32148	
2270	0	32180	
2271	0	32188	
2272	0	32180	
2273	0	32184	
2274	0	32176	
2275	0	32200	
2276	0	32208	
2277	0	32212	
2278	0	32296	
2279	0	32344	
2280	0	32320	
2281	0	32296	
2282	0	32260	
2283	0	32236	
2284	0	32228	
2285	0	32204	
2286	0	32188	
2287	0	32192	
2288	0	32212	
2289	0	32268	
2290	0	32320	
2291	0	32362	
2292	0	32408	
2293	0	32456	
2294	0	32452	
2295	0	32448	
2296	0	32444	
2297	0	32468	
2298	0	32516	
2299	0	32552	
2300	0	32548	
2301	0	32520	
2302	0	32492	
2303	0	32492	
2304	0	32496	
2305	0	32452	
2306	0	32404	
2307	0	32372	
2308	0	32384	
2309	0	32432	
2310	0	32468	
2311	0	32536	
2312	0	32592	
2313	0	32640	
2314	0	32672	
2315	0	32696	
2316	0	32718	
2317	0	32768	
2318	0	32748	
2319	0	32676	
2320	0	32602	
2321	0	32584	
2322	0	32588	
2323	0	32604	
2324	0	32602	
2325	0	32572	
2326	0	32530	
2327	0	32508	
2328	0	32556	
2329	0	32604	
2330	0	32634	
2331	0	32664	
2332	0	32716	
2333	0	32812	
2334	0	32832	
2335	0	32784	
2336	0	32656	
2337	0	32520	
2338	0	32388	
2339	0	32372	
2340	0	32504	
2341	0	32800	
2342	0	33128	
2343	0	33420	
2344	0	33696	
2345	0	33948	
2346	0	34152	
2347	0	34308	
2348	0	34424	
2349	0	34580	
2350	0	34908	
2351	0	35384	
2352	0	35968	
2353	0	36676	
2354	0	37624	
2355	0	38728	
2356	0	39976	
2357	0	41288	
2358	0	42660	
2359	0	44084	
2360	0	45580	
2361	0	47192	
2362	0	48736	
2363	0	50080	
2364	0	51208	
2365	0	52144	
2366	0	53056	
2367	0	53960	
2368	0	54832	
2369	0	55404	
2370	0	55380	
2371	0	54480	
2372	0	52544	
2373	0	49632	
2374	0	46204	
2375	0	42584	
2376	0	39092	
2377	0	35936	
2378	0	33344	
2379	0	31452	
2380	0	30184	
2381	0	29324	
2382	0	28756	
2383	0	28444	
2384	0	28364	
2385	0	28460	
2386	0	28728	
2387	0	29112	
2388	0	29460	
2389	0	29756	
2390	0	30042	
2391	0	30360	
2392	0	30592	
2393	0	30768	
2394	0	30936	
2395	0	31096	
2396	0	31200	
2397	0	31240	
2398	0	31284	
2399	0	31332	
2400	0	31356	
2401	0	31344	
2402	0	31296	
2403	0	31272	
2404	0	31272	
2405	0	31248	
2406	0	31182	
2407	0	31124	
2408	0	31096	
2409	0	31080	
2410	0	31108	
2411	0	31146	
2412	0	31134	
2413	0	31136	
2414	0	31196	
2415	0	31212	
2416	0	31168	
2417	0	31124	
2418	0	31096	
2419	0	31104	
2420	0	31120	
2421	0	31116	
2422	0	31144	
2423	0	31200	
2424	0	31244	
2425	0	31264	
2426	0	31236	
2427	0	31208	
2428	0	31208	
2429	0	31256	
2430	0	31256	
2431	0	31296	
2432	0	31356	
2433	0	31404	
2434	0	31472	
2435	0	31500	
2436	0	31504	
2437	0	31520	
2438	0	31516	
2439	0	31520	
2440	0	31548	
2441	0	31544	
2442	0	31480	
2443	0	31418	
2444	0	31394	
2445	0	31380	
2446	0	31396	
2447	0	31436	
2448	0	31488	
2449	0	31536	
2450	0	31592	
2451	0	31624	
2452	0	31656	
2453	0	31712	
2454	0	31764	
2455	0	31788	
2456	0	31808	
2457	0	31802	
2458	0	31812	
2459	0	31834	
2460	0	31852	
2461	0	31848	
2462	0	31888	
2463	0	31920	
2464	0	31940	
2465	0	31932	
2466	0	31936	
2467	0	31956	
2468	0	31992	
2469	0	32032	
2470	0	32060	
2471	0	32072	
2472	0	32088	
2473	0	32128	
2474	0	32188	
2475	0	32232	
2476	0	32256	
2477	0	32276	
2478	0	32292	
2479	0	32368	
2480	0	32400	
2481	0	32420	
2482	0	32430	
2483	0	32436	
2484	0	32408	
2485	0	32356	
2486	0	32344	
2487	0	32352	
2488	0	32378	
2489	0	32392	
2490	0	32408	
2491	0	32444	
2492	0	32492	
2493	0	32536	
2494	0	32588	
2495	0	32612	
2496	0	32648	
2497	0	32712	
2498	0	32800	
2499	0	32904	
2500	0	32960	
2501	0	32980	
2502	0	32942	
2503	0	32928	
2504	0	32876	
2505	0	32846	
2506	0	32832	
2507	0	32828	
2508	0	32864	
2509	0	32888	
2510	0	32882	
2511	0	32864	
2512	0	32836	
2513	0	32808	
2514	0	32832	
2515	0	32872	
2516	0	32948	
2517	0	33004	
2518	0	33048	
2519	0	33064	
2520	0	33056	
2521	0	33088	
2522	0	33096	
2523	0	33088	
2524	0	33088	
2525	0	33120	
2526	0	33152	
2527	0	33172	
2528	0	33204	
2529	0	33166	
2530	0	33120	
2531	0	33120	
2532	0	33192	
2533	0	33272	
2534	0	33368	
2535	0	33432	
2536	0	33464	
2537	0	33504	
2538	0	33544	
2539	0	33584	
2540	0	33628	
2541	0	33632	
2542	0	33616	
2543	0	33576	
2544	0	33532	
2545	0	33528	
2546	0	33620	
2547	0	33688	
2548	0	33712	
2549	0	33672	
2550	0	33664	
2551	0	33672	
2552	0	33672	
2553	0	33704	
2554	0	33728	
2555	0	33748	
2556	0	33720	
2557	0	33652	
2558	0	33642	
2559	0	33624	
2560	0	33592	
2561	0	33568	
2562	0	33604	
2563	0	33676	
2564	0	33728	
2565	0	33788	
2566	0	33864	
2567	0	33916	
2568	0	33924	
2569	0	33976	
2570	0	33972	
2571	0	33952	
2572	0	33940	
2573	0	33936	
2574	0	33936	
2575	0	33896	
2576	0	33852	
2577	0	33820	
2578	0	33824	
2579	0	33874	
2580	0	33920	
2581	0	33952	
2582	0	33956	
2583	0	33940	
2584	0	33944	
2585	0	33932	
2586	0	33928	
2587	0	33976	
2588	0	34004	
2589	0	34012	
2590	0	34056	
2591	0	34088	
2592	0	34100	
2593	0	34104	
2594	0	34100	
2595	0	34156	
2596	0	34200	
2597	0	34228	
2598	0	34244	
2599	0	34232	
2600	0	34160	
2601	0	34084	
2602	0	34052	
2603	0	34020	
2604	0	34000	
2605	0	34020	
2606	0	33984	
2607	0	33916	
2608	0	33888	
2609	0	33880	
2610	0	33912	
2611	0	33976	
2612	0	34076	
2613	0	34128	
2614	0	34148	
2615	0	34176	
2616	0	34192	
2617	0	34140	
2618	0	34108	
2619	0	34040	
2620	0	33932	
2621	0	33864	
2622	0	33836	
2623	0	33816	
2624	0	33848	
2625	0	33920	
2626	0	33980	
2627	0	34024	
2628	0	34008	
2629	0	34004	
2630	0	33992	
2631	0	33960	
2632	0	33916	
2633	0	33844	
2634	0	33780	
2635	0	33704	
2636	0	33668	
2637	0	33656	
2638	0	33660	
2639	0	33642	
2640	0	33596	
2641	0	33548	
2642	0	33516	
2643	0	33476	
2644	0	33408	
2645	0	33364	
2646	0	33300	
2647	0	33242	
2648	0	33164	
2649	0	33074	
2650	0	32968	
2651	0	32916	
2652	0	32896	
2653	0	32872	
2654	0	32796	
2655	0	32736	
2656	0	32652	
2657	0	32608	
2658	0	32596	
2659	0	32576	
2660	0	32552	
2661	0	32488	
2662	0	32356	
2663	0	32244	
2664	0	32138	
2665	0	32076	
2666	0	31992	
2667	0	31880	
2668	0	31748	
2669	0	31646	
2670	0	31596	
2671	0	31586	
2672	0	31576	
2673	0	31564	
2674	0	31516	
2675	0	31484	
2676	0	31420	
2677	0	31324	
2678	0	31248	
2679	0	31196	
2680	0	31112	
2681	0	31048	
2682	0	30956	
2683	0	30860	
2684	0	30820	
2685	0	30776	
2686	0	30744	
2687	0	30688	
2688	0	30644	
2689	0	30600	
2690	0	30584	
2691	0	30584	
2692	0	30592	
2693	0	30568	
2694	0	30612	
2695	0	30636	
2696	0	30656	
2697	0	30680	
2698	0	30684	
2699	0	30650	
2700	0	30648	
2701	0	30648	
2702	0	30660	
2703	0	30692	
2704	0	30700	
2705	0	30696	
2706	0	30692	
2707	0	30680	
2708	0	30708	
2709	0	30760	
2710	0	30780	
2711	0	30804	
2712	0	30832	
2713	0	30860	
2714	0	30888	
2715	0	30880	
2716	0	30872	
2717	0	30856	
2718	0	30848	
2719	0	30868	
2720	0	30884	
2721	0	30884	
2722	0	30924	
2723	0	30944	
2724	0	30964	
2725	0	30984	
2726	0	31012	
2727	0	31024	
2728	0	31052	
2729	0	31108	
2730	0	31196	
2731	0	31282	
2732	0	31308	
2733	0	31352	
2734	0	31392	
2735	0	31456	
2736	0	31448	
2737	0	31416	
2738	0	31412	
2739	0	31452	
2740	0	31476	
2741	0	31528	
2742	0	31524	
2743	0	31516	
2744	0	31456	
2745	0	31424	
2746	0	31408	
2747	0	31432	
2748	0	31448	
2749	0	31464	
2750	0	31512	
2751	0	31568	
2752	0	31632	
2753	0	31720	
2754	0	31784	
2755	0	31800	
2756	0	31816	
2757	0	31852	
2758	0	31844	
2759	0	31816	
2760	0	31752	
2761	0	31696	
2762	0	31656	
2763	0	31652	
2764	0	31688	
2765	0	31676	
2766	0	31708	
2767	0	31740	
2768	0	31784	
2769	0	31840	
2770	0	31868	
2771	0	31856	
2772	0	31824	
2773	0	31800	
2774	0	31832	
2775	0	31896	
2776	0	31932	
2777	0	31944	
2778	0	31940	
2779	0	31996	
2780	0	32032	
2781	0	31996	
2782	0	31940	
2783	0	31924	
2784	0	31928	
2785	0	31956	
2786	0	31988	
2787	0	32020	
2788	0	31992	
2789	0	31908	
2790	0	31848	
2791	0	31864	
2792	0	31896	
2793	0	31892	
2794	0	31884	
2795	0	31908	
2796	0	31952	
2797	0	31984	
2798	0	32004	
2799	0	32044	
2800	0	32080	
2801	0	32096	
2802	0	32064	
2803	0	31972	
2804	0	31876	
2805	0	31824	
2806	0	31824	
2807	0	31824	
2808	0	31840	
2809	0	31808	
2810	0	31792	
2811	0	31788	
2812	0	31800	
2813	0	31816	
2814	0	31880	
2815	0	31928	
2816	0	31960	
2817	0	31972	
2818	0	32000	
2819	0	31992	
2820	0	31952	
2821	0	31908	
2822	0	31864	
2823	0	31876	
2824	0	31876	
2825	0	31836	
2826	0	31812	
2827	0	31800	
2828	0	31796	
2829	0	31800	
2830	0	31772	
2831	0	31788	
2832	0	31808	
2833	0	31824	
2834	0	31824	
2835	0	31856	
2836	0	31882	
2837	0	31896	
2838	0	31898	
2839	0	31880	
2840	0	31844	
2841	0	31860	
2842	0	31900	
2843	0	31902	
2844	0	31888	
2845	0	31840	
2846	0	31816	
2847	0	31774	
2848	0	31724	
2849	0	31716	
2850	0	31688	
2851	0	31672	
2852	0	31700	
2853	0	31744	
2854	0	31768	
2855	0	31796	
2856	0	31812	
2857	0	31848	
2858	0	31868	
2859	0	31860	
2860	0	31840	
2861	0	31828	
2862	0	31820	
2863	0	31756	
2864	0	31732	
2865	0	31744	
2866	0	31760	
2867	0	31764	
2868	0	31736	
2869	0	31748	
2870	0	31788	
2871	0	31836	
2872	0	31880	
2873	0	31952	
2874	0	32052	
2875	0	32124	
2876	0	32156	
2877	0	32192	
2878	0	32224	
2879	0	32240	
2880	0	32276	
2881	0	32312	
2882	0	32356	
2883	0	32372	
2884	0	32376	
2885	0	32356	
2886	0	32364	
2887	0	32352	
2888	0	32336	
2889	0	32320	
2890	0	32316	
2891	0	32353	
2892	0	32410	
2893	0	32448	
2894	0	32484	
2895	0	32540	
2896	0	32570	
2897	0	32592	
2898	0	32664	
2899	0	32744	
2900	0	32848	
2901	0	32948	
2902	0	33028	
2903	0	33096	
2904	0	33160	
2905	0	33272	
2906	0	33364	
2907	0	33440	
2908	0	33520	
2909	0	33628	
2910	0	33704	
2911	0	33764	
2912	0	33820	
2913	0	33860	
2914	0	33872	
2915	0	33864	
2916	0	33872	
2917	0	33888	
2918	0	33912	
2919	0	33888	
2920	0	33818	
2921	0	33716	
2922	0	33584	
2923	0	33448	
2924	0	33296	
2925	0	33168	
2926	0	33052	
2927	0	32936	
2928	0	32856	
2929	0	32800	
2930	0	32788	
2931	0	32740	
2932	0	32688	
2933	0	32656	
2934	0	32648	
2935	0	32648	
2936	0	32640	
2937	0	32628	
2938	0	32596	
2939	0	32552	
2940	0	32496	
2941	0	32448	
2942	0	32420	
2943	0	32368	
2944	0	32288	
2945	0	32224	
2946	0	32180	
2947	0	32136	
2948	0	32080	
2949	0	32012	
2950	0	31980	
2951	0	31972	
2952	0	31956	
2953	0	31896	
2954	0	31860	
2955	0	31800	
2956	0	31744	
2957	0	31692	
2958	0	31680	
2959	0	31648	
2960	0	31624	
2961	0	31604	
2962	0	31600	
2963	0	31580	
2964	0	31592	
2965	0	31604	
2966	0	31624	
2967	0	31644	
2968	0	31660	
2969	0	31680	
2970	0	31706	
2971	0	31684	
2972	0	31692	
2973	0	31720	
2974	0	31736	
2975	0	31712	
2976	0	31680	
2977	0	31680	
2978	0	31708	
2979	0	31726	
2980	0	31736	
2981	0	31748	
2982	0	31744	
2983	0	31732	
2984	0	31712	
2985	0	31648	
2986	0	31620	
2987	0	31612	
2988	0	31584	
2989	0	31568	
2990	0	31552	
2991	0	31536	
2992	0	31564	
2993	0	31608	
2994	0	31636	
2995	0	31630	
2996	0	31634	
2997	0	31632	
2998	0	31616	
2999	0	31600	
3000	0	31600	
3001	0	31584	
3002	0	31564	
3003	0	31584	
3004	0	31584	
3005	0	31620	
3006	0	31648	
3007	0	31624	
3008	0	31632	
3009	0	31676	
3010	0	31720	
3011	0	31778	
3012	0	31816	
3013	0	31840	
3014	0	31876	
3015	0	31884	
3016	0	31936	
3017	0	31968	
3018	0	31996	
3019	0	32056	
3020	0	32060	
3021	0	32020	
3022	0	31980	
3023	0	31936	
3024	0	31904	
3025	0	31904	
3026	0	31928	
3027	0	31924	
3028	0	31908	
3029	0	31916	
3030	0	31924	
3031	0	32004	
3032	0	32056	
3033	0	32100	
3034	0	32188	
3035	0	32264	
3036	0	32344	
3037	0	32412	
3038	0	32428	
3039	0	32416	
3040	0	32304	
3041	0	32168	
3042	0	32034	
3043	0	32000	
3044	0	32004	
3045	0	32148	
3046	0	32432	
3047	0	32804	
3048	0	33176	
3049	0	33572	
3050	0	33928	
3051	0	34240	
3052	0	34460	
3053	0	34572	
3054	0	34732	
3055	0	35044	
3056	0	35488	
3057	0	36084	
3058	0	36880	
3059	0	37864	
3060	0	39028	
3061	0	40384	
3062	0	41800	
3063	0	43200	
3064	0	44680	
3065	0	46264	
3066	0	47912	
3067	0	49504	
3068	0	50928	
3069	0	52140	
3070	0	53128	
3071	0	54028	
3072	0	55008	
3073	0	55888	
3074	0	56420	
3075	0	56272	
3076	0	55232	
3077	0	53148	
3078	0	50096	
3079	0	46508	
3080	0	42688	
3081	0	38992	
3082	0	35688	
3083	0	33016	
3084	0	31112	
3085	0	29768	
3086	0	28884	
3087	0	28408	
3088	0	28266	
3089	0	28300	
3090	0	28468	
3091	0	28768	
3092	0	29138	
3093	0	29536	
3094	0	29856	
3095	0	30184	
3096	0	30456	
3097	0	30624	
3098	0	30740	
3099	0	30848	
3100	0	30956	
3101	0	31060	
3102	0	31132	
3103	0	31170	
3104	0	31216	
3105	0	31240	
3106	0	31268	
3107	0	31256	
3108	0	31216	
3109	0	31200	
3110	0	31200	
3111	0	31196	
3112	0	31172	
3113	0	31144	
3114	0	31184	
3115	0	31168	
3116	0	31180	
3117	0	31160	
3118	0	31140	
3119	0	31156	
3120	0	31160	
3121	0	31128	
3122	0	31120	
3123	0	31124	
3124	0	31112	
3125	0	31116	
3126	0	31124	
3127	0	31112	
3128	0	31112	
3129	0	31120	
3130	0	31156	
3131	0	31200	
3132	0	31260	
3133	0	31300	
3134	0	31336	
3135	0	31386	
3136	0	31460	
3137	0	31504	
3138	0	31508	
3139	0	31492	
3140	0	31476	
3141	0	31488	
3142	0	31520	
3143	0	31528	
3144	0	31534	
3145	0	31548	
3146	0	31576	
3147	0	31600	
3148	0	31612	
3149	0	31660	
3150	0	31664	
3151	0	31692	
3152	0	31728	
3153	0	31780	
3154	0	31820	
3155	0	31872	
3156	0	31892	
3157	0	31908	
3158	0	31920	
3159	0	31896	
3160	0	31872	
3161	0	31868	
3162	0	31876	
3163	0	31896	
3164	0	31904	
3165	0	31930	
3166	0	31956	
3167	0	32004	
3168	0	32040	
3169	0	32092	
3170	0	32128	
3171	0	32144	
3172	0	32148	
3173	0	32168	
3174	0	32216	
3175	0	32236	
3176	0	32252	
3177	0	32264	
3178	0	32306	
3179	0	32360	
3180	0	32356	
3181	0	32328	
3182	0	32312	
3183	0	32312	
3184	0	32320	
3185	0	32308	
3186	0	32324	
3187	0	32352	
3188	0	32372	
3189	0	32396	
3190	0	32440	
3191	0	32480	
3192	0	32528	
3193	0	32584	
3194	0	32640	
3195	0	32688	
3196	0	32692	
3197	0	32740	
3198	0	32756	
3199	0	32772	
3200	0	32780	
3201	0	32764	
3202	0	32752	
3203	0	32736	
3204	0	32732	
3205	0	32756	
3206	0	32784	
3207	0	32816	
3208	0	32820	
3209	0	32848	
3210	0	32884	
3211	0	32920	
3212	0	32972	
3213	0	33036	
3214	0	33094	
3215	0	33144	
3216	0	33184	
3217	0	33216	
3218	0	33260	
3219	0	33276	
3220	0	33284	
3221	0	33304	
3222	0	33328	
3223	0	33332	
3224	0	33312	
3225	0	33292	
3226	0	33292	
3227	0	33316	
3228	0	33340	
3229	0	33372	
3230	0	33408	
3231	0	33464	
3232	0	33512	
3233	0	33560	
3234	0	33592	
3235	0	33604	
3236	0	33580	
3237	0	33564	
3238	0	33580	
3239	0	33568	
3240	0	33568	
3241	0	33566	
3242	0	33552	
3243	0	33556	
3244	0	33596	
3245	0	33656	
3246	0	33700	
3247	0	33744	
3248	0	33788	
3249	0	33804	
3250	0	33816	
3251	0	33880	
3252	0	33916	
3253	0	33964	
3254	0	33960	
3255	0	33952	
3256	0	33938	
3257	0	33916	
3258	0	33896	
3259	0	33924	
3260	0	33936	
3261	0	33944	
3262	0	33976	
3263	0	34000	
3264	0	34004	
3265	0	34030	
3266	0	34064	
3267	0	34080	
3268	0	34088	
3269	0	34104	
3270	0	34120	
3271	0	34164	
3272	0	34228	
3273	0	34292	
3274	0	34352	
3275	0	34368	
3276	0	34372	
3277	0	34376	
3278	0	34376	
3279	0	34392	
3280	0	34400	
3281	0	34390	
3282	0	34392	
3283	0	34392	
3284	0	34376	
3285	0	34348	
3286	0	34348	
3287	0	34380	
3288	0	34412	
3289	0	34456	
3290	0	34496	
3291	0	34528	
3292	0	34564	
3293	0	34596	
3294	0	34668	
3295	0	34708	
3296	0	34696	
3297	0	34636	
3298	0	34616	
3299	0	34620	
3300	0	34600	
3301	0	34580	
3302	0	34536	
3303	0	34496	
3304	0	34456	
3305	0	34416	
3306	0	34412	
3307	0	34400	
3308	0	34408	
3309	0	34424	
3310	0	34456	
3311	0	34480	
3312	0	34480	
3313	0	34460	
3314	0	34468	
3315	0	34488	
3316	0	34488	
3317	0	34474	
3318	0	34488	
3319	0	34480	
3320	0	34458	
3321	0	34444	
3322	0	34436	
3323	0	34436	
3324	0	34420	
3325	0	34392	
3326	0	34356	
3327	0	34352	
3328	0	34352	
3329	0	34352	
3330	0	34352	
3331	0	34360	
3332	0	34360	
3333	0	34388	
3334	0	34368	
3335	0	34316	
3336	0	34280	
3337	0	34240	
3338	0	34200	
3339	0	34140	
3340	0	34056	
3341	0	33956	
3342	0	33868	
3343	0	33774	
3344	0	33656	
3345	0	33576	
3346	0	33472	
3347	0	33404	
3348	0	33320	
3349	0	33256	
3350	0	33196	
3351	0	33120	
3352	0	33064	
3353	0	33012	
3354	0	32940	
3355	0	32848	
3356	0	32776	
3357	0	32712	
3358	0	32588	
3359	0	32492	
3360	0	32372	
3361	0	32244	
3362	0	32116	
3363	0	31986	
3364	0	31856	
3365	0	31760	
3366	0	31678	
3367	0	31584	
3368	0	31472	
3369	0	31388	
3370	0	31320	
3371	0	31236	
3372	0	31136	
3373	0	31072	
3374	0	31044	
3375	0	30996	
3376	0	30924	
3377	0	30874	
3378	0	30808	
3379	0	30752	
3380	0	30696	
3381	0	30628	
3382	0	30580	
3383	0	30528	
3384	0	30460	
3385	0	30428	
3386	0	30408	
3387	0	30392	
3388	0	30360	
3389	0	30304	
3390	0	30234	
3391	0	30176	
3392	0	30156	
3393	0	30140	
3394	0	30108	
3395	0	30100	
3396	0	30076	
3397	0	30072	
3398	0	30084	
3399	0	30076	
3400	0	30072	
3401	0	30076	
3402	0	30074	
3403	0	30036	
3404	0	30044	
3405	0	30080	
3406	0	30080	
3407	0	30064	
3408	0	30064	
3409	0	30092	
3410	0	30138	
3411	0	30184	
3412	0	30272	
3413	0	30328	
3414	0	30380	
3415	0	30408	
3416	0	30400	
3417	0	30400	
3418	0	30400	
3419	0	30410	
3420	0	30364	
3421	0	30352	
3422	0	30336	
3423	0	30312	
3424	0	30288	
3425	0	30276	
3426	0	30292	
3427	0	30324	
3428	0	30368	
3429	0	30376	
3430	0	30392	
3431	0	30400	
3432	0	30452	
3433	0	30512	
3434	0	30560	
3435	0	30616	
3436	0	30632	
3437	0	30640	
3438	0	30648	
3439	0	30676	
3440	0	30724	
3441	0	30752	
3442	0	30768	
3443	0	30768	
3444	0	30784	
3445	0	30824	
3446	0	30860	
3447	0	30912	
3448	0	30952	
3449	0	30992	
3450	0	31024	
3451	0	31076	
3452	0	31116	
3453	0	31136	
3454	0	31148	
3455	0	31152	
3456	0	31176	
3457	0	31208	
3458	0	31228	
3459	0	31248	
3460	0	31234	
3461	0	31248	
3462	0	31236	
3463	0	31242	
3464	0	31236	
3465	0	31252	
3466	0	31264	
3467	0	31268	
3468	0	31280	
3469	0	31312	
3470	0	31368	
3471	0	31416	
3472	0	31452	
3473	0	31472	
3474	0	31496	
3475	0	31508	
3476	0	31520	
3477	0	31508	
3478	0	31528	
3479	0	31536	
3480	0	31528	
3481	0	31540	
3482	0	31552	
3483	0	31544	
3484	0	31536	
3485	0	31528	
3486	0	31512	
3487	0	31508	
3488	0	31520	
3489	0	31544	
3490	0	31552	
3491	0	31592	
3492	0	31616	
3493	0	31616	
3494	0	31616	
3495	0	31640	
3496	0	31610	
3497	0	31600	
3498	0	31584	
3499	0	31552	
3500	0	31508	
3501	0	31432	
3502	0	31392	
3503	0	31352	
3504	0	31332	
3505	0	31372	
3506	0	31424	
3507	0	31468	
3508	0	31488	
3509	0	31516	
3510	0	31568	
3511	0	31608	
3512	0	31616	
3513	0	31612	
3514	0	31620	
3515	0	31604	
3516	0	31628	
3517	0	31642	
3518	0	31696	
3519	0	31708	
3520	0	31692	
3521	0	31660	
3522	0	31584	
3523	0	31576	
3524	0	31576	
3525	0	31552	
3526	0	31492	
3527	0	31464	
3528	0	31444	
3529	0	31448	
3530	0	31472	
3531	0	31476	
3532	0	31560	
3533	0	31604	
3534	0	31624	
3535	0	31664	
3536	0	31708	
3537	0	31724	
3538	0	31736	
3539	0	31736	
3540	0	31736	
3541	0	31752	
3542	0	31736	
3543	0	31752	
3544	0	31740	
3545	0	31720	
3546	0	31712	
3547	0	31716	
3548	0	31720	
3549	0	31736	
3550	0	31776	
3551	0	31844	
3552	0	31896	
3553	0	31928	
3554	0	31996	
3555	0	32024	
3556	0	32024	
3557	0	32072	
3558	0	32104	
3559	0	32132	
3560	0	32148	
3561	0	32176	
3562	0	32156	
3563	0	32144	
3564	0	32120	
3565	0	32092	
3566	0	32092	
3567	0	32064	
3568	0	32048	
3569	0	32068	
3570	0	32096	
3571	0	32096	
3572	0	32104	
3573	0	32092	
3574	0	32064	
3575	0	32096	
3576	0	32140	
3577	0	32200	
3578	0	32258	
3579	0	32324	
3580	0	32384	
3581	0	32464	
3582	0	32584	
3583	0	32704	
3584	0	32832	
3585	0	32980	
3586	0	33092	
3587	0	33200	
3588	0	33284	
3589	0	33344	
3590	0	33372	
3591	0	33432	
3592	0	33472	
3593	0	33508	
3594	0	33528	
3595	0	33516	
3596	0	33472	
3597	0	33408	
3598	0	33306	
3599	0	33186	
3600	0	33072	
3601	0	32956	
3602	0	32832	
3603	0	32700	
3604	0	32584	
3605	0	32482	
3606	0	32440	
3607	0	32416	
3608	0	32412	
3609	0	32404	
3610	0	32396	
3611	0	32376	
3612	0	32340	
3613	0	32356	
3614	0	32328	
3615	0	32304	
3616	0	32244	
3617	0	32232	
3618	0	32236	
3619	0	32232	
3620	0	32208	
3621	0	32208	
3622	0	32200	
3623	0	32140	
3624	0	32072	
3625	0	32012	
3626	0	32000	
3627	0	31988	
3628	0	31936	
3629	0	31856	
3630	0	31820	
3631	0	31796	
3632	0	31772	
3633	0	31724	
3634	0	31696	
3635	0	31658	
3636	0	31604	
3637	0	31552	
3638	0	31556	
3639	0	31552	
3640	0	31516	
3641	0	31472	
3642	0	31440	
3643	0	31412	
3644	0	31396	
3645	0	31432	
3646	0	31436	
3647	0	31424	
3648	0	31418	
3649	0	31412	
3650	0	31392	
3651	0	31412	
3652	0	31476	
3653	0	31552	
3654	0	31608	
3655	0	31656	
3656	0	31684	
3657	0	31694	
3658	0	31680	
3659	0	31636	
3660	0	31644	
3661	0	31672	
3662	0	31696	
3663	0	31708	
3664	0	31680	
3665	0	31664	
3666	0	31668	
3667	0	31664	
3668	0	31662	
3669	0	31660	
3670	0	31668	
3671	0	31680	
3672	0	31680	
3673	0	31676	
3674	0	31700	
3675	0	31724	
3676	0	31732	
3677	0	31760	
3678	0	31760	
3679	0	31740	
3680	0	31714	
3681	0	31696	
3682	0	31676	
3683	0	31684	
3684	0	31680	
3685	0	31688	
3686	0	31696	
3687	0	31684	
3688	0	31660	
3689	0	31636	
3690	0	31644	
3691	0	31680	
3692	0	31728	
3693	0	31756	
3694	0	31808	
3695	0	31848	
3696	0	31868	
3697	0	31900	
3698	0	31920	
3699	0	31970	
3700	0	31984	
3701	0	31964	
3702	0	31952	
3703	0	31952	
3704	0	31962	
3705	0	31976	
3706	0	32000	
3707	0	32008	
3708	0	32032	
3709	0	32072	
3710	0	32112	
3711	0	32192	
3712	0	32272	
3713	0	32312	
3714	0	32328	
3715	0	32344	
3716	0	32366	
3717	0	32392	
3718	0	32360	
3719	0	32296	
3720	0	32240	
3721	0	32184	
3722	0	32224	
3723	0	32396	
3724	0	32696	
3725	0	33024	
3726	0	33434	
3727	0	33788	
3728	0	34052	
3729	0	34280	
3730	0	34432	
3731	0	34532	
3732	0	34720	
3733	0	35112	
3734	0	35612	
3735	0	36208	
3736	0	37004	
3737	0	37996	
3738	0	39168	
3739	0	40376	
3740	0	41612	
3741	0	42928	
3742	0	44336	
3743	0	45784	
3744	0	47200	
3745	0	48456	
3746	0	49528	
3747	0	50496	
3748	0	51396	
3749	0	52416	
3750	0	53380	
3751	0	54096	
3752	0	54336	
3753	0	53712	
3754	0	52032	
3755	0	49392	
3756	0	46156	
3757	0	42622	
3758	0	39100	
3759	0	35904	
3760	0	33344	
3761	0	31512	
3762	0	30280	
3763	0	29484	
3764	0	29096	
3765	0	28976	
3766	0	28992	
3767	0	29060	
3768	0	29120	
3769	0	29284	
3770	0	29512	
3771	0	29736	
3772	0	29964	
3773	0	30216	
3774	0	30432	
3775	0	30596	
3776	0	30760	
3777	0	30944	
3778	0	31130	
3779	0	31288	
3780	0	31376	
3781	0	31452	
3782	0	31488	
3783	0	31486	
3784	0	31468	
3785	0	31436	
3786	0	31386	
3787	0	31304	
3788	0	31272	
3789	0	31206	
3790	0	31168	
3791	0	31136	
3792	0	31120	
3793	0	31104	
3794	0	31120	
3795	0	31124	
3796	0	31112	
3797	0	31120	
3798	0	31124	
3799	0	31124	
3800	0	31088	
3801	0	31048	
3802	0	31020	
3803	0	30980	
3804	0	30956	
3805	0	30932	
3806	0	30952	
3807	0	30976	
3808	0	31004	
3809	0	31048	
3810	0	31106	
3811	0	31144	
3812	0	31188	
3813	0	31218	
3814	0	31240	
3815	0	31252	
3816	0	31280	
3817	0	31328	
3818	0	31360	
3819	0	31368	
3820	0	31384	
3821	0	31392	
3822	0	31400	
3823	0	31348	
3824	0	31324	
3825	0	31340	
3826	0	31360	
3827	0	31392	
3828	0	31412	
3829	0	31440	
3830	0	31484	
3831	0	31552	
3832	0	31636	
3833	0	31672	
3834	0	31740	
3835	0	31802	
3836	0	31860	
3837	0	31888	
3838	0	31904	
3839	0	31912	
3840	0	31920	
3841	0	31936	
3842	0	31938	
3843	0	31936	
3844	0	31932	
3845	0	31932	
3846	0	31940	
3847	0	31964	
3848	0	31984	
3849	0	32064	
3850	0	32100	
3851	0	32160	
3852	0	32192	
3853	0	32228	
3854	0	32260	
3855	0	32276	
3856	0	32280	
3857	0	32340	
3858	0	32392	
3859	0	32412	
3860	0	32416	
3861	0	32452	
3862	0	32480	
3863	0	32504	
3864	0	32528	
3865	0	32560	
3866	0	32592	
3867	0	32632	
3868	0	32664	
3869	0	32680	
3870	0	32724	
3871	0	32776	
3872	0	32816	
3873	0	32828	
3874	0	32816	
3875	0	32816	
3876	0	32802	
3877	0	32800	
3878	0	32804	
3879	0	32800	
3880	0	32804	
3881	0	32784	
3882	0	32776	
3883	0	32772	
3884	0	32736	
3885	0	32704	
3886	0	32708	
3887	0	32712	
3888	0	32716	
3889	0	32736	
3890	0	32740	
3891	0	32776	
3892	0	32816	
3893	0	32844	
3894	0	32892	
3895	0	32920	
3896	0	32936	
3897	0	32940	
3898	0	32960	
3899	0	32978	
3900	0	32980	
3901	0	32940	
3902	0	32928	
3903	0	32920	
3904	0	32956	
3905	0	32984	
3906	0	33004	
3907	0	33014	
3908	0	33040	
3909	0	33080	
3910	0	33088	
3911	0	33116	
3912	0	33133	
3913	0	33184	
3914	0	33224	
3915	0	33264	
3916	0	33304	
3917	0	33276	
3918	0	33240	
3919	0	33248	
3920	0	33260	
3921	0	33296	
3922	0	33336	
3923	0	33356	
3924	0	33376	
3925	0	33404	
3926	0	33436	
3927	0	33464	
3928	0	33464	
3929	0	33488	
3930	0	33508	
3931	0	33544	
3932	0	33560	
3933	0	33600	
3934	0	33632	
3935	0	33648	
3936	0	33656	
3937	0	33656	
3938	0	33680	
3939	0	33684	
3940	0	33668	
3941	0	33666	
3942	0	33680	
3943	0	33664	
3944	0	33664	
3945	0	33696	
3946	0	33724	
3947	0	33746	
3948	0	33748	
3949	0	33772	
3950	0	33820	
3951	0	33886	
3952	0	33948	
3953	0	33988	
3954	0	34000	
3955	0	34028	
3956	0	34056	
3957	0	34084	
3958	0	34112	
3959	0	34116	
3960	0	34120	
3961	0	34100	
3962	0	34096	
3963	0	34120	
3964	0	34128	
3965	0	34112	
3966	0	34104	
3967	0	34096	
3968	0	34092	
3969	0	34096	
3970	0	34104	
3971	0	34096	
3972	0	34104	
3973	0	34124	
3974	0	34116	
3975	0	34104	
3976	0	34088	
3977	0	34080	
3978	0	34056	
3979	0	34076	
3980	0	34080	
3981	0	34080	
3982	0	34076	
3983	0	34068	
3984	0	34080	
3985	0	34112	
3986	0	34140	
3987	0	34140	
3988	0	34108	
3989	0	34120	
3990	0	34144	
3991	0	34196	
3992	0	34232	
3993	0	34268	
3994	0	34282	
3995	0	34304	
3996	0	34296	
3997	0	34288	
3998	0	34280	
3999	0	34272	
4000	0	34272	
4001	0	34284	
4002	0	34252	
4003	0	34224	
4004	0	34192	
4005	0	34168	
4006	0	34148	
4007	0	34152	
4008	0	34128	
4009	0	34104	
4010	0	34088	
4011	0	34084	
4012	0	34072	
4013	0	34048	
4014	0	34032	
4015	0	34008	
4016	0	33956	
4017	0	33896	
4018	0	33826	
4019	0	33744	
4020	0	33644	
4021	0	33548	
4022	0	33424	
4023	0	33284	
4024	0	33160	
4025	0	33068	
4026	0	32988	
4027	0	32900	
4028	0	32800	
4029	0	32696	
4030	0	32612	
4031	0	32524	
4032	0	32452	
4033	0	32384	
4034	0	32336	
4035	0	32256	
4036	0	32160	
4037	0	32088	
4038	0	32016	
4039	0	31896	
4040	0	31770	
4041	0	31648	
4042	0	31568	
4043	0	31484	
4044	0	31412	
4045	0	31336	
4046	0	31272	
4047	0	31212	
4048	0	31132	
4049	0	31096	
4050	0	31072	
4051	0	31052	
4052	0	31004	
4053	0	30960	
4054	0	30924	
4055	0	30872	
4056	0	30836	
4057	0	30800	
4058	0	30738	
4059	0	30688	
4060	0	30648	
4061	0	30582	
4062	0	30516	
4063	0	30440	
4064	0	30360	
4065	0	30328	
4066	0	30296	
4067	0	30272	
4068	0	30260	
4069	0	30252	
4070	0	30284	
4071	0	30300	
4072	0	30292	
4073	0	30304	
4074	0	30308	
4075	0	30308	
4076	0	30312	
4077	0	30300	
4078	0	30296	
4079	0	30288	
4080	0	30272	
4081	0	30252	
4082	0	30248	
4083	0	30266	
4084	0	30290	
4085	0	30304	
4086	0	30320	
4087	0	30344	
4088	0	30354	
4089	0	30370	
4090	0	30380	
4091	0	30396	
4092	0	30428	
4093	0	30466	
4094	0	30484	
4095	0	30500	
4096	0	30494	
4097	0	30508	
4098	0	30480	
4099	0	30456	
4100	0	30444	
4101	0	30488	
4102	0	30500	
4103	0	30508	
4104	0	30504	
4105	0	30516	
4106	0	30552	
4107	0	30600	
4108	0	30664	
4109	0	30736	
4110	0	30782	
4111	0	30844	
4112	0	30896	
4113	0	30928	
4114	0	30936	
4115	0	30992	
4116	0	31024	
4117	0	31040	
4118	0	31034	
4119	0	31052	
4120	0	31080	
4121	0	31096	
4122	0	31092	
4123	0	31104	
4124	0	31120	
4125	0	31144	
4126	0	31180	
4127	0	31232	
4128	0	31256	
4129	0	31290	
4130	0	31340	
4131	0	31376	
4132	0	31424	
4133	0	31468	
4134	0	31522	
4135	0	31552	
4136	0	31572	
4137	0	31588	
4138	0	31600	
4139	0	31624	
4140	0	31620	
4141	0	31608	
4142	0	31608	
4143	0	31592	
4144	0	31572	
4145	0	31568	
4146	0	31548	
4147	0	31528	
4148	0	31528	
4149	0	31536	
4150	0	31560	
4151	0	31616	
4152	0	31632	
4153	0	31660	
4154	0	31680	
4155	0	31700	
4156	0	31720	
4157	0	31730	
4158	0	31754	
4159	0	31736	
4160	0	31700	
4161	0	31680	
4162	0	31652	
4163	0	31640	
4164	0	31656	
4165	0	31664	
4166	0	31676	
4167	0	31688	
4168	0	31712	
4169	0	31712	
4170	0	31716	
4171	0	31764	
4172	0	31804	
4173	0	31828	
4174	0	31856	
4175	0	31872	
4176	0	31904	
4177	0	31912	
4178	0	31936	
4179	0	31932	
4180	0	31916	
4181	0	31896	
4182	0	31884	
4183	0	31858	
4184	0	31820	
4185	0	31804	
4186	0	31828	
4187	0	31824	
4188	0	31808	
4189	0	31792	
4190	0	31808	
4191	0	31844	
4192	0	31840	
4193	0	31844	
4194	0	31880	
4195	0	31904	
4196	0	31884	
4197	0	31884	
4198	0	31888	
4199	0	31876	
4200	0	31872	
4201	0	31848	
4202	0	31836	
4203	0	31824	
4204	0	31834	
4205	0	31820	
4206	0	31832	
4207	0	31808	
4208	0	31804	
4209	0	31822	
4210	0	31860	
4211	0	31872	
4212	0	31904	
4213	0	31948	
4214	0	31984	
4215	0	32000	
4216	0	32008	
4217	0	32048	
4218	0	32088	
4219	0	32120	
4220	0	32128	
4221	0	32132	
4222	0	32154	
4223	0	32228	
4224	0	32292	
4225	0	32328	
4226	0	32360	
4227	0	32440	
4228	0	32448	
4229	0	32432	
4230	0	32416	
4231	0	32420	
4232	0	32420	
4233	0	32440	
4234	0	32448	
4235	0	32432	
4236	0	32448	
4237	0	32468	
4238	0	32456	
4239	0	32424	
4240	0	32416	
4241	0	32408	
4242	0	32420	
4243	0	32416	
4244	0	32444	
4245	0	32544	
4246	0	32636	
4247	0	32748	
4248	0	32876	
4249	0	32984	
4250	0	33152	
4251	0	33296	
4252	0	33432	
4253	0	33592	
4254	0	33708	
4255	0	33808	
4256	0	33880	
4257	0	33888	
4258	0	33876	
4259	0	33896	
4260	0	33896	
4261	0	33876	
4262	0	33850	
4263	0	33784	
4264	0	33700	
4265	0	33632	
4266	0	33524	
4267	0	33412	
4268	0	33320	
4269	0	33224	
4270	0	33124	
4271	0	33024	
4272	0	32940	
4273	0	32840	
4274	0	32768	
4275	0	32716	
4276	0	32664	
4277	0	32648	
4278	0	32628	
4279	0	32588	
4280	0	32520	
4281	0	32420	
4282	0	32340	
4283	0	32292	
4284	0	32240	
4285	0	32198	
4286	0	32164	
4287	0	32158	
4288	0	32140	
4289	0	32152	
4290	0	32228	
4291	0	32282	
4292	0	32266	
4293	0	32228	
4294	0	32236	
4295	0	32236	
4296	0	32220	
4297	0	32216	
4298	0	32168	
4299	0	32088	
4300	0	32020	
4301	0	31964	
4302	0	31916	
4303	0	31876	
4304	0	31840	
4305	0	31848	
4306	0	31848	
4307	0	31844	
4308	0	31820	
4309	0	31808	
4310	0	31832	
4311	0	31864	
4312	0	31898	
4313	0	31936	
4314	0	31964	
4315	0	31956	
4316	0	31976	
4317	0	31952	
4318	0	31920	
4319	0	31872	
4320	0	31824	
4321	0	31802	
4322	0	31812	
4323	0	31794	
4324	0	31792	
4325	0	31780	
4326	0	31784	
4327	0	31800	
4328	0	31844	
4329	0	31880	
4330	0	31964	
4331	0	32028	
4332	0	32080	
4333	0	32148	
4334	0	32208	
4335	0	32196	
4336	0	32184	
4337	0	32192	
4338	0	32148	
4339	0	32104	
4340	0	32040	
4341	0	32008	
4342	0	31952	
4343	0	31936	
4344	0	31968	
4345	0	32012	
4346	0	32020	
4347	0	32000	
4348	0	32028	
4349	0	32040	
4350	0	32084	
4351	0	32100	
4352	0	32098	
4353	0	32108	
4354	0	32120	
4355	0	32140	
4356	0	32186	
4357	0	32188	
4358	0	32184	
4359	0	32178	
4360	0	32160	
4361	0	32144	
4362	0	32120	
4363	0	32108	
4364	0	32116	
4365	0	32128	
4366	0	32132	
4367	0	32152	
4368	0	32148	
4369	0	32152	
4370	0	32176	
4371	0	32240	
4372	0	32312	
4373	0	32360	
4374	0	32384	
4375	0	32364	
4376	0	32364	
4377	0	32400	
4378	0	32440	
4379	0	32504	
4380	0	32544	
4381	0	32564	
4382	0	32588	
4383	0	32568	
4384	0	32556	
4385	0	32568	
4386	0	32580	
4387	0	32608	
4388	0	32604	
4389	0	32616	
4390	0	32672	
4391	0	32856	
4392	0	33120	
4393	0	33456	
4394	0	33804	
4395	0	34124	
4396	0	34416	
4397	0	34684	
4398	0	34864	
4399	0	34952	
4400	0	35084	
4401	0	35344	
4402	0	35812	
4403	0	36436	
4404	0	37236	
4405	0	38168	
4406	0	39218	
4407	0	40348	
4408	0	41536	
4409	0	42784	
4410	0	44064	
4411	0	45356	
4412	0	46596	
4413	0	47712	
4414	0	48664	
4415	0	49472	
4416	0	50272	
4417	0	51232	
4418	0	52080	
4419	0	52644	
4420	0	52784	
4421	0	51856	
4422	0	49880	
4423	0	47060	
4424	0	43840	
4425	0	40504	
4426	0	37276	
4427	0	34520	
4428	0	32440	
4429	0	31004	
4430	0	30100	
4431	0	29620	
4432	0	29512	
4433	0	29592	
4434	0	29660	
4435	0	29684	
4436	0	29706	
4437	0	29828	
4438	0	29978	
4439	0	30132	
4440	0	30312	
4441	0	30464	
4442	0	30644	
4443	0	30872	
4444	0	31072	
4445	0	31264	
4446	0	31436	
4447	0	31580	
4448	0	31684	
4449	0	31772	
4450	0	31860	
4451	0	31884	
4452	0	31888	
4453	0	31864	
4454	0	31862	
4455	0	31832	
4456	0	31802	
4457	0	31780	
4458	0	31732	
4459	0	31694	
4460	0	31616	
4461	0	31578	
4462	0	31548	
4463	0	31560	
4464	0	31580	
4465	0	31592	
4466	0	31616	
4467	0	31612	
4468	0	31652	
4469	0	31688	
4470	0	31704	
4471	0	31754	
4472	0	31828	
4473	0	31876	
4474	0	31904	
4475	0	31900	
4476	0	31892	
4477	0	31864	
4478	0	31844	
4479	0	31824	
4480	0	31808	
4481	0	31776	
4482	0	31768	
4483	0	31792	
4484	0	31812	
4485	0	31840	
4486	0	31884	
4487	0	31912	
4488	0	31956	
4489	0	31988	
4490	0	32008	
4491	0	32012	
4492	0	31996	
4493	0	32032	
4494	0	32058	
4495	0	32064	
4496	0	32104	
4497	0	32092	
4498	0	32096	
4499	0	32096	
4500	0	32040	
4501	0	32016	
4502	0	32004	
4503	0	32020	
4504	0	32072	
4505	0	32120	
4506	0	32160	
4507	0	32192	
4508	0	32244	
4509	0	32288	
4510	0	32308	
4511	0	32352	
4512	0	32380	
4513	0	32408	
4514	0	32416	
4515	0	32392	
4516	0	32424	
4517	0	32508	
4518	0	32560	
4519	0	32612	
4520	0	32664	
4521	0	32676	
4522	0	32704	
4523	0	32728	
4524	0	32748	
4525	0	32768	
4526	0	32798	
4527	0	32780	
4528	0	32736	
4529	0	32712	
4530	0	32712	
4531	0	32704	
4532	0	32704	
4533	0	32716	
4534	0	32756	
4535	0	32760	
4536	0	32816	
4537	0	32864	
4538	0	32896	
4539	0	32928	
4540	0	32960	
4541	0	32996	
4542	0	33050	
4543	0	33048	
4544	0	33056	
4545	0	33064	
4546	0	33084	
4547	0	33136	
4548	0	33180	
4549	0	33218	
4550	0	33272	
4551	0	33296	
4552	0	33280	
4553	0	33268	
4554	0	33280	
4555	0	33312	
4556	0	33340	
4557	0	33352	
4558	0	33328	
4559	0	33340	
4560	0	33336	
4561	0	33338	
4562	0	33320	
4563	0	33332	
4564	0	33400	
4565	0	33428	
4566	0	33428	
4567	0	33436	
4568	0	33452	
4569	0	33498	
4570	0	33548	
4571	0	33600	
4572	0	33644	
4573	0	33688	
4574	0	33736	
4575	0	33748	
4576	0	33744	
4577	0	33756	
4578	0	33732	
4579	0	33720	
4580	0	33724	
4581	0	33720	
4582	0	33724	
4583	0	33728	
4584	0	33736	
4585	0	33760	
4586	0	33760	
4587	0	33788	
4588	0	33832	
4589	0	33886	
4590	0	33968	
4591	0	33992	
4592	0	34012	
4593	0	34012	
4594	0	34044	
4595	0	34082	
4596	0	34140	
4597	0	34196	
4598	0	34240	
4599	0	34244	
4600	0	34248	
4601	0	34240	
4602	0	34228	
4603	0	34224	
4604	0	34232	
4605	0	34292	
4606	0	34336	
4607	0	34360	
4608	0	34404	
4609	0	34452	
4610	0	34492	
4611	0	34540	
4612	0	34576	
4613	0	34652	
4614	0	34684	
4615	0	34672	
4616	0	34656	
4617	0	34632	
4618	0	34640	
4619	0	34648	
4620	0	34640	
4621	0	34624	
4622	0	34616	
4623	0	34636	
4624	0	34652	
4625	0	34636	
4626	0	34616	
4627	0	34660	
4628	0	34748	
4629	0	34776	
4630	0	34832	
4631	0	34876	
4632	0	34888	
4633	0	34912	
4634	0	34924	
4635	0	34928	
4636	0	34928	
4637	0	34920	
4638	0	34912	
4639	0	34928	
4640	0	34920	
4641	0	34916	
4642	0	34896	
4643	0	34880	
4644	0	34856	
4645	0	34844	
4646	0	34852	
4647	0	34856	
4648	0	34852	
4649	0	34848	
4650	0	34892	
4651	0	34920	
4652	0	34936	
4653	0	34968	
4654	0	35016	
4655	0	35068	
4656	0	35096	
4657	0	35108	
4658	0	35116	
4659	0	35108	
4660	0	35124	
4661	0	35128	
4662	0	35092	
4663	0	35056	
4664	0	35040	
4665	0	34984	
4666	0	34928	
4667	0	34904	
4668	0	34940	
4669	0	34952	
4670	0	34928	
4671	0	34848	
4672	0	34812	
4673	0	34778	
4674	0	34708	
4675	0	34644	
4676	0	34588	
4677	0	34560	
4678	0	34564	
4679	0	34536	
4680	0	34492	
4681	0	34424	
4682	0	34336	
4683	0	34272	
4684	0	34236	
4685	0	34212	
4686	0	34172	
4687	0	34120	
4688	0	34036	
4689	0	33976	
4690	0	33890	
4691	0	33816	
4692	0	33696	
4693	0	33592	
4694	0	33504	
4695	0	33392	
4696	0	33272	
4697	0	33120	
4698	0	32952	
4699	0	32864	
4700	0	32776	
4701	0	32696	
4702	0	32594	
4703	0	32464	
4704	0	32296	
4705	0	32184	
4706	0	32108	
4707	0	32036	
4708	0	31960	
4709	0	31872	
4710	0	31808	
4711	0	31720	
4712	0	31644	
4713	0	31560	
4714	0	31432	
4715	0	31356	
4716	0	31292	
4717	0	31184	
4718	0	31088	
4719	0	30988	
4720	0	30908	
4721	0	30884	
4722	0	30848	
4723	0	30788	
4724	0	30740	
4725	0	30716	
4726	0	30644	
4727	0	30604	
4728	0	30572	
4729	0	30506	
4730	0	30448	
4731	0	30432	
4732	0	30396	
4733	0	30340	
4734	0	30296	
4735	0	30240	
4736	0	30212	
4737	0	30176	
4738	0	30140	
4739	0	30120	
4740	0	30136	
4741	0	30172	
4742	0	30144	
4743	0	30124	
4744	0	30112	
4745	0	30152	
4746	0	30216	
4747	0	30292	
4748	0	30338	
4749	0	30344	
4750	0	30384	
4751	0	30456	
4752	0	30472	
4753	0	30440	
4754	0	30380	
4755	0	30356	
4756	0	30408	
4757	0	30416	
4758	0	30412	
4759	0	30396	
4760	0	30356	
4761	0	30328	
4762	0	30300	
4763	0	30232	
4764	0	30164	
4765	0	30162	
4766	0	30180	
4767	0	30216	
4768	0	30212	
4769	0	30188	
4770	0	30222	
4771	0	30296	
4772	0	30360	
4773	0	30444	
4774	0	30548	
4775	0	30606	
4776	0	30688	
4777	0	30732	
4778	0	30712	
4779	0	30708	
4780	0	30668	
4781	0	30624	
4782	0	30640	
4783	0	30640	
4784	0	30660	
4785	0	30672	
4786	0	30720	
4787	0	30752	
4788	0	30752	
4789	0	30764	
4790	0	30804	
4791	0	30860	
4792	0	30912	
4793	0	31000	
4794	0	31056	
4795	0	31088	
4796	0	31128	
4797	0	31152	
4798	0	31196	
4799	0	31208	
4800	0	31196	
4801	0	31200	
4802	0	31224	
4803	0	31248	
4804	0	31212	
4805	0	31148	
4806	0	31116	
4807	0	31088	
4808	0	31084	
4809	0	31132	
4810	0	31200	
4811	0	31260	
4812	0	31312	
4813	0	31332	
4814	0	31344	
4815	0	31396	
4816	0	31448	
4817	0	31496	
4818	0	31568	
4819	0	31612	
4820	0	31616	
4821	0	31580	
4822	0	31540	
4823	0	31538	
4824	0	31504	
4825	0	31540	
4826	0	31580	
4827	0	31656	
4828	0	31696	
4829	0	31740	
4830	0	31744	
4831	0	31744	
4832	0	31716	
4833	0	31712	
4834	0	31748	
4835	0	31756	
4836	0	31792	
4837	0	31860	
4838	0	31872	
4839	0	31842	
4840	0	31816	
4841	0	31816	
4842	0	31808	
4843	0	31800	
4844	0	31808	
4845	0	31764	
4846	0	31754	
4847	0	31778	
4848	0	31764	
4849	0	31728	
4850	0	31752	
4851	0	31752	
4852	0	31736	
4853	0	31756	
4854	0	31808	
4855	0	31852	
4856	0	31892	
4857	0	31894	
4858	0	31896	
4859	0	31924	
4860	0	31880	
4861	0	31852	
4862	0	31800	
4863	0	31760	
4864	0	31706	
4865	0	31680	
4866	0	31650	
4867	0	31624	
4868	0	31620	
4869	0	31668	
4870	0	31732	
4871	0	31792	
4872	0	31816	
4873	0	31808	
4874	0	31832	
4875	0	31898	
4876	0	31928	
4877	0	31984	
4878	0	32056	
4879	0	32068	
4880	0	32100	
4881	0	32092	
4882	0	32068	
4883	0	32008	
4884	0	31944	
4885	0	31938	
4886	0	31956	
4887	0	31912	
4888	0	31880	
4889	0	31878	
4890	0	31896	
4891	0	31912	
4892	0	31960	
4893	0	31976	
4894	0	31968	
4895	0	31940	
4896	0	31916	
4897	0	31888	
4898	0	31892	
4899	0	31904	
4900	0	31920	
4901	0	31972	
4902	0	32004	
4903	0	32020	
4904	0	32032	
4905	0	32064	
4906	0	32100	
4907	0	32128	
4908	0	32132	
4909	0	32064	
4910	0	32064	
4911	0	32064	
4912	0	32070	
4913	0	32094	
4914	0	32100	
4915	0	32112	
4916	0	32132	
4917	0	32120	
4918	0	32080	
4919	0	32072	
4920	0	32082	
4921	0	32096	
4922	0	32112	
4923	0	32176	
4924	0	32252	
4925	0	32348	
4926	0	32436	
4927	0	32472	
4928	0	32496	
4929	0	32506	
4930	0	32493	
4931	0	32496	
4932	0	32488	
4933	0	32480	
4934	0	32480	
4935	0	32492	
4936	0	32490	
4937	0	32488	
4938	0	32472	
4939	0	32456	
4940	0	32416	
4941	0	32412	
4942	0	32448	
4943	0	32516	
4944	0	32628	
4945	0	32720	
4946	0	32864	
4947	0	33012	
4948	0	33170	
4949	0	33284	
4950	0	33418	
4951	0	33548	
4952	0	33648	
4953	0	33732	
4954	0	33808	
4955	0	33832	
4956	0	33834	
4957	0	33796	
4958	0	33816	
4959	0	33784	
4960	0	33756	
4961	0	33734	
4962	0	33722	
4963	0	33688	
4964	0	33584	
4965	0	33488	
4966	0	33456	
4967	0	33468	
4968	0	33456	
4969	0	33380	
4970	0	33308	
4971	0	33232	
4972	0	33184	
4973	0	33108	
4974	0	33034	
4975	0	32936	
4976	0	32860	
4977	0	32780	
4978	0	32736	
4979	0	32684	
4980	0	32592	
4981	0	32536	
4982	0	32496	
4983	0	32484	
4984	0	32516	
4985	0	32504	
4986	0	32520	
4987	0	32512	
4988	0	32516	
4989	0	32472	
4990	0	32460	
4991	0	32464	
4992	0	32480	
4993	0	32496	
4994	0	32504	
4995	0	32420	
4996	0	32372	
4997	0	32346	
4998	0	32308	
4999	0	32284	
5000	0	32220	
5001	0	32144	
5002	0	32080	
5003	0	32024	
5004	0	31976	
5005	0	31936	
5006	0	31890	
5007	0	31828	
5008	0	31752	
5009	0	31692	
5010	0	31654	
5011	0	31696	
5012	0	31760	
5013	0	31828	
5014	0	31892	
5015	0	31928	
5016	0	31936	
5017	0	31936	
5018	0	31952	
5019	0	31952	
5020	0	31948	
5021	0	31936	
5022	0	31944	
5023	0	31912	
5024	0	31920	
5025	0	31960	
5026	0	31992	
5027	0	32008	
5028	0	31988	
5029	0	32008	
5030	0	32016	
5031	0	32008	
5032	0	32016	
5033	0	31992	
5034	0	32000	
5035	0	32026	
5036	0	32032	
5037	0	31988	
5038	0	31924	
5039	0	31896	
5040	0	31872	
5041	0	31864	
5042	0	31884	
5043	0	31872	
5044	0	31860	
5045	0	31864	
5046	0	31888	
5047	0	31952	
5048	0	31984	
5049	0	32040	
5050	0	32092	
5051	0	32104	
5052	0	32144	
5053	0	32176	
5054	0	32200	
5055	0	32224	
5056	0	32272	
5057	0	32284	
5058	0	32298	
5059	0	32292	
5060	0	32256	
5061	0	32228	
5062	0	32260	
5063	0	32240	
5064	0	32232	
5065	0	32232	
5066	0	32252	
5067	0	32280	
5068	0	32290	
5069	0	32292	
5070	0	32288	
5071	0	32306	
5072	0	32304	
5073	0	32264	
5074	0	32252	
5075	0	32296	
5076	0	32348	
5077	0	32420	
5078	0	32490	
5079	0	32532	
5080	0	32544	
5081	0	32540	
5082	0	32500	
5083	0	32452	
5084	0	32392	
5085	0	32292	
5086	0	32256	
5087	0	32232	
5088	0	32292	
5089	0	32584	
5090	0	32972	
5091	0	33336	
5092	0	33720	
5093	0	34096	
5094	0	34400	
5095	0	34520	
5096	0	34640	
5097	0	34812	
5098	0	35104	
5099	0	35488	
5100	0	36004	
5101	0	36620	
5102	0	37508	
5103	0	38544	
5104	0	39812	
5105	0	41140	
5106	0	42488	
5107	0	43932	
5108	0	45416	
5109	0	46920	
5110	0	48380	
5111	0	49696	
5112	0	50792	
5113	0	51824	
5114	0	52848	
5115	0	53912	
5116	0	54824	
5117	0	55324	
5118	0	55128	
5119	0	53960	
5120	0	51696	
5121	0	48584	
5122	0	45096	
5123	0	41516	
5124	0	38076	
5125	0	35076	
5126	0	32708	
5127	0	31068	
5128	0	29944	
5129	0	29224	
5130	0	28824	
5131	0	28636	
5132	0	28628	
5133	0	28768	
5134	0	29000	
5135	0	29308	
5136	0	29592	
5137	0	29880	
5138	0	30140	
5139	0	30382	
5140	0	30600	
5141	0	30812	
5142	0	30984	
5143	0	31120	
5144	0	31252	
5145	0	31352	
5146	0	31436	
5147	0	31508	
5148	0	31512	
5149	0	31520	
5150	0	31512	
5151	0	31516	
5152	0	31530	
5153	0	31512	
5154	0	31492	
5155	0	31440	
5156	0	31404	
5157	0	31372	
5158	0	31332	
5159	0	31296	
5160	0	31292	
5161	0	31244	
5162	0	31216	
5163	0	31188	
5164	0	31204	
5165	0	31252	
5166	0	31296	
5167	0	31332	
5168	0	31360	
5169	0	31376	
5170	0	31388	
5171	0	31440	
5172	0	31488	
5173	0	31528	
5174	0	31588	
5175	0	31628	
5176	0	31668	
5177	0	31684	
5178	0	31704	
5179	0	31686	
5180	0	31664	
5181	0	31688	
5182	0	31732	
5183	0	31804	
5184	0	31828	
5185	0	31868	
5186	0	31892	
5187	0	31880	
5188	0	31896	
5189	0	31912	
5190	0	31940	
5191	0	31984	
5192	0	32040	
5193	0	32088	
5194	0	32098	
5195	0	32100	
5196	0	32144	
5197	0	32208	
5198	0	32264	
5199	0	32284	
5200	0	32300	
5201	0	32324	
5202	0	32336	
5203	0	32360	
5204	0	32344	
5205	0	32328	
5206	0	32376	
5207	0	32400	
5208	0	32412	
5209	0	32432	
5210	0	32512	
5211	0	32600	
5212	0	32660	
5213	0	32680	
5214	0	32676	
5215	0	32668	
5216	0	32692	
5217	0	32712	
5218	0	32740	
5219	0	32756	
5220	0	32757	
5221	0	32752	
5222	0	32736	
5223	0	32716	
5224	0	32676	
5225	0	32652	
5226	0	32648	
5227	0	32664	
5228	0	32720	
5229	0	32776	
5230	0	32848	
5231	0	32885	
5232	0	32904	
5233	0	32924	
5234	0	32930	
5235	0	32908	
5236	0	32880	
5237	0	32864	
5238	0	32872	
5239	0	32928	
5240	0	32984	
5241	0	32980	
5242	0	32960	
5243	0	32954	
5244	0	32952	
5245	0	32964	
5246	0	33000	
5247	0	33044	
5248	0	33104	
5249	0	33176	
5250	0	33244	
5251	0	33320	
5252	0	33340	
5253	0	33364	
5254	0	33432	
5255	0	33460	
5256	0	33448	
5257	0	33472	
5258	0	33492	
5259	0	33548	
5260	0	33576	
5261	0	33608	
5262	0	33620	
5263	0	33612	
5264	0	33620	
5265	0	33612	
5266	0	33624	
5267	0	33660	
5268	0	33700	
5269	0	33756	
5270	0	33792	
5271	0	33848	
5272	0	33904	
5273	0	33956	
5274	0	33968	
5275	0	33976	
5276	0	34000	
5277	0	34016	
5278	0	34032	
5279	0	34064	
5280	0	34060	
5281	0	34052	
5282	0	34052	
5283	0	34028	
5284	0	34000	
5285	0	33988	
5286	0	33980	
5287	0	33980	
5288	0	34000	
5289	0	34024	
5290	0	34072	
5291	0	34124	
5292	0	34200	
5293	0	34236	
5294	0	34256	
5295	0	34232	
5296	0	34228	
5297	0	34256	
5298	0	34280	
5299	0	34272	
5300	0	34240	
5301	0	34210	
5302	0	34192	
5303	0	34176	
5304	0	34192	
5305	0	34228	
5306	0	34236	
5307	0	34272	
5308	0	34288	
5309	0	34296	
5310	0	34328	
5311	0	34396	
5312	0	34464	
5313	0	34504	
5314	0	34512	
5315	0	34522	
5316	0	34564	
5317	0	34624	
5318	0	34668	
5319	0	34660	
5320	0	34628	
5321	0	34596	
5322	0	34592	
5323	0	34608	
5324	0	34644	
5325	0	34656	
5326	0	34660	
5327	0	34660	
5328	0	34632	
5329	0	34624	
5330	0	34636	
5331	0	34656	
5332	0	34688	
5333	0	34700	
5334	0	34696	
5335	0	34696	
5336	0	34700	
5337	0	34724	
5338	0	34736	
5339	0	34728	
5340	0	34724	
5341	0	34712	
5342	0	34656	
5343	0	34640	
5344	0	34632	
5345	0	34660	
5346	0	34668	
5347	0	34688	
5348	0	34736	
5349	0	34792	
5350	0	34820	
5351	0	34844	
5352	0	34836	
5353	0	34768	
5354	0	34696	
5355	0	34704	
5356	0	34768	
5357	0	34792	
5358	0	34808	
5359	0	34860	
5360	0	34872	
5361	0	34876	
5362	0	34880	
5363	0	34876	
5364	0	34864	
5365	0	34840	
5366	0	34864	
5367	0	34856	
5368	0	34832	
5369	0	34824	
5370	0	34780	
5371	0	34764	
5372	0	34768	
5373	0	34746	
5374	0	34712	
5375	0	34688	
5376	0	34648	
5377	0	34608	
5378	0	34532	
5379	0	34480	
5380	0	34396	
5381	0	34296	
5382	0	34204	
5383	0	34140	
5384	0	34088	
5385	0	34028	
5386	0	33960	
5387	0	33872	
5388	0	33780	
5389	0	33698	
5390	0	33640	
5391	0	33588	
5392	0	33492	
5393	0	33428	
5394	0	33356	
5395	0	33264	
5396	0	33144	
5397	0	33020	
5398	0	32912	
5399	0	32792	
5400	0	32656	
5401	0	32512	
5402	0	32384	
5403	0	32272	
5404	0	32140	
5405	0	31992	
5406	0	31880	
5407	0	31824	
5408	0	31776	
5409	0	31736	
5410	0	31672	
5411	0	31618	
5412	0	31552	
5413	0	31492	
5414	0	31424	
5415	0	31382	
5416	0	31336	
5417	0	31296	
5418	0	31220	
5419	0	31160	
5420	0	31060	
5421	0	31000	
5422	0	30944	
5423	0	30884	
5424	0	30800	
5425	0	30736	
5426	0	30688	
5427	0	30612	
5428	0	30536	
5429	0	30512	
5430	0	30520	
5431	0	30524	
5432	0	30532	
5433	0	30548	
5434	0	30536	
5435	0	30512	
5436	0	30464	
5437	0	30432	
5438	0	30400	
5439	0	30368	
5440	0	30344	
5441	0	30336	
5442	0	30324	
5443	0	30312	
5444	0	30304	
5445	0	30312	
5446	0	30328	
5447	0	30324	
5448	0	30308	
5449	0	30304	
5450	0	30304	
5451	0	30324	
5452	0	30336	
5453	0	30370	
5454	0	30396	
5455	0	30464	
5456	0	30516	
5457	0	30544	
5458	0	30580	
5459	0	30626	
5460	0	30620	
5461	0	30624	
5462	0	30592	
5463	0	30576	
5464	0	30544	
5465	0	30536	
5466	0	30504	
5467	0	30516	
5468	0	30586	
5469	0	30680	
5470	0	30752	
5471	0	30816	
5472	0	30872	
5473	0	30984	
5474	0	31044	
5475	0	31060	
5476	0	31060	
5477	0	31052	
5478	0	31080	
5479	0	31088	
5480	0	31076	
5481	0	31088	
5482	0	31080	
5483	0	31080	
5484	0	31084	
5485	0	31076	
5486	0	31096	
5487	0	31108	
5488	0	31140	
5489	0	31162	
5490	0	31194	
5491	0	31260	
5492	0	31324	
5493	0	31374	
5494	0	31400	
5495	0	31416	
5496	0	31412	
5497	0	31392	
5498	0	31368	
5499	0	31360	
5500	0	31368	
5501	0	31360	
5502	0	31357	
5503	0	31356	
5504	0	31384	
5505	0	31444	
5506	0	31480	
5507	0	31492	
5508	0	31528	
5509	0	31560	
5510	0	31620	
5511	0	31660	
5512	0	31728	
5513	0	31804	
5514	0	31844	
5515	0	31836	
5516	0	31820	
5517	0	31834	
5518	0	31812	
5519	0	31832	
5520	0	31836	
5521	0	31840	
5522	0	31836	
5523	0	31802	
5524	0	31806	
5525	0	31808	
5526	0	31804	
5527	0	31778	
5528	0	31714	
5529	0	31700	
5530	0	31716	
5531	0	31748	
5532	0	31792	
5533	0	31840	
5534	0	31888	
5535	0	31916	
5536	0	31928	
5537	0	31952	
5538	0	31988	
5539	0	32016	
5540	0	32008	
5541	0	31984	
5542	0	31960	
5543	0	31936	
5544	0	31936	
5545	0	31952	
5546	0	31968	
5547	0	31960	
5548	0	32016	
5549	0	32042	
5550	0	32040	
5551	0	32088	
5552	0	32124	
5553	0	32122	
5554	0	32126	
5555	0	32120	
5556	0	32080	
5557	0	32052	
5558	0	32004	
5559	0	31962	
5560	0	31944	
5561	0	31900	
5562	0	31876	
5563	0	31860	
5564	0	31860	
5565	0	31888	
5566	0	31900	
5567	0	31880	
5568	0	31872	
5569	0	31896	
5570	0	31920	
5571	0	31956	
5572	0	32012	
5573	0	32050	
5574	0	32058	
5575	0	32024	
5576	0	32000	
5577	0	31968	
5578	0	31968	
5579	0	31980	
5580	0	31986	
5581	0	31968	
5582	0	31952	
5583	0	31932	
5584	0	31944	
5585	0	31952	
5586	0	31984	
5587	0	31992	
5588	0	32000	
5589	0	32016	
5590	0	32024	
5591	0	32020	
5592	0	32044	
5593	0	32068	
5594	0	32052	
5595	0	32072	
5596	0	32044	
5597	0	32012	
5598	0	32000	
5599	0	32008	
5600	0	32000	
5601	0	31992	
5602	0	31976	
5603	0	32016	
5604	0	32038	
5605	0	32060	
5606	0	32096	
5607	0	32136	
5608	0	32188	
5609	0	32226	
5610	0	32252	
5611	0	32296	
5612	0	32380	
5613	0	32452	
5614	0	32514	
5615	0	32560	
5616	0	32572	
5617	0	32552	
5618	0	32536	
5619	0	32480	
5620	0	32420	
5621	0	32412	
5622	0	32396	
5623	0	32384	
5624	0	32396	
5625	0	32432	
5626	0	32464	
5627	0	32484	
5628	0	32504	
5629	0	32532	
5630	0	32592	
5631	0	32676	
5632	0	32768	
5633	0	32920	
5634	0	33076	
5635	0	33204	
5636	0	33306	
5637	0	33388	
5638	0	33476	
5639	0	33572	
5640	0	33600	
5641	0	33620	
5642	0	33640	
5643	0	33632	
5644	0	33640	
5645	0	33640	
5646	0	33632	
5647	0	33696	
5648	0	33744	
5649	0	33788	
5650	0	33776	
5651	0	33768	
5652	0	33748	
5653	0	33680	
5654	0	33616	
5655	0	33536	
5656	0	33452	
5657	0	33390	
5658	0	33304	
5659	0	33196	
5660	0	33104	
5661	0	33024	
5662	0	32968	
5663	0	32922	
5664	0	32884	
5665	0	32888	
5666	0	32874	
5667	0	32864	
5668	0	32856	
5669	0	32844	
5670	0	32828	
5671	0	32816	
5672	0	32796	
5673	0	32786	
5674	0	32776	
5675	0	32760	
5676	0	32736	
5677	0	32756	
5678	0	32808	
5679	0	32840	
5680	0	32832	
5681	0	32780	
5682	0	32736	
5683	0	32672	
5684	0	32568	
5685	0	32488	
5686	0	32428	
5687	0	32376	
5688	0	32316	
5689	0	32320	
5690	0	32296	
5691	0	32244	
5692	0	32192	
5693	0	32176	
5694	0	32176	
5695	0	32140	
5696	0	32104	
5697	0	32104	
5698	0	32112	
5699	0	32128	
5700	0	32128	
5701	0	32080	
5702	0	32068	
5703	0	32052	
5704	0	32020	
5705	0	31992	
5706	0	31972	
5707	0	31976	
5708	0	32012	
5709	0	32020	
5710	0	32032	
5711	0	32072	
5712	0	32096	
5713	0	32120	
5714	0	32152	
5715	0	32176	
5716	0	32208	
5717	0	32232	
5718	0	32264	
5719	0	32264	
5720	0	32260	
5721	0	32288	
5722	0	32298	
5723	0	32312	
5724	0	32332	
5725	0	32344	
5726	0	32332	
5727	0	32328	
5728	0	32328	
5729	0	32324	
5730	0	32356	
5731	0	32404	
5732	0	32444	
5733	0	32464	
5734	0	32460	
5735	0	32464	
5736	0	32460	
5737	0	32464	
5738	0	32476	
5739	0	32448	
5740	0	32452	
5741	0	32476	
5742	0	32512	
5743	0	32540	
5744	0	32544	
5745	0	32548	
5746	0	32552	
5747	0	32572	
5748	0	32592	
5749	0	32628	
5750	0	32640	
5751	0	32636	
5752	0	32632	
5753	0	32624	
5754	0	32624	
5755	0	32608	
5756	0	32612	
5757	0	32612	
5758	0	32628	
5759	0	32628	
5760	0	32608	
5761	0	32624	
5762	0	32628	
5763	0	32644	
5764	0	32676	
5765	0	32740	
5766	0	32794	
5767	0	32832	
5768	0	32884	
5769	0	32916	
5770	0	32920	
5771	0	32928	
5772	0	32936	
5773	0	32908	
5774	0	32860	
5775	0	32816	
5776	0	32808	
5777	0	32860	
5778	0	33084	
5779	0	33416	
5780	0	33736	
5781	0	34064	
5782	0	34408	
5783	0	34664	
5784	0	34880	
5785	0	35024	
5786	0	35136	
5787	0	35272	
5788	0	35568	
5789	0	36056	
5790	0	36690	
5791	0	37496	
5792	0	38456	
5793	0	39564	
5794	0	40812	
5795	0	42092	
5796	0	43452	
5797	0	44904	
5798	0	46420	
5799	0	47924	
5800	0	49328	
5801	0	50512	
5802	0	51484	
5803	0	52328	
5804	0	53312	
5805	0	54300	
5806	0	55000	
5807	0	55312	
5808	0	54808	
5809	0	53264	
5810	0	50708	
5811	0	47460	
5812	0	43928	
5813	0	40376	
5814	0	37068	
5815	0	34304	
5816	0	32304	
5817	0	30984	
5818	0	30144	
5819	0	29692	
5820	0	29470	
5821	0	29384	
5822	0	29384	
5823	0	29444	
5824	0	29592	
5825	0	29802	
5826	0	30020	
5827	0	30240	
5828	0	30452	
5829	0	30708	
5830	0	30908	
5831	0	31104	
5832	0	31290	
5833	0	31460	
5834	0	31600	
5835	0	31724	
5836	0	31816	
5837	0	31872	
5838	0	31912	
5839	0	31908	
5840	0	31872	
5841	0	31840	
5842	0	31792	
5843	0	31732	
5844	0	31672	
5845	0	31616	
5846	0	31548	
5847	0	31524	
5848	0	31536	
5849	0	31544	
5850	0	31572	
5851	0	31584	
5852	0	31592	
5853	0	31604	
5854	0	31612	
5855	0	31632	
5856	0	31668	
5857	0	31696	
5858	0	31724	
5859	0	31724	
5860	0	31712	
5861	0	31736	
5862	0	31772	
5863	0	31792	
5864	0	31828	
5865	0	31884	
5866	0	31912	
5867	0	31924	
5868	0	31920	
5869	0	31940	
5870	0	31960	
5871	0	32024	
5872	0	32076	
5873	0	32096	
5874	0	32104	
5875	0	32116	
5876	0	32100	
5877	0	32112	
5878	0	32152	
5879	0	32160	
5880	0	32144	
5881	0	32132	
5882	0	32120	
5883	0	32120	
5884	0	32124	
5885	0	32160	
5886	0	32196	
5887	0	32228	
5888	0	32240	
5889	0	32256	
5890	0	32272	
5891	0	32290	
5892	0	32316	
5893	0	32348	
5894	0	32416	
5895	0	32432	
5896	0	32448	
5897	0	32476	
5898	0	32492	
5899	0	32508	
5900	0	32536	
5901	0	32560	
5902	0	32570	
5903	0	32588	
5904	0	32612	
5905	0	32664	
5906	0	32704	
5907	0	32720	
5908	0	32732	
5909	0	32736	
5910	0	32752	
5911	0	32788	
5912	0	32824	
5913	0	32876	
5914	0	32928	
5915	0	32978	
5916	0	33008	
5917	0	33024	
5918	0	33088	
5919	0	33132	
5920	0	33160	
5921	0	33160	
5922	0	33192	
5923	0	33236	
5924	0	33276	
5925	0	33280	
5926	0	33308	
5927	0	33324	
5928	0	33334	
5929	0	33312	
5930	0	33312	
5931	0	33312	
5932	0	33320	
5933	0	33332	
5934	0	33340	
5935	0	33312	
5936	0	33312	
5937	0	33324	
5938	0	33332	
5939	0	33344	
5940	0	33344	
5941	0	33348	
5942	0	33340	
5943	0	33344	
5944	0	33376	
5945	0	33428	
5946	0	33448	
5947	0	33486	
5948	0	33516	
5949	0	33562	
5950	0	33584	
5951	0	33608	
5952	0	33640	
5953	0	33688	
5954	0	33714	
5955	0	33728	
5956	0	33760	
5957	0	33776	
5958	0	33764	
5959	0	33776	
5960	0	33800	
5961	0	33832	
5962	0	33844	
5963	0	33852	
5964	0	33856	
5965	0	33864	
5966	0	33848	
5967	0	33852	
5968	0	33888	
5969	0	33932	
5970	0	33966	
5971	0	33976	
5972	0	34020	
5973	0	34050	
5974	0	34058	
5975	0	34096	
5976	0	34128	
5977	0	34164	
5978	0	34128	
5979	0	34104	
5980	0	34106	
5981	0	34112	
5982	0	34104	
5983	0	34100	
5984	0	34096	
5985	0	34117	
5986	0	34144	
5987	0	34156	
5988	0	34164	
5989	0	34188	
5990	0	34236	
5991	0	34276	
5992	0	34332	
5993	0	34376	
5994	0	34400	
5995	0	34432	
5996	0	34452	
5997	0	34450	
5998	0	34476	
5999	0	34480	
6000	0	34480	
6001	0	34480	
6002	0	34488	
6003	0	34508	
6004	0	34528	
6005	0	34544	
6006	0	34588	
6007	0	34600	
6008	0	34608	
6009	0	34656	
6010	0	34688	
6011	0	34736	
6012	0	34752	
6013	0	34796	
6014	0	34826	
6015	0	34836	
6016	0	34808	
6017	0	34832	
6018	0	34828	
6019	0	34824	
6020	0	34824	
6021	0	34864	
6022	0	34876	
6023	0	34892	
6024	0	34892	
6025	0	34908	
6026	0	34900	
6027	0	34900	
6028	0	34916	
6029	0	34940	
6030	0	34976	
6031	0	35040	
6032	0	35060	
6033	0	35088	
6034	0	35108	
6035	0	35132	
6036	0	35146	
6037	0	35160	
6038	0	35184	
6039	0	35188	
6040	0	35180	
6041	0	35188	
6042	0	35188	
6043	0	35176	
6044	0	35116	
6045	0	35092	
6046	0	35080	
6047	0	35080	
6048	0	35080	
6049	0	35080	
6050	0	35088	
6051	0	35112	
6052	0	35176	
6053	0	35200	
6054	0	35224	
6055	0	35244	
6056	0	35212	
6057	0	35198	
6058	0	35176	
6059	0	35148	
6060	0	35096	
6061	0	35066	
6062	0	35016	
6063	0	34968	
6064	0	34908	
6065	0	34876	
6066	0	34800	
6067	0	34728	
6068	0	34664	
6069	0	34630	
6070	0	34612	
6071	0	34546	
6072	0	34516	
6073	0	34452	
6074	0	34364	
6075	0	34248	
6076	0	34167	
6077	0	34068	
6078	0	33976	
6079	0	33876	
6080	0	33760	
6081	0	33660	
6082	0	33564	
6083	0	33412	
6084	0	33312	
6085	0	33200	
6086	0	33092	
6087	0	32988	
6088	0	32904	
6089	0	32812	
6090	0	32720	
6091	0	32620	
6092	0	32548	
6093	0	32500	
6094	0	32428	
6095	0	32372	
6096	0	32284	
6097	0	32176	
6098	0	32072	
6099	0	31980	
6100	0	31892	
6101	0	31780	
6102	0	31676	
6103	0	31576	
6104	0	31488	
6105	0	31420	
6106	0	31346	
6107	0	31280	
6108	0	31236	
6109	0	31160	
6110	0	31112	
6111	0	31076	
6112	0	31048	
6113	0	31016	
6114	0	30952	
6115	0	30920	
6116	0	30890	
6117	0	30858	
6118	0	30832	
6119	0	30794	
6120	0	30728	
6121	0	30688	
6122	0	30636	
6123	0	30592	
6124	0	30544	
6125	0	30548	
6126	0	30560	
6127	0	30584	
6128	0	30604	
6129	0	30608	
6130	0	30624	
6131	0	30650	
6132	0	30696	
6133	0	30704	
6134	0	30700	
6135	0	30684	
6136	0	30652	
6137	0	30636	
6138	0	30632	
6139	0	30652	
6140	0	30612	
6141	0	30600	
6142	0	30624	
6143	0	30624	
6144	0	30630	
6145	0	30654	
6146	0	30688	
6147	0	30708	
6148	0	30752	
6149	0	30788	
6150	0	30820	
6151	0	30854	
6152	0	30864	
6153	0	30912	
6154	0	30912	
6155	0	30892	
6156	0	30897	
6157	0	30908	
6158	0	30904	
6159	0	30888	
6160	0	30872	
6161	0	30852	
6162	0	30832	
6163	0	30804	
6164	0	30800	
6165	0	30844	
6166	0	30892	
6167	0	30900	
6168	0	30896	
6169	0	30912	
6170	0	30956	
6171	0	31004	
6172	0	31056	
6173	0	31128	
6174	0	31152	
6175	0	31164	
6176	0	31160	
6177	0	31152	
6178	0	31156	
6179	0	31168	
6180	0	31208	
6181	0	31192	
6182	0	31200	
6183	0	31216	
6184	0	31200	
6185	0	31192	
6186	0	31220	
6187	0	31244	
6188	0	31298	
6189	0	31334	
6190	0	31400	
6191	0	31472	
6192	0	31516	
6193	0	31528	
6194	0	31544	
6195	0	31572	
6196	0	31564	
6197	0	31580	
6198	0	31548	
6199	0	31532	
6200	0	31493	
6201	0	31504	
6202	0	31524	
6203	0	31528	
6204	0	31532	
6205	0	31552	
6206	0	31554	
6207	0	31524	
6208	0	31524	
6209	0	31504	
6210	0	31536	
6211	0	31568	
6212	0	31578	
6213	0	31584	
6214	0	31592	
6215	0	31604	
6216	0	31600	
6217	0	31604	
6218	0	31608	
6219	0	31600	
6220	0	31596	
6221	0	31576	
6222	0	31544	
6223	0	31488	
6224	0	31488	
6225	0	31460	
6226	0	31448	
6227	0	31448	
6228	0	31488	
6229	0	31528	
6230	0	31552	
6231	0	31540	
6232	0	31544	
6233	0	31552	
6234	0	31544	
6235	0	31544	
6236	0	31540	
6237	0	31556	
6238	0	31556	
6239	0	31540	
6240	0	31568	
6241	0	31560	
6242	0	31568	
6243	0	31602	
6244	0	31600	
6245	0	31636	
6246	0	31640	
6247	0	31640	
6248	0	31644	
6249	0	31640	
6250	0	31640	
6251	0	31636	
6252	0	31644	
6253	0	31648	
6254	0	31692	
6255	0	31712	
6256	0	31712	
6257	0	31684	
6258	0	31636	
6259	0	31592	
6260	0	31532	
6261	0	31512	
6262	0	31496	
6263	0	31500	
6264	0	31532	
6265	0	31560	
6266	0	31568	
6267	0	31576	
6268	0	31600	
6269	0	31632	
6270	0	31652	
6271	0	31736	
6272	0	31792	
6273	0	31824	
6274	0	31840	
6275	0	31816	
6276	0	31820	
6277	0	31828	
6278	0	31856	
6279	0	31840	
6280	0	31845	
6281	0	31824	
6282	0	31776	
6283	0	31724	
6284	0	31704	
6285	0	31716	
6286	0	31720	
6287	0	31716	
6288	0	31728	
6289	0	31728	
6290	0	31768	
6291	0	31792	
6292	0	31800	
6293	0	31832	
6294	0	31832	
6295	0	31824	
6296	0	31832	
6297	0	31824	
6298	0	31840	
6299	0	31852	
6300	0	31828	
6301	0	31760	
6302	0	31704	
6303	0	31660	
6304	0	31640	
6305	0	31626	
6306	0	31600	
6307	0	31620	
6308	0	31638	
6309	0	31660	
6310	0	31682	
6311	0	31732	
6312	0	31784	
6313	0	31792	
6314	0	31788	
6315	0	31788	
6316	0	31804	
6317	0	31832	
6318	0	31872	
6319	0	31854	
6320	0	31836	
6321	0	31824	
6322	0	31804	
6323	0	31784	
6324	0	31738	
6325	0	31708	
6326	0	31680	
6327	0	31664	
6328	0	31636	
6329	0	31624	
6330	0	31630	
6331	0	31632	
6332	0	31670	
6333	0	31676	
6334	0	31696	
6335	0	31696	
6336	0	31728	
6337	0	31736	
6338	0	31768	
6339	0	31756	
6340	0	31772	
6341	0	31768	
6342	0	31776	
6343	0	31756	
6344	0	31796	
6345	0	31808	
6346	0	31816	
6347	0	31816	
6348	0	31836	
6349	0	31872	
6350	0	31912	
6351	0	31952	
6352	0	31984	
6353	0	31994	
6354	0	32004	
6355	0	32012	
6356	0	32028	
6357	0	32036	
6358	0	32052	
6359	0	32032	
6360	0	32008	
6361	0	32000	
6362	0	32006	
6363	0	32016	
6364	0	32000	
6365	0	31988	
6366	0	31994	
6367	0	31972	
6368	0	31968	
6369	0	31968	
6370	0	32000	
6371	0	32032	
6372	0	32092	
6373	0	32104	
6374	0	32100	
6375	0	32080	
6376	0	32060	
6377	0	32052	
6378	0	32052	
6379	0	32032	
6380	0	32004	
6381	0	31964	
6382	0	31936	
6383	0	31936	
6384	0	31964	
6385	0	31988	
6386	0	32024	
6387	0	32008	
6388	0	31996	
6389	0	32002	
6390	0	32032	
6391	0	32080	
6392	0	32120	
6393	0	32184	
6394	0	32220	
6395	0	32252	
6396	0	32272	
6397	0	32276	
6398	0	32264	
6399	0	32248	
6400	0	32232	
6401	0	32200	
6402	0	32168	
6403	0	32160	
6404	0	32178	
6405	0	32188	
6406	0	32168	
6407	0	32144	
6408	0	32156	
6409	0	32196	
6410	0	32224	
6411	0	32268	
6412	0	32288	
6413	0	32312	
6414	0	32312	
6415	0	32320	
6416	0	32352	
6417	0	32358	
6418	0	32360	
6419	0	32360	
6420	0	32332	
6421	0	32312	
6422	0	32256	
6423	0	32240	
6424	0	32232	
6425	0	32280	
6426	0	32340	
6427	0	32404	
6428	0	32472	
6429	0	32536	
6430	0	32588	
6431	0	32640	
6432	0	32700	
6433	0	32784	
6434	0	32844	
6435	0	32896	
6436	0	32948	
6437	0	32984	
6438	0	33018	
6439	0	33028	
6440	0	32976	
6441	0	32944	
6442	0	32904	
6443	0	32892	
6444	0	32892	
6445	0	32880	
6446	0	32876	
6447	0	32896	
6448	0	32916	
6449	0	32932	
6450	0	32960	
6451	0	32972	
6452	0	33048	
6453	0	33168	
6454	0	33296	
6455	0	33432	
6456	0	33556	
6457	0	33664	
6458	0	33740	
6459	0	33820	
6460	0	33896	
6461	0	33976	
6462	0	34024	
6463	0	34080	
6464	0	34132	
6465	0	34192	
6466	0	34256	
6467	0	34320	
6468	0	34324	
6469	0	34296	
6470	0	34242	
6471	0	34164	
6472	0	34072	
6473	0	33968	
6474	0	33888	
6475	0	33800	
6476	0	33700	
6477	0	33596	
6478	0	33466	
6479	0	33320	
6480	0	33196	
6481	0	33100	
6482	0	33036	
6483	0	32980	
6484	0	32944	
6485	0	32952	
6486	0	32952	
6487	0	32920	
6488	0	32888	
6489	0	32896	
6490	0	32892	
6491	0	32888	
6492	0	32896	
6493	0	32880	
6494	0	32820	
6495	0	32808	
6496	0	32836	
6497	0	32816	
6498	0	32808	
6499	0	32808	
6500	0	32784	
6501	0	32770	
6502	0	32760	
6503	0	32756	
6504	0	32728	
6505	0	32706	
6506	0	32688	
6507	0	32648	
6508	0	32626	
6509	0	32616	
6510	0	32604	
6511	0	32608	
6512	0	32554	
6513	0	32464	
6514	0	32372	
6515	0	32304	
6516	0	32232	
6517	0	32184	
6518	0	32132	
6519	0	32092	
6520	0	32064	
6521	0	32024	
6522	0	32024	
6523	0	32012	
6524	0	32008	
6525	0	32020	
6526	0	32064	
6527	0	32085	
6528	0	32068	
6529	0	32064	
6530	0	32056	
6531	0	32068	
6532	0	32092	
6533	0	32128	
6534	0	32144	
6535	0	32160	
6536	0	32152	
6537	0	32184	
6538	0	32192	
6539	0	32226	
6540	0	32244	
6541	0	32232	
6542	0	32192	
6543	0	32180	
6544	0	32172	
6545	0	32174	
6546	0	32160	
6547	0	32184	
6548	0	32200	
6549	0	32240	
6550	0	32280	
6551	0	32320	
6552	0	32360	
6553	0	32384	
6554	0	32376	
6555	0	32360	
6556	0	32380	
6557	0	32392	
6558	0	32380	
6559	0	32344	
6560	0	32328	
6561	0	32320	
6562	0	32310	
6563	0	32304	
6564	0	32320	
6565	0	32356	
6566	0	32368	
6567	0	32388	
6568	0	32432	
6569	0	32476	
6570	0	32520	
6571	0	32552	
6572	0	32568	
6573	0	32576	
6574	0	32586	
6575	0	32544	
6576	0	32538	
6577	0	32532	
6578	0	32546	
6579	0	32548	
6580	0	32584	
6581	0	32608	
6582	0	32640	
6583	0	32688	
6584	0	32728	
6585	0	32748	
6586	0	32744	
6587	0	32748	
6588	0	32704	
6589	0	32656	
6590	0	32604	
6591	0	32552	
6592	0	32536	
6593	0	32578	
6594	0	32764	
6595	0	33056	
6596	0	33316	
6597	0	33644	
6598	0	33988	
6599	0	34232	
6600	0	34424	
6601	0	34604	
6602	0	34700	
6603	0	34868	
6604	0	35168	
6605	0	35632	
6606	0	36224	
6607	0	36996	
6608	0	37914	
6609	0	39016	
6610	0	40180	
6611	0	41420	
6612	0	42712	
6613	0	44076	
6614	0	45440	
6615	0	46772	
6616	0	48024	
6617	0	49084	
6618	0	50048	
6619	0	50892	
6620	0	51856	
6621	0	52836	
6622	0	53544	
6623	0	53856	
6624	0	53296	
6625	0	51648	
6626	0	49112	
6627	0	45968	
6628	0	42504	
6629	0	39128	
6630	0	36120	
6631	0	33684	
6632	0	31968	
6633	0	30816	
6634	0	30076	
6635	0	29724	
6636	0	29612	
6637	0	29582	
6638	0	29584	
6639	0	29632	
6640	0	29708	
6641	0	29844	
6642	0	30008	
6643	0	30168	
6644	0	30332	
6645	0	30456	
6646	0	30616	
6647	0	30776	
6648	0	30944	
6649	0	31140	
6650	0	31292	
6651	0	31428	
6652	0	31556	
6653	0	31624	
6654	0	31682	
6655	0	31684	
6656	0	31652	
6657	0	31610	
6658	0	31576	
6659	0	31536	
6660	0	31488	
6661	0	31428	
6662	0	31404	
6663	0	31356	
6664	0	31320	
6665	0	31280	
6666	0	31248	
6667	0	31256	
6668	0	31268	
6669	0	31288	
6670	0	31320	
6671	0	31340	
6672	0	31402	
6673	0	31424	
6674	0	31420	
6675	0	31408	
6676	0	31408	
6677	0	31392	
6678	0	31368	
6679	0	31356	
6680	0	31344	
6681	0	31328	
6682	0	31320	
6683	0	31328	
6684	0	31332	
6685	0	31348	
6686	0	31388	
6687	0	31416	
6688	0	31476	
6689	0	31520	
6690	0	31576	
6691	0	31616	
6692	0	31648	
6693	0	31658	
6694	0	31672	
6695	0	31712	
6696	0	31736	
6697	0	31744	
6698	0	31756	
6699	0	31760	
6700	0	31764	
6701	0	31776	
6702	0	31794	
6703	0	31802	
6704	0	31800	
6705	0	31808	
6706	0	31808	
6707	0	31844	
6708	0	31896	
6709	0	31952	
6710	0	31976	
6711	0	32028	
6712	0	32104	
6713	0	32164	
6714	0	32180	
6715	0	32192	
6716	0	32216	
6717	0	32240	
6718	0	32260	
6719	0	32264	
6720	0	32252	
6721	0	32252	
6722	0	32240	
6723	0	32224	
6724	0	32224	
6725	0	32236	
6726	0	32250	
6727	0	32272	
6728	0	32304	
6729	0	32336	
6730	0	32356	
6731	0	32376	
6732	0	32406	
6733	0	32456	
6734	0	32488	
6735	0	32520	
6736	0	32538	
6737	0	32560	
6738	0	32592	
6739	0	32616	
6740	0	32616	
6741	0	32612	
6742	0	32628	
6743	0	32616	
6744	0	32600	
6745	0	32628	
6746	0	32696	
6747	0	32756	
6748	0	32796	
6749	0	32816	
6750	0	32812	
6751	0	32824	
6752	0	32868	
6753	0	32912	
6754	0	32904	
6755	0	32916	
6756	0	32904	
6757	0	32858	
6758	0	32820	
6759	0	32792	
6760	0	32756	
6761	0	32730	
6762	0	32700	
6763	0	32676	
6764	0	32720	
6765	0	32768	
6766	0	32780	
6767	0	32800	
6768	0	32810	
6769	0	32804	
6770	0	32840	
6771	0	32904	
6772	0	32948	
6773	0	32972	
6774	0	33000	
6775	0	32996	
6776	0	33004	
6777	0	33044	
6778	0	33076	
6779	0	33088	
6780	0	33088	
6781	0	33088	
6782	0	33090	
6783	0	33084	
6784	0	33064	
6785	0	33042	
6786	0	33056	
6787	0	33056	
6788	0	33080	
6789	0	33132	
6790	0	33168	
6791	0	33232	
6792	0	33280	
6793	0	33316	
6794	0	33324	
6795	0	33376	
6796	0	33408	
6797	0	33428	
6798	0	33468	
6799	0	33472	
6800	0	33456	
6801	0	33452	
6802	0	33472	
6803	0	33508	
6804	0	33528	
6805	0	33544	
6806	0	33600	
6807	0	33620	
6808	0	33624	
6809	0	33640	
6810	0	33658	
6811	0	33664	
6812	0	33664	
6813	0	33712	
6814	0	33736	
6815	0	33744	
6816	0	33744	
6817	0	33756	
6818	0	33764	
6819	0	33788	
6820	0	33796	
6821	0	33784	
6822	0	33776	
6823	0	33796	
6824	0	33828	
6825	0	33904	
6826	0	33944	
6827	0	33984	
6828	0	34018	
6829	0	34108	
6830	0	34196	
6831	0	34280	
6832	0	34336	
6833	0	34380	
6834	0	34404	
6835	0	34400	
6836	0	34376	
6837	0	34376	
6838	0	34336	
6839	0	34280	
6840	0	34244	
6841	0	34208	
6842	0	34188	
6843	0	34180	
6844	0	34224	
6845	0	34296	
6846	0	34360	
6847	0	34396	
6848	0	34412	
6849	0	34472	
6850	0	34516	
6851	0	34548	
6852	0	34588	
6853	0	34572	
6854	0	34564	
6855	0	34548	
6856	0	34544	
6857	0	34592	
6858	0	34604	
6859	0	34568	
6860	0	34528	
6861	0	34488	
6862	0	34522	
6863	0	34580	
6864	0	34616	
6865	0	34636	
6866	0	34648	
6867	0	34660	
6868	0	34624	
6869	0	34640	
6870	0	34696	
6871	0	34740	
6872	0	34752	
6873	0	34776	
6874	0	34762	
6875	0	34740	
6876	0	34752	
6877	0	34712	
6878	0	34664	
6879	0	34636	
6880	0	34640	
6881	0	34604	
6882	0	34556	
6883	0	34492	
6884	0	34476	
6885	0	34496	
6886	0	34520	
6887	0	34520	
6888	0	34480	
6889	0	34432	
6890	0	34424	
6891	0	34416	
6892	0	34444	
6893	0	34380	
6894	0	34268	
6895	0	34168	
6896	0	34084	
6897	0	34000	
6898	0	33896	
6899	0	33748	
6900	0	33600	
6901	0	33512	
6902	0	33448	
6903	0	33368	
6904	0	33276	
6905	0	33164	
6906	0	33064	
6907	0	32968	
6908	0	32864	
6909	0	32800	
6910	0	32716	
6911	0	32648	
6912	0	32576	
6913	0	32500	
6914	0	32428	
6915	0	32352	
6916	0	32280	
6917	0	32202	
6918	0	32096	
6919	0	32008	
6920	0	31924	
6921	0	31824	
6922	0	31736	
6923	0	31636	
6924	0	31548	
6925	0	31488	
6926	0	31400	
6927	0	31304	
6928	0	31200	
6929	0	31120	
6930	0	31096	
6931	0	31092	
6932	0	31068	
6933	0	31048	
6934	0	31032	
6935	0	31018	
6936	0	30980	
6937	0	30934	
6938	0	30890	
6939	0	30872	
6940	0	30844	
6941	0	30776	
6942	0	30684	
6943	0	30616	
6944	0	30592	
6945	0	30536	
6946	0	30494	
6947	0	30488	
6948	0	30464	
6949	0	30448	
6950	0	30456	
6951	0	30464	
6952	0	30480	
6953	0	30512	
6954	0	30596	
6955	0	30628	
6956	0	30604	
6957	0	30576	
6958	0	30542	
6959	0	30512	
6960	0	30480	
6961	0	30492	
6962	0	30504	
6963	0	30500	
6964	0	30496	
6965	0	30512	
6966	0	30492	
6967	0	30456	
6968	0	30408	
6969	0	30432	
6970	0	30476	
6971	0	30510	
6972	0	30544	
6973	0	30592	
6974	0	30600	
6975	0	30586	
6976	0	30568	
6977	0	30556	
6978	0	30536	
6979	0	30544	
6980	0	30560	
6981	0	30528	
6982	0	30528	
6983	0	30540	
6984	0	30552	
6985	0	30540	
6986	0	30532	
6987	0	30572	
6988	0	30616	
6989	0	30670	
6990	0	30720	
6991	0	30764	
6992	0	30800	
6993	0	30858	
6994	0	30880	
6995	0	30900	
6996	0	30936	
6997	0	30948	
6998	0	30960	
6999	0	30960	
7000	0	30976	
7001	0	30940	
7002	0	30936	
7003	0	30920	
7004	0	30932	
7005	0	30972	
7006	0	31008	
7007	0	31058	
7008	0	31088	
7009	0	31104	
7010	0	31204	
7011	0	31296	
7012	0	31372	
7013	0	31416	
7014	0	31452	
7015	0	31496	
7016	0	31504	
7017	0	31516	
7018	0	31532	
7019	0	31528	
7020	0	31496	
7021	0	31424	
7022	0	31384	
7023	0	31392	
7024	0	31452	
7025	0	31500	
7026	0	31552	
7027	0	31596	
7028	0	31648	
7029	0	31720	
7030	0	31752	
7031	0	31756	
7032	0	31768	
7033	0	31816	
7034	0	31868	
7035	0	31860	
7036	0	31836	
7037	0	31804	
7038	0	31744	
7039	0	31696	
7040	0	31688	
7041	0	31708	
7042	0	31752	
7043	0	31768	
7044	0	31776	
7045	0	31812	
7046	0	31800	
7047	0	31772	
7048	0	31784	
7049	0	31800	
7050	0	31864	
7051	0	31924	
7052	0	31948	
7053	0	32000	
7054	0	32080	
7055	0	32104	
7056	0	32120	
7057	0	32124	
7058	0	32104	
7059	0	32104	
7060	0	32112	
7061	0	32108	
7062	0	32136	
7063	0	32112	
7064	0	32128	
7065	0	32120	
7066	0	32100	
7067	0	32056	
7068	0	32004	
7069	0	31984	
7070	0	31992	
7071	0	31968	
7072	0	31944	
7073	0	31938	
7074	0	31952	
7075	0	31956	
7076	0	31974	
7077	0	31988	
7078	0	31974	
7079	0	31968	
7080	0	31964	
7081	0	31948	
7082	0	31936	
7083	0	31908	
7084	0	31900	
7085	0	31916	
7086	0	31906	
7087	0	31904	
7088	0	31892	
7089	0	31904	
7090	0	31962	
7091	0	32024	
7092	0	32052	
7093	0	32084	
7094	0	32100	
7095	0	32106	
7096	0	32100	
7097	0	32096	
7098	0	32056	
7099	0	32024	
7100	0	31986	
7101	0	31992	
7102	0	31972	
7103	0	31928	
7104	0	31900	
7105	0	31936	
7106	0	31988	
7107	0	31976	
7108	0	31984	
7109	0	32032	
7110	0	32080	
7111	0	32122	
7112	0	32130	
7113	0	32128	
7114	0	32076	
7115	0	32052	
7116	0	32048	
7117	0	32016	
7118	0	32008	
7119	0	32016	
7120	0	32008	
7121	0	31984	
7122	0	31968	
7123	0	31968	
7124	0	31976	
7125	0	31992	
7126	0	32016	
7127	0	32036	
7128	0	32034	
7129	0	32068	
7130	0	32148	
7131	0	32248	
7132	0	32284	
7133	0	32284	
7134	0	32320	
7135	0	32320	
7136	0	32304	
7137	0	32300	
7138	0	32304	
7139	0	32272	
7140	0	32188	
7141	0	32096	
7142	0	32064	
7143	0	32032	
7144	0	32024	
7145	0	32040	
7146	0	32092	
7147	0	32140	
7148	0	32184	
7149	0	32264	
7150	0	32328	
7151	0	32332	
7152	0	32328	
7153	0	32328	
7154	0	32320	
7155	0	32296	
7156	0	32280	
7157	0	32292	
7158	0	32320	
7159	0	32364	
7160	0	32408	
7161	0	32394	
7162	0	32360	
7163	0	32312	
7164	0	32284	
7165	0	32224	
7166	0	32176	
7167	0	32156	
7168	0	32184	
7169	0	32240	
7170	0	32344	
7171	0	32400	
7172	0	32372	
7173	0	32352	
7174	0	32328	
7175	0	32360	
7176	0	32392	
7177	0	32376	
7178	0	32344	
7179	0	32320	
7180	0	32324	
7181	0	32320	
7182	0	32336	
7183	0	32320	
7184	0	32320	
7185	0	32300	
7186	0	32306	
7187	0	32268	
7188	0	32284	
7189	0	32364	
7190	0	32472	
7191	0	32580	
7192	0	32692	
7193	0	32788	
7194	0	32848	
7195	0	32898	
7196	0	32944	
7197	0	32976	
7198	0	32976	
7199	0	32960	
7200	0	32912	
7201	0	32880	
7202	0	32856	
7203	0	32800	
7204	0	32772	
7205	0	32740	
7206	0	32688	
7207	0	32668	
7208	0	32672	
7209	0	32672	
7210	0	32704	
7211	0	32720	
7212	0	32760	
7213	0	32848	
7214	0	32952	
7215	0	33100	
7216	0	33248	
7217	0	33388	
7218	0	33472	
7219	0	33512	
7220	0	33568	
7221	0	33672	
7222	0	33772	
7223	0	33856	
7224	0	33900	
7225	0	33920	
7226	0	33936	
7227	0	33956	
7228	0	33940	
7229	0	33938	
7230	0	33956	
7231	0	33992	
7232	0	33964	
7233	0	33932	
7234	0	33876	
7235	0	33748	
7236	0	33640	
7237	0	33548	
7238	0	33488	
7239	0	33380	
7240	0	33280	
7241	0	33168	
7242	0	33064	
7243	0	32960	
7244	0	32880	
7245	0	32846	
7246	0	32812	
7247	0	32784	
7248	0	32804	
7249	0	32832	
7250	0	32834	
7251	0	32792	
7252	0	32752	
7253	0	32714	
7254	0	32692	
7255	0	32660	
7256	0	32644	
7257	0	32652	
7258	0	32628	
7259	0	32608	
7260	0	32584	
7261	0	32568	
7262	0	32576	
7263	0	32556	
7264	0	32540	
7265	0	32528	
7266	0	32510	
7267	0	32488	
7268	0	32460	
7269	0	32424	
7270	0	32424	
7271	0	32428	
7272	0	32384	
7273	0	32308	
7274	0	32236	
7275	0	32158	
7276	0	32124	
7277	0	32128	
7278	0	32136	
7279	0	32104	
7280	0	32068	
7281	0	32064	
7282	0	32076	
7283	0	32072	
7284	0	32076	
7285	0	32048	
7286	0	31980	
7287	0	31924	
7288	0	31884	
7289	0	31832	
7290	0	31812	
7291	0	31800	
7292	0	31802	
7293	0	31836	
7294	0	31856	
7295	0	31884	
7296	0	31960	
7297	0	32026	
7298	0	32008	
7299	0	31968	
7300	0	31900	
7301	0	31828	
7302	0	31808	
7303	0	31792	
7304	0	31792	
7305	0	31832	
7306	0	31912	
7307	0	31976	
7308	0	32096	
7309	0	32176	
7310	0	32264	
7311	0	32344	
7312	0	32384	
7313	0	32388	
7314	0	32380	
7315	0	32412	
7316	0	32308	
7317	0	32212	
7318	0	32168	
7319	0	32134	
7320	0	32104	
7321	0	32106	
7322	0	32104	
7323	0	32088	
7324	0	32076	
7325	0	32084	
7326	0	32096	
7327	0	32136	
7328	0	32216	
7329	0	32312	
7330	0	32356	
7331	0	32356	
7332	0	32368	
7333	0	32408	
7334	0	32412	
7335	0	32452	
7336	0	32512	
7337	0	32548	
7338	0	32616	
7339	0	32624	
7340	0	32604	
7341	0	32564	
7342	0	32568	
7343	0	32572	
7344	0	32640	
7345	0	32708	
7346	0	32800	
7347	0	32818	
7348	0	32810	
7349	0	32836	
7350	0	32816	
7351	0	32764	
7352	0	32712	
7353	0	32668	
7354	0	32628	
7355	0	32648	
7356	0	32702	
7357	0	32862	
7358	0	33112	
7359	0	33440	
7360	0	33784	
7361	0	34132	
7362	0	34428	
7363	0	34620	
7364	0	34744	
7365	0	34848	
7366	0	34992	
7367	0	35252	
7368	0	35680	
7369	0	36316	
7370	0	37136	
7371	0	38100	
7372	0	39192	
7373	0	40500	
7374	0	41820	
7375	0	43192	
7376	0	44580	
7377	0	45992	
7378	0	47480	
7379	0	48848	
7380	0	50036	
7381	0	51072	
7382	0	52064	
7383	0	53028	
7384	0	54016	
7385	0	54820	
7386	0	55244	
7387	0	54944	
7388	0	53632	
7389	0	51232	
7390	0	48064	
7391	0	44544	
7392	0	41008	
7393	0	37696	
7394	0	34720	
7395	0	32470	
7396	0	30968	
7397	0	29984	
7398	0	29340	
7399	0	28984	
7400	0	28836	
7401	0	28802	
7402	0	28872	
7403	0	29076	
7404	0	29408	
7405	0	29740	
7406	0	29976	
7407	0	30196	
7408	0	30476	
7409	0	30756	
7410	0	31008	
7411	0	31252	
7412	0	31452	
7413	0	31572	
7414	0	31616	
7415	0	31656	
7416	0	31656	
7417	0	31648	
7418	0	31664	
7419	0	31656	
7420	0	31632	
7421	0	31578	
7422	0	31536	
7423	0	31524	
7424	0	31532	
7425	0	31524	
7426	0	31496	
7427	0	31476	
7428	0	31500	
7429	0	31540	
7430	0	31628	
7431	0	31688	
7432	0	31736	
7433	0	31732	
7434	0	31712	
7435	0	31696	
7436	0	31680	
7437	0	31648	
7438	0	31596	
7439	0	31592	
7440	0	31576	
7441	0	31500	
7442	0	31428	
7443	0	31396	
7444	0	31408	
7445	0	31464	
7446	0	31528	
7447	0	31596	
7448	0	31656	
7449	0	31684	
7450	0	31712	
7451	0	31770	
7452	0	31824	
7453	0	31816	
7454	0	31756	
7455	0	31748	
7456	0	31776	
7457	0	31832	
7458	0	31872	
7459	0	31912	
7460	0	31944	
7461	0	31972	
7462	0	31956	
7463	0	31932	
7464	0	31968	
7465	0	31992	
7466	0	32000	
7467	0	32052	
7468	0	32088	
7469	0	32104	
7470	0	32148	
7471	0	32232	
7472	0	32256	
7473	0	32284	
7474	0	32292	
7475	0	32344	
7476	0	32424	
7477	0	32480	
7478	0	32520	
7479	0	32472	
7480	0	32414	
7481	0	32396	
7482	0	32440	
7483	0	32426	
7484	0	32480	
7485	0	32552	
7486	0	32628	
7487	0	32644	
7488	0	32608	
7489	0	32596	
7490	0	32676	
7491	0	32724	
7492	0	32748	
7493	0	32770	
7494	0	32832	
7495	0	32880	
7496	0	32884	
7497	0	32908	
7498	0	32916	
7499	0	32940	
7500	0	32924	
7501	0	32912	
7502	0	32940	
7503	0	32952	
7504	0	32960	
7505	0	32964	
7506	0	32988	
7507	0	33042	
7508	0	33096	
7509	0	33120	
7510	0	33204	
7511	0	33312	
7512	0	33372	
7513	0	33404	
7514	0	33400	
7515	0	33372	
7516	0	33360	
7517	0	33348	
7518	0	33320	
7519	0	33288	
7520	0	33268	
7521	0	33288	
7522	0	33360	
7523	0	33404	
7524	0	33384	
7525	0	33344	
7526	0	33340	
7527	0	33348	
7528	0	33340	
7529	0	33380	
7530	0	33466	
7531	0	33568	
7532	0	33632	
7533	0	33650	
7534	0	33628	
7535	0	33616	
7536	0	33600	
7537	0	33616	
7538	0	33632	
7539	0	33610	
7540	0	33580	
7541	0	33604	
7542	0	33618	
7543	0	33616	
7544	0	33630	
7545	0	33612	
7546	0	33524	
7547	0	33528	
7548	0	33556	
7549	0	33568	
7550	0	33528	
7551	0	33516	
7552	0	33520	
7553	0	33564	
7554	0	33608	
7555	0	33584	
7556	0	33556	
7557	0	33536	
7558	0	33536	
7559	0	33524	
7560	0	33496	
7561	0	33484	
7562	0	33468	
7563	0	33480	
7564	0	33504	
7565	0	33560	
7566	0	33576	
7567	0	33592	
7568	0	33604	
7569	0	33648	
7570	0	33760	
7571	0	33922	
7572	0	34048	
7573	0	34100	
7574	0	34128	
7575	0	34124	
7576	0	34040	
7577	0	33936	
7578	0	33872	
7579	0	33802	
7580	0	33816	
7581	0	33832	
7582	0	33840	
7583	0	33864	
7584	0	33868	
7585	0	33888	
7586	0	33932	
7587	0	33952	
7588	0	33984	
7589	0	34028	
7590	0	34020	
7591	0	34024	
7592	0	33992	
7593	0	33948	
7594	0	33996	
7595	0	34028	
7596	0	34032	
7597	0	34044	
7598	0	34048	
7599	0	34056	
7600	0	34076	
7601	0	34116	
7602	0	34170	
7603	0	34204	
7604	0	34232	
7605	0	34232	
7606	0	34240	
7607	0	34268	
7608	0	34284	
7609	0	34296	
7610	0	34312	
7611	0	34348	
7612	0	34392	
7613	0	34368	
7614	0	34304	
7615	0	34222	
7616	0	34148	
7617	0	34148	
7618	0	34184	
7619	0	34204	
7620	0	34122	
7621	0	34028	
7622	0	33964	
7623	0	33904	
7624	0	33880	
7625	0	33916	
7626	0	33964	
7627	0	34020	
7628	0	34100	
7629	0	34180	
7630	0	34208	
7631	0	34236	
7632	0	34224	
7633	0	34224	
7634	0	34204	
7635	0	34188	
7636	0	34168	
7637	0	34152	
7638	0	34140	
7639	0	34156	
7640	0	34164	
7641	0	34144	
7642	0	34092	
7643	0	34056	
7644	0	34000	
7645	0	33932	
7646	0	33904	
7647	0	33904	
7648	0	33906	
7649	0	33908	
7650	0	33888	
7651	0	33856	
7652	0	33772	
7653	0	33696	
7654	0	33580	
7655	0	33500	
7656	0	33432	
7657	0	33368	
7658	0	33298	
7659	0	33240	
7660	0	33100	
7661	0	32956	
7662	0	32860	
7663	0	32792	
7664	0	32708	
7665	0	32584	
7666	0	32468	
7667	0	32348	
7668	0	32266	
7669	0	32192	
7670	0	32132	
7671	0	32064	
7672	0	31976	
7673	0	31904	
7674	0	31850	
7675	0	31788	
7676	0	31728	
7677	0	31648	
7678	0	31584	
7679	0	31488	
7680	0	31360	
7681	0	31236	
7682	0	31120	
7683	0	31028	
7684	0	30908	
7685	0	30820	
7686	0	30746	
7687	0	30648	
7688	0	30572	
7689	0	30522	
7690	0	30520	
7691	0	30536	
7692	0	30496	
7693	0	30464	
7694	0	30418	
7695	0	30372	
7696	0	30368	
7697	0	30384	
7698	0	30360	
7699	0	30312	
7700	0	30236	
7701	0	30184	
7702	0	30108	
7703	0	29984	
7704	0	29888	
7705	0	29800	
7706	0	29740	
7707	0	29696	
7708	0	29656	
7709	0	29652	
7710	0	29688	
7711	0	29744	
7712	0	29792	
7713	0	29856	
7714	0	29856	
7715	0	29870	
7716	0	29912	
7717	0	29892	
7718	0	29864	
7719	0	29856	
7720	0	29852	
7721	0	29826	
7722	0	29796	
7723	0	29786	
7724	0	29808	
7725	0	29880	
7726	0	29960	
7727	0	30004	
7728	0	30036	
7729	0	30076	
7730	0	30144	
7731	0	30204	
7732	0	30248	
7733	0	30268	
7734	0	30304	
7735	0	30320	
7736	0	30260	
7737	0	30210	
7738	0	30176	
7739	0	30142	
7740	0	30128	
7741	0	30130	
7742	0	30136	
7743	0	30133	
7744	0	30144	
7745	0	30152	
7746	0	30168	
7747	0	30232	
7748	0	30332	
7749	0	30432	
7750	0	30560	
7751	0	30640	
7752	0	30700	
7753	0	30768	
7754	0	30840	
7755	0	30888	
7756	0	30948	
7757	0	31032	
7758	0	31030	
7759	0	31020	
7760	0	31004	
7761	0	31012	
7762	0	31032	
7763	0	31080	
7764	0	31120	
7765	0	31152	
7766	0	31192	
7767	0	31204	
7768	0	31216	
7769	0	31240	
7770	0	31232	
7771	0	31216	
7772	0	31192	
7773	0	31196	
7774	0	31228	
7775	0	31256	
7776	0	31264	
7777	0	31280	
7778	0	31296	
7779	0	31288	
7780	0	31252	
7781	0	31252	
7782	0	31296	
7783	0	31320	
7784	0	31316	
7785	0	31324	
7786	0	31356	
7787	0	31384	
7788	0	31420	
7789	0	31448	
7790	0	31520	
7791	0	31612	
7792	0	31688	
7793	0	31768	
7794	0	31776	
7795	0	31792	
7796	0	31788	
7797	0	31776	
7798	0	31732	
7799	0	31656	
7800	0	31560	
7801	0	31520	
7802	0	31516	
7803	0	31496	
7804	0	31476	
7805	0	31440	
7806	0	31404	
7807	0	31380	
7808	0	31400	
7809	0	31450	
7810	0	31468	
7811	0	31548	
7812	0	31564	
7813	0	31548	
7814	0	31508	
7815	0	31480	
7816	0	31480	
7817	0	31508	
7818	0	31532	
7819	0	31540	
7820	0	31504	
7821	0	31488	
7822	0	31504	
7823	0	31504	
7824	0	31500	
7825	0	31516	
7826	0	31528	
7827	0	31536	
7828	0	31540	
7829	0	31556	
7830	0	31596	
7831	0	31630	
7832	0	31616	
7833	0	31644	
7834	0	31640	
7835	0	31644	
7836	0	31636	
7837	0	31644	
7838	0	31616	
7839	0	31560	
7840	0	31544	
7841	0	31526	
7842	0	31508	
7843	0	31508	
7844	0	31504	
7845	0	31528	
7846	0	31556	
7847	0	31552	
7848	0	31570	
7849	0	31588	
7850	0	31604	
7851	0	31630	
7852	0	31660	
7853	0	31656	
7854	0	31636	
7855	0	31660	
7856	0	31688	
7857	0	31696	
7858	0	31696	
7859	0	31660	
7860	0	31578	
7861	0	31506	
7862	0	31492	
7863	0	31464	
7864	0	31416	
7865	0	31396	
7866	0	31442	
7867	0	31464	
7868	0	31492	
7869	0	31536	
7870	0	31588	
7871	0	31640	
7872	0	31676	
7873	0	31744	
7874	0	31768	
7875	0	31752	
7876	0	31746	
7877	0	31760	
7878	0	31748	
7879	0	31738	
7880	0	31720	
7881	0	31702	
7882	0	31684	
7883	0	31680	
7884	0	31700	
7885	0	31712	
7886	0	31700	
7887	0	31704	
7888	0	31692	
7889	0	31734	
7890	0	31768	
7891	0	31772	
7892	0	31792	
7893	0	31808	
7894	0	31832	
7895	0	31828	
7896	0	31808	
7897	0	31824	
7898	0	31852	
7899	0	31872	
7900	0	31856	
7901	0	31852	
7902	0	31880	
7903	0	31916	
7904	0	31993	
7905	0	32064	
7906	0	32124	
7907	0	32200	
7908	0	32296	
7909	0	32362	
7910	0	32380	
7911	0	32396	
7912	0	32412	
7913	0	32444	
7914	0	32448	
7915	0	32436	
7916	0	32460	
7917	0	32468	
7918	0	32512	
7919	0	32520	
7920	0	32476	
7921	0	32396	
7922	0	32332	
7923	0	32302	
7924	0	32272	
7925	0	32264	
7926	0	32280	
7927	0	32320	
7928	0	32450	
7929	0	32616	
7930	0	32820	
7931	0	33004	
7932	0	33176	
7933	0	33320	
7934	0	33400	
7935	0	33492	
7936	0	33600	
7937	0	33700	
7938	0	33728	
7939	0	33764	
7940	0	33764	
7941	0	33752	
7942	0	33700	
7943	0	33680	
7944	0	33690	
7945	0	33660	
7946	0	33568	
7947	0	33436	
7948	0	33380	
7949	0	33364	
7950	0	33312	
7951	0	33236	
7952	0	33128	
7953	0	33028	
7954	0	32960	
7955	0	32860	
7956	0	32826	
7957	0	32776	
7958	0	32760	
7959	0	32740	
7960	0	32672	
7961	0	32562	
7962	0	32476	
7963	0	32452	
7964	0	32416	
7965	0	32410	
7966	0	32400	
7967	0	32376	
7968	0	32364	
7969	0	32376	
7970	0	32416	
7971	0	32408	
7972	0	32420	
7973	0	32404	
7974	0	32368	
7975	0	32304	
7976	0	32228	
7977	0	32172	
7978	0	32142	
7979	0	32116	
7980	0	32072	
7981	0	32016	
7982	0	31928	
7983	0	31852	
7984	0	31816	
7985	0	31776	
7986	0	31736	
7987	0	31688	
7988	0	31644	
7989	0	31628	
7990	0	31600	
7991	0	31616	
7992	0	31628	
7993	0	31628	
7994	0	31644	
7995	0	31648	
7996	0	31660	
7997	0	31648	
7998	0	31632	
7999	0	31616	
8000	0	31612	
8001	0	31596	
8002	0	31600	
8003	0	31600	
8004	0	31616	
8005	0	31628	
8006	0	31640	
8007	0	31656	
8008	0	31680	
8009	0	31744	
8010	0	31788	
8011	0	31820	
8012	0	31860	
8013	0	31884	
8014	0	31944	
8015	0	31984	
8016	0	32000	
8017	0	32016	
8018	0	32034	
8019	0	32016	
8020	0	32010	
8021	0	32004	
8022	0	32008	
8023	0	32012	
8024	0	32024	
8025	0	32052	
8026	0	32048	
8027	0	32064	
8028	0	32084	
8029	0	32100	
8030	0	32112	
8031	0	32136	
8032	0	32160	
8033	0	32176	
8034	0	32184	
8035	0	32156	
8036	0	32112	
8037	0	32128	
8038	0	32160	
8039	0	32168	
8040	0	32164	
8041	0	32184	
8042	0	32208	
8043	0	32244	
8044	0	32264	
8045	0	32288	
8046	0	32300	
8047	0	32304	
8048	0	32296	
8049	0	32284	
8050	0	32276	
8051	0	32272	
8052	0	32268	
8053	0	32268	
8054	0	32296	
8055	0	32340	
8056	0	32396	
8057	0	32488	
8058	0	32556	
8059	0	32572	
8060	0	32568	
8061	0	32572	
8062	0	32552	
8063	0	32538	
8064	0	32498	
8065	0	32456	
8066	0	32440	
8067	0	32444	
8068	0	32492	
8069	0	32668	
8070	0	32952	
8071	0	33260	
8072	0	33582	
8073	0	33960	
8074	0	34226	
8075	0	34444	
8076	0	34588	
8077	0	34700	
8078	0	34868	
8079	0	35160	
8080	0	35644	
8081	0	36248	
8082	0	37016	
8083	0	38040	
8084	0	39232	
8085	0	40580	
8086	0	41960	
8087	0	43416	
8088	0	44944	
8089	0	46552	
8090	0	48216	
8091	0	49808	
8092	0	51136	
8093	0	52304	
8094	0	53348	
8095	0	54392	
8096	0	55508	
8097	0	56336	
8098	0	56760	
8099	0	56388	
8100	0	54984	
8101	0	52520	
8102	0	49220	
8103	0	45492	
8104	0	41684	
8105	0	38040	
8106	0	34840	
8107	0	32412	
8108	0	30724	
8109	0	29554	
8110	0	28824	
8111	0	28476	
8112	0	28408	
8113	0	28508	
8114	0	28692	
8115	0	28992	
8116	0	29356	
8117	0	29730	
8118	0	30048	
8119	0	30304	
8120	0	30512	
8121	0	30688	
8122	0	30848	
8123	0	31008	
8124	0	31140	
8125	0	31272	
8126	0	31376	
8127	0	31476	
8128	0	31536	
8129	0	31620	
8130	0	31682	
8131	0	31700	
8132	0	31708	
8133	0	31720	
8134	0	31708	
8135	0	31720	
8136	0	31704	
8137	0	31660	
8138	0	31576	
8139	0	31516	
8140	0	31488	
8141	0	31488	
8142	0	31488	
8143	0	31486	
8144	0	31512	
8145	0	31560	
8146	0	31588	
8147	0	31596	
8148	0	31624	
8149	0	31664	
8150	0	31736	
8151	0	31816	
8152	0	31872	
8153	0	31916	
8154	0	31960	
8155	0	31984	
8156	0	31988	
8157	0	31980	
8158	0	31960	
8159	0	31936	
8160	0	31888	
8161	0	31856	
8162	0	31800	
8163	0	31788	
8164	0	31836	
8165	0	31890	
8166	0	31940	
8167	0	31972	
8168	0	31980	
8169	0	32028	
8170	0	32076	
8171	0	32132	
8172	0	32176	
8173	0	32238	
8174	0	32304	
8175	0	32328	
8176	0	32344	
8177	0	32388	
8178	0	32384	
8179	0	32352	
8180	0	32328	
8181	0	32336	
8182	0	32356	
8183	0	32368	
8184	0	32384	
8185	0	32386	
8186	0	32384	
8187	0	32384	
8188	0	32384	
8189	0	32420	
8190	0	32493	
8191	0	32544	
8192	0	32604	
8193	0	32712	
8194	0	32760	
8195	0	32796	
8196	0	32796	
8197	0	32812	
8198	0	32864	
8199	0	32928	
8200	0	32944	
8201	0	32926	
8202	0	32904	
8203	0	32860	
8204	0	32852	
8205	0	32836	
8206	0	32852	
8207	0	32896	
8208	0	32944	
8209	0	32992	
8210	0	33040	
8211	0	33088	
8212	0	33102	
8213	0	33112	
8214	0	33092	
8215	0	33096	
8216	0	33124	
8217	0	33184	
8218	0	33228	
8219	0	33260	
8220	0	33260	
8221	0	33256	
8222	0	33252	
8223	0	33252	
8224	0	33284	
8225	0	33332	
8226	0	33360	
8227	0	33340	
8228	0	33364	
8229	0	33436	
8230	0	33476	
8231	0	33508	
8232	0	33544	
8233	0	33556	
8234	0	33572	
8235	0	33560	
8236	0	33536	
8237	0	33520	
8238	0	33512	
8239	0	33524	
8240	0	33536	
8241	0	33564	
8242	0	33596	
8243	0	33624	
8244	0	33628	
8245	0	33640	
8246	0	33642	
8247	0	33688	
8248	0	33724	
8249	0	33776	
8250	0	33844	
8251	0	33904	
8252	0	33964	
8253	0	34036	
8254	0	34096	
8255	0	34164	
8256	0	34216	
8257	0	34236	
8258	0	34216	
8259	0	34196	
8260	0	34176	
8261	0	34152	
8262	0	34116	
8263	0	34094	
8264	0	34082	
8265	0	34088	
8266	0	34108	
8267	0	34124	
8268	0	34114	
8269	0	34108	
8270	0	34132	
8271	0	34164	
8272	0	34240	
8273	0	34280	
8274	0	34316	
8275	0	34336	
8276	0	34352	
8277	0	34388	
8278	0	34432	
8279	0	34424	
8280	0	34436	
8281	0	34448	
8282	0	34464	
8283	0	34488	
8284	0	34496	
8285	0	34508	
8286	0	34488	
8287	0	34480	
8288	0	34480	
8289	0	34488	
8290	0	34520	
8291	0	34576	
8292	0	34640	
8293	0	34688	
8294	0	34756	
8295	0	34784	
8296	0	34812	
8297	0	34852	
8298	0	34874	
8299	0	34872	
8300	0	34864	
8301	0	34896	
8302	0	34880	
8303	0	34880	
8304	0	34888	
8305	0	34892	
8306	0	34912	
8307	0	34916	
8308	0	34944	
8309	0	34976	
8310	0	34948	
8311	0	34936	
8312	0	34964	
8313	0	34996	
8314	0	35040	
8315	0	35068	
8316	0	35108	
8317	0	35136	
8318	0	35168	
8319	0	35168	
8320	0	35180	
8321	0	35192	
8322	0	35208	
8323	0	35236	
8324	0	35236	
8325	0	35212	
8326	0	35228	
8327	0	35232	
8328	0	35240	
8329	0	35238	
8330	0	35268	
8331	0	35300	
8332	0	35296	
8333	0	35316	
8334	0	35324	
8335	0	35324	
8336	0	35312	
8337	0	35316	
8338	0	35288	
8339	0	35280	
8340	0	35292	
8341	0	35304	
8342	0	35296	
8343	0	35308	
8344	0	35348	
8345	0	35328	
8346	0	35308	
8347	0	35296	
8348	0	35256	
8349	0	35264	
8350	0	35264	
8351	0	35280	
8352	0	35280	
8353	0	35276	
8354	0	35264	
8355	0	35248	
8356	0	35248	
8357	0	35232	
8358	0	35184	
8359	0	35100	
8360	0	35028	
8361	0	34948	
8362	0	34864	
8363	0	34784	
8364	0	34724	
8365	0	34660	
8366	0	34576	
8367	0	34496	
8368	0	34408	
8369	0	34308	
8370	0	34236	
8371	0	34164	
8372	0	34100	
8373	0	34040	
8374	0	33952	
8375	0	33824	
8376	0	33684	
8377	0	33488	
8378	0	33320	
8379	0	33160	
8380	0	33000	
8381	0	32880	
8382	0	32760	
8383	0	32632	
8384	0	32508	
8385	0	32408	
8386	0	32316	
8387	0	32228	
8388	0	32172	
8389	0	32104	
8390	0	32056	
8391	0	32008	
8392	0	31956	
8393	0	31888	
8394	0	31776	
8395	0	31652	
8396	0	31524	
8397	0	31432	
8398	0	31360	
8399	0	31272	
8400	0	31204	
8401	0	31112	
8402	0	31052	
8403	0	30988	
8404	0	30928	
8405	0	30864	
8406	0	30804	
8407	0	30748	
8408	0	30724	
8409	0	30718	
8410	0	30688	
8411	0	30680	
8412	0	30660	
8413	0	30632	
8414	0	30636	
8415	0	30648	
8416	0	30648	
8417	0	30656	
8418	0	30654	
8419	0	30608	
8420	0	30556	
8421	0	30504	
8422	0	30448	
8423	0	30440	
8424	0	30448	
8425	0	30472	
8426	0	30468	
8427	0	30472	
8428	0	30520	
8429	0	30528	
8430	0	30506	
8431	0	30476	
8432	0	30484	
8433	0	30488	
8434	0	30488	
8435	0	30474	
8436	0	30480	
8437	0	30484	
8438	0	30488	
8439	0	30484	
8440	0	30496	
8441	0	30496	
8442	0	30496	
8443	0	30496	
8444	0	30504	
8445	0	30524	
8446	0	30544	
8447	0	30580	
8448	0	30608	
8449	0	30672	
8450	0	30704	
8451	0	30728	
8452	0	30750	
8453	0	30752	
8454	0	30728	
8455	0	30680	
8456	0	30656	
8457	0	30656	
8458	0	30652	
8459	0	30644	
8460	0	30640	
8461	0	30608	
8462	0	30578	
8463	0	30586	
8464	0	30628	
8465	0	30676	
8466	0	30714	
8467	0	30744	
8468	0	30764	
8469	0	30812	
8470	0	30900	
8471	0	30944	
8472	0	30988	
8473	0	31016	
8474	0	31034	
8475	0	31048	
8476	0	31068	
8477	0	31112	
8478	0	31132	
8479	0	31124	
8480	0	31144	
8481	0	31192	
8482	0	31220	
8483	0	31284	
8484	0	31308	
8485	0	31320	
8486	0	31360	
8487	0	31396	
8488	0	31408	
8489	0	31456	
8490	0	31520	
8491	0	31532	
8492	0	31540	
8493	0	31560	
8494	0	31624	
8495	0	31684	
8496	0	31710	
8497	0	31724	
8498	0	31724	
8499	0	31712	
8500	0	31704	
8501	0	31676	
8502	0	31672	
8503	0	31668	
8504	0	31688	
8505	0	31728	
8506	0	31796	
8507	0	31832	
8508	0	31876	
8509	0	31908	
8510	0	31960	
8511	0	31968	
8512	0	31992	
8513	0	32016	
8514	0	31976	
8515	0	31948	
8516	0	31916	
8517	0	31896	
8518	0	31884	
8519	0	31826	
8520	0	31784	
8521	0	31752	
8522	0	31732	
8523	0	31716	
8524	0	31676	
8525	0	31656	
8526	0	31640	
8527	0	31648	
8528	0	31696	
8529	0	31744	
8530	0	31808	
8531	0	31872	
8532	0	31900	
8533	0	31912	
8534	0	31912	
8535	0	31888	
8536	0	31872	
8537	0	31840	
8538	0	31836	
8539	0	31816	
8540	0	31772	
8541	0	31744	
8542	0	31728	
8543	0	31716	
8544	0	31708	
8545	0	31712	
8546	0	31722	
8547	0	31728	
8548	0	31760	
8549	0	31796	
8550	0	31812	
8551	0	31832	
8552	0	31868	
8553	0	31936	
8554	0	31928	
8555	0	31904	
8556	0	31864	
8557	0	31864	
8558	0	31852	
8559	0	31804	
8560	0	31748	
8561	0	31720	
8562	0	31692	
8563	0	31692	
8564	0	31668	
8565	0	31662	
8566	0	31670	
8567	0	31708	
8568	0	31720	
8569	0	31732	
8570	0	31752	
8571	0	31800	
8572	0	31860	
8573	0	31876	
8574	0	31844	
8575	0	31832	
8576	0	31840	
8577	0	31856	
8578	0	31864	
8579	0	31864	
8580	0	31840	
8581	0	31808	
8582	0	31752	
8583	0	31708	
8584	0	31692	
8585	0	31668	
8586	0	31660	
8587	0	31632	
8588	0	31612	
8589	0	31620	
8590	0	31648	
8591	0	31688	
8592	0	31710	
