# OpenSignals Text File Format. Version 1
# {"00:07:80:4B:15:F7": {"position": 0, "device": "biosignalsplux", "device name": "00:07:80:4B:15:F7", "device connection": "BTH00:07:80:4B:15:F7", "sampling rate": 1000, "resolution": [16], "firmware version": 775, "comments": "", "keywords": "", "mode": 0, "sync interval": 2, "date": "2023-3-14", "time": "14:25:18.232", "channels": [1], "sensor": ["ECG"], "label": ["CH1"], "column": ["nSeq", "DI", "CH1"], "special": [{"SpO2": [80, 40, 5, 4, 3, 3]}, {"SpO2": [80, 40, 5, 4, 3, 3]}, {"SpO2": [80, 40, 5, 4, 3, 3]}, {"SpO2": [80, 40, 5, 4, 3, 3]}, {"SpO2": [80, 40, 5, 4, 3, 3]}, {"SpO2": [80, 40, 5, 4, 3, 3]}, {"SpO2": [80, 40, 5, 4, 3, 3]}, {"SpO2": [80, 40, 5, 4, 3, 3]}], "digital IO": [0, 1], "sleeve color": ["green"], "convertedValues": 0}}
# EndOfHeader
0	0	31784	
1	0	31696	
2	0	31652	
3	0	31596	
4	0	31652	
5	0	31708	
6	0	31664	
7	0	31544	
8	0	31440	
9	0	31472	
10	0	31624	
11	0	31770	
12	0	31800	
13	0	31868	
14	0	31952	
15	0	32064	
16	0	32156	
17	0	32232	
18	0	32272	
19	0	32304	
20	0	32280	
21	0	32212	
22	0	32032	
23	0	31896	
24	0	31792	
25	0	31688	
26	0	31664	
27	0	31636	
28	0	31544	
29	0	31480	
30	0	31480	
31	0	31532	
32	0	31632	
33	0	31708	
34	0	31738	
35	0	31748	
36	0	31732	
37	0	31688	
38	0	31732	
39	0	31770	
40	0	31756	
41	0	31692	
42	0	31652	
43	0	31652	
44	0	31668	
45	0	31708	
46	0	31772	
47	0	31816	
48	0	31840	
49	0	31884	
50	0	31936	
51	0	31936	
52	0	31920	
53	0	31904	
54	0	31808	
55	0	31772	
56	0	31780	
57	0	31792	
58	0	31802	
59	0	31800	
60	0	31792	
61	0	31764	
62	0	31712	
63	0	31648	
64	0	31572	
65	0	31524	
66	0	31428	
67	0	31324	
68	0	31308	
69	0	31340	
70	0	31386	
71	0	31420	
72	0	31504	
73	0	31640	
74	0	31820	
75	0	31964	
76	0	32052	
77	0	32152	
78	0	32168	
79	0	32112	
80	0	32064	
81	0	31980	
82	0	31828	
83	0	31676	
84	0	31512	
85	0	31376	
86	0	31328	
87	0	31328	
88	0	31376	
89	0	31420	
90	0	31488	
91	0	31576	
92	0	31640	
93	0	31652	
94	0	31560	
95	0	31556	
96	0	31568	
97	0	31636	
98	0	31684	
99	0	31724	
100	0	31720	
101	0	31736	
102	0	31698	
103	0	31684	
104	0	31640	
105	0	31568	
106	0	31512	
107	0	31440	
108	0	31394	
109	0	31368	
110	0	31380	
111	0	31448	
112	0	31552	
113	0	31616	
114	0	31637	
115	0	31682	
116	0	31728	
117	0	31772	
118	0	31840	
119	0	31872	
120	0	31864	
121	0	31788	
122	0	31760	
123	0	31748	
124	0	31672	
125	0	31628	
126	0	31644	
127	0	31728	
128	0	31808	
129	0	31840	
130	0	31880	
131	0	31966	
132	0	32056	
133	0	32128	
134	0	32144	
135	0	32140	
136	0	32170	
137	0	32216	
138	0	32236	
139	0	32272	
140	0	32256	
141	0	32188	
142	0	32120	
143	0	32092	
144	0	32088	
145	0	32088	
146	0	32112	
147	0	32150	
148	0	32164	
149	0	32132	
150	0	32128	
151	0	32124	
152	0	32192	
153	0	32268	
154	0	32308	
155	0	32340	
156	0	32426	
157	0	32578	
158	0	32752	
159	0	32920	
160	0	33080	
161	0	33216	
162	0	33332	
163	0	33448	
164	0	33540	
165	0	33616	
166	0	33672	
167	0	33728	
168	0	33754	
169	0	33770	
170	0	33860	
171	0	33976	
172	0	34052	
173	0	34076	
174	0	33978	
175	0	33884	
176	0	33816	
177	0	33728	
178	0	33600	
179	0	33460	
180	0	33368	
181	0	33228	
182	0	33054	
183	0	32914	
184	0	32816	
185	0	32704	
186	0	32674	
187	0	32640	
188	0	32560	
189	0	32552	
190	0	32596	
191	0	32660	
192	0	32700	
193	0	32704	
194	0	32658	
195	0	32616	
196	0	32616	
197	0	32640	
198	0	32644	
199	0	32682	
200	0	32664	
201	0	32648	
202	0	32580	
203	0	32458	
204	0	32396	
205	0	32344	
206	0	32288	
207	0	32272	
208	0	32272	
209	0	32260	
210	0	32256	
211	0	32280	
212	0	32258	
213	0	32272	
214	0	32316	
215	0	32320	
216	0	32272	
217	0	32220	
218	0	32164	
219	0	32136	
220	0	32072	
221	0	32038	
222	0	31970	
223	0	31904	
224	0	31884	
225	0	31856	
226	0	31812	
227	0	31812	
228	0	31784	
229	0	31800	
230	0	31850	
231	0	31876	
232	0	31916	
233	0	31984	
234	0	32014	
235	0	32024	
236	0	32032	
237	0	32104	
238	0	32204	
239	0	32288	
240	0	32288	
241	0	32232	
242	0	32140	
243	0	32092	
244	0	32048	
245	0	32060	
246	0	32120	
247	0	32128	
248	0	32100	
249	0	32108	
250	0	32112	
251	0	32080	
252	0	32098	
253	0	32120	
254	0	32196	
255	0	32296	
256	0	32324	
257	0	32320	
258	0	32288	
259	0	32248	
260	0	32232	
261	0	32244	
262	0	32264	
263	0	32240	
264	0	32228	
265	0	32232	
266	0	32276	
267	0	32236	
268	0	32192	
269	0	32180	
270	0	32232	
271	0	32360	
272	0	32520	
273	0	32628	
274	0	32656	
275	0	32664	
276	0	32634	
277	0	32628	
278	0	32648	
279	0	32672	
280	0	32648	
281	0	32576	
282	0	32500	
283	0	32464	
284	0	32472	
285	0	32524	
286	0	32604	
287	0	32648	
288	0	32648	
289	0	32700	
290	0	32752	
291	0	32816	
292	0	32888	
293	0	32896	
294	0	32832	
295	0	32716	
296	0	32680	
297	0	32768	
298	0	32896	
299	0	33084	
300	0	33404	
301	0	33800	
302	0	34194	
303	0	34608	
304	0	34986	
305	0	35328	
306	0	35552	
307	0	35656	
308	0	35732	
309	0	36076	
310	0	36584	
311	0	37280	
312	0	38212	
313	0	39344	
314	0	40632	
315	0	42052	
316	0	43536	
317	0	45120	
318	0	46832	
319	0	48672	
320	0	50608	
321	0	52532	
322	0	54272	
323	0	55840	
324	0	57304	
325	0	58548	
326	0	59628	
327	0	60608	
328	0	61300	
329	0	61444	
330	0	60616	
331	0	58772	
332	0	55908	
333	0	52224	
334	0	47972	
335	0	43416	
336	0	39136	
337	0	35608	
338	0	32896	
339	0	30992	
340	0	29692	
341	0	28884	
342	0	28476	
343	0	28416	
344	0	28552	
345	0	28744	
346	0	29020	
347	0	29372	
348	0	29756	
349	0	30156	
350	0	30524	
351	0	30908	
352	0	31160	
353	0	31380	
354	0	31556	
355	0	31672	
356	0	31736	
357	0	31752	
358	0	31732	
359	0	31698	
360	0	31640	
361	0	31604	
362	0	31544	
363	0	31508	
364	0	31444	
365	0	31340	
366	0	31248	
367	0	31160	
368	0	31104	
369	0	31080	
370	0	31160	
371	0	31240	
372	0	31248	
373	0	31224	
374	0	31216	
375	0	31202	
376	0	31236	
377	0	31240	
378	0	31264	
379	0	31316	
380	0	31364	
381	0	31336	
382	0	31280	
383	0	31222	
384	0	31176	
385	0	31188	
386	0	31176	
387	0	31200	
388	0	31256	
389	0	31290	
390	0	31324	
391	0	31376	
392	0	31412	
393	0	31456	
394	0	31476	
395	0	31536	
396	0	31616	
397	0	31728	
398	0	31796	
399	0	31820	
400	0	31764	
401	0	31700	
402	0	31644	
403	0	31608	
404	0	31588	
405	0	31632	
406	0	31696	
407	0	31704	
408	0	31708	
409	0	31764	
410	0	31824	
411	0	31876	
412	0	31936	
413	0	31984	
414	0	32020	
415	0	32076	
416	0	32144	
417	0	32204	
418	0	32208	
419	0	32236	
420	0	32216	
421	0	32192	
422	0	32152	
423	0	32148	
424	0	32164	
425	0	32208	
426	0	32258	
427	0	32276	
428	0	32280	
429	0	32304	
430	0	32372	
431	0	32464	
432	0	32572	
433	0	32648	
434	0	32678	
435	0	32692	
436	0	32668	
437	0	32680	
438	0	32680	
439	0	32684	
440	0	32682	
441	0	32664	
442	0	32664	
443	0	32620	
444	0	32592	
445	0	32568	
446	0	32554	
447	0	32576	
448	0	32568	
449	0	32612	
450	0	32684	
451	0	32808	
452	0	32962	
453	0	33068	
454	0	33080	
455	0	33104	
456	0	33148	
457	0	33172	
458	0	33172	
459	0	33200	
460	0	33172	
461	0	33120	
462	0	33040	
463	0	32976	
464	0	32944	
465	0	32928	
466	0	32952	
467	0	33000	
468	0	33086	
469	0	33172	
470	0	33296	
471	0	33432	
472	0	33544	
473	0	33642	
474	0	33700	
475	0	33752	
476	0	33752	
477	0	33732	
478	0	33736	
479	0	33768	
480	0	33752	
481	0	33712	
482	0	33618	
483	0	33520	
484	0	33464	
485	0	33456	
486	0	33464	
487	0	33470	
488	0	33480	
489	0	33528	
490	0	33576	
491	0	33652	
492	0	33712	
493	0	33776	
494	0	33840	
495	0	33920	
496	0	33992	
497	0	34044	
498	0	34080	
499	0	34122	
500	0	34108	
501	0	34052	
502	0	34024	
503	0	34008	
504	0	34008	
505	0	33946	
506	0	33908	
507	0	33876	
508	0	33848	
509	0	33866	
510	0	33956	
511	0	34056	
512	0	34120	
513	0	34192	
514	0	34264	
515	0	34332	
516	0	34336	
517	0	34292	
518	0	34280	
519	0	34304	
520	0	34364	
521	0	34360	
522	0	34344	
523	0	34322	
524	0	34292	
525	0	34304	
526	0	34324	
527	0	34322	
528	0	34332	
529	0	34311	
530	0	34264	
531	0	34308	
532	0	34392	
533	0	34440	
534	0	34488	
535	0	34528	
536	0	34536	
537	0	34580	
538	0	34604	
539	0	34672	
540	0	34640	
541	0	34560	
542	0	34508	
543	0	34504	
544	0	34488	
545	0	34520	
546	0	34540	
547	0	34524	
548	0	34488	
549	0	34428	
550	0	34408	
551	0	34456	
552	0	34508	
553	0	34544	
554	0	34552	
555	0	34568	
556	0	34560	
557	0	34584	
558	0	34608	
559	0	34628	
560	0	34620	
561	0	34596	
562	0	34580	
563	0	34548	
564	0	34534	
565	0	34528	
566	0	34528	
567	0	34544	
568	0	34520	
569	0	34452	
570	0	34444	
571	0	34416	
572	0	34400	
573	0	34396	
574	0	34400	
575	0	34400	
576	0	34388	
577	0	34372	
578	0	34396	
579	0	34428	
580	0	34444	
581	0	34400	
582	0	34344	
583	0	34328	
584	0	34344	
585	0	34344	
586	0	34280	
587	0	34176	
588	0	34132	
589	0	34108	
590	0	34088	
591	0	34072	
592	0	34056	
593	0	34032	
594	0	33976	
595	0	33908	
596	0	33866	
597	0	33832	
598	0	33780	
599	0	33736	
600	0	33688	
601	0	33580	
602	0	33464	
603	0	33402	
604	0	33304	
605	0	33192	
606	0	33116	
607	0	33064	
608	0	33016	
609	0	32984	
610	0	32924	
611	0	32828	
612	0	32780	
613	0	32740	
614	0	32676	
615	0	32604	
616	0	32544	
617	0	32476	
618	0	32416	
619	0	32336	
620	0	32240	
621	0	32112	
622	0	32004	
623	0	31936	
624	0	31832	
625	0	31724	
626	0	31652	
627	0	31564	
628	0	31436	
629	0	31312	
630	0	31248	
631	0	31234	
632	0	31216	
633	0	31208	
634	0	31196	
635	0	31160	
636	0	31090	
637	0	31044	
638	0	31028	
639	0	31008	
640	0	30972	
641	0	30884	
642	0	30816	
643	0	30740	
644	0	30644	
645	0	30592	
646	0	30518	
647	0	30448	
648	0	30452	
649	0	30460	
650	0	30472	
651	0	30528	
652	0	30608	
653	0	30660	
654	0	30664	
655	0	30672	
656	0	30660	
657	0	30664	
658	0	30688	
659	0	30736	
660	0	30796	
661	0	30784	
662	0	30744	
663	0	30672	
664	0	30644	
665	0	30604	
666	0	30580	
667	0	30528	
668	0	30514	
669	0	30528	
670	0	30580	
671	0	30668	
672	0	30760	
673	0	30832	
674	0	30906	
675	0	30952	
676	0	31036	
677	0	31076	
678	0	31056	
679	0	31060	
680	0	31104	
681	0	31092	
682	0	31040	
683	0	31000	
684	0	31000	
685	0	31004	
686	0	31010	
687	0	31036	
688	0	31040	
689	0	31044	
690	0	31056	
691	0	31088	
692	0	31160	
693	0	31218	
694	0	31274	
695	0	31328	
696	0	31392	
697	0	31404	
698	0	31436	
699	0	31490	
700	0	31520	
701	0	31516	
702	0	31500	
703	0	31492	
704	0	31450	
705	0	31440	
706	0	31448	
707	0	31440	
708	0	31368	
709	0	31340	
710	0	31400	
711	0	31488	
712	0	31564	
713	0	31616	
714	0	31608	
715	0	31544	
716	0	31522	
717	0	31508	
718	0	31520	
719	0	31532	
720	0	31512	
721	0	31492	
722	0	31460	
723	0	31464	
724	0	31468	
725	0	31424	
726	0	31404	
727	0	31416	
728	0	31408	
729	0	31408	
730	0	31428	
731	0	31482	
732	0	31576	
733	0	31616	
734	0	31656	
735	0	31728	
736	0	31744	
737	0	31712	
738	0	31646	
739	0	31632	
740	0	31616	
741	0	31588	
742	0	31536	
743	0	31484	
744	0	31424	
745	0	31348	
746	0	31312	
747	0	31312	
748	0	31308	
749	0	31332	
750	0	31348	
751	0	31364	
752	0	31440	
753	0	31540	
754	0	31572	
755	0	31576	
756	0	31608	
757	0	31620	
758	0	31612	
759	0	31624	
760	0	31592	
761	0	31548	
762	0	31504	
763	0	31464	
764	0	31432	
765	0	31408	
766	0	31404	
767	0	31368	
768	0	31354	
769	0	31344	
770	0	31376	
771	0	31434	
772	0	31500	
773	0	31544	
774	0	31540	
775	0	31560	
776	0	31580	
777	0	31572	
778	0	31600	
779	0	31620	
780	0	31648	
781	0	31660	
782	0	31644	
783	0	31592	
784	0	31556	
785	0	31540	
786	0	31522	
787	0	31512	
788	0	31468	
789	0	31452	
790	0	31432	
791	0	31468	
792	0	31516	
793	0	31544	
794	0	31592	
795	0	31640	
796	0	31692	
797	0	31748	
798	0	31744	
799	0	31720	
800	0	31704	
801	0	31636	
802	0	31564	
803	0	31540	
804	0	31514	
805	0	31508	
806	0	31496	
807	0	31444	
808	0	31408	
809	0	31400	
810	0	31420	
811	0	31476	
812	0	31528	
813	0	31608	
814	0	31656	
815	0	31712	
816	0	31768	
817	0	31816	
818	0	31816	
819	0	31840	
820	0	31832	
821	0	31728	
822	0	31600	
823	0	31524	
824	0	31484	
825	0	31408	
826	0	31402	
827	0	31426	
828	0	31420	
829	0	31436	
830	0	31488	
831	0	31544	
832	0	31604	
833	0	31676	
834	0	31720	
835	0	31764	
836	0	31786	
837	0	31824	
838	0	31864	
839	0	31896	
840	0	31892	
841	0	31856	
842	0	31824	
843	0	31788	
844	0	31732	
845	0	31672	
846	0	31616	
847	0	31584	
848	0	31584	
849	0	31624	
850	0	31668	
851	0	31704	
852	0	31776	
853	0	31844	
854	0	31864	
855	0	31856	
856	0	31872	
857	0	31888	
858	0	31916	
859	0	31960	
860	0	31992	
861	0	32000	
862	0	31956	
863	0	31932	
864	0	31940	
865	0	31934	
866	0	31937	
867	0	31904	
868	0	31892	
869	0	31912	
870	0	31924	
871	0	31956	
872	0	31976	
873	0	32020	
874	0	32060	
875	0	32064	
876	0	32090	
877	0	32080	
878	0	32080	
879	0	32096	
880	0	32096	
881	0	32052	
882	0	31988	
883	0	31928	
884	0	31852	
885	0	31796	
886	0	31780	
887	0	31800	
888	0	31832	
889	0	31860	
890	0	31912	
891	0	32000	
892	0	32144	
893	0	32244	
894	0	32320	
895	0	32356	
896	0	32424	
897	0	32512	
898	0	32564	
899	0	32584	
900	0	32580	
901	0	32528	
902	0	32452	
903	0	32420	
904	0	32396	
905	0	32340	
906	0	32320	
907	0	32296	
908	0	32296	
909	0	32304	
910	0	32304	
911	0	32340	
912	0	32388	
913	0	32444	
914	0	32500	
915	0	32568	
916	0	32668	
917	0	32856	
918	0	33016	
919	0	33122	
920	0	33220	
921	0	33288	
922	0	33336	
923	0	33424	
924	0	33524	
925	0	33616	
926	0	33696	
927	0	33788	
928	0	33872	
929	0	33956	
930	0	34044	
931	0	34136	
932	0	34212	
933	0	34192	
934	0	34100	
935	0	33944	
936	0	33776	
937	0	33640	
938	0	33560	
939	0	33500	
940	0	33440	
941	0	33312	
942	0	33172	
943	0	33060	
944	0	32914	
945	0	32826	
946	0	32772	
947	0	32724	
948	0	32688	
949	0	32676	
950	0	32690	
951	0	32736	
952	0	32778	
953	0	32804	
954	0	32832	
955	0	32856	
956	0	32850	
957	0	32828	
958	0	32844	
959	0	32848	
960	0	32860	
961	0	32824	
962	0	32780	
963	0	32776	
964	0	32768	
965	0	32736	
966	0	32712	
967	0	32704	
968	0	32636	
969	0	32594	
970	0	32628	
971	0	32660	
972	0	32696	
973	0	32672	
974	0	32624	
975	0	32572	
976	0	32500	
977	0	32452	
978	0	32380	
979	0	32352	
980	0	32344	
981	0	32308	
982	0	32274	
983	0	32228	
984	0	32168	
985	0	32136	
986	0	32172	
987	0	32232	
988	0	32280	
989	0	32284	
990	0	32264	
991	0	32280	
992	0	32320	
993	0	32368	
994	0	32408	
995	0	32428	
996	0	32430	
997	0	32424	
998	0	32420	
999	0	32432	
1000	0	32452	
1001	0	32444	
1002	0	32400	
1003	0	32364	
1004	0	32356	
1005	0	32352	
1006	0	32322	
1007	0	32260	
1008	0	32172	
1009	0	32180	
1010	0	32226	
1011	0	32288	
1012	0	32336	
1013	0	32382	
1014	0	32424	
1015	0	32456	
1016	0	32504	
1017	0	32576	
1018	0	32620	
1019	0	32612	
1020	0	32592	
1021	0	32548	
1022	0	32496	
1023	0	32416	
1024	0	32372	
1025	0	32332	
1026	0	32332	
1027	0	32354	
1028	0	32396	
1029	0	32384	
1030	0	32384	
1031	0	32448	
1032	0	32528	
1033	0	32564	
1034	0	32576	
1035	0	32576	
1036	0	32576	
1037	0	32584	
1038	0	32596	
1039	0	32624	
1040	0	32684	
1041	0	32696	
1042	0	32668	
1043	0	32640	
1044	0	32642	
1045	0	32666	
1046	0	32696	
1047	0	32732	
1048	0	32748	
1049	0	32752	
1050	0	32800	
1051	0	32832	
1052	0	32836	
1053	0	32840	
1054	0	32836	
1055	0	32808	
1056	0	32796	
1057	0	32776	
1058	0	32824	
1059	0	33060	
1060	0	33408	
1061	0	33720	
1062	0	34008	
1063	0	34276	
1064	0	34468	
1065	0	34640	
1066	0	34680	
1067	0	34656	
1068	0	34744	
1069	0	35060	
1070	0	35604	
1071	0	36344	
1072	0	37292	
1073	0	38456	
1074	0	39824	
1075	0	41288	
1076	0	42792	
1077	0	44392	
1078	0	46052	
1079	0	47780	
1080	0	49492	
1081	0	51048	
1082	0	52384	
1083	0	53628	
1084	0	54656	
1085	0	55712	
1086	0	56880	
1087	0	57760	
1088	0	58288	
1089	0	58156	
1090	0	56992	
1091	0	54880	
1092	0	51840	
1093	0	48288	
1094	0	44468	
1095	0	40680	
1096	0	37368	
1097	0	34800	
1098	0	32952	
1099	0	31704	
1100	0	30904	
1101	0	30388	
1102	0	30112	
1103	0	30008	
1104	0	29944	
1105	0	29946	
1106	0	30066	
1107	0	30256	
1108	0	30436	
1109	0	30628	
1110	0	30848	
1111	0	31036	
1112	0	31248	
1113	0	31458	
1114	0	31628	
1115	0	31732	
1116	0	31796	
1117	0	31856	
1118	0	31904	
1119	0	31924	
1120	0	31888	
1121	0	31808	
1122	0	31692	
1123	0	31584	
1124	0	31472	
1125	0	31364	
1126	0	31280	
1127	0	31204	
1128	0	31144	
1129	0	31104	
1130	0	31096	
1131	0	31112	
1132	0	31164	
1133	0	31248	
1134	0	31304	
1135	0	31320	
1136	0	31352	
1137	0	31388	
1138	0	31436	
1139	0	31456	
1140	0	31504	
1141	0	31498	
1142	0	31456	
1143	0	31404	
1144	0	31376	
1145	0	31328	
1146	0	31316	
1147	0	31288	
1148	0	31276	
1149	0	31264	
1150	0	31272	
1151	0	31336	
1152	0	31404	
1153	0	31472	
1154	0	31530	
1155	0	31588	
1156	0	31640	
1157	0	31668	
1158	0	31704	
1159	0	31740	
1160	0	31744	
1161	0	31736	
1162	0	31692	
1163	0	31696	
1164	0	31704	
1165	0	31692	
1166	0	31684	
1167	0	31664	
1168	0	31676	
1169	0	31716	
1170	0	31772	
1171	0	31832	
1172	0	31904	
1173	0	31988	
1174	0	32064	
1175	0	32112	
1176	0	32170	
1177	0	32224	
1178	0	32288	
1179	0	32356	
1180	0	32392	
1181	0	32392	
1182	0	32380	
1183	0	32344	
1184	0	32332	
1185	0	32320	
1186	0	32304	
1187	0	32248	
1188	0	32236	
1189	0	32284	
1190	0	32308	
1191	0	32332	
1192	0	32384	
1193	0	32426	
1194	0	32474	
1195	0	32540	
1196	0	32602	
1197	0	32652	
1198	0	32696	
1199	0	32720	
1200	0	32760	
1201	0	32788	
1202	0	32784	
1203	0	32756	
1204	0	32732	
1205	0	32708	
1206	0	32708	
1207	0	32712	
1208	0	32732	
1209	0	32756	
1210	0	32776	
1211	0	32796	
1212	0	32832	
1213	0	32900	
1214	0	32908	
1215	0	32904	
1216	0	32924	
1217	0	32956	
1218	0	33024	
1219	0	33100	
1220	0	33184	
1221	0	33188	
1222	0	33132	
1223	0	33080	
1224	0	33048	
1225	0	33016	
1226	0	33008	
1227	0	33000	
1228	0	33008	
1229	0	33016	
1230	0	33036	
1231	0	33072	
1232	0	33128	
1233	0	33188	
1234	0	33264	
1235	0	33316	
1236	0	33364	
1237	0	33428	
1238	0	33472	
1239	0	33504	
1240	0	33520	
1241	0	33496	
1242	0	33464	
1243	0	33404	
1244	0	33356	
1245	0	33338	
1246	0	33316	
1247	0	33314	
1248	0	33340	
1249	0	33352	
1250	0	33364	
1251	0	33412	
1252	0	33464	
1253	0	33512	
1254	0	33556	
1255	0	33588	
1256	0	33628	
1257	0	33664	
1258	0	33698	
1259	0	33732	
1260	0	33756	
1261	0	33724	
1262	0	33644	
1263	0	33586	
1264	0	33556	
1265	0	33560	
1266	0	33552	
1267	0	33548	
1268	0	33544	
1269	0	33548	
1270	0	33588	
1271	0	33652	
1272	0	33728	
1273	0	33812	
1274	0	33878	
1275	0	33888	
1276	0	33920	
1277	0	33936	
1278	0	33972	
1279	0	34016	
1280	0	34048	
1281	0	34032	
1282	0	33996	
1283	0	33944	
1284	0	33856	
1285	0	33804	
1286	0	33772	
1287	0	33768	
1288	0	33744	
1289	0	33728	
1290	0	33736	
1291	0	33768	
1292	0	33824	
1293	0	33889	
1294	0	33936	
1295	0	33952	
1296	0	33968	
1297	0	33972	
1298	0	34004	
1299	0	34016	
1300	0	34036	
1301	0	34044	
1302	0	34048	
1303	0	34032	
1304	0	34016	
1305	0	33976	
1306	0	33948	
1307	0	33912	
1308	0	33896	
1309	0	33872	
1310	0	33856	
1311	0	33856	
1312	0	33916	
1313	0	33976	
1314	0	34020	
1315	0	34020	
1316	0	34008	
1317	0	34040	
1318	0	34052	
1319	0	34068	
1320	0	34074	
1321	0	34060	
1322	0	34012	
1323	0	33944	
1324	0	33908	
1325	0	33852	
1326	0	33772	
1327	0	33716	
1328	0	33694	
1329	0	33664	
1330	0	33656	
1331	0	33688	
1332	0	33752	
1333	0	33828	
1334	0	33892	
1335	0	33932	
1336	0	33964	
1337	0	33936	
1338	0	33956	
1339	0	33984	
1340	0	34012	
1341	0	33984	
1342	0	33908	
1343	0	33840	
1344	0	33808	
1345	0	33768	
1346	0	33760	
1347	0	33756	
1348	0	33744	
1349	0	33728	
1350	0	33724	
1351	0	33724	
1352	0	33744	
1353	0	33776	
1354	0	33808	
1355	0	33792	
1356	0	33792	
1357	0	33752	
1358	0	33708	
1359	0	33672	
1360	0	33652	
1361	0	33576	
1362	0	33468	
1363	0	33380	
1364	0	33314	
1365	0	33244	
1366	0	33184	
1367	0	33128	
1368	0	33080	
1369	0	33008	
1370	0	32940	
1371	0	32888	
1372	0	32848	
1373	0	32848	
1374	0	32828	
1375	0	32800	
1376	0	32778	
1377	0	32744	
1378	0	32700	
1379	0	32640	
1380	0	32580	
1381	0	32484	
1382	0	32374	
1383	0	32260	
1384	0	32160	
1385	0	32068	
1386	0	31976	
1387	0	31916	
1388	0	31856	
1389	0	31788	
1390	0	31732	
1391	0	31708	
1392	0	31696	
1393	0	31672	
1394	0	31640	
1395	0	31592	
1396	0	31568	
1397	0	31520	
1398	0	31492	
1399	0	31452	
1400	0	31424	
1401	0	31376	
1402	0	31312	
1403	0	31228	
1404	0	31168	
1405	0	31128	
1406	0	31072	
1407	0	31056	
1408	0	31032	
1409	0	30988	
1410	0	30960	
1411	0	30984	
1412	0	31000	
1413	0	31052	
1414	0	31112	
1415	0	31136	
1416	0	31148	
1417	0	31184	
1418	0	31216	
1419	0	31224	
1420	0	31224	
1421	0	31200	
1422	0	31136	
1423	0	31088	
1424	0	31072	
1425	0	31088	
1426	0	31084	
1427	0	31072	
1428	0	31076	
1429	0	31080	
1430	0	31112	
1431	0	31120	
1432	0	31120	
1433	0	31156	
1434	0	31196	
1435	0	31232	
1436	0	31256	
1437	0	31304	
1438	0	31336	
1439	0	31368	
1440	0	31384	
1441	0	31368	
1442	0	31344	
1443	0	31324	
1444	0	31290	
1445	0	31256	
1446	0	31272	
1447	0	31284	
1448	0	31284	
1449	0	31284	
1450	0	31280	
1451	0	31316	
1452	0	31356	
1453	0	31412	
1454	0	31516	
1455	0	31562	
1456	0	31592	
1457	0	31660	
1458	0	31712	
1459	0	31760	
1460	0	31796	
1461	0	31778	
1462	0	31728	
1463	0	31672	
1464	0	31628	
1465	0	31576	
1466	0	31500	
1467	0	31476	
1468	0	31428	
1469	0	31420	
1470	0	31412	
1471	0	31456	
1472	0	31504	
1473	0	31576	
1474	0	31648	
1475	0	31682	
1476	0	31696	
1477	0	31708	
1478	0	31728	
1479	0	31772	
1480	0	31788	
1481	0	31748	
1482	0	31696	
1483	0	31628	
1484	0	31560	
1485	0	31524	
1486	0	31508	
1487	0	31500	
1488	0	31512	
1489	0	31500	
1490	0	31496	
1491	0	31556	
1492	0	31600	
1493	0	31652	
1494	0	31688	
1495	0	31716	
1496	0	31724	
1497	0	31736	
1498	0	31766	
1499	0	31800	
1500	0	31820	
1501	0	31824	
1502	0	31808	
1503	0	31748	
1504	0	31676	
1505	0	31640	
1506	0	31612	
1507	0	31600	
1508	0	31584	
1509	0	31564	
1510	0	31548	
1511	0	31584	
1512	0	31632	
1513	0	31692	
1514	0	31720	
1515	0	31744	
1516	0	31756	
1517	0	31776	
1518	0	31796	
1519	0	31800	
1520	0	31824	
1521	0	31816	
1522	0	31752	
1523	0	31712	
1524	0	31676	
1525	0	31636	
1526	0	31632	
1527	0	31616	
1528	0	31626	
1529	0	31632	
1530	0	31636	
1531	0	31672	
1532	0	31736	
1533	0	31784	
1534	0	31820	
1535	0	31856	
1536	0	31864	
1537	0	31896	
1538	0	31912	
1539	0	31916	
1540	0	31896	
1541	0	31848	
1542	0	31808	
1543	0	31752	
1544	0	31688	
1545	0	31632	
1546	0	31596	
1547	0	31588	
1548	0	31572	
1549	0	31560	
1550	0	31556	
1551	0	31608	
1552	0	31660	
1553	0	31684	
1554	0	31712	
1555	0	31752	
1556	0	31780	
1557	0	31808	
1558	0	31816	
1559	0	31820	
1560	0	31836	
1561	0	31840	
1562	0	31804	
1563	0	31764	
1564	0	31684	
1565	0	31624	
1566	0	31612	
1567	0	31604	
1568	0	31588	
1569	0	31588	
1570	0	31592	
1571	0	31612	
1572	0	31664	
1573	0	31752	
1574	0	31832	
1575	0	31864	
1576	0	31892	
1577	0	31948	
1578	0	31968	
1579	0	31968	
1580	0	31960	
1581	0	31968	
1582	0	31932	
1583	0	31882	
1584	0	31842	
1585	0	31840	
1586	0	31848	
1587	0	31884	
1588	0	31876	
1589	0	31860	
1590	0	31832	
1591	0	31828	
1592	0	31872	
1593	0	31924	
1594	0	31976	
1595	0	31992	
1596	0	32026	
1597	0	32064	
1598	0	32101	
1599	0	32112	
1600	0	32140	
1601	0	32156	
1602	0	32120	
1603	0	32060	
1604	0	32014	
1605	0	31968	
1606	0	31956	
1607	0	31944	
1608	0	31940	
1609	0	31944	
1610	0	31944	
1611	0	31964	
1612	0	32028	
1613	0	32088	
1614	0	32164	
1615	0	32208	
1616	0	32224	
1617	0	32268	
1618	0	32280	
1619	0	32288	
1620	0	32320	
1621	0	32316	
1622	0	32228	
1623	0	32148	
1624	0	32100	
1625	0	32044	
1626	0	32016	
1627	0	31992	
1628	0	32004	
1629	0	31964	
1630	0	31948	
1631	0	31988	
1632	0	32040	
1633	0	32100	
1634	0	32152	
1635	0	32200	
1636	0	32240	
1637	0	32256	
1638	0	32268	
1639	0	32288	
1640	0	32304	
1641	0	32308	
1642	0	32248	
1643	0	32204	
1644	0	32164	
1645	0	32148	
1646	0	32112	
1647	0	32088	
1648	0	32064	
1649	0	32056	
1650	0	32068	
1651	0	32088	
1652	0	32156	
1653	0	32208	
1654	0	32264	
1655	0	32292	
1656	0	32304	
1657	0	32328	
1658	0	32332	
1659	0	32352	
1660	0	32368	
1661	0	32344	
1662	0	32316	
1663	0	32264	
1664	0	32224	
1665	0	32198	
1666	0	32184	
1667	0	32168	
1668	0	32148	
1669	0	32116	
1670	0	32088	
1671	0	32108	
1672	0	32156	
1673	0	32216	
1674	0	32276	
1675	0	32300	
1676	0	32344	
1677	0	32380	
1678	0	32396	
1679	0	32404	
1680	0	32408	
1681	0	32412	
1682	0	32372	
1683	0	32312	
1684	0	32288	
1685	0	32272	
1686	0	32228	
1687	0	32192	
1688	0	32158	
1689	0	32154	
1690	0	32172	
1691	0	32188	
1692	0	32248	
1693	0	32340	
1694	0	32408	
1695	0	32420	
1696	0	32416	
1697	0	32428	
1698	0	32448	
1699	0	32464	
1700	0	32516	
1701	0	32576	
1702	0	32584	
1703	0	32586	
1704	0	32556	
1705	0	32576	
1706	0	32604	
1707	0	32648	
1708	0	32680	
1709	0	32688	
1710	0	32672	
1711	0	32684	
1712	0	32708	
1713	0	32728	
1714	0	32736	
1715	0	32748	
1716	0	32768	
1717	0	32792	
1718	0	32808	
1719	0	32848	
1720	0	32876	
1721	0	32892	
1722	0	32844	
1723	0	32816	
1724	0	32816	
1725	0	32840	
1726	0	32892	
1727	0	32984	
1728	0	33098	
1729	0	33216	
1730	0	33332	
1731	0	33432	
1732	0	33568	
1733	0	33712	
1734	0	33884	
1735	0	34036	
1736	0	34148	
1737	0	34212	
1738	0	34284	
1739	0	34344	
1740	0	34420	
1741	0	34448	
1742	0	34384	
1743	0	34264	
1744	0	34156	
1745	0	34042	
1746	0	33920	
1747	0	33812	
1748	0	33728	
1749	0	33620	
1750	0	33552	
1751	0	33482	
1752	0	33452	
1753	0	33424	
1754	0	33384	
1755	0	33356	
1756	0	33316	
1757	0	33296	
1758	0	33264	
1759	0	33224	
1760	0	33184	
1761	0	33148	
1762	0	33076	
1763	0	32974	
1764	0	32884	
1765	0	32860	
1766	0	32810	
1767	0	32748	
1768	0	32704	
1769	0	32680	
1770	0	32692	
1771	0	32700	
1772	0	32772	
1773	0	32864	
1774	0	32924	
1775	0	32928	
1776	0	32932	
1777	0	32928	
1778	0	32940	
1779	0	32944	
1780	0	32916	
1781	0	32864	
1782	0	32778	
1783	0	32712	
1784	0	32648	
1785	0	32584	
1786	0	32476	
1787	0	32400	
1788	0	32312	
1789	0	32220	
1790	0	32144	
1791	0	32136	
1792	0	32184	
1793	0	32224	
1794	0	32272	
1795	0	32332	
1796	0	32364	
1797	0	32408	
1798	0	32420	
1799	0	32444	
1800	0	32428	
1801	0	32384	
1802	0	32320	
1803	0	32256	
1804	0	32208	
1805	0	32172	
1806	0	32152	
1807	0	32160	
1808	0	32184	
1809	0	32208	
1810	0	32216	
1811	0	32232	
1812	0	32288	
1813	0	32336	
1814	0	32412	
1815	0	32456	
1816	0	32492	
1817	0	32512	
1818	0	32540	
1819	0	32588	
1820	0	32624	
1821	0	32612	
1822	0	32556	
1823	0	32516	
1824	0	32516	
1825	0	32512	
1826	0	32472	
1827	0	32472	
1828	0	32444	
1829	0	32436	
1830	0	32428	
1831	0	32456	
1832	0	32496	
1833	0	32560	
1834	0	32608	
1835	0	32632	
1836	0	32660	
1837	0	32704	
1838	0	32704	
1839	0	32704	
1840	0	32708	
1841	0	32688	
1842	0	32668	
1843	0	32624	
1844	0	32596	
1845	0	32540	
1846	0	32512	
1847	0	32520	
1848	0	32524	
1849	0	32504	
1850	0	32472	
1851	0	32448	
1852	0	32456	
1853	0	32488	
1854	0	32548	
1855	0	32622	
1856	0	32652	
1857	0	32730	
1858	0	32796	
1859	0	32862	
1860	0	32924	
1861	0	32968	
1862	0	32944	
1863	0	32910	
1864	0	32888	
1865	0	32816	
1866	0	32712	
1867	0	32600	
1868	0	32522	
1869	0	32468	
1870	0	32540	
1871	0	32756	
1872	0	33108	
1873	0	33476	
1874	0	33864	
1875	0	34192	
1876	0	34428	
1877	0	34636	
1878	0	34748	
1879	0	34804	
1880	0	34968	
1881	0	35280	
1882	0	35692	
1883	0	36216	
1884	0	36944	
1885	0	37856	
1886	0	38968	
1887	0	40148	
1888	0	41376	
1889	0	42642	
1890	0	44012	
1891	0	45472	
1892	0	46952	
1893	0	48312	
1894	0	49480	
1895	0	50524	
1896	0	51372	
1897	0	52352	
1898	0	53396	
1899	0	54232	
1900	0	54672	
1901	0	54332	
1902	0	52900	
1903	0	50424	
1904	0	47256	
1905	0	43764	
1906	0	40260	
1907	0	37040	
1908	0	34388	
1909	0	32504	
1910	0	31280	
1911	0	30532	
1912	0	30172	
1913	0	30092	
1914	0	30140	
1915	0	30216	
1916	0	30332	
1917	0	30492	
1918	0	30676	
1919	0	30876	
1920	0	31060	
1921	0	31252	
1922	0	31408	
1923	0	31508	
1924	0	31596	
1925	0	31688	
1926	0	31784	
1927	0	31912	
1928	0	31980	
1929	0	32026	
1930	0	32064	
1931	0	32074	
1932	0	32076	
1933	0	32088	
1934	0	32104	
1935	0	32088	
1936	0	32040	
1937	0	31984	
1938	0	31948	
1939	0	31920	
1940	0	31924	
1941	0	31892	
1942	0	31840	
1943	0	31792	
1944	0	31756	
1945	0	31696	
1946	0	31648	
1947	0	31628	
1948	0	31624	
1949	0	31640	
1950	0	31642	
1951	0	31648	
1952	0	31688	
1953	0	31724	
1954	0	31772	
1955	0	31808	
1956	0	31840	
1957	0	31884	
1958	0	31920	
1959	0	31976	
1960	0	32016	
1961	0	32020	
1962	0	31984	
1963	0	31942	
1964	0	31890	
1965	0	31876	
1966	0	31896	
1967	0	31904	
1968	0	31880	
1969	0	31876	
1970	0	31884	
1971	0	31912	
1972	0	31976	
1973	0	32044	
1974	0	32112	
1975	0	32160	
1976	0	32234	
1977	0	32288	
1978	0	32336	
1979	0	32364	
1980	0	32384	
1981	0	32408	
1982	0	32384	
1983	0	32356	
1984	0	32332	
1985	0	32320	
1986	0	32312	
1987	0	32356	
1988	0	32368	
1989	0	32384	
1990	0	32368	
1991	0	32380	
1992	0	32432	
1993	0	32512	
1994	0	32580	
1995	0	32640	
1996	0	32680	
1997	0	32716	
1998	0	32740	
1999	0	32728	
2000	0	32740	
2001	0	32775	
2002	0	32756	
2003	0	32736	
2004	0	32708	
2005	0	32672	
2006	0	32668	
2007	0	32666	
2008	0	32648	
2009	0	32636	
2010	0	32652	
2011	0	32686	
2012	0	32744	
2013	0	32824	
2014	0	32904	
2015	0	32944	
2016	0	32986	
2017	0	33020	
2018	0	33076	
2019	0	33108	
2020	0	33114	
2021	0	33144	
2022	0	33148	
2023	0	33120	
2024	0	33088	
2025	0	33064	
2026	0	33036	
2027	0	32996	
2028	0	32984	
2029	0	32994	
2030	0	33008	
2031	0	33028	
2032	0	33068	
2033	0	33146	
2034	0	33218	
2035	0	33292	
2036	0	33348	
2037	0	33392	
2038	0	33442	
2039	0	33456	
2040	0	33496	
2041	0	33520	
2042	0	33504	
2043	0	33476	
2044	0	33426	
2045	0	33376	
2046	0	33356	
2047	0	33360	
2048	0	33360	
2049	0	33344	
2050	0	33348	
2051	0	33352	
2052	0	33376	
2053	0	33440	
2054	0	33496	
2055	0	33552	
2056	0	33580	
2057	0	33620	
2058	0	33644	
2059	0	33656	
2060	0	33680	
2061	0	33704	
2062	0	33680	
2063	0	33652	
2064	0	33632	
2065	0	33584	
2066	0	33556	
2067	0	33536	
2068	0	33500	
2069	0	33500	
2070	0	33520	
2071	0	33548	
2072	0	33624	
2073	0	33688	
2074	0	33752	
2075	0	33824	
2076	0	33864	
2077	0	33908	
2078	0	33936	
2079	0	33956	
2080	0	33944	
2081	0	33960	
2082	0	33956	
2083	0	33892	
2084	0	33864	
2085	0	33828	
2086	0	33804	
2087	0	33800	
2088	0	33784	
2089	0	33768	
2090	0	33778	
2091	0	33832	
2092	0	33888	
2093	0	33944	
2094	0	34016	
2095	0	34068	
2096	0	34076	
2097	0	34092	
2098	0	34140	
2099	0	34164	
2100	0	34168	
2101	0	34164	
2102	0	34140	
2103	0	34096	
2104	0	34072	
2105	0	34056	
2106	0	34056	
2107	0	34060	
2108	0	34048	
2109	0	34020	
2110	0	33996	
2111	0	33980	
2112	0	34012	
2113	0	34080	
2114	0	34134	
2115	0	34178	
2116	0	34216	
2117	0	34232	
2118	0	34236	
2119	0	34252	
2120	0	34248	
2121	0	34240	
2122	0	34200	
2123	0	34152	
2124	0	34108	
2125	0	34088	
2126	0	34072	
2127	0	34088	
2128	0	34080	
2129	0	34052	
2130	0	34012	
2131	0	34016	
2132	0	34048	
2133	0	34104	
2134	0	34128	
2135	0	34148	
2136	0	34148	
2137	0	34148	
2138	0	34160	
2139	0	34152	
2140	0	34168	
2141	0	34152	
2142	0	34104	
2143	0	34028	
2144	0	33968	
2145	0	33924	
2146	0	33880	
2147	0	33852	
2148	0	33824	
2149	0	33824	
2150	0	33824	
2151	0	33848	
2152	0	33856	
2153	0	33898	
2154	0	33952	
2155	0	34008	
2156	0	34034	
2157	0	34060	
2158	0	34080	
2159	0	34096	
2160	0	34120	
2161	0	34132	
2162	0	34104	
2163	0	34056	
2164	0	33988	
2165	0	33940	
2166	0	33916	
2167	0	33880	
2168	0	33844	
2169	0	33778	
2170	0	33736	
2171	0	33712	
2172	0	33712	
2173	0	33744	
2174	0	33752	
2175	0	33756	
2176	0	33760	
2177	0	33728	
2178	0	33732	
2179	0	33708	
2180	0	33696	
2181	0	33652	
2182	0	33580	
2183	0	33476	
2184	0	33376	
2185	0	33236	
2186	0	33120	
2187	0	33022	
2188	0	32928	
2189	0	32876	
2190	0	32768	
2191	0	32684	
2192	0	32640	
2193	0	32624	
2194	0	32624	
2195	0	32628	
2196	0	32600	
2197	0	32548	
2198	0	32496	
2199	0	32420	
2200	0	32364	
2201	0	32338	
2202	0	32264	
2203	0	32136	
2204	0	32048	
2205	0	31960	
2206	0	31880	
2207	0	31804	
2208	0	31724	
2209	0	31656	
2210	0	31592	
2211	0	31528	
2212	0	31504	
2213	0	31516	
2214	0	31556	
2215	0	31576	
2216	0	31556	
2217	0	31540	
2218	0	31520	
2219	0	31508	
2220	0	31500	
2221	0	31466	
2222	0	31436	
2223	0	31388	
2224	0	31328	
2225	0	31244	
2226	0	31188	
2227	0	31148	
2228	0	31108	
2229	0	31048	
2230	0	30996	
2231	0	30960	
2232	0	30964	
2233	0	30962	
2234	0	30988	
2235	0	31024	
2236	0	31060	
2237	0	31106	
2238	0	31144	
2239	0	31144	
2240	0	31156	
2241	0	31192	
2242	0	31152	
2243	0	31122	
2244	0	31076	
2245	0	31032	
2246	0	31028	
2247	0	31040	
2248	0	31064	
2249	0	31052	
2250	0	31044	
2251	0	31040	
2252	0	31080	
2253	0	31160	
2254	0	31250	
2255	0	31328	
2256	0	31384	
2257	0	31418	
2258	0	31456	
2259	0	31488	
2260	0	31508	
2261	0	31512	
2262	0	31464	
2263	0	31432	
2264	0	31392	
2265	0	31360	
2266	0	31356	
2267	0	31344	
2268	0	31320	
2269	0	31312	
2270	0	31312	
2271	0	31346	
2272	0	31404	
2273	0	31480	
2274	0	31552	
2275	0	31592	
2276	0	31648	
2277	0	31696	
2278	0	31756	
2279	0	31770	
2280	0	31784	
2281	0	31784	
2282	0	31768	
2283	0	31712	
2284	0	31676	
2285	0	31640	
2286	0	31616	
2287	0	31584	
2288	0	31564	
2289	0	31544	
2290	0	31536	
2291	0	31528	
2292	0	31528	
2293	0	31568	
2294	0	31624	
2295	0	31688	
2296	0	31732	
2297	0	31764	
2298	0	31796	
2299	0	31816	
2300	0	31840	
2301	0	31864	
2302	0	31840	
2303	0	31796	
2304	0	31764	
2305	0	31760	
2306	0	31736	
2307	0	31740	
2308	0	31736	
2309	0	31720	
2310	0	31724	
2311	0	31728	
2312	0	31760	
2313	0	31836	
2314	0	31904	
2315	0	31944	
2316	0	31968	
2317	0	32004	
2318	0	32016	
2319	0	32016	
2320	0	32020	
2321	0	32012	
2322	0	31968	
2323	0	31912	
2324	0	31864	
2325	0	31818	
2326	0	31764	
2327	0	31712	
2328	0	31672	
2329	0	31644	
2330	0	31616	
2331	0	31608	
2332	0	31620	
2333	0	31664	
2334	0	31736	
2335	0	31812	
2336	0	31834	
2337	0	31844	
2338	0	31844	
2339	0	31850	
2340	0	31852	
2341	0	31860	
2342	0	31844	
2343	0	31800	
2344	0	31752	
2345	0	31704	
2346	0	31660	
2347	0	31656	
2348	0	31652	
2349	0	31660	
2350	0	31652	
2351	0	31624	
2352	0	31636	
2353	0	31656	
2354	0	31704	
2355	0	31764	
2356	0	31796	
2357	0	31808	
2358	0	31848	
2359	0	31848	
2360	0	31844	
2361	0	31872	
2362	0	31880	
2363	0	31860	
2364	0	31820	
2365	0	31760	
2366	0	31744	
2367	0	31712	
2368	0	31708	
2369	0	31704	
2370	0	31668	
2371	0	31668	
2372	0	31708	
2373	0	31754	
2374	0	31824	
2375	0	31884	
2376	0	31912	
2377	0	31952	
2378	0	31992	
2379	0	32000	
2380	0	32000	
2381	0	31992	
2382	0	31968	
2383	0	31960	
2384	0	31924	
2385	0	31896	
2386	0	31860	
2387	0	31832	
2388	0	31804	
2389	0	31792	
2390	0	31760	
2391	0	31736	
2392	0	31756	
2393	0	31816	
2394	0	31860	
2395	0	31916	
2396	0	31954	
2397	0	31986	
2398	0	32020	
2399	0	32048	
2400	0	32064	
2401	0	32072	
2402	0	32064	
2403	0	32052	
2404	0	32016	
2405	0	32008	
2406	0	32000	
2407	0	31980	
2408	0	31968	
2409	0	31970	
2410	0	31952	
2411	0	31944	
2412	0	31952	
2413	0	32000	
2414	0	32064	
2415	0	32104	
2416	0	32148	
2417	0	32184	
2418	0	32220	
2419	0	32204	
2420	0	32236	
2421	0	32260	
2422	0	32232	
2423	0	32168	
2424	0	32112	
2425	0	32088	
2426	0	32040	
2427	0	32048	
2428	0	32024	
2429	0	32020	
2430	0	32012	
2431	0	32020	
2432	0	32056	
2433	0	32076	
2434	0	32124	
2435	0	32192	
2436	0	32216	
2437	0	32220	
2438	0	32244	
2439	0	32240	
2440	0	32248	
2441	0	32272	
2442	0	32240	
2443	0	32200	
2444	0	32150	
2445	0	32112	
2446	0	32070	
2447	0	32056	
2448	0	32026	
2449	0	32004	
2450	0	31984	
2451	0	31976	
2452	0	32020	
2453	0	32088	
2454	0	32148	
2455	0	32204	
2456	0	32230	
2457	0	32228	
2458	0	32204	
2459	0	32212	
2460	0	32244	
2461	0	32276	
2462	0	32280	
2463	0	32236	
2464	0	32188	
2465	0	32154	
2466	0	32152	
2467	0	32112	
2468	0	32096	
2469	0	32088	
2470	0	32088	
2471	0	32096	
2472	0	32132	
2473	0	32200	
2474	0	32264	
2475	0	32320	
2476	0	32344	
2477	0	32368	
2478	0	32378	
2479	0	32400	
2480	0	32430	
2481	0	32468	
2482	0	32464	
2483	0	32432	
2484	0	32406	
2485	0	32372	
2486	0	32328	
2487	0	32296	
2488	0	32294	
2489	0	32272	
2490	0	32240	
2491	0	32236	
2492	0	32252	
2493	0	32288	
2494	0	32328	
2495	0	32424	
2496	0	32456	
2497	0	32476	
2498	0	32484	
2499	0	32520	
2500	0	32528	
2501	0	32536	
2502	0	32540	
2503	0	32496	
2504	0	32456	
2505	0	32420	
2506	0	32400	
2507	0	32376	
2508	0	32368	
2509	0	32356	
2510	0	32356	
2511	0	32368	
2512	0	32392	
2513	0	32448	
2514	0	32508	
2515	0	32568	
2516	0	32600	
2517	0	32628	
2518	0	32668	
2519	0	32704	
2520	0	32696	
2521	0	32692	
2522	0	32684	
2523	0	32628	
2524	0	32552	
2525	0	32544	
2526	0	32548	
2527	0	32512	
2528	0	32480	
2529	0	32464	
2530	0	32454	
2531	0	32444	
2532	0	32464	
2533	0	32500	
2534	0	32540	
2535	0	32576	
2536	0	32568	
2537	0	32592	
2538	0	32628	
2539	0	32684	
2540	0	32752	
2541	0	32818	
2542	0	32856	
2543	0	32864	
2544	0	32816	
2545	0	32794	
2546	0	32800	
2547	0	32836	
2548	0	32862	
2549	0	32858	
2550	0	32884	
2551	0	32876	
2552	0	32896	
2553	0	32908	
2554	0	32932	
2555	0	33004	
2556	0	33012	
2557	0	33044	
2558	0	33064	
2559	0	33092	
2560	0	33116	
2561	0	33128	
2562	0	33092	
2563	0	33048	
2564	0	33032	
2565	0	33040	
2566	0	33104	
2567	0	33184	
2568	0	33288	
2569	0	33402	
2570	0	33544	
2571	0	33640	
2572	0	33744	
2573	0	33860	
2574	0	34032	
2575	0	34180	
2576	0	34272	
2577	0	34352	
2578	0	34388	
2579	0	34416	
2580	0	34460	
2581	0	34488	
2582	0	34464	
2583	0	34388	
2584	0	34286	
2585	0	34184	
2586	0	34052	
2587	0	33924	
2588	0	33788	
2589	0	33688	
2590	0	33588	
2591	0	33496	
2592	0	33448	
2593	0	33400	
2594	0	33380	
2595	0	33364	
2596	0	33320	
2597	0	33292	
2598	0	33284	
2599	0	33248	
2600	0	33240	
2601	0	33204	
2602	0	33200	
2603	0	33116	
2604	0	33028	
2605	0	32956	
2606	0	32887	
2607	0	32824	
2608	0	32756	
2609	0	32720	
2610	0	32696	
2611	0	32704	
2612	0	32720	
2613	0	32748	
2614	0	32788	
2615	0	32792	
2616	0	32808	
2617	0	32818	
2618	0	32832	
2619	0	32856	
2620	0	32840	
2621	0	32792	
2622	0	32756	
2623	0	32680	
2624	0	32576	
2625	0	32452	
2626	0	32348	
2627	0	32228	
2628	0	32156	
2629	0	32088	
2630	0	32024	
2631	0	32008	
2632	0	32016	
2633	0	32044	
2634	0	32084	
2635	0	32136	
2636	0	32168	
2637	0	32184	
2638	0	32196	
2639	0	32232	
2640	0	32248	
2641	0	32252	
2642	0	32228	
2643	0	32160	
2644	0	32096	
2645	0	32064	
2646	0	32004	
2647	0	31976	
2648	0	31968	
2649	0	31972	
2650	0	31968	
2651	0	31968	
2652	0	31980	
2653	0	32024	
2654	0	32072	
2655	0	32128	
2656	0	32184	
2657	0	32204	
2658	0	32212	
2659	0	32232	
2660	0	32248	
2661	0	32280	
2662	0	32284	
2663	0	32232	
2664	0	32192	
2665	0	32172	
2666	0	32144	
2667	0	32116	
2668	0	32100	
2669	0	32068	
2670	0	32040	
2671	0	32048	
2672	0	32040	
2673	0	32064	
2674	0	32130	
2675	0	32204	
2676	0	32240	
2677	0	32280	
2678	0	32300	
2679	0	32308	
2680	0	32332	
2681	0	32356	
2682	0	32368	
2683	0	32320	
2684	0	32296	
2685	0	32280	
2686	0	32256	
2687	0	32248	
2688	0	32244	
2689	0	32268	
2690	0	32256	
2691	0	32256	
2692	0	32308	
2693	0	32364	
2694	0	32428	
2695	0	32492	
2696	0	32544	
2697	0	32584	
2698	0	32664	
2699	0	32752	
2700	0	32824	
2701	0	32880	
2702	0	32916	
2703	0	32916	
2704	0	32892	
2705	0	32820	
2706	0	32724	
2707	0	32592	
2708	0	32472	
2709	0	32380	
2710	0	32368	
2711	0	32512	
2712	0	32772	
2713	0	33080	
2714	0	33408	
2715	0	33744	
2716	0	33992	
2717	0	34220	
2718	0	34352	
2719	0	34500	
2720	0	34636	
2721	0	34892	
2722	0	35280	
2723	0	35756	
2724	0	36400	
2725	0	37220	
2726	0	38200	
2727	0	39320	
2728	0	40452	
2729	0	41640	
2730	0	42928	
2731	0	44356	
2732	0	45812	
2733	0	47192	
2734	0	48384	
2735	0	49410	
2736	0	50324	
2737	0	51248	
2738	0	52292	
2739	0	53176	
2740	0	53748	
2741	0	53672	
2742	0	52544	
2743	0	50268	
2744	0	47284	
2745	0	43952	
2746	0	40568	
2747	0	37378	
2748	0	34650	
2749	0	32652	
2750	0	31358	
2751	0	30624	
2752	0	30248	
2753	0	30148	
2754	0	30184	
2755	0	30288	
2756	0	30398	
2757	0	30540	
2758	0	30738	
2759	0	30952	
2760	0	31140	
2761	0	31280	
2762	0	31416	
2763	0	31504	
2764	0	31570	
2765	0	31660	
2766	0	31768	
2767	0	31872	
2768	0	31936	
2769	0	31972	
2770	0	32000	
2771	0	32012	
2772	0	32028	
2773	0	32028	
2774	0	32042	
2775	0	32040	
2776	0	31992	
2777	0	31960	
2778	0	31940	
2779	0	31924	
2780	0	31920	
2781	0	31888	
2782	0	31884	
2783	0	31812	
2784	0	31776	
2785	0	31714	
2786	0	31680	
2787	0	31652	
2788	0	31644	
2789	0	31648	
2790	0	31640	
2791	0	31612	
2792	0	31628	
2793	0	31658	
2794	0	31712	
2795	0	31776	
2796	0	31840	
2797	0	31872	
2798	0	31896	
2799	0	31928	
2800	0	31960	
2801	0	32000	
2802	0	32024	
2803	0	32008	
2804	0	31984	
2805	0	31954	
2806	0	31940	
2807	0	31912	
2808	0	31912	
2809	0	31916	
2810	0	31932	
2811	0	31950	
2812	0	31968	
2813	0	32020	
2814	0	32088	
2815	0	32136	
2816	0	32184	
2817	0	32212	
2818	0	32256	
2819	0	32288	
2820	0	32344	
2821	0	32372	
2822	0	32408	
2823	0	32388	
2824	0	32352	
2825	0	32320	
2826	0	32304	
2827	0	32276	
2828	0	32260	
2829	0	32256	
2830	0	32256	
2831	0	32264	
2832	0	32304	
2833	0	32360	
2834	0	32404	
2835	0	32464	
2836	0	32484	
2837	0	32520	
2838	0	32564	
2839	0	32608	
2840	0	32648	
2841	0	32692	
2842	0	32728	
2843	0	32704	
2844	0	32672	
2845	0	32628	
2846	0	32612	
2847	0	32624	
2848	0	32624	
2849	0	32620	
2850	0	32616	
2851	0	32628	
2852	0	32640	
2853	0	32680	
2854	0	32752	
2855	0	32836	
2856	0	32898	
2857	0	32936	
2858	0	32960	
2859	0	32980	
2860	0	33016	
2861	0	33056	
2862	0	33084	
2863	0	33068	
2864	0	33048	
2865	0	33048	
2866	0	33028	
2867	0	33016	
2868	0	33008	
2869	0	32996	
2870	0	32996	
2871	0	33000	
2872	0	33036	
2873	0	33088	
2874	0	33156	
2875	0	33242	
2876	0	33292	
2877	0	33340	
2878	0	33380	
2879	0	33392	
2880	0	33412	
2881	0	33436	
2882	0	33460	
2883	0	33424	
2884	0	33392	
2885	0	33340	
2886	0	33300	
2887	0	33304	
2888	0	33304	
2889	0	33308	
2890	0	33280	
2891	0	33264	
2892	0	33272	
2893	0	33296	
2894	0	33370	
2895	0	33436	
2896	0	33480	
2897	0	33504	
2898	0	33526	
2899	0	33576	
2900	0	33604	
2901	0	33644	
2902	0	33700	
2903	0	33688	
2904	0	33664	
2905	0	33624	
2906	0	33610	
2907	0	33600	
2908	0	33576	
2909	0	33554	
2910	0	33544	
2911	0	33544	
2912	0	33576	
2913	0	33612	
2914	0	33656	
2915	0	33704	
2916	0	33752	
2917	0	33780	
2918	0	33808	
2919	0	33830	
2920	0	33840	
2921	0	33844	
2922	0	33888	
2923	0	33880	
2924	0	33824	
2925	0	33788	
2926	0	33760	
2927	0	33736	
2928	0	33704	
2929	0	33700	
2930	0	33704	
2931	0	33720	
2932	0	33728	
2933	0	33760	
2934	0	33832	
2935	0	33884	
2936	0	33940	
2937	0	33960	
2938	0	33992	
2939	0	33988	
2940	0	33996	
2941	0	34008	
2942	0	34032	
2943	0	34028	
2944	0	33992	
2945	0	33970	
2946	0	33920	
2947	0	33896	
2948	0	33876	
2949	0	33868	
2950	0	33836	
2951	0	33816	
2952	0	33816	
2953	0	33856	
2954	0	33912	
2955	0	33980	
2956	0	34016	
2957	0	34028	
2958	0	34052	
2959	0	34052	
2960	0	34048	
2961	0	34076	
2962	0	34104	
2963	0	34082	
2964	0	34018	
2965	0	33938	
2966	0	33896	
2967	0	33862	
2968	0	33856	
2969	0	33840	
2970	0	33816	
2971	0	33793	
2972	0	33778	
2973	0	33820	
2974	0	33880	
2975	0	33944	
2976	0	33968	
2977	0	33968	
2978	0	33984	
2979	0	34014	
2980	0	34052	
2981	0	34076	
2982	0	34080	
2983	0	34044	
2984	0	33988	
2985	0	33952	
2986	0	33888	
2987	0	33832	
2988	0	33796	
2989	0	33768	
2990	0	33760	
2991	0	33736	
2992	0	33724	
2993	0	33764	
2994	0	33828	
2995	0	33880	
2996	0	33918	
2997	0	33910	
2998	0	33924	
2999	0	33924	
3000	0	33916	
3001	0	33912	
3002	0	33920	
3003	0	33868	
3004	0	33780	
3005	0	33760	
3006	0	33728	
3007	0	33696	
3008	0	33652	
3009	0	33596	
3010	0	33580	
3011	0	33540	
3012	0	33504	
3013	0	33496	
3014	0	33484	
3015	0	33496	
3016	0	33500	
3017	0	33476	
3018	0	33444	
3019	0	33432	
3020	0	33436	
3021	0	33412	
3022	0	33376	
3023	0	33292	
3024	0	33184	
3025	0	33060	
3026	0	32964	
3027	0	32864	
3028	0	32768	
3029	0	32700	
3030	0	32588	
3031	0	32488	
3032	0	32416	
3033	0	32394	
3034	0	32392	
3035	0	32384	
3036	0	32356	
3037	0	32316	
3038	0	32288	
3039	0	32264	
3040	0	32212	
3041	0	32154	
3042	0	32092	
3043	0	32020	
3044	0	31896	
3045	0	31776	
3046	0	31696	
3047	0	31612	
3048	0	31540	
3049	0	31472	
3050	0	31388	
3051	0	31328	
3052	0	31264	
3053	0	31240	
3054	0	31242	
3055	0	31266	
3056	0	31268	
3057	0	31248	
3058	0	31224	
3059	0	31192	
3060	0	31186	
3061	0	31168	
3062	0	31152	
3063	0	31106	
3064	0	31032	
3065	0	30972	
3066	0	30892	
3067	0	30828	
3068	0	30792	
3069	0	30782	
3070	0	30736	
3071	0	30704	
3072	0	30706	
3073	0	30736	
3074	0	30800	
3075	0	30856	
3076	0	30904	
3077	0	30920	
3078	0	30924	
3079	0	30938	
3080	0	30972	
3081	0	31008	
3082	0	31016	
3083	0	30976	
3084	0	30916	
3085	0	30860	
3086	0	30820	
3087	0	30768	
3088	0	30720	
3089	0	30698	
3090	0	30680	
3091	0	30664	
3092	0	30690	
3093	0	30744	
3094	0	30816	
3095	0	30896	
3096	0	30948	
3097	0	31016	
3098	0	31052	
3099	0	31060	
3100	0	31080	
3101	0	31108	
3102	0	31124	
3103	0	31116	
3104	0	31080	
3105	0	31034	
3106	0	31012	
3107	0	31012	
3108	0	30996	
3109	0	30988	
3110	0	30984	
3111	0	30992	
3112	0	31016	
3113	0	31064	
3114	0	31130	
3115	0	31204	
3116	0	31268	
3117	0	31328	
3118	0	31408	
3119	0	31440	
3120	0	31440	
3121	0	31468	
3122	0	31490	
3123	0	31480	
3124	0	31452	
3125	0	31408	
3126	0	31372	
3127	0	31344	
3128	0	31336	
3129	0	31328	
3130	0	31312	
3131	0	31296	
3132	0	31304	
3133	0	31350	
3134	0	31420	
3135	0	31500	
3136	0	31552	
3137	0	31560	
3138	0	31600	
3139	0	31632	
3140	0	31640	
3141	0	31644	
3142	0	31648	
3143	0	31624	
3144	0	31596	
3145	0	31552	
3146	0	31512	
3147	0	31472	
3148	0	31460	
3149	0	31432	
3150	0	31394	
3151	0	31368	
3152	0	31372	
3153	0	31440	
3154	0	31504	
3155	0	31552	
3156	0	31584	
3157	0	31608	
3158	0	31628	
3159	0	31672	
3160	0	31692	
3161	0	31696	
3162	0	31696	
3163	0	31680	
3164	0	31612	
3165	0	31572	
3166	0	31536	
3167	0	31492	
3168	0	31456	
3169	0	31448	
3170	0	31420	
3171	0	31376	
3172	0	31372	
3173	0	31416	
3174	0	31488	
3175	0	31556	
3176	0	31592	
3177	0	31616	
3178	0	31660	
3179	0	31696	
3180	0	31732	
3181	0	31724	
3182	0	31728	
3183	0	31708	
3184	0	31642	
3185	0	31576	
3186	0	31532	
3187	0	31516	
3188	0	31486	
3189	0	31468	
3190	0	31448	
3191	0	31424	
3192	0	31408	
3193	0	31432	
3194	0	31468	
3195	0	31540	
3196	0	31612	
3197	0	31636	
3198	0	31664	
3199	0	31704	
3200	0	31732	
3201	0	31760	
3202	0	31788	
3203	0	31776	
3204	0	31732	
3205	0	31672	
3206	0	31640	
3207	0	31588	
3208	0	31568	
3209	0	31564	
3210	0	31556	
3211	0	31516	
3212	0	31536	
3213	0	31560	
3214	0	31616	
3215	0	31680	
3216	0	31720	
3217	0	31724	
3218	0	31776	
3219	0	31800	
3220	0	31820	
3221	0	31856	
3222	0	31858	
3223	0	31836	
3224	0	31778	
3225	0	31712	
3226	0	31664	
3227	0	31620	
3228	0	31572	
3229	0	31580	
3230	0	31578	
3231	0	31580	
3232	0	31576	
3233	0	31584	
3234	0	31620	
3235	0	31656	
3236	0	31704	
3237	0	31752	
3238	0	31788	
3239	0	31824	
3240	0	31828	
3241	0	31836	
3242	0	31872	
3243	0	31876	
3244	0	31860	
3245	0	31832	
3246	0	31792	
3247	0	31768	
3248	0	31756	
3249	0	31752	
3250	0	31744	
3251	0	31744	
3252	0	31748	
3253	0	31760	
3254	0	31800	
3255	0	31828	
3256	0	31864	
3257	0	31888	
3258	0	31892	
3259	0	31932	
3260	0	31944	
3261	0	31960	
3262	0	31982	
3263	0	32008	
3264	0	31968	
3265	0	31930	
3266	0	31884	
3267	0	31856	
3268	0	31832	
3269	0	31816	
3270	0	31804	
3271	0	31792	
3272	0	31784	
3273	0	31824	
3274	0	31884	
3275	0	31960	
3276	0	32016	
3277	0	32040	
3278	0	32080	
3279	0	32116	
3280	0	32152	
3281	0	32160	
3282	0	32176	
3283	0	32146	
3284	0	32100	
3285	0	32052	
3286	0	32024	
3287	0	31976	
3288	0	31932	
3289	0	31924	
3290	0	31916	
3291	0	31896	
3292	0	31900	
3293	0	31944	
3294	0	32020	
3295	0	32052	
3296	0	32096	
3297	0	32128	
3298	0	32160	
3299	0	32180	
3300	0	32192	
3301	0	32224	
3302	0	32236	
3303	0	32224	
3304	0	32192	
3305	0	32156	
3306	0	32108	
3307	0	32076	
3308	0	32056	
3309	0	32032	
3310	0	32008	
3311	0	32004	
3312	0	32014	
3313	0	32032	
3314	0	32068	
3315	0	32128	
3316	0	32188	
3317	0	32208	
3318	0	32244	
3319	0	32280	
3320	0	32318	
3321	0	32352	
3322	0	32373	
3323	0	32364	
3324	0	32320	
3325	0	32268	
3326	0	32224	
3327	0	32212	
3328	0	32208	
3329	0	32204	
3330	0	32204	
3331	0	32192	
3332	0	32196	
3333	0	32208	
3334	0	32248	
3335	0	32308	
3336	0	32368	
3337	0	32384	
3338	0	32392	
3339	0	32424	
3340	0	32448	
3341	0	32468	
3342	0	32488	
3343	0	32492	
3344	0	32444	
3345	0	32372	
3346	0	32312	
3347	0	32288	
3348	0	32250	
3349	0	32224	
3350	0	32238	
3351	0	32228	
3352	0	32228	
3353	0	32256	
3354	0	32328	
3355	0	32384	
3356	0	32424	
3357	0	32464	
3358	0	32512	
3359	0	32552	
3360	0	32576	
3361	0	32592	
3362	0	32632	
3363	0	32628	
3364	0	32584	
3365	0	32532	
3366	0	32516	
3367	0	32488	
3368	0	32480	
3369	0	32460	
3370	0	32436	
3371	0	32420	
3372	0	32416	
3373	0	32452	
3374	0	32504	
3375	0	32544	
3376	0	32616	
3377	0	32616	
3378	0	32616	
3379	0	32632	
3380	0	32664	
3381	0	32688	
3382	0	32700	
3383	0	32692	
3384	0	32628	
3385	0	32586	
3386	0	32532	
3387	0	32480	
3388	0	32426	
3389	0	32392	
3390	0	32372	
3391	0	32372	
3392	0	32384	
3393	0	32432	
3394	0	32492	
3395	0	32560	
3396	0	32624	
3397	0	32672	
3398	0	32684	
3399	0	32712	
3400	0	32720	
3401	0	32724	
3402	0	32736	
3403	0	32714	
3404	0	32648	
3405	0	32584	
3406	0	32532	
3407	0	32536	
3408	0	32512	
3409	0	32496	
3410	0	32456	
3411	0	32418	
3412	0	32404	
3413	0	32420	
3414	0	32488	
3415	0	32608	
3416	0	32712	
3417	0	32796	
3418	0	32856	
3419	0	32908	
3420	0	32968	
3421	0	33024	
3422	0	33084	
3423	0	33144	
3424	0	33176	
3425	0	33152	
3426	0	33120	
3427	0	33112	
3428	0	33084	
3429	0	33052	
3430	0	32984	
3431	0	32936	
3432	0	32928	
3433	0	32936	
3434	0	32996	
3435	0	33040	
3436	0	33120	
3437	0	33136	
3438	0	33144	
3439	0	33152	
3440	0	33192	
3441	0	33276	
3442	0	33390	
3443	0	33508	
3444	0	33596	
3445	0	33676	
3446	0	33764	
3447	0	33852	
3448	0	33912	
3449	0	33972	
3450	0	34036	
3451	0	34104	
3452	0	34180	
3453	0	34240	
3454	0	34328	
3455	0	34392	
3456	0	34464	
3457	0	34520	
3458	0	34528	
3459	0	34532	
3460	0	34520	
3461	0	34444	
3462	0	34388	
3463	0	34248	
3464	0	34100	
3465	0	33976	
3466	0	33844	
3467	0	33692	
3468	0	33584	
3469	0	33524	
3470	0	33452	
3471	0	33368	
3472	0	33284	
3473	0	33220	
3474	0	33228	
3475	0	33240	
3476	0	33248	
3477	0	33256	
3478	0	33252	
3479	0	33220	
3480	0	33196	
3481	0	33200	
3482	0	33184	
3483	0	33154	
3484	0	33104	
3485	0	33020	
3486	0	32976	
3487	0	32948	
3488	0	32920	
3489	0	32900	
3490	0	32856	
3491	0	32792	
3492	0	32756	
3493	0	32748	
3494	0	32792	
3495	0	32816	
3496	0	32832	
3497	0	32800	
3498	0	32762	
3499	0	32740	
3500	0	32712	
3501	0	32656	
3502	0	32604	
3503	0	32504	
3504	0	32372	
3505	0	32256	
3506	0	32172	
3507	0	32104	
3508	0	32048	
3509	0	32034	
3510	0	32032	
3511	0	32016	
3512	0	32032	
3513	0	32072	
3514	0	32108	
3515	0	32176	
3516	0	32228	
3517	0	32260	
3518	0	32268	
3519	0	32248	
3520	0	32236	
3521	0	32252	
3522	0	32272	
3523	0	32312	
3524	0	32284	
3525	0	32272	
3526	0	32232	
3527	0	32196	
3528	0	32160	
3529	0	32162	
3530	0	32128	
3531	0	32124	
3532	0	32132	
3533	0	32152	
3534	0	32190	
3535	0	32248	
3536	0	32320	
3537	0	32364	
3538	0	32368	
3539	0	32396	
3540	0	32414	
3541	0	32432	
3542	0	32460	
3543	0	32488	
3544	0	32444	
3545	0	32392	
3546	0	32352	
3547	0	32336	
3548	0	32304	
3549	0	32268	
3550	0	32268	
3551	0	32264	
3552	0	32264	
3553	0	32268	
3554	0	32312	
3555	0	32376	
3556	0	32424	
3557	0	32464	
3558	0	32488	
3559	0	32526	
3560	0	32546	
3561	0	32560	
3562	0	32592	
3563	0	32616	
3564	0	32584	
3565	0	32540	
3566	0	32504	
3567	0	32468	
3568	0	32448	
3569	0	32448	
3570	0	32450	
3571	0	32424	
3572	0	32416	
3573	0	32448	
3574	0	32524	
3575	0	32616	
3576	0	32712	
3577	0	32776	
3578	0	32804	
3579	0	32856	
3580	0	32852	
3581	0	32808	
3582	0	32706	
3583	0	32616	
3584	0	32504	
3585	0	32448	
3586	0	32528	
3587	0	32732	
3588	0	32948	
3589	0	33208	
3590	0	33476	
3591	0	33672	
3592	0	33848	
3593	0	33948	
3594	0	34076	
3595	0	34264	
3596	0	34560	
3597	0	35004	
3598	0	35544	
3599	0	36260	
3600	0	37116	
3601	0	38144	
3602	0	39304	
3603	0	40460	
3604	0	41624	
3605	0	42864	
3606	0	44224	
3607	0	45592	
3608	0	46904	
3609	0	48016	
3610	0	48956	
3611	0	49776	
3612	0	50624	
3613	0	51568	
3614	0	52444	
3615	0	53028	
3616	0	52984	
3617	0	51888	
3618	0	49696	
3619	0	46816	
3620	0	43632	
3621	0	40400	
3622	0	37328	
3623	0	34708	
3624	0	32736	
3625	0	31460	
3626	0	30704	
3627	0	30308	
3628	0	30160	
3629	0	30116	
3630	0	30164	
3631	0	30248	
3632	0	30380	
3633	0	30568	
3634	0	30764	
3635	0	30960	
3636	0	31148	
3637	0	31296	
3638	0	31404	
3639	0	31538	
3640	0	31680	
3641	0	31844	
3642	0	32008	
3643	0	32100	
3644	0	32114	
3645	0	32112	
3646	0	32104	
3647	0	32040	
3648	0	31972	
3649	0	31908	
3650	0	31844	
3651	0	31760	
3652	0	31708	
3653	0	31648	
3654	0	31640	
3655	0	31672	
3656	0	31728	
3657	0	31728	
3658	0	31740	
3659	0	31746	
3660	0	31768	
3661	0	31792	
3662	0	31800	
3663	0	31792	
3664	0	31770	
3665	0	31736	
3666	0	31692	
3667	0	31676	
3668	0	31648	
3669	0	31604	
3670	0	31592	
3671	0	31580	
3672	0	31552	
3673	0	31560	
3674	0	31604	
3675	0	31650	
3676	0	31712	
3677	0	31732	
3678	0	31768	
3679	0	31836	
3680	0	31880	
3681	0	31902	
3682	0	31920	
3683	0	31932	
3684	0	31920	
3685	0	31904	
3686	0	31884	
3687	0	31832	
3688	0	31808	
3689	0	31800	
3690	0	31812	
3691	0	31808	
3692	0	31794	
3693	0	31802	
3694	0	31860	
3695	0	31936	
3696	0	32032	
3697	0	32096	
3698	0	32140	
3699	0	32196	
3700	0	32256	
3701	0	32332	
3702	0	32380	
3703	0	32416	
3704	0	32404	
3705	0	32368	
3706	0	32368	
3707	0	32372	
3708	0	32374	
3709	0	32380	
3710	0	32376	
3711	0	32384	
3712	0	32396	
3713	0	32420	
3714	0	32468	
3715	0	32544	
3716	0	32592	
3717	0	32628	
3718	0	32644	
3719	0	32672	
3720	0	32708	
3721	0	32744	
3722	0	32752	
3723	0	32752	
3724	0	32692	
3725	0	32644	
3726	0	32616	
3727	0	32600	
3728	0	32576	
3729	0	32572	
3730	0	32568	
3731	0	32568	
3732	0	32600	
3733	0	32660	
3734	0	32720	
3735	0	32796	
3736	0	32858	
3737	0	32892	
3738	0	32928	
3739	0	32976	
3740	0	33020	
3741	0	33044	
3742	0	33098	
3743	0	33136	
3744	0	33120	
3745	0	33088	
3746	0	33056	
3747	0	33016	
3748	0	33016	
3749	0	33048	
3750	0	33072	
3751	0	33072	
3752	0	33120	
3753	0	33136	
3754	0	33168	
3755	0	33236	
3756	0	33288	
3757	0	33336	
3758	0	33368	
3759	0	33388	
3760	0	33390	
3761	0	33392	
3762	0	33388	
3763	0	33432	
3764	0	33416	
3765	0	33392	
3766	0	33392	
3767	0	33376	
3768	0	33352	
3769	0	33364	
3770	0	33344	
3771	0	33336	
3772	0	33352	
3773	0	33364	
3774	0	33412	
3775	0	33456	
3776	0	33524	
3777	0	33564	
3778	0	33608	
3779	0	33652	
3780	0	33690	
3781	0	33728	
3782	0	33756	
3783	0	33784	
3784	0	33772	
3785	0	33752	
3786	0	33716	
3787	0	33668	
3788	0	33624	
3789	0	33632	
3790	0	33656	
3791	0	33634	
3792	0	33640	
3793	0	33632	
3794	0	33688	
3795	0	33732	
3796	0	33818	
3797	0	33844	
3798	0	33856	
3799	0	33872	
3800	0	33888	
3801	0	33864	
3802	0	33860	
3803	0	33856	
3804	0	33840	
3805	0	33800	
3806	0	33752	
3807	0	33704	
3808	0	33672	
3809	0	33660	
3810	0	33640	
3811	0	33604	
3812	0	33608	
3813	0	33648	
3814	0	33720	
3815	0	33780	
3816	0	33844	
3817	0	33892	
3818	0	33912	
3819	0	33944	
3820	0	33976	
3821	0	33988	
3822	0	34004	
3823	0	34020	
3824	0	34016	
3825	0	33986	
3826	0	33944	
3827	0	33876	
3828	0	33852	
3829	0	33848	
3830	0	33832	
3831	0	33768	
3832	0	33712	
3833	0	33698	
3834	0	33760	
3835	0	33824	
3836	0	33888	
3837	0	33920	
3838	0	33916	
3839	0	33928	
3840	0	33928	
3841	0	33920	
3842	0	33928	
3843	0	33944	
3844	0	33912	
3845	0	33832	
3846	0	33768	
3847	0	33706	
3848	0	33632	
3849	0	33588	
3850	0	33576	
3851	0	33564	
3852	0	33564	
3853	0	33568	
3854	0	33600	
3855	0	33668	
3856	0	33728	
3857	0	33780	
3858	0	33792	
3859	0	33824	
3860	0	33852	
3861	0	33908	
3862	0	33970	
3863	0	33988	
3864	0	34000	
3865	0	33944	
3866	0	33882	
3867	0	33824	
3868	0	33748	
3869	0	33704	
3870	0	33676	
3871	0	33648	
3872	0	33626	
3873	0	33648	
3874	0	33684	
3875	0	33752	
3876	0	33812	
3877	0	33848	
3878	0	33840	
3879	0	33808	
3880	0	33784	
3881	0	33774	
3882	0	33748	
3883	0	33728	
3884	0	33664	
3885	0	33600	
3886	0	33496	
3887	0	33420	
3888	0	33376	
3889	0	33328	
3890	0	33296	
3891	0	33244	
3892	0	33200	
3893	0	33200	
3894	0	33216	
3895	0	33232	
3896	0	33260	
3897	0	33248	
3898	0	33196	
3899	0	33176	
3900	0	33152	
3901	0	33096	
3902	0	33072	
3903	0	33034	
3904	0	32960	
3905	0	32856	
3906	0	32752	
3907	0	32664	
3908	0	32560	
3909	0	32480	
3910	0	32412	
3911	0	32284	
3912	0	32152	
3913	0	32080	
3914	0	32032	
3915	0	32004	
3916	0	31992	
3917	0	31940	
3918	0	31892	
3919	0	31856	
3920	0	31824	
3921	0	31774	
3922	0	31736	
3923	0	31680	
3924	0	31616	
3925	0	31524	
3926	0	31444	
3927	0	31356	
3928	0	31288	
3929	0	31204	
3930	0	31132	
3931	0	31084	
3932	0	31060	
3933	0	31044	
3934	0	31056	
3935	0	31092	
3936	0	31128	
3937	0	31144	
3938	0	31144	
3939	0	31152	
3940	0	31140	
3941	0	31120	
3942	0	31112	
3943	0	31120	
3944	0	31072	
3945	0	31000	
3946	0	30916	
3947	0	30852	
3948	0	30780	
3949	0	30726	
3950	0	30688	
3951	0	30676	
3952	0	30680	
3953	0	30704	
3954	0	30748	
3955	0	30792	
3956	0	30856	
3957	0	30888	
3958	0	30912	
3959	0	30936	
3960	0	30944	
3961	0	30944	
3962	0	30960	
3963	0	30972	
3964	0	30940	
3965	0	30904	
3966	0	30832	
3967	0	30764	
3968	0	30724	
3969	0	30696	
3970	0	30688	
3971	0	30668	
3972	0	30652	
3973	0	30660	
3974	0	30732	
3975	0	30820	
3976	0	30936	
3977	0	31034	
3978	0	31072	
3979	0	31072	
3980	0	31064	
3981	0	31100	
3982	0	31136	
3983	0	31160	
3984	0	31132	
3985	0	31064	
3986	0	31048	
3987	0	31072	
3988	0	31084	
3989	0	31076	
3990	0	31052	
3991	0	31016	
3992	0	31016	
3993	0	31012	
3994	0	31040	
3995	0	31120	
3996	0	31170	
3997	0	31200	
3998	0	31224	
3999	0	31250	
4000	0	31268	
4001	0	31272	
4002	0	31272	
4003	0	31304	
4004	0	31332	
4005	0	31328	
4006	0	31336	
4007	0	31320	
4008	0	31300	
4009	0	31288	
4010	0	31276	
4011	0	31244	
4012	0	31232	
4013	0	31224	
4014	0	31276	
4015	0	31336	
4016	0	31392	
4017	0	31420	
4018	0	31428	
4019	0	31420	
4020	0	31416	
4021	0	31412	
4022	0	31412	
4023	0	31418	
4024	0	31416	
4025	0	31394	
4026	0	31344	
4027	0	31320	
4028	0	31296	
4029	0	31282	
4030	0	31264	
4031	0	31280	
4032	0	31264	
4033	0	31272	
4034	0	31282	
4035	0	31320	
4036	0	31380	
4037	0	31420	
4038	0	31428	
4039	0	31424	
4040	0	31442	
4041	0	31448	
4042	0	31490	
4043	0	31512	
4044	0	31516	
4045	0	31488	
4046	0	31472	
4047	0	31480	
4048	0	31456	
4049	0	31416	
4050	0	31384	
4051	0	31338	
4052	0	31344	
4053	0	31356	
4054	0	31424	
4055	0	31524	
4056	0	31632	
4057	0	31712	
4058	0	31776	
4059	0	31760	
4060	0	31700	
4061	0	31680	
4062	0	31668	
4063	0	31648	
4064	0	31616	
4065	0	31552	
4066	0	31500	
4067	0	31480	
4068	0	31456	
4069	0	31432	
4070	0	31404	
4071	0	31380	
4072	0	31388	
4073	0	31452	
4074	0	31496	
4075	0	31536	
4076	0	31568	
4077	0	31588	
4078	0	31568	
4079	0	31552	
4080	0	31564	
4081	0	31560	
4082	0	31580	
4083	0	31548	
4084	0	31536	
4085	0	31504	
4086	0	31456	
4087	0	31424	
4088	0	31392	
4089	0	31352	
4090	0	31336	
4091	0	31328	
4092	0	31314	
4093	0	31340	
4094	0	31376	
4095	0	31424	
4096	0	31464	
4097	0	31520	
4098	0	31568	
4099	0	31608	
4100	0	31612	
4101	0	31624	
4102	0	31660	
4103	0	31716	
4104	0	31708	
4105	0	31680	
4106	0	31640	
4107	0	31612	
4108	0	31544	
4109	0	31484	
4110	0	31426	
4111	0	31408	
4112	0	31384	
4113	0	31380	
4114	0	31378	
4115	0	31396	
4116	0	31418	
4117	0	31432	
4118	0	31448	
4119	0	31474	
4120	0	31536	
4121	0	31564	
4122	0	31580	
4123	0	31616	
4124	0	31628	
4125	0	31616	
4126	0	31584	
4127	0	31578	
4128	0	31576	
4129	0	31568	
4130	0	31548	
4131	0	31532	
4132	0	31528	
4133	0	31540	
4134	0	31556	
4135	0	31600	
4136	0	31648	
4137	0	31708	
4138	0	31728	
4139	0	31752	
4140	0	31772	
4141	0	31802	
4142	0	31860	
4143	0	31888	
4144	0	31904	
4145	0	31892	
4146	0	31898	
4147	0	31892	
4148	0	31868	
4149	0	31832	
4150	0	31800	
4151	0	31768	
4152	0	31732	
4153	0	31720	
4154	0	31772	
4155	0	31832	
4156	0	31872	
4157	0	31920	
4158	0	31972	
4159	0	32032	
4160	0	32052	
4161	0	32096	
4162	0	32112	
4163	0	32124	
4164	0	32136	
4165	0	32096	
4166	0	32032	
4167	0	31936	
4168	0	31872	
4169	0	31844	
4170	0	31804	
4171	0	31800	
4172	0	31824	
4173	0	31888	
4174	0	31936	
4175	0	31980	
4176	0	32040	
4177	0	32096	
4178	0	32140	
4179	0	32176	
4180	0	32196	
4181	0	32176	
4182	0	32156	
4183	0	32140	
4184	0	32144	
4185	0	32096	
4186	0	32040	
4187	0	32002	
4188	0	31984	
4189	0	32000	
4190	0	31996	
4191	0	31968	
4192	0	31960	
4193	0	31976	
4194	0	31988	
4195	0	32048	
4196	0	32154	
4197	0	32232	
4198	0	32268	
4199	0	32324	
4200	0	32384	
4201	0	32444	
4202	0	32480	
4203	0	32512	
4204	0	32520	
4205	0	32504	
4206	0	32456	
4207	0	32438	
4208	0	32404	
4209	0	32364	
4210	0	32320	
4211	0	32312	
4212	0	32280	
4213	0	32252	
4214	0	32254	
4215	0	32280	
4216	0	32320	
4217	0	32346	
4218	0	32332	
4219	0	32352	
4220	0	32384	
4221	0	32398	
4222	0	32424	
4223	0	32444	
4224	0	32448	
4225	0	32412	
4226	0	32392	
4227	0	32384	
4228	0	32368	
4229	0	32348	
4230	0	32346	
4231	0	32320	
4232	0	32308	
4233	0	32316	
4234	0	32320	
4235	0	32352	
4236	0	32456	
4237	0	32556	
4238	0	32604	
4239	0	32628	
4240	0	32644	
4241	0	32656	
4242	0	32672	
4243	0	32712	
4244	0	32724	
4245	0	32672	
4246	0	32592	
4247	0	32544	
4248	0	32492	
4249	0	32448	
4250	0	32426	
4251	0	32428	
4252	0	32432	
4253	0	32444	
4254	0	32484	
4255	0	32504	
4256	0	32558	
4257	0	32592	
4258	0	32576	
4259	0	32600	
4260	0	32644	
4261	0	32696	
4262	0	32776	
4263	0	32848	
4264	0	32860	
4265	0	32856	
4266	0	32836	
4267	0	32808	
4268	0	32824	
4269	0	32876	
4270	0	32936	
4271	0	32972	
4272	0	32996	
4273	0	32976	
4274	0	32948	
4275	0	32986	
4276	0	33004	
4277	0	33020	
4278	0	32992	
4279	0	32980	
4280	0	32992	
4281	0	33044	
4282	0	33100	
4283	0	33120	
4284	0	33100	
4285	0	33056	
4286	0	33048	
4287	0	33088	
4288	0	33184	
4289	0	33296	
4290	0	33428	
4291	0	33560	
4292	0	33684	
4293	0	33812	
4294	0	33932	
4295	0	34036	
4296	0	34128	
4297	0	34208	
4298	0	34304	
4299	0	34376	
4300	0	34408	
4301	0	34456	
4302	0	34464	
4303	0	34496	
4304	0	34468	
4305	0	34412	
4306	0	34356	
4307	0	34272	
4308	0	34176	
4309	0	34068	
4310	0	33976	
4311	0	33852	
4312	0	33760	
4313	0	33680	
4314	0	33564	
4315	0	33436	
4316	0	33360	
4317	0	33320	
4318	0	33308	
4319	0	33236	
4320	0	33192	
4321	0	33168	
4322	0	33144	
4323	0	33132	
4324	0	33124	
4325	0	33072	
4326	0	33008	
4327	0	32968	
4328	0	32936	
4329	0	32880	
4330	0	32860	
4331	0	32840	
4332	0	32832	
4333	0	32812	
4334	0	32776	
4335	0	32792	
4336	0	32794	
4337	0	32768	
4338	0	32712	
4339	0	32720	
4340	0	32728	
4341	0	32736	
4342	0	32736	
4343	0	32760	
4344	0	32736	
4345	0	32672	
4346	0	32592	
4347	0	32480	
4348	0	32360	
4349	0	32288	
4350	0	32202	
4351	0	32104	
4352	0	31968	
4353	0	31872	
4354	0	31852	
4355	0	31892	
4356	0	31962	
4357	0	32080	
4358	0	32184	
4359	0	32266	
4360	0	32322	
4361	0	32392	
4362	0	32424	
4363	0	32420	
4364	0	32416	
4365	0	32440	
4366	0	32416	
4367	0	32352	
4368	0	32288	
4369	0	32296	
4370	0	32280	
4371	0	32300	
4372	0	32320	
4373	0	32312	
4374	0	32320	
4375	0	32354	
4376	0	32393	
4377	0	32408	
4378	0	32384	
4379	0	32392	
4380	0	32392	
4381	0	32380	
4382	0	32376	
4383	0	32400	
4384	0	32416	
4385	0	32380	
4386	0	32344	
4387	0	32288	
4388	0	32216	
4389	0	32172	
4390	0	32160	
4391	0	32168	
4392	0	32188	
4393	0	32200	
4394	0	32248	
4395	0	32336	
4396	0	32424	
4397	0	32520	
4398	0	32552	
4399	0	32584	
4400	0	32604	
4401	0	32644	
4402	0	32680	
4403	0	32688	
4404	0	32660	
4405	0	32608	
4406	0	32544	
4407	0	32490	
4408	0	32444	
4409	0	32416	
4410	0	32392	
4411	0	32388	
4412	0	32392	
4413	0	32414	
4414	0	32444	
4415	0	32480	
4416	0	32524	
4417	0	32560	
4418	0	32600	
4419	0	32688	
4420	0	32800	
4421	0	32864	
4422	0	32922	
4423	0	32952	
4424	0	32900	
4425	0	32784	
4426	0	32664	
4427	0	32532	
4428	0	32452	
4429	0	32404	
4430	0	32434	
4431	0	32560	
4432	0	32852	
4433	0	33164	
4434	0	33464	
4435	0	33780	
4436	0	34080	
4437	0	34308	
4438	0	34392	
4439	0	34460	
4440	0	34616	
4441	0	34916	
4442	0	35384	
4443	0	35988	
4444	0	36716	
4445	0	37588	
4446	0	38672	
4447	0	39944	
4448	0	41256	
4449	0	42532	
4450	0	43884	
4451	0	45304	
4452	0	46908	
4453	0	48512	
4454	0	49984	
4455	0	51200	
4456	0	52192	
4457	0	53108	
4458	0	53992	
4459	0	54856	
4460	0	55424	
4461	0	55428	
4462	0	54528	
4463	0	52548	
4464	0	49676	
4465	0	46348	
4466	0	42826	
4467	0	39376	
4468	0	36312	
4469	0	33792	
4470	0	31980	
4471	0	30844	
4472	0	30136	
4473	0	29688	
4474	0	29488	
4475	0	29456	
4476	0	29540	
4477	0	29764	
4478	0	30052	
4479	0	30344	
4480	0	30600	
4481	0	30788	
4482	0	30960	
4483	0	31136	
4484	0	31288	
4485	0	31352	
4486	0	31440	
4487	0	31516	
4488	0	31596	
4489	0	31620	
4490	0	31656	
4491	0	31664	
4492	0	31676	
4493	0	31692	
4494	0	31712	
4495	0	31768	
4496	0	31812	
4497	0	31820	
4498	0	31768	
4499	0	31692	
4500	0	31648	
4501	0	31654	
4502	0	31656	
4503	0	31664	
4504	0	31644	
4505	0	31576	
4506	0	31532	
4507	0	31460	
4508	0	31416	
4509	0	31380	
4510	0	31420	
4511	0	31446	
4512	0	31444	
4513	0	31454	
4514	0	31488	
4515	0	31564	
4516	0	31596	
4517	0	31604	
4518	0	31624	
4519	0	31668	
4520	0	31704	
4521	0	31744	
4522	0	31800	
4523	0	31876	
4524	0	31920	
4525	0	31900	
4526	0	31900	
4527	0	31876	
4528	0	31860	
4529	0	31848	
4530	0	31840	
4531	0	31836	
4532	0	31836	
4533	0	31832	
4534	0	31884	
4535	0	31936	
4536	0	32012	
4537	0	32076	
4538	0	32136	
4539	0	32180	
4540	0	32192	
4541	0	32192	
4542	0	32204	
4543	0	32232	
4544	0	32280	
4545	0	32320	
4546	0	32324	
4547	0	32316	
4548	0	32276	
4549	0	32248	
4550	0	32240	
4551	0	32282	
4552	0	32298	
4553	0	32312	
4554	0	32352	
4555	0	32388	
4556	0	32448	
4557	0	32472	
4558	0	32468	
4559	0	32492	
4560	0	32552	
4561	0	32656	
4562	0	32728	
4563	0	32730	
4564	0	32688	
4565	0	32640	
4566	0	32608	
4567	0	32576	
4568	0	32548	
4569	0	32492	
4570	0	32440	
4571	0	32404	
4572	0	32452	
4573	0	32498	
4574	0	32540	
4575	0	32600	
4576	0	32700	
4577	0	32788	
4578	0	32841	
4579	0	32888	
4580	0	32940	
4581	0	32960	
4582	0	33008	
4583	0	33012	
4584	0	33008	
4585	0	32992	
4586	0	32992	
4587	0	32976	
4588	0	32976	
4589	0	32964	
4590	0	32952	
4591	0	32964	
4592	0	33004	
4593	0	33040	
4594	0	33106	
4595	0	33192	
4596	0	33248	
4597	0	33264	
4598	0	33264	
4599	0	33308	
4600	0	33328	
4601	0	33336	
4602	0	33360	
4603	0	33392	
4604	0	33412	
4605	0	33404	
4606	0	33384	
4607	0	33364	
4608	0	33336	
4609	0	33312	
4610	0	33308	
4611	0	33312	
4612	0	33328	
4613	0	33348	
4614	0	33376	
4615	0	33448	
4616	0	33506	
4617	0	33544	
4618	0	33544	
4619	0	33576	
4620	0	33592	
4621	0	33616	
4622	0	33672	
4623	0	33724	
4624	0	33748	
4625	0	33768	
4626	0	33760	
4627	0	33744	
4628	0	33724	
4629	0	33696	
4630	0	33664	
4631	0	33642	
4632	0	33664	
4633	0	33680	
4634	0	33728	
4635	0	33792	
4636	0	33848	
4637	0	33916	
4638	0	33928	
4639	0	33932	
4640	0	33960	
4641	0	33964	
4642	0	33976	
4643	0	34000	
4644	0	34016	
4645	0	33968	
4646	0	33896	
4647	0	33832	
4648	0	33764	
4649	0	33744	
4650	0	33728	
4651	0	33728	
4652	0	33696	
4653	0	33688	
4654	0	33744	
4655	0	33744	
4656	0	33760	
4657	0	33792	
4658	0	33800	
4659	0	33816	
4660	0	33812	
4661	0	33832	
4662	0	33844	
4663	0	33884	
4664	0	33924	
4665	0	33932	
4666	0	33940	
4667	0	33944	
4668	0	33944	
4669	0	33924	
4670	0	33896	
4671	0	33914	
4672	0	33944	
4673	0	33948	
4674	0	33948	
4675	0	33952	
4676	0	33980	
4677	0	34024	
4678	0	34032	
4679	0	34060	
4680	0	34076	
4681	0	34088	
4682	0	34092	
4683	0	34112	
4684	0	34126	
4685	0	34084	
4686	0	34072	
4687	0	34028	
4688	0	33964	
4689	0	33904	
4690	0	33874	
4691	0	33872	
4692	0	33840	
4693	0	33864	
4694	0	33884	
4695	0	33912	
4696	0	33964	
4697	0	33996	
4698	0	33996	
4699	0	34000	
4700	0	34016	
4701	0	34004	
4702	0	33976	
4703	0	33944	
4704	0	33924	
4705	0	33908	
4706	0	33872	
4707	0	33824	
4708	0	33796	
4709	0	33764	
4710	0	33796	
4711	0	33800	
4712	0	33836	
4713	0	33888	
4714	0	33904	
4715	0	33912	
4716	0	33932	
4717	0	33972	
4718	0	33992	
4719	0	34008	
4720	0	33994	
4721	0	33992	
4722	0	34008	
4723	0	33994	
4724	0	33978	
4725	0	33932	
4726	0	33864	
4727	0	33836	
4728	0	33836	
4729	0	33764	
4730	0	33696	
4731	0	33664	
4732	0	33648	
4733	0	33632	
4734	0	33568	
4735	0	33540	
4736	0	33528	
4737	0	33556	
4738	0	33536	
4739	0	33536	
4740	0	33512	
4741	0	33452	
4742	0	33360	
4743	0	33292	
4744	0	33204	
4745	0	33082	
4746	0	32980	
4747	0	32904	
4748	0	32840	
4749	0	32720	
4750	0	32638	
4751	0	32564	
4752	0	32476	
4753	0	32376	
4754	0	32300	
4755	0	32248	
4756	0	32216	
4757	0	32164	
4758	0	32076	
4759	0	31988	
4760	0	31898	
4761	0	31840	
4762	0	31768	
4763	0	31744	
4764	0	31732	
4765	0	31672	
4766	0	31632	
4767	0	31564	
4768	0	31516	
4769	0	31456	
4770	0	31400	
4771	0	31356	
4772	0	31296	
4773	0	31232	
4774	0	31172	
4775	0	31148	
4776	0	31152	
4777	0	31156	
4778	0	31112	
4779	0	31056	
4780	0	31008	
4781	0	30968	
4782	0	30936	
4783	0	30936	
4784	0	30908	
4785	0	30848	
4786	0	30788	
4787	0	30748	
4788	0	30672	
4789	0	30626	
4790	0	30580	
4791	0	30576	
4792	0	30564	
4793	0	30548	
4794	0	30552	
4795	0	30584	
4796	0	30640	
4797	0	30704	
4798	0	30768	
4799	0	30816	
4800	0	30848	
4801	0	30860	
4802	0	30874	
4803	0	30908	
4804	0	30948	
4805	0	30920	
4806	0	30872	
4807	0	30852	
4808	0	30832	
4809	0	30760	
4810	0	30728	
4811	0	30696	
4812	0	30664	
4813	0	30680	
4814	0	30758	
4815	0	30864	
4816	0	30936	
4817	0	31008	
4818	0	31028	
4819	0	31012	
4820	0	31008	
4821	0	31044	
4822	0	31108	
4823	0	31128	
4824	0	31116	
4825	0	31068	
4826	0	31040	
4827	0	31004	
4828	0	30972	
4829	0	30936	
4830	0	30920	
4831	0	30928	
4832	0	30952	
4833	0	30976	
4834	0	31060	
4835	0	31176	
4836	0	31282	
4837	0	31376	
4838	0	31408	
4839	0	31392	
4840	0	31368	
4841	0	31360	
4842	0	31416	
4843	0	31424	
4844	0	31424	
4845	0	31404	
4846	0	31336	
4847	0	31306	
4848	0	31304	
4849	0	31256	
4850	0	31230	
4851	0	31176	
4852	0	31126	
4853	0	31160	
4854	0	31212	
4855	0	31264	
4856	0	31392	
4857	0	31504	
4858	0	31576	
4859	0	31584	
4860	0	31576	
4861	0	31576	
4862	0	31580	
4863	0	31592	
4864	0	31580	
4865	0	31576	
4866	0	31548	
4867	0	31504	
4868	0	31440	
4869	0	31376	
4870	0	31320	
4871	0	31320	
4872	0	31316	
4873	0	31296	
4874	0	31312	
4875	0	31344	
4876	0	31450	
4877	0	31592	
4878	0	31656	
4879	0	31676	
4880	0	31680	
4881	0	31720	
4882	0	31768	
4883	0	31800	
4884	0	31800	
4885	0	31800	
4886	0	31808	
4887	0	31764	
4888	0	31696	
4889	0	31604	
4890	0	31520	
4891	0	31480	
4892	0	31452	
4893	0	31452	
4894	0	31416	
4895	0	31448	
4896	0	31480	
4897	0	31524	
4898	0	31572	
4899	0	31616	
4900	0	31664	
4901	0	31704	
4902	0	31704	
4903	0	31664	
4904	0	31624	
4905	0	31564	
4906	0	31496	
4907	0	31448	
4908	0	31356	
4909	0	31280	
4910	0	31268	
4911	0	31276	
4912	0	31272	
4913	0	31260	
4914	0	31308	
4915	0	31352	
4916	0	31402	
4917	0	31498	
4918	0	31568	
4919	0	31664	
4920	0	31736	
4921	0	31788	
4922	0	31776	
4923	0	31760	
4924	0	31698	
4925	0	31624	
4926	0	31540	
4927	0	31456	
4928	0	31380	
4929	0	31340	
4930	0	31320	
4931	0	31304	
4932	0	31296	
4933	0	31304	
4934	0	31296	
4935	0	31332	
4936	0	31372	
4937	0	31488	
4938	0	31604	
4939	0	31668	
4940	0	31752	
4941	0	31800	
4942	0	31772	
4943	0	31756	
4944	0	31736	
4945	0	31712	
4946	0	31660	
4947	0	31608	
4948	0	31578	
4949	0	31568	
4950	0	31552	
4951	0	31508	
4952	0	31472	
4953	0	31436	
4954	0	31424	
4955	0	31464	
4956	0	31524	
4957	0	31568	
4958	0	31600	
4959	0	31632	
4960	0	31680	
4961	0	31704	
4962	0	31728	
4963	0	31744	
4964	0	31784	
4965	0	31784	
4966	0	31776	
4967	0	31720	
4968	0	31624	
4969	0	31540	
4970	0	31464	
4971	0	31456	
4972	0	31424	
4973	0	31380	
4974	0	31432	
4975	0	31512	
4976	0	31580	
4977	0	31632	
4978	0	31668	
4979	0	31744	
4980	0	31792	
4981	0	31840	
4982	0	31876	
4983	0	31920	
4984	0	31944	
4985	0	31932	
4986	0	31864	
4987	0	31760	
4988	0	31684	
4989	0	31668	
4990	0	31648	
4991	0	31616	
4992	0	31640	
4993	0	31664	
4994	0	31668	
4995	0	31708	
4996	0	31756	
4997	0	31832	
4998	0	31896	
4999	0	31936	
5000	0	31976	
5001	0	32012	
5002	0	32040	
5003	0	32088	
5004	0	32060	
5005	0	32008	
5006	0	31992	
5007	0	31984	
5008	0	31944	
5009	0	31896	
5010	0	31876	
5011	0	31872	
5012	0	31860	
5013	0	31864	
5014	0	31884	
5015	0	31912	
5016	0	31964	
5017	0	32008	
5018	0	32024	
5019	0	32020	
5020	0	32040	
5021	0	32032	
5022	0	32012	
5023	0	31996	
5024	0	32008	
5025	0	32012	
5026	0	31980	
5027	0	31936	
5028	0	31884	
5029	0	31904	
5030	0	31900	
5031	0	31868	
5032	0	31884	
5033	0	31888	
5034	0	31940	
5035	0	32024	
5036	0	32088	
5037	0	32156	
5038	0	32192	
5039	0	32192	
5040	0	32216	
5041	0	32288	
5042	0	32296	
5043	0	32282	
5044	0	32284	
5045	0	32240	
5046	0	32144	
5047	0	32080	
5048	0	32072	
5049	0	32084	
5050	0	32108	
5051	0	32120	
5052	0	32132	
5053	0	32128	
5054	0	32156	
5055	0	32192	
5056	0	32240	
5057	0	32312	
5058	0	32372	
5059	0	32388	
5060	0	32416	
5061	0	32450	
5062	0	32472	
5063	0	32500	
5064	0	32528	
5065	0	32536	
5066	0	32492	
5067	0	32452	
5068	0	32472	
5069	0	32508	
5070	0	32552	
5071	0	32576	
5072	0	32536	
5073	0	32516	
5074	0	32536	
5075	0	32520	
5076	0	32504	
5077	0	32480	
5078	0	32448	
5079	0	32456	
5080	0	32536	
5081	0	32592	
5082	0	32628	
5083	0	32620	
5084	0	32576	
5085	0	32544	
5086	0	32536	
5087	0	32512	
5088	0	32504	
5089	0	32568	
5090	0	32656	
5091	0	32794	
5092	0	32892	
5093	0	33020	
5094	0	33174	
5095	0	33336	
5096	0	33544	
5097	0	33768	
5098	0	33940	
5099	0	34092	
5100	0	34232	
5101	0	34404	
5102	0	34500	
5103	0	34560	
5104	0	34552	
5105	0	34468	
5106	0	34336	
5107	0	34180	
5108	0	33960	
5109	0	33720	
5110	0	33508	
5111	0	33356	
5112	0	33208	
5113	0	33072	
5114	0	33000	
5115	0	33000	
5116	0	33032	
5117	0	33044	
5118	0	33024	
5119	0	32992	
5120	0	32988	
5121	0	32976	
5122	0	32956	
5123	0	32922	
5124	0	32888	
5125	0	32864	
5126	0	32840	
5127	0	32784	
5128	0	32652	
5129	0	32552	
5130	0	32504	
5131	0	32500	
5132	0	32544	
5133	0	32632	
5134	0	32672	
5135	0	32688	
5136	0	32720	
5137	0	32776	
5138	0	32788	
5139	0	32748	
5140	0	32664	
5141	0	32632	
5142	0	32628	
5143	0	32612	
5144	0	32568	
5145	0	32472	
5146	0	32384	
5147	0	32320	
5148	0	32224	
5149	0	32148	
5150	0	32092	
5151	0	32076	
5152	0	32064	
5153	0	32092	
5154	0	32124	
5155	0	32156	
5156	0	32192	
5157	0	32224	
5158	0	32264	
5159	0	32296	
5160	0	32272	
5161	0	32232	
5162	0	32184	
5163	0	32192	
5164	0	32228	
5165	0	32220	
5166	0	32192	
5167	0	32152	
5168	0	32140	
5169	0	32130	
5170	0	32076	
5171	0	32024	
5172	0	31988	
5173	0	31994	
5174	0	32044	
5175	0	32136	
5176	0	32220	
5177	0	32288	
5178	0	32332	
5179	0	32392	
5180	0	32448	
5181	0	32448	
5182	0	32436	
5183	0	32436	
5184	0	32440	
5185	0	32424	
5186	0	32392	
5187	0	32344	
5188	0	32290	
5189	0	32272	
5190	0	32256	
5191	0	32208	
5192	0	32184	
5193	0	32168	
5194	0	32136	
5195	0	32104	
5196	0	32148	
5197	0	32240	
5198	0	32304	
5199	0	32344	
5200	0	32389	
5201	0	32456	
5202	0	32460	
5203	0	32452	
5204	0	32476	
5205	0	32508	
5206	0	32516	
5207	0	32496	
5208	0	32456	
5209	0	32400	
5210	0	32388	
5211	0	32392	
5212	0	32360	
5213	0	32320	
5214	0	32300	
5215	0	32272	
5216	0	32288	
5217	0	32352	
5218	0	32436	
5219	0	32496	
5220	0	32556	
5221	0	32628	
5222	0	32712	
5223	0	32816	
5224	0	32900	
5225	0	32884	
5226	0	32824	
5227	0	32776	
5228	0	32704	
5229	0	32692	
5230	0	32720	
5231	0	32768	
5232	0	32916	
5233	0	33180	
5234	0	33498	
5235	0	33836	
5236	0	34184	
5237	0	34524	
5238	0	34818	
5239	0	34960	
5240	0	35060	
5241	0	35220	
5242	0	35572	
5243	0	36108	
5244	0	36784	
5245	0	37560	
5246	0	38498	
5247	0	39616	
5248	0	40968	
5249	0	42324	
5250	0	43704	
5251	0	45144	
5252	0	46668	
5253	0	48296	
5254	0	49872	
5255	0	51264	
5256	0	52472	
5257	0	53480	
5258	0	54484	
5259	0	55508	
5260	0	56368	
5261	0	56864	
5262	0	56768	
5263	0	55664	
5264	0	53480	
5265	0	50456	
5266	0	46924	
5267	0	43256	
5268	0	39704	
5269	0	36634	
5270	0	34216	
5271	0	32496	
5272	0	31272	
5273	0	30466	
5274	0	30000	
5275	0	29760	
5276	0	29716	
5277	0	29812	
5278	0	30000	
5279	0	30240	
5280	0	30496	
5281	0	30736	
5282	0	30968	
5283	0	31172	
5284	0	31320	
5285	0	31376	
5286	0	31420	
5287	0	31472	
5288	0	31516	
5289	0	31528	
5290	0	31564	
5291	0	31592	
5292	0	31588	
5293	0	31540	
5294	0	31532	
5295	0	31536	
5296	0	31552	
5297	0	31548	
5298	0	31532	
5299	0	31508	
5300	0	31480	
5301	0	31448	
5302	0	31432	
5303	0	31384	
5304	0	31352	
5305	0	31332	
5306	0	31274	
5307	0	31244	
5308	0	31224	
5309	0	31188	
5310	0	31138	
5311	0	31084	
5312	0	31040	
5313	0	31040	
5314	0	31036	
5315	0	31088	
5316	0	31168	
5317	0	31296	
5318	0	31368	
5319	0	31404	
5320	0	31440	
5321	0	31488	
5322	0	31532	
5323	0	31568	
5324	0	31584	
5325	0	31568	
5326	0	31522	
5327	0	31468	
5328	0	31456	
5329	0	31460	
5330	0	31456	
5331	0	31470	
5332	0	31460	
5333	0	31492	
5334	0	31524	
5335	0	31584	
5336	0	31688	
5337	0	31820	
5338	0	31928	
5339	0	31996	
5340	0	32044	
5341	0	32080	
5342	0	32100	
5343	0	32064	
5344	0	32048	
5345	0	32012	
5346	0	31964	
5347	0	31916	
5348	0	31892	
5349	0	31904	
5350	0	31920	
5351	0	31948	
5352	0	31960	
5353	0	31972	
5354	0	31984	
5355	0	32052	
5356	0	32124	
5357	0	32200	
5358	0	32280	
5359	0	32352	
5360	0	32452	
5361	0	32532	
5362	0	32568	
5363	0	32548	
5364	0	32546	
5365	0	32536	
5366	0	32488	
5367	0	32436	
5368	0	32396	
5369	0	32344	
5370	0	32284	
5371	0	32268	
5372	0	32288	
5373	0	32308	
5374	0	32308	
5375	0	32360	
5376	0	32440	
5377	0	32508	
5378	0	32600	
5379	0	32680	
5380	0	32760	
5381	0	32816	
5382	0	32844	
5383	0	32856	
5384	0	32932	
5385	0	32940	
5386	0	32916	
5387	0	32856	
5388	0	32836	
5389	0	32818	
5390	0	32832	
5391	0	32848	
5392	0	32836	
5393	0	32860	
5394	0	32924	
5395	0	32964	
5396	0	32980	
5397	0	33016	
5398	0	33072	
5399	0	33164	
5400	0	33240	
5401	0	33312	
5402	0	33332	
5403	0	33338	
5404	0	33324	
5405	0	33288	
5406	0	33212	
5407	0	33134	
5408	0	33080	
5409	0	33052	
5410	0	33044	
5411	0	33072	
5412	0	33104	
5413	0	33120	
5414	0	33132	
5415	0	33160	
5416	0	33224	
5417	0	33332	
5418	0	33440	
5419	0	33532	
5420	0	33632	
5421	0	33696	
5422	0	33732	
5423	0	33756	
5424	0	33764	
5425	0	33704	
5426	0	33568	
5427	0	33456	
5428	0	33384	
5429	0	33352	
5430	0	33320	
5431	0	33268	
5432	0	33244	
5433	0	33240	
5434	0	33248	
5435	0	33309	
5436	0	33412	
5437	0	33504	
5438	0	33556	
5439	0	33560	
5440	0	33616	
5441	0	33676	
5442	0	33732	
5443	0	33792	
5444	0	33864	
5445	0	33872	
5446	0	33852	
5447	0	33816	
5448	0	33780	
5449	0	33760	
5450	0	33776	
5451	0	33780	
5452	0	33788	
5453	0	33764	
5454	0	33752	
5455	0	33788	
5456	0	33892	
5457	0	33968	
5458	0	34068	
5459	0	34078	
5460	0	34088	
5461	0	34096	
5462	0	34144	
5463	0	34176	
5464	0	34216	
5465	0	34232	
5466	0	34176	
5467	0	34116	
5468	0	34052	
5469	0	34012	
5470	0	33976	
5471	0	33920	
5472	0	33888	
5473	0	33880	
5474	0	33884	
5475	0	33896	
5476	0	33920	
5477	0	33964	
5478	0	34004	
5479	0	34036	
5480	0	34048	
5481	0	34064	
5482	0	34088	
5483	0	34136	
5484	0	34188	
5485	0	34192	
5486	0	34176	
5487	0	34124	
5488	0	34104	
5489	0	34088	
5490	0	34104	
5491	0	34096	
5492	0	34100	
5493	0	34080	
5494	0	34052	
5495	0	34076	
5496	0	34112	
5497	0	34184	
5498	0	34196	
5499	0	34176	
5500	0	34156	
5501	0	34144	
5502	0	34168	
5503	0	34204	
5504	0	34232	
5505	0	34268	
5506	0	34264	
5507	0	34208	
5508	0	34152	
5509	0	34104	
5510	0	34060	
5511	0	34036	
5512	0	34008	
5513	0	33984	
5514	0	33984	
5515	0	34008	
5516	0	34056	
5517	0	34116	
5518	0	34176	
5519	0	34228	
5520	0	34264	
5521	0	34296	
5522	0	34304	
5523	0	34272	
5524	0	34216	
5525	0	34148	
5526	0	34024	
5527	0	33912	
5528	0	33828	
5529	0	33764	
5530	0	33704	
5531	0	33664	
5532	0	33604	
5533	0	33520	
5534	0	33440	
5535	0	33424	
5536	0	33416	
5537	0	33392	
5538	0	33368	
5539	0	33376	
5540	0	33360	
5541	0	33312	
5542	0	33264	
5543	0	33210	
5544	0	33136	
5545	0	32996	
5546	0	32872	
5547	0	32752	
5548	0	32664	
5549	0	32584	
5550	0	32496	
5551	0	32404	
5552	0	32336	
5553	0	32288	
5554	0	32232	
5555	0	32224	
5556	0	32232	
5557	0	32236	
5558	0	32216	
5559	0	32152	
5560	0	32050	
5561	0	31952	
5562	0	31840	
5563	0	31764	
5564	0	31688	
5565	0	31584	
5566	0	31476	
5567	0	31376	
5568	0	31328	
5569	0	31252	
5570	0	31136	
5571	0	31058	
5572	0	30960	
5573	0	30880	
5574	0	30800	
5575	0	30736	
5576	0	30704	
5577	0	30716	
5578	0	30748	
5579	0	30768	
5580	0	30764	
5581	0	30762	
5582	0	30780	
5583	0	30808	
5584	0	30812	
5585	0	30752	
5586	0	30688	
5587	0	30616	
5588	0	30584	
5589	0	30524	
5590	0	30484	
5591	0	30420	
5592	0	30388	
5593	0	30380	
5594	0	30368	
5595	0	30388	
5596	0	30476	
5597	0	30552	
5598	0	30580	
5599	0	30596	
5600	0	30632	
5601	0	30684	
5602	0	30720	
5603	0	30744	
5604	0	30764	
5605	0	30772	
5606	0	30792	
5607	0	30760	
5608	0	30780	
5609	0	30756	
5610	0	30764	
5611	0	30768	
5612	0	30784	
5613	0	30776	
5614	0	30792	
5615	0	30816	
5616	0	30872	
5617	0	30944	
5618	0	31028	
5619	0	31064	
5620	0	31068	
5621	0	31102	
5622	0	31160	
5623	0	31200	
5624	0	31260	
5625	0	31296	
5626	0	31272	
5627	0	31244	
5628	0	31194	
5629	0	31156	
5630	0	31120	
5631	0	31080	
5632	0	31072	
5633	0	31084	
5634	0	31132	
5635	0	31188	
5636	0	31232	
5637	0	31300	
5638	0	31386	
5639	0	31404	
5640	0	31420	
5641	0	31456	
5642	0	31492	
5643	0	31538	
5644	0	31552	
5645	0	31536	
5646	0	31482	
5647	0	31428	
5648	0	31380	
5649	0	31362	
5650	0	31364	
5651	0	31384	
5652	0	31368	
5653	0	31356	
5654	0	31368	
5655	0	31400	
5656	0	31444	
5657	0	31524	
5658	0	31548	
5659	0	31542	
5660	0	31556	
5661	0	31560	
5662	0	31528	
5663	0	31540	
5664	0	31564	
5665	0	31552	
5666	0	31498	
5667	0	31464	
5668	0	31444	
5669	0	31424	
5670	0	31460	
5671	0	31500	
5672	0	31524	
5673	0	31536	
5674	0	31536	
5675	0	31560	
5676	0	31580	
5677	0	31620	
5678	0	31672	
5679	0	31716	
5680	0	31748	
5681	0	31744	
5682	0	31728	
5683	0	31716	
5684	0	31704	
5685	0	31652	
5686	0	31588	
5687	0	31538	
5688	0	31492	
5689	0	31466	
5690	0	31468	
5691	0	31452	
5692	0	31440	
5693	0	31448	
5694	0	31464	
5695	0	31488	
5696	0	31560	
5697	0	31596	
5698	0	31612	
5699	0	31608	
5700	0	31636	
5701	0	31648	
5702	0	31672	
5703	0	31676	
5704	0	31708	
5705	0	31712	
5706	0	31676	
5707	0	31636	
5708	0	31640	
5709	0	31628	
5710	0	31616	
5711	0	31592	
5712	0	31568	
5713	0	31552	
5714	0	31554	
5715	0	31568	
5716	0	31628	
5717	0	31704	
5718	0	31752	
5719	0	31770	
5720	0	31784	
5721	0	31788	
5722	0	31784	
5723	0	31796	
5724	0	31812	
5725	0	31768	
5726	0	31712	
5727	0	31624	
5728	0	31564	
5729	0	31540	
5730	0	31524	
5731	0	31532	
5732	0	31544	
5733	0	31544	
5734	0	31544	
5735	0	31584	
5736	0	31640	
5737	0	31688	
5738	0	31750	
5739	0	31778	
5740	0	31736	
5741	0	31776	
5742	0	31792	
5743	0	31796	
5744	0	31802	
5745	0	31800	
5746	0	31752	
5747	0	31724	
5748	0	31684	
5749	0	31668	
5750	0	31628	
5751	0	31612	
5752	0	31600	
5753	0	31572	
5754	0	31560	
5755	0	31572	
5756	0	31608	
5757	0	31688	
5758	0	31754	
5759	0	31788	
5760	0	31832	
5761	0	31888	
5762	0	31920	
5763	0	31908	
5764	0	31904	
5765	0	31936	
5766	0	31920	
5767	0	31904	
5768	0	31888	
5769	0	31836	
5770	0	31770	
5771	0	31754	
5772	0	31776	
5773	0	31770	
5774	0	31784	
5775	0	31808	
5776	0	31852	
5777	0	31908	
5778	0	31956	
5779	0	31940	
5780	0	31952	
5781	0	31976	
5782	0	31992	
5783	0	32036	
5784	0	32056	
5785	0	32024	
5786	0	31968	
5787	0	31920	
5788	0	31870	
5789	0	31818	
5790	0	31780	
5791	0	31772	
5792	0	31784	
5793	0	31812	
5794	0	31836	
5795	0	31872	
5796	0	31900	
5797	0	31908	
5798	0	31936	
5799	0	31988	
5800	0	32028	
5801	0	32056	
5802	0	32088	
5803	0	32152	
5804	0	32216	
5805	0	32212	
5806	0	32192	
5807	0	32140	
5808	0	32096	
5809	0	32028	
5810	0	31956	
5811	0	31928	
5812	0	31924	
5813	0	31924	
5814	0	31928	
5815	0	31944	
5816	0	31984	
5817	0	32048	
5818	0	32084	
5819	0	32116	
5820	0	32176	
5821	0	32244	
5822	0	32276	
5823	0	32288	
5824	0	32320	
5825	0	32332	
5826	0	32308	
5827	0	32296	
5828	0	32264	
5829	0	32216	
5830	0	32192	
5831	0	32176	
5832	0	32176	
5833	0	32176	
5834	0	32164	
5835	0	32184	
5836	0	32204	
5837	0	32228	
5838	0	32256	
5839	0	32272	
5840	0	32276	
5841	0	32312	
5842	0	32344	
5843	0	32368	
5844	0	32408	
5845	0	32412	
5846	0	32385	
5847	0	32368	
5848	0	32416	
5849	0	32476	
5850	0	32532	
5851	0	32580	
5852	0	32620	
5853	0	32636	
5854	0	32652	
5855	0	32680	
5856	0	32688	
5857	0	32692	
5858	0	32680	
5859	0	32660	
5860	0	32670	
5861	0	32716	
5862	0	32768	
5863	0	32804	
5864	0	32804	
5865	0	32796	
5866	0	32762	
5867	0	32712	
5868	0	32728	
5869	0	32812	
5870	0	32904	
5871	0	32968	
5872	0	33008	
5873	0	33076	
5874	0	33160	
5875	0	33264	
5876	0	33440	
5877	0	33576	
5878	0	33716	
5879	0	33816	
5880	0	33888	
5881	0	34006	
5882	0	34116	
5883	0	34216	
5884	0	34288	
5885	0	34288	
5886	0	34212	
5887	0	34092	
5888	0	33944	
5889	0	33768	
5890	0	33600	
5891	0	33496	
5892	0	33400	
5893	0	33332	
5894	0	33268	
5895	0	33204	
5896	0	33216	
5897	0	33192	
5898	0	33144	
5899	0	33100	
5900	0	33044	
5901	0	33020	
5902	0	32996	
5903	0	32992	
5904	0	32980	
5905	0	32920	
5906	0	32848	
5907	0	32760	
5908	0	32704	
5909	0	32636	
5910	0	32576	
5911	0	32536	
5912	0	32528	
5913	0	32524	
5914	0	32538	
5915	0	32584	
5916	0	32648	
5917	0	32718	
5918	0	32764	
5919	0	32770	
5920	0	32768	
5921	0	32752	
5922	0	32736	
5923	0	32720	
5924	0	32740	
5925	0	32724	
5926	0	32656	
5927	0	32524	
5928	0	32388	
5929	0	32288	
5930	0	32200	
5931	0	32098	
5932	0	32012	
5933	0	31968	
5934	0	31960	
5935	0	31972	
5936	0	32008	
5937	0	32080	
5938	0	32128	
5939	0	32168	
5940	0	32184	
5941	0	32176	
5942	0	32120	
5943	0	32076	
5944	0	32096	
5945	0	32096	
5946	0	32056	
5947	0	32032	
5948	0	31988	
5949	0	31964	
5950	0	31984	
5951	0	32008	
5952	0	32032	
5953	0	32056	
5954	0	32076	
5955	0	32104	
5956	0	32140	
5957	0	32196	
5958	0	32248	
5959	0	32280	
5960	0	32304	
5961	0	32368	
5962	0	32404	
5963	0	32396	
5964	0	32388	
5965	0	32412	
5966	0	32396	
5967	0	32352	
5968	0	32332	
5969	0	32300	
5970	0	32280	
5971	0	32260	
5972	0	32248	
5973	0	32248	
5974	0	32280	
5975	0	32320	
5976	0	32356	
5977	0	32384	
5978	0	32412	
5979	0	32440	
5980	0	32480	
5981	0	32500	
5982	0	32508	
5983	0	32544	
5984	0	32580	
5985	0	32596	
5986	0	32552	
5987	0	32532	
5988	0	32504	
5989	0	32488	
5990	0	32468	
5991	0	32426	
5992	0	32402	
5993	0	32368	
5994	0	32324	
5995	0	32288	
5996	0	32312	
5997	0	32408	
5998	0	32500	
5999	0	32560	
6000	0	32628	
6001	0	32692	
6002	0	32788	
6003	0	32864	
6004	0	32944	
6005	0	33000	
6006	0	33012	
6007	0	33004	
6008	0	32960	
6009	0	32892	
6010	0	32800	
6011	0	32708	
6012	0	32668	
6013	0	32736	
6014	0	32960	
6015	0	33296	
6016	0	33692	
6017	0	34112	
6018	0	34504	
6019	0	34784	
6020	0	34988	
6021	0	35092	
6022	0	35180	
6023	0	35304	
6024	0	35656	
6025	0	36164	
6026	0	36752	
6027	0	37528	
6028	0	38488	
6029	0	39672	
6030	0	40908	
6031	0	42200	
6032	0	43544	
6033	0	45020	
6034	0	46560	
6035	0	48160	
6036	0	49656	
6037	0	50964	
6038	0	52076	
6039	0	53008	
6040	0	54100	
6041	0	55184	
6042	0	55964	
6043	0	56392	
6044	0	56028	
6045	0	54572	
6046	0	52100	
6047	0	48880	
6048	0	45292	
6049	0	41652	
6050	0	38256	
6051	0	35460	
6052	0	33440	
6053	0	32058	
6054	0	31124	
6055	0	30616	
6056	0	30392	
6057	0	30304	
6058	0	30292	
6059	0	30300	
6060	0	30340	
6061	0	30468	
6062	0	30646	
6063	0	30844	
6064	0	31032	
6065	0	31212	
6066	0	31296	
6067	0	31372	
6068	0	31504	
6069	0	31592	
6070	0	31648	
6071	0	31708	
6072	0	31740	
6073	0	31768	
6074	0	31776	
6075	0	31768	
6076	0	31760	
6077	0	31736	
6078	0	31724	
6079	0	31668	
6080	0	31600	
6081	0	31556	
6082	0	31536	
6083	0	31478	
6084	0	31464	
6085	0	31464	
6086	0	31424	
6087	0	31348	
6088	0	31282	
6089	0	31220	
6090	0	31168	
6091	0	31120	
6092	0	31076	
6093	0	31048	
6094	0	31076	
6095	0	31092	
6096	0	31156	
6097	0	31232	
6098	0	31300	
6099	0	31364	
6100	0	31408	
6101	0	31460	
6102	0	31500	
6103	0	31560	
6104	0	31630	
6105	0	31672	
6106	0	31648	
6107	0	31600	
6108	0	31556	
6109	0	31544	
6110	0	31528	
6111	0	31516	
6112	0	31516	
6113	0	31516	
6114	0	31536	
6115	0	31532	
6116	0	31588	
6117	0	31648	
6118	0	31708	
6119	0	31768	
6120	0	31808	
6121	0	31824	
6122	0	31884	
6123	0	31936	
6124	0	31976	
6125	0	32012	
6126	0	32028	
6127	0	32008	
6128	0	32000	
6129	0	31992	
6130	0	32028	
6131	0	32052	
6132	0	32052	
6133	0	32016	
6134	0	32040	
6135	0	32064	
6136	0	32128	
6137	0	32210	
6138	0	32288	
6139	0	32336	
6140	0	32368	
6141	0	32404	
6142	0	32448	
6143	0	32492	
6144	0	32508	
6145	0	32564	
6146	0	32576	
6147	0	32556	
6148	0	32536	
6149	0	32504	
6150	0	32500	
6151	0	32500	
6152	0	32532	
6153	0	32544	
6154	0	32560	
6155	0	32580	
6156	0	32636	
6157	0	32684	
6158	0	32744	
6159	0	32808	
6160	0	32864	
6161	0	32924	
6162	0	32952	
6163	0	32984	
6164	0	33000	
6165	0	33000	
6166	0	32952	
6167	0	32904	
6168	0	32872	
6169	0	32828	
6170	0	32836	
6171	0	32848	
6172	0	32852	
6173	0	32844	
6174	0	32888	
6175	0	32920	
6176	0	32972	
6177	0	33016	
6178	0	33064	
6179	0	33124	
6180	0	33172	
6181	0	33224	
6182	0	33252	
6183	0	33272	
6184	0	33280	
6185	0	33300	
6186	0	33312	
6187	0	33304	
6188	0	33288	
6189	0	33306	
6190	0	33320	
6191	0	33336	
6192	0	33300	
6193	0	33276	
6194	0	33276	
6195	0	33280	
6196	0	33344	
6197	0	33404	
6198	0	33508	
6199	0	33580	
6200	0	33600	
6201	0	33612	
6202	0	33626	
6203	0	33644	
6204	0	33672	
6205	0	33684	
6206	0	33656	
6207	0	33600	
6208	0	33540	
6209	0	33496	
6210	0	33468	
6211	0	33464	
6212	0	33440	
6213	0	33408	
6214	0	33396	
6215	0	33436	
6216	0	33504	
6217	0	33564	
6218	0	33648	
6219	0	33712	
6220	0	33728	
6221	0	33760	
6222	0	33804	
6223	0	33852	
6224	0	33900	
6225	0	33912	
6226	0	33900	
6227	0	33884	
6228	0	33844	
6229	0	33820	
6230	0	33828	
6231	0	33816	
6232	0	33808	
6233	0	33832	
6234	0	33824	
6235	0	33816	
6236	0	33832	
6237	0	33836	
6238	0	33888	
6239	0	33952	
6240	0	34000	
6241	0	34028	
6242	0	34024	
6243	0	34044	
6244	0	34080	
6245	0	34116	
6246	0	34084	
6247	0	34064	
6248	0	34040	
6249	0	34008	
6250	0	34004	
6251	0	33992	
6252	0	33984	
6253	0	33980	
6254	0	33992	
6255	0	34008	
6256	0	34040	
6257	0	34120	
6258	0	34180	
6259	0	34216	
6260	0	34216	
6261	0	34256	
6262	0	34292	
6263	0	34296	
6264	0	34296	
6265	0	34292	
6266	0	34240	
6267	0	34176	
6268	0	34096	
6269	0	34040	
6270	0	33996	
6271	0	33996	
6272	0	33980	
6273	0	33972	
6274	0	33956	
6275	0	33980	
6276	0	33992	
6277	0	34044	
6278	0	34098	
6279	0	34124	
6280	0	34156	
6281	0	34202	
6282	0	34224	
6283	0	34248	
6284	0	34284	
6285	0	34304	
6286	0	34284	
6287	0	34248	
6288	0	34208	
6289	0	34172	
6290	0	34116	
6291	0	34072	
6292	0	34044	
6293	0	34028	
6294	0	34024	
6295	0	34056	
6296	0	34080	
6297	0	34144	
6298	0	34216	
6299	0	34232	
6300	0	34232	
6301	0	34216	
6302	0	34216	
6303	0	34228	
6304	0	34240	
6305	0	34208	
6306	0	34136	
6307	0	34060	
6308	0	33996	
6309	0	33938	
6310	0	33880	
6311	0	33800	
6312	0	33712	
6313	0	33658	
6314	0	33620	
6315	0	33580	
6316	0	33556	
6317	0	33532	
6318	0	33528	
6319	0	33512	
6320	0	33472	
6321	0	33448	
6322	0	33372	
6323	0	33314	
6324	0	33260	
6325	0	33192	
6326	0	33108	
6327	0	33016	
6328	0	32912	
6329	0	32804	
6330	0	32696	
6331	0	32560	
6332	0	32458	
6333	0	32336	
6334	0	32232	
6335	0	32128	
6336	0	32072	
6337	0	32040	
6338	0	32024	
6339	0	31976	
6340	0	31868	
6341	0	31812	
6342	0	31740	
6343	0	31644	
6344	0	31568	
6345	0	31476	
6346	0	31380	
6347	0	31248	
6348	0	31130	
6349	0	31012	
6350	0	30946	
6351	0	30864	
6352	0	30812	
6353	0	30746	
6354	0	30688	
6355	0	30660	
6356	0	30656	
6357	0	30648	
6358	0	30648	
6359	0	30652	
6360	0	30640	
6361	0	30636	
6362	0	30628	
6363	0	30608	
6364	0	30612	
6365	0	30592	
6366	0	30536	
6367	0	30492	
6368	0	30468	
6369	0	30432	
6370	0	30396	
6371	0	30372	
6372	0	30364	
6373	0	30336	
6374	0	30332	
6375	0	30320	
6376	0	30356	
6377	0	30408	
6378	0	30424	
6379	0	30440	
6380	0	30464	
6381	0	30500	
6382	0	30552	
6383	0	30576	
6384	0	30604	
6385	0	30620	
6386	0	30588	
6387	0	30552	
6388	0	30520	
6389	0	30508	
6390	0	30496	
6391	0	30492	
6392	0	30504	
6393	0	30512	
6394	0	30528	
6395	0	30584	
6396	0	30648	
6397	0	30720	
6398	0	30800	
6399	0	30844	
6400	0	30864	
6401	0	30920	
6402	0	30978	
6403	0	31028	
6404	0	31076	
6405	0	31096	
6406	0	31092	
6407	0	31048	
6408	0	31008	
6409	0	30956	
6410	0	30960	
6411	0	30988	
6412	0	31012	
6413	0	30988	
6414	0	30984	
6415	0	31008	
6416	0	31048	
6417	0	31120	
6418	0	31202	
6419	0	31260	
6420	0	31292	
6421	0	31308	
6422	0	31312	
6423	0	31316	
6424	0	31328	
6425	0	31348	
6426	0	31374	
6427	0	31346	
6428	0	31320	
6429	0	31280	
6430	0	31232	
6431	0	31204	
6432	0	31224	
6433	0	31244	
6434	0	31260	
6435	0	31260	
6436	0	31312	
6437	0	31400	
6438	0	31476	
6439	0	31560	
6440	0	31588	
6441	0	31616	
6442	0	31664	
6443	0	31688	
6444	0	31696	
6445	0	31728	
6446	0	31736	
6447	0	31720	
6448	0	31692	
6449	0	31664	
6450	0	31648	
6451	0	31628	
6452	0	31588	
6453	0	31560	
6454	0	31552	
6455	0	31564	
6456	0	31620	
6457	0	31676	
6458	0	31738	
6459	0	31744	
6460	0	31756	
6461	0	31776	
6462	0	31792	
6463	0	31800	
6464	0	31804	
6465	0	31792	
6466	0	31760	
6467	0	31720	
6468	0	31688	
6469	0	31652	
6470	0	31620	
6471	0	31608	
6472	0	31606	
6473	0	31612	
6474	0	31616	
6475	0	31608	
6476	0	31644	
6477	0	31688	
6478	0	31756	
6479	0	31800	
6480	0	31832	
6481	0	31856	
6482	0	31866	
6483	0	31868	
6484	0	31872	
6485	0	31872	
6486	0	31840	
6487	0	31792	
6488	0	31760	
6489	0	31728	
6490	0	31704	
6491	0	31700	
6492	0	31656	
6493	0	31632	
6494	0	31612	
6495	0	31616	
6496	0	31640	
6497	0	31688	
6498	0	31736	
6499	0	31756	
6500	0	31760	
6501	0	31776	
6502	0	31802	
6503	0	31812	
6504	0	31824	
6505	0	31852	
6506	0	31832	
6507	0	31784	
6508	0	31744	
6509	0	31708	
6510	0	31688	
6511	0	31668	
6512	0	31656	
6513	0	31628	
6514	0	31624	
6515	0	31656	
6516	0	31692	
6517	0	31748	
6518	0	31800	
6519	0	31810	
6520	0	31804	
6521	0	31812	
6522	0	31856	
6523	0	31888	
6524	0	31884	
6525	0	31872	
6526	0	31802	
6527	0	31754	
6528	0	31728	
6529	0	31676	
6530	0	31624	
6531	0	31616	
6532	0	31616	
6533	0	31608	
6534	0	31604	
6535	0	31632	
6536	0	31668	
6537	0	31724	
6538	0	31776	
6539	0	31824	
6540	0	31852	
6541	0	31876	
6542	0	31892	
6543	0	31928	
6544	0	31948	
6545	0	31964	
6546	0	31952	
6547	0	31944	
6548	0	31908	
6549	0	31872	
6550	0	31824	
6551	0	31808	
6552	0	31808	
6553	0	31788	
6554	0	31760	
6555	0	31776	
6556	0	31816	
6557	0	31840	
6558	0	31914	
6559	0	31968	
6560	0	32004	
6561	0	32036	
6562	0	32068	
6563	0	32096	
6564	0	32096	
6565	0	32088	
6566	0	32056	
6567	0	32028	
6568	0	31988	
6569	0	31964	
6570	0	31944	
6571	0	31932	
6572	0	31916	
6573	0	31908	
6574	0	31898	
6575	0	31904	
6576	0	31920	
6577	0	31976	
6578	0	32034	
6579	0	32088	
6580	0	32128	
6581	0	32152	
6582	0	32192	
6583	0	32208	
6584	0	32196	
6585	0	32160	
6586	0	32132	
6587	0	32102	
6588	0	32076	
6589	0	32064	
6590	0	32044	
6591	0	32020	
6592	0	31984	
6593	0	31952	
6594	0	31956	
6595	0	31960	
6596	0	32000	
6597	0	32040	
6598	0	32088	
6599	0	32156	
6600	0	32208	
6601	0	32240	
6602	0	32272	
6603	0	32304	
6604	0	32320	
6605	0	32312	
6606	0	32264	
6607	0	32240	
6608	0	32216	
6609	0	32184	
6610	0	32160	
6611	0	32126	
6612	0	32104	
6613	0	32108	
6614	0	32104	
6615	0	32096	
6616	0	32096	
6617	0	32148	
6618	0	32228	
6619	0	32280	
6620	0	32316	
6621	0	32372	
6622	0	32400	
6623	0	32408	
6624	0	32436	
6625	0	32472	
6626	0	32476	
6627	0	32458	
6628	0	32456	
6629	0	32402	
6630	0	32348	
6631	0	32300	
6632	0	32316	
6633	0	32316	
6634	0	32300	
6635	0	32304	
6636	0	32336	
6637	0	32380	
6638	0	32440	
6639	0	32496	
6640	0	32512	
6641	0	32528	
6642	0	32540	
6643	0	32576	
6644	0	32608	
6645	0	32636	
6646	0	32636	
6647	0	32580	
6648	0	32524	
6649	0	32464	
6650	0	32412	
6651	0	32392	
6652	0	32384	
6653	0	32356	
6654	0	32320	
6655	0	32336	
6656	0	32396	
6657	0	32460	
6658	0	32504	
6659	0	32520	
6660	0	32552	
6661	0	32594	
6662	0	32608	
6663	0	32632	
6664	0	32652	
6665	0	32664	
6666	0	32664	
6667	0	32612	
6668	0	32544	
6669	0	32488	
6670	0	32420	
6671	0	32364	
6672	0	32336	
6673	0	32326	
6674	0	32328	
6675	0	32352	
6676	0	32396	
6677	0	32450	
6678	0	32520	
6679	0	32580	
6680	0	32604	
6681	0	32636	
6682	0	32676	
6683	0	32704	
6684	0	32720	
6685	0	32728	
6686	0	32712	
6687	0	32672	
6688	0	32616	
6689	0	32600	
6690	0	32596	
6691	0	32592	
6692	0	32564	
6693	0	32528	
6694	0	32510	
6695	0	32516	
6696	0	32572	
6697	0	32612	
6698	0	32672	
6699	0	32736	
6700	0	32756	
6701	0	32788	
6702	0	32800	
6703	0	32808	
6704	0	32836	
6705	0	32860	
6706	0	32836	
6707	0	32808	
6708	0	32784	
6709	0	32756	
6710	0	32720	
6711	0	32696	
6712	0	32660	
6713	0	32656	
6714	0	32636	
6715	0	32624	
6716	0	32664	
6717	0	32716	
6718	0	32804	
6719	0	32828	
6720	0	32852	
6721	0	32888	
6722	0	32932	
6723	0	32948	
6724	0	32976	
6725	0	33008	
6726	0	32996	
6727	0	32972	
6728	0	32956	
6729	0	32908	
6730	0	32884	
6731	0	32864	
6732	0	32836	
6733	0	32784	
6734	0	32752	
6735	0	32728	
6736	0	32740	
6737	0	32768	
6738	0	32824	
6739	0	32864	
6740	0	32864	
6741	0	32900	
6742	0	32912	
6743	0	32932	
6744	0	32968	
6745	0	32968	
6746	0	32916	
6747	0	32874	
6748	0	32848	
6749	0	32816	
6750	0	32780	
6751	0	32758	
6752	0	32752	
6753	0	32720	
6754	0	32708	
6755	0	32724	
6756	0	32744	
6757	0	32788	
6758	0	32848	
6759	0	32888	
6760	0	32912	
6761	0	32956	
6762	0	32984	
6763	0	32988	
6764	0	32992	
6765	0	33032	
6766	0	33048	
6767	0	33004	
6768	0	32940	
6769	0	32892	
6770	0	32828	
6771	0	32768	
6772	0	32772	
6773	0	32768	
6774	0	32784	
6775	0	32812	
6776	0	32848	
6777	0	32888	
6778	0	32952	
6779	0	33000	
6780	0	33020	
6781	0	33052	
6782	0	33068	
6783	0	33052	
6784	0	33056	
6785	0	33080	
6786	0	33088	
6787	0	33044	
6788	0	32980	
6789	0	32960	
6790	0	32952	
6791	0	32916	
6792	0	32908	
6793	0	32924	
6794	0	32940	
6795	0	32992	
6796	0	33052	
6797	0	33132	
6798	0	33192	
6799	0	33212	
6800	0	33220	
6801	0	33216	
6802	0	33232	
6803	0	33232	
6804	0	33248	
6805	0	33282	
6806	0	33292	
6807	0	33272	
6808	0	33236	
6809	0	33196	
6810	0	33136	
6811	0	33096	
6812	0	33082	
6813	0	33088	
6814	0	33152	
6815	0	33284	
6816	0	33416	
6817	0	33600	
6818	0	33776	
6819	0	33952	
6820	0	34088	
6821	0	34212	
6822	0	34332	
6823	0	34396	
6824	0	34476	
6825	0	34576	
6826	0	34588	
6827	0	34578	
6828	0	34528	
6829	0	34498	
6830	0	34504	
6831	0	34464	
6832	0	34408	
6833	0	34340	
6834	0	34264	
6835	0	34152	
6836	0	34048	
6837	0	34016	
6838	0	33968	
6839	0	33916	
6840	0	33864	
6841	0	33810	
6842	0	33768	
6843	0	33736	
6844	0	33688	
6845	0	33660	
6846	0	33612	
6847	0	33512	
6848	0	33412	
6849	0	33352	
6850	0	33304	
6851	0	33260	
6852	0	33220	
6853	0	33172	
6854	0	33140	
6855	0	33100	
6856	0	33080	
6857	0	33088	
6858	0	33128	
6859	0	33200	
6860	0	33276	
6861	0	33332	
6862	0	33352	
6863	0	33344	
6864	0	33316	
6865	0	33284	
6866	0	33224	
6867	0	33156	
6868	0	33096	
6869	0	33008	
6870	0	32938	
6871	0	32900	
6872	0	32844	
6873	0	32772	
6874	0	32684	
6875	0	32612	
6876	0	32552	
6877	0	32548	
6878	0	32536	
6879	0	32548	
6880	0	32572	
6881	0	32604	
6882	0	32606	
6883	0	32612	
6884	0	32640	
6885	0	32652	
6886	0	32624	
6887	0	32568	
6888	0	32488	
6889	0	32432	
6890	0	32392	
6891	0	32332	
6892	0	32288	
6893	0	32264	
6894	0	32264	
6895	0	32264	
6896	0	32296	
6897	0	32372	
6898	0	32428	
6899	0	32464	
6900	0	32504	
6901	0	32528	
6902	0	32588	
6903	0	32644	
6904	0	32656	
6905	0	32676	
6906	0	32668	
6907	0	32612	
6908	0	32572	
6909	0	32554	
6910	0	32532	
6911	0	32520	
6912	0	32512	
6913	0	32504	
6914	0	32504	
6915	0	32520	
6916	0	32524	
6917	0	32568	
6918	0	32628	
6919	0	32684	
6920	0	32728	
6921	0	32752	
6922	0	32772	
6923	0	32768	
6924	0	32748	
6925	0	32760	
6926	0	32768	
6927	0	32736	
6928	0	32696	
6929	0	32660	
6930	0	32628	
6931	0	32632	
6932	0	32656	
6933	0	32624	
6934	0	32596	
6935	0	32580	
6936	0	32600	
6937	0	32628	
6938	0	32672	
6939	0	32720	
6940	0	32752	
6941	0	32785	
6942	0	32808	
6943	0	32824	
6944	0	32864	
6945	0	32928	
6946	0	33004	
6947	0	33032	
6948	0	33032	
6949	0	33036	
6950	0	33036	
6951	0	33016	
6952	0	33004	
6953	0	32960	
6954	0	32892	
6955	0	32844	
6956	0	32784	
6957	0	32836	
6958	0	33084	
6959	0	33436	
6960	0	33752	
6961	0	34066	
6962	0	34396	
6963	0	34608	
6964	0	34812	
6965	0	34936	
6966	0	35020	
6967	0	35116	
6968	0	35348	
6969	0	35752	
6970	0	36280	
6971	0	37012	
6972	0	37944	
6973	0	39068	
6974	0	40252	
6975	0	41468	
6976	0	42784	
6977	0	44200	
6978	0	45744	
6979	0	47288	
6980	0	48704	
6981	0	49924	
6982	0	50968	
6983	0	51816	
6984	0	52800	
6985	0	53852	
6986	0	54676	
6987	0	55120	
6988	0	54800	
6989	0	53400	
6990	0	51008	
6991	0	47876	
6992	0	44428	
6993	0	40944	
6994	0	37712	
6995	0	35012	
6996	0	33096	
6997	0	31872	
6998	0	31148	
6999	0	30784	
7000	0	30640	
7001	0	30600	
7002	0	30616	
7003	0	30680	
7004	0	30748	
7005	0	30896	
7006	0	31050	
7007	0	31144	
7008	0	31216	
7009	0	31264	
7010	0	31312	
7011	0	31400	
7012	0	31522	
7013	0	31616	
7014	0	31688	
7015	0	31756	
7016	0	31828	
7017	0	31896	
7018	0	31944	
7019	0	31960	
7020	0	31948	
7021	0	31940	
7022	0	31920	
7023	0	31900	
7024	0	31864	
7025	0	31840	
7026	0	31808	
7027	0	31738	
7028	0	31660	
7029	0	31582	
7030	0	31520	
7031	0	31476	
7032	0	31432	
7033	0	31404	
7034	0	31352	
7035	0	31344	
7036	0	31388	
7037	0	31452	
7038	0	31512	
7039	0	31580	
7040	0	31600	
7041	0	31616	
7042	0	31648	
7043	0	31680	
7044	0	31704	
7045	0	31736	
7046	0	31732	
7047	0	31692	
7048	0	31616	
7049	0	31564	
7050	0	31544	
7051	0	31508	
7052	0	31530	
7053	0	31576	
7054	0	31560	
7055	0	31560	
7056	0	31604	
7057	0	31676	
7058	0	31756	
7059	0	31842	
7060	0	31904	
7061	0	31968	
7062	0	32024	
7063	0	32072	
7064	0	32096	
7065	0	32108	
7066	0	32112	
7067	0	32088	
7068	0	32060	
7069	0	32056	
7070	0	32040	
7071	0	32012	
7072	0	32004	
7073	0	31992	
7074	0	32020	
7075	0	32020	
7076	0	32044	
7077	0	32112	
7078	0	32184	
7079	0	32250	
7080	0	32304	
7081	0	32344	
7082	0	32384	
7083	0	32420	
7084	0	32480	
7085	0	32524	
7086	0	32528	
7087	0	32482	
7088	0	32448	
7089	0	32428	
7090	0	32404	
7091	0	32404	
7092	0	32416	
7093	0	32404	
7094	0	32384	
7095	0	32392	
7096	0	32432	
7097	0	32518	
7098	0	32576	
7099	0	32628	
7100	0	32668	
7101	0	32696	
7102	0	32708	
7103	0	32720	
7104	0	32764	
7105	0	32808	
7106	0	32816	
7107	0	32788	
7108	0	32762	
7109	0	32776	
7110	0	32780	
7111	0	32740	
7112	0	32736	
7113	0	32752	
7114	0	32768	
7115	0	32764	
7116	0	32808	
7117	0	32896	
7118	0	32944	
7119	0	33020	
7120	0	33068	
7121	0	33108	
7122	0	33122	
7123	0	33140	
7124	0	33180	
7125	0	33200	
7126	0	33204	
7127	0	33156	
7128	0	33114	
7129	0	33094	
7130	0	33080	
7131	0	33048	
7132	0	33044	
7133	0	33048	
7134	0	33032	
7135	0	33060	
7136	0	33100	
7137	0	33156	
7138	0	33224	
7139	0	33284	
7140	0	33320	
7141	0	33328	
7142	0	33364	
7143	0	33376	
7144	0	33400	
7145	0	33428	
7146	0	33432	
7147	0	33384	
7148	0	33344	
7149	0	33312	
7150	0	33320	
7151	0	33272	
7152	0	33256	
7153	0	33248	
7154	0	33244	
7155	0	33272	
7156	0	33312	
7157	0	33372	
7158	0	33412	
7159	0	33484	
7160	0	33536	
7161	0	33572	
7162	0	33600	
7163	0	33640	
7164	0	33668	
7165	0	33680	
7166	0	33676	
7167	0	33648	
7168	0	33600	
7169	0	33564	
7170	0	33532	
7171	0	33512	
7172	0	33508	
7173	0	33492	
7174	0	33504	
7175	0	33520	
7176	0	33572	
7177	0	33616	
7178	0	33656	
7179	0	33728	
7180	0	33776	
7181	0	33816	
7182	0	33880	
7183	0	33920	
7184	0	33928	
7185	0	33952	
7186	0	33952	
7187	0	33908	
7188	0	33820	
7189	0	33784	
7190	0	33756	
7191	0	33728	
7192	0	33722	
7193	0	33728	
7194	0	33760	
7195	0	33776	
7196	0	33792	
7197	0	33848	
7198	0	33924	
7199	0	33958	
7200	0	33988	
7201	0	34000	
7202	0	34048	
7203	0	34072	
7204	0	34052	
7205	0	34056	
7206	0	34032	
7207	0	33960	
7208	0	33912	
7209	0	33880	
7210	0	33868	
7211	0	33828	
7212	0	33808	
7213	0	33780	
7214	0	33768	
7215	0	33800	
7216	0	33840	
7217	0	33868	
7218	0	33920	
7219	0	33968	
7220	0	33984	
7221	0	34000	
7222	0	33980	
7223	0	33972	
7224	0	33988	
7225	0	33996	
7226	0	33988	
7227	0	33952	
7228	0	33888	
7229	0	33824	
7230	0	33768	
7231	0	33736	
7232	0	33732	
7233	0	33736	
7234	0	33728	
7235	0	33712	
7236	0	33712	
7237	0	33728	
7238	0	33776	
7239	0	33828	
7240	0	33864	
7241	0	33872	
7242	0	33876	
7243	0	33904	
7244	0	33908	
7245	0	33904	
7246	0	33896	
7247	0	33864	
7248	0	33816	
7249	0	33772	
7250	0	33740	
7251	0	33688	
7252	0	33648	
7253	0	33628	
7254	0	33592	
7255	0	33580	
7256	0	33592	
7257	0	33600	
7258	0	33632	
7259	0	33672	
7260	0	33676	
7261	0	33688	
7262	0	33688	
7263	0	33684	
7264	0	33668	
7265	0	33644	
7266	0	33612	
7267	0	33528	
7268	0	33408	
7269	0	33282	
7270	0	33188	
7271	0	33088	
7272	0	32992	
7273	0	32908	
7274	0	32816	
7275	0	32736	
7276	0	32692	
7277	0	32672	
7278	0	32656	
7279	0	32644	
7280	0	32596	
7281	0	32562	
7282	0	32520	
7283	0	32484	
7284	0	32436	
7285	0	32386	
7286	0	32328	
7287	0	32224	
7288	0	32108	
7289	0	32008	
7290	0	31904	
7291	0	31804	
7292	0	31688	
7293	0	31600	
7294	0	31548	
7295	0	31488	
7296	0	31432	
7297	0	31380	
7298	0	31384	
7299	0	31376	
7300	0	31336	
7301	0	31288	
7302	0	31276	
7303	0	31220	
7304	0	31188	
7305	0	31148	
7306	0	31122	
7307	0	31056	
7308	0	30968	
7309	0	30912	
7310	0	30842	
7311	0	30784	
7312	0	30740	
7313	0	30684	
7314	0	30628	
7315	0	30608	
7316	0	30632	
7317	0	30656	
7318	0	30696	
7319	0	30724	
7320	0	30736	
7321	0	30744	
7322	0	30746	
7323	0	30764	
7324	0	30776	
7325	0	30816	
7326	0	30784	
7327	0	30720	
7328	0	30692	
7329	0	30668	
7330	0	30656	
7331	0	30620	
7332	0	30596	
7333	0	30570	
7334	0	30564	
7335	0	30576	
7336	0	30632	
7337	0	30680	
7338	0	30746	
7339	0	30828	
7340	0	30860	
7341	0	30848	
7342	0	30864	
7343	0	30892	
7344	0	30920	
7345	0	30932	
7346	0	30944	
7347	0	30916	
7348	0	30890	
7349	0	30860	
7350	0	30830	
7351	0	30814	
7352	0	30808	
7353	0	30824	
7354	0	30828	
7355	0	30824	
7356	0	30840	
7357	0	30888	
7358	0	30960	
7359	0	31064	
7360	0	31128	
7361	0	31176	
7362	0	31220	
7363	0	31272	
7364	0	31296	
7365	0	31340	
7366	0	31368	
7367	0	31340	
7368	0	31292	
7369	0	31256	
7370	0	31212	
7371	0	31192	
7372	0	31172	
7373	0	31168	
7374	0	31156	
7375	0	31148	
7376	0	31180	
7377	0	31240	
7378	0	31314	
7379	0	31400	
7380	0	31436	
7381	0	31470	
7382	0	31496	
7383	0	31524	
7384	0	31544	
7385	0	31580	
7386	0	31596	
7387	0	31568	
7388	0	31532	
7389	0	31480	
7390	0	31436	
7391	0	31418	
7392	0	31396	
7393	0	31380	
7394	0	31368	
7395	0	31370	
7396	0	31376	
7397	0	31420	
7398	0	31472	
7399	0	31524	
7400	0	31544	
7401	0	31540	
7402	0	31572	
7403	0	31584	
7404	0	31608	
7405	0	31636	
7406	0	31640	
7407	0	31624	
7408	0	31584	
7409	0	31544	
7410	0	31504	
7411	0	31496	
7412	0	31500	
7413	0	31480	
7414	0	31482	
7415	0	31468	
7416	0	31476	
7417	0	31528	
7418	0	31576	
7419	0	31616	
7420	0	31648	
7421	0	31660	
7422	0	31661	
7423	0	31684	
7424	0	31680	
7425	0	31712	
7426	0	31738	
7427	0	31708	
7428	0	31644	
7429	0	31596	
7430	0	31536	
7431	0	31504	
7432	0	31480	
7433	0	31464	
7434	0	31440	
7435	0	31444	
7436	0	31456	
7437	0	31520	
7438	0	31604	
7439	0	31680	
7440	0	31692	
7441	0	31724	
7442	0	31744	
7443	0	31768	
7444	0	31776	
7445	0	31820	
7446	0	31836	
7447	0	31794	
7448	0	31728	
7449	0	31672	
7450	0	31636	
7451	0	31580	
7452	0	31544	
7453	0	31516	
7454	0	31512	
7455	0	31528	
7456	0	31556	
7457	0	31596	
7458	0	31648	
7459	0	31700	
7460	0	31716	
7461	0	31732	
7462	0	31764	
7463	0	31808	
7464	0	31820	
7465	0	31772	
7466	0	31788	
7467	0	31752	
7468	0	31712	
7469	0	31692	
7470	0	31616	
7471	0	31578	
7472	0	31564	
7473	0	31544	
7474	0	31552	
7475	0	31548	
7476	0	31572	
7477	0	31600	
7478	0	31648	
7479	0	31720	
7480	0	31736	
7481	0	31768	
7482	0	31820	
7483	0	31856	
7484	0	31864	
7485	0	31860	
7486	0	31870	
7487	0	31884	
7488	0	31868	
7489	0	31812	
7490	0	31780	
7491	0	31752	
7492	0	31748	
7493	0	31732	
7494	0	31728	
7495	0	31712	
7496	0	31722	
7497	0	31776	
7498	0	31832	
7499	0	31892	
7500	0	31928	
7501	0	31960	
7502	0	31988	
7503	0	32020	
7504	0	32052	
7505	0	32048	
7506	0	32036	
7507	0	31996	
7508	0	31944	
7509	0	31900	
7510	0	31880	
7511	0	31862	
7512	0	31864	
7513	0	31852	
7514	0	31848	
7515	0	31824	
7516	0	31824	
7517	0	31872	
7518	0	31928	
7519	0	31968	
7520	0	32004	
7521	0	32016	
7522	0	32052	
7523	0	32080	
7524	0	32092	
7525	0	32072	
7526	0	32076	
7527	0	32044	
7528	0	31984	
7529	0	31936	
7530	0	31900	
7531	0	31880	
7532	0	31872	
7533	0	31860	
7534	0	31840	
7535	0	31826	
7536	0	31816	
7537	0	31852	
7538	0	31912	
7539	0	31984	
7540	0	32040	
7541	0	32096	
7542	0	32160	
7543	0	32192	
7544	0	32206	
7545	0	32200	
7546	0	32192	
7547	0	32164	
7548	0	32128	
7549	0	32092	
7550	0	32040	
7551	0	32000	
7552	0	31992	
7553	0	32012	
7554	0	31996	
7555	0	32000	
7556	0	32020	
7557	0	32064	
7558	0	32112	
7559	0	32140	
7560	0	32168	
7561	0	32188	
7562	0	32228	
7563	0	32264	
7564	0	32300	
7565	0	32308	
7566	0	32328	
7567	0	32296	
7568	0	32242	
7569	0	32208	
7570	0	32180	
7571	0	32156	
7572	0	32164	
7573	0	32156	
7574	0	32138	
7575	0	32124	
7576	0	32128	
7577	0	32188	
7578	0	32248	
7579	0	32290	
7580	0	32328	
7581	0	32338	
7582	0	32364	
7583	0	32384	
7584	0	32420	
7585	0	32456	
7586	0	32468	
7587	0	32452	
7588	0	32408	
7589	0	32384	
7590	0	32348	
7591	0	32348	
7592	0	32348	
7593	0	32336	
7594	0	32320	
7595	0	32292	
7596	0	32308	
7597	0	32356	
7598	0	32412	
7599	0	32464	
7600	0	32504	
7601	0	32536	
7602	0	32554	
7603	0	32568	
7604	0	32576	
7605	0	32596	
7606	0	32592	
7607	0	32564	
7608	0	32488	
7609	0	32448	
7610	0	32416	
7611	0	32392	
7612	0	32384	
7613	0	32362	
7614	0	32340	
7615	0	32332	
7616	0	32328	
7617	0	32364	
7618	0	32412	
7619	0	32476	
7620	0	32524	
7621	0	32568	
7622	0	32604	
7623	0	32632	
7624	0	32616	
7625	0	32648	
7626	0	32648	
7627	0	32632	
7628	0	32580	
7629	0	32512	
7630	0	32480	
7631	0	32492	
7632	0	32492	
7633	0	32464	
7634	0	32464	
7635	0	32452	
7636	0	32440	
7637	0	32468	
7638	0	32524	
7639	0	32600	
7640	0	32632	
7641	0	32636	
7642	0	32642	
7643	0	32656	
7644	0	32664	
7645	0	32672	
7646	0	32692	
7647	0	32692	
7648	0	32656	
7649	0	32640	
7650	0	32612	
7651	0	32588	
7652	0	32562	
7653	0	32540	
7654	0	32524	
7655	0	32528	
7656	0	32532	
7657	0	32564	
7658	0	32636	
7659	0	32708	
7660	0	32784	
7661	0	32804	
7662	0	32820	
7663	0	32824	
7664	0	32848	
7665	0	32856	
7666	0	32864	
7667	0	32838	
7668	0	32808	
7669	0	32772	
7670	0	32728	
7671	0	32688	
7672	0	32680	
7673	0	32652	
7674	0	32641	
7675	0	32628	
7676	0	32602	
7677	0	32608	
7678	0	32652	
7679	0	32724	
7680	0	32776	
7681	0	32820	
7682	0	32872	
7683	0	32920	
7684	0	32896	
7685	0	32896	
7686	0	32920	
7687	0	32872	
7688	0	32812	
7689	0	32784	
7690	0	32744	
7691	0	32716	
7692	0	32720	
7693	0	32700	
7694	0	32672	
7695	0	32672	
7696	0	32696	
7697	0	32760	
7698	0	32850	
7699	0	32900	
7700	0	32904	
7701	0	32932	
7702	0	32948	
7703	0	32984	
7704	0	33020	
7705	0	33028	
7706	0	33020	
7707	0	32996	
7708	0	32960	
7709	0	32926	
7710	0	32892	
7711	0	32888	
7712	0	32880	
7713	0	32864	
7714	0	32856	
7715	0	32864	
7716	0	32896	
7717	0	32944	
7718	0	33004	
7719	0	33072	
7720	0	33100	
7721	0	33104	
7722	0	33116	
7723	0	33132	
7724	0	33140	
7725	0	33140	
7726	0	33112	
7727	0	33088	
7728	0	33022	
7729	0	32960	
7730	0	32920	
7731	0	32896	
7732	0	32884	
7733	0	32884	
7734	0	32868	
7735	0	32876	
7736	0	32888	
7737	0	32944	
7738	0	33012	
7739	0	33072	
7740	0	33080	
7741	0	33120	
7742	0	33128	
7743	0	33140	
7744	0	33152	
7745	0	33180	
7746	0	33142	
7747	0	33088	
7748	0	33060	
7749	0	33028	
7750	0	32972	
7751	0	32940	
7752	0	32912	
7753	0	32908	
7754	0	32880	
7755	0	32868	
7756	0	32874	
7757	0	32912	
7758	0	32956	
7759	0	33016	
7760	0	33052	
7761	0	33068	
7762	0	33080	
7763	0	33098	
7764	0	33124	
7765	0	33148	
7766	0	33136	
7767	0	33080	
7768	0	33012	
7769	0	32976	
7770	0	32952	
7771	0	32944	
7772	0	32930	
7773	0	32920	
7774	0	32924	
7775	0	32912	
7776	0	32928	
7777	0	32956	
7778	0	32992	
7779	0	33036	
7780	0	33054	
7781	0	33068	
7782	0	33104	
7783	0	33120	
7784	0	33132	
7785	0	33164	
7786	0	33184	
7787	0	33154	
7788	0	33112	
7789	0	33056	
7790	0	32996	
7791	0	32952	
7792	0	32948	
7793	0	32932	
7794	0	32904	
7795	0	32916	
7796	0	32928	
7797	0	32968	
7798	0	33032	
7799	0	33064	
7800	0	33108	
7801	0	33116	
7802	0	33140	
7803	0	33172	
7804	0	33196	
7805	0	33216	
7806	0	33216	
7807	0	33188	
7808	0	33136	
7809	0	33104	
7810	0	33108	
7811	0	33068	
7812	0	33056	
7813	0	33064	
7814	0	33064	
7815	0	33064	
7816	0	33084	
7817	0	33168	
7818	0	33272	
7819	0	33388	
7820	0	33504	
7821	0	33572	
7822	0	33632	
7823	0	33664	
7824	0	33688	
7825	0	33700	
7826	0	33674	
7827	0	33616	
7828	0	33540	
7829	0	33490	
7830	0	33448	
7831	0	33404	
7832	0	33352	
7833	0	33316	
7834	0	33304	
7835	0	33300	
7836	0	33340	
7837	0	33428	
7838	0	33536	
7839	0	33684	
7840	0	33840	
7841	0	33976	
7842	0	34128	
7843	0	34280	
7844	0	34420	
7845	0	34570	
7846	0	34676	
7847	0	34752	
7848	0	34836	
7849	0	34888	
7850	0	34880	
7851	0	34848	
7852	0	34812	
7853	0	34768	
7854	0	34716	
7855	0	34696	
7856	0	34656	
7857	0	34612	
7858	0	34588	
7859	0	34552	
7860	0	34528	
7861	0	34488	
7862	0	34432	
7863	0	34336	
7864	0	34212	
7865	0	34104	
7866	0	34008	
7867	0	33876	
7868	0	33752	
7869	0	33648	
7870	0	33548	
7871	0	33492	
7872	0	33444	
7873	0	33384	
7874	0	33336	
7875	0	33260	
7876	0	33216	
7877	0	33208	
7878	0	33256	
7879	0	33292	
7880	0	33272	
7881	0	33272	
7882	0	33296	
7883	0	33328	
7884	0	33360	
7885	0	33356	
7886	0	33320	
7887	0	33256	
7888	0	33176	
7889	0	33124	
7890	0	33104	
7891	0	33068	
7892	0	33000	
7893	0	32948	
7894	0	32904	
7895	0	32880	
7896	0	32832	
7897	0	32796	
7898	0	32760	
7899	0	32746	
7900	0	32720	
7901	0	32688	
7902	0	32656	
7903	0	32646	
7904	0	32648	
7905	0	32640	
7906	0	32676	
7907	0	32668	
7908	0	32620	
7909	0	32580	
7910	0	32520	
7911	0	32462	
7912	0	32408	
7913	0	32368	
7914	0	32346	
7915	0	32344	
7916	0	32372	
7917	0	32416	
7918	0	32476	
7919	0	32540	
7920	0	32576	
7921	0	32588	
7922	0	32592	
7923	0	32620	
7924	0	32664	
7925	0	32688	
7926	0	32692	
7927	0	32656	
7928	0	32628	
7929	0	32604	
7930	0	32564	
7931	0	32524	
7932	0	32508	
7933	0	32516	
7934	0	32488	
7935	0	32484	
7936	0	32480	
7937	0	32504	
7938	0	32576	
7939	0	32648	
7940	0	32700	
7941	0	32708	
7942	0	32738	
7943	0	32782	
7944	0	32800	
7945	0	32792	
7946	0	32804	
7947	0	32776	
7948	0	32704	
7949	0	32640	
7950	0	32612	
7951	0	32584	
7952	0	32580	
7953	0	32576	
7954	0	32564	
7955	0	32564	
7956	0	32576	
7957	0	32620	
7958	0	32680	
7959	0	32736	
7960	0	32776	
7961	0	32784	
7962	0	32776	
7963	0	32800	
7964	0	32816	
7965	0	32840	
7966	0	32832	
7967	0	32812	
7968	0	32776	
7969	0	32768	
7970	0	32796	
7971	0	32832	
7972	0	32832	
7973	0	32836	
7974	0	32844	
7975	0	32848	
7976	0	32832	
7977	0	32794	
7978	0	32744	
7979	0	32720	
7980	0	32712	
7981	0	32700	
7982	0	32772	
7983	0	32996	
7984	0	33268	
7985	0	33552	
7986	0	33840	
7987	0	34064	
7988	0	34248	
7989	0	34376	
7990	0	34434	
7991	0	34552	
7992	0	34756	
7993	0	35096	
7994	0	35568	
7995	0	36160	
7996	0	37004	
7997	0	38044	
7998	0	39248	
7999	0	40524	
8000	0	41808	
8001	0	43116	
8002	0	44538	
8003	0	46040	
8004	0	47492	
8005	0	48748	
8006	0	49784	
8007	0	50612	
8008	0	51384	
8009	0	52280	
8010	0	53164	
8011	0	53784	
8012	0	53888	
8013	0	53112	
8014	0	51200	
8015	0	48380	
8016	0	45176	
8017	0	41856	
8018	0	38656	
8019	0	35800	
8020	0	33532	
8021	0	31988	
8022	0	31084	
8023	0	30604	
8024	0	30408	
8025	0	30348	
8026	0	30336	
8027	0	30336	
8028	0	30404	
8029	0	30496	
8030	0	30624	
8031	0	30744	
8032	0	30856	
8033	0	30952	
8034	0	31040	
8035	0	31122	
8036	0	31256	
8037	0	31440	
8038	0	31620	
8039	0	31780	
8040	0	31880	
8041	0	31956	
8042	0	31984	
8043	0	32008	
8044	0	31992	
8045	0	31968	
8046	0	31936	
8047	0	31872	
8048	0	31760	
8049	0	31664	
8050	0	31572	
8051	0	31496	
8052	0	31424	
8053	0	31348	
8054	0	31281	
8055	0	31240	
8056	0	31244	
8057	0	31266	
8058	0	31328	
8059	0	31372	
8060	0	31376	
8061	0	31408	
8062	0	31436	
8063	0	31448	
8064	0	31464	
8065	0	31512	
8066	0	31536	
8067	0	31528	
8068	0	31514	
8069	0	31472	
8070	0	31472	
8071	0	31472	
8072	0	31460	
8073	0	31440	
8074	0	31428	
8075	0	31444	
8076	0	31484	
8077	0	31532	
8078	0	31612	
8079	0	31700	
8080	0	31744	
8081	0	31772	
8082	0	31786	
8083	0	31808	
8084	0	31844	
8085	0	31872	
8086	0	31888	
8087	0	31840	
8088	0	31796	
8089	0	31776	
8090	0	31784	
8091	0	31780	
8092	0	31760	
8093	0	31768	
8094	0	31764	
8095	0	31780	
8096	0	31822	
8097	0	31860	
8098	0	31936	
8099	0	32028	
8100	0	32064	
8101	0	32120	
8102	0	32160	
8103	0	32180	
8104	0	32188	
8105	0	32228	
8106	0	32256	
8107	0	32284	
8108	0	32260	
8109	0	32222	
8110	0	32200	
8111	0	32204	
8112	0	32208	
8113	0	32192	
8114	0	32176	
8115	0	32176	
8116	0	32200	
8117	0	32240	
8118	0	32336	
8119	0	32432	
8120	0	32524	
8121	0	32556	
8122	0	32588	
8123	0	32624	
8124	0	32640	
8125	0	32676	
8126	0	32704	
8127	0	32672	
8128	0	32620	
8129	0	32600	
8130	0	32552	
8131	0	32520	
8132	0	32528	
8133	0	32536	
8134	0	32536	
8135	0	32560	
8136	0	32596	
8137	0	32652	
8138	0	32700	
8139	0	32772	
8140	0	32816	
8141	0	32868	
8142	0	32916	
8143	0	32952	
8144	0	33000	
8145	0	33036	
8146	0	33048	
8147	0	33044	
8148	0	32990	
8149	0	32972	
8150	0	32952	
8151	0	32964	
8152	0	32952	
8153	0	32940	
8154	0	32936	
8155	0	32944	
8156	0	32964	
8157	0	33028	
8158	0	33096	
8159	0	33180	
8160	0	33204	
8161	0	33248	
8162	0	33294	
8163	0	33344	
8164	0	33376	
8165	0	33402	
8166	0	33428	
8167	0	33392	
8168	0	33372	
8169	0	33348	
8170	0	33328	
8171	0	33312	
8172	0	33252	
8173	0	33224	
8174	0	33224	
8175	0	33228	
8176	0	33248	
8177	0	33324	
8178	0	33418	
8179	0	33484	
8180	0	33488	
8181	0	33528	
8182	0	33556	
8183	0	33576	
8184	0	33604	
8185	0	33632	
8186	0	33634	
8187	0	33632	
8188	0	33620	
8189	0	33584	
8190	0	33580	
8191	0	33560	
8192	0	33588	
8193	0	33600	
8194	0	33592	
8195	0	33596	
8196	0	33624	
8197	0	33676	
8198	0	33728	
8199	0	33792	
8200	0	33840	
8201	0	33888	
8202	0	33920	
8203	0	33952	
8204	0	33956	
8205	0	33984	
8206	0	33994	
8207	0	33960	
8208	0	33936	
8209	0	33904	
8210	0	33892	
8211	0	33880	
8212	0	33880	
8213	0	33868	
8214	0	33856	
8215	0	33846	
8216	0	33864	
8217	0	33896	
8218	0	33940	
8219	0	34004	
8220	0	34032	
8221	0	34056	
8222	0	34100	
8223	0	34144	
8224	0	34132	
8225	0	34128	
8226	0	34116	
8227	0	34060	
8228	0	33988	
8229	0	33940	
8230	0	33896	
8231	0	33868	
8232	0	33872	
8233	0	33878	
8234	0	33856	
8235	0	33832	
8236	0	33848	
8237	0	33896	
8238	0	33944	
8239	0	33992	
8240	0	34052	
8241	0	34060	
8242	0	34092	
8243	0	34108	
8244	0	34112	
8245	0	34132	
8246	0	34112	
8247	0	34080	
8248	0	34012	
8249	0	33928	
8250	0	33844	
8251	0	33804	
8252	0	33772	
8253	0	33760	
8254	0	33744	
8255	0	33696	
8256	0	33704	
8257	0	33728	
8258	0	33804	
8259	0	33860	
8260	0	33888	
8261	0	33896	
8262	0	33920	
8263	0	33952	
8264	0	33964	
8265	0	33992	
8266	0	33992	
8267	0	33940	
8268	0	33884	
8269	0	33848	
8270	0	33824	
8271	0	33768	
8272	0	33744	
8273	0	33704	
8274	0	33676	
8275	0	33668	
8276	0	33674	
8277	0	33672	
8278	0	33712	
8279	0	33752	
8280	0	33772	
8281	0	33764	
8282	0	33764	
8283	0	33748	
8284	0	33728	
8285	0	33722	
8286	0	33704	
8287	0	33646	
8288	0	33590	
8289	0	33512	
8290	0	33422	
8291	0	33334	
8292	0	33280	
8293	0	33216	
8294	0	33132	
8295	0	33056	
8296	0	33004	
8297	0	32980	
8298	0	32988	
8299	0	32996	
8300	0	32980	
8301	0	32936	
8302	0	32900	
8303	0	32856	
8304	0	32780	
8305	0	32736	
8306	0	32660	
8307	0	32548	
8308	0	32432	
8309	0	32308	
8310	0	32216	
8311	0	32140	
8312	0	32078	
8313	0	31992	
8314	0	31908	
8315	0	31832	
8316	0	31768	
8317	0	31752	
8318	0	31764	
8319	0	31760	
8320	0	31716	
8321	0	31680	
8322	0	31652	
8323	0	31618	
8324	0	31576	
8325	0	31516	
8326	0	31472	
8327	0	31386	
8328	0	31300	
8329	0	31224	
8330	0	31144	
8331	0	31072	
8332	0	31040	
8333	0	30984	
8334	0	30912	
8335	0	30836	
8336	0	30792	
8337	0	30776	
8338	0	30800	
8339	0	30812	
8340	0	30804	
8341	0	30812	
8342	0	30832	
8343	0	30860	
8344	0	30872	
8345	0	30856	
8346	0	30852	
8347	0	30796	
8348	0	30736	
8349	0	30696	
8350	0	30672	
8351	0	30648	
8352	0	30588	
8353	0	30540	
8354	0	30524	
8355	0	30512	
8356	0	30512	
8357	0	30552	
8358	0	30624	
8359	0	30656	
8360	0	30680	
8361	0	30696	
8362	0	30720	
8363	0	30776	
8364	0	30812	
8365	0	30832	
8366	0	30864	
8367	0	30836	
8368	0	30796	
8369	0	30780	
8370	0	30760	
8371	0	30736	
8372	0	30732	
8373	0	30724	
8374	0	30740	
8375	0	30744	
8376	0	30764	
8377	0	30816	
8378	0	30888	
8379	0	30956	
8380	0	31020	
8381	0	31060	
8382	0	31108	
8383	0	31136	
8384	0	31168	
8385	0	31200	
8386	0	31208	
8387	0	31208	
8388	0	31188	
8389	0	31156	
8390	0	31116	
8391	0	31112	
8392	0	31118	
8393	0	31120	
8394	0	31122	
8395	0	31156	
8396	0	31188	
8397	0	31240	
8398	0	31296	
8399	0	31328	
8400	0	31340	
8401	0	31336	
8402	0	31350	
8403	0	31368	
8404	0	31396	
8405	0	31436	
8406	0	31448	
8407	0	31424	
8408	0	31380	
8409	0	31356	
8410	0	31336	
8411	0	31312	
8412	0	31288	
8413	0	31272	
8414	0	31284	
8415	0	31296	
8416	0	31320	
8417	0	31360	
8418	0	31452	
8419	0	31536	
8420	0	31564	
8421	0	31580	
8422	0	31596	
8423	0	31632	
8424	0	31680	
8425	0	31696	
8426	0	31680	
8427	0	31636	
8428	0	31596	
8429	0	31552	
8430	0	31528	
8431	0	31508	
8432	0	31500	
8433	0	31484	
8434	0	31460	
8435	0	31448	
8436	0	31464	
8437	0	31512	
8438	0	31556	
8439	0	31596	
8440	0	31640	
8441	0	31684	
8442	0	31708	
8443	0	31712	
8444	0	31712	
8445	0	31728	
8446	0	31744	
8447	0	31712	
8448	0	31684	
8449	0	31648	
8450	0	31604	
8451	0	31564	
8452	0	31548	
8453	0	31524	
8454	0	31498	
8455	0	31496	
8456	0	31516	
8457	0	31540	
8458	0	31592	
8459	0	31648	
8460	0	31704	
8461	0	31752	
8462	0	31792	
8463	0	31812	
8464	0	31836	
8465	0	31872	
8466	0	31896	
8467	0	31848	
8468	0	31776	
8469	0	31712	
8470	0	31688	
8471	0	31660	
8472	0	31628	
8473	0	31608	
8474	0	31600	
8475	0	31604	
8476	0	31596	
8477	0	31636	
8478	0	31672	
8479	0	31712	
8480	0	31754	
8481	0	31776	
8482	0	31788	
8483	0	31832	
8484	0	31844	
8485	0	31850	
8486	0	31808	
8487	0	31776	
8488	0	31752	
8489	0	31704	
8490	0	31668	
8491	0	31622	
8492	0	31612	
8493	0	31596	
8494	0	31580	
8495	0	31560	
8496	0	31548	
8497	0	31584	
8498	0	31632	
8499	0	31696	
8500	0	31704	
8501	0	31716	
8502	0	31752	
8503	0	31764	
8504	0	31792	
8505	0	31804	
8506	0	31788	
8507	0	31764	
8508	0	31704	
8509	0	31640	
8510	0	31592	
8511	0	31580	
8512	0	31544	
8513	0	31500	
8514	0	31500	
8515	0	31512	
8516	0	31512	
8517	0	31576	
8518	0	31616	
8519	0	31672	
8520	0	31688	
8521	0	31716	
8522	0	31776	
8523	0	31796	
8524	0	31832	
8525	0	31856	
8526	0	31856	
8527	0	31808	
8528	0	31766	
8529	0	31720	
8530	0	31684	
8531	0	31680	
8532	0	31684	
8533	0	31700	
8534	0	31692	
8535	0	31664	
8536	0	31660	
8537	0	31696	
8538	0	31768	
8539	0	31820	
8540	0	31868	
8541	0	31880	
8542	0	31924	
8543	0	31994	
8544	0	32028	
8545	0	32052	
8546	0	32072	
8547	0	32048	
8548	0	32000	
8549	0	31984	
8550	0	31952	
8551	0	31924	
8552	0	31896	
8553	0	31888	
8554	0	31880	
8555	0	31876	
8556	0	31888	
8557	0	31948	
8558	0	32000	
8559	0	32064	
8560	0	32108	
8561	0	32140	
8562	0	32184	
8563	0	32208	
8564	0	32218	
8565	0	32240	
8566	0	32244	
8567	0	32218	
8568	0	32184	
8569	0	32140	
8570	0	32088	
8571	0	32060	
8572	0	32020	
8573	0	31992	
8574	0	31972	
8575	0	31976	
8576	0	31996	
8577	0	32048	
8578	0	32096	
8579	0	32148	
8580	0	32172	
8581	0	32208	
8582	0	32240	
8583	0	32276	
8584	0	32304	
8585	0	32320	
8586	0	32324	
8587	0	32272	
8588	0	32228	
8589	0	32184	
8590	0	32160	
8591	0	32122	
