# OpenSignals Text File Format. Version 1
# {"00:07:80:4B:15:F7": {"position": 0, "device": "biosignalsplux", "device name": "00:07:80:4B:15:F7", "device connection": "BTH00:07:80:4B:15:F7", "sampling rate": 1000, "resolution": [16], "firmware version": 775, "comments": "", "keywords": "", "mode": 0, "sync interval": 2, "date": "2023-4-27", "time": "16:33:34.252", "channels": [1], "sensor": ["ECG"], "label": ["CH1"], "column": ["nSeq", "DI", "CH1"], "special": [{"SpO2": [80, 40, 5, 4, 3, 3]}, {"SpO2": [80, 40, 5, 4, 3, 3]}, {"SpO2": [80, 40, 5, 4, 3, 3]}, {"SpO2": [80, 40, 5, 4, 3, 3]}, {"SpO2": [80, 40, 5, 4, 3, 3]}, {"SpO2": [80, 40, 5, 4, 3, 3]}, {"SpO2": [80, 40, 5, 4, 3, 3]}, {"SpO2": [80, 40, 5, 4, 3, 3]}], "digital IO": [0, 1], "sleeve color": ["green"], "convertedValues": 0}}
# EndOfHeader
0	0	33080	
1	0	33076	
2	0	33088	
3	0	33080	
4	0	33096	
5	0	33116	
6	0	33100	
7	0	33120	
8	0	33156	
9	0	33164	
10	0	33178	
11	0	33196	
12	0	33216	
13	0	33228	
14	0	33240	
15	0	33244	
16	0	33284	
17	0	33312	
18	0	33308	
19	0	33316	
20	0	33312	
21	0	33336	
22	0	33344	
23	0	33324	
24	0	33320	
25	0	33332	
26	0	33356	
27	0	33372	
28	0	33384	
29	0	33376	
30	0	33388	
31	0	33368	
32	0	33386	
33	0	33406	
34	0	33412	
35	0	33424	
36	0	33452	
37	0	33477	
38	0	33512	
39	0	33544	
40	0	33552	
41	0	33534	
42	0	33530	
43	0	33532	
44	0	33560	
45	0	33556	
46	0	33580	
47	0	33592	
48	0	33608	
49	0	33620	
50	0	33612	
51	0	33604	
52	0	33624	
53	0	33664	
54	0	33654	
55	0	33658	
56	0	33644	
57	0	33652	
58	0	33652	
59	0	33668	
60	0	33698	
61	0	33720	
62	0	33728	
63	0	33752	
64	0	33760	
65	0	33762	
66	0	33768	
67	0	33763	
68	0	33778	
69	0	33784	
70	0	33796	
71	0	33818	
72	0	33830	
73	0	33812	
74	0	33800	
75	0	33812	
76	0	33824	
77	0	33800	
78	0	33776	
79	0	33756	
80	0	33776	
81	0	33800	
82	0	33824	
83	0	33824	
84	0	33824	
85	0	33828	
86	0	33816	
87	0	33804	
88	0	33784	
89	0	33768	
90	0	33768	
91	0	33800	
92	0	33836	
93	0	33856	
94	0	33840	
95	0	33856	
96	0	33860	
97	0	33868	
98	0	33872	
99	0	33904	
100	0	33908	
101	0	33896	
102	0	33908	
103	0	33900	
104	0	33928	
105	0	33912	
106	0	33932	
107	0	33928	
108	0	33936	
109	0	33932	
110	0	33944	
111	0	33972	
112	0	34000	
113	0	34000	
114	0	33972	
115	0	33970	
116	0	33968	
117	0	33980	
118	0	33984	
119	0	33984	
120	0	33964	
121	0	33934	
122	0	33908	
123	0	33884	
124	0	33866	
125	0	33858	
126	0	33840	
127	0	33832	
128	0	33792	
129	0	33740	
130	0	33700	
131	0	33688	
132	0	33664	
133	0	33618	
134	0	33540	
135	0	33484	
136	0	33440	
137	0	33392	
138	0	33312	
139	0	33248	
140	0	33198	
141	0	33140	
142	0	33092	
143	0	33056	
144	0	33000	
145	0	32960	
146	0	32892	
147	0	32820	
148	0	32736	
149	0	32652	
150	0	32572	
151	0	32508	
152	0	32456	
153	0	32384	
154	0	32320	
155	0	32260	
156	0	32192	
157	0	32126	
158	0	32048	
159	0	32016	
160	0	31968	
161	0	31916	
162	0	31840	
163	0	31788	
164	0	31708	
165	0	31656	
166	0	31604	
167	0	31560	
168	0	31488	
169	0	31440	
170	0	31402	
171	0	31392	
172	0	31372	
173	0	31356	
174	0	31310	
175	0	31260	
176	0	31232	
177	0	31184	
178	0	31148	
179	0	31108	
180	0	31084	
181	0	31049	
182	0	31048	
183	0	31056	
184	0	31028	
185	0	31028	
186	0	31000	
187	0	30954	
188	0	30928	
189	0	30920	
190	0	30898	
191	0	30880	
192	0	30882	
193	0	30920	
194	0	30928	
195	0	30920	
196	0	30920	
197	0	30956	
198	0	30968	
199	0	30996	
200	0	31014	
201	0	31004	
202	0	31000	
203	0	31000	
204	0	31032	
205	0	31072	
206	0	31096	
207	0	31106	
208	0	31108	
209	0	31108	
210	0	31108	
211	0	31112	
212	0	31116	
213	0	31148	
214	0	31152	
215	0	31170	
216	0	31202	
217	0	31212	
218	0	31224	
219	0	31264	
220	0	31280	
221	0	31280	
222	0	31276	
223	0	31288	
224	0	31292	
225	0	31344	
226	0	31356	
227	0	31356	
228	0	31360	
229	0	31376	
230	0	31396	
231	0	31420	
232	0	31408	
233	0	31424	
234	0	31444	
235	0	31460	
236	0	31476	
237	0	31474	
238	0	31480	
239	0	31472	
240	0	31488	
241	0	31504	
242	0	31552	
243	0	31576	
244	0	31592	
245	0	31592	
246	0	31608	
247	0	31620	
248	0	31640	
249	0	31648	
250	0	31652	
251	0	31652	
252	0	31688	
253	0	31704	
254	0	31732	
255	0	31712	
256	0	31660	
257	0	31628	
258	0	31632	
259	0	31644	
260	0	31644	
261	0	31656	
262	0	31676	
263	0	31708	
264	0	31712	
265	0	31708	
266	0	31704	
267	0	31732	
268	0	31752	
269	0	31762	
270	0	31752	
271	0	31768	
272	0	31784	
273	0	31792	
274	0	31808	
275	0	31820	
276	0	31824	
277	0	31836	
278	0	31848	
279	0	31876	
280	0	31884	
281	0	31876	
282	0	31872	
283	0	31868	
284	0	31866	
285	0	31876	
286	0	31872	
287	0	31876	
288	0	31852	
289	0	31880	
290	0	31876	
291	0	31872	
292	0	31864	
293	0	31852	
294	0	31840	
295	0	31840	
296	0	31836	
297	0	31852	
298	0	31856	
299	0	31860	
300	0	31844	
301	0	31844	
302	0	31868	
303	0	31896	
304	0	31872	
305	0	31872	
306	0	31868	
307	0	31892	
308	0	31888	
309	0	31872	
310	0	31840	
311	0	31856	
312	0	31836	
313	0	31816	
314	0	31832	
315	0	31856	
316	0	31860	
317	0	31868	
318	0	31828	
319	0	31820	
320	0	31808	
321	0	31808	
322	0	31808	
323	0	31844	
324	0	31840	
325	0	31852	
326	0	31868	
327	0	31848	
328	0	31844	
329	0	31832	
330	0	31828	
331	0	31848	
332	0	31840	
333	0	31840	
334	0	31864	
335	0	31850	
336	0	31854	
337	0	31844	
338	0	31852	
339	0	31876	
340	0	31916	
341	0	31928	
342	0	31964	
343	0	31992	
344	0	32004	
345	0	32000	
346	0	32000	
347	0	31992	
348	0	31992	
349	0	31972	
350	0	31956	
351	0	31960	
352	0	31956	
353	0	31956	
354	0	31972	
355	0	31992	
356	0	31988	
357	0	31986	
358	0	31984	
359	0	32000	
360	0	32004	
361	0	31992	
362	0	32012	
363	0	32048	
364	0	32068	
365	0	32100	
366	0	32092	
367	0	32068	
368	0	32076	
369	0	32080	
370	0	32056	
371	0	32040	
372	0	32048	
373	0	32048	
374	0	32068	
375	0	32080	
376	0	32096	
377	0	32076	
378	0	32072	
379	0	32076	
380	0	32092	
381	0	32104	
382	0	32108	
383	0	32096	
384	0	32124	
385	0	32140	
386	0	32152	
387	0	32148	
388	0	32160	
389	0	32148	
390	0	32128	
391	0	32088	
392	0	32084	
393	0	32088	
394	0	32104	
395	0	32112	
396	0	32140	
397	0	32148	
398	0	32136	
399	0	32144	
400	0	32148	
401	0	32164	
402	0	32176	
403	0	32196	
404	0	32232	
405	0	32228	
406	0	32264	
407	0	32288	
408	0	32304	
409	0	32312	
410	0	32324	
411	0	32320	
412	0	32292	
413	0	32296	
414	0	32292	
415	0	32288	
416	0	32268	
417	0	32272	
418	0	32288	
419	0	32304	
420	0	32312	
421	0	32336	
422	0	32348	
423	0	32356	
424	0	32348	
425	0	32356	
426	0	32346	
427	0	32368	
428	0	32352	
429	0	32340	
430	0	32300	
431	0	32284	
432	0	32296	
433	0	32308	
434	0	32304	
435	0	32292	
436	0	32308	
437	0	32332	
438	0	32338	
439	0	32356	
440	0	32368	
441	0	32392	
442	0	32424	
443	0	32456	
444	0	32476	
445	0	32472	
446	0	32472	
447	0	32448	
448	0	32456	
449	0	32468	
450	0	32462	
451	0	32452	
452	0	32432	
453	0	32444	
454	0	32476	
455	0	32496	
456	0	32496	
457	0	32512	
458	0	32524	
459	0	32530	
460	0	32496	
461	0	32484	
462	0	32508	
463	0	32536	
464	0	32524	
465	0	32520	
466	0	32528	
467	0	32548	
468	0	32548	
469	0	32564	
470	0	32560	
471	0	32572	
472	0	32584	
473	0	32580	
474	0	32588	
475	0	32612	
476	0	32620	
477	0	32616	
478	0	32612	
479	0	32632	
480	0	32636	
481	0	32644	
482	0	32644	
483	0	32636	
484	0	32622	
485	0	32620	
486	0	32624	
487	0	32624	
488	0	32620	
489	0	32620	
490	0	32620	
491	0	32632	
492	0	32620	
493	0	32640	
494	0	32656	
495	0	32696	
496	0	32708	
497	0	32704	
498	0	32696	
499	0	32722	
500	0	32736	
501	0	32740	
502	0	32744	
503	0	32740	
504	0	32748	
505	0	32728	
506	0	32728	
507	0	32720	
508	0	32712	
509	0	32700	
510	0	32696	
511	0	32676	
512	0	32660	
513	0	32632	
514	0	32624	
515	0	32620	
516	0	32634	
517	0	32664	
518	0	32712	
519	0	32784	
520	0	32844	
521	0	32884	
522	0	32924	
523	0	32980	
524	0	33038	
525	0	33060	
526	0	33064	
527	0	33064	
528	0	33028	
529	0	33008	
530	0	32968	
531	0	32920	
532	0	32872	
533	0	32852	
534	0	32852	
535	0	32880	
536	0	32900	
537	0	32884	
538	0	32844	
539	0	32808	
540	0	32816	
541	0	32858	
542	0	32952	
543	0	33072	
544	0	33224	
545	0	33360	
546	0	33460	
547	0	33544	
548	0	33612	
549	0	33700	
550	0	33762	
551	0	33864	
552	0	33948	
553	0	34020	
554	0	34104	
555	0	34164	
556	0	34200	
557	0	34253	
558	0	34308	
559	0	34328	
560	0	34344	
561	0	34344	
562	0	34298	
563	0	34220	
564	0	34144	
565	0	34052	
566	0	33976	
567	0	33876	
568	0	33792	
569	0	33716	
570	0	33644	
571	0	33584	
572	0	33520	
573	0	33444	
574	0	33380	
575	0	33310	
576	0	33244	
577	0	33200	
578	0	33204	
579	0	33208	
580	0	33176	
581	0	33148	
582	0	33116	
583	0	33100	
584	0	33060	
585	0	33032	
586	0	33024	
587	0	33016	
588	0	33004	
589	0	33004	
590	0	33008	
591	0	33028	
592	0	32996	
593	0	32968	
594	0	32928	
595	0	32912	
596	0	32882	
597	0	32872	
598	0	32864	
599	0	32848	
600	0	32852	
601	0	32848	
602	0	32816	
603	0	32756	
604	0	32676	
605	0	32616	
606	0	32544	
607	0	32500	
608	0	32468	
609	0	32436	
610	0	32400	
611	0	32410	
612	0	32432	
613	0	32456	
614	0	32456	
615	0	32436	
616	0	32436	
617	0	32452	
618	0	32440	
619	0	32416	
620	0	32414	
621	0	32398	
622	0	32388	
623	0	32364	
624	0	32392	
625	0	32424	
626	0	32432	
627	0	32408	
628	0	32388	
629	0	32388	
630	0	32400	
631	0	32416	
632	0	32428	
633	0	32438	
634	0	32480	
635	0	32504	
636	0	32538	
637	0	32544	
638	0	32556	
639	0	32548	
640	0	32538	
641	0	32528	
642	0	32510	
643	0	32512	
644	0	32492	
645	0	32504	
646	0	32512	
647	0	32468	
648	0	32460	
649	0	32472	
650	0	32492	
651	0	32524	
652	0	32542	
653	0	32562	
654	0	32540	
655	0	32556	
656	0	32580	
657	0	32616	
658	0	32636	
659	0	32644	
660	0	32636	
661	0	32652	
662	0	32664	
663	0	32664	
664	0	32648	
665	0	32640	
666	0	32636	
667	0	32636	
668	0	32624	
669	0	32616	
670	0	32608	
671	0	32628	
672	0	32688	
673	0	32752	
674	0	32800	
675	0	32832	
676	0	32864	
677	0	32884	
678	0	32896	
679	0	32864	
680	0	32820	
681	0	32740	
682	0	32592	
683	0	32460	
684	0	32344	
685	0	32242	
686	0	32240	
687	0	32420	
688	0	32696	
689	0	32964	
690	0	33316	
691	0	33684	
692	0	34024	
693	0	34356	
694	0	34534	
695	0	34660	
696	0	34872	
697	0	35268	
698	0	35874	
699	0	36648	
700	0	37600	
701	0	38712	
702	0	39970	
703	0	41364	
704	0	42884	
705	0	44472	
706	0	46098	
707	0	47784	
708	0	49496	
709	0	51112	
710	0	52552	
711	0	53776	
712	0	54716	
713	0	55620	
714	0	56668	
715	0	57616	
716	0	58180	
717	0	58120	
718	0	57036	
719	0	54820	
720	0	51816	
721	0	48224	
722	0	44444	
723	0	40844	
724	0	37640	
725	0	35088	
726	0	33304	
727	0	32096	
728	0	31298	
729	0	30824	
730	0	30448	
731	0	30204	
732	0	30100	
733	0	30072	
734	0	30120	
735	0	30240	
736	0	30368	
737	0	30432	
738	0	30528	
739	0	30624	
740	0	30688	
741	0	30756	
742	0	30876	
743	0	31008	
744	0	31136	
745	0	31216	
746	0	31292	
747	0	31334	
748	0	31340	
749	0	31316	
750	0	31280	
751	0	31234	
752	0	31156	
753	0	31116	
754	0	31084	
755	0	31052	
756	0	31024	
757	0	31008	
758	0	30984	
759	0	30962	
760	0	30940	
761	0	30920	
762	0	30908	
763	0	30920	
764	0	30916	
765	0	30932	
766	0	30936	
767	0	30924	
768	0	30920	
769	0	30938	
770	0	30948	
771	0	30948	
772	0	30944	
773	0	30988	
774	0	31020	
775	0	31040	
776	0	31072	
777	0	31116	
778	0	31140	
779	0	31166	
780	0	31168	
781	0	31172	
782	0	31204	
783	0	31240	
784	0	31280	
785	0	31328	
786	0	31360	
787	0	31384	
788	0	31380	
789	0	31388	
790	0	31413	
791	0	31424	
792	0	31424	
793	0	31428	
794	0	31444	
795	0	31478	
796	0	31526	
797	0	31556	
798	0	31576	
799	0	31620	
800	0	31640	
801	0	31660	
802	0	31680	
803	0	31716	
804	0	31760	
805	0	31760	
806	0	31748	
807	0	31776	
808	0	31792	
809	0	31826	
810	0	31828	
811	0	31840	
812	0	31856	
813	0	31856	
814	0	31888	
815	0	31902	
816	0	31916	
817	0	31928	
818	0	31940	
819	0	31998	
820	0	32016	
821	0	32052	
822	0	32104	
823	0	32156	
824	0	32160	
825	0	32168	
826	0	32192	
827	0	32194	
828	0	32220	
829	0	32232	
830	0	32232	
831	0	32248	
832	0	32272	
833	0	32272	
834	0	32308	
835	0	32332	
836	0	32364	
837	0	32408	
838	0	32472	
839	0	32520	
840	0	32564	
841	0	32580	
842	0	32596	
843	0	32616	
844	0	32624	
845	0	32624	
846	0	32616	
847	0	32620	
848	0	32632	
849	0	32661	
850	0	32684	
851	0	32704	
852	0	32724	
853	0	32708	
854	0	32724	
855	0	32752	
856	0	32772	
857	0	32792	
858	0	32828	
859	0	32848	
860	0	32856	
861	0	32868	
862	0	32880	
863	0	32900	
864	0	32930	
865	0	32928	
866	0	32952	
867	0	32992	
868	0	33018	
869	0	33016	
870	0	33024	
871	0	33044	
872	0	33072	
873	0	33082	
874	0	33096	
875	0	33104	
876	0	33112	
877	0	33132	
878	0	33140	
879	0	33136	
880	0	33164	
881	0	33176	
882	0	33216	
883	0	33244	
884	0	33256	
885	0	33268	
886	0	33300	
887	0	33304	
888	0	33316	
889	0	33348	
890	0	33380	
891	0	33388	
892	0	33397	
893	0	33396	
894	0	33420	
895	0	33416	
896	0	33440	
897	0	33448	
898	0	33456	
899	0	33504	
900	0	33528	
901	0	33532	
902	0	33544	
903	0	33548	
904	0	33538	
905	0	33504	
906	0	33472	
907	0	33440	
908	0	33440	
909	0	33448	
910	0	33472	
911	0	33480	
912	0	33484	
913	0	33496	
914	0	33502	
915	0	33508	
916	0	33524	
917	0	33552	
918	0	33576	
919	0	33588	
920	0	33576	
921	0	33580	
922	0	33608	
923	0	33624	
924	0	33628	
925	0	33636	
926	0	33664	
927	0	33672	
928	0	33680	
929	0	33676	
930	0	33684	
931	0	33682	
932	0	33682	
933	0	33680	
934	0	33684	
935	0	33692	
936	0	33704	
937	0	33720	
938	0	33732	
939	0	33746	
940	0	33732	
941	0	33756	
942	0	33760	
943	0	33770	
944	0	33788	
945	0	33818	
946	0	33816	
947	0	33800	
948	0	33796	
949	0	33812	
950	0	33820	
951	0	33808	
952	0	33824	
953	0	33824	
954	0	33824	
955	0	33828	
956	0	33804	
957	0	33804	
958	0	33796	
959	0	33788	
960	0	33772	
961	0	33744	
962	0	33724	
963	0	33712	
964	0	33736	
965	0	33748	
966	0	33740	
967	0	33768	
968	0	33776	
969	0	33776	
970	0	33772	
971	0	33778	
972	0	33778	
973	0	33764	
974	0	33792	
975	0	33824	
976	0	33816	
977	0	33816	
978	0	33800	
979	0	33804	
980	0	33812	
981	0	33796	
982	0	33808	
983	0	33844	
984	0	33868	
985	0	33892	
986	0	33920	
987	0	33948	
988	0	33940	
989	0	33924	
990	0	33920	
991	0	33924	
992	0	33936	
993	0	33944	
994	0	33948	
995	0	33928	
996	0	33914	
997	0	33896	
998	0	33876	
999	0	33860	
1000	0	33852	
1001	0	33806	
1002	0	33752	
1003	0	33712	
1004	0	33674	
1005	0	33640	
1006	0	33620	
1007	0	33632	
1008	0	33600	
1009	0	33576	
1010	0	33520	
1011	0	33488	
1012	0	33468	
1013	0	33404	
1014	0	33322	
1015	0	33264	
1016	0	33232	
1017	0	33208	
1018	0	33152	
1019	0	33068	
1020	0	32996	
1021	0	32940	
1022	0	32888	
1023	0	32844	
1024	0	32792	
1025	0	32752	
1026	0	32712	
1027	0	32672	
1028	0	32596	
1029	0	32524	
1030	0	32476	
1031	0	32414	
1032	0	32362	
1033	0	32340	
1034	0	32298	
1035	0	32240	
1036	0	32204	
1037	0	32140	
1038	0	32088	
1039	0	32008	
1040	0	31922	
1041	0	31868	
1042	0	31804	
1043	0	31756	
1044	0	31688	
1045	0	31614	
1046	0	31570	
1047	0	31528	
1048	0	31488	
1049	0	31440	
1050	0	31392	
1051	0	31352	
1052	0	31322	
1053	0	31296	
1054	0	31284	
1055	0	31272	
1056	0	31268	
1057	0	31288	
1058	0	31284	
1059	0	31276	
1060	0	31282	
1061	0	31284	
1062	0	31300	
1063	0	31320	
1064	0	31318	
1065	0	31332	
1066	0	31354	
1067	0	31346	
1068	0	31332	
1069	0	31310	
1070	0	31272	
1071	0	31230	
1072	0	31232	
1073	0	31248	
1074	0	31260	
1075	0	31272	
1076	0	31272	
1077	0	31272	
1078	0	31280	
1079	0	31288	
1080	0	31266	
1081	0	31280	
1082	0	31308	
1083	0	31304	
1084	0	31332	
1085	0	31344	
1086	0	31350	
1087	0	31352	
1088	0	31372	
1089	0	31384	
1090	0	31400	
1091	0	31432	
1092	0	31464	
1093	0	31492	
1094	0	31500	
1095	0	31546	
1096	0	31572	
1097	0	31572	
1098	0	31592	
1099	0	31588	
1100	0	31572	
1101	0	31552	
1102	0	31516	
1103	0	31512	
1104	0	31516	
1105	0	31536	
1106	0	31560	
1107	0	31574	
1108	0	31584	
1109	0	31564	
1110	0	31584	
1111	0	31582	
1112	0	31606	
1113	0	31640	
1114	0	31672	
1115	0	31716	
1116	0	31732	
1117	0	31752	
1118	0	31760	
1119	0	31780	
1120	0	31792	
1121	0	31832	
1122	0	31828	
1123	0	31816	
1124	0	31796	
1125	0	31756	
1126	0	31736	
1127	0	31712	
1128	0	31700	
1129	0	31692	
1130	0	31700	
1131	0	31760	
1132	0	31796	
1133	0	31796	
1134	0	31820	
1135	0	31874	
1136	0	31880	
1137	0	31872	
1138	0	31824	
1139	0	31780	
1140	0	31776	
1141	0	31776	
1142	0	31796	
1143	0	31840	
1144	0	31844	
1145	0	31848	
1146	0	31840	
1147	0	31818	
1148	0	31812	
1149	0	31808	
1150	0	31792	
1151	0	31788	
1152	0	31776	
1153	0	31776	
1154	0	31796	
1155	0	31832	
1156	0	31828	
1157	0	31832	
1158	0	31864	
1159	0	31880	
1160	0	31884	
1161	0	31896	
1162	0	31904	
1163	0	31916	
1164	0	31938	
1165	0	31960	
1166	0	31960	
1167	0	31972	
1168	0	31996	
1169	0	31998	
1170	0	31994	
1171	0	31992	
1172	0	31968	
1173	0	31932	
1174	0	31904	
1175	0	31872	
1176	0	31876	
1177	0	31868	
1178	0	31824	
1179	0	31804	
1180	0	31792	
1181	0	31802	
1182	0	31800	
1183	0	31808	
1184	0	31848	
1185	0	31848	
1186	0	31900	
1187	0	31936	
1188	0	31976	
1189	0	31980	
1190	0	31984	
1191	0	32000	
1192	0	32008	
1193	0	32004	
1194	0	31988	
1195	0	31956	
1196	0	31968	
1197	0	31988	
1198	0	32004	
1199	0	32020	
1200	0	32072	
1201	0	32112	
1202	0	32120	
1203	0	32136	
1204	0	32124	
1205	0	32100	
1206	0	32092	
1207	0	32069	
1208	0	32040	
1209	0	32008	
1210	0	32000	
1211	0	31980	
1212	0	31952	
1213	0	31900	
1214	0	31904	
1215	0	31920	
1216	0	31904	
1217	0	31896	
1218	0	31906	
1219	0	31918	
1220	0	31920	
1221	0	31904	
1222	0	31900	
1223	0	31880	
1224	0	31888	
1225	0	31900	
1226	0	31960	
1227	0	32008	
1228	0	32032	
1229	0	32014	
1230	0	31976	
1231	0	31952	
1232	0	31936	
1233	0	31924	
1234	0	31936	
1235	0	31920	
1236	0	31928	
1237	0	31944	
1238	0	31980	
1239	0	32036	
1240	0	32048	
1241	0	32048	
1242	0	32068	
1243	0	32048	
1244	0	32058	
1245	0	32020	
1246	0	32020	
1247	0	32004	
1248	0	32008	
1249	0	32012	
1250	0	32044	
1251	0	32040	
1252	0	32060	
1253	0	32068	
1254	0	32092	
1255	0	32088	
1256	0	32068	
1257	0	32136	
1258	0	32192	
1259	0	32240	
1260	0	32240	
1261	0	32244	
1262	0	32244	
1263	0	32248	
1264	0	32250	
1265	0	32240	
1266	0	32232	
1267	0	32192	
1268	0	32132	
1269	0	32104	
1270	0	32100	
1271	0	32096	
1272	0	32048	
1273	0	32000	
1274	0	31968	
1275	0	31968	
1276	0	31984	
1277	0	31996	
1278	0	32004	
1279	0	32020	
1280	0	32028	
1281	0	32020	
1282	0	32024	
1283	0	32028	
1284	0	32028	
1285	0	32070	
1286	0	32124	
1287	0	32184	
1288	0	32248	
1289	0	32298	
1290	0	32362	
1291	0	32448	
1292	0	32448	
1293	0	32410	
1294	0	32352	
1295	0	32336	
1296	0	32320	
1297	0	32304	
1298	0	32264	
1299	0	32256	
1300	0	32272	
1301	0	32328	
1302	0	32380	
1303	0	32412	
1304	0	32440	
1305	0	32452	
1306	0	32480	
1307	0	32480	
1308	0	32464	
1309	0	32450	
1310	0	32448	
1311	0	32458	
1312	0	32444	
1313	0	32432	
1314	0	32392	
1315	0	32340	
1316	0	32296	
1317	0	32292	
1318	0	32276	
1319	0	32248	
1320	0	32200	
1321	0	32184	
1322	0	32196	
1323	0	32240	
1324	0	32292	
1325	0	32320	
1326	0	32372	
1327	0	32392	
1328	0	32400	
1329	0	32396	
1330	0	32404	
1331	0	32392	
1332	0	32420	
1333	0	32428	
1334	0	32408	
1335	0	32388	
1336	0	32416	
1337	0	32456	
1338	0	32452	
1339	0	32424	
1340	0	32428	
1341	0	32444	
1342	0	32448	
1343	0	32440	
1344	0	32468	
1345	0	32480	
1346	0	32476	
1347	0	32480	
1348	0	32484	
1349	0	32480	
1350	0	32536	
1351	0	32576	
1352	0	32604	
1353	0	32634	
1354	0	32624	
1355	0	32592	
1356	0	32592	
1357	0	32600	
1358	0	32596	
1359	0	32588	
1360	0	32568	
1361	0	32548	
1362	0	32580	
1363	0	32592	
1364	0	32584	
1365	0	32548	
1366	0	32504	
1367	0	32456	
1368	0	32416	
1369	0	32400	
1370	0	32416	
1371	0	32452	
1372	0	32484	
1373	0	32510	
1374	0	32512	
1375	0	32496	
1376	0	32520	
1377	0	32524	
1378	0	32552	
1379	0	32580	
1380	0	32612	
1381	0	32652	
1382	0	32708	
1383	0	32722	
1384	0	32728	
1385	0	32684	
1386	0	32648	
1387	0	32624	
1388	0	32604	
1389	0	32564	
1390	0	32556	
1391	0	32546	
1392	0	32526	
1393	0	32532	
1394	0	32564	
1395	0	32586	
1396	0	32624	
1397	0	32660	
1398	0	32680	
1399	0	32712	
1400	0	32712	
1401	0	32708	
1402	0	32704	
1403	0	32712	
1404	0	32728	
1405	0	32752	
1406	0	32744	
1407	0	32736	
1408	0	32668	
1409	0	32612	
1410	0	32584	
1411	0	32600	
1412	0	32608	
1413	0	32628	
1414	0	32640	
1415	0	32646	
1416	0	32608	
1417	0	32612	
1418	0	32642	
1419	0	32652	
1420	0	32676	
1421	0	32692	
1422	0	32728	
1423	0	32760	
1424	0	32780	
1425	0	32848	
1426	0	32900	
1427	0	32896	
1428	0	32920	
1429	0	32940	
1430	0	32960	
1431	0	32944	
1432	0	32936	
1433	0	32892	
1434	0	32840	
1435	0	32784	
1436	0	32776	
1437	0	32760	
1438	0	32748	
1439	0	32716	
1440	0	32716	
1441	0	32716	
1442	0	32736	
1443	0	32752	
1444	0	32784	
1445	0	32784	
1446	0	32800	
1447	0	32824	
1448	0	32848	
1449	0	32884	
1450	0	32884	
1451	0	32864	
1452	0	32856	
1453	0	32868	
1454	0	32868	
1455	0	32856	
1456	0	32824	
1457	0	32744	
1458	0	32688	
1459	0	32640	
1460	0	32594	
1461	0	32596	
1462	0	32604	
1463	0	32628	
1464	0	32688	
1465	0	32728	
1466	0	32768	
1467	0	32836	
1468	0	32852	
1469	0	32898	
1470	0	32928	
1471	0	32898	
1472	0	32896	
1473	0	32896	
1474	0	32904	
1475	0	32916	
1476	0	32912	
1477	0	32900	
1478	0	32896	
1479	0	32868	
1480	0	32848	
1481	0	32832	
1482	0	32796	
1483	0	32712	
1484	0	32668	
1485	0	32632	
1486	0	32610	
1487	0	32596	
1488	0	32632	
1489	0	32712	
1490	0	32740	
1491	0	32760	
1492	0	32816	
1493	0	32888	
1494	0	32992	
1495	0	33072	
1496	0	33114	
1497	0	33164	
1498	0	33204	
1499	0	33192	
1500	0	33200	
1501	0	33192	
1502	0	33160	
1503	0	33108	
1504	0	33072	
1505	0	33036	
1506	0	32988	
1507	0	32968	
1508	0	32976	
1509	0	33000	
1510	0	33020	
1511	0	33074	
1512	0	33096	
1513	0	33136	
1514	0	33240	
1515	0	33384	
1516	0	33544	
1517	0	33668	
1518	0	33760	
1519	0	33832	
1520	0	33904	
1521	0	33968	
1522	0	34040	
1523	0	34152	
1524	0	34216	
1525	0	34270	
1526	0	34332	
1527	0	34368	
1528	0	34416	
1529	0	34464	
1530	0	34490	
1531	0	34500	
1532	0	34458	
1533	0	34408	
1534	0	34372	
1535	0	34304	
1536	0	34186	
1537	0	34024	
1538	0	33864	
1539	0	33736	
1540	0	33632	
1541	0	33528	
1542	0	33400	
1543	0	33320	
1544	0	33236	
1545	0	33192	
1546	0	33172	
1547	0	33166	
1548	0	33156	
1549	0	33154	
1550	0	33168	
1551	0	33180	
1552	0	33152	
1553	0	33184	
1554	0	33216	
1555	0	33192	
1556	0	33156	
1557	0	33120	
1558	0	33100	
1559	0	33100	
1560	0	33056	
1561	0	33000	
1562	0	32960	
1563	0	32904	
1564	0	32852	
1565	0	32852	
1566	0	32844	
1567	0	32792	
1568	0	32776	
1569	0	32808	
1570	0	32800	
1571	0	32780	
1572	0	32728	
1573	0	32648	
1574	0	32556	
1575	0	32468	
1576	0	32424	
1577	0	32408	
1578	0	32396	
1579	0	32400	
1580	0	32400	
1581	0	32364	
1582	0	32344	
1583	0	32360	
1584	0	32408	
1585	0	32468	
1586	0	32488	
1587	0	32484	
1588	0	32440	
1589	0	32424	
1590	0	32360	
1591	0	32322	
1592	0	32316	
1593	0	32362	
1594	0	32424	
1595	0	32448	
1596	0	32456	
1597	0	32512	
1598	0	32552	
1599	0	32572	
1600	0	32552	
1601	0	32528	
1602	0	32548	
1603	0	32572	
1604	0	32584	
1605	0	32564	
1606	0	32516	
1607	0	32464	
1608	0	32412	
1609	0	32404	
1610	0	32380	
1611	0	32370	
1612	0	32360	
1613	0	32352	
1614	0	32356	
1615	0	32392	
1616	0	32408	
1617	0	32428	
1618	0	32464	
1619	0	32484	
1620	0	32504	
1621	0	32512	
1622	0	32548	
1623	0	32548	
1624	0	32508	
1625	0	32468	
1626	0	32480	
1627	0	32452	
1628	0	32448	
1629	0	32456	
1630	0	32516	
1631	0	32544	
1632	0	32556	
1633	0	32556	
1634	0	32596	
1635	0	32632	
1636	0	32674	
1637	0	32704	
1638	0	32708	
1639	0	32690	
1640	0	32724	
1641	0	32832	
1642	0	32936	
1643	0	32992	
1644	0	32962	
1645	0	32904	
1646	0	32832	
1647	0	32736	
1648	0	32612	
1649	0	32460	
1650	0	32286	
1651	0	32102	
1652	0	31990	
1653	0	31948	
1654	0	32052	
1655	0	32324	
1656	0	32604	
1657	0	32848	
1658	0	33196	
1659	0	33516	
1660	0	33784	
1661	0	34040	
1662	0	34140	
1663	0	34296	
1664	0	34600	
1665	0	35108	
1666	0	35828	
1667	0	36744	
1668	0	37872	
1669	0	39104	
1670	0	40480	
1671	0	42012	
1672	0	43720	
1673	0	45464	
1674	0	47232	
1675	0	48960	
1676	0	50848	
1677	0	52736	
1678	0	54520	
1679	0	55960	
1680	0	57064	
1681	0	58044	
1682	0	58912	
1683	0	59668	
1684	0	60120	
1685	0	59868	
1686	0	58692	
1687	0	56608	
1688	0	53528	
1689	0	49896	
1690	0	45992	
1691	0	42172	
1692	0	38656	
1693	0	35652	
1694	0	33272	
1695	0	31616	
1696	0	30508	
1697	0	29632	
1698	0	29028	
1699	0	28752	
1700	0	28644	
1701	0	28760	
1702	0	29096	
1703	0	29452	
1704	0	29760	
1705	0	30000	
1706	0	30160	
1707	0	30264	
1708	0	30316	
1709	0	30320	
1710	0	30360	
1711	0	30484	
1712	0	30604	
1713	0	30736	
1714	0	30808	
1715	0	30864	
1716	0	30888	
1717	0	30904	
1718	0	30908	
1719	0	30916	
1720	0	30916	
1721	0	30888	
1722	0	30880	
1723	0	30896	
1724	0	30848	
1725	0	30788	
1726	0	30776	
1727	0	30784	
1728	0	30776	
1729	0	30832	
1730	0	30852	
1731	0	30836	
1732	0	30832	
1733	0	30824	
1734	0	30804	
1735	0	30784	
1736	0	30792	
1737	0	30760	
1738	0	30756	
1739	0	30728	
1740	0	30706	
1741	0	30712	
1742	0	30702	
1743	0	30712	
1744	0	30726	
1745	0	30738	
1746	0	30776	
1747	0	30760	
1748	0	30748	
1749	0	30800	
1750	0	30888	
1751	0	30980	
1752	0	31004	
1753	0	31012	
1754	0	31050	
1755	0	31096	
1756	0	31136	
1757	0	31172	
1758	0	31196	
1759	0	31236	
1760	0	31280	
1761	0	31316	
1762	0	31360	
1763	0	31408	
1764	0	31404	
1765	0	31424	
1766	0	31460	
1767	0	31480	
1768	0	31464	
1769	0	31424	
1770	0	31464	
1771	0	31436	
1772	0	31460	
1773	0	31460	
1774	0	31496	
1775	0	31548	
1776	0	31604	
1777	0	31656	
1778	0	31680	
1779	0	31668	
1780	0	31660	
1781	0	31660	
1782	0	31632	
1783	0	31624	
1784	0	31644	
1785	0	31616	
1786	0	31592	
1787	0	31620	
1788	0	31632	
1789	0	31640	
1790	0	31652	
1791	0	31680	
1792	0	31724	
1793	0	31784	
1794	0	31860	
1795	0	31948	
1796	0	32040	
1797	0	32080	
1798	0	32092	
1799	0	32096	
1800	0	32128	
1801	0	32128	
1802	0	32136	
1803	0	32130	
1804	0	32118	
1805	0	32118	
1806	0	32152	
1807	0	32200	
1808	0	32236	
1809	0	32244	
1810	0	32232	
1811	0	32263	
1812	0	32288	
1813	0	32298	
1814	0	32304	
1815	0	32372	
1816	0	32400	
1817	0	32400	
1818	0	32408	
1819	0	32484	
1820	0	32560	
1821	0	32636	
1822	0	32698	
1823	0	32764	
1824	0	32824	
1825	0	32836	
1826	0	32848	
1827	0	32816	
1828	0	32744	
1829	0	32708	
1830	0	32660	
1831	0	32652	
1832	0	32660	
1833	0	32618	
1834	0	32544	
1835	0	32516	
1836	0	32572	
1837	0	32620	
1838	0	32668	
1839	0	32690	
1840	0	32724	
1841	0	32760	
1842	0	32772	
1843	0	32772	
1844	0	32780	
1845	0	32800	
1846	0	32784	
1847	0	32772	
1848	0	32748	
1849	0	32752	
1850	0	32776	
1851	0	32800	
1852	0	32828	
1853	0	32864	
1854	0	32924	
1855	0	32976	
1856	0	32980	
1857	0	32964	
1858	0	32972	
1859	0	32964	
1860	0	32964	
1861	0	32988	
1862	0	32996	
1863	0	32992	
1864	0	32984	
1865	0	33034	
1866	0	33096	
1867	0	33176	
1868	0	33204	
1869	0	33232	
1870	0	33272	
1871	0	33320	
1872	0	33364	
1873	0	33400	
1874	0	33428	
1875	0	33440	
1876	0	33436	
1877	0	33440	
1878	0	33404	
1879	0	33368	
1880	0	33316	
1881	0	33252	
1882	0	33220	
1883	0	33232	
1884	0	33252	
1885	0	33280	
1886	0	33298	
1887	0	33328	
1888	0	33376	
1889	0	33412	
1890	0	33440	
1891	0	33460	
1892	0	33408	
1893	0	33312	
1894	0	33232	
1895	0	33184	
1896	0	33144	
1897	0	33128	
1898	0	33116	
1899	0	33076	
1900	0	33108	
1901	0	33182	
1902	0	33236	
1903	0	33324	
1904	0	33372	
1905	0	33400	
1906	0	33436	
1907	0	33436	
1908	0	33426	
1909	0	33408	
1910	0	33336	
1911	0	33276	
1912	0	33232	
1913	0	33236	
1914	0	33272	
1915	0	33272	
1916	0	33280	
1917	0	33268	
1918	0	33284	
1919	0	33244	
1920	0	33184	
1921	0	33136	
1922	0	33092	
1923	0	33112	
1924	0	33114	
1925	0	33170	
1926	0	33208	
1927	0	33264	
1928	0	33328	
1929	0	33360	
1930	0	33360	
1931	0	33340	
1932	0	33336	
1933	0	33316	
1934	0	33248	
1935	0	33184	
1936	0	33180	
1937	0	33212	
1938	0	33240	
1939	0	33248	
1940	0	33244	
1941	0	33232	
1942	0	33228	
1943	0	33224	
1944	0	33214	
1945	0	33240	
1946	0	33236	
1947	0	33212	
1948	0	33204	
1949	0	33204	
1950	0	33200	
1951	0	33172	
1952	0	33120	
1953	0	33078	
1954	0	33106	
1955	0	33144	
1956	0	33202	
1957	0	33274	
1958	0	33292	
1959	0	33292	
1960	0	33296	
1961	0	33288	
1962	0	33248	
1963	0	33240	
1964	0	33236	
1965	0	33240	
1966	0	33248	
1967	0	33264	
1968	0	33304	
1969	0	33348	
1970	0	33344	
1971	0	33320	
1972	0	33280	
1973	0	33244	
1974	0	33200	
1975	0	33176	
1976	0	33140	
1977	0	33112	
1978	0	33104	
1979	0	33072	
1980	0	33044	
1981	0	33008	
1982	0	32992	
1983	0	32988	
1984	0	32952	
1985	0	32896	
1986	0	32836	
1987	0	32768	
1988	0	32696	
1989	0	32628	
1990	0	32580	
1991	0	32560	
1992	0	32540	
1993	0	32508	
1994	0	32462	
1995	0	32416	
1996	0	32364	
1997	0	32312	
1998	0	32264	
1999	0	32170	
2000	0	32080	
2001	0	32024	
2002	0	32008	
2003	0	32032	
2004	0	32012	
2005	0	31984	
2006	0	31972	
2007	0	31932	
2008	0	31858	
2009	0	31756	
2010	0	31656	
2011	0	31600	
2012	0	31536	
2013	0	31444	
2014	0	31370	
2015	0	31292	
2016	0	31296	
2017	0	31292	
2018	0	31268	
2019	0	31234	
2020	0	31212	
2021	0	31176	
2022	0	31152	
2023	0	31160	
2024	0	31172	
2025	0	31152	
2026	0	31104	
2027	0	31044	
2028	0	30972	
2029	0	30940	
2030	0	30916	
2031	0	30888	
2032	0	30864	
2033	0	30876	
2034	0	30928	
2035	0	30956	
2036	0	31020	
2037	0	31092	
2038	0	31096	
2039	0	31072	
2040	0	31060	
2041	0	31104	
2042	0	31188	
2043	0	31200	
2044	0	31168	
2045	0	31128	
2046	0	31080	
2047	0	31076	
2048	0	31112	
2049	0	31124	
2050	0	31128	
2051	0	31128	
2052	0	31128	
2053	0	31138	
2054	0	31144	
2055	0	31108	
2056	0	31084	
2057	0	31100	
2058	0	31128	
2059	0	31152	
2060	0	31160	
2061	0	31172	
2062	0	31154	
2063	0	31136	
2064	0	31118	
2065	0	31104	
2066	0	31112	
2067	0	31168	
2068	0	31224	
2069	0	31268	
2070	0	31296	
2071	0	31296	
2072	0	31332	
2073	0	31344	
2074	0	31336	
2075	0	31316	
2076	0	31352	
2077	0	31432	
2078	0	31492	
2079	0	31488	
2080	0	31524	
2081	0	31592	
2082	0	31616	
2083	0	31616	
2084	0	31592	
2085	0	31580	
2086	0	31576	
2087	0	31600	
2088	0	31588	
2089	0	31552	
2090	0	31532	
2091	0	31528	
2092	0	31540	
2093	0	31576	
2094	0	31592	
2095	0	31628	
2096	0	31636	
2097	0	31612	
2098	0	31580	
2099	0	31556	
2100	0	31544	
2101	0	31578	
2102	0	31590	
2103	0	31588	
2104	0	31572	
2105	0	31532	
2106	0	31552	
2107	0	31584	
2108	0	31648	
2109	0	31700	
2110	0	31712	
2111	0	31688	
2112	0	31684	
2113	0	31680	
2114	0	31664	
2115	0	31656	
2116	0	31668	
2117	0	31692	
2118	0	31712	
2119	0	31736	
2120	0	31756	
2121	0	31776	
2122	0	31758	
2123	0	31720	
2124	0	31652	
2125	0	31620	
2126	0	31616	
2127	0	31592	
2128	0	31560	
2129	0	31564	
2130	0	31592	
2131	0	31636	
2132	0	31648	
2133	0	31636	
2134	0	31616	
2135	0	31632	
2136	0	31676	
2137	0	31716	
2138	0	31728	
2139	0	31732	
2140	0	31680	
2141	0	31608	
2142	0	31562	
2143	0	31500	
2144	0	31512	
2145	0	31516	
2146	0	31532	
2147	0	31516	
2148	0	31512	
2149	0	31502	
2150	0	31516	
2151	0	31536	
2152	0	31548	
2153	0	31544	
2154	0	31542	
2155	0	31548	
2156	0	31556	
2157	0	31560	
2158	0	31586	
2159	0	31580	
2160	0	31520	
2161	0	31472	
2162	0	31472	
2163	0	31464	
2164	0	31420	
2165	0	31376	
2166	0	31344	
2167	0	31360	
2168	0	31384	
2169	0	31400	
2170	0	31440	
2171	0	31442	
2172	0	31460	
2173	0	31464	
2174	0	31484	
2175	0	31516	
2176	0	31508	
2177	0	31540	
2178	0	31572	
2179	0	31568	
2180	0	31584	
2181	0	31612	
2182	0	31644	
2183	0	31660	
2184	0	31680	
2185	0	31680	
2186	0	31668	
2187	0	31648	
2188	0	31628	
2189	0	31640	
2190	0	31640	
2191	0	31644	
2192	0	31660	
2193	0	31676	
2194	0	31708	
2195	0	31732	
2196	0	31788	
2197	0	31832	
2198	0	31816	
2199	0	31754	
2200	0	31692	
2201	0	31664	
2202	0	31676	
2203	0	31688	
2204	0	31688	
2205	0	31724	
2206	0	31764	
2207	0	31760	
2208	0	31732	
2209	0	31736	
2210	0	31708	
2211	0	31688	
2212	0	31626	
2213	0	31588	
2214	0	31548	
2215	0	31540	
2216	0	31588	
2217	0	31584	
2218	0	31556	
2219	0	31560	
2220	0	31568	
2221	0	31628	
2222	0	31684	
2223	0	31712	
2224	0	31716	
2225	0	31740	
2226	0	31778	
2227	0	31836	
2228	0	31862	
2229	0	31882	
2230	0	31888	
2231	0	31870	
2232	0	31896	
2233	0	31912	
2234	0	31924	
2235	0	31924	
2236	0	31884	
2237	0	31868	
2238	0	31848	
2239	0	31829	
2240	0	31808	
2241	0	31800	
2242	0	31804	
2243	0	31800	
2244	0	31792	
2245	0	31800	
2246	0	31792	
2247	0	31796	
2248	0	31828	
2249	0	31880	
2250	0	31928	
2251	0	31988	
2252	0	32016	
2253	0	32072	
2254	0	32120	
2255	0	32154	
2256	0	32164	
2257	0	32128	
2258	0	32110	
2259	0	32100	
2260	0	32108	
2261	0	32106	
2262	0	32124	
2263	0	32120	
2264	0	32120	
2265	0	32094	
2266	0	32088	
2267	0	32116	
2268	0	32140	
2269	0	32124	
2270	0	32108	
2271	0	32048	
2272	0	32000	
2273	0	31986	
2274	0	31984	
2275	0	31980	
2276	0	32010	
2277	0	32000	
2278	0	32024	
2279	0	32024	
2280	0	32000	
2281	0	32026	
2282	0	32076	
2283	0	32128	
2284	0	32164	
2285	0	32196	
2286	0	32232	
2287	0	32232	
2288	0	32244	
2289	0	32316	
2290	0	32380	
2291	0	32398	
2292	0	32428	
2293	0	32444	
2294	0	32410	
2295	0	32378	
2296	0	32364	
2297	0	32352	
2298	0	32352	
2299	0	32352	
2300	0	32348	
2301	0	32368	
2302	0	32344	
2303	0	32320	
2304	0	32312	
2305	0	32330	
2306	0	32368	
2307	0	32448	
2308	0	32568	
2309	0	32660	
2310	0	32728	
2311	0	32808	
2312	0	32876	
2313	0	32972	
2314	0	33048	
2315	0	33142	
2316	0	33216	
2317	0	33300	
2318	0	33392	
2319	0	33464	
2320	0	33556	
2321	0	33696	
2322	0	33872	
2323	0	33968	
2324	0	34004	
2325	0	34004	
2326	0	33940	
2327	0	33812	
2328	0	33688	
2329	0	33564	
2330	0	33488	
2331	0	33420	
2332	0	33404	
2333	0	33324	
2334	0	33256	
2335	0	33176	
2336	0	33096	
2337	0	33004	
2338	0	32908	
2339	0	32848	
2340	0	32772	
2341	0	32704	
2342	0	32668	
2343	0	32660	
2344	0	32624	
2345	0	32560	
2346	0	32520	
2347	0	32484	
2348	0	32422	
2349	0	32368	
2350	0	32348	
2351	0	32372	
2352	0	32380	
2353	0	32400	
2354	0	32428	
2355	0	32466	
2356	0	32504	
2357	0	32528	
2358	0	32544	
2359	0	32524	
2360	0	32476	
2361	0	32452	
2362	0	32452	
2363	0	32472	
2364	0	32520	
2365	0	32524	
2366	0	32460	
2367	0	32388	
2368	0	32296	
2369	0	32216	
2370	0	32140	
2371	0	32082	
2372	0	32048	
2373	0	32016	
2374	0	31988	
2375	0	31964	
2376	0	31988	
2377	0	31992	
2378	0	32012	
2379	0	31984	
2380	0	31968	
2381	0	31958	
2382	0	31936	
2383	0	31912	
2384	0	31904	
2385	0	31948	
2386	0	31972	
2387	0	31956	
2388	0	31924	
2389	0	31920	
2390	0	31940	
2391	0	31960	
2392	0	31980	
2393	0	31980	
2394	0	31972	
2395	0	31988	
2396	0	32004	
2397	0	32012	
2398	0	32032	
2399	0	32088	
2400	0	32096	
2401	0	32100	
2402	0	32072	
2403	0	32056	
2404	0	32052	
2405	0	32058	
2406	0	32084	
2407	0	32112	
2408	0	32128	
2409	0	32148	
2410	0	32152	
2411	0	32144	
2412	0	32112	
2413	0	32077	
2414	0	32076	
2415	0	32102	
2416	0	32160	
2417	0	32196	
2418	0	32232	
2419	0	32264	
2420	0	32300	
2421	0	32348	
2422	0	32380	
2423	0	32392	
2424	0	32400	
2425	0	32380	
2426	0	32324	
2427	0	32304	
2428	0	32304	
2429	0	32282	
2430	0	32256	
2431	0	32266	
2432	0	32252	
2433	0	32244	
2434	0	32272	
2435	0	32300	
2436	0	32336	
2437	0	32336	
2438	0	32348	
2439	0	32368	
2440	0	32432	
2441	0	32496	
2442	0	32548	
2443	0	32576	
2444	0	32568	
2445	0	32540	
2446	0	32432	
2447	0	32296	
2448	0	32116	
2449	0	31968	
2450	0	31860	
2451	0	31840	
2452	0	31992	
2453	0	32280	
2454	0	32642	
2455	0	33020	
2456	0	33436	
2457	0	33832	
2458	0	34268	
2459	0	34552	
2460	0	34680	
2461	0	34868	
2462	0	35284	
2463	0	35924	
2464	0	36728	
2465	0	37740	
2466	0	38964	
2467	0	40312	
2468	0	41824	
2469	0	43432	
2470	0	45156	
2471	0	46924	
2472	0	48740	
2473	0	50624	
2474	0	52548	
2475	0	54300	
2476	0	55864	
2477	0	57048	
2478	0	57976	
2479	0	58936	
2480	0	59960	
2481	0	60696	
2482	0	60880	
2483	0	60148	
2484	0	58374	
2485	0	55616	
2486	0	52144	
2487	0	48214	
2488	0	44154	
2489	0	40276	
2490	0	36862	
2491	0	34168	
2492	0	32220	
2493	0	30816	
2494	0	29808	
2495	0	29128	
2496	0	28758	
2497	0	28612	
2498	0	28616	
2499	0	28812	
2500	0	29120	
2501	0	29436	
2502	0	29690	
2503	0	29844	
2504	0	29984	
2505	0	30124	
2506	0	30208	
2507	0	30316	
2508	0	30456	
2509	0	30584	
2510	0	30672	
2511	0	30704	
2512	0	30712	
2513	0	30706	
2514	0	30724	
2515	0	30726	
2516	0	30724	
2517	0	30744	
2518	0	30724	
2519	0	30680	
2520	0	30612	
2521	0	30536	
2522	0	30458	
2523	0	30412	
2524	0	30384	
2525	0	30352	
2526	0	30344	
2527	0	30360	
2528	0	30400	
2529	0	30444	
2530	0	30474	
2531	0	30492	
2532	0	30512	
2533	0	30544	
2534	0	30598	
2535	0	30652	
2536	0	30684	
2537	0	30692	
2538	0	30696	
2539	0	30716	
2540	0	30720	
2541	0	30772	
2542	0	30828	
2543	0	30856	
2544	0	30872	
2545	0	30880	
2546	0	30856	
2547	0	30828	
2548	0	30824	
2549	0	30820	
2550	0	30784	
2551	0	30792	
2552	0	30812	
2553	0	30812	
2554	0	30820	
2555	0	30808	
2556	0	30846	
2557	0	30896	
2558	0	30924	
2559	0	30980	
2560	0	31012	
2561	0	31044	
2562	0	31092	
2563	0	31124	
2564	0	31160	
2565	0	31204	
2566	0	31276	
2567	0	31300	
2568	0	31346	
2569	0	31388	
2570	0	31388	
2571	0	31408	
2572	0	31412	
2573	0	31456	
2574	0	31512	
2575	0	31520	
2576	0	31528	
2577	0	31552	
2578	0	31572	
2579	0	31592	
2580	0	31608	
2581	0	31628	
2582	0	31656	
2583	0	31700	
2584	0	31732	
2585	0	31750	
2586	0	31768	
2587	0	31792	
2588	0	31826	
2589	0	31876	
2590	0	31900	
2591	0	31942	
2592	0	31940	
2593	0	31960	
2594	0	32004	
2595	0	32056	
2596	0	32096	
2597	0	32116	
2598	0	32112	
2599	0	32116	
2600	0	32136	
2601	0	32164	
2602	0	32180	
2603	0	32200	
2604	0	32236	
2605	0	32268	
2606	0	32288	
2607	0	32280	
2608	0	32312	
2609	0	32350	
2610	0	32368	
2611	0	32392	
2612	0	32408	
2613	0	32452	
2614	0	32474	
2615	0	32480	
2616	0	32496	
2617	0	32524	
2618	0	32560	
2619	0	32586	
2620	0	32620	
2621	0	32656	
2622	0	32696	
2623	0	32704	
2624	0	32684	
2625	0	32688	
2626	0	32696	
2627	0	32724	
2628	0	32716	
2629	0	32700	
2630	0	32652	
2631	0	32656	
2632	0	32700	
2633	0	32740	
2634	0	32784	
2635	0	32826	
2636	0	32840	
2637	0	32852	
2638	0	32882	
2639	0	32896	
2640	0	32908	
2641	0	32932	
2642	0	32936	
2643	0	32964	
2644	0	32978	
2645	0	33008	
2646	0	33016	
2647	0	33012	
2648	0	33024	
2649	0	33056	
2650	0	33064	
2651	0	33100	
2652	0	33128	
2653	0	33132	
2654	0	33164	
2655	0	33184	
2656	0	33208	
2657	0	33220	
2658	0	33238	
2659	0	33200	
2660	0	33202	
2661	0	33216	
2662	0	33256	
2663	0	33280	
2664	0	33288	
2665	0	33276	
2666	0	33264	
2667	0	33274	
2668	0	33256	
2669	0	33248	
2670	0	33248	
2671	0	33286	
2672	0	33298	
2673	0	33316	
2674	0	33372	
2675	0	33396	
2676	0	33396	
2677	0	33384	
2678	0	33372	
2679	0	33392	
2680	0	33416	
2681	0	33440	
2682	0	33456	
2683	0	33472	
2684	0	33512	
2685	0	33548	
2686	0	33556	
2687	0	33552	
2688	0	33562	
2689	0	33584	
2690	0	33594	
2691	0	33592	
2692	0	33580	
2693	0	33584	
2694	0	33592	
2695	0	33608	
2696	0	33636	
2697	0	33664	
2698	0	33676	
2699	0	33696	
2700	0	33704	
2701	0	33696	
2702	0	33684	
2703	0	33680	
2704	0	33672	
2705	0	33728	
2706	0	33756	
2707	0	33736	
2708	0	33712	
2709	0	33696	
2710	0	33692	
2711	0	33704	
2712	0	33680	
2713	0	33672	
2714	0	33658	
2715	0	33652	
2716	0	33664	
2717	0	33700	
2718	0	33708	
2719	0	33668	
2720	0	33654	
2721	0	33670	
2722	0	33712	
2723	0	33720	
2724	0	33748	
2725	0	33734	
2726	0	33724	
2727	0	33738	
2728	0	33744	
2729	0	33736	
2730	0	33728	
2731	0	33732	
2732	0	33728	
2733	0	33716	
2734	0	33704	
2735	0	33672	
2736	0	33640	
2737	0	33624	
2738	0	33648	
2739	0	33676	
2740	0	33696	
2741	0	33752	
2742	0	33768	
2743	0	33788	
2744	0	33784	
2745	0	33762	
2746	0	33780	
2747	0	33804	
2748	0	33824	
2749	0	33844	
2750	0	33832	
2751	0	33816	
2752	0	33790	
2753	0	33792	
2754	0	33824	
2755	0	33836	
2756	0	33832	
2757	0	33844	
2758	0	33848	
2759	0	33844	
2760	0	33832	
2761	0	33780	
2762	0	33736	
2763	0	33668	
2764	0	33588	
2765	0	33520	
2766	0	33504	
2767	0	33456	
2768	0	33396	
2769	0	33336	
2770	0	33264	
2771	0	33204	
2772	0	33116	
2773	0	33002	
2774	0	32924	
2775	0	32880	
2776	0	32844	
2777	0	32756	
2778	0	32680	
2779	0	32576	
2780	0	32496	
2781	0	32428	
2782	0	32352	
2783	0	32296	
2784	0	32220	
2785	0	32166	
2786	0	32092	
2787	0	32000	
2788	0	31936	
2789	0	31876	
2790	0	31820	
2791	0	31764	
2792	0	31688	
2793	0	31636	
2794	0	31552	
2795	0	31488	
2796	0	31424	
2797	0	31376	
2798	0	31324	
2799	0	31308	
2800	0	31296	
2801	0	31272	
2802	0	31196	
2803	0	31108	
2804	0	31028	
2805	0	30956	
2806	0	30896	
2807	0	30856	
2808	0	30818	
2809	0	30784	
2810	0	30748	
2811	0	30720	
2812	0	30704	
2813	0	30688	
2814	0	30672	
2815	0	30640	
2816	0	30628	
2817	0	30628	
2818	0	30640	
2819	0	30652	
2820	0	30652	
2821	0	30628	
2822	0	30593	
2823	0	30564	
2824	0	30592	
2825	0	30620	
2826	0	30616	
2827	0	30620	
2828	0	30596	
2829	0	30568	
2830	0	30560	
2831	0	30560	
2832	0	30564	
2833	0	30572	
2834	0	30592	
2835	0	30592	
2836	0	30652	
2837	0	30692	
2838	0	30716	
2839	0	30712	
2840	0	30716	
2841	0	30720	
2842	0	30728	
2843	0	30752	
2844	0	30784	
2845	0	30796	
2846	0	30824	
2847	0	30836	
2848	0	30824	
2849	0	30844	
2850	0	30804	
2851	0	30812	
2852	0	30830	
2853	0	30852	
2854	0	30912	
2855	0	30980	
2856	0	30984	
2857	0	31016	
2858	0	31056	
2859	0	31088	
2860	0	31136	
2861	0	31184	
2862	0	31212	
2863	0	31252	
2864	0	31264	
2865	0	31240	
2866	0	31224	
2867	0	31244	
2868	0	31272	
2869	0	31288	
2870	0	31328	
2871	0	31332	
2872	0	31336	
2873	0	31376	
2874	0	31392	
2875	0	31404	
2876	0	31404	
2877	0	31436	
2878	0	31464	
2879	0	31468	
2880	0	31500	
2881	0	31512	
2882	0	31512	
2883	0	31520	
2884	0	31536	
2885	0	31560	
2886	0	31600	
2887	0	31616	
2888	0	31634	
2889	0	31620	
2890	0	31600	
2891	0	31552	
2892	0	31548	
2893	0	31572	
2894	0	31572	
2895	0	31576	
2896	0	31612	
2897	0	31622	
2898	0	31616	
2899	0	31624	
2900	0	31664	
2901	0	31712	
2902	0	31720	
2903	0	31728	
2904	0	31760	
2905	0	31792	
2906	0	31788	
2907	0	31776	
2908	0	31770	
2909	0	31728	
2910	0	31710	
2911	0	31736	
2912	0	31760	
2913	0	31796	
2914	0	31836	
2915	0	31844	
2916	0	31836	
2917	0	31832	
2918	0	31816	
2919	0	31802	
2920	0	31788	
2921	0	31780	
2922	0	31778	
2923	0	31768	
2924	0	31736	
2925	0	31714	
2926	0	31706	
2927	0	31714	
2928	0	31726	
2929	0	31732	
2930	0	31744	
2931	0	31750	
2932	0	31728	
2933	0	31724	
2934	0	31728	
2935	0	31726	
2936	0	31714	
2937	0	31688	
2938	0	31676	
2939	0	31658	
2940	0	31680	
2941	0	31692	
2942	0	31688	
2943	0	31682	
2944	0	31656	
2945	0	31656	
2946	0	31652	
2947	0	31668	
2948	0	31676	
2949	0	31668	
2950	0	31636	
2951	0	31640	
2952	0	31636	
2953	0	31636	
2954	0	31640	
2955	0	31636	
2956	0	31656	
2957	0	31668	
2958	0	31698	
2959	0	31704	
2960	0	31712	
2961	0	31728	
2962	0	31736	
2963	0	31772	
2964	0	31788	
2965	0	31780	
2966	0	31782	
2967	0	31776	
2968	0	31744	
2969	0	31756	
2970	0	31754	
2971	0	31772	
2972	0	31776	
2973	0	31760	
2974	0	31756	
2975	0	31776	
2976	0	31788	
2977	0	31820	
2978	0	31808	
2979	0	31772	
2980	0	31752	
2981	0	31756	
2982	0	31776	
2983	0	31760	
2984	0	31764	
2985	0	31744	
2986	0	31740	
2987	0	31724	
2988	0	31720	
2989	0	31744	
2990	0	31768	
2991	0	31780	
2992	0	31784	
2993	0	31776	
2994	0	31776	
2995	0	31796	
2996	0	31808	
2997	0	31824	
2998	0	31848	
2999	0	31832	
3000	0	31808	
3001	0	31802	
3002	0	31816	
3003	0	31832	
3004	0	31864	
3005	0	31892	
3006	0	31900	
3007	0	31916	
3008	0	31916	
3009	0	31908	
3010	0	31908	
3011	0	31920	
3012	0	31924	
3013	0	31954	
3014	0	31968	
3015	0	31980	
3016	0	32000	
3017	0	32024	
3018	0	32036	
3019	0	32072	
3020	0	32084	
3021	0	32072	
3022	0	32086	
3023	0	32082	
3024	0	32096	
3025	0	32088	
3026	0	32066	
3027	0	32056	
3028	0	32034	
3029	0	32020	
3030	0	32016	
3031	0	32040	
3032	0	32052	
3033	0	32036	
3034	0	32050	
3035	0	32052	
3036	0	32048	
3037	0	32048	
3038	0	32036	
3039	0	32052	
3040	0	32064	
3041	0	32096	
3042	0	32108	
3043	0	32096	
3044	0	32104	
3045	0	32116	
3046	0	32124	
3047	0	32104	
3048	0	32112	
3049	0	32096	
3050	0	32096	
3051	0	32124	
3052	0	32160	
3053	0	32180	
3054	0	32194	
3055	0	32220	
3056	0	32232	
3057	0	32292	
3058	0	32316	
3059	0	32324	
3060	0	32332	
3061	0	32314	
3062	0	32296	
3063	0	32312	
3064	0	32338	
3065	0	32338	
3066	0	32328	
3067	0	32316	
3068	0	32344	
3069	0	32356	
3070	0	32364	
3071	0	32380	
3072	0	32384	
3073	0	32382	
3074	0	32388	
3075	0	32416	
3076	0	32442	
3077	0	32448	
3078	0	32440	
3079	0	32436	
3080	0	32436	
3081	0	32444	
3082	0	32430	
3083	0	32448	
3084	0	32452	
3085	0	32460	
3086	0	32456	
3087	0	32466	
3088	0	32448	
3089	0	32456	
3090	0	32472	
3091	0	32498	
3092	0	32480	
3093	0	32448	
3094	0	32428	
3095	0	32430	
3096	0	32412	
3097	0	32404	
3098	0	32416	
3099	0	32408	
3100	0	32392	
3101	0	32384	
3102	0	32416	
3103	0	32440	
3104	0	32488	
3105	0	32508	
3106	0	32528	
3107	0	32544	
3108	0	32580	
3109	0	32604	
3110	0	32624	
3111	0	32628	
3112	0	32604	
3113	0	32600	
3114	0	32612	
3115	0	32608	
3116	0	32588	
3117	0	32616	
3118	0	32640	
3119	0	32672	
3120	0	32700	
3121	0	32704	
3122	0	32692	
3123	0	32692	
3124	0	32704	
3125	0	32720	
3126	0	32744	
3127	0	32752	
3128	0	32728	
3129	0	32700	
3130	0	32704	
3131	0	32718	
3132	0	32720	
3133	0	32696	
3134	0	32692	
3135	0	32692	
3136	0	32710	
3137	0	32724	
3138	0	32728	
3139	0	32740	
3140	0	32748	
3141	0	32722	
3142	0	32724	
3143	0	32728	
3144	0	32740	
3145	0	32760	
3146	0	32752	
3147	0	32742	
3148	0	32744	
3149	0	32752	
3150	0	32736	
3151	0	32740	
3152	0	32744	
3153	0	32774	
3154	0	32796	
3155	0	32788	
3156	0	32792	
3157	0	32784	
3158	0	32768	
3159	0	32776	
3160	0	32804	
3161	0	32844	
3162	0	32856	
3163	0	32872	
3164	0	32864	
3165	0	32872	
3166	0	32928	
3167	0	32968	
3168	0	33036	
3169	0	33068	
3170	0	33084	
3171	0	33100	
3172	0	33092	
3173	0	33068	
3174	0	33032	
3175	0	33024	
3176	0	33000	
3177	0	32964	
3178	0	32948	
3179	0	32948	
3180	0	32956	
3181	0	32988	
3182	0	32996	
3183	0	32984	
3184	0	32976	
3185	0	33008	
3186	0	33014	
3187	0	33056	
3188	0	33152	
3189	0	33284	
3190	0	33404	
3191	0	33484	
3192	0	33520	
3193	0	33612	
3194	0	33688	
3195	0	33772	
3196	0	33880	
3197	0	33992	
3198	0	34088	
3199	0	34166	
3200	0	34254	
3201	0	34338	
3202	0	34416	
3203	0	34488	
3204	0	34544	
3205	0	34532	
3206	0	34536	
3207	0	34460	
3208	0	34340	
3209	0	34216	
3210	0	34088	
3211	0	33956	
3212	0	33864	
3213	0	33788	
3214	0	33720	
3215	0	33652	
3216	0	33628	
3217	0	33624	
3218	0	33572	
3219	0	33518	
3220	0	33480	
3221	0	33464	
3222	0	33424	
3223	0	33396	
3224	0	33340	
3225	0	33336	
3226	0	33304	
3227	0	33260	
3228	0	33228	
3229	0	33188	
3230	0	33140	
3231	0	33128	
3232	0	33120	
3233	0	33108	
3234	0	33092	
3235	0	33108	
3236	0	33100	
3237	0	33056	
3238	0	33032	
3239	0	33028	
3240	0	33016	
3241	0	33020	
3242	0	33016	
3243	0	32996	
3244	0	33008	
3245	0	33000	
3246	0	32992	
3247	0	32958	
3248	0	32896	
3249	0	32832	
3250	0	32780	
3251	0	32712	
3252	0	32632	
3253	0	32584	
3254	0	32576	
3255	0	32564	
3256	0	32560	
3257	0	32544	
3258	0	32548	
3259	0	32568	
3260	0	32608	
3261	0	32630	
3262	0	32620	
3263	0	32612	
3264	0	32554	
3265	0	32480	
3266	0	32444	
3267	0	32440	
3268	0	32448	
3269	0	32432	
3270	0	32432	
3271	0	32444	
3272	0	32448	
3273	0	32476	
3274	0	32472	
3275	0	32472	
3276	0	32468	
3277	0	32484	
3278	0	32470	
3279	0	32480	
3280	0	32480	
3281	0	32496	
3282	0	32512	
3283	0	32520	
3284	0	32516	
3285	0	32520	
3286	0	32526	
3287	0	32528	
3288	0	32524	
3289	0	32516	
3290	0	32512	
3291	0	32504	
3292	0	32492	
3293	0	32516	
3294	0	32536	
3295	0	32576	
3296	0	32620	
3297	0	32648	
3298	0	32652	
3299	0	32668	
3300	0	32696	
3301	0	32736	
3302	0	32744	
3303	0	32756	
3304	0	32756	
3305	0	32768	
3306	0	32744	
3307	0	32744	
3308	0	32752	
3309	0	32736	
3310	0	32712	
3311	0	32704	
3312	0	32722	
3313	0	32736	
3314	0	32730	
3315	0	32704	
3316	0	32692	
3317	0	32724	
3318	0	32746	
3319	0	32816	
3320	0	32880	
3321	0	32912	
3322	0	32952	
3323	0	32956	
3324	0	32940	
3325	0	32932	
3326	0	32836	
3327	0	32692	
3328	0	32540	
3329	0	32426	
3330	0	32358	
3331	0	32452	
3332	0	32708	
3333	0	33028	
3334	0	33332	
3335	0	33696	
3336	0	34084	
3337	0	34424	
3338	0	34712	
3339	0	34880	
3340	0	35032	
3341	0	35268	
3342	0	35752	
3343	0	36472	
3344	0	37358	
3345	0	38432	
3346	0	39616	
3347	0	40968	
3348	0	42452	
3349	0	44048	
3350	0	45712	
3351	0	47424	
3352	0	49216	
3353	0	51016	
3354	0	52720	
3355	0	54250	
3356	0	55504	
3357	0	56480	
3358	0	57448	
3359	0	58532	
3360	0	59404	
3361	0	59884	
3362	0	59644	
3363	0	58348	
3364	0	55992	
3365	0	52864	
3366	0	49160	
3367	0	45232	
3368	0	41424	
3369	0	38076	
3370	0	35462	
3371	0	33568	
3372	0	32200	
3373	0	31276	
3374	0	30636	
3375	0	30172	
3376	0	29880	
3377	0	29772	
3378	0	29772	
3379	0	29888	
3380	0	30052	
3381	0	30204	
3382	0	30336	
3383	0	30480	
3384	0	30604	
3385	0	30696	
3386	0	30792	
3387	0	30904	
3388	0	30996	
3389	0	31080	
3390	0	31136	
3391	0	31172	
3392	0	31196	
3393	0	31224	
3394	0	31208	
3395	0	31180	
3396	0	31144	
3397	0	31128	
3398	0	31092	
3399	0	31044	
3400	0	31020	
3401	0	31008	
3402	0	31000	
3403	0	30968	
3404	0	30936	
3405	0	30924	
3406	0	30896	
3407	0	30852	
3408	0	30844	
3409	0	30832	
3410	0	30812	
3411	0	30810	
3412	0	30808	
3413	0	30846	
3414	0	30868	
3415	0	30920	
3416	0	30936	
3417	0	30928	
3418	0	30920	
3419	0	30936	
3420	0	30956	
3421	0	30988	
3422	0	31010	
3423	0	31040	
3424	0	31048	
3425	0	31052	
3426	0	31064	
3427	0	31092	
3428	0	31106	
3429	0	31124	
3430	0	31166	
3431	0	31188	
3432	0	31226	
3433	0	31248	
3434	0	31250	
3435	0	31280	
3436	0	31308	
3437	0	31324	
3438	0	31328	
3439	0	31384	
3440	0	31416	
3441	0	31440	
3442	0	31484	
3443	0	31524	
3444	0	31560	
3445	0	31604	
3446	0	31649	
3447	0	31642	
3448	0	31676	
3449	0	31720	
3450	0	31708	
3451	0	31684	
3452	0	31704	
3453	0	31720	
3454	0	31716	
3455	0	31752	
3456	0	31810	
3457	0	31844	
3458	0	31860	
3459	0	31888	
3460	0	31904	
3461	0	31922	
3462	0	31960	
3463	0	32008	
3464	0	32042	
3465	0	32048	
3466	0	32060	
3467	0	32076	
3468	0	32104	
3469	0	32124	
3470	0	32164	
3471	0	32172	
3472	0	32188	
3473	0	32216	
3474	0	32256	
3475	0	32288	
3476	0	32300	
3477	0	32316	
3478	0	32336	
3479	0	32328	
3480	0	32328	
3481	0	32356	
3482	0	32394	
3483	0	32440	
3484	0	32470	
3485	0	32480	
3486	0	32468	
3487	0	32468	
3488	0	32492	
3489	0	32530	
3490	0	32568	
3491	0	32604	
3492	0	32620	
3493	0	32634	
3494	0	32640	
3495	0	32670	
3496	0	32688	
3497	0	32720	
3498	0	32768	
3499	0	32784	
3500	0	32792	
3501	0	32808	
3502	0	32856	
3503	0	32892	
3504	0	32908	
3505	0	32920	
3506	0	32916	
3507	0	32892	
3508	0	32888	
3509	0	32888	
3510	0	32908	
3511	0	32912	
3512	0	32932	
3513	0	32944	
3514	0	32956	
3515	0	32964	
3516	0	32976	
3517	0	33008	
3518	0	33040	
3519	0	33052	
3520	0	33064	
3521	0	33096	
3522	0	33128	
3523	0	33112	
3524	0	33080	
3525	0	33072	
3526	0	33060	
3527	0	33068	
3528	0	33080	
3529	0	33088	
3530	0	33100	
3531	0	33088	
3532	0	33122	
3533	0	33152	
3534	0	33172	
3535	0	33184	
3536	0	33192	
3537	0	33200	
3538	0	33218	
3539	0	33244	
3540	0	33288	
3541	0	33304	
3542	0	33288	
3543	0	33288	
3544	0	33296	
3545	0	33300	
3546	0	33296	
3547	0	33300	
3548	0	33336	
3549	0	33336	
3550	0	33340	
3551	0	33360	
3552	0	33384	
3553	0	33414	
3554	0	33434	
3555	0	33440	
3556	0	33408	
3557	0	33388	
3558	0	33380	
3559	0	33366	
3560	0	33372	
3561	0	33404	
3562	0	33432	
3563	0	33444	
3564	0	33456	
3565	0	33428	
3566	0	33452	
3567	0	33476	
3568	0	33500	
3569	0	33520	
3570	0	33530	
3571	0	33536	
3572	0	33560	
3573	0	33572	
3574	0	33580	
3575	0	33600	
3576	0	33636	
3577	0	33668	
3578	0	33664	
3579	0	33626	
3580	0	33576	
3581	0	33568	
3582	0	33560	
3583	0	33556	
3584	0	33548	
3585	0	33572	
3586	0	33594	
3587	0	33608	
3588	0	33592	
3589	0	33594	
3590	0	33600	
3591	0	33616	
3592	0	33640	
3593	0	33656	
3594	0	33680	
3595	0	33688	
3596	0	33692	
3597	0	33696	
3598	0	33700	
3599	0	33716	
3600	0	33748	
3601	0	33760	
3602	0	33744	
3603	0	33748	
3604	0	33756	
3605	0	33750	
3606	0	33736	
3607	0	33728	
3608	0	33728	
3609	0	33732	
3610	0	33732	
3611	0	33716	
3612	0	33716	
3613	0	33724	
3614	0	33744	
3615	0	33748	
3616	0	33748	
3617	0	33728	
3618	0	33720	
3619	0	33704	
3620	0	33720	
3621	0	33740	
3622	0	33774	
3623	0	33804	
3624	0	33832	
3625	0	33844	
3626	0	33860	
3627	0	33860	
3628	0	33880	
3629	0	33904	
3630	0	33930	
3631	0	33932	
3632	0	33924	
3633	0	33904	
3634	0	33904	
3635	0	33900	
3636	0	33900	
3637	0	33866	
3638	0	33844	
3639	0	33852	
3640	0	33852	
3641	0	33856	
3642	0	33856	
3643	0	33844	
3644	0	33828	
3645	0	33800	
3646	0	33768	
3647	0	33768	
3648	0	33788	
3649	0	33784	
3650	0	33732	
3651	0	33684	
3652	0	33608	
3653	0	33560	
3654	0	33520	
3655	0	33484	
3656	0	33464	
3657	0	33420	
3658	0	33360	
3659	0	33314	
3660	0	33252	
3661	0	33176	
3662	0	33092	
3663	0	33028	
3664	0	32968	
3665	0	32924	
3666	0	32858	
3667	0	32780	
3668	0	32660	
3669	0	32600	
3670	0	32576	
3671	0	32508	
3672	0	32414	
3673	0	32344	
3674	0	32296	
3675	0	32252	
3676	0	32204	
3677	0	32184	
3678	0	32128	
3679	0	32080	
3680	0	32028	
3681	0	31964	
3682	0	31932	
3683	0	31884	
3684	0	31852	
3685	0	31808	
3686	0	31768	
3687	0	31712	
3688	0	31692	
3689	0	31656	
3690	0	31614	
3691	0	31560	
3692	0	31524	
3693	0	31488	
3694	0	31466	
3695	0	31456	
3696	0	31456	
3697	0	31444	
3698	0	31408	
3699	0	31388	
3700	0	31380	
3701	0	31368	
3702	0	31346	
3703	0	31336	
3704	0	31322	
3705	0	31300	
3706	0	31264	
3707	0	31216	
3708	0	31200	
3709	0	31164	
3710	0	31148	
3711	0	31192	
3712	0	31208	
3713	0	31212	
3714	0	31176	
3715	0	31164	
3716	0	31182	
3717	0	31160	
3718	0	31148	
3719	0	31144	
3720	0	31138	
3721	0	31124	
3722	0	31128	
3723	0	31156	
3724	0	31172	
3725	0	31200	
3726	0	31212	
3727	0	31232	
3728	0	31244	
3729	0	31240	
3730	0	31244	
3731	0	31264	
3732	0	31280	
3733	0	31292	
3734	0	31308	
3735	0	31320	
3736	0	31338	
3737	0	31320	
3738	0	31340	
3739	0	31368	
3740	0	31384	
3741	0	31392	
3742	0	31380	
3743	0	31392	
3744	0	31404	
3745	0	31436	
3746	0	31424	
3747	0	31430	
3748	0	31436	
3749	0	31444	
3750	0	31464	
3751	0	31486	
3752	0	31476	
3753	0	31492	
3754	0	31516	
3755	0	31516	
3756	0	31512	
3757	0	31500	
3758	0	31508	
3759	0	31518	
3760	0	31532	
3761	0	31568	
3762	0	31606	
3763	0	31596	
3764	0	31584	
3765	0	31608	
3766	0	31612	
3767	0	31620	
3768	0	31636	
3769	0	31648	
3770	0	31656	
3771	0	31658	
3772	0	31652	
3773	0	31656	
3774	0	31680	
3775	0	31664	
3776	0	31624	
3777	0	31628	
3778	0	31632	
3779	0	31644	
3780	0	31640	
3781	0	31632	
3782	0	31646	
3783	0	31642	
3784	0	31656	
3785	0	31648	
3786	0	31652	
3787	0	31648	
3788	0	31644	
3789	0	31648	
3790	0	31680	
3791	0	31700	
3792	0	31712	
3793	0	31728	
3794	0	31744	
3795	0	31734	
3796	0	31728	
3797	0	31716	
3798	0	31690	
3799	0	31700	
3800	0	31684	
3801	0	31696	
3802	0	31680	
3803	0	31680	
3804	0	31658	
3805	0	31636	
3806	0	31640	
3807	0	31640	
3808	0	31648	
3809	0	31652	
3810	0	31656	
3811	0	31648	
3812	0	31624	
3813	0	31604	
3814	0	31624	
3815	0	31640	
3816	0	31644	
3817	0	31648	
3818	0	31640	
3819	0	31656	
3820	0	31646	
3821	0	31660	
3822	0	31660	
3823	0	31656	
3824	0	31656	
3825	0	31646	
3826	0	31636	
3827	0	31632	
3828	0	31616	
3829	0	31594	
3830	0	31600	
3831	0	31588	
3832	0	31592	
3833	0	31589	
3834	0	31616	
3835	0	31632	
3836	0	31636	
3837	0	31664	
3838	0	31692	
3839	0	31704	
3840	0	31682	
3841	0	31664	
3842	0	31652	
3843	0	31660	
3844	0	31644	
3845	0	31652	
3846	0	31664	
3847	0	31672	
3848	0	31660	
3849	0	31648	
3850	0	31648	
3851	0	31680	
3852	0	31712	
3853	0	31732	
3854	0	31734	
3855	0	31748	
3856	0	31756	
3857	0	31780	
3858	0	31820	
3859	0	31800	
3860	0	31812	
3861	0	31808	
3862	0	31784	
3863	0	31768	
3864	0	31788	
3865	0	31764	
3866	0	31764	
3867	0	31764	
3868	0	31776	
3869	0	31778	
3870	0	31784	
3871	0	31772	
3872	0	31784	
3873	0	31816	
3874	0	31840	
3875	0	31884	
3876	0	31900	
3877	0	31892	
3878	0	31904	
3879	0	31896	
3880	0	31896	
3881	0	31898	
3882	0	31916	
3883	0	31916	
3884	0	31908	
3885	0	31908	
3886	0	31912	
3887	0	31912	
3888	0	31918	
3889	0	31908	
3890	0	31942	
3891	0	31972	
3892	0	31976	
3893	0	31960	
3894	0	31952	
3895	0	31976	
3896	0	31944	
3897	0	31928	
3898	0	31912	
3899	0	31914	
3900	0	31952	
3901	0	31980	
3902	0	31962	
3903	0	31956	
3904	0	31952	
3905	0	31954	
3906	0	31968	
3907	0	31948	
3908	0	31948	
3909	0	31962	
3910	0	31986	
3911	0	32008	
3912	0	31984	
3913	0	31986	
3914	0	32008	
3915	0	32044	
3916	0	32068	
3917	0	32080	
3918	0	32064	
3919	0	32056	
3920	0	32048	
3921	0	32048	
3922	0	32076	
3923	0	32112	
3924	0	32136	
3925	0	32188	
3926	0	32212	
3927	0	32192	
3928	0	32168	
3929	0	32124	
3930	0	32084	
3931	0	32092	
3932	0	32126	
3933	0	32140	
3934	0	32160	
3935	0	32176	
3936	0	32200	
3937	0	32240	
3938	0	32266	
3939	0	32244	
3940	0	32252	
3941	0	32276	
3942	0	32292	
3943	0	32304	
3944	0	32320	
3945	0	32328	
3946	0	32316	
3947	0	32304	
3948	0	32292	
3949	0	32263	
3950	0	32280	
3951	0	32272	
3952	0	32288	
3953	0	32312	
3954	0	32328	
3955	0	32344	
3956	0	32332	
3957	0	32332	
3958	0	32336	
3959	0	32366	
3960	0	32384	
3961	0	32396	
3962	0	32416	
3963	0	32440	
3964	0	32448	
3965	0	32424	
3966	0	32428	
3967	0	32428	
3968	0	32428	
3969	0	32400	
3970	0	32388	
3971	0	32412	
3972	0	32424	
3973	0	32432	
3974	0	32432	
3975	0	32448	
3976	0	32440	
3977	0	32464	
3978	0	32484	
3979	0	32492	
3980	0	32512	
3981	0	32520	
3982	0	32520	
3983	0	32500	
3984	0	32508	
3985	0	32512	
3986	0	32528	
3987	0	32544	
3988	0	32556	
3989	0	32548	
3990	0	32538	
3991	0	32528	
3992	0	32528	
3993	0	32532	
3994	0	32520	
3995	0	32512	
3996	0	32504	
3997	0	32508	
3998	0	32520	
3999	0	32544	
4000	0	32552	
4001	0	32556	
4002	0	32564	
4003	0	32560	
4004	0	32544	
4005	0	32556	
4006	0	32576	
4007	0	32608	
4008	0	32620	
4009	0	32620	
4010	0	32608	
4011	0	32644	
4012	0	32642	
4013	0	32648	
4014	0	32680	
4015	0	32712	
4016	0	32728	
4017	0	32708	
4018	0	32708	
4019	0	32700	
4020	0	32712	
4021	0	32716	
4022	0	32714	
4023	0	32728	
4024	0	32728	
4025	0	32744	
4026	0	32740	
4027	0	32748	
4028	0	32760	
4029	0	32756	
4030	0	32744	
4031	0	32736	
4032	0	32720	
4033	0	32732	
4034	0	32720	
4035	0	32744	
4036	0	32748	
4037	0	32784	
4038	0	32800	
4039	0	32808	
4040	0	32816	
4041	0	32792	
4042	0	32794	
4043	0	32794	
4044	0	32800	
4045	0	32800	
4046	0	32812	
4047	0	32834	
4048	0	32844	
4049	0	32848	
4050	0	32860	
4051	0	32844	
4052	0	32838	
4053	0	32856	
4054	0	32852	
4055	0	32856	
4056	0	32898	
4057	0	32904	
4058	0	32920	
4059	0	32896	
4060	0	32874	
4061	0	32872	
4062	0	32912	
4063	0	32912	
4064	0	32912	
4065	0	32898	
4066	0	32904	
4067	0	32904	
4068	0	32896	
4069	0	32888	
4070	0	32886	
4071	0	32900	
4072	0	32908	
4073	0	32904	
4074	0	32896	
4075	0	32900	
4076	0	32928	
4077	0	32924	
4078	0	32917	
4079	0	32932	
4080	0	32944	
4081	0	32960	
4082	0	32952	
4083	0	32926	
4084	0	32912	
4085	0	32912	
4086	0	32926	
4087	0	32916	
4088	0	32928	
4089	0	32936	
4090	0	32932	
4091	0	32924	
4092	0	32904	
4093	0	32876	
4094	0	32860	
4095	0	32872	
4096	0	32864	
4097	0	32868	
4098	0	32912	
4099	0	32924	
4100	0	32930	
4101	0	32920	
4102	0	32912	
4103	0	32916	
4104	0	32900	
4105	0	32908	
4106	0	32928	
4107	0	32932	
4108	0	32956	
4109	0	32964	
4110	0	32960	
4111	0	32964	
4112	0	32954	
4113	0	32942	
4114	0	32916	
4115	0	32912	
4116	0	32940	
4117	0	32978	
4118	0	32988	
4119	0	33004	
4120	0	33020	
4121	0	33024	
4122	0	33038	
4123	0	33042	
4124	0	33032	
4125	0	33064	
4126	0	33048	
4127	0	33036	
4128	0	33032	
4129	0	33034	
4130	0	33040	
4131	0	33036	
4132	0	33020	
4133	0	33012	
4134	0	33016	
4135	0	33018	
4136	0	33032	
4137	0	33020	
4138	0	33032	
4139	0	33036	
4140	0	33000	
4141	0	33008	
4142	0	32996	
4143	0	33004	
4144	0	33020	
4145	0	33040	
4146	0	33036	
4147	0	33040	
4148	0	33016	
4149	0	33020	
4150	0	33028	
4151	0	33024	
4152	0	33012	
4153	0	33004	
4154	0	32992	
4155	0	33010	
4156	0	33008	
4157	0	33004	
4158	0	33024	
4159	0	33048	
4160	0	33072	
4161	0	33060	
4162	0	33040	
4163	0	33046	
4164	0	33048	
4165	0	33064	
4166	0	33084	
4167	0	33120	
4168	0	33144	
4169	0	33136	
4170	0	33104	
4171	0	33080	
4172	0	33092	
4173	0	33104	
4174	0	33114	
4175	0	33116	
4176	0	33104	
4177	0	33104	
4178	0	33084	
4179	0	33080	
4180	0	33090	
4181	0	33108	
4182	0	33132	
4183	0	33120	
4184	0	33108	
4185	0	33124	
4186	0	33128	
4187	0	33120	
4188	0	33112	
4189	0	33090	
4190	0	33058	
4191	0	33024	
4192	0	33032	
4193	0	33069	
4194	0	33112	
4195	0	33124	
4196	0	33152	
4197	0	33204	
4198	0	33240	
4199	0	33312	
4200	0	33376	
4201	0	33412	
4202	0	33424	
4203	0	33420	
4204	0	33396	
4205	0	33376	
4206	0	33352	
4207	0	33320	
4208	0	33304	
4209	0	33320	
4210	0	33304	
4211	0	33312	
4212	0	33328	
4213	0	33368	
4214	0	33360	
4215	0	33312	
4216	0	33284	
4217	0	33280	
4218	0	33328	
4219	0	33420	
4220	0	33512	
4221	0	33624	
4222	0	33748	
4223	0	33880	
4224	0	33984	
4225	0	34068	
4226	0	34132	
4227	0	34188	
4228	0	34304	
4229	0	34368	
4230	0	34424	
4231	0	34456	
4232	0	34456	
4233	0	34488	
4234	0	34554	
4235	0	34612	
4236	0	34624	
4237	0	34612	
4238	0	34588	
4239	0	34540	
4240	0	34448	
4241	0	34344	
4242	0	34260	
4243	0	34184	
4244	0	34068	
4245	0	34000	
4246	0	33920	
4247	0	33840	
4248	0	33772	
4249	0	33680	
4250	0	33592	
4251	0	33516	
4252	0	33476	
4253	0	33428	
4254	0	33404	
4255	0	33404	
4256	0	33392	
4257	0	33396	
4258	0	33380	
4259	0	33344	
4260	0	33292	
4261	0	33248	
4262	0	33212	
4263	0	33204	
4264	0	33240	
4265	0	33264	
4266	0	33268	
4267	0	33280	
4268	0	33264	
4269	0	33252	
4270	0	33264	
4271	0	33276	
4272	0	33260	
4273	0	33232	
4274	0	33194	
4275	0	33160	
4276	0	33140	
4277	0	33128	
4278	0	33112	
4279	0	33060	
4280	0	33006	
4281	0	32920	
4282	0	32840	
4283	0	32764	
4284	0	32736	
4285	0	32714	
4286	0	32704	
4287	0	32656	
4288	0	32624	
4289	0	32604	
4290	0	32580	
4291	0	32596	
4292	0	32608	
4293	0	32608	
4294	0	32612	
4295	0	32624	
4296	0	32622	
4297	0	32610	
4298	0	32608	
4299	0	32624	
4300	0	32632	
4301	0	32648	
4302	0	32672	
4303	0	32676	
4304	0	32660	
4305	0	32652	
4306	0	32624	
4307	0	32608	
4308	0	32620	
4309	0	32628	
4310	0	32628	
4311	0	32624	
4312	0	32624	
4313	0	32624	
4314	0	32604	
4315	0	32592	
4316	0	32588	
4317	0	32596	
4318	0	32606	
4319	0	32624	
4320	0	32648	
4321	0	32664	
4322	0	32680	
4323	0	32696	
4324	0	32688	
4325	0	32652	
4326	0	32664	
4327	0	32664	
4328	0	32664	
4329	0	32688	
4330	0	32684	
4331	0	32712	
4332	0	32736	
4333	0	32738	
4334	0	32744	
4335	0	32792	
4336	0	32810	
4337	0	32804	
4338	0	32784	
4339	0	32792	
4340	0	32768	
4341	0	32752	
4342	0	32736	
4343	0	32728	
4344	0	32712	
4345	0	32724	
4346	0	32748	
4347	0	32762	
4348	0	32802	
4349	0	32852	
4350	0	32892	
4351	0	32916	
4352	0	32944	
4353	0	32960	
4354	0	32960	
4355	0	32900	
4356	0	32780	
4357	0	32634	
4358	0	32512	
4359	0	32392	
4360	0	32308	
4361	0	32412	
4362	0	32640	
4363	0	32896	
4364	0	33180	
4365	0	33516	
4366	0	33836	
4367	0	34160	
4368	0	34428	
4369	0	34604	
4370	0	34802	
4371	0	35084	
4372	0	35568	
4373	0	36240	
4374	0	37092	
4375	0	38112	
4376	0	39276	
4377	0	40612	
4378	0	42064	
4379	0	43668	
4380	0	45296	
4381	0	46964	
4382	0	48688	
4383	0	50368	
4384	0	51920	
4385	0	53248	
4386	0	54380	
4387	0	55280	
4388	0	56248	
4389	0	57320	
4390	0	58120	
4391	0	58452	
4392	0	57984	
4393	0	56364	
4394	0	53744	
4395	0	50444	
4396	0	46732	
4397	0	43016	
4398	0	39588	
4399	0	36696	
4400	0	34536	
4401	0	33052	
4402	0	32016	
4403	0	31376	
4404	0	30980	
4405	0	30684	
4406	0	30484	
4407	0	30400	
4408	0	30376	
4409	0	30462	
4410	0	30544	
4411	0	30610	
4412	0	30688	
4413	0	30744	
4414	0	30780	
4415	0	30814	
4416	0	30888	
4417	0	31024	
4418	0	31166	
4419	0	31252	
4420	0	31280	
4421	0	31280	
4422	0	31316	
4423	0	31342	
4424	0	31312	
4425	0	31252	
4426	0	31190	
4427	0	31156	
4428	0	31114	
4429	0	31092	
4430	0	31048	
4431	0	31008	
4432	0	31002	
4433	0	31008	
4434	0	31004	
4435	0	30996	
4436	0	30976	
4437	0	30956	
4438	0	30932	
4439	0	30950	
4440	0	30948	
4441	0	30960	
4442	0	30990	
4443	0	30964	
4444	0	30944	
4445	0	30944	
4446	0	30968	
4447	0	31004	
4448	0	31040	
4449	0	31068	
4450	0	31072	
4451	0	31072	
4452	0	31076	
4453	0	31104	
4454	0	31124	
4455	0	31156	
4456	0	31180	
4457	0	31200	
4458	0	31212	
4459	0	31224	
4460	0	31208	
4461	0	31200	
4462	0	31208	
4463	0	31226	
4464	0	31256	
4465	0	31270	
4466	0	31310	
4467	0	31332	
4468	0	31348	
4469	0	31380	
4470	0	31408	
4471	0	31440	
4472	0	31472	
4473	0	31504	
4474	0	31544	
4475	0	31580	
4476	0	31604	
4477	0	31624	
4478	0	31632	
4479	0	31636	
4480	0	31676	
4481	0	31712	
4482	0	31724	
4483	0	31752	
4484	0	31764	
4485	0	31768	
4486	0	31784	
4487	0	31802	
4488	0	31808	
4489	0	31840	
4490	0	31870	
4491	0	31882	
4492	0	31872	
4493	0	31892	
4494	0	31920	
4495	0	31952	
4496	0	31980	
4497	0	32000	
4498	0	32020	
4499	0	32036	
4500	0	32048	
4501	0	32084	
4502	0	32092	
4503	0	32096	
4504	0	32100	
4505	0	32108	
4506	0	32146	
4507	0	32188	
4508	0	32206	
4509	0	32218	
4510	0	32264	
4511	0	32316	
4512	0	32338	
4513	0	32352	
4514	0	32360	
4515	0	32376	
4516	0	32392	
4517	0	32424	
4518	0	32460	
4519	0	32474	
4520	0	32528	
4521	0	32552	
4522	0	32572	
4523	0	32616	
4524	0	32656	
4525	0	32684	
4526	0	32712	
4527	0	32732	
4528	0	32740	
4529	0	32748	
4530	0	32756	
4531	0	32756	
4532	0	32768	
4533	0	32792	
4534	0	32816	
4535	0	32848	
4536	0	32876	
4537	0	32884	
4538	0	32890	
4539	0	32852	
4540	0	32804	
4541	0	32792	
4542	0	32796	
4543	0	32824	
4544	0	32844	
4545	0	32844	
4546	0	32848	
4547	0	32844	
4548	0	32858	
4549	0	32892	
4550	0	32924	
4551	0	32956	
4552	0	32992	
4553	0	33024	
4554	0	33048	
4555	0	33060	
4556	0	33068	
4557	0	33076	
4558	0	33080	
4559	0	33092	
4560	0	33096	
4561	0	33120	
4562	0	33136	
4563	0	33140	
4564	0	33156	
4565	0	33184	
4566	0	33176	
4567	0	33188	
4568	0	33204	
4569	0	33220	
4570	0	33208	
4571	0	33180	
4572	0	33164	
4573	0	33152	
4574	0	33152	
4575	0	33172	
4576	0	33180	
4577	0	33204	
4578	0	33204	
4579	0	33216	
4580	0	33232	
4581	0	33248	
4582	0	33264	
4583	0	33276	
4584	0	33268	
4585	0	33272	
4586	0	33252	
4587	0	33268	
4588	0	33314	
4589	0	33316	
4590	0	33332	
4591	0	33388	
4592	0	33404	
4593	0	33408	
4594	0	33412	
4595	0	33418	
4596	0	33408	
4597	0	33400	
4598	0	33420	
4599	0	33460	
4600	0	33472	
4601	0	33468	
4602	0	33458	
4603	0	33448	
4604	0	33448	
4605	0	33428	
4606	0	33408	
4607	0	33408	
4608	0	33428	
4609	0	33432	
4610	0	33416	
4611	0	33380	
4612	0	33392	
4613	0	33420	
4614	0	33424	
4615	0	33464	
4616	0	33468	
4617	0	33484	
4618	0	33496	
4619	0	33520	
4620	0	33540	
4621	0	33552	
4622	0	33548	
4623	0	33528	
4624	0	33544	
4625	0	33552	
4626	0	33532	
4627	0	33556	
4628	0	33552	
4629	0	33556	
4630	0	33564	
4631	0	33572	
4632	0	33566	
4633	0	33556	
4634	0	33520	
4635	0	33504	
4636	0	33504	
4637	0	33492	
4638	0	33500	
4639	0	33492	
4640	0	33512	
4641	0	33532	
4642	0	33542	
4643	0	33552	
4644	0	33538	
4645	0	33520	
4646	0	33528	
4647	0	33528	
4648	0	33532	
4649	0	33528	
4650	0	33526	
4651	0	33522	
4652	0	33532	
4653	0	33544	
4654	0	33588	
4655	0	33612	
4656	0	33626	
4657	0	33632	
4658	0	33632	
4659	0	33662	
4660	0	33664	
4661	0	33666	
4662	0	33664	
4663	0	33652	
4664	0	33660	
4665	0	33680	
4666	0	33720	
4667	0	33736	
4668	0	33752	
4669	0	33744	
4670	0	33780	
4671	0	33800	
4672	0	33784	
4673	0	33776	
4674	0	33796	
4675	0	33772	
4676	0	33736	
4677	0	33722	
4678	0	33664	
4679	0	33604	
4680	0	33568	
4681	0	33557	
4682	0	33530	
4683	0	33498	
4684	0	33444	
4685	0	33400	
4686	0	33364	
4687	0	33316	
4688	0	33260	
4689	0	33184	
4690	0	33134	
4691	0	33100	
4692	0	33088	
4693	0	33056	
4694	0	33034	
4695	0	32976	
4696	0	32928	
4697	0	32892	
4698	0	32856	
4699	0	32820	
4700	0	32760	
4701	0	32720	
4702	0	32672	
4703	0	32640	
4704	0	32588	
4705	0	32536	
4706	0	32480	
4707	0	32404	
4708	0	32320	
4709	0	32238	
4710	0	32188	
4711	0	32136	
4712	0	32076	
4713	0	32036	
4714	0	31976	
4715	0	31892	
4716	0	31830	
4717	0	31784	
4718	0	31732	
4719	0	31704	
4720	0	31680	
4721	0	31660	
4722	0	31620	
4723	0	31560	
4724	0	31520	
4725	0	31492	
4726	0	31436	
4727	0	31410	
4728	0	31380	
4729	0	31344	
4730	0	31328	
4731	0	31332	
4732	0	31364	
4733	0	31356	
4734	0	31338	
4735	0	31320	
4736	0	31320	
4737	0	31312	
4738	0	31306	
4739	0	31276	
4740	0	31256	
4741	0	31252	
4742	0	31208	
4743	0	31180	
4744	0	31168	
4745	0	31152	
4746	0	31132	
4747	0	31104	
4748	0	31132	
4749	0	31152	
4750	0	31160	
4751	0	31156	
4752	0	31160	
4753	0	31172	
4754	0	31188	
4755	0	31200	
4756	0	31188	
4757	0	31168	
4758	0	31176	
4759	0	31170	
4760	0	31200	
4761	0	31240	
4762	0	31244	
4763	0	31236	
4764	0	31208	
4765	0	31192	
4766	0	31188	
4767	0	31192	
4768	0	31212	
4769	0	31224	
4770	0	31216	
4771	0	31208	
4772	0	31224	
4773	0	31232	
4774	0	31256	
4775	0	31290	
4776	0	31320	
4777	0	31320	
4778	0	31304	
4779	0	31320	
4780	0	31344	
4781	0	31392	
4782	0	31420	
4783	0	31440	
4784	0	31452	
4785	0	31452	
4786	0	31440	
4787	0	31448	
4788	0	31456	
4789	0	31452	
4790	0	31484	
4791	0	31504	
4792	0	31508	
4793	0	31504	
4794	0	31508	
4795	0	31496	
4796	0	31496	
4797	0	31504	
4798	0	31464	
4799	0	31456	
4800	0	31486	
4801	0	31504	
4802	0	31520	
4803	0	31536	
4804	0	31552	
4805	0	31576	
4806	0	31568	
4807	0	31556	
4808	0	31588	
4809	0	31616	
4810	0	31620	
4811	0	31632	
4812	0	31640	
4813	0	31660	
4814	0	31666	
4815	0	31724	
4816	0	31756	
4817	0	31770	
4818	0	31822	
4819	0	31848	
4820	0	31876	
4821	0	31884	
4822	0	31896	
4823	0	31892	
4824	0	31864	
4825	0	31856	
4826	0	31872	
4827	0	31888	
4828	0	31912	
4829	0	31920	
4830	0	31920	
4831	0	31904	
4832	0	31864	
4833	0	31796	
4834	0	31772	
4835	0	31762	
4836	0	31748	
4837	0	31744	
4838	0	31716	
4839	0	31708	
4840	0	31728	
4841	0	31748	
4842	0	31744	
4843	0	31720	
4844	0	31698	
4845	0	31716	
4846	0	31772	
4847	0	31816	
4848	0	31832	
4849	0	31808	
4850	0	31776	
4851	0	31716	
4852	0	31680	
4853	0	31688	
4854	0	31708	
4855	0	31712	
4856	0	31716	
4857	0	31736	
4858	0	31756	
4859	0	31800	
4860	0	31796	
4861	0	31784	
4862	0	31784	
4863	0	31812	
4864	0	31816	
4865	0	31832	
4866	0	31856	
4867	0	31860	
4868	0	31884	
4869	0	31868	
4870	0	31852	
4871	0	31832	
4872	0	31784	
4873	0	31732	
4874	0	31728	
4875	0	31712	
4876	0	31684	
4877	0	31672	
4878	0	31666	
4879	0	31652	
4880	0	31656	
4881	0	31656	
4882	0	31694	
4883	0	31758	
4884	0	31812	
4885	0	31840	
4886	0	31848	
4887	0	31856	
4888	0	31876	
4889	0	31884	
4890	0	31872	
4891	0	31844	
4892	0	31796	
4893	0	31768	
4894	0	31770	
4895	0	31776	
4896	0	31796	
4897	0	31800	
4898	0	31816	
4899	0	31786	
4900	0	31776	
4901	0	31788	
4902	0	31840	
4903	0	31850	
4904	0	31860	
4905	0	31872	
4906	0	31896	
4907	0	31930	
4908	0	31952	
4909	0	31968	
4910	0	31960	
4911	0	31960	
4912	0	31984	
4913	0	31964	
4914	0	31912	
4915	0	31864	
4916	0	31844	
4917	0	31860	
4918	0	31892	
4919	0	31884	
4920	0	31888	
4921	0	31890	
4922	0	31900	
4923	0	31916	
4924	0	31916	
4925	0	31904	
4926	0	31920	
4927	0	31940	
4928	0	31932	
4929	0	31916	
4930	0	31896	
4931	0	31872	
4932	0	31876	
4933	0	31872	
4934	0	31908	
4935	0	31960	
4936	0	32008	
4937	0	32008	
4938	0	32010	
4939	0	32044	
4940	0	32076	
4941	0	32120	
4942	0	32144	
4943	0	32128	
4944	0	32112	
4945	0	32098	
4946	0	32080	
4947	0	32072	
4948	0	32056	
4949	0	32032	
4950	0	31984	
4951	0	31972	
4952	0	31948	
4953	0	31928	
4954	0	31968	
4955	0	32024	
4956	0	32076	
4957	0	32076	
4958	0	32096	
4959	0	32096	
4960	0	32096	
4961	0	32092	
4962	0	32064	
4963	0	32028	
4964	0	32012	
4965	0	32048	
4966	0	32096	
4967	0	32104	
4968	0	32108	
4969	0	32128	
4970	0	32152	
4971	0	32140	
4972	0	32144	
4973	0	32184	
4974	0	32176	
4975	0	32178	
4976	0	32216	
4977	0	32236	
4978	0	32232	
4979	0	32260	
4980	0	32248	
4981	0	32232	
4982	0	32212	
4983	0	32200	
4984	0	32176	
4985	0	32176	
4986	0	32192	
4987	0	32184	
4988	0	32174	
4989	0	32204	
4990	0	32232	
4991	0	32252	
4992	0	32274	
4993	0	32280	
4994	0	32284	
4995	0	32316	
4996	0	32360	
4997	0	32426	
4998	0	32460	
4999	0	32480	
5000	0	32464	
5001	0	32428	
5002	0	32398	
5003	0	32354	
5004	0	32360	
5005	0	32352	
5006	0	32348	
5007	0	32326	
5008	0	32330	
5009	0	32324	
5010	0	32340	
5011	0	32356	
5012	0	32376	
5013	0	32420	
5014	0	32452	
5015	0	32548	
5016	0	32616	
5017	0	32636	
5018	0	32632	
5019	0	32620	
5020	0	32628	
5021	0	32584	
5022	0	32492	
5023	0	32400	
5024	0	32356	
5025	0	32352	
5026	0	32330	
5027	0	32292	
5028	0	32288	
5029	0	32284	
5030	0	32316	
5031	0	32348	
5032	0	32388	
5033	0	32456	
5034	0	32478	
5035	0	32448	
5036	0	32432	
5037	0	32452	
5038	0	32460	
5039	0	32456	
5040	0	32492	
5041	0	32508	
5042	0	32524	
5043	0	32536	
5044	0	32568	
5045	0	32572	
5046	0	32576	
5047	0	32588	
5048	0	32597	
5049	0	32608	
5050	0	32612	
5051	0	32644	
5052	0	32632	
5053	0	32620	
5054	0	32608	
5055	0	32600	
5056	0	32608	
5057	0	32652	
5058	0	32692	
5059	0	32732	
5060	0	32736	
5061	0	32736	
5062	0	32696	
5063	0	32656	
5064	0	32564	
5065	0	32532	
5066	0	32538	
5067	0	32600	
5068	0	32672	
5069	0	32728	
5070	0	32716	
5071	0	32720	
5072	0	32708	
5073	0	32700	
5074	0	32688	
5075	0	32716	
5076	0	32746	
5077	0	32744	
5078	0	32752	
5079	0	32716	
5080	0	32648	
5081	0	32622	
5082	0	32628	
5083	0	32636	
5084	0	32620	
5085	0	32574	
5086	0	32524	
5087	0	32508	
5088	0	32504	
5089	0	32504	
5090	0	32496	
5091	0	32532	
5092	0	32596	
5093	0	32624	
5094	0	32648	
5095	0	32674	
5096	0	32728	
5097	0	32792	
5098	0	32832	
5099	0	32876	
5100	0	32920	
5101	0	32932	
5102	0	32898	
5103	0	32892	
5104	0	32900	
5105	0	32928	
5106	0	32928	
5107	0	32900	
5108	0	32872	
5109	0	32818	
5110	0	32760	
5111	0	32776	
5112	0	32840	
5113	0	32892	
5114	0	32896	
5115	0	32848	
5116	0	32824	
5117	0	32784	
5118	0	32756	
5119	0	32744	
5120	0	32744	
5121	0	32776	
5122	0	32788	
5123	0	32736	
5124	0	32644	
5125	0	32590	
5126	0	32612	
5127	0	32652	
5128	0	32712	
5129	0	32752	
5130	0	32808	
5131	0	32848	
5132	0	32868	
5133	0	32900	
5134	0	32936	
5135	0	32976	
5136	0	32968	
5137	0	32948	
5138	0	32924	
5139	0	32904	
5140	0	32888	
5141	0	32900	
5142	0	32936	
5143	0	32944	
5144	0	32910	
5145	0	32868	
5146	0	32820	
5147	0	32800	
5148	0	32760	
5149	0	32704	
5150	0	32672	
5151	0	32704	
5152	0	32730	
5153	0	32738	
5154	0	32736	
5155	0	32740	
5156	0	32776	
5157	0	32832	
5158	0	32876	
5159	0	32908	
5160	0	32928	
5161	0	32980	
5162	0	33012	
5163	0	33004	
5164	0	32984	
5165	0	32976	
5166	0	32952	
5167	0	32926	
5168	0	32908	
5169	0	32896	
5170	0	32938	
5171	0	32968	
5172	0	32974	
5173	0	33012	
5174	0	33032	
5175	0	33068	
5176	0	33088	
5177	0	33136	
5178	0	33184	
5179	0	33204	
5180	0	33228	
5181	0	33242	
5182	0	33224	
5183	0	33228	
5184	0	33228	
5185	0	33232	
5186	0	33228	
5187	0	33216	
5188	0	33244	
5189	0	33260	
5190	0	33236	
5191	0	33220	
5192	0	33230	
5193	0	33228	
5194	0	33212	
5195	0	33152	
5196	0	33116	
5197	0	33116	
5198	0	33136	
5199	0	33168	
5200	0	33228	
5201	0	33388	
5202	0	33540	
5203	0	33704	
5204	0	33864	
5205	0	34028	
5206	0	34156	
5207	0	34248	
5208	0	34338	
5209	0	34434	
5210	0	34504	
5211	0	34540	
5212	0	34544	
5213	0	34556	
5214	0	34540	
5215	0	34548	
5216	0	34600	
5217	0	34620	
5218	0	34608	
5219	0	34560	
5220	0	34472	
5221	0	34360	
5222	0	34224	
5223	0	34140	
5224	0	34024	
5225	0	33928	
5226	0	33824	
5227	0	33696	
5228	0	33594	
5229	0	33520	
5230	0	33480	
5231	0	33440	
5232	0	33436	
5233	0	33420	
5234	0	33380	
5235	0	33332	
5236	0	33284	
5237	0	33236	
5238	0	33200	
5239	0	33180	
5240	0	33172	
5241	0	33188	
5242	0	33188	
5243	0	33184	
5244	0	33184	
5245	0	33220	
5246	0	33228	
5247	0	33208	
5248	0	33152	
5249	0	33038	
5250	0	32976	
5251	0	32932	
5252	0	32896	
5253	0	32864	
5254	0	32860	
5255	0	32832	
5256	0	32800	
5257	0	32736	
5258	0	32656	
5259	0	32604	
5260	0	32572	
5261	0	32544	
5262	0	32524	
5263	0	32468	
5264	0	32436	
5265	0	32404	
5266	0	32328	
5267	0	32272	
5268	0	32240	
5269	0	32264	
5270	0	32280	
5271	0	32260	
5272	0	32276	
5273	0	32332	
5274	0	32376	
5275	0	32416	
5276	0	32432	
5277	0	32428	
5278	0	32396	
5279	0	32384	
5280	0	32412	
5281	0	32444	
5282	0	32496	
5283	0	32580	
5284	0	32580	
5285	0	32552	
5286	0	32544	
5287	0	32520	
5288	0	32514	
5289	0	32524	
5290	0	32492	
5291	0	32458	
5292	0	32420	
5293	0	32420	
5294	0	32440	
5295	0	32436	
5296	0	32436	
5297	0	32436	
5298	0	32432	
5299	0	32436	
5300	0	32424	
5301	0	32440	
5302	0	32496	
5303	0	32576	
5304	0	32604	
5305	0	32618	
5306	0	32600	
5307	0	32576	
5308	0	32564	
5309	0	32560	
5310	0	32504	
5311	0	32460	
5312	0	32448	
5313	0	32424	
5314	0	32408	
5315	0	32404	
5316	0	32408	
5317	0	32428	
5318	0	32442	
5319	0	32456	
5320	0	32488	
5321	0	32496	
5322	0	32532	
5323	0	32564	
5324	0	32560	
5325	0	32584	
5326	0	32616	
5327	0	32660	
5328	0	32708	
5329	0	32740	
5330	0	32804	
5331	0	32832	
5332	0	32840	
5333	0	32834	
5334	0	32772	
5335	0	32648	
5336	0	32472	
5337	0	32304	
5338	0	32124	
5339	0	32008	
5340	0	31984	
5341	0	32108	
5342	0	32338	
5343	0	32600	
5344	0	32864	
5345	0	33192	
5346	0	33536	
5347	0	33872	
5348	0	34146	
5349	0	34192	
5350	0	34248	
5351	0	34500	
5352	0	34956	
5353	0	35676	
5354	0	36628	
5355	0	37816	
5356	0	39130	
5357	0	40536	
5358	0	42128	
5359	0	43840	
5360	0	45644	
5361	0	47472	
5362	0	49288	
5363	0	51172	
5364	0	53044	
5365	0	54720	
5366	0	56104	
5367	0	57160	
5368	0	58120	
5369	0	59000	
5370	0	59728	
5371	0	60228	
5372	0	59996	
5373	0	58840	
5374	0	56708	
5375	0	53632	
5376	0	50004	
5377	0	46104	
5378	0	42292	
5379	0	38792	
5380	0	35770	
5381	0	33416	
5382	0	31740	
5383	0	30544	
5384	0	29568	
5385	0	28880	
5386	0	28560	
5387	0	28484	
5388	0	28612	
5389	0	28948	
5390	0	29294	
5391	0	29616	
5392	0	29912	
5393	0	30136	
5394	0	30284	
5395	0	30344	
5396	0	30428	
5397	0	30512	
5398	0	30626	
5399	0	30760	
5400	0	30864	
5401	0	30924	
5402	0	30944	
5403	0	30954	
5404	0	30968	
5405	0	31020	
5406	0	31072	
5407	0	31076	
5408	0	31064	
5409	0	31044	
5410	0	30968	
5411	0	30880	
5412	0	30808	
5413	0	30778	
5414	0	30768	
5415	0	30784	
5416	0	30784	
5417	0	30764	
5418	0	30712	
5419	0	30652	
5420	0	30590	
5421	0	30548	
5422	0	30546	
5423	0	30552	
5424	0	30586	
5425	0	30612	
5426	0	30612	
5427	0	30616	
5428	0	30652	
5429	0	30680	
5430	0	30704	
5431	0	30732	
5432	0	30772	
5433	0	30848	
5434	0	30912	
5435	0	30944	
5436	0	30960	
5437	0	30964	
5438	0	30988	
5439	0	31028	
5440	0	31088	
5441	0	31144	
5442	0	31164	
5443	0	31200	
5444	0	31216	
5445	0	31240	
5446	0	31256	
5447	0	31252	
5448	0	31264	
5449	0	31280	
5450	0	31288	
5451	0	31304	
5452	0	31322	
5453	0	31364	
5454	0	31414	
5455	0	31424	
5456	0	31426	
5457	0	31416	
5458	0	31464	
5459	0	31468	
5460	0	31503	
5461	0	31548	
5462	0	31576	
5463	0	31600	
5464	0	31616	
5465	0	31628	
5466	0	31636	
5467	0	31640	
5468	0	31660	
5469	0	31652	
5470	0	31656	
5471	0	31672	
5472	0	31712	
5473	0	31764	
5474	0	31788	
5475	0	31800	
5476	0	31820	
5477	0	31868	
5478	0	31936	
5479	0	31996	
5480	0	32056	
5481	0	32084	
5482	0	32100	
5483	0	32104	
5484	0	32120	
5485	0	32156	
5486	0	32198	
5487	0	32192	
5488	0	32192	
5489	0	32166	
5490	0	32180	
5491	0	32200	
5492	0	32216	
5493	0	32200	
5494	0	32192	
5495	0	32180	
5496	0	32204	
5497	0	32260	
5498	0	32296	
5499	0	32336	
5500	0	32366	
5501	0	32416	
5502	0	32440	
5503	0	32448	
5504	0	32452	
5505	0	32480	
5506	0	32528	
5507	0	32548	
5508	0	32592	
5509	0	32624	
5510	0	32684	
5511	0	32712	
5512	0	32708	
5513	0	32716	
5514	0	32740	
5515	0	32768	
5516	0	32768	
5517	0	32800	
5518	0	32836	
5519	0	32808	
5520	0	32780	
5521	0	32752	
5522	0	32772	
5523	0	32840	
5524	0	32896	
5525	0	32916	
5526	0	32916	
5527	0	32928	
5528	0	32988	
5529	0	33024	
5530	0	33040	
5531	0	33024	
5532	0	32992	
5533	0	32976	
5534	0	32968	
5535	0	32972	
5536	0	33004	
5537	0	33088	
5538	0	33116	
5539	0	33128	
5540	0	33152	
5541	0	33144	
5542	0	33128	
5543	0	33112	
5544	0	33128	
5545	0	33144	
5546	0	33152	
5547	0	33156	
5548	0	33200	
5549	0	33244	
5550	0	33276	
5551	0	33292	
5552	0	33304	
5553	0	33260	
5554	0	33236	
5555	0	33216	
5556	0	33188	
5557	0	33176	
5558	0	33184	
5559	0	33200	
5560	0	33196	
5561	0	33208	
5562	0	33224	
5563	0	33216	
5564	0	33216	
5565	0	33222	
5566	0	33242	
5567	0	33264	
5568	0	33296	
5569	0	33324	
5570	0	33364	
5571	0	33368	
5572	0	33352	
5573	0	33332	
5574	0	33340	
5575	0	33354	
5576	0	33344	
5577	0	33388	
5578	0	33416	
5579	0	33456	
5580	0	33468	
5581	0	33476	
5582	0	33456	
5583	0	33472	
5584	0	33482	
5585	0	33472	
5586	0	33480	
5587	0	33488	
5588	0	33492	
5589	0	33480	
5590	0	33460	
5591	0	33480	
5592	0	33484	
5593	0	33496	
5594	0	33496	
5595	0	33502	
5596	0	33484	
5597	0	33476	
5598	0	33476	
5599	0	33504	
5600	0	33520	
5601	0	33520	
5602	0	33500	
5603	0	33496	
5604	0	33504	
5605	0	33524	
5606	0	33544	
5607	0	33544	
5608	0	33532	
5609	0	33532	
5610	0	33512	
5611	0	33520	
5612	0	33536	
5613	0	33560	
5614	0	33588	
5615	0	33600	
5616	0	33588	
5617	0	33580	
5618	0	33600	
5619	0	33620	
5620	0	33652	
5621	0	33676	
5622	0	33700	
5623	0	33688	
5624	0	33680	
5625	0	33672	
5626	0	33640	
5627	0	33608	
5628	0	33594	
5629	0	33596	
5630	0	33596	
5631	0	33580	
5632	0	33580	
5633	0	33600	
5634	0	33640	
5635	0	33664	
5636	0	33696	
5637	0	33692	
5638	0	33700	
5639	0	33690	
5640	0	33672	
5641	0	33684	
5642	0	33680	
5643	0	33698	
5644	0	33722	
5645	0	33736	
5646	0	33736	
5647	0	33744	
5648	0	33708	
5649	0	33680	
5650	0	33660	
5651	0	33624	
5652	0	33602	
5653	0	33560	
5654	0	33552	
5655	0	33546	
5656	0	33560	
5657	0	33554	
5658	0	33530	
5659	0	33520	
5660	0	33508	
5661	0	33480	
5662	0	33456	
5663	0	33388	
5664	0	33328	
5665	0	33280	
5666	0	33236	
5667	0	33208	
5668	0	33180	
5669	0	33098	
5670	0	33024	
5671	0	32960	
5672	0	32892	
5673	0	32856	
5674	0	32824	
5675	0	32762	
5676	0	32696	
5677	0	32632	
5678	0	32556	
5679	0	32496	
5680	0	32420	
5681	0	32356	
5682	0	32266	
5683	0	32172	
5684	0	32116	
5685	0	32080	
5686	0	32040	
5687	0	31992	
5688	0	31918	
5689	0	31828	
5690	0	31760	
5691	0	31692	
5692	0	31636	
5693	0	31570	
5694	0	31516	
5695	0	31458	
5696	0	31392	
5697	0	31324	
5698	0	31288	
5699	0	31264	
5700	0	31236	
5701	0	31204	
5702	0	31188	
5703	0	31152	
5704	0	31100	
5705	0	31064	
5706	0	30992	
5707	0	30944	
5708	0	30880	
5709	0	30852	
5710	0	30832	
5711	0	30820	
5712	0	30804	
5713	0	30784	
5714	0	30780	
5715	0	30756	
5716	0	30732	
5717	0	30704	
5718	0	30700	
5719	0	30692	
5720	0	30688	
5721	0	30716	
5722	0	30736	
5723	0	30754	
5724	0	30748	
5725	0	30736	
5726	0	30728	
5727	0	30724	
5728	0	30728	
5729	0	30728	
5730	0	30728	
5731	0	30736	
5732	0	30740	
5733	0	30772	
5734	0	30784	
5735	0	30804	
5736	0	30816	
5737	0	30820	
5738	0	30844	
5739	0	30872	
5740	0	30888	
5741	0	30912	
5742	0	30916	
5743	0	30936	
5744	0	30932	
5745	0	30960	
5746	0	31016	
5747	0	31048	
5748	0	31064	
5749	0	31080	
5750	0	31104	
5751	0	31108	
5752	0	31116	
5753	0	31128	
5754	0	31134	
5755	0	31156	
5756	0	31188	
5757	0	31200	
5758	0	31236	
5759	0	31234	
5760	0	31236	
5761	0	31232	
5762	0	31232	
5763	0	31252	
5764	0	31268	
5765	0	31272	
5766	0	31296	
5767	0	31328	
5768	0	31360	
5769	0	31384	
5770	0	31408	
5771	0	31416	
5772	0	31408	
5773	0	31424	
5774	0	31448	
5775	0	31466	
5776	0	31464	
5777	0	31488	
5778	0	31512	
5779	0	31536	
5780	0	31540	
5781	0	31528	
5782	0	31524	
5783	0	31540	
5784	0	31554	
5785	0	31556	
5786	0	31584	
5787	0	31572	
5788	0	31546	
5789	0	31540	
5790	0	31522	
5791	0	31528	
5792	0	31556	
5793	0	31584	
5794	0	31608	
5795	0	31616	
5796	0	31624	
5797	0	31616	
5798	0	31612	
5799	0	31596	
5800	0	31600	
5801	0	31612	
5802	0	31616	
5803	0	31628	
5804	0	31620	
5805	0	31636	
5806	0	31636	
5807	0	31624	
5808	0	31632	
5809	0	31616	
5810	0	31608	
5811	0	31632	
5812	0	31620	
5813	0	31584	
5814	0	31596	
5815	0	31596	
5816	0	31620	
5817	0	31664	
5818	0	31688	
5819	0	31686	
5820	0	31672	
5821	0	31642	
5822	0	31652	
5823	0	31670	
5824	0	31706	
5825	0	31712	
5826	0	31710	
5827	0	31696	
5828	0	31676	
5829	0	31674	
5830	0	31660	
5831	0	31632	
5832	0	31640	
5833	0	31660	
5834	0	31660	
5835	0	31652	
5836	0	31620	
5837	0	31612	
5838	0	31600	
5839	0	31610	
5840	0	31612	
5841	0	31596	
5842	0	31584	
5843	0	31552	
5844	0	31534	
5845	0	31516	
5846	0	31522	
5847	0	31556	
5848	0	31540	
5849	0	31516	
5850	0	31468	
5851	0	31484	
5852	0	31504	
5853	0	31536	
5854	0	31554	
5855	0	31572	
5856	0	31552	
5857	0	31552	
5858	0	31556	
5859	0	31560	
5860	0	31576	
5861	0	31596	
5862	0	31588	
5863	0	31580	
5864	0	31600	
5865	0	31614	
5866	0	31620	
5867	0	31636	
5868	0	31674	
5869	0	31676	
5870	0	31672	
5871	0	31712	
5872	0	31760	
5873	0	31808	
5874	0	31832	
5875	0	31816	
5876	0	31800	
5877	0	31780	
5878	0	31768	
5879	0	31744	
5880	0	31728	
5881	0	31716	
5882	0	31692	
5883	0	31708	
5884	0	31738	
5885	0	31720	
5886	0	31692	
5887	0	31668	
5888	0	31674	
5889	0	31688	
5890	0	31684	
5891	0	31700	
5892	0	31656	
5893	0	31656	
5894	0	31680	
5895	0	31684	
5896	0	31722	
5897	0	31792	
5898	0	31832	
5899	0	31860	
5900	0	31864	
5901	0	31864	
5902	0	31832	
5903	0	31832	
5904	0	31824	
5905	0	31792	
5906	0	31756	
5907	0	31726	
5908	0	31704	
5909	0	31720	
5910	0	31768	
5911	0	31792	
5912	0	31816	
5913	0	31844	
5914	0	31888	
5915	0	31896	
5916	0	31876	
5917	0	31862	
5918	0	31852	
5919	0	31868	
5920	0	31880	
5921	0	31880	
5922	0	31892	
5923	0	31896	
5924	0	31906	
5925	0	31880	
5926	0	31860	
5927	0	31800	
5928	0	31802	
5929	0	31812	
5930	0	31820	
5931	0	31816	
5932	0	31824	
5933	0	31864	
5934	0	31900	
5935	0	31900	
5936	0	31896	
5937	0	31884	
5938	0	31888	
5939	0	31888	
5940	0	31880	
5941	0	31920	
5942	0	31936	
5943	0	31948	
5944	0	31996	
5945	0	32020	
5946	0	32008	
5947	0	31984	
5948	0	31972	
5949	0	31984	
5950	0	32000	
5951	0	32016	
5952	0	31996	
5953	0	31978	
5954	0	31944	
5955	0	31948	
5956	0	31976	
5957	0	32004	
5958	0	32028	
5959	0	32044	
5960	0	32044	
5961	0	32076	
5962	0	32112	
5963	0	32136	
5964	0	32152	
5965	0	32172	
5966	0	32200	
5967	0	32220	
5968	0	32216	
5969	0	32196	
5970	0	32164	
5971	0	32160	
5972	0	32152	
5973	0	32128	
5974	0	32050	
5975	0	32034	
5976	0	32020	
5977	0	32024	
5978	0	32014	
5979	0	32006	
5980	0	32028	
5981	0	32064	
5982	0	32076	
5983	0	32110	
5984	0	32152	
5985	0	32196	
5986	0	32212	
5987	0	32176	
5988	0	32140	
5989	0	32120	
5990	0	32104	
5991	0	32104	
5992	0	32128	
5993	0	32136	
5994	0	32128	
5995	0	32136	
5996	0	32184	
5997	0	32248	
5998	0	32296	
5999	0	32308	
6000	0	32352	
6001	0	32368	
6002	0	32388	
6003	0	32432	
6004	0	32448	
6005	0	32448	
6006	0	32436	
6007	0	32432	
6008	0	32448	
6009	0	32454	
6010	0	32448	
6011	0	32432	
6012	0	32436	
6013	0	32400	
6014	0	32356	
6015	0	32332	
6016	0	32336	
6017	0	32348	
6018	0	32380	
6019	0	32394	
6020	0	32412	
6021	0	32416	
6022	0	32396	
6023	0	32408	
6024	0	32432	
6025	0	32408	
6026	0	32416	
6027	0	32432	
6028	0	32402	
6029	0	32388	
6030	0	32366	
6031	0	32376	
6032	0	32408	
6033	0	32384	
6034	0	32344	
6035	0	32332	
6036	0	32340	
6037	0	32328	
6038	0	32348	
6039	0	32344	
6040	0	32352	
6041	0	32364	
6042	0	32392	
6043	0	32424	
6044	0	32444	
6045	0	32448	
6046	0	32468	
6047	0	32484	
6048	0	32464	
6049	0	32464	
6050	0	32456	
6051	0	32432	
6052	0	32432	
6053	0	32456	
6054	0	32488	
6055	0	32528	
6056	0	32594	
6057	0	32656	
6058	0	32684	
6059	0	32664	
6060	0	32632	
6061	0	32600	
6062	0	32576	
6063	0	32580	
6064	0	32592	
6065	0	32600	
6066	0	32614	
6067	0	32616	
6068	0	32620	
6069	0	32600	
6070	0	32592	
6071	0	32616	
6072	0	32640	
6073	0	32640	
6074	0	32660	
6075	0	32676	
6076	0	32720	
6077	0	32788	
6078	0	32844	
6079	0	32850	
6080	0	32884	
6081	0	32940	
6082	0	32936	
6083	0	32872	
6084	0	32808	
6085	0	32728	
6086	0	32692	
6087	0	32660	
6088	0	32636	
6089	0	32616	
6090	0	32604	
6091	0	32616	
6092	0	32636	
6093	0	32656	
6094	0	32680	
6095	0	32724	
6096	0	32802	
6097	0	32926	
6098	0	33068	
6099	0	33222	
6100	0	33348	
6101	0	33472	
6102	0	33580	
6103	0	33644	
6104	0	33684	
6105	0	33760	
6106	0	33848	
6107	0	33902	
6108	0	33984	
6109	0	34092	
6110	0	34188	
6111	0	34256	
6112	0	34360	
6113	0	34420	
6114	0	34424	
6115	0	34368	
6116	0	34244	
6117	0	34112	
6118	0	33976	
6119	0	33880	
6120	0	33824	
6121	0	33756	
6122	0	33692	
6123	0	33600	
6124	0	33502	
6125	0	33440	
6126	0	33410	
6127	0	33408	
6128	0	33356	
6129	0	33296	
6130	0	33220	
6131	0	33188	
6132	0	33148	
6133	0	33156	
6134	0	33156	
6135	0	33152	
6136	0	33134	
6137	0	33132	
6138	0	33104	
6139	0	33072	
6140	0	33058	
6141	0	33048	
6142	0	33052	
6143	0	33060	
6144	0	33056	
6145	0	33012	
6146	0	33000	
6147	0	32976	
6148	0	32948	
6149	0	32942	
6150	0	32908	
6151	0	32896	
6152	0	32868	
6153	0	32892	
6154	0	32874	
6155	0	32844	
6156	0	32782	
6157	0	32684	
6158	0	32586	
6159	0	32506	
6160	0	32476	
6161	0	32456	
6162	0	32424	
6163	0	32420	
6164	0	32392	
6165	0	32384	
6166	0	32372	
6167	0	32360	
6168	0	32368	
6169	0	32352	
6170	0	32328	
6171	0	32312	
6172	0	32308	
6173	0	32332	
6174	0	32348	
6175	0	32352	
6176	0	32384	
6177	0	32396	
6178	0	32404	
6179	0	32416	
6180	0	32428	
6181	0	32452	
6182	0	32448	
6183	0	32420	
6184	0	32428	
6185	0	32432	
6186	0	32460	
6187	0	32480	
6188	0	32472	
6189	0	32468	
6190	0	32480	
6191	0	32480	
6192	0	32488	
6193	0	32496	
6194	0	32504	
6195	0	32504	
6196	0	32512	
6197	0	32540	
6198	0	32552	
6199	0	32552	
6200	0	32560	
6201	0	32552	
6202	0	32544	
6203	0	32548	
6204	0	32580	
6205	0	32600	
6206	0	32620	
6207	0	32616	
6208	0	32608	
6209	0	32608	
6210	0	32628	
6211	0	32624	
6212	0	32612	
6213	0	32628	
6214	0	32652	
6215	0	32668	
6216	0	32676	
6217	0	32684	
6218	0	32672	
6219	0	32688	
6220	0	32684	
6221	0	32688	
6222	0	32674	
6223	0	32652	
6224	0	32636	
6225	0	32640	
6226	0	32668	
6227	0	32720	
6228	0	32788	
6229	0	32824	
6230	0	32876	
6231	0	32912	
6232	0	32892	
6233	0	32858	
6234	0	32792	
6235	0	32657	
6236	0	32544	
6237	0	32452	
6238	0	32380	
6239	0	32372	
6240	0	32510	
6241	0	32802	
6242	0	33124	
6243	0	33452	
6244	0	33836	
6245	0	34204	
6246	0	34528	
6247	0	34748	
6248	0	34860	
6249	0	35030	
6250	0	35354	
6251	0	35924	
6252	0	36704	
6253	0	37692	
6254	0	38880	
6255	0	40168	
6256	0	41612	
6257	0	43188	
6258	0	44844	
6259	0	46536	
6260	0	48316	
6261	0	50172	
6262	0	52088	
6263	0	53872	
6264	0	55444	
6265	0	56688	
6266	0	57696	
6267	0	58672	
6268	0	59724	
6269	0	60516	
6270	0	60792	
6271	0	60188	
6272	0	58604	
6273	0	55984	
6274	0	52568	
6275	0	48736	
6276	0	44728	
6277	0	40935	
6278	0	37600	
6279	0	34956	
6280	0	33076	
6281	0	31688	
6282	0	30680	
6283	0	29932	
6284	0	29432	
6285	0	29156	
6286	0	29088	
6287	0	29220	
6288	0	29460	
6289	0	29700	
6290	0	29912	
6291	0	30068	
6292	0	30232	
6293	0	30380	
6294	0	30496	
6295	0	30612	
6296	0	30760	
6297	0	30880	
6298	0	30980	
6299	0	31020	
6300	0	31032	
6301	0	31036	
6302	0	30994	
6303	0	30974	
6304	0	30920	
6305	0	30880	
6306	0	30828	
6307	0	30800	
6308	0	30746	
6309	0	30668	
6310	0	30588	
6311	0	30536	
6312	0	30528	
6313	0	30556	
6314	0	30556	
6315	0	30568	
6316	0	30590	
6317	0	30584	
6318	0	30592	
6319	0	30616	
6320	0	30640	
6321	0	30660	
6322	0	30680	
6323	0	30672	
6324	0	30664	
6325	0	30652	
6326	0	30648	
6327	0	30664	
6328	0	30692	
6329	0	30740	
6330	0	30788	
6331	0	30820	
6332	0	30848	
6333	0	30868	
6334	0	30932	
6335	0	30972	
6336	0	31012	
6337	0	31020	
6338	0	31048	
6339	0	31068	
6340	0	31092	
6341	0	31114	
6342	0	31116	
6343	0	31096	
6344	0	31100	
6345	0	31098	
6346	0	31108	
6347	0	31140	
6348	0	31210	
6349	0	31240	
6350	0	31244	
6351	0	31260	
6352	0	31288	
6353	0	31314	
6354	0	31336	
6355	0	31350	
6356	0	31388	
6357	0	31436	
6358	0	31464	
6359	0	31516	
6360	0	31544	
6361	0	31580	
6362	0	31616	
6363	0	31648	
6364	0	31680	
6365	0	31700	
6366	0	31712	
6367	0	31784	
6368	0	31840	
6369	0	31856	
6370	0	31848	
6371	0	31848	
6372	0	31856	
6373	0	31900	
6374	0	31940	
6375	0	31918	
6376	0	31912	
6377	0	31912	
6378	0	31934	
6379	0	31960	
6380	0	31992	
6381	0	32034	
6382	0	32080	
6383	0	32108	
6384	0	32124	
6385	0	32152	
6386	0	32176	
6387	0	32208	
6388	0	32218	
6389	0	32224	
6390	0	32228	
6391	0	32236	
6392	0	32256	
6393	0	32272	
6394	0	32288	
6395	0	32300	
6396	0	32320	
6397	0	32352	
6398	0	32392	
6399	0	32410	
6400	0	32392	
6401	0	32420	
6402	0	32468	
6403	0	32496	
6404	0	32520	
6405	0	32532	
6406	0	32532	
6407	0	32544	
6408	0	32552	
6409	0	32566	
6410	0	32612	
6411	0	32612	
6412	0	32628	
6413	0	32664	
6414	0	32676	
6415	0	32680	
6416	0	32698	
6417	0	32708	
6418	0	32724	
6419	0	32748	
6420	0	32754	
6421	0	32802	
6422	0	32824	
6423	0	32844	
6424	0	32840	
6425	0	32832	
6426	0	32840	
6427	0	32844	
6428	0	32836	
6429	0	32844	
6430	0	32872	
6431	0	32892	
6432	0	32920	
6433	0	32940	
6434	0	32986	
6435	0	33034	
6436	0	33032	
6437	0	33016	
6438	0	33008	
6439	0	33008	
6440	0	33016	
6441	0	33048	
6442	0	33048	
6443	0	33056	
6444	0	33070	
6445	0	33064	
6446	0	33088	
6447	0	33112	
6448	0	33092	
6449	0	33084	
6450	0	33100	
6451	0	33112	
6452	0	33128	
6453	0	33120	
6454	0	33132	
6455	0	33176	
6456	0	33204	
6457	0	33192	
6458	0	33216	
6459	0	33232	
6460	0	33248	
6461	0	33268	
6462	0	33288	
6463	0	33292	
6464	0	33332	
6465	0	33360	
6466	0	33368	
6467	0	33380	
6468	0	33364	
6469	0	33340	
6470	0	33334	
6471	0	33353	
6472	0	33376	
6473	0	33388	
6474	0	33416	
6475	0	33436	
6476	0	33424	
6477	0	33404	
6478	0	33388	
6479	0	33388	
6480	0	33424	
6481	0	33432	
6482	0	33420	
6483	0	33452	
6484	0	33472	
6485	0	33500	
6486	0	33480	
6487	0	33506	
6488	0	33532	
6489	0	33548	
6490	0	33532	
6491	0	33536	
6492	0	33556	
6493	0	33576	
6494	0	33580	
6495	0	33592	
6496	0	33596	
6497	0	33624	
6498	0	33648	
6499	0	33648	
6500	0	33648	
6501	0	33656	
6502	0	33656	
6503	0	33644	
6504	0	33644	
6505	0	33636	
6506	0	33632	
6507	0	33640	
6508	0	33672	
6509	0	33680	
6510	0	33696	
6511	0	33696	
6512	0	33696	
6513	0	33680	
6514	0	33644	
6515	0	33624	
6516	0	33632	
6517	0	33636	
6518	0	33636	
6519	0	33644	
6520	0	33636	
6521	0	33648	
6522	0	33684	
6523	0	33712	
6524	0	33712	
6525	0	33732	
6526	0	33744	
6527	0	33748	
6528	0	33760	
6529	0	33788	
6530	0	33812	
6531	0	33840	
6532	0	33848	
6533	0	33844	
6534	0	33852	
6535	0	33836	
6536	0	33840	
6537	0	33848	
6538	0	33828	
6539	0	33828	
6540	0	33824	
6541	0	33816	
6542	0	33786	
6543	0	33784	
6544	0	33738	
6545	0	33714	
6546	0	33692	
6547	0	33684	
6548	0	33664	
6549	0	33632	
6550	0	33588	
6551	0	33540	
6552	0	33496	
6553	0	33468	
6554	0	33472	
6555	0	33466	
6556	0	33462	
6557	0	33439	
6558	0	33404	
6559	0	33380	
6560	0	33344	
6561	0	33300	
6562	0	33268	
6563	0	33240	
6564	0	33172	
6565	0	33112	
6566	0	33056	
6567	0	32960	
6568	0	32896	
6569	0	32826	
6570	0	32756	
6571	0	32686	
6572	0	32588	
6573	0	32484	
6574	0	32420	
6575	0	32372	
6576	0	32324	
6577	0	32230	
6578	0	32140	
6579	0	32076	
6580	0	32028	
6581	0	31968	
6582	0	31876	
6583	0	31784	
6584	0	31704	
6585	0	31650	
6586	0	31604	
6587	0	31564	
6588	0	31532	
6589	0	31488	
6590	0	31432	
6591	0	31376	
6592	0	31312	
6593	0	31258	
6594	0	31196	
6595	0	31136	
6596	0	31108	
6597	0	31044	
6598	0	31000	
6599	0	30976	
6600	0	30936	
6601	0	30884	
6602	0	30844	
6603	0	30808	
6604	0	30778	
6605	0	30744	
6606	0	30704	
6607	0	30688	
6608	0	30664	
6609	0	30664	
6610	0	30644	
6611	0	30620	
6612	0	30592	
6613	0	30600	
6614	0	30608	
6615	0	30620	
6616	0	30596	
6617	0	30584	
6618	0	30600	
6619	0	30648	
6620	0	30648	
6621	0	30646	
6622	0	30652	
6623	0	30672	
6624	0	30658	
6625	0	30612	
6626	0	30588	
6627	0	30576	
6628	0	30552	
6629	0	30548	
6630	0	30580	
6631	0	30592	
6632	0	30608	
6633	0	30632	
6634	0	30652	
6635	0	30676	
6636	0	30704	
6637	0	30712	
6638	0	30724	
6639	0	30752	
6640	0	30768	
6641	0	30772	
6642	0	30800	
6643	0	30836	
6644	0	30860	
6645	0	30886	
6646	0	30892	
6647	0	30916	
6648	0	30956	
6649	0	30980	
6650	0	30996	
6651	0	31020	
6652	0	31056	
6653	0	31064	
6654	0	31072	
6655	0	31092	
6656	0	31128	
6657	0	31140	
6658	0	31144	
6659	0	31166	
6660	0	31212	
6661	0	31244	
6662	0	31268	
6663	0	31276	
6664	0	31280	
6665	0	31328	
6666	0	31358	
6667	0	31390	
6668	0	31408	
6669	0	31392	
6670	0	31384	
6671	0	31384	
6672	0	31416	
6673	0	31412	
6674	0	31438	
6675	0	31438	
6676	0	31422	
6677	0	31404	
6678	0	31416	
6679	0	31452	
6680	0	31482	
6681	0	31502	
6682	0	31488	
6683	0	31480	
6684	0	31516	
6685	0	31532	
6686	0	31524	
6687	0	31508	
6688	0	31524	
6689	0	31524	
6690	0	31548	
6691	0	31564	
6692	0	31576	
6693	0	31604	
6694	0	31624	
6695	0	31628	
6696	0	31668	
6697	0	31664	
6698	0	31668	
6699	0	31682	
6700	0	31680	
6701	0	31684	
6702	0	31664	
6703	0	31664	
6704	0	31676	
6705	0	31668	
6706	0	31668	
6707	0	31684	
6708	0	31704	
6709	0	31732	
6710	0	31752	
6711	0	31742	
6712	0	31724	
6713	0	31712	
6714	0	31716	
6715	0	31724	
6716	0	31744	
6717	0	31748	
6718	0	31708	
6719	0	31732	
6720	0	31748	
6721	0	31768	
6722	0	31796	
6723	0	31816	
6724	0	31832	
6725	0	31808	
6726	0	31816	
6727	0	31836	
6728	0	31800	
6729	0	31776	
6730	0	31784	
6731	0	31776	
6732	0	31760	
6733	0	31740	
6734	0	31744	
6735	0	31720	
6736	0	31706	
6737	0	31728	
6738	0	31736	
6739	0	31728	
6740	0	31716	
6741	0	31712	
6742	0	31712	
6743	0	31698	
6744	0	31724	
6745	0	31764	
6746	0	31776	
6747	0	31776	
6748	0	31768	
6749	0	31752	
6750	0	31732	
6751	0	31708	
6752	0	31696	
6753	0	31696	
6754	0	31740	
6755	0	31784	
6756	0	31818	
6757	0	31840	
6758	0	31836	
6759	0	31848	
6760	0	31828	
6761	0	31812	
6762	0	31800	
6763	0	31784	
6764	0	31790	
6765	0	31772	
6766	0	31776	
6767	0	31750	
6768	0	31704	
6769	0	31700	
6770	0	31704	
6771	0	31732	
6772	0	31750	
6773	0	31760	
6774	0	31784	
6775	0	31780	
6776	0	31792	
6777	0	31800	
6778	0	31820	
6779	0	31840	
6780	0	31820	
6781	0	31832	
6782	0	31836	
6783	0	31848	
6784	0	31860	
6785	0	31860	
6786	0	31872	
6787	0	31872	
6788	0	31884	
6789	0	31872	
6790	0	31876	
6791	0	31888	
6792	0	31924	
6793	0	31956	
6794	0	31952	
6795	0	31956	
6796	0	31968	
6797	0	31978	
6798	0	31936	
6799	0	31952	
6800	0	31960	
6801	0	31968	
6802	0	31992	
6803	0	32020	
6804	0	32016	
6805	0	32012	
6806	0	32034	
6807	0	32044	
6808	0	32068	
6809	0	32084	
6810	0	32096	
6811	0	32096	
6812	0	32096	
6813	0	32108	
6814	0	32084	
6815	0	32100	
6816	0	32100	
6817	0	32100	
6818	0	32108	
6819	0	32108	
6820	0	32118	
6821	0	32116	
6822	0	32108	
6823	0	32114	
6824	0	32112	
6825	0	32116	
6826	0	32140	
6827	0	32160	
6828	0	32154	
6829	0	32160	
6830	0	32188	
6831	0	32200	
6832	0	32208	
6833	0	32176	
6834	0	32172	
6835	0	32150	
6836	0	32144	
6837	0	32108	
6838	0	32120	
6839	0	32136	
6840	0	32164	
6841	0	32200	
6842	0	32200	
6843	0	32184	
6844	0	32160	
6845	0	32140	
6846	0	32144	
6847	0	32164	
6848	0	32180	
6849	0	32192	
6850	0	32188	
6851	0	32204	
6852	0	32248	
6853	0	32280	
6854	0	32324	
6855	0	32364	
6856	0	32380	
6857	0	32396	
6858	0	32372	
6859	0	32372	
6860	0	32408	
6861	0	32432	
6862	0	32444	
6863	0	32432	
6864	0	32412	
6865	0	32408	
6866	0	32404	
6867	0	32424	
6868	0	32452	
6869	0	32456	
6870	0	32440	
6871	0	32424	
6872	0	32440	
6873	0	32436	
6874	0	32432	
6875	0	32412	
6876	0	32428	
6877	0	32444	
6878	0	32448	
6879	0	32460	
6880	0	32468	
6881	0	32492	
6882	0	32504	
6883	0	32512	
6884	0	32504	
6885	0	32506	
6886	0	32488	
6887	0	32488	
6888	0	32516	
6889	0	32544	
6890	0	32516	
6891	0	32489	
6892	0	32474	
6893	0	32476	
6894	0	32480	
6895	0	32500	
6896	0	32508	
6897	0	32544	
6898	0	32600	
6899	0	32624	
6900	0	32640	
6901	0	32664	
6902	0	32692	
6903	0	32684	
6904	0	32652	
6905	0	32642	
6906	0	32632	
6907	0	32612	
6908	0	32612	
6909	0	32592	
6910	0	32576	
6911	0	32592	
6912	0	32608	
6913	0	32656	
6914	0	32656	
6915	0	32668	
6916	0	32672	
6917	0	32684	
6918	0	32656	
6919	0	32672	
6920	0	32680	
6921	0	32704	
6922	0	32696	
6923	0	32704	
6924	0	32688	
6925	0	32656	
6926	0	32632	
6927	0	32636	
6928	0	32644	
6929	0	32672	
6930	0	32684	
6931	0	32692	
6932	0	32694	
6933	0	32664	
6934	0	32648	
6935	0	32640	
6936	0	32664	
6937	0	32688	
6938	0	32700	
6939	0	32704	
6940	0	32692	
6941	0	32696	
6942	0	32700	
6943	0	32728	
6944	0	32738	
6945	0	32736	
6946	0	32732	
6947	0	32740	
6948	0	32758	
6949	0	32752	
6950	0	32736	
6951	0	32746	
6952	0	32736	
6953	0	32744	
6954	0	32772	
6955	0	32756	
6956	0	32762	
6957	0	32748	
6958	0	32756	
6959	0	32792	
6960	0	32788	
6961	0	32788	
6962	0	32780	
6963	0	32796	
6964	0	32812	
6965	0	32824	
6966	0	32824	
6967	0	32836	
6968	0	32844	
6969	0	32844	
6970	0	32864	
6971	0	32876	
6972	0	32856	
6973	0	32860	
6974	0	32884	
6975	0	32896	
6976	0	32885	
6977	0	32868	
6978	0	32872	
6979	0	32872	
6980	0	32880	
6981	0	32864	
6982	0	32880	
6983	0	32908	
6984	0	32932	
6985	0	32922	
6986	0	32932	
6987	0	32932	
6988	0	32948	
6989	0	32932	
6990	0	32920	
6991	0	32954	
6992	0	32980	
6993	0	33008	
6994	0	32996	
6995	0	32980	
6996	0	32972	
6997	0	33016	
6998	0	33004	
6999	0	32980	
7000	0	32988	
7001	0	32988	
7002	0	32984	
7003	0	32952	
7004	0	32929	
7005	0	32912	
7006	0	32892	
7007	0	32912	
7008	0	32904	
7009	0	32900	
7010	0	32904	
7011	0	32920	
7012	0	32936	
7013	0	32944	
7014	0	32968	
7015	0	32984	
7016	0	32994	
7017	0	32980	
7018	0	32974	
7019	0	32988	
7020	0	32996	
7021	0	33020	
7022	0	33004	
7023	0	32996	
7024	0	32992	
7025	0	32972	
7026	0	32974	
7027	0	32988	
7028	0	32988	
7029	0	33004	
7030	0	32980	
7031	0	32948	
7032	0	32948	
7033	0	32952	
7034	0	32958	
7035	0	32992	
7036	0	32988	
7037	0	32992	
7038	0	32998	
7039	0	33018	
7040	0	33022	
7041	0	33016	
7042	0	33016	
7043	0	33000	
7044	0	33008	
7045	0	33016	
7046	0	33004	
7047	0	32996	
7048	0	33000	
7049	0	33018	
7050	0	33000	
7051	0	32976	
7052	0	32960	
7053	0	32960	
7054	0	32972	
7055	0	32996	
7056	0	33028	
7057	0	33064	
7058	0	33088	
7059	0	33088	
7060	0	33088	
7061	0	33080	
7062	0	33084	
7063	0	33076	
7064	0	33080	
7065	0	33072	
7066	0	33048	
7067	0	33048	
7068	0	33024	
7069	0	33024	
7070	0	33012	
7071	0	33028	
7072	0	33032	
7073	0	33032	
7074	0	33056	
7075	0	33032	
7076	0	33000	
7077	0	32988	
7078	0	32972	
7079	0	33020	
7080	0	33064	
7081	0	33106	
7082	0	33152	
7083	0	33196	
7084	0	33216	
7085	0	33260	
7086	0	33284	
7087	0	33312	
7088	0	33340	
7089	0	33356	
7090	0	33360	
7091	0	33376	
7092	0	33364	
7093	0	33316	
7094	0	33292	
7095	0	33296	
7096	0	33308	
7097	0	33300	
7098	0	33280	
7099	0	33264	
7100	0	33256	
7101	0	33316	
7102	0	33372	
7103	0	33456	
7104	0	33554	
7105	0	33660	
7106	0	33796	
7107	0	33924	
7108	0	34048	
7109	0	34126	
7110	0	34220	
7111	0	34320	
7112	0	34420	
7113	0	34476	
7114	0	34532	
7115	0	34570	
7116	0	34584	
7117	0	34584	
7118	0	34592	
7119	0	34628	
7120	0	34660	
7121	0	34652	
7122	0	34628	
7123	0	34560	
7124	0	34460	
7125	0	34344	
7126	0	34240	
7127	0	34108	
7128	0	33988	
7129	0	33874	
7130	0	33736	
7131	0	33656	
7132	0	33600	
7133	0	33540	
7134	0	33508	
7135	0	33432	
7136	0	33392	
7137	0	33352	
7138	0	33312	
7139	0	33292	
7140	0	33260	
7141	0	33224	
7142	0	33184	
7143	0	33148	
7144	0	33088	
7145	0	33064	
7146	0	33072	
7147	0	33092	
7148	0	33112	
7149	0	33116	
7150	0	33110	
7151	0	33110	
7152	0	33104	
7153	0	33080	
7154	0	33056	
7155	0	33032	
7156	0	33012	
7157	0	33020	
7158	0	33004	
7159	0	32992	
7160	0	32988	
7161	0	32952	
7162	0	32906	
7163	0	32832	
7164	0	32752	
7165	0	32676	
7166	0	32612	
7167	0	32564	
7168	0	32508	
7169	0	32472	
7170	0	32484	
7171	0	32504	
7172	0	32496	
7173	0	32522	
7174	0	32524	
7175	0	32542	
7176	0	32538	
7177	0	32536	
7178	0	32484	
7179	0	32448	
7180	0	32432	
7181	0	32444	
7182	0	32448	
7183	0	32464	
7184	0	32464	
7185	0	32458	
7186	0	32468	
7187	0	32464	
7188	0	32480	
7189	0	32484	
7190	0	32460	
7191	0	32464	
7192	0	32462	
7193	0	32468	
7194	0	32448	
7195	0	32468	
7196	0	32480	
7197	0	32482	
7198	0	32488	
7199	0	32508	
7200	0	32506	
7201	0	32508	
7202	0	32506	
7203	0	32488	
7204	0	32488	
7205	0	32476	
7206	0	32504	
7207	0	32520	
7208	0	32544	
7209	0	32560	
7210	0	32556	
7211	0	32548	
7212	0	32536	
7213	0	32552	
7214	0	32572	
7215	0	32584	
7216	0	32608	
7217	0	32632	
7218	0	32640	
7219	0	32640	
7220	0	32628	
7221	0	32624	
7222	0	32628	
7223	0	32616	
7224	0	32608	
7225	0	32588	
7226	0	32600	
7227	0	32620	
7228	0	32634	
7229	0	32620	
7230	0	32622	
7231	0	32640	
7232	0	32716	
7233	0	32775	
7234	0	32840	
7235	0	32880	
7236	0	32880	
7237	0	32844	
7238	0	32800	
7239	0	32696	
7240	0	32556	
7241	0	32406	
7242	0	32298	
7243	0	32180	
7244	0	32128	
7245	0	32228	
7246	0	32476	
7247	0	32744	
7248	0	33028	
7249	0	33388	
7250	0	33708	
7251	0	34020	
7252	0	34314	
7253	0	34480	
7254	0	34672	
7255	0	35000	
7256	0	35548	
7257	0	36252	
7258	0	37128	
7259	0	38212	
7260	0	39408	
7261	0	40760	
7262	0	42208	
7263	0	43796	
7264	0	45424	
7265	0	47096	
7266	0	48808	
7267	0	50496	
7268	0	52056	
7269	0	53400	
7270	0	54532	
7271	0	55504	
7272	0	56528	
7273	0	57632	
7274	0	58400	
7275	0	58720	
7276	0	58244	
7277	0	56618	
7278	0	54020	
7279	0	50760	
7280	0	47040	
7281	0	43258	
7282	0	39764	
7283	0	36812	
7284	0	34592	
7285	0	33016	
7286	0	31904	
7287	0	31184	
7288	0	30736	
7289	0	30356	
7290	0	30120	
7291	0	30034	
7292	0	30020	
7293	0	30094	
7294	0	30178	
7295	0	30256	
7296	0	30316	
7297	0	30404	
7298	0	30472	
7299	0	30538	
7300	0	30642	
7301	0	30768	
7302	0	30892	
7303	0	30972	
7304	0	31030	
7305	0	31052	
7306	0	31080	
7307	0	31080	
7308	0	31068	
7309	0	31024	
7310	0	30976	
7311	0	30936	
7312	0	30880	
7313	0	30840	
7314	0	30824	
7315	0	30804	
7316	0	30776	
7317	0	30734	
7318	0	30720	
7319	0	30688	
7320	0	30682	
7321	0	30676	
7322	0	30696	
7323	0	30714	
7324	0	30712	
7325	0	30712	
7326	0	30688	
7327	0	30696	
7328	0	30720	
7329	0	30736	
7330	0	30728	
7331	0	30732	
7332	0	30748	
7333	0	30760	
7334	0	30768	
7335	0	30764	
7336	0	30784	
7337	0	30820	
7338	0	30832	
7339	0	30856	
7340	0	30880	
7341	0	30896	
7342	0	30900	
7343	0	30928	
7344	0	30956	
7345	0	30972	
7346	0	30988	
7347	0	31032	
7348	0	31060	
7349	0	31080	
7350	0	31076	
7351	0	31074	
7352	0	31092	
7353	0	31124	
7354	0	31160	
7355	0	31224	
7356	0	31272	
7357	0	31292	
7358	0	31308	
7359	0	31320	
7360	0	31360	
7361	0	31400	
7362	0	31408	
7363	0	31410	
7364	0	31436	
7365	0	31448	
7366	0	31478	
7367	0	31512	
7368	0	31528	
7369	0	31534	
7370	0	31564	
7371	0	31598	
7372	0	31624	
7373	0	31642	
7374	0	31660	
7375	0	31696	
7376	0	31712	
7377	0	31732	
7378	0	31756	
7379	0	31776	
7380	0	31792	
7381	0	31844	
7382	0	31892	
7383	0	31912	
7384	0	31952	
7385	0	31968	
7386	0	31968	
7387	0	31996	
7388	0	32028	
7389	0	32060	
7390	0	32064	
7391	0	32066	
7392	0	32104	
7393	0	32132	
7394	0	32148	
7395	0	32160	
7396	0	32200	
7397	0	32240	
7398	0	32276	
7399	0	32320	
7400	0	32332	
7401	0	32356	
7402	0	32348	
7403	0	32330	
7404	0	32352	
7405	0	32376	
7406	0	32404	
7407	0	32412	
7408	0	32434	
7409	0	32434	
7410	0	32436	
7411	0	32432	
7412	0	32464	
7413	0	32488	
7414	0	32504	
7415	0	32516	
7416	0	32528	
7417	0	32540	
7418	0	32592	
7419	0	32628	
7420	0	32656	
7421	0	32680	
7422	0	32672	
7423	0	32668	
7424	0	32652	
7425	0	32644	
7426	0	32664	
7427	0	32688	
7428	0	32708	
7429	0	32740	
7430	0	32746	
7431	0	32752	
7432	0	32800	
7433	0	32816	
7434	0	32836	
7435	0	32820	
7436	0	32816	
7437	0	32824	
7438	0	32832	
7439	0	32848	
7440	0	32876	
7441	0	32892	
7442	0	32900	
7443	0	32916	
7444	0	32932	
7445	0	32964	
7446	0	32976	
7447	0	33004	
7448	0	33002	
7449	0	33000	
7450	0	32994	
7451	0	32992	
7452	0	33012	
7453	0	33040	
7454	0	33052	
7455	0	33084	
7456	0	33104	
7457	0	33120	
7458	0	33112	
7459	0	33104	
7460	0	33116	
7461	0	33120	
7462	0	33148	
7463	0	33180	
7464	0	33204	
7465	0	33184	
7466	0	33152	
7467	0	33148	
7468	0	33144	
7469	0	33148	
7470	0	33176	
7471	0	33200	
7472	0	33220	
7473	0	33252	
7474	0	33276	
7475	0	33264	
7476	0	33272	
7477	0	33284	
7478	0	33304	
7479	0	33312	
7480	0	33344	
7481	0	33376	
7482	0	33372	
7483	0	33384	
7484	0	33408	
7485	0	33428	
7486	0	33434	
7487	0	33420	
7488	0	33420	
7489	0	33428	
7490	0	33424	
7491	0	33428	
7492	0	33420	
7493	0	33472	
7494	0	33504	
7495	0	33528	
7496	0	33536	
7497	0	33540	
7498	0	33548	
7499	0	33560	
7500	0	33544	
7501	0	33548	
7502	0	33568	
7503	0	33572	
7504	0	33576	
7505	0	33562	
7506	0	33580	
7507	0	33592	
7508	0	33600	
7509	0	33584	
7510	0	33600	
7511	0	33612	
7512	0	33616	
7513	0	33598	
7514	0	33604	
7515	0	33620	
7516	0	33640	
7517	0	33656	
7518	0	33676	
7519	0	33712	
7520	0	33704	
7521	0	33696	
7522	0	33708	
7523	0	33718	
7524	0	33732	
7525	0	33728	
7526	0	33736	
7527	0	33728	
7528	0	33708	
7529	0	33700	
7530	0	33680	
7531	0	33668	
7532	0	33668	
7533	0	33652	
7534	0	33632	
7535	0	33612	
7536	0	33624	
7537	0	33640	
7538	0	33648	
7539	0	33652	
7540	0	33668	
7541	0	33672	
7542	0	33688	
7543	0	33688	
7544	0	33696	
7545	0	33704	
7546	0	33680	
7547	0	33680	
7548	0	33708	
7549	0	33712	
7550	0	33688	
7551	0	33672	
7552	0	33680	
7553	0	33696	
7554	0	33716	
7555	0	33712	
7556	0	33692	
7557	0	33668	
7558	0	33638	
7559	0	33608	
7560	0	33600	
7561	0	33616	
7562	0	33620	
7563	0	33612	
7564	0	33608	
7565	0	33562	
7566	0	33552	
7567	0	33544	
7568	0	33484	
7569	0	33412	
7570	0	33384	
7571	0	33336	
7572	0	33272	
7573	0	33216	
7574	0	33168	
7575	0	33112	
7576	0	33044	
7577	0	32988	
7578	0	32940	
7579	0	32876	
7580	0	32796	
7581	0	32712	
7582	0	32648	
7583	0	32560	
7584	0	32504	
7585	0	32468	
7586	0	32428	
7587	0	32372	
7588	0	32316	
7589	0	32244	
7590	0	32208	
7591	0	32144	
7592	0	32096	
7593	0	32034	
7594	0	31976	
7595	0	31928	
7596	0	31894	
7597	0	31824	
7598	0	31730	
7599	0	31676	
7600	0	31620	
7601	0	31620	
7602	0	31612	
7603	0	31572	
7604	0	31508	
7605	0	31444	
7606	0	31392	
7607	0	31328	
7608	0	31304	
7609	0	31280	
7610	0	31202	
7611	0	31160	
7612	0	31124	
7613	0	31096	
7614	0	31114	
7615	0	31100	
7616	0	31110	
7617	0	31112	
7618	0	31104	
7619	0	31082	
7620	0	31056	
7621	0	31072	
7622	0	31104	
7623	0	31112	
7624	0	31124	
7625	0	31108	
7626	0	31068	
7627	0	31040	
7628	0	31008	
7629	0	30992	
7630	0	30972	
7631	0	30970	
7632	0	30968	
7633	0	30976	
7634	0	30980	
7635	0	30972	
7636	0	30970	
7637	0	30956	
7638	0	30960	
7639	0	30956	
7640	0	30968	
7641	0	31002	
7642	0	31036	
7643	0	31056	
7644	0	31048	
7645	0	31054	
7646	0	31040	
7647	0	31052	
7648	0	31064	
7649	0	31080	
7650	0	31108	
7651	0	31140	
7652	0	31184	
7653	0	31204	
7654	0	31180	
7655	0	31152	
7656	0	31152	
7657	0	31152	
7658	0	31160	
7659	0	31172	
7660	0	31184	
7661	0	31200	
7662	0	31224	
7663	0	31216	
7664	0	31232	
7665	0	31256	
7666	0	31272	
7667	0	31284	
7668	0	31244	
7669	0	31220	
7670	0	31236	
7671	0	31248	
7672	0	31274	
7673	0	31296	
7674	0	31308	
7675	0	31356	
7676	0	31388	
7677	0	31442	
7678	0	31484	
7679	0	31524	
7680	0	31560	
7681	0	31604	
7682	0	31638	
7683	0	31648	
7684	0	31672	
7685	0	31696	
7686	0	31700	
7687	0	31700	
7688	0	31684	
7689	0	31672	
7690	0	31678	
7691	0	31704	
7692	0	31728	
7693	0	31748	
7694	0	31784	
7695	0	31792	
7696	0	31808	
7697	0	31820	
7698	0	31808	
7699	0	31780	
7700	0	31760	
7701	0	31728	
7702	0	31734	
7703	0	31744	
7704	0	31760	
7705	0	31760	
7706	0	31736	
7707	0	31708	
7708	0	31692	
7709	0	31666	
7710	0	31688	
7711	0	31708	
7712	0	31716	
7713	0	31704	
7714	0	31676	
7715	0	31684	
7716	0	31712	
7717	0	31770	
7718	0	31788	
7719	0	31804	
7720	0	31808	
7721	0	31808	
7722	0	31804	
7723	0	31802	
7724	0	31808	
7725	0	31832	
7726	0	31876	
7727	0	31904	
7728	0	31910	
7729	0	31892	
7730	0	31892	
7731	0	31876	
7732	0	31872	
7733	0	31860	
7734	0	31854	
7735	0	31844	
7736	0	31884	
7737	0	31924	
7738	0	31952	
7739	0	31938	
7740	0	31902	
7741	0	31872	
7742	0	31876	
7743	0	31908	
7744	0	31924	
7745	0	31912	
7746	0	31884	
7747	0	31826	
7748	0	31774	
7749	0	31750	
7750	0	31716	
7751	0	31688	
7752	0	31668	
7753	0	31664	
7754	0	31640	
7755	0	31664	
7756	0	31692	
7757	0	31728	
7758	0	31760	
7759	0	31792	
7760	0	31828	
7761	0	31832	
7762	0	31864	
7763	0	31864	
7764	0	31840	
7765	0	31836	
7766	0	31862	
7767	0	31888	
7768	0	31912	
7769	0	31940	
7770	0	31960	
7771	0	31960	
7772	0	31944	
7773	0	31944	
7774	0	31928	
7775	0	31932	
7776	0	31930	
7777	0	31928	
7778	0	31938	
7779	0	31952	
7780	0	31936	
7781	0	31936	
7782	0	31928	
7783	0	31912	
7784	0	31898	
7785	0	31908	
7786	0	31932	
7787	0	31956	
7788	0	31988	
7789	0	31984	
7790	0	31984	
7791	0	31988	
7792	0	31992	
7793	0	31988	
7794	0	31992	
7795	0	32004	
7796	0	32020	
7797	0	32020	
7798	0	32030	
7799	0	31996	
7800	0	31964	
7801	0	31940	
7802	0	31964	
7803	0	31984	
7804	0	32008	
7805	0	32012	
7806	0	31996	
7807	0	32012	
7808	0	32010	
7809	0	32024	
7810	0	32040	
7811	0	32060	
7812	0	32084	
7813	0	32116	
7814	0	32104	
7815	0	32090	
7816	0	32088	
7817	0	32100	
7818	0	32144	
7819	0	32148	
7820	0	32140	
7821	0	32149	
7822	0	32172	
7823	0	32208	
7824	0	32208	
7825	0	32216	
7826	0	32224	
7827	0	32180	
7828	0	32156	
7829	0	32148	
7830	0	32116	
7831	0	32088	
7832	0	32076	
7833	0	32080	
7834	0	32096	
7835	0	32108	
7836	0	32074	
7837	0	32098	
7838	0	32108	
7839	0	32122	
7840	0	32140	
7841	0	32176	
7842	0	32200	
7843	0	32208	
7844	0	32220	
7845	0	32208	
7846	0	32196	
7847	0	32182	
7848	0	32166	
7849	0	32124	
7850	0	32104	
7851	0	32112	
7852	0	32112	
7853	0	32116	
7854	0	32120	
7855	0	32150	
7856	0	32172	
7857	0	32192	
7858	0	32216	
7859	0	32246	
7860	0	32272	
7861	0	32272	
7862	0	32288	
7863	0	32308	
7864	0	32314	
7865	0	32296	
7866	0	32320	
7867	0	32344	
7868	0	32352	
7869	0	32382	
7870	0	32384	
7871	0	32404	
7872	0	32400	
7873	0	32400	
7874	0	32412	
7875	0	32404	
7876	0	32400	
7877	0	32380	
7878	0	32378	
7879	0	32360	
7880	0	32352	
7881	0	32336	
7882	0	32328	
7883	0	32352	
7884	0	32374	
7885	0	32408	
7886	0	32420	
7887	0	32448	
7888	0	32476	
7889	0	32496	
7890	0	32476	
7891	0	32436	
7892	0	32404	
7893	0	32368	
7894	0	32360	
7895	0	32360	
7896	0	32384	
7897	0	32408	
7898	0	32384	
7899	0	32416	
7900	0	32456	
7901	0	32464	
7902	0	32432	
7903	0	32416	
7904	0	32416	
7905	0	32416	
7906	0	32420	
7907	0	32432	
7908	0	32414	
7909	0	32356	
7910	0	32360	
7911	0	32364	
7912	0	32408	
7913	0	32440	
7914	0	32448	
7915	0	32464	
7916	0	32496	
7917	0	32504	
7918	0	32532	
7919	0	32560	
7920	0	32600	
7921	0	32644	
7922	0	32688	
7923	0	32728	
7924	0	32724	
7925	0	32692	
7926	0	32648	
7927	0	32624	
7928	0	32620	
7929	0	32600	
7930	0	32580	
7931	0	32544	
7932	0	32524	
7933	0	32536	
7934	0	32520	
7935	0	32512	
7936	0	32492	
7937	0	32500	
7938	0	32516	
7939	0	32568	
7940	0	32592	
7941	0	32628	
7942	0	32672	
7943	0	32684	
7944	0	32700	
7945	0	32732	
7946	0	32760	
7947	0	32760	
7948	0	32772	
7949	0	32768	
7950	0	32768	
7951	0	32774	
7952	0	32776	
7953	0	32800	
7954	0	32776	
7955	0	32760	
7956	0	32760	
7957	0	32736	
7958	0	32696	
7959	0	32680	
7960	0	32680	
7961	0	32684	
7962	0	32690	
7963	0	32680	
7964	0	32684	
7965	0	32696	
7966	0	32704	
7967	0	32700	
7968	0	32716	
7969	0	32736	
7970	0	32720	
7971	0	32688	
7972	0	32646	
7973	0	32650	
7974	0	32664	
7975	0	32668	
7976	0	32674	
7977	0	32702	
7978	0	32748	
7979	0	32770	
7980	0	32756	
7981	0	32796	
7982	0	32844	
7983	0	32888	
7984	0	32924	
7985	0	32940	
7986	0	32920	
7987	0	32900	
7988	0	32872	
7989	0	32890	
7990	0	32908	
7991	0	32906	
7992	0	32904	
7993	0	32880	
7994	0	32888	
7995	0	32896	
7996	0	32880	
7997	0	32884	
7998	0	32888	
7999	0	32892	
8000	0	32944	
8001	0	32984	
8002	0	32988	
8003	0	32988	
8004	0	32988	
8005	0	32988	
8006	0	32988	
8007	0	32966	
8008	0	32944	
8009	0	32944	
8010	0	32944	
8011	0	32896	
8012	0	32860	
8013	0	32874	
8014	0	32868	
8015	0	32844	
8016	0	32852	
8017	0	32864	
8018	0	32864	
8019	0	32850	
8020	0	32864	
8021	0	32904	
8022	0	32920	
8023	0	32892	
8024	0	32900	
8025	0	32916	
8026	0	32892	
8027	0	32900	
8028	0	32916	
8029	0	32892	
8030	0	32892	
8031	0	32920	
8032	0	32916	
8033	0	32932	
8034	0	32934	
8035	0	32926	
8036	0	32940	
8037	0	32940	
8038	0	32932	
8039	0	32916	
8040	0	32888	
8041	0	32868	
8042	0	32852	
8043	0	32816	
8044	0	32792	
8045	0	32768	
8046	0	32776	
8047	0	32798	
8048	0	32794	
8049	0	32808	
8050	0	32816	
8051	0	32832	
8052	0	32840	
8053	0	32848	
8054	0	32832	
8055	0	32860	
8056	0	32924	
8057	0	33016	
8058	0	33056	
8059	0	33040	
8060	0	33060	
8061	0	33104	
8062	0	33156	
8063	0	33164	
8064	0	33168	
8065	0	33160	
8066	0	33114	
8067	0	33064	
8068	0	32976	
8069	0	32904	
8070	0	32872	
8071	0	32824	
8072	0	32788	
8073	0	32784	
8074	0	32768	
8075	0	32780	
8076	0	32776	
8077	0	32772	
8078	0	32836	
8079	0	32896	
8080	0	32938	
8081	0	33032	
8082	0	33104	
8083	0	33160	
8084	0	33208	
8085	0	33218	
8086	0	33240	
8087	0	33260	
8088	0	33228	
8089	0	33202	
8090	0	33216	
8091	0	33200	
8092	0	33180	
8093	0	33185	
8094	0	33208	
8095	0	33268	
8096	0	33288	
8097	0	33268	
8098	0	33256	
8099	0	33272	
8100	0	33296	
8101	0	33340	
8102	0	33384	
8103	0	33456	
8104	0	33564	
8105	0	33680	
8106	0	33828	
8107	0	33964	
8108	0	34086	
8109	0	34192	
8110	0	34284	
8111	0	34424	
8112	0	34516	
8113	0	34552	
8114	0	34592	
8115	0	34636	
8116	0	34666	
8117	0	34684	
8118	0	34720	
8119	0	34764	
8120	0	34776	
8121	0	34736	
8122	0	34648	
8123	0	34548	
8124	0	34428	
8125	0	34308	
8126	0	34216	
8127	0	34092	
8128	0	33972	
8129	0	33848	
8130	0	33724	
8131	0	33628	
8132	0	33564	
8133	0	33552	
8134	0	33540	
8135	0	33524	
8136	0	33504	
8137	0	33456	
8138	0	33430	
8139	0	33404	
8140	0	33352	
8141	0	33230	
8142	0	33144	
8143	0	33096	
8144	0	33054	
8145	0	33040	
8146	0	33040	
8147	0	33064	
8148	0	33088	
8149	0	33112	
8150	0	33108	
8151	0	33076	
8152	0	33040	
8153	0	33024	
8154	0	33008	
8155	0	32972	
8156	0	32924	
8157	0	32892	
8158	0	32876	
8159	0	32858	
8160	0	32800	
8161	0	32652	
8162	0	32576	
8163	0	32536	
8164	0	32512	
8165	0	32500	
8166	0	32500	
8167	0	32484	
8168	0	32448	
8169	0	32416	
8170	0	32396	
8171	0	32416	
8172	0	32448	
8173	0	32482	
8174	0	32482	
8175	0	32516	
8176	0	32532	
8177	0	32544	
8178	0	32532	
8179	0	32560	
8180	0	32588	
8181	0	32560	
8182	0	32528	
8183	0	32520	
8184	0	32544	
8185	0	32560	
8186	0	32584	
8187	0	32612	
8188	0	32588	
8189	0	32552	
8190	0	32524	
8191	0	32480	
8192	0	32460	
8193	0	32484	
8194	0	32504	
8195	0	32484	
8196	0	32484	
8197	0	32488	
8198	0	32496	
8199	0	32504	
8200	0	32480	
8201	0	32474	
8202	0	32488	
8203	0	32518	
8204	0	32524	
8205	0	32544	
8206	0	32552	
8207	0	32564	
8208	0	32584	
8209	0	32604	
8210	0	32604	
8211	0	32588	
8212	0	32620	
8213	0	32648	
8214	0	32672	
8215	0	32688	
8216	0	32708	
8217	0	32712	
8218	0	32768	
8219	0	32824	
8220	0	32832	
8221	0	32808	
8222	0	32792	
8223	0	32738	
8224	0	32672	
8225	0	32592	
8226	0	32528	
8227	0	32520	
8228	0	32538	
8229	0	32576	
8230	0	32592	
8231	0	32620	
8232	0	32644	
8233	0	32682	
8234	0	32696	
8235	0	32698	
8236	0	32700	
8237	0	32680	
8238	0	32580	
8239	0	32430	
8240	0	32288	
8241	0	32152	
8242	0	32098	
8243	0	32112	
8244	0	32276	
8245	0	32552	
8246	0	32860	
8247	0	33152	
8248	0	33472	
8249	0	33780	
8250	0	34056	
8251	0	34204	
8252	0	34308	
8253	0	34528	
8254	0	34944	
8255	0	35568	
8256	0	36408	
8257	0	37460	
8258	0	38688	
8259	0	40028	
8260	0	41498	
8261	0	43140	
8262	0	44888	
8263	0	46660	
8264	0	48422	
8265	0	50252	
8266	0	52144	
8267	0	53860	
8268	0	55384	
8269	0	56540	
8270	0	57498	
8271	0	58420	
8272	0	59264	
8273	0	59920	
8274	0	59992	
8275	0	59232	
8276	0	57536	
8277	0	54824	
8278	0	51384	
8279	0	47556	
8280	0	43712	
8281	0	40108	
8282	0	36922	
8283	0	34308	
8284	0	32428	
8285	0	31144	
8286	0	30172	
8287	0	29488	
8288	0	29156	
8289	0	29008	
8290	0	29024	
8291	0	29196	
8292	0	29468	
8293	0	29702	
8294	0	29876	
8295	0	30058	
8296	0	30156	
8297	0	30244	
8298	0	30328	
8299	0	30424	
8300	0	30596	
8301	0	30756	
8302	0	30850	
8303	0	30908	
8304	0	30980	
8305	0	31040	
8306	0	31044	
8307	0	30984	
8308	0	30944	
8309	0	30888	
8310	0	30864	
8311	0	30860	
8312	0	30852	
8313	0	30832	
8314	0	30804	
8315	0	30772	
8316	0	30764	
8317	0	30780	
8318	0	30784	
8319	0	30776	
8320	0	30778	
8321	0	30768	
8322	0	30712	
8323	0	30652	
8324	0	30644	
8325	0	30656	
8326	0	30610	
8327	0	30596	
8328	0	30560	
8329	0	30580	
8330	0	30620	
8331	0	30680	
8332	0	30720	
8333	0	30752	
8334	0	30784	
8335	0	30828	
8336	0	30864	
8337	0	30888	
8338	0	30900	
8339	0	30928	
8340	0	30954	
8341	0	30940	
8342	0	30938	
8343	0	30960	
8344	0	30984	
8345	0	31002	
8346	0	30980	
8347	0	30984	
8348	0	31004	
8349	0	31034	
8350	0	31072	
8351	0	31122	
8352	0	31196	
8353	0	31240	
8354	0	31264	
8355	0	31304	
8356	0	31340	
8357	0	31378	
8358	0	31424	
8359	0	31426	
8360	0	31420	
8361	0	31440	
8362	0	31468	
8363	0	31508	
8364	0	31568	
8365	0	31652	
8366	0	31720	
8367	0	31816	
8368	0	31868	
8369	0	31888	
8370	0	31904	
8371	0	31892	
8372	0	31884	
8373	0	31872	
8374	0	31876	
8375	0	31876	
8376	0	31848	
8377	0	31792	
8378	0	31776	
8379	0	31784	
8380	0	31796	
8381	0	31844	
8382	0	31904	
8383	0	31948	
8384	0	31968	
8385	0	31976	
8386	0	32000	
8387	0	32028	
8388	0	32032	
8389	0	32002	
8390	0	31984	
8391	0	31978	
8392	0	31980	
8393	0	31996	
8394	0	32020	
8395	0	32028	
8396	0	32072	
8397	0	32104	
8398	0	32164	
8399	0	32260	
8400	0	32308	
8401	0	32360	
8402	0	32398	
8403	0	32448	
8404	0	32484	
8405	0	32500	
8406	0	32480	
8407	0	32468	
8408	0	32480	
8409	0	32526	
8410	0	32572	
8411	0	32644	
8412	0	32690	
8413	0	32740	
8414	0	32692	
8415	0	32620	
8416	0	32664	
8417	0	32720	
8418	0	32772	
8419	0	32800	
8420	0	32818	
8421	0	32820	
8422	0	32788	
8423	0	32740	
8424	0	32690	
8425	0	32702	
8426	0	32764	
8427	0	32816	
8428	0	32844	
8429	0	32828	
8430	0	32808	
8431	0	32816	
8432	0	32860	
8433	0	32908	
8434	0	32940	
8435	0	32956	
8436	0	32950	
8437	0	32928	
8438	0	32930	
8439	0	32948	
8440	0	32936	
8441	0	32936	
8442	0	32944	
8443	0	32974	
8444	0	33028	
8445	0	33060	
8446	0	33096	
8447	0	33132	
8448	0	33176	
8449	0	33208	
8450	0	33212	
8451	0	33200	
8452	0	33152	
8453	0	33108	
8454	0	33074	
8455	0	33064	
8456	0	33060	
8457	0	33072	
8458	0	33112	
8459	0	33132	
8460	0	33132	
8461	0	33158	
8462	0	33180	
8463	0	33180	
8464	0	33178	
8465	0	33206	
8466	0	33260	
8467	0	33314	
8468	0	33349	
8469	0	33380	
8470	0	33396	
8471	0	33428	
8472	0	33440	
8473	0	33450	
8474	0	33460	
8475	0	33440	
8476	0	33440	
8477	0	33436	
8478	0	33424	
8479	0	33424	
8480	0	33428	
8481	0	33448	
8482	0	33440	
8483	0	33392	
8484	0	33400	
8485	0	33428	
8486	0	33456	
8487	0	33468	
8488	0	33472	
8489	0	33476	
8490	0	33472	
8491	0	33456	
8492	0	33486	
8493	0	33492	
8494	0	33492	
8495	0	33502	
8496	0	33526	
8497	0	33524	
8498	0	33548	
8499	0	33584	
8500	0	33596	
8501	0	33620	
8502	0	33632	
8503	0	33608	
8504	0	33624	
8505	0	33628	
8506	0	33636	
8507	0	33636	
8508	0	33608	
8509	0	33602	
8510	0	33604	
8511	0	33668	
8512	0	33710	
8513	0	33744	
8514	0	33776	
8515	0	33778	
8516	0	33792	
8517	0	33760	
8518	0	33740	
8519	0	33744	
8520	0	33760	
8521	0	33764	
8522	0	33740	
8523	0	33748	
8524	0	33748	
8525	0	33760	
8526	0	33768	
8527	0	33800	
8528	0	33832	
8529	0	33824	
8530	0	33816	
8531	0	33796	
8532	0	33736	
8533	0	33680	
8534	0	33642	
8535	0	33640	
8536	0	33620	
8537	0	33588	
8538	0	33584	
8539	0	33588	
8540	0	33610	
8541	0	33648	
8542	0	33688	
8543	0	33736	
8544	0	33752	
8545	0	33772	
8546	0	33776	
8547	0	33792	
8548	0	33820	
8549	0	33856	
8550	0	33840	
8551	0	33800	
8552	0	33756	
8553	0	33736	
8554	0	33760	
8555	0	33802	
8556	0	33818	
8557	0	33826	
8558	0	33780	
8559	0	33756	
8560	0	33736	
8561	0	33716	
8562	0	33704	
8563	0	33668	
8564	0	33628	
8565	0	33572	
8566	0	33524	
8567	0	33500	
8568	0	33476	
8569	0	33452	
8570	0	33417	
8571	0	33348	
8572	0	33274	
8573	0	33168	
8574	0	33072	
8575	0	33004	
8576	0	32932	
8577	0	32872	
8578	0	32816	
8579	0	32744	
8580	0	32628	
8581	0	32552	
8582	0	32496	
8583	0	32444	
8584	0	32404	
8585	0	32344	
8586	0	32276	
8587	0	32224	
8588	0	32148	
8589	0	32064	
8590	0	31980	
8591	0	31912	
