# OpenSignals Text File Format. Version 1
# {"00:07:80:4B:15:F7": {"position": 0, "device": "biosignalsplux", "device name": "00:07:80:4B:15:F7", "device connection": "BTH00:07:80:4B:15:F7", "sampling rate": 1000, "resolution": [16], "firmware version": 775, "comments": "", "keywords": "", "mode": 0, "sync interval": 2, "date": "2023-4-27", "time": "16:32:23.28", "channels": [1], "sensor": ["ECG"], "label": ["CH1"], "column": ["nSeq", "DI", "CH1"], "special": [{"SpO2": [80, 40, 5, 4, 3, 3]}, {"SpO2": [80, 40, 5, 4, 3, 3]}, {"SpO2": [80, 40, 5, 4, 3, 3]}, {"SpO2": [80, 40, 5, 4, 3, 3]}, {"SpO2": [80, 40, 5, 4, 3, 3]}, {"SpO2": [80, 40, 5, 4, 3, 3]}, {"SpO2": [80, 40, 5, 4, 3, 3]}, {"SpO2": [80, 40, 5, 4, 3, 3]}], "digital IO": [0, 1], "sleeve color": ["green"], "convertedValues": 0}}
# EndOfHeader
0	0	33850	
1	0	33832	
2	0	33848	
3	0	33852	
4	0	33836	
5	0	33796	
6	0	33786	
7	0	33772	
8	0	33762	
9	0	33754	
10	0	33746	
11	0	33744	
12	0	33752	
13	0	33760	
14	0	33728	
15	0	33712	
16	0	33688	
17	0	33668	
18	0	33652	
19	0	33608	
20	0	33540	
21	0	33512	
22	0	33480	
23	0	33448	
24	0	33420	
25	0	33398	
26	0	33376	
27	0	33288	
28	0	33218	
29	0	33164	
30	0	33092	
31	0	33028	
32	0	32952	
33	0	32884	
34	0	32816	
35	0	32732	
36	0	32648	
37	0	32576	
38	0	32504	
39	0	32452	
40	0	32400	
41	0	32340	
42	0	32268	
43	0	32216	
44	0	32164	
45	0	32100	
46	0	32068	
47	0	32024	
48	0	31952	
49	0	31896	
50	0	31824	
51	0	31778	
52	0	31712	
53	0	31644	
54	0	31584	
55	0	31542	
56	0	31496	
57	0	31456	
58	0	31420	
59	0	31392	
60	0	31368	
61	0	31344	
62	0	31294	
63	0	31268	
64	0	31228	
65	0	31216	
66	0	31192	
67	0	31146	
68	0	31120	
69	0	31088	
70	0	31060	
71	0	31044	
72	0	31048	
73	0	31072	
74	0	31080	
75	0	31072	
76	0	31030	
77	0	31024	
78	0	31008	
79	0	30992	
80	0	30992	
81	0	30980	
82	0	30980	
83	0	30998	
84	0	31008	
85	0	31008	
86	0	31052	
87	0	31072	
88	0	31062	
89	0	31036	
90	0	31044	
91	0	31060	
92	0	31096	
93	0	31096	
94	0	31080	
95	0	31092	
96	0	31076	
97	0	31064	
98	0	31072	
99	0	31104	
100	0	31110	
101	0	31116	
102	0	31120	
103	0	31136	
104	0	31148	
105	0	31168	
106	0	31194	
107	0	31192	
108	0	31172	
109	0	31184	
110	0	31204	
111	0	31216	
112	0	31248	
113	0	31248	
114	0	31248	
115	0	31248	
116	0	31256	
117	0	31260	
118	0	31296	
119	0	31316	
120	0	31336	
121	0	31348	
122	0	31352	
123	0	31340	
124	0	31344	
125	0	31344	
126	0	31356	
127	0	31364	
128	0	31372	
129	0	31378	
130	0	31400	
131	0	31420	
132	0	31440	
133	0	31448	
134	0	31466	
135	0	31464	
136	0	31480	
137	0	31508	
138	0	31528	
139	0	31524	
140	0	31532	
141	0	31544	
142	0	31552	
143	0	31588	
144	0	31616	
145	0	31620	
146	0	31616	
147	0	31624	
148	0	31616	
149	0	31620	
150	0	31632	
151	0	31648	
152	0	31620	
153	0	31600	
154	0	31600	
155	0	31616	
156	0	31620	
157	0	31620	
158	0	31620	
159	0	31632	
160	0	31650	
161	0	31626	
162	0	31620	
163	0	31646	
164	0	31630	
165	0	31624	
166	0	31640	
167	0	31628	
168	0	31632	
169	0	31632	
170	0	31640	
171	0	31640	
172	0	31668	
173	0	31664	
174	0	31680	
175	0	31674	
176	0	31704	
177	0	31700	
178	0	31684	
179	0	31672	
180	0	31664	
181	0	31658	
182	0	31676	
183	0	31676	
184	0	31668	
185	0	31652	
186	0	31656	
187	0	31676	
188	0	31684	
189	0	31684	
190	0	31700	
191	0	31692	
192	0	31692	
193	0	31704	
194	0	31692	
195	0	31656	
196	0	31656	
197	0	31644	
198	0	31660	
199	0	31656	
200	0	31624	
201	0	31624	
202	0	31620	
203	0	31640	
204	0	31664	
205	0	31676	
206	0	31688	
207	0	31716	
208	0	31718	
209	0	31736	
210	0	31754	
211	0	31768	
212	0	31768	
213	0	31764	
214	0	31770	
215	0	31764	
216	0	31744	
217	0	31736	
218	0	31748	
219	0	31764	
220	0	31740	
221	0	31724	
222	0	31732	
223	0	31728	
224	0	31738	
225	0	31792	
226	0	31820	
227	0	31828	
228	0	31792	
229	0	31780	
230	0	31804	
231	0	31812	
232	0	31826	
233	0	31832	
234	0	31832	
235	0	31848	
236	0	31828	
237	0	31792	
238	0	31760	
239	0	31740	
240	0	31756	
241	0	31756	
242	0	31760	
243	0	31776	
244	0	31792	
245	0	31780	
246	0	31772	
247	0	31764	
248	0	31760	
249	0	31768	
250	0	31776	
251	0	31812	
252	0	31844	
253	0	31872	
254	0	31876	
255	0	31860	
256	0	31856	
257	0	31861	
258	0	31872	
259	0	31848	
260	0	31868	
261	0	31868	
262	0	31872	
263	0	31888	
264	0	31884	
265	0	31888	
266	0	31920	
267	0	31924	
268	0	31948	
269	0	31964	
270	0	31966	
271	0	31954	
272	0	31940	
273	0	31944	
274	0	31968	
275	0	31988	
276	0	31980	
277	0	31956	
278	0	31944	
279	0	31960	
280	0	31962	
281	0	31970	
282	0	31976	
283	0	31968	
284	0	31976	
285	0	31966	
286	0	31970	
287	0	31978	
288	0	31972	
289	0	31960	
290	0	31944	
291	0	31944	
292	0	31968	
293	0	31984	
294	0	31994	
295	0	32000	
296	0	32000	
297	0	32004	
298	0	32020	
299	0	32028	
300	0	32032	
301	0	32020	
302	0	32024	
303	0	32048	
304	0	32056	
305	0	32052	
306	0	32024	
307	0	32008	
308	0	31994	
309	0	32028	
310	0	32064	
311	0	32076	
312	0	32100	
313	0	32128	
314	0	32128	
315	0	32112	
316	0	32144	
317	0	32176	
318	0	32218	
319	0	32236	
320	0	32244	
321	0	32244	
322	0	32212	
323	0	32204	
324	0	32212	
325	0	32228	
326	0	32236	
327	0	32232	
328	0	32260	
329	0	32248	
330	0	32256	
331	0	32252	
332	0	32260	
333	0	32284	
334	0	32304	
335	0	32308	
336	0	32320	
337	0	32320	
338	0	32328	
339	0	32320	
340	0	32304	
341	0	32332	
342	0	32348	
343	0	32352	
344	0	32348	
345	0	32330	
346	0	32332	
347	0	32360	
348	0	32372	
349	0	32388	
350	0	32416	
351	0	32432	
352	0	32448	
353	0	32428	
354	0	32404	
355	0	32404	
356	0	32424	
357	0	32428	
358	0	32448	
359	0	32436	
360	0	32432	
361	0	32436	
362	0	32448	
363	0	32448	
364	0	32436	
365	0	32448	
366	0	32432	
367	0	32448	
368	0	32468	
369	0	32476	
370	0	32506	
371	0	32498	
372	0	32480	
373	0	32476	
374	0	32480	
375	0	32484	
376	0	32476	
377	0	32468	
378	0	32448	
379	0	32476	
380	0	32480	
381	0	32496	
382	0	32516	
383	0	32544	
384	0	32552	
385	0	32548	
386	0	32544	
387	0	32544	
388	0	32560	
389	0	32584	
390	0	32600	
391	0	32644	
392	0	32616	
393	0	32620	
394	0	32624	
395	0	32608	
396	0	32604	
397	0	32596	
398	0	32584	
399	0	32568	
400	0	32544	
401	0	32552	
402	0	32564	
403	0	32584	
404	0	32612	
405	0	32608	
406	0	32608	
407	0	32596	
408	0	32600	
409	0	32620	
410	0	32620	
411	0	32616	
412	0	32616	
413	0	32616	
414	0	32608	
415	0	32634	
416	0	32648	
417	0	32652	
418	0	32660	
419	0	32660	
420	0	32648	
421	0	32660	
422	0	32656	
423	0	32664	
424	0	32648	
425	0	32640	
426	0	32656	
427	0	32656	
428	0	32660	
429	0	32684	
430	0	32704	
431	0	32708	
432	0	32728	
433	0	32728	
434	0	32752	
435	0	32760	
436	0	32748	
437	0	32738	
438	0	32716	
439	0	32724	
440	0	32740	
441	0	32728	
442	0	32736	
443	0	32732	
444	0	32720	
445	0	32730	
446	0	32700	
447	0	32688	
448	0	32712	
449	0	32728	
450	0	32748	
451	0	32756	
452	0	32760	
453	0	32756	
454	0	32741	
455	0	32752	
456	0	32748	
457	0	32732	
458	0	32700	
459	0	32692	
460	0	32688	
461	0	32696	
462	0	32704	
463	0	32724	
464	0	32736	
465	0	32750	
466	0	32772	
467	0	32764	
468	0	32784	
469	0	32792	
470	0	32812	
471	0	32836	
472	0	32860	
473	0	32852	
474	0	32844	
475	0	32858	
476	0	32842	
477	0	32808	
478	0	32784	
479	0	32770	
480	0	32794	
481	0	32808	
482	0	32800	
483	0	32792	
484	0	32796	
485	0	32800	
486	0	32802	
487	0	32836	
488	0	32868	
489	0	32896	
490	0	32902	
491	0	32910	
492	0	32910	
493	0	32909	
494	0	32896	
495	0	32904	
496	0	32912	
497	0	32900	
498	0	32916	
499	0	32936	
500	0	32920	
501	0	32872	
502	0	32850	
503	0	32844	
504	0	32844	
505	0	32844	
506	0	32848	
507	0	32864	
508	0	32888	
509	0	32892	
510	0	32920	
511	0	32928	
512	0	32976	
513	0	33012	
514	0	33016	
515	0	32972	
516	0	32972	
517	0	32964	
518	0	32988	
519	0	33000	
520	0	33016	
521	0	33044	
522	0	33032	
523	0	33000	
524	0	33000	
525	0	33012	
526	0	32996	
527	0	32980	
528	0	33012	
529	0	33028	
530	0	33036	
531	0	33048	
532	0	33048	
533	0	33032	
534	0	33020	
535	0	33000	
536	0	32984	
537	0	32972	
538	0	32980	
539	0	32972	
540	0	32960	
541	0	32970	
542	0	32960	
543	0	32972	
544	0	33000	
545	0	33038	
546	0	33032	
547	0	33004	
548	0	32992	
549	0	32992	
550	0	32976	
551	0	32976	
552	0	32970	
553	0	32960	
554	0	32962	
555	0	32960	
556	0	32948	
557	0	32992	
558	0	33026	
559	0	33012	
560	0	32992	
561	0	32984	
562	0	32980	
563	0	32980	
564	0	32986	
565	0	33004	
566	0	33008	
567	0	33008	
568	0	33008	
569	0	33040	
570	0	33056	
571	0	33064	
572	0	33076	
573	0	33072	
574	0	33070	
575	0	33072	
576	0	33068	
577	0	33084	
578	0	33076	
579	0	33080	
580	0	33080	
581	0	33088	
582	0	33100	
583	0	33104	
584	0	33112	
585	0	33108	
586	0	33120	
587	0	33152	
588	0	33152	
589	0	33132	
590	0	33134	
591	0	33152	
592	0	33128	
593	0	33088	
594	0	33082	
595	0	33056	
596	0	33064	
597	0	33036	
598	0	33016	
599	0	32992	
600	0	32968	
601	0	32976	
602	0	32984	
603	0	33020	
604	0	33020	
605	0	33064	
606	0	33072	
607	0	33072	
608	0	33044	
609	0	33064	
610	0	33104	
611	0	33156	
612	0	33160	
613	0	33176	
614	0	33196	
615	0	33202	
616	0	33220	
617	0	33230	
618	0	33232	
619	0	33236	
620	0	33212	
621	0	33200	
622	0	33188	
623	0	33176	
624	0	33166	
625	0	33152	
626	0	33152	
627	0	33180	
628	0	33180	
629	0	33176	
630	0	33164	
631	0	33146	
632	0	33128	
633	0	33140	
634	0	33144	
635	0	33132	
636	0	33122	
637	0	33112	
638	0	33100	
639	0	33088	
640	0	33068	
641	0	33080	
642	0	33072	
643	0	33064	
644	0	33108	
645	0	33104	
646	0	33108	
647	0	33148	
648	0	33168	
649	0	33152	
650	0	33152	
651	0	33140	
652	0	33154	
653	0	33144	
654	0	33120	
655	0	33132	
656	0	33156	
657	0	33180	
658	0	33192	
659	0	33200	
660	0	33208	
661	0	33200	
662	0	33182	
663	0	33190	
664	0	33224	
665	0	33232	
666	0	33264	
667	0	33304	
668	0	33340	
669	0	33392	
670	0	33412	
671	0	33432	
672	0	33428	
673	0	33408	
674	0	33372	
675	0	33336	
676	0	33312	
677	0	33276	
678	0	33256	
679	0	33256	
680	0	33262	
681	0	33276	
682	0	33272	
683	0	33256	
684	0	33244	
685	0	33256	
686	0	33312	
687	0	33344	
688	0	33400	
689	0	33492	
690	0	33628	
691	0	33777	
692	0	33936	
693	0	34060	
694	0	34202	
695	0	34328	
696	0	34424	
697	0	34484	
698	0	34528	
699	0	34564	
700	0	34548	
701	0	34526	
702	0	34524	
703	0	34544	
704	0	34576	
705	0	34572	
706	0	34560	
707	0	34524	
708	0	34436	
709	0	34364	
710	0	34284	
711	0	34224	
712	0	34144	
713	0	34056	
714	0	33980	
715	0	33904	
716	0	33844	
717	0	33808	
718	0	33760	
719	0	33714	
720	0	33672	
721	0	33636	
722	0	33588	
723	0	33540	
724	0	33500	
725	0	33468	
726	0	33434	
727	0	33408	
728	0	33376	
729	0	33340	
730	0	33348	
731	0	33344	
732	0	33348	
733	0	33344	
734	0	33336	
735	0	33320	
736	0	33304	
737	0	33280	
738	0	33280	
739	0	33284	
740	0	33248	
741	0	33212	
742	0	33178	
743	0	33144	
744	0	33136	
745	0	33120	
746	0	33082	
747	0	33008	
748	0	32952	
749	0	32880	
750	0	32794	
751	0	32700	
752	0	32632	
753	0	32600	
754	0	32584	
755	0	32564	
756	0	32532	
757	0	32526	
758	0	32558	
759	0	32576	
760	0	32592	
761	0	32622	
762	0	32600	
763	0	32584	
764	0	32580	
765	0	32584	
766	0	32580	
767	0	32576	
768	0	32568	
769	0	32576	
770	0	32604	
771	0	32636	
772	0	32644	
773	0	32626	
774	0	32600	
775	0	32592	
776	0	32592	
777	0	32592	
778	0	32568	
779	0	32574	
780	0	32616	
781	0	32652	
782	0	32656	
783	0	32656	
784	0	32656	
785	0	32652	
786	0	32644	
787	0	32664	
788	0	32676	
789	0	32672	
790	0	32684	
791	0	32698	
792	0	32696	
793	0	32696	
794	0	32682	
795	0	32664	
796	0	32640	
797	0	32616	
798	0	32612	
799	0	32624	
800	0	32612	
801	0	32608	
802	0	32612	
803	0	32620	
804	0	32634	
805	0	32636	
806	0	32656	
807	0	32672	
808	0	32656	
809	0	32676	
810	0	32640	
811	0	32632	
812	0	32640	
813	0	32668	
814	0	32704	
815	0	32752	
816	0	32804	
817	0	32880	
818	0	32940	
819	0	32984	
820	0	32968	
821	0	32916	
822	0	32844	
823	0	32736	
824	0	32592	
825	0	32456	
826	0	32324	
827	0	32208	
828	0	32176	
829	0	32314	
830	0	32576	
831	0	32856	
832	0	33160	
833	0	33512	
834	0	33832	
835	0	34156	
836	0	34368	
837	0	34508	
838	0	34752	
839	0	35124	
840	0	35728	
841	0	36520	
842	0	37484	
843	0	38608	
844	0	39888	
845	0	41280	
846	0	42792	
847	0	44408	
848	0	46048	
849	0	47768	
850	0	49524	
851	0	51208	
852	0	52728	
853	0	54040	
854	0	55120	
855	0	56008	
856	0	57032	
857	0	57960	
858	0	58560	
859	0	58620	
860	0	57732	
861	0	55664	
862	0	52776	
863	0	49296	
864	0	45538	
865	0	41904	
866	0	38604	
867	0	35932	
868	0	34012	
869	0	32704	
870	0	31808	
871	0	31268	
872	0	30908	
873	0	30608	
874	0	30432	
875	0	30368	
876	0	30392	
877	0	30444	
878	0	30516	
879	0	30572	
880	0	30596	
881	0	30636	
882	0	30640	
883	0	30688	
884	0	30788	
885	0	30936	
886	0	31028	
887	0	31072	
888	0	31044	
889	0	31028	
890	0	31036	
891	0	31020	
892	0	31000	
893	0	30968	
894	0	30944	
895	0	30896	
896	0	30832	
897	0	30760	
898	0	30692	
899	0	30656	
900	0	30624	
901	0	30608	
902	0	30592	
903	0	30576	
904	0	30560	
905	0	30572	
906	0	30572	
907	0	30566	
908	0	30568	
909	0	30556	
910	0	30552	
911	0	30564	
912	0	30592	
913	0	30600	
914	0	30584	
915	0	30576	
916	0	30586	
917	0	30660	
918	0	30726	
919	0	30776	
920	0	30800	
921	0	30846	
922	0	30900	
923	0	30932	
924	0	30944	
925	0	30964	
926	0	31000	
927	0	31018	
928	0	31020	
929	0	31040	
930	0	31092	
931	0	31120	
932	0	31164	
933	0	31216	
934	0	31244	
935	0	31248	
936	0	31228	
937	0	31248	
938	0	31216	
939	0	31224	
940	0	31264	
941	0	31324	
942	0	31342	
943	0	31364	
944	0	31392	
945	0	31432	
946	0	31468	
947	0	31500	
948	0	31524	
949	0	31544	
950	0	31552	
951	0	31572	
952	0	31600	
953	0	31592	
954	0	31620	
955	0	31656	
956	0	31684	
957	0	31692	
958	0	31688	
959	0	31676	
960	0	31660	
961	0	31682	
962	0	31712	
963	0	31724	
964	0	31752	
965	0	31800	
966	0	31848	
967	0	31888	
968	0	31916	
969	0	31948	
970	0	31980	
971	0	32004	
972	0	32044	
973	0	32080	
974	0	32104	
975	0	32136	
976	0	32152	
977	0	32172	
978	0	32200	
979	0	32224	
980	0	32288	
981	0	32320	
982	0	32316	
983	0	32320	
984	0	32324	
985	0	32340	
986	0	32376	
987	0	32378	
988	0	32360	
989	0	32384	
990	0	32436	
991	0	32468	
992	0	32514	
993	0	32536	
994	0	32536	
995	0	32522	
996	0	32500	
997	0	32528	
998	0	32558	
999	0	32580	
1000	0	32620	
1001	0	32620	
1002	0	32624	
1003	0	32652	
1004	0	32668	
1005	0	32684	
1006	0	32704	
1007	0	32742	
1008	0	32792	
1009	0	32824	
1010	0	32844	
1011	0	32824	
1012	0	32836	
1013	0	32878	
1014	0	32888	
1015	0	32864	
1016	0	32832	
1017	0	32812	
1018	0	32808	
1019	0	32836	
1020	0	32876	
1021	0	32900	
1022	0	32904	
1023	0	32918	
1024	0	32948	
1025	0	33016	
1026	0	33040	
1027	0	33068	
1028	0	33080	
1029	0	33088	
1030	0	33120	
1031	0	33148	
1032	0	33168	
1033	0	33192	
1034	0	33192	
1035	0	33200	
1036	0	33212	
1037	0	33224	
1038	0	33236	
1039	0	33242	
1040	0	33216	
1041	0	33216	
1042	0	33220	
1043	0	33272	
1044	0	33312	
1045	0	33356	
1046	0	33364	
1047	0	33396	
1048	0	33396	
1049	0	33396	
1050	0	33378	
1051	0	33404	
1052	0	33440	
1053	0	33464	
1054	0	33448	
1055	0	33424	
1056	0	33432	
1057	0	33406	
1058	0	33424	
1059	0	33452	
1060	0	33476	
1061	0	33476	
1062	0	33496	
1063	0	33480	
1064	0	33436	
1065	0	33420	
1066	0	33408	
1067	0	33388	
1068	0	33400	
1069	0	33384	
1070	0	33392	
1071	0	33404	
1072	0	33436	
1073	0	33472	
1074	0	33502	
1075	0	33540	
1076	0	33578	
1077	0	33632	
1078	0	33676	
1079	0	33724	
1080	0	33760	
1081	0	33776	
1082	0	33808	
1083	0	33816	
1084	0	33818	
1085	0	33798	
1086	0	33772	
1087	0	33788	
1088	0	33824	
1089	0	33856	
1090	0	33904	
1091	0	33912	
1092	0	33904	
1093	0	33908	
1094	0	33876	
1095	0	33864	
1096	0	33856	
1097	0	33834	
1098	0	33788	
1099	0	33748	
1100	0	33782	
1101	0	33832	
1102	0	33856	
1103	0	33880	
1104	0	33882	
1105	0	33888	
1106	0	33914	
1107	0	33944	
1108	0	33960	
1109	0	33988	
1110	0	33996	
1111	0	33956	
1112	0	33968	
1113	0	33952	
1114	0	33944	
1115	0	33928	
1116	0	33912	
1117	0	33904	
1118	0	33888	
1119	0	33904	
1120	0	33922	
1121	0	33902	
1122	0	33892	
1123	0	33872	
1124	0	33888	
1125	0	33924	
1126	0	33920	
1127	0	33912	
1128	0	33928	
1129	0	33956	
1130	0	33956	
1131	0	33952	
1132	0	33966	
1133	0	33964	
1134	0	33944	
1135	0	33952	
1136	0	33964	
1137	0	33968	
1138	0	33960	
1139	0	33944	
1140	0	33956	
1141	0	33968	
1142	0	33984	
1143	0	33992	
1144	0	33964	
1145	0	33956	
1146	0	33920	
1147	0	33888	
1148	0	33904	
1149	0	33912	
1150	0	33898	
1151	0	33890	
1152	0	33852	
1153	0	33852	
1154	0	33840	
1155	0	33812	
1156	0	33740	
1157	0	33656	
1158	0	33600	
1159	0	33528	
1160	0	33428	
1161	0	33340	
1162	0	33260	
1163	0	33192	
1164	0	33144	
1165	0	33116	
1166	0	33084	
1167	0	33064	
1168	0	33040	
1169	0	33024	
1170	0	33000	
1171	0	32996	
1172	0	32952	
1173	0	32872	
1174	0	32768	
1175	0	32660	
1176	0	32532	
1177	0	32432	
1178	0	32360	
1179	0	32276	
1180	0	32226	
1181	0	32180	
1182	0	32100	
1183	0	32034	
1184	0	31992	
1185	0	31960	
1186	0	31912	
1187	0	31832	
1188	0	31756	
1189	0	31728	
1190	0	31684	
1191	0	31636	
1192	0	31604	
1193	0	31576	
1194	0	31528	
1195	0	31456	
1196	0	31392	
1197	0	31336	
1198	0	31296	
1199	0	31236	
1200	0	31172	
1201	0	31134	
1202	0	31090	
1203	0	31060	
1204	0	31044	
1205	0	31020	
1206	0	30984	
1207	0	30928	
1208	0	30888	
1209	0	30858	
1210	0	30844	
1211	0	30828	
1212	0	30808	
1213	0	30820	
1214	0	30840	
1215	0	30832	
1216	0	30846	
1217	0	30842	
1218	0	30840	
1219	0	30832	
1220	0	30848	
1221	0	30852	
1222	0	30828	
1223	0	30836	
1224	0	30848	
1225	0	30856	
1226	0	30856	
1227	0	30870	
1228	0	30892	
1229	0	30920	
1230	0	30928	
1231	0	30952	
1232	0	30984	
1233	0	31008	
1234	0	31016	
1235	0	31002	
1236	0	30988	
1237	0	30972	
1238	0	30952	
1239	0	30936	
1240	0	30908	
1241	0	30916	
1242	0	30980	
1243	0	31044	
1244	0	31056	
1245	0	31100	
1246	0	31160	
1247	0	31204	
1248	0	31212	
1249	0	31212	
1250	0	31248	
1251	0	31272	
1252	0	31284	
1253	0	31296	
1254	0	31300	
1255	0	31306	
1256	0	31348	
1257	0	31368	
1258	0	31392	
1259	0	31436	
1260	0	31464	
1261	0	31466	
1262	0	31452	
1263	0	31460	
1264	0	31476	
1265	0	31520	
1266	0	31546	
1267	0	31552	
1268	0	31550	
1269	0	31548	
1270	0	31566	
1271	0	31584	
1272	0	31592	
1273	0	31606	
1274	0	31596	
1275	0	31604	
1276	0	31608	
1277	0	31620	
1278	0	31624	
1279	0	31616	
1280	0	31632	
1281	0	31644	
1282	0	31640	
1283	0	31604	
1284	0	31592	
1285	0	31604	
1286	0	31604	
1287	0	31616	
1288	0	31604	
1289	0	31612	
1290	0	31632	
1291	0	31672	
1292	0	31700	
1293	0	31708	
1294	0	31680	
1295	0	31652	
1296	0	31621	
1297	0	31612	
1298	0	31616	
1299	0	31644	
1300	0	31668	
1301	0	31692	
1302	0	31684	
1303	0	31664	
1304	0	31680	
1305	0	31708	
1306	0	31700	
1307	0	31700	
1308	0	31704	
1309	0	31720	
1310	0	31732	
1311	0	31732	
1312	0	31740	
1313	0	31772	
1314	0	31786	
1315	0	31776	
1316	0	31736	
1317	0	31690	
1318	0	31680	
1319	0	31676	
1320	0	31712	
1321	0	31716	
1322	0	31704	
1323	0	31698	
1324	0	31676	
1325	0	31656	
1326	0	31664	
1327	0	31644	
1328	0	31628	
1329	0	31652	
1330	0	31648	
1331	0	31688	
1332	0	31724	
1333	0	31748	
1334	0	31744	
1335	0	31752	
1336	0	31802	
1337	0	31840	
1338	0	31824	
1339	0	31848	
1340	0	31880	
1341	0	31872	
1342	0	31856	
1343	0	31866	
1344	0	31868	
1345	0	31856	
1346	0	31816	
1347	0	31732	
1348	0	31624	
1349	0	31592	
1350	0	31582	
1351	0	31588	
1352	0	31612	
1353	0	31584	
1354	0	31592	
1355	0	31608	
1356	0	31632	
1357	0	31660	
1358	0	31656	
1359	0	31652	
1360	0	31652	
1361	0	31644	
1362	0	31632	
1363	0	31632	
1364	0	31644	
1365	0	31648	
1366	0	31680	
1367	0	31708	
1368	0	31732	
1369	0	31744	
1370	0	31784	
1371	0	31832	
1372	0	31848	
1373	0	31872	
1374	0	31912	
1375	0	31928	
1376	0	31916	
1377	0	31908	
1378	0	31896	
1379	0	31892	
1380	0	31848	
1381	0	31820	
1382	0	31804	
1383	0	31788	
1384	0	31786	
1385	0	31798	
1386	0	31792	
1387	0	31776	
1388	0	31722	
1389	0	31724	
1390	0	31720	
1391	0	31720	
1392	0	31748	
1393	0	31816	
1394	0	31868	
1395	0	31896	
1396	0	31900	
1397	0	31892	
1398	0	31920	
1399	0	31932	
1400	0	31968	
1401	0	31972	
1402	0	31960	
1403	0	31960	
1404	0	31956	
1405	0	31916	
1406	0	31896	
1407	0	31844	
1408	0	31844	
1409	0	31860	
1410	0	31876	
1411	0	31872	
1412	0	31900	
1413	0	31936	
1414	0	31976	
1415	0	31968	
1416	0	31952	
1417	0	31964	
1418	0	31972	
1419	0	31984	
1420	0	31988	
1421	0	32004	
1422	0	32008	
1423	0	32020	
1424	0	32052	
1425	0	32094	
1426	0	32132	
1427	0	32184	
1428	0	32180	
1429	0	32188	
1430	0	32208	
1431	0	32188	
1432	0	32168	
1433	0	32204	
1434	0	32204	
1435	0	32184	
1436	0	32182	
1437	0	32188	
1438	0	32208	
1439	0	32240	
1440	0	32236	
1441	0	32192	
1442	0	32164	
1443	0	32134	
1444	0	32130	
1445	0	32144	
1446	0	32156	
1447	0	32172	
1448	0	32172	
1449	0	32176	
1450	0	32224	
1451	0	32268	
1452	0	32272	
1453	0	32264	
1454	0	32216	
1455	0	32168	
1456	0	32146	
1457	0	32126	
1458	0	32064	
1459	0	32040	
1460	0	32016	
1461	0	32076	
1462	0	32132	
1463	0	32184	
1464	0	32234	
1465	0	32264	
1466	0	32288	
1467	0	32320	
1468	0	32308	
1469	0	32280	
1470	0	32264	
1471	0	32248	
1472	0	32256	
1473	0	32316	
1474	0	32356	
1475	0	32372	
1476	0	32412	
1477	0	32428	
1478	0	32440	
1479	0	32400	
1480	0	32372	
1481	0	32332	
1482	0	32316	
1483	0	32320	
1484	0	32340	
1485	0	32352	
1486	0	32324	
1487	0	32292	
1488	0	32308	
1489	0	32314	
1490	0	32284	
1491	0	32276	
1492	0	32288	
1493	0	32324	
1494	0	32324	
1495	0	32294	
1496	0	32300	
1497	0	32320	
1498	0	32344	
1499	0	32352	
1500	0	32364	
1501	0	32380	
1502	0	32392	
1503	0	32428	
1504	0	32472	
1505	0	32504	
1506	0	32464	
1507	0	32440	
1508	0	32444	
1509	0	32456	
1510	0	32496	
1511	0	32544	
1512	0	32542	
1513	0	32554	
1514	0	32540	
1515	0	32560	
1516	0	32560	
1517	0	32560	
1518	0	32536	
1519	0	32516	
1520	0	32524	
1521	0	32508	
1522	0	32484	
1523	0	32464	
1524	0	32468	
1525	0	32482	
1526	0	32488	
1527	0	32508	
1528	0	32544	
1529	0	32552	
1530	0	32544	
1531	0	32532	
1532	0	32528	
1533	0	32512	
1534	0	32518	
1535	0	32542	
1536	0	32540	
1537	0	32536	
1538	0	32560	
1539	0	32600	
1540	0	32628	
1541	0	32632	
1542	0	32632	
1543	0	32624	
1544	0	32648	
1545	0	32660	
1546	0	32676	
1547	0	32680	
1548	0	32676	
1549	0	32656	
1550	0	32656	
1551	0	32688	
1552	0	32692	
1553	0	32680	
1554	0	32640	
1555	0	32628	
1556	0	32596	
1557	0	32608	
1558	0	32640	
1559	0	32644	
1560	0	32676	
1561	0	32692	
1562	0	32706	
1563	0	32692	
1564	0	32696	
1565	0	32744	
1566	0	32744	
1567	0	32768	
1568	0	32732	
1569	0	32696	
1570	0	32688	
1571	0	32704	
1572	0	32736	
1573	0	32768	
1574	0	32775	
1575	0	32792	
1576	0	32784	
1577	0	32764	
1578	0	32752	
1579	0	32772	
1580	0	32752	
1581	0	32716	
1582	0	32716	
1583	0	32696	
1584	0	32708	
1585	0	32716	
1586	0	32696	
1587	0	32706	
1588	0	32712	
1589	0	32744	
1590	0	32748	
1591	0	32740	
1592	0	32744	
1593	0	32716	
1594	0	32692	
1595	0	32676	
1596	0	32656	
1597	0	32656	
1598	0	32706	
1599	0	32712	
1600	0	32720	
1601	0	32704	
1602	0	32736	
1603	0	32760	
1604	0	32782	
1605	0	32820	
1606	0	32852	
1607	0	32849	
1608	0	32852	
1609	0	32880	
1610	0	32874	
1611	0	32872	
1612	0	32872	
1613	0	32876	
1614	0	32864	
1615	0	32856	
1616	0	32892	
1617	0	32902	
1618	0	32876	
1619	0	32852	
1620	0	32826	
1621	0	32828	
1622	0	32856	
1623	0	32892	
1624	0	32928	
1625	0	32948	
1626	0	32992	
1627	0	33006	
1628	0	32988	
1629	0	32988	
1630	0	32988	
1631	0	33004	
1632	0	32980	
1633	0	32956	
1634	0	32932	
1635	0	32888	
1636	0	32848	
1637	0	32844	
1638	0	32832	
1639	0	32824	
1640	0	32816	
1641	0	32784	
1642	0	32764	
1643	0	32764	
1644	0	32802	
1645	0	32840	
1646	0	32872	
1647	0	32884	
1648	0	32888	
1649	0	32878	
1650	0	32834	
1651	0	32856	
1652	0	32880	
1653	0	32924	
1654	0	32944	
1655	0	32960	
1656	0	32972	
1657	0	33020	
1658	0	33036	
1659	0	33040	
1660	0	32988	
1661	0	32940	
1662	0	32930	
1663	0	32940	
1664	0	32926	
1665	0	32900	
1666	0	32840	
1667	0	32818	
1668	0	32816	
1669	0	32836	
1670	0	32872	
1671	0	32880	
1672	0	32888	
1673	0	32896	
1674	0	32920	
1675	0	32932	
1676	0	32952	
1677	0	32972	
1678	0	32972	
1679	0	32980	
1680	0	32980	
1681	0	32980	
1682	0	32996	
1683	0	33004	
1684	0	33032	
1685	0	33068	
1686	0	33108	
1687	0	33112	
1688	0	33100	
1689	0	33136	
1690	0	33152	
1691	0	33168	
1692	0	33210	
1693	0	33248	
1694	0	33284	
1695	0	33340	
1696	0	33392	
1697	0	33376	
1698	0	33288	
1699	0	33202	
1700	0	33120	
1701	0	33052	
1702	0	33040	
1703	0	33074	
1704	0	33120	
1705	0	33120	
1706	0	33104	
1707	0	33160	
1708	0	33208	
1709	0	33248	
1710	0	33296	
1711	0	33352	
1712	0	33460	
1713	0	33568	
1714	0	33696	
1715	0	33836	
1716	0	33976	
1717	0	34104	
1718	0	34208	
1719	0	34324	
1720	0	34392	
1721	0	34412	
1722	0	34432	
1723	0	34468	
1724	0	34484	
1725	0	34492	
1726	0	34484	
1727	0	34512	
1728	0	34540	
1729	0	34544	
1730	0	34524	
1731	0	34512	
1732	0	34440	
1733	0	34386	
1734	0	34316	
1735	0	34228	
1736	0	34120	
1737	0	34028	
1738	0	33888	
1739	0	33762	
1740	0	33654	
1741	0	33564	
1742	0	33492	
1743	0	33468	
1744	0	33432	
1745	0	33388	
1746	0	33360	
1747	0	33320	
1748	0	33308	
1749	0	33316	
1750	0	33316	
1751	0	33292	
1752	0	33244	
1753	0	33196	
1754	0	33132	
1755	0	33124	
1756	0	33142	
1757	0	33166	
1758	0	33136	
1759	0	33080	
1760	0	33032	
1761	0	33024	
1762	0	32956	
1763	0	32888	
1764	0	32816	
1765	0	32800	
1766	0	32812	
1767	0	32808	
1768	0	32800	
1769	0	32736	
1770	0	32672	
1771	0	32608	
1772	0	32552	
1773	0	32504	
1774	0	32452	
1775	0	32420	
1776	0	32408	
1777	0	32388	
1778	0	32388	
1779	0	32408	
1780	0	32436	
1781	0	32428	
1782	0	32436	
1783	0	32444	
1784	0	32436	
1785	0	32406	
1786	0	32440	
1787	0	32488	
1788	0	32516	
1789	0	32540	
1790	0	32548	
1791	0	32560	
1792	0	32564	
1793	0	32564	
1794	0	32568	
1795	0	32572	
1796	0	32556	
1797	0	32524	
1798	0	32480	
1799	0	32436	
1800	0	32420	
1801	0	32420	
1802	0	32416	
1803	0	32456	
1804	0	32494	
1805	0	32512	
1806	0	32520	
1807	0	32536	
1808	0	32580	
1809	0	32588	
1810	0	32570	
1811	0	32540	
1812	0	32500	
1813	0	32504	
1814	0	32524	
1815	0	32560	
1816	0	32578	
1817	0	32616	
1818	0	32648	
1819	0	32668	
1820	0	32656	
1821	0	32608	
1822	0	32564	
1823	0	32556	
1824	0	32536	
1825	0	32528	
1826	0	32512	
1827	0	32544	
1828	0	32568	
1829	0	32588	
1830	0	32568	
1831	0	32560	
1832	0	32540	
1833	0	32540	
1834	0	32556	
1835	0	32568	
1836	0	32600	
1837	0	32640	
1838	0	32684	
1839	0	32712	
1840	0	32740	
1841	0	32780	
1842	0	32820	
1843	0	32824	
1844	0	32792	
1845	0	32708	
1846	0	32588	
1847	0	32420	
1848	0	32260	
1849	0	32112	
1850	0	32028	
1851	0	32060	
1852	0	32240	
1853	0	32500	
1854	0	32788	
1855	0	33100	
1856	0	33466	
1857	0	33808	
1858	0	34112	
1859	0	34256	
1860	0	34330	
1861	0	34584	
1862	0	35056	
1863	0	35760	
1864	0	36688	
1865	0	37828	
1866	0	39088	
1867	0	40480	
1868	0	41992	
1869	0	43680	
1870	0	45432	
1871	0	47200	
1872	0	48968	
1873	0	50840	
1874	0	52720	
1875	0	54456	
1876	0	55968	
1877	0	57140	
1878	0	58148	
1879	0	59080	
1880	0	59880	
1881	0	60416	
1882	0	60304	
1883	0	59288	
1884	0	57392	
1885	0	54468	
1886	0	50940	
1887	0	47060	
1888	0	43168	
1889	0	39544	
1890	0	36376	
1891	0	33788	
1892	0	31936	
1893	0	30656	
1894	0	29716	
1895	0	29036	
1896	0	28696	
1897	0	28554	
1898	0	28600	
1899	0	28872	
1900	0	29240	
1901	0	29596	
1902	0	29880	
1903	0	30104	
1904	0	30208	
1905	0	30276	
1906	0	30286	
1907	0	30324	
1908	0	30380	
1909	0	30456	
1910	0	30532	
1911	0	30576	
1912	0	30580	
1913	0	30576	
1914	0	30592	
1915	0	30638	
1916	0	30652	
1917	0	30664	
1918	0	30658	
1919	0	30620	
1920	0	30584	
1921	0	30568	
1922	0	30580	
1923	0	30604	
1924	0	30596	
1925	0	30592	
1926	0	30576	
1927	0	30576	
1928	0	30572	
1929	0	30548	
1930	0	30528	
1931	0	30528	
1932	0	30524	
1933	0	30528	
1934	0	30498	
1935	0	30496	
1936	0	30476	
1937	0	30472	
1938	0	30512	
1939	0	30556	
1940	0	30600	
1941	0	30584	
1942	0	30592	
1943	0	30616	
1944	0	30616	
1945	0	30632	
1946	0	30648	
1947	0	30664	
1948	0	30664	
1949	0	30652	
1950	0	30668	
1951	0	30692	
1952	0	30722	
1953	0	30728	
1954	0	30732	
1955	0	30760	
1956	0	30804	
1957	0	30850	
1958	0	30892	
1959	0	30948	
1960	0	31008	
1961	0	31052	
1962	0	31060	
1963	0	31088	
1964	0	31144	
1965	0	31200	
1966	0	31276	
1967	0	31358	
1968	0	31394	
1969	0	31412	
1970	0	31444	
1971	0	31460	
1972	0	31450	
1973	0	31464	
1974	0	31488	
1975	0	31480	
1976	0	31488	
1977	0	31524	
1978	0	31528	
1979	0	31560	
1980	0	31610	
1981	0	31652	
1982	0	31672	
1983	0	31704	
1984	0	31704	
1985	0	31692	
1986	0	31712	
1987	0	31760	
1988	0	31812	
1989	0	31854	
1990	0	31854	
1991	0	31884	
1992	0	31896	
1993	0	31912	
1994	0	31908	
1995	0	31902	
1996	0	31900	
1997	0	31930	
1998	0	31952	
1999	0	31948	
2000	0	31960	
2001	0	31972	
2002	0	31956	
2003	0	31984	
2004	0	32032	
2005	0	32104	
2006	0	32184	
2007	0	32244	
2008	0	32266	
2009	0	32268	
2010	0	32324	
2011	0	32352	
2012	0	32408	
2013	0	32428	
2014	0	32456	
2015	0	32468	
2016	0	32468	
2017	0	32464	
2018	0	32472	
2019	0	32470	
2020	0	32474	
2021	0	32476	
2022	0	32498	
2023	0	32504	
2024	0	32532	
2025	0	32556	
2026	0	32568	
2027	0	32600	
2028	0	32636	
2029	0	32696	
2030	0	32728	
2031	0	32736	
2032	0	32736	
2033	0	32736	
2034	0	32716	
2035	0	32712	
2036	0	32692	
2037	0	32676	
2038	0	32696	
2039	0	32712	
2040	0	32724	
2041	0	32752	
2042	0	32768	
2043	0	32800	
2044	0	32812	
2045	0	32840	
2046	0	32892	
2047	0	32928	
2048	0	32960	
2049	0	32968	
2050	0	32972	
2051	0	32972	
2052	0	32984	
2053	0	32976	
2054	0	32960	
2055	0	32972	
2056	0	33000	
2057	0	33024	
2058	0	33036	
2059	0	33044	
2060	0	33060	
2061	0	33088	
2062	0	33112	
2063	0	33150	
2064	0	33168	
2065	0	33160	
2066	0	33152	
2067	0	33124	
2068	0	33148	
2069	0	33148	
2070	0	33136	
2071	0	33144	
2072	0	33156	
2073	0	33200	
2074	0	33236	
2075	0	33240	
2076	0	33246	
2077	0	33260	
2078	0	33288	
2079	0	33304	
2080	0	33304	
2081	0	33290	
2082	0	33280	
2083	0	33292	
2084	0	33308	
2085	0	33376	
2086	0	33392	
2087	0	33396	
2088	0	33352	
2089	0	33368	
2090	0	33386	
2091	0	33396	
2092	0	33420	
2093	0	33464	
2094	0	33500	
2095	0	33508	
2096	0	33528	
2097	0	33512	
2098	0	33496	
2099	0	33484	
2100	0	33474	
2101	0	33460	
2102	0	33460	
2103	0	33464	
2104	0	33472	
2105	0	33500	
2106	0	33506	
2107	0	33536	
2108	0	33562	
2109	0	33588	
2110	0	33588	
2111	0	33612	
2112	0	33648	
2113	0	33676	
2114	0	33688	
2115	0	33700	
2116	0	33732	
2117	0	33744	
2118	0	33748	
2119	0	33712	
2120	0	33712	
2121	0	33728	
2122	0	33704	
2123	0	33704	
2124	0	33696	
2125	0	33728	
2126	0	33772	
2127	0	33812	
2128	0	33844	
2129	0	33856	
2130	0	33864	
2131	0	33884	
2132	0	33876	
2133	0	33848	
2134	0	33840	
2135	0	33850	
2136	0	33828	
2137	0	33794	
2138	0	33792	
2139	0	33788	
2140	0	33772	
2141	0	33768	
2142	0	33752	
2143	0	33748	
2144	0	33740	
2145	0	33784	
2146	0	33816	
2147	0	33844	
2148	0	33888	
2149	0	33908	
2150	0	33964	
2151	0	34008	
2152	0	34024	
2153	0	34000	
2154	0	33984	
2155	0	33996	
2156	0	34008	
2157	0	33988	
2158	0	33968	
2159	0	33960	
2160	0	33952	
2161	0	33940	
2162	0	33920	
2163	0	33904	
2164	0	33896	
2165	0	33878	
2166	0	33880	
2167	0	33880	
2168	0	33864	
2169	0	33838	
2170	0	33792	
2171	0	33728	
2172	0	33692	
2173	0	33662	
2174	0	33600	
2175	0	33556	
2176	0	33498	
2177	0	33464	
2178	0	33412	
2179	0	33376	
2180	0	33320	
2181	0	33240	
2182	0	33180	
2183	0	33082	
2184	0	33000	
2185	0	32940	
2186	0	32856	
2187	0	32764	
2188	0	32696	
2189	0	32624	
2190	0	32552	
2191	0	32476	
2192	0	32420	
2193	0	32348	
2194	0	32264	
2195	0	32164	
2196	0	32076	
2197	0	32000	
2198	0	31916	
2199	0	31848	
2200	0	31780	
2201	0	31728	
2202	0	31688	
2203	0	31608	
2204	0	31552	
2205	0	31512	
2206	0	31484	
2207	0	31420	
2208	0	31352	
2209	0	31288	
2210	0	31228	
2211	0	31164	
2212	0	31104	
2213	0	31032	
2214	0	30948	
2215	0	30884	
2216	0	30844	
2217	0	30812	
2218	0	30764	
2219	0	30728	
2220	0	30664	
2221	0	30624	
2222	0	30576	
2223	0	30548	
2224	0	30530	
2225	0	30504	
2226	0	30484	
2227	0	30448	
2228	0	30396	
2229	0	30340	
2230	0	30316	
2231	0	30288	
2232	0	30276	
2233	0	30260	
2234	0	30248	
2235	0	30232	
2236	0	30220	
2237	0	30220	
2238	0	30240	
2239	0	30244	
2240	0	30248	
2241	0	30260	
2242	0	30276	
2243	0	30280	
2244	0	30300	
2245	0	30320	
2246	0	30356	
2247	0	30356	
2248	0	30342	
2249	0	30348	
2250	0	30370	
2251	0	30392	
2252	0	30408	
2253	0	30440	
2254	0	30440	
2255	0	30432	
2256	0	30440	
2257	0	30456	
2258	0	30496	
2259	0	30514	
2260	0	30512	
2261	0	30520	
2262	0	30560	
2263	0	30616	
2264	0	30676	
2265	0	30696	
2266	0	30700	
2267	0	30712	
2268	0	30746	
2269	0	30808	
2270	0	30842	
2271	0	30880	
2272	0	30904	
2273	0	30930	
2274	0	30948	
2275	0	30984	
2276	0	31008	
2277	0	31000	
2278	0	30988	
2279	0	30970	
2280	0	30964	
2281	0	30972	
2282	0	30984	
2283	0	30996	
2284	0	31022	
2285	0	31044	
2286	0	31062	
2287	0	31100	
2288	0	31126	
2289	0	31160	
2290	0	31204	
2291	0	31217	
2292	0	31230	
2293	0	31228	
2294	0	31224	
2295	0	31236	
2296	0	31220	
2297	0	31200	
2298	0	31200	
2299	0	31196	
2300	0	31176	
2301	0	31156	
2302	0	31156	
2303	0	31160	
2304	0	31168	
2305	0	31202	
2306	0	31276	
2307	0	31324	
2308	0	31352	
2309	0	31352	
2310	0	31388	
2311	0	31398	
2312	0	31408	
2313	0	31396	
2314	0	31402	
2315	0	31418	
2316	0	31420	
2317	0	31448	
2318	0	31464	
2319	0	31456	
2320	0	31452	
2321	0	31448	
2322	0	31444	
2323	0	31468	
2324	0	31488	
2325	0	31496	
2326	0	31492	
2327	0	31504	
2328	0	31516	
2329	0	31524	
2330	0	31544	
2331	0	31552	
2332	0	31556	
2333	0	31544	
2334	0	31532	
2335	0	31548	
2336	0	31560	
2337	0	31530	
2338	0	31502	
2339	0	31470	
2340	0	31460	
2341	0	31476	
2342	0	31492	
2343	0	31476	
2344	0	31460	
2345	0	31480	
2346	0	31482	
2347	0	31448	
2348	0	31436	
2349	0	31450	
2350	0	31464	
2351	0	31470	
2352	0	31464	
2353	0	31468	
2354	0	31476	
2355	0	31468	
2356	0	31440	
2357	0	31412	
2358	0	31392	
2359	0	31406	
2360	0	31424	
2361	0	31456	
2362	0	31488	
2363	0	31496	
2364	0	31520	
2365	0	31524	
2366	0	31514	
2367	0	31506	
2368	0	31480	
2369	0	31488	
2370	0	31492	
2371	0	31504	
2372	0	31536	
2373	0	31560	
2374	0	31584	
2375	0	31596	
2376	0	31576	
2377	0	31524	
2378	0	31500	
2379	0	31466	
2380	0	31432	
2381	0	31452	
2382	0	31452	
2383	0	31456	
2384	0	31460	
2385	0	31496	
2386	0	31500	
2387	0	31492	
2388	0	31500	
2389	0	31512	
2390	0	31530	
2391	0	31542	
2392	0	31546	
2393	0	31528	
2394	0	31508	
2395	0	31512	
2396	0	31514	
2397	0	31520	
2398	0	31512	
2399	0	31504	
2400	0	31532	
2401	0	31552	
2402	0	31576	
2403	0	31556	
2404	0	31554	
2405	0	31566	
2406	0	31589	
2407	0	31616	
2408	0	31612	
2409	0	31630	
2410	0	31638	
2411	0	31640	
2412	0	31608	
2413	0	31596	
2414	0	31596	
2415	0	31598	
2416	0	31568	
2417	0	31584	
2418	0	31600	
2419	0	31592	
2420	0	31612	
2421	0	31630	
2422	0	31608	
2423	0	31580	
2424	0	31600	
2425	0	31612	
2426	0	31624	
2427	0	31640	
2428	0	31688	
2429	0	31714	
2430	0	31744	
2431	0	31744	
2432	0	31720	
2433	0	31728	
2434	0	31726	
2435	0	31732	
2436	0	31732	
2437	0	31720	
2438	0	31700	
2439	0	31692	
2440	0	31684	
2441	0	31694	
2442	0	31680	
2443	0	31712	
2444	0	31732	
2445	0	31756	
2446	0	31804	
2447	0	31840	
2448	0	31900	
2449	0	31932	
2450	0	31920	
2451	0	31912	
2452	0	31916	
2453	0	31944	
2454	0	31932	
2455	0	31928	
2456	0	31904	
2457	0	31900	
2458	0	31884	
2459	0	31880	
2460	0	31906	
2461	0	31912	
2462	0	31928	
2463	0	31936	
2464	0	31956	
2465	0	31980	
2466	0	31980	
2467	0	31968	
2468	0	31952	
2469	0	31952	
2470	0	31964	
2471	0	32000	
2472	0	32000	
2473	0	31996	
2474	0	32026	
2475	0	32060	
2476	0	32104	
2477	0	32104	
2478	0	32100	
2479	0	32084	
2480	0	32068	
2481	0	32062	
2482	0	32078	
2483	0	32076	
2484	0	32104	
2485	0	32088	
2486	0	32080	
2487	0	32080	
2488	0	32096	
2489	0	32100	
2490	0	32120	
2491	0	32150	
2492	0	32164	
2493	0	32160	
2494	0	32156	
2495	0	32144	
2496	0	32152	
2497	0	32120	
2498	0	32108	
2499	0	32108	
2500	0	32120	
2501	0	32140	
2502	0	32132	
2503	0	32146	
2504	0	32144	
2505	0	32156	
2506	0	32164	
2507	0	32188	
2508	0	32192	
2509	0	32170	
2510	0	32156	
2511	0	32164	
2512	0	32192	
2513	0	32200	
2514	0	32184	
2515	0	32180	
2516	0	32208	
2517	0	32220	
2518	0	32212	
2519	0	32192	
2520	0	32188	
2521	0	32210	
2522	0	32212	
2523	0	32212	
2524	0	32208	
2525	0	32224	
2526	0	32256	
2527	0	32288	
2528	0	32320	
2529	0	32344	
2530	0	32364	
2531	0	32388	
2532	0	32420	
2533	0	32448	
2534	0	32440	
2535	0	32432	
2536	0	32432	
2537	0	32436	
2538	0	32456	
2539	0	32468	
2540	0	32464	
2541	0	32456	
2542	0	32452	
2543	0	32440	
2544	0	32432	
2545	0	32415	
2546	0	32396	
2547	0	32392	
2548	0	32400	
2549	0	32388	
2550	0	32380	
2551	0	32420	
2552	0	32434	
2553	0	32464	
2554	0	32480	
2555	0	32484	
2556	0	32492	
2557	0	32496	
2558	0	32480	
2559	0	32484	
2560	0	32480	
2561	0	32492	
2562	0	32524	
2563	0	32538	
2564	0	32552	
2565	0	32552	
2566	0	32548	
2567	0	32572	
2568	0	32560	
2569	0	32540	
2570	0	32536	
2571	0	32552	
2572	0	32548	
2573	0	32516	
2574	0	32504	
2575	0	32460	
2576	0	32444	
2577	0	32432	
2578	0	32448	
2579	0	32440	
2580	0	32448	
2581	0	32468	
2582	0	32468	
2583	0	32488	
2584	0	32496	
2585	0	32506	
2586	0	32504	
2587	0	32492	
2588	0	32484	
2589	0	32472	
2590	0	32504	
2591	0	32534	
2592	0	32545	
2593	0	32564	
2594	0	32604	
2595	0	32616	
2596	0	32616	
2597	0	32614	
2598	0	32622	
2599	0	32628	
2600	0	32628	
2601	0	32616	
2602	0	32588	
2603	0	32576	
2604	0	32584	
2605	0	32616	
2606	0	32632	
2607	0	32636	
2608	0	32644	
2609	0	32640	
2610	0	32640	
2611	0	32644	
2612	0	32622	
2613	0	32612	
2614	0	32612	
2615	0	32608	
2616	0	32624	
2617	0	32640	
2618	0	32632	
2619	0	32608	
2620	0	32602	
2621	0	32588	
2622	0	32568	
2623	0	32584	
2624	0	32596	
2625	0	32596	
2626	0	32632	
2627	0	32600	
2628	0	32596	
2629	0	32596	
2630	0	32616	
2631	0	32644	
2632	0	32640	
2633	0	32632	
2634	0	32632	
2635	0	32652	
2636	0	32672	
2637	0	32682	
2638	0	32688	
2639	0	32696	
2640	0	32712	
2641	0	32704	
2642	0	32720	
2643	0	32740	
2644	0	32756	
2645	0	32756	
2646	0	32768	
2647	0	32760	
2648	0	32774	
2649	0	32796	
2650	0	32824	
2651	0	32852	
2652	0	32852	
2653	0	32822	
2654	0	32824	
2655	0	32788	
2656	0	32760	
2657	0	32736	
2658	0	32764	
2659	0	32762	
2660	0	32778	
2661	0	32760	
2662	0	32760	
2663	0	32784	
2664	0	32824	
2665	0	32844	
2666	0	32880	
2667	0	32936	
2668	0	32980	
2669	0	33008	
2670	0	33050	
2671	0	33064	
2672	0	33036	
2673	0	32994	
2674	0	32976	
2675	0	32954	
2676	0	32944	
2677	0	32984	
2678	0	33044	
2679	0	33092	
2680	0	33080	
2681	0	33040	
2682	0	33050	
2683	0	33072	
2684	0	33100	
2685	0	33144	
2686	0	33222	
2687	0	33320	
2688	0	33428	
2689	0	33564	
2690	0	33688	
2691	0	33788	
2692	0	33912	
2693	0	34040	
2694	0	34160	
2695	0	34232	
2696	0	34312	
2697	0	34364	
2698	0	34356	
2699	0	34360	
2700	0	34360	
2701	0	34364	
2702	0	34400	
2703	0	34388	
2704	0	34378	
2705	0	34320	
2706	0	34224	
2707	0	34124	
2708	0	34032	
2709	0	33950	
2710	0	33832	
2711	0	33720	
2712	0	33664	
2713	0	33588	
2714	0	33500	
2715	0	33436	
2716	0	33414	
2717	0	33392	
2718	0	33332	
2719	0	33276	
2720	0	33260	
2721	0	33260	
2722	0	33256	
2723	0	33228	
2724	0	33232	
2725	0	33232	
2726	0	33208	
2727	0	33180	
2728	0	33148	
2729	0	33132	
2730	0	33120	
2731	0	33120	
2732	0	33120	
2733	0	33108	
2734	0	33100	
2735	0	33056	
2736	0	33016	
2737	0	33002	
2738	0	32992	
2739	0	32980	
2740	0	32972	
2741	0	32976	
2742	0	32960	
2743	0	32928	
2744	0	32868	
2745	0	32764	
2746	0	32670	
2747	0	32596	
2748	0	32512	
2749	0	32472	
2750	0	32436	
2751	0	32420	
2752	0	32420	
2753	0	32416	
2754	0	32406	
2755	0	32404	
2756	0	32384	
2757	0	32392	
2758	0	32396	
2759	0	32384	
2760	0	32368	
2761	0	32372	
2762	0	32370	
2763	0	32372	
2764	0	32384	
2765	0	32404	
2766	0	32404	
2767	0	32392	
2768	0	32396	
2769	0	32396	
2770	0	32396	
2771	0	32416	
2772	0	32424	
2773	0	32444	
2774	0	32460	
2775	0	32464	
2776	0	32484	
2777	0	32496	
2778	0	32512	
2779	0	32538	
2780	0	32520	
2781	0	32508	
2782	0	32480	
2783	0	32468	
2784	0	32472	
2785	0	32468	
2786	0	32466	
2787	0	32472	
2788	0	32460	
2789	0	32444	
2790	0	32472	
2791	0	32484	
2792	0	32492	
2793	0	32508	
2794	0	32538	
2795	0	32578	
2796	0	32584	
2797	0	32568	
2798	0	32572	
2799	0	32552	
2800	0	32556	
2801	0	32572	
2802	0	32576	
2803	0	32572	
2804	0	32552	
2805	0	32588	
2806	0	32616	
2807	0	32632	
2808	0	32612	
2809	0	32584	
2810	0	32588	
2811	0	32580	
2812	0	32596	
2813	0	32640	
2814	0	32680	
2815	0	32716	
2816	0	32768	
2817	0	32800	
2818	0	32828	
2819	0	32848	
2820	0	32816	
2821	0	32744	
2822	0	32636	
2823	0	32504	
2824	0	32360	
2825	0	32238	
2826	0	32136	
2827	0	32148	
2828	0	32352	
2829	0	32640	
2830	0	32940	
2831	0	33276	
2832	0	33656	
2833	0	34000	
2834	0	34300	
2835	0	34532	
2836	0	34672	
2837	0	34916	
2838	0	35340	
2839	0	35956	
2840	0	36772	
2841	0	37828	
2842	0	39006	
2843	0	40304	
2844	0	41744	
2845	0	43296	
2846	0	44928	
2847	0	46612	
2848	0	48306	
2849	0	50088	
2850	0	51844	
2851	0	53436	
2852	0	54852	
2853	0	55932	
2854	0	56864	
2855	0	57824	
2856	0	58788	
2857	0	59440	
2858	0	59544	
2859	0	58700	
2860	0	56796	
2861	0	53972	
2862	0	50516	
2863	0	46644	
2864	0	42784	
2865	0	39220	
2866	0	36224	
2867	0	33986	
2868	0	32444	
2869	0	31368	
2870	0	30616	
2871	0	30084	
2872	0	29688	
2873	0	29464	
2874	0	29412	
2875	0	29508	
2876	0	29680	
2877	0	29856	
2878	0	29996	
2879	0	30128	
2880	0	30254	
2881	0	30324	
2882	0	30340	
2883	0	30444	
2884	0	30568	
2885	0	30696	
2886	0	30784	
2887	0	30856	
2888	0	30900	
2889	0	30912	
2890	0	30920	
2891	0	30912	
2892	0	30904	
2893	0	30860	
2894	0	30804	
2895	0	30766	
2896	0	30752	
2897	0	30716	
2898	0	30690	
2899	0	30640	
2900	0	30588	
2901	0	30572	
2902	0	30576	
2903	0	30568	
2904	0	30568	
2905	0	30556	
2906	0	30568	
2907	0	30584	
2908	0	30592	
2909	0	30592	
2910	0	30602	
2911	0	30640	
2912	0	30645	
2913	0	30658	
2914	0	30684	
2915	0	30716	
2916	0	30740	
2917	0	30772	
2918	0	30800	
2919	0	30818	
2920	0	30844	
2921	0	30872	
2922	0	30872	
2923	0	30888	
2924	0	30904	
2925	0	30910	
2926	0	30936	
2927	0	30972	
2928	0	31008	
2929	0	31020	
2930	0	31040	
2931	0	31048	
2932	0	31076	
2933	0	31100	
2934	0	31114	
2935	0	31144	
2936	0	31172	
2937	0	31164	
2938	0	31156	
2939	0	31172	
2940	0	31218	
2941	0	31256	
2942	0	31290	
2943	0	31320	
2944	0	31336	
2945	0	31368	
2946	0	31380	
2947	0	31404	
2948	0	31428	
2949	0	31476	
2950	0	31520	
2951	0	31576	
2952	0	31612	
2953	0	31636	
2954	0	31628	
2955	0	31628	
2956	0	31648	
2957	0	31656	
2958	0	31680	
2959	0	31724	
2960	0	31776	
2961	0	31824	
2962	0	31860	
2963	0	31888	
2964	0	31892	
2965	0	31914	
2966	0	31948	
2967	0	31982	
2968	0	32010	
2969	0	32024	
2970	0	32064	
2971	0	32112	
2972	0	32126	
2973	0	32098	
2974	0	32098	
2975	0	32112	
2976	0	32126	
2977	0	32148	
2978	0	32160	
2979	0	32184	
2980	0	32224	
2981	0	32244	
2982	0	32258	
2983	0	32282	
2984	0	32322	
2985	0	32328	
2986	0	32336	
2987	0	32328	
2988	0	32344	
2989	0	32380	
2990	0	32424	
2991	0	32456	
2992	0	32500	
2993	0	32524	
2994	0	32568	
2995	0	32600	
2996	0	32624	
2997	0	32672	
2998	0	32684	
2999	0	32676	
3000	0	32700	
3001	0	32704	
3002	0	32724	
3003	0	32760	
3004	0	32794	
3005	0	32810	
3006	0	32812	
3007	0	32832	
3008	0	32832	
3009	0	32852	
3010	0	32872	
3011	0	32916	
3012	0	32932	
3013	0	32950	
3014	0	32968	
3015	0	32984	
3016	0	32996	
3017	0	32988	
3018	0	32996	
3019	0	32996	
3020	0	32992	
3021	0	32992	
3022	0	33008	
3023	0	33024	
3024	0	33024	
3025	0	33044	
3026	0	33044	
3027	0	33048	
3028	0	33066	
3029	0	33088	
3030	0	33130	
3031	0	33144	
3032	0	33152	
3033	0	33156	
3034	0	33152	
3035	0	33140	
3036	0	33146	
3037	0	33184	
3038	0	33216	
3039	0	33218	
3040	0	33216	
3041	0	33220	
3042	0	33188	
3043	0	33192	
3044	0	33194	
3045	0	33240	
3046	0	33286	
3047	0	33316	
3048	0	33348	
3049	0	33348	
3050	0	33368	
3051	0	33388	
3052	0	33416	
3053	0	33416	
3054	0	33396	
3055	0	33392	
3056	0	33406	
3057	0	33436	
3058	0	33448	
3059	0	33464	
3060	0	33480	
3061	0	33480	
3062	0	33476	
3063	0	33498	
3064	0	33536	
3065	0	33560	
3066	0	33576	
3067	0	33608	
3068	0	33632	
3069	0	33636	
3070	0	33664	
3071	0	33676	
3072	0	33700	
3073	0	33708	
3074	0	33720	
3075	0	33740	
3076	0	33760	
3077	0	33786	
3078	0	33800	
3079	0	33798	
3080	0	33784	
3081	0	33796	
3082	0	33824	
3083	0	33876	
3084	0	33918	
3085	0	33936	
3086	0	33932	
3087	0	33908	
3088	0	33916	
3089	0	33948	
3090	0	33984	
3091	0	34016	
3092	0	34037	
3093	0	34064	
3094	0	34096	
3095	0	34104	
3096	0	34112	
3097	0	34112	
3098	0	34120	
3099	0	34096	
3100	0	34120	
3101	0	34134	
3102	0	34100	
3103	0	34100	
3104	0	34136	
3105	0	34140	
3106	0	34132	
3107	0	34104	
3108	0	34116	
3109	0	34136	
3110	0	34172	
3111	0	34232	
3112	0	34236	
3113	0	34232	
3114	0	34208	
3115	0	34160	
3116	0	34132	
3117	0	34108	
3118	0	34110	
3119	0	34080	
3120	0	34088	
3121	0	34076	
3122	0	34084	
3123	0	34120	
3124	0	34146	
3125	0	34180	
3126	0	34208	
3127	0	34224	
3128	0	34228	
3129	0	34208	
3130	0	34188	
3131	0	34204	
3132	0	34224	
3133	0	34200	
3134	0	34184	
3135	0	34164	
3136	0	34148	
3137	0	34164	
3138	0	34158	
3139	0	34136	
3140	0	34112	
3141	0	34088	
3142	0	34056	
3143	0	34040	
3144	0	34024	
3145	0	33994	
3146	0	33960	
3147	0	33912	
3148	0	33856	
3149	0	33808	
3150	0	33770	
3151	0	33708	
3152	0	33664	
3153	0	33584	
3154	0	33508	
3155	0	33432	
3156	0	33400	
3157	0	33340	
3158	0	33252	
3159	0	33200	
3160	0	33140	
3161	0	33072	
3162	0	32994	
3163	0	32900	
3164	0	32840	
3165	0	32768	
3166	0	32700	
3167	0	32660	
3168	0	32584	
3169	0	32516	
3170	0	32464	
3171	0	32396	
3172	0	32298	
3173	0	32220	
3174	0	32132	
3175	0	32032	
3176	0	31954	
3177	0	31900	
3178	0	31804	
3179	0	31716	
3180	0	31646	
3181	0	31592	
3182	0	31526	
3183	0	31456	
3184	0	31392	
3185	0	31324	
3186	0	31280	
3187	0	31236	
3188	0	31184	
3189	0	31140	
3190	0	31104	
3191	0	31056	
3192	0	31000	
3193	0	30924	
3194	0	30868	
3195	0	30816	
3196	0	30796	
3197	0	30756	
3198	0	30740	
3199	0	30724	
3200	0	30682	
3201	0	30656	
3202	0	30628	
3203	0	30612	
3204	0	30604	
3205	0	30608	
3206	0	30592	
3207	0	30580	
3208	0	30560	
3209	0	30552	
3210	0	30544	
3211	0	30554	
3212	0	30576	
3213	0	30594	
3214	0	30604	
3215	0	30600	
3216	0	30592	
3217	0	30592	
3218	0	30596	
3219	0	30608	
3220	0	30612	
3221	0	30648	
3222	0	30636	
3223	0	30660	
3224	0	30668	
3225	0	30692	
3226	0	30720	
3227	0	30712	
3228	0	30728	
3229	0	30752	
3230	0	30768	
3231	0	30792	
3232	0	30808	
3233	0	30844	
3234	0	30872	
3235	0	30860	
3236	0	30876	
3237	0	30882	
3238	0	30928	
3239	0	30944	
3240	0	30936	
3241	0	30944	
3242	0	30968	
3243	0	30996	
3244	0	31008	
3245	0	31008	
3246	0	31016	
3247	0	31040	
3248	0	31072	
3249	0	31116	
3250	0	31152	
3251	0	31176	
3252	0	31188	
3253	0	31192	
3254	0	31212	
3255	0	31232	
3256	0	31264	
3257	0	31280	
3258	0	31300	
3259	0	31296	
3260	0	31320	
3261	0	31324	
3262	0	31336	
3263	0	31320	
3264	0	31360	
3265	0	31384	
3266	0	31408	
3267	0	31424	
3268	0	31440	
3269	0	31448	
3270	0	31452	
3271	0	31480	
3272	0	31524	
3273	0	31520	
3274	0	31504	
3275	0	31488	
3276	0	31484	
3277	0	31496	
3278	0	31484	
3279	0	31516	
3280	0	31528	
3281	0	31568	
3282	0	31568	
3283	0	31580	
3284	0	31600	
3285	0	31620	
3286	0	31628	
3287	0	31602	
3288	0	31580	
3289	0	31592	
3290	0	31608	
3291	0	31608	
3292	0	31640	
3293	0	31652	
3294	0	31658	
3295	0	31660	
3296	0	31668	
3297	0	31668	
3298	0	31668	
3299	0	31664	
3300	0	31664	
3301	0	31676	
3302	0	31680	
3303	0	31704	
3304	0	31732	
3305	0	31736	
3306	0	31768	
3307	0	31784	
3308	0	31808	
3309	0	31800	
3310	0	31816	
3311	0	31820	
3312	0	31840	
3313	0	31824	
3314	0	31832	
3315	0	31832	
3316	0	31832	
3317	0	31808	
3318	0	31772	
3319	0	31744	
3320	0	31740	
3321	0	31736	
3322	0	31764	
3323	0	31752	
3324	0	31748	
3325	0	31740	
3326	0	31768	
3327	0	31804	
3328	0	31824	
3329	0	31812	
3330	0	31796	
3331	0	31808	
3332	0	31806	
3333	0	31808	
3334	0	31782	
3335	0	31768	
3336	0	31804	
3337	0	31812	
3338	0	31804	
3339	0	31824	
3340	0	31848	
3341	0	31844	
3342	0	31844	
3343	0	31856	
3344	0	31856	
3345	0	31872	
3346	0	31880	
3347	0	31868	
3348	0	31868	
3349	0	31904	
3350	0	31904	
3351	0	31896	
3352	0	31864	
3353	0	31844	
3354	0	31820	
3355	0	31796	
3356	0	31804	
3357	0	31797	
3358	0	31816	
3359	0	31820	
3360	0	31828	
3361	0	31816	
3362	0	31816	
3363	0	31816	
3364	0	31832	
3365	0	31848	
3366	0	31860	
3367	0	31852	
3368	0	31868	
3369	0	31868	
3370	0	31868	
3371	0	31864	
3372	0	31862	
3373	0	31852	
3374	0	31852	
3375	0	31852	
3376	0	31872	
3377	0	31888	
3378	0	31928	
3379	0	31944	
3380	0	31940	
3381	0	31918	
3382	0	31912	
3383	0	31888	
3384	0	31876	
3385	0	31886	
3386	0	31908	
3387	0	31930	
3388	0	31964	
3389	0	31952	
3390	0	31948	
3391	0	31972	
3392	0	31986	
3393	0	32012	
3394	0	32008	
3395	0	32004	
3396	0	31992	
3397	0	31968	
3398	0	31956	
3399	0	31950	
3400	0	31960	
3401	0	31956	
3402	0	31992	
3403	0	32008	
3404	0	32048	
3405	0	32032	
3406	0	32004	
3407	0	31988	
3408	0	31968	
3409	0	31956	
3410	0	31956	
3411	0	31936	
3412	0	31928	
3413	0	31924	
3414	0	31904	
3415	0	31916	
3416	0	31942	
3417	0	31956	
3418	0	31990	
3419	0	31992	
3420	0	32004	
3421	0	32036	
3422	0	32056	
3423	0	32072	
3424	0	32092	
3425	0	32096	
3426	0	32116	
3427	0	32116	
3428	0	32106	
3429	0	32104	
3430	0	32116	
3431	0	32124	
3432	0	32132	
3433	0	32128	
3434	0	32128	
3435	0	32154	
3436	0	32144	
3437	0	32140	
3438	0	32157	
3439	0	32160	
3440	0	32144	
3441	0	32144	
3442	0	32136	
3443	0	32128	
3444	0	32140	
3445	0	32152	
3446	0	32156	
3447	0	32160	
3448	0	32164	
3449	0	32184	
3450	0	32174	
3451	0	32188	
3452	0	32224	
3453	0	32272	
3454	0	32304	
3455	0	32308	
3456	0	32292	
3457	0	32300	
3458	0	32284	
3459	0	32260	
3460	0	32248	
3461	0	32252	
3462	0	32248	
3463	0	32256	
3464	0	32258	
3465	0	32256	
3466	0	32272	
3467	0	32264	
3468	0	32266	
3469	0	32284	
3470	0	32288	
3471	0	32312	
3472	0	32320	
3473	0	32312	
3474	0	32320	
3475	0	32298	
3476	0	32288	
3477	0	32272	
3478	0	32304	
3479	0	32324	
3480	0	32332	
3481	0	32336	
3482	0	32338	
3483	0	32324	
3484	0	32334	
3485	0	32364	
3486	0	32384	
3487	0	32388	
3488	0	32404	
3489	0	32440	
3490	0	32468	
3491	0	32472	
3492	0	32448	
3493	0	32460	
3494	0	32448	
3495	0	32420	
3496	0	32404	
3497	0	32412	
3498	0	32420	
3499	0	32416	
3500	0	32424	
3501	0	32472	
3502	0	32508	
3503	0	32504	
3504	0	32536	
3505	0	32552	
3506	0	32548	
3507	0	32536	
3508	0	32548	
3509	0	32588	
3510	0	32588	
3511	0	32612	
3512	0	32636	
3513	0	32660	
3514	0	32656	
3515	0	32620	
3516	0	32612	
3517	0	32616	
3518	0	32628	
3519	0	32630	
3520	0	32622	
3521	0	32608	
3522	0	32596	
3523	0	32580	
3524	0	32620	
3525	0	32642	
3526	0	32660	
3527	0	32698	
3528	0	32704	
3529	0	32716	
3530	0	32724	
3531	0	32682	
3532	0	32694	
3533	0	32684	
3534	0	32684	
3535	0	32684	
3536	0	32688	
3537	0	32684	
3538	0	32678	
3539	0	32672	
3540	0	32666	
3541	0	32674	
3542	0	32668	
3543	0	32688	
3544	0	32698	
3545	0	32732	
3546	0	32744	
3547	0	32768	
3548	0	32792	
3549	0	32802	
3550	0	32812	
3551	0	32808	
3552	0	32784	
3553	0	32776	
3554	0	32742	
3555	0	32712	
3556	0	32704	
3557	0	32706	
3558	0	32704	
3559	0	32712	
3560	0	32704	
3561	0	32696	
3562	0	32672	
3563	0	32682	
3564	0	32700	
3565	0	32714	
3566	0	32720	
3567	0	32752	
3568	0	32770	
3569	0	32778	
3570	0	32790	
3571	0	32796	
3572	0	32788	
3573	0	32772	
3574	0	32760	
3575	0	32768	
3576	0	32760	
3577	0	32764	
3578	0	32756	
3579	0	32772	
3580	0	32788	
3581	0	32808	
3582	0	32814	
3583	0	32832	
3584	0	32832	
3585	0	32832	
3586	0	32832	
3587	0	32808	
3588	0	32776	
3589	0	32768	
3590	0	32784	
3591	0	32796	
3592	0	32808	
3593	0	32816	
3594	0	32828	
3595	0	32840	
3596	0	32832	
3597	0	32840	
3598	0	32836	
3599	0	32816	
3600	0	32780	
3601	0	32816	
3602	0	32832	
3603	0	32808	
3604	0	32824	
3605	0	32852	
3606	0	32868	
3607	0	32876	
3608	0	32884	
3609	0	32900	
3610	0	32936	
3611	0	32956	
3612	0	32972	
3613	0	32972	
3614	0	32956	
3615	0	32912	
3616	0	32896	
3617	0	32922	
3618	0	32926	
3619	0	32926	
3620	0	32924	
3621	0	32932	
3622	0	32932	
3623	0	32932	
3624	0	32932	
3625	0	32916	
3626	0	32904	
3627	0	32916	
3628	0	32916	
3629	0	32916	
3630	0	32912	
3631	0	32914	
3632	0	32916	
3633	0	32920	
3634	0	32908	
3635	0	32904	
3636	0	32904	
3637	0	32908	
3638	0	32904	
3639	0	32910	
3640	0	32912	
3641	0	32936	
3642	0	32972	
3643	0	32992	
3644	0	33000	
3645	0	33004	
3646	0	33032	
3647	0	33008	
3648	0	32968	
3649	0	32972	
3650	0	32992	
3651	0	32988	
3652	0	32968	
3653	0	32984	
3654	0	32980	
3655	0	32976	
3656	0	32964	
3657	0	32952	
3658	0	32968	
3659	0	32980	
3660	0	32984	
3661	0	33016	
3662	0	33008	
3663	0	33000	
3664	0	32984	
3665	0	32984	
3666	0	32980	
3667	0	32992	
3668	0	32996	
3669	0	33026	
3670	0	33044	
3671	0	33068	
3672	0	33060	
3673	0	33032	
3674	0	33032	
3675	0	33024	
3676	0	33020	
3677	0	33036	
3678	0	33048	
3679	0	33052	
3680	0	33032	
3681	0	33024	
3682	0	33028	
3683	0	33044	
3684	0	33032	
3685	0	33048	
3686	0	33034	
3687	0	33048	
3688	0	33044	
3689	0	33036	
3690	0	33008	
3691	0	33020	
3692	0	33020	
3693	0	33040	
3694	0	33032	
3695	0	33052	
3696	0	33032	
3697	0	33032	
3698	0	33024	
3699	0	33012	
3700	0	33016	
3701	0	33008	
3702	0	33000	
3703	0	32996	
3704	0	32980	
3705	0	32964	
3706	0	32984	
3707	0	33000	
3708	0	33024	
3709	0	33024	
3710	0	33020	
3711	0	33008	
3712	0	32992	
3713	0	33000	
3714	0	32992	
3715	0	32984	
3716	0	32988	
3717	0	32988	
3718	0	32988	
3719	0	33000	
3720	0	32996	
3721	0	32992	
3722	0	33012	
3723	0	33012	
3724	0	33016	
3725	0	33038	
3726	0	33060	
3727	0	33048	
3728	0	33026	
3729	0	33024	
3730	0	33044	
3731	0	33052	
3732	0	33048	
3733	0	33064	
3734	0	33064	
3735	0	33072	
3736	0	33100	
3737	0	33100	
3738	0	33122	
3739	0	33120	
3740	0	33088	
3741	0	33056	
3742	0	33052	
3743	0	33046	
3744	0	33048	
3745	0	33060	
3746	0	33056	
3747	0	33076	
3748	0	33072	
3749	0	33060	
3750	0	33066	
3751	0	33056	
3752	0	33068	
3753	0	33078	
3754	0	33074	
3755	0	33088	
3756	0	33084	
3757	0	33084	
3758	0	33084	
3759	0	33080	
3760	0	33096	
3761	0	33068	
3762	0	33044	
3763	0	33044	
3764	0	33052	
3765	0	33088	
3766	0	33088	
3767	0	33088	
3768	0	33092	
3769	0	33104	
3770	0	33096	
3771	0	33104	
3772	0	33128	
3773	0	33136	
3774	0	33130	
3775	0	33112	
3776	0	33080	
3777	0	33088	
3778	0	33112	
3779	0	33104	
3780	0	33100	
3781	0	33094	
3782	0	33088	
3783	0	33092	
3784	0	33088	
3785	0	33104	
3786	0	33108	
3787	0	33108	
3788	0	33104	
3789	0	33124	
3790	0	33156	
3791	0	33208	
3792	0	33248	
3793	0	33312	
3794	0	33364	
3795	0	33382	
3796	0	33376	
3797	0	33368	
3798	0	33352	
3799	0	33308	
3800	0	33308	
3801	0	33292	
3802	0	33296	
3803	0	33333	
3804	0	33372	
3805	0	33364	
3806	0	33344	
3807	0	33340	
3808	0	33352	
3809	0	33384	
3810	0	33432	
3811	0	33512	
3812	0	33648	
3813	0	33788	
3814	0	33908	
3815	0	34028	
3816	0	34124	
3817	0	34220	
3818	0	34332	
3819	0	34432	
3820	0	34516	
3821	0	34592	
3822	0	34616	
3823	0	34604	
3824	0	34584	
3825	0	34548	
3826	0	34536	
3827	0	34528	
3828	0	34496	
3829	0	34468	
3830	0	34428	
3831	0	34356	
3832	0	34276	
3833	0	34216	
3834	0	34116	
3835	0	34036	
3836	0	33944	
3837	0	33860	
3838	0	33776	
3839	0	33674	
3840	0	33588	
3841	0	33552	
3842	0	33524	
3843	0	33456	
3844	0	33416	
3845	0	33396	
3846	0	33378	
3847	0	33352	
3848	0	33312	
3849	0	33256	
3850	0	33228	
3851	0	33228	
3852	0	33200	
3853	0	33160	
3854	0	33122	
3855	0	33092	
3856	0	33088	
3857	0	33096	
3858	0	33106	
3859	0	33072	
3860	0	33048	
3861	0	33032	
3862	0	33040	
3863	0	33028	
3864	0	33028	
3865	0	33008	
3866	0	32984	
3867	0	32992	
3868	0	32982	
3869	0	32932	
3870	0	32912	
3871	0	32840	
3872	0	32768	
3873	0	32696	
3874	0	32640	
3875	0	32600	
3876	0	32574	
3877	0	32564	
3878	0	32560	
3879	0	32552	
3880	0	32576	
3881	0	32584	
3882	0	32580	
3883	0	32564	
3884	0	32584	
3885	0	32564	
3886	0	32544	
3887	0	32502	
3888	0	32468	
3889	0	32444	
3890	0	32444	
3891	0	32480	
3892	0	32496	
3893	0	32504	
3894	0	32512	
3895	0	32548	
3896	0	32556	
3897	0	32548	
3898	0	32572	
3899	0	32592	
3900	0	32602	
3901	0	32584	
3902	0	32564	
3903	0	32544	
3904	0	32556	
3905	0	32576	
3906	0	32564	
3907	0	32556	
3908	0	32544	
3909	0	32552	
3910	0	32560	
3911	0	32588	
3912	0	32596	
3913	0	32596	
3914	0	32592	
3915	0	32596	
3916	0	32588	
3917	0	32588	
3918	0	32604	
3919	0	32608	
3920	0	32616	
3921	0	32624	
3922	0	32636	
3923	0	32650	
3924	0	32668	
3925	0	32688	
3926	0	32704	
3927	0	32704	
3928	0	32702	
3929	0	32704	
3930	0	32676	
3931	0	32672	
3932	0	32676	
3933	0	32688	
3934	0	32708	
3935	0	32704	
3936	0	32680	
3937	0	32696	
3938	0	32724	
3939	0	32768	
3940	0	32820	
3941	0	32868	
3942	0	32900	
3943	0	32900	
3944	0	32860	
3945	0	32824	
3946	0	32748	
3947	0	32596	
3948	0	32452	
3949	0	32336	
3950	0	32240	
3951	0	32178	
3952	0	32314	
3953	0	32568	
3954	0	32844	
3955	0	33160	
3956	0	33522	
3957	0	33856	
3958	0	34148	
3959	0	34424	
3960	0	34588	
3961	0	34772	
3962	0	35088	
3963	0	35616	
3964	0	36320	
3965	0	37196	
3966	0	38272	
3967	0	39444	
3968	0	40808	
3969	0	42278	
3970	0	43860	
3971	0	45500	
3972	0	47172	
3973	0	48880	
3974	0	50556	
3975	0	52104	
3976	0	53440	
3977	0	54604	
3978	0	55516	
3979	0	56472	
3980	0	57456	
3981	0	58132	
3982	0	58374	
3983	0	57800	
3984	0	56048	
3985	0	53356	
3986	0	50076	
3987	0	46344	
3988	0	42600	
3989	0	39130	
3990	0	36228	
3991	0	34112	
3992	0	32677	
3993	0	31664	
3994	0	31044	
3995	0	30666	
3996	0	30372	
3997	0	30180	
3998	0	30100	
3999	0	30064	
4000	0	30080	
4001	0	30112	
4002	0	30168	
4003	0	30188	
4004	0	30212	
4005	0	30252	
4006	0	30288	
4007	0	30368	
4008	0	30468	
4009	0	30608	
4010	0	30680	
4011	0	30748	
4012	0	30778	
4013	0	30801	
4014	0	30828	
4015	0	30808	
4016	0	30778	
4017	0	30748	
4018	0	30712	
4019	0	30664	
4020	0	30620	
4021	0	30560	
4022	0	30528	
4023	0	30492	
4024	0	30448	
4025	0	30412	
4026	0	30396	
4027	0	30388	
4028	0	30380	
4029	0	30364	
4030	0	30384	
4031	0	30408	
4032	0	30416	
4033	0	30404	
4034	0	30380	
4035	0	30352	
4036	0	30354	
4037	0	30364	
4038	0	30382	
4039	0	30400	
4040	0	30424	
4041	0	30442	
4042	0	30484	
4043	0	30524	
4044	0	30560	
4045	0	30580	
4046	0	30596	
4047	0	30620	
4048	0	30636	
4049	0	30668	
4050	0	30708	
4051	0	30726	
4052	0	30764	
4053	0	30768	
4054	0	30776	
4055	0	30776	
4056	0	30804	
4057	0	30824	
4058	0	30848	
4059	0	30888	
4060	0	30914	
4061	0	30956	
4062	0	30956	
4063	0	30964	
4064	0	30956	
4065	0	30980	
4066	0	31024	
4067	0	31088	
4068	0	31132	
4069	0	31168	
4070	0	31196	
4071	0	31194	
4072	0	31226	
4073	0	31268	
4074	0	31300	
4075	0	31344	
4076	0	31340	
4077	0	31366	
4078	0	31400	
4079	0	31424	
4080	0	31440	
4081	0	31456	
4082	0	31512	
4083	0	31548	
4084	0	31596	
4085	0	31624	
4086	0	31656	
4087	0	31680	
4088	0	31688	
4089	0	31672	
4090	0	31684	
4091	0	31708	
4092	0	31716	
4093	0	31724	
4094	0	31760	
4095	0	31770	
4096	0	31784	
4097	0	31816	
4098	0	31836	
4099	0	31860	
4100	0	31892	
4101	0	31920	
4102	0	31956	
4103	0	31986	
4104	0	32036	
4105	0	32092	
4106	0	32106	
4107	0	32116	
4108	0	32124	
4109	0	32132	
4110	0	32184	
4111	0	32252	
4112	0	32292	
4113	0	32316	
4114	0	32344	
4115	0	32344	
4116	0	32348	
4117	0	32360	
4118	0	32380	
4119	0	32392	
4120	0	32392	
4121	0	32420	
4122	0	32444	
4123	0	32496	
4124	0	32532	
4125	0	32532	
4126	0	32552	
4127	0	32576	
4128	0	32576	
4129	0	32572	
4130	0	32588	
4131	0	32616	
4132	0	32644	
4133	0	32644	
4134	0	32648	
4135	0	32660	
4136	0	32660	
4137	0	32668	
4138	0	32650	
4139	0	32660	
4140	0	32696	
4141	0	32736	
4142	0	32764	
4143	0	32780	
4144	0	32788	
4145	0	32832	
4146	0	32848	
4147	0	32884	
4148	0	32884	
4149	0	32886	
4150	0	32900	
4151	0	32912	
4152	0	32932	
4153	0	32948	
4154	0	32944	
4155	0	32952	
4156	0	32952	
4157	0	32948	
4158	0	32952	
4159	0	32968	
4160	0	32968	
4161	0	32972	
4162	0	32962	
4163	0	32954	
4164	0	32952	
4165	0	32952	
4166	0	32964	
4167	0	33000	
4168	0	33056	
4169	0	33072	
4170	0	33088	
4171	0	33088	
4172	0	33084	
4173	0	33076	
4174	0	33056	
4175	0	33056	
4176	0	33076	
4177	0	33080	
4178	0	33134	
4179	0	33180	
4180	0	33248	
4181	0	33296	
4182	0	33328	
4183	0	33336	
4184	0	33360	
4185	0	33360	
4186	0	33368	
4187	0	33352	
4188	0	33360	
4189	0	33356	
4190	0	33356	
4191	0	33388	
4192	0	33416	
4193	0	33436	
4194	0	33464	
4195	0	33468	
4196	0	33456	
4197	0	33472	
4198	0	33508	
4199	0	33512	
4200	0	33552	
4201	0	33592	
4202	0	33592	
4203	0	33596	
4204	0	33608	
4205	0	33600	
4206	0	33596	
4207	0	33588	
4208	0	33576	
4209	0	33592	
4210	0	33604	
4211	0	33656	
4212	0	33692	
4213	0	33704	
4214	0	33714	
4215	0	33724	
4216	0	33728	
4217	0	33736	
4218	0	33740	
4219	0	33748	
4220	0	33728	
4221	0	33708	
4222	0	33682	
4223	0	33680	
4224	0	33712	
4225	0	33752	
4226	0	33784	
4227	0	33800	
4228	0	33792	
4229	0	33802	
4230	0	33860	
4231	0	33904	
4232	0	33932	
4233	0	33952	
4234	0	33956	
4235	0	33908	
4236	0	33880	
4237	0	33888	
4238	0	33908	
4239	0	33920	
4240	0	33920	
4241	0	33922	
4242	0	33944	
4243	0	33960	
4244	0	33960	
4245	0	33956	
4246	0	33968	
4247	0	33992	
4248	0	33988	
4249	0	33998	
4250	0	34016	
4251	0	34016	
4252	0	34012	
4253	0	33972	
4254	0	33932	
4255	0	33920	
4256	0	33924	
4257	0	33928	
4258	0	33920	
4259	0	33932	
4260	0	33972	
4261	0	34000	
4262	0	34026	
4263	0	34020	
4264	0	33996	
4265	0	33996	
4266	0	33992	
4267	0	33980	
4268	0	33932	
4269	0	33888	
4270	0	33886	
4271	0	33876	
4272	0	33884	
4273	0	33884	
4274	0	33872	
4275	0	33840	
4276	0	33796	
4277	0	33756	
4278	0	33704	
4279	0	33624	
4280	0	33572	
4281	0	33512	
4282	0	33440	
4283	0	33400	
4284	0	33332	
4285	0	33312	
4286	0	33250	
4287	0	33176	
4288	0	33092	
4289	0	33036	
4290	0	32960	
4291	0	32884	
4292	0	32824	
4293	0	32792	
4294	0	32752	
4295	0	32700	
4296	0	32612	
4297	0	32552	
4298	0	32496	
4299	0	32444	
4300	0	32376	
4301	0	32280	
4302	0	32196	
4303	0	32090	
4304	0	32002	
4305	0	31916	
4306	0	31876	
4307	0	31844	
4308	0	31784	
4309	0	31716	
4310	0	31700	
4311	0	31668	
4312	0	31648	
4313	0	31594	
4314	0	31552	
4315	0	31536	
4316	0	31496	
4317	0	31436	
4318	0	31364	
4319	0	31324	
4320	0	31276	
4321	0	31216	
4322	0	31172	
4323	0	31152	
4324	0	31128	
4325	0	31116	
4326	0	31080	
4327	0	31060	
4328	0	31056	
4329	0	31044	
4330	0	31044	
4331	0	31032	
4332	0	31016	
4333	0	30996	
4334	0	30964	
4335	0	30928	
4336	0	30904	
4337	0	30844	
4338	0	30836	
4339	0	30832	
4340	0	30832	
4341	0	30818	
4342	0	30784	
4343	0	30728	
4344	0	30712	
4345	0	30704	
4346	0	30704	
4347	0	30696	
4348	0	30728	
4349	0	30768	
4350	0	30784	
4351	0	30792	
4352	0	30814	
4353	0	30816	
4354	0	30820	
4355	0	30844	
4356	0	30880	
4357	0	30904	
4358	0	30916	
4359	0	30932	
4360	0	30940	
4361	0	30944	
4362	0	30956	
4363	0	30964	
4364	0	30978	
4365	0	31004	
4366	0	31016	
4367	0	31017	
4368	0	31032	
4369	0	31036	
4370	0	31052	
4371	0	31088	
4372	0	31132	
4373	0	31168	
4374	0	31200	
4375	0	31228	
4376	0	31252	
4377	0	31238	
4378	0	31228	
4379	0	31236	
4380	0	31248	
4381	0	31264	
4382	0	31272	
4383	0	31302	
4384	0	31324	
4385	0	31342	
4386	0	31364	
4387	0	31376	
4388	0	31372	
4389	0	31368	
4390	0	31348	
4391	0	31364	
4392	0	31416	
4393	0	31444	
4394	0	31464	
4395	0	31480	
4396	0	31488	
4397	0	31492	
4398	0	31500	
4399	0	31496	
4400	0	31472	
4401	0	31480	
4402	0	31512	
4403	0	31540	
4404	0	31552	
4405	0	31584	
4406	0	31616	
4407	0	31632	
4408	0	31628	
4409	0	31672	
4410	0	31682	
4411	0	31692	
4412	0	31684	
4413	0	31664	
4414	0	31656	
4415	0	31660	
4416	0	31664	
4417	0	31684	
4418	0	31712	
4419	0	31746	
4420	0	31776	
4421	0	31788	
4422	0	31788	
4423	0	31792	
4424	0	31808	
4425	0	31812	
4426	0	31800	
4427	0	31804	
4428	0	31822	
4429	0	31814	
4430	0	31840	
4431	0	31840	
4432	0	31872	
4433	0	31892	
4434	0	31892	
4435	0	31880	
4436	0	31870	
4437	0	31868	
4438	0	31878	
4439	0	31840	
4440	0	31788	
4441	0	31776	
4442	0	31768	
4443	0	31736	
4444	0	31708	
4445	0	31696	
4446	0	31720	
4447	0	31740	
4448	0	31744	
4449	0	31728	
4450	0	31724	
4451	0	31772	
4452	0	31816	
4453	0	31808	
4454	0	31808	
4455	0	31812	
4456	0	31820	
4457	0	31784	
4458	0	31760	
4459	0	31732	
4460	0	31704	
4461	0	31712	
4462	0	31700	
4463	0	31712	
4464	0	31724	
4465	0	31744	
4466	0	31760	
4467	0	31784	
4468	0	31828	
4469	0	31880	
4470	0	31892	
4471	0	31872	
4472	0	31844	
4473	0	31824	
4474	0	31812	
4475	0	31808	
4476	0	31784	
4477	0	31796	
4478	0	31796	
4479	0	31784	
4480	0	31770	
4481	0	31776	
4482	0	31808	
4483	0	31836	
4484	0	31876	
4485	0	31920	
4486	0	31940	
4487	0	31976	
4488	0	32024	
4489	0	32040	
4490	0	32024	
4491	0	32012	
4492	0	32004	
4493	0	31948	
4494	0	31920	
4495	0	31856	
4496	0	31776	
4497	0	31736	
4498	0	31700	
4499	0	31660	
4500	0	31640	
4501	0	31662	
4502	0	31694	
4503	0	31728	
4504	0	31776	
4505	0	31812	
4506	0	31844	
4507	0	31864	
4508	0	31880	
4509	0	31902	
4510	0	31928	
4511	0	31960	
4512	0	31976	
4513	0	32016	
4514	0	32032	
4515	0	32034	
4516	0	32028	
4517	0	31954	
4518	0	31944	
4519	0	31940	
4520	0	31920	
4521	0	31912	
4522	0	31920	
4523	0	31932	
4524	0	31952	
4525	0	31988	
4526	0	32008	
4527	0	32036	
4528	0	32016	
4529	0	31972	
4530	0	31968	
4531	0	31962	
4532	0	31940	
4533	0	31948	
4534	0	31932	
4535	0	31964	
4536	0	32008	
4537	0	32032	
4538	0	32060	
4539	0	32096	
4540	0	32100	
4541	0	32108	
4542	0	32096	
4543	0	32072	
4544	0	32072	
4545	0	32088	
4546	0	32112	
4547	0	32152	
4548	0	32168	
4549	0	32200	
4550	0	32224	
4551	0	32220	
4552	0	32212	
4553	0	32220	
4554	0	32180	
4555	0	32124	
4556	0	32096	
4557	0	32100	
4558	0	32104	
4559	0	32096	
4560	0	32112	
4561	0	32144	
4562	0	32172	
4563	0	32224	
4564	0	32256	
4565	0	32284	
4566	0	32312	
4567	0	32336	
4568	0	32360	
4569	0	32372	
4570	0	32392	
4571	0	32420	
4572	0	32428	
4573	0	32420	
4574	0	32402	
4575	0	32388	
4576	0	32356	
4577	0	32328	
4578	0	32356	
4579	0	32356	
4580	0	32360	
4581	0	32360	
4582	0	32340	
4583	0	32320	
4584	0	32340	
4585	0	32360	
4586	0	32376	
4587	0	32372	
4588	0	32368	
4589	0	32388	
4590	0	32412	
4591	0	32448	
4592	0	32456	
4593	0	32412	
4594	0	32380	
4595	0	32408	
4596	0	32472	
4597	0	32504	
4598	0	32532	
4599	0	32560	
4600	0	32560	
4601	0	32560	
4602	0	32552	
4603	0	32512	
4604	0	32448	
4605	0	32408	
4606	0	32420	
4607	0	32460	
4608	0	32480	
4609	0	32450	
4610	0	32456	
4611	0	32472	
4612	0	32496	
4613	0	32524	
4614	0	32540	
4615	0	32586	
4616	0	32584	
4617	0	32548	
4618	0	32570	
4619	0	32580	
4620	0	32552	
4621	0	32522	
4622	0	32520	
4623	0	32548	
4624	0	32569	
4625	0	32568	
4626	0	32560	
4627	0	32588	
4628	0	32612	
4629	0	32636	
4630	0	32624	
4631	0	32592	
4632	0	32588	
4633	0	32588	
4634	0	32600	
4635	0	32616	
4636	0	32640	
4637	0	32644	
4638	0	32656	
4639	0	32624	
4640	0	32608	
4641	0	32590	
4642	0	32608	
4643	0	32620	
4644	0	32620	
4645	0	32620	
4646	0	32622	
4647	0	32636	
4648	0	32596	
4649	0	32600	
4650	0	32576	
4651	0	32580	
4652	0	32588	
4653	0	32616	
4654	0	32644	
4655	0	32660	
4656	0	32684	
4657	0	32704	
4658	0	32744	
4659	0	32760	
4660	0	32760	
4661	0	32772	
4662	0	32808	
4663	0	32832	
4664	0	32872	
4665	0	32884	
4666	0	32872	
4667	0	32862	
4668	0	32816	
4669	0	32768	
4670	0	32764	
4671	0	32768	
4672	0	32824	
4673	0	32856	
4674	0	32856	
4675	0	32848	
4676	0	32846	
4677	0	32836	
4678	0	32836	
4679	0	32820	
4680	0	32796	
4681	0	32780	
4682	0	32768	
4683	0	32744	
4684	0	32716	
4685	0	32700	
4686	0	32662	
4687	0	32636	
4688	0	32636	
4689	0	32648	
4690	0	32664	
4691	0	32664	
4692	0	32680	
4693	0	32692	
4694	0	32732	
4695	0	32804	
4696	0	32844	
4697	0	32824	
4698	0	32832	
4699	0	32836	
4700	0	32842	
4701	0	32860	
4702	0	32864	
4703	0	32860	
4704	0	32850	
4705	0	32856	
4706	0	32860	
4707	0	32840	
4708	0	32820	
4709	0	32824	
4710	0	32852	
4711	0	32896	
4712	0	32932	
4713	0	32948	
4714	0	32984	
4715	0	32984	
4716	0	32992	
4717	0	33020	
4718	0	33002	
4719	0	32952	
4720	0	32952	
4721	0	32972	
4722	0	33000	
4723	0	33008	
4724	0	33024	
4725	0	33028	
4726	0	32992	
4727	0	32988	
4728	0	32980	
4729	0	32944	
4730	0	32900	
4731	0	32936	
4732	0	32948	
4733	0	32956	
4734	0	32960	
4735	0	32956	
4736	0	32960	
4737	0	32920	
4738	0	32856	
4739	0	32804	
4740	0	32812	
4741	0	32814	
4742	0	32824	
4743	0	32832	
4744	0	32840	
4745	0	32848	
4746	0	32856	
4747	0	32872	
4748	0	32856	
4749	0	32832	
4750	0	32804	
4751	0	32832	
4752	0	32820	
4753	0	32828	
4754	0	32888	
4755	0	32940	
4756	0	32980	
4757	0	32992	
4758	0	33002	
4759	0	33032	
4760	0	33052	
4761	0	33040	
4762	0	33004	
4763	0	32984	
4764	0	32960	
4765	0	32984	
4766	0	32984	
4767	0	33000	
4768	0	33016	
4769	0	33020	
4770	0	33012	
4771	0	33012	
4772	0	33000	
4773	0	32986	
4774	0	32949	
4775	0	32928	
4776	0	32942	
4777	0	32960	
4778	0	32992	
4779	0	33012	
4780	0	33044	
4781	0	33092	
4782	0	33104	
4783	0	33112	
4784	0	33128	
4785	0	33148	
4786	0	33142	
4787	0	33076	
4788	0	33024	
4789	0	33028	
4790	0	33066	
4791	0	33112	
4792	0	33146	
4793	0	33176	
4794	0	33140	
4795	0	33104	
4796	0	33088	
4797	0	33096	
4798	0	33106	
4799	0	33112	
4800	0	33086	
4801	0	33068	
4802	0	33044	
4803	0	33016	
4804	0	33004	
4805	0	32996	
4806	0	33012	
4807	0	33034	
4808	0	33052	
4809	0	33056	
4810	0	33060	
4811	0	33076	
4812	0	33098	
4813	0	33072	
4814	0	33062	
4815	0	33056	
4816	0	33052	
4817	0	33060	
4818	0	33044	
4819	0	33032	
4820	0	33004	
4821	0	32984	
4822	0	33036	
4823	0	33092	
4824	0	33172	
4825	0	33238	
4826	0	33282	
4827	0	33332	
4828	0	33400	
4829	0	33472	
4830	0	33524	
4831	0	33528	
4832	0	33552	
4833	0	33532	
4834	0	33520	
4835	0	33484	
4836	0	33432	
4837	0	33404	
4838	0	33408	
4839	0	33448	
4840	0	33440	
4841	0	33392	
4842	0	33344	
4843	0	33356	
4844	0	33392	
4845	0	33420	
4846	0	33484	
4847	0	33576	
4848	0	33664	
4849	0	33788	
4850	0	33892	
4851	0	34012	
4852	0	34112	
4853	0	34216	
4854	0	34360	
4855	0	34464	
4856	0	34560	
4857	0	34612	
4858	0	34628	
4859	0	34632	
4860	0	34632	
4861	0	34640	
4862	0	34650	
4863	0	34684	
4864	0	34704	
4865	0	34700	
4866	0	34672	
4867	0	34620	
4868	0	34544	
4869	0	34448	
4870	0	34360	
4871	0	34280	
4872	0	34204	
4873	0	34132	
4874	0	34056	
4875	0	33964	
4876	0	33896	
4877	0	33828	
4878	0	33740	
4879	0	33684	
4880	0	33640	
4881	0	33604	
4882	0	33564	
4883	0	33544	
4884	0	33518	
4885	0	33488	
4886	0	33456	
4887	0	33428	
4888	0	33366	
4889	0	33324	
4890	0	33296	
4891	0	33265	
4892	0	33256	
4893	0	33220	
4894	0	33184	
4895	0	33144	
4896	0	33150	
4897	0	33168	
4898	0	33144	
4899	0	33068	
4900	0	32964	
4901	0	32884	
4902	0	32858	
4903	0	32856	
4904	0	32792	
4905	0	32688	
4906	0	32616	
4907	0	32616	
4908	0	32660	
4909	0	32664	
4910	0	32648	
4911	0	32604	
4912	0	32568	
4913	0	32528	
4914	0	32520	
4915	0	32520	
4916	0	32496	
4917	0	32488	
4918	0	32524	
4919	0	32560	
4920	0	32572	
4921	0	32548	
4922	0	32532	
4923	0	32516	
4924	0	32528	
4925	0	32540	
4926	0	32584	
4927	0	32588	
4928	0	32612	
4929	0	32628	
4930	0	32644	
4931	0	32656	
4932	0	32672	
4933	0	32658	
4934	0	32692	
4935	0	32736	
4936	0	32744	
4937	0	32740	
4938	0	32748	
4939	0	32748	
4940	0	32758	
4941	0	32724	
4942	0	32698	
4943	0	32654	
4944	0	32652	
4945	0	32640	
4946	0	32608	
4947	0	32568	
4948	0	32548	
4949	0	32560	
4950	0	32608	
4951	0	32664	
4952	0	32700	
4953	0	32696	
4954	0	32712	
4955	0	32728	
4956	0	32744	
4957	0	32712	
4958	0	32650	
4959	0	32636	
4960	0	32612	
4961	0	32588	
4962	0	32592	
4963	0	32610	
4964	0	32608	
4965	0	32588	
4966	0	32586	
4967	0	32564	
4968	0	32548	
4969	0	32568	
4970	0	32636	
4971	0	32712	
4972	0	32728	
4973	0	32756	
4974	0	32816	
4975	0	32844	
4976	0	32908	
4977	0	32948	
4978	0	32944	
4979	0	32956	
4980	0	32952	
4981	0	32886	
4982	0	32776	
4983	0	32580	
4984	0	32366	
4985	0	32174	
4986	0	32064	
4987	0	32008	
4988	0	32114	
4989	0	32348	
4990	0	32640	
4991	0	32948	
4992	0	33292	
4993	0	33616	
4994	0	33912	
4995	0	34096	
4996	0	34204	
4997	0	34404	
4998	0	34814	
4999	0	35428	
5000	0	36244	
5001	0	37272	
5002	0	38516	
5003	0	39896	
5004	0	41380	
5005	0	43004	
5006	0	44716	
5007	0	46460	
5008	0	48232	
5009	0	50048	
5010	0	51960	
5011	0	53772	
5012	0	55384	
5013	0	56676	
5014	0	57696	
5015	0	58616	
5016	0	59392	
5017	0	60020	
5018	0	60256	
5019	0	59680	
5020	0	58188	
5021	0	55796	
5022	0	52584	
5023	0	48852	
5024	0	44972	
5025	0	41256	
5026	0	37886	
5027	0	35048	
5028	0	32914	
5029	0	31468	
5030	0	30472	
5031	0	29690	
5032	0	29176	
5033	0	28920	
5034	0	28848	
5035	0	28996	
5036	0	29272	
5037	0	29584	
5038	0	29844	
5039	0	30036	
5040	0	30168	
5041	0	30240	
5042	0	30286	
5043	0	30320	
5044	0	30416	
5045	0	30532	
5046	0	30658	
5047	0	30772	
5048	0	30840	
5049	0	30924	
5050	0	30992	
5051	0	31040	
5052	0	31056	
5053	0	31032	
5054	0	31018	
5055	0	30992	
5056	0	30920	
5057	0	30896	
5058	0	30880	
5059	0	30848	
5060	0	30794	
5061	0	30752	
5062	0	30736	
5063	0	30688	
5064	0	30676	
5065	0	30676	
5066	0	30692	
5067	0	30708	
5068	0	30704	
5069	0	30708	
5070	0	30750	
5071	0	30816	
5072	0	30884	
5073	0	30908	
5074	0	30896	
5075	0	30896	
5076	0	30904	
5077	0	30916	
5078	0	30932	
5079	0	30944	
5080	0	30984	
5081	0	31000	
5082	0	30980	
5083	0	31000	
5084	0	31008	
5085	0	31052	
5086	0	31104	
5087	0	31138	
5088	0	31168	
5089	0	31204	
5090	0	31224	
5091	0	31228	
5092	0	31218	
5093	0	31236	
5094	0	31250	
5095	0	31233	
5096	0	31220	
5097	0	31228	
5098	0	31216	
5099	0	31248	
5100	0	31296	
5101	0	31356	
5102	0	31394	
5103	0	31416	
5104	0	31440	
5105	0	31472	
5106	0	31500	
5107	0	31550	
5108	0	31572	
5109	0	31616	
5110	0	31680	
5111	0	31716	
5112	0	31728	
5113	0	31748	
5114	0	31768	
5115	0	31748	
5116	0	31776	
5117	0	31836	
5118	0	31892	
5119	0	31920	
5120	0	31976	
5121	0	32012	
5122	0	32000	
5123	0	32016	
5124	0	32034	
5125	0	32080	
5126	0	32090	
5127	0	32116	
5128	0	32120	
5129	0	32120	
5130	0	32136	
5131	0	32132	
5132	0	32128	
5133	0	32120	
5134	0	32172	
5135	0	32196	
5136	0	32212	
5137	0	32208	
5138	0	32196	
5139	0	32218	
5140	0	32224	
5141	0	32248	
5142	0	32280	
5143	0	32322	
5144	0	32368	
5145	0	32432	
5146	0	32472	
5147	0	32544	
5148	0	32608	
5149	0	32652	
5150	0	32692	
5151	0	32724	
5152	0	32778	
5153	0	32824	
5154	0	32860	
5155	0	32864	
5156	0	32852	
5157	0	32824	
5158	0	32788	
5159	0	32756	
5160	0	32700	
5161	0	32702	
5162	0	32720	
5163	0	32760	
5164	0	32788	
5165	0	32820	
5166	0	32872	
5167	0	32922	
5168	0	32988	
5169	0	33020	
5170	0	33016	
5171	0	33028	
5172	0	33048	
5173	0	33036	
5174	0	33050	
5175	0	33068	
5176	0	33070	
5177	0	33080	
5178	0	33077	
5179	0	33088	
5180	0	33112	
5181	0	33112	
5182	0	33124	
5183	0	33130	
5184	0	33128	
5185	0	33132	
5186	0	33144	
5187	0	33176	
5188	0	33196	
5189	0	33216	
5190	0	33248	
5191	0	33282	
5192	0	33288	
5193	0	33304	
5194	0	33336	
5195	0	33344	
5196	0	33362	
5197	0	33360	
5198	0	33352	
5199	0	33372	
5200	0	33408	
5201	0	33400	
5202	0	33368	
5203	0	33380	
5204	0	33374	
5205	0	33364	
5206	0	33360	
5207	0	33380	
5208	0	33368	
5209	0	33342	
5210	0	33324	
5211	0	33328	
5212	0	33336	
5213	0	33360	
5214	0	33376	
5215	0	33396	
5216	0	33452	
5217	0	33476	
5218	0	33472	
5219	0	33456	
5220	0	33436	
5221	0	33440	
5222	0	33436	
5223	0	33448	
5224	0	33464	
5225	0	33476	
5226	0	33502	
5227	0	33528	
5228	0	33560	
5229	0	33588	
5230	0	33576	
5231	0	33584	
5232	0	33608	
5233	0	33628	
5234	0	33644	
5235	0	33668	
5236	0	33694	
5237	0	33708	
5238	0	33708	
5239	0	33716	
5240	0	33732	
5241	0	33756	
5242	0	33754	
5243	0	33760	
5244	0	33772	
5245	0	33770	
5246	0	33764	
5247	0	33772	
5248	0	33788	
5249	0	33832	
5250	0	33860	
5251	0	33880	
5252	0	33900	
5253	0	33884	
5254	0	33888	
5255	0	33928	
5256	0	33904	
5257	0	33888	
5258	0	33912	
5259	0	33944	
5260	0	33916	
5261	0	33904	
5262	0	33904	
5263	0	33902	
5264	0	33916	
5265	0	33920	
5266	0	33919	
5267	0	33920	
5268	0	33916	
5269	0	33958	
5270	0	33972	
5271	0	33976	
5272	0	33980	
5273	0	33984	
5274	0	33992	
5275	0	34008	
5276	0	33984	
5277	0	33968	
5278	0	33968	
5279	0	33984	
5280	0	33944	
5281	0	33948	
5282	0	33944	
5283	0	33944	
5284	0	33968	
5285	0	34016	
5286	0	34040	
5287	0	34050	
5288	0	34068	
5289	0	34096	
5290	0	34140	
5291	0	34176	
5292	0	34168	
5293	0	34092	
5294	0	34028	
5295	0	34000	
5296	0	33964	
5297	0	33956	
5298	0	33972	
5299	0	33984	
5300	0	33956	
5301	0	33940	
5302	0	33908	
5303	0	33916	
5304	0	33904	
5305	0	33884	
5306	0	33886	
5307	0	33884	
5308	0	33860	
5309	0	33800	
5310	0	33768	
5311	0	33700	
5312	0	33642	
5313	0	33592	
5314	0	33548	
5315	0	33504	
5316	0	33440	
5317	0	33352	
5318	0	33252	
5319	0	33192	
5320	0	33160	
5321	0	33120	
5322	0	33080	
5323	0	33020	
5324	0	32956	
5325	0	32880	
5326	0	32804	
5327	0	32704	
5328	0	32660	
5329	0	32588	
5330	0	32496	
5331	0	32416	
5332	0	32348	
5333	0	32268	
5334	0	32180	
5335	0	32094	
5336	0	32000	
5337	0	31904	
5338	0	31816	
5339	0	31752	
5340	0	31708	
5341	0	31664	
5342	0	31596	
5343	0	31524	
5344	0	31452	
5345	0	31400	
5346	0	31348	
5347	0	31288	
5348	0	31260	
5349	0	31232	
5350	0	31200	
5351	0	31132	
5352	0	31064	
5353	0	31036	
5354	0	30988	
5355	0	30930	
5356	0	30896	
5357	0	30864	
5358	0	30816	
5359	0	30776	
5360	0	30740	
5361	0	30708	
5362	0	30692	
5363	0	30680	
5364	0	30652	
5365	0	30612	
5366	0	30620	
5367	0	30652	
5368	0	30636	
5369	0	30588	
5370	0	30560	
5371	0	30536	
5372	0	30520	
5373	0	30504	
5374	0	30518	
5375	0	30528	
5376	0	30536	
5377	0	30524	
5378	0	30492	
5379	0	30484	
5380	0	30476	
5381	0	30488	
5382	0	30472	
5383	0	30472	
5384	0	30500	
5385	0	30536	
5386	0	30564	
5387	0	30572	
5388	0	30584	
5389	0	30624	
5390	0	30628	
5391	0	30640	
5392	0	30656	
5393	0	30672	
5394	0	30682	
5395	0	30706	
5396	0	30696	
5397	0	30701	
5398	0	30736	
5399	0	30756	
5400	0	30756	
5401	0	30772	
5402	0	30784	
5403	0	30812	
5404	0	30860	
5405	0	30868	
5406	0	30872	
5407	0	30892	
5408	0	30924	
5409	0	30968	
5410	0	31016	
5411	0	31040	
5412	0	31080	
5413	0	31098	
5414	0	31137	
5415	0	31148	
5416	0	31188	
5417	0	31196	
5418	0	31168	
5419	0	31164	
5420	0	31164	
5421	0	31184	
5422	0	31212	
5423	0	31252	
5424	0	31290	
5425	0	31320	
5426	0	31356	
5427	0	31364	
5428	0	31364	
5429	0	31388	
5430	0	31384	
5431	0	31354	
5432	0	31324	
5433	0	31308	
5434	0	31316	
5435	0	31324	
5436	0	31356	
5437	0	31352	
5438	0	31348	
5439	0	31352	
5440	0	31390	
5441	0	31388	
5442	0	31408	
5443	0	31436	
5444	0	31448	
5445	0	31448	
5446	0	31472	
5447	0	31502	
5448	0	31552	
5449	0	31600	
5450	0	31608	
5451	0	31648	
5452	0	31688	
5453	0	31700	
5454	0	31684	
5455	0	31676	
5456	0	31664	
5457	0	31616	
5458	0	31604	
5459	0	31598	
5460	0	31568	
5461	0	31520	
5462	0	31506	
5463	0	31512	
5464	0	31500	
5465	0	31518	
5466	0	31504	
5467	0	31500	
5468	0	31500	
5469	0	31520	
5470	0	31544	
5471	0	31572	
5472	0	31584	
5473	0	31572	
5474	0	31556	
5475	0	31588	
5476	0	31604	
5477	0	31616	
5478	0	31616	
5479	0	31604	
5480	0	31616	
5481	0	31620	
5482	0	31584	
5483	0	31548	
5484	0	31528	
5485	0	31540	
5486	0	31576	
5487	0	31602	
5488	0	31610	
5489	0	31628	
5490	0	31640	
5491	0	31652	
5492	0	31636	
5493	0	31600	
5494	0	31580	
5495	0	31528	
5496	0	31524	
5497	0	31512	
5498	0	31512	
5499	0	31504	
5500	0	31492	
5501	0	31496	
5502	0	31504	
5503	0	31508	
5504	0	31520	
5505	0	31572	
5506	0	31592	
5507	0	31616	
5508	0	31612	
5509	0	31616	
5510	0	31628	
5511	0	31616	
5512	0	31624	
5513	0	31624	
5514	0	31608	
5515	0	31590	
5516	0	31560	
5517	0	31542	
5518	0	31514	
5519	0	31490	
5520	0	31484	
5521	0	31492	
5522	0	31512	
5523	0	31524	
5524	0	31536	
5525	0	31536	
5526	0	31544	
5527	0	31552	
5528	0	31554	
5529	0	31584	
5530	0	31604	
5531	0	31608	
5532	0	31604	
5533	0	31566	
5534	0	31556	
5535	0	31576	
5536	0	31592	
5537	0	31596	
5538	0	31612	
5539	0	31620	
5540	0	31608	
5541	0	31612	
5542	0	31620	
5543	0	31628	
5544	0	31656	
5545	0	31712	
5546	0	31772	
5547	0	31752	
5548	0	31732	
5549	0	31728	
5550	0	31764	
5551	0	31792	
5552	0	31772	
5553	0	31756	
5554	0	31752	
5555	0	31728	
5556	0	31720	
5557	0	31692	
5558	0	31696	
5559	0	31712	
5560	0	31724	
5561	0	31696	
5562	0	31684	
5563	0	31664	
5564	0	31680	
5565	0	31712	
5566	0	31740	
5567	0	31752	
5568	0	31776	
5569	0	31796	
5570	0	31804	
5571	0	31808	
5572	0	31800	
5573	0	31778	
5574	0	31786	
5575	0	31774	
5576	0	31776	
5577	0	31776	
5578	0	31808	
5579	0	31836	
5580	0	31860	
5581	0	31872	
5582	0	31884	
5583	0	31876	
5584	0	31862	
5585	0	31872	
5586	0	31864	
5587	0	31840	
5588	0	31836	
5589	0	31848	
5590	0	31872	
5591	0	31888	
5592	0	31924	
5593	0	31952	
5594	0	31940	
5595	0	31916	
5596	0	31898	
5597	0	31880	
5598	0	31896	
5599	0	31908	
5600	0	31884	
5601	0	31916	
5602	0	31920	
5603	0	31924	
5604	0	31932	
5605	0	31940	
5606	0	31944	
5607	0	31944	
5608	0	31940	
5609	0	31944	
5610	0	31964	
5611	0	31960	
5612	0	31984	
5613	0	32002	
5614	0	32008	
5615	0	32038	
5616	0	32068	
5617	0	32092	
5618	0	32104	
5619	0	32096	
5620	0	32072	
5621	0	32074	
5622	0	32096	
5623	0	32110	
5624	0	32108	
5625	0	32108	
5626	0	32112	
5627	0	32096	
5628	0	32128	
5629	0	32136	
5630	0	32130	
5631	0	32132	
5632	0	32154	
5633	0	32186	
5634	0	32204	
5635	0	32220	
5636	0	32240	
5637	0	32244	
5638	0	32236	
5639	0	32236	
5640	0	32236	
5641	0	32272	
5642	0	32280	
5643	0	32272	
5644	0	32262	
5645	0	32272	
5646	0	32296	
5647	0	32312	
5648	0	32292	
5649	0	32290	
5650	0	32312	
5651	0	32332	
5652	0	32356	
5653	0	32336	
5654	0	32320	
5655	0	32340	
5656	0	32353	
5657	0	32332	
5658	0	32304	
5659	0	32296	
5660	0	32288	
5661	0	32280	
5662	0	32264	
5663	0	32260	
5664	0	32270	
5665	0	32264	
5666	0	32280	
5667	0	32288	
5668	0	32266	
5669	0	32260	
5670	0	32256	
5671	0	32280	
5672	0	32320	
5673	0	32356	
5674	0	32360	
5675	0	32362	
5676	0	32394	
5677	0	32424	
5678	0	32456	
5679	0	32464	
5680	0	32492	
5681	0	32488	
5682	0	32504	
5683	0	32502	
5684	0	32520	
5685	0	32534	
5686	0	32544	
5687	0	32532	
5688	0	32516	
5689	0	32496	
5690	0	32498	
5691	0	32484	
5692	0	32496	
5693	0	32488	
5694	0	32488	
5695	0	32496	
5696	0	32488	
5697	0	32480	
5698	0	32494	
5699	0	32480	
5700	0	32486	
5701	0	32488	
5702	0	32484	
5703	0	32488	
5704	0	32466	
5705	0	32460	
5706	0	32448	
5707	0	32468	
5708	0	32468	
5709	0	32504	
5710	0	32546	
5711	0	32576	
5712	0	32592	
5713	0	32608	
5714	0	32612	
5715	0	32604	
5716	0	32612	
5717	0	32624	
5718	0	32608	
5719	0	32628	
5720	0	32644	
5721	0	32664	
5722	0	32652	
5723	0	32612	
5724	0	32584	
5725	0	32600	
5726	0	32608	
5727	0	32616	
5728	0	32618	
5729	0	32632	
5730	0	32648	
5731	0	32636	
5732	0	32652	
5733	0	32648	
5734	0	32656	
5735	0	32652	
5736	0	32664	
5737	0	32644	
5738	0	32624	
5739	0	32620	
5740	0	32634	
5741	0	32648	
5742	0	32640	
5743	0	32636	
5744	0	32648	
5745	0	32652	
5746	0	32644	
5747	0	32640	
5748	0	32644	
5749	0	32640	
5750	0	32640	
5751	0	32682	
5752	0	32692	
5753	0	32688	
5754	0	32680	
5755	0	32698	
5756	0	32700	
5757	0	32708	
5758	0	32728	
5759	0	32732	
5760	0	32740	
5761	0	32710	
5762	0	32672	
5763	0	32632	
5764	0	32616	
5765	0	32608	
5766	0	32620	
5767	0	32648	
5768	0	32674	
5769	0	32692	
5770	0	32696	
5771	0	32680	
5772	0	32680	
5773	0	32704	
5774	0	32744	
5775	0	32748	
5776	0	32784	
5777	0	32812	
5778	0	32788	
5779	0	32752	
5780	0	32726	
5781	0	32708	
5782	0	32716	
5783	0	32732	
5784	0	32732	
5785	0	32736	
5786	0	32748	
5787	0	32748	
5788	0	32775	
5789	0	32764	
5790	0	32768	
5791	0	32792	
5792	0	32800	
5793	0	32800	
5794	0	32790	
5795	0	32800	
5796	0	32832	
5797	0	32856	
5798	0	32874	
5799	0	32868	
5800	0	32832	
5801	0	32832	
5802	0	32818	
5803	0	32808	
5804	0	32820	
5805	0	32844	
5806	0	32844	
5807	0	32852	
5808	0	32844	
5809	0	32800	
5810	0	32784	
5811	0	32752	
5812	0	32752	
5813	0	32724	
5814	0	32704	
5815	0	32724	
5816	0	32760	
5817	0	32786	
5818	0	32794	
5819	0	32784	
5820	0	32744	
5821	0	32768	
5822	0	32774	
5823	0	32772	
5824	0	32784	
5825	0	32772	
5826	0	32794	
5827	0	32836	
5828	0	32864	
5829	0	32904	
5830	0	32948	
5831	0	32976	
5832	0	33016	
5833	0	33064	
5834	0	33112	
5835	0	33124	
5836	0	33148	
5837	0	33152	
5838	0	33152	
5839	0	33140	
5840	0	33112	
5841	0	33090	
5842	0	33052	
5843	0	33044	
5844	0	33036	
5845	0	33036	
5846	0	33022	
5847	0	33008	
5848	0	33004	
5849	0	33036	
5850	0	33082	
5851	0	33120	
5852	0	33196	
5853	0	33286	
5854	0	33392	
5855	0	33532	
5856	0	33672	
5857	0	33828	
5858	0	33982	
5859	0	34112	
5860	0	34216	
5861	0	34300	
5862	0	34352	
5863	0	34400	
5864	0	34444	
5865	0	34440	
5866	0	34424	
5867	0	34426	
5868	0	34474	
5869	0	34516	
5870	0	34520	
5871	0	34472	
5872	0	34380	
5873	0	34280	
5874	0	34192	
5875	0	34116	
5876	0	34032	
5877	0	33924	
5878	0	33808	
5879	0	33692	
5880	0	33616	
5881	0	33564	
5882	0	33512	
5883	0	33496	
5884	0	33428	
5885	0	33384	
5886	0	33364	
5887	0	33348	
5888	0	33298	
5889	0	33248	
5890	0	33182	
5891	0	33144	
5892	0	33092	
5893	0	33052	
5894	0	33038	
5895	0	33008	
5896	0	32992	
5897	0	33012	
5898	0	33032	
5899	0	33000	
5900	0	32978	
5901	0	32972	
5902	0	32964	
5903	0	32956	
5904	0	32940	
5905	0	32936	
5906	0	32932	
5907	0	32964	
5908	0	32992	
5909	0	32996	
5910	0	32950	
5911	0	32864	
5912	0	32780	
5913	0	32736	
5914	0	32668	
5915	0	32634	
5916	0	32600	
5917	0	32544	
5918	0	32528	
5919	0	32544	
5920	0	32560	
5921	0	32540	
5922	0	32540	
5923	0	32540	
5924	0	32545	
5925	0	32546	
5926	0	32516	
5927	0	32508	
5928	0	32488	
5929	0	32448	
5930	0	32452	
5931	0	32450	
5932	0	32474	
5933	0	32452	
5934	0	32450	
5935	0	32460	
5936	0	32448	
5937	0	32448	
5938	0	32412	
5939	0	32376	
5940	0	32360	
5941	0	32372	
5942	0	32412	
5943	0	32432	
5944	0	32448	
5945	0	32480	
5946	0	32484	
5947	0	32480	
5948	0	32496	
5949	0	32512	
5950	0	32524	
5951	0	32532	
5952	0	32516	
5953	0	32480	
5954	0	32456	
5955	0	32460	
5956	0	32476	
5957	0	32510	
5958	0	32536	
5959	0	32568	
5960	0	32580	
5961	0	32592	
5962	0	32584	
5963	0	32556	
5964	0	32568	
5965	0	32578	
5966	0	32560	
5967	0	32572	
5968	0	32576	
5969	0	32584	
5970	0	32576	
5971	0	32560	
5972	0	32576	
5973	0	32600	
5974	0	32624	
5975	0	32672	
5976	0	32684	
5977	0	32688	
5978	0	32710	
5979	0	32724	
5980	0	32740	
5981	0	32776	
5982	0	32836	
5983	0	32888	
5984	0	32876	
5985	0	32892	
5986	0	32888	
5987	0	32810	
5988	0	32680	
5989	0	32488	
5990	0	32312	
5991	0	32172	
5992	0	32092	
5993	0	32158	
5994	0	32384	
5995	0	32700	
5996	0	33028	
5997	0	33386	
5998	0	33740	
5999	0	34080	
6000	0	34400	
6001	0	34588	
6002	0	34764	
6003	0	35076	
6004	0	35548	
6005	0	36280	
6006	0	37204	
6007	0	38272	
6008	0	39508	
6009	0	40876	
6010	0	42392	
6011	0	44020	
6012	0	45728	
6013	0	47428	
6014	0	49180	
6015	0	51004	
6016	0	52736	
6017	0	54288	
6018	0	55632	
6019	0	56668	
6020	0	57560	
6021	0	58528	
6022	0	59416	
6023	0	59912	
6024	0	59724	
6025	0	58564	
6026	0	56368	
6027	0	53352	
6028	0	49776	
6029	0	45880	
6030	0	42048	
6031	0	38516	
6032	0	35612	
6033	0	33492	
6034	0	32040	
6035	0	30996	
6036	0	30288	
6037	0	29782	
6038	0	29436	
6039	0	29256	
6040	0	29232	
6041	0	29388	
6042	0	29632	
6043	0	29848	
6044	0	29992	
6045	0	30128	
6046	0	30232	
6047	0	30272	
6048	0	30348	
6049	0	30472	
6050	0	30624	
6051	0	30752	
6052	0	30780	
6053	0	30794	
6054	0	30768	
6055	0	30744	
6056	0	30748	
6057	0	30756	
6058	0	30752	
6059	0	30728	
6060	0	30700	
6061	0	30656	
6062	0	30620	
6063	0	30592	
6064	0	30584	
6065	0	30588	
6066	0	30572	
6067	0	30572	
6068	0	30588	
6069	0	30570	
6070	0	30564	
6071	0	30564	
6072	0	30584	
6073	0	30600	
6074	0	30604	
6075	0	30620	
6076	0	30596	
6077	0	30604	
6078	0	30648	
6079	0	30656	
6080	0	30656	
6081	0	30680	
6082	0	30700	
6083	0	30720	
6084	0	30720	
6085	0	30762	
6086	0	30788	
6087	0	30816	
6088	0	30836	
6089	0	30852	
6090	0	30864	
6091	0	30912	
6092	0	30940	
6093	0	30956	
6094	0	30972	
6095	0	30992	
6096	0	31036	
6097	0	31072	
6098	0	31082	
6099	0	31088	
6100	0	31104	
6101	0	31128	
6102	0	31130	
6103	0	31128	
6104	0	31144	
6105	0	31164	
6106	0	31160	
6107	0	31192	
6108	0	31248	
6109	0	31290	
6110	0	31312	
6111	0	31320	
6112	0	31336	
6113	0	31336	
6114	0	31364	
6115	0	31392	
6116	0	31388	
6117	0	31392	
6118	0	31424	
6119	0	31454	
6120	0	31456	
6121	0	31444	
6122	0	31460	
6123	0	31500	
6124	0	31552	
6125	0	31606	
6126	0	31640	
6127	0	31696	
6128	0	31742	
6129	0	31788	
6130	0	31826	
6131	0	31852	
6132	0	31876	
6133	0	31888	
6134	0	31888	
6135	0	31928	
6136	0	31980	
6137	0	32040	
6138	0	32078	
6139	0	32104	
6140	0	32128	
6141	0	32148	
6142	0	32140	
6143	0	32172	
6144	0	32200	
6145	0	32232	
6146	0	32256	
6147	0	32256	
6148	0	32274	
6149	0	32280	
6150	0	32272	
6151	0	32284	
6152	0	32332	
6153	0	32364	
6154	0	32376	
6155	0	32396	
6156	0	32432	
6157	0	32468	
6158	0	32488	
6159	0	32504	
6160	0	32516	
6161	0	32528	
6162	0	32532	
6163	0	32536	
6164	0	32568	
6165	0	32608	
6166	0	32636	
6167	0	32632	
6168	0	32652	
6169	0	32688	
6170	0	32720	
6171	0	32724	
6172	0	32732	
6173	0	32742	
6174	0	32768	
6175	0	32800	
6176	0	32812	
6177	0	32832	
6178	0	32816	
6179	0	32816	
6180	0	32808	
6181	0	32820	
6182	0	32836	
6183	0	32832	
6184	0	32880	
6185	0	32896	
6186	0	32908	
6187	0	32944	
6188	0	32964	
6189	0	32976	
6190	0	32986	
6191	0	33004	
6192	0	33040	
6193	0	33076	
6194	0	33108	
6195	0	33132	
6196	0	33152	
6197	0	33192	
6198	0	33216	
6199	0	33216	
6200	0	33198	
6201	0	33148	
6202	0	33120	
6203	0	33144	
6204	0	33196	
6205	0	33224	
6206	0	33248	
6207	0	33248	
6208	0	33268	
6209	0	33258	
6210	0	33276	
6211	0	33312	
6212	0	33334	
6213	0	33332	
6214	0	33316	
6215	0	33312	
6216	0	33328	
6217	0	33336	
6218	0	33340	
6219	0	33344	
6220	0	33356	
6221	0	33360	
6222	0	33348	
6223	0	33392	
6224	0	33412	
6225	0	33448	
6226	0	33456	
6227	0	33460	
6228	0	33446	
6229	0	33456	
6230	0	33466	
6231	0	33472	
6232	0	33496	
6233	0	33504	
6234	0	33512	
6235	0	33516	
6236	0	33540	
6237	0	33548	
6238	0	33584	
6239	0	33616	
6240	0	33616	
6241	0	33628	
6242	0	33624	
6243	0	33640	
6244	0	33652	
6245	0	33670	
6246	0	33700	
6247	0	33752	
6248	0	33772	
6249	0	33780	
6250	0	33792	
6251	0	33808	
6252	0	33840	
6253	0	33848	
6254	0	33848	
6255	0	33796	
6256	0	33768	
6257	0	33760	
6258	0	33752	
6259	0	33768	
6260	0	33788	
6261	0	33800	
6262	0	33816	
6263	0	33828	
6264	0	33844	
6265	0	33844	
6266	0	33846	
6267	0	33836	
6268	0	33840	
6269	0	33848	
6270	0	33872	
6271	0	33860	
6272	0	33884	
6273	0	33900	
6274	0	33900	
6275	0	33916	
6276	0	33936	
6277	0	33944	
6278	0	33964	
6279	0	33968	
6280	0	33952	
6281	0	33952	
6282	0	33924	
6283	0	33952	
6284	0	33960	
6285	0	33980	
6286	0	33996	
6287	0	34050	
6288	0	34060	
6289	0	34068	
6290	0	34082	
6291	0	34088	
6292	0	34080	
6293	0	34094	
6294	0	34096	
6295	0	34076	
6296	0	34048	
6297	0	34032	
6298	0	34032	
6299	0	34020	
6300	0	33992	
6301	0	34000	
6302	0	33968	
6303	0	33948	
6304	0	33936	
6305	0	33930	
6306	0	33912	
6307	0	33896	
6308	0	33920	
6309	0	33902	
6310	0	33900	
6311	0	33868	
6312	0	33824	
6313	0	33760	
6314	0	33752	
6315	0	33724	
6316	0	33708	
6317	0	33680	
6318	0	33626	
6319	0	33588	
6320	0	33530	
6321	0	33456	
6322	0	33404	
6323	0	33340	
6324	0	33304	
6325	0	33232	
6326	0	33180	
6327	0	33114	
6328	0	33056	
6329	0	32944	
6330	0	32876	
6331	0	32808	
6332	0	32744	
6333	0	32684	
6334	0	32600	
6335	0	32532	
6336	0	32436	
6337	0	32348	
6338	0	32268	
6339	0	32188	
6340	0	32088	
6341	0	32000	
6342	0	31900	
6343	0	31848	
6344	0	31800	
6345	0	31728	
6346	0	31664	
6347	0	31592	
6348	0	31536	
6349	0	31488	
6350	0	31444	
6351	0	31392	
6352	0	31336	
6353	0	31280	
6354	0	31228	
6355	0	31166	
6356	0	31108	
6357	0	31072	
6358	0	31052	
6359	0	31036	
6360	0	30992	
6361	0	30936	
6362	0	30912	
6363	0	30896	
6364	0	30888	
6365	0	30888	
6366	0	30876	
6367	0	30828	
6368	0	30804	
6369	0	30784	
6370	0	30756	
6371	0	30732	
6372	0	30719	
6373	0	30688	
6374	0	30664	
6375	0	30656	
6376	0	30628	
6377	0	30608	
6378	0	30588	
6379	0	30564	
6380	0	30548	
6381	0	30530	
6382	0	30540	
6383	0	30584	
6384	0	30604	
6385	0	30616	
6386	0	30640	
6387	0	30652	
6388	0	30664	
6389	0	30660	
6390	0	30676	
6391	0	30668	
6392	0	30674	
6393	0	30696	
6394	0	30712	
6395	0	30760	
6396	0	30776	
6397	0	30780	
6398	0	30796	
6399	0	30828	
6400	0	30856	
6401	0	30880	
6402	0	30908	
6403	0	30932	
6404	0	30972	
6405	0	30984	
6406	0	31020	
6407	0	31044	
6408	0	31036	
6409	0	31028	
6410	0	31042	
6411	0	31056	
6412	0	31096	
6413	0	31096	
6414	0	31084	
6415	0	31084	
6416	0	31102	
6417	0	31132	
6418	0	31154	
6419	0	31160	
6420	0	31148	
6421	0	31136	
6422	0	31152	
6423	0	31148	
6424	0	31140	
6425	0	31164	
6426	0	31180	
6427	0	31220	
6428	0	31256	
6429	0	31282	
6430	0	31316	
6431	0	31320	
6432	0	31320	
6433	0	31324	
6434	0	31336	
6435	0	31356	
6436	0	31396	
6437	0	31412	
6438	0	31440	
6439	0	31460	
6440	0	31460	
6441	0	31448	
6442	0	31466	
6443	0	31514	
6444	0	31540	
6445	0	31552	
6446	0	31556	
6447	0	31556	
6448	0	31568	
6449	0	31584	
6450	0	31600	
6451	0	31608	
6452	0	31628	
6453	0	31636	
6454	0	31620	
6455	0	31642	
6456	0	31624	
6457	0	31624	
6458	0	31636	
6459	0	31642	
6460	0	31656	
6461	0	31672	
6462	0	31708	
6463	0	31720	
6464	0	31756	
6465	0	31744	
6466	0	31720	
6467	0	31688	
6468	0	31668	
6469	0	31672	
6470	0	31696	
6471	0	31716	
6472	0	31736	
6473	0	31744	
6474	0	31758	
6475	0	31768	
6476	0	31772	
6477	0	31760	
6478	0	31772	
6479	0	31768	
6480	0	31760	
6481	0	31752	
6482	0	31722	
6483	0	31716	
6484	0	31704	
6485	0	31704	
6486	0	31718	
6487	0	31724	
6488	0	31736	
6489	0	31744	
6490	0	31736	
6491	0	31758	
6492	0	31768	
6493	0	31776	
6494	0	31788	
6495	0	31772	
6496	0	31760	
6497	0	31736	
6498	0	31740	
6499	0	31744	
6500	0	31722	
6501	0	31724	
6502	0	31712	
6503	0	31728	
6504	0	31750	
6505	0	31768	
6506	0	31788	
6507	0	31784	
6508	0	31792	
6509	0	31788	
6510	0	31812	
6511	0	31816	
6512	0	31824	
6513	0	31820	
6514	0	31820	
6515	0	31820	
6516	0	31820	
6517	0	31788	
6518	0	31780	
6519	0	31784	
6520	0	31760	
6521	0	31744	
6522	0	31732	
6523	0	31728	
6524	0	31770	
6525	0	31770	
6526	0	31758	
6527	0	31756	
6528	0	31760	
6529	0	31776	
6530	0	31800	
6531	0	31820	
6532	0	31840	
6533	0	31870	
6534	0	31852	
6535	0	31840	
6536	0	31842	
6537	0	31844	
6538	0	31848	
6539	0	31864	
6540	0	31870	
6541	0	31884	
6542	0	31876	
6543	0	31864	
6544	0	31848	
6545	0	31872	
6546	0	31876	
6547	0	31872	
6548	0	31880	
6549	0	31868	
6550	0	31872	
6551	0	31856	
6552	0	31844	
6553	0	31840	
6554	0	31868	
6555	0	31876	
6556	0	31876	
6557	0	31892	
6558	0	31904	
6559	0	31904	
6560	0	31928	
6561	0	31948	
6562	0	31962	
6563	0	31948	
6564	0	31964	
6565	0	31980	
6566	0	32008	
6567	0	31988	
6568	0	31968	
6569	0	31960	
6570	0	31968	
6571	0	31968	
6572	0	31976	
6573	0	31992	
6574	0	32002	
6575	0	31974	
6576	0	31960	
6577	0	31956	
6578	0	31956	
6579	0	31960	
6580	0	31976	
6581	0	31980	
6582	0	31984	
6583	0	32008	
6584	0	32012	
6585	0	32014	
6586	0	31998	
6587	0	31968	
6588	0	31992	
6589	0	31996	
6590	0	31992	
6591	0	32004	
6592	0	32000	
6593	0	32000	
6594	0	32040	
6595	0	32040	
6596	0	32032	
6597	0	32016	
6598	0	32020	
6599	0	32040	
6600	0	32048	
6601	0	32048	
6602	0	32056	
6603	0	32076	
6604	0	32116	
6605	0	32126	
6606	0	32140	
6607	0	32148	
6608	0	32144	
6609	0	32172	
6610	0	32196	
6611	0	32226	
6612	0	32248	
6613	0	32260	
6614	0	32263	
6615	0	32262	
6616	0	32256	
6617	0	32260	
6618	0	32272	
6619	0	32276	
6620	0	32268	
6621	0	32236	
6622	0	32240	
6623	0	32268	
6624	0	32284	
6625	0	32304	
6626	0	32280	
6627	0	32272	
6628	0	32280	
6629	0	32284	
6630	0	32312	
6631	0	32336	
6632	0	32336	
6633	0	32324	
6634	0	32344	
6635	0	32336	
6636	0	32304	
6637	0	32300	
6638	0	32308	
6639	0	32312	
6640	0	32328	
6641	0	32364	
6642	0	32364	
6643	0	32372	
6644	0	32404	
6645	0	32424	
6646	0	32448	
6647	0	32440	
6648	0	32420	
6649	0	32396	
6650	0	32380	
6651	0	32376	
6652	0	32412	
6653	0	32432	
6654	0	32424	
6655	0	32428	
6656	0	32426	
6657	0	32432	
6658	0	32428	
6659	0	32422	
6660	0	32416	
6661	0	32418	
6662	0	32424	
6663	0	32428	
6664	0	32444	
6665	0	32440	
6666	0	32436	
6667	0	32484	
6668	0	32504	
6669	0	32482	
6670	0	32470	
6671	0	32480	
6672	0	32504	
6673	0	32520	
6674	0	32544	
6675	0	32548	
6676	0	32552	
6677	0	32560	
6678	0	32572	
6679	0	32608	
6680	0	32612	
6681	0	32608	
6682	0	32604	
6683	0	32596	
6684	0	32612	
6685	0	32624	
6686	0	32600	
6687	0	32592	
6688	0	32596	
6689	0	32632	
6690	0	32640	
6691	0	32648	
6692	0	32672	
6693	0	32672	
6694	0	32668	
6695	0	32696	
6696	0	32700	
6697	0	32700	
6698	0	32704	
6699	0	32700	
6700	0	32676	
6701	0	32652	
6702	0	32652	
6703	0	32656	
6704	0	32680	
6705	0	32700	
6706	0	32696	
6707	0	32696	
6708	0	32696	
6709	0	32724	
6710	0	32720	
6711	0	32744	
6712	0	32748	
6713	0	32762	
6714	0	32740	
6715	0	32748	
6716	0	32746	
6717	0	32736	
6718	0	32720	
6719	0	32736	
6720	0	32728	
6721	0	32736	
6722	0	32716	
6723	0	32736	
6724	0	32736	
6725	0	32756	
6726	0	32744	
6727	0	32740	
6728	0	32736	
6729	0	32720	
6730	0	32744	
6731	0	32760	
6732	0	32756	
6733	0	32752	
6734	0	32732	
6735	0	32736	
6736	0	32764	
6737	0	32802	
6738	0	32848	
6739	0	32860	
6740	0	32860	
6741	0	32852	
6742	0	32832	
6743	0	32820	
6744	0	32820	
6745	0	32834	
6746	0	32842	
6747	0	32826	
6748	0	32820	
6749	0	32832	
6750	0	32844	
6751	0	32872	
6752	0	32884	
6753	0	32904	
6754	0	32936	
6755	0	32928	
6756	0	32904	
6757	0	32904	
6758	0	32872	
6759	0	32856	
6760	0	32860	
6761	0	32866	
6762	0	32876	
6763	0	32880	
6764	0	32880	
6765	0	32860	
6766	0	32872	
6767	0	32892	
6768	0	32896	
6769	0	32888	
6770	0	32880	
6771	0	32912	
6772	0	32904	
6773	0	32944	
6774	0	32980	
6775	0	32992	
6776	0	33016	
6777	0	33008	
6778	0	32980	
6779	0	32980	
6780	0	32976	
6781	0	32960	
6782	0	32946	
6783	0	32926	
6784	0	32964	
6785	0	32992	
6786	0	33016	
6787	0	33004	
6788	0	32986	
6789	0	32972	
6790	0	32980	
6791	0	32972	
6792	0	32984	
6793	0	32964	
6794	0	32948	
6795	0	32952	
6796	0	32936	
6797	0	32928	
6798	0	32936	
6799	0	32950	
6800	0	32980	
6801	0	32988	
6802	0	32984	
6803	0	33008	
6804	0	33022	
6805	0	33048	
6806	0	33064	
6807	0	33048	
6808	0	33048	
6809	0	33026	
6810	0	33004	
6811	0	33024	
6812	0	33018	
6813	0	33044	
6814	0	33040	
6815	0	32990	
6816	0	32972	
6817	0	32984	
6818	0	32972	
6819	0	32968	
6820	0	32962	
6821	0	32948	
6822	0	32948	
6823	0	32972	
6824	0	32992	
6825	0	32992	
6826	0	33004	
6827	0	33036	
6828	0	33044	
6829	0	33044	
6830	0	33048	
6831	0	33050	
6832	0	33056	
6833	0	33056	
6834	0	33064	
6835	0	33088	
6836	0	33116	
6837	0	33116	
6838	0	33096	
6839	0	33102	
6840	0	33084	
6841	0	33082	
6842	0	33116	
6843	0	33120	
6844	0	33096	
6845	0	33092	
6846	0	33104	
6847	0	33104	
6848	0	33088	
6849	0	33052	
6850	0	33044	
6851	0	33016	
6852	0	33032	
6853	0	33032	
6854	0	33024	
6855	0	33036	
6856	0	33048	
6857	0	33056	
6858	0	33072	
6859	0	33060	
6860	0	33024	
6861	0	33036	
6862	0	33016	
6863	0	33008	
6864	0	33032	
6865	0	33048	
6866	0	33008	
6867	0	33008	
6868	0	33024	
6869	0	33052	
6870	0	33088	
6871	0	33104	
6872	0	33100	
6873	0	33116	
6874	0	33104	
6875	0	33108	
6876	0	33108	
6877	0	33128	
6878	0	33132	
6879	0	33120	
6880	0	33092	
6881	0	33080	
6882	0	33070	
6883	0	33056	
6884	0	33048	
6885	0	33054	
6886	0	33076	
6887	0	33104	
6888	0	33120	
6889	0	33092	
6890	0	33080	
6891	0	33088	
6892	0	33088	
6893	0	33124	
6894	0	33134	
6895	0	33124	
6896	0	33124	
6897	0	33148	
6898	0	33144	
6899	0	33136	
6900	0	33112	
6901	0	33088	
6902	0	33088	
6903	0	33072	
6904	0	33056	
6905	0	33040	
6906	0	33064	
6907	0	33084	
6908	0	33072	
6909	0	33080	
6910	0	33076	
6911	0	33096	
6912	0	33112	
6913	0	33128	
6914	0	33096	
6915	0	33052	
6916	0	33000	
6917	0	33008	
6918	0	33040	
6919	0	33076	
6920	0	33084	
6921	0	33092	
6922	0	33108	
6923	0	33112	
6924	0	33096	
6925	0	33088	
6926	0	33096	
6927	0	33108	
6928	0	33128	
6929	0	33168	
6930	0	33216	
6931	0	33276	
6932	0	33344	
6933	0	33396	
6934	0	33416	
6935	0	33456	
6936	0	33472	
6937	0	33484	
6938	0	33482	
6939	0	33480	
6940	0	33448	
6941	0	33432	
6942	0	33408	
6943	0	33412	
6944	0	33432	
6945	0	33428	
6946	0	33420	
6947	0	33396	
6948	0	33384	
6949	0	33376	
6950	0	33428	
6951	0	33484	
6952	0	33552	
6953	0	33664	
6954	0	33800	
6955	0	33942	
6956	0	34054	
6957	0	34172	
6958	0	34256	
6959	0	34338	
6960	0	34436	
6961	0	34506	
6962	0	34536	
6963	0	34560	
6964	0	34540	
6965	0	34516	
6966	0	34524	
6967	0	34552	
6968	0	34592	
6969	0	34608	
6970	0	34596	
6971	0	34544	
6972	0	34492	
6973	0	34398	
6974	0	34312	
6975	0	34208	
6976	0	34100	
6977	0	33996	
6978	0	33908	
6979	0	33828	
6980	0	33762	
6981	0	33712	
6982	0	33672	
6983	0	33626	
6984	0	33592	
6985	0	33556	
6986	0	33532	
6987	0	33508	
6988	0	33464	
6989	0	33424	
6990	0	33396	
6991	0	33362	
6992	0	33348	
6993	0	33320	
6994	0	33292	
6995	0	33264	
6996	0	33248	
6997	0	33240	
6998	0	33268	
6999	0	33256	
7000	0	33244	
7001	0	33236	
7002	0	33220	
7003	0	33204	
7004	0	33216	
7005	0	33200	
7006	0	33168	
7007	0	33152	
7008	0	33148	
7009	0	33156	
7010	0	33144	
7011	0	33088	
7012	0	32984	
7013	0	32872	
7014	0	32784	
7015	0	32728	
7016	0	32666	
7017	0	32664	
7018	0	32660	
7019	0	32680	
7020	0	32672	
7021	0	32668	
7022	0	32680	
7023	0	32654	
7024	0	32636	
7025	0	32610	
7026	0	32584	
7027	0	32560	
7028	0	32536	
7029	0	32532	
7030	0	32560	
7031	0	32572	
7032	0	32560	
7033	0	32564	
7034	0	32576	
7035	0	32564	
7036	0	32570	
7037	0	32568	
7038	0	32560	
7039	0	32570	
7040	0	32568	
7041	0	32554	
7042	0	32560	
7043	0	32576	
7044	0	32588	
7045	0	32596	
7046	0	32604	
7047	0	32608	
7048	0	32620	
7049	0	32616	
7050	0	32628	
7051	0	32604	
7052	0	32596	
7053	0	32576	
7054	0	32564	
7055	0	32584	
7056	0	32576	
7057	0	32578	
7058	0	32576	
7059	0	32576	
7060	0	32560	
7061	0	32544	
7062	0	32528	
7063	0	32536	
7064	0	32568	
7065	0	32596	
7066	0	32608	
7067	0	32632	
7068	0	32644	
7069	0	32642	
7070	0	32680	
7071	0	32666	
7072	0	32688	
7073	0	32688	
7074	0	32660	
7075	0	32642	
7076	0	32620	
7077	0	32640	
7078	0	32646	
7079	0	32658	
7080	0	32684	
7081	0	32748	
7082	0	32784	
7083	0	32800	
7084	0	32804	
7085	0	32796	
7086	0	32732	
7087	0	32624	
7088	0	32496	
7089	0	32368	
7090	0	32270	
7091	0	32196	
7092	0	32280	
7093	0	32508	
7094	0	32804	
7095	0	33112	
7096	0	33436	
7097	0	33796	
7098	0	34112	
7099	0	34408	
7100	0	34592	
7101	0	34756	
7102	0	35004	
7103	0	35420	
7104	0	36072	
7105	0	36888	
7106	0	37868	
7107	0	39028	
7108	0	40336	
7109	0	41720	
7110	0	43260	
7111	0	44840	
7112	0	46488	
7113	0	48184	
7114	0	49928	
7115	0	51568	
7116	0	53004	
7117	0	54252	
7118	0	55272	
7119	0	56200	
7120	0	57280	
7121	0	58152	
7122	0	58652	
7123	0	58480	
7124	0	57292	
7125	0	54984	
7126	0	52064	
7127	0	48588	
7128	0	44836	
7129	0	41200	
7130	0	37956	
7131	0	35416	
7132	0	33596	
7133	0	32320	
7134	0	31464	
7135	0	30920	
7136	0	30528	
7137	0	30252	
7138	0	30112	
7139	0	30072	
7140	0	30092	
7141	0	30184	
7142	0	30280	
7143	0	30328	
7144	0	30384	
7145	0	30408	
7146	0	30424	
7147	0	30436	
7148	0	30544	
7149	0	30668	
7150	0	30804	
7151	0	30878	
7152	0	30928	
7153	0	30960	
7154	0	30964	
7155	0	30952	
7156	0	30928	
7157	0	30880	
7158	0	30834	
7159	0	30812	
7160	0	30768	
7161	0	30744	
7162	0	30696	
7163	0	30664	
7164	0	30588	
7165	0	30556	
7166	0	30548	
7167	0	30532	
7168	0	30536	
7169	0	30524	
7170	0	30536	
7171	0	30552	
7172	0	30572	
7173	0	30588	
7174	0	30592	
7175	0	30604	
7176	0	30624	
7177	0	30612	
7178	0	30612	
7179	0	30628	
7180	0	30648	
7181	0	30680	
7182	0	30704	
7183	0	30724	
7184	0	30764	
7185	0	30784	
7186	0	30820	
7187	0	30872	
7188	0	30912	
7189	0	30920	
7190	0	30944	
7191	0	30972	
7192	0	30984	
7193	0	31020	
7194	0	31034	
7195	0	31042	
7196	0	31048	
7197	0	31060	
7198	0	31084	
7199	0	31092	
7200	0	31096	
7201	0	31114	
7202	0	31134	
7203	0	31160	
7204	0	31212	
7205	0	31237	
7206	0	31272	
7207	0	31300	
7208	0	31308	
7209	0	31368	
7210	0	31404	
7211	0	31440	
7212	0	31448	
7213	0	31460	
7214	0	31476	
7215	0	31496	
7216	0	31528	
7217	0	31540	
7218	0	31562	
7219	0	31614	
7220	0	31650	
7221	0	31696	
7222	0	31712	
7223	0	31720	
7224	0	31724	
7225	0	31744	
7226	0	31752	
7227	0	31768	
7228	0	31768	
7229	0	31792	
7230	0	31832	
7231	0	31848	
7232	0	31888	
7233	0	31922	
7234	0	31960	
7235	0	32000	
7236	0	31996	
7237	0	31972	
7238	0	31994	
7239	0	32032	
7240	0	32040	
7241	0	32060	
7242	0	32100	
7243	0	32132	
7244	0	32164	
7245	0	32204	
7246	0	32220	
7247	0	32248	
7248	0	32304	
7249	0	32328	
7250	0	32372	
7251	0	32420	
7252	0	32448	
7253	0	32428	
7254	0	32424	
7255	0	32420	
7256	0	32418	
7257	0	32432	
7258	0	32460	
7259	0	32488	
7260	0	32516	
7261	0	32504	
7262	0	32520	
7263	0	32530	
7264	0	32552	
7265	0	32596	
7266	0	32616	
7267	0	32632	
7268	0	32640	
7269	0	32672	
7270	0	32708	
7271	0	32764	
7272	0	32796	
7273	0	32788	
7274	0	32784	
7275	0	32808	
7276	0	32808	
7277	0	32816	
7278	0	32800	
7279	0	32780	
7280	0	32816	
7281	0	32832	
7282	0	32840	
7283	0	32880	
7284	0	32900	
7285	0	32904	
7286	0	32928	
7287	0	32933	
7288	0	32960	
7289	0	33008	
7290	0	33040	
7291	0	33084	
7292	0	33096	
7293	0	33092	
7294	0	33084	
7295	0	33076	
7296	0	33068	
7297	0	33118	
7298	0	33152	
7299	0	33184	
7300	0	33200	
7301	0	33204	
7302	0	33200	
7303	0	33208	
7304	0	33196	
7305	0	33204	
7306	0	33204	
7307	0	33212	
7308	0	33212	
7309	0	33236	
7310	0	33276	
7311	0	33312	
7312	0	33352	
7313	0	33372	
7314	0	33388	
7315	0	33380	
7316	0	33364	
7317	0	33348	
7318	0	33312	
7319	0	33322	
7320	0	33344	
7321	0	33368	
7322	0	33392	
7323	0	33432	
7324	0	33456	
7325	0	33482	
7326	0	33488	
7327	0	33516	
7328	0	33528	
7329	0	33528	
7330	0	33532	
7331	0	33536	
7332	0	33544	
7333	0	33536	
7334	0	33496	
7335	0	33488	
7336	0	33496	
7337	0	33496	
7338	0	33488	
7339	0	33488	
7340	0	33512	
7341	0	33552	
7342	0	33592	
7343	0	33596	
7344	0	33600	
7345	0	33594	
7346	0	33624	
7347	0	33656	
7348	0	33664	
7349	0	33660	
7350	0	33708	
7351	0	33752	
7352	0	33796	
7353	0	33824	
7354	0	33848	
7355	0	33864	
7356	0	33872	
7357	0	33896	
7358	0	33896	
7359	0	33872	
7360	0	33860	
7361	0	33856	
7362	0	33864	
7363	0	33858	
7364	0	33856	
7365	0	33858	
7366	0	33884	
7367	0	33928	
7368	0	33940	
7369	0	33964	
7370	0	33948	
7371	0	33920	
7372	0	33932	
7373	0	33944	
7374	0	33952	
7375	0	33964	
7376	0	33976	
7377	0	33960	
7378	0	33952	
7379	0	33968	
7380	0	33984	
7381	0	33986	
7382	0	33976	
7383	0	33964	
7384	0	33948	
7385	0	33942	
7386	0	33928	
7387	0	33952	
7388	0	33960	
7389	0	33968	
7390	0	33988	
7391	0	34012	
7392	0	34024	
7393	0	34020	
7394	0	33996	
7395	0	33984	
7396	0	34002	
7397	0	33968	
7398	0	33940	
7399	0	33952	
7400	0	33962	
7401	0	33960	
7402	0	33960	
7403	0	33928	
7404	0	33902	
7405	0	33912	
7406	0	33916	
7407	0	33904	
7408	0	33898	
7409	0	33892	
7410	0	33896	
7411	0	33880	
7412	0	33868	
7413	0	33882	
7414	0	33892	
7415	0	33864	
7416	0	33836	
7417	0	33794	
7418	0	33736	
7419	0	33696	
7420	0	33688	
7421	0	33652	
7422	0	33588	
7423	0	33516	
7424	0	33456	
7425	0	33396	
7426	0	33336	
7427	0	33300	
7428	0	33248	
7429	0	33180	
7430	0	33112	
7431	0	33064	
7432	0	33000	
7433	0	32926	
7434	0	32836	
7435	0	32768	
7436	0	32696	
7437	0	32644	
7438	0	32568	
7439	0	32514	
7440	0	32430	
7441	0	32368	
7442	0	32324	
7443	0	32264	
7444	0	32196	
7445	0	32120	
7446	0	32048	
7447	0	31982	
7448	0	31926	
7449	0	31872	
7450	0	31820	
7451	0	31764	
7452	0	31704	
7453	0	31642	
7454	0	31556	
7455	0	31496	
7456	0	31424	
7457	0	31348	
7458	0	31288	
7459	0	31216	
7460	0	31160	
7461	0	31124	
7462	0	31080	
7463	0	31072	
7464	0	31048	
7465	0	31028	
7466	0	31016	
7467	0	31004	
7468	0	31008	
7469	0	31018	
7470	0	31036	
7471	0	31044	
7472	0	31036	
7473	0	31032	
7474	0	31036	
7475	0	31044	
7476	0	31036	
7477	0	31012	
7478	0	30968	
7479	0	30946	
7480	0	30912	
7481	0	30884	
7482	0	30872	
7483	0	30852	
7484	0	30846	
7485	0	30832	
7486	0	30852	
7487	0	30904	
7488	0	30916	
7489	0	30924	
7490	0	30928	
7491	0	30924	
7492	0	30914	
7493	0	30924	
7494	0	30928	
7495	0	30940	
7496	0	30952	
7497	0	30964	
7498	0	30960	
7499	0	30980	
7500	0	31000	
7501	0	30992	
7502	0	31032	
7503	0	31072	
7504	0	31108	
7505	0	31104	
7506	0	31112	
7507	0	31120	
7508	0	31148	
7509	0	31200	
7510	0	31226	
7511	0	31228	
7512	0	31228	
7513	0	31248	
7514	0	31280	
7515	0	31292	
7516	0	31288	
7517	0	31284	
7518	0	31296	
7519	0	31280	
7520	0	31284	
7521	0	31272	
7522	0	31268	
7523	0	31296	
7524	0	31344	
7525	0	31400	
7526	0	31424	
7527	0	31464	
7528	0	31460	
7529	0	31456	
7530	0	31452	
7531	0	31464	
7532	0	31460	
7533	0	31480	
7534	0	31504	
7535	0	31544	
7536	0	31572	
7537	0	31594	
7538	0	31604	
7539	0	31606	
7540	0	31592	
7541	0	31600	
7542	0	31620	
7543	0	31628	
7544	0	31636	
7545	0	31652	
7546	0	31650	
7547	0	31652	
7548	0	31648	
7549	0	31632	
7550	0	31652	
7551	0	31680	
7552	0	31674	
7553	0	31652	
7554	0	31668	
7555	0	31684	
7556	0	31704	
7557	0	31716	
7558	0	31696	
7559	0	31696	
7560	0	31640	
7561	0	31604	
7562	0	31604	
7563	0	31600	
7564	0	31638	
7565	0	31648	
7566	0	31664	
7567	0	31656	
7568	0	31652	
7569	0	31680	
7570	0	31700	
7571	0	31712	
7572	0	31708	
7573	0	31736	
7574	0	31740	
7575	0	31744	
7576	0	31732	
7577	0	31748	
7578	0	31752	
7579	0	31772	
7580	0	31776	
7581	0	31776	
7582	0	31736	
7583	0	31704	
7584	0	31704	
7585	0	31716	
7586	0	31716	
7587	0	31724	
7588	0	31744	
7589	0	31752	
7590	0	31756	
7591	0	31760	
7592	0	31744	
7593	0	31748	
7594	0	31768	
7595	0	31790	
7596	0	31824	
7597	0	31844	
7598	0	31852	
7599	0	31868	
7600	0	31852	
7601	0	31800	
7602	0	31752	
7603	0	31728	
7604	0	31724	
7605	0	31720	
7606	0	31736	
7607	0	31684	
7608	0	31660	
7609	0	31640	
7610	0	31616	
7611	0	31640	
7612	0	31674	
7613	0	31684	
7614	0	31684	
7615	0	31704	
7616	0	31708	
7617	0	31708	
7618	0	31692	
7619	0	31672	
7620	0	31668	
7621	0	31688	
7622	0	31700	
7623	0	31708	
7624	0	31748	
7625	0	31760	
7626	0	31744	
7627	0	31736	
7628	0	31760	
7629	0	31808	
7630	0	31840	
7631	0	31840	
7632	0	31828	
7633	0	31856	
7634	0	31880	
7635	0	31904	
7636	0	31920	
7637	0	31924	
7638	0	31920	
7639	0	31892	
7640	0	31868	
7641	0	31880	
7642	0	31908	
7643	0	31914	
7644	0	31916	
7645	0	31936	
7646	0	31960	
7647	0	31988	
7648	0	31996	
7649	0	31972	
7650	0	31972	
7651	0	31976	
7652	0	31968	
7653	0	31940	
7654	0	31936	
7655	0	31924	
7656	0	31916	
7657	0	31900	
7658	0	31904	
7659	0	31912	
7660	0	31896	
7661	0	31892	
7662	0	31864	
7663	0	31834	
7664	0	31832	
7665	0	31818	
7666	0	31816	
7667	0	31844	
7668	0	31880	
7669	0	31912	
7670	0	31960	
7671	0	32032	
7672	0	32040	
7673	0	32032	
7674	0	32000	
7675	0	31952	
7676	0	31908	
7677	0	31872	
7678	0	31872	
7679	0	31888	
7680	0	31892	
7681	0	31888	
7682	0	31912	
7683	0	31928	
7684	0	31952	
7685	0	32020	
7686	0	32080	
7687	0	32092	
7688	0	32096	
7689	0	32108	
7690	0	32140	
7691	0	32210	
7692	0	32280	
7693	0	32290	
7694	0	32274	
7695	0	32220	
7696	0	32148	
7697	0	32100	
7698	0	32120	
7699	0	32136	
7700	0	32168	
7701	0	32148	
7702	0	32140	
7703	0	32140	
7704	0	32136	
7705	0	32130	
7706	0	32116	
7707	0	32116	
7708	0	32132	
7709	0	32148	
7710	0	32172	
7711	0	32184	
7712	0	32176	
7713	0	32180	
7714	0	32208	
7715	0	32202	
7716	0	32192	
7717	0	32200	
7718	0	32216	
7719	0	32240	
7720	0	32250	
7721	0	32268	
7722	0	32272	
7723	0	32268	
7724	0	32268	
7725	0	32276	
7726	0	32272	
7727	0	32304	
7728	0	32340	
7729	0	32368	
7730	0	32388	
7731	0	32385	
7732	0	32388	
7733	0	32390	
7734	0	32404	
7735	0	32448	
7736	0	32464	
7737	0	32440	
7738	0	32416	
7739	0	32384	
7740	0	32358	
7741	0	32344	
7742	0	32328	
7743	0	32308	
7744	0	32304	
7745	0	32292	
7746	0	32290	
7747	0	32308	
7748	0	32336	
7749	0	32384	
7750	0	32426	
7751	0	32452	
7752	0	32480	
7753	0	32468	
7754	0	32446	
7755	0	32412	
7756	0	32388	
7757	0	32372	
7758	0	32336	
7759	0	32328	
7760	0	32332	
7761	0	32320	
7762	0	32316	
7763	0	32332	
7764	0	32380	
7765	0	32432	
7766	0	32474	
7767	0	32520	
7768	0	32562	
7769	0	32548	
7770	0	32556	
7771	0	32540	
7772	0	32516	
7773	0	32496	
7774	0	32488	
7775	0	32536	
7776	0	32588	
7777	0	32604	
7778	0	32604	
7779	0	32592	
7780	0	32596	
7781	0	32624	
7782	0	32612	
7783	0	32604	
7784	0	32600	
7785	0	32584	
7786	0	32568	
7787	0	32572	
7788	0	32600	
7789	0	32608	
7790	0	32626	
7791	0	32640	
7792	0	32636	
7793	0	32594	
7794	0	32584	
7795	0	32592	
7796	0	32584	
7797	0	32580	
7798	0	32576	
7799	0	32580	
7800	0	32588	
7801	0	32596	
7802	0	32612	
7803	0	32648	
7804	0	32672	
7805	0	32692	
7806	0	32712	
7807	0	32680	
7808	0	32656	
7809	0	32600	
7810	0	32576	
7811	0	32580	
7812	0	32576	
7813	0	32600	
7814	0	32612	
7815	0	32600	
7816	0	32560	
7817	0	32532	
7818	0	32512	
7819	0	32528	
7820	0	32532	
7821	0	32508	
7822	0	32512	
7823	0	32512	
7824	0	32520	
7825	0	32568	
7826	0	32588	
7827	0	32596	
7828	0	32618	
7829	0	32616	
7830	0	32630	
7831	0	32652	
7832	0	32652	
7833	0	32646	
7834	0	32628	
7835	0	32636	
7836	0	32636	
7837	0	32644	
7838	0	32636	
7839	0	32654	
7840	0	32676	
7841	0	32690	
7842	0	32684	
7843	0	32688	
7844	0	32692	
7845	0	32712	
7846	0	32684	
7847	0	32664	
7848	0	32696	
7849	0	32696	
7850	0	32700	
7851	0	32708	
7852	0	32704	
7853	0	32698	
7854	0	32736	
7855	0	32748	
7856	0	32740	
7857	0	32748	
7858	0	32774	
7859	0	32792	
7860	0	32800	
7861	0	32832	
7862	0	32896	
7863	0	32902	
7864	0	32908	
7865	0	32876	
7866	0	32896	
7867	0	32874	
7868	0	32880	
7869	0	32886	
7870	0	32908	
7871	0	32904	
7872	0	32928	
7873	0	32940	
7874	0	32940	
7875	0	32926	
7876	0	32900	
7877	0	32840	
7878	0	32800	
7879	0	32780	
7880	0	32808	
7881	0	32808	
7882	0	32820	
7883	0	32832	
7884	0	32852	
7885	0	32860	
7886	0	32836	
7887	0	32836	
7888	0	32832	
7889	0	32824	
7890	0	32800	
7891	0	32764	
7892	0	32752	
7893	0	32756	
7894	0	32740	
7895	0	32728	
7896	0	32736	
7897	0	32728	
7898	0	32740	
7899	0	32744	
7900	0	32736	
7901	0	32712	
7902	0	32692	
7903	0	32680	
7904	0	32676	
7905	0	32712	
7906	0	32788	
7907	0	32872	
7908	0	32926	
7909	0	32960	
7910	0	33020	
7911	0	33080	
7912	0	33160	
7913	0	33220	
7914	0	33236	
7915	0	33224	
7916	0	33208	
7917	0	33172	
7918	0	33144	
7919	0	33100	
7920	0	33032	
7921	0	32996	
7922	0	32944	
7923	0	32976	
7924	0	33040	
7925	0	33056	
7926	0	33052	
7927	0	33028	
7928	0	33044	
7929	0	33104	
7930	0	33168	
7931	0	33268	
7932	0	33380	
7933	0	33512	
7934	0	33676	
7935	0	33872	
7936	0	34072	
7937	0	34229	
7938	0	34362	
7939	0	34440	
7940	0	34518	
7941	0	34594	
7942	0	34636	
7943	0	34648	
7944	0	34644	
7945	0	34612	
7946	0	34584	
7947	0	34568	
7948	0	34556	
7949	0	34528	
7950	0	34480	
7951	0	34408	
7952	0	34312	
7953	0	34204	
7954	0	34112	
7955	0	33984	
7956	0	33864	
7957	0	33790	
7958	0	33676	
7959	0	33568	
7960	0	33452	
7961	0	33396	
7962	0	33364	
7963	0	33316	
7964	0	33244	
7965	0	33188	
7966	0	33152	
7967	0	33128	
7968	0	33096	
7969	0	33088	
7970	0	33076	
7971	0	33066	
7972	0	33024	
7973	0	32986	
7974	0	32938	
7975	0	32944	
7976	0	32928	
7977	0	32936	
7978	0	32952	
7979	0	32976	
7980	0	32968	
7981	0	32948	
7982	0	32948	
7983	0	32976	
7984	0	32980	
7985	0	32964	
7986	0	32948	
7987	0	32904	
7988	0	32836	
7989	0	32748	
7990	0	32656	
7991	0	32552	
7992	0	32480	
7993	0	32444	
7994	0	32400	
7995	0	32384	
7996	0	32384	
7997	0	32372	
7998	0	32388	
7999	0	32410	
8000	0	32392	
8001	0	32384	
8002	0	32396	
8003	0	32368	
8004	0	32312	
8005	0	32256	
8006	0	32192	
8007	0	32188	
8008	0	32196	
8009	0	32244	
8010	0	32272	
8011	0	32312	
8012	0	32348	
8013	0	32368	
8014	0	32386	
8015	0	32444	
8016	0	32453	
8017	0	32424	
8018	0	32414	
8019	0	32460	
8020	0	32476	
8021	0	32488	
8022	0	32554	
8023	0	32608	
8024	0	32604	
8025	0	32592	
8026	0	32536	
8027	0	32508	
8028	0	32516	
8029	0	32480	
8030	0	32408	
8031	0	32344	
8032	0	32304	
8033	0	32272	
8034	0	32260	
8035	0	32312	
8036	0	32360	
8037	0	32396	
8038	0	32412	
8039	0	32452	
8040	0	32500	
8041	0	32536	
8042	0	32544	
8043	0	32572	
8044	0	32564	
8045	0	32580	
8046	0	32604	
8047	0	32624	
8048	0	32620	
8049	0	32576	
8050	0	32524	
8051	0	32520	
8052	0	32520	
8053	0	32532	
8054	0	32536	
8055	0	32544	
8056	0	32548	
8057	0	32558	
8058	0	32552	
8059	0	32549	
8060	0	32596	
8061	0	32612	
8062	0	32622	
8063	0	32596	
8064	0	32592	
8065	0	32620	
8066	0	32604	
8067	0	32520	
8068	0	32376	
8069	0	32232	
8070	0	32120	
8071	0	32056	
8072	0	32008	
8073	0	32144	
8074	0	32412	
8075	0	32780	
8076	0	33100	
8077	0	33476	
8078	0	33828	
8079	0	34152	
8080	0	34352	
8081	0	34436	
8082	0	34572	
8083	0	34866	
8084	0	35380	
8085	0	36136	
8086	0	37104	
8087	0	38252	
8088	0	39534	
8089	0	40924	
8090	0	42456	
8091	0	44088	
8092	0	45764	
8093	0	47476	
8094	0	49220	
8095	0	51092	
8096	0	52824	
8097	0	54376	
8098	0	55616	
8099	0	56632	
8100	0	57560	
8101	0	58452	
8102	0	59192	
8103	0	59540	
8104	0	59148	
8105	0	57856	
8106	0	55624	
8107	0	52516	
8108	0	48922	
8109	0	45048	
8110	0	41312	
8111	0	37920	
8112	0	35044	
8113	0	32896	
8114	0	31408	
8115	0	30392	
8116	0	29612	
8117	0	29084	
8118	0	28816	
8119	0	28704	
8120	0	28832	
8121	0	29096	
8122	0	29416	
8123	0	29680	
8124	0	29900	
8125	0	30024	
8126	0	30112	
8127	0	30184	
8128	0	30298	
8129	0	30450	
8130	0	30632	
8131	0	30764	
8132	0	30840	
8133	0	30892	
8134	0	30944	
8135	0	30972	
8136	0	31004	
8137	0	31004	
8138	0	30984	
8139	0	30984	
8140	0	30960	
8141	0	30936	
8142	0	30896	
8143	0	30856	
8144	0	30800	
8145	0	30756	
8146	0	30728	
8147	0	30696	
8148	0	30720	
8149	0	30740	
8150	0	30744	
8151	0	30796	
8152	0	30812	
8153	0	30824	
8154	0	30840	
8155	0	30824	
8156	0	30808	
8157	0	30784	
8158	0	30748	
8159	0	30724	
8160	0	30692	
8161	0	30636	
8162	0	30596	
8163	0	30592	
8164	0	30620	
8165	0	30648	
8166	0	30680	
8167	0	30708	
8168	0	30768	
8169	0	30820	
8170	0	30848	
8171	0	30888	
8172	0	30952	
8173	0	31000	
8174	0	31032	
8175	0	31084	
8176	0	31104	
8177	0	31132	
8178	0	31160	
8179	0	31220	
8180	0	31244	
8181	0	31274	
8182	0	31328	
8183	0	31386	
8184	0	31428	
8185	0	31468	
8186	0	31480	
8187	0	31448	
8188	0	31448	
8189	0	31484	
8190	0	31514	
8191	0	31520	
8192	0	31488	
8193	0	31492	
8194	0	31504	
8195	0	31544	
8196	0	31568	
8197	0	31600	
8198	0	31644	
8199	0	31632	
8200	0	31616	
8201	0	31644	
8202	0	31648	
8203	0	31608	
8204	0	31576	
8205	0	31612	
8206	0	31636	
8207	0	31672	
8208	0	31760	
8209	0	31852	
8210	0	31904	
8211	0	31932	
8212	0	31960	
8213	0	32012	
8214	0	32088	
8215	0	32136	
8216	0	32170	
8217	0	32196	
8218	0	32236	
8219	0	32256	
8220	0	32272	
8221	0	32298	
8222	0	32304	
8223	0	32312	
8224	0	32340	
8225	0	32396	
8226	0	32436	
8227	0	32492	
8228	0	32512	
8229	0	32514	
8230	0	32516	
8231	0	32504	
8232	0	32480	
8233	0	32452	
8234	0	32424	
8235	0	32344	
8236	0	32304	
8237	0	32320	
8238	0	32362	
8239	0	32416	
8240	0	32456	
8241	0	32438	
8242	0	32444	
8243	0	32484	
8244	0	32528	
8245	0	32596	
8246	0	32652	
8247	0	32704	
8248	0	32736	
8249	0	32744	
8250	0	32754	
8251	0	32764	
8252	0	32768	
8253	0	32792	
8254	0	32800	
8255	0	32808	
8256	0	32852	
8257	0	32904	
8258	0	32984	
8259	0	33024	
8260	0	33032	
8261	0	33020	
8262	0	33010	
8263	0	32996	
8264	0	32952	
8265	0	32976	
8266	0	33026	
8267	0	33064	
8268	0	33076	
8269	0	33096	
8270	0	33088	
8271	0	33084	
8272	0	33076	
8273	0	33072	
8274	0	33076	
8275	0	33080	
8276	0	33088	
8277	0	33064	
8278	0	33048	
8279	0	33092	
8280	0	33156	
8281	0	33200	
8282	0	33212	
8283	0	33204	
8284	0	33218	
8285	0	33284	
8286	0	33316	
8287	0	33346	
8288	0	33356	
8289	0	33384	
8290	0	33376	
8291	0	33380	
8292	0	33404	
8293	0	33426	
8294	0	33456	
8295	0	33464	
8296	0	33482	
8297	0	33510	
8298	0	33548	
8299	0	33584	
8300	0	33632	
8301	0	33640	
8302	0	33604	
8303	0	33588	
8304	0	33584	
8305	0	33604	
8306	0	33626	
8307	0	33632	
8308	0	33624	
8309	0	33604	
8310	0	33608	
8311	0	33612	
8312	0	33600	
8313	0	33604	
8314	0	33684	
8315	0	33748	
8316	0	33812	
8317	0	33808	
8318	0	33812	
8319	0	33808	
8320	0	33776	
8321	0	33792	
8322	0	33808	
8323	0	33836	
8324	0	33912	
8325	0	33984	
8326	0	34052	
8327	0	34112	
8328	0	34144	
8329	0	34140	
8330	0	34104	
8331	0	34080	
8332	0	34028	
8333	0	33984	
8334	0	33960	
8335	0	33912	
8336	0	33932	
8337	0	33976	
8338	0	33964	
8339	0	33944	
8340	0	33948	
8341	0	33944	
8342	0	33934	
8343	0	33920	
8344	0	33928	
8345	0	33956	
8346	0	33960	
8347	0	33972	
8348	0	33952	
8349	0	33984	
8350	0	34024	
8351	0	34060	
8352	0	34092	
8353	0	34088	
8354	0	34112	
8355	0	34144	
8356	0	34160	
8357	0	34150	
8358	0	34172	
8359	0	34160	
8360	0	34152	
8361	0	34156	
8362	0	34148	
8363	0	34124	
8364	0	34100	
8365	0	34108	
8366	0	34124	
8367	0	34128	
8368	0	34112	
8369	0	34156	
8370	0	34204	
8371	0	34224	
8372	0	34236	
8373	0	34236	
8374	0	34248	
8375	0	34260	
8376	0	34264	
8377	0	34258	
8378	0	34224	
8379	0	34208	
8380	0	34184	
8381	0	34144	
8382	0	34120	
8383	0	34080	
8384	0	34068	
8385	0	34048	
8386	0	34052	
8387	0	34060	
8388	0	34004	
8389	0	33970	
8390	0	33924	
8391	0	33888	
8392	0	33876	
8393	0	33876	
8394	0	33878	
8395	0	33840	
8396	0	33808	
8397	0	33780	
8398	0	33728	
8399	0	33676	
8400	0	33636	
8401	0	33562	
8402	0	33472	
8403	0	33398	
8404	0	33308	
8405	0	33216	
8406	0	33140	
8407	0	33100	
8408	0	33024	
8409	0	32973	
8410	0	32904	
8411	0	32848	
8412	0	32760	
8413	0	32692	
8414	0	32616	
8415	0	32516	
8416	0	32396	
8417	0	32308	
8418	0	32252	
8419	0	32189	
8420	0	32128	
8421	0	32068	
8422	0	31972	
8423	0	31918	
8424	0	31880	
8425	0	31792	
8426	0	31680	
8427	0	31584	
8428	0	31468	
8429	0	31404	
8430	0	31308	
8431	0	31232	
8432	0	31168	
8433	0	31100	
8434	0	31048	
8435	0	30996	
8436	0	30980	
8437	0	30960	
8438	0	30912	
8439	0	30844	
8440	0	30812	
8441	0	30780	
8442	0	30764	
8443	0	30736	
8444	0	30696	
8445	0	30640	
8446	0	30608	
8447	0	30618	
8448	0	30596	
8449	0	30584	
8450	0	30568	
8451	0	30564	
8452	0	30548	
8453	0	30532	
8454	0	30528	
8455	0	30512	
8456	0	30524	
8457	0	30552	
8458	0	30554	
8459	0	30564	
8460	0	30584	
8461	0	30568	
8462	0	30536	
8463	0	30512	
8464	0	30476	
8465	0	30484	
8466	0	30512	
8467	0	30568	
8468	0	30624	
8469	0	30644	
8470	0	30652	
8471	0	30624	
8472	0	30632	
8473	0	30658	
8474	0	30692	
8475	0	30728	
8476	0	30752	
8477	0	30768	
8478	0	30792	
8479	0	30820	
8480	0	30846	
8481	0	30848	
8482	0	30808	
8483	0	30800	
8484	0	30848	
8485	0	30881	
8486	0	30932	
8487	0	31000	
8488	0	31028	
8489	0	31054	
8490	0	31080	
8491	0	31072	
8492	0	31076	
8493	0	31084	
8494	0	31100	
8495	0	31112	
8496	0	31140	
8497	0	31148	
8498	0	31168	
8499	0	31182	
8500	0	31184	
8501	0	31192	
8502	0	31228	
8503	0	31244	
8504	0	31252	
8505	0	31270	
8506	0	31296	
8507	0	31320	
8508	0	31300	
8509	0	31296	
8510	0	31300	
8511	0	31320	
8512	0	31320	
8513	0	31322	
8514	0	31320	
8515	0	31334	
8516	0	31340	
8517	0	31328	
8518	0	31320	
8519	0	31360	
8520	0	31392	
8521	0	31440	
8522	0	31464	
8523	0	31508	
8524	0	31554	
8525	0	31584	
8526	0	31620	
8527	0	31656	
8528	0	31648	
8529	0	31644	
8530	0	31632	
8531	0	31620	
8532	0	31592	
8533	0	31592	
8534	0	31600	
8535	0	31596	
8536	0	31608	
8537	0	31600	
8538	0	31610	
8539	0	31628	
8540	0	31656	
8541	0	31688	
8542	0	31700	
8543	0	31684	
8544	0	31656	
8545	0	31652	
8546	0	31688	
8547	0	31704	
8548	0	31704	
8549	0	31716	
8550	0	31724	
8551	0	31776	
8552	0	31804	
8553	0	31832	
8554	0	31868	
8555	0	31860	
8556	0	31848	
8557	0	31804	
8558	0	31768	
8559	0	31740	
8560	0	31732	
8561	0	31728	
8562	0	31708	
8563	0	31680	
8564	0	31626	
8565	0	31616	
8566	0	31588	
8567	0	31596	
8568	0	31624	
8569	0	31660	
8570	0	31712	
8571	0	31720	
8572	0	31728	
8573	0	31744	
8574	0	31732	
8575	0	31672	
8576	0	31640	
8577	0	31612	
8578	0	31608	
8579	0	31600	
8580	0	31612	
8581	0	31584	
8582	0	31564	
8583	0	31560	
8584	0	31566	
8585	0	31584	
8586	0	31568	
8587	0	31576	
8588	0	31572	
8589	0	31568	
8590	0	31568	
8591	0	31572	
8592	0	31596	
