# OpenSignals Text File Format. Version 1
# {"00:07:80:4B:15:F7": {"position": 0, "device": "biosignalsplux", "device name": "00:07:80:4B:15:F7", "device connection": "BTH00:07:80:4B:15:F7", "sampling rate": 1000, "resolution": [16], "firmware version": 775, "comments": "", "keywords": "", "mode": 0, "sync interval": 2, "date": "2023-4-27", "time": "16:48:24.617", "channels": [1], "sensor": ["ECG"], "label": ["CH1"], "column": ["nSeq", "DI", "CH1"], "special": [{"SpO2": [80, 40, 5, 4, 3, 3]}, {"SpO2": [80, 40, 5, 4, 3, 3]}, {"SpO2": [80, 40, 5, 4, 3, 3]}, {"SpO2": [80, 40, 5, 4, 3, 3]}, {"SpO2": [80, 40, 5, 4, 3, 3]}, {"SpO2": [80, 40, 5, 4, 3, 3]}, {"SpO2": [80, 40, 5, 4, 3, 3]}, {"SpO2": [80, 40, 5, 4, 3, 3]}], "digital IO": [0, 1], "sleeve color": ["green"], "convertedValues": 0}}
# EndOfHeader
0	0	29996	
1	0	30032	
2	0	30082	
3	0	30168	
4	0	30194	
5	0	30234	
6	0	30244	
7	0	30240	
8	0	30188	
9	0	30176	
10	0	30216	
11	0	30232	
12	0	30248	
13	0	30272	
14	0	30304	
15	0	30276	
16	0	30220	
17	0	30224	
18	0	30224	
19	0	30218	
20	0	30224	
21	0	30200	
22	0	30216	
23	0	30260	
24	0	30264	
25	0	30292	
26	0	30260	
27	0	30224	
28	0	30272	
29	0	30360	
30	0	30446	
31	0	30528	
32	0	30584	
33	0	30648	
34	0	30676	
35	0	30682	
36	0	30612	
37	0	30508	
38	0	30392	
39	0	30308	
40	0	30164	
41	0	30088	
42	0	30080	
43	0	30138	
44	0	30228	
45	0	30316	
46	0	30432	
47	0	30496	
48	0	30508	
49	0	30548	
50	0	30592	
51	0	30612	
52	0	30596	
53	0	30556	
54	0	30560	
55	0	30622	
56	0	30616	
57	0	30576	
58	0	30544	
59	0	30532	
60	0	30572	
61	0	30608	
62	0	30656	
63	0	30580	
64	0	30536	
65	0	30528	
66	0	30556	
67	0	30600	
68	0	30664	
69	0	30756	
70	0	30808	
71	0	30836	
72	0	30800	
73	0	30736	
74	0	30668	
75	0	30636	
76	0	30620	
77	0	30616	
78	0	30620	
79	0	30664	
80	0	30708	
81	0	30700	
82	0	30708	
83	0	30740	
84	0	30812	
85	0	30868	
86	0	30864	
87	0	30816	
88	0	30784	
89	0	30864	
90	0	31032	
91	0	31132	
92	0	31120	
93	0	31092	
94	0	31096	
95	0	31108	
96	0	31068	
97	0	30976	
98	0	30960	
99	0	30992	
100	0	30996	
101	0	31010	
102	0	31018	
103	0	30972	
104	0	30902	
105	0	30872	
106	0	30924	
107	0	30980	
108	0	31000	
109	0	31052	
110	0	31160	
111	0	31250	
112	0	31264	
113	0	31254	
114	0	31220	
115	0	31212	
116	0	31220	
117	0	31280	
118	0	31276	
119	0	31256	
120	0	31256	
121	0	31208	
122	0	31124	
123	0	31080	
124	0	31112	
125	0	31204	
126	0	31264	
127	0	31320	
128	0	31356	
129	0	31384	
130	0	31392	
131	0	31348	
132	0	31360	
133	0	31448	
134	0	31494	
135	0	31502	
136	0	31512	
137	0	31548	
138	0	31564	
139	0	31528	
140	0	31442	
141	0	31392	
142	0	31376	
143	0	31386	
144	0	31400	
145	0	31420	
146	0	31460	
147	0	31456	
148	0	31440	
149	0	31500	
150	0	31564	
151	0	31636	
152	0	31720	
153	0	31788	
154	0	31760	
155	0	31796	
156	0	31812	
157	0	31850	
158	0	31800	
159	0	31728	
160	0	31744	
161	0	31732	
162	0	31690	
163	0	31628	
164	0	31640	
165	0	31706	
166	0	31768	
167	0	31828	
168	0	31880	
169	0	31936	
170	0	31916	
171	0	31936	
172	0	31976	
173	0	31936	
174	0	31880	
175	0	31826	
176	0	31778	
177	0	31748	
178	0	31776	
179	0	31828	
180	0	31822	
181	0	31808	
182	0	31800	
183	0	31808	
184	0	31792	
185	0	31816	
186	0	31894	
187	0	31960	
188	0	32056	
189	0	32116	
190	0	32112	
191	0	32140	
192	0	32216	
193	0	32200	
194	0	32164	
195	0	32188	
196	0	32194	
197	0	32196	
198	0	32192	
199	0	32148	
200	0	32140	
201	0	32096	
202	0	32036	
203	0	31956	
204	0	31940	
205	0	31968	
206	0	32016	
207	0	32032	
208	0	32032	
209	0	32064	
210	0	32114	
211	0	32132	
212	0	32128	
213	0	32122	
214	0	32204	
215	0	32276	
216	0	32296	
217	0	32274	
218	0	32290	
219	0	32264	
220	0	32208	
221	0	32194	
222	0	32240	
223	0	32292	
224	0	32232	
225	0	32144	
226	0	32132	
227	0	32160	
228	0	32232	
229	0	32308	
230	0	32340	
231	0	32304	
232	0	32312	
233	0	32352	
234	0	32360	
235	0	32352	
236	0	32348	
237	0	32364	
238	0	32352	
239	0	32356	
240	0	32324	
241	0	32320	
242	0	32368	
243	0	32460	
244	0	32572	
245	0	32634	
246	0	32656	
247	0	32654	
248	0	32524	
249	0	32372	
250	0	32296	
251	0	32256	
252	0	32262	
253	0	32344	
254	0	32410	
255	0	32460	
256	0	32464	
257	0	32452	
258	0	32512	
259	0	32588	
260	0	32576	
261	0	32468	
262	0	32480	
263	0	32508	
264	0	32540	
265	0	32556	
266	0	32588	
267	0	32584	
268	0	32660	
269	0	32718	
270	0	32712	
271	0	32708	
272	0	32748	
273	0	32764	
274	0	32724	
275	0	32656	
276	0	32536	
277	0	32394	
278	0	32296	
279	0	32282	
280	0	32288	
281	0	32296	
282	0	32352	
283	0	32472	
284	0	32616	
285	0	32776	
286	0	32864	
287	0	32816	
288	0	32736	
289	0	32680	
290	0	32612	
291	0	32520	
292	0	32372	
293	0	32232	
294	0	32124	
295	0	32072	
296	0	32004	
297	0	31900	
298	0	31860	
299	0	31820	
300	0	31776	
301	0	31780	
302	0	31780	
303	0	31860	
304	0	32020	
305	0	32176	
306	0	32284	
307	0	32408	
308	0	32548	
309	0	32728	
310	0	32876	
311	0	32988	
312	0	33068	
313	0	33112	
314	0	33168	
315	0	33212	
316	0	33308	
317	0	33456	
318	0	33592	
319	0	33560	
320	0	33492	
321	0	33470	
322	0	33384	
323	0	33210	
324	0	33092	
325	0	32984	
326	0	32844	
327	0	32800	
328	0	32868	
329	0	32992	
330	0	33160	
331	0	33332	
332	0	33452	
333	0	33528	
334	0	33620	
335	0	33676	
336	0	33688	
337	0	33696	
338	0	33736	
339	0	33722	
340	0	33684	
341	0	33644	
342	0	33600	
343	0	33612	
344	0	33664	
345	0	33690	
346	0	33652	
347	0	33520	
348	0	33424	
349	0	33312	
350	0	33180	
351	0	32972	
352	0	32720	
353	0	32472	
354	0	32328	
355	0	32276	
356	0	32344	
357	0	32428	
358	0	32444	
359	0	32484	
360	0	32536	
361	0	32568	
362	0	32576	
363	0	32612	
364	0	32596	
365	0	32608	
366	0	32668	
367	0	32736	
368	0	32768	
369	0	32724	
370	0	32660	
371	0	32594	
372	0	32560	
373	0	32648	
374	0	32704	
375	0	32696	
376	0	32668	
377	0	32648	
378	0	32642	
379	0	32660	
380	0	32740	
381	0	32808	
382	0	32860	
383	0	32908	
384	0	32944	
385	0	32896	
386	0	32904	
387	0	32944	
388	0	32976	
389	0	33032	
390	0	33160	
391	0	33224	
392	0	33196	
393	0	33192	
394	0	33176	
395	0	33132	
396	0	33158	
397	0	33228	
398	0	33232	
399	0	33184	
400	0	33188	
401	0	33172	
402	0	33132	
403	0	33024	
404	0	32856	
405	0	32656	
406	0	32324	
407	0	31872	
408	0	31444	
409	0	31072	
410	0	30788	
411	0	30688	
412	0	30744	
413	0	30984	
414	0	31364	
415	0	31832	
416	0	32400	
417	0	33132	
418	0	33956	
419	0	34986	
420	0	36148	
421	0	37392	
422	0	38884	
423	0	40656	
424	0	42758	
425	0	44992	
426	0	47340	
427	0	49784	
428	0	52352	
429	0	55252	
430	0	58332	
431	0	61164	
432	0	62728	
433	0	63564	
434	0	63948	
435	0	64108	
436	0	64140	
437	0	64092	
438	0	64020	
439	0	63920	
440	0	63804	
441	0	63700	
442	0	63560	
443	0	63456	
444	0	63336	
445	0	63208	
446	0	63104	
447	0	62964	
448	0	57224	
449	0	51044	
450	0	45224	
451	0	40040	
452	0	35808	
453	0	32708	
454	0	30560	
455	0	29056	
456	0	27996	
457	0	27324	
458	0	26926	
459	0	26604	
460	0	26344	
461	0	26086	
462	0	25888	
463	0	25746	
464	0	25608	
465	0	25604	
466	0	25752	
467	0	25972	
468	0	26212	
469	0	26536	
470	0	26952	
471	0	27316	
472	0	27578	
473	0	27788	
474	0	27972	
475	0	28144	
476	0	28368	
477	0	28604	
478	0	28846	
479	0	29062	
480	0	29192	
481	0	29232	
482	0	29280	
483	0	29308	
484	0	29336	
485	0	29372	
486	0	29376	
487	0	29396	
488	0	29440	
489	0	29416	
490	0	29364	
491	0	29396	
492	0	29424	
493	0	29416	
494	0	29468	
495	0	29528	
496	0	29560	
497	0	29572	
498	0	29582	
499	0	29640	
500	0	29696	
501	0	29728	
502	0	29720	
503	0	29742	
504	0	29732	
505	0	29744	
506	0	29772	
507	0	29804	
508	0	29784	
509	0	29768	
510	0	29772	
511	0	29800	
512	0	29864	
513	0	29936	
514	0	30000	
515	0	30020	
516	0	30060	
517	0	30152	
518	0	30232	
519	0	30248	
520	0	30232	
521	0	30208	
522	0	30216	
523	0	30184	
524	0	30148	
525	0	30160	
526	0	30236	
527	0	30352	
528	0	30458	
529	0	30554	
530	0	30640	
531	0	30720	
532	0	30764	
533	0	30800	
534	0	30884	
535	0	30916	
536	0	30970	
537	0	30988	
538	0	31004	
539	0	30952	
540	0	30912	
541	0	30920	
542	0	30900	
543	0	30872	
544	0	30968	
545	0	31076	
546	0	31150	
547	0	31260	
548	0	31392	
549	0	31488	
550	0	31592	
551	0	31682	
552	0	31720	
553	0	31716	
554	0	31732	
555	0	31716	
556	0	31768	
557	0	31756	
558	0	31780	
559	0	31834	
560	0	31868	
561	0	31948	
562	0	32044	
563	0	32056	
564	0	32080	
565	0	32092	
566	0	32098	
567	0	32120	
568	0	32100	
569	0	32068	
570	0	32064	
571	0	32060	
572	0	32080	
573	0	32152	
574	0	32220	
575	0	32320	
576	0	32392	
577	0	32440	
578	0	32446	
579	0	32448	
580	0	32456	
581	0	32468	
582	0	32496	
583	0	32504	
584	0	32566	
585	0	32704	
586	0	32856	
587	0	32968	
588	0	33024	
589	0	33006	
590	0	32980	
591	0	32916	
592	0	32866	
593	0	32856	
594	0	32868	
595	0	32908	
596	0	32956	
597	0	33020	
598	0	33032	
599	0	33024	
600	0	33050	
601	0	33124	
602	0	33144	
603	0	33252	
604	0	33352	
605	0	33372	
606	0	33376	
607	0	33404	
608	0	33516	
609	0	33596	
610	0	33640	
611	0	33652	
612	0	33602	
613	0	33496	
614	0	33424	
615	0	33312	
616	0	33320	
617	0	33368	
618	0	33400	
619	0	33476	
620	0	33556	
621	0	33652	
622	0	33668	
623	0	33666	
624	0	33752	
625	0	33840	
626	0	33924	
627	0	33932	
628	0	33884	
629	0	33892	
630	0	33884	
631	0	33860	
632	0	33868	
633	0	33934	
634	0	33952	
635	0	34024	
636	0	34084	
637	0	34112	
638	0	34156	
639	0	34156	
640	0	34148	
641	0	34188	
642	0	34260	
643	0	34276	
644	0	34360	
645	0	34506	
646	0	34588	
647	0	34640	
648	0	34724	
649	0	34784	
650	0	34804	
651	0	34816	
652	0	34848	
653	0	34844	
654	0	34864	
655	0	34916	
656	0	34936	
657	0	34912	
658	0	34900	
659	0	34940	
660	0	34948	
661	0	34980	
662	0	35016	
663	0	35028	
664	0	35072	
665	0	35120	
666	0	35188	
667	0	35270	
668	0	35368	
669	0	35428	
670	0	35432	
671	0	35432	
672	0	35464	
673	0	35516	
674	0	35518	
675	0	35544	
676	0	35648	
677	0	35700	
678	0	35694	
679	0	35596	
680	0	35564	
681	0	35568	
682	0	35640	
683	0	35772	
684	0	35840	
685	0	35796	
686	0	35756	
687	0	35788	
688	0	35778	
689	0	35676	
690	0	35632	
691	0	35632	
692	0	35688	
693	0	35772	
694	0	35816	
695	0	35912	
696	0	36008	
697	0	35980	
698	0	35872	
699	0	35836	
700	0	35780	
701	0	35780	
702	0	35808	
703	0	35816	
704	0	35804	
705	0	35842	
706	0	35868	
707	0	35866	
708	0	35856	
709	0	35824	
710	0	35816	
711	0	35876	
712	0	35900	
713	0	35876	
714	0	35796	
715	0	35652	
716	0	35496	
717	0	35456	
718	0	35400	
719	0	35332	
720	0	35252	
721	0	35164	
722	0	35096	
723	0	35004	
724	0	34860	
725	0	34712	
726	0	34612	
727	0	34512	
728	0	34376	
729	0	34260	
730	0	34154	
731	0	34036	
732	0	33964	
733	0	33904	
734	0	33796	
735	0	33688	
736	0	33560	
737	0	33344	
738	0	33112	
739	0	32928	
740	0	32766	
741	0	32604	
742	0	32452	
743	0	32320	
744	0	32160	
745	0	32052	
746	0	31956	
747	0	31852	
748	0	31732	
749	0	31624	
750	0	31544	
751	0	31420	
752	0	31248	
753	0	31132	
754	0	31058	
755	0	30972	
756	0	30908	
757	0	30780	
758	0	30644	
759	0	30478	
760	0	30376	
761	0	30308	
762	0	30272	
763	0	30240	
764	0	30220	
765	0	30184	
766	0	30096	
767	0	30000	
768	0	29882	
769	0	29742	
770	0	29696	
771	0	29616	
772	0	29504	
773	0	29424	
774	0	29384	
775	0	29332	
776	0	29280	
777	0	29292	
778	0	29288	
779	0	29280	
780	0	29256	
781	0	29216	
782	0	29168	
783	0	29109	
784	0	29096	
785	0	29054	
786	0	29076	
787	0	29104	
788	0	29096	
789	0	29060	
790	0	29036	
791	0	29144	
792	0	29234	
793	0	29252	
794	0	29180	
795	0	29152	
796	0	29164	
797	0	29132	
798	0	29068	
799	0	29020	
800	0	29040	
801	0	29032	
802	0	28996	
803	0	28996	
804	0	29042	
805	0	29072	
806	0	29060	
807	0	29096	
808	0	29116	
809	0	29184	
810	0	29300	
811	0	29364	
812	0	29388	
813	0	29432	
814	0	29472	
815	0	29488	
816	0	29506	
817	0	29520	
818	0	29408	
819	0	29280	
820	0	29240	
821	0	29264	
822	0	29280	
823	0	29340	
824	0	29377	
825	0	29448	
826	0	29536	
827	0	29620	
828	0	29664	
829	0	29664	
830	0	29632	
831	0	29628	
832	0	29660	
833	0	29664	
834	0	29636	
835	0	29584	
836	0	29556	
837	0	29616	
838	0	29684	
839	0	29720	
840	0	29758	
841	0	29818	
842	0	29856	
843	0	29796	
844	0	29780	
845	0	29764	
846	0	29804	
847	0	29846	
848	0	29824	
849	0	29836	
850	0	29892	
851	0	29896	
852	0	29880	
853	0	29880	
854	0	29896	
855	0	29964	
856	0	30010	
857	0	30080	
858	0	30084	
859	0	30020	
860	0	30032	
861	0	30084	
862	0	30164	
863	0	30252	
864	0	30292	
865	0	30296	
866	0	30190	
867	0	30088	
868	0	30100	
869	0	30088	
870	0	30052	
871	0	30000	
872	0	29936	
873	0	29960	
874	0	29980	
875	0	29944	
876	0	29954	
877	0	30016	
878	0	30068	
879	0	30108	
880	0	30156	
881	0	30176	
882	0	30180	
883	0	30204	
884	0	30228	
885	0	30288	
886	0	30336	
887	0	30288	
888	0	30240	
889	0	30216	
890	0	30202	
891	0	30220	
892	0	30280	
893	0	30296	
894	0	30284	
895	0	30192	
896	0	30124	
897	0	30122	
898	0	30120	
899	0	30176	
900	0	30200	
901	0	30192	
902	0	30160	
903	0	30128	
904	0	30108	
905	0	30132	
906	0	30164	
907	0	30236	
908	0	30286	
909	0	30284	
910	0	30272	
911	0	30236	
912	0	30232	
913	0	30156	
914	0	30180	
915	0	30204	
916	0	30216	
917	0	30224	
918	0	30256	
919	0	30260	
920	0	30218	
921	0	30256	
922	0	30284	
923	0	30280	
924	0	30248	
925	0	30292	
926	0	30336	
927	0	30368	
928	0	30352	
929	0	30320	
930	0	30316	
931	0	30352	
932	0	30410	
933	0	30384	
934	0	30320	
935	0	30292	
936	0	30292	
937	0	30288	
938	0	30296	
939	0	30336	
940	0	30376	
941	0	30356	
942	0	30328	
943	0	30388	
944	0	30456	
945	0	30496	
946	0	30560	
947	0	30584	
948	0	30592	
949	0	30612	
950	0	30652	
951	0	30636	
952	0	30596	
953	0	30578	
954	0	30600	
955	0	30616	
956	0	30624	
957	0	30576	
958	0	30548	
959	0	30552	
960	0	30564	
961	0	30598	
962	0	30666	
963	0	30696	
964	0	30768	
965	0	30800	
966	0	30812	
967	0	30882	
968	0	30964	
969	0	31024	
970	0	31002	
971	0	30972	
972	0	30956	
973	0	30956	
974	0	30968	
975	0	30940	
976	0	30924	
977	0	30960	
978	0	30970	
979	0	30980	
980	0	30980	
981	0	30956	
982	0	30934	
983	0	30926	
984	0	30912	
985	0	30944	
986	0	30984	
987	0	30984	
988	0	30984	
989	0	31040	
990	0	31100	
991	0	31176	
992	0	31240	
993	0	31258	
994	0	31258	
995	0	31238	
996	0	31200	
997	0	31162	
998	0	31096	
999	0	31082	
1000	0	31122	
1001	0	31132	
1002	0	31144	
1003	0	31160	
1004	0	31170	
1005	0	31216	
1006	0	31304	
1007	0	31360	
1008	0	31376	
1009	0	31384	
1010	0	31356	
1011	0	31344	
1012	0	31308	
1013	0	31300	
1014	0	31380	
1015	0	31436	
1016	0	31448	
1017	0	31468	
1018	0	31514	
1019	0	31552	
1020	0	31564	
1021	0	31564	
1022	0	31576	
1023	0	31564	
1024	0	31568	
1025	0	31600	
1026	0	31656	
1027	0	31672	
1028	0	31648	
1029	0	31668	
1030	0	31694	
1031	0	31722	
1032	0	31728	
1033	0	31704	
1034	0	31618	
1035	0	31592	
1036	0	31580	
1037	0	31532	
1038	0	31560	
1039	0	31544	
1040	0	31508	
1041	0	31448	
1042	0	31432	
1043	0	31482	
1044	0	31584	
1045	0	31680	
1046	0	31808	
1047	0	31892	
1048	0	31880	
1049	0	31860	
1050	0	31876	
1051	0	31944	
1052	0	31988	
1053	0	31936	
1054	0	31868	
1055	0	31880	
1056	0	31864	
1057	0	31856	
1058	0	31884	
1059	0	31864	
1060	0	31834	
1061	0	31824	
1062	0	31800	
1063	0	31900	
1064	0	32004	
1065	0	32080	
1066	0	32084	
1067	0	32136	
1068	0	32200	
1069	0	32272	
1070	0	32368	
1071	0	32384	
1072	0	32280	
1073	0	32132	
1074	0	32068	
1075	0	32022	
1076	0	31956	
1077	0	31944	
1078	0	31904	
1079	0	31908	
1080	0	31904	
1081	0	31930	
1082	0	31976	
1083	0	31984	
1084	0	31964	
1085	0	31960	
1086	0	32060	
1087	0	32140	
1088	0	32164	
1089	0	32160	
1090	0	32208	
1091	0	32256	
1092	0	32288	
1093	0	32249	
1094	0	32192	
1095	0	32196	
1096	0	32262	
1097	0	32280	
1098	0	32318	
1099	0	32284	
1100	0	32272	
1101	0	32272	
1102	0	32292	
1103	0	32288	
1104	0	32268	
1105	0	32256	
1106	0	32228	
1107	0	32268	
1108	0	32340	
1109	0	32400	
1110	0	32388	
1111	0	32410	
1112	0	32456	
1113	0	32540	
1114	0	32552	
1115	0	32508	
1116	0	32522	
1117	0	32528	
1118	0	32480	
1119	0	32432	
1120	0	32416	
1121	0	32388	
1122	0	32316	
1123	0	32300	
1124	0	32224	
1125	0	32194	
1126	0	32206	
1127	0	32256	
1128	0	32332	
1129	0	32432	
1130	0	32500	
1131	0	32498	
1132	0	32520	
1133	0	32570	
1134	0	32576	
1135	0	32568	
1136	0	32596	
1137	0	32564	
1138	0	32536	
1139	0	32516	
1140	0	32502	
1141	0	32512	
1142	0	32528	
1143	0	32504	
1144	0	32524	
1145	0	32588	
1146	0	32628	
1147	0	32604	
1148	0	32608	
1149	0	32644	
1150	0	32676	
1151	0	32704	
1152	0	32728	
1153	0	32694	
1154	0	32644	
1155	0	32686	
1156	0	32676	
1157	0	32632	
1158	0	32700	
1159	0	32732	
1160	0	32712	
1161	0	32720	
1162	0	32754	
1163	0	32760	
1164	0	32684	
1165	0	32612	
1166	0	32606	
1167	0	32644	
1168	0	32672	
1169	0	32672	
1170	0	32688	
1171	0	32748	
1172	0	32788	
1173	0	32752	
1174	0	32748	
1175	0	32736	
1176	0	32648	
1177	0	32584	
1178	0	32518	
1179	0	32456	
1180	0	32520	
1181	0	32602	
1182	0	32800	
1183	0	32928	
1184	0	32980	
1185	0	33008	
1186	0	33024	
1187	0	32936	
1188	0	32852	
1189	0	32782	
1190	0	32692	
1191	0	32628	
1192	0	32544	
1193	0	32424	
1194	0	32356	
1195	0	32320	
1196	0	32204	
1197	0	32108	
1198	0	32008	
1199	0	31892	
1200	0	31816	
1201	0	31828	
1202	0	31936	
1203	0	32104	
1204	0	32298	
1205	0	32448	
1206	0	32584	
1207	0	32716	
1208	0	32868	
1209	0	33004	
1210	0	33120	
1211	0	33308	
1212	0	33408	
1213	0	33460	
1214	0	33480	
1215	0	33508	
1216	0	33554	
1217	0	33668	
1218	0	33724	
1219	0	33668	
1220	0	33508	
1221	0	33362	
1222	0	33242	
1223	0	33124	
1224	0	33004	
1225	0	32988	
1226	0	33132	
1227	0	33288	
1228	0	33404	
1229	0	33472	
1230	0	33584	
1231	0	33732	
1232	0	33824	
1233	0	33932	
1234	0	34000	
1235	0	34060	
1236	0	34124	
1237	0	34144	
1238	0	34052	
1239	0	33944	
1240	0	33924	
1241	0	33948	
1242	0	33992	
1243	0	34020	
1244	0	33968	
1245	0	33900	
1246	0	33744	
1247	0	33572	
1248	0	33436	
1249	0	33258	
1250	0	33048	
1251	0	32824	
1252	0	32632	
1253	0	32528	
1254	0	32502	
1255	0	32544	
1256	0	32588	
1257	0	32568	
1258	0	32556	
1259	0	32616	
1260	0	32656	
1261	0	32648	
1262	0	32676	
1263	0	32656	
1264	0	32626	
1265	0	32652	
1266	0	32680	
1267	0	32778	
1268	0	32852	
1269	0	32892	
1270	0	32904	
1271	0	32884	
1272	0	32826	
1273	0	32830	
1274	0	32896	
1275	0	32964	
1276	0	33096	
1277	0	33118	
1278	0	33112	
1279	0	33096	
1280	0	33082	
1281	0	33066	
1282	0	33104	
1283	0	33152	
1284	0	33208	
1285	0	33262	
1286	0	33316	
1287	0	33332	
1288	0	33288	
1289	0	33260	
1290	0	33300	
1291	0	33380	
1292	0	33412	
1293	0	33432	
1294	0	33468	
1295	0	33480	
1296	0	33512	
1297	0	33476	
1298	0	33380	
1299	0	33304	
1300	0	33156	
1301	0	33012	
1302	0	32896	
1303	0	32632	
1304	0	32248	
1305	0	31956	
1306	0	31798	
1307	0	31800	
1308	0	31992	
1309	0	32368	
1310	0	32852	
1311	0	33480	
1312	0	34196	
1313	0	35040	
1314	0	35956	
1315	0	36852	
1316	0	37886	
1317	0	39072	
1318	0	40408	
1319	0	42024	
1320	0	43980	
1321	0	46164	
1322	0	48384	
1323	0	50620	
1324	0	53028	
1325	0	55820	
1326	0	58848	
1327	0	61656	
1328	0	63230	
1329	0	64056	
1330	0	64448	
1331	0	64608	
1332	0	64636	
1333	0	64588	
1334	0	64516	
1335	0	64406	
1336	0	64304	
1337	0	64176	
1338	0	64048	
1339	0	63928	
1340	0	63796	
1341	0	63672	
1342	0	63560	
1343	0	60756	
1344	0	54776	
1345	0	48930	
1346	0	43378	
1347	0	38644	
1348	0	34932	
1349	0	32288	
1350	0	30400	
1351	0	29104	
1352	0	28274	
1353	0	27658	
1354	0	27288	
1355	0	27020	
1356	0	26798	
1357	0	26556	
1358	0	26236	
1359	0	25916	
1360	0	25572	
1361	0	25336	
1362	0	25292	
1363	0	25364	
1364	0	25520	
1365	0	25796	
1366	0	26232	
1367	0	26752	
1368	0	27234	
1369	0	27492	
1370	0	27744	
1371	0	28004	
1372	0	28285	
1373	0	28516	
1374	0	28706	
1375	0	28828	
1376	0	28952	
1377	0	29140	
1378	0	29312	
1379	0	29500	
1380	0	29612	
1381	0	29644	
1382	0	29672	
1383	0	29736	
1384	0	29784	
1385	0	29812	
1386	0	29856	
1387	0	29888	
1388	0	29828	
1389	0	29752	
1390	0	29684	
1391	0	29688	
1392	0	29736	
1393	0	29792	
1394	0	29788	
1395	0	29824	
1396	0	29876	
1397	0	29892	
1398	0	29968	
1399	0	29926	
1400	0	29900	
1401	0	29946	
1402	0	30008	
1403	0	30058	
1404	0	30122	
1405	0	30172	
1406	0	30172	
1407	0	30208	
1408	0	30304	
1409	0	30364	
1410	0	30396	
1411	0	30376	
1412	0	30410	
1413	0	30448	
1414	0	30444	
1415	0	30488	
1416	0	30500	
1417	0	30502	
1418	0	30532	
1419	0	30544	
1420	0	30616	
1421	0	30730	
1422	0	30764	
1423	0	30794	
1424	0	30860	
1425	0	30856	
1426	0	30836	
1427	0	30812	
1428	0	30780	
1429	0	30746	
1430	0	30768	
1431	0	30800	
1432	0	30888	
1433	0	30942	
1434	0	30932	
1435	0	30988	
1436	0	31004	
1437	0	31036	
1438	0	31104	
1439	0	31216	
1440	0	31288	
1441	0	31372	
1442	0	31484	
1443	0	31596	
1444	0	31616	
1445	0	31664	
1446	0	31728	
1447	0	31758	
1448	0	31732	
1449	0	31752	
1450	0	31776	
1451	0	31760	
1452	0	31784	
1453	0	31794	
1454	0	31776	
1455	0	31804	
1456	0	31892	
1457	0	32004	
1458	0	32080	
1459	0	32076	
1460	0	32032	
1461	0	32042	
1462	0	32064	
1463	0	32020	
1464	0	32062	
1465	0	32160	
1466	0	32172	
1467	0	32200	
1468	0	32240	
1469	0	32340	
1470	0	32448	
1471	0	32480	
1472	0	32512	
1473	0	32554	
1474	0	32588	
1475	0	32600	
1476	0	32632	
1477	0	32620	
1478	0	32656	
1479	0	32744	
1480	0	32788	
1481	0	32764	
1482	0	32760	
1483	0	32800	
1484	0	32800	
1485	0	32840	
1486	0	32914	
1487	0	33012	
1488	0	33120	
1489	0	33216	
1490	0	33296	
1491	0	33316	
1492	0	33328	
1493	0	33356	
1494	0	33344	
1495	0	33304	
1496	0	33272	
1497	0	33292	
1498	0	33274	
1499	0	33292	
1500	0	33344	
1501	0	33372	
1502	0	33468	
1503	0	33592	
1504	0	33644	
1505	0	33648	
1506	0	33672	
1507	0	33696	
1508	0	33708	
1509	0	33720	
1510	0	33720	
1511	0	33712	
1512	0	33680	
1513	0	33698	
1514	0	33752	
1515	0	33788	
1516	0	33880	
1517	0	33980	
1518	0	34008	
1519	0	34028	
1520	0	34060	
1521	0	34080	
1522	0	34072	
1523	0	34076	
1524	0	34120	
1525	0	34148	
1526	0	34216	
1527	0	34264	
1528	0	34268	
1529	0	34260	
1530	0	34296	
1531	0	34348	
1532	0	34412	
1533	0	34476	
1534	0	34520	
1535	0	34612	
1536	0	34668	
1537	0	34612	
1538	0	34580	
1539	0	34628	
1540	0	34688	
1541	0	34744	
1542	0	34804	
1543	0	34832	
1544	0	34832	
1545	0	34884	
1546	0	34912	
1547	0	34976	
1548	0	35044	
1549	0	35092	
1550	0	35148	
1551	0	35196	
1552	0	35276	
1553	0	35280	
1554	0	35268	
1555	0	35312	
1556	0	35364	
1557	0	35472	
1558	0	35532	
1559	0	35576	
1560	0	35676	
1561	0	35784	
1562	0	35836	
1563	0	35800	
1564	0	35794	
1565	0	35836	
1566	0	35872	
1567	0	35920	
1568	0	35920	
1569	0	35964	
1570	0	35996	
1571	0	36012	
1572	0	36044	
1573	0	36076	
1574	0	36108	
1575	0	36160	
1576	0	36212	
1577	0	36240	
1578	0	36276	
1579	0	36360	
1580	0	36408	
1581	0	36432	
1582	0	36492	
1583	0	36506	
1584	0	36564	
1585	0	36600	
1586	0	36660	
1587	0	36680	
1588	0	36672	
1589	0	36740	
1590	0	36712	
1591	0	36728	
1592	0	36804	
1593	0	36880	
1594	0	36936	
1595	0	36952	
1596	0	36992	
1597	0	36996	
1598	0	36948	
1599	0	36940	
1600	0	36936	
1601	0	36948	
1602	0	36968	
1603	0	36960	
1604	0	36928	
1605	0	36920	
1606	0	36896	
1607	0	36864	
1608	0	36872	
1609	0	36894	
1610	0	36852	
1611	0	36788	
1612	0	36692	
1613	0	36604	
1614	0	36516	
1615	0	36408	
1616	0	36240	
1617	0	36056	
1618	0	35952	
1619	0	35884	
1620	0	35744	
1621	0	35552	
1622	0	35360	
1623	0	35148	
1624	0	35004	
1625	0	34856	
1626	0	34696	
1627	0	34560	
1628	0	34408	
1629	0	34228	
1630	0	34036	
1631	0	33856	
1632	0	33690	
1633	0	33528	
1634	0	33412	
1635	0	33284	
1636	0	33094	
1637	0	32868	
1638	0	32612	
1639	0	32428	
1640	0	32224	
1641	0	32098	
1642	0	32012	
1643	0	31900	
1644	0	31752	
1645	0	31560	
1646	0	31424	
1647	0	31340	
1648	0	31224	
1649	0	31112	
1650	0	30996	
1651	0	30952	
1652	0	30874	
1653	0	30704	
1654	0	30580	
1655	0	30490	
1656	0	30376	
1657	0	30208	
1658	0	30040	
1659	0	29920	
1660	0	29852	
1661	0	29784	
1662	0	29696	
1663	0	29644	
1664	0	29590	
1665	0	29526	
1666	0	29476	
1667	0	29400	
1668	0	29336	
1669	0	29232	
1670	0	29202	
1671	0	29184	
1672	0	29160	
1673	0	29116	
1674	0	29052	
1675	0	28968	
1676	0	28920	
1677	0	28868	
1678	0	28864	
1679	0	28868	
1680	0	28816	
1681	0	28744	
1682	0	28660	
1683	0	28636	
1684	0	28640	
1685	0	28620	
1686	0	28596	
1687	0	28616	
1688	0	28692	
1689	0	28732	
1690	0	28744	
1691	0	28752	
1692	0	28776	
1693	0	28832	
1694	0	28840	
1695	0	28832	
1696	0	28828	
1697	0	28784	
1698	0	28724	
1699	0	28706	
1700	0	28764	
1701	0	28772	
1702	0	28804	
1703	0	28900	
1704	0	28976	
1705	0	29072	
1706	0	29140	
1707	0	29164	
1708	0	29208	
1709	0	29200	
1710	0	29172	
1711	0	29180	
1712	0	29152	
1713	0	29140	
1714	0	29166	
1715	0	29232	
1716	0	29306	
1717	0	29336	
1718	0	29368	
1719	0	29408	
1720	0	29484	
1721	0	29484	
1722	0	29396	
1723	0	29348	
1724	0	29310	
1725	0	29278	
1726	0	29272	
1727	0	29316	
1728	0	29372	
1729	0	29448	
1730	0	29528	
1731	0	29616	
1732	0	29632	
1733	0	29652	
1734	0	29660	
1735	0	29656	
1736	0	29592	
1737	0	29588	
1738	0	29620	
1739	0	29702	
1740	0	29768	
1741	0	29800	
1742	0	29824	
1743	0	29840	
1744	0	29832	
1745	0	29852	
1746	0	29844	
1747	0	29788	
1748	0	29736	
1749	0	29772	
1750	0	29868	
1751	0	29968	
1752	0	30030	
1753	0	30064	
1754	0	30060	
1755	0	30098	
1756	0	30096	
1757	0	30096	
1758	0	30096	
1759	0	30044	
1760	0	30016	
1761	0	29996	
1762	0	29960	
1763	0	29940	
1764	0	29952	
1765	0	29960	
1766	0	29936	
1767	0	29960	
1768	0	30008	
1769	0	30016	
1770	0	30020	
1771	0	30024	
1772	0	30048	
1773	0	30048	
1774	0	29964	
1775	0	29944	
1776	0	29964	
1777	0	29968	
1778	0	29984	
1779	0	30020	
1780	0	30102	
1781	0	30212	
1782	0	30288	
1783	0	30292	
1784	0	30288	
1785	0	30284	
1786	0	30272	
1787	0	30260	
1788	0	30224	
1789	0	30188	
1790	0	30208	
1791	0	30248	
1792	0	30272	
1793	0	30248	
1794	0	30196	
1795	0	30176	
1796	0	30192	
1797	0	30212	
1798	0	30244	
1799	0	30268	
1800	0	30266	
1801	0	30254	
1802	0	30276	
1803	0	30292	
1804	0	30268	
1805	0	30240	
1806	0	30242	
1807	0	30244	
1808	0	30264	
1809	0	30288	
1810	0	30348	
1811	0	30368	
1812	0	30372	
1813	0	30364	
1814	0	30324	
1815	0	30258	
1816	0	30260	
1817	0	30250	
1818	0	30192	
1819	0	30172	
1820	0	30160	
1821	0	30136	
1822	0	30148	
1823	0	30184	
1824	0	30180	
1825	0	30156	
1826	0	30204	
1827	0	30296	
1828	0	30300	
1829	0	30344	
1830	0	30432	
1831	0	30490	
1832	0	30520	
1833	0	30560	
1834	0	30588	
1835	0	30568	
1836	0	30568	
1837	0	30564	
1838	0	30544	
1839	0	30532	
1840	0	30492	
1841	0	30456	
1842	0	30428	
1843	0	30456	
1844	0	30544	
1845	0	30592	
1846	0	30566	
1847	0	30560	
1848	0	30592	
1849	0	30586	
1850	0	30592	
1851	0	30552	
1852	0	30554	
1853	0	30612	
1854	0	30680	
1855	0	30676	
1856	0	30624	
1857	0	30624	
1858	0	30696	
1859	0	30764	
1860	0	30772	
1861	0	30764	
1862	0	30708	
1863	0	30720	
1864	0	30794	
1865	0	30844	
1866	0	30848	
1867	0	30832	
1868	0	30784	
1869	0	30724	
1870	0	30766	
1871	0	30808	
1872	0	30812	
1873	0	30828	
1874	0	30824	
1875	0	30816	
1876	0	30820	
1877	0	30844	
1878	0	30864	
1879	0	30912	
1880	0	30912	
1881	0	30976	
1882	0	31064	
1883	0	31176	
1884	0	31176	
1885	0	31104	
1886	0	31092	
1887	0	31156	
1888	0	31216	
1889	0	31232	
1890	0	31204	
1891	0	31184	
1892	0	31168	
1893	0	31200	
1894	0	31216	
1895	0	31256	
1896	0	31236	
1897	0	31216	
1898	0	31224	
1899	0	31248	
1900	0	31280	
1901	0	31260	
1902	0	31192	
1903	0	31176	
1904	0	31264	
1905	0	31292	
1906	0	31288	
1907	0	31320	
1908	0	31348	
1909	0	31352	
1910	0	31328	
1911	0	31308	
1912	0	31288	
1913	0	31296	
1914	0	31284	
1915	0	31308	
1916	0	31368	
1917	0	31440	
1918	0	31472	
1919	0	31446	
1920	0	31416	
1921	0	31460	
1922	0	31468	
1923	0	31408	
1924	0	31394	
1925	0	31444	
1926	0	31516	
1927	0	31616	
1928	0	31688	
1929	0	31688	
1930	0	31672	
1931	0	31708	
1932	0	31734	
1933	0	31688	
1934	0	31616	
1935	0	31572	
1936	0	31576	
1937	0	31632	
1938	0	31648	
1939	0	31620	
1940	0	31612	
1941	0	31592	
1942	0	31608	
1943	0	31720	
1944	0	31820	
1945	0	31892	
1946	0	31968	
1947	0	31956	
1948	0	31912	
1949	0	31868	
1950	0	31848	
1951	0	31812	
1952	0	31838	
1953	0	31856	
1954	0	31888	
1955	0	31872	
1956	0	31900	
1957	0	31940	
1958	0	31896	
1959	0	31932	
1960	0	32024	
1961	0	32064	
1962	0	32044	
1963	0	32080	
1964	0	32032	
1965	0	31988	
1966	0	31932	
1967	0	31852	
1968	0	31836	
1969	0	31898	
1970	0	31944	
1971	0	31972	
1972	0	32036	
1973	0	32072	
1974	0	32104	
1975	0	32148	
1976	0	32160	
1977	0	32224	
1978	0	32268	
1979	0	32260	
1980	0	32200	
1981	0	32190	
1982	0	32178	
1983	0	32156	
1984	0	32196	
1985	0	32184	
1986	0	32172	
1987	0	32170	
1988	0	32162	
1989	0	32120	
1990	0	32072	
1991	0	32140	
1992	0	32208	
1993	0	32252	
1994	0	32288	
1995	0	32328	
1996	0	32352	
1997	0	32362	
1998	0	32384	
1999	0	32412	
2000	0	32400	
2001	0	32376	
2002	0	32400	
2003	0	32460	
2004	0	32572	
2005	0	32628	
2006	0	32604	
2007	0	32544	
2008	0	32444	
2009	0	32344	
2010	0	32208	
2011	0	32192	
2012	0	32236	
2013	0	32272	
2014	0	32316	
2015	0	32368	
2016	0	32372	
2017	0	32382	
2018	0	32448	
2019	0	32516	
2020	0	32544	
2021	0	32560	
2022	0	32584	
2023	0	32612	
2024	0	32644	
2025	0	32620	
2026	0	32560	
2027	0	32462	
2028	0	32412	
2029	0	32412	
2030	0	32400	
2031	0	32428	
2032	0	32484	
2033	0	32544	
2034	0	32622	
2035	0	32668	
2036	0	32696	
2037	0	32644	
2038	0	32624	
2039	0	32616	
2040	0	32578	
2041	0	32496	
2042	0	32500	
2043	0	32524	
2044	0	32564	
2045	0	32576	
2046	0	32488	
2047	0	32452	
2048	0	32496	
2049	0	32520	
2050	0	32564	
2051	0	32612	
2052	0	32624	
2053	0	32632	
2054	0	32652	
2055	0	32656	
2056	0	32700	
2057	0	32800	
2058	0	32776	
2059	0	32720	
2060	0	32668	
2061	0	32668	
2062	0	32704	
2063	0	32808	
2064	0	32892	
2065	0	32924	
2066	0	32900	
2067	0	32864	
2068	0	32832	
2069	0	32796	
2070	0	32740	
2071	0	32640	
2072	0	32616	
2073	0	32660	
2074	0	32706	
2075	0	32796	
2076	0	32898	
2077	0	32944	
2078	0	32908	
2079	0	32832	
2080	0	32732	
2081	0	32634	
2082	0	32568	
2083	0	32520	
2084	0	32524	
2085	0	32532	
2086	0	32460	
2087	0	32352	
2088	0	32224	
2089	0	32104	
2090	0	32084	
2091	0	32124	
2092	0	32136	
2093	0	32084	
2094	0	32076	
2095	0	32122	
2096	0	32220	
2097	0	32376	
2098	0	32504	
2099	0	32644	
2100	0	32840	
2101	0	33032	
2102	0	33184	
2103	0	33308	
2104	0	33408	
2105	0	33520	
2106	0	33656	
2107	0	33728	
2108	0	33752	
2109	0	33780	
2110	0	33824	
2111	0	33836	
2112	0	33764	
2113	0	33592	
2114	0	33440	
2115	0	33220	
2116	0	33072	
2117	0	32992	
2118	0	32972	
2119	0	33028	
2120	0	33060	
2121	0	33202	
2122	0	33344	
2123	0	33418	
2124	0	33548	
2125	0	33636	
2126	0	33697	
2127	0	33784	
2128	0	33840	
2129	0	33908	
2130	0	33964	
2131	0	33928	
2132	0	33912	
2133	0	33900	
2134	0	33912	
2135	0	33954	
2136	0	33952	
2137	0	33912	
2138	0	33780	
2139	0	33594	
2140	0	33416	
2141	0	33242	
2142	0	33068	
2143	0	32856	
2144	0	32652	
2145	0	32568	
2146	0	32588	
2147	0	32708	
2148	0	32760	
2149	0	32738	
2150	0	32764	
2151	0	32800	
2152	0	32792	
2153	0	32800	
2154	0	32792	
2155	0	32742	
2156	0	32700	
2157	0	32716	
2158	0	32768	
2159	0	32788	
2160	0	32744	
2161	0	32708	
2162	0	32684	
2163	0	32712	
2164	0	32768	
2165	0	32800	
2166	0	32858	
2167	0	32884	
2168	0	32892	
2169	0	32868	
2170	0	32896	
2171	0	32936	
2172	0	32976	
2173	0	33072	
2174	0	33152	
2175	0	33206	
2176	0	33224	
2177	0	33292	
2178	0	33300	
2179	0	33340	
2180	0	33392	
2181	0	33384	
2182	0	33376	
2183	0	33396	
2184	0	33412	
2185	0	33432	
2186	0	33420	
2187	0	33418	
2188	0	33397	
2189	0	33356	
2190	0	33312	
2191	0	33224	
2192	0	33060	
2193	0	32884	
2194	0	32648	
2195	0	32392	
2196	0	32214	
2197	0	32148	
2198	0	32300	
2199	0	32688	
2200	0	33120	
2201	0	33684	
2202	0	34306	
2203	0	34964	
2204	0	35732	
2205	0	36592	
2206	0	37460	
2207	0	38492	
2208	0	39760	
2209	0	41288	
2210	0	43028	
2211	0	44996	
2212	0	47144	
2213	0	49344	
2214	0	51644	
2215	0	54208	
2216	0	57120	
2217	0	60116	
2218	0	62512	
2219	0	63792	
2220	0	64448	
2221	0	64720	
2222	0	64832	
2223	0	64832	
2224	0	64764	
2225	0	64688	
2226	0	64576	
2227	0	64472	
2228	0	64336	
2229	0	64224	
2230	0	64092	
2231	0	63952	
2232	0	63828	
2233	0	63700	
2234	0	57700	
2235	0	51944	
2236	0	46204	
2237	0	40996	
2238	0	36712	
2239	0	33556	
2240	0	31348	
2241	0	29760	
2242	0	28716	
2243	0	28008	
2244	0	27536	
2245	0	27284	
2246	0	27140	
2247	0	26912	
2248	0	26588	
2249	0	26264	
2250	0	25932	
2251	0	25564	
2252	0	25312	
2253	0	25208	
2254	0	25284	
2255	0	25536	
2256	0	25872	
2257	0	26156	
2258	0	26580	
2259	0	27032	
2260	0	27300	
2261	0	27600	
2262	0	27880	
2263	0	28160	
2264	0	28424	
2265	0	28640	
2266	0	28828	
2267	0	29024	
2268	0	29208	
2269	0	29388	
2270	0	29580	
2271	0	29728	
2272	0	29744	
2273	0	29688	
2274	0	29648	
2275	0	29648	
2276	0	29624	
2277	0	29582	
2278	0	29564	
2279	0	29568	
2280	0	29600	
2281	0	29656	
2282	0	29640	
2283	0	29630	
2284	0	29658	
2285	0	29692	
2286	0	29736	
2287	0	29800	
2288	0	29872	
2289	0	29876	
2290	0	29872	
2291	0	29888	
2292	0	29952	
2293	0	30042	
2294	0	30104	
2295	0	30160	
2296	0	30188	
2297	0	30210	
2298	0	30228	
2299	0	30292	
2300	0	30244	
2301	0	30256	
2302	0	30260	
2303	0	30272	
2304	0	30360	
2305	0	30456	
2306	0	30512	
2307	0	30544	
2308	0	30568	
2309	0	30604	
2310	0	30640	
2311	0	30628	
2312	0	30610	
2313	0	30632	
2314	0	30668	
2315	0	30678	
2316	0	30716	
2317	0	30760	
2318	0	30792	
2319	0	30816	
2320	0	30880	
2321	0	30970	
2322	0	31002	
2323	0	31072	
2324	0	31112	
2325	0	31144	
2326	0	31116	
2327	0	31080	
2328	0	31084	
2329	0	31168	
2330	0	31176	
2331	0	31178	
2332	0	31238	
2333	0	31344	
2334	0	31400	
2335	0	31432	
2336	0	31524	
2337	0	31612	
2338	0	31684	
2339	0	31690	
2340	0	31712	
2341	0	31812	
2342	0	31856	
2343	0	31872	
2344	0	31912	
2345	0	31980	
2346	0	32018	
2347	0	32056	
2348	0	32052	
2349	0	32008	
2350	0	32020	
2351	0	32020	
2352	0	32048	
2353	0	32060	
2354	0	32136	
2355	0	32168	
2356	0	32172	
2357	0	32228	
2358	0	32312	
2359	0	32372	
2360	0	32386	
2361	0	32464	
2362	0	32516	
2363	0	32556	
2364	0	32560	
2365	0	32604	
2366	0	32744	
2367	0	32828	
2368	0	32848	
2369	0	32800	
2370	0	32720	
2371	0	32716	
2372	0	32724	
2373	0	32724	
2374	0	32764	
2375	0	32824	
2376	0	32868	
2377	0	32936	
2378	0	32936	
2379	0	32912	
2380	0	32914	
2381	0	32984	
2382	0	33040	
2383	0	33072	
2384	0	33044	
2385	0	33100	
2386	0	33188	
2387	0	33248	
2388	0	33344	
2389	0	33424	
2390	0	33448	
2391	0	33432	
2392	0	33482	
2393	0	33500	
2394	0	33504	
2395	0	33572	
2396	0	33652	
2397	0	33736	
2398	0	33788	
2399	0	33824	
2400	0	33776	
2401	0	33768	
2402	0	33800	
2403	0	33856	
2404	0	33884	
2405	0	33948	
2406	0	34012	
2407	0	33984	
2408	0	33960	
2409	0	33956	
2410	0	33968	
2411	0	33972	
2412	0	33968	
2413	0	34016	
2414	0	34008	
2415	0	34044	
2416	0	34072	
2417	0	34082	
2418	0	34100	
2419	0	34144	
2420	0	34188	
2421	0	34216	
2422	0	34220	
2423	0	34222	
2424	0	34312	
2425	0	34436	
2426	0	34524	
2427	0	34576	
2428	0	34624	
2429	0	34656	
2430	0	34746	
2431	0	34804	
2432	0	34840	
2433	0	34832	
2434	0	34770	
2435	0	34740	
2436	0	34766	
2437	0	34848	
2438	0	34932	
2439	0	35000	
2440	0	35086	
2441	0	35140	
2442	0	35176	
2443	0	35300	
2444	0	35416	
2445	0	35456	
2446	0	35492	
2447	0	35504	
2448	0	35532	
2449	0	35552	
2450	0	35560	
2451	0	35612	
2452	0	35680	
2453	0	35756	
2454	0	35868	
2455	0	35936	
2456	0	35968	
2457	0	35960	
2458	0	35936	
2459	0	35952	
2460	0	36066	
2461	0	36160	
2462	0	36208	
2463	0	36256	
2464	0	36300	
2465	0	36344	
2466	0	36424	
2467	0	36516	
2468	0	36588	
2469	0	36636	
2470	0	36654	
2471	0	36708	
2472	0	36768	
2473	0	36764	
2474	0	36756	
2475	0	36792	
2476	0	36852	
2477	0	36952	
2478	0	36968	
2479	0	36960	
2480	0	36948	
2481	0	36976	
2482	0	37100	
2483	0	37168	
2484	0	37178	
2485	0	37272	
2486	0	37348	
2487	0	37412	
2488	0	37472	
2489	0	37552	
2490	0	37600	
2491	0	37608	
2492	0	37564	
2493	0	37500	
2494	0	37516	
2495	0	37454	
2496	0	37396	
2497	0	37384	
2498	0	37388	
2499	0	37392	
2500	0	37344	
2501	0	37224	
2502	0	37100	
2503	0	37048	
2504	0	37013	
2505	0	36928	
2506	0	36780	
2507	0	36576	
2508	0	36470	
2509	0	36392	
2510	0	36252	
2511	0	36128	
2512	0	35932	
2513	0	35704	
2514	0	35472	
2515	0	35248	
2516	0	35072	
2517	0	34832	
2518	0	34576	
2519	0	34356	
2520	0	34176	
2521	0	33980	
2522	0	33816	
2523	0	33668	
2524	0	33500	
2525	0	33292	
2526	0	33088	
2527	0	32916	
2528	0	32764	
2529	0	32576	
2530	0	32398	
2531	0	32200	
2532	0	32008	
2533	0	31848	
2534	0	31680	
2535	0	31512	
2536	0	31332	
2537	0	31112	
2538	0	30908	
2539	0	30720	
2540	0	30536	
2541	0	30384	
2542	0	30336	
2543	0	30278	
2544	0	30140	
2545	0	30032	
2546	0	29946	
2547	0	29856	
2548	0	29756	
2549	0	29672	
2550	0	29620	
2551	0	29600	
2552	0	29576	
2553	0	29556	
2554	0	29416	
2555	0	29273	
2556	0	29172	
2557	0	29080	
2558	0	28996	
2559	0	28976	
2560	0	28912	
2561	0	28808	
2562	0	28676	
2563	0	28608	
2564	0	28604	
2565	0	28578	
2566	0	28524	
2567	0	28432	
2568	0	28412	
2569	0	28376	
2570	0	28306	
2571	0	28300	
2572	0	28324	
2573	0	28340	
2574	0	28316	
2575	0	28272	
2576	0	28276	
2577	0	28352	
2578	0	28420	
2579	0	28420	
2580	0	28456	
2581	0	28568	
2582	0	28696	
2583	0	28708	
2584	0	28668	
2585	0	28614	
2586	0	28542	
2587	0	28480	
2588	0	28474	
2589	0	28464	
2590	0	28396	
2591	0	28384	
2592	0	28420	
2593	0	28490	
2594	0	28548	
2595	0	28632	
2596	0	28696	
2597	0	28676	
2598	0	28696	
2599	0	28656	
2600	0	28590	
2601	0	28620	
2602	0	28708	
2603	0	28752	
2604	0	28788	
2605	0	28912	
2606	0	29044	
2607	0	29072	
2608	0	29088	
2609	0	29088	
2610	0	29140	
2611	0	29208	
2612	0	29292	
2613	0	29316	
2614	0	29264	
2615	0	29222	
2616	0	29244	
2617	0	29324	
2618	0	29370	
2619	0	29364	
2620	0	29312	
2621	0	29296	
2622	0	29300	
2623	0	29340	
2624	0	29400	
2625	0	29472	
2626	0	29512	
2627	0	29532	
2628	0	29536	
2629	0	29568	
2630	0	29604	
2631	0	29672	
2632	0	29712	
2633	0	29698	
2634	0	29688	
2635	0	29640	
2636	0	29644	
2637	0	29676	
2638	0	29684	
2639	0	29672	
2640	0	29760	
2641	0	29848	
2642	0	29904	
2643	0	29900	
2644	0	29828	
2645	0	29806	
2646	0	29816	
2647	0	29832	
2648	0	29784	
2649	0	29744	
2650	0	29760	
2651	0	29764	
2652	0	29760	
2653	0	29760	
2654	0	29788	
2655	0	29834	
2656	0	29952	
2657	0	30008	
2658	0	29988	
2659	0	29932	
2660	0	29900	
2661	0	29872	
2662	0	29880	
2663	0	29912	
2664	0	29956	
2665	0	29932	
2666	0	29892	
2667	0	29876	
2668	0	29864	
2669	0	29872	
2670	0	29828	
2671	0	29844	
2672	0	29860	
2673	0	29830	
2674	0	29796	
2675	0	29864	
2676	0	29988	
2677	0	30068	
2678	0	30068	
2679	0	30024	
2680	0	29996	
2681	0	30032	
2682	0	30096	
2683	0	30134	
2684	0	30136	
2685	0	30112	
2686	0	30128	
2687	0	30178	
2688	0	30192	
2689	0	30156	
2690	0	30140	
2691	0	30152	
2692	0	30194	
2693	0	30228	
2694	0	30256	
2695	0	30264	
2696	0	30256	
2697	0	30216	
2698	0	30196	
2699	0	30180	
2700	0	30156	
2701	0	30132	
2702	0	30228	
2703	0	30304	
2704	0	30308	
2705	0	30304	
2706	0	30296	
2707	0	30268	
2708	0	30264	
2709	0	30304	
2710	0	30312	
2711	0	30336	
2712	0	30336	
2713	0	30332	
2714	0	30384	
2715	0	30336	
2716	0	30288	
2717	0	30240	
2718	0	30220	
2719	0	30202	
2720	0	30220	
2721	0	30220	
2722	0	30304	
2723	0	30400	
2724	0	30476	
2725	0	30544	
2726	0	30564	
2727	0	30552	
2728	0	30516	
2729	0	30464	
2730	0	30484	
2731	0	30466	
2732	0	30402	
2733	0	30408	
2734	0	30412	
2735	0	30402	
2736	0	30380	
2737	0	30334	
2738	0	30332	
2739	0	30372	
2740	0	30484	
2741	0	30592	
2742	0	30604	
2743	0	30620	
2744	0	30660	
2745	0	30676	
2746	0	30690	
2747	0	30712	
2748	0	30664	
2749	0	30588	
2750	0	30572	
2751	0	30628	
2752	0	30668	
2753	0	30664	
2754	0	30624	
2755	0	30568	
2756	0	30562	
2757	0	30608	
2758	0	30636	
2759	0	30668	
2760	0	30722	
2761	0	30748	
2762	0	30756	
2763	0	30870	
2764	0	30968	
2765	0	31020	
2766	0	30968	
2767	0	30932	
2768	0	30948	
2769	0	30964	
2770	0	30970	
2771	0	31000	
2772	0	31040	
2773	0	31092	
2774	0	31100	
2775	0	31144	
2776	0	31148	
2777	0	31108	
2778	0	31100	
2779	0	31116	
2780	0	31140	
2781	0	31170	
2782	0	31120	
2783	0	31072	
2784	0	31080	
2785	0	31124	
2786	0	31156	
2787	0	31204	
2788	0	31248	
2789	0	31256	
2790	0	31280	
2791	0	31276	
2792	0	31240	
2793	0	31236	
2794	0	31204	
2795	0	31144	
2796	0	31144	
2797	0	31210	
2798	0	31236	
2799	0	31256	
2800	0	31244	
2801	0	31212	
2802	0	31220	
2803	0	31332	
2804	0	31452	
2805	0	31480	
2806	0	31432	
2807	0	31400	
2808	0	31424	
2809	0	31448	
2810	0	31460	
2811	0	31484	
2812	0	31496	
2813	0	31512	
2814	0	31472	
2815	0	31436	
2816	0	31420	
2817	0	31384	
2818	0	31392	
2819	0	31392	
2820	0	31400	
2821	0	31520	
2822	0	31664	
2823	0	31756	
2824	0	31778	
2825	0	31828	
2826	0	31856	
2827	0	31840	
2828	0	31876	
2829	0	31892	
2830	0	31860	
2831	0	31848	
2832	0	31808	
2833	0	31784	
2834	0	31736	
2835	0	31762	
2836	0	31892	
2837	0	31936	
2838	0	31936	
2839	0	31948	
2840	0	31932	
2841	0	31880	
2842	0	31852	
2843	0	31832	
2844	0	31864	
2845	0	31882	
2846	0	31884	
2847	0	31888	
2848	0	31852	
2849	0	31840	
2850	0	31838	
2851	0	31796	
2852	0	31736	
2853	0	31736	
2854	0	31752	
2855	0	31776	
2856	0	31816	
2857	0	31832	
2858	0	31880	
2859	0	32000	
2860	0	32064	
2861	0	32112	
2862	0	32192	
2863	0	32184	
2864	0	32216	
2865	0	32192	
2866	0	32180	
2867	0	32244	
2868	0	32276	
2869	0	32200	
2870	0	32120	
2871	0	32112	
2872	0	32168	
2873	0	32104	
2874	0	32024	
2875	0	32036	
2876	0	32068	
2877	0	32036	
2878	0	32040	
2879	0	32072	
2880	0	32128	
2881	0	32196	
2882	0	32262	
2883	0	32300	
2884	0	32292	
2885	0	32260	
2886	0	32252	
2887	0	32260	
2888	0	32272	
2889	0	32260	
2890	0	32212	
2891	0	32164	
2892	0	32160	
2893	0	32172	
2894	0	32128	
2895	0	32088	
2896	0	32104	
2897	0	32162	
2898	0	32240	
2899	0	32260	
2900	0	32252	
2901	0	32284	
2902	0	32320	
2903	0	32348	
2904	0	32356	
2905	0	32450	
2906	0	32528	
2907	0	32568	
2908	0	32634	
2909	0	32656	
2910	0	32640	
2911	0	32644	
2912	0	32620	
2913	0	32568	
2914	0	32460	
2915	0	32412	
2916	0	32428	
2917	0	32408	
2918	0	32398	
2919	0	32448	
2920	0	32492	
2921	0	32528	
2922	0	32596	
2923	0	32640	
2924	0	32660	
2925	0	32720	
2926	0	32740	
2927	0	32688	
2928	0	32652	
2929	0	32696	
2930	0	32664	
2931	0	32664	
2932	0	32712	
2933	0	32812	
2934	0	32812	
2935	0	32748	
2936	0	32716	
2937	0	32740	
2938	0	32708	
2939	0	32612	
2940	0	32514	
2941	0	32426	
2942	0	32396	
2943	0	32390	
2944	0	32412	
2945	0	32416	
2946	0	32452	
2947	0	32552	
2948	0	32692	
2949	0	32852	
2950	0	32964	
2951	0	32956	
2952	0	32916	
2953	0	32844	
2954	0	32764	
2955	0	32672	
2956	0	32564	
2957	0	32460	
2958	0	32388	
2959	0	32328	
2960	0	32324	
2961	0	32400	
2962	0	32472	
2963	0	32576	
2964	0	32628	
2965	0	32604	
2966	0	32544	
2967	0	32576	
2968	0	32684	
2969	0	32800	
2970	0	32892	
2971	0	32948	
2972	0	33032	
2973	0	33140	
2974	0	33212	
2975	0	33260	
2976	0	33292	
2977	0	33364	
2978	0	33496	
2979	0	33604	
2980	0	33668	
2981	0	33720	
2982	0	33780	
2983	0	33836	
2984	0	33812	
2985	0	33732	
2986	0	33600	
2987	0	33398	
2988	0	33184	
2989	0	32964	
2990	0	32880	
2991	0	32932	
2992	0	33028	
2993	0	33100	
2994	0	33196	
2995	0	33312	
2996	0	33440	
2997	0	33580	
2998	0	33720	
2999	0	33756	
3000	0	33760	
3001	0	33760	
3002	0	33768	
3003	0	33832	
3004	0	33900	
3005	0	33940	
3006	0	33966	
3007	0	34008	
3008	0	33984	
3009	0	33944	
3010	0	33920	
3011	0	33880	
3012	0	33680	
3013	0	33484	
3014	0	33348	
3015	0	33142	
3016	0	32892	
3017	0	32688	
3018	0	32508	
3019	0	32432	
3020	0	32400	
3021	0	32426	
3022	0	32484	
3023	0	32508	
3024	0	32584	
3025	0	32660	
3026	0	32656	
3027	0	32644	
3028	0	32642	
3029	0	32628	
3030	0	32660	
3031	0	32680	
3032	0	32720	
3033	0	32700	
3034	0	32678	
3035	0	32626	
3036	0	32696	
3037	0	32792	
3038	0	32840	
3039	0	32900	
3040	0	32964	
3041	0	32964	
3042	0	32936	
3043	0	32976	
3044	0	32984	
3045	0	33068	
3046	0	33140	
3047	0	33200	
3048	0	33236	
3049	0	33314	
3050	0	33400	
3051	0	33484	
3052	0	33512	
3053	0	33520	
3054	0	33472	
3055	0	33404	
3056	0	33312	
3057	0	33268	
3058	0	33288	
3059	0	33224	
3060	0	33106	
3061	0	33012	
3062	0	32948	
3063	0	32884	
3064	0	32816	
3065	0	32664	
3066	0	32452	
3067	0	32288	
3068	0	32192	
3069	0	32332	
3070	0	32700	
3071	0	33118	
3072	0	33696	
3073	0	34376	
3074	0	35100	
3075	0	35848	
3076	0	36700	
3077	0	37632	
3078	0	38668	
3079	0	39850	
3080	0	41368	
3081	0	43108	
3082	0	45056	
3083	0	47240	
3084	0	49448	
3085	0	51736	
3086	0	54180	
3087	0	56952	
3088	0	59912	
3089	0	62496	
3090	0	63936	
3091	0	64656	
3092	0	65000	
3093	0	65128	
3094	0	65140	
3095	0	65100	
3096	0	65020	
3097	0	64908	
3098	0	64784	
3099	0	64668	
3100	0	64544	
3101	0	64412	
3102	0	64272	
3103	0	64152	
3104	0	64024	
3105	0	58500	
3106	0	52768	
3107	0	47024	
3108	0	41716	
3109	0	37336	
3110	0	34056	
3111	0	31728	
3112	0	30108	
3113	0	29004	
3114	0	28244	
3115	0	27644	
3116	0	27260	
3117	0	27008	
3118	0	26728	
3119	0	26396	
3120	0	26090	
3121	0	25828	
3122	0	25540	
3123	0	25304	
3124	0	25256	
3125	0	25344	
3126	0	25500	
3127	0	25748	
3128	0	26128	
3129	0	26568	
3130	0	26972	
3131	0	27288	
3132	0	27496	
3133	0	27662	
3134	0	27868	
3135	0	28116	
3136	0	28412	
3137	0	28712	
3138	0	28986	
3139	0	29280	
3140	0	29536	
3141	0	29760	
3142	0	29872	
3143	0	29852	
3144	0	29860	
3145	0	29848	
3146	0	29792	
3147	0	29736	
3148	0	29680	
3149	0	29610	
3150	0	29562	
3151	0	29524	
3152	0	29444	
3153	0	29448	
3154	0	29524	
3155	0	29656	
3156	0	29756	
3157	0	29820	
3158	0	29888	
3159	0	29944	
3160	0	30030	
3161	0	30040	
3162	0	30060	
3163	0	30096	
3164	0	30144	
3165	0	30160	
3166	0	30160	
3167	0	30176	
3168	0	30200	
3169	0	30148	
3170	0	30088	
3171	0	30088	
3172	0	30184	
3173	0	30280	
3174	0	30310	
3175	0	30292	
3176	0	30264	
3177	0	30328	
3178	0	30444	
3179	0	30508	
3180	0	30500	
3181	0	30576	
3182	0	30632	
3183	0	30680	
3184	0	30744	
3185	0	30788	
3186	0	30878	
3187	0	30892	
3188	0	30924	
3189	0	30972	
3190	0	31036	
3191	0	31104	
3192	0	31104	
3193	0	31152	
3194	0	31172	
3195	0	31190	
3196	0	31264	
3197	0	31356	
3198	0	31436	
3199	0	31488	
3200	0	31536	
3201	0	31520	
3202	0	31548	
3203	0	31568	
3204	0	31500	
3205	0	31480	
3206	0	31504	
3207	0	31536	
3208	0	31584	
3209	0	31580	
3210	0	31576	
3211	0	31574	
3212	0	31576	
3213	0	31612	
3214	0	31642	
3215	0	31836	
3216	0	32092	
3217	0	32220	
3218	0	32330	
3219	0	32440	
3220	0	32460	
3221	0	32408	
3222	0	32412	
3223	0	32368	
3224	0	32348	
3225	0	32428	
3226	0	32492	
3227	0	32448	
3228	0	32376	
3229	0	32384	
3230	0	32408	
3231	0	32388	
3232	0	32356	
3233	0	32396	
3234	0	32496	
3235	0	32620	
3236	0	32720	
3237	0	32834	
3238	0	32968	
3239	0	32976	
3240	0	32904	
3241	0	32866	
3242	0	32968	
3243	0	33132	
3244	0	33196	
3245	0	33180	
3246	0	33180	
3247	0	33196	
3248	0	33250	
3249	0	33304	
3250	0	33324	
3251	0	33300	
3252	0	33268	
3253	0	33286	
3254	0	33356	
3255	0	33396	
3256	0	33480	
3257	0	33530	
3258	0	33452	
3259	0	33370	
3260	0	33468	
3261	0	33524	
3262	0	33568	
3263	0	33624	
3264	0	33684	
3265	0	33736	
3266	0	33744	
3267	0	33760	
3268	0	33764	
3269	0	33784	
3270	0	33836	
3271	0	33928	
3272	0	34032	
3273	0	34132	
3274	0	34158	
3275	0	34224	
3276	0	34336	
3277	0	34444	
3278	0	34452	
3279	0	34360	
3280	0	34248	
3281	0	34228	
3282	0	34272	
3283	0	34304	
3284	0	34308	
3285	0	34308	
3286	0	34324	
3287	0	34384	
3288	0	34436	
3289	0	34460	
3290	0	34476	
3291	0	34528	
3292	0	34592	
3293	0	34640	
3294	0	34670	
3295	0	34620	
3296	0	34588	
3297	0	34664	
3298	0	34756	
3299	0	34866	
3300	0	34964	
3301	0	34976	
3302	0	34960	
3303	0	34946	
3304	0	35008	
3305	0	35020	
3306	0	35044	
3307	0	35148	
3308	0	35388	
3309	0	35540	
3310	0	35612	
3311	0	35596	
3312	0	35684	
3313	0	35752	
3314	0	35764	
3315	0	35820	
3316	0	35864	
3317	0	35824	
3318	0	35880	
3319	0	35864	
3320	0	35888	
3321	0	35960	
3322	0	36088	
3323	0	36196	
3324	0	36212	
3325	0	36220	
3326	0	36232	
3327	0	36280	
3328	0	36280	
3329	0	36308	
3330	0	36384	
3331	0	36552	
3332	0	36672	
3333	0	36704	
3334	0	36776	
3335	0	36842	
3336	0	36896	
3337	0	36920	
3338	0	36948	
3339	0	37012	
3340	0	37022	
3341	0	37024	
3342	0	37092	
3343	0	37190	
3344	0	37240	
3345	0	37348	
3346	0	37424	
3347	0	37440	
3348	0	37456	
3349	0	37532	
3350	0	37616	
3351	0	37618	
3352	0	37584	
3353	0	37576	
3354	0	37608	
3355	0	37592	
3356	0	37660	
3357	0	37760	
3358	0	37800	
3359	0	37776	
3360	0	37724	
3361	0	37672	
3362	0	37628	
3363	0	37608	
3364	0	37588	
3365	0	37616	
3366	0	37720	
3367	0	37800	
3368	0	37800	
3369	0	37802	
3370	0	37800	
3371	0	37800	
3372	0	37756	
3373	0	37646	
3374	0	37472	
3375	0	37320	
3376	0	37160	
3377	0	36990	
3378	0	36844	
3379	0	36760	
3380	0	36608	
3381	0	36448	
3382	0	36272	
3383	0	36144	
3384	0	36008	
3385	0	35796	
3386	0	35626	
3387	0	35472	
3388	0	35264	
3389	0	34992	
3390	0	34760	
3391	0	34548	
3392	0	34272	
3393	0	34024	
3394	0	33792	
3395	0	33600	
3396	0	33408	
3397	0	33200	
3398	0	33028	
3399	0	32802	
3400	0	32636	
3401	0	32520	
3402	0	32416	
3403	0	32224	
3404	0	32032	
3405	0	31868	
3406	0	31720	
3407	0	31540	
3408	0	31328	
3409	0	31072	
3410	0	30888	
3411	0	30798	
3412	0	30682	
3413	0	30528	
3414	0	30416	
3415	0	30312	
3416	0	30176	
3417	0	30036	
3418	0	29818	
3419	0	29632	
3420	0	29464	
3421	0	29312	
3422	0	29278	
3423	0	29216	
3424	0	29180	
3425	0	29104	
3426	0	28992	
3427	0	28876	
3428	0	28792	
3429	0	28680	
3430	0	28658	
3431	0	28640	
3432	0	28592	
3433	0	28580	
3434	0	28576	
3435	0	28568	
3436	0	28440	
3437	0	28460	
3438	0	28588	
3439	0	28612	
3440	0	28524	
3441	0	28460	
3442	0	28504	
3443	0	28580	
3444	0	28556	
3445	0	28532	
3446	0	28488	
3447	0	28440	
3448	0	28332	
3449	0	28200	
3450	0	28160	
3451	0	28124	
3452	0	28140	
3453	0	28192	
3454	0	28224	
3455	0	28244	
3456	0	28316	
3457	0	28344	
3458	0	28384	
3459	0	28424	
3460	0	28412	
3461	0	28448	
3462	0	28588	
3463	0	28712	
3464	0	28704	
3465	0	28788	
3466	0	28908	
3467	0	29016	
3468	0	28994	
3469	0	28880	
3470	0	28904	
3471	0	28984	
3472	0	28848	
3473	0	28744	
3474	0	28672	
3475	0	28624	
3476	0	28680	
3477	0	28812	
3478	0	28984	
3479	0	29160	
3480	0	29196	
3481	0	29168	
3482	0	29172	
3483	0	29218	
3484	0	29148	
3485	0	29060	
3486	0	29204	
3487	0	29184	
3488	0	29076	
3489	0	28968	
3490	0	28888	
3491	0	28940	
3492	0	29084	
3493	0	29124	
3494	0	29184	
3495	0	29252	
3496	0	29396	
3497	0	29508	
3498	0	29524	
3499	0	29564	
3500	0	29664	
3501	0	29784	
3502	0	29752	
3503	0	29716	
3504	0	29696	
3505	0	29792	
3506	0	29850	
3507	0	29768	
3508	0	29640	
3509	0	29604	
3510	0	29676	
3511	0	29772	
3512	0	29760	
3513	0	29728	
3514	0	29800	
3515	0	29884	
3516	0	29896	
3517	0	29772	
3518	0	29764	
3519	0	29856	
3520	0	29912	
3521	0	29908	
3522	0	29944	
3523	0	29946	
3524	0	29898	
3525	0	29858	
3526	0	29876	
3527	0	30016	
3528	0	30016	
3529	0	29972	
3530	0	29916	
3531	0	29864	
3532	0	29824	
3533	0	29896	
3534	0	29872	
3535	0	29992	
3536	0	30116	
3537	0	30192	
3538	0	30308	
3539	0	30434	
3540	0	30608	
3541	0	30724	
3542	0	30776	
3543	0	30800	
3544	0	30704	
3545	0	30476	
3546	0	30368	
3547	0	30208	
3548	0	30080	
3549	0	30028	
3550	0	30072	
3551	0	30104	
3552	0	30160	
3553	0	30388	
3554	0	30504	
3555	0	30428	
3556	0	30228	
3557	0	30170	
3558	0	30288	
3559	0	30396	
3560	0	30328	
3561	0	30500	
3562	0	30858	
3563	0	30964	
3564	0	30940	
3565	0	30704	
3566	0	30448	
3567	0	30176	
3568	0	30054	
3569	0	29930	
3570	0	29966	
3571	0	30144	
3572	0	30320	
3573	0	30264	
3574	0	30288	
3575	0	30522	
3576	0	30790	
3577	0	31108	
3578	0	31352	
3579	0	31208	
3580	0	30840	
3581	0	30532	
3582	0	30260	
3583	0	30016	
3584	0	29920	
3585	0	29896	
3586	0	30000	
3587	0	30168	
3588	0	30536	
3589	0	30884	
3590	0	31088	
3591	0	31392	
3592	0	31392	
3593	0	31060	
3594	0	30800	
3595	0	30698	
3596	0	30576	
3597	0	30540	
3598	0	30728	
3599	0	30778	
3600	0	30682	
3601	0	30752	
3602	0	30700	
3603	0	30580	
3604	0	30584	
3605	0	30532	
3606	0	30536	
3607	0	30656	
3608	0	30780	
3609	0	30916	
3610	0	31112	
3611	0	31348	
3612	0	31516	
3613	0	31620	
3614	0	31678	
3615	0	31784	
3616	0	31764	
3617	0	31500	
3618	0	31100	
3619	0	30932	
3620	0	31056	
3621	0	31210	
3622	0	31164	
3623	0	30996	
3624	0	30948	
3625	0	30948	
3626	0	30796	
3627	0	30848	
3628	0	31042	
3629	0	31168	
3630	0	31292	
3631	0	31468	
3632	0	31656	
3633	0	31668	
3634	0	31544	
3635	0	31568	
3636	0	31668	
3637	0	31960	
3638	0	32292	
3639	0	32392	
3640	0	32152	
3641	0	31932	
3642	0	31956	
3643	0	31856	
3644	0	31720	
3645	0	31852	
3646	0	32004	
3647	0	32092	
3648	0	32034	
3649	0	31804	
3650	0	31602	
3651	0	31500	
3652	0	31368	
3653	0	31336	
3654	0	31380	
3655	0	31376	
3656	0	31416	
3657	0	31564	
3658	0	31698	
3659	0	31832	
3660	0	32198	
3661	0	32344	
3662	0	32132	
3663	0	31832	
3664	0	31860	
3665	0	31880	
3666	0	31898	
3667	0	31972	
3668	0	31912	
3669	0	32152	
3670	0	32660	
3671	0	32936	
3672	0	32936	
3673	0	32616	
3674	0	32208	
3675	0	32144	
3676	0	32152	
3677	0	32280	
3678	0	32420	
3679	0	32428	
3680	0	32492	
3681	0	32304	
3682	0	32158	
3683	0	32116	
3684	0	32160	
3685	0	32432	
3686	0	32684	
3687	0	32948	
3688	0	33080	
3689	0	32752	
3690	0	32234	
3691	0	31972	
3692	0	32008	
3693	0	32148	
3694	0	32148	
3695	0	32212	
3696	0	32404	
3697	0	32648	
3698	0	32736	
3699	0	32800	
3700	0	32832	
3701	0	32820	
3702	0	33116	
3703	0	33136	
3704	0	32882	
3705	0	32608	
3706	0	32340	
3707	0	32120	
3708	0	32040	
3709	0	31956	
3710	0	31952	
3711	0	32208	
3712	0	32520	
3713	0	32668	
3714	0	32684	
3715	0	32644	
3716	0	32576	
3717	0	32604	
3718	0	32400	
3719	0	32184	
3720	0	32360	
3721	0	32668	
3722	0	32940	
3723	0	33136	
3724	0	33344	
3725	0	33706	
3726	0	33824	
3727	0	33676	
3728	0	33404	
3729	0	33248	
3730	0	33232	
3731	0	33152	
3732	0	33024	
3733	0	32688	
3734	0	32560	
3735	0	32656	
3736	0	32940	
3737	0	33192	
3738	0	33288	
3739	0	33312	
3740	0	33132	
3741	0	33368	
3742	0	33792	
3743	0	33720	
3744	0	33408	
3745	0	33408	
3746	0	33360	
3747	0	33124	
3748	0	32964	
3749	0	32788	
3750	0	32592	
3751	0	32244	
3752	0	32384	
3753	0	32704	
3754	0	32980	
3755	0	33272	
3756	0	33640	
3757	0	33884	
3758	0	33994	
3759	0	33816	
3760	0	33628	
3761	0	33288	
3762	0	33280	
3763	0	33500	
3764	0	33588	
3765	0	33556	
3766	0	33350	
3767	0	33168	
3768	0	32886	
3769	0	32648	
3770	0	32608	
3771	0	32672	
3772	0	32616	
3773	0	32924	
3774	0	33346	
3775	0	33572	
3776	0	33700	
3777	0	33690	
3778	0	33384	
3779	0	33272	
3780	0	33348	
3781	0	33448	
3782	0	33476	
3783	0	33528	
3784	0	33712	
3785	0	34024	
3786	0	33948	
3787	0	33857	
3788	0	33700	
3789	0	33244	
3790	0	33112	
3791	0	33024	
3792	0	33060	
3793	0	33112	
3794	0	33176	
3795	0	33376	
3796	0	33532	
3797	0	33684	
3798	0	34042	
3799	0	33832	
3800	0	33568	
3801	0	33280	
3802	0	33112	
3803	0	33104	
3804	0	33124	
3805	0	33336	
3806	0	33556	
3807	0	33856	
3808	0	34080	
3809	0	34068	
3810	0	34020	
3811	0	33708	
3812	0	33508	
3813	0	33240	
3814	0	33136	
3815	0	33296	
3816	0	33430	
3817	0	33420	
3818	0	33404	
3819	0	33220	
3820	0	32864	
3821	0	32542	
3822	0	32778	
3823	0	32920	
3824	0	33024	
3825	0	33218	
3826	0	33232	
3827	0	33260	
3828	0	33576	
3829	0	33992	
3830	0	33960	
3831	0	33380	
3832	0	32904	
3833	0	32536	
3834	0	32352	
3835	0	32440	
3836	0	32932	
3837	0	33508	
3838	0	33684	
3839	0	33908	
3840	0	34336	
3841	0	34936	
3842	0	35272	
3843	0	35176	
3844	0	34984	
3845	0	34644	
3846	0	34336	
3847	0	33844	
3848	0	33456	
3849	0	33496	
3850	0	33796	
3851	0	34268	
3852	0	34252	
3853	0	34364	
3854	0	34868	
3855	0	35236	
3856	0	35692	
3857	0	35488	
3858	0	34944	
3859	0	34640	
3860	0	34712	
3861	0	34820	
3862	0	34756	
3863	0	34884	
3864	0	35128	
3865	0	35204	
3866	0	35192	
3867	0	34972	
3868	0	34676	
3869	0	34168	
3870	0	33896	
3871	0	33856	
3872	0	33741	
3873	0	33656	
3874	0	33588	
3875	0	33554	
3876	0	33332	
3877	0	32588	
3878	0	32564	
3879	0	32824	
3880	0	33202	
3881	0	33488	
3882	0	33736	
3883	0	33872	
3884	0	34000	
3885	0	34504	
3886	0	34780	
3887	0	34700	
3888	0	34684	
3889	0	34472	
3890	0	33996	
3891	0	33248	
3892	0	32510	
3893	0	32304	
3894	0	32528	
3895	0	32688	
3896	0	32692	
3897	0	32712	
3898	0	33144	
3899	0	33624	
3900	0	34192	
3901	0	34788	
3902	0	35024	
3903	0	34976	
3904	0	34832	
3905	0	34536	
3906	0	34296	
3907	0	33928	
3908	0	33568	
3909	0	33706	
3910	0	33924	
3911	0	33908	
3912	0	34264	
3913	0	34706	
3914	0	34948	
3915	0	35000	
3916	0	34972	
3917	0	35040	
3918	0	35104	
3919	0	34644	
3920	0	34096	
3921	0	34028	
3922	0	34116	
3923	0	33720	
3924	0	33364	
3925	0	33428	
3926	0	33832	
3927	0	34072	
3928	0	33752	
3929	0	33281	
3930	0	32884	
3931	0	33008	
3932	0	33584	
3933	0	34004	
3934	0	34776	
3935	0	35756	
3936	0	36852	
3937	0	38080	
3938	0	39068	
3939	0	39932	
3940	0	40800	
3941	0	42032	
3942	0	43476	
3943	0	45148	
3944	0	47224	
3945	0	49540	
3946	0	51760	
3947	0	54104	
3948	0	56480	
3949	0	58752	
3950	0	61072	
3951	0	62616	
3952	0	63384	
3953	0	63784	
3954	0	63934	
3955	0	63952	
3956	0	63908	
3957	0	63840	
3958	0	63756	
3959	0	63640	
3960	0	63520	
3961	0	63400	
3962	0	63296	
3963	0	63176	
3964	0	63036	
3965	0	62928	
3966	0	59152	
3967	0	53196	
3968	0	47588	
3969	0	42616	
3970	0	38624	
3971	0	35404	
3972	0	32756	
3973	0	30940	
3974	0	29712	
3975	0	29140	
3976	0	29012	
3977	0	28894	
3978	0	28604	
3979	0	28432	
3980	0	28396	
3981	0	28716	
3982	0	29044	
3983	0	28928	
3984	0	28028	
3985	0	27066	
3986	0	26180	
3987	0	25748	
3988	0	25280	
3989	0	24946	
3990	0	25036	
3991	0	25314	
3992	0	25612	
3993	0	26152	
3994	0	26584	
3995	0	27076	
3996	0	27356	
3997	0	27536	
3998	0	27540	
3999	0	28084	
4000	0	28260	
4001	0	28328	
4002	0	28874	
4003	0	29596	
4004	0	30208	
4005	0	30972	
4006	0	31464	
4007	0	31872	
4008	0	31880	
4009	0	31260	
4010	0	30220	
4011	0	29468	
4012	0	29280	
4013	0	29520	
4014	0	29888	
4015	0	29964	
4016	0	30136	
4017	0	30216	
4018	0	30168	
4019	0	30076	
4020	0	30364	
4021	0	30778	
4022	0	30814	
4023	0	30712	
4024	0	30700	
4025	0	30924	
4026	0	31476	
4027	0	31396	
4028	0	30972	
4029	0	30716	
4030	0	30452	
4031	0	30476	
4032	0	30480	
4033	0	30384	
4034	0	30144	
4035	0	30000	
4036	0	30128	
4037	0	30128	
4038	0	29888	
4039	0	29804	
4040	0	29928	
4041	0	30016	
4042	0	29988	
4043	0	30080	
4044	0	30564	
4045	0	31172	
4046	0	31544	
4047	0	31762	
4048	0	31520	
4049	0	31156	
4050	0	31028	
4051	0	30928	
4052	0	31032	
4053	0	31080	
4054	0	30928	
4055	0	30866	
4056	0	30968	
4057	0	31160	
4058	0	31184	
4059	0	31192	
4060	0	31228	
4061	0	31364	
4062	0	31264	
4063	0	31040	
4064	0	31196	
4065	0	31328	
4066	0	31512	
4067	0	31668	
4068	0	31884	
4069	0	31912	
4070	0	32112	
4071	0	31988	
4072	0	31744	
4073	0	31692	
4074	0	31748	
4075	0	31656	
4076	0	31648	
4077	0	31620	
4078	0	31520	
4079	0	31388	
4080	0	31368	
4081	0	31368	
4082	0	31480	
4083	0	31748	
4084	0	31944	
4085	0	32240	
4086	0	32304	
4087	0	32328	
4088	0	32536	
4089	0	32668	
4090	0	32672	
4091	0	32496	
4092	0	32444	
4093	0	32540	
4094	0	32724	
4095	0	32748	
4096	0	32648	
4097	0	32480	
4098	0	32304	
4099	0	32224	
4100	0	32320	
4101	0	32608	
4102	0	32892	
4103	0	33116	
4104	0	33050	
4105	0	33058	
4106	0	33216	
4107	0	33250	
4108	0	33164	
4109	0	33112	
4110	0	33028	
4111	0	33068	
4112	0	32968	
4113	0	32836	
4114	0	32693	
4115	0	32780	
4116	0	32956	
4117	0	33260	
4118	0	33730	
4119	0	34104	
4120	0	34348	
4121	0	34280	
4122	0	34156	
4123	0	34076	
4124	0	34000	
4125	0	33860	
4126	0	33760	
4127	0	33720	
4128	0	33784	
4129	0	33792	
4130	0	33696	
4131	0	33820	
4132	0	33940	
4133	0	33824	
4134	0	33860	
4135	0	33792	
4136	0	33860	
4137	0	33940	
4138	0	34228	
4139	0	34320	
4140	0	34260	
4141	0	34176	
4142	0	34104	
4143	0	34352	
4144	0	34640	
4145	0	34808	
4146	0	35020	
4147	0	35180	
4148	0	35144	
4149	0	34980	
4150	0	34732	
4151	0	34400	
4152	0	34132	
4153	0	34192	
4154	0	34352	
4155	0	34380	
4156	0	34568	
4157	0	34778	
4158	0	34916	
4159	0	35156	
4160	0	35360	
4161	0	35444	
4162	0	35300	
4163	0	35168	
4164	0	35088	
4165	0	35034	
4166	0	35128	
4167	0	35356	
4168	0	35572	
4169	0	35908	
4170	0	35948	
4171	0	35936	
4172	0	35924	
4173	0	35996	
4174	0	36040	
4175	0	36036	
4176	0	36068	
4177	0	36184	
4178	0	36360	
4179	0	36492	
4180	0	36602	
4181	0	36720	
4182	0	36688	
4183	0	36508	
4184	0	36408	
4185	0	36448	
4186	0	36696	
4187	0	36788	
4188	0	36780	
4189	0	36752	
4190	0	36916	
4191	0	37188	
4192	0	37288	
4193	0	37336	
4194	0	37368	
4195	0	37456	
4196	0	37460	
4197	0	37552	
4198	0	37684	
4199	0	37816	
4200	0	37876	
4201	0	37816	
4202	0	37720	
4203	0	37804	
4204	0	37884	
4205	0	37752	
4206	0	37728	
4207	0	37852	
4208	0	38004	
4209	0	38138	
4210	0	38208	
4211	0	38260	
4212	0	38264	
4213	0	38264	
4214	0	38340	
4215	0	38420	
4216	0	38358	
4217	0	38240	
4218	0	38112	
4219	0	38144	
4220	0	38292	
4221	0	38320	
4222	0	38272	
4223	0	38200	
4224	0	38048	
4225	0	38060	
4226	0	38074	
4227	0	38048	
4228	0	38048	
4229	0	38236	
4230	0	38336	
4231	0	38300	
4232	0	38204	
4233	0	38084	
4234	0	38048	
4235	0	37836	
4236	0	37584	
4237	0	37248	
4238	0	36876	
4239	0	36556	
4240	0	36348	
4241	0	36180	
4242	0	36208	
4243	0	36128	
4244	0	36056	
4245	0	35892	
4246	0	35672	
4247	0	35580	
4248	0	35424	
4249	0	34960	
4250	0	34468	
4251	0	34000	
4252	0	33712	
4253	0	33504	
4254	0	33176	
4255	0	32880	
4256	0	32680	
4257	0	32478	
4258	0	32332	
4259	0	32312	
4260	0	32372	
4261	0	32320	
4262	0	32052	
4263	0	31872	
4264	0	31612	
4265	0	31208	
4266	0	30788	
4267	0	30384	
4268	0	30082	
4269	0	29748	
4270	0	29528	
4271	0	29424	
4272	0	29312	
4273	0	29152	
4274	0	29008	
4275	0	28846	
4276	0	28744	
4277	0	28652	
4278	0	28508	
4279	0	28340	
4280	0	28252	
4281	0	28106	
4282	0	27908	
4283	0	27724	
4284	0	27532	
4285	0	27364	
4286	0	27352	
4287	0	27380	
4288	0	27284	
4289	0	27138	
4290	0	27048	
4291	0	27020	
4292	0	26936	
4293	0	26850	
4294	0	26784	
4295	0	26780	
4296	0	26708	
4297	0	26588	
4298	0	26524	
4299	0	26468	
4300	0	26512	
4301	0	26624	
4302	0	26688	
4303	0	26740	
4304	0	26664	
4305	0	26596	
4306	0	26604	
4307	0	26644	
4308	0	26768	
4309	0	26764	
4310	0	26792	
4311	0	26848	
4312	0	26884	
4313	0	26832	
4314	0	26776	
4315	0	26692	
4316	0	26652	
4317	0	26696	
4318	0	26756	
4319	0	26744	
4320	0	26680	
4321	0	26600	
4322	0	26580	
4323	0	26640	
4324	0	26784	
4325	0	26884	
4326	0	27002	
4327	0	27164	
4328	0	27228	
4329	0	27244	
4330	0	27222	
4331	0	27192	
4332	0	27232	
4333	0	27396	
4334	0	27472	
4335	0	27408	
4336	0	27412	
4337	0	27500	
4338	0	27592	
4339	0	27532	
4340	0	27592	
4341	0	27720	
4342	0	27752	
4343	0	27696	
4344	0	27704	
4345	0	27934	
4346	0	28072	
4347	0	28008	
4348	0	28040	
4349	0	28196	
4350	0	28318	
4351	0	28200	
4352	0	28044	
4353	0	27996	
4354	0	28106	
4355	0	28092	
4356	0	28022	
4357	0	27924	
4358	0	27932	
4359	0	28064	
4360	0	28156	
4361	0	28224	
4362	0	28332	
4363	0	28348	
4364	0	28336	
4365	0	28328	
4366	0	28412	
4367	0	28422	
4368	0	28356	
4369	0	28372	
4370	0	28464	
4371	0	28504	
4372	0	28484	
4373	0	28564	
4374	0	28668	
4375	0	28680	
4376	0	28732	
4377	0	28832	
4378	0	28832	
4379	0	28832	
4380	0	28868	
4381	0	28844	
4382	0	28772	
4383	0	28828	
4384	0	28912	
4385	0	28868	
4386	0	28920	
4387	0	28946	
4388	0	28880	
4389	0	28756	
4390	0	28736	
4391	0	28842	
4392	0	28884	
4393	0	28796	
4394	0	28716	
4395	0	28640	
4396	0	28696	
4397	0	28796	
4398	0	28992	
4399	0	29076	
4400	0	28984	
4401	0	28960	
4402	0	29036	
4403	0	28992	
4404	0	28944	
4405	0	28980	
4406	0	29076	
4407	0	29160	
4408	0	29148	
4409	0	29052	
4410	0	28930	
4411	0	28910	
4412	0	28876	
4413	0	28864	
4414	0	28984	
4415	0	29060	
4416	0	29024	
4417	0	29010	
4418	0	29128	
4419	0	29212	
4420	0	29192	
4421	0	29264	
4422	0	29280	
4423	0	29308	
4424	0	29324	
4425	0	29312	
4426	0	29364	
4427	0	29328	
4428	0	29316	
4429	0	29368	
4430	0	29348	
4431	0	29396	
4432	0	29500	
4433	0	29568	
4434	0	29516	
4435	0	29436	
4436	0	29332	
4437	0	29140	
4438	0	28964	
4439	0	28912	
4440	0	28984	
4441	0	29036	
4442	0	29172	
4443	0	29280	
4444	0	29258	
4445	0	29280	
4446	0	29240	
4447	0	29120	
4448	0	29156	
4449	0	29168	
4450	0	29180	
4451	0	29156	
4452	0	29156	
4453	0	29168	
4454	0	29184	
4455	0	29280	
4456	0	29376	
4457	0	29380	
4458	0	29340	
4459	0	29320	
4460	0	29296	
4461	0	29340	
4462	0	29376	
4463	0	29248	
4464	0	29240	
4465	0	29292	
4466	0	29348	
4467	0	29374	
4468	0	29404	
4469	0	29342	
4470	0	29302	
4471	0	29248	
4472	0	29298	
4473	0	29384	
4474	0	29472	
4475	0	29644	
4476	0	29698	
4477	0	29648	
4478	0	29620	
4479	0	29516	
4480	0	29532	
4481	0	29620	
4482	0	29688	
4483	0	29700	
4484	0	29692	
4485	0	29648	
4486	0	29612	
4487	0	29532	
4488	0	29540	
4489	0	29608	
4490	0	29648	
4491	0	29692	
4492	0	29696	
4493	0	29650	
4494	0	29712	
4495	0	29784	
4496	0	29720	
4497	0	29754	
4498	0	29748	
4499	0	29792	
4500	0	29772	
4501	0	29808	
4502	0	29856	
4503	0	29864	
4504	0	29834	
4505	0	29886	
4506	0	29954	
4507	0	30008	
4508	0	30100	
4509	0	30112	
4510	0	30068	
4511	0	30072	
4512	0	30088	
4513	0	30132	
4514	0	30208	
4515	0	30356	
4516	0	30476	
4517	0	30576	
4518	0	30708	
4519	0	30652	
4520	0	30628	
4521	0	30604	
4522	0	30516	
4523	0	30424	
4524	0	30392	
4525	0	30352	
4526	0	30336	
4527	0	30340	
4528	0	30288	
4529	0	30204	
4530	0	30106	
4531	0	30152	
4532	0	30208	
4533	0	30240	
4534	0	30336	
4535	0	30420	
4536	0	30444	
4537	0	30488	
4538	0	30556	
4539	0	30568	
4540	0	30616	
4541	0	30664	
4542	0	30692	
4543	0	30700	
4544	0	30620	
4545	0	30580	
4546	0	30672	
4547	0	30846	
4548	0	30892	
4549	0	30900	
4550	0	30770	
4551	0	30640	
4552	0	30564	
4553	0	30596	
4554	0	30668	
4555	0	30628	
4556	0	30700	
4557	0	30816	
4558	0	30916	
4559	0	31004	
4560	0	31080	
4561	0	31084	
4562	0	31056	
4563	0	31088	
4564	0	31076	
4565	0	31032	
4566	0	31056	
4567	0	31016	
4568	0	30908	
4569	0	30860	
4570	0	30914	
4571	0	30976	
4572	0	30968	
4573	0	31108	
4574	0	31168	
4575	0	31088	
4576	0	31068	
4577	0	31044	
4578	0	31012	
4579	0	31104	
4580	0	31210	
4581	0	31236	
4582	0	31244	
4583	0	31264	
4584	0	31256	
4585	0	31192	
4586	0	31092	
4587	0	31088	
4588	0	31104	
4589	0	31012	
4590	0	30980	
4591	0	31058	
4592	0	31168	
4593	0	31120	
4594	0	31020	
4595	0	30996	
4596	0	31008	
4597	0	31088	
4598	0	31208	
4599	0	31288	
4600	0	31228	
4601	0	31304	
4602	0	31412	
4603	0	31460	
4604	0	31580	
4605	0	31650	
4606	0	31688	
4607	0	31616	
4608	0	31568	
4609	0	31528	
4610	0	31440	
4611	0	31372	
4612	0	31364	
4613	0	31424	
4614	0	31380	
4615	0	31424	
4616	0	31496	
4617	0	31632	
4618	0	31740	
4619	0	31800	
4620	0	31776	
4621	0	31744	
4622	0	31672	
4623	0	31572	
4624	0	31440	
4625	0	31356	
4626	0	31300	
4627	0	31228	
4628	0	31272	
4629	0	31300	
4630	0	31482	
4631	0	31656	
4632	0	31728	
4633	0	31768	
4634	0	31784	
4635	0	31720	
4636	0	31656	
4637	0	31604	
4638	0	31564	
4639	0	31418	
4640	0	31312	
4641	0	31376	
4642	0	31252	
4643	0	31112	
4644	0	31076	
4645	0	31012	
4646	0	31008	
4647	0	30986	
4648	0	30956	
4649	0	30948	
4650	0	30964	
4651	0	31048	
4652	0	31188	
4653	0	31320	
4654	0	31502	
4655	0	31672	
4656	0	31912	
4657	0	32168	
4658	0	32268	
4659	0	32304	
4660	0	32376	
4661	0	32520	
4662	0	32666	
4663	0	32880	
4664	0	33036	
4665	0	33056	
4666	0	33040	
4667	0	32924	
4668	0	32824	
4669	0	32620	
4670	0	32400	
4671	0	32242	
4672	0	32132	
4673	0	32096	
4674	0	32146	
4675	0	32244	
4676	0	32292	
4677	0	32360	
4678	0	32488	
4679	0	32644	
4680	0	32748	
4681	0	32860	
4682	0	32968	
4683	0	33028	
4684	0	33056	
4685	0	33108	
4686	0	33168	
4687	0	33156	
4688	0	33108	
4689	0	33016	
4690	0	32948	
4691	0	32892	
4692	0	32848	
4693	0	32808	
4694	0	32784	
4695	0	32728	
4696	0	32624	
4697	0	32388	
4698	0	32132	
4699	0	32048	
4700	0	31900	
4701	0	31744	
4702	0	31596	
4703	0	31580	
4704	0	31620	
4705	0	31672	
4706	0	31788	
4707	0	31908	
4708	0	31956	
4709	0	31988	
4710	0	31984	
4711	0	31972	
4712	0	31968	
4713	0	31976	
4714	0	31972	
4715	0	31968	
4716	0	31940	
4717	0	31912	
4718	0	31972	
4719	0	32088	
4720	0	32180	
4721	0	32158	
4722	0	32032	
4723	0	32052	
4724	0	32112	
4725	0	32160	
4726	0	32158	
4727	0	32168	
4728	0	32216	
4729	0	32264	
4730	0	32300	
4731	0	32312	
4732	0	32332	
4733	0	32404	
4734	0	32440	
4735	0	32456	
4736	0	32488	
4737	0	32480	
4738	0	32436	
4739	0	32520	
4740	0	32608	
4741	0	32620	
4742	0	32592	
4743	0	32568	
4744	0	32552	
4745	0	32420	
4746	0	32312	
4747	0	32152	
4748	0	31912	
4749	0	31552	
4750	0	31164	
4751	0	30820	
4752	0	30600	
4753	0	30552	
4754	0	30756	
4755	0	31168	
4756	0	31736	
4757	0	32348	
4758	0	33004	
4759	0	33816	
4760	0	34684	
4761	0	35584	
4762	0	36704	
4763	0	38002	
4764	0	39472	
4765	0	41220	
4766	0	43304	
4767	0	45572	
4768	0	47900	
4769	0	50316	
4770	0	52900	
4771	0	55736	
4772	0	58708	
4773	0	61708	
4774	0	63904	
4775	0	65076	
4776	0	65535	
4777	0	65535	
4778	0	65535	
4779	0	65535	
4780	0	65535	
4781	0	65535	
4782	0	65535	
4783	0	65535	
4784	0	65448	
4785	0	65328	
4786	0	65188	
4787	0	65048	
4788	0	64000	
4789	0	57804	
4790	0	51700	
4791	0	45952	
4792	0	40708	
4793	0	36260	
4794	0	32812	
4795	0	30432	
4796	0	28964	
4797	0	28016	
4798	0	27416	
4799	0	26900	
4800	0	26436	
4801	0	26088	
4802	0	25860	
4803	0	25644	
4804	0	25420	
4805	0	25196	
4806	0	25044	
4807	0	24822	
4808	0	24616	
4809	0	24512	
4810	0	24484	
4811	0	24476	
4812	0	24568	
4813	0	24712	
4814	0	24896	
4815	0	25202	
4816	0	25524	
4817	0	25930	
4818	0	26328	
4819	0	26724	
4820	0	27116	
4821	0	27400	
4822	0	27556	
4823	0	27808	
4824	0	28116	
4825	0	28312	
4826	0	28520	
4827	0	28704	
4828	0	28802	
4829	0	28920	
4830	0	29012	
4831	0	29084	
4832	0	29108	
4833	0	29124	
4834	0	29094	
4835	0	29048	
4836	0	29056	
4837	0	29132	
4838	0	29188	
4839	0	29280	
4840	0	29333	
4841	0	29400	
4842	0	29476	
4843	0	29564	
4844	0	29580	
4845	0	29536	
4846	0	29460	
4847	0	29380	
4848	0	29376	
4849	0	29456	
4850	0	29520	
4851	0	29572	
4852	0	29572	
4853	0	29512	
4854	0	29492	
4855	0	29520	
4856	0	29492	
4857	0	29564	
4858	0	29704	
4859	0	29840	
4860	0	29908	
4861	0	29956	
4862	0	30128	
4863	0	30284	
4864	0	30320	
4865	0	30264	
4866	0	30204	
4867	0	30277	
4868	0	30344	
4869	0	30376	
4870	0	30400	
4871	0	30432	
4872	0	30440	
4873	0	30500	
4874	0	30546	
4875	0	30524	
4876	0	30584	
4877	0	30676	
4878	0	30706	
4879	0	30768	
4880	0	30788	
4881	0	30896	
4882	0	31032	
4883	0	31112	
4884	0	31208	
4885	0	31172	
4886	0	31080	
4887	0	31100	
4888	0	31136	
4889	0	31128	
4890	0	31120	
4891	0	31180	
4892	0	31248	
4893	0	31256	
4894	0	31292	
4895	0	31388	
4896	0	31464	
4897	0	31564	
4898	0	31648	
4899	0	31672	
4900	0	31664	
4901	0	31646	
4902	0	31640	
4903	0	31640	
4904	0	31704	
4905	0	31812	
4906	0	31904	
4907	0	31972	
4908	0	32012	
4909	0	31960	
4910	0	31948	
4911	0	32012	
4912	0	31994	
4913	0	31942	
4914	0	32000	
4915	0	32144	
4916	0	32256	
4917	0	32340	
4918	0	32388	
4919	0	32396	
4920	0	32384	
4921	0	32419	
4922	0	32408	
4923	0	32396	
4924	0	32434	
4925	0	32428	
4926	0	32404	
4927	0	32408	
4928	0	32432	
4929	0	32520	
4930	0	32588	
4931	0	32628	
4932	0	32764	
4933	0	32880	
4934	0	32888	
4935	0	32880	
4936	0	32984	
4937	0	33124	
4938	0	33196	
4939	0	33144	
4940	0	33136	
4941	0	33144	
4942	0	33104	
4943	0	33088	
4944	0	33144	
4945	0	33196	
4946	0	33232	
4947	0	33288	
4948	0	33344	
4949	0	33464	
4950	0	33462	
4951	0	33453	
4952	0	33452	
4953	0	33472	
4954	0	33512	
4955	0	33592	
4956	0	33668	
4957	0	33700	
4958	0	33698	
4959	0	33728	
4960	0	33774	
4961	0	33892	
4962	0	33976	
4963	0	33964	
4964	0	33984	
4965	0	34040	
4966	0	34076	
4967	0	34108	
4968	0	34176	
4969	0	34204	
4970	0	34226	
4971	0	34208	
4972	0	34256	
4973	0	34288	
4974	0	34344	
4975	0	34440	
4976	0	34522	
4977	0	34606	
4978	0	34620	
4979	0	34620	
4980	0	34600	
4981	0	34548	
4982	0	34604	
4983	0	34724	
4984	0	34756	
4985	0	34808	
4986	0	34912	
4987	0	34984	
4988	0	35056	
4989	0	35152	
4990	0	35220	
4991	0	35280	
4992	0	35276	
4993	0	35316	
4994	0	35352	
4995	0	35368	
4996	0	35468	
4997	0	35540	
4998	0	35576	
4999	0	35644	
5000	0	35690	
5001	0	35672	
5002	0	35732	
5003	0	35724	
5004	0	35740	
5005	0	35848	
5006	0	35936	
5007	0	35956	
5008	0	36008	
5009	0	36064	
5010	0	36080	
5011	0	36120	
5012	0	36224	
5013	0	36308	
5014	0	36336	
5015	0	36380	
5016	0	36408	
5017	0	36458	
5018	0	36508	
5019	0	36552	
5020	0	36612	
5021	0	36560	
5022	0	36492	
5023	0	36448	
5024	0	36432	
5025	0	36432	
5026	0	36440	
5027	0	36484	
5028	0	36576	
5029	0	36652	
5030	0	36660	
5031	0	36672	
5032	0	36648	
5033	0	36704	
5034	0	36760	
5035	0	36776	
5036	0	36832	
5037	0	36928	
5038	0	37068	
5039	0	37128	
5040	0	37088	
5041	0	37040	
5042	0	36952	
5043	0	36892	
5044	0	36908	
5045	0	36898	
5046	0	36824	
5047	0	36832	
5048	0	36784	
5049	0	36712	
5050	0	36644	
5051	0	36588	
5052	0	36556	
5053	0	36544	
5054	0	36548	
5055	0	36516	
5056	0	36456	
5057	0	36394	
5058	0	36320	
5059	0	36188	
5060	0	36028	
5061	0	35872	
5062	0	35716	
5063	0	35564	
5064	0	35424	
5065	0	35296	
5066	0	35184	
5067	0	35076	
5068	0	34992	
5069	0	34864	
5070	0	34700	
5071	0	34522	
5072	0	34344	
5073	0	34188	
5074	0	34004	
5075	0	33816	
5076	0	33656	
5077	0	33476	
5078	0	33304	
5079	0	33160	
5080	0	33044	
5081	0	32848	
5082	0	32584	
5083	0	32344	
5084	0	32132	
5085	0	31960	
5086	0	31808	
5087	0	31616	
5088	0	31456	
5089	0	31376	
5090	0	31264	
5091	0	31104	
5092	0	30892	
5093	0	30732	
5094	0	30632	
5095	0	30530	
5096	0	30396	
5097	0	30306	
5098	0	30136	
5099	0	30036	
5100	0	29960	
5101	0	29864	
5102	0	29700	
5103	0	29516	
5104	0	29354	
5105	0	29208	
5106	0	29132	
5107	0	29012	
5108	0	28844	
5109	0	28708	
5110	0	28672	
5111	0	28644	
5112	0	28652	
5113	0	28656	
5114	0	28596	
5115	0	28564	
5116	0	28556	
5117	0	28496	
5118	0	28420	
5119	0	28372	
5120	0	28340	
5121	0	28322	
5122	0	28264	
5123	0	28184	
5124	0	28082	
5125	0	27988	
5126	0	27984	
5127	0	28028	
5128	0	28036	
5129	0	28052	
5130	0	28096	
5131	0	28120	
5132	0	28136	
5133	0	28132	
5134	0	28072	
5135	0	28068	
5136	0	28120	
5137	0	28168	
5138	0	28232	
5139	0	28308	
5140	0	28368	
5141	0	28376	
5142	0	28336	
5143	0	28356	
5144	0	28384	
5145	0	28404	
5146	0	28428	
5147	0	28492	
5148	0	28512	
5149	0	28536	
5150	0	28540	
5151	0	28524	
5152	0	28512	
5153	0	28548	
5154	0	28608	
5155	0	28654	
5156	0	28664	
5157	0	28700	
5158	0	28712	
5159	0	28716	
5160	0	28712	
5161	0	28724	
5162	0	28824	
5163	0	28896	
5164	0	28888	
5165	0	28932	
5166	0	29000	
5167	0	28978	
5168	0	28988	
5169	0	29088	
5170	0	29164	
5171	0	29216	
5172	0	29290	
5173	0	29386	
5174	0	29418	
5175	0	29452	
5176	0	29504	
5177	0	29568	
5178	0	29612	
5179	0	29580	
5180	0	29536	
5181	0	29572	
5182	0	29664	
5183	0	29728	
5184	0	29712	
5185	0	29732	
5186	0	29764	
5187	0	29816	
5188	0	29854	
5189	0	29844	
5190	0	29900	
5191	0	30040	
5192	0	30100	
5193	0	30068	
5194	0	30076	
5195	0	30080	
5196	0	30120	
5197	0	30200	
5198	0	30184	
5199	0	30136	
5200	0	30144	
5201	0	30168	
5202	0	30172	
5203	0	30176	
5204	0	30240	
5205	0	30312	
5206	0	30352	
5207	0	30432	
5208	0	30420	
5209	0	30440	
5210	0	30386	
5211	0	30340	
5212	0	30336	
5213	0	30340	
5214	0	30332	
5215	0	30360	
5216	0	30372	
5217	0	30440	
5218	0	30480	
5219	0	30532	
5220	0	30568	
5221	0	30564	
5222	0	30556	
5223	0	30572	
5224	0	30596	
5225	0	30612	
5226	0	30632	
5227	0	30676	
5228	0	30668	
5229	0	30660	
5230	0	30668	
5231	0	30728	
5232	0	30738	
5233	0	30720	
5234	0	30720	
5235	0	30656	
5236	0	30624	
5237	0	30644	
5238	0	30716	
5239	0	30736	
5240	0	30720	
5241	0	30668	
5242	0	30640	
5243	0	30628	
5244	0	30652	
5245	0	30744	
5246	0	30844	
5247	0	30856	
5248	0	30848	
5249	0	30840	
5250	0	30868	
5251	0	30872	
5252	0	30824	
5253	0	30824	
5254	0	30796	
5255	0	30817	
5256	0	30796	
5257	0	30764	
5258	0	30782	
5259	0	30770	
5260	0	30756	
5261	0	30796	
5262	0	30804	
5263	0	30804	
5264	0	30860	
5265	0	30892	
5266	0	30920	
5267	0	30904	
5268	0	30836	
5269	0	30706	
5270	0	30664	
5271	0	30688	
5272	0	30680	
5273	0	30712	
5274	0	30724	
5275	0	30772	
5276	0	30832	
5277	0	30904	
5278	0	30890	
5279	0	30864	
5280	0	30892	
5281	0	30912	
5282	0	30916	
5283	0	30912	
5284	0	30844	
5285	0	30808	
5286	0	30788	
5287	0	30786	
5288	0	30800	
5289	0	30848	
5290	0	30856	
5291	0	30896	
5292	0	30960	
5293	0	30928	
5294	0	30888	
5295	0	30852	
5296	0	30848	
5297	0	30848	
5298	0	30848	
5299	0	30856	
5300	0	30872	
5301	0	30900	
5302	0	30968	
5303	0	30992	
5304	0	30992	
5305	0	31048	
5306	0	31064	
5307	0	31036	
5308	0	31038	
5309	0	31140	
5310	0	31226	
5311	0	31228	
5312	0	31224	
5313	0	31236	
5314	0	31208	
5315	0	31230	
5316	0	31308	
5317	0	31364	
5318	0	31418	
5319	0	31416	
5320	0	31388	
5321	0	31340	
5322	0	31276	
5323	0	31232	
5324	0	31244	
5325	0	31240	
5326	0	31212	
5327	0	31220	
5328	0	31228	
5329	0	31228	
5330	0	31240	
5331	0	31216	
5332	0	31220	
5333	0	31228	
5334	0	31224	
5335	0	31272	
5336	0	31344	
5337	0	31404	
5338	0	31488	
5339	0	31472	
5340	0	31476	
5341	0	31484	
5342	0	31452	
5343	0	31444	
5344	0	31468	
5345	0	31516	
5346	0	31568	
5347	0	31612	
5348	0	31584	
5349	0	31504	
5350	0	31452	
5351	0	31432	
5352	0	31376	
5353	0	31350	
5354	0	31386	
5355	0	31472	
5356	0	31584	
5357	0	31552	
5358	0	31552	
5359	0	31548	
5360	0	31536	
5361	0	31532	
5362	0	31584	
5363	0	31608	
5364	0	31620	
5365	0	31652	
5366	0	31684	
5367	0	31726	
5368	0	31728	
5369	0	31728	
5370	0	31756	
5371	0	31792	
5372	0	31792	
5373	0	31820	
5374	0	31820	
5375	0	31816	
5376	0	31792	
5377	0	31776	
5378	0	31794	
5379	0	31712	
5380	0	31684	
5381	0	31712	
5382	0	31732	
5383	0	31766	
5384	0	31800	
5385	0	31784	
5386	0	31776	
5387	0	31788	
5388	0	31800	
5389	0	31796	
5390	0	31788	
5391	0	31760	
5392	0	31738	
5393	0	31754	
5394	0	31764	
5395	0	31744	
5396	0	31768	
5397	0	31824	
5398	0	31852	
5399	0	31852	
5400	0	31864	
5401	0	31888	
5402	0	31850	
5403	0	31800	
5404	0	31732	
5405	0	31668	
5406	0	31640	
5407	0	31648	
5408	0	31694	
5409	0	31764	
5410	0	31848	
5411	0	31936	
5412	0	32016	
5413	0	32060	
5414	0	32044	
5415	0	31984	
5416	0	31876	
5417	0	31756	
5418	0	31692	
5419	0	31652	
5420	0	31620	
5421	0	31552	
5422	0	31408	
5423	0	31296	
5424	0	31198	
5425	0	31124	
5426	0	31076	
5427	0	31006	
5428	0	30936	
5429	0	30984	
5430	0	31100	
5431	0	31276	
5432	0	31524	
5433	0	31802	
5434	0	32008	
5435	0	32204	
5436	0	32416	
5437	0	32588	
5438	0	32772	
5439	0	32864	
5440	0	32904	
5441	0	32904	
5442	0	32912	
5443	0	32976	
5444	0	33080	
5445	0	33060	
5446	0	33040	
5447	0	33020	
5448	0	32904	
5449	0	32776	
5450	0	32738	
5451	0	32752	
5452	0	32780	
5453	0	32872	
5454	0	32920	
5455	0	33004	
5456	0	33088	
5457	0	33160	
5458	0	33248	
5459	0	33312	
5460	0	33321	
5461	0	33316	
5462	0	33320	
5463	0	33326	
5464	0	33320	
5465	0	33332	
5466	0	33372	
5467	0	33360	
5468	0	33344	
5469	0	33348	
5470	0	33360	
5471	0	33408	
5472	0	33400	
5473	0	33364	
5474	0	33340	
5475	0	33258	
5476	0	33168	
5477	0	32988	
5478	0	32724	
5479	0	32414	
5480	0	32160	
5481	0	32004	
5482	0	31928	
5483	0	31908	
5484	0	31908	
5485	0	31924	
5486	0	31960	
5487	0	32024	
5488	0	32040	
5489	0	32072	
5490	0	32104	
5491	0	32136	
5492	0	32188	
5493	0	32178	
5494	0	32168	
5495	0	32140	
5496	0	32128	
5497	0	32172	
5498	0	32216	
5499	0	32236	
5500	0	32244	
5501	0	32284	
5502	0	32336	
5503	0	32384	
5504	0	32424	
5505	0	32448	
5506	0	32500	
5507	0	32564	
5508	0	32592	
5509	0	32608	
5510	0	32648	
5511	0	32712	
5512	0	32738	
5513	0	32756	
5514	0	32804	
5515	0	32828	
5516	0	32840	
5517	0	32864	
5518	0	32940	
5519	0	32964	
5520	0	32980	
5521	0	33004	
5522	0	32990	
5523	0	32928	
5524	0	32816	
5525	0	32612	
5526	0	32376	
5527	0	32120	
5528	0	31752	
5529	0	31324	
5530	0	30784	
5531	0	30176	
5532	0	29788	
5533	0	29544	
5534	0	29496	
5535	0	29668	
5536	0	30028	
5537	0	30552	
5538	0	31140	
5539	0	31832	
5540	0	32680	
5541	0	33736	
5542	0	35020	
5543	0	36424	
5544	0	37944	
5545	0	39824	
5546	0	41948	
5547	0	44240	
5548	0	46624	
5549	0	49224	
5550	0	51980	
5551	0	54904	
5552	0	57992	
5553	0	61240	
5554	0	63968	
5555	0	65440	
5556	0	65535	
5557	0	65535	
5558	0	65535	
5559	0	65535	
5560	0	65535	
5561	0	65535	
5562	0	65535	
5563	0	65535	
5564	0	65535	
5565	0	65535	
5566	0	65535	
5567	0	65535	
5568	0	65535	
5569	0	63944	
5570	0	57028	
5571	0	50280	
5572	0	44228	
5573	0	38960	
5574	0	34584	
5575	0	31236	
5576	0	28792	
5577	0	27128	
5578	0	26094	
5579	0	25570	
5580	0	25254	
5581	0	25024	
5582	0	24890	
5583	0	24804	
5584	0	24706	
5585	0	24516	
5586	0	24338	
5587	0	24298	
5588	0	24304	
5589	0	24420	
5590	0	24682	
5591	0	24960	
5592	0	25384	
5593	0	25968	
5594	0	26584	
5595	0	27088	
5596	0	27504	
5597	0	27820	
5598	0	28092	
5599	0	28306	
5600	0	28544	
5601	0	28776	
5602	0	29016	
5603	0	29250	
5604	0	29400	
5605	0	29472	
5606	0	29514	
5607	0	29498	
5608	0	29462	
5609	0	29456	
5610	0	29412	
5611	0	29424	
5612	0	29464	
5613	0	29532	
5614	0	29504	
5615	0	29494	
5616	0	29536	
5617	0	29568	
5618	0	29618	
5619	0	29656	
5620	0	29692	
5621	0	29784	
5622	0	29848	
5623	0	29840	
5624	0	29824	
5625	0	29800	
5626	0	29772	
5627	0	29800	
5628	0	29840	
5629	0	29900	
5630	0	29940	
5631	0	29944	
5632	0	29996	
5633	0	30052	
5634	0	30128	
5635	0	30168	
5636	0	30264	
5637	0	30356	
5638	0	30424	
5639	0	30464	
5640	0	30472	
5641	0	30500	
5642	0	30528	
5643	0	30532	
5644	0	30580	
5645	0	30656	
5646	0	30720	
5647	0	30756	
5648	0	30784	
5649	0	30860	
5650	0	30912	
5651	0	30932	
5652	0	30940	
5653	0	30968	
5654	0	31034	
5655	0	31092	
5656	0	31174	
5657	0	31296	
5658	0	31336	
5659	0	31336	
5660	0	31340	
5661	0	31408	
5662	0	31496	
5663	0	31530	
5664	0	31576	
5665	0	31636	
5666	0	31708	
5667	0	31682	
5668	0	31636	
5669	0	31620	
5670	0	31632	
5671	0	31660	
5672	0	31692	
5673	0	31700	
5674	0	31752	
5675	0	31784	
5676	0	31780	
5677	0	31808	
5678	0	31852	
5679	0	31920	
5680	0	31968	
5681	0	32024	
5682	0	32060	
5683	0	32064	
5684	0	32128	
5685	0	32160	
5686	0	32192	
5687	0	32204	
5688	0	32232	
5689	0	32252	
5690	0	32256	
5691	0	32292	
5692	0	32372	
5693	0	32444	
5694	0	32496	
5695	0	32532	
5696	0	32588	
5697	0	32676	
5698	0	32756	
5699	0	32732	
5700	0	32692	
5701	0	32716	
5702	0	32756	
5703	0	32812	
5704	0	32864	
5705	0	32896	
5706	0	32960	
5707	0	32992	
5708	0	33008	
5709	0	33040	
5710	0	33060	
5711	0	33020	
5712	0	33022	
5713	0	33076	
5714	0	33156	
5715	0	33236	
5716	0	33320	
5717	0	33420	
5718	0	33432	
5719	0	33436	
5720	0	33472	
5721	0	33556	
5722	0	33608	
5723	0	33604	
5724	0	33600	
5725	0	33652	
5726	0	33748	
5727	0	33820	
5728	0	33856	
5729	0	33886	
5730	0	33924	
5731	0	33980	
5732	0	34000	
5733	0	34016	
5734	0	34008	
5735	0	34056	
5736	0	34148	
5737	0	34212	
5738	0	34240	
5739	0	34316	
5740	0	34380	
5741	0	34424	
5742	0	34458	
5743	0	34492	
5744	0	34500	
5745	0	34562	
5746	0	34624	
5747	0	34696	
5748	0	34760	
5749	0	34796	
5750	0	34832	
5751	0	34932	
5752	0	35044	
5753	0	35116	
5754	0	35188	
5755	0	35256	
5756	0	35312	
5757	0	35332	
5758	0	35412	
5759	0	35454	
5760	0	35472	
5761	0	35552	
5762	0	35628	
5763	0	35668	
5764	0	35712	
5765	0	35756	
5766	0	35816	
5767	0	35892	
5768	0	35956	
5769	0	35986	
5770	0	35992	
5771	0	36048	
5772	0	36124	
5773	0	36212	
5774	0	36264	
5775	0	36360	
5776	0	36460	
5777	0	36524	
5778	0	36572	
5779	0	36624	
5780	0	36652	
5781	0	36672	
5782	0	36728	
5783	0	36756	
5784	0	36800	
5785	0	36836	
5786	0	36896	
5787	0	36936	
5788	0	36972	
5789	0	37016	
5790	0	37024	
5791	0	37020	
5792	0	37032	
5793	0	37072	
5794	0	37104	
5795	0	37124	
5796	0	37156	
5797	0	37168	
5798	0	37168	
5799	0	37172	
5800	0	37188	
5801	0	37236	
5802	0	37268	
5803	0	37268	
5804	0	37282	
5805	0	37292	
5806	0	37304	
5807	0	37312	
5808	0	37288	
5809	0	37300	
5810	0	37308	
5811	0	37320	
5812	0	37352	
5813	0	37328	
5814	0	37340	
5815	0	37316	
5816	0	37296	
5817	0	37260	
5818	0	37240	
5819	0	37216	
5820	0	37188	
5821	0	37196	
5822	0	37204	
5823	0	37176	
5824	0	37132	
5825	0	37072	
5826	0	36996	
5827	0	36944	
5828	0	36920	
5829	0	36880	
5830	0	36824	
5831	0	36740	
5832	0	36676	
5833	0	36588	
5834	0	36532	
5835	0	36488	
5836	0	36408	
5837	0	36352	
5838	0	36286	
5839	0	36144	
5840	0	35956	
5841	0	35776	
5842	0	35696	
5843	0	35600	
5844	0	35468	
5845	0	35320	
5846	0	35164	
5847	0	34980	
5848	0	34808	
5849	0	34572	
5850	0	34352	
5851	0	34152	
5852	0	33996	
5853	0	33844	
5854	0	33668	
5855	0	33464	
5856	0	33300	
5857	0	33112	
5858	0	32936	
5859	0	32756	
5860	0	32568	
5861	0	32396	
5862	0	32250	
5863	0	32072	
5864	0	31856	
5865	0	31672	
5866	0	31496	
5867	0	31352	
5868	0	31192	
5869	0	31072	
5870	0	30898	
5871	0	30756	
5872	0	30548	
5873	0	30336	
5874	0	30186	
5875	0	30088	
5876	0	29988	
5877	0	29852	
5878	0	29688	
5879	0	29544	
5880	0	29396	
5881	0	29260	
5882	0	29102	
5883	0	28948	
5884	0	28816	
5885	0	28728	
5886	0	28644	
5887	0	28548	
5888	0	28448	
5889	0	28364	
5890	0	28312	
5891	0	28260	
5892	0	28212	
5893	0	28170	
5894	0	28104	
5895	0	28036	
5896	0	27980	
5897	0	27920	
5898	0	27868	
5899	0	27864	
5900	0	27832	
5901	0	27820	
5902	0	27808	
5903	0	27804	
5904	0	27812	
5905	0	27784	
5906	0	27764	
5907	0	27802	
5908	0	27802	
5909	0	27766	
5910	0	27776	
5911	0	27776	
5912	0	27776	
5913	0	27780	
5914	0	27836	
5915	0	27888	
5916	0	27938	
5917	0	27944	
5918	0	27944	
5919	0	27926	
5920	0	27946	
5921	0	27964	
5922	0	28026	
5923	0	28112	
5924	0	28144	
5925	0	28124	
5926	0	28096	
5927	0	28104	
5928	0	28160	
5929	0	28236	
5930	0	28284	
5931	0	28344	
5932	0	28396	
5933	0	28448	
5934	0	28496	
5935	0	28536	
5936	0	28560	
5937	0	28602	
5938	0	28632	
5939	0	28660	
5940	0	28680	
5941	0	28728	
5942	0	28728	
5943	0	28716	
5944	0	28746	
5945	0	28820	
5946	0	28868	
5947	0	28872	
5948	0	28880	
5949	0	28900	
5950	0	28960	
5951	0	29040	
5952	0	29098	
5953	0	29188	
5954	0	29232	
5955	0	29282	
5956	0	29376	
5957	0	29460	
5958	0	29412	
5959	0	29346	
5960	0	29348	
5961	0	29428	
5962	0	29538	
5963	0	29552	
5964	0	29584	
5965	0	29596	
5966	0	29564	
5967	0	29576	
5968	0	29568	
5969	0	29568	
5970	0	29584	
5971	0	29564	
5972	0	29546	
5973	0	29560	
5974	0	29628	
5975	0	29664	
5976	0	29680	
5977	0	29704	
5978	0	29716	
5979	0	29760	
5980	0	29812	
5981	0	29856	
5982	0	29868	
5983	0	29880	
5984	0	29920	
5985	0	29988	
5986	0	30020	
5987	0	30012	
5988	0	30024	
5989	0	30034	
5990	0	30048	
5991	0	30096	
5992	0	30120	
5993	0	30100	
5994	0	30080	
5995	0	30068	
5996	0	30056	
5997	0	30064	
5998	0	30056	
5999	0	30080	
6000	0	30126	
6001	0	30162	
6002	0	30164	
6003	0	30188	
6004	0	30212	
6005	0	30220	
6006	0	30236	
6007	0	30268	
6008	0	30336	
6009	0	30376	
6010	0	30388	
6011	0	30392	
6012	0	30400	
6013	0	30400	
6014	0	30432	
6015	0	30440	
6016	0	30448	
6017	0	30472	
6018	0	30464	
6019	0	30456	
6020	0	30460	
6021	0	30458	
6022	0	30456	
6023	0	30480	
6024	0	30484	
6025	0	30464	
6026	0	30428	
6027	0	30392	
6028	0	30352	
6029	0	30360	
6030	0	30400	
6031	0	30456	
6032	0	30476	
6033	0	30480	
6034	0	30552	
6035	0	30608	
6036	0	30616	
6037	0	30624	
6038	0	30632	
6039	0	30634	
6040	0	30632	
6041	0	30632	
6042	0	30636	
6043	0	30688	
6044	0	30728	
6045	0	30760	
6046	0	30768	
6047	0	30728	
6048	0	30668	
6049	0	30632	
6050	0	30632	
6051	0	30632	
6052	0	30672	
6053	0	30712	
6054	0	30756	
6055	0	30816	
6056	0	30856	
6057	0	30892	
6058	0	30904	
6059	0	30912	
6060	0	30952	
6061	0	30956	
6062	0	30924	
6063	0	30922	
6064	0	30912	
6065	0	30872	
6066	0	30868	
6067	0	30876	
6068	0	30864	
6069	0	30824	
6070	0	30778	
6071	0	30728	
6072	0	30708	
6073	0	30736	
6074	0	30852	
6075	0	30976	
6076	0	31040	
6077	0	31136	
6078	0	31224	
6079	0	31256	
6080	0	31232	
6081	0	31216	
6082	0	31218	
6083	0	31200	
6084	0	31180	
6085	0	31190	
6086	0	31176	
6087	0	31172	
6088	0	31136	
6089	0	31104	
6090	0	31092	
6091	0	31128	
6092	0	31148	
6093	0	31204	
6094	0	31268	
6095	0	31328	
6096	0	31380	
6097	0	31392	
6098	0	31460	
6099	0	31556	
6100	0	31664	
6101	0	31740	
6102	0	31720	
6103	0	31660	
6104	0	31576	
6105	0	31552	
6106	0	31536	
6107	0	31592	
6108	0	31636	
6109	0	31672	
6110	0	31688	
6111	0	31660	
6112	0	31629	
6113	0	31604	
6114	0	31624	
6115	0	31708	
6116	0	31776	
6117	0	31776	
6118	0	31824	
6119	0	31892	
6120	0	31904	
6121	0	31996	
6122	0	32076	
6123	0	32128	
6124	0	32186	
6125	0	32176	
6126	0	32092	
6127	0	31992	
6128	0	31948	
6129	0	31988	
6130	0	32056	
6131	0	32120	
6132	0	32120	
6133	0	32108	
6134	0	32204	
6135	0	32348	
6136	0	32472	
6137	0	32524	
6138	0	32480	
6139	0	32392	
6140	0	32440	
6141	0	32512	
6142	0	32600	
6143	0	32622	
6144	0	32484	
6145	0	32380	
6146	0	32386	
6147	0	32404	
6148	0	32380	
6149	0	32520	
6150	0	32636	
6151	0	32616	
6152	0	32620	
6153	0	32688	
6154	0	32740	
6155	0	32728	
6156	0	32716	
6157	0	32712	
6158	0	32760	
6159	0	32724	
6160	0	32704	
6161	0	32728	
6162	0	32736	
6163	0	32656	
6164	0	32572	
6165	0	32564	
6166	0	32576	
6167	0	32612	
6168	0	32640	
6169	0	32712	
6170	0	32740	
6171	0	32816	
6172	0	32852	
6173	0	32804	
6174	0	32864	
6175	0	32860	
6176	0	32800	
6177	0	32804	
6178	0	32800	
6179	0	32748	
6180	0	32816	
6181	0	32940	
6182	0	32900	
6183	0	33004	
6184	0	33140	
6185	0	33024	
6186	0	32964	
6187	0	32824	
6188	0	32656	
6189	0	32644	
6190	0	32632	
6191	0	32500	
6192	0	32332	
6193	0	32144	
6194	0	32076	
6195	0	32048	
6196	0	32048	
6197	0	32056	
6198	0	32044	
6199	0	32056	
6200	0	32016	
6201	0	32016	
6202	0	32064	
6203	0	32242	
6204	0	32468	
6205	0	32684	
6206	0	32888	
6207	0	33108	
6208	0	33316	
6209	0	33468	
6210	0	33628	
6211	0	33844	
6212	0	34084	
6213	0	34272	
6214	0	34456	
6215	0	34652	
6216	0	34824	
6217	0	34912	
6218	0	34968	
6219	0	34984	
6220	0	34956	
6221	0	34864	
6222	0	34808	
6223	0	34756	
6224	0	34748	
6225	0	34808	
6226	0	34944	
6227	0	35054	
6228	0	35064	
6229	0	35072	
6230	0	35092	
6231	0	35198	
6232	0	35296	
6233	0	35320	
6234	0	35428	
6235	0	35552	
6236	0	35600	
6237	0	35536	
6238	0	35498	
6239	0	35462	
6240	0	35396	
6241	0	35356	
6242	0	35338	
6243	0	35320	
6244	0	35348	
6245	0	35212	
6246	0	34980	
6247	0	34868	
6248	0	34826	
6249	0	34788	
6250	0	34708	
6251	0	34480	
6252	0	34144	
6253	0	33924	
6254	0	33914	
6255	0	33944	
6256	0	34096	
6257	0	34338	
6258	0	34436	
6259	0	34358	
6260	0	34240	
6261	0	34188	
6262	0	34092	
6263	0	33904	
6264	0	33816	
6265	0	33768	
6266	0	33800	
6267	0	33864	
6268	0	33884	
6269	0	33912	
6270	0	33934	
6271	0	33946	
6272	0	33970	
6273	0	34064	
6274	0	34252	
6275	0	34414	
6276	0	34476	
6277	0	34512	
6278	0	34684	
6279	0	34768	
6280	0	34712	
6281	0	34628	
6282	0	34642	
6283	0	34670	
6284	0	34656	
6285	0	34612	
6286	0	34556	
6287	0	34508	
6288	0	34452	
6289	0	34492	
6290	0	34568	
6291	0	34676	
6292	0	34702	
6293	0	34632	
6294	0	34636	
6295	0	34676	
6296	0	34692	
6297	0	34628	
6298	0	34428	
6299	0	34200	
6300	0	33860	
6301	0	33484	
6302	0	33072	
6303	0	32528	
6304	0	31916	
6305	0	31308	
6306	0	30868	
6307	0	30652	
6308	0	30760	
6309	0	31104	
6310	0	31488	
6311	0	31964	
6312	0	32492	
6313	0	33124	
6314	0	34096	
6315	0	35324	
6316	0	36566	
6317	0	38060	
6318	0	39884	
6319	0	41972	
6320	0	44236	
6321	0	46696	
6322	0	49424	
6323	0	52328	
6324	0	55224	
6325	0	58304	
6326	0	61604	
6327	0	63848	
6328	0	65040	
6329	0	65535	
6330	0	65535	
6331	0	65535	
6332	0	65535	
6333	0	65535	
6334	0	65535	
6335	0	65535	
6336	0	65535	
6337	0	65535	
6338	0	65360	
6339	0	65224	
6340	0	65088	
6341	0	64960	
6342	0	64836	
6343	0	62760	
6344	0	55492	
6345	0	48992	
6346	0	43480	
6347	0	38696	
6348	0	34736	
6349	0	31588	
6350	0	29288	
6351	0	27660	
6352	0	26778	
6353	0	26468	
6354	0	26280	
6355	0	26112	
6356	0	25944	
6357	0	25856	
6358	0	25834	
6359	0	25800	
6360	0	25824	
6361	0	25896	
6362	0	26012	
6363	0	26172	
6364	0	26440	
6365	0	26832	
6366	0	27394	
6367	0	28024	
6368	0	28564	
6369	0	28916	
6370	0	29208	
6371	0	29510	
6372	0	29640	
6373	0	29796	
6374	0	29972	
6375	0	30112	
6376	0	30388	
6377	0	30672	
6378	0	30914	
6379	0	30940	
6380	0	30824	
6381	0	30634	
6382	0	30532	
6383	0	30432	
6384	0	30520	
6385	0	30712	
6386	0	31056	
6387	0	31348	
6388	0	31508	
6389	0	31648	
6390	0	31800	
6391	0	31908	
6392	0	31784	
6393	0	31488	
6394	0	31176	
6395	0	30928	
6396	0	30770	
6397	0	30688	
6398	0	30664	
6399	0	30752	
6400	0	30870	
6401	0	31040	
6402	0	31244	
6403	0	31344	
6404	0	31412	
6405	0	31608	
6406	0	31806	
6407	0	32012	
6408	0	32208	
6409	0	32312	
6410	0	32288	
6411	0	32272	
6412	0	32272	
6413	0	32268	
6414	0	32288	
6415	0	32276	
6416	0	32308	
6417	0	32360	
6418	0	32416	
6419	0	32464	
6420	0	32496	
6421	0	32544	
6422	0	32568	
6423	0	32509	
6424	0	32512	
6425	0	32568	
6426	0	32616	
6427	0	32568	
6428	0	32472	
6429	0	32392	
6430	0	32389	
6431	0	32432	
6432	0	32528	
6433	0	32584	
6434	0	32676	
6435	0	32812	
6436	0	32944	
6437	0	33092	
6438	0	33228	
6439	0	33448	
6440	0	33636	
6441	0	33674	
6442	0	33712	
6443	0	33632	
6444	0	33500	
6445	0	33480	
6446	0	33472	
6447	0	33440	
6448	0	33470	
6449	0	33564	
6450	0	33596	
6451	0	33540	
6452	0	33612	
6453	0	33704	
6454	0	33680	
6455	0	33700	
6456	0	33740	
6457	0	33812	
6458	0	33916	
6459	0	34008	
6460	0	34068	
6461	0	34100	
6462	0	34096	
6463	0	34080	
6464	0	34112	
6465	0	34084	
6466	0	33968	
6467	0	33848	
6468	0	33796	
6469	0	33740	
6470	0	33860	
6471	0	34176	
6472	0	34308	
6473	0	34344	
6474	0	34376	
6475	0	34320	
6476	0	34364	
6477	0	34414	
6478	0	34484	
6479	0	34540	
6480	0	34480	
6481	0	34588	
6482	0	34820	
6483	0	35080	
6484	0	35032	
6485	0	35088	
6486	0	35112	
6487	0	35152	
6488	0	35224	
6489	0	34988	
6490	0	34684	
6491	0	34564	
6492	0	34636	
6493	0	34788	
6494	0	34826	
6495	0	34952	
6496	0	35172	
6497	0	35308	
6498	0	35424	
6499	0	35576	
6500	0	35688	
6501	0	35748	
6502	0	35752	
6503	0	35732	
6504	0	35724	
6505	0	35794	
6506	0	35932	
6507	0	35980	
6508	0	35968	
6509	0	35924	
6510	0	35916	
6511	0	35936	
6512	0	35996	
6513	0	36132	
6514	0	36236	
6515	0	36260	
6516	0	36344	
6517	0	36528	
6518	0	36540	
6519	0	36532	
6520	0	36620	
6521	0	36610	
6522	0	36592	
6523	0	36620	
6524	0	36732	
6525	0	36872	
6526	0	36944	
6527	0	37104	
6528	0	37116	
6529	0	37160	
6530	0	37216	
6531	0	37232	
6532	0	37120	
6533	0	36904	
6534	0	37068	
6535	0	37316	
6536	0	37388	
6537	0	37396	
6538	0	37460	
6539	0	37586	
6540	0	37708	
6541	0	37894	
6542	0	37928	
6543	0	37836	
6544	0	37888	
6545	0	38016	
6546	0	38084	
6547	0	38096	
6548	0	38070	
6549	0	38060	
6550	0	38258	
6551	0	38504	
6552	0	38592	
6553	0	38696	
6554	0	38892	
6555	0	39128	
6556	0	39384	
6557	0	39584	
6558	0	39576	
6559	0	39572	
6560	0	39556	
6561	0	39632	
6562	0	39580	
6563	0	39580	
6564	0	39592	
6565	0	39520	
6566	0	39376	
6567	0	39430	
6568	0	39548	
6569	0	39548	
6570	0	39512	
6571	0	39604	
6572	0	39668	
6573	0	39696	
6574	0	39652	
6575	0	39744	
6576	0	39828	
6577	0	39852	
6578	0	39896	
6579	0	39812	
6580	0	39708	
6581	0	39714	
6582	0	39680	
6583	0	39668	
6584	0	39688	
6585	0	39504	
6586	0	39360	
6587	0	39360	
6588	0	39240	
6589	0	39104	
6590	0	39044	
6591	0	39218	
6592	0	39520	
6593	0	39616	
6594	0	39580	
6595	0	39460	
6596	0	39452	
6597	0	39416	
6598	0	39308	
6599	0	39136	
6600	0	39136	
6601	0	39030	
6602	0	38944	
6603	0	38924	
6604	0	38984	
6605	0	38984	
6606	0	38886	
6607	0	38808	
6608	0	38688	
6609	0	38560	
6610	0	38304	
6611	0	38032	
6612	0	37788	
6613	0	37536	
6614	0	37440	
6615	0	37472	
6616	0	37292	
6617	0	36940	
6618	0	36716	
6619	0	36528	
6620	0	36556	
6621	0	36568	
6622	0	36464	
6623	0	36372	
6624	0	36284	
6625	0	35952	
6626	0	35492	
6627	0	35048	
6628	0	34736	
6629	0	34432	
6630	0	34292	
6631	0	34024	
6632	0	33864	
6633	0	33896	
6634	0	33834	
6635	0	33696	
6636	0	33560	
6637	0	33484	
6638	0	33376	
6639	0	33056	
6640	0	32864	
6641	0	32764	
6642	0	32608	
6643	0	32262	
6644	0	31724	
6645	0	31432	
6646	0	31232	
6647	0	31028	
6648	0	30970	
6649	0	30768	
6650	0	30432	
6651	0	30144	
6652	0	29894	
6653	0	29664	
6654	0	29434	
6655	0	29232	
6656	0	29136	
6657	0	29128	
6658	0	29280	
6659	0	29320	
6660	0	29154	
6661	0	29010	
6662	0	28952	
6663	0	28852	
6664	0	28848	
6665	0	28724	
6666	0	28608	
6667	0	28752	
6668	0	28720	
6669	0	28524	
6670	0	28348	
6671	0	28260	
6672	0	28208	
6673	0	28224	
6674	0	28224	
6675	0	28272	
6676	0	28424	
6677	0	28556	
6678	0	28684	
6679	0	28662	
6680	0	28608	
6681	0	28564	
6682	0	28552	
6683	0	28572	
6684	0	28712	
6685	0	28788	
6686	0	28860	
6687	0	28834	
6688	0	28644	
6689	0	28340	
6690	0	28320	
6691	0	28200	
6692	0	28124	
6693	0	28116	
6694	0	28172	
6695	0	28304	
6696	0	28376	
6697	0	28386	
6698	0	28516	
6699	0	28536	
6700	0	28552	
6701	0	28640	
6702	0	28544	
6703	0	28564	
6704	0	28556	
6705	0	28468	
6706	0	28632	
6707	0	28952	
6708	0	29036	
6709	0	28844	
6710	0	28840	
6711	0	29080	
6712	0	29376	
6713	0	29416	
6714	0	29280	
6715	0	29052	
6716	0	28916	
6717	0	28968	
6718	0	29264	
6719	0	29660	
6720	0	29872	
6721	0	29668	
6722	0	29532	
6723	0	29616	
6724	0	29766	
6725	0	29656	
6726	0	29732	
6727	0	29932	
6728	0	30070	
6729	0	30370	
6730	0	30392	
6731	0	30208	
6732	0	30060	
6733	0	30172	
6734	0	30264	
6735	0	30400	
6736	0	30392	
6737	0	30162	
6738	0	29964	
6739	0	29992	
6740	0	30178	
6741	0	30172	
6742	0	30040	
6743	0	30048	
6744	0	30064	
6745	0	30096	
6746	0	29936	
6747	0	29960	
6748	0	30010	
6749	0	29924	
6750	0	29848	
6751	0	29792	
6752	0	29788	
6753	0	29904	
6754	0	30108	
6755	0	30390	
6756	0	30624	
6757	0	30860	
6758	0	31116	
6759	0	31224	
6760	0	31180	
6761	0	31164	
6762	0	31074	
6763	0	31070	
6764	0	31096	
6765	0	30964	
6766	0	30952	
6767	0	30946	
6768	0	30856	
6769	0	30608	
6770	0	30504	
6771	0	30544	
6772	0	30616	
6773	0	30732	
6774	0	30852	
6775	0	31116	
6776	0	31364	
6777	0	31404	
6778	0	31388	
6779	0	31336	
6780	0	31180	
6781	0	31196	
6782	0	31276	
6783	0	31172	
6784	0	30952	
6785	0	30676	
6786	0	30624	
6787	0	30800	
6788	0	31044	
6789	0	31244	
6790	0	31328	
6791	0	31488	
6792	0	31616	
6793	0	31688	
6794	0	31688	
6795	0	31426	
6796	0	31144	
6797	0	31012	
6798	0	30996	
6799	0	31092	
6800	0	31304	
6801	0	31380	
6802	0	31180	
6803	0	30984	
6804	0	31090	
6805	0	31196	
6806	0	31066	
6807	0	31048	
6808	0	30972	
6809	0	30852	
6810	0	30716	
6811	0	30784	
6812	0	30968	
6813	0	31192	
6814	0	31248	
6815	0	31356	
6816	0	31520	
6817	0	31642	
6818	0	31800	
6819	0	31672	
6820	0	31336	
6821	0	31130	
6822	0	30906	
6823	0	30900	
6824	0	30926	
6825	0	31032	
6826	0	31328	
6827	0	31424	
6828	0	31416	
6829	0	31326	
6830	0	31216	
6831	0	31150	
6832	0	31216	
6833	0	31328	
6834	0	31320	
6835	0	31232	
6836	0	31364	
6837	0	31516	
6838	0	31468	
6839	0	31292	
6840	0	31114	
6841	0	31152	
6842	0	31292	
6843	0	31348	
6844	0	31468	
6845	0	31552	
6846	0	31648	
6847	0	31592	
6848	0	31300	
6849	0	31024	
6850	0	30932	
6851	0	30892	
6852	0	30728	
6853	0	30684	
6854	0	30870	
6855	0	31170	
6856	0	31400	
6857	0	31464	
6858	0	31496	
6859	0	31564	
6860	0	31484	
6861	0	31416	
6862	0	31328	
6863	0	31416	
6864	0	31508	
6865	0	31484	
6866	0	31356	
6867	0	31412	
6868	0	31620	
6869	0	31636	
6870	0	31540	
6871	0	31528	
6872	0	31516	
6873	0	31388	
6874	0	31344	
6875	0	31356	
6876	0	31440	
6877	0	31576	
6878	0	31690	
6879	0	31712	
6880	0	31768	
6881	0	31800	
6882	0	31804	
6883	0	31820	
6884	0	31932	
6885	0	31876	
6886	0	31820	
6887	0	31742	
6888	0	31692	
6889	0	31568	
6890	0	31500	
6891	0	31444	
6892	0	31336	
6893	0	31272	
6894	0	31396	
6895	0	31476	
6896	0	31512	
6897	0	31588	
6898	0	31604	
6899	0	31528	
6900	0	31376	
6901	0	31208	
6902	0	31132	
6903	0	31180	
6904	0	31296	
6905	0	31552	
6906	0	31692	
6907	0	31732	
6908	0	31652	
6909	0	31568	
6910	0	31472	
6911	0	31340	
6912	0	31268	
6913	0	31202	
6914	0	31372	
6915	0	31468	
6916	0	31604	
6917	0	31720	
6918	0	31632	
6919	0	31504	
6920	0	31496	
6921	0	31394	
6922	0	31374	
6923	0	31322	
6924	0	31280	
6925	0	31200	
6926	0	31188	
6927	0	31224	
6928	0	31152	
6929	0	31032	
6930	0	30918	
6931	0	30912	
6932	0	31072	
6933	0	31200	
6934	0	31108	
6935	0	30844	
6936	0	30684	
6937	0	30628	
6938	0	30584	
6939	0	30748	
6940	0	30996	
6941	0	31118	
6942	0	31212	
6943	0	31192	
6944	0	31208	
6945	0	31350	
6946	0	31744	
6947	0	32100	
6948	0	32292	
6949	0	32480	
6950	0	32728	
6951	0	32892	
6952	0	32918	
6953	0	32952	
6954	0	32858	
6955	0	32716	
6956	0	32692	
6957	0	32576	
6958	0	32400	
6959	0	32292	
6960	0	32160	
6961	0	32096	
6962	0	32104	
6963	0	32186	
6964	0	32252	
6965	0	32192	
6966	0	32200	
6967	0	32276	
6968	0	32412	
6969	0	32632	
6970	0	32820	
6971	0	32916	
6972	0	33050	
6973	0	33164	
6974	0	33184	
6975	0	33036	
6976	0	32886	
6977	0	32836	
6978	0	32848	
6979	0	32832	
6980	0	32728	
6981	0	32646	
6982	0	32496	
6983	0	32380	
6984	0	32360	
6985	0	32284	
6986	0	32052	
6987	0	31740	
6988	0	31436	
6989	0	31216	
6990	0	31024	
6991	0	31124	
6992	0	31068	
6993	0	31244	
6994	0	31412	
6995	0	31420	
6996	0	31392	
6997	0	31464	
6998	0	31578	
6999	0	31744	
7000	0	31924	
7001	0	31952	
7002	0	31880	
7003	0	31728	
7004	0	31520	
7005	0	31444	
7006	0	31516	
7007	0	31632	
7008	0	31608	
7009	0	31536	
7010	0	31544	
7011	0	31592	
7012	0	31752	
7013	0	31920	
7014	0	32092	
7015	0	32060	
7016	0	31948	
7017	0	31884	
7018	0	31822	
7019	0	31900	
7020	0	31976	
7021	0	32004	
7022	0	32096	
7023	0	32280	
7024	0	32380	
7025	0	32424	
7026	0	32380	
7027	0	32316	
7028	0	32248	
7029	0	32140	
7030	0	31996	
7031	0	31976	
7032	0	31956	
7033	0	31856	
7034	0	31776	
7035	0	31712	
7036	0	31628	
7037	0	31472	
7038	0	31104	
7039	0	30680	
7040	0	30276	
7041	0	29834	
7042	0	29432	
7043	0	29292	
7044	0	29296	
7045	0	29536	
7046	0	30080	
7047	0	30628	
7048	0	31296	
7049	0	32148	
7050	0	33100	
7051	0	34100	
7052	0	35196	
7053	0	36536	
7054	0	38080	
7055	0	39892	
7056	0	41928	
7057	0	44128	
7058	0	46456	
7059	0	48960	
7060	0	51780	
7061	0	54916	
7062	0	58246	
7063	0	61060	
7064	0	62628	
7065	0	63428	
7066	0	63816	
7067	0	63968	
7068	0	64006	
7069	0	63960	
7070	0	63868	
7071	0	63784	
7072	0	63680	
7073	0	63552	
7074	0	63432	
7075	0	63324	
7076	0	63216	
7077	0	63080	
7078	0	62960	
7079	0	58940	
7080	0	52360	
7081	0	46388	
7082	0	41024	
7083	0	36332	
7084	0	32560	
7085	0	30032	
7086	0	28372	
7087	0	27166	
7088	0	26416	
7089	0	25944	
7090	0	25444	
7091	0	25078	
7092	0	24682	
7093	0	24168	
7094	0	23824	
7095	0	23612	
7096	0	23416	
7097	0	23248	
7098	0	23132	
7099	0	23032	
7100	0	23148	
7101	0	23360	
7102	0	23536	
7103	0	23540	
7104	0	23604	
7105	0	23744	
7106	0	23976	
7107	0	24320	
7108	0	24864	
7109	0	25348	
7110	0	25712	
7111	0	26088	
7112	0	26444	
7113	0	26756	
7114	0	27070	
7115	0	27328	
7116	0	27500	
7117	0	27694	
7118	0	27896	
7119	0	28064	
7120	0	28140	
7121	0	28208	
7122	0	28244	
7123	0	28176	
7124	0	28038	
7125	0	27980	
7126	0	28036	
7127	0	28180	
7128	0	28224	
7129	0	28304	
7130	0	28432	
7131	0	28524	
7132	0	28612	
7133	0	28652	
7134	0	28676	
7135	0	28584	
7136	0	28472	
7137	0	28396	
7138	0	28388	
7139	0	28330	
7140	0	28368	
7141	0	28560	
7142	0	28832	
7143	0	29052	
7144	0	29228	
7145	0	29296	
7146	0	29248	
7147	0	29058	
7148	0	28944	
7149	0	28836	
7150	0	28744	
7151	0	28808	
7152	0	28880	
7153	0	28968	
7154	0	29080	
7155	0	29224	
7156	0	29428	
7157	0	29676	
7158	0	29884	
7159	0	30128	
7160	0	30372	
7161	0	30504	
7162	0	30490	
7163	0	30482	
7164	0	30440	
7165	0	30328	
7166	0	30212	
7167	0	30220	
7168	0	30376	
7169	0	30496	
7170	0	30560	
7171	0	30652	
7172	0	30828	
7173	0	30948	
7174	0	31032	
7175	0	31152	
7176	0	31300	
7177	0	31356	
7178	0	31424	
7179	0	31372	
7180	0	31236	
7181	0	31192	
7182	0	31156	
7183	0	31172	
7184	0	31204	
7185	0	31196	
7186	0	31156	
7187	0	31130	
7188	0	31156	
7189	0	31264	
7190	0	31380	
7191	0	31500	
7192	0	31632	
7193	0	31696	
7194	0	31708	
7195	0	31728	
7196	0	31748	
7197	0	31832	
7198	0	31892	
7199	0	31920	
7200	0	31912	
7201	0	32032	
7202	0	32140	
7203	0	32184	
7204	0	32268	
7205	0	32388	
7206	0	32472	
7207	0	32584	
7208	0	32668	
7209	0	32680	
7210	0	32688	
7211	0	32652	
7212	0	32576	
7213	0	32588	
7214	0	32640	
7215	0	32560	
7216	0	32486	
7217	0	32536	
7218	0	32616	
7219	0	32696	
7220	0	32816	
7221	0	32908	
7222	0	32888	
7223	0	32992	
7224	0	33128	
7225	0	33128	
7226	0	32988	
7227	0	33100	
7228	0	33152	
7229	0	33050	
7230	0	33024	
7231	0	33022	
7232	0	33108	
7233	0	33272	
7234	0	33432	
7235	0	33576	
7236	0	33688	
7237	0	33760	
7238	0	33912	
7239	0	34124	
7240	0	34148	
7241	0	34182	
7242	0	34084	
7243	0	34124	
7244	0	34184	
7245	0	34132	
7246	0	34036	
7247	0	33976	
7248	0	33964	
7249	0	34016	
7250	0	33986	
7251	0	34016	
7252	0	34132	
7253	0	34328	
7254	0	34612	
7255	0	34876	
7256	0	35044	
7257	0	35080	
7258	0	35092	
7259	0	35208	
7260	0	35216	
7261	0	35268	
7262	0	35320	
7263	0	35388	
7264	0	35416	
7265	0	35400	
7266	0	35300	
7267	0	35208	
7268	0	35160	
7269	0	35170	
7270	0	35140	
7271	0	35104	
7272	0	35304	
7273	0	35576	
7274	0	35776	
7275	0	35880	
7276	0	35748	
7277	0	35664	
7278	0	35688	
7279	0	35824	
7280	0	36098	
7281	0	36276	
7282	0	36456	
7283	0	36680	
7284	0	36688	
7285	0	36634	
7286	0	36640	
7287	0	36728	
7288	0	36852	
7289	0	36988	
7290	0	37108	
7291	0	37212	
7292	0	37224	
7293	0	37312	
7294	0	37400	
7295	0	37476	
7296	0	37352	
7297	0	37236	
7298	0	37242	
7299	0	37232	
7300	0	37148	
7301	0	36996	
7302	0	36912	
7303	0	36938	
7304	0	37036	
7305	0	37076	
7306	0	37152	
7307	0	37144	
7308	0	37192	
7309	0	37296	
7310	0	37348	
7311	0	37440	
7312	0	37548	
7313	0	37536	
7314	0	37560	
7315	0	37532	
7316	0	37458	
7317	0	37468	
7318	0	37400	
7319	0	37364	
7320	0	37408	
7321	0	37380	
7322	0	37440	
7323	0	37628	
7324	0	37738	
7325	0	37788	
7326	0	37572	
7327	0	37176	
7328	0	36974	
7329	0	36826	
7330	0	36832	
7331	0	37000	
7332	0	37110	
7333	0	37256	
7334	0	37224	
7335	0	37156	
7336	0	37028	
7337	0	36776	
7338	0	36476	
7339	0	36256	
7340	0	36032	
7341	0	35944	
7342	0	35876	
7343	0	35872	
7344	0	35784	
7345	0	35700	
7346	0	35612	
7347	0	35532	
7348	0	35412	
7349	0	35032	
7350	0	34584	
7351	0	34252	
7352	0	34168	
7353	0	34136	
7354	0	33976	
7355	0	33600	
7356	0	33300	
7357	0	33140	
7358	0	33060	
7359	0	33048	
7360	0	32800	
7361	0	32452	
7362	0	32224	
7363	0	32080	
7364	0	31920	
7365	0	31677	
7366	0	31536	
7367	0	31360	
7368	0	31100	
7369	0	30794	
7370	0	30456	
7371	0	30308	
7372	0	30170	
7373	0	30032	
7374	0	29912	
7375	0	29888	
7376	0	29848	
7377	0	29600	
7378	0	29360	
7379	0	29126	
7380	0	28880	
7381	0	28752	
7382	0	28500	
7383	0	28288	
7384	0	28208	
7385	0	28096	
7386	0	27904	
7387	0	27748	
7388	0	27770	
7389	0	27784	
7390	0	27804	
7391	0	27632	
7392	0	27484	
7393	0	27552	
7394	0	27832	
7395	0	27996	
7396	0	27884	
7397	0	27776	
7398	0	27668	
7399	0	27576	
7400	0	27740	
7401	0	27756	
7402	0	27544	
7403	0	27256	
7404	0	26872	
7405	0	26564	
7406	0	26244	
7407	0	26258	
7408	0	26400	
7409	0	26564	
7410	0	26804	
7411	0	27080	
7412	0	27440	
7413	0	27640	
7414	0	27452	
7415	0	27176	
7416	0	26984	
7417	0	27016	
7418	0	26908	
7419	0	26860	
7420	0	26796	
7421	0	26810	
7422	0	26896	
7423	0	27044	
7424	0	27120	
7425	0	27320	
7426	0	27404	
7427	0	27368	
7428	0	27236	
7429	0	27088	
7430	0	27220	
7431	0	27496	
7432	0	27777	
7433	0	28004	
7434	0	28112	
7435	0	28132	
7436	0	27988	
7437	0	27802	
7438	0	27790	
7439	0	27884	
7440	0	27892	
7441	0	27840	
7442	0	27908	
7443	0	27960	
7444	0	27904	
7445	0	27984	
7446	0	28132	
7447	0	28244	
7448	0	28264	
7449	0	28238	
7450	0	28272	
7451	0	28322	
7452	0	28460	
7453	0	28620	
7454	0	28716	
7455	0	28794	
7456	0	28984	
7457	0	29146	
7458	0	29252	
7459	0	29360	
7460	0	29444	
7461	0	29468	
7462	0	29404	
7463	0	29306	
7464	0	29196	
7465	0	29220	
7466	0	29208	
7467	0	29210	
7468	0	29276	
7469	0	29376	
7470	0	29484	
7471	0	29632	
7472	0	29748	
7473	0	29796	
7474	0	29760	
7475	0	29732	
7476	0	29776	
7477	0	29866	
7478	0	29928	
7479	0	29934	
7480	0	29980	
7481	0	30008	
7482	0	29952	
7483	0	29944	
7484	0	29844	
7485	0	29788	
7486	0	29776	
7487	0	29792	
7488	0	29864	
7489	0	30018	
7490	0	30200	
7491	0	30342	
7492	0	30376	
7493	0	30476	
7494	0	30680	
7495	0	30936	
7496	0	31040	
7497	0	31048	
7498	0	31000	
7499	0	30868	
7500	0	30832	
7501	0	30860	
7502	0	30840	
7503	0	30860	
7504	0	30992	
7505	0	31016	
7506	0	30908	
7507	0	30868	
7508	0	30968	
7509	0	31152	
7510	0	31168	
7511	0	31056	
7512	0	31020	
7513	0	31060	
7514	0	31034	
7515	0	31116	
7516	0	30920	
7517	0	30656	
7518	0	30582	
7519	0	30660	
7520	0	30852	
7521	0	30992	
7522	0	31052	
7523	0	30988	
7524	0	30926	
7525	0	30920	
7526	0	31044	
7527	0	31052	
7528	0	30852	
7529	0	30748	
7530	0	30584	
7531	0	30496	
7532	0	30528	
7533	0	30672	
7534	0	30816	
7535	0	31000	
7536	0	31180	
7537	0	31316	
7538	0	31196	
7539	0	31004	
7540	0	30952	
7541	0	30964	
7542	0	31070	
7543	0	31092	
7544	0	30972	
7545	0	30852	
7546	0	30748	
7547	0	30664	
7548	0	30764	
7549	0	30924	
7550	0	31008	
7551	0	31020	
7552	0	30882	
7553	0	30712	
7554	0	30654	
7555	0	30754	
7556	0	30860	
7557	0	30876	
7558	0	30914	
7559	0	30992	
7560	0	30964	
7561	0	30864	
7562	0	30728	
7563	0	30568	
7564	0	30688	
7565	0	30860	
7566	0	30996	
7567	0	30996	
7568	0	30876	
7569	0	30808	
7570	0	30768	
7571	0	30684	
7572	0	30642	
7573	0	30688	
7574	0	30746	
7575	0	30852	
7576	0	30936	
7577	0	31036	
7578	0	31048	
7579	0	31068	
7580	0	30984	
7581	0	30896	
7582	0	30994	
7583	0	31076	
7584	0	31068	
7585	0	31044	
7586	0	31044	
7587	0	31086	
7588	0	31116	
7589	0	31104	
7590	0	31058	
7591	0	31052	
7592	0	31144	
7593	0	31192	
7594	0	31088	
7595	0	31062	
7596	0	31136	
7597	0	31168	
7598	0	31040	
7599	0	30740	
7600	0	30656	
7601	0	30696	
7602	0	30748	
7603	0	30716	
7604	0	30744	
7605	0	30860	
7606	0	31052	
7607	0	31148	
7608	0	31148	
7609	0	30936	
7610	0	30604	
7611	0	30424	
7612	0	30432	
7613	0	30480	
7614	0	30596	
7615	0	30756	
7616	0	30976	
7617	0	31124	
7618	0	31284	
7619	0	31568	
7620	0	31756	
7621	0	31832	
7622	0	31740	
7623	0	31592	
7624	0	31522	
7625	0	31336	
7626	0	31168	
7627	0	31116	
7628	0	31124	
7629	0	31192	
7630	0	31424	
7631	0	31584	
7632	0	31556	
7633	0	31516	
7634	0	31520	
7635	0	31592	
7636	0	31768	
7637	0	31878	
7638	0	31924	
7639	0	31876	
7640	0	31960	
7641	0	32076	
7642	0	32004	
7643	0	31864	
7644	0	31756	
7645	0	31640	
7646	0	31450	
7647	0	31432	
7648	0	31432	
7649	0	31464	
7650	0	31420	
7651	0	31470	
7652	0	31578	
7653	0	31656	
7654	0	31668	
7655	0	31664	
7656	0	31724	
7657	0	31658	
7658	0	31708	
7659	0	31648	
7660	0	31620	
7661	0	31676	
7662	0	31632	
7663	0	31584	
7664	0	31488	
7665	0	31452	
7666	0	31564	
7667	0	31764	
7668	0	31826	
7669	0	31780	
7670	0	31780	
7671	0	31868	
7672	0	32014	
7673	0	32136	
7674	0	32120	
7675	0	32048	
7676	0	32092	
7677	0	32064	
7678	0	31912	
7679	0	31882	
7680	0	31814	
7681	0	31714	
7682	0	31620	
7683	0	31536	
7684	0	31416	
7685	0	31268	
7686	0	31120	
7687	0	31080	
7688	0	31064	
7689	0	31016	
7690	0	30980	
7691	0	31008	
7692	0	31132	
7693	0	31296	
7694	0	31448	
7695	0	31658	
7696	0	31900	
7697	0	32100	
7698	0	32266	
7699	0	32428	
7700	0	32592	
7701	0	32712	
7702	0	32784	
7703	0	32852	
7704	0	32916	
7705	0	33020	
7706	0	33100	
7707	0	33156	
7708	0	33244	
7709	0	33264	
7710	0	33184	
7711	0	33080	
7712	0	33052	
7713	0	33012	
7714	0	33048	
7715	0	33132	
7716	0	33300	
7717	0	33412	
7718	0	33360	
7719	0	33280	
7720	0	33172	
7721	0	33152	
7722	0	33244	
7723	0	33344	
7724	0	33416	
7725	0	33444	
7726	0	33442	
7727	0	33420	
7728	0	33492	
7729	0	33544	
7730	0	33564	
7731	0	33588	
7732	0	33612	
7733	0	33584	
7734	0	33564	
7735	0	33562	
7736	0	33532	
7737	0	33500	
7738	0	33472	
7739	0	33344	
7740	0	33216	
7741	0	33036	
7742	0	32772	
7743	0	32464	
7744	0	32214	
7745	0	32028	
7746	0	31932	
7747	0	31912	
7748	0	31940	
7749	0	32012	
7750	0	32048	
7751	0	32118	
7752	0	32272	
7753	0	32344	
7754	0	32360	
7755	0	32356	
7756	0	32344	
7757	0	32288	
7758	0	32172	
7759	0	32252	
7760	0	32372	
7761	0	32372	
7762	0	32360	
7763	0	32428	
7764	0	32472	
7765	0	32548	
7766	0	32674	
7767	0	32672	
7768	0	32572	
7769	0	32522	
7770	0	32592	
7771	0	32664	
7772	0	32660	
7773	0	32616	
7774	0	32572	
7775	0	32612	
7776	0	32640	
7777	0	32744	
7778	0	32876	
7779	0	32820	
7780	0	32792	
7781	0	32854	
7782	0	32898	
7783	0	32984	
7784	0	32986	
7785	0	32852	
7786	0	32712	
7787	0	32616	
7788	0	32532	
7789	0	32468	
7790	0	32380	
7791	0	32160	
7792	0	31876	
7793	0	31492	
7794	0	30954	
7795	0	30308	
7796	0	29744	
7797	0	29340	
7798	0	29096	
7799	0	29120	
7800	0	29376	
7801	0	29824	
7802	0	30376	
7803	0	31064	
7804	0	31820	
7805	0	32804	
7806	0	34032	
7807	0	35400	
7808	0	36884	
7809	0	38530	
7810	0	40568	
7811	0	42764	
7812	0	44970	
7813	0	47296	
7814	0	49856	
7815	0	52624	
7816	0	55624	
7817	0	58832	
7818	0	61880	
7819	0	63696	
7820	0	64620	
7821	0	65088	
7822	0	65264	
7823	0	65320	
7824	0	65288	
7825	0	65220	
7826	0	65112	
7827	0	64992	
7828	0	64880	
7829	0	64752	
7830	0	64620	
7831	0	64496	
7832	0	64356	
7833	0	64224	
7834	0	58916	
7835	0	52260	
7836	0	46352	
7837	0	40948	
7838	0	36348	
7839	0	32846	
7840	0	30136	
7841	0	28192	
7842	0	26794	
7843	0	25852	
7844	0	25236	
7845	0	24796	
7846	0	24580	
7847	0	24464	
7848	0	24324	
7849	0	24258	
7850	0	24268	
7851	0	24076	
7852	0	23896	
7853	0	23976	
7854	0	24032	
7855	0	24064	
7856	0	24272	
7857	0	24656	
7858	0	25124	
7859	0	25428	
7860	0	25540	
7861	0	25736	
7862	0	25944	
7863	0	26312	
7864	0	26832	
7865	0	27292	
7866	0	27700	
7867	0	27848	
7868	0	27908	
7869	0	28180	
7870	0	28540	
7871	0	28852	
7872	0	29108	
7873	0	29096	
7874	0	29128	
7875	0	29228	
7876	0	29396	
7877	0	29424	
7878	0	29116	
7879	0	29164	
7880	0	29280	
7881	0	29384	
7882	0	29488	
7883	0	29440	
7884	0	29376	
7885	0	29352	
7886	0	29216	
7887	0	29256	
7888	0	29376	
7889	0	29254	
7890	0	29218	
7891	0	29286	
7892	0	29252	
7893	0	29312	
7894	0	29326	
7895	0	29476	
7896	0	29876	
7897	0	29996	
7898	0	29860	
7899	0	29876	
7900	0	30196	
7901	0	30440	
7902	0	30672	
7903	0	30760	
7904	0	30860	
7905	0	30884	
7906	0	30904	
7907	0	30872	
7908	0	30776	
7909	0	30588	
7910	0	30512	
7911	0	30480	
7912	0	30448	
7913	0	30652	
7914	0	30884	
7915	0	31192	
7916	0	31336	
7917	0	31264	
7918	0	31272	
7919	0	31360	
7920	0	31416	
7921	0	31564	
7922	0	31636	
7923	0	31656	
7924	0	31624	
7925	0	31576	
7926	0	31564	
7927	0	31480	
7928	0	31484	
7929	0	31604	
7930	0	31728	
7931	0	31764	
7932	0	31742	
7933	0	31818	
7934	0	32000	
7935	0	32108	
7936	0	32232	
7937	0	32396	
7938	0	32496	
7939	0	32588	
7940	0	32664	
7941	0	32608	
7942	0	32600	
7943	0	32616	
7944	0	32652	
7945	0	32560	
7946	0	32596	
7947	0	32832	
7948	0	33152	
7949	0	33448	
7950	0	33724	
7951	0	33848	
7952	0	33600	
7953	0	33544	
7954	0	33656	
7955	0	33410	
7956	0	33238	
7957	0	33204	
7958	0	33288	
7959	0	33356	
7960	0	33556	
7961	0	33748	
7962	0	33900	
7963	0	34138	
7964	0	34164	
7965	0	34072	
7966	0	34008	
7967	0	33944	
7968	0	33836	
7969	0	33722	
7970	0	33784	
7971	0	34120	
7972	0	34300	
7973	0	34432	
7974	0	34528	
7975	0	34476	
7976	0	34376	
7977	0	34356	
7978	0	34488	
7979	0	34292	
7980	0	34128	
7981	0	34130	
7982	0	34280	
7983	0	34440	
7984	0	34528	
7985	0	34708	
7986	0	34764	
7987	0	34696	
7988	0	34776	
7989	0	35016	
7990	0	35016	
7991	0	34948	
7992	0	34944	
7993	0	34972	
7994	0	35016	
7995	0	35172	
7996	0	35256	
7997	0	35360	
7998	0	35488	
7999	0	35440	
8000	0	35444	
8001	0	35448	
8002	0	35396	
8003	0	35420	
8004	0	35412	
8005	0	35392	
8006	0	35344	
8007	0	35500	
8008	0	35726	
8009	0	35972	
8010	0	36260	
8011	0	36344	
8012	0	36340	
8013	0	36384	
8014	0	36480	
8015	0	36524	
8016	0	36352	
8017	0	36296	
8018	0	36536	
8019	0	36660	
8020	0	36684	
8021	0	36688	
8022	0	36756	
8023	0	36888	
8024	0	37048	
8025	0	37246	
8026	0	37328	
8027	0	37268	
8028	0	37192	
8029	0	37168	
8030	0	37156	
8031	0	37192	
8032	0	37348	
8033	0	37570	
8034	0	37572	
8035	0	37468	
8036	0	37408	
8037	0	37528	
8038	0	37736	
8039	0	37980	
8040	0	38304	
8041	0	38432	
8042	0	38344	
8043	0	38212	
8044	0	38324	
8045	0	38560	
8046	0	38708	
8047	0	38976	
8048	0	39236	
8049	0	39276	
8050	0	39188	
8051	0	39024	
8052	0	38956	
8053	0	39052	
8054	0	39044	
8055	0	39092	
8056	0	39018	
8057	0	38776	
8058	0	38696	
8059	0	38876	
8060	0	39076	
8061	0	39280	
8062	0	39312	
8063	0	39288	
8064	0	39388	
8065	0	39440	
8066	0	39600	
8067	0	39760	
8068	0	39700	
8069	0	39488	
8070	0	39388	
8071	0	39524	
8072	0	39744	
8073	0	40024	
8074	0	40048	
8075	0	39860	
8076	0	39676	
8077	0	39624	
8078	0	39420	
8079	0	39260	
8080	0	39080	
8081	0	39004	
8082	0	38916	
8083	0	38816	
8084	0	38764	
8085	0	38628	
8086	0	38592	
8087	0	38672	
8088	0	38776	
8089	0	38876	
8090	0	38884	
8091	0	38792	
8092	0	38664	
8093	0	38644	
8094	0	38464	
8095	0	38072	
8096	0	37672	
8097	0	37584	
8098	0	37536	
8099	0	37380	
8100	0	37322	
8101	0	37320	
8102	0	37416	
8103	0	37360	
8104	0	37216	
8105	0	37060	
8106	0	36908	
8107	0	36576	
8108	0	36228	
8109	0	35660	
8110	0	35066	
8111	0	34796	
8112	0	34684	
8113	0	34420	
8114	0	34106	
8115	0	33860	
8116	0	33762	
8117	0	33856	
8118	0	33916	
8119	0	33688	
8120	0	33280	
8121	0	33028	
8122	0	32674	
8123	0	32328	
8124	0	32056	
8125	0	31900	
8126	0	31728	
8127	0	31476	
8128	0	31256	
8129	0	31304	
8130	0	31336	
8131	0	31312	
8132	0	31180	
8133	0	30920	
8134	0	30784	
8135	0	30592	
8136	0	30188	
8137	0	29792	
8138	0	29538	
8139	0	29420	
8140	0	29312	
8141	0	29086	
8142	0	28840	
8143	0	28588	
8144	0	28376	
8145	0	28286	
8146	0	28428	
8147	0	28688	
8148	0	28864	
8149	0	28835	
8150	0	28568	
8151	0	28186	
8152	0	27892	
8153	0	27828	
8154	0	27864	
8155	0	27898	
8156	0	28008	
8157	0	27932	
8158	0	27624	
8159	0	27296	
8160	0	27092	
8161	0	27176	
8162	0	27440	
8163	0	27688	
8164	0	27648	
8165	0	27560	
8166	0	27664	
8167	0	27720	
8168	0	27684	
8169	0	27668	
8170	0	27792	
8171	0	28064	
8172	0	28256	
8173	0	28380	
8174	0	28364	
8175	0	28180	
8176	0	27876	
8177	0	27546	
8178	0	27426	
8179	0	27464	
8180	0	27456	
8181	0	27508	
8182	0	27528	
8183	0	27592	
8184	0	27644	
8185	0	27776	
8186	0	27978	
8187	0	28036	
8188	0	28008	
8189	0	27924	
8190	0	27980	
8191	0	28084	
8192	0	28212	
8193	0	28356	
8194	0	28484	
8195	0	28468	
8196	0	28470	
8197	0	28532	
8198	0	28544	
8199	0	28700	
8200	0	28920	
8201	0	28832	
8202	0	28728	
8203	0	28732	
8204	0	28772	
8205	0	28732	
8206	0	28540	
8207	0	28548	
8208	0	28796	
8209	0	28924	
8210	0	28928	
8211	0	28968	
8212	0	29038	
8213	0	29152	
8214	0	29332	
8215	0	29344	
8216	0	29440	
8217	0	29604	
8218	0	29764	
8219	0	29896	
8220	0	29860	
8221	0	29918	
8222	0	29896	
8223	0	29864	
8224	0	29994	
8225	0	30184	
8226	0	30158	
8227	0	30052	
8228	0	30060	
8229	0	30172	
8230	0	30340	
8231	0	30380	
8232	0	30216	
8233	0	30072	
8234	0	29920	
8235	0	29720	
8236	0	29776	
8237	0	30056	
8238	0	30080	
8239	0	30062	
8240	0	30136	
8241	0	30316	
8242	0	30258	
8243	0	30012	
8244	0	29904	
8245	0	30036	
8246	0	30216	
8247	0	30356	
8248	0	30412	
8249	0	30444	
8250	0	30552	
8251	0	30736	
8252	0	30904	
8253	0	30920	
8254	0	30864	
8255	0	30684	
8256	0	30496	
8257	0	30524	
8258	0	30692	
8259	0	30768	
8260	0	30760	
8261	0	30648	
8262	0	30648	
8263	0	30664	
8264	0	30712	
8265	0	30852	
8266	0	30964	
8267	0	31048	
8268	0	31212	
8269	0	31276	
8270	0	31340	
8271	0	31388	
8272	0	31292	
8273	0	31060	
8274	0	30892	
8275	0	30688	
8276	0	30576	
8277	0	30712	
8278	0	30968	
8279	0	31048	
8280	0	31172	
8281	0	31248	
8282	0	31080	
8283	0	31096	
8284	0	31100	
8285	0	31076	
8286	0	31156	
8287	0	31200	
8288	0	31456	
8289	0	31568	
8290	0	31520	
8291	0	31464	
8292	0	31394	
8293	0	31444	
8294	0	31442	
8295	0	31424	
8296	0	31384	
8297	0	31128	
8298	0	30848	
8299	0	30708	
8300	0	30760	
8301	0	30880	
8302	0	30936	
8303	0	30976	
8304	0	31068	
8305	0	31120	
8306	0	31060	
8307	0	31014	
8308	0	31064	
8309	0	31152	
8310	0	31196	
8311	0	31180	
8312	0	31048	
8313	0	31092	
8314	0	31232	
8315	0	31232	
8316	0	31144	
8317	0	31076	
8318	0	30992	
8319	0	30816	
8320	0	30684	
8321	0	30568	
8322	0	30576	
8323	0	30600	
8324	0	30556	
8325	0	30676	
8326	0	30912	
8327	0	31140	
8328	0	31184	
8329	0	31132	
8330	0	31168	
8331	0	31142	
8332	0	31140	
8333	0	31136	
8334	0	31008	
8335	0	30960	
8336	0	31144	
8337	0	31316	
8338	0	31392	
8339	0	31428	
8340	0	31388	
8341	0	31266	
8342	0	31088	
8343	0	30972	
8344	0	31020	
8345	0	31020	
8346	0	31060	
8347	0	31116	
8348	0	31280	
8349	0	31324	
8350	0	31160	
8351	0	31276	
8352	0	31260	
8353	0	31248	
8354	0	31264	
8355	0	31180	
8356	0	31024	
8357	0	30900	
8358	0	30824	
8359	0	30864	
8360	0	30992	
8361	0	31176	
8362	0	31464	
8363	0	31560	
8364	0	31480	
8365	0	31482	
8366	0	31476	
8367	0	31496	
8368	0	31348	
8369	0	31162	
8370	0	31030	
8371	0	30992	
8372	0	31096	
8373	0	31252	
8374	0	31368	
8375	0	31544	
8376	0	31656	
8377	0	31592	
8378	0	31540	
8379	0	31556	
8380	0	31568	
8381	0	31552	
8382	0	31588	
8383	0	31588	
8384	0	31628	
8385	0	31600	
8386	0	31516	
8387	0	31344	
8388	0	31300	
8389	0	31346	
8390	0	31344	
8391	0	31364	
8392	0	31416	
8393	0	31540	
8394	0	31480	
8395	0	31384	
8396	0	31252	
8397	0	31228	
8398	0	31256	
8399	0	31336	
8400	0	31412	
8401	0	31404	
8402	0	31328	
8403	0	31368	
8404	0	31364	
8405	0	31370	
8406	0	31344	
8407	0	31460	
8408	0	31576	
8409	0	31644	
8410	0	31744	
8411	0	31688	
8412	0	31548	
8413	0	31532	
8414	0	31584	
8415	0	31640	
8416	0	31656	
8417	0	31662	
8418	0	31712	
8419	0	31712	
8420	0	31640	
8421	0	31580	
8422	0	31528	
8423	0	31512	
8424	0	31460	
8425	0	31398	
8426	0	31456	
8427	0	31618	
8428	0	31668	
8429	0	31764	
8430	0	31936	
8431	0	32040	
8432	0	32072	
8433	0	32020	
8434	0	31888	
8435	0	31704	
8436	0	31736	
8437	0	31860	
8438	0	31832	
8439	0	31708	
8440	0	31632	
8441	0	31544	
8442	0	31544	
8443	0	31612	
8444	0	31700	
8445	0	31752	
8446	0	31764	
8447	0	31808	
8448	0	31880	
8449	0	31868	
8450	0	31784	
8451	0	31680	
8452	0	31608	
8453	0	31508	
8454	0	31458	
8455	0	31396	
8456	0	31376	
8457	0	31300	
8458	0	31080	
8459	0	30954	
8460	0	30952	
8461	0	30996	
8462	0	30952	
8463	0	30908	
8464	0	30860	
8465	0	30852	
8466	0	30872	
8467	0	30892	
8468	0	30956	
8469	0	31076	
8470	0	31140	
8471	0	31184	
8472	0	31264	
8473	0	31348	
8474	0	31512	
8475	0	31717	
8476	0	31888	
8477	0	32072	
8478	0	32212	
8479	0	32336	
8480	0	32408	
8481	0	32442	
8482	0	32480	
8483	0	32632	
8484	0	32696	
8485	0	32596	
8486	0	32556	
8487	0	32414	
8488	0	32284	
8489	0	32236	
8490	0	32284	
8491	0	32196	
8492	0	32196	
8493	0	32408	
8494	0	32564	
8495	0	32704	
8496	0	32800	
8497	0	32800	
8498	0	32774	
8499	0	32820	
8500	0	32928	
8501	0	33068	
8502	0	33220	
8503	0	33276	
8504	0	33268	
8505	0	33240	
8506	0	33160	
8507	0	33152	
8508	0	33160	
8509	0	33212	
8510	0	33248	
8511	0	33216	
8512	0	33144	
8513	0	33152	
8514	0	33168	
8515	0	33120	
8516	0	33092	
8517	0	33036	
8518	0	32804	
8519	0	32506	
8520	0	32236	
8521	0	32016	
8522	0	31780	
8523	0	31628	
8524	0	31644	
8525	0	31784	
8526	0	31936	
8527	0	32056	
8528	0	32100	
8529	0	32124	
8530	0	32100	
8531	0	32096	
8532	0	32068	
8533	0	32176	
8534	0	32336	
8535	0	32440	
8536	0	32452	
8537	0	32344	
8538	0	32292	
8539	0	32346	
8540	0	32256	
8541	0	32200	
8542	0	32268	
8543	0	32292	
8544	0	32280	
8545	0	32312	
8546	0	32380	
8547	0	32440	
8548	0	32472	
8549	0	32552	
8550	0	32608	
8551	0	32696	
8552	0	32852	
8553	0	32892	
8554	0	32834	
8555	0	32900	
8556	0	32998	
8557	0	32912	
8558	0	32804	
8559	0	32820	
8560	0	32820	
8561	0	32800	
8562	0	32804	
8563	0	32768	
8564	0	32740	
8565	0	32712	
8566	0	32536	
8567	0	32224	
8568	0	31844	
8569	0	31474	
8570	0	31040	
8571	0	30474	
8572	0	29850	
8573	0	29328	
8574	0	29088	
8575	0	28992	
8576	0	29136	
8577	0	29384	
8578	0	29836	
8579	0	30576	
8580	0	31352	
8581	0	32168	
8582	0	33100	
8583	0	34216	
8584	0	35412	
8585	0	36748	
8586	0	38388	
8587	0	40444	
8588	0	42704	
8589	0	45012	
8590	0	47488	
8591	0	50152	
