# OpenSignals Text File Format. Version 1
# {"00:07:80:4B:15:F7": {"position": 0, "device": "biosignalsplux", "device name": "00:07:80:4B:15:F7", "device connection": "BTH00:07:80:4B:15:F7", "sampling rate": 1000, "resolution": [16], "firmware version": 775, "comments": "", "keywords": "", "mode": 0, "sync interval": 2, "date": "2023-4-27", "time": "17:39:35.621", "channels": [1], "sensor": ["ECG"], "label": ["CH1"], "column": ["nSeq", "DI", "CH1"], "special": [{"SpO2": [80, 40, 5, 4, 3, 3]}, {"SpO2": [80, 40, 5, 4, 3, 3]}, {"SpO2": [80, 40, 5, 4, 3, 3]}, {"SpO2": [80, 40, 5, 4, 3, 3]}, {"SpO2": [80, 40, 5, 4, 3, 3]}, {"SpO2": [80, 40, 5, 4, 3, 3]}, {"SpO2": [80, 40, 5, 4, 3, 3]}, {"SpO2": [80, 40, 5, 4, 3, 3]}], "digital IO": [0, 1], "sleeve color": ["green"], "convertedValues": 0}}
# EndOfHeader
0	0	32926	
1	0	32904	
2	0	32912	
3	0	32858	
4	0	32720	
5	0	32556	
6	0	32504	
7	0	32544	
8	0	32608	
9	0	32656	
10	0	32772	
11	0	32888	
12	0	32892	
13	0	32860	
14	0	32824	
15	0	32804	
16	0	32794	
17	0	32812	
18	0	32868	
19	0	32952	
20	0	32992	
21	0	32984	
22	0	32944	
23	0	32864	
24	0	32800	
25	0	32736	
26	0	32680	
27	0	32608	
28	0	32592	
29	0	32632	
30	0	32680	
31	0	32780	
32	0	32832	
33	0	32780	
34	0	32656	
35	0	32524	
36	0	32268	
37	0	32012	
38	0	31920	
39	0	31990	
40	0	32172	
41	0	32348	
42	0	32458	
43	0	32576	
44	0	32684	
45	0	32768	
46	0	32908	
47	0	33012	
48	0	33064	
49	0	33016	
50	0	32892	
51	0	32708	
52	0	32428	
53	0	32150	
54	0	32104	
55	0	32188	
56	0	32236	
57	0	32224	
58	0	32180	
59	0	32352	
60	0	32652	
61	0	32856	
62	0	33000	
63	0	32944	
64	0	32892	
65	0	32926	
66	0	33052	
67	0	33092	
68	0	33084	
69	0	33204	
70	0	33284	
71	0	33296	
72	0	33284	
73	0	33265	
74	0	33124	
75	0	32840	
76	0	32744	
77	0	32664	
78	0	32576	
79	0	32628	
80	0	32792	
81	0	33208	
82	0	33532	
83	0	33624	
84	0	33630	
85	0	33624	
86	0	33564	
87	0	33468	
88	0	33420	
89	0	33408	
90	0	33456	
91	0	33522	
92	0	33516	
93	0	33484	
94	0	33500	
95	0	33472	
96	0	33396	
97	0	33380	
98	0	33404	
99	0	33456	
100	0	33540	
101	0	33664	
102	0	33772	
103	0	33848	
104	0	33920	
105	0	33952	
106	0	33984	
107	0	34008	
108	0	34048	
109	0	34040	
110	0	33976	
111	0	33876	
112	0	33736	
113	0	33560	
114	0	33456	
115	0	33468	
116	0	33524	
117	0	33612	
118	0	33642	
119	0	33576	
120	0	33524	
121	0	33548	
122	0	33580	
123	0	33628	
124	0	33656	
125	0	33740	
126	0	33840	
127	0	33936	
128	0	33984	
129	0	34040	
130	0	34112	
131	0	34136	
132	0	34142	
133	0	34004	
134	0	33856	
135	0	33684	
136	0	33580	
137	0	33576	
138	0	33664	
139	0	33760	
140	0	33838	
141	0	33876	
142	0	33920	
143	0	33976	
144	0	33978	
145	0	33888	
146	0	33712	
147	0	33604	
148	0	33596	
149	0	33624	
150	0	33616	
151	0	33648	
152	0	33696	
153	0	33768	
154	0	33888	
155	0	34008	
156	0	34040	
157	0	33788	
158	0	33640	
159	0	33516	
160	0	33336	
161	0	33188	
162	0	32912	
163	0	32736	
164	0	32686	
165	0	32684	
166	0	32780	
167	0	32796	
168	0	32828	
169	0	32980	
170	0	33132	
171	0	33236	
172	0	33288	
173	0	33494	
174	0	33708	
175	0	33780	
176	0	33728	
177	0	33572	
178	0	33356	
179	0	33084	
180	0	32876	
181	0	32788	
182	0	32748	
183	0	32720	
184	0	32708	
185	0	32786	
186	0	32820	
187	0	32840	
188	0	32832	
189	0	32672	
190	0	32532	
191	0	32452	
192	0	32424	
193	0	32524	
194	0	32720	
195	0	32956	
196	0	33180	
197	0	33352	
198	0	33464	
199	0	33456	
200	0	33304	
201	0	33128	
202	0	33008	
203	0	33048	
204	0	33148	
205	0	33156	
206	0	33128	
207	0	33040	
208	0	32836	
209	0	32612	
210	0	32508	
211	0	32424	
212	0	32290	
213	0	32140	
214	0	32008	
215	0	31852	
216	0	31722	
217	0	31692	
218	0	31776	
219	0	31892	
220	0	32056	
221	0	32224	
222	0	32420	
223	0	32600	
224	0	32788	
225	0	32888	
226	0	32816	
227	0	32724	
228	0	32808	
229	0	32984	
230	0	33160	
231	0	33392	
232	0	33620	
233	0	33720	
234	0	33604	
235	0	33364	
236	0	33256	
237	0	33270	
238	0	33338	
239	0	33464	
240	0	33666	
241	0	33732	
242	0	33864	
243	0	34016	
244	0	34040	
245	0	33848	
246	0	33542	
247	0	33348	
248	0	33308	
249	0	33306	
250	0	33412	
251	0	33496	
252	0	33524	
253	0	33492	
254	0	33384	
255	0	33228	
256	0	33236	
257	0	33448	
258	0	33860	
259	0	34352	
260	0	34816	
261	0	35276	
262	0	35658	
263	0	35912	
264	0	36028	
265	0	36152	
266	0	36256	
267	0	36288	
268	0	36292	
269	0	36296	
270	0	36268	
271	0	36236	
272	0	36282	
273	0	36298	
274	0	36272	
275	0	36300	
276	0	36376	
277	0	36424	
278	0	36356	
279	0	36206	
280	0	36032	
281	0	35864	
282	0	35880	
283	0	36062	
284	0	36192	
285	0	36300	
286	0	36400	
287	0	36416	
288	0	36340	
289	0	36110	
290	0	35704	
291	0	35396	
292	0	35208	
293	0	35000	
294	0	34720	
295	0	34408	
296	0	34148	
297	0	33924	
298	0	33662	
299	0	33264	
300	0	32712	
301	0	32144	
302	0	31616	
303	0	31192	
304	0	30972	
305	0	30896	
306	0	30900	
307	0	30996	
308	0	31160	
309	0	31306	
310	0	31420	
311	0	31404	
312	0	31292	
313	0	31192	
314	0	31208	
315	0	31360	
316	0	31520	
317	0	31548	
318	0	31322	
319	0	31036	
320	0	30700	
321	0	30420	
322	0	30308	
323	0	30312	
324	0	30332	
325	0	30308	
326	0	30196	
327	0	30028	
328	0	29928	
329	0	29912	
330	0	29798	
331	0	29610	
332	0	29640	
333	0	29761	
334	0	29960	
335	0	30284	
336	0	30608	
337	0	30860	
338	0	31012	
339	0	31080	
340	0	31152	
341	0	31218	
342	0	31250	
343	0	31112	
344	0	30784	
345	0	30496	
346	0	30412	
347	0	30568	
348	0	30720	
349	0	30700	
350	0	30448	
351	0	30196	
352	0	30008	
353	0	29916	
354	0	29872	
355	0	29764	
356	0	29452	
357	0	28856	
358	0	28020	
359	0	27048	
360	0	26076	
361	0	25148	
362	0	24292	
363	0	23612	
364	0	23144	
365	0	22816	
366	0	22560	
367	0	22572	
368	0	22832	
369	0	23232	
370	0	23752	
371	0	24508	
372	0	25568	
373	0	27116	
374	0	29218	
375	0	31664	
376	0	34268	
377	0	37108	
378	0	40060	
379	0	43408	
380	0	47184	
381	0	51324	
382	0	55700	
383	0	59716	
384	0	62384	
385	0	63836	
386	0	64576	
387	0	64888	
388	0	65024	
389	0	65028	
390	0	64960	
391	0	64880	
392	0	64788	
393	0	64656	
394	0	61816	
395	0	55448	
396	0	50464	
397	0	46136	
398	0	41936	
399	0	38112	
400	0	35164	
401	0	32868	
402	0	30808	
403	0	28824	
404	0	26840	
405	0	24964	
406	0	23380	
407	0	22048	
408	0	20886	
409	0	20008	
410	0	19496	
411	0	19036	
412	0	18464	
413	0	17938	
414	0	17724	
415	0	17888	
416	0	18340	
417	0	18806	
418	0	19240	
419	0	19724	
420	0	20202	
421	0	20508	
422	0	20820	
423	0	21218	
424	0	21672	
425	0	22129	
426	0	22536	
427	0	22716	
428	0	22912	
429	0	23352	
430	0	24088	
431	0	25012	
432	0	25952	
433	0	26822	
434	0	27546	
435	0	28088	
436	0	28396	
437	0	28432	
438	0	28420	
439	0	28504	
440	0	28680	
441	0	28888	
442	0	29096	
443	0	29338	
444	0	29588	
445	0	29774	
446	0	29916	
447	0	30032	
448	0	30164	
449	0	30312	
450	0	30460	
451	0	30604	
452	0	30716	
453	0	30680	
454	0	30468	
455	0	30264	
456	0	30116	
457	0	29992	
458	0	30016	
459	0	30300	
460	0	30672	
461	0	30912	
462	0	31068	
463	0	31136	
464	0	31164	
465	0	31152	
466	0	31188	
467	0	31176	
468	0	31198	
469	0	31288	
470	0	31320	
471	0	31140	
472	0	30996	
473	0	30992	
474	0	31128	
475	0	31328	
476	0	31472	
477	0	31592	
478	0	31596	
479	0	31432	
480	0	31396	
481	0	31544	
482	0	31744	
483	0	31964	
484	0	32200	
485	0	32352	
486	0	32420	
487	0	32476	
488	0	32360	
489	0	31920	
490	0	31528	
491	0	31384	
492	0	31352	
493	0	31448	
494	0	31580	
495	0	31716	
496	0	31828	
497	0	31928	
498	0	32032	
499	0	32112	
500	0	32266	
501	0	32436	
502	0	32560	
503	0	32624	
504	0	32568	
505	0	32220	
506	0	31678	
507	0	31300	
508	0	31226	
509	0	31352	
510	0	31592	
511	0	31920	
512	0	32248	
513	0	32504	
514	0	32564	
515	0	32698	
516	0	32736	
517	0	32692	
518	0	32688	
519	0	32676	
520	0	32628	
521	0	32524	
522	0	32248	
523	0	32022	
524	0	32040	
525	0	32196	
526	0	32308	
527	0	32388	
528	0	32408	
529	0	32456	
530	0	32488	
531	0	32512	
532	0	32524	
533	0	32496	
534	0	32422	
535	0	32420	
536	0	32520	
537	0	32560	
538	0	32464	
539	0	32288	
540	0	32186	
541	0	32384	
542	0	32696	
543	0	32802	
544	0	32760	
545	0	32652	
546	0	32596	
547	0	32584	
548	0	32560	
549	0	32624	
550	0	32704	
551	0	32692	
552	0	32584	
553	0	32392	
554	0	32248	
555	0	32304	
556	0	32424	
557	0	32532	
558	0	32648	
559	0	32800	
560	0	33004	
561	0	33236	
562	0	33316	
563	0	33300	
564	0	33192	
565	0	33056	
566	0	32908	
567	0	32824	
568	0	32668	
569	0	32496	
570	0	32316	
571	0	32132	
572	0	32104	
573	0	32312	
574	0	32540	
575	0	32708	
576	0	32768	
577	0	32804	
578	0	32836	
579	0	32916	
580	0	33052	
581	0	33212	
582	0	33380	
583	0	33408	
584	0	33256	
585	0	33012	
586	0	32792	
587	0	32650	
588	0	32448	
589	0	32132	
590	0	31728	
591	0	31200	
592	0	30882	
593	0	30832	
594	0	30956	
595	0	31092	
596	0	31076	
597	0	30984	
598	0	31024	
599	0	31104	
600	0	31184	
601	0	31296	
602	0	31424	
603	0	31508	
604	0	31574	
605	0	31684	
606	0	31840	
607	0	32012	
608	0	32152	
609	0	32240	
610	0	32388	
611	0	32652	
612	0	32988	
613	0	33300	
614	0	33532	
615	0	33572	
616	0	33362	
617	0	32948	
618	0	32564	
619	0	32314	
620	0	32136	
621	0	32076	
622	0	32152	
623	0	32324	
624	0	32522	
625	0	32644	
626	0	32744	
627	0	32868	
628	0	32996	
629	0	33184	
630	0	33376	
631	0	33524	
632	0	33600	
633	0	33656	
634	0	33740	
635	0	33804	
636	0	33824	
637	0	33752	
638	0	33620	
639	0	33428	
640	0	33212	
641	0	33044	
642	0	32984	
643	0	32988	
644	0	33076	
645	0	33112	
646	0	33080	
647	0	33132	
648	0	33136	
649	0	33018	
650	0	32920	
651	0	32822	
652	0	32720	
653	0	32848	
654	0	33008	
655	0	33140	
656	0	33272	
657	0	33360	
658	0	33358	
659	0	33256	
660	0	33024	
661	0	32832	
662	0	32680	
663	0	32642	
664	0	32728	
665	0	32772	
666	0	32672	
667	0	32432	
668	0	32180	
669	0	31984	
670	0	31916	
671	0	31976	
672	0	32072	
673	0	32226	
674	0	32384	
675	0	32488	
676	0	32612	
677	0	32680	
678	0	32692	
679	0	32708	
680	0	32752	
681	0	32736	
682	0	32532	
683	0	32056	
684	0	31612	
685	0	31444	
686	0	31528	
687	0	31708	
688	0	31920	
689	0	32024	
690	0	32024	
691	0	31972	
692	0	31876	
693	0	31708	
694	0	31560	
695	0	31584	
696	0	31744	
697	0	31876	
698	0	31868	
699	0	31956	
700	0	32208	
701	0	32420	
702	0	32388	
703	0	32136	
704	0	31952	
705	0	31840	
706	0	31712	
707	0	31672	
708	0	31584	
709	0	31432	
710	0	31312	
711	0	31320	
712	0	31480	
713	0	31644	
714	0	31760	
715	0	31802	
716	0	31872	
717	0	32000	
718	0	32098	
719	0	32136	
720	0	32122	
721	0	32156	
722	0	32268	
723	0	32420	
724	0	32592	
725	0	32700	
726	0	32732	
727	0	32716	
728	0	32736	
729	0	32892	
730	0	33164	
731	0	33184	
732	0	32852	
733	0	32344	
734	0	31840	
735	0	31656	
736	0	31728	
737	0	31888	
738	0	32052	
739	0	32204	
740	0	32264	
741	0	32352	
742	0	32500	
743	0	32612	
744	0	32592	
745	0	32392	
746	0	32064	
747	0	31672	
748	0	31536	
749	0	31656	
750	0	31988	
751	0	32320	
752	0	32520	
753	0	32672	
754	0	32800	
755	0	32896	
756	0	32960	
757	0	33020	
758	0	33068	
759	0	33072	
760	0	33160	
761	0	33280	
762	0	33356	
763	0	33392	
764	0	33380	
765	0	33252	
766	0	33100	
767	0	33048	
768	0	33184	
769	0	33376	
770	0	33528	
771	0	33604	
772	0	33580	
773	0	33530	
774	0	33454	
775	0	33428	
776	0	33416	
777	0	33440	
778	0	33504	
779	0	33528	
780	0	33592	
781	0	33808	
782	0	33876	
783	0	33756	
784	0	33672	
785	0	33728	
786	0	33764	
787	0	33728	
788	0	33596	
789	0	33374	
790	0	33328	
791	0	33404	
792	0	33378	
793	0	33172	
794	0	33020	
795	0	32936	
796	0	32848	
797	0	32828	
798	0	32852	
799	0	32840	
800	0	32748	
801	0	32674	
802	0	32776	
803	0	32892	
804	0	32968	
805	0	32932	
806	0	32956	
807	0	33132	
808	0	33424	
809	0	33700	
810	0	33972	
811	0	34200	
812	0	34320	
813	0	34372	
814	0	34500	
815	0	34584	
816	0	34424	
817	0	34048	
818	0	33520	
819	0	32988	
820	0	32548	
821	0	32064	
822	0	31812	
823	0	31792	
824	0	31852	
825	0	31940	
826	0	32024	
827	0	32116	
828	0	32194	
829	0	32292	
830	0	32532	
831	0	32848	
832	0	33104	
833	0	33320	
834	0	33476	
835	0	33544	
836	0	33656	
837	0	33852	
838	0	34080	
839	0	34360	
840	0	34596	
841	0	34752	
842	0	34822	
843	0	34812	
844	0	34692	
845	0	34464	
846	0	34224	
847	0	34076	
848	0	34008	
849	0	33984	
850	0	33944	
851	0	33852	
852	0	33644	
853	0	33452	
854	0	33312	
855	0	33280	
856	0	33496	
857	0	33864	
858	0	34264	
859	0	34684	
860	0	35160	
861	0	35634	
862	0	36036	
863	0	36396	
864	0	36728	
865	0	36960	
866	0	36992	
867	0	37048	
868	0	37128	
869	0	37012	
870	0	36728	
871	0	36352	
872	0	36056	
873	0	35804	
874	0	35440	
875	0	35364	
876	0	35388	
877	0	35416	
878	0	35468	
879	0	35546	
880	0	35552	
881	0	35568	
882	0	35516	
883	0	35340	
884	0	35264	
885	0	35276	
886	0	35276	
887	0	35232	
888	0	35192	
889	0	35256	
890	0	35340	
891	0	35344	
892	0	35184	
893	0	34818	
894	0	34464	
895	0	34116	
896	0	33720	
897	0	33324	
898	0	32926	
899	0	32496	
900	0	32052	
901	0	31568	
902	0	31112	
903	0	30828	
904	0	30724	
905	0	30712	
906	0	30738	
907	0	30776	
908	0	30904	
909	0	31004	
910	0	30960	
911	0	30852	
912	0	30656	
913	0	30434	
914	0	30256	
915	0	30178	
916	0	30224	
917	0	30264	
918	0	30296	
919	0	30200	
920	0	30052	
921	0	29988	
922	0	30004	
923	0	30112	
924	0	30266	
925	0	30304	
926	0	30292	
927	0	30272	
928	0	30304	
929	0	30389	
930	0	30378	
931	0	30304	
932	0	30266	
933	0	30316	
934	0	30448	
935	0	30540	
936	0	30536	
937	0	30428	
938	0	30444	
939	0	30624	
940	0	30760	
941	0	30760	
942	0	30596	
943	0	30376	
944	0	30160	
945	0	30192	
946	0	30344	
947	0	30508	
948	0	30624	
949	0	30696	
950	0	30688	
951	0	30684	
952	0	30660	
953	0	30462	
954	0	30056	
955	0	29418	
956	0	28632	
957	0	27704	
958	0	26618	
959	0	25584	
960	0	24552	
961	0	23556	
962	0	22686	
963	0	21960	
964	0	21288	
965	0	20964	
966	0	21140	
967	0	21624	
968	0	22188	
969	0	22872	
970	0	24024	
971	0	25572	
972	0	27440	
973	0	29656	
974	0	32068	
975	0	34444	
976	0	37128	
977	0	40244	
978	0	43620	
979	0	47112	
980	0	50920	
981	0	55048	
982	0	59048	
983	0	62268	
984	0	64100	
985	0	65064	
986	0	65532	
987	0	65535	
988	0	65535	
989	0	65535	
990	0	65535	
991	0	65535	
992	0	65394	
993	0	58200	
994	0	52204	
995	0	47204	
996	0	42920	
997	0	38784	
998	0	35232	
999	0	32304	
1000	0	29952	
1001	0	27882	
1002	0	25936	
1003	0	23896	
1004	0	22208	
1005	0	20688	
1006	0	19452	
1007	0	18340	
1008	0	17636	
1009	0	17344	
1010	0	17136	
1011	0	16805	
1012	0	16268	
1013	0	16072	
1014	0	16534	
1015	0	17468	
1016	0	18164	
1017	0	18546	
1018	0	19020	
1019	0	19685	
1020	0	20544	
1021	0	21308	
1022	0	21968	
1023	0	22776	
1024	0	23536	
1025	0	24064	
1026	0	24698	
1027	0	25220	
1028	0	25672	
1029	0	26074	
1030	0	26440	
1031	0	26850	
1032	0	27282	
1033	0	27856	
1034	0	28200	
1035	0	28312	
1036	0	28692	
1037	0	28993	
1038	0	29172	
1039	0	29322	
1040	0	29508	
1041	0	29736	
1042	0	29944	
1043	0	30020	
1044	0	30020	
1045	0	30056	
1046	0	30184	
1047	0	30216	
1048	0	30360	
1049	0	30468	
1050	0	30488	
1051	0	30548	
1052	0	30656	
1053	0	30616	
1054	0	30520	
1055	0	30606	
1056	0	30720	
1057	0	30880	
1058	0	31096	
1059	0	31232	
1060	0	31456	
1061	0	31644	
1062	0	31722	
1063	0	31724	
1064	0	31680	
1065	0	31634	
1066	0	31632	
1067	0	31724	
1068	0	31840	
1069	0	31904	
1070	0	31822	
1071	0	31528	
1072	0	31232	
1073	0	31216	
1074	0	31452	
1075	0	31796	
1076	0	32000	
1077	0	32052	
1078	0	31980	
1079	0	31980	
1080	0	31986	
1081	0	31904	
1082	0	31780	
1083	0	31720	
1084	0	31740	
1085	0	31932	
1086	0	32264	
1087	0	32496	
1088	0	32656	
1089	0	32756	
1090	0	32872	
1091	0	32868	
1092	0	32698	
1093	0	32556	
1094	0	32556	
1095	0	32692	
1096	0	32776	
1097	0	32768	
1098	0	32656	
1099	0	32580	
1100	0	32528	
1101	0	32556	
1102	0	32568	
1103	0	32542	
1104	0	32594	
1105	0	32728	
1106	0	32844	
1107	0	32932	
1108	0	32976	
1109	0	33020	
1110	0	32992	
1111	0	32912	
1112	0	32916	
1113	0	33020	
1114	0	33214	
1115	0	33368	
1116	0	33468	
1117	0	33592	
1118	0	33672	
1119	0	33752	
1120	0	33792	
1121	0	33728	
1122	0	33648	
1123	0	33620	
1124	0	33588	
1125	0	33536	
1126	0	33464	
1127	0	33332	
1128	0	33228	
1129	0	33196	
1130	0	33252	
1131	0	33304	
1132	0	33408	
1133	0	33660	
1134	0	33884	
1135	0	34008	
1136	0	34104	
1137	0	34224	
1138	0	34368	
1139	0	34458	
1140	0	34360	
1141	0	34168	
1142	0	33856	
1143	0	33408	
1144	0	32992	
1145	0	32740	
1146	0	32572	
1147	0	32500	
1148	0	32460	
1149	0	32540	
1150	0	32720	
1151	0	32768	
1152	0	32808	
1153	0	32896	
1154	0	32968	
1155	0	32952	
1156	0	32808	
1157	0	32832	
1158	0	33040	
1159	0	33248	
1160	0	33112	
1161	0	32896	
1162	0	32772	
1163	0	32616	
1164	0	32616	
1165	0	32772	
1166	0	32924	
1167	0	33016	
1168	0	32980	
1169	0	32832	
1170	0	32740	
1171	0	32660	
1172	0	32632	
1173	0	32688	
1174	0	32704	
1175	0	32672	
1176	0	32684	
1177	0	32584	
1178	0	32428	
1179	0	32416	
1180	0	32540	
1181	0	32592	
1182	0	32560	
1183	0	32492	
1184	0	32410	
1185	0	32324	
1186	0	32272	
1187	0	32364	
1188	0	32572	
1189	0	32768	
1190	0	32888	
1191	0	32876	
1192	0	32816	
1193	0	32656	
1194	0	32336	
1195	0	31932	
1196	0	31584	
1197	0	31452	
1198	0	31520	
1199	0	31672	
1200	0	31892	
1201	0	32072	
1202	0	32244	
1203	0	32444	
1204	0	32632	
1205	0	32756	
1206	0	32852	
1207	0	32896	
1208	0	32878	
1209	0	32940	
1210	0	33096	
1211	0	33272	
1212	0	33336	
1213	0	33268	
1214	0	33148	
1215	0	32896	
1216	0	32512	
1217	0	32352	
1218	0	32412	
1219	0	32564	
1220	0	32752	
1221	0	32744	
1222	0	32604	
1223	0	32516	
1224	0	32510	
1225	0	32564	
1226	0	32672	
1227	0	32820	
1228	0	32976	
1229	0	33096	
1230	0	33136	
1231	0	33172	
1232	0	33212	
1233	0	33296	
1234	0	33400	
1235	0	33488	
1236	0	33514	
1237	0	33568	
1238	0	33664	
1239	0	33680	
1240	0	33604	
1241	0	33612	
1242	0	33688	
1243	0	33652	
1244	0	33336	
1245	0	32928	
1246	0	32714	
1247	0	32696	
1248	0	32724	
1249	0	32776	
1250	0	32816	
1251	0	32824	
1252	0	32784	
1253	0	32736	
1254	0	32576	
1255	0	32344	
1256	0	32088	
1257	0	31980	
1258	0	32112	
1259	0	32374	
1260	0	32644	
1261	0	32832	
1262	0	32952	
1263	0	33006	
1264	0	32968	
1265	0	32916	
1266	0	32944	
1267	0	33032	
1268	0	33160	
1269	0	33262	
1270	0	33226	
1271	0	32992	
1272	0	32824	
1273	0	32784	
1274	0	32796	
1275	0	32780	
1276	0	32792	
1277	0	32832	
1278	0	32872	
1279	0	32796	
1280	0	32584	
1281	0	32292	
1282	0	32000	
1283	0	31908	
1284	0	32004	
1285	0	32152	
1286	0	32388	
1287	0	32522	
1288	0	32648	
1289	0	32628	
1290	0	32434	
1291	0	32412	
1292	0	32444	
1293	0	32512	
1294	0	32484	
1295	0	32420	
1296	0	32468	
1297	0	32576	
1298	0	32592	
1299	0	32656	
1300	0	32780	
1301	0	32846	
1302	0	32808	
1303	0	32740	
1304	0	32712	
1305	0	32688	
1306	0	32684	
1307	0	32628	
1308	0	32552	
1309	0	32584	
1310	0	32592	
1311	0	32616	
1312	0	32696	
1313	0	32752	
1314	0	32684	
1315	0	32452	
1316	0	32388	
1317	0	32460	
1318	0	32560	
1319	0	32676	
1320	0	32764	
1321	0	32842	
1322	0	32874	
1323	0	32850	
1324	0	32836	
1325	0	32920	
1326	0	33128	
1327	0	33244	
1328	0	33228	
1329	0	33114	
1330	0	33002	
1331	0	32900	
1332	0	32876	
1333	0	32912	
1334	0	32960	
1335	0	32922	
1336	0	32956	
1337	0	33098	
1338	0	33090	
1339	0	32976	
1340	0	32794	
1341	0	32696	
1342	0	32808	
1343	0	33004	
1344	0	33270	
1345	0	33484	
1346	0	33706	
1347	0	33928	
1348	0	34020	
1349	0	33964	
1350	0	33836	
1351	0	33724	
1352	0	33504	
1353	0	33144	
1354	0	32632	
1355	0	32288	
1356	0	32240	
1357	0	32440	
1358	0	32664	
1359	0	32836	
1360	0	32980	
1361	0	33076	
1362	0	33172	
1363	0	33288	
1364	0	33346	
1365	0	33280	
1366	0	33240	
1367	0	33260	
1368	0	33276	
1369	0	33344	
1370	0	33512	
1371	0	33684	
1372	0	33848	
1373	0	34004	
1374	0	34080	
1375	0	34200	
1376	0	34332	
1377	0	34372	
1378	0	34288	
1379	0	33956	
1380	0	33592	
1381	0	33340	
1382	0	33332	
1383	0	33340	
1384	0	33336	
1385	0	33426	
1386	0	33544	
1387	0	33656	
1388	0	33696	
1389	0	33660	
1390	0	33544	
1391	0	33384	
1392	0	33312	
1393	0	33304	
1394	0	33384	
1395	0	33444	
1396	0	33424	
1397	0	33376	
1398	0	33378	
1399	0	33476	
1400	0	33580	
1401	0	33692	
1402	0	33908	
1403	0	34040	
1404	0	34032	
1405	0	33980	
1406	0	33968	
1407	0	34064	
1408	0	34278	
1409	0	34620	
1410	0	34884	
1411	0	34990	
1412	0	34928	
1413	0	34786	
1414	0	34644	
1415	0	34496	
1416	0	34504	
1417	0	34608	
1418	0	34820	
1419	0	35072	
1420	0	35244	
1421	0	35244	
1422	0	35018	
1423	0	34812	
1424	0	34708	
1425	0	34472	
1426	0	34368	
1427	0	34504	
1428	0	34768	
1429	0	35140	
1430	0	35524	
1431	0	35650	
1432	0	35712	
1433	0	35952	
1434	0	36300	
1435	0	36460	
1436	0	36404	
1437	0	36340	
1438	0	36392	
1439	0	36418	
1440	0	36322	
1441	0	36060	
1442	0	35684	
1443	0	35496	
1444	0	35608	
1445	0	35964	
1446	0	36420	
1447	0	36812	
1448	0	37036	
1449	0	37008	
1450	0	36876	
1451	0	36744	
1452	0	36680	
1453	0	36688	
1454	0	36784	
1455	0	36776	
1456	0	36664	
1457	0	36548	
1458	0	36460	
1459	0	36384	
1460	0	36288	
1461	0	36120	
1462	0	36136	
1463	0	36088	
1464	0	36012	
1465	0	35872	
1466	0	35610	
1467	0	35260	
1468	0	34912	
1469	0	34528	
1470	0	34040	
1471	0	33436	
1472	0	32652	
1473	0	31832	
1474	0	31320	
1475	0	31080	
1476	0	31032	
1477	0	31048	
1478	0	31098	
1479	0	31212	
1480	0	31384	
1481	0	31400	
1482	0	31324	
1483	0	31220	
1484	0	31120	
1485	0	31036	
1486	0	30948	
1487	0	30820	
1488	0	30660	
1489	0	30568	
1490	0	30506	
1491	0	30404	
1492	0	30316	
1493	0	30340	
1494	0	30388	
1495	0	30432	
1496	0	30464	
1497	0	30500	
1498	0	30484	
1499	0	30494	
1500	0	30572	
1501	0	30712	
1502	0	30786	
1503	0	30823	
1504	0	30876	
1505	0	30944	
1506	0	30904	
1507	0	30848	
1508	0	30836	
1509	0	30776	
1510	0	30638	
1511	0	30572	
1512	0	30596	
1513	0	30640	
1514	0	30658	
1515	0	30698	
1516	0	30776	
1517	0	30804	
1518	0	30808	
1519	0	30816	
1520	0	30776	
1521	0	30728	
1522	0	30700	
1523	0	30706	
1524	0	30704	
1525	0	30644	
1526	0	30512	
1527	0	30280	
1528	0	29904	
1529	0	29344	
1530	0	28476	
1531	0	27392	
1532	0	26244	
1533	0	25054	
1534	0	23872	
1535	0	22876	
1536	0	22116	
1537	0	21516	
1538	0	21128	
1539	0	20942	
1540	0	21042	
1541	0	21380	
1542	0	21860	
1543	0	22528	
1544	0	23508	
1545	0	24936	
1546	0	26740	
1547	0	28868	
1548	0	31200	
1549	0	33784	
1550	0	36708	
1551	0	39928	
1552	0	43448	
1553	0	47248	
1554	0	51316	
1555	0	55440	
1556	0	59240	
1557	0	62376	
1558	0	64196	
1559	0	65144	
1560	0	65535	
1561	0	65535	
1562	0	65535	
1563	0	65535	
1564	0	65535	
1565	0	65535	
1566	0	64372	
1567	0	57368	
1568	0	51824	
1569	0	47228	
1570	0	43048	
1571	0	39152	
1572	0	36032	
1573	0	33656	
1574	0	31612	
1575	0	29716	
1576	0	27932	
1577	0	26172	
1578	0	24520	
1579	0	23132	
1580	0	21876	
1581	0	20768	
1582	0	19972	
1583	0	19416	
1584	0	18880	
1585	0	18376	
1586	0	18046	
1587	0	18034	
1588	0	18408	
1589	0	18944	
1590	0	19490	
1591	0	20044	
1592	0	20633	
1593	0	21208	
1594	0	21832	
1595	0	22468	
1596	0	23112	
1597	0	23740	
1598	0	24296	
1599	0	24804	
1600	0	25332	
1601	0	25886	
1602	0	26520	
1603	0	27146	
1604	0	27740	
1605	0	28300	
1606	0	28806	
1607	0	29232	
1608	0	29572	
1609	0	29876	
1610	0	30108	
1611	0	30312	
1612	0	30440	
1613	0	30536	
1614	0	30632	
1615	0	30752	
1616	0	30868	
1617	0	30980	
1618	0	31080	
1619	0	31168	
1620	0	31248	
1621	0	31292	
1622	0	31340	
1623	0	31392	
1624	0	31452	
1625	0	31528	
1626	0	31640	
1627	0	31656	
1628	0	31624	
1629	0	31648	
1630	0	31692	
1631	0	31728	
1632	0	31752	
1633	0	31828	
1634	0	31884	
1635	0	31908	
1636	0	31936	
1637	0	31984	
1638	0	32080	
1639	0	32192	
1640	0	32292	
1641	0	32352	
1642	0	32400	
1643	0	32392	
1644	0	32380	
1645	0	32408	
1646	0	32386	
1647	0	32364	
1648	0	32384	
1649	0	32384	
1650	0	32380	
1651	0	32404	
1652	0	32432	
1653	0	32444	
1654	0	32468	
1655	0	32388	
1656	0	32304	
1657	0	32298	
1658	0	32244	
1659	0	32212	
1660	0	32224	
1661	0	32264	
1662	0	32312	
1663	0	32348	
1664	0	32356	
1665	0	32320	
1666	0	32332	
1667	0	32376	
1668	0	32416	
1669	0	32436	
1670	0	32512	
1671	0	32612	
1672	0	32584	
1673	0	32468	
1674	0	32412	
1675	0	32406	
1676	0	32460	
1677	0	32496	
1678	0	32524	
1679	0	32564	
1680	0	32640	
1681	0	32748	
1682	0	32856	
1683	0	32936	
1684	0	32978	
1685	0	33036	
1686	0	33108	
1687	0	33188	
1688	0	33312	
1689	0	33400	
1690	0	33496	
1691	0	33570	
1692	0	33512	
1693	0	33416	
1694	0	33432	
1695	0	33504	
1696	0	33556	
1697	0	33604	
1698	0	33688	
1699	0	33852	
1700	0	34072	
1701	0	34268	
1702	0	34384	
1703	0	34416	
1704	0	34372	
1705	0	34224	
1706	0	34042	
1707	0	33802	
1708	0	33556	
1709	0	33388	
1710	0	33378	
1711	0	33500	
1712	0	33712	
1713	0	33928	
1714	0	33996	
1715	0	34014	
1716	0	34008	
1717	0	34060	
1718	0	34144	
1719	0	34224	
1720	0	34208	
1721	0	34146	
1722	0	34052	
1723	0	34036	
1724	0	34052	
1725	0	34056	
1726	0	34124	
1727	0	34256	
1728	0	34376	
1729	0	34464	
1730	0	34436	
1731	0	34368	
1732	0	34328	
1733	0	34292	
1734	0	34212	
1735	0	34144	
1736	0	34056	
1737	0	33938	
1738	0	33888	
1739	0	33844	
1740	0	33884	
1741	0	34004	
1742	0	34190	
1743	0	34328	
1744	0	34444	
1745	0	34484	
1746	0	34460	
1747	0	34460	
1748	0	34504	
1749	0	34520	
1750	0	34504	
1751	0	34488	
1752	0	34474	
1753	0	34396	
1754	0	34364	
1755	0	34440	
1756	0	34536	
1757	0	34644	
1758	0	34688	
1759	0	34716	
1760	0	34700	
1761	0	34752	
1762	0	34796	
1763	0	34796	
1764	0	34816	
1765	0	34844	
1766	0	34742	
1767	0	34516	
1768	0	34184	
1769	0	33840	
1770	0	33608	
1771	0	33640	
1772	0	33884	
1773	0	34104	
1774	0	34112	
1775	0	33986	
1776	0	33856	
1777	0	33820	
1778	0	33902	
1779	0	33984	
1780	0	33952	
1781	0	33940	
1782	0	34032	
1783	0	34202	
1784	0	34348	
1785	0	34434	
1786	0	34512	
1787	0	34556	
1788	0	34480	
1789	0	34268	
1790	0	34096	
1791	0	34098	
1792	0	34212	
1793	0	34308	
1794	0	34360	
1795	0	34448	
1796	0	34544	
1797	0	34672	
1798	0	34882	
1799	0	35164	
1800	0	35416	
1801	0	35560	
1802	0	35608	
1803	0	35504	
1804	0	35350	
1805	0	35220	
1806	0	35140	
1807	0	35156	
1808	0	35204	
1809	0	35248	
1810	0	35260	
1811	0	35180	
1812	0	35020	
1813	0	34840	
1814	0	34704	
1815	0	34504	
1816	0	34228	
1817	0	34012	
1818	0	33808	
1819	0	33480	
1820	0	33200	
1821	0	33124	
1822	0	33136	
1823	0	33168	
1824	0	33172	
1825	0	33312	
1826	0	33530	
1827	0	33788	
1828	0	34020	
1829	0	34232	
1830	0	34368	
1831	0	34404	
1832	0	34264	
1833	0	34028	
1834	0	33928	
1835	0	33992	
1836	0	34002	
1837	0	33848	
1838	0	33714	
1839	0	33656	
1840	0	33652	
1841	0	33680	
1842	0	33668	
1843	0	33684	
1844	0	33732	
1845	0	33784	
1846	0	33748	
1847	0	33608	
1848	0	33480	
1849	0	33480	
1850	0	33584	
1851	0	33708	
1852	0	33660	
1853	0	33474	
1854	0	33340	
1855	0	33204	
1856	0	33080	
1857	0	33032	
1858	0	33004	
1859	0	33032	
1860	0	33176	
1861	0	33452	
1862	0	33736	
1863	0	33816	
1864	0	33644	
1865	0	33372	
1866	0	32954	
1867	0	32608	
1868	0	32404	
1869	0	32272	
1870	0	32212	
1871	0	32200	
1872	0	32296	
1873	0	32480	
1874	0	32632	
1875	0	32644	
1876	0	32530	
1877	0	32368	
1878	0	32308	
1879	0	32430	
1880	0	32684	
1881	0	32980	
1882	0	33296	
1883	0	33588	
1884	0	33824	
1885	0	33868	
1886	0	33764	
1887	0	33748	
1888	0	33772	
1889	0	33764	
1890	0	33700	
1891	0	33616	
1892	0	33504	
1893	0	33436	
1894	0	33264	
1895	0	33088	
1896	0	32812	
1897	0	32476	
1898	0	32188	
1899	0	32022	
1900	0	32030	
1901	0	32162	
1902	0	32416	
1903	0	32676	
1904	0	32892	
1905	0	33028	
1906	0	33152	
1907	0	33220	
1908	0	33264	
1909	0	33312	
1910	0	33384	
1911	0	33450	
1912	0	33434	
1913	0	33284	
1914	0	33004	
1915	0	32592	
1916	0	32196	
1917	0	32096	
1918	0	32204	
1919	0	32360	
1920	0	32480	
1921	0	32584	
1922	0	32628	
1923	0	32656	
1924	0	32660	
1925	0	32672	
1926	0	32724	
1927	0	32744	
1928	0	32752	
1929	0	32796	
1930	0	32856	
1931	0	32940	
1932	0	33068	
1933	0	33216	
1934	0	33376	
1935	0	33552	
1936	0	33696	
1937	0	33784	
1938	0	33828	
1939	0	33800	
1940	0	33708	
1941	0	33560	
1942	0	33344	
1943	0	33192	
1944	0	33092	
1945	0	33052	
1946	0	33064	
1947	0	33120	
1948	0	33216	
1949	0	33292	
1950	0	33248	
1951	0	33226	
1952	0	33260	
1953	0	33312	
1954	0	33372	
1955	0	33432	
1956	0	33432	
1957	0	33392	
1958	0	33296	
1959	0	33172	
1960	0	33104	
1961	0	33128	
1962	0	33292	
1963	0	33512	
1964	0	33714	
1965	0	33888	
1966	0	34012	
1967	0	34128	
1968	0	34300	
1969	0	34436	
1970	0	34492	
1971	0	34524	
1972	0	34612	
1973	0	34732	
1974	0	34868	
1975	0	34984	
1976	0	35076	
1977	0	35056	
1978	0	35024	
1979	0	34944	
1980	0	34944	
1981	0	35000	
1982	0	35092	
1983	0	35156	
1984	0	35160	
1985	0	35144	
1986	0	34976	
1987	0	34792	
1988	0	34784	
1989	0	34916	
1990	0	35068	
1991	0	35208	
1992	0	35380	
1993	0	35596	
1994	0	35884	
1995	0	36236	
1996	0	36570	
1997	0	36820	
1998	0	36960	
1999	0	37040	
2000	0	37080	
2001	0	37152	
2002	0	37188	
2003	0	37184	
2004	0	37172	
2005	0	37184	
2006	0	37284	
2007	0	37344	
2008	0	37382	
2009	0	37404	
2010	0	37396	
2011	0	37376	
2012	0	37312	
2013	0	37240	
2014	0	37172	
2015	0	37084	
2016	0	37044	
2017	0	36988	
2018	0	36848	
2019	0	36640	
2020	0	36388	
2021	0	36104	
2022	0	35820	
2023	0	35526	
2024	0	35392	
2025	0	35328	
2026	0	35264	
2027	0	35212	
2028	0	35144	
2029	0	35028	
2030	0	34808	
2031	0	34560	
2032	0	34242	
2033	0	33812	
2034	0	33388	
2035	0	33008	
2036	0	32660	
2037	0	32360	
2038	0	32136	
2039	0	32030	
2040	0	31980	
2041	0	31932	
2042	0	31892	
2043	0	31808	
2044	0	31712	
2045	0	31620	
2046	0	31460	
2047	0	31296	
2048	0	31264	
2049	0	31284	
2050	0	31280	
2051	0	31252	
2052	0	31234	
2053	0	31264	
2054	0	31360	
2055	0	31432	
2056	0	31468	
2057	0	31504	
2058	0	31526	
2059	0	31532	
2060	0	31500	
2061	0	31520	
2062	0	31472	
2063	0	31424	
2064	0	31436	
2065	0	31480	
2066	0	31460	
2067	0	31408	
2068	0	31360	
2069	0	31364	
2070	0	31396	
2071	0	31424	
2072	0	31440	
2073	0	31416	
2074	0	31404	
2075	0	31384	
2076	0	31408	
2077	0	31416	
2078	0	31426	
2079	0	31400	
2080	0	31384	
2081	0	31370	
2082	0	31392	
2083	0	31404	
2084	0	31456	
2085	0	31532	
2086	0	31556	
2087	0	31532	
2088	0	31432	
2089	0	31220	
2090	0	30920	
2091	0	30444	
2092	0	29712	
2093	0	28696	
2094	0	27544	
2095	0	26344	
2096	0	25164	
2097	0	24088	
2098	0	23216	
2099	0	22636	
2100	0	22244	
2101	0	21978	
2102	0	22020	
2103	0	22360	
2104	0	22880	
2105	0	23530	
2106	0	24434	
2107	0	25636	
2108	0	27276	
2109	0	29258	
2110	0	31540	
2111	0	33996	
2112	0	36664	
2113	0	39436	
2114	0	42524	
2115	0	46028	
2116	0	49840	
2117	0	53784	
2118	0	57616	
2119	0	60852	
2120	0	62712	
2121	0	63680	
2122	0	64176	
2123	0	64356	
2124	0	64404	
2125	0	64380	
2126	0	64324	
2127	0	64232	
2128	0	64104	
2129	0	59784	
2130	0	53648	
2131	0	48616	
2132	0	44288	
2133	0	40172	
2134	0	36816	
2135	0	34368	
2136	0	32496	
2137	0	30764	
2138	0	29054	
2139	0	27352	
2140	0	25668	
2141	0	24152	
2142	0	22768	
2143	0	21510	
2144	0	20452	
2145	0	19824	
2146	0	19324	
2147	0	18754	
2148	0	18296	
2149	0	18076	
2150	0	18164	
2151	0	18504	
2152	0	19029	
2153	0	19552	
2154	0	20070	
2155	0	20548	
2156	0	21002	
2157	0	21632	
2158	0	22292	
2159	0	22884	
2160	0	23424	
2161	0	23928	
2162	0	24428	
2163	0	25008	
2164	0	25600	
2165	0	26212	
2166	0	26792	
2167	0	27344	
2168	0	27888	
2169	0	28376	
2170	0	28824	
2171	0	29168	
2172	0	29492	
2173	0	29760	
2174	0	29964	
2175	0	30100	
2176	0	30178	
2177	0	30292	
2178	0	30340	
2179	0	30352	
2180	0	30496	
2181	0	30624	
2182	0	30696	
2183	0	30730	
2184	0	30804	
2185	0	30840	
2186	0	30884	
2187	0	30976	
2188	0	31098	
2189	0	31204	
2190	0	31304	
2191	0	31360	
2192	0	31352	
2193	0	31304	
2194	0	31274	
2195	0	31324	
2196	0	31436	
2197	0	31536	
2198	0	31600	
2199	0	31605	
2200	0	31544	
2201	0	31520	
2202	0	31568	
2203	0	31628	
2204	0	31680	
2205	0	31764	
2206	0	31808	
2207	0	31816	
2208	0	31840	
2209	0	31812	
2210	0	31840	
2211	0	31948	
2212	0	32052	
2213	0	32124	
2214	0	32184	
2215	0	32240	
2216	0	32208	
2217	0	32178	
2218	0	32200	
2219	0	32232	
2220	0	32288	
2221	0	32348	
2222	0	32420	
2223	0	32440	
2224	0	32384	
2225	0	32412	
2226	0	32460	
2227	0	32428	
2228	0	32476	
2229	0	32504	
2230	0	32540	
2231	0	32576	
2232	0	32640	
2233	0	32668	
2234	0	32676	
2235	0	32670	
2236	0	32656	
2237	0	32632	
2238	0	32652	
2239	0	32692	
2240	0	32730	
2241	0	32796	
2242	0	32844	
2243	0	32836	
2244	0	32800	
2245	0	32736	
2246	0	32720	
2247	0	32744	
2248	0	32752	
2249	0	32800	
2250	0	32878	
2251	0	32920	
2252	0	32938	
2253	0	32944	
2254	0	33008	
2255	0	33072	
2256	0	33108	
2257	0	33084	
2258	0	33082	
2259	0	33112	
2260	0	33156	
2261	0	33200	
2262	0	33216	
2263	0	33208	
2264	0	33236	
2265	0	33252	
2266	0	33242	
2267	0	33264	
2268	0	33260	
2269	0	33216	
2270	0	33200	
2271	0	33216	
2272	0	33248	
2273	0	33268	
2274	0	33292	
2275	0	33324	
2276	0	33372	
2277	0	33376	
2278	0	33248	
2279	0	33232	
2280	0	33310	
2281	0	33372	
2282	0	33416	
2283	0	33408	
2284	0	33320	
2285	0	33216	
2286	0	33096	
2287	0	32996	
2288	0	32928	
2289	0	32922	
2290	0	32912	
2291	0	32852	
2292	0	32792	
2293	0	32816	
2294	0	32912	
2295	0	33016	
2296	0	33076	
2297	0	33040	
2298	0	33016	
2299	0	33032	
2300	0	32976	
2301	0	32904	
2302	0	32820	
2303	0	32720	
2304	0	32672	
2305	0	32624	
2306	0	32580	
2307	0	32560	
2308	0	32580	
2309	0	32628	
2310	0	32644	
2311	0	32664	
2312	0	32728	
2313	0	32740	
2314	0	32720	
2315	0	32680	
2316	0	32608	
2317	0	32564	
2318	0	32520	
2319	0	32504	
2320	0	32506	
2321	0	32560	
2322	0	32604	
2323	0	32576	
2324	0	32468	
2325	0	32346	
2326	0	32312	
2327	0	32306	
2328	0	32284	
2329	0	32320	
2330	0	32428	
2331	0	32440	
2332	0	32400	
2333	0	32372	
2334	0	32424	
2335	0	32472	
2336	0	32504	
2337	0	32544	
2338	0	32592	
2339	0	32636	
2340	0	32784	
2341	0	32900	
2342	0	33012	
2343	0	32984	
2344	0	32820	
2345	0	32792	
2346	0	32952	
2347	0	33152	
2348	0	33272	
2349	0	33408	
2350	0	33552	
2351	0	33616	
2352	0	33556	
2353	0	33532	
2354	0	33688	
2355	0	33828	
2356	0	33940	
2357	0	33972	
2358	0	34020	
2359	0	33984	
2360	0	33792	
2361	0	33648	
2362	0	33696	
2363	0	33888	
2364	0	34128	
2365	0	34250	
2366	0	34138	
2367	0	33892	
2368	0	33664	
2369	0	33608	
2370	0	33744	
2371	0	33804	
2372	0	33824	
2373	0	33756	
2374	0	33652	
2375	0	33734	
2376	0	33812	
2377	0	33644	
2378	0	33332	
2379	0	32864	
2380	0	32324	
2381	0	31900	
2382	0	31888	
2383	0	32224	
2384	0	32616	
2385	0	33004	
2386	0	33496	
2387	0	33996	
2388	0	34336	
2389	0	34458	
2390	0	34532	
2391	0	34684	
2392	0	34720	
2393	0	34772	
2394	0	34792	
2395	0	34620	
2396	0	34436	
2397	0	34242	
2398	0	34024	
2399	0	33832	
2400	0	33684	
2401	0	33584	
2402	0	33356	
2403	0	33048	
2404	0	32736	
2405	0	32448	
2406	0	32242	
2407	0	32112	
2408	0	32084	
2409	0	32040	
2410	0	32000	
2411	0	32056	
2412	0	32100	
2413	0	32120	
2414	0	32088	
2415	0	32072	
2416	0	32064	
2417	0	32016	
2418	0	32012	
2419	0	32008	
2420	0	32036	
2421	0	32088	
2422	0	32120	
2423	0	32132	
2424	0	32148	
2425	0	32156	
2426	0	32140	
2427	0	32138	
2428	0	32132	
2429	0	32128	
2430	0	32128	
2431	0	32116	
2432	0	32104	
2433	0	32084	
2434	0	32056	
2435	0	32020	
2436	0	31992	
2437	0	31980	
2438	0	31984	
2439	0	31996	
2440	0	32008	
2441	0	32076	
2442	0	32192	
2443	0	32276	
2444	0	32352	
2445	0	32408	
2446	0	32400	
2447	0	32390	
2448	0	32332	
2449	0	32256	
2450	0	32200	
2451	0	32096	
2452	0	32044	
2453	0	32072	
2454	0	32122	
2455	0	32198	
2456	0	32312	
2457	0	32448	
2458	0	32548	
2459	0	32556	
2460	0	32620	
2461	0	32720	
2462	0	32820	
2463	0	32926	
2464	0	33032	
2465	0	33020	
2466	0	32980	
2467	0	32866	
2468	0	32712	
2469	0	32608	
2470	0	32576	
2471	0	32676	
2472	0	32752	
2473	0	32836	
2474	0	32928	
2475	0	33040	
2476	0	33096	
2477	0	33080	
2478	0	33016	
2479	0	32972	
2480	0	32936	
2481	0	32944	
2482	0	32948	
2483	0	32908	
2484	0	32844	
2485	0	32776	
2486	0	32818	
2487	0	32952	
2488	0	33124	
2489	0	33320	
2490	0	33432	
2491	0	33484	
2492	0	33352	
2493	0	33156	
2494	0	33120	
2495	0	33104	
2496	0	33120	
2497	0	33160	
2498	0	33180	
2499	0	33164	
2500	0	33164	
2501	0	33304	
2502	0	33448	
2503	0	33570	
2504	0	33664	
2505	0	33680	
2506	0	33680	
2507	0	33688	
2508	0	33728	
2509	0	33868	
2510	0	33936	
2511	0	34016	
2512	0	34140	
2513	0	34264	
2514	0	34276	
2515	0	34272	
2516	0	34212	
2517	0	34200	
2518	0	34224	
2519	0	34404	
2520	0	34568	
2521	0	34684	
2522	0	34732	
2523	0	34752	
2524	0	34764	
2525	0	34708	
2526	0	34680	
2527	0	34696	
2528	0	34672	
2529	0	34664	
2530	0	34668	
2531	0	34680	
2532	0	34736	
2533	0	34804	
2534	0	34896	
2535	0	35020	
2536	0	35164	
2537	0	35348	
2538	0	35548	
2539	0	35760	
2540	0	36060	
2541	0	36400	
2542	0	36720	
2543	0	36944	
2544	0	37004	
2545	0	37076	
2546	0	37242	
2547	0	37376	
2548	0	37488	
2549	0	37502	
2550	0	37488	
2551	0	37484	
2552	0	37464	
2553	0	37448	
2554	0	37536	
2555	0	37568	
2556	0	37480	
2557	0	37400	
2558	0	37352	
2559	0	37312	
2560	0	37224	
2561	0	37136	
2562	0	37016	
2563	0	36852	
2564	0	36696	
2565	0	36592	
2566	0	36508	
2567	0	36372	
2568	0	36228	
2569	0	36080	
2570	0	35924	
2571	0	35804	
2572	0	35708	
2573	0	35576	
2574	0	35444	
2575	0	35296	
2576	0	35024	
2577	0	34668	
2578	0	34300	
2579	0	33900	
2580	0	33492	
2581	0	33176	
2582	0	32764	
2583	0	32386	
2584	0	32168	
2585	0	31988	
2586	0	31916	
2587	0	31852	
2588	0	31742	
2589	0	31670	
2590	0	31612	
2591	0	31568	
2592	0	31496	
2593	0	31332	
2594	0	31200	
2595	0	31088	
2596	0	31024	
2597	0	30988	
2598	0	30944	
2599	0	30936	
2600	0	30972	
2601	0	30952	
2602	0	30856	
2603	0	30688	
2604	0	30624	
2605	0	30532	
2606	0	30400	
2607	0	30272	
2608	0	30236	
2609	0	30276	
2610	0	30272	
2611	0	30216	
2612	0	30216	
2613	0	30226	
2614	0	30304	
2615	0	30416	
2616	0	30456	
2617	0	30432	
2618	0	30400	
2619	0	30436	
2620	0	30476	
2621	0	30472	
2622	0	30504	
2623	0	30560	
2624	0	30580	
2625	0	30540	
2626	0	30460	
2627	0	30394	
2628	0	30404	
2629	0	30384	
2630	0	30332	
2631	0	30268	
2632	0	30228	
2633	0	30156	
2634	0	29972	
2635	0	29794	
2636	0	29584	
2637	0	29200	
2638	0	28504	
2639	0	27528	
2640	0	26364	
2641	0	25152	
2642	0	23900	
2643	0	22692	
2644	0	21636	
2645	0	20782	
2646	0	20166	
2647	0	19616	
2648	0	19328	
2649	0	19336	
2650	0	19630	
2651	0	20032	
2652	0	20628	
2653	0	21560	
2654	0	22890	
2655	0	24592	
2656	0	26636	
2657	0	28900	
2658	0	31492	
2659	0	34412	
2660	0	37636	
2661	0	41184	
2662	0	44956	
2663	0	49024	
2664	0	53140	
2665	0	56900	
2666	0	60248	
2667	0	62404	
2668	0	63580	
2669	0	64100	
2670	0	64368	
2671	0	64448	
2672	0	64420	
2673	0	64368	
2674	0	64272	
2675	0	64152	
2676	0	58656	
2677	0	53288	
2678	0	49032	
2679	0	45260	
2680	0	41476	
2681	0	38240	
2682	0	35644	
2683	0	33432	
2684	0	31412	
2685	0	29408	
2686	0	27452	
2687	0	25740	
2688	0	24244	
2689	0	22812	
2690	0	21560	
2691	0	20636	
2692	0	19885	
2693	0	19168	
2694	0	18488	
2695	0	18033	
2696	0	17986	
2697	0	18262	
2698	0	18618	
2699	0	19040	
2700	0	19482	
2701	0	19888	
2702	0	20298	
2703	0	20864	
2704	0	21442	
2705	0	21896	
2706	0	22384	
2707	0	22850	
2708	0	23328	
2709	0	23864	
2710	0	24492	
2711	0	25172	
2712	0	25872	
2713	0	26468	
2714	0	27032	
2715	0	27492	
2716	0	27868	
2717	0	28192	
2718	0	28392	
2719	0	28528	
2720	0	28712	
2721	0	28888	
2722	0	29004	
2723	0	29088	
2724	0	29172	
2725	0	29220	
2726	0	29304	
2727	0	29408	
2728	0	29460	
2729	0	29516	
2730	0	29580	
2731	0	29668	
2732	0	29748	
2733	0	29820	
2734	0	29888	
2735	0	29920	
2736	0	30000	
2737	0	30080	
2738	0	30128	
2739	0	30154	
2740	0	30176	
2741	0	30220	
2742	0	30336	
2743	0	30432	
2744	0	30468	
2745	0	30532	
2746	0	30604	
2747	0	30656	
2748	0	30700	
2749	0	30740	
2750	0	30776	
2751	0	30828	
2752	0	30892	
2753	0	30984	
2754	0	31054	
2755	0	31136	
2756	0	31248	
2757	0	31354	
2758	0	31432	
2759	0	31500	
2760	0	31552	
2761	0	31580	
2762	0	31568	
2763	0	31528	
2764	0	31516	
2765	0	31508	
2766	0	31488	
2767	0	31520	
2768	0	31568	
2769	0	31680	
2770	0	31820	
2771	0	31940	
2772	0	31992	
2773	0	31992	
2774	0	31936	
2775	0	31992	
2776	0	31976	
2777	0	31904	
2778	0	31908	
2779	0	31944	
2780	0	31992	
2781	0	32072	
2782	0	32128	
2783	0	32208	
2784	0	32284	
2785	0	32384	
2786	0	32480	
2787	0	32512	
2788	0	32532	
2789	0	32528	
2790	0	32504	
2791	0	32532	
2792	0	32608	
2793	0	32620	
2794	0	32608	
2795	0	32608	
2796	0	32648	
2797	0	32734	
2798	0	32872	
2799	0	32956	
2800	0	33024	
2801	0	33024	
2802	0	32948	
2803	0	32872	
2804	0	32872	
2805	0	32836	
2806	0	32812	
2807	0	32728	
2808	0	32788	
2809	0	32904	
2810	0	32972	
2811	0	33000	
2812	0	33036	
2813	0	33064	
2814	0	33092	
2815	0	33124	
2816	0	33202	
2817	0	33256	
2818	0	33276	
2819	0	33212	
2820	0	33146	
2821	0	33124	
2822	0	33144	
2823	0	33184	
2824	0	33180	
2825	0	33160	
2826	0	33092	
2827	0	32896	
2828	0	32832	
2829	0	32890	
2830	0	32996	
2831	0	33060	
2832	0	33016	
2833	0	32956	
2834	0	32964	
2835	0	32992	
2836	0	33000	
2837	0	33016	
2838	0	33052	
2839	0	33068	
2840	0	32964	
2841	0	32868	
2842	0	32804	
2843	0	32672	
2844	0	32528	
2845	0	32492	
2846	0	32496	
2847	0	32508	
2848	0	32552	
2849	0	32608	
2850	0	32644	
2851	0	32664	
2852	0	32640	
2853	0	32608	
2854	0	32574	
2855	0	32552	
2856	0	32476	
2857	0	32346	
2858	0	32276	
2859	0	32232	
2860	0	32188	
2861	0	32152	
2862	0	32142	
2863	0	32156	
2864	0	32218	
2865	0	32248	
2866	0	32224	
2867	0	32184	
2868	0	32108	
2869	0	32096	
2870	0	32128	
2871	0	32192	
2872	0	32262	
2873	0	32292	
2874	0	32288	
2875	0	32282	
2876	0	32296	
2877	0	32328	
2878	0	32320	
2879	0	32324	
2880	0	32342	
2881	0	32364	
2882	0	32440	
2883	0	32510	
2884	0	32560	
2885	0	32588	
2886	0	32592	
2887	0	32556	
2888	0	32578	
2889	0	32652	
2890	0	32736	
2891	0	32800	
2892	0	32812	
2893	0	32792	
2894	0	32864	
2895	0	32960	
2896	0	33092	
2897	0	33172	
2898	0	33272	
2899	0	33356	
2900	0	33420	
2901	0	33456	
2902	0	33520	
2903	0	33472	
2904	0	33516	
2905	0	33580	
2906	0	33552	
2907	0	33476	
2908	0	33484	
2909	0	33520	
2910	0	33550	
2911	0	33548	
2912	0	33512	
2913	0	33464	
2914	0	33376	
2915	0	33296	
2916	0	33308	
2917	0	33284	
2918	0	33196	
2919	0	33104	
2920	0	33032	
2921	0	32944	
2922	0	32832	
2923	0	32768	
2924	0	32732	
2925	0	32750	
2926	0	32844	
2927	0	32948	
2928	0	33020	
2929	0	33072	
2930	0	33124	
2931	0	33220	
2932	0	33280	
2933	0	33316	
2934	0	33368	
2935	0	33404	
2936	0	33380	
2937	0	33376	
2938	0	33320	
2939	0	33240	
2940	0	33180	
2941	0	33096	
2942	0	33078	
2943	0	33060	
2944	0	33048	
2945	0	33032	
2946	0	32948	
2947	0	32840	
2948	0	32824	
2949	0	32760	
2950	0	32604	
2951	0	32544	
2952	0	32496	
2953	0	32440	
2954	0	32396	
2955	0	32368	
2956	0	32356	
2957	0	32368	
2958	0	32412	
2959	0	32492	
2960	0	32544	
2961	0	32560	
2962	0	32536	
2963	0	32480	
2964	0	32424	
2965	0	32396	
2966	0	32384	
2967	0	32448	
2968	0	32428	
2969	0	32392	
2970	0	32336	
2971	0	32256	
2972	0	32268	
2973	0	32362	
2974	0	32488	
2975	0	32612	
2976	0	32736	
2977	0	32826	
2978	0	32836	
2979	0	32592	
2980	0	32344	
2981	0	32172	
2982	0	32168	
2983	0	32216	
2984	0	32244	
2985	0	32200	
2986	0	32184	
2987	0	32192	
2988	0	32256	
2989	0	32312	
2990	0	32388	
2991	0	32464	
2992	0	32560	
2993	0	32592	
2994	0	32640	
2995	0	32708	
2996	0	32720	
2997	0	32792	
2998	0	32768	
2999	0	32596	
3000	0	32520	
3001	0	32490	
3002	0	32512	
3003	0	32552	
3004	0	32572	
3005	0	32660	
3006	0	32696	
3007	0	32750	
3008	0	32794	
3009	0	32856	
3010	0	32884	
3011	0	32904	
3012	0	32968	
3013	0	33064	
3014	0	33128	
3015	0	33088	
3016	0	33052	
3017	0	33084	
3018	0	33112	
3019	0	33204	
3020	0	33328	
3021	0	33360	
3022	0	33432	
3023	0	33500	
3024	0	33560	
3025	0	33656	
3026	0	33700	
3027	0	33772	
3028	0	33824	
3029	0	33848	
3030	0	33844	
3031	0	33860	
3032	0	33840	
3033	0	33764	
3034	0	33656	
3035	0	33608	
3036	0	33652	
3037	0	33696	
3038	0	33776	
3039	0	33876	
3040	0	33892	
3041	0	33876	
3042	0	33848	
3043	0	34016	
3044	0	34196	
3045	0	34338	
3046	0	34500	
3047	0	34688	
3048	0	34848	
3049	0	34956	
3050	0	35064	
3051	0	35176	
3052	0	35296	
3053	0	35392	
3054	0	35492	
3055	0	35552	
3056	0	35604	
3057	0	35572	
3058	0	35544	
3059	0	35444	
3060	0	35320	
3061	0	35368	
3062	0	35480	
3063	0	35504	
3064	0	35568	
3065	0	35664	
3066	0	35672	
3067	0	35616	
3068	0	35640	
3069	0	35828	
3070	0	36084	
3071	0	36360	
3072	0	36600	
3073	0	36840	
3074	0	37036	
3075	0	37156	
3076	0	37308	
3077	0	37472	
3078	0	37624	
3079	0	37752	
3080	0	37900	
3081	0	38004	
3082	0	38060	
3083	0	38092	
3084	0	38084	
3085	0	38104	
3086	0	38208	
3087	0	38264	
3088	0	38136	
3089	0	37996	
3090	0	37840	
3091	0	37732	
3092	0	37588	
3093	0	37408	
3094	0	37276	
3095	0	37184	
3096	0	37140	
3097	0	37072	
3098	0	36982	
3099	0	36964	
3100	0	37016	
3101	0	36992	
3102	0	36898	
3103	0	36780	
3104	0	36596	
3105	0	36404	
3106	0	36260	
3107	0	36164	
3108	0	36000	
3109	0	35792	
3110	0	35592	
3111	0	35272	
3112	0	34860	
3113	0	34404	
3114	0	33920	
3115	0	33512	
3116	0	33152	
3117	0	32874	
3118	0	32608	
3119	0	32424	
3120	0	32348	
3121	0	32232	
3122	0	32182	
3123	0	32268	
3124	0	32396	
3125	0	32424	
3126	0	32420	
3127	0	32364	
3128	0	32308	
3129	0	32296	
3130	0	32200	
3131	0	32076	
3132	0	31852	
3133	0	31588	
3134	0	31288	
3135	0	31016	
3136	0	30824	
3137	0	30756	
3138	0	30784	
3139	0	30816	
3140	0	30864	
3141	0	30928	
3142	0	31008	
3143	0	31168	
3144	0	31344	
3145	0	31452	
3146	0	31546	
3147	0	31544	
3148	0	31440	
3149	0	31408	
3150	0	31444	
3151	0	31456	
3152	0	31520	
3153	0	31584	
3154	0	31632	
3155	0	31724	
3156	0	31716	
3157	0	31730	
3158	0	31800	
3159	0	31876	
3160	0	31736	
3161	0	31520	
3162	0	31350	
3163	0	31236	
3164	0	31272	
3165	0	31344	
3166	0	31416	
3167	0	31412	
3168	0	31170	
3169	0	30860	
3170	0	30536	
3171	0	30140	
3172	0	29320	
3173	0	28128	
3174	0	26900	
3175	0	25674	
3176	0	24456	
3177	0	23232	
3178	0	22116	
3179	0	21310	
3180	0	20758	
3181	0	20352	
3182	0	20216	
3183	0	20364	
3184	0	20661	
3185	0	21044	
3186	0	21684	
3187	0	22644	
3188	0	24012	
3189	0	25818	
3190	0	27980	
3191	0	30264	
3192	0	32900	
3193	0	35920	
3194	0	39208	
3195	0	42724	
3196	0	46552	
3197	0	50596	
3198	0	54528	
3199	0	57992	
3200	0	60976	
3201	0	62752	
3202	0	63664	
3203	0	64108	
3204	0	64304	
3205	0	64348	
3206	0	64316	
3207	0	64224	
3208	0	64128	
3209	0	62152	
3210	0	56172	
3211	0	51688	
3212	0	48056	
3213	0	44520	
3214	0	41164	
3215	0	38448	
3216	0	36252	
3217	0	34256	
3218	0	32296	
3219	0	30368	
3220	0	28528	
3221	0	26816	
3222	0	25216	
3223	0	23608	
3224	0	22348	
3225	0	21460	
3226	0	20705	
3227	0	19994	
3228	0	19480	
3229	0	19240	
3230	0	19358	
3231	0	19637	
3232	0	19920	
3233	0	20320	
3234	0	20692	
3235	0	21000	
3236	0	21404	
3237	0	21928	
3238	0	22536	
3239	0	23146	
3240	0	23690	
3241	0	24136	
3242	0	24564	
3243	0	25092	
3244	0	25768	
3245	0	26440	
3246	0	26944	
3247	0	27500	
3248	0	27988	
3249	0	28384	
3250	0	28672	
3251	0	28896	
3252	0	29084	
3253	0	29280	
3254	0	29488	
3255	0	29630	
3256	0	29640	
3257	0	29602	
3258	0	29608	
3259	0	29612	
3260	0	29676	
3261	0	29712	
3262	0	29760	
3263	0	29864	
3264	0	29928	
3265	0	29984	
3266	0	30040	
3267	0	30052	
3268	0	30072	
3269	0	30112	
3270	0	30064	
3271	0	30096	
3272	0	30216	
3273	0	30276	
3274	0	30260	
3275	0	30256	
3276	0	30252	
3277	0	30340	
3278	0	30480	
3279	0	30636	
3280	0	30656	
3281	0	30636	
3282	0	30664	
3283	0	30664	
3284	0	30776	
3285	0	30904	
3286	0	30944	
3287	0	30936	
3288	0	30960	
3289	0	31012	
3290	0	31044	
3291	0	31000	
3292	0	31024	
3293	0	31056	
3294	0	31076	
3295	0	31136	
3296	0	31212	
3297	0	31282	
3298	0	31360	
3299	0	31408	
3300	0	31384	
3301	0	31316	
3302	0	31296	
3303	0	31360	
3304	0	31456	
3305	0	31500	
3306	0	31492	
3307	0	31520	
3308	0	31532	
3309	0	31472	
3310	0	31452	
3311	0	31480	
3312	0	31560	
3313	0	31692	
3314	0	31808	
3315	0	31844	
3316	0	31860	
3317	0	31944	
3318	0	31984	
3319	0	31964	
3320	0	31968	
3321	0	32024	
3322	0	32066	
3323	0	32036	
3324	0	31992	
3325	0	31968	
3326	0	32060	
3327	0	32108	
3328	0	32104	
3329	0	32124	
3330	0	32196	
3331	0	32218	
3332	0	32184	
3333	0	32136	
3334	0	32156	
3335	0	32290	
3336	0	32402	
3337	0	32448	
3338	0	32424	
3339	0	32420	
3340	0	32528	
3341	0	32608	
3342	0	32608	
3343	0	32538	
3344	0	32520	
3345	0	32520	
3346	0	32484	
3347	0	32408	
3348	0	32328	
3349	0	32282	
3350	0	32296	
3351	0	32344	
3352	0	32400	
3353	0	32458	
3354	0	32472	
3355	0	32480	
3356	0	32516	
3357	0	32552	
3358	0	32560	
3359	0	32576	
3360	0	32552	
3361	0	32584	
3362	0	32608	
3363	0	32622	
3364	0	32592	
3365	0	32594	
3366	0	32568	
3367	0	32576	
3368	0	32544	
3369	0	32500	
3370	0	32440	
3371	0	32396	
3372	0	32384	
3373	0	32426	
3374	0	32482	
3375	0	32460	
3376	0	32432	
3377	0	32384	
3378	0	32218	
3379	0	32088	
3380	0	32040	
3381	0	32094	
3382	0	32144	
3383	0	32160	
3384	0	32144	
3385	0	32148	
3386	0	32124	
3387	0	32064	
3388	0	32068	
3389	0	32080	
3390	0	32052	
3391	0	32008	
3392	0	31970	
3393	0	31988	
3394	0	31968	
3395	0	31880	
3396	0	31876	
3397	0	31892	
3398	0	31860	
3399	0	31818	
3400	0	31796	
3401	0	31860	
3402	0	31980	
3403	0	31984	
3404	0	31988	
3405	0	31880	
3406	0	31828	
3407	0	31720	
3408	0	31636	
3409	0	31652	
3410	0	31668	
3411	0	31688	
3412	0	31696	
3413	0	31692	
3414	0	31756	
3415	0	31912	
3416	0	32064	
3417	0	32148	
3418	0	32228	
3419	0	32180	
3420	0	32236	
3421	0	32382	
3422	0	32512	
3423	0	32644	
3424	0	32764	
3425	0	32840	
3426	0	32848	
3427	0	32872	
3428	0	32892	
3429	0	32889	
3430	0	32904	
3431	0	32968	
3432	0	33024	
3433	0	33116	
3434	0	33208	
3435	0	33264	
3436	0	33268	
3437	0	33248	
3438	0	33276	
3439	0	33312	
3440	0	33352	
3441	0	33364	
3442	0	33408	
3443	0	33484	
3444	0	33552	
3445	0	33660	
3446	0	33716	
3447	0	33728	
3448	0	33652	
3449	0	33504	
3450	0	33364	
3451	0	33272	
3452	0	33304	
3453	0	33316	
3454	0	33276	
3455	0	33288	
3456	0	33320	
3457	0	33348	
3458	0	33336	
3459	0	33208	
3460	0	33084	
3461	0	33092	
3462	0	33084	
3463	0	33068	
3464	0	33128	
3465	0	33152	
3466	0	33192	
3467	0	33220	
3468	0	33252	
3469	0	33272	
3470	0	33152	
3471	0	33116	
3472	0	33132	
3473	0	33120	
3474	0	33064	
3475	0	33024	
3476	0	32948	
3477	0	32848	
3478	0	32848	
3479	0	32896	
3480	0	32918	
3481	0	32992	
3482	0	32968	
3483	0	32922	
3484	0	32944	
3485	0	33008	
3486	0	33004	
3487	0	32980	
3488	0	32980	
3489	0	32944	
3490	0	32884	
3491	0	32856	
3492	0	32844	
3493	0	32824	
3494	0	32800	
3495	0	32752	
3496	0	32756	
3497	0	32760	
3498	0	32780	
3499	0	32816	
3500	0	32892	
3501	0	32912	
3502	0	32952	
3503	0	33060	
3504	0	33140	
3505	0	33234	
3506	0	33240	
3507	0	33234	
3508	0	33184	
3509	0	33032	
3510	0	32848	
3511	0	32592	
3512	0	32488	
3513	0	32528	
3514	0	32600	
3515	0	32744	
3516	0	32820	
3517	0	32896	
3518	0	32912	
3519	0	32864	
3520	0	32896	
3521	0	32992	
3522	0	33100	
3523	0	33212	
3524	0	33202	
3525	0	33044	
3526	0	32872	
3527	0	32852	
3528	0	32924	
3529	0	32996	
3530	0	33076	
3531	0	32984	
3532	0	32976	
3533	0	32960	
3534	0	32908	
3535	0	32920	
3536	0	33000	
3537	0	33120	
3538	0	33216	
3539	0	33296	
3540	0	33352	
3541	0	33376	
3542	0	33364	
3543	0	33344	
3544	0	33280	
3545	0	33264	
3546	0	33316	
3547	0	33412	
3548	0	33452	
3549	0	33452	
3550	0	33476	
3551	0	33536	
3552	0	33564	
3553	0	33544	
3554	0	33536	
3555	0	33528	
3556	0	33540	
3557	0	33568	
3558	0	33612	
3559	0	33624	
3560	0	33660	
3561	0	33710	
3562	0	33744	
3563	0	33752	
3564	0	33752	
3565	0	33760	
3566	0	33832	
3567	0	33912	
3568	0	33972	
3569	0	34020	
3570	0	34090	
3571	0	34160	
3572	0	34236	
3573	0	34352	
3574	0	34432	
3575	0	34492	
3576	0	34524	
3577	0	34604	
3578	0	34712	
3579	0	34812	
3580	0	34876	
3581	0	34932	
3582	0	34960	
3583	0	34980	
3584	0	34992	
3585	0	35032	
3586	0	35064	
3587	0	35136	
3588	0	35188	
3589	0	35210	
3590	0	35232	
3591	0	35256	
3592	0	35268	
3593	0	35250	
3594	0	35236	
3595	0	35260	
3596	0	35360	
3597	0	35576	
3598	0	35752	
3599	0	35892	
3600	0	36132	
3601	0	36388	
3602	0	36658	
3603	0	36872	
3604	0	37028	
3605	0	37132	
3606	0	37224	
3607	0	37296	
3608	0	37352	
3609	0	37424	
3610	0	37456	
3611	0	37488	
3612	0	37536	
3613	0	37588	
3614	0	37636	
3615	0	37608	
3616	0	37492	
3617	0	37354	
3618	0	37172	
3619	0	36988	
3620	0	36840	
3621	0	36760	
3622	0	36644	
3623	0	36708	
3624	0	36712	
3625	0	36688	
3626	0	36624	
3627	0	36558	
3628	0	36448	
3629	0	36312	
3630	0	36152	
3631	0	35968	
3632	0	35748	
3633	0	35520	
3634	0	35432	
3635	0	35316	
3636	0	35144	
3637	0	34860	
3638	0	34472	
3639	0	34074	
3640	0	33692	
3641	0	33324	
3642	0	32970	
3643	0	32668	
3644	0	32396	
3645	0	32168	
3646	0	31960	
3647	0	31828	
3648	0	31788	
3649	0	31712	
3650	0	31624	
3651	0	31576	
3652	0	31513	
3653	0	31408	
3654	0	31320	
3655	0	31188	
3656	0	31032	
3657	0	30908	
3658	0	30824	
3659	0	30752	
3660	0	30676	
3661	0	30636	
3662	0	30656	
3663	0	30704	
3664	0	30716	
3665	0	30744	
3666	0	30748	
3667	0	30776	
3668	0	30844	
3669	0	30844	
3670	0	30872	
3671	0	30872	
3672	0	30808	
3673	0	30688	
3674	0	30680	
3675	0	30656	
3676	0	30612	
3677	0	30600	
3678	0	30600	
3679	0	30604	
3680	0	30616	
3681	0	30632	
3682	0	30658	
3683	0	30696	
3684	0	30728	
3685	0	30704	
3686	0	30700	
3687	0	30688	
3688	0	30660	
3689	0	30668	
3690	0	30692	
3691	0	30712	
3692	0	30744	
3693	0	30760	
3694	0	30708	
3695	0	30580	
3696	0	30352	
3697	0	29996	
3698	0	29436	
3699	0	28608	
3700	0	27576	
3701	0	26396	
3702	0	25032	
3703	0	23578	
3704	0	22228	
3705	0	21160	
3706	0	20428	
3707	0	19940	
3708	0	19560	
3709	0	19480	
3710	0	19712	
3711	0	20168	
3712	0	20740	
3713	0	21520	
3714	0	22692	
3715	0	24238	
3716	0	26012	
3717	0	28084	
3718	0	30528	
3719	0	33424	
3720	0	36644	
3721	0	40008	
3722	0	43504	
3723	0	47384	
3724	0	51344	
3725	0	55088	
3726	0	58368	
3727	0	61280	
3728	0	63008	
3729	0	63880	
3730	0	64316	
3731	0	64484	
3732	0	64516	
3733	0	64484	
3734	0	64384	
3735	0	64304	
3736	0	58812	
3737	0	53840	
3738	0	50004	
3739	0	46536	
3740	0	43076	
3741	0	40108	
3742	0	37796	
3743	0	35760	
3744	0	33788	
3745	0	31760	
3746	0	29666	
3747	0	27744	
3748	0	26060	
3749	0	24524	
3750	0	23076	
3751	0	21980	
3752	0	21144	
3753	0	20352	
3754	0	19576	
3755	0	18988	
3756	0	18692	
3757	0	18770	
3758	0	19096	
3759	0	19442	
3760	0	19920	
3761	0	20412	
3762	0	20860	
3763	0	21424	
3764	0	21980	
3765	0	22596	
3766	0	23216	
3767	0	23764	
3768	0	24284	
3769	0	24828	
3770	0	25384	
3771	0	25980	
3772	0	26548	
3773	0	27072	
3774	0	27584	
3775	0	28076	
3776	0	28532	
3777	0	28832	
3778	0	28980	
3779	0	29137	
3780	0	29300	
3781	0	29448	
3782	0	29580	
3783	0	29662	
3784	0	29728	
3785	0	29808	
3786	0	29836	
3787	0	29856	
3788	0	29900	
3789	0	29940	
3790	0	29952	
3791	0	30004	
3792	0	30120	
3793	0	30264	
3794	0	30376	
3795	0	30444	
3796	0	30528	
3797	0	30616	
3798	0	30680	
3799	0	30698	
3800	0	30708	
3801	0	30780	
3802	0	30824	
3803	0	30872	
3804	0	30880	
3805	0	30916	
3806	0	30956	
3807	0	31036	
3808	0	31080	
3809	0	30968	
3810	0	30888	
3811	0	30944	
3812	0	31016	
3813	0	31066	
3814	0	31084	
3815	0	31040	
3816	0	31092	
3817	0	31212	
3818	0	31386	
3819	0	31456	
3820	0	31524	
3821	0	31616	
3822	0	31696	
3823	0	31736	
3824	0	31768	
3825	0	31832	
3826	0	31888	
3827	0	31924	
3828	0	31960	
3829	0	32000	
3830	0	32024	
3831	0	32032	
3832	0	32064	
3833	0	32136	
3834	0	32240	
3835	0	32304	
3836	0	32416	
3837	0	32488	
3838	0	32552	
3839	0	32600	
3840	0	32608	
3841	0	32560	
3842	0	32528	
3843	0	32548	
3844	0	32552	
3845	0	32572	
3846	0	32576	
3847	0	32628	
3848	0	32690	
3849	0	32736	
3850	0	32784	
3851	0	32832	
3852	0	32864	
3853	0	32860	
3854	0	32824	
3855	0	32792	
3856	0	32802	
3857	0	32832	
3858	0	32864	
3859	0	32868	
3860	0	32872	
3861	0	32872	
3862	0	32860	
3863	0	32864	
3864	0	32882	
3865	0	32900	
3866	0	32908	
3867	0	32968	
3868	0	33034	
3869	0	33080	
3870	0	33100	
3871	0	33084	
3872	0	33068	
3873	0	33062	
3874	0	33068	
3875	0	33080	
3876	0	33088	
3877	0	33124	
3878	0	33160	
3879	0	33184	
3880	0	33176	
3881	0	33164	
3882	0	33168	
3883	0	33184	
3884	0	33184	
3885	0	33172	
3886	0	33140	
3887	0	33112	
3888	0	33120	
3889	0	33148	
3890	0	33136	
3891	0	33120	
3892	0	33096	
3893	0	33032	
3894	0	33024	
3895	0	33000	
3896	0	32968	
3897	0	32936	
3898	0	32892	
3899	0	32872	
3900	0	32876	
3901	0	32900	
3902	0	32892	
3903	0	32896	
3904	0	32884	
3905	0	32856	
3906	0	32812	
3907	0	32736	
3908	0	32704	
3909	0	32740	
3910	0	32748	
3911	0	32730	
3912	0	32688	
3913	0	32636	
3914	0	32592	
3915	0	32552	
3916	0	32530	
3917	0	32492	
3918	0	32456	
3919	0	32454	
3920	0	32472	
3921	0	32472	
3922	0	32484	
3923	0	32456	
3924	0	32452	
3925	0	32448	
3926	0	32432	
3927	0	32464	
3928	0	32500	
3929	0	32532	
3930	0	32544	
3931	0	32496	
3932	0	32444	
3933	0	32480	
3934	0	32474	
3935	0	32388	
3936	0	32320	
3937	0	32280	
3938	0	32284	
3939	0	32312	
3940	0	32344	
3941	0	32436	
3942	0	32530	
3943	0	32656	
3944	0	32792	
3945	0	32896	
3946	0	32936	
3947	0	32972	
3948	0	33056	
3949	0	33144	
3950	0	33244	
3951	0	33280	
3952	0	33340	
3953	0	33356	
3954	0	33408	
3955	0	33520	
3956	0	33626	
3957	0	33680	
3958	0	33712	
3959	0	33752	
3960	0	33784	
3961	0	33840	
3962	0	33900	
3963	0	33912	
3964	0	33912	
3965	0	33868	
3966	0	33852	
3967	0	33864	
3968	0	33864	
3969	0	33820	
3970	0	33712	
3971	0	33656	
3972	0	33622	
3973	0	33624	
3974	0	33584	
3975	0	33572	
3976	0	33580	
3977	0	33540	
3978	0	33508	
3979	0	33414	
3980	0	33360	
3981	0	33320	
3982	0	33268	
3983	0	33260	
3984	0	33232	
3985	0	33200	
3986	0	33184	
3987	0	33180	
3988	0	33192	
3989	0	33192	
3990	0	33144	
3991	0	33088	
3992	0	33052	
3993	0	33076	
3994	0	33076	
3995	0	33104	
3996	0	33124	
3997	0	33140	
3998	0	33072	
3999	0	32988	
4000	0	32936	
4001	0	32912	
4002	0	32948	
4003	0	32952	
4004	0	32928	
4005	0	32896	
4006	0	32836	
4007	0	32768	
4008	0	32704	
4009	0	32664	
4010	0	32628	
4011	0	32624	
4012	0	32652	
4013	0	32672	
4014	0	32676	
4015	0	32676	
4016	0	32652	
4017	0	32648	
4018	0	32664	
4019	0	32640	
4020	0	32632	
4021	0	32620	
4022	0	32612	
4023	0	32632	
4024	0	32668	
4025	0	32724	
4026	0	32768	
4027	0	32736	
4028	0	32736	
4029	0	32740	
4030	0	32772	
4031	0	32788	
4032	0	32756	
4033	0	32700	
4034	0	32632	
4035	0	32632	
4036	0	32692	
4037	0	32736	
4038	0	32800	
4039	0	32820	
4040	0	32832	
4041	0	32796	
4042	0	32772	
4043	0	32744	
4044	0	32736	
4045	0	32736	
4046	0	32748	
4047	0	32778	
4048	0	32802	
4049	0	32828	
4050	0	32912	
4051	0	33004	
4052	0	33040	
4053	0	33012	
4054	0	33024	
4055	0	33052	
4056	0	33064	
4057	0	33056	
4058	0	33048	
4059	0	33032	
4060	0	33044	
4061	0	33100	
4062	0	33200	
4063	0	33276	
4064	0	33348	
4065	0	33428	
4066	0	33480	
4067	0	33436	
4068	0	33374	
4069	0	33312	
4070	0	33288	
4071	0	33364	
4072	0	33460	
4073	0	33512	
4074	0	33524	
4075	0	33500	
4076	0	33460	
4077	0	33448	
4078	0	33436	
4079	0	33464	
4080	0	33506	
4081	0	33540	
4082	0	33572	
4083	0	33656	
4084	0	33696	
4085	0	33720	
4086	0	33724	
4087	0	33720	
4088	0	33736	
4089	0	33712	
4090	0	33720	
4091	0	33748	
4092	0	33772	
4093	0	33796	
4094	0	33796	
4095	0	33816	
4096	0	33864	
4097	0	33888	
4098	0	33868	
4099	0	33860	
4100	0	33866	
4101	0	33852	
4102	0	33832	
4103	0	33780	
4104	0	33712	
4105	0	33704	
4106	0	33748	
4107	0	33804	
4108	0	33856	
4109	0	33908	
4110	0	33928	
4111	0	33922	
4112	0	33924	
4113	0	33972	
4114	0	34028	
4115	0	34104	
4116	0	34208	
4117	0	34336	
4118	0	34460	
4119	0	34576	
4120	0	34684	
4121	0	34696	
4122	0	34644	
4123	0	34628	
4124	0	34654	
4125	0	34724	
4126	0	34828	
4127	0	34912	
4128	0	34960	
4129	0	34972	
4130	0	34940	
4131	0	34956	
4132	0	34940	
4133	0	34900	
4134	0	34828	
4135	0	34804	
4136	0	34796	
4137	0	34808	
4138	0	34840	
4139	0	34928	
4140	0	35000	
4141	0	35076	
4142	0	35172	
4143	0	35296	
4144	0	35484	
4145	0	35704	
4146	0	35936	
4147	0	36128	
4148	0	36352	
4149	0	36588	
4150	0	36796	
4151	0	36960	
4152	0	37076	
4153	0	37176	
4154	0	37280	
4155	0	37360	
4156	0	37376	
4157	0	37344	
4158	0	37304	
4159	0	37268	
4160	0	37240	
4161	0	37220	
4162	0	37192	
4163	0	37164	
4164	0	37112	
4165	0	37040	
4166	0	36924	
4167	0	36796	
4168	0	36692	
4169	0	36620	
4170	0	36620	
4171	0	36592	
4172	0	36536	
4173	0	36436	
4174	0	36348	
4175	0	36244	
4176	0	36128	
4177	0	35984	
4178	0	35856	
4179	0	35712	
4180	0	35528	
4181	0	35320	
4182	0	35092	
4183	0	34832	
4184	0	34528	
4185	0	34184	
4186	0	33840	
4187	0	33480	
4188	0	33168	
4189	0	32916	
4190	0	32620	
4191	0	32324	
4192	0	32040	
4193	0	31828	
4194	0	31680	
4195	0	31562	
4196	0	31488	
4197	0	31460	
4198	0	31444	
4199	0	31344	
4200	0	31196	
4201	0	31052	
4202	0	30884	
4203	0	30712	
4204	0	30592	
4205	0	30576	
4206	0	30576	
4207	0	30580	
4208	0	30592	
4209	0	30596	
4210	0	30658	
4211	0	30708	
4212	0	30728	
4213	0	30696	
4214	0	30628	
4215	0	30556	
4216	0	30516	
4217	0	30500	
4218	0	30488	
4219	0	30480	
4220	0	30512	
4221	0	30564	
4222	0	30568	
4223	0	30556	
4224	0	30512	
4225	0	30474	
4226	0	30460	
4227	0	30432	
4228	0	30432	
4229	0	30448	
4230	0	30526	
4231	0	30636	
4232	0	30736	
4233	0	30744	
4234	0	30752	
4235	0	30760	
4236	0	30764	
4237	0	30768	
4238	0	30724	
4239	0	30680	
4240	0	30600	
4241	0	30408	
4242	0	30128	
4243	0	29793	
4244	0	29376	
4245	0	28784	
4246	0	27920	
4247	0	26916	
4248	0	25844	
4249	0	24716	
4250	0	23557	
4251	0	22528	
4252	0	21734	
4253	0	21208	
4254	0	20800	
4255	0	20576	
4256	0	20640	
4257	0	20960	
4258	0	21432	
4259	0	22100	
4260	0	23094	
4261	0	24604	
4262	0	26552	
4263	0	28844	
4264	0	31284	
4265	0	33976	
4266	0	36832	
4267	0	39968	
4268	0	43476	
4269	0	47294	
4270	0	51316	
4271	0	55372	
4272	0	59064	
4273	0	61692	
4274	0	63112	
4275	0	63824	
4276	0	64148	
4277	0	64272	
4278	0	64284	
4279	0	64232	
4280	0	64144	
4281	0	64028	
4282	0	62440	
4283	0	55344	
4284	0	49784	
4285	0	45276	
4286	0	41208	
4287	0	37396	
4288	0	34388	
4289	0	32058	
4290	0	30140	
4291	0	28332	
4292	0	26544	
4293	0	24732	
4294	0	23098	
4295	0	21832	
4296	0	20652	
4297	0	19570	
4298	0	18862	
4299	0	18442	
4300	0	18018	
4301	0	17644	
4302	0	17408	
4303	0	17452	
4304	0	17776	
4305	0	18238	
4306	0	18728	
4307	0	19154	
4308	0	19568	
4309	0	19924	
4310	0	20394	
4311	0	20944	
4312	0	21500	
4313	0	22124	
4314	0	22752	
4315	0	23320	
4316	0	23888	
4317	0	24528	
4318	0	25204	
4319	0	25888	
4320	0	26592	
4321	0	27262	
4322	0	27828	
4323	0	28336	
4324	0	28756	
4325	0	29172	
4326	0	29476	
4327	0	29668	
4328	0	29824	
4329	0	29968	
4330	0	30112	
4331	0	30240	
4332	0	30312	
4333	0	30352	
4334	0	30360	
4335	0	30388	
4336	0	30448	
4337	0	30484	
4338	0	30536	
4339	0	30636	
4340	0	30694	
4341	0	30778	
4342	0	30868	
4343	0	30980	
4344	0	31052	
4345	0	31048	
4346	0	31012	
4347	0	31032	
4348	0	31080	
4349	0	31202	
4350	0	31396	
4351	0	31516	
4352	0	31572	
4353	0	31616	
4354	0	31644	
4355	0	31676	
4356	0	31704	
4357	0	31746	
4358	0	31776	
4359	0	31812	
4360	0	31828	
4361	0	31842	
4362	0	31884	
4363	0	31920	
4364	0	31968	
4365	0	32008	
4366	0	32072	
4367	0	32120	
4368	0	32228	
4369	0	32364	
4370	0	32424	
4371	0	32368	
4372	0	32306	
4373	0	32324	
4374	0	32392	
4375	0	32396	
4376	0	32412	
4377	0	32472	
4378	0	32504	
4379	0	32516	
4380	0	32552	
4381	0	32644	
4382	0	32744	
4383	0	32868	
4384	0	32948	
4385	0	32976	
4386	0	32976	
4387	0	33016	
4388	0	33064	
4389	0	33060	
4390	0	33096	
4391	0	33178	
4392	0	33268	
4393	0	33348	
4394	0	33364	
4395	0	33292	
4396	0	33172	
4397	0	33096	
4398	0	33048	
4399	0	32962	
4400	0	32868	
4401	0	32896	
4402	0	33036	
4403	0	33176	
4404	0	33204	
4405	0	33108	
4406	0	33060	
4407	0	33104	
4408	0	33192	
4409	0	33296	
4410	0	33324	
4411	0	33312	
4412	0	33308	
4413	0	33296	
4414	0	33306	
4415	0	33388	
4416	0	33424	
4417	0	33420	
4418	0	33452	
4419	0	33524	
4420	0	33608	
4421	0	33664	
4422	0	33616	
4423	0	33506	
4424	0	33432	
4425	0	33384	
4426	0	33332	
4427	0	33284	
4428	0	33236	
4429	0	33188	
4430	0	33176	
4431	0	33124	
4432	0	33084	
4433	0	33084	
4434	0	33136	
4435	0	33210	
4436	0	33320	
4437	0	33388	
4438	0	33420	
4439	0	33408	
4440	0	33404	
4441	0	33444	
4442	0	33408	
4443	0	33316	
4444	0	33148	
4445	0	32984	
4446	0	32908	
4447	0	32848	
4448	0	32780	
4449	0	32756	
4450	0	32772	
4451	0	32752	
4452	0	32792	
4453	0	32856	
4454	0	32820	
4455	0	32728	
4456	0	32634	
4457	0	32560	
4458	0	32476	
4459	0	32408	
4460	0	32400	
4461	0	32384	
4462	0	32376	
4463	0	32354	
4464	0	32416	
4465	0	32512	
4466	0	32616	
4467	0	32680	
4468	0	32624	
4469	0	32440	
4470	0	32200	
4471	0	32008	
4472	0	31876	
4473	0	31912	
4474	0	32016	
4475	0	32184	
4476	0	32314	
4477	0	32416	
4478	0	32512	
4479	0	32528	
4480	0	32392	
4481	0	32316	
4482	0	32342	
4483	0	32352	
4484	0	32328	
4485	0	32304	
4486	0	32332	
4487	0	32404	
4488	0	32424	
4489	0	32444	
4490	0	32456	
4491	0	32456	
4492	0	32520	
4493	0	32592	
4494	0	32652	
4495	0	32708	
4496	0	32744	
4497	0	32826	
4498	0	32936	
4499	0	33134	
4500	0	33288	
4501	0	33360	
4502	0	33476	
4503	0	33652	
4504	0	33812	
4505	0	33940	
4506	0	34080	
4507	0	34232	
4508	0	34286	
4509	0	34196	
4510	0	34112	
4511	0	34060	
4512	0	34056	
4513	0	34028	
4514	0	33984	
4515	0	33924	
4516	0	33880	
4517	0	33880	
4518	0	33844	
4519	0	33764	
4520	0	33732	
4521	0	33712	
4522	0	33728	
4523	0	33728	
4524	0	33732	
4525	0	33744	
4526	0	33728	
4527	0	33692	
4528	0	33656	
4529	0	33648	
4530	0	33664	
4531	0	33640	
4532	0	33600	
4533	0	33596	
4534	0	33500	
4535	0	33312	
4536	0	33188	
4537	0	33194	
4538	0	33268	
4539	0	33316	
4540	0	33392	
4541	0	33520	
4542	0	33568	
4543	0	33608	
4544	0	33628	
4545	0	33616	
4546	0	33580	
4547	0	33472	
4548	0	33260	
4549	0	33004	
4550	0	32872	
4551	0	32800	
4552	0	32752	
4553	0	32772	
4554	0	32768	
4555	0	32696	
4556	0	32592	
4557	0	32544	
4558	0	32584	
4559	0	32660	
4560	0	32770	
4561	0	32876	
4562	0	32884	
4563	0	32848	
4564	0	32788	
4565	0	32716	
4566	0	32652	
4567	0	32548	
4568	0	32540	
4569	0	32632	
4570	0	32756	
4571	0	32852	
4572	0	32872	
4573	0	32898	
4574	0	32960	
4575	0	32984	
4576	0	33024	
4577	0	33104	
4578	0	33170	
4579	0	33204	
4580	0	33154	
4581	0	33036	
4582	0	32832	
4583	0	32648	
4584	0	32544	
4585	0	32448	
4586	0	32388	
4587	0	32284	
4588	0	32196	
4589	0	32240	
4590	0	32386	
4591	0	32544	
4592	0	32772	
4593	0	32916	
4594	0	32864	
4595	0	32768	
4596	0	32736	
4597	0	32714	
4598	0	32692	
4599	0	32664	
4600	0	32708	
4601	0	32872	
4602	0	33084	
4603	0	33224	
4604	0	33292	
4605	0	33248	
4606	0	33168	
4607	0	33104	
4608	0	33000	
4609	0	32908	
4610	0	32884	
4611	0	32892	
4612	0	32984	
4613	0	33056	
4614	0	33036	
4615	0	33008	
4616	0	33032	
4617	0	33084	
4618	0	33176	
4619	0	33208	
4620	0	33284	
4621	0	33308	
4622	0	33336	
4623	0	33280	
4624	0	33192	
4625	0	33088	
4626	0	32996	
4627	0	33012	
4628	0	33064	
4629	0	33116	
4630	0	33184	
4631	0	33304	
4632	0	33488	
4633	0	33700	
4634	0	33908	
4635	0	34024	
4636	0	33948	
4637	0	33796	
4638	0	33664	
4639	0	33544	
4640	0	33522	
4641	0	33624	
4642	0	33776	
4643	0	33888	
4644	0	33952	
4645	0	34036	
4646	0	34080	
4647	0	34040	
4648	0	33928	
4649	0	33740	
4650	0	33592	
4651	0	33552	
4652	0	33628	
4653	0	33764	
4654	0	33908	
4655	0	34056	
4656	0	34196	
4657	0	34316	
4658	0	34384	
4659	0	34436	
4660	0	34464	
4661	0	34464	
4662	0	34408	
4663	0	34192	
4664	0	33900	
4665	0	33624	
4666	0	33468	
4667	0	33416	
4668	0	33500	
4669	0	33712	
4670	0	33976	
4671	0	34256	
4672	0	34484	
4673	0	34508	
4674	0	34440	
4675	0	34296	
4676	0	34132	
4677	0	34008	
4678	0	34016	
4679	0	34056	
4680	0	34020	
4681	0	33920	
4682	0	33912	
4683	0	33964	
4684	0	33992	
4685	0	33960	
4686	0	33800	
4687	0	33624	
4688	0	33496	
4689	0	33456	
4690	0	33460	
4691	0	33536	
4692	0	33626	
4693	0	33788	
4694	0	33888	
4695	0	33948	
4696	0	33968	
4697	0	33908	
4698	0	33912	
4699	0	34004	
4700	0	34120	
4701	0	34160	
4702	0	34156	
4703	0	34170	
4704	0	34220	
4705	0	34248	
4706	0	34216	
4707	0	34220	
4708	0	34324	
4709	0	34448	
4710	0	34484	
4711	0	34430	
4712	0	34352	
4713	0	34352	
4714	0	34340	
4715	0	34352	
4716	0	34388	
4717	0	34368	
4718	0	34296	
4719	0	34224	
4720	0	34128	
4721	0	34008	
4722	0	34032	
4723	0	34144	
4724	0	34304	
4725	0	34604	
4726	0	34928	
4727	0	35256	
4728	0	35544	
4729	0	35948	
4730	0	36394	
4731	0	36870	
4732	0	37160	
4733	0	37152	
4734	0	36988	
4735	0	36740	
4736	0	36384	
4737	0	36068	
4738	0	35924	
4739	0	35944	
4740	0	36000	
4741	0	36192	
4742	0	36420	
4743	0	36580	
4744	0	36568	
4745	0	36556	
4746	0	36604	
4747	0	36572	
4748	0	36600	
4749	0	36596	
4750	0	36572	
4751	0	36548	
4752	0	36488	
4753	0	36332	
4754	0	36056	
4755	0	35704	
4756	0	35536	
4757	0	35504	
4758	0	35516	
4759	0	35616	
4760	0	35732	
4761	0	35824	
4762	0	35826	
4763	0	35668	
4764	0	35348	
4765	0	34932	
4766	0	34360	
4767	0	33808	
4768	0	33240	
4769	0	32720	
4770	0	32252	
4771	0	31958	
4772	0	31764	
4773	0	31568	
4774	0	31616	
4775	0	31796	
4776	0	31980	
4777	0	32068	
4778	0	32128	
4779	0	32144	
4780	0	32084	
4781	0	31968	
4782	0	31760	
4783	0	31504	
4784	0	31204	
4785	0	30888	
4786	0	30608	
4787	0	30432	
4788	0	30384	
4789	0	30412	
4790	0	30424	
4791	0	30432	
4792	0	30384	
4793	0	30340	
4794	0	30346	
4795	0	30448	
4796	0	30542	
4797	0	30568	
4798	0	30616	
4799	0	30592	
4800	0	30440	
4801	0	30304	
4802	0	30392	
4803	0	30568	
4804	0	30618	
4805	0	30512	
4806	0	30444	
4807	0	30404	
4808	0	30424	
4809	0	30452	
4810	0	30480	
4811	0	30538	
4812	0	30620	
4813	0	30744	
4814	0	30820	
4815	0	30864	
4816	0	30832	
4817	0	30752	
4818	0	30768	
4819	0	30860	
4820	0	30976	
4821	0	30864	
4822	0	30608	
4823	0	30488	
4824	0	30536	
4825	0	30432	
4826	0	30024	
4827	0	29424	
4828	0	28648	
4829	0	27672	
4830	0	26500	
4831	0	25380	
4832	0	24440	
4833	0	23772	
4834	0	23361	
4835	0	22980	
4836	0	22770	
4837	0	22840	
4838	0	23250	
4839	0	23892	
4840	0	24696	
4841	0	25890	
4842	0	27496	
4843	0	29480	
4844	0	31800	
4845	0	34422	
4846	0	37184	
4847	0	39888	
4848	0	42468	
4849	0	45444	
4850	0	48776	
4851	0	52352	
4852	0	56040	
4853	0	59560	
4854	0	61776	
4855	0	62936	
4856	0	63520	
4857	0	63784	
4858	0	63864	
4859	0	63848	
4860	0	63800	
4861	0	63712	
4862	0	63596	
4863	0	61672	
4864	0	53008	
4865	0	45840	
4866	0	40084	
4867	0	35382	
4868	0	31336	
4869	0	28376	
4870	0	26680	
4871	0	25936	
4872	0	25452	
4873	0	24844	
4874	0	24012	
4875	0	22792	
4876	0	21244	
4877	0	19668	
4878	0	18448	
4879	0	17444	
4880	0	16802	
4881	0	16460	
4882	0	16318	
4883	0	16373	
4884	0	16638	
4885	0	17066	
4886	0	17456	
4887	0	17836	
4888	0	18200	
4889	0	18708	
4890	0	19232	
4891	0	19616	
4892	0	19982	
4893	0	20324	
4894	0	20598	
4895	0	20972	
4896	0	21440	
4897	0	21890	
4898	0	22452	
4899	0	23144	
4900	0	23834	
4901	0	24482	
4902	0	25116	
4903	0	25838	
4904	0	26492	
4905	0	27004	
4906	0	27520	
4907	0	28100	
4908	0	28730	
4909	0	29368	
4910	0	29948	
4911	0	30508	
4912	0	30924	
4913	0	31140	
4914	0	31288	
4915	0	31304	
4916	0	31064	
4917	0	30852	
4918	0	30888	
4919	0	31040	
4920	0	31160	
4921	0	31228	
4922	0	31292	
4923	0	31160	
4924	0	31028	
4925	0	30984	
4926	0	31136	
4927	0	31386	
4928	0	31628	
4929	0	31856	
4930	0	31928	
4931	0	31844	
4932	0	31700	
4933	0	31816	
4934	0	32076	
4935	0	32304	
4936	0	32448	
4937	0	32568	
4938	0	32656	
4939	0	32504	
4940	0	32076	
4941	0	31648	
4942	0	31480	
4943	0	31490	
4944	0	31580	
4945	0	31772	
4946	0	32100	
4947	0	32392	
4948	0	32592	
4949	0	32748	
4950	0	33064	
4951	0	33284	
4952	0	33352	
4953	0	33416	
4954	0	33412	
4955	0	33252	
4956	0	33068	
4957	0	32916	
4958	0	32764	
4959	0	32412	
4960	0	32076	
4961	0	32136	
4962	0	32500	
4963	0	32880	
4964	0	33164	
4965	0	33424	
4966	0	33480	
4967	0	33280	
4968	0	33180	
4969	0	33132	
4970	0	33120	
4971	0	33108	
4972	0	32948	
4973	0	32808	
4974	0	32800	
4975	0	32896	
4976	0	32988	
4977	0	33090	
4978	0	33176	
4979	0	33240	
4980	0	33348	
4981	0	33444	
4982	0	33568	
4983	0	33682	
4984	0	33744	
4985	0	33576	
4986	0	33448	
4987	0	33448	
4988	0	33480	
4989	0	33488	
4990	0	33544	
4991	0	33596	
4992	0	33516	
4993	0	33484	
4994	0	33688	
4995	0	34036	
4996	0	34360	
4997	0	34560	
4998	0	34572	
4999	0	34252	
5000	0	33856	
5001	0	33592	
5002	0	33432	
5003	0	33368	
5004	0	33344	
5005	0	33508	
5006	0	33680	
5007	0	33892	
5008	0	34216	
5009	0	34512	
5010	0	34564	
5011	0	34428	
5012	0	34048	
5013	0	33640	
5014	0	33512	
5015	0	33496	
5016	0	33536	
5017	0	33632	
5018	0	33720	
5019	0	33786	
5020	0	33952	
5021	0	34072	
5022	0	34076	
5023	0	33904	
5024	0	33720	
5025	0	33644	
5026	0	33572	
5027	0	33608	
5028	0	33608	
5029	0	33532	
5030	0	33460	
5031	0	33436	
5032	0	33480	
5033	0	33584	
5034	0	33652	
5035	0	33548	
5036	0	33472	
5037	0	33468	
5038	0	33440	
5039	0	33408	
5040	0	33424	
5041	0	33538	
5042	0	33680	
5043	0	33864	
5044	0	34136	
5045	0	34268	
5046	0	34204	
5047	0	34080	
5048	0	33746	
5049	0	33224	
5050	0	32852	
5051	0	32516	
5052	0	32296	
5053	0	32024	
5054	0	31772	
5055	0	31676	
5056	0	31646	
5057	0	31728	
5058	0	31856	
5059	0	31936	
5060	0	32100	
5061	0	32360	
5062	0	32744	
5063	0	33240	
5064	0	33680	
5065	0	33948	
5066	0	33908	
5067	0	33652	
5068	0	33376	
5069	0	33130	
5070	0	32912	
5071	0	32788	
5072	0	32772	
5073	0	32732	
5074	0	32716	
5075	0	32772	
5076	0	33016	
5077	0	33264	
5078	0	33364	
5079	0	33572	
5080	0	33940	
5081	0	34216	
5082	0	34348	
5083	0	34300	
5084	0	34108	
5085	0	33924	
5086	0	33732	
5087	0	33568	
5088	0	33400	
5089	0	33280	
5090	0	33212	
5091	0	33466	
5092	0	33786	
5093	0	33904	
5094	0	34000	
5095	0	34076	
5096	0	34064	
5097	0	34156	
5098	0	34456	
5099	0	34832	
5100	0	35160	
5101	0	35272	
5102	0	34996	
5103	0	34440	
5104	0	33868	
5105	0	33480	
5106	0	33224	
5107	0	33160	
5108	0	33180	
5109	0	33232	
5110	0	33268	
5111	0	33184	
5112	0	33248	
5113	0	33464	
5114	0	33464	
5115	0	33248	
5116	0	33080	
5117	0	33172	
5118	0	33452	
5119	0	33648	
5120	0	33652	
5121	0	33504	
5122	0	33360	
5123	0	33306	
5124	0	33344	
5125	0	33504	
5126	0	33588	
5127	0	33428	
5128	0	33092	
5129	0	32688	
5130	0	32492	
5131	0	32552	
5132	0	32576	
5133	0	32360	
5134	0	32196	
5135	0	32144	
5136	0	32204	
5137	0	32392	
5138	0	32704	
5139	0	32924	
5140	0	33112	
5141	0	33202	
5142	0	33124	
5143	0	33040	
5144	0	32964	
5145	0	32948	
5146	0	33108	
5147	0	33232	
5148	0	33132	
5149	0	32810	
5150	0	32464	
5151	0	32280	
5152	0	32036	
5153	0	31804	
5154	0	31624	
5155	0	31528	
5156	0	31618	
5157	0	31748	
5158	0	31776	
5159	0	31824	
5160	0	32024	
5161	0	32280	
5162	0	32424	
5163	0	32482	
5164	0	32472	
5165	0	32620	
5166	0	32852	
5167	0	32992	
5168	0	32940	
5169	0	32552	
5170	0	31976	
5171	0	31544	
5172	0	31536	
5173	0	31642	
5174	0	31784	
5175	0	31912	
5176	0	31944	
5177	0	31960	
5178	0	31930	
5179	0	31984	
5180	0	32116	
5181	0	32252	
5182	0	32360	
5183	0	32432	
5184	0	32464	
5185	0	32480	
5186	0	32484	
5187	0	32476	
5188	0	32508	
5189	0	32580	
5190	0	32488	
5191	0	32224	
5192	0	31984	
5193	0	31912	
5194	0	32088	
5195	0	32304	
5196	0	32492	
5197	0	32748	
5198	0	32976	
5199	0	32984	
5200	0	32868	
5201	0	32728	
5202	0	32540	
5203	0	32440	
5204	0	32418	
5205	0	32328	
5206	0	32184	
5207	0	32080	
5208	0	32116	
5209	0	32240	
5210	0	32480	
5211	0	32728	
5212	0	32920	
5213	0	33066	
5214	0	33084	
5215	0	32916	
5216	0	32728	
5217	0	32732	
5218	0	32862	
5219	0	33138	
5220	0	33472	
5221	0	33562	
5222	0	33576	
5223	0	33804	
5224	0	34122	
5225	0	34444	
5226	0	34620	
5227	0	34408	
5228	0	33916	
5229	0	33460	
5230	0	33168	
5231	0	32888	
5232	0	32752	
5233	0	32908	
5234	0	33242	
5235	0	33560	
5236	0	33632	
5237	0	33512	
5238	0	33382	
5239	0	33272	
5240	0	33242	
5241	0	33388	
5242	0	33536	
5243	0	33616	
5244	0	33828	
5245	0	34008	
5246	0	33976	
5247	0	33856	
5248	0	33834	
5249	0	33920	
5250	0	33868	
5251	0	33840	
5252	0	33840	
5253	0	33800	
5254	0	33738	
5255	0	33664	
5256	0	33652	
5257	0	33636	
5258	0	33560	
5259	0	33492	
5260	0	33452	
5261	0	33388	
5262	0	33344	
5263	0	33340	
5264	0	33340	
5265	0	33364	
5266	0	33436	
5267	0	33720	
5268	0	33964	
5269	0	34080	
5270	0	34152	
5271	0	34104	
5272	0	33932	
5273	0	33722	
5274	0	33576	
5275	0	33582	
5276	0	33728	
5277	0	33804	
5278	0	33704	
5279	0	33416	
5280	0	33100	
5281	0	33028	
5282	0	33188	
5283	0	33408	
5284	0	33556	
5285	0	33600	
5286	0	33624	
5287	0	33532	
5288	0	33380	
5289	0	33290	
5290	0	33132	
5291	0	32788	
5292	0	32516	
5293	0	32524	
5294	0	32726	
5295	0	32996	
5296	0	33296	
5297	0	33412	
5298	0	33420	
5299	0	33472	
5300	0	33496	
5301	0	33400	
5302	0	33148	
5303	0	32896	
5304	0	32756	
5305	0	32740	
5306	0	32812	
5307	0	32872	
5308	0	32976	
5309	0	33144	
5310	0	33260	
5311	0	33408	
5312	0	33476	
5313	0	33480	
5314	0	33508	
5315	0	33504	
5316	0	33588	
5317	0	33832	
5318	0	34032	
5319	0	33996	
5320	0	33768	
5321	0	33516	
5322	0	33432	
5323	0	33376	
5324	0	33424	
5325	0	33500	
5326	0	33552	
5327	0	33640	
5328	0	33700	
5329	0	33740	
5330	0	33744	
5331	0	33708	
5332	0	33644	
5333	0	33716	
5334	0	34080	
5335	0	34668	
5336	0	35120	
5337	0	35352	
5338	0	35552	
5339	0	35824	
5340	0	36056	
5341	0	36172	
5342	0	36168	
5343	0	36180	
5344	0	36316	
5345	0	36496	
5346	0	36568	
5347	0	36536	
5348	0	36380	
5349	0	36144	
5350	0	36000	
5351	0	35944	
5352	0	35912	
5353	0	35868	
5354	0	35788	
5355	0	35684	
5356	0	35516	
5357	0	35492	
5358	0	35824	
5359	0	36208	
5360	0	36376	
5361	0	36244	
5362	0	35932	
5363	0	35584	
5364	0	35424	
5365	0	35360	
5366	0	35284	
5367	0	35116	
5368	0	34884	
5369	0	34688	
5370	0	34528	
5371	0	34420	
5372	0	34336	
5373	0	34192	
5374	0	33888	
5375	0	33468	
5376	0	32996	
5377	0	32504	
5378	0	32008	
5379	0	31716	
5380	0	31600	
5381	0	31596	
5382	0	31632	
5383	0	31632	
5384	0	31474	
5385	0	31240	
5386	0	31060	
5387	0	30944	
5388	0	30916	
5389	0	30916	
5390	0	30832	
5391	0	30716	
5392	0	30560	
5393	0	30480	
5394	0	30452	
5395	0	30400	
5396	0	30440	
5397	0	30576	
5398	0	30716	
5399	0	30672	
5400	0	30432	
5401	0	30184	
5402	0	30112	
5403	0	30168	
5404	0	30260	
5405	0	30312	
5406	0	30260	
5407	0	30168	
5408	0	30148	
5409	0	30186	
5410	0	30176	
5411	0	30120	
5412	0	30088	
5413	0	30188	
5414	0	30308	
5415	0	30352	
5416	0	30362	
5417	0	30432	
5418	0	30554	
5419	0	30708	
5420	0	30812	
5421	0	30904	
5422	0	30932	
5423	0	30896	
5424	0	30772	
5425	0	30612	
5426	0	30560	
5427	0	30596	
5428	0	30528	
5429	0	30400	
5430	0	30196	
5431	0	29832	
5432	0	29282	
5433	0	28652	
5434	0	28028	
5435	0	27368	
5436	0	26672	
5437	0	25868	
5438	0	24992	
5439	0	24220	
5440	0	23690	
5441	0	23268	
5442	0	22920	
5443	0	22824	
5444	0	23114	
5445	0	23724	
5446	0	24414	
5447	0	25364	
5448	0	26680	
5449	0	28304	
5450	0	30252	
5451	0	32594	
5452	0	35240	
5453	0	38008	
5454	0	40812	
5455	0	43916	
5456	0	47456	
5457	0	51288	
5458	0	55128	
5459	0	58744	
5460	0	61368	
5461	0	62768	
5462	0	63478	
5463	0	63820	
5464	0	63948	
5465	0	63944	
5466	0	63908	
5467	0	63824	
5468	0	63720	
5469	0	63600	
5470	0	57060	
5471	0	49376	
5472	0	43096	
5473	0	38176	
5474	0	33980	
5475	0	30420	
5476	0	28068	
5477	0	26964	
5478	0	26442	
5479	0	25868	
5480	0	25048	
5481	0	23960	
5482	0	22576	
5483	0	21124	
5484	0	19800	
5485	0	18704	
5486	0	18034	
5487	0	17745	
5488	0	17468	
5489	0	17218	
5490	0	17076	
5491	0	17008	
5492	0	17040	
5493	0	17264	
5494	0	17574	
5495	0	17994	
5496	0	18472	
5497	0	18784	
5498	0	19036	
5499	0	19437	
5500	0	19888	
5501	0	20461	
5502	0	21096	
5503	0	21836	
5504	0	22616	
5505	0	23404	
5506	0	24176	
5507	0	24824	
5508	0	25442	
5509	0	26064	
5510	0	26676	
5511	0	27296	
5512	0	27876	
5513	0	28432	
5514	0	28968	
5515	0	29408	
5516	0	29700	
5517	0	29888	
5518	0	30036	
5519	0	30112	
5520	0	30232	
5521	0	30360	
5522	0	30412	
5523	0	30400	
5524	0	30376	
5525	0	30424	
5526	0	30498	
5527	0	30616	
5528	0	30788	
5529	0	30948	
5530	0	31008	
5531	0	31064	
5532	0	31132	
5533	0	31200	
5534	0	31226	
5535	0	31200	
5536	0	31180	
5537	0	31264	
5538	0	31452	
5539	0	31605	
5540	0	31672	
5541	0	31656	
5542	0	31696	
5543	0	31784	
5544	0	31840	
5545	0	31932	
5546	0	31976	
5547	0	31940	
5548	0	31936	
5549	0	31928	
5550	0	31888	
5551	0	31920	
5552	0	31960	
5553	0	31988	
5554	0	31988	
5555	0	31992	
5556	0	32002	
5557	0	32068	
5558	0	32140	
5559	0	32272	
5560	0	32454	
5561	0	32498	
5562	0	32500	
5563	0	32492	
5564	0	32504	
5565	0	32632	
5566	0	32816	
5567	0	32976	
5568	0	33052	
5569	0	33084	
5570	0	33012	
5571	0	32914	
5572	0	32784	
5573	0	32672	
5574	0	32620	
5575	0	32620	
5576	0	32668	
5577	0	32760	
5578	0	32924	
5579	0	33068	
5580	0	33064	
5581	0	33044	
5582	0	33012	
5583	0	33016	
5584	0	33072	
5585	0	33168	
5586	0	33224	
5587	0	33252	
5588	0	33214	
5589	0	33236	
5590	0	33296	
5591	0	33372	
5592	0	33440	
5593	0	33472	
5594	0	33464	
5595	0	33360	
5596	0	33264	
5597	0	33208	
5598	0	33228	
5599	0	33262	
5600	0	33288	
5601	0	33344	
5602	0	33408	
5603	0	33464	
5604	0	33528	
5605	0	33604	
5606	0	33608	
5607	0	33522	
5608	0	33408	
5609	0	33408	
5610	0	33440	
5611	0	33456	
5612	0	33476	
5613	0	33468	
5614	0	33440	
5615	0	33448	
5616	0	33472	
5617	0	33540	
5618	0	33648	
5619	0	33672	
5620	0	33704	
5621	0	33740	
5622	0	33736	
5623	0	33696	
5624	0	33676	
5625	0	33636	
5626	0	33600	
5627	0	33596	
5628	0	33560	
5629	0	33504	
5630	0	33472	
5631	0	33472	
5632	0	33476	
5633	0	33488	
5634	0	33488	
5635	0	33440	
5636	0	33348	
5637	0	33248	
5638	0	33260	
5639	0	33260	
5640	0	33240	
5641	0	33244	
5642	0	33312	
5643	0	33316	
5644	0	33272	
5645	0	33184	
5646	0	33032	
5647	0	32924	
5648	0	32876	
5649	0	32848	
5650	0	32852	
5651	0	32848	
5652	0	32828	
5653	0	32782	
5654	0	32784	
5655	0	32784	
5656	0	32728	
5657	0	32604	
5658	0	32516	
5659	0	32480	
5660	0	32420	
5661	0	32362	
5662	0	32352	
5663	0	32396	
5664	0	32424	
5665	0	32464	
5666	0	32480	
5667	0	32452	
5668	0	32428	
5669	0	32338	
5670	0	32256	
5671	0	32208	
5672	0	32228	
5673	0	32256	
5674	0	32300	
5675	0	32344	
5676	0	32384	
5677	0	32400	
5678	0	32428	
5679	0	32488	
5680	0	32568	
5681	0	32640	
5682	0	32720	
5683	0	32802	
5684	0	32892	
5685	0	32976	
5686	0	33028	
5687	0	33088	
5688	0	33128	
5689	0	33160	
5690	0	33184	
5691	0	33156	
5692	0	33170	
5693	0	33242	
5694	0	33368	
5695	0	33516	
5696	0	33676	
5697	0	33776	
5698	0	33796	
5699	0	33756	
5700	0	33724	
5701	0	33724	
5702	0	33684	
5703	0	33628	
5704	0	33620	
5705	0	33664	
5706	0	33694	
5707	0	33696	
5708	0	33660	
5709	0	33644	
5710	0	33688	
5711	0	33712	
5712	0	33640	
5713	0	33516	
5714	0	33400	
5715	0	33344	
5716	0	33364	
5717	0	33380	
5718	0	33428	
5719	0	33548	
5720	0	33608	
5721	0	33492	
5722	0	33380	
5723	0	33336	
5724	0	33356	
5725	0	33352	
5726	0	33304	
5727	0	33256	
5728	0	33204	
5729	0	33168	
5730	0	33136	
5731	0	33132	
5732	0	33140	
5733	0	33100	
5734	0	33056	
5735	0	33040	
5736	0	33056	
5737	0	33042	
5738	0	33000	
5739	0	32976	
5740	0	32952	
5741	0	32960	
5742	0	32960	
5743	0	32916	
5744	0	32860	
5745	0	32796	
5746	0	32792	
5747	0	32828	
5748	0	32826	
5749	0	32776	
5750	0	32708	
5751	0	32672	
5752	0	32696	
5753	0	32706	
5754	0	32674	
5755	0	32608	
5756	0	32574	
5757	0	32580	
5758	0	32656	
5759	0	32684	
5760	0	32708	
5761	0	32712	
5762	0	32688	
5763	0	32672	
5764	0	32640	
5765	0	32608	
5766	0	32568	
5767	0	32508	
5768	0	32474	
5769	0	32434	
5770	0	32386	
5771	0	32380	
5772	0	32408	
5773	0	32404	
5774	0	32400	
5775	0	32416	
5776	0	32450	
5777	0	32492	
5778	0	32520	
5779	0	32508	
5780	0	32448	
5781	0	32400	
5782	0	32372	
5783	0	32380	
5784	0	32404	
5785	0	32428	
5786	0	32456	
5787	0	32480	
5788	0	32480	
5789	0	32460	
5790	0	32458	
5791	0	32456	
5792	0	32444	
5793	0	32476	
5794	0	32544	
5795	0	32600	
5796	0	32660	
5797	0	32696	
5798	0	32720	
5799	0	32724	
5800	0	32720	
5801	0	32688	
5802	0	32600	
5803	0	32532	
5804	0	32536	
5805	0	32576	
5806	0	32632	
5807	0	32688	
5808	0	32732	
5809	0	32770	
5810	0	32776	
5811	0	32828	
5812	0	32896	
5813	0	32928	
5814	0	32924	
5815	0	32928	
5816	0	32936	
5817	0	32940	
5818	0	32968	
5819	0	32976	
5820	0	32980	
5821	0	32992	
5822	0	32996	
5823	0	33040	
5824	0	33102	
5825	0	33168	
5826	0	33276	
5827	0	33328	
5828	0	33364	
5829	0	33360	
5830	0	33408	
5831	0	33452	
5832	0	33468	
5833	0	33436	
5834	0	33456	
5835	0	33504	
5836	0	33504	
5837	0	33530	
5838	0	33536	
5839	0	33556	
5840	0	33588	
5841	0	33624	
5842	0	33660	
5843	0	33720	
5844	0	33728	
5845	0	33756	
5846	0	33824	
5847	0	33868	
5848	0	33920	
5849	0	33944	
5850	0	33928	
5851	0	33952	
5852	0	33952	
5853	0	33956	
5854	0	33940	
5855	0	33940	
5856	0	33940	
5857	0	33896	
5858	0	33832	
5859	0	33810	
5860	0	33808	
5861	0	33828	
5862	0	33824	
5863	0	33816	
5864	0	33820	
5865	0	33816	
5866	0	33788	
5867	0	33788	
5868	0	33800	
5869	0	33828	
5870	0	33852	
5871	0	33856	
5872	0	33848	
5873	0	33824	
5874	0	33828	
5875	0	33856	
5876	0	33864	
5877	0	33844	
5878	0	33832	
5879	0	33824	
5880	0	33788	
5881	0	33752	
5882	0	33720	
5883	0	33704	
5884	0	33708	
5885	0	33700	
5886	0	33692	
5887	0	33696	
5888	0	33728	
5889	0	33752	
5890	0	33760	
5891	0	33696	
5892	0	33600	
5893	0	33562	
5894	0	33540	
5895	0	33510	
5896	0	33496	
5897	0	33436	
5898	0	33352	
5899	0	33306	
5900	0	33312	
5901	0	33372	
5902	0	33408	
5903	0	33408	
5904	0	33344	
5905	0	33272	
5906	0	33240	
5907	0	33228	
5908	0	33216	
5909	0	33220	
5910	0	33244	
5911	0	33208	
5912	0	33140	
5913	0	33108	
5914	0	33092	
5915	0	33078	
5916	0	33084	
5917	0	33084	
5918	0	33056	
5919	0	33016	
5920	0	33040	
5921	0	33072	
5922	0	33062	
5923	0	33048	
5924	0	32992	
5925	0	32928	
5926	0	32876	
5927	0	32840	
5928	0	32816	
5929	0	32804	
5930	0	32856	
5931	0	32900	
5932	0	32928	
5933	0	32904	
5934	0	32848	
5935	0	32760	
5936	0	32704	
5937	0	32688	
5938	0	32718	
5939	0	32804	
5940	0	32900	
5941	0	32932	
5942	0	32976	
5943	0	33037	
5944	0	33128	
5945	0	33220	
5946	0	33300	
5947	0	33388	
5948	0	33476	
5949	0	33616	
5950	0	33788	
5951	0	33932	
5952	0	34008	
5953	0	34032	
5954	0	34068	
5955	0	34076	
5956	0	34048	
5957	0	34024	
5958	0	34004	
5959	0	34004	
5960	0	34084	
5961	0	34128	
5962	0	34140	
5963	0	34120	
5964	0	34096	
5965	0	34044	
5966	0	34032	
5967	0	34056	
5968	0	34164	
5969	0	34338	
5970	0	34592	
5971	0	34880	
5972	0	35208	
5973	0	35548	
5974	0	35896	
5975	0	36224	
5976	0	36508	
5977	0	36680	
5978	0	36836	
5979	0	36964	
5980	0	37024	
5981	0	36996	
5982	0	36968	
5983	0	36940	
5984	0	36920	
5985	0	36848	
5986	0	36724	
5987	0	36632	
5988	0	36512	
5989	0	36384	
5990	0	36236	
5991	0	36122	
5992	0	36096	
5993	0	36104	
5994	0	36084	
5995	0	36048	
5996	0	36020	
5997	0	35980	
5998	0	35896	
5999	0	35788	
6000	0	35634	
6001	0	35504	
6002	0	35412	
6003	0	35288	
6004	0	35144	
6005	0	35008	
6006	0	34784	
6007	0	34548	
6008	0	34336	
6009	0	34092	
6010	0	33748	
6011	0	33344	
6012	0	32876	
6013	0	32424	
6014	0	32016	
6015	0	31664	
6016	0	31392	
6017	0	31240	
6018	0	31184	
6019	0	31140	
6020	0	31088	
6021	0	31056	
6022	0	31036	
6023	0	30960	
6024	0	30864	
6025	0	30756	
6026	0	30612	
6027	0	30464	
6028	0	30336	
6029	0	30248	
6030	0	30184	
6031	0	30154	
6032	0	30112	
6033	0	30128	
6034	0	30176	
6035	0	30208	
6036	0	30236	
6037	0	30256	
6038	0	30272	
6039	0	30248	
6040	0	30240	
6041	0	30242	
6042	0	30260	
6043	0	30280	
6044	0	30308	
6045	0	30320	
6046	0	30348	
6047	0	30364	
6048	0	30360	
6049	0	30360	
6050	0	30348	
6051	0	30324	
6052	0	30330	
6053	0	30348	
6054	0	30372	
6055	0	30432	
6056	0	30482	
6057	0	30532	
6058	0	30576	
6059	0	30620	
6060	0	30628	
6061	0	30610	
6062	0	30616	
6063	0	30620	
6064	0	30588	
6065	0	30524	
6066	0	30376	
6067	0	30124	
6068	0	29692	
6069	0	29028	
6070	0	28136	
6071	0	27104	
6072	0	25992	
6073	0	24828	
6074	0	23716	
6075	0	22768	
6076	0	22104	
6077	0	21688	
6078	0	21425	
6079	0	21408	
6080	0	21612	
6081	0	22068	
6082	0	22588	
6083	0	23226	
6084	0	24268	
6085	0	25824	
6086	0	27866	
6087	0	30272	
6088	0	32984	
6089	0	36130	
6090	0	39476	
6091	0	43160	
6092	0	47312	
6093	0	51636	
6094	0	56026	
6095	0	59800	
6096	0	62044	
6097	0	63232	
6098	0	63828	
6099	0	64096	
6100	0	64172	
6101	0	64168	
6102	0	64108	
6103	0	64016	
6104	0	63908	
6105	0	63808	
6106	0	63680	
6107	0	57176	
6108	0	51368	
6109	0	47024	
6110	0	43148	
6111	0	39000	
6112	0	35024	
6113	0	31788	
6114	0	29188	
6115	0	26780	
6116	0	24724	
6117	0	23164	
6118	0	22016	
6119	0	21100	
6120	0	20384	
6121	0	19848	
6122	0	19408	
6123	0	19012	
6124	0	18600	
6125	0	18304	
6126	0	18218	
6127	0	18364	
6128	0	18640	
6129	0	18902	
6130	0	19152	
6131	0	19418	
6132	0	19744	
6133	0	20220	
6134	0	20768	
6135	0	21352	
6136	0	21868	
6137	0	22352	
6138	0	22808	
6139	0	23364	
6140	0	24024	
6141	0	24716	
6142	0	25364	
6143	0	25928	
6144	0	26488	
6145	0	27044	
6146	0	27554	
6147	0	28032	
6148	0	28448	
6149	0	28784	
6150	0	28980	
6151	0	29120	
6152	0	29192	
6153	0	29144	
6154	0	29072	
6155	0	29180	
6156	0	29360	
6157	0	29484	
6158	0	29582	
6159	0	29676	
6160	0	29792	
6161	0	29896	
6162	0	29984	
6163	0	30044	
6164	0	30068	
6165	0	30094	
6166	0	30112	
6167	0	30132	
6168	0	30192	
6169	0	30282	
6170	0	30360	
6171	0	30424	
6172	0	30516	
6173	0	30592	
6174	0	30624	
6175	0	30664	
6176	0	30708	
6177	0	30748	
6178	0	30808	
6179	0	30864	
6180	0	30928	
6181	0	30980	
6182	0	31052	
6183	0	31136	
6184	0	31198	
6185	0	31252	
6186	0	31284	
6187	0	31304	
6188	0	31344	
6189	0	31392	
6190	0	31428	
6191	0	31468	
6192	0	31520	
6193	0	31552	
6194	0	31544	
6195	0	31564	
6196	0	31564	
6197	0	31548	
6198	0	31564	
6199	0	31592	
6200	0	31668	
6201	0	31722	
6202	0	31776	
6203	0	31808	
6204	0	31824	
6205	0	31844	
6206	0	31872	
6207	0	31936	
6208	0	31968	
6209	0	31989	
6210	0	32044	
6211	0	32100	
6212	0	32124	
6213	0	32144	
6214	0	32140	
6215	0	32184	
6216	0	32240	
6217	0	32252	
6218	0	32258	
6219	0	32272	
6220	0	32304	
6221	0	32328	
6222	0	32336	
6223	0	32364	
6224	0	32428	
6225	0	32474	
6226	0	32512	
6227	0	32544	
6228	0	32568	
6229	0	32592	
6230	0	32648	
6231	0	32692	
6232	0	32680	
6233	0	32664	
6234	0	32660	
6235	0	32670	
6236	0	32668	
6237	0	32696	
6238	0	32720	
6239	0	32736	
6240	0	32756	
6241	0	32720	
6242	0	32660	
6243	0	32616	
6244	0	32588	
6245	0	32576	
6246	0	32600	
6247	0	32648	
6248	0	32680	
6249	0	32688	
6250	0	32714	
6251	0	32704	
6252	0	32704	
6253	0	32736	
6254	0	32704	
6255	0	32636	
6256	0	32644	
6257	0	32672	
6258	0	32714	
6259	0	32730	
6260	0	32704	
6261	0	32716	
6262	0	32736	
6263	0	32732	
6264	0	32724	
6265	0	32730	
6266	0	32720	
6267	0	32684	
6268	0	32660	
6269	0	32656	
6270	0	32622	
6271	0	32568	
6272	0	32564	
6273	0	32556	
6274	0	32544	
6275	0	32504	
6276	0	32444	
6277	0	32436	
6278	0	32416	
6279	0	32392	
6280	0	32364	
6281	0	32312	
6282	0	32268	
6283	0	32280	
6284	0	32312	
6285	0	32336	
6286	0	32385	
6287	0	32384	
6288	0	32336	
6289	0	32280	
6290	0	32212	
6291	0	32160	
6292	0	32052	
6293	0	32008	
6294	0	31992	
6295	0	32004	
6296	0	32040	
6297	0	32056	
6298	0	32016	
6299	0	31988	
6300	0	31936	
6301	0	31916	
6302	0	31904	
6303	0	31894	
6304	0	31896	
6305	0	31900	
6306	0	31876	
6307	0	31804	
6308	0	31748	
6309	0	31748	
6310	0	31800	
6311	0	31864	
6312	0	31956	
6313	0	32032	
6314	0	32088	
6315	0	32112	
6316	0	32088	
6317	0	32084	
6318	0	32108	
6319	0	32168	
6320	0	32208	
6321	0	32240	
6322	0	32292	
6323	0	32352	
6324	0	32410	
6325	0	32460	
6326	0	32536	
6327	0	32624	
6328	0	32692	
6329	0	32776	
6330	0	32828	
6331	0	32914	
6332	0	33024	
6333	0	33084	
6334	0	33120	
6335	0	33164	
6336	0	33176	
6337	0	33172	
6338	0	33224	
6339	0	33284	
6340	0	33324	
6341	0	33316	
6342	0	33296	
6343	0	33264	
6344	0	33240	
6345	0	33208	
6346	0	33184	
6347	0	33168	
6348	0	33148	
6349	0	33120	
6350	0	33120	
6351	0	33122	
6352	0	33136	
6353	0	33114	
6354	0	33080	
6355	0	33056	
6356	0	32976	
6357	0	32912	
6358	0	32886	
6359	0	32904	
6360	0	32928	
6361	0	32940	
6362	0	32926	
6363	0	32904	
6364	0	32884	
6365	0	32892	
6366	0	32900	
6367	0	32890	
6368	0	32864	
6369	0	32832	
6370	0	32824	
6371	0	32832	
6372	0	32804	
6373	0	32812	
6374	0	32832	
6375	0	32824	
6376	0	32820	
6377	0	32792	
6378	0	32778	
6379	0	32772	
6380	0	32774	
6381	0	32732	
6382	0	32680	
6383	0	32688	
6384	0	32664	
6385	0	32632	
6386	0	32600	
6387	0	32576	
6388	0	32592	
6389	0	32628	
6390	0	32632	
6391	0	32624	
6392	0	32604	
6393	0	32624	
6394	0	32644	
6395	0	32632	
6396	0	32624	
6397	0	32640	
6398	0	32604	
6399	0	32584	
6400	0	32580	
6401	0	32570	
6402	0	32564	
6403	0	32594	
6404	0	32608	
6405	0	32612	
6406	0	32618	
6407	0	32602	
6408	0	32584	
6409	0	32604	
6410	0	32608	
6411	0	32618	
6412	0	32616	
6413	0	32608	
6414	0	32616	
6415	0	32624	
6416	0	32632	
6417	0	32648	
6418	0	32676	
6419	0	32736	
6420	0	32736	
6421	0	32736	
6422	0	32748	
6423	0	32762	
6424	0	32768	
6425	0	32764	
6426	0	32724	
6427	0	32672	
6428	0	32626	
6429	0	32656	
6430	0	32700	
6431	0	32716	
6432	0	32752	
6433	0	32760	
6434	0	32792	
6435	0	32832	
6436	0	32880	
6437	0	32972	
6438	0	33060	
6439	0	33032	
6440	0	32984	
6441	0	33004	
6442	0	32984	
6443	0	32896	
6444	0	32828	
6445	0	32822	
6446	0	32824	
6447	0	32854	
6448	0	32888	
6449	0	32912	
6450	0	32916	
6451	0	32936	
6452	0	32982	
6453	0	33032	
6454	0	33068	
6455	0	33098	
6456	0	33128	
6457	0	33108	
6458	0	33092	
6459	0	33120	
6460	0	33160	
6461	0	33160	
6462	0	33186	
6463	0	33200	
6464	0	33220	
6465	0	33226	
6466	0	33232	
6467	0	33240	
6468	0	33246	
6469	0	33284	
6470	0	33336	
6471	0	33348	
6472	0	33344	
6473	0	33312	
6474	0	33324	
6475	0	33356	
6476	0	33392	
6477	0	33384	
6478	0	33284	
6479	0	33196	
6480	0	33172	
6481	0	33220	
6482	0	33296	
6483	0	33332	
6484	0	33364	
6485	0	33440	
6486	0	33444	
6487	0	33432	
6488	0	33440	
6489	0	33472	
6490	0	33504	
6491	0	33568	
6492	0	33584	
6493	0	33632	
6494	0	33602	
6495	0	33492	
6496	0	33364	
6497	0	33364	
6498	0	33416	
6499	0	33472	
6500	0	33548	
6501	0	33596	
6502	0	33600	
6503	0	33600	
6504	0	33612	
6505	0	33600	
6506	0	33580	
6507	0	33520	
6508	0	33488	
6509	0	33476	
6510	0	33488	
6511	0	33504	
6512	0	33496	
6513	0	33492	
6514	0	33536	
6515	0	33480	
6516	0	33372	
6517	0	33392	
6518	0	33388	
6519	0	33428	
6520	0	33472	
6521	0	33484	
6522	0	33456	
6523	0	33416	
6524	0	33408	
6525	0	33416	
6526	0	33416	
6527	0	33408	
6528	0	33416	
6529	0	33408	
6530	0	33404	
6531	0	33368	
6532	0	33356	
6533	0	33308	
6534	0	33260	
6535	0	33248	
6536	0	33260	
6537	0	33284	
6538	0	33312	
6539	0	33320	
6540	0	33322	
6541	0	33324	
6542	0	33284	
6543	0	33256	
6544	0	33272	
6545	0	33268	
6546	0	33228	
6547	0	33164	
6548	0	33096	
6549	0	33052	
6550	0	33044	
6551	0	33064	
6552	0	33082	
6553	0	33066	
6554	0	33080	
6555	0	33088	
6556	0	33046	
6557	0	33004	
6558	0	32984	
6559	0	32976	
6560	0	32996	
6561	0	33020	
6562	0	33048	
6563	0	33048	
6564	0	33008	
6565	0	32976	
6566	0	32954	
6567	0	32936	
6568	0	32896	
6569	0	32874	
6570	0	32840	
6571	0	32812	
6572	0	32816	
6573	0	32848	
6574	0	32864	
6575	0	32868	
6576	0	32848	
6577	0	32872	
6578	0	32812	
6579	0	32760	
6580	0	32764	
6581	0	32796	
6582	0	32880	
6583	0	32908	
6584	0	32856	
6585	0	32808	
6586	0	32796	
6587	0	32768	
6588	0	32736	
6589	0	32716	
6590	0	32676	
6591	0	32672	
6592	0	32708	
6593	0	32760	
6594	0	32736	
6595	0	32672	
6596	0	32644	
6597	0	32680	
6598	0	32708	
6599	0	32648	
6600	0	32680	
6601	0	32772	
6602	0	32748	
6603	0	32660	
6604	0	32580	
6605	0	32568	
6606	0	32508	
6607	0	32520	
6608	0	32564	
6609	0	32576	
6610	0	32600	
6611	0	32648	
6612	0	32680	
6613	0	32664	
6614	0	32624	
6615	0	32588	
6616	0	32612	
6617	0	32648	
6618	0	32664	
6619	0	32688	
6620	0	32680	
6621	0	32676	
6622	0	32664	
6623	0	32640	
6624	0	32572	
6625	0	32484	
6626	0	32444	
6627	0	32464	
6628	0	32488	
6629	0	32504	
6630	0	32528	
6631	0	32556	
6632	0	32584	
6633	0	32596	
6634	0	32596	
6635	0	32620	
6636	0	32692	
6637	0	32712	
6638	0	32736	
6639	0	32768	
6640	0	32810	
6641	0	32856	
6642	0	32864	
6643	0	32916	
6644	0	32980	
6645	0	33080	
6646	0	33196	
6647	0	33324	
6648	0	33448	
6649	0	33554	
6650	0	33676	
6651	0	33860	
6652	0	34028	
6653	0	34120	
6654	0	34188	
6655	0	34250	
6656	0	34292	
6657	0	34276	
6658	0	34228	
6659	0	34204	
6660	0	34168	
6661	0	34164	
6662	0	34164	
6663	0	34192	
6664	0	34240	
6665	0	34288	
6666	0	34304	
6667	0	34248	
6668	0	34230	
6669	0	34268	
6670	0	34384	
6671	0	34624	
6672	0	34916	
6673	0	35264	
6674	0	35648	
6675	0	36032	
6676	0	36336	
6677	0	36512	
6678	0	36672	
6679	0	36788	
6680	0	36848	
6681	0	36884	
6682	0	36900	
6683	0	36920	
6684	0	36948	
6685	0	36904	
6686	0	36872	
6687	0	36812	
6688	0	36690	
6689	0	36504	
6690	0	36304	
6691	0	36144	
6692	0	36088	
6693	0	36024	
6694	0	36024	
6695	0	36164	
6696	0	36232	
6697	0	36216	
6698	0	36200	
6699	0	36160	
6700	0	36034	
6701	0	35904	
6702	0	35776	
6703	0	35642	
6704	0	35552	
6705	0	35420	
6706	0	35234	
6707	0	35008	
6708	0	34760	
6709	0	34468	
6710	0	34130	
6711	0	33736	
6712	0	33332	
6713	0	32928	
6714	0	32586	
6715	0	32300	
6716	0	32056	
6717	0	31822	
6718	0	31640	
6719	0	31512	
6720	0	31424	
6721	0	31346	
6722	0	31328	
6723	0	31356	
6724	0	31324	
6725	0	31244	
6726	0	31052	
6727	0	30808	
6728	0	30644	
6729	0	30544	
6730	0	30480	
6731	0	30396	
6732	0	30364	
6733	0	30376	
6734	0	30400	
6735	0	30434	
6736	0	30504	
6737	0	30520	
6738	0	30540	
6739	0	30596	
6740	0	30594	
6741	0	30580	
6742	0	30588	
6743	0	30610	
6744	0	30664	
6745	0	30692	
6746	0	30680	
6747	0	30672	
6748	0	30672	
6749	0	30736	
6750	0	30780	
6751	0	30784	
6752	0	30788	
6753	0	30768	
6754	0	30773	
6755	0	30806	
6756	0	30816	
6757	0	30796	
6758	0	30828	
6759	0	30856	
6760	0	30852	
6761	0	30816	
6762	0	30804	
6763	0	30788	
6764	0	30724	
6765	0	30584	
6766	0	30364	
6767	0	30060	
6768	0	29536	
6769	0	28698	
6770	0	27700	
6771	0	26632	
6772	0	25568	
6773	0	24500	
6774	0	23512	
6775	0	22688	
6776	0	22110	
6777	0	21700	
6778	0	21432	
6779	0	21516	
6780	0	21952	
6781	0	22504	
6782	0	22996	
6783	0	23792	
6784	0	25148	
6785	0	26976	
6786	0	29262	
6787	0	31780	
6788	0	34730	
6789	0	38012	
6790	0	41440	
6791	0	45376	
6792	0	49520	
6793	0	53852	
6794	0	57952	
6795	0	61160	
6796	0	62928	
6797	0	63852	
6798	0	64300	
6799	0	64468	
6800	0	64520	
6801	0	64472	
6802	0	64392	
6803	0	64296	
6804	0	64188	
6805	0	64064	
6806	0	62176	
6807	0	55832	
6808	0	51116	
6809	0	47460	
6810	0	43704	
6811	0	39732	
6812	0	36178	
6813	0	33352	
6814	0	30874	
6815	0	28376	
6816	0	26208	
6817	0	24536	
6818	0	23208	
6819	0	22172	
6820	0	21364	
6821	0	20676	
6822	0	20100	
6823	0	19600	
6824	0	19164	
6825	0	18928	
6826	0	18984	
6827	0	19216	
6828	0	19484	
6829	0	19696	
6830	0	19938	
6831	0	20276	
6832	0	20740	
6833	0	21276	
6834	0	21784	
6835	0	22244	
6836	0	22652	
6837	0	23080	
6838	0	23520	
6839	0	24052	
6840	0	24690	
6841	0	25400	
6842	0	26048	
6843	0	26616	
6844	0	27168	
6845	0	27604	
6846	0	27896	
6847	0	28152	
6848	0	28404	
6849	0	28592	
6850	0	28764	
6851	0	28932	
6852	0	29074	
6853	0	29078	
6854	0	29192	
6855	0	29296	
6856	0	29344	
6857	0	29400	
6858	0	29512	
6859	0	29628	
6860	0	29712	
6861	0	29768	
6862	0	29842	
6863	0	29924	
6864	0	30048	
6865	0	30168	
6866	0	30264	
6867	0	30324	
6868	0	30396	
6869	0	30464	
6870	0	30516	
6871	0	30560	
6872	0	30604	
6873	0	30580	
6874	0	30560	
6875	0	30588	
6876	0	30604	
6877	0	30674	
6878	0	30820	
6879	0	30872	
6880	0	30924	
6881	0	30966	
6882	0	30952	
6883	0	30956	
6884	0	31024	
6885	0	31104	
6886	0	31196	
6887	0	31260	
6888	0	31296	
6889	0	31372	
6890	0	31484	
6891	0	31496	
6892	0	31512	
6893	0	31464	
6894	0	31408	
6895	0	31420	
6896	0	31448	
6897	0	31516	
6898	0	31620	
6899	0	31664	
6900	0	31680	
6901	0	31704	
6902	0	31754	
6903	0	31784	
6904	0	31802	
6905	0	31778	
6906	0	31816	
6907	0	31856	
6908	0	31860	
6909	0	31870	
6910	0	31884	
6911	0	31898	
6912	0	31900	
6913	0	31928	
6914	0	31970	
6915	0	31972	
6916	0	32020	
6917	0	32128	
6918	0	32170	
6919	0	32192	
6920	0	32180	
6921	0	32152	
6922	0	32164	
6923	0	32084	
6924	0	32126	
6925	0	32192	
6926	0	32276	
6927	0	32338	
6928	0	32360	
6929	0	32332	
6930	0	32340	
6931	0	32356	
6932	0	32336	
6933	0	32344	
6934	0	32368	
6935	0	32392	
6936	0	32404	
6937	0	32436	
6938	0	32460	
6939	0	32456	
6940	0	32444	
6941	0	32436	
6942	0	32464	
6943	0	32466	
6944	0	32496	
6945	0	32512	
6946	0	32528	
6947	0	32568	
6948	0	32630	
6949	0	32668	
6950	0	32680	
6951	0	32720	
6952	0	32712	
6953	0	32676	
6954	0	32632	
6955	0	32628	
6956	0	32612	
6957	0	32576	
6958	0	32568	
6959	0	32576	
6960	0	32640	
6961	0	32696	
6962	0	32696	
6963	0	32676	
6964	0	32648	
6965	0	32640	
6966	0	32576	
6967	0	32528	
6968	0	32506	
6969	0	32520	
6970	0	32528	
6971	0	32492	
6972	0	32458	
6973	0	32472	
6974	0	32472	
6975	0	32464	
6976	0	32416	
6977	0	32396	
6978	0	32352	
6979	0	32288	
6980	0	32224	
6981	0	32208	
6982	0	32224	
6983	0	32264	
6984	0	32264	
6985	0	32240	
6986	0	32176	
6987	0	32112	
6988	0	32108	
6989	0	32130	
6990	0	32188	
6991	0	32244	
6992	0	32292	
6993	0	32304	
6994	0	32292	
6995	0	32264	
6996	0	32228	
6997	0	32106	
6998	0	32006	
6999	0	31984	
7000	0	32008	
7001	0	32036	
7002	0	32064	
7003	0	32080	
7004	0	32064	
7005	0	32044	
7006	0	32044	
7007	0	32084	
7008	0	32176	
7009	0	32268	
7010	0	32324	
7011	0	32232	
7012	0	32144	
7013	0	32116	
7014	0	32092	
7015	0	32032	
7016	0	32056	
7017	0	32104	
7018	0	32218	
7019	0	32376	
7020	0	32488	
7021	0	32544	
7022	0	32572	
7023	0	32592	
7024	0	32692	
7025	0	32752	
7026	0	32800	
7027	0	32876	
7028	0	32940	
7029	0	32972	
7030	0	32992	
7031	0	33088	
7032	0	33142	
7033	0	33248	
7034	0	33344	
7035	0	33372	
7036	0	33432	
7037	0	33476	
7038	0	33492	
7039	0	33496	
7040	0	33480	
7041	0	33456	
7042	0	33524	
7043	0	33588	
7044	0	33628	
7045	0	33620	
7046	0	33544	
7047	0	33440	
7048	0	33368	
7049	0	33328	
7050	0	33312	
7051	0	33284	
7052	0	33220	
7053	0	33174	
7054	0	33206	
7055	0	33240	
7056	0	33280	
7057	0	33248	
7058	0	33188	
7059	0	33178	
7060	0	33220	
7061	0	33216	
7062	0	33208	
7063	0	33224	
7064	0	33280	
7065	0	33276	
7066	0	33296	
7067	0	33368	
7068	0	33344	
7069	0	33276	
7070	0	33212	
7071	0	33076	
7072	0	32948	
7073	0	32920	
7074	0	32910	
7075	0	32936	
7076	0	33004	
7077	0	33024	
7078	0	33000	
7079	0	33006	
7080	0	33040	
7081	0	33084	
7082	0	33084	
7083	0	33084	
7084	0	33056	
7085	0	33024	
7086	0	32936	
7087	0	32856	
7088	0	32812	
7089	0	32802	
7090	0	32848	
7091	0	32888	
7092	0	32864	
7093	0	32748	
7094	0	32680	
7095	0	32708	
7096	0	32712	
7097	0	32704	
7098	0	32704	
7099	0	32756	
7100	0	32868	
7101	0	32936	
7102	0	32952	
7103	0	32984	
7104	0	32936	
7105	0	32852	
7106	0	32780	
7107	0	32688	
7108	0	32672	
7109	0	32748	
7110	0	32856	
7111	0	32912	
7112	0	32908	
7113	0	32856	
7114	0	32928	
7115	0	33008	
7116	0	32976	
7117	0	32876	
7118	0	32848	
7119	0	32896	
7120	0	32956	
7121	0	32940	
7122	0	32880	
7123	0	32922	
7124	0	32980	
7125	0	32996	
7126	0	32912	
7127	0	32844	
7128	0	32804	
7129	0	32800	
7130	0	32740	
7131	0	32738	
7132	0	32832	
7133	0	32904	
7134	0	32916	
7135	0	32916	
7136	0	32964	
7137	0	33042	
7138	0	33076	
7139	0	33056	
7140	0	32984	
7141	0	32976	
7142	0	33056	
7143	0	33184	
7144	0	33300	
7145	0	33264	
7146	0	33170	
7147	0	33096	
7148	0	33104	
7149	0	33160	
7150	0	33216	
7151	0	33218	
7152	0	33200	
7153	0	33244	
7154	0	33248	
7155	0	33266	
7156	0	33216	
7157	0	33224	
7158	0	33248	
7159	0	33288	
7160	0	33284	
7161	0	33366	
7162	0	33440	
7163	0	33476	
7164	0	33472	
7165	0	33482	
7166	0	33432	
7167	0	33364	
7168	0	33336	
7169	0	33356	
7170	0	33360	
7171	0	33456	
7172	0	33530	
7173	0	33552	
7174	0	33440	
7175	0	33432	
7176	0	33500	
7177	0	33556	
7178	0	33620	
7179	0	33648	
7180	0	33652	
7181	0	33672	
7182	0	33730	
7183	0	33796	
7184	0	33812	
7185	0	33714	
7186	0	33596	
7187	0	33568	
7188	0	33576	
7189	0	33560	
7190	0	33560	
7191	0	33584	
7192	0	33580	
7193	0	33572	
7194	0	33588	
7195	0	33568	
7196	0	33560	
7197	0	33570	
7198	0	33608	
7199	0	33648	
7200	0	33672	
7201	0	33698	
7202	0	33732	
7203	0	33768	
7204	0	33740	
7205	0	33704	
7206	0	33732	
7207	0	33800	
7208	0	33748	
7209	0	33652	
7210	0	33570	
7211	0	33548	
7212	0	33584	
7213	0	33596	
7214	0	33604	
7215	0	33596	
7216	0	33644	
7217	0	33690	
7218	0	33716	
7219	0	33696	
7220	0	33608	
7221	0	33556	
7222	0	33528	
7223	0	33544	
7224	0	33552	
7225	0	33612	
7226	0	33644	
7227	0	33644	
7228	0	33620	
7229	0	33580	
7230	0	33592	
7231	0	33664	
7232	0	33628	
7233	0	33498	
7234	0	33408	
7235	0	33372	
7236	0	33376	
7237	0	33388	
7238	0	33472	
7239	0	33536	
7240	0	33464	
7241	0	33348	
7242	0	33248	
7243	0	33176	
7244	0	33224	
7245	0	33256	
7246	0	33250	
7247	0	33268	
7248	0	33272	
7249	0	33312	
7250	0	33332	
7251	0	33350	
7252	0	33260	
7253	0	33120	
7254	0	33140	
7255	0	33304	
7256	0	33344	
7257	0	33208	
7258	0	33052	
7259	0	33016	
7260	0	33024	
7261	0	33024	
7262	0	32988	
7263	0	32960	
7264	0	33002	
7265	0	33012	
7266	0	33040	
7267	0	33004	
7268	0	32968	
7269	0	33004	
7270	0	33090	
7271	0	33162	
7272	0	33160	
7273	0	32982	
7274	0	32864	
7275	0	32788	
7276	0	32804	
7277	0	32808	
7278	0	32752	
7279	0	32720	
7280	0	32720	
7281	0	32728	
7282	0	32776	
7283	0	32840	
7284	0	32864	
7285	0	32842	
7286	0	32776	
7287	0	32716	
7288	0	32736	
7289	0	32816	
7290	0	32800	
7291	0	32744	
7292	0	32696	
7293	0	32648	
7294	0	32716	
7295	0	32812	
7296	0	32712	
7297	0	32612	
7298	0	32516	
7299	0	32452	
7300	0	32476	
7301	0	32608	
7302	0	32736	
7303	0	32856	
7304	0	32920	
7305	0	32900	
7306	0	32826	
7307	0	32968	
7308	0	32972	
7309	0	32752	
7310	0	32496	
7311	0	32404	
7312	0	32428	
7313	0	32500	
7314	0	32516	
7315	0	32508	
7316	0	32488	
7317	0	32570	
7318	0	32624	
7319	0	32656	
7320	0	32628	
7321	0	32548	
7322	0	32532	
7323	0	32576	
7324	0	32608	
7325	0	32608	
7326	0	32620	
7327	0	32628	
7328	0	32596	
7329	0	32512	
7330	0	32428	
7331	0	32428	
7332	0	32424	
7333	0	32444	
7334	0	32492	
7335	0	32492	
7336	0	32456	
7337	0	32372	
7338	0	32384	
7339	0	32424	
7340	0	32460	
7341	0	32544	
7342	0	32628	
7343	0	32636	
7344	0	32664	
7345	0	32592	
7346	0	32468	
7347	0	32476	
7348	0	32474	
7349	0	32384	
7350	0	32308	
7351	0	32248	
7352	0	32264	
7353	0	32336	
7354	0	32380	
7355	0	32440	
7356	0	32514	
7357	0	32540	
7358	0	32532	
7359	0	32536	
7360	0	32604	
7361	0	32648	
7362	0	32570	
7363	0	32476	
7364	0	32472	
7365	0	32420	
7366	0	32408	
7367	0	32408	
7368	0	32356	
7369	0	32392	
7370	0	32468	
7371	0	32508	
7372	0	32528	
7373	0	32608	
7374	0	32676	
7375	0	32724	
7376	0	32706	
7377	0	32656	
7378	0	32632	
7379	0	32604	
7380	0	32640	
7381	0	32692	
7382	0	32720	
7383	0	32832	
7384	0	32932	
7385	0	32916	
7386	0	32948	
7387	0	32996	
7388	0	32944	
7389	0	32868	
7390	0	32832	
7391	0	32816	
7392	0	32910	
7393	0	33028	
7394	0	33178	
7395	0	33284	
7396	0	33400	
7397	0	33508	
7398	0	33688	
7399	0	33876	
7400	0	34012	
7401	0	34092	
7402	0	34152	
7403	0	34060	
7404	0	33888	
7405	0	33856	
7406	0	33900	
7407	0	33896	
7408	0	33942	
7409	0	34036	
7410	0	33988	
7411	0	33920	
7412	0	33992	
7413	0	34028	
7414	0	34044	
7415	0	34074	
7416	0	34114	
7417	0	34300	
7418	0	34544	
7419	0	34848	
7420	0	35200	
7421	0	35584	
7422	0	35936	
7423	0	36168	
7424	0	36296	
7425	0	36408	
7426	0	36552	
7427	0	36576	
7428	0	36512	
7429	0	36432	
7430	0	36448	
7431	0	36556	
7432	0	36592	
7433	0	36576	
7434	0	36532	
7435	0	36320	
7436	0	36168	
7437	0	36072	
7438	0	35940	
7439	0	35844	
7440	0	35852	
7441	0	35940	
7442	0	36012	
7443	0	36048	
7444	0	36064	
7445	0	36020	
7446	0	35968	
7447	0	35864	
7448	0	35760	
7449	0	35668	
7450	0	35532	
7451	0	35440	
7452	0	35248	
7453	0	34976	
7454	0	34700	
7455	0	34556	
7456	0	34328	
7457	0	33914	
7458	0	33444	
7459	0	33016	
7460	0	32640	
7461	0	32352	
7462	0	32140	
7463	0	31948	
7464	0	31720	
7465	0	31556	
7466	0	31488	
7467	0	31416	
7468	0	31352	
7469	0	31328	
7470	0	31320	
7471	0	31248	
7472	0	31138	
7473	0	31048	
7474	0	30988	
7475	0	30980	
7476	0	30926	
7477	0	30868	
7478	0	30872	
7479	0	30956	
7480	0	31032	
7481	0	31076	
7482	0	31104	
7483	0	31024	
7484	0	30872	
7485	0	30856	
7486	0	30908	
7487	0	30876	
7488	0	30768	
7489	0	30664	
7490	0	30648	
7491	0	30644	
7492	0	30580	
7493	0	30488	
7494	0	30538	
7495	0	30728	
7496	0	30856	
7497	0	30914	
7498	0	30920	
7499	0	30932	
7500	0	30982	
7501	0	31024	
7502	0	31044	
7503	0	30944	
7504	0	30920	
7505	0	30940	
7506	0	30920	
7507	0	30990	
7508	0	31030	
7509	0	30996	
7510	0	30938	
7511	0	30824	
7512	0	30596	
7513	0	30284	
7514	0	29820	
7515	0	28980	
7516	0	27880	
7517	0	26722	
7518	0	25530	
7519	0	24422	
7520	0	23412	
7521	0	22472	
7522	0	21808	
7523	0	21368	
7524	0	21140	
7525	0	21144	
7526	0	21424	
7527	0	21969	
7528	0	22564	
7529	0	23422	
7530	0	24808	
7531	0	26714	
7532	0	28962	
7533	0	31484	
7534	0	34400	
7535	0	37660	
7536	0	41104	
7537	0	44864	
7538	0	48784	
7539	0	53032	
7540	0	57168	
7541	0	60600	
7542	0	62676	
7543	0	63736	
7544	0	64280	
7545	0	64512	
7546	0	64568	
7547	0	64560	
7548	0	64472	
7549	0	64384	
7550	0	64264	
7551	0	64136	
7552	0	61536	
7553	0	56056	
7554	0	51976	
7555	0	48428	
7556	0	44916	
7557	0	41536	
7558	0	38552	
7559	0	36012	
7560	0	33728	
7561	0	31380	
7562	0	29060	
7563	0	27104	
7564	0	25528	
7565	0	24284	
7566	0	23220	
7567	0	22376	
7568	0	21720	
7569	0	21056	
7570	0	20348	
7571	0	19800	
7572	0	19534	
7573	0	19554	
7574	0	19720	
7575	0	19952	
7576	0	20324	
7577	0	20720	
7578	0	21220	
7579	0	21832	
7580	0	22368	
7581	0	22844	
7582	0	23228	
7583	0	23576	
7584	0	23944	
7585	0	24436	
7586	0	25026	
7587	0	25584	
7588	0	26084	
7589	0	26600	
7590	0	27164	
7591	0	27628	
7592	0	28008	
7593	0	28312	
7594	0	28538	
7595	0	28692	
7596	0	28820	
7597	0	28972	
7598	0	29072	
7599	0	29108	
7600	0	29268	
7601	0	29528	
7602	0	29712	
7603	0	29768	
7604	0	29824	
7605	0	29900	
7606	0	29964	
7607	0	29968	
7608	0	29976	
7609	0	30012	
7610	0	29968	
7611	0	29920	
7612	0	29936	
7613	0	29972	
7614	0	30004	
7615	0	30028	
7616	0	30066	
7617	0	30124	
7618	0	30144	
7619	0	30284	
7620	0	30476	
7621	0	30716	
7622	0	30848	
7623	0	30900	
7624	0	30856	
7625	0	30828	
7626	0	30940	
7627	0	31056	
7628	0	31236	
7629	0	31460	
7630	0	31556	
7631	0	31564	
7632	0	31424	
7633	0	31232	
7634	0	31124	
7635	0	31008	
7636	0	30924	
7637	0	30888	
7638	0	30884	
7639	0	30948	
7640	0	31032	
7641	0	31092	
7642	0	31156	
7643	0	31312	
7644	0	31456	
7645	0	31524	
7646	0	31568	
7647	0	31640	
7648	0	31664	
7649	0	31604	
7650	0	31642	
7651	0	31684	
7652	0	31696	
7653	0	31728	
7654	0	31788	
7655	0	31888	
7656	0	31972	
7657	0	32016	
7658	0	32016	
7659	0	32032	
7660	0	31968	
7661	0	32020	
7662	0	32064	
7663	0	32100	
7664	0	32132	
7665	0	32160	
7666	0	32108	
7667	0	32100	
7668	0	32108	
7669	0	32160	
7670	0	32188	
7671	0	32104	
7672	0	32104	
7673	0	32108	
7674	0	32108	
7675	0	32096	
7676	0	32116	
7677	0	32200	
7678	0	32248	
7679	0	32288	
7680	0	32318	
7681	0	32298	
7682	0	32300	
7683	0	32308	
7684	0	32344	
7685	0	32372	
7686	0	32384	
7687	0	32442	
7688	0	32436	
7689	0	32456	
7690	0	32524	
7691	0	32560	
7692	0	32600	
7693	0	32672	
7694	0	32656	
7695	0	32584	
7696	0	32584	
7697	0	32652	
7698	0	32664	
7699	0	32722	
7700	0	32864	
7701	0	32984	
7702	0	33004	
7703	0	32988	
7704	0	32887	
7705	0	32776	
7706	0	32776	
7707	0	32788	
7708	0	32784	
7709	0	32764	
7710	0	32820	
7711	0	32864	
7712	0	32752	
7713	0	32616	
7714	0	32684	
7715	0	32788	
7716	0	32732	
7717	0	32644	
7718	0	32540	
7719	0	32476	
7720	0	32616	
7721	0	32656	
7722	0	32636	
7723	0	32648	
7724	0	32636	
7725	0	32576	
7726	0	32572	
7727	0	32604	
7728	0	32608	
7729	0	32576	
7730	0	32596	
7731	0	32668	
7732	0	32676	
7733	0	32636	
7734	0	32596	
7735	0	32552	
7736	0	32616	
7737	0	32740	
7738	0	32736	
7739	0	32580	
7740	0	32452	
7741	0	32356	
7742	0	32304	
7743	0	32328	
7744	0	32416	
7745	0	32448	
7746	0	32416	
7747	0	32378	
7748	0	32432	
7749	0	32416	
7750	0	32372	
7751	0	32424	
7752	0	32432	
7753	0	32428	
7754	0	32452	
7755	0	32504	
7756	0	32584	
7757	0	32596	
7758	0	32504	
7759	0	32452	
7760	0	32456	
7761	0	32506	
7762	0	32594	
7763	0	32636	
7764	0	32632	
7765	0	32648	
7766	0	32696	
7767	0	32824	
7768	0	32880	
7769	0	32852	
7770	0	32860	
7771	0	32920	
7772	0	33028	
7773	0	33072	
7774	0	33128	
7775	0	33192	
7776	0	33228	
7777	0	33296	
7778	0	33408	
7779	0	33464	
7780	0	33492	
7781	0	33556	
7782	0	33480	
7783	0	33532	
7784	0	33588	
7785	0	33620	
7786	0	33600	
7787	0	33560	
7788	0	33560	
7789	0	33612	
7790	0	33640	
7791	0	33632	
7792	0	33640	
7793	0	33620	
7794	0	33608	
7795	0	33600	
7796	0	33500	
7797	0	33448	
7798	0	33396	
7799	0	33468	
7800	0	33488	
7801	0	33488	
7802	0	33494	
7803	0	33508	
7804	0	33472	
7805	0	33352	
7806	0	33188	
7807	0	33120	
7808	0	33064	
7809	0	33060	
7810	0	33084	
7811	0	33088	
7812	0	33124	
7813	0	33144	
7814	0	33112	
7815	0	33040	
7816	0	32992	
7817	0	32972	
7818	0	32928	
7819	0	32834	
7820	0	32776	
7821	0	32752	
7822	0	32794	
7823	0	32844	
7824	0	32852	
7825	0	32852	
7826	0	32868	
7827	0	32860	
7828	0	32840	
7829	0	32816	
7830	0	32802	
7831	0	32820	
7832	0	32850	
7833	0	32864	
7834	0	32868	
7835	0	32866	
7836	0	32824	
7837	0	32784	
7838	0	32744	
7839	0	32696	
7840	0	32672	
7841	0	32684	
7842	0	32728	
7843	0	32792	
7844	0	32828	
7845	0	32804	
7846	0	32786	
7847	0	32792	
7848	0	32772	
7849	0	32728	
7850	0	32708	
7851	0	32616	
7852	0	32596	
7853	0	32629	
7854	0	32672	
7855	0	32688	
7856	0	32720	
7857	0	32732	
7858	0	32736	
7859	0	32720	
7860	0	32664	
7861	0	32656	
7862	0	32684	
7863	0	32704	
7864	0	32698	
7865	0	32724	
7866	0	32776	
7867	0	32824	
7868	0	32866	
7869	0	32892	
7870	0	32904	
7871	0	32880	
7872	0	32848	
7873	0	32880	
7874	0	32916	
7875	0	32912	
7876	0	32916	
7877	0	32892	
7878	0	32872	
7879	0	32902	
7880	0	32898	
7881	0	32856	
7882	0	32856	
7883	0	32836	
7884	0	32804	
7885	0	32844	
7886	0	32932	
7887	0	32894	
7888	0	32884	
7889	0	32924	
7890	0	32968	
7891	0	33000	
7892	0	33024	
7893	0	33116	
7894	0	33216	
7895	0	33244	
7896	0	33248	
7897	0	33224	
7898	0	33216	
7899	0	33240	
7900	0	33248	
7901	0	33220	
7902	0	33184	
7903	0	33172	
7904	0	33184	
7905	0	33216	
7906	0	33260	
7907	0	33300	
7908	0	33322	
7909	0	33288	
7910	0	33212	
7911	0	33218	
7912	0	33292	
7913	0	33352	
7914	0	33406	
7915	0	33420	
7916	0	33416	
7917	0	33440	
7918	0	33464	
7919	0	33484	
7920	0	33472	
7921	0	33468	
7922	0	33488	
7923	0	33460	
7924	0	33492	
7925	0	33520	
7926	0	33492	
7927	0	33408	
7928	0	33508	
7929	0	33604	
7930	0	33640	
7931	0	33620	
7932	0	33588	
7933	0	33548	
7934	0	33484	
7935	0	33496	
7936	0	33548	
7937	0	33624	
7938	0	33640	
7939	0	33608	
7940	0	33576	
7941	0	33508	
7942	0	33516	
7943	0	33528	
7944	0	33528	
7945	0	33552	
7946	0	33568	
7947	0	33600	
7948	0	33644	
7949	0	33688	
7950	0	33704	
7951	0	33728	
7952	0	33728	
7953	0	33732	
7954	0	33728	
7955	0	33724	
7956	0	33708	
7957	0	33688	
7958	0	33688	
7959	0	33696	
7960	0	33680	
7961	0	33640	
7962	0	33572	
7963	0	33536	
7964	0	33512	
7965	0	33484	
7966	0	33468	
7967	0	33484	
7968	0	33516	
7969	0	33504	
7970	0	33482	
7971	0	33456	
7972	0	33424	
7973	0	33488	
7974	0	33528	
7975	0	33508	
7976	0	33508	
7977	0	33500	
7978	0	33532	
7979	0	33568	
7980	0	33528	
7981	0	33432	
7982	0	33344	
7983	0	33348	
7984	0	33404	
7985	0	33388	
7986	0	33340	
7987	0	33300	
7988	0	33292	
7989	0	33306	
7990	0	33340	
7991	0	33380	
7992	0	33356	
7993	0	33336	
7994	0	33304	
7995	0	33264	
7996	0	33248	
7997	0	33240	
7998	0	33284	
7999	0	33328	
8000	0	33300	
8001	0	33228	
8002	0	33164	
8003	0	33148	
8004	0	33140	
8005	0	33150	
8006	0	33128	
8007	0	33156	
8008	0	33168	
8009	0	33152	
8010	0	33132	
8011	0	33148	
8012	0	33152	
8013	0	33152	
8014	0	33100	
8015	0	33072	
8016	0	33040	
8017	0	32994	
8018	0	32868	
8019	0	32812	
8020	0	32812	
8021	0	32804	
8022	0	32876	
8023	0	32928	
8024	0	32968	
8025	0	32944	
8026	0	32944	
8027	0	32936	
8028	0	32912	
8029	0	32900	
8030	0	32896	
8031	0	32920	
8032	0	32924	
8033	0	32888	
8034	0	32832	
8035	0	32796	
8036	0	32812	
8037	0	32834	
8038	0	32832	
8039	0	32856	
8040	0	32892	
8041	0	32880	
8042	0	32866	
8043	0	32836	
8044	0	32836	
8045	0	32848	
8046	0	32856	
8047	0	32824	
8048	0	32800	
8049	0	32784	
8050	0	32760	
8051	0	32736	
8052	0	32724	
8053	0	32714	
8054	0	32728	
8055	0	32744	
8056	0	32740	
8057	0	32756	
8058	0	32804	
8059	0	32828	
8060	0	32844	
8061	0	32816	
8062	0	32736	
8063	0	32716	
8064	0	32692	
8065	0	32632	
8066	0	32564	
8067	0	32556	
8068	0	32648	
8069	0	32720	
8070	0	32748	
8071	0	32736	
8072	0	32708	
8073	0	32680	
8074	0	32712	
8075	0	32756	
8076	0	32784	
8077	0	32792	
8078	0	32776	
8079	0	32784	
8080	0	32784	
8081	0	32764	
8082	0	32738	
8083	0	32722	
8084	0	32728	
8085	0	32724	
8086	0	32740	
8087	0	32740	
8088	0	32720	
8089	0	32696	
8090	0	32680	
8091	0	32668	
8092	0	32672	
8093	0	32656	
8094	0	32656	
8095	0	32672	
8096	0	32680	
8097	0	32664	
8098	0	32640	
8099	0	32660	
8100	0	32684	
8101	0	32680	
8102	0	32688	
8103	0	32696	
8104	0	32720	
8105	0	32708	
8106	0	32682	
8107	0	32636	
8108	0	32588	
8109	0	32580	
8110	0	32560	
8111	0	32560	
8112	0	32560	
8113	0	32572	
8114	0	32556	
8115	0	32576	
8116	0	32620	
8117	0	32664	
8118	0	32640	
8119	0	32592	
8120	0	32538	
8121	0	32524	
8122	0	32552	
8123	0	32576	
8124	0	32572	
8125	0	32576	
8126	0	32572	
8127	0	32584	
8128	0	32604	
8129	0	32602	
8130	0	32616	
8131	0	32632	
8132	0	32636	
8133	0	32646	
8134	0	32650	
8135	0	32650	
8136	0	32624	
8137	0	32600	
8138	0	32596	
8139	0	32580	
8140	0	32588	
8141	0	32622	
8142	0	32660	
8143	0	32652	
8144	0	32600	
8145	0	32576	
8146	0	32556	
8147	0	32532	
8148	0	32536	
8149	0	32576	
8150	0	32578	
8151	0	32580	
8152	0	32576	
8153	0	32612	
8154	0	32660	
8155	0	32728	
8156	0	32786	
8157	0	32832	
8158	0	32916	
8159	0	33018	
8160	0	33192	
8161	0	33372	
8162	0	33504	
8163	0	33588	
8164	0	33632	
8165	0	33656	
8166	0	33664	
8167	0	33656	
8168	0	33712	
8169	0	33830	
8170	0	34008	
8171	0	34144	
8172	0	34232	
8173	0	34256	
8174	0	34244	
8175	0	34232	
8176	0	34172	
8177	0	34080	
8178	0	34020	
8179	0	33952	
8180	0	33912	
8181	0	33912	
8182	0	33962	
8183	0	34032	
8184	0	34096	
8185	0	34164	
8186	0	34316	
8187	0	34588	
8188	0	34892	
8189	0	35132	
8190	0	35352	
8191	0	35624	
8192	0	35928	
8193	0	36184	
8194	0	36400	
8195	0	36544	
8196	0	36596	
8197	0	36608	
8198	0	36632	
8199	0	36624	
8200	0	36656	
8201	0	36700	
8202	0	36712	
8203	0	36692	
8204	0	36584	
8205	0	36432	
8206	0	36300	
8207	0	36208	
8208	0	36176	
8209	0	36160	
8210	0	36168	
8211	0	36180	
8212	0	36156	
8213	0	36084	
8214	0	35980	
8215	0	35924	
8216	0	35880	
8217	0	35864	
8218	0	35840	
8219	0	35732	
8220	0	35596	
8221	0	35404	
8222	0	35152	
8223	0	34830	
8224	0	34476	
8225	0	34156	
8226	0	33898	
8227	0	33594	
8228	0	33188	
8229	0	32764	
8230	0	32408	
8231	0	32092	
8232	0	31900	
8233	0	31772	
8234	0	31704	
8235	0	31644	
8236	0	31600	
8237	0	31568	
8238	0	31482	
8239	0	31402	
8240	0	31332	
8241	0	31236	
8242	0	31144	
8243	0	31054	
8244	0	30972	
8245	0	30928	
8246	0	30872	
8247	0	30836	
8248	0	30804	
8249	0	30792	
8250	0	30768	
8251	0	30778	
8252	0	30808	
8253	0	30840	
8254	0	30896	
8255	0	30944	
8256	0	30992	
8257	0	31020	
8258	0	31020	
8259	0	31000	
8260	0	31024	
8261	0	31044	
8262	0	31040	
8263	0	31072	
8264	0	31124	
8265	0	31184	
8266	0	31224	
8267	0	31212	
8268	0	31148	
8269	0	31124	
8270	0	31152	
8271	0	31168	
8272	0	31168	
8273	0	31192	
8274	0	31192	
8275	0	31192	
8276	0	31192	
8277	0	31200	
8278	0	31200	
8279	0	31176	
8280	0	31104	
8281	0	30964	
8282	0	30764	
8283	0	30448	
8284	0	29920	
8285	0	29108	
8286	0	28112	
8287	0	27034	
8288	0	25912	
8289	0	24800	
8290	0	23796	
8291	0	22992	
8292	0	22448	
8293	0	22056	
8294	0	21882	
8295	0	21956	
8296	0	22312	
8297	0	22816	
8298	0	23408	
8299	0	24284	
8300	0	25728	
8301	0	27624	
8302	0	29928	
8303	0	32504	
8304	0	35416	
8305	0	38584	
8306	0	41968	
8307	0	45660	
8308	0	49540	
8309	0	53684	
8310	0	57808	
8311	0	60988	
8312	0	62748	
8313	0	63672	
8314	0	64100	
8315	0	64296	
8316	0	64324	
8317	0	64288	
8318	0	64216	
8319	0	64126	
8320	0	64016	
8321	0	63880	
8322	0	61056	
8323	0	55272	
8324	0	50780	
8325	0	46896	
8326	0	43180	
8327	0	39808	
8328	0	36928	
8329	0	34496	
8330	0	32280	
8331	0	30072	
8332	0	27864	
8333	0	25992	
8334	0	24504	
8335	0	23280	
8336	0	22176	
8337	0	21312	
8338	0	20660	
8339	0	20076	
8340	0	19472	
8341	0	18976	
8342	0	18688	
8343	0	18744	
8344	0	19072	
8345	0	19388	
8346	0	19662	
8347	0	19972	
8348	0	20416	
8349	0	20988	
8350	0	21572	
8351	0	22092	
8352	0	22584	
8353	0	23114	
8354	0	23610	
8355	0	24094	
8356	0	24652	
8357	0	25284	
8358	0	25952	
8359	0	26588	
8360	0	27176	
8361	0	27693	
8362	0	28110	
8363	0	28478	
8364	0	28792	
8365	0	29048	
8366	0	29208	
8367	0	29338	
8368	0	29456	
8369	0	29528	
8370	0	29552	
8371	0	29576	
8372	0	29624	
8373	0	29696	
8374	0	29726	
8375	0	29760	
8376	0	29824	
8377	0	29880	
8378	0	29940	
8379	0	30004	
8380	0	30096	
8381	0	30168	
8382	0	30236	
8383	0	30300	
8384	0	30368	
8385	0	30444	
8386	0	30516	
8387	0	30560	
8388	0	30624	
8389	0	30680	
8390	0	30756	
8391	0	30828	
8392	0	30884	
8393	0	30924	
8394	0	30976	
8395	0	31032	
8396	0	31092	
8397	0	31160	
8398	0	31204	
8399	0	31248	
8400	0	31276	
8401	0	31332	
8402	0	31368	
8403	0	31400	
8404	0	31440	
8405	0	31448	
8406	0	31440	
8407	0	31456	
8408	0	31496	
8409	0	31552	
8410	0	31588	
8411	0	31628	
8412	0	31680	
8413	0	31736	
8414	0	31776	
8415	0	31796	
8416	0	31856	
8417	0	31892	
8418	0	31928	
8419	0	31980	
8420	0	32016	
8421	0	32060	
8422	0	32120	
8423	0	32136	
8424	0	32156	
8425	0	32216	
8426	0	32244	
8427	0	32256	
8428	0	32320	
8429	0	32338	
8430	0	32352	
8431	0	32356	
8432	0	32340	
8433	0	32340	
8434	0	32368	
8435	0	32440	
8436	0	32476	
8437	0	32480	
8438	0	32504	
8439	0	32548	
8440	0	32536	
8441	0	32530	
8442	0	32524	
8443	0	32528	
8444	0	32516	
8445	0	32528	
8446	0	32540	
8447	0	32532	
8448	0	32528	
8449	0	32502	
8450	0	32568	
8451	0	32644	
8452	0	32664	
8453	0	32708	
8454	0	32748	
8455	0	32800	
8456	0	32828	
8457	0	32832	
8458	0	32836	
8459	0	32828	
8460	0	32824	
8461	0	32832	
8462	0	32872	
8463	0	32916	
8464	0	32912	
8465	0	32948	
8466	0	32976	
8467	0	33032	
8468	0	33080	
8469	0	33064	
8470	0	33020	
8471	0	32976	
8472	0	32944	
8473	0	32932	
8474	0	32926	
8475	0	32932	
8476	0	32920	
8477	0	32932	
8478	0	32948	
8479	0	32980	
8480	0	33008	
8481	0	33032	
8482	0	33066	
8483	0	33088	
8484	0	33076	
8485	0	33032	
8486	0	32981	
8487	0	32952	
8488	0	32916	
8489	0	32864	
8490	0	32826	
8491	0	32840	
8492	0	32856	
8493	0	32888	
8494	0	32906	
8495	0	32896	
8496	0	32888	
8497	0	32884	
8498	0	32880	
8499	0	32826	
8500	0	32752	
8501	0	32700	
8502	0	32636	
8503	0	32576	
8504	0	32508	
8505	0	32504	
8506	0	32504	
8507	0	32512	
8508	0	32516	
8509	0	32536	
8510	0	32544	
8511	0	32552	
8512	0	32528	
8513	0	32532	
8514	0	32576	
8515	0	32594	
8516	0	32604	
8517	0	32620	
8518	0	32616	
8519	0	32590	
8520	0	32548	
8521	0	32508	
8522	0	32508	
8523	0	32532	
8524	0	32552	
8525	0	32540	
8526	0	32572	
8527	0	32596	
8528	0	32628	
8529	0	32684	
8530	0	32728	
8531	0	32720	
8532	0	32680	
8533	0	32660	
8534	0	32652	
8535	0	32660	
8536	0	32700	
8537	0	32716	
8538	0	32744	
8539	0	32788	
8540	0	32856	
8541	0	32952	
8542	0	33000	
8543	0	33028	
8544	0	33080	
8545	0	33140	
8546	0	33172	
8547	0	33232	
8548	0	33268	
8549	0	33310	
8550	0	33380	
8551	0	33464	
8552	0	33534	
8553	0	33608	
8554	0	33668	
8555	0	33708	
8556	0	33738	
8557	0	33756	
8558	0	33756	
8559	0	33764	
8560	0	33780	
8561	0	33760	
8562	0	33704	
8563	0	33696	
8564	0	33680	
8565	0	33632	
8566	0	33616	
8567	0	33584	
8568	0	33520	
8569	0	33484	
8570	0	33440	
8571	0	33426	
8572	0	33416	
8573	0	33408	
8574	0	33376	
8575	0	33308	
8576	0	33248	
8577	0	33188	
8578	0	33172	
8579	0	33156	
8580	0	33148	
8581	0	33146	
8582	0	33132	
8583	0	33120	
8584	0	33096	
8585	0	33090	
8586	0	33072	
8587	0	33048	
8588	0	33040	
8589	0	33052	
8590	0	33056	
8591	0	33040	
