# OpenSignals Text File Format. Version 1
# {"00:07:80:4B:15:F7": {"position": 0, "device": "biosignalsplux", "device name": "00:07:80:4B:15:F7", "device connection": "BTH00:07:80:4B:15:F7", "sampling rate": 1000, "resolution": [16], "firmware version": 775, "comments": "", "keywords": "", "mode": 0, "sync interval": 2, "date": "2023-4-27", "time": "16:57:8.713", "channels": [1], "sensor": ["ECG"], "label": ["CH1"], "column": ["nSeq", "DI", "CH1"], "special": [{"SpO2": [80, 40, 5, 4, 3, 3]}, {"SpO2": [80, 40, 5, 4, 3, 3]}, {"SpO2": [80, 40, 5, 4, 3, 3]}, {"SpO2": [80, 40, 5, 4, 3, 3]}, {"SpO2": [80, 40, 5, 4, 3, 3]}, {"SpO2": [80, 40, 5, 4, 3, 3]}, {"SpO2": [80, 40, 5, 4, 3, 3]}, {"SpO2": [80, 40, 5, 4, 3, 3]}], "digital IO": [0, 1], "sleeve color": ["green"], "convertedValues": 0}}
# EndOfHeader
0	0	31424	
1	0	31496	
2	0	31560	
3	0	31568	
4	0	31552	
5	0	31528	
6	0	31528	
7	0	31552	
8	0	31604	
9	0	31620	
10	0	31620	
11	0	31560	
12	0	31528	
13	0	31552	
14	0	31560	
15	0	31584	
16	0	31592	
17	0	31630	
18	0	31644	
19	0	31680	
20	0	31700	
21	0	31702	
22	0	31676	
23	0	31664	
24	0	31672	
25	0	31668	
26	0	31696	
27	0	31752	
28	0	31768	
29	0	31748	
30	0	31708	
31	0	31712	
32	0	31720	
33	0	31744	
34	0	31756	
35	0	31770	
36	0	31820	
37	0	31852	
38	0	31848	
39	0	31809	
40	0	31792	
41	0	31800	
42	0	31820	
43	0	31856	
44	0	31848	
45	0	31820	
46	0	31812	
47	0	31852	
48	0	31892	
49	0	31904	
50	0	31900	
51	0	31900	
52	0	31924	
53	0	31876	
54	0	31856	
55	0	31844	
56	0	31850	
57	0	31860	
58	0	31882	
59	0	31902	
60	0	31906	
61	0	31924	
62	0	31936	
63	0	31984	
64	0	32012	
65	0	31984	
66	0	31944	
67	0	31928	
68	0	31922	
69	0	31944	
70	0	31964	
71	0	31980	
72	0	31980	
73	0	32004	
74	0	32014	
75	0	32000	
76	0	31986	
77	0	31948	
78	0	31960	
79	0	31980	
80	0	32024	
81	0	32032	
82	0	32036	
83	0	32048	
84	0	32036	
85	0	31980	
86	0	31952	
87	0	31960	
88	0	31968	
89	0	31964	
90	0	31956	
91	0	31960	
92	0	32016	
93	0	32084	
94	0	32100	
95	0	32128	
96	0	32108	
97	0	32052	
98	0	32044	
99	0	32100	
100	0	32106	
101	0	32088	
102	0	32152	
103	0	32228	
104	0	32220	
105	0	32224	
106	0	32208	
107	0	32180	
108	0	32192	
109	0	32212	
110	0	32228	
111	0	32288	
112	0	32280	
113	0	32260	
114	0	32212	
115	0	32204	
116	0	32224	
117	0	32196	
118	0	32192	
119	0	32208	
120	0	32192	
121	0	32188	
122	0	32180	
123	0	32222	
124	0	32224	
125	0	32224	
126	0	32272	
127	0	32272	
128	0	32288	
129	0	32336	
130	0	32348	
131	0	32380	
132	0	32420	
133	0	32416	
134	0	32400	
135	0	32404	
136	0	32412	
137	0	32436	
138	0	32420	
139	0	32388	
140	0	32384	
141	0	32352	
142	0	32304	
143	0	32320	
144	0	32336	
145	0	32356	
146	0	32360	
147	0	32378	
148	0	32388	
149	0	32356	
150	0	32320	
151	0	32300	
152	0	32388	
153	0	32456	
154	0	32456	
155	0	32444	
156	0	32456	
157	0	32492	
158	0	32504	
159	0	32504	
160	0	32500	
161	0	32492	
162	0	32472	
163	0	32480	
164	0	32464	
165	0	32448	
166	0	32490	
167	0	32528	
168	0	32544	
169	0	32564	
170	0	32580	
171	0	32560	
172	0	32546	
173	0	32546	
174	0	32488	
175	0	32512	
176	0	32568	
177	0	32592	
178	0	32616	
179	0	32608	
180	0	32592	
181	0	32576	
182	0	32620	
183	0	32700	
184	0	32764	
185	0	32844	
186	0	32868	
187	0	32900	
188	0	32944	
189	0	33016	
190	0	33120	
191	0	33212	
192	0	33308	
193	0	33380	
194	0	33540	
195	0	33748	
196	0	33944	
197	0	34068	
198	0	34176	
199	0	34240	
200	0	34236	
201	0	34204	
202	0	34232	
203	0	34276	
204	0	34348	
205	0	34396	
206	0	34448	
207	0	34496	
208	0	34512	
209	0	34520	
210	0	34552	
211	0	34582	
212	0	34664	
213	0	34740	
214	0	34808	
215	0	34840	
216	0	34904	
217	0	34944	
218	0	35042	
219	0	35180	
220	0	35288	
221	0	35332	
222	0	35404	
223	0	35388	
224	0	35328	
225	0	35296	
226	0	35312	
227	0	35296	
228	0	35244	
229	0	35204	
230	0	35178	
231	0	35176	
232	0	35176	
233	0	35076	
234	0	34920	
235	0	34796	
236	0	34684	
237	0	34608	
238	0	34496	
239	0	34328	
240	0	34200	
241	0	34056	
242	0	33888	
243	0	33728	
244	0	33632	
245	0	33548	
246	0	33504	
247	0	33432	
248	0	33360	
249	0	33314	
250	0	33142	
251	0	33000	
252	0	32960	
253	0	32954	
254	0	32992	
255	0	33020	
256	0	33052	
257	0	33082	
258	0	33080	
259	0	33048	
260	0	33016	
261	0	32968	
262	0	32936	
263	0	32908	
264	0	32828	
265	0	32712	
266	0	32576	
267	0	32452	
268	0	32348	
269	0	32252	
270	0	32152	
271	0	32064	
272	0	32026	
273	0	32008	
274	0	31968	
275	0	31888	
276	0	31820	
277	0	31736	
278	0	31690	
279	0	31652	
280	0	31608	
281	0	31604	
282	0	31648	
283	0	31656	
284	0	31620	
285	0	31576	
286	0	31576	
287	0	31536	
288	0	31504	
289	0	31536	
290	0	31556	
291	0	31624	
292	0	31604	
293	0	31572	
294	0	31572	
295	0	31604	
296	0	31628	
297	0	31620	
298	0	31592	
299	0	31616	
300	0	31660	
301	0	31668	
302	0	31620	
303	0	31616	
304	0	31672	
305	0	31716	
306	0	31702	
307	0	31668	
308	0	31632	
309	0	31616	
310	0	31720	
311	0	31824	
312	0	31860	
313	0	31904	
314	0	31948	
315	0	31944	
316	0	31904	
317	0	31942	
318	0	32000	
319	0	32036	
320	0	32024	
321	0	31980	
322	0	31876	
323	0	31732	
324	0	31620	
325	0	31516	
326	0	31424	
327	0	31252	
328	0	31092	
329	0	31036	
330	0	31096	
331	0	31240	
332	0	31376	
333	0	31552	
334	0	31908	
335	0	32484	
336	0	33186	
337	0	33970	
338	0	34824	
339	0	35836	
340	0	37008	
341	0	38296	
342	0	39760	
343	0	41380	
344	0	42984	
345	0	44448	
346	0	45892	
347	0	47384	
348	0	49004	
349	0	50712	
350	0	52260	
351	0	53568	
352	0	54912	
353	0	56312	
354	0	57808	
355	0	59116	
356	0	60280	
357	0	61332	
358	0	62312	
359	0	63120	
360	0	63540	
361	0	62728	
362	0	60804	
363	0	58176	
364	0	54900	
365	0	51468	
366	0	47900	
367	0	43936	
368	0	39608	
369	0	35600	
370	0	32552	
371	0	30332	
372	0	28812	
373	0	27812	
374	0	27232	
375	0	27004	
376	0	27004	
377	0	27012	
378	0	27232	
379	0	27612	
380	0	28040	
381	0	28444	
382	0	28736	
383	0	28980	
384	0	29200	
385	0	29385	
386	0	29536	
387	0	29628	
388	0	29620	
389	0	29536	
390	0	29404	
391	0	29316	
392	0	29224	
393	0	29152	
394	0	29048	
395	0	28942	
396	0	28892	
397	0	28836	
398	0	28808	
399	0	28788	
400	0	28748	
401	0	28752	
402	0	28768	
403	0	28780	
404	0	28794	
405	0	28792	
406	0	28828	
407	0	28832	
408	0	28844	
409	0	28880	
410	0	28912	
411	0	28940	
412	0	28984	
413	0	29008	
414	0	29024	
415	0	29072	
416	0	29068	
417	0	29104	
418	0	29076	
419	0	29020	
420	0	29032	
421	0	29080	
422	0	29124	
423	0	29168	
424	0	29236	
425	0	29276	
426	0	29360	
427	0	29452	
428	0	29528	
429	0	29596	
430	0	29658	
431	0	29696	
432	0	29700	
433	0	29740	
434	0	29796	
435	0	29820	
436	0	29772	
437	0	29784	
438	0	29838	
439	0	29940	
440	0	29952	
441	0	29976	
442	0	29998	
443	0	30004	
444	0	30032	
445	0	30064	
446	0	30080	
447	0	30108	
448	0	30176	
449	0	30240	
450	0	30272	
451	0	30268	
452	0	30288	
453	0	30304	
454	0	30366	
455	0	30440	
456	0	30542	
457	0	30584	
458	0	30634	
459	0	30664	
460	0	30656	
461	0	30660	
462	0	30692	
463	0	30680	
464	0	30700	
465	0	30732	
466	0	30728	
467	0	30736	
468	0	30740	
469	0	30798	
470	0	30836	
471	0	30886	
472	0	30936	
473	0	30980	
474	0	31000	
475	0	31052	
476	0	31104	
477	0	31152	
478	0	31184	
479	0	31180	
480	0	31184	
481	0	31208	
482	0	31264	
483	0	31336	
484	0	31382	
485	0	31400	
486	0	31396	
487	0	31420	
488	0	31436	
489	0	31494	
490	0	31576	
491	0	31612	
492	0	31628	
493	0	31648	
494	0	31676	
495	0	31728	
496	0	31808	
497	0	31924	
498	0	31976	
499	0	31996	
500	0	32028	
501	0	32020	
502	0	32056	
503	0	32064	
504	0	32060	
505	0	32112	
506	0	32156	
507	0	32176	
508	0	32200	
509	0	32220	
510	0	32276	
511	0	32344	
512	0	32360	
513	0	32372	
514	0	32416	
515	0	32448	
516	0	32442	
517	0	32480	
518	0	32552	
519	0	32608	
520	0	32648	
521	0	32706	
522	0	32724	
523	0	32712	
524	0	32728	
525	0	32764	
526	0	32784	
527	0	32788	
528	0	32836	
529	0	32914	
530	0	33012	
531	0	33100	
532	0	33228	
533	0	33344	
534	0	33416	
535	0	33448	
536	0	33472	
537	0	33452	
538	0	33404	
539	0	33472	
540	0	33612	
541	0	33664	
542	0	33732	
543	0	33840	
544	0	33888	
545	0	33908	
546	0	33868	
547	0	33804	
548	0	33684	
549	0	33716	
550	0	34004	
551	0	34304	
552	0	34450	
553	0	34518	
554	0	34596	
555	0	34630	
556	0	34648	
557	0	34720	
558	0	34812	
559	0	34856	
560	0	34876	
561	0	34932	
562	0	35048	
563	0	35132	
564	0	35210	
565	0	35316	
566	0	35372	
567	0	35376	
568	0	35336	
569	0	35452	
570	0	35624	
571	0	35716	
572	0	35680	
573	0	35704	
574	0	35744	
575	0	35852	
576	0	35952	
577	0	36004	
578	0	36052	
579	0	36164	
580	0	36260	
581	0	36348	
582	0	36396	
583	0	36420	
584	0	36464	
585	0	36532	
586	0	36568	
587	0	36576	
588	0	36624	
589	0	36608	
590	0	36584	
591	0	36542	
592	0	36524	
593	0	36576	
594	0	36608	
595	0	36564	
596	0	36528	
597	0	36564	
598	0	36612	
599	0	36616	
600	0	36596	
601	0	36576	
602	0	36528	
603	0	36480	
604	0	36410	
605	0	36288	
606	0	36192	
607	0	36090	
608	0	35976	
609	0	35850	
610	0	35768	
611	0	35640	
612	0	35482	
613	0	35280	
614	0	35160	
615	0	35040	
616	0	34912	
617	0	34792	
618	0	34632	
619	0	34476	
620	0	34320	
621	0	34136	
622	0	34008	
623	0	33884	
624	0	33724	
625	0	33524	
626	0	33346	
627	0	33140	
628	0	32936	
629	0	32756	
630	0	32612	
631	0	32468	
632	0	32312	
633	0	32184	
634	0	32044	
635	0	31928	
636	0	31832	
637	0	31692	
638	0	31596	
639	0	31500	
640	0	31416	
641	0	31236	
642	0	31064	
643	0	30968	
644	0	30896	
645	0	30816	
646	0	30724	
647	0	30632	
648	0	30592	
649	0	30536	
650	0	30452	
651	0	30336	
652	0	30264	
653	0	30184	
654	0	30080	
655	0	30046	
656	0	30060	
657	0	30040	
658	0	29980	
659	0	29944	
660	0	29948	
661	0	29920	
662	0	29868	
663	0	29816	
664	0	29788	
665	0	29808	
666	0	29820	
667	0	29844	
668	0	29820	
669	0	29680	
670	0	29588	
671	0	29608	
672	0	29616	
673	0	29588	
674	0	29564	
675	0	29548	
676	0	29556	
677	0	29548	
678	0	29544	
679	0	29620	
680	0	29716	
681	0	29748	
682	0	29744	
683	0	29732	
684	0	29740	
685	0	29696	
686	0	29652	
687	0	29684	
688	0	29760	
689	0	29832	
690	0	29840	
691	0	29848	
692	0	29850	
693	0	29828	
694	0	29836	
695	0	29828	
696	0	29874	
697	0	29976	
698	0	29976	
699	0	29960	
700	0	30000	
701	0	30036	
702	0	30034	
703	0	30020	
704	0	30036	
705	0	30032	
706	0	29988	
707	0	29940	
708	0	29980	
709	0	30072	
710	0	30112	
711	0	30128	
712	0	30220	
713	0	30280	
714	0	30304	
715	0	30360	
716	0	30400	
717	0	30396	
718	0	30400	
719	0	30452	
720	0	30464	
721	0	30440	
722	0	30416	
723	0	30510	
724	0	30572	
725	0	30608	
726	0	30628	
727	0	30598	
728	0	30544	
729	0	30544	
730	0	30568	
731	0	30588	
732	0	30588	
733	0	30608	
734	0	30652	
735	0	30636	
736	0	30712	
737	0	30828	
738	0	30912	
739	0	30936	
740	0	30973	
741	0	31004	
742	0	31008	
743	0	30988	
744	0	30972	
745	0	30980	
746	0	31012	
747	0	31024	
748	0	31034	
749	0	31036	
750	0	31048	
751	0	31036	
752	0	31024	
753	0	30992	
754	0	31066	
755	0	31114	
756	0	31132	
757	0	31184	
758	0	31252	
759	0	31268	
760	0	31266	
761	0	31304	
762	0	31296	
763	0	31248	
764	0	31256	
765	0	31300	
766	0	31344	
767	0	31364	
768	0	31352	
769	0	31368	
770	0	31384	
771	0	31392	
772	0	31392	
773	0	31412	
774	0	31484	
775	0	31504	
776	0	31508	
777	0	31520	
778	0	31524	
779	0	31548	
780	0	31552	
781	0	31528	
782	0	31524	
783	0	31560	
784	0	31578	
785	0	31540	
786	0	31512	
787	0	31548	
788	0	31592	
789	0	31648	
790	0	31664	
791	0	31688	
792	0	31728	
793	0	31696	
794	0	31696	
795	0	31704	
796	0	31686	
797	0	31656	
798	0	31680	
799	0	31672	
800	0	31664	
801	0	31668	
802	0	31716	
803	0	31792	
804	0	31856	
805	0	31868	
806	0	31800	
807	0	31716	
808	0	31682	
809	0	31724	
810	0	31744	
811	0	31740	
812	0	31688	
813	0	31652	
814	0	31664	
815	0	31740	
816	0	31813	
817	0	31856	
818	0	31872	
819	0	31856	
820	0	31858	
821	0	31860	
822	0	31876	
823	0	31896	
824	0	31864	
825	0	31864	
826	0	31876	
827	0	31796	
828	0	31748	
829	0	31760	
830	0	31768	
831	0	31778	
832	0	31784	
833	0	31792	
834	0	31832	
835	0	31872	
836	0	31872	
837	0	31864	
838	0	31876	
839	0	31864	
840	0	31858	
841	0	31892	
842	0	31882	
843	0	31912	
844	0	32034	
845	0	32064	
846	0	32040	
847	0	32064	
848	0	32024	
849	0	32028	
850	0	32036	
851	0	32064	
852	0	32076	
853	0	32060	
854	0	32088	
855	0	32072	
856	0	32056	
857	0	32056	
858	0	32064	
859	0	32106	
860	0	32124	
861	0	32130	
862	0	32136	
863	0	32128	
864	0	32116	
865	0	32096	
866	0	32112	
867	0	32094	
868	0	32076	
869	0	32024	
870	0	32004	
871	0	32040	
872	0	32072	
873	0	32156	
874	0	32224	
875	0	32208	
876	0	32204	
877	0	32224	
878	0	32262	
879	0	32308	
880	0	32316	
881	0	32304	
882	0	32328	
883	0	32336	
884	0	32318	
885	0	32312	
886	0	32292	
887	0	32248	
888	0	32184	
889	0	32234	
890	0	32316	
891	0	32332	
892	0	32376	
893	0	32396	
894	0	32414	
895	0	32380	
896	0	32344	
897	0	32330	
898	0	32368	
899	0	32392	
900	0	32424	
901	0	32460	
902	0	32468	
903	0	32432	
904	0	32428	
905	0	32430	
906	0	32416	
907	0	32418	
908	0	32424	
909	0	32432	
910	0	32460	
911	0	32492	
912	0	32484	
913	0	32480	
914	0	32480	
915	0	32468	
916	0	32436	
917	0	32420	
918	0	32436	
919	0	32480	
920	0	32512	
921	0	32560	
922	0	32568	
923	0	32532	
924	0	32496	
925	0	32478	
926	0	32524	
927	0	32568	
928	0	32564	
929	0	32556	
930	0	32560	
931	0	32572	
932	0	32584	
933	0	32608	
934	0	32600	
935	0	32584	
936	0	32596	
937	0	32564	
938	0	32638	
939	0	32760	
940	0	32736	
941	0	32704	
942	0	32668	
943	0	32668	
944	0	32648	
945	0	32660	
946	0	32596	
947	0	32560	
948	0	32544	
949	0	32620	
950	0	32672	
951	0	32648	
952	0	32624	
953	0	32670	
954	0	32672	
955	0	32632	
956	0	32632	
957	0	32608	
958	0	32584	
959	0	32612	
960	0	32644	
961	0	32626	
962	0	32664	
963	0	32736	
964	0	32752	
965	0	32704	
966	0	32694	
967	0	32700	
968	0	32692	
969	0	32736	
970	0	32800	
971	0	32864	
972	0	32932	
973	0	32912	
974	0	32896	
975	0	32848	
976	0	32772	
977	0	32752	
978	0	32770	
979	0	32792	
980	0	32780	
981	0	32796	
982	0	32872	
983	0	33028	
984	0	33120	
985	0	33208	
986	0	33364	
987	0	33512	
988	0	33648	
989	0	33778	
990	0	33880	
991	0	33924	
992	0	33960	
993	0	34076	
994	0	34145	
995	0	34160	
996	0	34144	
997	0	34216	
998	0	34272	
999	0	34320	
1000	0	34372	
1001	0	34444	
1002	0	34568	
1003	0	34660	
1004	0	34722	
1005	0	34772	
1006	0	34736	
1007	0	34708	
1008	0	34740	
1009	0	34828	
1010	0	34936	
1011	0	34984	
1012	0	35024	
1013	0	35144	
1014	0	35248	
1015	0	35396	
1016	0	35552	
1017	0	35708	
1018	0	35736	
1019	0	35648	
1020	0	35552	
1021	0	35506	
1022	0	35500	
1023	0	35472	
1024	0	35452	
1025	0	35424	
1026	0	35448	
1027	0	35488	
1028	0	35398	
1029	0	35244	
1030	0	35072	
1031	0	34916	
1032	0	34772	
1033	0	34624	
1034	0	34472	
1035	0	34324	
1036	0	34188	
1037	0	34032	
1038	0	33888	
1039	0	33776	
1040	0	33748	
1041	0	33748	
1042	0	33692	
1043	0	33586	
1044	0	33424	
1045	0	33272	
1046	0	33308	
1047	0	33344	
1048	0	33316	
1049	0	33264	
1050	0	33252	
1051	0	33200	
1052	0	33144	
1053	0	33154	
1054	0	33128	
1055	0	33080	
1056	0	33024	
1057	0	32988	
1058	0	32932	
1059	0	32836	
1060	0	32736	
1061	0	32664	
1062	0	32592	
1063	0	32528	
1064	0	32442	
1065	0	32384	
1066	0	32344	
1067	0	32256	
1068	0	32164	
1069	0	32080	
1070	0	31912	
1071	0	31784	
1072	0	31776	
1073	0	31808	
1074	0	31776	
1075	0	31752	
1076	0	31730	
1077	0	31696	
1078	0	31708	
1079	0	31772	
1080	0	31794	
1081	0	31768	
1082	0	31780	
1083	0	31808	
1084	0	31816	
1085	0	31844	
1086	0	31882	
1087	0	31912	
1088	0	31890	
1089	0	31848	
1090	0	31802	
1091	0	31772	
1092	0	31752	
1093	0	31800	
1094	0	31824	
1095	0	31808	
1096	0	31816	
1097	0	31840	
1098	0	31872	
1099	0	31928	
1100	0	32020	
1101	0	32052	
1102	0	31956	
1103	0	31952	
1104	0	31988	
1105	0	32024	
1106	0	32064	
1107	0	32080	
1108	0	32040	
1109	0	32060	
1110	0	32104	
1111	0	32128	
1112	0	32120	
1113	0	32144	
1114	0	32124	
1115	0	32100	
1116	0	32090	
1117	0	32060	
1118	0	32024	
1119	0	31984	
1120	0	31888	
1121	0	31716	
1122	0	31516	
1123	0	31356	
1124	0	31328	
1125	0	31360	
1126	0	31496	
1127	0	31660	
1128	0	31948	
1129	0	32404	
1130	0	32972	
1131	0	33686	
1132	0	34480	
1133	0	35404	
1134	0	36416	
1135	0	37564	
1136	0	38872	
1137	0	40400	
1138	0	42004	
1139	0	43568	
1140	0	45104	
1141	0	46656	
1142	0	48196	
1143	0	49804	
1144	0	51432	
1145	0	52864	
1146	0	54176	
1147	0	55560	
1148	0	57040	
1149	0	58364	
1150	0	59536	
1151	0	60560	
1152	0	61460	
1153	0	62288	
1154	0	62972	
1155	0	62736	
1156	0	61256	
1157	0	58976	
1158	0	55900	
1159	0	52524	
1160	0	49176	
1161	0	45620	
1162	0	41696	
1163	0	37740	
1164	0	34496	
1165	0	32080	
1166	0	30300	
1167	0	29140	
1168	0	28368	
1169	0	27944	
1170	0	27748	
1171	0	27748	
1172	0	27858	
1173	0	28044	
1174	0	28380	
1175	0	28804	
1176	0	29174	
1177	0	29438	
1178	0	29664	
1179	0	29792	
1180	0	29932	
1181	0	30072	
1182	0	30112	
1183	0	29992	
1184	0	29832	
1185	0	29676	
1186	0	29576	
1187	0	29474	
1188	0	29388	
1189	0	29344	
1190	0	29308	
1191	0	29260	
1192	0	29224	
1193	0	29164	
1194	0	29128	
1195	0	29088	
1196	0	29060	
1197	0	29090	
1198	0	29154	
1199	0	29153	
1200	0	29140	
1201	0	29144	
1202	0	29132	
1203	0	29088	
1204	0	29040	
1205	0	29036	
1206	0	29024	
1207	0	29068	
1208	0	29144	
1209	0	29184	
1210	0	29236	
1211	0	29284	
1212	0	29296	
1213	0	29320	
1214	0	29360	
1215	0	29368	
1216	0	29388	
1217	0	29452	
1218	0	29492	
1219	0	29472	
1220	0	29556	
1221	0	29636	
1222	0	29704	
1223	0	29752	
1224	0	29816	
1225	0	29880	
1226	0	29948	
1227	0	29994	
1228	0	30002	
1229	0	30020	
1230	0	30048	
1231	0	30104	
1232	0	30120	
1233	0	30116	
1234	0	30152	
1235	0	30180	
1236	0	30168	
1237	0	30168	
1238	0	30200	
1239	0	30264	
1240	0	30304	
1241	0	30340	
1242	0	30392	
1243	0	30430	
1244	0	30400	
1245	0	30472	
1246	0	30544	
1247	0	30516	
1248	0	30520	
1249	0	30644	
1250	0	30704	
1251	0	30656	
1252	0	30612	
1253	0	30648	
1254	0	30672	
1255	0	30712	
1256	0	30748	
1257	0	30796	
1258	0	30868	
1259	0	30976	
1260	0	31064	
1261	0	31064	
1262	0	31042	
1263	0	31024	
1264	0	31024	
1265	0	31040	
1266	0	31010	
1267	0	31068	
1268	0	31196	
1269	0	31260	
1270	0	31328	
1271	0	31392	
1272	0	31396	
1273	0	31360	
1274	0	31342	
1275	0	31356	
1276	0	31408	
1277	0	31504	
1278	0	31552	
1279	0	31552	
1280	0	31596	
1281	0	31664	
1282	0	31660	
1283	0	31684	
1284	0	31724	
1285	0	31780	
1286	0	31808	
1287	0	31860	
1288	0	31914	
1289	0	31936	
1290	0	31908	
1291	0	31908	
1292	0	31966	
1293	0	32020	
1294	0	32048	
1295	0	32100	
1296	0	32168	
1297	0	32208	
1298	0	32236	
1299	0	32280	
1300	0	32344	
1301	0	32392	
1302	0	32456	
1303	0	32480	
1304	0	32468	
1305	0	32490	
1306	0	32540	
1307	0	32560	
1308	0	32536	
1309	0	32504	
1310	0	32532	
1311	0	32588	
1312	0	32652	
1313	0	32704	
1314	0	32724	
1315	0	32764	
1316	0	32824	
1317	0	32900	
1318	0	32936	
1319	0	32980	
1320	0	32982	
1321	0	33004	
1322	0	33096	
1323	0	33154	
1324	0	33200	
1325	0	33232	
1326	0	33276	
1327	0	33324	
1328	0	33400	
1329	0	33472	
1330	0	33524	
1331	0	33604	
1332	0	33648	
1333	0	33688	
1334	0	33704	
1335	0	33656	
1336	0	33660	
1337	0	33740	
1338	0	33800	
1339	0	33896	
1340	0	34008	
1341	0	34089	
1342	0	34184	
1343	0	34248	
1344	0	34296	
1345	0	34248	
1346	0	34216	
1347	0	34280	
1348	0	34390	
1349	0	34484	
1350	0	34556	
1351	0	34616	
1352	0	34704	
1353	0	34780	
1354	0	34852	
1355	0	34944	
1356	0	35044	
1357	0	35140	
1358	0	35216	
1359	0	35288	
1360	0	35388	
1361	0	35528	
1362	0	35592	
1363	0	35612	
1364	0	35608	
1365	0	35648	
1366	0	35700	
1367	0	35768	
1368	0	35812	
1369	0	35808	
1370	0	35884	
1371	0	36000	
1372	0	36064	
1373	0	36112	
1374	0	36160	
1375	0	36188	
1376	0	36212	
1377	0	36244	
1378	0	36268	
1379	0	36276	
1380	0	36320	
1381	0	36428	
1382	0	36512	
1383	0	36544	
1384	0	36544	
1385	0	36492	
1386	0	36468	
1387	0	36504	
1388	0	36544	
1389	0	36580	
1390	0	36612	
1391	0	36568	
1392	0	36504	
1393	0	36500	
1394	0	36496	
1395	0	36464	
1396	0	36448	
1397	0	36432	
1398	0	36392	
1399	0	36332	
1400	0	36284	
1401	0	36228	
1402	0	36184	
1403	0	36096	
1404	0	35958	
1405	0	35856	
1406	0	35732	
1407	0	35564	
1408	0	35380	
1409	0	35232	
1410	0	35104	
1411	0	34952	
1412	0	34828	
1413	0	34724	
1414	0	34568	
1415	0	34382	
1416	0	34204	
1417	0	34072	
1418	0	33920	
1419	0	33792	
1420	0	33652	
1421	0	33544	
1422	0	33472	
1423	0	33332	
1424	0	33124	
1425	0	32940	
1426	0	32768	
1427	0	32600	
1428	0	32460	
1429	0	32324	
1430	0	32204	
1431	0	32072	
1432	0	31932	
1433	0	31784	
1434	0	31680	
1435	0	31568	
1436	0	31424	
1437	0	31292	
1438	0	31168	
1439	0	31148	
1440	0	31094	
1441	0	31024	
1442	0	30968	
1443	0	30824	
1444	0	30746	
1445	0	30696	
1446	0	30636	
1447	0	30568	
1448	0	30416	
1449	0	30296	
1450	0	30200	
1451	0	30146	
1452	0	30112	
1453	0	30080	
1454	0	30024	
1455	0	29976	
1456	0	30000	
1457	0	29976	
1458	0	29940	
1459	0	29890	
1460	0	29802	
1461	0	29680	
1462	0	29644	
1463	0	29660	
1464	0	29628	
1465	0	29600	
1466	0	29624	
1467	0	29728	
1468	0	29790	
1469	0	29748	
1470	0	29704	
1471	0	29720	
1472	0	29786	
1473	0	29896	
1474	0	29970	
1475	0	29968	
1476	0	29960	
1477	0	29928	
1478	0	29868	
1479	0	29780	
1480	0	29788	
1481	0	29794	
1482	0	29800	
1483	0	29804	
1484	0	29836	
1485	0	29820	
1486	0	29824	
1487	0	29856	
1488	0	29888	
1489	0	29840	
1490	0	29816	
1491	0	29876	
1492	0	29920	
1493	0	29968	
1494	0	29972	
1495	0	29956	
1496	0	29936	
1497	0	29946	
1498	0	29960	
1499	0	29992	
1500	0	30064	
1501	0	30100	
1502	0	30152	
1503	0	30204	
1504	0	30248	
1505	0	30284	
1506	0	30268	
1507	0	30304	
1508	0	30360	
1509	0	30360	
1510	0	30364	
1511	0	30400	
1512	0	30448	
1513	0	30460	
1514	0	30440	
1515	0	30436	
1516	0	30436	
1517	0	30456	
1518	0	30496	
1519	0	30560	
1520	0	30576	
1521	0	30590	
1522	0	30598	
1523	0	30620	
1524	0	30656	
1525	0	30652	
1526	0	30596	
1527	0	30532	
1528	0	30584	
1529	0	30656	
1530	0	30736	
1531	0	30768	
1532	0	30752	
1533	0	30804	
1534	0	30808	
1535	0	30784	
1536	0	30818	
1537	0	30840	
1538	0	30868	
1539	0	30952	
1540	0	31004	
1541	0	30976	
1542	0	30932	
1543	0	30996	
1544	0	31064	
1545	0	31072	
1546	0	31052	
1547	0	31044	
1548	0	30972	
1549	0	30952	
1550	0	30986	
1551	0	31074	
1552	0	31128	
1553	0	31116	
1554	0	31076	
1555	0	31060	
1556	0	31072	
1557	0	31088	
1558	0	31140	
1559	0	31224	
1560	0	31264	
1561	0	31264	
1562	0	31256	
1563	0	31268	
1564	0	31296	
1565	0	31320	
1566	0	31324	
1567	0	31328	
1568	0	31336	
1569	0	31356	
1570	0	31344	
1571	0	31344	
1572	0	31412	
1573	0	31408	
1574	0	31408	
1575	0	31418	
1576	0	31448	
1577	0	31500	
1578	0	31544	
1579	0	31552	
1580	0	31528	
1581	0	31512	
1582	0	31480	
1583	0	31524	
1584	0	31620	
1585	0	31696	
1586	0	31680	
1587	0	31648	
1588	0	31672	
1589	0	31668	
1590	0	31656	
1591	0	31680	
1592	0	31704	
1593	0	31656	
1594	0	31648	
1595	0	31638	
1596	0	31620	
1597	0	31604	
1598	0	31640	
1599	0	31682	
1600	0	31692	
1601	0	31704	
1602	0	31696	
1603	0	31704	
1604	0	31728	
1605	0	31724	
1606	0	31712	
1607	0	31720	
1608	0	31720	
1609	0	31708	
1610	0	31708	
1611	0	31748	
1612	0	31788	
1613	0	31794	
1614	0	31724	
1615	0	31708	
1616	0	31760	
1617	0	31820	
1618	0	31860	
1619	0	31844	
1620	0	31840	
1621	0	31848	
1622	0	31848	
1623	0	31860	
1624	0	31792	
1625	0	31728	
1626	0	31816	
1627	0	31840	
1628	0	31752	
1629	0	31740	
1630	0	31770	
1631	0	31708	
1632	0	31654	
1633	0	31662	
1634	0	31764	
1635	0	31840	
1636	0	31868	
1637	0	31888	
1638	0	31930	
1639	0	31960	
1640	0	31970	
1641	0	31948	
1642	0	31924	
1643	0	31912	
1644	0	31908	
1645	0	31896	
1646	0	31888	
1647	0	31844	
1648	0	31872	
1649	0	31952	
1650	0	32012	
1651	0	32044	
1652	0	32040	
1653	0	32046	
1654	0	32082	
1655	0	32096	
1656	0	32068	
1657	0	32004	
1658	0	31960	
1659	0	31928	
1660	0	31996	
1661	0	32052	
1662	0	32080	
1663	0	32080	
1664	0	31992	
1665	0	31980	
1666	0	32016	
1667	0	32060	
1668	0	32076	
1669	0	32102	
1670	0	32136	
1671	0	32160	
1672	0	32168	
1673	0	32164	
1674	0	32180	
1675	0	32192	
1676	0	32208	
1677	0	32152	
1678	0	32172	
1679	0	32236	
1680	0	32296	
1681	0	32340	
1682	0	32332	
1683	0	32292	
1684	0	32276	
1685	0	32260	
1686	0	32256	
1687	0	32220	
1688	0	32268	
1689	0	32308	
1690	0	32276	
1691	0	32290	
1692	0	32320	
1693	0	32336	
1694	0	32356	
1695	0	32364	
1696	0	32320	
1697	0	32316	
1698	0	32340	
1699	0	32378	
1700	0	32412	
1701	0	32372	
1702	0	32376	
1703	0	32368	
1704	0	32314	
1705	0	32300	
1706	0	32308	
1707	0	32308	
1708	0	32288	
1709	0	32282	
1710	0	32288	
1711	0	32296	
1712	0	32320	
1713	0	32376	
1714	0	32400	
1715	0	32420	
1716	0	32400	
1717	0	32396	
1718	0	32432	
1719	0	32444	
1720	0	32420	
1721	0	32428	
1722	0	32444	
1723	0	32464	
1724	0	32472	
1725	0	32476	
1726	0	32512	
1727	0	32592	
1728	0	32640	
1729	0	32612	
1730	0	32516	
1731	0	32432	
1732	0	32396	
1733	0	32372	
1734	0	32384	
1735	0	32416	
1736	0	32444	
1737	0	32508	
1738	0	32564	
1739	0	32584	
1740	0	32541	
1741	0	32590	
1742	0	32681	
1743	0	32762	
1744	0	32776	
1745	0	32748	
1746	0	32736	
1747	0	32684	
1748	0	32628	
1749	0	32572	
1750	0	32504	
1751	0	32556	
1752	0	32616	
1753	0	32628	
1754	0	32624	
1755	0	32584	
1756	0	32544	
1757	0	32564	
1758	0	32552	
1759	0	32548	
1760	0	32608	
1761	0	32624	
1762	0	32684	
1763	0	32752	
1764	0	32832	
1765	0	32924	
1766	0	32992	
1767	0	33068	
1768	0	33164	
1769	0	33248	
1770	0	33380	
1771	0	33472	
1772	0	33544	
1773	0	33612	
1774	0	33704	
1775	0	33832	
1776	0	34004	
1777	0	34140	
1778	0	34172	
1779	0	34148	
1780	0	34164	
1781	0	34208	
1782	0	34256	
1783	0	34352	
1784	0	34388	
1785	0	34420	
1786	0	34484	
1787	0	34560	
1788	0	34552	
1789	0	34584	
1790	0	34640	
1791	0	34690	
1792	0	34740	
1793	0	34800	
1794	0	34916	
1795	0	35100	
1796	0	35272	
1797	0	35376	
1798	0	35440	
1799	0	35554	
1800	0	35620	
1801	0	35604	
1802	0	35556	
1803	0	35508	
1804	0	35474	
1805	0	35424	
1806	0	35460	
1807	0	35520	
1808	0	35504	
1809	0	35514	
1810	0	35492	
1811	0	35316	
1812	0	35152	
1813	0	35008	
1814	0	34876	
1815	0	34704	
1816	0	34532	
1817	0	34416	
1818	0	34300	
1819	0	34172	
1820	0	34032	
1821	0	33900	
1822	0	33804	
1823	0	33748	
1824	0	33666	
1825	0	33524	
1826	0	33412	
1827	0	33392	
1828	0	33382	
1829	0	33320	
1830	0	33280	
1831	0	33238	
1832	0	33214	
1833	0	33188	
1834	0	33108	
1835	0	33052	
1836	0	32992	
1837	0	32940	
1838	0	32916	
1839	0	32924	
1840	0	32900	
1841	0	32912	
1842	0	32916	
1843	0	32816	
1844	0	32656	
1845	0	32554	
1846	0	32456	
1847	0	32372	
1848	0	32302	
1849	0	32188	
1850	0	32036	
1851	0	31932	
1852	0	31860	
1853	0	31800	
1854	0	31756	
1855	0	31696	
1856	0	31644	
1857	0	31640	
1858	0	31648	
1859	0	31664	
1860	0	31640	
1861	0	31636	
1862	0	31664	
1863	0	31700	
1864	0	31744	
1865	0	31740	
1866	0	31768	
1867	0	31784	
1868	0	31780	
1869	0	31782	
1870	0	31800	
1871	0	31784	
1872	0	31744	
1873	0	31714	
1874	0	31748	
1875	0	31776	
1876	0	31768	
1877	0	31776	
1878	0	31784	
1879	0	31752	
1880	0	31764	
1881	0	31824	
1882	0	31904	
1883	0	31924	
1884	0	31916	
1885	0	31844	
1886	0	31768	
1887	0	31778	
1888	0	31824	
1889	0	31840	
1890	0	31864	
1891	0	31896	
1892	0	31944	
1893	0	32016	
1894	0	32078	
1895	0	32100	
1896	0	32072	
1897	0	31996	
1898	0	31948	
1899	0	31888	
1900	0	31856	
1901	0	31776	
1902	0	31652	
1903	0	31468	
1904	0	31248	
1905	0	31064	
1906	0	31088	
1907	0	31172	
1908	0	31284	
1909	0	31448	
1910	0	31800	
1911	0	32344	
1912	0	33004	
1913	0	33764	
1914	0	34608	
1915	0	35568	
1916	0	36576	
1917	0	37720	
1918	0	39104	
1919	0	40704	
1920	0	42276	
1921	0	43808	
1922	0	45380	
1923	0	46916	
1924	0	48584	
1925	0	50268	
1926	0	51832	
1927	0	53176	
1928	0	54440	
1929	0	55780	
1930	0	57152	
1931	0	58456	
1932	0	59576	
1933	0	60524	
1934	0	61300	
1935	0	61980	
1936	0	62060	
1937	0	61024	
1938	0	59052	
1939	0	56432	
1940	0	53216	
1941	0	49928	
1942	0	46544	
1943	0	42792	
1944	0	38882	
1945	0	35432	
1946	0	32848	
1947	0	30912	
1948	0	29528	
1949	0	28660	
1950	0	28096	
1951	0	27812	
1952	0	27668	
1953	0	27660	
1954	0	27816	
1955	0	28092	
1956	0	28464	
1957	0	28832	
1958	0	29104	
1959	0	29316	
1960	0	29520	
1961	0	29678	
1962	0	29768	
1963	0	29796	
1964	0	29772	
1965	0	29748	
1966	0	29640	
1967	0	29544	
1968	0	29436	
1969	0	29300	
1970	0	29192	
1971	0	29140	
1972	0	29098	
1973	0	29048	
1974	0	28960	
1975	0	28918	
1976	0	28924	
1977	0	28956	
1978	0	28984	
1979	0	28988	
1980	0	28996	
1981	0	29004	
1982	0	28960	
1983	0	28912	
1984	0	28872	
1985	0	28860	
1986	0	28876	
1987	0	28912	
1988	0	28948	
1989	0	28992	
1990	0	29008	
1991	0	28992	
1992	0	29040	
1993	0	29120	
1994	0	29164	
1995	0	29248	
1996	0	29352	
1997	0	29416	
1998	0	29380	
1999	0	29380	
2000	0	29408	
2001	0	29480	
2002	0	29564	
2003	0	29644	
2004	0	29680	
2005	0	29696	
2006	0	29688	
2007	0	29676	
2008	0	29656	
2009	0	29648	
2010	0	29616	
2011	0	29684	
2012	0	29760	
2013	0	29816	
2014	0	29872	
2015	0	29884	
2016	0	29920	
2017	0	29968	
2018	0	30000	
2019	0	30016	
2020	0	30018	
2021	0	30028	
2022	0	30092	
2023	0	30109	
2024	0	30116	
2025	0	30172	
2026	0	30272	
2027	0	30368	
2028	0	30392	
2029	0	30424	
2030	0	30432	
2031	0	30468	
2032	0	30508	
2033	0	30514	
2034	0	30518	
2035	0	30560	
2036	0	30644	
2037	0	30688	
2038	0	30686	
2039	0	30696	
2040	0	30748	
2041	0	30800	
2042	0	30868	
2043	0	30952	
2044	0	30976	
2045	0	30996	
2046	0	31044	
2047	0	31074	
2048	0	31116	
2049	0	31192	
2050	0	31248	
2051	0	31264	
2052	0	31264	
2053	0	31272	
2054	0	31308	
2055	0	31372	
2056	0	31416	
2057	0	31424	
2058	0	31404	
2059	0	31428	
2060	0	31464	
2061	0	31532	
2062	0	31584	
2063	0	31592	
2064	0	31620	
2065	0	31688	
2066	0	31760	
2067	0	31824	
2068	0	31888	
2069	0	31936	
2070	0	31952	
2071	0	31932	
2072	0	31880	
2073	0	31840	
2074	0	31878	
2075	0	31944	
2076	0	31988	
2077	0	32040	
2078	0	32084	
2079	0	32140	
2080	0	32136	
2081	0	32144	
2082	0	32172	
2083	0	32250	
2084	0	32336	
2085	0	32380	
2086	0	32364	
2087	0	32352	
2088	0	32416	
2089	0	32480	
2090	0	32524	
2091	0	32600	
2092	0	32608	
2093	0	32608	
2094	0	32656	
2095	0	32704	
2096	0	32780	
2097	0	32840	
2098	0	32844	
2099	0	32832	
2100	0	32856	
2101	0	32896	
2102	0	32932	
2103	0	33000	
2104	0	33040	
2105	0	33088	
2106	0	33136	
2107	0	33156	
2108	0	33162	
2109	0	33168	
2110	0	33154	
2111	0	33192	
2112	0	33292	
2113	0	33372	
2114	0	33464	
2115	0	33560	
2116	0	33656	
2117	0	33740	
2118	0	33824	
2119	0	33884	
2120	0	33964	
2121	0	33996	
2122	0	34048	
2123	0	34112	
2124	0	34216	
2125	0	34300	
2126	0	34330	
2127	0	34320	
2128	0	34352	
2129	0	34422	
2130	0	34492	
2131	0	34548	
2132	0	34612	
2133	0	34684	
2134	0	34708	
2135	0	34796	
2136	0	34908	
2137	0	34994	
2138	0	35052	
2139	0	35128	
2140	0	35164	
2141	0	35192	
2142	0	35284	
2143	0	35404	
2144	0	35524	
2145	0	35624	
2146	0	35652	
2147	0	35680	
2148	0	35696	
2149	0	35684	
2150	0	35736	
2151	0	35824	
2152	0	35920	
2153	0	35976	
2154	0	35996	
2155	0	36012	
2156	0	36092	
2157	0	36216	
2158	0	36274	
2159	0	36332	
2160	0	36336	
2161	0	36354	
2162	0	36412	
2163	0	36436	
2164	0	36464	
2165	0	36472	
2166	0	36480	
2167	0	36556	
2168	0	36616	
2169	0	36624	
2170	0	36584	
2171	0	36492	
2172	0	36412	
2173	0	36400	
2174	0	36352	
2175	0	36294	
2176	0	36296	
2177	0	36300	
2178	0	36260	
2179	0	36232	
2180	0	36200	
2181	0	36164	
2182	0	36136	
2183	0	36050	
2184	0	35972	
2185	0	35844	
2186	0	35736	
2187	0	35688	
2188	0	35568	
2189	0	35432	
2190	0	35292	
2191	0	35168	
2192	0	35024	
2193	0	34856	
2194	0	34716	
2195	0	34572	
2196	0	34448	
2197	0	34312	
2198	0	34116	
2199	0	33916	
2200	0	33776	
2201	0	33664	
2202	0	33580	
2203	0	33516	
2204	0	33376	
2205	0	33208	
2206	0	33004	
2207	0	32802	
2208	0	32624	
2209	0	32460	
2210	0	32332	
2211	0	32248	
2212	0	32144	
2213	0	32032	
2214	0	31892	
2215	0	31728	
2216	0	31574	
2217	0	31472	
2218	0	31428	
2219	0	31358	
2220	0	31260	
2221	0	31136	
2222	0	31016	
2223	0	30904	
2224	0	30796	
2225	0	30680	
2226	0	30576	
2227	0	30460	
2228	0	30362	
2229	0	30330	
2230	0	30268	
2231	0	30180	
2232	0	30124	
2233	0	30092	
2234	0	30048	
2235	0	30012	
2236	0	29984	
2237	0	29968	
2238	0	29910	
2239	0	29880	
2240	0	29836	
2241	0	29850	
2242	0	29876	
2243	0	29864	
2244	0	29842	
2245	0	29820	
2246	0	29768	
2247	0	29752	
2248	0	29760	
2249	0	29732	
2250	0	29676	
2251	0	29624	
2252	0	29592	
2253	0	29568	
2254	0	29536	
2255	0	29504	
2256	0	29612	
2257	0	29668	
2258	0	29662	
2259	0	29652	
2260	0	29664	
2261	0	29732	
2262	0	29776	
2263	0	29800	
2264	0	29808	
2265	0	29824	
2266	0	29884	
2267	0	29896	
2268	0	29872	
2269	0	29896	
2270	0	29916	
2271	0	29976	
2272	0	29992	
2273	0	29944	
2274	0	29930	
2275	0	29964	
2276	0	29996	
2277	0	29968	
2278	0	29924	
2279	0	30006	
2280	0	30100	
2281	0	30144	
2282	0	30144	
2283	0	30168	
2284	0	30156	
2285	0	30128	
2286	0	30132	
2287	0	30136	
2288	0	30148	
2289	0	30144	
2290	0	30184	
2291	0	30198	
2292	0	30224	
2293	0	30256	
2294	0	30300	
2295	0	30320	
2296	0	30348	
2297	0	30386	
2298	0	30384	
2299	0	30384	
2300	0	30452	
2301	0	30500	
2302	0	30548	
2303	0	30600	
2304	0	30616	
2305	0	30586	
2306	0	30576	
2307	0	30604	
2308	0	30620	
2309	0	30648	
2310	0	30620	
2311	0	30568	
2312	0	30568	
2313	0	30636	
2314	0	30732	
2315	0	30764	
2316	0	30760	
2317	0	30762	
2318	0	30816	
2319	0	30872	
2320	0	30912	
2321	0	30992	
2322	0	31068	
2323	0	31024	
2324	0	30996	
2325	0	31004	
2326	0	31044	
2327	0	31096	
2328	0	31120	
2329	0	31108	
2330	0	31084	
2331	0	31044	
2332	0	31098	
2333	0	31144	
2334	0	31156	
2335	0	31164	
2336	0	31176	
2337	0	31216	
2338	0	31320	
2339	0	31372	
2340	0	31380	
2341	0	31380	
2342	0	31400	
2343	0	31376	
2344	0	31336	
2345	0	31304	
2346	0	31276	
2347	0	31304	
2348	0	31348	
2349	0	31360	
2350	0	31388	
2351	0	31440	
2352	0	31492	
2353	0	31512	
2354	0	31520	
2355	0	31568	
2356	0	31554	
2357	0	31496	
2358	0	31528	
2359	0	31546	
2360	0	31588	
2361	0	31600	
2362	0	31604	
2363	0	31616	
2364	0	31642	
2365	0	31652	
2366	0	31640	
2367	0	31648	
2368	0	31684	
2369	0	31696	
2370	0	31672	
2371	0	31664	
2372	0	31692	
2373	0	31712	
2374	0	31704	
2375	0	31672	
2376	0	31648	
2377	0	31656	
2378	0	31632	
2379	0	31634	
2380	0	31630	
2381	0	31636	
2382	0	31632	
2383	0	31608	
2384	0	31600	
2385	0	31586	
2386	0	31592	
2387	0	31564	
2388	0	31476	
2389	0	31500	
2390	0	31584	
2391	0	31648	
2392	0	31640	
2393	0	31604	
2394	0	31620	
2395	0	31660	
2396	0	31692	
2397	0	31756	
2398	0	31780	
2399	0	31792	
2400	0	31840	
2401	0	31872	
2402	0	31892	
2403	0	31920	
2404	0	31930	
2405	0	31948	
2406	0	31968	
2407	0	31920	
2408	0	31852	
2409	0	31768	
2410	0	31716	
2411	0	31720	
2412	0	31730	
2413	0	31792	
2414	0	31852	
2415	0	31872	
2416	0	31856	
2417	0	31884	
2418	0	31928	
2419	0	31936	
2420	0	31984	
2421	0	32036	
2422	0	32048	
2423	0	31976	
2424	0	31940	
2425	0	31980	
2426	0	32040	
2427	0	32072	
2428	0	32072	
2429	0	32056	
2430	0	31992	
2431	0	31968	
2432	0	31992	
2433	0	31990	
2434	0	32024	
2435	0	32036	
2436	0	32080	
2437	0	32068	
2438	0	32044	
2439	0	32028	
2440	0	32032	
2441	0	32056	
2442	0	32144	
2443	0	32200	
2444	0	32172	
2445	0	32160	
2446	0	32160	
2447	0	32164	
2448	0	32164	
2449	0	32172	
2450	0	32144	
2451	0	32132	
2452	0	32160	
2453	0	32208	
2454	0	32208	
2455	0	32196	
2456	0	32220	
2457	0	32244	
2458	0	32316	
2459	0	32362	
2460	0	32386	
2461	0	32364	
2462	0	32288	
2463	0	32272	
2464	0	32260	
2465	0	32252	
2466	0	32260	
2467	0	32304	
2468	0	32320	
2469	0	32350	
2470	0	32404	
2471	0	32392	
2472	0	32360	
2473	0	32360	
2474	0	32352	
2475	0	32312	
2476	0	32216	
2477	0	32264	
2478	0	32364	
2479	0	32370	
2480	0	32352	
2481	0	32364	
2482	0	32368	
2483	0	32344	
2484	0	32322	
2485	0	32320	
2486	0	32344	
2487	0	32392	
2488	0	32424	
2489	0	32394	
2490	0	32352	
2491	0	32332	
2492	0	32292	
2493	0	32300	
2494	0	32352	
2495	0	32376	
2496	0	32368	
2497	0	32378	
2498	0	32420	
2499	0	32456	
2500	0	32484	
2501	0	32500	
2502	0	32460	
2503	0	32384	
2504	0	32380	
2505	0	32448	
2506	0	32496	
2507	0	32520	
2508	0	32528	
2509	0	32504	
2510	0	32512	
2511	0	32526	
2512	0	32572	
2513	0	32576	
2514	0	32498	
2515	0	32476	
2516	0	32480	
2517	0	32444	
2518	0	32452	
2519	0	32504	
2520	0	32588	
2521	0	32680	
2522	0	32728	
2523	0	32684	
2524	0	32760	
2525	0	32948	
2526	0	33088	
2527	0	33180	
2528	0	33298	
2529	0	33392	
2530	0	33480	
2531	0	33552	
2532	0	33668	
2533	0	33796	
2534	0	33874	
2535	0	33846	
2536	0	33824	
2537	0	33848	
2538	0	33872	
2539	0	33948	
2540	0	34028	
2541	0	34074	
2542	0	34176	
2543	0	34248	
2544	0	34340	
2545	0	34432	
2546	0	34464	
2547	0	34496	
2548	0	34604	
2549	0	34682	
2550	0	34796	
2551	0	34940	
2552	0	35052	
2553	0	35140	
2554	0	35206	
2555	0	35308	
2556	0	35412	
2557	0	35450	
2558	0	35468	
2559	0	35460	
2560	0	35460	
2561	0	35492	
2562	0	35546	
2563	0	35612	
2564	0	35668	
2565	0	35704	
2566	0	35612	
2567	0	35444	
2568	0	35296	
2569	0	35168	
2570	0	35016	
2571	0	34840	
2572	0	34630	
2573	0	34404	
2574	0	34232	
2575	0	34144	
2576	0	33984	
2577	0	33852	
2578	0	33764	
2579	0	33712	
2580	0	33672	
2581	0	33624	
2582	0	33602	
2583	0	33568	
2584	0	33456	
2585	0	33356	
2586	0	33280	
2587	0	33216	
2588	0	33168	
2589	0	33136	
2590	0	33084	
2591	0	33008	
2592	0	32912	
2593	0	32840	
2594	0	32832	
2595	0	32776	
2596	0	32728	
2597	0	32674	
2598	0	32600	
2599	0	32528	
2600	0	32448	
2601	0	32416	
2602	0	32412	
2603	0	32372	
2604	0	32316	
2605	0	32252	
2606	0	32148	
2607	0	31948	
2608	0	31848	
2609	0	31784	
2610	0	31744	
2611	0	31748	
2612	0	31772	
2613	0	31794	
2614	0	31796	
2615	0	31762	
2616	0	31736	
2617	0	31748	
2618	0	31772	
2619	0	31744	
2620	0	31664	
2621	0	31636	
2622	0	31648	
2623	0	31684	
2624	0	31692	
2625	0	31648	
2626	0	31652	
2627	0	31624	
2628	0	31626	
2629	0	31616	
2630	0	31604	
2631	0	31604	
2632	0	31564	
2633	0	31570	
2634	0	31596	
2635	0	31608	
2636	0	31668	
2637	0	31708	
2638	0	31768	
2639	0	31820	
2640	0	31872	
2641	0	31928	
2642	0	31992	
2643	0	32016	
2644	0	32012	
2645	0	32028	
2646	0	32048	
2647	0	32108	
2648	0	32120	
2649	0	32132	
2650	0	32140	
2651	0	32116	
2652	0	32118	
2653	0	32120	
2654	0	32072	
2655	0	31992	
2656	0	31860	
2657	0	31748	
2658	0	31640	
2659	0	31496	
2660	0	31304	
2661	0	31160	
2662	0	31144	
2663	0	31196	
2664	0	31296	
2665	0	31410	
2666	0	31596	
2667	0	31960	
2668	0	32516	
2669	0	33188	
2670	0	33960	
2671	0	34880	
2672	0	35948	
2673	0	37164	
2674	0	38600	
2675	0	40228	
2676	0	41928	
2677	0	43552	
2678	0	45184	
2679	0	46792	
2680	0	48432	
2681	0	50156	
2682	0	51852	
2683	0	53380	
2684	0	54676	
2685	0	55864	
2686	0	57144	
2687	0	58536	
2688	0	59832	
2689	0	60880	
2690	0	61664	
2691	0	62216	
2692	0	62432	
2693	0	61664	
2694	0	59924	
2695	0	57376	
2696	0	54208	
2697	0	50896	
2698	0	47504	
2699	0	43788	
2700	0	39756	
2701	0	35908	
2702	0	32962	
2703	0	30904	
2704	0	29492	
2705	0	28548	
2706	0	28026	
2707	0	27760	
2708	0	27592	
2709	0	27468	
2710	0	27437	
2711	0	27572	
2712	0	27848	
2713	0	28252	
2714	0	28592	
2715	0	28898	
2716	0	29164	
2717	0	29344	
2718	0	29492	
2719	0	29606	
2720	0	29724	
2721	0	29744	
2722	0	29720	
2723	0	29672	
2724	0	29576	
2725	0	29464	
2726	0	29344	
2727	0	29264	
2728	0	29204	
2729	0	29128	
2730	0	29084	
2731	0	29000	
2732	0	28932	
2733	0	28956	
2734	0	28966	
2735	0	29000	
2736	0	28992	
2737	0	28992	
2738	0	29012	
2739	0	29054	
2740	0	29124	
2741	0	29164	
2742	0	29220	
2743	0	29330	
2744	0	29406	
2745	0	29348	
2746	0	29308	
2747	0	29280	
2748	0	29260	
2749	0	29256	
2750	0	29292	
2751	0	29344	
2752	0	29388	
2753	0	29420	
2754	0	29464	
2755	0	29504	
2756	0	29536	
2757	0	29576	
2758	0	29584	
2759	0	29592	
2760	0	29616	
2761	0	29676	
2762	0	29764	
2763	0	29796	
2764	0	29812	
2765	0	29864	
2766	0	29908	
2767	0	29930	
2768	0	29976	
2769	0	30024	
2770	0	30032	
2771	0	30040	
2772	0	30060	
2773	0	30092	
2774	0	30124	
2775	0	30180	
2776	0	30234	
2777	0	30292	
2778	0	30344	
2779	0	30410	
2780	0	30444	
2781	0	30476	
2782	0	30564	
2783	0	30646	
2784	0	30724	
2785	0	30744	
2786	0	30688	
2787	0	30696	
2788	0	30684	
2789	0	30680	
2790	0	30728	
2791	0	30716	
2792	0	30684	
2793	0	30656	
2794	0	30704	
2795	0	30808	
2796	0	30888	
2797	0	30916	
2798	0	30940	
2799	0	30996	
2800	0	31060	
2801	0	31120	
2802	0	31184	
2803	0	31240	
2804	0	31294	
2805	0	31328	
2806	0	31340	
2807	0	31344	
2808	0	31364	
2809	0	31380	
2810	0	31384	
2811	0	31400	
2812	0	31464	
2813	0	31536	
2814	0	31576	
2815	0	31628	
2816	0	31676	
2817	0	31724	
2818	0	31770	
2819	0	31776	
2820	0	31800	
2821	0	31844	
2822	0	31928	
2823	0	31984	
2824	0	31976	
2825	0	31968	
2826	0	31968	
2827	0	32016	
2828	0	32048	
2829	0	32032	
2830	0	32004	
2831	0	32004	
2832	0	32060	
2833	0	32122	
2834	0	32136	
2835	0	32176	
2836	0	32204	
2837	0	32296	
2838	0	32312	
2839	0	32316	
2840	0	32324	
2841	0	32360	
2842	0	32400	
2843	0	32408	
2844	0	32436	
2845	0	32456	
2846	0	32492	
2847	0	32504	
2848	0	32500	
2849	0	32548	
2850	0	32608	
2851	0	32656	
2852	0	32676	
2853	0	32724	
2854	0	32836	
2855	0	32904	
2856	0	32996	
2857	0	33100	
2858	0	33156	
2859	0	33230	
2860	0	33280	
2861	0	33280	
2862	0	33264	
2863	0	33298	
2864	0	33376	
2865	0	33444	
2866	0	33492	
2867	0	33540	
2868	0	33600	
2869	0	33636	
2870	0	33672	
2871	0	33684	
2872	0	33712	
2873	0	33768	
2874	0	33864	
2875	0	33948	
2876	0	33980	
2877	0	34048	
2878	0	34084	
2879	0	34120	
2880	0	34148	
2881	0	34208	
2882	0	34340	
2883	0	34478	
2884	0	34572	
2885	0	34632	
2886	0	34656	
2887	0	34692	
2888	0	34736	
2889	0	34816	
2890	0	34872	
2891	0	34948	
2892	0	35032	
2893	0	35100	
2894	0	35184	
2895	0	35220	
2896	0	35304	
2897	0	35420	
2898	0	35520	
2899	0	35588	
2900	0	35604	
2901	0	35660	
2902	0	35764	
2903	0	35840	
2904	0	35912	
2905	0	36004	
2906	0	36050	
2907	0	36056	
2908	0	36056	
2909	0	36112	
2910	0	36204	
2911	0	36276	
2912	0	36320	
2913	0	36384	
2914	0	36388	
2915	0	36396	
2916	0	36444	
2917	0	36456	
2918	0	36472	
2919	0	36498	
2920	0	36516	
2921	0	36576	
2922	0	36652	
2923	0	36672	
2924	0	36676	
2925	0	36704	
2926	0	36672	
2927	0	36596	
2928	0	36564	
2929	0	36546	
2930	0	36504	
2931	0	36504	
2932	0	36508	
2933	0	36504	
2934	0	36472	
2935	0	36384	
2936	0	36392	
2937	0	36336	
2938	0	36212	
2939	0	36178	
2940	0	36188	
2941	0	36160	
2942	0	36080	
2943	0	35998	
2944	0	35884	
2945	0	35748	
2946	0	35624	
2947	0	35464	
2948	0	35292	
2949	0	35148	
2950	0	34964	
2951	0	34816	
2952	0	34644	
2953	0	34450	
2954	0	34218	
2955	0	33988	
2956	0	33804	
2957	0	33652	
2958	0	33508	
2959	0	33356	
2960	0	33216	
2961	0	33096	
2962	0	32944	
2963	0	32760	
2964	0	32616	
2965	0	32540	
2966	0	32436	
2967	0	32296	
2968	0	32184	
2969	0	32048	
2970	0	31880	
2971	0	31692	
2972	0	31584	
2973	0	31524	
2974	0	31412	
2975	0	31228	
2976	0	31076	
2977	0	30960	
2978	0	30872	
2979	0	30796	
2980	0	30736	
2981	0	30666	
2982	0	30624	
2983	0	30508	
2984	0	30400	
2985	0	30352	
2986	0	30304	
2987	0	30222	
2988	0	30156	
2989	0	30112	
2990	0	30064	
2991	0	29984	
2992	0	29908	
2993	0	29872	
2994	0	29876	
2995	0	29860	
2996	0	29800	
2997	0	29748	
2998	0	29712	
2999	0	29684	
3000	0	29648	
3001	0	29676	
3002	0	29668	
3003	0	29652	
3004	0	29644	
3005	0	29592	
3006	0	29532	
3007	0	29464	
3008	0	29500	
3009	0	29496	
3010	0	29458	
3011	0	29506	
3012	0	29532	
3013	0	29540	
3014	0	29564	
3015	0	29596	
3016	0	29620	
3017	0	29688	
3018	0	29768	
3019	0	29812	
3020	0	29812	
3021	0	29768	
3022	0	29768	
3023	0	29792	
3024	0	29804	
3025	0	29838	
3026	0	29900	
3027	0	29896	
3028	0	29876	
3029	0	29868	
3030	0	29844	
3031	0	29820	
3032	0	29772	
3033	0	29830	
3034	0	29892	
3035	0	29952	
3036	0	29952	
3037	0	29996	
3038	0	30044	
3039	0	30080	
3040	0	30136	
3041	0	30196	
3042	0	30176	
3043	0	30152	
3044	0	30152	
3045	0	30164	
3046	0	30140	
3047	0	30144	
3048	0	30176	
3049	0	30144	
3050	0	30116	
3051	0	30076	
3052	0	30112	
3053	0	30196	
3054	0	30236	
3055	0	30208	
3056	0	30232	
3057	0	30268	
3058	0	30312	
3059	0	30372	
3060	0	30424	
3061	0	30434	
3062	0	30476	
3063	0	30538	
3064	0	30573	
3065	0	30608	
3066	0	30648	
3067	0	30653	
3068	0	30724	
3069	0	30776	
3070	0	30832	
3071	0	30892	
3072	0	30928	
3073	0	30936	
3074	0	30972	
3075	0	31008	
3076	0	31064	
3077	0	31128	
3078	0	31140	
3079	0	31188	
3080	0	31228	
3081	0	31200	
3082	0	31188	
3083	0	31168	
3084	0	31168	
3085	0	31188	
3086	0	31200	
3087	0	31228	
3088	0	31188	
3089	0	31122	
3090	0	31072	
3091	0	30996	
3092	0	31020	
3093	0	31032	
3094	0	31040	
3095	0	31050	
3096	0	31132	
3097	0	31152	
3098	0	31168	
3099	0	31160	
3100	0	31224	
3101	0	31284	
3102	0	31340	
3103	0	31404	
3104	0	31458	
3105	0	31458	
3106	0	31436	
3107	0	31384	
3108	0	31356	
3109	0	31372	
3110	0	31402	
3111	0	31376	
3112	0	31336	
3113	0	31368	
3114	0	31448	
3115	0	31490	
3116	0	31540	
3117	0	31556	
3118	0	31560	
3119	0	31560	
3120	0	31520	
3121	0	31500	
3122	0	31484	
3123	0	31484	
3124	0	31504	
3125	0	31566	
3126	0	31580	
3127	0	31604	
3128	0	31596	
3129	0	31544	
3130	0	31508	
3131	0	31532	
3132	0	31560	
3133	0	31560	
3134	0	31576	
3135	0	31592	
3136	0	31608	
3137	0	31616	
3138	0	31608	
3139	0	31676	
3140	0	31776	
3141	0	31792	
3142	0	31812	
3143	0	31856	
3144	0	31900	
3145	0	31932	
3146	0	31900	
3147	0	31828	
3148	0	31808	
3149	0	31808	
3150	0	31844	
3151	0	31848	
3152	0	31824	
3153	0	31756	
3154	0	31752	
3155	0	31764	
3156	0	31796	
3157	0	31852	
3158	0	31876	
3159	0	31856	
3160	0	31804	
3161	0	31740	
3162	0	31736	
3163	0	31812	
3164	0	31902	
3165	0	31940	
3166	0	31932	
3167	0	31912	
3168	0	31912	
3169	0	31912	
3170	0	31876	
3171	0	31876	
3172	0	31912	
3173	0	31952	
3174	0	31920	
3175	0	31948	
3176	0	32012	
3177	0	32070	
3178	0	32100	
3179	0	32132	
3180	0	32140	
3181	0	32140	
3182	0	32134	
3183	0	32124	
3184	0	32088	
3185	0	32032	
3186	0	31996	
3187	0	31984	
3188	0	31936	
3189	0	31860	
3190	0	31800	
3191	0	31816	
3192	0	31840	
3193	0	31792	
3194	0	31740	
3195	0	31768	
3196	0	31820	
3197	0	31860	
3198	0	31900	
3199	0	32012	
3200	0	32072	
3201	0	32108	
3202	0	32108	
3203	0	32120	
3204	0	32160	
3205	0	32208	
3206	0	32232	
3207	0	32196	
3208	0	32156	
3209	0	32152	
3210	0	32136	
3211	0	32076	
3212	0	32024	
3213	0	32016	
3214	0	32104	
3215	0	32224	
3216	0	32320	
3217	0	32316	
3218	0	32286	
3219	0	32300	
3220	0	32380	
3221	0	32480	
3222	0	32464	
3223	0	32424	
3224	0	32440	
3225	0	32464	
3226	0	32528	
3227	0	32648	
3228	0	32816	
3229	0	33074	
3230	0	33288	
3231	0	33424	
3232	0	33524	
3233	0	33552	
3234	0	33580	
3235	0	33592	
3236	0	33624	
3237	0	33612	
3238	0	33638	
3239	0	33668	
3240	0	33724	
3241	0	33742	
3242	0	33804	
3243	0	33888	
3244	0	33904	
3245	0	33904	
3246	0	33922	
3247	0	34040	
3248	0	34076	
3249	0	34112	
3250	0	34268	
3251	0	34428	
3252	0	34544	
3253	0	34656	
3254	0	34816	
3255	0	35056	
3256	0	35296	
3257	0	35412	
3258	0	35400	
3259	0	35372	
3260	0	35344	
3261	0	35286	
3262	0	35264	
3263	0	35272	
3264	0	35252	
3265	0	35204	
3266	0	35180	
3267	0	35236	
3268	0	35228	
3269	0	35080	
3270	0	34912	
3271	0	34752	
3272	0	34612	
3273	0	34544	
3274	0	34408	
3275	0	34248	
3276	0	34130	
3277	0	34024	
3278	0	33916	
3279	0	33832	
3280	0	33792	
3281	0	33720	
3282	0	33652	
3283	0	33612	
3284	0	33592	
3285	0	33572	
3286	0	33548	
3287	0	33500	
3288	0	33448	
3289	0	33368	
3290	0	33244	
3291	0	33140	
3292	0	32970	
3293	0	32868	
3294	0	32788	
3295	0	32720	
3296	0	32696	
3297	0	32724	
3298	0	32728	
3299	0	32672	
3300	0	32564	
3301	0	32488	
3302	0	32428	
3303	0	32376	
3304	0	32336	
3305	0	32260	
3306	0	32128	
3307	0	31916	
3308	0	31752	
3309	0	31644	
3310	0	31606	
3311	0	31552	
3312	0	31476	
3313	0	31424	
3314	0	31444	
3315	0	31450	
3316	0	31450	
3317	0	31496	
3318	0	31524	
3319	0	31544	
3320	0	31560	
3321	0	31554	
3322	0	31594	
3323	0	31656	
3324	0	31636	
3325	0	31640	
3326	0	31652	
3327	0	31680	
3328	0	31722	
3329	0	31778	
3330	0	31804	
3331	0	31724	
3332	0	31712	
3333	0	31720	
3334	0	31724	
3335	0	31728	
3336	0	31728	
3337	0	31740	
3338	0	31736	
3339	0	31732	
3340	0	31732	
3341	0	31684	
3342	0	31684	
3343	0	31716	
3344	0	31732	
3345	0	31760	
3346	0	31808	
3347	0	31848	
3348	0	31868	
3349	0	31834	
3350	0	31844	
3351	0	31876	
3352	0	31824	
3353	0	31808	
3354	0	31840	
3355	0	31904	
3356	0	31984	
3357	0	32028	
3358	0	32040	
3359	0	31992	
3360	0	31836	
3361	0	31724	
3362	0	31564	
3363	0	31408	
3364	0	31200	
3365	0	30984	
3366	0	30840	
3367	0	30812	
3368	0	30874	
3369	0	31040	
3370	0	31248	
3371	0	31568	
3372	0	32096	
3373	0	32760	
3374	0	33544	
3375	0	34476	
3376	0	35540	
3377	0	36656	
3378	0	37908	
3379	0	39536	
3380	0	41280	
3381	0	43000	
3382	0	44660	
3383	0	46360	
3384	0	48084	
3385	0	49792	
3386	0	51512	
3387	0	53212	
3388	0	54788	
3389	0	56288	
3390	0	57644	
3391	0	58912	
3392	0	60220	
3393	0	61496	
3394	0	62568	
3395	0	63320	
3396	0	63656	
3397	0	63214	
3398	0	61700	
3399	0	59390	
3400	0	56292	
3401	0	52756	
3402	0	49336	
3403	0	45668	
3404	0	41432	
3405	0	36904	
3406	0	32964	
3407	0	30032	
3408	0	28048	
3409	0	26940	
3410	0	26444	
3411	0	26272	
3412	0	26284	
3413	0	26296	
3414	0	26324	
3415	0	26328	
3416	0	26440	
3417	0	26688	
3418	0	27001	
3419	0	27308	
3420	0	27624	
3421	0	27992	
3422	0	28300	
3423	0	28560	
3424	0	28760	
3425	0	29012	
3426	0	29238	
3427	0	29476	
3428	0	29576	
3429	0	29604	
3430	0	29568	
3431	0	29468	
3432	0	29328	
3433	0	29224	
3434	0	29204	
3435	0	29172	
3436	0	29160	
3437	0	29120	
3438	0	29112	
3439	0	29148	
3440	0	29266	
3441	0	29320	
3442	0	29264	
3443	0	29184	
3444	0	29164	
3445	0	29164	
3446	0	29130	
3447	0	29096	
3448	0	29040	
3449	0	29052	
3450	0	29140	
3451	0	29184	
3452	0	29268	
3453	0	29370	
3454	0	29372	
3455	0	29324	
3456	0	29316	
3457	0	29388	
3458	0	29500	
3459	0	29596	
3460	0	29696	
3461	0	29800	
3462	0	29856	
3463	0	29852	
3464	0	29838	
3465	0	29824	
3466	0	29836	
3467	0	29920	
3468	0	30008	
3469	0	30048	
3470	0	30048	
3471	0	30016	
3472	0	29956	
3473	0	29948	
3474	0	29968	
3475	0	30008	
3476	0	30060	
3477	0	30154	
3478	0	30228	
3479	0	30304	
3480	0	30376	
3481	0	30496	
3482	0	30558	
3483	0	30564	
3484	0	30624	
3485	0	30748	
3486	0	30880	
3487	0	30952	
3488	0	30928	
3489	0	30900	
3490	0	30888	
3491	0	30844	
3492	0	30848	
3493	0	30828	
3494	0	30796	
3495	0	30732	
3496	0	30704	
3497	0	30760	
3498	0	30828	
3499	0	30886	
3500	0	31044	
3501	0	31112	
3502	0	31140	
3503	0	31176	
3504	0	31156	
3505	0	31184	
3506	0	31264	
3507	0	31320	
3508	0	31348	
3509	0	31392	
3510	0	31368	
3511	0	31332	
3512	0	31296	
3513	0	31340	
3514	0	31400	
3515	0	31432	
3516	0	31416	
3517	0	31472	
3518	0	31594	
3519	0	31656	
3520	0	31640	
3521	0	31594	
3522	0	31552	
3523	0	31632	
3524	0	31760	
3525	0	31836	
3526	0	31836	
3527	0	31832	
3528	0	31916	
3529	0	31924	
3530	0	31952	
3531	0	32076	
3532	0	32148	
3533	0	32152	
3534	0	32148	
3535	0	32196	
3536	0	32192	
3537	0	32160	
3538	0	32152	
3539	0	32208	
3540	0	32320	
3541	0	32394	
3542	0	32376	
3543	0	32288	
3544	0	32360	
3545	0	32492	
3546	0	32584	
3547	0	32620	
3548	0	32626	
3549	0	32676	
3550	0	32752	
3551	0	32746	
3552	0	32740	
3553	0	32768	
3554	0	32880	
3555	0	33004	
3556	0	33080	
3557	0	33096	
3558	0	33100	
3559	0	33120	
3560	0	33176	
3561	0	33268	
3562	0	33292	
3563	0	33312	
3564	0	33376	
3565	0	33508	
3566	0	33620	
3567	0	33724	
3568	0	33808	
3569	0	33856	
3570	0	33876	
3571	0	33872	
3572	0	33868	
3573	0	33948	
3574	0	34048	
3575	0	34120	
3576	0	34128	
3577	0	34088	
3578	0	34124	
3579	0	34204	
3580	0	34216	
3581	0	34240	
3582	0	34294	
3583	0	34402	
3584	0	34512	
3585	0	34632	
3586	0	34708	
3587	0	34812	
3588	0	34914	
3589	0	35004	
3590	0	35080	
3591	0	35120	
3592	0	35124	
3593	0	35136	
3594	0	35160	
3595	0	35216	
3596	0	35328	
3597	0	35484	
3598	0	35576	
3599	0	35640	
3600	0	35708	
3601	0	35816	
3602	0	35896	
3603	0	35928	
3604	0	36064	
3605	0	36156	
3606	0	36228	
3607	0	36284	
3608	0	36376	
3609	0	36412	
3610	0	36452	
3611	0	36536	
3612	0	36580	
3613	0	36588	
3614	0	36612	
3615	0	36704	
3616	0	36788	
3617	0	36864	
3618	0	36920	
3619	0	36922	
3620	0	36916	
3621	0	36896	
3622	0	36924	
3623	0	36980	
3624	0	37088	
3625	0	37152	
3626	0	37180	
3627	0	37232	
3628	0	37204	
3629	0	37212	
3630	0	37232	
3631	0	37244	
3632	0	37200	
3633	0	37184	
3634	0	37224	
3635	0	37200	
3636	0	37232	
3637	0	37200	
3638	0	37128	
3639	0	36996	
3640	0	36868	
3641	0	36780	
3642	0	36680	
3643	0	36640	
3644	0	36560	
3645	0	36430	
3646	0	36276	
3647	0	36192	
3648	0	36120	
3649	0	35964	
3650	0	35716	
3651	0	35556	
3652	0	35476	
3653	0	35284	
3654	0	35066	
3655	0	34806	
3656	0	34654	
3657	0	34532	
3658	0	34396	
3659	0	34216	
3660	0	34052	
3661	0	33836	
3662	0	33600	
3663	0	33424	
3664	0	33228	
3665	0	32992	
3666	0	32768	
3667	0	32608	
3668	0	32482	
3669	0	32368	
3670	0	32248	
3671	0	32116	
3672	0	31932	
3673	0	31772	
3674	0	31632	
3675	0	31480	
3676	0	31280	
3677	0	31120	
3678	0	30944	
3679	0	30752	
3680	0	30576	
3681	0	30482	
3682	0	30472	
3683	0	30484	
3684	0	30368	
3685	0	30292	
3686	0	30200	
3687	0	30160	
3688	0	30116	
3689	0	30016	
3690	0	29944	
3691	0	29950	
3692	0	29888	
3693	0	29844	
3694	0	29830	
3695	0	29780	
3696	0	29678	
3697	0	29580	
3698	0	29560	
3699	0	29628	
3700	0	29648	
3701	0	29620	
3702	0	29592	
3703	0	29562	
3704	0	29606	
3705	0	29596	
3706	0	29604	
3707	0	29696	
3708	0	29668	
3709	0	29576	
3710	0	29532	
3711	0	29512	
3712	0	29448	
3713	0	29380	
3714	0	29360	
3715	0	29364	
3716	0	29328	
3717	0	29332	
3718	0	29386	
3719	0	29452	
3720	0	29504	
3721	0	29574	
3722	0	29682	
3723	0	29712	
3724	0	29764	
3725	0	29724	
3726	0	29712	
3727	0	29728	
3728	0	29732	
3729	0	29760	
3730	0	29764	
3731	0	29736	
3732	0	29736	
3733	0	29722	
3734	0	29708	
3735	0	29742	
3736	0	29776	
3737	0	29766	
3738	0	29756	
3739	0	29764	
3740	0	29788	
3741	0	29764	
3742	0	29720	
3743	0	29670	
3744	0	29688	
3745	0	29712	
3746	0	29728	
3747	0	29760	
3748	0	29824	
3749	0	29884	
3750	0	29964	
3751	0	29992	
3752	0	29996	
3753	0	30084	
3754	0	30188	
3755	0	30288	
3756	0	30304	
3757	0	30332	
3758	0	30364	
3759	0	30234	
3760	0	30172	
3761	0	30246	
3762	0	30328	
3763	0	30388	
3764	0	30492	
3765	0	30564	
3766	0	30532	
3767	0	30480	
3768	0	30432	
3769	0	30408	
3770	0	30480	
3771	0	30520	
3772	0	30568	
3773	0	30536	
3774	0	30436	
3775	0	30440	
3776	0	30528	
3777	0	30638	
3778	0	30760	
3779	0	30796	
3780	0	30788	
3781	0	30868	
3782	0	30840	
3783	0	30818	
3784	0	30844	
3785	0	30896	
3786	0	30972	
3787	0	30992	
3788	0	30952	
3789	0	30860	
3790	0	30832	
3791	0	30856	
3792	0	30940	
3793	0	30992	
3794	0	31008	
3795	0	31028	
3796	0	31096	
3797	0	31104	
3798	0	31114	
3799	0	31184	
3800	0	31264	
3801	0	31248	
3802	0	31226	
3803	0	31204	
3804	0	31168	
3805	0	31188	
3806	0	31268	
3807	0	31340	
3808	0	31384	
3809	0	31456	
3810	0	31476	
3811	0	31392	
3812	0	31336	
3813	0	31280	
3814	0	31248	
3815	0	31264	
3816	0	31250	
3817	0	31226	
3818	0	31300	
3819	0	31372	
3820	0	31448	
3821	0	31548	
3822	0	31592	
3823	0	31640	
3824	0	31616	
3825	0	31566	
3826	0	31524	
3827	0	31492	
3828	0	31482	
3829	0	31468	
3830	0	31466	
3831	0	31456	
3832	0	31472	
3833	0	31492	
3834	0	31480	
3835	0	31524	
3836	0	31596	
3837	0	31656	
3838	0	31652	
3839	0	31704	
3840	0	31776	
3841	0	31828	
3842	0	31876	
3843	0	31896	
3844	0	31900	
3845	0	31884	
3846	0	31842	
3847	0	31812	
3848	0	31812	
3849	0	31764	
3850	0	31728	
3851	0	31728	
3852	0	31764	
3853	0	31760	
3854	0	31768	
3855	0	31770	
3856	0	31808	
3857	0	31852	
3858	0	31840	
3859	0	31860	
3860	0	31904	
3861	0	31980	
3862	0	32056	
3863	0	32110	
3864	0	32116	
3865	0	32168	
3866	0	32244	
3867	0	32216	
3868	0	32076	
3869	0	32024	
3870	0	31968	
3871	0	31902	
3872	0	32020	
3873	0	32112	
3874	0	32120	
3875	0	32168	
3876	0	32192	
3877	0	32140	
3878	0	32144	
3879	0	32104	
3880	0	32096	
3881	0	32132	
3882	0	32160	
3883	0	32212	
3884	0	32216	
3885	0	32204	
3886	0	32212	
3887	0	32248	
3888	0	32312	
3889	0	32380	
3890	0	32440	
3891	0	32516	
3892	0	32672	
3893	0	32816	
3894	0	32968	
3895	0	33148	
3896	0	33392	
3897	0	33558	
3898	0	33652	
3899	0	33676	
3900	0	33712	
3901	0	33728	
3902	0	33728	
3903	0	33690	
3904	0	33600	
3905	0	33612	
3906	0	33664	
3907	0	33716	
3908	0	33708	
3909	0	33688	
3910	0	33714	
3911	0	33756	
3912	0	33856	
3913	0	33972	
3914	0	34112	
3915	0	34242	
3916	0	34378	
3917	0	34484	
3918	0	34600	
3919	0	34728	
3920	0	34828	
3921	0	34936	
3922	0	34964	
3923	0	35048	
3924	0	35142	
3925	0	35198	
3926	0	35180	
3927	0	35152	
3928	0	35234	
3929	0	35296	
3930	0	35320	
3931	0	35332	
3932	0	35222	
3933	0	35048	
3934	0	34868	
3935	0	34728	
3936	0	34580	
3937	0	34436	
3938	0	34388	
3939	0	34352	
3940	0	34320	
3941	0	34272	
3942	0	34152	
3943	0	34032	
3944	0	33960	
3945	0	33912	
3946	0	33888	
3947	0	33874	
3948	0	33828	
3949	0	33720	
3950	0	33568	
3951	0	33452	
3952	0	33340	
3953	0	33216	
3954	0	33064	
3955	0	32885	
3956	0	32776	
3957	0	32700	
3958	0	32644	
3959	0	32600	
3960	0	32588	
3961	0	32560	
3962	0	32466	
3963	0	32328	
3964	0	32180	
3965	0	32156	
3966	0	32132	
3967	0	31980	
3968	0	31816	
3969	0	31706	
3970	0	31664	
3971	0	31616	
3972	0	31562	
3973	0	31516	
3974	0	31448	
3975	0	31344	
3976	0	31272	
3977	0	31248	
3978	0	31280	
3979	0	31324	
3980	0	31344	
3981	0	31312	
3982	0	31274	
3983	0	31328	
3984	0	31412	
3985	0	31400	
3986	0	31418	
3987	0	31416	
3988	0	31416	
3989	0	31396	
3990	0	31384	
3991	0	31416	
3992	0	31376	
3993	0	31364	
3994	0	31400	
3995	0	31396	
3996	0	31404	
3997	0	31424	
3998	0	31432	
3999	0	31388	
4000	0	31338	
4001	0	31306	
4002	0	31264	
4003	0	31304	
4004	0	31352	
4005	0	31368	
4006	0	31388	
4007	0	31432	
4008	0	31492	
4009	0	31572	
4010	0	31604	
4011	0	31620	
4012	0	31616	
4013	0	31652	
4014	0	31724	
4015	0	31712	
4016	0	31684	
4017	0	31692	
4018	0	31648	
4019	0	31604	
4020	0	31612	
4021	0	31712	
4022	0	31796	
4023	0	31868	
4024	0	31872	
4025	0	31824	
4026	0	31770	
4027	0	31756	
4028	0	31708	
4029	0	31576	
4030	0	31400	
4031	0	31184	
4032	0	30968	
4033	0	30792	
4034	0	30664	
4035	0	30696	
4036	0	30772	
4037	0	30858	
4038	0	31018	
4039	0	31366	
4040	0	31968	
4041	0	32712	
4042	0	33552	
4043	0	34612	
4044	0	35904	
4045	0	37304	
4046	0	38858	
4047	0	40616	
4048	0	42372	
4049	0	44072	
4050	0	45800	
4051	0	47568	
4052	0	49304	
4053	0	50996	
4054	0	52632	
4055	0	54164	
4056	0	55636	
4057	0	57024	
4058	0	58312	
4059	0	59528	
4060	0	60852	
4061	0	62116	
4062	0	63168	
4063	0	63812	
4064	0	64012	
4065	0	63296	
4066	0	61624	
4067	0	59088	
4068	0	55744	
4069	0	52184	
4070	0	48596	
4071	0	44544	
4072	0	39900	
4073	0	35268	
4074	0	31496	
4075	0	28804	
4076	0	27168	
4077	0	26368	
4078	0	26040	
4079	0	26020	
4080	0	26100	
4081	0	26098	
4082	0	26076	
4083	0	26148	
4084	0	26360	
4085	0	26644	
4086	0	26924	
4087	0	27240	
4088	0	27580	
4089	0	27952	
4090	0	28278	
4091	0	28548	
4092	0	28756	
4093	0	28956	
4094	0	29076	
4095	0	29140	
4096	0	29148	
4097	0	29152	
4098	0	29136	
4099	0	29098	
4100	0	29024	
4101	0	28982	
4102	0	29000	
4103	0	29056	
4104	0	29112	
4105	0	29120	
4106	0	29088	
4107	0	29082	
4108	0	29120	
4109	0	29108	
4110	0	29084	
4111	0	29056	
4112	0	29000	
4113	0	28962	
4114	0	28936	
4115	0	28904	
4116	0	28972	
4117	0	29024	
4118	0	29096	
4119	0	29220	
4120	0	29304	
4121	0	29360	
4122	0	29358	
4123	0	29384	
4124	0	29416	
4125	0	29408	
4126	0	29382	
4127	0	29412	
4128	0	29452	
4129	0	29504	
4130	0	29568	
4131	0	29648	
4132	0	29730	
4133	0	29808	
4134	0	29800	
4135	0	29768	
4136	0	29764	
4137	0	29804	
4138	0	29872	
4139	0	29902	
4140	0	29928	
4141	0	29956	
4142	0	29972	
4143	0	30060	
4144	0	30152	
4145	0	30248	
4146	0	30292	
4147	0	30328	
4148	0	30358	
4149	0	30412	
4150	0	30532	
4151	0	30620	
4152	0	30652	
4153	0	30684	
4154	0	30746	
4155	0	30840	
4156	0	30956	
4157	0	30984	
4158	0	30984	
4159	0	30996	
4160	0	31028	
4161	0	31036	
4162	0	31040	
4163	0	31056	
4164	0	31126	
4165	0	31184	
4166	0	31132	
4167	0	31068	
4168	0	31004	
4169	0	30986	
4170	0	31032	
4171	0	31116	
4172	0	31196	
4173	0	31256	
4174	0	31276	
4175	0	31296	
4176	0	31352	
4177	0	31392	
4178	0	31394	
4179	0	31372	
4180	0	31356	
4181	0	31404	
4182	0	31456	
4183	0	31510	
4184	0	31536	
4185	0	31600	
4186	0	31636	
4187	0	31696	
4188	0	31816	
4189	0	31964	
4190	0	32084	
4191	0	32136	
4192	0	32172	
4193	0	32164	
4194	0	32144	
4195	0	32128	
4196	0	32130	
4197	0	32128	
4198	0	32096	
4199	0	32088	
4200	0	32066	
4201	0	32058	
4202	0	32078	
4203	0	32104	
4204	0	32144	
4205	0	32200	
4206	0	32276	
4207	0	32320	
4208	0	32412	
4209	0	32492	
4210	0	32564	
4211	0	32602	
4212	0	32562	
4213	0	32540	
4214	0	32584	
4215	0	32604	
4216	0	32620	
4217	0	32656	
4218	0	32740	
4219	0	32844	
4220	0	32876	
4221	0	32932	
4222	0	33056	
4223	0	33176	
4224	0	33356	
4225	0	33468	
4226	0	33468	
4227	0	33480	
4228	0	33578	
4229	0	33634	
4230	0	33672	
4231	0	33700	
4232	0	33684	
4233	0	33660	
4234	0	33668	
4235	0	33648	
4236	0	33680	
4237	0	33720	
4238	0	33752	
4239	0	33864	
4240	0	33984	
4241	0	34092	
4242	0	34160	
4243	0	34248	
4244	0	34336	
4245	0	34420	
4246	0	34480	
4247	0	34568	
4248	0	34624	
4249	0	34672	
4250	0	34728	
4251	0	34840	
4252	0	34872	
4253	0	34908	
4254	0	34904	
4255	0	34928	
4256	0	34994	
4257	0	35096	
4258	0	35188	
4259	0	35236	
4260	0	35360	
4261	0	35504	
4262	0	35604	
4263	0	35716	
4264	0	35838	
4265	0	35944	
4266	0	36008	
4267	0	36068	
4268	0	36120	
4269	0	36192	
4270	0	36288	
4271	0	36376	
4272	0	36444	
4273	0	36552	
4274	0	36704	
4275	0	36864	
4276	0	36968	
4277	0	37032	
4278	0	37104	
4279	0	37144	
4280	0	37120	
4281	0	37096	
4282	0	37152	
4283	0	37168	
4284	0	37232	
4285	0	37218	
4286	0	37196	
4287	0	37224	
4288	0	37280	
4289	0	37308	
4290	0	37352	
4291	0	37372	
4292	0	37338	
4293	0	37344	
4294	0	37384	
4295	0	37440	
4296	0	37394	
4297	0	37320	
4298	0	37288	
4299	0	37268	
4300	0	37240	
4301	0	37192	
4302	0	37144	
4303	0	37080	
4304	0	37068	
4305	0	37028	
4306	0	36932	
4307	0	36860	
4308	0	36808	
4309	0	36704	
4310	0	36616	
4311	0	36520	
4312	0	36422	
4313	0	36272	
4314	0	36104	
4315	0	35900	
4316	0	35720	
4317	0	35552	
4318	0	35384	
4319	0	35172	
4320	0	34984	
4321	0	34800	
4322	0	34640	
4323	0	34520	
4324	0	34436	
4325	0	34308	
4326	0	34112	
4327	0	33928	
4328	0	33748	
4329	0	33586	
4330	0	33408	
4331	0	33184	
4332	0	33008	
4333	0	32856	
4334	0	32668	
4335	0	32484	
4336	0	32304	
4337	0	32164	
4338	0	32080	
4339	0	31930	
4340	0	31712	
4341	0	31578	
4342	0	31480	
4343	0	31364	
4344	0	31192	
4345	0	31052	
4346	0	30948	
4347	0	30908	
4348	0	30840	
4349	0	30752	
4350	0	30672	
4351	0	30604	
4352	0	30504	
4353	0	30392	
4354	0	30284	
4355	0	30148	
4356	0	30080	
4357	0	30016	
4358	0	29978	
4359	0	29892	
4360	0	29844	
4361	0	29788	
4362	0	29780	
4363	0	29764	
4364	0	29712	
4365	0	29664	
4366	0	29616	
4367	0	29516	
4368	0	29448	
4369	0	29416	
4370	0	29436	
4371	0	29440	
4372	0	29396	
4373	0	29416	
4374	0	29444	
4375	0	29410	
4376	0	29404	
4377	0	29408	
4378	0	29416	
4379	0	29436	
4380	0	29470	
4381	0	29492	
4382	0	29528	
4383	0	29524	
4384	0	29520	
4385	0	29548	
4386	0	29632	
4387	0	29712	
4388	0	29712	
4389	0	29730	
4390	0	29776	
4391	0	29794	
4392	0	29804	
4393	0	29768	
4394	0	29660	
4395	0	29644	
4396	0	29732	
4397	0	29780	
4398	0	29792	
4399	0	29864	
4400	0	29896	
4401	0	29876	
4402	0	29876	
4403	0	29914	
4404	0	29932	
4405	0	29908	
4406	0	29866	
4407	0	29864	
4408	0	29844	
4409	0	29864	
4410	0	29900	
4411	0	29872	
4412	0	29828	
4413	0	29858	
4414	0	29874	
4415	0	29892	
4416	0	29904	
4417	0	29992	
4418	0	30112	
4419	0	30208	
4420	0	30232	
4421	0	30244	
4422	0	30236	
4423	0	30304	
4424	0	30364	
4425	0	30408	
4426	0	30424	
4427	0	30416	
4428	0	30448	
4429	0	30492	
4430	0	30484	
4431	0	30478	
4432	0	30528	
4433	0	30528	
4434	0	30460	
4435	0	30408	
4436	0	30368	
4437	0	30400	
4438	0	30432	
4439	0	30434	
4440	0	30464	
4441	0	30536	
4442	0	30612	
4443	0	30670	
4444	0	30708	
4445	0	30748	
4446	0	30776	
4447	0	30816	
4448	0	30844	
4449	0	30892	
4450	0	30912	
4451	0	30952	
4452	0	31036	
4453	0	31070	
4454	0	31060	
4455	0	31024	
4456	0	30944	
4457	0	30896	
4458	0	30880	
4459	0	30924	
4460	0	30968	
4461	0	31048	
4462	0	31082	
4463	0	31048	
4464	0	31120	
4465	0	31152	
4466	0	31192	
4467	0	31264	
4468	0	31244	
4469	0	31274	
4470	0	31324	
4471	0	31328	
4472	0	31280	
4473	0	31228	
4474	0	31224	
4475	0	31194	
4476	0	31236	
4477	0	31292	
4478	0	31396	
4479	0	31456	
4480	0	31514	
4481	0	31516	
4482	0	31560	
4483	0	31600	
4484	0	31678	
4485	0	31714	
4486	0	31668	
4487	0	31676	
4488	0	31698	
4489	0	31688	
4490	0	31664	
4491	0	31636	
4492	0	31604	
4493	0	31588	
4494	0	31574	
4495	0	31618	
4496	0	31692	
4497	0	31750	
4498	0	31788	
4499	0	31792	
4500	0	31786	
4501	0	31800	
4502	0	31796	
4503	0	31776	
4504	0	31780	
4505	0	31864	
4506	0	31880	
4507	0	31850	
4508	0	31836	
4509	0	31832	
4510	0	31792	
4511	0	31768	
4512	0	31776	
4513	0	31804	
4514	0	31860	
4515	0	31908	
4516	0	31904	
4517	0	31868	
4518	0	31868	
4519	0	31908	
4520	0	31964	
4521	0	32008	
4522	0	32036	
4523	0	32064	
4524	0	32020	
4525	0	31972	
4526	0	31978	
4527	0	32000	
4528	0	32049	
4529	0	32132	
4530	0	32188	
4531	0	32192	
4532	0	32120	
4533	0	32008	
4534	0	31924	
4535	0	31884	
4536	0	31920	
4537	0	32004	
4538	0	32028	
4539	0	32026	
4540	0	32048	
4541	0	32076	
4542	0	32072	
4543	0	32076	
4544	0	32124	
4545	0	32192	
4546	0	32228	
4547	0	32212	
4548	0	32228	
4549	0	32292	
4550	0	32356	
4551	0	32414	
4552	0	32494	
4553	0	32572	
4554	0	32632	
4555	0	32704	
4556	0	32802	
4557	0	32888	
4558	0	32936	
4559	0	33008	
4560	0	33140	
4561	0	33248	
4562	0	33360	
4563	0	33492	
4564	0	33604	
4565	0	33728	
4566	0	33860	
4567	0	33964	
4568	0	34036	
4569	0	34012	
4570	0	34000	
4571	0	33964	
4572	0	33980	
4573	0	34028	
4574	0	34044	
4575	0	34042	
4576	0	34072	
4577	0	34124	
4578	0	34184	
4579	0	34248	
4580	0	34312	
4581	0	34402	
4582	0	34516	
4583	0	34640	
4584	0	34728	
4585	0	34800	
4586	0	34932	
4587	0	35044	
4588	0	35068	
4589	0	35060	
4590	0	35112	
4591	0	35140	
4592	0	35152	
4593	0	35228	
4594	0	35288	
4595	0	35368	
4596	0	35384	
4597	0	35352	
4598	0	35228	
4599	0	35092	
4600	0	34932	
4601	0	34812	
4602	0	34694	
4603	0	34620	
4604	0	34628	
4605	0	34600	
4606	0	34512	
4607	0	34412	
4608	0	34304	
4609	0	34168	
4610	0	34044	
4611	0	33962	
4612	0	33882	
4613	0	33832	
4614	0	33722	
4615	0	33588	
4616	0	33472	
4617	0	33384	
4618	0	33280	
4619	0	33164	
4620	0	33068	
4621	0	32996	
4622	0	32920	
4623	0	32864	
4624	0	32784	
4625	0	32734	
4626	0	32704	
4627	0	32644	
4628	0	32544	
4629	0	32456	
4630	0	32378	
4631	0	32284	
4632	0	32208	
4633	0	32144	
4634	0	31996	
4635	0	31876	
4636	0	31776	
4637	0	31716	
4638	0	31664	
4639	0	31608	
4640	0	31520	
4641	0	31472	
4642	0	31368	
4643	0	31328	
4644	0	31332	
4645	0	31360	
4646	0	31376	
4647	0	31408	
4648	0	31396	
4649	0	31392	
4650	0	31428	
4651	0	31436	
4652	0	31448	
4653	0	31464	
4654	0	31506	
4655	0	31520	
4656	0	31552	
4657	0	31512	
4658	0	31458	
4659	0	31464	
4660	0	31472	
4661	0	31520	
4662	0	31628	
4663	0	31648	
4664	0	31620	
4665	0	31640	
4666	0	31672	
4667	0	31674	
4668	0	31636	
4669	0	31584	
4670	0	31556	
4671	0	31544	
4672	0	31456	
4673	0	31376	
4674	0	31360	
4675	0	31384	
4676	0	31420	
4677	0	31540	
4678	0	31660	
4679	0	31668	
4680	0	31648	
4681	0	31688	
4682	0	31680	
4683	0	31688	
4684	0	31712	
4685	0	31732	
4686	0	31716	
4687	0	31716	
4688	0	31752	
4689	0	31812	
4690	0	31852	
4691	0	31840	
4692	0	31754	
4693	0	31620	
4694	0	31532	
4695	0	31420	
4696	0	31250	
4697	0	31040	
4698	0	30900	
4699	0	30852	
4700	0	30840	
4701	0	30952	
4702	0	31084	
4703	0	31244	
4704	0	31516	
4705	0	32008	
4706	0	32720	
4707	0	33568	
4708	0	34456	
4709	0	35504	
4710	0	36656	
4711	0	37952	
4712	0	39540	
4713	0	41276	
4714	0	42932	
4715	0	44488	
4716	0	46112	
4717	0	47744	
4718	0	49392	
4719	0	51092	
4720	0	52784	
4721	0	54344	
4722	0	55744	
4723	0	56992	
4724	0	58284	
4725	0	59672	
4726	0	61020	
4727	0	62164	
4728	0	62968	
4729	0	63544	
4730	0	63608	
4731	0	62664	
4732	0	60800	
4733	0	58056	
4734	0	54704	
4735	0	51256	
4736	0	47620	
4737	0	43456	
4738	0	38820	
4739	0	34524	
4740	0	31344	
4741	0	29172	
4742	0	27832	
4743	0	27080	
4744	0	26717	
4745	0	26572	
4746	0	26538	
4747	0	26468	
4748	0	26456	
4749	0	26568	
4750	0	26816	
4751	0	27124	
4752	0	27480	
4753	0	27874	
4754	0	28236	
4755	0	28544	
4756	0	28768	
4757	0	28956	
4758	0	29168	
4759	0	29272	
4760	0	29364	
4761	0	29380	
4762	0	29332	
4763	0	29240	
4764	0	29192	
4765	0	29168	
4766	0	29105	
4767	0	28968	
4768	0	28888	
4769	0	28846	
4770	0	28824	
4771	0	28792	
4772	0	28772	
4773	0	28764	
4774	0	28754	
4775	0	28752	
4776	0	28776	
4777	0	28764	
4778	0	28789	
4779	0	28840	
4780	0	28864	
4781	0	28920	
4782	0	28956	
4783	0	28960	
4784	0	28992	
4785	0	29068	
4786	0	29108	
4787	0	29116	
4788	0	29116	
4789	0	29092	
4790	0	29100	
4791	0	29144	
4792	0	29204	
4793	0	29260	
4794	0	29314	
4795	0	29364	
4796	0	29412	
4797	0	29488	
4798	0	29528	
4799	0	29598	
4800	0	29676	
4801	0	29692	
4802	0	29748	
4803	0	29820	
4804	0	29852	
4805	0	29896	
4806	0	29902	
4807	0	29908	
4808	0	29940	
4809	0	30016	
4810	0	30072	
4811	0	30142	
4812	0	30192	
4813	0	30236	
4814	0	30208	
4815	0	30200	
4816	0	30296	
4817	0	30344	
4818	0	30352	
4819	0	30380	
4820	0	30428	
4821	0	30496	
4822	0	30544	
4823	0	30568	
4824	0	30580	
4825	0	30590	
4826	0	30560	
4827	0	30552	
4828	0	30592	
4829	0	30656	
4830	0	30720	
4831	0	30744	
4832	0	30784	
4833	0	30828	
4834	0	30854	
4835	0	30884	
4836	0	30944	
4837	0	30988	
4838	0	31010	
4839	0	31040	
4840	0	31080	
4841	0	31124	
4842	0	31144	
4843	0	31180	
4844	0	31272	
4845	0	31340	
4846	0	31362	
4847	0	31436	
4848	0	31528	
4849	0	31616	
4850	0	31640	
4851	0	31638	
4852	0	31628	
4853	0	31640	
4854	0	31632	
4855	0	31600	
4856	0	31632	
4857	0	31680	
4858	0	31724	
4859	0	31732	
4860	0	31784	
4861	0	31876	
4862	0	31944	
4863	0	32032	
4864	0	32096	
4865	0	32100	
4866	0	32148	
4867	0	32176	
4868	0	32176	
4869	0	32192	
4870	0	32232	
4871	0	32236	
4872	0	32224	
4873	0	32236	
4874	0	32312	
4875	0	32368	
4876	0	32440	
4877	0	32500	
4878	0	32520	
4879	0	32564	
4880	0	32620	
4881	0	32688	
4882	0	32736	
4883	0	32732	
4884	0	32756	
4885	0	32816	
4886	0	32856	
4887	0	32896	
4888	0	32976	
4889	0	33084	
4890	0	33144	
4891	0	33116	
4892	0	33136	
4893	0	33202	
4894	0	33242	
4895	0	33296	
4896	0	33338	
4897	0	33386	
4898	0	33464	
4899	0	33540	
4900	0	33608	
4901	0	33608	
4902	0	33640	
4903	0	33688	
4904	0	33760	
4905	0	33836	
4906	0	33904	
4907	0	33948	
4908	0	33960	
4909	0	33944	
4910	0	33968	
4911	0	34044	
4912	0	34106	
4913	0	34176	
4914	0	34248	
4915	0	34344	
4916	0	34432	
4917	0	34504	
4918	0	34592	
4919	0	34676	
4920	0	34764	
4921	0	34864	
4922	0	34984	
4923	0	35084	
4924	0	35160	
4925	0	35172	
4926	0	35228	
4927	0	35302	
4928	0	35380	
4929	0	35444	
4930	0	35520	
4931	0	35600	
4932	0	35644	
4933	0	35720	
4934	0	35808	
4935	0	35892	
4936	0	35984	
4937	0	36068	
4938	0	36164	
4939	0	36220	
4940	0	36272	
4941	0	36320	
4942	0	36416	
4943	0	36504	
4944	0	36588	
4945	0	36644	
4946	0	36744	
4947	0	36816	
4948	0	36868	
4949	0	36888	
4950	0	36948	
4951	0	36972	
4952	0	36968	
4953	0	36964	
4954	0	36960	
4955	0	36952	
4956	0	36992	
4957	0	37016	
4958	0	37024	
4959	0	37004	
4960	0	36948	
4961	0	36984	
4962	0	36990	
4963	0	36968	
4964	0	37028	
4965	0	37060	
4966	0	37056	
4967	0	37008	
4968	0	36944	
4969	0	36832	
4970	0	36768	
4971	0	36696	
4972	0	36616	
4973	0	36508	
4974	0	36378	
4975	0	36276	
4976	0	36208	
4977	0	36124	
4978	0	36040	
4979	0	35976	
4980	0	35832	
4981	0	35692	
4982	0	35584	
4983	0	35460	
4984	0	35332	
4985	0	35184	
4986	0	35032	
4987	0	34876	
4988	0	34672	
4989	0	34512	
4990	0	34316	
4991	0	34100	
4992	0	33896	
4993	0	33716	
4994	0	33562	
4995	0	33384	
4996	0	33176	
4997	0	32980	
4998	0	32788	
4999	0	32588	
5000	0	32408	
5001	0	32256	
5002	0	32156	
5003	0	32040	
5004	0	31902	
5005	0	31726	
5006	0	31620	
5007	0	31500	
5008	0	31388	
5009	0	31280	
5010	0	31192	
5011	0	31080	
5012	0	30964	
5013	0	30912	
5014	0	30812	
5015	0	30684	
5016	0	30552	
5017	0	30444	
5018	0	30364	
5019	0	30316	
5020	0	30240	
5021	0	30188	
5022	0	30124	
5023	0	30032	
5024	0	30000	
5025	0	29988	
5026	0	29952	
5027	0	29940	
5028	0	29912	
5029	0	29876	
5030	0	29876	
5031	0	29896	
5032	0	29864	
5033	0	29860	
5034	0	29848	
5035	0	29804	
5036	0	29778	
5037	0	29808	
5038	0	29850	
5039	0	29848	
5040	0	29856	
5041	0	29810	
5042	0	29752	
5043	0	29728	
5044	0	29692	
5045	0	29660	
5046	0	29620	
5047	0	29600	
5048	0	29616	
5049	0	29644	
5050	0	29624	
5051	0	29596	
5052	0	29574	
5053	0	29560	
5054	0	29568	
5055	0	29608	
5056	0	29660	
5057	0	29680	
5058	0	29692	
5059	0	29726	
5060	0	29736	
5061	0	29752	
5062	0	29752	
5063	0	29778	
5064	0	29836	
5065	0	29892	
5066	0	29928	
5067	0	29944	
5068	0	29976	
5069	0	30008	
5070	0	29972	
5071	0	29960	
5072	0	30000	
5073	0	30028	
5074	0	30058	
5075	0	30088	
5076	0	30084	
5077	0	30104	
5078	0	30136	
5079	0	30180	
5080	0	30212	
5081	0	30232	
5082	0	30284	
5083	0	30362	
5084	0	30400	
5085	0	30380	
5086	0	30396	
5087	0	30480	
5088	0	30568	
5089	0	30632	
5090	0	30628	
5091	0	30592	
5092	0	30564	
5093	0	30536	
5094	0	30588	
5095	0	30652	
5096	0	30668	
5097	0	30696	
5098	0	30668	
5099	0	30652	
5100	0	30712	
5101	0	30712	
5102	0	30668	
5103	0	30704	
5104	0	30776	
5105	0	30772	
5106	0	30820	
5107	0	30860	
5108	0	30824	
5109	0	30816	
5110	0	30852	
5111	0	30876	
5112	0	30908	
5113	0	30924	
5114	0	30964	
5115	0	31024	
5116	0	31080	
5117	0	31120	
5118	0	31162	
5119	0	31192	
5120	0	31228	
5121	0	31284	
5122	0	31316	
5123	0	31340	
5124	0	31356	
5125	0	31340	
5126	0	31344	
5127	0	31376	
5128	0	31456	
5129	0	31536	
5130	0	31520	
5131	0	31480	
5132	0	31464	
5133	0	31468	
5134	0	31522	
5135	0	31496	
5136	0	31448	
5137	0	31412	
5138	0	31436	
5139	0	31480	
5140	0	31520	
5141	0	31592	
5142	0	31632	
5143	0	31668	
5144	0	31680	
5145	0	31740	
5146	0	31810	
5147	0	31792	
5148	0	31778	
5149	0	31756	
5150	0	31714	
5151	0	31652	
5152	0	31656	
5153	0	31632	
5154	0	31584	
5155	0	31604	
5156	0	31676	
5157	0	31738	
5158	0	31824	
5159	0	31904	
5160	0	31918	
5161	0	31904	
5162	0	31904	
5163	0	31896	
5164	0	31880	
5165	0	31880	
5166	0	31884	
5167	0	31912	
5168	0	31916	
5169	0	31960	
5170	0	32008	
5171	0	32060	
5172	0	32036	
5173	0	32008	
5174	0	31996	
5175	0	32016	
5176	0	32028	
5177	0	32016	
5178	0	32064	
5179	0	32108	
5180	0	32098	
5181	0	32068	
5182	0	32032	
5183	0	32068	
5184	0	32142	
5185	0	32216	
5186	0	32224	
5187	0	32212	
5188	0	32180	
5189	0	32176	
5190	0	32184	
5191	0	32224	
5192	0	32220	
5193	0	32196	
5194	0	32190	
5195	0	32192	
5196	0	32156	
5197	0	32096	
5198	0	32064	
5199	0	32048	
5200	0	32028	
5201	0	32028	
5202	0	32044	
5203	0	32052	
5204	0	32064	
5205	0	32048	
5206	0	32048	
5207	0	32084	
5208	0	32088	
5209	0	32066	
5210	0	32080	
5211	0	32078	
5212	0	32092	
5213	0	32164	
5214	0	32216	
5215	0	32208	
5216	0	32216	
5217	0	32172	
5218	0	32164	
5219	0	32216	
5220	0	32196	
5221	0	32172	
5222	0	32184	
5223	0	32192	
5224	0	32188	
5225	0	32172	
5226	0	32122	
5227	0	32152	
5228	0	32168	
5229	0	32148	
5230	0	32130	
5231	0	32180	
5232	0	32200	
5233	0	32218	
5234	0	32196	
5235	0	32202	
5236	0	32224	
5237	0	32182	
5238	0	32200	
5239	0	32206	
5240	0	32260	
5241	0	32304	
5242	0	32338	
5243	0	32380	
5244	0	32384	
5245	0	32378	
5246	0	32400	
5247	0	32436	
5248	0	32436	
5249	0	32432	
5250	0	32400	
5251	0	32380	
5252	0	32394	
5253	0	32404	
5254	0	32404	
5255	0	32388	
5256	0	32392	
5257	0	32376	
5258	0	32424	
5259	0	32436	
5260	0	32426	
5261	0	32460	
5262	0	32472	
5263	0	32492	
5264	0	32520	
5265	0	32552	
5266	0	32568	
5267	0	32568	
5268	0	32576	
5269	0	32584	
5270	0	32572	
5271	0	32572	
5272	0	32588	
5273	0	32588	
5274	0	32576	
5275	0	32564	
5276	0	32544	
5277	0	32576	
5278	0	32580	
5279	0	32584	
5280	0	32624	
5281	0	32668	
5282	0	32712	
5283	0	32746	
5284	0	32776	
5285	0	32832	
5286	0	32896	
5287	0	32954	
5288	0	33026	
5289	0	33088	
5290	0	33104	
5291	0	33140	
5292	0	33268	
5293	0	33368	
5294	0	33500	
5295	0	33640	
5296	0	33706	
5297	0	33812	
5298	0	33928	
5299	0	34080	
5300	0	34238	
5301	0	34324	
5302	0	34428	
5303	0	34544	
5304	0	34652	
5305	0	34696	
5306	0	34708	
5307	0	34668	
5308	0	34656	
5309	0	34676	
5310	0	34718	
5311	0	34712	
5312	0	34688	
5313	0	34694	
5314	0	34740	
5315	0	34840	
5316	0	34916	
5317	0	34976	
5318	0	35066	
5319	0	35160	
5320	0	35184	
5321	0	35188	
5322	0	35170	
5323	0	35168	
5324	0	35184	
5325	0	35260	
5326	0	35344	
5327	0	35380	
5328	0	35384	
5329	0	35384	
5330	0	35442	
5331	0	35488	
5332	0	35546	
5333	0	35520	
5334	0	35460	
5335	0	35360	
5336	0	35240	
5337	0	35120	
5338	0	34942	
5339	0	34740	
5340	0	34596	
5341	0	34560	
5342	0	34556	
5343	0	34440	
5344	0	34342	
5345	0	34260	
5346	0	34192	
5347	0	34168	
5348	0	34096	
5349	0	34032	
5350	0	33932	
5351	0	33856	
5352	0	33772	
5353	0	33660	
5354	0	33568	
5355	0	33466	
5356	0	33368	
5357	0	33266	
5358	0	33168	
5359	0	33088	
5360	0	33040	
5361	0	33016	
5362	0	32956	
5363	0	32880	
5364	0	32876	
5365	0	32856	
5366	0	32760	
5367	0	32684	
5368	0	32608	
5369	0	32544	
5370	0	32468	
5371	0	32346	
5372	0	32216	
5373	0	32100	
5374	0	31992	
5375	0	31872	
5376	0	31740	
5377	0	31648	
5378	0	31596	
5379	0	31532	
5380	0	31512	
5381	0	31500	
5382	0	31492	
5383	0	31524	
5384	0	31556	
5385	0	31576	
5386	0	31568	
5387	0	31600	
5388	0	31612	
5389	0	31608	
5390	0	31628	
5391	0	31640	
5392	0	31624	
5393	0	31612	
5394	0	31580	
5395	0	31592	
5396	0	31626	
5397	0	31648	
5398	0	31636	
5399	0	31640	
5400	0	31640	
5401	0	31644	
5402	0	31660	
5403	0	31662	
5404	0	31656	
5405	0	31684	
5406	0	31712	
5407	0	31780	
5408	0	31860	
5409	0	31860	
5410	0	31832	
5411	0	31772	
5412	0	31708	
5413	0	31672	
5414	0	31676	
5415	0	31668	
5416	0	31712	
5417	0	31738	
5418	0	31728	
5419	0	31712	
5420	0	31728	
5421	0	31736	
5422	0	31692	
5423	0	31744	
5424	0	31864	
5425	0	31928	
5426	0	31930	
5427	0	31902	
5428	0	31792	
5429	0	31740	
5430	0	31704	
5431	0	31604	
5432	0	31424	
5433	0	31220	
5434	0	31052	
5435	0	30968	
5436	0	31040	
5437	0	31188	
5438	0	31380	
5439	0	31628	
5440	0	31988	
5441	0	32556	
5442	0	33226	
5443	0	33996	
5444	0	34876	
5445	0	35916	
5446	0	37056	
5447	0	38330	
5448	0	39864	
5449	0	41600	
5450	0	43268	
5451	0	44824	
5452	0	46364	
5453	0	47920	
5454	0	49576	
5455	0	51256	
5456	0	52828	
5457	0	54136	
5458	0	55392	
5459	0	56716	
5460	0	58228	
5461	0	59648	
5462	0	60784	
5463	0	61748	
5464	0	62568	
5465	0	63284	
5466	0	63588	
5467	0	62616	
5468	0	60684	
5469	0	58004	
5470	0	54696	
5471	0	51284	
5472	0	47672	
5473	0	43624	
5474	0	39260	
5475	0	35308	
5476	0	32376	
5477	0	30272	
5478	0	28834	
5479	0	27888	
5480	0	27292	
5481	0	27004	
5482	0	26978	
5483	0	27044	
5484	0	27168	
5485	0	27464	
5486	0	27868	
5487	0	28284	
5488	0	28616	
5489	0	28890	
5490	0	29068	
5491	0	29260	
5492	0	29434	
5493	0	29514	
5494	0	29572	
5495	0	29560	
5496	0	29472	
5497	0	29392	
5498	0	29358	
5499	0	29316	
5500	0	29272	
5501	0	29180	
5502	0	29114	
5503	0	29100	
5504	0	29058	
5505	0	28992	
5506	0	28988	
5507	0	28968	
5508	0	28960	
5509	0	28948	
5510	0	28904	
5511	0	28900	
5512	0	28904	
5513	0	28896	
5514	0	28900	
5515	0	28916	
5516	0	28940	
5517	0	28934	
5518	0	28962	
5519	0	29008	
5520	0	29060	
5521	0	29052	
5522	0	29080	
5523	0	29172	
5524	0	29242	
5525	0	29316	
5526	0	29352	
5527	0	29296	
5528	0	29304	
5529	0	29344	
5530	0	29376	
5531	0	29422	
5532	0	29452	
5533	0	29462	
5534	0	29520	
5535	0	29530	
5536	0	29536	
5537	0	29588	
5538	0	29612	
5539	0	29672	
5540	0	29722	
5541	0	29760	
5542	0	29813	
5543	0	29832	
5544	0	29888	
5545	0	29932	
5546	0	30008	
5547	0	30060	
5548	0	30100	
5549	0	30144	
5550	0	30208	
5551	0	30264	
5552	0	30304	
5553	0	30334	
5554	0	30356	
5555	0	30360	
5556	0	30364	
5557	0	30384	
5558	0	30464	
5559	0	30488	
5560	0	30488	
5561	0	30552	
5562	0	30608	
5563	0	30640	
5564	0	30658	
5565	0	30680	
5566	0	30712	
5567	0	30720	
5568	0	30786	
5569	0	30812	
5570	0	30828	
5571	0	30892	
5572	0	30900	
5573	0	30898	
5574	0	30888	
5575	0	30964	
5576	0	31024	
5577	0	31060	
5578	0	31152	
5579	0	31200	
5580	0	31228	
5581	0	31280	
5582	0	31308	
5583	0	31328	
5584	0	31404	
5585	0	31434	
5586	0	31480	
5587	0	31514	
5588	0	31548	
5589	0	31596	
5590	0	31616	
5591	0	31604	
5592	0	31600	
5593	0	31576	
5594	0	31564	
5595	0	31584	
5596	0	31632	
5597	0	31664	
5598	0	31708	
5599	0	31786	
5600	0	31860	
5601	0	31934	
5602	0	31940	
5603	0	31936	
5604	0	31972	
5605	0	32060	
5606	0	32132	
5607	0	32156	
5608	0	32168	
5609	0	32180	
5610	0	32240	
5611	0	32344	
5612	0	32388	
5613	0	32376	
5614	0	32404	
5615	0	32428	
5616	0	32452	
5617	0	32456	
5618	0	32452	
5619	0	32500	
5620	0	32504	
5621	0	32536	
5622	0	32572	
5623	0	32632	
5624	0	32740	
5625	0	32792	
5626	0	32840	
5627	0	32904	
5628	0	32984	
5629	0	33024	
5630	0	33040	
5631	0	33088	
5632	0	33104	
5633	0	33166	
5634	0	33192	
5635	0	33188	
5636	0	33216	
5637	0	33264	
5638	0	33324	
5639	0	33312	
5640	0	33340	
5641	0	33396	
5642	0	33456	
5643	0	33516	
5644	0	33576	
5645	0	33664	
5646	0	33760	
5647	0	33870	
5648	0	33952	
5649	0	34008	
5650	0	34056	
5651	0	34096	
5652	0	34160	
5653	0	34164	
5654	0	34186	
5655	0	34304	
5656	0	34392	
5657	0	34456	
5658	0	34504	
5659	0	34616	
5660	0	34704	
5661	0	34820	
5662	0	34904	
5663	0	35016	
5664	0	35078	
5665	0	35120	
5666	0	35184	
5667	0	35260	
5668	0	35332	
5669	0	35428	
5670	0	35520	
5671	0	35594	
5672	0	35624	
5673	0	35688	
5674	0	35700	
5675	0	35716	
5676	0	35828	
5677	0	35892	
5678	0	35932	
5679	0	35980	
5680	0	36008	
5681	0	36040	
5682	0	36104	
5683	0	36168	
5684	0	36244	
5685	0	36348	
5686	0	36432	
5687	0	36488	
5688	0	36512	
5689	0	36552	
5690	0	36528	
5691	0	36508	
5692	0	36544	
5693	0	36600	
5694	0	36612	
5695	0	36640	
5696	0	36644	
5697	0	36680	
5698	0	36700	
5699	0	36712	
5700	0	36796	
5701	0	36848	
5702	0	36828	
5703	0	36804	
5704	0	36764	
5705	0	36740	
5706	0	36700	
5707	0	36664	
5708	0	36604	
5709	0	36536	
5710	0	36486	
5711	0	36384	
5712	0	36236	
5713	0	36072	
5714	0	35912	
5715	0	35852	
5716	0	35804	
5717	0	35656	
5718	0	35544	
5719	0	35440	
5720	0	35316	
5721	0	35168	
5722	0	35024	
5723	0	34928	
5724	0	34822	
5725	0	34660	
5726	0	34540	
5727	0	34432	
5728	0	34280	
5729	0	34100	
5730	0	33920	
5731	0	33756	
5732	0	33588	
5733	0	33412	
5734	0	33200	
5735	0	33008	
5736	0	32856	
5737	0	32704	
5738	0	32580	
5739	0	32472	
5740	0	32312	
5741	0	32078	
5742	0	31952	
5743	0	31838	
5744	0	31684	
5745	0	31548	
5746	0	31416	
5747	0	31260	
5748	0	31148	
5749	0	31084	
5750	0	31004	
5751	0	30900	
5752	0	30840	
5753	0	30752	
5754	0	30664	
5755	0	30586	
5756	0	30466	
5757	0	30356	
5758	0	30280	
5759	0	30216	
5760	0	30140	
5761	0	30084	
5762	0	30068	
5763	0	30032	
5764	0	30012	
5765	0	29988	
5766	0	29992	
5767	0	29976	
5768	0	29952	
5769	0	29940	
5770	0	29916	
5771	0	29860	
5772	0	29802	
5773	0	29744	
5774	0	29730	
5775	0	29748	
5776	0	29732	
5777	0	29696	
5778	0	29632	
5779	0	29636	
5780	0	29648	
5781	0	29612	
5782	0	29572	
5783	0	29612	
5784	0	29649	
5785	0	29628	
5786	0	29624	
5787	0	29720	
5788	0	29780	
5789	0	29772	
5790	0	29744	
5791	0	29708	
5792	0	29668	
5793	0	29612	
5794	0	29608	
5795	0	29656	
5796	0	29706	
5797	0	29744	
5798	0	29760	
5799	0	29812	
5800	0	29860	
5801	0	29912	
5802	0	29984	
5803	0	30012	
5804	0	30044	
5805	0	30074	
5806	0	30092	
5807	0	30124	
5808	0	30136	
5809	0	30168	
5810	0	30180	
5811	0	30148	
5812	0	30164	
5813	0	30194	
5814	0	30224	
5815	0	30204	
5816	0	30168	
5817	0	30188	
5818	0	30244	
5819	0	30316	
5820	0	30388	
5821	0	30408	
5822	0	30404	
5823	0	30384	
5824	0	30396	
5825	0	30400	
5826	0	30472	
5827	0	30564	
5828	0	30612	
5829	0	30632	
5830	0	30652	
5831	0	30668	
5832	0	30692	
5833	0	30684	
5834	0	30676	
5835	0	30688	
5836	0	30704	
5837	0	30748	
5838	0	30808	
5839	0	30872	
5840	0	30852	
5841	0	30836	
5842	0	30864	
5843	0	30880	
5844	0	30896	
5845	0	30924	
5846	0	30992	
5847	0	31064	
5848	0	31072	
5849	0	31084	
5850	0	31112	
5851	0	31160	
5852	0	31153	
5853	0	31112	
5854	0	31090	
5855	0	31130	
5856	0	31176	
5857	0	31152	
5858	0	31124	
5859	0	31148	
5860	0	31212	
5861	0	31232	
5862	0	31184	
5863	0	31204	
5864	0	31208	
5865	0	31288	
5866	0	31364	
5867	0	31442	
5868	0	31480	
5869	0	31514	
5870	0	31476	
5871	0	31388	
5872	0	31340	
5873	0	31312	
5874	0	31344	
5875	0	31352	
5876	0	31364	
5877	0	31384	
5878	0	31432	
5879	0	31488	
5880	0	31512	
5881	0	31552	
5882	0	31616	
5883	0	31652	
5884	0	31712	
5885	0	31776	
5886	0	31780	
5887	0	31752	
5888	0	31792	
5889	0	31760	
5890	0	31680	
5891	0	31628	
5892	0	31656	
5893	0	31632	
5894	0	31632	
5895	0	31616	
5896	0	31652	
5897	0	31712	
5898	0	31750	
5899	0	31716	
5900	0	31696	
5901	0	31712	
5902	0	31732	
5903	0	31696	
5904	0	31716	
5905	0	31728	
5906	0	31724	
5907	0	31728	
5908	0	31744	
5909	0	31768	
5910	0	31820	
5911	0	31808	
5912	0	31788	
5913	0	31780	
5914	0	31792	
5915	0	31836	
5916	0	31868	
5917	0	31886	
5918	0	31872	
5919	0	31816	
5920	0	31772	
5921	0	31782	
5922	0	31844	
5923	0	31876	
5924	0	31876	
5925	0	31904	
5926	0	31936	
5927	0	31928	
5928	0	31936	
5929	0	31948	
5930	0	31944	
5931	0	31904	
5932	0	31912	
5933	0	31964	
5934	0	31964	
5935	0	31872	
5936	0	31840	
5937	0	31892	
5938	0	31896	
5939	0	31880	
5940	0	31812	
5941	0	31664	
5942	0	31672	
5943	0	31772	
5944	0	31816	
5945	0	31810	
5946	0	31808	
5947	0	31844	
5948	0	31956	
5949	0	32024	
5950	0	32032	
5951	0	32066	
5952	0	32076	
5953	0	32056	
5954	0	32000	
5955	0	32026	
5956	0	32008	
5957	0	32004	
5958	0	31988	
5959	0	31948	
5960	0	31912	
5961	0	31924	
5962	0	31940	
5963	0	31936	
5964	0	31964	
5965	0	31948	
5966	0	31940	
5967	0	31904	
5968	0	31928	
5969	0	31936	
5970	0	31944	
5971	0	31968	
5972	0	31996	
5973	0	31968	
5974	0	31996	
5975	0	32008	
5976	0	32044	
5977	0	32058	
5978	0	32072	
5979	0	32096	
5980	0	32064	
5981	0	32028	
5982	0	32068	
5983	0	32080	
5984	0	32084	
5985	0	32080	
5986	0	32048	
5987	0	32064	
5988	0	32096	
5989	0	32088	
5990	0	32128	
5991	0	32180	
5992	0	32178	
5993	0	32208	
5994	0	32248	
5995	0	32220	
5996	0	32156	
5997	0	32204	
5998	0	32240	
5999	0	32252	
6000	0	32216	
6001	0	32192	
6002	0	32216	
6003	0	32236	
6004	0	32268	
6005	0	32320	
6006	0	32336	
6007	0	32308	
6008	0	32304	
6009	0	32304	
6010	0	32296	
6011	0	32272	
6012	0	32272	
6013	0	32284	
6014	0	32264	
6015	0	32248	
6016	0	32192	
6017	0	32212	
6018	0	32304	
6019	0	32388	
6020	0	32420	
6021	0	32372	
6022	0	32392	
6023	0	32392	
6024	0	32340	
6025	0	32312	
6026	0	32312	
6027	0	32332	
6028	0	32336	
6029	0	32392	
6030	0	32412	
6031	0	32400	
6032	0	32400	
6033	0	32352	
6034	0	32348	
6035	0	32400	
6036	0	32440	
6037	0	32420	
6038	0	32468	
6039	0	32520	
6040	0	32484	
6041	0	32448	
6042	0	32472	
6043	0	32512	
6044	0	32544	
6045	0	32584	
6046	0	32632	
6047	0	32628	
6048	0	32660	
6049	0	32692	
6050	0	32724	
6051	0	32728	
6052	0	32742	
6053	0	32776	
6054	0	32740	
6055	0	32712	
6056	0	32680	
6057	0	32622	
6058	0	32560	
6059	0	32568	
6060	0	32604	
6061	0	32592	
6062	0	32612	
6063	0	32608	
6064	0	32581	
6065	0	32530	
6066	0	32536	
6067	0	32564	
6068	0	32596	
6069	0	32630	
6070	0	32646	
6071	0	32632	
6072	0	32692	
6073	0	32708	
6074	0	32688	
6075	0	32668	
6076	0	32664	
6077	0	32696	
6078	0	32700	
6079	0	32644	
6080	0	32602	
6081	0	32704	
6082	0	32800	
6083	0	32880	
6084	0	32952	
6085	0	32960	
6086	0	32958	
6087	0	32994	
6088	0	33044	
6089	0	33028	
6090	0	33040	
6091	0	33064	
6092	0	33092	
6093	0	33172	
6094	0	33364	
6095	0	33616	
6096	0	33784	
6097	0	33900	
6098	0	33956	
6099	0	34028	
6100	0	34116	
6101	0	34208	
6102	0	34256	
6103	0	34256	
6104	0	34264	
6105	0	34324	
6106	0	34344	
6107	0	34408	
6108	0	34476	
6109	0	34488	
6110	0	34504	
6111	0	34548	
6112	0	34612	
6113	0	34676	
6114	0	34704	
6115	0	34732	
6116	0	34776	
6117	0	34828	
6118	0	34944	
6119	0	35016	
6120	0	34974	
6121	0	35026	
6122	0	35124	
6123	0	35196	
6124	0	35296	
6125	0	35364	
6126	0	35392	
6127	0	35376	
6128	0	35448	
6129	0	35504	
6130	0	35532	
6131	0	35528	
6132	0	35520	
6133	0	35524	
6134	0	35484	
6135	0	35368	
6136	0	35176	
6137	0	35024	
6138	0	34852	
6139	0	34768	
6140	0	34680	
6141	0	34568	
6142	0	34440	
6143	0	34302	
6144	0	34202	
6145	0	34116	
6146	0	33984	
6147	0	33886	
6148	0	33788	
6149	0	33688	
6150	0	33556	
6151	0	33412	
6152	0	33336	
6153	0	33240	
6154	0	33128	
6155	0	33040	
6156	0	33024	
6157	0	33032	
6158	0	33008	
6159	0	32976	
6160	0	32960	
6161	0	32964	
6162	0	32964	
6163	0	32884	
6164	0	32808	
6165	0	32768	
6166	0	32736	
6167	0	32716	
6168	0	32700	
6169	0	32644	
6170	0	32516	
6171	0	32380	
6172	0	32234	
6173	0	32152	
6174	0	32064	
6175	0	31972	
6176	0	31904	
6177	0	31832	
6178	0	31812	
6179	0	31772	
6180	0	31728	
6181	0	31672	
6182	0	31632	
6183	0	31638	
6184	0	31688	
6185	0	31744	
6186	0	31738	
6187	0	31716	
6188	0	31740	
6189	0	31748	
6190	0	31704	
6191	0	31728	
6192	0	31756	
6193	0	31708	
6194	0	31642	
6195	0	31704	
6196	0	31744	
6197	0	31752	
6198	0	31722	
6199	0	31684	
6200	0	31644	
6201	0	31692	
6202	0	31720	
6203	0	31696	
6204	0	31700	
6205	0	31748	
6206	0	31750	
6207	0	31800	
6208	0	31870	
6209	0	31902	
6210	0	31888	
6211	0	31856	
6212	0	31852	
6213	0	31868	
6214	0	31880	
6215	0	31872	
6216	0	31864	
6217	0	31876	
6218	0	31952	
6219	0	32016	
6220	0	32046	
6221	0	32072	
6222	0	32048	
6223	0	31954	
6224	0	31920	
6225	0	31850	
6226	0	31736	
6227	0	31620	
6228	0	31544	
6229	0	31392	
6230	0	31184	
6231	0	31032	
6232	0	31112	
6233	0	31252	
6234	0	31400	
6235	0	31596	
6236	0	31856	
6237	0	32336	
6238	0	32920	
6239	0	33584	
6240	0	34396	
6241	0	35312	
6242	0	36356	
6243	0	37536	
6244	0	38852	
6245	0	40404	
6246	0	42044	
6247	0	43572	
6248	0	45076	
6249	0	46608	
6250	0	48232	
6251	0	49910	
6252	0	51512	
6253	0	52908	
6254	0	54184	
6255	0	55616	
6256	0	57140	
6257	0	58576	
6258	0	59832	
6259	0	60984	
6260	0	61976	
6261	0	62880	
6262	0	63440	
6263	0	63096	
6264	0	61516	
6265	0	59220	
6266	0	56188	
6267	0	52832	
6268	0	49448	
6269	0	45692	
6270	0	41732	
6271	0	37764	
6272	0	34420	
6273	0	31964	
6274	0	30154	
6275	0	28912	
6276	0	28076	
6277	0	27630	
6278	0	27456	
6279	0	27396	
6280	0	27492	
6281	0	27720	
6282	0	28084	
6283	0	28488	
6284	0	28852	
6285	0	29120	
6286	0	29314	
6287	0	29532	
6288	0	29616	
6289	0	29608	
6290	0	29552	
6291	0	29580	
6292	0	29572	
6293	0	29480	
6294	0	29392	
6295	0	29332	
6296	0	29260	
6297	0	29216	
6298	0	29180	
6299	0	29096	
6300	0	29044	
6301	0	28954	
6302	0	28904	
6303	0	28888	
6304	0	28860	
6305	0	28840	
6306	0	28864	
6307	0	28968	
6308	0	28968	
6309	0	28932	
6310	0	28940	
6311	0	28936	
6312	0	28976	
6313	0	29024	
6314	0	29016	
6315	0	29028	
6316	0	29036	
6317	0	29044	
6318	0	29100	
6319	0	29136	
6320	0	29128	
6321	0	29168	
6322	0	29216	
6323	0	29252	
6324	0	29292	
6325	0	29284	
6326	0	29332	
6327	0	29412	
6328	0	29496	
6329	0	29532	
6330	0	29572	
6331	0	29548	
6332	0	29512	
6333	0	29532	
6334	0	29584	
6335	0	29632	
6336	0	29708	
6337	0	29772	
6338	0	29816	
6339	0	29844	
6340	0	29876	
6341	0	29928	
6342	0	29976	
6343	0	30048	
6344	0	30096	
6345	0	30120	
6346	0	30132	
6347	0	30180	
6348	0	30218	
6349	0	30256	
6350	0	30228	
6351	0	30248	
6352	0	30320	
6353	0	30372	
6354	0	30400	
6355	0	30452	
6356	0	30476	
6357	0	30484	
6358	0	30520	
6359	0	30564	
6360	0	30532	
6361	0	30466	
6362	0	30524	
6363	0	30588	
6364	0	30600	
6365	0	30616	
6366	0	30672	
6367	0	30736	
6368	0	30856	
6369	0	30898	
6370	0	30890	
6371	0	30888	
6372	0	30904	
6373	0	30976	
6374	0	31088	
6375	0	31088	
6376	0	31104	
6377	0	31196	
6378	0	31256	
6379	0	31272	
6380	0	31270	
6381	0	31220	
6382	0	31198	
6383	0	31258	
6384	0	31364	
6385	0	31376	
6386	0	31376	
6387	0	31408	
6388	0	31416	
6389	0	31436	
6390	0	31432	
6391	0	31484	
6392	0	31592	
6393	0	31628	
6394	0	31700	
6395	0	31768	
6396	0	31808	
6397	0	31888	
6398	0	31922	
6399	0	31928	
6400	0	31864	
6401	0	31844	
6402	0	31904	
6403	0	32000	
6404	0	32076	
6405	0	32108	
6406	0	32108	
6407	0	32112	
6408	0	32168	
6409	0	32224	
6410	0	32228	
6411	0	32248	
6412	0	32312	
6413	0	32360	
6414	0	32372	
6415	0	32400	
6416	0	32452	
6417	0	32512	
6418	0	32488	
6419	0	32520	
6420	0	32592	
6421	0	32672	
6422	0	32706	
6423	0	32712	
6424	0	32740	
6425	0	32720	
6426	0	32760	
6427	0	32828	
6428	0	32924	
6429	0	32972	
6430	0	33000	
6431	0	32984	
6432	0	33034	
6433	0	33120	
6434	0	33204	
6435	0	33236	
6436	0	33236	
6437	0	33268	
6438	0	33312	
6439	0	33372	
6440	0	33456	
6441	0	33466	
6442	0	33540	
6443	0	33584	
6444	0	33616	
6445	0	33652	
6446	0	33744	
6447	0	33836	
6448	0	33908	
6449	0	33952	
6450	0	34036	
6451	0	34110	
6452	0	34164	
6453	0	34224	
6454	0	34240	
6455	0	34304	
6456	0	34380	
6457	0	34468	
6458	0	34538	
6459	0	34596	
6460	0	34692	
6461	0	34752	
6462	0	34800	
6463	0	34844	
6464	0	34896	
6465	0	34984	
6466	0	35088	
6467	0	35192	
6468	0	35320	
6469	0	35384	
6470	0	35444	
6471	0	35504	
6472	0	35564	
6473	0	35594	
6474	0	35680	
6475	0	35724	
6476	0	35748	
6477	0	35700	
6478	0	35688	
6479	0	35728	
6480	0	35780	
6481	0	35872	
6482	0	35940	
6483	0	35972	
6484	0	36064	
6485	0	36164	
6486	0	36196	
6487	0	36224	
6488	0	36268	
6489	0	36344	
6490	0	36408	
6491	0	36448	
6492	0	36432	
6493	0	36436	
6494	0	36456	
6495	0	36472	
6496	0	36492	
6497	0	36492	
6498	0	36456	
6499	0	36416	
6500	0	36440	
6501	0	36420	
6502	0	36384	
6503	0	36336	
6504	0	36266	
6505	0	36248	
6506	0	36252	
6507	0	36212	
6508	0	36177	
6509	0	36164	
6510	0	36080	
6511	0	35956	
6512	0	35804	
6513	0	35668	
6514	0	35568	
6515	0	35460	
6516	0	35316	
6517	0	35164	
6518	0	35060	
6519	0	34940	
6520	0	34796	
6521	0	34632	
6522	0	34470	
6523	0	34364	
6524	0	34272	
6525	0	34196	
6526	0	34088	
6527	0	33960	
6528	0	33808	
6529	0	33640	
6530	0	33492	
6531	0	33292	
6532	0	33024	
6533	0	32885	
6534	0	32752	
6535	0	32620	
6536	0	32480	
6537	0	32334	
6538	0	32184	
6539	0	32036	
6540	0	31894	
6541	0	31820	
6542	0	31732	
6543	0	31592	
6544	0	31480	
6545	0	31428	
6546	0	31356	
6547	0	31212	
6548	0	31068	
6549	0	30956	
6550	0	30846	
6551	0	30786	
6552	0	30728	
6553	0	30628	
6554	0	30500	
6555	0	30394	
6556	0	30304	
6557	0	30256	
6558	0	30208	
6559	0	30172	
6560	0	30152	
6561	0	30128	
6562	0	30072	
6563	0	30036	
6564	0	30008	
6565	0	30000	
6566	0	29964	
6567	0	29928	
6568	0	29876	
6569	0	29858	
6570	0	29868	
6571	0	29852	
6572	0	29856	
6573	0	29828	
6574	0	29748	
6575	0	29688	
6576	0	29656	
6577	0	29620	
6578	0	29586	
6579	0	29608	
6580	0	29672	
6581	0	29696	
6582	0	29726	
6583	0	29748	
6584	0	29714	
6585	0	29724	
6586	0	29744	
6587	0	29776	
6588	0	29812	
6589	0	29836	
6590	0	29840	
6591	0	29828	
6592	0	29872	
6593	0	29904	
6594	0	29912	
6595	0	29880	
6596	0	29842	
6597	0	29836	
6598	0	29868	
6599	0	29864	
6600	0	29844	
6601	0	29836	
6602	0	29848	
6603	0	29880	
6604	0	29928	
6605	0	30004	
6606	0	30096	
6607	0	30168	
6608	0	30192	
6609	0	30184	
6610	0	30184	
6611	0	30248	
6612	0	30292	
6613	0	30340	
6614	0	30398	
6615	0	30384	
6616	0	30328	
6617	0	30260	
6618	0	30284	
6619	0	30320	
6620	0	30400	
6621	0	30456	
6622	0	30452	
6623	0	30464	
6624	0	30540	
6625	0	30488	
6626	0	30444	
6627	0	30472	
6628	0	30484	
6629	0	30528	
6630	0	30624	
6631	0	30704	
6632	0	30688	
6633	0	30704	
6634	0	30720	
6635	0	30748	
6636	0	30818	
6637	0	30840	
6638	0	30813	
6639	0	30844	
6640	0	30864	
6641	0	30884	
6642	0	30896	
6643	0	30928	
6644	0	30948	
6645	0	30964	
6646	0	30990	
6647	0	30986	
6648	0	31020	
6649	0	31064	
6650	0	31076	
6651	0	31072	
6652	0	31092	
6653	0	31112	
6654	0	31184	
6655	0	31244	
6656	0	31252	
6657	0	31228	
6658	0	31242	
6659	0	31274	
6660	0	31296	
6661	0	31290	
6662	0	31284	
6663	0	31306	
6664	0	31332	
6665	0	31324	
6666	0	31320	
6667	0	31362	
6668	0	31448	
6669	0	31532	
6670	0	31590	
6671	0	31596	
6672	0	31552	
6673	0	31532	
6674	0	31572	
6675	0	31584	
6676	0	31576	
6677	0	31544	
6678	0	31528	
6679	0	31540	
6680	0	31548	
6681	0	31546	
6682	0	31520	
6683	0	31496	
6684	0	31530	
6685	0	31556	
6686	0	31588	
6687	0	31620	
6688	0	31630	
6689	0	31596	
6690	0	31562	
6691	0	31596	
6692	0	31648	
6693	0	31636	
6694	0	31612	
6695	0	31600	
6696	0	31622	
6697	0	31644	
6698	0	31660	
6699	0	31680	
6700	0	31720	
6701	0	31736	
6702	0	31708	
6703	0	31644	
6704	0	31628	
6705	0	31680	
6706	0	31752	
6707	0	31792	
6708	0	31800	
6709	0	31776	
6710	0	31736	
6711	0	31732	
6712	0	31736	
6713	0	31728	
6714	0	31704	
6715	0	31712	
6716	0	31772	
6717	0	31824	
6718	0	31880	
6719	0	31872	
6720	0	31884	
6721	0	31908	
6722	0	31924	
6723	0	31914	
6724	0	31904	
6725	0	31864	
6726	0	31824	
6727	0	31856	
6728	0	31944	
6729	0	31964	
6730	0	31960	
6731	0	31960	
6732	0	31968	
6733	0	31984	
6734	0	31976	
6735	0	31988	
6736	0	31968	
6737	0	31900	
6738	0	31892	
6739	0	31940	
6740	0	31980	
6741	0	31948	
6742	0	31896	
6743	0	31864	
6744	0	31884	
6745	0	31920	
6746	0	31948	
6747	0	31932	
6748	0	31928	
6749	0	31916	
6750	0	31892	
6751	0	31868	
6752	0	31856	
6753	0	31904	
6754	0	31944	
6755	0	31988	
6756	0	32004	
6757	0	32032	
6758	0	32052	
6759	0	32056	
6760	0	32040	
6761	0	32032	
6762	0	31986	
6763	0	31984	
6764	0	32012	
6765	0	32056	
6766	0	32052	
6767	0	32076	
6768	0	32112	
6769	0	32128	
6770	0	32160	
6771	0	32160	
6772	0	32180	
6773	0	32168	
6774	0	32168	
6775	0	32156	
6776	0	32156	
6777	0	32170	
6778	0	32180	
6779	0	32152	
6780	0	32128	
6781	0	32058	
6782	0	32024	
6783	0	32028	
6784	0	32060	
6785	0	32056	
6786	0	32016	
6787	0	32036	
6788	0	32052	
6789	0	32080	
6790	0	32096	
6791	0	32112	
6792	0	32172	
6793	0	32204	
6794	0	32192	
6795	0	32156	
6796	0	32116	
6797	0	32164	
6798	0	32256	
6799	0	32264	
6800	0	32232	
6801	0	32212	
6802	0	32248	
6803	0	32280	
6804	0	32256	
6805	0	32244	
6806	0	32260	
6807	0	32256	
6808	0	32192	
6809	0	32216	
6810	0	32276	
6811	0	32324	
6812	0	32384	
6813	0	32384	
6814	0	32344	
6815	0	32272	
6816	0	32224	
6817	0	32220	
6818	0	32236	
6819	0	32244	
6820	0	32304	
6821	0	32344	
6822	0	32348	
6823	0	32346	
6824	0	32360	
6825	0	32364	
6826	0	32364	
6827	0	32352	
6828	0	32380	
6829	0	32416	
6830	0	32456	
6831	0	32472	
6832	0	32452	
6833	0	32508	
6834	0	32520	
6835	0	32508	
6836	0	32508	
6837	0	32516	
6838	0	32500	
6839	0	32488	
6840	0	32514	
6841	0	32496	
6842	0	32545	
6843	0	32580	
6844	0	32584	
6845	0	32544	
6846	0	32532	
6847	0	32516	
6848	0	32500	
6849	0	32524	
6850	0	32528	
6851	0	32552	
6852	0	32568	
6853	0	32552	
6854	0	32548	
6855	0	32532	
6856	0	32528	
6857	0	32516	
6858	0	32512	
6859	0	32498	
6860	0	32480	
6861	0	32468	
6862	0	32508	
6863	0	32536	
6864	0	32528	
6865	0	32552	
6866	0	32636	
6867	0	32648	
6868	0	32604	
6869	0	32580	
6870	0	32570	
6871	0	32572	
6872	0	32576	
6873	0	32602	
6874	0	32572	
6875	0	32556	
6876	0	32532	
6877	0	32568	
6878	0	32644	
6879	0	32756	
6880	0	32856	
6881	0	32904	
6882	0	32942	
6883	0	33028	
6884	0	33180	
6885	0	33312	
6886	0	33432	
6887	0	33592	
6888	0	33752	
6889	0	33848	
6890	0	33964	
6891	0	34044	
6892	0	34080	
6893	0	34100	
6894	0	34170	
6895	0	34156	
6896	0	34144	
6897	0	34160	
6898	0	34248	
6899	0	34324	
6900	0	34348	
6901	0	34336	
6902	0	34340	
6903	0	34424	
6904	0	34524	
6905	0	34600	
6906	0	34708	
6907	0	34772	
6908	0	34868	
6909	0	34964	
6910	0	35000	
6911	0	35036	
6912	0	35180	
6913	0	35272	
6914	0	35320	
6915	0	35384	
6916	0	35412	
6917	0	35348	
6918	0	35296	
6919	0	35264	
6920	0	35284	
6921	0	35296	
6922	0	35264	
6923	0	35220	
6924	0	35200	
6925	0	35224	
6926	0	35240	
6927	0	35188	
6928	0	35124	
6929	0	35000	
6930	0	34840	
6931	0	34662	
6932	0	34552	
6933	0	34404	
6934	0	34220	
6935	0	34048	
6936	0	33908	
6937	0	33760	
6938	0	33664	
6939	0	33588	
6940	0	33564	
6941	0	33544	
6942	0	33426	
6943	0	33344	
6944	0	33288	
6945	0	33202	
6946	0	33164	
6947	0	33160	
6948	0	33180	
6949	0	33138	
6950	0	33064	
6951	0	33068	
6952	0	33078	
6953	0	33024	
6954	0	32926	
6955	0	32908	
6956	0	32912	
6957	0	32920	
6958	0	32812	
6959	0	32668	
6960	0	32584	
6961	0	32524	
6962	0	32448	
6963	0	32336	
6964	0	32225	
6965	0	32128	
6966	0	32052	
6967	0	31992	
6968	0	31880	
6969	0	31780	
6970	0	31750	
6971	0	31732	
6972	0	31752	
6973	0	31752	
6974	0	31776	
6975	0	31816	
6976	0	31804	
6977	0	31724	
6978	0	31664	
6979	0	31664	
6980	0	31656	
6981	0	31672	
6982	0	31700	
6983	0	31728	
6984	0	31720	
6985	0	31756	
6986	0	31796	
6987	0	31796	
6988	0	31792	
6989	0	31768	
6990	0	31772	
6991	0	31796	
6992	0	31808	
6993	0	31780	
6994	0	31728	
6995	0	31740	
6996	0	31760	
6997	0	31796	
6998	0	31800	
6999	0	31852	
7000	0	31880	
7001	0	31904	
7002	0	31956	
7003	0	31984	
7004	0	32000	
7005	0	32008	
7006	0	32012	
7007	0	32016	
7008	0	31998	
7009	0	32036	
7010	0	32116	
7011	0	32196	
7012	0	32220	
7013	0	32144	
7014	0	32096	
7015	0	32064	
7016	0	31992	
7017	0	31824	
7018	0	31672	
7019	0	31492	
7020	0	31308	
7021	0	31156	
7022	0	31108	
7023	0	31180	
7024	0	31320	
7025	0	31464	
7026	0	31680	
7027	0	32088	
7028	0	32688	
7029	0	33416	
7030	0	34238	
7031	0	35160	
7032	0	36076	
7033	0	37192	
7034	0	38428	
7035	0	39898	
7036	0	41472	
7037	0	43048	
7038	0	44600	
7039	0	46132	
7040	0	47700	
7041	0	49368	
7042	0	51040	
7043	0	52576	
7044	0	53928	
7045	0	55272	
7046	0	56756	
7047	0	58212	
7048	0	59432	
7049	0	60560	
7050	0	61552	
7051	0	62424	
7052	0	63116	
7053	0	63000	
7054	0	61668	
7055	0	59500	
7056	0	56576	
7057	0	53226	
7058	0	49908	
7059	0	46392	
7060	0	42554	
7061	0	38586	
7062	0	35172	
7063	0	32648	
7064	0	30728	
7065	0	29384	
7066	0	28488	
7067	0	27930	
7068	0	27690	
7069	0	27636	
7070	0	27712	
7071	0	27884	
7072	0	28228	
7073	0	28616	
7074	0	28960	
7075	0	29216	
7076	0	29389	
7077	0	29580	
7078	0	29724	
7079	0	29832	
7080	0	29812	
7081	0	29708	
7082	0	29568	
7083	0	29453	
7084	0	29352	
7085	0	29264	
7086	0	29152	
7087	0	29088	
7088	0	29056	
7089	0	29024	
7090	0	28976	
7091	0	28898	
7092	0	28860	
7093	0	28804	
7094	0	28781	
7095	0	28768	
7096	0	28720	
7097	0	28656	
7098	0	28668	
7099	0	28736	
7100	0	28772	
7101	0	28773	
7102	0	28786	
7103	0	28844	
7104	0	28896	
7105	0	28984	
7106	0	29052	
7107	0	29090	
7108	0	29120	
7109	0	29120	
7110	0	29130	
7111	0	29164	
7112	0	29168	
7113	0	29208	
7114	0	29252	
7115	0	29256	
7116	0	29296	
7117	0	29320	
7118	0	29364	
7119	0	29392	
7120	0	29384	
7121	0	29336	
7122	0	29400	
7123	0	29536	
7124	0	29613	
7125	0	29672	
7126	0	29672	
7127	0	29712	
7128	0	29794	
7129	0	29880	
7130	0	29852	
7131	0	29896	
7132	0	30008	
7133	0	30010	
7134	0	29960	
7135	0	29976	
7136	0	30040	
7137	0	30132	
7138	0	30160	
7139	0	30192	
7140	0	30240	
7141	0	30296	
7142	0	30312	
7143	0	30316	
7144	0	30336	
7145	0	30392	
7146	0	30448	
7147	0	30492	
7148	0	30544	
7149	0	30556	
7150	0	30564	
7151	0	30572	
7152	0	30600	
7153	0	30628	
7154	0	30648	
7155	0	30700	
7156	0	30752	
7157	0	30752	
7158	0	30746	
7159	0	30692	
7160	0	30722	
7161	0	30754	
7162	0	30762	
7163	0	30828	
7164	0	30888	
7165	0	30940	
7166	0	30993	
7167	0	31088	
7168	0	31192	
7169	0	31252	
7170	0	31292	
7171	0	31328	
7172	0	31336	
7173	0	31370	
7174	0	31360	
7175	0	31340	
7176	0	31364	
7177	0	31386	
7178	0	31372	
7179	0	31384	
7180	0	31448	
7181	0	31472	
7182	0	31488	
7183	0	31520	
7184	0	31576	
7185	0	31616	
7186	0	31676	
7187	0	31748	
7188	0	31808	
7189	0	31836	
7190	0	31876	
7191	0	31936	
7192	0	31924	
7193	0	31924	
7194	0	31980	
7195	0	32012	
7196	0	32020	
7197	0	32056	
7198	0	32140	
7199	0	32216	
7200	0	32218	
7201	0	32216	
7202	0	32244	
7203	0	32264	
7204	0	32320	
7205	0	32369	
7206	0	32400	
7207	0	32416	
7208	0	32440	
7209	0	32512	
7210	0	32528	
7211	0	32560	
7212	0	32608	
7213	0	32628	
7214	0	32640	
7215	0	32652	
7216	0	32664	
7217	0	32704	
7218	0	32812	
7219	0	32860	
7220	0	32856	
7221	0	32864	
7222	0	32948	
7223	0	33060	
7224	0	33152	
7225	0	33216	
7226	0	33242	
7227	0	33344	
7228	0	33450	
7229	0	33490	
7230	0	33522	
7231	0	33544	
7232	0	33568	
7233	0	33616	
7234	0	33612	
7235	0	33662	
7236	0	33758	
7237	0	33808	
7238	0	33804	
7239	0	33872	
7240	0	33988	
7241	0	34000	
7242	0	34032	
7243	0	34096	
7244	0	34176	
7245	0	34250	
7246	0	34344	
7247	0	34488	
7248	0	34604	
7249	0	34644	
7250	0	34746	
7251	0	34852	
7252	0	34922	
7253	0	34976	
7254	0	35028	
7255	0	35072	
7256	0	35180	
7257	0	35236	
7258	0	35212	
7259	0	35214	
7260	0	35208	
7261	0	35234	
7262	0	35328	
7263	0	35392	
7264	0	35476	
7265	0	35584	
7266	0	35712	
7267	0	35808	
7268	0	35880	
7269	0	35944	
7270	0	35980	
7271	0	36004	
7272	0	36012	
7273	0	36008	
7274	0	36000	
7275	0	36056	
7276	0	36120	
7277	0	36154	
7278	0	36192	
7279	0	36232	
7280	0	36316	
7281	0	36308	
7282	0	36272	
7283	0	36256	
7284	0	36272	
7285	0	36314	
7286	0	36368	
7287	0	36348	
7288	0	36320	
7289	0	36300	
7290	0	36276	
7291	0	36316	
7292	0	36340	
7293	0	36358	
7294	0	36356	
7295	0	36288	
7296	0	36180	
7297	0	36116	
7298	0	36074	
7299	0	35970	
7300	0	35844	
7301	0	35764	
7302	0	35692	
7303	0	35632	
7304	0	35572	
7305	0	35460	
7306	0	35328	
7307	0	35216	
7308	0	35116	
7309	0	34984	
7310	0	34798	
7311	0	34656	
7312	0	34548	
7313	0	34416	
7314	0	34232	
7315	0	34076	
7316	0	33952	
7317	0	33838	
7318	0	33672	
7319	0	33524	
7320	0	33376	
7321	0	33216	
7322	0	33056	
7323	0	32892	
7324	0	32716	
7325	0	32580	
7326	0	32508	
7327	0	32436	
7328	0	32284	
7329	0	32124	
7330	0	31982	
7331	0	31864	
7332	0	31752	
7333	0	31604	
7334	0	31452	
7335	0	31344	
7336	0	31236	
7337	0	31124	
7338	0	31034	
7339	0	30938	
7340	0	30864	
7341	0	30764	
7342	0	30684	
7343	0	30612	
7344	0	30476	
7345	0	30412	
7346	0	30362	
7347	0	30318	
7348	0	30216	
7349	0	30144	
7350	0	30056	
7351	0	30060	
7352	0	30072	
7353	0	30040	
7354	0	30040	
7355	0	30024	
7356	0	29996	
7357	0	29956	
7358	0	29900	
7359	0	29876	
7360	0	29872	
7361	0	29856	
7362	0	29840	
7363	0	29836	
7364	0	29792	
7365	0	29760	
7366	0	29740	
7367	0	29764	
7368	0	29820	
7369	0	29760	
7370	0	29736	
7371	0	29768	
7372	0	29800	
7373	0	29824	
7374	0	29844	
7375	0	29864	
7376	0	29884	
7377	0	29820	
7378	0	29792	
7379	0	29772	
7380	0	29768	
7381	0	29784	
7382	0	29796	
7383	0	29798	
7384	0	29840	
7385	0	29836	
7386	0	29824	
7387	0	29860	
7388	0	29900	
7389	0	29948	
7390	0	30016	
7391	0	30020	
7392	0	30048	
7393	0	30072	
7394	0	30136	
7395	0	30204	
7396	0	30224	
7397	0	30200	
7398	0	30170	
7399	0	30166	
7400	0	30192	
7401	0	30204	
7402	0	30228	
7403	0	30276	
7404	0	30296	
7405	0	30300	
7406	0	30328	
7407	0	30328	
7408	0	30348	
7409	0	30416	
7410	0	30466	
7411	0	30488	
7412	0	30488	
7413	0	30500	
7414	0	30520	
7415	0	30556	
7416	0	30544	
7417	0	30526	
7418	0	30480	
7419	0	30500	
7420	0	30524	
7421	0	30556	
7422	0	30620	
7423	0	30688	
7424	0	30764	
7425	0	30780	
7426	0	30760	
7427	0	30760	
7428	0	30784	
7429	0	30744	
7430	0	30716	
7431	0	30748	
7432	0	30776	
7433	0	30844	
7434	0	30944	
7435	0	30984	
7436	0	30966	
7437	0	30954	
7438	0	30980	
7439	0	30964	
7440	0	31036	
7441	0	31124	
7442	0	31192	
7443	0	31160	
7444	0	31152	
7445	0	31160	
7446	0	31176	
7447	0	31200	
7448	0	31220	
7449	0	31240	
7450	0	31274	
7451	0	31232	
7452	0	31198	
7453	0	31228	
7454	0	31224	
7455	0	31272	
7456	0	31296	
7457	0	31276	
7458	0	31274	
7459	0	31336	
7460	0	31370	
7461	0	31392	
7462	0	31400	
7463	0	31388	
7464	0	31392	
7465	0	31364	
7466	0	31392	
7467	0	31472	
7468	0	31500	
7469	0	31514	
7470	0	31536	
7471	0	31520	
7472	0	31488	
7473	0	31500	
7474	0	31544	
7475	0	31576	
7476	0	31544	
7477	0	31532	
7478	0	31540	
7479	0	31482	
7480	0	31536	
7481	0	31616	
7482	0	31624	
7483	0	31616	
7484	0	31600	
7485	0	31584	
7486	0	31552	
7487	0	31548	
7488	0	31552	
7489	0	31552	
7490	0	31574	
7491	0	31556	
7492	0	31500	
7493	0	31496	
7494	0	31500	
7495	0	31528	
7496	0	31568	
7497	0	31528	
7498	0	31508	
7499	0	31572	
7500	0	31620	
7501	0	31628	
7502	0	31664	
7503	0	31696	
7504	0	31700	
7505	0	31692	
7506	0	31700	
7507	0	31718	
7508	0	31732	
7509	0	31738	
7510	0	31760	
7511	0	31754	
7512	0	31740	
7513	0	31732	
7514	0	31768	
7515	0	31796	
7516	0	31780	
7517	0	31752	
7518	0	31744	
7519	0	31740	
7520	0	31748	
7521	0	31738	
7522	0	31720	
7523	0	31696	
7524	0	31696	
7525	0	31676	
7526	0	31682	
7527	0	31704	
7528	0	31744	
7529	0	31742	
7530	0	31716	
7531	0	31724	
7532	0	31748	
7533	0	31768	
7534	0	31822	
7535	0	31872	
7536	0	31904	
7537	0	31904	
7538	0	31880	
7539	0	31888	
7540	0	31840	
7541	0	31784	
7542	0	31792	
7543	0	31800	
7544	0	31816	
7545	0	31840	
7546	0	31856	
7547	0	31840	
7548	0	31856	
7549	0	31868	
7550	0	31880	
7551	0	31844	
7552	0	31828	
7553	0	31812	
7554	0	31812	
7555	0	31778	
7556	0	31760	
7557	0	31773	
7558	0	31746	
7559	0	31736	
7560	0	31712	
7561	0	31780	
7562	0	31816	
7563	0	31812	
7564	0	31824	
7565	0	31880	
7566	0	31912	
7567	0	31884	
7568	0	31888	
7569	0	31930	
7570	0	32016	
7571	0	32056	
7572	0	32112	
7573	0	32128	
7574	0	32076	
7575	0	32062	
7576	0	32068	
7577	0	32112	
7578	0	32160	
7579	0	32180	
7580	0	32192	
7581	0	32176	
7582	0	32168	
7583	0	32176	
7584	0	32172	
7585	0	32148	
7586	0	32148	
7587	0	32140	
7588	0	32156	
7589	0	32144	
7590	0	32140	
7591	0	32100	
7592	0	32056	
7593	0	32072	
7594	0	32088	
7595	0	32116	
7596	0	32106	
7597	0	32112	
7598	0	32096	
7599	0	32064	
7600	0	32020	
7601	0	32000	
7602	0	32020	
7603	0	32024	
7604	0	32088	
7605	0	32144	
7606	0	32196	
7607	0	32248	
7608	0	32216	
7609	0	32240	
7610	0	32276	
7611	0	32268	
7612	0	32260	
7613	0	32268	
7614	0	32352	
7615	0	32384	
7616	0	32364	
7617	0	32352	
7618	0	32296	
7619	0	32232	
7620	0	32228	
7621	0	32240	
7622	0	32252	
7623	0	32276	
7624	0	32296	
7625	0	32276	
7626	0	32288	
7627	0	32300	
7628	0	32304	
7629	0	32332	
7630	0	32360	
7631	0	32360	
7632	0	32364	
7633	0	32376	
7634	0	32384	
7635	0	32416	
7636	0	32450	
7637	0	32476	
7638	0	32432	
7639	0	32432	
7640	0	32420	
7641	0	32456	
7642	0	32464	
7643	0	32464	
7644	0	32476	
7645	0	32496	
7646	0	32508	
7647	0	32516	
7648	0	32504	
7649	0	32538	
7650	0	32580	
7651	0	32596	
7652	0	32620	
7653	0	32612	
7654	0	32576	
7655	0	32552	
7656	0	32570	
7657	0	32564	
7658	0	32512	
7659	0	32464	
7660	0	32462	
7661	0	32456	
7662	0	32448	
7663	0	32472	
7664	0	32412	
7665	0	32344	
7666	0	32382	
7667	0	32400	
7668	0	32392	
7669	0	32376	
7670	0	32372	
7671	0	32420	
7672	0	32480	
7673	0	32544	
7674	0	32594	
7675	0	32652	
7676	0	32680	
7677	0	32704	
7678	0	32812	
7679	0	32928	
7680	0	33080	
7681	0	33246	
7682	0	33344	
7683	0	33404	
7684	0	33468	
7685	0	33544	
7686	0	33676	
7687	0	33784	
7688	0	33806	
7689	0	33812	
7690	0	33788	
7691	0	33836	
7692	0	33936	
7693	0	34034	
7694	0	34124	
7695	0	34184	
7696	0	34220	
7697	0	34256	
7698	0	34290	
7699	0	34328	
7700	0	34380	
7701	0	34464	
7702	0	34528	
7703	0	34616	
7704	0	34752	
7705	0	34858	
7706	0	34968	
7707	0	35078	
7708	0	35188	
7709	0	35335	
7710	0	35432	
7711	0	35360	
7712	0	35272	
7713	0	35204	
7714	0	35170	
7715	0	35196	
7716	0	35248	
7717	0	35342	
7718	0	35448	
7719	0	35456	
7720	0	35364	
7721	0	35232	
7722	0	35106	
7723	0	34992	
7724	0	34900	
7725	0	34784	
7726	0	34564	
7727	0	34284	
7728	0	34076	
7729	0	33888	
7730	0	33716	
7731	0	33552	
7732	0	33444	
7733	0	33408	
7734	0	33428	
7735	0	33328	
7736	0	33260	
7737	0	33248	
7738	0	33198	
7739	0	33132	
7740	0	33064	
7741	0	33088	
7742	0	33132	
7743	0	33088	
7744	0	33056	
7745	0	33056	
7746	0	33020	
7747	0	32924	
7748	0	32852	
7749	0	32813	
7750	0	32816	
7751	0	32808	
7752	0	32748	
7753	0	32704	
7754	0	32608	
7755	0	32432	
7756	0	32272	
7757	0	32208	
7758	0	32092	
7759	0	31984	
7760	0	31888	
7761	0	31836	
7762	0	31752	
7763	0	31728	
7764	0	31724	
7765	0	31680	
7766	0	31692	
7767	0	31784	
7768	0	31828	
7769	0	31868	
7770	0	31892	
7771	0	31848	
7772	0	31832	
7773	0	31832	
7774	0	31842	
7775	0	31828	
7776	0	31776	
7777	0	31740	
7778	0	31748	
7779	0	31748	
7780	0	31748	
7781	0	31720	
7782	0	31652	
7783	0	31616	
7784	0	31652	
7785	0	31680	
7786	0	31712	
7787	0	31748	
7788	0	31760	
7789	0	31708	
7790	0	31696	
7791	0	31772	
7792	0	31792	
7793	0	31828	
7794	0	31848	
7795	0	31814	
7796	0	31770	
7797	0	31776	
7798	0	31798	
7799	0	31860	
7800	0	31904	
7801	0	31916	
7802	0	31916	
7803	0	31900	
7804	0	31928	
7805	0	31976	
7806	0	32020	
7807	0	31992	
7808	0	31924	
7809	0	31876	
7810	0	31828	
7811	0	31728	
7812	0	31500	
7813	0	31248	
7814	0	31096	
7815	0	31000	
7816	0	30996	
7817	0	31106	
7818	0	31248	
7819	0	31436	
7820	0	31794	
7821	0	32344	
7822	0	33000	
7823	0	33736	
7824	0	34648	
7825	0	35676	
7826	0	36720	
7827	0	37920	
7828	0	39316	
7829	0	40920	
7830	0	42518	
7831	0	44056	
7832	0	45604	
7833	0	47168	
7834	0	48752	
7835	0	50366	
7836	0	51976	
7837	0	53440	
7838	0	54744	
7839	0	56008	
7840	0	57360	
7841	0	58736	
7842	0	59944	
7843	0	61008	
7844	0	61812	
7845	0	62408	
7846	0	62592	
7847	0	61632	
7848	0	59732	
7849	0	57136	
7850	0	53924	
7851	0	50644	
7852	0	47224	
7853	0	43416	
7854	0	39264	
7855	0	35428	
7856	0	32570	
7857	0	30548	
7858	0	29120	
7859	0	28160	
7860	0	27552	
7861	0	27264	
7862	0	27148	
7863	0	27132	
7864	0	27184	
7865	0	27440	
7866	0	27864	
7867	0	28264	
7868	0	28584	
7869	0	28932	
7870	0	29220	
7871	0	29410	
7872	0	29592	
7873	0	29740	
7874	0	29824	
7875	0	29818	
7876	0	29774	
7877	0	29656	
7878	0	29536	
7879	0	29404	
7880	0	29268	
7881	0	29176	
7882	0	29120	
7883	0	29056	
7884	0	29020	
7885	0	28990	
7886	0	28936	
7887	0	28896	
7888	0	28816	
7889	0	28800	
7890	0	28860	
7891	0	28864	
7892	0	28848	
7893	0	28864	
7894	0	28880	
7895	0	28932	
7896	0	28972	
7897	0	28984	
7898	0	28984	
7899	0	28980	
7900	0	29016	
7901	0	29036	
7902	0	29057	
7903	0	29064	
7904	0	29018	
7905	0	29076	
7906	0	29184	
7907	0	29316	
7908	0	29400	
7909	0	29436	
7910	0	29436	
7911	0	29436	
7912	0	29424	
7913	0	29428	
7914	0	29420	
7915	0	29412	
7916	0	29408	
7917	0	29436	
7918	0	29496	
7919	0	29612	
7920	0	29708	
7921	0	29744	
7922	0	29756	
7923	0	29782	
7924	0	29840	
7925	0	29896	
7926	0	29968	
7927	0	30044	
7928	0	30140	
7929	0	30160	
7930	0	30214	
7931	0	30248	
7932	0	30300	
7933	0	30304	
7934	0	30284	
7935	0	30252	
7936	0	30272	
7937	0	30328	
7938	0	30326	
7939	0	30328	
7940	0	30368	
7941	0	30466	
7942	0	30540	
7943	0	30544	
7944	0	30536	
7945	0	30608	
7946	0	30720	
7947	0	30820	
7948	0	30912	
7949	0	30900	
7950	0	30832	
7951	0	30816	
7952	0	30820	
7953	0	30844	
7954	0	30904	
7955	0	30914	
7956	0	30892	
7957	0	30912	
7958	0	30944	
7959	0	31008	
7960	0	31072	
7961	0	31134	
7962	0	31156	
7963	0	31204	
7964	0	31256	
7965	0	31324	
7966	0	31332	
7967	0	31328	
7968	0	31376	
7969	0	31444	
7970	0	31464	
7971	0	31464	
7972	0	31484	
7973	0	31456	
7974	0	31420	
7975	0	31476	
7976	0	31532	
7977	0	31600	
7978	0	31686	
7979	0	31744	
7980	0	31768	
7981	0	31780	
7982	0	31812	
7983	0	31868	
7984	0	31912	
7985	0	31964	
7986	0	32048	
7987	0	32140	
7988	0	32208	
7989	0	32252	
7990	0	32338	
7991	0	32440	
7992	0	32504	
7993	0	32548	
7994	0	32556	
7995	0	32520	
7996	0	32508	
7997	0	32520	
7998	0	32520	
7999	0	32544	
8000	0	32508	
8001	0	32456	
8002	0	32492	
8003	0	32544	
8004	0	32552	
8005	0	32588	
8006	0	32616	
8007	0	32660	
8008	0	32696	
8009	0	32748	
8010	0	32852	
8011	0	32916	
8012	0	32956	
8013	0	32996	
8014	0	33056	
8015	0	33118	
8016	0	33168	
8017	0	33176	
8018	0	33220	
8019	0	33272	
8020	0	33324	
8021	0	33384	
8022	0	33340	
8023	0	33344	
8024	0	33420	
8025	0	33480	
8026	0	33552	
8027	0	33748	
8028	0	33928	
8029	0	34026	
8030	0	34056	
8031	0	34032	
8032	0	34028	
8033	0	34032	
8034	0	34116	
8035	0	34180	
8036	0	34228	
8037	0	34272	
8038	0	34340	
8039	0	34404	
8040	0	34500	
8041	0	34576	
8042	0	34644	
8043	0	34736	
8044	0	34824	
8045	0	34884	
8046	0	34916	
8047	0	34992	
8048	0	35088	
8049	0	35180	
8050	0	35236	
8051	0	35264	
8052	0	35328	
8053	0	35384	
8054	0	35468	
8055	0	35568	
8056	0	35608	
8057	0	35628	
8058	0	35672	
8059	0	35736	
8060	0	35788	
8061	0	35856	
8062	0	35920	
8063	0	35994	
8064	0	36032	
8065	0	36064	
8066	0	36140	
8067	0	36254	
8068	0	36332	
8069	0	36372	
8070	0	36372	
8071	0	36468	
8072	0	36576	
8073	0	36604	
8074	0	36556	
8075	0	36554	
8076	0	36548	
8077	0	36524	
8078	0	36512	
8079	0	36508	
8080	0	36512	
8081	0	36544	
8082	0	36548	
8083	0	36576	
8084	0	36604	
8085	0	36668	
8086	0	36640	
8087	0	36598	
8088	0	36540	
8089	0	36496	
8090	0	36480	
8091	0	36396	
8092	0	36332	
8093	0	36304	
8094	0	36232	
8095	0	36120	
8096	0	35976	
8097	0	35872	
8098	0	35776	
8099	0	35740	
8100	0	35694	
8101	0	35544	
8102	0	35392	
8103	0	35276	
8104	0	35138	
8105	0	34924	
8106	0	34720	
8107	0	34584	
8108	0	34500	
8109	0	34444	
8110	0	34336	
8111	0	34170	
8112	0	33992	
8113	0	33824	
8114	0	33668	
8115	0	33480	
8116	0	33286	
8117	0	33164	
8118	0	32992	
8119	0	32770	
8120	0	32552	
8121	0	32360	
8122	0	32176	
8123	0	32018	
8124	0	31884	
8125	0	31736	
8126	0	31668	
8127	0	31640	
8128	0	31552	
8129	0	31436	
8130	0	31242	
8131	0	31124	
8132	0	31008	
8133	0	30924	
8134	0	30868	
8135	0	30836	
8136	0	30752	
8137	0	30620	
8138	0	30530	
8139	0	30484	
8140	0	30400	
8141	0	30278	
8142	0	30170	
8143	0	30104	
8144	0	30016	
8145	0	29964	
8146	0	29928	
8147	0	29912	
8148	0	29928	
8149	0	29900	
8150	0	29904	
8151	0	29904	
8152	0	29872	
8153	0	29868	
8154	0	29864	
8155	0	29856	
8156	0	29830	
8157	0	29776	
8158	0	29726	
8159	0	29704	
8160	0	29680	
8161	0	29632	
8162	0	29640	
8163	0	29584	
8164	0	29564	
8165	0	29516	
8166	0	29504	
8167	0	29508	
8168	0	29580	
8169	0	29632	
8170	0	29618	
8171	0	29640	
8172	0	29656	
8173	0	29665	
8174	0	29660	
8175	0	29644	
8176	0	29612	
8177	0	29560	
8178	0	29598	
8179	0	29634	
8180	0	29696	
8181	0	29736	
8182	0	29800	
8183	0	29840	
8184	0	29848	
8185	0	29832	
8186	0	29892	
8187	0	29952	
8188	0	30020	
8189	0	30084	
8190	0	30148	
8191	0	30136	
8192	0	30052	
8193	0	30000	
8194	0	30010	
8195	0	30100	
8196	0	30180	
8197	0	30284	
8198	0	30340	
8199	0	30296	
8200	0	30292	
8201	0	30236	
8202	0	30208	
8203	0	30232	
8204	0	30236	
8205	0	30204	
8206	0	30174	
8207	0	30248	
8208	0	30352	
8209	0	30386	
8210	0	30388	
8211	0	30444	
8212	0	30488	
8213	0	30516	
8214	0	30532	
8215	0	30564	
8216	0	30592	
8217	0	30644	
8218	0	30746	
8219	0	30792	
8220	0	30820	
8221	0	30832	
8222	0	30876	
8223	0	30920	
8224	0	30928	
8225	0	30964	
8226	0	30976	
8227	0	30960	
8228	0	30972	
8229	0	30976	
8230	0	31040	
8231	0	31092	
8232	0	31064	
8233	0	31028	
8234	0	31064	
8235	0	31074	
8236	0	31044	
8237	0	30988	
8238	0	31000	
8239	0	31052	
8240	0	31060	
8241	0	31040	
8242	0	30992	
8243	0	31016	
8244	0	31016	
8245	0	31032	
8246	0	31088	
8247	0	31164	
8248	0	31224	
8249	0	31212	
8250	0	31308	
8251	0	31404	
8252	0	31436	
8253	0	31440	
8254	0	31488	
8255	0	31476	
8256	0	31540	
8257	0	31556	
8258	0	31476	
8259	0	31418	
8260	0	31376	
8261	0	31350	
8262	0	31252	
8263	0	31296	
8264	0	31336	
8265	0	31392	
8266	0	31444	
8267	0	31456	
8268	0	31476	
8269	0	31540	
8270	0	31566	
8271	0	31560	
8272	0	31540	
8273	0	31528	
8274	0	31532	
8275	0	31584	
8276	0	31640	
8277	0	31700	
8278	0	31752	
8279	0	31768	
8280	0	31784	
8281	0	31740	
8282	0	31762	
8283	0	31772	
8284	0	31700	
8285	0	31688	
8286	0	31676	
8287	0	31640	
8288	0	31612	
8289	0	31642	
8290	0	31684	
8291	0	31716	
8292	0	31712	
8293	0	31700	
8294	0	31684	
8295	0	31652	
8296	0	31652	
8297	0	31672	
8298	0	31668	
8299	0	31716	
8300	0	31792	
8301	0	31832	
8302	0	31836	
8303	0	31792	
8304	0	31804	
8305	0	31868	
8306	0	31924	
8307	0	31920	
8308	0	31916	
8309	0	31936	
8310	0	31888	
8311	0	31844	
8312	0	31856	
8313	0	31864	
8314	0	31884	
8315	0	31848	
8316	0	31904	
8317	0	32006	
8318	0	32042	
8319	0	32048	
8320	0	32052	
8321	0	32048	
8322	0	32032	
8323	0	32008	
8324	0	31956	
8325	0	31936	
8326	0	31984	
8327	0	32008	
8328	0	31960	
8329	0	31988	
8330	0	31994	
8331	0	31972	
8332	0	32028	
8333	0	32004	
8334	0	31956	
8335	0	31960	
8336	0	32000	
8337	0	32024	
8338	0	31984	
8339	0	32024	
8340	0	32088	
8341	0	32088	
8342	0	32088	
8343	0	32100	
8344	0	32164	
8345	0	32224	
8346	0	32244	
8347	0	32232	
8348	0	32208	
8349	0	32208	
8350	0	32192	
8351	0	32164	
8352	0	32176	
8353	0	32180	
8354	0	32244	
8355	0	32340	
8356	0	32456	
8357	0	32468	
8358	0	32440	
8359	0	32384	
8360	0	32376	
8361	0	32372	
8362	0	32384	
8363	0	32400	
8364	0	32396	
8365	0	32412	
8366	0	32432	
8367	0	32412	
8368	0	32372	
8369	0	32312	
8370	0	32216	
8371	0	32208	
8372	0	32304	
8373	0	32392	
8374	0	32480	
8375	0	32546	
8376	0	32624	
8377	0	32704	
8378	0	32784	
8379	0	32853	
8380	0	32940	
8381	0	32980	
8382	0	33064	
8383	0	33132	
8384	0	33224	
8385	0	33324	
8386	0	33378	
8387	0	33356	
8388	0	33444	
8389	0	33632	
8390	0	33720	
8391	0	33756	
8392	0	33812	
8393	0	33892	
8394	0	33980	
8395	0	33968	
8396	0	33984	
8397	0	34024	
8398	0	33988	
8399	0	34020	
8400	0	34048	
8401	0	34032	
8402	0	33984	
8403	0	33992	
8404	0	34052	
8405	0	34172	
8406	0	34364	
8407	0	34512	
8408	0	34700	
8409	0	34852	
8410	0	35004	
8411	0	35172	
8412	0	35248	
8413	0	35276	
8414	0	35296	
8415	0	35344	
8416	0	35392	
8417	0	35418	
8418	0	35404	
8419	0	35444	
8420	0	35472	
8421	0	35432	
8422	0	35380	
8423	0	35280	
8424	0	35168	
8425	0	35140	
8426	0	35000	
8427	0	34872	
8428	0	34792	
8429	0	34840	
8430	0	34890	
8431	0	34760	
8432	0	34604	
8433	0	34528	
8434	0	34372	
8435	0	34204	
8436	0	34068	
8437	0	34028	
8438	0	34008	
8439	0	33966	
8440	0	33924	
8441	0	33804	
8442	0	33636	
8443	0	33444	
8444	0	33308	
8445	0	33160	
8446	0	32932	
8447	0	32748	
8448	0	32712	
8449	0	32736	
8450	0	32864	
8451	0	32984	
8452	0	33058	
8453	0	33032	
8454	0	33008	
8455	0	32920	
8456	0	32768	
8457	0	32604	
8458	0	32524	
8459	0	32464	
8460	0	32416	
8461	0	32256	
8462	0	32024	
8463	0	31892	
8464	0	31800	
8465	0	31732	
8466	0	31724	
8467	0	31692	
8468	0	31620	
8469	0	31584	
8470	0	31540	
8471	0	31560	
8472	0	31572	
8473	0	31648	
8474	0	31714	
8475	0	31760	
8476	0	31751	
8477	0	31688	
8478	0	31648	
8479	0	31612	
8480	0	31660	
8481	0	31720	
8482	0	31700	
8483	0	31648	
8484	0	31612	
8485	0	31620	
8486	0	31648	
8487	0	31628	
8488	0	31588	
8489	0	31596	
8490	0	31636	
8491	0	31676	
8492	0	31616	
8493	0	31568	
8494	0	31544	
8495	0	31496	
8496	0	31484	
8497	0	31496	
8498	0	31550	
8499	0	31544	
8500	0	31576	
8501	0	31616	
8502	0	31678	
8503	0	31712	
8504	0	31700	
8505	0	31788	
8506	0	31924	
8507	0	32056	
8508	0	32148	
8509	0	32168	
8510	0	32120	
8511	0	32076	
8512	0	31992	
8513	0	31920	
8514	0	31840	
8515	0	31808	
8516	0	31804	
8517	0	31760	
8518	0	31648	
8519	0	31536	
8520	0	31376	
8521	0	31208	
8522	0	31045	
8523	0	30882	
8524	0	30756	
8525	0	30700	
8526	0	30724	
8527	0	30928	
8528	0	31236	
8529	0	31604	
8530	0	32192	
8531	0	32920	
8532	0	33844	
8533	0	34804	
8534	0	35928	
8535	0	37132	
8536	0	38560	
8537	0	40200	
8538	0	41864	
8539	0	43544	
8540	0	45156	
8541	0	46788	
8542	0	48468	
8543	0	50240	
8544	0	51928	
8545	0	53536	
8546	0	55060	
8547	0	56476	
8548	0	57752	
8549	0	58980	
8550	0	60244	
8551	0	61484	
8552	0	62528	
8553	0	63272	
8554	0	63620	
8555	0	63016	
8556	0	61384	
8557	0	59080	
8558	0	55968	
8559	0	52568	
8560	0	49124	
8561	0	45404	
8562	0	41108	
8563	0	36520	
8564	0	32600	
8565	0	29704	
8566	0	27776	
8567	0	26808	
8568	0	26408	
8569	0	26344	
8570	0	26468	
8571	0	26488	
8572	0	26448	
8573	0	26516	
8574	0	26672	
8575	0	26888	
8576	0	27040	
8577	0	27220	
8578	0	27580	
8579	0	28040	
8580	0	28408	
8581	0	28660	
8582	0	28836	
8583	0	28976	
8584	0	29104	
8585	0	29220	
8586	0	29348	
8587	0	29468	
8588	0	29452	
8589	0	29260	
8590	0	29096	
8591	0	29088	
8592	0	29116	
