# OpenSignals Text File Format. Version 1
# {"00:07:80:4B:15:F7": {"position": 0, "device": "biosignalsplux", "device name": "00:07:80:4B:15:F7", "device connection": "BTH00:07:80:4B:15:F7", "sampling rate": 1000, "resolution": [16], "firmware version": 775, "comments": "", "keywords": "", "mode": 0, "sync interval": 2, "date": "2023-4-27", "time": "16:51:45.759", "channels": [1], "sensor": ["ECG"], "label": ["CH1"], "column": ["nSeq", "DI", "CH1"], "special": [{"SpO2": [80, 40, 5, 4, 3, 3]}, {"SpO2": [80, 40, 5, 4, 3, 3]}, {"SpO2": [80, 40, 5, 4, 3, 3]}, {"SpO2": [80, 40, 5, 4, 3, 3]}, {"SpO2": [80, 40, 5, 4, 3, 3]}, {"SpO2": [80, 40, 5, 4, 3, 3]}, {"SpO2": [80, 40, 5, 4, 3, 3]}, {"SpO2": [80, 40, 5, 4, 3, 3]}], "digital IO": [0, 1], "sleeve color": ["green"], "convertedValues": 0}}
# EndOfHeader
0	0	31336	
1	0	31404	
2	0	31464	
3	0	31504	
4	0	31546	
5	0	31552	
6	0	31568	
7	0	31592	
8	0	31604	
9	0	31616	
10	0	31564	
11	0	31536	
12	0	31540	
13	0	31544	
14	0	31544	
15	0	31596	
16	0	31656	
17	0	31700	
18	0	31704	
19	0	31672	
20	0	31636	
21	0	31612	
22	0	31578	
23	0	31568	
24	0	31620	
25	0	31652	
26	0	31672	
27	0	31668	
28	0	31620	
29	0	31608	
30	0	31592	
31	0	31604	
32	0	31636	
33	0	31688	
34	0	31700	
35	0	31692	
36	0	31700	
37	0	31696	
38	0	31692	
39	0	31720	
40	0	31724	
41	0	31752	
42	0	31812	
43	0	31870	
44	0	31928	
45	0	31920	
46	0	31872	
47	0	31844	
48	0	31816	
49	0	31822	
50	0	31832	
51	0	31848	
52	0	31880	
53	0	31952	
54	0	32008	
55	0	32052	
56	0	32068	
57	0	32056	
58	0	32036	
59	0	32046	
60	0	32040	
61	0	32024	
62	0	32028	
63	0	32036	
64	0	32064	
65	0	32068	
66	0	32048	
67	0	31984	
68	0	31936	
69	0	31920	
70	0	31916	
71	0	31904	
72	0	31908	
73	0	31912	
74	0	31904	
75	0	31884	
76	0	31900	
77	0	31900	
78	0	31924	
79	0	31956	
80	0	32000	
81	0	32064	
82	0	32128	
83	0	32140	
84	0	32176	
85	0	32208	
86	0	32216	
87	0	32236	
88	0	32220	
89	0	32226	
90	0	32232	
91	0	32220	
92	0	32192	
93	0	32168	
94	0	32122	
95	0	32104	
96	0	32144	
97	0	32184	
98	0	32222	
99	0	32268	
100	0	32288	
101	0	32288	
102	0	32288	
103	0	32304	
104	0	32304	
105	0	32292	
106	0	32288	
107	0	32288	
108	0	32252	
109	0	32244	
110	0	32260	
111	0	32308	
112	0	32324	
113	0	32324	
114	0	32364	
115	0	32344	
116	0	32336	
117	0	32364	
118	0	32392	
119	0	32424	
120	0	32468	
121	0	32500	
122	0	32514	
123	0	32532	
124	0	32568	
125	0	32572	
126	0	32580	
127	0	32616	
128	0	32664	
129	0	32656	
130	0	32640	
131	0	32632	
132	0	32584	
133	0	32570	
134	0	32580	
135	0	32616	
136	0	32636	
137	0	32708	
138	0	32780	
139	0	32824	
140	0	32872	
141	0	32884	
142	0	32864	
143	0	32872	
144	0	32868	
145	0	32816	
146	0	32704	
147	0	32680	
148	0	32660	
149	0	32644	
150	0	32628	
151	0	32584	
152	0	32520	
153	0	32460	
154	0	32400	
155	0	32344	
156	0	32344	
157	0	32412	
158	0	32472	
159	0	32528	
160	0	32545	
161	0	32548	
162	0	32568	
163	0	32600	
164	0	32649	
165	0	32690	
166	0	32724	
167	0	32756	
168	0	32786	
169	0	32808	
170	0	32832	
171	0	32840	
172	0	32868	
173	0	32892	
174	0	32924	
175	0	32956	
176	0	32972	
177	0	33032	
178	0	33128	
179	0	33264	
180	0	33468	
181	0	33632	
182	0	33764	
183	0	33808	
184	0	33892	
185	0	33978	
186	0	34068	
187	0	34172	
188	0	34212	
189	0	34144	
190	0	33984	
191	0	33852	
192	0	33772	
193	0	33696	
194	0	33612	
195	0	33576	
196	0	33568	
197	0	33580	
198	0	33592	
199	0	33612	
200	0	33668	
201	0	33688	
202	0	33716	
203	0	33776	
204	0	33836	
205	0	33880	
206	0	33944	
207	0	33984	
208	0	34020	
209	0	34020	
210	0	34000	
211	0	33952	
212	0	33904	
213	0	33856	
214	0	33834	
215	0	33856	
216	0	33864	
217	0	33832	
218	0	33796	
219	0	33728	
220	0	33588	
221	0	33406	
222	0	33200	
223	0	32932	
224	0	32676	
225	0	32520	
226	0	32480	
227	0	32460	
228	0	32468	
229	0	32524	
230	0	32552	
231	0	32584	
232	0	32604	
233	0	32624	
234	0	32664	
235	0	32732	
236	0	32780	
237	0	32804	
238	0	32826	
239	0	32840	
240	0	32848	
241	0	32844	
242	0	32852	
243	0	32848	
244	0	32888	
245	0	32908	
246	0	32884	
247	0	32832	
248	0	32792	
249	0	32788	
250	0	32812	
251	0	32840	
252	0	32832	
253	0	32864	
254	0	32902	
255	0	32920	
256	0	32930	
257	0	32944	
258	0	33012	
259	0	33060	
260	0	33090	
261	0	33096	
262	0	33108	
263	0	33112	
264	0	33160	
265	0	33212	
266	0	33258	
267	0	33288	
268	0	33316	
269	0	33320	
270	0	33340	
271	0	33380	
272	0	33412	
273	0	33424	
274	0	33404	
275	0	33364	
276	0	33312	
277	0	33200	
278	0	33016	
279	0	32796	
280	0	32484	
281	0	32044	
282	0	31432	
283	0	30716	
284	0	30052	
285	0	29568	
286	0	29272	
287	0	29176	
288	0	29232	
289	0	29456	
290	0	29892	
291	0	30528	
292	0	31264	
293	0	32272	
294	0	33516	
295	0	34840	
296	0	36268	
297	0	37904	
298	0	39772	
299	0	41864	
300	0	44164	
301	0	46776	
302	0	49600	
303	0	52464	
304	0	55432	
305	0	58552	
306	0	61748	
307	0	63816	
308	0	64912	
309	0	65448	
310	0	65535	
311	0	65535	
312	0	65535	
313	0	65535	
314	0	65535	
315	0	65468	
316	0	65352	
317	0	65224	
318	0	65088	
319	0	64952	
320	0	64824	
321	0	64704	
322	0	64568	
323	0	58428	
324	0	51832	
325	0	45836	
326	0	40528	
327	0	35818	
328	0	31840	
329	0	28720	
330	0	26368	
331	0	24872	
332	0	24077	
333	0	23661	
334	0	23390	
335	0	23168	
336	0	22976	
337	0	22824	
338	0	22752	
339	0	22776	
340	0	22880	
341	0	23044	
342	0	23202	
343	0	23396	
344	0	23648	
345	0	23984	
346	0	24444	
347	0	24948	
348	0	25560	
349	0	26152	
350	0	26664	
351	0	27104	
352	0	27496	
353	0	27792	
354	0	28037	
355	0	28258	
356	0	28476	
357	0	28736	
358	0	28972	
359	0	29140	
360	0	29220	
361	0	29276	
362	0	29312	
363	0	29324	
364	0	29344	
365	0	29360	
366	0	29420	
367	0	29452	
368	0	29456	
369	0	29488	
370	0	29512	
371	0	29556	
372	0	29600	
373	0	29644	
374	0	29688	
375	0	29724	
376	0	29748	
377	0	29800	
378	0	29852	
379	0	29912	
380	0	29976	
381	0	30088	
382	0	30148	
383	0	30184	
384	0	30212	
385	0	30264	
386	0	30320	
387	0	30400	
388	0	30492	
389	0	30540	
390	0	30570	
391	0	30592	
392	0	30632	
393	0	30672	
394	0	30684	
395	0	30720	
396	0	30744	
397	0	30756	
398	0	30776	
399	0	30840	
400	0	30888	
401	0	30936	
402	0	30980	
403	0	31032	
404	0	31076	
405	0	31124	
406	0	31156	
407	0	31184	
408	0	31212	
409	0	31272	
410	0	31320	
411	0	31360	
412	0	31428	
413	0	31458	
414	0	31508	
415	0	31528	
416	0	31536	
417	0	31580	
418	0	31620	
419	0	31652	
420	0	31692	
421	0	31756	
422	0	31802	
423	0	31840	
424	0	31892	
425	0	31928	
426	0	31984	
427	0	32032	
428	0	32088	
429	0	32112	
430	0	32148	
431	0	32180	
432	0	32212	
433	0	32252	
434	0	32304	
435	0	32364	
436	0	32440	
437	0	32468	
438	0	32522	
439	0	32600	
440	0	32676	
441	0	32728	
442	0	32756	
443	0	32808	
444	0	32844	
445	0	32834	
446	0	32852	
447	0	32884	
448	0	32912	
449	0	32928	
450	0	32968	
451	0	33028	
452	0	33104	
453	0	33128	
454	0	33148	
455	0	33176	
456	0	33224	
457	0	33248	
458	0	33272	
459	0	33316	
460	0	33390	
461	0	33448	
462	0	33518	
463	0	33560	
464	0	33630	
465	0	33684	
466	0	33720	
467	0	33744	
468	0	33768	
469	0	33760	
470	0	33784	
471	0	33824	
472	0	33860	
473	0	33898	
474	0	33936	
475	0	33976	
476	0	34060	
477	0	34160	
478	0	34224	
479	0	34288	
480	0	34380	
481	0	34480	
482	0	34516	
483	0	34548	
484	0	34592	
485	0	34608	
486	0	34648	
487	0	34656	
488	0	34716	
489	0	34788	
490	0	34812	
491	0	34872	
492	0	34944	
493	0	34992	
494	0	35084	
495	0	35202	
496	0	35284	
497	0	35376	
498	0	35492	
499	0	35576	
500	0	35648	
501	0	35668	
502	0	35652	
503	0	35696	
504	0	35745	
505	0	35812	
506	0	35872	
507	0	35928	
508	0	36004	
509	0	36072	
510	0	36156	
511	0	36260	
512	0	36364	
513	0	36478	
514	0	36576	
515	0	36688	
516	0	36820	
517	0	36972	
518	0	37076	
519	0	37164	
520	0	37272	
521	0	37428	
522	0	37536	
523	0	37632	
524	0	37720	
525	0	37816	
526	0	37952	
527	0	38064	
528	0	38172	
529	0	38284	
530	0	38384	
531	0	38504	
532	0	38650	
533	0	38778	
534	0	38908	
535	0	39044	
536	0	39144	
537	0	39276	
538	0	39424	
539	0	39556	
540	0	39700	
541	0	39880	
542	0	40076	
543	0	40240	
544	0	40368	
545	0	40480	
546	0	40564	
547	0	40632	
548	0	40712	
549	0	40760	
550	0	40832	
551	0	40924	
552	0	41020	
553	0	41092	
554	0	41128	
555	0	41176	
556	0	41264	
557	0	41332	
558	0	41372	
559	0	41400	
560	0	41440	
561	0	41488	
562	0	41532	
563	0	41580	
564	0	41604	
565	0	41604	
566	0	41616	
567	0	41604	
568	0	41592	
569	0	41580	
570	0	41600	
571	0	41600	
572	0	41594	
573	0	41588	
574	0	41548	
575	0	41472	
576	0	41404	
577	0	41340	
578	0	41236	
579	0	41144	
580	0	41100	
581	0	41044	
582	0	40984	
583	0	40928	
584	0	40840	
585	0	40724	
586	0	40592	
587	0	40416	
588	0	40202	
589	0	39992	
590	0	39776	
591	0	39576	
592	0	39344	
593	0	39080	
594	0	38816	
595	0	38568	
596	0	38328	
597	0	38100	
598	0	37880	
599	0	37644	
600	0	37400	
601	0	37128	
602	0	36872	
603	0	36596	
604	0	36284	
605	0	35952	
606	0	35618	
607	0	35332	
608	0	35024	
609	0	34696	
610	0	34408	
611	0	34124	
612	0	33824	
613	0	33516	
614	0	33228	
615	0	32948	
616	0	32648	
617	0	32340	
618	0	32052	
619	0	31780	
620	0	31524	
621	0	31292	
622	0	31068	
623	0	30818	
624	0	30552	
625	0	30300	
626	0	30020	
627	0	29764	
628	0	29528	
629	0	29272	
630	0	29040	
631	0	28832	
632	0	28628	
633	0	28420	
634	0	28222	
635	0	28032	
636	0	27840	
637	0	27684	
638	0	27556	
639	0	27412	
640	0	27284	
641	0	27140	
642	0	27024	
643	0	26920	
644	0	26824	
645	0	26754	
646	0	26696	
647	0	26616	
648	0	26520	
649	0	26440	
650	0	26350	
651	0	26216	
652	0	26112	
653	0	26056	
654	0	26008	
655	0	25968	
656	0	25932	
657	0	25909	
658	0	25896	
659	0	25876	
660	0	25892	
661	0	25912	
662	0	25908	
663	0	25902	
664	0	25932	
665	0	25900	
666	0	25918	
667	0	25928	
668	0	25920	
669	0	25900	
670	0	25908	
671	0	25922	
672	0	25920	
673	0	25952	
674	0	25972	
675	0	26024	
676	0	26074	
677	0	26114	
678	0	26140	
679	0	26182	
680	0	26252	
681	0	26300	
682	0	26364	
683	0	26396	
684	0	26396	
685	0	26408	
686	0	26404	
687	0	26404	
688	0	26424	
689	0	26440	
690	0	26448	
691	0	26474	
692	0	26540	
693	0	26600	
694	0	26664	
695	0	26688	
696	0	26732	
697	0	26772	
698	0	26800	
699	0	26832	
700	0	26874	
701	0	26884	
702	0	26944	
703	0	27004	
704	0	27056	
705	0	27072	
706	0	27088	
707	0	27116	
708	0	27136	
709	0	27152	
710	0	27200	
711	0	27236	
712	0	27320	
713	0	27400	
714	0	27450	
715	0	27508	
716	0	27552	
717	0	27628	
718	0	27712	
719	0	27768	
720	0	27828	
721	0	27880	
722	0	27928	
723	0	27944	
724	0	27992	
725	0	28038	
726	0	28088	
727	0	28096	
728	0	28160	
729	0	28220	
730	0	28296	
731	0	28354	
732	0	28404	
733	0	28444	
734	0	28508	
735	0	28568	
736	0	28616	
737	0	28692	
738	0	28752	
739	0	28824	
740	0	28920	
741	0	29012	
742	0	29076	
743	0	29100	
744	0	29112	
745	0	29148	
746	0	29252	
747	0	29346	
748	0	29424	
749	0	29472	
750	0	29472	
751	0	29490	
752	0	29548	
753	0	29632	
754	0	29696	
755	0	29772	
756	0	29832	
757	0	29856	
758	0	29888	
759	0	29914	
760	0	29984	
761	0	30056	
762	0	30116	
763	0	30144	
764	0	30148	
765	0	30138	
766	0	30116	
767	0	30100	
768	0	30126	
769	0	30208	
770	0	30250	
771	0	30308	
772	0	30364	
773	0	30424	
774	0	30472	
775	0	30528	
776	0	30604	
777	0	30690	
778	0	30726	
779	0	30768	
780	0	30768	
781	0	30776	
782	0	30814	
783	0	30832	
784	0	30830	
785	0	30828	
786	0	30812	
787	0	30792	
788	0	30800	
789	0	30824	
790	0	30828	
791	0	30860	
792	0	30896	
793	0	30912	
794	0	30896	
795	0	30914	
796	0	30968	
797	0	30992	
798	0	31016	
799	0	31036	
800	0	31072	
801	0	31092	
802	0	31084	
803	0	31064	
804	0	31060	
805	0	31088	
806	0	31100	
807	0	31092	
808	0	31136	
809	0	31144	
810	0	31146	
811	0	31136	
812	0	31124	
813	0	31100	
814	0	31092	
815	0	31088	
816	0	31096	
817	0	31100	
818	0	31120	
819	0	31152	
820	0	31172	
821	0	31204	
822	0	31216	
823	0	31212	
824	0	31176	
825	0	31144	
826	0	31120	
827	0	31120	
828	0	31132	
829	0	31108	
830	0	31128	
831	0	31140	
832	0	31076	
833	0	31052	
834	0	31084	
835	0	31144	
836	0	31164	
837	0	31156	
838	0	31168	
839	0	31192	
840	0	31200	
841	0	31212	
842	0	31208	
843	0	31192	
844	0	31196	
845	0	31180	
846	0	31168	
847	0	31180	
848	0	31196	
849	0	31196	
850	0	31204	
851	0	31264	
852	0	31258	
853	0	31226	
854	0	31232	
855	0	31232	
856	0	31212	
857	0	31204	
858	0	31224	
859	0	31256	
860	0	31256	
861	0	31248	
862	0	31232	
863	0	31272	
864	0	31324	
865	0	31356	
866	0	31364	
867	0	31376	
868	0	31416	
869	0	31408	
870	0	31404	
871	0	31416	
872	0	31448	
873	0	31484	
874	0	31520	
875	0	31516	
876	0	31496	
877	0	31464	
878	0	31448	
879	0	31456	
880	0	31446	
881	0	31424	
882	0	31388	
883	0	31356	
884	0	31340	
885	0	31364	
886	0	31400	
887	0	31448	
888	0	31472	
889	0	31480	
890	0	31484	
891	0	31486	
892	0	31504	
893	0	31528	
894	0	31516	
895	0	31548	
896	0	31552	
897	0	31552	
898	0	31568	
899	0	31586	
900	0	31620	
901	0	31650	
902	0	31656	
903	0	31684	
904	0	31684	
905	0	31696	
906	0	31736	
907	0	31716	
908	0	31698	
909	0	31724	
910	0	31740	
911	0	31724	
912	0	31732	
913	0	31740	
914	0	31736	
915	0	31748	
916	0	31792	
917	0	31792	
918	0	31776	
919	0	31808	
920	0	31856	
921	0	31920	
922	0	31940	
923	0	31960	
924	0	31960	
925	0	31960	
926	0	31956	
927	0	31980	
928	0	32000	
929	0	32024	
930	0	31982	
931	0	31984	
932	0	32008	
933	0	32000	
934	0	32020	
935	0	32070	
936	0	32073	
937	0	32096	
938	0	32146	
939	0	32176	
940	0	32156	
941	0	32184	
942	0	32216	
943	0	32208	
944	0	32176	
945	0	32164	
946	0	32140	
947	0	32168	
948	0	32208	
949	0	32212	
950	0	32226	
951	0	32218	
952	0	32228	
953	0	32248	
954	0	32262	
955	0	32268	
956	0	32280	
957	0	32276	
958	0	32286	
959	0	32308	
960	0	32308	
961	0	32304	
962	0	32320	
963	0	32388	
964	0	32444	
965	0	32484	
966	0	32488	
967	0	32440	
968	0	32424	
969	0	32416	
970	0	32392	
971	0	32372	
972	0	32380	
973	0	32356	
974	0	32352	
975	0	32344	
976	0	32372	
977	0	32392	
978	0	32452	
979	0	32532	
980	0	32568	
981	0	32600	
982	0	32600	
983	0	32598	
984	0	32606	
985	0	32592	
986	0	32596	
987	0	32612	
988	0	32628	
989	0	32644	
990	0	32652	
991	0	32620	
992	0	32616	
993	0	32584	
994	0	32576	
995	0	32576	
996	0	32600	
997	0	32618	
998	0	32636	
999	0	32660	
1000	0	32696	
1001	0	32708	
1002	0	32718	
1003	0	32720	
1004	0	32716	
1005	0	32712	
1006	0	32722	
1007	0	32752	
1008	0	32766	
1009	0	32806	
1010	0	32826	
1011	0	32832	
1012	0	32816	
1013	0	32792	
1014	0	32800	
1015	0	32804	
1016	0	32792	
1017	0	32848	
1018	0	32864	
1019	0	32908	
1020	0	32920	
1021	0	32928	
1022	0	32932	
1023	0	32922	
1024	0	32908	
1025	0	32892	
1026	0	32916	
1027	0	32940	
1028	0	32940	
1029	0	32924	
1030	0	32896	
1031	0	32896	
1032	0	32916	
1033	0	32932	
1034	0	32944	
1035	0	32920	
1036	0	32928	
1037	0	32960	
1038	0	32952	
1039	0	32972	
1040	0	32992	
1041	0	32986	
1042	0	33000	
1043	0	33016	
1044	0	33012	
1045	0	33002	
1046	0	33004	
1047	0	33012	
1048	0	33040	
1049	0	33056	
1050	0	33036	
1051	0	33000	
1052	0	33002	
1053	0	33016	
1054	0	33040	
1055	0	33048	
1056	0	33032	
1057	0	33008	
1058	0	33036	
1059	0	33056	
1060	0	33080	
1061	0	33096	
1062	0	33128	
1063	0	33168	
1064	0	33144	
1065	0	33132	
1066	0	33116	
1067	0	33088	
1068	0	33080	
1069	0	33068	
1070	0	33044	
1071	0	33064	
1072	0	33088	
1073	0	33112	
1074	0	33108	
1075	0	33096	
1076	0	33106	
1077	0	33116	
1078	0	33114	
1079	0	33096	
1080	0	33096	
1081	0	33108	
1082	0	33152	
1083	0	33168	
1084	0	33184	
1085	0	33188	
1086	0	33208	
1087	0	33200	
1088	0	33220	
1089	0	33196	
1090	0	33164	
1091	0	33184	
1092	0	33204	
1093	0	33224	
1094	0	33236	
1095	0	33236	
1096	0	33224	
1097	0	33208	
1098	0	33196	
1099	0	33220	
1100	0	33284	
1101	0	33328	
1102	0	33348	
1103	0	33372	
1104	0	33360	
1105	0	33328	
1106	0	33292	
1107	0	33292	
1108	0	33298	
1109	0	33300	
1110	0	33310	
1111	0	33328	
1112	0	33312	
1113	0	33288	
1114	0	33264	
1115	0	33188	
1116	0	33152	
1117	0	33120	
1118	0	33124	
1119	0	33152	
1120	0	33160	
1121	0	33148	
1122	0	33116	
1123	0	33104	
1124	0	33052	
1125	0	33032	
1126	0	33060	
1127	0	33072	
1128	0	33088	
1129	0	33076	
1130	0	33020	
1131	0	33016	
1132	0	33028	
1133	0	33052	
1134	0	33100	
1135	0	33176	
1136	0	33208	
1137	0	33224	
1138	0	33272	
1139	0	33340	
1140	0	33332	
1141	0	33332	
1142	0	33364	
1143	0	33392	
1144	0	33418	
1145	0	33440	
1146	0	33472	
1147	0	33549	
1148	0	33628	
1149	0	33776	
1150	0	33876	
1151	0	33944	
1152	0	33964	
1153	0	34048	
1154	0	34140	
1155	0	34256	
1156	0	34372	
1157	0	34420	
1158	0	34396	
1159	0	34324	
1160	0	34212	
1161	0	34136	
1162	0	34088	
1163	0	34084	
1164	0	34062	
1165	0	34040	
1166	0	33972	
1167	0	34004	
1168	0	34038	
1169	0	34050	
1170	0	34016	
1171	0	33968	
1172	0	33952	
1173	0	34012	
1174	0	34088	
1175	0	34148	
1176	0	34204	
1177	0	34244	
1178	0	34280	
1179	0	34300	
1180	0	34236	
1181	0	34184	
1182	0	34176	
1183	0	34204	
1184	0	34192	
1185	0	34188	
1186	0	34152	
1187	0	34050	
1188	0	33956	
1189	0	33816	
1190	0	33592	
1191	0	33316	
1192	0	33124	
1193	0	32960	
1194	0	32820	
1195	0	32728	
1196	0	32700	
1197	0	32728	
1198	0	32784	
1199	0	32850	
1200	0	32916	
1201	0	32944	
1202	0	32946	
1203	0	32944	
1204	0	32936	
1205	0	32892	
1206	0	32864	
1207	0	32844	
1208	0	32828	
1209	0	32864	
1210	0	32908	
1211	0	32908	
1212	0	32926	
1213	0	32976	
1214	0	33032	
1215	0	33044	
1216	0	33060	
1217	0	33092	
1218	0	33088	
1219	0	33100	
1220	0	33136	
1221	0	33178	
1222	0	33216	
1223	0	33242	
1224	0	33224	
1225	0	33228	
1226	0	33216	
1227	0	33244	
1228	0	33276	
1229	0	33316	
1230	0	33360	
1231	0	33364	
1232	0	33368	
1233	0	33388	
1234	0	33408	
1235	0	33420	
1236	0	33432	
1237	0	33460	
1238	0	33500	
1239	0	33564	
1240	0	33612	
1241	0	33628	
1242	0	33636	
1243	0	33640	
1244	0	33644	
1245	0	33630	
1246	0	33608	
1247	0	33564	
1248	0	33544	
1249	0	33512	
1250	0	33364	
1251	0	33156	
1252	0	32924	
1253	0	32572	
1254	0	32040	
1255	0	31380	
1256	0	30720	
1257	0	30196	
1258	0	29864	
1259	0	29664	
1260	0	29648	
1261	0	29818	
1262	0	30164	
1263	0	30716	
1264	0	31402	
1265	0	32204	
1266	0	33240	
1267	0	34432	
1268	0	35684	
1269	0	37156	
1270	0	38772	
1271	0	40680	
1272	0	42772	
1273	0	45112	
1274	0	47776	
1275	0	50528	
1276	0	53348	
1277	0	56260	
1278	0	59312	
1279	0	62144	
1280	0	63744	
1281	0	64564	
1282	0	64964	
1283	0	65120	
1284	0	65152	
1285	0	65100	
1286	0	65016	
1287	0	64920	
1288	0	64808	
1289	0	64684	
1290	0	64556	
1291	0	64420	
1292	0	64304	
1293	0	64172	
1294	0	64044	
1295	0	61368	
1296	0	54736	
1297	0	48320	
1298	0	42604	
1299	0	37660	
1300	0	33464	
1301	0	29960	
1302	0	27210	
1303	0	25264	
1304	0	24104	
1305	0	23508	
1306	0	23256	
1307	0	23096	
1308	0	22936	
1309	0	22740	
1310	0	22580	
1311	0	22524	
1312	0	22570	
1313	0	22636	
1314	0	22706	
1315	0	22848	
1316	0	23080	
1317	0	23388	
1318	0	23822	
1319	0	24492	
1320	0	25284	
1321	0	26028	
1322	0	26728	
1323	0	27320	
1324	0	27756	
1325	0	28084	
1326	0	28352	
1327	0	28564	
1328	0	28782	
1329	0	28988	
1330	0	29168	
1331	0	29264	
1332	0	29320	
1333	0	29312	
1334	0	29328	
1335	0	29336	
1336	0	29364	
1337	0	29436	
1338	0	29492	
1339	0	29492	
1340	0	29496	
1341	0	29516	
1342	0	29560	
1343	0	29602	
1344	0	29648	
1345	0	29704	
1346	0	29770	
1347	0	29832	
1348	0	29900	
1349	0	29976	
1350	0	30028	
1351	0	30048	
1352	0	30062	
1353	0	30076	
1354	0	30130	
1355	0	30176	
1356	0	30256	
1357	0	30316	
1358	0	30360	
1359	0	30420	
1360	0	30500	
1361	0	30556	
1362	0	30620	
1363	0	30704	
1364	0	30746	
1365	0	30772	
1366	0	30808	
1367	0	30836	
1368	0	30836	
1369	0	30876	
1370	0	30876	
1371	0	30860	
1372	0	30912	
1373	0	30996	
1374	0	31052	
1375	0	31060	
1376	0	31092	
1377	0	31140	
1378	0	31200	
1379	0	31256	
1380	0	31344	
1381	0	31412	
1382	0	31424	
1383	0	31468	
1384	0	31476	
1385	0	31500	
1386	0	31544	
1387	0	31564	
1388	0	31568	
1389	0	31614	
1390	0	31668	
1391	0	31692	
1392	0	31676	
1393	0	31708	
1394	0	31708	
1395	0	31776	
1396	0	31796	
1397	0	31824	
1398	0	31856	
1399	0	31908	
1400	0	31932	
1401	0	31956	
1402	0	32008	
1403	0	32064	
1404	0	32092	
1405	0	32108	
1406	0	32136	
1407	0	32164	
1408	0	32204	
1409	0	32250	
1410	0	32276	
1411	0	32304	
1412	0	32328	
1413	0	32320	
1414	0	32356	
1415	0	32420	
1416	0	32472	
1417	0	32512	
1418	0	32560	
1419	0	32592	
1420	0	32672	
1421	0	32748	
1422	0	32776	
1423	0	32760	
1424	0	32736	
1425	0	32760	
1426	0	32800	
1427	0	32824	
1428	0	32888	
1429	0	32952	
1430	0	32952	
1431	0	32964	
1432	0	32996	
1433	0	33038	
1434	0	33108	
1435	0	33120	
1436	0	33144	
1437	0	33208	
1438	0	33304	
1439	0	33356	
1440	0	33400	
1441	0	33464	
1442	0	33544	
1443	0	33616	
1444	0	33696	
1445	0	33740	
1446	0	33766	
1447	0	33776	
1448	0	33814	
1449	0	33830	
1450	0	33836	
1451	0	33864	
1452	0	33932	
1453	0	33962	
1454	0	34008	
1455	0	34094	
1456	0	34128	
1457	0	34196	
1458	0	34272	
1459	0	34364	
1460	0	34416	
1461	0	34448	
1462	0	34496	
1463	0	34582	
1464	0	34674	
1465	0	34768	
1466	0	34852	
1467	0	34900	
1468	0	34956	
1469	0	35076	
1470	0	35140	
1471	0	35172	
1472	0	35208	
1473	0	35252	
1474	0	35352	
1475	0	35418	
1476	0	35512	
1477	0	35628	
1478	0	35716	
1479	0	35768	
1480	0	35868	
1481	0	35976	
1482	0	36012	
1483	0	36136	
1484	0	36208	
1485	0	36296	
1486	0	36362	
1487	0	36496	
1488	0	36616	
1489	0	36745	
1490	0	36868	
1491	0	36928	
1492	0	37016	
1493	0	37092	
1494	0	37172	
1495	0	37268	
1496	0	37384	
1497	0	37544	
1498	0	37648	
1499	0	37748	
1500	0	37880	
1501	0	38020	
1502	0	38156	
1503	0	38292	
1504	0	38376	
1505	0	38484	
1506	0	38616	
1507	0	38732	
1508	0	38828	
1509	0	38932	
1510	0	39080	
1511	0	39214	
1512	0	39352	
1513	0	39492	
1514	0	39560	
1515	0	39696	
1516	0	39804	
1517	0	39920	
1518	0	40092	
1519	0	40236	
1520	0	40356	
1521	0	40496	
1522	0	40596	
1523	0	40712	
1524	0	40792	
1525	0	40864	
1526	0	40984	
1527	0	41056	
1528	0	41100	
1529	0	41160	
1530	0	41268	
1531	0	41312	
1532	0	41360	
1533	0	41396	
1534	0	41428	
1535	0	41450	
1536	0	41464	
1537	0	41508	
1538	0	41576	
1539	0	41612	
1540	0	41624	
1541	0	41656	
1542	0	41624	
1543	0	41608	
1544	0	41624	
1545	0	41608	
1546	0	41568	
1547	0	41576	
1548	0	41568	
1549	0	41520	
1550	0	41432	
1551	0	41326	
1552	0	41268	
1553	0	41216	
1554	0	41176	
1555	0	41108	
1556	0	41068	
1557	0	40984	
1558	0	40868	
1559	0	40736	
1560	0	40616	
1561	0	40492	
1562	0	40344	
1563	0	40184	
1564	0	40040	
1565	0	39848	
1566	0	39648	
1567	0	39468	
1568	0	39248	
1569	0	39010	
1570	0	38748	
1571	0	38458	
1572	0	38200	
1573	0	37920	
1574	0	37632	
1575	0	37392	
1576	0	37100	
1577	0	36814	
1578	0	36538	
1579	0	36244	
1580	0	35976	
1581	0	35716	
1582	0	35404	
1583	0	35068	
1584	0	34756	
1585	0	34464	
1586	0	34144	
1587	0	33836	
1588	0	33512	
1589	0	33216	
1590	0	32900	
1591	0	32604	
1592	0	32328	
1593	0	32064	
1594	0	31804	
1595	0	31552	
1596	0	31334	
1597	0	31068	
1598	0	30808	
1599	0	30552	
1600	0	30304	
1601	0	30072	
1602	0	29860	
1603	0	29608	
1604	0	29364	
1605	0	29140	
1606	0	28964	
1607	0	28768	
1608	0	28544	
1609	0	28320	
1610	0	28100	
1611	0	27932	
1612	0	27764	
1613	0	27610	
1614	0	27456	
1615	0	27284	
1616	0	27124	
1617	0	26970	
1618	0	26844	
1619	0	26742	
1620	0	26642	
1621	0	26548	
1622	0	26456	
1623	0	26369	
1624	0	26300	
1625	0	26238	
1626	0	26152	
1627	0	26116	
1628	0	26088	
1629	0	26028	
1630	0	25928	
1631	0	25840	
1632	0	25772	
1633	0	25732	
1634	0	25684	
1635	0	25645	
1636	0	25646	
1637	0	25646	
1638	0	25644	
1639	0	25656	
1640	0	25676	
1641	0	25640	
1642	0	25652	
1643	0	25672	
1644	0	25712	
1645	0	25744	
1646	0	25764	
1647	0	25765	
1648	0	25776	
1649	0	25802	
1650	0	25824	
1651	0	25824	
1652	0	25794	
1653	0	25788	
1654	0	25824	
1655	0	25880	
1656	0	25916	
1657	0	25956	
1658	0	25984	
1659	0	26044	
1660	0	26084	
1661	0	26100	
1662	0	26132	
1663	0	26160	
1664	0	26204	
1665	0	26272	
1666	0	26328	
1667	0	26376	
1668	0	26424	
1669	0	26448	
1670	0	26468	
1671	0	26488	
1672	0	26508	
1673	0	26552	
1674	0	26572	
1675	0	26598	
1676	0	26652	
1677	0	26692	
1678	0	26740	
1679	0	26780	
1680	0	26794	
1681	0	26842	
1682	0	26912	
1683	0	26970	
1684	0	27072	
1685	0	27152	
1686	0	27212	
1687	0	27280	
1688	0	27328	
1689	0	27348	
1690	0	27368	
1691	0	27410	
1692	0	27452	
1693	0	27508	
1694	0	27568	
1695	0	27612	
1696	0	27688	
1697	0	27740	
1698	0	27792	
1699	0	27842	
1700	0	27860	
1701	0	27904	
1702	0	27952	
1703	0	28000	
1704	0	28024	
1705	0	28076	
1706	0	28124	
1707	0	28172	
1708	0	28220	
1709	0	28224	
1710	0	28252	
1711	0	28268	
1712	0	28324	
1713	0	28368	
1714	0	28402	
1715	0	28452	
1716	0	28516	
1717	0	28576	
1718	0	28648	
1719	0	28698	
1720	0	28756	
1721	0	28816	
1722	0	28872	
1723	0	28948	
1724	0	29004	
1725	0	29060	
1726	0	29120	
1727	0	29152	
1728	0	29152	
1729	0	29172	
1730	0	29240	
1731	0	29294	
1732	0	29332	
1733	0	29368	
1734	0	29376	
1735	0	29368	
1736	0	29344	
1737	0	29372	
1738	0	29412	
1739	0	29484	
1740	0	29536	
1741	0	29628	
1742	0	29720	
1743	0	29752	
1744	0	29772	
1745	0	29796	
1746	0	29844	
1747	0	29872	
1748	0	29920	
1749	0	29968	
1750	0	29968	
1751	0	29972	
1752	0	29988	
1753	0	30004	
1754	0	30020	
1755	0	30034	
1756	0	30084	
1757	0	30112	
1758	0	30140	
1759	0	30160	
1760	0	30194	
1761	0	30248	
1762	0	30312	
1763	0	30324	
1764	0	30354	
1765	0	30368	
1766	0	30372	
1767	0	30392	
1768	0	30412	
1769	0	30420	
1770	0	30404	
1771	0	30418	
1772	0	30440	
1773	0	30456	
1774	0	30460	
1775	0	30468	
1776	0	30500	
1777	0	30536	
1778	0	30588	
1779	0	30612	
1780	0	30624	
1781	0	30620	
1782	0	30624	
1783	0	30644	
1784	0	30684	
1785	0	30724	
1786	0	30712	
1787	0	30696	
1788	0	30688	
1789	0	30684	
1790	0	30682	
1791	0	30668	
1792	0	30680	
1793	0	30676	
1794	0	30728	
1795	0	30754	
1796	0	30784	
1797	0	30792	
1798	0	30808	
1799	0	30828	
1800	0	30829	
1801	0	30852	
1802	0	30860	
1803	0	30864	
1804	0	30872	
1805	0	30890	
1806	0	30904	
1807	0	30920	
1808	0	30924	
1809	0	30928	
1810	0	30936	
1811	0	30944	
1812	0	30980	
1813	0	30988	
1814	0	30968	
1815	0	30952	
1816	0	30924	
1817	0	30960	
1818	0	31016	
1819	0	31036	
1820	0	31044	
1821	0	31036	
1822	0	31060	
1823	0	31056	
1824	0	31060	
1825	0	31040	
1826	0	31080	
1827	0	31128	
1828	0	31148	
1829	0	31140	
1830	0	31130	
1831	0	31120	
1832	0	31120	
1833	0	31092	
1834	0	31108	
1835	0	31136	
1836	0	31140	
1837	0	31168	
1838	0	31184	
1839	0	31196	
1840	0	31180	
1841	0	31146	
1842	0	31176	
1843	0	31184	
1844	0	31208	
1845	0	31240	
1846	0	31248	
1847	0	31256	
1848	0	31252	
1849	0	31232	
1850	0	31200	
1851	0	31160	
1852	0	31136	
1853	0	31120	
1854	0	31124	
1855	0	31156	
1856	0	31200	
1857	0	31236	
1858	0	31236	
1859	0	31232	
1860	0	31234	
1861	0	31220	
1862	0	31236	
1863	0	31266	
1864	0	31312	
1865	0	31328	
1866	0	31356	
1867	0	31372	
1868	0	31392	
1869	0	31386	
1870	0	31380	
1871	0	31396	
1872	0	31420	
1873	0	31424	
1874	0	31424	
1875	0	31440	
1876	0	31480	
1877	0	31528	
1878	0	31572	
1879	0	31584	
1880	0	31564	
1881	0	31572	
1882	0	31564	
1883	0	31576	
1884	0	31624	
1885	0	31636	
1886	0	31660	
1887	0	31688	
1888	0	31692	
1889	0	31740	
1890	0	31756	
1891	0	31748	
1892	0	31742	
1893	0	31720	
1894	0	31748	
1895	0	31760	
1896	0	31750	
1897	0	31764	
1898	0	31760	
1899	0	31720	
1900	0	31740	
1901	0	31746	
1902	0	31748	
1903	0	31772	
1904	0	31768	
1905	0	31764	
1906	0	31768	
1907	0	31776	
1908	0	31752	
1909	0	31732	
1910	0	31736	
1911	0	31712	
1912	0	31744	
1913	0	31758	
1914	0	31784	
1915	0	31792	
1916	0	31780	
1917	0	31794	
1918	0	31828	
1919	0	31876	
1920	0	31896	
1921	0	31930	
1922	0	31962	
1923	0	31956	
1924	0	31968	
1925	0	32008	
1926	0	32000	
1927	0	32008	
1928	0	32036	
1929	0	32056	
1930	0	32072	
1931	0	32084	
1932	0	32100	
1933	0	32128	
1934	0	32148	
1935	0	32132	
1936	0	32128	
1937	0	32168	
1938	0	32232	
1939	0	32262	
1940	0	32256	
1941	0	32260	
1942	0	32280	
1943	0	32280	
1944	0	32304	
1945	0	32360	
1946	0	32408	
1947	0	32460	
1948	0	32488	
1949	0	32496	
1950	0	32512	
1951	0	32520	
1952	0	32508	
1953	0	32544	
1954	0	32572	
1955	0	32560	
1956	0	32540	
1957	0	32516	
1958	0	32510	
1959	0	32528	
1960	0	32554	
1961	0	32580	
1962	0	32604	
1963	0	32576	
1964	0	32548	
1965	0	32512	
1966	0	32456	
1967	0	32404	
1968	0	32324	
1969	0	32224	
1970	0	32202	
1971	0	32216	
1972	0	32252	
1973	0	32264	
1974	0	32264	
1975	0	32268	
1976	0	32304	
1977	0	32324	
1978	0	32380	
1979	0	32424	
1980	0	32440	
1981	0	32452	
1982	0	32496	
1983	0	32586	
1984	0	32666	
1985	0	32724	
1986	0	32718	
1987	0	32704	
1988	0	32704	
1989	0	32718	
1990	0	32748	
1991	0	32760	
1992	0	32770	
1993	0	32736	
1994	0	32712	
1995	0	32680	
1996	0	32648	
1997	0	32650	
1998	0	32644	
1999	0	32652	
2000	0	32712	
2001	0	32740	
2002	0	32744	
2003	0	32736	
2004	0	32704	
2005	0	32700	
2006	0	32718	
2007	0	32728	
2008	0	32720	
2009	0	32720	
2010	0	32732	
2011	0	32736	
2012	0	32704	
2013	0	32648	
2014	0	32624	
2015	0	32592	
2016	0	32564	
2017	0	32552	
2018	0	32512	
2019	0	32544	
2020	0	32544	
2021	0	32512	
2022	0	32472	
2023	0	32484	
2024	0	32516	
2025	0	32512	
2026	0	32464	
2027	0	32448	
2028	0	32472	
2029	0	32508	
2030	0	32564	
2031	0	32622	
2032	0	32660	
2033	0	32708	
2034	0	32760	
2035	0	32772	
2036	0	32764	
2037	0	32794	
2038	0	32804	
2039	0	32832	
2040	0	32884	
2041	0	32908	
2042	0	32908	
2043	0	32928	
2044	0	32964	
2045	0	32996	
2046	0	33048	
2047	0	33084	
2048	0	33096	
2049	0	33104	
2050	0	33122	
2051	0	33068	
2052	0	32986	
2053	0	32896	
2054	0	32824	
2055	0	32792	
2056	0	32808	
2057	0	32824	
2058	0	32836	
2059	0	32824	
2060	0	32808	
2061	0	32846	
2062	0	32916	
2063	0	32968	
2064	0	32968	
2065	0	32984	
2066	0	33012	
2067	0	33042	
2068	0	33114	
2069	0	33164	
2070	0	33160	
2071	0	33056	
2072	0	32916	
2073	0	32820	
2074	0	32752	
2075	0	32728	
2076	0	32684	
2077	0	32660	
2078	0	32656	
2079	0	32672	
2080	0	32736	
2081	0	32796	
2082	0	32800	
2083	0	32828	
2084	0	32852	
2085	0	32864	
2086	0	32868	
2087	0	32880	
2088	0	32900	
2089	0	32952	
2090	0	32976	
2091	0	32980	
2092	0	32984	
2093	0	32964	
2094	0	32932	
2095	0	32904	
2096	0	32888	
2097	0	32892	
2098	0	32910	
2099	0	32890	
2100	0	32876	
2101	0	32860	
2102	0	32864	
2103	0	32840	
2104	0	32804	
2105	0	32820	
2106	0	32856	
2107	0	32924	
2108	0	32912	
2109	0	32900	
2110	0	32908	
2111	0	32916	
2112	0	32936	
2113	0	32960	
2114	0	32984	
2115	0	33002	
2116	0	33004	
2117	0	33008	
2118	0	32992	
2119	0	32960	
2120	0	32944	
2121	0	32956	
2122	0	32960	
2123	0	32992	
2124	0	32992	
2125	0	32968	
2126	0	32928	
2127	0	32912	
2128	0	32856	
2129	0	32812	
2130	0	32784	
2131	0	32772	
2132	0	32756	
2133	0	32752	
2134	0	32760	
2135	0	32760	
2136	0	32776	
2137	0	32832	
2138	0	32900	
2139	0	32952	
2140	0	33048	
2141	0	33108	
2142	0	33108	
2143	0	33084	
2144	0	33066	
2145	0	33128	
2146	0	33184	
2147	0	33208	
2148	0	33192	
2149	0	33192	
2150	0	33160	
2151	0	33120	
2152	0	33060	
2153	0	32992	
2154	0	32960	
2155	0	32956	
2156	0	32968	
2157	0	32976	
2158	0	32972	
2159	0	33012	
2160	0	33060	
2161	0	33104	
2162	0	33112	
2163	0	33132	
2164	0	33152	
2165	0	33176	
2166	0	33204	
2167	0	33176	
2168	0	33136	
2169	0	33108	
2170	0	33064	
2171	0	33048	
2172	0	33012	
2173	0	32996	
2174	0	33000	
2175	0	32972	
2176	0	32960	
2177	0	32980	
2178	0	33008	
2179	0	33040	
2180	0	33064	
2181	0	33064	
2182	0	33036	
2183	0	33020	
2184	0	33018	
2185	0	33020	
2186	0	33028	
2187	0	33024	
2188	0	33040	
2189	0	33064	
2190	0	33098	
2191	0	33132	
2192	0	33130	
2193	0	33104	
2194	0	33084	
2195	0	33070	
2196	0	33068	
2197	0	33072	
2198	0	33100	
2199	0	33148	
2200	0	33180	
2201	0	33232	
2202	0	33322	
2203	0	33388	
2204	0	33368	
2205	0	33312	
2206	0	33216	
2207	0	33160	
2208	0	33128	
2209	0	33088	
2210	0	33048	
2211	0	33024	
2212	0	32996	
2213	0	32968	
2214	0	32920	
2215	0	32840	
2216	0	32784	
2217	0	32802	
2218	0	32800	
2219	0	32800	
2220	0	32824	
2221	0	32832	
2222	0	32836	
2223	0	32852	
2224	0	32896	
2225	0	32954	
2226	0	33018	
2227	0	33092	
2228	0	33108	
2229	0	33088	
2230	0	32992	
2231	0	32904	
2232	0	32880	
2233	0	32944	
2234	0	32996	
2235	0	33072	
2236	0	33152	
2237	0	33210	
2238	0	33268	
2239	0	33400	
2240	0	33536	
2241	0	33660	
2242	0	33768	
2243	0	33832	
2244	0	33912	
2245	0	34028	
2246	0	34144	
2247	0	34272	
2248	0	34360	
2249	0	34348	
2250	0	34240	
2251	0	34128	
2252	0	34040	
2253	0	33984	
2254	0	33944	
2255	0	33896	
2256	0	33872	
2257	0	33848	
2258	0	33808	
2259	0	33780	
2260	0	33744	
2261	0	33728	
2262	0	33736	
2263	0	33772	
2264	0	33824	
2265	0	33848	
2266	0	33892	
2267	0	33976	
2268	0	34028	
2269	0	34008	
2270	0	33976	
2271	0	33914	
2272	0	33888	
2273	0	33792	
2274	0	33768	
2275	0	33772	
2276	0	33742	
2277	0	33676	
2278	0	33600	
2279	0	33536	
2280	0	33412	
2281	0	33232	
2282	0	33086	
2283	0	32928	
2284	0	32756	
2285	0	32628	
2286	0	32604	
2287	0	32576	
2288	0	32584	
2289	0	32606	
2290	0	32636	
2291	0	32652	
2292	0	32704	
2293	0	32752	
2294	0	32776	
2295	0	32784	
2296	0	32752	
2297	0	32732	
2298	0	32744	
2299	0	32748	
2300	0	32764	
2301	0	32752	
2302	0	32724	
2303	0	32696	
2304	0	32696	
2305	0	32720	
2306	0	32736	
2307	0	32736	
2308	0	32816	
2309	0	32864	
2310	0	32908	
2311	0	32944	
2312	0	32932	
2313	0	32892	
2314	0	32856	
2315	0	32868	
2316	0	32912	
2317	0	32906	
2318	0	32936	
2319	0	32984	
2320	0	32988	
2321	0	32984	
2322	0	32952	
2323	0	32920	
2324	0	32904	
2325	0	32896	
2326	0	32824	
2327	0	32800	
2328	0	32808	
2329	0	32824	
2330	0	32892	
2331	0	33000	
2332	0	33078	
2333	0	33080	
2334	0	33076	
2335	0	33092	
2336	0	33136	
2337	0	33156	
2338	0	33174	
2339	0	33152	
2340	0	33108	
2341	0	33000	
2342	0	32880	
2343	0	32688	
2344	0	32334	
2345	0	31824	
2346	0	31186	
2347	0	30544	
2348	0	30040	
2349	0	29738	
2350	0	29600	
2351	0	29632	
2352	0	29792	
2353	0	30160	
2354	0	30744	
2355	0	31392	
2356	0	32200	
2357	0	33236	
2358	0	34408	
2359	0	35653	
2360	0	37112	
2361	0	38796	
2362	0	40760	
2363	0	42916	
2364	0	45240	
2365	0	47888	
2366	0	50656	
2367	0	53476	
2368	0	56424	
2369	0	59540	
2370	0	62312	
2371	0	63872	
2372	0	64664	
2373	0	65040	
2374	0	65180	
2375	0	65224	
2376	0	65176	
2377	0	65080	
2378	0	64992	
2379	0	64868	
2380	0	64740	
2381	0	64632	
2382	0	64496	
2383	0	64360	
2384	0	64232	
2385	0	64112	
2386	0	59468	
2387	0	53156	
2388	0	47192	
2389	0	41884	
2390	0	37146	
2391	0	33108	
2392	0	29912	
2393	0	27568	
2394	0	25920	
2395	0	24968	
2396	0	24448	
2397	0	24070	
2398	0	23780	
2399	0	23548	
2400	0	23312	
2401	0	23116	
2402	0	22968	
2403	0	22888	
2404	0	22922	
2405	0	22976	
2406	0	23020	
2407	0	23032	
2408	0	23104	
2409	0	23216	
2410	0	23392	
2411	0	23634	
2412	0	24068	
2413	0	24732	
2414	0	25328	
2415	0	25876	
2416	0	26332	
2417	0	26732	
2418	0	27056	
2419	0	27348	
2420	0	27630	
2421	0	27948	
2422	0	28236	
2423	0	28494	
2424	0	28684	
2425	0	28860	
2426	0	28986	
2427	0	29076	
2428	0	29124	
2429	0	29148	
2430	0	29120	
2431	0	29138	
2432	0	29176	
2433	0	29210	
2434	0	29264	
2435	0	29344	
2436	0	29368	
2437	0	29304	
2438	0	29264	
2439	0	29252	
2440	0	29284	
2441	0	29352	
2442	0	29444	
2443	0	29500	
2444	0	29576	
2445	0	29656	
2446	0	29754	
2447	0	29900	
2448	0	29996	
2449	0	30036	
2450	0	30100	
2451	0	30220	
2452	0	30328	
2453	0	30344	
2454	0	30332	
2455	0	30340	
2456	0	30348	
2457	0	30336	
2458	0	30356	
2459	0	30380	
2460	0	30340	
2461	0	30332	
2462	0	30356	
2463	0	30436	
2464	0	30536	
2465	0	30660	
2466	0	30728	
2467	0	30792	
2468	0	30836	
2469	0	30892	
2470	0	30948	
2471	0	31032	
2472	0	31084	
2473	0	31088	
2474	0	31072	
2475	0	30980	
2476	0	30886	
2477	0	30858	
2478	0	30876	
2479	0	30966	
2480	0	31084	
2481	0	31164	
2482	0	31204	
2483	0	31264	
2484	0	31348	
2485	0	31396	
2486	0	31404	
2487	0	31412	
2488	0	31472	
2489	0	31480	
2490	0	31468	
2491	0	31516	
2492	0	31560	
2493	0	31580	
2494	0	31660	
2495	0	31744	
2496	0	31800	
2497	0	31832	
2498	0	31868	
2499	0	31876	
2500	0	31892	
2501	0	31960	
2502	0	32058	
2503	0	32128	
2504	0	32208	
2505	0	32272	
2506	0	32296	
2507	0	32358	
2508	0	32412	
2509	0	32480	
2510	0	32512	
2511	0	32516	
2512	0	32468	
2513	0	32416	
2514	0	32356	
2515	0	32328	
2516	0	32388	
2517	0	32500	
2518	0	32632	
2519	0	32728	
2520	0	32800	
2521	0	32798	
2522	0	32816	
2523	0	32828	
2524	0	32880	
2525	0	32916	
2526	0	32956	
2527	0	32992	
2528	0	33024	
2529	0	33048	
2530	0	33088	
2531	0	33152	
2532	0	33276	
2533	0	33384	
2534	0	33456	
2535	0	33504	
2536	0	33536	
2537	0	33544	
2538	0	33576	
2539	0	33640	
2540	0	33720	
2541	0	33784	
2542	0	33864	
2543	0	33920	
2544	0	33948	
2545	0	34020	
2546	0	34084	
2547	0	34092	
2548	0	34132	
2549	0	34208	
2550	0	34268	
2551	0	34336	
2552	0	34420	
2553	0	34460	
2554	0	34432	
2555	0	34436	
2556	0	34448	
2557	0	34468	
2558	0	34492	
2559	0	34508	
2560	0	34544	
2561	0	34594	
2562	0	34668	
2563	0	34752	
2564	0	34868	
2565	0	34984	
2566	0	35052	
2567	0	35104	
2568	0	35144	
2569	0	35208	
2570	0	35276	
2571	0	35364	
2572	0	35430	
2573	0	35480	
2574	0	35524	
2575	0	35588	
2576	0	35660	
2577	0	35724	
2578	0	35832	
2579	0	35956	
2580	0	36104	
2581	0	36228	
2582	0	36312	
2583	0	36416	
2584	0	36528	
2585	0	36680	
2586	0	36852	
2587	0	37008	
2588	0	37120	
2589	0	37228	
2590	0	37338	
2591	0	37440	
2592	0	37520	
2593	0	37600	
2594	0	37720	
2595	0	37824	
2596	0	37952	
2597	0	38008	
2598	0	38082	
2599	0	38180	
2600	0	38312	
2601	0	38472	
2602	0	38624	
2603	0	38712	
2604	0	38844	
2605	0	38984	
2606	0	39156	
2607	0	39280	
2608	0	39336	
2609	0	39416	
2610	0	39468	
2611	0	39504	
2612	0	39572	
2613	0	39668	
2614	0	39772	
2615	0	39880	
2616	0	40020	
2617	0	40192	
2618	0	40252	
2619	0	40320	
2620	0	40444	
2621	0	40600	
2622	0	40712	
2623	0	40796	
2624	0	40848	
2625	0	40888	
2626	0	40916	
2627	0	40936	
2628	0	40932	
2629	0	40892	
2630	0	40816	
2631	0	40748	
2632	0	40708	
2633	0	40656	
2634	0	40592	
2635	0	40548	
2636	0	40596	
2637	0	40640	
2638	0	40648	
2639	0	40612	
2640	0	40544	
2641	0	40512	
2642	0	40464	
2643	0	40460	
2644	0	40456	
2645	0	40412	
2646	0	40368	
2647	0	40346	
2648	0	40332	
2649	0	40328	
2650	0	40324	
2651	0	40308	
2652	0	40272	
2653	0	40260	
2654	0	40204	
2655	0	40060	
2656	0	39920	
2657	0	39764	
2658	0	39592	
2659	0	39392	
2660	0	39176	
2661	0	38980	
2662	0	38752	
2663	0	38504	
2664	0	38216	
2665	0	37936	
2666	0	37700	
2667	0	37432	
2668	0	37152	
2669	0	36880	
2670	0	36612	
2671	0	36352	
2672	0	36128	
2673	0	35888	
2674	0	35632	
2675	0	35388	
2676	0	35148	
2677	0	34932	
2678	0	34714	
2679	0	34468	
2680	0	34178	
2681	0	33864	
2682	0	33554	
2683	0	33204	
2684	0	32872	
2685	0	32536	
2686	0	32226	
2687	0	31952	
2688	0	31688	
2689	0	31488	
2690	0	31250	
2691	0	31008	
2692	0	30784	
2693	0	30544	
2694	0	30328	
2695	0	30104	
2696	0	29872	
2697	0	29654	
2698	0	29472	
2699	0	29292	
2700	0	29148	
2701	0	28988	
2702	0	28804	
2703	0	28620	
2704	0	28424	
2705	0	28236	
2706	0	28096	
2707	0	27932	
2708	0	27748	
2709	0	27560	
2710	0	27408	
2711	0	27272	
2712	0	27132	
2713	0	27004	
2714	0	26868	
2715	0	26772	
2716	0	26724	
2717	0	26710	
2718	0	26712	
2719	0	26724	
2720	0	26712	
2721	0	26634	
2722	0	26572	
2723	0	26544	
2724	0	26528	
2725	0	26480	
2726	0	26404	
2727	0	26364	
2728	0	26326	
2729	0	26280	
2730	0	26256	
2731	0	26240	
2732	0	26192	
2733	0	26148	
2734	0	26096	
2735	0	26030	
2736	0	25984	
2737	0	25976	
2738	0	25968	
2739	0	25944	
2740	0	25944	
2741	0	25932	
2742	0	25932	
2743	0	25938	
2744	0	25928	
2745	0	25966	
2746	0	26024	
2747	0	26116	
2748	0	26160	
2749	0	26200	
2750	0	26240	
2751	0	26232	
2752	0	26220	
2753	0	26256	
2754	0	26304	
2755	0	26368	
2756	0	26440	
2757	0	26504	
2758	0	26562	
2759	0	26605	
2760	0	26680	
2761	0	26724	
2762	0	26760	
2763	0	26826	
2764	0	26888	
2765	0	26948	
2766	0	27020	
2767	0	27034	
2768	0	27048	
2769	0	27040	
2770	0	27044	
2771	0	27064	
2772	0	27100	
2773	0	27124	
2774	0	27156	
2775	0	27178	
2776	0	27184	
2777	0	27192	
2778	0	27224	
2779	0	27244	
2780	0	27284	
2781	0	27324	
2782	0	27380	
2783	0	27432	
2784	0	27472	
2785	0	27532	
2786	0	27612	
2787	0	27700	
2788	0	27760	
2789	0	27804	
2790	0	27856	
2791	0	27936	
2792	0	27972	
2793	0	28036	
2794	0	28092	
2795	0	28164	
2796	0	28228	
2797	0	28260	
2798	0	28292	
2799	0	28344	
2800	0	28384	
2801	0	28416	
2802	0	28472	
2803	0	28504	
2804	0	28540	
2805	0	28600	
2806	0	28666	
2807	0	28696	
2808	0	28764	
2809	0	28812	
2810	0	28888	
2811	0	28968	
2812	0	29036	
2813	0	29088	
2814	0	29148	
2815	0	29154	
2816	0	29192	
2817	0	29228	
2818	0	29280	
2819	0	29340	
2820	0	29392	
2821	0	29420	
2822	0	29464	
2823	0	29532	
2824	0	29564	
2825	0	29600	
2826	0	29640	
2827	0	29676	
2828	0	29724	
2829	0	29728	
2830	0	29720	
2831	0	29722	
2832	0	29728	
2833	0	29716	
2834	0	29712	
2835	0	29708	
2836	0	29708	
2837	0	29716	
2838	0	29742	
2839	0	29780	
2840	0	29792	
2841	0	29808	
2842	0	29844	
2843	0	29912	
2844	0	29964	
2845	0	30044	
2846	0	30128	
2847	0	30172	
2848	0	30240	
2849	0	30284	
2850	0	30336	
2851	0	30356	
2852	0	30370	
2853	0	30376	
2854	0	30372	
2855	0	30356	
2856	0	30352	
2857	0	30340	
2858	0	30340	
2859	0	30352	
2860	0	30372	
2861	0	30396	
2862	0	30404	
2863	0	30388	
2864	0	30424	
2865	0	30464	
2866	0	30528	
2867	0	30580	
2868	0	30620	
2869	0	30656	
2870	0	30698	
2871	0	30768	
2872	0	30792	
2873	0	30770	
2874	0	30780	
2875	0	30760	
2876	0	30736	
2877	0	30700	
2878	0	30656	
2879	0	30648	
2880	0	30656	
2881	0	30682	
2882	0	30700	
2883	0	30716	
2884	0	30748	
2885	0	30804	
2886	0	30836	
2887	0	30864	
2888	0	30868	
2889	0	30872	
2890	0	30872	
2891	0	30864	
2892	0	30852	
2893	0	30836	
2894	0	30832	
2895	0	30852	
2896	0	30852	
2897	0	30860	
2898	0	30888	
2899	0	30928	
2900	0	30928	
2901	0	30916	
2902	0	30876	
2903	0	30870	
2904	0	30880	
2905	0	30872	
2906	0	30872	
2907	0	30872	
2908	0	30856	
2909	0	30852	
2910	0	30832	
2911	0	30804	
2912	0	30784	
2913	0	30778	
2914	0	30792	
2915	0	30788	
2916	0	30820	
2917	0	30836	
2918	0	30852	
2919	0	30836	
2920	0	30816	
2921	0	30840	
2922	0	30868	
2923	0	30884	
2924	0	30916	
2925	0	30960	
2926	0	30980	
2927	0	31004	
2928	0	31040	
2929	0	31072	
2930	0	31060	
2931	0	31040	
2932	0	31036	
2933	0	30976	
2934	0	30912	
2935	0	30888	
2936	0	30888	
2937	0	30928	
2938	0	30928	
2939	0	30928	
2940	0	30932	
2941	0	30932	
2942	0	30924	
2943	0	30974	
2944	0	30996	
2945	0	31036	
2946	0	31076	
2947	0	31108	
2948	0	31140	
2949	0	31144	
2950	0	31164	
2951	0	31200	
2952	0	31194	
2953	0	31212	
2954	0	31236	
2955	0	31256	
2956	0	31264	
2957	0	31276	
2958	0	31264	
2959	0	31264	
2960	0	31264	
2961	0	31260	
2962	0	31264	
2963	0	31296	
2964	0	31332	
2965	0	31360	
2966	0	31372	
2967	0	31376	
2968	0	31412	
2969	0	31416	
2970	0	31424	
2971	0	31436	
2972	0	31456	
2973	0	31436	
2974	0	31412	
2975	0	31368	
2976	0	31344	
2977	0	31368	
2978	0	31364	
2979	0	31360	
2980	0	31368	
2981	0	31388	
2982	0	31392	
2983	0	31394	
2984	0	31374	
2985	0	31348	
2986	0	31340	
2987	0	31336	
2988	0	31324	
2989	0	31340	
2990	0	31364	
2991	0	31416	
2992	0	31464	
2993	0	31504	
2994	0	31506	
2995	0	31508	
2996	0	31520	
2997	0	31524	
2998	0	31538	
2999	0	31548	
3000	0	31520	
3001	0	31504	
3002	0	31512	
3003	0	31544	
3004	0	31568	
3005	0	31600	
3006	0	31636	
3007	0	31648	
3008	0	31660	
3009	0	31660	
3010	0	31676	
3011	0	31708	
3012	0	31732	
3013	0	31728	
3014	0	31734	
3015	0	31736	
3016	0	31760	
3017	0	31784	
3018	0	31824	
3019	0	31856	
3020	0	31880	
3021	0	31912	
3022	0	31980	
3023	0	32034	
3024	0	32096	
3025	0	32118	
3026	0	32132	
3027	0	32156	
3028	0	32176	
3029	0	32176	
3030	0	32148	
3031	0	32124	
3032	0	32090	
3033	0	32096	
3034	0	32104	
3035	0	32112	
3036	0	32082	
3037	0	32094	
3038	0	32100	
3039	0	32112	
3040	0	32136	
3041	0	32188	
3042	0	32230	
3043	0	32256	
3044	0	32264	
3045	0	32256	
3046	0	32248	
3047	0	32264	
3048	0	32264	
3049	0	32272	
3050	0	32276	
3051	0	32280	
3052	0	32288	
3053	0	32280	
3054	0	32296	
3055	0	32300	
3056	0	32298	
3057	0	32320	
3058	0	32336	
3059	0	32348	
3060	0	32330	
3061	0	32320	
3062	0	32312	
3063	0	32360	
3064	0	32388	
3065	0	32388	
3066	0	32388	
3067	0	32394	
3068	0	32376	
3069	0	32400	
3070	0	32412	
3071	0	32408	
3072	0	32388	
3073	0	32388	
3074	0	32380	
3075	0	32400	
3076	0	32422	
3077	0	32440	
3078	0	32438	
3079	0	32440	
3080	0	32440	
3081	0	32444	
3082	0	32444	
3083	0	32464	
3084	0	32476	
3085	0	32512	
3086	0	32544	
3087	0	32548	
3088	0	32565	
3089	0	32596	
3090	0	32578	
3091	0	32578	
3092	0	32580	
3093	0	32572	
3094	0	32548	
3095	0	32566	
3096	0	32600	
3097	0	32620	
3098	0	32652	
3099	0	32636	
3100	0	32648	
3101	0	32676	
3102	0	32696	
3103	0	32704	
3104	0	32744	
3105	0	32756	
3106	0	32740	
3107	0	32704	
3108	0	32666	
3109	0	32652	
3110	0	32626	
3111	0	32636	
3112	0	32628	
3113	0	32652	
3114	0	32684	
3115	0	32700	
3116	0	32716	
3117	0	32720	
3118	0	32728	
3119	0	32736	
3120	0	32736	
3121	0	32692	
3122	0	32664	
3123	0	32672	
3124	0	32704	
3125	0	32704	
3126	0	32752	
3127	0	32800	
3128	0	32836	
3129	0	32828	
3130	0	32808	
3131	0	32772	
3132	0	32768	
3133	0	32780	
3134	0	32800	
3135	0	32804	
3136	0	32812	
3137	0	32830	
3138	0	32808	
3139	0	32808	
3140	0	32828	
3141	0	32848	
3142	0	32900	
3143	0	32920	
3144	0	32908	
3145	0	32904	
3146	0	32908	
3147	0	32916	
3148	0	32946	
3149	0	32956	
3150	0	32992	
3151	0	32988	
3152	0	32996	
3153	0	33024	
3154	0	33032	
3155	0	33020	
3156	0	33024	
3157	0	33040	
3158	0	33056	
3159	0	33082	
3160	0	33076	
3161	0	33076	
3162	0	33068	
3163	0	33088	
3164	0	33108	
3165	0	33124	
3166	0	33140	
3167	0	33100	
3168	0	33012	
3169	0	32952	
3170	0	32924	
3171	0	32884	
3172	0	32840	
3173	0	32812	
3174	0	32796	
3175	0	32778	
3176	0	32764	
3177	0	32764	
3178	0	32776	
3179	0	32804	
3180	0	32860	
3181	0	32920	
3182	0	32940	
3183	0	32992	
3184	0	33020	
3185	0	33068	
3186	0	33088	
3187	0	33088	
3188	0	33064	
3189	0	32996	
3190	0	32892	
3191	0	32804	
3192	0	32758	
3193	0	32760	
3194	0	32736	
3195	0	32736	
3196	0	32730	
3197	0	32704	
3198	0	32664	
3199	0	32656	
3200	0	32692	
3201	0	32752	
3202	0	32824	
3203	0	32896	
3204	0	32948	
3205	0	32976	
3206	0	32984	
3207	0	33008	
3208	0	33028	
3209	0	33052	
3210	0	33104	
3211	0	33160	
3212	0	33204	
3213	0	33170	
3214	0	33132	
3215	0	33112	
3216	0	33112	
3217	0	33140	
3218	0	33144	
3219	0	33216	
3220	0	33280	
3221	0	33336	
3222	0	33384	
3223	0	33456	
3224	0	33556	
3225	0	33592	
3226	0	33624	
3227	0	33714	
3228	0	33820	
3229	0	33896	
3230	0	33978	
3231	0	34024	
3232	0	33996	
3233	0	33916	
3234	0	33834	
3235	0	33768	
3236	0	33716	
3237	0	33700	
3238	0	33708	
3239	0	33720	
3240	0	33716	
3241	0	33712	
3242	0	33712	
3243	0	33748	
3244	0	33788	
3245	0	33824	
3246	0	33852	
3247	0	33900	
3248	0	33936	
3249	0	33976	
3250	0	34016	
3251	0	34048	
3252	0	34064	
3253	0	34068	
3254	0	34036	
3255	0	33960	
3256	0	33916	
3257	0	33920	
3258	0	33956	
3259	0	33956	
3260	0	33936	
3261	0	33908	
3262	0	33868	
3263	0	33772	
3264	0	33612	
3265	0	33396	
3266	0	33172	
3267	0	32940	
3268	0	32736	
3269	0	32638	
3270	0	32622	
3271	0	32628	
3272	0	32640	
3273	0	32648	
3274	0	32620	
3275	0	32624	
3276	0	32664	
3277	0	32672	
3278	0	32676	
3279	0	32688	
3280	0	32736	
3281	0	32764	
3282	0	32764	
3283	0	32816	
3284	0	32864	
3285	0	32926	
3286	0	32954	
3287	0	32954	
3288	0	32944	
3289	0	32940	
3290	0	32952	
3291	0	32948	
3292	0	32928	
3293	0	32948	
3294	0	32980	
3295	0	33016	
3296	0	33066	
3297	0	33088	
3298	0	33104	
3299	0	33128	
3300	0	33158	
3301	0	33184	
3302	0	33232	
3303	0	33264	
3304	0	33296	
3305	0	33328	
3306	0	33336	
3307	0	33348	
3308	0	33344	
3309	0	33378	
3310	0	33428	
3311	0	33436	
3312	0	33480	
3313	0	33496	
3314	0	33504	
3315	0	33468	
3316	0	33456	
3317	0	33442	
3318	0	33422	
3319	0	33412	
3320	0	33428	
3321	0	33392	
3322	0	33300	
3323	0	33152	
3324	0	32960	
3325	0	32672	
3326	0	32248	
3327	0	31670	
3328	0	31032	
3329	0	30404	
3330	0	29908	
3331	0	29580	
3332	0	29428	
3333	0	29500	
3334	0	29704	
3335	0	30112	
3336	0	30716	
3337	0	31405	
3338	0	32324	
3339	0	33488	
3340	0	34744	
3341	0	36080	
3342	0	37612	
3343	0	39364	
3344	0	41368	
3345	0	43576	
3346	0	46056	
3347	0	48776	
3348	0	51576	
3349	0	54440	
3350	0	57472	
3351	0	60640	
3352	0	63184	
3353	0	64528	
3354	0	65224	
3355	0	65532	
3356	0	65535	
3357	0	65535	
3358	0	65535	
3359	0	65535	
3360	0	65408	
3361	0	65296	
3362	0	65160	
3363	0	65008	
3364	0	64892	
3365	0	64760	
3366	0	64632	
3367	0	64500	
3368	0	60728	
3369	0	54052	
3370	0	47736	
3371	0	42168	
3372	0	37292	
3373	0	33132	
3374	0	29736	
3375	0	27112	
3376	0	25306	
3377	0	24320	
3378	0	23832	
3379	0	23540	
3380	0	23292	
3381	0	23092	
3382	0	22904	
3383	0	22748	
3384	0	22688	
3385	0	22756	
3386	0	22880	
3387	0	22988	
3388	0	23172	
3389	0	23424	
3390	0	23774	
3391	0	24266	
3392	0	24928	
3393	0	25616	
3394	0	26252	
3395	0	26856	
3396	0	27384	
3397	0	27828	
3398	0	28152	
3399	0	28396	
3400	0	28588	
3401	0	28792	
3402	0	29010	
3403	0	29192	
3404	0	29328	
3405	0	29408	
3406	0	29432	
3407	0	29408	
3408	0	29392	
3409	0	29388	
3410	0	29416	
3411	0	29432	
3412	0	29444	
3413	0	29460	
3414	0	29488	
3415	0	29536	
3416	0	29560	
3417	0	29624	
3418	0	29680	
3419	0	29728	
3420	0	29796	
3421	0	29860	
3422	0	29912	
3423	0	29968	
3424	0	30002	
3425	0	30048	
3426	0	30128	
3427	0	30220	
3428	0	30268	
3429	0	30312	
3430	0	30344	
3431	0	30364	
3432	0	30392	
3433	0	30420	
3434	0	30452	
3435	0	30480	
3436	0	30508	
3437	0	30564	
3438	0	30596	
3439	0	30624	
3440	0	30656	
3441	0	30698	
3442	0	30752	
3443	0	30816	
3444	0	30916	
3445	0	30992	
3446	0	31052	
3447	0	31108	
3448	0	31160	
3449	0	31176	
3450	0	31212	
3451	0	31240	
3452	0	31264	
3453	0	31304	
3454	0	31344	
3455	0	31384	
3456	0	31424	
3457	0	31458	
3458	0	31498	
3459	0	31536	
3460	0	31620	
3461	0	31668	
3462	0	31708	
3463	0	31740	
3464	0	31788	
3465	0	31808	
3466	0	31832	
3467	0	31868	
3468	0	31904	
3469	0	31924	
3470	0	31948	
3471	0	31996	
3472	0	32044	
3473	0	32084	
3474	0	32128	
3475	0	32156	
3476	0	32188	
3477	0	32232	
3478	0	32292	
3479	0	32348	
3480	0	32376	
3481	0	32412	
3482	0	32432	
3483	0	32496	
3484	0	32533	
3485	0	32568	
3486	0	32592	
3487	0	32624	
3488	0	32672	
3489	0	32708	
3490	0	32720	
3491	0	32744	
3492	0	32784	
3493	0	32816	
3494	0	32824	
3495	0	32828	
3496	0	32858	
3497	0	32890	
3498	0	32928	
3499	0	32960	
3500	0	32992	
3501	0	33052	
3502	0	33136	
3503	0	33200	
3504	0	33248	
3505	0	33280	
3506	0	33328	
3507	0	33392	
3508	0	33432	
3509	0	33456	
3510	0	33498	
3511	0	33520	
3512	0	33556	
3513	0	33600	
3514	0	33668	
3515	0	33712	
3516	0	33748	
3517	0	33796	
3518	0	33816	
3519	0	33836	
3520	0	33856	
3521	0	33886	
3522	0	33948	
3523	0	34026	
3524	0	34116	
3525	0	34200	
3526	0	34276	
3527	0	34336	
3528	0	34400	
3529	0	34440	
3530	0	34464	
3531	0	34500	
3532	0	34548	
3533	0	34588	
3534	0	34608	
3535	0	34624	
3536	0	34700	
3537	0	34772	
3538	0	34836	
3539	0	34904	
3540	0	34968	
3541	0	35060	
3542	0	35164	
3543	0	35240	
3544	0	35312	
3545	0	35384	
3546	0	35472	
3547	0	35564	
3548	0	35632	
3549	0	35688	
3550	0	35760	
3551	0	35816	
3552	0	35892	
3553	0	35988	
3554	0	36096	
3555	0	36180	
3556	0	36256	
3557	0	36360	
3558	0	36436	
3559	0	36540	
3560	0	36640	
3561	0	36704	
3562	0	36800	
3563	0	36920	
3564	0	37034	
3565	0	37184	
3566	0	37292	
3567	0	37412	
3568	0	37512	
3569	0	37644	
3570	0	37764	
3571	0	37848	
3572	0	37960	
3573	0	38028	
3574	0	38120	
3575	0	38224	
3576	0	38324	
3577	0	38456	
3578	0	38596	
3579	0	38742	
3580	0	38880	
3581	0	39028	
3582	0	39160	
3583	0	39312	
3584	0	39482	
3585	0	39596	
3586	0	39748	
3587	0	39858	
3588	0	39968	
3589	0	40064	
3590	0	40152	
3591	0	40260	
3592	0	40388	
3593	0	40504	
3594	0	40608	
3595	0	40692	
3596	0	40800	
3597	0	40904	
3598	0	40992	
3599	0	41076	
3600	0	41184	
3601	0	41272	
3602	0	41340	
3603	0	41428	
3604	0	41500	
3605	0	41572	
3606	0	41640	
3607	0	41688	
3608	0	41736	
3609	0	41744	
3610	0	41764	
3611	0	41792	
3612	0	41808	
3613	0	41840	
3614	0	41864	
3615	0	41856	
3616	0	41836	
3617	0	41840	
3618	0	41828	
3619	0	41792	
3620	0	41768	
3621	0	41740	
3622	0	41728	
3623	0	41684	
3624	0	41640	
3625	0	41568	
3626	0	41508	
3627	0	41452	
3628	0	41384	
3629	0	41288	
3630	0	41184	
3631	0	41080	
3632	0	40976	
3633	0	40836	
3634	0	40684	
3635	0	40512	
3636	0	40350	
3637	0	40196	
3638	0	40052	
3639	0	39872	
3640	0	39660	
3641	0	39416	
3642	0	39144	
3643	0	38900	
3644	0	38696	
3645	0	38506	
3646	0	38272	
3647	0	37992	
3648	0	37704	
3649	0	37424	
3650	0	37140	
3651	0	36836	
3652	0	36522	
3653	0	36190	
3654	0	35868	
3655	0	35568	
3656	0	35256	
3657	0	34948	
3658	0	34652	
3659	0	34340	
3660	0	34036	
3661	0	33712	
3662	0	33400	
3663	0	33110	
3664	0	32844	
3665	0	32580	
3666	0	32320	
3667	0	32068	
3668	0	31800	
3669	0	31500	
3670	0	31200	
3671	0	30900	
3672	0	30636	
3673	0	30396	
3674	0	30176	
3675	0	29952	
3676	0	29724	
3677	0	29480	
3678	0	29240	
3679	0	29032	
3680	0	28824	
3681	0	28646	
3682	0	28480	
3683	0	28320	
3684	0	28160	
3685	0	28012	
3686	0	27852	
3687	0	27664	
3688	0	27504	
3689	0	27408	
3690	0	27272	
3691	0	27136	
3692	0	27008	
3693	0	26884	
3694	0	26778	
3695	0	26676	
3696	0	26568	
3697	0	26488	
3698	0	26408	
3699	0	26328	
3700	0	26236	
3701	0	26164	
3702	0	26136	
3703	0	26088	
3704	0	26048	
3705	0	26000	
3706	0	26000	
3707	0	25996	
3708	0	25990	
3709	0	25972	
3710	0	25976	
3711	0	25960	
3712	0	25928	
3713	0	25896	
3714	0	25880	
3715	0	25880	
3716	0	25882	
3717	0	25872	
3718	0	25876	
3719	0	25880	
3720	0	25860	
3721	0	25856	
3722	0	25856	
3723	0	25876	
3724	0	25952	
3725	0	25992	
3726	0	26024	
3727	0	26068	
3728	0	26090	
3729	0	26112	
3730	0	26144	
3731	0	26184	
3732	0	26212	
3733	0	26256	
3734	0	26300	
3735	0	26340	
3736	0	26336	
3737	0	26356	
3738	0	26376	
3739	0	26428	
3740	0	26496	
3741	0	26544	
3742	0	26576	
3743	0	26600	
3744	0	26612	
3745	0	26668	
3746	0	26716	
3747	0	26762	
3748	0	26792	
3749	0	26848	
3750	0	26884	
3751	0	26936	
3752	0	26988	
3753	0	27028	
3754	0	27060	
3755	0	27072	
3756	0	27116	
3757	0	27136	
3758	0	27180	
3759	0	27216	
3760	0	27268	
3761	0	27324	
3762	0	27374	
3763	0	27412	
3764	0	27456	
3765	0	27520	
3766	0	27552	
3767	0	27590	
3768	0	27628	
3769	0	27660	
3770	0	27688	
3771	0	27748	
3772	0	27798	
3773	0	27848	
3774	0	27886	
3775	0	27904	
3776	0	27940	
3777	0	28016	
3778	0	28094	
3779	0	28176	
3780	0	28248	
3781	0	28320	
3782	0	28388	
3783	0	28420	
3784	0	28480	
3785	0	28544	
3786	0	28592	
3787	0	28658	
3788	0	28708	
3789	0	28748	
3790	0	28760	
3791	0	28768	
3792	0	28812	
3793	0	28896	
3794	0	28952	
3795	0	28992	
3796	0	29080	
3797	0	29168	
3798	0	29252	
3799	0	29296	
3800	0	29328	
3801	0	29376	
3802	0	29440	
3803	0	29492	
3804	0	29510	
3805	0	29532	
3806	0	29600	
3807	0	29652	
3808	0	29700	
3809	0	29760	
3810	0	29814	
3811	0	29836	
3812	0	29840	
3813	0	29892	
3814	0	29936	
3815	0	29936	
3816	0	29962	
3817	0	29976	
3818	0	29988	
3819	0	30020	
3820	0	30032	
3821	0	30042	
3822	0	30072	
3823	0	30132	
3824	0	30192	
3825	0	30248	
3826	0	30298	
3827	0	30340	
3828	0	30396	
3829	0	30420	
3830	0	30440	
3831	0	30456	
3832	0	30480	
3833	0	30496	
3834	0	30516	
3835	0	30544	
3836	0	30588	
3837	0	30616	
3838	0	30648	
3839	0	30658	
3840	0	30664	
3841	0	30680	
3842	0	30712	
3843	0	30740	
3844	0	30752	
3845	0	30780	
3846	0	30794	
3847	0	30784	
3848	0	30804	
3849	0	30812	
3850	0	30844	
3851	0	30840	
3852	0	30838	
3853	0	30828	
3854	0	30844	
3855	0	30840	
3856	0	30856	
3857	0	30884	
3858	0	30904	
3859	0	30908	
3860	0	30920	
3861	0	30956	
3862	0	30992	
3863	0	31032	
3864	0	31032	
3865	0	31054	
3866	0	31068	
3867	0	31064	
3868	0	31060	
3869	0	31036	
3870	0	30988	
3871	0	30940	
3872	0	30928	
3873	0	30928	
3874	0	30952	
3875	0	30984	
3876	0	31004	
3877	0	31040	
3878	0	31038	
3879	0	31024	
3880	0	31020	
3881	0	31012	
3882	0	31016	
3883	0	31064	
3884	0	31096	
3885	0	31130	
3886	0	31116	
3887	0	31124	
3888	0	31136	
3889	0	31144	
3890	0	31164	
3891	0	31160	
3892	0	31136	
3893	0	31124	
3894	0	31108	
3895	0	31088	
3896	0	31076	
3897	0	31076	
3898	0	31088	
3899	0	31088	
3900	0	31084	
3901	0	31084	
3902	0	31112	
3903	0	31120	
3904	0	31128	
3905	0	31120	
3906	0	31148	
3907	0	31196	
3908	0	31244	
3909	0	31256	
3910	0	31252	
3911	0	31220	
3912	0	31210	
3913	0	31240	
3914	0	31260	
3915	0	31268	
3916	0	31248	
3917	0	31276	
3918	0	31296	
3919	0	31256	
3920	0	31252	
3921	0	31242	
3922	0	31264	
3923	0	31272	
3924	0	31308	
3925	0	31332	
3926	0	31356	
3927	0	31350	
3928	0	31332	
3929	0	31378	
3930	0	31432	
3931	0	31456	
3932	0	31488	
3933	0	31532	
3934	0	31522	
3935	0	31496	
3936	0	31460	
3937	0	31456	
3938	0	31468	
3939	0	31504	
3940	0	31528	
3941	0	31552	
3942	0	31588	
3943	0	31592	
3944	0	31592	
3945	0	31592	
3946	0	31608	
3947	0	31640	
3948	0	31638	
3949	0	31628	
3950	0	31624	
3951	0	31600	
3952	0	31592	
3953	0	31616	
3954	0	31620	
3955	0	31616	
3956	0	31614	
3957	0	31612	
3958	0	31616	
3959	0	31636	
3960	0	31664	
3961	0	31688	
3962	0	31724	
3963	0	31768	
3964	0	31776	
3965	0	31792	
3966	0	31804	
3967	0	31816	
3968	0	31840	
3969	0	31856	
3970	0	31876	
3971	0	31872	
3972	0	31864	
3973	0	31836	
3974	0	31820	
3975	0	31840	
3976	0	31876	
3977	0	31912	
3978	0	31922	
3979	0	31928	
3980	0	31952	
3981	0	31974	
3982	0	31992	
3983	0	32012	
3984	0	32028	
3985	0	32036	
3986	0	32024	
3987	0	32036	
3988	0	32064	
3989	0	32098	
3990	0	32112	
3991	0	32092	
3992	0	32068	
3993	0	32056	
3994	0	32040	
3995	0	32040	
3996	0	32060	
3997	0	32096	
3998	0	32108	
3999	0	32108	
4000	0	32140	
4001	0	32160	
4002	0	32188	
4003	0	32180	
4004	0	32192	
4005	0	32208	
4006	0	32240	
4007	0	32280	
4008	0	32290	
4009	0	32336	
4010	0	32388	
4011	0	32384	
4012	0	32336	
4013	0	32312	
4014	0	32300	
4015	0	32296	
4016	0	32296	
4017	0	32280	
4018	0	32312	
4019	0	32344	
4020	0	32352	
4021	0	32352	
4022	0	32328	
4023	0	32336	
4024	0	32372	
4025	0	32396	
4026	0	32412	
4027	0	32440	
4028	0	32448	
4029	0	32464	
4030	0	32492	
4031	0	32516	
4032	0	32500	
4033	0	32476	
4034	0	32460	
4035	0	32480	
4036	0	32480	
4037	0	32496	
4038	0	32528	
4039	0	32540	
4040	0	32524	
4041	0	32540	
4042	0	32540	
4043	0	32552	
4044	0	32548	
4045	0	32576	
4046	0	32592	
4047	0	32592	
4048	0	32596	
4049	0	32580	
4050	0	32552	
4051	0	32572	
4052	0	32576	
4053	0	32564	
4054	0	32576	
4055	0	32584	
4056	0	32616	
4057	0	32656	
4058	0	32656	
4059	0	32640	
4060	0	32632	
4061	0	32640	
4062	0	32628	
4063	0	32616	
4064	0	32636	
4065	0	32664	
4066	0	32708	
4067	0	32728	
4068	0	32740	
4069	0	32732	
4070	0	32706	
4071	0	32704	
4072	0	32704	
4073	0	32700	
4074	0	32712	
4075	0	32730	
4076	0	32740	
4077	0	32744	
4078	0	32744	
4079	0	32772	
4080	0	32764	
4081	0	32798	
4082	0	32808	
4083	0	32824	
4084	0	32832	
4085	0	32828	
4086	0	32844	
4087	0	32852	
4088	0	32880	
4089	0	32880	
4090	0	32912	
4091	0	32916	
4092	0	32880	
4093	0	32860	
4094	0	32848	
4095	0	32844	
4096	0	32850	
4097	0	32844	
4098	0	32904	
4099	0	32940	
4100	0	32932	
4101	0	32936	
4102	0	32920	
4103	0	32944	
4104	0	32938	
4105	0	32932	
4106	0	32948	
4107	0	32960	
4108	0	32980	
4109	0	32984	
4110	0	32994	
4111	0	32988	
4112	0	32974	
4113	0	32944	
4114	0	32950	
4115	0	32960	
4116	0	32960	
4117	0	32952	
4118	0	32964	
4119	0	32976	
4120	0	32972	
4121	0	32984	
4122	0	33000	
4123	0	33024	
4124	0	33028	
4125	0	33060	
4126	0	33068	
4127	0	33048	
4128	0	33048	
4129	0	33076	
4130	0	33084	
4131	0	33064	
4132	0	33068	
4133	0	33080	
4134	0	33082	
4135	0	33084	
4136	0	33086	
4137	0	33040	
4138	0	33028	
4139	0	33052	
4140	0	33076	
4141	0	33056	
4142	0	33060	
4143	0	33068	
4144	0	33088	
4145	0	33124	
4146	0	33144	
4147	0	33140	
4148	0	33124	
4149	0	33152	
4150	0	33176	
4151	0	33176	
4152	0	33152	
4153	0	33140	
4154	0	33152	
4155	0	33180	
4156	0	33184	
4157	0	33176	
4158	0	33164	
4159	0	33152	
4160	0	33152	
4161	0	33146	
4162	0	33140	
4163	0	33156	
4164	0	33172	
4165	0	33208	
4166	0	33248	
4167	0	33264	
4168	0	33244	
4169	0	33220	
4170	0	33200	
4171	0	33194	
4172	0	33176	
4173	0	33164	
4174	0	33144	
4175	0	33126	
4176	0	33172	
4177	0	33180	
4178	0	33172	
4179	0	33192	
4180	0	33204	
4181	0	33216	
4182	0	33204	
4183	0	33180	
4184	0	33160	
4185	0	33178	
4186	0	33180	
4187	0	33200	
4188	0	33200	
4189	0	33220	
4190	0	33216	
4191	0	33192	
4192	0	33172	
4193	0	33160	
4194	0	33172	
4195	0	33172	
4196	0	33164	
4197	0	33176	
4198	0	33196	
4199	0	33226	
4200	0	33240	
4201	0	33268	
4202	0	33292	
4203	0	33292	
4204	0	33278	
4205	0	33256	
4206	0	33248	
4207	0	33264	
4208	0	33288	
4209	0	33292	
4210	0	33268	
4211	0	33256	
4212	0	33236	
4213	0	33232	
4214	0	33236	
4215	0	33236	
4216	0	33220	
4217	0	33210	
4218	0	33216	
4219	0	33248	
4220	0	33268	
4221	0	33280	
4222	0	33280	
4223	0	33272	
4224	0	33280	
4225	0	33272	
4226	0	33296	
4227	0	33324	
4228	0	33330	
4229	0	33326	
4230	0	33328	
4231	0	33324	
4232	0	33348	
4233	0	33324	
4234	0	33316	
4235	0	33336	
4236	0	33320	
4237	0	33310	
4238	0	33296	
4239	0	33300	
4240	0	33320	
4241	0	33308	
4242	0	33280	
4243	0	33284	
4244	0	33312	
4245	0	33360	
4246	0	33404	
4247	0	33398	
4248	0	33392	
4249	0	33380	
4250	0	33338	
4251	0	33292	
4252	0	33272	
4253	0	33312	
4254	0	33332	
4255	0	33336	
4256	0	33340	
4257	0	33352	
4258	0	33376	
4259	0	33370	
4260	0	33364	
4261	0	33344	
4262	0	33340	
4263	0	33360	
4264	0	33396	
4265	0	33436	
4266	0	33436	
4267	0	33412	
4268	0	33376	
4269	0	33396	
4270	0	33380	
4271	0	33358	
4272	0	33360	
4273	0	33388	
4274	0	33374	
4275	0	33344	
4276	0	33328	
4277	0	33320	
4278	0	33328	
4279	0	33348	
4280	0	33354	
4281	0	33340	
4282	0	33324	
4283	0	33344	
4284	0	33352	
4285	0	33368	
4286	0	33400	
4287	0	33400	
4288	0	33400	
4289	0	33432	
4290	0	33452	
4291	0	33444	
4292	0	33432	
4293	0	33400	
4294	0	33360	
4295	0	33340	
4296	0	33328	
4297	0	33320	
4298	0	33324	
4299	0	33312	
4300	0	33328	
4301	0	33352	
4302	0	33364	
4303	0	33384	
4304	0	33402	
4305	0	33416	
4306	0	33426	
4307	0	33428	
4308	0	33444	
4309	0	33432	
4310	0	33432	
4311	0	33432	
4312	0	33424	
4313	0	33450	
4314	0	33452	
4315	0	33464	
4316	0	33484	
4317	0	33512	
4318	0	33544	
4319	0	33592	
4320	0	33592	
4321	0	33536	
4322	0	33456	
4323	0	33336	
4324	0	33284	
4325	0	33284	
4326	0	33296	
4327	0	33280	
4328	0	33252	
4329	0	33244	
4330	0	33220	
4331	0	33178	
4332	0	33148	
4333	0	33148	
4334	0	33172	
4335	0	33204	
4336	0	33180	
4337	0	33170	
4338	0	33164	
4339	0	33186	
4340	0	33216	
4341	0	33280	
4342	0	33324	
4343	0	33376	
4344	0	33436	
4345	0	33504	
4346	0	33548	
4347	0	33544	
4348	0	33554	
4349	0	33588	
4350	0	33614	
4351	0	33624	
4352	0	33664	
4353	0	33680	
4354	0	33704	
4355	0	33760	
4356	0	33852	
4357	0	33928	
4358	0	33980	
4359	0	34028	
4360	0	34128	
4361	0	34216	
4362	0	34354	
4363	0	34432	
4364	0	34448	
4365	0	34400	
4366	0	34288	
4367	0	34196	
4368	0	34116	
4369	0	34076	
4370	0	34084	
4371	0	34104	
4372	0	34112	
4373	0	34092	
4374	0	34093	
4375	0	34092	
4376	0	34058	
4377	0	34068	
4378	0	34080	
4379	0	34120	
4380	0	34160	
4381	0	34196	
4382	0	34204	
4383	0	34240	
4384	0	34276	
4385	0	34284	
4386	0	34280	
4387	0	34237	
4388	0	34216	
4389	0	34172	
4390	0	34116	
4391	0	34108	
4392	0	34084	
4393	0	34040	
4394	0	33988	
4395	0	33888	
4396	0	33696	
4397	0	33464	
4398	0	33240	
4399	0	33012	
4400	0	32840	
4401	0	32716	
4402	0	32680	
4403	0	32700	
4404	0	32752	
4405	0	32792	
4406	0	32832	
4407	0	32892	
4408	0	32952	
4409	0	32972	
4410	0	32956	
4411	0	32908	
4412	0	32884	
4413	0	32888	
4414	0	32928	
4415	0	32944	
4416	0	32924	
4417	0	32912	
4418	0	32928	
4419	0	32934	
4420	0	32936	
4421	0	32948	
4422	0	32952	
4423	0	32984	
4424	0	33012	
4425	0	33036	
4426	0	33084	
4427	0	33128	
4428	0	33152	
4429	0	33184	
4430	0	33184	
4431	0	33172	
4432	0	33140	
4433	0	33132	
4434	0	33140	
4435	0	33164	
4436	0	33200	
4437	0	33224	
4438	0	33232	
4439	0	33240	
4440	0	33276	
4441	0	33322	
4442	0	33362	
4443	0	33388	
4444	0	33418	
4445	0	33456	
4446	0	33482	
4447	0	33498	
4448	0	33544	
4449	0	33596	
4450	0	33600	
4451	0	33600	
4452	0	33592	
4453	0	33600	
4454	0	33580	
4455	0	33548	
4456	0	33472	
4457	0	33420	
4458	0	33344	
4459	0	33200	
4460	0	32992	
4461	0	32768	
4462	0	32516	
4463	0	32100	
4464	0	31528	
4465	0	30924	
4466	0	30392	
4467	0	30004	
4468	0	29752	
4469	0	29640	
4470	0	29720	
4471	0	29984	
4472	0	30436	
4473	0	31072	
4474	0	31808	
4475	0	32740	
4476	0	33884	
4477	0	35084	
4478	0	36404	
4479	0	37880	
4480	0	39564	
4481	0	41504	
4482	0	43640	
4483	0	46112	
4484	0	48772	
4485	0	51512	
4486	0	54340	
4487	0	57328	
4488	0	60416	
4489	0	62652	
4490	0	63828	
4491	0	64428	
4492	0	64696	
4493	0	64784	
4494	0	64784	
4495	0	64720	
4496	0	64632	
4497	0	64536	
4498	0	64408	
4499	0	64280	
4500	0	64152	
4501	0	64032	
4502	0	63908	
4503	0	63792	
4504	0	63656	
4505	0	58536	
4506	0	52020	
4507	0	45856	
4508	0	40492	
4509	0	35884	
4510	0	32032	
4511	0	28908	
4512	0	26520	
4513	0	24932	
4514	0	24100	
4515	0	23688	
4516	0	23480	
4517	0	23304	
4518	0	23148	
4519	0	22948	
4520	0	22772	
4521	0	22668	
4522	0	22660	
4523	0	22710	
4524	0	22776	
4525	0	22920	
4526	0	23152	
4527	0	23461	
4528	0	23960	
4529	0	24684	
4530	0	25444	
4531	0	26136	
4532	0	26740	
4533	0	27244	
4534	0	27620	
4535	0	27904	
4536	0	28144	
4537	0	28360	
4538	0	28586	
4539	0	28780	
4540	0	28956	
4541	0	29050	
4542	0	29112	
4543	0	29168	
4544	0	29190	
4545	0	29212	
4546	0	29220	
4547	0	29256	
4548	0	29304	
4549	0	29360	
4550	0	29400	
4551	0	29436	
4552	0	29460	
4553	0	29496	
4554	0	29492	
4555	0	29496	
4556	0	29512	
4557	0	29570	
4558	0	29630	
4559	0	29676	
4560	0	29740	
4561	0	29794	
4562	0	29836	
4563	0	29900	
4564	0	29964	
4565	0	30040	
4566	0	30112	
4567	0	30160	
4568	0	30220	
4569	0	30296	
4570	0	30324	
4571	0	30332	
4572	0	30348	
4573	0	30336	
4574	0	30332	
4575	0	30336	
4576	0	30352	
4577	0	30372	
4578	0	30412	
4579	0	30464	
4580	0	30530	
4581	0	30604	
4582	0	30634	
4583	0	30670	
4584	0	30706	
4585	0	30748	
4586	0	30794	
4587	0	30868	
4588	0	30936	
4589	0	30988	
4590	0	31064	
4591	0	31112	
4592	0	31136	
4593	0	31196	
4594	0	31256	
4595	0	31276	
4596	0	31316	
4597	0	31356	
4598	0	31400	
4599	0	31440	
4600	0	31488	
4601	0	31536	
4602	0	31580	
4603	0	31584	
4604	0	31640	
4605	0	31664	
4606	0	31680	
4607	0	31700	
4608	0	31704	
4609	0	31736	
4610	0	31762	
4611	0	31778	
4612	0	31816	
4613	0	31860	
4614	0	31900	
4615	0	31912	
4616	0	31952	
4617	0	31992	
4618	0	32064	
4619	0	32112	
4620	0	32142	
4621	0	32224	
4622	0	32296	
4623	0	32356	
4624	0	32376	
4625	0	32384	
4626	0	32416	
4627	0	32468	
4628	0	32548	
4629	0	32620	
4630	0	32656	
4631	0	32696	
4632	0	32712	
4633	0	32752	
4634	0	32756	
4635	0	32728	
4636	0	32736	
4637	0	32760	
4638	0	32800	
4639	0	32860	
4640	0	32896	
4641	0	32904	
4642	0	32912	
4643	0	32938	
4644	0	32992	
4645	0	33032	
4646	0	33068	
4647	0	33120	
4648	0	33152	
4649	0	33200	
4650	0	33230	
4651	0	33288	
4652	0	33324	
4653	0	33376	
4654	0	33412	
4655	0	33432	
4656	0	33452	
4657	0	33472	
4658	0	33520	
4659	0	33572	
4660	0	33648	
4661	0	33716	
4662	0	33772	
4663	0	33826	
4664	0	33884	
4665	0	33962	
4666	0	34040	
4667	0	34102	
4668	0	34140	
4669	0	34162	
4670	0	34188	
4671	0	34232	
4672	0	34276	
4673	0	34344	
4674	0	34424	
4675	0	34480	
4676	0	34528	
4677	0	34580	
4678	0	34642	
4679	0	34704	
4680	0	34792	
4681	0	34880	
4682	0	34952	
4683	0	35016	
4684	0	35072	
4685	0	35150	
4686	0	35200	
4687	0	35264	
4688	0	35312	
4689	0	35380	
4690	0	35432	
4691	0	35520	
4692	0	35588	
4693	0	35672	
4694	0	35716	
4695	0	35768	
4696	0	35840	
4697	0	35956	
4698	0	36072	
4699	0	36176	
4700	0	36252	
4701	0	36312	
4702	0	36368	
4703	0	36472	
4704	0	36580	
4705	0	36688	
4706	0	36780	
4707	0	36880	
4708	0	37020	
4709	0	37148	
4710	0	37248	
4711	0	37348	
4712	0	37468	
4713	0	37570	
4714	0	37688	
4715	0	37840	
4716	0	37980	
4717	0	38104	
4718	0	38232	
4719	0	38352	
4720	0	38484	
4721	0	38600	
4722	0	38760	
4723	0	38936	
4724	0	39098	
4725	0	39232	
4726	0	39368	
4727	0	39508	
4728	0	39644	
4729	0	39752	
4730	0	39840	
4731	0	39916	
4732	0	39984	
4733	0	40032	
4734	0	40088	
4735	0	40144	
4736	0	40196	
4737	0	40300	
4738	0	40388	
4739	0	40468	
4740	0	40572	
4741	0	40680	
4742	0	40780	
4743	0	40922	
4744	0	41008	
4745	0	41056	
4746	0	41088	
4747	0	41144	
4748	0	41208	
4749	0	41260	
4750	0	41320	
4751	0	41328	
4752	0	41364	
4753	0	41378	
4754	0	41392	
4755	0	41416	
4756	0	41376	
4757	0	41316	
4758	0	41248	
4759	0	41216	
4760	0	41188	
4761	0	41176	
4762	0	41140	
4763	0	41104	
4764	0	41048	
4765	0	41028	
4766	0	40936	
4767	0	40868	
4768	0	40792	
4769	0	40732	
4770	0	40668	
4771	0	40592	
4772	0	40496	
4773	0	40436	
4774	0	40380	
4775	0	40296	
4776	0	40188	
4777	0	40016	
4778	0	39868	
4779	0	39724	
4780	0	39580	
4781	0	39440	
4782	0	39265	
4783	0	39068	
4784	0	38840	
4785	0	38584	
4786	0	38312	
4787	0	38056	
4788	0	37800	
4789	0	37544	
4790	0	37280	
4791	0	37040	
4792	0	36744	
4793	0	36456	
4794	0	36160	
4795	0	35868	
4796	0	35592	
4797	0	35312	
4798	0	34980	
4799	0	34668	
4800	0	34388	
4801	0	34080	
4802	0	33796	
4803	0	33540	
4804	0	33256	
4805	0	32964	
4806	0	32700	
4807	0	32440	
4808	0	32180	
4809	0	31928	
4810	0	31682	
4811	0	31428	
4812	0	31180	
4813	0	30892	
4814	0	30620	
4815	0	30356	
4816	0	30120	
4817	0	29872	
4818	0	29656	
4819	0	29420	
4820	0	29180	
4821	0	28964	
4822	0	28784	
4823	0	28616	
4824	0	28484	
4825	0	28344	
4826	0	28224	
4827	0	28108	
4828	0	27946	
4829	0	27796	
4830	0	27672	
4831	0	27512	
4832	0	27324	
4833	0	27144	
4834	0	26952	
4835	0	26824	
4836	0	26668	
4837	0	26516	
4838	0	26396	
4839	0	26296	
4840	0	26228	
4841	0	26156	
4842	0	26100	
4843	0	26024	
4844	0	25964	
4845	0	25940	
4846	0	25906	
4847	0	25916	
4848	0	25932	
4849	0	25936	
4850	0	25948	
4851	0	25948	
4852	0	25966	
4853	0	25972	
4854	0	25966	
4855	0	25952	
4856	0	25924	
4857	0	25870	
4858	0	25852	
4859	0	25854	
4860	0	25848	
4861	0	25880	
4862	0	25868	
4863	0	25860	
4864	0	25888	
4865	0	25954	
4866	0	25992	
4867	0	26024	
4868	0	26060	
4869	0	26080	
4870	0	26080	
4871	0	26056	
4872	0	26028	
4873	0	26030	
4874	0	26080	
4875	0	26144	
4876	0	26178	
4877	0	26198	
4878	0	26180	
4879	0	26208	
4880	0	26248	
4881	0	26290	
4882	0	26360	
4883	0	26402	
4884	0	26464	
4885	0	26524	
4886	0	26576	
4887	0	26640	
4888	0	26682	
4889	0	26728	
4890	0	26760	
4891	0	26798	
4892	0	26800	
4893	0	26828	
4894	0	26856	
4895	0	26916	
4896	0	26992	
4897	0	27028	
4898	0	27080	
4899	0	27124	
4900	0	27220	
4901	0	27316	
4902	0	27398	
4903	0	27476	
4904	0	27532	
4905	0	27608	
4906	0	27660	
4907	0	27692	
4908	0	27736	
4909	0	27804	
4910	0	27852	
4911	0	27884	
4912	0	27876	
4913	0	27856	
4914	0	27812	
4915	0	27786	
4916	0	27804	
4917	0	27858	
4918	0	27904	
4919	0	27960	
4920	0	28028	
4921	0	28096	
4922	0	28168	
4923	0	28224	
4924	0	28280	
4925	0	28350	
4926	0	28400	
4927	0	28480	
4928	0	28592	
4929	0	28668	
4930	0	28726	
4931	0	28748	
4932	0	28784	
4933	0	28826	
4934	0	28828	
4935	0	28832	
4936	0	28860	
4937	0	28956	
4938	0	29056	
4939	0	29108	
4940	0	29112	
4941	0	29140	
4942	0	29160	
4943	0	29188	
4944	0	29196	
4945	0	29244	
4946	0	29304	
4947	0	29372	
4948	0	29416	
4949	0	29456	
4950	0	29516	
4951	0	29528	
4952	0	29534	
4953	0	29536	
4954	0	29572	
4955	0	29636	
4956	0	29656	
4957	0	29678	
4958	0	29712	
4959	0	29736	
4960	0	29744	
4961	0	29728	
4962	0	29742	
4963	0	29760	
4964	0	29776	
4965	0	29804	
4966	0	29856	
4967	0	29904	
4968	0	29920	
4969	0	29932	
4970	0	29952	
4971	0	29984	
4972	0	30040	
4973	0	30120	
4974	0	30176	
4975	0	30216	
4976	0	30272	
4977	0	30312	
4978	0	30328	
4979	0	30286	
4980	0	30258	
4981	0	30228	
4982	0	30234	
4983	0	30242	
4984	0	30226	
4985	0	30216	
4986	0	30252	
4987	0	30296	
4988	0	30336	
4989	0	30328	
4990	0	30280	
4991	0	30316	
4992	0	30376	
4993	0	30408	
4994	0	30368	
4995	0	30364	
4996	0	30384	
4997	0	30370	
4998	0	30350	
4999	0	30326	
5000	0	30292	
5001	0	30304	
5002	0	30328	
5003	0	30344	
5004	0	30376	
5005	0	30392	
5006	0	30400	
5007	0	30392	
5008	0	30386	
5009	0	30396	
5010	0	30336	
5011	0	30292	
5012	0	30290	
5013	0	30288	
5014	0	30272	
5015	0	30224	
5016	0	30194	
5017	0	30178	
5018	0	30168	
5019	0	30164	
5020	0	30204	
5021	0	30264	
5022	0	30312	
5023	0	30318	
5024	0	30284	
5025	0	30284	
5026	0	30340	
5027	0	30406	
5028	0	30496	
5029	0	30556	
5030	0	30618	
5031	0	30664	
5032	0	30678	
5033	0	30724	
5034	0	30744	
5035	0	30736	
5036	0	30728	
5037	0	30728	
5038	0	30716	
5039	0	30696	
5040	0	30682	
5041	0	30712	
5042	0	30720	
5043	0	30696	
5044	0	30664	
5045	0	30664	
5046	0	30680	
5047	0	30656	
5048	0	30656	
5049	0	30674	
5050	0	30676	
5051	0	30680	
5052	0	30688	
5053	0	30660	
5054	0	30636	
5055	0	30592	
5056	0	30594	
5057	0	30600	
5058	0	30580	
5059	0	30552	
5060	0	30548	
5061	0	30584	
5062	0	30660	
5063	0	30730	
5064	0	30780	
5065	0	30760	
5066	0	30704	
5067	0	30664	
5068	0	30672	
5069	0	30682	
5070	0	30712	
5071	0	30720	
5072	0	30684	
5073	0	30680	
5074	0	30736	
5075	0	30808	
5076	0	30824	
5077	0	30810	
5078	0	30824	
5079	0	30864	
5080	0	30912	
5081	0	30996	
5082	0	31056	
5083	0	31104	
5084	0	31160	
5085	0	31226	
5086	0	31268	
5087	0	31280	
5088	0	31300	
5089	0	31276	
5090	0	31300	
5091	0	31328	
5092	0	31324	
5093	0	31328	
5094	0	31316	
5095	0	31308	
5096	0	31280	
5097	0	31248	
5098	0	31192	
5099	0	31144	
5100	0	31124	
5101	0	31084	
5102	0	31056	
5103	0	31036	
5104	0	31000	
5105	0	31020	
5106	0	31088	
5107	0	31200	
5108	0	31288	
5109	0	31362	
5110	0	31440	
5111	0	31504	
5112	0	31572	
5113	0	31580	
5114	0	31572	
5115	0	31572	
5116	0	31604	
5117	0	31648	
5118	0	31656	
5119	0	31632	
5120	0	31636	
5121	0	31616	
5122	0	31604	
5123	0	31600	
5124	0	31608	
5125	0	31618	
5126	0	31628	
5127	0	31660	
5128	0	31672	
5129	0	31680	
5130	0	31660	
5131	0	31648	
5132	0	31630	
5133	0	31588	
5134	0	31572	
5135	0	31558	
5136	0	31584	
5137	0	31624	
5138	0	31628	
5139	0	31604	
5140	0	31564	
5141	0	31594	
5142	0	31622	
5143	0	31626	
5144	0	31628	
5145	0	31624	
5146	0	31628	
5147	0	31660	
5148	0	31680	
5149	0	31672	
5150	0	31648	
5151	0	31632	
5152	0	31600	
5153	0	31608	
5154	0	31620	
5155	0	31620	
5156	0	31660	
5157	0	31692	
5158	0	31700	
5159	0	31750	
5160	0	31778	
5161	0	31812	
5162	0	31868	
5163	0	31884	
5164	0	31888	
5165	0	31904	
5166	0	31932	
5167	0	31968	
5168	0	32032	
5169	0	32100	
5170	0	32124	
5171	0	32120	
5172	0	32120	
5173	0	32120	
5174	0	32120	
5175	0	32164	
5176	0	32192	
5177	0	32150	
5178	0	32128	
5179	0	32088	
5180	0	32064	
5181	0	32014	
5182	0	31984	
5183	0	32012	
5184	0	32024	
5185	0	32050	
5186	0	32080	
5187	0	32084	
5188	0	32076	
5189	0	32032	
5190	0	31968	
5191	0	31976	
5192	0	32040	
5193	0	32096	
5194	0	32184	
5195	0	32226	
5196	0	32240	
5197	0	32280	
5198	0	32276	
5199	0	32252	
5200	0	32272	
5201	0	32200	
5202	0	32164	
5203	0	32192	
5204	0	32168	
5205	0	32162	
5206	0	32144	
5207	0	32160	
5208	0	32184	
5209	0	32224	
5210	0	32232	
5211	0	32224	
5212	0	32244	
5213	0	32260	
5214	0	32236	
5215	0	32240	
5216	0	32228	
5217	0	32224	
5218	0	32232	
5219	0	32240	
5220	0	32260	
5221	0	32320	
5222	0	32380	
5223	0	32392	
5224	0	32416	
5225	0	32441	
5226	0	32472	
5227	0	32484	
5228	0	32464	
5229	0	32412	
5230	0	32364	
5231	0	32392	
5232	0	32410	
5233	0	32380	
5234	0	32320	
5235	0	32256	
5236	0	32208	
5237	0	32172	
5238	0	32168	
5239	0	32152	
5240	0	32214	
5241	0	32248	
5242	0	32324	
5243	0	32380	
5244	0	32444	
5245	0	32472	
5246	0	32484	
5247	0	32532	
5248	0	32576	
5249	0	32596	
5250	0	32680	
5251	0	32746	
5252	0	32784	
5253	0	32762	
5254	0	32736	
5255	0	32724	
5256	0	32672	
5257	0	32628	
5258	0	32632	
5259	0	32652	
5260	0	32672	
5261	0	32688	
5262	0	32688	
5263	0	32688	
5264	0	32704	
5265	0	32724	
5266	0	32724	
5267	0	32712	
5268	0	32672	
5269	0	32654	
5270	0	32618	
5271	0	32616	
5272	0	32632	
5273	0	32640	
5274	0	32600	
5275	0	32580	
5276	0	32576	
5277	0	32596	
5278	0	32588	
5279	0	32584	
5280	0	32636	
5281	0	32672	
5282	0	32668	
5283	0	32684	
5284	0	32700	
5285	0	32740	
5286	0	32800	
5287	0	32832	
5288	0	32856	
5289	0	32866	
5290	0	32824	
5291	0	32800	
5292	0	32746	
5293	0	32692	
5294	0	32704	
5295	0	32720	
5296	0	32736	
5297	0	32772	
5298	0	32808	
5299	0	32844	
5300	0	32832	
5301	0	32820	
5302	0	32816	
5303	0	32816	
5304	0	32816	
5305	0	32812	
5306	0	32780	
5307	0	32744	
5308	0	32736	
5309	0	32746	
5310	0	32756	
5311	0	32692	
5312	0	32668	
5313	0	32672	
5314	0	32704	
5315	0	32740	
5316	0	32776	
5317	0	32784	
5318	0	32812	
5319	0	32876	
5320	0	32928	
5321	0	32920	
5322	0	32908	
5323	0	32920	
5324	0	32912	
5325	0	32884	
5326	0	32880	
5327	0	32864	
5328	0	32850	
5329	0	32812	
5330	0	32808	
5331	0	32844	
5332	0	32892	
5333	0	32956	
5334	0	33048	
5335	0	33112	
5336	0	33104	
5337	0	33052	
5338	0	33078	
5339	0	33074	
5340	0	33036	
5341	0	33048	
5342	0	33052	
5343	0	33052	
5344	0	32968	
5345	0	32868	
5346	0	32896	
5347	0	32980	
5348	0	32992	
5349	0	32984	
5350	0	32964	
5351	0	32968	
5352	0	32948	
5353	0	32914	
5354	0	32872	
5355	0	32804	
5356	0	32720	
5357	0	32696	
5358	0	32720	
5359	0	32788	
5360	0	32836	
5361	0	32924	
5362	0	33012	
5363	0	33088	
5364	0	33148	
5365	0	33208	
5366	0	33232	
5367	0	33268	
5368	0	33312	
5369	0	33360	
5370	0	33380	
5371	0	33412	
5372	0	33452	
5373	0	33460	
5374	0	33408	
5375	0	33304	
5376	0	33208	
5377	0	33064	
5378	0	32972	
5379	0	32908	
5380	0	32896	
5381	0	32848	
5382	0	32824	
5383	0	32848	
5384	0	32916	
5385	0	32980	
5386	0	33016	
5387	0	33056	
5388	0	33100	
5389	0	33120	
5390	0	33128	
5391	0	33168	
5392	0	33204	
5393	0	33218	
5394	0	33224	
5395	0	33240	
5396	0	33240	
5397	0	33244	
5398	0	33240	
5399	0	33220	
5400	0	33220	
5401	0	33212	
5402	0	33220	
5403	0	33264	
5404	0	33292	
5405	0	33308	
5406	0	33304	
5407	0	33250	
5408	0	33200	
5409	0	33176	
5410	0	33180	
5411	0	33188	
5412	0	33204	
5413	0	33252	
5414	0	33292	
5415	0	33340	
5416	0	33344	
5417	0	33360	
5418	0	33336	
5419	0	33280	
5420	0	33224	
5421	0	33200	
5422	0	33184	
5423	0	33088	
5424	0	33024	
5425	0	33036	
5426	0	33036	
5427	0	33008	
5428	0	32948	
5429	0	32900	
5430	0	32848	
5431	0	32824	
5432	0	32864	
5433	0	32960	
5434	0	33020	
5435	0	33060	
5436	0	33040	
5437	0	33016	
5438	0	32996	
5439	0	33036	
5440	0	33080	
5441	0	33088	
5442	0	33084	
5443	0	33044	
5444	0	32994	
5445	0	32928	
5446	0	32936	
5447	0	33024	
5448	0	33132	
5449	0	33248	
5450	0	33360	
5451	0	33432	
5452	0	33500	
5453	0	33624	
5454	0	33752	
5455	0	33816	
5456	0	33812	
5457	0	33832	
5458	0	33920	
5459	0	34072	
5460	0	34240	
5461	0	34368	
5462	0	34456	
5463	0	34440	
5464	0	34300	
5465	0	34156	
5466	0	34092	
5467	0	34028	
5468	0	33976	
5469	0	33992	
5470	0	33976	
5471	0	33928	
5472	0	33914	
5473	0	33924	
5474	0	33920	
5475	0	33880	
5476	0	33864	
5477	0	33868	
5478	0	33912	
5479	0	33920	
5480	0	33952	
5481	0	34020	
5482	0	34032	
5483	0	34008	
5484	0	33984	
5485	0	33952	
5486	0	33952	
5487	0	33956	
5488	0	33984	
5489	0	33960	
5490	0	33912	
5491	0	33812	
5492	0	33664	
5493	0	33532	
5494	0	33352	
5495	0	33132	
5496	0	32944	
5497	0	32736	
5498	0	32604	
5499	0	32536	
5500	0	32516	
5501	0	32554	
5502	0	32606	
5503	0	32672	
5504	0	32740	
5505	0	32768	
5506	0	32772	
5507	0	32768	
5508	0	32752	
5509	0	32724	
5510	0	32708	
5511	0	32696	
5512	0	32668	
5513	0	32676	
5514	0	32712	
5515	0	32752	
5516	0	32832	
5517	0	32894	
5518	0	32916	
5519	0	32944	
5520	0	32992	
5521	0	33042	
5522	0	33080	
5523	0	33116	
5524	0	33148	
5525	0	33164	
5526	0	33220	
5527	0	33212	
5528	0	33212	
5529	0	33220	
5530	0	33228	
5531	0	33232	
5532	0	33256	
5533	0	33276	
5534	0	33272	
5535	0	33292	
5536	0	33304	
5537	0	33316	
5538	0	33304	
5539	0	33312	
5540	0	33320	
5541	0	33328	
5542	0	33328	
5543	0	33332	
5544	0	33392	
5545	0	33468	
5546	0	33520	
5547	0	33528	
5548	0	33496	
5549	0	33440	
5550	0	33404	
5551	0	33356	
5552	0	33236	
5553	0	33106	
5554	0	32888	
5555	0	32616	
5556	0	32236	
5557	0	31728	
5558	0	31116	
5559	0	30484	
5560	0	29920	
5561	0	29546	
5562	0	29314	
5563	0	29316	
5564	0	29464	
5565	0	29800	
5566	0	30390	
5567	0	31124	
5568	0	31984	
5569	0	33040	
5570	0	34228	
5571	0	35520	
5572	0	36928	
5573	0	38544	
5574	0	40448	
5575	0	42584	
5576	0	44860	
5577	0	47372	
5578	0	50132	
5579	0	52980	
5580	0	55936	
5581	0	59072	
5582	0	62056	
5583	0	63784	
5584	0	64688	
5585	0	65112	
5586	0	65304	
5587	0	65348	
5588	0	65296	
5589	0	65224	
5590	0	65116	
5591	0	64996	
5592	0	64888	
5593	0	64752	
5594	0	64632	
5595	0	64504	
5596	0	64376	
5597	0	64244	
5598	0	61704	
5599	0	55240	
5600	0	49136	
5601	0	43658	
5602	0	38720	
5603	0	34476	
5604	0	31096	
5605	0	28688	
5606	0	27080	
5607	0	26082	
5608	0	25480	
5609	0	25036	
5610	0	24658	
5611	0	24378	
5612	0	24112	
5613	0	23840	
5614	0	23566	
5615	0	23364	
5616	0	23284	
5617	0	23312	
5618	0	23356	
5619	0	23394	
5620	0	23432	
5621	0	23604	
5622	0	23856	
5623	0	24188	
5624	0	24576	
5625	0	25084	
5626	0	25764	
5627	0	26382	
5628	0	26880	
5629	0	27324	
5630	0	27712	
5631	0	27972	
5632	0	28152	
5633	0	28300	
5634	0	28548	
5635	0	28820	
5636	0	29048	
5637	0	29196	
5638	0	29300	
5639	0	29368	
5640	0	29406	
5641	0	29440	
5642	0	29488	
5643	0	29512	
5644	0	29520	
5645	0	29528	
5646	0	29536	
5647	0	29580	
5648	0	29640	
5649	0	29702	
5650	0	29748	
5651	0	29800	
5652	0	29848	
5653	0	29904	
5654	0	29988	
5655	0	30084	
5656	0	30124	
5657	0	30148	
5658	0	30184	
5659	0	30232	
5660	0	30292	
5661	0	30348	
5662	0	30396	
5663	0	30428	
5664	0	30472	
5665	0	30504	
5666	0	30564	
5667	0	30638	
5668	0	30704	
5669	0	30784	
5670	0	30852	
5671	0	30894	
5672	0	30952	
5673	0	31008	
5674	0	31056	
5675	0	31104	
5676	0	31152	
5677	0	31188	
5678	0	31240	
5679	0	31280	
5680	0	31288	
5681	0	31296	
5682	0	31328	
5683	0	31366	
5684	0	31372	
5685	0	31384	
5686	0	31416	
5687	0	31466	
5688	0	31520	
5689	0	31600	
5690	0	31628	
5691	0	31672	
5692	0	31700	
5693	0	31736	
5694	0	31796	
5695	0	31824	
5696	0	31832	
5697	0	31828	
5698	0	31816	
5699	0	31848	
5700	0	31872	
5701	0	31928	
5702	0	32002	
5703	0	32058	
5704	0	32100	
5705	0	32140	
5706	0	32196	
5707	0	32264	
5708	0	32306	
5709	0	32344	
5710	0	32396	
5711	0	32456	
5712	0	32492	
5713	0	32540	
5714	0	32580	
5715	0	32630	
5716	0	32674	
5717	0	32720	
5718	0	32776	
5719	0	32840	
5720	0	32904	
5721	0	32944	
5722	0	32960	
5723	0	33008	
5724	0	33044	
5725	0	33080	
5726	0	33108	
5727	0	33120	
5728	0	33124	
5729	0	33132	
5730	0	33152	
5731	0	33172	
5732	0	33184	
5733	0	33200	
5734	0	33220	
5735	0	33272	
5736	0	33324	
5737	0	33368	
5738	0	33376	
5739	0	33388	
5740	0	33404	
5741	0	33442	
5742	0	33504	
5743	0	33560	
5744	0	33602	
5745	0	33660	
5746	0	33736	
5747	0	33784	
5748	0	33828	
5749	0	33876	
5750	0	33932	
5751	0	33968	
5752	0	33988	
5753	0	34012	
5754	0	34068	
5755	0	34120	
5756	0	34156	
5757	0	34208	
5758	0	34276	
5759	0	34328	
5760	0	34380	
5761	0	34456	
5762	0	34516	
5763	0	34564	
5764	0	34640	
5765	0	34692	
5766	0	34776	
5767	0	34832	
5768	0	34852	
5769	0	34892	
5770	0	34948	
5771	0	35026	
5772	0	35108	
5773	0	35184	
5774	0	35224	
5775	0	35296	
5776	0	35354	
5777	0	35400	
5778	0	35468	
5779	0	35540	
5780	0	35616	
5781	0	35676	
5782	0	35756	
5783	0	35832	
5784	0	35864	
5785	0	35936	
5786	0	35992	
5787	0	36068	
5788	0	36130	
5789	0	36220	
5790	0	36272	
5791	0	36368	
5792	0	36480	
5793	0	36584	
5794	0	36660	
5795	0	36720	
5796	0	36824	
5797	0	36956	
5798	0	37028	
5799	0	37100	
5800	0	37212	
5801	0	37300	
5802	0	37404	
5803	0	37520	
5804	0	37628	
5805	0	37732	
5806	0	37850	
5807	0	37980	
5808	0	38080	
5809	0	38200	
5810	0	38300	
5811	0	38432	
5812	0	38536	
5813	0	38660	
5814	0	38760	
5815	0	38860	
5816	0	38940	
5817	0	39034	
5818	0	39136	
5819	0	39236	
5820	0	39340	
5821	0	39456	
5822	0	39560	
5823	0	39678	
5824	0	39780	
5825	0	39888	
5826	0	39988	
5827	0	40084	
5828	0	40184	
5829	0	40280	
5830	0	40372	
5831	0	40472	
5832	0	40540	
5833	0	40608	
5834	0	40684	
5835	0	40732	
5836	0	40764	
5837	0	40828	
5838	0	40852	
5839	0	40896	
5840	0	40936	
5841	0	40992	
5842	0	41024	
5843	0	41036	
5844	0	41056	
5845	0	41048	
5846	0	41080	
5847	0	41108	
5848	0	41120	
5849	0	41140	
5850	0	41144	
5851	0	41152	
5852	0	41168	
5853	0	41136	
5854	0	41076	
5855	0	41024	
5856	0	40956	
5857	0	40928	
5858	0	40860	
5859	0	40804	
5860	0	40736	
5861	0	40656	
5862	0	40576	
5863	0	40472	
5864	0	40356	
5865	0	40280	
5866	0	40206	
5867	0	40124	
5868	0	40036	
5869	0	39904	
5870	0	39776	
5871	0	39620	
5872	0	39448	
5873	0	39272	
5874	0	39084	
5875	0	38900	
5876	0	38680	
5877	0	38444	
5878	0	38192	
5879	0	37956	
5880	0	37728	
5881	0	37506	
5882	0	37280	
5883	0	37032	
5884	0	36776	
5885	0	36504	
5886	0	36172	
5887	0	35836	
5888	0	35520	
5889	0	35212	
5890	0	34916	
5891	0	34596	
5892	0	34304	
5893	0	34036	
5894	0	33748	
5895	0	33492	
5896	0	33216	
5897	0	32922	
5898	0	32628	
5899	0	32336	
5900	0	32076	
5901	0	31800	
5902	0	31532	
5903	0	31272	
5904	0	31000	
5905	0	30748	
5906	0	30512	
5907	0	30272	
5908	0	30048	
5909	0	29824	
5910	0	29608	
5911	0	29402	
5912	0	29218	
5913	0	29026	
5914	0	28816	
5915	0	28628	
5916	0	28428	
5917	0	28254	
5918	0	28080	
5919	0	27946	
5920	0	27768	
5921	0	27616	
5922	0	27496	
5923	0	27400	
5924	0	27292	
5925	0	27168	
5926	0	27068	
5927	0	26962	
5928	0	26864	
5929	0	26772	
5930	0	26676	
5931	0	26584	
5932	0	26500	
5933	0	26400	
5934	0	26312	
5935	0	26228	
5936	0	26164	
5937	0	26104	
5938	0	26052	
5939	0	26000	
5940	0	25940	
5941	0	25920	
5942	0	25900	
5943	0	25880	
5944	0	25856	
5945	0	25852	
5946	0	25848	
5947	0	25860	
5948	0	25876	
5949	0	25861	
5950	0	25856	
5951	0	25860	
5952	0	25890	
5953	0	25916	
5954	0	25940	
5955	0	25960	
5956	0	25965	
5957	0	25972	
5958	0	25992	
5959	0	26044	
5960	0	26064	
5961	0	26076	
5962	0	26065	
5963	0	26074	
5964	0	26072	
5965	0	26104	
5966	0	26172	
5967	0	26220	
5968	0	26288	
5969	0	26316	
5970	0	26352	
5971	0	26388	
5972	0	26428	
5973	0	26448	
5974	0	26464	
5975	0	26512	
5976	0	26532	
5977	0	26560	
5978	0	26584	
5979	0	26642	
5980	0	26682	
5981	0	26688	
5982	0	26712	
5983	0	26772	
5984	0	26832	
5985	0	26908	
5986	0	27016	
5987	0	27076	
5988	0	27112	
5989	0	27184	
5990	0	27284	
5991	0	27332	
5992	0	27408	
5993	0	27456	
5994	0	27512	
5995	0	27576	
5996	0	27648	
5997	0	27688	
5998	0	27718	
5999	0	27752	
6000	0	27786	
6001	0	27828	
6002	0	27864	
6003	0	27900	
6004	0	27968	
6005	0	28036	
6006	0	28129	
6007	0	28196	
6008	0	28256	
6009	0	28284	
6010	0	28328	
6011	0	28400	
6012	0	28438	
6013	0	28484	
6014	0	28556	
6015	0	28608	
6016	0	28660	
6017	0	28676	
6018	0	28748	
6019	0	28804	
6020	0	28852	
6021	0	28896	
6022	0	28952	
6023	0	28996	
6024	0	29052	
6025	0	29076	
6026	0	29140	
6027	0	29178	
6028	0	29216	
6029	0	29268	
6030	0	29324	
6031	0	29356	
6032	0	29364	
6033	0	29412	
6034	0	29476	
6035	0	29520	
6036	0	29584	
6037	0	29620	
6038	0	29684	
6039	0	29736	
6040	0	29744	
6041	0	29768	
6042	0	29788	
6043	0	29832	
6044	0	29880	
6045	0	29940	
6046	0	30008	
6047	0	30064	
6048	0	30088	
6049	0	30120	
6050	0	30148	
6051	0	30188	
6052	0	30196	
6053	0	30228	
6054	0	30256	
6055	0	30300	
6056	0	30320	
6057	0	30336	
6058	0	30348	
6059	0	30384	
6060	0	30392	
6061	0	30388	
6062	0	30456	
6063	0	30496	
6064	0	30548	
6065	0	30568	
6066	0	30588	
6067	0	30582	
6068	0	30576	
6069	0	30586	
6070	0	30596	
6071	0	30628	
6072	0	30652	
6073	0	30664	
6074	0	30660	
6075	0	30658	
6076	0	30672	
6077	0	30644	
6078	0	30628	
6079	0	30632	
6080	0	30648	
6081	0	30664	
6082	0	30668	
6083	0	30692	
6084	0	30704	
6085	0	30700	
6086	0	30720	
6087	0	30740	
6088	0	30752	
6089	0	30790	
6090	0	30822	
6091	0	30818	
6092	0	30801	
6093	0	30778	
6094	0	30776	
6095	0	30776	
6096	0	30776	
6097	0	30800	
6098	0	30790	
6099	0	30784	
6100	0	30784	
6101	0	30768	
6102	0	30756	
6103	0	30756	
6104	0	30748	
6105	0	30768	
6106	0	30784	
6107	0	30824	
6108	0	30832	
6109	0	30858	
6110	0	30848	
6111	0	30828	
6112	0	30808	
6113	0	30788	
6114	0	30792	
6115	0	30796	
6116	0	30800	
6117	0	30816	
6118	0	30804	
6119	0	30796	
6120	0	30778	
6121	0	30776	
6122	0	30796	
6123	0	30832	
6124	0	30828	
6125	0	30848	
6126	0	30852	
6127	0	30880	
6128	0	30940	
6129	0	30968	
6130	0	30984	
6131	0	30978	
6132	0	30988	
6133	0	30992	
6134	0	30980	
6135	0	30956	
6136	0	30932	
6137	0	30928	
6138	0	30880	
6139	0	30894	
6140	0	30920	
6141	0	30936	
6142	0	30960	
6143	0	30992	
6144	0	31012	
6145	0	31004	
6146	0	31028	
6147	0	31064	
6148	0	31116	
6149	0	31116	
6150	0	31110	
6151	0	31100	
6152	0	31088	
6153	0	31096	
6154	0	31100	
6155	0	31128	
6156	0	31136	
6157	0	31164	
6158	0	31194	
6159	0	31192	
6160	0	31176	
6161	0	31172	
6162	0	31196	
6163	0	31228	
6164	0	31232	
6165	0	31252	
6166	0	31266	
6167	0	31264	
6168	0	31296	
6169	0	31352	
6170	0	31378	
6171	0	31400	
6172	0	31380	
6173	0	31372	
6174	0	31356	
6175	0	31340	
6176	0	31320	
6177	0	31336	
6178	0	31364	
6179	0	31380	
6180	0	31392	
6181	0	31396	
6182	0	31424	
6183	0	31432	
6184	0	31464	
6185	0	31490	
6186	0	31484	
6187	0	31480	
6188	0	31496	
6189	0	31520	
6190	0	31538	
6191	0	31560	
6192	0	31548	
6193	0	31528	
6194	0	31516	
6195	0	31520	
6196	0	31532	
6197	0	31556	
6198	0	31548	
6199	0	31536	
6200	0	31526	
6201	0	31528	
6202	0	31544	
6203	0	31572	
6204	0	31600	
6205	0	31600	
6206	0	31588	
6207	0	31596	
6208	0	31604	
6209	0	31616	
6210	0	31636	
6211	0	31636	
6212	0	31624	
6213	0	31640	
6214	0	31668	
6215	0	31684	
6216	0	31708	
6217	0	31716	
6218	0	31688	
6219	0	31664	
6220	0	31648	
6221	0	31668	
6222	0	31688	
6223	0	31720	
6224	0	31744	
6225	0	31776	
6226	0	31812	
6227	0	31820	
6228	0	31844	
6229	0	31860	
6230	0	31888	
6231	0	31916	
6232	0	31944	
6233	0	31956	
6234	0	31948	
6235	0	31936	
6236	0	31936	
6237	0	31952	
6238	0	31928	
6239	0	31932	
6240	0	31940	
6241	0	31956	
6242	0	31976	
6243	0	31972	
6244	0	31984	
6245	0	31992	
6246	0	32024	
6247	0	32048	
6248	0	32088	
6249	0	32116	
6250	0	32120	
6251	0	32108	
6252	0	32116	
6253	0	32104	
6254	0	32128	
6255	0	32144	
6256	0	32168	
6257	0	32176	
6258	0	32184	
6259	0	32168	
6260	0	32148	
6261	0	32138	
6262	0	32148	
6263	0	32180	
6264	0	32200	
6265	0	32236	
6266	0	32252	
6267	0	32256	
6268	0	32262	
6269	0	32292	
6270	0	32298	
6271	0	32300	
6272	0	32308	
6273	0	32348	
6274	0	32360	
6275	0	32364	
6276	0	32368	
6277	0	32366	
6278	0	32382	
6279	0	32368	
6280	0	32336	
6281	0	32338	
6282	0	32348	
6283	0	32364	
6284	0	32388	
6285	0	32412	
6286	0	32412	
6287	0	32436	
6288	0	32440	
6289	0	32448	
6290	0	32490	
6291	0	32512	
6292	0	32532	
6293	0	32524	
6294	0	32532	
6295	0	32526	
6296	0	32520	
6297	0	32528	
6298	0	32540	
6299	0	32536	
6300	0	32500	
6301	0	32516	
6302	0	32528	
6303	0	32536	
6304	0	32544	
6305	0	32556	
6306	0	32556	
6307	0	32568	
6308	0	32608	
6309	0	32652	
6310	0	32682	
6311	0	32672	
6312	0	32656	
6313	0	32656	
6314	0	32668	
6315	0	32668	
6316	0	32684	
6317	0	32694	
6318	0	32688	
6319	0	32672	
6320	0	32680	
6321	0	32704	
6322	0	32704	
6323	0	32734	
6324	0	32756	
6325	0	32764	
6326	0	32768	
6327	0	32740	
6328	0	32720	
6329	0	32728	
6330	0	32740	
6331	0	32764	
6332	0	32768	
6333	0	32768	
6334	0	32760	
6335	0	32772	
6336	0	32800	
6337	0	32828	
6338	0	32826	
6339	0	32832	
6340	0	32840	
6341	0	32836	
6342	0	32832	
6343	0	32840	
6344	0	32836	
6345	0	32864	
6346	0	32876	
6347	0	32896	
6348	0	32908	
6349	0	32928	
6350	0	32928	
6351	0	32919	
6352	0	32932	
6353	0	32926	
6354	0	32904	
6355	0	32898	
6356	0	32890	
6357	0	32892	
6358	0	32892	
6359	0	32904	
6360	0	32922	
6361	0	32940	
6362	0	32964	
6363	0	32980	
6364	0	32984	
6365	0	33000	
6366	0	33008	
6367	0	33004	
6368	0	33024	
6369	0	33012	
6370	0	33008	
6371	0	33016	
6372	0	33048	
6373	0	33070	
6374	0	33088	
6375	0	33108	
6376	0	33104	
6377	0	33072	
6378	0	33072	
6379	0	33066	
6380	0	33072	
6381	0	33084	
6382	0	33074	
6383	0	33040	
6384	0	32998	
6385	0	32996	
6386	0	33008	
6387	0	33064	
6388	0	33088	
6389	0	33120	
6390	0	33128	
6391	0	33136	
6392	0	33120	
6393	0	33088	
6394	0	33088	
6395	0	33092	
6396	0	33104	
6397	0	33100	
6398	0	33112	
6399	0	33100	
6400	0	33124	
6401	0	33148	
6402	0	33174	
6403	0	33192	
6404	0	33180	
6405	0	33172	
6406	0	33168	
6407	0	33164	
6408	0	33176	
6409	0	33188	
6410	0	33212	
6411	0	33202	
6412	0	33192	
6413	0	33208	
6414	0	33208	
6415	0	33188	
6416	0	33168	
6417	0	33148	
6418	0	33148	
6419	0	33132	
6420	0	33140	
6421	0	33156	
6422	0	33144	
6423	0	33168	
6424	0	33172	
6425	0	33204	
6426	0	33228	
6427	0	33240	
6428	0	33268	
6429	0	33264	
6430	0	33244	
6431	0	33248	
6432	0	33238	
6433	0	33248	
6434	0	33264	
6435	0	33272	
6436	0	33276	
6437	0	33256	
6438	0	33240	
6439	0	33256	
6440	0	33276	
6441	0	33268	
6442	0	33264	
6443	0	33264	
6444	0	33280	
6445	0	33276	
6446	0	33260	
6447	0	33272	
6448	0	33276	
6449	0	33284	
6450	0	33292	
6451	0	33272	
6452	0	33256	
6453	0	33248	
6454	0	33236	
6455	0	33248	
6456	0	33260	
6457	0	33276	
6458	0	33268	
6459	0	33276	
6460	0	33296	
6461	0	33312	
6462	0	33316	
6463	0	33344	
6464	0	33380	
6465	0	33384	
6466	0	33372	
6467	0	33384	
6468	0	33396	
6469	0	33424	
6470	0	33460	
6471	0	33448	
6472	0	33448	
6473	0	33456	
6474	0	33428	
6475	0	33404	
6476	0	33400	
6477	0	33436	
6478	0	33464	
6479	0	33496	
6480	0	33480	
6481	0	33472	
6482	0	33508	
6483	0	33588	
6484	0	33626	
6485	0	33632	
6486	0	33572	
6487	0	33502	
6488	0	33432	
6489	0	33376	
6490	0	33350	
6491	0	33316	
6492	0	33296	
6493	0	33300	
6494	0	33296	
6495	0	33268	
6496	0	33216	
6497	0	33160	
6498	0	33188	
6499	0	33208	
6500	0	33220	
6501	0	33260	
6502	0	33296	
6503	0	33316	
6504	0	33364	
6505	0	33422	
6506	0	33456	
6507	0	33508	
6508	0	33576	
6509	0	33636	
6510	0	33676	
6511	0	33640	
6512	0	33600	
6513	0	33572	
6514	0	33596	
6515	0	33596	
6516	0	33612	
6517	0	33640	
6518	0	33704	
6519	0	33742	
6520	0	33768	
6521	0	33824	
6522	0	33888	
6523	0	33940	
6524	0	33962	
6525	0	33968	
6526	0	34044	
6527	0	34156	
6528	0	34256	
6529	0	34300	
6530	0	34264	
6531	0	34176	
6532	0	34072	
6533	0	33980	
6534	0	33928	
6535	0	33924	
6536	0	33936	
6537	0	33936	
6538	0	33940	
6539	0	33912	
6540	0	33876	
6541	0	33884	
6542	0	33900	
6543	0	33912	
6544	0	33962	
6545	0	34036	
6546	0	34096	
6547	0	34152	
6548	0	34210	
6549	0	34280	
6550	0	34312	
6551	0	34292	
6552	0	34252	
6553	0	34184	
6554	0	34148	
6555	0	34140	
6556	0	34140	
6557	0	34096	
6558	0	34060	
6559	0	34016	
6560	0	33916	
6561	0	33748	
6562	0	33560	
6563	0	33336	
6564	0	33144	
6565	0	32920	
6566	0	32744	
6567	0	32640	
6568	0	32636	
6569	0	32692	
6570	0	32748	
6571	0	32806	
6572	0	32844	
6573	0	32844	
6574	0	32836	
6575	0	32860	
6576	0	32872	
6577	0	32892	
6578	0	32904	
6579	0	32892	
6580	0	32876	
6581	0	32864	
6582	0	32892	
6583	0	32928	
6584	0	32952	
6585	0	32956	
6586	0	32978	
6587	0	33006	
6588	0	33024	
6589	0	33040	
6590	0	33088	
6591	0	33108	
6592	0	33140	
6593	0	33156	
6594	0	33196	
6595	0	33208	
6596	0	33204	
6597	0	33180	
6598	0	33204	
6599	0	33248	
6600	0	33258	
6601	0	33274	
6602	0	33308	
6603	0	33348	
6604	0	33408	
6605	0	33432	
6606	0	33476	
6607	0	33506	
6608	0	33512	
6609	0	33512	
6610	0	33524	
6611	0	33544	
6612	0	33564	
6613	0	33572	
6614	0	33564	
6615	0	33524	
6616	0	33440	
6617	0	33332	
6618	0	33164	
6619	0	33016	
6620	0	32800	
6621	0	32446	
6622	0	31968	
6623	0	31372	
6624	0	30740	
6625	0	30220	
6626	0	29866	
6627	0	29668	
6628	0	29644	
6629	0	29782	
6630	0	30074	
6631	0	30600	
6632	0	31248	
6633	0	32032	
6634	0	33064	
6635	0	34250	
6636	0	35496	
6637	0	36884	
6638	0	38464	
6639	0	40248	
6640	0	42284	
6641	0	44504	
6642	0	47044	
6643	0	49752	
6644	0	52520	
6645	0	55408	
6646	0	58432	
6647	0	61400	
6648	0	63272	
6649	0	64216	
6650	0	64700	
6651	0	64912	
6652	0	64960	
6653	0	64932	
6654	0	64864	
6655	0	64772	
6656	0	64648	
6657	0	64538	
6658	0	64416	
6659	0	64276	
6660	0	64164	
6661	0	64024	
6662	0	63904	
6663	0	63492	
6664	0	56680	
6665	0	50224	
6666	0	44304	
6667	0	39176	
6668	0	34802	
6669	0	31160	
6670	0	28248	
6671	0	26048	
6672	0	24656	
6673	0	23926	
6674	0	23542	
6675	0	23292	
6676	0	23070	
6677	0	22872	
6678	0	22704	
6679	0	22572	
6680	0	22508	
6681	0	22572	
6682	0	22652	
6683	0	22781	
6684	0	23000	
6685	0	23316	
6686	0	23740	
6687	0	24392	
6688	0	25154	
6689	0	25896	
6690	0	26584	
6691	0	27204	
6692	0	27660	
6693	0	27988	
6694	0	28252	
6695	0	28480	
6696	0	28688	
6697	0	28908	
6698	0	29064	
6699	0	29184	
6700	0	29232	
6701	0	29252	
6702	0	29288	
6703	0	29312	
6704	0	29340	
6705	0	29336	
6706	0	29340	
6707	0	29356	
6708	0	29392	
6709	0	29434	
6710	0	29464	
6711	0	29488	
6712	0	29540	
6713	0	29588	
6714	0	29642	
6715	0	29708	
6716	0	29774	
6717	0	29796	
6718	0	29816	
6719	0	29860	
6720	0	29904	
6721	0	29956	
6722	0	30040	
6723	0	30116	
6724	0	30176	
6725	0	30232	
6726	0	30280	
6727	0	30316	
6728	0	30340	
6729	0	30388	
6730	0	30436	
6731	0	30480	
6732	0	30540	
6733	0	30584	
6734	0	30608	
6735	0	30668	
6736	0	30716	
6737	0	30756	
6738	0	30788	
6739	0	30804	
6740	0	30824	
6741	0	30872	
6742	0	30900	
6743	0	30944	
6744	0	30976	
6745	0	31028	
6746	0	31072	
6747	0	31144	
6748	0	31212	
6749	0	31256	
6750	0	31268	
6751	0	31304	
6752	0	31336	
6753	0	31368	
6754	0	31410	
6755	0	31440	
6756	0	31492	
6757	0	31512	
6758	0	31516	
6759	0	31540	
6760	0	31616	
6761	0	31640	
6762	0	31688	
6763	0	31752	
6764	0	31784	
6765	0	31804	
6766	0	31824	
6767	0	31850	
6768	0	31868	
6769	0	31884	
6770	0	31900	
6771	0	31940	
6772	0	31996	
6773	0	32040	
6774	0	32088	
6775	0	32112	
6776	0	32124	
6777	0	32168	
6778	0	32178	
6779	0	32212	
6780	0	32256	
6781	0	32276	
6782	0	32300	
6783	0	32356	
6784	0	32384	
6785	0	32412	
6786	0	32440	
6787	0	32484	
6788	0	32524	
6789	0	32576	
6790	0	32612	
6791	0	32672	
6792	0	32724	
6793	0	32752	
6794	0	32800	
6795	0	32828	
6796	0	32848	
6797	0	32888	
6798	0	32932	
6799	0	32960	
6800	0	32984	
6801	0	33032	
6802	0	33074	
6803	0	33100	
6804	0	33152	
6805	0	33216	
6806	0	33256	
6807	0	33304	
6808	0	33352	
6809	0	33402	
6810	0	33474	
6811	0	33560	
6812	0	33632	
6813	0	33676	
6814	0	33720	
6815	0	33760	
6816	0	33796	
6817	0	33796	
6818	0	33808	
6819	0	33840	
6820	0	33854	
6821	0	33876	
6822	0	33916	
6823	0	33942	
6824	0	34004	
6825	0	34060	
6826	0	34112	
6827	0	34208	
6828	0	34276	
6829	0	34340	
6830	0	34388	
6831	0	34492	
6832	0	34580	
6833	0	34676	
6834	0	34744	
6835	0	34780	
6836	0	34804	
6837	0	34832	
6838	0	34874	
6839	0	34924	
6840	0	34968	
6841	0	35028	
6842	0	35120	
6843	0	35212	
6844	0	35312	
6845	0	35422	
6846	0	35480	
6847	0	35548	
6848	0	35656	
6849	0	35800	
6850	0	35928	
6851	0	36024	
6852	0	36114	
6853	0	36168	
6854	0	36196	
6855	0	36232	
6856	0	36253	
6857	0	36288	
6858	0	36356	
6859	0	36432	
6860	0	36536	
6861	0	36612	
6862	0	36716	
6863	0	36840	
6864	0	36956	
6865	0	37084	
6866	0	37228	
6867	0	37352	
6868	0	37464	
6869	0	37592	
6870	0	37748	
6871	0	37880	
6872	0	38008	
6873	0	38176	
6874	0	38304	
6875	0	38424	
6876	0	38516	
6877	0	38624	
6878	0	38728	
6879	0	38836	
6880	0	38944	
6881	0	39080	
6882	0	39200	
6883	0	39310	
6884	0	39424	
6885	0	39572	
6886	0	39688	
6887	0	39768	
6888	0	39866	
6889	0	39956	
6890	0	40036	
6891	0	40112	
6892	0	40212	
6893	0	40340	
6894	0	40458	
6895	0	40544	
6896	0	40640	
6897	0	40750	
6898	0	40824	
6899	0	40908	
6900	0	41020	
6901	0	41088	
6902	0	41152	
6903	0	41236	
6904	0	41304	
6905	0	41384	
6906	0	41460	
6907	0	41512	
6908	0	41592	
6909	0	41608	
6910	0	41620	
6911	0	41636	
6912	0	41676	
6913	0	41696	
6914	0	41708	
6915	0	41676	
6916	0	41632	
6917	0	41552	
6918	0	41482	
6919	0	41424	
6920	0	41388	
6921	0	41360	
6922	0	41312	
6923	0	41288	
6924	0	41264	
6925	0	41244	
6926	0	41208	
6927	0	41148	
6928	0	41056	
6929	0	40968	
6930	0	40908	
6931	0	40844	
6932	0	40750	
6933	0	40626	
6934	0	40496	
6935	0	40368	
6936	0	40196	
6937	0	39996	
6938	0	39804	
6939	0	39572	
6940	0	39340	
6941	0	39112	
6942	0	38868	
6943	0	38660	
6944	0	38408	
6945	0	38172	
6946	0	37932	
6947	0	37676	
6948	0	37412	
6949	0	37140	
6950	0	36864	
6951	0	36600	
6952	0	36320	
6953	0	35988	
6954	0	35652	
6955	0	35320	
6956	0	34980	
6957	0	34616	
6958	0	34304	
6959	0	33996	
6960	0	33716	
6961	0	33484	
6962	0	33252	
6963	0	33044	
6964	0	32802	
6965	0	32580	
6966	0	32372	
6967	0	32162	
6968	0	31976	
6969	0	31732	
6970	0	31464	
6971	0	31180	
6972	0	30892	
6973	0	30618	
6974	0	30370	
6975	0	30148	
6976	0	29924	
6977	0	29680	
6978	0	29440	
6979	0	29212	
6980	0	28972	
6981	0	28736	
6982	0	28496	
6983	0	28336	
6984	0	28232	
6985	0	28128	
6986	0	28020	
6987	0	27912	
6988	0	27780	
6989	0	27680	
6990	0	27548	
6991	0	27424	
6992	0	27276	
6993	0	27120	
6994	0	26960	
6995	0	26816	
6996	0	26668	
6997	0	26538	
6998	0	26456	
6999	0	26368	
7000	0	26272	
7001	0	26168	
7002	0	26124	
7003	0	26076	
7004	0	26024	
7005	0	26000	
7006	0	26016	
7007	0	26044	
7008	0	26040	
7009	0	26040	
7010	0	25988	
7011	0	25992	
7012	0	25980	
7013	0	25924	
7014	0	25896	
7015	0	25908	
7016	0	25928	
7017	0	25940	
7018	0	25920	
7019	0	25874	
7020	0	25792	
7021	0	25764	
7022	0	25758	
7023	0	25776	
7024	0	25820	
7025	0	25864	
7026	0	25912	
7027	0	25988	
7028	0	26056	
7029	0	26082	
7030	0	26112	
7031	0	26164	
7032	0	26220	
7033	0	26244	
7034	0	26236	
7035	0	26268	
7036	0	26252	
7037	0	26252	
7038	0	26312	
7039	0	26356	
7040	0	26372	
7041	0	26360	
7042	0	26368	
7043	0	26368	
7044	0	26348	
7045	0	26372	
7046	0	26444	
7047	0	26520	
7048	0	26624	
7049	0	26776	
7050	0	26874	
7051	0	26952	
7052	0	27040	
7053	0	27068	
7054	0	27032	
7055	0	26968	
7056	0	26884	
7057	0	26882	
7058	0	26904	
7059	0	26912	
7060	0	26920	
7061	0	26952	
7062	0	26940	
7063	0	26980	
7064	0	27016	
7065	0	27076	
7066	0	27172	
7067	0	27296	
7068	0	27332	
7069	0	27384	
7070	0	27540	
7071	0	27732	
7072	0	27872	
7073	0	27906	
7074	0	27912	
7075	0	27976	
7076	0	28032	
7077	0	28028	
7078	0	28024	
7079	0	28044	
7080	0	28116	
7081	0	28218	
7082	0	28280	
7083	0	28320	
7084	0	28350	
7085	0	28412	
7086	0	28436	
7087	0	28468	
7088	0	28548	
7089	0	28660	
7090	0	28744	
7091	0	28772	
7092	0	28768	
7093	0	28792	
7094	0	28824	
7095	0	28884	
7096	0	28932	
7097	0	28928	
7098	0	28968	
7099	0	29072	
7100	0	29112	
7101	0	29118	
7102	0	29096	
7103	0	29096	
7104	0	29100	
7105	0	29124	
7106	0	29128	
7107	0	29144	
7108	0	29200	
7109	0	29244	
7110	0	29220	
7111	0	29164	
7112	0	29168	
7113	0	29256	
7114	0	29336	
7115	0	29392	
7116	0	29472	
7117	0	29498	
7118	0	29514	
7119	0	29524	
7120	0	29548	
7121	0	29520	
7122	0	29516	
7123	0	29544	
7124	0	29552	
7125	0	29536	
7126	0	29588	
7127	0	29700	
7128	0	29772	
7129	0	29870	
7130	0	29960	
7131	0	29964	
7132	0	29964	
7133	0	29940	
7134	0	29896	
7135	0	29900	
7136	0	29952	
7137	0	30008	
7138	0	30040	
7139	0	30108	
7140	0	30170	
7141	0	30184	
7142	0	30228	
7143	0	30268	
7144	0	30240	
7145	0	30236	
7146	0	30280	
7147	0	30296	
7148	0	30224	
7149	0	30076	
7150	0	29976	
7151	0	29972	
7152	0	29996	
7153	0	30044	
7154	0	30114	
7155	0	30204	
7156	0	30330	
7157	0	30376	
7158	0	30316	
7159	0	30148	
7160	0	30008	
7161	0	29908	
7162	0	29984	
7163	0	30070	
7164	0	30080	
7165	0	30072	
7166	0	30060	
7167	0	30080	
7168	0	30116	
7169	0	30168	
7170	0	30288	
7171	0	30376	
7172	0	30412	
7173	0	30488	
7174	0	30516	
7175	0	30424	
7176	0	30400	
7177	0	30380	
7178	0	30336	
7179	0	30352	
7180	0	30374	
7181	0	30372	
7182	0	30376	
7183	0	30332	
7184	0	30280	
7185	0	30266	
7186	0	30242	
7187	0	30216	
7188	0	30256	
7189	0	30250	
7190	0	30192	
7191	0	30228	
7192	0	30232	
7193	0	30176	
7194	0	30224	
7195	0	30336	
7196	0	30404	
7197	0	30456	
7198	0	30540	
7199	0	30664	
7200	0	30806	
7201	0	30936	
7202	0	31004	
7203	0	30954	
7204	0	30828	
7205	0	30780	
7206	0	30832	
7207	0	30892	
7208	0	30932	
7209	0	30986	
7210	0	31064	
7211	0	31108	
7212	0	31064	
7213	0	30964	
7214	0	30952	
7215	0	31032	
7216	0	31088	
7217	0	31008	
7218	0	30868	
7219	0	30804	
7220	0	30816	
7221	0	30836	
7222	0	30896	
7223	0	30972	
7224	0	31046	
7225	0	31100	
7226	0	31100	
7227	0	31104	
7228	0	31164	
7229	0	31252	
7230	0	31244	
7231	0	31144	
7232	0	31000	
7233	0	30852	
7234	0	30752	
7235	0	30748	
7236	0	30760	
7237	0	30700	
7238	0	30620	
7239	0	30628	
7240	0	30740	
7241	0	30816	
7242	0	30908	
7243	0	31044	
7244	0	31190	
7245	0	31264	
7246	0	31384	
7247	0	31460	
7248	0	31432	
7249	0	31432	
7250	0	31508	
7251	0	31600	
7252	0	31652	
7253	0	31594	
7254	0	31556	
7255	0	31352	
7256	0	31202	
7257	0	31200	
7258	0	31152	
7259	0	31168	
7260	0	31204	
7261	0	31180	
7262	0	31196	
7263	0	31152	
7264	0	31128	
7265	0	31116	
7266	0	31104	
7267	0	31188	
7268	0	31392	
7269	0	31496	
7270	0	31544	
7271	0	31572	
7272	0	31628	
7273	0	31604	
7274	0	31544	
7275	0	31546	
7276	0	31536	
7277	0	31500	
7278	0	31396	
7279	0	31360	
7280	0	31460	
7281	0	31544	
7282	0	31708	
7283	0	31828	
7284	0	31840	
7285	0	31782	
7286	0	31736	
7287	0	31784	
7288	0	31872	
7289	0	32016	
7290	0	32052	
7291	0	32016	
7292	0	32012	
7293	0	31936	
7294	0	31868	
7295	0	31826	
7296	0	31824	
7297	0	31802	
7298	0	31660	
7299	0	31552	
7300	0	31616	
7301	0	31756	
7302	0	31850	
7303	0	31876	
7304	0	31920	
7305	0	31920	
7306	0	31820	
7307	0	31772	
7308	0	31812	
7309	0	31872	
7310	0	31904	
7311	0	31864	
7312	0	31896	
7313	0	31980	
7314	0	32000	
7315	0	32024	
7316	0	31916	
7317	0	31816	
7318	0	31624	
7319	0	31518	
7320	0	31498	
7321	0	31500	
7322	0	31544	
7323	0	31642	
7324	0	31652	
7325	0	31668	
7326	0	31734	
7327	0	31776	
7328	0	31816	
7329	0	31880	
7330	0	31968	
7331	0	32016	
7332	0	32044	
7333	0	31984	
7334	0	31988	
7335	0	32032	
7336	0	31972	
7337	0	31940	
7338	0	31948	
7339	0	31868	
7340	0	31808	
7341	0	31850	
7342	0	31996	
7343	0	32048	
7344	0	32036	
7345	0	32024	
7346	0	32002	
7347	0	32112	
7348	0	32180	
7349	0	32168	
7350	0	32176	
7351	0	32288	
7352	0	32294	
7353	0	32148	
7354	0	32128	
7355	0	32248	
7356	0	32320	
7357	0	32440	
7358	0	32468	
7359	0	32432	
7360	0	32516	
7361	0	32556	
7362	0	32428	
7363	0	32396	
7364	0	32504	
7365	0	32516	
7366	0	32356	
7367	0	32282	
7368	0	32376	
7369	0	32396	
7370	0	32320	
7371	0	32224	
7372	0	32188	
7373	0	32152	
7374	0	32208	
7375	0	32284	
7376	0	32280	
7377	0	32288	
7378	0	32304	
7379	0	32292	
7380	0	32264	
7381	0	32320	
7382	0	32424	
7383	0	32520	
7384	0	32604	
7385	0	32594	
7386	0	32634	
7387	0	32728	
7388	0	32752	
7389	0	32784	
7390	0	32728	
7391	0	32760	
7392	0	32824	
7393	0	32840	
7394	0	32832	
7395	0	32752	
7396	0	32666	
7397	0	32552	
7398	0	32482	
7399	0	32484	
7400	0	32340	
7401	0	32204	
7402	0	32072	
7403	0	32088	
7404	0	32156	
7405	0	32308	
7406	0	32400	
7407	0	32476	
7408	0	32632	
7409	0	32696	
7410	0	32772	
7411	0	32694	
7412	0	32648	
7413	0	32620	
7414	0	32684	
7415	0	32788	
7416	0	32770	
7417	0	32544	
7418	0	32460	
7419	0	32324	
7420	0	32180	
7421	0	32112	
7422	0	32058	
7423	0	32268	
7424	0	32504	
7425	0	32616	
7426	0	32744	
7427	0	32972	
7428	0	33168	
7429	0	33240	
7430	0	33204	
7431	0	33140	
7432	0	33064	
7433	0	33044	
7434	0	33112	
7435	0	33100	
7436	0	33024	
7437	0	32984	
7438	0	33152	
7439	0	33152	
7440	0	32948	
7441	0	32968	
7442	0	32960	
7443	0	32850	
7444	0	32784	
7445	0	32892	
7446	0	32952	
7447	0	33092	
7448	0	33160	
7449	0	32962	
7450	0	32728	
7451	0	32706	
7452	0	32736	
7453	0	32720	
7454	0	32800	
7455	0	32784	
7456	0	32778	
7457	0	32944	
7458	0	33140	
7459	0	33276	
7460	0	33224	
7461	0	33164	
7462	0	33168	
7463	0	33272	
7464	0	33304	
7465	0	33360	
7466	0	33312	
7467	0	33224	
7468	0	33076	
7469	0	33036	
7470	0	33088	
7471	0	33120	
7472	0	33172	
7473	0	33332	
7474	0	33442	
7475	0	33436	
7476	0	33368	
7477	0	33216	
7478	0	33084	
7479	0	32960	
7480	0	32904	
7481	0	32832	
7482	0	32972	
7483	0	33156	
7484	0	33168	
7485	0	33176	
7486	0	33078	
7487	0	32928	
7488	0	33040	
7489	0	33260	
7490	0	33484	
7491	0	33612	
7492	0	33472	
7493	0	33376	
7494	0	33388	
7495	0	33548	
7496	0	33696	
7497	0	33696	
7498	0	33760	
7499	0	33656	
7500	0	33612	
7501	0	33664	
7502	0	33732	
7503	0	33636	
7504	0	33456	
7505	0	33376	
7506	0	33373	
7507	0	33540	
7508	0	33832	
7509	0	33900	
7510	0	33888	
7511	0	34030	
7512	0	34192	
7513	0	34296	
7514	0	34332	
7515	0	34248	
7516	0	33992	
7517	0	33784	
7518	0	33900	
7519	0	33880	
7520	0	33888	
7521	0	33832	
7522	0	33666	
7523	0	33596	
7524	0	33744	
7525	0	33648	
7526	0	33434	
7527	0	33484	
7528	0	33700	
7529	0	33844	
7530	0	33848	
7531	0	33844	
7532	0	33896	
7533	0	33880	
7534	0	33672	
7535	0	33664	
7536	0	33856	
7537	0	34024	
7538	0	34052	
7539	0	34040	
7540	0	33908	
7541	0	33876	
7542	0	33726	
7543	0	33448	
7544	0	33338	
7545	0	33356	
7546	0	33392	
7547	0	33364	
7548	0	33424	
7549	0	33540	
7550	0	33404	
7551	0	33300	
7552	0	33252	
7553	0	33168	
7554	0	33252	
7555	0	33544	
7556	0	33972	
7557	0	34380	
7558	0	34784	
7559	0	35100	
7560	0	35224	
7561	0	35096	
7562	0	35070	
7563	0	35248	
7564	0	35488	
7565	0	35653	
7566	0	35688	
7567	0	35584	
7568	0	35496	
7569	0	35476	
7570	0	35424	
7571	0	35174	
7572	0	35008	
7573	0	34688	
7574	0	34616	
7575	0	34740	
7576	0	34756	
7577	0	34728	
7578	0	34636	
7579	0	34508	
7580	0	34500	
7581	0	34808	
7582	0	35020	
7583	0	35240	
7584	0	35428	
7585	0	35596	
7586	0	35736	
7587	0	35716	
7588	0	35568	
7589	0	35308	
7590	0	35176	
7591	0	35176	
7592	0	35120	
7593	0	34920	
7594	0	34800	
7595	0	34680	
7596	0	34702	
7597	0	34816	
7598	0	34840	
7599	0	34580	
7600	0	34372	
7601	0	34164	
7602	0	34052	
7603	0	34076	
7604	0	34220	
7605	0	34236	
7606	0	34284	
7607	0	34428	
7608	0	34452	
7609	0	34388	
7610	0	34392	
7611	0	34436	
7612	0	34338	
7613	0	34240	
7614	0	34272	
7615	0	34276	
7616	0	34236	
7617	0	34260	
7618	0	34420	
7619	0	34496	
7620	0	34576	
7621	0	34600	
7622	0	34488	
7623	0	34452	
7624	0	34670	
7625	0	34916	
7626	0	35204	
7627	0	35184	
7628	0	35024	
7629	0	35072	
7630	0	35168	
7631	0	35296	
7632	0	35438	
7633	0	35384	
7634	0	35456	
7635	0	35628	
7636	0	35578	
7637	0	35416	
7638	0	35530	
7639	0	35512	
7640	0	35364	
7641	0	35168	
7642	0	35032	
7643	0	34996	
7644	0	35196	
7645	0	35328	
7646	0	35424	
7647	0	35516	
7648	0	35384	
7649	0	35578	
7650	0	35796	
7651	0	35748	
7652	0	35800	
7653	0	35772	
7654	0	35448	
7655	0	34984	
7656	0	34568	
7657	0	34164	
7658	0	33512	
7659	0	32886	
7660	0	32356	
7661	0	31696	
7662	0	31288	
7663	0	31080	
7664	0	31028	
7665	0	31084	
7666	0	31276	
7667	0	31712	
7668	0	32240	
7669	0	32864	
7670	0	34016	
7671	0	35664	
7672	0	37188	
7673	0	38568	
7674	0	40104	
7675	0	41804	
7676	0	43736	
7677	0	45964	
7678	0	48284	
7679	0	50656	
7680	0	53428	
7681	0	56320	
7682	0	59372	
7683	0	61900	
7684	0	63256	
7685	0	63952	
7686	0	64256	
7687	0	64388	
7688	0	64408	
7689	0	64352	
7690	0	64272	
7691	0	64168	
7692	0	64048	
7693	0	63944	
7694	0	63812	
7695	0	63692	
7696	0	63576	
7697	0	63452	
7698	0	63336	
7699	0	63200	
7700	0	63088	
7701	0	58724	
7702	0	52216	
7703	0	46824	
7704	0	41920	
7705	0	37772	
7706	0	34520	
7707	0	32312	
7708	0	30836	
7709	0	29820	
7710	0	29108	
7711	0	28588	
7712	0	28024	
7713	0	27568	
7714	0	27204	
7715	0	26738	
7716	0	26252	
7717	0	25742	
7718	0	25760	
7719	0	25776	
7720	0	25632	
7721	0	25684	
7722	0	25844	
7723	0	26052	
7724	0	26204	
7725	0	26402	
7726	0	26638	
7727	0	26956	
7728	0	27552	
7729	0	28174	
7730	0	28524	
7731	0	28600	
7732	0	28944	
7733	0	29528	
7734	0	29976	
7735	0	30252	
7736	0	30496	
7737	0	30664	
7738	0	30864	
7739	0	31232	
7740	0	31464	
7741	0	31448	
7742	0	31204	
7743	0	30868	
7744	0	30620	
7745	0	30852	
7746	0	31192	
7747	0	31448	
7748	0	31696	
7749	0	31690	
7750	0	31720	
7751	0	31764	
7752	0	31636	
7753	0	31560	
7754	0	31664	
7755	0	31668	
7756	0	31556	
7757	0	31568	
7758	0	31628	
7759	0	31768	
7760	0	31732	
7761	0	31696	
7762	0	31860	
7763	0	32036	
7764	0	32208	
7765	0	32320	
7766	0	32168	
7767	0	32076	
7768	0	31964	
7769	0	31844	
7770	0	32050	
7771	0	32144	
7772	0	32024	
7773	0	31940	
7774	0	31808	
7775	0	31820	
7776	0	31968	
7777	0	32240	
7778	0	32432	
7779	0	32860	
7780	0	33072	
7781	0	32920	
7782	0	32414	
7783	0	32296	
7784	0	32532	
7785	0	33040	
7786	0	33100	
7787	0	33156	
7788	0	33176	
7789	0	33196	
7790	0	33352	
7791	0	33332	
7792	0	32872	
7793	0	32804	
7794	0	32900	
7795	0	32964	
7796	0	33004	
7797	0	33136	
7798	0	33496	
7799	0	33696	
7800	0	33640	
7801	0	33816	
7802	0	34012	
7803	0	34156	
7804	0	34404	
7805	0	34344	
7806	0	34236	
7807	0	34088	
7808	0	34268	
7809	0	34334	
7810	0	34292	
7811	0	34536	
7812	0	34740	
7813	0	35034	
7814	0	35320	
7815	0	35604	
7816	0	35800	
7817	0	35756	
7818	0	35424	
7819	0	35080	
7820	0	35264	
7821	0	35484	
7822	0	35244	
7823	0	35040	
7824	0	35016	
7825	0	35156	
7826	0	35060	
7827	0	35048	
7828	0	35196	
7829	0	35184	
7830	0	35228	
7831	0	35436	
7832	0	35648	
7833	0	35872	
7834	0	35792	
7835	0	35620	
7836	0	35906	
7837	0	36064	
7838	0	36164	
7839	0	36492	
7840	0	36592	
7841	0	36368	
7842	0	36028	
7843	0	35876	
7844	0	35624	
7845	0	35096	
7846	0	34736	
7847	0	35000	
7848	0	35436	
7849	0	35568	
7850	0	35904	
7851	0	36280	
7852	0	36528	
7853	0	36616	
7854	0	36628	
7855	0	36400	
7856	0	36356	
7857	0	36332	
7858	0	36336	
7859	0	36408	
7860	0	36488	
7861	0	36668	
7862	0	36660	
7863	0	36678	
7864	0	36484	
7865	0	36168	
7866	0	35980	
7867	0	35972	
7868	0	36180	
7869	0	36492	
7870	0	36624	
7871	0	36808	
7872	0	37100	
7873	0	37224	
7874	0	37300	
7875	0	37464	
7876	0	37288	
7877	0	37372	
7878	0	37472	
7879	0	37800	
7880	0	38012	
7881	0	37780	
7882	0	38028	
7883	0	38356	
7884	0	38188	
7885	0	38248	
7886	0	38576	
7887	0	38888	
7888	0	38856	
7889	0	38704	
7890	0	38960	
7891	0	39356	
7892	0	39608	
7893	0	39740	
7894	0	39612	
7895	0	39328	
7896	0	39116	
7897	0	39216	
7898	0	39136	
7899	0	39248	
7900	0	39644	
7901	0	40216	
7902	0	40608	
7903	0	40732	
7904	0	40816	
7905	0	41064	
7906	0	41048	
7907	0	40860	
7908	0	40740	
7909	0	40820	
7910	0	40912	
7911	0	40936	
7912	0	40716	
7913	0	40508	
7914	0	40488	
7915	0	41002	
7916	0	41304	
7917	0	41632	
7918	0	42020	
7919	0	42096	
7920	0	41944	
7921	0	41808	
7922	0	41828	
7923	0	42052	
7924	0	42248	
7925	0	42794	
7926	0	43208	
7927	0	43408	
7928	0	43540	
7929	0	43648	
7930	0	43708	
7931	0	43580	
7932	0	43560	
7933	0	44120	
7934	0	44952	
7935	0	45272	
7936	0	44828	
7937	0	44212	
7938	0	43804	
7939	0	43556	
7940	0	43740	
7941	0	43880	
7942	0	43712	
7943	0	43900	
7944	0	44406	
7945	0	44444	
7946	0	44500	
7947	0	44512	
7948	0	44520	
7949	0	44754	
7950	0	45108	
7951	0	45544	
7952	0	45372	
7953	0	45300	
7954	0	44852	
7955	0	44408	
7956	0	44224	
7957	0	43896	
7958	0	43808	
7959	0	43908	
7960	0	44264	
7961	0	44404	
7962	0	44348	
7963	0	44288	
7964	0	44312	
7965	0	44264	
7966	0	43962	
7967	0	43372	
7968	0	42816	
7969	0	42352	
7970	0	42024	
7971	0	41512	
7972	0	41372	
7973	0	41544	
7974	0	42048	
7975	0	42512	
7976	0	42624	
7977	0	42574	
7978	0	42520	
7979	0	42348	
7980	0	42000	
7981	0	41984	
7982	0	41772	
7983	0	41588	
7984	0	41244	
7985	0	40808	
7986	0	40336	
7987	0	39748	
7988	0	39312	
7989	0	39012	
7990	0	38832	
7991	0	38252	
7992	0	37504	
7993	0	37132	
7994	0	36736	
7995	0	36128	
7996	0	35320	
7997	0	34824	
7998	0	34724	
7999	0	34444	
8000	0	33976	
8001	0	33676	
8002	0	33516	
8003	0	33460	
8004	0	33348	
8005	0	32964	
8006	0	32784	
8007	0	32960	
8008	0	33324	
8009	0	33244	
8010	0	33124	
8011	0	32736	
8012	0	32312	
8013	0	31904	
8014	0	31444	
8015	0	31200	
8016	0	31398	
8017	0	31892	
8018	0	31800	
8019	0	31244	
8020	0	30760	
8021	0	30152	
8022	0	29784	
8023	0	29558	
8024	0	29360	
8025	0	29312	
8026	0	29012	
8027	0	28724	
8028	0	28760	
8029	0	29040	
8030	0	29568	
8031	0	29392	
8032	0	28916	
8033	0	29116	
8034	0	29320	
8035	0	29160	
8036	0	29052	
8037	0	29020	
8038	0	29060	
8039	0	28768	
8040	0	28756	
8041	0	29124	
8042	0	29580	
8043	0	29896	
8044	0	30004	
8045	0	30040	
8046	0	29920	
8047	0	30106	
8048	0	30040	
8049	0	29800	
8050	0	29368	
8051	0	29042	
8052	0	28490	
8053	0	28285	
8054	0	28152	
8055	0	27840	
8056	0	27600	
8057	0	27760	
8058	0	27732	
8059	0	27844	
8060	0	27944	
8061	0	27608	
8062	0	27240	
8063	0	27248	
8064	0	27634	
8065	0	28334	
8066	0	29176	
8067	0	29332	
8068	0	29032	
8069	0	29336	
8070	0	29780	
8071	0	29872	
8072	0	29340	
8073	0	28528	
8074	0	28452	
8075	0	28672	
8076	0	28744	
8077	0	28784	
8078	0	29308	
8079	0	29248	
8080	0	28852	
8081	0	28780	
8082	0	28764	
8083	0	28648	
8084	0	28352	
8085	0	28684	
8086	0	28872	
8087	0	29028	
8088	0	29204	
8089	0	29560	
8090	0	30176	
8091	0	30588	
8092	0	30752	
8093	0	30224	
8094	0	29684	
8095	0	29560	
8096	0	29768	
8097	0	30304	
8098	0	30636	
8099	0	30120	
8100	0	28912	
8101	0	28304	
8102	0	28280	
8103	0	27912	
8104	0	27548	
8105	0	27628	
8106	0	27904	
8107	0	28732	
8108	0	29280	
8109	0	29604	
8110	0	30784	
8111	0	31430	
8112	0	31652	
8113	0	31340	
8114	0	31000	
8115	0	30496	
8116	0	29892	
8117	0	29836	
8118	0	29832	
8119	0	29484	
8120	0	28918	
8121	0	29054	
8122	0	29164	
8123	0	28996	
8124	0	28964	
8125	0	28720	
8126	0	28426	
8127	0	28764	
8128	0	30182	
8129	0	31310	
8130	0	31632	
8131	0	32004	
8132	0	31544	
8133	0	30760	
8134	0	30968	
8135	0	31372	
8136	0	31304	
8137	0	30960	
8138	0	30740	
8139	0	31064	
8140	0	31368	
8141	0	31224	
8142	0	30784	
8143	0	30560	
8144	0	30340	
8145	0	30244	
8146	0	29730	
8147	0	29680	
8148	0	29992	
8149	0	30466	
8150	0	30528	
8151	0	30446	
8152	0	29972	
8153	0	29836	
8154	0	30264	
8155	0	30988	
8156	0	31736	
8157	0	31344	
8158	0	30720	
8159	0	30892	
8160	0	32248	
8161	0	32824	
8162	0	32960	
8163	0	32864	
8164	0	31700	
8165	0	30700	
8166	0	30164	
8167	0	29814	
8168	0	29568	
8169	0	29548	
8170	0	29184	
8171	0	28860	
8172	0	28456	
8173	0	28240	
8174	0	28540	
8175	0	29152	
8176	0	29658	
8177	0	30340	
8178	0	30892	
8179	0	32024	
8180	0	32640	
8181	0	33156	
8182	0	34264	
8183	0	34260	
8184	0	33680	
8185	0	33372	
8186	0	32968	
8187	0	32360	
8188	0	31216	
8189	0	30476	
8190	0	29920	
8191	0	30028	
8192	0	30280	
8193	0	31008	
8194	0	30368	
8195	0	28868	
8196	0	28220	
8197	0	27940	
8198	0	27396	
8199	0	27100	
8200	0	27260	
8201	0	27536	
8202	0	27860	
8203	0	28628	
8204	0	29592	
8205	0	30424	
8206	0	31544	
8207	0	31876	
8208	0	31820	
8209	0	32228	
8210	0	32592	
8211	0	32564	
8212	0	31940	
8213	0	31240	
8214	0	31046	
8215	0	31420	
8216	0	32472	
8217	0	33192	
8218	0	32756	
8219	0	31736	
8220	0	30404	
8221	0	28860	
8222	0	28764	
8223	0	29122	
8224	0	28928	
8225	0	29016	
8226	0	29712	
8227	0	30132	
8228	0	29984	
8229	0	29540	
8230	0	29560	
8231	0	29032	
8232	0	28684	
8233	0	28908	
8234	0	29568	
8235	0	30516	
8236	0	31236	
8237	0	31768	
8238	0	31426	
8239	0	30592	
8240	0	29408	
8241	0	27796	
8242	0	27664	
8243	0	28292	
8244	0	28412	
8245	0	29156	
8246	0	30572	
8247	0	31844	
8248	0	32184	
8249	0	32048	
8250	0	31684	
8251	0	31560	
8252	0	31312	
8253	0	30792	
8254	0	30384	
8255	0	30530	
8256	0	30592	
8257	0	30076	
8258	0	29364	
8259	0	29292	
8260	0	29672	
8261	0	30568	
8262	0	31060	
8263	0	31016	
8264	0	31104	
8265	0	31004	
8266	0	31020	
8267	0	30564	
8268	0	29296	
8269	0	27976	
8270	0	27176	
8271	0	26782	
8272	0	27504	
8273	0	28888	
8274	0	29812	
8275	0	30218	
8276	0	29888	
8277	0	29228	
8278	0	28868	
8279	0	28940	
8280	0	28208	
8281	0	27852	
8282	0	28192	
8283	0	28908	
8284	0	29688	
8285	0	29514	
8286	0	29616	
8287	0	30432	
8288	0	31256	
8289	0	31712	
8290	0	31904	
8291	0	30961	
8292	0	28996	
8293	0	27384	
8294	0	26804	
8295	0	26880	
8296	0	27432	
8297	0	28724	
8298	0	29504	
8299	0	30146	
8300	0	31214	
8301	0	32348	
8302	0	32728	
8303	0	31872	
8304	0	30960	
8305	0	29896	
8306	0	29244	
8307	0	29040	
8308	0	29204	
8309	0	29828	
8310	0	29744	
8311	0	29284	
8312	0	28716	
8313	0	28304	
8314	0	28144	
8315	0	28412	
8316	0	29488	
8317	0	30700	
8318	0	31364	
8319	0	31870	
8320	0	31684	
8321	0	30484	
8322	0	29160	
8323	0	27976	
8324	0	27296	
8325	0	28048	
8326	0	29100	
8327	0	29952	
8328	0	30720	
8329	0	31000	
8330	0	30592	
8331	0	30124	
8332	0	29960	
8333	0	29768	
8334	0	28920	
8335	0	28398	
8336	0	28544	
8337	0	28714	
8338	0	29196	
8339	0	29720	
8340	0	30376	
8341	0	30740	
8342	0	31104	
8343	0	31132	
8344	0	30960	
8345	0	30412	
8346	0	29336	
8347	0	28388	
8348	0	28028	
8349	0	27728	
8350	0	28264	
8351	0	29864	
8352	0	31296	
8353	0	32500	
8354	0	32992	
8355	0	32792	
8356	0	31700	
8357	0	29824	
8358	0	28424	
8359	0	28340	
8360	0	28292	
8361	0	28056	
8362	0	28104	
8363	0	28448	
8364	0	28776	
8365	0	29356	
8366	0	29816	
8367	0	29776	
8368	0	29304	
8369	0	29240	
8370	0	29172	
8371	0	28904	
8372	0	28632	
8373	0	28588	
8374	0	28340	
8375	0	28120	
8376	0	28448	
8377	0	29004	
8378	0	29476	
8379	0	29608	
8380	0	29966	
8381	0	29888	
8382	0	29272	
8383	0	28876	
8384	0	28644	
8385	0	28200	
8386	0	27960	
8387	0	28064	
8388	0	28416	
8389	0	28988	
8390	0	28832	
8391	0	28788	
8392	0	28837	
8393	0	28872	
8394	0	28984	
8395	0	29108	
8396	0	29624	
8397	0	30124	
8398	0	30654	
8399	0	31192	
8400	0	31340	
8401	0	31416	
8402	0	31448	
8403	0	31008	
8404	0	30492	
8405	0	30236	
8406	0	30208	
8407	0	30076	
8408	0	30230	
8409	0	30708	
8410	0	31168	
8411	0	31196	
8412	0	30868	
8413	0	30408	
8414	0	30352	
8415	0	30372	
8416	0	30508	
8417	0	30420	
8418	0	30320	
8419	0	30476	
8420	0	30844	
8421	0	30948	
8422	0	30433	
8423	0	30440	
8424	0	30844	
8425	0	30976	
8426	0	30860	
8427	0	30992	
8428	0	30956	
8429	0	30904	
8430	0	30844	
8431	0	30564	
8432	0	30470	
8433	0	30436	
8434	0	30334	
8435	0	30024	
8436	0	30216	
8437	0	30100	
8438	0	29916	
8439	0	29276	
8440	0	29144	
8441	0	29472	
8442	0	29972	
8443	0	30092	
8444	0	29716	
8445	0	29568	
8446	0	29476	
8447	0	29312	
8448	0	29292	
8449	0	29568	
8450	0	30352	
8451	0	31344	
8452	0	31996	
8453	0	31924	
8454	0	31720	
8455	0	31296	
8456	0	29824	
8457	0	28298	
8458	0	28092	
8459	0	28212	
8460	0	27982	
8461	0	28012	
8462	0	28396	
8463	0	28960	
8464	0	29554	
8465	0	30092	
8466	0	30628	
8467	0	31008	
8468	0	30508	
8469	0	29700	
8470	0	29252	
8471	0	28676	
8472	0	28292	
8473	0	28436	
8474	0	28464	
8475	0	28340	
8476	0	28932	
8477	0	29828	
8478	0	29772	
8479	0	29754	
8480	0	30138	
8481	0	30604	
8482	0	30820	
8483	0	30500	
8484	0	30084	
8485	0	29460	
8486	0	28936	
8487	0	28610	
8488	0	28440	
8489	0	28556	
8490	0	28748	
8491	0	29120	
8492	0	29056	
8493	0	28580	
8494	0	27942	
8495	0	27182	
8496	0	26516	
8497	0	26156	
8498	0	26084	
8499	0	26404	
8500	0	26708	
8501	0	26968	
8502	0	27644	
8503	0	28440	
8504	0	29376	
8505	0	30476	
8506	0	31828	
8507	0	33280	
8508	0	34940	
8509	0	37328	
8510	0	39976	
8511	0	42320	
8512	0	44596	
8513	0	46880	
8514	0	49176	
8515	0	51532	
8516	0	54260	
8517	0	57328	
8518	0	60204	
8519	0	61808	
8520	0	62636	
8521	0	63048	
8522	0	63200	
8523	0	63232	
8524	0	63208	
8525	0	63136	
8526	0	63048	
8527	0	62944	
8528	0	62832	
8529	0	62712	
8530	0	62600	
8531	0	62480	
8532	0	62368	
8533	0	59460	
8534	0	53508	
8535	0	47968	
8536	0	42532	
8537	0	37400	
8538	0	32992	
8539	0	29512	
8540	0	27104	
8541	0	25936	
8542	0	25456	
8543	0	25044	
8544	0	24662	
8545	0	24304	
8546	0	23806	
8547	0	23412	
8548	0	22808	
8549	0	22306	
8550	0	22020	
8551	0	22024	
8552	0	21890	
8553	0	21780	
8554	0	21710	
8555	0	21968	
8556	0	22180	
8557	0	22212	
8558	0	22048	
8559	0	21912	
8560	0	21928	
8561	0	22140	
8562	0	22540	
8563	0	22936	
8564	0	23438	
8565	0	24068	
8566	0	24656	
8567	0	24960	
8568	0	24720	
8569	0	24384	
8570	0	24124	
8571	0	24060	
8572	0	24216	
8573	0	24472	
8574	0	24820	
8575	0	25100	
8576	0	25384	
8577	0	25806	
8578	0	26000	
8579	0	26272	
8580	0	26552	
8581	0	26720	
8582	0	26480	
8583	0	26192	
8584	0	25934	
8585	0	25908	
8586	0	26060	
8587	0	26224	
8588	0	26312	
8589	0	26368	
8590	0	26432	
8591	0	26544	
