# OpenSignals Text File Format. Version 1
# {"00:07:80:4B:15:F7": {"position": 0, "device": "biosignalsplux", "device name": "00:07:80:4B:15:F7", "device connection": "BTH00:07:80:4B:15:F7", "sampling rate": 1000, "resolution": [16], "firmware version": 775, "comments": "", "keywords": "", "mode": 0, "sync interval": 2, "date": "2023-4-27", "time": "16:35:51.512", "channels": [1], "sensor": ["ECG"], "label": ["CH1"], "column": ["nSeq", "DI", "CH1"], "special": [{"SpO2": [80, 40, 5, 4, 3, 3]}, {"SpO2": [80, 40, 5, 4, 3, 3]}, {"SpO2": [80, 40, 5, 4, 3, 3]}, {"SpO2": [80, 40, 5, 4, 3, 3]}, {"SpO2": [80, 40, 5, 4, 3, 3]}, {"SpO2": [80, 40, 5, 4, 3, 3]}, {"SpO2": [80, 40, 5, 4, 3, 3]}, {"SpO2": [80, 40, 5, 4, 3, 3]}], "digital IO": [0, 1], "sleeve color": ["green"], "convertedValues": 0}}
# EndOfHeader
0	0	31732	
1	0	31708	
2	0	31684	
3	0	31640	
4	0	31596	
5	0	31552	
6	0	31492	
7	0	31416	
8	0	31340	
9	0	31264	
10	0	31196	
11	0	31128	
12	0	31076	
13	0	31016	
14	0	30980	
15	0	30932	
16	0	30884	
17	0	30841	
18	0	30824	
19	0	30816	
20	0	30808	
21	0	30804	
22	0	30796	
23	0	30812	
24	0	30852	
25	0	30876	
26	0	30864	
27	0	30872	
28	0	30832	
29	0	30816	
30	0	30789	
31	0	30812	
32	0	30836	
33	0	30828	
34	0	30836	
35	0	30836	
36	0	30824	
37	0	30826	
38	0	30820	
39	0	30830	
40	0	30804	
41	0	30792	
42	0	30816	
43	0	30816	
44	0	30828	
45	0	30832	
46	0	30841	
47	0	30868	
48	0	30888	
49	0	30886	
50	0	30904	
51	0	30932	
52	0	30984	
53	0	31024	
54	0	31052	
55	0	31064	
56	0	31092	
57	0	31084	
58	0	31048	
59	0	31026	
60	0	31040	
61	0	31060	
62	0	31084	
63	0	31092	
64	0	31108	
65	0	31132	
66	0	31144	
67	0	31120	
68	0	31124	
69	0	31164	
70	0	31224	
71	0	31264	
72	0	31304	
73	0	31322	
74	0	31356	
75	0	31388	
76	0	31444	
77	0	31484	
78	0	31492	
79	0	31516	
80	0	31520	
81	0	31504	
82	0	31496	
83	0	31492	
84	0	31512	
85	0	31516	
86	0	31528	
87	0	31540	
88	0	31552	
89	0	31548	
90	0	31540	
91	0	31532	
92	0	31556	
93	0	31580	
94	0	31566	
95	0	31568	
96	0	31560	
97	0	31580	
98	0	31600	
99	0	31618	
100	0	31616	
101	0	31608	
102	0	31624	
103	0	31660	
104	0	31688	
105	0	31700	
106	0	31700	
107	0	31696	
108	0	31692	
109	0	31692	
110	0	31692	
111	0	31676	
112	0	31648	
113	0	31650	
114	0	31660	
115	0	31660	
116	0	31680	
117	0	31712	
118	0	31732	
119	0	31740	
120	0	31760	
121	0	31764	
122	0	31796	
123	0	31828	
124	0	31856	
125	0	31824	
126	0	31796	
127	0	31780	
128	0	31745	
129	0	31724	
130	0	31724	
131	0	31712	
132	0	31700	
133	0	31708	
134	0	31712	
135	0	31728	
136	0	31728	
137	0	31736	
138	0	31754	
139	0	31780	
140	0	31808	
141	0	31820	
142	0	31840	
143	0	31828	
144	0	31820	
145	0	31792	
146	0	31780	
147	0	31784	
148	0	31756	
149	0	31756	
150	0	31760	
151	0	31772	
152	0	31768	
153	0	31780	
154	0	31776	
155	0	31792	
156	0	31810	
157	0	31800	
158	0	31794	
159	0	31784	
160	0	31776	
161	0	31796	
162	0	31808	
163	0	31776	
164	0	31768	
165	0	31808	
166	0	31852	
167	0	31876	
168	0	31862	
169	0	31816	
170	0	31800	
171	0	31804	
172	0	31816	
173	0	31832	
174	0	31856	
175	0	31848	
176	0	31872	
177	0	31904	
178	0	31924	
179	0	31928	
180	0	31924	
181	0	31920	
182	0	31916	
183	0	31944	
184	0	31992	
185	0	32036	
186	0	32048	
187	0	32044	
188	0	32047	
189	0	32034	
190	0	32016	
191	0	32004	
192	0	31956	
193	0	31912	
194	0	31860	
195	0	31824	
196	0	31836	
197	0	31856	
198	0	31880	
199	0	31888	
200	0	31888	
201	0	31900	
202	0	31900	
203	0	31912	
204	0	31944	
205	0	31940	
206	0	31936	
207	0	31978	
208	0	31984	
209	0	31960	
210	0	31936	
211	0	31944	
212	0	31946	
213	0	31952	
214	0	31930	
215	0	31936	
216	0	31972	
217	0	31984	
218	0	32000	
219	0	32052	
220	0	32076	
221	0	32078	
222	0	32064	
223	0	32044	
224	0	32020	
225	0	32024	
226	0	32024	
227	0	32048	
228	0	32072	
229	0	32104	
230	0	32108	
231	0	32128	
232	0	32140	
233	0	32152	
234	0	32140	
235	0	32136	
236	0	32128	
237	0	32128	
238	0	32124	
239	0	32136	
240	0	32116	
241	0	32116	
242	0	32120	
243	0	32128	
244	0	32136	
245	0	32104	
246	0	32100	
247	0	32124	
248	0	32170	
249	0	32192	
250	0	32164	
251	0	32164	
252	0	32184	
253	0	32200	
254	0	32220	
255	0	32248	
256	0	32256	
257	0	32264	
258	0	32264	
259	0	32272	
260	0	32276	
261	0	32248	
262	0	32232	
263	0	32256	
264	0	32260	
265	0	32280	
266	0	32312	
267	0	32360	
268	0	32380	
269	0	32404	
270	0	32426	
271	0	32452	
272	0	32448	
273	0	32416	
274	0	32432	
275	0	32448	
276	0	32480	
277	0	32496	
278	0	32532	
279	0	32542	
280	0	32564	
281	0	32576	
282	0	32536	
283	0	32484	
284	0	32434	
285	0	32400	
286	0	32384	
287	0	32392	
288	0	32410	
289	0	32428	
290	0	32448	
291	0	32456	
292	0	32500	
293	0	32528	
294	0	32556	
295	0	32604	
296	0	32640	
297	0	32620	
298	0	32596	
299	0	32556	
300	0	32556	
301	0	32580	
302	0	32592	
303	0	32576	
304	0	32572	
305	0	32582	
306	0	32588	
307	0	32590	
308	0	32570	
309	0	32540	
310	0	32532	
311	0	32536	
312	0	32532	
313	0	32488	
314	0	32456	
315	0	32448	
316	0	32446	
317	0	32440	
318	0	32448	
319	0	32462	
320	0	32496	
321	0	32528	
322	0	32536	
323	0	32524	
324	0	32508	
325	0	32544	
326	0	32600	
327	0	32604	
328	0	32596	
329	0	32604	
330	0	32640	
331	0	32660	
332	0	32676	
333	0	32692	
334	0	32700	
335	0	32744	
336	0	32752	
337	0	32736	
338	0	32734	
339	0	32684	
340	0	32656	
341	0	32676	
342	0	32680	
343	0	32684	
344	0	32668	
345	0	32668	
346	0	32684	
347	0	32696	
348	0	32666	
349	0	32664	
350	0	32688	
351	0	32684	
352	0	32680	
353	0	32672	
354	0	32648	
355	0	32664	
356	0	32666	
357	0	32658	
358	0	32652	
359	0	32640	
360	0	32644	
361	0	32692	
362	0	32760	
363	0	32812	
364	0	32828	
365	0	32860	
366	0	32872	
367	0	32892	
368	0	32856	
369	0	32828	
370	0	32792	
371	0	32804	
372	0	32824	
373	0	32836	
374	0	32836	
375	0	32864	
376	0	32892	
377	0	32896	
378	0	32912	
379	0	32908	
380	0	32868	
381	0	32850	
382	0	32864	
383	0	32872	
384	0	32888	
385	0	32880	
386	0	32860	
387	0	32848	
388	0	32850	
389	0	32856	
390	0	32836	
391	0	32820	
392	0	32816	
393	0	32792	
394	0	32812	
395	0	32848	
396	0	32880	
397	0	32876	
398	0	32888	
399	0	32892	
400	0	32938	
401	0	32968	
402	0	32980	
403	0	32992	
404	0	32988	
405	0	32988	
406	0	33008	
407	0	33044	
408	0	33076	
409	0	33092	
410	0	33104	
411	0	33092	
412	0	33104	
413	0	33104	
414	0	33060	
415	0	33032	
416	0	33044	
417	0	33032	
418	0	33024	
419	0	33028	
420	0	32992	
421	0	32996	
422	0	33020	
423	0	33036	
424	0	33024	
425	0	33012	
426	0	32996	
427	0	32984	
428	0	32972	
429	0	32986	
430	0	33004	
431	0	33048	
432	0	33064	
433	0	33072	
434	0	33124	
435	0	33180	
436	0	33192	
437	0	33168	
438	0	33148	
439	0	33133	
440	0	33120	
441	0	33100	
442	0	33080	
443	0	33092	
444	0	33088	
445	0	33080	
446	0	33092	
447	0	33114	
448	0	33112	
449	0	33104	
450	0	33092	
451	0	33084	
452	0	33084	
453	0	33094	
454	0	33104	
455	0	33122	
456	0	33124	
457	0	33108	
458	0	33102	
459	0	33084	
460	0	33058	
461	0	33048	
462	0	33032	
463	0	32990	
464	0	32984	
465	0	33020	
466	0	33056	
467	0	33064	
468	0	33084	
469	0	33112	
470	0	33108	
471	0	33102	
472	0	33102	
473	0	33114	
474	0	33144	
475	0	33164	
476	0	33172	
477	0	33184	
478	0	33164	
479	0	33136	
480	0	33088	
481	0	33060	
482	0	33090	
483	0	33136	
484	0	33152	
485	0	33180	
486	0	33156	
487	0	33152	
488	0	33152	
489	0	33140	
490	0	33140	
491	0	33180	
492	0	33216	
493	0	33216	
494	0	33208	
495	0	33192	
496	0	33156	
497	0	33136	
498	0	33120	
499	0	33124	
500	0	33160	
501	0	33168	
502	0	33164	
503	0	33156	
504	0	33136	
505	0	33128	
506	0	33128	
507	0	33120	
508	0	33120	
509	0	33112	
510	0	33120	
511	0	33128	
512	0	33124	
513	0	33140	
514	0	33140	
515	0	33156	
516	0	33164	
517	0	33172	
518	0	33144	
519	0	33104	
520	0	33096	
521	0	33106	
522	0	33128	
523	0	33152	
524	0	33188	
525	0	33188	
526	0	33204	
527	0	33192	
528	0	33152	
529	0	33112	
530	0	33096	
531	0	33120	
532	0	33132	
533	0	33140	
534	0	33140	
535	0	33144	
536	0	33120	
537	0	33080	
538	0	33084	
539	0	33112	
540	0	33136	
541	0	33132	
542	0	33104	
543	0	33116	
544	0	33124	
545	0	33164	
546	0	33196	
547	0	33204	
548	0	33208	
549	0	33196	
550	0	33188	
551	0	33156	
552	0	33144	
553	0	33120	
554	0	33120	
555	0	33120	
556	0	33120	
557	0	33144	
558	0	33144	
559	0	33152	
560	0	33116	
561	0	33108	
562	0	33064	
563	0	33036	
564	0	33000	
565	0	33018	
566	0	33038	
567	0	33060	
568	0	33108	
569	0	33116	
570	0	33128	
571	0	33156	
572	0	33156	
573	0	33200	
574	0	33196	
575	0	33176	
576	0	33186	
577	0	33228	
578	0	33232	
579	0	33220	
580	0	33224	
581	0	33212	
582	0	33224	
583	0	33248	
584	0	33248	
585	0	33240	
586	0	33244	
587	0	33234	
588	0	33236	
589	0	33240	
590	0	33252	
591	0	33248	
592	0	33244	
593	0	33240	
594	0	33256	
595	0	33244	
596	0	33220	
597	0	33200	
598	0	33204	
599	0	33208	
600	0	33156	
601	0	33120	
602	0	33084	
603	0	33072	
604	0	33064	
605	0	33096	
606	0	33152	
607	0	33192	
608	0	33244	
609	0	33256	
610	0	33244	
611	0	33212	
612	0	33196	
613	0	33184	
614	0	33152	
615	0	33152	
616	0	33180	
617	0	33208	
618	0	33210	
619	0	33220	
620	0	33256	
621	0	33312	
622	0	33354	
623	0	33396	
624	0	33444	
625	0	33464	
626	0	33452	
627	0	33416	
628	0	33396	
629	0	33318	
630	0	33256	
631	0	33208	
632	0	33180	
633	0	33168	
634	0	33188	
635	0	33212	
636	0	33182	
637	0	33156	
638	0	33128	
639	0	33148	
640	0	33204	
641	0	33304	
642	0	33416	
643	0	33548	
644	0	33664	
645	0	33788	
646	0	33888	
647	0	33940	
648	0	34004	
649	0	34072	
650	0	34176	
651	0	34268	
652	0	34332	
653	0	34428	
654	0	34420	
655	0	34440	
656	0	34468	
657	0	34540	
658	0	34560	
659	0	34532	
660	0	34484	
661	0	34408	
662	0	34296	
663	0	34168	
664	0	34080	
665	0	33988	
666	0	33916	
667	0	33852	
668	0	33800	
669	0	33736	
670	0	33648	
671	0	33594	
672	0	33574	
673	0	33512	
674	0	33464	
675	0	33408	
676	0	33392	
677	0	33352	
678	0	33356	
679	0	33352	
680	0	33336	
681	0	33306	
682	0	33292	
683	0	33252	
684	0	33232	
685	0	33236	
686	0	33212	
687	0	33192	
688	0	33172	
689	0	33144	
690	0	33140	
691	0	33128	
692	0	33128	
693	0	33148	
694	0	33120	
695	0	33096	
696	0	33080	
697	0	33056	
698	0	33048	
699	0	33040	
700	0	33026	
701	0	33000	
702	0	32924	
703	0	32832	
704	0	32756	
705	0	32704	
706	0	32700	
707	0	32706	
708	0	32682	
709	0	32652	
710	0	32648	
711	0	32646	
712	0	32644	
713	0	32624	
714	0	32612	
715	0	32578	
716	0	32560	
717	0	32584	
718	0	32588	
719	0	32596	
720	0	32552	
721	0	32524	
722	0	32508	
723	0	32520	
724	0	32512	
725	0	32496	
726	0	32490	
727	0	32492	
728	0	32520	
729	0	32548	
730	0	32572	
731	0	32572	
732	0	32600	
733	0	32588	
734	0	32576	
735	0	32564	
736	0	32560	
737	0	32566	
738	0	32600	
739	0	32588	
740	0	32572	
741	0	32576	
742	0	32584	
743	0	32568	
744	0	32556	
745	0	32540	
746	0	32536	
747	0	32512	
748	0	32492	
749	0	32508	
750	0	32538	
751	0	32570	
752	0	32590	
753	0	32608	
754	0	32600	
755	0	32608	
756	0	32588	
757	0	32576	
758	0	32544	
759	0	32544	
760	0	32560	
761	0	32572	
762	0	32560	
763	0	32568	
764	0	32588	
765	0	32616	
766	0	32650	
767	0	32700	
768	0	32712	
769	0	32732	
770	0	32760	
771	0	32772	
772	0	32784	
773	0	32816	
774	0	32826	
775	0	32824	
776	0	32786	
777	0	32700	
778	0	32584	
779	0	32440	
780	0	32288	
781	0	32196	
782	0	32324	
783	0	32584	
784	0	32872	
785	0	33172	
786	0	33528	
787	0	33888	
788	0	34210	
789	0	34522	
790	0	34712	
791	0	34896	
792	0	35228	
793	0	35788	
794	0	36492	
795	0	37348	
796	0	38408	
797	0	39620	
798	0	41000	
799	0	42460	
800	0	43992	
801	0	45612	
802	0	47276	
803	0	48968	
804	0	50656	
805	0	52192	
806	0	53492	
807	0	54568	
808	0	55440	
809	0	56436	
810	0	57428	
811	0	58056	
812	0	58208	
813	0	57520	
814	0	55692	
815	0	53004	
816	0	49684	
817	0	45952	
818	0	42248	
819	0	38820	
820	0	35952	
821	0	33836	
822	0	32364	
823	0	31348	
824	0	30752	
825	0	30408	
826	0	30152	
827	0	30052	
828	0	30040	
829	0	30108	
830	0	30228	
831	0	30304	
832	0	30428	
833	0	30538	
834	0	30596	
835	0	30640	
836	0	30718	
837	0	30818	
838	0	30928	
839	0	31064	
840	0	31116	
841	0	31104	
842	0	31064	
843	0	31000	
844	0	30984	
845	0	30976	
846	0	30960	
847	0	30932	
848	0	30900	
849	0	30860	
850	0	30824	
851	0	30768	
852	0	30712	
853	0	30668	
854	0	30636	
855	0	30640	
856	0	30648	
857	0	30660	
858	0	30638	
859	0	30616	
860	0	30604	
861	0	30628	
862	0	30656	
863	0	30676	
864	0	30696	
865	0	30704	
866	0	30696	
867	0	30712	
868	0	30744	
869	0	30744	
870	0	30740	
871	0	30760	
872	0	30796	
873	0	30816	
874	0	30856	
875	0	30880	
876	0	30880	
877	0	30880	
878	0	30928	
879	0	30968	
880	0	30968	
881	0	30970	
882	0	30984	
883	0	30980	
884	0	30972	
885	0	30992	
886	0	31024	
887	0	31044	
888	0	31108	
889	0	31164	
890	0	31210	
891	0	31240	
892	0	31260	
893	0	31264	
894	0	31264	
895	0	31296	
896	0	31338	
897	0	31372	
898	0	31390	
899	0	31380	
900	0	31364	
901	0	31356	
902	0	31364	
903	0	31356	
904	0	31344	
905	0	31388	
906	0	31424	
907	0	31466	
908	0	31468	
909	0	31476	
910	0	31480	
911	0	31536	
912	0	31644	
913	0	31724	
914	0	31784	
915	0	31836	
916	0	31852	
917	0	31876	
918	0	31898	
919	0	31924	
920	0	31962	
921	0	31964	
922	0	31968	
923	0	31992	
924	0	31984	
925	0	32000	
926	0	32028	
927	0	32056	
928	0	32060	
929	0	32064	
930	0	32120	
931	0	32164	
932	0	32192	
933	0	32240	
934	0	32256	
935	0	32256	
936	0	32252	
937	0	32268	
938	0	32284	
939	0	32300	
940	0	32308	
941	0	32304	
942	0	32280	
943	0	32260	
944	0	32282	
945	0	32256	
946	0	32240	
947	0	32232	
948	0	32244	
949	0	32268	
950	0	32320	
951	0	32364	
952	0	32388	
953	0	32408	
954	0	32436	
955	0	32448	
956	0	32460	
957	0	32488	
958	0	32492	
959	0	32512	
960	0	32576	
961	0	32616	
962	0	32620	
963	0	32628	
964	0	32644	
965	0	32640	
966	0	32656	
967	0	32668	
968	0	32672	
969	0	32676	
970	0	32716	
971	0	32738	
972	0	32820	
973	0	32880	
974	0	32884	
975	0	32856	
976	0	32860	
977	0	32886	
978	0	32884	
979	0	32908	
980	0	32922	
981	0	32908	
982	0	32916	
983	0	32916	
984	0	32904	
985	0	32880	
986	0	32872	
987	0	32892	
988	0	32930	
989	0	32936	
990	0	32960	
991	0	33000	
992	0	32992	
993	0	32988	
994	0	32984	
995	0	32996	
996	0	32986	
997	0	33000	
998	0	33034	
999	0	33068	
1000	0	33084	
1001	0	33088	
1002	0	33088	
1003	0	33068	
1004	0	33020	
1005	0	32988	
1006	0	32996	
1007	0	33028	
1008	0	33032	
1009	0	33040	
1010	0	33056	
1011	0	33096	
1012	0	33120	
1013	0	33146	
1014	0	33132	
1015	0	33084	
1016	0	33070	
1017	0	33036	
1018	0	33026	
1019	0	33016	
1020	0	33032	
1021	0	33016	
1022	0	33024	
1023	0	33038	
1024	0	33056	
1025	0	33080	
1026	0	33072	
1027	0	33100	
1028	0	33124	
1029	0	33124	
1030	0	33164	
1031	0	33176	
1032	0	33186	
1033	0	33200	
1034	0	33196	
1035	0	33180	
1036	0	33156	
1037	0	33172	
1038	0	33168	
1039	0	33144	
1040	0	33166	
1041	0	33192	
1042	0	33204	
1043	0	33216	
1044	0	33264	
1045	0	33276	
1046	0	33238	
1047	0	33240	
1048	0	33276	
1049	0	33296	
1050	0	33272	
1051	0	33244	
1052	0	33228	
1053	0	33236	
1054	0	33248	
1055	0	33272	
1056	0	33281	
1057	0	33294	
1058	0	33288	
1059	0	33276	
1060	0	33292	
1061	0	33306	
1062	0	33308	
1063	0	33306	
1064	0	33306	
1065	0	33316	
1066	0	33312	
1067	0	33324	
1068	0	33356	
1069	0	33376	
1070	0	33376	
1071	0	33392	
1072	0	33376	
1073	0	33348	
1074	0	33320	
1075	0	33308	
1076	0	33292	
1077	0	33250	
1078	0	33234	
1079	0	33256	
1080	0	33276	
1081	0	33304	
1082	0	33344	
1083	0	33396	
1084	0	33412	
1085	0	33436	
1086	0	33480	
1087	0	33520	
1088	0	33528	
1089	0	33560	
1090	0	33576	
1091	0	33604	
1092	0	33624	
1093	0	33656	
1094	0	33656	
1095	0	33656	
1096	0	33696	
1097	0	33704	
1098	0	33712	
1099	0	33728	
1100	0	33752	
1101	0	33748	
1102	0	33728	
1103	0	33716	
1104	0	33712	
1105	0	33692	
1106	0	33696	
1107	0	33664	
1108	0	33668	
1109	0	33660	
1110	0	33640	
1111	0	33590	
1112	0	33560	
1113	0	33532	
1114	0	33524	
1115	0	33504	
1116	0	33508	
1117	0	33496	
1118	0	33472	
1119	0	33428	
1120	0	33392	
1121	0	33352	
1122	0	33296	
1123	0	33208	
1124	0	33120	
1125	0	33024	
1126	0	32932	
1127	0	32836	
1128	0	32732	
1129	0	32672	
1130	0	32602	
1131	0	32576	
1132	0	32576	
1133	0	32544	
1134	0	32524	
1135	0	32504	
1136	0	32460	
1137	0	32404	
1138	0	32344	
1139	0	32314	
1140	0	32280	
1141	0	32252	
1142	0	32196	
1143	0	32156	
1144	0	32096	
1145	0	32076	
1146	0	32044	
1147	0	32032	
1148	0	32000	
1149	0	31968	
1150	0	31952	
1151	0	31920	
1152	0	31860	
1153	0	31840	
1154	0	31812	
1155	0	31808	
1156	0	31780	
1157	0	31760	
1158	0	31760	
1159	0	31748	
1160	0	31720	
1161	0	31686	
1162	0	31618	
1163	0	31572	
1164	0	31552	
1165	0	31552	
1166	0	31560	
1167	0	31544	
1168	0	31536	
1169	0	31536	
1170	0	31536	
1171	0	31508	
1172	0	31496	
1173	0	31528	
1174	0	31552	
1175	0	31536	
1176	0	31540	
1177	0	31552	
1178	0	31548	
1179	0	31556	
1180	0	31556	
1181	0	31514	
1182	0	31508	
1183	0	31516	
1184	0	31544	
1185	0	31584	
1186	0	31588	
1187	0	31606	
1188	0	31604	
1189	0	31614	
1190	0	31616	
1191	0	31616	
1192	0	31612	
1193	0	31608	
1194	0	31604	
1195	0	31598	
1196	0	31616	
1197	0	31628	
1198	0	31648	
1199	0	31616	
1200	0	31628	
1201	0	31644	
1202	0	31648	
1203	0	31604	
1204	0	31584	
1205	0	31578	
1206	0	31588	
1207	0	31600	
1208	0	31604	
1209	0	31620	
1210	0	31672	
1211	0	31692	
1212	0	31704	
1213	0	31736	
1214	0	31780	
1215	0	31770	
1216	0	31760	
1217	0	31784	
1218	0	31812	
1219	0	31802	
1220	0	31752	
1221	0	31716	
1222	0	31646	
1223	0	31624	
1224	0	31588	
1225	0	31552	
1226	0	31488	
1227	0	31446	
1228	0	31428	
1229	0	31404	
1230	0	31376	
1231	0	31348	
1232	0	31368	
1233	0	31424	
1234	0	31472	
1235	0	31484	
1236	0	31516	
1237	0	31548	
1238	0	31610	
1239	0	31656	
1240	0	31692	
1241	0	31704	
1242	0	31712	
1243	0	31730	
1244	0	31732	
1245	0	31716	
1246	0	31720	
1247	0	31700	
1248	0	31690	
1249	0	31732	
1250	0	31768	
1251	0	31760	
1252	0	31744	
1253	0	31768	
1254	0	31750	
1255	0	31732	
1256	0	31744	
1257	0	31732	
1258	0	31712	
1259	0	31668	
1260	0	31640	
1261	0	31612	
1262	0	31612	
1263	0	31630	
1264	0	31650	
1265	0	31648	
1266	0	31604	
1267	0	31588	
1268	0	31548	
1269	0	31534	
1270	0	31500	
1271	0	31472	
1272	0	31456	
1273	0	31484	
1274	0	31536	
1275	0	31528	
1276	0	31548	
1277	0	31580	
1278	0	31596	
1279	0	31578	
1280	0	31564	
1281	0	31560	
1282	0	31608	
1283	0	31636	
1284	0	31644	
1285	0	31636	
1286	0	31640	
1287	0	31668	
1288	0	31728	
1289	0	31760	
1290	0	31784	
1291	0	31808	
1292	0	31804	
1293	0	31792	
1294	0	31772	
1295	0	31736	
1296	0	31736	
1297	0	31710	
1298	0	31680	
1299	0	31660	
1300	0	31640	
1301	0	31636	
1302	0	31676	
1303	0	31732	
1304	0	31770	
1305	0	31744	
1306	0	31704	
1307	0	31712	
1308	0	31776	
1309	0	31802	
1310	0	31832	
1311	0	31884	
1312	0	31900	
1313	0	31920	
1314	0	31904	
1315	0	31876	
1316	0	31832	
1317	0	31820	
1318	0	31780	
1319	0	31740	
1320	0	31688	
1321	0	31660	
1322	0	31652	
1323	0	31672	
1324	0	31696	
1325	0	31676	
1326	0	31640	
1327	0	31628	
1328	0	31600	
1329	0	31636	
1330	0	31676	
1331	0	31692	
1332	0	31720	
1333	0	31728	
1334	0	31780	
1335	0	31848	
1336	0	31888	
1337	0	31908	
1338	0	31920	
1339	0	31904	
1340	0	31924	
1341	0	31950	
1342	0	31964	
1343	0	31996	
1344	0	32028	
1345	0	32062	
1346	0	32056	
1347	0	32064	
1348	0	32044	
1349	0	32016	
1350	0	31952	
1351	0	31868	
1352	0	31820	
1353	0	31800	
1354	0	31784	
1355	0	31776	
1356	0	31812	
1357	0	31848	
1358	0	31900	
1359	0	31936	
1360	0	31936	
1361	0	31914	
1362	0	31888	
1363	0	31892	
1364	0	31904	
1365	0	31900	
1366	0	31880	
1367	0	31856	
1368	0	31884	
1369	0	31906	
1370	0	31940	
1371	0	31968	
1372	0	31994	
1373	0	32024	
1374	0	32024	
1375	0	32044	
1376	0	32056	
1377	0	32064	
1378	0	32098	
1379	0	32132	
1380	0	32132	
1381	0	32128	
1382	0	32148	
1383	0	32140	
1384	0	32132	
1385	0	32110	
1386	0	32072	
1387	0	31988	
1388	0	31944	
1389	0	31984	
1390	0	32064	
1391	0	32104	
1392	0	32160	
1393	0	32196	
1394	0	32212	
1395	0	32202	
1396	0	32164	
1397	0	32120	
1398	0	32130	
1399	0	32128	
1400	0	32104	
1401	0	32092	
1402	0	32085	
1403	0	32076	
1404	0	32072	
1405	0	32068	
1406	0	32088	
1407	0	32152	
1408	0	32184	
1409	0	32168	
1410	0	32168	
1411	0	32176	
1412	0	32180	
1413	0	32192	
1414	0	32228	
1415	0	32236	
1416	0	32236	
1417	0	32260	
1418	0	32272	
1419	0	32252	
1420	0	32262	
1421	0	32290	
1422	0	32324	
1423	0	32364	
1424	0	32380	
1425	0	32384	
1426	0	32360	
1427	0	32344	
1428	0	32348	
1429	0	32372	
1430	0	32364	
1431	0	32328	
1432	0	32340	
1433	0	32348	
1434	0	32324	
1435	0	32272	
1436	0	32238	
1437	0	32240	
1438	0	32256	
1439	0	32264	
1440	0	32252	
1441	0	32256	
1442	0	32276	
1443	0	32312	
1444	0	32352	
1445	0	32376	
1446	0	32354	
1447	0	32384	
1448	0	32400	
1449	0	32384	
1450	0	32384	
1451	0	32392	
1452	0	32392	
1453	0	32364	
1454	0	32352	
1455	0	32368	
1456	0	32360	
1457	0	32316	
1458	0	32260	
1459	0	32252	
1460	0	32280	
1461	0	32288	
1462	0	32256	
1463	0	32262	
1464	0	32264	
1465	0	32288	
1466	0	32324	
1467	0	32368	
1468	0	32360	
1469	0	32388	
1470	0	32436	
1471	0	32480	
1472	0	32524	
1473	0	32560	
1474	0	32588	
1475	0	32640	
1476	0	32672	
1477	0	32704	
1478	0	32754	
1479	0	32786	
1480	0	32796	
1481	0	32768	
1482	0	32732	
1483	0	32674	
1484	0	32608	
1485	0	32544	
1486	0	32480	
1487	0	32470	
1488	0	32476	
1489	0	32452	
1490	0	32432	
1491	0	32460	
1492	0	32488	
1493	0	32524	
1494	0	32544	
1495	0	32576	
1496	0	32586	
1497	0	32568	
1498	0	32532	
1499	0	32498	
1500	0	32502	
1501	0	32528	
1502	0	32538	
1503	0	32542	
1504	0	32552	
1505	0	32604	
1506	0	32616	
1507	0	32624	
1508	0	32624	
1509	0	32622	
1510	0	32616	
1511	0	32580	
1512	0	32574	
1513	0	32588	
1514	0	32600	
1515	0	32612	
1516	0	32636	
1517	0	32640	
1518	0	32616	
1519	0	32608	
1520	0	32616	
1521	0	32636	
1522	0	32648	
1523	0	32624	
1524	0	32644	
1525	0	32710	
1526	0	32748	
1527	0	32784	
1528	0	32800	
1529	0	32772	
1530	0	32744	
1531	0	32724	
1532	0	32720	
1533	0	32720	
1534	0	32668	
1535	0	32620	
1536	0	32604	
1537	0	32600	
1538	0	32584	
1539	0	32544	
1540	0	32536	
1541	0	32556	
1542	0	32622	
1543	0	32636	
1544	0	32644	
1545	0	32628	
1546	0	32620	
1547	0	32624	
1548	0	32616	
1549	0	32596	
1550	0	32620	
1551	0	32666	
1552	0	32696	
1553	0	32692	
1554	0	32712	
1555	0	32704	
1556	0	32668	
1557	0	32676	
1558	0	32644	
1559	0	32636	
1560	0	32640	
1561	0	32624	
1562	0	32608	
1563	0	32584	
1564	0	32604	
1565	0	32608	
1566	0	32668	
1567	0	32728	
1568	0	32772	
1569	0	32824	
1570	0	32896	
1571	0	32936	
1572	0	32968	
1573	0	32936	
1574	0	32872	
1575	0	32844	
1576	0	32840	
1577	0	32832	
1578	0	32836	
1579	0	32808	
1580	0	32824	
1581	0	32804	
1582	0	32768	
1583	0	32752	
1584	0	32760	
1585	0	32800	
1586	0	32846	
1587	0	32900	
1588	0	32908	
1589	0	32872	
1590	0	32864	
1591	0	32832	
1592	0	32788	
1593	0	32744	
1594	0	32720	
1595	0	32712	
1596	0	32712	
1597	0	32708	
1598	0	32728	
1599	0	32776	
1600	0	32816	
1601	0	32832	
1602	0	32844	
1603	0	32876	
1604	0	32884	
1605	0	32868	
1606	0	32848	
1607	0	32868	
1608	0	32920	
1609	0	32948	
1610	0	32954	
1611	0	32972	
1612	0	33004	
1613	0	33040	
1614	0	33036	
1615	0	33018	
1616	0	33052	
1617	0	33088	
1618	0	33112	
1619	0	33112	
1620	0	33088	
1621	0	33076	
1622	0	33048	
1623	0	33012	
1624	0	32972	
1625	0	32932	
1626	0	32928	
1627	0	32968	
1628	0	33004	
1629	0	33058	
1630	0	33080	
1631	0	33044	
1632	0	32988	
1633	0	32956	
1634	0	32932	
1635	0	32932	
1636	0	32952	
1637	0	32964	
1638	0	32932	
1639	0	32880	
1640	0	32856	
1641	0	32798	
1642	0	32770	
1643	0	32724	
1644	0	32756	
1645	0	32744	
1646	0	32748	
1647	0	32768	
1648	0	32800	
1649	0	32840	
1650	0	32864	
1651	0	32896	
1652	0	32928	
1653	0	32960	
1654	0	33000	
1655	0	33080	
1656	0	33150	
1657	0	33204	
1658	0	33226	
1659	0	33244	
1660	0	33274	
1661	0	33288	
1662	0	33276	
1663	0	33240	
1664	0	33198	
1665	0	33156	
1666	0	33172	
1667	0	33192	
1668	0	33176	
1669	0	33168	
1670	0	33124	
1671	0	33124	
1672	0	33156	
1673	0	33184	
1674	0	33244	
1675	0	33332	
1676	0	33448	
1677	0	33584	
1678	0	33712	
1679	0	33860	
1680	0	34008	
1681	0	34144	
1682	0	34252	
1683	0	34396	
1684	0	34504	
1685	0	34568	
1686	0	34644	
1687	0	34680	
1688	0	34672	
1689	0	34632	
1690	0	34640	
1691	0	34644	
1692	0	34648	
1693	0	34612	
1694	0	34560	
1695	0	34456	
1696	0	34372	
1697	0	34280	
1698	0	34196	
1699	0	34096	
1700	0	33984	
1701	0	33886	
1702	0	33760	
1703	0	33642	
1704	0	33584	
1705	0	33532	
1706	0	33480	
1707	0	33464	
1708	0	33438	
1709	0	33420	
1710	0	33400	
1711	0	33376	
1712	0	33312	
1713	0	33232	
1714	0	33168	
1715	0	33144	
1716	0	33136	
1717	0	33120	
1718	0	33072	
1719	0	33016	
1720	0	32980	
1721	0	32960	
1722	0	32954	
1723	0	32992	
1724	0	33012	
1725	0	33024	
1726	0	33040	
1727	0	33044	
1728	0	33048	
1729	0	33076	
1730	0	33068	
1731	0	33056	
1732	0	33012	
1733	0	32922	
1734	0	32840	
1735	0	32760	
1736	0	32696	
1737	0	32616	
1738	0	32516	
1739	0	32440	
1740	0	32392	
1741	0	32372	
1742	0	32400	
1743	0	32436	
1744	0	32448	
1745	0	32464	
1746	0	32460	
1747	0	32488	
1748	0	32488	
1749	0	32468	
1750	0	32482	
1751	0	32476	
1752	0	32458	
1753	0	32456	
1754	0	32464	
1755	0	32476	
1756	0	32454	
1757	0	32444	
1758	0	32428	
1759	0	32396	
1760	0	32384	
1761	0	32364	
1762	0	32338	
1763	0	32356	
1764	0	32396	
1765	0	32440	
1766	0	32484	
1767	0	32512	
1768	0	32544	
1769	0	32588	
1770	0	32612	
1771	0	32628	
1772	0	32624	
1773	0	32602	
1774	0	32572	
1775	0	32560	
1776	0	32556	
1777	0	32524	
1778	0	32516	
1779	0	32528	
1780	0	32556	
1781	0	32568	
1782	0	32596	
1783	0	32596	
1784	0	32604	
1785	0	32596	
1786	0	32592	
1787	0	32604	
1788	0	32644	
1789	0	32656	
1790	0	32648	
1791	0	32628	
1792	0	32612	
1793	0	32620	
1794	0	32640	
1795	0	32628	
1796	0	32600	
1797	0	32578	
1798	0	32548	
1799	0	32548	
1800	0	32536	
1801	0	32548	
1802	0	32572	
1803	0	32584	
1804	0	32632	
1805	0	32704	
1806	0	32752	
1807	0	32788	
1808	0	32792	
1809	0	32768	
1810	0	32736	
1811	0	32600	
1812	0	32416	
1813	0	32258	
1814	0	32122	
1815	0	32020	
1816	0	32108	
1817	0	32364	
1818	0	32672	
1819	0	32992	
1820	0	33344	
1821	0	33716	
1822	0	34068	
1823	0	34322	
1824	0	34460	
1825	0	34624	
1826	0	34954	
1827	0	35498	
1828	0	36248	
1829	0	37184	
1830	0	38308	
1831	0	39584	
1832	0	41000	
1833	0	42548	
1834	0	44196	
1835	0	45840	
1836	0	47502	
1837	0	49204	
1838	0	51068	
1839	0	52816	
1840	0	54404	
1841	0	55716	
1842	0	56708	
1843	0	57624	
1844	0	58512	
1845	0	59216	
1846	0	59464	
1847	0	58976	
1848	0	57552	
1849	0	55192	
1850	0	51996	
1851	0	48320	
1852	0	44448	
1853	0	40712	
1854	0	37352	
1855	0	34504	
1856	0	32380	
1857	0	30944	
1858	0	29952	
1859	0	29208	
1860	0	28780	
1861	0	28608	
1862	0	28624	
1863	0	28824	
1864	0	29134	
1865	0	29508	
1866	0	29840	
1867	0	30140	
1868	0	30316	
1869	0	30416	
1870	0	30512	
1871	0	30576	
1872	0	30700	
1873	0	30852	
1874	0	30980	
1875	0	31074	
1876	0	31124	
1877	0	31124	
1878	0	31120	
1879	0	31156	
1880	0	31168	
1881	0	31144	
1882	0	31104	
1883	0	31040	
1884	0	30960	
1885	0	30908	
1886	0	30856	
1887	0	30848	
1888	0	30840	
1889	0	30816	
1890	0	30776	
1891	0	30748	
1892	0	30756	
1893	0	30768	
1894	0	30820	
1895	0	30876	
1896	0	30864	
1897	0	30856	
1898	0	30862	
1899	0	30876	
1900	0	30904	
1901	0	30916	
1902	0	30932	
1903	0	30928	
1904	0	30920	
1905	0	30928	
1906	0	30928	
1907	0	30920	
1908	0	30948	
1909	0	30984	
1910	0	30980	
1911	0	30968	
1912	0	30998	
1913	0	31028	
1914	0	31048	
1915	0	31072	
1916	0	31078	
1917	0	31068	
1918	0	31040	
1919	0	31026	
1920	0	31034	
1921	0	31044	
1922	0	31052	
1923	0	31072	
1924	0	31120	
1925	0	31184	
1926	0	31248	
1927	0	31316	
1928	0	31376	
1929	0	31440	
1930	0	31480	
1931	0	31496	
1932	0	31508	
1933	0	31516	
1934	0	31504	
1935	0	31532	
1936	0	31552	
1937	0	31564	
1938	0	31576	
1939	0	31584	
1940	0	31620	
1941	0	31692	
1942	0	31724	
1943	0	31776	
1944	0	31822	
1945	0	31848	
1946	0	31864	
1947	0	31876	
1948	0	31884	
1949	0	31900	
1950	0	31948	
1951	0	31988	
1952	0	31992	
1953	0	31988	
1954	0	32006	
1955	0	32028	
1956	0	32040	
1957	0	32036	
1958	0	32012	
1959	0	32008	
1960	0	32032	
1961	0	32032	
1962	0	32048	
1963	0	32080	
1964	0	32104	
1965	0	32152	
1966	0	32192	
1967	0	32232	
1968	0	32288	
1969	0	32324	
1970	0	32332	
1971	0	32364	
1972	0	32412	
1973	0	32428	
1974	0	32464	
1975	0	32500	
1976	0	32538	
1977	0	32556	
1978	0	32588	
1979	0	32612	
1980	0	32632	
1981	0	32624	
1982	0	32636	
1983	0	32616	
1984	0	32592	
1985	0	32584	
1986	0	32592	
1987	0	32592	
1988	0	32588	
1989	0	32584	
1990	0	32588	
1991	0	32592	
1992	0	32616	
1993	0	32636	
1994	0	32644	
1995	0	32680	
1996	0	32716	
1997	0	32720	
1998	0	32740	
1999	0	32768	
2000	0	32775	
2001	0	32784	
2002	0	32796	
2003	0	32816	
2004	0	32836	
2005	0	32848	
2006	0	32874	
2007	0	32892	
2008	0	32912	
2009	0	32912	
2010	0	32920	
2011	0	32964	
2012	0	32994	
2013	0	32996	
2014	0	32992	
2015	0	33008	
2016	0	33006	
2017	0	33004	
2018	0	32992	
2019	0	32984	
2020	0	32996	
2021	0	32988	
2022	0	32986	
2023	0	33000	
2024	0	33008	
2025	0	33008	
2026	0	32984	
2027	0	32968	
2028	0	32948	
2029	0	32960	
2030	0	32978	
2031	0	32996	
2032	0	33036	
2033	0	33076	
2034	0	33088	
2035	0	33100	
2036	0	33096	
2037	0	33096	
2038	0	33068	
2039	0	33032	
2040	0	33020	
2041	0	33024	
2042	0	33040	
2043	0	33052	
2044	0	33066	
2045	0	33088	
2046	0	33116	
2047	0	33132	
2048	0	33136	
2049	0	33176	
2050	0	33184	
2051	0	33192	
2052	0	33180	
2053	0	33188	
2054	0	33188	
2055	0	33224	
2056	0	33280	
2057	0	33308	
2058	0	33320	
2059	0	33344	
2060	0	33340	
2061	0	33320	
2062	0	33288	
2063	0	33248	
2064	0	33234	
2065	0	33212	
2066	0	33184	
2067	0	33184	
2068	0	33192	
2069	0	33214	
2070	0	33214	
2071	0	33210	
2072	0	33176	
2073	0	33152	
2074	0	33188	
2075	0	33210	
2076	0	33212	
2077	0	33204	
2078	0	33212	
2079	0	33186	
2080	0	33176	
2081	0	33168	
2082	0	33156	
2083	0	33146	
2084	0	33160	
2085	0	33180	
2086	0	33176	
2087	0	33148	
2088	0	33109	
2089	0	33100	
2090	0	33112	
2091	0	33092	
2092	0	33088	
2093	0	33088	
2094	0	33088	
2095	0	33100	
2096	0	33092	
2097	0	33080	
2098	0	33072	
2099	0	33048	
2100	0	33018	
2101	0	33004	
2102	0	32994	
2103	0	33028	
2104	0	33032	
2105	0	33020	
2106	0	33024	
2107	0	33012	
2108	0	33008	
2109	0	33052	
2110	0	33116	
2111	0	33140	
2112	0	33172	
2113	0	33176	
2114	0	33168	
2115	0	33188	
2116	0	33204	
2117	0	33240	
2118	0	33262	
2119	0	33296	
2120	0	33280	
2121	0	33272	
2122	0	33296	
2123	0	33304	
2124	0	33308	
2125	0	33286	
2126	0	33248	
2127	0	33228	
2128	0	33240	
2129	0	33252	
2130	0	33276	
2131	0	33280	
2132	0	33256	
2133	0	33252	
2134	0	33232	
2135	0	33216	
2136	0	33212	
2137	0	33208	
2138	0	33176	
2139	0	33128	
2140	0	33088	
2141	0	33072	
2142	0	33064	
2143	0	33008	
2144	0	32964	
2145	0	32900	
2146	0	32860	
2147	0	32832	
2148	0	32816	
2149	0	32784	
2150	0	32792	
2151	0	32776	
2152	0	32744	
2153	0	32692	
2154	0	32640	
2155	0	32568	
2156	0	32516	
2157	0	32472	
2158	0	32436	
2159	0	32328	
2160	0	32240	
2161	0	32192	
2162	0	32168	
2163	0	32132	
2164	0	32098	
2165	0	32046	
2166	0	31938	
2167	0	31866	
2168	0	31816	
2169	0	31760	
2170	0	31712	
2171	0	31694	
2172	0	31652	
2173	0	31636	
2174	0	31648	
2175	0	31660	
2176	0	31628	
2177	0	31580	
2178	0	31540	
2179	0	31476	
2180	0	31428	
2181	0	31392	
2182	0	31392	
2183	0	31400	
2184	0	31364	
2185	0	31352	
2186	0	31344	
2187	0	31348	
2188	0	31336	
2189	0	31340	
2190	0	31320	
2191	0	31276	
2192	0	31230	
2193	0	31204	
2194	0	31196	
2195	0	31188	
2196	0	31192	
2197	0	31192	
2198	0	31180	
2199	0	31176	
2200	0	31168	
2201	0	31172	
2202	0	31198	
2203	0	31208	
2204	0	31200	
2205	0	31204	
2206	0	31248	
2207	0	31280	
2208	0	31276	
2209	0	31272	
2210	0	31300	
2211	0	31364	
2212	0	31396	
2213	0	31440	
2214	0	31484	
2215	0	31508	
2216	0	31524	
2217	0	31512	
2218	0	31506	
2219	0	31504	
2220	0	31504	
2221	0	31492	
2222	0	31456	
2223	0	31424	
2224	0	31424	
2225	0	31398	
2226	0	31424	
2227	0	31428	
2228	0	31460	
2229	0	31488	
2230	0	31488	
2231	0	31508	
2232	0	31510	
2233	0	31520	
2234	0	31488	
2235	0	31472	
2236	0	31472	
2237	0	31464	
2238	0	31480	
2239	0	31508	
2240	0	31544	
2241	0	31568	
2242	0	31576	
2243	0	31584	
2244	0	31596	
2245	0	31604	
2246	0	31612	
2247	0	31620	
2248	0	31612	
2249	0	31634	
2250	0	31648	
2251	0	31680	
2252	0	31692	
2253	0	31724	
2254	0	31764	
2255	0	31740	
2256	0	31712	
2257	0	31696	
2258	0	31732	
2259	0	31750	
2260	0	31772	
2261	0	31788	
2262	0	31792	
2263	0	31788	
2264	0	31784	
2265	0	31802	
2266	0	31810	
2267	0	31792	
2268	0	31764	
2269	0	31718	
2270	0	31688	
2271	0	31692	
2272	0	31692	
2273	0	31708	
2274	0	31724	
2275	0	31726	
2276	0	31736	
2277	0	31682	
2278	0	31604	
2279	0	31560	
2280	0	31564	
2281	0	31580	
2282	0	31592	
2283	0	31596	
2284	0	31620	
2285	0	31620	
2286	0	31640	
2287	0	31656	
2288	0	31648	
2289	0	31648	
2290	0	31676	
2291	0	31702	
2292	0	31704	
2293	0	31708	
2294	0	31712	
2295	0	31720	
2296	0	31684	
2297	0	31668	
2298	0	31636	
2299	0	31620	
2300	0	31616	
2301	0	31632	
2302	0	31648	
2303	0	31680	
2304	0	31688	
2305	0	31672	
2306	0	31658	
2307	0	31680	
2308	0	31680	
2309	0	31698	
2310	0	31688	
2311	0	31676	
2312	0	31692	
2313	0	31676	
2314	0	31656	
2315	0	31668	
2316	0	31668	
2317	0	31644	
2318	0	31644	
2319	0	31660	
2320	0	31664	
2321	0	31660	
2322	0	31636	
2323	0	31648	
2324	0	31650	
2325	0	31636	
2326	0	31626	
2327	0	31618	
2328	0	31616	
2329	0	31600	
2330	0	31632	
2331	0	31672	
2332	0	31662	
2333	0	31648	
2334	0	31624	
2335	0	31602	
2336	0	31624	
2337	0	31660	
2338	0	31668	
2339	0	31664	
2340	0	31664	
2341	0	31656	
2342	0	31656	
2343	0	31652	
2344	0	31672	
2345	0	31672	
2346	0	31676	
2347	0	31684	
2348	0	31700	
2349	0	31708	
2350	0	31700	
2351	0	31684	
2352	0	31664	
2353	0	31674	
2354	0	31672	
2355	0	31676	
2356	0	31680	
2357	0	31688	
2358	0	31680	
2359	0	31700	
2360	0	31732	
2361	0	31768	
2362	0	31760	
2363	0	31780	
2364	0	31772	
2365	0	31776	
2366	0	31784	
2367	0	31808	
2368	0	31808	
2369	0	31816	
2370	0	31832	
2371	0	31844	
2372	0	31856	
2373	0	31840	
2374	0	31844	
2375	0	31860	
2376	0	31872	
2377	0	31872	
2378	0	31852	
2379	0	31816	
2380	0	31796	
2381	0	31784	
2382	0	31776	
2383	0	31776	
2384	0	31778	
2385	0	31792	
2386	0	31794	
2387	0	31856	
2388	0	31868	
2389	0	31902	
2390	0	31904	
2391	0	31916	
2392	0	31932	
2393	0	31948	
2394	0	31964	
2395	0	31980	
2396	0	31986	
2397	0	32020	
2398	0	32040	
2399	0	32024	
2400	0	32008	
2401	0	31992	
2402	0	32004	
2403	0	32020	
2404	0	32016	
2405	0	31980	
2406	0	31948	
2407	0	31944	
2408	0	31968	
2409	0	31984	
2410	0	32024	
2411	0	32028	
2412	0	32032	
2413	0	32036	
2414	0	32044	
2415	0	32076	
2416	0	32092	
2417	0	32092	
2418	0	32060	
2419	0	32044	
2420	0	32048	
2421	0	32052	
2422	0	32078	
2423	0	32108	
2424	0	32152	
2425	0	32158	
2426	0	32168	
2427	0	32156	
2428	0	32138	
2429	0	32160	
2430	0	32184	
2431	0	32184	
2432	0	32180	
2433	0	32136	
2434	0	32114	
2435	0	32128	
2436	0	32160	
2437	0	32240	
2438	0	32288	
2439	0	32292	
2440	0	32288	
2441	0	32280	
2442	0	32272	
2443	0	32260	
2444	0	32232	
2445	0	32224	
2446	0	32240	
2447	0	32212	
2448	0	32184	
2449	0	32212	
2450	0	32248	
2451	0	32280	
2452	0	32312	
2453	0	32300	
2454	0	32284	
2455	0	32296	
2456	0	32308	
2457	0	32298	
2458	0	32282	
2459	0	32308	
2460	0	32336	
2461	0	32356	
2462	0	32384	
2463	0	32392	
2464	0	32408	
2465	0	32416	
2466	0	32432	
2467	0	32420	
2468	0	32420	
2469	0	32416	
2470	0	32408	
2471	0	32424	
2472	0	32424	
2473	0	32436	
2474	0	32440	
2475	0	32468	
2476	0	32488	
2477	0	32480	
2478	0	32468	
2479	0	32488	
2480	0	32500	
2481	0	32480	
2482	0	32474	
2483	0	32464	
2484	0	32466	
2485	0	32480	
2486	0	32500	
2487	0	32504	
2488	0	32506	
2489	0	32508	
2490	0	32488	
2491	0	32504	
2492	0	32500	
2493	0	32490	
2494	0	32492	
2495	0	32512	
2496	0	32512	
2497	0	32528	
2498	0	32516	
2499	0	32516	
2500	0	32544	
2501	0	32546	
2502	0	32544	
2503	0	32570	
2504	0	32560	
2505	0	32584	
2506	0	32596	
2507	0	32592	
2508	0	32608	
2509	0	32576	
2510	0	32568	
2511	0	32560	
2512	0	32576	
2513	0	32600	
2514	0	32632	
2515	0	32636	
2516	0	32652	
2517	0	32648	
2518	0	32640	
2519	0	32588	
2520	0	32584	
2521	0	32608	
2522	0	32616	
2523	0	32632	
2524	0	32632	
2525	0	32636	
2526	0	32652	
2527	0	32676	
2528	0	32692	
2529	0	32712	
2530	0	32684	
2531	0	32676	
2532	0	32702	
2533	0	32712	
2534	0	32741	
2535	0	32744	
2536	0	32732	
2537	0	32732	
2538	0	32740	
2539	0	32720	
2540	0	32696	
2541	0	32672	
2542	0	32680	
2543	0	32696	
2544	0	32712	
2545	0	32704	
2546	0	32712	
2547	0	32704	
2548	0	32732	
2549	0	32744	
2550	0	32776	
2551	0	32792	
2552	0	32824	
2553	0	32800	
2554	0	32788	
2555	0	32774	
2556	0	32764	
2557	0	32772	
2558	0	32784	
2559	0	32800	
2560	0	32788	
2561	0	32746	
2562	0	32740	
2563	0	32764	
2564	0	32752	
2565	0	32728	
2566	0	32692	
2567	0	32672	
2568	0	32666	
2569	0	32672	
2570	0	32668	
2571	0	32672	
2572	0	32672	
2573	0	32676	
2574	0	32688	
2575	0	32712	
2576	0	32714	
2577	0	32740	
2578	0	32748	
2579	0	32784	
2580	0	32788	
2581	0	32764	
2582	0	32768	
2583	0	32760	
2584	0	32724	
2585	0	32696	
2586	0	32676	
2587	0	32690	
2588	0	32704	
2589	0	32718	
2590	0	32728	
2591	0	32728	
2592	0	32728	
2593	0	32724	
2594	0	32724	
2595	0	32740	
2596	0	32720	
2597	0	32736	
2598	0	32764	
2599	0	32800	
2600	0	32812	
2601	0	32812	
2602	0	32824	
2603	0	32816	
2604	0	32820	
2605	0	32816	
2606	0	32820	
2607	0	32808	
2608	0	32816	
2609	0	32852	
2610	0	32856	
2611	0	32856	
2612	0	32880	
2613	0	32916	
2614	0	32952	
2615	0	32952	
2616	0	32968	
2617	0	32972	
2618	0	32944	
2619	0	32912	
2620	0	32888	
2621	0	32860	
2622	0	32854	
2623	0	32864	
2624	0	32876	
2625	0	32864	
2626	0	32856	
2627	0	32852	
2628	0	32844	
2629	0	32834	
2630	0	32856	
2631	0	32900	
2632	0	32928	
2633	0	32952	
2634	0	32972	
2635	0	32970	
2636	0	32928	
2637	0	32904	
2638	0	32882	
2639	0	32869	
2640	0	32864	
2641	0	32868	
2642	0	32872	
2643	0	32846	
2644	0	32840	
2645	0	32844	
2646	0	32860	
2647	0	32888	
2648	0	32900	
2649	0	32940	
2650	0	32992	
2651	0	33048	
2652	0	33100	
2653	0	33112	
2654	0	33132	
2655	0	33148	
2656	0	33140	
2657	0	33114	
2658	0	33100	
2659	0	33128	
2660	0	33180	
2661	0	33224	
2662	0	33268	
2663	0	33312	
2664	0	33324	
2665	0	33312	
2666	0	33300	
2667	0	33300	
2668	0	33328	
2669	0	33384	
2670	0	33456	
2671	0	33496	
2672	0	33568	
2673	0	33664	
2674	0	33752	
2675	0	33830	
2676	0	33880	
2677	0	33920	
2678	0	33960	
2679	0	33980	
2680	0	33988	
2681	0	33968	
2682	0	33972	
2683	0	33984	
2684	0	34000	
2685	0	34060	
2686	0	34140	
2687	0	34204	
2688	0	34208	
2689	0	34196	
2690	0	34152	
2691	0	34064	
2692	0	33952	
2693	0	33840	
2694	0	33720	
2695	0	33584	
2696	0	33492	
2697	0	33430	
2698	0	33364	
2699	0	33304	
2700	0	33276	
2701	0	33242	
2702	0	33188	
2703	0	33152	
2704	0	33124	
2705	0	33084	
2706	0	33048	
2707	0	33020	
2708	0	33004	
2709	0	32972	
2710	0	32954	
2711	0	32944	
2712	0	32928	
2713	0	32896	
2714	0	32888	
2715	0	32928	
2716	0	32952	
2717	0	32992	
2718	0	33016	
2719	0	33040	
2720	0	33072	
2721	0	33076	
2722	0	33052	
2723	0	33000	
2724	0	32952	
2725	0	32904	
2726	0	32840	
2727	0	32764	
2728	0	32688	
2729	0	32612	
2730	0	32520	
2731	0	32436	
2732	0	32384	
2733	0	32360	
2734	0	32360	
2735	0	32372	
2736	0	32372	
2737	0	32352	
2738	0	32384	
2739	0	32392	
2740	0	32408	
2741	0	32420	
2742	0	32440	
2743	0	32428	
2744	0	32408	
2745	0	32368	
2746	0	32356	
2747	0	32368	
2748	0	32368	
2749	0	32368	
2750	0	32368	
2751	0	32348	
2752	0	32360	
2753	0	32398	
2754	0	32452	
2755	0	32500	
2756	0	32504	
2757	0	32504	
2758	0	32528	
2759	0	32548	
2760	0	32548	
2761	0	32536	
2762	0	32516	
2763	0	32496	
2764	0	32476	
2765	0	32448	
2766	0	32428	
2767	0	32396	
2768	0	32384	
2769	0	32388	
2770	0	32380	
2771	0	32400	
2772	0	32416	
2773	0	32426	
2774	0	32464	
2775	0	32476	
2776	0	32500	
2777	0	32508	
2778	0	32508	
2779	0	32484	
2780	0	32472	
2781	0	32456	
2782	0	32472	
2783	0	32500	
2784	0	32532	
2785	0	32568	
2786	0	32584	
2787	0	32592	
2788	0	32596	
2789	0	32616	
2790	0	32648	
2791	0	32636	
2792	0	32612	
2793	0	32600	
2794	0	32608	
2795	0	32620	
2796	0	32624	
2797	0	32656	
2798	0	32706	
2799	0	32760	
2800	0	32812	
2801	0	32844	
2802	0	32840	
2803	0	32832	
2804	0	32774	
2805	0	32664	
2806	0	32536	
2807	0	32368	
2808	0	32206	
2809	0	32074	
2810	0	31980	
2811	0	32046	
2812	0	32296	
2813	0	32586	
2814	0	32880	
2815	0	33232	
2816	0	33608	
2817	0	33950	
2818	0	34276	
2819	0	34472	
2820	0	34616	
2821	0	34856	
2822	0	35320	
2823	0	35976	
2824	0	36832	
2825	0	37860	
2826	0	39036	
2827	0	40380	
2828	0	41828	
2829	0	43384	
2830	0	44964	
2831	0	46552	
2832	0	48268	
2833	0	50036	
2834	0	51696	
2835	0	53184	
2836	0	54468	
2837	0	55480	
2838	0	56360	
2839	0	57360	
2840	0	58188	
2841	0	58592	
2842	0	58400	
2843	0	57328	
2844	0	55204	
2845	0	52264	
2846	0	48700	
2847	0	44844	
2848	0	41080	
2849	0	37674	
2850	0	34916	
2851	0	32916	
2852	0	31536	
2853	0	30612	
2854	0	30028	
2855	0	29652	
2856	0	29456	
2857	0	29392	
2858	0	29454	
2859	0	29608	
2860	0	29788	
2861	0	29968	
2862	0	30106	
2863	0	30196	
2864	0	30280	
2865	0	30344	
2866	0	30448	
2867	0	30624	
2868	0	30800	
2869	0	30928	
2870	0	31008	
2871	0	31096	
2872	0	31136	
2873	0	31180	
2874	0	31192	
2875	0	31184	
2876	0	31162	
2877	0	31102	
2878	0	31024	
2879	0	30976	
2880	0	30940	
2881	0	30884	
2882	0	30836	
2883	0	30792	
2884	0	30768	
2885	0	30728	
2886	0	30728	
2887	0	30700	
2888	0	30682	
2889	0	30688	
2890	0	30696	
2891	0	30708	
2892	0	30730	
2893	0	30744	
2894	0	30764	
2895	0	30804	
2896	0	30845	
2897	0	30874	
2898	0	30900	
2899	0	30932	
2900	0	30948	
2901	0	30976	
2902	0	30996	
2903	0	30992	
2904	0	30964	
2905	0	30976	
2906	0	30972	
2907	0	30964	
2908	0	30972	
2909	0	30990	
2910	0	31016	
2911	0	31028	
2912	0	31048	
2913	0	31084	
2914	0	31116	
2915	0	31170	
2916	0	31192	
2917	0	31248	
2918	0	31284	
2919	0	31304	
2920	0	31304	
2921	0	31320	
2922	0	31332	
2923	0	31373	
2924	0	31384	
2925	0	31368	
2926	0	31352	
2927	0	31380	
2928	0	31432	
2929	0	31468	
2930	0	31500	
2931	0	31532	
2932	0	31508	
2933	0	31524	
2934	0	31556	
2935	0	31608	
2936	0	31648	
2937	0	31672	
2938	0	31712	
2939	0	31720	
2940	0	31728	
2941	0	31740	
2942	0	31778	
2943	0	31784	
2944	0	31808	
2945	0	31840	
2946	0	31864	
2947	0	31916	
2948	0	31940	
2949	0	31960	
2950	0	31962	
2951	0	31992	
2952	0	32018	
2953	0	32056	
2954	0	32112	
2955	0	32132	
2956	0	32140	
2957	0	32164	
2958	0	32176	
2959	0	32216	
2960	0	32224	
2961	0	32216	
2962	0	32224	
2963	0	32264	
2964	0	32292	
2965	0	32316	
2966	0	32338	
2967	0	32376	
2968	0	32400	
2969	0	32414	
2970	0	32408	
2971	0	32404	
2972	0	32448	
2973	0	32448	
2974	0	32420	
2975	0	32432	
2976	0	32464	
2977	0	32484	
2978	0	32524	
2979	0	32576	
2980	0	32622	
2981	0	32660	
2982	0	32680	
2983	0	32726	
2984	0	32732	
2985	0	32716	
2986	0	32716	
2987	0	32712	
2988	0	32736	
2989	0	32768	
2990	0	32796	
2991	0	32828	
2992	0	32852	
2993	0	32880	
2994	0	32872	
2995	0	32864	
2996	0	32868	
2997	0	32868	
2998	0	32856	
2999	0	32848	
3000	0	32844	
3001	0	32864	
3002	0	32880	
3003	0	32908	
3004	0	32930	
3005	0	32960	
3006	0	32956	
3007	0	32960	
3008	0	32940	
3009	0	32944	
3010	0	32986	
3011	0	33016	
3012	0	33012	
3013	0	33012	
3014	0	33036	
3015	0	33052	
3016	0	33060	
3017	0	33084	
3018	0	33136	
3019	0	33160	
3020	0	33176	
3021	0	33168	
3022	0	33136	
3023	0	33114	
3024	0	33120	
3025	0	33132	
3026	0	33104	
3027	0	33100	
3028	0	33136	
3029	0	33128	
3030	0	33140	
3031	0	33112	
3032	0	33096	
3033	0	33104	
3034	0	33096	
3035	0	33118	
3036	0	33144	
3037	0	33120	
3038	0	33116	
3039	0	33112	
3040	0	33132	
3041	0	33200	
3042	0	33244	
3043	0	33268	
3044	0	33280	
3045	0	33248	
3046	0	33224	
3047	0	33226	
3048	0	33208	
3049	0	33208	
3050	0	33216	
3051	0	33214	
3052	0	33224	
3053	0	33244	
3054	0	33208	
3055	0	33216	
3056	0	33220	
3057	0	33264	
3058	0	33298	
3059	0	33312	
3060	0	33304	
3061	0	33340	
3062	0	33376	
3063	0	33377	
3064	0	33376	
3065	0	33356	
3066	0	33336	
3067	0	33336	
3068	0	33332	
3069	0	33312	
3070	0	33320	
3071	0	33336	
3072	0	33336	
3073	0	33354	
3074	0	33404	
3075	0	33428	
3076	0	33438	
3077	0	33404	
3078	0	33396	
3079	0	33376	
3080	0	33348	
3081	0	33344	
3082	0	33340	
3083	0	33332	
3084	0	33312	
3085	0	33308	
3086	0	33312	
3087	0	33316	
3088	0	33320	
3089	0	33344	
3090	0	33306	
3091	0	33284	
3092	0	33264	
3093	0	33264	
3094	0	33288	
3095	0	33304	
3096	0	33280	
3097	0	33276	
3098	0	33308	
3099	0	33296	
3100	0	33296	
3101	0	33320	
3102	0	33354	
3103	0	33368	
3104	0	33392	
3105	0	33408	
3106	0	33420	
3107	0	33408	
3108	0	33372	
3109	0	33356	
3110	0	33364	
3111	0	33344	
3112	0	33338	
3113	0	33360	
3114	0	33408	
3115	0	33416	
3116	0	33444	
3117	0	33460	
3118	0	33448	
3119	0	33432	
3120	0	33404	
3121	0	33388	
3122	0	33370	
3123	0	33336	
3124	0	33348	
3125	0	33360	
3126	0	33332	
3127	0	33320	
3128	0	33300	
3129	0	33272	
3130	0	33244	
3131	0	33224	
3132	0	33200	
3133	0	33152	
3134	0	33104	
3135	0	33076	
3136	0	33050	
3137	0	33004	
3138	0	32962	
3139	0	32896	
3140	0	32856	
3141	0	32828	
3142	0	32824	
3143	0	32788	
3144	0	32740	
3145	0	32692	
3146	0	32636	
3147	0	32560	
3148	0	32500	
3149	0	32448	
3150	0	32396	
3151	0	32356	
3152	0	32312	
3153	0	32264	
3154	0	32204	
3155	0	32160	
3156	0	32096	
3157	0	32056	
3158	0	32008	
3159	0	31954	
3160	0	31904	
3161	0	31848	
3162	0	31824	
3163	0	31784	
3164	0	31714	
3165	0	31658	
3166	0	31628	
3167	0	31622	
3168	0	31592	
3169	0	31532	
3170	0	31460	
3171	0	31454	
3172	0	31436	
3173	0	31396	
3174	0	31376	
3175	0	31350	
3176	0	31332	
3177	0	31292	
3178	0	31288	
3179	0	31258	
3180	0	31256	
3181	0	31256	
3182	0	31244	
3183	0	31248	
3184	0	31234	
3185	0	31216	
3186	0	31172	
3187	0	31152	
3188	0	31136	
3189	0	31140	
3190	0	31148	
3191	0	31160	
3192	0	31148	
3193	0	31120	
3194	0	31104	
3195	0	31096	
3196	0	31080	
3197	0	31098	
3198	0	31136	
3199	0	31192	
3200	0	31234	
3201	0	31236	
3202	0	31226	
3203	0	31232	
3204	0	31212	
3205	0	31216	
3206	0	31188	
3207	0	31184	
3208	0	31198	
3209	0	31224	
3210	0	31240	
3211	0	31252	
3212	0	31264	
3213	0	31260	
3214	0	31260	
3215	0	31240	
3216	0	31260	
3217	0	31304	
3218	0	31336	
3219	0	31364	
3220	0	31384	
3221	0	31400	
3222	0	31404	
3223	0	31412	
3224	0	31432	
3225	0	31420	
3226	0	31404	
3227	0	31396	
3228	0	31412	
3229	0	31420	
3230	0	31456	
3231	0	31488	
3232	0	31504	
3233	0	31532	
3234	0	31540	
3235	0	31576	
3236	0	31576	
3237	0	31556	
3238	0	31532	
3239	0	31508	
3240	0	31514	
3241	0	31520	
3242	0	31528	
3243	0	31516	
3244	0	31538	
3245	0	31552	
3246	0	31524	
3247	0	31548	
3248	0	31564	
3249	0	31568	
3250	0	31566	
3251	0	31620	
3252	0	31672	
3253	0	31700	
3254	0	31704	
3255	0	31720	
3256	0	31744	
3257	0	31768	
3258	0	31776	
3259	0	31784	
3260	0	31764	
3261	0	31768	
3262	0	31736	
3263	0	31744	
3264	0	31724	
3265	0	31712	
3266	0	31704	
3267	0	31736	
3268	0	31738	
3269	0	31720	
3270	0	31724	
3271	0	31736	
3272	0	31716	
3273	0	31676	
3274	0	31654	
3275	0	31638	
3276	0	31652	
3277	0	31684	
3278	0	31724	
3279	0	31696	
3280	0	31680	
3281	0	31688	
3282	0	31700	
3283	0	31712	
3284	0	31724	
3285	0	31740	
3286	0	31756	
3287	0	31728	
3288	0	31692	
3289	0	31664	
3290	0	31668	
3291	0	31688	
3292	0	31688	
3293	0	31690	
3294	0	31688	
3295	0	31680	
3296	0	31680	
3297	0	31688	
3298	0	31738	
3299	0	31748	
3300	0	31750	
3301	0	31744	
3302	0	31754	
3303	0	31772	
3304	0	31796	
3305	0	31840	
3306	0	31832	
3307	0	31812	
3308	0	31842	
3309	0	31852	
3310	0	31828	
3311	0	31800	
3312	0	31784	
3313	0	31780	
3314	0	31796	
3315	0	31792	
3316	0	31804	
3317	0	31788	
3318	0	31784	
3319	0	31786	
3320	0	31840	
3321	0	31840	
3322	0	31826	
3323	0	31804	
3324	0	31792	
3325	0	31788	
3326	0	31768	
3327	0	31764	
3328	0	31768	
3329	0	31800	
3330	0	31832	
3331	0	31864	
3332	0	31904	
3333	0	31936	
3334	0	31962	
3335	0	31992	
3336	0	32000	
3337	0	31996	
3338	0	31952	
3339	0	31912	
3340	0	31898	
3341	0	31888	
3342	0	31892	
3343	0	31908	
3344	0	31920	
3345	0	31916	
3346	0	31902	
3347	0	31896	
3348	0	31908	
3349	0	31936	
3350	0	31924	
3351	0	31900	
3352	0	31880	
3353	0	31868	
3354	0	31868	
3355	0	31860	
3356	0	31852	
3357	0	31876	
3358	0	31896	
3359	0	31928	
3360	0	31952	
3361	0	31976	
3362	0	31984	
3363	0	31992	
3364	0	31968	
3365	0	31944	
3366	0	31912	
3367	0	31876	
3368	0	31880	
3369	0	31860	
3370	0	31908	
3371	0	31940	
3372	0	31952	
3373	0	31962	
3374	0	31996	
3375	0	32008	
3376	0	32012	
3377	0	32024	
3378	0	32032	
3379	0	32044	
3380	0	32012	
3381	0	32036	
3382	0	32036	
3383	0	32036	
3384	0	32016	
3385	0	32020	
3386	0	32028	
3387	0	32014	
3388	0	32016	
3389	0	32028	
3390	0	32052	
3391	0	32078	
3392	0	32108	
3393	0	32132	
3394	0	32160	
3395	0	32172	
3396	0	32150	
3397	0	32128	
3398	0	32152	
3399	0	32160	
3400	0	32156	
3401	0	32190	
3402	0	32212	
3403	0	32208	
3404	0	32210	
3405	0	32224	
3406	0	32208	
3407	0	32192	
3408	0	32188	
3409	0	32168	
3410	0	32156	
3411	0	32158	
3412	0	32172	
3413	0	32196	
3414	0	32192	
3415	0	32188	
3416	0	32228	
3417	0	32272	
3418	0	32304	
3419	0	32332	
3420	0	32348	
3421	0	32352	
3422	0	32332	
3423	0	32308	
3424	0	32288	
3425	0	32316	
3426	0	32340	
3427	0	32352	
3428	0	32356	
3429	0	32352	
3430	0	32360	
3431	0	32386	
3432	0	32392	
3433	0	32348	
3434	0	32314	
3435	0	32340	
3436	0	32364	
3437	0	32384	
3438	0	32384	
3439	0	32384	
3440	0	32368	
3441	0	32368	
3442	0	32360	
3443	0	32348	
3444	0	32332	
3445	0	32340	
3446	0	32364	
3447	0	32376	
3448	0	32404	
3449	0	32396	
3450	0	32396	
3451	0	32384	
3452	0	32392	
3453	0	32404	
3454	0	32404	
3455	0	32416	
3456	0	32436	
3457	0	32444	
3458	0	32432	
3459	0	32452	
3460	0	32448	
3461	0	32444	
3462	0	32430	
3463	0	32424	
3464	0	32432	
3465	0	32448	
3466	0	32480	
3467	0	32492	
3468	0	32520	
3469	0	32528	
3470	0	32524	
3471	0	32524	
3472	0	32536	
3473	0	32544	
3474	0	32572	
3475	0	32572	
3476	0	32572	
3477	0	32584	
3478	0	32580	
3479	0	32596	
3480	0	32600	
3481	0	32594	
3482	0	32608	
3483	0	32604	
3484	0	32572	
3485	0	32564	
3486	0	32580	
3487	0	32580	
3488	0	32580	
3489	0	32568	
3490	0	32572	
3491	0	32568	
3492	0	32592	
3493	0	32640	
3494	0	32644	
3495	0	32644	
3496	0	32640	
3497	0	32636	
3498	0	32668	
3499	0	32660	
3500	0	32636	
3501	0	32640	
3502	0	32636	
3503	0	32616	
3504	0	32600	
3505	0	32588	
3506	0	32596	
3507	0	32628	
3508	0	32622	
3509	0	32668	
3510	0	32700	
3511	0	32732	
3512	0	32748	
3513	0	32736	
3514	0	32738	
3515	0	32732	
3516	0	32732	
3517	0	32724	
3518	0	32732	
3519	0	32732	
3520	0	32764	
3521	0	32768	
3522	0	32774	
3523	0	32764	
3524	0	32760	
3525	0	32784	
3526	0	32836	
3527	0	32830	
3528	0	32832	
3529	0	32824	
3530	0	32772	
3531	0	32740	
3532	0	32716	
3533	0	32736	
3534	0	32752	
3535	0	32740	
3536	0	32728	
3537	0	32716	
3538	0	32722	
3539	0	32792	
3540	0	32840	
3541	0	32852	
3542	0	32864	
3543	0	32848	
3544	0	32832	
3545	0	32804	
3546	0	32804	
3547	0	32804	
3548	0	32820	
3549	0	32840	
3550	0	32852	
3551	0	32852	
3552	0	32836	
3553	0	32826	
3554	0	32816	
3555	0	32844	
3556	0	32868	
3557	0	32864	
3558	0	32836	
3559	0	32826	
3560	0	32844	
3561	0	32848	
3562	0	32856	
3563	0	32832	
3564	0	32808	
3565	0	32812	
3566	0	32794	
3567	0	32776	
3568	0	32752	
3569	0	32752	
3570	0	32756	
3571	0	32760	
3572	0	32756	
3573	0	32748	
3574	0	32732	
3575	0	32736	
3576	0	32772	
3577	0	32784	
3578	0	32824	
3579	0	32848	
3580	0	32848	
3581	0	32864	
3582	0	32856	
3583	0	32844	
3584	0	32864	
3585	0	32896	
3586	0	32904	
3587	0	32872	
3588	0	32856	
3589	0	32864	
3590	0	32880	
3591	0	32900	
3592	0	32896	
3593	0	32880	
3594	0	32876	
3595	0	32860	
3596	0	32848	
3597	0	32858	
3598	0	32868	
3599	0	32880	
3600	0	32888	
3601	0	32896	
3602	0	32876	
3603	0	32848	
3604	0	32824	
3605	0	32808	
3606	0	32826	
3607	0	32832	
3608	0	32828	
3609	0	32820	
3610	0	32832	
3611	0	32848	
3612	0	32836	
3613	0	32848	
3614	0	32852	
3615	0	32852	
3616	0	32876	
3617	0	32912	
3618	0	32948	
3619	0	32988	
3620	0	33012	
3621	0	33060	
3622	0	33068	
3623	0	33068	
3624	0	33060	
3625	0	33048	
3626	0	33016	
3627	0	33000	
3628	0	32980	
3629	0	32960	
3630	0	32940	
3631	0	32948	
3632	0	32956	
3633	0	32964	
3634	0	33008	
3635	0	33028	
3636	0	33028	
3637	0	33028	
3638	0	33026	
3639	0	33032	
3640	0	33020	
3641	0	33036	
3642	0	33048	
3643	0	33044	
3644	0	33040	
3645	0	33016	
3646	0	32980	
3647	0	32952	
3648	0	32956	
3649	0	32984	
3650	0	33036	
3651	0	33112	
3652	0	33172	
3653	0	33208	
3654	0	33256	
3655	0	33304	
3656	0	33332	
3657	0	33332	
3658	0	33352	
3659	0	33316	
3660	0	33284	
3661	0	33244	
3662	0	33216	
3663	0	33220	
3664	0	33228	
3665	0	33232	
3666	0	33228	
3667	0	33224	
3668	0	33196	
3669	0	33208	
3670	0	33228	
3671	0	33274	
3672	0	33392	
3673	0	33528	
3674	0	33652	
3675	0	33772	
3676	0	33904	
3677	0	34040	
3678	0	34160	
3679	0	34272	
3680	0	34384	
3681	0	34484	
3682	0	34564	
3683	0	34600	
3684	0	34580	
3685	0	34572	
3686	0	34558	
3687	0	34560	
3688	0	34588	
3689	0	34628	
3690	0	34568	
3691	0	34488	
3692	0	34392	
3693	0	34344	
3694	0	34272	
3695	0	34202	
3696	0	34060	
3697	0	33916	
3698	0	33792	
3699	0	33712	
3700	0	33652	
3701	0	33600	
3702	0	33528	
3703	0	33432	
3704	0	33340	
3705	0	33300	
3706	0	33280	
3707	0	33268	
3708	0	33260	
3709	0	33244	
3710	0	33240	
3711	0	33228	
3712	0	33216	
3713	0	33216	
3714	0	33200	
3715	0	33204	
3716	0	33184	
3717	0	33192	
3718	0	33212	
3719	0	33216	
3720	0	33168	
3721	0	33160	
3722	0	33150	
3723	0	33100	
3724	0	33072	
3725	0	33020	
3726	0	32954	
3727	0	32928	
3728	0	32912	
3729	0	32884	
3730	0	32824	
3731	0	32756	
3732	0	32676	
3733	0	32610	
3734	0	32544	
3735	0	32492	
3736	0	32448	
3737	0	32424	
3738	0	32436	
3739	0	32422	
3740	0	32386	
3741	0	32384	
3742	0	32384	
3743	0	32372	
3744	0	32364	
3745	0	32352	
3746	0	32320	
3747	0	32300	
3748	0	32288	
3749	0	32288	
3750	0	32312	
3751	0	32336	
3752	0	32376	
3753	0	32388	
3754	0	32376	
3755	0	32360	
3756	0	32328	
3757	0	32316	
3758	0	32320	
3759	0	32328	
3760	0	32336	
3761	0	32344	
3762	0	32380	
3763	0	32382	
3764	0	32400	
3765	0	32436	
3766	0	32478	
3767	0	32502	
3768	0	32500	
3769	0	32508	
3770	0	32504	
3771	0	32492	
3772	0	32472	
3773	0	32452	
3774	0	32472	
3775	0	32496	
3776	0	32504	
3777	0	32496	
3778	0	32480	
3779	0	32464	
3780	0	32448	
3781	0	32436	
3782	0	32440	
3783	0	32452	
3784	0	32476	
3785	0	32512	
3786	0	32524	
3787	0	32532	
3788	0	32520	
3789	0	32536	
3790	0	32540	
3791	0	32524	
3792	0	32526	
3793	0	32544	
3794	0	32546	
3795	0	32584	
3796	0	32584	
3797	0	32588	
3798	0	32624	
3799	0	32680	
3800	0	32704	
3801	0	32744	
3802	0	32800	
3803	0	32800	
3804	0	32812	
3805	0	32826	
3806	0	32808	
3807	0	32772	
3808	0	32672	
3809	0	32556	
3810	0	32432	
3811	0	32314	
3812	0	32208	
3813	0	32240	
3814	0	32410	
3815	0	32672	
3816	0	32956	
3817	0	33268	
3818	0	33648	
3819	0	33976	
3820	0	34312	
3821	0	34564	
3822	0	34708	
3823	0	34920	
3824	0	35332	
3825	0	35916	
3826	0	36688	
3827	0	37664	
3828	0	38784	
3829	0	40046	
3830	0	41440	
3831	0	42904	
3832	0	44444	
3833	0	46016	
3834	0	47672	
3835	0	49380	
3836	0	51044	
3837	0	52560	
3838	0	53832	
3839	0	54848	
3840	0	55720	
3841	0	56704	
3842	0	57584	
3843	0	58096	
3844	0	58058	
3845	0	57144	
3846	0	55140	
3847	0	52324	
3848	0	48910	
3849	0	45184	
3850	0	41516	
3851	0	38172	
3852	0	35450	
3853	0	33468	
3854	0	32104	
3855	0	31176	
3856	0	30616	
3857	0	30240	
3858	0	29984	
3859	0	29888	
3860	0	29920	
3861	0	30040	
3862	0	30178	
3863	0	30306	
3864	0	30392	
3865	0	30466	
3866	0	30550	
3867	0	30604	
3868	0	30700	
3869	0	30832	
3870	0	30964	
3871	0	31072	
3872	0	31132	
3873	0	31204	
3874	0	31260	
3875	0	31280	
3876	0	31304	
3877	0	31290	
3878	0	31256	
3879	0	31222	
3880	0	31156	
3881	0	31092	
3882	0	31038	
3883	0	30976	
3884	0	30954	
3885	0	30948	
3886	0	30952	
3887	0	30932	
3888	0	30912	
3889	0	30900	
3890	0	30876	
3891	0	30860	
3892	0	30860	
3893	0	30876	
3894	0	30900	
3895	0	30904	
3896	0	30920	
3897	0	30952	
3898	0	30952	
3899	0	30968	
3900	0	30996	
3901	0	31016	
3902	0	31020	
3903	0	31052	
3904	0	31048	
3905	0	31072	
3906	0	31108	
3907	0	31110	
3908	0	31104	
3909	0	31062	
3910	0	31072	
3911	0	31096	
3912	0	31104	
3913	0	31132	
3914	0	31164	
3915	0	31196	
3916	0	31228	
3917	0	31280	
3918	0	31324	
3919	0	31412	
3920	0	31430	
3921	0	31440	
3922	0	31442	
3923	0	31452	
3924	0	31456	
3925	0	31448	
3926	0	31436	
3927	0	31444	
3928	0	31472	
3929	0	31490	
3930	0	31500	
3931	0	31516	
3932	0	31520	
3933	0	31540	
3934	0	31570	
3935	0	31600	
3936	0	31640	
3937	0	31676	
3938	0	31708	
3939	0	31740	
3940	0	31760	
3941	0	31788	
3942	0	31824	
3943	0	31864	
3944	0	31884	
3945	0	31894	
3946	0	31880	
3947	0	31884	
3948	0	31924	
3949	0	31968	
3950	0	31986	
3951	0	31996	
3952	0	32032	
3953	0	32076	
3954	0	32104	
3955	0	32148	
3956	0	32172	
3957	0	32160	
3958	0	32172	
3959	0	32200	
3960	0	32248	
3961	0	32290	
3962	0	32344	
3963	0	32372	
3964	0	32396	
3965	0	32400	
3966	0	32416	
3967	0	32416	
3968	0	32432	
3969	0	32448	
3970	0	32444	
3971	0	32468	
3972	0	32514	
3973	0	32536	
3974	0	32546	
3975	0	32600	
3976	0	32616	
3977	0	32632	
3978	0	32634	
3979	0	32640	
3980	0	32644	
3981	0	32676	
3982	0	32704	
3983	0	32728	
3984	0	32748	
3985	0	32756	
3986	0	32764	
3987	0	32780	
3988	0	32800	
3989	0	32818	
3990	0	32820	
3991	0	32818	
3992	0	32836	
3993	0	32848	
3994	0	32828	
3995	0	32836	
3996	0	32868	
3997	0	32888	
3998	0	32920	
3999	0	32944	
4000	0	32978	
4001	0	32976	
4002	0	32996	
4003	0	32996	
4004	0	33004	
4005	0	33044	
4006	0	33036	
4007	0	33022	
4008	0	33032	
4009	0	33050	
4010	0	33084	
4011	0	33120	
4012	0	33150	
4013	0	33152	
4014	0	33144	
4015	0	33128	
4016	0	33128	
4017	0	33128	
4018	0	33148	
4019	0	33140	
4020	0	33160	
4021	0	33180	
4022	0	33184	
4023	0	33184	
4024	0	33192	
4025	0	33192	
4026	0	33188	
4027	0	33188	
4028	0	33192	
4029	0	33212	
4030	0	33228	
4031	0	33272	
4032	0	33300	
4033	0	33296	
4034	0	33320	
4035	0	33332	
4036	0	33360	
4037	0	33372	
4038	0	33388	
4039	0	33396	
4040	0	33376	
4041	0	33368	
4042	0	33348	
4043	0	33324	
4044	0	33296	
4045	0	33316	
4046	0	33332	
4047	0	33340	
4048	0	33368	
4049	0	33380	
4050	0	33396	
4051	0	33404	
4052	0	33388	
4053	0	33402	
4054	0	33432	
4055	0	33444	
4056	0	33444	
4057	0	33440	
4058	0	33420	
4059	0	33404	
4060	0	33404	
4061	0	33408	
4062	0	33416	
4063	0	33412	
4064	0	33396	
4065	0	33428	
4066	0	33458	
4067	0	33472	
4068	0	33444	
4069	0	33444	
4070	0	33452	
4071	0	33458	
4072	0	33464	
4073	0	33488	
4074	0	33520	
4075	0	33508	
4076	0	33484	
4077	0	33456	
4078	0	33444	
4079	0	33424	
4080	0	33400	
4081	0	33404	
4082	0	33408	
4083	0	33432	
4084	0	33440	
4085	0	33460	
4086	0	33476	
4087	0	33504	
4088	0	33484	
4089	0	33466	
4090	0	33460	
4091	0	33460	
4092	0	33460	
4093	0	33476	
4094	0	33488	
4095	0	33488	
4096	0	33504	
4097	0	33496	
4098	0	33464	
4099	0	33448	
4100	0	33472	
4101	0	33492	
4102	0	33508	
4103	0	33508	
4104	0	33504	
4105	0	33488	
4106	0	33476	
4107	0	33484	
4108	0	33496	
4109	0	33480	
4110	0	33472	
4111	0	33496	
4112	0	33520	
4113	0	33544	
4114	0	33536	
4115	0	33564	
4116	0	33576	
4117	0	33568	
4118	0	33560	
4119	0	33568	
4120	0	33540	
4121	0	33544	
4122	0	33520	
4123	0	33520	
4124	0	33524	
4125	0	33518	
4126	0	33544	
4127	0	33564	
4128	0	33572	
4129	0	33572	
4130	0	33560	
4131	0	33532	
4132	0	33504	
4133	0	33472	
4134	0	33444	
4135	0	33444	
4136	0	33434	
4137	0	33400	
4138	0	33360	
4139	0	33328	
4140	0	33278	
4141	0	33222	
4142	0	33156	
4143	0	33112	
4144	0	33036	
4145	0	32956	
4146	0	32904	
4147	0	32852	
4148	0	32800	
4149	0	32748	
4150	0	32672	
4151	0	32568	
4152	0	32500	
4153	0	32448	
4154	0	32392	
4155	0	32344	
4156	0	32304	
4157	0	32276	
4158	0	32236	
4159	0	32228	
4160	0	32200	
4161	0	32160	
4162	0	32112	
4163	0	32044	
4164	0	31994	
4165	0	31976	
4166	0	31930	
4167	0	31848	
4168	0	31776	
4169	0	31720	
4170	0	31680	
4171	0	31668	
4172	0	31636	
4173	0	31636	
4174	0	31598	
4175	0	31568	
4176	0	31512	
4177	0	31464	
4178	0	31436	
4179	0	31436	
4180	0	31432	
4181	0	31408	
4182	0	31372	
4183	0	31338	
4184	0	31312	
4185	0	31304	
4186	0	31296	
4187	0	31272	
4188	0	31242	
4189	0	31218	
4190	0	31224	
4191	0	31232	
4192	0	31228	
4193	0	31244	
4194	0	31252	
4195	0	31264	
4196	0	31252	
4197	0	31254	
4198	0	31272	
4199	0	31264	
4200	0	31252	
4201	0	31256	
4202	0	31264	
4203	0	31248	
4204	0	31232	
4205	0	31212	
4206	0	31196	
4207	0	31196	
4208	0	31192	
4209	0	31204	
4210	0	31224	
4211	0	31218	
4212	0	31226	
4213	0	31224	
4214	0	31240	
4215	0	31256	
4216	0	31274	
4217	0	31306	
4218	0	31344	
4219	0	31368	
4220	0	31384	
4221	0	31412	
4222	0	31420	
4223	0	31424	
4224	0	31450	
4225	0	31484	
4226	0	31480	
4227	0	31472	
4228	0	31472	
4229	0	31460	
4230	0	31480	
4231	0	31484	
4232	0	31492	
4233	0	31508	
4234	0	31552	
4235	0	31596	
4236	0	31632	
4237	0	31660	
4238	0	31664	
4239	0	31684	
4240	0	31680	
4241	0	31684	
4242	0	31668	
4243	0	31616	
4244	0	31600	
4245	0	31592	
4246	0	31594	
4247	0	31582	
4248	0	31568	
4249	0	31588	
4250	0	31620	
4251	0	31612	
4252	0	31620	
4253	0	31650	
4254	0	31684	
4255	0	31688	
4256	0	31706	
4257	0	31720	
4258	0	31720	
4259	0	31716	
4260	0	31736	
4261	0	31732	
4262	0	31728	
4263	0	31760	
4264	0	31776	
4265	0	31816	
4266	0	31868	
4267	0	31884	
4268	0	31888	
4269	0	31840	
4270	0	31792	
4271	0	31792	
4272	0	31800	
4273	0	31796	
4274	0	31802	
4275	0	31800	
4276	0	31770	
4277	0	31756	
4278	0	31780	
4279	0	31792	
4280	0	31764	
4281	0	31772	
4282	0	31732	
4283	0	31680	
4284	0	31668	
4285	0	31652	
4286	0	31620	
4287	0	31600	
4288	0	31632	
4289	0	31656	
4290	0	31680	
4291	0	31692	
4292	0	31716	
4293	0	31756	
4294	0	31752	
4295	0	31740	
4296	0	31744	
4297	0	31726	
4298	0	31748	
4299	0	31776	
4300	0	31824	
4301	0	31840	
4302	0	31840	
4303	0	31816	
4304	0	31790	
4305	0	31760	
4306	0	31760	
4307	0	31752	
4308	0	31760	
4309	0	31770	
4310	0	31800	
4311	0	31832	
4312	0	31860	
4313	0	31880	
4314	0	31912	
4315	0	31944	
4316	0	31944	
4317	0	31932	
4318	0	31928	
4319	0	31864	
4320	0	31848	
4321	0	31808	
4322	0	31804	
4323	0	31808	
4324	0	31792	
4325	0	31784	
4326	0	31780	
4327	0	31808	
4328	0	31824	
4329	0	31808	
4330	0	31804	
4331	0	31802	
4332	0	31828	
4333	0	31840	
4334	0	31844	
4335	0	31868	
4336	0	31868	
4337	0	31876	
4338	0	31880	
4339	0	31884	
4340	0	31872	
4341	0	31848	
4342	0	31860	
4343	0	31896	
4344	0	31902	
4345	0	31868	
4346	0	31836	
4347	0	31860	
4348	0	31904	
4349	0	31968	
4350	0	32008	
4351	0	32016	
4352	0	32040	
4353	0	32072	
4354	0	32100	
4355	0	32092	
4356	0	32034	
4357	0	31988	
4358	0	31960	
4359	0	31968	
4360	0	31952	
4361	0	31920	
4362	0	31856	
4363	0	31834	
4364	0	31836	
4365	0	31780	
4366	0	31768	
4367	0	31784	
4368	0	31812	
4369	0	31828	
4370	0	31828	
4371	0	31820	
4372	0	31824	
4373	0	31844	
4374	0	31848	
4375	0	31860	
4376	0	31880	
4377	0	31904	
4378	0	31878	
4379	0	31876	
4380	0	31914	
4381	0	31960	
4382	0	31976	
4383	0	31964	
4384	0	31956	
4385	0	31988	
4386	0	32008	
4387	0	32020	
4388	0	31988	
4389	0	31976	
4390	0	31980	
4391	0	32000	
4392	0	32016	
4393	0	31972	
4394	0	31960	
4395	0	32008	
4396	0	32016	
4397	0	31996	
4398	0	32024	
4399	0	32084	
4400	0	32132	
4401	0	32164	
4402	0	32192	
4403	0	32192	
4404	0	32194	
4405	0	32216	
4406	0	32212	
4407	0	32216	
4408	0	32192	
4409	0	32229	
4410	0	32250	
4411	0	32240	
4412	0	32216	
4413	0	32180	
4414	0	32156	
4415	0	32092	
4416	0	32062	
4417	0	32040	
4418	0	32064	
4419	0	32094	
4420	0	32136	
4421	0	32148	
4422	0	32172	
4423	0	32188	
4424	0	32220	
4425	0	32264	
4426	0	32304	
4427	0	32336	
4428	0	32352	
4429	0	32352	
4430	0	32316	
4431	0	32300	
4432	0	32304	
4433	0	32316	
4434	0	32332	
4435	0	32336	
4436	0	32348	
4437	0	32328	
4438	0	32296	
4439	0	32256	
4440	0	32252	
4441	0	32292	
4442	0	32324	
4443	0	32364	
4444	0	32400	
4445	0	32404	
4446	0	32406	
4447	0	32408	
4448	0	32396	
4449	0	32408	
4450	0	32456	
4451	0	32524	
4452	0	32562	
4453	0	32540	
4454	0	32528	
4455	0	32508	
4456	0	32468	
4457	0	32412	
4458	0	32376	
4459	0	32420	
4460	0	32480	
4461	0	32488	
4462	0	32496	
4463	0	32500	
4464	0	32472	
4465	0	32448	
4466	0	32474	
4467	0	32506	
4468	0	32504	
4469	0	32516	
4470	0	32494	
4471	0	32476	
4472	0	32476	
4473	0	32492	
4474	0	32520	
4475	0	32512	
4476	0	32520	
4477	0	32484	
4478	0	32472	
4479	0	32458	
4480	0	32444	
4481	0	32452	
4482	0	32472	
4483	0	32452	
4484	0	32460	
4485	0	32498	
4486	0	32512	
4487	0	32492	
4488	0	32468	
4489	0	32448	
4490	0	32448	
4491	0	32452	
4492	0	32440	
4493	0	32460	
4494	0	32468	
4495	0	32472	
4496	0	32488	
4497	0	32544	
4498	0	32592	
4499	0	32640	
4500	0	32684	
4501	0	32708	
4502	0	32704	
4503	0	32704	
4504	0	32682	
4505	0	32664	
4506	0	32624	
4507	0	32556	
4508	0	32510	
4509	0	32506	
4510	0	32532	
4511	0	32568	
4512	0	32580	
4513	0	32608	
4514	0	32626	
4515	0	32640	
4516	0	32684	
4517	0	32728	
4518	0	32736	
4519	0	32732	
4520	0	32712	
4521	0	32696	
4522	0	32672	
4523	0	32652	
4524	0	32672	
4525	0	32652	
4526	0	32608	
4527	0	32596	
4528	0	32568	
4529	0	32568	
4530	0	32560	
4531	0	32548	
4532	0	32564	
4533	0	32584	
4534	0	32596	
4535	0	32624	
4536	0	32652	
4537	0	32652	
4538	0	32632	
4539	0	32600	
4540	0	32550	
4541	0	32568	
4542	0	32608	
4543	0	32648	
4544	0	32700	
4545	0	32712	
4546	0	32720	
4547	0	32736	
4548	0	32760	
4549	0	32800	
4550	0	32804	
4551	0	32816	
4552	0	32772	
4553	0	32724	
4554	0	32668	
4555	0	32600	
4556	0	32580	
4557	0	32604	
4558	0	32592	
4559	0	32592	
4560	0	32596	
4561	0	32604	
4562	0	32604	
4563	0	32634	
4564	0	32644	
4565	0	32668	
4566	0	32668	
4567	0	32664	
4568	0	32688	
4569	0	32704	
4570	0	32700	
4571	0	32708	
4572	0	32732	
4573	0	32760	
4574	0	32794	
4575	0	32796	
4576	0	32792	
4577	0	32804	
4578	0	32808	
4579	0	32800	
4580	0	32774	
4581	0	32756	
4582	0	32752	
4583	0	32776	
4584	0	32808	
4585	0	32796	
4586	0	32824	
4587	0	32852	
4588	0	32844	
4589	0	32816	
4590	0	32816	
4591	0	32816	
4592	0	32808	
4593	0	32808	
4594	0	32788	
4595	0	32776	
4596	0	32792	
4597	0	32800	
4598	0	32820	
4599	0	32856	
4600	0	32876	
4601	0	32936	
4602	0	32956	
4603	0	32972	
4604	0	32980	
4605	0	32984	
4606	0	32980	
4607	0	32948	
4608	0	32928	
4609	0	32912	
4610	0	32856	
4611	0	32850	
4612	0	32864	
4613	0	32876	
4614	0	32852	
4615	0	32832	
4616	0	32824	
4617	0	32872	
4618	0	32896	
4619	0	32888	
4620	0	32868	
4621	0	32884	
4622	0	32876	
4623	0	32864	
4624	0	32852	
4625	0	32816	
4626	0	32808	
4627	0	32820	
4628	0	32856	
4629	0	32844	
4630	0	32864	
4631	0	32896	
4632	0	32926	
4633	0	32932	
4634	0	32944	
4635	0	32948	
4636	0	32954	
4637	0	32964	
4638	0	32988	
4639	0	33010	
4640	0	33016	
4641	0	33008	
4642	0	32996	
4643	0	33008	
4644	0	33016	
4645	0	32992	
4646	0	33004	
4647	0	33052	
4648	0	33080	
4649	0	33100	
4650	0	33084	
4651	0	33048	
4652	0	33040	
4653	0	33056	
4654	0	33072	
4655	0	33052	
4656	0	33080	
4657	0	33132	
4658	0	33156	
4659	0	33190	
4660	0	33256	
4661	0	33316	
4662	0	33336	
4663	0	33332	
4664	0	33304	
4665	0	33288	
4666	0	33292	
4667	0	33306	
4668	0	33304	
4669	0	33312	
4670	0	33304	
4671	0	33256	
4672	0	33192	
4673	0	33140	
4674	0	33168	
4675	0	33244	
4676	0	33316	
4677	0	33392	
4678	0	33504	
4679	0	33632	
4680	0	33800	
4681	0	33980	
4682	0	34120	
4683	0	34256	
4684	0	34372	
4685	0	34488	
4686	0	34580	
4687	0	34660	
4688	0	34680	
4689	0	34648	
4690	0	34608	
4691	0	34592	
4692	0	34644	
4693	0	34692	
4694	0	34708	
4695	0	34688	
4696	0	34636	
4697	0	34556	
4698	0	34430	
4699	0	34296	
4700	0	34168	
4701	0	34056	
4702	0	33972	
4703	0	33884	
4704	0	33786	
4705	0	33652	
4706	0	33536	
4707	0	33488	
4708	0	33432	
4709	0	33364	
4710	0	33328	
4711	0	33280	
4712	0	33248	
4713	0	33216	
4714	0	33184	
4715	0	33168	
4716	0	33148	
4717	0	33136	
4718	0	33140	
4719	0	33152	
4720	0	33156	
4721	0	33132	
4722	0	33120	
4723	0	33108	
4724	0	33116	
4725	0	33056	
4726	0	33028	
4727	0	32984	
4728	0	32920	
4729	0	32832	
4730	0	32836	
4731	0	32854	
4732	0	32844	
4733	0	32790	
4734	0	32704	
4735	0	32612	
4736	0	32532	
4737	0	32456	
4738	0	32432	
4739	0	32456	
4740	0	32488	
4741	0	32500	
4742	0	32504	
4743	0	32508	
4744	0	32516	
4745	0	32532	
4746	0	32536	
4747	0	32516	
4748	0	32500	
4749	0	32532	
4750	0	32548	
4751	0	32560	
4752	0	32570	
4753	0	32584	
4754	0	32604	
4755	0	32580	
4756	0	32584	
4757	0	32600	
4758	0	32588	
4759	0	32552	
4760	0	32532	
4761	0	32560	
4762	0	32552	
4763	0	32546	
4764	0	32560	
4765	0	32560	
4766	0	32580	
4767	0	32576	
4768	0	32592	
4769	0	32576	
4770	0	32576	
4771	0	32572	
4772	0	32548	
4773	0	32532	
4774	0	32524	
4775	0	32520	
4776	0	32520	
4777	0	32532	
4778	0	32592	
4779	0	32624	
4780	0	32628	
4781	0	32650	
4782	0	32668	
4783	0	32696	
4784	0	32680	
4785	0	32700	
4786	0	32692	
4787	0	32680	
4788	0	32684	
4789	0	32672	
4790	0	32642	
4791	0	32604	
4792	0	32552	
4793	0	32520	
4794	0	32528	
4795	0	32504	
4796	0	32464	
4797	0	32472	
4798	0	32496	
4799	0	32532	
4800	0	32580	
4801	0	32640	
4802	0	32696	
4803	0	32724	
4804	0	32744	
4805	0	32784	
4806	0	32800	
4807	0	32800	
4808	0	32748	
4809	0	32680	
4810	0	32576	
4811	0	32436	
4812	0	32280	
4813	0	32122	
4814	0	32008	
4815	0	31948	
4816	0	31936	
4817	0	32120	
4818	0	32426	
4819	0	32776	
4820	0	33092	
4821	0	33460	
4822	0	33832	
4823	0	34166	
4824	0	34386	
4825	0	34484	
4826	0	34660	
4827	0	34992	
4828	0	35508	
4829	0	36272	
4830	0	37244	
4831	0	38392	
4832	0	39684	
4833	0	41096	
4834	0	42664	
4835	0	44372	
4836	0	46048	
4837	0	47748	
4838	0	49476	
4839	0	51312	
4840	0	53136	
4841	0	54780	
4842	0	56080	
4843	0	57054	
4844	0	57940	
4845	0	58720	
4846	0	59384	
4847	0	59664	
4848	0	59136	
4849	0	57704	
4850	0	55340	
4851	0	52120	
4852	0	48436	
4853	0	44578	
4854	0	40816	
4855	0	37440	
4856	0	34560	
4857	0	32368	
4858	0	30894	
4859	0	29860	
4860	0	29056	
4861	0	28600	
4862	0	28452	
4863	0	28500	
4864	0	28786	
4865	0	29152	
4866	0	29516	
4867	0	29834	
4868	0	30076	
4869	0	30228	
4870	0	30324	
4871	0	30392	
4872	0	30464	
4873	0	30556	
4874	0	30644	
4875	0	30764	
4876	0	30850	
4877	0	30872	
4878	0	30884	
4879	0	30908	
4880	0	30940	
4881	0	30984	
4882	0	31000	
4883	0	30992	
4884	0	30956	
4885	0	30908	
4886	0	30836	
4887	0	30776	
4888	0	30740	
4889	0	30724	
4890	0	30754	
4891	0	30788	
4892	0	30794	
4893	0	30780	
4894	0	30805	
4895	0	30836	
4896	0	30860	
4897	0	30856	
4898	0	30882	
4899	0	30858	
4900	0	30812	
4901	0	30776	
4902	0	30746	
4903	0	30768	
4904	0	30848	
4905	0	30892	
4906	0	30940	
4907	0	30956	
4908	0	30940	
4909	0	30888	
4910	0	30856	
4911	0	30824	
4912	0	30844	
4913	0	30864	
4914	0	30858	
4915	0	30897	
4916	0	30940	
4917	0	30970	
4918	0	31004	
4919	0	31052	
4920	0	31140	
4921	0	31208	
4922	0	31208	
4923	0	31176	
4924	0	31148	
4925	0	31152	
4926	0	31184	
4927	0	31200	
4928	0	31212	
4929	0	31252	
4930	0	31312	
4931	0	31360	
4932	0	31384	
4933	0	31408	
4934	0	31448	
4935	0	31492	
4936	0	31496	
4937	0	31484	
4938	0	31452	
4939	0	31522	
4940	0	31580	
4941	0	31636	
4942	0	31688	
4943	0	31716	
4944	0	31740	
4945	0	31772	
4946	0	31812	
4947	0	31832	
4948	0	31832	
4949	0	31848	
4950	0	31888	
4951	0	31952	
4952	0	32004	
4953	0	32024	
4954	0	32048	
4955	0	32016	
4956	0	31980	
4957	0	31936	
4958	0	31916	
4959	0	31936	
4960	0	31970	
4961	0	31964	
4962	0	31936	
4963	0	31976	
4964	0	32060	
4965	0	32104	
4966	0	32140	
4967	0	32128	
4968	0	32080	
4969	0	32052	
4970	0	32056	
4971	0	32112	
4972	0	32136	
4973	0	32172	
4974	0	32240	
4975	0	32296	
4976	0	32397	
4977	0	32488	
4978	0	32556	
4979	0	32574	
4980	0	32620	
4981	0	32664	
4982	0	32672	
4983	0	32664	
4984	0	32664	
4985	0	32668	
4986	0	32672	
4987	0	32708	
4988	0	32782	
4989	0	32784	
4990	0	32780	
4991	0	32772	
4992	0	32780	
4993	0	32756	
4994	0	32732	
4995	0	32706	
4996	0	32644	
4997	0	32636	
4998	0	32616	
4999	0	32614	
5000	0	32616	
5001	0	32608	
5002	0	32632	
5003	0	32668	
5004	0	32688	
5005	0	32688	
5006	0	32704	
5007	0	32724	
5008	0	32764	
5009	0	32812	
5010	0	32860	
5011	0	32872	
5012	0	32856	
5013	0	32820	
5014	0	32808	
5015	0	32792	
5016	0	32772	
5017	0	32792	
5018	0	32840	
5019	0	32856	
5020	0	32888	
5021	0	32904	
5022	0	32944	
5023	0	32976	
5024	0	32984	
5025	0	32984	
5026	0	32960	
5027	0	32952	
5028	0	32956	
5029	0	32940	
5030	0	32932	
5031	0	32928	
5032	0	32952	
5033	0	32992	
5034	0	33056	
5035	0	33128	
5036	0	33184	
5037	0	33252	
5038	0	33296	
5039	0	33312	
5040	0	33332	
5041	0	33348	
5042	0	33356	
5043	0	33368	
5044	0	33376	
5045	0	33332	
5046	0	33304	
5047	0	33292	
5048	0	33308	
5049	0	33348	
5050	0	33368	
5051	0	33354	
5052	0	33364	
5053	0	33396	
5054	0	33424	
5055	0	33448	
5056	0	33480	
5057	0	33480	
5058	0	33480	
5059	0	33480	
5060	0	33440	
5061	0	33396	
5062	0	33388	
5063	0	33396	
5064	0	33416	
5065	0	33426	
5066	0	33416	
5067	0	33410	
5068	0	33404	
5069	0	33360	
5070	0	33336	
5071	0	33320	
5072	0	33296	
5073	0	33276	
5074	0	33296	
5075	0	33344	
5076	0	33392	
5077	0	33412	
5078	0	33409	
5079	0	33420	
5080	0	33432	
5081	0	33456	
5082	0	33472	
5083	0	33504	
5084	0	33544	
5085	0	33568	
5086	0	33540	
5087	0	33528	
5088	0	33480	
5089	0	33434	
5090	0	33412	
5091	0	33408	
5092	0	33420	
5093	0	33408	
5094	0	33396	
5095	0	33384	
5096	0	33380	
5097	0	33408	
5098	0	33428	
5099	0	33416	
5100	0	33374	
5101	0	33338	
5102	0	33328	
5103	0	33340	
5104	0	33336	
5105	0	33336	
5106	0	33328	
5107	0	33342	
5108	0	33368	
5109	0	33380	
5110	0	33376	
5111	0	33388	
5112	0	33416	
5113	0	33416	
5114	0	33400	
5115	0	33392	
5116	0	33402	
5117	0	33432	
5118	0	33452	
5119	0	33456	
5120	0	33452	
5121	0	33434	
5122	0	33448	
5123	0	33442	
5124	0	33398	
5125	0	33372	
5126	0	33344	
5127	0	33356	
5128	0	33356	
5129	0	33340	
5130	0	33312	
5131	0	33296	
5132	0	33290	
5133	0	33268	
5134	0	33218	
5135	0	33186	
5136	0	33152	
5137	0	33170	
5138	0	33184	
5139	0	33184	
5140	0	33172	
5141	0	33128	
5142	0	33088	
5143	0	33064	
5144	0	33026	
5145	0	33014	
5146	0	32968	
5147	0	32936	
5148	0	32908	
5149	0	32876	
5150	0	32852	
5151	0	32800	
5152	0	32748	
5153	0	32684	
5154	0	32620	
5155	0	32546	
5156	0	32468	
5157	0	32400	
5158	0	32348	
5159	0	32296	
5160	0	32244	
5161	0	32176	
5162	0	32092	
5163	0	32032	
5164	0	31944	
5165	0	31882	
5166	0	31810	
5167	0	31736	
5168	0	31668	
5169	0	31608	
5170	0	31553	
5171	0	31536	
5172	0	31516	
5173	0	31536	
5174	0	31556	
5175	0	31546	
5176	0	31520	
5177	0	31472	
5178	0	31416	
5179	0	31400	
5180	0	31420	
5181	0	31392	
5182	0	31376	
5183	0	31342	
5184	0	31300	
5185	0	31256	
5186	0	31234	
5187	0	31228	
5188	0	31192	
5189	0	31164	
5190	0	31136	
5191	0	31128	
5192	0	31104	
5193	0	31104	
5194	0	31068	
5195	0	31048	
5196	0	31004	
5197	0	30968	
5198	0	30944	
5199	0	30932	
5200	0	30928	
5201	0	30952	
5202	0	30976	
5203	0	30964	
5204	0	30988	
5205	0	31004	
5206	0	31040	
5207	0	31088	
5208	0	31108	
5209	0	31116	
5210	0	31124	
5211	0	31130	
5212	0	31108	
5213	0	31116	
5214	0	31132	
5215	0	31164	
5216	0	31208	
5217	0	31216	
5218	0	31220	
5219	0	31216	
5220	0	31240	
5221	0	31224	
5222	0	31232	
5223	0	31244	
5224	0	31236	
5225	0	31240	
5226	0	31262	
5227	0	31292	
5228	0	31328	
5229	0	31356	
5230	0	31372	
5231	0	31402	
5232	0	31400	
5233	0	31368	
5234	0	31364	
5235	0	31342	
5236	0	31344	
5237	0	31364	
5238	0	31412	
5239	0	31440	
5240	0	31492	
5241	0	31540	
5242	0	31558	
5243	0	31560	
5244	0	31560	
5245	0	31560	
5246	0	31568	
5247	0	31612	
5248	0	31648	
5249	0	31672	
5250	0	31684	
5251	0	31676	
5252	0	31660	
5253	0	31640	
5254	0	31664	
5255	0	31704	
5256	0	31720	
5257	0	31740	
5258	0	31760	
5259	0	31800	
5260	0	31812	
5261	0	31800	
5262	0	31796	
5263	0	31768	
5264	0	31732	
5265	0	31704	
5266	0	31700	
5267	0	31680	
5268	0	31666	
5269	0	31668	
5270	0	31672	
5271	0	31676	
5272	0	31688	
5273	0	31696	
5274	0	31696	
5275	0	31700	
5276	0	31696	
5277	0	31712	
5278	0	31752	
5279	0	31780	
5280	0	31768	
5281	0	31732	
5282	0	31704	
5283	0	31696	
5284	0	31696	
5285	0	31696	
5286	0	31680	
5287	0	31678	
5288	0	31692	
5289	0	31706	
5290	0	31732	
5291	0	31732	
5292	0	31712	
5293	0	31720	
5294	0	31728	
5295	0	31736	
5296	0	31732	
5297	0	31740	
5298	0	31736	
5299	0	31732	
5300	0	31716	
5301	0	31710	
5302	0	31716	
5303	0	31713	
5304	0	31684	
5305	0	31656	
5306	0	31660	
5307	0	31648	
5308	0	31664	
5309	0	31680	
5310	0	31666	
5311	0	31636	
5312	0	31614	
5313	0	31600	
5314	0	31604	
5315	0	31640	
5316	0	31676	
5317	0	31696	
5318	0	31676	
5319	0	31676	
5320	0	31672	
5321	0	31688	
5322	0	31680	
5323	0	31688	
5324	0	31712	
5325	0	31712	
5326	0	31732	
5327	0	31712	
5328	0	31672	
5329	0	31632	
5330	0	31648	
5331	0	31672	
5332	0	31700	
5333	0	31696	
5334	0	31676	
5335	0	31648	
5336	0	31636	
5337	0	31660	
5338	0	31672	
5339	0	31648	
5340	0	31668	
5341	0	31696	
5342	0	31704	
5343	0	31672	
5344	0	31646	
5345	0	31648	
5346	0	31728	
5347	0	31770	
5348	0	31770	
5349	0	31776	
5350	0	31772	
5351	0	31764	
5352	0	31766	
5353	0	31724	
5354	0	31704	
5355	0	31688	
5356	0	31662	
5357	0	31648	
5358	0	31674	
5359	0	31684	
5360	0	31696	
5361	0	31708	
5362	0	31720	
5363	0	31740	
5364	0	31784	
5365	0	31840	
5366	0	31884	
5367	0	31900	
5368	0	31896	
5369	0	31892	
5370	0	31860	
5371	0	31836	
5372	0	31840	
5373	0	31856	
5374	0	31864	
5375	0	31888	
5376	0	31904	
5377	0	31932	
5378	0	31924	
5379	0	31896	
5380	0	31876	
5381	0	31852	
5382	0	31840	
5383	0	31832	
5384	0	31852	
5385	0	31848	
5386	0	31860	
5387	0	31866	
5388	0	31868	
5389	0	31880	
5390	0	31912	
5391	0	31916	
5392	0	31944	
5393	0	31916	
5394	0	31900	
5395	0	31892	
5396	0	31892	
5397	0	31856	
5398	0	31864	
5399	0	31880	
5400	0	31900	
5401	0	31892	
5402	0	31892	
5403	0	31872	
5404	0	31860	
5405	0	31884	
5406	0	31884	
5407	0	31884	
5408	0	31904	
5409	0	31948	
5410	0	31976	
5411	0	31984	
5412	0	32008	
5413	0	32034	
5414	0	32032	
5415	0	32048	
5416	0	32096	
5417	0	32112	
5418	0	32116	
5419	0	32056	
5420	0	32056	
5421	0	32060	
5422	0	32064	
5423	0	32068	
5424	0	32048	
5425	0	32064	
5426	0	32068	
5427	0	32112	
5428	0	32146	
5429	0	32188	
5430	0	32212	
5431	0	32196	
5432	0	32200	
5433	0	32232	
5434	0	32240	
5435	0	32284	
5436	0	32312	
5437	0	32312	
5438	0	32276	
5439	0	32244	
5440	0	32168	
5441	0	32116	
5442	0	32112	
5443	0	32152	
5444	0	32184	
5445	0	32220	
5446	0	32244	
5447	0	32240	
5448	0	32228	
5449	0	32212	
5450	0	32216	
5451	0	32236	
5452	0	32260	
5453	0	32292	
5454	0	32328	
5455	0	32352	
5456	0	32360	
5457	0	32348	
5458	0	32352	
5459	0	32336	
5460	0	32312	
5461	0	32320	
5462	0	32364	
5463	0	32392	
5464	0	32384	
5465	0	32380	
5466	0	32392	
5467	0	32396	
5468	0	32396	
5469	0	32416	
5470	0	32448	
5471	0	32458	
5472	0	32428	
5473	0	32404	
5474	0	32388	
5475	0	32356	
5476	0	32340	
5477	0	32332	
5478	0	32348	
5479	0	32376	
5480	0	32372	
5481	0	32396	
5482	0	32404	
5483	0	32452	
5484	0	32516	
5485	0	32516	
5486	0	32538	
5487	0	32544	
5488	0	32548	
5489	0	32544	
5490	0	32488	
5491	0	32496	
5492	0	32520	
5493	0	32532	
5494	0	32544	
5495	0	32552	
5496	0	32548	
5497	0	32520	
5498	0	32496	
5499	0	32508	
5500	0	32516	
5501	0	32536	
5502	0	32508	
5503	0	32492	
5504	0	32460	
5505	0	32416	
5506	0	32380	
5507	0	32380	
5508	0	32388	
5509	0	32400	
5510	0	32424	
5511	0	32456	
5512	0	32464	
5513	0	32480	
5514	0	32512	
5515	0	32548	
5516	0	32564	
5517	0	32580	
5518	0	32616	
5519	0	32640	
5520	0	32644	
5521	0	32640	
5522	0	32652	
5523	0	32676	
5524	0	32704	
5525	0	32708	
5526	0	32712	
5527	0	32694	
5528	0	32704	
5529	0	32692	
5530	0	32648	
5531	0	32646	
5532	0	32688	
5533	0	32712	
5534	0	32704	
5535	0	32672	
5536	0	32654	
5537	0	32656	
5538	0	32668	
5539	0	32688	
5540	0	32714	
5541	0	32740	
5542	0	32724	
5543	0	32676	
5544	0	32652	
5545	0	32652	
5546	0	32674	
5547	0	32692	
5548	0	32724	
5549	0	32772	
5550	0	32784	
5551	0	32768	
5552	0	32764	
5553	0	32744	
5554	0	32736	
5555	0	32728	
5556	0	32724	
5557	0	32708	
5558	0	32696	
5559	0	32712	
5560	0	32744	
5561	0	32760	
5562	0	32780	
5563	0	32768	
5564	0	32752	
5565	0	32760	
5566	0	32772	
5567	0	32804	
5568	0	32792	
5569	0	32788	
5570	0	32796	
5571	0	32788	
5572	0	32784	
5573	0	32786	
5574	0	32796	
5575	0	32832	
5576	0	32868	
5577	0	32864	
5578	0	32844	
5579	0	32824	
5580	0	32808	
5581	0	32794	
5582	0	32792	
5583	0	32817	
5584	0	32856	
5585	0	32880	
5586	0	32888	
5587	0	32896	
5588	0	32886	
5589	0	32864	
5590	0	32828	
5591	0	32816	
5592	0	32828	
5593	0	32844	
5594	0	32872	
5595	0	32876	
5596	0	32872	
5597	0	32888	
5598	0	32876	
5599	0	32914	
5600	0	32940	
5601	0	32980	
5602	0	33028	
5603	0	33072	
5604	0	33096	
5605	0	33128	
5606	0	33180	
5607	0	33208	
5608	0	33200	
5609	0	33180	
5610	0	33164	
5611	0	33136	
5612	0	33092	
5613	0	33096	
5614	0	33120	
5615	0	33132	
5616	0	33144	
5617	0	33140	
5618	0	33140	
5619	0	33173	
5620	0	33192	
5621	0	33264	
5622	0	33378	
5623	0	33496	
5624	0	33596	
5625	0	33692	
5626	0	33824	
5627	0	33960	
5628	0	34080	
5629	0	34232	
5630	0	34356	
5631	0	34396	
5632	0	34400	
5633	0	34408	
5634	0	34392	
5635	0	34400	
5636	0	34434	
5637	0	34464	
5638	0	34504	
5639	0	34504	
5640	0	34472	
5641	0	34426	
5642	0	34368	
5643	0	34308	
5644	0	34240	
5645	0	34114	
5646	0	33960	
5647	0	33804	
5648	0	33696	
5649	0	33620	
5650	0	33560	
5651	0	33536	
5652	0	33500	
5653	0	33472	
5654	0	33426	
5655	0	33400	
5656	0	33378	
5657	0	33352	
5658	0	33316	
5659	0	33300	
5660	0	33264	
5661	0	33208	
5662	0	33174	
5663	0	33160	
5664	0	33144	
5665	0	33094	
5666	0	33080	
5667	0	33072	
5668	0	33068	
5669	0	33040	
5670	0	33024	
5671	0	33020	
5672	0	33024	
5673	0	33020	
5674	0	33000	
5675	0	32968	
5676	0	32976	
5677	0	32988	
5678	0	32952	
5679	0	32880	
5680	0	32776	
5681	0	32652	
5682	0	32548	
5683	0	32488	
5684	0	32456	
5685	0	32444	
5686	0	32408	
5687	0	32412	
5688	0	32404	
5689	0	32464	
5690	0	32508	
5691	0	32540	
5692	0	32562	
5693	0	32564	
5694	0	32500	
5695	0	32476	
5696	0	32436	
5697	0	32424	
5698	0	32426	
5699	0	32436	
5700	0	32440	
5701	0	32440	
5702	0	32452	
5703	0	32464	
5704	0	32456	
5705	0	32448	
5706	0	32432	
5707	0	32408	
5708	0	32398	
5709	0	32404	
5710	0	32428	
5711	0	32432	
5712	0	32434	
5713	0	32424	
5714	0	32408	
5715	0	32416	
5716	0	32448	
5717	0	32480	
5718	0	32504	
5719	0	32496	
5720	0	32490	
5721	0	32500	
5722	0	32508	
5723	0	32528	
5724	0	32548	
5725	0	32564	
5726	0	32584	
5727	0	32612	
5728	0	32648	
5729	0	32664	
5730	0	32656	
5731	0	32632	
5732	0	32606	
5733	0	32584	
5734	0	32572	
5735	0	32572	
5736	0	32572	
5737	0	32568	
5738	0	32572	
5739	0	32576	
5740	0	32568	
5741	0	32568	
5742	0	32544	
5743	0	32544	
5744	0	32568	
5745	0	32570	
5746	0	32604	
5747	0	32622	
5748	0	32660	
5749	0	32736	
5750	0	32772	
5751	0	32802	
5752	0	32836	
5753	0	32856	
5754	0	32826	
5755	0	32780	
5756	0	32720	
5757	0	32604	
5758	0	32464	
5759	0	32312	
5760	0	32188	
5761	0	32064	
5762	0	32048	
5763	0	32228	
5764	0	32540	
5765	0	32848	
5766	0	33178	
5767	0	33536	
5768	0	33876	
5769	0	34212	
5770	0	34433	
5771	0	34528	
5772	0	34720	
5773	0	35120	
5774	0	35740	
5775	0	36576	
5776	0	37624	
5777	0	38824	
5778	0	40152	
5779	0	41600	
5780	0	43184	
5781	0	44816	
5782	0	46436	
5783	0	48104	
5784	0	49888	
5785	0	51716	
5786	0	53356	
5787	0	54848	
5788	0	55996	
5789	0	56904	
5790	0	57732	
5791	0	58604	
5792	0	59240	
5793	0	59456	
5794	0	58812	
5795	0	57216	
5796	0	54608	
5797	0	51264	
5798	0	47492	
5799	0	43596	
5800	0	39872	
5801	0	36640	
5802	0	34104	
5803	0	32296	
5804	0	31066	
5805	0	30184	
5806	0	29580	
5807	0	29220	
5808	0	29026	
5809	0	29004	
5810	0	29188	
5811	0	29520	
5812	0	29836	
5813	0	30036	
5814	0	30192	
5815	0	30284	
5816	0	30376	
5817	0	30476	
5818	0	30596	
5819	0	30720	
5820	0	30852	
5821	0	30964	
5822	0	31042	
5823	0	31084	
5824	0	31100	
5825	0	31136	
5826	0	31152	
5827	0	31166	
5828	0	31148	
5829	0	31116	
5830	0	31064	
5831	0	30984	
5832	0	30936	
5833	0	30876	
5834	0	30840	
5835	0	30820	
5836	0	30820	
5837	0	30836	
5838	0	30836	
5839	0	30832	
5840	0	30804	
5841	0	30808	
5842	0	30796	
5843	0	30804	
5844	0	30832	
5845	0	30832	
5846	0	30832	
5847	0	30828	
5848	0	30852	
5849	0	30860	
5850	0	30860	
5851	0	30872	
5852	0	30912	
5853	0	30932	
5854	0	30916	
5855	0	30928	
5856	0	30952	
5857	0	30984	
5858	0	31012	
5859	0	31068	
5860	0	31104	
5861	0	31118	
5862	0	31136	
5863	0	31184	
5864	0	31208	
5865	0	31196	
5866	0	31180	
5867	0	31172	
5868	0	31196	
5869	0	31230	
5870	0	31280	
5871	0	31312	
5872	0	31330	
5873	0	31360	
5874	0	31384	
5875	0	31412	
5876	0	31468	
5877	0	31522	
5878	0	31548	
5879	0	31560	
5880	0	31548	
5881	0	31572	
5882	0	31604	
5883	0	31648	
5884	0	31680	
5885	0	31704	
5886	0	31692	
5887	0	31712	
5888	0	31736	
5889	0	31768	
5890	0	31804	
5891	0	31816	
5892	0	31864	
5893	0	31904	
5894	0	31930	
5895	0	31946	
5896	0	31980	
5897	0	32024	
5898	0	32056	
5899	0	32088	
5900	0	32108	
5901	0	32132	
5902	0	32176	
5903	0	32192	
5904	0	32208	
5905	0	32228	
5906	0	32272	
5907	0	32320	
5908	0	32364	
5909	0	32384	
5910	0	32388	
5911	0	32380	
5912	0	32360	
5913	0	32382	
5914	0	32400	
5915	0	32384	
5916	0	32380	
5917	0	32392	
5918	0	32416	
5919	0	32456	
5920	0	32480	
5921	0	32552	
5922	0	32560	
5923	0	32578	
5924	0	32600	
5925	0	32596	
5926	0	32564	
5927	0	32540	
5928	0	32544	
5929	0	32552	
5930	0	32544	
5931	0	32536	
5932	0	32552	
5933	0	32604	
5934	0	32668	
5935	0	32712	
5936	0	32744	
5937	0	32784	
5938	0	32834	
5939	0	32856	
5940	0	32858	
5941	0	32868	
5942	0	32892	
5943	0	32900	
5944	0	32904	
5945	0	32908	
5946	0	32908	
5947	0	32936	
5948	0	32956	
5949	0	32944	
5950	0	32928	
5951	0	32928	
5952	0	32936	
5953	0	32960	
5954	0	32978	
5955	0	32986	
5956	0	32980	
5957	0	32988	
5958	0	33024	
5959	0	33048	
5960	0	33056	
5961	0	33068	
5962	0	33076	
5963	0	33112	
5964	0	33162	
5965	0	33224	
5966	0	33264	
5967	0	33264	
5968	0	33296	
5969	0	33324	
5970	0	33348	
5971	0	33316	
5972	0	33324	
5973	0	33344	
5974	0	33340	
5975	0	33308	
5976	0	33296	
5977	0	33312	
5978	0	33352	
5979	0	33384	
5980	0	33392	
5981	0	33408	
5982	0	33384	
5983	0	33344	
5984	0	33336	
5985	0	33348	
5986	0	33380	
5987	0	33364	
5988	0	33360	
5989	0	33344	
5990	0	33352	
5991	0	33344	
5992	0	33312	
5993	0	33300	
5994	0	33306	
5995	0	33296	
5996	0	33304	
5997	0	33292	
5998	0	33288	
5999	0	33344	
6000	0	33360	
6001	0	33372	
6002	0	33404	
6003	0	33456	
6004	0	33446	
6005	0	33480	
6006	0	33512	
6007	0	33546	
6008	0	33544	
6009	0	33516	
6010	0	33516	
6011	0	33520	
6012	0	33504	
6013	0	33508	
6014	0	33508	
6015	0	33492	
6016	0	33496	
6017	0	33514	
6018	0	33536	
6019	0	33532	
6020	0	33564	
6021	0	33600	
6022	0	33624	
6023	0	33632	
6024	0	33636	
6025	0	33632	
6026	0	33632	
6027	0	33600	
6028	0	33540	
6029	0	33524	
6030	0	33524	
6031	0	33516	
6032	0	33500	
6033	0	33496	
6034	0	33482	
6035	0	33480	
6036	0	33458	
6037	0	33460	
6038	0	33480	
6039	0	33488	
6040	0	33488	
6041	0	33488	
6042	0	33520	
6043	0	33528	
6044	0	33538	
6045	0	33560	
6046	0	33552	
6047	0	33528	
6048	0	33552	
6049	0	33568	
6050	0	33568	
6051	0	33572	
6052	0	33576	
6053	0	33600	
6054	0	33608	
6055	0	33604	
6056	0	33634	
6057	0	33664	
6058	0	33684	
6059	0	33700	
6060	0	33684	
6061	0	33668	
6062	0	33648	
6063	0	33664	
6064	0	33656	
6065	0	33652	
6066	0	33648	
6067	0	33620	
6068	0	33596	
6069	0	33562	
6070	0	33524	
6071	0	33476	
6072	0	33444	
6073	0	33416	
6074	0	33400	
6075	0	33396	
6076	0	33376	
6077	0	33366	
6078	0	33356	
6079	0	33316	
6080	0	33286	
6081	0	33264	
6082	0	33260	
6083	0	33232	
6084	0	33194	
6085	0	33164	
6086	0	33130	
6087	0	33076	
6088	0	33018	
6089	0	32964	
6090	0	32872	
6091	0	32784	
6092	0	32738	
6093	0	32728	
6094	0	32696	
6095	0	32632	
6096	0	32560	
6097	0	32496	
6098	0	32436	
6099	0	32348	
6100	0	32296	
6101	0	32228	
6102	0	32164	
6103	0	32128	
6104	0	32072	
6105	0	32026	
6106	0	31960	
6107	0	31888	
6108	0	31824	
6109	0	31808	
6110	0	31784	
6111	0	31756	
6112	0	31700	
6113	0	31644	
6114	0	31616	
6115	0	31560	
6116	0	31524	
6117	0	31512	
6118	0	31476	
6119	0	31418	
6120	0	31364	
6121	0	31320	
6122	0	31304	
6123	0	31276	
6124	0	31248	
6125	0	31216	
6126	0	31196	
6127	0	31168	
6128	0	31168	
6129	0	31140	
6130	0	31104	
6131	0	31072	
6132	0	31080	
6133	0	31092	
6134	0	31076	
6135	0	31056	
6136	0	31028	
6137	0	31028	
6138	0	31046	
6139	0	31054	
6140	0	31060	
6141	0	31084	
6142	0	31096	
6143	0	31132	
6144	0	31140	
6145	0	31104	
6146	0	31041	
6147	0	30976	
6148	0	30952	
6149	0	30944	
6150	0	30960	
6151	0	30946	
6152	0	30962	
6153	0	30964	
6154	0	30958	
6155	0	30984	
6156	0	30996	
6157	0	31016	
6158	0	31022	
6159	0	31040	
6160	0	31078	
6161	0	31120	
6162	0	31150	
6163	0	31170	
6164	0	31160	
6165	0	31156	
6166	0	31184	
6167	0	31190	
6168	0	31182	
6169	0	31184	
6170	0	31192	
6171	0	31178	
6172	0	31208	
6173	0	31264	
6174	0	31304	
6175	0	31336	
6176	0	31368	
6177	0	31422	
6178	0	31440	
6179	0	31436	
6180	0	31452	
6181	0	31464	
6182	0	31448	
6183	0	31448	
6184	0	31452	
6185	0	31460	
6186	0	31484	
6187	0	31500	
6188	0	31496	
6189	0	31508	
6190	0	31524	
6191	0	31514	
6192	0	31504	
6193	0	31524	
6194	0	31532	
6195	0	31540	
6196	0	31556	
6197	0	31576	
6198	0	31596	
6199	0	31612	
6200	0	31600	
6201	0	31610	
6202	0	31616	
6203	0	31628	
6204	0	31636	
6205	0	31628	
6206	0	31606	
6207	0	31620	
6208	0	31636	
6209	0	31664	
6210	0	31668	
6211	0	31680	
6212	0	31660	
6213	0	31660	
6214	0	31688	
6215	0	31704	
6216	0	31690	
6217	0	31692	
6218	0	31680	
6219	0	31680	
6220	0	31720	
6221	0	31740	
6222	0	31772	
6223	0	31810	
6224	0	31860	
6225	0	31884	
6226	0	31900	
6227	0	31868	
6228	0	31840	
6229	0	31802	
6230	0	31804	
6231	0	31808	
6232	0	31812	
6233	0	31812	
6234	0	31812	
6235	0	31820	
6236	0	31832	
6237	0	31804	
6238	0	31780	
6239	0	31744	
6240	0	31748	
6241	0	31744	
6242	0	31744	
6243	0	31704	
6244	0	31700	
6245	0	31684	
6246	0	31692	
6247	0	31696	
6248	0	31684	
6249	0	31698	
6250	0	31712	
6251	0	31744	
6252	0	31756	
6253	0	31744	
6254	0	31748	
6255	0	31746	
6256	0	31748	
6257	0	31760	
6258	0	31796	
6259	0	31800	
6260	0	31792	
6261	0	31770	
6262	0	31768	
6263	0	31746	
6264	0	31764	
6265	0	31772	
6266	0	31748	
6267	0	31740	
6268	0	31736	
6269	0	31724	
6270	0	31748	
6271	0	31800	
6272	0	31844	
6273	0	31836	
6274	0	31796	
6275	0	31792	
6276	0	31816	
6277	0	31816	
6278	0	31808	
6279	0	31808	
6280	0	31792	
6281	0	31768	
6282	0	31750	
6283	0	31748	
6284	0	31760	
6285	0	31751	
6286	0	31750	
6287	0	31720	
6288	0	31724	
6289	0	31736	
6290	0	31772	
6291	0	31796	
6292	0	31804	
6293	0	31804	
6294	0	31804	
6295	0	31812	
6296	0	31812	
6297	0	31840	
6298	0	31844	
6299	0	31840	
6300	0	31844	
6301	0	31824	
6302	0	31808	
6303	0	31800	
6304	0	31792	
6305	0	31800	
6306	0	31784	
6307	0	31772	
6308	0	31780	
6309	0	31804	
6310	0	31812	
6311	0	31828	
6312	0	31860	
6313	0	31840	
6314	0	31864	
6315	0	31866	
6316	0	31860	
6317	0	31860	
6318	0	31856	
6319	0	31840	
6320	0	31862	
6321	0	31896	
6322	0	31952	
6323	0	31974	
6324	0	31984	
6325	0	31976	
6326	0	31956	
6327	0	31996	
6328	0	32042	
6329	0	32044	
6330	0	32044	
6331	0	32044	
6332	0	32072	
6333	0	32044	
6334	0	32014	
6335	0	31992	
6336	0	31992	
6337	0	31984	
6338	0	31968	
6339	0	31968	
6340	0	31968	
6341	0	31932	
6342	0	31924	
6343	0	31948	
6344	0	31952	
6345	0	31924	
6346	0	31920	
6347	0	31920	
6348	0	31944	
6349	0	31948	
6350	0	31944	
6351	0	31948	
6352	0	31952	
6353	0	31968	
6354	0	31978	
6355	0	31992	
6356	0	32008	
6357	0	32012	
6358	0	32048	
6359	0	32092	
6360	0	32112	
6361	0	32140	
6362	0	32154	
6363	0	32192	
6364	0	32236	
6365	0	32244	
6366	0	32244	
6367	0	32260	
6368	0	32248	
6369	0	32244	
6370	0	32236	
6371	0	32188	
6372	0	32196	
6373	0	32216	
6374	0	32232	
6375	0	32228	
6376	0	32204	
6377	0	32212	
6378	0	32204	
6379	0	32208	
6380	0	32212	
6381	0	32245	
6382	0	32248	
6383	0	32280	
6384	0	32328	
6385	0	32340	
6386	0	32340	
6387	0	32364	
6388	0	32376	
6389	0	32391	
6390	0	32384	
6391	0	32368	
6392	0	32365	
6393	0	32364	
6394	0	32320	
6395	0	32300	
6396	0	32292	
6397	0	32280	
6398	0	32272	
6399	0	32320	
6400	0	32360	
6401	0	32368	
6402	0	32368	
6403	0	32360	
6404	0	32356	
6405	0	32376	
6406	0	32396	
6407	0	32384	
6408	0	32384	
6409	0	32384	
6410	0	32368	
6411	0	32380	
6412	0	32382	
6413	0	32392	
6414	0	32376	
6415	0	32386	
6416	0	32416	
6417	0	32464	
6418	0	32484	
6419	0	32472	
6420	0	32448	
6421	0	32424	
6422	0	32436	
6423	0	32452	
6424	0	32456	
6425	0	32464	
6426	0	32500	
6427	0	32528	
6428	0	32546	
6429	0	32552	
6430	0	32576	
6431	0	32580	
6432	0	32580	
6433	0	32600	
6434	0	32616	
6435	0	32600	
6436	0	32564	
6437	0	32500	
6438	0	32484	
6439	0	32480	
6440	0	32476	
6441	0	32464	
6442	0	32474	
6443	0	32464	
6444	0	32486	
6445	0	32516	
6446	0	32580	
6447	0	32608	
6448	0	32604	
6449	0	32605	
6450	0	32576	
6451	0	32588	
6452	0	32600	
6453	0	32582	
6454	0	32542	
6455	0	32540	
6456	0	32528	
6457	0	32560	
6458	0	32572	
6459	0	32596	
6460	0	32624	
6461	0	32610	
6462	0	32592	
6463	0	32588	
6464	0	32608	
6465	0	32624	
6466	0	32640	
6467	0	32648	
6468	0	32660	
6469	0	32660	
6470	0	32660	
6471	0	32668	
6472	0	32654	
6473	0	32648	
6474	0	32644	
6475	0	32640	
6476	0	32644	
6477	0	32688	
6478	0	32716	
6479	0	32748	
6480	0	32804	
6481	0	32824	
6482	0	32840	
6483	0	32832	
6484	0	32832	
6485	0	32844	
6486	0	32852	
6487	0	32864	
6488	0	32848	
6489	0	32836	
6490	0	32848	
6491	0	32828	
6492	0	32792	
6493	0	32792	
6494	0	32768	
6495	0	32736	
6496	0	32732	
6497	0	32696	
6498	0	32704	
6499	0	32684	
6500	0	32668	
6501	0	32704	
6502	0	32784	
6503	0	32808	
6504	0	32844	
6505	0	32864	
6506	0	32884	
6507	0	32876	
6508	0	32852	
6509	0	32828	
6510	0	32800	
6511	0	32786	
6512	0	32750	
6513	0	32724	
6514	0	32708	
6515	0	32680	
6516	0	32680	
6517	0	32704	
6518	0	32712	
6519	0	32720	
6520	0	32752	
6521	0	32748	
6522	0	32748	
6523	0	32766	
6524	0	32784	
6525	0	32780	
6526	0	32784	
6527	0	32788	
6528	0	32792	
6529	0	32800	
6530	0	32842	
6531	0	32848	
6532	0	32844	
6533	0	32822	
6534	0	32832	
6535	0	32808	
6536	0	32796	
6537	0	32800	
6538	0	32808	
6539	0	32848	
6540	0	32848	
6541	0	32820	
6542	0	32796	
6543	0	32788	
6544	0	32784	
6545	0	32768	
6546	0	32780	
6547	0	32790	
6548	0	32804	
6549	0	32804	
6550	0	32788	
6551	0	32784	
6552	0	32784	
6553	0	32772	
6554	0	32784	
6555	0	32814	
6556	0	32828	
6557	0	32844	
6558	0	32836	
6559	0	32856	
6560	0	32900	
6561	0	32888	
6562	0	32868	
6563	0	32886	
6564	0	32900	
6565	0	32912	
6566	0	32920	
6567	0	32908	
6568	0	32906	
6569	0	32908	
6570	0	32928	
6571	0	32913	
6572	0	32900	
6573	0	32876	
6574	0	32868	
6575	0	32864	
6576	0	32856	
6577	0	32872	
6578	0	32880	
6579	0	32894	
6580	0	32940	
6581	0	32944	
6582	0	32952	
6583	0	32956	
6584	0	32952	
6585	0	32996	
6586	0	33012	
6587	0	33008	
6588	0	32984	
6589	0	32960	
6590	0	32940	
6591	0	32900	
6592	0	32882	
6593	0	32880	
6594	0	32860	
6595	0	32848	
6596	0	32844	
6597	0	32848	
6598	0	32868	
6599	0	32868	
6600	0	32924	
6601	0	32980	
6602	0	32980	
6603	0	32954	
6604	0	32952	
6605	0	32956	
6606	0	32948	
6607	0	32964	
6608	0	32972	
6609	0	32984	
6610	0	33016	
6611	0	33024	
6612	0	33008	
6613	0	32972	
6614	0	32944	
6615	0	32924	
6616	0	32962	
6617	0	32992	
6618	0	33004	
6619	0	33000	
6620	0	32984	
6621	0	32960	
6622	0	32968	
6623	0	32948	
6624	0	32924	
6625	0	32908	
6626	0	32932	
6627	0	32938	
6628	0	32928	
6629	0	32948	
6630	0	32956	
6631	0	32968	
6632	0	32974	
6633	0	32964	
6634	0	32952	
6635	0	32952	
6636	0	32972	
6637	0	32972	
6638	0	32960	
6639	0	32948	
6640	0	32936	
6641	0	32916	
6642	0	32944	
6643	0	32940	
6644	0	32920	
6645	0	32916	
6646	0	32896	
6647	0	32872	
6648	0	32860	
6649	0	32888	
6650	0	32896	
6651	0	32896	
6652	0	32888	
6653	0	32892	
6654	0	32896	
6655	0	32920	
6656	0	32916	
6657	0	32896	
6658	0	32888	
6659	0	32892	
6660	0	32916	
6661	0	32952	
6662	0	33032	
6663	0	33126	
6664	0	33224	
6665	0	33292	
6666	0	33316	
6667	0	33308	
6668	0	33292	
6669	0	33250	
6670	0	33196	
6671	0	33148	
6672	0	33124	
6673	0	33130	
6674	0	33152	
6675	0	33184	
6676	0	33232	
6677	0	33230	
6678	0	33204	
6679	0	33188	
6680	0	33208	
6681	0	33228	
6682	0	33288	
6683	0	33392	
6684	0	33504	
6685	0	33620	
6686	0	33736	
6687	0	33874	
6688	0	34032	
6689	0	34180	
6690	0	34304	
6691	0	34416	
6692	0	34510	
6693	0	34584	
6694	0	34628	
6695	0	34584	
6696	0	34554	
6697	0	34564	
6698	0	34608	
6699	0	34664	
6700	0	34628	
6701	0	34586	
6702	0	34492	
6703	0	34396	
6704	0	34304	
6705	0	34228	
6706	0	34116	
6707	0	34008	
6708	0	33888	
6709	0	33752	
6710	0	33636	
6711	0	33532	
6712	0	33448	
6713	0	33400	
6714	0	33356	
6715	0	33320	
6716	0	33308	
6717	0	33288	
6718	0	33294	
6719	0	33274	
6720	0	33272	
6721	0	33260	
6722	0	33244	
6723	0	33224	
6724	0	33204	
6725	0	33158	
6726	0	33096	
6727	0	33048	
6728	0	33014	
6729	0	33002	
6730	0	32960	
6731	0	32908	
6732	0	32924	
6733	0	32912	
6734	0	32932	
6735	0	32936	
6736	0	32930	
6737	0	32896	
6738	0	32882	
6739	0	32900	
6740	0	32900	
6741	0	32860	
6742	0	32812	
6743	0	32752	
6744	0	32672	
6745	0	32616	
6746	0	32554	
6747	0	32520	
6748	0	32494	
6749	0	32490	
6750	0	32464	
6751	0	32488	
6752	0	32484	
6753	0	32488	
6754	0	32496	
6755	0	32476	
6756	0	32468	
6757	0	32432	
6758	0	32410	
6759	0	32408	
6760	0	32396	
6761	0	32390	
6762	0	32412	
6763	0	32472	
6764	0	32516	
6765	0	32548	
6766	0	32536	
6767	0	32504	
6768	0	32488	
6769	0	32456	
6770	0	32448	
6771	0	32436	
6772	0	32452	
6773	0	32464	
6774	0	32460	
6775	0	32464	
6776	0	32464	
6777	0	32468	
6778	0	32488	
6779	0	32480	
6780	0	32452	
6781	0	32448	
6782	0	32464	
6783	0	32476	
6784	0	32496	
6785	0	32520	
6786	0	32528	
6787	0	32544	
6788	0	32568	
6789	0	32588	
6790	0	32568	
6791	0	32580	
6792	0	32568	
6793	0	32560	
6794	0	32580	
6795	0	32618	
6796	0	32624	
6797	0	32612	
6798	0	32584	
6799	0	32556	
6800	0	32532	
6801	0	32556	
6802	0	32584	
6803	0	32594	
6804	0	32604	
6805	0	32592	
6806	0	32576	
6807	0	32554	
6808	0	32540	
6809	0	32540	
6810	0	32584	
6811	0	32616	
6812	0	32648	
6813	0	32672	
6814	0	32688	
6815	0	32704	
6816	0	32672	
6817	0	32604	
6818	0	32468	
6819	0	32326	
6820	0	32168	
6821	0	32056	
6822	0	32020	
6823	0	32192	
6824	0	32460	
6825	0	32764	
6826	0	33084	
6827	0	33448	
6828	0	33772	
6829	0	34108	
6830	0	34408	
6831	0	34592	
6832	0	34804	
6833	0	35208	
6834	0	35796	
6835	0	36580	
6836	0	37532	
6837	0	38640	
6838	0	39920	
6839	0	41312	
6840	0	42776	
6841	0	44368	
6842	0	46000	
6843	0	47712	
6844	0	49440	
6845	0	51104	
6846	0	52608	
6847	0	53916	
6848	0	54960	
6849	0	55776	
6850	0	56728	
6851	0	57660	
6852	0	58252	
6853	0	58336	
6854	0	57504	
6855	0	55564	
6856	0	52780	
6857	0	49384	
6858	0	45664	
6859	0	41956	
6860	0	38584	
6861	0	35776	
6862	0	33744	
6863	0	32328	
6864	0	31336	
6865	0	30708	
6866	0	30308	
6867	0	30028	
6868	0	29920	
6869	0	29936	
6870	0	30024	
6871	0	30168	
6872	0	30288	
6873	0	30364	
6874	0	30436	
6875	0	30506	
6876	0	30564	
6877	0	30624	
6878	0	30740	
6879	0	30856	
6880	0	30976	
6881	0	31056	
6882	0	31108	
6883	0	31140	
6884	0	31152	
6885	0	31148	
6886	0	31108	
6887	0	31040	
6888	0	30964	
6889	0	30884	
6890	0	30826	
6891	0	30776	
6892	0	30744	
6893	0	30704	
6894	0	30692	
6895	0	30676	
6896	0	30682	
6897	0	30688	
6898	0	30696	
6899	0	30680	
6900	0	30664	
6901	0	30676	
6902	0	30688	
6903	0	30708	
6904	0	30708	
6905	0	30724	
6906	0	30740	
6907	0	30736	
6908	0	30708	
6909	0	30692	
6910	0	30684	
6911	0	30684	
6912	0	30664	
6913	0	30672	
6914	0	30712	
6915	0	30784	
6916	0	30824	
6917	0	30850	
6918	0	30846	
6919	0	30868	
6920	0	30904	
6921	0	30948	
6922	0	30988	
6923	0	31028	
6924	0	31072	
6925	0	31072	
6926	0	31064	
6927	0	31092	
6928	0	31140	
6929	0	31184	
6930	0	31220	
6931	0	31234	
6932	0	31220	
6933	0	31204	
6934	0	31218	
6935	0	31248	
6936	0	31264	
6937	0	31310	
6938	0	31356	
6939	0	31402	
6940	0	31412	
6941	0	31424	
6942	0	31448	
6943	0	31485	
6944	0	31516	
6945	0	31560	
6946	0	31568	
6947	0	31584	
6948	0	31604	
6949	0	31624	
6950	0	31636	
6951	0	31668	
6952	0	31704	
6953	0	31732	
6954	0	31750	
6955	0	31748	
6956	0	31768	
6957	0	31800	
6958	0	31840	
6959	0	31856	
6960	0	31880	
6961	0	31872	
6962	0	31876	
6963	0	31912	
6964	0	31956	
6965	0	31982	
6966	0	32004	
6967	0	32030	
6968	0	32064	
6969	0	32084	
6970	0	32100	
6971	0	32116	
6972	0	32152	
6973	0	32176	
6974	0	32192	
6975	0	32224	
6976	0	32234	
6977	0	32224	
6978	0	32236	
6979	0	32248	
6980	0	32244	
6981	0	32268	
6982	0	32288	
6983	0	32312	
6984	0	32342	
6985	0	32380	
6986	0	32424	
6987	0	32448	
6988	0	32464	
6989	0	32472	
6990	0	32504	
6991	0	32516	
6992	0	32528	
6993	0	32532	
6994	0	32544	
6995	0	32554	
6996	0	32524	
6997	0	32492	
6998	0	32488	
6999	0	32544	
7000	0	32604	
7001	0	32652	
7002	0	32652	
7003	0	32658	
7004	0	32644	
7005	0	32644	
7006	0	32662	
7007	0	32680	
7008	0	32718	
7009	0	32712	
7010	0	32734	
7011	0	32756	
7012	0	32780	
7013	0	32792	
7014	0	32804	
7015	0	32816	
7016	0	32848	
7017	0	32872	
7018	0	32888	
7019	0	32904	
7020	0	32904	
7021	0	32870	
7022	0	32860	
7023	0	32880	
7024	0	32948	
7025	0	32976	
7026	0	32980	
7027	0	32972	
7028	0	32968	
7029	0	32932	
7030	0	32928	
7031	0	32944	
7032	0	32962	
7033	0	32964	
7034	0	32984	
7035	0	32986	
7036	0	32976	
7037	0	33000	
7038	0	33008	
7039	0	33032	
7040	0	33092	
7041	0	33132	
7042	0	33168	
7043	0	33204	
7044	0	33212	
7045	0	33224	
7046	0	33256	
7047	0	33258	
7048	0	33256	
7049	0	33240	
7050	0	33216	
7051	0	33228	
7052	0	33220	
7053	0	33216	
7054	0	33204	
7055	0	33200	
7056	0	33200	
7057	0	33208	
7058	0	33204	
7059	0	33208	
7060	0	33202	
7061	0	33204	
7062	0	33200	
7063	0	33232	
7064	0	33256	
7065	0	33276	
7066	0	33296	
7067	0	33312	
7068	0	33312	
7069	0	33308	
7070	0	33304	
7071	0	33324	
7072	0	33348	
7073	0	33354	
7074	0	33344	
7075	0	33362	
7076	0	33360	
7077	0	33380	
7078	0	33416	
7079	0	33426	
7080	0	33436	
7081	0	33448	
7082	0	33448	
7083	0	33448	
7084	0	33408	
7085	0	33384	
7086	0	33378	
7087	0	33368	
7088	0	33352	
7089	0	33360	
7090	0	33372	
7091	0	33388	
7092	0	33384	
7093	0	33344	
7094	0	33338	
7095	0	33328	
7096	0	33340	
7097	0	33376	
7098	0	33392	
7099	0	33392	
7100	0	33396	
7101	0	33408	
7102	0	33400	
7103	0	33396	
7104	0	33376	
7105	0	33372	
7106	0	33332	
7107	0	33308	
7108	0	33320	
7109	0	33296	
7110	0	33312	
7111	0	33304	
7112	0	33296	
7113	0	33288	
7114	0	33304	
7115	0	33296	
7116	0	33304	
7117	0	33312	
7118	0	33308	
7119	0	33344	
7120	0	33376	
7121	0	33400	
7122	0	33416	
7123	0	33416	
7124	0	33424	
7125	0	33424	
7126	0	33440	
7127	0	33452	
7128	0	33464	
7129	0	33432	
7130	0	33416	
7131	0	33432	
7132	0	33440	
7133	0	33464	
7134	0	33470	
7135	0	33470	
7136	0	33440	
7137	0	33412	
7138	0	33404	
7139	0	33400	
7140	0	33396	
7141	0	33392	
7142	0	33388	
7143	0	33352	
7144	0	33336	
7145	0	33328	
7146	0	33292	
7147	0	33264	
7148	0	33200	
7149	0	33152	
7150	0	33100	
7151	0	33032	
7152	0	32976	
7153	0	32922	
7154	0	32824	
7155	0	32736	
7156	0	32666	
7157	0	32616	
7158	0	32592	
7159	0	32556	
7160	0	32532	
7161	0	32524	
7162	0	32492	
7163	0	32424	
7164	0	32352	
7165	0	32304	
7166	0	32274	
7167	0	32238	
7168	0	32188	
7169	0	32144	
7170	0	32108	
7171	0	32088	
7172	0	32060	
7173	0	32012	
7174	0	31956	
7175	0	31888	
7176	0	31828	
7177	0	31760	
7178	0	31688	
7179	0	31646	
7180	0	31618	
7181	0	31596	
7182	0	31552	
7183	0	31536	
7184	0	31530	
7185	0	31516	
7186	0	31472	
7187	0	31444	
7188	0	31420	
7189	0	31380	
7190	0	31300	
7191	0	31246	
7192	0	31236	
7193	0	31224	
7194	0	31204	
7195	0	31186	
7196	0	31148	
7197	0	31116	
7198	0	31104	
7199	0	31088	
7200	0	31056	
7201	0	31069	
7202	0	31064	
7203	0	31040	
7204	0	31040	
7205	0	31052	
7206	0	31048	
7207	0	31044	
7208	0	31052	
7209	0	31060	
7210	0	31064	
7211	0	31056	
7212	0	31096	
7213	0	31114	
7214	0	31106	
7215	0	31104	
7216	0	31088	
7217	0	31084	
7218	0	31092	
7219	0	31104	
7220	0	31140	
7221	0	31156	
7222	0	31172	
7223	0	31168	
7224	0	31188	
7225	0	31176	
7226	0	31180	
7227	0	31204	
7228	0	31212	
7229	0	31228	
7230	0	31256	
7231	0	31256	
7232	0	31264	
7233	0	31304	
7234	0	31332	
7235	0	31372	
7236	0	31392	
7237	0	31364	
7238	0	31340	
7239	0	31356	
7240	0	31376	
7241	0	31408	
7242	0	31438	
7243	0	31452	
7244	0	31480	
7245	0	31524	
7246	0	31584	
7247	0	31636	
7248	0	31656	
7249	0	31658	
7250	0	31640	
7251	0	31616	
7252	0	31602	
7253	0	31580	
7254	0	31584	
7255	0	31592	
7256	0	31608	
7257	0	31588	
7258	0	31576	
7259	0	31568	
7260	0	31584	
7261	0	31588	
7262	0	31610	
7263	0	31668	
7264	0	31692	
7265	0	31704	
7266	0	31720	
7267	0	31744	
7268	0	31802	
7269	0	31812	
7270	0	31834	
7271	0	31844	
7272	0	31840	
7273	0	31804	
7274	0	31800	
7275	0	31784	
7276	0	31772	
7277	0	31776	
7278	0	31786	
7279	0	31772	
7280	0	31784	
7281	0	31792	
7282	0	31796	
7283	0	31784	
7284	0	31752	
7285	0	31728	
7286	0	31700	
7287	0	31700	
7288	0	31700	
7289	0	31708	
7290	0	31708	
7291	0	31744	
7292	0	31756	
7293	0	31744	
7294	0	31760	
7295	0	31729	
7296	0	31716	
7297	0	31760	
7298	0	31816	
7299	0	31876	
7300	0	31884	
7301	0	31876	
7302	0	31864	
7303	0	31856	
7304	0	31856	
7305	0	31840	
7306	0	31864	
7307	0	31880	
7308	0	31876	
7309	0	31868	
7310	0	31880	
7311	0	31868	
7312	0	31880	
7313	0	31896	
7314	0	31902	
7315	0	31872	
7316	0	31860	
7317	0	31840	
7318	0	31816	
7319	0	31820	
7320	0	31840	
7321	0	31828	
7322	0	31808	
7323	0	31766	
7324	0	31752	
7325	0	31748	
7326	0	31732	
7327	0	31736	
7328	0	31732	
7329	0	31712	
7330	0	31708	
7331	0	31732	
7332	0	31780	
7333	0	31832	
7334	0	31848	
7335	0	31856	
7336	0	31868	
7337	0	31880	
7338	0	31884	
7339	0	31896	
7340	0	31884	
7341	0	31888	
7342	0	31864	
7343	0	31856	
7344	0	31856	
7345	0	31872	
7346	0	31884	
7347	0	31888	
7348	0	31872	
7349	0	31842	
7350	0	31840	
7351	0	31848	
7352	0	31868	
7353	0	31848	
7354	0	31820	
7355	0	31808	
7356	0	31840	
7357	0	31884	
7358	0	31944	
7359	0	31964	
7360	0	31972	
7361	0	31948	
7362	0	31924	
7363	0	31940	
7364	0	31966	
7365	0	31980	
7366	0	31992	
7367	0	31972	
7368	0	31968	
7369	0	31944	
7370	0	31968	
7371	0	31968	
7372	0	31984	
7373	0	32040	
7374	0	32034	
7375	0	32028	
7376	0	32020	
7377	0	31972	
7378	0	31973	
7379	0	31968	
7380	0	31968	
7381	0	31992	
7382	0	32024	
7383	0	32048	
7384	0	32068	
7385	0	32064	
7386	0	32046	
7387	0	31996	
7388	0	31950	
7389	0	31932	
7390	0	31896	
7391	0	31876	
7392	0	31872	
7393	0	31896	
7394	0	31928	
7395	0	31932	
7396	0	31936	
7397	0	31950	
7398	0	31972	
7399	0	32000	
7400	0	32044	
7401	0	32084	
7402	0	32108	
7403	0	32116	
7404	0	32148	
7405	0	32160	
7406	0	32176	
7407	0	32160	
7408	0	32144	
7409	0	32136	
7410	0	32148	
7411	0	32124	
7412	0	32088	
7413	0	32032	
7414	0	32008	
7415	0	32032	
7416	0	32064	
7417	0	32096	
7418	0	32136	
7419	0	32122	
7420	0	32136	
7421	0	32168	
7422	0	32204	
7423	0	32208	
7424	0	32188	
7425	0	32132	
7426	0	32128	
7427	0	32140	
7428	0	32154	
7429	0	32172	
7430	0	32140	
7431	0	32152	
7432	0	32168	
7433	0	32204	
7434	0	32252	
7435	0	32298	
7436	0	32320	
7437	0	32328	
7438	0	32356	
7439	0	32388	
7440	0	32392	
7441	0	32396	
7442	0	32388	
7443	0	32364	
7444	0	32312	
7445	0	32256	
7446	0	32224	
7447	0	32192	
7448	0	32180	
7449	0	32164	
7450	0	32172	
7451	0	32192	
7452	0	32216	
7453	0	32236	
7454	0	32288	
7455	0	32348	
7456	0	32392	
7457	0	32380	
7458	0	32384	
7459	0	32366	
7460	0	32376	
7461	0	32372	
7462	0	32380	
7463	0	32412	
7464	0	32458	
7465	0	32502	
7466	0	32519	
7467	0	32480	
7468	0	32460	
7469	0	32412	
7470	0	32344	
7471	0	32312	
7472	0	32304	
7473	0	32312	
7474	0	32320	
7475	0	32340	
7476	0	32336	
7477	0	32354	
7478	0	32384	
7479	0	32444	
7480	0	32482	
7481	0	32500	
7482	0	32484	
7483	0	32468	
7484	0	32488	
7485	0	32512	
7486	0	32500	
7487	0	32526	
7488	0	32548	
7489	0	32590	
7490	0	32652	
7491	0	32660	
7492	0	32672	
7493	0	32656	
7494	0	32596	
7495	0	32528	
7496	0	32472	
7497	0	32452	
7498	0	32420	
7499	0	32422	
7500	0	32424	
7501	0	32416	
7502	0	32444	
7503	0	32456	
7504	0	32452	
7505	0	32456	
7506	0	32496	
7507	0	32512	
7508	0	32520	
7509	0	32524	
7510	0	32540	
7511	0	32576	
7512	0	32624	
7513	0	32624	
7514	0	32620	
7515	0	32624	
7516	0	32636	
7517	0	32658	
7518	0	32672	
7519	0	32704	
7520	0	32740	
7521	0	32756	
7522	0	32776	
7523	0	32776	
7524	0	32800	
7525	0	32804	
7526	0	32804	
7527	0	32814	
7528	0	32800	
7529	0	32772	
7530	0	32748	
7531	0	32748	
7532	0	32776	
7533	0	32800	
7534	0	32820	
7535	0	32826	
7536	0	32840	
7537	0	32840	
7538	0	32824	
7539	0	32816	
7540	0	32820	
7541	0	32828	
7542	0	32848	
7543	0	32872	
7544	0	32872	
7545	0	32864	
7546	0	32846	
7547	0	32796	
7548	0	32748	
7549	0	32720	
7550	0	32704	
7551	0	32672	
7552	0	32660	
7553	0	32644	
7554	0	32660	
7555	0	32664	
7556	0	32684	
7557	0	32688	
7558	0	32716	
7559	0	32728	
7560	0	32744	
7561	0	32776	
7562	0	32792	
7563	0	32816	
7564	0	32844	
7565	0	32858	
7566	0	32848	
7567	0	32846	
7568	0	32888	
7569	0	32932	
7570	0	32928	
7571	0	32932	
7572	0	32948	
7573	0	32948	
7574	0	32952	
7575	0	32976	
7576	0	33000	
7577	0	32976	
7578	0	32936	
7579	0	32848	
7580	0	32816	
7581	0	32800	
7582	0	32776	
7583	0	32788	
7584	0	32812	
7585	0	32844	
7586	0	32890	
7587	0	32926	
7588	0	32932	
7589	0	32908	
7590	0	32864	
7591	0	32848	
7592	0	32840	
7593	0	32836	
7594	0	32856	
7595	0	32864	
7596	0	32872	
7597	0	32866	
7598	0	32908	
7599	0	32980	
7600	0	33074	
7601	0	33132	
7602	0	33152	
7603	0	33124	
7604	0	33116	
7605	0	33100	
7606	0	33056	
7607	0	33004	
7608	0	33000	
7609	0	33022	
7610	0	33048	
7611	0	33114	
7612	0	33148	
7613	0	33164	
7614	0	33172	
7615	0	33176	
7616	0	33192	
7617	0	33228	
7618	0	33320	
7619	0	33440	
7620	0	33572	
7621	0	33672	
7622	0	33804	
7623	0	33956	
7624	0	34140	
7625	0	34272	
7626	0	34372	
7627	0	34432	
7628	0	34474	
7629	0	34456	
7630	0	34484	
7631	0	34488	
7632	0	34476	
7633	0	34456	
7634	0	34456	
7635	0	34492	
7636	0	34528	
7637	0	34492	
7638	0	34416	
7639	0	34324	
7640	0	34228	
7641	0	34136	
7642	0	34000	
7643	0	33868	
7644	0	33750	
7645	0	33632	
7646	0	33552	
7647	0	33496	
7648	0	33472	
7649	0	33472	
7650	0	33468	
7651	0	33450	
7652	0	33440	
7653	0	33388	
7654	0	33352	
7655	0	33268	
7656	0	33264	
7657	0	33216	
7658	0	33164	
7659	0	33140	
7660	0	33132	
7661	0	33088	
7662	0	33078	
7663	0	33076	
7664	0	33096	
7665	0	33100	
7666	0	33088	
7667	0	33110	
7668	0	33128	
7669	0	33114	
7670	0	33090	
7671	0	33032	
7672	0	32944	
7673	0	32884	
7674	0	32860	
7675	0	32816	
7676	0	32746	
7677	0	32640	
7678	0	32576	
7679	0	32544	
7680	0	32480	
7681	0	32436	
7682	0	32408	
7683	0	32372	
7684	0	32370	
7685	0	32316	
7686	0	32276	
7687	0	32248	
7688	0	32300	
7689	0	32336	
7690	0	32368	
7691	0	32356	
7692	0	32332	
7693	0	32308	
7694	0	32316	
7695	0	32354	
7696	0	32404	
7697	0	32464	
7698	0	32440	
7699	0	32456	
7700	0	32456	
7701	0	32468	
7702	0	32496	
7703	0	32500	
7704	0	32504	
7705	0	32504	
7706	0	32492	
7707	0	32484	
7708	0	32428	
7709	0	32424	
7710	0	32440	
7711	0	32448	
7712	0	32420	
7713	0	32384	
7714	0	32368	
7715	0	32400	
7716	0	32426	
7717	0	32436	
7718	0	32432	
7719	0	32418	
7720	0	32408	
7721	0	32448	
7722	0	32478	
7723	0	32448	
7724	0	32440	
7725	0	32458	
7726	0	32492	
7727	0	32528	
7728	0	32546	
7729	0	32584	
7730	0	32620	
7731	0	32616	
7732	0	32624	
7733	0	32596	
7734	0	32572	
7735	0	32564	
7736	0	32542	
7737	0	32516	
7738	0	32552	
7739	0	32572	
7740	0	32592	
7741	0	32616	
7742	0	32616	
7743	0	32616	
7744	0	32624	
7745	0	32640	
7746	0	32660	
7747	0	32704	
7748	0	32760	
7749	0	32832	
7750	0	32844	
7751	0	32800	
7752	0	32740	
7753	0	32694	
7754	0	32592	
7755	0	32440	
7756	0	32300	
7757	0	32192	
7758	0	32100	
7759	0	32116	
7760	0	32312	
7761	0	32600	
7762	0	32882	
7763	0	33204	
7764	0	33552	
7765	0	33888	
7766	0	34192	
7767	0	34324	
7768	0	34436	
7769	0	34652	
7770	0	35050	
7771	0	35684	
7772	0	36564	
7773	0	37680	
7774	0	38944	
7775	0	40268	
7776	0	41732	
7777	0	43344	
7778	0	45020	
7779	0	46712	
7780	0	48444	
7781	0	50220	
7782	0	52004	
7783	0	53632	
7784	0	55092	
7785	0	56128	
7786	0	57004	
7787	0	57816	
7788	0	58648	
7789	0	59200	
7790	0	59064	
7791	0	58048	
7792	0	56072	
7793	0	53120	
7794	0	49616	
7795	0	45848	
7796	0	42124	
7797	0	38668	
7798	0	35674	
7799	0	33334	
7800	0	31696	
7801	0	30548	
7802	0	29648	
7803	0	29072	
7804	0	28828	
7805	0	28768	
7806	0	28884	
7807	0	29114	
7808	0	29440	
7809	0	29760	
7810	0	30020	
7811	0	30192	
7812	0	30300	
7813	0	30372	
7814	0	30464	
7815	0	30636	
7816	0	30840	
7817	0	30992	
7818	0	31052	
7819	0	31060	
7820	0	31060	
7821	0	31056	
7822	0	31040	
7823	0	31032	
7824	0	31024	
7825	0	31016	
7826	0	31050	
7827	0	31044	
7828	0	31016	
7829	0	31026	
7830	0	31044	
7831	0	31016	
7832	0	30956	
7833	0	30936	
7834	0	30922	
7835	0	30964	
7836	0	30980	
7837	0	30952	
7838	0	30944	
7839	0	30932	
7840	0	30916	
7841	0	30868	
7842	0	30848	
7843	0	30856	
7844	0	30868	
7845	0	30860	
7846	0	30842	
7847	0	30864	
7848	0	30932	
7849	0	30984	
7850	0	31016	
7851	0	31020	
7852	0	31000	
7853	0	30984	
7854	0	30984	
7855	0	30976	
7856	0	30956	
7857	0	30920	
7858	0	30876	
7859	0	30880	
7860	0	30908	
7861	0	30956	
7862	0	30978	
7863	0	31024	
7864	0	31092	
7865	0	31138	
7866	0	31190	
7867	0	31228	
7868	0	31272	
7869	0	31296	
7870	0	31312	
7871	0	31384	
7872	0	31496	
7873	0	31520	
7874	0	31520	
7875	0	31508	
7876	0	31540	
7877	0	31592	
7878	0	31664	
7879	0	31712	
7880	0	31756	
7881	0	31772	
7882	0	31800	
7883	0	31804	
7884	0	31810	
7885	0	31808	
7886	0	31824	
7887	0	31836	
7888	0	31832	
7889	0	31828	
7890	0	31818	
7891	0	31820	
7892	0	31846	
7893	0	31856	
7894	0	31840	
7895	0	31880	
7896	0	31924	
7897	0	31952	
7898	0	31988	
7899	0	31994	
7900	0	32020	
7901	0	32016	
7902	0	32032	
7903	0	32060	
7904	0	32068	
7905	0	32120	
7906	0	32204	
7907	0	32288	
7908	0	32336	
7909	0	32324	
7910	0	32324	
7911	0	32324	
7912	0	32320	
7913	0	32344	
7914	0	32396	
7915	0	32460	
7916	0	32554	
7917	0	32640	
7918	0	32666	
7919	0	32688	
7920	0	32676	
7921	0	32676	
7922	0	32676	
7923	0	32696	
7924	0	32692	
7925	0	32688	
7926	0	32720	
7927	0	32764	
7928	0	32768	
7929	0	32762	
7930	0	32756	
7931	0	32716	
7932	0	32700	
7933	0	32708	
7934	0	32688	
7935	0	32652	
7936	0	32660	
7937	0	32676	
7938	0	32652	
7939	0	32640	
7940	0	32640	
7941	0	32656	
7942	0	32644	
7943	0	32640	
7944	0	32664	
7945	0	32696	
7946	0	32708	
7947	0	32738	
7948	0	32760	
7949	0	32772	
7950	0	32826	
7951	0	32856	
7952	0	32880	
7953	0	32960	
7954	0	33052	
7955	0	33056	
7956	0	33068	
7957	0	33104	
7958	0	33104	
7959	0	33104	
7960	0	33114	
7961	0	33108	
7962	0	33112	
7963	0	33136	
7964	0	33208	
7965	0	33306	
7966	0	33352	
7967	0	33368	
7968	0	33376	
7969	0	33376	
7970	0	33392	
7971	0	33384	
7972	0	33344	
7973	0	33300	
7974	0	33256	
7975	0	33272	
7976	0	33304	
7977	0	33274	
7978	0	33264	
7979	0	33288	
7980	0	33312	
7981	0	33340	
7982	0	33400	
7983	0	33436	
7984	0	33408	
7985	0	33376	
7986	0	33376	
7987	0	33376	
7988	0	33344	
7989	0	33320	
7990	0	33320	
7991	0	33304	
7992	0	33304	
7993	0	33316	
7994	0	33348	
7995	0	33376	
7996	0	33372	
7997	0	33344	
7998	0	33320	
7999	0	33360	
8000	0	33416	
8001	0	33468	
8002	0	33512	
8003	0	33544	
8004	0	33584	
8005	0	33612	
8006	0	33644	
8007	0	33680	
8008	0	33724	
8009	0	33732	
8010	0	33712	
8011	0	33700	
8012	0	33672	
8013	0	33616	
8014	0	33556	
8015	0	33520	
8016	0	33548	
8017	0	33604	
8018	0	33652	
8019	0	33716	
8020	0	33748	
8021	0	33748	
8022	0	33724	
8023	0	33724	
8024	0	33740	
8025	0	33736	
8026	0	33704	
8027	0	33700	
8028	0	33706	
8029	0	33728	
8030	0	33740	
8031	0	33728	
8032	0	33688	
8033	0	33612	
8034	0	33548	
8035	0	33516	
8036	0	33520	
8037	0	33536	
8038	0	33524	
8039	0	33528	
8040	0	33536	
8041	0	33584	
8042	0	33646	
8043	0	33692	
8044	0	33724	
8045	0	33796	
8046	0	33824	
8047	0	33808	
8048	0	33756	
8049	0	33676	
8050	0	33616	
8051	0	33602	
8052	0	33608	
8053	0	33624	
8054	0	33614	
8055	0	33596	
8056	0	33608	
8057	0	33608	
8058	0	33604	
8059	0	33616	
8060	0	33600	
8061	0	33604	
8062	0	33608	
8063	0	33612	
8064	0	33608	
8065	0	33652	
8066	0	33672	
8067	0	33684	
8068	0	33644	
8069	0	33588	
8070	0	33544	
8071	0	33504	
8072	0	33492	
8073	0	33472	
8074	0	33440	
8075	0	33396	
8076	0	33336	
8077	0	33292	
8078	0	33232	
8079	0	33192	
8080	0	33166	
8081	0	33104	
8082	0	33044	
8083	0	33004	
8084	0	32970	
8085	0	32920	
8086	0	32896	
8087	0	32884	
8088	0	32858	
8089	0	32828	
8090	0	32796	
8091	0	32764	
8092	0	32688	
8093	0	32624	
8094	0	32532	
8095	0	32436	
8096	0	32364	
8097	0	32328	
8098	0	32252	
8099	0	32176	
8100	0	32116	
8101	0	32028	
8102	0	31930	
8103	0	31848	
8104	0	31768	
8105	0	31674	
8106	0	31572	
8107	0	31456	
8108	0	31396	
8109	0	31300	
8110	0	31242	
8111	0	31220	
8112	0	31200	
8113	0	31192	
8114	0	31156	
8115	0	31124	
8116	0	31084	
8117	0	31040	
8118	0	30964	
8119	0	30930	
8120	0	30944	
8121	0	30924	
8122	0	30908	
8123	0	30900	
8124	0	30908	
8125	0	30892	
8126	0	30892	
8127	0	30888	
8128	0	30868	
8129	0	30828	
8130	0	30792	
8131	0	30708	
8132	0	30666	
8133	0	30676	
8134	0	30688	
8135	0	30684	
8136	0	30726	
8137	0	30744	
8138	0	30760	
8139	0	30786	
8140	0	30798	
8141	0	30824	
8142	0	30852	
8143	0	30876	
8144	0	30888	
8145	0	30880	
8146	0	30848	
8147	0	30778	
8148	0	30740	
8149	0	30748	
8150	0	30780	
8151	0	30820	
8152	0	30812	
8153	0	30788	
8154	0	30796	
8155	0	30800	
8156	0	30816	
8157	0	30844	
8158	0	30884	
8159	0	30940	
8160	0	31010	
8161	0	31052	
8162	0	31074	
8163	0	31098	
8164	0	31148	
8165	0	31164	
8166	0	31200	
8167	0	31264	
8168	0	31296	
8169	0	31316	
8170	0	31308	
8171	0	31340	
8172	0	31352	
8173	0	31328	
8174	0	31308	
8175	0	31288	
8176	0	31292	
8177	0	31276	
8178	0	31244	
8179	0	31248	
8180	0	31284	
8181	0	31320	
8182	0	31340	
8183	0	31356	
8184	0	31372	
8185	0	31408	
8186	0	31444	
8187	0	31464	
8188	0	31470	
8189	0	31482	
8190	0	31510	
8191	0	31524	
8192	0	31524	
8193	0	31516	
8194	0	31492	
8195	0	31540	
8196	0	31580	
8197	0	31624	
8198	0	31680	
8199	0	31748	
8200	0	31812	
8201	0	31824	
8202	0	31832	
8203	0	31856	
8204	0	31852	
8205	0	31808	
8206	0	31764	
8207	0	31712	
8208	0	31680	
8209	0	31692	
8210	0	31696	
8211	0	31684	
8212	0	31688	
8213	0	31700	
8214	0	31704	
8215	0	31700	
8216	0	31720	
8217	0	31756	
8218	0	31772	
8219	0	31758	
8220	0	31760	
8221	0	31800	
8222	0	31800	
8223	0	31760	
8224	0	31784	
8225	0	31812	
8226	0	31812	
8227	0	31832	
8228	0	31860	
8229	0	31884	
8230	0	31880	
8231	0	31876	
8232	0	31876	
8233	0	31876	
8234	0	31856	
8235	0	31808	
8236	0	31776	
8237	0	31764	
8238	0	31776	
8239	0	31808	
8240	0	31832	
8241	0	31808	
8242	0	31802	
8243	0	31808	
8244	0	31832	
8245	0	31872	
8246	0	31888	
8247	0	31856	
8248	0	31800	
8249	0	31784	
8250	0	31768	
8251	0	31704	
8252	0	31696	
8253	0	31716	
8254	0	31740	
8255	0	31756	
8256	0	31802	
8257	0	31820	
8258	0	31808	
8259	0	31776	
8260	0	31746	
8261	0	31728	
8262	0	31702	
8263	0	31708	
8264	0	31732	
8265	0	31752	
8266	0	31764	
8267	0	31782	
8268	0	31784	
8269	0	31768	
8270	0	31784	
8271	0	31780	
8272	0	31776	
8273	0	31756	
8274	0	31712	
8275	0	31700	
8276	0	31696	
8277	0	31692	
8278	0	31694	
8279	0	31728	
8280	0	31744	
8281	0	31738	
8282	0	31724	
8283	0	31740	
8284	0	31736	
8285	0	31732	
8286	0	31784	
8287	0	31808	
8288	0	31804	
8289	0	31796	
8290	0	31808	
8291	0	31786	
8292	0	31768	
8293	0	31768	
8294	0	31798	
8295	0	31808	
8296	0	31808	
8297	0	31784	
8298	0	31748	
8299	0	31756	
8300	0	31748	
8301	0	31756	
8302	0	31754	
8303	0	31764	
8304	0	31784	
8305	0	31796	
8306	0	31792	
8307	0	31792	
8308	0	31812	
8309	0	31840	
8310	0	31858	
8311	0	31840	
8312	0	31812	
8313	0	31796	
8314	0	31800	
8315	0	31802	
8316	0	31828	
8317	0	31860	
8318	0	31876	
8319	0	31868	
8320	0	31888	
8321	0	31888	
8322	0	31876	
8323	0	31896	
8324	0	31920	
8325	0	31936	
8326	0	31962	
8327	0	31976	
8328	0	31992	
8329	0	31984	
8330	0	31998	
8331	0	32028	
8332	0	32028	
8333	0	31988	
8334	0	31960	
8335	0	31960	
8336	0	31958	
8337	0	31976	
8338	0	31968	
8339	0	31980	
8340	0	32004	
8341	0	32016	
8342	0	32010	
8343	0	32032	
8344	0	32052	
8345	0	32080	
8346	0	32068	
8347	0	32032	
8348	0	32020	
8349	0	32032	
8350	0	32052	
8351	0	32076	
8352	0	32064	
8353	0	32056	
8354	0	32024	
8355	0	32012	
8356	0	32032	
8357	0	32060	
8358	0	32080	
8359	0	32084	
8360	0	32064	
8361	0	32064	
8362	0	32064	
8363	0	32056	
8364	0	32100	
8365	0	32132	
8366	0	32192	
8367	0	32248	
8368	0	32264	
8369	0	32256	
8370	0	32232	
8371	0	32252	
8372	0	32278	
8373	0	32320	
8374	0	32304	
8375	0	32296	
8376	0	32284	
8377	0	32288	
8378	0	32244	
8379	0	32244	
8380	0	32256	
8381	0	32304	
8382	0	32320	
8383	0	32306	
8384	0	32312	
8385	0	32304	
8386	0	32348	
8387	0	32400	
8388	0	32428	
8389	0	32428	
8390	0	32424	
8391	0	32428	
8392	0	32478	
8393	0	32540	
8394	0	32548	
8395	0	32542	
8396	0	32490	
8397	0	32468	
8398	0	32460	
8399	0	32494	
8400	0	32504	
8401	0	32506	
8402	0	32540	
8403	0	32568	
8404	0	32572	
8405	0	32576	
8406	0	32572	
8407	0	32600	
8408	0	32604	
8409	0	32592	
8410	0	32624	
8411	0	32712	
8412	0	32796	
8413	0	32904	
8414	0	33052	
8415	0	33208	
8416	0	33352	
8417	0	33492	
8418	0	33584	
8419	0	33668	
8420	0	33756	
8421	0	33824	
8422	0	33860	
8423	0	33936	
8424	0	33984	
8425	0	34008	
8426	0	34068	
8427	0	34100	
8428	0	34124	
8429	0	34112	
8430	0	34038	
8431	0	33937	
8432	0	33852	
8433	0	33778	
8434	0	33688	
8435	0	33572	
8436	0	33500	
8437	0	33376	
8438	0	33280	
8439	0	33180	
8440	0	33096	
8441	0	33072	
8442	0	33050	
8443	0	33020	
8444	0	33018	
8445	0	33004	
8446	0	33008	
8447	0	32996	
8448	0	32956	
8449	0	32916	
8450	0	32880	
8451	0	32824	
8452	0	32788	
8453	0	32780	
8454	0	32780	
8455	0	32772	
8456	0	32780	
8457	0	32758	
8458	0	32716	
8459	0	32700	
8460	0	32692	
8461	0	32668	
8462	0	32612	
8463	0	32536	
8464	0	32528	
8465	0	32504	
8466	0	32488	
8467	0	32452	
8468	0	32368	
8469	0	32284	
8470	0	32192	
8471	0	32148	
8472	0	32116	
8473	0	32062	
8474	0	32036	
8475	0	32008	
8476	0	31986	
8477	0	31978	
8478	0	31988	
8479	0	31980	
8480	0	31988	
8481	0	31996	
8482	0	32000	
8483	0	31962	
8484	0	31952	
8485	0	31940	
8486	0	31952	
8487	0	31972	
8488	0	32000	
8489	0	32036	
8490	0	32074	
8491	0	32096	
8492	0	32130	
8493	0	32152	
8494	0	32164	
8495	0	32172	
8496	0	32146	
8497	0	32108	
8498	0	32112	
8499	0	32132	
8500	0	32156	
8501	0	32188	
8502	0	32190	
8503	0	32192	
8504	0	32200	
8505	0	32200	
8506	0	32204	
8507	0	32228	
8508	0	32244	
8509	0	32276	
8510	0	32300	
8511	0	32296	
8512	0	32304	
8513	0	32266	
8514	0	32234	
8515	0	32244	
8516	0	32256	
8517	0	32266	
8518	0	32284	
8519	0	32288	
8520	0	32276	
8521	0	32248	
8522	0	32232	
8523	0	32236	
8524	0	32228	
8525	0	32212	
8526	0	32224	
8527	0	32240	
8528	0	32260	
8529	0	32240	
8530	0	32236	
8531	0	32284	
8532	0	32312	
8533	0	32304	
8534	0	32292	
8535	0	32256	
8536	0	32220	
8537	0	32218	
8538	0	32252	
8539	0	32264	
8540	0	32288	
8541	0	32320	
8542	0	32400	
8543	0	32476	
8544	0	32544	
8545	0	32610	
8546	0	32624	
8547	0	32580	
8548	0	32524	
8549	0	32464	
8550	0	32376	
8551	0	32236	
8552	0	32080	
8553	0	31928	
8554	0	31840	
8555	0	31852	
8556	0	32036	
8557	0	32332	
8558	0	32680	
8559	0	33044	
8560	0	33420	
8561	0	33784	
8562	0	34114	
8563	0	34320	
8564	0	34412	
8565	0	34584	
8566	0	34968	
8567	0	35552	
8568	0	36352	
8569	0	37384	
8570	0	38564	
8571	0	39912	
8572	0	41370	
8573	0	42960	
8574	0	44576	
8575	0	46204	
8576	0	47940	
8577	0	49752	
8578	0	51624	
8579	0	53320	
8580	0	54880	
8581	0	56044	
8582	0	56936	
8583	0	57808	
8584	0	58700	
8585	0	59416	
8586	0	59592	
8587	0	58912	
8588	0	57220	
8589	0	54500	
8590	0	51040	
8591	0	47136	
