# OpenSignals Text File Format. Version 1
# {"00:07:80:4B:15:F7": {"position": 0, "device": "biosignalsplux", "device name": "00:07:80:4B:15:F7", "device connection": "BTH00:07:80:4B:15:F7", "sampling rate": 1000, "resolution": [16], "firmware version": 775, "comments": "", "keywords": "", "mode": 0, "sync interval": 2, "date": "2023-4-27", "time": "18:52:59.679", "channels": [1], "sensor": ["ECG"], "label": ["CH1"], "column": ["nSeq", "DI", "CH1"], "special": [{"SpO2": [80, 40, 5, 4, 3, 3]}, {"SpO2": [80, 40, 5, 4, 3, 3]}, {"SpO2": [80, 40, 5, 4, 3, 3]}, {"SpO2": [80, 40, 5, 4, 3, 3]}, {"SpO2": [80, 40, 5, 4, 3, 3]}, {"SpO2": [80, 40, 5, 4, 3, 3]}, {"SpO2": [80, 40, 5, 4, 3, 3]}, {"SpO2": [80, 40, 5, 4, 3, 3]}], "digital IO": [0, 1], "sleeve color": ["green"], "convertedValues": 0}}
# EndOfHeader
0	0	31056	
1	0	31072	
2	0	31080	
3	0	31116	
4	0	31120	
5	0	31112	
6	0	31108	
7	0	31092	
8	0	31092	
9	0	31116	
10	0	31156	
11	0	31196	
12	0	31200	
13	0	31168	
14	0	31144	
15	0	31156	
16	0	31186	
17	0	31210	
18	0	31244	
19	0	31310	
20	0	31352	
21	0	31364	
22	0	31396	
23	0	31424	
24	0	31448	
25	0	31474	
26	0	31544	
27	0	31600	
28	0	31656	
29	0	31704	
30	0	31738	
31	0	31796	
32	0	31836	
33	0	31876	
34	0	31924	
35	0	32012	
36	0	32080	
37	0	32172	
38	0	32224	
39	0	32248	
40	0	32320	
41	0	32412	
42	0	32476	
43	0	32538	
44	0	32552	
45	0	32536	
46	0	32532	
47	0	32540	
48	0	32612	
49	0	32728	
50	0	32860	
51	0	32992	
52	0	33108	
53	0	33192	
54	0	33260	
55	0	33308	
56	0	33344	
57	0	33376	
58	0	33440	
59	0	33506	
60	0	33596	
61	0	33688	
62	0	33752	
63	0	33856	
64	0	33960	
65	0	34076	
66	0	34208	
67	0	34328	
68	0	34372	
69	0	34404	
70	0	34456	
71	0	34508	
72	0	34552	
73	0	34546	
74	0	34500	
75	0	34412	
76	0	34380	
77	0	34356	
78	0	34304	
79	0	34232	
80	0	34146	
81	0	34064	
82	0	33952	
83	0	33808	
84	0	33666	
85	0	33504	
86	0	33356	
87	0	33184	
88	0	33024	
89	0	32818	
90	0	32628	
91	0	32452	
92	0	32236	
93	0	32062	
94	0	31968	
95	0	31936	
96	0	31896	
97	0	31836	
98	0	31816	
99	0	31784	
100	0	31732	
101	0	31636	
102	0	31540	
103	0	31432	
104	0	31332	
105	0	31232	
106	0	31212	
107	0	31180	
108	0	31118	
109	0	31064	
110	0	31026	
111	0	30956	
112	0	30876	
113	0	30776	
114	0	30660	
115	0	30568	
116	0	30488	
117	0	30428	
118	0	30400	
119	0	30372	
120	0	30346	
121	0	30328	
122	0	30324	
123	0	30340	
124	0	30352	
125	0	30340	
126	0	30324	
127	0	30368	
128	0	30410	
129	0	30424	
130	0	30448	
131	0	30458	
132	0	30444	
133	0	30466	
134	0	30504	
135	0	30524	
136	0	30536	
137	0	30522	
138	0	30536	
139	0	30528	
140	0	30512	
141	0	30500	
142	0	30496	
143	0	30480	
144	0	30504	
145	0	30544	
146	0	30560	
147	0	30592	
148	0	30624	
149	0	30624	
150	0	30656	
151	0	30688	
152	0	30712	
153	0	30732	
154	0	30736	
155	0	30736	
156	0	30728	
157	0	30760	
158	0	30776	
159	0	30772	
160	0	30786	
161	0	30816	
162	0	30836	
163	0	30881	
164	0	30940	
165	0	30968	
166	0	30956	
167	0	30968	
168	0	30984	
169	0	31008	
170	0	31052	
171	0	31076	
172	0	31096	
173	0	31136	
174	0	31104	
175	0	31052	
176	0	30944	
177	0	30780	
178	0	30512	
179	0	30176	
180	0	29772	
181	0	29376	
182	0	29056	
183	0	28864	
184	0	28848	
185	0	29048	
186	0	29432	
187	0	29844	
188	0	30222	
189	0	30616	
190	0	31108	
191	0	31672	
192	0	32152	
193	0	32496	
194	0	32810	
195	0	33144	
196	0	33408	
197	0	33776	
198	0	34392	
199	0	35272	
200	0	36336	
201	0	37732	
202	0	39480	
203	0	41368	
204	0	43490	
205	0	45992	
206	0	48824	
207	0	51744	
208	0	54208	
209	0	56036	
210	0	57464	
211	0	58696	
212	0	59848	
213	0	60728	
214	0	61220	
215	0	61132	
216	0	60360	
217	0	59144	
218	0	57632	
219	0	55848	
220	0	53816	
221	0	51380	
222	0	48892	
223	0	46564	
224	0	44236	
225	0	41848	
226	0	39412	
227	0	36832	
228	0	34216	
229	0	31656	
230	0	29346	
231	0	27254	
232	0	25216	
233	0	23388	
234	0	22002	
235	0	20882	
236	0	19944	
237	0	19250	
238	0	18756	
239	0	18238	
240	0	17664	
241	0	17098	
242	0	16624	
243	0	16236	
244	0	15960	
245	0	15812	
246	0	15801	
247	0	15976	
248	0	16330	
249	0	16836	
250	0	17612	
251	0	18476	
252	0	19396	
253	0	20316	
254	0	21232	
255	0	22224	
256	0	23332	
257	0	24468	
258	0	25528	
259	0	26436	
260	0	27172	
261	0	27756	
262	0	28304	
263	0	28804	
264	0	29248	
265	0	29584	
266	0	29900	
267	0	30186	
268	0	30452	
269	0	30684	
270	0	30880	
271	0	31020	
272	0	31128	
273	0	31220	
274	0	31296	
275	0	31336	
276	0	31388	
277	0	31456	
278	0	31520	
279	0	31588	
280	0	31680	
281	0	31768	
282	0	31832	
283	0	31876	
284	0	31948	
285	0	32012	
286	0	32092	
287	0	32144	
288	0	32192	
289	0	32260	
290	0	32332	
291	0	32392	
292	0	32448	
293	0	32492	
294	0	32568	
295	0	32656	
296	0	32712	
297	0	32736	
298	0	32752	
299	0	32796	
300	0	32852	
301	0	32884	
302	0	32952	
303	0	32988	
304	0	33050	
305	0	33104	
306	0	33148	
307	0	33208	
308	0	33272	
309	0	33296	
310	0	33328	
311	0	33368	
312	0	33412	
313	0	33452	
314	0	33470	
315	0	33472	
316	0	33484	
317	0	33528	
318	0	33612	
319	0	33644	
320	0	33658	
321	0	33656	
322	0	33680	
323	0	33712	
324	0	33780	
325	0	33860	
326	0	33920	
327	0	33952	
328	0	33996	
329	0	34036	
330	0	34044	
331	0	34080	
332	0	34136	
333	0	34208	
334	0	34276	
335	0	34316	
336	0	34368	
337	0	34392	
338	0	34416	
339	0	34440	
340	0	34484	
341	0	34548	
342	0	34616	
343	0	34656	
344	0	34676	
345	0	34720	
346	0	34760	
347	0	34812	
348	0	34848	
349	0	34920	
350	0	34976	
351	0	35032	
352	0	35060	
353	0	35084	
354	0	35104	
355	0	35172	
356	0	35220	
357	0	35244	
358	0	35334	
359	0	35392	
360	0	35444	
361	0	35504	
362	0	35560	
363	0	35640	
364	0	35676	
365	0	35712	
366	0	35760	
367	0	35816	
368	0	35888	
369	0	35922	
370	0	35972	
371	0	36008	
372	0	36044	
373	0	36088	
374	0	36136	
375	0	36208	
376	0	36260	
377	0	36308	
378	0	36388	
379	0	36448	
380	0	36544	
381	0	36620	
382	0	36700	
383	0	36748	
384	0	36780	
385	0	36852	
386	0	36880	
387	0	36908	
388	0	36948	
389	0	36992	
390	0	37048	
391	0	37112	
392	0	37192	
393	0	37260	
394	0	37296	
395	0	37328	
396	0	37382	
397	0	37388	
398	0	37412	
399	0	37474	
400	0	37544	
401	0	37604	
402	0	37676	
403	0	37728	
404	0	37756	
405	0	37772	
406	0	37748	
407	0	37744	
408	0	37760	
409	0	37788	
410	0	37844	
411	0	37876	
412	0	37920	
413	0	37916	
414	0	37920	
415	0	37964	
416	0	37984	
417	0	38004	
418	0	38024	
419	0	38020	
420	0	38016	
421	0	38000	
422	0	38048	
423	0	38068	
424	0	38080	
425	0	38092	
426	0	38096	
427	0	38104	
428	0	38120	
429	0	38148	
430	0	38152	
431	0	38152	
432	0	38112	
433	0	38088	
434	0	38092	
435	0	38116	
436	0	38120	
437	0	38112	
438	0	38104	
439	0	38092	
440	0	38052	
441	0	38016	
442	0	37992	
443	0	37992	
444	0	37956	
445	0	37928	
446	0	37904	
447	0	37856	
448	0	37804	
449	0	37744	
450	0	37684	
451	0	37620	
452	0	37592	
453	0	37524	
454	0	37424	
455	0	37308	
456	0	37184	
457	0	37092	
458	0	36984	
459	0	36876	
460	0	36752	
461	0	36640	
462	0	36496	
463	0	36340	
464	0	36180	
465	0	36050	
466	0	35904	
467	0	35756	
468	0	35604	
469	0	35436	
470	0	35276	
471	0	35140	
472	0	34976	
473	0	34776	
474	0	34612	
475	0	34464	
476	0	34300	
477	0	34156	
478	0	33992	
479	0	33824	
480	0	33620	
481	0	33436	
482	0	33268	
483	0	33104	
484	0	32984	
485	0	32856	
486	0	32722	
487	0	32568	
488	0	32404	
489	0	32248	
490	0	32080	
491	0	31916	
492	0	31784	
493	0	31668	
494	0	31560	
495	0	31448	
496	0	31306	
497	0	31170	
498	0	31048	
499	0	30944	
500	0	30852	
501	0	30776	
502	0	30704	
503	0	30620	
504	0	30540	
505	0	30464	
506	0	30388	
507	0	30312	
508	0	30236	
509	0	30148	
510	0	30076	
511	0	30032	
512	0	30004	
513	0	29964	
514	0	29932	
515	0	29892	
516	0	29872	
517	0	29828	
518	0	29792	
519	0	29760	
520	0	29744	
521	0	29716	
522	0	29686	
523	0	29656	
524	0	29656	
525	0	29644	
526	0	29640	
527	0	29656	
528	0	29688	
529	0	29684	
530	0	29652	
531	0	29668	
532	0	29660	
533	0	29684	
534	0	29696	
535	0	29708	
536	0	29736	
537	0	29744	
538	0	29748	
539	0	29744	
540	0	29752	
541	0	29784	
542	0	29800	
543	0	29816	
544	0	29848	
545	0	29868	
546	0	29900	
547	0	29920	
548	0	29932	
549	0	29956	
550	0	29980	
551	0	29968	
552	0	29964	
553	0	29984	
554	0	29970	
555	0	29980	
556	0	30024	
557	0	30052	
558	0	30088	
559	0	30116	
560	0	30140	
561	0	30144	
562	0	30136	
563	0	30144	
564	0	30168	
565	0	30224	
566	0	30272	
567	0	30280	
568	0	30268	
569	0	30272	
570	0	30276	
571	0	30288	
572	0	30316	
573	0	30340	
574	0	30396	
575	0	30464	
576	0	30476	
577	0	30484	
578	0	30484	
579	0	30508	
580	0	30528	
581	0	30536	
582	0	30580	
583	0	30604	
584	0	30600	
585	0	30608	
586	0	30644	
587	0	30636	
588	0	30632	
589	0	30624	
590	0	30612	
591	0	30624	
592	0	30640	
593	0	30658	
594	0	30676	
595	0	30700	
596	0	30728	
597	0	30784	
598	0	30812	
599	0	30800	
600	0	30792	
601	0	30776	
602	0	30776	
603	0	30796	
604	0	30792	
605	0	30808	
606	0	30824	
607	0	30864	
608	0	30896	
609	0	30912	
610	0	30916	
611	0	30932	
612	0	30920	
613	0	30904	
614	0	30884	
615	0	30888	
616	0	30880	
617	0	30872	
618	0	30864	
619	0	30872	
620	0	30912	
621	0	30928	
622	0	30936	
623	0	30928	
624	0	30928	
625	0	30916	
626	0	30904	
627	0	30884	
628	0	30870	
629	0	30876	
630	0	30890	
631	0	30924	
632	0	30972	
633	0	30996	
634	0	30962	
635	0	30920	
636	0	30888	
637	0	30880	
638	0	30880	
639	0	30896	
640	0	30944	
641	0	30928	
642	0	30908	
643	0	30920	
644	0	30892	
645	0	30882	
646	0	30892	
647	0	30914	
648	0	30940	
649	0	30948	
650	0	30940	
651	0	30892	
652	0	30856	
653	0	30816	
654	0	30812	
655	0	30832	
656	0	30848	
657	0	30832	
658	0	30828	
659	0	30864	
660	0	30892	
661	0	30900	
662	0	30916	
663	0	30888	
664	0	30896	
665	0	30920	
666	0	30940	
667	0	30948	
668	0	30961	
669	0	30968	
670	0	30960	
671	0	30964	
672	0	30994	
673	0	31032	
674	0	31044	
675	0	31016	
676	0	31008	
677	0	31038	
678	0	31100	
679	0	31092	
680	0	31060	
681	0	31024	
682	0	31012	
683	0	31028	
684	0	31068	
685	0	31076	
686	0	31096	
687	0	31112	
688	0	31156	
689	0	31176	
690	0	31154	
691	0	31144	
692	0	31136	
693	0	31140	
694	0	31152	
695	0	31180	
696	0	31200	
697	0	31192	
698	0	31208	
699	0	31244	
700	0	31248	
701	0	31252	
702	0	31288	
703	0	31328	
704	0	31344	
705	0	31336	
706	0	31308	
707	0	31272	
708	0	31252	
709	0	31266	
710	0	31296	
711	0	31336	
712	0	31360	
713	0	31348	
714	0	31348	
715	0	31340	
716	0	31344	
717	0	31352	
718	0	31360	
719	0	31412	
720	0	31424	
721	0	31408	
722	0	31404	
723	0	31432	
724	0	31458	
725	0	31452	
726	0	31432	
727	0	31436	
728	0	31440	
729	0	31452	
730	0	31476	
731	0	31484	
732	0	31504	
733	0	31536	
734	0	31592	
735	0	31656	
736	0	31712	
737	0	31744	
738	0	31772	
739	0	31840	
740	0	31892	
741	0	31924	
742	0	31956	
743	0	31976	
744	0	32044	
745	0	32128	
746	0	32184	
747	0	32236	
748	0	32320	
749	0	32392	
750	0	32416	
751	0	32442	
752	0	32464	
753	0	32488	
754	0	32548	
755	0	32640	
756	0	32724	
757	0	32736	
758	0	32744	
759	0	32728	
760	0	32732	
761	0	32734	
762	0	32776	
763	0	32852	
764	0	33004	
765	0	33140	
766	0	33264	
767	0	33368	
768	0	33406	
769	0	33432	
770	0	33464	
771	0	33532	
772	0	33664	
773	0	33780	
774	0	33880	
775	0	33988	
776	0	34128	
777	0	34236	
778	0	34312	
779	0	34400	
780	0	34508	
781	0	34560	
782	0	34600	
783	0	34620	
784	0	34644	
785	0	34660	
786	0	34684	
787	0	34684	
788	0	34656	
789	0	34552	
790	0	34428	
791	0	34320	
792	0	34276	
793	0	34224	
794	0	34200	
795	0	34128	
796	0	34060	
797	0	33936	
798	0	33824	
799	0	33700	
800	0	33572	
801	0	33404	
802	0	33232	
803	0	33024	
804	0	32850	
805	0	32660	
806	0	32456	
807	0	32294	
808	0	32200	
809	0	32132	
810	0	32084	
811	0	32036	
812	0	31996	
813	0	31960	
814	0	31920	
815	0	31840	
816	0	31752	
817	0	31664	
818	0	31578	
819	0	31548	
820	0	31512	
821	0	31488	
822	0	31440	
823	0	31380	
824	0	31296	
825	0	31212	
826	0	31112	
827	0	30984	
828	0	30849	
829	0	30740	
830	0	30652	
831	0	30602	
832	0	30572	
833	0	30544	
834	0	30528	
835	0	30500	
836	0	30492	
837	0	30508	
838	0	30544	
839	0	30564	
840	0	30576	
841	0	30620	
842	0	30624	
843	0	30644	
844	0	30624	
845	0	30624	
846	0	30640	
847	0	30660	
848	0	30688	
849	0	30716	
850	0	30724	
851	0	30708	
852	0	30708	
853	0	30704	
854	0	30712	
855	0	30724	
856	0	30744	
857	0	30732	
858	0	30732	
859	0	30736	
860	0	30752	
861	0	30776	
862	0	30768	
863	0	30712	
864	0	30720	
865	0	30740	
866	0	30752	
867	0	30756	
868	0	30762	
869	0	30780	
870	0	30804	
871	0	30860	
872	0	30888	
873	0	30904	
874	0	30924	
875	0	30984	
876	0	31028	
877	0	31032	
878	0	31032	
879	0	31016	
880	0	30988	
881	0	31004	
882	0	31040	
883	0	31088	
884	0	31124	
885	0	31152	
886	0	31200	
887	0	31236	
888	0	31256	
889	0	31200	
890	0	31064	
891	0	30820	
892	0	30536	
893	0	30158	
894	0	29738	
895	0	29364	
896	0	29096	
897	0	28960	
898	0	29040	
899	0	29336	
900	0	29736	
901	0	30096	
902	0	30480	
903	0	30912	
904	0	31428	
905	0	31956	
906	0	32396	
907	0	32728	
908	0	33096	
909	0	33328	
910	0	33568	
911	0	34000	
912	0	34780	
913	0	35724	
914	0	36940	
915	0	38528	
916	0	40370	
917	0	42368	
918	0	44712	
919	0	47376	
920	0	50304	
921	0	53024	
922	0	55176	
923	0	56824	
924	0	58184	
925	0	59492	
926	0	60540	
927	0	61248	
928	0	61508	
929	0	61016	
930	0	59992	
931	0	58592	
932	0	56920	
933	0	54976	
934	0	52720	
935	0	50212	
936	0	47802	
937	0	45502	
938	0	43180	
939	0	40824	
940	0	38304	
941	0	35640	
942	0	33028	
943	0	30604	
944	0	28404	
945	0	26324	
946	0	24364	
947	0	22718	
948	0	21408	
949	0	20366	
950	0	19560	
951	0	18992	
952	0	18472	
953	0	17930	
954	0	17348	
955	0	16808	
956	0	16372	
957	0	16064	
958	0	15864	
959	0	15794	
960	0	15866	
961	0	16124	
962	0	16570	
963	0	17208	
964	0	18020	
965	0	18948	
966	0	19904	
967	0	20816	
968	0	21748	
969	0	22776	
970	0	23874	
971	0	25000	
972	0	25996	
973	0	26813	
974	0	27508	
975	0	28100	
976	0	28636	
977	0	29116	
978	0	29496	
979	0	29796	
980	0	30076	
981	0	30370	
982	0	30640	
983	0	30850	
984	0	31018	
985	0	31132	
986	0	31192	
987	0	31256	
988	0	31342	
989	0	31408	
990	0	31460	
991	0	31512	
992	0	31592	
993	0	31668	
994	0	31736	
995	0	31800	
996	0	31892	
997	0	31996	
998	0	32092	
999	0	32184	
1000	0	32240	
1001	0	32300	
1002	0	32348	
1003	0	32400	
1004	0	32460	
1005	0	32512	
1006	0	32584	
1007	0	32660	
1008	0	32720	
1009	0	32766	
1010	0	32788	
1011	0	32836	
1012	0	32872	
1013	0	32944	
1014	0	32984	
1015	0	33012	
1016	0	33072	
1017	0	33132	
1018	0	33152	
1019	0	33168	
1020	0	33172	
1021	0	33188	
1022	0	33210	
1023	0	33268	
1024	0	33320	
1025	0	33354	
1026	0	33396	
1027	0	33464	
1028	0	33516	
1029	0	33560	
1030	0	33584	
1031	0	33620	
1032	0	33658	
1033	0	33692	
1034	0	33700	
1035	0	33712	
1036	0	33748	
1037	0	33776	
1038	0	33828	
1039	0	33896	
1040	0	33944	
1041	0	33986	
1042	0	34032	
1043	0	34084	
1044	0	34112	
1045	0	34140	
1046	0	34192	
1047	0	34240	
1048	0	34296	
1049	0	34344	
1050	0	34408	
1051	0	34432	
1052	0	34464	
1053	0	34516	
1054	0	34536	
1055	0	34576	
1056	0	34628	
1057	0	34680	
1058	0	34720	
1059	0	34760	
1060	0	34852	
1061	0	34924	
1062	0	34976	
1063	0	35008	
1064	0	35048	
1065	0	35096	
1066	0	35152	
1067	0	35212	
1068	0	35276	
1069	0	35348	
1070	0	35400	
1071	0	35456	
1072	0	35516	
1073	0	35550	
1074	0	35560	
1075	0	35648	
1076	0	35712	
1077	0	35736	
1078	0	35756	
1079	0	35800	
1080	0	35856	
1081	0	35912	
1082	0	35956	
1083	0	36012	
1084	0	36080	
1085	0	36144	
1086	0	36204	
1087	0	36272	
1088	0	36340	
1089	0	36408	
1090	0	36484	
1091	0	36536	
1092	0	36578	
1093	0	36664	
1094	0	36720	
1095	0	36772	
1096	0	36800	
1097	0	36840	
1098	0	36888	
1099	0	36960	
1100	0	37024	
1101	0	37056	
1102	0	37114	
1103	0	37152	
1104	0	37188	
1105	0	37216	
1106	0	37268	
1107	0	37312	
1108	0	37352	
1109	0	37380	
1110	0	37408	
1111	0	37468	
1112	0	37536	
1113	0	37600	
1114	0	37660	
1115	0	37716	
1116	0	37740	
1117	0	37772	
1118	0	37808	
1119	0	37828	
1120	0	37860	
1121	0	37914	
1122	0	37932	
1123	0	37954	
1124	0	37996	
1125	0	38056	
1126	0	38064	
1127	0	38076	
1128	0	38070	
1129	0	38106	
1130	0	38136	
1131	0	38148	
1132	0	38168	
1133	0	38184	
1134	0	38192	
1135	0	38160	
1136	0	38136	
1137	0	38108	
1138	0	38126	
1139	0	38148	
1140	0	38160	
1141	0	38172	
1142	0	38176	
1143	0	38176	
1144	0	38192	
1145	0	38192	
1146	0	38208	
1147	0	38216	
1148	0	38232	
1149	0	38248	
1150	0	38228	
1151	0	38228	
1152	0	38208	
1153	0	38208	
1154	0	38184	
1155	0	38176	
1156	0	38196	
1157	0	38148	
1158	0	38092	
1159	0	38032	
1160	0	37988	
1161	0	37936	
1162	0	37900	
1163	0	37888	
1164	0	37820	
1165	0	37736	
1166	0	37656	
1167	0	37564	
1168	0	37456	
1169	0	37332	
1170	0	37224	
1171	0	37120	
1172	0	37008	
1173	0	36888	
1174	0	36760	
1175	0	36636	
1176	0	36496	
1177	0	36368	
1178	0	36228	
1179	0	36072	
1180	0	35916	
1181	0	35776	
1182	0	35608	
1183	0	35440	
1184	0	35284	
1185	0	35160	
1186	0	35008	
1187	0	34860	
1188	0	34702	
1189	0	34536	
1190	0	34392	
1191	0	34216	
1192	0	34016	
1193	0	33848	
1194	0	33690	
1195	0	33576	
1196	0	33448	
1197	0	33304	
1198	0	33104	
1199	0	32900	
1200	0	32740	
1201	0	32612	
1202	0	32480	
1203	0	32324	
1204	0	32192	
1205	0	32060	
1206	0	31900	
1207	0	31772	
1208	0	31664	
1209	0	31560	
1210	0	31444	
1211	0	31320	
1212	0	31180	
1213	0	31052	
1214	0	30932	
1215	0	30840	
1216	0	30756	
1217	0	30644	
1218	0	30544	
1219	0	30456	
1220	0	30368	
1221	0	30304	
1222	0	30232	
1223	0	30192	
1224	0	30128	
1225	0	30080	
1226	0	30052	
1227	0	30040	
1228	0	30016	
1229	0	29972	
1230	0	29952	
1231	0	29908	
1232	0	29860	
1233	0	29796	
1234	0	29754	
1235	0	29704	
1236	0	29676	
1237	0	29660	
1238	0	29632	
1239	0	29628	
1240	0	29620	
1241	0	29616	
1242	0	29600	
1243	0	29596	
1244	0	29586	
1245	0	29588	
1246	0	29612	
1247	0	29644	
1248	0	29672	
1249	0	29664	
1250	0	29676	
1251	0	29684	
1252	0	29716	
1253	0	29740	
1254	0	29752	
1255	0	29748	
1256	0	29736	
1257	0	29744	
1258	0	29744	
1259	0	29768	
1260	0	29788	
1261	0	29776	
1262	0	29788	
1263	0	29840	
1264	0	29888	
1265	0	29928	
1266	0	29940	
1267	0	29948	
1268	0	29984	
1269	0	30004	
1270	0	30028	
1271	0	30040	
1272	0	30064	
1273	0	30088	
1274	0	30092	
1275	0	30112	
1276	0	30152	
1277	0	30192	
1278	0	30216	
1279	0	30252	
1280	0	30280	
1281	0	30308	
1282	0	30304	
1283	0	30308	
1284	0	30324	
1285	0	30332	
1286	0	30358	
1287	0	30360	
1288	0	30372	
1289	0	30410	
1290	0	30496	
1291	0	30548	
1292	0	30552	
1293	0	30516	
1294	0	30484	
1295	0	30448	
1296	0	30448	
1297	0	30480	
1298	0	30528	
1299	0	30568	
1300	0	30596	
1301	0	30592	
1302	0	30600	
1303	0	30588	
1304	0	30572	
1305	0	30580	
1306	0	30596	
1307	0	30632	
1308	0	30666	
1309	0	30720	
1310	0	30784	
1311	0	30800	
1312	0	30808	
1313	0	30788	
1314	0	30770	
1315	0	30744	
1316	0	30740	
1317	0	30744	
1318	0	30752	
1319	0	30756	
1320	0	30800	
1321	0	30844	
1322	0	30824	
1323	0	30806	
1324	0	30808	
1325	0	30816	
1326	0	30804	
1327	0	30804	
1328	0	30820	
1329	0	30848	
1330	0	30876	
1331	0	30912	
1332	0	30924	
1333	0	30908	
1334	0	30892	
1335	0	30868	
1336	0	30868	
1337	0	30858	
1338	0	30888	
1339	0	30920	
1340	0	30920	
1341	0	30920	
1342	0	30912	
1343	0	30888	
1344	0	30876	
1345	0	30900	
1346	0	30906	
1347	0	30916	
1348	0	30942	
1349	0	30944	
1350	0	30920	
1351	0	30896	
1352	0	30900	
1353	0	30920	
1354	0	30922	
1355	0	30920	
1356	0	30897	
1357	0	30896	
1358	0	30892	
1359	0	30896	
1360	0	30900	
1361	0	30896	
1362	0	30900	
1363	0	30880	
1364	0	30876	
1365	0	30876	
1366	0	30848	
1367	0	30836	
1368	0	30844	
1369	0	30848	
1370	0	30852	
1371	0	30848	
1372	0	30872	
1373	0	30872	
1374	0	30872	
1375	0	30880	
1376	0	30920	
1377	0	30920	
1378	0	30912	
1379	0	30880	
1380	0	30892	
1381	0	30884	
1382	0	30884	
1383	0	30904	
1384	0	30932	
1385	0	30960	
1386	0	30972	
1387	0	30948	
1388	0	30928	
1389	0	30962	
1390	0	31032	
1391	0	31052	
1392	0	31034	
1393	0	31008	
1394	0	30996	
1395	0	31000	
1396	0	30984	
1397	0	30976	
1398	0	30984	
1399	0	31000	
1400	0	31028	
1401	0	31052	
1402	0	31064	
1403	0	31092	
1404	0	31100	
1405	0	31100	
1406	0	31084	
1407	0	31084	
1408	0	31128	
1409	0	31180	
1410	0	31216	
1411	0	31216	
1412	0	31216	
1413	0	31228	
1414	0	31256	
1415	0	31234	
1416	0	31240	
1417	0	31260	
1418	0	31292	
1419	0	31300	
1420	0	31296	
1421	0	31312	
1422	0	31316	
1423	0	31300	
1424	0	31316	
1425	0	31352	
1426	0	31376	
1427	0	31388	
1428	0	31360	
1429	0	31332	
1430	0	31352	
1431	0	31356	
1432	0	31380	
1433	0	31392	
1434	0	31404	
1435	0	31424	
1436	0	31428	
1437	0	31408	
1438	0	31400	
1439	0	31420	
1440	0	31464	
1441	0	31520	
1442	0	31568	
1443	0	31632	
1444	0	31688	
1445	0	31744	
1446	0	31772	
1447	0	31786	
1448	0	31804	
1449	0	31832	
1450	0	31884	
1451	0	31944	
1452	0	31996	
1453	0	32034	
1454	0	32084	
1455	0	32160	
1456	0	32232	
1457	0	32292	
1458	0	32320	
1459	0	32336	
1460	0	32392	
1461	0	32480	
1462	0	32560	
1463	0	32626	
1464	0	32680	
1465	0	32736	
1466	0	32816	
1467	0	32840	
1468	0	32836	
1469	0	32856	
1470	0	32840	
1471	0	32788	
1472	0	32812	
1473	0	32888	
1474	0	33016	
1475	0	33168	
1476	0	33312	
1477	0	33422	
1478	0	33480	
1479	0	33504	
1480	0	33504	
1481	0	33544	
1482	0	33616	
1483	0	33714	
1484	0	33800	
1485	0	33908	
1486	0	34028	
1487	0	34144	
1488	0	34244	
1489	0	34356	
1490	0	34452	
1491	0	34510	
1492	0	34528	
1493	0	34540	
1494	0	34612	
1495	0	34680	
1496	0	34708	
1497	0	34720	
1498	0	34688	
1499	0	34620	
1500	0	34540	
1501	0	34480	
1502	0	34464	
1503	0	34432	
1504	0	34388	
1505	0	34332	
1506	0	34240	
1507	0	34112	
1508	0	33964	
1509	0	33792	
1510	0	33664	
1511	0	33544	
1512	0	33392	
1513	0	33180	
1514	0	32972	
1515	0	32744	
1516	0	32528	
1517	0	32344	
1518	0	32200	
1519	0	32144	
1520	0	32106	
1521	0	32072	
1522	0	32040	
1523	0	31980	
1524	0	31952	
1525	0	31884	
1526	0	31832	
1527	0	31770	
1528	0	31672	
1529	0	31592	
1530	0	31514	
1531	0	31420	
1532	0	31348	
1533	0	31284	
1534	0	31226	
1535	0	31172	
1536	0	31120	
1537	0	31012	
1538	0	30864	
1539	0	30730	
1540	0	30644	
1541	0	30574	
1542	0	30528	
1543	0	30472	
1544	0	30460	
1545	0	30496	
1546	0	30528	
1547	0	30540	
1548	0	30564	
1549	0	30560	
1550	0	30592	
1551	0	30624	
1552	0	30636	
1553	0	30620	
1554	0	30640	
1555	0	30648	
1556	0	30656	
1557	0	30632	
1558	0	30626	
1559	0	30640	
1560	0	30668	
1561	0	30712	
1562	0	30752	
1563	0	30748	
1564	0	30732	
1565	0	30720	
1566	0	30724	
1567	0	30752	
1568	0	30788	
1569	0	30816	
1570	0	30824	
1571	0	30840	
1572	0	30868	
1573	0	30868	
1574	0	30864	
1575	0	30882	
1576	0	30888	
1577	0	30904	
1578	0	30924	
1579	0	30948	
1580	0	30972	
1581	0	30976	
1582	0	30988	
1583	0	30984	
1584	0	31008	
1585	0	31048	
1586	0	31056	
1587	0	31080	
1588	0	31084	
1589	0	31104	
1590	0	31098	
1591	0	31104	
1592	0	31146	
1593	0	31148	
1594	0	31154	
1595	0	31176	
1596	0	31192	
1597	0	31240	
1598	0	31288	
1599	0	31282	
1600	0	31188	
1601	0	31008	
1602	0	30748	
1603	0	30432	
1604	0	30092	
1605	0	29728	
1606	0	29386	
1607	0	29136	
1608	0	29050	
1609	0	29194	
1610	0	29528	
1611	0	29908	
1612	0	30264	
1613	0	30644	
1614	0	31088	
1615	0	31660	
1616	0	32188	
1617	0	32576	
1618	0	32844	
1619	0	33168	
1620	0	33452	
1621	0	33736	
1622	0	34264	
1623	0	35088	
1624	0	36104	
1625	0	37396	
1626	0	39048	
1627	0	40916	
1628	0	42944	
1629	0	45384	
1630	0	48152	
1631	0	51076	
1632	0	53720	
1633	0	55720	
1634	0	57228	
1635	0	58532	
1636	0	59776	
1637	0	60760	
1638	0	61376	
1639	0	61456	
1640	0	60808	
1641	0	59712	
1642	0	58264	
1643	0	56524	
1644	0	54544	
1645	0	52204	
1646	0	49680	
1647	0	47332	
1648	0	45056	
1649	0	42724	
1650	0	40364	
1651	0	37816	
1652	0	35180	
1653	0	32600	
1654	0	30252	
1655	0	28116	
1656	0	26024	
1657	0	24056	
1658	0	22484	
1659	0	21288	
1660	0	20332	
1661	0	19578	
1662	0	19048	
1663	0	18548	
1664	0	18002	
1665	0	17408	
1666	0	16898	
1667	0	16492	
1668	0	16208	
1669	0	16101	
1670	0	16098	
1671	0	16234	
1672	0	16526	
1673	0	16990	
1674	0	17684	
1675	0	18588	
1676	0	19532	
1677	0	20492	
1678	0	21408	
1679	0	22352	
1680	0	23400	
1681	0	24496	
1682	0	25556	
1683	0	26472	
1684	0	27234	
1685	0	27896	
1686	0	28500	
1687	0	29016	
1688	0	29464	
1689	0	29856	
1690	0	30136	
1691	0	30388	
1692	0	30624	
1693	0	30856	
1694	0	31072	
1695	0	31224	
1696	0	31348	
1697	0	31428	
1698	0	31476	
1699	0	31532	
1700	0	31608	
1701	0	31700	
1702	0	31760	
1703	0	31820	
1704	0	31868	
1705	0	31920	
1706	0	31992	
1707	0	32048	
1708	0	32124	
1709	0	32192	
1710	0	32286	
1711	0	32376	
1712	0	32456	
1713	0	32508	
1714	0	32568	
1715	0	32648	
1716	0	32704	
1717	0	32760	
1718	0	32800	
1719	0	32828	
1720	0	32876	
1721	0	32932	
1722	0	32992	
1723	0	33050	
1724	0	33120	
1725	0	33176	
1726	0	33204	
1727	0	33216	
1728	0	33264	
1729	0	33332	
1730	0	33400	
1731	0	33452	
1732	0	33472	
1733	0	33504	
1734	0	33524	
1735	0	33544	
1736	0	33592	
1737	0	33612	
1738	0	33660	
1739	0	33708	
1740	0	33724	
1741	0	33756	
1742	0	33804	
1743	0	33836	
1744	0	33900	
1745	0	33940	
1746	0	33980	
1747	0	34004	
1748	0	34032	
1749	0	34044	
1750	0	34056	
1751	0	34082	
1752	0	34132	
1753	0	34200	
1754	0	34240	
1755	0	34292	
1756	0	34360	
1757	0	34400	
1758	0	34436	
1759	0	34464	
1760	0	34512	
1761	0	34552	
1762	0	34596	
1763	0	34616	
1764	0	34644	
1765	0	34684	
1766	0	34724	
1767	0	34752	
1768	0	34776	
1769	0	34828	
1770	0	34888	
1771	0	34928	
1772	0	34952	
1773	0	35008	
1774	0	35040	
1775	0	35088	
1776	0	35168	
1777	0	35248	
1778	0	35308	
1779	0	35364	
1780	0	35396	
1781	0	35460	
1782	0	35532	
1783	0	35600	
1784	0	35648	
1785	0	35680	
1786	0	35704	
1787	0	35732	
1788	0	35806	
1789	0	35880	
1790	0	35956	
1791	0	36016	
1792	0	36060	
1793	0	36120	
1794	0	36196	
1795	0	36256	
1796	0	36322	
1797	0	36340	
1798	0	36384	
1799	0	36432	
1800	0	36512	
1801	0	36584	
1802	0	36644	
1803	0	36668	
1804	0	36704	
1805	0	36772	
1806	0	36860	
1807	0	36928	
1808	0	37000	
1809	0	37048	
1810	0	37096	
1811	0	37152	
1812	0	37172	
1813	0	37240	
1814	0	37300	
1815	0	37332	
1816	0	37374	
1817	0	37424	
1818	0	37480	
1819	0	37552	
1820	0	37600	
1821	0	37652	
1822	0	37720	
1823	0	37756	
1824	0	37784	
1825	0	37816	
1826	0	37848	
1827	0	37912	
1828	0	37960	
1829	0	38008	
1830	0	38052	
1831	0	38052	
1832	0	38056	
1833	0	38080	
1834	0	38112	
1835	0	38154	
1836	0	38176	
1837	0	38184	
1838	0	38216	
1839	0	38232	
1840	0	38232	
1841	0	38240	
1842	0	38272	
1843	0	38304	
1844	0	38332	
1845	0	38352	
1846	0	38352	
1847	0	38336	
1848	0	38372	
1849	0	38392	
1850	0	38408	
1851	0	38412	
1852	0	38420	
1853	0	38416	
1854	0	38376	
1855	0	38384	
1856	0	38368	
1857	0	38384	
1858	0	38388	
1859	0	38400	
1860	0	38388	
1861	0	38346	
1862	0	38352	
1863	0	38336	
1864	0	38304	
1865	0	38296	
1866	0	38280	
1867	0	38236	
1868	0	38188	
1869	0	38180	
1870	0	38128	
1871	0	38068	
1872	0	38016	
1873	0	37972	
1874	0	37920	
1875	0	37880	
1876	0	37804	
1877	0	37692	
1878	0	37608	
1879	0	37468	
1880	0	37344	
1881	0	37200	
1882	0	37054	
1883	0	36928	
1884	0	36812	
1885	0	36704	
1886	0	36584	
1887	0	36442	
1888	0	36320	
1889	0	36164	
1890	0	36016	
1891	0	35820	
1892	0	35640	
1893	0	35500	
1894	0	35332	
1895	0	35188	
1896	0	35016	
1897	0	34860	
1898	0	34680	
1899	0	34518	
1900	0	34368	
1901	0	34204	
1902	0	34044	
1903	0	33900	
1904	0	33708	
1905	0	33528	
1906	0	33370	
1907	0	33228	
1908	0	33096	
1909	0	32972	
1910	0	32856	
1911	0	32688	
1912	0	32512	
1913	0	32340	
1914	0	32200	
1915	0	32058	
1916	0	31916	
1917	0	31772	
1918	0	31624	
1919	0	31480	
1920	0	31360	
1921	0	31216	
1922	0	31080	
1923	0	30956	
1924	0	30872	
1925	0	30776	
1926	0	30658	
1927	0	30592	
1928	0	30488	
1929	0	30416	
1930	0	30356	
1931	0	30264	
1932	0	30168	
1933	0	30088	
1934	0	30040	
1935	0	29984	
1936	0	29924	
1937	0	29868	
1938	0	29806	
1939	0	29728	
1940	0	29696	
1941	0	29684	
1942	0	29668	
1943	0	29666	
1944	0	29668	
1945	0	29636	
1946	0	29596	
1947	0	29580	
1948	0	29560	
1949	0	29552	
1950	0	29540	
1951	0	29582	
1952	0	29608	
1953	0	29632	
1954	0	29656	
1955	0	29656	
1956	0	29652	
1957	0	29634	
1958	0	29640	
1959	0	29640	
1960	0	29658	
1961	0	29672	
1962	0	29692	
1963	0	29688	
1964	0	29680	
1965	0	29684	
1966	0	29724	
1967	0	29760	
1968	0	29760	
1969	0	29776	
1970	0	29792	
1971	0	29796	
1972	0	29792	
1973	0	29784	
1974	0	29768	
1975	0	29768	
1976	0	29792	
1977	0	29808	
1978	0	29836	
1979	0	29868	
1980	0	29900	
1981	0	29930	
1982	0	29976	
1983	0	29996	
1984	0	29992	
1985	0	30024	
1986	0	30056	
1987	0	30084	
1988	0	30100	
1989	0	30112	
1990	0	30152	
1991	0	30188	
1992	0	30204	
1993	0	30244	
1994	0	30260	
1995	0	30280	
1996	0	30312	
1997	0	30324	
1998	0	30340	
1999	0	30370	
2000	0	30416	
2001	0	30420	
2002	0	30440	
2003	0	30472	
2004	0	30490	
2005	0	30496	
2006	0	30532	
2007	0	30584	
2008	0	30612	
2009	0	30634	
2010	0	30632	
2011	0	30684	
2012	0	30692	
2013	0	30672	
2014	0	30676	
2015	0	30676	
2016	0	30684	
2017	0	30712	
2018	0	30760	
2019	0	30808	
2020	0	30832	
2021	0	30808	
2022	0	30800	
2023	0	30776	
2024	0	30776	
2025	0	30780	
2026	0	30808	
2027	0	30832	
2028	0	30856	
2029	0	30866	
2030	0	30880	
2031	0	30904	
2032	0	30940	
2033	0	30984	
2034	0	31024	
2035	0	31032	
2036	0	31002	
2037	0	31004	
2038	0	30988	
2039	0	31008	
2040	0	31048	
2041	0	31056	
2042	0	31024	
2043	0	31024	
2044	0	31052	
2045	0	31048	
2046	0	31028	
2047	0	31000	
2048	0	31008	
2049	0	31026	
2050	0	31048	
2051	0	31072	
2052	0	31088	
2053	0	31076	
2054	0	31076	
2055	0	31072	
2056	0	31100	
2057	0	31104	
2058	0	31096	
2059	0	31088	
2060	0	31112	
2061	0	31120	
2062	0	31116	
2063	0	31108	
2064	0	31096	
2065	0	31044	
2066	0	31056	
2067	0	31064	
2068	0	31080	
2069	0	31084	
2070	0	31092	
2071	0	31084	
2072	0	31089	
2073	0	31064	
2074	0	31064	
2075	0	31064	
2076	0	31052	
2077	0	31052	
2078	0	31056	
2079	0	31040	
2080	0	31008	
2081	0	31004	
2082	0	30972	
2083	0	31000	
2084	0	31048	
2085	0	31060	
2086	0	31056	
2087	0	31060	
2088	0	31060	
2089	0	31056	
2090	0	31052	
2091	0	31034	
2092	0	31012	
2093	0	31000	
2094	0	30984	
2095	0	30992	
2096	0	31028	
2097	0	31072	
2098	0	31100	
2099	0	31084	
2100	0	31076	
2101	0	31048	
2102	0	31040	
2103	0	31052	
2104	0	31104	
2105	0	31112	
2106	0	31120	
2107	0	31120	
2108	0	31116	
2109	0	31112	
2110	0	31124	
2111	0	31128	
2112	0	31144	
2113	0	31144	
2114	0	31108	
2115	0	31124	
2116	0	31148	
2117	0	31180	
2118	0	31196	
2119	0	31200	
2120	0	31208	
2121	0	31232	
2122	0	31252	
2123	0	31244	
2124	0	31260	
2125	0	31260	
2126	0	31264	
2127	0	31248	
2128	0	31248	
2129	0	31232	
2130	0	31252	
2131	0	31264	
2132	0	31288	
2133	0	31328	
2134	0	31352	
2135	0	31372	
2136	0	31392	
2137	0	31400	
2138	0	31400	
2139	0	31384	
2140	0	31396	
2141	0	31416	
2142	0	31424	
2143	0	31424	
2144	0	31444	
2145	0	31456	
2146	0	31450	
2147	0	31464	
2148	0	31488	
2149	0	31492	
2150	0	31540	
2151	0	31564	
2152	0	31588	
2153	0	31632	
2154	0	31696	
2155	0	31712	
2156	0	31732	
2157	0	31754	
2158	0	31800	
2159	0	31848	
2160	0	31876	
2161	0	31948	
2162	0	32032	
2163	0	32080	
2164	0	32140	
2165	0	32160	
2166	0	32192	
2167	0	32272	
2168	0	32340	
2169	0	32396	
2170	0	32418	
2171	0	32460	
2172	0	32500	
2173	0	32536	
2174	0	32612	
2175	0	32720	
2176	0	32784	
2177	0	32840	
2178	0	32848	
2179	0	32848	
2180	0	32836	
2181	0	32840	
2182	0	32864	
2183	0	32920	
2184	0	33024	
2185	0	33204	
2186	0	33352	
2187	0	33472	
2188	0	33516	
2189	0	33532	
2190	0	33572	
2191	0	33594	
2192	0	33644	
2193	0	33780	
2194	0	33916	
2195	0	34052	
2196	0	34152	
2197	0	34246	
2198	0	34340	
2199	0	34448	
2200	0	34538	
2201	0	34624	
2202	0	34692	
2203	0	34732	
2204	0	34816	
2205	0	34872	
2206	0	34888	
2207	0	34840	
2208	0	34772	
2209	0	34688	
2210	0	34612	
2211	0	34536	
2212	0	34504	
2213	0	34480	
2214	0	34424	
2215	0	34356	
2216	0	34248	
2217	0	34128	
2218	0	33968	
2219	0	33828	
2220	0	33680	
2221	0	33520	
2222	0	33340	
2223	0	33174	
2224	0	33032	
2225	0	32856	
2226	0	32648	
2227	0	32464	
2228	0	32344	
2229	0	32252	
2230	0	32204	
2231	0	32164	
2232	0	32096	
2233	0	32020	
2234	0	31936	
2235	0	31880	
2236	0	31832	
2237	0	31736	
2238	0	31628	
2239	0	31536	
2240	0	31468	
2241	0	31440	
2242	0	31396	
2243	0	31344	
2244	0	31312	
2245	0	31264	
2246	0	31184	
2247	0	31096	
2248	0	30992	
2249	0	30872	
2250	0	30776	
2251	0	30714	
2252	0	30648	
2253	0	30588	
2254	0	30584	
2255	0	30586	
2256	0	30608	
2257	0	30628	
2258	0	30648	
2259	0	30668	
2260	0	30658	
2261	0	30624	
2262	0	30628	
2263	0	30672	
2264	0	30696	
2265	0	30716	
2266	0	30704	
2267	0	30716	
2268	0	30744	
2269	0	30756	
2270	0	30772	
2271	0	30776	
2272	0	30786	
2273	0	30808	
2274	0	30796	
2275	0	30780	
2276	0	30792	
2277	0	30804	
2278	0	30824	
2279	0	30832	
2280	0	30858	
2281	0	30864	
2282	0	30872	
2283	0	30908	
2284	0	30932	
2285	0	30954	
2286	0	30964	
2287	0	30968	
2288	0	30984	
2289	0	31000	
2290	0	31052	
2291	0	31084	
2292	0	31072	
2293	0	31072	
2294	0	31088	
2295	0	31114	
2296	0	31140	
2297	0	31168	
2298	0	31176	
2299	0	31176	
2300	0	31192	
2301	0	31220	
2302	0	31248	
2303	0	31248	
2304	0	31258	
2305	0	31280	
2306	0	31312	
2307	0	31362	
2308	0	31392	
2309	0	31368	
2310	0	31280	
2311	0	31100	
2312	0	30864	
2313	0	30580	
2314	0	30200	
2315	0	29812	
2316	0	29444	
2317	0	29200	
2318	0	29080	
2319	0	29184	
2320	0	29496	
2321	0	29916	
2322	0	30292	
2323	0	30656	
2324	0	31072	
2325	0	31592	
2326	0	32128	
2327	0	32524	
2328	0	32840	
2329	0	33196	
2330	0	33464	
2331	0	33760	
2332	0	34244	
2333	0	34992	
2334	0	35928	
2335	0	37130	
2336	0	38720	
2337	0	40540	
2338	0	42524	
2339	0	44856	
2340	0	47508	
2341	0	50408	
2342	0	53088	
2343	0	55192	
2344	0	56800	
2345	0	58112	
2346	0	59352	
2347	0	60380	
2348	0	61104	
2349	0	61376	
2350	0	60934	
2351	0	59924	
2352	0	58560	
2353	0	56928	
2354	0	55048	
2355	0	52804	
2356	0	50304	
2357	0	47928	
2358	0	45680	
2359	0	43356	
2360	0	41032	
2361	0	38548	
2362	0	35924	
2363	0	33352	
2364	0	30956	
2365	0	28794	
2366	0	26712	
2367	0	24712	
2368	0	23020	
2369	0	21720	
2370	0	20668	
2371	0	19792	
2372	0	19188	
2373	0	18688	
2374	0	18128	
2375	0	17536	
2376	0	17024	
2377	0	16602	
2378	0	16298	
2379	0	16100	
2380	0	16048	
2381	0	16132	
2382	0	16416	
2383	0	16868	
2384	0	17506	
2385	0	18344	
2386	0	19290	
2387	0	20224	
2388	0	21128	
2389	0	22006	
2390	0	23028	
2391	0	24132	
2392	0	25208	
2393	0	26156	
2394	0	26972	
2395	0	27660	
2396	0	28236	
2397	0	28776	
2398	0	29240	
2399	0	29612	
2400	0	29924	
2401	0	30220	
2402	0	30488	
2403	0	30764	
2404	0	30968	
2405	0	31092	
2406	0	31200	
2407	0	31296	
2408	0	31404	
2409	0	31468	
2410	0	31532	
2411	0	31636	
2412	0	31712	
2413	0	31784	
2414	0	31832	
2415	0	31892	
2416	0	31956	
2417	0	32036	
2418	0	32112	
2419	0	32192	
2420	0	32276	
2421	0	32338	
2422	0	32392	
2423	0	32440	
2424	0	32528	
2425	0	32596	
2426	0	32672	
2427	0	32760	
2428	0	32864	
2429	0	32916	
2430	0	32976	
2431	0	33018	
2432	0	33036	
2433	0	33032	
2434	0	33038	
2435	0	33060	
2436	0	33100	
2437	0	33172	
2438	0	33220	
2439	0	33260	
2440	0	33312	
2441	0	33396	
2442	0	33460	
2443	0	33504	
2444	0	33540	
2445	0	33568	
2446	0	33596	
2447	0	33640	
2448	0	33690	
2449	0	33716	
2450	0	33728	
2451	0	33708	
2452	0	33732	
2453	0	33768	
2454	0	33840	
2455	0	33920	
2456	0	33980	
2457	0	34020	
2458	0	34024	
2459	0	34052	
2460	0	34096	
2461	0	34144	
2462	0	34196	
2463	0	34232	
2464	0	34252	
2465	0	34264	
2466	0	34324	
2467	0	34376	
2468	0	34416	
2469	0	34452	
2470	0	34480	
2471	0	34484	
2472	0	34516	
2473	0	34588	
2474	0	34612	
2475	0	34624	
2476	0	34696	
2477	0	34764	
2478	0	34800	
2479	0	34820	
2480	0	34848	
2481	0	34888	
2482	0	34936	
2483	0	35008	
2484	0	35080	
2485	0	35132	
2486	0	35156	
2487	0	35216	
2488	0	35284	
2489	0	35360	
2490	0	35408	
2491	0	35436	
2492	0	35452	
2493	0	35508	
2494	0	35584	
2495	0	35636	
2496	0	35696	
2497	0	35720	
2498	0	35744	
2499	0	35816	
2500	0	35888	
2501	0	35948	
2502	0	36000	
2503	0	36052	
2504	0	36114	
2505	0	36176	
2506	0	36232	
2507	0	36316	
2508	0	36400	
2509	0	36476	
2510	0	36516	
2511	0	36558	
2512	0	36584	
2513	0	36648	
2514	0	36736	
2515	0	36816	
2516	0	36884	
2517	0	36920	
2518	0	36972	
2519	0	37012	
2520	0	37076	
2521	0	37162	
2522	0	37216	
2523	0	37260	
2524	0	37300	
2525	0	37352	
2526	0	37428	
2527	0	37488	
2528	0	37536	
2529	0	37604	
2530	0	37664	
2531	0	37720	
2532	0	37752	
2533	0	37784	
2534	0	37812	
2535	0	37864	
2536	0	37928	
2537	0	37988	
2538	0	38036	
2539	0	38064	
2540	0	38104	
2541	0	38164	
2542	0	38184	
2543	0	38208	
2544	0	38204	
2545	0	38232	
2546	0	38272	
2547	0	38304	
2548	0	38336	
2549	0	38368	
2550	0	38392	
2551	0	38392	
2552	0	38420	
2553	0	38440	
2554	0	38468	
2555	0	38496	
2556	0	38492	
2557	0	38504	
2558	0	38508	
2559	0	38504	
2560	0	38496	
2561	0	38484	
2562	0	38496	
2563	0	38512	
2564	0	38520	
2565	0	38528	
2566	0	38536	
2567	0	38508	
2568	0	38504	
2569	0	38504	
2570	0	38492	
2571	0	38476	
2572	0	38444	
2573	0	38416	
2574	0	38396	
2575	0	38396	
2576	0	38404	
2577	0	38344	
2578	0	38316	
2579	0	38288	
2580	0	38240	
2581	0	38232	
2582	0	38204	
2583	0	38144	
2584	0	38064	
2585	0	37956	
2586	0	37864	
2587	0	37776	
2588	0	37704	
2589	0	37616	
2590	0	37516	
2591	0	37404	
2592	0	37280	
2593	0	37156	
2594	0	37028	
2595	0	36896	
2596	0	36736	
2597	0	36580	
2598	0	36440	
2599	0	36284	
2600	0	36112	
2601	0	35952	
2602	0	35784	
2603	0	35648	
2604	0	35492	
2605	0	35332	
2606	0	35178	
2607	0	34992	
2608	0	34796	
2609	0	34600	
2610	0	34420	
2611	0	34240	
2612	0	34088	
2613	0	33952	
2614	0	33772	
2615	0	33572	
2616	0	33392	
2617	0	33220	
2618	0	33060	
2619	0	32894	
2620	0	32754	
2621	0	32608	
2622	0	32476	
2623	0	32328	
2624	0	32196	
2625	0	32056	
2626	0	31892	
2627	0	31748	
2628	0	31610	
2629	0	31488	
2630	0	31344	
2631	0	31224	
2632	0	31112	
2633	0	30996	
2634	0	30860	
2635	0	30752	
2636	0	30684	
2637	0	30600	
2638	0	30528	
2639	0	30418	
2640	0	30340	
2641	0	30284	
2642	0	30212	
2643	0	30124	
2644	0	30056	
2645	0	29984	
2646	0	29928	
2647	0	29896	
2648	0	29880	
2649	0	29820	
2650	0	29768	
2651	0	29728	
2652	0	29684	
2653	0	29648	
2654	0	29656	
2655	0	29656	
2656	0	29622	
2657	0	29580	
2658	0	29552	
2659	0	29540	
2660	0	29576	
2661	0	29610	
2662	0	29612	
2663	0	29620	
2664	0	29606	
2665	0	29584	
2666	0	29528	
2667	0	29504	
2668	0	29528	
2669	0	29564	
2670	0	29596	
2671	0	29600	
2672	0	29632	
2673	0	29644	
2674	0	29652	
2675	0	29642	
2676	0	29648	
2677	0	29668	
2678	0	29708	
2679	0	29720	
2680	0	29728	
2681	0	29756	
2682	0	29796	
2683	0	29804	
2684	0	29798	
2685	0	29782	
2686	0	29764	
2687	0	29772	
2688	0	29792	
2689	0	29824	
2690	0	29864	
2691	0	29912	
2692	0	29932	
2693	0	29968	
2694	0	29984	
2695	0	30004	
2696	0	30040	
2697	0	30072	
2698	0	30112	
2699	0	30132	
2700	0	30164	
2701	0	30190	
2702	0	30212	
2703	0	30228	
2704	0	30244	
2705	0	30264	
2706	0	30296	
2707	0	30328	
2708	0	30362	
2709	0	30372	
2710	0	30380	
2711	0	30400	
2712	0	30424	
2713	0	30436	
2714	0	30460	
2715	0	30466	
2716	0	30504	
2717	0	30528	
2718	0	30546	
2719	0	30548	
2720	0	30572	
2721	0	30584	
2722	0	30592	
2723	0	30600	
2724	0	30618	
2725	0	30652	
2726	0	30656	
2727	0	30704	
2728	0	30720	
2729	0	30752	
2730	0	30752	
2731	0	30738	
2732	0	30708	
2733	0	30696	
2734	0	30736	
2735	0	30756	
2736	0	30784	
2737	0	30816	
2738	0	30816	
2739	0	30816	
2740	0	30832	
2741	0	30842	
2742	0	30882	
2743	0	30913	
2744	0	30908	
2745	0	30912	
2746	0	30944	
2747	0	30968	
2748	0	31004	
2749	0	31008	
2750	0	31000	
2751	0	31006	
2752	0	30984	
2753	0	30964	
2754	0	30992	
2755	0	31008	
2756	0	31020	
2757	0	31000	
2758	0	30992	
2759	0	31012	
2760	0	31052	
2761	0	31072	
2762	0	31078	
2763	0	31084	
2764	0	31072	
2765	0	31066	
2766	0	31052	
2767	0	31060	
2768	0	31082	
2769	0	31090	
2770	0	31072	
2771	0	31056	
2772	0	31048	
2773	0	31080	
2774	0	31092	
2775	0	31076	
2776	0	31048	
2777	0	31008	
2778	0	31008	
2779	0	31024	
2780	0	31028	
2781	0	31020	
2782	0	30980	
2783	0	30978	
2784	0	30972	
2785	0	30976	
2786	0	30954	
2787	0	30922	
2788	0	30936	
2789	0	30954	
2790	0	30964	
2791	0	30932	
2792	0	30916	
2793	0	30916	
2794	0	30906	
2795	0	30920	
2796	0	30944	
2797	0	30948	
2798	0	30968	
2799	0	30992	
2800	0	31004	
2801	0	31000	
2802	0	31012	
2803	0	31040	
2804	0	31076	
2805	0	31088	
2806	0	31082	
2807	0	31068	
2808	0	31068	
2809	0	31066	
2810	0	31064	
2811	0	31104	
2812	0	31092	
2813	0	31088	
2814	0	31080	
2815	0	31064	
2816	0	31056	
2817	0	31044	
2818	0	31074	
2819	0	31084	
2820	0	31084	
2821	0	31088	
2822	0	31100	
2823	0	31092	
2824	0	31096	
2825	0	31120	
2826	0	31144	
2827	0	31152	
2828	0	31140	
2829	0	31144	
2830	0	31152	
2831	0	31156	
2832	0	31184	
2833	0	31208	
2834	0	31220	
2835	0	31252	
2836	0	31248	
2837	0	31256	
2838	0	31272	
2839	0	31256	
2840	0	31224	
2841	0	31200	
2842	0	31236	
2843	0	31264	
2844	0	31268	
2845	0	31268	
2846	0	31272	
2847	0	31244	
2848	0	31244	
2849	0	31256	
2850	0	31256	
2851	0	31264	
2852	0	31288	
2853	0	31306	
2854	0	31328	
2855	0	31328	
2856	0	31332	
2857	0	31340	
2858	0	31364	
2859	0	31368	
2860	0	31360	
2861	0	31376	
2862	0	31396	
2863	0	31396	
2864	0	31388	
2865	0	31392	
2866	0	31420	
2867	0	31436	
2868	0	31444	
2869	0	31476	
2870	0	31488	
2871	0	31506	
2872	0	31496	
2873	0	31514	
2874	0	31532	
2875	0	31560	
2876	0	31560	
2877	0	31532	
2878	0	31488	
2879	0	31456	
2880	0	31460	
2881	0	31472	
2882	0	31500	
2883	0	31512	
2884	0	31500	
2885	0	31516	
2886	0	31520	
2887	0	31524	
2888	0	31528	
2889	0	31560	
2890	0	31588	
2891	0	31588	
2892	0	31608	
2893	0	31632	
2894	0	31640	
2895	0	31628	
2896	0	31636	
2897	0	31640	
2898	0	31672	
2899	0	31716	
2900	0	31736	
2901	0	31784	
2902	0	31832	
2903	0	31892	
2904	0	31968	
2905	0	31996	
2906	0	32000	
2907	0	32004	
2908	0	32012	
2909	0	32060	
2910	0	32152	
2911	0	32224	
2912	0	32288	
2913	0	32320	
2914	0	32344	
2915	0	32368	
2916	0	32398	
2917	0	32448	
2918	0	32492	
2919	0	32524	
2920	0	32552	
2921	0	32592	
2922	0	32628	
2923	0	32708	
2924	0	32816	
2925	0	32908	
2926	0	32952	
2927	0	32944	
2928	0	32932	
2929	0	32920	
2930	0	32960	
2931	0	33064	
2932	0	33168	
2933	0	33296	
2934	0	33432	
2935	0	33562	
2936	0	33626	
2937	0	33650	
2938	0	33696	
2939	0	33780	
2940	0	33832	
2941	0	33892	
2942	0	33988	
2943	0	34088	
2944	0	34210	
2945	0	34320	
2946	0	34400	
2947	0	34464	
2948	0	34568	
2949	0	34648	
2950	0	34684	
2951	0	34736	
2952	0	34788	
2953	0	34820	
2954	0	34856	
2955	0	34834	
2956	0	34810	
2957	0	34756	
2958	0	34680	
2959	0	34584	
2960	0	34536	
2961	0	34496	
2962	0	34444	
2963	0	34396	
2964	0	34308	
2965	0	34228	
2966	0	34128	
2967	0	33980	
2968	0	33808	
2969	0	33692	
2970	0	33580	
2971	0	33432	
2972	0	33280	
2973	0	33088	
2974	0	32916	
2975	0	32720	
2976	0	32532	
2977	0	32420	
2978	0	32360	
2979	0	32292	
2980	0	32216	
2981	0	32160	
2982	0	32124	
2983	0	32072	
2984	0	32032	
2985	0	31976	
2986	0	31924	
2987	0	31808	
2988	0	31712	
2989	0	31664	
2990	0	31592	
2991	0	31534	
2992	0	31488	
2993	0	31424	
2994	0	31336	
2995	0	31264	
2996	0	31142	
2997	0	31024	
2998	0	30912	
2999	0	30828	
3000	0	30772	
3001	0	30744	
3002	0	30728	
3003	0	30756	
3004	0	30764	
3005	0	30756	
3006	0	30776	
3007	0	30792	
3008	0	30836	
3009	0	30884	
3010	0	30900	
3011	0	30920	
3012	0	30940	
3013	0	30936	
3014	0	30940	
3015	0	30924	
3016	0	30920	
3017	0	30908	
3018	0	30896	
3019	0	30916	
3020	0	30912	
3021	0	30904	
3022	0	30892	
3023	0	30892	
3024	0	30864	
3025	0	30904	
3026	0	30936	
3027	0	30952	
3028	0	30960	
3029	0	30972	
3030	0	30960	
3031	0	30976	
3032	0	31004	
3033	0	31036	
3034	0	31048	
3035	0	31058	
3036	0	31092	
3037	0	31134	
3038	0	31180	
3039	0	31192	
3040	0	31178	
3041	0	31210	
3042	0	31258	
3043	0	31280	
3044	0	31288	
3045	0	31284	
3046	0	31228	
3047	0	31224	
3048	0	31256	
3049	0	31264	
3050	0	31272	
3051	0	31312	
3052	0	31344	
3053	0	31354	
3054	0	31340	
3055	0	31352	
3056	0	31388	
3057	0	31424	
3058	0	31408	
3059	0	31304	
3060	0	31108	
3061	0	30800	
3062	0	30424	
3063	0	30012	
3064	0	29604	
3065	0	29328	
3066	0	29120	
3067	0	29060	
3068	0	29228	
3069	0	29592	
3070	0	29992	
3071	0	30324	
3072	0	30700	
3073	0	31184	
3074	0	31800	
3075	0	32328	
3076	0	32704	
3077	0	33008	
3078	0	33300	
3079	0	33496	
3080	0	33818	
3081	0	34442	
3082	0	35308	
3083	0	36392	
3084	0	37788	
3085	0	39508	
3086	0	41380	
3087	0	43472	
3088	0	45980	
3089	0	48808	
3090	0	51728	
3091	0	54260	
3092	0	56096	
3093	0	57560	
3094	0	58852	
3095	0	60024	
3096	0	60908	
3097	0	61500	
3098	0	61464	
3099	0	60800	
3100	0	59692	
3101	0	58200	
3102	0	56416	
3103	0	54392	
3104	0	52024	
3105	0	49552	
3106	0	47228	
3107	0	44928	
3108	0	42584	
3109	0	40200	
3110	0	37624	
3111	0	35008	
3112	0	32440	
3113	0	30092	
3114	0	27956	
3115	0	25874	
3116	0	23909	
3117	0	22344	
3118	0	21132	
3119	0	20138	
3120	0	19360	
3121	0	18842	
3122	0	18340	
3123	0	17804	
3124	0	17256	
3125	0	16806	
3126	0	16462	
3127	0	16216	
3128	0	16108	
3129	0	16136	
3130	0	16322	
3131	0	16694	
3132	0	17174	
3133	0	17836	
3134	0	18712	
3135	0	19632	
3136	0	20536	
3137	0	21428	
3138	0	22336	
3139	0	23360	
3140	0	24456	
3141	0	25532	
3142	0	26480	
3143	0	27276	
3144	0	27964	
3145	0	28564	
3146	0	29060	
3147	0	29512	
3148	0	29912	
3149	0	30240	
3150	0	30520	
3151	0	30808	
3152	0	31072	
3153	0	31268	
3154	0	31388	
3155	0	31476	
3156	0	31568	
3157	0	31632	
3158	0	31676	
3159	0	31688	
3160	0	31716	
3161	0	31792	
3162	0	31856	
3163	0	31932	
3164	0	32020	
3165	0	32088	
3166	0	32148	
3167	0	32220	
3168	0	32316	
3169	0	32424	
3170	0	32500	
3171	0	32588	
3172	0	32660	
3173	0	32712	
3174	0	32768	
3175	0	32852	
3176	0	32916	
3177	0	32960	
3178	0	32984	
3179	0	33016	
3180	0	33060	
3181	0	33114	
3182	0	33216	
3183	0	33308	
3184	0	33388	
3185	0	33448	
3186	0	33476	
3187	0	33504	
3188	0	33544	
3189	0	33588	
3190	0	33600	
3191	0	33604	
3192	0	33652	
3193	0	33708	
3194	0	33744	
3195	0	33804	
3196	0	33824	
3197	0	33848	
3198	0	33896	
3199	0	33952	
3200	0	33984	
3201	0	34020	
3202	0	34032	
3203	0	34036	
3204	0	34032	
3205	0	34064	
3206	0	34108	
3207	0	34164	
3208	0	34200	
3209	0	34244	
3210	0	34284	
3211	0	34316	
3212	0	34368	
3213	0	34436	
3214	0	34480	
3215	0	34500	
3216	0	34488	
3217	0	34532	
3218	0	34562	
3219	0	34612	
3220	0	34664	
3221	0	34716	
3222	0	34746	
3223	0	34784	
3224	0	34784	
3225	0	34768	
3226	0	34780	
3227	0	34816	
3228	0	34852	
3229	0	34904	
3230	0	34920	
3231	0	34956	
3232	0	34992	
3233	0	35040	
3234	0	35068	
3235	0	35112	
3236	0	35192	
3237	0	35272	
3238	0	35316	
3239	0	35360	
3240	0	35400	
3241	0	35440	
3242	0	35520	
3243	0	35596	
3244	0	35652	
3245	0	35716	
3246	0	35744	
3247	0	35778	
3248	0	35816	
3249	0	35888	
3250	0	35940	
3251	0	36024	
3252	0	36116	
3253	0	36168	
3254	0	36164	
3255	0	36216	
3256	0	36296	
3257	0	36400	
3258	0	36508	
3259	0	36608	
3260	0	36660	
3261	0	36698	
3262	0	36728	
3263	0	36796	
3264	0	36872	
3265	0	36916	
3266	0	36956	
3267	0	36980	
3268	0	37040	
3269	0	37084	
3270	0	37128	
3271	0	37184	
3272	0	37260	
3273	0	37380	
3274	0	37476	
3275	0	37508	
3276	0	37576	
3277	0	37640	
3278	0	37692	
3279	0	37720	
3280	0	37740	
3281	0	37816	
3282	0	37856	
3283	0	37928	
3284	0	37988	
3285	0	38044	
3286	0	38044	
3287	0	38072	
3288	0	38080	
3289	0	38072	
3290	0	38068	
3291	0	38092	
3292	0	38104	
3293	0	38116	
3294	0	38138	
3295	0	38140	
3296	0	38144	
3297	0	38164	
3298	0	38208	
3299	0	38280	
3300	0	38316	
3301	0	38340	
3302	0	38380	
3303	0	38384	
3304	0	38380	
3305	0	38404	
3306	0	38432	
3307	0	38448	
3308	0	38460	
3309	0	38516	
3310	0	38584	
3311	0	38600	
3312	0	38580	
3313	0	38596	
3314	0	38596	
3315	0	38600	
3316	0	38584	
3317	0	38584	
3318	0	38592	
3319	0	38584	
3320	0	38572	
3321	0	38556	
3322	0	38568	
3323	0	38584	
3324	0	38548	
3325	0	38528	
3326	0	38516	
3327	0	38472	
3328	0	38416	
3329	0	38364	
3330	0	38332	
3331	0	38284	
3332	0	38224	
3333	0	38136	
3334	0	38072	
3335	0	38048	
3336	0	37996	
3337	0	37956	
3338	0	37896	
3339	0	37816	
3340	0	37676	
3341	0	37576	
3342	0	37464	
3343	0	37312	
3344	0	37168	
3345	0	37036	
3346	0	36904	
3347	0	36768	
3348	0	36636	
3349	0	36496	
3350	0	36356	
3351	0	36224	
3352	0	36056	
3353	0	35912	
3354	0	35768	
3355	0	35624	
3356	0	35456	
3357	0	35268	
3358	0	35108	
3359	0	34928	
3360	0	34756	
3361	0	34596	
3362	0	34420	
3363	0	34296	
3364	0	34152	
3365	0	33960	
3366	0	33768	
3367	0	33548	
3368	0	33364	
3369	0	33236	
3370	0	33096	
3371	0	32952	
3372	0	32808	
3373	0	32672	
3374	0	32532	
3375	0	32440	
3376	0	32320	
3377	0	32164	
3378	0	32008	
3379	0	31856	
3380	0	31760	
3381	0	31652	
3382	0	31504	
3383	0	31380	
3384	0	31256	
3385	0	31088	
3386	0	30976	
3387	0	30920	
3388	0	30856	
3389	0	30776	
3390	0	30692	
3391	0	30594	
3392	0	30492	
3393	0	30376	
3394	0	30280	
3395	0	30208	
3396	0	30160	
3397	0	30096	
3398	0	30048	
3399	0	30008	
3400	0	29976	
3401	0	29964	
3402	0	29892	
3403	0	29810	
3404	0	29728	
3405	0	29676	
3406	0	29660	
3407	0	29634	
3408	0	29600	
3409	0	29544	
3410	0	29480	
3411	0	29428	
3412	0	29432	
3413	0	29432	
3414	0	29448	
3415	0	29456	
3416	0	29464	
3417	0	29468	
3418	0	29480	
3419	0	29512	
3420	0	29548	
3421	0	29584	
3422	0	29580	
3423	0	29562	
3424	0	29620	
3425	0	29656	
3426	0	29656	
3427	0	29672	
3428	0	29708	
3429	0	29744	
3430	0	29696	
3431	0	29672	
3432	0	29710	
3433	0	29712	
3434	0	29732	
3435	0	29800	
3436	0	29844	
3437	0	29860	
3438	0	29860	
3439	0	29856	
3440	0	29876	
3441	0	29892	
3442	0	29896	
3443	0	29904	
3444	0	29932	
3445	0	29956	
3446	0	29972	
3447	0	29982	
3448	0	30004	
3449	0	30060	
3450	0	30116	
3451	0	30176	
3452	0	30208	
3453	0	30232	
3454	0	30180	
3455	0	30148	
3456	0	30170	
3457	0	30200	
3458	0	30204	
3459	0	30200	
3460	0	30210	
3461	0	30258	
3462	0	30292	
3463	0	30328	
3464	0	30356	
3465	0	30380	
3466	0	30420	
3467	0	30482	
3468	0	30506	
3469	0	30528	
3470	0	30516	
3471	0	30472	
3472	0	30480	
3473	0	30476	
3474	0	30444	
3475	0	30464	
3476	0	30500	
3477	0	30508	
3478	0	30472	
3479	0	30468	
3480	0	30468	
3481	0	30504	
3482	0	30520	
3483	0	30520	
3484	0	30476	
3485	0	30456	
3486	0	30496	
3487	0	30512	
3488	0	30560	
3489	0	30656	
3490	0	30688	
3491	0	30700	
3492	0	30746	
3493	0	30784	
3494	0	30780	
3495	0	30824	
3496	0	30864	
3497	0	30880	
3498	0	30892	
3499	0	30864	
3500	0	30856	
3501	0	30872	
3502	0	30864	
3503	0	30880	
3504	0	30896	
3505	0	30906	
3506	0	30912	
3507	0	30924	
3508	0	30920	
3509	0	30948	
3510	0	30988	
3511	0	30980	
3512	0	30960	
3513	0	30936	
3514	0	30916	
3515	0	30912	
3516	0	30880	
3517	0	30884	
3518	0	30888	
3519	0	30872	
3520	0	30872	
3521	0	30876	
3522	0	30860	
3523	0	30890	
3524	0	30912	
3525	0	30910	
3526	0	30872	
3527	0	30808	
3528	0	30788	
3529	0	30776	
3530	0	30752	
3531	0	30780	
3532	0	30828	
3533	0	30844	
3534	0	30868	
3535	0	30880	
3536	0	30916	
3537	0	30928	
3538	0	30932	
3539	0	30948	
3540	0	30952	
3541	0	30956	
3542	0	30920	
3543	0	30912	
3544	0	30924	
3545	0	30932	
3546	0	30932	
3547	0	30956	
3548	0	30956	
3549	0	30948	
3550	0	30968	
3551	0	30996	
3552	0	31020	
3553	0	31032	
3554	0	31028	
3555	0	31040	
3556	0	31044	
3557	0	31036	
3558	0	31040	
3559	0	31032	
3560	0	31024	
3561	0	31034	
3562	0	31008	
3563	0	30980	
3564	0	30976	
3565	0	30992	
3566	0	31008	
3567	0	31016	
3568	0	31000	
3569	0	31000	
3570	0	30976	
3571	0	30960	
3572	0	30968	
3573	0	30968	
3574	0	31002	
3575	0	31052	
3576	0	31112	
3577	0	31148	
3578	0	31152	
3579	0	31208	
3580	0	31236	
3581	0	31188	
3582	0	31192	
3583	0	31244	
3584	0	31312	
3585	0	31372	
3586	0	31394	
3587	0	31388	
3588	0	31400	
3589	0	31400	
3590	0	31420	
3591	0	31444	
3592	0	31440	
3593	0	31384	
3594	0	31336	
3595	0	31332	
3596	0	31348	
3597	0	31380	
3598	0	31408	
3599	0	31420	
3600	0	31436	
3601	0	31480	
3602	0	31488	
3603	0	31500	
3604	0	31480	
3605	0	31464	
3606	0	31484	
3607	0	31500	
3608	0	31536	
3609	0	31562	
3610	0	31564	
3611	0	31544	
3612	0	31520	
3613	0	31536	
3614	0	31576	
3615	0	31616	
3616	0	31590	
3617	0	31576	
3618	0	31604	
3619	0	31612	
3620	0	31618	
3621	0	31624	
3622	0	31596	
3623	0	31664	
3624	0	31784	
3625	0	31848	
3626	0	31928	
3627	0	32040	
3628	0	32088	
3629	0	32096	
3630	0	32136	
3631	0	32176	
3632	0	32232	
3633	0	32264	
3634	0	32300	
3635	0	32356	
3636	0	32418	
3637	0	32508	
3638	0	32584	
3639	0	32632	
3640	0	32676	
3641	0	32724	
3642	0	32736	
3643	0	32764	
3644	0	32784	
3645	0	32786	
3646	0	32816	
3647	0	32880	
3648	0	32956	
3649	0	33120	
3650	0	33280	
3651	0	33376	
3652	0	33392	
3653	0	33420	
3654	0	33504	
3655	0	33520	
3656	0	33504	
3657	0	33584	
3658	0	33732	
3659	0	33840	
3660	0	33928	
3661	0	34044	
3662	0	34132	
3663	0	34212	
3664	0	34308	
3665	0	34440	
3666	0	34512	
3667	0	34552	
3668	0	34650	
3669	0	34752	
3670	0	34792	
3671	0	34832	
3672	0	34852	
3673	0	34792	
3674	0	34676	
3675	0	34592	
3676	0	34576	
3677	0	34554	
3678	0	34512	
3679	0	34456	
3680	0	34356	
3681	0	34228	
3682	0	34104	
3683	0	33972	
3684	0	33840	
3685	0	33692	
3686	0	33492	
3687	0	33232	
3688	0	33004	
3689	0	32780	
3690	0	32520	
3691	0	32312	
3692	0	32196	
3693	0	32160	
3694	0	32064	
3695	0	31964	
3696	0	31904	
3697	0	31836	
3698	0	31776	
3699	0	31712	
3700	0	31696	
3701	0	31680	
3702	0	31580	
3703	0	31488	
3704	0	31400	
3705	0	31384	
3706	0	31372	
3707	0	31356	
3708	0	31312	
3709	0	31252	
3710	0	31200	
3711	0	31160	
3712	0	31084	
3713	0	30992	
3714	0	30896	
3715	0	30828	
3716	0	30788	
3717	0	30792	
3718	0	30740	
3719	0	30636	
3720	0	30554	
3721	0	30556	
3722	0	30608	
3723	0	30624	
3724	0	30644	
3725	0	30656	
3726	0	30666	
3727	0	30690	
3728	0	30744	
3729	0	30776	
3730	0	30760	
3731	0	30780	
3732	0	30784	
3733	0	30744	
3734	0	30752	
3735	0	30768	
3736	0	30792	
3737	0	30816	
3738	0	30784	
3739	0	30776	
3740	0	30796	
3741	0	30792	
3742	0	30816	
3743	0	30852	
3744	0	30872	
3745	0	30864	
3746	0	30884	
3747	0	30840	
3748	0	30832	
3749	0	30816	
3750	0	30828	
3751	0	30864	
3752	0	30912	
3753	0	30920	
3754	0	30904	
3755	0	30922	
3756	0	30932	
3757	0	30940	
3758	0	30944	
3759	0	30976	
3760	0	31040	
3761	0	31088	
3762	0	31104	
3763	0	31112	
3764	0	31130	
3765	0	31168	
3766	0	31216	
3767	0	31244	
3768	0	31312	
3769	0	31328	
3770	0	31360	
3771	0	31400	
3772	0	31400	
3773	0	31400	
3774	0	31388	
3775	0	31304	
3776	0	31104	
3777	0	30796	
3778	0	30440	
3779	0	30042	
3780	0	29580	
3781	0	29146	
3782	0	28794	
3783	0	28616	
3784	0	28620	
3785	0	28836	
3786	0	29136	
3787	0	29440	
3788	0	29692	
3789	0	30016	
3790	0	30506	
3791	0	30976	
3792	0	31280	
3793	0	31524	
3794	0	31796	
3795	0	32040	
3796	0	32280	
3797	0	32728	
3798	0	33468	
3799	0	34424	
3800	0	35716	
3801	0	37396	
3802	0	39488	
3803	0	41748	
3804	0	44208	
3805	0	46988	
3806	0	50140	
3807	0	53080	
3808	0	55404	
3809	0	57312	
3810	0	59200	
3811	0	61056	
3812	0	62588	
3813	0	63556	
3814	0	64056	
3815	0	64260	
3816	0	63372	
3817	0	61912	
3818	0	60132	
3819	0	58176	
3820	0	56000	
3821	0	53656	
3822	0	51292	
3823	0	48748	
3824	0	46040	
3825	0	43210	
3826	0	40180	
3827	0	37140	
3828	0	34154	
3829	0	31268	
3830	0	28500	
3831	0	25932	
3832	0	23862	
3833	0	22192	
3834	0	20812	
3835	0	19656	
3836	0	18812	
3837	0	18164	
3838	0	17614	
3839	0	17128	
3840	0	16720	
3841	0	16416	
3842	0	16242	
3843	0	16156	
3844	0	16088	
3845	0	16058	
3846	0	16120	
3847	0	16288	
3848	0	16504	
3849	0	16760	
3850	0	17154	
3851	0	17749	
3852	0	18496	
3853	0	19300	
3854	0	20164	
3855	0	21056	
3856	0	21976	
3857	0	22888	
3858	0	23832	
3859	0	24772	
3860	0	25716	
3861	0	26616	
3862	0	27364	
3863	0	28036	
3864	0	28604	
3865	0	29102	
3866	0	29552	
3867	0	29956	
3868	0	30304	
3869	0	30532	
3870	0	30754	
3871	0	30960	
3872	0	31168	
3873	0	31336	
3874	0	31456	
3875	0	31556	
3876	0	31680	
3877	0	31782	
3878	0	31840	
3879	0	31920	
3880	0	31992	
3881	0	32064	
3882	0	32138	
3883	0	32216	
3884	0	32300	
3885	0	32392	
3886	0	32458	
3887	0	32508	
3888	0	32540	
3889	0	32584	
3890	0	32660	
3891	0	32744	
3892	0	32836	
3893	0	32916	
3894	0	32976	
3895	0	33028	
3896	0	33088	
3897	0	33132	
3898	0	33196	
3899	0	33264	
3900	0	33312	
3901	0	33360	
3902	0	33392	
3903	0	33420	
3904	0	33460	
3905	0	33492	
3906	0	33528	
3907	0	33588	
3908	0	33672	
3909	0	33706	
3910	0	33720	
3911	0	33768	
3912	0	33840	
3913	0	33880	
3914	0	33944	
3915	0	34004	
3916	0	34044	
3917	0	34072	
3918	0	34092	
3919	0	34096	
3920	0	34096	
3921	0	34104	
3922	0	34140	
3923	0	34192	
3924	0	34268	
3925	0	34320	
3926	0	34392	
3927	0	34420	
3928	0	34416	
3929	0	34404	
3930	0	34464	
3931	0	34568	
3932	0	34584	
3933	0	34600	
3934	0	34592	
3935	0	34612	
3936	0	34676	
3937	0	34720	
3938	0	34752	
3939	0	34776	
3940	0	34752	
3941	0	34768	
3942	0	34816	
3943	0	34884	
3944	0	34928	
3945	0	34956	
3946	0	35008	
3947	0	35072	
3948	0	35136	
3949	0	35200	
3950	0	35240	
3951	0	35264	
3952	0	35296	
3953	0	35332	
3954	0	35336	
3955	0	35368	
3956	0	35372	
3957	0	35384	
3958	0	35420	
3959	0	35468	
3960	0	35504	
3961	0	35580	
3962	0	35640	
3963	0	35680	
3964	0	35740	
3965	0	35808	
3966	0	35852	
3967	0	35880	
3968	0	35904	
3969	0	35964	
3970	0	36024	
3971	0	36064	
3972	0	36072	
3973	0	36112	
3974	0	36180	
3975	0	36232	
3976	0	36228	
3977	0	36228	
3978	0	36272	
3979	0	36330	
3980	0	36388	
3981	0	36436	
3982	0	36512	
3983	0	36548	
3984	0	36608	
3985	0	36674	
3986	0	36746	
3987	0	36826	
3988	0	36908	
3989	0	36944	
3990	0	36984	
3991	0	37024	
3992	0	37092	
3993	0	37152	
3994	0	37192	
3995	0	37220	
3996	0	37236	
3997	0	37252	
3998	0	37276	
3999	0	37278	
4000	0	37316	
4001	0	37392	
4002	0	37456	
4003	0	37492	
4004	0	37520	
4005	0	37528	
4006	0	37516	
4007	0	37524	
4008	0	37524	
4009	0	37524	
4010	0	37568	
4011	0	37584	
4012	0	37604	
4013	0	37648	
4014	0	37660	
4015	0	37664	
4016	0	37690	
4017	0	37704	
4018	0	37712	
4019	0	37720	
4020	0	37720	
4021	0	37728	
4022	0	37752	
4023	0	37800	
4024	0	37824	
4025	0	37824	
4026	0	37826	
4027	0	37832	
4028	0	37836	
4029	0	37840	
4030	0	37856	
4031	0	37858	
4032	0	37864	
4033	0	37872	
4034	0	37872	
4035	0	37852	
4036	0	37820	
4037	0	37800	
4038	0	37760	
4039	0	37752	
4040	0	37720	
4041	0	37684	
4042	0	37644	
4043	0	37592	
4044	0	37536	
4045	0	37512	
4046	0	37456	
4047	0	37416	
4048	0	37362	
4049	0	37292	
4050	0	37240	
4051	0	37184	
4052	0	37162	
4053	0	37120	
4054	0	37048	
4055	0	36936	
4056	0	36824	
4057	0	36704	
4058	0	36592	
4059	0	36464	
4060	0	36336	
4061	0	36216	
4062	0	36056	
4063	0	35924	
4064	0	35802	
4065	0	35668	
4066	0	35568	
4067	0	35444	
4068	0	35276	
4069	0	35128	
4070	0	34996	
4071	0	34832	
4072	0	34660	
4073	0	34472	
4074	0	34276	
4075	0	34092	
4076	0	33896	
4077	0	33720	
4078	0	33576	
4079	0	33416	
4080	0	33262	
4081	0	33120	
4082	0	32972	
4083	0	32816	
4084	0	32672	
4085	0	32504	
4086	0	32376	
4087	0	32216	
4088	0	32060	
4089	0	31900	
4090	0	31756	
4091	0	31608	
4092	0	31476	
4093	0	31352	
4094	0	31238	
4095	0	31136	
4096	0	30992	
4097	0	30852	
4098	0	30744	
4099	0	30628	
4100	0	30496	
4101	0	30368	
4102	0	30266	
4103	0	30148	
4104	0	30048	
4105	0	29972	
4106	0	29888	
4107	0	29832	
4108	0	29812	
4109	0	29700	
4110	0	29596	
4111	0	29516	
4112	0	29436	
4113	0	29424	
4114	0	29436	
4115	0	29432	
4116	0	29410	
4117	0	29368	
4118	0	29346	
4119	0	29324	
4120	0	29330	
4121	0	29304	
4122	0	29264	
4123	0	29244	
4124	0	29232	
4125	0	29248	
4126	0	29248	
4127	0	29228	
4128	0	29242	
4129	0	29260	
4130	0	29264	
4131	0	29260	
4132	0	29252	
4133	0	29252	
4134	0	29256	
4135	0	29264	
4136	0	29292	
4137	0	29316	
4138	0	29324	
4139	0	29308	
4140	0	29296	
4141	0	29288	
4142	0	29304	
4143	0	29332	
4144	0	29336	
4145	0	29336	
4146	0	29354	
4147	0	29364	
4148	0	29412	
4149	0	29472	
4150	0	29496	
4151	0	29502	
4152	0	29492	
4153	0	29514	
4154	0	29548	
4155	0	29572	
4156	0	29594	
4157	0	29608	
4158	0	29620	
4159	0	29612	
4160	0	29608	
4161	0	29620	
4162	0	29652	
4163	0	29672	
4164	0	29700	
4165	0	29756	
4166	0	29760	
4167	0	29772	
4168	0	29792	
4169	0	29796	
4170	0	29864	
4171	0	29884	
4172	0	29868	
4173	0	29812	
4174	0	29808	
4175	0	29824	
4176	0	29896	
4177	0	29940	
4178	0	29968	
4179	0	29980	
4180	0	30004	
4181	0	30020	
4182	0	30028	
4183	0	30044	
4184	0	30060	
4185	0	30048	
4186	0	30052	
4187	0	30068	
4188	0	30080	
4189	0	30106	
4190	0	30126	
4191	0	30168	
4192	0	30208	
4193	0	30240	
4194	0	30248	
4195	0	30248	
4196	0	30252	
4197	0	30256	
4198	0	30236	
4199	0	30228	
4200	0	30192	
4201	0	30180	
4202	0	30212	
4203	0	30232	
4204	0	30236	
4205	0	30260	
4206	0	30282	
4207	0	30300	
4208	0	30284	
4209	0	30296	
4210	0	30316	
4211	0	30312	
4212	0	30320	
4213	0	30304	
4214	0	30276	
4215	0	30292	
4216	0	30328	
4217	0	30320	
4218	0	30328	
4219	0	30296	
4220	0	30304	
4221	0	30300	
4222	0	30256	
4223	0	30248	
4224	0	30268	
4225	0	30300	
4226	0	30316	
4227	0	30332	
4228	0	30344	
4229	0	30344	
4230	0	30352	
4231	0	30376	
4232	0	30360	
4233	0	30364	
4234	0	30350	
4235	0	30340	
4236	0	30328	
4237	0	30352	
4238	0	30348	
4239	0	30348	
4240	0	30338	
4241	0	30368	
4242	0	30388	
4243	0	30384	
4244	0	30368	
4245	0	30368	
4246	0	30400	
4247	0	30388	
4248	0	30376	
4249	0	30368	
4250	0	30352	
4251	0	30336	
4252	0	30360	
4253	0	30404	
4254	0	30468	
4255	0	30532	
4256	0	30560	
4257	0	30556	
4258	0	30556	
4259	0	30548	
4260	0	30548	
4261	0	30528	
4262	0	30508	
4263	0	30524	
4264	0	30532	
4265	0	30560	
4266	0	30588	
4267	0	30592	
4268	0	30608	
4269	0	30616	
4270	0	30600	
4271	0	30612	
4272	0	30620	
4273	0	30636	
4274	0	30666	
4275	0	30672	
4276	0	30660	
4277	0	30622	
4278	0	30596	
4279	0	30624	
4280	0	30632	
4281	0	30624	
4282	0	30628	
4283	0	30660	
4284	0	30676	
4285	0	30680	
4286	0	30700	
4287	0	30712	
4288	0	30720	
4289	0	30720	
4290	0	30708	
4291	0	30712	
4292	0	30696	
4293	0	30668	
4294	0	30684	
4295	0	30696	
4296	0	30738	
4297	0	30756	
4298	0	30792	
4299	0	30804	
4300	0	30820	
4301	0	30808	
4302	0	30812	
4303	0	30844	
4304	0	30852	
4305	0	30824	
4306	0	30816	
4307	0	30816	
4308	0	30836	
4309	0	30820	
4310	0	30828	
4311	0	30832	
4312	0	30856	
4313	0	30882	
4314	0	30908	
4315	0	30936	
4316	0	30960	
4317	0	30952	
4318	0	30960	
4319	0	30964	
4320	0	30968	
4321	0	31008	
4322	0	31036	
4323	0	31012	
4324	0	31004	
4325	0	31008	
4326	0	31040	
4327	0	31064	
4328	0	31084	
4329	0	31100	
4330	0	31120	
4331	0	31136	
4332	0	31180	
4333	0	31236	
4334	0	31280	
4335	0	31320	
4336	0	31340	
4337	0	31344	
4338	0	31336	
4339	0	31368	
4340	0	31396	
4341	0	31416	
4342	0	31456	
4343	0	31508	
4344	0	31544	
4345	0	31592	
4346	0	31672	
4347	0	31752	
4348	0	31826	
4349	0	31888	
4350	0	31968	
4351	0	32000	
4352	0	32006	
4353	0	32032	
4354	0	32096	
4355	0	32200	
4356	0	32268	
4357	0	32372	
4358	0	32476	
4359	0	32556	
4360	0	32608	
4361	0	32616	
4362	0	32600	
4363	0	32584	
4364	0	32616	
4365	0	32698	
4366	0	32776	
4367	0	32912	
4368	0	33060	
4369	0	33176	
4370	0	33216	
4371	0	33224	
4372	0	33224	
4373	0	33252	
4374	0	33328	
4375	0	33392	
4376	0	33488	
4377	0	33576	
4378	0	33688	
4379	0	33754	
4380	0	33812	
4381	0	33888	
4382	0	33972	
4383	0	34036	
4384	0	34096	
4385	0	34144	
4386	0	34224	
4387	0	34290	
4388	0	34320	
4389	0	34344	
4390	0	34344	
4391	0	34304	
4392	0	34248	
4393	0	34212	
4394	0	34180	
4395	0	34140	
4396	0	34072	
4397	0	34004	
4398	0	33924	
4399	0	33808	
4400	0	33688	
4401	0	33560	
4402	0	33430	
4403	0	33316	
4404	0	33192	
4405	0	33048	
4406	0	32904	
4407	0	32712	
4408	0	32504	
4409	0	32292	
4410	0	32064	
4411	0	31962	
4412	0	31900	
4413	0	31860	
4414	0	31812	
4415	0	31756	
4416	0	31688	
4417	0	31612	
4418	0	31546	
4419	0	31464	
4420	0	31400	
4421	0	31364	
4422	0	31300	
4423	0	31252	
4424	0	31236	
4425	0	31210	
4426	0	31172	
4427	0	31120	
4428	0	31068	
4429	0	31016	
4430	0	30932	
4431	0	30836	
4432	0	30688	
4433	0	30592	
4434	0	30552	
4435	0	30548	
4436	0	30498	
4437	0	30444	
4438	0	30444	
4439	0	30452	
4440	0	30436	
4441	0	30440	
4442	0	30460	
4443	0	30508	
4444	0	30520	
4445	0	30528	
4446	0	30512	
4447	0	30490	
4448	0	30468	
4449	0	30488	
4450	0	30528	
4451	0	30536	
4452	0	30532	
4453	0	30520	
4454	0	30544	
4455	0	30576	
4456	0	30612	
4457	0	30616	
4458	0	30632	
4459	0	30636	
4460	0	30644	
4461	0	30654	
4462	0	30682	
4463	0	30704	
4464	0	30712	
4465	0	30728	
4466	0	30760	
4467	0	30790	
4468	0	30816	
4469	0	30812	
4470	0	30824	
4471	0	30816	
4472	0	30820	
4473	0	30836	
4474	0	30840	
4475	0	30844	
4476	0	30852	
4477	0	30880	
4478	0	30906	
4479	0	30936	
4480	0	30948	
4481	0	30976	
4482	0	31008	
4483	0	31044	
4484	0	31056	
4485	0	31050	
4486	0	31048	
4487	0	31088	
4488	0	31152	
4489	0	31182	
4490	0	31200	
4491	0	31172	
4492	0	31108	
4493	0	30960	
4494	0	30768	
4495	0	30492	
4496	0	30148	
4497	0	29720	
4498	0	29316	
4499	0	28997	
4500	0	28844	
4501	0	28850	
4502	0	29080	
4503	0	29456	
4504	0	29848	
4505	0	30232	
4506	0	30634	
4507	0	31168	
4508	0	31784	
4509	0	32320	
4510	0	32728	
4511	0	33104	
4512	0	33464	
4513	0	33802	
4514	0	34272	
4515	0	35000	
4516	0	35988	
4517	0	37184	
4518	0	38724	
4519	0	40588	
4520	0	42560	
4521	0	44712	
4522	0	47284	
4523	0	50120	
4524	0	53132	
4525	0	55712	
4526	0	57584	
4527	0	59052	
4528	0	60400	
4529	0	61644	
4530	0	62608	
4531	0	63232	
4532	0	63256	
4533	0	62592	
4534	0	61376	
4535	0	59732	
4536	0	57812	
4537	0	55612	
4538	0	53008	
4539	0	50336	
4540	0	47768	
4541	0	45216	
4542	0	42608	
4543	0	39884	
4544	0	36944	
4545	0	33980	
4546	0	31216	
4547	0	28748	
4548	0	26540	
4549	0	24400	
4550	0	22436	
4551	0	20868	
4552	0	19664	
4553	0	18702	
4554	0	17978	
4555	0	17512	
4556	0	17060	
4557	0	16576	
4558	0	16084	
4559	0	15730	
4560	0	15472	
4561	0	15290	
4562	0	15264	
4563	0	15320	
4564	0	15528	
4565	0	15912	
4566	0	16418	
4567	0	17120	
4568	0	18036	
4569	0	19005	
4570	0	19962	
4571	0	20904	
4572	0	21872	
4573	0	22952	
4574	0	24096	
4575	0	25192	
4576	0	26104	
4577	0	26860	
4578	0	27512	
4579	0	28092	
4580	0	28622	
4581	0	29116	
4582	0	29488	
4583	0	29760	
4584	0	29984	
4585	0	30240	
4586	0	30456	
4587	0	30644	
4588	0	30808	
4589	0	30944	
4590	0	31072	
4591	0	31184	
4592	0	31260	
4593	0	31360	
4594	0	31448	
4595	0	31512	
4596	0	31572	
4597	0	31628	
4598	0	31720	
4599	0	31792	
4600	0	31846	
4601	0	31912	
4602	0	31996	
4603	0	32080	
4604	0	32160	
4605	0	32216	
4606	0	32264	
4607	0	32340	
4608	0	32416	
4609	0	32496	
4610	0	32544	
4611	0	32586	
4612	0	32632	
4613	0	32680	
4614	0	32728	
4615	0	32756	
4616	0	32804	
4617	0	32872	
4618	0	32888	
4619	0	32912	
4620	0	32968	
4621	0	33002	
4622	0	33036	
4623	0	33084	
4624	0	33168	
4625	0	33228	
4626	0	33272	
4627	0	33312	
4628	0	33376	
4629	0	33428	
4630	0	33438	
4631	0	33448	
4632	0	33488	
4633	0	33544	
4634	0	33576	
4635	0	33608	
4636	0	33648	
4637	0	33672	
4638	0	33696	
4639	0	33716	
4640	0	33736	
4641	0	33776	
4642	0	33812	
4643	0	33860	
4644	0	33904	
4645	0	33972	
4646	0	34012	
4647	0	34068	
4648	0	34120	
4649	0	34168	
4650	0	34224	
4651	0	34268	
4652	0	34296	
4653	0	34332	
4654	0	34368	
4655	0	34416	
4656	0	34468	
4657	0	34492	
4658	0	34520	
4659	0	34544	
4660	0	34608	
4661	0	34664	
4662	0	34712	
4663	0	34740	
4664	0	34784	
4665	0	34860	
4666	0	34912	
4667	0	34964	
4668	0	34992	
4669	0	35012	
4670	0	35034	
4671	0	35092	
4672	0	35152	
4673	0	35204	
4674	0	35240	
4675	0	35276	
4676	0	35336	
4677	0	35384	
4678	0	35422	
4679	0	35460	
4680	0	35500	
4681	0	35584	
4682	0	35660	
4683	0	35744	
4684	0	35816	
4685	0	35876	
4686	0	35900	
4687	0	35924	
4688	0	35972	
4689	0	36032	
4690	0	36080	
4691	0	36140	
4692	0	36196	
4693	0	36264	
4694	0	36304	
4695	0	36412	
4696	0	36480	
4697	0	36540	
4698	0	36600	
4699	0	36680	
4700	0	36764	
4701	0	36836	
4702	0	36880	
4703	0	36932	
4704	0	36996	
4705	0	37068	
4706	0	37176	
4707	0	37260	
4708	0	37318	
4709	0	37392	
4710	0	37448	
4711	0	37472	
4712	0	37524	
4713	0	37592	
4714	0	37648	
4715	0	37708	
4716	0	37768	
4717	0	37840	
4718	0	37872	
4719	0	37928	
4720	0	37952	
4721	0	38036	
4722	0	38096	
4723	0	38180	
4724	0	38200	
4725	0	38236	
4726	0	38256	
4727	0	38264	
4728	0	38292	
4729	0	38344	
4730	0	38390	
4731	0	38440	
4732	0	38472	
4733	0	38490	
4734	0	38532	
4735	0	38548	
4736	0	38560	
4737	0	38584	
4738	0	38576	
4739	0	38596	
4740	0	38616	
4741	0	38632	
4742	0	38640	
4743	0	38652	
4744	0	38644	
4745	0	38624	
4746	0	38620	
4747	0	38620	
4748	0	38640	
4749	0	38636	
4750	0	38636	
4751	0	38636	
4752	0	38632	
4753	0	38604	
4754	0	38578	
4755	0	38556	
4756	0	38556	
4757	0	38540	
4758	0	38504	
4759	0	38464	
4760	0	38432	
4761	0	38400	
4762	0	38344	
4763	0	38276	
4764	0	38208	
4765	0	38128	
4766	0	38032	
4767	0	37904	
4768	0	37792	
4769	0	37732	
4770	0	37672	
4771	0	37576	
4772	0	37464	
4773	0	37352	
4774	0	37212	
4775	0	37060	
4776	0	36904	
4777	0	36740	
4778	0	36576	
4779	0	36428	
4780	0	36284	
4781	0	36130	
4782	0	35968	
4783	0	35780	
4784	0	35616	
4785	0	35480	
4786	0	35340	
4787	0	35184	
4788	0	35012	
4789	0	34828	
4790	0	34618	
4791	0	34452	
4792	0	34276	
4793	0	34088	
4794	0	33896	
4795	0	33704	
4796	0	33524	
4797	0	33346	
4798	0	33180	
4799	0	33024	
4800	0	32864	
4801	0	32688	
4802	0	32506	
4803	0	32360	
4804	0	32216	
4805	0	32072	
4806	0	31908	
4807	0	31768	
4808	0	31628	
4809	0	31500	
4810	0	31356	
4811	0	31252	
4812	0	31132	
4813	0	30992	
4814	0	30888	
4815	0	30756	
4816	0	30628	
4817	0	30496	
4818	0	30388	
4819	0	30280	
4820	0	30240	
4821	0	30160	
4822	0	30080	
4823	0	30010	
4824	0	29972	
4825	0	29896	
4826	0	29804	
4827	0	29728	
4828	0	29700	
4829	0	29676	
4830	0	29652	
4831	0	29592	
4832	0	29528	
4833	0	29476	
4834	0	29448	
4835	0	29416	
4836	0	29388	
4837	0	29376	
4838	0	29346	
4839	0	29328	
4840	0	29304	
4841	0	29292	
4842	0	29272	
4843	0	29276	
4844	0	29280	
4845	0	29328	
4846	0	29360	
4847	0	29368	
4848	0	29356	
4849	0	29344	
4850	0	29352	
4851	0	29372	
4852	0	29384	
4853	0	29396	
4854	0	29388	
4855	0	29388	
4856	0	29392	
4857	0	29440	
4858	0	29432	
4859	0	29424	
4860	0	29460	
4861	0	29498	
4862	0	29504	
4863	0	29520	
4864	0	29564	
4865	0	29588	
4866	0	29598	
4867	0	29604	
4868	0	29614	
4869	0	29640	
4870	0	29672	
4871	0	29712	
4872	0	29760	
4873	0	29792	
4874	0	29806	
4875	0	29800	
4876	0	29794	
4877	0	29834	
4878	0	29872	
4879	0	29920	
4880	0	29952	
4881	0	29980	
4882	0	30028	
4883	0	30042	
4884	0	30028	
4885	0	30040	
4886	0	30084	
4887	0	30112	
4888	0	30148	
4889	0	30140	
4890	0	30156	
4891	0	30192	
4892	0	30220	
4893	0	30272	
4894	0	30304	
4895	0	30312	
4896	0	30320	
4897	0	30356	
4898	0	30384	
4899	0	30400	
4900	0	30416	
4901	0	30436	
4902	0	30420	
4903	0	30432	
4904	0	30464	
4905	0	30520	
4906	0	30604	
4907	0	30616	
4908	0	30616	
4909	0	30636	
4910	0	30664	
4911	0	30720	
4912	0	30746	
4913	0	30788	
4914	0	30804	
4915	0	30804	
4916	0	30796	
4917	0	30820	
4918	0	30856	
4919	0	30884	
4920	0	30872	
4921	0	30868	
4922	0	30860	
4923	0	30852	
4924	0	30876	
4925	0	30892	
4926	0	30912	
4927	0	30914	
4928	0	30928	
4929	0	30946	
4930	0	30972	
4931	0	30980	
4932	0	31012	
4933	0	31024	
4934	0	31036	
4935	0	31052	
4936	0	31072	
4937	0	31072	
4938	0	31064	
4939	0	31068	
4940	0	31068	
4941	0	31072	
4942	0	31092	
4943	0	31096	
4944	0	31090	
4945	0	31096	
4946	0	31092	
4947	0	31116	
4948	0	31132	
4949	0	31136	
4950	0	31144	
4951	0	31148	
4952	0	31128	
4953	0	31140	
4954	0	31140	
4955	0	31138	
4956	0	31112	
4957	0	31092	
4958	0	31092	
4959	0	31116	
4960	0	31136	
4961	0	31144	
4962	0	31128	
4963	0	31116	
4964	0	31108	
4965	0	31100	
4966	0	31072	
4967	0	31052	
4968	0	31048	
4969	0	31032	
4970	0	31032	
4971	0	31048	
4972	0	31108	
4973	0	31160	
4974	0	31164	
4975	0	31144	
4976	0	31138	
4977	0	31136	
4978	0	31132	
4979	0	31144	
4980	0	31118	
4981	0	31072	
4982	0	31060	
4983	0	31080	
4984	0	31084	
4985	0	31084	
4986	0	31056	
4987	0	31040	
4988	0	31032	
4989	0	31040	
4990	0	31058	
4991	0	31072	
4992	0	31062	
4993	0	31080	
4994	0	31088	
4995	0	31078	
4996	0	31104	
4997	0	31112	
4998	0	31096	
4999	0	31100	
5000	0	31100	
5001	0	31108	
5002	0	31112	
5003	0	31108	
5004	0	31120	
5005	0	31148	
5006	0	31140	
5007	0	31152	
5008	0	31184	
5009	0	31184	
5010	0	31204	
5011	0	31208	
5012	0	31248	
5013	0	31264	
5014	0	31244	
5015	0	31232	
5016	0	31228	
5017	0	31236	
5018	0	31228	
5019	0	31244	
5020	0	31236	
5021	0	31240	
5022	0	31224	
5023	0	31256	
5024	0	31256	
5025	0	31272	
5026	0	31296	
5027	0	31308	
5028	0	31300	
5029	0	31288	
5030	0	31336	
5031	0	31368	
5032	0	31380	
5033	0	31404	
5034	0	31424	
5035	0	31412	
5036	0	31408	
5037	0	31380	
5038	0	31388	
5039	0	31412	
5040	0	31456	
5041	0	31456	
5042	0	31468	
5043	0	31436	
5044	0	31424	
5045	0	31440	
5046	0	31464	
5047	0	31492	
5048	0	31476	
5049	0	31460	
5050	0	31508	
5051	0	31574	
5052	0	31620	
5053	0	31660	
5054	0	31708	
5055	0	31768	
5056	0	31792	
5057	0	31768	
5058	0	31760	
5059	0	31764	
5060	0	31820	
5061	0	31884	
5062	0	31956	
5063	0	32012	
5064	0	32076	
5065	0	32128	
5066	0	32204	
5067	0	32288	
5068	0	32336	
5069	0	32384	
5070	0	32424	
5071	0	32452	
5072	0	32504	
5073	0	32564	
5074	0	32640	
5075	0	32720	
5076	0	32752	
5077	0	32840	
5078	0	32888	
5079	0	32924	
5080	0	32896	
5081	0	32904	
5082	0	32936	
5083	0	32984	
5084	0	33064	
5085	0	33216	
5086	0	33364	
5087	0	33500	
5088	0	33588	
5089	0	33640	
5090	0	33672	
5091	0	33712	
5092	0	33712	
5093	0	33772	
5094	0	33860	
5095	0	33956	
5096	0	34032	
5097	0	34096	
5098	0	34212	
5099	0	34296	
5100	0	34368	
5101	0	34448	
5102	0	34504	
5103	0	34550	
5104	0	34608	
5105	0	34664	
5106	0	34684	
5107	0	34684	
5108	0	34676	
5109	0	34628	
5110	0	34540	
5111	0	34512	
5112	0	34512	
5113	0	34488	
5114	0	34448	
5115	0	34384	
5116	0	34270	
5117	0	34128	
5118	0	33952	
5119	0	33808	
5120	0	33676	
5121	0	33536	
5122	0	33420	
5123	0	33316	
5124	0	33152	
5125	0	32984	
5126	0	32830	
5127	0	32654	
5128	0	32452	
5129	0	32256	
5130	0	32156	
5131	0	32112	
5132	0	32106	
5133	0	32108	
5134	0	32080	
5135	0	32008	
5136	0	31956	
5137	0	31860	
5138	0	31784	
5139	0	31700	
5140	0	31608	
5141	0	31548	
5142	0	31548	
5143	0	31518	
5144	0	31492	
5145	0	31480	
5146	0	31408	
5147	0	31304	
5148	0	31168	
5149	0	31044	
5150	0	30934	
5151	0	30816	
5152	0	30746	
5153	0	30672	
5154	0	30640	
5155	0	30634	
5156	0	30640	
5157	0	30628	
5158	0	30624	
5159	0	30616	
5160	0	30600	
5161	0	30584	
5162	0	30600	
5163	0	30592	
5164	0	30624	
5165	0	30668	
5166	0	30692	
5167	0	30706	
5168	0	30760	
5169	0	30788	
5170	0	30804	
5171	0	30800	
5172	0	30800	
5173	0	30790	
5174	0	30788	
5175	0	30796	
5176	0	30812	
5177	0	30852	
5178	0	30912	
5179	0	30916	
5180	0	30920	
5181	0	30914	
5182	0	30912	
5183	0	30908	
5184	0	30904	
5185	0	30912	
5186	0	30948	
5187	0	30980	
5188	0	31020	
5189	0	31020	
5190	0	31010	
5191	0	31004	
5192	0	31032	
5193	0	31040	
5194	0	31028	
5195	0	31032	
5196	0	31040	
5197	0	31108	
5198	0	31136	
5199	0	31136	
5200	0	31140	
5201	0	31152	
5202	0	31156	
5203	0	31160	
5204	0	31184	
5205	0	31224	
5206	0	31240	
5207	0	31280	
5208	0	31312	
5209	0	31356	
5210	0	31376	
5211	0	31336	
5212	0	31208	
5213	0	30996	
5214	0	30724	
5215	0	30404	
5216	0	30020	
5217	0	29633	
5218	0	29368	
5219	0	29196	
5220	0	29196	
5221	0	29420	
5222	0	29824	
5223	0	30272	
5224	0	30688	
5225	0	31140	
5226	0	31696	
5227	0	32308	
5228	0	32840	
5229	0	33264	
5230	0	33644	
5231	0	34032	
5232	0	34364	
5233	0	34824	
5234	0	35552	
5235	0	36524	
5236	0	37692	
5237	0	39116	
5238	0	40860	
5239	0	42688	
5240	0	44772	
5241	0	47296	
5242	0	50096	
5243	0	53032	
5244	0	55536	
5245	0	57280	
5246	0	58560	
5247	0	59688	
5248	0	60760	
5249	0	61600	
5250	0	62148	
5251	0	62252	
5252	0	61660	
5253	0	60416	
5254	0	58796	
5255	0	57000	
5256	0	54760	
5257	0	52184	
5258	0	49544	
5259	0	47048	
5260	0	44544	
5261	0	42044	
5262	0	39328	
5263	0	36420	
5264	0	33648	
5265	0	31178	
5266	0	28932	
5267	0	26824	
5268	0	24728	
5269	0	22848	
5270	0	21322	
5271	0	20160	
5272	0	19280	
5273	0	18608	
5274	0	18114	
5275	0	17628	
5276	0	17104	
5277	0	16628	
5278	0	16204	
5279	0	15856	
5280	0	15652	
5281	0	15596	
5282	0	15612	
5283	0	15844	
5284	0	16226	
5285	0	16813	
5286	0	17594	
5287	0	18524	
5288	0	19556	
5289	0	20520	
5290	0	21442	
5291	0	22496	
5292	0	23636	
5293	0	24788	
5294	0	25828	
5295	0	26696	
5296	0	27412	
5297	0	28036	
5298	0	28568	
5299	0	29024	
5300	0	29396	
5301	0	29704	
5302	0	29964	
5303	0	30252	
5304	0	30524	
5305	0	30752	
5306	0	30904	
5307	0	31008	
5308	0	31104	
5309	0	31192	
5310	0	31236	
5311	0	31308	
5312	0	31368	
5313	0	31442	
5314	0	31532	
5315	0	31636	
5316	0	31752	
5317	0	31836	
5318	0	31920	
5319	0	31972	
5320	0	32056	
5321	0	32144	
5322	0	32212	
5323	0	32268	
5324	0	32340	
5325	0	32416	
5326	0	32512	
5327	0	32564	
5328	0	32592	
5329	0	32632	
5330	0	32712	
5331	0	32788	
5332	0	32848	
5333	0	32912	
5334	0	32960	
5335	0	32992	
5336	0	33016	
5337	0	33032	
5338	0	33048	
5339	0	33060	
5340	0	33124	
5341	0	33152	
5342	0	33196	
5343	0	33224	
5344	0	33284	
5345	0	33332	
5346	0	33388	
5347	0	33420	
5348	0	33458	
5349	0	33498	
5350	0	33532	
5351	0	33554	
5352	0	33596	
5353	0	33652	
5354	0	33688	
5355	0	33740	
5356	0	33784	
5357	0	33816	
5358	0	33864	
5359	0	33864	
5360	0	33888	
5361	0	33920	
5362	0	33968	
5363	0	34016	
5364	0	34056	
5365	0	34108	
5366	0	34144	
5367	0	34190	
5368	0	34228	
5369	0	34256	
5370	0	34300	
5371	0	34368	
5372	0	34420	
5373	0	34432	
5374	0	34464	
5375	0	34508	
5376	0	34560	
5377	0	34608	
5378	0	34656	
5379	0	34712	
5380	0	34772	
5381	0	34798	
5382	0	34816	
5383	0	34832	
5384	0	34886	
5385	0	34932	
5386	0	35024	
5387	0	35084	
5388	0	35100	
5389	0	35136	
5390	0	35204	
5391	0	35252	
5392	0	35276	
5393	0	35340	
5394	0	35372	
5395	0	35464	
5396	0	35532	
5397	0	35596	
5398	0	35656	
5399	0	35712	
5400	0	35728	
5401	0	35768	
5402	0	35836	
5403	0	35876	
5404	0	35920	
5405	0	36028	
5406	0	36116	
5407	0	36192	
5408	0	36256	
5409	0	36312	
5410	0	36368	
5411	0	36420	
5412	0	36452	
5413	0	36520	
5414	0	36624	
5415	0	36676	
5416	0	36712	
5417	0	36768	
5418	0	36836	
5419	0	36916	
5420	0	36980	
5421	0	37016	
5422	0	37076	
5423	0	37176	
5424	0	37256	
5425	0	37324	
5426	0	37384	
5427	0	37460	
5428	0	37500	
5429	0	37568	
5430	0	37624	
5431	0	37684	
5432	0	37744	
5433	0	37832	
5434	0	37896	
5435	0	37928	
5436	0	38036	
5437	0	38132	
5438	0	38184	
5439	0	38224	
5440	0	38280	
5441	0	38304	
5442	0	38332	
5443	0	38404	
5444	0	38456	
5445	0	38524	
5446	0	38556	
5447	0	38592	
5448	0	38652	
5449	0	38704	
5450	0	38756	
5451	0	38772	
5452	0	38784	
5453	0	38816	
5454	0	38860	
5455	0	38884	
5456	0	38884	
5457	0	38888	
5458	0	38900	
5459	0	38920	
5460	0	38948	
5461	0	38956	
5462	0	38952	
5463	0	38960	
5464	0	39008	
5465	0	39032	
5466	0	39052	
5467	0	39060	
5468	0	39052	
5469	0	39048	
5470	0	39012	
5471	0	38992	
5472	0	39008	
5473	0	39028	
5474	0	39020	
5475	0	39012	
5476	0	38988	
5477	0	38940	
5478	0	38880	
5479	0	38820	
5480	0	38784	
5481	0	38752	
5482	0	38696	
5483	0	38652	
5484	0	38580	
5485	0	38496	
5486	0	38448	
5487	0	38368	
5488	0	38268	
5489	0	38144	
5490	0	38068	
5491	0	37944	
5492	0	37824	
5493	0	37692	
5494	0	37508	
5495	0	37316	
5496	0	37160	
5497	0	37020	
5498	0	36850	
5499	0	36700	
5500	0	36508	
5501	0	36324	
5502	0	36152	
5503	0	35992	
5504	0	35816	
5505	0	35616	
5506	0	35424	
5507	0	35256	
5508	0	35104	
5509	0	34948	
5510	0	34776	
5511	0	34580	
5512	0	34368	
5513	0	34156	
5514	0	33944	
5515	0	33756	
5516	0	33592	
5517	0	33404	
5518	0	33236	
5519	0	33080	
5520	0	32882	
5521	0	32692	
5522	0	32512	
5523	0	32372	
5524	0	32204	
5525	0	32048	
5526	0	31884	
5527	0	31740	
5528	0	31596	
5529	0	31436	
5530	0	31248	
5531	0	31132	
5532	0	31040	
5533	0	30904	
5534	0	30788	
5535	0	30660	
5536	0	30552	
5537	0	30456	
5538	0	30348	
5539	0	30234	
5540	0	30132	
5541	0	30032	
5542	0	29924	
5543	0	29876	
5544	0	29848	
5545	0	29792	
5546	0	29688	
5547	0	29624	
5548	0	29512	
5549	0	29444	
5550	0	29452	
5551	0	29440	
5552	0	29434	
5553	0	29416	
5554	0	29376	
5555	0	29352	
5556	0	29322	
5557	0	29288	
5558	0	29256	
5559	0	29248	
5560	0	29264	
5561	0	29284	
5562	0	29288	
5563	0	29284	
5564	0	29256	
5565	0	29236	
5566	0	29256	
5567	0	29316	
5568	0	29348	
5569	0	29352	
5570	0	29368	
5571	0	29304	
5572	0	29304	
5573	0	29364	
5574	0	29380	
5575	0	29418	
5576	0	29408	
5577	0	29402	
5578	0	29428	
5579	0	29464	
5580	0	29466	
5581	0	29488	
5582	0	29526	
5583	0	29560	
5584	0	29608	
5585	0	29620	
5586	0	29652	
5587	0	29700	
5588	0	29720	
5589	0	29724	
5590	0	29728	
5591	0	29736	
5592	0	29784	
5593	0	29844	
5594	0	29904	
5595	0	29952	
5596	0	29936	
5597	0	29956	
5598	0	29980	
5599	0	29984	
5600	0	29984	
5601	0	30004	
5602	0	30020	
5603	0	30052	
5604	0	30080	
5605	0	30104	
5606	0	30132	
5607	0	30152	
5608	0	30176	
5609	0	30220	
5610	0	30268	
5611	0	30312	
5612	0	30360	
5613	0	30376	
5614	0	30384	
5615	0	30400	
5616	0	30428	
5617	0	30464	
5618	0	30530	
5619	0	30552	
5620	0	30544	
5621	0	30544	
5622	0	30564	
5623	0	30596	
5624	0	30624	
5625	0	30648	
5626	0	30624	
5627	0	30632	
5628	0	30656	
5629	0	30690	
5630	0	30740	
5631	0	30792	
5632	0	30816	
5633	0	30816	
5634	0	30804	
5635	0	30868	
5636	0	30948	
5637	0	30976	
5638	0	30968	
5639	0	30940	
5640	0	30920	
5641	0	30936	
5642	0	30968	
5643	0	31004	
5644	0	31012	
5645	0	31022	
5646	0	31020	
5647	0	31016	
5648	0	31008	
5649	0	31000	
5650	0	31016	
5651	0	31004	
5652	0	30992	
5653	0	31024	
5654	0	31072	
5655	0	31088	
5656	0	31072	
5657	0	31068	
5658	0	31080	
5659	0	31122	
5660	0	31132	
5661	0	31144	
5662	0	31176	
5663	0	31204	
5664	0	31192	
5665	0	31164	
5666	0	31184	
5667	0	31212	
5668	0	31232	
5669	0	31226	
5670	0	31240	
5671	0	31256	
5672	0	31248	
5673	0	31252	
5674	0	31264	
5675	0	31242	
5676	0	31224	
5677	0	31232	
5678	0	31232	
5679	0	31196	
5680	0	31196	
5681	0	31188	
5682	0	31168	
5683	0	31160	
5684	0	31156	
5685	0	31140	
5686	0	31164	
5687	0	31180	
5688	0	31192	
5689	0	31184	
5690	0	31200	
5691	0	31200	
5692	0	31188	
5693	0	31188	
5694	0	31196	
5695	0	31196	
5696	0	31200	
5697	0	31220	
5698	0	31224	
5699	0	31208	
5700	0	31193	
5701	0	31184	
5702	0	31182	
5703	0	31184	
5704	0	31200	
5705	0	31212	
5706	0	31208	
5707	0	31216	
5708	0	31224	
5709	0	31252	
5710	0	31292	
5711	0	31300	
5712	0	31264	
5713	0	31232	
5714	0	31220	
5715	0	31216	
5716	0	31240	
5717	0	31256	
5718	0	31264	
5719	0	31272	
5720	0	31280	
5721	0	31264	
5722	0	31284	
5723	0	31296	
5724	0	31288	
5725	0	31288	
5726	0	31300	
5727	0	31312	
5728	0	31324	
5729	0	31336	
5730	0	31346	
5731	0	31360	
5732	0	31378	
5733	0	31416	
5734	0	31448	
5735	0	31464	
5736	0	31464	
5737	0	31448	
5738	0	31452	
5739	0	31472	
5740	0	31504	
5741	0	31504	
5742	0	31508	
5743	0	31516	
5744	0	31520	
5745	0	31516	
5746	0	31522	
5747	0	31512	
5748	0	31544	
5749	0	31556	
5750	0	31564	
5751	0	31576	
5752	0	31564	
5753	0	31584	
5754	0	31612	
5755	0	31644	
5756	0	31666	
5757	0	31664	
5758	0	31656	
5759	0	31648	
5760	0	31664	
5761	0	31676	
5762	0	31688	
5763	0	31716	
5764	0	31724	
5765	0	31728	
5766	0	31744	
5767	0	31744	
5768	0	31744	
5769	0	31772	
5770	0	31796	
5771	0	31808	
5772	0	31796	
5773	0	31756	
5774	0	31754	
5775	0	31748	
5776	0	31748	
5777	0	31788	
5778	0	31796	
5779	0	31804	
5780	0	31868	
5781	0	31904	
5782	0	31928	
5783	0	31940	
5784	0	31896	
5785	0	31868	
5786	0	31864	
5787	0	31880	
5788	0	31884	
5789	0	31888	
5790	0	31896	
5791	0	31948	
5792	0	32016	
5793	0	32064	
5794	0	32076	
5795	0	32116	
5796	0	32184	
5797	0	32252	
5798	0	32276	
5799	0	32296	
5800	0	32300	
5801	0	32320	
5802	0	32360	
5803	0	32410	
5804	0	32468	
5805	0	32540	
5806	0	32592	
5807	0	32688	
5808	0	32758	
5809	0	32816	
5810	0	32832	
5811	0	32856	
5812	0	32916	
5813	0	32972	
5814	0	33016	
5815	0	33092	
5816	0	33168	
5817	0	33232	
5818	0	33296	
5819	0	33368	
5820	0	33384	
5821	0	33336	
5822	0	33308	
5823	0	33324	
5824	0	33364	
5825	0	33476	
5826	0	33634	
5827	0	33796	
5828	0	33920	
5829	0	34008	
5830	0	34044	
5831	0	34044	
5832	0	34048	
5833	0	34080	
5834	0	34148	
5835	0	34240	
5836	0	34336	
5837	0	34416	
5838	0	34488	
5839	0	34572	
5840	0	34656	
5841	0	34752	
5842	0	34836	
5843	0	34904	
5844	0	34956	
5845	0	35000	
5846	0	35048	
5847	0	35080	
5848	0	35064	
5849	0	35044	
5850	0	35000	
5851	0	34932	
5852	0	34888	
5853	0	34856	
5854	0	34824	
5855	0	34776	
5856	0	34692	
5857	0	34596	
5858	0	34480	
5859	0	34360	
5860	0	34208	
5861	0	34016	
5862	0	33832	
5863	0	33680	
5864	0	33528	
5865	0	33368	
5866	0	33216	
5867	0	33064	
5868	0	32884	
5869	0	32696	
5870	0	32576	
5871	0	32504	
5872	0	32452	
5873	0	32384	
5874	0	32344	
5875	0	32308	
5876	0	32264	
5877	0	32210	
5878	0	32140	
5879	0	32056	
5880	0	31970	
5881	0	31904	
5882	0	31868	
5883	0	31848	
5884	0	31812	
5885	0	31736	
5886	0	31674	
5887	0	31592	
5888	0	31540	
5889	0	31476	
5890	0	31380	
5891	0	31272	
5892	0	31140	
5893	0	31072	
5894	0	31024	
5895	0	30992	
5896	0	30944	
5897	0	30896	
5898	0	30876	
5899	0	30866	
5900	0	30876	
5901	0	30884	
5902	0	30912	
5903	0	30940	
5904	0	30956	
5905	0	30970	
5906	0	31000	
5907	0	31028	
5908	0	31044	
5909	0	31044	
5910	0	31064	
5911	0	31064	
5912	0	31080	
5913	0	31104	
5914	0	31128	
5915	0	31112	
5916	0	31088	
5917	0	31070	
5918	0	31068	
5919	0	31084	
5920	0	31092	
5921	0	31120	
5922	0	31128	
5923	0	31104	
5924	0	31112	
5925	0	31128	
5926	0	31160	
5927	0	31156	
5928	0	31152	
5929	0	31132	
5930	0	31162	
5931	0	31216	
5932	0	31244	
5933	0	31268	
5934	0	31306	
5935	0	31324	
5936	0	31320	
5937	0	31320	
5938	0	31330	
5939	0	31308	
5940	0	31312	
5941	0	31336	
5942	0	31356	
5943	0	31396	
5944	0	31440	
5945	0	31484	
5946	0	31504	
5947	0	31520	
5948	0	31520	
5949	0	31552	
5950	0	31596	
5951	0	31608	
5952	0	31604	
5953	0	31500	
5954	0	31296	
5955	0	31024	
5956	0	30680	
5957	0	30288	
5958	0	29924	
5959	0	29660	
5960	0	29512	
5961	0	29516	
5962	0	29704	
5963	0	30056	
5964	0	30472	
5965	0	30864	
5966	0	31282	
5967	0	31788	
5968	0	32380	
5969	0	32896	
5970	0	33276	
5971	0	33568	
5972	0	33900	
5973	0	34188	
5974	0	34544	
5975	0	35196	
5976	0	36100	
5977	0	37212	
5978	0	38596	
5979	0	40324	
5980	0	42172	
5981	0	44216	
5982	0	46712	
5983	0	49516	
5984	0	52428	
5985	0	54948	
5986	0	56808	
5987	0	58156	
5988	0	59368	
5989	0	60512	
5990	0	61388	
5991	0	61916	
5992	0	61984	
5993	0	61384	
5994	0	60232	
5995	0	58720	
5996	0	56980	
5997	0	54876	
5998	0	52400	
5999	0	49836	
6000	0	47408	
6001	0	45040	
6002	0	42644	
6003	0	40128	
6004	0	37388	
6005	0	34690	
6006	0	32176	
6007	0	29888	
6008	0	27792	
6009	0	25700	
6010	0	23768	
6011	0	22234	
6012	0	21072	
6013	0	20128	
6014	0	19392	
6015	0	18860	
6016	0	18360	
6017	0	17824	
6018	0	17298	
6019	0	16826	
6020	0	16432	
6021	0	16164	
6022	0	16029	
6023	0	16004	
6024	0	16160	
6025	0	16508	
6026	0	17006	
6027	0	17746	
6028	0	18592	
6029	0	19552	
6030	0	20524	
6031	0	21452	
6032	0	22454	
6033	0	23568	
6034	0	24736	
6035	0	25782	
6036	0	26648	
6037	0	27372	
6038	0	27982	
6039	0	28512	
6040	0	28984	
6041	0	29424	
6042	0	29768	
6043	0	30078	
6044	0	30356	
6045	0	30614	
6046	0	30832	
6047	0	31008	
6048	0	31136	
6049	0	31224	
6050	0	31280	
6051	0	31344	
6052	0	31404	
6053	0	31456	
6054	0	31540	
6055	0	31604	
6056	0	31708	
6057	0	31800	
6058	0	31876	
6059	0	31960	
6060	0	32048	
6061	0	32112	
6062	0	32176	
6063	0	32248	
6064	0	32336	
6065	0	32444	
6066	0	32538	
6067	0	32592	
6068	0	32660	
6069	0	32720	
6070	0	32820	
6071	0	32910	
6072	0	32940	
6073	0	32976	
6074	0	33024	
6075	0	33052	
6076	0	33092	
6077	0	33112	
6078	0	33160	
6079	0	33192	
6080	0	33216	
6081	0	33208	
6082	0	33216	
6083	0	33252	
6084	0	33300	
6085	0	33344	
6086	0	33382	
6087	0	33424	
6088	0	33460	
6089	0	33512	
6090	0	33560	
6091	0	33588	
6092	0	33576	
6093	0	33602	
6094	0	33612	
6095	0	33652	
6096	0	33696	
6097	0	33716	
6098	0	33736	
6099	0	33804	
6100	0	33892	
6101	0	33936	
6102	0	34004	
6103	0	34064	
6104	0	34104	
6105	0	34132	
6106	0	34184	
6107	0	34248	
6108	0	34300	
6109	0	34348	
6110	0	34364	
6111	0	34400	
6112	0	34460	
6113	0	34530	
6114	0	34584	
6115	0	34612	
6116	0	34650	
6117	0	34648	
6118	0	34648	
6119	0	34692	
6120	0	34748	
6121	0	34828	
6122	0	34884	
6123	0	34924	
6124	0	34972	
6125	0	35024	
6126	0	35056	
6127	0	35092	
6128	0	35128	
6129	0	35144	
6130	0	35180	
6131	0	35208	
6132	0	35240	
6133	0	35268	
6134	0	35290	
6135	0	35360	
6136	0	35424	
6137	0	35500	
6138	0	35572	
6139	0	35632	
6140	0	35712	
6141	0	35764	
6142	0	35832	
6143	0	35904	
6144	0	35960	
6145	0	35976	
6146	0	36028	
6147	0	36116	
6148	0	36192	
6149	0	36256	
6150	0	36320	
6151	0	36364	
6152	0	36368	
6153	0	36456	
6154	0	36540	
6155	0	36632	
6156	0	36708	
6157	0	36756	
6158	0	36812	
6159	0	36890	
6160	0	37016	
6161	0	37092	
6162	0	37116	
6163	0	37168	
6164	0	37208	
6165	0	37256	
6166	0	37292	
6167	0	37360	
6168	0	37436	
6169	0	37528	
6170	0	37584	
6171	0	37652	
6172	0	37688	
6173	0	37712	
6174	0	37744	
6175	0	37792	
6176	0	37868	
6177	0	37940	
6178	0	38000	
6179	0	38080	
6180	0	38156	
6181	0	38200	
6182	0	38264	
6183	0	38320	
6184	0	38356	
6185	0	38344	
6186	0	38384	
6187	0	38408	
6188	0	38420	
6189	0	38480	
6190	0	38552	
6191	0	38596	
6192	0	38638	
6193	0	38680	
6194	0	38696	
6195	0	38712	
6196	0	38744	
6197	0	38792	
6198	0	38820	
6199	0	38832	
6200	0	38820	
6201	0	38824	
6202	0	38856	
6203	0	38912	
6204	0	38928	
6205	0	38904	
6206	0	38880	
6207	0	38912	
6208	0	38944	
6209	0	38940	
6210	0	38976	
6211	0	38988	
6212	0	39008	
6213	0	38968	
6214	0	38932	
6215	0	38932	
6216	0	38912	
6217	0	38892	
6218	0	38864	
6219	0	38848	
6220	0	38808	
6221	0	38788	
6222	0	38748	
6223	0	38664	
6224	0	38636	
6225	0	38592	
6226	0	38576	
6227	0	38520	
6228	0	38448	
6229	0	38324	
6230	0	38184	
6231	0	38080	
6232	0	38000	
6233	0	37904	
6234	0	37804	
6235	0	37684	
6236	0	37576	
6237	0	37428	
6238	0	37268	
6239	0	37096	
6240	0	36912	
6241	0	36716	
6242	0	36528	
6243	0	36340	
6244	0	36170	
6245	0	35980	
6246	0	35800	
6247	0	35608	
6248	0	35444	
6249	0	35252	
6250	0	35052	
6251	0	34856	
6252	0	34660	
6253	0	34524	
6254	0	34412	
6255	0	34268	
6256	0	34072	
6257	0	33900	
6258	0	33748	
6259	0	33560	
6260	0	33408	
6261	0	33288	
6262	0	33136	
6263	0	32944	
6264	0	32738	
6265	0	32576	
6266	0	32428	
6267	0	32268	
6268	0	32136	
6269	0	31992	
6270	0	31816	
6271	0	31668	
6272	0	31544	
6273	0	31436	
6274	0	31310	
6275	0	31148	
6276	0	30972	
6277	0	30824	
6278	0	30708	
6279	0	30592	
6280	0	30476	
6281	0	30326	
6282	0	30180	
6283	0	30064	
6284	0	29952	
6285	0	29852	
6286	0	29768	
6287	0	29712	
6288	0	29656	
6289	0	29572	
6290	0	29504	
6291	0	29424	
6292	0	29360	
6293	0	29308	
6294	0	29296	
6295	0	29288	
6296	0	29288	
6297	0	29216	
6298	0	29196	
6299	0	29184	
6300	0	29172	
6301	0	29156	
6302	0	29168	
6303	0	29196	
6304	0	29228	
6305	0	29216	
6306	0	29216	
6307	0	29160	
6308	0	29112	
6309	0	29094	
6310	0	29064	
6311	0	29056	
6312	0	29056	
6313	0	29072	
6314	0	29084	
6315	0	29108	
6316	0	29152	
6317	0	29196	
6318	0	29176	
6319	0	29140	
6320	0	29136	
6321	0	29144	
6322	0	29168	
6323	0	29200	
6324	0	29232	
6325	0	29256	
6326	0	29300	
6327	0	29328	
6328	0	29328	
6329	0	29310	
6330	0	29288	
6331	0	29296	
6332	0	29336	
6333	0	29392	
6334	0	29428	
6335	0	29436	
6336	0	29412	
6337	0	29368	
6338	0	29384	
6339	0	29464	
6340	0	29516	
6341	0	29572	
6342	0	29632	
6343	0	29696	
6344	0	29716	
6345	0	29746	
6346	0	29768	
6347	0	29820	
6348	0	29860	
6349	0	29876	
6350	0	29904	
6351	0	29944	
6352	0	29968	
6353	0	29964	
6354	0	29976	
6355	0	29980	
6356	0	29994	
6357	0	30009	
6358	0	30060	
6359	0	30084	
6360	0	30076	
6361	0	30092	
6362	0	30080	
6363	0	30084	
6364	0	30146	
6365	0	30180	
6366	0	30144	
6367	0	30132	
6368	0	30124	
6369	0	30128	
6370	0	30168	
6371	0	30240	
6372	0	30272	
6373	0	30280	
6374	0	30318	
6375	0	30408	
6376	0	30450	
6377	0	30436	
6378	0	30408	
6379	0	30388	
6380	0	30400	
6381	0	30436	
6382	0	30474	
6383	0	30472	
6384	0	30492	
6385	0	30512	
6386	0	30512	
6387	0	30524	
6388	0	30536	
6389	0	30520	
6390	0	30536	
6391	0	30560	
6392	0	30560	
6393	0	30532	
6394	0	30528	
6395	0	30476	
6396	0	30456	
6397	0	30448	
6398	0	30468	
6399	0	30536	
6400	0	30616	
6401	0	30656	
6402	0	30660	
6403	0	30660	
6404	0	30648	
6405	0	30632	
6406	0	30656	
6407	0	30692	
6408	0	30708	
6409	0	30708	
6410	0	30712	
6411	0	30688	
6412	0	30640	
6413	0	30548	
6414	0	30520	
6415	0	30520	
6416	0	30504	
6417	0	30476	
6418	0	30448	
6419	0	30444	
6420	0	30460	
6421	0	30452	
6422	0	30460	
6423	0	30488	
6424	0	30541	
6425	0	30572	
6426	0	30600	
6427	0	30596	
6428	0	30636	
6429	0	30648	
6430	0	30624	
6431	0	30614	
6432	0	30608	
6433	0	30616	
6434	0	30644	
6435	0	30656	
6436	0	30676	
6437	0	30680	
6438	0	30684	
6439	0	30708	
6440	0	30730	
6441	0	30768	
6442	0	30780	
6443	0	30756	
6444	0	30756	
6445	0	30740	
6446	0	30732	
6447	0	30720	
6448	0	30726	
6449	0	30704	
6450	0	30692	
6451	0	30712	
6452	0	30764	
6453	0	30808	
6454	0	30832	
6455	0	30856	
6456	0	30840	
6457	0	30836	
6458	0	30852	
6459	0	30884	
6460	0	30896	
6461	0	30888	
6462	0	30844	
6463	0	30872	
6464	0	30908	
6465	0	30916	
6466	0	30904	
6467	0	30892	
6468	0	30936	
6469	0	30964	
6470	0	30968	
6471	0	30940	
6472	0	30944	
6473	0	30940	
6474	0	30938	
6475	0	30944	
6476	0	30946	
6477	0	30964	
6478	0	30972	
6479	0	30960	
6480	0	30936	
6481	0	30944	
6482	0	30960	
6483	0	31002	
6484	0	31068	
6485	0	31176	
6486	0	31264	
6487	0	31284	
6488	0	31298	
6489	0	31328	
6490	0	31356	
6491	0	31384	
6492	0	31380	
6493	0	31364	
6494	0	31352	
6495	0	31312	
6496	0	31258	
6497	0	31236	
6498	0	31192	
6499	0	31180	
6500	0	31212	
6501	0	31256	
6502	0	31320	
6503	0	31396	
6504	0	31452	
6505	0	31508	
6506	0	31504	
6507	0	31516	
6508	0	31538	
6509	0	31520	
6510	0	31496	
6511	0	31468	
6512	0	31460	
6513	0	31474	
6514	0	31480	
6515	0	31500	
6516	0	31552	
6517	0	31604	
6518	0	31616	
6519	0	31644	
6520	0	31616	
6521	0	31594	
6522	0	31600	
6523	0	31584	
6524	0	31528	
6525	0	31480	
6526	0	31440	
6527	0	31432	
6528	0	31456	
6529	0	31472	
6530	0	31498	
6531	0	31536	
6532	0	31556	
6533	0	31564	
6534	0	31586	
6535	0	31620	
6536	0	31676	
6537	0	31736	
6538	0	31788	
6539	0	31804	
6540	0	31776	
6541	0	31728	
6542	0	31732	
6543	0	31748	
6544	0	31748	
6545	0	31728	
6546	0	31740	
6547	0	31796	
6548	0	31868	
6549	0	31940	
6550	0	31984	
6551	0	32032	
6552	0	32068	
6553	0	32056	
6554	0	32052	
6555	0	32056	
6556	0	32012	
6557	0	31972	
6558	0	32032	
6559	0	32164	
6560	0	32244	
6561	0	32282	
6562	0	32308	
6563	0	32356	
6564	0	32418	
6565	0	32448	
6566	0	32504	
6567	0	32536	
6568	0	32568	
6569	0	32640	
6570	0	32720	
6571	0	32824	
6572	0	32956	
6573	0	33064	
6574	0	33140	
6575	0	33220	
6576	0	33248	
6577	0	33228	
6578	0	33168	
6579	0	33140	
6580	0	33160	
6581	0	33220	
6582	0	33284	
6583	0	33352	
6584	0	33428	
6585	0	33492	
6586	0	33564	
6587	0	33648	
6588	0	33736	
6589	0	33804	
6590	0	33892	
6591	0	34048	
6592	0	34172	
6593	0	34264	
6594	0	34376	
6595	0	34460	
6596	0	34532	
6597	0	34664	
6598	0	34816	
6599	0	34912	
6600	0	34976	
6601	0	34984	
6602	0	35044	
6603	0	35104	
6604	0	35116	
6605	0	35140	
6606	0	35156	
6607	0	35068	
6608	0	34932	
6609	0	34824	
6610	0	34744	
6611	0	34676	
6612	0	34584	
6613	0	34484	
6614	0	34384	
6615	0	34264	
6616	0	34140	
6617	0	33992	
6618	0	33848	
6619	0	33692	
6620	0	33536	
6621	0	33372	
6622	0	33216	
6623	0	33044	
6624	0	32868	
6625	0	32724	
6626	0	32644	
6627	0	32548	
6628	0	32484	
6629	0	32464	
6630	0	32432	
6631	0	32416	
6632	0	32352	
6633	0	32268	
6634	0	32242	
6635	0	32152	
6636	0	32040	
6637	0	31952	
6638	0	31950	
6639	0	31924	
6640	0	31896	
6641	0	31820	
6642	0	31760	
6643	0	31712	
6644	0	31604	
6645	0	31514	
6646	0	31472	
6647	0	31408	
6648	0	31288	
6649	0	31168	
6650	0	31116	
6651	0	31084	
6652	0	31104	
6653	0	31108	
6654	0	31092	
6655	0	31100	
6656	0	31106	
6657	0	31136	
6658	0	31132	
6659	0	31096	
6660	0	31080	
6661	0	31048	
6662	0	31008	
6663	0	30966	
6664	0	30992	
6665	0	31044	
6666	0	31088	
6667	0	31128	
6668	0	31156	
6669	0	31136	
6670	0	31120	
6671	0	31140	
6672	0	31148	
6673	0	31196	
6674	0	31276	
6675	0	31328	
6676	0	31344	
6677	0	31348	
6678	0	31364	
6679	0	31340	
6680	0	31312	
6681	0	31288	
6682	0	31312	
6683	0	31372	
6684	0	31392	
6685	0	31380	
6686	0	31420	
6687	0	31436	
6688	0	31388	
6689	0	31348	
6690	0	31348	
6691	0	31352	
6692	0	31380	
6693	0	31380	
6694	0	31376	
6695	0	31416	
6696	0	31484	
6697	0	31528	
6698	0	31604	
6699	0	31644	
6700	0	31660	
6701	0	31664	
6702	0	31706	
6703	0	31736	
6704	0	31772	
6705	0	31776	
6706	0	31760	
6707	0	31756	
6708	0	31732	
6709	0	31688	
6710	0	31568	
6711	0	31296	
6712	0	30992	
6713	0	30594	
6714	0	30148	
6715	0	29780	
6716	0	29528	
6717	0	29420	
6718	0	29436	
6719	0	29624	
6720	0	29912	
6721	0	30184	
6722	0	30464	
6723	0	30810	
6724	0	31216	
6725	0	31624	
6726	0	31948	
6727	0	32200	
6728	0	32524	
6729	0	32740	
6730	0	33002	
6731	0	33476	
6732	0	34240	
6733	0	35304	
6734	0	36664	
6735	0	38424	
6736	0	40472	
6737	0	42698	
6738	0	45216	
6739	0	48116	
6740	0	51248	
6741	0	54000	
6742	0	56144	
6743	0	58000	
6744	0	59808	
6745	0	61528	
6746	0	62928	
6747	0	63920	
6748	0	64432	
6749	0	64212	
6750	0	63276	
6751	0	61820	
6752	0	60096	
6753	0	58100	
6754	0	55824	
6755	0	53472	
6756	0	51040	
6757	0	48452	
6758	0	45752	
6759	0	42928	
6760	0	39888	
6761	0	36852	
6762	0	33884	
6763	0	31024	
6764	0	28328	
6765	0	25956	
6766	0	23952	
6767	0	22256	
6768	0	20784	
6769	0	19604	
6770	0	18776	
6771	0	18184	
6772	0	17688	
6773	0	17224	
6774	0	16872	
6775	0	16608	
6776	0	16424	
6777	0	16320	
6778	0	16264	
6779	0	16316	
6780	0	16452	
6781	0	16562	
6782	0	16708	
6783	0	16996	
6784	0	17502	
6785	0	18194	
6786	0	18976	
6787	0	19808	
6788	0	20668	
6789	0	21529	
6790	0	22392	
6791	0	23292	
6792	0	24268	
6793	0	25312	
6794	0	26304	
6795	0	27148	
6796	0	27892	
6797	0	28584	
6798	0	29136	
6799	0	29632	
6800	0	30064	
6801	0	30368	
6802	0	30602	
6803	0	30844	
6804	0	31096	
6805	0	31356	
6806	0	31544	
6807	0	31736	
6808	0	31908	
6809	0	32048	
6810	0	32124	
6811	0	32138	
6812	0	32160	
6813	0	32186	
6814	0	32272	
6815	0	32344	
6816	0	32408	
6817	0	32472	
6818	0	32518	
6819	0	32568	
6820	0	32604	
6821	0	32692	
6822	0	32784	
6823	0	32848	
6824	0	32912	
6825	0	32984	
6826	0	33045	
6827	0	33112	
6828	0	33164	
6829	0	33244	
6830	0	33304	
6831	0	33352	
6832	0	33424	
6833	0	33452	
6834	0	33480	
6835	0	33516	
6836	0	33512	
6837	0	33536	
6838	0	33584	
6839	0	33616	
6840	0	33656	
6841	0	33688	
6842	0	33728	
6843	0	33764	
6844	0	33828	
6845	0	33908	
6846	0	33968	
6847	0	33986	
6848	0	34000	
6849	0	34036	
6850	0	34028	
6851	0	34032	
6852	0	34080	
6853	0	34112	
6854	0	34106	
6855	0	34140	
6856	0	34176	
6857	0	34200	
6858	0	34232	
6859	0	34272	
6860	0	34324	
6861	0	34356	
6862	0	34416	
6863	0	34432	
6864	0	34512	
6865	0	34572	
6866	0	34608	
6867	0	34648	
6868	0	34684	
6869	0	34708	
6870	0	34736	
6871	0	34764	
6872	0	34828	
6873	0	34872	
6874	0	34888	
6875	0	34888	
6876	0	34900	
6877	0	34908	
6878	0	34944	
6879	0	34992	
6880	0	35024	
6881	0	35056	
6882	0	35096	
6883	0	35120	
6884	0	35180	
6885	0	35234	
6886	0	35300	
6887	0	35308	
6888	0	35320	
6889	0	35384	
6890	0	35412	
6891	0	35440	
6892	0	35488	
6893	0	35548	
6894	0	35604	
6895	0	35652	
6896	0	35696	
6897	0	35736	
6898	0	35772	
6899	0	35824	
6900	0	35864	
6901	0	35864	
6902	0	35880	
6903	0	35966	
6904	0	36068	
6905	0	36152	
6906	0	36212	
6907	0	36268	
6908	0	36308	
6909	0	36360	
6910	0	36384	
6911	0	36378	
6912	0	36368	
6913	0	36416	
6914	0	36484	
6915	0	36552	
6916	0	36608	
6917	0	36680	
6918	0	36736	
6919	0	36800	
6920	0	36852	
6921	0	36916	
6922	0	36980	
6923	0	37024	
6924	0	37072	
6925	0	37088	
6926	0	37114	
6927	0	37148	
6928	0	37204	
6929	0	37242	
6930	0	37312	
6931	0	37408	
6932	0	37484	
6933	0	37500	
6934	0	37496	
6935	0	37516	
6936	0	37556	
6937	0	37604	
6938	0	37616	
6939	0	37624	
6940	0	37620	
6941	0	37664	
6942	0	37748	
6943	0	37840	
6944	0	37884	
6945	0	37928	
6946	0	37984	
6947	0	38016	
6948	0	38048	
6949	0	38100	
6950	0	38152	
6951	0	38176	
6952	0	38168	
6953	0	38136	
6954	0	38128	
6955	0	38104	
6956	0	38084	
6957	0	38096	
6958	0	38132	
6959	0	38160	
6960	0	38144	
6961	0	38136	
6962	0	38132	
6963	0	38132	
6964	0	38132	
6965	0	38136	
6966	0	38160	
6967	0	38188	
6968	0	38212	
6969	0	38188	
6970	0	38116	
6971	0	38060	
6972	0	38024	
6973	0	37980	
6974	0	37964	
6975	0	37972	
6976	0	37956	
6977	0	37908	
6978	0	37844	
6979	0	37828	
6980	0	37788	
6981	0	37740	
6982	0	37704	
6983	0	37672	
6984	0	37642	
6985	0	37544	
6986	0	37444	
6987	0	37408	
6988	0	37384	
6989	0	37360	
6990	0	37260	
6991	0	37144	
6992	0	37024	
6993	0	36880	
6994	0	36792	
6995	0	36676	
6996	0	36508	
6997	0	36384	
6998	0	36288	
6999	0	36156	
7000	0	36020	
7001	0	35880	
7002	0	35696	
7003	0	35532	
7004	0	35392	
7005	0	35248	
7006	0	35108	
7007	0	34932	
7008	0	34760	
7009	0	34572	
7010	0	34400	
7011	0	34224	
7012	0	34032	
7013	0	33860	
7014	0	33674	
7015	0	33504	
7016	0	33340	
7017	0	33200	
7018	0	33064	
7019	0	32926	
7020	0	32780	
7021	0	32632	
7022	0	32472	
7023	0	32356	
7024	0	32224	
7025	0	32088	
7026	0	31972	
7027	0	31844	
7028	0	31740	
7029	0	31624	
7030	0	31520	
7031	0	31384	
7032	0	31220	
7033	0	31060	
7034	0	30908	
7035	0	30784	
7036	0	30688	
7037	0	30572	
7038	0	30468	
7039	0	30384	
7040	0	30300	
7041	0	30200	
7042	0	30136	
7043	0	30036	
7044	0	29964	
7045	0	29900	
7046	0	29864	
7047	0	29764	
7048	0	29684	
7049	0	29640	
7050	0	29634	
7051	0	29636	
7052	0	29580	
7053	0	29506	
7054	0	29504	
7055	0	29504	
7056	0	29504	
7057	0	29500	
7058	0	29492	
7059	0	29492	
7060	0	29480	
7061	0	29448	
7062	0	29452	
7063	0	29412	
7064	0	29400	
7065	0	29376	
7066	0	29340	
7067	0	29336	
7068	0	29370	
7069	0	29416	
7070	0	29432	
7071	0	29402	
7072	0	29408	
7073	0	29408	
7074	0	29384	
7075	0	29408	
7076	0	29440	
7077	0	29460	
7078	0	29480	
7079	0	29492	
7080	0	29476	
7081	0	29468	
7082	0	29514	
7083	0	29568	
7084	0	29608	
7085	0	29608	
7086	0	29592	
7087	0	29592	
7088	0	29624	
7089	0	29668	
7090	0	29720	
7091	0	29760	
7092	0	29756	
7093	0	29780	
7094	0	29776	
7095	0	29760	
7096	0	29776	
7097	0	29812	
7098	0	29864	
7099	0	29904	
7100	0	29936	
7101	0	29930	
7102	0	29960	
7103	0	29980	
7104	0	30024	
7105	0	30090	
7106	0	30132	
7107	0	30172	
7108	0	30176	
7109	0	30196	
7110	0	30236	
7111	0	30256	
7112	0	30260	
7113	0	30264	
7114	0	30272	
7115	0	30264	
7116	0	30216	
7117	0	30218	
7118	0	30264	
7119	0	30324	
7120	0	30344	
7121	0	30350	
7122	0	30364	
7123	0	30388	
7124	0	30400	
7125	0	30420	
7126	0	30432	
7127	0	30412	
7128	0	30412	
7129	0	30436	
7130	0	30412	
7131	0	30428	
7132	0	30440	
7133	0	30452	
7134	0	30472	
7135	0	30500	
7136	0	30524	
7137	0	30498	
7138	0	30442	
7139	0	30460	
7140	0	30492	
7141	0	30520	
7142	0	30544	
7143	0	30536	
7144	0	30500	
7145	0	30468	
7146	0	30448	
7147	0	30460	
7148	0	30476	
7149	0	30488	
7150	0	30520	
7151	0	30556	
7152	0	30564	
7153	0	30536	
7154	0	30552	
7155	0	30552	
7156	0	30552	
7157	0	30556	
7158	0	30552	
7159	0	30564	
7160	0	30588	
7161	0	30572	
7162	0	30552	
7163	0	30568	
7164	0	30576	
7165	0	30572	
7166	0	30564	
7167	0	30548	
7168	0	30572	
7169	0	30596	
7170	0	30592	
7171	0	30584	
7172	0	30568	
7173	0	30560	
7174	0	30548	
7175	0	30560	
7176	0	30552	
7177	0	30564	
7178	0	30596	
7179	0	30592	
7180	0	30568	
7181	0	30532	
7182	0	30520	
7183	0	30512	
7184	0	30512	
7185	0	30520	
7186	0	30544	
7187	0	30588	
7188	0	30576	
7189	0	30584	
7190	0	30576	
7191	0	30570	
7192	0	30568	
7193	0	30594	
7194	0	30616	
7195	0	30628	
7196	0	30616	
7197	0	30596	
7198	0	30600	
7199	0	30588	
7200	0	30560	
7201	0	30536	
7202	0	30568	
7203	0	30604	
7204	0	30624	
7205	0	30632	
7206	0	30614	
7207	0	30582	
7208	0	30564	
7209	0	30580	
7210	0	30588	
7211	0	30616	
7212	0	30648	
7213	0	30668	
7214	0	30668	
7215	0	30660	
7216	0	30650	
7217	0	30696	
7218	0	30776	
7219	0	30804	
7220	0	30812	
7221	0	30832	
7222	0	30832	
7223	0	30848	
7224	0	30842	
7225	0	30844	
7226	0	30800	
7227	0	30764	
7228	0	30784	
7229	0	30812	
7230	0	30816	
7231	0	30836	
7232	0	30858	
7233	0	30878	
7234	0	30896	
7235	0	30896	
7236	0	30904	
7237	0	30904	
7238	0	30924	
7239	0	30912	
7240	0	30884	
7241	0	30876	
7242	0	30920	
7243	0	30928	
7244	0	30936	
7245	0	30954	
7246	0	30952	
7247	0	30912	
7248	0	30938	
7249	0	30996	
7250	0	31042	
7251	0	31092	
7252	0	31100	
7253	0	31088	
7254	0	31096	
7255	0	31152	
7256	0	31160	
7257	0	31124	
7258	0	31068	
7259	0	31076	
7260	0	31106	
7261	0	31140	
7262	0	31120	
7263	0	31108	
7264	0	31116	
7265	0	31140	
7266	0	31164	
7267	0	31172	
7268	0	31188	
7269	0	31192	
7270	0	31196	
7271	0	31216	
7272	0	31216	
7273	0	31224	
7274	0	31244	
7275	0	31264	
7276	0	31290	
7277	0	31340	
7278	0	31384	
7279	0	31412	
7280	0	31456	
7281	0	31488	
7282	0	31512	
7283	0	31532	
7284	0	31584	
7285	0	31648	
7286	0	31712	
7287	0	31788	
7288	0	31852	
7289	0	31880	
7290	0	31936	
7291	0	31996	
7292	0	32072	
7293	0	32148	
7294	0	32216	
7295	0	32232	
7296	0	32254	
7297	0	32300	
7298	0	32384	
7299	0	32468	
7300	0	32552	
7301	0	32616	
7302	0	32664	
7303	0	32668	
7304	0	32672	
7305	0	32652	
7306	0	32628	
7307	0	32672	
7308	0	32760	
7309	0	32856	
7310	0	33036	
7311	0	33178	
7312	0	33268	
7313	0	33316	
7314	0	33332	
7315	0	33324	
7316	0	33336	
7317	0	33380	
7318	0	33448	
7319	0	33548	
7320	0	33660	
7321	0	33760	
7322	0	33828	
7323	0	33905	
7324	0	33968	
7325	0	34056	
7326	0	34144	
7327	0	34192	
7328	0	34202	
7329	0	34272	
7330	0	34352	
7331	0	34356	
7332	0	34368	
7333	0	34372	
7334	0	34324	
7335	0	34250	
7336	0	34212	
7337	0	34204	
7338	0	34176	
7339	0	34156	
7340	0	34108	
7341	0	34040	
7342	0	33916	
7343	0	33778	
7344	0	33604	
7345	0	33404	
7346	0	33268	
7347	0	33128	
7348	0	32986	
7349	0	32824	
7350	0	32628	
7351	0	32440	
7352	0	32232	
7353	0	32032	
7354	0	31930	
7355	0	31874	
7356	0	31840	
7357	0	31802	
7358	0	31788	
7359	0	31752	
7360	0	31704	
7361	0	31636	
7362	0	31556	
7363	0	31480	
7364	0	31396	
7365	0	31324	
7366	0	31274	
7367	0	31244	
7368	0	31220	
7369	0	31204	
7370	0	31184	
7371	0	31112	
7372	0	31028	
7373	0	30936	
7374	0	30826	
7375	0	30754	
7376	0	30692	
7377	0	30634	
7378	0	30552	
7379	0	30458	
7380	0	30360	
7381	0	30364	
7382	0	30404	
7383	0	30412	
7384	0	30424	
7385	0	30436	
7386	0	30444	
7387	0	30512	
7388	0	30564	
7389	0	30592	
7390	0	30572	
7391	0	30564	
7392	0	30588	
7393	0	30618	
7394	0	30632	
7395	0	30608	
7396	0	30604	
7397	0	30620	
7398	0	30644	
7399	0	30636	
7400	0	30620	
7401	0	30634	
7402	0	30618	
7403	0	30636	
7404	0	30652	
7405	0	30656	
7406	0	30666	
7407	0	30692	
7408	0	30730	
7409	0	30720	
7410	0	30704	
7411	0	30732	
7412	0	30772	
7413	0	30816	
7414	0	30844	
7415	0	30864	
7416	0	30884	
7417	0	30904	
7418	0	30910	
7419	0	30924	
7420	0	30936	
7421	0	30964	
7422	0	30986	
7423	0	30996	
7424	0	31008	
7425	0	31024	
7426	0	31048	
7427	0	31068	
7428	0	31056	
7429	0	31048	
7430	0	31068	
7431	0	31120	
7432	0	31170	
7433	0	31216	
7434	0	31280	
7435	0	31300	
7436	0	31300	
7437	0	31176	
7438	0	30942	
7439	0	30632	
7440	0	30292	
7441	0	29900	
7442	0	29514	
7443	0	29184	
7444	0	29008	
7445	0	28984	
7446	0	29146	
7447	0	29484	
7448	0	29896	
7449	0	30272	
7450	0	30652	
7451	0	31124	
7452	0	31712	
7453	0	32264	
7454	0	32684	
7455	0	33064	
7456	0	33488	
7457	0	33840	
7458	0	34312	
7459	0	35066	
7460	0	36112	
7461	0	37344	
7462	0	38920	
7463	0	40792	
7464	0	42744	
7465	0	44876	
7466	0	47428	
7467	0	50288	
7468	0	53328	
7469	0	56036	
7470	0	58072	
7471	0	59648	
7472	0	61064	
7473	0	62352	
7474	0	63392	
7475	0	64064	
7476	0	64232	
7477	0	63656	
7478	0	62512	
7479	0	60944	
7480	0	59060	
7481	0	56880	
7482	0	54304	
7483	0	51584	
7484	0	48956	
7485	0	46320	
7486	0	43672	
7487	0	40896	
7488	0	37844	
7489	0	34756	
7490	0	31858	
7491	0	29258	
7492	0	26980	
7493	0	24784	
7494	0	22704	
7495	0	21016	
7496	0	19752	
7497	0	18768	
7498	0	18004	
7499	0	17528	
7500	0	17108	
7501	0	16672	
7502	0	16206	
7503	0	15840	
7504	0	15584	
7505	0	15426	
7506	0	15388	
7507	0	15404	
7508	0	15520	
7509	0	15842	
7510	0	16320	
7511	0	17000	
7512	0	17864	
7513	0	18798	
7514	0	19744	
7515	0	20668	
7516	0	21628	
7517	0	22740	
7518	0	23904	
7519	0	25008	
7520	0	25968	
7521	0	26772	
7522	0	27404	
7523	0	27968	
7524	0	28464	
7525	0	28910	
7526	0	29284	
7527	0	29584	
7528	0	29856	
7529	0	30124	
7530	0	30380	
7531	0	30574	
7532	0	30704	
7533	0	30816	
7534	0	30924	
7535	0	30992	
7536	0	31076	
7537	0	31160	
7538	0	31204	
7539	0	31256	
7540	0	31336	
7541	0	31416	
7542	0	31546	
7543	0	31648	
7544	0	31738	
7545	0	31788	
7546	0	31876	
7547	0	31960	
7548	0	32044	
7549	0	32076	
7550	0	32112	
7551	0	32180	
7552	0	32248	
7553	0	32298	
7554	0	32328	
7555	0	32388	
7556	0	32432	
7557	0	32500	
7558	0	32540	
7559	0	32580	
7560	0	32660	
7561	0	32708	
7562	0	32744	
7563	0	32808	
7564	0	32844	
7565	0	32864	
7566	0	32924	
7567	0	32968	
7568	0	32992	
7569	0	33016	
7570	0	33064	
7571	0	33128	
7572	0	33176	
7573	0	33208	
7574	0	33230	
7575	0	33260	
7576	0	33256	
7577	0	33292	
7578	0	33340	
7579	0	33376	
7580	0	33428	
7581	0	33488	
7582	0	33538	
7583	0	33568	
7584	0	33600	
7585	0	33640	
7586	0	33688	
7587	0	33740	
7588	0	33776	
7589	0	33808	
7590	0	33864	
7591	0	33900	
7592	0	33940	
7593	0	33988	
7594	0	34044	
7595	0	34096	
7596	0	34130	
7597	0	34168	
7598	0	34188	
7599	0	34214	
7600	0	34260	
7601	0	34352	
7602	0	34412	
7603	0	34456	
7604	0	34472	
7605	0	34508	
7606	0	34560	
7607	0	34616	
7608	0	34680	
7609	0	34716	
7610	0	34752	
7611	0	34800	
7612	0	34848	
7613	0	34908	
7614	0	34968	
7615	0	35020	
7616	0	35088	
7617	0	35144	
7618	0	35184	
7619	0	35224	
7620	0	35244	
7621	0	35272	
7622	0	35316	
7623	0	35372	
7624	0	35424	
7625	0	35512	
7626	0	35604	
7627	0	35680	
7628	0	35744	
7629	0	35792	
7630	0	35872	
7631	0	35932	
7632	0	35996	
7633	0	36064	
7634	0	36120	
7635	0	36172	
7636	0	36224	
7637	0	36304	
7638	0	36368	
7639	0	36432	
7640	0	36504	
7641	0	36592	
7642	0	36640	
7643	0	36686	
7644	0	36756	
7645	0	36860	
7646	0	36972	
7647	0	37076	
7648	0	37100	
7649	0	37146	
7650	0	37208	
7651	0	37272	
7652	0	37324	
7653	0	37400	
7654	0	37476	
7655	0	37544	
7656	0	37624	
7657	0	37708	
7658	0	37792	
7659	0	37892	
7660	0	37944	
7661	0	37976	
7662	0	38004	
7663	0	38064	
7664	0	38108	
7665	0	38140	
7666	0	38176	
7667	0	38260	
7668	0	38324	
7669	0	38384	
7670	0	38404	
7671	0	38448	
7672	0	38492	
7673	0	38524	
7674	0	38544	
7675	0	38548	
7676	0	38568	
7677	0	38616	
7678	0	38648	
7679	0	38668	
7680	0	38704	
7681	0	38752	
7682	0	38780	
7683	0	38804	
7684	0	38804	
7685	0	38800	
7686	0	38792	
7687	0	38796	
7688	0	38828	
7689	0	38836	
7690	0	38826	
7691	0	38848	
7692	0	38880	
7693	0	38868	
7694	0	38816	
7695	0	38800	
7696	0	38784	
7697	0	38776	
7698	0	38748	
7699	0	38748	
7700	0	38732	
7701	0	38704	
7702	0	38656	
7703	0	38624	
7704	0	38600	
7705	0	38536	
7706	0	38468	
7707	0	38384	
7708	0	38296	
7709	0	38208	
7710	0	38112	
7711	0	38028	
7712	0	37884	
7713	0	37780	
7714	0	37668	
7715	0	37528	
7716	0	37408	
7717	0	37280	
7718	0	37112	
7719	0	36936	
7720	0	36784	
7721	0	36628	
7722	0	36504	
7723	0	36376	
7724	0	36212	
7725	0	36032	
7726	0	35896	
7727	0	35760	
7728	0	35572	
7729	0	35360	
7730	0	35156	
7731	0	34940	
7732	0	34776	
7733	0	34592	
7734	0	34396	
7735	0	34176	
7736	0	33988	
7737	0	33784	
7738	0	33592	
7739	0	33424	
7740	0	33240	
7741	0	33076	
7742	0	32888	
7743	0	32706	
7744	0	32560	
7745	0	32400	
7746	0	32216	
7747	0	32052	
7748	0	31892	
7749	0	31756	
7750	0	31600	
7751	0	31460	
7752	0	31336	
7753	0	31208	
7754	0	31076	
7755	0	30920	
7756	0	30772	
7757	0	30658	
7758	0	30576	
7759	0	30436	
7760	0	30300	
7761	0	30216	
7762	0	30104	
7763	0	30004	
7764	0	29876	
7765	0	29788	
7766	0	29704	
7767	0	29656	
7768	0	29584	
7769	0	29508	
7770	0	29424	
7771	0	29352	
7772	0	29276	
7773	0	29236	
7774	0	29206	
7775	0	29152	
7776	0	29124	
7777	0	29088	
7778	0	29064	
7779	0	29040	
7780	0	29016	
7781	0	28992	
7782	0	28978	
7783	0	28956	
7784	0	28952	
7785	0	28960	
7786	0	28968	
7787	0	28960	
7788	0	28956	
7789	0	28954	
7790	0	28940	
7791	0	28936	
7792	0	28924	
7793	0	28920	
7794	0	28912	
7795	0	28928	
7796	0	28956	
7797	0	28976	
7798	0	28976	
7799	0	29002	
7800	0	29026	
7801	0	29010	
7802	0	28992	
7803	0	29020	
7804	0	29080	
7805	0	29116	
7806	0	29152	
7807	0	29168	
7808	0	29164	
7809	0	29156	
7810	0	29153	
7811	0	29180	
7812	0	29212	
7813	0	29252	
7814	0	29280	
7815	0	29306	
7816	0	29300	
7817	0	29320	
7818	0	29368	
7819	0	29428	
7820	0	29452	
7821	0	29472	
7822	0	29504	
7823	0	29536	
7824	0	29580	
7825	0	29596	
7826	0	29616	
7827	0	29664	
7828	0	29728	
7829	0	29756	
7830	0	29792	
7831	0	29820	
7832	0	29836	
7833	0	29840	
7834	0	29824	
7835	0	29828	
7836	0	29876	
7837	0	29944	
7838	0	29976	
7839	0	30020	
7840	0	30076	
7841	0	30100	
7842	0	30120	
7843	0	30128	
7844	0	30160	
7845	0	30184	
7846	0	30204	
7847	0	30248	
7848	0	30268	
7849	0	30306	
7850	0	30344	
7851	0	30368	
7852	0	30394	
7853	0	30406	
7854	0	30432	
7855	0	30442	
7856	0	30420	
7857	0	30400	
7858	0	30416	
7859	0	30442	
7860	0	30488	
7861	0	30512	
7862	0	30552	
7863	0	30612	
7864	0	30616	
7865	0	30600	
7866	0	30596	
7867	0	30616	
7868	0	30644	
7869	0	30656	
7870	0	30668	
7871	0	30696	
7872	0	30720	
7873	0	30744	
7874	0	30748	
7875	0	30748	
7876	0	30744	
7877	0	30772	
7878	0	30816	
7879	0	30828	
7880	0	30860	
7881	0	30860	
7882	0	30860	
7883	0	30868	
7884	0	30868	
7885	0	30880	
7886	0	30904	
7887	0	30892	
7888	0	30892	
7889	0	30928	
7890	0	30960	
7891	0	31008	
7892	0	31012	
7893	0	31000	
7894	0	31000	
7895	0	31008	
7896	0	31020	
7897	0	31004	
7898	0	30992	
7899	0	31016	
7900	0	31004	
7901	0	30976	
7902	0	30944	
7903	0	30904	
7904	0	30904	
7905	0	30932	
7906	0	30964	
7907	0	30956	
7908	0	30994	
7909	0	31002	
7910	0	31000	
7911	0	31004	
7912	0	30996	
7913	0	31000	
7914	0	30960	
7915	0	30964	
7916	0	30992	
7917	0	30996	
7918	0	31000	
7919	0	31016	
7920	0	30964	
7921	0	30924	
7922	0	30904	
7923	0	30932	
7924	0	30952	
7925	0	30952	
7926	0	30960	
7927	0	30972	
7928	0	30992	
7929	0	30984	
7930	0	30972	
7931	0	30980	
7932	0	31012	
7933	0	31032	
7934	0	31048	
7935	0	31064	
7936	0	31044	
7937	0	30984	
7938	0	30952	
7939	0	30988	
7940	0	31016	
7941	0	31024	
7942	0	31036	
7943	0	31056	
7944	0	31092	
7945	0	31072	
7946	0	31064	
7947	0	31080	
7948	0	31096	
7949	0	31116	
7950	0	31116	
7951	0	31112	
7952	0	31096	
7953	0	31092	
7954	0	31136	
7955	0	31144	
7956	0	31136	
7957	0	31136	
7958	0	31156	
7959	0	31154	
7960	0	31144	
7961	0	31148	
7962	0	31176	
7963	0	31176	
7964	0	31148	
7965	0	31120	
7966	0	31136	
7967	0	31160	
7968	0	31160	
7969	0	31152	
7970	0	31164	
7971	0	31170	
7972	0	31200	
7973	0	31220	
7974	0	31240	
7975	0	31236	
7976	0	31212	
7977	0	31216	
7978	0	31234	
7979	0	31240	
7980	0	31256	
7981	0	31296	
7982	0	31312	
7983	0	31288	
7984	0	31304	
7985	0	31328	
7986	0	31324	
7987	0	31338	
7988	0	31332	
7989	0	31344	
7990	0	31382	
7991	0	31402	
7992	0	31416	
7993	0	31440	
7994	0	31472	
7995	0	31488	
7996	0	31504	
7997	0	31456	
7998	0	31432	
7999	0	31448	
8000	0	31450	
8001	0	31456	
8002	0	31480	
8003	0	31520	
8004	0	31544	
8005	0	31560	
8006	0	31578	
8007	0	31584	
8008	0	31580	
8009	0	31576	
8010	0	31584	
8011	0	31584	
8012	0	31592	
8013	0	31628	
8014	0	31646	
8015	0	31648	
8016	0	31648	
8017	0	31668	
8018	0	31680	
8019	0	31688	
8020	0	31700	
8021	0	31732	
8022	0	31736	
8023	0	31752	
8024	0	31760	
8025	0	31772	
8026	0	31804	
8027	0	31852	
8028	0	31892	
8029	0	31896	
8030	0	31876	
8031	0	31900	
8032	0	31908	
8033	0	31912	
8034	0	31908	
8035	0	31944	
8036	0	31960	
8037	0	31976	
8038	0	32032	
8039	0	32100	
8040	0	32152	
8041	0	32184	
8042	0	32226	
8043	0	32256	
8044	0	32296	
8045	0	32352	
8046	0	32416	
8047	0	32452	
8048	0	32528	
8049	0	32616	
8050	0	32676	
8051	0	32720	
8052	0	32748	
8053	0	32780	
8054	0	32800	
8055	0	32844	
8056	0	32872	
8057	0	32892	
8058	0	32916	
8059	0	32972	
8060	0	33034	
8061	0	33108	
8062	0	33172	
8063	0	33180	
8064	0	33164	
8065	0	33162	
8066	0	33176	
8067	0	33208	
8068	0	33280	
8069	0	33440	
8070	0	33654	
8071	0	33816	
8072	0	33900	
8073	0	33920	
8074	0	33944	
8075	0	33936	
8076	0	33948	
8077	0	33980	
8078	0	34060	
8079	0	34168	
8080	0	34270	
8081	0	34336	
8082	0	34416	
8083	0	34488	
8084	0	34572	
8085	0	34664	
8086	0	34720	
8087	0	34784	
8088	0	34828	
8089	0	34900	
8090	0	34952	
8091	0	34952	
8092	0	34908	
8093	0	34844	
8094	0	34776	
8095	0	34736	
8096	0	34700	
8097	0	34670	
8098	0	34592	
8099	0	34476	
8100	0	34384	
8101	0	34308	
8102	0	34224	
8103	0	34082	
8104	0	33876	
8105	0	33696	
8106	0	33600	
8107	0	33472	
8108	0	33348	
8109	0	33220	
8110	0	33070	
8111	0	32916	
8112	0	32752	
8113	0	32576	
8114	0	32480	
8115	0	32448	
8116	0	32428	
8117	0	32382	
8118	0	32320	
8119	0	32257	
8120	0	32228	
8121	0	32216	
8122	0	32156	
8123	0	32076	
8124	0	31988	
8125	0	31896	
8126	0	31834	
8127	0	31796	
8128	0	31780	
8129	0	31736	
8130	0	31664	
8131	0	31604	
8132	0	31528	
8133	0	31408	
8134	0	31282	
8135	0	31160	
8136	0	31064	
8137	0	30992	
8138	0	30936	
8139	0	30914	
8140	0	30904	
8141	0	30893	
8142	0	30876	
8143	0	30852	
8144	0	30876	
8145	0	30908	
8146	0	30912	
8147	0	30900	
8148	0	30900	
8149	0	30880	
8150	0	30880	
8151	0	30888	
8152	0	30932	
8153	0	30984	
8154	0	31032	
8155	0	31028	
8156	0	31020	
8157	0	31016	
8158	0	31052	
8159	0	31056	
8160	0	31052	
8161	0	31028	
8162	0	31040	
8163	0	31032	
8164	0	31032	
8165	0	31056	
8166	0	31076	
8167	0	31088	
8168	0	31132	
8169	0	31104	
8170	0	31096	
8171	0	31108	
8172	0	31136	
8173	0	31192	
8174	0	31248	
8175	0	31288	
8176	0	31312	
8177	0	31332	
8178	0	31328	
8179	0	31328	
8180	0	31344	
8181	0	31360	
8182	0	31372	
8183	0	31380	
8184	0	31392	
8185	0	31416	
8186	0	31448	
8187	0	31456	
8188	0	31460	
8189	0	31472	
8190	0	31500	
8191	0	31552	
8192	0	31592	
8193	0	31592	
8194	0	31600	
8195	0	31608	
8196	0	31632	
8197	0	31556	
8198	0	31388	
8199	0	31128	
8200	0	30816	
8201	0	30452	
8202	0	30108	
8203	0	29824	
8204	0	29628	
8205	0	29592	
8206	0	29744	
8207	0	30084	
8208	0	30496	
8209	0	30904	
8210	0	31332	
8211	0	31800	
8212	0	32348	
8213	0	32916	
8214	0	33416	
8215	0	33778	
8216	0	34176	
8217	0	34520	
8218	0	34912	
8219	0	35492	
8220	0	36372	
8221	0	37432	
8222	0	38708	
8223	0	40344	
8224	0	42164	
8225	0	44128	
8226	0	46464	
8227	0	49184	
8228	0	52120	
8229	0	54836	
8230	0	56908	
8231	0	58304	
8232	0	59464	
8233	0	60592	
8234	0	61528	
8235	0	62168	
8236	0	62560	
8237	0	62360	
8238	0	61488	
8239	0	60036	
8240	0	58440	
8241	0	56324	
8242	0	53820	
8243	0	51120	
8244	0	48568	
8245	0	46068	
8246	0	43592	
8247	0	40972	
8248	0	38136	
8249	0	35240	
8250	0	32548	
8251	0	30128	
8252	0	27936	
8253	0	25808	
8254	0	23776	
8255	0	22069	
8256	0	20764	
8257	0	19770	
8258	0	19010	
8259	0	18426	
8260	0	17942	
8261	0	17440	
8262	0	16912	
8263	0	16413	
8264	0	16044	
8265	0	15794	
8266	0	15698	
8267	0	15680	
8268	0	15832	
8269	0	16224	
8270	0	16800	
8271	0	17582	
8272	0	18402	
8273	0	19334	
8274	0	20329	
8275	0	21305	
8276	0	22312	
8277	0	23480	
8278	0	24676	
8279	0	25732	
8280	0	26632	
8281	0	27406	
8282	0	28056	
8283	0	28636	
8284	0	29144	
8285	0	29524	
8286	0	29812	
8287	0	30080	
8288	0	30366	
8289	0	30620	
8290	0	30868	
8291	0	31072	
8292	0	31200	
8293	0	31320	
8294	0	31408	
8295	0	31480	
8296	0	31552	
8297	0	31640	
8298	0	31716	
8299	0	31776	
8300	0	31850	
8301	0	31956	
8302	0	32012	
8303	0	32044	
8304	0	32052	
8305	0	32096	
8306	0	32184	
8307	0	32280	
8308	0	32352	
8309	0	32424	
8310	0	32508	
8311	0	32596	
8312	0	32644	
8313	0	32692	
8314	0	32752	
8315	0	32788	
8316	0	32832	
8317	0	32880	
8318	0	32924	
8319	0	32948	
8320	0	32976	
8321	0	33064	
8322	0	33116	
8323	0	33176	
8324	0	33176	
8325	0	33212	
8326	0	33276	
8327	0	33368	
8328	0	33424	
8329	0	33464	
8330	0	33496	
8331	0	33506	
8332	0	33504	
8333	0	33512	
8334	0	33536	
8335	0	33600	
8336	0	33672	
8337	0	33716	
8338	0	33784	
8339	0	33832	
8340	0	33900	
8341	0	33956	
8342	0	33980	
8343	0	34008	
8344	0	34056	
8345	0	34088	
8346	0	34124	
8347	0	34152	
8348	0	34200	
8349	0	34240	
8350	0	34264	
8351	0	34300	
8352	0	34376	
8353	0	34444	
8354	0	34466	
8355	0	34540	
8356	0	34616	
8357	0	34648	
8358	0	34660	
8359	0	34670	
8360	0	34684	
8361	0	34720	
8362	0	34740	
8363	0	34764	
8364	0	34784	
8365	0	34826	
8366	0	34880	
8367	0	34900	
8368	0	34908	
8369	0	34980	
8370	0	35100	
8371	0	35160	
8372	0	35168	
8373	0	35220	
8374	0	35272	
8375	0	35316	
8376	0	35388	
8377	0	35416	
8378	0	35476	
8379	0	35540	
8380	0	35610	
8381	0	35638	
8382	0	35656	
8383	0	35696	
8384	0	35756	
8385	0	35840	
8386	0	35896	
8387	0	35932	
8388	0	35988	
8389	0	36048	
8390	0	36088	
8391	0	36144	
8392	0	36184	
8393	0	36232	
8394	0	36344	
8395	0	36452	
8396	0	36548	
8397	0	36592	
8398	0	36632	
8399	0	36684	
8400	0	36760	
8401	0	36796	
8402	0	36888	
8403	0	36956	
8404	0	37012	
8405	0	37064	
8406	0	37168	
8407	0	37268	
8408	0	37364	
8409	0	37444	
8410	0	37530	
8411	0	37584	
8412	0	37664	
8413	0	37760	
8414	0	37828	
8415	0	37896	
8416	0	37932	
8417	0	37988	
8418	0	38052	
8419	0	38120	
8420	0	38196	
8421	0	38284	
8422	0	38352	
8423	0	38420	
8424	0	38484	
8425	0	38528	
8426	0	38572	
8427	0	38604	
8428	0	38640	
8429	0	38728	
8430	0	38772	
8431	0	38824	
8432	0	38864	
8433	0	38912	
8434	0	38948	
8435	0	38968	
8436	0	38976	
8437	0	39004	
8438	0	39040	
8439	0	39064	
8440	0	39096	
8441	0	39136	
8442	0	39166	
8443	0	39204	
8444	0	39256	
8445	0	39300	
8446	0	39312	
8447	0	39304	
8448	0	39304	
8449	0	39322	
8450	0	39344	
8451	0	39386	
8452	0	39384	
8453	0	39376	
8454	0	39372	
8455	0	39392	
8456	0	39390	
8457	0	39384	
8458	0	39380	
8459	0	39360	
8460	0	39364	
8461	0	39352	
8462	0	39316	
8463	0	39300	
8464	0	39284	
8465	0	39252	
8466	0	39200	
8467	0	39128	
8468	0	39044	
8469	0	38988	
8470	0	38912	
8471	0	38852	
8472	0	38760	
8473	0	38656	
8474	0	38540	
8475	0	38432	
8476	0	38316	
8477	0	38188	
8478	0	38048	
8479	0	37920	
8480	0	37792	
8481	0	37624	
8482	0	37460	
8483	0	37296	
8484	0	37120	
8485	0	36952	
8486	0	36748	
8487	0	36580	
8488	0	36430	
8489	0	36256	
8490	0	36088	
8491	0	35918	
8492	0	35732	
8493	0	35520	
8494	0	35308	
8495	0	35112	
8496	0	34916	
8497	0	34704	
8498	0	34480	
8499	0	34252	
8500	0	34068	
8501	0	33878	
8502	0	33692	
8503	0	33474	
8504	0	33288	
8505	0	33100	
8506	0	32912	
8507	0	32706	
8508	0	32496	
8509	0	32304	
8510	0	32140	
8511	0	31984	
8512	0	31840	
8513	0	31688	
8514	0	31522	
8515	0	31360	
8516	0	31200	
8517	0	31056	
8518	0	30932	
8519	0	30804	
8520	0	30672	
8521	0	30564	
8522	0	30468	
8523	0	30364	
8524	0	30260	
8525	0	30184	
8526	0	30082	
8527	0	29964	
8528	0	29832	
8529	0	29740	
8530	0	29648	
8531	0	29572	
8532	0	29484	
8533	0	29404	
8534	0	29334	
8535	0	29288	
8536	0	29216	
8537	0	29136	
8538	0	29068	
8539	0	29024	
8540	0	29020	
8541	0	28996	
8542	0	28940	
8543	0	28884	
8544	0	28856	
8545	0	28840	
8546	0	28812	
8547	0	28824	
8548	0	28846	
8549	0	28868	
8550	0	28900	
8551	0	28880	
8552	0	28844	
8553	0	28824	
8554	0	28800	
8555	0	28816	
8556	0	28852	
8557	0	28904	
8558	0	28914	
8559	0	28928	
8560	0	28938	
8561	0	28912	
8562	0	28944	
8563	0	28960	
8564	0	28992	
8565	0	29024	
8566	0	29024	
8567	0	29040	
8568	0	29068	
8569	0	29104	
8570	0	29120	
8571	0	29120	
8572	0	29124	
8573	0	29162	
8574	0	29170	
8575	0	29184	
8576	0	29208	
8577	0	29292	
8578	0	29336	
8579	0	29354	
8580	0	29352	
8581	0	29384	
8582	0	29448	
8583	0	29444	
8584	0	29452	
8585	0	29486	
8586	0	29504	
8587	0	29514	
8588	0	29548	
8589	0	29584	
8590	0	29604	
8591	0	29636	
