# OpenSignals Text File Format. Version 1
# {"00:07:80:4B:15:F7": {"position": 0, "device": "biosignalsplux", "device name": "00:07:80:4B:15:F7", "device connection": "BTH00:07:80:4B:15:F7", "sampling rate": 1000, "resolution": [16], "firmware version": 775, "comments": "", "keywords": "", "mode": 0, "sync interval": 2, "date": "2023-4-27", "time": "17:10:41.728", "channels": [1], "sensor": ["ECG"], "label": ["CH1"], "column": ["nSeq", "DI", "CH1"], "special": [{"SpO2": [80, 40, 5, 4, 3, 3]}, {"SpO2": [80, 40, 5, 4, 3, 3]}, {"SpO2": [80, 40, 5, 4, 3, 3]}, {"SpO2": [80, 40, 5, 4, 3, 3]}, {"SpO2": [80, 40, 5, 4, 3, 3]}, {"SpO2": [80, 40, 5, 4, 3, 3]}, {"SpO2": [80, 40, 5, 4, 3, 3]}, {"SpO2": [80, 40, 5, 4, 3, 3]}], "digital IO": [0, 1], "sleeve color": ["green"], "convertedValues": 0}}
# EndOfHeader
0	0	31812	
1	0	31832	
2	0	31824	
3	0	31816	
4	0	31872	
5	0	31956	
6	0	32080	
7	0	32200	
8	0	32304	
9	0	32376	
10	0	32448	
11	0	32556	
12	0	32628	
13	0	32684	
14	0	32720	
15	0	32756	
16	0	32784	
17	0	32876	
18	0	32900	
19	0	32872	
20	0	32876	
21	0	32876	
22	0	32932	
23	0	33036	
24	0	33060	
25	0	33072	
26	0	33120	
27	0	33148	
28	0	33244	
29	0	33408	
30	0	33512	
31	0	33600	
32	0	33668	
33	0	33768	
34	0	33944	
35	0	34136	
36	0	34312	
37	0	34446	
38	0	34496	
39	0	34548	
40	0	34604	
41	0	34736	
42	0	34936	
43	0	35104	
44	0	35268	
45	0	35308	
46	0	35288	
47	0	35292	
48	0	35272	
49	0	35204	
50	0	35144	
51	0	35088	
52	0	35060	
53	0	35048	
54	0	34988	
55	0	34856	
56	0	34704	
57	0	34592	
58	0	34452	
59	0	34328	
60	0	34184	
61	0	34016	
62	0	33900	
63	0	33820	
64	0	33674	
65	0	33496	
66	0	33316	
67	0	33132	
68	0	33020	
69	0	32932	
70	0	32836	
71	0	32688	
72	0	32512	
73	0	32300	
74	0	32182	
75	0	32088	
76	0	31908	
77	0	31792	
78	0	31648	
79	0	31560	
80	0	31564	
81	0	31506	
82	0	31352	
83	0	31172	
84	0	31016	
85	0	30908	
86	0	30788	
87	0	30704	
88	0	30664	
89	0	30640	
90	0	30646	
91	0	30716	
92	0	30758	
93	0	30720	
94	0	30716	
95	0	30716	
96	0	30648	
97	0	30650	
98	0	30716	
99	0	30724	
100	0	30672	
101	0	30612	
102	0	30512	
103	0	30420	
104	0	30404	
105	0	30412	
106	0	30400	
107	0	30456	
108	0	30536	
109	0	30632	
110	0	30732	
111	0	30766	
112	0	30800	
113	0	30836	
114	0	30856	
115	0	30912	
116	0	30972	
117	0	31012	
118	0	31028	
119	0	31034	
120	0	31072	
121	0	31040	
122	0	31004	
123	0	31000	
124	0	31004	
125	0	31052	
126	0	31044	
127	0	30928	
128	0	30812	
129	0	30652	
130	0	30370	
131	0	29972	
132	0	29428	
133	0	28772	
134	0	27962	
135	0	27122	
136	0	26404	
137	0	25806	
138	0	25420	
139	0	25168	
140	0	25080	
141	0	25252	
142	0	25736	
143	0	26388	
144	0	27188	
145	0	28306	
146	0	29680	
147	0	31408	
148	0	33498	
149	0	36048	
150	0	38888	
151	0	42104	
152	0	46056	
153	0	50416	
154	0	54656	
155	0	58608	
156	0	61732	
157	0	63460	
158	0	64376	
159	0	64800	
160	0	64976	
161	0	65008	
162	0	64960	
163	0	64880	
164	0	64772	
165	0	64660	
166	0	62420	
167	0	56132	
168	0	49872	
169	0	44404	
170	0	40040	
171	0	36556	
172	0	33744	
173	0	31580	
174	0	29868	
175	0	28480	
176	0	27440	
177	0	26776	
178	0	26336	
179	0	26148	
180	0	26008	
181	0	25940	
182	0	25972	
183	0	26080	
184	0	26208	
185	0	26316	
186	0	26396	
187	0	26456	
188	0	26552	
189	0	26744	
190	0	27008	
191	0	27288	
192	0	27532	
193	0	27800	
194	0	28036	
195	0	28248	
196	0	28434	
197	0	28604	
198	0	28780	
199	0	28908	
200	0	28996	
201	0	29056	
202	0	29048	
203	0	29064	
204	0	29092	
205	0	29060	
206	0	29092	
207	0	29112	
208	0	29084	
209	0	29076	
210	0	29077	
211	0	29100	
212	0	29172	
213	0	29192	
214	0	29192	
215	0	29288	
216	0	29346	
217	0	29344	
218	0	29328	
219	0	29420	
220	0	29528	
221	0	29576	
222	0	29544	
223	0	29488	
224	0	29460	
225	0	29508	
226	0	29540	
227	0	29536	
228	0	29568	
229	0	29636	
230	0	29706	
231	0	29808	
232	0	29956	
233	0	30060	
234	0	30116	
235	0	30208	
236	0	30348	
237	0	30436	
238	0	30444	
239	0	30464	
240	0	30480	
241	0	30492	
242	0	30496	
243	0	30504	
244	0	30610	
245	0	30700	
246	0	30676	
247	0	30656	
248	0	30672	
249	0	30772	
250	0	30856	
251	0	30880	
252	0	30876	
253	0	30896	
254	0	30912	
255	0	30976	
256	0	30992	
257	0	30984	
258	0	31016	
259	0	31056	
260	0	31130	
261	0	31176	
262	0	31266	
263	0	31394	
264	0	31488	
265	0	31516	
266	0	31562	
267	0	31628	
268	0	31668	
269	0	31704	
270	0	31788	
271	0	31884	
272	0	31950	
273	0	32060	
274	0	32172	
275	0	32248	
276	0	32172	
277	0	32060	
278	0	31992	
279	0	31972	
280	0	32076	
281	0	32224	
282	0	32346	
283	0	32388	
284	0	32432	
285	0	32434	
286	0	32446	
287	0	32508	
288	0	32592	
289	0	32700	
290	0	32832	
291	0	32954	
292	0	33048	
293	0	33088	
294	0	33070	
295	0	33056	
296	0	33084	
297	0	33152	
298	0	33202	
299	0	33264	
300	0	33312	
301	0	33364	
302	0	33460	
303	0	33512	
304	0	33512	
305	0	33504	
306	0	33504	
307	0	33524	
308	0	33620	
309	0	33796	
310	0	33936	
311	0	34040	
312	0	34152	
313	0	34160	
314	0	34172	
315	0	34200	
316	0	34212	
317	0	34288	
318	0	34440	
319	0	34576	
320	0	34696	
321	0	34798	
322	0	34860	
323	0	34896	
324	0	34976	
325	0	35084	
326	0	35164	
327	0	35236	
328	0	35340	
329	0	35452	
330	0	35556	
331	0	35592	
332	0	35560	
333	0	35600	
334	0	35612	
335	0	35664	
336	0	35736	
337	0	35784	
338	0	35796	
339	0	35820	
340	0	35848	
341	0	35920	
342	0	36000	
343	0	36076	
344	0	36154	
345	0	36176	
346	0	36160	
347	0	36192	
348	0	36256	
349	0	36292	
350	0	36308	
351	0	36280	
352	0	36260	
353	0	36240	
354	0	36216	
355	0	36212	
356	0	36212	
357	0	36204	
358	0	36208	
359	0	36244	
360	0	36232	
361	0	36256	
362	0	36248	
363	0	36180	
364	0	36040	
365	0	35956	
366	0	35850	
367	0	35744	
368	0	35704	
369	0	35684	
370	0	35636	
371	0	35648	
372	0	35712	
373	0	35684	
374	0	35610	
375	0	35556	
376	0	35468	
377	0	35296	
378	0	35156	
379	0	35020	
380	0	34856	
381	0	34724	
382	0	34604	
383	0	34456	
384	0	34284	
385	0	34120	
386	0	33956	
387	0	33860	
388	0	33740	
389	0	33608	
390	0	33464	
391	0	33340	
392	0	33228	
393	0	33096	
394	0	32984	
395	0	32832	
396	0	32640	
397	0	32484	
398	0	32320	
399	0	32160	
400	0	31980	
401	0	31852	
402	0	31712	
403	0	31516	
404	0	31384	
405	0	31268	
406	0	31144	
407	0	31028	
408	0	30840	
409	0	30664	
410	0	30560	
411	0	30492	
412	0	30356	
413	0	30208	
414	0	30072	
415	0	29968	
416	0	29928	
417	0	29874	
418	0	29818	
419	0	29764	
420	0	29760	
421	0	29704	
422	0	29568	
423	0	29420	
424	0	29376	
425	0	29388	
426	0	29444	
427	0	29524	
428	0	29616	
429	0	29652	
430	0	29664	
431	0	29640	
432	0	29674	
433	0	29700	
434	0	29692	
435	0	29644	
436	0	29636	
437	0	29664	
438	0	29680	
439	0	29628	
440	0	29558	
441	0	29484	
442	0	29432	
443	0	29408	
444	0	29420	
445	0	29432	
446	0	29452	
447	0	29472	
448	0	29460	
449	0	29432	
450	0	29420	
451	0	29408	
452	0	29418	
453	0	29432	
454	0	29488	
455	0	29572	
456	0	29664	
457	0	29672	
458	0	29636	
459	0	29656	
460	0	29744	
461	0	29784	
462	0	29764	
463	0	29700	
464	0	29680	
465	0	29742	
466	0	29828	
467	0	29904	
468	0	29968	
469	0	30048	
470	0	30116	
471	0	30212	
472	0	30266	
473	0	30296	
474	0	30248	
475	0	30264	
476	0	30280	
477	0	30352	
478	0	30420	
479	0	30456	
480	0	30432	
481	0	30388	
482	0	30388	
483	0	30392	
484	0	30420	
485	0	30416	
486	0	30396	
487	0	30412	
488	0	30512	
489	0	30624	
490	0	30704	
491	0	30824	
492	0	30956	
493	0	31060	
494	0	31048	
495	0	31044	
496	0	31090	
497	0	31120	
498	0	31136	
499	0	31200	
500	0	31252	
501	0	31292	
502	0	31352	
503	0	31432	
504	0	31496	
505	0	31500	
506	0	31472	
507	0	31408	
508	0	31364	
509	0	31348	
510	0	31376	
511	0	31376	
512	0	31416	
513	0	31488	
514	0	31556	
515	0	31580	
516	0	31632	
517	0	31616	
518	0	31596	
519	0	31648	
520	0	31660	
521	0	31692	
522	0	31776	
523	0	31840	
524	0	31836	
525	0	31888	
526	0	31976	
527	0	32052	
528	0	32058	
529	0	32076	
530	0	32108	
531	0	32176	
532	0	32208	
533	0	32192	
534	0	32188	
535	0	32152	
536	0	32156	
537	0	32092	
538	0	32012	
539	0	32020	
540	0	32080	
541	0	32128	
542	0	32116	
543	0	32058	
544	0	32044	
545	0	32048	
546	0	32088	
547	0	32112	
548	0	32096	
549	0	32100	
550	0	32080	
551	0	32064	
552	0	32088	
553	0	32152	
554	0	32236	
555	0	32312	
556	0	32320	
557	0	32288	
558	0	32248	
559	0	32188	
560	0	32188	
561	0	32156	
562	0	32152	
563	0	32178	
564	0	32200	
565	0	32212	
566	0	32172	
567	0	32140	
568	0	32104	
569	0	32112	
570	0	32148	
571	0	32156	
572	0	32160	
573	0	32160	
574	0	32142	
575	0	32170	
576	0	32196	
577	0	32240	
578	0	32240	
579	0	32174	
580	0	32066	
581	0	32004	
582	0	32016	
583	0	32088	
584	0	32144	
585	0	32156	
586	0	32162	
587	0	32200	
588	0	32268	
589	0	32410	
590	0	32472	
591	0	32468	
592	0	32432	
593	0	32388	
594	0	32372	
595	0	32340	
596	0	32348	
597	0	32344	
598	0	32324	
599	0	32308	
600	0	32340	
601	0	32356	
602	0	32368	
603	0	32373	
604	0	32360	
605	0	32356	
606	0	32408	
607	0	32484	
608	0	32592	
609	0	32720	
610	0	32824	
611	0	32912	
612	0	32952	
613	0	32976	
614	0	33040	
615	0	33104	
616	0	33216	
617	0	33320	
618	0	33332	
619	0	33300	
620	0	33284	
621	0	33268	
622	0	33250	
623	0	33216	
624	0	33160	
625	0	33064	
626	0	32916	
627	0	32824	
628	0	32800	
629	0	32828	
630	0	32904	
631	0	32972	
632	0	33024	
633	0	33104	
634	0	33224	
635	0	33420	
636	0	33680	
637	0	33968	
638	0	34234	
639	0	34492	
640	0	34652	
641	0	34792	
642	0	34900	
643	0	34996	
644	0	35106	
645	0	35214	
646	0	35332	
647	0	35416	
648	0	35452	
649	0	35440	
650	0	35340	
651	0	35200	
652	0	35052	
653	0	34824	
654	0	34592	
655	0	34412	
656	0	34276	
657	0	34136	
658	0	33980	
659	0	33844	
660	0	33708	
661	0	33596	
662	0	33520	
663	0	33400	
664	0	33268	
665	0	33132	
666	0	32976	
667	0	32888	
668	0	32848	
669	0	32768	
670	0	32668	
671	0	32608	
672	0	32576	
673	0	32544	
674	0	32472	
675	0	32344	
676	0	32200	
677	0	32104	
678	0	32048	
679	0	32016	
680	0	31936	
681	0	31856	
682	0	31770	
683	0	31640	
684	0	31536	
685	0	31480	
686	0	31416	
687	0	31368	
688	0	31330	
689	0	31288	
690	0	31188	
691	0	31092	
692	0	31088	
693	0	31100	
694	0	31112	
695	0	31100	
696	0	31116	
697	0	31084	
698	0	31056	
699	0	31074	
700	0	31112	
701	0	31138	
702	0	31168	
703	0	31188	
704	0	31232	
705	0	31296	
706	0	31328	
707	0	31348	
708	0	31376	
709	0	31392	
710	0	31388	
711	0	31368	
712	0	31372	
713	0	31368	
714	0	31388	
715	0	31424	
716	0	31482	
717	0	31504	
718	0	31524	
719	0	31544	
720	0	31564	
721	0	31588	
722	0	31620	
723	0	31648	
724	0	31656	
725	0	31696	
726	0	31720	
727	0	31712	
728	0	31736	
729	0	31598	
730	0	31406	
731	0	31128	
732	0	30644	
733	0	30016	
734	0	29296	
735	0	28692	
736	0	28304	
737	0	28132	
738	0	28204	
739	0	28424	
740	0	28860	
741	0	29504	
742	0	30408	
743	0	31632	
744	0	33116	
745	0	34768	
746	0	36642	
747	0	38648	
748	0	40896	
749	0	43488	
750	0	46388	
751	0	49908	
752	0	53904	
753	0	57904	
754	0	61304	
755	0	63320	
756	0	64356	
757	0	64860	
758	0	65088	
759	0	65144	
760	0	65112	
761	0	65040	
762	0	64952	
763	0	64824	
764	0	64704	
765	0	64560	
766	0	64436	
767	0	61108	
768	0	54984	
769	0	50056	
770	0	46024	
771	0	42608	
772	0	39664	
773	0	37044	
774	0	34744	
775	0	32900	
776	0	31556	
777	0	30496	
778	0	29584	
779	0	28864	
780	0	28264	
781	0	27898	
782	0	27552	
783	0	27300	
784	0	27228	
785	0	27180	
786	0	27012	
787	0	26784	
788	0	26580	
789	0	26496	
790	0	26524	
791	0	26702	
792	0	26912	
793	0	27128	
794	0	27360	
795	0	27642	
796	0	27926	
797	0	28120	
798	0	28260	
799	0	28328	
800	0	28352	
801	0	28352	
802	0	28404	
803	0	28452	
804	0	28460	
805	0	28428	
806	0	28448	
807	0	28460	
808	0	28468	
809	0	28512	
810	0	28512	
811	0	28540	
812	0	28556	
813	0	28576	
814	0	28540	
815	0	28496	
816	0	28480	
817	0	28492	
818	0	28540	
819	0	28540	
820	0	28552	
821	0	28602	
822	0	28660	
823	0	28710	
824	0	28760	
825	0	28848	
826	0	28976	
827	0	29040	
828	0	29104	
829	0	29204	
830	0	29328	
831	0	29376	
832	0	29414	
833	0	29466	
834	0	29512	
835	0	29560	
836	0	29586	
837	0	29532	
838	0	29408	
839	0	29350	
840	0	29384	
841	0	29472	
842	0	29568	
843	0	29646	
844	0	29712	
845	0	29748	
846	0	29796	
847	0	29904	
848	0	30008	
849	0	30088	
850	0	30136	
851	0	30214	
852	0	30300	
853	0	30344	
854	0	30420	
855	0	30488	
856	0	30560	
857	0	30656	
858	0	30668	
859	0	30596	
860	0	30552	
861	0	30548	
862	0	30560	
863	0	30560	
864	0	30576	
865	0	30666	
866	0	30744	
867	0	30814	
868	0	30828	
869	0	30844	
870	0	30888	
871	0	30996	
872	0	31036	
873	0	31040	
874	0	31084	
875	0	31164	
876	0	31200	
877	0	31232	
878	0	31262	
879	0	31296	
880	0	31350	
881	0	31404	
882	0	31460	
883	0	31488	
884	0	31552	
885	0	31620	
886	0	31724	
887	0	31820	
888	0	31872	
889	0	31940	
890	0	32024	
891	0	32074	
892	0	32076	
893	0	32076	
894	0	32076	
895	0	32132	
896	0	32224	
897	0	32336	
898	0	32440	
899	0	32442	
900	0	32464	
901	0	32536	
902	0	32552	
903	0	32584	
904	0	32648	
905	0	32746	
906	0	32838	
907	0	32920	
908	0	32964	
909	0	32992	
910	0	33040	
911	0	33100	
912	0	33206	
913	0	33312	
914	0	33440	
915	0	33516	
916	0	33576	
917	0	33688	
918	0	33772	
919	0	33904	
920	0	33972	
921	0	34000	
922	0	34108	
923	0	34188	
924	0	34248	
925	0	34320	
926	0	34404	
927	0	34468	
928	0	34502	
929	0	34616	
930	0	34752	
931	0	34864	
932	0	34944	
933	0	35060	
934	0	35172	
935	0	35212	
936	0	35224	
937	0	35252	
938	0	35328	
939	0	35406	
940	0	35472	
941	0	35528	
942	0	35628	
943	0	35668	
944	0	35688	
945	0	35760	
946	0	35820	
947	0	35888	
948	0	35948	
949	0	36004	
950	0	36008	
951	0	36044	
952	0	36092	
953	0	36152	
954	0	36212	
955	0	36256	
956	0	36272	
957	0	36264	
958	0	36268	
959	0	36296	
960	0	36284	
961	0	36290	
962	0	36304	
963	0	36300	
964	0	36276	
965	0	36264	
966	0	36224	
967	0	36200	
968	0	36176	
969	0	36160	
970	0	36184	
971	0	36204	
972	0	36196	
973	0	36144	
974	0	36076	
975	0	36062	
976	0	36056	
977	0	35976	
978	0	35904	
979	0	35826	
980	0	35732	
981	0	35632	
982	0	35520	
983	0	35416	
984	0	35284	
985	0	35140	
986	0	35004	
987	0	34836	
988	0	34734	
989	0	34596	
990	0	34380	
991	0	34224	
992	0	34088	
993	0	33960	
994	0	33848	
995	0	33660	
996	0	33410	
997	0	33148	
998	0	32960	
999	0	32812	
1000	0	32700	
1001	0	32560	
1002	0	32424	
1003	0	32332	
1004	0	32220	
1005	0	32092	
1006	0	31940	
1007	0	31700	
1008	0	31372	
1009	0	31060	
1010	0	30893	
1011	0	30736	
1012	0	30536	
1013	0	30400	
1014	0	30352	
1015	0	30288	
1016	0	30164	
1017	0	30052	
1018	0	29993	
1019	0	29964	
1020	0	29920	
1021	0	29832	
1022	0	29712	
1023	0	29572	
1024	0	29520	
1025	0	29408	
1026	0	29240	
1027	0	29132	
1028	0	29080	
1029	0	29024	
1030	0	28992	
1031	0	29016	
1032	0	29032	
1033	0	29032	
1034	0	29076	
1035	0	29112	
1036	0	29092	
1037	0	29024	
1038	0	28924	
1039	0	28864	
1040	0	28780	
1041	0	28760	
1042	0	28728	
1043	0	28708	
1044	0	28652	
1045	0	28626	
1046	0	28624	
1047	0	28632	
1048	0	28644	
1049	0	28680	
1050	0	28750	
1051	0	28812	
1052	0	28848	
1053	0	28860	
1054	0	28906	
1055	0	28972	
1056	0	29000	
1057	0	29056	
1058	0	29076	
1059	0	29104	
1060	0	29128	
1061	0	29140	
1062	0	29168	
1063	0	29196	
1064	0	29210	
1065	0	29230	
1066	0	29256	
1067	0	29288	
1068	0	29316	
1069	0	29412	
1070	0	29472	
1071	0	29480	
1072	0	29504	
1073	0	29564	
1074	0	29628	
1075	0	29708	
1076	0	29732	
1077	0	29736	
1078	0	29760	
1079	0	29768	
1080	0	29776	
1081	0	29776	
1082	0	29788	
1083	0	29824	
1084	0	29804	
1085	0	29848	
1086	0	29948	
1087	0	30044	
1088	0	30104	
1089	0	30202	
1090	0	30296	
1091	0	30400	
1092	0	30480	
1093	0	30504	
1094	0	30468	
1095	0	30378	
1096	0	30380	
1097	0	30476	
1098	0	30504	
1099	0	30504	
1100	0	30504	
1101	0	30480	
1102	0	30512	
1103	0	30548	
1104	0	30554	
1105	0	30548	
1106	0	30572	
1107	0	30608	
1108	0	30690	
1109	0	30736	
1110	0	30784	
1111	0	30876	
1112	0	30960	
1113	0	31068	
1114	0	31152	
1115	0	31180	
1116	0	31152	
1117	0	31166	
1118	0	31216	
1119	0	31236	
1120	0	31300	
1121	0	31354	
1122	0	31384	
1123	0	31416	
1124	0	31426	
1125	0	31406	
1126	0	31392	
1127	0	31392	
1128	0	31436	
1129	0	31492	
1130	0	31484	
1131	0	31464	
1132	0	31508	
1133	0	31580	
1134	0	31628	
1135	0	31672	
1136	0	31696	
1137	0	31724	
1138	0	31728	
1139	0	31788	
1140	0	31808	
1141	0	31836	
1142	0	31838	
1143	0	31832	
1144	0	31840	
1145	0	31866	
1146	0	31928	
1147	0	31980	
1148	0	32016	
1149	0	32032	
1150	0	32000	
1151	0	32028	
1152	0	32044	
1153	0	32000	
1154	0	31964	
1155	0	31972	
1156	0	31968	
1157	0	31990	
1158	0	32064	
1159	0	32128	
1160	0	32192	
1161	0	32244	
1162	0	32272	
1163	0	32288	
1164	0	32328	
1165	0	32360	
1166	0	32348	
1167	0	32336	
1168	0	32324	
1169	0	32344	
1170	0	32388	
1171	0	32416	
1172	0	32426	
1173	0	32372	
1174	0	32340	
1175	0	32336	
1176	0	32324	
1177	0	32312	
1178	0	32308	
1179	0	32344	
1180	0	32392	
1181	0	32416	
1182	0	32432	
1183	0	32396	
1184	0	32360	
1185	0	32364	
1186	0	32354	
1187	0	32340	
1188	0	32316	
1189	0	32328	
1190	0	32344	
1191	0	32288	
1192	0	32200	
1193	0	32200	
1194	0	32256	
1195	0	32296	
1196	0	32332	
1197	0	32334	
1198	0	32304	
1199	0	32308	
1200	0	32332	
1201	0	32388	
1202	0	32444	
1203	0	32496	
1204	0	32528	
1205	0	32524	
1206	0	32560	
1207	0	32544	
1208	0	32520	
1209	0	32448	
1210	0	32316	
1211	0	32308	
1212	0	32312	
1213	0	32262	
1214	0	32264	
1215	0	32272	
1216	0	32304	
1217	0	32368	
1218	0	32416	
1219	0	32440	
1220	0	32468	
1221	0	32428	
1222	0	32400	
1223	0	32388	
1224	0	32420	
1225	0	32460	
1226	0	32472	
1227	0	32512	
1228	0	32576	
1229	0	32588	
1230	0	32592	
1231	0	32648	
1232	0	32680	
1233	0	32648	
1234	0	32564	
1235	0	32496	
1236	0	32478	
1237	0	32472	
1238	0	32456	
1239	0	32408	
1240	0	32364	
1241	0	32380	
1242	0	32428	
1243	0	32456	
1244	0	32484	
1245	0	32528	
1246	0	32528	
1247	0	32548	
1248	0	32560	
1249	0	32576	
1250	0	32596	
1251	0	32560	
1252	0	32544	
1253	0	32580	
1254	0	32592	
1255	0	32584	
1256	0	32600	
1257	0	32544	
1258	0	32468	
1259	0	32480	
1260	0	32504	
1261	0	32544	
1262	0	32570	
1263	0	32532	
1264	0	32480	
1265	0	32448	
1266	0	32408	
1267	0	32408	
1268	0	32432	
1269	0	32464	
1270	0	32480	
1271	0	32472	
1272	0	32484	
1273	0	32536	
1274	0	32564	
1275	0	32532	
1276	0	32500	
1277	0	32492	
1278	0	32528	
1279	0	32576	
1280	0	32612	
1281	0	32648	
1282	0	32656	
1283	0	32668	
1284	0	32672	
1285	0	32664	
1286	0	32664	
1287	0	32700	
1288	0	32728	
1289	0	32740	
1290	0	32728	
1291	0	32719	
1292	0	32700	
1293	0	32696	
1294	0	32712	
1295	0	32688	
1296	0	32632	
1297	0	32562	
1298	0	32568	
1299	0	32608	
1300	0	32646	
1301	0	32698	
1302	0	32752	
1303	0	32734	
1304	0	32668	
1305	0	32636	
1306	0	32620	
1307	0	32600	
1308	0	32580	
1309	0	32580	
1310	0	32608	
1311	0	32612	
1312	0	32616	
1313	0	32608	
1314	0	32596	
1315	0	32612	
1316	0	32660	
1317	0	32680	
1318	0	32664	
1319	0	32652	
1320	0	32660	
1321	0	32688	
1322	0	32676	
1323	0	32648	
1324	0	32672	
1325	0	32724	
1326	0	32752	
1327	0	32736	
1328	0	32676	
1329	0	32660	
1330	0	32708	
1331	0	32724	
1332	0	32784	
1333	0	32872	
1334	0	32844	
1335	0	32808	
1336	0	32800	
1337	0	32800	
1338	0	32772	
1339	0	32700	
1340	0	32684	
1341	0	32708	
1342	0	32736	
1343	0	32760	
1344	0	32760	
1345	0	32736	
1346	0	32776	
1347	0	32820	
1348	0	32824	
1349	0	32848	
1350	0	32836	
1351	0	32834	
1352	0	32904	
1353	0	32940	
1354	0	32976	
1355	0	33004	
1356	0	33108	
1357	0	33140	
1358	0	33092	
1359	0	32948	
1360	0	32776	
1361	0	32624	
1362	0	32556	
1363	0	32564	
1364	0	32616	
1365	0	32672	
1366	0	32708	
1367	0	32760	
1368	0	32796	
1369	0	32840	
1370	0	32886	
1371	0	32960	
1372	0	33012	
1373	0	33036	
1374	0	33052	
1375	0	33088	
1376	0	33144	
1377	0	33156	
1378	0	33144	
1379	0	33132	
1380	0	33116	
1381	0	33076	
1382	0	33052	
1383	0	33012	
1384	0	33024	
1385	0	33032	
1386	0	33008	
1387	0	33020	
1388	0	33016	
1389	0	33020	
1390	0	33036	
1391	0	33068	
1392	0	33080	
1393	0	33052	
1394	0	33044	
1395	0	33084	
1396	0	33092	
1397	0	33072	
1398	0	33104	
1399	0	33108	
1400	0	33032	
1401	0	33044	
1402	0	33040	
1403	0	32976	
1404	0	32972	
1405	0	32996	
1406	0	32992	
1407	0	32964	
1408	0	32970	
1409	0	32978	
1410	0	32992	
1411	0	32940	
1412	0	32892	
1413	0	32900	
1414	0	32968	
1415	0	33000	
1416	0	33016	
1417	0	33012	
1418	0	33028	
1419	0	33056	
1420	0	33124	
1421	0	33162	
1422	0	33216	
1423	0	33258	
1424	0	33264	
1425	0	33228	
1426	0	33208	
1427	0	33240	
1428	0	33228	
1429	0	33176	
1430	0	33144	
1431	0	33168	
1432	0	33208	
1433	0	33256	
1434	0	33188	
1435	0	33096	
1436	0	33036	
1437	0	33048	
1438	0	33096	
1439	0	33116	
1440	0	33088	
1441	0	33056	
1442	0	33072	
1443	0	33088	
1444	0	33108	
1445	0	33120	
1446	0	33152	
1447	0	33160	
1448	0	33200	
1449	0	33232	
1450	0	33264	
1451	0	33276	
1452	0	33296	
1453	0	33296	
1454	0	33288	
1455	0	33324	
1456	0	33356	
1457	0	33380	
1458	0	33400	
1459	0	33378	
1460	0	33300	
1461	0	33352	
1462	0	33372	
1463	0	33320	
1464	0	33268	
1465	0	33204	
1466	0	33198	
1467	0	33172	
1468	0	33114	
1469	0	33100	
1470	0	33148	
1471	0	33224	
1472	0	33252	
1473	0	33260	
1474	0	33192	
1475	0	33152	
1476	0	33120	
1477	0	33100	
1478	0	33120	
1479	0	33168	
1480	0	33200	
1481	0	33192	
1482	0	33210	
1483	0	33242	
1484	0	33268	
1485	0	33308	
1486	0	33352	
1487	0	33380	
1488	0	33414	
1489	0	33444	
1490	0	33392	
1491	0	33356	
1492	0	33320	
1493	0	33272	
1494	0	33292	
1495	0	33328	
1496	0	33304	
1497	0	33340	
1498	0	33372	
1499	0	33376	
1500	0	33332	
1501	0	33236	
1502	0	33156	
1503	0	33164	
1504	0	33196	
1505	0	33160	
1506	0	33144	
1507	0	33192	
1508	0	33272	
1509	0	33340	
1510	0	33386	
1511	0	33432	
1512	0	33496	
1513	0	33492	
1514	0	33444	
1515	0	33464	
1516	0	33476	
1517	0	33448	
1518	0	33428	
1519	0	33372	
1520	0	33304	
1521	0	33296	
1522	0	33352	
1523	0	33364	
1524	0	33294	
1525	0	33194	
1526	0	33120	
1527	0	33050	
1528	0	32964	
1529	0	32904	
1530	0	32848	
1531	0	32848	
1532	0	32920	
1533	0	33012	
1534	0	33176	
1535	0	33396	
1536	0	33576	
1537	0	33680	
1538	0	33824	
1539	0	33946	
1540	0	34076	
1541	0	34182	
1542	0	34236	
1543	0	34264	
1544	0	34232	
1545	0	34172	
1546	0	34108	
1547	0	34056	
1548	0	34014	
1549	0	34004	
1550	0	34012	
1551	0	34008	
1552	0	33976	
1553	0	34030	
1554	0	34100	
1555	0	34156	
1556	0	34196	
1557	0	34240	
1558	0	34296	
1559	0	34440	
1560	0	34632	
1561	0	34876	
1562	0	35088	
1563	0	35164	
1564	0	35152	
1565	0	35080	
1566	0	34964	
1567	0	34848	
1568	0	34684	
1569	0	34444	
1570	0	34280	
1571	0	34160	
1572	0	34048	
1573	0	33920	
1574	0	33832	
1575	0	33724	
1576	0	33612	
1577	0	33560	
1578	0	33508	
1579	0	33472	
1580	0	33496	
1581	0	33556	
1582	0	33580	
1583	0	33612	
1584	0	33648	
1585	0	33744	
1586	0	33788	
1587	0	33768	
1588	0	33712	
1589	0	33626	
1590	0	33528	
1591	0	33468	
1592	0	33340	
1593	0	33196	
1594	0	33036	
1595	0	32884	
1596	0	32740	
1597	0	32628	
1598	0	32540	
1599	0	32448	
1600	0	32368	
1601	0	32328	
1602	0	32282	
1603	0	32268	
1604	0	32288	
1605	0	32364	
1606	0	32464	
1607	0	32468	
1608	0	32512	
1609	0	32544	
1610	0	32564	
1611	0	32544	
1612	0	32524	
1613	0	32544	
1614	0	32602	
1615	0	32608	
1616	0	32532	
1617	0	32500	
1618	0	32480	
1619	0	32480	
1620	0	32492	
1621	0	32516	
1622	0	32552	
1623	0	32584	
1624	0	32632	
1625	0	32700	
1626	0	32756	
1627	0	32752	
1628	0	32784	
1629	0	32796	
1630	0	32816	
1631	0	32824	
1632	0	32792	
1633	0	32740	
1634	0	32718	
1635	0	32728	
1636	0	32726	
1637	0	32776	
1638	0	32848	
1639	0	32860	
1640	0	32796	
1641	0	32748	
1642	0	32642	
1643	0	32388	
1644	0	31972	
1645	0	31424	
1646	0	30709	
1647	0	29950	
1648	0	29348	
1649	0	28936	
1650	0	28796	
1651	0	28932	
1652	0	29248	
1653	0	29676	
1654	0	30348	
1655	0	31320	
1656	0	32596	
1657	0	34096	
1658	0	35760	
1659	0	37636	
1660	0	39688	
1661	0	42012	
1662	0	44576	
1663	0	47500	
1664	0	50904	
1665	0	54496	
1666	0	58136	
1667	0	61324	
1668	0	63164	
1669	0	64120	
1670	0	64584	
1671	0	64776	
1672	0	64816	
1673	0	64764	
1674	0	64688	
1675	0	64612	
1676	0	64480	
1677	0	64368	
1678	0	64232	
1679	0	64120	
1680	0	63840	
1681	0	57856	
1682	0	53280	
1683	0	49500	
1684	0	46304	
1685	0	43508	
1686	0	40976	
1687	0	38804	
1688	0	37156	
1689	0	35876	
1690	0	34732	
1691	0	33692	
1692	0	32724	
1693	0	31694	
1694	0	30840	
1695	0	30152	
1696	0	29704	
1697	0	29484	
1698	0	29324	
1699	0	29040	
1700	0	28620	
1701	0	28248	
1702	0	27932	
1703	0	27716	
1704	0	27642	
1705	0	27636	
1706	0	27732	
1707	0	27852	
1708	0	27984	
1709	0	28080	
1710	0	28224	
1711	0	28320	
1712	0	28384	
1713	0	28364	
1714	0	28348	
1715	0	28332	
1716	0	28372	
1717	0	28410	
1718	0	28368	
1719	0	28356	
1720	0	28400	
1721	0	28420	
1722	0	28420	
1723	0	28436	
1724	0	28388	
1725	0	28334	
1726	0	28314	
1727	0	28348	
1728	0	28388	
1729	0	28432	
1730	0	28472	
1731	0	28552	
1732	0	28608	
1733	0	28708	
1734	0	28776	
1735	0	28810	
1736	0	28840	
1737	0	28864	
1738	0	28884	
1739	0	28950	
1740	0	28988	
1741	0	29024	
1742	0	29040	
1743	0	29088	
1744	0	29096	
1745	0	29108	
1746	0	29184	
1747	0	29256	
1748	0	29312	
1749	0	29396	
1750	0	29412	
1751	0	29402	
1752	0	29412	
1753	0	29468	
1754	0	29540	
1755	0	29616	
1756	0	29740	
1757	0	29824	
1758	0	29834	
1759	0	29812	
1760	0	29780	
1761	0	29792	
1762	0	29800	
1763	0	29816	
1764	0	29858	
1765	0	29912	
1766	0	29968	
1767	0	30028	
1768	0	30108	
1769	0	30128	
1770	0	30136	
1771	0	30136	
1772	0	30168	
1773	0	30272	
1774	0	30392	
1775	0	30508	
1776	0	30600	
1777	0	30660	
1778	0	30700	
1779	0	30732	
1780	0	30746	
1781	0	30768	
1782	0	30824	
1783	0	30876	
1784	0	30874	
1785	0	30864	
1786	0	30874	
1787	0	30916	
1788	0	30960	
1789	0	31032	
1790	0	31112	
1791	0	31160	
1792	0	31192	
1793	0	31248	
1794	0	31324	
1795	0	31372	
1796	0	31328	
1797	0	31292	
1798	0	31340	
1799	0	31432	
1800	0	31528	
1801	0	31560	
1802	0	31572	
1803	0	31564	
1804	0	31560	
1805	0	31592	
1806	0	31580	
1807	0	31580	
1808	0	31664	
1809	0	31784	
1810	0	31870	
1811	0	31912	
1812	0	31988	
1813	0	32144	
1814	0	32284	
1815	0	32380	
1816	0	32480	
1817	0	32568	
1818	0	32664	
1819	0	32704	
1820	0	32688	
1821	0	32708	
1822	0	32688	
1823	0	32696	
1824	0	32764	
1825	0	32824	
1826	0	32910	
1827	0	32984	
1828	0	33058	
1829	0	33148	
1830	0	33276	
1831	0	33372	
1832	0	33396	
1833	0	33436	
1834	0	33448	
1835	0	33532	
1836	0	33628	
1837	0	33680	
1838	0	33736	
1839	0	33832	
1840	0	33896	
1841	0	33976	
1842	0	34064	
1843	0	34166	
1844	0	34256	
1845	0	34312	
1846	0	34384	
1847	0	34476	
1848	0	34556	
1849	0	34684	
1850	0	34780	
1851	0	34892	
1852	0	35018	
1853	0	35032	
1854	0	35052	
1855	0	35052	
1856	0	35080	
1857	0	35120	
1858	0	35216	
1859	0	35296	
1860	0	35328	
1861	0	35416	
1862	0	35540	
1863	0	35632	
1864	0	35724	
1865	0	35800	
1866	0	35872	
1867	0	35952	
1868	0	36060	
1869	0	36144	
1870	0	36200	
1871	0	36276	
1872	0	36368	
1873	0	36452	
1874	0	36544	
1875	0	36600	
1876	0	36584	
1877	0	36524	
1878	0	36472	
1879	0	36476	
1880	0	36484	
1881	0	36480	
1882	0	36420	
1883	0	36400	
1884	0	36420	
1885	0	36452	
1886	0	36532	
1887	0	36608	
1888	0	36624	
1889	0	36600	
1890	0	36608	
1891	0	36568	
1892	0	36492	
1893	0	36444	
1894	0	36364	
1895	0	36296	
1896	0	36284	
1897	0	36312	
1898	0	36328	
1899	0	36304	
1900	0	36268	
1901	0	36210	
1902	0	36200	
1903	0	36184	
1904	0	36128	
1905	0	36052	
1906	0	35976	
1907	0	35920	
1908	0	35808	
1909	0	35668	
1910	0	35516	
1911	0	35360	
1912	0	35156	
1913	0	34940	
1914	0	34732	
1915	0	34512	
1916	0	34336	
1917	0	34200	
1918	0	34040	
1919	0	33888	
1920	0	33696	
1921	0	33528	
1922	0	33348	
1923	0	33148	
1924	0	32940	
1925	0	32744	
1926	0	32568	
1927	0	32428	
1928	0	32304	
1929	0	32164	
1930	0	32008	
1931	0	31880	
1932	0	31764	
1933	0	31604	
1934	0	31428	
1935	0	31250	
1936	0	31080	
1937	0	30912	
1938	0	30740	
1939	0	30608	
1940	0	30456	
1941	0	30320	
1942	0	30192	
1943	0	30054	
1944	0	29924	
1945	0	29844	
1946	0	29730	
1947	0	29608	
1948	0	29504	
1949	0	29484	
1950	0	29472	
1951	0	29408	
1952	0	29352	
1953	0	29344	
1954	0	29312	
1955	0	29276	
1956	0	29204	
1957	0	29144	
1958	0	29096	
1959	0	29040	
1960	0	29018	
1961	0	29038	
1962	0	29080	
1963	0	29082	
1964	0	29020	
1965	0	28908	
1966	0	28860	
1967	0	28820	
1968	0	28814	
1969	0	28840	
1970	0	28896	
1971	0	28960	
1972	0	28952	
1973	0	28948	
1974	0	28960	
1975	0	28896	
1976	0	28872	
1977	0	28920	
1978	0	28984	
1979	0	29026	
1980	0	29064	
1981	0	29104	
1982	0	29140	
1983	0	29144	
1984	0	29184	
1985	0	29224	
1986	0	29280	
1987	0	29348	
1988	0	29360	
1989	0	29380	
1990	0	29392	
1991	0	29400	
1992	0	29440	
1993	0	29536	
1994	0	29636	
1995	0	29732	
1996	0	29784	
1997	0	29784	
1998	0	29760	
1999	0	29676	
2000	0	29620	
2001	0	29588	
2002	0	29536	
2003	0	29536	
2004	0	29584	
2005	0	29668	
2006	0	29732	
2007	0	29772	
2008	0	29836	
2009	0	29882	
2010	0	29944	
2011	0	30016	
2012	0	30088	
2013	0	30122	
2014	0	30120	
2015	0	30144	
2016	0	30210	
2017	0	30248	
2018	0	30280	
2019	0	30292	
2020	0	30312	
2021	0	30376	
2022	0	30416	
2023	0	30420	
2024	0	30424	
2025	0	30472	
2026	0	30448	
2027	0	30456	
2028	0	30512	
2029	0	30560	
2030	0	30596	
2031	0	30572	
2032	0	30560	
2033	0	30568	
2034	0	30584	
2035	0	30664	
2036	0	30676	
2037	0	30688	
2038	0	30732	
2039	0	30746	
2040	0	30720	
2041	0	30724	
2042	0	30768	
2043	0	30816	
2044	0	30852	
2045	0	30904	
2046	0	30974	
2047	0	31016	
2048	0	31076	
2049	0	31068	
2050	0	31032	
2051	0	31092	
2052	0	31184	
2053	0	31240	
2054	0	31216	
2055	0	31210	
2056	0	31184	
2057	0	31134	
2058	0	31128	
2059	0	31168	
2060	0	31228	
2061	0	31280	
2062	0	31306	
2063	0	31280	
2064	0	31290	
2065	0	31344	
2066	0	31372	
2067	0	31396	
2068	0	31404	
2069	0	31420	
2070	0	31424	
2071	0	31476	
2072	0	31526	
2073	0	31576	
2074	0	31584	
2075	0	31564	
2076	0	31536	
2077	0	31568	
2078	0	31616	
2079	0	31652	
2080	0	31600	
2081	0	31586	
2082	0	31624	
2083	0	31642	
2084	0	31672	
2085	0	31724	
2086	0	31768	
2087	0	31808	
2088	0	31860	
2089	0	31884	
2090	0	31888	
2091	0	31920	
2092	0	31952	
2093	0	31948	
2094	0	31944	
2095	0	31988	
2096	0	32020	
2097	0	32000	
2098	0	31984	
2099	0	31980	
2100	0	31996	
2101	0	31988	
2102	0	31952	
2103	0	31908	
2104	0	31880	
2105	0	31896	
2106	0	31908	
2107	0	31884	
2108	0	31938	
2109	0	31996	
2110	0	32016	
2111	0	32048	
2112	0	32120	
2113	0	32128	
2114	0	32112	
2115	0	32140	
2116	0	32176	
2117	0	32222	
2118	0	32288	
2119	0	32340	
2120	0	32376	
2121	0	32392	
2122	0	32344	
2123	0	32332	
2124	0	32336	
2125	0	32240	
2126	0	32172	
2127	0	32160	
2128	0	32224	
2129	0	32280	
2130	0	32328	
2131	0	32384	
2132	0	32356	
2133	0	32332	
2134	0	32356	
2135	0	32354	
2136	0	32324	
2137	0	32296	
2138	0	32292	
2139	0	32276	
2140	0	32284	
2141	0	32224	
2142	0	32172	
2143	0	32156	
2144	0	32160	
2145	0	32172	
2146	0	32216	
2147	0	32296	
2148	0	32348	
2149	0	32372	
2150	0	32368	
2151	0	32336	
2152	0	32280	
2153	0	32212	
2154	0	32164	
2155	0	32144	
2156	0	32132	
2157	0	32152	
2158	0	32152	
2159	0	32156	
2160	0	32148	
2161	0	32144	
2162	0	32174	
2163	0	32204	
2164	0	32256	
2165	0	32332	
2166	0	32376	
2167	0	32352	
2168	0	32244	
2169	0	32204	
2170	0	32232	
2171	0	32272	
2172	0	32232	
2173	0	32148	
2174	0	32068	
2175	0	32036	
2176	0	32052	
2177	0	32076	
2178	0	32104	
2179	0	32072	
2180	0	32036	
2181	0	31996	
2182	0	32024	
2183	0	32060	
2184	0	32112	
2185	0	32176	
2186	0	32176	
2187	0	32168	
2188	0	32192	
2189	0	32220	
2190	0	32192	
2191	0	32168	
2192	0	32200	
2193	0	32224	
2194	0	32176	
2195	0	32176	
2196	0	32194	
2197	0	32232	
2198	0	32240	
2199	0	32248	
2200	0	32260	
2201	0	32276	
2202	0	32252	
2203	0	32172	
2204	0	32160	
2205	0	32196	
2206	0	32236	
2207	0	32282	
2208	0	32310	
2209	0	32320	
2210	0	32320	
2211	0	32288	
2212	0	32288	
2213	0	32308	
2214	0	32360	
2215	0	32340	
2216	0	32296	
2217	0	32268	
2218	0	32288	
2219	0	32354	
2220	0	32396	
2221	0	32338	
2222	0	32224	
2223	0	32120	
2224	0	32094	
2225	0	32108	
2226	0	32140	
2227	0	32204	
2228	0	32253	
2229	0	32320	
2230	0	32384	
2231	0	32456	
2232	0	32532	
2233	0	32568	
2234	0	32544	
2235	0	32460	
2236	0	32416	
2237	0	32416	
2238	0	32448	
2239	0	32476	
2240	0	32482	
2241	0	32442	
2242	0	32408	
2243	0	32368	
2244	0	32384	
2245	0	32436	
2246	0	32472	
2247	0	32504	
2248	0	32480	
2249	0	32436	
2250	0	32424	
2251	0	32460	
2252	0	32520	
2253	0	32560	
2254	0	32628	
2255	0	32684	
2256	0	32664	
2257	0	32596	
2258	0	32566	
2259	0	32576	
2260	0	32600	
2261	0	32608	
2262	0	32604	
2263	0	32596	
2264	0	32588	
2265	0	32608	
2266	0	32666	
2267	0	32718	
2268	0	32724	
2269	0	32756	
2270	0	32748	
2271	0	32672	
2272	0	32656	
2273	0	32668	
2274	0	32672	
2275	0	32660	
2276	0	32632	
2277	0	32632	
2278	0	32660	
2279	0	32656	
2280	0	32640	
2281	0	32672	
2282	0	32656	
2283	0	32656	
2284	0	32670	
2285	0	32688	
2286	0	32716	
2287	0	32706	
2288	0	32718	
2289	0	32712	
2290	0	32734	
2291	0	32760	
2292	0	32788	
2293	0	32812	
2294	0	32796	
2295	0	32752	
2296	0	32680	
2297	0	32682	
2298	0	32736	
2299	0	32752	
2300	0	32760	
2301	0	32724	
2302	0	32680	
2303	0	32656	
2304	0	32648	
2305	0	32640	
2306	0	32672	
2307	0	32724	
2308	0	32732	
2309	0	32740	
2310	0	32752	
2311	0	32794	
2312	0	32820	
2313	0	32824	
2314	0	32836	
2315	0	32868	
2316	0	32928	
2317	0	32952	
2318	0	32912	
2319	0	32888	
2320	0	32876	
2321	0	32872	
2322	0	32856	
2323	0	32840	
2324	0	32872	
2325	0	32886	
2326	0	32880	
2327	0	32880	
2328	0	32824	
2329	0	32808	
2330	0	32780	
2331	0	32732	
2332	0	32684	
2333	0	32640	
2334	0	32588	
2335	0	32528	
2336	0	32448	
2337	0	32416	
2338	0	32400	
2339	0	32404	
2340	0	32428	
2341	0	32432	
2342	0	32444	
2343	0	32514	
2344	0	32600	
2345	0	32708	
2346	0	32876	
2347	0	33092	
2348	0	33256	
2349	0	33428	
2350	0	33596	
2351	0	33756	
2352	0	33828	
2353	0	33832	
2354	0	33794	
2355	0	33716	
2356	0	33564	
2357	0	33422	
2358	0	33292	
2359	0	33216	
2360	0	33144	
2361	0	33112	
2362	0	33160	
2363	0	33264	
2364	0	33328	
2365	0	33404	
2366	0	33564	
2367	0	33704	
2368	0	33836	
2369	0	33980	
2370	0	34112	
2371	0	34248	
2372	0	34400	
2373	0	34544	
2374	0	34652	
2375	0	34640	
2376	0	34548	
2377	0	34376	
2378	0	34192	
2379	0	34056	
2380	0	33928	
2381	0	33840	
2382	0	33800	
2383	0	33764	
2384	0	33720	
2385	0	33660	
2386	0	33592	
2387	0	33532	
2388	0	33480	
2389	0	33460	
2390	0	33440	
2391	0	33436	
2392	0	33428	
2393	0	33404	
2394	0	33416	
2395	0	33452	
2396	0	33504	
2397	0	33584	
2398	0	33564	
2399	0	33488	
2400	0	33332	
2401	0	33116	
2402	0	32904	
2403	0	32666	
2404	0	32572	
2405	0	32544	
2406	0	32504	
2407	0	32472	
2408	0	32396	
2409	0	32300	
2410	0	32260	
2411	0	32228	
2412	0	32232	
2413	0	32288	
2414	0	32298	
2415	0	32288	
2416	0	32280	
2417	0	32356	
2418	0	32396	
2419	0	32380	
2420	0	32340	
2421	0	32344	
2422	0	32332	
2423	0	32320	
2424	0	32316	
2425	0	32338	
2426	0	32376	
2427	0	32440	
2428	0	32456	
2429	0	32460	
2430	0	32456	
2431	0	32440	
2432	0	32440	
2433	0	32460	
2434	0	32472	
2435	0	32488	
2436	0	32536	
2437	0	32576	
2438	0	32624	
2439	0	32632	
2440	0	32676	
2441	0	32740	
2442	0	32792	
2443	0	32800	
2444	0	32762	
2445	0	32766	
2446	0	32728	
2447	0	32628	
2448	0	32480	
2449	0	32252	
2450	0	31908	
2451	0	31472	
2452	0	30786	
2453	0	30008	
2454	0	29384	
2455	0	29008	
2456	0	28864	
2457	0	28864	
2458	0	29100	
2459	0	29584	
2460	0	30332	
2461	0	31256	
2462	0	32448	
2463	0	33852	
2464	0	35440	
2465	0	37228	
2466	0	39136	
2467	0	41328	
2468	0	43936	
2469	0	46872	
2470	0	50456	
2471	0	54252	
2472	0	57952	
2473	0	61164	
2474	0	63100	
2475	0	64088	
2476	0	64588	
2477	0	64776	
2478	0	64832	
2479	0	64800	
2480	0	64728	
2481	0	64620	
2482	0	64516	
2483	0	64400	
2484	0	64264	
2485	0	64136	
2486	0	61584	
2487	0	55984	
2488	0	51604	
2489	0	48016	
2490	0	45028	
2491	0	42456	
2492	0	40124	
2493	0	37980	
2494	0	36108	
2495	0	34524	
2496	0	33144	
2497	0	31912	
2498	0	30728	
2499	0	29748	
2500	0	29084	
2501	0	28604	
2502	0	28344	
2503	0	28298	
2504	0	28196	
2505	0	28008	
2506	0	27732	
2507	0	27504	
2508	0	27348	
2509	0	27332	
2510	0	27424	
2511	0	27592	
2512	0	27824	
2513	0	28004	
2514	0	28204	
2515	0	28412	
2516	0	28608	
2517	0	28768	
2518	0	28852	
2519	0	28768	
2520	0	28680	
2521	0	28600	
2522	0	28560	
2523	0	28524	
2524	0	28520	
2525	0	28512	
2526	0	28496	
2527	0	28480	
2528	0	28444	
2529	0	28384	
2530	0	28452	
2531	0	28504	
2532	0	28568	
2533	0	28608	
2534	0	28628	
2535	0	28652	
2536	0	28737	
2537	0	28826	
2538	0	28896	
2539	0	28918	
2540	0	28944	
2541	0	28992	
2542	0	29056	
2543	0	29052	
2544	0	29044	
2545	0	29032	
2546	0	29068	
2547	0	29104	
2548	0	29124	
2549	0	29180	
2550	0	29204	
2551	0	29284	
2552	0	29416	
2553	0	29488	
2554	0	29528	
2555	0	29508	
2556	0	29544	
2557	0	29588	
2558	0	29572	
2559	0	29572	
2560	0	29608	
2561	0	29632	
2562	0	29662	
2563	0	29704	
2564	0	29736	
2565	0	29768	
2566	0	29856	
2567	0	29956	
2568	0	30052	
2569	0	30172	
2570	0	30218	
2571	0	30256	
2572	0	30292	
2573	0	30330	
2574	0	30360	
2575	0	30372	
2576	0	30388	
2577	0	30408	
2578	0	30472	
2579	0	30568	
2580	0	30640	
2581	0	30688	
2582	0	30700	
2583	0	30702	
2584	0	30680	
2585	0	30720	
2586	0	30778	
2587	0	30848	
2588	0	30892	
2589	0	30922	
2590	0	30954	
2591	0	30964	
2592	0	30968	
2593	0	31040	
2594	0	31152	
2595	0	31184	
2596	0	31248	
2597	0	31310	
2598	0	31388	
2599	0	31464	
2600	0	31504	
2601	0	31592	
2602	0	31652	
2603	0	31648	
2604	0	31648	
2605	0	31696	
2606	0	31752	
2607	0	31824	
2608	0	31900	
2609	0	31960	
2610	0	32008	
2611	0	32056	
2612	0	32068	
2613	0	32072	
2614	0	32092	
2615	0	32164	
2616	0	32236	
2617	0	32276	
2618	0	32280	
2619	0	32312	
2620	0	32344	
2621	0	32368	
2622	0	32384	
2623	0	32464	
2624	0	32584	
2625	0	32700	
2626	0	32808	
2627	0	32904	
2628	0	33016	
2629	0	33112	
2630	0	33168	
2631	0	33180	
2632	0	33244	
2633	0	33376	
2634	0	33476	
2635	0	33536	
2636	0	33556	
2637	0	33648	
2638	0	33782	
2639	0	33908	
2640	0	33944	
2641	0	33972	
2642	0	33992	
2643	0	34006	
2644	0	34032	
2645	0	34140	
2646	0	34312	
2647	0	34452	
2648	0	34560	
2649	0	34656	
2650	0	34698	
2651	0	34784	
2652	0	34920	
2653	0	35064	
2654	0	35172	
2655	0	35276	
2656	0	35364	
2657	0	35444	
2658	0	35544	
2659	0	35672	
2660	0	35800	
2661	0	35904	
2662	0	35968	
2663	0	36024	
2664	0	36028	
2665	0	36056	
2666	0	36128	
2667	0	36252	
2668	0	36344	
2669	0	36384	
2670	0	36434	
2671	0	36522	
2672	0	36630	
2673	0	36736	
2674	0	36800	
2675	0	36900	
2676	0	36972	
2677	0	36996	
2678	0	37076	
2679	0	37152	
2680	0	37212	
2681	0	37220	
2682	0	37212	
2683	0	37200	
2684	0	37176	
2685	0	37168	
2686	0	37160	
2687	0	37128	
2688	0	37116	
2689	0	37144	
2690	0	37156	
2691	0	37172	
2692	0	37192	
2693	0	37196	
2694	0	37180	
2695	0	37116	
2696	0	37060	
2697	0	36996	
2698	0	36984	
2699	0	36968	
2700	0	36928	
2701	0	36844	
2702	0	36748	
2703	0	36640	
2704	0	36540	
2705	0	36464	
2706	0	36340	
2707	0	36200	
2708	0	36084	
2709	0	35964	
2710	0	35844	
2711	0	35732	
2712	0	35604	
2713	0	35436	
2714	0	35252	
2715	0	35056	
2716	0	34844	
2717	0	34624	
2718	0	34396	
2719	0	34184	
2720	0	33968	
2721	0	33716	
2722	0	33440	
2723	0	33232	
2724	0	33048	
2725	0	32826	
2726	0	32556	
2727	0	32262	
2728	0	31996	
2729	0	31800	
2730	0	31632	
2731	0	31428	
2732	0	31224	
2733	0	31076	
2734	0	30962	
2735	0	30820	
2736	0	30668	
2737	0	30522	
2738	0	30392	
2739	0	30248	
2740	0	30092	
2741	0	29948	
2742	0	29792	
2743	0	29684	
2744	0	29588	
2745	0	29460	
2746	0	29314	
2747	0	29192	
2748	0	29096	
2749	0	29028	
2750	0	28978	
2751	0	28916	
2752	0	28826	
2753	0	28720	
2754	0	28660	
2755	0	28596	
2756	0	28504	
2757	0	28386	
2758	0	28300	
2759	0	28238	
2760	0	28192	
2761	0	28158	
2762	0	28156	
2763	0	28160	
2764	0	28104	
2765	0	28068	
2766	0	28042	
2767	0	28080	
2768	0	28144	
2769	0	28192	
2770	0	28244	
2771	0	28286	
2772	0	28332	
2773	0	28306	
2774	0	28316	
2775	0	28360	
2776	0	28356	
2777	0	28348	
2778	0	28356	
2779	0	28364	
2780	0	28398	
2781	0	28412	
2782	0	28420	
2783	0	28428	
2784	0	28412	
2785	0	28432	
2786	0	28436	
2787	0	28400	
2788	0	28420	
2789	0	28464	
2790	0	28512	
2791	0	28536	
2792	0	28506	
2793	0	28512	
2794	0	28612	
2795	0	28728	
2796	0	28824	
2797	0	28864	
2798	0	28896	
2799	0	28880	
2800	0	28836	
2801	0	28782	
2802	0	28776	
2803	0	28792	
2804	0	28818	
2805	0	28880	
2806	0	28900	
2807	0	28968	
2808	0	28996	
2809	0	28996	
2810	0	29084	
2811	0	29180	
2812	0	29232	
2813	0	29250	
2814	0	29292	
2815	0	29348	
2816	0	29356	
2817	0	29316	
2818	0	29294	
2819	0	29312	
2820	0	29408	
2821	0	29528	
2822	0	29604	
2823	0	29636	
2824	0	29656	
2825	0	29726	
2826	0	29800	
2827	0	29876	
2828	0	29912	
2829	0	29914	
2830	0	29912	
2831	0	29960	
2832	0	30012	
2833	0	30036	
2834	0	30056	
2835	0	30060	
2836	0	30052	
2837	0	30080	
2838	0	30104	
2839	0	30108	
2840	0	30080	
2841	0	30124	
2842	0	30220	
2843	0	30248	
2844	0	30280	
2845	0	30320	
2846	0	30388	
2847	0	30414	
2848	0	30460	
2849	0	30540	
2850	0	30640	
2851	0	30716	
2852	0	30788	
2853	0	30838	
2854	0	30896	
2855	0	30940	
2856	0	30816	
2857	0	30740	
2858	0	30692	
2859	0	30744	
2860	0	30810	
2861	0	30864	
2862	0	30872	
2863	0	30852	
2864	0	30816	
2865	0	30864	
2866	0	30968	
2867	0	31064	
2868	0	31176	
2869	0	31296	
2870	0	31356	
2871	0	31330	
2872	0	31352	
2873	0	31392	
2874	0	31440	
2875	0	31420	
2876	0	31436	
2877	0	31464	
2878	0	31524	
2879	0	31600	
2880	0	31656	
2881	0	31680	
2882	0	31704	
2883	0	31740	
2884	0	31796	
2885	0	31820	
2886	0	31856	
2887	0	31872	
2888	0	31792	
2889	0	31736	
2890	0	31740	
2891	0	31770	
2892	0	31760	
2893	0	31736	
2894	0	31744	
2895	0	31768	
2896	0	31792	
2897	0	31796	
2898	0	31824	
2899	0	31828	
2900	0	31880	
2901	0	31936	
2902	0	31994	
2903	0	32124	
2904	0	32232	
2905	0	32204	
2906	0	32080	
2907	0	32022	
2908	0	31984	
2909	0	31926	
2910	0	31952	
2911	0	32060	
2912	0	32196	
2913	0	32288	
2914	0	32296	
2915	0	32320	
2916	0	32328	
2917	0	32226	
2918	0	32188	
2919	0	32296	
2920	0	32404	
2921	0	32456	
2922	0	32416	
2923	0	32268	
2924	0	32168	
2925	0	32136	
2926	0	32176	
2927	0	32144	
2928	0	32084	
2929	0	32144	
2930	0	32212	
2931	0	32184	
2932	0	32124	
2933	0	32108	
2934	0	32116	
2935	0	32080	
2936	0	32008	
2937	0	31996	
2938	0	32040	
2939	0	32092	
2940	0	32144	
2941	0	32132	
2942	0	32072	
2943	0	32060	
2944	0	32088	
2945	0	32128	
2946	0	32220	
2947	0	32356	
2948	0	32412	
2949	0	32416	
2950	0	32304	
2951	0	32044	
2952	0	31904	
2953	0	31892	
2954	0	31980	
2955	0	32032	
2956	0	32088	
2957	0	32164	
2958	0	32240	
2959	0	32312	
2960	0	32304	
2961	0	32224	
2962	0	32124	
2963	0	32112	
2964	0	32128	
2965	0	32076	
2966	0	32024	
2967	0	32016	
2968	0	32024	
2969	0	32056	
2970	0	32084	
2971	0	32110	
2972	0	32096	
2973	0	32080	
2974	0	32060	
2975	0	32060	
2976	0	32076	
2977	0	32136	
2978	0	32170	
2979	0	32200	
2980	0	32216	
2981	0	32212	
2982	0	32228	
2983	0	32288	
2984	0	32352	
2985	0	32320	
2986	0	32272	
2987	0	32244	
2988	0	32252	
2989	0	32232	
2990	0	32244	
2991	0	32272	
2992	0	32244	
2993	0	32236	
2994	0	32264	
2995	0	32284	
2996	0	32308	
2997	0	32344	
2998	0	32364	
2999	0	32352	
3000	0	32332	
3001	0	32244	
3002	0	32164	
3003	0	32090	
3004	0	31988	
3005	0	31940	
3006	0	31964	
3007	0	31968	
3008	0	32064	
3009	0	32216	
3010	0	32190	
3011	0	32072	
3012	0	31980	
3013	0	31944	
3014	0	32000	
3015	0	32114	
3016	0	32188	
3017	0	32236	
3018	0	32272	
3019	0	32276	
3020	0	32272	
3021	0	32300	
3022	0	32344	
3023	0	32360	
3024	0	32274	
3025	0	32128	
3026	0	32080	
3027	0	32172	
3028	0	32224	
3029	0	32248	
3030	0	32296	
3031	0	32352	
3032	0	32428	
3033	0	32488	
3034	0	32516	
3035	0	32522	
3036	0	32460	
3037	0	32472	
3038	0	32504	
3039	0	32576	
3040	0	32620	
3041	0	32652	
3042	0	32684	
3043	0	32656	
3044	0	32728	
3045	0	32816	
3046	0	32816	
3047	0	32800	
3048	0	32778	
3049	0	32768	
3050	0	32750	
3051	0	32752	
3052	0	32868	
3053	0	33008	
3054	0	33000	
3055	0	32912	
3056	0	32900	
3057	0	32932	
3058	0	32992	
3059	0	33040	
3060	0	33092	
3061	0	33132	
3062	0	33116	
3063	0	33108	
3064	0	33140	
3065	0	33176	
3066	0	33280	
3067	0	33420	
3068	0	33508	
3069	0	33504	
3070	0	33468	
3071	0	33328	
3072	0	33216	
3073	0	33200	
3074	0	33192	
3075	0	33156	
3076	0	33152	
3077	0	33126	
3078	0	33072	
3079	0	33032	
3080	0	33048	
3081	0	33104	
3082	0	33166	
3083	0	33246	
3084	0	33324	
3085	0	33396	
3086	0	33380	
3087	0	33360	
3088	0	33284	
3089	0	33148	
3090	0	33088	
3091	0	33144	
3092	0	33272	
3093	0	33340	
3094	0	33304	
3095	0	33196	
3096	0	33120	
3097	0	33154	
3098	0	33200	
3099	0	33164	
3100	0	33108	
3101	0	33100	
3102	0	33092	
3103	0	33056	
3104	0	32960	
3105	0	32904	
3106	0	32960	
3107	0	33048	
3108	0	33090	
3109	0	33032	
3110	0	32996	
3111	0	33016	
3112	0	33088	
3113	0	33148	
3114	0	33168	
3115	0	33184	
3116	0	33172	
3117	0	33152	
3118	0	33136	
3119	0	33112	
3120	0	33160	
3121	0	33132	
3122	0	33048	
3123	0	33024	
3124	0	33120	
3125	0	33220	
3126	0	33198	
3127	0	33120	
3128	0	33028	
3129	0	33008	
3130	0	33088	
3131	0	33224	
3132	0	33244	
3133	0	33172	
3134	0	33152	
3135	0	33160	
3136	0	33184	
3137	0	33184	
3138	0	33012	
3139	0	32882	
3140	0	32844	
3141	0	32802	
3142	0	32808	
3143	0	32784	
3144	0	32784	
3145	0	32844	
3146	0	32944	
3147	0	32988	
3148	0	32952	
3149	0	32928	
3150	0	32860	
3151	0	32868	
3152	0	32848	
3153	0	32904	
3154	0	32924	
3155	0	32956	
3156	0	33004	
3157	0	32904	
3158	0	32772	
3159	0	32776	
3160	0	32794	
3161	0	32700	
3162	0	32576	
3163	0	32640	
3164	0	32720	
3165	0	32744	
3166	0	32780	
3167	0	32800	
3168	0	32824	
3169	0	32868	
3170	0	32917	
3171	0	33076	
3172	0	33220	
3173	0	33260	
3174	0	33240	
3175	0	33260	
3176	0	33404	
3177	0	33562	
3178	0	33660	
3179	0	33676	
3180	0	33668	
3181	0	33688	
3182	0	33624	
3183	0	33540	
3184	0	33456	
3185	0	33476	
3186	0	33552	
3187	0	33556	
3188	0	33488	
3189	0	33392	
3190	0	33364	
3191	0	33304	
3192	0	33276	
3193	0	33256	
3194	0	33324	
3195	0	33380	
3196	0	33498	
3197	0	33648	
3198	0	33722	
3199	0	33856	
3200	0	33996	
3201	0	34156	
3202	0	34404	
3203	0	34632	
3204	0	34764	
3205	0	34880	
3206	0	34926	
3207	0	34968	
3208	0	35072	
3209	0	35264	
3210	0	35336	
3211	0	35312	
3212	0	35324	
3213	0	35320	
3214	0	35332	
3215	0	35368	
3216	0	35324	
3217	0	35148	
3218	0	35112	
3219	0	35116	
3220	0	35028	
3221	0	34904	
3222	0	34724	
3223	0	34588	
3224	0	34512	
3225	0	34476	
3226	0	34368	
3227	0	34176	
3228	0	34000	
3229	0	33856	
3230	0	33852	
3231	0	33828	
3232	0	33688	
3233	0	33500	
3234	0	33248	
3235	0	33024	
3236	0	32946	
3237	0	33000	
3238	0	33072	
3239	0	33044	
3240	0	32976	
3241	0	32888	
3242	0	32794	
3243	0	32784	
3244	0	32800	
3245	0	32720	
3246	0	32600	
3247	0	32532	
3248	0	32460	
3249	0	32392	
3250	0	32352	
3251	0	32312	
3252	0	32244	
3253	0	32212	
3254	0	32180	
3255	0	32112	
3256	0	32032	
3257	0	31988	
3258	0	31986	
3259	0	32026	
3260	0	32024	
3261	0	32024	
3262	0	32148	
3263	0	32188	
3264	0	32180	
3265	0	32152	
3266	0	32178	
3267	0	32224	
3268	0	32312	
3269	0	32360	
3270	0	32328	
3271	0	32352	
3272	0	32392	
3273	0	32396	
3274	0	32374	
3275	0	32314	
3276	0	32292	
3277	0	32298	
3278	0	32272	
3279	0	32216	
3280	0	32096	
3281	0	32116	
3282	0	32248	
3283	0	32388	
3284	0	32392	
3285	0	32386	
3286	0	32384	
3287	0	32414	
3288	0	32416	
3289	0	32398	
3290	0	32356	
3291	0	32332	
3292	0	32232	
3293	0	32120	
3294	0	31908	
3295	0	31584	
3296	0	30896	
3297	0	29964	
3298	0	29128	
3299	0	28640	
3300	0	28460	
3301	0	28412	
3302	0	28416	
3303	0	28608	
3304	0	29088	
3305	0	29944	
3306	0	30976	
3307	0	32118	
3308	0	33428	
3309	0	35028	
3310	0	36836	
3311	0	38864	
3312	0	41272	
3313	0	44008	
3314	0	47168	
3315	0	50856	
3316	0	54700	
3317	0	58368	
3318	0	61504	
3319	0	63320	
3320	0	64240	
3321	0	64704	
3322	0	64880	
3323	0	64916	
3324	0	64864	
3325	0	64796	
3326	0	64692	
3327	0	64576	
3328	0	64460	
3329	0	64336	
3330	0	64208	
3331	0	60228	
3332	0	55152	
3333	0	51148	
3334	0	47744	
3335	0	44904	
3336	0	42344	
3337	0	39972	
3338	0	37904	
3339	0	36122	
3340	0	34556	
3341	0	33088	
3342	0	31836	
3343	0	30752	
3344	0	29904	
3345	0	29230	
3346	0	28840	
3347	0	28728	
3348	0	28688	
3349	0	28570	
3350	0	28232	
3351	0	27884	
3352	0	27612	
3353	0	27412	
3354	0	27292	
3355	0	27277	
3356	0	27344	
3357	0	27524	
3358	0	27762	
3359	0	27968	
3360	0	28272	
3361	0	28552	
3362	0	28674	
3363	0	28604	
3364	0	28444	
3365	0	28324	
3366	0	28278	
3367	0	28328	
3368	0	28280	
3369	0	28144	
3370	0	28068	
3371	0	28008	
3372	0	28020	
3373	0	28088	
3374	0	28152	
3375	0	28196	
3376	0	28252	
3377	0	28180	
3378	0	28208	
3379	0	28282	
3380	0	28312	
3381	0	28384	
3382	0	28528	
3383	0	28592	
3384	0	28544	
3385	0	28604	
3386	0	28568	
3387	0	28560	
3388	0	28640	
3389	0	28680	
3390	0	28720	
3391	0	28728	
3392	0	28712	
3393	0	28732	
3394	0	28744	
3395	0	28756	
3396	0	28896	
3397	0	29048	
3398	0	29012	
3399	0	29076	
3400	0	29288	
3401	0	29440	
3402	0	29464	
3403	0	29432	
3404	0	29376	
3405	0	29352	
3406	0	29416	
3407	0	29496	
3408	0	29544	
3409	0	29572	
3410	0	29660	
3411	0	29740	
3412	0	29748	
3413	0	29672	
3414	0	29560	
3415	0	29664	
3416	0	29880	
3417	0	29966	
3418	0	30036	
3419	0	30088	
3420	0	30080	
3421	0	30104	
3422	0	30130	
3423	0	30184	
3424	0	30228	
3425	0	30324	
3426	0	30408	
3427	0	30480	
3428	0	30640	
3429	0	30788	
3430	0	30820	
3431	0	30780	
3432	0	30746	
3433	0	30776	
3434	0	30808	
3435	0	30906	
3436	0	30956	
3437	0	30988	
3438	0	30992	
3439	0	30976	
3440	0	30932	
3441	0	30960	
3442	0	31032	
3443	0	31040	
3444	0	31228	
3445	0	31416	
3446	0	31352	
3447	0	31360	
3448	0	31472	
3449	0	31592	
3450	0	31700	
3451	0	31760	
3452	0	31724	
3453	0	31716	
3454	0	31808	
3455	0	31904	
3456	0	32012	
3457	0	32048	
3458	0	32028	
3459	0	32064	
3460	0	32172	
3461	0	32152	
3462	0	32152	
3463	0	32196	
3464	0	32304	
3465	0	32388	
3466	0	32440	
3467	0	32452	
3468	0	32540	
3469	0	32600	
3470	0	32618	
3471	0	32504	
3472	0	32802	
3473	0	33040	
3474	0	33056	
3475	0	33154	
3476	0	33328	
3477	0	33444	
3478	0	33450	
3479	0	33484	
3480	0	33432	
3481	0	33422	
3482	0	33466	
3483	0	33528	
3484	0	33516	
3485	0	33588	
3486	0	33756	
3487	0	33872	
3488	0	34016	
3489	0	34140	
3490	0	34096	
3491	0	34120	
3492	0	34264	
3493	0	34368	
3494	0	34496	
3495	0	34588	
3496	0	34652	
3497	0	34688	
3498	0	34757	
3499	0	34824	
3500	0	34892	
3501	0	35016	
3502	0	35152	
3503	0	35276	
3504	0	35394	
3505	0	35492	
3506	0	35636	
3507	0	35768	
3508	0	35920	
3509	0	36040	
3510	0	36084	
3511	0	36148	
3512	0	36228	
3513	0	36368	
3514	0	36456	
3515	0	36572	
3516	0	36596	
3517	0	36704	
3518	0	36824	
3519	0	36832	
3520	0	36860	
3521	0	36932	
3522	0	37024	
3523	0	37112	
3524	0	37156	
3525	0	37200	
3526	0	37226	
3527	0	37208	
3528	0	37120	
3529	0	37184	
3530	0	37254	
3531	0	37272	
3532	0	37196	
3533	0	37152	
3534	0	37192	
3535	0	37236	
3536	0	37344	
3537	0	37536	
3538	0	37380	
3539	0	37208	
3540	0	37164	
3541	0	37172	
3542	0	37076	
3543	0	36946	
3544	0	36870	
3545	0	36788	
3546	0	36736	
3547	0	36704	
3548	0	36680	
3549	0	36664	
3550	0	36578	
3551	0	36472	
3552	0	36392	
3553	0	36320	
3554	0	36236	
3555	0	36148	
3556	0	36100	
3557	0	36016	
3558	0	35920	
3559	0	35744	
3560	0	35536	
3561	0	35290	
3562	0	35026	
3563	0	34756	
3564	0	34600	
3565	0	34432	
3566	0	34264	
3567	0	34076	
3568	0	33892	
3569	0	33676	
3570	0	33436	
3571	0	33160	
3572	0	32940	
3573	0	32720	
3574	0	32544	
3575	0	32416	
3576	0	32288	
3577	0	32100	
3578	0	31861	
3579	0	31700	
3580	0	31580	
3581	0	31444	
3582	0	31270	
3583	0	30984	
3584	0	30730	
3585	0	30540	
3586	0	30360	
3587	0	30168	
3588	0	29988	
3589	0	29900	
3590	0	29884	
3591	0	29816	
3592	0	29712	
3593	0	29632	
3594	0	29552	
3595	0	29432	
3596	0	29332	
3597	0	29272	
3598	0	29188	
3599	0	29094	
3600	0	28976	
3601	0	28870	
3602	0	28752	
3603	0	28632	
3604	0	28528	
3605	0	28436	
3606	0	28354	
3607	0	28372	
3608	0	28416	
3609	0	28448	
3610	0	28480	
3611	0	28496	
3612	0	28520	
3613	0	28568	
3614	0	28600	
3615	0	28610	
3616	0	28532	
3617	0	28538	
3618	0	28560	
3619	0	28528	
3620	0	28398	
3621	0	28340	
3622	0	28260	
3623	0	28176	
3624	0	28152	
3625	0	28208	
3626	0	28316	
3627	0	28444	
3628	0	28516	
3629	0	28548	
3630	0	28572	
3631	0	28588	
3632	0	28600	
3633	0	28632	
3634	0	28640	
3635	0	28642	
3636	0	28632	
3637	0	28652	
3638	0	28644	
3639	0	28668	
3640	0	28724	
3641	0	28704	
3642	0	28680	
3643	0	28706	
3644	0	28724	
3645	0	28760	
3646	0	28780	
3647	0	28876	
3648	0	29000	
3649	0	29078	
3650	0	29090	
3651	0	29076	
3652	0	29100	
3653	0	29184	
3654	0	29232	
3655	0	29228	
3656	0	29212	
3657	0	29276	
3658	0	29336	
3659	0	29380	
3660	0	29332	
3661	0	29376	
3662	0	29468	
3663	0	29512	
3664	0	29492	
3665	0	29468	
3666	0	29516	
3667	0	29544	
3668	0	29644	
3669	0	29712	
3670	0	29680	
3671	0	29640	
3672	0	29704	
3673	0	29792	
3674	0	29816	
3675	0	29880	
3676	0	29944	
3677	0	29992	
3678	0	30024	
3679	0	30062	
3680	0	30124	
3681	0	30184	
3682	0	30208	
3683	0	30248	
3684	0	30260	
3685	0	30256	
3686	0	30288	
3687	0	30360	
3688	0	30372	
3689	0	30368	
3690	0	30414	
3691	0	30496	
3692	0	30588	
3693	0	30684	
3694	0	30760	
3695	0	30828	
3696	0	30852	
3697	0	30896	
3698	0	30928	
3699	0	30916	
3700	0	30864	
3701	0	30820	
3702	0	30796	
3703	0	30822	
3704	0	30884	
3705	0	30968	
3706	0	30984	
3707	0	30980	
3708	0	31009	
3709	0	31076	
3710	0	31132	
3711	0	31216	
3712	0	31328	
3713	0	31400	
3714	0	31516	
3715	0	31640	
3716	0	31688	
3717	0	31696	
3718	0	31688	
3719	0	31708	
3720	0	31712	
3721	0	31690	
3722	0	31612	
3723	0	31672	
3724	0	31688	
3725	0	31656	
3726	0	31644	
3727	0	31688	
3728	0	31752	
3729	0	31788	
3730	0	31828	
3731	0	31868	
3732	0	31906	
3733	0	31942	
3734	0	31994	
3735	0	32036	
3736	0	32040	
3737	0	32068	
3738	0	32096	
3739	0	32148	
3740	0	32192	
3741	0	32180	
3742	0	32176	
3743	0	32176	
3744	0	32176	
3745	0	32268	
3746	0	32304	
3747	0	32224	
3748	0	32176	
3749	0	32238	
3750	0	32288	
3751	0	32260	
3752	0	32292	
3753	0	32320	
3754	0	32282	
3755	0	32272	
3756	0	32280	
3757	0	32360	
3758	0	32452	
3759	0	32474	
3760	0	32384	
3761	0	32284	
3762	0	32204	
3763	0	32060	
3764	0	31984	
3765	0	31960	
3766	0	32024	
3767	0	32100	
3768	0	32162	
3769	0	32244	
3770	0	32320	
3771	0	32324	
3772	0	32344	
3773	0	32360	
3774	0	32378	
3775	0	32344	
3776	0	32324	
3777	0	32348	
3778	0	32336	
3779	0	32290	
3780	0	32246	
3781	0	32220	
3782	0	32220	
3783	0	32274	
3784	0	32294	
3785	0	32240	
3786	0	32120	
3787	0	32176	
3788	0	32160	
3789	0	32160	
3790	0	32224	
3791	0	32260	
3792	0	32288	
3793	0	32266	
3794	0	32244	
3795	0	32232	
3796	0	32232	
3797	0	32224	
3798	0	32248	
3799	0	32252	
3800	0	32172	
3801	0	32150	
3802	0	32132	
3803	0	32138	
3804	0	32128	
3805	0	32204	
3806	0	32312	
3807	0	32300	
3808	0	32256	
3809	0	32224	
3810	0	32204	
3811	0	32220	
3812	0	32216	
3813	0	32208	
3814	0	32244	
3815	0	32192	
3816	0	32176	
3817	0	32172	
3818	0	32160	
3819	0	32152	
3820	0	32164	
3821	0	32180	
3822	0	32208	
3823	0	32176	
3824	0	32132	
3825	0	32100	
3826	0	32148	
3827	0	32160	
3828	0	31980	
3829	0	32148	
3830	0	32376	
3831	0	32480	
3832	0	32404	
3833	0	32328	
3834	0	32274	
3835	0	32228	
3836	0	32164	
3837	0	32144	
3838	0	32140	
3839	0	32144	
3840	0	32164	
3841	0	32228	
3842	0	32300	
3843	0	32280	
3844	0	32192	
3845	0	32116	
3846	0	32100	
3847	0	32104	
3848	0	32162	
3849	0	32196	
3850	0	32228	
3851	0	32300	
3852	0	32362	
3853	0	32368	
3854	0	32410	
3855	0	32416	
3856	0	32376	
3857	0	32376	
3858	0	32456	
3859	0	32492	
3860	0	32432	
3861	0	32404	
3862	0	32452	
3863	0	32488	
3864	0	32484	
3865	0	32524	
3866	0	32620	
3867	0	32652	
3868	0	32580	
3869	0	32488	
3870	0	32342	
3871	0	32200	
3872	0	32248	
3873	0	32346	
3874	0	32408	
3875	0	32414	
3876	0	32436	
3877	0	32548	
3878	0	32636	
3879	0	32648	
3880	0	32658	
3881	0	32670	
3882	0	32668	
3883	0	32696	
3884	0	32704	
3885	0	32652	
3886	0	32576	
3887	0	32496	
3888	0	32480	
3889	0	32512	
3890	0	32534	
3891	0	32582	
3892	0	32638	
3893	0	32668	
3894	0	32668	
3895	0	32628	
3896	0	32624	
3897	0	32612	
3898	0	32568	
3899	0	32580	
3900	0	32648	
3901	0	32608	
3902	0	32516	
3903	0	32492	
3904	0	32508	
3905	0	32558	
3906	0	32620	
3907	0	32748	
3908	0	32748	
3909	0	32669	
3910	0	32656	
3911	0	32600	
3912	0	32532	
3913	0	32540	
3914	0	32556	
3915	0	32616	
3916	0	32746	
3917	0	32824	
3918	0	32808	
3919	0	32828	
3920	0	32808	
3921	0	32776	
3922	0	32776	
3923	0	32688	
3924	0	32688	
3925	0	32744	
3926	0	32800	
3927	0	32804	
3928	0	32772	
3929	0	32776	
3930	0	32796	
3931	0	32828	
3932	0	32852	
3933	0	32832	
3934	0	32730	
3935	0	32644	
3936	0	32561	
3937	0	32496	
3938	0	32500	
3939	0	32592	
3940	0	32684	
3941	0	32728	
3942	0	32718	
3943	0	32676	
3944	0	32644	
3945	0	32640	
3946	0	32596	
3947	0	32668	
3948	0	32700	
3949	0	32726	
3950	0	32744	
3951	0	32740	
3952	0	32676	
3953	0	32700	
3954	0	32796	
3955	0	32820	
3956	0	32864	
3957	0	32872	
3958	0	32852	
3959	0	32884	
3960	0	32904	
3961	0	32920	
3962	0	32880	
3963	0	32884	
3964	0	32992	
3965	0	33036	
3966	0	32984	
3967	0	32844	
3968	0	32856	
3969	0	32868	
3970	0	32936	
3971	0	33020	
3972	0	33074	
3973	0	33012	
3974	0	32892	
3975	0	32788	
3976	0	32748	
3977	0	32720	
3978	0	32700	
3979	0	32724	
3980	0	32792	
3981	0	32832	
3982	0	32864	
3983	0	32912	
3984	0	32936	
3985	0	32920	
3986	0	32872	
3987	0	32908	
3988	0	33008	
3989	0	33050	
3990	0	33004	
3991	0	32984	
3992	0	32996	
3993	0	33056	
3994	0	33088	
3995	0	33036	
3996	0	32952	
3997	0	32928	
3998	0	32896	
3999	0	32888	
4000	0	32928	
4001	0	32936	
4002	0	32924	
4003	0	32980	
4004	0	33088	
4005	0	33076	
4006	0	33008	
4007	0	33074	
4008	0	33156	
4009	0	33216	
4010	0	33228	
4011	0	33284	
4012	0	33408	
4013	0	33528	
4014	0	33552	
4015	0	33580	
4016	0	33592	
4017	0	33620	
4018	0	33648	
4019	0	33652	
4020	0	33640	
4021	0	33608	
4022	0	33536	
4023	0	33492	
4024	0	33402	
4025	0	33392	
4026	0	33420	
4027	0	33356	
4028	0	33292	
4029	0	33344	
4030	0	33472	
4031	0	33560	
4032	0	33652	
4033	0	33808	
4034	0	34056	
4035	0	34484	
4036	0	34744	
4037	0	34912	
4038	0	35024	
4039	0	35092	
4040	0	35196	
4041	0	35288	
4042	0	35448	
4043	0	35588	
4044	0	35672	
4045	0	35712	
4046	0	35674	
4047	0	35602	
4048	0	35496	
4049	0	35400	
4050	0	35328	
4051	0	35288	
4052	0	35164	
4053	0	34976	
4054	0	34778	
4055	0	34628	
4056	0	34520	
4057	0	34440	
4058	0	34324	
4059	0	34168	
4060	0	34004	
4061	0	33824	
4062	0	33632	
4063	0	33532	
4064	0	33468	
4065	0	33448	
4066	0	33440	
4067	0	33424	
4068	0	33400	
4069	0	33376	
4070	0	33260	
4071	0	33200	
4072	0	33176	
4073	0	33064	
4074	0	32988	
4075	0	32872	
4076	0	32786	
4077	0	32732	
4078	0	32688	
4079	0	32634	
4080	0	32592	
4081	0	32590	
4082	0	32576	
4083	0	32452	
4084	0	32248	
4085	0	32112	
4086	0	32076	
4087	0	32052	
4088	0	31946	
4089	0	31856	
4090	0	31852	
4091	0	31928	
4092	0	31998	
4093	0	31976	
4094	0	31892	
4095	0	31852	
4096	0	31880	
4097	0	31980	
4098	0	32040	
4099	0	32008	
4100	0	31912	
4101	0	31924	
4102	0	31984	
4103	0	32020	
4104	0	32004	
4105	0	32020	
4106	0	32080	
4107	0	32152	
4108	0	32192	
4109	0	32220	
4110	0	32212	
4111	0	32128	
4112	0	32192	
4113	0	32252	
4114	0	32186	
4115	0	32184	
4116	0	32232	
4117	0	32274	
4118	0	32252	
4119	0	32316	
4120	0	32392	
4121	0	32388	
4122	0	32314	
4123	0	32212	
4124	0	32060	
4125	0	31928	
4126	0	31676	
4127	0	31200	
4128	0	30540	
4129	0	29728	
4130	0	29032	
4131	0	28598	
4132	0	28420	
4133	0	28438	
4134	0	28636	
4135	0	29024	
4136	0	29664	
4137	0	30528	
4138	0	31608	
4139	0	32888	
4140	0	34356	
4141	0	35884	
4142	0	37524	
4143	0	39540	
4144	0	41980	
4145	0	44736	
4146	0	48064	
4147	0	51904	
4148	0	55600	
4149	0	59048	
4150	0	61976	
4151	0	63592	
4152	0	64416	
4153	0	64812	
4154	0	64976	
4155	0	64996	
4156	0	64948	
4157	0	64872	
4158	0	64760	
4159	0	64632	
4160	0	64518	
4161	0	64392	
4162	0	63280	
4163	0	57588	
4164	0	53216	
4165	0	49568	
4166	0	46468	
4167	0	43840	
4168	0	41440	
4169	0	39256	
4170	0	37328	
4171	0	35548	
4172	0	33968	
4173	0	32588	
4174	0	31392	
4175	0	30396	
4176	0	29728	
4177	0	29156	
4178	0	28784	
4179	0	28620	
4180	0	28524	
4181	0	28272	
4182	0	27960	
4183	0	27680	
4184	0	27488	
4185	0	27384	
4186	0	27386	
4187	0	27524	
4188	0	27692	
4189	0	27812	
4190	0	27964	
4191	0	28156	
4192	0	28344	
4193	0	28460	
4194	0	28448	
4195	0	28468	
4196	0	28484	
4197	0	28432	
4198	0	28388	
4199	0	28344	
4200	0	28340	
4201	0	28308	
4202	0	28256	
4203	0	28236	
4204	0	28272	
4205	0	28300	
4206	0	28322	
4207	0	28376	
4208	0	28424	
4209	0	28464	
4210	0	28592	
4211	0	28696	
4212	0	28732	
4213	0	28704	
4214	0	28736	
4215	0	28816	
4216	0	28876	
4217	0	28856	
4218	0	28796	
4219	0	28800	
4220	0	28828	
4221	0	28856	
4222	0	28928	
4223	0	29016	
4224	0	29044	
4225	0	29060	
4226	0	29096	
4227	0	29216	
4228	0	29328	
4229	0	29354	
4230	0	29340	
4231	0	29292	
4232	0	29338	
4233	0	29406	
4234	0	29436	
4235	0	29476	
4236	0	29588	
4237	0	29674	
4238	0	29696	
4239	0	29712	
4240	0	29794	
4241	0	29872	
4242	0	29912	
4243	0	29920	
4244	0	29972	
4245	0	29986	
4246	0	29972	
4247	0	30012	
4248	0	30098	
4249	0	30180	
4250	0	30194	
4251	0	30200	
4252	0	30276	
4253	0	30394	
4254	0	30500	
4255	0	30660	
4256	0	30744	
4257	0	30736	
4258	0	30664	
4259	0	30632	
4260	0	30732	
4261	0	30828	
4262	0	30920	
4263	0	30966	
4264	0	30944	
4265	0	30916	
4266	0	30908	
4267	0	30956	
4268	0	31056	
4269	0	31144	
4270	0	31184	
4271	0	31288	
4272	0	31436	
4273	0	31540	
4274	0	31624	
4275	0	31684	
4276	0	31796	
4277	0	31896	
4278	0	31890	
4279	0	31932	
4280	0	32016	
4281	0	32032	
4282	0	31998	
4283	0	31964	
4284	0	31970	
4285	0	31960	
4286	0	31944	
4287	0	32022	
4288	0	32136	
4289	0	32272	
4290	0	32452	
4291	0	32584	
4292	0	32664	
4293	0	32664	
4294	0	32736	
4295	0	32774	
4296	0	32724	
4297	0	32712	
4298	0	32792	
4299	0	32940	
4300	0	33080	
4301	0	33116	
4302	0	33104	
4303	0	33108	
4304	0	33114	
4305	0	33180	
4306	0	33304	
4307	0	33432	
4308	0	33516	
4309	0	33576	
4310	0	33682	
4311	0	33748	
4312	0	33816	
4313	0	33928	
4314	0	34016	
4315	0	34112	
4316	0	34176	
4317	0	34240	
4318	0	34252	
4319	0	34276	
4320	0	34352	
4321	0	34440	
4322	0	34496	
4323	0	34592	
4324	0	34732	
4325	0	34832	
4326	0	34892	
4327	0	34896	
4328	0	34932	
4329	0	35000	
4330	0	35148	
4331	0	35324	
4332	0	35424	
4333	0	35516	
4334	0	35616	
4335	0	35748	
4336	0	35872	
4337	0	35984	
4338	0	36096	
4339	0	36228	
4340	0	36324	
4341	0	36416	
4342	0	36524	
4343	0	36652	
4344	0	36768	
4345	0	36804	
4346	0	36848	
4347	0	36900	
4348	0	36928	
4349	0	36996	
4350	0	37056	
4351	0	37088	
4352	0	37156	
4353	0	37264	
4354	0	37336	
4355	0	37344	
4356	0	37368	
4357	0	37384	
4358	0	37392	
4359	0	37448	
4360	0	37496	
4361	0	37476	
4362	0	37496	
4363	0	37532	
4364	0	37524	
4365	0	37504	
4366	0	37500	
4367	0	37516	
4368	0	37528	
4369	0	37532	
4370	0	37520	
4371	0	37508	
4372	0	37508	
4373	0	37472	
4374	0	37440	
4375	0	37432	
4376	0	37422	
4377	0	37420	
4378	0	37352	
4379	0	37232	
4380	0	37080	
4381	0	36964	
4382	0	36892	
4383	0	36842	
4384	0	36760	
4385	0	36656	
4386	0	36544	
4387	0	36440	
4388	0	36340	
4389	0	36184	
4390	0	35992	
4391	0	35780	
4392	0	35632	
4393	0	35508	
4394	0	35368	
4395	0	35208	
4396	0	35076	
4397	0	34944	
4398	0	34784	
4399	0	34592	
4400	0	34368	
4401	0	34144	
4402	0	33920	
4403	0	33600	
4404	0	33316	
4405	0	33028	
4406	0	32828	
4407	0	32648	
4408	0	32424	
4409	0	32260	
4410	0	32152	
4411	0	32008	
4412	0	31728	
4413	0	31428	
4414	0	31220	
4415	0	31032	
4416	0	30848	
4417	0	30644	
4418	0	30492	
4419	0	30288	
4420	0	30114	
4421	0	29996	
4422	0	29912	
4423	0	29840	
4424	0	29640	
4425	0	29442	
4426	0	29320	
4427	0	29272	
4428	0	29242	
4429	0	29204	
4430	0	29120	
4431	0	29017	
4432	0	28896	
4433	0	28824	
4434	0	28756	
4435	0	28684	
4436	0	28568	
4437	0	28432	
4438	0	28388	
4439	0	28352	
4440	0	28324	
4441	0	28310	
4442	0	28324	
4443	0	28360	
4444	0	28428	
4445	0	28464	
4446	0	28424	
4447	0	28392	
4448	0	28344	
4449	0	28314	
4450	0	28328	
4451	0	28348	
4452	0	28336	
4453	0	28312	
4454	0	28296	
4455	0	28320	
4456	0	28312	
4457	0	28264	
4458	0	28280	
4459	0	28348	
4460	0	28385	
4461	0	28416	
4462	0	28456	
4463	0	28424	
4464	0	28384	
4465	0	28400	
4466	0	28416	
4467	0	28388	
4468	0	28364	
4469	0	28348	
4470	0	28404	
4471	0	28464	
4472	0	28488	
4473	0	28524	
4474	0	28576	
4475	0	28628	
4476	0	28672	
4477	0	28728	
4478	0	28808	
4479	0	28824	
4480	0	28780	
4481	0	28774	
4482	0	28808	
4483	0	28872	
4484	0	28948	
4485	0	29052	
4486	0	29156	
4487	0	29188	
4488	0	29256	
4489	0	29296	
4490	0	29340	
4491	0	29352	
4492	0	29344	
4493	0	29344	
4494	0	29412	
4495	0	29468	
4496	0	29472	
4497	0	29476	
4498	0	29584	
4499	0	29704	
4500	0	29760	
4501	0	29780	
4502	0	29792	
4503	0	29784	
4504	0	29820	
4505	0	29860	
4506	0	29896	
4507	0	29946	
4508	0	30020	
4509	0	30082	
4510	0	30112	
4511	0	30136	
4512	0	30220	
4513	0	30320	
4514	0	30356	
4515	0	30368	
4516	0	30384	
4517	0	30416	
4518	0	30452	
4519	0	30544	
4520	0	30604	
4521	0	30620	
4522	0	30660	
4523	0	30714	
4524	0	30752	
4525	0	30804	
4526	0	30856	
4527	0	30848	
4528	0	30888	
4529	0	30924	
4530	0	30912	
4531	0	30896	
4532	0	30932	
4533	0	30996	
4534	0	31056	
4535	0	31032	
4536	0	30996	
4537	0	30976	
4538	0	31032	
4539	0	31068	
4540	0	31126	
4541	0	31188	
4542	0	31232	
4543	0	31310	
4544	0	31372	
4545	0	31384	
4546	0	31446	
4547	0	31512	
4548	0	31584	
4549	0	31608	
4550	0	31500	
4551	0	31524	
4552	0	31632	
4553	0	31654	
4554	0	31776	
4555	0	31880	
4556	0	31812	
4557	0	31732	
4558	0	31916	
4559	0	32096	
4560	0	32060	
4561	0	31976	
4562	0	31964	
4563	0	31872	
4564	0	32048	
4565	0	32264	
4566	0	32220	
4567	0	32048	
4568	0	31968	
4569	0	32028	
4570	0	32088	
4571	0	32096	
4572	0	32112	
4573	0	32156	
4574	0	32184	
4575	0	32192	
4576	0	32204	
4577	0	32220	
4578	0	32284	
4579	0	32308	
4580	0	32352	
4581	0	32336	
4582	0	32240	
4583	0	32240	
4584	0	32344	
4585	0	32348	
4586	0	32220	
4587	0	32184	
4588	0	32184	
4589	0	32200	
4590	0	32282	
4591	0	32340	
4592	0	32298	
4593	0	32208	
4594	0	32124	
4595	0	32128	
4596	0	32172	
4597	0	32180	
4598	0	32188	
4599	0	32224	
4600	0	32220	
4601	0	32156	
4602	0	32160	
4603	0	32212	
4604	0	32244	
4605	0	32280	
4606	0	32356	
4607	0	32352	
4608	0	32196	
4609	0	32188	
4610	0	32264	
4611	0	32264	
4612	0	32240	
4613	0	32224	
4614	0	32238	
4615	0	32260	
4616	0	32298	
4617	0	32332	
4618	0	32280	
4619	0	32212	
4620	0	32236	
4621	0	32256	
4622	0	32268	
4623	0	32304	
4624	0	32256	
4625	0	32220	
4626	0	32204	
4627	0	32148	
4628	0	32208	
4629	0	32284	
4630	0	32282	
4631	0	32208	
4632	0	32168	
4633	0	32168	
4634	0	32176	
4635	0	32208	
4636	0	32192	
4637	0	32200	
4638	0	32216	
4639	0	32232	
4640	0	32274	
4641	0	32276	
4642	0	32368	
4643	0	32380	
4644	0	32312	
4645	0	32272	
4646	0	32272	
4647	0	32304	
4648	0	32272	
4649	0	32272	
4650	0	32268	
4651	0	32278	
4652	0	32320	
4653	0	32344	
4654	0	32372	
4655	0	32408	
4656	0	32400	
4657	0	32416	
4658	0	32448	
4659	0	32496	
4660	0	32548	
4661	0	32572	
4662	0	32512	
4663	0	32472	
4664	0	32344	
4665	0	32216	
4666	0	32184	
4667	0	32234	
4668	0	32256	
4669	0	32224	
4670	0	32216	
4671	0	32232	
4672	0	32240	
4673	0	32296	
4674	0	32328	
4675	0	32348	
4676	0	32340	
4677	0	32356	
4678	0	32416	
4679	0	32464	
4680	0	32480	
4681	0	32446	
4682	0	32432	
4683	0	32480	
4684	0	32524	
4685	0	32464	
4686	0	32412	
4687	0	32416	
4688	0	32480	
4689	0	32568	
4690	0	32620	
4691	0	32704	
4692	0	32716	
4693	0	32668	
4694	0	32652	
4695	0	32662	
4696	0	32620	
4697	0	32546	
4698	0	32532	
4699	0	32528	
4700	0	32480	
4701	0	32460	
4702	0	32482	
4703	0	32528	
4704	0	32516	
4705	0	32464	
4706	0	32414	
4707	0	32400	
4708	0	32424	
4709	0	32452	
4710	0	32442	
4711	0	32384	
4712	0	32440	
4713	0	32484	
4714	0	32460	
4715	0	32492	
4716	0	32572	
4717	0	32608	
4718	0	32708	
4719	0	32776	
4720	0	32744	
4721	0	32648	
4722	0	32656	
4723	0	32656	
4724	0	32706	
4725	0	32784	
4726	0	32680	
4727	0	32584	
4728	0	32588	
4729	0	32638	
4730	0	32728	
4731	0	32784	
4732	0	32758	
4733	0	32744	
4734	0	32744	
4735	0	32744	
4736	0	32744	
4737	0	32772	
4738	0	32800	
4739	0	32828	
4740	0	32876	
4741	0	32876	
4742	0	32864	
4743	0	32760	
4744	0	32660	
4745	0	32686	
4746	0	32724	
4747	0	32736	
4748	0	32744	
4749	0	32684	
4750	0	32672	
4751	0	32688	
4752	0	32660	
4753	0	32664	
4754	0	32592	
4755	0	32600	
4756	0	32640	
4757	0	32664	
4758	0	32644	
4759	0	32660	
4760	0	32672	
4761	0	32672	
4762	0	32664	
4763	0	32684	
4764	0	32704	
4765	0	32728	
4766	0	32728	
4767	0	32760	
4768	0	32792	
4769	0	32772	
4770	0	32760	
4771	0	32768	
4772	0	32848	
4773	0	32914	
4774	0	32888	
4775	0	32802	
4776	0	32784	
4777	0	32788	
4778	0	32814	
4779	0	32868	
4780	0	32876	
4781	0	32880	
4782	0	32884	
4783	0	32856	
4784	0	32820	
4785	0	32864	
4786	0	32876	
4787	0	32868	
4788	0	32892	
4789	0	32892	
4790	0	32892	
4791	0	32868	
4792	0	32856	
4793	0	32856	
4794	0	32884	
4795	0	32928	
4796	0	32944	
4797	0	32932	
4798	0	32908	
4799	0	32900	
4800	0	32872	
4801	0	32872	
4802	0	32912	
4803	0	32936	
4804	0	32922	
4805	0	32868	
4806	0	32828	
4807	0	32920	
4808	0	33004	
4809	0	33008	
4810	0	33036	
4811	0	33092	
4812	0	33124	
4813	0	33166	
4814	0	33242	
4815	0	33324	
4816	0	33408	
4817	0	33440	
4818	0	33432	
4819	0	33460	
4820	0	33512	
4821	0	33536	
4822	0	33528	
4823	0	33514	
4824	0	33504	
4825	0	33496	
4826	0	33508	
4827	0	33572	
4828	0	33572	
4829	0	33496	
4830	0	33448	
4831	0	33370	
4832	0	33412	
4833	0	33506	
4834	0	33592	
4835	0	33642	
4836	0	33724	
4837	0	33760	
4838	0	33804	
4839	0	33848	
4840	0	33940	
4841	0	34128	
4842	0	34378	
4843	0	34684	
4844	0	35008	
4845	0	35188	
4846	0	35232	
4847	0	35256	
4848	0	35344	
4849	0	35496	
4850	0	35652	
4851	0	35704	
4852	0	35668	
4853	0	35628	
4854	0	35576	
4855	0	35532	
4856	0	35416	
4857	0	35282	
4858	0	35220	
4859	0	35152	
4860	0	35052	
4861	0	34916	
4862	0	34784	
4863	0	34640	
4864	0	34458	
4865	0	34316	
4866	0	34204	
4867	0	34092	
4868	0	33980	
4869	0	33896	
4870	0	33792	
4871	0	33684	
4872	0	33576	
4873	0	33536	
4874	0	33576	
4875	0	33568	
4876	0	33488	
4877	0	33456	
4878	0	33400	
4879	0	33296	
4880	0	33168	
4881	0	33100	
4882	0	32968	
4883	0	32852	
4884	0	32848	
4885	0	32864	
4886	0	32768	
4887	0	32644	
4888	0	32540	
4889	0	32440	
4890	0	32368	
4891	0	32256	
4892	0	32096	
4893	0	31968	
4894	0	31908	
4895	0	31924	
4896	0	31984	
4897	0	32080	
4898	0	32128	
4899	0	32120	
4900	0	32044	
4901	0	31988	
4902	0	31952	
4903	0	31976	
4904	0	32012	
4905	0	32076	
4906	0	32064	
4907	0	32052	
4908	0	32084	
4909	0	32156	
4910	0	32224	
4911	0	32228	
4912	0	32180	
4913	0	32156	
4914	0	32184	
4915	0	32224	
4916	0	32232	
4917	0	32220	
4918	0	32236	
4919	0	32264	
4920	0	32272	
4921	0	32264	
4922	0	32268	
4923	0	32296	
4924	0	32320	
4925	0	32314	
4926	0	32264	
4927	0	32208	
4928	0	32168	
4929	0	32052	
4930	0	31840	
4931	0	31580	
4932	0	31184	
4933	0	30664	
4934	0	29978	
4935	0	29260	
4936	0	28740	
4937	0	28448	
4938	0	28384	
4939	0	28524	
4940	0	28848	
4941	0	29432	
4942	0	30352	
4943	0	31480	
4944	0	32792	
4945	0	34240	
4946	0	35848	
4947	0	37608	
4948	0	39532	
4949	0	41876	
4950	0	44584	
4951	0	47728	
4952	0	51396	
4953	0	55032	
4954	0	58528	
4955	0	61536	
4956	0	63256	
4957	0	64136	
4958	0	64552	
4959	0	64708	
4960	0	64752	
4961	0	64720	
4962	0	64624	
4963	0	64520	
4964	0	64408	
4965	0	64304	
4966	0	64168	
4967	0	63896	
4968	0	57818	
4969	0	53160	
4970	0	49396	
4971	0	46328	
4972	0	43796	
4973	0	41480	
4974	0	39248	
4975	0	37244	
4976	0	35412	
4977	0	33744	
4978	0	32268	
4979	0	30976	
4980	0	29848	
4981	0	29068	
4982	0	28568	
4983	0	28252	
4984	0	28088	
4985	0	27968	
4986	0	27744	
4987	0	27500	
4988	0	27344	
4989	0	27228	
4990	0	27180	
4991	0	27224	
4992	0	27348	
4993	0	27540	
4994	0	27736	
4995	0	27960	
4996	0	28208	
4997	0	28440	
4998	0	28600	
4999	0	28680	
5000	0	28712	
5001	0	28708	
5002	0	28660	
5003	0	28640	
5004	0	28604	
5005	0	28608	
5006	0	28600	
5007	0	28592	
5008	0	28556	
5009	0	28540	
5010	0	28552	
5011	0	28556	
5012	0	28584	
5013	0	28612	
5014	0	28624	
5015	0	28680	
5016	0	28778	
5017	0	28832	
5018	0	28792	
5019	0	28744	
5020	0	28712	
5021	0	28672	
5022	0	28636	
5023	0	28604	
5024	0	28652	
5025	0	28740	
5026	0	28856	
5027	0	28988	
5028	0	29090	
5029	0	29204	
5030	0	29260	
5031	0	29308	
5032	0	29380	
5033	0	29448	
5034	0	29500	
5035	0	29530	
5036	0	29532	
5037	0	29497	
5038	0	29492	
5039	0	29492	
5040	0	29524	
5041	0	29588	
5042	0	29672	
5043	0	29712	
5044	0	29776	
5045	0	29880	
5046	0	29980	
5047	0	30072	
5048	0	30128	
5049	0	30170	
5050	0	30208	
5051	0	30216	
5052	0	30272	
5053	0	30424	
5054	0	30572	
5055	0	30636	
5056	0	30724	
5057	0	30752	
5058	0	30792	
5059	0	30832	
5060	0	30776	
5061	0	30708	
5062	0	30660	
5063	0	30668	
5064	0	30704	
5065	0	30776	
5066	0	30856	
5067	0	30938	
5068	0	31024	
5069	0	31108	
5070	0	31216	
5071	0	31306	
5072	0	31388	
5073	0	31480	
5074	0	31552	
5075	0	31580	
5076	0	31584	
5077	0	31612	
5078	0	31578	
5079	0	31540	
5080	0	31554	
5081	0	31548	
5082	0	31540	
5083	0	31572	
5084	0	31632	
5085	0	31748	
5086	0	31844	
5087	0	31892	
5088	0	31928	
5089	0	32000	
5090	0	32140	
5091	0	32244	
5092	0	32300	
5093	0	32298	
5094	0	32316	
5095	0	32416	
5096	0	32536	
5097	0	32592	
5098	0	32628	
5099	0	32708	
5100	0	32764	
5101	0	32820	
5102	0	32912	
5103	0	33016	
5104	0	33054	
5105	0	33080	
5106	0	33148	
5107	0	33176	
5108	0	33236	
5109	0	33296	
5110	0	33376	
5111	0	33502	
5112	0	33620	
5113	0	33644	
5114	0	33632	
5115	0	33636	
5116	0	33680	
5117	0	33732	
5118	0	33808	
5119	0	33910	
5120	0	34024	
5121	0	34132	
5122	0	34140	
5123	0	34144	
5124	0	34168	
5125	0	34260	
5126	0	34400	
5127	0	34500	
5128	0	34594	
5129	0	34730	
5130	0	34832	
5131	0	34952	
5132	0	35092	
5133	0	35232	
5134	0	35272	
5135	0	35308	
5136	0	35360	
5137	0	35432	
5138	0	35540	
5139	0	35612	
5140	0	35664	
5141	0	35762	
5142	0	35896	
5143	0	35992	
5144	0	36080	
5145	0	36192	
5146	0	36300	
5147	0	36368	
5148	0	36444	
5149	0	36528	
5150	0	36600	
5151	0	36656	
5152	0	36748	
5153	0	36814	
5154	0	36870	
5155	0	36904	
5156	0	36940	
5157	0	37000	
5158	0	37108	
5159	0	37148	
5160	0	37148	
5161	0	37176	
5162	0	37168	
5163	0	37120	
5164	0	37120	
5165	0	37200	
5166	0	37260	
5167	0	37312	
5168	0	37376	
5169	0	37484	
5170	0	37562	
5171	0	37580	
5172	0	37576	
5173	0	37520	
5174	0	37476	
5175	0	37420	
5176	0	37348	
5177	0	37292	
5178	0	37244	
5179	0	37172	
5180	0	37092	
5181	0	37072	
5182	0	37064	
5183	0	37044	
5184	0	36992	
5185	0	36900	
5186	0	36820	
5187	0	36752	
5188	0	36676	
5189	0	36608	
5190	0	36532	
5191	0	36450	
5192	0	36324	
5193	0	36214	
5194	0	36104	
5195	0	35972	
5196	0	35832	
5197	0	35680	
5198	0	35512	
5199	0	35332	
5200	0	35196	
5201	0	35008	
5202	0	34772	
5203	0	34552	
5204	0	34300	
5205	0	34072	
5206	0	33824	
5207	0	33624	
5208	0	33464	
5209	0	33320	
5210	0	33162	
5211	0	32932	
5212	0	32724	
5213	0	32476	
5214	0	32216	
5215	0	31980	
5216	0	31756	
5217	0	31596	
5218	0	31444	
5219	0	31306	
5220	0	31168	
5221	0	31004	
5222	0	30880	
5223	0	30756	
5224	0	30576	
5225	0	30400	
5226	0	30256	
5227	0	30080	
5228	0	29888	
5229	0	29716	
5230	0	29584	
5231	0	29444	
5232	0	29294	
5233	0	29176	
5234	0	29096	
5235	0	29036	
5236	0	28976	
5237	0	28908	
5238	0	28804	
5239	0	28704	
5240	0	28640	
5241	0	28620	
5242	0	28660	
5243	0	28692	
5244	0	28724	
5245	0	28736	
5246	0	28746	
5247	0	28756	
5248	0	28738	
5249	0	28738	
5250	0	28704	
5251	0	28652	
5252	0	28580	
5253	0	28512	
5254	0	28492	
5255	0	28480	
5256	0	28500	
5257	0	28504	
5258	0	28544	
5259	0	28588	
5260	0	28620	
5261	0	28608	
5262	0	28612	
5263	0	28604	
5264	0	28596	
5265	0	28568	
5266	0	28492	
5267	0	28408	
5268	0	28382	
5269	0	28428	
5270	0	28480	
5271	0	28512	
5272	0	28592	
5273	0	28730	
5274	0	28864	
5275	0	28910	
5276	0	28880	
5277	0	28860	
5278	0	28800	
5279	0	28728	
5280	0	28704	
5281	0	28720	
5282	0	28748	
5283	0	28820	
5284	0	28940	
5285	0	28968	
5286	0	29004	
5287	0	29084	
5288	0	29156	
5289	0	29278	
5290	0	29420	
5291	0	29592	
5292	0	29764	
5293	0	29848	
5294	0	29848	
5295	0	29868	
5296	0	29914	
5297	0	29900	
5298	0	29860	
5299	0	29840	
5300	0	29792	
5301	0	29800	
5302	0	29892	
5303	0	29980	
5304	0	30068	
5305	0	30170	
5306	0	30288	
5307	0	30324	
5308	0	30372	
5309	0	30440	
5310	0	30488	
5311	0	30548	
5312	0	30608	
5313	0	30650	
5314	0	30664	
5315	0	30696	
5316	0	30712	
5317	0	30752	
5318	0	30752	
5319	0	30744	
5320	0	30752	
5321	0	30768	
5322	0	30748	
5323	0	30720	
5324	0	30720	
5325	0	30748	
5326	0	30770	
5327	0	30820	
5328	0	30864	
5329	0	30880	
5330	0	30952	
5331	0	31012	
5332	0	31076	
5333	0	31140	
5334	0	31232	
5335	0	31306	
5336	0	31336	
5337	0	31376	
5338	0	31424	
5339	0	31460	
5340	0	31492	
5341	0	31536	
5342	0	31548	
5343	0	31516	
5344	0	31516	
5345	0	31528	
5346	0	31536	
5347	0	31536	
5348	0	31556	
5349	0	31592	
5350	0	31626	
5351	0	31668	
5352	0	31716	
5353	0	31708	
5354	0	31684	
5355	0	31668	
5356	0	31684	
5357	0	31704	
5358	0	31728	
5359	0	31764	
5360	0	31776	
5361	0	31776	
5362	0	31800	
5363	0	31848	
5364	0	31884	
5365	0	31868	
5366	0	31876	
5367	0	31928	
5368	0	31936	
5369	0	31916	
5370	0	31848	
5371	0	31834	
5372	0	31840	
5373	0	31844	
5374	0	31768	
5375	0	31708	
5376	0	31732	
5377	0	31740	
5378	0	31792	
5379	0	31792	
5380	0	31812	
5381	0	31892	
5382	0	31944	
5383	0	31932	
5384	0	31900	
5385	0	31876	
5386	0	31908	
5387	0	31928	
5388	0	31912	
5389	0	31904	
5390	0	31960	
5391	0	32008	
5392	0	32040	
5393	0	32072	
5394	0	32088	
5395	0	32100	
5396	0	32084	
5397	0	32010	
5398	0	31960	
5399	0	31928	
5400	0	31868	
5401	0	31868	
5402	0	31896	
5403	0	31932	
5404	0	31944	
5405	0	31920	
5406	0	31904	
5407	0	31872	
5408	0	31884	
5409	0	31932	
5410	0	31928	
5411	0	31932	
5412	0	31944	
5413	0	31980	
5414	0	32044	
5415	0	32044	
5416	0	32016	
5417	0	31984	
5418	0	31920	
5419	0	31896	
5420	0	31928	
5421	0	31980	
5422	0	31984	
5423	0	32020	
5424	0	31956	
5425	0	31912	
5426	0	31912	
5427	0	31916	
5428	0	31980	
5429	0	32044	
5430	0	32072	
5431	0	32088	
5432	0	32112	
5433	0	32142	
5434	0	32112	
5435	0	32096	
5436	0	32068	
5437	0	32020	
5438	0	31992	
5439	0	31984	
5440	0	32004	
5441	0	31950	
5442	0	31888	
5443	0	31876	
5444	0	31904	
5445	0	31948	
5446	0	31984	
5447	0	31956	
5448	0	31936	
5449	0	31880	
5450	0	31848	
5451	0	31860	
5452	0	31924	
5453	0	31980	
5454	0	31912	
5455	0	31800	
5456	0	31740	
5457	0	31720	
5458	0	31720	
5459	0	31768	
5460	0	31864	
5461	0	31936	
5462	0	32000	
5463	0	32048	
5464	0	32068	
5465	0	32104	
5466	0	32108	
5467	0	32086	
5468	0	32060	
5469	0	32052	
5470	0	32044	
5471	0	32088	
5472	0	32128	
5473	0	32148	
5474	0	32168	
5475	0	32212	
5476	0	32224	
5477	0	32192	
5478	0	32184	
5479	0	32136	
5480	0	32084	
5481	0	32096	
5482	0	32108	
5483	0	32116	
5484	0	32100	
5485	0	32092	
5486	0	32168	
5487	0	32202	
5488	0	32196	
5489	0	32168	
5490	0	32144	
5491	0	32164	
5492	0	32194	
5493	0	32236	
5494	0	32290	
5495	0	32264	
5496	0	32266	
5497	0	32336	
5498	0	32416	
5499	0	32436	
5500	0	32380	
5501	0	32400	
5502	0	32440	
5503	0	32480	
5504	0	32504	
5505	0	32470	
5506	0	32418	
5507	0	32440	
5508	0	32440	
5509	0	32388	
5510	0	32394	
5511	0	32428	
5512	0	32376	
5513	0	32328	
5514	0	32332	
5515	0	32333	
5516	0	32344	
5517	0	32360	
5518	0	32352	
5519	0	32380	
5520	0	32410	
5521	0	32456	
5522	0	32524	
5523	0	32574	
5524	0	32568	
5525	0	32544	
5526	0	32560	
5527	0	32520	
5528	0	32568	
5529	0	32602	
5530	0	32608	
5531	0	32602	
5532	0	32596	
5533	0	32608	
5534	0	32628	
5535	0	32680	
5536	0	32720	
5537	0	32724	
5538	0	32752	
5539	0	32772	
5540	0	32768	
5541	0	32748	
5542	0	32744	
5543	0	32752	
5544	0	32752	
5545	0	32836	
5546	0	32874	
5547	0	32900	
5548	0	32932	
5549	0	32924	
5550	0	32892	
5551	0	32888	
5552	0	32916	
5553	0	33006	
5554	0	33104	
5555	0	33106	
5556	0	33100	
5557	0	33144	
5558	0	33180	
5559	0	33228	
5560	0	33200	
5561	0	33168	
5562	0	33176	
5563	0	33236	
5564	0	33256	
5565	0	33204	
5566	0	33148	
5567	0	33084	
5568	0	33052	
5569	0	33072	
5570	0	33092	
5571	0	33108	
5572	0	33132	
5573	0	33168	
5574	0	33208	
5575	0	33304	
5576	0	33448	
5577	0	33578	
5578	0	33800	
5579	0	34068	
5580	0	34348	
5581	0	34624	
5582	0	34864	
5583	0	35040	
5584	0	35152	
5585	0	35236	
5586	0	35352	
5587	0	35496	
5588	0	35600	
5589	0	35560	
5590	0	35428	
5591	0	35320	
5592	0	35188	
5593	0	35140	
5594	0	35080	
5595	0	34960	
5596	0	34848	
5597	0	34668	
5598	0	34458	
5599	0	34248	
5600	0	34080	
5601	0	33970	
5602	0	33868	
5603	0	33772	
5604	0	33684	
5605	0	33640	
5606	0	33608	
5607	0	33600	
5608	0	33524	
5609	0	33432	
5610	0	33344	
5611	0	33304	
5612	0	33252	
5613	0	33258	
5614	0	33300	
5615	0	33326	
5616	0	33296	
5617	0	33272	
5618	0	33196	
5619	0	33052	
5620	0	32908	
5621	0	32780	
5622	0	32664	
5623	0	32516	
5624	0	32404	
5625	0	32288	
5626	0	32216	
5627	0	32156	
5628	0	32066	
5629	0	31968	
5630	0	31904	
5631	0	31920	
5632	0	31928	
5633	0	31912	
5634	0	31854	
5635	0	31848	
5636	0	31860	
5637	0	31808	
5638	0	31752	
5639	0	31676	
5640	0	31648	
5641	0	31676	
5642	0	31700	
5643	0	31748	
5644	0	31840	
5645	0	31920	
5646	0	31944	
5647	0	31968	
5648	0	32000	
5649	0	32000	
5650	0	32012	
5651	0	31988	
5652	0	31940	
5653	0	31980	
5654	0	32016	
5655	0	32052	
5656	0	32084	
5657	0	32068	
5658	0	32084	
5659	0	32084	
5660	0	32084	
5661	0	32084	
5662	0	32156	
5663	0	32252	
5664	0	32284	
5665	0	32256	
5666	0	32160	
5667	0	32040	
5668	0	31888	
5669	0	31716	
5670	0	31382	
5671	0	30734	
5672	0	29976	
5673	0	29252	
5674	0	28768	
5675	0	28492	
5676	0	28386	
5677	0	28508	
5678	0	28916	
5679	0	29584	
5680	0	30572	
5681	0	31764	
5682	0	33034	
5683	0	34500	
5684	0	36096	
5685	0	37804	
5686	0	39744	
5687	0	42156	
5688	0	45032	
5689	0	48308	
5690	0	51800	
5691	0	55364	
5692	0	58796	
5693	0	61680	
5694	0	63296	
5695	0	64120	
5696	0	64504	
5697	0	64652	
5698	0	64672	
5699	0	64624	
5700	0	64544	
5701	0	64432	
5702	0	64320	
5703	0	64192	
5704	0	61904	
5705	0	55432	
5706	0	49848	
5707	0	45268	
5708	0	41604	
5709	0	38716	
5710	0	36456	
5711	0	34594	
5712	0	32932	
5713	0	31444	
5714	0	30018	
5715	0	28580	
5716	0	27316	
5717	0	26320	
5718	0	25664	
5719	0	25304	
5720	0	25178	
5721	0	25216	
5722	0	25368	
5723	0	25540	
5724	0	25592	
5725	0	25668	
5726	0	25724	
5727	0	25904	
5728	0	26168	
5729	0	26504	
5730	0	26844	
5731	0	27212	
5732	0	27592	
5733	0	27928	
5734	0	28256	
5735	0	28584	
5736	0	28864	
5737	0	29098	
5738	0	29248	
5739	0	29332	
5740	0	29432	
5741	0	29444	
5742	0	29420	
5743	0	29456	
5744	0	29560	
5745	0	29564	
5746	0	29572	
5747	0	29524	
5748	0	29520	
5749	0	29560	
5750	0	29636	
5751	0	29700	
5752	0	29768	
5753	0	29780	
5754	0	29808	
5755	0	29864	
5756	0	29884	
5757	0	29876	
5758	0	29892	
5759	0	29956	
5760	0	30016	
5761	0	30040	
5762	0	30076	
5763	0	30120	
5764	0	30144	
5765	0	30176	
5766	0	30176	
5767	0	30196	
5768	0	30240	
5769	0	30304	
5770	0	30364	
5771	0	30424	
5772	0	30480	
5773	0	30480	
5774	0	30484	
5775	0	30484	
5776	0	30520	
5777	0	30580	
5778	0	30628	
5779	0	30740	
5780	0	30872	
5781	0	31020	
5782	0	31084	
5783	0	31100	
5784	0	31104	
5785	0	31140	
5786	0	31200	
5787	0	31210	
5788	0	31216	
5789	0	31202	
5790	0	31164	
5791	0	31116	
5792	0	31116	
5793	0	31120	
5794	0	31200	
5795	0	31288	
5796	0	31400	
5797	0	31548	
5798	0	31684	
5799	0	31836	
5800	0	31932	
5801	0	31914	
5802	0	31872	
5803	0	31876	
5804	0	31912	
5805	0	31992	
5806	0	32042	
5807	0	32008	
5808	0	32032	
5809	0	32088	
5810	0	32132	
5811	0	32164	
5812	0	32244	
5813	0	32332	
5814	0	32404	
5815	0	32476	
5816	0	32554	
5817	0	32724	
5818	0	32900	
5819	0	33026	
5820	0	33068	
5821	0	33072	
5822	0	33104	
5823	0	33132	
5824	0	33200	
5825	0	33228	
5826	0	33160	
5827	0	33054	
5828	0	33000	
5829	0	33052	
5830	0	33092	
5831	0	33138	
5832	0	33252	
5833	0	33408	
5834	0	33528	
5835	0	33616	
5836	0	33616	
5837	0	33636	
5838	0	33716	
5839	0	33784	
5840	0	33840	
5841	0	33904	
5842	0	33980	
5843	0	34024	
5844	0	34068	
5845	0	34136	
5846	0	34200	
5847	0	34288	
5848	0	34338	
5849	0	34356	
5850	0	34348	
5851	0	34346	
5852	0	34384	
5853	0	34500	
5854	0	34672	
5855	0	34812	
5856	0	34900	
5857	0	35024	
5858	0	35180	
5859	0	35304	
5860	0	35396	
5861	0	35524	
5862	0	35636	
5863	0	35736	
5864	0	35816	
5865	0	35872	
5866	0	35948	
5867	0	35980	
5868	0	36024	
5869	0	36052	
5870	0	36088	
5871	0	36188	
5872	0	36280	
5873	0	36368	
5874	0	36448	
5875	0	36520	
5876	0	36648	
5877	0	36754	
5878	0	36776	
5879	0	36800	
5880	0	36868	
5881	0	37008	
5882	0	37180	
5883	0	37344	
5884	0	37488	
5885	0	37584	
5886	0	37680	
5887	0	37760	
5888	0	37824	
5889	0	37868	
5890	0	37940	
5891	0	38020	
5892	0	38048	
5893	0	38052	
5894	0	38080	
5895	0	38116	
5896	0	38172	
5897	0	38156	
5898	0	38134	
5899	0	38148	
5900	0	38272	
5901	0	38384	
5902	0	38496	
5903	0	38512	
5904	0	38488	
5905	0	38500	
5906	0	38496	
5907	0	38480	
5908	0	38426	
5909	0	38320	
5910	0	38300	
5911	0	38260	
5912	0	38204	
5913	0	38176	
5914	0	38124	
5915	0	38028	
5916	0	37932	
5917	0	37880	
5918	0	37880	
5919	0	37876	
5920	0	37836	
5921	0	37760	
5922	0	37652	
5923	0	37488	
5924	0	37308	
5925	0	37160	
5926	0	37136	
5927	0	37160	
5928	0	37168	
5929	0	36984	
5930	0	36764	
5931	0	36576	
5932	0	36436	
5933	0	36352	
5934	0	36288	
5935	0	36156	
5936	0	35968	
5937	0	35800	
5938	0	35612	
5939	0	35352	
5940	0	35116	
5941	0	34928	
5942	0	34760	
5943	0	34568	
5944	0	34348	
5945	0	34092	
5946	0	33852	
5947	0	33696	
5948	0	33516	
5949	0	33316	
5950	0	33098	
5951	0	32892	
5952	0	32704	
5953	0	32548	
5954	0	32344	
5955	0	32116	
5956	0	31884	
5957	0	31704	
5958	0	31508	
5959	0	31314	
5960	0	31168	
5961	0	31000	
5962	0	30844	
5963	0	30720	
5964	0	30612	
5965	0	30520	
5966	0	30392	
5967	0	30232	
5968	0	30048	
5969	0	29904	
5970	0	29722	
5971	0	29532	
5972	0	29344	
5973	0	29224	
5974	0	29136	
5975	0	29104	
5976	0	29122	
5977	0	29100	
5978	0	29040	
5979	0	28898	
5980	0	28680	
5981	0	28516	
5982	0	28420	
5983	0	28418	
5984	0	28404	
5985	0	28364	
5986	0	28376	
5987	0	28416	
5988	0	28416	
5989	0	28376	
5990	0	28328	
5991	0	28338	
5992	0	28488	
5993	0	28588	
5994	0	28620	
5995	0	28536	
5996	0	28484	
5997	0	28532	
5998	0	28552	
5999	0	28544	
6000	0	28536	
6001	0	28440	
6002	0	28396	
6003	0	28392	
6004	0	28428	
6005	0	28460	
6006	0	28512	
6007	0	28536	
6008	0	28576	
6009	0	28560	
6010	0	28520	
6011	0	28516	
6012	0	28536	
6013	0	28560	
6014	0	28642	
6015	0	28680	
6016	0	28692	
6017	0	28620	
6018	0	28604	
6019	0	28588	
6020	0	28624	
6021	0	28676	
6022	0	28728	
6023	0	28720	
6024	0	28740	
6025	0	28744	
6026	0	28752	
6027	0	28876	
6028	0	28992	
6029	0	29088	
6030	0	29156	
6031	0	29188	
6032	0	29212	
6033	0	29260	
6034	0	29316	
6035	0	29392	
6036	0	29488	
6037	0	29508	
6038	0	29476	
6039	0	29488	
6040	0	29572	
6041	0	29676	
6042	0	29728	
6043	0	29764	
6044	0	29744	
6045	0	29732	
6046	0	29776	
6047	0	29912	
6048	0	30064	
6049	0	30136	
6050	0	30156	
6051	0	30168	
6052	0	30196	
6053	0	30256	
6054	0	30272	
6055	0	30252	
6056	0	30268	
6057	0	30292	
6058	0	30300	
6059	0	30388	
6060	0	30528	
6061	0	30612	
6062	0	30664	
6063	0	30740	
6064	0	30876	
6065	0	30958	
6066	0	30996	
6067	0	31020	
6068	0	30956	
6069	0	30900	
6070	0	30876	
6071	0	30932	
6072	0	31088	
6073	0	31248	
6074	0	31332	
6075	0	31328	
6076	0	31340	
6077	0	31320	
6078	0	31202	
6079	0	31074	
6080	0	31000	
6081	0	31016	
6082	0	31076	
6083	0	31192	
6084	0	31304	
6085	0	31320	
6086	0	31292	
6087	0	31296	
6088	0	31344	
6089	0	31426	
6090	0	31524	
6091	0	31592	
6092	0	31644	
6093	0	31680	
6094	0	31724	
6095	0	31800	
6096	0	31864	
6097	0	31912	
6098	0	31948	
6099	0	31996	
6100	0	31976	
6101	0	31892	
6102	0	31800	
6103	0	31744	
6104	0	31770	
6105	0	31800	
6106	0	31766	
6107	0	31888	
6108	0	32096	
6109	0	32200	
6110	0	32256	
6111	0	32256	
6112	0	32196	
6113	0	32128	
6114	0	32076	
6115	0	32140	
6116	0	32160	
6117	0	32068	
6118	0	32018	
6119	0	32028	
6120	0	32016	
6121	0	31996	
6122	0	31868	
6123	0	31696	
6124	0	31562	
6125	0	31520	
6126	0	31540	
6127	0	31540	
6128	0	31528	
6129	0	31588	
6130	0	31732	
6131	0	31850	
6132	0	31908	
6133	0	31974	
6134	0	31996	
6135	0	32044	
6136	0	32136	
6137	0	32204	
6138	0	32188	
6139	0	32080	
6140	0	31928	
6141	0	31864	
6142	0	31776	
6143	0	31720	
6144	0	31752	
6145	0	31796	
6146	0	31792	
6147	0	31788	
6148	0	31762	
6149	0	31736	
6150	0	31708	
6151	0	31760	
6152	0	31856	
6153	0	31888	
6154	0	31884	
6155	0	31948	
6156	0	31946	
6157	0	31868	
6158	0	31732	
6159	0	31674	
6160	0	31722	
6161	0	31792	
6162	0	31884	
6163	0	31972	
6164	0	31984	
6165	0	31914	
6166	0	31888	
6167	0	31832	
6168	0	31788	
6169	0	31776	
6170	0	31744	
6171	0	31724	
6172	0	31728	
6173	0	31712	
6174	0	31760	
6175	0	31852	
6176	0	31940	
6177	0	32008	
6178	0	32048	
6179	0	32080	
6180	0	32116	
6181	0	32064	
6182	0	31952	
6183	0	31856	
6184	0	31832	
6185	0	31824	
6186	0	31836	
6187	0	31898	
6188	0	31960	
6189	0	31960	
6190	0	31930	
6191	0	31924	
6192	0	32016	
6193	0	32152	
6194	0	32212	
6195	0	32224	
6196	0	32204	
6197	0	32176	
6198	0	32124	
6199	0	32080	
6200	0	32016	
6201	0	32088	
6202	0	32156	
6203	0	32148	
6204	0	32116	
6205	0	32032	
6206	0	31832	
6207	0	31560	
6208	0	31412	
6209	0	31352	
6210	0	31428	
6211	0	31604	
6212	0	31796	
6213	0	31852	
6214	0	31832	
6215	0	31848	
6216	0	32008	
6217	0	32292	
6218	0	32540	
6219	0	32620	
6220	0	32596	
6221	0	32558	
6222	0	32576	
6223	0	32700	
6224	0	32824	
6225	0	32832	
6226	0	32816	
6227	0	32844	
6228	0	32996	
6229	0	33192	
6230	0	33332	
6231	0	33324	
6232	0	33288	
6233	0	33216	
6234	0	33156	
6235	0	33192	
6236	0	33184	
6237	0	33040	
6238	0	32780	
6239	0	32568	
6240	0	32534	
6241	0	32636	
6242	0	32856	
6243	0	32980	
6244	0	33072	
6245	0	33272	
6246	0	33564	
6247	0	33848	
6248	0	34168	
6249	0	34400	
6250	0	34544	
6251	0	34628	
6252	0	34736	
6253	0	34984	
6254	0	35224	
6255	0	35272	
6256	0	35152	
6257	0	35032	
6258	0	34948	
6259	0	34800	
6260	0	34664	
6261	0	34550	
6262	0	34384	
6263	0	34168	
6264	0	33984	
6265	0	33844	
6266	0	33584	
6267	0	33284	
6268	0	33088	
6269	0	33004	
6270	0	32944	
6271	0	32916	
6272	0	32992	
6273	0	33136	
6274	0	33248	
6275	0	33260	
6276	0	33220	
6277	0	33176	
6278	0	33096	
6279	0	32944	
6280	0	32764	
6281	0	32584	
6282	0	32476	
6283	0	32440	
6284	0	32444	
6285	0	32392	
6286	0	32392	
6287	0	32440	
6288	0	32476	
6289	0	32556	
6290	0	32528	
6291	0	32376	
6292	0	32180	
6293	0	32072	
6294	0	31944	
6295	0	31768	
6296	0	31552	
6297	0	31336	
6298	0	31232	
6299	0	31272	
6300	0	31272	
6301	0	31236	
6302	0	31214	
6303	0	31212	
6304	0	31192	
6305	0	31300	
6306	0	31400	
6307	0	31388	
6308	0	31424	
6309	0	31456	
6310	0	31344	
6311	0	31232	
6312	0	31148	
6313	0	31116	
6314	0	31136	
6315	0	31216	
6316	0	31348	
6317	0	31544	
6318	0	31746	
6319	0	31880	
6320	0	31892	
6321	0	31840	
6322	0	31824	
6323	0	31932	
6324	0	32000	
6325	0	31962	
6326	0	31912	
6327	0	31888	
6328	0	31860	
6329	0	31790	
6330	0	31764	
6331	0	31741	
6332	0	31656	
6333	0	31528	
6334	0	31396	
6335	0	31328	
6336	0	31204	
6337	0	31080	
6338	0	30864	
6339	0	30458	
6340	0	29852	
6341	0	29188	
6342	0	28756	
6343	0	28560	
6344	0	28548	
6345	0	28604	
6346	0	28872	
6347	0	29456	
6348	0	30316	
6349	0	31422	
6350	0	32656	
6351	0	33996	
6352	0	35504	
6353	0	37184	
6354	0	38872	
6355	0	40656	
6356	0	42820	
6357	0	45504	
6358	0	48716	
6359	0	52232	
6360	0	55764	
6361	0	59192	
6362	0	61836	
6363	0	63252	
6364	0	63968	
6365	0	64304	
6366	0	64428	
6367	0	64420	
6368	0	64376	
6369	0	64276	
6370	0	64168	
6371	0	64064	
6372	0	58284	
6373	0	51416	
6374	0	44884	
6375	0	39384	
6376	0	35176	
6377	0	32092	
6378	0	30010	
6379	0	28728	
6380	0	27888	
6381	0	27272	
6382	0	26712	
6383	0	26164	
6384	0	25536	
6385	0	24928	
6386	0	24408	
6387	0	24092	
6388	0	24060	
6389	0	24152	
6390	0	24288	
6391	0	24432	
6392	0	24436	
6393	0	24428	
6394	0	24560	
6395	0	24864	
6396	0	25265	
6397	0	25712	
6398	0	26020	
6399	0	26304	
6400	0	26588	
6401	0	27004	
6402	0	27554	
6403	0	28100	
6404	0	28540	
6405	0	28944	
6406	0	29288	
6407	0	29564	
6408	0	29804	
6409	0	29984	
6410	0	30168	
6411	0	30240	
6412	0	30172	
6413	0	30020	
6414	0	29936	
6415	0	29852	
6416	0	29840	
6417	0	29868	
6418	0	29908	
6419	0	30048	
6420	0	30162	
6421	0	30144	
6422	0	30068	
6423	0	30048	
6424	0	30140	
6425	0	30136	
6426	0	30036	
6427	0	29930	
6428	0	29808	
6429	0	29848	
6430	0	30144	
6431	0	30392	
6432	0	30448	
6433	0	30444	
6434	0	30442	
6435	0	30440	
6436	0	30448	
6437	0	30452	
6438	0	30560	
6439	0	30680	
6440	0	30832	
6441	0	30944	
6442	0	30972	
6443	0	31056	
6444	0	31192	
6445	0	31252	
6446	0	31200	
6447	0	31076	
6448	0	30938	
6449	0	30880	
6450	0	30988	
6451	0	31148	
6452	0	31300	
6453	0	31392	
6454	0	31448	
6455	0	31538	
6456	0	31744	
6457	0	31944	
6458	0	32076	
6459	0	32088	
6460	0	31992	
6461	0	32010	
6462	0	32052	
6463	0	31956	
6464	0	31820	
6465	0	31780	
6466	0	31728	
6467	0	31608	
6468	0	31524	
6469	0	31512	
6470	0	31548	
6471	0	31636	
6472	0	31792	
6473	0	31968	
6474	0	32132	
6475	0	32304	
6476	0	32528	
6477	0	32700	
6478	0	32596	
6479	0	32584	
6480	0	32676	
6481	0	32740	
6482	0	32784	
6483	0	32792	
6484	0	32784	
6485	0	32780	
6486	0	32706	
6487	0	32588	
6488	0	32620	
6489	0	32812	
6490	0	33066	
6491	0	33224	
6492	0	33264	
6493	0	33240	
6494	0	33156	
6495	0	33026	
6496	0	32940	
6497	0	32976	
6498	0	33048	
6499	0	33154	
6500	0	33264	
6501	0	33392	
6502	0	33540	
6503	0	33716	
6504	0	33828	
6505	0	33920	
6506	0	34056	
6507	0	34112	
6508	0	34162	
6509	0	34248	
6510	0	34372	
6511	0	34396	
6512	0	34348	
6513	0	34112	
6514	0	33744	
6515	0	33572	
6516	0	33592	
6517	0	33684	
6518	0	33840	
6519	0	34084	
6520	0	34348	
6521	0	34616	
6522	0	34816	
6523	0	35004	
6524	0	35152	
6525	0	35296	
6526	0	35388	
6527	0	35440	
6528	0	35484	
6529	0	35484	
6530	0	35424	
6531	0	35456	
6532	0	35696	
6533	0	35904	
6534	0	35976	
6535	0	36084	
6536	0	36188	
6537	0	36336	
6538	0	36480	
6539	0	36672	
6540	0	36792	
6541	0	36824	
6542	0	36744	
6543	0	36644	
6544	0	36564	
6545	0	36548	
6546	0	36584	
6547	0	36632	
6548	0	36788	
6549	0	36968	
6550	0	37164	
6551	0	37312	
6552	0	37428	
6553	0	37512	
6554	0	37600	
6555	0	37690	
6556	0	37776	
6557	0	37824	
6558	0	37816	
6559	0	37808	
6560	0	37848	
6561	0	37916	
6562	0	38064	
6563	0	38212	
6564	0	38236	
6565	0	38116	
6566	0	38062	
6567	0	38116	
6568	0	38220	
6569	0	38300	
6570	0	38316	
6571	0	38432	
6572	0	38556	
6573	0	38632	
6574	0	38612	
6575	0	38540	
6576	0	38420	
6577	0	38400	
6578	0	38424	
6579	0	38508	
6580	0	38632	
6581	0	38684	
6582	0	38652	
6583	0	38640	
6584	0	38568	
6585	0	38476	
6586	0	38328	
6587	0	38216	
6588	0	38108	
6589	0	37928	
6590	0	37616	
6591	0	37392	
6592	0	37272	
6593	0	37164	
6594	0	37074	
6595	0	36992	
6596	0	36920	
6597	0	36808	
6598	0	36612	
6599	0	36432	
6600	0	36358	
6601	0	36300	
6602	0	36144	
6603	0	35964	
6604	0	35688	
6605	0	35408	
6606	0	35180	
6607	0	34976	
6608	0	34752	
6609	0	34640	
6610	0	34684	
6611	0	34580	
6612	0	34256	
6613	0	34060	
6614	0	33824	
6615	0	33476	
6616	0	33132	
6617	0	32752	
6618	0	32308	
6619	0	31852	
6620	0	31520	
6621	0	31332	
6622	0	31208	
6623	0	31220	
6624	0	31264	
6625	0	31280	
6626	0	31248	
6627	0	31076	
6628	0	30906	
6629	0	30832	
6630	0	30712	
6631	0	30444	
6632	0	30152	
6633	0	29964	
6634	0	29912	
6635	0	29798	
6636	0	29544	
6637	0	29352	
6638	0	29104	
6639	0	28876	
6640	0	28736	
6641	0	28756	
6642	0	28790	
6643	0	28776	
6644	0	28740	
6645	0	28694	
6646	0	28612	
6647	0	28520	
6648	0	28420	
6649	0	28276	
6650	0	28188	
6651	0	28144	
6652	0	28080	
6653	0	27992	
6654	0	27920	
6655	0	27896	
6656	0	27916	
6657	0	27968	
6658	0	27908	
6659	0	27892	
6660	0	27928	
6661	0	27984	
6662	0	27978	
6663	0	27924	
6664	0	27992	
6665	0	28064	
6666	0	28036	
6667	0	27992	
6668	0	27990	
6669	0	28040	
6670	0	28096	
6671	0	28064	
6672	0	28060	
6673	0	28093	
6674	0	28216	
6675	0	28400	
6676	0	28524	
6677	0	28568	
6678	0	28596	
6679	0	28584	
6680	0	28650	
6681	0	28744	
6682	0	28864	
6683	0	28912	
6684	0	28960	
6685	0	28932	
6686	0	28844	
6687	0	28736	
6688	0	28706	
6689	0	28680	
6690	0	28680	
6691	0	28704	
6692	0	28604	
6693	0	28576	
6694	0	28668	
6695	0	28822	
6696	0	28908	
6697	0	28856	
6698	0	28824	
6699	0	28944	
6700	0	29088	
6701	0	29180	
6702	0	29272	
6703	0	29322	
6704	0	29336	
6705	0	29372	
6706	0	29325	
6707	0	29310	
6708	0	29292	
6709	0	29316	
6710	0	29384	
6711	0	29522	
6712	0	29672	
6713	0	29772	
6714	0	29808	
6715	0	29824	
6716	0	29884	
6717	0	29992	
6718	0	30016	
6719	0	29988	
6720	0	29932	
6721	0	29916	
6722	0	29920	
6723	0	29960	
6724	0	29948	
6725	0	29940	
6726	0	29970	
6727	0	30058	
6728	0	30136	
6729	0	30172	
6730	0	30200	
6731	0	30276	
6732	0	30320	
6733	0	30296	
6734	0	30292	
6735	0	30362	
6736	0	30420	
6737	0	30512	
6738	0	30628	
6739	0	30736	
6740	0	30830	
6741	0	30892	
6742	0	30844	
6743	0	30820	
6744	0	30882	
6745	0	30896	
6746	0	30868	
6747	0	30828	
6748	0	30792	
6749	0	30760	
6750	0	30776	
6751	0	30780	
6752	0	30820	
6753	0	30896	
6754	0	31032	
6755	0	31198	
6756	0	31220	
6757	0	31156	
6758	0	31148	
6759	0	31120	
6760	0	31074	
6761	0	31068	
6762	0	31050	
6763	0	30996	
6764	0	31006	
6765	0	31064	
6766	0	31136	
6767	0	31272	
6768	0	31380	
6769	0	31456	
6770	0	31472	
6771	0	31524	
6772	0	31592	
6773	0	31596	
6774	0	31636	
6775	0	31728	
6776	0	31760	
6777	0	31652	
6778	0	31604	
6779	0	31620	
6780	0	31576	
6781	0	31496	
6782	0	31484	
6783	0	31544	
6784	0	31638	
6785	0	31644	
6786	0	31584	
6787	0	31496	
6788	0	31460	
6789	0	31504	
6790	0	31572	
6791	0	31600	
6792	0	31672	
6793	0	31816	
6794	0	31918	
6795	0	31848	
6796	0	31800	
6797	0	31784	
6798	0	31760	
6799	0	31724	
6800	0	31680	
6801	0	31656	
6802	0	31576	
6803	0	31392	
6804	0	31296	
6805	0	31280	
6806	0	31256	
6807	0	31124	
6808	0	31068	
6809	0	31108	
6810	0	31200	
6811	0	31308	
6812	0	31448	
6813	0	31620	
6814	0	31778	
6815	0	31848	
6816	0	31896	
6817	0	31920	
6818	0	31862	
6819	0	31840	
6820	0	31844	
6821	0	31844	
6822	0	31736	
6823	0	31520	
6824	0	31304	
6825	0	31172	
6826	0	31132	
6827	0	31152	
6828	0	31196	
6829	0	31264	
6830	0	31360	
6831	0	31424	
6832	0	31452	
6833	0	31432	
6834	0	31508	
6835	0	31608	
6836	0	31604	
6837	0	31600	
6838	0	31612	
6839	0	31588	
6840	0	31560	
6841	0	31584	
6842	0	31672	
6843	0	31708	
6844	0	31696	
6845	0	31672	
6846	0	31692	
6847	0	31738	
6848	0	31888	
6849	0	31976	
6850	0	32002	
6851	0	32056	
6852	0	32104	
6853	0	32120	
6854	0	32112	
6855	0	32080	
6856	0	31992	
6857	0	31948	
6858	0	31972	
6859	0	32032	
6860	0	32018	
6861	0	31962	
6862	0	32060	
6863	0	32288	
6864	0	32538	
6865	0	32688	
6866	0	32708	
6867	0	32692	
6868	0	32692	
6869	0	32740	
6870	0	32812	
6871	0	32812	
6872	0	32764	
6873	0	32688	
6874	0	32524	
6875	0	32364	
6876	0	32240	
6877	0	32188	
6878	0	32200	
6879	0	32240	
6880	0	32308	
6881	0	32452	
6882	0	32596	
6883	0	32720	
6884	0	32888	
6885	0	33120	
6886	0	33344	
6887	0	33552	
6888	0	33680	
6889	0	33782	
6890	0	33824	
6891	0	33920	
6892	0	34120	
6893	0	34402	
6894	0	34660	
6895	0	34810	
6896	0	34820	
6897	0	34668	
6898	0	34476	
6899	0	34312	
6900	0	34204	
6901	0	34136	
6902	0	34064	
6903	0	34052	
6904	0	33984	
6905	0	33864	
6906	0	33782	
6907	0	33636	
6908	0	33488	
6909	0	33329	
6910	0	33172	
6911	0	33016	
6912	0	32872	
6913	0	32776	
6914	0	32634	
6915	0	32538	
6916	0	32468	
6917	0	32438	
6918	0	32428	
6919	0	32320	
6920	0	32216	
6921	0	32184	
6922	0	32120	
6923	0	32064	
6924	0	31988	
6925	0	31944	
6926	0	31884	
6927	0	31820	
6928	0	31832	
6929	0	31852	
6930	0	31774	
6931	0	31696	
6932	0	31602	
6933	0	31466	
6934	0	31388	
6935	0	31332	
6936	0	31224	
6937	0	31132	
6938	0	31072	
6939	0	31016	
6940	0	30904	
6941	0	30812	
6942	0	30692	
6943	0	30640	
6944	0	30674	
6945	0	30784	
6946	0	30892	
6947	0	30956	
6948	0	30908	
6949	0	30842	
6950	0	30776	
6951	0	30744	
6952	0	30744	
6953	0	30748	
6954	0	30768	
6955	0	30872	
6956	0	30996	
6957	0	31180	
6958	0	31332	
6959	0	31372	
6960	0	31386	
6961	0	31360	
6962	0	31296	
6963	0	31244	
6964	0	31220	
6965	0	31228	
6966	0	31192	
6967	0	31072	
6968	0	30984	
6969	0	31008	
6970	0	31090	
6971	0	31216	
6972	0	31356	
6973	0	31464	
6974	0	31536	
6975	0	31560	
6976	0	31488	
6977	0	31320	
6978	0	31116	
6979	0	30820	
6980	0	30356	
6981	0	29748	
6982	0	29160	
6983	0	28760	
6984	0	28620	
6985	0	28640	
6986	0	28728	
6987	0	29016	
6988	0	29472	
6989	0	30168	
6990	0	31144	
6991	0	32140	
6992	0	33210	
6993	0	34476	
6994	0	35992	
6995	0	37664	
6996	0	39664	
6997	0	42016	
6998	0	44820	
6999	0	48116	
7000	0	51792	
7001	0	55528	
7002	0	59152	
7003	0	62040	
7004	0	63604	
7005	0	64420	
7006	0	64800	
7007	0	64948	
7008	0	64968	
7009	0	64928	
7010	0	64832	
7011	0	64720	
7012	0	64616	
7013	0	61392	
7014	0	54440	
7015	0	47680	
7016	0	41960	
7017	0	37492	
7018	0	34070	
7019	0	31578	
7020	0	29796	
7021	0	28420	
7022	0	27344	
7023	0	26556	
7024	0	25900	
7025	0	25220	
7026	0	24624	
7027	0	24116	
7028	0	23880	
7029	0	23854	
7030	0	24000	
7031	0	24222	
7032	0	24452	
7033	0	24620	
7034	0	24640	
7035	0	24724	
7036	0	24920	
7037	0	25224	
7038	0	25572	
7039	0	25948	
7040	0	26328	
7041	0	26728	
7042	0	27060	
7043	0	27396	
7044	0	27737	
7045	0	28056	
7046	0	28324	
7047	0	28600	
7048	0	28880	
7049	0	29100	
7050	0	29292	
7051	0	29480	
7052	0	29620	
7053	0	29692	
7054	0	29696	
7055	0	29692	
7056	0	29710	
7057	0	29664	
7058	0	29596	
7059	0	29564	
7060	0	29592	
7061	0	29644	
7062	0	29712	
7063	0	29800	
7064	0	29908	
7065	0	30008	
7066	0	30160	
7067	0	30248	
7068	0	30308	
7069	0	30336	
7070	0	30336	
7071	0	30312	
7072	0	30316	
7073	0	30388	
7074	0	30392	
7075	0	30356	
7076	0	30332	
7077	0	30388	
7078	0	30488	
7079	0	30528	
7080	0	30532	
7081	0	30512	
7082	0	30480	
7083	0	30476	
7084	0	30532	
7085	0	30568	
7086	0	30624	
7087	0	30656	
7088	0	30664	
7089	0	30660	
7090	0	30704	
7091	0	30744	
7092	0	30790	
7093	0	30900	
7094	0	30996	
7095	0	31120	
7096	0	31272	
7097	0	31368	
7098	0	31452	
7099	0	31536	
7100	0	31620	
7101	0	31648	
7102	0	31684	
7103	0	31696	
7104	0	31700	
7105	0	31704	
7106	0	31722	
7107	0	31712	
7108	0	31744	
7109	0	31752	
7110	0	31776	
7111	0	31836	
7112	0	31880	
7113	0	31868	
7114	0	31860	
7115	0	31860	
7116	0	31904	
7117	0	31938	
7118	0	31932	
7119	0	31956	
7120	0	31960	
7121	0	31980	
7122	0	32064	
7123	0	32112	
7124	0	32096	
7125	0	32164	
7126	0	32256	
7127	0	32360	
7128	0	32500	
7129	0	32612	
7130	0	32696	
7131	0	32788	
7132	0	32808	
7133	0	32816	
7134	0	32826	
7135	0	32872	
7136	0	32904	
7137	0	32944	
7138	0	33020	
7139	0	33104	
7140	0	33168	
7141	0	33172	
7142	0	33180	
7143	0	33208	
7144	0	33284	
7145	0	33372	
7146	0	33412	
7147	0	33476	
7148	0	33560	
7149	0	33628	
7150	0	33656	
7151	0	33696	
7152	0	33780	
7153	0	33824	
7154	0	33892	
7155	0	34008	
7156	0	34148	
7157	0	34244	
7158	0	34252	
7159	0	34228	
7160	0	34212	
7161	0	34208	
7162	0	34276	
7163	0	34380	
7164	0	34496	
7165	0	34564	
7166	0	34628	
7167	0	34720	
7168	0	34856	
7169	0	35002	
7170	0	35020	
7171	0	35004	
7172	0	34988	
7173	0	35052	
7174	0	35168	
7175	0	35212	
7176	0	35312	
7177	0	35440	
7178	0	35592	
7179	0	35756	
7180	0	35876	
7181	0	35996	
7182	0	36020	
7183	0	36068	
7184	0	36228	
7185	0	36336	
7186	0	36448	
7187	0	36576	
7188	0	36676	
7189	0	36716	
7190	0	36752	
7191	0	36788	
7192	0	36868	
7193	0	36980	
7194	0	37096	
7195	0	37152	
7196	0	37200	
7197	0	37252	
7198	0	37312	
7199	0	37364	
7200	0	37464	
7201	0	37536	
7202	0	37528	
7203	0	37528	
7204	0	37588	
7205	0	37586	
7206	0	37588	
7207	0	37610	
7208	0	37576	
7209	0	37600	
7210	0	37612	
7211	0	37640	
7212	0	37616	
7213	0	37600	
7214	0	37648	
7215	0	37608	
7216	0	37608	
7217	0	37632	
7218	0	37624	
7219	0	37536	
7220	0	37400	
7221	0	37312	
7222	0	37264	
7223	0	37224	
7224	0	37176	
7225	0	37160	
7226	0	37136	
7227	0	37056	
7228	0	36992	
7229	0	37020	
7230	0	37136	
7231	0	37176	
7232	0	37092	
7233	0	36980	
7234	0	36808	
7235	0	36624	
7236	0	36448	
7237	0	36240	
7238	0	36052	
7239	0	35876	
7240	0	35644	
7241	0	35428	
7242	0	35240	
7243	0	35056	
7244	0	34912	
7245	0	34780	
7246	0	34592	
7247	0	34372	
7248	0	34168	
7249	0	33964	
7250	0	33700	
7251	0	33432	
7252	0	33192	
7253	0	33004	
7254	0	32864	
7255	0	32684	
7256	0	32456	
7257	0	32216	
7258	0	31988	
7259	0	31732	
7260	0	31488	
7261	0	31328	
7262	0	31156	
7263	0	30984	
7264	0	30848	
7265	0	30680	
7266	0	30496	
7267	0	30348	
7268	0	30228	
7269	0	30044	
7270	0	29872	
7271	0	29740	
7272	0	29620	
7273	0	29476	
7274	0	29324	
7275	0	29216	
7276	0	29128	
7277	0	29024	
7278	0	28920	
7279	0	28808	
7280	0	28714	
7281	0	28626	
7282	0	28572	
7283	0	28540	
7284	0	28504	
7285	0	28456	
7286	0	28420	
7287	0	28412	
7288	0	28384	
7289	0	28408	
7290	0	28424	
7291	0	28366	
7292	0	28224	
7293	0	28120	
7294	0	28032	
7295	0	27984	
7296	0	28016	
7297	0	28048	
7298	0	28050	
7299	0	28032	
7300	0	27984	
7301	0	27924	
7302	0	27896	
7303	0	27904	
7304	0	27956	
7305	0	28002	
7306	0	28024	
7307	0	28032	
7308	0	28124	
7309	0	28176	
7310	0	28194	
7311	0	28264	
7312	0	28296	
7313	0	28328	
7314	0	28360	
7315	0	28412	
7316	0	28448	
7317	0	28468	
7318	0	28514	
7319	0	28544	
7320	0	28564	
7321	0	28624	
7322	0	28672	
7323	0	28700	
7324	0	28734	
7325	0	28760	
7326	0	28736	
7327	0	28684	
7328	0	28672	
7329	0	28624	
7330	0	28576	
7331	0	28704	
7332	0	28820	
7333	0	28880	
7334	0	28968	
7335	0	29080	
7336	0	29080	
7337	0	29028	
7338	0	29040	
7339	0	29050	
7340	0	29060	
7341	0	29078	
7342	0	29136	
7343	0	29220	
7344	0	29292	
7345	0	29344	
7346	0	29376	
7347	0	29404	
7348	0	29448	
7349	0	29556	
7350	0	29642	
7351	0	29752	
7352	0	29842	
7353	0	29904	
7354	0	29948	
7355	0	29980	
7356	0	30000	
7357	0	30008	
7358	0	29952	
7359	0	29956	
7360	0	29970	
7361	0	30004	
7362	0	30080	
7363	0	30140	
7364	0	30192	
7365	0	30232	
7366	0	30316	
7367	0	30396	
7368	0	30480	
7369	0	30532	
7370	0	30556	
7371	0	30644	
7372	0	30672	
7373	0	30684	
7374	0	30692	
7375	0	30660	
7376	0	30626	
7377	0	30544	
7378	0	30540	
7379	0	30628	
7380	0	30656	
7381	0	30676	
7382	0	30712	
7383	0	30716	
7384	0	30684	
7385	0	30684	
7386	0	30700	
7387	0	30688	
7388	0	30712	
7389	0	30768	
7390	0	30836	
7391	0	30924	
7392	0	30946	
7393	0	31008	
7394	0	31072	
7395	0	31212	
7396	0	31272	
7397	0	31248	
7398	0	31226	
7399	0	31216	
7400	0	31208	
7401	0	31230	
7402	0	31236	
7403	0	31232	
7404	0	31284	
7405	0	31300	
7406	0	31296	
7407	0	31296	
7408	0	31296	
7409	0	31248	
7410	0	31192	
7411	0	31160	
7412	0	31178	
7413	0	31272	
7414	0	31340	
7415	0	31332	
7416	0	31326	
7417	0	31328	
7418	0	31388	
7419	0	31448	
7420	0	31460	
7421	0	31432	
7422	0	31400	
7423	0	31500	
7424	0	31582	
7425	0	31604	
7426	0	31572	
7427	0	31504	
7428	0	31428	
7429	0	31392	
7430	0	31412	
7431	0	31432	
7432	0	31424	
7433	0	31380	
7434	0	31340	
7435	0	31342	
7436	0	31362	
7437	0	31412	
7438	0	31456	
7439	0	31464	
7440	0	31544	
7441	0	31594	
7442	0	31612	
7443	0	31660	
7444	0	31722	
7445	0	31724	
7446	0	31716	
7447	0	31692	
7448	0	31656	
7449	0	31656	
7450	0	31696	
7451	0	31712	
7452	0	31676	
7453	0	31684	
7454	0	31768	
7455	0	31784	
7456	0	31804	
7457	0	31864	
7458	0	31842	
7459	0	31792	
7460	0	31664	
7461	0	31480	
7462	0	31320	
7463	0	31256	
7464	0	31288	
7465	0	31316	
7466	0	31360	
7467	0	31418	
7468	0	31472	
7469	0	31492	
7470	0	31492	
7471	0	31536	
7472	0	31604	
7473	0	31684	
7474	0	31716	
7475	0	31752	
7476	0	31792	
7477	0	31844	
7478	0	31904	
7479	0	31936	
7480	0	31916	
7481	0	31860	
7482	0	31868	
7483	0	31872	
7484	0	31860	
7485	0	31830	
7486	0	31788	
7487	0	31788	
7488	0	31768	
7489	0	31688	
7490	0	31728	
7491	0	31852	
7492	0	32004	
7493	0	32016	
7494	0	31852	
7495	0	31728	
7496	0	31720	
7497	0	31712	
7498	0	31732	
7499	0	31842	
7500	0	31968	
7501	0	32036	
7502	0	32060	
7503	0	32184	
7504	0	32344	
7505	0	32508	
7506	0	32660	
7507	0	32776	
7508	0	32846	
7509	0	32852	
7510	0	32888	
7511	0	32928	
7512	0	32956	
7513	0	32976	
7514	0	32996	
7515	0	32960	
7516	0	32832	
7517	0	32672	
7518	0	32600	
7519	0	32604	
7520	0	32608	
7521	0	32620	
7522	0	32696	
7523	0	32800	
7524	0	32936	
7525	0	33120	
7526	0	33376	
7527	0	33664	
7528	0	33996	
7529	0	34240	
7530	0	34360	
7531	0	34420	
7532	0	34464	
7533	0	34540	
7534	0	34672	
7535	0	34792	
7536	0	34812	
7537	0	34736	
7538	0	34608	
7539	0	34496	
7540	0	34400	
7541	0	34324	
7542	0	34232	
7543	0	34104	
7544	0	33972	
7545	0	33886	
7546	0	33800	
7547	0	33708	
7548	0	33572	
7549	0	33460	
7550	0	33364	
7551	0	33284	
7552	0	33156	
7553	0	32984	
7554	0	32808	
7555	0	32664	
7556	0	32558	
7557	0	32552	
7558	0	32588	
7559	0	32560	
7560	0	32428	
7561	0	32232	
7562	0	32072	
7563	0	32032	
7564	0	31984	
7565	0	31896	
7566	0	31804	
7567	0	31672	
7568	0	31548	
7569	0	31472	
7570	0	31468	
7571	0	31488	
7572	0	31424	
7573	0	31308	
7574	0	31204	
7575	0	31108	
7576	0	30996	
7577	0	30918	
7578	0	30844	
7579	0	30784	
7580	0	30706	
7581	0	30624	
7582	0	30624	
7583	0	30692	
7584	0	30704	
7585	0	30694	
7586	0	30744	
7587	0	30766	
7588	0	30740	
7589	0	30728	
7590	0	30692	
7591	0	30700	
7592	0	30772	
7593	0	30856	
7594	0	30920	
7595	0	30880	
7596	0	30820	
7597	0	30824	
7598	0	30856	
7599	0	30872	
7600	0	30888	
7601	0	30880	
7602	0	30918	
7603	0	31012	
7604	0	31104	
7605	0	31100	
7606	0	31050	
7607	0	31028	
7608	0	31036	
7609	0	31100	
7610	0	31196	
7611	0	31284	
7612	0	31336	
7613	0	31380	
7614	0	31432	
7615	0	31464	
7616	0	31476	
7617	0	31476	
7618	0	31404	
7619	0	31244	
7620	0	31040	
7621	0	30688	
7622	0	30140	
7623	0	29516	
7624	0	28904	
7625	0	28492	
7626	0	28332	
7627	0	28392	
7628	0	28652	
7629	0	29052	
7630	0	29574	
7631	0	30320	
7632	0	31272	
7633	0	32444	
7634	0	33804	
7635	0	35424	
7636	0	37184	
7637	0	39044	
7638	0	41248	
7639	0	43768	
7640	0	46714	
7641	0	50196	
7642	0	53932	
7643	0	57560	
7644	0	60980	
7645	0	63440	
7646	0	64736	
7647	0	65416	
7648	0	65535	
7649	0	65535	
7650	0	65535	
7651	0	65535	
7652	0	65535	
7653	0	65535	
7654	0	65404	
7655	0	65268	
7656	0	64224	
7657	0	57400	
7658	0	51652	
7659	0	46976	
7660	0	43092	
7661	0	39792	
7662	0	36908	
7663	0	34328	
7664	0	32156	
7665	0	30588	
7666	0	29429	
7667	0	28512	
7668	0	27800	
7669	0	27210	
7670	0	26748	
7671	0	26492	
7672	0	26440	
7673	0	26598	
7674	0	26852	
7675	0	27076	
7676	0	27136	
7677	0	27004	
7678	0	26828	
7679	0	26768	
7680	0	26840	
7681	0	26916	
7682	0	27116	
7683	0	27356	
7684	0	27581	
7685	0	27794	
7686	0	27928	
7687	0	28012	
7688	0	28098	
7689	0	28212	
7690	0	28288	
7691	0	28376	
7692	0	28456	
7693	0	28512	
7694	0	28560	
7695	0	28628	
7696	0	28612	
7697	0	28620	
7698	0	28580	
7699	0	28580	
7700	0	28500	
7701	0	28344	
7702	0	28224	
7703	0	28244	
7704	0	28360	
7705	0	28456	
7706	0	28508	
7707	0	28564	
7708	0	28624	
7709	0	28716	
7710	0	28780	
7711	0	28920	
7712	0	29072	
7713	0	29148	
7714	0	29168	
7715	0	29232	
7716	0	29258	
7717	0	29252	
7718	0	29228	
7719	0	29220	
7720	0	29228	
7721	0	29260	
7722	0	29304	
7723	0	29352	
7724	0	29402	
7725	0	29488	
7726	0	29564	
7727	0	29624	
7728	0	29684	
7729	0	29752	
7730	0	29808	
7731	0	29860	
7732	0	29888	
7733	0	29900	
7734	0	29932	
7735	0	29964	
7736	0	30004	
7737	0	30050	
7738	0	30090	
7739	0	30100	
7740	0	30120	
7741	0	30180	
7742	0	30308	
7743	0	30444	
7744	0	30508	
7745	0	30532	
7746	0	30532	
7747	0	30566	
7748	0	30620	
7749	0	30692	
7750	0	30736	
7751	0	30778	
7752	0	30794	
7753	0	30832	
7754	0	30834	
7755	0	30852	
7756	0	30872	
7757	0	30884	
7758	0	30972	
7759	0	31084	
7760	0	31172	
7761	0	31240	
7762	0	31356	
7763	0	31440	
7764	0	31460	
7765	0	31456	
7766	0	31498	
7767	0	31552	
7768	0	31600	
7769	0	31664	
7770	0	31752	
7771	0	31792	
7772	0	31776	
7773	0	31804	
7774	0	31840	
7775	0	31896	
7776	0	31972	
7777	0	32042	
7778	0	32100	
7779	0	32128	
7780	0	32208	
7781	0	32220	
7782	0	32200	
7783	0	32252	
7784	0	32268	
7785	0	32242	
7786	0	32256	
7787	0	32304	
7788	0	32384	
7789	0	32464	
7790	0	32512	
7791	0	32536	
7792	0	32556	
7793	0	32556	
7794	0	32556	
7795	0	32632	
7796	0	32760	
7797	0	32846	
7798	0	32900	
7799	0	32980	
7800	0	33044	
7801	0	33108	
7802	0	33168	
7803	0	33240	
7804	0	33312	
7805	0	33368	
7806	0	33440	
7807	0	33544	
7808	0	33604	
7809	0	33640	
7810	0	33672	
7811	0	33690	
7812	0	33736	
7813	0	33828	
7814	0	33914	
7815	0	34060	
7816	0	34172	
7817	0	34208	
7818	0	34284	
7819	0	34368	
7820	0	34488	
7821	0	34616	
7822	0	34708	
7823	0	34792	
7824	0	34896	
7825	0	34946	
7826	0	35016	
7827	0	35070	
7828	0	35084	
7829	0	35166	
7830	0	35288	
7831	0	35374	
7832	0	35448	
7833	0	35536	
7834	0	35648	
7835	0	35788	
7836	0	35872	
7837	0	35968	
7838	0	36076	
7839	0	36164	
7840	0	36248	
7841	0	36300	
7842	0	36340	
7843	0	36432	
7844	0	36524	
7845	0	36580	
7846	0	36624	
7847	0	36568	
7848	0	36508	
7849	0	36484	
7850	0	36464	
7851	0	36504	
7852	0	36548	
7853	0	36644	
7854	0	36776	
7855	0	36828	
7856	0	36782	
7857	0	36720	
7858	0	36652	
7859	0	36580	
7860	0	36556	
7861	0	36588	
7862	0	36584	
7863	0	36576	
7864	0	36568	
7865	0	36564	
7866	0	36564	
7867	0	36576	
7868	0	36536	
7869	0	36480	
7870	0	36444	
7871	0	36376	
7872	0	36304	
7873	0	36296	
7874	0	36208	
7875	0	36004	
7876	0	35916	
7877	0	35896	
7878	0	35868	
7879	0	35788	
7880	0	35696	
7881	0	35616	
7882	0	35474	
7883	0	35312	
7884	0	35120	
7885	0	34924	
7886	0	34708	
7887	0	34512	
7888	0	34312	
7889	0	34112	
7890	0	33940	
7891	0	33756	
7892	0	33596	
7893	0	33488	
7894	0	33336	
7895	0	33156	
7896	0	32962	
7897	0	32840	
7898	0	32652	
7899	0	32436	
7900	0	32168	
7901	0	31936	
7902	0	31772	
7903	0	31592	
7904	0	31448	
7905	0	31316	
7906	0	31208	
7907	0	31092	
7908	0	30972	
7909	0	30808	
7910	0	30688	
7911	0	30580	
7912	0	30444	
7913	0	30356	
7914	0	30296	
7915	0	30222	
7916	0	30112	
7917	0	29968	
7918	0	29860	
7919	0	29762	
7920	0	29700	
7921	0	29632	
7922	0	29506	
7923	0	29376	
7924	0	29221	
7925	0	29064	
7926	0	28924	
7927	0	28804	
7928	0	28781	
7929	0	28784	
7930	0	28760	
7931	0	28722	
7932	0	28712	
7933	0	28788	
7934	0	28872	
7935	0	28908	
7936	0	28944	
7937	0	28992	
7938	0	28996	
7939	0	28956	
7940	0	28912	
7941	0	28906	
7942	0	28932	
7943	0	28940	
7944	0	28908	
7945	0	28924	
7946	0	28992	
7947	0	28982	
7948	0	29016	
7949	0	29056	
7950	0	29108	
7951	0	29136	
7952	0	29128	
7953	0	29140	
7954	0	29136	
7955	0	29108	
7956	0	29132	
7957	0	29192	
7958	0	29170	
7959	0	29172	
7960	0	29132	
7961	0	29160	
7962	0	29172	
7963	0	29178	
7964	0	29212	
7965	0	29312	
7966	0	29408	
7967	0	29466	
7968	0	29536	
7969	0	29572	
7970	0	29620	
7971	0	29700	
7972	0	29784	
7973	0	29800	
7974	0	29824	
7975	0	29840	
7976	0	29864	
7977	0	29892	
7978	0	29942	
7979	0	30008	
7980	0	30048	
7981	0	30020	
7982	0	30052	
7983	0	30152	
7984	0	30226	
7985	0	30240	
7986	0	30224	
7987	0	30242	
7988	0	30280	
7989	0	30288	
7990	0	30312	
7991	0	30316	
7992	0	30324	
7993	0	30316	
7994	0	30360	
7995	0	30436	
7996	0	30504	
7997	0	30520	
7998	0	30564	
7999	0	30584	
8000	0	30572	
8001	0	30580	
8002	0	30618	
8003	0	30700	
8004	0	30812	
8005	0	30912	
8006	0	31004	
8007	0	31080	
8008	0	31132	
8009	0	31188	
8010	0	31220	
8011	0	31248	
8012	0	31296	
8013	0	31272	
8014	0	31264	
8015	0	31284	
8016	0	31328	
8017	0	31364	
8018	0	31370	
8019	0	31384	
8020	0	31432	
8021	0	31428	
8022	0	31384	
8023	0	31368	
8024	0	31380	
8025	0	31384	
8026	0	31420	
8027	0	31496	
8028	0	31520	
8029	0	31524	
8030	0	31596	
8031	0	31626	
8032	0	31624	
8033	0	31652	
8034	0	31684	
8035	0	31692	
8036	0	31712	
8037	0	31732	
8038	0	31732	
8039	0	31744	
8040	0	31748	
8041	0	31736	
8042	0	31776	
8043	0	31776	
8044	0	31764	
8045	0	31778	
8046	0	31840	
8047	0	31912	
8048	0	31968	
8049	0	32000	
8050	0	32008	
8051	0	32028	
8052	0	32036	
8053	0	32044	
8054	0	32060	
8055	0	32072	
8056	0	32072	
8057	0	32124	
8058	0	32172	
8059	0	32192	
8060	0	32108	
8061	0	32068	
8062	0	32052	
8063	0	32060	
8064	0	32106	
8065	0	32120	
8066	0	32128	
8067	0	32112	
8068	0	32120	
8069	0	32120	
8070	0	32164	
8071	0	32192	
8072	0	32188	
8073	0	32212	
8074	0	32204	
8075	0	32200	
8076	0	32256	
8077	0	32268	
8078	0	32240	
8079	0	32248	
8080	0	32280	
8081	0	32312	
8082	0	32360	
8083	0	32364	
8084	0	32336	
8085	0	32340	
8086	0	32352	
8087	0	32432	
8088	0	32504	
8089	0	32512	
8090	0	32488	
8091	0	32512	
8092	0	32500	
8093	0	32460	
8094	0	32428	
8095	0	32412	
8096	0	32404	
8097	0	32432	
8098	0	32484	
8099	0	32500	
8100	0	32536	
8101	0	32544	
8102	0	32536	
8103	0	32536	
8104	0	32560	
8105	0	32562	
8106	0	32548	
8107	0	32552	
8108	0	32568	
8109	0	32568	
8110	0	32584	
8111	0	32584	
8112	0	32568	
8113	0	32548	
8114	0	32556	
8115	0	32584	
8116	0	32548	
8117	0	32548	
8118	0	32544	
8119	0	32504	
8120	0	32480	
8121	0	32512	
8122	0	32532	
8123	0	32504	
8124	0	32496	
8125	0	32496	
8126	0	32528	
8127	0	32544	
8128	0	32580	
8129	0	32604	
8130	0	32632	
8131	0	32676	
8132	0	32680	
8133	0	32672	
8134	0	32648	
8135	0	32660	
8136	0	32672	
8137	0	32660	
8138	0	32664	
8139	0	32612	
8140	0	32528	
8141	0	32448	
8142	0	32460	
8143	0	32500	
8144	0	32480	
8145	0	32464	
8146	0	32528	
8147	0	32564	
8148	0	32592	
8149	0	32622	
8150	0	32648	
8151	0	32700	
8152	0	32696	
8153	0	32684	
8154	0	32716	
8155	0	32748	
8156	0	32736	
8157	0	32696	
8158	0	32704	
8159	0	32682	
8160	0	32684	
8161	0	32696	
8162	0	32672	
8163	0	32656	
8164	0	32676	
8165	0	32684	
8166	0	32756	
8167	0	32800	
8168	0	32816	
8169	0	32752	
8170	0	32696	
8171	0	32680	
8172	0	32672	
8173	0	32636	
8174	0	32656	
8175	0	32688	
8176	0	32684	
8177	0	32676	
8178	0	32748	
8179	0	32876	
8180	0	32976	
8181	0	33084	
8182	0	33232	
8183	0	33320	
8184	0	33376	
8185	0	33442	
8186	0	33550	
8187	0	33688	
8188	0	33872	
8189	0	34024	
8190	0	34104	
8191	0	34144	
8192	0	34200	
8193	0	34144	
8194	0	33992	
8195	0	33904	
8196	0	33812	
8197	0	33724	
8198	0	33700	
8199	0	33752	
8200	0	33780	
8201	0	33776	
8202	0	33784	
8203	0	33816	
8204	0	33930	
8205	0	34080	
8206	0	34228	
8207	0	34408	
8208	0	34608	
8209	0	34884	
8210	0	35192	
8211	0	35364	
8212	0	35464	
8213	0	35520	
8214	0	35538	
8215	0	35572	
8216	0	35676	
8217	0	35764	
8218	0	35788	
8219	0	35712	
8220	0	35656	
8221	0	35572	
8222	0	35504	
8223	0	35412	
8224	0	35304	
8225	0	35212	
8226	0	35152	
8227	0	35072	
8228	0	34914	
8229	0	34724	
8230	0	34552	
8231	0	34392	
8232	0	34288	
8233	0	34204	
8234	0	34124	
8235	0	34064	
8236	0	33992	
8237	0	33900	
8238	0	33860	
8239	0	33794	
8240	0	33656	
8241	0	33532	
8242	0	33436	
8243	0	33368	
8244	0	33324	
8245	0	33312	
8246	0	33292	
8247	0	33256	
8248	0	33220	
8249	0	33124	
8250	0	33064	
8251	0	33024	
8252	0	32932	
8253	0	32852	
8254	0	32784	
8255	0	32688	
8256	0	32554	
8257	0	32384	
8258	0	32236	
8259	0	32148	
8260	0	32040	
8261	0	32008	
8262	0	31964	
8263	0	31916	
8264	0	31844	
8265	0	31848	
8266	0	31912	
8267	0	31888	
8268	0	31860	
8269	0	31884	
8270	0	31932	
8271	0	31938	
8272	0	31956	
8273	0	31952	
8274	0	31968	
8275	0	32024	
8276	0	32028	
8277	0	32028	
8278	0	32082	
8279	0	32128	
8280	0	32128	
8281	0	32116	
8282	0	32140	
8283	0	32116	
8284	0	32088	
8285	0	32112	
8286	0	32164	
8287	0	32200	
8288	0	32240	
8289	0	32276	
8290	0	32320	
8291	0	32388	
8292	0	32432	
8293	0	32472	
8294	0	32512	
8295	0	32540	
8296	0	32538	
8297	0	32544	
8298	0	32556	
8299	0	32512	
8300	0	32320	
8301	0	32090	
8302	0	31762	
8303	0	31292	
8304	0	30632	
8305	0	29916	
8306	0	29344	
8307	0	28976	
8308	0	28812	
8309	0	28862	
8310	0	29080	
8311	0	29504	
8312	0	30165	
8313	0	31084	
8314	0	32232	
8315	0	33556	
8316	0	35012	
8317	0	36644	
8318	0	38516	
8319	0	40656	
8320	0	43104	
8321	0	45844	
8322	0	49120	
8323	0	52860	
8324	0	56592	
8325	0	60136	
8326	0	62852	
8327	0	64328	
8328	0	65056	
8329	0	65416	
8330	0	65528	
8331	0	65535	
8332	0	65488	
8333	0	65404	
8334	0	65304	
8335	0	65184	
8336	0	65056	
8337	0	64916	
8338	0	61796	
8339	0	55624	
8340	0	50660	
8341	0	46596	
8342	0	43196	
8343	0	40312	
8344	0	37676	
8345	0	35268	
8346	0	33272	
8347	0	31776	
8348	0	30628	
8349	0	29584	
8350	0	28754	
8351	0	28096	
8352	0	27608	
8353	0	27248	
8354	0	27048	
8355	0	27096	
8356	0	27244	
8357	0	27312	
8358	0	27296	
8359	0	27204	
8360	0	27096	
8361	0	27090	
8362	0	27268	
8363	0	27580	
8364	0	27968	
8365	0	28276	
8366	0	28524	
8367	0	28708	
8368	0	28880	
8369	0	29040	
8370	0	29144	
8371	0	29168	
8372	0	29196	
8373	0	29176	
8374	0	29156	
8375	0	29084	
8376	0	28972	
8377	0	28880	
8378	0	28840	
8379	0	28840	
8380	0	28888	
8381	0	28880	
8382	0	28844	
8383	0	28836	
8384	0	28896	
8385	0	28960	
8386	0	29008	
8387	0	29084	
8388	0	29192	
8389	0	29242	
8390	0	29248	
8391	0	29276	
8392	0	29296	
8393	0	29332	
8394	0	29372	
8395	0	29408	
8396	0	29500	
8397	0	29608	
8398	0	29680	
8399	0	29720	
8400	0	29764	
8401	0	29796	
8402	0	29822	
8403	0	29840	
8404	0	29876	
8405	0	29928	
8406	0	29984	
8407	0	30028	
8408	0	30082	
8409	0	30138	
8410	0	30146	
8411	0	30128	
8412	0	30150	
8413	0	30184	
8414	0	30208	
8415	0	30268	
8416	0	30298	
8417	0	30320	
8418	0	30372	
8419	0	30456	
8420	0	30528	
8421	0	30624	
8422	0	30700	
8423	0	30744	
8424	0	30760	
8425	0	30780	
8426	0	30836	
8427	0	30892	
8428	0	30928	
8429	0	30976	
8430	0	31040	
8431	0	31128	
8432	0	31166	
8433	0	31224	
8434	0	31296	
8435	0	31328	
8436	0	31364	
8437	0	31408	
8438	0	31460	
8439	0	31444	
8440	0	31414	
8441	0	31412	
8442	0	31432	
8443	0	31456	
8444	0	31484	
8445	0	31544	
8446	0	31628	
8447	0	31720	
8448	0	31812	
8449	0	31928	
8450	0	31984	
8451	0	32016	
8452	0	32052	
8453	0	32096	
8454	0	32160	
8455	0	32188	
8456	0	32164	
8457	0	32204	
8458	0	32276	
8459	0	32348	
8460	0	32368	
8461	0	32376	
8462	0	32364	
8463	0	32346	
8464	0	32368	
8465	0	32460	
8466	0	32542	
8467	0	32636	
8468	0	32724	
8469	0	32800	
8470	0	32872	
8471	0	32922	
8472	0	33032	
8473	0	33152	
8474	0	33208	
8475	0	33224	
8476	0	33284	
8477	0	33342	
8478	0	33392	
8479	0	33432	
8480	0	33440	
8481	0	33452	
8482	0	33512	
8483	0	33600	
8484	0	33664	
8485	0	33760	
8486	0	33872	
8487	0	33992	
8488	0	34096	
8489	0	34208	
8490	0	34280	
8491	0	34360	
8492	0	34412	
8493	0	34396	
8494	0	34420	
8495	0	34476	
8496	0	34496	
8497	0	34540	
8498	0	34634	
8499	0	34704	
8500	0	34816	
8501	0	34928	
8502	0	34954	
8503	0	35044	
8504	0	35168	
8505	0	35260	
8506	0	35344	
8507	0	35432	
8508	0	35520	
8509	0	35592	
8510	0	35680	
8511	0	35752	
8512	0	35772	
8513	0	35800	
8514	0	35848	
8515	0	35932	
8516	0	36024	
8517	0	36128	
8518	0	36224	
8519	0	36324	
8520	0	36428	
8521	0	36512	
8522	0	36576	
8523	0	36624	
8524	0	36672	
8525	0	36744	
8526	0	36762	
8527	0	36768	
8528	0	36806	
8529	0	36880	
8530	0	36960	
8531	0	37000	
8532	0	36960	
8533	0	36940	
8534	0	36876	
8535	0	36800	
8536	0	36792	
8537	0	36792	
8538	0	36780	
8539	0	36808	
8540	0	36844	
8541	0	36800	
8542	0	36680	
8543	0	36636	
8544	0	36628	
8545	0	36620	
8546	0	36632	
8547	0	36640	
8548	0	36580	
8549	0	36464	
8550	0	36388	
8551	0	36320	
8552	0	36320	
8553	0	36364	
8554	0	36368	
8555	0	36344	
8556	0	36252	
8557	0	36160	
8558	0	36102	
8559	0	35972	
8560	0	35872	
8561	0	35724	
8562	0	35578	
8563	0	35476	
8564	0	35380	
8565	0	35332	
8566	0	35280	
8567	0	35128	
8568	0	35008	
8569	0	34928	
8570	0	34864	
8571	0	34808	
8572	0	34672	
8573	0	34460	
8574	0	34232	
8575	0	34052	
8576	0	33844	
8577	0	33640	
8578	0	33468	
8579	0	33312	
8580	0	33096	
8581	0	32840	
8582	0	32636	
8583	0	32460	
8584	0	32284	
8585	0	32146	
8586	0	32024	
8587	0	31888	
8588	0	31776	
8589	0	31640	
8590	0	31508	
8591	0	31360	
