# OpenSignals Text File Format. Version 1
# {"00:07:80:4B:15:F7": {"position": 0, "device": "biosignalsplux", "device name": "00:07:80:4B:15:F7", "device connection": "BTH00:07:80:4B:15:F7", "sampling rate": 1000, "resolution": [16], "firmware version": 775, "comments": "", "keywords": "", "mode": 0, "sync interval": 2, "date": "2023-4-27", "time": "18:44:2.56", "channels": [1], "sensor": ["ECG"], "label": ["CH1"], "column": ["nSeq", "DI", "CH1"], "special": [{"SpO2": [80, 40, 5, 4, 3, 3]}, {"SpO2": [80, 40, 5, 4, 3, 3]}, {"SpO2": [80, 40, 5, 4, 3, 3]}, {"SpO2": [80, 40, 5, 4, 3, 3]}, {"SpO2": [80, 40, 5, 4, 3, 3]}, {"SpO2": [80, 40, 5, 4, 3, 3]}, {"SpO2": [80, 40, 5, 4, 3, 3]}, {"SpO2": [80, 40, 5, 4, 3, 3]}], "digital IO": [0, 1], "sleeve color": ["green"], "convertedValues": 0}}
# EndOfHeader
0	0	31780	
1	0	31728	
2	0	31664	
3	0	31556	
4	0	31424	
5	0	31324	
6	0	31240	
7	0	31162	
8	0	31114	
9	0	31076	
10	0	31080	
11	0	31128	
12	0	31160	
13	0	31164	
14	0	31164	
15	0	31188	
16	0	31184	
17	0	31186	
18	0	31192	
19	0	31188	
20	0	31200	
21	0	31216	
22	0	31246	
23	0	31252	
24	0	31264	
25	0	31244	
26	0	31248	
27	0	31264	
28	0	31284	
29	0	31296	
30	0	31320	
31	0	31352	
32	0	31396	
33	0	31424	
34	0	31424	
35	0	31428	
36	0	31424	
37	0	31418	
38	0	31452	
39	0	31444	
40	0	31408	
41	0	31392	
42	0	31416	
43	0	31432	
44	0	31468	
45	0	31480	
46	0	31480	
47	0	31468	
48	0	31512	
49	0	31544	
50	0	31552	
51	0	31584	
52	0	31598	
53	0	31592	
54	0	31588	
55	0	31620	
56	0	31624	
57	0	31620	
58	0	31648	
59	0	31696	
60	0	31752	
61	0	31756	
62	0	31772	
63	0	31772	
64	0	31776	
65	0	31682	
66	0	31488	
67	0	31229	
68	0	30896	
69	0	30516	
70	0	30084	
71	0	29700	
72	0	29492	
73	0	29392	
74	0	29496	
75	0	29812	
76	0	30208	
77	0	30596	
78	0	30952	
79	0	31356	
80	0	31892	
81	0	32416	
82	0	32792	
83	0	33104	
84	0	33432	
85	0	33724	
86	0	34090	
87	0	34676	
88	0	35576	
89	0	36588	
90	0	37892	
91	0	39532	
92	0	41344	
93	0	43372	
94	0	45824	
95	0	48572	
96	0	51488	
97	0	54092	
98	0	55968	
99	0	57308	
100	0	58572	
101	0	59768	
102	0	60664	
103	0	61300	
104	0	61480	
105	0	61060	
106	0	60040	
107	0	58592	
108	0	56908	
109	0	54856	
110	0	52432	
111	0	49948	
112	0	47608	
113	0	45260	
114	0	42864	
115	0	40256	
116	0	37440	
117	0	34660	
118	0	32112	
119	0	29820	
120	0	27632	
121	0	25512	
122	0	23712	
123	0	22380	
124	0	21370	
125	0	20544	
126	0	20012	
127	0	19576	
128	0	19120	
129	0	18608	
130	0	18082	
131	0	17644	
132	0	17288	
133	0	17072	
134	0	16956	
135	0	16984	
136	0	17234	
137	0	17610	
138	0	18238	
139	0	19070	
140	0	19976	
141	0	20916	
142	0	21862	
143	0	22826	
144	0	23900	
145	0	25032	
146	0	26152	
147	0	27120	
148	0	27928	
149	0	28608	
150	0	29200	
151	0	29674	
152	0	30112	
153	0	30460	
154	0	30740	
155	0	31016	
156	0	31284	
157	0	31516	
158	0	31672	
159	0	31800	
160	0	31880	
161	0	31964	
162	0	32048	
163	0	32142	
164	0	32236	
165	0	32320	
166	0	32340	
167	0	32384	
168	0	32464	
169	0	32532	
170	0	32616	
171	0	32692	
172	0	32764	
173	0	32840	
174	0	32912	
175	0	32936	
176	0	32972	
177	0	33032	
178	0	33092	
179	0	33144	
180	0	33216	
181	0	33312	
182	0	33380	
183	0	33452	
184	0	33512	
185	0	33576	
186	0	33644	
187	0	33704	
188	0	33768	
189	0	33816	
190	0	33848	
191	0	33884	
192	0	33936	
193	0	34016	
194	0	34080	
195	0	34128	
196	0	34176	
197	0	34236	
198	0	34272	
199	0	34292	
200	0	34308	
201	0	34324	
202	0	34354	
203	0	34360	
204	0	34384	
205	0	34416	
206	0	34464	
207	0	34516	
208	0	34488	
209	0	34464	
210	0	34488	
211	0	34552	
212	0	34584	
213	0	34584	
214	0	34564	
215	0	34576	
216	0	34588	
217	0	34626	
218	0	34644	
219	0	34656	
220	0	34648	
221	0	34676	
222	0	34736	
223	0	34788	
224	0	34796	
225	0	34776	
226	0	34776	
227	0	34772	
228	0	34784	
229	0	34824	
230	0	34860	
231	0	34856	
232	0	34874	
233	0	34904	
234	0	34928	
235	0	34936	
236	0	34954	
237	0	34996	
238	0	35016	
239	0	35016	
240	0	35034	
241	0	35068	
242	0	35104	
243	0	35120	
244	0	35132	
245	0	35136	
246	0	35156	
247	0	35176	
248	0	35220	
249	0	35252	
250	0	35306	
251	0	35352	
252	0	35400	
253	0	35404	
254	0	35440	
255	0	35460	
256	0	35456	
257	0	35520	
258	0	35546	
259	0	35588	
260	0	35634	
261	0	35692	
262	0	35712	
263	0	35776	
264	0	35816	
265	0	35880	
266	0	35956	
267	0	35992	
268	0	36016	
269	0	36040	
270	0	36096	
271	0	36164	
272	0	36236	
273	0	36298	
274	0	36368	
275	0	36432	
276	0	36496	
277	0	36560	
278	0	36642	
279	0	36708	
280	0	36796	
281	0	36798	
282	0	36844	
283	0	36876	
284	0	36920	
285	0	36976	
286	0	37044	
287	0	37088	
288	0	37136	
289	0	37204	
290	0	37284	
291	0	37352	
292	0	37404	
293	0	37440	
294	0	37512	
295	0	37588	
296	0	37672	
297	0	37736	
298	0	37780	
299	0	37816	
300	0	37800	
301	0	37804	
302	0	37868	
303	0	37936	
304	0	37972	
305	0	38024	
306	0	38048	
307	0	38068	
308	0	38092	
309	0	38152	
310	0	38192	
311	0	38204	
312	0	38192	
313	0	38228	
314	0	38300	
315	0	38344	
316	0	38368	
317	0	38360	
318	0	38400	
319	0	38408	
320	0	38428	
321	0	38440	
322	0	38432	
323	0	38432	
324	0	38408	
325	0	38380	
326	0	38380	
327	0	38352	
328	0	38312	
329	0	38312	
330	0	38296	
331	0	38264	
332	0	38260	
333	0	38228	
334	0	38216	
335	0	38184	
336	0	38144	
337	0	38096	
338	0	38064	
339	0	38012	
340	0	37972	
341	0	37920	
342	0	37896	
343	0	37840	
344	0	37776	
345	0	37696	
346	0	37572	
347	0	37452	
348	0	37384	
349	0	37304	
350	0	37208	
351	0	37128	
352	0	36992	
353	0	36848	
354	0	36728	
355	0	36602	
356	0	36440	
357	0	36280	
358	0	36144	
359	0	35992	
360	0	35840	
361	0	35688	
362	0	35504	
363	0	35332	
364	0	35184	
365	0	35024	
366	0	34852	
367	0	34664	
368	0	34492	
369	0	34308	
370	0	34102	
371	0	33892	
372	0	33716	
373	0	33512	
374	0	33316	
375	0	33144	
376	0	32996	
377	0	32836	
378	0	32680	
379	0	32488	
380	0	32320	
381	0	32154	
382	0	31998	
383	0	31840	
384	0	31684	
385	0	31540	
386	0	31380	
387	0	31232	
388	0	31108	
389	0	30984	
390	0	30832	
391	0	30716	
392	0	30586	
393	0	30452	
394	0	30328	
395	0	30220	
396	0	30134	
397	0	30052	
398	0	29948	
399	0	29844	
400	0	29764	
401	0	29720	
402	0	29648	
403	0	29508	
404	0	29424	
405	0	29408	
406	0	29384	
407	0	29296	
408	0	29228	
409	0	29184	
410	0	29140	
411	0	29096	
412	0	29068	
413	0	29012	
414	0	28976	
415	0	28968	
416	0	28964	
417	0	28956	
418	0	28960	
419	0	28932	
420	0	28896	
421	0	28868	
422	0	28832	
423	0	28836	
424	0	28864	
425	0	28864	
426	0	28864	
427	0	28876	
428	0	28912	
429	0	28904	
430	0	28896	
431	0	28896	
432	0	28920	
433	0	28952	
434	0	28976	
435	0	28992	
436	0	29034	
437	0	29048	
438	0	29060	
439	0	29044	
440	0	28996	
441	0	28976	
442	0	29020	
443	0	29020	
444	0	29032	
445	0	29048	
446	0	29064	
447	0	29100	
448	0	29124	
449	0	29140	
450	0	29128	
451	0	29160	
452	0	29166	
453	0	29164	
454	0	29196	
455	0	29244	
456	0	29276	
457	0	29280	
458	0	29290	
459	0	29336	
460	0	29360	
461	0	29384	
462	0	29396	
463	0	29388	
464	0	29392	
465	0	29404	
466	0	29424	
467	0	29436	
468	0	29432	
469	0	29432	
470	0	29440	
471	0	29488	
472	0	29498	
473	0	29528	
474	0	29560	
475	0	29582	
476	0	29576	
477	0	29560	
478	0	29572	
479	0	29616	
480	0	29648	
481	0	29664	
482	0	29676	
483	0	29700	
484	0	29696	
485	0	29696	
486	0	29716	
487	0	29760	
488	0	29788	
489	0	29804	
490	0	29820	
491	0	29840	
492	0	29884	
493	0	29904	
494	0	29928	
495	0	29952	
496	0	29984	
497	0	30000	
498	0	30016	
499	0	30024	
500	0	30036	
501	0	30048	
502	0	30064	
503	0	30084	
504	0	30112	
505	0	30144	
506	0	30144	
507	0	30144	
508	0	30152	
509	0	30144	
510	0	30168	
511	0	30196	
512	0	30248	
513	0	30272	
514	0	30280	
515	0	30268	
516	0	30256	
517	0	30248	
518	0	30316	
519	0	30336	
520	0	30348	
521	0	30360	
522	0	30392	
523	0	30452	
524	0	30428	
525	0	30352	
526	0	30360	
527	0	30428	
528	0	30464	
529	0	30490	
530	0	30488	
531	0	30484	
532	0	30504	
533	0	30528	
534	0	30562	
535	0	30552	
536	0	30520	
537	0	30496	
538	0	30516	
539	0	30508	
540	0	30510	
541	0	30538	
542	0	30528	
543	0	30510	
544	0	30508	
545	0	30522	
546	0	30528	
547	0	30488	
548	0	30458	
549	0	30538	
550	0	30588	
551	0	30608	
552	0	30632	
553	0	30640	
554	0	30624	
555	0	30596	
556	0	30580	
557	0	30568	
558	0	30556	
559	0	30588	
560	0	30640	
561	0	30676	
562	0	30720	
563	0	30716	
564	0	30712	
565	0	30672	
566	0	30648	
567	0	30652	
568	0	30656	
569	0	30616	
570	0	30596	
571	0	30640	
572	0	30672	
573	0	30672	
574	0	30664	
575	0	30680	
576	0	30726	
577	0	30748	
578	0	30736	
579	0	30764	
580	0	30792	
581	0	30784	
582	0	30804	
583	0	30820	
584	0	30832	
585	0	30844	
586	0	30848	
587	0	30868	
588	0	30920	
589	0	30892	
590	0	30888	
591	0	30888	
592	0	30920	
593	0	30948	
594	0	30984	
595	0	31000	
596	0	31000	
597	0	31000	
598	0	31016	
599	0	31032	
600	0	31068	
601	0	31096	
602	0	31124	
603	0	31148	
604	0	31164	
605	0	31164	
606	0	31164	
607	0	31168	
608	0	31212	
609	0	31256	
610	0	31272	
611	0	31282	
612	0	31320	
613	0	31356	
614	0	31374	
615	0	31348	
616	0	31344	
617	0	31368	
618	0	31400	
619	0	31400	
620	0	31408	
621	0	31408	
622	0	31404	
623	0	31388	
624	0	31400	
625	0	31432	
626	0	31456	
627	0	31484	
628	0	31524	
629	0	31540	
630	0	31540	
631	0	31530	
632	0	31528	
633	0	31532	
634	0	31544	
635	0	31536	
636	0	31512	
637	0	31520	
638	0	31496	
639	0	31520	
640	0	31612	
641	0	31664	
642	0	31688	
643	0	31680	
644	0	31664	
645	0	31668	
646	0	31654	
647	0	31704	
648	0	31724	
649	0	31712	
650	0	31716	
651	0	31732	
652	0	31752	
653	0	31812	
654	0	31828	
655	0	31860	
656	0	31916	
657	0	31968	
658	0	32048	
659	0	32104	
660	0	32113	
661	0	32110	
662	0	32100	
663	0	32120	
664	0	32180	
665	0	32244	
666	0	32284	
667	0	32376	
668	0	32464	
669	0	32568	
670	0	32624	
671	0	32668	
672	0	32724	
673	0	32762	
674	0	32780	
675	0	32824	
676	0	32876	
677	0	32942	
678	0	33016	
679	0	33060	
680	0	33088	
681	0	33084	
682	0	33056	
683	0	32984	
684	0	32968	
685	0	33008	
686	0	33100	
687	0	33248	
688	0	33408	
689	0	33564	
690	0	33708	
691	0	33814	
692	0	33852	
693	0	33848	
694	0	33864	
695	0	33924	
696	0	34008	
697	0	34106	
698	0	34196	
699	0	34296	
700	0	34380	
701	0	34448	
702	0	34504	
703	0	34586	
704	0	34644	
705	0	34728	
706	0	34784	
707	0	34864	
708	0	34932	
709	0	34962	
710	0	35000	
711	0	34949	
712	0	34872	
713	0	34780	
714	0	34720	
715	0	34714	
716	0	34688	
717	0	34612	
718	0	34520	
719	0	34404	
720	0	34296	
721	0	34188	
722	0	34052	
723	0	33900	
724	0	33760	
725	0	33612	
726	0	33464	
727	0	33300	
728	0	33136	
729	0	32954	
730	0	32752	
731	0	32576	
732	0	32506	
733	0	32436	
734	0	32360	
735	0	32336	
736	0	32308	
737	0	32288	
738	0	32224	
739	0	32160	
740	0	32066	
741	0	31984	
742	0	31890	
743	0	31840	
744	0	31800	
745	0	31720	
746	0	31676	
747	0	31620	
748	0	31540	
749	0	31464	
750	0	31376	
751	0	31248	
752	0	31122	
753	0	31024	
754	0	30952	
755	0	30908	
756	0	30824	
757	0	30764	
758	0	30784	
759	0	30784	
760	0	30804	
761	0	30818	
762	0	30836	
763	0	30826	
764	0	30832	
765	0	30876	
766	0	30928	
767	0	30952	
768	0	30972	
769	0	30992	
770	0	30992	
771	0	31008	
772	0	31024	
773	0	30992	
774	0	30986	
775	0	30976	
776	0	30972	
777	0	30964	
778	0	30964	
779	0	30988	
780	0	31002	
781	0	31048	
782	0	31068	
783	0	31080	
784	0	31080	
785	0	31110	
786	0	31138	
787	0	31160	
788	0	31160	
789	0	31192	
790	0	31204	
791	0	31180	
792	0	31184	
793	0	31188	
794	0	31200	
795	0	31160	
796	0	31140	
797	0	31124	
798	0	31212	
799	0	31278	
800	0	31266	
801	0	31280	
802	0	31300	
803	0	31312	
804	0	31344	
805	0	31360	
806	0	31386	
807	0	31408	
808	0	31448	
809	0	31460	
810	0	31456	
811	0	31472	
812	0	31460	
813	0	31360	
814	0	31204	
815	0	30952	
816	0	30644	
817	0	30240	
818	0	29816	
819	0	29468	
820	0	29228	
821	0	29116	
822	0	29202	
823	0	29472	
824	0	29832	
825	0	30192	
826	0	30568	
827	0	31008	
828	0	31532	
829	0	32012	
830	0	32392	
831	0	32720	
832	0	33014	
833	0	33260	
834	0	33628	
835	0	34248	
836	0	35108	
837	0	36100	
838	0	37384	
839	0	39038	
840	0	40868	
841	0	42928	
842	0	45340	
843	0	48072	
844	0	51024	
845	0	53632	
846	0	55532	
847	0	56968	
848	0	58264	
849	0	59520	
850	0	60488	
851	0	61160	
852	0	61368	
853	0	60932	
854	0	59936	
855	0	58488	
856	0	56794	
857	0	54752	
858	0	52352	
859	0	49920	
860	0	47584	
861	0	45224	
862	0	42792	
863	0	40172	
864	0	37372	
865	0	34616	
866	0	32044	
867	0	29700	
868	0	27492	
869	0	25368	
870	0	23580	
871	0	22226	
872	0	21192	
873	0	20360	
874	0	19768	
875	0	19328	
876	0	18874	
877	0	18336	
878	0	17816	
879	0	17356	
880	0	16944	
881	0	16688	
882	0	16620	
883	0	16694	
884	0	16952	
885	0	17372	
886	0	18008	
887	0	18828	
888	0	19770	
889	0	20772	
890	0	21696	
891	0	22628	
892	0	23696	
893	0	24850	
894	0	25988	
895	0	26952	
896	0	27740	
897	0	28350	
898	0	28904	
899	0	29408	
900	0	29844	
901	0	30176	
902	0	30444	
903	0	30716	
904	0	30976	
905	0	31200	
906	0	31368	
907	0	31496	
908	0	31616	
909	0	31744	
910	0	31856	
911	0	31944	
912	0	32032	
913	0	32088	
914	0	32168	
915	0	32252	
916	0	32344	
917	0	32416	
918	0	32512	
919	0	32592	
920	0	32636	
921	0	32696	
922	0	32828	
923	0	32928	
924	0	32992	
925	0	33048	
926	0	33140	
927	0	33192	
928	0	33248	
929	0	33264	
930	0	33288	
931	0	33344	
932	0	33428	
933	0	33528	
934	0	33562	
935	0	33612	
936	0	33664	
937	0	33704	
938	0	33768	
939	0	33832	
940	0	33884	
941	0	33934	
942	0	34000	
943	0	34044	
944	0	34080	
945	0	34132	
946	0	34164	
947	0	34208	
948	0	34224	
949	0	34220	
950	0	34236	
951	0	34272	
952	0	34292	
953	0	34336	
954	0	34362	
955	0	34380	
956	0	34388	
957	0	34428	
958	0	34456	
959	0	34444	
960	0	34464	
961	0	34496	
962	0	34540	
963	0	34528	
964	0	34532	
965	0	34528	
966	0	34544	
967	0	34576	
968	0	34608	
969	0	34612	
970	0	34624	
971	0	34692	
972	0	34700	
973	0	34720	
974	0	34720	
975	0	34728	
976	0	34784	
977	0	34848	
978	0	34860	
979	0	34848	
980	0	34876	
981	0	34908	
982	0	34916	
983	0	34944	
984	0	34968	
985	0	34960	
986	0	34992	
987	0	35020	
988	0	35016	
989	0	35040	
990	0	35080	
991	0	35096	
992	0	35076	
993	0	35080	
994	0	35128	
995	0	35164	
996	0	35216	
997	0	35244	
998	0	35268	
999	0	35292	
1000	0	35312	
1001	0	35320	
1002	0	35352	
1003	0	35384	
1004	0	35404	
1005	0	35448	
1006	0	35504	
1007	0	35528	
1008	0	35556	
1009	0	35592	
1010	0	35624	
1011	0	35632	
1012	0	35672	
1013	0	35716	
1014	0	35768	
1015	0	35856	
1016	0	35908	
1017	0	35992	
1018	0	36052	
1019	0	36088	
1020	0	36136	
1021	0	36216	
1022	0	36304	
1023	0	36368	
1024	0	36408	
1025	0	36448	
1026	0	36520	
1027	0	36584	
1028	0	36636	
1029	0	36684	
1030	0	36764	
1031	0	36848	
1032	0	36932	
1033	0	37004	
1034	0	37092	
1035	0	37120	
1036	0	37160	
1037	0	37216	
1038	0	37240	
1039	0	37280	
1040	0	37296	
1041	0	37312	
1042	0	37360	
1043	0	37452	
1044	0	37522	
1045	0	37578	
1046	0	37648	
1047	0	37692	
1048	0	37728	
1049	0	37768	
1050	0	37820	
1051	0	37828	
1052	0	37880	
1053	0	37928	
1054	0	37956	
1055	0	37976	
1056	0	38052	
1057	0	38104	
1058	0	38136	
1059	0	38176	
1060	0	38208	
1061	0	38196	
1062	0	38192	
1063	0	38200	
1064	0	38192	
1065	0	38192	
1066	0	38168	
1067	0	38138	
1068	0	38096	
1069	0	38096	
1070	0	38088	
1071	0	38096	
1072	0	38128	
1073	0	38168	
1074	0	38200	
1075	0	38184	
1076	0	38196	
1077	0	38192	
1078	0	38212	
1079	0	38224	
1080	0	38212	
1081	0	38168	
1082	0	38168	
1083	0	38184	
1084	0	38184	
1085	0	38160	
1086	0	38132	
1087	0	38040	
1088	0	37972	
1089	0	37944	
1090	0	37912	
1091	0	37868	
1092	0	37800	
1093	0	37688	
1094	0	37556	
1095	0	37482	
1096	0	37408	
1097	0	37324	
1098	0	37220	
1099	0	37084	
1100	0	36976	
1101	0	36844	
1102	0	36700	
1103	0	36528	
1104	0	36384	
1105	0	36232	
1106	0	36072	
1107	0	35892	
1108	0	35744	
1109	0	35588	
1110	0	35412	
1111	0	35244	
1112	0	35044	
1113	0	34844	
1114	0	34676	
1115	0	34512	
1116	0	34316	
1117	0	34152	
1118	0	33968	
1119	0	33760	
1120	0	33564	
1121	0	33412	
1122	0	33264	
1123	0	33132	
1124	0	33004	
1125	0	32824	
1126	0	32632	
1127	0	32458	
1128	0	32288	
1129	0	32136	
1130	0	32012	
1131	0	31852	
1132	0	31684	
1133	0	31528	
1134	0	31404	
1135	0	31296	
1136	0	31144	
1137	0	30988	
1138	0	30860	
1139	0	30772	
1140	0	30636	
1141	0	30520	
1142	0	30426	
1143	0	30304	
1144	0	30180	
1145	0	30080	
1146	0	30008	
1147	0	29936	
1148	0	29820	
1149	0	29682	
1150	0	29588	
1151	0	29540	
1152	0	29516	
1153	0	29480	
1154	0	29424	
1155	0	29376	
1156	0	29300	
1157	0	29250	
1158	0	29224	
1159	0	29184	
1160	0	29112	
1161	0	29076	
1162	0	29056	
1163	0	29052	
1164	0	29056	
1165	0	29064	
1166	0	29052	
1167	0	29008	
1168	0	29008	
1169	0	29012	
1170	0	29036	
1171	0	29020	
1172	0	29032	
1173	0	29044	
1174	0	29076	
1175	0	29088	
1176	0	29076	
1177	0	29040	
1178	0	29004	
1179	0	28964	
1180	0	28912	
1181	0	28902	
1182	0	28956	
1183	0	28964	
1184	0	28988	
1185	0	28996	
1186	0	29034	
1187	0	29056	
1188	0	29092	
1189	0	29132	
1190	0	29160	
1191	0	29192	
1192	0	29200	
1193	0	29248	
1194	0	29272	
1195	0	29308	
1196	0	29344	
1197	0	29376	
1198	0	29370	
1199	0	29376	
1200	0	29416	
1201	0	29452	
1202	0	29484	
1203	0	29488	
1204	0	29468	
1205	0	29500	
1206	0	29484	
1207	0	29472	
1208	0	29482	
1209	0	29476	
1210	0	29488	
1211	0	29532	
1212	0	29520	
1213	0	29528	
1214	0	29560	
1215	0	29604	
1216	0	29652	
1217	0	29696	
1218	0	29700	
1219	0	29716	
1220	0	29748	
1221	0	29780	
1222	0	29812	
1223	0	29832	
1224	0	29836	
1225	0	29824	
1226	0	29818	
1227	0	29864	
1228	0	29928	
1229	0	29984	
1230	0	30000	
1231	0	30056	
1232	0	30088	
1233	0	30068	
1234	0	30036	
1235	0	30036	
1236	0	30060	
1237	0	30088	
1238	0	30120	
1239	0	30124	
1240	0	30144	
1241	0	30152	
1242	0	30184	
1243	0	30216	
1244	0	30236	
1245	0	30244	
1246	0	30264	
1247	0	30272	
1248	0	30292	
1249	0	30340	
1250	0	30352	
1251	0	30356	
1252	0	30356	
1253	0	30380	
1254	0	30404	
1255	0	30424	
1256	0	30432	
1257	0	30432	
1258	0	30448	
1259	0	30448	
1260	0	30474	
1261	0	30474	
1262	0	30456	
1263	0	30440	
1264	0	30464	
1265	0	30544	
1266	0	30592	
1267	0	30576	
1268	0	30544	
1269	0	30504	
1270	0	30520	
1271	0	30560	
1272	0	30624	
1273	0	30664	
1274	0	30704	
1275	0	30728	
1276	0	30744	
1277	0	30736	
1278	0	30716	
1279	0	30700	
1280	0	30704	
1281	0	30680	
1282	0	30672	
1283	0	30656	
1284	0	30646	
1285	0	30640	
1286	0	30656	
1287	0	30720	
1288	0	30780	
1289	0	30768	
1290	0	30752	
1291	0	30776	
1292	0	30784	
1293	0	30764	
1294	0	30738	
1295	0	30720	
1296	0	30688	
1297	0	30672	
1298	0	30676	
1299	0	30664	
1300	0	30676	
1301	0	30648	
1302	0	30632	
1303	0	30624	
1304	0	30688	
1305	0	30700	
1306	0	30680	
1307	0	30716	
1308	0	30756	
1309	0	30788	
1310	0	30768	
1311	0	30794	
1312	0	30860	
1313	0	30876	
1314	0	30888	
1315	0	30904	
1316	0	30962	
1317	0	30996	
1318	0	30996	
1319	0	31036	
1320	0	31080	
1321	0	31080	
1322	0	31024	
1323	0	31002	
1324	0	30984	
1325	0	30948	
1326	0	31008	
1327	0	31050	
1328	0	31052	
1329	0	31060	
1330	0	31040	
1331	0	31044	
1332	0	31080	
1333	0	31080	
1334	0	31084	
1335	0	31136	
1336	0	31184	
1337	0	31220	
1338	0	31208	
1339	0	31228	
1340	0	31224	
1341	0	31180	
1342	0	31176	
1343	0	31176	
1344	0	31196	
1345	0	31256	
1346	0	31296	
1347	0	31284	
1348	0	31264	
1349	0	31264	
1350	0	31300	
1351	0	31328	
1352	0	31364	
1353	0	31402	
1354	0	31436	
1355	0	31434	
1356	0	31440	
1357	0	31488	
1358	0	31532	
1359	0	31568	
1360	0	31576	
1361	0	31584	
1362	0	31604	
1363	0	31616	
1364	0	31660	
1365	0	31676	
1366	0	31682	
1367	0	31724	
1368	0	31736	
1369	0	31756	
1370	0	31800	
1371	0	31840	
1372	0	31826	
1373	0	31776	
1374	0	31770	
1375	0	31818	
1376	0	31828	
1377	0	31788	
1378	0	31828	
1379	0	31864	
1380	0	31856	
1381	0	31864	
1382	0	31880	
1383	0	31920	
1384	0	31936	
1385	0	31924	
1386	0	31930	
1387	0	31984	
1388	0	32092	
1389	0	32208	
1390	0	32281	
1391	0	32296	
1392	0	32314	
1393	0	32368	
1394	0	32376	
1395	0	32380	
1396	0	32436	
1397	0	32504	
1398	0	32556	
1399	0	32640	
1400	0	32660	
1401	0	32692	
1402	0	32754	
1403	0	32800	
1404	0	32812	
1405	0	32824	
1406	0	32856	
1407	0	32900	
1408	0	32928	
1409	0	32972	
1410	0	33052	
1411	0	33184	
1412	0	33308	
1413	0	33396	
1414	0	33452	
1415	0	33452	
1416	0	33420	
1417	0	33412	
1418	0	33444	
1419	0	33476	
1420	0	33536	
1421	0	33652	
1422	0	33744	
1423	0	33816	
1424	0	33852	
1425	0	33888	
1426	0	33924	
1427	0	33988	
1428	0	34088	
1429	0	34192	
1430	0	34316	
1431	0	34458	
1432	0	34600	
1433	0	34688	
1434	0	34740	
1435	0	34828	
1436	0	34972	
1437	0	35092	
1438	0	35150	
1439	0	35208	
1440	0	35296	
1441	0	35356	
1442	0	35368	
1443	0	35324	
1444	0	35236	
1445	0	35112	
1446	0	35016	
1447	0	34940	
1448	0	34892	
1449	0	34862	
1450	0	34794	
1451	0	34734	
1452	0	34660	
1453	0	34556	
1454	0	34444	
1455	0	34348	
1456	0	34204	
1457	0	34028	
1458	0	33844	
1459	0	33632	
1460	0	33430	
1461	0	33250	
1462	0	33088	
1463	0	32944	
1464	0	32888	
1465	0	32864	
1466	0	32784	
1467	0	32700	
1468	0	32596	
1469	0	32492	
1470	0	32412	
1471	0	32346	
1472	0	32290	
1473	0	32248	
1474	0	32216	
1475	0	32172	
1476	0	32136	
1477	0	32120	
1478	0	32084	
1479	0	32012	
1480	0	31960	
1481	0	31900	
1482	0	31812	
1483	0	31748	
1484	0	31668	
1485	0	31584	
1486	0	31492	
1487	0	31404	
1488	0	31360	
1489	0	31336	
1490	0	31304	
1491	0	31270	
1492	0	31256	
1493	0	31212	
1494	0	31184	
1495	0	31184	
1496	0	31196	
1497	0	31176	
1498	0	31186	
1499	0	31204	
1500	0	31176	
1501	0	31144	
1502	0	31128	
1503	0	31108	
1504	0	31169	
1505	0	31256	
1506	0	31250	
1507	0	31256	
1508	0	31300	
1509	0	31332	
1510	0	31360	
1511	0	31364	
1512	0	31356	
1513	0	31368	
1514	0	31380	
1515	0	31412	
1516	0	31408	
1517	0	31348	
1518	0	31348	
1519	0	31368	
1520	0	31424	
1521	0	31444	
1522	0	31460	
1523	0	31484	
1524	0	31472	
1525	0	31488	
1526	0	31496	
1527	0	31520	
1528	0	31540	
1529	0	31556	
1530	0	31540	
1531	0	31552	
1532	0	31556	
1533	0	31588	
1534	0	31660	
1535	0	31704	
1536	0	31712	
1537	0	31728	
1538	0	31760	
1539	0	31796	
1540	0	31840	
1541	0	31832	
1542	0	31834	
1543	0	31816	
1544	0	31792	
1545	0	31680	
1546	0	31496	
1547	0	31200	
1548	0	30868	
1549	0	30496	
1550	0	30056	
1551	0	29696	
1552	0	29460	
1553	0	29376	
1554	0	29472	
1555	0	29742	
1556	0	30072	
1557	0	30364	
1558	0	30604	
1559	0	30954	
1560	0	31436	
1561	0	31828	
1562	0	32088	
1563	0	32304	
1564	0	32544	
1565	0	32716	
1566	0	33020	
1567	0	33592	
1568	0	34404	
1569	0	35500	
1570	0	36896	
1571	0	38688	
1572	0	40700	
1573	0	42912	
1574	0	45420	
1575	0	48324	
1576	0	51332	
1577	0	53892	
1578	0	55896	
1579	0	57708	
1580	0	59536	
1581	0	61096	
1582	0	62324	
1583	0	63216	
1584	0	63528	
1585	0	63140	
1586	0	62160	
1587	0	60700	
1588	0	58964	
1589	0	56968	
1590	0	54824	
1591	0	52616	
1592	0	50276	
1593	0	47828	
1594	0	45252	
1595	0	42488	
1596	0	39716	
1597	0	36920	
1598	0	34108	
1599	0	31392	
1600	0	28892	
1601	0	26772	
1602	0	24992	
1603	0	23432	
1604	0	22128	
1605	0	21118	
1606	0	20338	
1607	0	19680	
1608	0	19048	
1609	0	18496	
1610	0	17990	
1611	0	17584	
1612	0	17312	
1613	0	17045	
1614	0	16860	
1615	0	16824	
1616	0	16934	
1617	0	17080	
1618	0	17348	
1619	0	17890	
1620	0	18562	
1621	0	19342	
1622	0	20194	
1623	0	21052	
1624	0	21908	
1625	0	22756	
1626	0	23656	
1627	0	24612	
1628	0	25612	
1629	0	26560	
1630	0	27296	
1631	0	27924	
1632	0	28468	
1633	0	28948	
1634	0	29380	
1635	0	29772	
1636	0	30108	
1637	0	30372	
1638	0	30660	
1639	0	30912	
1640	0	31124	
1641	0	31320	
1642	0	31472	
1643	0	31592	
1644	0	31696	
1645	0	31752	
1646	0	31820	
1647	0	31876	
1648	0	31940	
1649	0	32024	
1650	0	32090	
1651	0	32144	
1652	0	32224	
1653	0	32290	
1654	0	32348	
1655	0	32388	
1656	0	32460	
1657	0	32544	
1658	0	32596	
1659	0	32656	
1660	0	32712	
1661	0	32800	
1662	0	32880	
1663	0	32960	
1664	0	33038	
1665	0	33092	
1666	0	33136	
1667	0	33172	
1668	0	33220	
1669	0	33292	
1670	0	33348	
1671	0	33380	
1672	0	33432	
1673	0	33496	
1674	0	33568	
1675	0	33608	
1676	0	33612	
1677	0	33620	
1678	0	33672	
1679	0	33712	
1680	0	33736	
1681	0	33760	
1682	0	33816	
1683	0	33876	
1684	0	33936	
1685	0	33956	
1686	0	33948	
1687	0	33944	
1688	0	33984	
1689	0	34044	
1690	0	34076	
1691	0	34112	
1692	0	34152	
1693	0	34200	
1694	0	34256	
1695	0	34276	
1696	0	34292	
1697	0	34296	
1698	0	34316	
1699	0	34348	
1700	0	34396	
1701	0	34416	
1702	0	34460	
1703	0	34528	
1704	0	34584	
1705	0	34644	
1706	0	34654	
1707	0	34664	
1708	0	34668	
1709	0	34676	
1710	0	34692	
1711	0	34740	
1712	0	34784	
1713	0	34824	
1714	0	34846	
1715	0	34860	
1716	0	34888	
1717	0	34934	
1718	0	34960	
1719	0	34992	
1720	0	35028	
1721	0	35052	
1722	0	35076	
1723	0	35108	
1724	0	35172	
1725	0	35220	
1726	0	35272	
1727	0	35288	
1728	0	35312	
1729	0	35320	
1730	0	35356	
1731	0	35364	
1732	0	35352	
1733	0	35352	
1734	0	35434	
1735	0	35496	
1736	0	35532	
1737	0	35568	
1738	0	35628	
1739	0	35684	
1740	0	35736	
1741	0	35784	
1742	0	35810	
1743	0	35856	
1744	0	35900	
1745	0	35952	
1746	0	35994	
1747	0	36048	
1748	0	36094	
1749	0	36152	
1750	0	36196	
1751	0	36256	
1752	0	36300	
1753	0	36352	
1754	0	36376	
1755	0	36404	
1756	0	36448	
1757	0	36504	
1758	0	36560	
1759	0	36632	
1760	0	36680	
1761	0	36748	
1762	0	36800	
1763	0	36828	
1764	0	36836	
1765	0	36880	
1766	0	36944	
1767	0	37036	
1768	0	37132	
1769	0	37192	
1770	0	37240	
1771	0	37284	
1772	0	37292	
1773	0	37304	
1774	0	37344	
1775	0	37404	
1776	0	37456	
1777	0	37476	
1778	0	37508	
1779	0	37580	
1780	0	37632	
1781	0	37664	
1782	0	37674	
1783	0	37708	
1784	0	37736	
1785	0	37760	
1786	0	37780	
1787	0	37768	
1788	0	37800	
1789	0	37856	
1790	0	37904	
1791	0	37932	
1792	0	37940	
1793	0	37952	
1794	0	37984	
1795	0	38024	
1796	0	38028	
1797	0	38052	
1798	0	38064	
1799	0	38080	
1800	0	38056	
1801	0	38056	
1802	0	38092	
1803	0	38116	
1804	0	38112	
1805	0	38108	
1806	0	38092	
1807	0	38112	
1808	0	38132	
1809	0	38120	
1810	0	38116	
1811	0	38116	
1812	0	38120	
1813	0	38120	
1814	0	38108	
1815	0	38112	
1816	0	38096	
1817	0	38060	
1818	0	38032	
1819	0	37968	
1820	0	37896	
1821	0	37824	
1822	0	37768	
1823	0	37704	
1824	0	37648	
1825	0	37584	
1826	0	37514	
1827	0	37452	
1828	0	37352	
1829	0	37264	
1830	0	37212	
1831	0	37108	
1832	0	36976	
1833	0	36832	
1834	0	36696	
1835	0	36544	
1836	0	36452	
1837	0	36356	
1838	0	36248	
1839	0	36122	
1840	0	35996	
1841	0	35864	
1842	0	35700	
1843	0	35512	
1844	0	35360	
1845	0	35204	
1846	0	35032	
1847	0	34880	
1848	0	34680	
1849	0	34484	
1850	0	34324	
1851	0	34180	
1852	0	34004	
1853	0	33848	
1854	0	33712	
1855	0	33560	
1856	0	33384	
1857	0	33204	
1858	0	33028	
1859	0	32876	
1860	0	32728	
1861	0	32572	
1862	0	32396	
1863	0	32272	
1864	0	32124	
1865	0	31984	
1866	0	31848	
1867	0	31736	
1868	0	31600	
1869	0	31460	
1870	0	31328	
1871	0	31232	
1872	0	31128	
1873	0	31028	
1874	0	30936	
1875	0	30816	
1876	0	30700	
1877	0	30624	
1878	0	30524	
1879	0	30420	
1880	0	30332	
1881	0	30244	
1882	0	30188	
1883	0	30130	
1884	0	30068	
1885	0	30000	
1886	0	29928	
1887	0	29852	
1888	0	29828	
1889	0	29780	
1890	0	29740	
1891	0	29716	
1892	0	29692	
1893	0	29648	
1894	0	29612	
1895	0	29584	
1896	0	29586	
1897	0	29552	
1898	0	29520	
1899	0	29498	
1900	0	29502	
1901	0	29472	
1902	0	29448	
1903	0	29436	
1904	0	29408	
1905	0	29396	
1906	0	29376	
1907	0	29340	
1908	0	29352	
1909	0	29372	
1910	0	29350	
1911	0	29352	
1912	0	29348	
1913	0	29346	
1914	0	29360	
1915	0	29380	
1916	0	29388	
1917	0	29380	
1918	0	29372	
1919	0	29404	
1920	0	29408	
1921	0	29404	
1922	0	29428	
1923	0	29468	
1924	0	29506	
1925	0	29516	
1926	0	29532	
1927	0	29548	
1928	0	29548	
1929	0	29569	
1930	0	29600	
1931	0	29596	
1932	0	29600	
1933	0	29616	
1934	0	29628	
1935	0	29632	
1936	0	29652	
1937	0	29664	
1938	0	29664	
1939	0	29664	
1940	0	29696	
1941	0	29712	
1942	0	29712	
1943	0	29740	
1944	0	29792	
1945	0	29812	
1946	0	29828	
1947	0	29820	
1948	0	29840	
1949	0	29872	
1950	0	29892	
1951	0	29936	
1952	0	29968	
1953	0	29996	
1954	0	29992	
1955	0	29984	
1956	0	29988	
1957	0	29984	
1958	0	30000	
1959	0	30024	
1960	0	30036	
1961	0	30048	
1962	0	30040	
1963	0	30062	
1964	0	30116	
1965	0	30136	
1966	0	30144	
1967	0	30172	
1968	0	30184	
1969	0	30188	
1970	0	30200	
1971	0	30224	
1972	0	30240	
1973	0	30248	
1974	0	30280	
1975	0	30316	
1976	0	30340	
1977	0	30344	
1978	0	30332	
1979	0	30304	
1980	0	30272	
1981	0	30284	
1982	0	30340	
1983	0	30352	
1984	0	30376	
1985	0	30384	
1986	0	30360	
1987	0	30340	
1988	0	30396	
1989	0	30464	
1990	0	30480	
1991	0	30492	
1992	0	30464	
1993	0	30476	
1994	0	30504	
1995	0	30512	
1996	0	30512	
1997	0	30516	
1998	0	30530	
1999	0	30536	
2000	0	30538	
2001	0	30512	
2002	0	30512	
2003	0	30500	
2004	0	30512	
2005	0	30528	
2006	0	30516	
2007	0	30500	
2008	0	30496	
2009	0	30528	
2010	0	30560	
2011	0	30568	
2012	0	30572	
2013	0	30580	
2014	0	30576	
2015	0	30572	
2016	0	30568	
2017	0	30552	
2018	0	30512	
2019	0	30520	
2020	0	30528	
2021	0	30508	
2022	0	30516	
2023	0	30532	
2024	0	30528	
2025	0	30544	
2026	0	30552	
2027	0	30560	
2028	0	30590	
2029	0	30598	
2030	0	30596	
2031	0	30592	
2032	0	30624	
2033	0	30628	
2034	0	30628	
2035	0	30642	
2036	0	30640	
2037	0	30628	
2038	0	30636	
2039	0	30632	
2040	0	30604	
2041	0	30612	
2042	0	30624	
2043	0	30660	
2044	0	30724	
2045	0	30756	
2046	0	30776	
2047	0	30796	
2048	0	30800	
2049	0	30790	
2050	0	30778	
2051	0	30768	
2052	0	30754	
2053	0	30732	
2054	0	30728	
2055	0	30780	
2056	0	30800	
2057	0	30796	
2058	0	30800	
2059	0	30800	
2060	0	30828	
2061	0	30864	
2062	0	30884	
2063	0	30900	
2064	0	30884	
2065	0	30906	
2066	0	30932	
2067	0	30924	
2068	0	30916	
2069	0	30904	
2070	0	30912	
2071	0	30956	
2072	0	30976	
2073	0	30952	
2074	0	30936	
2075	0	30952	
2076	0	30986	
2077	0	31028	
2078	0	31044	
2079	0	31069	
2080	0	31084	
2081	0	31092	
2082	0	31112	
2083	0	31132	
2084	0	31172	
2085	0	31204	
2086	0	31224	
2087	0	31236	
2088	0	31226	
2089	0	31220	
2090	0	31252	
2091	0	31268	
2092	0	31276	
2093	0	31304	
2094	0	31328	
2095	0	31368	
2096	0	31388	
2097	0	31420	
2098	0	31476	
2099	0	31560	
2100	0	31620	
2101	0	31684	
2102	0	31744	
2103	0	31760	
2104	0	31760	
2105	0	31780	
2106	0	31808	
2107	0	31896	
2108	0	32024	
2109	0	32120	
2110	0	32212	
2111	0	32298	
2112	0	32336	
2113	0	32384	
2114	0	32460	
2115	0	32488	
2116	0	32544	
2117	0	32604	
2118	0	32648	
2119	0	32708	
2120	0	32776	
2121	0	32852	
2122	0	32928	
2123	0	32988	
2124	0	33000	
2125	0	33000	
2126	0	33012	
2127	0	33028	
2128	0	33092	
2129	0	33204	
2130	0	33360	
2131	0	33528	
2132	0	33660	
2133	0	33688	
2134	0	33688	
2135	0	33680	
2136	0	33712	
2137	0	33800	
2138	0	33896	
2139	0	33980	
2140	0	34080	
2141	0	34156	
2142	0	34264	
2143	0	34368	
2144	0	34450	
2145	0	34556	
2146	0	34656	
2147	0	34714	
2148	0	34722	
2149	0	34772	
2150	0	34856	
2151	0	34904	
2152	0	34942	
2153	0	34944	
2154	0	34880	
2155	0	34788	
2156	0	34696	
2157	0	34680	
2158	0	34672	
2159	0	34624	
2160	0	34556	
2161	0	34468	
2162	0	34376	
2163	0	34256	
2164	0	34112	
2165	0	33972	
2166	0	33856	
2167	0	33720	
2168	0	33560	
2169	0	33400	
2170	0	33228	
2171	0	33072	
2172	0	32868	
2173	0	32672	
2174	0	32552	
2175	0	32492	
2176	0	32416	
2177	0	32388	
2178	0	32320	
2179	0	32252	
2180	0	32188	
2181	0	32128	
2182	0	32060	
2183	0	31968	
2184	0	31888	
2185	0	31776	
2186	0	31732	
2187	0	31720	
2188	0	31688	
2189	0	31616	
2190	0	31532	
2191	0	31456	
2192	0	31372	
2193	0	31308	
2194	0	31208	
2195	0	31072	
2196	0	30984	
2197	0	30886	
2198	0	30840	
2199	0	30800	
2200	0	30784	
2201	0	30776	
2202	0	30752	
2203	0	30720	
2204	0	30740	
2205	0	30772	
2206	0	30760	
2207	0	30792	
2208	0	30796	
2209	0	30824	
2210	0	30840	
2211	0	30868	
2212	0	30880	
2213	0	30892	
2214	0	30888	
2215	0	30896	
2216	0	30908	
2217	0	30892	
2218	0	30900	
2219	0	30932	
2220	0	30968	
2221	0	31000	
2222	0	31024	
2223	0	31016	
2224	0	31012	
2225	0	30992	
2226	0	30996	
2227	0	31008	
2228	0	31028	
2229	0	31058	
2230	0	31088	
2231	0	31092	
2232	0	31080	
2233	0	31092	
2234	0	31108	
2235	0	31116	
2236	0	31140	
2237	0	31152	
2238	0	31148	
2239	0	31180	
2240	0	31228	
2241	0	31248	
2242	0	31252	
2243	0	31264	
2244	0	31276	
2245	0	31332	
2246	0	31356	
2247	0	31396	
2248	0	31424	
2249	0	31412	
2250	0	31416	
2251	0	31448	
2252	0	31492	
2253	0	31508	
2254	0	31504	
2255	0	31392	
2256	0	31176	
2257	0	30912	
2258	0	30568	
2259	0	30196	
2260	0	29772	
2261	0	29392	
2262	0	29164	
2263	0	29088	
2264	0	29212	
2265	0	29504	
2266	0	29878	
2267	0	30264	
2268	0	30640	
2269	0	31104	
2270	0	31672	
2271	0	32224	
2272	0	32652	
2273	0	32980	
2274	0	33360	
2275	0	33704	
2276	0	34152	
2277	0	34872	
2278	0	35896	
2279	0	37024	
2280	0	38436	
2281	0	40168	
2282	0	42064	
2283	0	44140	
2284	0	46592	
2285	0	49324	
2286	0	52336	
2287	0	55088	
2288	0	57100	
2289	0	58512	
2290	0	59760	
2291	0	60972	
2292	0	61960	
2293	0	62660	
2294	0	62976	
2295	0	62636	
2296	0	61616	
2297	0	60172	
2298	0	58454	
2299	0	56248	
2300	0	53700	
2301	0	51164	
2302	0	48692	
2303	0	46224	
2304	0	43664	
2305	0	40800	
2306	0	37728	
2307	0	34752	
2308	0	32104	
2309	0	29696	
2310	0	27336	
2311	0	25098	
2312	0	23196	
2313	0	21784	
2314	0	20768	
2315	0	19980	
2316	0	19444	
2317	0	19028	
2318	0	18580	
2319	0	18044	
2320	0	17488	
2321	0	17006	
2322	0	16632	
2323	0	16460	
2324	0	16376	
2325	0	16466	
2326	0	16796	
2327	0	17304	
2328	0	18034	
2329	0	18852	
2330	0	19740	
2331	0	20692	
2332	0	21672	
2333	0	22768	
2334	0	23930	
2335	0	25084	
2336	0	26120	
2337	0	27020	
2338	0	27748	
2339	0	28362	
2340	0	28912	
2341	0	29400	
2342	0	29812	
2343	0	30128	
2344	0	30424	
2345	0	30688	
2346	0	30920	
2347	0	31152	
2348	0	31308	
2349	0	31424	
2350	0	31528	
2351	0	31616	
2352	0	31688	
2353	0	31732	
2354	0	31794	
2355	0	31828	
2356	0	31892	
2357	0	31956	
2358	0	32032	
2359	0	32092	
2360	0	32188	
2361	0	32272	
2362	0	32344	
2363	0	32456	
2364	0	32542	
2365	0	32592	
2366	0	32656	
2367	0	32746	
2368	0	32824	
2369	0	32904	
2370	0	32980	
2371	0	33056	
2372	0	33096	
2373	0	33144	
2374	0	33208	
2375	0	33272	
2376	0	33340	
2377	0	33404	
2378	0	33472	
2379	0	33532	
2380	0	33568	
2381	0	33640	
2382	0	33722	
2383	0	33776	
2384	0	33804	
2385	0	33824	
2386	0	33856	
2387	0	33912	
2388	0	33984	
2389	0	34056	
2390	0	34068	
2391	0	34092	
2392	0	34120	
2393	0	34136	
2394	0	34172	
2395	0	34200	
2396	0	34216	
2397	0	34236	
2398	0	34256	
2399	0	34292	
2400	0	34316	
2401	0	34340	
2402	0	34348	
2403	0	34404	
2404	0	34464	
2405	0	34472	
2406	0	34472	
2407	0	34496	
2408	0	34508	
2409	0	34508	
2410	0	34528	
2411	0	34528	
2412	0	34588	
2413	0	34616	
2414	0	34624	
2415	0	34644	
2416	0	34660	
2417	0	34684	
2418	0	34704	
2419	0	34708	
2420	0	34720	
2421	0	34724	
2422	0	34728	
2423	0	34768	
2424	0	34816	
2425	0	34840	
2426	0	34872	
2427	0	34896	
2428	0	34920	
2429	0	34936	
2430	0	34948	
2431	0	34928	
2432	0	34914	
2433	0	34956	
2434	0	35052	
2435	0	35108	
2436	0	35124	
2437	0	35112	
2438	0	35152	
2439	0	35204	
2440	0	35260	
2441	0	35290	
2442	0	35316	
2443	0	35360	
2444	0	35412	
2445	0	35448	
2446	0	35476	
2447	0	35504	
2448	0	35528	
2449	0	35554	
2450	0	35604	
2451	0	35632	
2452	0	35688	
2453	0	35772	
2454	0	35832	
2455	0	35896	
2456	0	35940	
2457	0	35964	
2458	0	36008	
2459	0	36112	
2460	0	36180	
2461	0	36228	
2462	0	36284	
2463	0	36324	
2464	0	36404	
2465	0	36472	
2466	0	36524	
2467	0	36564	
2468	0	36622	
2469	0	36688	
2470	0	36764	
2471	0	36844	
2472	0	36916	
2473	0	36976	
2474	0	37040	
2475	0	37124	
2476	0	37212	
2477	0	37280	
2478	0	37364	
2479	0	37424	
2480	0	37476	
2481	0	37552	
2482	0	37604	
2483	0	37660	
2484	0	37716	
2485	0	37772	
2486	0	37856	
2487	0	37912	
2488	0	37968	
2489	0	38008	
2490	0	38056	
2491	0	38096	
2492	0	38148	
2493	0	38212	
2494	0	38280	
2495	0	38336	
2496	0	38380	
2497	0	38380	
2498	0	38352	
2499	0	38360	
2500	0	38424	
2501	0	38492	
2502	0	38496	
2503	0	38488	
2504	0	38488	
2505	0	38496	
2506	0	38496	
2507	0	38528	
2508	0	38552	
2509	0	38560	
2510	0	38556	
2511	0	38580	
2512	0	38588	
2513	0	38550	
2514	0	38532	
2515	0	38544	
2516	0	38536	
2517	0	38556	
2518	0	38552	
2519	0	38556	
2520	0	38544	
2521	0	38500	
2522	0	38496	
2523	0	38484	
2524	0	38444	
2525	0	38408	
2526	0	38344	
2527	0	38284	
2528	0	38192	
2529	0	38120	
2530	0	38064	
2531	0	37996	
2532	0	37892	
2533	0	37824	
2534	0	37740	
2535	0	37600	
2536	0	37464	
2537	0	37320	
2538	0	37200	
2539	0	37108	
2540	0	36976	
2541	0	36792	
2542	0	36608	
2543	0	36420	
2544	0	36256	
2545	0	36100	
2546	0	35928	
2547	0	35728	
2548	0	35504	
2549	0	35368	
2550	0	35240	
2551	0	35064	
2552	0	34852	
2553	0	34648	
2554	0	34456	
2555	0	34252	
2556	0	34044	
2557	0	33880	
2558	0	33696	
2559	0	33508	
2560	0	33340	
2561	0	33184	
2562	0	33012	
2563	0	32864	
2564	0	32676	
2565	0	32500	
2566	0	32300	
2567	0	32112	
2568	0	31960	
2569	0	31816	
2570	0	31680	
2571	0	31540	
2572	0	31380	
2573	0	31236	
2574	0	31100	
2575	0	30964	
2576	0	30808	
2577	0	30676	
2578	0	30560	
2579	0	30432	
2580	0	30344	
2581	0	30244	
2582	0	30136	
2583	0	30016	
2584	0	29896	
2585	0	29780	
2586	0	29680	
2587	0	29594	
2588	0	29524	
2589	0	29464	
2590	0	29364	
2591	0	29296	
2592	0	29236	
2593	0	29192	
2594	0	29132	
2595	0	29050	
2596	0	28996	
2597	0	28980	
2598	0	28948	
2599	0	28904	
2600	0	28864	
2601	0	28832	
2602	0	28778	
2603	0	28736	
2604	0	28712	
2605	0	28700	
2606	0	28682	
2607	0	28692	
2608	0	28664	
2609	0	28632	
2610	0	28620	
2611	0	28628	
2612	0	28644	
2613	0	28640	
2614	0	28644	
2615	0	28640	
2616	0	28648	
2617	0	28648	
2618	0	28656	
2619	0	28636	
2620	0	28632	
2621	0	28632	
2622	0	28644	
2623	0	28652	
2624	0	28704	
2625	0	28720	
2626	0	28740	
2627	0	28760	
2628	0	28796	
2629	0	28808	
2630	0	28836	
2631	0	28824	
2632	0	28820	
2633	0	28852	
2634	0	28880	
2635	0	28938	
2636	0	28968	
2637	0	29032	
2638	0	29050	
2639	0	29032	
2640	0	29020	
2641	0	29028	
2642	0	29056	
2643	0	29092	
2644	0	29176	
2645	0	29228	
2646	0	29220	
2647	0	29236	
2648	0	29260	
2649	0	29300	
2650	0	29324	
2651	0	29364	
2652	0	29380	
2653	0	29408	
2654	0	29424	
2655	0	29436	
2656	0	29474	
2657	0	29520	
2658	0	29520	
2659	0	29532	
2660	0	29544	
2661	0	29544	
2662	0	29525	
2663	0	29514	
2664	0	29552	
2665	0	29640	
2666	0	29704	
2667	0	29726	
2668	0	29728	
2669	0	29712	
2670	0	29726	
2671	0	29748	
2672	0	29760	
2673	0	29770	
2674	0	29784	
2675	0	29796	
2676	0	29824	
2677	0	29848	
2678	0	29880	
2679	0	29908	
2680	0	29900	
2681	0	29884	
2682	0	29888	
2683	0	29916	
2684	0	29936	
2685	0	29964	
2686	0	29992	
2687	0	29988	
2688	0	30028	
2689	0	30064	
2690	0	30076	
2691	0	30076	
2692	0	30048	
2693	0	30072	
2694	0	30096	
2695	0	30092	
2696	0	30100	
2697	0	30120	
2698	0	30144	
2699	0	30172	
2700	0	30188	
2701	0	30176	
2702	0	30172	
2703	0	30184	
2704	0	30220	
2705	0	30252	
2706	0	30284	
2707	0	30300	
2708	0	30312	
2709	0	30348	
2710	0	30368	
2711	0	30376	
2712	0	30384	
2713	0	30400	
2714	0	30428	
2715	0	30460	
2716	0	30496	
2717	0	30536	
2718	0	30548	
2719	0	30548	
2720	0	30552	
2721	0	30560	
2722	0	30552	
2723	0	30528	
2724	0	30488	
2725	0	30472	
2726	0	30500	
2727	0	30600	
2728	0	30632	
2729	0	30616	
2730	0	30604	
2731	0	30592	
2732	0	30592	
2733	0	30608	
2734	0	30632	
2735	0	30676	
2736	0	30648	
2737	0	30646	
2738	0	30672	
2739	0	30668	
2740	0	30648	
2741	0	30644	
2742	0	30640	
2743	0	30656	
2744	0	30664	
2745	0	30684	
2746	0	30688	
2747	0	30688	
2748	0	30696	
2749	0	30716	
2750	0	30724	
2751	0	30740	
2752	0	30784	
2753	0	30752	
2754	0	30732	
2755	0	30732	
2756	0	30748	
2757	0	30784	
2758	0	30830	
2759	0	30860	
2760	0	30868	
2761	0	30860	
2762	0	30832	
2763	0	30816	
2764	0	30836	
2765	0	30852	
2766	0	30874	
2767	0	30864	
2768	0	30856	
2769	0	30832	
2770	0	30808	
2771	0	30832	
2772	0	30880	
2773	0	30924	
2774	0	30932	
2775	0	30940	
2776	0	30940	
2777	0	30944	
2778	0	30968	
2779	0	30984	
2780	0	31008	
2781	0	31040	
2782	0	31068	
2783	0	31076	
2784	0	31064	
2785	0	31064	
2786	0	31104	
2787	0	31136	
2788	0	31160	
2789	0	31146	
2790	0	31136	
2791	0	31166	
2792	0	31160	
2793	0	31160	
2794	0	31196	
2795	0	31220	
2796	0	31216	
2797	0	31204	
2798	0	31220	
2799	0	31224	
2800	0	31268	
2801	0	31308	
2802	0	31360	
2803	0	31420	
2804	0	31472	
2805	0	31528	
2806	0	31592	
2807	0	31628	
2808	0	31644	
2809	0	31664	
2810	0	31704	
2811	0	31766	
2812	0	31820	
2813	0	31904	
2814	0	31980	
2815	0	32024	
2816	0	32068	
2817	0	32096	
2818	0	32140	
2819	0	32240	
2820	0	32344	
2821	0	32396	
2822	0	32448	
2823	0	32508	
2824	0	32568	
2825	0	32652	
2826	0	32752	
2827	0	32808	
2828	0	32808	
2829	0	32844	
2830	0	32844	
2831	0	32832	
2832	0	32816	
2833	0	32876	
2834	0	32984	
2835	0	33136	
2836	0	33312	
2837	0	33488	
2838	0	33564	
2839	0	33568	
2840	0	33580	
2841	0	33612	
2842	0	33700	
2843	0	33776	
2844	0	33896	
2845	0	34040	
2846	0	34152	
2847	0	34256	
2848	0	34320	
2849	0	34380	
2850	0	34448	
2851	0	34560	
2852	0	34648	
2853	0	34716	
2854	0	34776	
2855	0	34864	
2856	0	34936	
2857	0	34984	
2858	0	34996	
2859	0	34938	
2860	0	34848	
2861	0	34764	
2862	0	34698	
2863	0	34656	
2864	0	34604	
2865	0	34552	
2866	0	34448	
2867	0	34360	
2868	0	34284	
2869	0	34116	
2870	0	33940	
2871	0	33792	
2872	0	33644	
2873	0	33488	
2874	0	33324	
2875	0	33176	
2876	0	33028	
2877	0	32864	
2878	0	32692	
2879	0	32572	
2880	0	32512	
2881	0	32484	
2882	0	32424	
2883	0	32368	
2884	0	32298	
2885	0	32192	
2886	0	32088	
2887	0	32004	
2888	0	31936	
2889	0	31848	
2890	0	31792	
2891	0	31776	
2892	0	31748	
2893	0	31736	
2894	0	31700	
2895	0	31624	
2896	0	31512	
2897	0	31404	
2898	0	31236	
2899	0	31096	
2900	0	30960	
2901	0	30892	
2902	0	30856	
2903	0	30816	
2904	0	30788	
2905	0	30760	
2906	0	30738	
2907	0	30748	
2908	0	30768	
2909	0	30796	
2910	0	30808	
2911	0	30788	
2912	0	30792	
2913	0	30856	
2914	0	30910	
2915	0	30936	
2916	0	30954	
2917	0	30960	
2918	0	30968	
2919	0	30940	
2920	0	30920	
2921	0	30936	
2922	0	30964	
2923	0	30976	
2924	0	30976	
2925	0	30984	
2926	0	31008	
2927	0	31032	
2928	0	31032	
2929	0	31024	
2930	0	31008	
2931	0	31024	
2932	0	31068	
2933	0	31100	
2934	0	31096	
2935	0	31088	
2936	0	31092	
2937	0	31108	
2938	0	31100	
2939	0	31092	
2940	0	31100	
2941	0	31120	
2942	0	31132	
2943	0	31160	
2944	0	31188	
2945	0	31228	
2946	0	31248	
2947	0	31290	
2948	0	31288	
2949	0	31296	
2950	0	31296	
2951	0	31296	
2952	0	31332	
2953	0	31388	
2954	0	31436	
2955	0	31448	
2956	0	31468	
2957	0	31492	
2958	0	31528	
2959	0	31488	
2960	0	31400	
2961	0	31224	
2962	0	30976	
2963	0	30656	
2964	0	30272	
2965	0	29848	
2966	0	29476	
2967	0	29214	
2968	0	29080	
2969	0	29176	
2970	0	29460	
2971	0	29852	
2972	0	30256	
2973	0	30620	
2974	0	31076	
2975	0	31608	
2976	0	32144	
2977	0	32584	
2978	0	32948	
2979	0	33264	
2980	0	33552	
2981	0	33928	
2982	0	34488	
2983	0	35378	
2984	0	36448	
2985	0	37764	
2986	0	39456	
2987	0	41348	
2988	0	43368	
2989	0	45748	
2990	0	48436	
2991	0	51372	
2992	0	54104	
2993	0	56112	
2994	0	57520	
2995	0	58728	
2996	0	59920	
2997	0	60824	
2998	0	61440	
2999	0	61756	
3000	0	61404	
3001	0	60384	
3002	0	58952	
3003	0	57292	
3004	0	55208	
3005	0	52756	
3006	0	50240	
3007	0	47840	
3008	0	45464	
3009	0	43040	
3010	0	40400	
3011	0	37548	
3012	0	34736	
3013	0	32148	
3014	0	29768	
3015	0	27528	
3016	0	25336	
3017	0	23452	
3018	0	22064	
3019	0	21040	
3020	0	20236	
3021	0	19708	
3022	0	19288	
3023	0	18814	
3024	0	18290	
3025	0	17768	
3026	0	17290	
3027	0	16904	
3028	0	16696	
3029	0	16580	
3030	0	16600	
3031	0	16888	
3032	0	17328	
3033	0	17992	
3034	0	18808	
3035	0	19728	
3036	0	20682	
3037	0	21624	
3038	0	22592	
3039	0	23688	
3040	0	24882	
3041	0	25982	
3042	0	26908	
3043	0	27696	
3044	0	28360	
3045	0	28928	
3046	0	29420	
3047	0	29844	
3048	0	30146	
3049	0	30448	
3050	0	30744	
3051	0	31048	
3052	0	31260	
3053	0	31396	
3054	0	31512	
3055	0	31608	
3056	0	31690	
3057	0	31776	
3058	0	31844	
3059	0	31936	
3060	0	32000	
3061	0	32072	
3062	0	32112	
3063	0	32226	
3064	0	32328	
3065	0	32404	
3066	0	32476	
3067	0	32540	
3068	0	32600	
3069	0	32680	
3070	0	32748	
3071	0	32816	
3072	0	32896	
3073	0	32968	
3074	0	33044	
3075	0	33098	
3076	0	33172	
3077	0	33232	
3078	0	33296	
3079	0	33372	
3080	0	33398	
3081	0	33472	
3082	0	33562	
3083	0	33634	
3084	0	33688	
3085	0	33716	
3086	0	33768	
3087	0	33820	
3088	0	33864	
3089	0	33880	
3090	0	33848	
3091	0	33880	
3092	0	33972	
3093	0	34016	
3094	0	34024	
3095	0	34032	
3096	0	34090	
3097	0	34188	
3098	0	34232	
3099	0	34268	
3100	0	34308	
3101	0	34344	
3102	0	34344	
3103	0	34380	
3104	0	34424	
3105	0	34444	
3106	0	34480	
3107	0	34536	
3108	0	34540	
3109	0	34528	
3110	0	34532	
3111	0	34574	
3112	0	34616	
3113	0	34644	
3114	0	34684	
3115	0	34684	
3116	0	34714	
3117	0	34760	
3118	0	34796	
3119	0	34816	
3120	0	34828	
3121	0	34836	
3122	0	34848	
3123	0	34884	
3124	0	34928	
3125	0	34944	
3126	0	34940	
3127	0	34978	
3128	0	34964	
3129	0	35004	
3130	0	35024	
3131	0	35052	
3132	0	35080	
3133	0	35084	
3134	0	35092	
3135	0	35152	
3136	0	35168	
3137	0	35168	
3138	0	35188	
3139	0	35212	
3140	0	35256	
3141	0	35308	
3142	0	35348	
3143	0	35364	
3144	0	35392	
3145	0	35440	
3146	0	35460	
3147	0	35488	
3148	0	35496	
3149	0	35540	
3150	0	35596	
3151	0	35648	
3152	0	35684	
3153	0	35708	
3154	0	35748	
3155	0	35772	
3156	0	35836	
3157	0	35908	
3158	0	35956	
3159	0	35968	
3160	0	35984	
3161	0	36076	
3162	0	36152	
3163	0	36200	
3164	0	36272	
3165	0	36350	
3166	0	36420	
3167	0	36448	
3168	0	36504	
3169	0	36552	
3170	0	36600	
3171	0	36672	
3172	0	36740	
3173	0	36796	
3174	0	36836	
3175	0	36870	
3176	0	36936	
3177	0	37036	
3178	0	37096	
3179	0	37136	
3180	0	37184	
3181	0	37212	
3182	0	37240	
3183	0	37296	
3184	0	37372	
3185	0	37448	
3186	0	37512	
3187	0	37568	
3188	0	37638	
3189	0	37712	
3190	0	37776	
3191	0	37844	
3192	0	37904	
3193	0	37972	
3194	0	38032	
3195	0	38064	
3196	0	38098	
3197	0	38124	
3198	0	38176	
3199	0	38210	
3200	0	38256	
3201	0	38280	
3202	0	38320	
3203	0	38340	
3204	0	38404	
3205	0	38428	
3206	0	38464	
3207	0	38496	
3208	0	38516	
3209	0	38520	
3210	0	38504	
3211	0	38532	
3212	0	38572	
3213	0	38586	
3214	0	38608	
3215	0	38620	
3216	0	38612	
3217	0	38576	
3218	0	38604	
3219	0	38608	
3220	0	38608	
3221	0	38616	
3222	0	38628	
3223	0	38644	
3224	0	38624	
3225	0	38608	
3226	0	38568	
3227	0	38540	
3228	0	38512	
3229	0	38488	
3230	0	38448	
3231	0	38392	
3232	0	38356	
3233	0	38300	
3234	0	38260	
3235	0	38208	
3236	0	38156	
3237	0	38076	
3238	0	37992	
3239	0	37892	
3240	0	37764	
3241	0	37648	
3242	0	37552	
3243	0	37424	
3244	0	37304	
3245	0	37184	
3246	0	37080	
3247	0	36912	
3248	0	36752	
3249	0	36588	
3250	0	36436	
3251	0	36280	
3252	0	36116	
3253	0	35926	
3254	0	35712	
3255	0	35508	
3256	0	35316	
3257	0	35100	
3258	0	34930	
3259	0	34744	
3260	0	34544	
3261	0	34364	
3262	0	34204	
3263	0	34008	
3264	0	33824	
3265	0	33632	
3266	0	33412	
3267	0	33228	
3268	0	33060	
3269	0	32900	
3270	0	32724	
3271	0	32569	
3272	0	32408	
3273	0	32242	
3274	0	32072	
3275	0	31900	
3276	0	31728	
3277	0	31580	
3278	0	31434	
3279	0	31290	
3280	0	31156	
3281	0	31016	
3282	0	30878	
3283	0	30752	
3284	0	30652	
3285	0	30528	
3286	0	30412	
3287	0	30286	
3288	0	30148	
3289	0	30012	
3290	0	29896	
3291	0	29832	
3292	0	29788	
3293	0	29720	
3294	0	29634	
3295	0	29540	
3296	0	29452	
3297	0	29392	
3298	0	29320	
3299	0	29262	
3300	0	29196	
3301	0	29124	
3302	0	29048	
3303	0	29000	
3304	0	28972	
3305	0	28968	
3306	0	28938	
3307	0	28916	
3308	0	28882	
3309	0	28840	
3310	0	28826	
3311	0	28816	
3312	0	28800	
3313	0	28792	
3314	0	28764	
3315	0	28748	
3316	0	28784	
3317	0	28784	
3318	0	28732	
3319	0	28704	
3320	0	28708	
3321	0	28736	
3322	0	28740	
3323	0	28736	
3324	0	28744	
3325	0	28772	
3326	0	28792	
3327	0	28820	
3328	0	28856	
3329	0	28842	
3330	0	28838	
3331	0	28856	
3332	0	28876	
3333	0	28896	
3334	0	28922	
3335	0	28912	
3336	0	28916	
3337	0	28940	
3338	0	28976	
3339	0	29012	
3340	0	29056	
3341	0	29052	
3342	0	29024	
3343	0	29080	
3344	0	29104	
3345	0	29120	
3346	0	29140	
3347	0	29172	
3348	0	29208	
3349	0	29248	
3350	0	29264	
3351	0	29276	
3352	0	29288	
3353	0	29304	
3354	0	29336	
3355	0	29344	
3356	0	29376	
3357	0	29430	
3358	0	29440	
3359	0	29432	
3360	0	29432	
3361	0	29484	
3362	0	29528	
3363	0	29540	
3364	0	29552	
3365	0	29552	
3366	0	29556	
3367	0	29560	
3368	0	29580	
3369	0	29604	
3370	0	29610	
3371	0	29640	
3372	0	29664	
3373	0	29688	
3374	0	29698	
3375	0	29720	
3376	0	29728	
3377	0	29720	
3378	0	29776	
3379	0	29812	
3380	0	29832	
3381	0	29836	
3382	0	29856	
3383	0	29856	
3384	0	29900	
3385	0	29928	
3386	0	29984	
3387	0	30017	
3388	0	30024	
3389	0	30024	
3390	0	30032	
3391	0	30048	
3392	0	30072	
3393	0	30064	
3394	0	30092	
3395	0	30096	
3396	0	30052	
3397	0	30088	
3398	0	30148	
3399	0	30204	
3400	0	30220	
3401	0	30236	
3402	0	30236	
3403	0	30260	
3404	0	30264	
3405	0	30272	
3406	0	30282	
3407	0	30308	
3408	0	30298	
3409	0	30300	
3410	0	30346	
3411	0	30388	
3412	0	30438	
3413	0	30440	
3414	0	30412	
3415	0	30420	
3416	0	30460	
3417	0	30490	
3418	0	30476	
3419	0	30456	
3420	0	30456	
3421	0	30504	
3422	0	30580	
3423	0	30608	
3424	0	30588	
3425	0	30576	
3426	0	30568	
3427	0	30592	
3428	0	30612	
3429	0	30608	
3430	0	30568	
3431	0	30576	
3432	0	30650	
3433	0	30708	
3434	0	30736	
3435	0	30748	
3436	0	30730	
3437	0	30740	
3438	0	30732	
3439	0	30744	
3440	0	30752	
3441	0	30740	
3442	0	30736	
3443	0	30756	
3444	0	30760	
3445	0	30768	
3446	0	30792	
3447	0	30760	
3448	0	30736	
3449	0	30760	
3450	0	30746	
3451	0	30688	
3452	0	30692	
3453	0	30756	
3454	0	30780	
3455	0	30792	
3456	0	30788	
3457	0	30808	
3458	0	30840	
3459	0	30874	
3460	0	30880	
3461	0	30880	
3462	0	30880	
3463	0	30852	
3464	0	30816	
3465	0	30792	
3466	0	30804	
3467	0	30816	
3468	0	30820	
3469	0	30856	
3470	0	30888	
3471	0	30912	
3472	0	30928	
3473	0	30926	
3474	0	30952	
3475	0	30966	
3476	0	30986	
3477	0	30976	
3478	0	30980	
3479	0	30996	
3480	0	31028	
3481	0	31024	
3482	0	31004	
3483	0	31016	
3484	0	31040	
3485	0	31088	
3486	0	31116	
3487	0	31124	
3488	0	31140	
3489	0	31144	
3490	0	31148	
3491	0	31176	
3492	0	31192	
3493	0	31208	
3494	0	31200	
3495	0	31184	
3496	0	31220	
3497	0	31260	
3498	0	31308	
3499	0	31328	
3500	0	31392	
3501	0	31440	
3502	0	31460	
3503	0	31456	
3504	0	31484	
3505	0	31520	
3506	0	31564	
3507	0	31660	
3508	0	31760	
3509	0	31816	
3510	0	31870	
3511	0	31980	
3512	0	32112	
3513	0	32194	
3514	0	32268	
3515	0	32304	
3516	0	32328	
3517	0	32372	
3518	0	32400	
3519	0	32448	
3520	0	32520	
3521	0	32600	
3522	0	32704	
3523	0	32780	
3524	0	32816	
3525	0	32824	
3526	0	32816	
3527	0	32804	
3528	0	32816	
3529	0	32868	
3530	0	32992	
3531	0	33116	
3532	0	33300	
3533	0	33440	
3534	0	33536	
3535	0	33596	
3536	0	33640	
3537	0	33656	
3538	0	33728	
3539	0	33818	
3540	0	33928	
3541	0	34028	
3542	0	34148	
3543	0	34228	
3544	0	34272	
3545	0	34332	
3546	0	34476	
3547	0	34616	
3548	0	34744	
3549	0	34836	
3550	0	34904	
3551	0	34984	
3552	0	35028	
3553	0	35048	
3554	0	35048	
3555	0	34996	
3556	0	34896	
3557	0	34832	
3558	0	34816	
3559	0	34780	
3560	0	34736	
3561	0	34680	
3562	0	34584	
3563	0	34468	
3564	0	34354	
3565	0	34204	
3566	0	34056	
3567	0	33928	
3568	0	33800	
3569	0	33612	
3570	0	33424	
3571	0	33260	
3572	0	33124	
3573	0	32904	
3574	0	32700	
3575	0	32592	
3576	0	32544	
3577	0	32504	
3578	0	32448	
3579	0	32424	
3580	0	32352	
3581	0	32248	
3582	0	32164	
3583	0	32076	
3584	0	31964	
3585	0	31900	
3586	0	31812	
3587	0	31768	
3588	0	31732	
3589	0	31680	
3590	0	31608	
3591	0	31540	
3592	0	31456	
3593	0	31360	
3594	0	31276	
3595	0	31200	
3596	0	31080	
3597	0	30976	
3598	0	30896	
3599	0	30836	
3600	0	30800	
3601	0	30792	
3602	0	30796	
3603	0	30800	
3604	0	30828	
3605	0	30838	
3606	0	30816	
3607	0	30880	
3608	0	30932	
3609	0	30964	
3610	0	30980	
3611	0	30972	
3612	0	30964	
3613	0	30964	
3614	0	30976	
3615	0	30996	
3616	0	30988	
3617	0	31000	
3618	0	31012	
3619	0	31004	
3620	0	31024	
3621	0	31036	
3622	0	31020	
3623	0	31044	
3624	0	31074	
3625	0	31064	
3626	0	31088	
3627	0	31096	
3628	0	31130	
3629	0	31112	
3630	0	31124	
3631	0	31144	
3632	0	31168	
3633	0	31186	
3634	0	31202	
3635	0	31220	
3636	0	31248	
3637	0	31260	
3638	0	31292	
3639	0	31320	
3640	0	31344	
3641	0	31352	
3642	0	31392	
3643	0	31424	
3644	0	31408	
3645	0	31408	
3646	0	31416	
3647	0	31446	
3648	0	31428	
3649	0	31444	
3650	0	31480	
3651	0	31516	
3652	0	31536	
3653	0	31548	
3654	0	31528	
3655	0	31504	
3656	0	31472	
3657	0	31356	
3658	0	31140	
3659	0	30848	
3660	0	30484	
3661	0	30072	
3662	0	29652	
3663	0	29320	
3664	0	29152	
3665	0	29180	
3666	0	29428	
3667	0	29816	
3668	0	30240	
3669	0	30660	
3670	0	31072	
3671	0	31576	
3672	0	32144	
3673	0	32600	
3674	0	32926	
3675	0	33228	
3676	0	33504	
3677	0	33756	
3678	0	34180	
3679	0	34968	
3680	0	35976	
3681	0	37168	
3682	0	38640	
3683	0	40368	
3684	0	42260	
3685	0	44424	
3686	0	46976	
3687	0	49860	
3688	0	52692	
3689	0	54944	
3690	0	56536	
3691	0	57780	
3692	0	59000	
3693	0	60004	
3694	0	60720	
3695	0	61120	
3696	0	60968	
3697	0	60204	
3698	0	58884	
3699	0	57300	
3700	0	55440	
3701	0	53164	
3702	0	50648	
3703	0	48272	
3704	0	45956	
3705	0	43588	
3706	0	41086	
3707	0	38312	
3708	0	35488	
3709	0	32810	
3710	0	30414	
3711	0	28200	
3712	0	26016	
3713	0	24082	
3714	0	22552	
3715	0	21400	
3716	0	20510	
3717	0	19872	
3718	0	19444	
3719	0	19040	
3720	0	18536	
3721	0	17992	
3722	0	17450	
3723	0	16988	
3724	0	16676	
3725	0	16540	
3726	0	16513	
3727	0	16720	
3728	0	17130	
3729	0	17690	
3730	0	18457	
3731	0	19332	
3732	0	20264	
3733	0	21210	
3734	0	22132	
3735	0	23184	
3736	0	24336	
3737	0	25480	
3738	0	26474	
3739	0	27312	
3740	0	28016	
3741	0	28620	
3742	0	29136	
3743	0	29581	
3744	0	29940	
3745	0	30218	
3746	0	30504	
3747	0	30768	
3748	0	31008	
3749	0	31224	
3750	0	31416	
3751	0	31544	
3752	0	31656	
3753	0	31752	
3754	0	31800	
3755	0	31852	
3756	0	31912	
3757	0	31952	
3758	0	32044	
3759	0	32112	
3760	0	32172	
3761	0	32292	
3762	0	32376	
3763	0	32424	
3764	0	32504	
3765	0	32584	
3766	0	32652	
3767	0	32744	
3768	0	32842	
3769	0	32956	
3770	0	33040	
3771	0	33100	
3772	0	33168	
3773	0	33216	
3774	0	33256	
3775	0	33344	
3776	0	33388	
3777	0	33440	
3778	0	33544	
3779	0	33612	
3780	0	33648	
3781	0	33672	
3782	0	33704	
3783	0	33752	
3784	0	33784	
3785	0	33812	
3786	0	33856	
3787	0	33920	
3788	0	34020	
3789	0	34080	
3790	0	34120	
3791	0	34152	
3792	0	34192	
3793	0	34192	
3794	0	34184	
3795	0	34212	
3796	0	34272	
3797	0	34300	
3798	0	34288	
3799	0	34296	
3800	0	34302	
3801	0	34306	
3802	0	34352	
3803	0	34400	
3804	0	34432	
3805	0	34460	
3806	0	34492	
3807	0	34528	
3808	0	34552	
3809	0	34580	
3810	0	34584	
3811	0	34600	
3812	0	34656	
3813	0	34720	
3814	0	34760	
3815	0	34784	
3816	0	34788	
3817	0	34792	
3818	0	34796	
3819	0	34808	
3820	0	34840	
3821	0	34862	
3822	0	34888	
3823	0	34896	
3824	0	34884	
3825	0	34936	
3826	0	34976	
3827	0	34984	
3828	0	35000	
3829	0	35022	
3830	0	35080	
3831	0	35140	
3832	0	35184	
3833	0	35196	
3834	0	35224	
3835	0	35228	
3836	0	35236	
3837	0	35284	
3838	0	35312	
3839	0	35326	
3840	0	35336	
3841	0	35400	
3842	0	35440	
3843	0	35444	
3844	0	35468	
3845	0	35504	
3846	0	35548	
3847	0	35584	
3848	0	35616	
3849	0	35676	
3850	0	35724	
3851	0	35776	
3852	0	35832	
3853	0	35872	
3854	0	35944	
3855	0	35964	
3856	0	36008	
3857	0	36072	
3858	0	36124	
3859	0	36192	
3860	0	36288	
3861	0	36360	
3862	0	36420	
3863	0	36464	
3864	0	36530	
3865	0	36592	
3866	0	36636	
3867	0	36692	
3868	0	36746	
3869	0	36788	
3870	0	36864	
3871	0	36944	
3872	0	37004	
3873	0	37068	
3874	0	37096	
3875	0	37172	
3876	0	37260	
3877	0	37320	
3878	0	37344	
3879	0	37384	
3880	0	37450	
3881	0	37520	
3882	0	37584	
3883	0	37632	
3884	0	37704	
3885	0	37784	
3886	0	37812	
3887	0	37824	
3888	0	37858	
3889	0	37948	
3890	0	38032	
3891	0	38082	
3892	0	38124	
3893	0	38140	
3894	0	38172	
3895	0	38224	
3896	0	38248	
3897	0	38288	
3898	0	38336	
3899	0	38356	
3900	0	38388	
3901	0	38432	
3902	0	38448	
3903	0	38456	
3904	0	38488	
3905	0	38524	
3906	0	38564	
3907	0	38572	
3908	0	38576	
3909	0	38556	
3910	0	38562	
3911	0	38584	
3912	0	38584	
3913	0	38576	
3914	0	38568	
3915	0	38556	
3916	0	38536	
3917	0	38552	
3918	0	38584	
3919	0	38588	
3920	0	38576	
3921	0	38532	
3922	0	38496	
3923	0	38464	
3924	0	38404	
3925	0	38352	
3926	0	38300	
3927	0	38216	
3928	0	38116	
3929	0	38056	
3930	0	38036	
3931	0	38016	
3932	0	37968	
3933	0	37924	
3934	0	37830	
3935	0	37732	
3936	0	37632	
3937	0	37532	
3938	0	37424	
3939	0	37336	
3940	0	37208	
3941	0	37056	
3942	0	36896	
3943	0	36776	
3944	0	36644	
3945	0	36492	
3946	0	36316	
3947	0	36130	
3948	0	35956	
3949	0	35802	
3950	0	35632	
3951	0	35460	
3952	0	35284	
3953	0	35112	
3954	0	34936	
3955	0	34746	
3956	0	34548	
3957	0	34380	
3958	0	34228	
3959	0	34032	
3960	0	33872	
3961	0	33688	
3962	0	33496	
3963	0	33352	
3964	0	33192	
3965	0	33044	
3966	0	32864	
3967	0	32684	
3968	0	32496	
3969	0	32328	
3970	0	32200	
3971	0	32036	
3972	0	31848	
3973	0	31680	
3974	0	31564	
3975	0	31440	
3976	0	31312	
3977	0	31196	
3978	0	31062	
3979	0	30916	
3980	0	30772	
3981	0	30652	
3982	0	30544	
3983	0	30444	
3984	0	30332	
3985	0	30220	
3986	0	30120	
3987	0	29988	
3988	0	29872	
3989	0	29808	
3990	0	29794	
3991	0	29760	
3992	0	29692	
3993	0	29628	
3994	0	29580	
3995	0	29520	
3996	0	29444	
3997	0	29368	
3998	0	29322	
3999	0	29260	
4000	0	29172	
4001	0	29112	
4002	0	29056	
4003	0	29032	
4004	0	29056	
4005	0	29072	
4006	0	29080	
4007	0	29052	
4008	0	29000	
4009	0	28998	
4010	0	29008	
4011	0	28944	
4012	0	28896	
4013	0	28910	
4014	0	28940	
4015	0	28972	
4016	0	28988	
4017	0	28970	
4018	0	28986	
4019	0	29000	
4020	0	29010	
4021	0	29026	
4022	0	29058	
4023	0	29080	
4024	0	29112	
4025	0	29096	
4026	0	29096	
4027	0	29096	
4028	0	29088	
4029	0	29064	
4030	0	29028	
4031	0	29032	
4032	0	29080	
4033	0	29128	
4034	0	29184	
4035	0	29242	
4036	0	29236	
4037	0	29250	
4038	0	29284	
4039	0	29316	
4040	0	29344	
4041	0	29376	
4042	0	29344	
4043	0	29352	
4044	0	29384	
4045	0	29424	
4046	0	29452	
4047	0	29456	
4048	0	29466	
4049	0	29468	
4050	0	29460	
4051	0	29444	
4052	0	29440	
4053	0	29468	
4054	0	29492	
4055	0	29544	
4056	0	29624	
4057	0	29632	
4058	0	29632	
4059	0	29660	
4060	0	29688	
4061	0	29720	
4062	0	29736	
4063	0	29748	
4064	0	29744	
4065	0	29724	
4066	0	29728	
4067	0	29760	
4068	0	29824	
4069	0	29852	
4070	0	29808	
4071	0	29832	
4072	0	29828	
4073	0	29864	
4074	0	29892	
4075	0	29940	
4076	0	29992	
4077	0	29992	
4078	0	29992	
4079	0	30008	
4080	0	30028	
4081	0	30044	
4082	0	30076	
4083	0	30090	
4084	0	30104	
4085	0	30128	
4086	0	30120	
4087	0	30112	
4088	0	30112	
4089	0	30140	
4090	0	30160	
4091	0	30200	
4092	0	30240	
4093	0	30316	
4094	0	30352	
4095	0	30336	
4096	0	30304	
4097	0	30296	
4098	0	30296	
4099	0	30324	
4100	0	30344	
4101	0	30356	
4102	0	30376	
4103	0	30402	
4104	0	30458	
4105	0	30490	
4106	0	30500	
4107	0	30476	
4108	0	30444	
4109	0	30428	
4110	0	30476	
4111	0	30528	
4112	0	30542	
4113	0	30544	
4114	0	30556	
4115	0	30560	
4116	0	30564	
4117	0	30544	
4118	0	30560	
4119	0	30636	
4120	0	30688	
4121	0	30676	
4122	0	30680	
4123	0	30692	
4124	0	30708	
4125	0	30712	
4126	0	30708	
4127	0	30692	
4128	0	30666	
4129	0	30636	
4130	0	30644	
4131	0	30664	
4132	0	30672	
4133	0	30656	
4134	0	30658	
4135	0	30632	
4136	0	30632	
4137	0	30680	
4138	0	30746	
4139	0	30764	
4140	0	30728	
4141	0	30688	
4142	0	30682	
4143	0	30680	
4144	0	30664	
4145	0	30680	
4146	0	30684	
4147	0	30672	
4148	0	30672	
4149	0	30692	
4150	0	30704	
4151	0	30712	
4152	0	30708	
4153	0	30716	
4154	0	30784	
4155	0	30812	
4156	0	30796	
4157	0	30796	
4158	0	30816	
4159	0	30844	
4160	0	30904	
4161	0	30948	
4162	0	30954	
4163	0	30940	
4164	0	30912	
4165	0	30884	
4166	0	30856	
4167	0	30832	
4168	0	30824	
4169	0	30812	
4170	0	30816	
4171	0	30828	
4172	0	30826	
4173	0	30828	
4174	0	30856	
4175	0	30884	
4176	0	30880	
4177	0	30892	
4178	0	30912	
4179	0	30948	
4180	0	30956	
4181	0	30992	
4182	0	31008	
4183	0	30996	
4184	0	31008	
4185	0	31016	
4186	0	31021	
4187	0	31004	
4188	0	31016	
4189	0	31064	
4190	0	31098	
4191	0	31116	
4192	0	31134	
4193	0	31164	
4194	0	31180	
4195	0	31228	
4196	0	31256	
4197	0	31312	
4198	0	31358	
4199	0	31392	
4200	0	31388	
4201	0	31404	
4202	0	31480	
4203	0	31536	
4204	0	31584	
4205	0	31640	
4206	0	31700	
4207	0	31764	
4208	0	31852	
4209	0	31968	
4210	0	32032	
4211	0	32060	
4212	0	32112	
4213	0	32192	
4214	0	32228	
4215	0	32280	
4216	0	32324	
4217	0	32352	
4218	0	32372	
4219	0	32444	
4220	0	32564	
4221	0	32704	
4222	0	32812	
4223	0	32848	
4224	0	32832	
4225	0	32800	
4226	0	32764	
4227	0	32752	
4228	0	32804	
4229	0	32880	
4230	0	33056	
4231	0	33212	
4232	0	33320	
4233	0	33396	
4234	0	33472	
4235	0	33528	
4236	0	33588	
4237	0	33665	
4238	0	33720	
4239	0	33768	
4240	0	33824	
4241	0	33944	
4242	0	34056	
4243	0	34092	
4244	0	34148	
4245	0	34232	
4246	0	34364	
4247	0	34472	
4248	0	34556	
4249	0	34626	
4250	0	34714	
4251	0	34740	
4252	0	34736	
4253	0	34730	
4254	0	34680	
4255	0	34608	
4256	0	34544	
4257	0	34500	
4258	0	34480	
4259	0	34484	
4260	0	34460	
4261	0	34354	
4262	0	34248	
4263	0	34160	
4264	0	34008	
4265	0	33870	
4266	0	33752	
4267	0	33608	
4268	0	33432	
4269	0	33216	
4270	0	33028	
4271	0	32816	
4272	0	32656	
4273	0	32468	
4274	0	32356	
4275	0	32300	
4276	0	32264	
4277	0	32246	
4278	0	32216	
4279	0	32160	
4280	0	32080	
4281	0	32008	
4282	0	31948	
4283	0	31812	
4284	0	31684	
4285	0	31616	
4286	0	31580	
4287	0	31572	
4288	0	31528	
4289	0	31472	
4290	0	31428	
4291	0	31360	
4292	0	31268	
4293	0	31160	
4294	0	31064	
4295	0	30952	
4296	0	30868	
4297	0	30812	
4298	0	30788	
4299	0	30768	
4300	0	30746	
4301	0	30724	
4302	0	30704	
4303	0	30772	
4304	0	30808	
4305	0	30828	
4306	0	30856	
4307	0	30880	
4308	0	30912	
4309	0	30944	
4310	0	30970	
4311	0	30984	
4312	0	30952	
4313	0	30916	
4314	0	30904	
4315	0	30908	
4316	0	30904	
4317	0	30900	
4318	0	30936	
4319	0	30944	
4320	0	30952	
4321	0	30980	
4322	0	30978	
4323	0	30992	
4324	0	30984	
4325	0	30960	
4326	0	30968	
4327	0	30992	
4328	0	31010	
4329	0	31024	
4330	0	31020	
4331	0	31012	
4332	0	31004	
4333	0	31010	
4334	0	31024	
4335	0	31064	
4336	0	31080	
4337	0	31096	
4338	0	31104	
4339	0	31124	
4340	0	31240	
4341	0	31332	
4342	0	31360	
4343	0	31404	
4344	0	31434	
4345	0	31440	
4346	0	31452	
4347	0	31464	
4348	0	31452	
4349	0	31464	
4350	0	31488	
4351	0	31472	
4352	0	31444	
4353	0	31488	
4354	0	31528	
4355	0	31436	
4356	0	31288	
4357	0	31088	
4358	0	30798	
4359	0	30478	
4360	0	30112	
4361	0	29736	
4362	0	29468	
4363	0	29324	
4364	0	29336	
4365	0	29532	
4366	0	29900	
4367	0	30260	
4368	0	30580	
4369	0	30896	
4370	0	31348	
4371	0	31832	
4372	0	32204	
4373	0	32464	
4374	0	32720	
4375	0	32948	
4376	0	33164	
4377	0	33536	
4378	0	34144	
4379	0	34980	
4380	0	36090	
4381	0	37568	
4382	0	39360	
4383	0	41356	
4384	0	43592	
4385	0	46192	
4386	0	49120	
4387	0	51872	
4388	0	54080	
4389	0	55808	
4390	0	57360	
4391	0	58832	
4392	0	60056	
4393	0	60972	
4394	0	61524	
4395	0	61432	
4396	0	60800	
4397	0	59736	
4398	0	58232	
4399	0	56520	
4400	0	54576	
4401	0	52368	
4402	0	50060	
4403	0	47808	
4404	0	45464	
4405	0	43016	
4406	0	40468	
4407	0	37792	
4408	0	35124	
4409	0	32564	
4410	0	30256	
4411	0	28168	
4412	0	26212	
4413	0	24528	
4414	0	23156	
4415	0	22000	
4416	0	21089	
4417	0	20362	
4418	0	19744	
4419	0	19164	
4420	0	18584	
4421	0	18040	
4422	0	17624	
4423	0	17292	
4424	0	17040	
4425	0	16964	
4426	0	16984	
4427	0	17112	
4428	0	17444	
4429	0	17912	
4430	0	18626	
4431	0	19480	
4432	0	20356	
4433	0	21176	
4434	0	21954	
4435	0	22852	
4436	0	23874	
4437	0	24924	
4438	0	25924	
4439	0	26768	
4440	0	27496	
4441	0	28128	
4442	0	28674	
4443	0	29148	
4444	0	29600	
4445	0	29936	
4446	0	30232	
4447	0	30496	
4448	0	30736	
4449	0	30944	
4450	0	31132	
4451	0	31274	
4452	0	31348	
4453	0	31416	
4454	0	31484	
4455	0	31552	
4456	0	31664	
4457	0	31768	
4458	0	31884	
4459	0	31984	
4460	0	32068	
4461	0	32112	
4462	0	32164	
4463	0	32232	
4464	0	32288	
4465	0	32386	
4466	0	32504	
4467	0	32600	
4468	0	32634	
4469	0	32708	
4470	0	32784	
4471	0	32784	
4472	0	32824	
4473	0	32884	
4474	0	32908	
4475	0	32968	
4476	0	33052	
4477	0	33118	
4478	0	33172	
4479	0	33204	
4480	0	33240	
4481	0	33288	
4482	0	33332	
4483	0	33380	
4484	0	33424	
4485	0	33484	
4486	0	33532	
4487	0	33552	
4488	0	33564	
4489	0	33580	
4490	0	33632	
4491	0	33672	
4492	0	33728	
4493	0	33784	
4494	0	33808	
4495	0	33864	
4496	0	33872	
4497	0	33868	
4498	0	33890	
4499	0	33888	
4500	0	33896	
4501	0	33940	
4502	0	34008	
4503	0	34072	
4504	0	34112	
4505	0	34148	
4506	0	34220	
4507	0	34296	
4508	0	34304	
4509	0	34308	
4510	0	34320	
4511	0	34368	
4512	0	34400	
4513	0	34456	
4514	0	34480	
4515	0	34488	
4516	0	34496	
4517	0	34512	
4518	0	34540	
4519	0	34524	
4520	0	34560	
4521	0	34632	
4522	0	34664	
4523	0	34668	
4524	0	34652	
4525	0	34708	
4526	0	34796	
4527	0	34816	
4528	0	34832	
4529	0	34842	
4530	0	34880	
4531	0	34908	
4532	0	34976	
4533	0	35008	
4534	0	35016	
4535	0	35042	
4536	0	35092	
4537	0	35100	
4538	0	35104	
4539	0	35104	
4540	0	35120	
4541	0	35160	
4542	0	35224	
4543	0	35260	
4544	0	35328	
4545	0	35396	
4546	0	35484	
4547	0	35600	
4548	0	35656	
4549	0	35696	
4550	0	35772	
4551	0	35800	
4552	0	35844	
4553	0	35872	
4554	0	35924	
4555	0	35994	
4556	0	36078	
4557	0	36144	
4558	0	36192	
4559	0	36224	
4560	0	36280	
4561	0	36352	
4562	0	36376	
4563	0	36396	
4564	0	36432	
4565	0	36532	
4566	0	36604	
4567	0	36672	
4568	0	36760	
4569	0	36826	
4570	0	36898	
4571	0	36924	
4572	0	36952	
4573	0	37000	
4574	0	37072	
4575	0	37136	
4576	0	37204	
4577	0	37260	
4578	0	37280	
4579	0	37320	
4580	0	37448	
4581	0	37576	
4582	0	37640	
4583	0	37688	
4584	0	37760	
4585	0	37788	
4586	0	37824	
4587	0	37864	
4588	0	37888	
4589	0	37944	
4590	0	38016	
4591	0	38072	
4592	0	38104	
4593	0	38128	
4594	0	38144	
4595	0	38180	
4596	0	38232	
4597	0	38248	
4598	0	38280	
4599	0	38324	
4600	0	38364	
4601	0	38384	
4602	0	38404	
4603	0	38432	
4604	0	38484	
4605	0	38500	
4606	0	38524	
4607	0	38548	
4608	0	38588	
4609	0	38624	
4610	0	38680	
4611	0	38652	
4612	0	38636	
4613	0	38616	
4614	0	38664	
4615	0	38700	
4616	0	38696	
4617	0	38708	
4618	0	38732	
4619	0	38708	
4620	0	38686	
4621	0	38688	
4622	0	38716	
4623	0	38700	
4624	0	38648	
4625	0	38584	
4626	0	38544	
4627	0	38524	
4628	0	38496	
4629	0	38464	
4630	0	38456	
4631	0	38452	
4632	0	38400	
4633	0	38332	
4634	0	38296	
4635	0	38210	
4636	0	38092	
4637	0	38008	
4638	0	37924	
4639	0	37812	
4640	0	37712	
4641	0	37644	
4642	0	37552	
4643	0	37460	
4644	0	37344	
4645	0	37260	
4646	0	37128	
4647	0	37004	
4648	0	36872	
4649	0	36736	
4650	0	36580	
4651	0	36392	
4652	0	36214	
4653	0	36042	
4654	0	35888	
4655	0	35680	
4656	0	35492	
4657	0	35332	
4658	0	35136	
4659	0	34920	
4660	0	34768	
4661	0	34602	
4662	0	34436	
4663	0	34244	
4664	0	34072	
4665	0	33924	
4666	0	33790	
4667	0	33632	
4668	0	33468	
4669	0	33340	
4670	0	33256	
4671	0	33144	
4672	0	33044	
4673	0	32964	
4674	0	32844	
4675	0	32684	
4676	0	32528	
4677	0	32338	
4678	0	32188	
4679	0	32092	
4680	0	31968	
4681	0	31808	
4682	0	31704	
4683	0	31626	
4684	0	31560	
4685	0	31440	
4686	0	31280	
4687	0	31120	
4688	0	30976	
4689	0	30888	
4690	0	30810	
4691	0	30744	
4692	0	30696	
4693	0	30636	
4694	0	30564	
4695	0	30488	
4696	0	30410	
4697	0	30332	
4698	0	30280	
4699	0	30224	
4700	0	30192	
4701	0	30174	
4702	0	30144	
4703	0	30112	
4704	0	30100	
4705	0	30126	
4706	0	30132	
4707	0	30116	
4708	0	30080	
4709	0	30068	
4710	0	30056	
4711	0	30016	
4712	0	29980	
4713	0	29946	
4714	0	29944	
4715	0	29924	
4716	0	29892	
4717	0	29896	
4718	0	29920	
4719	0	29948	
4720	0	29972	
4721	0	29992	
4722	0	30016	
4723	0	29976	
4724	0	29940	
4725	0	29944	
4726	0	29976	
4727	0	29996	
4728	0	30036	
4729	0	30060	
4730	0	30068	
4731	0	30068	
4732	0	30112	
4733	0	30146	
4734	0	30204	
4735	0	30236	
4736	0	30236	
4737	0	30220	
4738	0	30208	
4739	0	30216	
4740	0	30232	
4741	0	30208	
4742	0	30176	
4743	0	30192	
4744	0	30192	
4745	0	30224	
4746	0	30226	
4747	0	30288	
4748	0	30388	
4749	0	30432	
4750	0	30432	
4751	0	30400	
4752	0	30400	
4753	0	30392	
4754	0	30404	
4755	0	30448	
4756	0	30472	
4757	0	30444	
4758	0	30438	
4759	0	30436	
4760	0	30452	
4761	0	30452	
4762	0	30448	
4763	0	30500	
4764	0	30530	
4765	0	30556	
4766	0	30616	
4767	0	30632	
4768	0	30600	
4769	0	30580	
4770	0	30620	
4771	0	30690	
4772	0	30740	
4773	0	30760	
4774	0	30760	
4775	0	30752	
4776	0	30746	
4777	0	30748	
4778	0	30720	
4779	0	30708	
4780	0	30696	
4781	0	30664	
4782	0	30640	
4783	0	30668	
4784	0	30714	
4785	0	30760	
4786	0	30768	
4787	0	30748	
4788	0	30724	
4789	0	30712	
4790	0	30704	
4791	0	30720	
4792	0	30680	
4793	0	30648	
4794	0	30672	
4795	0	30696	
4796	0	30746	
4797	0	30746	
4798	0	30714	
4799	0	30716	
4800	0	30730	
4801	0	30764	
4802	0	30792	
4803	0	30796	
4804	0	30796	
4805	0	30792	
4806	0	30760	
4807	0	30736	
4808	0	30752	
4809	0	30782	
4810	0	30778	
4811	0	30812	
4812	0	30800	
4813	0	30780	
4814	0	30764	
4815	0	30756	
4816	0	30752	
4817	0	30776	
4818	0	30764	
4819	0	30736	
4820	0	30746	
4821	0	30760	
4822	0	30784	
4823	0	30800	
4824	0	30816	
4825	0	30792	
4826	0	30816	
4827	0	30820	
4828	0	30792	
4829	0	30760	
4830	0	30746	
4831	0	30768	
4832	0	30780	
4833	0	30792	
4834	0	30820	
4835	0	30832	
4836	0	30842	
4837	0	30840	
4838	0	30836	
4839	0	30802	
4840	0	30796	
4841	0	30808	
4842	0	30816	
4843	0	30844	
4844	0	30856	
4845	0	30892	
4846	0	30936	
4847	0	30948	
4848	0	30932	
4849	0	30900	
4850	0	30920	
4851	0	30920	
4852	0	30924	
4853	0	30920	
4854	0	30936	
4855	0	30956	
4856	0	30988	
4857	0	30972	
4858	0	30968	
4859	0	31020	
4860	0	31052	
4861	0	31100	
4862	0	31112	
4863	0	31120	
4864	0	31124	
4865	0	31124	
4866	0	31160	
4867	0	31168	
4868	0	31188	
4869	0	31208	
4870	0	31232	
4871	0	31224	
4872	0	31220	
4873	0	31224	
4874	0	31244	
4875	0	31292	
4876	0	31346	
4877	0	31412	
4878	0	31504	
4879	0	31564	
4880	0	31608	
4881	0	31688	
4882	0	31738	
4883	0	31776	
4884	0	31792	
4885	0	31808	
4886	0	31856	
4887	0	31940	
4888	0	32040	
4889	0	32104	
4890	0	32188	
4891	0	32296	
4892	0	32346	
4893	0	32400	
4894	0	32440	
4895	0	32444	
4896	0	32416	
4897	0	32384	
4898	0	32376	
4899	0	32400	
4900	0	32440	
4901	0	32576	
4902	0	32712	
4903	0	32832	
4904	0	32928	
4905	0	32996	
4906	0	33060	
4907	0	33152	
4908	0	33256	
4909	0	33348	
4910	0	33456	
4911	0	33568	
4912	0	33692	
4913	0	33800	
4914	0	33898	
4915	0	33992	
4916	0	34072	
4917	0	34124	
4918	0	34184	
4919	0	34276	
4920	0	34368	
4921	0	34424	
4922	0	34444	
4923	0	34476	
4924	0	34472	
4925	0	34400	
4926	0	34308	
4927	0	34252	
4928	0	34248	
4929	0	34216	
4930	0	34172	
4931	0	34116	
4932	0	34016	
4933	0	33884	
4934	0	33736	
4935	0	33596	
4936	0	33480	
4937	0	33344	
4938	0	33180	
4939	0	32980	
4940	0	32768	
4941	0	32528	
4942	0	32298	
4943	0	32100	
4944	0	31952	
4945	0	31860	
4946	0	31792	
4947	0	31768	
4948	0	31724	
4949	0	31636	
4950	0	31556	
4951	0	31500	
4952	0	31464	
4953	0	31392	
4954	0	31300	
4955	0	31230	
4956	0	31168	
4957	0	31108	
4958	0	31124	
4959	0	31104	
4960	0	31008	
4961	0	30928	
4962	0	30888	
4963	0	30804	
4964	0	30696	
4965	0	30600	
4966	0	30506	
4967	0	30430	
4968	0	30368	
4969	0	30352	
4970	0	30340	
4971	0	30292	
4972	0	30242	
4973	0	30248	
4974	0	30228	
4975	0	30224	
4976	0	30296	
4977	0	30304	
4978	0	30276	
4979	0	30264	
4980	0	30252	
4981	0	30240	
4982	0	30236	
4983	0	30248	
4984	0	30250	
4985	0	30268	
4986	0	30308	
4987	0	30304	
4988	0	30344	
4989	0	30360	
4990	0	30336	
4991	0	30352	
4992	0	30368	
4993	0	30388	
4994	0	30412	
4995	0	30428	
4996	0	30456	
4997	0	30426	
4998	0	30416	
4999	0	30420	
5000	0	30432	
5001	0	30440	
5002	0	30464	
5003	0	30500	
5004	0	30504	
5005	0	30520	
5006	0	30548	
5007	0	30560	
5008	0	30564	
5009	0	30576	
5010	0	30552	
5011	0	30546	
5012	0	30584	
5013	0	30612	
5014	0	30628	
5015	0	30640	
5016	0	30648	
5017	0	30640	
5018	0	30620	
5019	0	30660	
5020	0	30724	
5021	0	30808	
5022	0	30840	
5023	0	30844	
5024	0	30856	
5025	0	30848	
5026	0	30720	
5027	0	30548	
5028	0	30272	
5029	0	29940	
5030	0	29572	
5031	0	29152	
5032	0	28740	
5033	0	28448	
5034	0	28284	
5035	0	28324	
5036	0	28556	
5037	0	28864	
5038	0	29146	
5039	0	29464	
5040	0	29826	
5041	0	30296	
5042	0	30716	
5043	0	31002	
5044	0	31236	
5045	0	31496	
5046	0	31696	
5047	0	31964	
5048	0	32500	
5049	0	33320	
5050	0	34400	
5051	0	35772	
5052	0	37536	
5053	0	39568	
5054	0	41812	
5055	0	44280	
5056	0	47108	
5057	0	50172	
5058	0	52920	
5059	0	55072	
5060	0	56888	
5061	0	58632	
5062	0	60184	
5063	0	61372	
5064	0	62232	
5065	0	62600	
5066	0	62264	
5067	0	61360	
5068	0	60020	
5069	0	58384	
5070	0	56468	
5071	0	54328	
5072	0	52008	
5073	0	49584	
5074	0	47116	
5075	0	44516	
5076	0	41704	
5077	0	38796	
5078	0	35896	
5079	0	32978	
5080	0	30240	
5081	0	27756	
5082	0	25648	
5083	0	23864	
5084	0	22336	
5085	0	21044	
5086	0	20022	
5087	0	19282	
5088	0	18700	
5089	0	18176	
5090	0	17668	
5091	0	17208	
5092	0	16808	
5093	0	16508	
5094	0	16230	
5095	0	16060	
5096	0	15990	
5097	0	16096	
5098	0	16272	
5099	0	16564	
5100	0	16992	
5101	0	17678	
5102	0	18496	
5103	0	19384	
5104	0	20273	
5105	0	21154	
5106	0	22008	
5107	0	22980	
5108	0	23972	
5109	0	24980	
5110	0	25880	
5111	0	26612	
5112	0	27260	
5113	0	27836	
5114	0	28334	
5115	0	28796	
5116	0	29168	
5117	0	29472	
5118	0	29752	
5119	0	29992	
5120	0	30220	
5121	0	30416	
5122	0	30592	
5123	0	30720	
5124	0	30800	
5125	0	30832	
5126	0	30876	
5127	0	30956	
5128	0	31048	
5129	0	31120	
5130	0	31216	
5131	0	31312	
5132	0	31360	
5133	0	31436	
5134	0	31520	
5135	0	31560	
5136	0	31608	
5137	0	31668	
5138	0	31760	
5139	0	31842	
5140	0	31896	
5141	0	31914	
5142	0	31988	
5143	0	32096	
5144	0	32192	
5145	0	32256	
5146	0	32300	
5147	0	32336	
5148	0	32416	
5149	0	32520	
5150	0	32600	
5151	0	32644	
5152	0	32684	
5153	0	32700	
5154	0	32746	
5155	0	32796	
5156	0	32850	
5157	0	32896	
5158	0	32952	
5159	0	33032	
5160	0	33120	
5161	0	33154	
5162	0	33224	
5163	0	33264	
5164	0	33296	
5165	0	33332	
5166	0	33376	
5167	0	33424	
5168	0	33464	
5169	0	33540	
5170	0	33620	
5171	0	33676	
5172	0	33704	
5173	0	33704	
5174	0	33722	
5175	0	33736	
5176	0	33752	
5177	0	33780	
5178	0	33792	
5179	0	33812	
5180	0	33852	
5181	0	33904	
5182	0	33968	
5183	0	34028	
5184	0	34040	
5185	0	34074	
5186	0	34104	
5187	0	34124	
5188	0	34168	
5189	0	34192	
5190	0	34224	
5191	0	34256	
5192	0	34288	
5193	0	34332	
5194	0	34348	
5195	0	34392	
5196	0	34404	
5197	0	34416	
5198	0	34456	
5199	0	34528	
5200	0	34572	
5201	0	34584	
5202	0	34560	
5203	0	34554	
5204	0	34568	
5205	0	34618	
5206	0	34672	
5207	0	34720	
5208	0	34728	
5209	0	34760	
5210	0	34812	
5211	0	34864	
5212	0	34892	
5213	0	34952	
5214	0	35012	
5215	0	35064	
5216	0	35100	
5217	0	35104	
5218	0	35140	
5219	0	35192	
5220	0	35264	
5221	0	35310	
5222	0	35348	
5223	0	35392	
5224	0	35444	
5225	0	35468	
5226	0	35528	
5227	0	35584	
5228	0	35652	
5229	0	35724	
5230	0	35808	
5231	0	35856	
5232	0	35912	
5233	0	35972	
5234	0	36064	
5235	0	36108	
5236	0	36168	
5237	0	36224	
5238	0	36250	
5239	0	36288	
5240	0	36344	
5241	0	36388	
5242	0	36440	
5243	0	36496	
5244	0	36576	
5245	0	36660	
5246	0	36752	
5247	0	36868	
5248	0	36920	
5249	0	36976	
5250	0	37068	
5251	0	37152	
5252	0	37184	
5253	0	37248	
5254	0	37256	
5255	0	37260	
5256	0	37296	
5257	0	37376	
5258	0	37440	
5259	0	37486	
5260	0	37520	
5261	0	37568	
5262	0	37616	
5263	0	37676	
5264	0	37744	
5265	0	37772	
5266	0	37796	
5267	0	37824	
5268	0	37880	
5269	0	37872	
5270	0	37900	
5271	0	37920	
5272	0	37936	
5273	0	37976	
5274	0	38010	
5275	0	38020	
5276	0	38000	
5277	0	38000	
5278	0	38064	
5279	0	38112	
5280	0	38112	
5281	0	38100	
5282	0	38130	
5283	0	38136	
5284	0	38130	
5285	0	38140	
5286	0	38152	
5287	0	38176	
5288	0	38124	
5289	0	38108	
5290	0	38112	
5291	0	38150	
5292	0	38140	
5293	0	38096	
5294	0	38060	
5295	0	38044	
5296	0	38016	
5297	0	37960	
5298	0	37920	
5299	0	37880	
5300	0	37864	
5301	0	37784	
5302	0	37716	
5303	0	37648	
5304	0	37528	
5305	0	37392	
5306	0	37274	
5307	0	37196	
5308	0	37146	
5309	0	37005	
5310	0	36884	
5311	0	36756	
5312	0	36644	
5313	0	36480	
5314	0	36330	
5315	0	36204	
5316	0	36072	
5317	0	35932	
5318	0	35796	
5319	0	35672	
5320	0	35468	
5321	0	35236	
5322	0	35060	
5323	0	34896	
5324	0	34720	
5325	0	34560	
5326	0	34418	
5327	0	34272	
5328	0	34108	
5329	0	33924	
5330	0	33756	
5331	0	33584	
5332	0	33404	
5333	0	33228	
5334	0	33080	
5335	0	32928	
5336	0	32788	
5337	0	32628	
5338	0	32464	
5339	0	32352	
5340	0	32288	
5341	0	32172	
5342	0	32020	
5343	0	31888	
5344	0	31760	
5345	0	31620	
5346	0	31504	
5347	0	31392	
5348	0	31288	
5349	0	31160	
5350	0	31040	
5351	0	30944	
5352	0	30848	
5353	0	30780	
5354	0	30692	
5355	0	30588	
5356	0	30480	
5357	0	30412	
5358	0	30344	
5359	0	30304	
5360	0	30272	
5361	0	30192	
5362	0	30132	
5363	0	30072	
5364	0	30042	
5365	0	30020	
5366	0	29998	
5367	0	29972	
5368	0	29900	
5369	0	29840	
5370	0	29806	
5371	0	29772	
5372	0	29754	
5373	0	29740	
5374	0	29720	
5375	0	29716	
5376	0	29688	
5377	0	29680	
5378	0	29672	
5379	0	29668	
5380	0	29682	
5381	0	29700	
5382	0	29716	
5383	0	29668	
5384	0	29664	
5385	0	29641	
5386	0	29656	
5387	0	29672	
5388	0	29672	
5389	0	29666	
5390	0	29680	
5391	0	29732	
5392	0	29760	
5393	0	29764	
5394	0	29752	
5395	0	29740	
5396	0	29760	
5397	0	29776	
5398	0	29790	
5399	0	29784	
5400	0	29804	
5401	0	29832	
5402	0	29852	
5403	0	29876	
5404	0	29880	
5405	0	29880	
5406	0	29880	
5407	0	29856	
5408	0	29896	
5409	0	29944	
5410	0	29968	
5411	0	29976	
5412	0	29996	
5413	0	30010	
5414	0	30016	
5415	0	30034	
5416	0	30068	
5417	0	30100	
5418	0	30092	
5419	0	30104	
5420	0	30122	
5421	0	30164	
5422	0	30192	
5423	0	30220	
5424	0	30216	
5425	0	30200	
5426	0	30228	
5427	0	30256	
5428	0	30264	
5429	0	30294	
5430	0	30352	
5431	0	30378	
5432	0	30320	
5433	0	30264	
5434	0	30240	
5435	0	30288	
5436	0	30324	
5437	0	30332	
5438	0	30352	
5439	0	30352	
5440	0	30372	
5441	0	30408	
5442	0	30388	
5443	0	30384	
5444	0	30408	
5445	0	30428	
5446	0	30448	
5447	0	30460	
5448	0	30460	
5449	0	30484	
5450	0	30482	
5451	0	30488	
5452	0	30484	
5453	0	30480	
5454	0	30476	
5455	0	30528	
5456	0	30560	
5457	0	30576	
5458	0	30568	
5459	0	30564	
5460	0	30584	
5461	0	30600	
5462	0	30648	
5463	0	30700	
5464	0	30728	
5465	0	30712	
5466	0	30720	
5467	0	30740	
5468	0	30744	
5469	0	30744	
5470	0	30752	
5471	0	30796	
5472	0	30862	
5473	0	30888	
5474	0	30908	
5475	0	30876	
5476	0	30884	
5477	0	30880	
5478	0	30860	
5479	0	30844	
5480	0	30848	
5481	0	30856	
5482	0	30876	
5483	0	30896	
5484	0	30896	
5485	0	30880	
5486	0	30858	
5487	0	30856	
5488	0	30900	
5489	0	30920	
5490	0	30900	
5491	0	30888	
5492	0	30904	
5493	0	30868	
5494	0	30872	
5495	0	30900	
5496	0	30928	
5497	0	30936	
5498	0	30944	
5499	0	30948	
5500	0	30946	
5501	0	30996	
5502	0	31042	
5503	0	31048	
5504	0	31030	
5505	0	31012	
5506	0	31028	
5507	0	31044	
5508	0	31044	
5509	0	31056	
5510	0	31058	
5511	0	31068	
5512	0	31088	
5513	0	31096	
5514	0	31108	
5515	0	31124	
5516	0	31108	
5517	0	31112	
5518	0	31144	
5519	0	31140	
5520	0	31116	
5521	0	31116	
5522	0	31116	
5523	0	31132	
5524	0	31124	
5525	0	31148	
5526	0	31186	
5527	0	31228	
5528	0	31208	
5529	0	31208	
5530	0	31236	
5531	0	31232	
5532	0	31244	
5533	0	31272	
5534	0	31272	
5535	0	31236	
5536	0	31236	
5537	0	31212	
5538	0	31208	
5539	0	31280	
5540	0	31320	
5541	0	31340	
5542	0	31360	
5543	0	31360	
5544	0	31340	
5545	0	31380	
5546	0	31392	
5547	0	31408	
5548	0	31418	
5549	0	31416	
5550	0	31400	
5551	0	31412	
5552	0	31424	
5553	0	31432	
5554	0	31444	
5555	0	31480	
5556	0	31484	
5557	0	31492	
5558	0	31488	
5559	0	31516	
5560	0	31552	
5561	0	31512	
5562	0	31488	
5563	0	31548	
5564	0	31616	
5565	0	31688	
5566	0	31728	
5567	0	31800	
5568	0	31844	
5569	0	31856	
5570	0	31842	
5571	0	31860	
5572	0	31928	
5573	0	32008	
5574	0	32052	
5575	0	32108	
5576	0	32172	
5577	0	32248	
5578	0	32324	
5579	0	32386	
5580	0	32444	
5581	0	32540	
5582	0	32594	
5583	0	32652	
5584	0	32692	
5585	0	32760	
5586	0	32820	
5587	0	32876	
5588	0	32956	
5589	0	33056	
5590	0	33092	
5591	0	33112	
5592	0	33132	
5593	0	33092	
5594	0	33044	
5595	0	33064	
5596	0	33160	
5597	0	33264	
5598	0	33392	
5599	0	33580	
5600	0	33708	
5601	0	33756	
5602	0	33768	
5603	0	33808	
5604	0	33856	
5605	0	33928	
5606	0	34010	
5607	0	34108	
5608	0	34180	
5609	0	34264	
5610	0	34346	
5611	0	34412	
5612	0	34536	
5613	0	34652	
5614	0	34748	
5615	0	34816	
5616	0	34864	
5617	0	34932	
5618	0	35008	
5619	0	35048	
5620	0	35096	
5621	0	35096	
5622	0	35008	
5623	0	34880	
5624	0	34820	
5625	0	34784	
5626	0	34736	
5627	0	34704	
5628	0	34684	
5629	0	34600	
5630	0	34520	
5631	0	34412	
5632	0	34268	
5633	0	34136	
5634	0	33964	
5635	0	33780	
5636	0	33600	
5637	0	33436	
5638	0	33252	
5639	0	33092	
5640	0	32872	
5641	0	32624	
5642	0	32492	
5643	0	32432	
5644	0	32368	
5645	0	32340	
5646	0	32328	
5647	0	32338	
5648	0	32328	
5649	0	32272	
5650	0	32188	
5651	0	32080	
5652	0	31988	
5653	0	31912	
5654	0	31848	
5655	0	31820	
5656	0	31772	
5657	0	31700	
5658	0	31646	
5659	0	31576	
5660	0	31508	
5661	0	31360	
5662	0	31200	
5663	0	31112	
5664	0	31016	
5665	0	30928	
5666	0	30904	
5667	0	30916	
5668	0	30904	
5669	0	30856	
5670	0	30856	
5671	0	30848	
5672	0	30884	
5673	0	30932	
5674	0	30968	
5675	0	30984	
5676	0	30984	
5677	0	30980	
5678	0	31002	
5679	0	31008	
5680	0	30992	
5681	0	31012	
5682	0	31016	
5683	0	31028	
5684	0	31050	
5685	0	31048	
5686	0	31060	
5687	0	31092	
5688	0	31084	
5689	0	31092	
5690	0	31080	
5691	0	31088	
5692	0	31092	
5693	0	31144	
5694	0	31148	
5695	0	31132	
5696	0	31156	
5697	0	31148	
5698	0	31136	
5699	0	31160	
5700	0	31196	
5701	0	31200	
5702	0	31202	
5703	0	31244	
5704	0	31288	
5705	0	31312	
5706	0	31338	
5707	0	31360	
5708	0	31344	
5709	0	31340	
5710	0	31332	
5711	0	31360	
5712	0	31380	
5713	0	31408	
5714	0	31412	
5715	0	31421	
5716	0	31436	
5717	0	31460	
5718	0	31472	
5719	0	31480	
5720	0	31488	
5721	0	31516	
5722	0	31520	
5723	0	31496	
5724	0	31368	
5725	0	31166	
5726	0	30860	
5727	0	30492	
5728	0	30098	
5729	0	29744	
5730	0	29468	
5731	0	29328	
5732	0	29364	
5733	0	29584	
5734	0	29968	
5735	0	30357	
5736	0	30760	
5737	0	31182	
5738	0	31724	
5739	0	32304	
5740	0	32800	
5741	0	33192	
5742	0	33552	
5743	0	33904	
5744	0	34266	
5745	0	34784	
5746	0	35620	
5747	0	36660	
5748	0	37892	
5749	0	39482	
5750	0	41260	
5751	0	43200	
5752	0	45488	
5753	0	48136	
5754	0	51040	
5755	0	53896	
5756	0	56132	
5757	0	57632	
5758	0	58860	
5759	0	60036	
5760	0	61028	
5761	0	61786	
5762	0	62320	
5763	0	62304	
5764	0	61520	
5765	0	60172	
5766	0	58680	
5767	0	56640	
5768	0	54172	
5769	0	51580	
5770	0	49088	
5771	0	46652	
5772	0	44168	
5773	0	41420	
5774	0	38376	
5775	0	35390	
5776	0	32652	
5777	0	30148	
5778	0	27776	
5779	0	25524	
5780	0	23508	
5781	0	21898	
5782	0	20756	
5783	0	19912	
5784	0	19296	
5785	0	18848	
5786	0	18440	
5787	0	17972	
5788	0	17472	
5789	0	17033	
5790	0	16692	
5791	0	16524	
5792	0	16417	
5793	0	16475	
5794	0	16762	
5795	0	17253	
5796	0	17992	
5797	0	18816	
5798	0	19720	
5799	0	20720	
5800	0	21714	
5801	0	22796	
5802	0	23932	
5803	0	25112	
5804	0	26176	
5805	0	27072	
5806	0	27864	
5807	0	28480	
5808	0	29016	
5809	0	29472	
5810	0	29812	
5811	0	30120	
5812	0	30416	
5813	0	30700	
5814	0	30954	
5815	0	31160	
5816	0	31332	
5817	0	31448	
5818	0	31528	
5819	0	31596	
5820	0	31664	
5821	0	31728	
5822	0	31796	
5823	0	31848	
5824	0	31920	
5825	0	31992	
5826	0	32058	
5827	0	32152	
5828	0	32240	
5829	0	32296	
5830	0	32344	
5831	0	32416	
5832	0	32504	
5833	0	32568	
5834	0	32654	
5835	0	32728	
5836	0	32800	
5837	0	32864	
5838	0	32940	
5839	0	33024	
5840	0	33108	
5841	0	33200	
5842	0	33264	
5843	0	33324	
5844	0	33392	
5845	0	33440	
5846	0	33500	
5847	0	33544	
5848	0	33576	
5849	0	33624	
5850	0	33672	
5851	0	33700	
5852	0	33770	
5853	0	33824	
5854	0	33848	
5855	0	33856	
5856	0	33944	
5857	0	34008	
5858	0	34072	
5859	0	34112	
5860	0	34148	
5861	0	34192	
5862	0	34188	
5863	0	34192	
5864	0	34248	
5865	0	34276	
5866	0	34320	
5867	0	34408	
5868	0	34384	
5869	0	34320	
5870	0	34344	
5871	0	34396	
5872	0	34476	
5873	0	34508	
5874	0	34496	
5875	0	34512	
5876	0	34540	
5877	0	34560	
5878	0	34584	
5879	0	34624	
5880	0	34632	
5881	0	34672	
5882	0	34718	
5883	0	34744	
5884	0	34732	
5885	0	34720	
5886	0	34756	
5887	0	34816	
5888	0	34848	
5889	0	34872	
5890	0	34904	
5891	0	34932	
5892	0	34956	
5893	0	34980	
5894	0	35004	
5895	0	35032	
5896	0	35056	
5897	0	35076	
5898	0	35104	
5899	0	35144	
5900	0	35156	
5901	0	35168	
5902	0	35180	
5903	0	35196	
5904	0	35232	
5905	0	35306	
5906	0	35336	
5907	0	35352	
5908	0	35420	
5909	0	35512	
5910	0	35576	
5911	0	35572	
5912	0	35616	
5913	0	35640	
5914	0	35668	
5915	0	35692	
5916	0	35720	
5917	0	35768	
5918	0	35840	
5919	0	35908	
5920	0	35972	
5921	0	36032	
5922	0	36068	
5923	0	36092	
5924	0	36128	
5925	0	36172	
5926	0	36240	
5927	0	36308	
5928	0	36392	
5929	0	36464	
5930	0	36516	
5931	0	36572	
5932	0	36620	
5933	0	36706	
5934	0	36764	
5935	0	36808	
5936	0	36876	
5937	0	36932	
5938	0	37004	
5939	0	37064	
5940	0	37136	
5941	0	37216	
5942	0	37274	
5943	0	37316	
5944	0	37376	
5945	0	37476	
5946	0	37560	
5947	0	37616	
5948	0	37692	
5949	0	37796	
5950	0	37876	
5951	0	37980	
5952	0	38036	
5953	0	38072	
5954	0	38108	
5955	0	38160	
5956	0	38208	
5957	0	38268	
5958	0	38316	
5959	0	38316	
5960	0	38348	
5961	0	38376	
5962	0	38436	
5963	0	38512	
5964	0	38544	
5965	0	38584	
5966	0	38620	
5967	0	38648	
5968	0	38680	
5969	0	38692	
5970	0	38684	
5971	0	38684	
5972	0	38682	
5973	0	38684	
5974	0	38680	
5975	0	38680	
5976	0	38680	
5977	0	38712	
5978	0	38772	
5979	0	38788	
5980	0	38792	
5981	0	38792	
5982	0	38816	
5983	0	38824	
5984	0	38828	
5985	0	38832	
5986	0	38844	
5987	0	38784	
5988	0	38728	
5989	0	38700	
5990	0	38664	
5991	0	38634	
5992	0	38616	
5993	0	38600	
5994	0	38576	
5995	0	38516	
5996	0	38448	
5997	0	38344	
5998	0	38248	
5999	0	38140	
6000	0	38056	
6001	0	37988	
6002	0	37948	
6003	0	37832	
6004	0	37716	
6005	0	37576	
6006	0	37428	
6007	0	37308	
6008	0	37204	
6009	0	37072	
6010	0	36916	
6011	0	36782	
6012	0	36624	
6013	0	36444	
6014	0	36256	
6015	0	36092	
6016	0	35928	
6017	0	35736	
6018	0	35540	
6019	0	35332	
6020	0	35148	
6021	0	34960	
6022	0	34748	
6023	0	34548	
6024	0	34344	
6025	0	34148	
6026	0	33960	
6027	0	33760	
6028	0	33544	
6029	0	33368	
6030	0	33164	
6031	0	32960	
6032	0	32772	
6033	0	32600	
6034	0	32424	
6035	0	32264	
6036	0	32112	
6037	0	31960	
6038	0	31796	
6039	0	31614	
6040	0	31436	
6041	0	31258	
6042	0	31144	
6043	0	31040	
6044	0	30924	
6045	0	30792	
6046	0	30628	
6047	0	30468	
6048	0	30352	
6049	0	30268	
6050	0	30196	
6051	0	30092	
6052	0	29948	
6053	0	29844	
6054	0	29772	
6055	0	29664	
6056	0	29568	
6057	0	29484	
6058	0	29376	
6059	0	29290	
6060	0	29208	
6061	0	29136	
6062	0	29068	
6063	0	29020	
6064	0	28992	
6065	0	28968	
6066	0	28940	
6067	0	28908	
6068	0	28872	
6069	0	28844	
6070	0	28792	
6071	0	28744	
6072	0	28684	
6073	0	28644	
6074	0	28640	
6075	0	28632	
6076	0	28608	
6077	0	28584	
6078	0	28576	
6079	0	28576	
6080	0	28578	
6081	0	28564	
6082	0	28576	
6083	0	28592	
6084	0	28570	
6085	0	28588	
6086	0	28600	
6087	0	28624	
6088	0	28648	
6089	0	28642	
6090	0	28632	
6091	0	28668	
6092	0	28700	
6093	0	28712	
6094	0	28700	
6095	0	28724	
6096	0	28752	
6097	0	28772	
6098	0	28784	
6099	0	28802	
6100	0	28832	
6101	0	28868	
6102	0	28864	
6103	0	28888	
6104	0	28932	
6105	0	28964	
6106	0	28996	
6107	0	29026	
6108	0	29036	
6109	0	29028	
6110	0	28996	
6111	0	29008	
6112	0	29040	
6113	0	29064	
6114	0	29088	
6115	0	29092	
6116	0	29112	
6117	0	29128	
6118	0	29176	
6119	0	29240	
6120	0	29260	
6121	0	29284	
6122	0	29312	
6123	0	29340	
6124	0	29338	
6125	0	29344	
6126	0	29372	
6127	0	29412	
6128	0	29429	
6129	0	29416	
6130	0	29384	
6131	0	29396	
6132	0	29448	
6133	0	29492	
6134	0	29528	
6135	0	29552	
6136	0	29586	
6137	0	29600	
6138	0	29604	
6139	0	29620	
6140	0	29652	
6141	0	29668	
6142	0	29664	
6143	0	29708	
6144	0	29740	
6145	0	29728	
6146	0	29716	
6147	0	29744	
6148	0	29796	
6149	0	29808	
6150	0	29808	
6151	0	29822	
6152	0	29852	
6153	0	29856	
6154	0	29878	
6155	0	29940	
6156	0	29968	
6157	0	29972	
6158	0	29988	
6159	0	29996	
6160	0	30004	
6161	0	29984	
6162	0	29976	
6163	0	29984	
6164	0	30008	
6165	0	30032	
6166	0	30020	
6167	0	30028	
6168	0	30072	
6169	0	30112	
6170	0	30152	
6171	0	30178	
6172	0	30204	
6173	0	30218	
6174	0	30244	
6175	0	30272	
6176	0	30296	
6177	0	30304	
6178	0	30337	
6179	0	30346	
6180	0	30344	
6181	0	30348	
6182	0	30376	
6183	0	30396	
6184	0	30400	
6185	0	30418	
6186	0	30408	
6187	0	30388	
6188	0	30392	
6189	0	30392	
6190	0	30376	
6191	0	30384	
6192	0	30388	
6193	0	30432	
6194	0	30464	
6195	0	30488	
6196	0	30512	
6197	0	30540	
6198	0	30544	
6199	0	30512	
6200	0	30520	
6201	0	30548	
6202	0	30576	
6203	0	30600	
6204	0	30616	
6205	0	30612	
6206	0	30604	
6207	0	30600	
6208	0	30600	
6209	0	30600	
6210	0	30596	
6211	0	30616	
6212	0	30604	
6213	0	30592	
6214	0	30608	
6215	0	30620	
6216	0	30632	
6217	0	30664	
6218	0	30672	
6219	0	30652	
6220	0	30666	
6221	0	30676	
6222	0	30688	
6223	0	30712	
6224	0	30692	
6225	0	30684	
6226	0	30700	
6227	0	30724	
6228	0	30728	
6229	0	30720	
6230	0	30712	
6231	0	30748	
6232	0	30784	
6233	0	30800	
6234	0	30776	
6235	0	30784	
6236	0	30844	
6237	0	30856	
6238	0	30852	
6239	0	30866	
6240	0	30872	
6241	0	30848	
6242	0	30840	
6243	0	30884	
6244	0	30918	
6245	0	30928	
6246	0	30916	
6247	0	30912	
6248	0	30908	
6249	0	30920	
6250	0	30952	
6251	0	30992	
6252	0	31010	
6253	0	31000	
6254	0	31004	
6255	0	31020	
6256	0	31060	
6257	0	31068	
6258	0	31068	
6259	0	31072	
6260	0	31108	
6261	0	31136	
6262	0	31208	
6263	0	31264	
6264	0	31296	
6265	0	31304	
6266	0	31308	
6267	0	31340	
6268	0	31386	
6269	0	31456	
6270	0	31536	
6271	0	31608	
6272	0	31676	
6273	0	31728	
6274	0	31820	
6275	0	31872	
6276	0	31936	
6277	0	32012	
6278	0	32036	
6279	0	32048	
6280	0	32064	
6281	0	32128	
6282	0	32206	
6283	0	32268	
6284	0	32360	
6285	0	32468	
6286	0	32528	
6287	0	32572	
6288	0	32652	
6289	0	32692	
6290	0	32644	
6291	0	32624	
6292	0	32632	
6293	0	32652	
6294	0	32760	
6295	0	32924	
6296	0	33104	
6297	0	33208	
6298	0	33232	
6299	0	33272	
6300	0	33328	
6301	0	33408	
6302	0	33488	
6303	0	33560	
6304	0	33692	
6305	0	33798	
6306	0	33872	
6307	0	33956	
6308	0	34040	
6309	0	34154	
6310	0	34260	
6311	0	34368	
6312	0	34404	
6313	0	34460	
6314	0	34552	
6315	0	34644	
6316	0	34700	
6317	0	34748	
6318	0	34728	
6319	0	34644	
6320	0	34526	
6321	0	34464	
6322	0	34428	
6323	0	34424	
6324	0	34396	
6325	0	34332	
6326	0	34274	
6327	0	34188	
6328	0	34048	
6329	0	33896	
6330	0	33740	
6331	0	33600	
6332	0	33408	
6333	0	33236	
6334	0	33060	
6335	0	32864	
6336	0	32672	
6337	0	32456	
6338	0	32348	
6339	0	32320	
6340	0	32252	
6341	0	32184	
6342	0	32132	
6343	0	32088	
6344	0	32016	
6345	0	31968	
6346	0	31908	
6347	0	31816	
6348	0	31728	
6349	0	31644	
6350	0	31568	
6351	0	31528	
6352	0	31470	
6353	0	31428	
6354	0	31352	
6355	0	31288	
6356	0	31208	
6357	0	31092	
6358	0	30944	
6359	0	30824	
6360	0	30690	
6361	0	30632	
6362	0	30592	
6363	0	30604	
6364	0	30592	
6365	0	30560	
6366	0	30560	
6367	0	30548	
6368	0	30556	
6369	0	30544	
6370	0	30556	
6371	0	30592	
6372	0	30596	
6373	0	30596	
6374	0	30618	
6375	0	30664	
6376	0	30672	
6377	0	30644	
6378	0	30664	
6379	0	30704	
6380	0	30732	
6381	0	30754	
6382	0	30764	
6383	0	30768	
6384	0	30770	
6385	0	30768	
6386	0	30794	
6387	0	30816	
6388	0	30776	
6389	0	30776	
6390	0	30812	
6391	0	30864	
6392	0	30908	
6393	0	30908	
6394	0	30912	
6395	0	30918	
6396	0	30924	
6397	0	30960	
6398	0	30986	
6399	0	30984	
6400	0	31010	
6401	0	31040	
6402	0	31016	
6403	0	30976	
6404	0	30992	
6405	0	31016	
6406	0	31056	
6407	0	31092	
6408	0	31128	
6409	0	31104	
6410	0	31114	
6411	0	31130	
6412	0	31156	
6413	0	31196	
6414	0	31252	
6415	0	31276	
6416	0	31296	
6417	0	31288	
6418	0	31288	
6419	0	31284	
6420	0	31230	
6421	0	31108	
6422	0	30864	
6423	0	30596	
6424	0	30248	
6425	0	29856	
6426	0	29488	
6427	0	29210	
6428	0	29080	
6429	0	29144	
6430	0	29388	
6431	0	29792	
6432	0	30184	
6433	0	30552	
6434	0	30940	
6435	0	31456	
6436	0	32020	
6437	0	32464	
6438	0	32728	
6439	0	33010	
6440	0	33336	
6441	0	33728	
6442	0	34252	
6443	0	35080	
6444	0	36080	
6445	0	37292	
6446	0	38836	
6447	0	40600	
6448	0	42580	
6449	0	44892	
6450	0	47520	
6451	0	50400	
6452	0	53200	
6453	0	55388	
6454	0	56900	
6455	0	58088	
6456	0	59280	
6457	0	60268	
6458	0	61012	
6459	0	61447	
6460	0	61328	
6461	0	60528	
6462	0	59220	
6463	0	57616	
6464	0	55660	
6465	0	53324	
6466	0	50836	
6467	0	48472	
6468	0	46100	
6469	0	43700	
6470	0	41056	
6471	0	38136	
6472	0	35288	
6473	0	32688	
6474	0	30272	
6475	0	28028	
6476	0	25832	
6477	0	23892	
6478	0	22382	
6479	0	21272	
6480	0	20398	
6481	0	19796	
6482	0	19340	
6483	0	18928	
6484	0	18424	
6485	0	17888	
6486	0	17390	
6487	0	16964	
6488	0	16708	
6489	0	16553	
6490	0	16544	
6491	0	16792	
6492	0	17176	
6493	0	17812	
6494	0	18613	
6495	0	19548	
6496	0	20542	
6497	0	21476	
6498	0	22464	
6499	0	23564	
6500	0	24744	
6501	0	25850	
6502	0	26804	
6503	0	27624	
6504	0	28276	
6505	0	28856	
6506	0	29352	
6507	0	29736	
6508	0	30044	
6509	0	30342	
6510	0	30632	
6511	0	30884	
6512	0	31128	
6513	0	31328	
6514	0	31452	
6515	0	31520	
6516	0	31596	
6517	0	31660	
6518	0	31732	
6519	0	31784	
6520	0	31864	
6521	0	31960	
6522	0	32032	
6523	0	32084	
6524	0	32160	
6525	0	32232	
6526	0	32308	
6527	0	32404	
6528	0	32476	
6529	0	32536	
6530	0	32592	
6531	0	32652	
6532	0	32740	
6533	0	32816	
6534	0	32896	
6535	0	32980	
6536	0	33060	
6537	0	33132	
6538	0	33208	
6539	0	33260	
6540	0	33320	
6541	0	33396	
6542	0	33468	
6543	0	33536	
6544	0	33592	
6545	0	33633	
6546	0	33690	
6547	0	33720	
6548	0	33746	
6549	0	33788	
6550	0	33828	
6551	0	33852	
6552	0	33924	
6553	0	33968	
6554	0	34000	
6555	0	34016	
6556	0	34040	
6557	0	34112	
6558	0	34168	
6559	0	34168	
6560	0	34164	
6561	0	34204	
6562	0	34252	
6563	0	34308	
6564	0	34336	
6565	0	34360	
6566	0	34376	
6567	0	34424	
6568	0	34476	
6569	0	34492	
6570	0	34496	
6571	0	34496	
6572	0	34512	
6573	0	34532	
6574	0	34564	
6575	0	34588	
6576	0	34648	
6577	0	34684	
6578	0	34692	
6579	0	34676	
6580	0	34696	
6581	0	34688	
6582	0	34708	
6583	0	34748	
6584	0	34792	
6585	0	34824	
6586	0	34836	
6587	0	34860	
6588	0	34904	
6589	0	34956	
6590	0	34956	
6591	0	34944	
6592	0	34944	
6593	0	34992	
6594	0	35040	
6595	0	35060	
6596	0	35092	
6597	0	35108	
6598	0	35108	
6599	0	35124	
6600	0	35168	
6601	0	35220	
6602	0	35268	
6603	0	35312	
6604	0	35336	
6605	0	35364	
6606	0	35388	
6607	0	35408	
6608	0	35444	
6609	0	35488	
6610	0	35488	
6611	0	35544	
6612	0	35616	
6613	0	35700	
6614	0	35745	
6615	0	35776	
6616	0	35860	
6617	0	35896	
6618	0	35932	
6619	0	35992	
6620	0	36048	
6621	0	36128	
6622	0	36200	
6623	0	36234	
6624	0	36296	
6625	0	36338	
6626	0	36372	
6627	0	36440	
6628	0	36500	
6629	0	36552	
6630	0	36656	
6631	0	36696	
6632	0	36764	
6633	0	36852	
6634	0	36952	
6635	0	37048	
6636	0	37100	
6637	0	37176	
6638	0	37220	
6639	0	37272	
6640	0	37336	
6641	0	37408	
6642	0	37440	
6643	0	37484	
6644	0	37492	
6645	0	37528	
6646	0	37624	
6647	0	37704	
6648	0	37752	
6649	0	37824	
6650	0	37872	
6651	0	37888	
6652	0	37908	
6653	0	38008	
6654	0	38084	
6655	0	38120	
6656	0	38160	
6657	0	38208	
6658	0	38276	
6659	0	38348	
6660	0	38376	
6661	0	38376	
6662	0	38404	
6663	0	38428	
6664	0	38424	
6665	0	38456	
6666	0	38488	
6667	0	38524	
6668	0	38576	
6669	0	38592	
6670	0	38592	
6671	0	38592	
6672	0	38600	
6673	0	38608	
6674	0	38612	
6675	0	38644	
6676	0	38640	
6677	0	38644	
6678	0	38656	
6679	0	38628	
6680	0	38620	
6681	0	38598	
6682	0	38586	
6683	0	38556	
6684	0	38540	
6685	0	38528	
6686	0	38536	
6687	0	38508	
6688	0	38480	
6689	0	38456	
6690	0	38428	
6691	0	38388	
6692	0	38304	
6693	0	38246	
6694	0	38236	
6695	0	38200	
6696	0	38136	
6697	0	38056	
6698	0	37948	
6699	0	37824	
6700	0	37696	
6701	0	37568	
6702	0	37442	
6703	0	37328	
6704	0	37196	
6705	0	37024	
6706	0	36840	
6707	0	36692	
6708	0	36532	
6709	0	36344	
6710	0	36192	
6711	0	36040	
6712	0	35892	
6713	0	35728	
6714	0	35554	
6715	0	35352	
6716	0	35128	
6717	0	34932	
6718	0	34768	
6719	0	34586	
6720	0	34412	
6721	0	34224	
6722	0	34048	
6723	0	33840	
6724	0	33640	
6725	0	33412	
6726	0	33204	
6727	0	33044	
6728	0	32864	
6729	0	32676	
6730	0	32526	
6731	0	32328	
6732	0	32120	
6733	0	31968	
6734	0	31852	
6735	0	31728	
6736	0	31568	
6737	0	31448	
6738	0	31292	
6739	0	31136	
6740	0	31020	
6741	0	30888	
6742	0	30752	
6743	0	30636	
6744	0	30538	
6745	0	30416	
6746	0	30316	
6747	0	30184	
6748	0	30088	
6749	0	29980	
6750	0	29872	
6751	0	29778	
6752	0	29720	
6753	0	29652	
6754	0	29536	
6755	0	29418	
6756	0	29380	
6757	0	29348	
6758	0	29272	
6759	0	29180	
6760	0	29136	
6761	0	29084	
6762	0	29032	
6763	0	28996	
6764	0	28997	
6765	0	28962	
6766	0	28884	
6767	0	28824	
6768	0	28796	
6769	0	28768	
6770	0	28772	
6771	0	28772	
6772	0	28760	
6773	0	28736	
6774	0	28712	
6775	0	28718	
6776	0	28674	
6777	0	28656	
6778	0	28660	
6779	0	28688	
6780	0	28688	
6781	0	28668	
6782	0	28652	
6783	0	28648	
6784	0	28644	
6785	0	28620	
6786	0	28624	
6787	0	28648	
6788	0	28712	
6789	0	28720	
6790	0	28726	
6791	0	28732	
6792	0	28740	
6793	0	28792	
6794	0	28864	
6795	0	28888	
6796	0	28874	
6797	0	28852	
6798	0	28832	
6799	0	28852	
6800	0	28912	
6801	0	28960	
6802	0	28996	
6803	0	29008	
6804	0	29044	
6805	0	29068	
6806	0	29096	
6807	0	29112	
6808	0	29140	
6809	0	29184	
6810	0	29200	
6811	0	29218	
6812	0	29236	
6813	0	29252	
6814	0	29264	
6815	0	29288	
6816	0	29320	
6817	0	29336	
6818	0	29372	
6819	0	29392	
6820	0	29412	
6821	0	29420	
6822	0	29408	
6823	0	29436	
6824	0	29460	
6825	0	29476	
6826	0	29488	
6827	0	29488	
6828	0	29556	
6829	0	29616	
6830	0	29608	
6831	0	29588	
6832	0	29600	
6833	0	29624	
6834	0	29652	
6835	0	29688	
6836	0	29704	
6837	0	29716	
6838	0	29744	
6839	0	29768	
6840	0	29812	
6841	0	29836	
6842	0	29832	
6843	0	29820	
6844	0	29840	
6845	0	29872	
6846	0	29890	
6847	0	29904	
6848	0	29936	
6849	0	29978	
6850	0	30008	
6851	0	30040	
6852	0	30050	
6853	0	30092	
6854	0	30124	
6855	0	30124	
6856	0	30108	
6857	0	30100	
6858	0	30108	
6859	0	30120	
6860	0	30168	
6861	0	30220	
6862	0	30256	
6863	0	30252	
6864	0	30240	
6865	0	30240	
6866	0	30256	
6867	0	30272	
6868	0	30300	
6869	0	30364	
6870	0	30396	
6871	0	30392	
6872	0	30352	
6873	0	30324	
6874	0	30356	
6875	0	30404	
6876	0	30400	
6877	0	30400	
6878	0	30394	
6879	0	30404	
6880	0	30424	
6881	0	30460	
6882	0	30488	
6883	0	30504	
6884	0	30520	
6885	0	30500	
6886	0	30520	
6887	0	30548	
6888	0	30564	
6889	0	30580	
6890	0	30592	
6891	0	30612	
6892	0	30592	
6893	0	30568	
6894	0	30568	
6895	0	30620	
6896	0	30660	
6897	0	30704	
6898	0	30752	
6899	0	30792	
6900	0	30784	
6901	0	30756	
6902	0	30748	
6903	0	30716	
6904	0	30696	
6905	0	30720	
6906	0	30724	
6907	0	30728	
6908	0	30736	
6909	0	30752	
6910	0	30768	
6911	0	30772	
6912	0	30776	
6913	0	30808	
6914	0	30812	
6915	0	30816	
6916	0	30820	
6917	0	30800	
6918	0	30804	
6919	0	30788	
6920	0	30780	
6921	0	30812	
6922	0	30816	
6923	0	30832	
6924	0	30840	
6925	0	30848	
6926	0	30872	
6927	0	30936	
6928	0	30970	
6929	0	30958	
6930	0	30976	
6931	0	30972	
6932	0	30984	
6933	0	30980	
6934	0	30960	
6935	0	30956	
6936	0	31004	
6937	0	31024	
6938	0	31016	
6939	0	31028	
6940	0	31020	
6941	0	31008	
6942	0	30972	
6943	0	30968	
6944	0	31004	
6945	0	31032	
6946	0	31016	
6947	0	31028	
6948	0	31048	
6949	0	31072	
6950	0	31100	
6951	0	31124	
6952	0	31132	
6953	0	31116	
6954	0	31112	
6955	0	31132	
6956	0	31168	
6957	0	31204	
6958	0	31240	
6959	0	31272	
6960	0	31290	
6961	0	31280	
6962	0	31284	
6963	0	31316	
6964	0	31360	
6965	0	31376	
6966	0	31352	
6967	0	31336	
6968	0	31348	
6969	0	31348	
6970	0	31332	
6971	0	31336	
6972	0	31346	
6973	0	31372	
6974	0	31452	
6975	0	31480	
6976	0	31476	
6977	0	31484	
6978	0	31504	
6979	0	31500	
6980	0	31506	
6981	0	31544	
6982	0	31584	
6983	0	31604	
6984	0	31608	
6985	0	31648	
6986	0	31668	
6987	0	31712	
6988	0	31752	
6989	0	31776	
6990	0	31760	
6991	0	31720	
6992	0	31712	
6993	0	31776	
6994	0	31876	
6995	0	31970	
6996	0	32040	
6997	0	32056	
6998	0	32052	
6999	0	32048	
7000	0	32060	
7001	0	32072	
7002	0	32136	
7003	0	32228	
7004	0	32328	
7005	0	32424	
7006	0	32488	
7007	0	32540	
7008	0	32576	
7009	0	32626	
7010	0	32656	
7011	0	32706	
7012	0	32776	
7013	0	32844	
7014	0	32884	
7015	0	32910	
7016	0	32964	
7017	0	33048	
7018	0	33116	
7019	0	33164	
7020	0	33192	
7021	0	33188	
7022	0	33140	
7023	0	33128	
7024	0	33184	
7025	0	33292	
7026	0	33476	
7027	0	33644	
7028	0	33776	
7029	0	33850	
7030	0	33884	
7031	0	33888	
7032	0	33896	
7033	0	33978	
7034	0	34048	
7035	0	34128	
7036	0	34228	
7037	0	34348	
7038	0	34444	
7039	0	34532	
7040	0	34616	
7041	0	34732	
7042	0	34820	
7043	0	34880	
7044	0	34924	
7045	0	34972	
7046	0	35060	
7047	0	35116	
7048	0	35128	
7049	0	35128	
7050	0	35084	
7051	0	34992	
7052	0	34932	
7053	0	34928	
7054	0	34892	
7055	0	34848	
7056	0	34776	
7057	0	34656	
7058	0	34532	
7059	0	34376	
7060	0	34248	
7061	0	34116	
7062	0	33960	
7063	0	33824	
7064	0	33688	
7065	0	33560	
7066	0	33388	
7067	0	33192	
7068	0	32968	
7069	0	32776	
7070	0	32648	
7071	0	32592	
7072	0	32544	
7073	0	32484	
7074	0	32436	
7075	0	32388	
7076	0	32332	
7077	0	32256	
7078	0	32208	
7079	0	32148	
7080	0	32048	
7081	0	31976	
7082	0	31976	
7083	0	31940	
7084	0	31860	
7085	0	31796	
7086	0	31708	
7087	0	31640	
7088	0	31576	
7089	0	31488	
7090	0	31336	
7091	0	31200	
7092	0	31116	
7093	0	31040	
7094	0	30952	
7095	0	30906	
7096	0	30904	
7097	0	30936	
7098	0	30936	
7099	0	30936	
7100	0	30956	
7101	0	30980	
7102	0	30962	
7103	0	30932	
7104	0	30972	
7105	0	30990	
7106	0	31028	
7107	0	31052	
7108	0	31064	
7109	0	31048	
7110	0	31076	
7111	0	31088	
7112	0	31076	
7113	0	31116	
7114	0	31152	
7115	0	31132	
7116	0	31108	
7117	0	31128	
7118	0	31130	
7119	0	31136	
7120	0	31176	
7121	0	31216	
7122	0	31212	
7123	0	31200	
7124	0	31220	
7125	0	31244	
7126	0	31248	
7127	0	31236	
7128	0	31240	
7129	0	31240	
7130	0	31248	
7131	0	31274	
7132	0	31308	
7133	0	31312	
7134	0	31324	
7135	0	31328	
7136	0	31352	
7137	0	31392	
7138	0	31432	
7139	0	31428	
7140	0	31424	
7141	0	31428	
7142	0	31452	
7143	0	31444	
7144	0	31454	
7145	0	31500	
7146	0	31532	
7147	0	31592	
7148	0	31642	
7149	0	31648	
7150	0	31620	
7151	0	31572	
7152	0	31444	
7153	0	31256	
7154	0	30984	
7155	0	30626	
7156	0	30232	
7157	0	29848	
7158	0	29552	
7159	0	29360	
7160	0	29332	
7161	0	29500	
7162	0	29848	
7163	0	30216	
7164	0	30560	
7165	0	30936	
7166	0	31420	
7167	0	31980	
7168	0	32440	
7169	0	32748	
7170	0	33012	
7171	0	33304	
7172	0	33608	
7173	0	34050	
7174	0	34762	
7175	0	35680	
7176	0	36764	
7177	0	38196	
7178	0	39940	
7179	0	41820	
7180	0	43964	
7181	0	46476	
7182	0	49260	
7183	0	52172	
7184	0	54596	
7185	0	56296	
7186	0	57620	
7187	0	58896	
7188	0	60108	
7189	0	61020	
7190	0	61584	
7191	0	61672	
7192	0	61024	
7193	0	59820	
7194	0	58320	
7195	0	56580	
7196	0	54400	
7197	0	51936	
7198	0	49528	
7199	0	47156	
7200	0	44760	
7201	0	42316	
7202	0	39608	
7203	0	36756	
7204	0	34056	
7205	0	31608	
7206	0	29348	
7207	0	27132	
7208	0	25028	
7209	0	23334	
7210	0	22080	
7211	0	21132	
7212	0	20386	
7213	0	19884	
7214	0	19433	
7215	0	18904	
7216	0	18328	
7217	0	17796	
7218	0	17340	
7219	0	17013	
7220	0	16868	
7221	0	16806	
7222	0	16872	
7223	0	17160	
7224	0	17636	
7225	0	18356	
7226	0	19216	
7227	0	20160	
7228	0	21113	
7229	0	22036	
7230	0	23008	
7231	0	24100	
7232	0	25248	
7233	0	26288	
7234	0	27168	
7235	0	27920	
7236	0	28548	
7237	0	29092	
7238	0	29552	
7239	0	29944	
7240	0	30264	
7241	0	30544	
7242	0	30824	
7243	0	31072	
7244	0	31260	
7245	0	31408	
7246	0	31536	
7247	0	31616	
7248	0	31674	
7249	0	31724	
7250	0	31818	
7251	0	31892	
7252	0	31972	
7253	0	32028	
7254	0	32128	
7255	0	32202	
7256	0	32264	
7257	0	32304	
7258	0	32328	
7259	0	32408	
7260	0	32452	
7261	0	32520	
7262	0	32584	
7263	0	32640	
7264	0	32724	
7265	0	32804	
7266	0	32880	
7267	0	32956	
7268	0	33040	
7269	0	33100	
7270	0	33148	
7271	0	33200	
7272	0	33276	
7273	0	33342	
7274	0	33408	
7275	0	33428	
7276	0	33460	
7277	0	33524	
7278	0	33608	
7279	0	33672	
7280	0	33732	
7281	0	33776	
7282	0	33768	
7283	0	33812	
7284	0	33864	
7285	0	33912	
7286	0	33934	
7287	0	33992	
7288	0	34068	
7289	0	34108	
7290	0	34110	
7291	0	34120	
7292	0	34152	
7293	0	34180	
7294	0	34184	
7295	0	34184	
7296	0	34172	
7297	0	34192	
7298	0	34236	
7299	0	34296	
7300	0	34330	
7301	0	34368	
7302	0	34404	
7303	0	34392	
7304	0	34388	
7305	0	34392	
7306	0	34420	
7307	0	34432	
7308	0	34448	
7309	0	34508	
7310	0	34540	
7311	0	34512	
7312	0	34540	
7313	0	34544	
7314	0	34504	
7315	0	34516	
7316	0	34620	
7317	0	34704	
7318	0	34784	
7319	0	34800	
7320	0	34760	
7321	0	34794	
7322	0	34836	
7323	0	34852	
7324	0	34868	
7325	0	34862	
7326	0	34874	
7327	0	34872	
7328	0	34872	
7329	0	34856	
7330	0	34896	
7331	0	34960	
7332	0	35008	
7333	0	35080	
7334	0	35120	
7335	0	35140	
7336	0	35148	
7337	0	35140	
7338	0	35152	
7339	0	35172	
7340	0	35196	
7341	0	35220	
7342	0	35272	
7343	0	35324	
7344	0	35360	
7345	0	35384	
7346	0	35404	
7347	0	35476	
7348	0	35564	
7349	0	35640	
7350	0	35640	
7351	0	35692	
7352	0	35760	
7353	0	35824	
7354	0	35888	
7355	0	35936	
7356	0	36004	
7357	0	36052	
7358	0	36116	
7359	0	36160	
7360	0	36240	
7361	0	36324	
7362	0	36340	
7363	0	36384	
7364	0	36442	
7365	0	36516	
7366	0	36586	
7367	0	36680	
7368	0	36744	
7369	0	36856	
7370	0	36916	
7371	0	36976	
7372	0	37036	
7373	0	37100	
7374	0	37161	
7375	0	37204	
7376	0	37248	
7377	0	37304	
7378	0	37368	
7379	0	37460	
7380	0	37532	
7381	0	37604	
7382	0	37676	
7383	0	37764	
7384	0	37804	
7385	0	37848	
7386	0	37896	
7387	0	37944	
7388	0	37984	
7389	0	38036	
7390	0	38076	
7391	0	38128	
7392	0	38200	
7393	0	38208	
7394	0	38200	
7395	0	38248	
7396	0	38304	
7397	0	38356	
7398	0	38396	
7399	0	38414	
7400	0	38436	
7401	0	38420	
7402	0	38424	
7403	0	38456	
7404	0	38496	
7405	0	38544	
7406	0	38568	
7407	0	38560	
7408	0	38526	
7409	0	38476	
7410	0	38448	
7411	0	38432	
7412	0	38444	
7413	0	38460	
7414	0	38476	
7415	0	38496	
7416	0	38468	
7417	0	38444	
7418	0	38452	
7419	0	38452	
7420	0	38464	
7421	0	38432	
7422	0	38372	
7423	0	38376	
7424	0	38396	
7425	0	38324	
7426	0	38248	
7427	0	38168	
7428	0	38120	
7429	0	38064	
7430	0	38008	
7431	0	37940	
7432	0	37840	
7433	0	37752	
7434	0	37628	
7435	0	37476	
7436	0	37388	
7437	0	37280	
7438	0	37154	
7439	0	37008	
7440	0	36908	
7441	0	36824	
7442	0	36712	
7443	0	36590	
7444	0	36448	
7445	0	36272	
7446	0	36064	
7447	0	35864	
7448	0	35752	
7449	0	35652	
7450	0	35500	
7451	0	35316	
7452	0	35096	
7453	0	34872	
7454	0	34688	
7455	0	34508	
7456	0	34300	
7457	0	34080	
7458	0	33860	
7459	0	33672	
7460	0	33500	
7461	0	33360	
7462	0	33208	
7463	0	33028	
7464	0	32872	
7465	0	32708	
7466	0	32508	
7467	0	32336	
7468	0	32168	
7469	0	32024	
7470	0	31874	
7471	0	31744	
7472	0	31622	
7473	0	31520	
7474	0	31392	
7475	0	31266	
7476	0	31112	
7477	0	30964	
7478	0	30872	
7479	0	30776	
7480	0	30684	
7481	0	30560	
7482	0	30420	
7483	0	30324	
7484	0	30224	
7485	0	30152	
7486	0	30096	
7487	0	30064	
7488	0	29980	
7489	0	29884	
7490	0	29788	
7491	0	29676	
7492	0	29592	
7493	0	29540	
7494	0	29520	
7495	0	29516	
7496	0	29492	
7497	0	29432	
7498	0	29336	
7499	0	29269	
7500	0	29228	
7501	0	29212	
7502	0	29200	
7503	0	29176	
7504	0	29116	
7505	0	29080	
7506	0	29068	
7507	0	29032	
7508	0	29036	
7509	0	29066	
7510	0	29096	
7511	0	29112	
7512	0	29120	
7513	0	29104	
7514	0	29118	
7515	0	29124	
7516	0	29108	
7517	0	29064	
7518	0	29068	
7519	0	29088	
7520	0	29104	
7521	0	29120	
7522	0	29144	
7523	0	29164	
7524	0	29164	
7525	0	29208	
7526	0	29194	
7527	0	29220	
7528	0	29280	
7529	0	29334	
7530	0	29364	
7531	0	29388	
7532	0	29412	
7533	0	29412	
7534	0	29428	
7535	0	29444	
7536	0	29488	
7537	0	29504	
7538	0	29536	
7539	0	29536	
7540	0	29538	
7541	0	29560	
7542	0	29568	
7543	0	29616	
7544	0	29656	
7545	0	29680	
7546	0	29720	
7547	0	29752	
7548	0	29756	
7549	0	29760	
7550	0	29756	
7551	0	29758	
7552	0	29768	
7553	0	29796	
7554	0	29780	
7555	0	29768	
7556	0	29856	
7557	0	29920	
7558	0	29948	
7559	0	29964	
7560	0	30012	
7561	0	30028	
7562	0	30030	
7563	0	29978	
7564	0	29976	
7565	0	29992	
7566	0	30048	
7567	0	30072	
7568	0	30068	
7569	0	30076	
7570	0	30128	
7571	0	30184	
7572	0	30194	
7573	0	30208	
7574	0	30236	
7575	0	30308	
7576	0	30324	
7577	0	30324	
7578	0	30328	
7579	0	30312	
7580	0	30320	
7581	0	30368	
7582	0	30408	
7583	0	30400	
7584	0	30420	
7585	0	30472	
7586	0	30472	
7587	0	30476	
7588	0	30496	
7589	0	30524	
7590	0	30556	
7591	0	30580	
7592	0	30580	
7593	0	30608	
7594	0	30588	
7595	0	30568	
7596	0	30572	
7597	0	30584	
7598	0	30592	
7599	0	30628	
7600	0	30682	
7601	0	30688	
7602	0	30664	
7603	0	30652	
7604	0	30690	
7605	0	30692	
7606	0	30704	
7607	0	30744	
7608	0	30740	
7609	0	30728	
7610	0	30696	
7611	0	30728	
7612	0	30744	
7613	0	30768	
7614	0	30804	
7615	0	30820	
7616	0	30840	
7617	0	30860	
7618	0	30840	
7619	0	30848	
7620	0	30882	
7621	0	30852	
7622	0	30848	
7623	0	30904	
7624	0	30956	
7625	0	30944	
7626	0	30888	
7627	0	30828	
7628	0	30804	
7629	0	30804	
7630	0	30796	
7631	0	30764	
7632	0	30788	
7633	0	30848	
7634	0	30844	
7635	0	30824	
7636	0	30824	
7637	0	30856	
7638	0	30872	
7639	0	30880	
7640	0	30856	
7641	0	30836	
7642	0	30836	
7643	0	30800	
7644	0	30788	
7645	0	30832	
7646	0	30850	
7647	0	30844	
7648	0	30882	
7649	0	30956	
7650	0	31028	
7651	0	31068	
7652	0	31040	
7653	0	31026	
7654	0	31060	
7655	0	31082	
7656	0	31078	
7657	0	31040	
7658	0	30980	
7659	0	30934	
7660	0	30920	
7661	0	30908	
7662	0	30944	
7663	0	31004	
7664	0	31036	
7665	0	31048	
7666	0	31056	
7667	0	31056	
7668	0	31024	
7669	0	30996	
7670	0	31056	
7671	0	31116	
7672	0	31128	
7673	0	31148	
7674	0	31172	
7675	0	31208	
7676	0	31212	
7677	0	31236	
7678	0	31264	
7679	0	31300	
7680	0	31312	
7681	0	31308	
7682	0	31292	
7683	0	31256	
7684	0	31288	
7685	0	31308	
7686	0	31344	
7687	0	31340	
7688	0	31332	
7689	0	31344	
7690	0	31356	
7691	0	31368	
7692	0	31440	
7693	0	31472	
7694	0	31464	
7695	0	31456	
7696	0	31432	
7697	0	31440	
7698	0	31490	
7699	0	31528	
7700	0	31536	
7701	0	31540	
7702	0	31552	
7703	0	31560	
7704	0	31568	
7705	0	31576	
7706	0	31600	
7707	0	31680	
7708	0	31778	
7709	0	31812	
7710	0	31820	
7711	0	31848	
7712	0	31860	
7713	0	31904	
7714	0	31936	
7715	0	31988	
7716	0	32052	
7717	0	32108	
7718	0	32144	
7719	0	32196	
7720	0	32306	
7721	0	32372	
7722	0	32432	
7723	0	32432	
7724	0	32468	
7725	0	32520	
7726	0	32590	
7727	0	32656	
7728	0	32740	
7729	0	32832	
7730	0	32878	
7731	0	32916	
7732	0	32956	
7733	0	32960	
7734	0	32976	
7735	0	32984	
7736	0	33032	
7737	0	33100	
7738	0	33184	
7739	0	33316	
7740	0	33460	
7741	0	33612	
7742	0	33648	
7743	0	33664	
7744	0	33714	
7745	0	33804	
7746	0	33920	
7747	0	34018	
7748	0	34146	
7749	0	34256	
7750	0	34340	
7751	0	34384	
7752	0	34448	
7753	0	34536	
7754	0	34636	
7755	0	34754	
7756	0	34820	
7757	0	34868	
7758	0	34948	
7759	0	35000	
7760	0	35048	
7761	0	35068	
7762	0	35012	
7763	0	34916	
7764	0	34834	
7765	0	34816	
7766	0	34792	
7767	0	34772	
7768	0	34728	
7769	0	34648	
7770	0	34516	
7771	0	34388	
7772	0	34248	
7773	0	34116	
7774	0	33992	
7775	0	33852	
7776	0	33664	
7777	0	33448	
7778	0	33242	
7779	0	33076	
7780	0	32928	
7781	0	32808	
7782	0	32732	
7783	0	32660	
7784	0	32576	
7785	0	32516	
7786	0	32444	
7787	0	32378	
7788	0	32296	
7789	0	32218	
7790	0	32144	
7791	0	32064	
7792	0	31988	
7793	0	31925	
7794	0	31876	
7795	0	31860	
7796	0	31784	
7797	0	31720	
7798	0	31648	
7799	0	31540	
7800	0	31400	
7801	0	31264	
7802	0	31184	
7803	0	31136	
7804	0	31058	
7805	0	30964	
7806	0	30880	
7807	0	30872	
7808	0	30904	
7809	0	30924	
7810	0	30938	
7811	0	30944	
7812	0	31000	
7813	0	31034	
7814	0	31024	
7815	0	30984	
7816	0	30952	
7817	0	30974	
7818	0	31016	
7819	0	31076	
7820	0	31120	
7821	0	31120	
7822	0	31128	
7823	0	31156	
7824	0	31172	
7825	0	31176	
7826	0	31120	
7827	0	31092	
7828	0	31098	
7829	0	31120	
7830	0	31124	
7831	0	31136	
7832	0	31136	
7833	0	31152	
7834	0	31152	
7835	0	31160	
7836	0	31160	
7837	0	31160	
7838	0	31160	
7839	0	31164	
7840	0	31176	
7841	0	31188	
7842	0	31226	
7843	0	31236	
7844	0	31268	
7845	0	31296	
7846	0	31328	
7847	0	31396	
7848	0	31428	
7849	0	31388	
7850	0	31344	
7851	0	31340	
7852	0	31360	
7853	0	31402	
7854	0	31488	
7855	0	31504	
7856	0	31532	
7857	0	31552	
7858	0	31572	
7859	0	31598	
7860	0	31616	
7861	0	31620	
7862	0	31610	
7863	0	31544	
7864	0	31416	
7865	0	31216	
7866	0	30932	
7867	0	30592	
7868	0	30216	
7869	0	29798	
7870	0	29452	
7871	0	29226	
7872	0	29164	
7873	0	29336	
7874	0	29664	
7875	0	29984	
7876	0	30232	
7877	0	30496	
7878	0	30900	
7879	0	31368	
7880	0	31752	
7881	0	32034	
7882	0	32296	
7883	0	32492	
7884	0	32664	
7885	0	33016	
7886	0	33684	
7887	0	34564	
7888	0	35716	
7889	0	37220	
7890	0	39068	
7891	0	41140	
7892	0	43424	
7893	0	46064	
7894	0	49088	
7895	0	52020	
7896	0	54408	
7897	0	56312	
7898	0	58040	
7899	0	59732	
7900	0	61168	
7901	0	62272	
7902	0	63000	
7903	0	63064	
7904	0	62496	
7905	0	61432	
7906	0	59964	
7907	0	58224	
7908	0	56172	
7909	0	53996	
7910	0	51692	
7911	0	49340	
7912	0	46936	
7913	0	44372	
7914	0	41628	
7915	0	38820	
7916	0	35984	
7917	0	33232	
7918	0	30636	
7919	0	28308	
7920	0	26304	
7921	0	24574	
7922	0	23066	
7923	0	21836	
7924	0	20892	
7925	0	20120	
7926	0	19432	
7927	0	18824	
7928	0	18306	
7929	0	17852	
7930	0	17482	
7931	0	17200	
7932	0	16968	
7933	0	16842	
7934	0	16868	
7935	0	16960	
7936	0	17168	
7937	0	17498	
7938	0	18036	
7939	0	18774	
7940	0	19592	
7941	0	20465	
7942	0	21344	
7943	0	22192	
7944	0	23024	
7945	0	23928	
7946	0	24904	
7947	0	25866	
7948	0	26696	
7949	0	27388	
7950	0	28004	
7951	0	28520	
7952	0	28956	
7953	0	29372	
7954	0	29760	
7955	0	30042	
7956	0	30288	
7957	0	30576	
7958	0	30806	
7959	0	30976	
7960	0	31132	
7961	0	31256	
7962	0	31336	
7963	0	31424	
7964	0	31512	
7965	0	31616	
7966	0	31672	
7967	0	31760	
7968	0	31856	
7969	0	31940	
7970	0	32004	
7971	0	32092	
7972	0	32200	
7973	0	32264	
7974	0	32336	
7975	0	32392	
7976	0	32448	
7977	0	32492	
7978	0	32556	
7979	0	32608	
7980	0	32668	
7981	0	32728	
7982	0	32812	
7983	0	32886	
7984	0	32924	
7985	0	32968	
7986	0	33044	
7987	0	33128	
7988	0	33184	
7989	0	33204	
7990	0	33236	
7991	0	33268	
7992	0	33308	
7993	0	33356	
7994	0	33392	
7995	0	33460	
7996	0	33496	
7997	0	33528	
7998	0	33560	
7999	0	33600	
8000	0	33632	
8001	0	33656	
8002	0	33714	
8003	0	33768	
8004	0	33788	
8005	0	33776	
8006	0	33816	
8007	0	33864	
8008	0	33912	
8009	0	33960	
8010	0	33980	
8011	0	34000	
8012	0	34048	
8013	0	34090	
8014	0	34112	
8015	0	34136	
8016	0	34160	
8017	0	34168	
8018	0	34212	
8019	0	34278	
8020	0	34296	
8021	0	34308	
8022	0	34328	
8023	0	34368	
8024	0	34416	
8025	0	34448	
8026	0	34488	
8027	0	34508	
8028	0	34488	
8029	0	34512	
8030	0	34544	
8031	0	34536	
8032	0	34560	
8033	0	34592	
8034	0	34640	
8035	0	34700	
8036	0	34752	
8037	0	34778	
8038	0	34772	
8039	0	34800	
8040	0	34848	
8041	0	34880	
8042	0	34908	
8043	0	34968	
8044	0	35016	
8045	0	35082	
8046	0	35130	
8047	0	35144	
8048	0	35192	
8049	0	35232	
8050	0	35248	
8051	0	35268	
8052	0	35304	
8053	0	35344	
8054	0	35392	
8055	0	35460	
8056	0	35492	
8057	0	35552	
8058	0	35616	
8059	0	35664	
8060	0	35668	
8061	0	35688	
8062	0	35728	
8063	0	35760	
8064	0	35776	
8065	0	35804	
8066	0	35872	
8067	0	35988	
8068	0	36040	
8069	0	36088	
8070	0	36132	
8071	0	36204	
8072	0	36264	
8073	0	36326	
8074	0	36392	
8075	0	36460	
8076	0	36540	
8077	0	36612	
8078	0	36664	
8079	0	36716	
8080	0	36744	
8081	0	36786	
8082	0	36868	
8083	0	36932	
8084	0	37008	
8085	0	37040	
8086	0	37064	
8087	0	37080	
8088	0	37128	
8089	0	37162	
8090	0	37208	
8091	0	37280	
8092	0	37342	
8093	0	37420	
8094	0	37488	
8095	0	37524	
8096	0	37516	
8097	0	37540	
8098	0	37584	
8099	0	37640	
8100	0	37692	
8101	0	37700	
8102	0	37724	
8103	0	37736	
8104	0	37792	
8105	0	37868	
8106	0	37914	
8107	0	37932	
8108	0	37952	
8109	0	37964	
8110	0	37964	
8111	0	37976	
8112	0	38000	
8113	0	38048	
8114	0	38064	
8115	0	38048	
8116	0	38084	
8117	0	38068	
8118	0	38080	
8119	0	38084	
8120	0	38112	
8121	0	38092	
8122	0	38096	
8123	0	38096	
8124	0	38084	
8125	0	38080	
8126	0	38080	
8127	0	38104	
8128	0	38112	
8129	0	38124	
8130	0	38128	
8131	0	38128	
8132	0	38124	
8133	0	38104	
8134	0	38076	
8135	0	38036	
8136	0	38000	
8137	0	37980	
8138	0	37936	
8139	0	37868	
8140	0	37832	
8141	0	37740	
8142	0	37644	
8143	0	37560	
8144	0	37468	
8145	0	37360	
8146	0	37276	
8147	0	37180	
8148	0	37048	
8149	0	36928	
8150	0	36832	
8151	0	36732	
8152	0	36616	
8153	0	36480	
8154	0	36344	
8155	0	36206	
8156	0	36068	
8157	0	35940	
8158	0	35788	
8159	0	35624	
8160	0	35456	
8161	0	35292	
8162	0	35128	
8163	0	34956	
8164	0	34800	
8165	0	34632	
8166	0	34448	
8167	0	34244	
8168	0	34104	
8169	0	33976	
8170	0	33816	
8171	0	33652	
8172	0	33462	
8173	0	33312	
8174	0	33152	
8175	0	32992	
8176	0	32856	
8177	0	32712	
8178	0	32554	
8179	0	32396	
8180	0	32256	
8181	0	32092	
8182	0	31944	
8183	0	31828	
8184	0	31708	
8185	0	31592	
8186	0	31472	
8187	0	31308	
8188	0	31156	
8189	0	31052	
8190	0	30948	
8191	0	30876	
8192	0	30804	
8193	0	30696	
8194	0	30596	
8195	0	30472	
8196	0	30376	
8197	0	30292	
8198	0	30232	
8199	0	30128	
8200	0	30060	
8201	0	29992	
8202	0	29928	
8203	0	29888	
8204	0	29832	
8205	0	29776	
8206	0	29728	
8207	0	29684	
8208	0	29628	
8209	0	29600	
8210	0	29564	
8211	0	29512	
8212	0	29484	
8213	0	29460	
8214	0	29444	
8215	0	29420	
8216	0	29396	
8217	0	29368	
8218	0	29364	
8219	0	29376	
8220	0	29360	
8221	0	29348	
8222	0	29340	
8223	0	29300	
8224	0	29312	
8225	0	29344	
8226	0	29344	
8227	0	29344	
8228	0	29344	
8229	0	29336	
8230	0	29332	
8231	0	29324	
8232	0	29316	
8233	0	29340	
8234	0	29344	
8235	0	29380	
8236	0	29412	
8237	0	29456	
8238	0	29480	
8239	0	29472	
8240	0	29480	
8241	0	29468	
8242	0	29472	
8243	0	29482	
8244	0	29504	
8245	0	29536	
8246	0	29552	
8247	0	29568	
8248	0	29568	
8249	0	29588	
8250	0	29608	
8251	0	29618	
8252	0	29632	
8253	0	29632	
8254	0	29628	
8255	0	29640	
8256	0	29660	
8257	0	29712	
8258	0	29732	
8259	0	29752	
8260	0	29768	
8261	0	29804	
8262	0	29816	
8263	0	29792	
8264	0	29804	
8265	0	29828	
8266	0	29852	
8267	0	29856	
8268	0	29860	
8269	0	29876	
8270	0	29892	
8271	0	29888	
8272	0	29920	
8273	0	29948	
8274	0	29962	
8275	0	29976	
8276	0	30000	
8277	0	30012	
8278	0	30028	
8279	0	30040	
8280	0	30068	
8281	0	30100	
8282	0	30136	
8283	0	30176	
8284	0	30176	
8285	0	30160	
8286	0	30152	
8287	0	30160	
8288	0	30232	
8289	0	30284	
8290	0	30268	
8291	0	30248	
8292	0	30264	
8293	0	30304	
8294	0	30368	
8295	0	30412	
8296	0	30452	
8297	0	30484	
8298	0	30484	
8299	0	30464	
8300	0	30470	
8301	0	30476	
8302	0	30484	
8303	0	30496	
8304	0	30516	
8305	0	30504	
8306	0	30520	
8307	0	30572	
8308	0	30564	
8309	0	30568	
8310	0	30588	
8311	0	30612	
8312	0	30598	
8313	0	30580	
8314	0	30556	
8315	0	30572	
8316	0	30604	
8317	0	30636	
8318	0	30632	
8319	0	30602	
8320	0	30588	
8321	0	30592	
8322	0	30592	
8323	0	30620	
8324	0	30640	
8325	0	30656	
8326	0	30656	
8327	0	30636	
8328	0	30608	
8329	0	30632	
8330	0	30644	
8331	0	30664	
8332	0	30660	
8333	0	30672	
8334	0	30656	
8335	0	30632	
8336	0	30620	
8337	0	30644	
8338	0	30652	
8339	0	30664	
8340	0	30708	
8341	0	30720	
8342	0	30736	
8343	0	30720	
8344	0	30692	
8345	0	30688	
8346	0	30688	
8347	0	30672	
8348	0	30680	
8349	0	30692	
8350	0	30692	
8351	0	30704	
8352	0	30724	
8353	0	30744	
8354	0	30754	
8355	0	30780	
8356	0	30796	
8357	0	30792	
8358	0	30800	
8359	0	30824	
8360	0	30848	
8361	0	30864	
8362	0	30864	
8363	0	30852	
8364	0	30860	
8365	0	30880	
8366	0	30896	
8367	0	30892	
8368	0	30888	
8369	0	30928	
8370	0	30952	
8371	0	30992	
8372	0	31002	
8373	0	31012	
8374	0	31012	
8375	0	31016	
8376	0	31024	
8377	0	31028	
8378	0	31038	
8379	0	31072	
8380	0	31104	
8381	0	31124	
8382	0	31116	
8383	0	31124	
8384	0	31140	
8385	0	31160	
8386	0	31213	
8387	0	31216	
8388	0	31176	
8389	0	31200	
8390	0	31232	
8391	0	31256	
8392	0	31248	
8393	0	31260	
8394	0	31280	
8395	0	31304	
8396	0	31328	
8397	0	31360	
8398	0	31412	
8399	0	31424	
8400	0	31464	
8401	0	31476	
8402	0	31464	
8403	0	31454	
8404	0	31456	
8405	0	31504	
8406	0	31516	
8407	0	31520	
8408	0	31576	
8409	0	31560	
8410	0	31532	
8411	0	31532	
8412	0	31580	
8413	0	31572	
8414	0	31580	
8415	0	31616	
8416	0	31652	
8417	0	31668	
8418	0	31704	
8419	0	31736	
8420	0	31764	
8421	0	31784	
8422	0	31772	
8423	0	31756	
8424	0	31764	
8425	0	31796	
8426	0	31832	
8427	0	31848	
8428	0	31888	
8429	0	31922	
8430	0	31998	
8431	0	32032	
8432	0	32064	
8433	0	32112	
8434	0	32136	
8435	0	32152	
8436	0	32196	
8437	0	32188	
8438	0	32208	
8439	0	32260	
8440	0	32334	
8441	0	32396	
8442	0	32452	
8443	0	32520	
8444	0	32628	
8445	0	32704	
8446	0	32736	
8447	0	32800	
8448	0	32872	
8449	0	32940	
8450	0	32992	
8451	0	33028	
8452	0	33088	
8453	0	33136	
8454	0	33196	
8455	0	33248	
8456	0	33284	
8457	0	33296	
8458	0	33316	
8459	0	33312	
8460	0	33312	
8461	0	33364	
8462	0	33446	
8463	0	33552	
8464	0	33688	
8465	0	33856	
8466	0	33984	
8467	0	34056	
8468	0	34048	
8469	0	34016	
8470	0	34032	
8471	0	34080	
8472	0	34152	
8473	0	34272	
8474	0	34376	
8475	0	34486	
8476	0	34564	
8477	0	34588	
8478	0	34664	
8479	0	34748	
8480	0	34824	
8481	0	34896	
8482	0	34916	
8483	0	34992	
8484	0	35040	
8485	0	35054	
8486	0	35028	
8487	0	35028	
8488	0	35000	
8489	0	34948	
8490	0	34904	
8491	0	34876	
8492	0	34824	
8493	0	34756	
8494	0	34700	
8495	0	34624	
8496	0	34540	
8497	0	34416	
8498	0	34256	
8499	0	34120	
8500	0	33988	
8501	0	33836	
8502	0	33700	
8503	0	33504	
8504	0	33316	
8505	0	33124	
8506	0	32904	
8507	0	32704	
8508	0	32608	
8509	0	32576	
8510	0	32552	
8511	0	32492	
8512	0	32440	
8513	0	32380	
8514	0	32332	
8515	0	32256	
8516	0	32180	
8517	0	32098	
8518	0	32016	
8519	0	31924	
8520	0	31860	
8521	0	31820	
8522	0	31776	
8523	0	31744	
8524	0	31668	
8525	0	31568	
8526	0	31488	
8527	0	31400	
8528	0	31272	
8529	0	31136	
8530	0	31020	
8531	0	30968	
8532	0	30920	
8533	0	30912	
8534	0	30916	
8535	0	30888	
8536	0	30912	
8537	0	30962	
8538	0	30988	
8539	0	31004	
8540	0	31012	
8541	0	31048	
8542	0	31090	
8543	0	31076	
8544	0	31052	
8545	0	31012	
8546	0	31012	
8547	0	31004	
8548	0	31000	
8549	0	31008	
8550	0	31016	
8551	0	31052	
8552	0	31076	
8553	0	31108	
8554	0	31092	
8555	0	31060	
8556	0	31048	
8557	0	31064	
8558	0	31042	
8559	0	31084	
8560	0	31168	
8561	0	31228	
8562	0	31232	
8563	0	31224	
8564	0	31244	
8565	0	31296	
8566	0	31316	
8567	0	31300	
8568	0	31292	
8569	0	31300	
8570	0	31316	
8571	0	31324	
8572	0	31340	
8573	0	31356	
8574	0	31368	
8575	0	31408	
8576	0	31440	
8577	0	31456	
8578	0	31456	
8579	0	31468	
8580	0	31476	
8581	0	31500	
8582	0	31560	
8583	0	31548	
8584	0	31556	
8585	0	31578	
8586	0	31616	
8587	0	31648	
8588	0	31584	
8589	0	31424	
8590	0	31176	
8591	0	30884	
8592	0	30496	
