# OpenSignals Text File Format. Version 1
# {"00:07:80:4B:15:F7": {"position": 0, "device": "biosignalsplux", "device name": "00:07:80:4B:15:F7", "device connection": "BTH00:07:80:4B:15:F7", "sampling rate": 1000, "resolution": [16], "firmware version": 775, "comments": "", "keywords": "", "mode": 0, "sync interval": 2, "date": "2023-4-27", "time": "17:19:42.507", "channels": [1], "sensor": ["ECG"], "label": ["CH1"], "column": ["nSeq", "DI", "CH1"], "special": [{"SpO2": [80, 40, 5, 4, 3, 3]}, {"SpO2": [80, 40, 5, 4, 3, 3]}, {"SpO2": [80, 40, 5, 4, 3, 3]}, {"SpO2": [80, 40, 5, 4, 3, 3]}, {"SpO2": [80, 40, 5, 4, 3, 3]}, {"SpO2": [80, 40, 5, 4, 3, 3]}, {"SpO2": [80, 40, 5, 4, 3, 3]}, {"SpO2": [80, 40, 5, 4, 3, 3]}], "digital IO": [0, 1], "sleeve color": ["green"], "convertedValues": 0}}
# EndOfHeader
0	0	32738	
1	0	32736	
2	0	32712	
3	0	32660	
4	0	32708	
5	0	32792	
6	0	32876	
7	0	32902	
8	0	32904	
9	0	32944	
10	0	32992	
11	0	33064	
12	0	33120	
13	0	33120	
14	0	33136	
15	0	33184	
16	0	33208	
17	0	33248	
18	0	33340	
19	0	33466	
20	0	33554	
21	0	33544	
22	0	33552	
23	0	33548	
24	0	33528	
25	0	33480	
26	0	33472	
27	0	33432	
28	0	33376	
29	0	33376	
30	0	33380	
31	0	33316	
32	0	33300	
33	0	33344	
34	0	33416	
35	0	33504	
36	0	33664	
37	0	33884	
38	0	34152	
39	0	34432	
40	0	34700	
41	0	34916	
42	0	35040	
43	0	35094	
44	0	35164	
45	0	35252	
46	0	35348	
47	0	35436	
48	0	35492	
49	0	35480	
50	0	35386	
51	0	35292	
52	0	35240	
53	0	35212	
54	0	35072	
55	0	34932	
56	0	34856	
57	0	34748	
58	0	34640	
59	0	34560	
60	0	34464	
61	0	34352	
62	0	34248	
63	0	34168	
64	0	34000	
65	0	33848	
66	0	33728	
67	0	33634	
68	0	33552	
69	0	33484	
70	0	33440	
71	0	33400	
72	0	33328	
73	0	33232	
74	0	33160	
75	0	33116	
76	0	33044	
77	0	32936	
78	0	32800	
79	0	32700	
80	0	32560	
81	0	32564	
82	0	32592	
83	0	32544	
84	0	32484	
85	0	32416	
86	0	32312	
87	0	32152	
88	0	32008	
89	0	31928	
90	0	31932	
91	0	32004	
92	0	32016	
93	0	31980	
94	0	31892	
95	0	31808	
96	0	31800	
97	0	31864	
98	0	31900	
99	0	31900	
100	0	31888	
101	0	31864	
102	0	31872	
103	0	31864	
104	0	31864	
105	0	31892	
106	0	31948	
107	0	31980	
108	0	31992	
109	0	32012	
110	0	32004	
111	0	31980	
112	0	31956	
113	0	32000	
114	0	32056	
115	0	32032	
116	0	32020	
117	0	32032	
118	0	32072	
119	0	32140	
120	0	32160	
121	0	32208	
122	0	32264	
123	0	32316	
124	0	32400	
125	0	32448	
126	0	32422	
127	0	32380	
128	0	32312	
129	0	32180	
130	0	31916	
131	0	31540	
132	0	31080	
133	0	30500	
134	0	29832	
135	0	29236	
136	0	28804	
137	0	28588	
138	0	28576	
139	0	28768	
140	0	29124	
141	0	29792	
142	0	30732	
143	0	31876	
144	0	33272	
145	0	34836	
146	0	36452	
147	0	38176	
148	0	40140	
149	0	42448	
150	0	45112	
151	0	48220	
152	0	51648	
153	0	55156	
154	0	58448	
155	0	61420	
156	0	63184	
157	0	64096	
158	0	64536	
159	0	64728	
160	0	64760	
161	0	64712	
162	0	64644	
163	0	64536	
164	0	64416	
165	0	64292	
166	0	64168	
167	0	61120	
168	0	55696	
169	0	51388	
170	0	47796	
171	0	44824	
172	0	42324	
173	0	40076	
174	0	38024	
175	0	36216	
176	0	34560	
177	0	33042	
178	0	31708	
179	0	30600	
180	0	29656	
181	0	29016	
182	0	28568	
183	0	28280	
184	0	28160	
185	0	28156	
186	0	28000	
187	0	27708	
188	0	27488	
189	0	27384	
190	0	27436	
191	0	27528	
192	0	27588	
193	0	27716	
194	0	27912	
195	0	28056	
196	0	28240	
197	0	28432	
198	0	28572	
199	0	28612	
200	0	28648	
201	0	28672	
202	0	28648	
203	0	28600	
204	0	28548	
205	0	28480	
206	0	28424	
207	0	28364	
208	0	28344	
209	0	28322	
210	0	28312	
211	0	28334	
212	0	28380	
213	0	28384	
214	0	28340	
215	0	28338	
216	0	28336	
217	0	28372	
218	0	28420	
219	0	28470	
220	0	28512	
221	0	28560	
222	0	28578	
223	0	28628	
224	0	28732	
225	0	28876	
226	0	28984	
227	0	29056	
228	0	29140	
229	0	29192	
230	0	29176	
231	0	29180	
232	0	29230	
233	0	29276	
234	0	29276	
235	0	29306	
236	0	29368	
237	0	29412	
238	0	29368	
239	0	29368	
240	0	29412	
241	0	29440	
242	0	29524	
243	0	29616	
244	0	29720	
245	0	29816	
246	0	29840	
247	0	29816	
248	0	29880	
249	0	29976	
250	0	30030	
251	0	30068	
252	0	30132	
253	0	30180	
254	0	30240	
255	0	30344	
256	0	30444	
257	0	30456	
258	0	30476	
259	0	30534	
260	0	30592	
261	0	30624	
262	0	30608	
263	0	30626	
264	0	30672	
265	0	30746	
266	0	30876	
267	0	30972	
268	0	30956	
269	0	30938	
270	0	30960	
271	0	31004	
272	0	31080	
273	0	31148	
274	0	31216	
275	0	31336	
276	0	31444	
277	0	31524	
278	0	31584	
279	0	31628	
280	0	31696	
281	0	31732	
282	0	31792	
283	0	31896	
284	0	31960	
285	0	32052	
286	0	32120	
287	0	32184	
288	0	32224	
289	0	32248	
290	0	32242	
291	0	32254	
292	0	32320	
293	0	32372	
294	0	32440	
295	0	32520	
296	0	32596	
297	0	32644	
298	0	32708	
299	0	32794	
300	0	32864	
301	0	32888	
302	0	32856	
303	0	32884	
304	0	32980	
305	0	33104	
306	0	33208	
307	0	33312	
308	0	33400	
309	0	33504	
310	0	33592	
311	0	33648	
312	0	33680	
313	0	33700	
314	0	33752	
315	0	33824	
316	0	33868	
317	0	33936	
318	0	34072	
319	0	34212	
320	0	34348	
321	0	34468	
322	0	34504	
323	0	34532	
324	0	34584	
325	0	34656	
326	0	34768	
327	0	34890	
328	0	34972	
329	0	35044	
330	0	35128	
331	0	35144	
332	0	35138	
333	0	35144	
334	0	35198	
335	0	35200	
336	0	35188	
337	0	35252	
338	0	35378	
339	0	35488	
340	0	35620	
341	0	35734	
342	0	35840	
343	0	35908	
344	0	35972	
345	0	36042	
346	0	36108	
347	0	36232	
348	0	36312	
349	0	36352	
350	0	36362	
351	0	36368	
352	0	36416	
353	0	36432	
354	0	36464	
355	0	36516	
356	0	36544	
357	0	36576	
358	0	36644	
359	0	36692	
360	0	36714	
361	0	36732	
362	0	36794	
363	0	36872	
364	0	36866	
365	0	36848	
366	0	36848	
367	0	36884	
368	0	36832	
369	0	36730	
370	0	36692	
371	0	36672	
372	0	36700	
373	0	36688	
374	0	36606	
375	0	36528	
376	0	36472	
377	0	36532	
378	0	36552	
379	0	36522	
380	0	36448	
381	0	36440	
382	0	36410	
383	0	36364	
384	0	36288	
385	0	36180	
386	0	36162	
387	0	36132	
388	0	36084	
389	0	36044	
390	0	35976	
391	0	35840	
392	0	35708	
393	0	35592	
394	0	35456	
395	0	35324	
396	0	35168	
397	0	34976	
398	0	34792	
399	0	34640	
400	0	34492	
401	0	34352	
402	0	34200	
403	0	34044	
404	0	33892	
405	0	33708	
406	0	33536	
407	0	33364	
408	0	33188	
409	0	33012	
410	0	32842	
411	0	32652	
412	0	32412	
413	0	32172	
414	0	31980	
415	0	31832	
416	0	31716	
417	0	31596	
418	0	31482	
419	0	31370	
420	0	31308	
421	0	31176	
422	0	31002	
423	0	30860	
424	0	30720	
425	0	30640	
426	0	30588	
427	0	30552	
428	0	30452	
429	0	30316	
430	0	30192	
431	0	30064	
432	0	29936	
433	0	29812	
434	0	29726	
435	0	29672	
436	0	29572	
437	0	29522	
438	0	29528	
439	0	29532	
440	0	29508	
441	0	29436	
442	0	29288	
443	0	29168	
444	0	29096	
445	0	29064	
446	0	29020	
447	0	28980	
448	0	28968	
449	0	28964	
450	0	28984	
451	0	29000	
452	0	29042	
453	0	29058	
454	0	29046	
455	0	29014	
456	0	28956	
457	0	28912	
458	0	28892	
459	0	28894	
460	0	28944	
461	0	29028	
462	0	29088	
463	0	29136	
464	0	29168	
465	0	29208	
466	0	29252	
467	0	29268	
468	0	29248	
469	0	29264	
470	0	29340	
471	0	29424	
472	0	29460	
473	0	29464	
474	0	29500	
475	0	29468	
476	0	29428	
477	0	29428	
478	0	29452	
479	0	29536	
480	0	29608	
481	0	29684	
482	0	29728	
483	0	29708	
484	0	29692	
485	0	29676	
486	0	29728	
487	0	29812	
488	0	29856	
489	0	29924	
490	0	29946	
491	0	29960	
492	0	29940	
493	0	29948	
494	0	29972	
495	0	29984	
496	0	30072	
497	0	30152	
498	0	30204	
499	0	30220	
500	0	30216	
501	0	30220	
502	0	30240	
503	0	30316	
504	0	30356	
505	0	30382	
506	0	30416	
507	0	30464	
508	0	30532	
509	0	30564	
510	0	30612	
511	0	30686	
512	0	30766	
513	0	30816	
514	0	30864	
515	0	30952	
516	0	30988	
517	0	30988	
518	0	31000	
519	0	31020	
520	0	31000	
521	0	30996	
522	0	30996	
523	0	31052	
524	0	31092	
525	0	31100	
526	0	31120	
527	0	31172	
528	0	31212	
529	0	31228	
530	0	31240	
531	0	31272	
532	0	31320	
533	0	31328	
534	0	31320	
535	0	31340	
536	0	31406	
537	0	31444	
538	0	31496	
539	0	31572	
540	0	31624	
541	0	31636	
542	0	31624	
543	0	31604	
544	0	31624	
545	0	31646	
546	0	31600	
547	0	31540	
548	0	31538	
549	0	31556	
550	0	31564	
551	0	31600	
552	0	31632	
553	0	31632	
554	0	31672	
555	0	31712	
556	0	31732	
557	0	31752	
558	0	31776	
559	0	31840	
560	0	31928	
561	0	31976	
562	0	32016	
563	0	32040	
564	0	32048	
565	0	32020	
566	0	31940	
567	0	31918	
568	0	31880	
569	0	31844	
570	0	31828	
571	0	31820	
572	0	31808	
573	0	31832	
574	0	31884	
575	0	31912	
576	0	31928	
577	0	31988	
578	0	32026	
579	0	32044	
580	0	32016	
581	0	31972	
582	0	31980	
583	0	32016	
584	0	32064	
585	0	32124	
586	0	32170	
587	0	32152	
588	0	32114	
589	0	32148	
590	0	32168	
591	0	32160	
592	0	32132	
593	0	32032	
594	0	31948	
595	0	31888	
596	0	31904	
597	0	31880	
598	0	31828	
599	0	31848	
600	0	31896	
601	0	31912	
602	0	31952	
603	0	31980	
604	0	31986	
605	0	31972	
606	0	31896	
607	0	31832	
608	0	31786	
609	0	31786	
610	0	31802	
611	0	31852	
612	0	31952	
613	0	32020	
614	0	32016	
615	0	31984	
616	0	31952	
617	0	31904	
618	0	31864	
619	0	31888	
620	0	31884	
621	0	31890	
622	0	31936	
623	0	31952	
624	0	31944	
625	0	31932	
626	0	31984	
627	0	31996	
628	0	31920	
629	0	31876	
630	0	31900	
631	0	31968	
632	0	32024	
633	0	32008	
634	0	31972	
635	0	32012	
636	0	32064	
637	0	32104	
638	0	32148	
639	0	32128	
640	0	32068	
641	0	32046	
642	0	32008	
643	0	31980	
644	0	32016	
645	0	32016	
646	0	32008	
647	0	31972	
648	0	31944	
649	0	31944	
650	0	31936	
651	0	31944	
652	0	31968	
653	0	31988	
654	0	32000	
655	0	32062	
656	0	32092	
657	0	32100	
658	0	32106	
659	0	32100	
660	0	32084	
661	0	32088	
662	0	32088	
663	0	32060	
664	0	32076	
665	0	32080	
666	0	32116	
667	0	32132	
668	0	32128	
669	0	32142	
670	0	32164	
671	0	32148	
672	0	32140	
673	0	32132	
674	0	32112	
675	0	32132	
676	0	32128	
677	0	32116	
678	0	32124	
679	0	32152	
680	0	32222	
681	0	32240	
682	0	32260	
683	0	32212	
684	0	32180	
685	0	32184	
686	0	32156	
687	0	32132	
688	0	32148	
689	0	32178	
690	0	32164	
691	0	32172	
692	0	32180	
693	0	32152	
694	0	32096	
695	0	32132	
696	0	32200	
697	0	32240	
698	0	32296	
699	0	32380	
700	0	32408	
701	0	32436	
702	0	32396	
703	0	32352	
704	0	32320	
705	0	32264	
706	0	32224	
707	0	32208	
708	0	32232	
709	0	32264	
710	0	32306	
711	0	32352	
712	0	32384	
713	0	32364	
714	0	32332	
715	0	32272	
716	0	32212	
717	0	32192	
718	0	32220	
719	0	32336	
720	0	32384	
721	0	32380	
722	0	32348	
723	0	32388	
724	0	32468	
725	0	32528	
726	0	32536	
727	0	32520	
728	0	32536	
729	0	32554	
730	0	32520	
731	0	32520	
732	0	32498	
733	0	32448	
734	0	32460	
735	0	32460	
736	0	32432	
737	0	32396	
738	0	32404	
739	0	32432	
740	0	32448	
741	0	32480	
742	0	32504	
743	0	32472	
744	0	32452	
745	0	32480	
746	0	32512	
747	0	32548	
748	0	32532	
749	0	32504	
750	0	32496	
751	0	32532	
752	0	32576	
753	0	32584	
754	0	32530	
755	0	32512	
756	0	32504	
757	0	32528	
758	0	32576	
759	0	32536	
760	0	32484	
761	0	32500	
762	0	32568	
763	0	32620	
764	0	32612	
765	0	32560	
766	0	32536	
767	0	32536	
768	0	32538	
769	0	32564	
770	0	32604	
771	0	32574	
772	0	32528	
773	0	32528	
774	0	32540	
775	0	32520	
776	0	32512	
777	0	32544	
778	0	32552	
779	0	32570	
780	0	32596	
781	0	32640	
782	0	32704	
783	0	32720	
784	0	32728	
785	0	32764	
786	0	32792	
787	0	32808	
788	0	32816	
789	0	32820	
790	0	32856	
791	0	32896	
792	0	32928	
793	0	32916	
794	0	32864	
795	0	32864	
796	0	32880	
797	0	32916	
798	0	32924	
799	0	32904	
800	0	32816	
801	0	32760	
802	0	32708	
803	0	32708	
804	0	32712	
805	0	32680	
806	0	32616	
807	0	32632	
808	0	32692	
809	0	32784	
810	0	32816	
811	0	32788	
812	0	32764	
813	0	32744	
814	0	32748	
815	0	32792	
816	0	32836	
817	0	32864	
818	0	32896	
819	0	32846	
820	0	32824	
821	0	32792	
822	0	32696	
823	0	32728	
824	0	32808	
825	0	32840	
826	0	32848	
827	0	32820	
828	0	32772	
829	0	32724	
830	0	32700	
831	0	32702	
832	0	32700	
833	0	32688	
834	0	32752	
835	0	32824	
836	0	32856	
837	0	32884	
838	0	32912	
839	0	32878	
840	0	32878	
841	0	32868	
842	0	32836	
843	0	32868	
844	0	32892	
845	0	32932	
846	0	32960	
847	0	33004	
848	0	33020	
849	0	33020	
850	0	33012	
851	0	33012	
852	0	32968	
853	0	32900	
854	0	32800	
855	0	32796	
856	0	32848	
857	0	32916	
858	0	32944	
859	0	32976	
860	0	33004	
861	0	33052	
862	0	33052	
863	0	33036	
864	0	33024	
865	0	32984	
866	0	33004	
867	0	33040	
868	0	33088	
869	0	33128	
870	0	33120	
871	0	33128	
872	0	33184	
873	0	33204	
874	0	33168	
875	0	33192	
876	0	33260	
877	0	33380	
878	0	33464	
879	0	33440	
880	0	33392	
881	0	33344	
882	0	33256	
883	0	33232	
884	0	33296	
885	0	33372	
886	0	33386	
887	0	33352	
888	0	33296	
889	0	33284	
890	0	33330	
891	0	33376	
892	0	33372	
893	0	33392	
894	0	33432	
895	0	33504	
896	0	33596	
897	0	33748	
898	0	33960	
899	0	34186	
900	0	34438	
901	0	34688	
902	0	34930	
903	0	35104	
904	0	35216	
905	0	35292	
906	0	35416	
907	0	35530	
908	0	35632	
909	0	35712	
910	0	35728	
911	0	35572	
912	0	35412	
913	0	35276	
914	0	35152	
915	0	35088	
916	0	35008	
917	0	34968	
918	0	34900	
919	0	34780	
920	0	34648	
921	0	34464	
922	0	34246	
923	0	34096	
924	0	33984	
925	0	33884	
926	0	33784	
927	0	33700	
928	0	33596	
929	0	33488	
930	0	33440	
931	0	33404	
932	0	33360	
933	0	33312	
934	0	33274	
935	0	33220	
936	0	33176	
937	0	33172	
938	0	33114	
939	0	33016	
940	0	32922	
941	0	32852	
942	0	32784	
943	0	32752	
944	0	32730	
945	0	32696	
946	0	32624	
947	0	32498	
948	0	32340	
949	0	32180	
950	0	32056	
951	0	31988	
952	0	32000	
953	0	32000	
954	0	31968	
955	0	31945	
956	0	31908	
957	0	31820	
958	0	31788	
959	0	31836	
960	0	31888	
961	0	31940	
962	0	32020	
963	0	32090	
964	0	32116	
965	0	32160	
966	0	32196	
967	0	32164	
968	0	32108	
969	0	32088	
970	0	32108	
971	0	32140	
972	0	32166	
973	0	32176	
974	0	32160	
975	0	32136	
976	0	32144	
977	0	32156	
978	0	32144	
979	0	32096	
980	0	32048	
981	0	32040	
982	0	32060	
983	0	32120	
984	0	32196	
985	0	32264	
986	0	32296	
987	0	32378	
988	0	32444	
989	0	32458	
990	0	32380	
991	0	32224	
992	0	32080	
993	0	31888	
994	0	31572	
995	0	31224	
996	0	30688	
997	0	30012	
998	0	29396	
999	0	28948	
1000	0	28704	
1001	0	28676	
1002	0	28840	
1003	0	29188	
1004	0	29754	
1005	0	30624	
1006	0	31696	
1007	0	32980	
1008	0	34380	
1009	0	35888	
1010	0	37468	
1011	0	39220	
1012	0	41392	
1013	0	43928	
1014	0	46826	
1015	0	50160	
1016	0	53624	
1017	0	56988	
1018	0	60236	
1019	0	62492	
1020	0	63692	
1021	0	64300	
1022	0	64548	
1023	0	64628	
1024	0	64612	
1025	0	64540	
1026	0	64440	
1027	0	64344	
1028	0	64216	
1029	0	64120	
1030	0	63800	
1031	0	57828	
1032	0	53236	
1033	0	49388	
1034	0	46228	
1035	0	43588	
1036	0	41228	
1037	0	39036	
1038	0	37136	
1039	0	35480	
1040	0	33984	
1041	0	32676	
1042	0	31556	
1043	0	30480	
1044	0	29672	
1045	0	29188	
1046	0	28868	
1047	0	28672	
1048	0	28532	
1049	0	28344	
1050	0	28052	
1051	0	27752	
1052	0	27568	
1053	0	27500	
1054	0	27436	
1055	0	27408	
1056	0	27488	
1057	0	27652	
1058	0	27832	
1059	0	28016	
1060	0	28144	
1061	0	28252	
1062	0	28338	
1063	0	28404	
1064	0	28436	
1065	0	28400	
1066	0	28356	
1067	0	28336	
1068	0	28340	
1069	0	28338	
1070	0	28292	
1071	0	28236	
1072	0	28240	
1073	0	28280	
1074	0	28308	
1075	0	28332	
1076	0	28368	
1077	0	28392	
1078	0	28372	
1079	0	28366	
1080	0	28404	
1081	0	28500	
1082	0	28594	
1083	0	28612	
1084	0	28576	
1085	0	28572	
1086	0	28602	
1087	0	28624	
1088	0	28728	
1089	0	28776	
1090	0	28828	
1091	0	28890	
1092	0	28930	
1093	0	28960	
1094	0	28968	
1095	0	29028	
1096	0	29128	
1097	0	29194	
1098	0	29228	
1099	0	29200	
1100	0	29244	
1101	0	29308	
1102	0	29340	
1103	0	29384	
1104	0	29484	
1105	0	29560	
1106	0	29614	
1107	0	29656	
1108	0	29716	
1109	0	29772	
1110	0	29856	
1111	0	29908	
1112	0	29960	
1113	0	29984	
1114	0	30032	
1115	0	30128	
1116	0	30196	
1117	0	30278	
1118	0	30316	
1119	0	30348	
1120	0	30360	
1121	0	30400	
1122	0	30464	
1123	0	30496	
1124	0	30508	
1125	0	30552	
1126	0	30580	
1127	0	30640	
1128	0	30720	
1129	0	30820	
1130	0	30948	
1131	0	31040	
1132	0	31104	
1133	0	31140	
1134	0	31144	
1135	0	31184	
1136	0	31212	
1137	0	31296	
1138	0	31400	
1139	0	31456	
1140	0	31514	
1141	0	31552	
1142	0	31612	
1143	0	31636	
1144	0	31648	
1145	0	31688	
1146	0	31744	
1147	0	31792	
1148	0	31828	
1149	0	31868	
1150	0	31896	
1151	0	31960	
1152	0	32002	
1153	0	32044	
1154	0	32068	
1155	0	32068	
1156	0	32132	
1157	0	32252	
1158	0	32368	
1159	0	32456	
1160	0	32548	
1161	0	32640	
1162	0	32732	
1163	0	32804	
1164	0	32856	
1165	0	32924	
1166	0	32984	
1167	0	33048	
1168	0	33112	
1169	0	33104	
1170	0	33128	
1171	0	33180	
1172	0	33216	
1173	0	33248	
1174	0	33328	
1175	0	33408	
1176	0	33500	
1177	0	33584	
1178	0	33728	
1179	0	33892	
1180	0	34024	
1181	0	34120	
1182	0	34184	
1183	0	34240	
1184	0	34264	
1185	0	34284	
1186	0	34368	
1187	0	34476	
1188	0	34568	
1189	0	34624	
1190	0	34680	
1191	0	34780	
1192	0	34856	
1193	0	34924	
1194	0	35000	
1195	0	35140	
1196	0	35260	
1197	0	35292	
1198	0	35330	
1199	0	35384	
1200	0	35474	
1201	0	35548	
1202	0	35648	
1203	0	35768	
1204	0	35824	
1205	0	35888	
1206	0	35916	
1207	0	35956	
1208	0	36032	
1209	0	36124	
1210	0	36216	
1211	0	36312	
1212	0	36388	
1213	0	36448	
1214	0	36506	
1215	0	36552	
1216	0	36652	
1217	0	36796	
1218	0	36912	
1219	0	37004	
1220	0	37032	
1221	0	37048	
1222	0	37072	
1223	0	37094	
1224	0	37152	
1225	0	37216	
1226	0	37248	
1227	0	37300	
1228	0	37314	
1229	0	37248	
1230	0	37176	
1231	0	37088	
1232	0	37024	
1233	0	37008	
1234	0	37020	
1235	0	37088	
1236	0	37068	
1237	0	37056	
1238	0	37032	
1239	0	36980	
1240	0	36940	
1241	0	36920	
1242	0	36968	
1243	0	37028	
1244	0	37000	
1245	0	36956	
1246	0	36904	
1247	0	36804	
1248	0	36696	
1249	0	36636	
1250	0	36600	
1251	0	36500	
1252	0	36424	
1253	0	36400	
1254	0	36364	
1255	0	36284	
1256	0	36172	
1257	0	36020	
1258	0	35836	
1259	0	35652	
1260	0	35484	
1261	0	35348	
1262	0	35188	
1263	0	34988	
1264	0	34792	
1265	0	34608	
1266	0	34428	
1267	0	34264	
1268	0	34056	
1269	0	33872	
1270	0	33656	
1271	0	33428	
1272	0	33196	
1273	0	33014	
1274	0	32824	
1275	0	32624	
1276	0	32428	
1277	0	32252	
1278	0	32060	
1279	0	31854	
1280	0	31660	
1281	0	31536	
1282	0	31468	
1283	0	31316	
1284	0	31172	
1285	0	31034	
1286	0	30912	
1287	0	30752	
1288	0	30572	
1289	0	30416	
1290	0	30216	
1291	0	30008	
1292	0	29920	
1293	0	29856	
1294	0	29756	
1295	0	29644	
1296	0	29520	
1297	0	29376	
1298	0	29228	
1299	0	29156	
1300	0	29176	
1301	0	29162	
1302	0	29096	
1303	0	29040	
1304	0	29020	
1305	0	28984	
1306	0	28896	
1307	0	28798	
1308	0	28736	
1309	0	28734	
1310	0	28700	
1311	0	28672	
1312	0	28660	
1313	0	28658	
1314	0	28672	
1315	0	28648	
1316	0	28600	
1317	0	28580	
1318	0	28624	
1319	0	28636	
1320	0	28640	
1321	0	28642	
1322	0	28672	
1323	0	28672	
1324	0	28672	
1325	0	28688	
1326	0	28724	
1327	0	28736	
1328	0	28692	
1329	0	28684	
1330	0	28704	
1331	0	28772	
1332	0	28792	
1333	0	28794	
1334	0	28808	
1335	0	28852	
1336	0	28940	
1337	0	28988	
1338	0	29068	
1339	0	29132	
1340	0	29148	
1341	0	29176	
1342	0	29196	
1343	0	29168	
1344	0	29084	
1345	0	29032	
1346	0	29004	
1347	0	29008	
1348	0	29020	
1349	0	29016	
1350	0	29068	
1351	0	29132	
1352	0	29216	
1353	0	29294	
1354	0	29376	
1355	0	29488	
1356	0	29568	
1357	0	29596	
1358	0	29572	
1359	0	29576	
1360	0	29596	
1361	0	29676	
1362	0	29788	
1363	0	29856	
1364	0	29914	
1365	0	29944	
1366	0	29936	
1367	0	29956	
1368	0	30004	
1369	0	30052	
1370	0	30100	
1371	0	30154	
1372	0	30144	
1373	0	30104	
1374	0	30068	
1375	0	30048	
1376	0	30076	
1377	0	30180	
1378	0	30240	
1379	0	30292	
1380	0	30376	
1381	0	30440	
1382	0	30496	
1383	0	30612	
1384	0	30696	
1385	0	30700	
1386	0	30676	
1387	0	30720	
1388	0	30784	
1389	0	30808	
1390	0	30792	
1391	0	30816	
1392	0	30832	
1393	0	30828	
1394	0	30844	
1395	0	30856	
1396	0	30876	
1397	0	30936	
1398	0	31004	
1399	0	31092	
1400	0	31152	
1401	0	31180	
1402	0	31232	
1403	0	31256	
1404	0	31240	
1405	0	31224	
1406	0	31220	
1407	0	31228	
1408	0	31234	
1409	0	31224	
1410	0	31240	
1411	0	31236	
1412	0	31286	
1413	0	31360	
1414	0	31430	
1415	0	31470	
1416	0	31472	
1417	0	31476	
1418	0	31496	
1419	0	31524	
1420	0	31540	
1421	0	31552	
1422	0	31584	
1423	0	31628	
1424	0	31620	
1425	0	31600	
1426	0	31588	
1427	0	31600	
1428	0	31624	
1429	0	31652	
1430	0	31656	
1431	0	31644	
1432	0	31628	
1433	0	31628	
1434	0	31608	
1435	0	31632	
1436	0	31672	
1437	0	31696	
1438	0	31704	
1439	0	31792	
1440	0	31876	
1441	0	31900	
1442	0	31896	
1443	0	31860	
1444	0	31840	
1445	0	31868	
1446	0	31900	
1447	0	31904	
1448	0	31868	
1449	0	31840	
1450	0	31820	
1451	0	31840	
1452	0	31876	
1453	0	31920	
1454	0	31960	
1455	0	31972	
1456	0	31952	
1457	0	31944	
1458	0	31896	
1459	0	31898	
1460	0	31888	
1461	0	31902	
1462	0	31920	
1463	0	31992	
1464	0	32032	
1465	0	32088	
1466	0	32120	
1467	0	32098	
1468	0	32040	
1469	0	32024	
1470	0	32010	
1471	0	32004	
1472	0	31984	
1473	0	31960	
1474	0	31988	
1475	0	32008	
1476	0	32036	
1477	0	32020	
1478	0	31972	
1479	0	31956	
1480	0	31980	
1481	0	31984	
1482	0	31934	
1483	0	31934	
1484	0	31978	
1485	0	31994	
1486	0	31960	
1487	0	31940	
1488	0	31916	
1489	0	31892	
1490	0	31900	
1491	0	31900	
1492	0	31906	
1493	0	31924	
1494	0	31948	
1495	0	31960	
1496	0	31968	
1497	0	32008	
1498	0	32056	
1499	0	32068	
1500	0	32058	
1501	0	32060	
1502	0	32064	
1503	0	32076	
1504	0	32096	
1505	0	32076	
1506	0	32056	
1507	0	32052	
1508	0	32072	
1509	0	32040	
1510	0	32008	
1511	0	32008	
1512	0	31996	
1513	0	31980	
1514	0	31976	
1515	0	31980	
1516	0	32000	
1517	0	32032	
1518	0	32084	
1519	0	32120	
1520	0	32108	
1521	0	32040	
1522	0	32064	
1523	0	32088	
1524	0	32084	
1525	0	32080	
1526	0	32072	
1527	0	32044	
1528	0	32052	
1529	0	32076	
1530	0	32140	
1531	0	32160	
1532	0	32196	
1533	0	32264	
1534	0	32292	
1535	0	32272	
1536	0	32263	
1537	0	32228	
1538	0	32160	
1539	0	32122	
1540	0	32172	
1541	0	32232	
1542	0	32216	
1543	0	32144	
1544	0	32164	
1545	0	32194	
1546	0	32176	
1547	0	32128	
1548	0	32122	
1549	0	32094	
1550	0	32092	
1551	0	32104	
1552	0	32140	
1553	0	32152	
1554	0	32228	
1555	0	32266	
1556	0	32220	
1557	0	32204	
1558	0	32208	
1559	0	32240	
1560	0	32188	
1561	0	32116	
1562	0	32152	
1563	0	32196	
1564	0	32224	
1565	0	32240	
1566	0	32256	
1567	0	32288	
1568	0	32328	
1569	0	32360	
1570	0	32344	
1571	0	32256	
1572	0	32216	
1573	0	32252	
1574	0	32296	
1575	0	32318	
1576	0	32306	
1577	0	32328	
1578	0	32360	
1579	0	32400	
1580	0	32408	
1581	0	32416	
1582	0	32366	
1583	0	32356	
1584	0	32436	
1585	0	32432	
1586	0	32384	
1587	0	32412	
1588	0	32482	
1589	0	32524	
1590	0	32524	
1591	0	32544	
1592	0	32586	
1593	0	32572	
1594	0	32552	
1595	0	32504	
1596	0	32496	
1597	0	32540	
1598	0	32520	
1599	0	32440	
1600	0	32440	
1601	0	32392	
1602	0	32388	
1603	0	32408	
1604	0	32480	
1605	0	32538	
1606	0	32624	
1607	0	32692	
1608	0	32680	
1609	0	32700	
1610	0	32656	
1611	0	32524	
1612	0	32436	
1613	0	32416	
1614	0	32404	
1615	0	32472	
1616	0	32548	
1617	0	32636	
1618	0	32724	
1619	0	32736	
1620	0	32712	
1621	0	32644	
1622	0	32556	
1623	0	32466	
1624	0	32456	
1625	0	32500	
1626	0	32560	
1627	0	32592	
1628	0	32660	
1629	0	32744	
1630	0	32712	
1631	0	32636	
1632	0	32644	
1633	0	32652	
1634	0	32648	
1635	0	32612	
1636	0	32568	
1637	0	32592	
1638	0	32616	
1639	0	32644	
1640	0	32696	
1641	0	32728	
1642	0	32732	
1643	0	32712	
1644	0	32656	
1645	0	32664	
1646	0	32744	
1647	0	32800	
1648	0	32796	
1649	0	32752	
1650	0	32736	
1651	0	32704	
1652	0	32660	
1653	0	32624	
1654	0	32644	
1655	0	32660	
1656	0	32652	
1657	0	32640	
1658	0	32652	
1659	0	32648	
1660	0	32628	
1661	0	32728	
1662	0	32886	
1663	0	32932	
1664	0	32948	
1665	0	32792	
1666	0	32688	
1667	0	32852	
1668	0	32992	
1669	0	33008	
1670	0	33032	
1671	0	33120	
1672	0	32968	
1673	0	32856	
1674	0	32776	
1675	0	32816	
1676	0	33056	
1677	0	32980	
1678	0	32864	
1679	0	32880	
1680	0	32940	
1681	0	33036	
1682	0	32960	
1683	0	32928	
1684	0	32972	
1685	0	32988	
1686	0	32960	
1687	0	32988	
1688	0	32932	
1689	0	32794	
1690	0	32706	
1691	0	32688	
1692	0	32632	
1693	0	32634	
1694	0	32632	
1695	0	32692	
1696	0	32736	
1697	0	32668	
1698	0	32616	
1699	0	32608	
1700	0	32648	
1701	0	32752	
1702	0	32816	
1703	0	32856	
1704	0	32944	
1705	0	32968	
1706	0	32968	
1707	0	32980	
1708	0	32952	
1709	0	32960	
1710	0	32960	
1711	0	32960	
1712	0	32992	
1713	0	33028	
1714	0	33048	
1715	0	33072	
1716	0	33064	
1717	0	33052	
1718	0	33030	
1719	0	32972	
1720	0	32936	
1721	0	32948	
1722	0	32960	
1723	0	32996	
1724	0	33032	
1725	0	33048	
1726	0	33036	
1727	0	33012	
1728	0	33032	
1729	0	33056	
1730	0	33036	
1731	0	32978	
1732	0	32964	
1733	0	33024	
1734	0	33028	
1735	0	33008	
1736	0	32946	
1737	0	32924	
1738	0	32936	
1739	0	32972	
1740	0	32988	
1741	0	33008	
1742	0	33064	
1743	0	33036	
1744	0	32960	
1745	0	32912	
1746	0	32956	
1747	0	32968	
1748	0	32936	
1749	0	32952	
1750	0	32928	
1751	0	32924	
1752	0	32936	
1753	0	32988	
1754	0	33056	
1755	0	33048	
1756	0	33004	
1757	0	33060	
1758	0	33072	
1759	0	33030	
1760	0	33048	
1761	0	33052	
1762	0	33068	
1763	0	33132	
1764	0	33160	
1765	0	33212	
1766	0	33244	
1767	0	33188	
1768	0	33172	
1769	0	33232	
1770	0	33272	
1771	0	33302	
1772	0	33368	
1773	0	33376	
1774	0	33284	
1775	0	33332	
1776	0	33480	
1777	0	33588	
1778	0	33752	
1779	0	33740	
1780	0	33616	
1781	0	33530	
1782	0	33560	
1783	0	33584	
1784	0	33572	
1785	0	33568	
1786	0	33544	
1787	0	33508	
1788	0	33520	
1789	0	33536	
1790	0	33540	
1791	0	33528	
1792	0	33512	
1793	0	33464	
1794	0	33448	
1795	0	33540	
1796	0	33708	
1797	0	33922	
1798	0	34232	
1799	0	34516	
1800	0	34720	
1801	0	34940	
1802	0	35152	
1803	0	35318	
1804	0	35468	
1805	0	35588	
1806	0	35768	
1807	0	35836	
1808	0	35824	
1809	0	35828	
1810	0	35776	
1811	0	35656	
1812	0	35468	
1813	0	35288	
1814	0	35160	
1815	0	35064	
1816	0	34928	
1817	0	34800	
1818	0	34656	
1819	0	34496	
1820	0	34320	
1821	0	34190	
1822	0	34084	
1823	0	34024	
1824	0	34032	
1825	0	33896	
1826	0	33806	
1827	0	33780	
1828	0	33728	
1829	0	33652	
1830	0	33612	
1831	0	33568	
1832	0	33544	
1833	0	33480	
1834	0	33384	
1835	0	33328	
1836	0	33298	
1837	0	33280	
1838	0	33256	
1839	0	33184	
1840	0	33064	
1841	0	32928	
1842	0	32852	
1843	0	32796	
1844	0	32664	
1845	0	32564	
1846	0	32496	
1847	0	32448	
1848	0	32424	
1849	0	32400	
1850	0	32252	
1851	0	32148	
1852	0	32036	
1853	0	32028	
1854	0	32096	
1855	0	32224	
1856	0	32228	
1857	0	32292	
1858	0	32352	
1859	0	32380	
1860	0	32316	
1861	0	32272	
1862	0	32176	
1863	0	32112	
1864	0	32176	
1865	0	32212	
1866	0	32204	
1867	0	32226	
1868	0	32262	
1869	0	32224	
1870	0	32246	
1871	0	32228	
1872	0	32208	
1873	0	32148	
1874	0	32324	
1875	0	32472	
1876	0	32500	
1877	0	32512	
1878	0	32456	
1879	0	32352	
1880	0	32516	
1881	0	32640	
1882	0	32536	
1883	0	32440	
1884	0	32448	
1885	0	32578	
1886	0	32700	
1887	0	32732	
1888	0	32652	
1889	0	32504	
1890	0	32376	
1891	0	32180	
1892	0	31904	
1893	0	31444	
1894	0	30888	
1895	0	30152	
1896	0	29396	
1897	0	28864	
1898	0	28512	
1899	0	28346	
1900	0	28472	
1901	0	28856	
1902	0	29340	
1903	0	30088	
1904	0	31156	
1905	0	32380	
1906	0	33680	
1907	0	35088	
1908	0	36642	
1909	0	38304	
1910	0	40272	
1911	0	42680	
1912	0	45344	
1913	0	48420	
1914	0	51820	
1915	0	55288	
1916	0	58600	
1917	0	61472	
1918	0	63124	
1919	0	63952	
1920	0	64368	
1921	0	64528	
1922	0	64528	
1923	0	64480	
1924	0	64400	
1925	0	64300	
1926	0	64192	
1927	0	64076	
1928	0	63936	
1929	0	61812	
1930	0	56264	
1931	0	51992	
1932	0	48444	
1933	0	45472	
1934	0	43018	
1935	0	40720	
1936	0	38600	
1937	0	36788	
1938	0	35136	
1939	0	33740	
1940	0	32436	
1941	0	31328	
1942	0	30344	
1943	0	29632	
1944	0	29112	
1945	0	28764	
1946	0	28536	
1947	0	28364	
1948	0	28116	
1949	0	27842	
1950	0	27620	
1951	0	27412	
1952	0	27344	
1953	0	27412	
1954	0	27492	
1955	0	27588	
1956	0	27660	
1957	0	27832	
1958	0	28004	
1959	0	28148	
1960	0	28260	
1961	0	28336	
1962	0	28366	
1963	0	28388	
1964	0	28376	
1965	0	28408	
1966	0	28402	
1967	0	28416	
1968	0	28416	
1969	0	28396	
1970	0	28460	
1971	0	28492	
1972	0	28448	
1973	0	28408	
1974	0	28352	
1975	0	28368	
1976	0	28376	
1977	0	28380	
1978	0	28472	
1979	0	28612	
1980	0	28690	
1981	0	28696	
1982	0	28698	
1983	0	28712	
1984	0	28768	
1985	0	28834	
1986	0	28808	
1987	0	28864	
1988	0	28968	
1989	0	29000	
1990	0	28990	
1991	0	28842	
1992	0	28800	
1993	0	29076	
1994	0	29248	
1995	0	29184	
1996	0	29092	
1997	0	29024	
1998	0	29056	
1999	0	29170	
2000	0	29332	
2001	0	29440	
2002	0	29458	
2003	0	29452	
2004	0	29412	
2005	0	29424	
2006	0	29536	
2007	0	29624	
2008	0	29648	
2009	0	29700	
2010	0	29760	
2011	0	29774	
2012	0	29872	
2013	0	29896	
2014	0	30012	
2015	0	30124	
2016	0	30156	
2017	0	30188	
2018	0	30300	
2019	0	30376	
2020	0	30304	
2021	0	30264	
2022	0	30382	
2023	0	30584	
2024	0	30680	
2025	0	30744	
2026	0	30752	
2027	0	30720	
2028	0	30728	
2029	0	30744	
2030	0	30824	
2031	0	30924	
2032	0	31000	
2033	0	31080	
2034	0	31128	
2035	0	31168	
2036	0	31232	
2037	0	31328	
2038	0	31404	
2039	0	31466	
2040	0	31472	
2041	0	31536	
2042	0	31660	
2043	0	31756	
2044	0	31768	
2045	0	31688	
2046	0	31704	
2047	0	31840	
2048	0	31900	
2049	0	32000	
2050	0	32072	
2051	0	32148	
2052	0	32156	
2053	0	32172	
2054	0	32226	
2055	0	32288	
2056	0	32348	
2057	0	32400	
2058	0	32492	
2059	0	32512	
2060	0	32508	
2061	0	32548	
2062	0	32546	
2063	0	32596	
2064	0	32656	
2065	0	32744	
2066	0	32912	
2067	0	33080	
2068	0	33058	
2069	0	32988	
2070	0	32972	
2071	0	33084	
2072	0	33124	
2073	0	33120	
2074	0	33256	
2075	0	33500	
2076	0	33600	
2077	0	33740	
2078	0	33804	
2079	0	33928	
2080	0	34004	
2081	0	34004	
2082	0	34036	
2083	0	34248	
2084	0	34362	
2085	0	34380	
2086	0	34372	
2087	0	34408	
2088	0	34428	
2089	0	34588	
2090	0	34970	
2091	0	35068	
2092	0	34916	
2093	0	34810	
2094	0	34808	
2095	0	34920	
2096	0	35052	
2097	0	35128	
2098	0	35216	
2099	0	35360	
2100	0	35536	
2101	0	35676	
2102	0	35804	
2103	0	35852	
2104	0	35832	
2105	0	35832	
2106	0	35936	
2107	0	36076	
2108	0	36244	
2109	0	36314	
2110	0	36384	
2111	0	36440	
2112	0	36416	
2113	0	36492	
2114	0	36676	
2115	0	36888	
2116	0	37048	
2117	0	37172	
2118	0	37324	
2119	0	37320	
2120	0	37216	
2121	0	37146	
2122	0	37064	
2123	0	37160	
2124	0	37284	
2125	0	37364	
2126	0	37400	
2127	0	37496	
2128	0	37568	
2129	0	37552	
2130	0	37548	
2131	0	37568	
2132	0	37552	
2133	0	37524	
2134	0	37512	
2135	0	37520	
2136	0	37492	
2137	0	37460	
2138	0	37400	
2139	0	37368	
2140	0	37388	
2141	0	37348	
2142	0	37300	
2143	0	37264	
2144	0	37188	
2145	0	37116	
2146	0	37112	
2147	0	37124	
2148	0	37084	
2149	0	36984	
2150	0	36928	
2151	0	36928	
2152	0	36916	
2153	0	36844	
2154	0	36720	
2155	0	36576	
2156	0	36452	
2157	0	36344	
2158	0	36176	
2159	0	35992	
2160	0	35802	
2161	0	35544	
2162	0	35408	
2163	0	35244	
2164	0	35052	
2165	0	34924	
2166	0	34844	
2167	0	34632	
2168	0	34404	
2169	0	34148	
2170	0	33900	
2171	0	33672	
2172	0	33424	
2173	0	33212	
2174	0	33006	
2175	0	32860	
2176	0	32636	
2177	0	32268	
2178	0	32060	
2179	0	31992	
2180	0	31828	
2181	0	31584	
2182	0	31360	
2183	0	31132	
2184	0	30928	
2185	0	30778	
2186	0	30608	
2187	0	30412	
2188	0	30152	
2189	0	29936	
2190	0	29868	
2191	0	29792	
2192	0	29700	
2193	0	29600	
2194	0	29472	
2195	0	29336	
2196	0	29104	
2197	0	29020	
2198	0	28996	
2199	0	28932	
2200	0	28870	
2201	0	28844	
2202	0	28808	
2203	0	28764	
2204	0	28700	
2205	0	28640	
2206	0	28564	
2207	0	28430	
2208	0	28274	
2209	0	28196	
2210	0	28208	
2211	0	28136	
2212	0	28088	
2213	0	28072	
2214	0	28060	
2215	0	28056	
2216	0	28064	
2217	0	28080	
2218	0	28104	
2219	0	28190	
2220	0	28252	
2221	0	28286	
2222	0	28312	
2223	0	28328	
2224	0	28392	
2225	0	28364	
2226	0	28332	
2227	0	28338	
2228	0	28432	
2229	0	28472	
2230	0	28476	
2231	0	28452	
2232	0	28536	
2233	0	28600	
2234	0	28616	
2235	0	28480	
2236	0	28436	
2237	0	28480	
2238	0	28522	
2239	0	28556	
2240	0	28588	
2241	0	28644	
2242	0	28736	
2243	0	28788	
2244	0	28784	
2245	0	28736	
2246	0	28734	
2247	0	28736	
2248	0	28768	
2249	0	28856	
2250	0	28960	
2251	0	29068	
2252	0	29148	
2253	0	29064	
2254	0	28972	
2255	0	28972	
2256	0	29072	
2257	0	29208	
2258	0	29216	
2259	0	29224	
2260	0	29260	
2261	0	29328	
2262	0	29360	
2263	0	29416	
2264	0	29464	
2265	0	29504	
2266	0	29584	
2267	0	29660	
2268	0	29760	
2269	0	29774	
2270	0	29752	
2271	0	29716	
2272	0	29612	
2273	0	29530	
2274	0	29552	
2275	0	29622	
2276	0	29720	
2277	0	29784	
2278	0	29904	
2279	0	29904	
2280	0	29940	
2281	0	30036	
2282	0	30088	
2283	0	30104	
2284	0	30112	
2285	0	30092	
2286	0	30184	
2287	0	30304	
2288	0	30300	
2289	0	30344	
2290	0	30486	
2291	0	30656	
2292	0	30676	
2293	0	30640	
2294	0	30696	
2295	0	30780	
2296	0	30762	
2297	0	30784	
2298	0	30812	
2299	0	30846	
2300	0	30916	
2301	0	30936	
2302	0	30920	
2303	0	30892	
2304	0	30898	
2305	0	30876	
2306	0	30864	
2307	0	30904	
2308	0	30936	
2309	0	30944	
2310	0	30892	
2311	0	30884	
2312	0	30972	
2313	0	31060	
2314	0	31136	
2315	0	31184	
2316	0	31252	
2317	0	31308	
2318	0	31400	
2319	0	31464	
2320	0	31500	
2321	0	31528	
2322	0	31532	
2323	0	31524	
2324	0	31576	
2325	0	31640	
2326	0	31662	
2327	0	31632	
2328	0	31576	
2329	0	31448	
2330	0	31344	
2331	0	31336	
2332	0	31428	
2333	0	31428	
2334	0	31488	
2335	0	31552	
2336	0	31648	
2337	0	31700	
2338	0	31652	
2339	0	31624	
2340	0	31624	
2341	0	31650	
2342	0	31736	
2343	0	31792	
2344	0	31756	
2345	0	31736	
2346	0	31724	
2347	0	31776	
2348	0	31816	
2349	0	31848	
2350	0	31828	
2351	0	31792	
2352	0	31736	
2353	0	31700	
2354	0	31688	
2355	0	31716	
2356	0	31750	
2357	0	31768	
2358	0	31760	
2359	0	31760	
2360	0	31752	
2361	0	31724	
2362	0	31692	
2363	0	31688	
2364	0	31700	
2365	0	31756	
2366	0	31840	
2367	0	31916	
2368	0	31988	
2369	0	32010	
2370	0	31968	
2371	0	31936	
2372	0	31956	
2373	0	31972	
2374	0	31952	
2375	0	31912	
2376	0	31941	
2377	0	32012	
2378	0	32078	
2379	0	32104	
2380	0	32072	
2381	0	32056	
2382	0	32084	
2383	0	32064	
2384	0	31916	
2385	0	31760	
2386	0	31872	
2387	0	31904	
2388	0	31828	
2389	0	31752	
2390	0	31660	
2391	0	31664	
2392	0	31756	
2393	0	31868	
2394	0	31968	
2395	0	31936	
2396	0	31900	
2397	0	31936	
2398	0	32004	
2399	0	31964	
2400	0	31910	
2401	0	31908	
2402	0	31936	
2403	0	31948	
2404	0	31940	
2405	0	32008	
2406	0	32012	
2407	0	31976	
2408	0	31968	
2409	0	31952	
2410	0	31948	
2411	0	31944	
2412	0	31924	
2413	0	31944	
2414	0	31920	
2415	0	31972	
2416	0	32016	
2417	0	32020	
2418	0	32052	
2419	0	32104	
2420	0	32084	
2421	0	32014	
2422	0	31924	
2423	0	31872	
2424	0	31840	
2425	0	31860	
2426	0	31920	
2427	0	32000	
2428	0	32020	
2429	0	31976	
2430	0	31988	
2431	0	31996	
2432	0	31980	
2433	0	31968	
2434	0	31948	
2435	0	31948	
2436	0	31968	
2437	0	32000	
2438	0	32076	
2439	0	32072	
2440	0	32034	
2441	0	32024	
2442	0	32032	
2443	0	32068	
2444	0	32120	
2445	0	32156	
2446	0	32176	
2447	0	32136	
2448	0	32100	
2449	0	32032	
2450	0	32032	
2451	0	32080	
2452	0	32112	
2453	0	32120	
2454	0	32068	
2455	0	32036	
2456	0	32096	
2457	0	32176	
2458	0	32224	
2459	0	32224	
2460	0	32104	
2461	0	32096	
2462	0	32252	
2463	0	32420	
2464	0	32404	
2465	0	32280	
2466	0	32132	
2467	0	32064	
2468	0	32048	
2469	0	32052	
2470	0	32028	
2471	0	32000	
2472	0	32024	
2473	0	31996	
2474	0	31980	
2475	0	32000	
2476	0	32048	
2477	0	32132	
2478	0	32206	
2479	0	32282	
2480	0	32344	
2481	0	32324	
2482	0	32352	
2483	0	32332	
2484	0	32260	
2485	0	32184	
2486	0	32212	
2487	0	32244	
2488	0	32280	
2489	0	32288	
2490	0	32320	
2491	0	32344	
2492	0	32340	
2493	0	32464	
2494	0	32480	
2495	0	32392	
2496	0	32332	
2497	0	32312	
2498	0	32348	
2499	0	32456	
2500	0	32468	
2501	0	32368	
2502	0	32260	
2503	0	32168	
2504	0	32124	
2505	0	32168	
2506	0	32244	
2507	0	32236	
2508	0	32160	
2509	0	32140	
2510	0	32180	
2511	0	32220	
2512	0	32284	
2513	0	32384	
2514	0	32500	
2515	0	32472	
2516	0	32408	
2517	0	32372	
2518	0	32384	
2519	0	32432	
2520	0	32452	
2521	0	32520	
2522	0	32594	
2523	0	32636	
2524	0	32620	
2525	0	32544	
2526	0	32514	
2527	0	32420	
2528	0	32360	
2529	0	32374	
2530	0	32384	
2531	0	32424	
2532	0	32460	
2533	0	32480	
2534	0	32474	
2535	0	32488	
2536	0	32484	
2537	0	32482	
2538	0	32488	
2539	0	32512	
2540	0	32532	
2541	0	32500	
2542	0	32528	
2543	0	32596	
2544	0	32644	
2545	0	32660	
2546	0	32672	
2547	0	32724	
2548	0	32640	
2549	0	32552	
2550	0	32490	
2551	0	32548	
2552	0	32584	
2553	0	32580	
2554	0	32554	
2555	0	32508	
2556	0	32456	
2557	0	32516	
2558	0	32616	
2559	0	32708	
2560	0	32768	
2561	0	32776	
2562	0	32778	
2563	0	32776	
2564	0	32700	
2565	0	32656	
2566	0	32580	
2567	0	32524	
2568	0	32552	
2569	0	32608	
2570	0	32672	
2571	0	32724	
2572	0	32704	
2573	0	32672	
2574	0	32660	
2575	0	32652	
2576	0	32656	
2577	0	32688	
2578	0	32722	
2579	0	32748	
2580	0	32756	
2581	0	32740	
2582	0	32776	
2583	0	32828	
2584	0	32888	
2585	0	32920	
2586	0	32904	
2587	0	32832	
2588	0	32764	
2589	0	32760	
2590	0	32756	
2591	0	32768	
2592	0	32824	
2593	0	32808	
2594	0	32756	
2595	0	32672	
2596	0	32616	
2597	0	32644	
2598	0	32704	
2599	0	32816	
2600	0	32864	
2601	0	32800	
2602	0	32792	
2603	0	32802	
2604	0	32904	
2605	0	32916	
2606	0	32960	
2607	0	32988	
2608	0	33008	
2609	0	32968	
2610	0	32874	
2611	0	32936	
2612	0	32932	
2613	0	32988	
2614	0	32976	
2615	0	32952	
2616	0	32980	
2617	0	32972	
2618	0	32928	
2619	0	32880	
2620	0	32844	
2621	0	32904	
2622	0	33012	
2623	0	33096	
2624	0	33112	
2625	0	33056	
2626	0	32996	
2627	0	32960	
2628	0	32972	
2629	0	32992	
2630	0	32992	
2631	0	32976	
2632	0	33016	
2633	0	33084	
2634	0	33146	
2635	0	33224	
2636	0	33224	
2637	0	33116	
2638	0	33080	
2639	0	33032	
2640	0	32968	
2641	0	32928	
2642	0	32872	
2643	0	32816	
2644	0	32860	
2645	0	32884	
2646	0	32860	
2647	0	32920	
2648	0	32996	
2649	0	33008	
2650	0	33040	
2651	0	33076	
2652	0	33080	
2653	0	33124	
2654	0	33168	
2655	0	33200	
2656	0	33192	
2657	0	33172	
2658	0	33192	
2659	0	33168	
2660	0	33168	
2661	0	33192	
2662	0	33194	
2663	0	33248	
2664	0	33296	
2665	0	33306	
2666	0	33304	
2667	0	33336	
2668	0	33408	
2669	0	33452	
2670	0	33444	
2671	0	33524	
2672	0	33600	
2673	0	33596	
2674	0	33572	
2675	0	33640	
2676	0	33788	
2677	0	33856	
2678	0	33802	
2679	0	33814	
2680	0	33812	
2681	0	33664	
2682	0	33536	
2683	0	33380	
2684	0	33272	
2685	0	33220	
2686	0	33224	
2687	0	33256	
2688	0	33296	
2689	0	33284	
2690	0	33372	
2691	0	33516	
2692	0	33664	
2693	0	33844	
2694	0	33994	
2695	0	34192	
2696	0	34452	
2697	0	34784	
2698	0	35116	
2699	0	35360	
2700	0	35556	
2701	0	35698	
2702	0	35824	
2703	0	35936	
2704	0	36008	
2705	0	35932	
2706	0	35776	
2707	0	35608	
2708	0	35584	
2709	0	35548	
2710	0	35480	
2711	0	35360	
2712	0	35196	
2713	0	35008	
2714	0	34796	
2715	0	34592	
2716	0	34376	
2717	0	34212	
2718	0	34096	
2719	0	34020	
2720	0	33940	
2721	0	33808	
2722	0	33696	
2723	0	33632	
2724	0	33644	
2725	0	33692	
2726	0	33752	
2727	0	33728	
2728	0	33666	
2729	0	33528	
2730	0	33468	
2731	0	33472	
2732	0	33464	
2733	0	33428	
2734	0	33382	
2735	0	33268	
2736	0	33100	
2737	0	32996	
2738	0	32956	
2739	0	32886	
2740	0	32792	
2741	0	32696	
2742	0	32588	
2743	0	32496	
2744	0	32356	
2745	0	32260	
2746	0	32172	
2747	0	32112	
2748	0	32096	
2749	0	32032	
2750	0	31962	
2751	0	31980	
2752	0	31984	
2753	0	31992	
2754	0	31976	
2755	0	32000	
2756	0	32036	
2757	0	32128	
2758	0	32180	
2759	0	32228	
2760	0	32236	
2761	0	32240	
2762	0	32228	
2763	0	32248	
2764	0	32276	
2765	0	32284	
2766	0	32352	
2767	0	32388	
2768	0	32356	
2769	0	32348	
2770	0	32332	
2771	0	32356	
2772	0	32428	
2773	0	32460	
2774	0	32484	
2775	0	32448	
2776	0	32432	
2777	0	32446	
2778	0	32428	
2779	0	32444	
2780	0	32484	
2781	0	32540	
2782	0	32580	
2783	0	32580	
2784	0	32576	
2785	0	32500	
2786	0	32312	
2787	0	32088	
2788	0	31776	
2789	0	31272	
2790	0	30696	
2791	0	29988	
2792	0	29318	
2793	0	28888	
2794	0	28708	
2795	0	28712	
2796	0	28916	
2797	0	29160	
2798	0	29800	
2799	0	30668	
2800	0	31698	
2801	0	32924	
2802	0	34352	
2803	0	35868	
2804	0	37532	
2805	0	39368	
2806	0	41588	
2807	0	44048	
2808	0	46892	
2809	0	50192	
2810	0	53696	
2811	0	57124	
2812	0	60352	
2813	0	62588	
2814	0	63768	
2815	0	64338	
2816	0	64608	
2817	0	64676	
2818	0	64672	
2819	0	64600	
2820	0	64488	
2821	0	64404	
2822	0	64288	
2823	0	64144	
2824	0	64024	
2825	0	59204	
2826	0	54364	
2827	0	50472	
2828	0	47156	
2829	0	44328	
2830	0	41852	
2831	0	39610	
2832	0	37728	
2833	0	36056	
2834	0	34536	
2835	0	33176	
2836	0	32012	
2837	0	31004	
2838	0	30228	
2839	0	29652	
2840	0	29228	
2841	0	28996	
2842	0	28820	
2843	0	28666	
2844	0	28332	
2845	0	27916	
2846	0	27580	
2847	0	27488	
2848	0	27480	
2849	0	27456	
2850	0	27472	
2851	0	27596	
2852	0	27764	
2853	0	27912	
2854	0	28056	
2855	0	28250	
2856	0	28304	
2857	0	28260	
2858	0	28232	
2859	0	28236	
2860	0	28240	
2861	0	28240	
2862	0	28248	
2863	0	28228	
2864	0	28152	
2865	0	28112	
2866	0	28122	
2867	0	28154	
2868	0	28224	
2869	0	28258	
2870	0	28272	
2871	0	28288	
2872	0	28312	
2873	0	28368	
2874	0	28436	
2875	0	28440	
2876	0	28444	
2877	0	28432	
2878	0	28484	
2879	0	28572	
2880	0	28608	
2881	0	28588	
2882	0	28612	
2883	0	28614	
2884	0	28704	
2885	0	28808	
2886	0	28924	
2887	0	28968	
2888	0	28960	
2889	0	28922	
2890	0	28980	
2891	0	29092	
2892	0	29148	
2893	0	29152	
2894	0	29168	
2895	0	29152	
2896	0	29172	
2897	0	29290	
2898	0	29388	
2899	0	29416	
2900	0	29448	
2901	0	29500	
2902	0	29568	
2903	0	29690	
2904	0	29790	
2905	0	29868	
2906	0	29932	
2907	0	29988	
2908	0	29978	
2909	0	29992	
2910	0	30092	
2911	0	30184	
2912	0	30208	
2913	0	30224	
2914	0	30276	
2915	0	30384	
2916	0	30452	
2917	0	30496	
2918	0	30584	
2919	0	30664	
2920	0	30664	
2921	0	30688	
2922	0	30736	
2923	0	30808	
2924	0	30880	
2925	0	30944	
2926	0	30976	
2927	0	31020	
2928	0	31058	
2929	0	31064	
2930	0	31060	
2931	0	31104	
2932	0	31168	
2933	0	31200	
2934	0	31248	
2935	0	31244	
2936	0	31292	
2937	0	31360	
2938	0	31436	
2939	0	31552	
2940	0	31608	
2941	0	31700	
2942	0	31794	
2943	0	31832	
2944	0	31840	
2945	0	31892	
2946	0	32004	
2947	0	32064	
2948	0	32036	
2949	0	32032	
2950	0	32112	
2951	0	32212	
2952	0	32272	
2953	0	32336	
2954	0	32420	
2955	0	32496	
2956	0	32576	
2957	0	32652	
2958	0	32696	
2959	0	32736	
2960	0	32756	
2961	0	32836	
2962	0	32928	
2963	0	33072	
2964	0	33098	
2965	0	33120	
2966	0	33252	
2967	0	33400	
2968	0	33436	
2969	0	33404	
2970	0	33408	
2971	0	33428	
2972	0	33516	
2973	0	33632	
2974	0	33680	
2975	0	33740	
2976	0	33816	
2977	0	33864	
2978	0	33948	
2979	0	34084	
2980	0	34208	
2981	0	34344	
2982	0	34528	
2983	0	34712	
2984	0	34732	
2985	0	34788	
2986	0	34918	
2987	0	35048	
2988	0	35092	
2989	0	35104	
2990	0	35204	
2991	0	35304	
2992	0	35328	
2993	0	35280	
2994	0	35520	
2995	0	35656	
2996	0	35764	
2997	0	35912	
2998	0	35948	
2999	0	36052	
3000	0	36132	
3001	0	36244	
3002	0	36400	
3003	0	36460	
3004	0	36508	
3005	0	36600	
3006	0	36624	
3007	0	36652	
3008	0	36804	
3009	0	36892	
3010	0	36880	
3011	0	36868	
3012	0	36978	
3013	0	37080	
3014	0	37184	
3015	0	37296	
3016	0	37300	
3017	0	37352	
3018	0	37516	
3019	0	37544	
3020	0	37580	
3021	0	37610	
3022	0	37672	
3023	0	37696	
3024	0	37736	
3025	0	37704	
3026	0	37600	
3027	0	37708	
3028	0	37820	
3029	0	37752	
3030	0	37668	
3031	0	37684	
3032	0	37704	
3033	0	37732	
3034	0	37740	
3035	0	37760	
3036	0	37712	
3037	0	37632	
3038	0	37580	
3039	0	37520	
3040	0	37488	
3041	0	37488	
3042	0	37492	
3043	0	37456	
3044	0	37428	
3045	0	37344	
3046	0	37228	
3047	0	37204	
3048	0	37212	
3049	0	37140	
3050	0	37020	
3051	0	36888	
3052	0	36700	
3053	0	36484	
3054	0	36300	
3055	0	36144	
3056	0	36028	
3057	0	35908	
3058	0	35792	
3059	0	35716	
3060	0	35562	
3061	0	35372	
3062	0	35116	
3063	0	34860	
3064	0	34636	
3065	0	34472	
3066	0	34312	
3067	0	34084	
3068	0	33832	
3069	0	33592	
3070	0	33260	
3071	0	32960	
3072	0	32757	
3073	0	32572	
3074	0	32372	
3075	0	32192	
3076	0	32020	
3077	0	31854	
3078	0	31682	
3079	0	31500	
3080	0	31344	
3081	0	31192	
3082	0	31064	
3083	0	30833	
3084	0	30568	
3085	0	30416	
3086	0	30308	
3087	0	30158	
3088	0	29964	
3089	0	29824	
3090	0	29712	
3091	0	29592	
3092	0	29460	
3093	0	29378	
3094	0	29256	
3095	0	29148	
3096	0	29092	
3097	0	29000	
3098	0	28864	
3099	0	28880	
3100	0	28848	
3101	0	28736	
3102	0	28572	
3103	0	28488	
3104	0	28420	
3105	0	28417	
3106	0	28436	
3107	0	28468	
3108	0	28484	
3109	0	28472	
3110	0	28476	
3111	0	28504	
3112	0	28472	
3113	0	28380	
3114	0	28364	
3115	0	28404	
3116	0	28420	
3117	0	28436	
3118	0	28448	
3119	0	28484	
3120	0	28540	
3121	0	28584	
3122	0	28636	
3123	0	28606	
3124	0	28580	
3125	0	28612	
3126	0	28620	
3127	0	28580	
3128	0	28588	
3129	0	28680	
3130	0	28760	
3131	0	28788	
3132	0	28784	
3133	0	28800	
3134	0	28808	
3135	0	28852	
3136	0	28896	
3137	0	28936	
3138	0	28900	
3139	0	28832	
3140	0	28842	
3141	0	28884	
3142	0	28958	
3143	0	28992	
3144	0	28940	
3145	0	28968	
3146	0	28992	
3147	0	29032	
3148	0	29072	
3149	0	29156	
3150	0	29188	
3151	0	29272	
3152	0	29322	
3153	0	29284	
3154	0	29280	
3155	0	29292	
3156	0	29408	
3157	0	29604	
3158	0	29700	
3159	0	29700	
3160	0	29708	
3161	0	29716	
3162	0	29716	
3163	0	29764	
3164	0	29808	
3165	0	29812	
3166	0	29852	
3167	0	29924	
3168	0	29932	
3169	0	29878	
3170	0	29866	
3171	0	29918	
3172	0	29984	
3173	0	29984	
3174	0	29940	
3175	0	29972	
3176	0	30046	
3177	0	30144	
3178	0	30266	
3179	0	30320	
3180	0	30308	
3181	0	30340	
3182	0	30372	
3183	0	30376	
3184	0	30448	
3185	0	30516	
3186	0	30624	
3187	0	30716	
3188	0	30770	
3189	0	30676	
3190	0	30648	
3191	0	30740	
3192	0	30756	
3193	0	30784	
3194	0	30812	
3195	0	30800	
3196	0	30878	
3197	0	30924	
3198	0	30972	
3199	0	30976	
3200	0	31020	
3201	0	31072	
3202	0	31090	
3203	0	31096	
3204	0	31100	
3205	0	31088	
3206	0	31068	
3207	0	31124	
3208	0	31248	
3209	0	31300	
3210	0	31332	
3211	0	31324	
3212	0	31264	
3213	0	31204	
3214	0	31220	
3215	0	31252	
3216	0	31248	
3217	0	31300	
3218	0	31348	
3219	0	31456	
3220	0	31544	
3221	0	31584	
3222	0	31596	
3223	0	31632	
3224	0	31632	
3225	0	31620	
3226	0	31612	
3227	0	31616	
3228	0	31605	
3229	0	31554	
3230	0	31536	
3231	0	31576	
3232	0	31610	
3233	0	31690	
3234	0	31768	
3235	0	31800	
3236	0	31816	
3237	0	31892	
3238	0	31904	
3239	0	31782	
3240	0	31688	
3241	0	31714	
3242	0	31780	
3243	0	31792	
3244	0	31800	
3245	0	31784	
3246	0	31768	
3247	0	31784	
3248	0	31844	
3249	0	31864	
3250	0	31852	
3251	0	31820	
3252	0	31808	
3253	0	31824	
3254	0	31852	
3255	0	31820	
3256	0	31744	
3257	0	31768	
3258	0	31824	
3259	0	31836	
3260	0	31876	
3261	0	31936	
3262	0	32004	
3263	0	31972	
3264	0	31904	
3265	0	31916	
3266	0	31948	
3267	0	32020	
3268	0	32040	
3269	0	32010	
3270	0	31964	
3271	0	31930	
3272	0	31906	
3273	0	31928	
3274	0	31968	
3275	0	31976	
3276	0	31960	
3277	0	31992	
3278	0	31992	
3279	0	31988	
3280	0	31956	
3281	0	31926	
3282	0	31912	
3283	0	31848	
3284	0	31794	
3285	0	31788	
3286	0	31840	
3287	0	31920	
3288	0	32032	
3289	0	32064	
3290	0	32056	
3291	0	32040	
3292	0	32040	
3293	0	32052	
3294	0	32068	
3295	0	32016	
3296	0	31962	
3297	0	31916	
3298	0	31876	
3299	0	31912	
3300	0	31952	
3301	0	31968	
3302	0	31928	
3303	0	31940	
3304	0	31984	
3305	0	32068	
3306	0	32160	
3307	0	32228	
3308	0	32140	
3309	0	32044	
3310	0	32000	
3311	0	32016	
3312	0	32060	
3313	0	32066	
3314	0	32064	
3315	0	32092	
3316	0	32096	
3317	0	32116	
3318	0	32132	
3319	0	32128	
3320	0	32140	
3321	0	32096	
3322	0	32048	
3323	0	32032	
3324	0	32032	
3325	0	32098	
3326	0	32168	
3327	0	32192	
3328	0	32200	
3329	0	32240	
3330	0	32264	
3331	0	32274	
3332	0	32280	
3333	0	32220	
3334	0	32168	
3335	0	32136	
3336	0	32016	
3337	0	31928	
3338	0	31908	
3339	0	31956	
3340	0	32076	
3341	0	32196	
3342	0	32232	
3343	0	32120	
3344	0	31996	
3345	0	31968	
3346	0	32020	
3347	0	32096	
3348	0	32144	
3349	0	32176	
3350	0	32236	
3351	0	32312	
3352	0	32328	
3353	0	32368	
3354	0	32380	
3355	0	32360	
3356	0	32368	
3357	0	32332	
3358	0	32296	
3359	0	32288	
3360	0	32304	
3361	0	32324	
3362	0	32288	
3363	0	32272	
3364	0	32304	
3365	0	32352	
3366	0	32364	
3367	0	32386	
3368	0	32408	
3369	0	32400	
3370	0	32412	
3371	0	32412	
3372	0	32400	
3373	0	32372	
3374	0	32328	
3375	0	32348	
3376	0	32362	
3377	0	32360	
3378	0	32352	
3379	0	32380	
3380	0	32408	
3381	0	32400	
3382	0	32385	
3383	0	32376	
3384	0	32388	
3385	0	32394	
3386	0	32392	
3387	0	32396	
3388	0	32360	
3389	0	32332	
3390	0	32372	
3391	0	32372	
3392	0	32324	
3393	0	32296	
3394	0	32320	
3395	0	32380	
3396	0	32376	
3397	0	32354	
3398	0	32340	
3399	0	32352	
3400	0	32368	
3401	0	32416	
3402	0	32436	
3403	0	32436	
3404	0	32452	
3405	0	32500	
3406	0	32532	
3407	0	32532	
3408	0	32522	
3409	0	32536	
3410	0	32486	
3411	0	32472	
3412	0	32456	
3413	0	32500	
3414	0	32522	
3415	0	32540	
3416	0	32564	
3417	0	32580	
3418	0	32584	
3419	0	32548	
3420	0	32512	
3421	0	32448	
3422	0	32432	
3423	0	32432	
3424	0	32432	
3425	0	32424	
3426	0	32336	
3427	0	32273	
3428	0	32272	
3429	0	32296	
3430	0	32376	
3431	0	32512	
3432	0	32676	
3433	0	32776	
3434	0	32800	
3435	0	32764	
3436	0	32748	
3437	0	32768	
3438	0	32802	
3439	0	32800	
3440	0	32768	
3441	0	32748	
3442	0	32688	
3443	0	32668	
3444	0	32740	
3445	0	32792	
3446	0	32780	
3447	0	32736	
3448	0	32752	
3449	0	32796	
3450	0	32800	
3451	0	32812	
3452	0	32768	
3453	0	32744	
3454	0	32736	
3455	0	32742	
3456	0	32736	
3457	0	32736	
3458	0	32712	
3459	0	32684	
3460	0	32636	
3461	0	32612	
3462	0	32572	
3463	0	32544	
3464	0	32564	
3465	0	32576	
3466	0	32560	
3467	0	32592	
3468	0	32648	
3469	0	32692	
3470	0	32704	
3471	0	32712	
3472	0	32736	
3473	0	32752	
3474	0	32756	
3475	0	32760	
3476	0	32720	
3477	0	32698	
3478	0	32724	
3479	0	32784	
3480	0	32820	
3481	0	32800	
3482	0	32772	
3483	0	32776	
3484	0	32816	
3485	0	32850	
3486	0	32808	
3487	0	32736	
3488	0	32672	
3489	0	32644	
3490	0	32624	
3491	0	32604	
3492	0	32600	
3493	0	32628	
3494	0	32632	
3495	0	32644	
3496	0	32688	
3497	0	32732	
3498	0	32792	
3499	0	32810	
3500	0	32812	
3501	0	32812	
3502	0	32832	
3503	0	32868	
3504	0	32924	
3505	0	32984	
3506	0	33032	
3507	0	33048	
3508	0	33072	
3509	0	33146	
3510	0	33204	
3511	0	33240	
3512	0	33260	
3513	0	33320	
3514	0	33372	
3515	0	33392	
3516	0	33380	
3517	0	33372	
3518	0	33372	
3519	0	33376	
3520	0	33356	
3521	0	33376	
3522	0	33380	
3523	0	33360	
3524	0	33348	
3525	0	33312	
3526	0	33280	
3527	0	33220	
3528	0	33128	
3529	0	33100	
3530	0	33116	
3531	0	33196	
3532	0	33312	
3533	0	33496	
3534	0	33688	
3535	0	33912	
3536	0	34256	
3537	0	34624	
3538	0	34940	
3539	0	35144	
3540	0	35228	
3541	0	35256	
3542	0	35296	
3543	0	35346	
3544	0	35400	
3545	0	35496	
3546	0	35572	
3547	0	35536	
3548	0	35440	
3549	0	35368	
3550	0	35272	
3551	0	35176	
3552	0	35092	
3553	0	35016	
3554	0	34928	
3555	0	34868	
3556	0	34760	
3557	0	34620	
3558	0	34420	
3559	0	34272	
3560	0	34208	
3561	0	34060	
3562	0	33864	
3563	0	33738	
3564	0	33708	
3565	0	33652	
3566	0	33490	
3567	0	33372	
3568	0	33300	
3569	0	33236	
3570	0	33200	
3571	0	33180	
3572	0	33184	
3573	0	33188	
3574	0	33200	
3575	0	33152	
3576	0	33076	
3577	0	32980	
3578	0	32860	
3579	0	32768	
3580	0	32668	
3581	0	32616	
3582	0	32584	
3583	0	32508	
3584	0	32448	
3585	0	32320	
3586	0	32208	
3587	0	32132	
3588	0	32040	
3589	0	32004	
3590	0	31960	
3591	0	31930	
3592	0	31922	
3593	0	31952	
3594	0	32000	
3595	0	31996	
3596	0	31968	
3597	0	31992	
3598	0	31996	
3599	0	31996	
3600	0	32044	
3601	0	32080	
3602	0	32100	
3603	0	32092	
3604	0	32040	
3605	0	32024	
3606	0	32064	
3607	0	32120	
3608	0	32116	
3609	0	32084	
3610	0	32076	
3611	0	32128	
3612	0	32120	
3613	0	32098	
3614	0	32114	
3615	0	32132	
3616	0	32160	
3617	0	32226	
3618	0	32308	
3619	0	32368	
3620	0	32416	
3621	0	32440	
3622	0	32476	
3623	0	32444	
3624	0	32364	
3625	0	32288	
3626	0	32196	
3627	0	32052	
3628	0	31828	
3629	0	31552	
3630	0	31116	
3631	0	30530	
3632	0	29800	
3633	0	29204	
3634	0	28820	
3635	0	28664	
3636	0	28768	
3637	0	29044	
3638	0	29506	
3639	0	30128	
3640	0	31008	
3641	0	32164	
3642	0	33544	
3643	0	35028	
3644	0	36612	
3645	0	38228	
3646	0	39964	
3647	0	42100	
3648	0	44592	
3649	0	47456	
3650	0	50768	
3651	0	54224	
3652	0	57472	
3653	0	60556	
3654	0	62672	
3655	0	63796	
3656	0	64324	
3657	0	64576	
3658	0	64640	
3659	0	64634	
3660	0	64572	
3661	0	64480	
3662	0	64360	
3663	0	64232	
3664	0	64104	
3665	0	62832	
3666	0	56880	
3667	0	52168	
3668	0	48276	
3669	0	44948	
3670	0	42208	
3671	0	39840	
3672	0	37656	
3673	0	35716	
3674	0	34008	
3675	0	32496	
3676	0	31056	
3677	0	29824	
3678	0	28836	
3679	0	28112	
3680	0	27718	
3681	0	27512	
3682	0	27480	
3683	0	27484	
3684	0	27420	
3685	0	27220	
3686	0	27080	
3687	0	27074	
3688	0	27056	
3689	0	27004	
3690	0	26928	
3691	0	26964	
3692	0	27128	
3693	0	27320	
3694	0	27536	
3695	0	27756	
3696	0	27960	
3697	0	28128	
3698	0	28280	
3699	0	28376	
3700	0	28378	
3701	0	28338	
3702	0	28240	
3703	0	28164	
3704	0	28056	
3705	0	27952	
3706	0	27856	
3707	0	27776	
3708	0	27748	
3709	0	27756	
3710	0	27716	
3711	0	27708	
3712	0	27772	
3713	0	27950	
3714	0	28110	
3715	0	28226	
3716	0	28360	
3717	0	28528	
3718	0	28704	
3719	0	28816	
3720	0	28876	
3721	0	28980	
3722	0	29068	
3723	0	29102	
3724	0	29112	
3725	0	29120	
3726	0	29144	
3727	0	29216	
3728	0	29304	
3729	0	29376	
3730	0	29428	
3731	0	29440	
3732	0	29498	
3733	0	29564	
3734	0	29592	
3735	0	29552	
3736	0	29536	
3737	0	29536	
3738	0	29572	
3739	0	29668	
3740	0	29760	
3741	0	29816	
3742	0	29880	
3743	0	29908	
3744	0	29952	
3745	0	30008	
3746	0	30080	
3747	0	30160	
3748	0	30176	
3749	0	30260	
3750	0	30362	
3751	0	30412	
3752	0	30468	
3753	0	30468	
3754	0	30440	
3755	0	30464	
3756	0	30492	
3757	0	30484	
3758	0	30512	
3759	0	30604	
3760	0	30760	
3761	0	30920	
3762	0	31034	
3763	0	31152	
3764	0	31264	
3765	0	31380	
3766	0	31384	
3767	0	31340	
3768	0	31316	
3769	0	31276	
3770	0	31268	
3771	0	31310	
3772	0	31380	
3773	0	31464	
3774	0	31536	
3775	0	31632	
3776	0	31712	
3777	0	31780	
3778	0	31820	
3779	0	31884	
3780	0	31984	
3781	0	32092	
3782	0	32172	
3783	0	32248	
3784	0	32360	
3785	0	32440	
3786	0	32416	
3787	0	32424	
3788	0	32416	
3789	0	32444	
3790	0	32484	
3791	0	32532	
3792	0	32616	
3793	0	32748	
3794	0	32860	
3795	0	32964	
3796	0	33068	
3797	0	33184	
3798	0	33240	
3799	0	33320	
3800	0	33358	
3801	0	33420	
3802	0	33484	
3803	0	33528	
3804	0	33528	
3805	0	33520	
3806	0	33492	
3807	0	33496	
3808	0	33564	
3809	0	33628	
3810	0	33730	
3811	0	33808	
3812	0	33904	
3813	0	34012	
3814	0	34128	
3815	0	34208	
3816	0	34240	
3817	0	34300	
3818	0	34392	
3819	0	34504	
3820	0	34628	
3821	0	34724	
3822	0	34808	
3823	0	34896	
3824	0	34996	
3825	0	35096	
3826	0	35208	
3827	0	35360	
3828	0	35496	
3829	0	35608	
3830	0	35652	
3831	0	35696	
3832	0	35728	
3833	0	35804	
3834	0	35888	
3835	0	35988	
3836	0	36096	
3837	0	36200	
3838	0	36346	
3839	0	36476	
3840	0	36632	
3841	0	36760	
3842	0	36860	
3843	0	36936	
3844	0	37028	
3845	0	37152	
3846	0	37216	
3847	0	37240	
3848	0	37276	
3849	0	37316	
3850	0	37344	
3851	0	37410	
3852	0	37504	
3853	0	37616	
3854	0	37732	
3855	0	37856	
3856	0	37890	
3857	0	37944	
3858	0	38012	
3859	0	38072	
3860	0	38104	
3861	0	38172	
3862	0	38240	
3863	0	38336	
3864	0	38426	
3865	0	38476	
3866	0	38472	
3867	0	38428	
3868	0	38392	
3869	0	38388	
3870	0	38384	
3871	0	38400	
3872	0	38424	
3873	0	38484	
3874	0	38508	
3875	0	38472	
3876	0	38448	
3877	0	38432	
3878	0	38384	
3879	0	38352	
3880	0	38348	
3881	0	38302	
3882	0	38248	
3883	0	38144	
3884	0	38048	
3885	0	37948	
3886	0	37860	
3887	0	37740	
3888	0	37648	
3889	0	37588	
3890	0	37524	
3891	0	37444	
3892	0	37360	
3893	0	37248	
3894	0	37124	
3895	0	36984	
3896	0	36840	
3897	0	36656	
3898	0	36476	
3899	0	36316	
3900	0	36152	
3901	0	35972	
3902	0	35752	
3903	0	35508	
3904	0	35272	
3905	0	35032	
3906	0	34804	
3907	0	34616	
3908	0	34388	
3909	0	34184	
3910	0	33968	
3911	0	33768	
3912	0	33516	
3913	0	33264	
3914	0	33056	
3915	0	32865	
3916	0	32648	
3917	0	32408	
3918	0	32176	
3919	0	31938	
3920	0	31772	
3921	0	31600	
3922	0	31428	
3923	0	31272	
3924	0	31092	
3925	0	30900	
3926	0	30688	
3927	0	30514	
3928	0	30352	
3929	0	30194	
3930	0	30038	
3931	0	29900	
3932	0	29784	
3933	0	29696	
3934	0	29648	
3935	0	29592	
3936	0	29520	
3937	0	29454	
3938	0	29298	
3939	0	29144	
3940	0	29004	
3941	0	28888	
3942	0	28808	
3943	0	28756	
3944	0	28720	
3945	0	28666	
3946	0	28604	
3947	0	28548	
3948	0	28516	
3949	0	28480	
3950	0	28408	
3951	0	28324	
3952	0	28292	
3953	0	28292	
3954	0	28264	
3955	0	28312	
3956	0	28320	
3957	0	28276	
3958	0	28228	
3959	0	28280	
3960	0	28324	
3961	0	28348	
3962	0	28364	
3963	0	28328	
3964	0	28336	
3965	0	28324	
3966	0	28288	
3967	0	28260	
3968	0	28350	
3969	0	28386	
3970	0	28428	
3971	0	28518	
3972	0	28592	
3973	0	28672	
3974	0	28748	
3975	0	28848	
3976	0	28856	
3977	0	28874	
3978	0	28876	
3979	0	28832	
3980	0	28808	
3981	0	28820	
3982	0	28852	
3983	0	28928	
3984	0	28992	
3985	0	29008	
3986	0	29045	
3987	0	29064	
3988	0	29032	
3989	0	29032	
3990	0	29104	
3991	0	29168	
3992	0	29188	
3993	0	29224	
3994	0	29244	
3995	0	29252	
3996	0	29288	
3997	0	29328	
3998	0	29376	
3999	0	29418	
4000	0	29476	
4001	0	29568	
4002	0	29594	
4003	0	29580	
4004	0	29564	
4005	0	29540	
4006	0	29514	
4007	0	29528	
4008	0	29560	
4009	0	29600	
4010	0	29604	
4011	0	29652	
4012	0	29676	
4013	0	29740	
4014	0	29848	
4015	0	29920	
4016	0	29934	
4017	0	29976	
4018	0	30024	
4019	0	30116	
4020	0	30188	
4021	0	30268	
4022	0	30308	
4023	0	30324	
4024	0	30336	
4025	0	30348	
4026	0	30388	
4027	0	30456	
4028	0	30476	
4029	0	30485	
4030	0	30490	
4031	0	30528	
4032	0	30564	
4033	0	30592	
4034	0	30704	
4035	0	30826	
4036	0	30912	
4037	0	30976	
4038	0	30956	
4039	0	30912	
4040	0	30830	
4041	0	30728	
4042	0	30702	
4043	0	30690	
4044	0	30684	
4045	0	30732	
4046	0	30804	
4047	0	30864	
4048	0	30880	
4049	0	30856	
4050	0	30848	
4051	0	30836	
4052	0	30836	
4053	0	30896	
4054	0	31024	
4055	0	31160	
4056	0	31306	
4057	0	31444	
4058	0	31528	
4059	0	31576	
4060	0	31588	
4061	0	31592	
4062	0	31556	
4063	0	31576	
4064	0	31608	
4065	0	31600	
4066	0	31552	
4067	0	31460	
4068	0	31400	
4069	0	31368	
4070	0	31412	
4071	0	31486	
4072	0	31528	
4073	0	31580	
4074	0	31616	
4075	0	31618	
4076	0	31628	
4077	0	31720	
4078	0	31822	
4079	0	31904	
4080	0	31912	
4081	0	31888	
4082	0	31868	
4083	0	31864	
4084	0	31856	
4085	0	31868	
4086	0	31884	
4087	0	31872	
4088	0	31820	
4089	0	31744	
4090	0	31684	
4091	0	31648	
4092	0	31636	
4093	0	31677	
4094	0	31744	
4095	0	31816	
4096	0	31884	
4097	0	31920	
4098	0	31960	
4099	0	31984	
4100	0	31976	
4101	0	31964	
4102	0	32008	
4103	0	31992	
4104	0	31960	
4105	0	31964	
4106	0	31960	
4107	0	31940	
4108	0	31924	
4109	0	31882	
4110	0	31844	
4111	0	31864	
4112	0	31944	
4113	0	31992	
4114	0	32004	
4115	0	32000	
4116	0	32002	
4117	0	31986	
4118	0	32004	
4119	0	32012	
4120	0	31964	
4121	0	31900	
4122	0	31873	
4123	0	31860	
4124	0	31936	
4125	0	32012	
4126	0	32052	
4127	0	32026	
4128	0	31992	
4129	0	31936	
4130	0	31884	
4131	0	31924	
4132	0	31972	
4133	0	32032	
4134	0	32120	
4135	0	32224	
4136	0	32248	
4137	0	32180	
4138	0	32116	
4139	0	32008	
4140	0	31956	
4141	0	31968	
4142	0	32034	
4143	0	32112	
4144	0	32100	
4145	0	32068	
4146	0	32034	
4147	0	31972	
4148	0	31896	
4149	0	31908	
4150	0	31972	
4151	0	32056	
4152	0	32104	
4153	0	32136	
4154	0	32158	
4155	0	32140	
4156	0	32108	
4157	0	32052	
4158	0	32040	
4159	0	31992	
4160	0	31984	
4161	0	31992	
4162	0	31988	
4163	0	32016	
4164	0	32060	
4165	0	32088	
4166	0	32092	
4167	0	32048	
4168	0	32024	
4169	0	32016	
4170	0	32024	
4171	0	32020	
4172	0	31998	
4173	0	31950	
4174	0	31948	
4175	0	31944	
4176	0	31936	
4177	0	31952	
4178	0	31944	
4179	0	32000	
4180	0	32084	
4181	0	32152	
4182	0	32172	
4183	0	32192	
4184	0	32234	
4185	0	32248	
4186	0	32236	
4187	0	32208	
4188	0	32156	
4189	0	32166	
4190	0	32128	
4191	0	32116	
4192	0	32120	
4193	0	32084	
4194	0	32028	
4195	0	32010	
4196	0	32052	
4197	0	32124	
4198	0	32164	
4199	0	32176	
4200	0	32162	
4201	0	32168	
4202	0	32184	
4203	0	32172	
4204	0	32196	
4205	0	32204	
4206	0	32216	
4207	0	32216	
4208	0	32240	
4209	0	32284	
4210	0	32296	
4211	0	32292	
4212	0	32256	
4213	0	32232	
4214	0	32220	
4215	0	32192	
4216	0	32168	
4217	0	32132	
4218	0	32122	
4219	0	32120	
4220	0	32128	
4221	0	32140	
4222	0	32140	
4223	0	32176	
4224	0	32196	
4225	0	32228	
4226	0	32272	
4227	0	32304	
4228	0	32352	
4229	0	32376	
4230	0	32380	
4231	0	32384	
4232	0	32416	
4233	0	32440	
4234	0	32482	
4235	0	32540	
4236	0	32584	
4237	0	32640	
4238	0	32700	
4239	0	32736	
4240	0	32672	
4241	0	32536	
4242	0	32376	
4243	0	32248	
4244	0	32184	
4245	0	32214	
4246	0	32268	
4247	0	32348	
4248	0	32424	
4249	0	32504	
4250	0	32534	
4251	0	32500	
4252	0	32472	
4253	0	32480	
4254	0	32512	
4255	0	32548	
4256	0	32568	
4257	0	32576	
4258	0	32596	
4259	0	32672	
4260	0	32748	
4261	0	32818	
4262	0	32872	
4263	0	32930	
4264	0	33008	
4265	0	33088	
4266	0	33120	
4267	0	33132	
4268	0	33188	
4269	0	33216	
4270	0	33220	
4271	0	33252	
4272	0	33322	
4273	0	33356	
4274	0	33356	
4275	0	33328	
4276	0	33272	
4277	0	33184	
4278	0	33096	
4279	0	33060	
4280	0	33016	
4281	0	33008	
4282	0	33020	
4283	0	33044	
4284	0	33100	
4285	0	33192	
4286	0	33376	
4287	0	33620	
4288	0	33976	
4289	0	34320	
4290	0	34586	
4291	0	34816	
4292	0	34952	
4293	0	35052	
4294	0	35188	
4295	0	35328	
4296	0	35496	
4297	0	35632	
4298	0	35682	
4299	0	35624	
4300	0	35460	
4301	0	35288	
4302	0	35120	
4303	0	35000	
4304	0	34954	
4305	0	34900	
4306	0	34794	
4307	0	34648	
4308	0	34464	
4309	0	34304	
4310	0	34176	
4311	0	34072	
4312	0	33904	
4313	0	33740	
4314	0	33584	
4315	0	33456	
4316	0	33372	
4317	0	33314	
4318	0	33306	
4319	0	33332	
4320	0	33364	
4321	0	33356	
4322	0	33364	
4323	0	33352	
4324	0	33320	
4325	0	33276	
4326	0	33208	
4327	0	33132	
4328	0	33032	
4329	0	32916	
4330	0	32768	
4331	0	32652	
4332	0	32588	
4333	0	32520	
4334	0	32440	
4335	0	32356	
4336	0	32256	
4337	0	32200	
4338	0	32160	
4339	0	32076	
4340	0	31908	
4341	0	31768	
4342	0	31716	
4343	0	31752	
4344	0	31840	
4345	0	31892	
4346	0	31904	
4347	0	31900	
4348	0	31896	
4349	0	31900	
4350	0	31924	
4351	0	31914	
4352	0	31904	
4353	0	31888	
4354	0	31900	
4355	0	31920	
4356	0	31954	
4357	0	31936	
4358	0	31872	
4359	0	31832	
4360	0	31848	
4361	0	31864	
4362	0	31880	
4363	0	31916	
4364	0	31980	
4365	0	32044	
4366	0	32096	
4367	0	32100	
4368	0	32072	
4369	0	32032	
4370	0	32048	
4371	0	32044	
4372	0	32056	
4373	0	32116	
4374	0	32196	
4375	0	32272	
4376	0	32300	
4377	0	32312	
4378	0	32282	
4379	0	32232	
4380	0	32144	
4381	0	31992	
4382	0	31784	
4383	0	31448	
4384	0	30936	
4385	0	30336	
4386	0	29704	
4387	0	29230	
4388	0	29024	
4389	0	29064	
4390	0	29216	
4391	0	29544	
4392	0	30116	
4393	0	30972	
4394	0	32056	
4395	0	33176	
4396	0	34384	
4397	0	35784	
4398	0	37444	
4399	0	39200	
4400	0	41184	
4401	0	43576	
4402	0	46532	
4403	0	49976	
4404	0	53488	
4405	0	56804	
4406	0	59972	
4407	0	62312	
4408	0	63540	
4409	0	64152	
4410	0	64432	
4411	0	64516	
4412	0	64518	
4413	0	64448	
4414	0	64348	
4415	0	64248	
4416	0	64128	
4417	0	61312	
4418	0	54996	
4419	0	48924	
4420	0	43672	
4421	0	39472	
4422	0	36308	
4423	0	33948	
4424	0	32150	
4425	0	30644	
4426	0	29388	
4427	0	28328	
4428	0	27292	
4429	0	26274	
4430	0	25364	
4431	0	24596	
4432	0	24088	
4433	0	23852	
4434	0	23876	
4435	0	24130	
4436	0	24446	
4437	0	24664	
4438	0	24796	
4439	0	24904	
4440	0	25068	
4441	0	25344	
4442	0	25742	
4443	0	26216	
4444	0	26688	
4445	0	27132	
4446	0	27532	
4447	0	27892	
4448	0	28264	
4449	0	28616	
4450	0	28948	
4451	0	29152	
4452	0	29308	
4453	0	29444	
4454	0	29612	
4455	0	29728	
4456	0	29784	
4457	0	29848	
4458	0	29918	
4459	0	29996	
4460	0	30028	
4461	0	30024	
4462	0	30004	
4463	0	29988	
4464	0	29956	
4465	0	29932	
4466	0	29964	
4467	0	30040	
4468	0	30120	
4469	0	30176	
4470	0	30232	
4471	0	30252	
4472	0	30248	
4473	0	30224	
4474	0	30236	
4475	0	30276	
4476	0	30304	
4477	0	30272	
4478	0	30300	
4479	0	30360	
4480	0	30396	
4481	0	30466	
4482	0	30528	
4483	0	30572	
4484	0	30622	
4485	0	30668	
4486	0	30748	
4487	0	30808	
4488	0	30816	
4489	0	30832	
4490	0	30848	
4491	0	30896	
4492	0	30952	
4493	0	31020	
4494	0	31120	
4495	0	31204	
4496	0	31304	
4497	0	31340	
4498	0	31276	
4499	0	31268	
4500	0	31264	
4501	0	31308	
4502	0	31404	
4503	0	31496	
4504	0	31540	
4505	0	31536	
4506	0	31562	
4507	0	31632	
4508	0	31736	
4509	0	31844	
4510	0	31880	
4511	0	31884	
4512	0	31920	
4513	0	31972	
4514	0	32016	
4515	0	32064	
4516	0	32132	
4517	0	32176	
4518	0	32248	
4519	0	32360	
4520	0	32416	
4521	0	32448	
4522	0	32544	
4523	0	32648	
4524	0	32652	
4525	0	32656	
4526	0	32644	
4527	0	32656	
4528	0	32652	
4529	0	32644	
4530	0	32644	
4531	0	32680	
4532	0	32770	
4533	0	32912	
4534	0	32988	
4535	0	33088	
4536	0	33160	
4537	0	33216	
4538	0	33292	
4539	0	33400	
4540	0	33464	
4541	0	33500	
4542	0	33500	
4543	0	33480	
4544	0	33528	
4545	0	33568	
4546	0	33592	
4547	0	33600	
4548	0	33638	
4549	0	33744	
4550	0	33804	
4551	0	33856	
4552	0	33848	
4553	0	33872	
4554	0	33972	
4555	0	34088	
4556	0	34216	
4557	0	34320	
4558	0	34412	
4559	0	34544	
4560	0	34612	
4561	0	34568	
4562	0	34496	
4563	0	34440	
4564	0	34496	
4565	0	34632	
4566	0	34784	
4567	0	34912	
4568	0	34956	
4569	0	34916	
4570	0	34888	
4571	0	34932	
4572	0	35048	
4573	0	35176	
4574	0	35288	
4575	0	35352	
4576	0	35444	
4577	0	35600	
4578	0	35808	
4579	0	36056	
4580	0	36304	
4581	0	36480	
4582	0	36540	
4583	0	36560	
4584	0	36568	
4585	0	36608	
4586	0	36736	
4587	0	36856	
4588	0	36932	
4589	0	36948	
4590	0	36980	
4591	0	37020	
4592	0	37124	
4593	0	37216	
4594	0	37308	
4595	0	37400	
4596	0	37476	
4597	0	37576	
4598	0	37716	
4599	0	37912	
4600	0	38016	
4601	0	37976	
4602	0	37892	
4603	0	37906	
4604	0	38016	
4605	0	38112	
4606	0	38152	
4607	0	38252	
4608	0	38368	
4609	0	38432	
4610	0	38520	
4611	0	38572	
4612	0	38560	
4613	0	38576	
4614	0	38628	
4615	0	38668	
4616	0	38712	
4617	0	38734	
4618	0	38776	
4619	0	38868	
4620	0	38972	
4621	0	39020	
4622	0	38972	
4623	0	38908	
4624	0	38848	
4625	0	38816	
4626	0	38720	
4627	0	38684	
4628	0	38644	
4629	0	38602	
4630	0	38504	
4631	0	38416	
4632	0	38336	
4633	0	38336	
4634	0	38352	
4635	0	38336	
4636	0	38272	
4637	0	38192	
4638	0	38096	
4639	0	37956	
4640	0	37824	
4641	0	37724	
4642	0	37660	
4643	0	37584	
4644	0	37532	
4645	0	37512	
4646	0	37408	
4647	0	37236	
4648	0	37016	
4649	0	36760	
4650	0	36510	
4651	0	36260	
4652	0	36056	
4653	0	35904	
4654	0	35768	
4655	0	35632	
4656	0	35400	
4657	0	35160	
4658	0	34944	
4659	0	34704	
4660	0	34444	
4661	0	34202	
4662	0	33996	
4663	0	33768	
4664	0	33552	
4665	0	33316	
4666	0	33090	
4667	0	32954	
4668	0	32840	
4669	0	32680	
4670	0	32464	
4671	0	32242	
4672	0	32056	
4673	0	31876	
4674	0	31672	
4675	0	31440	
4676	0	31168	
4677	0	30890	
4678	0	30656	
4679	0	30460	
4680	0	30272	
4681	0	30112	
4682	0	29984	
4683	0	29868	
4684	0	29760	
4685	0	29664	
4686	0	29604	
4687	0	29552	
4688	0	29400	
4689	0	29262	
4690	0	29148	
4691	0	29060	
4692	0	28968	
4693	0	28880	
4694	0	28852	
4695	0	28800	
4696	0	28764	
4697	0	28680	
4698	0	28624	
4699	0	28620	
4700	0	28586	
4701	0	28520	
4702	0	28484	
4703	0	28410	
4704	0	28320	
4705	0	28312	
4706	0	28324	
4707	0	28312	
4708	0	28268	
4709	0	28256	
4710	0	28226	
4711	0	28224	
4712	0	28244	
4713	0	28236	
4714	0	28236	
4715	0	28312	
4716	0	28360	
4717	0	28364	
4718	0	28348	
4719	0	28292	
4720	0	28200	
4721	0	28148	
4722	0	28140	
4723	0	28168	
4724	0	28240	
4725	0	28300	
4726	0	28328	
4727	0	28368	
4728	0	28394	
4729	0	28488	
4730	0	28608	
4731	0	28696	
4732	0	28760	
4733	0	28752	
4734	0	28752	
4735	0	28800	
4736	0	28832	
4737	0	28892	
4738	0	28932	
4739	0	28968	
4740	0	28976	
4741	0	28992	
4742	0	29040	
4743	0	29104	
4744	0	29146	
4745	0	29196	
4746	0	29232	
4747	0	29248	
4748	0	29220	
4749	0	29180	
4750	0	29152	
4751	0	29180	
4752	0	29224	
4753	0	29270	
4754	0	29336	
4755	0	29376	
4756	0	29372	
4757	0	29376	
4758	0	29384	
4759	0	29424	
4760	0	29464	
4761	0	29556	
4762	0	29598	
4763	0	29564	
4764	0	29504	
4765	0	29548	
4766	0	29652	
4767	0	29744	
4768	0	29768	
4769	0	29848	
4770	0	29984	
4771	0	30072	
4772	0	30128	
4773	0	30232	
4774	0	30276	
4775	0	30226	
4776	0	30216	
4777	0	30228	
4778	0	30240	
4779	0	30178	
4780	0	30164	
4781	0	30224	
4782	0	30252	
4783	0	30268	
4784	0	30286	
4785	0	30292	
4786	0	30340	
4787	0	30404	
4788	0	30486	
4789	0	30532	
4790	0	30532	
4791	0	30554	
4792	0	30626	
4793	0	30696	
4794	0	30776	
4795	0	30860	
4796	0	30942	
4797	0	30976	
4798	0	30964	
4799	0	30974	
4800	0	30988	
4801	0	30988	
4802	0	31016	
4803	0	31068	
4804	0	31060	
4805	0	30968	
4806	0	30872	
4807	0	30858	
4808	0	30886	
4809	0	30908	
4810	0	30968	
4811	0	31058	
4812	0	31124	
4813	0	31136	
4814	0	31124	
4815	0	31120	
4816	0	31166	
4817	0	31208	
4818	0	31200	
4819	0	31216	
4820	0	31228	
4821	0	31260	
4822	0	31292	
4823	0	31356	
4824	0	31404	
4825	0	31396	
4826	0	31376	
4827	0	31356	
4828	0	31360	
4829	0	31292	
4830	0	31236	
4831	0	31220	
4832	0	31228	
4833	0	31264	
4834	0	31388	
4835	0	31476	
4836	0	31508	
4837	0	31488	
4838	0	31516	
4839	0	31536	
4840	0	31520	
4841	0	31520	
4842	0	31552	
4843	0	31560	
4844	0	31528	
4845	0	31530	
4846	0	31524	
4847	0	31556	
4848	0	31532	
4849	0	31514	
4850	0	31528	
4851	0	31560	
4852	0	31580	
4853	0	31544	
4854	0	31524	
4855	0	31552	
4856	0	31612	
4857	0	31688	
4858	0	31736	
4859	0	31736	
4860	0	31768	
4861	0	31820	
4862	0	31880	
4863	0	31940	
4864	0	31956	
4865	0	31928	
4866	0	31896	
4867	0	31886	
4868	0	31852	
4869	0	31800	
4870	0	31704	
4871	0	31720	
4872	0	31816	
4873	0	31880	
4874	0	31948	
4875	0	31976	
4876	0	31964	
4877	0	31920	
4878	0	31870	
4879	0	31848	
4880	0	31876	
4881	0	31912	
4882	0	31904	
4883	0	31816	
4884	0	31688	
4885	0	31620	
4886	0	31604	
4887	0	31664	
4888	0	31712	
4889	0	31660	
4890	0	31632	
4891	0	31660	
4892	0	31692	
4893	0	31668	
4894	0	31680	
4895	0	31730	
4896	0	31784	
4897	0	31808	
4898	0	31784	
4899	0	31788	
4900	0	31812	
4901	0	31828	
4902	0	31748	
4903	0	31680	
4904	0	31640	
4905	0	31610	
4906	0	31576	
4907	0	31552	
4908	0	31528	
4909	0	31544	
4910	0	31554	
4911	0	31580	
4912	0	31640	
4913	0	31708	
4914	0	31796	
4915	0	31864	
4916	0	31872	
4917	0	31868	
4918	0	31876	
4919	0	31860	
4920	0	31892	
4921	0	31952	
4922	0	31916	
4923	0	31908	
4924	0	31888	
4925	0	31912	
4926	0	31960	
4927	0	31960	
4928	0	31920	
4929	0	31908	
4930	0	31904	
4931	0	31896	
4932	0	31920	
4933	0	31876	
4934	0	31834	
4935	0	31874	
4936	0	31944	
4937	0	31980	
4938	0	31992	
4939	0	32064	
4940	0	32104	
4941	0	32092	
4942	0	32084	
4943	0	32124	
4944	0	32224	
4945	0	32336	
4946	0	32382	
4947	0	32400	
4948	0	32408	
4949	0	32448	
4950	0	32492	
4951	0	32552	
4952	0	32582	
4953	0	32588	
4954	0	32644	
4955	0	32752	
4956	0	32858	
4957	0	32890	
4958	0	32856	
4959	0	32792	
4960	0	32708	
4961	0	32664	
4962	0	32648	
4963	0	32668	
4964	0	32684	
4965	0	32672	
4966	0	32632	
4967	0	32700	
4968	0	32840	
4969	0	33004	
4970	0	33172	
4971	0	33344	
4972	0	33588	
4973	0	33896	
4974	0	34136	
4975	0	34296	
4976	0	34458	
4977	0	34576	
4978	0	34720	
4979	0	34880	
4980	0	34996	
4981	0	35116	
4982	0	35160	
4983	0	35100	
4984	0	34956	
4985	0	34840	
4986	0	34704	
4987	0	34556	
4988	0	34388	
4989	0	34260	
4990	0	34120	
4991	0	33968	
4992	0	33856	
4993	0	33722	
4994	0	33600	
4995	0	33528	
4996	0	33472	
4997	0	33386	
4998	0	33272	
4999	0	33160	
5000	0	33056	
5001	0	32968	
5002	0	32920	
5003	0	32928	
5004	0	32872	
5005	0	32784	
5006	0	32688	
5007	0	32584	
5008	0	32456	
5009	0	32388	
5010	0	32304	
5011	0	32200	
5012	0	32104	
5013	0	32052	
5014	0	32036	
5015	0	32060	
5016	0	32032	
5017	0	31924	
5018	0	31796	
5019	0	31680	
5020	0	31530	
5021	0	31426	
5022	0	31344	
5023	0	31312	
5024	0	31292	
5025	0	31268	
5026	0	31228	
5027	0	31176	
5028	0	31164	
5029	0	31168	
5030	0	31200	
5031	0	31200	
5032	0	31216	
5033	0	31208	
5034	0	31218	
5035	0	31260	
5036	0	31312	
5037	0	31316	
5038	0	31304	
5039	0	31280	
5040	0	31308	
5041	0	31316	
5042	0	31296	
5043	0	31290	
5044	0	31248	
5045	0	31232	
5046	0	31288	
5047	0	31288	
5048	0	31244	
5049	0	31264	
5050	0	31288	
5051	0	31320	
5052	0	31328	
5053	0	31320	
5054	0	31348	
5055	0	31364	
5056	0	31364	
5057	0	31424	
5058	0	31504	
5059	0	31572	
5060	0	31674	
5061	0	31752	
5062	0	31792	
5063	0	31808	
5064	0	31784	
5065	0	31664	
5066	0	31460	
5067	0	31212	
5068	0	30848	
5069	0	30334	
5070	0	29730	
5071	0	29138	
5072	0	28722	
5073	0	28528	
5074	0	28504	
5075	0	28548	
5076	0	28788	
5077	0	29312	
5078	0	30144	
5079	0	31258	
5080	0	32444	
5081	0	33752	
5082	0	35200	
5083	0	36836	
5084	0	38624	
5085	0	40744	
5086	0	43184	
5087	0	46016	
5088	0	49320	
5089	0	52832	
5090	0	56288	
5091	0	59608	
5092	0	62144	
5093	0	63512	
5094	0	64196	
5095	0	64496	
5096	0	64604	
5097	0	64600	
5098	0	64556	
5099	0	64460	
5100	0	64352	
5101	0	64232	
5102	0	63200	
5103	0	56672	
5104	0	50436	
5105	0	45100	
5106	0	40784	
5107	0	37328	
5108	0	34650	
5109	0	32612	
5110	0	30976	
5111	0	29576	
5112	0	28376	
5113	0	27252	
5114	0	26196	
5115	0	25280	
5116	0	24582	
5117	0	24140	
5118	0	23876	
5119	0	23826	
5120	0	23956	
5121	0	24128	
5122	0	24364	
5123	0	24480	
5124	0	24532	
5125	0	24712	
5126	0	25000	
5127	0	25334	
5128	0	25704	
5129	0	26080	
5130	0	26472	
5131	0	26800	
5132	0	27190	
5133	0	27568	
5134	0	27908	
5135	0	28228	
5136	0	28512	
5137	0	28768	
5138	0	28940	
5139	0	29036	
5140	0	29100	
5141	0	29116	
5142	0	29136	
5143	0	29172	
5144	0	29176	
5145	0	29156	
5146	0	29156	
5147	0	29184	
5148	0	29232	
5149	0	29248	
5150	0	29256	
5151	0	29288	
5152	0	29324	
5153	0	29376	
5154	0	29460	
5155	0	29536	
5156	0	29564	
5157	0	29540	
5158	0	29536	
5159	0	29472	
5160	0	29468	
5161	0	29512	
5162	0	29594	
5163	0	29660	
5164	0	29748	
5165	0	29804	
5166	0	29888	
5167	0	29960	
5168	0	29992	
5169	0	30032	
5170	0	30080	
5171	0	30160	
5172	0	30214	
5173	0	30258	
5174	0	30244	
5175	0	30260	
5176	0	30302	
5177	0	30372	
5178	0	30432	
5179	0	30476	
5180	0	30532	
5181	0	30632	
5182	0	30688	
5183	0	30708	
5184	0	30744	
5185	0	30768	
5186	0	30760	
5187	0	30756	
5188	0	30804	
5189	0	30804	
5190	0	30840	
5191	0	30900	
5192	0	30974	
5193	0	31020	
5194	0	31092	
5195	0	31168	
5196	0	31170	
5197	0	31184	
5198	0	31284	
5199	0	31392	
5200	0	31496	
5201	0	31512	
5202	0	31520	
5203	0	31488	
5204	0	31496	
5205	0	31532	
5206	0	31608	
5207	0	31680	
5208	0	31736	
5209	0	31772	
5210	0	31824	
5211	0	31876	
5212	0	31912	
5213	0	31918	
5214	0	31936	
5215	0	32000	
5216	0	32052	
5217	0	32132	
5218	0	32236	
5219	0	32332	
5220	0	32384	
5221	0	32412	
5222	0	32468	
5223	0	32540	
5224	0	32580	
5225	0	32576	
5226	0	32592	
5227	0	32636	
5228	0	32624	
5229	0	32660	
5230	0	32680	
5231	0	32720	
5232	0	32760	
5233	0	32800	
5234	0	32872	
5235	0	32924	
5236	0	32986	
5237	0	33041	
5238	0	33088	
5239	0	33152	
5240	0	33256	
5241	0	33356	
5242	0	33456	
5243	0	33584	
5244	0	33696	
5245	0	33812	
5246	0	33912	
5247	0	34008	
5248	0	34092	
5249	0	34140	
5250	0	34208	
5251	0	34276	
5252	0	34304	
5253	0	34350	
5254	0	34424	
5255	0	34512	
5256	0	34592	
5257	0	34668	
5258	0	34752	
5259	0	34764	
5260	0	34756	
5261	0	34824	
5262	0	34908	
5263	0	34992	
5264	0	35120	
5265	0	35232	
5266	0	35324	
5267	0	35424	
5268	0	35508	
5269	0	35572	
5270	0	35660	
5271	0	35698	
5272	0	35744	
5273	0	35856	
5274	0	36004	
5275	0	36120	
5276	0	36224	
5277	0	36332	
5278	0	36448	
5279	0	36536	
5280	0	36616	
5281	0	36664	
5282	0	36728	
5283	0	36828	
5284	0	36968	
5285	0	37112	
5286	0	37194	
5287	0	37204	
5288	0	37244	
5289	0	37320	
5290	0	37392	
5291	0	37428	
5292	0	37444	
5293	0	37472	
5294	0	37500	
5295	0	37588	
5296	0	37684	
5297	0	37748	
5298	0	37768	
5299	0	37776	
5300	0	37804	
5301	0	37840	
5302	0	37840	
5303	0	37888	
5304	0	37934	
5305	0	37914	
5306	0	37896	
5307	0	37892	
5308	0	37856	
5309	0	37808	
5310	0	37772	
5311	0	37768	
5312	0	37764	
5313	0	37756	
5314	0	37756	
5315	0	37728	
5316	0	37680	
5317	0	37608	
5318	0	37544	
5319	0	37470	
5320	0	37360	
5321	0	37264	
5322	0	37152	
5323	0	37020	
5324	0	36888	
5325	0	36788	
5326	0	36744	
5327	0	36688	
5328	0	36544	
5329	0	36392	
5330	0	36216	
5331	0	36072	
5332	0	35958	
5333	0	35828	
5334	0	35692	
5335	0	35544	
5336	0	35394	
5337	0	35184	
5338	0	34992	
5339	0	34792	
5340	0	34556	
5341	0	34322	
5342	0	34092	
5343	0	33882	
5344	0	33692	
5345	0	33412	
5346	0	33104	
5347	0	32800	
5348	0	32544	
5349	0	32352	
5350	0	32156	
5351	0	31992	
5352	0	31844	
5353	0	31648	
5354	0	31496	
5355	0	31352	
5356	0	31236	
5357	0	31128	
5358	0	30960	
5359	0	30790	
5360	0	30596	
5361	0	30412	
5362	0	30272	
5363	0	30104	
5364	0	29860	
5365	0	29636	
5366	0	29424	
5367	0	29288	
5368	0	29160	
5369	0	29044	
5370	0	29000	
5371	0	28976	
5372	0	28928	
5373	0	28848	
5374	0	28796	
5375	0	28762	
5376	0	28712	
5377	0	28680	
5378	0	28648	
5379	0	28600	
5380	0	28556	
5381	0	28492	
5382	0	28468	
5383	0	28456	
5384	0	28444	
5385	0	28386	
5386	0	28354	
5387	0	28332	
5388	0	28288	
5389	0	28228	
5390	0	28180	
5391	0	28162	
5392	0	28148	
5393	0	28176	
5394	0	28212	
5395	0	28232	
5396	0	28230	
5397	0	28264	
5398	0	28312	
5399	0	28334	
5400	0	28372	
5401	0	28384	
5402	0	28400	
5403	0	28436	
5404	0	28504	
5405	0	28570	
5406	0	28616	
5407	0	28656	
5408	0	28648	
5409	0	28632	
5410	0	28636	
5411	0	28648	
5412	0	28652	
5413	0	28648	
5414	0	28628	
5415	0	28660	
5416	0	28722	
5417	0	28816	
5418	0	28886	
5419	0	28888	
5420	0	28876	
5421	0	28938	
5422	0	29024	
5423	0	29090	
5424	0	29144	
5425	0	29140	
5426	0	29164	
5427	0	29192	
5428	0	29196	
5429	0	29230	
5430	0	29272	
5431	0	29296	
5432	0	29316	
5433	0	29320	
5434	0	29340	
5435	0	29364	
5436	0	29388	
5437	0	29416	
5438	0	29472	
5439	0	29508	
5440	0	29586	
5441	0	29668	
5442	0	29716	
5443	0	29772	
5444	0	29816	
5445	0	29836	
5446	0	29852	
5447	0	29896	
5448	0	29906	
5449	0	29912	
5450	0	29984	
5451	0	30048	
5452	0	30032	
5453	0	29994	
5454	0	30016	
5455	0	30064	
5456	0	30108	
5457	0	30178	
5458	0	30280	
5459	0	30344	
5460	0	30348	
5461	0	30368	
5462	0	30424	
5463	0	30456	
5464	0	30452	
5465	0	30496	
5466	0	30496	
5467	0	30464	
5468	0	30464	
5469	0	30488	
5470	0	30480	
5471	0	30506	
5472	0	30564	
5473	0	30644	
5474	0	30732	
5475	0	30816	
5476	0	30860	
5477	0	30864	
5478	0	30876	
5479	0	30888	
5480	0	30904	
5481	0	30916	
5482	0	30914	
5483	0	30916	
5484	0	30900	
5485	0	30904	
5486	0	30916	
5487	0	30956	
5488	0	31020	
5489	0	31128	
5490	0	31208	
5491	0	31228	
5492	0	31248	
5493	0	31280	
5494	0	31280	
5495	0	31228	
5496	0	31164	
5497	0	31132	
5498	0	31116	
5499	0	31130	
5500	0	31140	
5501	0	31172	
5502	0	31222	
5503	0	31284	
5504	0	31320	
5505	0	31364	
5506	0	31428	
5507	0	31484	
5508	0	31500	
5509	0	31476	
5510	0	31472	
5511	0	31464	
5512	0	31472	
5513	0	31460	
5514	0	31436	
5515	0	31400	
5516	0	31408	
5517	0	31456	
5518	0	31516	
5519	0	31546	
5520	0	31552	
5521	0	31544	
5522	0	31544	
5523	0	31584	
5524	0	31600	
5525	0	31624	
5526	0	31644	
5527	0	31678	
5528	0	31680	
5529	0	31700	
5530	0	31700	
5531	0	31704	
5532	0	31708	
5533	0	31712	
5534	0	31736	
5535	0	31784	
5536	0	31776	
5537	0	31792	
5538	0	31816	
5539	0	31820	
5540	0	31788	
5541	0	31752	
5542	0	31736	
5543	0	31752	
5544	0	31736	
5545	0	31760	
5546	0	31788	
5547	0	31796	
5548	0	31808	
5549	0	31836	
5550	0	31776	
5551	0	31664	
5552	0	31544	
5553	0	31445	
5554	0	31428	
5555	0	31492	
5556	0	31520	
5557	0	31520	
5558	0	31568	
5559	0	31610	
5560	0	31588	
5561	0	31592	
5562	0	31630	
5563	0	31640	
5564	0	31680	
5565	0	31716	
5566	0	31744	
5567	0	31732	
5568	0	31744	
5569	0	31766	
5570	0	31744	
5571	0	31732	
5572	0	31728	
5573	0	31760	
5574	0	31796	
5575	0	31808	
5576	0	31808	
5577	0	31820	
5578	0	31784	
5579	0	31776	
5580	0	31750	
5581	0	31716	
5582	0	31688	
5583	0	31684	
5584	0	31692	
5585	0	31684	
5586	0	31700	
5587	0	31704	
5588	0	31688	
5589	0	31714	
5590	0	31776	
5591	0	31844	
5592	0	31850	
5593	0	31828	
5594	0	31736	
5595	0	31620	
5596	0	31600	
5597	0	31664	
5598	0	31728	
5599	0	31792	
5600	0	31776	
5601	0	31728	
5602	0	31848	
5603	0	31944	
5604	0	32020	
5605	0	32088	
5606	0	32064	
5607	0	31988	
5608	0	31874	
5609	0	31824	
5610	0	31804	
5611	0	31792	
5612	0	31872	
5613	0	31828	
5614	0	31888	
5615	0	32100	
5616	0	32200	
5617	0	32148	
5618	0	32172	
5619	0	32284	
5620	0	32400	
5621	0	32400	
5622	0	32464	
5623	0	32568	
5624	0	32634	
5625	0	32684	
5626	0	32752	
5627	0	32852	
5628	0	33044	
5629	0	33240	
5630	0	33196	
5631	0	33128	
5632	0	33076	
5633	0	33048	
5634	0	32992	
5635	0	32884	
5636	0	32802	
5637	0	32772	
5638	0	32740	
5639	0	32736	
5640	0	32752	
5641	0	32772	
5642	0	32828	
5643	0	32896	
5644	0	32924	
5645	0	32972	
5646	0	33068	
5647	0	33256	
5648	0	33512	
5649	0	33788	
5650	0	34104	
5651	0	34368	
5652	0	34568	
5653	0	34684	
5654	0	34808	
5655	0	34916	
5656	0	35000	
5657	0	35076	
5658	0	35128	
5659	0	35156	
5660	0	35096	
5661	0	35008	
5662	0	34836	
5663	0	34656	
5664	0	34560	
5665	0	34484	
5666	0	34392	
5667	0	34264	
5668	0	34080	
5669	0	33920	
5670	0	33772	
5671	0	33682	
5672	0	33588	
5673	0	33520	
5674	0	33436	
5675	0	33292	
5676	0	33148	
5677	0	33016	
5678	0	32928	
5679	0	32942	
5680	0	32946	
5681	0	32850	
5682	0	32776	
5683	0	32720	
5684	0	32680	
5685	0	32618	
5686	0	32556	
5687	0	32482	
5688	0	32360	
5689	0	32304	
5690	0	32268	
5691	0	32246	
5692	0	32224	
5693	0	32144	
5694	0	32004	
5695	0	31808	
5696	0	31658	
5697	0	31488	
5698	0	31312	
5699	0	31204	
5700	0	31128	
5701	0	31180	
5702	0	31216	
5703	0	31252	
5704	0	31268	
5705	0	31296	
5706	0	31332	
5707	0	31344	
5708	0	31324	
5709	0	31288	
5710	0	31296	
5711	0	31322	
5712	0	31330	
5713	0	31368	
5714	0	31392	
5715	0	31412	
5716	0	31468	
5717	0	31440	
5718	0	31412	
5719	0	31420	
5720	0	31442	
5721	0	31436	
5722	0	31480	
5723	0	31480	
5724	0	31484	
5725	0	31556	
5726	0	31644	
5727	0	31728	
5728	0	31808	
5729	0	31842	
5730	0	31858	
5731	0	31848	
5732	0	31778	
5733	0	31720	
5734	0	31744	
5735	0	31792	
5736	0	31808	
5737	0	31820	
5738	0	31824	
5739	0	31912	
5740	0	31992	
5741	0	31996	
5742	0	31920	
5743	0	31768	
5744	0	31504	
5745	0	31132	
5746	0	30584	
5747	0	29892	
5748	0	29220	
5749	0	28728	
5750	0	28430	
5751	0	28356	
5752	0	28548	
5753	0	28936	
5754	0	29552	
5755	0	30344	
5756	0	31400	
5757	0	32816	
5758	0	34376	
5759	0	35968	
5760	0	37816	
5761	0	39810	
5762	0	42072	
5763	0	44620	
5764	0	47584	
5765	0	51120	
5766	0	54880	
5767	0	58496	
5768	0	61672	
5769	0	63584	
5770	0	64556	
5771	0	65056	
5772	0	65256	
5773	0	65296	
5774	0	65256	
5775	0	65176	
5776	0	65080	
5777	0	64968	
5778	0	64832	
5779	0	64704	
5780	0	64584	
5781	0	59688	
5782	0	54032	
5783	0	49472	
5784	0	45692	
5785	0	42508	
5786	0	39680	
5787	0	37116	
5788	0	34884	
5789	0	33184	
5790	0	31968	
5791	0	30984	
5792	0	30064	
5793	0	29288	
5794	0	28572	
5795	0	28056	
5796	0	27660	
5797	0	27464	
5798	0	27468	
5799	0	27520	
5800	0	27488	
5801	0	27272	
5802	0	27020	
5803	0	26836	
5804	0	26752	
5805	0	26816	
5806	0	26992	
5807	0	27172	
5808	0	27400	
5809	0	27652	
5810	0	27824	
5811	0	27896	
5812	0	28024	
5813	0	28152	
5814	0	28238	
5815	0	28192	
5816	0	28174	
5817	0	28156	
5818	0	28176	
5819	0	28172	
5820	0	28088	
5821	0	27940	
5822	0	27968	
5823	0	28084	
5824	0	28132	
5825	0	28052	
5826	0	28034	
5827	0	27976	
5828	0	27900	
5829	0	27954	
5830	0	28024	
5831	0	28028	
5832	0	28104	
5833	0	28232	
5834	0	28320	
5835	0	28288	
5836	0	28274	
5837	0	28324	
5838	0	28440	
5839	0	28538	
5840	0	28610	
5841	0	28640	
5842	0	28640	
5843	0	28668	
5844	0	28720	
5845	0	28728	
5846	0	28744	
5847	0	28820	
5848	0	28880	
5849	0	28928	
5850	0	28992	
5851	0	29064	
5852	0	29128	
5853	0	29160	
5854	0	29172	
5855	0	29212	
5856	0	29272	
5857	0	29324	
5858	0	29336	
5859	0	29368	
5860	0	29408	
5861	0	29464	
5862	0	29660	
5863	0	29828	
5864	0	29900	
5865	0	29892	
5866	0	29960	
5867	0	29968	
5868	0	30004	
5869	0	30048	
5870	0	30124	
5871	0	30184	
5872	0	30284	
5873	0	30376	
5874	0	30464	
5875	0	30524	
5876	0	30494	
5877	0	30484	
5878	0	30516	
5879	0	30488	
5880	0	30426	
5881	0	30376	
5882	0	30416	
5883	0	30448	
5884	0	30536	
5885	0	30640	
5886	0	30784	
5887	0	30900	
5888	0	30956	
5889	0	30976	
5890	0	31052	
5891	0	31140	
5892	0	31224	
5893	0	31296	
5894	0	31338	
5895	0	31324	
5896	0	31364	
5897	0	31432	
5898	0	31520	
5899	0	31660	
5900	0	31764	
5901	0	31780	
5902	0	31748	
5903	0	31736	
5904	0	31768	
5905	0	31820	
5906	0	31860	
5907	0	31936	
5908	0	32044	
5909	0	32156	
5910	0	32234	
5911	0	32288	
5912	0	32340	
5913	0	32392	
5914	0	32504	
5915	0	32604	
5916	0	32644	
5917	0	32692	
5918	0	32736	
5919	0	32772	
5920	0	32794	
5921	0	32800	
5922	0	32844	
5923	0	32894	
5924	0	32924	
5925	0	32972	
5926	0	33092	
5927	0	33200	
5928	0	33244	
5929	0	33292	
5930	0	33432	
5931	0	33544	
5932	0	33644	
5933	0	33752	
5934	0	33836	
5935	0	33940	
5936	0	34032	
5937	0	34112	
5938	0	34210	
5939	0	34336	
5940	0	34408	
5941	0	34472	
5942	0	34580	
5943	0	34700	
5944	0	34782	
5945	0	34872	
5946	0	34984	
5947	0	35064	
5948	0	35156	
5949	0	35244	
5950	0	35328	
5951	0	35368	
5952	0	35428	
5953	0	35508	
5954	0	35608	
5955	0	35704	
5956	0	35744	
5957	0	35824	
5958	0	35944	
5959	0	36032	
5960	0	36104	
5961	0	36228	
5962	0	36320	
5963	0	36396	
5964	0	36456	
5965	0	36532	
5966	0	36604	
5967	0	36668	
5968	0	36732	
5969	0	36800	
5970	0	36864	
5971	0	36876	
5972	0	36888	
5973	0	36920	
5974	0	36960	
5975	0	37000	
5976	0	37040	
5977	0	37064	
5978	0	37080	
5979	0	37064	
5980	0	37068	
5981	0	37096	
5982	0	37112	
5983	0	37172	
5984	0	37220	
5985	0	37220	
5986	0	37196	
5987	0	37192	
5988	0	37216	
5989	0	37184	
5990	0	37148	
5991	0	37116	
5992	0	37128	
5993	0	37104	
5994	0	37056	
5995	0	37012	
5996	0	36964	
5997	0	36920	
5998	0	36880	
5999	0	36796	
6000	0	36744	
6001	0	36744	
6002	0	36700	
6003	0	36632	
6004	0	36560	
6005	0	36476	
6006	0	36372	
6007	0	36244	
6008	0	36136	
6009	0	36016	
6010	0	35888	
6011	0	35708	
6012	0	35528	
6013	0	35364	
6014	0	35220	
6015	0	35032	
6016	0	34820	
6017	0	34618	
6018	0	34408	
6019	0	34200	
6020	0	33984	
6021	0	33752	
6022	0	33502	
6023	0	33300	
6024	0	33104	
6025	0	32908	
6026	0	32740	
6027	0	32570	
6028	0	32372	
6029	0	32188	
6030	0	32032	
6031	0	31876	
6032	0	31680	
6033	0	31440	
6034	0	31232	
6035	0	31084	
6036	0	30920	
6037	0	30764	
6038	0	30712	
6039	0	30712	
6040	0	30608	
6041	0	30408	
6042	0	30160	
6043	0	29948	
6044	0	29812	
6045	0	29732	
6046	0	29628	
6047	0	29488	
6048	0	29404	
6049	0	29328	
6050	0	29280	
6051	0	29268	
6052	0	29248	
6053	0	29192	
6054	0	29108	
6055	0	29040	
6056	0	29020	
6057	0	28992	
6058	0	28968	
6059	0	28968	
6060	0	28952	
6061	0	28896	
6062	0	28930	
6063	0	28988	
6064	0	28948	
6065	0	28848	
6066	0	28848	
6067	0	28872	
6068	0	28880	
6069	0	28856	
6070	0	28808	
6071	0	28760	
6072	0	28748	
6073	0	28756	
6074	0	28764	
6075	0	28832	
6076	0	28900	
6077	0	28896	
6078	0	28908	
6079	0	28928	
6080	0	28960	
6081	0	28992	
6082	0	29042	
6083	0	29038	
6084	0	29004	
6085	0	28912	
6086	0	28848	
6087	0	28860	
6088	0	28998	
6089	0	29088	
6090	0	29132	
6091	0	29176	
6092	0	29248	
6093	0	29348	
6094	0	29414	
6095	0	29464	
6096	0	29488	
6097	0	29504	
6098	0	29540	
6099	0	29644	
6100	0	29712	
6101	0	29668	
6102	0	29624	
6103	0	29584	
6104	0	29504	
6105	0	29432	
6106	0	29496	
6107	0	29640	
6108	0	29712	
6109	0	29728	
6110	0	29834	
6111	0	29952	
6112	0	30032	
6113	0	30096	
6114	0	30112	
6115	0	30152	
6116	0	30224	
6117	0	30260	
6118	0	30256	
6119	0	30264	
6120	0	30212	
6121	0	30252	
6122	0	30440	
6123	0	30568	
6124	0	30640	
6125	0	30652	
6126	0	30588	
6127	0	30556	
6128	0	30600	
6129	0	30648	
6130	0	30652	
6131	0	30692	
6132	0	30728	
6133	0	30788	
6134	0	30838	
6135	0	30900	
6136	0	30964	
6137	0	31008	
6138	0	31086	
6139	0	31164	
6140	0	31144	
6141	0	31076	
6142	0	31072	
6143	0	31160	
6144	0	31236	
6145	0	31256	
6146	0	31328	
6147	0	31336	
6148	0	31242	
6149	0	31192	
6150	0	31200	
6151	0	31228	
6152	0	31288	
6153	0	31320	
6154	0	31308	
6155	0	31272	
6156	0	31310	
6157	0	31396	
6158	0	31460	
6159	0	31488	
6160	0	31480	
6161	0	31448	
6162	0	31456	
6163	0	31504	
6164	0	31576	
6165	0	31624	
6166	0	31648	
6167	0	31680	
6168	0	31656	
6169	0	31608	
6170	0	31624	
6171	0	31576	
6172	0	31588	
6173	0	31620	
6174	0	31632	
6175	0	31688	
6176	0	31752	
6177	0	31808	
6178	0	31820	
6179	0	31808	
6180	0	31756	
6181	0	31726	
6182	0	31704	
6183	0	31654	
6184	0	31640	
6185	0	31664	
6186	0	31570	
6187	0	31480	
6188	0	31440	
6189	0	31376	
6190	0	31364	
6191	0	31386	
6192	0	31468	
6193	0	31504	
6194	0	31536	
6195	0	31584	
6196	0	31716	
6197	0	31804	
6198	0	31924	
6199	0	32068	
6200	0	32168	
6201	0	32204	
6202	0	32248	
6203	0	32320	
6204	0	32340	
6205	0	32328	
6206	0	32260	
6207	0	32220	
6208	0	32160	
6209	0	32120	
6210	0	32172	
6211	0	32304	
6212	0	32388	
6213	0	32364	
6214	0	32256	
6215	0	32204	
6216	0	32128	
6217	0	32092	
6218	0	32096	
6219	0	32096	
6220	0	32080	
6221	0	32100	
6222	0	32112	
6223	0	32056	
6224	0	31980	
6225	0	31944	
6226	0	31912	
6227	0	31960	
6228	0	32008	
6229	0	31996	
6230	0	31996	
6231	0	32072	
6232	0	32156	
6233	0	32192	
6234	0	32264	
6235	0	32308	
6236	0	32340	
6237	0	32368	
6238	0	32420	
6239	0	32500	
6240	0	32472	
6241	0	32414	
6242	0	32324	
6243	0	32248	
6244	0	32218	
6245	0	32152	
6246	0	32044	
6247	0	31968	
6248	0	31976	
6249	0	31996	
6250	0	31992	
6251	0	32028	
6252	0	32128	
6253	0	32204	
6254	0	32244	
6255	0	32276	
6256	0	32296	
6257	0	32272	
6258	0	32226	
6259	0	32264	
6260	0	32296	
6261	0	32252	
6262	0	32248	
6263	0	32308	
6264	0	32280	
6265	0	32200	
6266	0	32164	
6267	0	32212	
6268	0	32248	
6269	0	32268	
6270	0	32268	
6271	0	32264	
6272	0	32284	
6273	0	32336	
6274	0	32388	
6275	0	32416	
6276	0	32424	
6277	0	32430	
6278	0	32400	
6279	0	32352	
6280	0	32288	
6281	0	32248	
6282	0	32228	
6283	0	32272	
6284	0	32328	
6285	0	32336	
6286	0	32388	
6287	0	32440	
6288	0	32456	
6289	0	32480	
6290	0	32472	
6291	0	32520	
6292	0	32632	
6293	0	32744	
6294	0	32892	
6295	0	32976	
6296	0	32962	
6297	0	32932	
6298	0	32976	
6299	0	33024	
6300	0	33080	
6301	0	33178	
6302	0	33300	
6303	0	33372	
6304	0	33392	
6305	0	33436	
6306	0	33396	
6307	0	33300	
6308	0	33252	
6309	0	33224	
6310	0	33140	
6311	0	33128	
6312	0	33128	
6313	0	33104	
6314	0	33064	
6315	0	33088	
6316	0	33128	
6317	0	33216	
6318	0	33344	
6319	0	33480	
6320	0	33744	
6321	0	34116	
6322	0	34528	
6323	0	34842	
6324	0	34976	
6325	0	35056	
6326	0	35124	
6327	0	35204	
6328	0	35312	
6329	0	35384	
6330	0	35486	
6331	0	35466	
6332	0	35342	
6333	0	35160	
6334	0	35028	
6335	0	34944	
6336	0	34944	
6337	0	34908	
6338	0	34880	
6339	0	34802	
6340	0	34696	
6341	0	34568	
6342	0	34444	
6343	0	34292	
6344	0	34196	
6345	0	34096	
6346	0	33964	
6347	0	33880	
6348	0	33684	
6349	0	33472	
6350	0	33304	
6351	0	33176	
6352	0	33068	
6353	0	33032	
6354	0	32992	
6355	0	32972	
6356	0	32948	
6357	0	32912	
6358	0	32900	
6359	0	32852	
6360	0	32736	
6361	0	32608	
6362	0	32426	
6363	0	32272	
6364	0	32124	
6365	0	32036	
6366	0	32060	
6367	0	32098	
6368	0	32092	
6369	0	32008	
6370	0	31900	
6371	0	31840	
6372	0	31752	
6373	0	31680	
6374	0	31640	
6375	0	31560	
6376	0	31528	
6377	0	31564	
6378	0	31648	
6379	0	31604	
6380	0	31536	
6381	0	31482	
6382	0	31500	
6383	0	31520	
6384	0	31512	
6385	0	31464	
6386	0	31480	
6387	0	31544	
6388	0	31556	
6389	0	31568	
6390	0	31568	
6391	0	31596	
6392	0	31618	
6393	0	31640	
6394	0	31676	
6395	0	31764	
6396	0	31816	
6397	0	31816	
6398	0	31834	
6399	0	31812	
6400	0	31752	
6401	0	31752	
6402	0	31764	
6403	0	31784	
6404	0	31852	
6405	0	31916	
6406	0	31996	
6407	0	32084	
6408	0	32144	
6409	0	32172	
6410	0	32178	
6411	0	32192	
6412	0	32176	
6413	0	32116	
6414	0	32044	
6415	0	31928	
6416	0	31736	
6417	0	31448	
6418	0	30964	
6419	0	30308	
6420	0	29604	
6421	0	29016	
6422	0	28572	
6423	0	28272	
6424	0	28192	
6425	0	28364	
6426	0	28756	
6427	0	29388	
6428	0	30272	
6429	0	31332	
6430	0	32662	
6431	0	34176	
6432	0	35884	
6433	0	37736	
6434	0	39700	
6435	0	42160	
6436	0	44976	
6437	0	48152	
6438	0	51864	
6439	0	55728	
6440	0	59360	
6441	0	62312	
6442	0	63932	
6443	0	64760	
6444	0	65152	
6445	0	65304	
6446	0	65312	
6447	0	65280	
6448	0	65192	
6449	0	65080	
6450	0	64968	
6451	0	64836	
6452	0	64708	
6453	0	64588	
6454	0	59636	
6455	0	54248	
6456	0	49936	
6457	0	46272	
6458	0	43132	
6459	0	40368	
6460	0	37912	
6461	0	35840	
6462	0	34122	
6463	0	32724	
6464	0	31536	
6465	0	30488	
6466	0	29536	
6467	0	28760	
6468	0	28180	
6469	0	27784	
6470	0	27572	
6471	0	27480	
6472	0	27412	
6473	0	27272	
6474	0	27100	
6475	0	26928	
6476	0	26852	
6477	0	26892	
6478	0	27018	
6479	0	27204	
6480	0	27380	
6481	0	27544	
6482	0	27688	
6483	0	27820	
6484	0	27912	
6485	0	27976	
6486	0	28044	
6487	0	28056	
6488	0	28020	
6489	0	27988	
6490	0	27992	
6491	0	27992	
6492	0	27964	
6493	0	27972	
6494	0	27988	
6495	0	27984	
6496	0	27944	
6497	0	27866	
6498	0	27796	
6499	0	27768	
6500	0	27784	
6501	0	27838	
6502	0	27956	
6503	0	28052	
6504	0	28068	
6505	0	28100	
6506	0	28154	
6507	0	28192	
6508	0	28200	
6509	0	28264	
6510	0	28364	
6511	0	28432	
6512	0	28520	
6513	0	28588	
6514	0	28608	
6515	0	28744	
6516	0	28884	
6517	0	28944	
6518	0	28928	
6519	0	28928	
6520	0	28986	
6521	0	29096	
6522	0	29136	
6523	0	29152	
6524	0	29144	
6525	0	29192	
6526	0	29260	
6527	0	29352	
6528	0	29392	
6529	0	29330	
6530	0	29300	
6531	0	29344	
6532	0	29360	
6533	0	29416	
6534	0	29480	
6535	0	29530	
6536	0	29652	
6537	0	29736	
6538	0	29780	
6539	0	29876	
6540	0	29980	
6541	0	30056	
6542	0	30162	
6543	0	30292	
6544	0	30312	
6545	0	30296	
6546	0	30304	
6547	0	30388	
6548	0	30512	
6549	0	30584	
6550	0	30610	
6551	0	30592	
6552	0	30652	
6553	0	30716	
6554	0	30752	
6555	0	30784	
6556	0	30832	
6557	0	30908	
6558	0	30984	
6559	0	31032	
6560	0	31072	
6561	0	31132	
6562	0	31200	
6563	0	31266	
6564	0	31308	
6565	0	31324	
6566	0	31368	
6567	0	31456	
6568	0	31512	
6569	0	31552	
6570	0	31592	
6571	0	31648	
6572	0	31754	
6573	0	31824	
6574	0	31840	
6575	0	31892	
6576	0	31960	
6577	0	32044	
6578	0	32132	
6579	0	32192	
6580	0	32272	
6581	0	32344	
6582	0	32304	
6583	0	32268	
6584	0	32320	
6585	0	32416	
6586	0	32466	
6587	0	32542	
6588	0	32640	
6589	0	32728	
6590	0	32772	
6591	0	32830	
6592	0	32884	
6593	0	32976	
6594	0	33088	
6595	0	33164	
6596	0	33276	
6597	0	33376	
6598	0	33432	
6599	0	33544	
6600	0	33708	
6601	0	33788	
6602	0	33800	
6603	0	33824	
6604	0	33868	
6605	0	33920	
6606	0	33920	
6607	0	33980	
6608	0	34032	
6609	0	34072	
6610	0	34144	
6611	0	34268	
6612	0	34380	
6613	0	34468	
6614	0	34616	
6615	0	34792	
6616	0	34908	
6617	0	34996	
6618	0	35072	
6619	0	35112	
6620	0	35152	
6621	0	35208	
6622	0	35328	
6623	0	35472	
6624	0	35604	
6625	0	35712	
6626	0	35756	
6627	0	35808	
6628	0	35916	
6629	0	36032	
6630	0	36152	
6631	0	36232	
6632	0	36320	
6633	0	36376	
6634	0	36432	
6635	0	36500	
6636	0	36580	
6637	0	36644	
6638	0	36722	
6639	0	36752	
6640	0	36804	
6641	0	36888	
6642	0	37048	
6643	0	37146	
6644	0	37196	
6645	0	37240	
6646	0	37212	
6647	0	37136	
6648	0	37076	
6649	0	37060	
6650	0	37092	
6651	0	37140	
6652	0	37168	
6653	0	37216	
6654	0	37240	
6655	0	37196	
6656	0	37220	
6657	0	37312	
6658	0	37380	
6659	0	37304	
6660	0	37308	
6661	0	37304	
6662	0	37164	
6663	0	37018	
6664	0	37028	
6665	0	37048	
6666	0	37032	
6667	0	36948	
6668	0	36800	
6669	0	36744	
6670	0	36828	
6671	0	36860	
6672	0	36816	
6673	0	36740	
6674	0	36680	
6675	0	36644	
6676	0	36660	
6677	0	36620	
6678	0	36484	
6679	0	36348	
6680	0	36236	
6681	0	36112	
6682	0	35948	
6683	0	35696	
6684	0	35476	
6685	0	35340	
6686	0	35192	
6687	0	35024	
6688	0	34896	
6689	0	34768	
6690	0	34540	
6691	0	34286	
6692	0	34108	
6693	0	33952	
6694	0	33824	
6695	0	33600	
6696	0	33352	
6697	0	33152	
6698	0	33036	
6699	0	32916	
6700	0	32788	
6701	0	32566	
6702	0	32228	
6703	0	32000	
6704	0	31856	
6705	0	31664	
6706	0	31408	
6707	0	31200	
6708	0	31052	
6709	0	30884	
6710	0	30736	
6711	0	30652	
6712	0	30560	
6713	0	30460	
6714	0	30352	
6715	0	30280	
6716	0	30112	
6717	0	29992	
6718	0	29868	
6719	0	29704	
6720	0	29558	
6721	0	29440	
6722	0	29376	
6723	0	29276	
6724	0	29200	
6725	0	29130	
6726	0	29012	
6727	0	28952	
6728	0	28944	
6729	0	28916	
6730	0	28902	
6731	0	28936	
6732	0	28948	
6733	0	28928	
6734	0	28900	
6735	0	28916	
6736	0	28876	
6737	0	28896	
6738	0	28912	
6739	0	28920	
6740	0	28874	
6741	0	28784	
6742	0	28824	
6743	0	28868	
6744	0	28890	
6745	0	28900	
6746	0	28928	
6747	0	28944	
6748	0	28932	
6749	0	28956	
6750	0	28985	
6751	0	28960	
6752	0	28968	
6753	0	29024	
6754	0	29068	
6755	0	29120	
6756	0	29200	
6757	0	29236	
6758	0	29308	
6759	0	29300	
6760	0	29280	
6761	0	29256	
6762	0	29248	
6763	0	29232	
6764	0	29300	
6765	0	29304	
6766	0	29276	
6767	0	29232	
6768	0	29210	
6769	0	29244	
6770	0	29316	
6771	0	29388	
6772	0	29480	
6773	0	29608	
6774	0	29714	
6775	0	29800	
6776	0	29832	
6777	0	29826	
6778	0	29888	
6779	0	29934	
6780	0	29940	
6781	0	30036	
6782	0	30048	
6783	0	30040	
6784	0	30084	
6785	0	30112	
6786	0	30104	
6787	0	30080	
6788	0	30040	
6789	0	30004	
6790	0	30036	
6791	0	30154	
6792	0	30260	
6793	0	30364	
6794	0	30464	
6795	0	30484	
6796	0	30468	
6797	0	30484	
6798	0	30538	
6799	0	30584	
6800	0	30654	
6801	0	30724	
6802	0	30762	
6803	0	30806	
6804	0	30876	
6805	0	30856	
6806	0	30808	
6807	0	30844	
6808	0	30864	
6809	0	30876	
6810	0	30904	
6811	0	30964	
6812	0	31000	
6813	0	31012	
6814	0	31008	
6815	0	31040	
6816	0	31168	
6817	0	31288	
6818	0	31352	
6819	0	31332	
6820	0	31308	
6821	0	31296	
6822	0	31368	
6823	0	31434	
6824	0	31470	
6825	0	31469	
6826	0	31480	
6827	0	31456	
6828	0	31412	
6829	0	31346	
6830	0	31390	
6831	0	31508	
6832	0	31584	
6833	0	31626	
6834	0	31616	
6835	0	31600	
6836	0	31612	
6837	0	31568	
6838	0	31536	
6839	0	31592	
6840	0	31628	
6841	0	31636	
6842	0	31684	
6843	0	31700	
6844	0	31668	
6845	0	31656	
6846	0	31692	
6847	0	31800	
6848	0	31880	
6849	0	31856	
6850	0	31872	
6851	0	31808	
6852	0	31700	
6853	0	31680	
6854	0	31744	
6855	0	31852	
6856	0	31896	
6857	0	31890	
6858	0	31946	
6859	0	32060	
6860	0	32114	
6861	0	32092	
6862	0	32036	
6863	0	32040	
6864	0	32068	
6865	0	32076	
6866	0	32008	
6867	0	31936	
6868	0	31924	
6869	0	31980	
6870	0	32002	
6871	0	31928	
6872	0	31900	
6873	0	31928	
6874	0	31948	
6875	0	31910	
6876	0	31896	
6877	0	31936	
6878	0	31988	
6879	0	32012	
6880	0	31972	
6881	0	31936	
6882	0	31920	
6883	0	32006	
6884	0	32060	
6885	0	32080	
6886	0	32080	
6887	0	32078	
6888	0	32068	
6889	0	32088	
6890	0	32084	
6891	0	32068	
6892	0	32080	
6893	0	32112	
6894	0	32136	
6895	0	32192	
6896	0	32186	
6897	0	32188	
6898	0	32232	
6899	0	32256	
6900	0	32160	
6901	0	32116	
6902	0	32152	
6903	0	32188	
6904	0	32136	
6905	0	32040	
6906	0	31976	
6907	0	32014	
6908	0	32156	
6909	0	32180	
6910	0	32116	
6911	0	32072	
6912	0	32092	
6913	0	32112	
6914	0	32144	
6915	0	32152	
6916	0	32128	
6917	0	32032	
6918	0	32032	
6919	0	32080	
6920	0	32116	
6921	0	32152	
6922	0	32164	
6923	0	32184	
6924	0	32172	
6925	0	32160	
6926	0	32190	
6927	0	32220	
6928	0	32188	
6929	0	32120	
6930	0	32092	
6931	0	32120	
6932	0	32140	
6933	0	32172	
6934	0	32180	
6935	0	32200	
6936	0	32256	
6937	0	32330	
6938	0	32388	
6939	0	32368	
6940	0	32304	
6941	0	32272	
6942	0	32260	
6943	0	32208	
6944	0	32218	
6945	0	32256	
6946	0	32240	
6947	0	32192	
6948	0	32204	
6949	0	32248	
6950	0	32272	
6951	0	32300	
6952	0	32388	
6953	0	32436	
6954	0	32416	
6955	0	32348	
6956	0	32312	
6957	0	32372	
6958	0	32442	
6959	0	32442	
6960	0	32448	
6961	0	32416	
6962	0	32396	
6963	0	32404	
6964	0	32384	
6965	0	32360	
6966	0	32272	
6967	0	32196	
6968	0	32144	
6969	0	32140	
6970	0	32096	
6971	0	32132	
6972	0	32224	
6973	0	32262	
6974	0	32308	
6975	0	32404	
6976	0	32476	
6977	0	32456	
6978	0	32400	
6979	0	32356	
6980	0	32353	
6981	0	32448	
6982	0	32540	
6983	0	32544	
6984	0	32576	
6985	0	32560	
6986	0	32540	
6987	0	32628	
6988	0	32780	
6989	0	32940	
6990	0	33104	
6991	0	33180	
6992	0	33216	
6993	0	33264	
6994	0	33306	
6995	0	33352	
6996	0	33408	
6997	0	33408	
6998	0	33408	
6999	0	33432	
7000	0	33424	
7001	0	33416	
7002	0	33352	
7003	0	33340	
7004	0	33340	
7005	0	33344	
7006	0	33396	
7007	0	33300	
7008	0	33204	
7009	0	33200	
7010	0	33296	
7011	0	33448	
7012	0	33528	
7013	0	33640	
7014	0	33848	
7015	0	34104	
7016	0	34400	
7017	0	34668	
7018	0	34872	
7019	0	35002	
7020	0	35052	
7021	0	35088	
7022	0	35160	
7023	0	35322	
7024	0	35452	
7025	0	35524	
7026	0	35500	
7027	0	35424	
7028	0	35292	
7029	0	35168	
7030	0	35064	
7031	0	34976	
7032	0	34972	
7033	0	34908	
7034	0	34704	
7035	0	34528	
7036	0	34376	
7037	0	34242	
7038	0	34128	
7039	0	33996	
7040	0	33864	
7041	0	33680	
7042	0	33582	
7043	0	33476	
7044	0	33404	
7045	0	33292	
7046	0	33252	
7047	0	33240	
7048	0	33244	
7049	0	33180	
7050	0	33104	
7051	0	33068	
7052	0	33056	
7053	0	32972	
7054	0	32828	
7055	0	32680	
7056	0	32548	
7057	0	32472	
7058	0	32484	
7059	0	32432	
7060	0	32344	
7061	0	32264	
7062	0	32196	
7063	0	32108	
7064	0	32008	
7065	0	31932	
7066	0	31848	
7067	0	31808	
7068	0	31736	
7069	0	31612	
7070	0	31516	
7071	0	31480	
7072	0	31500	
7073	0	31544	
7074	0	31570	
7075	0	31624	
7076	0	31636	
7077	0	31632	
7078	0	31624	
7079	0	31672	
7080	0	31712	
7081	0	31736	
7082	0	31784	
7083	0	31792	
7084	0	31760	
7085	0	31736	
7086	0	31768	
7087	0	31828	
7088	0	31876	
7089	0	31936	
7090	0	31968	
7091	0	31952	
7092	0	31924	
7093	0	31932	
7094	0	32016	
7095	0	32098	
7096	0	32144	
7097	0	32156	
7098	0	32092	
7099	0	32018	
7100	0	31956	
7101	0	31968	
7102	0	31962	
7103	0	32020	
7104	0	32116	
7105	0	32224	
7106	0	32290	
7107	0	32320	
7108	0	32304	
7109	0	32204	
7110	0	32016	
7111	0	31708	
7112	0	31272	
7113	0	30672	
7114	0	29972	
7115	0	29288	
7116	0	28744	
7117	0	28460	
7118	0	28440	
7119	0	28616	
7120	0	28954	
7121	0	29484	
7122	0	30320	
7123	0	31392	
7124	0	32744	
7125	0	34224	
7126	0	35804	
7127	0	37524	
7128	0	39408	
7129	0	41640	
7130	0	44336	
7131	0	47408	
7132	0	50888	
7133	0	54584	
7134	0	58176	
7135	0	61428	
7136	0	63388	
7137	0	64396	
7138	0	64896	
7139	0	65092	
7140	0	65156	
7141	0	65132	
7142	0	65040	
7143	0	64936	
7144	0	64848	
7145	0	64704	
7146	0	64568	
7147	0	64440	
7148	0	59200	
7149	0	53996	
7150	0	49804	
7151	0	46320	
7152	0	43428	
7153	0	40928	
7154	0	38626	
7155	0	36552	
7156	0	34740	
7157	0	33184	
7158	0	31864	
7159	0	30770	
7160	0	29736	
7161	0	28896	
7162	0	28280	
7163	0	27936	
7164	0	27768	
7165	0	27732	
7166	0	27704	
7167	0	27504	
7168	0	27324	
7169	0	27205	
7170	0	27136	
7171	0	27160	
7172	0	27204	
7173	0	27296	
7174	0	27408	
7175	0	27572	
7176	0	27780	
7177	0	28000	
7178	0	28224	
7179	0	28376	
7180	0	28464	
7181	0	28504	
7182	0	28480	
7183	0	28496	
7184	0	28494	
7185	0	28492	
7186	0	28492	
7187	0	28474	
7188	0	28512	
7189	0	28546	
7190	0	28548	
7191	0	28544	
7192	0	28634	
7193	0	28696	
7194	0	28740	
7195	0	28772	
7196	0	28706	
7197	0	28698	
7198	0	28740	
7199	0	28800	
7200	0	28880	
7201	0	28912	
7202	0	28880	
7203	0	28898	
7204	0	28960	
7205	0	28932	
7206	0	28820	
7207	0	28752	
7208	0	28760	
7209	0	28832	
7210	0	28870	
7211	0	28860	
7212	0	28900	
7213	0	28924	
7214	0	28968	
7215	0	29028	
7216	0	29152	
7217	0	29244	
7218	0	29316	
7219	0	29348	
7220	0	29410	
7221	0	29528	
7222	0	29668	
7223	0	29752	
7224	0	29788	
7225	0	29832	
7226	0	29874	
7227	0	29856	
7228	0	29876	
7229	0	29964	
7230	0	30016	
7231	0	30060	
7232	0	30112	
7233	0	30200	
7234	0	30260	
7235	0	30288	
7236	0	30256	
7237	0	30242	
7238	0	30264	
7239	0	30312	
7240	0	30400	
7241	0	30512	
7242	0	30568	
7243	0	30588	
7244	0	30644	
7245	0	30752	
7246	0	30832	
7247	0	30868	
7248	0	30888	
7249	0	30984	
7250	0	31026	
7251	0	31036	
7252	0	31072	
7253	0	31116	
7254	0	31212	
7255	0	31312	
7256	0	31408	
7257	0	31474	
7258	0	31456	
7259	0	31432	
7260	0	31448	
7261	0	31480	
7262	0	31530	
7263	0	31600	
7264	0	31688	
7265	0	31756	
7266	0	31762	
7267	0	31766	
7268	0	31824	
7269	0	31856	
7270	0	31952	
7271	0	32084	
7272	0	32156	
7273	0	32204	
7274	0	32304	
7275	0	32320	
7276	0	32372	
7277	0	32424	
7278	0	32464	
7279	0	32496	
7280	0	32576	
7281	0	32656	
7282	0	32736	
7283	0	32824	
7284	0	32904	
7285	0	32960	
7286	0	33060	
7287	0	33108	
7288	0	33152	
7289	0	33236	
7290	0	33292	
7291	0	33416	
7292	0	33504	
7293	0	33504	
7294	0	33508	
7295	0	33496	
7296	0	33576	
7297	0	33716	
7298	0	33732	
7299	0	33724	
7300	0	33788	
7301	0	33920	
7302	0	34048	
7303	0	34204	
7304	0	34336	
7305	0	34488	
7306	0	34592	
7307	0	34636	
7308	0	34672	
7309	0	34688	
7310	0	34732	
7311	0	34816	
7312	0	34876	
7313	0	34992	
7314	0	35148	
7315	0	35240	
7316	0	35332	
7317	0	35404	
7318	0	35440	
7319	0	35480	
7320	0	35548	
7321	0	35620	
7322	0	35744	
7323	0	35858	
7324	0	35994	
7325	0	36044	
7326	0	36096	
7327	0	36140	
7328	0	36156	
7329	0	36172	
7330	0	36160	
7331	0	36184	
7332	0	36234	
7333	0	36288	
7334	0	36340	
7335	0	36408	
7336	0	36516	
7337	0	36612	
7338	0	36692	
7339	0	36708	
7340	0	36668	
7341	0	36652	
7342	0	36756	
7343	0	36826	
7344	0	36844	
7345	0	36808	
7346	0	36768	
7347	0	36796	
7348	0	36848	
7349	0	36884	
7350	0	36892	
7351	0	36900	
7352	0	36928	
7353	0	36948	
7354	0	36896	
7355	0	36856	
7356	0	36880	
7357	0	36848	
7358	0	36824	
7359	0	36808	
7360	0	36824	
7361	0	36820	
7362	0	36708	
7363	0	36556	
7364	0	36548	
7365	0	36512	
7366	0	36410	
7367	0	36348	
7368	0	36340	
7369	0	36358	
7370	0	36324	
7371	0	36218	
7372	0	36104	
7373	0	35996	
7374	0	35908	
7375	0	35808	
7376	0	35668	
7377	0	35468	
7378	0	35262	
7379	0	35152	
7380	0	35062	
7381	0	34936	
7382	0	34776	
7383	0	34592	
7384	0	34444	
7385	0	34260	
7386	0	34048	
7387	0	33840	
7388	0	33640	
7389	0	33480	
7390	0	33296	
7391	0	33112	
7392	0	32952	
7393	0	32812	
7394	0	32652	
7395	0	32496	
7396	0	32288	
7397	0	32060	
7398	0	31908	
7399	0	31760	
7400	0	31616	
7401	0	31480	
7402	0	31364	
7403	0	31280	
7404	0	31124	
7405	0	30960	
7406	0	30820	
7407	0	30680	
7408	0	30576	
7409	0	30444	
7410	0	30334	
7411	0	30232	
7412	0	30088	
7413	0	29964	
7414	0	29880	
7415	0	29828	
7416	0	29760	
7417	0	29652	
7418	0	29508	
7419	0	29392	
7420	0	29340	
7421	0	29322	
7422	0	29260	
7423	0	29188	
7424	0	29172	
7425	0	29132	
7426	0	29128	
7427	0	29114	
7428	0	29072	
7429	0	29054	
7430	0	29038	
7431	0	29016	
7432	0	29000	
7433	0	28952	
7434	0	28920	
7435	0	28904	
7436	0	28906	
7437	0	28912	
7438	0	28940	
7439	0	28944	
7440	0	28952	
7441	0	28976	
7442	0	28976	
7443	0	28992	
7444	0	28984	
7445	0	28960	
7446	0	28944	
7447	0	28928	
7448	0	28928	
7449	0	28908	
7450	0	28916	
7451	0	28948	
7452	0	29028	
7453	0	29092	
7454	0	29120	
7455	0	29148	
7456	0	29190	
7457	0	29240	
7458	0	29284	
7459	0	29304	
7460	0	29350	
7461	0	29384	
7462	0	29444	
7463	0	29480	
7464	0	29514	
7465	0	29552	
7466	0	29592	
7467	0	29640	
7468	0	29672	
7469	0	29728	
7470	0	29760	
7471	0	29820	
7472	0	29860	
7473	0	29888	
7474	0	29914	
7475	0	29916	
7476	0	29920	
7477	0	29980	
7478	0	30004	
7479	0	30024	
7480	0	30084	
7481	0	30168	
7482	0	30236	
7483	0	30240	
7484	0	30296	
7485	0	30400	
7486	0	30444	
7487	0	30432	
7488	0	30476	
7489	0	30524	
7490	0	30596	
7491	0	30648	
7492	0	30632	
7493	0	30638	
7494	0	30684	
7495	0	30780	
7496	0	30836	
7497	0	30832	
7498	0	30848	
7499	0	30848	
7500	0	30860	
7501	0	30804	
7502	0	30844	
7503	0	30964	
7504	0	30972	
7505	0	30976	
7506	0	30968	
7507	0	30946	
7508	0	31000	
7509	0	31084	
7510	0	31156	
7511	0	31228	
7512	0	31308	
7513	0	31344	
7514	0	31312	
7515	0	31300	
7516	0	31322	
7517	0	31298	
7518	0	31316	
7519	0	31354	
7520	0	31344	
7521	0	31360	
7522	0	31424	
7523	0	31464	
7524	0	31540	
7525	0	31546	
7526	0	31552	
7527	0	31576	
7528	0	31620	
7529	0	31636	
7530	0	31656	
7531	0	31680	
7532	0	31624	
7533	0	31572	
7534	0	31600	
7535	0	31620	
7536	0	31676	
7537	0	31708	
7538	0	31708	
7539	0	31750	
7540	0	31768	
7541	0	31796	
7542	0	31820	
7543	0	31840	
7544	0	31868	
7545	0	31864	
7546	0	31872	
7547	0	31868	
7548	0	31860	
7549	0	31900	
7550	0	31960	
7551	0	31938	
7552	0	31920	
7553	0	31896	
7554	0	31860	
7555	0	31840	
7556	0	31860	
7557	0	31872	
7558	0	31864	
7559	0	31866	
7560	0	31840	
7561	0	31844	
7562	0	31844	
7563	0	31852	
7564	0	31844	
7565	0	31856	
7566	0	31852	
7567	0	31840	
7568	0	31792	
7569	0	31770	
7570	0	31788	
7571	0	31872	
7572	0	31936	
7573	0	31936	
7574	0	31888	
7575	0	31860	
7576	0	31890	
7577	0	31920	
7578	0	31928	
7579	0	31940	
7580	0	31916	
7581	0	31970	
7582	0	32064	
7583	0	32128	
7584	0	32144	
7585	0	32132	
7586	0	32072	
7587	0	31972	
7588	0	31952	
7589	0	31972	
7590	0	32018	
7591	0	32016	
7592	0	31984	
7593	0	31980	
7594	0	32016	
7595	0	32020	
7596	0	32052	
7597	0	32044	
7598	0	32012	
7599	0	32016	
7600	0	32008	
7601	0	31978	
7602	0	31972	
7603	0	32002	
7604	0	31996	
7605	0	32012	
7606	0	32084	
7607	0	32134	
7608	0	32128	
7609	0	32044	
7610	0	31936	
7611	0	31872	
7612	0	31948	
7613	0	32012	
7614	0	32012	
7615	0	31992	
7616	0	31984	
7617	0	32008	
7618	0	32048	
7619	0	32044	
7620	0	32036	
7621	0	32004	
7622	0	32040	
7623	0	32116	
7624	0	32164	
7625	0	32136	
7626	0	32132	
7627	0	32160	
7628	0	32182	
7629	0	32224	
7630	0	32210	
7631	0	32148	
7632	0	32128	
7633	0	32188	
7634	0	32192	
7635	0	32224	
7636	0	32304	
7637	0	32308	
7638	0	32268	
7639	0	32240	
7640	0	32232	
7641	0	32256	
7642	0	32268	
7643	0	32324	
7644	0	32348	
7645	0	32340	
7646	0	32304	
7647	0	32300	
7648	0	32288	
7649	0	32296	
7650	0	32244	
7651	0	32236	
7652	0	32244	
7653	0	32256	
7654	0	32284	
7655	0	32324	
7656	0	32320	
7657	0	32288	
7658	0	32248	
7659	0	32220	
7660	0	32254	
7661	0	32296	
7662	0	32328	
7663	0	32344	
7664	0	32330	
7665	0	32312	
7666	0	32314	
7667	0	32352	
7668	0	32360	
7669	0	32312	
7670	0	32276	
7671	0	32332	
7672	0	32364	
7673	0	32424	
7674	0	32448	
7675	0	32508	
7676	0	32538	
7677	0	32600	
7678	0	32608	
7679	0	32568	
7680	0	32608	
7681	0	32780	
7682	0	32764	
7683	0	32656	
7684	0	32558	
7685	0	32508	
7686	0	32552	
7687	0	32528	
7688	0	32440	
7689	0	32376	
7690	0	32388	
7691	0	32436	
7692	0	32436	
7693	0	32456	
7694	0	32458	
7695	0	32500	
7696	0	32444	
7697	0	32452	
7698	0	32540	
7699	0	32584	
7700	0	32640	
7701	0	32684	
7702	0	32728	
7703	0	32712	
7704	0	32700	
7705	0	32684	
7706	0	32692	
7707	0	32740	
7708	0	32740	
7709	0	32696	
7710	0	32700	
7711	0	32704	
7712	0	32716	
7713	0	32768	
7714	0	32816	
7715	0	32824	
7716	0	32804	
7717	0	32828	
7718	0	32842	
7719	0	32836	
7720	0	32904	
7721	0	33012	
7722	0	33104	
7723	0	33148	
7724	0	33218	
7725	0	33268	
7726	0	33320	
7727	0	33412	
7728	0	33508	
7729	0	33544	
7730	0	33552	
7731	0	33572	
7732	0	33604	
7733	0	33634	
7734	0	33640	
7735	0	33614	
7736	0	33544	
7737	0	33466	
7738	0	33338	
7739	0	33272	
7740	0	33304	
7741	0	33368	
7742	0	33412	
7743	0	33456	
7744	0	33472	
7745	0	33524	
7746	0	33664	
7747	0	33884	
7748	0	34216	
7749	0	34552	
7750	0	34832	
7751	0	34972	
7752	0	35044	
7753	0	35128	
7754	0	35272	
7755	0	35448	
7756	0	35624	
7757	0	35680	
7758	0	35588	
7759	0	35456	
7760	0	35296	
7761	0	35132	
7762	0	35096	
7763	0	35088	
7764	0	35040	
7765	0	34932	
7766	0	34740	
7767	0	34562	
7768	0	34416	
7769	0	34290	
7770	0	34130	
7771	0	33976	
7772	0	33884	
7773	0	33836	
7774	0	33752	
7775	0	33640	
7776	0	33580	
7777	0	33556	
7778	0	33530	
7779	0	33504	
7780	0	33476	
7781	0	33400	
7782	0	33284	
7783	0	33176	
7784	0	33116	
7785	0	33024	
7786	0	32948	
7787	0	32832	
7788	0	32736	
7789	0	32696	
7790	0	32664	
7791	0	32640	
7792	0	32640	
7793	0	32618	
7794	0	32548	
7795	0	32448	
7796	0	32352	
7797	0	32268	
7798	0	32156	
7799	0	32008	
7800	0	31876	
7801	0	31840	
7802	0	31848	
7803	0	31848	
7804	0	31844	
7805	0	31812	
7806	0	31752	
7807	0	31688	
7808	0	31736	
7809	0	31804	
7810	0	31834	
7811	0	31812	
7812	0	31792	
7813	0	31796	
7814	0	31746	
7815	0	31688	
7816	0	31700	
7817	0	31752	
7818	0	31808	
7819	0	31840	
7820	0	31852	
7821	0	31856	
7822	0	31872	
7823	0	31872	
7824	0	31844	
7825	0	31840	
7826	0	31864	
7827	0	31936	
7828	0	32008	
7829	0	32028	
7830	0	32060	
7831	0	32092	
7832	0	32128	
7833	0	32148	
7834	0	32176	
7835	0	32216	
7836	0	32264	
7837	0	32296	
7838	0	32336	
7839	0	32332	
7840	0	32236	
7841	0	32036	
7842	0	31832	
7843	0	31484	
7844	0	30976	
7845	0	30300	
7846	0	29548	
7847	0	28920	
7848	0	28504	
7849	0	28340	
7850	0	28428	
7851	0	28728	
7852	0	29208	
7853	0	29896	
7854	0	30848	
7855	0	32032	
7856	0	33384	
7857	0	34924	
7858	0	36580	
7859	0	38304	
7860	0	40194	
7861	0	42552	
7862	0	45304	
7863	0	48448	
7864	0	51936	
7865	0	55504	
7866	0	58916	
7867	0	61848	
7868	0	63512	
7869	0	64356	
7870	0	64768	
7871	0	64948	
7872	0	64944	
7873	0	64912	
7874	0	64832	
7875	0	64708	
7876	0	64588	
7877	0	64480	
7878	0	64356	
7879	0	61996	
7880	0	56160	
7881	0	51574	
7882	0	47764	
7883	0	44604	
7884	0	41972	
7885	0	39612	
7886	0	37456	
7887	0	35568	
7888	0	33808	
7889	0	32242	
7890	0	30938	
7891	0	29856	
7892	0	28888	
7893	0	28234	
7894	0	27860	
7895	0	27712	
7896	0	27724	
7897	0	27752	
7898	0	27704	
7899	0	27512	
7900	0	27324	
7901	0	27192	
7902	0	27136	
7903	0	27144	
7904	0	27194	
7905	0	27336	
7906	0	27488	
7907	0	27625	
7908	0	27784	
7909	0	27992	
7910	0	28232	
7911	0	28360	
7912	0	28432	
7913	0	28464	
7914	0	28480	
7915	0	28500	
7916	0	28456	
7917	0	28416	
7918	0	28368	
7919	0	28376	
7920	0	28376	
7921	0	28368	
7922	0	28368	
7923	0	28388	
7924	0	28416	
7925	0	28440	
7926	0	28452	
7927	0	28448	
7928	0	28472	
7929	0	28504	
7930	0	28552	
7931	0	28596	
7932	0	28664	
7933	0	28720	
7934	0	28768	
7935	0	28752	
7936	0	28760	
7937	0	28816	
7938	0	28848	
7939	0	28928	
7940	0	29008	
7941	0	29040	
7942	0	29032	
7943	0	29036	
7944	0	29080	
7945	0	29146	
7946	0	29192	
7947	0	29224	
7948	0	29240	
7949	0	29260	
7950	0	29300	
7951	0	29372	
7952	0	29440	
7953	0	29516	
7954	0	29592	
7955	0	29660	
7956	0	29704	
7957	0	29788	
7958	0	29846	
7959	0	29924	
7960	0	29984	
7961	0	30026	
7962	0	30100	
7963	0	30170	
7964	0	30250	
7965	0	30296	
7966	0	30372	
7967	0	30450	
7968	0	30512	
7969	0	30574	
7970	0	30584	
7971	0	30628	
7972	0	30644	
7973	0	30668	
7974	0	30688	
7975	0	30720	
7976	0	30752	
7977	0	30824	
7978	0	30880	
7979	0	30932	
7980	0	30960	
7981	0	30992	
7982	0	31048	
7983	0	31132	
7984	0	31220	
7985	0	31280	
7986	0	31320	
7987	0	31384	
7988	0	31482	
7989	0	31584	
7990	0	31636	
7991	0	31620	
7992	0	31616	
7993	0	31672	
7994	0	31772	
7995	0	31810	
7996	0	31808	
7997	0	31832	
7998	0	31868	
7999	0	31920	
8000	0	31992	
8001	0	32100	
8002	0	32192	
8003	0	32232	
8004	0	32324	
8005	0	32468	
8006	0	32556	
8007	0	32596	
8008	0	32646	
8009	0	32688	
8010	0	32716	
8011	0	32744	
8012	0	32804	
8013	0	32884	
8014	0	33006	
8015	0	33144	
8016	0	33240	
8017	0	33280	
8018	0	33276	
8019	0	33272	
8020	0	33304	
8021	0	33332	
8022	0	33368	
8023	0	33440	
8024	0	33528	
8025	0	33608	
8026	0	33652	
8027	0	33736	
8028	0	33860	
8029	0	33940	
8030	0	34028	
8031	0	34112	
8032	0	34172	
8033	0	34236	
8034	0	34364	
8035	0	34460	
8036	0	34496	
8037	0	34488	
8038	0	34496	
8039	0	34560	
8040	0	34596	
8041	0	34640	
8042	0	34696	
8043	0	34776	
8044	0	34882	
8045	0	34960	
8046	0	35022	
8047	0	35088	
8048	0	35156	
8049	0	35244	
8050	0	35352	
8051	0	35468	
8052	0	35544	
8053	0	35632	
8054	0	35728	
8055	0	35816	
8056	0	35904	
8057	0	35984	
8058	0	36072	
8059	0	36156	
8060	0	36200	
8061	0	36268	
8062	0	36384	
8063	0	36448	
8064	0	36508	
8065	0	36560	
8066	0	36584	
8067	0	36600	
8068	0	36576	
8069	0	36512	
8070	0	36484	
8071	0	36508	
8072	0	36568	
8073	0	36640	
8074	0	36716	
8075	0	36768	
8076	0	36780	
8077	0	36772	
8078	0	36752	
8079	0	36716	
8080	0	36652	
8081	0	36630	
8082	0	36602	
8083	0	36592	
8084	0	36592	
8085	0	36592	
8086	0	36616	
8087	0	36616	
8088	0	36616	
8089	0	36640	
8090	0	36652	
8091	0	36668	
8092	0	36652	
8093	0	36632	
8094	0	36636	
8095	0	36620	
8096	0	36576	
8097	0	36500	
8098	0	36420	
8099	0	36320	
8100	0	36184	
8101	0	36036	
8102	0	35960	
8103	0	35912	
8104	0	35848	
8105	0	35756	
8106	0	35640	
8107	0	35524	
8108	0	35424	
8109	0	35304	
8110	0	35196	
8111	0	35086	
8112	0	34968	
8113	0	34844	
8114	0	34732	
8115	0	34640	
8116	0	34512	
8117	0	34348	
8118	0	34160	
8119	0	33912	
8120	0	33600	
8121	0	33364	
8122	0	33216	
8123	0	33056	
8124	0	32924	
8125	0	32780	
8126	0	32628	
8127	0	32464	
8128	0	32292	
8129	0	32172	
8130	0	32096	
8131	0	32024	
8132	0	31936	
8133	0	31808	
8134	0	31632	
8135	0	31460	
8136	0	31304	
8137	0	31176	
8138	0	31084	
8139	0	30994	
8140	0	30840	
8141	0	30696	
8142	0	30544	
8143	0	30362	
8144	0	30228	
8145	0	30072	
8146	0	29960	
8147	0	29868	
8148	0	29792	
8149	0	29696	
8150	0	29636	
8151	0	29568	
8152	0	29516	
8153	0	29460	
8154	0	29396	
8155	0	29320	
8156	0	29288	
8157	0	29264	
8158	0	29232	
8159	0	29232	
8160	0	29224	
8161	0	29212	
8162	0	29216	
8163	0	29216	
8164	0	29196	
8165	0	29172	
8166	0	29152	
8167	0	29128	
8168	0	29108	
8169	0	29092	
8170	0	29088	
8171	0	29092	
8172	0	29092	
8173	0	29128	
8174	0	29176	
8175	0	29220	
8176	0	29248	
8177	0	29252	
8178	0	29240	
8179	0	29192	
8180	0	29184	
8181	0	29202	
8182	0	29202	
8183	0	29188	
8184	0	29216	
8185	0	29244	
8186	0	29244	
8187	0	29248	
8188	0	29258	
8189	0	29304	
8190	0	29360	
8191	0	29404	
8192	0	29460	
8193	0	29568	
8194	0	29664	
8195	0	29736	
8196	0	29788	
8197	0	29852	
8198	0	29884	
8199	0	29936	
8200	0	30008	
8201	0	30060	
8202	0	30072	
8203	0	30080	
8204	0	30076	
8205	0	30076	
8206	0	30116	
8207	0	30144	
8208	0	30204	
8209	0	30252	
8210	0	30300	
8211	0	30332	
8212	0	30380	
8213	0	30464	
8214	0	30512	
8215	0	30552	
8216	0	30564	
8217	0	30620	
8218	0	30652	
8219	0	30680	
8220	0	30742	
8221	0	30812	
8222	0	30856	
8223	0	30900	
8224	0	30904	
8225	0	30920	
8226	0	30960	
8227	0	31008	
8228	0	31028	
8229	0	31060	
8230	0	31096	
8231	0	31116	
8232	0	31148	
8233	0	31180	
8234	0	31206	
8235	0	31256	
8236	0	31280	
8237	0	31244	
8238	0	31236	
8239	0	31240	
8240	0	31236	
8241	0	31236	
8242	0	31220	
8243	0	31216	
8244	0	31272	
8245	0	31364	
8246	0	31488	
8247	0	31600	
8248	0	31722	
8249	0	31804	
8250	0	31840	
8251	0	31800	
8252	0	31732	
8253	0	31680	
8254	0	31628	
8255	0	31632	
8256	0	31672	
8257	0	31680	
8258	0	31680	
8259	0	31704	
8260	0	31720	
8261	0	31740	
8262	0	31764	
8263	0	31776	
8264	0	31772	
8265	0	31812	
8266	0	31892	
8267	0	31928	
8268	0	31960	
8269	0	32024	
8270	0	32080	
8271	0	32168	
8272	0	32244	
8273	0	32280	
8274	0	32284	
8275	0	32248	
8276	0	32196	
8277	0	32108	
8278	0	32072	
8279	0	32080	
8280	0	32092	
8281	0	32132	
8282	0	32136	
8283	0	32200	
8284	0	32280	
8285	0	32312	
8286	0	32344	
8287	0	32360	
8288	0	32412	
8289	0	32468	
8290	0	32472	
8291	0	32480	
8292	0	32460	
8293	0	32444	
8294	0	32460	
8295	0	32488	
8296	0	32480	
8297	0	32424	
8298	0	32380	
8299	0	32348	
8300	0	32336	
8301	0	32288	
8302	0	32196	
8303	0	32132	
8304	0	32076	
8305	0	32044	
8306	0	32080	
8307	0	32124	
8308	0	32136	
8309	0	32108	
8310	0	32064	
8311	0	32064	
8312	0	32084	
8313	0	32080	
8314	0	32076	
8315	0	32056	
8316	0	32100	
8317	0	32136	
8318	0	32156	
8319	0	32116	
8320	0	32080	
8321	0	32068	
8322	0	32076	
8323	0	32064	
8324	0	32080	
8325	0	32060	
8326	0	32076	
8327	0	32124	
8328	0	32136	
8329	0	32100	
8330	0	32060	
8331	0	32056	
8332	0	32064	
8333	0	32052	
8334	0	32044	
8335	0	32020	
8336	0	32000	
8337	0	32032	
8338	0	32064	
8339	0	32096	
8340	0	32100	
8341	0	32148	
8342	0	32228	
8343	0	32280	
8344	0	32300	
8345	0	32264	
8346	0	32188	
8347	0	32120	
8348	0	32032	
8349	0	31976	
8350	0	32032	
8351	0	32112	
8352	0	32180	
8353	0	32200	
8354	0	32208	
8355	0	32232	
8356	0	32208	
8357	0	32192	
8358	0	32200	
8359	0	32208	
8360	0	32172	
8361	0	32164	
8362	0	32164	
8363	0	32176	
8364	0	32180	
8365	0	32196	
8366	0	32216	
8367	0	32192	
8368	0	32170	
8369	0	32172	
8370	0	32192	
8371	0	32254	
8372	0	32268	
8373	0	32288	
8374	0	32304	
8375	0	32268	
8376	0	32240	
8377	0	32224	
8378	0	32238	
8379	0	32224	
8380	0	32288	
8381	0	32300	
8382	0	32268	
8383	0	32208	
8384	0	32176	
8385	0	32160	
8386	0	32160	
8387	0	32164	
8388	0	32200	
8389	0	32248	
8390	0	32288	
8391	0	32306	
8392	0	32332	
8393	0	32340	
8394	0	32372	
8395	0	32396	
8396	0	32416	
8397	0	32416	
8398	0	32440	
8399	0	32472	
8400	0	32540	
8401	0	32548	
8402	0	32516	
8403	0	32488	
8404	0	32476	
8405	0	32448	
8406	0	32436	
8407	0	32424	
8408	0	32380	
8409	0	32336	
8410	0	32316	
8411	0	32332	
8412	0	32374	
8413	0	32392	
8414	0	32380	
8415	0	32396	
8416	0	32392	
8417	0	32416	
8418	0	32400	
8419	0	32432	
8420	0	32484	
8421	0	32536	
8422	0	32544	
8423	0	32502	
8424	0	32488	
8425	0	32496	
8426	0	32540	
8427	0	32584	
8428	0	32568	
8429	0	32572	
8430	0	32612	
8431	0	32712	
8432	0	32816	
8433	0	32908	
8434	0	32980	
8435	0	33052	
8436	0	33136	
8437	0	33240	
8438	0	33360	
8439	0	33506	
8440	0	33620	
8441	0	33664	
8442	0	33628	
8443	0	33584	
8444	0	33544	
8445	0	33488	
8446	0	33352	
8447	0	33184	
8448	0	33108	
8449	0	33076	
8450	0	33096	
8451	0	33144	
8452	0	33168	
8453	0	33184	
8454	0	33252	
8455	0	33376	
8456	0	33518	
8457	0	33648	
8458	0	33872	
8459	0	34160	
8460	0	34432	
8461	0	34676	
8462	0	34880	
8463	0	35024	
8464	0	35152	
8465	0	35248	
8466	0	35344	
8467	0	35448	
8468	0	35584	
8469	0	35608	
8470	0	35612	
8471	0	35504	
8472	0	35384	
8473	0	35296	
8474	0	35200	
8475	0	35108	
8476	0	35050	
8477	0	34972	
8478	0	34828	
8479	0	34652	
8480	0	34466	
8481	0	34344	
8482	0	34236	
8483	0	34116	
8484	0	33984	
8485	0	33832	
8486	0	33692	
8487	0	33592	
8488	0	33520	
8489	0	33448	
8490	0	33420	
8491	0	33392	
8492	0	33320	
8493	0	33204	
8494	0	33082	
8495	0	32944	
8496	0	32876	
8497	0	32796	
8498	0	32732	
8499	0	32696	
8500	0	32676	
8501	0	32614	
8502	0	32584	
8503	0	32512	
8504	0	32448	
8505	0	32382	
8506	0	32320	
8507	0	32276	
8508	0	32196	
8509	0	32104	
8510	0	32020	
8511	0	31952	
8512	0	31928	
8513	0	31904	
8514	0	31900	
8515	0	31936	
8516	0	32028	
8517	0	32104	
8518	0	32108	
8519	0	32028	
8520	0	31964	
8521	0	31928	
8522	0	31906	
8523	0	31872	
8524	0	31808	
8525	0	31756	
8526	0	31752	
8527	0	31804	
8528	0	31848	
8529	0	31872	
8530	0	31898	
8531	0	31946	
8532	0	31980	
8533	0	32032	
8534	0	32088	
8535	0	32148	
8536	0	32220	
8537	0	32268	
8538	0	32208	
8539	0	32096	
8540	0	32056	
8541	0	32060	
8542	0	32076	
8543	0	32088	
8544	0	32112	
8545	0	32132	
8546	0	32098	
8547	0	32064	
8548	0	32044	
8549	0	32064	
8550	0	32092	
8551	0	32096	
8552	0	32036	
8553	0	31936	
8554	0	31794	
8555	0	31576	
8556	0	31216	
8557	0	30592	
8558	0	29848	
8559	0	29228	
8560	0	28884	
8561	0	28776	
8562	0	28804	
8563	0	29032	
8564	0	29476	
8565	0	30208	
8566	0	31200	
8567	0	32448	
8568	0	33804	
8569	0	35320	
8570	0	37000	
8571	0	38720	
8572	0	40632	
8573	0	42968	
8574	0	45728	
8575	0	48864	
8576	0	52224	
8577	0	55712	
8578	0	59108	
8579	0	61836	
8580	0	63328	
8581	0	64080	
8582	0	64432	
8583	0	64568	
8584	0	64584	
8585	0	64536	
8586	0	64436	
8587	0	64340	
8588	0	64216	
8589	0	64104	
8590	0	61932	
8591	0	55368	
