# OpenSignals Text File Format. Version 1
# {"00:07:80:4B:15:F7": {"position": 0, "device": "biosignalsplux", "device name": "00:07:80:4B:15:F7", "device connection": "BTH00:07:80:4B:15:F7", "sampling rate": 1000, "resolution": [16], "firmware version": 775, "comments": "", "keywords": "", "mode": 0, "sync interval": 2, "date": "2023-4-27", "time": "18:58:57.802", "channels": [1], "sensor": ["ECG"], "label": ["CH1"], "column": ["nSeq", "DI", "CH1"], "special": [{"SpO2": [80, 40, 5, 4, 3, 3]}, {"SpO2": [80, 40, 5, 4, 3, 3]}, {"SpO2": [80, 40, 5, 4, 3, 3]}, {"SpO2": [80, 40, 5, 4, 3, 3]}, {"SpO2": [80, 40, 5, 4, 3, 3]}, {"SpO2": [80, 40, 5, 4, 3, 3]}, {"SpO2": [80, 40, 5, 4, 3, 3]}, {"SpO2": [80, 40, 5, 4, 3, 3]}], "digital IO": [0, 1], "sleeve color": ["green"], "convertedValues": 0}}
# EndOfHeader
0	0	29640	
1	0	30004	
2	0	30392	
3	0	30764	
4	0	31156	
5	0	31676	
6	0	32276	
7	0	32808	
8	0	33204	
9	0	33576	
10	0	33952	
11	0	34268	
12	0	34704	
13	0	35444	
14	0	36460	
15	0	37588	
16	0	39064	
17	0	40880	
18	0	42788	
19	0	44948	
20	0	47516	
21	0	50424	
22	0	53450	
23	0	56160	
24	0	58244	
25	0	59848	
26	0	61280	
27	0	62612	
28	0	63656	
29	0	64264	
30	0	64528	
31	0	64064	
32	0	63020	
33	0	61552	
34	0	59796	
35	0	57728	
36	0	55204	
37	0	52488	
38	0	49928	
39	0	47412	
40	0	44792	
41	0	42128	
42	0	39328	
43	0	36560	
44	0	33916	
45	0	31498	
46	0	29294	
47	0	27150	
48	0	25156	
49	0	23554	
50	0	22288	
51	0	21246	
52	0	20416	
53	0	19856	
54	0	19314	
55	0	18720	
56	0	18106	
57	0	17568	
58	0	17122	
59	0	16780	
60	0	16532	
61	0	16421	
62	0	16452	
63	0	16712	
64	0	17104	
65	0	17708	
66	0	18520	
67	0	19392	
68	0	20276	
69	0	21138	
70	0	22024	
71	0	23030	
72	0	24124	
73	0	25188	
74	0	26128	
75	0	26894	
76	0	27556	
77	0	28156	
78	0	28648	
79	0	29100	
80	0	29482	
81	0	29804	
82	0	30096	
83	0	30364	
84	0	30564	
85	0	30748	
86	0	30894	
87	0	31008	
88	0	31108	
89	0	31192	
90	0	31266	
91	0	31340	
92	0	31364	
93	0	31396	
94	0	31480	
95	0	31552	
96	0	31604	
97	0	31684	
98	0	31752	
99	0	31840	
100	0	31928	
101	0	32000	
102	0	32048	
103	0	32090	
104	0	32156	
105	0	32232	
106	0	32288	
107	0	32352	
108	0	32424	
109	0	32508	
110	0	32568	
111	0	32648	
112	0	32684	
113	0	32720	
114	0	32780	
115	0	32836	
116	0	32880	
117	0	32928	
118	0	32972	
119	0	32992	
120	0	33056	
121	0	33116	
122	0	33136	
123	0	33168	
124	0	33200	
125	0	33232	
126	0	33264	
127	0	33312	
128	0	33380	
129	0	33408	
130	0	33464	
131	0	33530	
132	0	33546	
133	0	33560	
134	0	33568	
135	0	33596	
136	0	33648	
137	0	33680	
138	0	33732	
139	0	33728	
140	0	33744	
141	0	33796	
142	0	33816	
143	0	33812	
144	0	33824	
145	0	33880	
146	0	33946	
147	0	33980	
148	0	34024	
149	0	34052	
150	0	34088	
151	0	34128	
152	0	34168	
153	0	34160	
154	0	34168	
155	0	34184	
156	0	34242	
157	0	34300	
158	0	34344	
159	0	34388	
160	0	34390	
161	0	34436	
162	0	34468	
163	0	34496	
164	0	34528	
165	0	34520	
166	0	34528	
167	0	34584	
168	0	34636	
169	0	34676	
170	0	34712	
171	0	34762	
172	0	34788	
173	0	34824	
174	0	34840	
175	0	34900	
176	0	34952	
177	0	34968	
178	0	34996	
179	0	35040	
180	0	35072	
181	0	35128	
182	0	35176	
183	0	35212	
184	0	35272	
185	0	35308	
186	0	35320	
187	0	35352	
188	0	35376	
189	0	35416	
190	0	35444	
191	0	35508	
192	0	35576	
193	0	35632	
194	0	35690	
195	0	35744	
196	0	35800	
197	0	35836	
198	0	35864	
199	0	35888	
200	0	35936	
201	0	35964	
202	0	36016	
203	0	36096	
204	0	36204	
205	0	36264	
206	0	36296	
207	0	36350	
208	0	36384	
209	0	36436	
210	0	36456	
211	0	36508	
212	0	36528	
213	0	36552	
214	0	36576	
215	0	36596	
216	0	36632	
217	0	36676	
218	0	36728	
219	0	36796	
220	0	36852	
221	0	36864	
222	0	36896	
223	0	36940	
224	0	36996	
225	0	37024	
226	0	37040	
227	0	37108	
228	0	37176	
229	0	37212	
230	0	37248	
231	0	37268	
232	0	37288	
233	0	37320	
234	0	37312	
235	0	37336	
236	0	37368	
237	0	37396	
238	0	37428	
239	0	37448	
240	0	37452	
241	0	37452	
242	0	37484	
243	0	37536	
244	0	37560	
245	0	37592	
246	0	37608	
247	0	37600	
248	0	37624	
249	0	37664	
250	0	37712	
251	0	37720	
252	0	37712	
253	0	37720	
254	0	37732	
255	0	37728	
256	0	37728	
257	0	37720	
258	0	37740	
259	0	37748	
260	0	37756	
261	0	37764	
262	0	37760	
263	0	37764	
264	0	37768	
265	0	37788	
266	0	37788	
267	0	37756	
268	0	37756	
269	0	37764	
270	0	37756	
271	0	37760	
272	0	37732	
273	0	37716	
274	0	37696	
275	0	37696	
276	0	37716	
277	0	37712	
278	0	37688	
279	0	37648	
280	0	37580	
281	0	37544	
282	0	37488	
283	0	37460	
284	0	37412	
285	0	37344	
286	0	37280	
287	0	37232	
288	0	37168	
289	0	37104	
290	0	37052	
291	0	36952	
292	0	36842	
293	0	36736	
294	0	36640	
295	0	36536	
296	0	36432	
297	0	36316	
298	0	36192	
299	0	36044	
300	0	35856	
301	0	35696	
302	0	35536	
303	0	35420	
304	0	35284	
305	0	35148	
306	0	35008	
307	0	34872	
308	0	34760	
309	0	34576	
310	0	34408	
311	0	34280	
312	0	34122	
313	0	33960	
314	0	33796	
315	0	33608	
316	0	33408	
317	0	33228	
318	0	33068	
319	0	32888	
320	0	32716	
321	0	32584	
322	0	32444	
323	0	32280	
324	0	32116	
325	0	31968	
326	0	31844	
327	0	31736	
328	0	31608	
329	0	31460	
330	0	31304	
331	0	31144	
332	0	31016	
333	0	30912	
334	0	30816	
335	0	30724	
336	0	30632	
337	0	30542	
338	0	30448	
339	0	30376	
340	0	30280	
341	0	30220	
342	0	30156	
343	0	30072	
344	0	29992	
345	0	29948	
346	0	29896	
347	0	29836	
348	0	29800	
349	0	29736	
350	0	29688	
351	0	29668	
352	0	29652	
353	0	29640	
354	0	29622	
355	0	29616	
356	0	29600	
357	0	29564	
358	0	29556	
359	0	29548	
360	0	29528	
361	0	29516	
362	0	29484	
363	0	29500	
364	0	29524	
365	0	29500	
366	0	29488	
367	0	29480	
368	0	29464	
369	0	29456	
370	0	29456	
371	0	29468	
372	0	29472	
373	0	29472	
374	0	29484	
375	0	29516	
376	0	29556	
377	0	29568	
378	0	29608	
379	0	29642	
380	0	29640	
381	0	29642	
382	0	29648	
383	0	29646	
384	0	29646	
385	0	29668	
386	0	29728	
387	0	29764	
388	0	29768	
389	0	29800	
390	0	29832	
391	0	29832	
392	0	29852	
393	0	29860	
394	0	29848	
395	0	29864	
396	0	29872	
397	0	29882	
398	0	29924	
399	0	29948	
400	0	29948	
401	0	29980	
402	0	30004	
403	0	30016	
404	0	30048	
405	0	30068	
406	0	30096	
407	0	30116	
408	0	30128	
409	0	30148	
410	0	30160	
411	0	30192	
412	0	30252	
413	0	30264	
414	0	30288	
415	0	30284	
416	0	30300	
417	0	30320	
418	0	30332	
419	0	30356	
420	0	30396	
421	0	30432	
422	0	30460	
423	0	30456	
424	0	30496	
425	0	30516	
426	0	30532	
427	0	30562	
428	0	30608	
429	0	30616	
430	0	30600	
431	0	30596	
432	0	30608	
433	0	30640	
434	0	30656	
435	0	30664	
436	0	30648	
437	0	30640	
438	0	30636	
439	0	30660	
440	0	30664	
441	0	30644	
442	0	30606	
443	0	30588	
444	0	30552	
445	0	30520	
446	0	30520	
447	0	30536	
448	0	30562	
449	0	30572	
450	0	30578	
451	0	30560	
452	0	30560	
453	0	30580	
454	0	30592	
455	0	30578	
456	0	30596	
457	0	30620	
458	0	30624	
459	0	30652	
460	0	30660	
461	0	30656	
462	0	30656	
463	0	30664	
464	0	30640	
465	0	30664	
466	0	30692	
467	0	30708	
468	0	30686	
469	0	30664	
470	0	30648	
471	0	30676	
472	0	30696	
473	0	30712	
474	0	30696	
475	0	30676	
476	0	30688	
477	0	30700	
478	0	30692	
479	0	30668	
480	0	30664	
481	0	30656	
482	0	30654	
483	0	30644	
484	0	30624	
485	0	30600	
486	0	30584	
487	0	30632	
488	0	30664	
489	0	30668	
490	0	30680	
491	0	30700	
492	0	30736	
493	0	30754	
494	0	30760	
495	0	30752	
496	0	30752	
497	0	30772	
498	0	30816	
499	0	30776	
500	0	30764	
501	0	30760	
502	0	30748	
503	0	30754	
504	0	30780	
505	0	30804	
506	0	30844	
507	0	30864	
508	0	30880	
509	0	30848	
510	0	30804	
511	0	30800	
512	0	30804	
513	0	30854	
514	0	30868	
515	0	30856	
516	0	30884	
517	0	30944	
518	0	30960	
519	0	30944	
520	0	30954	
521	0	30996	
522	0	31032	
523	0	31052	
524	0	31064	
525	0	31088	
526	0	31104	
527	0	31128	
528	0	31136	
529	0	31116	
530	0	31084	
531	0	31040	
532	0	31016	
533	0	31016	
534	0	31024	
535	0	31040	
536	0	31052	
537	0	31056	
538	0	31072	
539	0	31092	
540	0	31148	
541	0	31172	
542	0	31170	
543	0	31176	
544	0	31184	
545	0	31188	
546	0	31200	
547	0	31208	
548	0	31220	
549	0	31242	
550	0	31248	
551	0	31220	
552	0	31204	
553	0	31192	
554	0	31224	
555	0	31258	
556	0	31240	
557	0	31260	
558	0	31316	
559	0	31352	
560	0	31392	
561	0	31440	
562	0	31442	
563	0	31436	
564	0	31456	
565	0	31480	
566	0	31512	
567	0	31524	
568	0	31504	
569	0	31480	
570	0	31480	
571	0	31492	
572	0	31484	
573	0	31480	
574	0	31520	
575	0	31536	
576	0	31544	
577	0	31544	
578	0	31514	
579	0	31488	
580	0	31476	
581	0	31464	
582	0	31476	
583	0	31496	
584	0	31528	
585	0	31572	
586	0	31612	
587	0	31636	
588	0	31680	
589	0	31713	
590	0	31688	
591	0	31648	
592	0	31668	
593	0	31696	
594	0	31736	
595	0	31740	
596	0	31740	
597	0	31728	
598	0	31760	
599	0	31788	
600	0	31846	
601	0	31908	
602	0	31918	
603	0	31960	
604	0	31980	
605	0	31988	
606	0	31960	
607	0	31944	
608	0	31940	
609	0	31940	
610	0	31928	
611	0	31916	
612	0	31928	
613	0	31924	
614	0	31928	
615	0	31940	
616	0	31944	
617	0	31936	
618	0	31956	
619	0	31948	
620	0	31924	
621	0	31894	
622	0	31896	
623	0	31936	
624	0	31976	
625	0	32004	
626	0	32008	
627	0	31992	
628	0	32016	
629	0	32056	
630	0	32112	
631	0	32144	
632	0	32148	
633	0	32148	
634	0	32100	
635	0	32044	
636	0	32004	
637	0	32000	
638	0	31988	
639	0	31976	
640	0	31992	
641	0	32024	
642	0	32052	
643	0	32088	
644	0	32114	
645	0	32140	
646	0	32148	
647	0	32168	
648	0	32188	
649	0	32184	
650	0	32188	
651	0	32204	
652	0	32228	
653	0	32212	
654	0	32212	
655	0	32224	
656	0	32260	
657	0	32304	
658	0	32372	
659	0	32444	
660	0	32480	
661	0	32496	
662	0	32520	
663	0	32520	
664	0	32520	
665	0	32528	
666	0	32576	
667	0	32652	
668	0	32714	
669	0	32788	
670	0	32816	
671	0	32876	
672	0	32956	
673	0	33016	
674	0	33064	
675	0	33072	
676	0	33112	
677	0	33160	
678	0	33226	
679	0	33248	
680	0	33336	
681	0	33408	
682	0	33472	
683	0	33496	
684	0	33472	
685	0	33460	
686	0	33452	
687	0	33474	
688	0	33504	
689	0	33584	
690	0	33688	
691	0	33804	
692	0	33908	
693	0	33964	
694	0	33982	
695	0	34024	
696	0	34096	
697	0	34168	
698	0	34260	
699	0	34364	
700	0	34452	
701	0	34524	
702	0	34568	
703	0	34640	
704	0	34700	
705	0	34760	
706	0	34816	
707	0	34880	
708	0	34902	
709	0	34944	
710	0	34992	
711	0	35036	
712	0	35096	
713	0	35168	
714	0	35216	
715	0	35224	
716	0	35208	
717	0	35168	
718	0	35088	
719	0	34984	
720	0	34888	
721	0	34794	
722	0	34676	
723	0	34524	
724	0	34380	
725	0	34226	
726	0	34048	
727	0	33906	
728	0	33784	
729	0	33640	
730	0	33448	
731	0	33322	
732	0	33180	
733	0	33004	
734	0	32850	
735	0	32712	
736	0	32648	
737	0	32612	
738	0	32576	
739	0	32500	
740	0	32396	
741	0	32320	
742	0	32236	
743	0	32192	
744	0	32116	
745	0	32060	
746	0	32032	
747	0	31984	
748	0	32004	
749	0	32004	
750	0	31960	
751	0	31908	
752	0	31824	
753	0	31768	
754	0	31644	
755	0	31514	
756	0	31416	
757	0	31352	
758	0	31340	
759	0	31328	
760	0	31306	
761	0	31296	
762	0	31324	
763	0	31368	
764	0	31412	
765	0	31416	
766	0	31444	
767	0	31468	
768	0	31466	
769	0	31468	
770	0	31484	
771	0	31488	
772	0	31472	
773	0	31452	
774	0	31456	
775	0	31468	
776	0	31500	
777	0	31536	
778	0	31520	
779	0	31512	
780	0	31520	
781	0	31536	
782	0	31528	
783	0	31536	
784	0	31552	
785	0	31540	
786	0	31500	
787	0	31504	
788	0	31532	
789	0	31540	
790	0	31540	
791	0	31578	
792	0	31616	
793	0	31666	
794	0	31732	
795	0	31776	
796	0	31820	
797	0	31864	
798	0	31892	
799	0	31882	
800	0	31844	
801	0	31848	
802	0	31840	
803	0	31796	
804	0	31808	
805	0	31864	
806	0	31920	
807	0	31970	
808	0	31972	
809	0	31952	
810	0	31976	
811	0	32020	
812	0	32060	
813	0	32116	
814	0	32160	
815	0	32168	
816	0	32148	
817	0	32084	
818	0	31932	
819	0	31688	
820	0	31368	
821	0	31008	
822	0	30588	
823	0	30224	
824	0	29976	
825	0	29868	
826	0	29892	
827	0	30094	
828	0	30456	
829	0	30772	
830	0	31080	
831	0	31468	
832	0	31976	
833	0	32488	
834	0	32868	
835	0	33136	
836	0	33408	
837	0	33648	
838	0	33892	
839	0	34320	
840	0	35032	
841	0	35956	
842	0	37144	
843	0	38684	
844	0	40568	
845	0	42624	
846	0	44944	
847	0	47656	
848	0	50724	
849	0	53616	
850	0	55944	
851	0	57780	
852	0	59428	
853	0	61064	
854	0	62400	
855	0	63380	
856	0	64000	
857	0	63888	
858	0	63132	
859	0	61956	
860	0	60452	
861	0	58664	
862	0	56576	
863	0	54304	
864	0	51928	
865	0	49492	
866	0	47028	
867	0	44468	
868	0	41836	
869	0	39264	
870	0	36704	
871	0	34076	
872	0	31548	
873	0	29252	
874	0	27228	
875	0	25434	
876	0	23900	
877	0	22584	
878	0	21492	
879	0	20640	
880	0	19958	
881	0	19368	
882	0	18800	
883	0	18256	
884	0	17756	
885	0	17430	
886	0	17166	
887	0	16948	
888	0	16884	
889	0	16950	
890	0	17064	
891	0	17308	
892	0	17762	
893	0	18424	
894	0	19252	
895	0	20080	
896	0	20900	
897	0	21704	
898	0	22532	
899	0	23448	
900	0	24432	
901	0	25432	
902	0	26380	
903	0	27168	
904	0	27864	
905	0	28456	
906	0	28968	
907	0	29408	
908	0	29808	
909	0	30152	
910	0	30410	
911	0	30672	
912	0	30906	
913	0	31104	
914	0	31256	
915	0	31412	
916	0	31524	
917	0	31604	
918	0	31708	
919	0	31808	
920	0	31882	
921	0	31948	
922	0	32016	
923	0	32084	
924	0	32132	
925	0	32200	
926	0	32272	
927	0	32324	
928	0	32360	
929	0	32388	
930	0	32400	
931	0	32432	
932	0	32468	
933	0	32524	
934	0	32612	
935	0	32704	
936	0	32812	
937	0	32896	
938	0	32976	
939	0	33020	
940	0	33064	
941	0	33088	
942	0	33100	
943	0	33140	
944	0	33172	
945	0	33206	
946	0	33272	
947	0	33344	
948	0	33404	
949	0	33460	
950	0	33464	
951	0	33464	
952	0	33428	
953	0	33424	
954	0	33464	
955	0	33520	
956	0	33552	
957	0	33620	
958	0	33678	
959	0	33756	
960	0	33816	
961	0	33848	
962	0	33876	
963	0	33912	
964	0	33952	
965	0	33976	
966	0	33972	
967	0	33996	
968	0	34008	
969	0	34016	
970	0	34032	
971	0	34042	
972	0	34052	
973	0	34076	
974	0	34116	
975	0	34186	
976	0	34236	
977	0	34280	
978	0	34292	
979	0	34316	
980	0	34368	
981	0	34368	
982	0	34368	
983	0	34392	
984	0	34436	
985	0	34456	
986	0	34468	
987	0	34472	
988	0	34524	
989	0	34584	
990	0	34628	
991	0	34680	
992	0	34720	
993	0	34740	
994	0	34760	
995	0	34796	
996	0	34836	
997	0	34864	
998	0	34876	
999	0	34904	
1000	0	34936	
1001	0	34992	
1002	0	34984	
1003	0	34976	
1004	0	35016	
1005	0	35112	
1006	0	35192	
1007	0	35220	
1008	0	35240	
1009	0	35282	
1010	0	35328	
1011	0	35392	
1012	0	35428	
1013	0	35468	
1014	0	35492	
1015	0	35520	
1016	0	35552	
1017	0	35584	
1018	0	35636	
1019	0	35672	
1020	0	35688	
1021	0	35704	
1022	0	35746	
1023	0	35788	
1024	0	35832	
1025	0	35868	
1026	0	35912	
1027	0	35956	
1028	0	36012	
1029	0	36008	
1030	0	36028	
1031	0	36068	
1032	0	36172	
1033	0	36260	
1034	0	36304	
1035	0	36344	
1036	0	36368	
1037	0	36380	
1038	0	36424	
1039	0	36464	
1040	0	36506	
1041	0	36528	
1042	0	36560	
1043	0	36612	
1044	0	36688	
1045	0	36740	
1046	0	36800	
1047	0	36828	
1048	0	36856	
1049	0	36928	
1050	0	36956	
1051	0	36992	
1052	0	37040	
1053	0	37086	
1054	0	37120	
1055	0	37152	
1056	0	37184	
1057	0	37200	
1058	0	37212	
1059	0	37204	
1060	0	37204	
1061	0	37240	
1062	0	37236	
1063	0	37224	
1064	0	37204	
1065	0	37208	
1066	0	37216	
1067	0	37228	
1068	0	37244	
1069	0	37292	
1070	0	37348	
1071	0	37383	
1072	0	37384	
1073	0	37400	
1074	0	37400	
1075	0	37408	
1076	0	37412	
1077	0	37432	
1078	0	37468	
1079	0	37512	
1080	0	37516	
1081	0	37556	
1082	0	37588	
1083	0	37580	
1084	0	37516	
1085	0	37524	
1086	0	37552	
1087	0	37560	
1088	0	37584	
1089	0	37596	
1090	0	37608	
1091	0	37580	
1092	0	37592	
1093	0	37600	
1094	0	37588	
1095	0	37600	
1096	0	37644	
1097	0	37664	
1098	0	37660	
1099	0	37660	
1100	0	37632	
1101	0	37640	
1102	0	37662	
1103	0	37660	
1104	0	37644	
1105	0	37608	
1106	0	37568	
1107	0	37524	
1108	0	37512	
1109	0	37504	
1110	0	37456	
1111	0	37384	
1112	0	37336	
1113	0	37276	
1114	0	37244	
1115	0	37192	
1116	0	37160	
1117	0	37136	
1118	0	37080	
1119	0	36996	
1120	0	36912	
1121	0	36788	
1122	0	36672	
1123	0	36576	
1124	0	36472	
1125	0	36360	
1126	0	36272	
1127	0	36152	
1128	0	36008	
1129	0	35880	
1130	0	35732	
1131	0	35568	
1132	0	35438	
1133	0	35284	
1134	0	35148	
1135	0	34996	
1136	0	34832	
1137	0	34672	
1138	0	34540	
1139	0	34388	
1140	0	34240	
1141	0	34092	
1142	0	33928	
1143	0	33744	
1144	0	33576	
1145	0	33416	
1146	0	33256	
1147	0	33124	
1148	0	32960	
1149	0	32800	
1150	0	32656	
1151	0	32536	
1152	0	32416	
1153	0	32260	
1154	0	32096	
1155	0	31980	
1156	0	31856	
1157	0	31716	
1158	0	31604	
1159	0	31488	
1160	0	31384	
1161	0	31272	
1162	0	31132	
1163	0	31024	
1164	0	30932	
1165	0	30824	
1166	0	30728	
1167	0	30656	
1168	0	30584	
1169	0	30496	
1170	0	30396	
1171	0	30328	
1172	0	30282	
1173	0	30220	
1174	0	30128	
1175	0	30052	
1176	0	30028	
1177	0	29996	
1178	0	29956	
1179	0	29924	
1180	0	29920	
1181	0	29908	
1182	0	29880	
1183	0	29856	
1184	0	29820	
1185	0	29792	
1186	0	29768	
1187	0	29776	
1188	0	29760	
1189	0	29756	
1190	0	29760	
1191	0	29780	
1192	0	29796	
1193	0	29776	
1194	0	29782	
1195	0	29786	
1196	0	29796	
1197	0	29748	
1198	0	29740	
1199	0	29764	
1200	0	29804	
1201	0	29829	
1202	0	29860	
1203	0	29876	
1204	0	29888	
1205	0	29914	
1206	0	29912	
1207	0	29892	
1208	0	29888	
1209	0	29904	
1210	0	29944	
1211	0	29984	
1212	0	29986	
1213	0	29972	
1214	0	29976	
1215	0	29972	
1216	0	29984	
1217	0	30028	
1218	0	30064	
1219	0	30104	
1220	0	30128	
1221	0	30148	
1222	0	30196	
1223	0	30232	
1224	0	30236	
1225	0	30216	
1226	0	30204	
1227	0	30204	
1228	0	30212	
1229	0	30218	
1230	0	30168	
1231	0	30136	
1232	0	30132	
1233	0	30140	
1234	0	30148	
1235	0	30160	
1236	0	30180	
1237	0	30184	
1238	0	30200	
1239	0	30208	
1240	0	30240	
1241	0	30248	
1242	0	30268	
1243	0	30300	
1244	0	30304	
1245	0	30298	
1246	0	30288	
1247	0	30292	
1248	0	30288	
1249	0	30294	
1250	0	30336	
1251	0	30376	
1252	0	30400	
1253	0	30412	
1254	0	30372	
1255	0	30368	
1256	0	30400	
1257	0	30436	
1258	0	30464	
1259	0	30458	
1260	0	30450	
1261	0	30476	
1262	0	30484	
1263	0	30508	
1264	0	30508	
1265	0	30488	
1266	0	30492	
1267	0	30528	
1268	0	30516	
1269	0	30488	
1270	0	30488	
1271	0	30512	
1272	0	30512	
1273	0	30506	
1274	0	30496	
1275	0	30464	
1276	0	30444	
1277	0	30464	
1278	0	30456	
1279	0	30466	
1280	0	30464	
1281	0	30468	
1282	0	30494	
1283	0	30538	
1284	0	30548	
1285	0	30544	
1286	0	30516	
1287	0	30520	
1288	0	30532	
1289	0	30504	
1290	0	30460	
1291	0	30484	
1292	0	30520	
1293	0	30560	
1294	0	30584	
1295	0	30552	
1296	0	30524	
1297	0	30480	
1298	0	30464	
1299	0	30456	
1300	0	30452	
1301	0	30460	
1302	0	30440	
1303	0	30452	
1304	0	30456	
1305	0	30472	
1306	0	30516	
1307	0	30528	
1308	0	30536	
1309	0	30552	
1310	0	30564	
1311	0	30540	
1312	0	30556	
1313	0	30568	
1314	0	30560	
1315	0	30528	
1316	0	30488	
1317	0	30504	
1318	0	30536	
1319	0	30540	
1320	0	30524	
1321	0	30514	
1322	0	30524	
1323	0	30560	
1324	0	30604	
1325	0	30616	
1326	0	30640	
1327	0	30644	
1328	0	30664	
1329	0	30652	
1330	0	30660	
1331	0	30688	
1332	0	30712	
1333	0	30724	
1334	0	30736	
1335	0	30752	
1336	0	30768	
1337	0	30772	
1338	0	30776	
1339	0	30748	
1340	0	30744	
1341	0	30768	
1342	0	30784	
1343	0	30816	
1344	0	30820	
1345	0	30836	
1346	0	30856	
1347	0	30876	
1348	0	30860	
1349	0	30852	
1350	0	30848	
1351	0	30856	
1352	0	30884	
1353	0	30888	
1354	0	30916	
1355	0	30968	
1356	0	31008	
1357	0	31000	
1358	0	31000	
1359	0	31000	
1360	0	30980	
1361	0	30960	
1362	0	30968	
1363	0	30960	
1364	0	30972	
1365	0	31000	
1366	0	30992	
1367	0	31008	
1368	0	31040	
1369	0	31060	
1370	0	31088	
1371	0	31098	
1372	0	31108	
1373	0	31116	
1374	0	31136	
1375	0	31172	
1376	0	31192	
1377	0	31224	
1378	0	31256	
1379	0	31272	
1380	0	31258	
1381	0	31272	
1382	0	31256	
1383	0	31242	
1384	0	31244	
1385	0	31244	
1386	0	31236	
1387	0	31248	
1388	0	31288	
1389	0	31308	
1390	0	31320	
1391	0	31344	
1392	0	31352	
1393	0	31336	
1394	0	31344	
1395	0	31364	
1396	0	31400	
1397	0	31448	
1398	0	31480	
1399	0	31492	
1400	0	31520	
1401	0	31546	
1402	0	31592	
1403	0	31608	
1404	0	31648	
1405	0	31708	
1406	0	31808	
1407	0	31896	
1408	0	31968	
1409	0	32052	
1410	0	32120	
1411	0	32212	
1412	0	32248	
1413	0	32284	
1414	0	32312	
1415	0	32328	
1416	0	32380	
1417	0	32452	
1418	0	32536	
1419	0	32592	
1420	0	32656	
1421	0	32696	
1422	0	32684	
1423	0	32648	
1424	0	32656	
1425	0	32704	
1426	0	32792	
1427	0	32924	
1428	0	33076	
1429	0	33188	
1430	0	33248	
1431	0	33272	
1432	0	33264	
1433	0	33272	
1434	0	33312	
1435	0	33396	
1436	0	33496	
1437	0	33616	
1438	0	33732	
1439	0	33838	
1440	0	33904	
1441	0	33952	
1442	0	34048	
1443	0	34180	
1444	0	34280	
1445	0	34344	
1446	0	34388	
1447	0	34432	
1448	0	34456	
1449	0	34468	
1450	0	34458	
1451	0	34402	
1452	0	34336	
1453	0	34304	
1454	0	34308	
1455	0	34292	
1456	0	34272	
1457	0	34240	
1458	0	34184	
1459	0	34088	
1460	0	34006	
1461	0	33860	
1462	0	33714	
1463	0	33568	
1464	0	33420	
1465	0	33232	
1466	0	33028	
1467	0	32816	
1468	0	32620	
1469	0	32424	
1470	0	32192	
1471	0	32032	
1472	0	31920	
1473	0	31816	
1474	0	31744	
1475	0	31692	
1476	0	31660	
1477	0	31628	
1478	0	31592	
1479	0	31562	
1480	0	31536	
1481	0	31460	
1482	0	31388	
1483	0	31296	
1484	0	31242	
1485	0	31196	
1486	0	31140	
1487	0	31112	
1488	0	31076	
1489	0	31008	
1490	0	30896	
1491	0	30782	
1492	0	30668	
1493	0	30582	
1494	0	30550	
1495	0	30500	
1496	0	30468	
1497	0	30444	
1498	0	30424	
1499	0	30420	
1500	0	30372	
1501	0	30356	
1502	0	30340	
1503	0	30384	
1504	0	30456	
1505	0	30512	
1506	0	30488	
1507	0	30492	
1508	0	30512	
1509	0	30506	
1510	0	30484	
1511	0	30480	
1512	0	30496	
1513	0	30504	
1514	0	30496	
1515	0	30496	
1516	0	30512	
1517	0	30540	
1518	0	30564	
1519	0	30564	
1520	0	30560	
1521	0	30592	
1522	0	30612	
1523	0	30624	
1524	0	30624	
1525	0	30616	
1526	0	30616	
1527	0	30640	
1528	0	30664	
1529	0	30692	
1530	0	30700	
1531	0	30716	
1532	0	30720	
1533	0	30720	
1534	0	30740	
1535	0	30752	
1536	0	30764	
1537	0	30816	
1538	0	30852	
1539	0	30880	
1540	0	30884	
1541	0	30912	
1542	0	30928	
1543	0	30952	
1544	0	30964	
1545	0	30972	
1546	0	30980	
1547	0	30980	
1548	0	30984	
1549	0	31000	
1550	0	31040	
1551	0	31048	
1552	0	31010	
1553	0	30918	
1554	0	30746	
1555	0	30484	
1556	0	30164	
1557	0	29772	
1558	0	29332	
1559	0	28916	
1560	0	28600	
1561	0	28432	
1562	0	28430	
1563	0	28660	
1564	0	29004	
1565	0	29376	
1566	0	29672	
1567	0	30052	
1568	0	30552	
1569	0	31116	
1570	0	31616	
1571	0	31984	
1572	0	32366	
1573	0	32736	
1574	0	33124	
1575	0	33712	
1576	0	34560	
1577	0	35624	
1578	0	36936	
1579	0	38632	
1580	0	40692	
1581	0	42872	
1582	0	45216	
1583	0	47888	
1584	0	50952	
1585	0	54092	
1586	0	56768	
1587	0	58860	
1588	0	60704	
1589	0	62480	
1590	0	63632	
1591	0	64192	
1592	0	64436	
1593	0	64524	
1594	0	64500	
1595	0	64448	
1596	0	62672	
1597	0	60376	
1598	0	58000	
1599	0	55488	
1600	0	52852	
1601	0	50112	
1602	0	47312	
1603	0	44452	
1604	0	41460	
1605	0	38484	
1606	0	35632	
1607	0	32824	
1608	0	30108	
1609	0	27588	
1610	0	25456	
1611	0	23684	
1612	0	22204	
1613	0	21008	
1614	0	20060	
1615	0	19284	
1616	0	18604	
1617	0	18004	
1618	0	17456	
1619	0	16924	
1620	0	16433	
1621	0	16044	
1622	0	15728	
1623	0	15520	
1624	0	15472	
1625	0	15560	
1626	0	15698	
1627	0	15944	
1628	0	16356	
1629	0	16961	
1630	0	17748	
1631	0	18608	
1632	0	19500	
1633	0	20424	
1634	0	21324	
1635	0	22193	
1636	0	23140	
1637	0	24112	
1638	0	25060	
1639	0	25884	
1640	0	26636	
1641	0	27288	
1642	0	27856	
1643	0	28352	
1644	0	28808	
1645	0	29192	
1646	0	29472	
1647	0	29688	
1648	0	29940	
1649	0	30168	
1650	0	30396	
1651	0	30552	
1652	0	30668	
1653	0	30776	
1654	0	30880	
1655	0	30960	
1656	0	31020	
1657	0	31072	
1658	0	31114	
1659	0	31188	
1660	0	31276	
1661	0	31348	
1662	0	31418	
1663	0	31452	
1664	0	31508	
1665	0	31568	
1666	0	31616	
1667	0	31664	
1668	0	31748	
1669	0	31812	
1670	0	31874	
1671	0	31964	
1672	0	32026	
1673	0	32066	
1674	0	32090	
1675	0	32172	
1676	0	32248	
1677	0	32308	
1678	0	32368	
1679	0	32392	
1680	0	32428	
1681	0	32492	
1682	0	32548	
1683	0	32612	
1684	0	32648	
1685	0	32688	
1686	0	32720	
1687	0	32736	
1688	0	32764	
1689	0	32786	
1690	0	32852	
1691	0	32904	
1692	0	32948	
1693	0	32972	
1694	0	32996	
1695	0	33032	
1696	0	33080	
1697	0	33132	
1698	0	33186	
1699	0	33216	
1700	0	33272	
1701	0	33308	
1702	0	33314	
1703	0	33360	
1704	0	33436	
1705	0	33504	
1706	0	33508	
1707	0	33548	
1708	0	33588	
1709	0	33644	
1710	0	33680	
1711	0	33700	
1712	0	33712	
1713	0	33728	
1714	0	33752	
1715	0	33780	
1716	0	33832	
1717	0	33864	
1718	0	33896	
1719	0	33936	
1720	0	33988	
1721	0	34028	
1722	0	34076	
1723	0	34140	
1724	0	34192	
1725	0	34252	
1726	0	34312	
1727	0	34362	
1728	0	34412	
1729	0	34444	
1730	0	34492	
1731	0	34540	
1732	0	34576	
1733	0	34600	
1734	0	34612	
1735	0	34626	
1736	0	34676	
1737	0	34704	
1738	0	34716	
1739	0	34756	
1740	0	34784	
1741	0	34828	
1742	0	34864	
1743	0	34908	
1744	0	34940	
1745	0	34992	
1746	0	35052	
1747	0	35112	
1748	0	35164	
1749	0	35204	
1750	0	35220	
1751	0	35264	
1752	0	35296	
1753	0	35344	
1754	0	35400	
1755	0	35440	
1756	0	35484	
1757	0	35546	
1758	0	35624	
1759	0	35664	
1760	0	35708	
1761	0	35760	
1762	0	35824	
1763	0	35840	
1764	0	35904	
1765	0	35944	
1766	0	35984	
1767	0	36036	
1768	0	36104	
1769	0	36148	
1770	0	36200	
1771	0	36240	
1772	0	36288	
1773	0	36362	
1774	0	36416	
1775	0	36444	
1776	0	36456	
1777	0	36532	
1778	0	36576	
1779	0	36616	
1780	0	36644	
1781	0	36692	
1782	0	36720	
1783	0	36780	
1784	0	36828	
1785	0	36892	
1786	0	36944	
1787	0	36960	
1788	0	37008	
1789	0	37024	
1790	0	37048	
1791	0	37080	
1792	0	37104	
1793	0	37104	
1794	0	37128	
1795	0	37176	
1796	0	37204	
1797	0	37204	
1798	0	37232	
1799	0	37232	
1800	0	37256	
1801	0	37272	
1802	0	37280	
1803	0	37312	
1804	0	37330	
1805	0	37348	
1806	0	37348	
1807	0	37340	
1808	0	37336	
1809	0	37348	
1810	0	37380	
1811	0	37380	
1812	0	37388	
1813	0	37368	
1814	0	37384	
1815	0	37408	
1816	0	37456	
1817	0	37452	
1818	0	37428	
1819	0	37416	
1820	0	37416	
1821	0	37448	
1822	0	37460	
1823	0	37460	
1824	0	37432	
1825	0	37408	
1826	0	37396	
1827	0	37388	
1828	0	37364	
1829	0	37352	
1830	0	37332	
1831	0	37304	
1832	0	37294	
1833	0	37296	
1834	0	37244	
1835	0	37204	
1836	0	37156	
1837	0	37104	
1838	0	37028	
1839	0	36956	
1840	0	36932	
1841	0	36888	
1842	0	36800	
1843	0	36752	
1844	0	36692	
1845	0	36620	
1846	0	36532	
1847	0	36452	
1848	0	36352	
1849	0	36240	
1850	0	36146	
1851	0	36036	
1852	0	35884	
1853	0	35776	
1854	0	35648	
1855	0	35508	
1856	0	35336	
1857	0	35200	
1858	0	35066	
1859	0	34928	
1860	0	34816	
1861	0	34664	
1862	0	34504	
1863	0	34352	
1864	0	34220	
1865	0	34068	
1866	0	33924	
1867	0	33784	
1868	0	33628	
1869	0	33442	
1870	0	33272	
1871	0	33132	
1872	0	32996	
1873	0	32856	
1874	0	32716	
1875	0	32600	
1876	0	32486	
1877	0	32364	
1878	0	32208	
1879	0	32052	
1880	0	31920	
1881	0	31796	
1882	0	31648	
1883	0	31484	
1884	0	31336	
1885	0	31212	
1886	0	31080	
1887	0	30946	
1888	0	30816	
1889	0	30724	
1890	0	30604	
1891	0	30500	
1892	0	30404	
1893	0	30328	
1894	0	30232	
1895	0	30168	
1896	0	30108	
1897	0	30024	
1898	0	29936	
1899	0	29880	
1900	0	29784	
1901	0	29708	
1902	0	29640	
1903	0	29586	
1904	0	29560	
1905	0	29530	
1906	0	29524	
1907	0	29490	
1908	0	29476	
1909	0	29452	
1910	0	29408	
1911	0	29396	
1912	0	29360	
1913	0	29336	
1914	0	29312	
1915	0	29296	
1916	0	29276	
1917	0	29236	
1918	0	29220	
1919	0	29212	
1920	0	29224	
1921	0	29226	
1922	0	29244	
1923	0	29256	
1924	0	29264	
1925	0	29260	
1926	0	29284	
1927	0	29316	
1928	0	29280	
1929	0	29248	
1930	0	29252	
1931	0	29274	
1932	0	29260	
1933	0	29248	
1934	0	29264	
1935	0	29288	
1936	0	29320	
1937	0	29344	
1938	0	29368	
1939	0	29360	
1940	0	29416	
1941	0	29440	
1942	0	29460	
1943	0	29488	
1944	0	29500	
1945	0	29488	
1946	0	29500	
1947	0	29520	
1948	0	29520	
1949	0	29536	
1950	0	29572	
1951	0	29584	
1952	0	29632	
1953	0	29664	
1954	0	29700	
1955	0	29740	
1956	0	29768	
1957	0	29800	
1958	0	29852	
1959	0	29868	
1960	0	29868	
1961	0	29876	
1962	0	29860	
1963	0	29856	
1964	0	29864	
1965	0	29908	
1966	0	29956	
1967	0	30000	
1968	0	30020	
1969	0	30048	
1970	0	30072	
1971	0	30056	
1972	0	30052	
1973	0	30084	
1974	0	30096	
1975	0	30088	
1976	0	30072	
1977	0	30096	
1978	0	30128	
1979	0	30184	
1980	0	30232	
1981	0	30268	
1982	0	30296	
1983	0	30296	
1984	0	30304	
1985	0	30346	
1986	0	30336	
1987	0	30356	
1988	0	30368	
1989	0	30380	
1990	0	30400	
1991	0	30400	
1992	0	30400	
1993	0	30384	
1994	0	30382	
1995	0	30388	
1996	0	30384	
1997	0	30352	
1998	0	30376	
1999	0	30428	
2000	0	30444	
2001	0	30472	
2002	0	30496	
2003	0	30492	
2004	0	30504	
2005	0	30516	
2006	0	30542	
2007	0	30548	
2008	0	30548	
2009	0	30544	
2010	0	30548	
2011	0	30572	
2012	0	30572	
2013	0	30572	
2014	0	30576	
2015	0	30560	
2016	0	30560	
2017	0	30568	
2018	0	30552	
2019	0	30528	
2020	0	30516	
2021	0	30520	
2022	0	30528	
2023	0	30528	
2024	0	30520	
2025	0	30516	
2026	0	30512	
2027	0	30512	
2028	0	30524	
2029	0	30508	
2030	0	30504	
2031	0	30496	
2032	0	30510	
2033	0	30528	
2034	0	30516	
2035	0	30504	
2036	0	30496	
2037	0	30512	
2038	0	30492	
2039	0	30496	
2040	0	30520	
2041	0	30516	
2042	0	30540	
2043	0	30552	
2044	0	30560	
2045	0	30560	
2046	0	30584	
2047	0	30588	
2048	0	30600	
2049	0	30608	
2050	0	30584	
2051	0	30572	
2052	0	30600	
2053	0	30628	
2054	0	30632	
2055	0	30640	
2056	0	30666	
2057	0	30680	
2058	0	30692	
2059	0	30688	
2060	0	30692	
2061	0	30680	
2062	0	30684	
2063	0	30656	
2064	0	30632	
2065	0	30664	
2066	0	30672	
2067	0	30696	
2068	0	30700	
2069	0	30720	
2070	0	30740	
2071	0	30730	
2072	0	30722	
2073	0	30744	
2074	0	30776	
2075	0	30768	
2076	0	30776	
2077	0	30788	
2078	0	30804	
2079	0	30812	
2080	0	30836	
2081	0	30836	
2082	0	30844	
2083	0	30840	
2084	0	30828	
2085	0	30832	
2086	0	30841	
2087	0	30872	
2088	0	30880	
2089	0	30882	
2090	0	30864	
2091	0	30848	
2092	0	30880	
2093	0	30912	
2094	0	30952	
2095	0	30980	
2096	0	30976	
2097	0	30948	
2098	0	30972	
2099	0	30980	
2100	0	31004	
2101	0	31016	
2102	0	31020	
2103	0	31032	
2104	0	31032	
2105	0	31036	
2106	0	31044	
2107	0	31060	
2108	0	31124	
2109	0	31132	
2110	0	31130	
2111	0	31132	
2112	0	31160	
2113	0	31172	
2114	0	31192	
2115	0	31204	
2116	0	31248	
2117	0	31252	
2118	0	31248	
2119	0	31248	
2120	0	31272	
2121	0	31296	
2122	0	31328	
2123	0	31388	
2124	0	31424	
2125	0	31432	
2126	0	31496	
2127	0	31580	
2128	0	31648	
2129	0	31680	
2130	0	31668	
2131	0	31684	
2132	0	31724	
2133	0	31788	
2134	0	31876	
2135	0	31960	
2136	0	32052	
2137	0	32112	
2138	0	32152	
2139	0	32192	
2140	0	32280	
2141	0	32352	
2142	0	32436	
2143	0	32500	
2144	0	32540	
2145	0	32570	
2146	0	32588	
2147	0	32652	
2148	0	32714	
2149	0	32756	
2150	0	32804	
2151	0	32792	
2152	0	32738	
2153	0	32748	
2154	0	32784	
2155	0	32884	
2156	0	33008	
2157	0	33190	
2158	0	33352	
2159	0	33466	
2160	0	33524	
2161	0	33540	
2162	0	33532	
2163	0	33560	
2164	0	33608	
2165	0	33672	
2166	0	33760	
2167	0	33872	
2168	0	33960	
2169	0	34000	
2170	0	34044	
2171	0	34136	
2172	0	34236	
2173	0	34336	
2174	0	34392	
2175	0	34468	
2176	0	34524	
2177	0	34576	
2178	0	34600	
2179	0	34616	
2180	0	34616	
2181	0	34612	
2182	0	34576	
2183	0	34548	
2184	0	34536	
2185	0	34532	
2186	0	34472	
2187	0	34408	
2188	0	34328	
2189	0	34252	
2190	0	34156	
2191	0	34004	
2192	0	33844	
2193	0	33640	
2194	0	33436	
2195	0	33260	
2196	0	33128	
2197	0	32960	
2198	0	32792	
2199	0	32608	
2200	0	32396	
2201	0	32264	
2202	0	32180	
2203	0	32112	
2204	0	32056	
2205	0	31978	
2206	0	31904	
2207	0	31820	
2208	0	31724	
2209	0	31652	
2210	0	31616	
2211	0	31580	
2212	0	31532	
2213	0	31472	
2214	0	31432	
2215	0	31392	
2216	0	31340	
2217	0	31256	
2218	0	31176	
2219	0	31108	
2220	0	31020	
2221	0	30928	
2222	0	30824	
2223	0	30708	
2224	0	30644	
2225	0	30620	
2226	0	30608	
2227	0	30584	
2228	0	30540	
2229	0	30508	
2230	0	30520	
2231	0	30560	
2232	0	30590	
2233	0	30604	
2234	0	30624	
2235	0	30620	
2236	0	30632	
2237	0	30656	
2238	0	30676	
2239	0	30672	
2240	0	30656	
2241	0	30660	
2242	0	30700	
2243	0	30724	
2244	0	30708	
2245	0	30720	
2246	0	30712	
2247	0	30708	
2248	0	30716	
2249	0	30744	
2250	0	30772	
2251	0	30780	
2252	0	30796	
2253	0	30824	
2254	0	30828	
2255	0	30844	
2256	0	30892	
2257	0	30924	
2258	0	30948	
2259	0	30932	
2260	0	30914	
2261	0	30916	
2262	0	30940	
2263	0	30984	
2264	0	30992	
2265	0	31000	
2266	0	31028	
2267	0	31036	
2268	0	31048	
2269	0	31072	
2270	0	31088	
2271	0	31100	
2272	0	31148	
2273	0	31168	
2274	0	31168	
2275	0	31192	
2276	0	31224	
2277	0	31228	
2278	0	31236	
2279	0	31264	
2280	0	31300	
2281	0	31328	
2282	0	31328	
2283	0	31272	
2284	0	31128	
2285	0	30916	
2286	0	30604	
2287	0	30288	
2288	0	29940	
2289	0	29578	
2290	0	29296	
2291	0	29148	
2292	0	29178	
2293	0	29388	
2294	0	29768	
2295	0	30180	
2296	0	30592	
2297	0	31040	
2298	0	31614	
2299	0	32260	
2300	0	32844	
2301	0	33336	
2302	0	33776	
2303	0	34268	
2304	0	34728	
2305	0	35284	
2306	0	36120	
2307	0	37176	
2308	0	38382	
2309	0	39908	
2310	0	41732	
2311	0	43688	
2312	0	45880	
2313	0	48456	
2314	0	51328	
2315	0	54388	
2316	0	56996	
2317	0	58944	
2318	0	60344	
2319	0	61612	
2320	0	62828	
2321	0	63768	
2322	0	64408	
2323	0	64684	
2324	0	64292	
2325	0	63216	
2326	0	61740	
2327	0	60004	
2328	0	57776	
2329	0	55088	
2330	0	52288	
2331	0	49616	
2332	0	46984	
2333	0	44316	
2334	0	41396	
2335	0	38296	
2336	0	35312	
2337	0	32668	
2338	0	30252	
2339	0	27964	
2340	0	25708	
2341	0	23616	
2342	0	21884	
2343	0	20572	
2344	0	19556	
2345	0	18800	
2346	0	18200	
2347	0	17636	
2348	0	17042	
2349	0	16468	
2350	0	15956	
2351	0	15548	
2352	0	15242	
2353	0	15076	
2354	0	15056	
2355	0	15264	
2356	0	15649	
2357	0	16308	
2358	0	17124	
2359	0	18012	
2360	0	18992	
2361	0	19988	
2362	0	20984	
2363	0	22080	
2364	0	23306	
2365	0	24500	
2366	0	25516	
2367	0	26356	
2368	0	27060	
2369	0	27676	
2370	0	28224	
2371	0	28692	
2372	0	29076	
2373	0	29402	
2374	0	29720	
2375	0	29964	
2376	0	30176	
2377	0	30352	
2378	0	30528	
2379	0	30680	
2380	0	30808	
2381	0	30884	
2382	0	30928	
2383	0	30936	
2384	0	30976	
2385	0	31076	
2386	0	31148	
2387	0	31228	
2388	0	31306	
2389	0	31404	
2390	0	31520	
2391	0	31592	
2392	0	31656	
2393	0	31708	
2394	0	31764	
2395	0	31776	
2396	0	31840	
2397	0	31916	
2398	0	31988	
2399	0	32076	
2400	0	32136	
2401	0	32224	
2402	0	32316	
2403	0	32394	
2404	0	32448	
2405	0	32496	
2406	0	32536	
2407	0	32576	
2408	0	32612	
2409	0	32648	
2410	0	32704	
2411	0	32768	
2412	0	32832	
2413	0	32888	
2414	0	32924	
2415	0	32976	
2416	0	33018	
2417	0	33044	
2418	0	33064	
2419	0	33124	
2420	0	33176	
2421	0	33232	
2422	0	33280	
2423	0	33324	
2424	0	33366	
2425	0	33420	
2426	0	33468	
2427	0	33508	
2428	0	33564	
2429	0	33600	
2430	0	33616	
2431	0	33632	
2432	0	33656	
2433	0	33680	
2434	0	33712	
2435	0	33744	
2436	0	33776	
2437	0	33804	
2438	0	33824	
2439	0	33848	
2440	0	33872	
2441	0	33900	
2442	0	33952	
2443	0	33988	
2444	0	34056	
2445	0	34100	
2446	0	34148	
2447	0	34224	
2448	0	34264	
2449	0	34256	
2450	0	34240	
2451	0	34272	
2452	0	34308	
2453	0	34352	
2454	0	34372	
2455	0	34396	
2456	0	34456	
2457	0	34520	
2458	0	34536	
2459	0	34576	
2460	0	34604	
2461	0	34648	
2462	0	34698	
2463	0	34728	
2464	0	34784	
2465	0	34856	
2466	0	34888	
2467	0	34900	
2468	0	34944	
2469	0	34992	
2470	0	35048	
2471	0	35096	
2472	0	35160	
2473	0	35184	
2474	0	35224	
2475	0	35268	
2476	0	35320	
2477	0	35360	
2478	0	35416	
2479	0	35472	
2480	0	35524	
2481	0	35576	
2482	0	35624	
2483	0	35708	
2484	0	35760	
2485	0	35848	
2486	0	35904	
2487	0	35956	
2488	0	35984	
2489	0	36024	
2490	0	36088	
2491	0	36160	
2492	0	36228	
2493	0	36300	
2494	0	36364	
2495	0	36412	
2496	0	36484	
2497	0	36556	
2498	0	36640	
2499	0	36692	
2500	0	36764	
2501	0	36828	
2502	0	36892	
2503	0	36928	
2504	0	36992	
2505	0	37064	
2506	0	37132	
2507	0	37160	
2508	0	37196	
2509	0	37272	
2510	0	37360	
2511	0	37464	
2512	0	37524	
2513	0	37584	
2514	0	37632	
2515	0	37680	
2516	0	37724	
2517	0	37780	
2518	0	37836	
2519	0	37904	
2520	0	37924	
2521	0	37960	
2522	0	37996	
2523	0	38040	
2524	0	38074	
2525	0	38132	
2526	0	38184	
2527	0	38232	
2528	0	38288	
2529	0	38344	
2530	0	38360	
2531	0	38368	
2532	0	38392	
2533	0	38424	
2534	0	38492	
2535	0	38516	
2536	0	38560	
2537	0	38568	
2538	0	38572	
2539	0	38596	
2540	0	38604	
2541	0	38624	
2542	0	38656	
2543	0	38696	
2544	0	38708	
2545	0	38724	
2546	0	38728	
2547	0	38724	
2548	0	38744	
2549	0	38736	
2550	0	38728	
2551	0	38732	
2552	0	38732	
2553	0	38748	
2554	0	38756	
2555	0	38760	
2556	0	38728	
2557	0	38680	
2558	0	38656	
2559	0	38688	
2560	0	38680	
2561	0	38632	
2562	0	38636	
2563	0	38608	
2564	0	38580	
2565	0	38524	
2566	0	38464	
2567	0	38412	
2568	0	38348	
2569	0	38284	
2570	0	38240	
2571	0	38176	
2572	0	38104	
2573	0	37996	
2574	0	37880	
2575	0	37772	
2576	0	37664	
2577	0	37520	
2578	0	37392	
2579	0	37240	
2580	0	37128	
2581	0	37032	
2582	0	36908	
2583	0	36784	
2584	0	36613	
2585	0	36468	
2586	0	36332	
2587	0	36188	
2588	0	36040	
2589	0	35864	
2590	0	35696	
2591	0	35504	
2592	0	35304	
2593	0	35140	
2594	0	34964	
2595	0	34784	
2596	0	34616	
2597	0	34444	
2598	0	34228	
2599	0	34032	
2600	0	33884	
2601	0	33708	
2602	0	33528	
2603	0	33360	
2604	0	33216	
2605	0	33048	
2606	0	32841	
2607	0	32612	
2608	0	32416	
2609	0	32250	
2610	0	32092	
2611	0	31920	
2612	0	31762	
2613	0	31604	
2614	0	31464	
2615	0	31328	
2616	0	31176	
2617	0	31040	
2618	0	30896	
2619	0	30772	
2620	0	30660	
2621	0	30540	
2622	0	30412	
2623	0	30312	
2624	0	30208	
2625	0	30112	
2626	0	30020	
2627	0	29908	
2628	0	29824	
2629	0	29720	
2630	0	29618	
2631	0	29548	
2632	0	29488	
2633	0	29392	
2634	0	29316	
2635	0	29300	
2636	0	29268	
2637	0	29240	
2638	0	29200	
2639	0	29128	
2640	0	29108	
2641	0	29088	
2642	0	29074	
2643	0	29048	
2644	0	29002	
2645	0	28972	
2646	0	28984	
2647	0	28964	
2648	0	28980	
2649	0	28992	
2650	0	29008	
2651	0	29028	
2652	0	28996	
2653	0	28976	
2654	0	28964	
2655	0	28976	
2656	0	28988	
2657	0	28968	
2658	0	28976	
2659	0	28968	
2660	0	28972	
2661	0	29008	
2662	0	29016	
2663	0	29016	
2664	0	29020	
2665	0	29032	
2666	0	29068	
2667	0	29108	
2668	0	29144	
2669	0	29168	
2670	0	29192	
2671	0	29210	
2672	0	29244	
2673	0	29256	
2674	0	29308	
2675	0	29356	
2676	0	29372	
2677	0	29408	
2678	0	29456	
2679	0	29500	
2680	0	29544	
2681	0	29560	
2682	0	29564	
2683	0	29554	
2684	0	29564	
2685	0	29616	
2686	0	29662	
2687	0	29688	
2688	0	29712	
2689	0	29744	
2690	0	29768	
2691	0	29792	
2692	0	29854	
2693	0	29900	
2694	0	29944	
2695	0	29956	
2696	0	29956	
2697	0	29968	
2698	0	29992	
2699	0	30016	
2700	0	30048	
2701	0	30056	
2702	0	30084	
2703	0	30116	
2704	0	30128	
2705	0	30124	
2706	0	30112	
2707	0	30152	
2708	0	30208	
2709	0	30232	
2710	0	30256	
2711	0	30288	
2712	0	30304	
2713	0	30320	
2714	0	30344	
2715	0	30348	
2716	0	30332	
2717	0	30344	
2718	0	30392	
2719	0	30400	
2720	0	30408	
2721	0	30456	
2722	0	30480	
2723	0	30492	
2724	0	30520	
2725	0	30544	
2726	0	30556	
2727	0	30560	
2728	0	30552	
2729	0	30564	
2730	0	30560	
2731	0	30568	
2732	0	30584	
2733	0	30628	
2734	0	30632	
2735	0	30640	
2736	0	30652	
2737	0	30688	
2738	0	30708	
2739	0	30682	
2740	0	30692	
2741	0	30728	
2742	0	30752	
2743	0	30768	
2744	0	30760	
2745	0	30752	
2746	0	30772	
2747	0	30786	
2748	0	30784	
2749	0	30800	
2750	0	30796	
2751	0	30764	
2752	0	30746	
2753	0	30778	
2754	0	30788	
2755	0	30788	
2756	0	30796	
2757	0	30774	
2758	0	30796	
2759	0	30812	
2760	0	30792	
2761	0	30772	
2762	0	30752	
2763	0	30756	
2764	0	30740	
2765	0	30752	
2766	0	30768	
2767	0	30760	
2768	0	30736	
2769	0	30738	
2770	0	30748	
2771	0	30776	
2772	0	30768	
2773	0	30796	
2774	0	30816	
2775	0	30812	
2776	0	30784	
2777	0	30784	
2778	0	30804	
2779	0	30808	
2780	0	30804	
2781	0	30804	
2782	0	30796	
2783	0	30808	
2784	0	30816	
2785	0	30848	
2786	0	30844	
2787	0	30850	
2788	0	30864	
2789	0	30890	
2790	0	30864	
2791	0	30844	
2792	0	30844	
2793	0	30856	
2794	0	30888	
2795	0	30880	
2796	0	30876	
2797	0	30876	
2798	0	30842	
2799	0	30828	
2800	0	30848	
2801	0	30880	
2802	0	30904	
2803	0	30928	
2804	0	30904	
2805	0	30900	
2806	0	30912	
2807	0	30924	
2808	0	30960	
2809	0	30952	
2810	0	30940	
2811	0	30964	
2812	0	30952	
2813	0	30968	
2814	0	30970	
2815	0	30978	
2816	0	30980	
2817	0	30996	
2818	0	31028	
2819	0	31068	
2820	0	31066	
2821	0	31058	
2822	0	31072	
2823	0	31088	
2824	0	31112	
2825	0	31116	
2826	0	31088	
2827	0	31080	
2828	0	31128	
2829	0	31144	
2830	0	31120	
2831	0	31144	
2832	0	31208	
2833	0	31226	
2834	0	31228	
2835	0	31220	
2836	0	31224	
2837	0	31188	
2838	0	31188	
2839	0	31196	
2840	0	31240	
2841	0	31276	
2842	0	31280	
2843	0	31292	
2844	0	31324	
2845	0	31348	
2846	0	31388	
2847	0	31410	
2848	0	31364	
2849	0	31296	
2850	0	31344	
2851	0	31452	
2852	0	31500	
2853	0	31516	
2854	0	31516	
2855	0	31496	
2856	0	31520	
2857	0	31552	
2858	0	31636	
2859	0	31760	
2860	0	31808	
2861	0	31808	
2862	0	31832	
2863	0	31892	
2864	0	32028	
2865	0	32196	
2866	0	32188	
2867	0	32112	
2868	0	32228	
2869	0	32288	
2870	0	32316	
2871	0	32432	
2872	0	32508	
2873	0	32560	
2874	0	32552	
2875	0	32540	
2876	0	32624	
2877	0	32704	
2878	0	32720	
2879	0	32672	
2880	0	32684	
2881	0	32688	
2882	0	32662	
2883	0	32752	
2884	0	32852	
2885	0	32948	
2886	0	33128	
2887	0	33304	
2888	0	33440	
2889	0	33516	
2890	0	33588	
2891	0	33600	
2892	0	33610	
2893	0	33668	
2894	0	33736	
2895	0	33848	
2896	0	33904	
2897	0	33924	
2898	0	34048	
2899	0	34216	
2900	0	34296	
2901	0	34412	
2902	0	34530	
2903	0	34632	
2904	0	34640	
2905	0	34616	
2906	0	34596	
2907	0	34732	
2908	0	34900	
2909	0	34924	
2910	0	34816	
2911	0	34656	
2912	0	34660	
2913	0	34736	
2914	0	34680	
2915	0	34600	
2916	0	34536	
2917	0	34496	
2918	0	34436	
2919	0	34312	
2920	0	34128	
2921	0	34000	
2922	0	33872	
2923	0	33708	
2924	0	33456	
2925	0	33256	
2926	0	33076	
2927	0	32932	
2928	0	32690	
2929	0	32472	
2930	0	32372	
2931	0	32300	
2932	0	32236	
2933	0	32184	
2934	0	32128	
2935	0	32132	
2936	0	32104	
2937	0	31960	
2938	0	31938	
2939	0	31840	
2940	0	31752	
2941	0	31754	
2942	0	31720	
2943	0	31576	
2944	0	31540	
2945	0	31521	
2946	0	31520	
2947	0	31472	
2948	0	31368	
2949	0	31252	
2950	0	31124	
2951	0	30946	
2952	0	30952	
2953	0	30938	
2954	0	30880	
2955	0	30820	
2956	0	30800	
2957	0	30866	
2958	0	30900	
2959	0	30852	
2960	0	30792	
2961	0	30712	
2962	0	30720	
2963	0	30804	
2964	0	30756	
2965	0	30800	
2966	0	30924	
2967	0	31020	
2968	0	31040	
2969	0	30898	
2970	0	30844	
2971	0	30924	
2972	0	30980	
2973	0	31004	
2974	0	30948	
2975	0	30988	
2976	0	31016	
2977	0	31064	
2978	0	31096	
2979	0	31104	
2980	0	31140	
2981	0	31152	
2982	0	31088	
2983	0	31156	
2984	0	31344	
2985	0	31360	
2986	0	31336	
2987	0	31328	
2988	0	31372	
2989	0	31308	
2990	0	31144	
2991	0	31226	
2992	0	31300	
2993	0	31328	
2994	0	31304	
2995	0	31296	
2996	0	31320	
2997	0	31380	
2998	0	31416	
2999	0	31384	
3000	0	31364	
3001	0	31406	
3002	0	31452	
3003	0	31468	
3004	0	31498	
3005	0	31524	
3006	0	31520	
3007	0	31508	
3008	0	31520	
3009	0	31552	
3010	0	31584	
3011	0	31584	
3012	0	31572	
3013	0	31574	
3014	0	31504	
3015	0	31344	
3016	0	31104	
3017	0	30784	
3018	0	30416	
3019	0	30060	
3020	0	29800	
3021	0	29608	
3022	0	29528	
3023	0	29728	
3024	0	30140	
3025	0	30572	
3026	0	30940	
3027	0	31340	
3028	0	31848	
3029	0	32448	
3030	0	33012	
3031	0	33442	
3032	0	33834	
3033	0	34280	
3034	0	34660	
3035	0	35160	
3036	0	35820	
3037	0	36732	
3038	0	37856	
3039	0	39288	
3040	0	41024	
3041	0	42912	
3042	0	44984	
3043	0	47432	
3044	0	50224	
3045	0	53192	
3046	0	55888	
3047	0	57912	
3048	0	59288	
3049	0	60548	
3050	0	61792	
3051	0	62804	
3052	0	63496	
3053	0	63760	
3054	0	63388	
3055	0	62440	
3056	0	61024	
3057	0	59368	
3058	0	57378	
3059	0	54928	
3060	0	52208	
3061	0	49624	
3062	0	47052	
3063	0	44472	
3064	0	41848	
3065	0	39118	
3066	0	36348	
3067	0	33784	
3068	0	31464	
3069	0	29340	
3070	0	27186	
3071	0	25092	
3072	0	23340	
3073	0	22016	
3074	0	20920	
3075	0	20026	
3076	0	19364	
3077	0	18780	
3078	0	18106	
3079	0	17448	
3080	0	16873	
3081	0	16404	
3082	0	16022	
3083	0	15776	
3084	0	15642	
3085	0	15768	
3086	0	16096	
3087	0	16552	
3088	0	17264	
3089	0	18136	
3090	0	19080	
3091	0	20048	
3092	0	21042	
3093	0	22058	
3094	0	23188	
3095	0	24378	
3096	0	25472	
3097	0	26416	
3098	0	27200	
3099	0	27832	
3100	0	28384	
3101	0	28900	
3102	0	29300	
3103	0	29626	
3104	0	29944	
3105	0	30256	
3106	0	30524	
3107	0	30756	
3108	0	30932	
3109	0	31056	
3110	0	31180	
3111	0	31288	
3112	0	31328	
3113	0	31360	
3114	0	31432	
3115	0	31536	
3116	0	31616	
3117	0	31694	
3118	0	31756	
3119	0	31784	
3120	0	31852	
3121	0	31900	
3122	0	31928	
3123	0	32016	
3124	0	32116	
3125	0	32168	
3126	0	32216	
3127	0	32316	
3128	0	32392	
3129	0	32424	
3130	0	32480	
3131	0	32568	
3132	0	32672	
3133	0	32740	
3134	0	32792	
3135	0	32856	
3136	0	32916	
3137	0	32960	
3138	0	32968	
3139	0	32992	
3140	0	33008	
3141	0	33038	
3142	0	33060	
3143	0	33120	
3144	0	33188	
3145	0	33232	
3146	0	33276	
3147	0	33312	
3148	0	33346	
3149	0	33408	
3150	0	33460	
3151	0	33508	
3152	0	33548	
3153	0	33592	
3154	0	33612	
3155	0	33628	
3156	0	33664	
3157	0	33712	
3158	0	33748	
3159	0	33792	
3160	0	33866	
3161	0	33940	
3162	0	33956	
3163	0	33992	
3164	0	33996	
3165	0	33988	
3166	0	33994	
3167	0	34056	
3168	0	34112	
3169	0	34136	
3170	0	34128	
3171	0	34176	
3172	0	34212	
3173	0	34236	
3174	0	34242	
3175	0	34208	
3176	0	34188	
3177	0	34204	
3178	0	34232	
3179	0	34304	
3180	0	34352	
3181	0	34404	
3182	0	34436	
3183	0	34496	
3184	0	34526	
3185	0	34564	
3186	0	34596	
3187	0	34596	
3188	0	34588	
3189	0	34620	
3190	0	34618	
3191	0	34600	
3192	0	34584	
3193	0	34568	
3194	0	34560	
3195	0	34640	
3196	0	34748	
3197	0	34888	
3198	0	35036	
3199	0	35168	
3200	0	35252	
3201	0	35280	
3202	0	35248	
3203	0	35248	
3204	0	35268	
3205	0	35280	
3206	0	35280	
3207	0	35308	
3208	0	35364	
3209	0	35444	
3210	0	35488	
3211	0	35568	
3212	0	35680	
3213	0	35720	
3214	0	35776	
3215	0	35840	
3216	0	35868	
3217	0	35864	
3218	0	35848	
3219	0	35872	
3220	0	35944	
3221	0	36032	
3222	0	36056	
3223	0	36024	
3224	0	36044	
3225	0	36120	
3226	0	36252	
3227	0	36356	
3228	0	36428	
3229	0	36512	
3230	0	36616	
3231	0	36720	
3232	0	36768	
3233	0	36756	
3234	0	36684	
3235	0	36640	
3236	0	36660	
3237	0	36748	
3238	0	36898	
3239	0	37064	
3240	0	37224	
3241	0	37396	
3242	0	37540	
3243	0	37632	
3244	0	37684	
3245	0	37672	
3246	0	37656	
3247	0	37652	
3248	0	37616	
3249	0	37564	
3250	0	37552	
3251	0	37576	
3252	0	37644	
3253	0	37764	
3254	0	37848	
3255	0	37872	
3256	0	37844	
3257	0	37840	
3258	0	37864	
3259	0	37896	
3260	0	37944	
3261	0	38004	
3262	0	38040	
3263	0	38064	
3264	0	38106	
3265	0	38124	
3266	0	38216	
3267	0	38324	
3268	0	38432	
3269	0	38524	
3270	0	38628	
3271	0	38652	
3272	0	38624	
3273	0	38548	
3274	0	38416	
3275	0	38300	
3276	0	38264	
3277	0	38300	
3278	0	38328	
3279	0	38348	
3280	0	38428	
3281	0	38492	
3282	0	38536	
3283	0	38552	
3284	0	38528	
3285	0	38436	
3286	0	38380	
3287	0	38320	
3288	0	38240	
3289	0	38112	
3290	0	37952	
3291	0	37820	
3292	0	37692	
3293	0	37612	
3294	0	37592	
3295	0	37616	
3296	0	37618	
3297	0	37672	
3298	0	37812	
3299	0	37864	
3300	0	37860	
3301	0	37956	
3302	0	38224	
3303	0	38528	
3304	0	38856	
3305	0	39272	
3306	0	39604	
3307	0	39852	
3308	0	39944	
3309	0	39968	
3310	0	40052	
3311	0	40260	
3312	0	40448	
3313	0	40448	
3314	0	40300	
3315	0	39980	
3316	0	39528	
3317	0	38908	
3318	0	38132	
3319	0	37232	
3320	0	36472	
3321	0	36032	
3322	0	35756	
3323	0	35424	
3324	0	35024	
3325	0	34488	
3326	0	33848	
3327	0	33220	
3328	0	32668	
3329	0	32248	
3330	0	32008	
3331	0	31928	
3332	0	31860	
3333	0	31624	
3334	0	31248	
3335	0	30892	
3336	0	30620	
3337	0	30304	
3338	0	29964	
3339	0	29664	
3340	0	29408	
3341	0	29186	
3342	0	28992	
3343	0	28856	
3344	0	28800	
3345	0	28804	
3346	0	28860	
3347	0	28832	
3348	0	28756	
3349	0	28672	
3350	0	28592	
3351	0	28564	
3352	0	28548	
3353	0	28604	
3354	0	28680	
3355	0	28736	
3356	0	28736	
3357	0	28660	
3358	0	28596	
3359	0	28548	
3360	0	28468	
3361	0	28416	
3362	0	28428	
3363	0	28488	
3364	0	28580	
3365	0	28708	
3366	0	28932	
3367	0	29112	
3368	0	29168	
3369	0	29144	
3370	0	29016	
3371	0	28906	
3372	0	28772	
3373	0	28664	
3374	0	28584	
3375	0	28548	
3376	0	28536	
3377	0	28556	
3378	0	28548	
3379	0	28592	
3380	0	28728	
3381	0	29024	
3382	0	29336	
3383	0	29552	
3384	0	29640	
3385	0	29676	
3386	0	29664	
3387	0	29672	
3388	0	29696	
3389	0	29742	
3390	0	29844	
3391	0	29920	
3392	0	30072	
3393	0	30228	
3394	0	30368	
3395	0	30408	
3396	0	30337	
3397	0	30220	
3398	0	30088	
3399	0	29964	
3400	0	29796	
3401	0	29604	
3402	0	29416	
3403	0	29368	
3404	0	29588	
3405	0	29972	
3406	0	30350	
3407	0	30704	
3408	0	30964	
3409	0	31160	
3410	0	31264	
3411	0	31208	
3412	0	31000	
3413	0	30676	
3414	0	30284	
3415	0	29934	
3416	0	29568	
3417	0	29134	
3418	0	28768	
3419	0	28464	
3420	0	28176	
3421	0	28000	
3422	0	27944	
3423	0	27956	
3424	0	28002	
3425	0	28076	
3426	0	28170	
3427	0	28300	
3428	0	28468	
3429	0	28602	
3430	0	28728	
3431	0	28860	
3432	0	28960	
3433	0	29004	
3434	0	29008	
3435	0	29040	
3436	0	29116	
3437	0	29208	
3438	0	29312	
3439	0	29440	
3440	0	29504	
3441	0	29604	
3442	0	29752	
3443	0	29924	
3444	0	30068	
3445	0	30212	
3446	0	30384	
3447	0	30586	
3448	0	30758	
3449	0	30892	
3450	0	30984	
3451	0	31050	
3452	0	31088	
3453	0	31080	
3454	0	31018	
3455	0	30956	
3456	0	30886	
3457	0	30888	
3458	0	30852	
3459	0	30744	
3460	0	30636	
3461	0	30554	
3462	0	30480	
3463	0	30436	
3464	0	30396	
3465	0	30432	
3466	0	30520	
3467	0	30588	
3468	0	30664	
3469	0	30760	
3470	0	30824	
3471	0	30868	
3472	0	30892	
3473	0	30892	
3474	0	30872	
3475	0	30856	
3476	0	30856	
3477	0	30852	
3478	0	30908	
3479	0	30968	
3480	0	31020	
3481	0	31112	
3482	0	31232	
3483	0	31260	
3484	0	31200	
3485	0	31074	
3486	0	30924	
3487	0	30868	
3488	0	30834	
3489	0	30824	
3490	0	30882	
3491	0	31060	
3492	0	31356	
3493	0	31616	
3494	0	31856	
3495	0	32148	
3496	0	32508	
3497	0	33128	
3498	0	33788	
3499	0	34196	
3500	0	34200	
3501	0	33900	
3502	0	33364	
3503	0	32852	
3504	0	32456	
3505	0	32204	
3506	0	31992	
3507	0	31864	
3508	0	31900	
3509	0	31876	
3510	0	31728	
3511	0	31690	
3512	0	31736	
3513	0	31872	
3514	0	32038	
3515	0	32160	
3516	0	32220	
3517	0	32152	
3518	0	31988	
3519	0	31744	
3520	0	31368	
3521	0	31054	
3522	0	30852	
3523	0	30712	
3524	0	30580	
3525	0	30444	
3526	0	30276	
3527	0	30068	
3528	0	29836	
3529	0	29600	
3530	0	29352	
3531	0	29242	
3532	0	29292	
3533	0	29428	
3534	0	29500	
3535	0	29512	
3536	0	29600	
3537	0	29664	
3538	0	29696	
3539	0	29724	
3540	0	29810	
3541	0	29936	
3542	0	30040	
3543	0	30096	
3544	0	30184	
3545	0	30248	
3546	0	30280	
3547	0	30280	
3548	0	30264	
3549	0	30276	
3550	0	30336	
3551	0	30506	
3552	0	30676	
3553	0	30868	
3554	0	31088	
3555	0	31300	
3556	0	31632	
3557	0	32096	
3558	0	32440	
3559	0	32670	
3560	0	32888	
3561	0	32992	
3562	0	33024	
3563	0	33018	
3564	0	32952	
3565	0	32816	
3566	0	32672	
3567	0	32596	
3568	0	32448	
3569	0	32264	
3570	0	32088	
3571	0	31884	
3572	0	31704	
3573	0	31696	
3574	0	31948	
3575	0	32184	
3576	0	32412	
3577	0	32764	
3578	0	33048	
3579	0	33056	
3580	0	32880	
3581	0	32688	
3582	0	32504	
3583	0	32472	
3584	0	32556	
3585	0	32592	
3586	0	32532	
3587	0	32440	
3588	0	32336	
3589	0	32244	
3590	0	32128	
3591	0	31976	
3592	0	31800	
3593	0	31736	
3594	0	31740	
3595	0	31972	
3596	0	32352	
3597	0	32660	
3598	0	32744	
3599	0	32696	
3600	0	32722	
3601	0	32716	
3602	0	32672	
3603	0	32704	
3604	0	32728	
3605	0	32656	
3606	0	32596	
3607	0	32744	
3608	0	32816	
3609	0	32672	
3610	0	32364	
3611	0	31972	
3612	0	31756	
3613	0	31776	
3614	0	31668	
3615	0	31360	
3616	0	31068	
3617	0	30768	
3618	0	30524	
3619	0	30256	
3620	0	30032	
3621	0	30172	
3622	0	30848	
3623	0	31716	
3624	0	32304	
3625	0	32632	
3626	0	32780	
3627	0	32768	
3628	0	32660	
3629	0	32520	
3630	0	32384	
3631	0	32298	
3632	0	32168	
3633	0	31884	
3634	0	31534	
3635	0	31218	
3636	0	30880	
3637	0	30756	
3638	0	31024	
3639	0	31384	
3640	0	31616	
3641	0	31808	
3642	0	31968	
3643	0	32032	
3644	0	32088	
3645	0	32160	
3646	0	32232	
3647	0	32332	
3648	0	32388	
3649	0	32392	
3650	0	32440	
3651	0	32656	
3652	0	32928	
3653	0	33084	
3654	0	33152	
3655	0	33216	
3656	0	33340	
3657	0	33576	
3658	0	33724	
3659	0	33844	
3660	0	34048	
3661	0	34168	
3662	0	34188	
3663	0	34356	
3664	0	34728	
3665	0	35180	
3666	0	35468	
3667	0	35560	
3668	0	35524	
3669	0	35412	
3670	0	35232	
3671	0	35152	
3672	0	35248	
3673	0	35660	
3674	0	36192	
3675	0	36576	
3676	0	36600	
3677	0	36456	
3678	0	36528	
3679	0	36852	
3680	0	37404	
3681	0	37752	
3682	0	37788	
3683	0	37864	
3684	0	38032	
3685	0	38028	
3686	0	37696	
3687	0	37024	
3688	0	36228	
3689	0	35592	
3690	0	35040	
3691	0	34816	
3692	0	35088	
3693	0	35304	
3694	0	35240	
3695	0	35052	
3696	0	34692	
3697	0	34260	
3698	0	33868	
3699	0	33652	
3700	0	33480	
3701	0	33304	
3702	0	33116	
3703	0	32832	
3704	0	32410	
3705	0	31928	
3706	0	31680	
3707	0	31816	
3708	0	32076	
3709	0	32656	
3710	0	33376	
3711	0	33832	
3712	0	33892	
3713	0	33720	
3714	0	33344	
3715	0	32748	
3716	0	32136	
3717	0	31756	
3718	0	31672	
3719	0	31676	
3720	0	31528	
3721	0	31244	
3722	0	30948	
3723	0	30778	
3724	0	30768	
3725	0	30784	
3726	0	30588	
3727	0	30312	
3728	0	29986	
3729	0	29680	
3730	0	29392	
3731	0	29120	
3732	0	28796	
3733	0	28552	
3734	0	28442	
3735	0	28580	
3736	0	28912	
3737	0	29180	
3738	0	29440	
3739	0	29776	
3740	0	30244	
3741	0	30856	
3742	0	31288	
3743	0	31532	
3744	0	31680	
3745	0	31904	
3746	0	32148	
3747	0	32404	
3748	0	32520	
3749	0	32460	
3750	0	32264	
3751	0	31980	
3752	0	31576	
3753	0	31076	
3754	0	30592	
3755	0	30144	
3756	0	29898	
3757	0	29944	
3758	0	30148	
3759	0	30356	
3760	0	30474	
3761	0	30920	
3762	0	31914	
3763	0	32972	
3764	0	33792	
3765	0	34484	
3766	0	34908	
3767	0	35156	
3768	0	35296	
3769	0	35240	
3770	0	35276	
3771	0	35836	
3772	0	36368	
3773	0	36676	
3774	0	36592	
3775	0	36028	
3776	0	34976	
3777	0	33832	
3778	0	32560	
3779	0	31164	
3780	0	29764	
3781	0	28480	
3782	0	27408	
3783	0	26632	
3784	0	26156	
3785	0	26006	
3786	0	26160	
3787	0	26530	
3788	0	27104	
3789	0	27796	
3790	0	28452	
3791	0	28932	
3792	0	29240	
3793	0	29304	
3794	0	29191	
3795	0	28898	
3796	0	28640	
3797	0	28640	
3798	0	28820	
3799	0	29020	
3800	0	29480	
3801	0	30168	
3802	0	30888	
3803	0	31616	
3804	0	32416	
3805	0	33296	
3806	0	34128	
3807	0	34704	
3808	0	34920	
3809	0	34974	
3810	0	34840	
3811	0	34644	
3812	0	34736	
3813	0	34884	
3814	0	35168	
3815	0	35648	
3816	0	36434	
3817	0	37772	
3818	0	39616	
3819	0	41792	
3820	0	44244	
3821	0	46980	
3822	0	49772	
3823	0	52088	
3824	0	54016	
3825	0	55784	
3826	0	57432	
3827	0	59080	
3828	0	60732	
3829	0	62400	
3830	0	63524	
3831	0	63868	
3832	0	63712	
3833	0	62784	
3834	0	61160	
3835	0	59168	
3836	0	56864	
3837	0	54452	
3838	0	51908	
3839	0	49576	
3840	0	47192	
3841	0	44424	
3842	0	41404	
3843	0	38404	
3844	0	35368	
3845	0	32346	
3846	0	29696	
3847	0	27524	
3848	0	25740	
3849	0	24270	
3850	0	22996	
3851	0	21998	
3852	0	21164	
3853	0	20328	
3854	0	19448	
3855	0	18516	
3856	0	17534	
3857	0	16664	
3858	0	15764	
3859	0	14832	
3860	0	13988	
3861	0	13480	
3862	0	13410	
3863	0	13588	
3864	0	13876	
3865	0	14441	
3866	0	15144	
3867	0	15872	
3868	0	16760	
3869	0	17982	
3870	0	19360	
3871	0	20764	
3872	0	22060	
3873	0	23208	
3874	0	24248	
3875	0	25180	
3876	0	25908	
3877	0	26452	
3878	0	26920	
3879	0	27352	
3880	0	27764	
3881	0	28224	
3882	0	28628	
3883	0	28936	
3884	0	29088	
3885	0	29284	
3886	0	29592	
3887	0	29984	
3888	0	30392	
3889	0	30596	
3890	0	30536	
3891	0	30612	
3892	0	31184	
3893	0	31936	
3894	0	32820	
3895	0	33496	
3896	0	33804	
3897	0	33812	
3898	0	33600	
3899	0	33250	
3900	0	32968	
3901	0	32604	
3902	0	31930	
3903	0	31100	
3904	0	30332	
3905	0	29882	
3906	0	29752	
3907	0	29768	
3908	0	29720	
3909	0	29516	
3910	0	29368	
3911	0	29576	
3912	0	29964	
3913	0	30452	
3914	0	31132	
3915	0	31868	
3916	0	32456	
3917	0	33120	
3918	0	33778	
3919	0	34336	
3920	0	34668	
3921	0	34656	
3922	0	34564	
3923	0	34396	
3924	0	34092	
3925	0	33920	
3926	0	33896	
3927	0	33884	
3928	0	33828	
3929	0	33540	
3930	0	33132	
3931	0	32728	
3932	0	32716	
3933	0	32900	
3934	0	33020	
3935	0	33032	
3936	0	32908	
3937	0	32608	
3938	0	32268	
3939	0	32132	
3940	0	32240	
3941	0	32544	
3942	0	32656	
3943	0	32608	
3944	0	32644	
3945	0	32948	
3946	0	33388	
3947	0	33838	
3948	0	34364	
3949	0	34920	
3950	0	35328	
3951	0	35624	
3952	0	35708	
3953	0	35696	
3954	0	35760	
3955	0	36048	
3956	0	36384	
3957	0	36636	
3958	0	37040	
3959	0	37348	
3960	0	37216	
3961	0	36916	
3962	0	36368	
3963	0	35676	
3964	0	35048	
3965	0	34540	
3966	0	34056	
3967	0	33568	
3968	0	33272	
3969	0	33076	
3970	0	32816	
3971	0	32472	
3972	0	31976	
3973	0	31488	
3974	0	31184	
3975	0	31136	
3976	0	31168	
3977	0	31316	
3978	0	31696	
3979	0	32172	
3980	0	32704	
3981	0	33312	
3982	0	33924	
3983	0	34620	
3984	0	35232	
3985	0	35700	
3986	0	35936	
3987	0	35792	
3988	0	35480	
3989	0	35112	
3990	0	34800	
3991	0	34692	
3992	0	34760	
3993	0	34882	
3994	0	34904	
3995	0	34888	
3996	0	35042	
3997	0	35336	
3998	0	35596	
3999	0	35828	
4000	0	35996	
4001	0	36108	
4002	0	35948	
4003	0	35584	
4004	0	35332	
4005	0	35244	
4006	0	35088	
4007	0	34840	
4008	0	34552	
4009	0	34496	
4010	0	34652	
4011	0	34964	
4012	0	35624	
4013	0	36544	
4014	0	37516	
4015	0	38384	
4016	0	38984	
4017	0	39176	
4018	0	39056	
4019	0	38696	
4020	0	38244	
4021	0	37724	
4022	0	37088	
4023	0	36456	
4024	0	35776	
4025	0	35148	
4026	0	34824	
4027	0	34720	
4028	0	34754	
4029	0	34944	
4030	0	35288	
4031	0	35764	
4032	0	36320	
4033	0	36896	
4034	0	37556	
4035	0	38392	
4036	0	39324	
4037	0	40044	
4038	0	40664	
4039	0	41076	
4040	0	41032	
4041	0	40632	
4042	0	39896	
4043	0	38936	
4044	0	37856	
4045	0	36864	
4046	0	35992	
4047	0	35248	
4048	0	34728	
4049	0	34340	
4050	0	34108	
4051	0	34200	
4052	0	34488	
4053	0	34828	
4054	0	35248	
4055	0	35772	
4056	0	36336	
4057	0	36804	
4058	0	37228	
4059	0	37812	
4060	0	38604	
4061	0	39230	
4062	0	39596	
4063	0	39800	
4064	0	39960	
4065	0	40120	
4066	0	40100	
4067	0	39836	
4068	0	39532	
4069	0	39064	
4070	0	38464	
4071	0	37872	
4072	0	37344	
4073	0	36914	
4074	0	36578	
4075	0	36344	
4076	0	36072	
4077	0	35774	
4078	0	35664	
4079	0	35752	
4080	0	36108	
4081	0	36796	
4082	0	37476	
4083	0	38000	
4084	0	38568	
4085	0	39120	
4086	0	39528	
4087	0	39824	
4088	0	40164	
4089	0	40208	
4090	0	40080	
4091	0	39840	
4092	0	39124	
4093	0	37988	
4094	0	36908	
4095	0	36332	
4096	0	36064	
4097	0	35684	
4098	0	35048	
4099	0	34364	
4100	0	33688	
4101	0	33332	
4102	0	33372	
4103	0	33628	
4104	0	33824	
4105	0	33724	
4106	0	33276	
4107	0	32756	
4108	0	32544	
4109	0	32578	
4110	0	32672	
4111	0	32580	
4112	0	32288	
4113	0	32064	
4114	0	32304	
4115	0	32764	
4116	0	33154	
4117	0	33410	
4118	0	33440	
4119	0	33232	
4120	0	32736	
4121	0	32096	
4122	0	31500	
4123	0	30996	
4124	0	30412	
4125	0	29760	
4126	0	29296	
4127	0	29076	
4128	0	28938	
4129	0	28908	
4130	0	29096	
4131	0	29384	
4132	0	29696	
4133	0	30036	
4134	0	30250	
4135	0	30300	
4136	0	30268	
4137	0	30144	
4138	0	29920	
4139	0	29686	
4140	0	29476	
4141	0	29380	
4142	0	29292	
4143	0	29152	
4144	0	29040	
4145	0	28976	
4146	0	29068	
4147	0	29224	
4148	0	29588	
4149	0	29956	
4150	0	30028	
4151	0	29984	
4152	0	29948	
4153	0	30096	
4154	0	30560	
4155	0	31180	
4156	0	31656	
4157	0	31800	
4158	0	31488	
4159	0	30904	
4160	0	30280	
4161	0	29672	
4162	0	29112	
4163	0	28520	
4164	0	28048	
4165	0	27748	
4166	0	27748	
4167	0	27952	
4168	0	28276	
4169	0	28668	
4170	0	29214	
4171	0	29784	
4172	0	30512	
4173	0	31420	
4174	0	32240	
4175	0	32916	
4176	0	33496	
4177	0	33948	
4178	0	34400	
4179	0	34700	
4180	0	34536	
4181	0	34052	
4182	0	33304	
4183	0	32152	
4184	0	30950	
4185	0	29948	
4186	0	29088	
4187	0	28482	
4188	0	28256	
4189	0	28250	
4190	0	28544	
4191	0	28984	
4192	0	29248	
4193	0	29520	
4194	0	29922	
4195	0	30118	
4196	0	30000	
4197	0	29568	
4198	0	28752	
4199	0	27744	
4200	0	27004	
4201	0	26556	
4202	0	26280	
4203	0	26036	
4204	0	26046	
4205	0	26096	
4206	0	26232	
4207	0	26504	
4208	0	26920	
4209	0	27416	
4210	0	27960	
4211	0	28496	
4212	0	29034	
4213	0	29576	
4214	0	30142	
4215	0	30556	
4216	0	30648	
4217	0	30440	
4218	0	30064	
4219	0	29658	
4220	0	29460	
4221	0	29346	
4222	0	29230	
4223	0	29020	
4224	0	28752	
4225	0	28568	
4226	0	28660	
4227	0	28812	
4228	0	29012	
4229	0	29250	
4230	0	29508	
4231	0	29668	
4232	0	29680	
4233	0	29704	
4234	0	29760	
4235	0	29860	
4236	0	29968	
4237	0	30060	
4238	0	30112	
4239	0	30170	
4240	0	30220	
4241	0	30276	
4242	0	30320	
4243	0	30352	
4244	0	30304	
4245	0	30232	
4246	0	30208	
4247	0	30240	
4248	0	30304	
4249	0	30272	
4250	0	30194	
4251	0	30204	
4252	0	30248	
4253	0	30320	
4254	0	30372	
4255	0	30496	
4256	0	30656	
4257	0	30784	
4258	0	30844	
4259	0	30796	
4260	0	30648	
4261	0	30456	
4262	0	30388	
4263	0	30520	
4264	0	30788	
4265	0	31308	
4266	0	31796	
4267	0	32108	
4268	0	32332	
4269	0	32532	
4270	0	32576	
4271	0	32444	
4272	0	32128	
4273	0	31724	
4274	0	31540	
4275	0	31548	
4276	0	31522	
4277	0	31496	
4278	0	31444	
4279	0	31232	
4280	0	30924	
4281	0	30684	
4282	0	30436	
4283	0	30172	
4284	0	29952	
4285	0	29816	
4286	0	29712	
4287	0	29656	
4288	0	29688	
4289	0	29732	
4290	0	29764	
4291	0	29896	
4292	0	30024	
4293	0	30112	
4294	0	30166	
4295	0	30004	
4296	0	29776	
4297	0	29624	
4298	0	29644	
4299	0	29716	
4300	0	29848	
4301	0	30080	
4302	0	30408	
4303	0	30862	
4304	0	31412	
4305	0	31912	
4306	0	32244	
4307	0	32460	
4308	0	32588	
4309	0	32564	
4310	0	32432	
4311	0	32132	
4312	0	31728	
4313	0	31360	
4314	0	31188	
4315	0	31296	
4316	0	31452	
4317	0	31492	
4318	0	31520	
4319	0	31588	
4320	0	31768	
4321	0	31956	
4322	0	31980	
4323	0	31856	
4324	0	31436	
4325	0	30892	
4326	0	30592	
4327	0	30388	
4328	0	30268	
4329	0	30140	
4330	0	30160	
4331	0	30316	
4332	0	30392	
4333	0	30420	
4334	0	30708	
4335	0	31080	
4336	0	31360	
4337	0	31444	
4338	0	31456	
4339	0	31458	
4340	0	31496	
4341	0	31604	
4342	0	31662	
4343	0	31544	
4344	0	31296	
4345	0	31082	
4346	0	31010	
4347	0	31072	
4348	0	31120	
4349	0	31108	
4350	0	31040	
4351	0	30992	
4352	0	30928	
4353	0	30936	
4354	0	30932	
4355	0	30866	
4356	0	30740	
4357	0	30632	
4358	0	30432	
4359	0	30210	
4360	0	30232	
4361	0	30200	
4362	0	30036	
4363	0	29860	
4364	0	29824	
4365	0	29922	
4366	0	30124	
4367	0	30408	
4368	0	30636	
4369	0	30844	
4370	0	31124	
4371	0	31456	
4372	0	31800	
4373	0	32108	
4374	0	32272	
4375	0	32274	
4376	0	32248	
4377	0	32264	
4378	0	32536	
4379	0	33104	
4380	0	33644	
4381	0	34072	
4382	0	34224	
4383	0	34136	
4384	0	34008	
4385	0	34080	
4386	0	34116	
4387	0	33984	
4388	0	33608	
4389	0	33114	
4390	0	32634	
4391	0	32328	
4392	0	32080	
4393	0	31914	
4394	0	31930	
4395	0	32084	
4396	0	32232	
4397	0	32460	
4398	0	32724	
4399	0	33168	
4400	0	33740	
4401	0	34244	
4402	0	34556	
4403	0	34700	
4404	0	34628	
4405	0	34556	
4406	0	34468	
4407	0	34308	
4408	0	34224	
4409	0	34264	
4410	0	34368	
4411	0	34568	
4412	0	34768	
4413	0	34888	
4414	0	34892	
4415	0	34756	
4416	0	34432	
4417	0	34068	
4418	0	33736	
4419	0	33436	
4420	0	33176	
4421	0	33160	
4422	0	33440	
4423	0	33796	
4424	0	34284	
4425	0	34708	
4426	0	34896	
4427	0	34776	
4428	0	34400	
4429	0	33954	
4430	0	33408	
4431	0	32760	
4432	0	32084	
4433	0	31476	
4434	0	30960	
4435	0	30320	
4436	0	29716	
4437	0	29400	
4438	0	29244	
4439	0	29304	
4440	0	29452	
4441	0	29668	
4442	0	29956	
4443	0	30216	
4444	0	30476	
4445	0	30820	
4446	0	31300	
4447	0	31968	
4448	0	32388	
4449	0	32412	
4450	0	32108	
4451	0	31760	
4452	0	31388	
4453	0	30970	
4454	0	30504	
4455	0	30112	
4456	0	29792	
4457	0	29452	
4458	0	29248	
4459	0	29276	
4460	0	29388	
4461	0	29588	
4462	0	29768	
4463	0	29776	
4464	0	29764	
4465	0	29776	
4466	0	29868	
4467	0	29920	
4468	0	30056	
4469	0	30304	
4470	0	30644	
4471	0	31120	
4472	0	31568	
4473	0	31844	
4474	0	31916	
4475	0	31820	
4476	0	31596	
4477	0	31376	
4478	0	31088	
4479	0	30756	
4480	0	30504	
4481	0	30268	
4482	0	30096	
4483	0	30032	
4484	0	29978	
4485	0	29864	
4486	0	29760	
4487	0	29708	
4488	0	29684	
4489	0	29792	
4490	0	30056	
4491	0	30424	
4492	0	30768	
4493	0	31052	
4494	0	31288	
4495	0	31460	
4496	0	31504	
4497	0	31580	
4498	0	31704	
4499	0	31736	
4500	0	31676	
4501	0	31530	
4502	0	31424	
4503	0	31408	
4504	0	31560	
4505	0	31672	
4506	0	31644	
4507	0	31548	
4508	0	31424	
4509	0	31288	
4510	0	31112	
4511	0	30880	
4512	0	30736	
4513	0	30714	
4514	0	30934	
4515	0	31372	
4516	0	31880	
4517	0	32260	
4518	0	32416	
4519	0	32394	
4520	0	32048	
4521	0	31496	
4522	0	31000	
4523	0	30536	
4524	0	30092	
4525	0	29628	
4526	0	29136	
4527	0	28736	
4528	0	28672	
4529	0	28956	
4530	0	29436	
4531	0	30008	
4532	0	30604	
4533	0	31154	
4534	0	31576	
4535	0	31896	
4536	0	32448	
4537	0	33356	
4538	0	34480	
4539	0	35860	
4540	0	37576	
4541	0	39620	
4542	0	41980	
4543	0	44632	
4544	0	47540	
4545	0	50732	
4546	0	53800	
4547	0	56308	
4548	0	58356	
4549	0	60392	
4550	0	62480	
4551	0	64096	
4552	0	64936	
4553	0	65332	
4554	0	65488	
4555	0	65516	
4556	0	65472	
4557	0	65384	
4558	0	62704	
4559	0	59724	
4560	0	56856	
4561	0	53952	
4562	0	50928	
4563	0	47896	
4564	0	44876	
4565	0	41640	
4566	0	38392	
4567	0	35360	
4568	0	32396	
4569	0	29544	
4570	0	26964	
4571	0	24842	
4572	0	23116	
4573	0	21676	
4574	0	20464	
4575	0	19492	
4576	0	18804	
4577	0	18266	
4578	0	17700	
4579	0	17180	
4580	0	16682	
4581	0	16256	
4582	0	15944	
4583	0	15778	
4584	0	15764	
4585	0	15848	
4586	0	16120	
4587	0	16472	
4588	0	16996	
4589	0	17900	
4590	0	19428	
4591	0	21264	
4592	0	22800	
4593	0	23752	
4594	0	24312	
4595	0	24748	
4596	0	25180	
4597	0	25632	
4598	0	26128	
4599	0	26740	
4600	0	27420	
4601	0	27988	
4602	0	28508	
4603	0	29168	
4604	0	29856	
4605	0	30328	
4606	0	30542	
4607	0	30552	
4608	0	30392	
4609	0	30192	
4610	0	29988	
4611	0	29640	
4612	0	29284	
4613	0	29200	
4614	0	29448	
4615	0	30024	
4616	0	30800	
4617	0	31548	
4618	0	32160	
4619	0	32548	
4620	0	32768	
4621	0	32716	
4622	0	32592	
4623	0	32344	
4624	0	31948	
4625	0	31572	
4626	0	31324	
4627	0	30964	
4628	0	30486	
4629	0	30168	
4630	0	30080	
4631	0	30028	
4632	0	30084	
4633	0	30204	
4634	0	30292	
4635	0	30456	
4636	0	30720	
4637	0	31116	
4638	0	31748	
4639	0	32352	
4640	0	32772	
4641	0	33032	
4642	0	33256	
4643	0	33460	
4644	0	33668	
4645	0	33868	
4646	0	34072	
4647	0	34320	
4648	0	34668	
4649	0	34848	
4650	0	34972	
4651	0	34944	
4652	0	34656	
4653	0	34304	
4654	0	34288	
4655	0	34412	
4656	0	34320	
4657	0	34112	
4658	0	34250	
4659	0	34736	
4660	0	35216	
4661	0	35596	
4662	0	35780	
4663	0	35712	
4664	0	35428	
4665	0	35042	
4666	0	34844	
4667	0	34932	
4668	0	35070	
4669	0	35176	
4670	0	35084	
4671	0	34892	
4672	0	34552	
4673	0	34160	
4674	0	33736	
4675	0	33401	
4676	0	33032	
4677	0	32624	
4678	0	32416	
4679	0	32092	
4680	0	31788	
4681	0	31732	
4682	0	32120	
4683	0	32804	
4684	0	33472	
4685	0	33940	
4686	0	34264	
4687	0	34392	
4688	0	34300	
4689	0	34284	
4690	0	34232	
4691	0	34134	
4692	0	33952	
4693	0	33664	
4694	0	33384	
4695	0	33368	
4696	0	33544	
4697	0	33744	
4698	0	33952	
4699	0	34152	
4700	0	34256	
4701	0	34320	
4702	0	34360	
4703	0	34540	
4704	0	34864	
4705	0	35144	
4706	0	35424	
4707	0	35652	
4708	0	35792	
4709	0	35832	
4710	0	35824	
4711	0	35792	
4712	0	35840	
4713	0	35836	
4714	0	35712	
4715	0	35528	
4716	0	35496	
4717	0	35534	
4718	0	35608	
4719	0	35716	
4720	0	35812	
4721	0	35828	
4722	0	35810	
4723	0	35792	
4724	0	35802	
4725	0	35864	
4726	0	35944	
4727	0	36120	
4728	0	36254	
4729	0	36268	
4730	0	36296	
4731	0	36320	
4732	0	36384	
4733	0	36480	
4734	0	36660	
4735	0	36824	
4736	0	36924	
4737	0	37056	
4738	0	37280	
4739	0	37520	
4740	0	37664	
4741	0	37752	
4742	0	37858	
4743	0	37912	
4744	0	37984	
4745	0	38028	
4746	0	37968	
4747	0	37864	
4748	0	37792	
4749	0	37660	
4750	0	37512	
4751	0	37440	
4752	0	37496	
4753	0	37644	
4754	0	37732	
4755	0	37688	
4756	0	37552	
4757	0	37488	
4758	0	37440	
4759	0	37456	
4760	0	37520	
4761	0	37552	
4762	0	37536	
4763	0	37568	
4764	0	37660	
4765	0	37796	
4766	0	37948	
4767	0	38128	
4768	0	38436	
4769	0	38912	
4770	0	39636	
4771	0	40508	
4772	0	41224	
4773	0	41536	
4774	0	41512	
4775	0	41282	
4776	0	40868	
4777	0	40400	
4778	0	39896	
4779	0	39236	
4780	0	38516	
4781	0	37792	
4782	0	37164	
4783	0	36768	
4784	0	36504	
4785	0	36416	
4786	0	36372	
4787	0	36380	
4788	0	36652	
4789	0	37060	
4790	0	37320	
4791	0	37540	
4792	0	37784	
4793	0	38060	
4794	0	38480	
4795	0	38752	
4796	0	38912	
4797	0	38884	
4798	0	38624	
4799	0	38244	
4800	0	37800	
4801	0	37308	
4802	0	36912	
4803	0	36596	
4804	0	36432	
4805	0	36232	
4806	0	36232	
4807	0	36348	
4808	0	36416	
4809	0	36368	
4810	0	36272	
4811	0	36224	
4812	0	36220	
4813	0	36244	
4814	0	36152	
4815	0	35972	
4816	0	35884	
4817	0	35896	
4818	0	35888	
4819	0	35976	
4820	0	36268	
4821	0	36488	
4822	0	36492	
4823	0	36228	
4824	0	35668	
4825	0	35004	
4826	0	34364	
4827	0	33756	
4828	0	33164	
4829	0	32776	
4830	0	32528	
4831	0	32144	
4832	0	31650	
4833	0	31282	
4834	0	31176	
4835	0	31248	
4836	0	31392	
4837	0	31512	
4838	0	31668	
4839	0	31860	
4840	0	32304	
4841	0	32644	
4842	0	32820	
4843	0	32964	
4844	0	33036	
4845	0	32864	
4846	0	32600	
4847	0	32280	
4848	0	31896	
4849	0	31608	
4850	0	31304	
4851	0	30904	
4852	0	30632	
4853	0	30560	
4854	0	30564	
4855	0	30506	
4856	0	30280	
4857	0	29976	
4858	0	29656	
4859	0	29316	
4860	0	29028	
4861	0	28796	
4862	0	28636	
4863	0	28552	
4864	0	28484	
4865	0	28472	
4866	0	28480	
4867	0	28476	
4868	0	28500	
4869	0	28504	
4870	0	28576	
4871	0	28692	
4872	0	28868	
4873	0	28972	
4874	0	28944	
4875	0	28924	
4876	0	28928	
4877	0	28976	
4878	0	29064	
4879	0	29240	
4880	0	29428	
4881	0	29456	
4882	0	29272	
4883	0	29156	
4884	0	29108	
4885	0	29024	
4886	0	29006	
4887	0	29112	
4888	0	29240	
4889	0	29248	
4890	0	29226	
4891	0	29248	
4892	0	29352	
4893	0	29496	
4894	0	29744	
4895	0	30024	
4896	0	30200	
4897	0	30368	
4898	0	30488	
4899	0	30488	
4900	0	30362	
4901	0	30236	
4902	0	30280	
4903	0	30384	
4904	0	30484	
4905	0	30528	
4906	0	30484	
4907	0	30402	
4908	0	30240	
4909	0	30024	
4910	0	29840	
4911	0	29784	
4912	0	29764	
4913	0	29636	
4914	0	29508	
4915	0	29424	
4916	0	29348	
4917	0	29324	
4918	0	29384	
4919	0	29436	
4920	0	29460	
4921	0	29616	
4922	0	29804	
4923	0	29884	
4924	0	29856	
4925	0	29932	
4926	0	30136	
4927	0	30308	
4928	0	30368	
4929	0	30340	
4930	0	30292	
4931	0	30232	
4932	0	30164	
4933	0	30188	
4934	0	30392	
4935	0	30632	
4936	0	30688	
4937	0	30552	
4938	0	30332	
4939	0	30140	
4940	0	30004	
4941	0	29900	
4942	0	29792	
4943	0	29744	
4944	0	29840	
4945	0	29868	
4946	0	29986	
4947	0	30192	
4948	0	30328	
4949	0	30432	
4950	0	30458	
4951	0	30472	
4952	0	30492	
4953	0	30412	
4954	0	30226	
4955	0	29992	
4956	0	29780	
4957	0	29688	
4958	0	29716	
4959	0	29732	
4960	0	29724	
4961	0	29700	
4962	0	29700	
4963	0	29788	
4964	0	29960	
4965	0	30080	
4966	0	30104	
4967	0	30140	
4968	0	30224	
4969	0	30360	
4970	0	30504	
4971	0	30572	
4972	0	30512	
4973	0	30416	
4974	0	30448	
4975	0	30500	
4976	0	30516	
4977	0	30516	
4978	0	30544	
4979	0	30576	
4980	0	30456	
4981	0	30236	
4982	0	30016	
4983	0	29992	
4984	0	30136	
4985	0	30424	
4986	0	30748	
4987	0	31140	
4988	0	31420	
4989	0	31464	
4990	0	31400	
4991	0	31376	
4992	0	31360	
4993	0	31284	
4994	0	31144	
4995	0	30984	
4996	0	30740	
4997	0	30540	
4998	0	30424	
4999	0	30396	
5000	0	30392	
5001	0	30372	
5002	0	30496	
5003	0	30628	
5004	0	30708	
5005	0	30788	
5006	0	30848	
5007	0	30858	
5008	0	30784	
5009	0	30688	
5010	0	30516	
5011	0	30284	
5012	0	30116	
5013	0	30172	
5014	0	30300	
5015	0	30352	
5016	0	30344	
5017	0	30308	
5018	0	30272	
5019	0	30316	
5020	0	30504	
5021	0	30674	
5022	0	30704	
5023	0	30536	
5024	0	30336	
5025	0	30312	
5026	0	30500	
5027	0	30816	
5028	0	31268	
5029	0	31952	
5030	0	32576	
5031	0	33056	
5032	0	33324	
5033	0	33536	
5034	0	33632	
5035	0	33428	
5036	0	33076	
5037	0	32776	
5038	0	32608	
5039	0	32260	
5040	0	31656	
5041	0	31004	
5042	0	30388	
5043	0	29848	
5044	0	29392	
5045	0	29116	
5046	0	29056	
5047	0	29044	
5048	0	29088	
5049	0	29216	
5050	0	29444	
5051	0	29744	
5052	0	29982	
5053	0	30140	
5054	0	30240	
5055	0	30224	
5056	0	30156	
5057	0	30160	
5058	0	30272	
5059	0	30528	
5060	0	30892	
5061	0	31228	
5062	0	31564	
5063	0	31842	
5064	0	31984	
5065	0	32036	
5066	0	32052	
5067	0	32012	
5068	0	31916	
5069	0	31800	
5070	0	31740	
5071	0	31660	
5072	0	31648	
5073	0	31668	
5074	0	31778	
5075	0	31816	
5076	0	31604	
5077	0	31200	
5078	0	30844	
5079	0	30636	
5080	0	30644	
5081	0	30808	
5082	0	30992	
5083	0	31168	
5084	0	31284	
5085	0	31320	
5086	0	31364	
5087	0	31388	
5088	0	31336	
5089	0	31316	
5090	0	31340	
5091	0	31396	
5092	0	31444	
5093	0	31468	
5094	0	31530	
5095	0	31600	
5096	0	31692	
5097	0	31836	
5098	0	31824	
5099	0	31672	
5100	0	31544	
5101	0	31474	
5102	0	31400	
5103	0	31364	
5104	0	31398	
5105	0	31460	
5106	0	31584	
5107	0	31720	
5108	0	31824	
5109	0	31832	
5110	0	31824	
5111	0	31822	
5112	0	31876	
5113	0	31952	
5114	0	31956	
5115	0	31840	
5116	0	31704	
5117	0	31580	
5118	0	31604	
5119	0	31720	
5120	0	31800	
5121	0	31888	
5122	0	32040	
5123	0	32160	
5124	0	32204	
5125	0	32160	
5126	0	32072	
5127	0	31968	
5128	0	31928	
5129	0	31992	
5130	0	31988	
5131	0	31960	
5132	0	31996	
5133	0	32020	
5134	0	32052	
5135	0	32128	
5136	0	32220	
5137	0	32282	
5138	0	32266	
5139	0	32272	
5140	0	32352	
5141	0	32472	
5142	0	32636	
5143	0	32808	
5144	0	32930	
5145	0	33296	
5146	0	33804	
5147	0	34112	
5148	0	34224	
5149	0	34220	
5150	0	34104	
5151	0	33904	
5152	0	33680	
5153	0	33432	
5154	0	33220	
5155	0	33106	
5156	0	32988	
5157	0	32712	
5158	0	32464	
5159	0	32332	
5160	0	32296	
5161	0	32332	
5162	0	32484	
5163	0	32654	
5164	0	32824	
5165	0	33020	
5166	0	33188	
5167	0	33324	
5168	0	33412	
5169	0	33512	
5170	0	33648	
5171	0	33786	
5172	0	33872	
5173	0	33968	
5174	0	34024	
5175	0	34064	
5176	0	34120	
5177	0	34284	
5178	0	34498	
5179	0	34680	
5180	0	34844	
5181	0	34968	
5182	0	35020	
5183	0	35072	
5184	0	35140	
5185	0	35204	
5186	0	35232	
5187	0	35200	
5188	0	35144	
5189	0	35044	
5190	0	34916	
5191	0	34776	
5192	0	34676	
5193	0	34692	
5194	0	34784	
5195	0	34832	
5196	0	34774	
5197	0	34602	
5198	0	34316	
5199	0	34048	
5200	0	33904	
5201	0	33848	
5202	0	33856	
5203	0	33804	
5204	0	33604	
5205	0	33384	
5206	0	33208	
5207	0	33048	
5208	0	32868	
5209	0	32610	
5210	0	32336	
5211	0	32158	
5212	0	32040	
5213	0	32032	
5214	0	32052	
5215	0	32048	
5216	0	32004	
5217	0	31936	
5218	0	31928	
5219	0	31932	
5220	0	31912	
5221	0	31840	
5222	0	31760	
5223	0	31740	
5224	0	31684	
5225	0	31748	
5226	0	31812	
5227	0	31776	
5228	0	31668	
5229	0	31482	
5230	0	31380	
5231	0	31300	
5232	0	31180	
5233	0	31056	
5234	0	30952	
5235	0	30916	
5236	0	30928	
5237	0	30944	
5238	0	30976	
5239	0	30992	
5240	0	31052	
5241	0	31136	
5242	0	31164	
5243	0	31132	
5244	0	31156	
5245	0	31224	
5246	0	31312	
5247	0	31332	
5248	0	31298	
5249	0	31304	
5250	0	31368	
5251	0	31392	
5252	0	31464	
5253	0	31496	
5254	0	31488	
5255	0	31480	
5256	0	31468	
5257	0	31400	
5258	0	31258	
5259	0	31140	
5260	0	31074	
5261	0	31010	
5262	0	31000	
5263	0	31042	
5264	0	31032	
5265	0	31036	
5266	0	31064	
5267	0	31088	
5268	0	31076	
5269	0	31072	
5270	0	31114	
5271	0	31232	
5272	0	31346	
5273	0	31438	
5274	0	31472	
5275	0	31476	
5276	0	31508	
5277	0	31508	
5278	0	31532	
5279	0	31568	
5280	0	31596	
5281	0	31706	
5282	0	31840	
5283	0	31928	
5284	0	32012	
5285	0	32096	
5286	0	32140	
5287	0	32116	
5288	0	32020	
5289	0	31914	
5290	0	31848	
5291	0	31780	
5292	0	31752	
5293	0	31700	
5294	0	31644	
5295	0	31568	
5296	0	31452	
5297	0	31208	
5298	0	30746	
5299	0	30196	
5300	0	29692	
5301	0	29432	
5302	0	29404	
5303	0	29516	
5304	0	29856	
5305	0	30280	
5306	0	30692	
5307	0	31116	
5308	0	31584	
5309	0	32176	
5310	0	32848	
5311	0	33420	
5312	0	33848	
5313	0	34220	
5314	0	34588	
5315	0	34916	
5316	0	35348	
5317	0	36044	
5318	0	37046	
5319	0	38264	
5320	0	39796	
5321	0	41648	
5322	0	43680	
5323	0	45856	
5324	0	48456	
5325	0	51376	
5326	0	54440	
5327	0	57112	
5328	0	59068	
5329	0	60604	
5330	0	61952	
5331	0	63272	
5332	0	64328	
5333	0	64976	
5334	0	65264	
5335	0	65064	
5336	0	63916	
5337	0	62396	
5338	0	60652	
5339	0	58600	
5340	0	56272	
5341	0	53684	
5342	0	51104	
5343	0	48488	
5344	0	45748	
5345	0	42938	
5346	0	40024	
5347	0	37024	
5348	0	34144	
5349	0	31480	
5350	0	29176	
5351	0	27072	
5352	0	25056	
5353	0	23316	
5354	0	21946	
5355	0	20836	
5356	0	19936	
5357	0	19296	
5358	0	18844	
5359	0	18364	
5360	0	17816	
5361	0	17248	
5362	0	16782	
5363	0	16416	
5364	0	16148	
5365	0	16020	
5366	0	16034	
5367	0	16204	
5368	0	16618	
5369	0	17156	
5370	0	17824	
5371	0	18652	
5372	0	19528	
5373	0	20416	
5374	0	21308	
5375	0	22210	
5376	0	23208	
5377	0	24252	
5378	0	25280	
5379	0	26204	
5380	0	27016	
5381	0	27720	
5382	0	28356	
5383	0	28850	
5384	0	29232	
5385	0	29556	
5386	0	29818	
5387	0	30092	
5388	0	30508	
5389	0	30964	
5390	0	31332	
5391	0	31572	
5392	0	31712	
5393	0	31800	
5394	0	31792	
5395	0	31808	
5396	0	31840	
5397	0	31852	
5398	0	31888	
5399	0	31984	
5400	0	32096	
5401	0	32170	
5402	0	32164	
5403	0	32160	
5404	0	32196	
5405	0	32272	
5406	0	32344	
5407	0	32448	
5408	0	32568	
5409	0	32672	
5410	0	32784	
5411	0	32884	
5412	0	32896	
5413	0	32856	
5414	0	32800	
5415	0	32832	
5416	0	32916	
5417	0	32988	
5418	0	33076	
5419	0	33096	
5420	0	33104	
5421	0	33120	
5422	0	33144	
5423	0	33120	
5424	0	33076	
5425	0	33080	
5426	0	33140	
5427	0	33248	
5428	0	33436	
5429	0	33632	
5430	0	33792	
5431	0	33892	
5432	0	33952	
5433	0	33976	
5434	0	33976	
5435	0	33944	
5436	0	33902	
5437	0	33852	
5438	0	33856	
5439	0	33836	
5440	0	33904	
5441	0	34000	
5442	0	34136	
5443	0	34256	
5444	0	34372	
5445	0	34432	
5446	0	34496	
5447	0	34548	
5448	0	34584	
5449	0	34580	
5450	0	34584	
5451	0	34568	
5452	0	34512	
5453	0	34488	
5454	0	34536	
5455	0	34592	
5456	0	34672	
5457	0	34692	
5458	0	34668	
5459	0	34688	
5460	0	34700	
5461	0	34728	
5462	0	34760	
5463	0	34812	
5464	0	34916	
5465	0	35020	
5466	0	35068	
5467	0	35112	
5468	0	35168	
5469	0	35224	
5470	0	35244	
5471	0	35300	
5472	0	35352	
5473	0	35400	
5474	0	35412	
5475	0	35392	
5476	0	35344	
5477	0	35348	
5478	0	35424	
5479	0	35528	
5480	0	35608	
5481	0	35712	
5482	0	35768	
5483	0	35844	
5484	0	35868	
5485	0	35792	
5486	0	35746	
5487	0	35768	
5488	0	35798	
5489	0	35876	
5490	0	36000	
5491	0	36048	
5492	0	36072	
5493	0	36072	
5494	0	36188	
5495	0	36336	
5496	0	36474	
5497	0	36576	
5498	0	36624	
5499	0	36688	
5500	0	36696	
5501	0	36602	
5502	0	36572	
5503	0	36668	
5504	0	36736	
5505	0	36796	
5506	0	36880	
5507	0	36956	
5508	0	37072	
5509	0	37184	
5510	0	37264	
5511	0	37356	
5512	0	37440	
5513	0	37528	
5514	0	37624	
5515	0	37696	
5516	0	37764	
5517	0	37816	
5518	0	37884	
5519	0	37916	
5520	0	37850	
5521	0	37848	
5522	0	37896	
5523	0	37920	
5524	0	37984	
5525	0	38084	
5526	0	38192	
5527	0	38276	
5528	0	38336	
5529	0	38416	
5530	0	38484	
5531	0	38552	
5532	0	38624	
5533	0	38676	
5534	0	38736	
5535	0	38752	
5536	0	38788	
5537	0	38804	
5538	0	38816	
5539	0	38856	
5540	0	38968	
5541	0	39040	
5542	0	39092	
5543	0	39128	
5544	0	39140	
5545	0	39128	
5546	0	39132	
5547	0	39096	
5548	0	39024	
5549	0	38988	
5550	0	38960	
5551	0	38964	
5552	0	39060	
5553	0	39212	
5554	0	39344	
5555	0	39464	
5556	0	39584	
5557	0	39642	
5558	0	39680	
5559	0	39692	
5560	0	39728	
5561	0	39740	
5562	0	39792	
5563	0	39856	
5564	0	39860	
5565	0	39812	
5566	0	39728	
5567	0	39652	
5568	0	39608	
5569	0	39536	
5570	0	39444	
5571	0	39352	
5572	0	39308	
5573	0	39310	
5574	0	39320	
5575	0	39364	
5576	0	39400	
5577	0	39352	
5578	0	39260	
5579	0	39132	
5580	0	38964	
5581	0	38864	
5582	0	38800	
5583	0	38820	
5584	0	38864	
5585	0	38896	
5586	0	38916	
5587	0	38836	
5588	0	38660	
5589	0	38476	
5590	0	38360	
5591	0	38292	
5592	0	38244	
5593	0	38116	
5594	0	38024	
5595	0	37940	
5596	0	37792	
5597	0	37620	
5598	0	37372	
5599	0	37128	
5600	0	36912	
5601	0	36700	
5602	0	36516	
5603	0	36304	
5604	0	36044	
5605	0	35816	
5606	0	35584	
5607	0	35392	
5608	0	35232	
5609	0	35050	
5610	0	34888	
5611	0	34800	
5612	0	34688	
5613	0	34552	
5614	0	34328	
5615	0	34136	
5616	0	33912	
5617	0	33700	
5618	0	33520	
5619	0	33316	
5620	0	33080	
5621	0	32812	
5622	0	32634	
5623	0	32538	
5624	0	32436	
5625	0	32364	
5626	0	32308	
5627	0	32196	
5628	0	32020	
5629	0	31872	
5630	0	31776	
5631	0	31724	
5632	0	31636	
5633	0	31540	
5634	0	31444	
5635	0	31340	
5636	0	31256	
5637	0	31096	
5638	0	30904	
5639	0	30688	
5640	0	30496	
5641	0	30388	
5642	0	30280	
5643	0	30144	
5644	0	30000	
5645	0	29920	
5646	0	29848	
5647	0	29756	
5648	0	29674	
5649	0	29660	
5650	0	29740	
5651	0	29800	
5652	0	29768	
5653	0	29656	
5654	0	29536	
5655	0	29488	
5656	0	29468	
5657	0	29444	
5658	0	29492	
5659	0	29560	
5660	0	29548	
5661	0	29468	
5662	0	29456	
5663	0	29504	
5664	0	29572	
5665	0	29580	
5666	0	29520	
5667	0	29422	
5668	0	29400	
5669	0	29474	
5670	0	29688	
5671	0	29976	
5672	0	30316	
5673	0	30652	
5674	0	30880	
5675	0	31004	
5676	0	30996	
5677	0	30808	
5678	0	30548	
5679	0	30264	
5680	0	30024	
5681	0	29916	
5682	0	29912	
5683	0	29824	
5684	0	29624	
5685	0	29404	
5686	0	29196	
5687	0	29032	
5688	0	28992	
5689	0	29020	
5690	0	29048	
5691	0	29108	
5692	0	29140	
5693	0	29160	
5694	0	29232	
5695	0	29333	
5696	0	29408	
5697	0	29424	
5698	0	29464	
5699	0	29556	
5700	0	29620	
5701	0	29736	
5702	0	29844	
5703	0	29882	
5704	0	29896	
5705	0	29888	
5706	0	29872	
5707	0	29866	
5708	0	29876	
5709	0	29888	
5710	0	29936	
5711	0	30012	
5712	0	30112	
5713	0	30224	
5714	0	30328	
5715	0	30416	
5716	0	30528	
5717	0	30626	
5718	0	30740	
5719	0	30848	
5720	0	30836	
5721	0	30832	
5722	0	30844	
5723	0	30844	
5724	0	30828	
5725	0	30816	
5726	0	30832	
5727	0	30728	
5728	0	30640	
5729	0	30520	
5730	0	30412	
5731	0	30324	
5732	0	30272	
5733	0	30272	
5734	0	30332	
5735	0	30404	
5736	0	30428	
5737	0	30380	
5738	0	30404	
5739	0	30444	
5740	0	30500	
5741	0	30594	
5742	0	30680	
5743	0	30760	
5744	0	30852	
5745	0	30924	
5746	0	30936	
5747	0	30996	
5748	0	31034	
5749	0	31056	
5750	0	31020	
5751	0	30962	
5752	0	30888	
5753	0	30852	
5754	0	30836	
5755	0	30864	
5756	0	30868	
5757	0	30888	
5758	0	30918	
5759	0	31076	
5760	0	31288	
5761	0	31528	
5762	0	31744	
5763	0	31866	
5764	0	31936	
5765	0	31956	
5766	0	31864	
5767	0	31804	
5768	0	31760	
5769	0	31664	
5770	0	31496	
5771	0	31320	
5772	0	31178	
5773	0	31004	
5774	0	30832	
5775	0	30720	
5776	0	30664	
5777	0	30656	
5778	0	30652	
5779	0	30594	
5780	0	30536	
5781	0	30472	
5782	0	30357	
5783	0	30272	
5784	0	30244	
5785	0	30234	
5786	0	30244	
5787	0	30300	
5788	0	30368	
5789	0	30452	
5790	0	30516	
5791	0	30552	
5792	0	30504	
5793	0	30516	
5794	0	30580	
5795	0	30644	
5796	0	30696	
5797	0	30712	
5798	0	30732	
5799	0	30804	
5800	0	30890	
5801	0	30924	
5802	0	30924	
5803	0	30936	
5804	0	31008	
5805	0	31056	
5806	0	31096	
5807	0	31104	
5808	0	31100	
5809	0	31096	
5810	0	31060	
5811	0	31046	
5812	0	31048	
5813	0	31060	
5814	0	31068	
5815	0	31102	
5816	0	31138	
5817	0	31124	
5818	0	31088	
5819	0	31056	
5820	0	31028	
5821	0	31052	
5822	0	31101	
5823	0	31148	
5824	0	31200	
5825	0	31264	
5826	0	31344	
5827	0	31372	
5828	0	31340	
5829	0	31354	
5830	0	31364	
5831	0	31400	
5832	0	31412	
5833	0	31400	
5834	0	31468	
5835	0	31564	
5836	0	31592	
5837	0	31584	
5838	0	31540	
5839	0	31448	
5840	0	31392	
5841	0	31348	
5842	0	31348	
5843	0	31362	
5844	0	31408	
5845	0	31458	
5846	0	31476	
5847	0	31424	
5848	0	31360	
5849	0	31328	
5850	0	31260	
5851	0	31244	
5852	0	31288	
5853	0	31324	
5854	0	31340	
5855	0	31328	
5856	0	31328	
5857	0	31350	
5858	0	31352	
5859	0	31392	
5860	0	31424	
5861	0	31404	
5862	0	31380	
5863	0	31404	
5864	0	31412	
5865	0	31460	
5866	0	31536	
5867	0	31592	
5868	0	31588	
5869	0	31562	
5870	0	31544	
5871	0	31508	
5872	0	31464	
5873	0	31492	
5874	0	31528	
5875	0	31520	
5876	0	31504	
5877	0	31596	
5878	0	31748	
5879	0	31840	
5880	0	31928	
5881	0	32032	
5882	0	32128	
5883	0	32112	
5884	0	32084	
5885	0	32076	
5886	0	32040	
5887	0	31932	
5888	0	31884	
5889	0	31896	
5890	0	31928	
5891	0	31964	
5892	0	31976	
5893	0	32000	
5894	0	31976	
5895	0	31972	
5896	0	31996	
5897	0	32064	
5898	0	32054	
5899	0	31952	
5900	0	31860	
5901	0	31796	
5902	0	31772	
5903	0	31778	
5904	0	31796	
5905	0	31812	
5906	0	31792	
5907	0	31784	
5908	0	31800	
5909	0	31888	
5910	0	31912	
5911	0	31936	
5912	0	31984	
5913	0	32040	
5914	0	32072	
5915	0	32120	
5916	0	32144	
5917	0	32148	
5918	0	32156	
5919	0	32168	
5920	0	32180	
5921	0	32236	
5922	0	32256	
5923	0	32256	
5924	0	32256	
5925	0	32220	
5926	0	32152	
5927	0	32108	
5928	0	32098	
5929	0	32128	
5930	0	32148	
5931	0	32186	
5932	0	32232	
5933	0	32308	
5934	0	32380	
5935	0	32378	
5936	0	32352	
5937	0	32324	
5938	0	32332	
5939	0	32352	
5940	0	32428	
5941	0	32472	
5942	0	32488	
5943	0	32450	
5944	0	32396	
5945	0	32400	
5946	0	32460	
5947	0	32536	
5948	0	32616	
5949	0	32640	
5950	0	32576	
5951	0	32620	
5952	0	32776	
5953	0	32904	
5954	0	33012	
5955	0	33060	
5956	0	33112	
5957	0	33124	
5958	0	33128	
5959	0	33104	
5960	0	33144	
5961	0	33216	
5962	0	33316	
5963	0	33424	
5964	0	33532	
5965	0	33656	
5966	0	33808	
5967	0	33892	
5968	0	33848	
5969	0	33696	
5970	0	33564	
5971	0	33496	
5972	0	33468	
5973	0	33500	
5974	0	33516	
5975	0	33616	
5976	0	33720	
5977	0	33896	
5978	0	34012	
5979	0	34128	
5980	0	34260	
5981	0	34396	
5982	0	34528	
5983	0	34608	
5984	0	34636	
5985	0	34624	
5986	0	34640	
5987	0	34736	
5988	0	34844	
5989	0	34932	
5990	0	35048	
5991	0	35116	
5992	0	35156	
5993	0	35288	
5994	0	35360	
5995	0	35416	
5996	0	35390	
5997	0	35352	
5998	0	35316	
5999	0	35240	
6000	0	35152	
6001	0	35076	
6002	0	35032	
6003	0	34996	
6004	0	34920	
6005	0	34800	
6006	0	34600	
6007	0	34432	
6008	0	34376	
6009	0	34292	
6010	0	34208	
6011	0	34066	
6012	0	33856	
6013	0	33661	
6014	0	33500	
6015	0	33348	
6016	0	33240	
6017	0	33148	
6018	0	33064	
6019	0	32936	
6020	0	32880	
6021	0	32824	
6022	0	32730	
6023	0	32644	
6024	0	32536	
6025	0	32480	
6026	0	32456	
6027	0	32426	
6028	0	32404	
6029	0	32364	
6030	0	32296	
6031	0	32264	
6032	0	32280	
6033	0	32278	
6034	0	32204	
6035	0	32108	
6036	0	32040	
6037	0	31968	
6038	0	31906	
6039	0	31856	
6040	0	31756	
6041	0	31668	
6042	0	31584	
6043	0	31556	
6044	0	31580	
6045	0	31596	
6046	0	31552	
6047	0	31506	
6048	0	31508	
6049	0	31572	
6050	0	31616	
6051	0	31648	
6052	0	31672	
6053	0	31700	
6054	0	31664	
6055	0	31608	
6056	0	31568	
6057	0	31516	
6058	0	31504	
6059	0	31496	
6060	0	31468	
6061	0	31412	
6062	0	31384	
6063	0	31360	
6064	0	31392	
6065	0	31444	
6066	0	31508	
6067	0	31504	
6068	0	31484	
6069	0	31508	
6070	0	31596	
6071	0	31680	
6072	0	31680	
6073	0	31664	
6074	0	31634	
6075	0	31620	
6076	0	31604	
6077	0	31584	
6078	0	31588	
6079	0	31590	
6080	0	31628	
6081	0	31668	
6082	0	31664	
6083	0	31688	
6084	0	31740	
6085	0	31776	
6086	0	31812	
6087	0	31818	
6088	0	31860	
6089	0	31880	
6090	0	31896	
6091	0	31944	
6092	0	31972	
6093	0	32018	
6094	0	32066	
6095	0	32100	
6096	0	32088	
6097	0	32100	
6098	0	32124	
6099	0	32120	
6100	0	32132	
6101	0	32124	
6102	0	32064	
6103	0	31952	
6104	0	31800	
6105	0	31600	
6106	0	31340	
6107	0	31052	
6108	0	30738	
6109	0	30408	
6110	0	30088	
6111	0	29888	
6112	0	29914	
6113	0	30140	
6114	0	30548	
6115	0	30932	
6116	0	31216	
6117	0	31512	
6118	0	32000	
6119	0	32608	
6120	0	33140	
6121	0	33492	
6122	0	33832	
6123	0	34180	
6124	0	34424	
6125	0	34764	
6126	0	35380	
6127	0	36332	
6128	0	37580	
6129	0	39136	
6130	0	41040	
6131	0	43048	
6132	0	45252	
6133	0	47836	
6134	0	50820	
6135	0	53872	
6136	0	56444	
6137	0	58448	
6138	0	60216	
6139	0	61944	
6140	0	63172	
6141	0	63780	
6142	0	64056	
6143	0	64152	
6144	0	64152	
6145	0	64086	
6146	0	64012	
6147	0	62368	
6148	0	59760	
6149	0	57248	
6150	0	54640	
6151	0	51960	
6152	0	49208	
6153	0	46360	
6154	0	43308	
6155	0	40092	
6156	0	36912	
6157	0	33744	
6158	0	30708	
6159	0	28044	
6160	0	25772	
6161	0	23844	
6162	0	22184	
6163	0	20826	
6164	0	19776	
6165	0	19020	
6166	0	18464	
6167	0	17932	
6168	0	17468	
6169	0	17060	
6170	0	16716	
6171	0	16414	
6172	0	16246	
6173	0	16162	
6174	0	16132	
6175	0	16194	
6176	0	16340	
6177	0	16524	
6178	0	16836	
6179	0	17354	
6180	0	18064	
6181	0	18824	
6182	0	19614	
6183	0	20464	
6184	0	21344	
6185	0	22232	
6186	0	23138	
6187	0	24136	
6188	0	25164	
6189	0	26112	
6190	0	26892	
6191	0	27560	
6192	0	28208	
6193	0	28776	
6194	0	29280	
6195	0	29672	
6196	0	30016	
6197	0	30300	
6198	0	30520	
6199	0	30764	
6200	0	31038	
6201	0	31244	
6202	0	31426	
6203	0	31514	
6204	0	31616	
6205	0	31700	
6206	0	31764	
6207	0	31808	
6208	0	31888	
6209	0	31972	
6210	0	32080	
6211	0	32128	
6212	0	32176	
6213	0	32224	
6214	0	32300	
6215	0	32372	
6216	0	32400	
6217	0	32416	
6218	0	32456	
6219	0	32540	
6220	0	32680	
6221	0	32800	
6222	0	32904	
6223	0	32980	
6224	0	33028	
6225	0	33080	
6226	0	33112	
6227	0	33184	
6228	0	33236	
6229	0	33308	
6230	0	33332	
6231	0	33404	
6232	0	33432	
6233	0	33416	
6234	0	33400	
6235	0	33388	
6236	0	33370	
6237	0	33420	
6238	0	33448	
6239	0	33466	
6240	0	33528	
6241	0	33584	
6242	0	33600	
6243	0	33640	
6244	0	33648	
6245	0	33684	
6246	0	33754	
6247	0	33848	
6248	0	33928	
6249	0	33952	
6250	0	34008	
6251	0	34076	
6252	0	34112	
6253	0	34104	
6254	0	34092	
6255	0	34098	
6256	0	34148	
6257	0	34216	
6258	0	34238	
6259	0	34224	
6260	0	34252	
6261	0	34272	
6262	0	34312	
6263	0	34324	
6264	0	34328	
6265	0	34380	
6266	0	34420	
6267	0	34432	
6268	0	34480	
6269	0	34524	
6270	0	34564	
6271	0	34640	
6272	0	34708	
6273	0	34760	
6274	0	34772	
6275	0	34780	
6276	0	34808	
6277	0	34864	
6278	0	34928	
6279	0	35006	
6280	0	35044	
6281	0	35032	
6282	0	35000	
6283	0	34970	
6284	0	34984	
6285	0	35016	
6286	0	35040	
6287	0	35028	
6288	0	35028	
6289	0	35060	
6290	0	35156	
6291	0	35244	
6292	0	35308	
6293	0	35360	
6294	0	35404	
6295	0	35464	
6296	0	35564	
6297	0	35636	
6298	0	35700	
6299	0	35736	
6300	0	35800	
6301	0	35844	
6302	0	35844	
6303	0	35808	
6304	0	35816	
6305	0	35892	
6306	0	35978	
6307	0	36028	
6308	0	36044	
6309	0	36108	
6310	0	36164	
6311	0	36198	
6312	0	36244	
6313	0	36280	
6314	0	36308	
6315	0	36320	
6316	0	36368	
6317	0	36396	
6318	0	36452	
6319	0	36536	
6320	0	36576	
6321	0	36600	
6322	0	36636	
6323	0	36680	
6324	0	36708	
6325	0	36764	
6326	0	36872	
6327	0	36988	
6328	0	37040	
6329	0	37112	
6330	0	37204	
6331	0	37240	
6332	0	37260	
6333	0	37324	
6334	0	37360	
6335	0	37408	
6336	0	37416	
6337	0	37376	
6338	0	37368	
6339	0	37352	
6340	0	37412	
6341	0	37492	
6342	0	37580	
6343	0	37628	
6344	0	37664	
6345	0	37736	
6346	0	37776	
6347	0	37828	
6348	0	37852	
6349	0	37844	
6350	0	37880	
6351	0	37872	
6352	0	37836	
6353	0	37796	
6354	0	37800	
6355	0	37816	
6356	0	37860	
6357	0	37896	
6358	0	37944	
6359	0	38072	
6360	0	38208	
6361	0	38256	
6362	0	38280	
6363	0	38228	
6364	0	38216	
6365	0	38288	
6366	0	38360	
6367	0	38392	
6368	0	38416	
6369	0	38440	
6370	0	38504	
6371	0	38552	
6372	0	38532	
6373	0	38492	
6374	0	38496	
6375	0	38472	
6376	0	38460	
6377	0	38412	
6378	0	38388	
6379	0	38376	
6380	0	38340	
6381	0	38320	
6382	0	38272	
6383	0	38234	
6384	0	38220	
6385	0	38176	
6386	0	38152	
6387	0	38152	
6388	0	38096	
6389	0	38016	
6390	0	37920	
6391	0	37836	
6392	0	37812	
6393	0	37744	
6394	0	37648	
6395	0	37564	
6396	0	37488	
6397	0	37408	
6398	0	37308	
6399	0	37216	
6400	0	37120	
6401	0	37012	
6402	0	36880	
6403	0	36764	
6404	0	36656	
6405	0	36568	
6406	0	36476	
6407	0	36356	
6408	0	36200	
6409	0	36048	
6410	0	35876	
6411	0	35712	
6412	0	35540	
6413	0	35352	
6414	0	35180	
6415	0	35032	
6416	0	34856	
6417	0	34672	
6418	0	34472	
6419	0	34256	
6420	0	34072	
6421	0	33892	
6422	0	33706	
6423	0	33512	
6424	0	33340	
6425	0	33152	
6426	0	32972	
6427	0	32800	
6428	0	32648	
6429	0	32488	
6430	0	32328	
6431	0	32220	
6432	0	32100	
6433	0	31988	
6434	0	31872	
6435	0	31744	
6436	0	31624	
6437	0	31472	
6438	0	31348	
6439	0	31216	
6440	0	31120	
6441	0	31036	
6442	0	30972	
6443	0	30864	
6444	0	30752	
6445	0	30632	
6446	0	30504	
6447	0	30340	
6448	0	30192	
6449	0	30104	
6450	0	29996	
6451	0	29892	
6452	0	29812	
6453	0	29760	
6454	0	29680	
6455	0	29600	
6456	0	29520	
6457	0	29452	
6458	0	29394	
6459	0	29362	
6460	0	29340	
6461	0	29320	
6462	0	29288	
6463	0	29264	
6464	0	29236	
6465	0	29220	
6466	0	29198	
6467	0	29140	
6468	0	29080	
6469	0	29032	
6470	0	28968	
6471	0	28916	
6472	0	28888	
6473	0	28856	
6474	0	28856	
6475	0	28872	
6476	0	28904	
6477	0	28952	
6478	0	28980	
6479	0	28992	
6480	0	28988	
6481	0	28988	
6482	0	28992	
6483	0	29044	
6484	0	29088	
6485	0	29048	
6486	0	29034	
6487	0	29054	
6488	0	29124	
6489	0	29204	
6490	0	29248	
6491	0	29252	
6492	0	29288	
6493	0	29308	
6494	0	29344	
6495	0	29376	
6496	0	29424	
6497	0	29464	
6498	0	29488	
6499	0	29488	
6500	0	29516	
6501	0	29512	
6502	0	29528	
6503	0	29548	
6504	0	29560	
6505	0	29548	
6506	0	29604	
6507	0	29668	
6508	0	29712	
6509	0	29736	
6510	0	29752	
6511	0	29764	
6512	0	29746	
6513	0	29724	
6514	0	29708	
6515	0	29724	
6516	0	29754	
6517	0	29772	
6518	0	29754	
6519	0	29752	
6520	0	29788	
6521	0	29828	
6522	0	29832	
6523	0	29836	
6524	0	29824	
6525	0	29812	
6526	0	29820	
6527	0	29844	
6528	0	29872	
6529	0	29904	
6530	0	29910	
6531	0	29952	
6532	0	30024	
6533	0	30084	
6534	0	30104	
6535	0	30084	
6536	0	30076	
6537	0	30088	
6538	0	30144	
6539	0	30184	
6540	0	30232	
6541	0	30288	
6542	0	30368	
6543	0	30380	
6544	0	30416	
6545	0	30440	
6546	0	30440	
6547	0	30416	
6548	0	30448	
6549	0	30496	
6550	0	30504	
6551	0	30452	
6552	0	30424	
6553	0	30448	
6554	0	30480	
6555	0	30456	
6556	0	30424	
6557	0	30426	
6558	0	30408	
6559	0	30360	
6560	0	30328	
6561	0	30344	
6562	0	30356	
6563	0	30360	
6564	0	30364	
6565	0	30352	
6566	0	30356	
6567	0	30360	
6568	0	30336	
6569	0	30346	
6570	0	30332	
6571	0	30360	
6572	0	30396	
6573	0	30388	
6574	0	30392	
6575	0	30400	
6576	0	30388	
6577	0	30384	
6578	0	30380	
6579	0	30376	
6580	0	30368	
6581	0	30356	
6582	0	30348	
6583	0	30348	
6584	0	30332	
6585	0	30352	
6586	0	30398	
6587	0	30446	
6588	0	30524	
6589	0	30576	
6590	0	30584	
6591	0	30554	
6592	0	30500	
6593	0	30476	
6594	0	30424	
6595	0	30384	
6596	0	30340	
6597	0	30336	
6598	0	30384	
6599	0	30420	
6600	0	30438	
6601	0	30412	
6602	0	30444	
6603	0	30456	
6604	0	30440	
6605	0	30408	
6606	0	30396	
6607	0	30400	
6608	0	30392	
6609	0	30376	
6610	0	30396	
6611	0	30400	
6612	0	30428	
6613	0	30476	
6614	0	30496	
6615	0	30480	
6616	0	30432	
6617	0	30408	
6618	0	30388	
6619	0	30420	
6620	0	30520	
6621	0	30612	
6622	0	30616	
6623	0	30568	
6624	0	30544	
6625	0	30520	
6626	0	30540	
6627	0	30568	
6628	0	30596	
6629	0	30612	
6630	0	30624	
6631	0	30640	
6632	0	30640	
6633	0	30664	
6634	0	30704	
6635	0	30688	
6636	0	30660	
6637	0	30656	
6638	0	30656	
6639	0	30640	
6640	0	30624	
6641	0	30626	
6642	0	30628	
6643	0	30676	
6644	0	30712	
6645	0	30720	
6646	0	30712	
6647	0	30688	
6648	0	30704	
6649	0	30756	
6650	0	30810	
6651	0	30832	
6652	0	30828	
6653	0	30840	
6654	0	30816	
6655	0	30808	
6656	0	30788	
6657	0	30808	
6658	0	30812	
6659	0	30816	
6660	0	30832	
6661	0	30836	
6662	0	30868	
6663	0	30880	
6664	0	30872	
6665	0	30872	
6666	0	30852	
6667	0	30880	
6668	0	30920	
6669	0	30968	
6670	0	31008	
6671	0	31012	
6672	0	31004	
6673	0	31018	
6674	0	31048	
6675	0	31092	
6676	0	31112	
6677	0	31112	
6678	0	31136	
6679	0	31184	
6680	0	31172	
6681	0	31196	
6682	0	31208	
6683	0	31200	
6684	0	31208	
6685	0	31208	
6686	0	31220	
6687	0	31232	
6688	0	31220	
6689	0	31228	
6690	0	31240	
6691	0	31240	
6692	0	31256	
6693	0	31280	
6694	0	31306	
6695	0	31360	
6696	0	31380	
6697	0	31376	
6698	0	31386	
6699	0	31392	
6700	0	31424	
6701	0	31440	
6702	0	31458	
6703	0	31466	
6704	0	31456	
6705	0	31464	
6706	0	31466	
6707	0	31440	
6708	0	31432	
6709	0	31444	
6710	0	31420	
6711	0	31400	
6712	0	31380	
6713	0	31352	
6714	0	31372	
6715	0	31400	
6716	0	31400	
6717	0	31404	
6718	0	31452	
6719	0	31536	
6720	0	31600	
6721	0	31632	
6722	0	31688	
6723	0	31746	
6724	0	31736	
6725	0	31768	
6726	0	31760	
6727	0	31708	
6728	0	31636	
6729	0	31620	
6730	0	31632	
6731	0	31648	
6732	0	31644	
6733	0	31648	
6734	0	31684	
6735	0	31740	
6736	0	31768	
6737	0	31772	
6738	0	31784	
6739	0	31812	
6740	0	31778	
6741	0	31733	
6742	0	31748	
6743	0	31768	
6744	0	31752	
6745	0	31748	
6746	0	31716	
6747	0	31724	
6748	0	31740	
6749	0	31748	
6750	0	31736	
6751	0	31744	
6752	0	31736	
6753	0	31748	
6754	0	31738	
6755	0	31720	
6756	0	31728	
6757	0	31744	
6758	0	31752	
6759	0	31752	
6760	0	31776	
6761	0	31800	
6762	0	31818	
6763	0	31832	
6764	0	31828	
6765	0	31816	
6766	0	31840	
6767	0	31836	
6768	0	31860	
6769	0	31892	
6770	0	31936	
6771	0	31948	
6772	0	31996	
6773	0	32024	
6774	0	32084	
6775	0	32136	
6776	0	32136	
6777	0	32192	
6778	0	32212	
6779	0	32192	
6780	0	32192	
6781	0	32244	
6782	0	32260	
6783	0	32272	
6784	0	32324	
6785	0	32412	
6786	0	32548	
6787	0	32640	
6788	0	32700	
6789	0	32726	
6790	0	32728	
6791	0	32752	
6792	0	32808	
6793	0	32896	
6794	0	32920	
6795	0	32960	
6796	0	33056	
6797	0	33174	
6798	0	33292	
6799	0	33344	
6800	0	33356	
6801	0	33380	
6802	0	33356	
6803	0	33260	
6804	0	33228	
6805	0	33248	
6806	0	33304	
6807	0	33384	
6808	0	33530	
6809	0	33704	
6810	0	33748	
6811	0	33736	
6812	0	33736	
6813	0	33762	
6814	0	33864	
6815	0	33972	
6816	0	34064	
6817	0	34152	
6818	0	34256	
6819	0	34364	
6820	0	34432	
6821	0	34480	
6822	0	34536	
6823	0	34572	
6824	0	34624	
6825	0	34638	
6826	0	34628	
6827	0	34656	
6828	0	34728	
6829	0	34792	
6830	0	34800	
6831	0	34760	
6832	0	34704	
6833	0	34622	
6834	0	34596	
6835	0	34616	
6836	0	34592	
6837	0	34536	
6838	0	34452	
6839	0	34352	
6840	0	34256	
6841	0	34168	
6842	0	34084	
6843	0	33946	
6844	0	33792	
6845	0	33668	
6846	0	33496	
6847	0	33324	
6848	0	33216	
6849	0	33098	
6850	0	32952	
6851	0	32770	
6852	0	32648	
6853	0	32604	
6854	0	32564	
6855	0	32516	
6856	0	32416	
6857	0	32332	
6858	0	32240	
6859	0	32168	
6860	0	32128	
6861	0	32104	
6862	0	32032	
6863	0	31944	
6864	0	31864	
6865	0	31804	
6866	0	31800	
6867	0	31776	
6868	0	31712	
6869	0	31636	
6870	0	31556	
6871	0	31488	
6872	0	31392	
6873	0	31308	
6874	0	31200	
6875	0	31104	
6876	0	31056	
6877	0	31016	
6878	0	31004	
6879	0	30984	
6880	0	30952	
6881	0	30904	
6882	0	30904	
6883	0	30916	
6884	0	30952	
6885	0	30980	
6886	0	30988	
6887	0	31028	
6888	0	31072	
6889	0	31080	
6890	0	31056	
6891	0	31020	
6892	0	31012	
6893	0	31040	
6894	0	31052	
6895	0	31060	
6896	0	31072	
6897	0	31084	
6898	0	31088	
6899	0	31128	
6900	0	31166	
6901	0	31200	
6902	0	31216	
6903	0	31224	
6904	0	31224	
6905	0	31232	
6906	0	31244	
6907	0	31260	
6908	0	31316	
6909	0	31336	
6910	0	31348	
6911	0	31344	
6912	0	31380	
6913	0	31392	
6914	0	31392	
6915	0	31384	
6916	0	31396	
6917	0	31360	
6918	0	31316	
6919	0	31300	
6920	0	31304	
6921	0	31332	
6922	0	31362	
6923	0	31396	
6924	0	31396	
6925	0	31416	
6926	0	31428	
6927	0	31448	
6928	0	31456	
6929	0	31520	
6930	0	31568	
6931	0	31600	
6932	0	31604	
6933	0	31604	
6934	0	31600	
6935	0	31620	
6936	0	31624	
6937	0	31652	
6938	0	31688	
6939	0	31704	
6940	0	31656	
6941	0	31508	
6942	0	31258	
6943	0	30936	
6944	0	30580	
6945	0	30188	
6946	0	29840	
6947	0	29622	
6948	0	29596	
6949	0	29690	
6950	0	29992	
6951	0	30416	
6952	0	30860	
6953	0	31260	
6954	0	31696	
6955	0	32244	
6956	0	32872	
6957	0	33444	
6958	0	33960	
6959	0	34408	
6960	0	34864	
6961	0	35328	
6962	0	35944	
6963	0	36856	
6964	0	38040	
6965	0	39432	
6966	0	41128	
6967	0	43074	
6968	0	45068	
6969	0	47328	
6970	0	50056	
6971	0	53076	
6972	0	56256	
6973	0	58868	
6974	0	60760	
6975	0	62296	
6976	0	63504	
6977	0	64120	
6978	0	64400	
6979	0	64492	
6980	0	64480	
6981	0	64420	
6982	0	64320	
6983	0	64232	
6984	0	62488	
6985	0	59520	
6986	0	56532	
6987	0	53544	
6988	0	50660	
6989	0	47780	
6990	0	44796	
6991	0	41660	
6992	0	38248	
6993	0	34872	
6994	0	31776	
6995	0	28992	
6996	0	26592	
6997	0	24348	
6998	0	22256	
6999	0	20570	
7000	0	19344	
7001	0	18400	
7002	0	17620	
7003	0	17108	
7004	0	16748	
7005	0	16394	
7006	0	16012	
7007	0	15648	
7008	0	15400	
7009	0	15198	
7010	0	15136	
7011	0	15160	
7012	0	15210	
7013	0	15406	
7014	0	15768	
7015	0	16332	
7016	0	17088	
7017	0	17992	
7018	0	18944	
7019	0	19876	
7020	0	20796	
7021	0	21800	
7022	0	22958	
7023	0	24120	
7024	0	25228	
7025	0	26144	
7026	0	26906	
7027	0	27564	
7028	0	28156	
7029	0	28668	
7030	0	29104	
7031	0	29482	
7032	0	29752	
7033	0	30012	
7034	0	30260	
7035	0	30528	
7036	0	30712	
7037	0	30848	
7038	0	30972	
7039	0	31090	
7040	0	31180	
7041	0	31272	
7042	0	31308	
7043	0	31336	
7044	0	31396	
7045	0	31476	
7046	0	31560	
7047	0	31632	
7048	0	31712	
7049	0	31796	
7050	0	31864	
7051	0	31960	
7052	0	32040	
7053	0	32104	
7054	0	32176	
7055	0	32232	
7056	0	32292	
7057	0	32364	
7058	0	32448	
7059	0	32544	
7060	0	32632	
7061	0	32708	
7062	0	32756	
7063	0	32792	
7064	0	32820	
7065	0	32874	
7066	0	32904	
7067	0	32914	
7068	0	32920	
7069	0	32932	
7070	0	32960	
7071	0	33020	
7072	0	33096	
7073	0	33172	
7074	0	33208	
7075	0	33212	
7076	0	33232	
7077	0	33264	
7078	0	33304	
7079	0	33340	
7080	0	33352	
7081	0	33372	
7082	0	33404	
7083	0	33432	
7084	0	33468	
7085	0	33476	
7086	0	33528	
7087	0	33560	
7088	0	33608	
7089	0	33664	
7090	0	33712	
7091	0	33772	
7092	0	33788	
7093	0	33816	
7094	0	33824	
7095	0	33848	
7096	0	33912	
7097	0	33944	
7098	0	34004	
7099	0	34048	
7100	0	34056	
7101	0	34068	
7102	0	34104	
7103	0	34148	
7104	0	34216	
7105	0	34240	
7106	0	34264	
7107	0	34296	
7108	0	34348	
7109	0	34380	
7110	0	34424	
7111	0	34460	
7112	0	34468	
7113	0	34484	
7114	0	34500	
7115	0	34500	
7116	0	34508	
7117	0	34560	
7118	0	34652	
7119	0	34712	
7120	0	34736	
7121	0	34796	
7122	0	34862	
7123	0	34916	
7124	0	34956	
7125	0	34988	
7126	0	35032	
7127	0	35072	
7128	0	35116	
7129	0	35176	
7130	0	35248	
7131	0	35316	
7132	0	35364	
7133	0	35408	
7134	0	35472	
7135	0	35504	
7136	0	35592	
7137	0	35676	
7138	0	35718	
7139	0	35762	
7140	0	35788	
7141	0	35840	
7142	0	35904	
7143	0	35968	
7144	0	36036	
7145	0	36128	
7146	0	36200	
7147	0	36228	
7148	0	36272	
7149	0	36312	
7150	0	36356	
7151	0	36392	
7152	0	36442	
7153	0	36512	
7154	0	36568	
7155	0	36660	
7156	0	36756	
7157	0	36804	
7158	0	36852	
7159	0	36900	
7160	0	36932	
7161	0	36956	
7162	0	37016	
7163	0	37112	
7164	0	37186	
7165	0	37264	
7166	0	37368	
7167	0	37432	
7168	0	37476	
7169	0	37520	
7170	0	37556	
7171	0	37608	
7172	0	37676	
7173	0	37762	
7174	0	37836	
7175	0	37904	
7176	0	37968	
7177	0	38028	
7178	0	38120	
7179	0	38208	
7180	0	38240	
7181	0	38300	
7182	0	38364	
7183	0	38412	
7184	0	38444	
7185	0	38464	
7186	0	38516	
7187	0	38608	
7188	0	38692	
7189	0	38752	
7190	0	38784	
7191	0	38792	
7192	0	38772	
7193	0	38788	
7194	0	38836	
7195	0	38880	
7196	0	38936	
7197	0	38976	
7198	0	38980	
7199	0	39012	
7200	0	39048	
7201	0	39100	
7202	0	39136	
7203	0	39144	
7204	0	39160	
7205	0	39148	
7206	0	39148	
7207	0	39164	
7208	0	39200	
7209	0	39204	
7210	0	39184	
7211	0	39168	
7212	0	39140	
7213	0	39116	
7214	0	39100	
7215	0	39088	
7216	0	39064	
7217	0	39066	
7218	0	39072	
7219	0	39040	
7220	0	39008	
7221	0	39004	
7222	0	38988	
7223	0	38936	
7224	0	38872	
7225	0	38832	
7226	0	38776	
7227	0	38676	
7228	0	38572	
7229	0	38456	
7230	0	38364	
7231	0	38260	
7232	0	38152	
7233	0	38072	
7234	0	37972	
7235	0	37848	
7236	0	37712	
7237	0	37576	
7238	0	37456	
7239	0	37296	
7240	0	37148	
7241	0	37028	
7242	0	36898	
7243	0	36720	
7244	0	36508	
7245	0	36332	
7246	0	36160	
7247	0	36008	
7248	0	35844	
7249	0	35652	
7250	0	35448	
7251	0	35224	
7252	0	35024	
7253	0	34860	
7254	0	34658	
7255	0	34464	
7256	0	34308	
7257	0	34136	
7258	0	33942	
7259	0	33748	
7260	0	33544	
7261	0	33344	
7262	0	33154	
7263	0	32952	
7264	0	32740	
7265	0	32536	
7266	0	32344	
7267	0	32168	
7268	0	31996	
7269	0	31808	
7270	0	31600	
7271	0	31408	
7272	0	31216	
7273	0	31058	
7274	0	30928	
7275	0	30820	
7276	0	30696	
7277	0	30552	
7278	0	30412	
7279	0	30300	
7280	0	30200	
7281	0	30088	
7282	0	29976	
7283	0	29856	
7284	0	29728	
7285	0	29600	
7286	0	29460	
7287	0	29352	
7288	0	29260	
7289	0	29176	
7290	0	29080	
7291	0	29000	
7292	0	28896	
7293	0	28808	
7294	0	28756	
7295	0	28716	
7296	0	28680	
7297	0	28624	
7298	0	28584	
7299	0	28546	
7300	0	28500	
7301	0	28480	
7302	0	28456	
7303	0	28424	
7304	0	28372	
7305	0	28328	
7306	0	28336	
7307	0	28320	
7308	0	28312	
7309	0	28324	
7310	0	28328	
7311	0	28336	
7312	0	28328	
7313	0	28312	
7314	0	28266	
7315	0	28276	
7316	0	28260	
7317	0	28240	
7318	0	28232	
7319	0	28236	
7320	0	28252	
7321	0	28260	
7322	0	28276	
7323	0	28272	
7324	0	28276	
7325	0	28320	
7326	0	28364	
7327	0	28392	
7328	0	28416	
7329	0	28456	
7330	0	28482	
7331	0	28480	
7332	0	28452	
7333	0	28444	
7334	0	28468	
7335	0	28514	
7336	0	28576	
7337	0	28640	
7338	0	28706	
7339	0	28780	
7340	0	28784	
7341	0	28808	
7342	0	28860	
7343	0	28920	
7344	0	28972	
7345	0	29004	
7346	0	29056	
7347	0	29088	
7348	0	29112	
7349	0	29148	
7350	0	29172	
7351	0	29210	
7352	0	29254	
7353	0	29276	
7354	0	29312	
7355	0	29352	
7356	0	29396	
7357	0	29376	
7358	0	29402	
7359	0	29416	
7360	0	29420	
7361	0	29436	
7362	0	29484	
7363	0	29516	
7364	0	29588	
7365	0	29668	
7366	0	29668	
7367	0	29604	
7368	0	29568	
7369	0	29600	
7370	0	29648	
7371	0	29664	
7372	0	29666	
7373	0	29696	
7374	0	29708	
7375	0	29722	
7376	0	29760	
7377	0	29808	
7378	0	29816	
7379	0	29788	
7380	0	29790	
7381	0	29812	
7382	0	29844	
7383	0	29868	
7384	0	29916	
7385	0	29960	
7386	0	29992	
7387	0	30012	
7388	0	30036	
7389	0	30048	
7390	0	30032	
7391	0	30048	
7392	0	30064	
7393	0	30048	
7394	0	30056	
7395	0	30100	
7396	0	30152	
7397	0	30200	
7398	0	30216	
7399	0	30228	
7400	0	30236	
7401	0	30266	
7402	0	30296	
7403	0	30308	
7404	0	30300	
7405	0	30296	
7406	0	30276	
7407	0	30272	
7408	0	30288	
7409	0	30308	
7410	0	30304	
7411	0	30320	
7412	0	30300	
7413	0	30282	
7414	0	30284	
7415	0	30292	
7416	0	30308	
7417	0	30332	
7418	0	30352	
7419	0	30372	
7420	0	30376	
7421	0	30392	
7422	0	30400	
7423	0	30408	
7424	0	30388	
7425	0	30380	
7426	0	30392	
7427	0	30396	
7428	0	30416	
7429	0	30440	
7430	0	30428	
7431	0	30390	
7432	0	30372	
7433	0	30368	
7434	0	30372	
7435	0	30408	
7436	0	30372	
7437	0	30372	
7438	0	30352	
7439	0	30352	
7440	0	30356	
7441	0	30396	
7442	0	30420	
7443	0	30432	
7444	0	30432	
7445	0	30454	
7446	0	30480	
7447	0	30484	
7448	0	30496	
7449	0	30536	
7450	0	30544	
7451	0	30532	
7452	0	30480	
7453	0	30436	
7454	0	30428	
7455	0	30460	
7456	0	30472	
7457	0	30444	
7458	0	30424	
7459	0	30428	
7460	0	30432	
7461	0	30412	
7462	0	30404	
7463	0	30388	
7464	0	30392	
7465	0	30408	
7466	0	30432	
7467	0	30444	
7468	0	30428	
7469	0	30432	
7470	0	30420	
7471	0	30396	
7472	0	30394	
7473	0	30412	
7474	0	30436	
7475	0	30448	
7476	0	30476	
7477	0	30500	
7478	0	30520	
7479	0	30516	
7480	0	30528	
7481	0	30576	
7482	0	30608	
7483	0	30628	
7484	0	30594	
7485	0	30564	
7486	0	30592	
7487	0	30600	
7488	0	30624	
7489	0	30636	
7490	0	30656	
7491	0	30692	
7492	0	30728	
7493	0	30712	
7494	0	30744	
7495	0	30764	
7496	0	30736	
7497	0	30712	
7498	0	30692	
7499	0	30688	
7500	0	30726	
7501	0	30724	
7502	0	30726	
7503	0	30740	
7504	0	30768	
7505	0	30780	
7506	0	30804	
7507	0	30830	
7508	0	30832	
7509	0	30876	
7510	0	30932	
7511	0	30952	
7512	0	30944	
7513	0	30912	
7514	0	30912	
7515	0	30924	
7516	0	30904	
7517	0	30944	
7518	0	31018	
7519	0	31088	
7520	0	31128	
7521	0	31128	
7522	0	31116	
7523	0	31108	
7524	0	31088	
7525	0	31056	
7526	0	31060	
7527	0	31092	
7528	0	31112	
7529	0	31120	
7530	0	31108	
7531	0	31136	
7532	0	31168	
7533	0	31204	
7534	0	31252	
7535	0	31268	
7536	0	31268	
7537	0	31248	
7538	0	31256	
7539	0	31256	
7540	0	31232	
7541	0	31244	
7542	0	31264	
7543	0	31292	
7544	0	31290	
7545	0	31296	
7546	0	31310	
7547	0	31298	
7548	0	31316	
7549	0	31332	
7550	0	31360	
7551	0	31392	
7552	0	31460	
7553	0	31484	
7554	0	31484	
7555	0	31480	
7556	0	31492	
7557	0	31468	
7558	0	31452	
7559	0	31440	
7560	0	31440	
7561	0	31448	
7562	0	31456	
7563	0	31460	
7564	0	31536	
7565	0	31560	
7566	0	31602	
7567	0	31652	
7568	0	31668	
7569	0	31640	
7570	0	31608	
7571	0	31608	
7572	0	31620	
7573	0	31640	
7574	0	31632	
7575	0	31624	
7576	0	31644	
7577	0	31692	
7578	0	31712	
7579	0	31724	
7580	0	31712	
7581	0	31744	
7582	0	31752	
7583	0	31748	
7584	0	31750	
7585	0	31744	
7586	0	31752	
7587	0	31748	
7588	0	31764	
7589	0	31804	
7590	0	31848	
7591	0	31836	
7592	0	31832	
7593	0	31818	
7594	0	31776	
7595	0	31764	
7596	0	31788	
7597	0	31802	
7598	0	31808	
7599	0	31828	
7600	0	31832	
7601	0	31832	
7602	0	31860	
7603	0	31876	
7604	0	31880	
7605	0	31912	
7606	0	31944	
7607	0	31952	
7608	0	31968	
7609	0	31992	
7610	0	32024	
7611	0	32034	
7612	0	32032	
7613	0	32016	
7614	0	32004	
7615	0	32024	
7616	0	32064	
7617	0	32056	
7618	0	32056	
7619	0	32044	
7620	0	32056	
7621	0	32076	
7622	0	32100	
7623	0	32112	
7624	0	32096	
7625	0	32090	
7626	0	32094	
7627	0	32112	
7628	0	32118	
7629	0	32116	
7630	0	32116	
7631	0	32120	
7632	0	32120	
7633	0	32128	
7634	0	32168	
7635	0	32164	
7636	0	32180	
7637	0	32200	
7638	0	32156	
7639	0	32140	
7640	0	32156	
7641	0	32184	
7642	0	32204	
7643	0	32248	
7644	0	32268	
7645	0	32264	
7646	0	32284	
7647	0	32296	
7648	0	32296	
7649	0	32284	
7650	0	32284	
7651	0	32252	
7652	0	32228	
7653	0	32220	
7654	0	32220	
7655	0	32268	
7656	0	32296	
7657	0	32304	
7658	0	32280	
7659	0	32248	
7660	0	32248	
7661	0	32264	
7662	0	32296	
7663	0	32308	
7664	0	32320	
7665	0	32328	
7666	0	32372	
7667	0	32396	
7668	0	32380	
7669	0	32338	
7670	0	32324	
7671	0	32296	
7672	0	32260	
7673	0	32280	
7674	0	32316	
7675	0	32352	
7676	0	32360	
7677	0	32352	
7678	0	32394	
7679	0	32428	
7680	0	32460	
7681	0	32476	
7682	0	32476	
7683	0	32480	
7684	0	32500	
7685	0	32484	
7686	0	32480	
7687	0	32492	
7688	0	32496	
7689	0	32496	
7690	0	32504	
7691	0	32508	
7692	0	32512	
7693	0	32524	
7694	0	32556	
7695	0	32588	
7696	0	32592	
7697	0	32620	
7698	0	32628	
7699	0	32640	
7700	0	32640	
7701	0	32652	
7702	0	32616	
7703	0	32580	
7704	0	32568	
7705	0	32588	
7706	0	32626	
7707	0	32616	
7708	0	32608	
7709	0	32618	
7710	0	32632	
7711	0	32652	
7712	0	32688	
7713	0	32704	
7714	0	32724	
7715	0	32736	
7716	0	32732	
7717	0	32728	
7718	0	32736	
7719	0	32772	
7720	0	32788	
7721	0	32808	
7722	0	32808	
7723	0	32784	
7724	0	32760	
7725	0	32752	
7726	0	32728	
7727	0	32720	
7728	0	32748	
7729	0	32790	
7730	0	32800	
7731	0	32780	
7732	0	32760	
7733	0	32730	
7734	0	32748	
7735	0	32784	
7736	0	32808	
7737	0	32792	
7738	0	32796	
7739	0	32800	
7740	0	32792	
7741	0	32764	
7742	0	32748	
7743	0	32776	
7744	0	32824	
7745	0	32856	
7746	0	32884	
7747	0	32876	
7748	0	32856	
7749	0	32860	
7750	0	32864	
7751	0	32868	
7752	0	32880	
7753	0	32884	
7754	0	32864	
7755	0	32888	
7756	0	32916	
7757	0	32948	
7758	0	32980	
7759	0	32972	
7760	0	32948	
7761	0	32946	
7762	0	32968	
7763	0	32968	
7764	0	32940	
7765	0	32928	
7766	0	32936	
7767	0	32928	
7768	0	32948	
7769	0	32964	
7770	0	32944	
7771	0	32896	
7772	0	32876	
7773	0	32876	
7774	0	32896	
7775	0	32930	
7776	0	32940	
7777	0	32944	
7778	0	32916	
7779	0	32896	
7780	0	32880	
7781	0	32884	
7782	0	32896	
7783	0	32936	
7784	0	32944	
7785	0	32932	
7786	0	32916	
7787	0	32928	
7788	0	32938	
7789	0	32968	
7790	0	32972	
7791	0	32978	
7792	0	32988	
7793	0	32984	
7794	0	32968	
7795	0	32952	
7796	0	32986	
7797	0	33000	
7798	0	33008	
7799	0	32996	
7800	0	32984	
7801	0	32976	
7802	0	32980	
7803	0	33024	
7804	0	33058	
7805	0	33056	
7806	0	33044	
7807	0	33048	
7808	0	33048	
7809	0	33058	
7810	0	33080	
7811	0	33088	
7812	0	33100	
7813	0	33116	
7814	0	33136	
7815	0	33148	
7816	0	33152	
7817	0	33132	
7818	0	33124	
7819	0	33100	
7820	0	33104	
7821	0	33124	
7822	0	33104	
7823	0	33090	
7824	0	33076	
7825	0	33048	
7826	0	33048	
7827	0	33080	
7828	0	33096	
7829	0	33120	
7830	0	33136	
7831	0	33176	
7832	0	33220	
7833	0	33256	
7834	0	33288	
7835	0	33328	
7836	0	33344	
7837	0	33332	
7838	0	33318	
7839	0	33338	
7840	0	33372	
7841	0	33404	
7842	0	33448	
7843	0	33532	
7844	0	33628	
7845	0	33676	
7846	0	33732	
7847	0	33800	
7848	0	33872	
7849	0	33956	
7850	0	34018	
7851	0	34068	
7852	0	34088	
7853	0	34140	
7854	0	34236	
7855	0	34308	
7856	0	34356	
7857	0	34340	
7858	0	34316	
7859	0	34274	
7860	0	34268	
7861	0	34324	
7862	0	34432	
7863	0	34544	
7864	0	34640	
7865	0	34712	
7866	0	34744	
7867	0	34760	
7868	0	34760	
7869	0	34796	
7870	0	34880	
7871	0	35008	
7872	0	35104	
7873	0	35108	
7874	0	35060	
7875	0	35084	
7876	0	35176	
7877	0	35284	
7878	0	35348	
7879	0	35404	
7880	0	35448	
7881	0	35484	
7882	0	35520	
7883	0	35620	
7884	0	35680	
7885	0	35754	
7886	0	35716	
7887	0	35592	
7888	0	35456	
7889	0	35268	
7890	0	35052	
7891	0	34856	
7892	0	34684	
7893	0	34536	
7894	0	34404	
7895	0	34306	
7896	0	34196	
7897	0	34052	
7898	0	33932	
7899	0	33840	
7900	0	33760	
7901	0	33696	
7902	0	33628	
7903	0	33504	
7904	0	33404	
7905	0	33284	
7906	0	33192	
7907	0	33082	
7908	0	33028	
7909	0	32968	
7910	0	32908	
7911	0	32860	
7912	0	32844	
7913	0	32804	
7914	0	32800	
7915	0	32792	
7916	0	32784	
7917	0	32764	
7918	0	32720	
7919	0	32688	
7920	0	32652	
7921	0	32636	
7922	0	32622	
7923	0	32568	
7924	0	32472	
7925	0	32400	
7926	0	32324	
7927	0	32242	
7928	0	32156	
7929	0	32098	
7930	0	32020	
7931	0	31976	
7932	0	31948	
7933	0	31944	
7934	0	31930	
7935	0	31900	
7936	0	31872	
7937	0	31868	
7938	0	31888	
7939	0	31888	
7940	0	31880	
7941	0	31880	
7942	0	31852	
7943	0	31846	
7944	0	31888	
7945	0	31912	
7946	0	31936	
7947	0	31950	
7948	0	31924	
7949	0	31936	
7950	0	31964	
7951	0	31972	
7952	0	32004	
7953	0	31992	
7954	0	31968	
7955	0	31970	
7956	0	31956	
7957	0	31952	
7958	0	31948	
7959	0	31940	
7960	0	31916	
7961	0	31916	
7962	0	31948	
7963	0	31972	
7964	0	31988	
7965	0	32006	
7966	0	31988	
7967	0	31960	
7968	0	31960	
7969	0	31960	
7970	0	31968	
7971	0	31996	
7972	0	32008	
7973	0	32028	
7974	0	32032	
7975	0	32012	
7976	0	32032	
7977	0	32048	
7978	0	32080	
7979	0	32090	
7980	0	32120	
7981	0	32160	
7982	0	32172	
7983	0	32208	
7984	0	32236	
7985	0	32268	
7986	0	32288	
7987	0	32328	
7988	0	32336	
7989	0	32332	
7990	0	32352	
7991	0	32366	
7992	0	32360	
7993	0	32258	
7994	0	32094	
7995	0	31824	
7996	0	31480	
7997	0	31072	
7998	0	30684	
7999	0	30372	
8000	0	30220	
8001	0	30208	
8002	0	30384	
8003	0	30688	
8004	0	31060	
8005	0	31426	
8006	0	31832	
8007	0	32316	
8008	0	32932	
8009	0	33528	
8010	0	34088	
8011	0	34492	
8012	0	34960	
8013	0	35488	
8014	0	36108	
8015	0	36884	
8016	0	37916	
8017	0	39156	
8018	0	40616	
8019	0	42392	
8020	0	44416	
8021	0	46576	
8022	0	49048	
8023	0	51896	
8024	0	55016	
8025	0	57944	
8026	0	60056	
8027	0	61408	
8028	0	62628	
8029	0	63704	
8030	0	64276	
8031	0	64522	
8032	0	64608	
8033	0	64604	
8034	0	64536	
8035	0	64416	
8036	0	64336	
8037	0	62048	
8038	0	58668	
8039	0	55544	
8040	0	52592	
8041	0	49720	
8042	0	46812	
8043	0	43672	
8044	0	40364	
8045	0	37068	
8046	0	34104	
8047	0	31436	
8048	0	28840	
8049	0	26432	
8050	0	24288	
8051	0	22352	
8052	0	20780	
8053	0	19612	
8054	0	18780	
8055	0	18084	
8056	0	17536	
8057	0	17037	
8058	0	16580	
8059	0	16140	
8060	0	15714	
8061	0	15425	
8062	0	15242	
8063	0	15165	
8064	0	15270	
8065	0	15568	
8066	0	16156	
8067	0	16914	
8068	0	17760	
8069	0	18668	
8070	0	19680	
8071	0	20728	
8072	0	21888	
8073	0	23072	
8074	0	24272	
8075	0	25348	
8076	0	26248	
8077	0	27036	
8078	0	27720	
8079	0	28296	
8080	0	28788	
8081	0	29184	
8082	0	29496	
8083	0	29772	
8084	0	30068	
8085	0	30356	
8086	0	30588	
8087	0	30736	
8088	0	30836	
8089	0	30912	
8090	0	31024	
8091	0	31124	
8092	0	31200	
8093	0	31268	
8094	0	31296	
8095	0	31352	
8096	0	31396	
8097	0	31436	
8098	0	31496	
8099	0	31560	
8100	0	31616	
8101	0	31680	
8102	0	31760	
8103	0	31820	
8104	0	31896	
8105	0	31928	
8106	0	31976	
8107	0	32064	
8108	0	32152	
8109	0	32232	
8110	0	32296	
8111	0	32376	
8112	0	32408	
8113	0	32442	
8114	0	32484	
8115	0	32560	
8116	0	32636	
8117	0	32712	
8118	0	32794	
8119	0	32832	
8120	0	32864	
8121	0	32908	
8122	0	32932	
8123	0	32944	
8124	0	32962	
8125	0	32996	
8126	0	33032	
8127	0	33028	
8128	0	33044	
8129	0	33056	
8130	0	33056	
8131	0	33056	
8132	0	33068	
8133	0	33120	
8134	0	33184	
8135	0	33220	
8136	0	33274	
8137	0	33334	
8138	0	33360	
8139	0	33370	
8140	0	33400	
8141	0	33428	
8142	0	33456	
8143	0	33496	
8144	0	33504	
8145	0	33528	
8146	0	33552	
8147	0	33580	
8148	0	33644	
8149	0	33716	
8150	0	33768	
8151	0	33812	
8152	0	33844	
8153	0	33892	
8154	0	33920	
8155	0	33948	
8156	0	33968	
8157	0	34018	
8158	0	34050	
8159	0	34104	
8160	0	34148	
8161	0	34176	
8162	0	34184	
8163	0	34204	
8164	0	34224	
8165	0	34260	
8166	0	34276	
8167	0	34292	
8168	0	34338	
8169	0	34388	
8170	0	34420	
8171	0	34452	
8172	0	34458	
8173	0	34496	
8174	0	34528	
8175	0	34552	
8176	0	34596	
8177	0	34660	
8178	0	34708	
8179	0	34760	
8180	0	34776	
8181	0	34792	
8182	0	34818	
8183	0	34852	
8184	0	34912	
8185	0	35000	
8186	0	35074	
8187	0	35136	
8188	0	35200	
8189	0	35216	
8190	0	35256	
8191	0	35308	
8192	0	35376	
8193	0	35416	
8194	0	35460	
8195	0	35504	
8196	0	35568	
8197	0	35650	
8198	0	35704	
8199	0	35740	
8200	0	35772	
8201	0	35820	
8202	0	35884	
8203	0	35968	
8204	0	36024	
8205	0	36112	
8206	0	36144	
8207	0	36192	
8208	0	36248	
8209	0	36308	
8210	0	36378	
8211	0	36448	
8212	0	36500	
8213	0	36568	
8214	0	36648	
8215	0	36732	
8216	0	36800	
8217	0	36864	
8218	0	36928	
8219	0	37024	
8220	0	37084	
8221	0	37168	
8222	0	37228	
8223	0	37280	
8224	0	37340	
8225	0	37388	
8226	0	37448	
8227	0	37512	
8228	0	37568	
8229	0	37632	
8230	0	37708	
8231	0	37784	
8232	0	37860	
8233	0	37920	
8234	0	38000	
8235	0	38052	
8236	0	38126	
8237	0	38184	
8238	0	38252	
8239	0	38268	
8240	0	38296	
8241	0	38336	
8242	0	38388	
8243	0	38432	
8244	0	38472	
8245	0	38512	
8246	0	38512	
8247	0	38536	
8248	0	38584	
8249	0	38628	
8250	0	38680	
8251	0	38720	
8252	0	38746	
8253	0	38784	
8254	0	38864	
8255	0	38920	
8256	0	38984	
8257	0	39044	
8258	0	39064	
8259	0	39088	
8260	0	39144	
8261	0	39188	
8262	0	39236	
8263	0	39244	
8264	0	39280	
8265	0	39264	
8266	0	39212	
8267	0	39152	
8268	0	39116	
8269	0	39092	
8270	0	39072	
8271	0	39080	
8272	0	39072	
8273	0	39084	
8274	0	39100	
8275	0	39114	
8276	0	39120	
8277	0	39076	
8278	0	39072	
8279	0	39064	
8280	0	39028	
8281	0	38984	
8282	0	38960	
8283	0	38944	
8284	0	38908	
8285	0	38872	
8286	0	38808	
8287	0	38752	
8288	0	38684	
8289	0	38588	
8290	0	38488	
8291	0	38364	
8292	0	38276	
8293	0	38192	
8294	0	38112	
8295	0	38020	
8296	0	37928	
8297	0	37836	
8298	0	37680	
8299	0	37488	
8300	0	37300	
8301	0	37176	
8302	0	37040	
8303	0	36884	
8304	0	36748	
8305	0	36600	
8306	0	36428	
8307	0	36268	
8308	0	36084	
8309	0	35860	
8310	0	35664	
8311	0	35476	
8312	0	35276	
8313	0	35084	
8314	0	34892	
8315	0	34712	
8316	0	34552	
8317	0	34356	
8318	0	34160	
8319	0	33960	
8320	0	33748	
8321	0	33532	
8322	0	33332	
8323	0	33148	
8324	0	32960	
8325	0	32776	
8326	0	32588	
8327	0	32400	
8328	0	32220	
8329	0	32024	
8330	0	31876	
8331	0	31724	
8332	0	31568	
8333	0	31424	
8334	0	31228	
8335	0	31064	
8336	0	30944	
8337	0	30812	
8338	0	30668	
8339	0	30536	
8340	0	30398	
8341	0	30252	
8342	0	30112	
8343	0	29984	
8344	0	29884	
8345	0	29776	
8346	0	29668	
8347	0	29582	
8348	0	29504	
8349	0	29412	
8350	0	29324	
8351	0	29248	
8352	0	29128	
8353	0	28996	
8354	0	28900	
8355	0	28824	
8356	0	28740	
8357	0	28656	
8358	0	28596	
8359	0	28566	
8360	0	28532	
8361	0	28512	
8362	0	28476	
8363	0	28440	
8364	0	28448	
8365	0	28428	
8366	0	28401	
8367	0	28412	
8368	0	28424	
8369	0	28452	
8370	0	28464	
8371	0	28472	
8372	0	28512	
8373	0	28564	
8374	0	28572	
8375	0	28576	
8376	0	28564	
8377	0	28552	
8378	0	28544	
8379	0	28552	
8380	0	28560	
8381	0	28554	
8382	0	28532	
8383	0	28542	
8384	0	28544	
8385	0	28552	
8386	0	28564	
8387	0	28592	
8388	0	28608	
8389	0	28636	
8390	0	28636	
8391	0	28658	
8392	0	28722	
8393	0	28768	
8394	0	28770	
8395	0	28784	
8396	0	28818	
8397	0	28824	
8398	0	28788	
8399	0	28770	
8400	0	28800	
8401	0	28872	
8402	0	28952	
8403	0	29056	
8404	0	29136	
8405	0	29178	
8406	0	29200	
8407	0	29230	
8408	0	29252	
8409	0	29256	
8410	0	29272	
8411	0	29284	
8412	0	29272	
8413	0	29288	
8414	0	29348	
8415	0	29440	
8416	0	29496	
8417	0	29504	
8418	0	29480	
8419	0	29500	
8420	0	29556	
8421	0	29592	
8422	0	29632	
8423	0	29684	
8424	0	29724	
8425	0	29752	
8426	0	29740	
8427	0	29736	
8428	0	29776	
8429	0	29800	
8430	0	29804	
8431	0	29848	
8432	0	29884	
8433	0	29944	
8434	0	29972	
8435	0	29970	
8436	0	29976	
8437	0	29992	
8438	0	30000	
8439	0	30034	
8440	0	30060	
8441	0	30088	
8442	0	30128	
8443	0	30116	
8444	0	30122	
8445	0	30106	
8446	0	30124	
8447	0	30148	
8448	0	30178	
8449	0	30196	
8450	0	30200	
8451	0	30184	
8452	0	30180	
8453	0	30196	
8454	0	30196	
8455	0	30200	
8456	0	30204	
8457	0	30226	
8458	0	30240	
8459	0	30248	
8460	0	30272	
8461	0	30284	
8462	0	30324	
8463	0	30338	
8464	0	30324	
8465	0	30305	
8466	0	30292	
8467	0	30304	
8468	0	30335	
8469	0	30352	
8470	0	30352	
8471	0	30360	
8472	0	30360	
8473	0	30344	
8474	0	30348	
8475	0	30376	
8476	0	30404	
8477	0	30388	
8478	0	30388	
8479	0	30388	
8480	0	30400	
8481	0	30380	
8482	0	30348	
8483	0	30316	
8484	0	30312	
8485	0	30340	
8486	0	30396	
8487	0	30416	
8488	0	30424	
8489	0	30408	
8490	0	30376	
8491	0	30364	
8492	0	30360	
8493	0	30362	
8494	0	30392	
8495	0	30428	
8496	0	30432	
8497	0	30432	
8498	0	30440	
8499	0	30464	
8500	0	30452	
8501	0	30472	
8502	0	30492	
8503	0	30480	
8504	0	30492	
8505	0	30524	
8506	0	30584	
8507	0	30624	
8508	0	30644	
8509	0	30608	
8510	0	30568	
8511	0	30560	
8512	0	30588	
8513	0	30604	
8514	0	30548	
8515	0	30480	
8516	0	30432	
8517	0	30420	
8518	0	30468	
8519	0	30490	
8520	0	30508	
8521	0	30544	
8522	0	30560	
8523	0	30560	
8524	0	30576	
8525	0	30572	
8526	0	30576	
8527	0	30592	
8528	0	30600	
8529	0	30584	
8530	0	30552	
8531	0	30524	
8532	0	30528	
8533	0	30598	
8534	0	30628	
8535	0	30600	
8536	0	30568	
8537	0	30552	
8538	0	30550	
8539	0	30568	
8540	0	30588	
8541	0	30616	
8542	0	30612	
8543	0	30618	
8544	0	30620	
8545	0	30636	
8546	0	30664	
8547	0	30670	
8548	0	30684	
8549	0	30688	
8550	0	30674	
8551	0	30680	
8552	0	30696	
8553	0	30676	
8554	0	30708	
8555	0	30744	
8556	0	30772	
8557	0	30792	
8558	0	30760	
8559	0	30768	
8560	0	30792	
8561	0	30800	
8562	0	30804	
8563	0	30760	
8564	0	30778	
8565	0	30832	
8566	0	30872	
8567	0	30908	
8568	0	30916	
8569	0	30924	
8570	0	30900	
8571	0	30904	
8572	0	30944	
8573	0	30956	
8574	0	30954	
8575	0	30964	
8576	0	30972	
8577	0	30988	
8578	0	30984	
8579	0	31000	
8580	0	31032	
8581	0	31072	
8582	0	31112	
8583	0	31149	
8584	0	31202	
8585	0	31220	
8586	0	31220	
8587	0	31240	
8588	0	31232	
8589	0	31228	
8590	0	31220	
8591	0	31264	
