# OpenSignals Text File Format. Version 1
# {"00:07:80:4B:15:F7": {"position": 0, "device": "biosignalsplux", "device name": "00:07:80:4B:15:F7", "device connection": "BTH00:07:80:4B:15:F7", "sampling rate": 1000, "resolution": [16], "firmware version": 775, "comments": "", "keywords": "", "mode": 0, "sync interval": 2, "date": "2023-4-27", "time": "17:43:46.885", "channels": [1], "sensor": ["ECG"], "label": ["CH1"], "column": ["nSeq", "DI", "CH1"], "special": [{"SpO2": [80, 40, 5, 4, 3, 3]}, {"SpO2": [80, 40, 5, 4, 3, 3]}, {"SpO2": [80, 40, 5, 4, 3, 3]}, {"SpO2": [80, 40, 5, 4, 3, 3]}, {"SpO2": [80, 40, 5, 4, 3, 3]}, {"SpO2": [80, 40, 5, 4, 3, 3]}, {"SpO2": [80, 40, 5, 4, 3, 3]}, {"SpO2": [80, 40, 5, 4, 3, 3]}], "digital IO": [0, 1], "sleeve color": ["green"], "convertedValues": 0}}
# EndOfHeader
0	0	32360	
1	0	32372	
2	0	32404	
3	0	32448	
4	0	32488	
5	0	32542	
6	0	32554	
7	0	32576	
8	0	32620	
9	0	32560	
10	0	32512	
11	0	32544	
12	0	32536	
13	0	32536	
14	0	32552	
15	0	32584	
16	0	32636	
17	0	32704	
18	0	32762	
19	0	32802	
20	0	32808	
21	0	32752	
22	0	32692	
23	0	32724	
24	0	32732	
25	0	32764	
26	0	32776	
27	0	32784	
28	0	32820	
29	0	32836	
30	0	32892	
31	0	32888	
32	0	32756	
33	0	32832	
34	0	32962	
35	0	33080	
36	0	33068	
37	0	32988	
38	0	32956	
39	0	32968	
40	0	33020	
41	0	33008	
42	0	33036	
43	0	33076	
44	0	33112	
45	0	33164	
46	0	33212	
47	0	33152	
48	0	33132	
49	0	33128	
50	0	33188	
51	0	33292	
52	0	33362	
53	0	33404	
54	0	33360	
55	0	33316	
56	0	33288	
57	0	33292	
58	0	33264	
59	0	33248	
60	0	33320	
61	0	33348	
62	0	33344	
63	0	33312	
64	0	33296	
65	0	33304	
66	0	33300	
67	0	33288	
68	0	33312	
69	0	33356	
70	0	33416	
71	0	33424	
72	0	33378	
73	0	33324	
74	0	33300	
75	0	33288	
76	0	33320	
77	0	33312	
78	0	33304	
79	0	33314	
80	0	33312	
81	0	33304	
82	0	33324	
83	0	33340	
84	0	33344	
85	0	33400	
86	0	33428	
87	0	33436	
88	0	33440	
89	0	33408	
90	0	33404	
91	0	33400	
92	0	33424	
93	0	33456	
94	0	33408	
95	0	33312	
96	0	33324	
97	0	33332	
98	0	33340	
99	0	33304	
100	0	33260	
101	0	33232	
102	0	33208	
103	0	33192	
104	0	33200	
105	0	33248	
106	0	33208	
107	0	33212	
108	0	33348	
109	0	33460	
110	0	33470	
111	0	33352	
112	0	33292	
113	0	33292	
114	0	33316	
115	0	33372	
116	0	33436	
117	0	33442	
118	0	33406	
119	0	33360	
120	0	33324	
121	0	33280	
122	0	33256	
123	0	33268	
124	0	33304	
125	0	33272	
126	0	33224	
127	0	33172	
128	0	33136	
129	0	33124	
130	0	33180	
131	0	33284	
132	0	33296	
133	0	33216	
134	0	33238	
135	0	33296	
136	0	33304	
137	0	33248	
138	0	33248	
139	0	33268	
140	0	33298	
141	0	33332	
142	0	33336	
143	0	33368	
144	0	33348	
145	0	33292	
146	0	33232	
147	0	33248	
148	0	33308	
149	0	33360	
150	0	33376	
151	0	33388	
152	0	33316	
153	0	33260	
154	0	33252	
155	0	33216	
156	0	33160	
157	0	33104	
158	0	33052	
159	0	32996	
160	0	33004	
161	0	33036	
162	0	33030	
163	0	33044	
164	0	33096	
165	0	33132	
166	0	33152	
167	0	33156	
168	0	33176	
169	0	33208	
170	0	33180	
171	0	33098	
172	0	33068	
173	0	33048	
174	0	33020	
175	0	32960	
176	0	32914	
177	0	32912	
178	0	32968	
179	0	32960	
180	0	32934	
181	0	32972	
182	0	33000	
183	0	32980	
184	0	33044	
185	0	33024	
186	0	33024	
187	0	33040	
188	0	33006	
189	0	33020	
190	0	33064	
191	0	33088	
192	0	33104	
193	0	33080	
194	0	33096	
195	0	33116	
196	0	33080	
197	0	33028	
198	0	33036	
199	0	33082	
200	0	33140	
201	0	33184	
202	0	33162	
203	0	33072	
204	0	33064	
205	0	33056	
206	0	33066	
207	0	33096	
208	0	33144	
209	0	33124	
210	0	33084	
211	0	33096	
212	0	33156	
213	0	33188	
214	0	33160	
215	0	33100	
216	0	33072	
217	0	33100	
218	0	33140	
219	0	33156	
220	0	33172	
221	0	33176	
222	0	33164	
223	0	33136	
224	0	33108	
225	0	33116	
226	0	33116	
227	0	33128	
228	0	33142	
229	0	33140	
230	0	33076	
231	0	33008	
232	0	32972	
233	0	32976	
234	0	32972	
235	0	33020	
236	0	33092	
237	0	33094	
238	0	33060	
239	0	33040	
240	0	32992	
241	0	32960	
242	0	32920	
243	0	32936	
244	0	32908	
245	0	32936	
246	0	33008	
247	0	33064	
248	0	33124	
249	0	33136	
250	0	33060	
251	0	33014	
252	0	32980	
253	0	32950	
254	0	32960	
255	0	33008	
256	0	32992	
257	0	32992	
258	0	33000	
259	0	33088	
260	0	33200	
261	0	33204	
262	0	33168	
263	0	33140	
264	0	33044	
265	0	33080	
266	0	33168	
267	0	33154	
268	0	33148	
269	0	33172	
270	0	33144	
271	0	33116	
272	0	33140	
273	0	33136	
274	0	33124	
275	0	33108	
276	0	33072	
277	0	33002	
278	0	32992	
279	0	32992	
280	0	33036	
281	0	33072	
282	0	33084	
283	0	33044	
284	0	32994	
285	0	33008	
286	0	33004	
287	0	32988	
288	0	33032	
289	0	33096	
290	0	33184	
291	0	33248	
292	0	33296	
293	0	33320	
294	0	33296	
295	0	33300	
296	0	33296	
297	0	33304	
298	0	33256	
299	0	33194	
300	0	33092	
301	0	33036	
302	0	32984	
303	0	32972	
304	0	32976	
305	0	32988	
306	0	33000	
307	0	33020	
308	0	32980	
309	0	33006	
310	0	33056	
311	0	33186	
312	0	33312	
313	0	33296	
314	0	33216	
315	0	33178	
316	0	33168	
317	0	33148	
318	0	33152	
319	0	33168	
320	0	33192	
321	0	33156	
322	0	33176	
323	0	33200	
324	0	33212	
325	0	33272	
326	0	33340	
327	0	33304	
328	0	33196	
329	0	33064	
330	0	33070	
331	0	33136	
332	0	33136	
333	0	33088	
334	0	33056	
335	0	33056	
336	0	33058	
337	0	33080	
338	0	33120	
339	0	33128	
340	0	33140	
341	0	33176	
342	0	33220	
343	0	33272	
344	0	33328	
345	0	33352	
346	0	33372	
347	0	33352	
348	0	33392	
349	0	33392	
350	0	33368	
351	0	33360	
352	0	33372	
353	0	33400	
354	0	33400	
355	0	33376	
356	0	33352	
357	0	33306	
358	0	33256	
359	0	33236	
360	0	33156	
361	0	33112	
362	0	33120	
363	0	33152	
364	0	33144	
365	0	33128	
366	0	33152	
367	0	33160	
368	0	33150	
369	0	33116	
370	0	33104	
371	0	33136	
372	0	33186	
373	0	33160	
374	0	33128	
375	0	33128	
376	0	33116	
377	0	33144	
378	0	33128	
379	0	33152	
380	0	33168	
381	0	33160	
382	0	33108	
383	0	33066	
384	0	33048	
385	0	33098	
386	0	33140	
387	0	33212	
388	0	33262	
389	0	33272	
390	0	33284	
391	0	33300	
392	0	33312	
393	0	33304	
394	0	33236	
395	0	33152	
396	0	33080	
397	0	33046	
398	0	33016	
399	0	32992	
400	0	33106	
401	0	33184	
402	0	33200	
403	0	33192	
404	0	33188	
405	0	33150	
406	0	33108	
407	0	33120	
408	0	33092	
409	0	33104	
410	0	33156	
411	0	33210	
412	0	33204	
413	0	33196	
414	0	33160	
415	0	33136	
416	0	33124	
417	0	33120	
418	0	33156	
419	0	33172	
420	0	33164	
421	0	33116	
422	0	33120	
423	0	33124	
424	0	33080	
425	0	32960	
426	0	32940	
427	0	33012	
428	0	33052	
429	0	33100	
430	0	33170	
431	0	33192	
432	0	33168	
433	0	33120	
434	0	33116	
435	0	33132	
436	0	33144	
437	0	33188	
438	0	33220	
439	0	33248	
440	0	33250	
441	0	33256	
442	0	33264	
443	0	33256	
444	0	33196	
445	0	33200	
446	0	33208	
447	0	33248	
448	0	33264	
449	0	33272	
450	0	33280	
451	0	33288	
452	0	33308	
453	0	33332	
454	0	33342	
455	0	33338	
456	0	33344	
457	0	33320	
458	0	33292	
459	0	33304	
460	0	33332	
461	0	33248	
462	0	33162	
463	0	33208	
464	0	33304	
465	0	33336	
466	0	33328	
467	0	33348	
468	0	33400	
469	0	33424	
470	0	33418	
471	0	33412	
472	0	33428	
473	0	33432	
474	0	33412	
475	0	33384	
476	0	33372	
477	0	33348	
478	0	33360	
479	0	33360	
480	0	33332	
481	0	33276	
482	0	33256	
483	0	33280	
484	0	33332	
485	0	33360	
486	0	33344	
487	0	33312	
488	0	33360	
489	0	33428	
490	0	33440	
491	0	33420	
492	0	33408	
493	0	33408	
494	0	33424	
495	0	33412	
496	0	33392	
497	0	33404	
498	0	33420	
499	0	33412	
500	0	33380	
501	0	33352	
502	0	33288	
503	0	33272	
504	0	33244	
505	0	33218	
506	0	33244	
507	0	33184	
508	0	33200	
509	0	33216	
510	0	33288	
511	0	33348	
512	0	33320	
513	0	33324	
514	0	33384	
515	0	33384	
516	0	33276	
517	0	33244	
518	0	33268	
519	0	33344	
520	0	33364	
521	0	33358	
522	0	33384	
523	0	33400	
524	0	33448	
525	0	33536	
526	0	33592	
527	0	33532	
528	0	33504	
529	0	33636	
530	0	33720	
531	0	33784	
532	0	33840	
533	0	33872	
534	0	33912	
535	0	33940	
536	0	33960	
537	0	33976	
538	0	34044	
539	0	34136	
540	0	34212	
541	0	34272	
542	0	34284	
543	0	34308	
544	0	34304	
545	0	34216	
546	0	34144	
547	0	34060	
548	0	33976	
549	0	33980	
550	0	33976	
551	0	33964	
552	0	34004	
553	0	34068	
554	0	34112	
555	0	34172	
556	0	34196	
557	0	34264	
558	0	34360	
559	0	34512	
560	0	34720	
561	0	34908	
562	0	35084	
563	0	35224	
564	0	35292	
565	0	35344	
566	0	35400	
567	0	35492	
568	0	35520	
569	0	35552	
570	0	35560	
571	0	35580	
572	0	35570	
573	0	35556	
574	0	35540	
575	0	35480	
576	0	35392	
577	0	35352	
578	0	35296	
579	0	35172	
580	0	35168	
581	0	35108	
582	0	35028	
583	0	34980	
584	0	34940	
585	0	34892	
586	0	34792	
587	0	34696	
588	0	34596	
589	0	34488	
590	0	34356	
591	0	34208	
592	0	34024	
593	0	33832	
594	0	33616	
595	0	33428	
596	0	33248	
597	0	33000	
598	0	32664	
599	0	32364	
600	0	32116	
601	0	31984	
602	0	31856	
603	0	31728	
604	0	31656	
605	0	31656	
606	0	31700	
607	0	31736	
608	0	31780	
609	0	31820	
610	0	31872	
611	0	31888	
612	0	31848	
613	0	31854	
614	0	31900	
615	0	31932	
616	0	31936	
617	0	31916	
618	0	31880	
619	0	31892	
620	0	31936	
621	0	32012	
622	0	32056	
623	0	32040	
624	0	32044	
625	0	32100	
626	0	32124	
627	0	32160	
628	0	32176	
629	0	32148	
630	0	32128	
631	0	32100	
632	0	32192	
633	0	32268	
634	0	32264	
635	0	32220	
636	0	32276	
637	0	32388	
638	0	32480	
639	0	32520	
640	0	32472	
641	0	32410	
642	0	32428	
643	0	32460	
644	0	32480	
645	0	32372	
646	0	32252	
647	0	32016	
648	0	31712	
649	0	31348	
650	0	30748	
651	0	29852	
652	0	28780	
653	0	27554	
654	0	26160	
655	0	24984	
656	0	23856	
657	0	22816	
658	0	21954	
659	0	21408	
660	0	21148	
661	0	21212	
662	0	21480	
663	0	21928	
664	0	22410	
665	0	23170	
666	0	24616	
667	0	26506	
668	0	28752	
669	0	31232	
670	0	34064	
671	0	37260	
672	0	40760	
673	0	44648	
674	0	48708	
675	0	52932	
676	0	57184	
677	0	60192	
678	0	61812	
679	0	62656	
680	0	63064	
681	0	63224	
682	0	63256	
683	0	63232	
684	0	63176	
685	0	63076	
686	0	62960	
687	0	62864	
688	0	62724	
689	0	60072	
690	0	55164	
691	0	51480	
692	0	47904	
693	0	44500	
694	0	41480	
695	0	38994	
696	0	36764	
697	0	34496	
698	0	31980	
699	0	29708	
700	0	27968	
701	0	26616	
702	0	25524	
703	0	24720	
704	0	24156	
705	0	23604	
706	0	22868	
707	0	22122	
708	0	21632	
709	0	21380	
710	0	21392	
711	0	21473	
712	0	21456	
713	0	21648	
714	0	21892	
715	0	22208	
716	0	22468	
717	0	22744	
718	0	23128	
719	0	23552	
720	0	24064	
721	0	24628	
722	0	25152	
723	0	25610	
724	0	26178	
725	0	26760	
726	0	27320	
727	0	27812	
728	0	28232	
729	0	28612	
730	0	28908	
731	0	29160	
732	0	29352	
733	0	29496	
734	0	29640	
735	0	29748	
736	0	29832	
737	0	29904	
738	0	29896	
739	0	29922	
740	0	29996	
741	0	30044	
742	0	30148	
743	0	30240	
744	0	30288	
745	0	30356	
746	0	30352	
747	0	30300	
748	0	30224	
749	0	30192	
750	0	30236	
751	0	30284	
752	0	30356	
753	0	30468	
754	0	30576	
755	0	30552	
756	0	30538	
757	0	30624	
758	0	30708	
759	0	30784	
760	0	30864	
761	0	30948	
762	0	31012	
763	0	31048	
764	0	31120	
765	0	31204	
766	0	31244	
767	0	31264	
768	0	31316	
769	0	31360	
770	0	31408	
771	0	31480	
772	0	31516	
773	0	31496	
774	0	31496	
775	0	31532	
776	0	31556	
777	0	31552	
778	0	31564	
779	0	31556	
780	0	31520	
781	0	31568	
782	0	31692	
783	0	31824	
784	0	31912	
785	0	31936	
786	0	31989	
787	0	32000	
788	0	31988	
789	0	32016	
790	0	32076	
791	0	32144	
792	0	32156	
793	0	32176	
794	0	32224	
795	0	32244	
796	0	32264	
797	0	32260	
798	0	32256	
799	0	32224	
800	0	32252	
801	0	32232	
802	0	32240	
803	0	32260	
804	0	32288	
805	0	32308	
806	0	32312	
807	0	32320	
808	0	32320	
809	0	32372	
810	0	32488	
811	0	32568	
812	0	32588	
813	0	32668	
814	0	32720	
815	0	32680	
816	0	32612	
817	0	32600	
818	0	32664	
819	0	32736	
820	0	32828	
821	0	32832	
822	0	32808	
823	0	32804	
824	0	32812	
825	0	32824	
826	0	32824	
827	0	32852	
828	0	32864	
829	0	32904	
830	0	32956	
831	0	32960	
832	0	32952	
833	0	32948	
834	0	32972	
835	0	33012	
836	0	33024	
837	0	33032	
838	0	32996	
839	0	32948	
840	0	32946	
841	0	32992	
842	0	33008	
843	0	33020	
844	0	33000	
845	0	33036	
846	0	33092	
847	0	33192	
848	0	33284	
849	0	33306	
850	0	33368	
851	0	33424	
852	0	33380	
853	0	33384	
854	0	33404	
855	0	33464	
856	0	33520	
857	0	33570	
858	0	33560	
859	0	33536	
860	0	33520	
861	0	33608	
862	0	33648	
863	0	33596	
864	0	33552	
865	0	33528	
866	0	33532	
867	0	33564	
868	0	33592	
869	0	33600	
870	0	33666	
871	0	33744	
872	0	33708	
873	0	33736	
874	0	33732	
875	0	33756	
876	0	33804	
877	0	33900	
878	0	33996	
879	0	34076	
880	0	34144	
881	0	34156	
882	0	34156	
883	0	34172	
884	0	34180	
885	0	34200	
886	0	34200	
887	0	34180	
888	0	34220	
889	0	34298	
890	0	34404	
891	0	34480	
892	0	34568	
893	0	34720	
894	0	34856	
895	0	34812	
896	0	34740	
897	0	34680	
898	0	34652	
899	0	34708	
900	0	34712	
901	0	34664	
902	0	34652	
903	0	34664	
904	0	34648	
905	0	34604	
906	0	34588	
907	0	34580	
908	0	34552	
909	0	34522	
910	0	34554	
911	0	34584	
912	0	34552	
913	0	34520	
914	0	34496	
915	0	34468	
916	0	34428	
917	0	34436	
918	0	34416	
919	0	34412	
920	0	34316	
921	0	34236	
922	0	34170	
923	0	34114	
924	0	34068	
925	0	34016	
926	0	33916	
927	0	33740	
928	0	33608	
929	0	33488	
930	0	33360	
931	0	33200	
932	0	33072	
933	0	32944	
934	0	32824	
935	0	32800	
936	0	32802	
937	0	32752	
938	0	32676	
939	0	32552	
940	0	32428	
941	0	32336	
942	0	32282	
943	0	32232	
944	0	32216	
945	0	32188	
946	0	32152	
947	0	32076	
948	0	31940	
949	0	31864	
950	0	31770	
951	0	31660	
952	0	31632	
953	0	31640	
954	0	31632	
955	0	31580	
956	0	31480	
957	0	31408	
958	0	31420	
959	0	31444	
960	0	31436	
961	0	31376	
962	0	31306	
963	0	31256	
964	0	31220	
965	0	31208	
966	0	31204	
967	0	31200	
968	0	31128	
969	0	31040	
970	0	31004	
971	0	30972	
972	0	30972	
973	0	31024	
974	0	30968	
975	0	30888	
976	0	30818	
977	0	30770	
978	0	30716	
979	0	30736	
980	0	30784	
981	0	30828	
982	0	30816	
983	0	30768	
984	0	30728	
985	0	30726	
986	0	30744	
987	0	30828	
988	0	30912	
989	0	30936	
990	0	30938	
991	0	30948	
992	0	31020	
993	0	31076	
994	0	31028	
995	0	31008	
996	0	30992	
997	0	30984	
998	0	30956	
999	0	30972	
1000	0	31004	
1001	0	30960	
1002	0	30978	
1003	0	31004	
1004	0	31060	
1005	0	31144	
1006	0	31228	
1007	0	31300	
1008	0	31300	
1009	0	31228	
1010	0	31136	
1011	0	31136	
1012	0	31148	
1013	0	31176	
1014	0	31252	
1015	0	31284	
1016	0	31264	
1017	0	31200	
1018	0	31216	
1019	0	31264	
1020	0	31340	
1021	0	31452	
1022	0	31506	
1023	0	31500	
1024	0	31466	
1025	0	31468	
1026	0	31488	
1027	0	31468	
1028	0	31524	
1029	0	31516	
1030	0	31458	
1031	0	31424	
1032	0	31392	
1033	0	31288	
1034	0	31386	
1035	0	31516	
1036	0	31592	
1037	0	31620	
1038	0	31592	
1039	0	31596	
1040	0	31596	
1041	0	31624	
1042	0	31564	
1043	0	31512	
1044	0	31460	
1045	0	31432	
1046	0	31456	
1047	0	31496	
1048	0	31524	
1049	0	31600	
1050	0	31612	
1051	0	31616	
1052	0	31622	
1053	0	31664	
1054	0	31696	
1055	0	31720	
1056	0	31780	
1057	0	31768	
1058	0	31778	
1059	0	31784	
1060	0	31724	
1061	0	31700	
1062	0	31766	
1063	0	31832	
1064	0	31802	
1065	0	31724	
1066	0	31680	
1067	0	31693	
1068	0	31744	
1069	0	31792	
1070	0	31824	
1071	0	31864	
1072	0	31936	
1073	0	31962	
1074	0	31940	
1075	0	31944	
1076	0	32024	
1077	0	32017	
1078	0	31972	
1079	0	31994	
1080	0	32170	
1081	0	32184	
1082	0	32040	
1083	0	31936	
1084	0	31892	
1085	0	31832	
1086	0	31856	
1087	0	31964	
1088	0	32080	
1089	0	32156	
1090	0	32160	
1091	0	32128	
1092	0	32120	
1093	0	32076	
1094	0	32040	
1095	0	32096	
1096	0	32144	
1097	0	32160	
1098	0	32168	
1099	0	32188	
1100	0	32232	
1101	0	32240	
1102	0	32168	
1103	0	32142	
1104	0	32152	
1105	0	32168	
1106	0	32164	
1107	0	32288	
1108	0	32428	
1109	0	32462	
1110	0	32392	
1111	0	32352	
1112	0	32306	
1113	0	32304	
1114	0	32300	
1115	0	32304	
1116	0	32288	
1117	0	32276	
1118	0	32280	
1119	0	32356	
1120	0	32296	
1121	0	32148	
1122	0	32096	
1123	0	32084	
1124	0	32112	
1125	0	32156	
1126	0	32192	
1127	0	32296	
1128	0	32324	
1129	0	32276	
1130	0	32256	
1131	0	32300	
1132	0	32404	
1133	0	32320	
1134	0	32236	
1135	0	32208	
1136	0	32212	
1137	0	32228	
1138	0	32312	
1139	0	32352	
1140	0	32320	
1141	0	32336	
1142	0	32432	
1143	0	32448	
1144	0	32400	
1145	0	32426	
1146	0	32488	
1147	0	32544	
1148	0	32584	
1149	0	32588	
1150	0	32576	
1151	0	32532	
1152	0	32552	
1153	0	32504	
1154	0	32366	
1155	0	32194	
1156	0	32028	
1157	0	31946	
1158	0	31952	
1159	0	32008	
1160	0	32080	
1161	0	32236	
1162	0	32352	
1163	0	32344	
1164	0	32316	
1165	0	32332	
1166	0	32392	
1167	0	32428	
1168	0	32406	
1169	0	32360	
1170	0	32268	
1171	0	32360	
1172	0	32464	
1173	0	32596	
1174	0	32736	
1175	0	32796	
1176	0	32756	
1177	0	32648	
1178	0	32524	
1179	0	32432	
1180	0	32328	
1181	0	32148	
1182	0	31964	
1183	0	31870	
1184	0	31860	
1185	0	31882	
1186	0	31908	
1187	0	31984	
1188	0	32064	
1189	0	31948	
1190	0	31880	
1191	0	31840	
1192	0	31832	
1193	0	31832	
1194	0	31872	
1195	0	31928	
1196	0	32056	
1197	0	32172	
1198	0	32256	
1199	0	32288	
1200	0	32332	
1201	0	32400	
1202	0	32392	
1203	0	32292	
1204	0	32212	
1205	0	32208	
1206	0	32234	
1207	0	32280	
1208	0	32324	
1209	0	32344	
1210	0	32298	
1211	0	32242	
1212	0	32240	
1213	0	32252	
1214	0	32128	
1215	0	32088	
1216	0	32068	
1217	0	32020	
1218	0	32000	
1219	0	32028	
1220	0	32004	
1221	0	31968	
1222	0	31956	
1223	0	31952	
1224	0	31936	
1225	0	31936	
1226	0	31984	
1227	0	32084	
1228	0	32168	
1229	0	32336	
1230	0	32476	
1231	0	32490	
1232	0	32412	
1233	0	32376	
1234	0	32404	
1235	0	32392	
1236	0	32328	
1237	0	32230	
1238	0	32176	
1239	0	32154	
1240	0	32168	
1241	0	32096	
1242	0	32076	
1243	0	32049	
1244	0	32064	
1245	0	32112	
1246	0	32176	
1247	0	32272	
1248	0	32180	
1249	0	32168	
1250	0	32216	
1251	0	32196	
1252	0	32228	
1253	0	32272	
1254	0	32328	
1255	0	32368	
1256	0	32396	
1257	0	32440	
1258	0	32448	
1259	0	32416	
1260	0	32384	
1261	0	32356	
1262	0	32400	
1263	0	32460	
1264	0	32504	
1265	0	32496	
1266	0	32304	
1267	0	32172	
1268	0	32144	
1269	0	32176	
1270	0	32096	
1271	0	32000	
1272	0	32104	
1273	0	32208	
1274	0	32192	
1275	0	32192	
1276	0	32192	
1277	0	32256	
1278	0	32416	
1279	0	32508	
1280	0	32400	
1281	0	32304	
1282	0	32280	
1283	0	32172	
1284	0	32044	
1285	0	32048	
1286	0	32152	
1287	0	32324	
1288	0	32416	
1289	0	32380	
1290	0	32324	
1291	0	32280	
1292	0	32148	
1293	0	32100	
1294	0	32044	
1295	0	31998	
1296	0	32048	
1297	0	32160	
1298	0	32228	
1299	0	32264	
1300	0	32232	
1301	0	32182	
1302	0	32204	
1303	0	32160	
1304	0	32020	
1305	0	31936	
1306	0	32016	
1307	0	32100	
1308	0	32064	
1309	0	32092	
1310	0	32196	
1311	0	32316	
1312	0	32424	
1313	0	32492	
1314	0	32512	
1315	0	32569	
1316	0	32528	
1317	0	32414	
1318	0	32308	
1319	0	32112	
1320	0	31940	
1321	0	31808	
1322	0	31752	
1323	0	31852	
1324	0	31944	
1325	0	31936	
1326	0	32004	
1327	0	32032	
1328	0	31940	
1329	0	31904	
1330	0	31940	
1331	0	32048	
1332	0	32112	
1333	0	32180	
1334	0	32272	
1335	0	32328	
1336	0	32282	
1337	0	32276	
1338	0	32352	
1339	0	32432	
1340	0	32430	
1341	0	32312	
1342	0	32284	
1343	0	32188	
1344	0	32140	
1345	0	32098	
1346	0	32068	
1347	0	32184	
1348	0	32336	
1349	0	32188	
1350	0	32196	
1351	0	32282	
1352	0	32300	
1353	0	32240	
1354	0	32196	
1355	0	32120	
1356	0	32020	
1357	0	31962	
1358	0	31920	
1359	0	31944	
1360	0	31876	
1361	0	31752	
1362	0	31724	
1363	0	31768	
1364	0	31856	
1365	0	31968	
1366	0	32168	
1367	0	32400	
1368	0	32468	
1369	0	32452	
1370	0	32420	
1371	0	32388	
1372	0	32322	
1373	0	32308	
1374	0	32256	
1375	0	32224	
1376	0	32272	
1377	0	32272	
1378	0	32292	
1379	0	32344	
1380	0	32364	
1381	0	32282	
1382	0	32128	
1383	0	32060	
1384	0	32132	
1385	0	32280	
1386	0	32448	
1387	0	32572	
1388	0	32698	
1389	0	32648	
1390	0	32564	
1391	0	32384	
1392	0	32288	
1393	0	32298	
1394	0	32344	
1395	0	32424	
1396	0	32528	
1397	0	32600	
1398	0	32624	
1399	0	32624	
1400	0	32496	
1401	0	32316	
1402	0	32160	
1403	0	32144	
1404	0	32240	
1405	0	32372	
1406	0	32448	
1407	0	32428	
1408	0	32428	
1409	0	32508	
1410	0	32560	
1411	0	32540	
1412	0	32498	
1413	0	32444	
1414	0	32440	
1415	0	32384	
1416	0	32352	
1417	0	32328	
1418	0	32352	
1419	0	32380	
1420	0	32328	
1421	0	32304	
1422	0	32280	
1423	0	32258	
1424	0	32288	
1425	0	32392	
1426	0	32440	
1427	0	32424	
1428	0	32436	
1429	0	32488	
1430	0	32602	
1431	0	32656	
1432	0	32700	
1433	0	32668	
1434	0	32652	
1435	0	32714	
1436	0	32800	
1437	0	32774	
1438	0	32756	
1439	0	32776	
1440	0	32828	
1441	0	32868	
1442	0	32896	
1443	0	32952	
1444	0	33048	
1445	0	33224	
1446	0	33428	
1447	0	33560	
1448	0	33560	
1449	0	33578	
1450	0	33626	
1451	0	33680	
1452	0	33660	
1453	0	33624	
1454	0	33596	
1455	0	33496	
1456	0	33442	
1457	0	33320	
1458	0	33008	
1459	0	32680	
1460	0	32364	
1461	0	32248	
1462	0	32260	
1463	0	32352	
1464	0	32488	
1465	0	32616	
1466	0	32736	
1467	0	32952	
1468	0	33236	
1469	0	33520	
1470	0	33730	
1471	0	33888	
1472	0	34072	
1473	0	34320	
1474	0	34500	
1475	0	34560	
1476	0	34560	
1477	0	34520	
1478	0	34520	
1479	0	34608	
1480	0	34636	
1481	0	34520	
1482	0	34336	
1483	0	34184	
1484	0	34052	
1485	0	33980	
1486	0	33872	
1487	0	33724	
1488	0	33534	
1489	0	33400	
1490	0	33332	
1491	0	33378	
1492	0	33552	
1493	0	33724	
1494	0	33932	
1495	0	34076	
1496	0	33956	
1497	0	33688	
1498	0	33326	
1499	0	33092	
1500	0	32912	
1501	0	32660	
1502	0	32384	
1503	0	32242	
1504	0	31984	
1505	0	31728	
1506	0	31728	
1507	0	31738	
1508	0	31752	
1509	0	31620	
1510	0	31488	
1511	0	31488	
1512	0	31440	
1513	0	31388	
1514	0	31388	
1515	0	31424	
1516	0	31424	
1517	0	31274	
1518	0	31104	
1519	0	31080	
1520	0	31148	
1521	0	31272	
1522	0	31436	
1523	0	31572	
1524	0	31720	
1525	0	31852	
1526	0	31906	
1527	0	31880	
1528	0	31968	
1529	0	32020	
1530	0	32016	
1531	0	32024	
1532	0	32024	
1533	0	31952	
1534	0	31948	
1535	0	31992	
1536	0	32060	
1537	0	32040	
1538	0	31964	
1539	0	31944	
1540	0	32004	
1541	0	32064	
1542	0	32154	
1543	0	32304	
1544	0	32428	
1545	0	32436	
1546	0	32312	
1547	0	32088	
1548	0	31872	
1549	0	31724	
1550	0	31592	
1551	0	31288	
1552	0	30672	
1553	0	29664	
1554	0	28556	
1555	0	27500	
1556	0	26470	
1557	0	25504	
1558	0	24626	
1559	0	23872	
1560	0	23368	
1561	0	23060	
1562	0	22956	
1563	0	23072	
1564	0	23382	
1565	0	23788	
1566	0	24368	
1567	0	25420	
1568	0	27072	
1569	0	29252	
1570	0	31740	
1571	0	34440	
1572	0	37276	
1573	0	40096	
1574	0	43184	
1575	0	46676	
1576	0	50352	
1577	0	54384	
1578	0	58360	
1579	0	61340	
1580	0	62960	
1581	0	63792	
1582	0	64176	
1583	0	64324	
1584	0	64360	
1585	0	64304	
1586	0	64220	
1587	0	64132	
1588	0	64000	
1589	0	63900	
1590	0	56300	
1591	0	50016	
1592	0	45280	
1593	0	41200	
1594	0	37240	
1595	0	33848	
1596	0	31468	
1597	0	29844	
1598	0	28620	
1599	0	27324	
1600	0	25904	
1601	0	24488	
1602	0	22980	
1603	0	21852	
1604	0	21056	
1605	0	20494	
1606	0	20258	
1607	0	20106	
1608	0	20048	
1609	0	20076	
1610	0	20020	
1611	0	19930	
1612	0	19836	
1613	0	19900	
1614	0	20116	
1615	0	20412	
1616	0	20664	
1617	0	20812	
1618	0	21024	
1619	0	21268	
1620	0	21556	
1621	0	21940	
1622	0	22496	
1623	0	23196	
1624	0	23924	
1625	0	24620	
1626	0	25162	
1627	0	25672	
1628	0	26352	
1629	0	27148	
1630	0	27780	
1631	0	28314	
1632	0	28780	
1633	0	29132	
1634	0	29372	
1635	0	29536	
1636	0	29656	
1637	0	29748	
1638	0	29832	
1639	0	29952	
1640	0	30104	
1641	0	30264	
1642	0	30524	
1643	0	30836	
1644	0	31280	
1645	0	31680	
1646	0	31822	
1647	0	31916	
1648	0	31792	
1649	0	31536	
1650	0	31368	
1651	0	31180	
1652	0	31064	
1653	0	31088	
1654	0	31200	
1655	0	31314	
1656	0	31376	
1657	0	31464	
1658	0	31588	
1659	0	31660	
1660	0	31704	
1661	0	31776	
1662	0	31908	
1663	0	32068	
1664	0	32168	
1665	0	32248	
1666	0	32308	
1667	0	32360	
1668	0	32352	
1669	0	32416	
1670	0	32586	
1671	0	32736	
1672	0	32704	
1673	0	32548	
1674	0	32388	
1675	0	32360	
1676	0	32336	
1677	0	32236	
1678	0	32144	
1679	0	32188	
1680	0	32408	
1681	0	32704	
1682	0	32922	
1683	0	33024	
1684	0	33200	
1685	0	33296	
1686	0	33272	
1687	0	33296	
1688	0	33396	
1689	0	33464	
1690	0	33568	
1691	0	33788	
1692	0	33560	
1693	0	33164	
1694	0	32948	
1695	0	32848	
1696	0	32768	
1697	0	32880	
1698	0	33080	
1699	0	33252	
1700	0	33360	
1701	0	33472	
1702	0	33472	
1703	0	33440	
1704	0	33480	
1705	0	33616	
1706	0	33684	
1707	0	33672	
1708	0	33596	
1709	0	33488	
1710	0	33412	
1711	0	33384	
1712	0	33344	
1713	0	33316	
1714	0	33408	
1715	0	33464	
1716	0	33376	
1717	0	33276	
1718	0	33280	
1719	0	33364	
1720	0	33346	
1721	0	33296	
1722	0	33344	
1723	0	33456	
1724	0	33536	
1725	0	33564	
1726	0	33484	
1727	0	33448	
1728	0	33564	
1729	0	33680	
1730	0	33824	
1731	0	33968	
1732	0	33960	
1733	0	33808	
1734	0	33760	
1735	0	33836	
1736	0	34016	
1737	0	34168	
1738	0	34204	
1739	0	34144	
1740	0	33960	
1741	0	33788	
1742	0	33714	
1743	0	33636	
1744	0	33708	
1745	0	34020	
1746	0	34328	
1747	0	34616	
1748	0	34932	
1749	0	35040	
1750	0	35124	
1751	0	35184	
1752	0	35088	
1753	0	34816	
1754	0	34660	
1755	0	34616	
1756	0	34660	
1757	0	34728	
1758	0	34636	
1759	0	34628	
1760	0	34724	
1761	0	34840	
1762	0	34988	
1763	0	35100	
1764	0	35200	
1765	0	35188	
1766	0	35176	
1767	0	35348	
1768	0	35592	
1769	0	35588	
1770	0	35360	
1771	0	35104	
1772	0	35056	
1773	0	35106	
1774	0	35128	
1775	0	35208	
1776	0	35208	
1777	0	35140	
1778	0	35092	
1779	0	34940	
1780	0	34860	
1781	0	34784	
1782	0	34640	
1783	0	34644	
1784	0	34848	
1785	0	35224	
1786	0	35516	
1787	0	35552	
1788	0	35424	
1789	0	35316	
1790	0	35236	
1791	0	35172	
1792	0	35164	
1793	0	35288	
1794	0	35592	
1795	0	35842	
1796	0	35984	
1797	0	36076	
1798	0	35928	
1799	0	35768	
1800	0	35596	
1801	0	35504	
1802	0	35516	
1803	0	35520	
1804	0	35484	
1805	0	35448	
1806	0	35428	
1807	0	35476	
1808	0	35600	
1809	0	35584	
1810	0	35452	
1811	0	35320	
1812	0	35216	
1813	0	35074	
1814	0	34934	
1815	0	34892	
1816	0	34792	
1817	0	34784	
1818	0	34748	
1819	0	34732	
1820	0	34708	
1821	0	34712	
1822	0	34620	
1823	0	34416	
1824	0	34360	
1825	0	34212	
1826	0	33882	
1827	0	33580	
1828	0	33416	
1829	0	33374	
1830	0	33352	
1831	0	33248	
1832	0	33040	
1833	0	32834	
1834	0	32668	
1835	0	32532	
1836	0	32376	
1837	0	32216	
1838	0	32008	
1839	0	32028	
1840	0	32084	
1841	0	32156	
1842	0	32368	
1843	0	32692	
1844	0	32892	
1845	0	32846	
1846	0	32352	
1847	0	31680	
1848	0	31172	
1849	0	30852	
1850	0	30864	
1851	0	31136	
1852	0	31428	
1853	0	31552	
1854	0	31572	
1855	0	31428	
1856	0	30912	
1857	0	30432	
1858	0	30388	
1859	0	30576	
1860	0	30896	
1861	0	31072	
1862	0	31052	
1863	0	31148	
1864	0	31288	
1865	0	31364	
1866	0	31240	
1867	0	31004	
1868	0	30864	
1869	0	30836	
1870	0	30740	
1871	0	30522	
1872	0	30346	
1873	0	30160	
1874	0	30144	
1875	0	30224	
1876	0	30308	
1877	0	30252	
1878	0	30192	
1879	0	30140	
1880	0	30188	
1881	0	30388	
1882	0	30688	
1883	0	30790	
1884	0	30732	
1885	0	30564	
1886	0	30352	
1887	0	30192	
1888	0	30248	
1889	0	30424	
1890	0	30512	
1891	0	30652	
1892	0	30872	
1893	0	31116	
1894	0	31452	
1895	0	31776	
1896	0	31984	
1897	0	31968	
1898	0	31792	
1899	0	31474	
1900	0	31148	
1901	0	30996	
1902	0	31116	
1903	0	31416	
1904	0	31656	
1905	0	31596	
1906	0	31248	
1907	0	31046	
1908	0	30916	
1909	0	30700	
1910	0	30512	
1911	0	30220	
1912	0	30088	
1913	0	30388	
1914	0	30776	
1915	0	30976	
1916	0	31088	
1917	0	31236	
1918	0	31192	
1919	0	31008	
1920	0	30850	
1921	0	30864	
1922	0	31036	
1923	0	31192	
1924	0	31360	
1925	0	31640	
1926	0	31896	
1927	0	32008	
1928	0	32152	
1929	0	32176	
1930	0	31756	
1931	0	31260	
1932	0	30784	
1933	0	30362	
1934	0	30112	
1935	0	30144	
1936	0	30280	
1937	0	30464	
1938	0	30836	
1939	0	31216	
1940	0	31508	
1941	0	31592	
1942	0	31544	
1943	0	31600	
1944	0	31700	
1945	0	31712	
1946	0	31572	
1947	0	31324	
1948	0	31380	
1949	0	31676	
1950	0	31744	
1951	0	31506	
1952	0	31236	
1953	0	31028	
1954	0	31060	
1955	0	31312	
1956	0	31568	
1957	0	31704	
1958	0	31820	
1959	0	31880	
1960	0	31808	
1961	0	31796	
1962	0	31932	
1963	0	32152	
1964	0	32316	
1965	0	32204	
1966	0	31988	
1967	0	31788	
1968	0	31808	
1969	0	31994	
1970	0	32124	
1971	0	32220	
1972	0	32236	
1973	0	32232	
1974	0	32468	
1975	0	32932	
1976	0	33384	
1977	0	33508	
1978	0	33124	
1979	0	32436	
1980	0	31776	
1981	0	31552	
1982	0	31704	
1983	0	31784	
1984	0	31972	
1985	0	32332	
1986	0	32540	
1987	0	32608	
1988	0	32712	
1989	0	32862	
1990	0	32968	
1991	0	32840	
1992	0	32616	
1993	0	32492	
1994	0	32416	
1995	0	32408	
1996	0	32336	
1997	0	32044	
1998	0	31792	
1999	0	31776	
2000	0	31884	
2001	0	32128	
2002	0	32564	
2003	0	33012	
2004	0	33316	
2005	0	33264	
2006	0	33020	
2007	0	32888	
2008	0	33006	
2009	0	33176	
2010	0	33204	
2011	0	33136	
2012	0	32824	
2013	0	32640	
2014	0	32712	
2015	0	32712	
2016	0	32628	
2017	0	32416	
2018	0	32160	
2019	0	32228	
2020	0	32484	
2021	0	32700	
2022	0	32696	
2023	0	32524	
2024	0	32492	
2025	0	32792	
2026	0	33196	
2027	0	33316	
2028	0	33224	
2029	0	33044	
2030	0	32824	
2031	0	32708	
2032	0	32812	
2033	0	33020	
2034	0	33280	
2035	0	33336	
2036	0	33168	
2037	0	32980	
2038	0	32980	
2039	0	33196	
2040	0	33280	
2041	0	33248	
2042	0	33284	
2043	0	33234	
2044	0	33160	
2045	0	33084	
2046	0	32920	
2047	0	32908	
2048	0	33044	
2049	0	33256	
2050	0	33404	
2051	0	33416	
2052	0	33240	
2053	0	32864	
2054	0	32692	
2055	0	32928	
2056	0	33104	
2057	0	32906	
2058	0	32472	
2059	0	32360	
2060	0	32560	
2061	0	32880	
2062	0	33164	
2063	0	33128	
2064	0	32940	
2065	0	32816	
2066	0	32788	
2067	0	32820	
2068	0	32784	
2069	0	32638	
2070	0	32604	
2071	0	32668	
2072	0	32636	
2073	0	32608	
2074	0	32808	
2075	0	32964	
2076	0	32888	
2077	0	32768	
2078	0	32688	
2079	0	32612	
2080	0	32580	
2081	0	32620	
2082	0	32656	
2083	0	32664	
2084	0	32714	
2085	0	32924	
2086	0	32976	
2087	0	32884	
2088	0	32848	
2089	0	32752	
2090	0	32688	
2091	0	32728	
2092	0	32792	
2093	0	32880	
2094	0	33044	
2095	0	33168	
2096	0	33200	
2097	0	33242	
2098	0	33244	
2099	0	33256	
2100	0	33260	
2101	0	33120	
2102	0	32684	
2103	0	32092	
2104	0	31572	
2105	0	31400	
2106	0	31656	
2107	0	32172	
2108	0	32624	
2109	0	32644	
2110	0	32624	
2111	0	32592	
2112	0	32468	
2113	0	32334	
2114	0	32308	
2115	0	32316	
2116	0	32618	
2117	0	33084	
2118	0	33432	
2119	0	33492	
2120	0	33322	
2121	0	33040	
2122	0	32872	
2123	0	32720	
2124	0	32556	
2125	0	32368	
2126	0	32398	
2127	0	32732	
2128	0	33016	
2129	0	33160	
2130	0	33248	
2131	0	33236	
2132	0	32936	
2133	0	32392	
2134	0	31928	
2135	0	31850	
2136	0	32032	
2137	0	32308	
2138	0	32674	
2139	0	33092	
2140	0	33536	
2141	0	33948	
2142	0	34160	
2143	0	34056	
2144	0	33600	
2145	0	32992	
2146	0	32280	
2147	0	31748	
2148	0	31616	
2149	0	31612	
2150	0	31688	
2151	0	31872	
2152	0	32064	
2153	0	32184	
2154	0	32328	
2155	0	32520	
2156	0	32828	
2157	0	33136	
2158	0	33288	
2159	0	33380	
2160	0	33400	
2161	0	33340	
2162	0	33172	
2163	0	32904	
2164	0	32696	
2165	0	32592	
2166	0	32604	
2167	0	32490	
2168	0	32352	
2169	0	32288	
2170	0	32336	
2171	0	32568	
2172	0	32724	
2173	0	32722	
2174	0	32784	
2175	0	32916	
2176	0	32888	
2177	0	32768	
2178	0	32640	
2179	0	32588	
2180	0	32576	
2181	0	32668	
2182	0	32736	
2183	0	32672	
2184	0	32752	
2185	0	33132	
2186	0	33610	
2187	0	34052	
2188	0	34284	
2189	0	34140	
2190	0	34016	
2191	0	33818	
2192	0	33408	
2193	0	33040	
2194	0	32768	
2195	0	32700	
2196	0	32804	
2197	0	33044	
2198	0	33364	
2199	0	33600	
2200	0	33436	
2201	0	33152	
2202	0	33000	
2203	0	33000	
2204	0	33116	
2205	0	33264	
2206	0	33384	
2207	0	33408	
2208	0	33392	
2209	0	33392	
2210	0	33676	
2211	0	34320	
2212	0	34984	
2213	0	35454	
2214	0	35720	
2215	0	35840	
2216	0	35748	
2217	0	35712	
2218	0	35924	
2219	0	36072	
2220	0	36176	
2221	0	36156	
2222	0	36044	
2223	0	35928	
2224	0	35816	
2225	0	35846	
2226	0	35926	
2227	0	35960	
2228	0	35936	
2229	0	35976	
2230	0	36020	
2231	0	35904	
2232	0	35724	
2233	0	35576	
2234	0	35616	
2235	0	35692	
2236	0	35708	
2237	0	35652	
2238	0	35640	
2239	0	35760	
2240	0	35880	
2241	0	35880	
2242	0	35834	
2243	0	35848	
2244	0	35746	
2245	0	35536	
2246	0	35180	
2247	0	34804	
2248	0	34440	
2249	0	34088	
2250	0	33792	
2251	0	33468	
2252	0	33028	
2253	0	32682	
2254	0	32516	
2255	0	32436	
2256	0	32360	
2257	0	32372	
2258	0	32416	
2259	0	32456	
2260	0	32376	
2261	0	32224	
2262	0	32136	
2263	0	32152	
2264	0	32168	
2265	0	32060	
2266	0	31892	
2267	0	31652	
2268	0	31400	
2269	0	31196	
2270	0	30996	
2271	0	30856	
2272	0	30896	
2273	0	31004	
2274	0	31060	
2275	0	31164	
2276	0	31292	
2277	0	31290	
2278	0	31244	
2279	0	31280	
2280	0	31520	
2281	0	31808	
2282	0	31976	
2283	0	31960	
2284	0	31872	
2285	0	31752	
2286	0	31632	
2287	0	31532	
2288	0	31428	
2289	0	31392	
2290	0	31320	
2291	0	31232	
2292	0	31248	
2293	0	31336	
2294	0	31396	
2295	0	31460	
2296	0	31624	
2297	0	31792	
2298	0	32018	
2299	0	32056	
2300	0	31964	
2301	0	31896	
2302	0	31862	
2303	0	31812	
2304	0	31688	
2305	0	31540	
2306	0	31520	
2307	0	31540	
2308	0	31520	
2309	0	31420	
2310	0	31280	
2311	0	31024	
2312	0	30596	
2313	0	29856	
2314	0	28912	
2315	0	27984	
2316	0	27092	
2317	0	26328	
2318	0	25576	
2319	0	24864	
2320	0	24382	
2321	0	24044	
2322	0	23776	
2323	0	23744	
2324	0	24096	
2325	0	24608	
2326	0	25120	
2327	0	25836	
2328	0	27028	
2329	0	28664	
2330	0	30764	
2331	0	33384	
2332	0	36216	
2333	0	39052	
2334	0	41776	
2335	0	44688	
2336	0	47962	
2337	0	51424	
2338	0	55120	
2339	0	58756	
2340	0	61496	
2341	0	62964	
2342	0	63716	
2343	0	64072	
2344	0	64200	
2345	0	64208	
2346	0	64176	
2347	0	64088	
2348	0	63972	
2349	0	63864	
2350	0	58804	
2351	0	51208	
2352	0	45140	
2353	0	40384	
2354	0	36320	
2355	0	32744	
2356	0	30016	
2357	0	28428	
2358	0	27620	
2359	0	26868	
2360	0	25984	
2361	0	24904	
2362	0	23780	
2363	0	22418	
2364	0	21080	
2365	0	20176	
2366	0	19696	
2367	0	19500	
2368	0	19424	
2369	0	19414	
2370	0	19357	
2371	0	19100	
2372	0	18912	
2373	0	18918	
2374	0	19174	
2375	0	19564	
2376	0	20002	
2377	0	20316	
2378	0	20512	
2379	0	20690	
2380	0	20954	
2381	0	21280	
2382	0	21732	
2383	0	22244	
2384	0	22950	
2385	0	23828	
2386	0	24548	
2387	0	25112	
2388	0	25592	
2389	0	26096	
2390	0	26632	
2391	0	27204	
2392	0	27834	
2393	0	28410	
2394	0	28976	
2395	0	29530	
2396	0	30060	
2397	0	30556	
2398	0	30820	
2399	0	31004	
2400	0	31130	
2401	0	31280	
2402	0	31496	
2403	0	31704	
2404	0	31760	
2405	0	31642	
2406	0	31504	
2407	0	31564	
2408	0	31676	
2409	0	31588	
2410	0	31436	
2411	0	31452	
2412	0	31592	
2413	0	31688	
2414	0	31764	
2415	0	31860	
2416	0	31940	
2417	0	32056	
2418	0	32300	
2419	0	32524	
2420	0	32656	
2421	0	32604	
2422	0	32490	
2423	0	32440	
2424	0	32484	
2425	0	32580	
2426	0	32720	
2427	0	32972	
2428	0	33336	
2429	0	33484	
2430	0	33292	
2431	0	32904	
2432	0	32548	
2433	0	32536	
2434	0	32728	
2435	0	33020	
2436	0	33236	
2437	0	33156	
2438	0	33100	
2439	0	33178	
2440	0	33312	
2441	0	33336	
2442	0	33300	
2443	0	33292	
2444	0	33328	
2445	0	33264	
2446	0	33168	
2447	0	33216	
2448	0	33480	
2449	0	33796	
2450	0	33976	
2451	0	34068	
2452	0	34016	
2453	0	33964	
2454	0	33976	
2455	0	34004	
2456	0	34008	
2457	0	34012	
2458	0	34024	
2459	0	33984	
2460	0	33868	
2461	0	33752	
2462	0	33576	
2463	0	33508	
2464	0	33492	
2465	0	33496	
2466	0	33556	
2467	0	33608	
2468	0	33700	
2469	0	33848	
2470	0	33940	
2471	0	33940	
2472	0	33888	
2473	0	33978	
2474	0	34192	
2475	0	34432	
2476	0	34704	
2477	0	34792	
2478	0	34688	
2479	0	34410	
2480	0	34244	
2481	0	34196	
2482	0	34280	
2483	0	34476	
2484	0	34656	
2485	0	34696	
2486	0	34556	
2487	0	34400	
2488	0	34348	
2489	0	34428	
2490	0	34466	
2491	0	34448	
2492	0	34564	
2493	0	34756	
2494	0	34960	
2495	0	35028	
2496	0	35160	
2497	0	35264	
2498	0	35200	
2499	0	35184	
2500	0	35272	
2501	0	35354	
2502	0	35368	
2503	0	35392	
2504	0	35340	
2505	0	35284	
2506	0	35352	
2507	0	35296	
2508	0	35136	
2509	0	35020	
2510	0	35044	
2511	0	35156	
2512	0	35228	
2513	0	35248	
2514	0	35260	
2515	0	35276	
2516	0	35248	
2517	0	35344	
2518	0	35388	
2519	0	35320	
2520	0	35240	
2521	0	35216	
2522	0	35288	
2523	0	35356	
2524	0	35396	
2525	0	35392	
2526	0	35492	
2527	0	35720	
2528	0	35988	
2529	0	36232	
2530	0	36440	
2531	0	36356	
2532	0	36088	
2533	0	35824	
2534	0	35616	
2535	0	35532	
2536	0	35580	
2537	0	35696	
2538	0	35840	
2539	0	35996	
2540	0	36112	
2541	0	36148	
2542	0	36056	
2543	0	35892	
2544	0	35716	
2545	0	35612	
2546	0	35616	
2547	0	35636	
2548	0	35712	
2549	0	35744	
2550	0	35736	
2551	0	35692	
2552	0	35600	
2553	0	35548	
2554	0	35588	
2555	0	35528	
2556	0	35424	
2557	0	35304	
2558	0	35232	
2559	0	35284	
2560	0	35348	
2561	0	35444	
2562	0	35704	
2563	0	35966	
2564	0	36010	
2565	0	35978	
2566	0	35952	
2567	0	35688	
2568	0	35268	
2569	0	35112	
2570	0	35136	
2571	0	35236	
2572	0	35360	
2573	0	35404	
2574	0	35248	
2575	0	34960	
2576	0	34576	
2577	0	34272	
2578	0	34116	
2579	0	34072	
2580	0	34064	
2581	0	34004	
2582	0	33868	
2583	0	33668	
2584	0	33524	
2585	0	33440	
2586	0	33400	
2587	0	33432	
2588	0	33504	
2589	0	33512	
2590	0	33378	
2591	0	33106	
2592	0	32868	
2593	0	32784	
2594	0	32812	
2595	0	32836	
2596	0	32816	
2597	0	32676	
2598	0	32420	
2599	0	32244	
2600	0	32184	
2601	0	32140	
2602	0	32048	
2603	0	32000	
2604	0	32044	
2605	0	32080	
2606	0	32072	
2607	0	32056	
2608	0	32016	
2609	0	31924	
2610	0	31904	
2611	0	31980	
2612	0	31968	
2613	0	31808	
2614	0	31576	
2615	0	31330	
2616	0	31172	
2617	0	31152	
2618	0	31184	
2619	0	31192	
2620	0	31168	
2621	0	31200	
2622	0	31288	
2623	0	31360	
2624	0	31304	
2625	0	31200	
2626	0	31184	
2627	0	31168	
2628	0	31112	
2629	0	31002	
2630	0	31004	
2631	0	31136	
2632	0	31184	
2633	0	31152	
2634	0	31080	
2635	0	30924	
2636	0	30836	
2637	0	30932	
2638	0	31104	
2639	0	31200	
2640	0	31156	
2641	0	31048	
2642	0	30912	
2643	0	30828	
2644	0	30800	
2645	0	30812	
2646	0	30860	
2647	0	30972	
2648	0	31164	
2649	0	31384	
2650	0	31468	
2651	0	31388	
2652	0	31260	
2653	0	31108	
2654	0	30958	
2655	0	30896	
2656	0	30888	
2657	0	30964	
2658	0	31040	
2659	0	31024	
2660	0	30920	
2661	0	30880	
2662	0	30996	
2663	0	31200	
2664	0	31308	
2665	0	31392	
2666	0	31440	
2667	0	31452	
2668	0	31400	
2669	0	31344	
2670	0	31376	
2671	0	31400	
2672	0	31368	
2673	0	31328	
2674	0	31320	
2675	0	31336	
2676	0	31288	
2677	0	31272	
2678	0	31272	
2679	0	31236	
2680	0	31168	
2681	0	31136	
2682	0	31200	
2683	0	31336	
2684	0	31468	
2685	0	31564	
2686	0	31588	
2687	0	31552	
2688	0	31464	
2689	0	31396	
2690	0	31362	
2691	0	31400	
2692	0	31356	
2693	0	31288	
2694	0	31280	
2695	0	31320	
2696	0	31340	
2697	0	31408	
2698	0	31560	
2699	0	31732	
2700	0	31736	
2701	0	31672	
2702	0	31650	
2703	0	31680	
2704	0	31748	
2705	0	31864	
2706	0	31996	
2707	0	32040	
2708	0	31980	
2709	0	31840	
2710	0	31712	
2711	0	31684	
2712	0	31700	
2713	0	31756	
2714	0	31786	
2715	0	31812	
2716	0	31896	
2717	0	31980	
2718	0	32116	
2719	0	32212	
2720	0	32276	
2721	0	32328	
2722	0	32300	
2723	0	32280	
2724	0	32276	
2725	0	32268	
2726	0	32228	
2727	0	32252	
2728	0	32232	
2729	0	32194	
2730	0	32220	
2731	0	32280	
2732	0	32320	
2733	0	32344	
2734	0	32396	
2735	0	32460	
2736	0	32504	
2737	0	32552	
2738	0	32676	
2739	0	32776	
2740	0	32784	
2741	0	32748	
2742	0	32724	
2743	0	32684	
2744	0	32672	
2745	0	32712	
2746	0	32776	
2747	0	32832	
2748	0	32968	
2749	0	33088	
2750	0	33208	
2751	0	33268	
2752	0	33238	
2753	0	33092	
2754	0	32980	
2755	0	32928	
2756	0	32936	
2757	0	32988	
2758	0	33068	
2759	0	33176	
2760	0	33268	
2761	0	33316	
2762	0	33360	
2763	0	33368	
2764	0	33280	
2765	0	33140	
2766	0	33096	
2767	0	33104	
2768	0	33168	
2769	0	33216	
2770	0	33148	
2771	0	32984	
2772	0	32892	
2773	0	32928	
2774	0	33024	
2775	0	33124	
2776	0	33292	
2777	0	33436	
2778	0	33428	
2779	0	33316	
2780	0	33256	
2781	0	33176	
2782	0	33048	
2783	0	32980	
2784	0	32976	
2785	0	33020	
2786	0	33056	
2787	0	33080	
2788	0	33044	
2789	0	32972	
2790	0	32952	
2791	0	32976	
2792	0	33076	
2793	0	33192	
2794	0	33232	
2795	0	33248	
2796	0	33264	
2797	0	33292	
2798	0	33340	
2799	0	33348	
2800	0	33324	
2801	0	33264	
2802	0	33272	
2803	0	33248	
2804	0	33192	
2805	0	33144	
2806	0	33116	
2807	0	33100	
2808	0	33060	
2809	0	32994	
2810	0	32932	
2811	0	32924	
2812	0	32922	
2813	0	32940	
2814	0	32904	
2815	0	32916	
2816	0	32976	
2817	0	33060	
2818	0	33136	
2819	0	33260	
2820	0	33360	
2821	0	33400	
2822	0	33356	
2823	0	33244	
2824	0	33108	
2825	0	33016	
2826	0	32976	
2827	0	32948	
2828	0	32890	
2829	0	32848	
2830	0	32852	
2831	0	32816	
2832	0	32774	
2833	0	32752	
2834	0	32704	
2835	0	32668	
2836	0	32672	
2837	0	32708	
2838	0	32692	
2839	0	32632	
2840	0	32620	
2841	0	32644	
2842	0	32664	
2843	0	32676	
2844	0	32732	
2845	0	32816	
2846	0	32864	
2847	0	32860	
2848	0	32816	
2849	0	32824	
2850	0	32898	
2851	0	33040	
2852	0	33136	
2853	0	33112	
2854	0	33032	
2855	0	32960	
2856	0	32872	
2857	0	32762	
2858	0	32620	
2859	0	32488	
2860	0	32400	
2861	0	32380	
2862	0	32428	
2863	0	32468	
2864	0	32436	
2865	0	32424	
2866	0	32436	
2867	0	32440	
2868	0	32440	
2869	0	32528	
2870	0	32664	
2871	0	32796	
2872	0	32864	
2873	0	32928	
2874	0	32908	
2875	0	32872	
2876	0	32868	
2877	0	32900	
2878	0	32988	
2879	0	33068	
2880	0	33128	
2881	0	33204	
2882	0	33272	
2883	0	33366	
2884	0	33468	
2885	0	33564	
2886	0	33582	
2887	0	33560	
2888	0	33520	
2889	0	33516	
2890	0	33516	
2891	0	33544	
2892	0	33580	
2893	0	33620	
2894	0	33724	
2895	0	33828	
2896	0	33852	
2897	0	33776	
2898	0	33696	
2899	0	33664	
2900	0	33640	
2901	0	33608	
2902	0	33682	
2903	0	33896	
2904	0	34204	
2905	0	34580	
2906	0	34952	
2907	0	35352	
2908	0	35740	
2909	0	36064	
2910	0	36268	
2911	0	36424	
2912	0	36572	
2913	0	36700	
2914	0	36720	
2915	0	36656	
2916	0	36576	
2917	0	36576	
2918	0	36604	
2919	0	36544	
2920	0	36448	
2921	0	36384	
2922	0	36296	
2923	0	36176	
2924	0	36124	
2925	0	36112	
2926	0	36056	
2927	0	36044	
2928	0	36036	
2929	0	36020	
2930	0	36028	
2931	0	35996	
2932	0	35980	
2933	0	35984	
2934	0	35960	
2935	0	35828	
2936	0	35656	
2937	0	35488	
2938	0	35292	
2939	0	35072	
2940	0	34864	
2941	0	34688	
2942	0	34456	
2943	0	34120	
2944	0	33692	
2945	0	33228	
2946	0	32812	
2947	0	32450	
2948	0	32160	
2949	0	31900	
2950	0	31704	
2951	0	31536	
2952	0	31450	
2953	0	31488	
2954	0	31556	
2955	0	31620	
2956	0	31668	
2957	0	31708	
2958	0	31664	
2959	0	31564	
2960	0	31428	
2961	0	31276	
2962	0	31106	
2963	0	30960	
2964	0	30884	
2965	0	30836	
2966	0	30780	
2967	0	30724	
2968	0	30712	
2969	0	30736	
2970	0	30780	
2971	0	30812	
2972	0	30852	
2973	0	30884	
2974	0	30924	
2975	0	30984	
2976	0	31082	
2977	0	31220	
2978	0	31280	
2979	0	31296	
2980	0	31252	
2981	0	31208	
2982	0	31188	
2983	0	31172	
2984	0	31136	
2985	0	31080	
2986	0	31048	
2987	0	31032	
2988	0	31032	
2989	0	31016	
2990	0	30988	
2991	0	30964	
2992	0	31012	
2993	0	31096	
2994	0	31160	
2995	0	31210	
2996	0	31344	
2997	0	31504	
2998	0	31660	
2999	0	31736	
3000	0	31720	
3001	0	31688	
3002	0	31664	
3003	0	31616	
3004	0	31532	
3005	0	31332	
3006	0	31104	
3007	0	30700	
3008	0	29908	
3009	0	28804	
3010	0	27692	
3011	0	26564	
3012	0	25464	
3013	0	24444	
3014	0	23532	
3015	0	22864	
3016	0	22492	
3017	0	22252	
3018	0	22168	
3019	0	22324	
3020	0	22708	
3021	0	23212	
3022	0	23948	
3023	0	25152	
3024	0	26914	
3025	0	29160	
3026	0	31768	
3027	0	34556	
3028	0	37508	
3029	0	40620	
3030	0	44104	
3031	0	47984	
3032	0	52032	
3033	0	56328	
3034	0	59944	
3035	0	61984	
3036	0	63020	
3037	0	63544	
3038	0	63764	
3039	0	63840	
3040	0	63828	
3041	0	63744	
3042	0	63672	
3043	0	63552	
3044	0	63456	
3045	0	62192	
3046	0	54840	
3047	0	48936	
3048	0	44256	
3049	0	40032	
3050	0	36140	
3051	0	32984	
3052	0	30664	
3053	0	28954	
3054	0	27436	
3055	0	25800	
3056	0	24054	
3057	0	22562	
3058	0	21570	
3059	0	20828	
3060	0	20226	
3061	0	19836	
3062	0	19664	
3063	0	19488	
3064	0	19172	
3065	0	18874	
3066	0	18816	
3067	0	19063	
3068	0	19456	
3069	0	19840	
3070	0	20038	
3071	0	20097	
3072	0	20308	
3073	0	20608	
3074	0	21080	
3075	0	21652	
3076	0	22344	
3077	0	23072	
3078	0	23722	
3079	0	24352	
3080	0	24984	
3081	0	25660	
3082	0	26268	
3083	0	26912	
3084	0	27576	
3085	0	28200	
3086	0	28696	
3087	0	29076	
3088	0	29372	
3089	0	29596	
3090	0	29768	
3091	0	29928	
3092	0	29992	
3093	0	30040	
3094	0	30088	
3095	0	30156	
3096	0	30220	
3097	0	30288	
3098	0	30372	
3099	0	30468	
3100	0	30594	
3101	0	30680	
3102	0	30740	
3103	0	30856	
3104	0	30992	
3105	0	31108	
3106	0	31180	
3107	0	31216	
3108	0	31224	
3109	0	31248	
3110	0	31300	
3111	0	31364	
3112	0	31436	
3113	0	31504	
3114	0	31584	
3115	0	31650	
3116	0	31708	
3117	0	31812	
3118	0	31892	
3119	0	31936	
3120	0	31924	
3121	0	31928	
3122	0	31976	
3123	0	32040	
3124	0	32092	
3125	0	32156	
3126	0	32232	
3127	0	32234	
3128	0	32216	
3129	0	32216	
3130	0	32280	
3131	0	32324	
3132	0	32320	
3133	0	32352	
3134	0	32436	
3135	0	32584	
3136	0	32720	
3137	0	32794	
3138	0	32832	
3139	0	32864	
3140	0	32888	
3141	0	32900	
3142	0	32866	
3143	0	32868	
3144	0	32860	
3145	0	32908	
3146	0	33008	
3147	0	33100	
3148	0	33160	
3149	0	33180	
3150	0	33188	
3151	0	33132	
3152	0	33072	
3153	0	33068	
3154	0	33040	
3155	0	33056	
3156	0	33108	
3157	0	33280	
3158	0	33392	
3159	0	33434	
3160	0	33460	
3161	0	33484	
3162	0	33496	
3163	0	33512	
3164	0	33560	
3165	0	33632	
3166	0	33664	
3167	0	33680	
3168	0	33704	
3169	0	33716	
3170	0	33712	
3171	0	33728	
3172	0	33776	
3173	0	33824	
3174	0	33836	
3175	0	33852	
3176	0	33852	
3177	0	33832	
3178	0	33800	
3179	0	33764	
3180	0	33768	
3181	0	33816	
3182	0	33848	
3183	0	33820	
3184	0	33784	
3185	0	33728	
3186	0	33732	
3187	0	33780	
3188	0	33792	
3189	0	33768	
3190	0	33780	
3191	0	33820	
3192	0	33884	
3193	0	33920	
3194	0	33964	
3195	0	34016	
3196	0	34060	
3197	0	34128	
3198	0	34180	
3199	0	34256	
3200	0	34324	
3201	0	34388	
3202	0	34460	
3203	0	34464	
3204	0	34418	
3205	0	34372	
3206	0	34300	
3207	0	34208	
3208	0	34220	
3209	0	34260	
3210	0	34264	
3211	0	34266	
3212	0	34264	
3213	0	34272	
3214	0	34244	
3215	0	34236	
3216	0	34252	
3217	0	34256	
3218	0	34272	
3219	0	34300	
3220	0	34374	
3221	0	34424	
3222	0	34464	
3223	0	34516	
3224	0	34600	
3225	0	34692	
3226	0	34764	
3227	0	34820	
3228	0	34848	
3229	0	34848	
3230	0	34860	
3231	0	34864	
3232	0	34856	
3233	0	34808	
3234	0	34780	
3235	0	34748	
3236	0	34756	
3237	0	34792	
3238	0	34820	
3239	0	34836	
3240	0	34832	
3241	0	34832	
3242	0	34840	
3243	0	34848	
3244	0	34848	
3245	0	34856	
3246	0	34792	
3247	0	34760	
3248	0	34736	
3249	0	34752	
3250	0	34748	
3251	0	34700	
3252	0	34636	
3253	0	34584	
3254	0	34584	
3255	0	34648	
3256	0	34684	
3257	0	34670	
3258	0	34652	
3259	0	34656	
3260	0	34652	
3261	0	34656	
3262	0	34628	
3263	0	34576	
3264	0	34552	
3265	0	34564	
3266	0	34548	
3267	0	34476	
3268	0	34436	
3269	0	34432	
3270	0	34416	
3271	0	34376	
3272	0	34300	
3273	0	34176	
3274	0	34048	
3275	0	33904	
3276	0	33740	
3277	0	33568	
3278	0	33444	
3279	0	33356	
3280	0	33272	
3281	0	33152	
3282	0	33144	
3283	0	33172	
3284	0	33184	
3285	0	33244	
3286	0	33256	
3287	0	33188	
3288	0	33096	
3289	0	33064	
3290	0	33008	
3291	0	32968	
3292	0	32904	
3293	0	32828	
3294	0	32792	
3295	0	32740	
3296	0	32664	
3297	0	32580	
3298	0	32484	
3299	0	32360	
3300	0	32272	
3301	0	32244	
3302	0	32220	
3303	0	32112	
3304	0	32020	
3305	0	31976	
3306	0	31928	
3307	0	31888	
3308	0	31872	
3309	0	31876	
3310	0	31804	
3311	0	31712	
3312	0	31664	
3313	0	31628	
3314	0	31548	
3315	0	31440	
3316	0	31328	
3317	0	31256	
3318	0	31276	
3319	0	31316	
3320	0	31364	
3321	0	31344	
3322	0	31272	
3323	0	31296	
3324	0	31360	
3325	0	31388	
3326	0	31424	
3327	0	31440	
3328	0	31440	
3329	0	31420	
3330	0	31392	
3331	0	31352	
3332	0	31300	
3333	0	31308	
3334	0	31320	
3335	0	31336	
3336	0	31384	
3337	0	31396	
3338	0	31388	
3339	0	31356	
3340	0	31324	
3341	0	31350	
3342	0	31352	
3343	0	31396	
3344	0	31480	
3345	0	31530	
3346	0	31528	
3347	0	31492	
3348	0	31492	
3349	0	31552	
3350	0	31560	
3351	0	31530	
3352	0	31520	
3353	0	31496	
3354	0	31480	
3355	0	31520	
3356	0	31544	
3357	0	31568	
3358	0	31616	
3359	0	31628	
3360	0	31644	
3361	0	31660	
3362	0	31680	
3363	0	31732	
3364	0	31728	
3365	0	31688	
3366	0	31676	
3367	0	31704	
3368	0	31720	
3369	0	31712	
3370	0	31700	
3371	0	31676	
3372	0	31652	
3373	0	31616	
3374	0	31596	
3375	0	31524	
3376	0	31440	
3377	0	31416	
3378	0	31416	
3379	0	31440	
3380	0	31476	
3381	0	31524	
3382	0	31572	
3383	0	31600	
3384	0	31632	
3385	0	31648	
3386	0	31656	
3387	0	31724	
3388	0	31754	
3389	0	31750	
3390	0	31740	
3391	0	31804	
3392	0	31868	
3393	0	31904	
3394	0	31960	
3395	0	32020	
3396	0	32096	
3397	0	32140	
3398	0	32144	
3399	0	32128	
3400	0	32096	
3401	0	32028	
3402	0	31952	
3403	0	31920	
3404	0	31924	
3405	0	31896	
3406	0	31872	
3407	0	31866	
3408	0	31916	
3409	0	32008	
3410	0	32096	
3411	0	32140	
3412	0	32156	
3413	0	32234	
3414	0	32308	
3415	0	32344	
3416	0	32376	
3417	0	32408	
3418	0	32384	
3419	0	32404	
3420	0	32424	
3421	0	32448	
3422	0	32428	
3423	0	32416	
3424	0	32448	
3425	0	32432	
3426	0	32424	
3427	0	32456	
3428	0	32468	
3429	0	32500	
3430	0	32524	
3431	0	32552	
3432	0	32576	
3433	0	32616	
3434	0	32640	
3435	0	32626	
3436	0	32608	
3437	0	32592	
3438	0	32632	
3439	0	32664	
3440	0	32664	
3441	0	32656	
3442	0	32640	
3443	0	32630	
3444	0	32608	
3445	0	32616	
3446	0	32634	
3447	0	32668	
3448	0	32688	
3449	0	32692	
3450	0	32720	
3451	0	32760	
3452	0	32820	
3453	0	32872	
3454	0	32876	
3455	0	32874	
3456	0	32900	
3457	0	32928	
3458	0	32936	
3459	0	32956	
3460	0	33004	
3461	0	33056	
3462	0	33072	
3463	0	33084	
3464	0	33100	
3465	0	33072	
3466	0	33048	
3467	0	33056	
3468	0	33076	
3469	0	33080	
3470	0	33048	
3471	0	32996	
3472	0	32980	
3473	0	32960	
3474	0	32892	
3475	0	32832	
3476	0	32784	
3477	0	32760	
3478	0	32796	
3479	0	32788	
3480	0	32744	
3481	0	32732	
3482	0	32720	
3483	0	32720	
3484	0	32724	
3485	0	32704	
3486	0	32744	
3487	0	32826	
3488	0	32912	
3489	0	32976	
3490	0	32964	
3491	0	32948	
3492	0	32960	
3493	0	32972	
3494	0	33032	
3495	0	33040	
3496	0	33008	
3497	0	32956	
3498	0	32872	
3499	0	32760	
3500	0	32704	
3501	0	32716	
3502	0	32724	
3503	0	32756	
3504	0	32808	
3505	0	32826	
3506	0	32772	
3507	0	32680	
3508	0	32604	
3509	0	32628	
3510	0	32684	
3511	0	32716	
3512	0	32720	
3513	0	32696	
3514	0	32704	
3515	0	32730	
3516	0	32796	
3517	0	32832	
3518	0	32860	
3519	0	32860	
3520	0	32808	
3521	0	32740	
3522	0	32668	
3523	0	32618	
3524	0	32592	
3525	0	32588	
3526	0	32576	
3527	0	32568	
3528	0	32556	
3529	0	32540	
3530	0	32528	
3531	0	32576	
3532	0	32648	
3533	0	32704	
3534	0	32800	
3535	0	32836	
3536	0	32820	
3537	0	32818	
3538	0	32820	
3539	0	32780	
3540	0	32728	
3541	0	32696	
3542	0	32680	
3543	0	32672	
3544	0	32648	
3545	0	32648	
3546	0	32640	
3547	0	32652	
3548	0	32656	
3549	0	32608	
3550	0	32516	
3551	0	32442	
3552	0	32400	
3553	0	32380	
3554	0	32416	
3555	0	32440	
3556	0	32452	
3557	0	32456	
3558	0	32436	
3559	0	32404	
3560	0	32416	
3561	0	32464	
3562	0	32492	
3563	0	32512	
3564	0	32508	
3565	0	32532	
3566	0	32560	
3567	0	32596	
3568	0	32584	
3569	0	32556	
3570	0	32522	
3571	0	32534	
3572	0	32592	
3573	0	32596	
3574	0	32580	
3575	0	32556	
3576	0	32544	
3577	0	32544	
3578	0	32546	
3579	0	32548	
3580	0	32560	
3581	0	32544	
3582	0	32496	
3583	0	32480	
3584	0	32488	
3585	0	32476	
3586	0	32476	
3587	0	32468	
3588	0	32460	
3589	0	32464	
3590	0	32500	
3591	0	32540	
3592	0	32592	
3593	0	32612	
3594	0	32612	
3595	0	32634	
3596	0	32652	
3597	0	32672	
3598	0	32724	
3599	0	32732	
3600	0	32732	
3601	0	32744	
3602	0	32740	
3603	0	32756	
3604	0	32780	
3605	0	32872	
3606	0	32940	
3607	0	32976	
3608	0	33016	
3609	0	33056	
3610	0	33140	
3611	0	33236	
3612	0	33312	
3613	0	33356	
3614	0	33390	
3615	0	33428	
3616	0	33492	
3617	0	33596	
3618	0	33668	
3619	0	33708	
3620	0	33764	
3621	0	33788	
3622	0	33756	
3623	0	33720	
3624	0	33688	
3625	0	33712	
3626	0	33740	
3627	0	33796	
3628	0	33888	
3629	0	33952	
3630	0	33972	
3631	0	33976	
3632	0	33952	
3633	0	33952	
3634	0	34040	
3635	0	34224	
3636	0	34444	
3637	0	34700	
3638	0	34980	
3639	0	35344	
3640	0	35720	
3641	0	35984	
3642	0	36140	
3643	0	36208	
3644	0	36280	
3645	0	36328	
3646	0	36360	
3647	0	36360	
3648	0	36352	
3649	0	36360	
3650	0	36360	
3651	0	36324	
3652	0	36304	
3653	0	36264	
3654	0	36204	
3655	0	36160	
3656	0	36104	
3657	0	36036	
3658	0	36000	
3659	0	35980	
3660	0	35984	
3661	0	35992	
3662	0	35960	
3663	0	35960	
3664	0	35976	
3665	0	35994	
3666	0	35920	
3667	0	35846	
3668	0	35728	
3669	0	35584	
3670	0	35392	
3671	0	35200	
3672	0	34976	
3673	0	34704	
3674	0	34420	
3675	0	34064	
3676	0	33636	
3677	0	33200	
3678	0	32828	
3679	0	32464	
3680	0	32156	
3681	0	31956	
3682	0	31820	
3683	0	31712	
3684	0	31644	
3685	0	31616	
3686	0	31620	
3687	0	31636	
3688	0	31640	
3689	0	31596	
3690	0	31512	
3691	0	31404	
3692	0	31314	
3693	0	31216	
3694	0	31132	
3695	0	31024	
3696	0	30992	
3697	0	30944	
3698	0	30932	
3699	0	30936	
3700	0	30936	
3701	0	30908	
3702	0	30880	
3703	0	30824	
3704	0	30772	
3705	0	30754	
3706	0	30744	
3707	0	30720	
3708	0	30720	
3709	0	30700	
3710	0	30708	
3711	0	30720	
3712	0	30796	
3713	0	30896	
3714	0	30988	
3715	0	31032	
3716	0	31024	
3717	0	31012	
3718	0	30976	
3719	0	30940	
3720	0	30940	
3721	0	30956	
3722	0	30952	
3723	0	31008	
3724	0	31068	
3725	0	31132	
3726	0	31152	
3727	0	31144	
3728	0	31116	
3729	0	31092	
3730	0	31060	
3731	0	31016	
3732	0	31000	
3733	0	31032	
3734	0	31004	
3735	0	30940	
3736	0	30812	
3737	0	30612	
3738	0	30332	
3739	0	29808	
3740	0	28916	
3741	0	27852	
3742	0	26700	
3743	0	25532	
3744	0	24456	
3745	0	23476	
3746	0	22674	
3747	0	22104	
3748	0	21680	
3749	0	21484	
3750	0	21552	
3751	0	21880	
3752	0	22360	
3753	0	22894	
3754	0	23876	
3755	0	25420	
3756	0	27472	
3757	0	29900	
3758	0	32566	
3759	0	35608	
3760	0	38884	
3761	0	42448	
3762	0	46468	
3763	0	50676	
3764	0	55108	
3765	0	59156	
3766	0	61604	
3767	0	62892	
3768	0	63532	
3769	0	63832	
3770	0	63936	
3771	0	63920	
3772	0	63884	
3773	0	63784	
3774	0	63684	
3775	0	63564	
3776	0	63464	
3777	0	61124	
3778	0	54660	
3779	0	49664	
3780	0	45608	
3781	0	41752	
3782	0	38084	
3783	0	35004	
3784	0	32548	
3785	0	30380	
3786	0	28116	
3787	0	25918	
3788	0	24260	
3789	0	23052	
3790	0	22184	
3791	0	21524	
3792	0	21088	
3793	0	20724	
3794	0	20320	
3795	0	19866	
3796	0	19596	
3797	0	19508	
3798	0	19604	
3799	0	19888	
3800	0	20170	
3801	0	20324	
3802	0	20466	
3803	0	20650	
3804	0	21018	
3805	0	21485	
3806	0	22000	
3807	0	22508	
3808	0	23024	
3809	0	23608	
3810	0	24172	
3811	0	24740	
3812	0	25376	
3813	0	26020	
3814	0	26604	
3815	0	27088	
3816	0	27548	
3817	0	27948	
3818	0	28292	
3819	0	28594	
3820	0	28872	
3821	0	29092	
3822	0	29248	
3823	0	29364	
3824	0	29452	
3825	0	29520	
3826	0	29588	
3827	0	29660	
3828	0	29736	
3829	0	29786	
3830	0	29830	
3831	0	29908	
3832	0	30028	
3833	0	30144	
3834	0	30228	
3835	0	30312	
3836	0	30368	
3837	0	30376	
3838	0	30396	
3839	0	30452	
3840	0	30508	
3841	0	30590	
3842	0	30680	
3843	0	30780	
3844	0	30882	
3845	0	30968	
3846	0	30992	
3847	0	31020	
3848	0	31056	
3849	0	31116	
3850	0	31168	
3851	0	31176	
3852	0	31168	
3853	0	31168	
3854	0	31168	
3855	0	31204	
3856	0	31246	
3857	0	31272	
3858	0	31340	
3859	0	31458	
3860	0	31564	
3861	0	31664	
3862	0	31752	
3863	0	31873	
3864	0	31940	
3865	0	31948	
3866	0	31944	
3867	0	31960	
3868	0	31988	
3869	0	32052	
3870	0	32104	
3871	0	32132	
3872	0	32100	
3873	0	32108	
3874	0	32088	
3875	0	32058	
3876	0	32088	
3877	0	32120	
3878	0	32168	
3879	0	32232	
3880	0	32248	
3881	0	32208	
3882	0	32160	
3883	0	32132	
3884	0	32160	
3885	0	32200	
3886	0	32220	
3887	0	32226	
3888	0	32256	
3889	0	32232	
3890	0	32200	
3891	0	32208	
3892	0	32308	
3893	0	32428	
3894	0	32500	
3895	0	32544	
3896	0	32588	
3897	0	32628	
3898	0	32672	
3899	0	32652	
3900	0	32630	
3901	0	32632	
3902	0	32612	
3903	0	32608	
3904	0	32592	
3905	0	32576	
3906	0	32584	
3907	0	32576	
3908	0	32572	
3909	0	32572	
3910	0	32600	
3911	0	32616	
3912	0	32656	
3913	0	32698	
3914	0	32772	
3915	0	32840	
3916	0	32920	
3917	0	32944	
3918	0	32960	
3919	0	32988	
3920	0	32972	
3921	0	32960	
3922	0	32952	
3923	0	32956	
3924	0	32920	
3925	0	32972	
3926	0	33038	
3927	0	33056	
3928	0	33088	
3929	0	33120	
3930	0	33140	
3931	0	33184	
3932	0	33232	
3933	0	33248	
3934	0	33196	
3935	0	33172	
3936	0	33184	
3937	0	33196	
3938	0	33184	
3939	0	33180	
3940	0	33216	
3941	0	33252	
3942	0	33248	
3943	0	33248	
3944	0	33236	
3945	0	33256	
3946	0	33320	
3947	0	33348	
3948	0	33369	
3949	0	33388	
3950	0	33384	
3951	0	33336	
3952	0	33268	
3953	0	33256	
3954	0	33232	
3955	0	33228	
3956	0	33224	
3957	0	33200	
3958	0	33196	
3959	0	33204	
3960	0	33240	
3961	0	33320	
3962	0	33408	
3963	0	33464	
3964	0	33472	
3965	0	33440	
3966	0	33440	
3967	0	33484	
3968	0	33486	
3969	0	33472	
3970	0	33464	
3971	0	33488	
3972	0	33528	
3973	0	33564	
3974	0	33608	
3975	0	33592	
3976	0	33576	
3977	0	33588	
3978	0	33596	
3979	0	33636	
3980	0	33688	
3981	0	33696	
3982	0	33692	
3983	0	33704	
3984	0	33716	
3985	0	33740	
3986	0	33744	
3987	0	33772	
3988	0	33808	
3989	0	33872	
3990	0	33908	
3991	0	33910	
3992	0	33912	
3993	0	33888	
3994	0	33856	
3995	0	33856	
3996	0	33886	
3997	0	33908	
3998	0	33908	
3999	0	33880	
4000	0	33884	
4001	0	33888	
4002	0	33852	
4003	0	33796	
4004	0	33760	
4005	0	33752	
4006	0	33700	
4007	0	33632	
4008	0	33592	
4009	0	33540	
4010	0	33472	
4011	0	33380	
4012	0	33252	
4013	0	33156	
4014	0	33088	
4015	0	33028	
4016	0	32972	
4017	0	32896	
4018	0	32816	
4019	0	32762	
4020	0	32740	
4021	0	32688	
4022	0	32640	
4023	0	32592	
4024	0	32528	
4025	0	32472	
4026	0	32440	
4027	0	32366	
4028	0	32272	
4029	0	32218	
4030	0	32184	
4031	0	32168	
4032	0	32128	
4033	0	32028	
4034	0	31982	
4035	0	31984	
4036	0	31968	
4037	0	31940	
4038	0	31920	
4039	0	31904	
4040	0	31904	
4041	0	31876	
4042	0	31832	
4043	0	31776	
4044	0	31732	
4045	0	31728	
4046	0	31690	
4047	0	31652	
4048	0	31660	
4049	0	31680	
4050	0	31688	
4051	0	31640	
4052	0	31576	
4053	0	31516	
4054	0	31458	
4055	0	31424	
4056	0	31428	
4057	0	31416	
4058	0	31420	
4059	0	31402	
4060	0	31360	
4061	0	31312	
4062	0	31276	
4063	0	31268	
4064	0	31264	
4065	0	31240	
4066	0	31298	
4067	0	31304	
4068	0	31288	
4069	0	31250	
4070	0	31292	
4071	0	31332	
4072	0	31384	
4073	0	31434	
4074	0	31416	
4075	0	31392	
4076	0	31392	
4077	0	31428	
4078	0	31372	
4079	0	31314	
4080	0	31276	
4081	0	31252	
4082	0	31256	
4083	0	31264	
4084	0	31288	
4085	0	31362	
4086	0	31392	
4087	0	31380	
4088	0	31364	
4089	0	31444	
4090	0	31528	
4091	0	31596	
4092	0	31637	
4093	0	31664	
4094	0	31668	
4095	0	31700	
4096	0	31708	
4097	0	31688	
4098	0	31636	
4099	0	31604	
4100	0	31576	
4101	0	31520	
4102	0	31512	
4103	0	31518	
4104	0	31504	
4105	0	31560	
4106	0	31618	
4107	0	31712	
4108	0	31800	
4109	0	31836	
4110	0	31880	
4111	0	31884	
4112	0	31892	
4113	0	31892	
4114	0	31868	
4115	0	31876	
4116	0	31880	
4117	0	31904	
4118	0	31914	
4119	0	31920	
4120	0	31936	
4121	0	31984	
4122	0	32044	
4123	0	32040	
4124	0	32010	
4125	0	32028	
4126	0	32032	
4127	0	32032	
4128	0	32052	
4129	0	32068	
4130	0	32048	
4131	0	32060	
4132	0	32072	
4133	0	32100	
4134	0	32108	
4135	0	32112	
4136	0	32100	
4137	0	32116	
4138	0	32160	
4139	0	32196	
4140	0	32192	
4141	0	32174	
4142	0	32172	
4143	0	32176	
4144	0	32192	
4145	0	32184	
4146	0	32184	
4147	0	32216	
4148	0	32300	
4149	0	32320	
4150	0	32320	
4151	0	32340	
4152	0	32372	
4153	0	32400	
4154	0	32400	
4155	0	32372	
4156	0	32360	
4157	0	32376	
4158	0	32388	
4159	0	32420	
4160	0	32460	
4161	0	32482	
4162	0	32490	
4163	0	32456	
4164	0	32432	
4165	0	32432	
4166	0	32424	
4167	0	32436	
4168	0	32440	
4169	0	32440	
4170	0	32456	
4171	0	32510	
4172	0	32542	
4173	0	32580	
4174	0	32588	
4175	0	32568	
4176	0	32568	
4177	0	32596	
4178	0	32596	
4179	0	32588	
4180	0	32592	
4181	0	32552	
4182	0	32520	
4183	0	32490	
4184	0	32476	
4185	0	32500	
4186	0	32544	
4187	0	32540	
4188	0	32520	
4189	0	32484	
4190	0	32444	
4191	0	32472	
4192	0	32512	
4193	0	32488	
4194	0	32476	
4195	0	32476	
4196	0	32436	
4197	0	32408	
4198	0	32416	
4199	0	32424	
4200	0	32392	
4201	0	32408	
4202	0	32460	
4203	0	32536	
4204	0	32536	
4205	0	32534	
4206	0	32538	
4207	0	32512	
4208	0	32508	
4209	0	32496	
4210	0	32460	
4211	0	32448	
4212	0	32440	
4213	0	32498	
4214	0	32560	
4215	0	32580	
4216	0	32582	
4217	0	32556	
4218	0	32532	
4219	0	32512	
4220	0	32500	
4221	0	32520	
4222	0	32524	
4223	0	32524	
4224	0	32552	
4225	0	32536	
4226	0	32508	
4227	0	32500	
4228	0	32440	
4229	0	32410	
4230	0	32444	
4231	0	32480	
4232	0	32504	
4233	0	32528	
4234	0	32482	
4235	0	32432	
4236	0	32420	
4237	0	32444	
4238	0	32488	
4239	0	32548	
4240	0	32516	
4241	0	32464	
4242	0	32432	
4243	0	32412	
4244	0	32416	
4245	0	32408	
4246	0	32388	
4247	0	32336	
4248	0	32280	
4249	0	32236	
4250	0	32260	
4251	0	32292	
4252	0	32304	
4253	0	32324	
4254	0	32300	
4255	0	32288	
4256	0	32272	
4257	0	32244	
4258	0	32216	
4259	0	32196	
4260	0	32208	
4261	0	32204	
4262	0	32160	
4263	0	32112	
4264	0	32088	
4265	0	32092	
4266	0	32140	
4267	0	32176	
4268	0	32208	
4269	0	32208	
4270	0	32168	
4271	0	32144	
4272	0	32133	
4273	0	32150	
4274	0	32184	
4275	0	32176	
4276	0	32154	
4277	0	32168	
4278	0	32192	
4279	0	32224	
4280	0	32200	
4281	0	32160	
4282	0	32128	
4283	0	32140	
4284	0	32160	
4285	0	32156	
4286	0	32156	
4287	0	32152	
4288	0	32164	
4289	0	32172	
4290	0	32180	
4291	0	32188	
4292	0	32238	
4293	0	32236	
4294	0	32240	
4295	0	32244	
4296	0	32212	
4297	0	32144	
4298	0	32120	
4299	0	32148	
4300	0	32156	
4301	0	32176	
4302	0	32200	
4303	0	32216	
4304	0	32232	
4305	0	32224	
4306	0	32240	
4307	0	32240	
4308	0	32240	
4309	0	32212	
4310	0	32154	
4311	0	32116	
4312	0	32068	
4313	0	32068	
4314	0	32100	
4315	0	32116	
4316	0	32084	
4317	0	32052	
4318	0	32000	
4319	0	31984	
4320	0	31996	
4321	0	32012	
4322	0	32028	
4323	0	32042	
4324	0	32072	
4325	0	32092	
4326	0	32144	
4327	0	32144	
4328	0	32158	
4329	0	32184	
4330	0	32170	
4331	0	32156	
4332	0	32144	
4333	0	32120	
4334	0	32156	
4335	0	32172	
4336	0	32164	
4337	0	32156	
4338	0	32090	
4339	0	32092	
4340	0	32068	
4341	0	32076	
4342	0	32076	
4343	0	32120	
4344	0	32168	
4345	0	32208	
4346	0	32272	
4347	0	32308	
4348	0	32304	
4349	0	32282	
4350	0	32232	
4351	0	32192	
4352	0	32172	
4353	0	32192	
4354	0	32240	
4355	0	32228	
4356	0	32226	
4357	0	32200	
4358	0	32168	
4359	0	32164	
4360	0	32160	
4361	0	32144	
4362	0	32108	
4363	0	32080	
4364	0	32036	
4365	0	32016	
4366	0	32008	
4367	0	31984	
4368	0	31988	
4369	0	32020	
4370	0	32048	
4371	0	32064	
4372	0	32100	
4373	0	32188	
4374	0	32260	
4375	0	32284	
4376	0	32380	
4377	0	32524	
4378	0	32660	
4379	0	32760	
4380	0	32840	
4381	0	32916	
4382	0	33008	
4383	0	33120	
4384	0	33248	
4385	0	33368	
4386	0	33496	
4387	0	33568	
4388	0	33538	
4389	0	33456	
4390	0	33424	
4391	0	33404	
4392	0	33396	
4393	0	33436	
4394	0	33472	
4395	0	33532	
4396	0	33560	
4397	0	33576	
4398	0	33592	
4399	0	33560	
4400	0	33508	
4401	0	33580	
4402	0	33778	
4403	0	34012	
4404	0	34280	
4405	0	34584	
4406	0	34914	
4407	0	35244	
4408	0	35496	
4409	0	35652	
4410	0	35802	
4411	0	35944	
4412	0	36036	
4413	0	36064	
4414	0	36074	
4415	0	36104	
4416	0	36128	
4417	0	36152	
4418	0	36112	
4419	0	36040	
4420	0	35920	
4421	0	35756	
4422	0	35636	
4423	0	35516	
4424	0	35428	
4425	0	35392	
4426	0	35404	
4427	0	35448	
4428	0	35488	
4429	0	35534	
4430	0	35568	
4431	0	35560	
4432	0	35524	
4433	0	35456	
4434	0	35384	
4435	0	35304	
4436	0	35188	
4437	0	34992	
4438	0	34756	
4439	0	34536	
4440	0	34298	
4441	0	34040	
4442	0	33760	
4443	0	33376	
4444	0	32992	
4445	0	32674	
4446	0	32396	
4447	0	32128	
4448	0	31896	
4449	0	31692	
4450	0	31500	
4451	0	31336	
4452	0	31246	
4453	0	31184	
4454	0	31112	
4455	0	31056	
4456	0	30962	
4457	0	30856	
4458	0	30748	
4459	0	30649	
4460	0	30616	
4461	0	30554	
4462	0	30516	
4463	0	30520	
4464	0	30508	
4465	0	30506	
4466	0	30528	
4467	0	30588	
4468	0	30640	
4469	0	30732	
4470	0	30784	
4471	0	30804	
4472	0	30832	
4473	0	30848	
4474	0	30880	
4475	0	30880	
4476	0	30856	
4477	0	30820	
4478	0	30780	
4479	0	30752	
4480	0	30708	
4481	0	30680	
4482	0	30704	
4483	0	30704	
4484	0	30690	
4485	0	30696	
4486	0	30704	
4487	0	30768	
4488	0	30802	
4489	0	30812	
4490	0	30816	
4491	0	30812	
4492	0	30836	
4493	0	30884	
4494	0	30908	
4495	0	30948	
4496	0	30968	
4497	0	30944	
4498	0	30916	
4499	0	30904	
4500	0	30904	
4501	0	30892	
4502	0	30816	
4503	0	30716	
4504	0	30536	
4505	0	30212	
4506	0	29616	
4507	0	28698	
4508	0	27580	
4509	0	26400	
4510	0	25216	
4511	0	24168	
4512	0	23198	
4513	0	22392	
4514	0	21832	
4515	0	21458	
4516	0	21342	
4517	0	21484	
4518	0	21868	
4519	0	22368	
4520	0	22984	
4521	0	24040	
4522	0	25652	
4523	0	27680	
4524	0	30068	
4525	0	32718	
4526	0	35788	
4527	0	39072	
4528	0	42624	
4529	0	46500	
4530	0	50560	
4531	0	54880	
4532	0	58920	
4533	0	61964	
4534	0	63620	
4535	0	64456	
4536	0	64860	
4537	0	65000	
4538	0	65056	
4539	0	65008	
4540	0	64916	
4541	0	64804	
4542	0	64708	
4543	0	64572	
4544	0	60112	
4545	0	54128	
4546	0	49488	
4547	0	45556	
4548	0	41784	
4549	0	38336	
4550	0	35444	
4551	0	33080	
4552	0	30928	
4553	0	28680	
4554	0	26496	
4555	0	24832	
4556	0	23616	
4557	0	22660	
4558	0	21864	
4559	0	21276	
4560	0	20744	
4561	0	20204	
4562	0	19646	
4563	0	19284	
4564	0	19172	
4565	0	19334	
4566	0	19654	
4567	0	19940	
4568	0	20125	
4569	0	20352	
4570	0	20652	
4571	0	21064	
4572	0	21520	
4573	0	22017	
4574	0	22576	
4575	0	23088	
4576	0	23648	
4577	0	24216	
4578	0	24752	
4579	0	25300	
4580	0	25848	
4581	0	26412	
4582	0	26992	
4583	0	27520	
4584	0	27988	
4585	0	28352	
4586	0	28608	
4587	0	28820	
4588	0	29016	
4589	0	29148	
4590	0	29278	
4591	0	29376	
4592	0	29500	
4593	0	29520	
4594	0	29528	
4595	0	29568	
4596	0	29592	
4597	0	29608	
4598	0	29640	
4599	0	29706	
4600	0	29792	
4601	0	29866	
4602	0	29976	
4603	0	30040	
4604	0	30100	
4605	0	30228	
4606	0	30358	
4607	0	30476	
4608	0	30596	
4609	0	30724	
4610	0	30832	
4611	0	30930	
4612	0	31052	
4613	0	31120	
4614	0	31144	
4615	0	31162	
4616	0	31168	
4617	0	31170	
4618	0	31162	
4619	0	31176	
4620	0	31176	
4621	0	31164	
4622	0	31160	
4623	0	31164	
4624	0	31152	
4625	0	31172	
4626	0	31226	
4627	0	31298	
4628	0	31364	
4629	0	31444	
4630	0	31508	
4631	0	31568	
4632	0	31624	
4633	0	31704	
4634	0	31784	
4635	0	31812	
4636	0	31856	
4637	0	31906	
4638	0	31916	
4639	0	31872	
4640	0	31892	
4641	0	31940	
4642	0	31976	
4643	0	32068	
4644	0	32200	
4645	0	32324	
4646	0	32392	
4647	0	32380	
4648	0	32352	
4649	0	32332	
4650	0	32382	
4651	0	32444	
4652	0	32456	
4653	0	32468	
4654	0	32480	
4655	0	32474	
4656	0	32492	
4657	0	32480	
4658	0	32452	
4659	0	32472	
4660	0	32608	
4661	0	32636	
4662	0	32588	
4663	0	32536	
4664	0	32520	
4665	0	32528	
4666	0	32520	
4667	0	32448	
4668	0	32416	
4669	0	32464	
4670	0	32528	
4671	0	32624	
4672	0	32808	
4673	0	32960	
4674	0	33032	
4675	0	33096	
4676	0	33160	
4677	0	33200	
4678	0	33166	
4679	0	33196	
4680	0	33168	
4681	0	33140	
4682	0	33146	
4683	0	33152	
4684	0	33120	
4685	0	33072	
4686	0	33020	
4687	0	33000	
4688	0	32996	
4689	0	33016	
4690	0	33120	
4691	0	33264	
4692	0	33328	
4693	0	33436	
4694	0	33508	
4695	0	33524	
4696	0	33552	
4697	0	33576	
4698	0	33564	
4699	0	33524	
4700	0	33528	
4701	0	33552	
4702	0	33548	
4703	0	33508	
4704	0	33460	
4705	0	33476	
4706	0	33586	
4707	0	33636	
4708	0	33604	
4709	0	33516	
4710	0	33428	
4711	0	33504	
4712	0	33664	
4713	0	33826	
4714	0	33886	
4715	0	33824	
4716	0	33720	
4717	0	33624	
4718	0	33524	
4719	0	33442	
4720	0	33408	
4721	0	33400	
4722	0	33384	
4723	0	33428	
4724	0	33436	
4725	0	33362	
4726	0	33304	
4727	0	33264	
4728	0	33308	
4729	0	33368	
4730	0	33490	
4731	0	33608	
4732	0	33564	
4733	0	33528	
4734	0	33490	
4735	0	33502	
4736	0	33536	
4737	0	33632	
4738	0	33740	
4739	0	33800	
4740	0	33824	
4741	0	33856	
4742	0	33836	
4743	0	33840	
4744	0	33882	
4745	0	33872	
4746	0	33836	
4747	0	33836	
4748	0	33824	
4749	0	33760	
4750	0	33732	
4751	0	33792	
4752	0	33884	
4753	0	34016	
4754	0	34160	
4755	0	34197	
4756	0	34196	
4757	0	34180	
4758	0	34180	
4759	0	34116	
4760	0	34060	
4761	0	34064	
4762	0	34092	
4763	0	34136	
4764	0	34138	
4765	0	34168	
4766	0	34236	
4767	0	34288	
4768	0	34336	
4769	0	34340	
4770	0	34320	
4771	0	34306	
4772	0	34320	
4773	0	34288	
4774	0	34220	
4775	0	34128	
4776	0	34088	
4777	0	34096	
4778	0	34052	
4779	0	34020	
4780	0	33900	
4781	0	33732	
4782	0	33536	
4783	0	33360	
4784	0	33256	
4785	0	33242	
4786	0	33312	
4787	0	33376	
4788	0	33344	
4789	0	33296	
4790	0	33308	
4791	0	33316	
4792	0	33296	
4793	0	33228	
4794	0	33116	
4795	0	32976	
4796	0	32842	
4797	0	32774	
4798	0	32732	
4799	0	32692	
4800	0	32656	
4801	0	32608	
4802	0	32528	
4803	0	32460	
4804	0	32416	
4805	0	32468	
4806	0	32580	
4807	0	32608	
4808	0	32496	
4809	0	32446	
4810	0	32496	
4811	0	32514	
4812	0	32452	
4813	0	32364	
4814	0	32296	
4815	0	32200	
4816	0	32164	
4817	0	32162	
4818	0	32272	
4819	0	32360	
4820	0	32308	
4821	0	32320	
4822	0	32356	
4823	0	32308	
4824	0	32256	
4825	0	32244	
4826	0	32200	
4827	0	32152	
4828	0	32076	
4829	0	32096	
4830	0	32132	
4831	0	32036	
4832	0	31912	
4833	0	31824	
4834	0	31844	
4835	0	31860	
4836	0	31888	
4837	0	31912	
4838	0	31970	
4839	0	32008	
4840	0	31976	
4841	0	31992	
4842	0	32040	
4843	0	32072	
4844	0	32116	
4845	0	32156	
4846	0	32200	
4847	0	32274	
4848	0	32304	
4849	0	32268	
4850	0	32248	
4851	0	32252	
4852	0	32280	
4853	0	32288	
4854	0	32272	
4855	0	32220	
4856	0	32192	
4857	0	32180	
4858	0	32122	
4859	0	32120	
4860	0	32072	
4861	0	32044	
4862	0	32028	
4863	0	31980	
4864	0	32032	
4865	0	32084	
4866	0	32208	
4867	0	32364	
4868	0	32488	
4869	0	32536	
4870	0	32572	
4871	0	32484	
4872	0	32400	
4873	0	32282	
4874	0	32204	
4875	0	32248	
4876	0	32360	
4877	0	32404	
4878	0	32400	
4879	0	32372	
4880	0	32392	
4881	0	32464	
4882	0	32440	
4883	0	32444	
4884	0	32516	
4885	0	32636	
4886	0	32808	
4887	0	32948	
4888	0	32956	
4889	0	32878	
4890	0	32880	
4891	0	32924	
4892	0	32896	
4893	0	32816	
4894	0	32720	
4895	0	32660	
4896	0	32636	
4897	0	32696	
4898	0	32804	
4899	0	32864	
4900	0	32860	
4901	0	32864	
4902	0	32840	
4903	0	32828	
4904	0	32796	
4905	0	32756	
4906	0	32732	
4907	0	32748	
4908	0	32682	
4909	0	32628	
4910	0	32656	
4911	0	32656	
4912	0	32704	
4913	0	32876	
4914	0	33136	
4915	0	33364	
4916	0	33488	
4917	0	33516	
4918	0	33508	
4919	0	33476	
4920	0	33444	
4921	0	33368	
4922	0	33280	
4923	0	33208	
4924	0	33072	
4925	0	32948	
4926	0	32944	
4927	0	32976	
4928	0	33068	
4929	0	33170	
4930	0	33136	
4931	0	32928	
4932	0	32812	
4933	0	32836	
4934	0	32936	
4935	0	33076	
4936	0	33196	
4937	0	33348	
4938	0	33488	
4939	0	33496	
4940	0	33392	
4941	0	33304	
4942	0	33324	
4943	0	33328	
4944	0	33287	
4945	0	33296	
4946	0	33344	
4947	0	33348	
4948	0	33316	
4949	0	33336	
4950	0	33384	
4951	0	33452	
4952	0	33580	
4953	0	33668	
4954	0	33612	
4955	0	33528	
4956	0	33516	
4957	0	33544	
4958	0	33574	
4959	0	33592	
4960	0	33624	
4961	0	33624	
4962	0	33560	
4963	0	33488	
4964	0	33504	
4965	0	33592	
4966	0	33530	
4967	0	33440	
4968	0	33408	
4969	0	33400	
4970	0	33400	
4971	0	33440	
4972	0	33448	
4973	0	33444	
4974	0	33480	
4975	0	33496	
4976	0	33524	
4977	0	33600	
4978	0	33584	
4979	0	33560	
4980	0	33464	
4981	0	33488	
4982	0	33540	
4983	0	33618	
4984	0	33656	
4985	0	33530	
4986	0	33372	
4987	0	33348	
4988	0	33392	
4989	0	33424	
4990	0	33472	
4991	0	33596	
4992	0	33770	
4993	0	33882	
4994	0	33888	
4995	0	33698	
4996	0	33388	
4997	0	33176	
4998	0	33072	
4999	0	33052	
5000	0	33016	
5001	0	33104	
5002	0	33166	
5003	0	33084	
5004	0	33028	
5005	0	33056	
5006	0	33160	
5007	0	33356	
5008	0	33504	
5009	0	33540	
5010	0	33512	
5011	0	33496	
5012	0	33424	
5013	0	33288	
5014	0	33264	
5015	0	33268	
5016	0	33208	
5017	0	33160	
5018	0	33144	
5019	0	33180	
5020	0	33264	
5021	0	33385	
5022	0	33448	
5023	0	33392	
5024	0	33344	
5025	0	33268	
5026	0	33240	
5027	0	33256	
5028	0	33244	
5029	0	33224	
5030	0	33256	
5031	0	33200	
5032	0	33152	
5033	0	33108	
5034	0	33109	
5035	0	33164	
5036	0	33184	
5037	0	33184	
5038	0	33180	
5039	0	33160	
5040	0	33152	
5041	0	33132	
5042	0	33124	
5043	0	33244	
5044	0	33376	
5045	0	33368	
5046	0	33292	
5047	0	33264	
5048	0	33376	
5049	0	33480	
5050	0	33448	
5051	0	33264	
5052	0	33072	
5053	0	32916	
5054	0	32860	
5055	0	32954	
5056	0	33088	
5057	0	33272	
5058	0	33424	
5059	0	33456	
5060	0	33324	
5061	0	33140	
5062	0	32968	
5063	0	32892	
5064	0	32864	
5065	0	32728	
5066	0	32648	
5067	0	32688	
5068	0	32720	
5069	0	32776	
5070	0	32944	
5071	0	33144	
5072	0	33248	
5073	0	33216	
5074	0	33200	
5075	0	33210	
5076	0	33272	
5077	0	33356	
5078	0	33332	
5079	0	33152	
5080	0	32968	
5081	0	32900	
5082	0	32928	
5083	0	33008	
5084	0	33136	
5085	0	33224	
5086	0	33180	
5087	0	33140	
5088	0	32968	
5089	0	32700	
5090	0	32656	
5091	0	32916	
5092	0	33122	
5093	0	33092	
5094	0	33052	
5095	0	33028	
5096	0	32972	
5097	0	32908	
5098	0	32980	
5099	0	33088	
5100	0	33020	
5101	0	33024	
5102	0	33128	
5103	0	33132	
5104	0	33012	
5105	0	32844	
5106	0	32704	
5107	0	32616	
5108	0	32612	
5109	0	32668	
5110	0	32848	
5111	0	33048	
5112	0	33156	
5113	0	33248	
5114	0	33136	
5115	0	32972	
5116	0	32848	
5117	0	32724	
5118	0	32772	
5119	0	32852	
5120	0	32882	
5121	0	32972	
5122	0	33096	
5123	0	33216	
5124	0	33296	
5125	0	33372	
5126	0	33508	
5127	0	33506	
5128	0	33364	
5129	0	33260	
5130	0	33214	
5131	0	33264	
5132	0	33504	
5133	0	33764	
5134	0	33848	
5135	0	33820	
5136	0	33796	
5137	0	33792	
5138	0	33746	
5139	0	33676	
5140	0	33648	
5141	0	33664	
5142	0	33754	
5143	0	33906	
5144	0	34010	
5145	0	34112	
5146	0	34112	
5147	0	33984	
5148	0	33744	
5149	0	33556	
5150	0	33568	
5151	0	33824	
5152	0	34112	
5153	0	34276	
5154	0	34480	
5155	0	34832	
5156	0	35244	
5157	0	35592	
5158	0	35924	
5159	0	36156	
5160	0	36394	
5161	0	36588	
5162	0	36596	
5163	0	36472	
5164	0	36312	
5165	0	36168	
5166	0	36084	
5167	0	36124	
5168	0	36208	
5169	0	36356	
5170	0	36436	
5171	0	36392	
5172	0	36384	
5173	0	36424	
5174	0	36396	
5175	0	36208	
5176	0	36072	
5177	0	36112	
5178	0	36352	
5179	0	36544	
5180	0	36688	
5181	0	36800	
5182	0	36928	
5183	0	36992	
5184	0	36852	
5185	0	36520	
5186	0	36184	
5187	0	35864	
5188	0	35564	
5189	0	35264	
5190	0	34944	
5191	0	34656	
5192	0	34420	
5193	0	34176	
5194	0	33824	
5195	0	33468	
5196	0	33216	
5197	0	33084	
5198	0	32916	
5199	0	32718	
5200	0	32496	
5201	0	32340	
5202	0	32244	
5203	0	32204	
5204	0	32172	
5205	0	32212	
5206	0	32304	
5207	0	32324	
5208	0	32264	
5209	0	32080	
5210	0	31870	
5211	0	31764	
5212	0	31744	
5213	0	31676	
5214	0	31656	
5215	0	31612	
5216	0	31468	
5217	0	31428	
5218	0	31472	
5219	0	31476	
5220	0	31344	
5221	0	31172	
5222	0	31108	
5223	0	31032	
5224	0	31012	
5225	0	30976	
5226	0	30954	
5227	0	31116	
5228	0	31400	
5229	0	31544	
5230	0	31636	
5231	0	31786	
5232	0	31932	
5233	0	31972	
5234	0	31904	
5235	0	31820	
5236	0	31904	
5237	0	32016	
5238	0	31976	
5239	0	32000	
5240	0	31884	
5241	0	31724	
5242	0	31616	
5243	0	31600	
5244	0	31648	
5245	0	31700	
5246	0	31794	
5247	0	31936	
5248	0	32156	
5249	0	32296	
5250	0	32432	
5251	0	32496	
5252	0	32244	
5253	0	31740	
5254	0	31056	
5255	0	30460	
5256	0	30016	
5257	0	29520	
5258	0	28784	
5259	0	27932	
5260	0	27148	
5261	0	26320	
5262	0	25392	
5263	0	24600	
5264	0	24088	
5265	0	23772	
5266	0	23540	
5267	0	23492	
5268	0	23894	
5269	0	24492	
5270	0	25240	
5271	0	26216	
5272	0	27512	
5273	0	29180	
5274	0	31212	
5275	0	33624	
5276	0	36404	
5277	0	39432	
5278	0	42500	
5279	0	45876	
5280	0	49476	
5281	0	53092	
5282	0	56724	
5283	0	60144	
5284	0	62256	
5285	0	63360	
5286	0	63916	
5287	0	64156	
5288	0	64224	
5289	0	64208	
5290	0	64144	
5291	0	64048	
5292	0	63960	
5293	0	63832	
5294	0	56744	
5295	0	49648	
5296	0	44112	
5297	0	39812	
5298	0	35988	
5299	0	32800	
5300	0	30424	
5301	0	28864	
5302	0	27970	
5303	0	27144	
5304	0	26208	
5305	0	25100	
5306	0	23806	
5307	0	22466	
5308	0	21316	
5309	0	20620	
5310	0	20160	
5311	0	19980	
5312	0	19916	
5313	0	19932	
5314	0	19764	
5315	0	19428	
5316	0	19092	
5317	0	19036	
5318	0	19228	
5319	0	19448	
5320	0	19744	
5321	0	20144	
5322	0	20570	
5323	0	20984	
5324	0	21156	
5325	0	21344	
5326	0	21752	
5327	0	22256	
5328	0	22860	
5329	0	23556	
5330	0	24196	
5331	0	24836	
5332	0	25564	
5333	0	26366	
5334	0	27016	
5335	0	27556	
5336	0	27968	
5337	0	28436	
5338	0	29084	
5339	0	29664	
5340	0	30162	
5341	0	30740	
5342	0	31240	
5343	0	31504	
5344	0	31452	
5345	0	31144	
5346	0	30956	
5347	0	30900	
5348	0	31052	
5349	0	31336	
5350	0	31564	
5351	0	31728	
5352	0	31864	
5353	0	31944	
5354	0	31872	
5355	0	31848	
5356	0	32016	
5357	0	32304	
5358	0	32628	
5359	0	32956	
5360	0	33140	
5361	0	33296	
5362	0	33252	
5363	0	32944	
5364	0	32596	
5365	0	32208	
5366	0	31920	
5367	0	31788	
5368	0	31788	
5369	0	31808	
5370	0	31832	
5371	0	31936	
5372	0	32040	
5373	0	32016	
5374	0	31964	
5375	0	32056	
5376	0	32224	
5377	0	32524	
5378	0	32964	
5379	0	33428	
5380	0	33760	
5381	0	33896	
5382	0	33848	
5383	0	33674	
5384	0	33464	
5385	0	33274	
5386	0	33176	
5387	0	33128	
5388	0	32956	
5389	0	32752	
5390	0	32768	
5391	0	33032	
5392	0	33252	
5393	0	33416	
5394	0	33596	
5395	0	33618	
5396	0	33608	
5397	0	33684	
5398	0	33746	
5399	0	33856	
5400	0	33856	
5401	0	33608	
5402	0	33492	
5403	0	33696	
5404	0	33856	
5405	0	33892	
5406	0	33920	
5407	0	33952	
5408	0	33808	
5409	0	33636	
5410	0	33568	
5411	0	33616	
5412	0	33804	
5413	0	33968	
5414	0	34076	
5415	0	34126	
5416	0	34204	
5417	0	34248	
5418	0	34324	
5419	0	34388	
5420	0	34320	
5421	0	34288	
5422	0	34296	
5423	0	34256	
5424	0	34256	
5425	0	34356	
5426	0	34504	
5427	0	34592	
5428	0	34428	
5429	0	34236	
5430	0	34168	
5431	0	34148	
5432	0	34324	
5433	0	34456	
5434	0	34360	
5435	0	34388	
5436	0	34670	
5437	0	34800	
5438	0	34802	
5439	0	35128	
5440	0	35600	
5441	0	35724	
5442	0	35844	
5443	0	35968	
5444	0	35640	
5445	0	35228	
5446	0	34892	
5447	0	34656	
5448	0	34664	
5449	0	34644	
5450	0	34760	
5451	0	35008	
5452	0	35284	
5453	0	35292	
5454	0	35280	
5455	0	35204	
5456	0	35032	
5457	0	35048	
5458	0	35104	
5459	0	35248	
5460	0	35432	
5461	0	35720	
5462	0	35868	
5463	0	35840	
5464	0	35584	
5465	0	35322	
5466	0	35292	
5467	0	35264	
5468	0	35310	
5469	0	35264	
5470	0	35204	
5471	0	35216	
5472	0	35232	
5473	0	35096	
5474	0	35066	
5475	0	34970	
5476	0	34920	
5477	0	35048	
5478	0	35384	
5479	0	35628	
5480	0	35580	
5481	0	35476	
5482	0	35392	
5483	0	35272	
5484	0	35292	
5485	0	35460	
5486	0	35644	
5487	0	35754	
5488	0	35714	
5489	0	35648	
5490	0	35824	
5491	0	36152	
5492	0	36500	
5493	0	36756	
5494	0	36618	
5495	0	36220	
5496	0	35872	
5497	0	35748	
5498	0	35580	
5499	0	35344	
5500	0	35032	
5501	0	34928	
5502	0	34992	
5503	0	35040	
5504	0	35220	
5505	0	35496	
5506	0	35680	
5507	0	35684	
5508	0	35618	
5509	0	35476	
5510	0	35264	
5511	0	35056	
5512	0	34940	
5513	0	34912	
5514	0	34996	
5515	0	34912	
5516	0	34768	
5517	0	34720	
5518	0	34652	
5519	0	34572	
5520	0	34424	
5521	0	34296	
5522	0	34308	
5523	0	34376	
5524	0	34416	
5525	0	34542	
5526	0	34640	
5527	0	34680	
5528	0	34672	
5529	0	34668	
5530	0	34600	
5531	0	34416	
5532	0	34116	
5533	0	33780	
5534	0	33556	
5535	0	33356	
5536	0	33304	
5537	0	33360	
5538	0	33520	
5539	0	33700	
5540	0	33560	
5541	0	33132	
5542	0	32828	
5543	0	32788	
5544	0	32808	
5545	0	32748	
5546	0	32672	
5547	0	32664	
5548	0	32840	
5549	0	33012	
5550	0	32926	
5551	0	32704	
5552	0	32528	
5553	0	32282	
5554	0	32026	
5555	0	31856	
5556	0	31760	
5557	0	31472	
5558	0	31416	
5559	0	31740	
5560	0	32136	
5561	0	32316	
5562	0	32368	
5563	0	32218	
5564	0	31948	
5565	0	31732	
5566	0	31624	
5567	0	31528	
5568	0	31340	
5569	0	31144	
5570	0	31040	
5571	0	31144	
5572	0	31324	
5573	0	31468	
5574	0	31268	
5575	0	31000	
5576	0	30962	
5577	0	31148	
5578	0	31236	
5579	0	31416	
5580	0	31782	
5581	0	32188	
5582	0	32408	
5583	0	32192	
5584	0	31800	
5585	0	31668	
5586	0	31820	
5587	0	31956	
5588	0	31736	
5589	0	31340	
5590	0	31116	
5591	0	31096	
5592	0	31216	
5593	0	31336	
5594	0	31328	
5595	0	31468	
5596	0	31556	
5597	0	31360	
5598	0	31080	
5599	0	30956	
5600	0	30932	
5601	0	30996	
5602	0	31116	
5603	0	31268	
5604	0	31384	
5605	0	31472	
5606	0	31556	
5607	0	31496	
5608	0	31364	
5609	0	31256	
5610	0	31180	
5611	0	31088	
5612	0	31034	
5613	0	31114	
5614	0	31248	
5615	0	31360	
5616	0	31528	
5617	0	31668	
5618	0	31712	
5619	0	31658	
5620	0	31592	
5621	0	31672	
5622	0	31628	
5623	0	31384	
5624	0	31196	
5625	0	31144	
5626	0	31152	
5627	0	31160	
5628	0	31150	
5629	0	31164	
5630	0	31328	
5631	0	31708	
5632	0	31946	
5633	0	31936	
5634	0	31824	
5635	0	31716	
5636	0	31604	
5637	0	31564	
5638	0	31544	
5639	0	31544	
5640	0	31500	
5641	0	31460	
5642	0	31456	
5643	0	31496	
5644	0	31642	
5645	0	31836	
5646	0	31872	
5647	0	31680	
5648	0	31584	
5649	0	31592	
5650	0	31652	
5651	0	31740	
5652	0	31884	
5653	0	31968	
5654	0	31940	
5655	0	31904	
5656	0	31952	
5657	0	32032	
5658	0	32112	
5659	0	32216	
5660	0	32360	
5661	0	32424	
5662	0	32552	
5663	0	32516	
5664	0	32354	
5665	0	32268	
5666	0	32288	
5667	0	32284	
5668	0	32340	
5669	0	32440	
5670	0	32596	
5671	0	32780	
5672	0	33024	
5673	0	33232	
5674	0	33228	
5675	0	33100	
5676	0	32924	
5677	0	32856	
5678	0	32912	
5679	0	32944	
5680	0	32828	
5681	0	33004	
5682	0	33200	
5683	0	33072	
5684	0	32696	
5685	0	32584	
5686	0	32712	
5687	0	32916	
5688	0	33090	
5689	0	33284	
5690	0	33348	
5691	0	33176	
5692	0	33048	
5693	0	32944	
5694	0	32840	
5695	0	32868	
5696	0	32960	
5697	0	33040	
5698	0	33178	
5699	0	33112	
5700	0	32944	
5701	0	32992	
5702	0	33144	
5703	0	33288	
5704	0	33376	
5705	0	33402	
5706	0	33328	
5707	0	33080	
5708	0	32856	
5709	0	32868	
5710	0	32888	
5711	0	32816	
5712	0	32800	
5713	0	32810	
5714	0	32808	
5715	0	32886	
5716	0	33008	
5717	0	33200	
5718	0	33342	
5719	0	33402	
5720	0	33388	
5721	0	33248	
5722	0	33060	
5723	0	33092	
5724	0	33248	
5725	0	33364	
5726	0	33444	
5727	0	33424	
5728	0	33436	
5729	0	33628	
5730	0	33772	
5731	0	33802	
5732	0	33770	
5733	0	33648	
5734	0	33564	
5735	0	33556	
5736	0	33464	
5737	0	33304	
5738	0	33068	
5739	0	32920	
5740	0	32944	
5741	0	33000	
5742	0	33112	
5743	0	33212	
5744	0	33304	
5745	0	33360	
5746	0	33372	
5747	0	33388	
5748	0	33280	
5749	0	33184	
5750	0	33176	
5751	0	33244	
5752	0	33208	
5753	0	32956	
5754	0	32672	
5755	0	32622	
5756	0	32748	
5757	0	32752	
5758	0	32744	
5759	0	32736	
5760	0	32636	
5761	0	32652	
5762	0	32720	
5763	0	32820	
5764	0	32960	
5765	0	33076	
5766	0	33160	
5767	0	33344	
5768	0	33432	
5769	0	33346	
5770	0	33088	
5771	0	32880	
5772	0	32704	
5773	0	32660	
5774	0	32772	
5775	0	32808	
5776	0	32672	
5777	0	32524	
5778	0	32494	
5779	0	32624	
5780	0	32772	
5781	0	32832	
5782	0	32792	
5783	0	32744	
5784	0	32712	
5785	0	32800	
5786	0	32896	
5787	0	33040	
5788	0	33216	
5789	0	33224	
5790	0	33104	
5791	0	32920	
5792	0	32688	
5793	0	32664	
5794	0	32676	
5795	0	32864	
5796	0	32956	
5797	0	32880	
5798	0	32752	
5799	0	32708	
5800	0	32808	
5801	0	32928	
5802	0	33164	
5803	0	33384	
5804	0	33460	
5805	0	33460	
5806	0	33488	
5807	0	33400	
5808	0	33292	
5809	0	33300	
5810	0	33384	
5811	0	33516	
5812	0	33632	
5813	0	33734	
5814	0	33690	
5815	0	33652	
5816	0	33596	
5817	0	33456	
5818	0	33344	
5819	0	33224	
5820	0	33044	
5821	0	33040	
5822	0	33186	
5823	0	33428	
5824	0	33832	
5825	0	34280	
5826	0	34644	
5827	0	35004	
5828	0	35256	
5829	0	35424	
5830	0	35584	
5831	0	35788	
5832	0	36080	
5833	0	36460	
5834	0	36760	
5835	0	36608	
5836	0	36316	
5837	0	36176	
5838	0	36136	
5839	0	36088	
5840	0	36056	
5841	0	36120	
5842	0	36242	
5843	0	36476	
5844	0	36650	
5845	0	36640	
5846	0	36358	
5847	0	36072	
5848	0	35866	
5849	0	35640	
5850	0	35528	
5851	0	35460	
5852	0	35352	
5853	0	35280	
5854	0	35264	
5855	0	35300	
5856	0	35284	
5857	0	35308	
5858	0	35348	
5859	0	35276	
5860	0	35036	
5861	0	34664	
5862	0	34408	
5863	0	34288	
5864	0	34060	
5865	0	33684	
5866	0	33264	
5867	0	32852	
5868	0	32616	
5869	0	32432	
5870	0	32052	
5871	0	31704	
5872	0	31516	
5873	0	31508	
5874	0	31596	
5875	0	31732	
5876	0	31870	
5877	0	31904	
5878	0	31948	
5879	0	32000	
5880	0	31892	
5881	0	31568	
5882	0	31306	
5883	0	31212	
5884	0	31120	
5885	0	30980	
5886	0	30840	
5887	0	30800	
5888	0	30764	
5889	0	30740	
5890	0	30720	
5891	0	30880	
5892	0	30928	
5893	0	30906	
5894	0	30980	
5895	0	31204	
5896	0	31348	
5897	0	31328	
5898	0	31168	
5899	0	30984	
5900	0	30848	
5901	0	30748	
5902	0	30572	
5903	0	30496	
5904	0	30620	
5905	0	30816	
5906	0	31040	
5907	0	31288	
5908	0	31424	
5909	0	31414	
5910	0	31352	
5911	0	31236	
5912	0	31120	
5913	0	31032	
5914	0	31016	
5915	0	31082	
5916	0	31200	
5917	0	31316	
5918	0	31368	
5919	0	31456	
5920	0	31488	
5921	0	31468	
5922	0	31420	
5923	0	31312	
5924	0	31264	
5925	0	31216	
5926	0	30996	
5927	0	30744	
5928	0	30476	
5929	0	30004	
5930	0	29246	
5931	0	28316	
5932	0	27360	
5933	0	26432	
5934	0	25456	
5935	0	24504	
5936	0	23772	
5937	0	23236	
5938	0	22776	
5939	0	22660	
5940	0	22980	
5941	0	23464	
5942	0	24066	
5943	0	24906	
5944	0	26176	
5945	0	27758	
5946	0	29704	
5947	0	32172	
5948	0	34948	
5949	0	37920	
5950	0	40908	
5951	0	44016	
5952	0	47368	
5953	0	50848	
5954	0	54468	
5955	0	58128	
5956	0	60868	
5957	0	62336	
5958	0	63096	
5959	0	63448	
5960	0	63584	
5961	0	63600	
5962	0	63556	
5963	0	63476	
5964	0	63388	
5965	0	63256	
5966	0	60596	
5967	0	52644	
5968	0	46260	
5969	0	41240	
5970	0	37144	
5971	0	33520	
5972	0	30536	
5973	0	28524	
5974	0	27504	
5975	0	26768	
5976	0	26040	
5977	0	25296	
5978	0	24474	
5979	0	23248	
5980	0	21912	
5981	0	20872	
5982	0	20140	
5983	0	19710	
5984	0	19448	
5985	0	19192	
5986	0	19024	
5987	0	18862	
5988	0	18741	
5989	0	18734	
5990	0	18866	
5991	0	19148	
5992	0	19570	
5993	0	20020	
5994	0	20366	
5995	0	20618	
5996	0	20940	
5997	0	21408	
5998	0	21940	
5999	0	22484	
6000	0	23108	
6001	0	23740	
6002	0	24308	
6003	0	24932	
6004	0	25612	
6005	0	26324	
6006	0	26980	
6007	0	27548	
6008	0	28128	
6009	0	28660	
6010	0	29064	
6011	0	29408	
6012	0	29704	
6013	0	30016	
6014	0	30356	
6015	0	30590	
6016	0	30702	
6017	0	30748	
6018	0	30724	
6019	0	30800	
6020	0	30900	
6021	0	30976	
6022	0	31056	
6023	0	31164	
6024	0	31266	
6025	0	31380	
6026	0	31492	
6027	0	31612	
6028	0	31700	
6029	0	31728	
6030	0	31736	
6031	0	31796	
6032	0	31880	
6033	0	31962	
6034	0	32030	
6035	0	32128	
6036	0	32240	
6037	0	32268	
6038	0	32308	
6039	0	32376	
6040	0	32404	
6041	0	32468	
6042	0	32488	
6043	0	32484	
6044	0	32522	
6045	0	32592	
6046	0	32612	
6047	0	32612	
6048	0	32612	
6049	0	32640	
6050	0	32716	
6051	0	32776	
6052	0	32840	
6053	0	32888	
6054	0	32936	
6055	0	32904	
6056	0	32816	
6057	0	32800	
6058	0	32896	
6059	0	33048	
6060	0	33216	
6061	0	33368	
6062	0	33436	
6063	0	33456	
6064	0	33476	
6065	0	33428	
6066	0	33384	
6067	0	33416	
6068	0	33386	
6069	0	33308	
6070	0	33280	
6071	0	33304	
6072	0	33252	
6073	0	33208	
6074	0	33324	
6075	0	33408	
6076	0	33536	
6077	0	33620	
6078	0	33656	
6079	0	33652	
6080	0	33638	
6081	0	33628	
6082	0	33616	
6083	0	33644	
6084	0	33692	
6085	0	33764	
6086	0	33794	
6087	0	33780	
6088	0	33836	
6089	0	33928	
6090	0	33992	
6091	0	34024	
6092	0	34024	
6093	0	34004	
6094	0	34000	
6095	0	34008	
6096	0	34098	
6097	0	34228	
6098	0	34244	
6099	0	34212	
6100	0	34144	
6101	0	34072	
6102	0	34028	
6103	0	34016	
6104	0	34008	
6105	0	33968	
6106	0	33960	
6107	0	34052	
6108	0	34192	
6109	0	34376	
6110	0	34472	
6111	0	34512	
6112	0	34556	
6113	0	34592	
6114	0	34568	
6115	0	34536	
6116	0	34514	
6117	0	34488	
6118	0	34458	
6119	0	34448	
6120	0	34444	
6121	0	34504	
6122	0	34612	
6123	0	34788	
6124	0	34952	
6125	0	34932	
6126	0	34824	
6127	0	34788	
6128	0	34868	
6129	0	34920	
6130	0	34820	
6131	0	34744	
6132	0	34748	
6133	0	34704	
6134	0	34596	
6135	0	34546	
6136	0	34552	
6137	0	34592	
6138	0	34624	
6139	0	34656	
6140	0	34720	
6141	0	34752	
6142	0	34856	
6143	0	34988	
6144	0	35042	
6145	0	35104	
6146	0	35136	
6147	0	35120	
6148	0	35080	
6149	0	35048	
6150	0	34962	
6151	0	34788	
6152	0	34696	
6153	0	34604	
6154	0	34528	
6155	0	34552	
6156	0	34644	
6157	0	34700	
6158	0	34792	
6159	0	34924	
6160	0	35012	
6161	0	35008	
6162	0	34992	
6163	0	35018	
6164	0	34984	
6165	0	34956	
6166	0	34980	
6167	0	34924	
6168	0	34800	
6169	0	34700	
6170	0	34564	
6171	0	34452	
6172	0	34368	
6173	0	34344	
6174	0	34384	
6175	0	34404	
6176	0	34392	
6177	0	34368	
6178	0	34328	
6179	0	34264	
6180	0	34264	
6181	0	34220	
6182	0	34144	
6183	0	34088	
6184	0	34126	
6185	0	34272	
6186	0	34400	
6187	0	34476	
6188	0	34434	
6189	0	34304	
6190	0	34252	
6191	0	34264	
6192	0	34226	
6193	0	34180	
6194	0	34092	
6195	0	33960	
6196	0	33784	
6197	0	33632	
6198	0	33456	
6199	0	33376	
6200	0	33368	
6201	0	33328	
6202	0	33232	
6203	0	33156	
6204	0	33072	
6205	0	33002	
6206	0	32980	
6207	0	32908	
6208	0	32800	
6209	0	32760	
6210	0	32736	
6211	0	32716	
6212	0	32616	
6213	0	32480	
6214	0	32416	
6215	0	32432	
6216	0	32476	
6217	0	32508	
6218	0	32424	
6219	0	32272	
6220	0	32140	
6221	0	32092	
6222	0	32036	
6223	0	31988	
6224	0	31936	
6225	0	31860	
6226	0	31808	
6227	0	31792	
6228	0	31726	
6229	0	31612	
6230	0	31496	
6231	0	31504	
6232	0	31528	
6233	0	31524	
6234	0	31496	
6235	0	31456	
6236	0	31468	
6237	0	31508	
6238	0	31520	
6239	0	31524	
6240	0	31528	
6241	0	31480	
6242	0	31464	
6243	0	31464	
6244	0	31426	
6245	0	31412	
6246	0	31408	
6247	0	31420	
6248	0	31408	
6249	0	31384	
6250	0	31424	
6251	0	31464	
6252	0	31536	
6253	0	31544	
6254	0	31476	
6255	0	31376	
6256	0	31300	
6257	0	31256	
6258	0	31264	
6259	0	31288	
6260	0	31328	
6261	0	31400	
6262	0	31536	
6263	0	31616	
6264	0	31636	
6265	0	31692	
6266	0	31736	
6267	0	31728	
6268	0	31664	
6269	0	31608	
6270	0	31568	
6271	0	31548	
6272	0	31520	
6273	0	31488	
6274	0	31446	
6275	0	31424	
6276	0	31448	
6277	0	31504	
6278	0	31544	
6279	0	31600	
6280	0	31624	
6281	0	31636	
6282	0	31620	
6283	0	31580	
6284	0	31552	
6285	0	31564	
6286	0	31584	
6287	0	31612	
6288	0	31600	
6289	0	31536	
6290	0	31520	
6291	0	31520	
6292	0	31524	
6293	0	31580	
6294	0	31664	
6295	0	31712	
6296	0	31712	
6297	0	31724	
6298	0	31704	
6299	0	31680	
6300	0	31596	
6301	0	31576	
6302	0	31620	
6303	0	31584	
6304	0	31548	
6305	0	31576	
6306	0	31596	
6307	0	31648	
6308	0	31776	
6309	0	31860	
6310	0	31908	
6311	0	31936	
6312	0	31976	
6313	0	32048	
6314	0	32080	
6315	0	32088	
6316	0	32048	
6317	0	31980	
6318	0	31936	
6319	0	31936	
6320	0	31934	
6321	0	31940	
6322	0	31948	
6323	0	31968	
6324	0	32084	
6325	0	32160	
6326	0	32192	
6327	0	32232	
6328	0	32340	
6329	0	32386	
6330	0	32416	
6331	0	32468	
6332	0	32512	
6333	0	32532	
6334	0	32492	
6335	0	32456	
6336	0	32468	
6337	0	32428	
6338	0	32376	
6339	0	32416	
6340	0	32464	
6341	0	32516	
6342	0	32566	
6343	0	32612	
6344	0	32652	
6345	0	32656	
6346	0	32648	
6347	0	32664	
6348	0	32704	
6349	0	32816	
6350	0	32896	
6351	0	32912	
6352	0	32864	
6353	0	32844	
6354	0	32874	
6355	0	32984	
6356	0	33052	
6357	0	33080	
6358	0	33120	
6359	0	33140	
6360	0	33144	
6361	0	33146	
6362	0	33092	
6363	0	33048	
6364	0	33072	
6365	0	33076	
6366	0	33084	
6367	0	33136	
6368	0	33156	
6369	0	33132	
6370	0	33112	
6371	0	33148	
6372	0	33184	
6373	0	33240	
6374	0	33304	
6375	0	33400	
6376	0	33448	
6377	0	33384	
6378	0	33320	
6379	0	33296	
6380	0	33332	
6381	0	33386	
6382	0	33380	
6383	0	33336	
6384	0	33304	
6385	0	33296	
6386	0	33316	
6387	0	33340	
6388	0	33380	
6389	0	33344	
6390	0	33252	
6391	0	33180	
6392	0	33154	
6393	0	33128	
6394	0	33100	
6395	0	33036	
6396	0	33008	
6397	0	32976	
6398	0	32976	
6399	0	32976	
6400	0	32960	
6401	0	32968	
6402	0	33090	
6403	0	33192	
6404	0	33240	
6405	0	33232	
6406	0	33172	
6407	0	33144	
6408	0	33172	
6409	0	33128	
6410	0	33024	
6411	0	32908	
6412	0	32856	
6413	0	32832	
6414	0	32816	
6415	0	32792	
6416	0	32772	
6417	0	32808	
6418	0	32832	
6419	0	32848	
6420	0	32804	
6421	0	32736	
6422	0	32668	
6423	0	32644	
6424	0	32628	
6425	0	32616	
6426	0	32600	
6427	0	32580	
6428	0	32584	
6429	0	32636	
6430	0	32720	
6431	0	32816	
6432	0	32916	
6433	0	32968	
6434	0	32972	
6435	0	32916	
6436	0	32836	
6437	0	32764	
6438	0	32704	
6439	0	32688	
6440	0	32696	
6441	0	32628	
6442	0	32496	
6443	0	32396	
6444	0	32388	
6445	0	32420	
6446	0	32392	
6447	0	32364	
6448	0	32324	
6449	0	32312	
6450	0	32274	
6451	0	32244	
6452	0	32248	
6453	0	32276	
6454	0	32268	
6455	0	32256	
6456	0	32264	
6457	0	32290	
6458	0	32344	
6459	0	32420	
6460	0	32484	
6461	0	32488	
6462	0	32440	
6463	0	32372	
6464	0	32296	
6465	0	32240	
6466	0	32164	
6467	0	32120	
6468	0	32096	
6469	0	32116	
6470	0	32156	
6471	0	32224	
6472	0	32276	
6473	0	32268	
6474	0	32268	
6475	0	32320	
6476	0	32448	
6477	0	32568	
6478	0	32700	
6479	0	32696	
6480	0	32596	
6481	0	32464	
6482	0	32384	
6483	0	32352	
6484	0	32368	
6485	0	32376	
6486	0	32382	
6487	0	32400	
6488	0	32448	
6489	0	32528	
6490	0	32624	
6491	0	32728	
6492	0	32728	
6493	0	32640	
6494	0	32532	
6495	0	32468	
6496	0	32416	
6497	0	32420	
6498	0	32408	
6499	0	32400	
6500	0	32388	
6501	0	32396	
6502	0	32440	
6503	0	32520	
6504	0	32552	
6505	0	32568	
6506	0	32628	
6507	0	32706	
6508	0	32768	
6509	0	32824	
6510	0	32868	
6511	0	32928	
6512	0	32960	
6513	0	33004	
6514	0	33088	
6515	0	33152	
6516	0	33248	
6517	0	33352	
6518	0	33408	
6519	0	33420	
6520	0	33378	
6521	0	33304	
6522	0	33292	
6523	0	33312	
6524	0	33308	
6525	0	33300	
6526	0	33292	
6527	0	33320	
6528	0	33388	
6529	0	33428	
6530	0	33472	
6531	0	33472	
6532	0	33484	
6533	0	33480	
6534	0	33504	
6535	0	33596	
6536	0	33788	
6537	0	34008	
6538	0	34320	
6539	0	34680	
6540	0	35000	
6541	0	35346	
6542	0	35644	
6543	0	35888	
6544	0	36064	
6545	0	36212	
6546	0	36336	
6547	0	36418	
6548	0	36456	
6549	0	36492	
6550	0	36528	
6551	0	36532	
6552	0	36504	
6553	0	36416	
6554	0	36316	
6555	0	36210	
6556	0	36072	
6557	0	35976	
6558	0	35876	
6559	0	35812	
6560	0	35796	
6561	0	35818	
6562	0	35808	
6563	0	35784	
6564	0	35770	
6565	0	35748	
6566	0	35716	
6567	0	35640	
6568	0	35528	
6569	0	35424	
6570	0	35304	
6571	0	35180	
6572	0	35012	
6573	0	34816	
6574	0	34544	
6575	0	34324	
6576	0	34112	
6577	0	33808	
6578	0	33432	
6579	0	33056	
6580	0	32732	
6581	0	32428	
6582	0	32156	
6583	0	31936	
6584	0	31728	
6585	0	31576	
6586	0	31460	
6587	0	31384	
6588	0	31340	
6589	0	31266	
6590	0	31200	
6591	0	31204	
6592	0	31192	
6593	0	31096	
6594	0	30960	
6595	0	30848	
6596	0	30788	
6597	0	30756	
6598	0	30732	
6599	0	30720	
6600	0	30744	
6601	0	30744	
6602	0	30784	
6603	0	30816	
6604	0	30852	
6605	0	30886	
6606	0	30928	
6607	0	30932	
6608	0	30900	
6609	0	30824	
6610	0	30804	
6611	0	30784	
6612	0	30792	
6613	0	30796	
6614	0	30800	
6615	0	30808	
6616	0	30788	
6617	0	30780	
6618	0	30776	
6619	0	30836	
6620	0	30914	
6621	0	30988	
6622	0	31024	
6623	0	31108	
6624	0	31144	
6625	0	31128	
6626	0	31120	
6627	0	31088	
6628	0	31080	
6629	0	31084	
6630	0	31096	
6631	0	31108	
6632	0	31072	
6633	0	31008	
6634	0	30984	
6635	0	31016	
6636	0	31056	
6637	0	31030	
6638	0	30980	
6639	0	30836	
6640	0	30580	
6641	0	30108	
6642	0	29324	
6643	0	28292	
6644	0	27144	
6645	0	25944	
6646	0	24824	
6647	0	23824	
6648	0	23000	
6649	0	22400	
6650	0	21976	
6651	0	21760	
6652	0	21813	
6653	0	22128	
6654	0	22652	
6655	0	23242	
6656	0	24136	
6657	0	25584	
6658	0	27498	
6659	0	29856	
6660	0	32444	
6661	0	35296	
6662	0	38372	
6663	0	41652	
6664	0	45352	
6665	0	49308	
6666	0	53548	
6667	0	57832	
6668	0	60768	
6669	0	62360	
6670	0	63160	
6671	0	63552	
6672	0	63704	
6673	0	63724	
6674	0	63696	
6675	0	63620	
6676	0	63512	
6677	0	63408	
6678	0	63296	
6679	0	60960	
6680	0	53976	
6681	0	48404	
6682	0	43944	
6683	0	39884	
6684	0	36156	
6685	0	33080	
6686	0	30792	
6687	0	29060	
6688	0	27366	
6689	0	25544	
6690	0	23928	
6691	0	22762	
6692	0	21966	
6693	0	21348	
6694	0	20848	
6695	0	20504	
6696	0	20218	
6697	0	19828	
6698	0	19442	
6699	0	19188	
6700	0	19088	
6701	0	19220	
6702	0	19528	
6703	0	19808	
6704	0	19984	
6705	0	20224	
6706	0	20580	
6707	0	21044	
6708	0	21548	
6709	0	22056	
6710	0	22628	
6711	0	23156	
6712	0	23716	
6713	0	24362	
6714	0	25032	
6715	0	25716	
6716	0	26408	
6717	0	27044	
6718	0	27572	
6719	0	28004	
6720	0	28388	
6721	0	28702	
6722	0	28988	
6723	0	29256	
6724	0	29460	
6725	0	29636	
6726	0	29780	
6727	0	29868	
6728	0	29932	
6729	0	29964	
6730	0	30000	
6731	0	30040	
6732	0	30080	
6733	0	30120	
6734	0	30168	
6735	0	30212	
6736	0	30272	
6737	0	30360	
6738	0	30436	
6739	0	30528	
6740	0	30626	
6741	0	30704	
6742	0	30752	
6743	0	30824	
6744	0	30924	
6745	0	31020	
6746	0	31092	
6747	0	31156	
6748	0	31212	
6749	0	31208	
6750	0	31184	
6751	0	31220	
6752	0	31288	
6753	0	31344	
6754	0	31434	
6755	0	31504	
6756	0	31564	
6757	0	31636	
6758	0	31664	
6759	0	31660	
6760	0	31676	
6761	0	31724	
6762	0	31808	
6763	0	31864	
6764	0	31904	
6765	0	31944	
6766	0	31984	
6767	0	32044	
6768	0	32080	
6769	0	32146	
6770	0	32208	
6771	0	32256	
6772	0	32280	
6773	0	32312	
6774	0	32340	
6775	0	32364	
6776	0	32388	
6777	0	32432	
6778	0	32484	
6779	0	32516	
6780	0	32564	
6781	0	32608	
6782	0	32620	
6783	0	32636	
6784	0	32664	
6785	0	32712	
6786	0	32796	
6787	0	32860	
6788	0	32904	
6789	0	32926	
6790	0	32948	
6791	0	32956	
6792	0	32938	
6793	0	32960	
6794	0	32936	
6795	0	32920	
6796	0	32960	
6797	0	32996	
6798	0	33004	
6799	0	33028	
6800	0	33080	
6801	0	33102	
6802	0	33088	
6803	0	33072	
6804	0	33064	
6805	0	33096	
6806	0	33192	
6807	0	33276	
6808	0	33340	
6809	0	33356	
6810	0	33336	
6811	0	33328	
6812	0	33328	
6813	0	33328	
6814	0	33356	
6815	0	33384	
6816	0	33416	
6817	0	33452	
6818	0	33448	
6819	0	33476	
6820	0	33520	
6821	0	33536	
6822	0	33504	
6823	0	33492	
6824	0	33524	
6825	0	33564	
6826	0	33572	
6827	0	33592	
6828	0	33616	
6829	0	33652	
6830	0	33660	
6831	0	33656	
6832	0	33648	
6833	0	33608	
6834	0	33576	
6835	0	33570	
6836	0	33584	
6837	0	33608	
6838	0	33628	
6839	0	33680	
6840	0	33716	
6841	0	33740	
6842	0	33756	
6843	0	33792	
6844	0	33792	
6845	0	33756	
6846	0	33752	
6847	0	33736	
6848	0	33752	
6849	0	33744	
6850	0	33752	
6851	0	33748	
6852	0	33740	
6853	0	33748	
6854	0	33756	
6855	0	33720	
6856	0	33644	
6857	0	33656	
6858	0	33704	
6859	0	33720	
6860	0	33704	
6861	0	33720	
6862	0	33728	
6863	0	33668	
6864	0	33612	
6865	0	33588	
6866	0	33544	
6867	0	33516	
6868	0	33472	
6869	0	33458	
6870	0	33444	
6871	0	33452	
6872	0	33420	
6873	0	33384	
6874	0	33352	
6875	0	33328	
6876	0	33328	
6877	0	33344	
6878	0	33340	
6879	0	33350	
6880	0	33372	
6881	0	33376	
6882	0	33428	
6883	0	33460	
6884	0	33488	
6885	0	33524	
6886	0	33568	
6887	0	33600	
6888	0	33648	
6889	0	33668	
6890	0	33628	
6891	0	33568	
6892	0	33528	
6893	0	33504	
6894	0	33508	
6895	0	33506	
6896	0	33520	
6897	0	33516	
6898	0	33520	
6899	0	33524	
6900	0	33548	
6901	0	33568	
6902	0	33556	
6903	0	33540	
6904	0	33552	
6905	0	33568	
6906	0	33576	
6907	0	33568	
6908	0	33544	
6909	0	33484	
6910	0	33452	
6911	0	33428	
6912	0	33436	
6913	0	33416	
6914	0	33400	
6915	0	33376	
6916	0	33328	
6917	0	33286	
6918	0	33236	
6919	0	33164	
6920	0	33056	
6921	0	32960	
6922	0	32912	
6923	0	32866	
6924	0	32804	
6925	0	32772	
6926	0	32746	
6927	0	32708	
6928	0	32680	
6929	0	32656	
6930	0	32640	
6931	0	32584	
6932	0	32512	
6933	0	32424	
6934	0	32336	
6935	0	32296	
6936	0	32276	
6937	0	32252	
6938	0	32224	
6939	0	32180	
6940	0	32172	
6941	0	32168	
6942	0	32156	
6943	0	32152	
6944	0	32148	
6945	0	32132	
6946	0	32056	
6947	0	31988	
6948	0	31976	
6949	0	31972	
6950	0	31948	
6951	0	31960	
6952	0	31928	
6953	0	31916	
6954	0	31888	
6955	0	31880	
6956	0	31880	
6957	0	31912	
6958	0	31870	
6959	0	31828	
6960	0	31816	
6961	0	31800	
6962	0	31796	
6963	0	31812	
6964	0	31864	
6965	0	31912	
6966	0	31912	
6967	0	31908	
6968	0	31872	
6969	0	31856	
6970	0	31840	
6971	0	31824	
6972	0	31816	
6973	0	31784	
6974	0	31716	
6975	0	31688	
6976	0	31684	
6977	0	31698	
6978	0	31728	
6979	0	31736	
6980	0	31748	
6981	0	31824	
6982	0	31936	
6983	0	32032	
6984	0	32080	
6985	0	32116	
6986	0	32152	
6987	0	32168	
6988	0	32128	
6989	0	32076	
6990	0	32100	
6991	0	32096	
6992	0	32088	
6993	0	32080	
6994	0	32036	
6995	0	31982	
6996	0	31916	
6997	0	31848	
6998	0	31820	
6999	0	31824	
7000	0	31860	
7001	0	31880	
7002	0	31908	
7003	0	31952	
7004	0	32056	
7005	0	32172	
7006	0	32236	
7007	0	32260	
7008	0	32224	
7009	0	32218	
7010	0	32284	
7011	0	32348	
7012	0	32392	
7013	0	32424	
7014	0	32428	
7015	0	32396	
7016	0	32360	
7017	0	32304	
7018	0	32320	
7019	0	32368	
7020	0	32388	
7021	0	32364	
7022	0	32352	
7023	0	32352	
7024	0	32328	
7025	0	32324	
7026	0	32336	
7027	0	32360	
7028	0	32396	
7029	0	32408	
7030	0	32408	
7031	0	32400	
7032	0	32412	
7033	0	32436	
7034	0	32432	
7035	0	32428	
7036	0	32460	
7037	0	32488	
7038	0	32520	
7039	0	32548	
7040	0	32560	
7041	0	32534	
7042	0	32548	
7043	0	32516	
7044	0	32520	
7045	0	32560	
7046	0	32582	
7047	0	32612	
7048	0	32640	
7049	0	32634	
7050	0	32636	
7051	0	32668	
7052	0	32712	
7053	0	32764	
7054	0	32764	
7055	0	32796	
7056	0	32836	
7057	0	32860	
7058	0	32896	
7059	0	32916	
7060	0	32928	
7061	0	32932	
7062	0	32944	
7063	0	32956	
7064	0	32972	
7065	0	32932	
7066	0	32904	
7067	0	32904	
7068	0	32904	
7069	0	32940	
7070	0	33000	
7071	0	33032	
7072	0	33024	
7073	0	33016	
7074	0	32992	
7075	0	32960	
7076	0	32964	
7077	0	32968	
7078	0	32938	
7079	0	32888	
7080	0	32880	
7081	0	32924	
7082	0	32956	
7083	0	33020	
7084	0	33052	
7085	0	33064	
7086	0	33056	
7087	0	33068	
7088	0	33092	
7089	0	33134	
7090	0	33132	
7091	0	33120	
7092	0	33104	
7093	0	33084	
7094	0	33072	
7095	0	33052	
7096	0	33024	
7097	0	33000	
7098	0	32972	
7099	0	32936	
7100	0	32928	
7101	0	32928	
7102	0	32928	
7103	0	32936	
7104	0	32956	
7105	0	32916	
7106	0	32876	
7107	0	32864	
7108	0	32828	
7109	0	32784	
7110	0	32772	
7111	0	32774	
7112	0	32760	
7113	0	32744	
7114	0	32716	
7115	0	32692	
7116	0	32640	
7117	0	32612	
7118	0	32636	
7119	0	32676	
7120	0	32712	
7121	0	32768	
7122	0	32792	
7123	0	32824	
7124	0	32834	
7125	0	32824	
7126	0	32860	
7127	0	32896	
7128	0	32900	
7129	0	32864	
7130	0	32856	
7131	0	32900	
7132	0	32948	
7133	0	32948	
7134	0	32896	
7135	0	32884	
7136	0	32896	
7137	0	32896	
7138	0	32876	
7139	0	32868	
7140	0	32876	
7141	0	32856	
7142	0	32820	
7143	0	32796	
7144	0	32780	
7145	0	32728	
7146	0	32664	
7147	0	32652	
7148	0	32632	
7149	0	32608	
7150	0	32600	
7151	0	32648	
7152	0	32680	
7153	0	32704	
7154	0	32684	
7155	0	32632	
7156	0	32604	
7157	0	32576	
7158	0	32584	
7159	0	32620	
7160	0	32662	
7161	0	32652	
7162	0	32644	
7163	0	32640	
7164	0	32620	
7165	0	32608	
7166	0	32588	
7167	0	32564	
7168	0	32506	
7169	0	32444	
7170	0	32398	
7171	0	32384	
7172	0	32372	
7173	0	32372	
7174	0	32380	
7175	0	32376	
7176	0	32382	
7177	0	32392	
7178	0	32384	
7179	0	32368	
7180	0	32380	
7181	0	32424	
7182	0	32484	
7183	0	32552	
7184	0	32592	
7185	0	32572	
7186	0	32588	
7187	0	32596	
7188	0	32588	
7189	0	32604	
7190	0	32588	
7191	0	32508	
7192	0	32444	
7193	0	32448	
7194	0	32464	
7195	0	32480	
7196	0	32492	
7197	0	32500	
7198	0	32474	
7199	0	32388	
7200	0	32336	
7201	0	32352	
7202	0	32364	
7203	0	32388	
7204	0	32408	
7205	0	32452	
7206	0	32520	
7207	0	32560	
7208	0	32556	
7209	0	32538	
7210	0	32540	
7211	0	32548	
7212	0	32572	
7213	0	32520	
7214	0	32488	
7215	0	32452	
7216	0	32432	
7217	0	32448	
7218	0	32464	
7219	0	32488	
7220	0	32496	
7221	0	32522	
7222	0	32512	
7223	0	32496	
7224	0	32480	
7225	0	32448	
7226	0	32444	
7227	0	32434	
7228	0	32376	
7229	0	32352	
7230	0	32356	
7231	0	32384	
7232	0	32382	
7233	0	32384	
7234	0	32392	
7235	0	32426	
7236	0	32448	
7237	0	32476	
7238	0	32540	
7239	0	32640	
7240	0	32712	
7241	0	32788	
7242	0	32852	
7243	0	32872	
7244	0	32940	
7245	0	33032	
7246	0	33122	
7247	0	33208	
7248	0	33272	
7249	0	33356	
7250	0	33468	
7251	0	33532	
7252	0	33578	
7253	0	33624	
7254	0	33584	
7255	0	33530	
7256	0	33496	
7257	0	33472	
7258	0	33460	
7259	0	33440	
7260	0	33458	
7261	0	33536	
7262	0	33592	
7263	0	33624	
7264	0	33620	
7265	0	33628	
7266	0	33712	
7267	0	33864	
7268	0	34096	
7269	0	34336	
7270	0	34596	
7271	0	34904	
7272	0	35244	
7273	0	35576	
7274	0	35840	
7275	0	36032	
7276	0	36208	
7277	0	36336	
7278	0	36460	
7279	0	36522	
7280	0	36576	
7281	0	36636	
7282	0	36660	
7283	0	36616	
7284	0	36536	
7285	0	36460	
7286	0	36380	
7287	0	36260	
7288	0	36128	
7289	0	36008	
7290	0	35904	
7291	0	35852	
7292	0	35856	
7293	0	35888	
7294	0	35932	
7295	0	35928	
7296	0	35948	
7297	0	35964	
7298	0	35916	
7299	0	35872	
7300	0	35780	
7301	0	35680	
7302	0	35560	
7303	0	35420	
7304	0	35216	
7305	0	34956	
7306	0	34664	
7307	0	34442	
7308	0	34160	
7309	0	33764	
7310	0	33324	
7311	0	32928	
7312	0	32578	
7313	0	32292	
7314	0	32064	
7315	0	31868	
7316	0	31716	
7317	0	31600	
7318	0	31580	
7319	0	31528	
7320	0	31456	
7321	0	31404	
7322	0	31340	
7323	0	31282	
7324	0	31208	
7325	0	31124	
7326	0	31032	
7327	0	30948	
7328	0	30896	
7329	0	30828	
7330	0	30748	
7331	0	30720	
7332	0	30720	
7333	0	30712	
7334	0	30692	
7335	0	30672	
7336	0	30644	
7337	0	30644	
7338	0	30638	
7339	0	30636	
7340	0	30660	
7341	0	30696	
7342	0	30720	
7343	0	30716	
7344	0	30736	
7345	0	30766	
7346	0	30786	
7347	0	30836	
7348	0	30914	
7349	0	30970	
7350	0	31000	
7351	0	31020	
7352	0	31026	
7353	0	31012	
7354	0	31000	
7355	0	31008	
7356	0	30996	
7357	0	31008	
7358	0	31008	
7359	0	31016	
7360	0	31010	
7361	0	30980	
7362	0	30944	
7363	0	30936	
7364	0	30920	
7365	0	30936	
7366	0	31024	
7367	0	31088	
7368	0	31072	
7369	0	30984	
7370	0	30856	
7371	0	30652	
7372	0	30312	
7373	0	29696	
7374	0	28802	
7375	0	27772	
7376	0	26672	
7377	0	25528	
7378	0	24448	
7379	0	23492	
7380	0	22748	
7381	0	22160	
7382	0	21784	
7383	0	21648	
7384	0	21776	
7385	0	22176	
7386	0	22672	
7387	0	23256	
7388	0	24312	
7389	0	25898	
7390	0	27920	
7391	0	30344	
7392	0	33034	
7393	0	36124	
7394	0	39404	
7395	0	42972	
7396	0	46980	
7397	0	51168	
7398	0	55580	
7399	0	59520	
7400	0	61844	
7401	0	63076	
7402	0	63684	
7403	0	63964	
7404	0	64064	
7405	0	64064	
7406	0	63992	
7407	0	63896	
7408	0	63800	
7409	0	63684	
7410	0	63560	
7411	0	60824	
7412	0	54508	
7413	0	49656	
7414	0	45744	
7415	0	41952	
7416	0	38272	
7417	0	35184	
7418	0	32728	
7419	0	30488	
7420	0	28064	
7421	0	25872	
7422	0	24250	
7423	0	23044	
7424	0	22184	
7425	0	21488	
7426	0	21004	
7427	0	20576	
7428	0	20126	
7429	0	19688	
7430	0	19446	
7431	0	19412	
7432	0	19600	
7433	0	19862	
7434	0	20090	
7435	0	20274	
7436	0	20472	
7437	0	20772	
7438	0	21208	
7439	0	21708	
7440	0	22256	
7441	0	22776	
7442	0	23276	
7443	0	23784	
7444	0	24348	
7445	0	24996	
7446	0	25704	
7447	0	26380	
7448	0	26928	
7449	0	27372	
7450	0	27780	
7451	0	28128	
7452	0	28456	
7453	0	28744	
7454	0	28948	
7455	0	29144	
7456	0	29318	
7457	0	29432	
7458	0	29536	
7459	0	29656	
7460	0	29740	
7461	0	29808	
7462	0	29860	
7463	0	29856	
7464	0	29880	
7465	0	29922	
7466	0	30004	
7467	0	30084	
7468	0	30154	
7469	0	30258	
7470	0	30328	
7471	0	30392	
7472	0	30480	
7473	0	30562	
7474	0	30632	
7475	0	30696	
7476	0	30772	
7477	0	30840	
7478	0	30916	
7479	0	30972	
7480	0	31040	
7481	0	31092	
7482	0	31132	
7483	0	31168	
7484	0	31256	
7485	0	31332	
7486	0	31404	
7487	0	31448	
7488	0	31432	
7489	0	31436	
7490	0	31474	
7491	0	31540	
7492	0	31600	
7493	0	31616	
7494	0	31664	
7495	0	31756	
7496	0	31800	
7497	0	31852	
7498	0	31876	
7499	0	31888	
7500	0	31896	
7501	0	31912	
7502	0	31920	
7503	0	31914	
7504	0	31936	
7505	0	31992	
7506	0	32036	
7507	0	32040	
7508	0	32056	
7509	0	32120	
7510	0	32152	
7511	0	32170	
7512	0	32160	
7513	0	32156	
7514	0	32192	
7515	0	32232	
7516	0	32244	
7517	0	32228	
7518	0	32252	
7519	0	32296	
7520	0	32352	
7521	0	32412	
7522	0	32440	
7523	0	32488	
7524	0	32524	
7525	0	32552	
7526	0	32560	
7527	0	32578	
7528	0	32624	
7529	0	32652	
7530	0	32704	
7531	0	32704	
7532	0	32696	
7533	0	32740	
7534	0	32784	
7535	0	32832	
7536	0	32868	
7537	0	32872	
7538	0	32876	
7539	0	32904	
7540	0	32936	
7541	0	32992	
7542	0	32996	
7543	0	33016	
7544	0	33016	
7545	0	33044	
7546	0	33084	
7547	0	33092	
7548	0	33112	
7549	0	33130	
7550	0	33124	
7551	0	33148	
7552	0	33160	
7553	0	33164	
7554	0	33148	
7555	0	33136	
7556	0	33200	
7557	0	33268	
7558	0	33256	
7559	0	33264	
7560	0	33244	
7561	0	33226	
7562	0	33296	
7563	0	33328	
7564	0	33376	
7565	0	33448	
7566	0	33504	
7567	0	33544	
7568	0	33532	
7569	0	33520	
7570	0	33528	
7571	0	33544	
7572	0	33564	
7573	0	33556	
7574	0	33568	
7575	0	33568	
7576	0	33552	
7577	0	33520	
7578	0	33485	
7579	0	33460	
7580	0	33428	
7581	0	33390	
7582	0	33388	
7583	0	33396	
7584	0	33384	
7585	0	33440	
7586	0	33512	
7587	0	33520	
7588	0	33508	
7589	0	33472	
7590	0	33416	
7591	0	33404	
7592	0	33418	
7593	0	33428	
7594	0	33478	
7595	0	33512	
7596	0	33492	
7597	0	33488	
7598	0	33488	
7599	0	33480	
7600	0	33512	
7601	0	33544	
7602	0	33568	
7603	0	33548	
7604	0	33496	
7605	0	33484	
7606	0	33514	
7607	0	33544	
7608	0	33584	
7609	0	33616	
7610	0	33596	
7611	0	33548	
7612	0	33568	
7613	0	33576	
7614	0	33612	
7615	0	33604	
7616	0	33552	
7617	0	33524	
7618	0	33524	
7619	0	33576	
7620	0	33648	
7621	0	33664	
7622	0	33708	
7623	0	33744	
7624	0	33768	
7625	0	33792	
7626	0	33782	
7627	0	33758	
7628	0	33736	
7629	0	33736	
7630	0	33752	
7631	0	33744	
7632	0	33752	
7633	0	33752	
7634	0	33760	
7635	0	33776	
7636	0	33768	
7637	0	33760	
7638	0	33764	
7639	0	33780	
7640	0	33768	
7641	0	33764	
7642	0	33728	
7643	0	33652	
7644	0	33572	
7645	0	33512	
7646	0	33432	
7647	0	33312	
7648	0	33256	
7649	0	33200	
7650	0	33104	
7651	0	32972	
7652	0	32908	
7653	0	32868	
7654	0	32840	
7655	0	32780	
7656	0	32740	
7657	0	32712	
7658	0	32680	
7659	0	32596	
7660	0	32568	
7661	0	32588	
7662	0	32536	
7663	0	32480	
7664	0	32448	
7665	0	32416	
7666	0	32416	
7667	0	32400	
7668	0	32376	
7669	0	32336	
7670	0	32272	
7671	0	32232	
7672	0	32172	
7673	0	32128	
7674	0	32088	
7675	0	32064	
7676	0	32072	
7677	0	32096	
7678	0	32096	
7679	0	32046	
7680	0	31928	
7681	0	31864	
7682	0	31845	
7683	0	31820	
7684	0	31820	
7685	0	31824	
7686	0	31820	
7687	0	31816	
7688	0	31832	
7689	0	31808	
7690	0	31800	
7691	0	31816	
7692	0	31856	
7693	0	31884	
7694	0	31908	
7695	0	31920	
7696	0	31880	
7697	0	31848	
7698	0	31844	
7699	0	31832	
7700	0	31836	
7701	0	31852	
7702	0	31836	
7703	0	31818	
7704	0	31816	
7705	0	31822	
7706	0	31840	
7707	0	31820	
7708	0	31818	
7709	0	31848	
7710	0	31868	
7711	0	31880	
7712	0	31944	
7713	0	31952	
7714	0	31960	
7715	0	31996	
7716	0	32008	
7717	0	31980	
7718	0	31982	
7719	0	31960	
7720	0	31932	
7721	0	31934	
7722	0	31936	
7723	0	31920	
7724	0	31920	
7725	0	31924	
7726	0	31860	
7727	0	31820	
7728	0	31832	
7729	0	31858	
7730	0	31872	
7731	0	31904	
7732	0	31968	
7733	0	32074	
7734	0	32152	
7735	0	32188	
7736	0	32220	
7737	0	32232	
7738	0	32200	
7739	0	32192	
7740	0	32208	
7741	0	32236	
7742	0	32244	
7743	0	32208	
7744	0	32176	
7745	0	32184	
7746	0	32228	
7747	0	32256	
7748	0	32252	
7749	0	32240	
7750	0	32236	
7751	0	32260	
7752	0	32296	
7753	0	32320	
7754	0	32332	
7755	0	32328	
7756	0	32336	
7757	0	32332	
7758	0	32272	
7759	0	32292	
7760	0	32352	
7761	0	32428	
7762	0	32488	
7763	0	32548	
7764	0	32596	
7765	0	32614	
7766	0	32642	
7767	0	32652	
7768	0	32610	
7769	0	32588	
7770	0	32568	
7771	0	32564	
7772	0	32544	
7773	0	32552	
7774	0	32584	
7775	0	32600	
7776	0	32600	
7777	0	32632	
7778	0	32672	
7779	0	32680	
7780	0	32716	
7781	0	32714	
7782	0	32716	
7783	0	32768	
7784	0	32792	
7785	0	32812	
7786	0	32844	
7787	0	32894	
7788	0	32914	
7789	0	32904	
7790	0	32884	
7791	0	32847	
7792	0	32840	
7793	0	32848	
7794	0	32868	
7795	0	32912	
7796	0	32964	
7797	0	32980	
7798	0	33020	
7799	0	33032	
7800	0	33042	
7801	0	33040	
7802	0	33040	
7803	0	33060	
7804	0	33114	
7805	0	33200	
7806	0	33232	
7807	0	33256	
7808	0	33248	
7809	0	33204	
7810	0	33184	
7811	0	33168	
7812	0	33156	
7813	0	33148	
7814	0	33124	
7815	0	33116	
7816	0	33128	
7817	0	33132	
7818	0	33152	
7819	0	33188	
7820	0	33188	
7821	0	33136	
7822	0	33096	
7823	0	33100	
7824	0	33044	
7825	0	32956	
7826	0	33004	
7827	0	33096	
7828	0	33146	
7829	0	33164	
7830	0	33152	
7831	0	33144	
7832	0	33128	
7833	0	33092	
7834	0	33068	
7835	0	33096	
7836	0	33136	
7837	0	33148	
7838	0	33156	
7839	0	33160	
7840	0	33140	
7841	0	33076	
7842	0	33072	
7843	0	33056	
7844	0	33040	
7845	0	33040	
7846	0	33068	
7847	0	33076	
7848	0	33052	
7849	0	33004	
7850	0	32952	
7851	0	32952	
7852	0	32912	
7853	0	32908	
7854	0	32904	
7855	0	32902	
7856	0	32932	
7857	0	32948	
7858	0	32948	
7859	0	32922	
7860	0	32904	
7861	0	32872	
7862	0	32824	
7863	0	32812	
7864	0	32784	
7865	0	32756	
7866	0	32778	
7867	0	32848	
7868	0	32868	
7869	0	32840	
7870	0	32844	
7871	0	32788	
7872	0	32736	
7873	0	32720	
7874	0	32704	
7875	0	32678	
7876	0	32668	
7877	0	32676	
7878	0	32668	
7879	0	32688	
7880	0	32692	
7881	0	32704	
7882	0	32716	
7883	0	32724	
7884	0	32712	
7885	0	32736	
7886	0	32744	
7887	0	32730	
7888	0	32760	
7889	0	32840	
7890	0	32868	
7891	0	32848	
7892	0	32794	
7893	0	32736	
7894	0	32660	
7895	0	32620	
7896	0	32608	
7897	0	32600	
7898	0	32620	
7899	0	32648	
7900	0	32672	
7901	0	32656	
7902	0	32648	
7903	0	32672	
7904	0	32712	
7905	0	32708	
7906	0	32688	
7907	0	32650	
7908	0	32596	
7909	0	32592	
7910	0	32568	
7911	0	32576	
7912	0	32602	
7913	0	32588	
7914	0	32564	
7915	0	32536	
7916	0	32480	
7917	0	32432	
7918	0	32416	
7919	0	32424	
7920	0	32472	
7921	0	32488	
7922	0	32508	
7923	0	32544	
7924	0	32576	
7925	0	32584	
7926	0	32548	
7927	0	32548	
7928	0	32556	
7929	0	32604	
7930	0	32680	
7931	0	32720	
7932	0	32758	
7933	0	32744	
7934	0	32684	
7935	0	32660	
7936	0	32640	
7937	0	32632	
7938	0	32580	
7939	0	32564	
7940	0	32576	
7941	0	32592	
7942	0	32620	
7943	0	32620	
7944	0	32608	
7945	0	32560	
7946	0	32512	
7947	0	32528	
7948	0	32544	
7949	0	32556	
7950	0	32568	
7951	0	32556	
7952	0	32532	
7953	0	32552	
7954	0	32560	
7955	0	32564	
7956	0	32548	
7957	0	32544	
7958	0	32514	
7959	0	32512	
7960	0	32472	
7961	0	32456	
7962	0	32492	
7963	0	32532	
7964	0	32564	
7965	0	32604	
7966	0	32652	
7967	0	32684	
7968	0	32668	
7969	0	32648	
7970	0	32660	
7971	0	32666	
7972	0	32640	
7973	0	32592	
7974	0	32564	
7975	0	32552	
7976	0	32528	
7977	0	32528	
7978	0	32532	
7979	0	32516	
7980	0	32472	
7981	0	32448	
7982	0	32456	
7983	0	32528	
7984	0	32556	
7985	0	32576	
7986	0	32590	
7987	0	32628	
7988	0	32636	
7989	0	32628	
7990	0	32584	
7991	0	32548	
7992	0	32532	
7993	0	32532	
7994	0	32556	
7995	0	32532	
7996	0	32504	
7997	0	32452	
7998	0	32432	
7999	0	32400	
8000	0	32402	
8001	0	32432	
8002	0	32464	
8003	0	32540	
8004	0	32548	
8005	0	32608	
8006	0	32684	
8007	0	32734	
8008	0	32768	
8009	0	32724	
8010	0	32676	
8011	0	32660	
8012	0	32672	
8013	0	32684	
8014	0	32696	
8015	0	32708	
8016	0	32724	
8017	0	32752	
8018	0	32796	
8019	0	32816	
8020	0	32836	
8021	0	32884	
8022	0	32936	
8023	0	32968	
8024	0	33056	
8025	0	33184	
8026	0	33264	
8027	0	33304	
8028	0	33356	
8029	0	33484	
8030	0	33612	
8031	0	33684	
8032	0	33704	
8033	0	33740	
8034	0	33740	
8035	0	33678	
8036	0	33640	
8037	0	33652	
8038	0	33716	
8039	0	33776	
8040	0	33848	
8041	0	33884	
8042	0	33900	
8043	0	33884	
8044	0	33890	
8045	0	33868	
8046	0	33876	
8047	0	33960	
8048	0	34188	
8049	0	34492	
8050	0	34784	
8051	0	35068	
8052	0	35384	
8053	0	35708	
8054	0	35992	
8055	0	36208	
8056	0	36352	
8057	0	36488	
8058	0	36616	
8059	0	36704	
8060	0	36720	
8061	0	36700	
8062	0	36696	
8063	0	36712	
8064	0	36692	
8065	0	36640	
8066	0	36570	
8067	0	36512	
8068	0	36416	
8069	0	36292	
8070	0	36168	
8071	0	36104	
8072	0	36064	
8073	0	36072	
8074	0	36060	
8075	0	36044	
8076	0	36020	
8077	0	35980	
8078	0	35912	
8079	0	35808	
8080	0	35720	
8081	0	35624	
8082	0	35492	
8083	0	35330	
8084	0	35120	
8085	0	34912	
8086	0	34664	
8087	0	34424	
8088	0	34136	
8089	0	33736	
8090	0	33304	
8091	0	32916	
8092	0	32600	
8093	0	32304	
8094	0	32080	
8095	0	31956	
8096	0	31876	
8097	0	31832	
8098	0	31796	
8099	0	31744	
8100	0	31708	
8101	0	31716	
8102	0	31712	
8103	0	31640	
8104	0	31568	
8105	0	31472	
8106	0	31380	
8107	0	31264	
8108	0	31148	
8109	0	31092	
8110	0	31044	
8111	0	30984	
8112	0	30948	
8113	0	30920	
8114	0	30940	
8115	0	30952	
8116	0	30984	
8117	0	31008	
8118	0	31036	
8119	0	31050	
8120	0	31056	
8121	0	31072	
8122	0	31064	
8123	0	31068	
8124	0	31032	
8125	0	30984	
8126	0	30988	
8127	0	31036	
8128	0	31076	
8129	0	31088	
8130	0	31092	
8131	0	31116	
8132	0	31124	
8133	0	31118	
8134	0	31136	
8135	0	31136	
8136	0	31144	
8137	0	31128	
8138	0	31148	
8139	0	31172	
8140	0	31200	
8141	0	31240	
8142	0	31268	
8143	0	31296	
8144	0	31304	
8145	0	31296	
8146	0	31252	
8147	0	31216	
8148	0	31148	
8149	0	31048	
8150	0	30836	
8151	0	30552	
8152	0	30156	
8153	0	29480	
8154	0	28544	
8155	0	27468	
8156	0	26356	
8157	0	25232	
8158	0	24192	
8159	0	23252	
8160	0	22500	
8161	0	21982	
8162	0	21660	
8163	0	21584	
8164	0	21796	
8165	0	22248	
8166	0	22816	
8167	0	23492	
8168	0	24640	
8169	0	26338	
8170	0	28500	
8171	0	30972	
8172	0	33738	
8173	0	36836	
8174	0	40108	
8175	0	43692	
8176	0	47544	
8177	0	51552	
8178	0	55776	
8179	0	59616	
8180	0	61964	
8181	0	63208	
8182	0	63840	
8183	0	64096	
8184	0	64200	
8185	0	64188	
8186	0	64120	
8187	0	64044	
8188	0	63944	
8189	0	63816	
8190	0	63696	
8191	0	58808	
8192	0	53324	
8193	0	49060	
8194	0	45236	
8195	0	41592	
8196	0	38352	
8197	0	35704	
8198	0	33512	
8199	0	31400	
8200	0	29132	
8201	0	26992	
8202	0	25350	
8203	0	24104	
8204	0	23124	
8205	0	22268	
8206	0	21700	
8207	0	21186	
8208	0	20646	
8209	0	20094	
8210	0	19712	
8211	0	19564	
8212	0	19684	
8213	0	20000	
8214	0	20240	
8215	0	20470	
8216	0	20664	
8217	0	20968	
8218	0	21390	
8219	0	21816	
8220	0	22286	
8221	0	22784	
8222	0	23264	
8223	0	23756	
8224	0	24268	
8225	0	24840	
8226	0	25482	
8227	0	26156	
8228	0	26728	
8229	0	27212	
8230	0	27600	
8231	0	27988	
8232	0	28352	
8233	0	28648	
8234	0	28856	
8235	0	29032	
8236	0	29160	
8237	0	29268	
8238	0	29348	
8239	0	29416	
8240	0	29464	
8241	0	29512	
8242	0	29590	
8243	0	29652	
8244	0	29696	
8245	0	29772	
8246	0	29872	
8247	0	29960	
8248	0	30032	
8249	0	30124	
8250	0	30212	
8251	0	30296	
8252	0	30374	
8253	0	30428	
8254	0	30480	
8255	0	30532	
8256	0	30592	
8257	0	30676	
8258	0	30756	
8259	0	30828	
8260	0	30864	
8261	0	30888	
8262	0	30932	
8263	0	31000	
8264	0	31040	
8265	0	31072	
8266	0	31124	
8267	0	31196	
8268	0	31268	
8269	0	31300	
8270	0	31296	
8271	0	31280	
8272	0	31284	
8273	0	31330	
8274	0	31448	
8275	0	31524	
8276	0	31584	
8277	0	31636	
8278	0	31662	
8279	0	31680	
8280	0	31708	
8281	0	31724	
8282	0	31768	
8283	0	31816	
8284	0	31872	
8285	0	31968	
8286	0	32024	
8287	0	32032	
8288	0	32064	
8289	0	32108	
8290	0	32160	
8291	0	32176	
8292	0	32160	
8293	0	32170	
8294	0	32202	
8295	0	32264	
8296	0	32316	
8297	0	32410	
8298	0	32460	
8299	0	32484	
8300	0	32436	
8301	0	32412	
8302	0	32406	
8303	0	32400	
8304	0	32432	
8305	0	32508	
8306	0	32616	
8307	0	32752	
8308	0	32780	
8309	0	32728	
8310	0	32688	
8311	0	32660	
8312	0	32632	
8313	0	32588	
8314	0	32572	
8315	0	32588	
8316	0	32612	
8317	0	32616	
8318	0	32622	
8319	0	32608	
8320	0	32648	
8321	0	32720	
8322	0	32772	
8323	0	32842	
8324	0	32852	
8325	0	32832	
8326	0	32836	
8327	0	32904	
8328	0	32972	
8329	0	33016	
8330	0	33068	
8331	0	33112	
8332	0	33188	
8333	0	33228	
8334	0	33272	
8335	0	33320	
8336	0	33336	
8337	0	33328	
8338	0	33276	
8339	0	33268	
8340	0	33300	
8341	0	33340	
8342	0	33324	
8343	0	33344	
8344	0	33360	
8345	0	33384	
8346	0	33412	
8347	0	33376	
8348	0	33304	
8349	0	33252	
8350	0	33240	
8351	0	33252	
8352	0	33228	
8353	0	33264	
8354	0	33316	
8355	0	33364	
8356	0	33408	
8357	0	33492	
8358	0	33552	
8359	0	33594	
8360	0	33588	
8361	0	33538	
8362	0	33456	
8363	0	33428	
8364	0	33492	
8365	0	33520	
8366	0	33476	
8367	0	33436	
8368	0	33372	
8369	0	33364	
8370	0	33348	
8371	0	33356	
8372	0	33390	
8373	0	33444	
8374	0	33500	
8375	0	33536	
8376	0	33568	
8377	0	33616	
8378	0	33664	
8379	0	33722	
8380	0	33792	
8381	0	33796	
8382	0	33808	
8383	0	33816	
8384	0	33796	
8385	0	33736	
8386	0	33668	
8387	0	33602	
8388	0	33578	
8389	0	33562	
8390	0	33564	
8391	0	33584	
8392	0	33552	
8393	0	33544	
8394	0	33558	
8395	0	33568	
8396	0	33580	
8397	0	33588	
8398	0	33592	
8399	0	33568	
8400	0	33512	
8401	0	33484	
8402	0	33512	
8403	0	33584	
8404	0	33692	
8405	0	33768	
8406	0	33832	
8407	0	33860	
8408	0	33896	
8409	0	33920	
8410	0	33952	
8411	0	33992	
8412	0	34016	
8413	0	33976	
8414	0	33892	
8415	0	33848	
8416	0	33864	
8417	0	33844	
8418	0	33830	
8419	0	33844	
8420	0	33876	
8421	0	33900	
8422	0	33920	
8423	0	33924	
8424	0	33876	
8425	0	33816	
8426	0	33728	
8427	0	33646	
8428	0	33584	
8429	0	33508	
8430	0	33396	
8431	0	33264	
8432	0	33256	
8433	0	33308	
8434	0	33300	
8435	0	33292	
8436	0	33208	
8437	0	33098	
8438	0	33048	
8439	0	33000	
8440	0	32916	
8441	0	32820	
8442	0	32740	
8443	0	32672	
8444	0	32656	
8445	0	32652	
8446	0	32640	
8447	0	32624	
8448	0	32632	
8449	0	32640	
8450	0	32608	
8451	0	32520	
8452	0	32400	
8453	0	32292	
8454	0	32212	
8455	0	32170	
8456	0	32124	
8457	0	32088	
8458	0	32056	
8459	0	31992	
8460	0	31960	
8461	0	31904	
8462	0	31928	
8463	0	31940	
8464	0	31912	
8465	0	31912	
8466	0	31950	
8467	0	31992	
8468	0	31992	
8469	0	32020	
8470	0	32048	
8471	0	32072	
8472	0	32052	
8473	0	32048	
8474	0	32024	
8475	0	31896	
8476	0	31784	
8477	0	31708	
8478	0	31664	
8479	0	31632	
8480	0	31620	
8481	0	31632	
8482	0	31672	
8483	0	31740	
8484	0	31684	
8485	0	31616	
8486	0	31616	
8487	0	31688	
8488	0	31784	
8489	0	31852	
8490	0	31864	
8491	0	31832	
8492	0	31792	
8493	0	31752	
8494	0	31712	
8495	0	31716	
8496	0	31704	
8497	0	31684	
8498	0	31756	
8499	0	31836	
8500	0	31904	
8501	0	31936	
8502	0	31936	
8503	0	31936	
8504	0	31896	
8505	0	31844	
8506	0	31776	
8507	0	31704	
8508	0	31686	
8509	0	31760	
8510	0	31808	
8511	0	31810	
8512	0	31772	
8513	0	31716	
8514	0	31704	
8515	0	31664	
8516	0	31644	
8517	0	31608	
8518	0	31628	
8519	0	31696	
8520	0	31820	
8521	0	31948	
8522	0	32076	
8523	0	32112	
8524	0	32116	
8525	0	32176	
8526	0	32200	
8527	0	32260	
8528	0	32338	
8529	0	32368	
8530	0	32428	
8531	0	32492	
8532	0	32524	
8533	0	32564	
8534	0	32552	
8535	0	32512	
8536	0	32464	
8537	0	32440	
8538	0	32328	
8539	0	32232	
8540	0	32156	
8541	0	32130	
8542	0	32136	
8543	0	32148	
8544	0	32168	
8545	0	32208	
8546	0	32280	
8547	0	32396	
8548	0	32480	
8549	0	32560	
8550	0	32620	
8551	0	32596	
8552	0	32456	
8553	0	32352	
8554	0	32424	
8555	0	32594	
8556	0	32696	
8557	0	32744	
8558	0	32764	
8559	0	32800	
8560	0	32824	
8561	0	32828	
8562	0	32856	
8563	0	32876	
8564	0	32864	
8565	0	32836	
8566	0	32776	
8567	0	32708	
8568	0	32716	
8569	0	32796	
8570	0	32832	
8571	0	32780	
8572	0	32712	
8573	0	32662	
8574	0	32604	
8575	0	32568	
8576	0	32572	
8577	0	32568	
8578	0	32600	
8579	0	32712	
8580	0	32824	
8581	0	32928	
8582	0	33000	
8583	0	32980	
8584	0	32912	
8585	0	32896	
8586	0	32916	
8587	0	32932	
8588	0	32964	
8589	0	33064	
8590	0	33272	
8591	0	33384	
