# OpenSignals Text File Format. Version 1
# {"00:07:80:4B:15:F7": {"position": 0, "device": "biosignalsplux", "device name": "00:07:80:4B:15:F7", "device connection": "BTH00:07:80:4B:15:F7", "sampling rate": 1000, "resolution": [16], "firmware version": 775, "comments": "", "keywords": "", "mode": 0, "sync interval": 2, "date": "2023-4-27", "time": "17:0:47.457", "channels": [1], "sensor": ["ECG"], "label": ["CH1"], "column": ["nSeq", "DI", "CH1"], "special": [{"SpO2": [80, 40, 5, 4, 3, 3]}, {"SpO2": [80, 40, 5, 4, 3, 3]}, {"SpO2": [80, 40, 5, 4, 3, 3]}, {"SpO2": [80, 40, 5, 4, 3, 3]}, {"SpO2": [80, 40, 5, 4, 3, 3]}, {"SpO2": [80, 40, 5, 4, 3, 3]}, {"SpO2": [80, 40, 5, 4, 3, 3]}, {"SpO2": [80, 40, 5, 4, 3, 3]}], "digital IO": [0, 1], "sleeve color": ["green"], "convertedValues": 0}}
# EndOfHeader
0	0	30798	
1	0	30628	
2	0	30576	
3	0	30592	
4	0	30668	
5	0	30712	
6	0	30720	
7	0	30572	
8	0	30312	
9	0	30220	
10	0	30304	
11	0	30480	
12	0	30522	
13	0	30516	
14	0	30580	
15	0	30880	
16	0	31048	
17	0	30960	
18	0	30924	
19	0	30864	
20	0	30876	
21	0	30920	
22	0	30784	
23	0	30760	
24	0	30760	
25	0	30748	
26	0	30768	
27	0	30724	
28	0	30848	
29	0	31032	
30	0	31196	
31	0	31264	
32	0	31440	
33	0	31612	
34	0	31590	
35	0	31620	
36	0	31716	
37	0	31836	
38	0	31908	
39	0	31972	
40	0	32004	
41	0	31968	
42	0	31976	
43	0	32052	
44	0	32092	
45	0	32196	
46	0	32328	
47	0	32484	
48	0	32660	
49	0	32904	
50	0	32926	
51	0	32908	
52	0	32901	
53	0	32856	
54	0	33028	
55	0	33036	
56	0	32936	
57	0	32900	
58	0	33016	
59	0	33148	
60	0	33308	
61	0	33398	
62	0	33628	
63	0	34004	
64	0	34340	
65	0	34476	
66	0	34436	
67	0	34388	
68	0	34324	
69	0	34284	
70	0	34216	
71	0	34148	
72	0	34064	
73	0	34052	
74	0	34172	
75	0	34272	
76	0	34368	
77	0	34280	
78	0	34156	
79	0	34032	
80	0	33924	
81	0	33808	
82	0	33720	
83	0	33628	
84	0	33448	
85	0	33272	
86	0	33120	
87	0	33024	
88	0	33000	
89	0	32916	
90	0	32724	
91	0	32660	
92	0	32712	
93	0	32632	
94	0	32596	
95	0	32564	
96	0	32584	
97	0	32600	
98	0	32608	
99	0	32584	
100	0	32504	
101	0	32412	
102	0	32328	
103	0	32216	
104	0	32072	
105	0	31998	
106	0	31908	
107	0	31764	
108	0	31684	
109	0	31732	
110	0	31768	
111	0	31712	
112	0	31664	
113	0	31532	
114	0	31428	
115	0	31308	
116	0	31266	
117	0	31244	
118	0	31060	
119	0	30946	
120	0	30836	
121	0	30760	
122	0	30748	
123	0	30694	
124	0	30588	
125	0	30564	
126	0	30588	
127	0	30588	
128	0	30584	
129	0	30564	
130	0	30580	
131	0	30616	
132	0	30618	
133	0	30544	
134	0	30464	
135	0	30368	
136	0	30388	
137	0	30460	
138	0	30432	
139	0	30428	
140	0	30448	
141	0	30480	
142	0	30528	
143	0	30584	
144	0	30752	
145	0	30900	
146	0	30824	
147	0	30776	
148	0	30864	
149	0	30876	
150	0	30848	
151	0	30808	
152	0	30784	
153	0	30764	
154	0	30748	
155	0	30784	
156	0	30848	
157	0	30896	
158	0	31008	
159	0	31092	
160	0	31188	
161	0	31292	
162	0	31308	
163	0	31244	
164	0	31220	
165	0	31276	
166	0	31200	
167	0	31200	
168	0	31244	
169	0	31256	
170	0	31216	
171	0	31184	
172	0	31140	
173	0	31008	
174	0	31016	
175	0	31066	
176	0	30876	
177	0	30588	
178	0	30384	
179	0	30268	
180	0	30200	
181	0	30124	
182	0	30168	
183	0	30308	
184	0	30656	
185	0	31336	
186	0	32272	
187	0	33332	
188	0	34536	
189	0	35892	
190	0	37280	
191	0	38840	
192	0	40624	
193	0	42392	
194	0	44172	
195	0	46048	
196	0	48044	
197	0	49948	
198	0	51656	
199	0	53164	
200	0	54640	
201	0	56136	
202	0	57568	
203	0	58808	
204	0	60052	
205	0	61372	
206	0	62660	
207	0	63664	
208	0	64168	
209	0	64364	
210	0	64420	
211	0	64380	
212	0	61556	
213	0	57740	
214	0	53600	
215	0	49504	
216	0	45388	
217	0	40856	
218	0	36108	
219	0	31840	
220	0	28544	
221	0	26392	
222	0	25392	
223	0	25028	
224	0	25012	
225	0	25168	
226	0	25192	
227	0	25188	
228	0	25332	
229	0	25440	
230	0	25658	
231	0	26044	
232	0	26480	
233	0	26860	
234	0	27248	
235	0	27656	
236	0	27964	
237	0	28224	
238	0	28480	
239	0	28650	
240	0	28852	
241	0	28958	
242	0	29042	
243	0	29004	
244	0	28968	
245	0	28992	
246	0	28950	
247	0	28868	
248	0	28748	
249	0	28734	
250	0	28760	
251	0	28748	
252	0	28730	
253	0	28804	
254	0	28756	
255	0	28708	
256	0	28744	
257	0	28834	
258	0	28840	
259	0	28776	
260	0	28796	
261	0	28853	
262	0	28948	
263	0	28992	
264	0	29020	
265	0	29068	
266	0	29108	
267	0	29136	
268	0	29152	
269	0	29200	
270	0	29332	
271	0	29444	
272	0	29492	
273	0	29600	
274	0	29620	
275	0	29592	
276	0	29556	
277	0	29516	
278	0	29440	
279	0	29320	
280	0	29350	
281	0	29544	
282	0	29720	
283	0	29896	
284	0	29960	
285	0	29964	
286	0	29932	
287	0	29916	
288	0	29960	
289	0	30068	
290	0	30184	
291	0	30348	
292	0	30468	
293	0	30520	
294	0	30536	
295	0	30540	
296	0	30560	
297	0	30560	
298	0	30600	
299	0	30632	
300	0	30668	
301	0	30628	
302	0	30680	
303	0	30682	
304	0	30684	
305	0	30734	
306	0	30712	
307	0	30680	
308	0	30672	
309	0	30696	
310	0	30792	
311	0	30828	
312	0	30920	
313	0	31076	
314	0	31096	
315	0	31120	
316	0	31188	
317	0	31208	
318	0	31196	
319	0	31184	
320	0	31220	
321	0	31288	
322	0	31364	
323	0	31484	
324	0	31610	
325	0	31704	
326	0	31788	
327	0	31812	
328	0	31764	
329	0	31728	
330	0	31690	
331	0	31680	
332	0	31740	
333	0	31812	
334	0	31880	
335	0	31968	
336	0	32116	
337	0	32196	
338	0	32172	
339	0	32148	
340	0	32080	
341	0	32088	
342	0	32148	
343	0	32260	
344	0	32260	
345	0	32324	
346	0	32412	
347	0	32376	
348	0	32332	
349	0	32396	
350	0	32524	
351	0	32580	
352	0	32608	
353	0	32748	
354	0	32840	
355	0	32880	
356	0	32904	
357	0	32924	
358	0	32960	
359	0	33024	
360	0	33112	
361	0	33136	
362	0	33172	
363	0	33192	
364	0	33204	
365	0	33260	
366	0	33304	
367	0	33328	
368	0	33392	
369	0	33440	
370	0	33504	
371	0	33568	
372	0	33616	
373	0	33672	
374	0	33744	
375	0	33832	
376	0	33900	
377	0	33912	
378	0	33920	
379	0	34012	
380	0	34086	
381	0	34140	
382	0	34124	
383	0	34200	
384	0	34350	
385	0	34528	
386	0	34624	
387	0	34692	
388	0	34776	
389	0	34812	
390	0	34864	
391	0	34992	
392	0	35072	
393	0	35128	
394	0	35168	
395	0	35136	
396	0	35144	
397	0	35248	
398	0	35328	
399	0	35340	
400	0	35436	
401	0	35564	
402	0	35712	
403	0	35820	
404	0	35840	
405	0	35912	
406	0	35964	
407	0	36002	
408	0	36072	
409	0	36156	
410	0	36200	
411	0	36220	
412	0	36300	
413	0	36432	
414	0	36532	
415	0	36612	
416	0	36768	
417	0	36856	
418	0	36900	
419	0	36856	
420	0	36804	
421	0	36826	
422	0	36848	
423	0	36870	
424	0	36784	
425	0	36728	
426	0	36724	
427	0	36732	
428	0	36816	
429	0	36916	
430	0	36960	
431	0	36996	
432	0	36988	
433	0	36992	
434	0	37044	
435	0	37180	
436	0	37264	
437	0	37260	
438	0	37280	
439	0	37292	
440	0	37220	
441	0	37128	
442	0	37124	
443	0	37112	
444	0	37104	
445	0	37144	
446	0	37112	
447	0	36976	
448	0	36816	
449	0	36656	
450	0	36560	
451	0	36444	
452	0	36432	
453	0	36296	
454	0	36192	
455	0	36020	
456	0	35800	
457	0	35616	
458	0	35492	
459	0	35400	
460	0	35268	
461	0	35080	
462	0	34936	
463	0	34740	
464	0	34484	
465	0	34340	
466	0	34216	
467	0	34052	
468	0	33920	
469	0	33816	
470	0	33672	
471	0	33524	
472	0	33304	
473	0	33084	
474	0	32860	
475	0	32684	
476	0	32584	
477	0	32480	
478	0	32372	
479	0	32262	
480	0	32148	
481	0	32000	
482	0	31832	
483	0	31632	
484	0	31438	
485	0	31264	
486	0	31102	
487	0	31016	
488	0	30904	
489	0	30812	
490	0	30764	
491	0	30712	
492	0	30680	
493	0	30652	
494	0	30584	
495	0	30600	
496	0	30608	
497	0	30524	
498	0	30416	
499	0	30344	
500	0	30308	
501	0	30256	
502	0	30268	
503	0	30288	
504	0	30304	
505	0	30288	
506	0	30228	
507	0	30184	
508	0	30192	
509	0	30232	
510	0	30256	
511	0	30212	
512	0	30216	
513	0	30228	
514	0	30224	
515	0	30220	
516	0	30132	
517	0	30036	
518	0	30056	
519	0	30136	
520	0	30192	
521	0	30236	
522	0	30260	
523	0	30248	
524	0	30220	
525	0	30208	
526	0	30172	
527	0	30160	
528	0	30124	
529	0	30128	
530	0	30142	
531	0	30184	
532	0	30192	
533	0	30144	
534	0	30156	
535	0	30242	
536	0	30296	
537	0	30292	
538	0	30392	
539	0	30452	
540	0	30484	
541	0	30512	
542	0	30544	
543	0	30576	
544	0	30588	
545	0	30652	
546	0	30768	
547	0	30852	
548	0	30848	
549	0	30812	
550	0	30732	
551	0	30684	
552	0	30664	
553	0	30700	
554	0	30728	
555	0	30752	
556	0	30788	
557	0	30908	
558	0	30964	
559	0	30984	
560	0	31012	
561	0	30976	
562	0	30920	
563	0	30916	
564	0	30928	
565	0	30940	
566	0	31016	
567	0	31140	
568	0	31160	
569	0	31156	
570	0	31140	
571	0	31194	
572	0	31218	
573	0	31264	
574	0	31288	
575	0	31296	
576	0	31288	
577	0	31296	
578	0	31328	
579	0	31416	
580	0	31448	
581	0	31444	
582	0	31484	
583	0	31492	
584	0	31400	
585	0	31340	
586	0	31352	
587	0	31346	
588	0	31324	
589	0	31364	
590	0	31424	
591	0	31404	
592	0	31396	
593	0	31470	
594	0	31552	
595	0	31560	
596	0	31584	
597	0	31560	
598	0	31528	
599	0	31624	
600	0	31708	
601	0	31784	
602	0	31822	
603	0	31896	
604	0	31928	
605	0	31888	
606	0	31868	
607	0	31892	
608	0	31944	
609	0	32096	
610	0	32200	
611	0	32228	
612	0	32248	
613	0	32400	
614	0	32552	
615	0	32720	
616	0	32897	
617	0	33044	
618	0	33120	
619	0	33154	
620	0	33220	
621	0	33304	
622	0	33338	
623	0	33332	
624	0	33292	
625	0	33324	
626	0	33444	
627	0	33508	
628	0	33584	
629	0	33676	
630	0	33780	
631	0	33856	
632	0	33886	
633	0	33880	
634	0	33980	
635	0	34096	
636	0	34144	
637	0	34180	
638	0	34276	
639	0	34420	
640	0	34530	
641	0	34580	
642	0	34612	
643	0	34568	
644	0	34528	
645	0	34488	
646	0	34496	
647	0	34536	
648	0	34596	
649	0	34656	
650	0	34616	
651	0	34572	
652	0	34536	
653	0	34564	
654	0	34628	
655	0	34586	
656	0	34496	
657	0	34420	
658	0	34316	
659	0	34192	
660	0	34104	
661	0	34008	
662	0	33904	
663	0	33776	
664	0	33644	
665	0	33476	
666	0	33316	
667	0	33192	
668	0	33100	
669	0	33000	
670	0	32936	
671	0	32924	
672	0	32820	
673	0	32744	
674	0	32736	
675	0	32716	
676	0	32748	
677	0	32704	
678	0	32640	
679	0	32584	
680	0	32544	
681	0	32456	
682	0	32392	
683	0	32356	
684	0	32328	
685	0	32298	
686	0	32220	
687	0	32104	
688	0	31936	
689	0	31828	
690	0	31776	
691	0	31692	
692	0	31640	
693	0	31608	
694	0	31536	
695	0	31460	
696	0	31404	
697	0	31360	
698	0	31296	
699	0	31184	
700	0	31152	
701	0	31100	
702	0	31072	
703	0	31064	
704	0	31032	
705	0	31060	
706	0	31092	
707	0	31084	
708	0	31072	
709	0	31100	
710	0	31128	
711	0	31132	
712	0	31104	
713	0	31088	
714	0	31104	
715	0	31096	
716	0	31104	
717	0	31112	
718	0	31116	
719	0	31080	
720	0	31096	
721	0	31080	
722	0	31060	
723	0	31076	
724	0	31052	
725	0	31000	
726	0	31012	
727	0	31044	
728	0	31064	
729	0	31100	
730	0	31208	
731	0	31268	
732	0	31280	
733	0	31264	
734	0	31240	
735	0	31196	
736	0	31176	
737	0	31216	
738	0	31268	
739	0	31408	
740	0	31476	
741	0	31486	
742	0	31508	
743	0	31486	
744	0	31500	
745	0	31488	
746	0	31504	
747	0	31508	
748	0	31480	
749	0	31384	
750	0	31256	
751	0	31108	
752	0	30936	
753	0	30696	
754	0	30480	
755	0	30340	
756	0	30316	
757	0	30374	
758	0	30488	
759	0	30684	
760	0	30996	
761	0	31540	
762	0	32256	
763	0	33000	
764	0	33936	
765	0	35068	
766	0	36328	
767	0	37664	
768	0	39228	
769	0	40976	
770	0	42732	
771	0	44376	
772	0	46048	
773	0	47768	
774	0	49480	
775	0	51232	
776	0	52992	
777	0	54576	
778	0	55976	
779	0	57284	
780	0	58680	
781	0	60128	
782	0	61524	
783	0	62688	
784	0	63392	
785	0	63704	
786	0	63824	
787	0	63836	
788	0	63152	
789	0	59856	
790	0	56096	
791	0	52344	
792	0	48388	
793	0	44020	
794	0	39248	
795	0	34720	
796	0	31232	
797	0	28820	
798	0	27308	
799	0	26414	
800	0	25920	
801	0	25648	
802	0	25628	
803	0	25708	
804	0	25920	
805	0	26220	
806	0	26568	
807	0	26890	
808	0	27260	
809	0	27648	
810	0	27976	
811	0	28260	
812	0	28644	
813	0	28964	
814	0	29136	
815	0	29240	
816	0	29288	
817	0	29284	
818	0	29244	
819	0	29232	
820	0	29220	
821	0	29172	
822	0	29032	
823	0	28938	
824	0	28846	
825	0	28768	
826	0	28704	
827	0	28624	
828	0	28608	
829	0	28580	
830	0	28590	
831	0	28632	
832	0	28660	
833	0	28696	
834	0	28808	
835	0	28898	
836	0	28856	
837	0	28832	
838	0	28848	
839	0	28864	
840	0	28868	
841	0	28884	
842	0	28952	
843	0	29004	
844	0	29024	
845	0	29076	
846	0	29128	
847	0	29172	
848	0	29264	
849	0	29332	
850	0	29344	
851	0	29284	
852	0	29308	
853	0	29356	
854	0	29420	
855	0	29444	
856	0	29464	
857	0	29508	
858	0	29572	
859	0	29632	
860	0	29652	
861	0	29752	
862	0	29888	
863	0	29912	
864	0	29908	
865	0	29932	
866	0	29920	
867	0	29964	
868	0	29968	
869	0	30016	
870	0	30116	
871	0	30146	
872	0	30180	
873	0	30240	
874	0	30296	
875	0	30304	
876	0	30288	
877	0	30372	
878	0	30418	
879	0	30528	
880	0	30562	
881	0	30600	
882	0	30624	
883	0	30596	
884	0	30540	
885	0	30586	
886	0	30660	
887	0	30732	
888	0	30746	
889	0	30708	
890	0	30784	
891	0	30864	
892	0	30884	
893	0	30898	
894	0	30944	
895	0	30988	
896	0	31000	
897	0	31044	
898	0	31092	
899	0	31112	
900	0	31064	
901	0	31138	
902	0	31252	
903	0	31296	
904	0	31312	
905	0	31308	
906	0	31364	
907	0	31368	
908	0	31388	
909	0	31424	
910	0	31474	
911	0	31578	
912	0	31640	
913	0	31668	
914	0	31724	
915	0	31740	
916	0	31760	
917	0	31768	
918	0	31832	
919	0	31932	
920	0	32036	
921	0	32084	
922	0	32136	
923	0	32196	
924	0	32260	
925	0	32332	
926	0	32356	
927	0	32332	
928	0	32368	
929	0	32396	
930	0	32360	
931	0	32344	
932	0	32380	
933	0	32436	
934	0	32482	
935	0	32564	
936	0	32636	
937	0	32700	
938	0	32750	
939	0	32816	
940	0	32872	
941	0	32904	
942	0	32952	
943	0	33008	
944	0	33056	
945	0	33116	
946	0	33120	
947	0	33120	
948	0	33212	
949	0	33312	
950	0	33376	
951	0	33424	
952	0	33452	
953	0	33532	
954	0	33604	
955	0	33672	
956	0	33764	
957	0	33856	
958	0	33924	
959	0	34016	
960	0	34088	
961	0	34120	
962	0	34172	
963	0	34184	
964	0	34212	
965	0	34296	
966	0	34416	
967	0	34528	
968	0	34538	
969	0	34564	
970	0	34640	
971	0	34676	
972	0	34800	
973	0	34912	
974	0	34948	
975	0	35024	
976	0	35104	
977	0	35138	
978	0	35180	
979	0	35212	
980	0	35272	
981	0	35328	
982	0	35372	
983	0	35412	
984	0	35484	
985	0	35604	
986	0	35716	
987	0	35776	
988	0	35832	
989	0	35930	
990	0	36012	
991	0	36060	
992	0	36116	
993	0	36216	
994	0	36320	
995	0	36400	
996	0	36468	
997	0	36510	
998	0	36512	
999	0	36500	
1000	0	36492	
1001	0	36548	
1002	0	36588	
1003	0	36652	
1004	0	36708	
1005	0	36728	
1006	0	36776	
1007	0	36792	
1008	0	36784	
1009	0	36776	
1010	0	36800	
1011	0	36784	
1012	0	36792	
1013	0	36844	
1014	0	36916	
1015	0	36924	
1016	0	36876	
1017	0	36836	
1018	0	36748	
1019	0	36692	
1020	0	36736	
1021	0	36744	
1022	0	36680	
1023	0	36624	
1024	0	36532	
1025	0	36480	
1026	0	36400	
1027	0	36296	
1028	0	36198	
1029	0	36110	
1030	0	36040	
1031	0	35940	
1032	0	35832	
1033	0	35684	
1034	0	35536	
1035	0	35406	
1036	0	35284	
1037	0	35148	
1038	0	34972	
1039	0	34764	
1040	0	34580	
1041	0	34424	
1042	0	34248	
1043	0	34068	
1044	0	33890	
1045	0	33680	
1046	0	33472	
1047	0	33332	
1048	0	33232	
1049	0	33080	
1050	0	32940	
1051	0	32816	
1052	0	32664	
1053	0	32508	
1054	0	32360	
1055	0	32280	
1056	0	32148	
1057	0	31968	
1058	0	31840	
1059	0	31756	
1060	0	31664	
1061	0	31544	
1062	0	31420	
1063	0	31264	
1064	0	31140	
1065	0	31012	
1066	0	30924	
1067	0	30852	
1068	0	30780	
1069	0	30704	
1070	0	30632	
1071	0	30536	
1072	0	30434	
1073	0	30330	
1074	0	30292	
1075	0	30260	
1076	0	30232	
1077	0	30248	
1078	0	30228	
1079	0	30192	
1080	0	30164	
1081	0	30144	
1082	0	30088	
1083	0	30056	
1084	0	30046	
1085	0	30020	
1086	0	29976	
1087	0	29938	
1088	0	29900	
1089	0	29936	
1090	0	29974	
1091	0	29948	
1092	0	29952	
1093	0	29956	
1094	0	29984	
1095	0	29964	
1096	0	29940	
1097	0	29914	
1098	0	29908	
1099	0	29908	
1100	0	29964	
1101	0	30010	
1102	0	30036	
1103	0	30056	
1104	0	30054	
1105	0	30080	
1106	0	30068	
1107	0	30020	
1108	0	30000	
1109	0	30040	
1110	0	30068	
1111	0	30160	
1112	0	30196	
1113	0	30216	
1114	0	30236	
1115	0	30268	
1116	0	30272	
1117	0	30316	
1118	0	30352	
1119	0	30362	
1120	0	30356	
1121	0	30340	
1122	0	30336	
1123	0	30380	
1124	0	30432	
1125	0	30480	
1126	0	30500	
1127	0	30520	
1128	0	30484	
1129	0	30468	
1130	0	30520	
1131	0	30572	
1132	0	30622	
1133	0	30672	
1134	0	30724	
1135	0	30740	
1136	0	30760	
1137	0	30784	
1138	0	30792	
1139	0	30804	
1140	0	30804	
1141	0	30808	
1142	0	30784	
1143	0	30740	
1144	0	30748	
1145	0	30814	
1146	0	30952	
1147	0	31024	
1148	0	31006	
1149	0	30996	
1150	0	31044	
1151	0	31144	
1152	0	31168	
1153	0	31232	
1154	0	31316	
1155	0	31336	
1156	0	31320	
1157	0	31280	
1158	0	31322	
1159	0	31376	
1160	0	31372	
1161	0	31336	
1162	0	31372	
1163	0	31372	
1164	0	31318	
1165	0	31344	
1166	0	31376	
1167	0	31384	
1168	0	31432	
1169	0	31456	
1170	0	31476	
1171	0	31456	
1172	0	31488	
1173	0	31528	
1174	0	31560	
1175	0	31568	
1176	0	31568	
1177	0	31596	
1178	0	31642	
1179	0	31652	
1180	0	31664	
1181	0	31616	
1182	0	31584	
1183	0	31552	
1184	0	31584	
1185	0	31620	
1186	0	31636	
1187	0	31648	
1188	0	31652	
1189	0	31636	
1190	0	31636	
1191	0	31660	
1192	0	31660	
1193	0	31668	
1194	0	31604	
1195	0	31568	
1196	0	31604	
1197	0	31594	
1198	0	31608	
1199	0	31604	
1200	0	31580	
1201	0	31616	
1202	0	31700	
1203	0	31748	
1204	0	31716	
1205	0	31650	
1206	0	31660	
1207	0	31684	
1208	0	31700	
1209	0	31720	
1210	0	31732	
1211	0	31736	
1212	0	31784	
1213	0	31808	
1214	0	31840	
1215	0	31904	
1216	0	31876	
1217	0	31892	
1218	0	31900	
1219	0	31848	
1220	0	31780	
1221	0	31736	
1222	0	31728	
1223	0	31692	
1224	0	31688	
1225	0	31714	
1226	0	31748	
1227	0	31752	
1228	0	31792	
1229	0	31800	
1230	0	31780	
1231	0	31764	
1232	0	31788	
1233	0	31792	
1234	0	31778	
1235	0	31776	
1236	0	31792	
1237	0	31848	
1238	0	31910	
1239	0	31892	
1240	0	31896	
1241	0	31884	
1242	0	31904	
1243	0	31932	
1244	0	31940	
1245	0	31944	
1246	0	31964	
1247	0	31980	
1248	0	32008	
1249	0	31988	
1250	0	31976	
1251	0	32060	
1252	0	32150	
1253	0	32216	
1254	0	32280	
1255	0	32312	
1256	0	32352	
1257	0	32340	
1258	0	32332	
1259	0	32400	
1260	0	32448	
1261	0	32552	
1262	0	32680	
1263	0	32858	
1264	0	33046	
1265	0	33174	
1266	0	33256	
1267	0	33402	
1268	0	33520	
1269	0	33584	
1270	0	33648	
1271	0	33708	
1272	0	33884	
1273	0	33978	
1274	0	34000	
1275	0	33964	
1276	0	33932	
1277	0	33952	
1278	0	33972	
1279	0	33980	
1280	0	34028	
1281	0	34148	
1282	0	34204	
1283	0	34280	
1284	0	34332	
1285	0	34362	
1286	0	34400	
1287	0	34464	
1288	0	34504	
1289	0	34576	
1290	0	34624	
1291	0	34708	
1292	0	34760	
1293	0	34818	
1294	0	34860	
1295	0	34860	
1296	0	34808	
1297	0	34832	
1298	0	34912	
1299	0	34976	
1300	0	34996	
1301	0	34968	
1302	0	34884	
1303	0	34704	
1304	0	34508	
1305	0	34372	
1306	0	34220	
1307	0	34092	
1308	0	34008	
1309	0	33964	
1310	0	33896	
1311	0	33828	
1312	0	33756	
1313	0	33684	
1314	0	33628	
1315	0	33530	
1316	0	33460	
1317	0	33360	
1318	0	33272	
1319	0	33172	
1320	0	33096	
1321	0	33000	
1322	0	32852	
1323	0	32664	
1324	0	32544	
1325	0	32444	
1326	0	32368	
1327	0	32312	
1328	0	32308	
1329	0	32258	
1330	0	32240	
1331	0	32204	
1332	0	32108	
1333	0	32008	
1334	0	31928	
1335	0	31856	
1336	0	31824	
1337	0	31728	
1338	0	31592	
1339	0	31486	
1340	0	31392	
1341	0	31296	
1342	0	31194	
1343	0	31178	
1344	0	31170	
1345	0	31088	
1346	0	31004	
1347	0	30924	
1348	0	30884	
1349	0	30876	
1350	0	30896	
1351	0	30890	
1352	0	30892	
1353	0	30916	
1354	0	30952	
1355	0	31004	
1356	0	31040	
1357	0	31032	
1358	0	31016	
1359	0	30972	
1360	0	30944	
1361	0	30956	
1362	0	30992	
1363	0	31032	
1364	0	31060	
1365	0	31056	
1366	0	31018	
1367	0	31008	
1368	0	31026	
1369	0	31066	
1370	0	31064	
1371	0	31090	
1372	0	31120	
1373	0	31168	
1374	0	31216	
1375	0	31208	
1376	0	31164	
1377	0	31104	
1378	0	31112	
1379	0	31160	
1380	0	31216	
1381	0	31236	
1382	0	31224	
1383	0	31266	
1384	0	31304	
1385	0	31352	
1386	0	31344	
1387	0	31356	
1388	0	31410	
1389	0	31452	
1390	0	31472	
1391	0	31488	
1392	0	31528	
1393	0	31536	
1394	0	31504	
1395	0	31500	
1396	0	31500	
1397	0	31388	
1398	0	31320	
1399	0	31214	
1400	0	31072	
1401	0	30848	
1402	0	30608	
1403	0	30460	
1404	0	30476	
1405	0	30560	
1406	0	30720	
1407	0	30960	
1408	0	31264	
1409	0	31792	
1410	0	32480	
1411	0	33272	
1412	0	34202	
1413	0	35284	
1414	0	36516	
1415	0	37856	
1416	0	39364	
1417	0	41032	
1418	0	42656	
1419	0	44180	
1420	0	45704	
1421	0	47208	
1422	0	48824	
1423	0	50496	
1424	0	52128	
1425	0	53664	
1426	0	55104	
1427	0	56536	
1428	0	58096	
1429	0	59624	
1430	0	60916	
1431	0	62060	
1432	0	62944	
1433	0	63456	
1434	0	63672	
1435	0	63740	
1436	0	61940	
1437	0	58960	
1438	0	55456	
1439	0	51840	
1440	0	48040	
1441	0	43732	
1442	0	39088	
1443	0	34912	
1444	0	31832	
1445	0	29668	
1446	0	28152	
1447	0	27136	
1448	0	26516	
1449	0	26230	
1450	0	26092	
1451	0	26104	
1452	0	26204	
1453	0	26468	
1454	0	26924	
1455	0	27416	
1456	0	27824	
1457	0	28116	
1458	0	28376	
1459	0	28648	
1460	0	28896	
1461	0	29080	
1462	0	29172	
1463	0	29200	
1464	0	29160	
1465	0	29082	
1466	0	29020	
1467	0	28948	
1468	0	28888	
1469	0	28824	
1470	0	28802	
1471	0	28760	
1472	0	28744	
1473	0	28708	
1474	0	28656	
1475	0	28648	
1476	0	28640	
1477	0	28688	
1478	0	28652	
1479	0	28612	
1480	0	28576	
1481	0	28592	
1482	0	28688	
1483	0	28746	
1484	0	28750	
1485	0	28776	
1486	0	28774	
1487	0	28788	
1488	0	28848	
1489	0	28868	
1490	0	28892	
1491	0	28940	
1492	0	28972	
1493	0	28992	
1494	0	29056	
1495	0	29096	
1496	0	29122	
1497	0	29152	
1498	0	29220	
1499	0	29284	
1500	0	29272	
1501	0	29272	
1502	0	29332	
1503	0	29402	
1504	0	29476	
1505	0	29514	
1506	0	29556	
1507	0	29584	
1508	0	29560	
1509	0	29568	
1510	0	29548	
1511	0	29562	
1512	0	29600	
1513	0	29704	
1514	0	29844	
1515	0	29912	
1516	0	29892	
1517	0	29924	
1518	0	29988	
1519	0	30064	
1520	0	30080	
1521	0	30068	
1522	0	30112	
1523	0	30128	
1524	0	30140	
1525	0	30192	
1526	0	30272	
1527	0	30328	
1528	0	30354	
1529	0	30376	
1530	0	30440	
1531	0	30500	
1532	0	30532	
1533	0	30544	
1534	0	30572	
1535	0	30628	
1536	0	30672	
1537	0	30688	
1538	0	30696	
1539	0	30744	
1540	0	30764	
1541	0	30764	
1542	0	30764	
1543	0	30768	
1544	0	30800	
1545	0	30872	
1546	0	30932	
1547	0	30988	
1548	0	30992	
1549	0	30996	
1550	0	31048	
1551	0	31112	
1552	0	31176	
1553	0	31234	
1554	0	31316	
1555	0	31356	
1556	0	31376	
1557	0	31412	
1558	0	31434	
1559	0	31440	
1560	0	31444	
1561	0	31488	
1562	0	31528	
1563	0	31560	
1564	0	31600	
1565	0	31644	
1566	0	31700	
1567	0	31736	
1568	0	31760	
1569	0	31780	
1570	0	31784	
1571	0	31832	
1572	0	31876	
1573	0	31896	
1574	0	31956	
1575	0	32004	
1576	0	32058	
1577	0	32084	
1578	0	32116	
1579	0	32164	
1580	0	32224	
1581	0	32252	
1582	0	32316	
1583	0	32332	
1584	0	32336	
1585	0	32356	
1586	0	32400	
1587	0	32474	
1588	0	32528	
1589	0	32552	
1590	0	32608	
1591	0	32688	
1592	0	32764	
1593	0	32772	
1594	0	32808	
1595	0	32824	
1596	0	32840	
1597	0	32936	
1598	0	33072	
1599	0	33120	
1600	0	33124	
1601	0	33172	
1602	0	33236	
1603	0	33288	
1604	0	33356	
1605	0	33384	
1606	0	33448	
1607	0	33508	
1608	0	33564	
1609	0	33632	
1610	0	33696	
1611	0	33760	
1612	0	33852	
1613	0	33924	
1614	0	33968	
1615	0	34024	
1616	0	34100	
1617	0	34184	
1618	0	34288	
1619	0	34344	
1620	0	34364	
1621	0	34392	
1622	0	34402	
1623	0	34428	
1624	0	34448	
1625	0	34528	
1626	0	34636	
1627	0	34736	
1628	0	34816	
1629	0	34864	
1630	0	34936	
1631	0	35020	
1632	0	35112	
1633	0	35208	
1634	0	35288	
1635	0	35352	
1636	0	35436	
1637	0	35516	
1638	0	35580	
1639	0	35614	
1640	0	35676	
1641	0	35756	
1642	0	35800	
1643	0	35836	
1644	0	35880	
1645	0	35952	
1646	0	36016	
1647	0	36032	
1648	0	36064	
1649	0	36084	
1650	0	36128	
1651	0	36188	
1652	0	36264	
1653	0	36344	
1654	0	36386	
1655	0	36420	
1656	0	36444	
1657	0	36484	
1658	0	36464	
1659	0	36432	
1660	0	36428	
1661	0	36412	
1662	0	36450	
1663	0	36488	
1664	0	36508	
1665	0	36512	
1666	0	36506	
1667	0	36488	
1668	0	36486	
1669	0	36480	
1670	0	36476	
1671	0	36452	
1672	0	36448	
1673	0	36412	
1674	0	36372	
1675	0	36332	
1676	0	36296	
1677	0	36228	
1678	0	36152	
1679	0	36048	
1680	0	35884	
1681	0	35720	
1682	0	35636	
1683	0	35520	
1684	0	35376	
1685	0	35200	
1686	0	35064	
1687	0	34952	
1688	0	34852	
1689	0	34708	
1690	0	34552	
1691	0	34324	
1692	0	34164	
1693	0	34008	
1694	0	33868	
1695	0	33748	
1696	0	33594	
1697	0	33424	
1698	0	33256	
1699	0	33120	
1700	0	32976	
1701	0	32824	
1702	0	32680	
1703	0	32520	
1704	0	32400	
1705	0	32284	
1706	0	32194	
1707	0	32068	
1708	0	31896	
1709	0	31736	
1710	0	31624	
1711	0	31528	
1712	0	31420	
1713	0	31310	
1714	0	31240	
1715	0	31132	
1716	0	31014	
1717	0	30916	
1718	0	30840	
1719	0	30784	
1720	0	30720	
1721	0	30624	
1722	0	30544	
1723	0	30448	
1724	0	30360	
1725	0	30304	
1726	0	30296	
1727	0	30260	
1728	0	30208	
1729	0	30168	
1730	0	30092	
1731	0	30028	
1732	0	30000	
1733	0	30008	
1734	0	30036	
1735	0	30016	
1736	0	29992	
1737	0	29968	
1738	0	29932	
1739	0	29876	
1740	0	29852	
1741	0	29848	
1742	0	29828	
1743	0	29804	
1744	0	29788	
1745	0	29784	
1746	0	29816	
1747	0	29840	
1748	0	29834	
1749	0	29844	
1750	0	29816	
1751	0	29820	
1752	0	29832	
1753	0	29908	
1754	0	30000	
1755	0	30028	
1756	0	30020	
1757	0	29988	
1758	0	29945	
1759	0	29936	
1760	0	29914	
1761	0	29936	
1762	0	29972	
1763	0	30006	
1764	0	30052	
1765	0	30104	
1766	0	30112	
1767	0	30144	
1768	0	30184	
1769	0	30196	
1770	0	30204	
1771	0	30200	
1772	0	30244	
1773	0	30284	
1774	0	30294	
1775	0	30324	
1776	0	30348	
1777	0	30400	
1778	0	30408	
1779	0	30420	
1780	0	30444	
1781	0	30472	
1782	0	30480	
1783	0	30502	
1784	0	30528	
1785	0	30564	
1786	0	30588	
1787	0	30632	
1788	0	30652	
1789	0	30706	
1790	0	30750	
1791	0	30752	
1792	0	30760	
1793	0	30776	
1794	0	30796	
1795	0	30836	
1796	0	30848	
1797	0	30866	
1798	0	30884	
1799	0	30844	
1800	0	30868	
1801	0	30936	
1802	0	30976	
1803	0	31012	
1804	0	31028	
1805	0	31028	
1806	0	31032	
1807	0	31052	
1808	0	31080	
1809	0	31092	
1810	0	31080	
1811	0	31112	
1812	0	31164	
1813	0	31200	
1814	0	31190	
1815	0	31182	
1816	0	31198	
1817	0	31200	
1818	0	31216	
1819	0	31244	
1820	0	31248	
1821	0	31256	
1822	0	31272	
1823	0	31292	
1824	0	31296	
1825	0	31328	
1826	0	31364	
1827	0	31360	
1828	0	31296	
1829	0	31288	
1830	0	31300	
1831	0	31350	
1832	0	31388	
1833	0	31400	
1834	0	31418	
1835	0	31456	
1836	0	31480	
1837	0	31480	
1838	0	31464	
1839	0	31452	
1840	0	31428	
1841	0	31432	
1842	0	31432	
1843	0	31456	
1844	0	31468	
1845	0	31468	
1846	0	31456	
1847	0	31528	
1848	0	31548	
1849	0	31498	
1850	0	31452	
1851	0	31464	
1852	0	31464	
1853	0	31468	
1854	0	31492	
1855	0	31524	
1856	0	31552	
1857	0	31540	
1858	0	31524	
1859	0	31542	
1860	0	31576	
1861	0	31580	
1862	0	31564	
1863	0	31558	
1864	0	31572	
1865	0	31568	
1866	0	31552	
1867	0	31576	
1868	0	31604	
1869	0	31644	
1870	0	31680	
1871	0	31708	
1872	0	31736	
1873	0	31732	
1874	0	31716	
1875	0	31696	
1876	0	31672	
1877	0	31652	
1878	0	31664	
1879	0	31728	
1880	0	31740	
1881	0	31740	
1882	0	31752	
1883	0	31760	
1884	0	31712	
1885	0	31704	
1886	0	31716	
1887	0	31752	
1888	0	31768	
1889	0	31776	
1890	0	31788	
1891	0	31804	
1892	0	31848	
1893	0	31836	
1894	0	31828	
1895	0	31854	
1896	0	31840	
1897	0	31840	
1898	0	31852	
1899	0	31874	
1900	0	31856	
1901	0	31876	
1902	0	31852	
1903	0	31856	
1904	0	31888	
1905	0	31864	
1906	0	31816	
1907	0	31832	
1908	0	31868	
1909	0	31906	
1910	0	31928	
1911	0	31956	
1912	0	31948	
1913	0	31944	
1914	0	31976	
1915	0	32008	
1916	0	32048	
1917	0	32052	
1918	0	32004	
1919	0	31992	
1920	0	32016	
1921	0	32016	
1922	0	32020	
1923	0	32008	
1924	0	31988	
1925	0	31990	
1926	0	31980	
1927	0	31988	
1928	0	32004	
1929	0	31980	
1930	0	31984	
1931	0	32016	
1932	0	32048	
1933	0	32080	
1934	0	32120	
1935	0	32110	
1936	0	32090	
1937	0	32104	
1938	0	32072	
1939	0	32052	
1940	0	32028	
1941	0	32000	
1942	0	32000	
1943	0	32032	
1944	0	32088	
1945	0	32154	
1946	0	32196	
1947	0	32224	
1948	0	32272	
1949	0	32296	
1950	0	32328	
1951	0	32432	
1952	0	32544	
1953	0	32696	
1954	0	32820	
1955	0	32904	
1956	0	33064	
1957	0	33256	
1958	0	33432	
1959	0	33612	
1960	0	33740	
1961	0	33788	
1962	0	33800	
1963	0	33832	
1964	0	33852	
1965	0	33846	
1966	0	33880	
1967	0	33920	
1968	0	33936	
1969	0	33968	
1970	0	34020	
1971	0	34088	
1972	0	34152	
1973	0	34216	
1974	0	34260	
1975	0	34312	
1976	0	34384	
1977	0	34504	
1978	0	34568	
1979	0	34564	
1980	0	34564	
1981	0	34632	
1982	0	34730	
1983	0	34850	
1984	0	34912	
1985	0	34972	
1986	0	34952	
1987	0	34936	
1988	0	34936	
1989	0	34920	
1990	0	34920	
1991	0	34940	
1992	0	34956	
1993	0	34976	
1994	0	35016	
1995	0	34994	
1996	0	34904	
1997	0	34744	
1998	0	34596	
1999	0	34444	
2000	0	34296	
2001	0	34180	
2002	0	34076	
2003	0	33976	
2004	0	33808	
2005	0	33644	
2006	0	33536	
2007	0	33434	
2008	0	33372	
2009	0	33328	
2010	0	33236	
2011	0	33144	
2012	0	33040	
2013	0	32958	
2014	0	32888	
2015	0	32876	
2016	0	32848	
2017	0	32820	
2018	0	32760	
2019	0	32724	
2020	0	32672	
2021	0	32676	
2022	0	32712	
2023	0	32716	
2024	0	32672	
2025	0	32608	
2026	0	32580	
2027	0	32506	
2028	0	32420	
2029	0	32320	
2030	0	32220	
2031	0	32144	
2032	0	32096	
2033	0	32044	
2034	0	32022	
2035	0	31912	
2036	0	31744	
2037	0	31648	
2038	0	31578	
2039	0	31552	
2040	0	31512	
2041	0	31468	
2042	0	31424	
2043	0	31436	
2044	0	31458	
2045	0	31448	
2046	0	31460	
2047	0	31496	
2048	0	31508	
2049	0	31504	
2050	0	31532	
2051	0	31562	
2052	0	31564	
2053	0	31544	
2054	0	31524	
2055	0	31580	
2056	0	31594	
2057	0	31556	
2058	0	31528	
2059	0	31556	
2060	0	31592	
2061	0	31612	
2062	0	31600	
2063	0	31572	
2064	0	31584	
2065	0	31608	
2066	0	31560	
2067	0	31496	
2068	0	31512	
2069	0	31576	
2070	0	31640	
2071	0	31672	
2072	0	31662	
2073	0	31708	
2074	0	31754	
2075	0	31792	
2076	0	31816	
2077	0	31828	
2078	0	31848	
2079	0	31836	
2080	0	31812	
2081	0	31848	
2082	0	31892	
2083	0	31904	
2084	0	31896	
2085	0	31860	
2086	0	31732	
2087	0	31604	
2088	0	31492	
2089	0	31392	
2090	0	31260	
2091	0	31130	
2092	0	31048	
2093	0	31052	
2094	0	31140	
2095	0	31270	
2096	0	31416	
2097	0	31702	
2098	0	32188	
2099	0	32776	
2100	0	33444	
2101	0	34188	
2102	0	35056	
2103	0	36104	
2104	0	37236	
2105	0	38592	
2106	0	40200	
2107	0	41800	
2108	0	43272	
2109	0	44720	
2110	0	46240	
2111	0	47844	
2112	0	49480	
2113	0	51000	
2114	0	52412	
2115	0	53848	
2116	0	55324	
2117	0	56780	
2118	0	58092	
2119	0	59264	
2120	0	60304	
2121	0	61296	
2122	0	62176	
2123	0	62720	
2124	0	62176	
2125	0	60544	
2126	0	58036	
2127	0	54828	
2128	0	51424	
2129	0	47932	
2130	0	44084	
2131	0	39940	
2132	0	35900	
2133	0	32760	
2134	0	30484	
2135	0	28832	
2136	0	27772	
2137	0	27136	
2138	0	26880	
2139	0	26896	
2140	0	27056	
2141	0	27316	
2142	0	27690	
2143	0	28140	
2144	0	28568	
2145	0	28900	
2146	0	29170	
2147	0	29452	
2148	0	29664	
2149	0	29784	
2150	0	29824	
2151	0	29834	
2152	0	29804	
2153	0	29744	
2154	0	29684	
2155	0	29628	
2156	0	29568	
2157	0	29508	
2158	0	29452	
2159	0	29396	
2160	0	29340	
2161	0	29288	
2162	0	29260	
2163	0	29220	
2164	0	29196	
2165	0	29184	
2166	0	29156	
2167	0	29182	
2168	0	29196	
2169	0	29212	
2170	0	29196	
2171	0	29240	
2172	0	29328	
2173	0	29352	
2174	0	29368	
2175	0	29356	
2176	0	29324	
2177	0	29332	
2178	0	29400	
2179	0	29464	
2180	0	29496	
2181	0	29506	
2182	0	29504	
2183	0	29540	
2184	0	29608	
2185	0	29664	
2186	0	29700	
2187	0	29692	
2188	0	29692	
2189	0	29672	
2190	0	29689	
2191	0	29756	
2192	0	29832	
2193	0	29896	
2194	0	29948	
2195	0	30008	
2196	0	30036	
2197	0	30080	
2198	0	30140	
2199	0	30170	
2200	0	30208	
2201	0	30224	
2202	0	30208	
2203	0	30284	
2204	0	30348	
2205	0	30372	
2206	0	30368	
2207	0	30348	
2208	0	30392	
2209	0	30452	
2210	0	30540	
2211	0	30624	
2212	0	30688	
2213	0	30720	
2214	0	30728	
2215	0	30736	
2216	0	30776	
2217	0	30828	
2218	0	30884	
2219	0	30928	
2220	0	30936	
2221	0	30952	
2222	0	30992	
2223	0	31024	
2224	0	31040	
2225	0	31064	
2226	0	31068	
2227	0	31056	
2228	0	31119	
2229	0	31160	
2230	0	31212	
2231	0	31252	
2232	0	31300	
2233	0	31340	
2234	0	31376	
2235	0	31404	
2236	0	31414	
2237	0	31448	
2238	0	31496	
2239	0	31492	
2240	0	31508	
2241	0	31544	
2242	0	31608	
2243	0	31688	
2244	0	31736	
2245	0	31768	
2246	0	31788	
2247	0	31824	
2248	0	31832	
2249	0	31864	
2250	0	31908	
2251	0	31948	
2252	0	31960	
2253	0	31976	
2254	0	32048	
2255	0	32092	
2256	0	32120	
2257	0	32136	
2258	0	32192	
2259	0	32236	
2260	0	32272	
2261	0	32304	
2262	0	32340	
2263	0	32388	
2264	0	32408	
2265	0	32436	
2266	0	32508	
2267	0	32528	
2268	0	32560	
2269	0	32600	
2270	0	32660	
2271	0	32712	
2272	0	32772	
2273	0	32856	
2274	0	32896	
2275	0	32912	
2276	0	32928	
2277	0	32940	
2278	0	33012	
2279	0	33068	
2280	0	33100	
2281	0	33120	
2282	0	33150	
2283	0	33172	
2284	0	33212	
2285	0	33248	
2286	0	33288	
2287	0	33338	
2288	0	33358	
2289	0	33408	
2290	0	33496	
2291	0	33576	
2292	0	33664	
2293	0	33720	
2294	0	33760	
2295	0	33776	
2296	0	33796	
2297	0	33860	
2298	0	33888	
2299	0	33928	
2300	0	33992	
2301	0	34052	
2302	0	34104	
2303	0	34200	
2304	0	34288	
2305	0	34344	
2306	0	34404	
2307	0	34452	
2308	0	34496	
2309	0	34524	
2310	0	34584	
2311	0	34648	
2312	0	34724	
2313	0	34816	
2314	0	34896	
2315	0	34964	
2316	0	35052	
2317	0	35136	
2318	0	35184	
2319	0	35224	
2320	0	35232	
2321	0	35272	
2322	0	35292	
2323	0	35350	
2324	0	35436	
2325	0	35514	
2326	0	35592	
2327	0	35688	
2328	0	35752	
2329	0	35836	
2330	0	35912	
2331	0	35980	
2332	0	36028	
2333	0	36052	
2334	0	36120	
2335	0	36164	
2336	0	36200	
2337	0	36218	
2338	0	36252	
2339	0	36296	
2340	0	36356	
2341	0	36392	
2342	0	36440	
2343	0	36464	
2344	0	36480	
2345	0	36484	
2346	0	36524	
2347	0	36548	
2348	0	36568	
2349	0	36628	
2350	0	36640	
2351	0	36664	
2352	0	36680	
2353	0	36696	
2354	0	36712	
2355	0	36720	
2356	0	36726	
2357	0	36752	
2358	0	36800	
2359	0	36764	
2360	0	36716	
2361	0	36712	
2362	0	36692	
2363	0	36632	
2364	0	36576	
2365	0	36544	
2366	0	36480	
2367	0	36408	
2368	0	36328	
2369	0	36256	
2370	0	36148	
2371	0	36064	
2372	0	35952	
2373	0	35840	
2374	0	35706	
2375	0	35552	
2376	0	35404	
2377	0	35268	
2378	0	35160	
2379	0	35016	
2380	0	34888	
2381	0	34732	
2382	0	34540	
2383	0	34364	
2384	0	34200	
2385	0	34080	
2386	0	34020	
2387	0	33884	
2388	0	33736	
2389	0	33592	
2390	0	33432	
2391	0	33240	
2392	0	33080	
2393	0	32960	
2394	0	32816	
2395	0	32652	
2396	0	32532	
2397	0	32392	
2398	0	32280	
2399	0	32148	
2400	0	32032	
2401	0	31944	
2402	0	31840	
2403	0	31732	
2404	0	31624	
2405	0	31514	
2406	0	31424	
2407	0	31324	
2408	0	31248	
2409	0	31148	
2410	0	31050	
2411	0	30964	
2412	0	30906	
2413	0	30848	
2414	0	30764	
2415	0	30728	
2416	0	30696	
2417	0	30632	
2418	0	30570	
2419	0	30492	
2420	0	30432	
2421	0	30408	
2422	0	30392	
2423	0	30368	
2424	0	30348	
2425	0	30300	
2426	0	30274	
2427	0	30296	
2428	0	30308	
2429	0	30296	
2430	0	30272	
2431	0	30238	
2432	0	30224	
2433	0	30212	
2434	0	30192	
2435	0	30202	
2436	0	30184	
2437	0	30180	
2438	0	30172	
2439	0	30200	
2440	0	30180	
2441	0	30168	
2442	0	30184	
2443	0	30192	
2444	0	30176	
2445	0	30160	
2446	0	30160	
2447	0	30180	
2448	0	30192	
2449	0	30220	
2450	0	30240	
2451	0	30252	
2452	0	30248	
2453	0	30280	
2454	0	30292	
2455	0	30344	
2456	0	30368	
2457	0	30408	
2458	0	30436	
2459	0	30456	
2460	0	30428	
2461	0	30418	
2462	0	30432	
2463	0	30456	
2464	0	30504	
2465	0	30576	
2466	0	30624	
2467	0	30666	
2468	0	30688	
2469	0	30652	
2470	0	30640	
2471	0	30696	
2472	0	30796	
2473	0	30828	
2474	0	30816	
2475	0	30808	
2476	0	30848	
2477	0	30896	
2478	0	30936	
2479	0	30936	
2480	0	30952	
2481	0	30956	
2482	0	30948	
2483	0	30914	
2484	0	30912	
2485	0	30928	
2486	0	30980	
2487	0	31020	
2488	0	31000	
2489	0	30980	
2490	0	31012	
2491	0	31044	
2492	0	31068	
2493	0	31128	
2494	0	31144	
2495	0	31120	
2496	0	31132	
2497	0	31134	
2498	0	31116	
2499	0	31120	
2500	0	31136	
2501	0	31170	
2502	0	31200	
2503	0	31172	
2504	0	31162	
2505	0	31196	
2506	0	31216	
2507	0	31234	
2508	0	31256	
2509	0	31256	
2510	0	31260	
2511	0	31288	
2512	0	31308	
2513	0	31340	
2514	0	31380	
2515	0	31392	
2516	0	31390	
2517	0	31404	
2518	0	31440	
2519	0	31420	
2520	0	31370	
2521	0	31364	
2522	0	31380	
2523	0	31360	
2524	0	31372	
2525	0	31412	
2526	0	31444	
2527	0	31452	
2528	0	31448	
2529	0	31440	
2530	0	31424	
2531	0	31444	
2532	0	31504	
2533	0	31540	
2534	0	31552	
2535	0	31520	
2536	0	31492	
2537	0	31472	
2538	0	31488	
2539	0	31504	
2540	0	31490	
2541	0	31472	
2542	0	31448	
2543	0	31448	
2544	0	31476	
2545	0	31476	
2546	0	31474	
2547	0	31448	
2548	0	31432	
2549	0	31436	
2550	0	31464	
2551	0	31484	
2552	0	31480	
2553	0	31468	
2554	0	31512	
2555	0	31516	
2556	0	31480	
2557	0	31496	
2558	0	31522	
2559	0	31530	
2560	0	31516	
2561	0	31524	
2562	0	31552	
2563	0	31546	
2564	0	31522	
2565	0	31532	
2566	0	31568	
2567	0	31584	
2568	0	31616	
2569	0	31604	
2570	0	31628	
2571	0	31616	
2572	0	31626	
2573	0	31636	
2574	0	31642	
2575	0	31636	
2576	0	31664	
2577	0	31700	
2578	0	31752	
2579	0	31758	
2580	0	31712	
2581	0	31660	
2582	0	31596	
2583	0	31616	
2584	0	31648	
2585	0	31680	
2586	0	31712	
2587	0	31692	
2588	0	31620	
2589	0	31596	
2590	0	31592	
2591	0	31588	
2592	0	31616	
2593	0	31628	
2594	0	31684	
2595	0	31748	
2596	0	31772	
2597	0	31776	
2598	0	31744	
2599	0	31764	
2600	0	31792	
2601	0	31828	
2602	0	31840	
2603	0	31832	
2604	0	31840	
2605	0	31824	
2606	0	31792	
2607	0	31850	
2608	0	31936	
2609	0	31968	
2610	0	31954	
2611	0	31940	
2612	0	31920	
2613	0	31928	
2614	0	31908	
2615	0	31893	
2616	0	31904	
2617	0	31914	
2618	0	31932	
2619	0	31940	
2620	0	31928	
2621	0	31890	
2622	0	31884	
2623	0	31884	
2624	0	31876	
2625	0	31936	
2626	0	31960	
2627	0	31952	
2628	0	31956	
2629	0	31956	
2630	0	31952	
2631	0	31960	
2632	0	31964	
2633	0	31984	
2634	0	32034	
2635	0	32072	
2636	0	32068	
2637	0	32116	
2638	0	32156	
2639	0	32140	
2640	0	32122	
2641	0	32132	
2642	0	32136	
2643	0	32184	
2644	0	32248	
2645	0	32288	
2646	0	32352	
2647	0	32468	
2648	0	32560	
2649	0	32644	
2650	0	32784	
2651	0	32988	
2652	0	33188	
2653	0	33384	
2654	0	33588	
2655	0	33732	
2656	0	33792	
2657	0	33804	
2658	0	33780	
2659	0	33780	
2660	0	33732	
2661	0	33664	
2662	0	33672	
2663	0	33708	
2664	0	33720	
2665	0	33778	
2666	0	33844	
2667	0	33952	
2668	0	34068	
2669	0	34160	
2670	0	34208	
2671	0	34304	
2672	0	34412	
2673	0	34480	
2674	0	34528	
2675	0	34620	
2676	0	34762	
2677	0	34892	
2678	0	34944	
2679	0	34970	
2680	0	34944	
2681	0	34904	
2682	0	34856	
2683	0	34844	
2684	0	34896	
2685	0	34896	
2686	0	34856	
2687	0	34868	
2688	0	34916	
2689	0	34952	
2690	0	34856	
2691	0	34704	
2692	0	34592	
2693	0	34504	
2694	0	34400	
2695	0	34316	
2696	0	34184	
2697	0	34012	
2698	0	33844	
2699	0	33698	
2700	0	33544	
2701	0	33440	
2702	0	33376	
2703	0	33308	
2704	0	33220	
2705	0	33124	
2706	0	33008	
2707	0	32894	
2708	0	32864	
2709	0	32840	
2710	0	32844	
2711	0	32818	
2712	0	32752	
2713	0	32676	
2714	0	32638	
2715	0	32618	
2716	0	32604	
2717	0	32528	
2718	0	32466	
2719	0	32418	
2720	0	32352	
2721	0	32292	
2722	0	32208	
2723	0	32100	
2724	0	31992	
2725	0	31932	
2726	0	31928	
2727	0	31880	
2728	0	31752	
2729	0	31620	
2730	0	31556	
2731	0	31512	
2732	0	31476	
2733	0	31436	
2734	0	31432	
2735	0	31400	
2736	0	31344	
2737	0	31292	
2738	0	31280	
2739	0	31336	
2740	0	31376	
2741	0	31364	
2742	0	31360	
2743	0	31340	
2744	0	31356	
2745	0	31304	
2746	0	31254	
2747	0	31266	
2748	0	31288	
2749	0	31296	
2750	0	31336	
2751	0	31364	
2752	0	31392	
2753	0	31434	
2754	0	31460	
2755	0	31452	
2756	0	31416	
2757	0	31364	
2758	0	31308	
2759	0	31312	
2760	0	31340	
2761	0	31384	
2762	0	31396	
2763	0	31434	
2764	0	31444	
2765	0	31418	
2766	0	31456	
2767	0	31500	
2768	0	31556	
2769	0	31620	
2770	0	31644	
2771	0	31648	
2772	0	31664	
2773	0	31680	
2774	0	31696	
2775	0	31680	
2776	0	31640	
2777	0	31608	
2778	0	31568	
2779	0	31504	
2780	0	31396	
2781	0	31284	
2782	0	31196	
2783	0	31016	
2784	0	30812	
2785	0	30720	
2786	0	30740	
2787	0	30784	
2788	0	30880	
2789	0	31048	
2790	0	31344	
2791	0	31808	
2792	0	32404	
2793	0	33084	
2794	0	33886	
2795	0	34832	
2796	0	35916	
2797	0	37136	
2798	0	38536	
2799	0	40128	
2800	0	41744	
2801	0	43272	
2802	0	44864	
2803	0	46416	
2804	0	48084	
2805	0	49752	
2806	0	51372	
2807	0	52804	
2808	0	54060	
2809	0	55404	
2810	0	56864	
2811	0	58256	
2812	0	59432	
2813	0	60516	
2814	0	61400	
2815	0	62176	
2816	0	62564	
2817	0	61884	
2818	0	60032	
2819	0	57392	
2820	0	54144	
2821	0	50744	
2822	0	47184	
2823	0	43272	
2824	0	39040	
2825	0	35108	
2826	0	32168	
2827	0	30096	
2828	0	28632	
2829	0	27656	
2830	0	27032	
2831	0	26708	
2832	0	26600	
2833	0	26628	
2834	0	26812	
2835	0	27108	
2836	0	27508	
2837	0	27932	
2838	0	28344	
2839	0	28652	
2840	0	28856	
2841	0	29033	
2842	0	29186	
2843	0	29312	
2844	0	29376	
2845	0	29404	
2846	0	29354	
2847	0	29300	
2848	0	29256	
2849	0	29216	
2850	0	29122	
2851	0	29038	
2852	0	28960	
2853	0	28952	
2854	0	28954	
2855	0	28912	
2856	0	28860	
2857	0	28836	
2858	0	28856	
2859	0	28848	
2860	0	28832	
2861	0	28842	
2862	0	28848	
2863	0	28880	
2864	0	28892	
2865	0	28920	
2866	0	28928	
2867	0	28968	
2868	0	28966	
2869	0	29004	
2870	0	29058	
2871	0	29072	
2872	0	29144	
2873	0	29240	
2874	0	29332	
2875	0	29348	
2876	0	29336	
2877	0	29310	
2878	0	29352	
2879	0	29408	
2880	0	29384	
2881	0	29404	
2882	0	29444	
2883	0	29472	
2884	0	29472	
2885	0	29512	
2886	0	29516	
2887	0	29544	
2888	0	29562	
2889	0	29592	
2890	0	29652	
2891	0	29744	
2892	0	29800	
2893	0	29772	
2894	0	29760	
2895	0	29780	
2896	0	29820	
2897	0	29824	
2898	0	29792	
2899	0	29860	
2900	0	29972	
2901	0	30064	
2902	0	30140	
2903	0	30144	
2904	0	30160	
2905	0	30228	
2906	0	30292	
2907	0	30368	
2908	0	30392	
2909	0	30440	
2910	0	30520	
2911	0	30572	
2912	0	30568	
2913	0	30604	
2914	0	30616	
2915	0	30588	
2916	0	30640	
2917	0	30684	
2918	0	30680	
2919	0	30696	
2920	0	30680	
2921	0	30712	
2922	0	30762	
2923	0	30812	
2924	0	30848	
2925	0	30856	
2926	0	30866	
2927	0	30892	
2928	0	30946	
2929	0	30992	
2930	0	30976	
2931	0	31008	
2932	0	31098	
2933	0	31156	
2934	0	31162	
2935	0	31212	
2936	0	31268	
2937	0	31276	
2938	0	31296	
2939	0	31312	
2940	0	31324	
2941	0	31360	
2942	0	31468	
2943	0	31516	
2944	0	31576	
2945	0	31632	
2946	0	31648	
2947	0	31660	
2948	0	31720	
2949	0	31720	
2950	0	31718	
2951	0	31776	
2952	0	31812	
2953	0	31908	
2954	0	31960	
2955	0	32036	
2956	0	32036	
2957	0	32010	
2958	0	32012	
2959	0	32016	
2960	0	32068	
2961	0	32092	
2962	0	32120	
2963	0	32200	
2964	0	32324	
2965	0	32408	
2966	0	32448	
2967	0	32504	
2968	0	32580	
2969	0	32652	
2970	0	32724	
2971	0	32748	
2972	0	32756	
2973	0	32800	
2974	0	32880	
2975	0	32896	
2976	0	32918	
2977	0	32996	
2978	0	33022	
2979	0	32992	
2980	0	32992	
2981	0	32980	
2982	0	32996	
2983	0	33072	
2984	0	33216	
2985	0	33342	
2986	0	33440	
2987	0	33500	
2988	0	33582	
2989	0	33666	
2990	0	33732	
2991	0	33804	
2992	0	33876	
2993	0	33912	
2994	0	33940	
2995	0	33972	
2996	0	33980	
2997	0	33984	
2998	0	33976	
2999	0	34024	
3000	0	34064	
3001	0	34104	
3002	0	34144	
3003	0	34246	
3004	0	34336	
3005	0	34372	
3006	0	34384	
3007	0	34448	
3008	0	34556	
3009	0	34624	
3010	0	34688	
3011	0	34780	
3012	0	34832	
3013	0	34880	
3014	0	34912	
3015	0	34948	
3016	0	35008	
3017	0	35032	
3018	0	35108	
3019	0	35138	
3020	0	35224	
3021	0	35328	
3022	0	35388	
3023	0	35376	
3024	0	35420	
3025	0	35480	
3026	0	35552	
3027	0	35634	
3028	0	35744	
3029	0	35840	
3030	0	35884	
3031	0	35928	
3032	0	35964	
3033	0	35992	
3034	0	35992	
3035	0	36008	
3036	0	36084	
3037	0	36138	
3038	0	36192	
3039	0	36200	
3040	0	36212	
3041	0	36204	
3042	0	36200	
3043	0	36212	
3044	0	36228	
3045	0	36244	
3046	0	36276	
3047	0	36280	
3048	0	36284	
3049	0	36264	
3050	0	36274	
3051	0	36264	
3052	0	36266	
3053	0	36276	
3054	0	36296	
3055	0	36320	
3056	0	36344	
3057	0	36252	
3058	0	36168	
3059	0	36130	
3060	0	36076	
3061	0	35956	
3062	0	35796	
3063	0	35668	
3064	0	35548	
3065	0	35476	
3066	0	35424	
3067	0	35320	
3068	0	35200	
3069	0	35104	
3070	0	34976	
3071	0	34828	
3072	0	34692	
3073	0	34580	
3074	0	34436	
3075	0	34236	
3076	0	34014	
3077	0	33888	
3078	0	33772	
3079	0	33656	
3080	0	33506	
3081	0	33324	
3082	0	33172	
3083	0	33048	
3084	0	32908	
3085	0	32796	
3086	0	32744	
3087	0	32676	
3088	0	32560	
3089	0	32384	
3090	0	32192	
3091	0	32048	
3092	0	31948	
3093	0	31828	
3094	0	31660	
3095	0	31512	
3096	0	31404	
3097	0	31304	
3098	0	31224	
3099	0	31080	
3100	0	30932	
3101	0	30852	
3102	0	30784	
3103	0	30688	
3104	0	30584	
3105	0	30440	
3106	0	30332	
3107	0	30220	
3108	0	30132	
3109	0	30146	
3110	0	30104	
3111	0	30088	
3112	0	30072	
3113	0	30008	
3114	0	29992	
3115	0	30008	
3116	0	30020	
3117	0	30016	
3118	0	29988	
3119	0	29944	
3120	0	29912	
3121	0	29864	
3122	0	29858	
3123	0	29880	
3124	0	29904	
3125	0	29876	
3126	0	29810	
3127	0	29752	
3128	0	29736	
3129	0	29714	
3130	0	29672	
3131	0	29640	
3132	0	29656	
3133	0	29744	
3134	0	29780	
3135	0	29794	
3136	0	29808	
3137	0	29824	
3138	0	29836	
3139	0	29888	
3140	0	29928	
3141	0	29972	
3142	0	29968	
3143	0	29990	
3144	0	30004	
3145	0	30004	
3146	0	30000	
3147	0	30024	
3148	0	29978	
3149	0	29964	
3150	0	29976	
3151	0	30024	
3152	0	30080	
3153	0	30084	
3154	0	30036	
3155	0	29988	
3156	0	29976	
3157	0	29928	
3158	0	29954	
3159	0	30044	
3160	0	30200	
3161	0	30256	
3162	0	30192	
3163	0	30176	
3164	0	30188	
3165	0	30170	
3166	0	30250	
3167	0	30312	
3168	0	30352	
3169	0	30384	
3170	0	30468	
3171	0	30568	
3172	0	30554	
3173	0	30464	
3174	0	30370	
3175	0	30304	
3176	0	30368	
3177	0	30488	
3178	0	30576	
3179	0	30608	
3180	0	30620	
3181	0	30656	
3182	0	30804	
3183	0	30868	
3184	0	30824	
3185	0	30808	
3186	0	30778	
3187	0	30660	
3188	0	30636	
3189	0	30652	
3190	0	30674	
3191	0	30776	
3192	0	30816	
3193	0	30816	
3194	0	30864	
3195	0	30872	
3196	0	30808	
3197	0	30800	
3198	0	30838	
3199	0	30844	
3200	0	30848	
3201	0	30932	
3202	0	30992	
3203	0	30936	
3204	0	30944	
3205	0	31040	
3206	0	31060	
3207	0	31152	
3208	0	31272	
3209	0	31312	
3210	0	31312	
3211	0	31248	
3212	0	31196	
3213	0	31088	
3214	0	31018	
3215	0	31024	
3216	0	31080	
3217	0	31108	
3218	0	31124	
3219	0	31136	
3220	0	31124	
3221	0	31120	
3222	0	31136	
3223	0	31184	
3224	0	31224	
3225	0	31224	
3226	0	31176	
3227	0	31156	
3228	0	31136	
3229	0	31180	
3230	0	31188	
3231	0	31220	
3232	0	31304	
3233	0	31348	
3234	0	31396	
3235	0	31344	
3236	0	31296	
3237	0	31360	
3238	0	31440	
3239	0	31392	
3240	0	31364	
3241	0	31416	
3242	0	31368	
3243	0	31310	
3244	0	31364	
3245	0	31412	
3246	0	31420	
3247	0	31424	
3248	0	31412	
3249	0	31356	
3250	0	31392	
3251	0	31440	
3252	0	31480	
3253	0	31480	
3254	0	31476	
3255	0	31444	
3256	0	31356	
3257	0	31344	
3258	0	31332	
3259	0	31336	
3260	0	31324	
3261	0	31396	
3262	0	31392	
3263	0	31340	
3264	0	31336	
3265	0	31328	
3266	0	31372	
3267	0	31448	
3268	0	31464	
3269	0	31436	
3270	0	31456	
3271	0	31540	
3272	0	31664	
3273	0	31668	
3274	0	31584	
3275	0	31524	
3276	0	31508	
3277	0	31424	
3278	0	31364	
3279	0	31368	
3280	0	31408	
3281	0	31420	
3282	0	31384	
3283	0	31444	
3284	0	31492	
3285	0	31508	
3286	0	31532	
3287	0	31580	
3288	0	31608	
3289	0	31588	
3290	0	31576	
3291	0	31588	
3292	0	31604	
3293	0	31624	
3294	0	31680	
3295	0	31660	
3296	0	31684	
3297	0	31740	
3298	0	31752	
3299	0	31696	
3300	0	31596	
3301	0	31496	
3302	0	31556	
3303	0	31684	
3304	0	31732	
3305	0	31784	
3306	0	31808	
3307	0	31808	
3308	0	31780	
3309	0	31696	
3310	0	31668	
3311	0	31676	
3312	0	31696	
3313	0	31696	
3314	0	31736	
3315	0	31760	
3316	0	31760	
3317	0	31840	
3318	0	31956	
3319	0	32012	
3320	0	32032	
3321	0	31928	
3322	0	31856	
3323	0	31888	
3324	0	31936	
3325	0	31980	
3326	0	32068	
3327	0	32188	
3328	0	32320	
3329	0	32352	
3330	0	32460	
3331	0	32568	
3332	0	32696	
3333	0	32816	
3334	0	32968	
3335	0	33172	
3336	0	33304	
3337	0	33326	
3338	0	33384	
3339	0	33420	
3340	0	33416	
3341	0	33386	
3342	0	33448	
3343	0	33520	
3344	0	33568	
3345	0	33576	
3346	0	33588	
3347	0	33640	
3348	0	33708	
3349	0	33754	
3350	0	33756	
3351	0	33756	
3352	0	33860	
3353	0	33972	
3354	0	34056	
3355	0	34260	
3356	0	34420	
3357	0	34548	
3358	0	34688	
3359	0	34756	
3360	0	34776	
3361	0	34748	
3362	0	34720	
3363	0	34716	
3364	0	34732	
3365	0	34736	
3366	0	34772	
3367	0	34944	
3368	0	35024	
3369	0	35096	
3370	0	35164	
3371	0	35112	
3372	0	35006	
3373	0	34852	
3374	0	34732	
3375	0	34620	
3376	0	34530	
3377	0	34384	
3378	0	34252	
3379	0	34018	
3380	0	33720	
3381	0	33492	
3382	0	33316	
3383	0	33154	
3384	0	33132	
3385	0	33044	
3386	0	32928	
3387	0	32904	
3388	0	32892	
3389	0	32874	
3390	0	32852	
3391	0	32816	
3392	0	32744	
3393	0	32744	
3394	0	32716	
3395	0	32652	
3396	0	32656	
3397	0	32664	
3398	0	32620	
3399	0	32548	
3400	0	32484	
3401	0	32392	
3402	0	32232	
3403	0	32132	
3404	0	31996	
3405	0	31908	
3406	0	31854	
3407	0	31776	
3408	0	31692	
3409	0	31620	
3410	0	31592	
3411	0	31576	
3412	0	31524	
3413	0	31432	
3414	0	31364	
3415	0	31340	
3416	0	31340	
3417	0	31308	
3418	0	31266	
3419	0	31316	
3420	0	31340	
3421	0	31336	
3422	0	31384	
3423	0	31416	
3424	0	31472	
3425	0	31516	
3426	0	31502	
3427	0	31504	
3428	0	31492	
3429	0	31524	
3430	0	31544	
3431	0	31476	
3432	0	31400	
3433	0	31320	
3434	0	31332	
3435	0	31388	
3436	0	31418	
3437	0	31436	
3438	0	31468	
3439	0	31440	
3440	0	31472	
3441	0	31540	
3442	0	31500	
3443	0	31492	
3444	0	31564	
3445	0	31630	
3446	0	31652	
3447	0	31660	
3448	0	31712	
3449	0	31712	
3450	0	31712	
3451	0	31728	
3452	0	31788	
3453	0	31776	
3454	0	31748	
3455	0	31696	
3456	0	31712	
3457	0	31792	
3458	0	31828	
3459	0	31820	
3460	0	31784	
3461	0	31704	
3462	0	31636	
3463	0	31508	
3464	0	31332	
3465	0	31148	
3466	0	30960	
3467	0	30772	
3468	0	30640	
3469	0	30636	
3470	0	30728	
3471	0	30864	
3472	0	30996	
3473	0	31264	
3474	0	31744	
3475	0	32416	
3476	0	33132	
3477	0	34032	
3478	0	35136	
3479	0	36312	
3480	0	37632	
3481	0	39204	
3482	0	40876	
3483	0	42520	
3484	0	44180	
3485	0	45824	
3486	0	47468	
3487	0	49120	
3488	0	50848	
3489	0	52544	
3490	0	54200	
3491	0	55760	
3492	0	57120	
3493	0	58464	
3494	0	59928	
3495	0	61332	
3496	0	62496	
3497	0	63360	
3498	0	63904	
3499	0	63728	
3500	0	62492	
3501	0	60440	
3502	0	57592	
3503	0	54160	
3504	0	50716	
3505	0	47020	
3506	0	42876	
3507	0	38312	
3508	0	34192	
3509	0	31112	
3510	0	28984	
3511	0	27780	
3512	0	27152	
3513	0	26868	
3514	0	26736	
3515	0	26688	
3516	0	26618	
3517	0	26588	
3518	0	26760	
3519	0	27048	
3520	0	27324	
3521	0	27552	
3522	0	27764	
3523	0	28052	
3524	0	28332	
3525	0	28626	
3526	0	28876	
3527	0	29152	
3528	0	29428	
3529	0	29536	
3530	0	29512	
3531	0	29488	
3532	0	29496	
3533	0	29492	
3534	0	29388	
3535	0	29288	
3536	0	29252	
3537	0	29168	
3538	0	29100	
3539	0	29076	
3540	0	29092	
3541	0	29086	
3542	0	29040	
3543	0	29024	
3544	0	29040	
3545	0	29098	
3546	0	29148	
3547	0	29164	
3548	0	29238	
3549	0	29332	
3550	0	29384	
3551	0	29356	
3552	0	29332	
3553	0	29312	
3554	0	29272	
3555	0	29292	
3556	0	29336	
3557	0	29380	
3558	0	29362	
3559	0	29388	
3560	0	29374	
3561	0	29444	
3562	0	29506	
3563	0	29504	
3564	0	29568	
3565	0	29620	
3566	0	29660	
3567	0	29828	
3568	0	29948	
3569	0	29900	
3570	0	29928	
3571	0	30080	
3572	0	30196	
3573	0	30224	
3574	0	30196	
3575	0	30160	
3576	0	30096	
3577	0	30060	
3578	0	30069	
3579	0	30122	
3580	0	30160	
3581	0	30138	
3582	0	30180	
3583	0	30264	
3584	0	30246	
3585	0	30228	
3586	0	30260	
3587	0	30352	
3588	0	30492	
3589	0	30560	
3590	0	30624	
3591	0	30760	
3592	0	30876	
3593	0	30948	
3594	0	30942	
3595	0	30960	
3596	0	30932	
3597	0	30960	
3598	0	30944	
3599	0	30928	
3600	0	30956	
3601	0	31066	
3602	0	31102	
3603	0	31104	
3604	0	31060	
3605	0	31020	
3606	0	31000	
3607	0	31004	
3608	0	31124	
3609	0	31224	
3610	0	31300	
3611	0	31328	
3612	0	31436	
3613	0	31520	
3614	0	31496	
3615	0	31420	
3616	0	31436	
3617	0	31520	
3618	0	31652	
3619	0	31724	
3620	0	31768	
3621	0	31800	
3622	0	31848	
3623	0	31884	
3624	0	31866	
3625	0	31892	
3626	0	31928	
3627	0	31892	
3628	0	31932	
3629	0	31868	
3630	0	31784	
3631	0	31792	
3632	0	31928	
3633	0	32032	
3634	0	32064	
3635	0	32140	
3636	0	32208	
3637	0	32256	
3638	0	32260	
3639	0	32336	
3640	0	32424	
3641	0	32400	
3642	0	32482	
3643	0	32608	
3644	0	32576	
3645	0	32608	
3646	0	32772	
3647	0	32896	
3648	0	32940	
3649	0	32960	
3650	0	33054	
3651	0	33016	
3652	0	32886	
3653	0	32748	
3654	0	32736	
3655	0	32784	
3656	0	32796	
3657	0	32800	
3658	0	32856	
3659	0	32924	
3660	0	32992	
3661	0	33098	
3662	0	33224	
3663	0	33308	
3664	0	33332	
3665	0	33360	
3666	0	33498	
3667	0	33580	
3668	0	33676	
3669	0	33760	
3670	0	33784	
3671	0	33764	
3672	0	33796	
3673	0	33852	
3674	0	33890	
3675	0	33948	
3676	0	33944	
3677	0	33992	
3678	0	34032	
3679	0	34044	
3680	0	33996	
3681	0	33992	
3682	0	34068	
3683	0	34240	
3684	0	34372	
3685	0	34338	
3686	0	34432	
3687	0	34600	
3688	0	34724	
3689	0	34852	
3690	0	34904	
3691	0	34884	
3692	0	34908	
3693	0	35016	
3694	0	35104	
3695	0	35112	
3696	0	35084	
3697	0	35112	
3698	0	35264	
3699	0	35402	
3700	0	35500	
3701	0	35520	
3702	0	35536	
3703	0	35612	
3704	0	35768	
3705	0	35908	
3706	0	36016	
3707	0	36072	
3708	0	36064	
3709	0	36120	
3710	0	36176	
3711	0	36192	
3712	0	36264	
3713	0	36312	
3714	0	36436	
3715	0	36540	
3716	0	36552	
3717	0	36532	
3718	0	36476	
3719	0	36432	
3720	0	36520	
3721	0	36596	
3722	0	36580	
3723	0	36544	
3724	0	36560	
3725	0	36536	
3726	0	36442	
3727	0	36380	
3728	0	36400	
3729	0	36416	
3730	0	36524	
3731	0	36516	
3732	0	36440	
3733	0	36396	
3734	0	36332	
3735	0	36312	
3736	0	36372	
3737	0	36448	
3738	0	36424	
3739	0	36372	
3740	0	36328	
3741	0	36340	
3742	0	36348	
3743	0	36296	
3744	0	36172	
3745	0	36000	
3746	0	35896	
3747	0	35780	
3748	0	35680	
3749	0	35496	
3750	0	35236	
3751	0	35072	
3752	0	35000	
3753	0	34954	
3754	0	34824	
3755	0	34672	
3756	0	34420	
3757	0	34148	
3758	0	34032	
3759	0	33920	
3760	0	33772	
3761	0	33646	
3762	0	33492	
3763	0	33412	
3764	0	33228	
3765	0	33008	
3766	0	32912	
3767	0	32844	
3768	0	32752	
3769	0	32588	
3770	0	32468	
3771	0	32424	
3772	0	32384	
3773	0	32296	
3774	0	32064	
3775	0	31804	
3776	0	31552	
3777	0	31468	
3778	0	31384	
3779	0	31292	
3780	0	31184	
3781	0	31096	
3782	0	30952	
3783	0	30856	
3784	0	30760	
3785	0	30628	
3786	0	30600	
3787	0	30568	
3788	0	30500	
3789	0	30408	
3790	0	30304	
3791	0	30284	
3792	0	30218	
3793	0	30088	
3794	0	29976	
3795	0	29890	
3796	0	29808	
3797	0	29768	
3798	0	29732	
3799	0	29768	
3800	0	29796	
3801	0	29800	
3802	0	29792	
3803	0	29696	
3804	0	29600	
3805	0	29492	
3806	0	29370	
3807	0	29360	
3808	0	29500	
3809	0	29504	
3810	0	29488	
3811	0	29524	
3812	0	29472	
3813	0	29472	
3814	0	29496	
3815	0	29544	
3816	0	29624	
3817	0	29688	
3818	0	29788	
3819	0	29872	
3820	0	29848	
3821	0	29816	
3822	0	29728	
3823	0	29716	
3824	0	29772	
3825	0	29876	
3826	0	29946	
3827	0	29912	
3828	0	29840	
3829	0	29804	
3830	0	29868	
3831	0	29912	
3832	0	29844	
3833	0	29784	
3834	0	29824	
3835	0	29848	
3836	0	29860	
3837	0	29884	
3838	0	29896	
3839	0	29892	
3840	0	29952	
3841	0	29978	
3842	0	29936	
3843	0	29944	
3844	0	30056	
3845	0	30188	
3846	0	30292	
3847	0	30312	
3848	0	30336	
3849	0	30396	
3850	0	30492	
3851	0	30460	
3852	0	30458	
3853	0	30458	
3854	0	30464	
3855	0	30492	
3856	0	30432	
3857	0	30376	
3858	0	30468	
3859	0	30544	
3860	0	30576	
3861	0	30680	
3862	0	30776	
3863	0	30736	
3864	0	30612	
3865	0	30568	
3866	0	30568	
3867	0	30624	
3868	0	30746	
3869	0	30784	
3870	0	30730	
3871	0	30800	
3872	0	30830	
3873	0	30764	
3874	0	30696	
3875	0	30692	
3876	0	30704	
3877	0	30640	
3878	0	30592	
3879	0	30600	
3880	0	30668	
3881	0	30720	
3882	0	30768	
3883	0	30808	
3884	0	30880	
3885	0	30952	
3886	0	30976	
3887	0	31008	
3888	0	30984	
3889	0	31044	
3890	0	31156	
3891	0	31124	
3892	0	31160	
3893	0	31208	
3894	0	31294	
3895	0	31268	
3896	0	31300	
3897	0	31376	
3898	0	31400	
3899	0	31372	
3900	0	31342	
3901	0	31368	
3902	0	31316	
3903	0	31184	
3904	0	31060	
3905	0	30988	
3906	0	31000	
3907	0	31084	
3908	0	31244	
3909	0	31220	
3910	0	31256	
3911	0	31358	
3912	0	31468	
3913	0	31568	
3914	0	31576	
3915	0	31518	
3916	0	31480	
3917	0	31432	
3918	0	31504	
3919	0	31542	
3920	0	31612	
3921	0	31628	
3922	0	31524	
3923	0	31444	
3924	0	31412	
3925	0	31356	
3926	0	31296	
3927	0	31248	
3928	0	31226	
3929	0	31274	
3930	0	31216	
3931	0	31140	
3932	0	31204	
3933	0	31192	
3934	0	31108	
3935	0	31200	
3936	0	31304	
3937	0	31440	
3938	0	31552	
3939	0	31680	
3940	0	31676	
3941	0	31620	
3942	0	31572	
3943	0	31600	
3944	0	31688	
3945	0	31692	
3946	0	31568	
3947	0	31492	
3948	0	31460	
3949	0	31596	
3950	0	31736	
3951	0	31800	
3952	0	31816	
3953	0	31884	
3954	0	31948	
3955	0	31976	
3956	0	31884	
3957	0	31900	
3958	0	32012	
3959	0	32072	
3960	0	32044	
3961	0	31864	
3962	0	31684	
3963	0	31648	
3964	0	31672	
3965	0	31716	
3966	0	31772	
3967	0	31826	
3968	0	31920	
3969	0	32000	
3970	0	32016	
3971	0	32080	
3972	0	32132	
3973	0	32250	
3974	0	32344	
3975	0	32416	
3976	0	32524	
3977	0	32596	
3978	0	32658	
3979	0	32740	
3980	0	32876	
3981	0	33000	
3982	0	33056	
3983	0	33204	
3984	0	33308	
3985	0	33232	
3986	0	33188	
3987	0	33180	
3988	0	33244	
3989	0	33312	
3990	0	33376	
3991	0	33434	
3992	0	33516	
3993	0	33624	
3994	0	33664	
3995	0	33696	
3996	0	33772	
3997	0	33836	
3998	0	33820	
3999	0	33856	
4000	0	33876	
4001	0	33908	
4002	0	34016	
4003	0	34192	
4004	0	34388	
4005	0	34624	
4006	0	34712	
4007	0	34760	
4008	0	34760	
4009	0	34816	
4010	0	34880	
4011	0	34880	
4012	0	34862	
4013	0	34972	
4014	0	35000	
4015	0	34948	
4016	0	34948	
4017	0	34976	
4018	0	34940	
4019	0	34788	
4020	0	34580	
4021	0	34304	
4022	0	34084	
4023	0	33952	
4024	0	33948	
4025	0	33960	
4026	0	33864	
4027	0	33772	
4028	0	33544	
4029	0	33352	
4030	0	33324	
4031	0	33280	
4032	0	33340	
4033	0	33436	
4034	0	33312	
4035	0	33144	
4036	0	33072	
4037	0	33036	
4038	0	33024	
4039	0	32944	
4040	0	32880	
4041	0	32744	
4042	0	32580	
4043	0	32452	
4044	0	32320	
4045	0	32216	
4046	0	32204	
4047	0	32212	
4048	0	32196	
4049	0	32160	
4050	0	32132	
4051	0	32144	
4052	0	32044	
4053	0	31952	
4054	0	31896	
4055	0	31796	
4056	0	31696	
4057	0	31648	
4058	0	31620	
4059	0	31532	
4060	0	31420	
4061	0	31324	
4062	0	31192	
4063	0	31104	
4064	0	31064	
4065	0	31100	
4066	0	31088	
4067	0	31048	
4068	0	30976	
4069	0	31028	
4070	0	31108	
4071	0	31204	
4072	0	31256	
4073	0	31248	
4074	0	31280	
4075	0	31338	
4076	0	31372	
4077	0	31468	
4078	0	31544	
4079	0	31588	
4080	0	31516	
4081	0	31536	
4082	0	31504	
4083	0	31440	
4084	0	31416	
4085	0	31412	
4086	0	31392	
4087	0	31324	
4088	0	31252	
4089	0	31188	
4090	0	31202	
4091	0	31240	
4092	0	31320	
4093	0	31354	
4094	0	31328	
4095	0	31396	
4096	0	31528	
4097	0	31656	
4098	0	31704	
4099	0	31740	
4100	0	31744	
4101	0	31740	
4102	0	31800	
4103	0	31792	
4104	0	31794	
4105	0	31868	
4106	0	31936	
4107	0	31920	
4108	0	31896	
4109	0	31944	
4110	0	31872	
4111	0	31700	
4112	0	31544	
4113	0	31456	
4114	0	31312	
4115	0	31144	
4116	0	30860	
4117	0	30636	
4118	0	30524	
4119	0	30528	
4120	0	30664	
4121	0	30868	
4122	0	31104	
4123	0	31496	
4124	0	32106	
4125	0	32932	
4126	0	33764	
4127	0	34864	
4128	0	36164	
4129	0	37396	
4130	0	38784	
4131	0	40392	
4132	0	42004	
4133	0	43544	
4134	0	45148	
4135	0	46924	
4136	0	48844	
4137	0	50696	
4138	0	52376	
4139	0	53944	
4140	0	55512	
4141	0	56824	
4142	0	58060	
4143	0	59316	
4144	0	60676	
4145	0	62036	
4146	0	63240	
4147	0	63888	
4148	0	64192	
4149	0	64288	
4150	0	62656	
4151	0	60148	
4152	0	56716	
4153	0	52916	
4154	0	49176	
4155	0	45104	
4156	0	40648	
4157	0	35980	
4158	0	32012	
4159	0	29076	
4160	0	27168	
4161	0	26192	
4162	0	25794	
4163	0	25768	
4164	0	25924	
4165	0	25980	
4166	0	25924	
4167	0	25850	
4168	0	25920	
4169	0	26164	
4170	0	26684	
4171	0	27038	
4172	0	27332	
4173	0	27632	
4174	0	27908	
4175	0	28284	
4176	0	28642	
4177	0	28956	
4178	0	29208	
4179	0	29252	
4180	0	29264	
4181	0	29312	
4182	0	29344	
4183	0	29348	
4184	0	29324	
4185	0	29344	
4186	0	29412	
4187	0	29424	
4188	0	29404	
4189	0	29356	
4190	0	29344	
4191	0	29356	
4192	0	29360	
4193	0	29276	
4194	0	29188	
4195	0	29214	
4196	0	29154	
4197	0	29086	
4198	0	29188	
4199	0	29204	
4200	0	29088	
4201	0	29080	
4202	0	29020	
4203	0	28964	
4204	0	29028	
4205	0	29024	
4206	0	29032	
4207	0	29020	
4208	0	29052	
4209	0	29124	
4210	0	29332	
4211	0	29496	
4212	0	29524	
4213	0	29580	
4214	0	29648	
4215	0	29668	
4216	0	29832	
4217	0	29904	
4218	0	29876	
4219	0	29904	
4220	0	29928	
4221	0	30052	
4222	0	30068	
4223	0	30120	
4224	0	30076	
4225	0	30000	
4226	0	30016	
4227	0	30162	
4228	0	30416	
4229	0	30452	
4230	0	30480	
4231	0	30568	
4232	0	30584	
4233	0	30680	
4234	0	30756	
4235	0	30844	
4236	0	30822	
4237	0	30720	
4238	0	30596	
4239	0	30552	
4240	0	30650	
4241	0	30768	
4242	0	30908	
4243	0	30836	
4244	0	30760	
4245	0	30748	
4246	0	30784	
4247	0	30804	
4248	0	30912	
4249	0	31016	
4250	0	31124	
4251	0	31196	
4252	0	31212	
4253	0	31184	
4254	0	31252	
4255	0	31266	
4256	0	31120	
4257	0	31196	
4258	0	31470	
4259	0	31532	
4260	0	31484	
4261	0	31514	
4262	0	31528	
4263	0	31552	
4264	0	31436	
4265	0	31284	
4266	0	31296	
4267	0	31384	
4268	0	31428	
4269	0	31528	
4270	0	31616	
4271	0	31676	
4272	0	31720	
4273	0	31768	
4274	0	31872	
4275	0	32000	
4276	0	32156	
4277	0	32200	
4278	0	32208	
4279	0	32320	
4280	0	32328	
4281	0	32276	
4282	0	32232	
4283	0	32196	
4284	0	32152	
4285	0	32076	
4286	0	32064	
4287	0	32072	
4288	0	32180	
4289	0	32388	
4290	0	32508	
4291	0	32546	
4292	0	32588	
4293	0	32704	
4294	0	32848	
4295	0	32894	
4296	0	32888	
4297	0	32836	
4298	0	32840	
4299	0	32792	
4300	0	32758	
4301	0	32796	
4302	0	32784	
4303	0	32860	
4304	0	32960	
4305	0	32996	
4306	0	33030	
4307	0	33154	
4308	0	33252	
4309	0	33396	
4310	0	33528	
4311	0	33560	
4312	0	33538	
4313	0	33524	
4314	0	33548	
4315	0	33592	
4316	0	33604	
4317	0	33664	
4318	0	33804	
4319	0	33880	
4320	0	33860	
4321	0	33900	
4322	0	33920	
4323	0	33916	
4324	0	33996	
4325	0	34016	
4326	0	34076	
4327	0	34208	
4328	0	34320	
4329	0	34504	
4330	0	34688	
4331	0	34804	
4332	0	34824	
4333	0	34872	
4334	0	35024	
4335	0	35160	
4336	0	35172	
4337	0	35084	
4338	0	35160	
4339	0	35276	
4340	0	35334	
4341	0	35313	
4342	0	35264	
4343	0	35244	
4344	0	35380	
4345	0	35544	
4346	0	35784	
4347	0	35896	
4348	0	35966	
4349	0	36136	
4350	0	36320	
4351	0	36532	
4352	0	36536	
4353	0	36540	
4354	0	36500	
4355	0	36476	
4356	0	36476	
4357	0	36476	
4358	0	36464	
4359	0	36518	
4360	0	36528	
4361	0	36578	
4362	0	36624	
4363	0	36660	
4364	0	36704	
4365	0	36804	
4366	0	36996	
4367	0	37100	
4368	0	37180	
4369	0	37280	
4370	0	37300	
4371	0	37248	
4372	0	37176	
4373	0	37092	
4374	0	37040	
4375	0	37028	
4376	0	36992	
4377	0	36920	
4378	0	36888	
4379	0	36864	
4380	0	36912	
4381	0	36852	
4382	0	36818	
4383	0	36832	
4384	0	36904	
4385	0	36836	
4386	0	36832	
4387	0	36828	
4388	0	36820	
4389	0	36800	
4390	0	36744	
4391	0	36670	
4392	0	36572	
4393	0	36498	
4394	0	36416	
4395	0	36256	
4396	0	36048	
4397	0	35808	
4398	0	35672	
4399	0	35664	
4400	0	35488	
4401	0	35212	
4402	0	35020	
4403	0	34876	
4404	0	34520	
4405	0	34216	
4406	0	33976	
4407	0	33806	
4408	0	33624	
4409	0	33380	
4410	0	33132	
4411	0	33012	
4412	0	32968	
4413	0	32922	
4414	0	32864	
4415	0	32796	
4416	0	32688	
4417	0	32532	
4418	0	32260	
4419	0	32016	
4420	0	31808	
4421	0	31556	
4422	0	31488	
4423	0	31388	
4424	0	31332	
4425	0	31304	
4426	0	31244	
4427	0	31226	
4428	0	31184	
4429	0	31122	
4430	0	31084	
4431	0	30948	
4432	0	30776	
4433	0	30576	
4434	0	30320	
4435	0	30100	
4436	0	30004	
4437	0	29972	
4438	0	29932	
4439	0	29884	
4440	0	29874	
4441	0	29852	
4442	0	29754	
4443	0	29648	
4444	0	29540	
4445	0	29412	
4446	0	29400	
4447	0	29468	
4448	0	29448	
4449	0	29464	
4450	0	29580	
4451	0	29584	
4452	0	29508	
4453	0	29464	
4454	0	29500	
4455	0	29536	
4456	0	29500	
4457	0	29456	
4458	0	29444	
4459	0	29532	
4460	0	29552	
4461	0	29516	
4462	0	29452	
4463	0	29368	
4464	0	29352	
4465	0	29404	
4466	0	29444	
4467	0	29400	
4468	0	29370	
4469	0	29374	
4470	0	29368	
4471	0	29476	
4472	0	29576	
4473	0	29632	
4474	0	29712	
4475	0	29664	
4476	0	29636	
4477	0	29812	
4478	0	29868	
4479	0	29796	
4480	0	29680	
4481	0	29548	
4482	0	29464	
4483	0	29584	
4484	0	29600	
4485	0	29588	
4486	0	29608	
4487	0	29688	
4488	0	29772	
4489	0	29848	
4490	0	29952	
4491	0	30092	
4492	0	30196	
4493	0	30188	
4494	0	30172	
4495	0	30216	
4496	0	30236	
4497	0	30242	
4498	0	30220	
4499	0	30140	
4500	0	30188	
4501	0	30192	
4502	0	30180	
4503	0	30192	
4504	0	30258	
4505	0	30320	
4506	0	30324	
4507	0	30348	
4508	0	30404	
4509	0	30498	
4510	0	30680	
4511	0	30778	
4512	0	30760	
4513	0	30720	
4514	0	30666	
4515	0	30688	
4516	0	30688	
4517	0	30608	
4518	0	30596	
4519	0	30636	
4520	0	30666	
4521	0	30704	
4522	0	30872	
4523	0	30944	
4524	0	30880	
4525	0	30816	
4526	0	30836	
4527	0	30844	
4528	0	30904	
4529	0	30946	
4530	0	31016	
4531	0	31108	
4532	0	31188	
4533	0	31276	
4534	0	31328	
4535	0	31234	
4536	0	31132	
4537	0	31080	
4538	0	31120	
4539	0	31148	
4540	0	31140	
4541	0	31164	
4542	0	31244	
4543	0	31276	
4544	0	31272	
4545	0	31252	
4546	0	31274	
4547	0	31208	
4548	0	31256	
4549	0	31340	
4550	0	31364	
4551	0	31328	
4552	0	31264	
4553	0	31258	
4554	0	31280	
4555	0	31288	
4556	0	31276	
4557	0	31264	
4558	0	31308	
4559	0	31330	
4560	0	31312	
4561	0	31304	
4562	0	31308	
4563	0	31344	
4564	0	31368	
4565	0	31372	
4566	0	31404	
4567	0	31480	
4568	0	31612	
4569	0	31644	
4570	0	31576	
4571	0	31560	
4572	0	31600	
4573	0	31616	
4574	0	31580	
4575	0	31576	
4576	0	31664	
4577	0	31844	
4578	0	31880	
4579	0	31868	
4580	0	31844	
4581	0	31840	
4582	0	31844	
4583	0	31768	
4584	0	31688	
4585	0	31696	
4586	0	31820	
4587	0	31888	
4588	0	31976	
4589	0	32000	
4590	0	32100	
4591	0	32228	
4592	0	32448	
4593	0	32664	
4594	0	32772	
4595	0	32758	
4596	0	32672	
4597	0	32724	
4598	0	32800	
4599	0	32904	
4600	0	32924	
4601	0	32980	
4602	0	33154	
4603	0	33164	
4604	0	33096	
4605	0	33124	
4606	0	33144	
4607	0	33156	
4608	0	33252	
4609	0	33372	
4610	0	33492	
4611	0	33652	
4612	0	33752	
4613	0	33872	
4614	0	33932	
4615	0	33928	
4616	0	34000	
4617	0	34096	
4618	0	34212	
4619	0	34290	
4620	0	34364	
4621	0	34396	
4622	0	34416	
4623	0	34420	
4624	0	34476	
4625	0	34528	
4626	0	34636	
4627	0	34796	
4628	0	34928	
4629	0	35040	
4630	0	35076	
4631	0	35100	
4632	0	35108	
4633	0	35028	
4634	0	34900	
4635	0	34768	
4636	0	34628	
4637	0	34448	
4638	0	34352	
4639	0	34272	
4640	0	34272	
4641	0	34220	
4642	0	34104	
4643	0	34032	
4644	0	33980	
4645	0	33824	
4646	0	33652	
4647	0	33508	
4648	0	33394	
4649	0	33244	
4650	0	33184	
4651	0	33158	
4652	0	33136	
4653	0	33128	
4654	0	33068	
4655	0	32928	
4656	0	32800	
4657	0	32824	
4658	0	32836	
4659	0	32760	
4660	0	32592	
4661	0	32502	
4662	0	32408	
4663	0	32272	
4664	0	32172	
4665	0	32156	
4666	0	32104	
4667	0	32016	
4668	0	31900	
4669	0	31856	
4670	0	31860	
4671	0	31748	
4672	0	31548	
4673	0	31452	
4674	0	31440	
4675	0	31340	
4676	0	31256	
4677	0	31184	
4678	0	31200	
4679	0	31214	
4680	0	31108	
4681	0	31032	
4682	0	31040	
4683	0	31096	
4684	0	31132	
4685	0	31108	
4686	0	31088	
4687	0	31104	
4688	0	31128	
4689	0	31160	
4690	0	31176	
4691	0	31204	
4692	0	31196	
4693	0	31264	
4694	0	31296	
4695	0	31224	
4696	0	31244	
4697	0	31360	
4698	0	31372	
4699	0	31328	
4700	0	31272	
4701	0	31248	
4702	0	31184	
4703	0	31236	
4704	0	31356	
4705	0	31414	
4706	0	31456	
4707	0	31500	
4708	0	31544	
4709	0	31564	
4710	0	31492	
4711	0	31472	
4712	0	31574	
4713	0	31576	
4714	0	31558	
4715	0	31476	
4716	0	31428	
4717	0	31496	
4718	0	31544	
4719	0	31514	
4720	0	31468	
4721	0	31384	
4722	0	31336	
4723	0	31356	
4724	0	31374	
4725	0	31408	
4726	0	31380	
4727	0	31288	
4728	0	31200	
4729	0	31184	
4730	0	31266	
4731	0	31210	
4732	0	31096	
4733	0	30916	
4734	0	30732	
4735	0	30580	
4736	0	30514	
4737	0	30508	
4738	0	30596	
4739	0	30832	
4740	0	31114	
4741	0	31652	
4742	0	32372	
4743	0	33112	
4744	0	34112	
4745	0	35324	
4746	0	36560	
4747	0	37944	
4748	0	39592	
4749	0	41368	
4750	0	43148	
4751	0	44892	
4752	0	46604	
4753	0	48328	
4754	0	50080	
4755	0	51744	
4756	0	53348	
4757	0	54932	
4758	0	56480	
4759	0	57872	
4760	0	59256	
4761	0	60696	
4762	0	62100	
4763	0	63276	
4764	0	63876	
4765	0	64144	
4766	0	64224	
4767	0	64224	
4768	0	63296	
4769	0	59640	
4770	0	55744	
4771	0	51796	
4772	0	47680	
4773	0	43180	
4774	0	38424	
4775	0	34002	
4776	0	30560	
4777	0	28112	
4778	0	26682	
4779	0	26030	
4780	0	25864	
4781	0	25936	
4782	0	25960	
4783	0	25856	
4784	0	25776	
4785	0	25836	
4786	0	26050	
4787	0	26360	
4788	0	26604	
4789	0	26896	
4790	0	27200	
4791	0	27544	
4792	0	27904	
4793	0	28204	
4794	0	28528	
4795	0	28828	
4796	0	29056	
4797	0	29276	
4798	0	29376	
4799	0	29334	
4800	0	29220	
4801	0	29168	
4802	0	29080	
4803	0	28972	
4804	0	28956	
4805	0	28996	
4806	0	29028	
4807	0	29012	
4808	0	29020	
4809	0	28962	
4810	0	28856	
4811	0	28912	
4812	0	28996	
4813	0	28944	
4814	0	28962	
4815	0	29056	
4816	0	29148	
4817	0	29184	
4818	0	29196	
4819	0	29248	
4820	0	29280	
4821	0	29312	
4822	0	29372	
4823	0	29400	
4824	0	29376	
4825	0	29368	
4826	0	29428	
4827	0	29488	
4828	0	29572	
4829	0	29666	
4830	0	29696	
4831	0	29752	
4832	0	29864	
4833	0	29924	
4834	0	29968	
4835	0	30068	
4836	0	30116	
4837	0	30096	
4838	0	30146	
4839	0	30176	
4840	0	30232	
4841	0	30292	
4842	0	30320	
4843	0	30304	
4844	0	30356	
4845	0	30444	
4846	0	30480	
4847	0	30516	
4848	0	30504	
4849	0	30508	
4850	0	30536	
4851	0	30538	
4852	0	30586	
4853	0	30674	
4854	0	30664	
4855	0	30700	
4856	0	30688	
4857	0	30708	
4858	0	30700	
4859	0	30708	
4860	0	30764	
4861	0	30808	
4862	0	30880	
4863	0	30936	
4864	0	30972	
4865	0	31012	
4866	0	31040	
4867	0	31130	
4868	0	31224	
4869	0	31276	
4870	0	31304	
4871	0	31324	
4872	0	31416	
4873	0	31546	
4874	0	31544	
4875	0	31480	
4876	0	31440	
4877	0	31428	
4878	0	31412	
4879	0	31372	
4880	0	31356	
4881	0	31372	
4882	0	31312	
4883	0	31226	
4884	0	31248	
4885	0	31348	
4886	0	31420	
4887	0	31492	
4888	0	31548	
4889	0	31628	
4890	0	31712	
4891	0	31824	
4892	0	31924	
4893	0	32000	
4894	0	32084	
4895	0	32120	
4896	0	32128	
4897	0	32160	
4898	0	32212	
4899	0	32276	
4900	0	32298	
4901	0	32312	
4902	0	32360	
4903	0	32412	
4904	0	32544	
4905	0	32612	
4906	0	32604	
4907	0	32596	
4908	0	32600	
4909	0	32652	
4910	0	32712	
4911	0	32776	
4912	0	32840	
4913	0	32886	
4914	0	32892	
4915	0	32916	
4916	0	32968	
4917	0	33013	
4918	0	33080	
4919	0	33104	
4920	0	33184	
4921	0	33260	
4922	0	33312	
4923	0	33336	
4924	0	33416	
4925	0	33440	
4926	0	33444	
4927	0	33496	
4928	0	33576	
4929	0	33642	
4930	0	33704	
4931	0	33704	
4932	0	33644	
4933	0	33672	
4934	0	33764	
4935	0	33828	
4936	0	33832	
4937	0	33784	
4938	0	33856	
4939	0	33992	
4940	0	34146	
4941	0	34308	
4942	0	34388	
4943	0	34488	
4944	0	34572	
4945	0	34620	
4946	0	34600	
4947	0	34668	
4948	0	34796	
4949	0	34902	
4950	0	35048	
4951	0	35104	
4952	0	35194	
4953	0	35216	
4954	0	35208	
4955	0	35260	
4956	0	35342	
4957	0	35364	
4958	0	35464	
4959	0	35588	
4960	0	35696	
4961	0	35724	
4962	0	35732	
4963	0	35808	
4964	0	35868	
4965	0	35956	
4966	0	36072	
4967	0	36148	
4968	0	36216	
4969	0	36296	
4970	0	36388	
4971	0	36392	
4972	0	36436	
4973	0	36500	
4974	0	36556	
4975	0	36644	
4976	0	36736	
4977	0	36752	
4978	0	36808	
4979	0	36856	
4980	0	36884	
4981	0	36908	
4982	0	36948	
4983	0	36968	
4984	0	36976	
4985	0	37020	
4986	0	37064	
4987	0	37144	
4988	0	37148	
4989	0	37168	
4990	0	37172	
4991	0	37248	
4992	0	37292	
4993	0	37312	
4994	0	37296	
4995	0	37280	
4996	0	37270	
4997	0	37220	
4998	0	37124	
4999	0	37008	
5000	0	37028	
5001	0	37108	
5002	0	37108	
5003	0	37122	
5004	0	37060	
5005	0	36912	
5006	0	36766	
5007	0	36600	
5008	0	36512	
5009	0	36410	
5010	0	36268	
5011	0	36152	
5012	0	36048	
5013	0	35860	
5014	0	35616	
5015	0	35428	
5016	0	35272	
5017	0	35128	
5018	0	34888	
5019	0	34628	
5020	0	34388	
5021	0	34272	
5022	0	34104	
5023	0	33892	
5024	0	33760	
5025	0	33632	
5026	0	33472	
5027	0	33322	
5028	0	33184	
5029	0	33076	
5030	0	32932	
5031	0	32832	
5032	0	32714	
5033	0	32528	
5034	0	32316	
5035	0	32078	
5036	0	31892	
5037	0	31688	
5038	0	31532	
5039	0	31420	
5040	0	31312	
5041	0	31192	
5042	0	31136	
5043	0	31008	
5044	0	30848	
5045	0	30700	
5046	0	30624	
5047	0	30640	
5048	0	30588	
5049	0	30488	
5050	0	30380	
5051	0	30424	
5052	0	30464	
5053	0	30402	
5054	0	30256	
5055	0	30116	
5056	0	30036	
5057	0	30008	
5058	0	30020	
5059	0	29932	
5060	0	29836	
5061	0	29776	
5062	0	29708	
5063	0	29700	
5064	0	29632	
5065	0	29580	
5066	0	29564	
5067	0	29568	
5068	0	29560	
5069	0	29556	
5070	0	29596	
5071	0	29624	
5072	0	29596	
5073	0	29546	
5074	0	29516	
5075	0	29556	
5076	0	29508	
5077	0	29472	
5078	0	29436	
5079	0	29428	
5080	0	29516	
5081	0	29628	
5082	0	29716	
5083	0	29738	
5084	0	29732	
5085	0	29728	
5086	0	29696	
5087	0	29678	
5088	0	29668	
5089	0	29664	
5090	0	29728	
5091	0	29744	
5092	0	29720	
5093	0	29696	
5094	0	29752	
5095	0	29756	
5096	0	29752	
5097	0	29768	
5098	0	29808	
5099	0	29870	
5100	0	29900	
5101	0	29944	
5102	0	29948	
5103	0	29952	
5104	0	29970	
5105	0	29998	
5106	0	30060	
5107	0	30140	
5108	0	30244	
5109	0	30304	
5110	0	30308	
5111	0	30266	
5112	0	30244	
5113	0	30200	
5114	0	30208	
5115	0	30284	
5116	0	30304	
5117	0	30260	
5118	0	30296	
5119	0	30340	
5120	0	30368	
5121	0	30432	
5122	0	30456	
5123	0	30476	
5124	0	30476	
5125	0	30506	
5126	0	30550	
5127	0	30588	
5128	0	30606	
5129	0	30640	
5130	0	30592	
5131	0	30588	
5132	0	30640	
5133	0	30632	
5134	0	30632	
5135	0	30626	
5136	0	30620	
5137	0	30624	
5138	0	30624	
5139	0	30612	
5140	0	30532	
5141	0	30516	
5142	0	30532	
5143	0	30634	
5144	0	30760	
5145	0	30818	
5146	0	30848	
5147	0	30908	
5148	0	30964	
5149	0	31016	
5150	0	31040	
5151	0	31084	
5152	0	31124	
5153	0	31112	
5154	0	31096	
5155	0	31024	
5156	0	31022	
5157	0	31076	
5158	0	31136	
5159	0	31200	
5160	0	31228	
5161	0	31268	
5162	0	31324	
5163	0	31364	
5164	0	31344	
5165	0	31362	
5166	0	31360	
5167	0	31336	
5168	0	31316	
5169	0	31388	
5170	0	31392	
5171	0	31404	
5172	0	31392	
5173	0	31376	
5174	0	31384	
5175	0	31384	
5176	0	31392	
5177	0	31452	
5178	0	31448	
5179	0	31444	
5180	0	31394	
5181	0	31352	
5182	0	31416	
5183	0	31508	
5184	0	31556	
5185	0	31636	
5186	0	31652	
5187	0	31640	
5188	0	31652	
5189	0	31656	
5190	0	31648	
5191	0	31620	
5192	0	31592	
5193	0	31616	
5194	0	31644	
5195	0	31648	
5196	0	31692	
5197	0	31744	
5198	0	31764	
5199	0	31736	
5200	0	31712	
5201	0	31688	
5202	0	31680	
5203	0	31768	
5204	0	31820	
5205	0	31824	
5206	0	31848	
5207	0	31880	
5208	0	31896	
5209	0	31880	
5210	0	31928	
5211	0	31944	
5212	0	31900	
5213	0	31856	
5214	0	31794	
5215	0	31760	
5216	0	31782	
5217	0	31808	
5218	0	31896	
5219	0	31920	
5220	0	31908	
5221	0	31898	
5222	0	31940	
5223	0	31996	
5224	0	31962	
5225	0	31964	
5226	0	32004	
5227	0	32032	
5228	0	32080	
5229	0	32076	
5230	0	32080	
5231	0	32132	
5232	0	32284	
5233	0	32388	
5234	0	32464	
5235	0	32596	
5236	0	32708	
5237	0	32856	
5238	0	33030	
5239	0	33100	
5240	0	33196	
5241	0	33280	
5242	0	33348	
5243	0	33404	
5244	0	33448	
5245	0	33532	
5246	0	33680	
5247	0	33812	
5248	0	33804	
5249	0	33796	
5250	0	33844	
5251	0	33860	
5252	0	33852	
5253	0	33936	
5254	0	33924	
5255	0	33888	
5256	0	33940	
5257	0	34040	
5258	0	34096	
5259	0	34170	
5260	0	34272	
5261	0	34364	
5262	0	34496	
5263	0	34600	
5264	0	34636	
5265	0	34696	
5266	0	34760	
5267	0	34788	
5268	0	34800	
5269	0	34828	
5270	0	34840	
5271	0	34876	
5272	0	34948	
5273	0	35008	
5274	0	35080	
5275	0	35096	
5276	0	35008	
5277	0	34892	
5278	0	34692	
5279	0	34464	
5280	0	34312	
5281	0	34164	
5282	0	34092	
5283	0	34056	
5284	0	34064	
5285	0	34004	
5286	0	33940	
5287	0	33828	
5288	0	33680	
5289	0	33574	
5290	0	33464	
5291	0	33416	
5292	0	33388	
5293	0	33260	
5294	0	33156	
5295	0	33044	
5296	0	32956	
5297	0	32888	
5298	0	32800	
5299	0	32676	
5300	0	32572	
5301	0	32520	
5302	0	32466	
5303	0	32384	
5304	0	32304	
5305	0	32320	
5306	0	32308	
5307	0	32240	
5308	0	32164	
5309	0	32064	
5310	0	32008	
5311	0	31940	
5312	0	31834	
5313	0	31680	
5314	0	31560	
5315	0	31528	
5316	0	31488	
5317	0	31384	
5318	0	31288	
5319	0	31184	
5320	0	31132	
5321	0	31084	
5322	0	31082	
5323	0	31092	
5324	0	31088	
5325	0	31084	
5326	0	31092	
5327	0	31112	
5328	0	31124	
5329	0	31156	
5330	0	31188	
5331	0	31192	
5332	0	31208	
5333	0	31198	
5334	0	31168	
5335	0	31144	
5336	0	31092	
5337	0	31108	
5338	0	31172	
5339	0	31188	
5340	0	31192	
5341	0	31176	
5342	0	31122	
5343	0	31056	
5344	0	31090	
5345	0	31192	
5346	0	31212	
5347	0	31164	
5348	0	31120	
5349	0	31128	
5350	0	31152	
5351	0	31204	
5352	0	31306	
5353	0	31396	
5354	0	31400	
5355	0	31368	
5356	0	31340	
5357	0	31352	
5358	0	31328	
5359	0	31404	
5360	0	31472	
5361	0	31468	
5362	0	31444	
5363	0	31440	
5364	0	31442	
5365	0	31450	
5366	0	31496	
5367	0	31536	
5368	0	31532	
5369	0	31496	
5370	0	31396	
5371	0	31304	
5372	0	31228	
5373	0	31140	
5374	0	30948	
5375	0	30728	
5376	0	30572	
5377	0	30512	
5378	0	30560	
5379	0	30672	
5380	0	30862	
5381	0	31186	
5382	0	31708	
5383	0	32376	
5384	0	33188	
5385	0	34168	
5386	0	35272	
5387	0	36520	
5388	0	37892	
5389	0	39472	
5390	0	41180	
5391	0	42840	
5392	0	44388	
5393	0	45908	
5394	0	47448	
5395	0	49056	
5396	0	50760	
5397	0	52448	
5398	0	54016	
5399	0	55472	
5400	0	57008	
5401	0	58656	
5402	0	60224	
5403	0	61612	
5404	0	62844	
5405	0	63584	
5406	0	63920	
5407	0	64056	
5408	0	64064	
5409	0	64004	
5410	0	60772	
5411	0	56976	
5412	0	53096	
5413	0	49128	
5414	0	44808	
5415	0	40048	
5416	0	35588	
5417	0	32104	
5418	0	29574	
5419	0	27808	
5420	0	26664	
5421	0	25984	
5422	0	25728	
5423	0	25800	
5424	0	25928	
5425	0	26168	
5426	0	26512	
5427	0	26908	
5428	0	27336	
5429	0	27808	
5430	0	28208	
5431	0	28508	
5432	0	28720	
5433	0	28876	
5434	0	28992	
5435	0	29030	
5436	0	29032	
5437	0	29032	
5438	0	29016	
5439	0	28964	
5440	0	28948	
5441	0	28890	
5442	0	28838	
5443	0	28740	
5444	0	28660	
5445	0	28640	
5446	0	28656	
5447	0	28668	
5448	0	28704	
5449	0	28732	
5450	0	28730	
5451	0	28656	
5452	0	28632	
5453	0	28644	
5454	0	28648	
5455	0	28624	
5456	0	28656	
5457	0	28656	
5458	0	28640	
5459	0	28664	
5460	0	28684	
5461	0	28720	
5462	0	28780	
5463	0	28844	
5464	0	28900	
5465	0	28892	
5466	0	28888	
5467	0	28940	
5468	0	29008	
5469	0	29060	
5470	0	29148	
5471	0	29240	
5472	0	29320	
5473	0	29332	
5474	0	29320	
5475	0	29292	
5476	0	29344	
5477	0	29456	
5478	0	29496	
5479	0	29492	
5480	0	29496	
5481	0	29528	
5482	0	29584	
5483	0	29612	
5484	0	29684	
5485	0	29712	
5486	0	29760	
5487	0	29824	
5488	0	29904	
5489	0	30000	
5490	0	30052	
5491	0	30084	
5492	0	30108	
5493	0	30084	
5494	0	30086	
5495	0	30116	
5496	0	30212	
5497	0	30308	
5498	0	30380	
5499	0	30432	
5500	0	30456	
5501	0	30468	
5502	0	30464	
5503	0	30464	
5504	0	30504	
5505	0	30576	
5506	0	30640	
5507	0	30656	
5508	0	30700	
5509	0	30752	
5510	0	30816	
5511	0	30876	
5512	0	30896	
5513	0	30904	
5514	0	30924	
5515	0	30968	
5516	0	30952	
5517	0	30900	
5518	0	30944	
5519	0	30964	
5520	0	31012	
5521	0	31088	
5522	0	31168	
5523	0	31200	
5524	0	31220	
5525	0	31264	
5526	0	31324	
5527	0	31404	
5528	0	31460	
5529	0	31496	
5530	0	31516	
5531	0	31544	
5532	0	31588	
5533	0	31616	
5534	0	31640	
5535	0	31668	
5536	0	31700	
5537	0	31704	
5538	0	31692	
5539	0	31748	
5540	0	31792	
5541	0	31872	
5542	0	31908	
5543	0	31936	
5544	0	31980	
5545	0	32008	
5546	0	32020	
5547	0	32044	
5548	0	32132	
5549	0	32192	
5550	0	32216	
5551	0	32248	
5552	0	32268	
5553	0	32368	
5554	0	32448	
5555	0	32432	
5556	0	32440	
5557	0	32464	
5558	0	32498	
5559	0	32512	
5560	0	32552	
5561	0	32648	
5562	0	32676	
5563	0	32720	
5564	0	32812	
5565	0	32876	
5566	0	32912	
5567	0	32972	
5568	0	33056	
5569	0	33120	
5570	0	33172	
5571	0	33180	
5572	0	33204	
5573	0	33260	
5574	0	33332	
5575	0	33420	
5576	0	33456	
5577	0	33492	
5578	0	33520	
5579	0	33552	
5580	0	33580	
5581	0	33632	
5582	0	33712	
5583	0	33800	
5584	0	33836	
5585	0	33864	
5586	0	33936	
5587	0	34000	
5588	0	34128	
5589	0	34264	
5590	0	34364	
5591	0	34466	
5592	0	34528	
5593	0	34576	
5594	0	34580	
5595	0	34568	
5596	0	34622	
5597	0	34704	
5598	0	34820	
5599	0	34904	
5600	0	34980	
5601	0	35042	
5602	0	35066	
5603	0	35140	
5604	0	35204	
5605	0	35240	
5606	0	35288	
5607	0	35408	
5608	0	35492	
5609	0	35556	
5610	0	35662	
5611	0	35736	
5612	0	35780	
5613	0	35828	
5614	0	35904	
5615	0	36000	
5616	0	36032	
5617	0	36076	
5618	0	36132	
5619	0	36164	
5620	0	36220	
5621	0	36248	
5622	0	36304	
5623	0	36360	
5624	0	36392	
5625	0	36358	
5626	0	36384	
5627	0	36462	
5628	0	36532	
5629	0	36536	
5630	0	36556	
5631	0	36584	
5632	0	36670	
5633	0	36696	
5634	0	36680	
5635	0	36664	
5636	0	36632	
5637	0	36612	
5638	0	36584	
5639	0	36612	
5640	0	36648	
5641	0	36652	
5642	0	36624	
5643	0	36584	
5644	0	36532	
5645	0	36504	
5646	0	36456	
5647	0	36396	
5648	0	36352	
5649	0	36252	
5650	0	36172	
5651	0	36016	
5652	0	35880	
5653	0	35744	
5654	0	35592	
5655	0	35460	
5656	0	35344	
5657	0	35204	
5658	0	35068	
5659	0	34852	
5660	0	34712	
5661	0	34572	
5662	0	34380	
5663	0	34200	
5664	0	34060	
5665	0	33936	
5666	0	33804	
5667	0	33648	
5668	0	33484	
5669	0	33306	
5670	0	33090	
5671	0	32902	
5672	0	32716	
5673	0	32580	
5674	0	32456	
5675	0	32312	
5676	0	32156	
5677	0	32026	
5678	0	31864	
5679	0	31688	
5680	0	31552	
5681	0	31500	
5682	0	31428	
5683	0	31308	
5684	0	31212	
5685	0	31092	
5686	0	30984	
5687	0	30892	
5688	0	30754	
5689	0	30668	
5690	0	30576	
5691	0	30506	
5692	0	30456	
5693	0	30400	
5694	0	30340	
5695	0	30300	
5696	0	30252	
5697	0	30202	
5698	0	30152	
5699	0	30104	
5700	0	30042	
5701	0	29986	
5702	0	29932	
5703	0	29880	
5704	0	29844	
5705	0	29868	
5706	0	29856	
5707	0	29836	
5708	0	29812	
5709	0	29806	
5710	0	29776	
5711	0	29740	
5712	0	29708	
5713	0	29708	
5714	0	29720	
5715	0	29736	
5716	0	29684	
5717	0	29660	
5718	0	29672	
5719	0	29636	
5720	0	29604	
5721	0	29640	
5722	0	29692	
5723	0	29716	
5724	0	29744	
5725	0	29736	
5726	0	29752	
5727	0	29780	
5728	0	29832	
5729	0	29836	
5730	0	29804	
5731	0	29780	
5732	0	29776	
5733	0	29764	
5734	0	29768	
5735	0	29836	
5736	0	29862	
5737	0	29926	
5738	0	29992	
5739	0	29992	
5740	0	29964	
5741	0	29904	
5742	0	29920	
5743	0	29976	
5744	0	30052	
5745	0	30104	
5746	0	30112	
5747	0	30192	
5748	0	30252	
5749	0	30300	
5750	0	30324	
5751	0	30308	
5752	0	30324	
5753	0	30372	
5754	0	30384	
5755	0	30428	
5756	0	30432	
5757	0	30400	
5758	0	30416	
5759	0	30464	
5760	0	30480	
5761	0	30470	
5762	0	30476	
5763	0	30512	
5764	0	30528	
5765	0	30552	
5766	0	30600	
5767	0	30640	
5768	0	30652	
5769	0	30656	
5770	0	30640	
5771	0	30644	
5772	0	30692	
5773	0	30740	
5774	0	30740	
5775	0	30740	
5776	0	30748	
5777	0	30764	
5778	0	30784	
5779	0	30804	
5780	0	30816	
5781	0	30824	
5782	0	30832	
5783	0	30880	
5784	0	30992	
5785	0	31024	
5786	0	31040	
5787	0	31088	
5788	0	31092	
5789	0	31040	
5790	0	31036	
5791	0	31056	
5792	0	31088	
5793	0	31098	
5794	0	31088	
5795	0	31124	
5796	0	31204	
5797	0	31248	
5798	0	31264	
5799	0	31248	
5800	0	31264	
5801	0	31248	
5802	0	31256	
5803	0	31260	
5804	0	31272	
5805	0	31288	
5806	0	31296	
5807	0	31304	
5808	0	31296	
5809	0	31288	
5810	0	31284	
5811	0	31282	
5812	0	31308	
5813	0	31376	
5814	0	31428	
5815	0	31424	
5816	0	31412	
5817	0	31424	
5818	0	31424	
5819	0	31396	
5820	0	31392	
5821	0	31424	
5822	0	31456	
5823	0	31500	
5824	0	31520	
5825	0	31552	
5826	0	31548	
5827	0	31536	
5828	0	31544	
5829	0	31596	
5830	0	31604	
5831	0	31584	
5832	0	31628	
5833	0	31648	
5834	0	31640	
5835	0	31568	
5836	0	31528	
5837	0	31550	
5838	0	31596	
5839	0	31620	
5840	0	31644	
5841	0	31688	
5842	0	31680	
5843	0	31640	
5844	0	31676	
5845	0	31700	
5846	0	31712	
5847	0	31760	
5848	0	31802	
5849	0	31788	
5850	0	31764	
5851	0	31772	
5852	0	31788	
5853	0	31796	
5854	0	31776	
5855	0	31768	
5856	0	31764	
5857	0	31746	
5858	0	31748	
5859	0	31738	
5860	0	31768	
5861	0	31764	
5862	0	31752	
5863	0	31724	
5864	0	31756	
5865	0	31778	
5866	0	31816	
5867	0	31832	
5868	0	31812	
5869	0	31840	
5870	0	31864	
5871	0	31872	
5872	0	31896	
5873	0	31872	
5874	0	31812	
5875	0	31784	
5876	0	31770	
5877	0	31792	
5878	0	31842	
5879	0	31900	
5880	0	31950	
5881	0	31960	
5882	0	32000	
5883	0	32020	
5884	0	32060	
5885	0	32140	
5886	0	32232	
5887	0	32316	
5888	0	32424	
5889	0	32496	
5890	0	32636	
5891	0	32716	
5892	0	32848	
5893	0	32968	
5894	0	33080	
5895	0	33224	
5896	0	33400	
5897	0	33548	
5898	0	33668	
5899	0	33746	
5900	0	33834	
5901	0	33908	
5902	0	33986	
5903	0	34052	
5904	0	34096	
5905	0	34156	
5906	0	34180	
5907	0	34188	
5908	0	34240	
5909	0	34282	
5910	0	34288	
5911	0	34384	
5912	0	34476	
5913	0	34544	
5914	0	34608	
5915	0	34656	
5916	0	34692	
5917	0	34752	
5918	0	34820	
5919	0	34864	
5920	0	34872	
5921	0	34848	
5922	0	34860	
5923	0	34952	
5924	0	35056	
5925	0	35136	
5926	0	35172	
5927	0	35228	
5928	0	35280	
5929	0	35372	
5930	0	35392	
5931	0	35348	
5932	0	35252	
5933	0	35132	
5934	0	35032	
5935	0	34864	
5936	0	34648	
5937	0	34468	
5938	0	34352	
5939	0	34262	
5940	0	34144	
5941	0	34000	
5942	0	33940	
5943	0	33860	
5944	0	33740	
5945	0	33644	
5946	0	33612	
5947	0	33536	
5948	0	33400	
5949	0	33252	
5950	0	33144	
5951	0	33016	
5952	0	32884	
5953	0	32760	
5954	0	32630	
5955	0	32546	
5956	0	32476	
5957	0	32392	
5958	0	32364	
5959	0	32324	
5960	0	32264	
5961	0	32228	
5962	0	32140	
5963	0	32064	
5964	0	32008	
5965	0	31952	
5966	0	31852	
5967	0	31756	
5968	0	31668	
5969	0	31556	
5970	0	31452	
5971	0	31396	
5972	0	31326	
5973	0	31204	
5974	0	31140	
5975	0	31096	
5976	0	31028	
5977	0	30944	
5978	0	30928	
5979	0	30890	
5980	0	30864	
5981	0	30888	
5982	0	30904	
5983	0	30928	
5984	0	30968	
5985	0	30932	
5986	0	30856	
5987	0	30896	
5988	0	30916	
5989	0	30916	
5990	0	30946	
5991	0	30958	
5992	0	30972	
5993	0	30992	
5994	0	30980	
5995	0	30952	
5996	0	30968	
5997	0	31008	
5998	0	31008	
5999	0	30988	
6000	0	30992	
6001	0	31000	
6002	0	31044	
6003	0	31000	
6004	0	30976	
6005	0	30970	
6006	0	30984	
6007	0	30992	
6008	0	30984	
6009	0	31012	
6010	0	31064	
6011	0	31120	
6012	0	31168	
6013	0	31220	
6014	0	31248	
6015	0	31228	
6016	0	31232	
6017	0	31228	
6018	0	31256	
6019	0	31300	
6020	0	31316	
6021	0	31332	
6022	0	31304	
6023	0	31264	
6024	0	31236	
6025	0	31170	
6026	0	31104	
6027	0	31012	
6028	0	30878	
6029	0	30720	
6030	0	30548	
6031	0	30480	
6032	0	30512	
6033	0	30586	
6034	0	30698	
6035	0	30892	
6036	0	31194	
6037	0	31704	
6038	0	32344	
6039	0	33056	
6040	0	33868	
6041	0	34820	
6042	0	35928	
6043	0	37148	
6044	0	38600	
6045	0	40194	
6046	0	41752	
6047	0	43200	
6048	0	44712	
6049	0	46248	
6050	0	47860	
6051	0	49504	
6052	0	51044	
6053	0	52520	
6054	0	54072	
6055	0	55584	
6056	0	56964	
6057	0	58224	
6058	0	59368	
6059	0	60524	
6060	0	61652	
6061	0	62600	
6062	0	62892	
6063	0	61996	
6064	0	60056	
6065	0	57420	
6066	0	54156	
6067	0	50704	
6068	0	47020	
6069	0	43000	
6070	0	38680	
6071	0	34658	
6072	0	31556	
6073	0	29392	
6074	0	27904	
6075	0	26992	
6076	0	26498	
6077	0	26400	
6078	0	26552	
6079	0	26812	
6080	0	27154	
6081	0	27584	
6082	0	28078	
6083	0	28492	
6084	0	28784	
6085	0	29012	
6086	0	29220	
6087	0	29352	
6088	0	29418	
6089	0	29424	
6090	0	29317	
6091	0	29260	
6092	0	29218	
6093	0	29180	
6094	0	29136	
6095	0	29080	
6096	0	28984	
6097	0	28940	
6098	0	28888	
6099	0	28868	
6100	0	28864	
6101	0	28838	
6102	0	28769	
6103	0	28708	
6104	0	28676	
6105	0	28720	
6106	0	28768	
6107	0	28816	
6108	0	28840	
6109	0	28864	
6110	0	28852	
6111	0	28888	
6112	0	28936	
6113	0	28960	
6114	0	29004	
6115	0	29052	
6116	0	29040	
6117	0	29012	
6118	0	29016	
6119	0	29032	
6120	0	29080	
6121	0	29144	
6122	0	29204	
6123	0	29266	
6124	0	29344	
6125	0	29402	
6126	0	29444	
6127	0	29472	
6128	0	29532	
6129	0	29552	
6130	0	29544	
6131	0	29498	
6132	0	29532	
6133	0	29604	
6134	0	29634	
6135	0	29664	
6136	0	29756	
6137	0	29832	
6138	0	29896	
6139	0	29944	
6140	0	29976	
6141	0	30004	
6142	0	30032	
6143	0	30088	
6144	0	30144	
6145	0	30204	
6146	0	30252	
6147	0	30268	
6148	0	30256	
6149	0	30264	
6150	0	30320	
6151	0	30324	
6152	0	30342	
6153	0	30408	
6154	0	30480	
6155	0	30510	
6156	0	30548	
6157	0	30536	
6158	0	30512	
6159	0	30562	
6160	0	30596	
6161	0	30600	
6162	0	30656	
6163	0	30704	
6164	0	30748	
6165	0	30804	
6166	0	30860	
6167	0	30896	
6168	0	30880	
6169	0	30904	
6170	0	30944	
6171	0	31028	
6172	0	31096	
6173	0	31136	
6174	0	31176	
6175	0	31216	
6176	0	31236	
6177	0	31276	
6178	0	31304	
6179	0	31296	
6180	0	31320	
6181	0	31348	
6182	0	31404	
6183	0	31464	
6184	0	31532	
6185	0	31596	
6186	0	31640	
6187	0	31640	
6188	0	31650	
6189	0	31668	
6190	0	31680	
6191	0	31672	
6192	0	31696	
6193	0	31744	
6194	0	31768	
6195	0	31834	
6196	0	31862	
6197	0	31920	
6198	0	31996	
6199	0	32040	
6200	0	32056	
6201	0	32088	
6202	0	32128	
6203	0	32192	
6204	0	32228	
6205	0	32272	
6206	0	32316	
6207	0	32344	
6208	0	32392	
6209	0	32444	
6210	0	32484	
6211	0	32556	
6212	0	32612	
6213	0	32666	
6214	0	32686	
6215	0	32688	
6216	0	32728	
6217	0	32774	
6218	0	32776	
6219	0	32796	
6220	0	32868	
6221	0	32984	
6222	0	33052	
6223	0	33092	
6224	0	33144	
6225	0	33204	
6226	0	33237	
6227	0	33304	
6228	0	33372	
6229	0	33444	
6230	0	33464	
6231	0	33456	
6232	0	33512	
6233	0	33588	
6234	0	33630	
6235	0	33656	
6236	0	33676	
6237	0	33750	
6238	0	33820	
6239	0	33852	
6240	0	33922	
6241	0	33960	
6242	0	33992	
6243	0	34036	
6244	0	34112	
6245	0	34224	
6246	0	34308	
6247	0	34416	
6248	0	34520	
6249	0	34588	
6250	0	34592	
6251	0	34672	
6252	0	34752	
6253	0	34836	
6254	0	34896	
6255	0	34968	
6256	0	35060	
6257	0	35128	
6258	0	35164	
6259	0	35164	
6260	0	35200	
6261	0	35280	
6262	0	35344	
6263	0	35424	
6264	0	35496	
6265	0	35556	
6266	0	35600	
6267	0	35688	
6268	0	35756	
6269	0	35800	
6270	0	35840	
6271	0	35928	
6272	0	36020	
6273	0	36088	
6274	0	36140	
6275	0	36136	
6276	0	36124	
6277	0	36164	
6278	0	36196	
6279	0	36252	
6280	0	36264	
6281	0	36284	
6282	0	36356	
6283	0	36464	
6284	0	36532	
6285	0	36540	
6286	0	36536	
6287	0	36548	
6288	0	36574	
6289	0	36564	
6290	0	36616	
6291	0	36664	
6292	0	36616	
6293	0	36594	
6294	0	36588	
6295	0	36552	
6296	0	36536	
6297	0	36512	
6298	0	36528	
6299	0	36514	
6300	0	36472	
6301	0	36448	
6302	0	36416	
6303	0	36314	
6304	0	36228	
6305	0	36132	
6306	0	36056	
6307	0	35960	
6308	0	35816	
6309	0	35692	
6310	0	35592	
6311	0	35480	
6312	0	35348	
6313	0	35176	
6314	0	35016	
6315	0	34880	
6316	0	34760	
6317	0	34628	
6318	0	34478	
6319	0	34388	
6320	0	34256	
6321	0	34084	
6322	0	33940	
6323	0	33776	
6324	0	33568	
6325	0	33396	
6326	0	33216	
6327	0	33100	
6328	0	32982	
6329	0	32836	
6330	0	32720	
6331	0	32604	
6332	0	32436	
6333	0	32312	
6334	0	32200	
6335	0	32076	
6336	0	32000	
6337	0	31880	
6338	0	31704	
6339	0	31524	
6340	0	31396	
6341	0	31328	
6342	0	31268	
6343	0	31176	
6344	0	31056	
6345	0	30906	
6346	0	30820	
6347	0	30764	
6348	0	30688	
6349	0	30584	
6350	0	30482	
6351	0	30430	
6352	0	30392	
6353	0	30368	
6354	0	30340	
6355	0	30304	
6356	0	30232	
6357	0	30149	
6358	0	30110	
6359	0	30116	
6360	0	30098	
6361	0	30088	
6362	0	30072	
6363	0	30032	
6364	0	29992	
6365	0	29948	
6366	0	29946	
6367	0	29952	
6368	0	29936	
6369	0	29900	
6370	0	29897	
6371	0	29924	
6372	0	29956	
6373	0	29960	
6374	0	29944	
6375	0	29976	
6376	0	29964	
6377	0	29948	
6378	0	29928	
6379	0	29928	
6380	0	29986	
6381	0	30000	
6382	0	29984	
6383	0	29976	
6384	0	30000	
6385	0	30054	
6386	0	30088	
6387	0	30112	
6388	0	30192	
6389	0	30232	
6390	0	30244	
6391	0	30240	
6392	0	30248	
6393	0	30240	
6394	0	30244	
6395	0	30274	
6396	0	30328	
6397	0	30364	
6398	0	30380	
6399	0	30396	
6400	0	30404	
6401	0	30416	
6402	0	30416	
6403	0	30462	
6404	0	30512	
6405	0	30552	
6406	0	30564	
6407	0	30524	
6408	0	30544	
6409	0	30568	
6410	0	30608	
6411	0	30624	
6412	0	30668	
6413	0	30708	
6414	0	30704	
6415	0	30708	
6416	0	30680	
6417	0	30680	
6418	0	30692	
6419	0	30700	
6420	0	30738	
6421	0	30768	
6422	0	30790	
6423	0	30856	
6424	0	30960	
6425	0	31009	
6426	0	31024	
6427	0	31040	
6428	0	31052	
6429	0	31024	
6430	0	31000	
6431	0	31020	
6432	0	31044	
6433	0	31024	
6434	0	31020	
6435	0	31056	
6436	0	31032	
6437	0	31048	
6438	0	31044	
6439	0	31032	
6440	0	31052	
6441	0	31096	
6442	0	31096	
6443	0	31108	
6444	0	31180	
6445	0	31252	
6446	0	31242	
6447	0	31216	
6448	0	31196	
6449	0	31134	
6450	0	31138	
6451	0	31164	
6452	0	31216	
6453	0	31224	
6454	0	31220	
6455	0	31232	
6456	0	31232	
6457	0	31236	
6458	0	31216	
6459	0	31218	
6460	0	31192	
6461	0	31212	
6462	0	31276	
6463	0	31312	
6464	0	31328	
6465	0	31356	
6466	0	31360	
6467	0	31388	
6468	0	31376	
6469	0	31380	
6470	0	31412	
6471	0	31420	
6472	0	31392	
6473	0	31408	
6474	0	31452	
6475	0	31460	
6476	0	31456	
6477	0	31448	
6478	0	31456	
6479	0	31496	
6480	0	31488	
6481	0	31488	
6482	0	31496	
6483	0	31504	
6484	0	31532	
6485	0	31536	
6486	0	31568	
6487	0	31580	
6488	0	31552	
6489	0	31540	
6490	0	31578	
6491	0	31648	
6492	0	31660	
6493	0	31644	
6494	0	31628	
6495	0	31660	
6496	0	31688	
6497	0	31692	
6498	0	31692	
6499	0	31716	
6500	0	31708	
6501	0	31712	
6502	0	31720	
6503	0	31740	
6504	0	31752	
6505	0	31734	
6506	0	31712	
6507	0	31720	
6508	0	31784	
6509	0	31818	
6510	0	31792	
6511	0	31736	
6512	0	31728	
6513	0	31778	
6514	0	31848	
6515	0	31892	
6516	0	31888	
6517	0	31926	
6518	0	31974	
6519	0	31972	
6520	0	31984	
6521	0	32048	
6522	0	32092	
6523	0	32136	
6524	0	32210	
6525	0	32316	
6526	0	32430	
6527	0	32560	
6528	0	32700	
6529	0	32832	
6530	0	32968	
6531	0	33124	
6532	0	33268	
6533	0	33380	
6534	0	33484	
6535	0	33550	
6536	0	33664	
6537	0	33728	
6538	0	33784	
6539	0	33892	
6540	0	33886	
6541	0	33876	
6542	0	33896	
6543	0	33920	
6544	0	33986	
6545	0	34068	
6546	0	34136	
6547	0	34208	
6548	0	34284	
6549	0	34380	
6550	0	34458	
6551	0	34528	
6552	0	34592	
6553	0	34708	
6554	0	34820	
6555	0	34884	
6556	0	34908	
6557	0	34928	
6558	0	34988	
6559	0	35008	
6560	0	35060	
6561	0	35116	
6562	0	35156	
6563	0	35144	
6564	0	35180	
6565	0	35232	
6566	0	35308	
6567	0	35342	
6568	0	35244	
6569	0	35100	
6570	0	34944	
6571	0	34804	
6572	0	34664	
6573	0	34536	
6574	0	34420	
6575	0	34312	
6576	0	34252	
6577	0	34164	
6578	0	34036	
6579	0	33888	
6580	0	33796	
6581	0	33688	
6582	0	33632	
6583	0	33592	
6584	0	33508	
6585	0	33464	
6586	0	33380	
6587	0	33264	
6588	0	33156	
6589	0	33056	
6590	0	32910	
6591	0	32762	
6592	0	32678	
6593	0	32582	
6594	0	32520	
6595	0	32444	
6596	0	32384	
6597	0	32348	
6598	0	32268	
6599	0	32208	
6600	0	32160	
6601	0	32048	
6602	0	31880	
6603	0	31716	
6604	0	31618	
6605	0	31540	
6606	0	31456	
6607	0	31428	
6608	0	31368	
6609	0	31284	
6610	0	31160	
6611	0	31088	
6612	0	31024	
6613	0	30984	
6614	0	31000	
6615	0	31028	
6616	0	31044	
6617	0	31080	
6618	0	31072	
6619	0	31068	
6620	0	31028	
6621	0	31008	
6622	0	31012	
6623	0	31020	
6624	0	31000	
6625	0	30948	
6626	0	30984	
6627	0	31048	
6628	0	31072	
6629	0	31092	
6630	0	31120	
6631	0	31120	
6632	0	31132	
6633	0	31128	
6634	0	31112	
6635	0	31132	
6636	0	31144	
6637	0	31144	
6638	0	31128	
6639	0	31096	
6640	0	31118	
6641	0	31140	
6642	0	31124	
6643	0	31156	
6644	0	31200	
6645	0	31244	
6646	0	31280	
6647	0	31312	
6648	0	31332	
6649	0	31330	
6650	0	31372	
6651	0	31396	
6652	0	31404	
6653	0	31440	
6654	0	31520	
6655	0	31584	
6656	0	31576	
6657	0	31544	
6658	0	31520	
6659	0	31468	
6660	0	31394	
6661	0	31304	
6662	0	31184	
6663	0	30992	
6664	0	30792	
6665	0	30636	
6666	0	30528	
6667	0	30504	
6668	0	30536	
6669	0	30656	
6670	0	30860	
6671	0	31208	
6672	0	31712	
6673	0	32352	
6674	0	33076	
6675	0	33908	
6676	0	34882	
6677	0	36004	
6678	0	37276	
6679	0	38796	
6680	0	40400	
6681	0	41986	
6682	0	43532	
6683	0	45096	
6684	0	46684	
6685	0	48284	
6686	0	49908	
6687	0	51464	
6688	0	52888	
6689	0	54380	
6690	0	55912	
6691	0	57388	
6692	0	58752	
6693	0	59984	
6694	0	61084	
6695	0	62092	
6696	0	62880	
6697	0	63032	
6698	0	61928	
6699	0	59856	
6700	0	57020	
6701	0	53608	
6702	0	50132	
6703	0	46446	
6704	0	42372	
6705	0	38112	
6706	0	34336	
6707	0	31448	
6708	0	29376	
6709	0	28052	
6710	0	27208	
6711	0	26808	
6712	0	26716	
6713	0	26796	
6714	0	26970	
6715	0	27232	
6716	0	27620	
6717	0	28048	
6718	0	28448	
6719	0	28772	
6720	0	29084	
6721	0	29362	
6722	0	29560	
6723	0	29632	
6724	0	29608	
6725	0	29572	
6726	0	29548	
6727	0	29564	
6728	0	29516	
6729	0	29412	
6730	0	29314	
6731	0	29210	
6732	0	29128	
6733	0	29088	
6734	0	29022	
6735	0	28944	
6736	0	28920	
6737	0	28904	
6738	0	28916	
6739	0	28904	
6740	0	28892	
6741	0	28900	
6742	0	28900	
6743	0	28896	
6744	0	28956	
6745	0	29012	
6746	0	29020	
6747	0	29088	
6748	0	29146	
6749	0	29184	
6750	0	29170	
6751	0	29144	
6752	0	29160	
6753	0	29208	
6754	0	29272	
6755	0	29344	
6756	0	29402	
6757	0	29428	
6758	0	29444	
6759	0	29496	
6760	0	29524	
6761	0	29556	
6762	0	29564	
6763	0	29532	
6764	0	29560	
6765	0	29664	
6766	0	29816	
6767	0	29880	
6768	0	29876	
6769	0	29924	
6770	0	29960	
6771	0	30052	
6772	0	30092	
6773	0	30112	
6774	0	30088	
6775	0	30096	
6776	0	30120	
6777	0	30152	
6778	0	30188	
6779	0	30220	
6780	0	30256	
6781	0	30232	
6782	0	30316	
6783	0	30416	
6784	0	30486	
6785	0	30560	
6786	0	30576	
6787	0	30620	
6788	0	30672	
6789	0	30740	
6790	0	30760	
6791	0	30768	
6792	0	30776	
6793	0	30778	
6794	0	30794	
6795	0	30796	
6796	0	30852	
6797	0	30932	
6798	0	30976	
6799	0	30928	
6800	0	30876	
6801	0	30926	
6802	0	31000	
6803	0	31080	
6804	0	31190	
6805	0	31264	
6806	0	31264	
6807	0	31240	
6808	0	31296	
6809	0	31388	
6810	0	31488	
6811	0	31540	
6812	0	31620	
6813	0	31688	
6814	0	31672	
6815	0	31652	
6816	0	31692	
6817	0	31728	
6818	0	31712	
6819	0	31688	
6820	0	31756	
6821	0	31820	
6822	0	31876	
6823	0	31946	
6824	0	31980	
6825	0	32000	
6826	0	32064	
6827	0	32152	
6828	0	32176	
6829	0	32156	
6830	0	32212	
6831	0	32260	
6832	0	32268	
6833	0	32264	
6834	0	32276	
6835	0	32324	
6836	0	32360	
6837	0	32406	
6838	0	32500	
6839	0	32532	
6840	0	32528	
6841	0	32568	
6842	0	32648	
6843	0	32728	
6844	0	32784	
6845	0	32828	
6846	0	32852	
6847	0	32928	
6848	0	33000	
6849	0	33032	
6850	0	33080	
6851	0	33104	
6852	0	33168	
6853	0	33216	
6854	0	33268	
6855	0	33292	
6856	0	33304	
6857	0	33324	
6858	0	33344	
6859	0	33388	
6860	0	33436	
6861	0	33452	
6862	0	33480	
6863	0	33588	
6864	0	33632	
6865	0	33696	
6866	0	33728	
6867	0	33772	
6868	0	33816	
6869	0	33848	
6870	0	33910	
6871	0	33936	
6872	0	34008	
6873	0	34060	
6874	0	34084	
6875	0	34156	
6876	0	34216	
6877	0	34312	
6878	0	34420	
6879	0	34496	
6880	0	34532	
6881	0	34608	
6882	0	34684	
6883	0	34736	
6884	0	34744	
6885	0	34782	
6886	0	34868	
6887	0	34932	
6888	0	34992	
6889	0	35080	
6890	0	35128	
6891	0	35216	
6892	0	35298	
6893	0	35324	
6894	0	35360	
6895	0	35416	
6896	0	35462	
6897	0	35512	
6898	0	35592	
6899	0	35692	
6900	0	35756	
6901	0	35784	
6902	0	35832	
6903	0	35908	
6904	0	36000	
6905	0	36068	
6906	0	36148	
6907	0	36161	
6908	0	36168	
6909	0	36192	
6910	0	36204	
6911	0	36224	
6912	0	36270	
6913	0	36260	
6914	0	36288	
6915	0	36336	
6916	0	36372	
6917	0	36416	
6918	0	36520	
6919	0	36548	
6920	0	36568	
6921	0	36576	
6922	0	36560	
6923	0	36492	
6924	0	36540	
6925	0	36580	
6926	0	36588	
6927	0	36576	
6928	0	36584	
6929	0	36576	
6930	0	36584	
6931	0	36564	
6932	0	36516	
6933	0	36456	
6934	0	36384	
6935	0	36336	
6936	0	36292	
6937	0	36182	
6938	0	36088	
6939	0	36032	
6940	0	35980	
6941	0	35884	
6942	0	35792	
6943	0	35700	
6944	0	35604	
6945	0	35460	
6946	0	35328	
6947	0	35236	
6948	0	35076	
6949	0	34940	
6950	0	34784	
6951	0	34626	
6952	0	34512	
6953	0	34400	
6954	0	34220	
6955	0	34000	
6956	0	33840	
6957	0	33660	
6958	0	33496	
6959	0	33362	
6960	0	33240	
6961	0	33112	
6962	0	32984	
6963	0	32826	
6964	0	32700	
6965	0	32584	
6966	0	32456	
6967	0	32356	
6968	0	32260	
6969	0	32216	
6970	0	32122	
6971	0	31964	
6972	0	31856	
6973	0	31716	
6974	0	31572	
6975	0	31452	
6976	0	31360	
6977	0	31292	
6978	0	31184	
6979	0	31112	
6980	0	31048	
6981	0	30984	
6982	0	30924	
6983	0	30876	
6984	0	30816	
6985	0	30784	
6986	0	30760	
6987	0	30714	
6988	0	30666	
6989	0	30596	
6990	0	30552	
6991	0	30504	
6992	0	30460	
6993	0	30460	
6994	0	30408	
6995	0	30352	
6996	0	30336	
6997	0	30312	
6998	0	30304	
6999	0	30280	
7000	0	30272	
7001	0	30248	
7002	0	30214	
7003	0	30184	
7004	0	30196	
7005	0	30224	
7006	0	30192	
7007	0	30212	
7008	0	30278	
7009	0	30312	
7010	0	30304	
7011	0	30304	
7012	0	30304	
7013	0	30284	
7014	0	30266	
7015	0	30276	
7016	0	30292	
7017	0	30308	
7018	0	30300	
7019	0	30316	
7020	0	30316	
7021	0	30368	
7022	0	30424	
7023	0	30444	
7024	0	30448	
7025	0	30508	
7026	0	30532	
7027	0	30492	
7028	0	30472	
7029	0	30528	
7030	0	30612	
7031	0	30662	
7032	0	30636	
7033	0	30604	
7034	0	30624	
7035	0	30620	
7036	0	30624	
7037	0	30712	
7038	0	30768	
7039	0	30776	
7040	0	30784	
7041	0	30792	
7042	0	30804	
7043	0	30812	
7044	0	30860	
7045	0	30900	
7046	0	30944	
7047	0	30992	
7048	0	31032	
7049	0	31018	
7050	0	31024	
7051	0	31068	
7052	0	31088	
7053	0	31110	
7054	0	31136	
7055	0	31116	
7056	0	31148	
7057	0	31216	
7058	0	31264	
7059	0	31248	
7060	0	31236	
7061	0	31276	
7062	0	31290	
7063	0	31276	
7064	0	31312	
7065	0	31320	
7066	0	31380	
7067	0	31448	
7068	0	31504	
7069	0	31580	
7070	0	31620	
7071	0	31608	
7072	0	31568	
7073	0	31500	
7074	0	31544	
7075	0	31640	
7076	0	31696	
7077	0	31668	
7078	0	31648	
7079	0	31652	
7080	0	31700	
7081	0	31728	
7082	0	31688	
7083	0	31672	
7084	0	31620	
7085	0	31568	
7086	0	31596	
7087	0	31624	
7088	0	31632	
7089	0	31656	
7090	0	31660	
7091	0	31656	
7092	0	31616	
7093	0	31584	
7094	0	31592	
7095	0	31600	
7096	0	31652	
7097	0	31696	
7098	0	31728	
7099	0	31744	
7100	0	31680	
7101	0	31680	
7102	0	31672	
7103	0	31644	
7104	0	31672	
7105	0	31720	
7106	0	31732	
7107	0	31710	
7108	0	31700	
7109	0	31732	
7110	0	31752	
7111	0	31732	
7112	0	31764	
7113	0	31748	
7114	0	31700	
7115	0	31712	
7116	0	31732	
7117	0	31732	
7118	0	31764	
7119	0	31824	
7120	0	31892	
7121	0	31940	
7122	0	31924	
7123	0	31948	
7124	0	32016	
7125	0	32128	
7126	0	32240	
7127	0	32364	
7128	0	32412	
7129	0	32464	
7130	0	32560	
7131	0	32720	
7132	0	32908	
7133	0	33124	
7134	0	33300	
7135	0	33380	
7136	0	33424	
7137	0	33484	
7138	0	33564	
7139	0	33580	
7140	0	33632	
7141	0	33716	
7142	0	33824	
7143	0	33888	
7144	0	33916	
7145	0	33952	
7146	0	34020	
7147	0	34104	
7148	0	34160	
7149	0	34208	
7150	0	34264	
7151	0	34352	
7152	0	34432	
7153	0	34476	
7154	0	34520	
7155	0	34640	
7156	0	34728	
7157	0	34788	
7158	0	34880	
7159	0	34952	
7160	0	34984	
7161	0	35016	
7162	0	35022	
7163	0	34976	
7164	0	34888	
7165	0	34880	
7166	0	34930	
7167	0	34974	
7168	0	35096	
7169	0	35144	
7170	0	35136	
7171	0	35032	
7172	0	34912	
7173	0	34788	
7174	0	34644	
7175	0	34506	
7176	0	34412	
7177	0	34278	
7178	0	34088	
7179	0	33908	
7180	0	33788	
7181	0	33672	
7182	0	33600	
7183	0	33528	
7184	0	33472	
7185	0	33384	
7186	0	33284	
7187	0	33200	
7188	0	33056	
7189	0	32948	
7190	0	32872	
7191	0	32816	
7192	0	32740	
7193	0	32664	
7194	0	32568	
7195	0	32468	
7196	0	32396	
7197	0	32320	
7198	0	32208	
7199	0	32168	
7200	0	32124	
7201	0	32084	
7202	0	32036	
7203	0	31952	
7204	0	31856	
7205	0	31788	
7206	0	31712	
7207	0	31580	
7208	0	31458	
7209	0	31348	
7210	0	31220	
7211	0	31092	
7212	0	31040	
7213	0	30984	
7214	0	30944	
7215	0	30928	
7216	0	30896	
7217	0	30914	
7218	0	30900	
7219	0	30880	
7220	0	30912	
7221	0	30944	
7222	0	30972	
7223	0	30960	
7224	0	30976	
7225	0	30988	
7226	0	30928	
7227	0	30876	
7228	0	30840	
7229	0	30858	
7230	0	30888	
7231	0	30848	
7232	0	30818	
7233	0	30844	
7234	0	30852	
7235	0	30856	
7236	0	30864	
7237	0	30860	
7238	0	30832	
7239	0	30840	
7240	0	30884	
7241	0	30920	
7242	0	30960	
7243	0	31058	
7244	0	31144	
7245	0	31192	
7246	0	31212	
7247	0	31240	
7248	0	31226	
7249	0	31248	
7250	0	31256	
7251	0	31280	
7252	0	31313	
7253	0	31342	
7254	0	31368	
7255	0	31320	
7256	0	31242	
7257	0	31204	
7258	0	31130	
7259	0	31080	
7260	0	31016	
7261	0	30964	
7262	0	30892	
7263	0	30776	
7264	0	30576	
7265	0	30384	
7266	0	30276	
7267	0	30308	
7268	0	30410	
7269	0	30524	
7270	0	30704	
7271	0	31030	
7272	0	31584	
7273	0	32236	
7274	0	32980	
7275	0	33824	
7276	0	34800	
7277	0	35868	
7278	0	37048	
7279	0	38436	
7280	0	40016	
7281	0	41628	
7282	0	43176	
7283	0	44772	
7284	0	46304	
7285	0	47940	
7286	0	49608	
7287	0	51244	
7288	0	52648	
7289	0	53952	
7290	0	55344	
7291	0	56784	
7292	0	58144	
7293	0	59324	
7294	0	60332	
7295	0	61120	
7296	0	61808	
7297	0	61800	
7298	0	60572	
7299	0	58432	
7300	0	55632	
7301	0	52360	
7302	0	48992	
7303	0	45472	
7304	0	41552	
7305	0	37428	
7306	0	33834	
7307	0	31216	
7308	0	29232	
7309	0	27920	
7310	0	27130	
7311	0	26778	
7312	0	26708	
7313	0	26776	
7314	0	26972	
7315	0	27256	
7316	0	27566	
7317	0	27938	
7318	0	28320	
7319	0	28656	
7320	0	28928	
7321	0	29184	
7322	0	29348	
7323	0	29488	
7324	0	29616	
7325	0	29648	
7326	0	29632	
7327	0	29580	
7328	0	29492	
7329	0	29384	
7330	0	29288	
7331	0	29180	
7332	0	29096	
7333	0	29048	
7334	0	29008	
7335	0	28944	
7336	0	28828	
7337	0	28784	
7338	0	28796	
7339	0	28856	
7340	0	28830	
7341	0	28800	
7342	0	28744	
7343	0	28756	
7344	0	28802	
7345	0	28837	
7346	0	28872	
7347	0	28904	
7348	0	28956	
7349	0	29020	
7350	0	29048	
7351	0	29080	
7352	0	29080	
7353	0	29120	
7354	0	29160	
7355	0	29148	
7356	0	29128	
7357	0	29144	
7358	0	29138	
7359	0	29156	
7360	0	29208	
7361	0	29262	
7362	0	29384	
7363	0	29432	
7364	0	29452	
7365	0	29474	
7366	0	29472	
7367	0	29524	
7368	0	29580	
7369	0	29632	
7370	0	29672	
7371	0	29700	
7372	0	29716	
7373	0	29756	
7374	0	29765	
7375	0	29756	
7376	0	29754	
7377	0	29804	
7378	0	29822	
7379	0	29836	
7380	0	29888	
7381	0	29896	
7382	0	29928	
7383	0	29988	
7384	0	30004	
7385	0	30060	
7386	0	30116	
7387	0	30192	
7388	0	30248	
7389	0	30332	
7390	0	30372	
7391	0	30426	
7392	0	30490	
7393	0	30572	
7394	0	30622	
7395	0	30656	
7396	0	30716	
7397	0	30760	
7398	0	30820	
7399	0	30848	
7400	0	30860	
7401	0	30872	
7402	0	30890	
7403	0	30900	
7404	0	30916	
7405	0	30912	
7406	0	30892	
7407	0	30904	
7408	0	30924	
7409	0	30928	
7410	0	30960	
7411	0	31012	
7412	0	31050	
7413	0	31008	
7414	0	31016	
7415	0	31144	
7416	0	31304	
7417	0	31408	
7418	0	31476	
7419	0	31496	
7420	0	31544	
7421	0	31592	
7422	0	31610	
7423	0	31648	
7424	0	31720	
7425	0	31768	
7426	0	31729	
7427	0	31774	
7428	0	31840	
7429	0	31884	
7430	0	31912	
7431	0	31948	
7432	0	31932	
7433	0	31944	
7434	0	31968	
7435	0	32032	
7436	0	32128	
7437	0	32208	
7438	0	32176	
7439	0	32144	
7440	0	32096	
7441	0	32040	
7442	0	32064	
7443	0	32156	
7444	0	32252	
7445	0	32364	
7446	0	32500	
7447	0	32568	
7448	0	32616	
7449	0	32664	
7450	0	32704	
7451	0	32784	
7452	0	32804	
7453	0	32858	
7454	0	32872	
7455	0	32908	
7456	0	32904	
7457	0	32900	
7458	0	32864	
7459	0	32876	
7460	0	32952	
7461	0	33032	
7462	0	33104	
7463	0	33104	
7464	0	33120	
7465	0	33180	
7466	0	33256	
7467	0	33348	
7468	0	33432	
7469	0	33532	
7470	0	33588	
7471	0	33604	
7472	0	33668	
7473	0	33738	
7474	0	33748	
7475	0	33776	
7476	0	33794	
7477	0	33764	
7478	0	33816	
7479	0	33868	
7480	0	33932	
7481	0	34048	
7482	0	34140	
7483	0	34208	
7484	0	34296	
7485	0	34404	
7486	0	34456	
7487	0	34520	
7488	0	34552	
7489	0	34604	
7490	0	34648	
7491	0	34660	
7492	0	34712	
7493	0	34776	
7494	0	34864	
7495	0	34920	
7496	0	34928	
7497	0	34956	
7498	0	34944	
7499	0	34977	
7500	0	35008	
7501	0	35100	
7502	0	35196	
7503	0	35272	
7504	0	35352	
7505	0	35436	
7506	0	35472	
7507	0	35512	
7508	0	35576	
7509	0	35672	
7510	0	35720	
7511	0	35744	
7512	0	35756	
7513	0	35796	
7514	0	35936	
7515	0	36072	
7516	0	36132	
7517	0	36168	
7518	0	36204	
7519	0	36192	
7520	0	36216	
7521	0	36236	
7522	0	36176	
7523	0	36162	
7524	0	36116	
7525	0	36040	
7526	0	35980	
7527	0	35992	
7528	0	36036	
7529	0	36008	
7530	0	35962	
7531	0	35964	
7532	0	36000	
7533	0	36024	
7534	0	35984	
7535	0	35936	
7536	0	35864	
7537	0	35796	
7538	0	35712	
7539	0	35652	
7540	0	35620	
7541	0	35564	
7542	0	35476	
7543	0	35328	
7544	0	35192	
7545	0	35076	
7546	0	34948	
7547	0	34928	
7548	0	34864	
7549	0	34748	
7550	0	34672	
7551	0	34608	
7552	0	34484	
7553	0	34304	
7554	0	34044	
7555	0	33720	
7556	0	33452	
7557	0	33304	
7558	0	33260	
7559	0	33208	
7560	0	33104	
7561	0	33040	
7562	0	32916	
7563	0	32712	
7564	0	32520	
7565	0	32300	
7566	0	32124	
7567	0	32056	
7568	0	32048	
7569	0	31984	
7570	0	31844	
7571	0	31652	
7572	0	31460	
7573	0	31352	
7574	0	31220	
7575	0	31088	
7576	0	31020	
7577	0	30976	
7578	0	30820	
7579	0	30706	
7580	0	30578	
7581	0	30532	
7582	0	30500	
7583	0	30484	
7584	0	30408	
7585	0	30400	
7586	0	30372	
7587	0	30296	
7588	0	30200	
7589	0	30172	
7590	0	30204	
7591	0	30192	
7592	0	30144	
7593	0	30128	
7594	0	30148	
7595	0	30076	
7596	0	29984	
7597	0	29948	
7598	0	29936	
7599	0	29980	
7600	0	30020	
7601	0	30036	
7602	0	30044	
7603	0	30018	
7604	0	30046	
7605	0	30140	
7606	0	30208	
7607	0	30196	
7608	0	30148	
7609	0	30058	
7610	0	29972	
7611	0	29892	
7612	0	29832	
7613	0	29796	
7614	0	29796	
7615	0	29816	
7616	0	29882	
7617	0	29944	
7618	0	30032	
7619	0	30116	
7620	0	30198	
7621	0	30240	
7622	0	30162	
7623	0	30104	
7624	0	30124	
7625	0	30126	
7626	0	30124	
7627	0	30168	
7628	0	30252	
7629	0	30278	
7630	0	30272	
7631	0	30312	
7632	0	30340	
7633	0	30356	
7634	0	30364	
7635	0	30404	
7636	0	30516	
7637	0	30588	
7638	0	30632	
7639	0	30616	
7640	0	30684	
7641	0	30756	
7642	0	30780	
7643	0	30692	
7644	0	30600	
7645	0	30636	
7646	0	30736	
7647	0	30848	
7648	0	30940	
7649	0	31004	
7650	0	30976	
7651	0	30942	
7652	0	30948	
7653	0	30900	
7654	0	30852	
7655	0	30920	
7656	0	31016	
7657	0	31048	
7658	0	31104	
7659	0	31140	
7660	0	31124	
7661	0	31058	
7662	0	31088	
7663	0	31172	
7664	0	31200	
7665	0	31208	
7666	0	31224	
7667	0	31244	
7668	0	31284	
7669	0	31324	
7670	0	31376	
7671	0	31516	
7672	0	31568	
7673	0	31496	
7674	0	31464	
7675	0	31456	
7676	0	31416	
7677	0	31456	
7678	0	31512	
7679	0	31404	
7680	0	31320	
7681	0	31320	
7682	0	31196	
7683	0	31104	
7684	0	31160	
7685	0	31264	
7686	0	31381	
7687	0	31480	
7688	0	31576	
7689	0	31636	
7690	0	31680	
7691	0	31692	
7692	0	31712	
7693	0	31816	
7694	0	31928	
7695	0	32084	
7696	0	32288	
7697	0	32480	
7698	0	32576	
7699	0	32568	
7700	0	32600	
7701	0	32688	
7702	0	32840	
7703	0	32904	
7704	0	32928	
7705	0	32868	
7706	0	32864	
7707	0	33004	
7708	0	33120	
7709	0	33176	
7710	0	33344	
7711	0	33500	
7712	0	33572	
7713	0	33668	
7714	0	33800	
7715	0	33928	
7716	0	34052	
7717	0	34124	
7718	0	34136	
7719	0	34248	
7720	0	34417	
7721	0	34564	
7722	0	34744	
7723	0	34880	
7724	0	34912	
7725	0	34850	
7726	0	34804	
7727	0	34740	
7728	0	34656	
7729	0	34632	
7730	0	34546	
7731	0	34464	
7732	0	34444	
7733	0	34488	
7734	0	34512	
7735	0	34468	
7736	0	34362	
7737	0	34218	
7738	0	34048	
7739	0	33912	
7740	0	33900	
7741	0	33884	
7742	0	33860	
7743	0	33788	
7744	0	33732	
7745	0	33576	
7746	0	33438	
7747	0	33260	
7748	0	33068	
7749	0	33020	
7750	0	32974	
7751	0	32920	
7752	0	32836	
7753	0	32756	
7754	0	32668	
7755	0	32620	
7756	0	32616	
7757	0	32656	
7758	0	32608	
7759	0	32516	
7760	0	32416	
7761	0	32362	
7762	0	32312	
7763	0	32224	
7764	0	32132	
7765	0	32072	
7766	0	32000	
7767	0	31968	
7768	0	31968	
7769	0	31904	
7770	0	31824	
7771	0	31776	
7772	0	31604	
7773	0	31424	
7774	0	31296	
7775	0	31168	
7776	0	31058	
7777	0	30876	
7778	0	30724	
7779	0	30600	
7780	0	30504	
7781	0	30456	
7782	0	30544	
7783	0	30628	
7784	0	30640	
7785	0	30688	
7786	0	30776	
7787	0	30784	
7788	0	30752	
7789	0	30714	
7790	0	30624	
7791	0	30552	
7792	0	30544	
7793	0	30550	
7794	0	30600	
7795	0	30664	
7796	0	30688	
7797	0	30672	
7798	0	30778	
7799	0	30918	
7800	0	30916	
7801	0	30848	
7802	0	30778	
7803	0	30822	
7804	0	30856	
7805	0	30932	
7806	0	31056	
7807	0	31076	
7808	0	31136	
7809	0	31208	
7810	0	31176	
7811	0	31152	
7812	0	31176	
7813	0	31274	
7814	0	31324	
7815	0	31244	
7816	0	31224	
7817	0	31260	
7818	0	31176	
7819	0	31036	
7820	0	30970	
7821	0	30964	
7822	0	30984	
7823	0	31044	
7824	0	31160	
7825	0	31276	
7826	0	31224	
7827	0	31076	
7828	0	31050	
7829	0	30996	
7830	0	30960	
7831	0	30852	
7832	0	30600	
7833	0	30328	
7834	0	30036	
7835	0	29704	
7836	0	29568	
7837	0	29624	
7838	0	29808	
7839	0	30032	
7840	0	30420	
7841	0	31056	
7842	0	31744	
7843	0	32592	
7844	0	33584	
7845	0	34680	
7846	0	35952	
7847	0	37530	
7848	0	39272	
7849	0	41070	
7850	0	42856	
7851	0	44668	
7852	0	46574	
7853	0	48524	
7854	0	50452	
7855	0	52300	
7856	0	53952	
7857	0	55548	
7858	0	57124	
7859	0	58580	
7860	0	59868	
7861	0	61088	
7862	0	62280	
7863	0	63248	
7864	0	63784	
7865	0	64004	
7866	0	63068	
7867	0	61204	
7868	0	58656	
7869	0	55236	
7870	0	51612	
7871	0	47904	
7872	0	44048	
7873	0	39776	
7874	0	35360	
7875	0	31592	
7876	0	28769	
7877	0	27034	
7878	0	26180	
7879	0	25924	
7880	0	25932	
7881	0	25984	
7882	0	25990	
7883	0	25972	
7884	0	26045	
7885	0	26208	
7886	0	26492	
7887	0	26868	
7888	0	27220	
7889	0	27500	
7890	0	27860	
7891	0	28228	
7892	0	28508	
7893	0	28730	
7894	0	28920	
7895	0	29040	
7896	0	29116	
7897	0	29180	
7898	0	29144	
7899	0	29092	
7900	0	29016	
7901	0	29000	
7902	0	28956	
7903	0	28984	
7904	0	28932	
7905	0	28872	
7906	0	28788	
7907	0	28616	
7908	0	28544	
7909	0	28608	
7910	0	28680	
7911	0	28732	
7912	0	28728	
7913	0	28642	
7914	0	28532	
7915	0	28564	
7916	0	28720	
7917	0	28884	
7918	0	28968	
7919	0	29006	
7920	0	28968	
7921	0	28962	
7922	0	29056	
7923	0	29072	
7924	0	29120	
7925	0	29120	
7926	0	29112	
7927	0	29196	
7928	0	29348	
7929	0	29448	
7930	0	29460	
7931	0	29480	
7932	0	29428	
7933	0	29320	
7934	0	29344	
7935	0	29364	
7936	0	29368	
7937	0	29484	
7938	0	29512	
7939	0	29484	
7940	0	29508	
7941	0	29608	
7942	0	29744	
7943	0	29744	
7944	0	29700	
7945	0	29628	
7946	0	29646	
7947	0	29664	
7948	0	29720	
7949	0	29800	
7950	0	29892	
7951	0	29972	
7952	0	30068	
7953	0	30120	
7954	0	30104	
7955	0	30092	
7956	0	30172	
7957	0	30276	
7958	0	30440	
7959	0	30570	
7960	0	30612	
7961	0	30616	
7962	0	30568	
7963	0	30550	
7964	0	30656	
7965	0	30704	
7966	0	30752	
7967	0	30672	
7968	0	30676	
7969	0	30680	
7970	0	30680	
7971	0	30704	
7972	0	30776	
7973	0	30836	
7974	0	30844	
7975	0	30844	
7976	0	30860	
7977	0	30882	
7978	0	31000	
7979	0	31172	
7980	0	31280	
7981	0	31272	
7982	0	31300	
7983	0	31416	
7984	0	31424	
7985	0	31312	
7986	0	31228	
7987	0	31208	
7988	0	31252	
7989	0	31404	
7990	0	31520	
7991	0	31596	
7992	0	31600	
7993	0	31584	
7994	0	31706	
7995	0	31820	
7996	0	31812	
7997	0	31808	
7998	0	31880	
7999	0	31892	
8000	0	31898	
8001	0	31920	
8002	0	31924	
8003	0	31928	
8004	0	31932	
8005	0	32064	
8006	0	32140	
8007	0	32048	
8008	0	32064	
8009	0	32080	
8010	0	32080	
8011	0	32144	
8012	0	32296	
8013	0	32384	
8014	0	32410	
8015	0	32418	
8016	0	32376	
8017	0	32432	
8018	0	32580	
8019	0	32688	
8020	0	32764	
8021	0	32816	
8022	0	32844	
8023	0	32884	
8024	0	32954	
8025	0	32978	
8026	0	33004	
8027	0	33028	
8028	0	33080	
8029	0	33246	
8030	0	33420	
8031	0	33504	
8032	0	33498	
8033	0	33532	
8034	0	33452	
8035	0	33380	
8036	0	33436	
8037	0	33452	
8038	0	33380	
8039	0	33340	
8040	0	33344	
8041	0	33528	
8042	0	33716	
8043	0	33732	
8044	0	33796	
8045	0	33792	
8046	0	33820	
8047	0	33908	
8048	0	34016	
8049	0	34112	
8050	0	34176	
8051	0	34176	
8052	0	34160	
8053	0	34272	
8054	0	34464	
8055	0	34532	
8056	0	34668	
8057	0	34724	
8058	0	34808	
8059	0	34940	
8060	0	35008	
8061	0	35248	
8062	0	35418	
8063	0	35460	
8064	0	35520	
8065	0	35578	
8066	0	35632	
8067	0	35676	
8068	0	35636	
8069	0	35584	
8070	0	35480	
8071	0	35408	
8072	0	35360	
8073	0	35456	
8074	0	35552	
8075	0	35728	
8076	0	35808	
8077	0	35886	
8078	0	35924	
8079	0	35982	
8080	0	36012	
8081	0	35986	
8082	0	35984	
8083	0	36036	
8084	0	36028	
8085	0	35964	
8086	0	35936	
8087	0	35952	
8088	0	35988	
8089	0	36084	
8090	0	36120	
8091	0	36152	
8092	0	36244	
8093	0	36256	
8094	0	36256	
8095	0	36226	
8096	0	36186	
8097	0	36224	
8098	0	36224	
8099	0	36104	
8100	0	36024	
8101	0	35948	
8102	0	35808	
8103	0	35660	
8104	0	35464	
8105	0	35440	
8106	0	35476	
8107	0	35412	
8108	0	35424	
8109	0	35416	
8110	0	35400	
8111	0	35304	
8112	0	35108	
8113	0	34912	
8114	0	34760	
8115	0	34672	
8116	0	34604	
8117	0	34408	
8118	0	34260	
8119	0	34120	
8120	0	34000	
8121	0	33844	
8122	0	33648	
8123	0	33588	
8124	0	33456	
8125	0	33330	
8126	0	33176	
8127	0	33104	
8128	0	33036	
8129	0	32856	
8130	0	32724	
8131	0	32628	
8132	0	32512	
8133	0	32416	
8134	0	32320	
8135	0	32194	
8136	0	32104	
8137	0	31988	
8138	0	31992	
8139	0	31972	
8140	0	31836	
8141	0	31668	
8142	0	31620	
8143	0	31524	
8144	0	31376	
8145	0	31176	
8146	0	30984	
8147	0	30820	
8148	0	30644	
8149	0	30512	
8150	0	30420	
8151	0	30340	
8152	0	30380	
8153	0	30468	
8154	0	30492	
8155	0	30480	
8156	0	30360	
8157	0	30164	
8158	0	29996	
8159	0	29928	
8160	0	29976	
8161	0	29972	
8162	0	29860	
8163	0	29850	
8164	0	29832	
8165	0	29800	
8166	0	29840	
8167	0	29884	
8168	0	29868	
8169	0	29920	
8170	0	29876	
8171	0	29888	
8172	0	30000	
8173	0	30104	
8174	0	30116	
8175	0	30112	
8176	0	30164	
8177	0	30256	
8178	0	30224	
8179	0	30188	
8180	0	30140	
8181	0	30104	
8182	0	30104	
8183	0	30084	
8184	0	30060	
8185	0	30064	
8186	0	30080	
8187	0	30028	
8188	0	29908	
8189	0	29823	
8190	0	29880	
8191	0	30028	
8192	0	30134	
8193	0	30200	
8194	0	30164	
8195	0	30140	
8196	0	30132	
8197	0	30222	
8198	0	30282	
8199	0	30436	
8200	0	30592	
8201	0	30596	
8202	0	30532	
8203	0	30548	
8204	0	30680	
8205	0	30824	
8206	0	30834	
8207	0	30800	
8208	0	30880	
8209	0	30960	
8210	0	30936	
8211	0	30868	
8212	0	30808	
8213	0	30788	
8214	0	30892	
8215	0	30904	
8216	0	30816	
8217	0	30784	
8218	0	30804	
8219	0	30808	
8220	0	30860	
8221	0	30904	
8222	0	30884	
8223	0	30920	
8224	0	30976	
8225	0	30896	
8226	0	30936	
8227	0	31036	
8228	0	31052	
8229	0	31096	
8230	0	31180	
8231	0	31220	
8232	0	31208	
8233	0	31216	
8234	0	31288	
8235	0	31356	
8236	0	31400	
8237	0	31412	
8238	0	31392	
8239	0	31312	
8240	0	31344	
8241	0	31364	
8242	0	31368	
8243	0	31464	
8244	0	31572	
8245	0	31548	
8246	0	31632	
8247	0	31800	
8248	0	31936	
8249	0	32060	
8250	0	32232	
8251	0	32448	
8252	0	32648	
8253	0	32680	
8254	0	32696	
8255	0	32744	
8256	0	32696	
8257	0	32688	
8258	0	32656	
8259	0	32552	
8260	0	32560	
8261	0	32732	
8262	0	32800	
8263	0	32886	
8264	0	33012	
8265	0	33104	
8266	0	33260	
8267	0	33376	
8268	0	33328	
8269	0	33388	
8270	0	33528	
8271	0	33648	
8272	0	33732	
8273	0	33948	
8274	0	34240	
8275	0	34568	
8276	0	34812	
8277	0	34958	
8278	0	34988	
8279	0	34901	
8280	0	34880	
8281	0	34856	
8282	0	34748	
8283	0	34668	
8284	0	34598	
8285	0	34392	
8286	0	34244	
8287	0	34164	
8288	0	34164	
8289	0	34156	
8290	0	34092	
8291	0	34032	
8292	0	34016	
8293	0	33976	
8294	0	33900	
8295	0	33812	
8296	0	33712	
8297	0	33588	
8298	0	33420	
8299	0	33192	
8300	0	33056	
8301	0	32976	
8302	0	32924	
8303	0	32868	
8304	0	32760	
8305	0	32832	
8306	0	32912	
8307	0	32936	
8308	0	32872	
8309	0	32800	
8310	0	32716	
8311	0	32692	
8312	0	32694	
8313	0	32644	
8314	0	32608	
8315	0	32448	
8316	0	32324	
8317	0	32128	
8318	0	31992	
8319	0	31900	
8320	0	31834	
8321	0	31784	
8322	0	31848	
8323	0	31864	
8324	0	31808	
8325	0	31672	
8326	0	31424	
8327	0	31248	
8328	0	31024	
8329	0	30932	
8330	0	30888	
8331	0	30960	
8332	0	30968	
8333	0	30812	
8334	0	30708	
8335	0	30736	
8336	0	30796	
8337	0	30776	
8338	0	30776	
8339	0	30832	
8340	0	30896	
8341	0	30940	
8342	0	30896	
8343	0	30760	
8344	0	30672	
8345	0	30576	
8346	0	30528	
8347	0	30464	
8348	0	30460	
8349	0	30432	
8350	0	30356	
8351	0	30344	
8352	0	30396	
8353	0	30544	
8354	0	30712	
8355	0	30808	
8356	0	30840	
8357	0	30768	
8358	0	30736	
8359	0	30820	
8360	0	30856	
8361	0	30896	
8362	0	30988	
8363	0	30912	
8364	0	30844	
8365	0	30964	
8366	0	31052	
8367	0	31104	
8368	0	31256	
8369	0	31272	
8370	0	31272	
8371	0	31420	
8372	0	31444	
8373	0	31416	
8374	0	31376	
8375	0	31370	
8376	0	31252	
8377	0	31116	
8378	0	31044	
8379	0	31084	
8380	0	31076	
8381	0	31136	
8382	0	31108	
8383	0	30960	
8384	0	30874	
8385	0	30868	
8386	0	30876	
8387	0	30624	
8388	0	30412	
8389	0	30268	
8390	0	30232	
8391	0	30160	
8392	0	30080	
8393	0	30266	
8394	0	30560	
8395	0	30982	
8396	0	31628	
8397	0	32436	
8398	0	33416	
8399	0	34408	
8400	0	35572	
8401	0	36864	
8402	0	38464	
8403	0	40316	
8404	0	42128	
8405	0	43968	
8406	0	45776	
8407	0	47660	
8408	0	49626	
8409	0	51452	
8410	0	53120	
8411	0	54624	
8412	0	56144	
8413	0	57656	
8414	0	59184	
8415	0	60484	
8416	0	61692	
8417	0	62904	
8418	0	63672	
8419	0	64024	
8420	0	64168	
8421	0	64180	
8422	0	62424	
8423	0	59496	
8424	0	55640	
8425	0	51604	
8426	0	47652	
8427	0	43548	
8428	0	39088	
8429	0	34624	
8430	0	30904	
8431	0	28224	
8432	0	26584	
8433	0	25786	
8434	0	25640	
8435	0	25872	
8436	0	26192	
8437	0	26240	
8438	0	26112	
8439	0	26052	
8440	0	26134	
8441	0	26312	
8442	0	26516	
8443	0	26792	
8444	0	27042	
8445	0	27376	
8446	0	27764	
8447	0	28116	
8448	0	28384	
8449	0	28640	
8450	0	28952	
8451	0	29160	
8452	0	29216	
8453	0	29288	
8454	0	29336	
8455	0	29200	
8456	0	29052	
8457	0	29148	
8458	0	29156	
8459	0	29084	
8460	0	29100	
8461	0	29056	
8462	0	28896	
8463	0	28672	
8464	0	28648	
8465	0	28636	
8466	0	28665	
8467	0	28660	
8468	0	28620	
8469	0	28668	
8470	0	28712	
8471	0	28648	
8472	0	28488	
8473	0	28432	
8474	0	28472	
8475	0	28642	
8476	0	28728	
8477	0	28896	
8478	0	28960	
8479	0	28940	
8480	0	28940	
8481	0	29013	
8482	0	29036	
8483	0	29096	
8484	0	29216	
8485	0	29184	
8486	0	29208	
8487	0	29274	
8488	0	29264	
8489	0	29314	
8490	0	29356	
8491	0	29452	
8492	0	29540	
8493	0	29592	
8494	0	29596	
8495	0	29664	
8496	0	29730	
8497	0	29742	
8498	0	29780	
8499	0	29796	
8500	0	29924	
8501	0	30080	
8502	0	30144	
8503	0	30260	
8504	0	30340	
8505	0	30372	
8506	0	30500	
8507	0	30484	
8508	0	30432	
8509	0	30460	
8510	0	30524	
8511	0	30592	
8512	0	30536	
8513	0	30480	
8514	0	30464	
8515	0	30454	
8516	0	30464	
8517	0	30496	
8518	0	30392	
8519	0	30336	
8520	0	30296	
8521	0	30432	
8522	0	30632	
8523	0	30808	
8524	0	30948	
8525	0	31016	
8526	0	31060	
8527	0	31096	
8528	0	31096	
8529	0	31092	
8530	0	30970	
8531	0	30944	
8532	0	31036	
8533	0	31188	
8534	0	31128	
8535	0	31056	
8536	0	31188	
8537	0	31292	
8538	0	31304	
8539	0	31264	
8540	0	31304	
8541	0	31368	
8542	0	31358	
8543	0	31376	
8544	0	31464	
8545	0	31440	
8546	0	31384	
8547	0	31452	
8548	0	31548	
8549	0	31624	
8550	0	31732	
8551	0	31748	
8552	0	31832	
8553	0	31920	
8554	0	31888	
8555	0	31992	
8556	0	32084	
8557	0	32088	
8558	0	32012	
8559	0	32132	
8560	0	32208	
8561	0	32308	
8562	0	32444	
8563	0	32476	
8564	0	32532	
8565	0	32516	
8566	0	32572	
8567	0	32664	
8568	0	32740	
8569	0	32820	
8570	0	32864	
8571	0	32868	
8572	0	32824	
8573	0	32716	
8574	0	32704	
8575	0	32746	
8576	0	32752	
8577	0	32856	
8578	0	32920	
8579	0	32996	
8580	0	33076	
8581	0	33148	
8582	0	33264	
8583	0	33352	
8584	0	33394	
8585	0	33460	
8586	0	33536	
8587	0	33576	
8588	0	33564	
8589	0	33528	
8590	0	33600	
8591	0	33716	
8592	0	33800	
