# OpenSignals Text File Format. Version 1
# {"00:07:80:4B:15:F7": {"position": 0, "device": "biosignalsplux", "device name": "00:07:80:4B:15:F7", "device connection": "BTH00:07:80:4B:15:F7", "sampling rate": 1000, "resolution": [16], "firmware version": 775, "comments": "", "keywords": "", "mode": 0, "sync interval": 2, "date": "2023-4-27", "time": "16:55:36.553", "channels": [1], "sensor": ["ECG"], "label": ["CH1"], "column": ["nSeq", "DI", "CH1"], "special": [{"SpO2": [80, 40, 5, 4, 3, 3]}, {"SpO2": [80, 40, 5, 4, 3, 3]}, {"SpO2": [80, 40, 5, 4, 3, 3]}, {"SpO2": [80, 40, 5, 4, 3, 3]}, {"SpO2": [80, 40, 5, 4, 3, 3]}, {"SpO2": [80, 40, 5, 4, 3, 3]}, {"SpO2": [80, 40, 5, 4, 3, 3]}, {"SpO2": [80, 40, 5, 4, 3, 3]}], "digital IO": [0, 1], "sleeve color": ["green"], "convertedValues": 0}}
# EndOfHeader
0	0	32408	
1	0	32352	
2	0	32366	
3	0	32406	
4	0	32404	
5	0	32416	
6	0	32460	
7	0	32480	
8	0	32480	
9	0	32520	
10	0	32564	
11	0	32612	
12	0	32640	
13	0	32632	
14	0	32636	
15	0	32648	
16	0	32686	
17	0	32632	
18	0	32529	
19	0	32524	
20	0	32540	
21	0	32544	
22	0	32540	
23	0	32528	
24	0	32532	
25	0	32560	
26	0	32556	
27	0	32550	
28	0	32528	
29	0	32564	
30	0	32600	
31	0	32596	
32	0	32608	
33	0	32618	
34	0	32632	
35	0	32688	
36	0	32720	
37	0	32736	
38	0	32756	
39	0	32760	
40	0	32756	
41	0	32740	
42	0	32680	
43	0	32616	
44	0	32620	
45	0	32602	
46	0	32604	
47	0	32576	
48	0	32628	
49	0	32708	
50	0	32832	
51	0	32960	
52	0	33072	
53	0	33160	
54	0	33256	
55	0	33332	
56	0	33452	
57	0	33602	
58	0	33736	
59	0	33748	
60	0	33808	
61	0	33952	
62	0	34028	
63	0	34088	
64	0	34076	
65	0	34056	
66	0	34040	
67	0	34040	
68	0	34134	
69	0	34216	
70	0	34300	
71	0	34328	
72	0	34284	
73	0	34300	
74	0	34348	
75	0	34396	
76	0	34408	
77	0	34456	
78	0	34576	
79	0	34716	
80	0	34872	
81	0	34972	
82	0	35092	
83	0	35248	
84	0	35420	
85	0	35576	
86	0	35636	
87	0	35568	
88	0	35500	
89	0	35468	
90	0	35436	
91	0	35424	
92	0	35440	
93	0	35448	
94	0	35480	
95	0	35524	
96	0	35524	
97	0	35412	
98	0	35204	
99	0	35088	
100	0	34960	
101	0	34840	
102	0	34720	
103	0	34568	
104	0	34364	
105	0	34208	
106	0	34084	
107	0	34020	
108	0	33944	
109	0	33872	
110	0	33788	
111	0	33712	
112	0	33624	
113	0	33524	
114	0	33472	
115	0	33384	
116	0	33328	
117	0	33300	
118	0	33216	
119	0	33128	
120	0	33071	
121	0	33056	
122	0	33040	
123	0	32964	
124	0	32928	
125	0	32880	
126	0	32872	
127	0	32832	
128	0	32776	
129	0	32692	
130	0	32600	
131	0	32492	
132	0	32372	
133	0	32272	
134	0	32188	
135	0	32128	
136	0	32048	
137	0	32016	
138	0	31948	
139	0	31840	
140	0	31736	
141	0	31652	
142	0	31628	
143	0	31628	
144	0	31681	
145	0	31732	
146	0	31708	
147	0	31684	
148	0	31688	
149	0	31696	
150	0	31664	
151	0	31640	
152	0	31628	
153	0	31656	
154	0	31700	
155	0	31696	
156	0	31660	
157	0	31616	
158	0	31600	
159	0	31620	
160	0	31640	
161	0	31632	
162	0	31608	
163	0	31620	
164	0	31680	
165	0	31684	
166	0	31696	
167	0	31724	
168	0	31712	
169	0	31700	
170	0	31688	
171	0	31696	
172	0	31752	
173	0	31784	
174	0	31808	
175	0	31804	
176	0	31800	
177	0	31796	
178	0	31832	
179	0	31884	
180	0	31932	
181	0	31956	
182	0	31984	
183	0	32030	
184	0	32072	
185	0	32084	
186	0	32096	
187	0	32084	
188	0	32046	
189	0	31976	
190	0	31920	
191	0	31828	
192	0	31632	
193	0	31428	
194	0	31244	
195	0	31168	
196	0	31200	
197	0	31320	
198	0	31488	
199	0	31680	
200	0	32032	
201	0	32588	
202	0	33276	
203	0	34024	
204	0	34856	
205	0	35824	
206	0	36906	
207	0	38124	
208	0	39628	
209	0	41268	
210	0	42846	
211	0	44480	
212	0	46114	
213	0	47756	
214	0	49476	
215	0	51168	
216	0	52620	
217	0	53856	
218	0	55092	
219	0	56448	
220	0	57808	
221	0	59052	
222	0	60168	
223	0	61124	
224	0	61964	
225	0	62528	
226	0	62132	
227	0	60560	
228	0	58264	
229	0	55272	
230	0	51968	
231	0	48680	
232	0	45178	
233	0	41368	
234	0	37604	
235	0	34548	
236	0	32280	
237	0	30612	
238	0	29452	
239	0	28658	
240	0	28216	
241	0	27992	
242	0	27916	
243	0	28048	
244	0	28338	
245	0	28688	
246	0	29024	
247	0	29334	
248	0	29560	
249	0	29728	
250	0	29860	
251	0	29968	
252	0	30020	
253	0	30068	
254	0	30004	
255	0	29864	
256	0	29712	
257	0	29652	
258	0	29620	
259	0	29576	
260	0	29532	
261	0	29480	
262	0	29410	
263	0	29360	
264	0	29284	
265	0	29240	
266	0	29240	
267	0	29228	
268	0	29244	
269	0	29272	
270	0	29280	
271	0	29292	
272	0	29332	
273	0	29374	
274	0	29368	
275	0	29374	
276	0	29432	
277	0	29484	
278	0	29480	
279	0	29496	
280	0	29520	
281	0	29560	
282	0	29612	
283	0	29640	
284	0	29642	
285	0	29676	
286	0	29656	
287	0	29608	
288	0	29602	
289	0	29612	
290	0	29666	
291	0	29748	
292	0	29800	
293	0	29818	
294	0	29848	
295	0	29876	
296	0	29912	
297	0	29972	
298	0	30032	
299	0	30064	
300	0	30064	
301	0	30102	
302	0	30164	
303	0	30212	
304	0	30234	
305	0	30210	
306	0	30272	
307	0	30316	
308	0	30316	
309	0	30314	
310	0	30356	
311	0	30464	
312	0	30528	
313	0	30556	
314	0	30604	
315	0	30648	
316	0	30692	
317	0	30712	
318	0	30712	
319	0	30712	
320	0	30740	
321	0	30788	
322	0	30852	
323	0	30916	
324	0	30944	
325	0	30964	
326	0	30976	
327	0	31024	
328	0	31068	
329	0	31104	
330	0	31156	
331	0	31226	
332	0	31304	
333	0	31320	
334	0	31310	
335	0	31348	
336	0	31368	
337	0	31344	
338	0	31336	
339	0	31328	
340	0	31338	
341	0	31340	
342	0	31424	
343	0	31482	
344	0	31568	
345	0	31648	
346	0	31682	
347	0	31692	
348	0	31724	
349	0	31794	
350	0	31852	
351	0	31892	
352	0	31944	
353	0	32012	
354	0	32020	
355	0	32040	
356	0	32100	
357	0	32170	
358	0	32244	
359	0	32288	
360	0	32288	
361	0	32316	
362	0	32352	
363	0	32392	
364	0	32416	
365	0	32468	
366	0	32492	
367	0	32508	
368	0	32568	
369	0	32656	
370	0	32720	
371	0	32736	
372	0	32774	
373	0	32848	
374	0	32836	
375	0	32840	
376	0	32854	
377	0	32872	
378	0	32872	
379	0	32892	
380	0	32944	
381	0	33040	
382	0	33080	
383	0	33120	
384	0	33152	
385	0	33184	
386	0	33216	
387	0	33256	
388	0	33308	
389	0	33428	
390	0	33504	
391	0	33554	
392	0	33594	
393	0	33608	
394	0	33664	
395	0	33724	
396	0	33792	
397	0	33832	
398	0	33880	
399	0	33908	
400	0	33900	
401	0	33900	
402	0	33964	
403	0	34064	
404	0	34138	
405	0	34180	
406	0	34264	
407	0	34324	
408	0	34408	
409	0	34448	
410	0	34484	
411	0	34580	
412	0	34664	
413	0	34776	
414	0	34880	
415	0	34964	
416	0	34996	
417	0	35012	
418	0	35064	
419	0	35116	
420	0	35176	
421	0	35180	
422	0	35220	
423	0	35332	
424	0	35424	
425	0	35476	
426	0	35516	
427	0	35560	
428	0	35576	
429	0	35640	
430	0	35728	
431	0	35824	
432	0	35928	
433	0	35984	
434	0	36032	
435	0	36022	
436	0	36000	
437	0	36020	
438	0	36064	
439	0	36056	
440	0	36080	
441	0	36152	
442	0	36200	
443	0	36268	
444	0	36284	
445	0	36264	
446	0	36300	
447	0	36328	
448	0	36336	
449	0	36376	
450	0	36384	
451	0	36428	
452	0	36462	
453	0	36456	
454	0	36456	
455	0	36404	
456	0	36400	
457	0	36440	
458	0	36432	
459	0	36408	
460	0	36380	
461	0	36296	
462	0	36192	
463	0	36104	
464	0	36056	
465	0	35980	
466	0	35880	
467	0	35780	
468	0	35648	
469	0	35532	
470	0	35432	
471	0	35308	
472	0	35212	
473	0	35100	
474	0	34944	
475	0	34816	
476	0	34722	
477	0	34576	
478	0	34436	
479	0	34316	
480	0	34176	
481	0	34046	
482	0	33892	
483	0	33724	
484	0	33545	
485	0	33436	
486	0	33292	
487	0	33152	
488	0	33044	
489	0	32948	
490	0	32876	
491	0	32780	
492	0	32660	
493	0	32540	
494	0	32400	
495	0	32264	
496	0	32132	
497	0	32016	
498	0	31934	
499	0	31840	
500	0	31716	
501	0	31608	
502	0	31504	
503	0	31406	
504	0	31288	
505	0	31160	
506	0	31072	
507	0	30996	
508	0	30928	
509	0	30856	
510	0	30796	
511	0	30760	
512	0	30776	
513	0	30754	
514	0	30712	
515	0	30636	
516	0	30512	
517	0	30472	
518	0	30424	
519	0	30388	
520	0	30380	
521	0	30360	
522	0	30348	
523	0	30360	
524	0	30368	
525	0	30364	
526	0	30402	
527	0	30428	
528	0	30432	
529	0	30500	
530	0	30524	
531	0	30496	
532	0	30476	
533	0	30484	
534	0	30492	
535	0	30468	
536	0	30444	
537	0	30420	
538	0	30352	
539	0	30296	
540	0	30236	
541	0	30176	
542	0	30226	
543	0	30296	
544	0	30360	
545	0	30408	
546	0	30454	
547	0	30444	
548	0	30436	
549	0	30416	
550	0	30418	
551	0	30456	
552	0	30492	
553	0	30508	
554	0	30516	
555	0	30516	
556	0	30520	
557	0	30580	
558	0	30596	
559	0	30584	
560	0	30592	
561	0	30632	
562	0	30640	
563	0	30672	
564	0	30736	
565	0	30820	
566	0	30912	
567	0	30948	
568	0	30916	
569	0	30917	
570	0	30992	
571	0	31064	
572	0	31093	
573	0	31092	
574	0	31116	
575	0	31144	
576	0	31172	
577	0	31176	
578	0	31172	
579	0	31160	
580	0	31180	
581	0	31208	
582	0	31224	
583	0	31252	
584	0	31248	
585	0	31252	
586	0	31306	
587	0	31320	
588	0	31340	
589	0	31356	
590	0	31340	
591	0	31360	
592	0	31364	
593	0	31404	
594	0	31472	
595	0	31498	
596	0	31512	
597	0	31496	
598	0	31472	
599	0	31480	
600	0	31500	
601	0	31504	
602	0	31516	
603	0	31528	
604	0	31552	
605	0	31586	
606	0	31636	
607	0	31682	
608	0	31720	
609	0	31756	
610	0	31766	
611	0	31772	
612	0	31764	
613	0	31748	
614	0	31760	
615	0	31760	
616	0	31800	
617	0	31880	
618	0	31933	
619	0	31920	
620	0	31904	
621	0	31884	
622	0	31912	
623	0	31940	
624	0	31938	
625	0	31932	
626	0	31944	
627	0	31976	
628	0	31968	
629	0	31944	
630	0	31916	
631	0	31924	
632	0	31966	
633	0	32008	
634	0	32036	
635	0	32034	
636	0	32008	
637	0	32004	
638	0	32012	
639	0	32028	
640	0	32052	
641	0	32076	
642	0	32112	
643	0	32132	
644	0	32164	
645	0	32176	
646	0	32176	
647	0	32176	
648	0	32208	
649	0	32240	
650	0	32260	
651	0	32256	
652	0	32254	
653	0	32248	
654	0	32224	
655	0	32220	
656	0	32184	
657	0	32156	
658	0	32176	
659	0	32200	
660	0	32188	
661	0	32112	
662	0	32136	
663	0	32168	
664	0	32192	
665	0	32200	
666	0	32200	
667	0	32232	
668	0	32304	
669	0	32356	
670	0	32376	
671	0	32376	
672	0	32364	
673	0	32320	
674	0	32288	
675	0	32296	
676	0	32280	
677	0	32248	
678	0	32216	
679	0	32198	
680	0	32188	
681	0	32220	
682	0	32290	
683	0	32314	
684	0	32312	
685	0	32320	
686	0	32328	
687	0	32356	
688	0	32384	
689	0	32372	
690	0	32360	
691	0	32376	
692	0	32432	
693	0	32448	
694	0	32464	
695	0	32488	
696	0	32492	
697	0	32488	
698	0	32476	
699	0	32488	
700	0	32520	
701	0	32536	
702	0	32508	
703	0	32504	
704	0	32512	
705	0	32496	
706	0	32498	
707	0	32488	
708	0	32484	
709	0	32456	
710	0	32420	
711	0	32400	
712	0	32424	
713	0	32428	
714	0	32424	
715	0	32432	
716	0	32392	
717	0	32364	
718	0	32396	
719	0	32450	
720	0	32468	
721	0	32500	
722	0	32528	
723	0	32504	
724	0	32484	
725	0	32456	
726	0	32440	
727	0	32448	
728	0	32412	
729	0	32409	
730	0	32456	
731	0	32528	
732	0	32576	
733	0	32592	
734	0	32634	
735	0	32636	
736	0	32604	
737	0	32632	
738	0	32654	
739	0	32656	
740	0	32668	
741	0	32676	
742	0	32672	
743	0	32652	
744	0	32692	
745	0	32696	
746	0	32656	
747	0	32624	
748	0	32628	
749	0	32656	
750	0	32700	
751	0	32752	
752	0	32762	
753	0	32768	
754	0	32786	
755	0	32812	
756	0	32812	
757	0	32844	
758	0	32828	
759	0	32804	
760	0	32788	
761	0	32760	
762	0	32736	
763	0	32792	
764	0	32820	
765	0	32784	
766	0	32776	
767	0	32768	
768	0	32786	
769	0	32792	
770	0	32792	
771	0	32816	
772	0	32836	
773	0	32848	
774	0	32876	
775	0	32856	
776	0	32844	
777	0	32788	
778	0	32728	
779	0	32652	
780	0	32592	
781	0	32594	
782	0	32600	
783	0	32612	
784	0	32668	
785	0	32708	
786	0	32772	
787	0	32868	
788	0	32994	
789	0	33136	
790	0	33264	
791	0	33464	
792	0	33600	
793	0	33680	
794	0	33780	
795	0	33872	
796	0	33940	
797	0	34028	
798	0	34132	
799	0	34172	
800	0	34232	
801	0	34252	
802	0	34208	
803	0	34136	
804	0	34144	
805	0	34208	
806	0	34256	
807	0	34340	
808	0	34404	
809	0	34480	
810	0	34542	
811	0	34592	
812	0	34576	
813	0	34572	
814	0	34644	
815	0	34724	
816	0	34844	
817	0	35004	
818	0	35144	
819	0	35272	
820	0	35376	
821	0	35428	
822	0	35446	
823	0	35508	
824	0	35532	
825	0	35584	
826	0	35588	
827	0	35576	
828	0	35560	
829	0	35552	
830	0	35564	
831	0	35608	
832	0	35616	
833	0	35524	
834	0	35384	
835	0	35284	
836	0	35148	
837	0	34984	
838	0	34824	
839	0	34640	
840	0	34476	
841	0	34356	
842	0	34256	
843	0	34156	
844	0	34060	
845	0	33992	
846	0	33944	
847	0	33908	
848	0	33848	
849	0	33800	
850	0	33724	
851	0	33636	
852	0	33564	
853	0	33508	
854	0	33512	
855	0	33496	
856	0	33464	
857	0	33436	
858	0	33368	
859	0	33308	
860	0	33246	
861	0	33150	
862	0	33068	
863	0	32988	
864	0	32928	
865	0	32872	
866	0	32820	
867	0	32752	
868	0	32660	
869	0	32588	
870	0	32496	
871	0	32414	
872	0	32340	
873	0	32268	
874	0	32176	
875	0	32088	
876	0	32024	
877	0	31944	
878	0	31870	
879	0	31820	
880	0	31760	
881	0	31680	
882	0	31626	
883	0	31630	
884	0	31692	
885	0	31756	
886	0	31804	
887	0	31848	
888	0	31860	
889	0	31876	
890	0	31912	
891	0	31930	
892	0	31930	
893	0	31880	
894	0	31900	
895	0	31908	
896	0	31868	
897	0	31820	
898	0	31832	
899	0	31840	
900	0	31808	
901	0	31776	
902	0	31808	
903	0	31868	
904	0	31904	
905	0	31944	
906	0	31982	
907	0	31984	
908	0	32028	
909	0	32076	
910	0	32116	
911	0	32153	
912	0	32226	
913	0	32336	
914	0	32406	
915	0	32392	
916	0	32320	
917	0	32312	
918	0	32364	
919	0	32408	
920	0	32420	
921	0	32392	
922	0	32288	
923	0	32142	
924	0	31984	
925	0	31864	
926	0	31728	
927	0	31540	
928	0	31324	
929	0	31146	
930	0	31056	
931	0	31092	
932	0	31232	
933	0	31394	
934	0	31568	
935	0	31872	
936	0	32336	
937	0	32968	
938	0	33704	
939	0	34612	
940	0	35658	
941	0	36760	
942	0	38008	
943	0	39468	
944	0	41128	
945	0	42782	
946	0	44448	
947	0	46088	
948	0	47752	
949	0	49432	
950	0	51116	
951	0	52688	
952	0	54072	
953	0	55284	
954	0	56528	
955	0	57908	
956	0	59352	
957	0	60608	
958	0	61596	
959	0	62272	
960	0	62664	
961	0	62308	
962	0	60884	
963	0	58652	
964	0	55568	
965	0	52240	
966	0	48888	
967	0	45248	
968	0	41200	
969	0	37092	
970	0	33736	
971	0	31418	
972	0	29840	
973	0	28822	
974	0	28152	
975	0	27772	
976	0	27552	
977	0	27360	
978	0	27296	
979	0	27416	
980	0	27640	
981	0	27996	
982	0	28396	
983	0	28788	
984	0	29100	
985	0	29312	
986	0	29496	
987	0	29620	
988	0	29740	
989	0	29848	
990	0	29920	
991	0	29890	
992	0	29748	
993	0	29620	
994	0	29504	
995	0	29456	
996	0	29452	
997	0	29432	
998	0	29400	
999	0	29386	
1000	0	29378	
1001	0	29324	
1002	0	29280	
1003	0	29248	
1004	0	29268	
1005	0	29340	
1006	0	29328	
1007	0	29286	
1008	0	29320	
1009	0	29372	
1010	0	29380	
1011	0	29372	
1012	0	29388	
1013	0	29436	
1014	0	29472	
1015	0	29484	
1016	0	29508	
1017	0	29548	
1018	0	29564	
1019	0	29568	
1020	0	29556	
1021	0	29580	
1022	0	29618	
1023	0	29648	
1024	0	29708	
1025	0	29832	
1026	0	29960	
1027	0	30012	
1028	0	30076	
1029	0	30124	
1030	0	30184	
1031	0	30232	
1032	0	30314	
1033	0	30376	
1034	0	30358	
1035	0	30308	
1036	0	30284	
1037	0	30296	
1038	0	30338	
1039	0	30382	
1040	0	30396	
1041	0	30416	
1042	0	30424	
1043	0	30392	
1044	0	30392	
1045	0	30480	
1046	0	30552	
1047	0	30592	
1048	0	30628	
1049	0	30668	
1050	0	30724	
1051	0	30812	
1052	0	30920	
1053	0	30980	
1054	0	30996	
1055	0	30956	
1056	0	30924	
1057	0	30896	
1058	0	30912	
1059	0	30920	
1060	0	30944	
1061	0	30938	
1062	0	30936	
1063	0	30896	
1064	0	30868	
1065	0	30876	
1066	0	30932	
1067	0	30976	
1068	0	31032	
1069	0	31096	
1070	0	31196	
1071	0	31288	
1072	0	31304	
1073	0	31296	
1074	0	31304	
1075	0	31324	
1076	0	31372	
1077	0	31394	
1078	0	31404	
1079	0	31452	
1080	0	31492	
1081	0	31496	
1082	0	31480	
1083	0	31484	
1084	0	31514	
1085	0	31532	
1086	0	31580	
1087	0	31616	
1088	0	31648	
1089	0	31700	
1090	0	31772	
1091	0	31840	
1092	0	31864	
1093	0	31908	
1094	0	31984	
1095	0	32012	
1096	0	32008	
1097	0	32032	
1098	0	32074	
1099	0	32068	
1100	0	32080	
1101	0	32122	
1102	0	32200	
1103	0	32250	
1104	0	32292	
1105	0	32368	
1106	0	32464	
1107	0	32520	
1108	0	32528	
1109	0	32556	
1110	0	32660	
1111	0	32720	
1112	0	32728	
1113	0	32740	
1114	0	32792	
1115	0	32896	
1116	0	32976	
1117	0	33026	
1118	0	33028	
1119	0	33088	
1120	0	33152	
1121	0	33216	
1122	0	33292	
1123	0	33334	
1124	0	33380	
1125	0	33404	
1126	0	33364	
1127	0	33356	
1128	0	33382	
1129	0	33376	
1130	0	33378	
1131	0	33402	
1132	0	33440	
1133	0	33544	
1134	0	33672	
1135	0	33760	
1136	0	33816	
1137	0	33884	
1138	0	33976	
1139	0	34040	
1140	0	34112	
1141	0	34202	
1142	0	34272	
1143	0	34360	
1144	0	34416	
1145	0	34446	
1146	0	34526	
1147	0	34616	
1148	0	34646	
1149	0	34628	
1150	0	34660	
1151	0	34756	
1152	0	34860	
1153	0	34924	
1154	0	34960	
1155	0	35020	
1156	0	35076	
1157	0	35104	
1158	0	35204	
1159	0	35296	
1160	0	35324	
1161	0	35348	
1162	0	35360	
1163	0	35380	
1164	0	35438	
1165	0	35500	
1166	0	35600	
1167	0	35704	
1168	0	35786	
1169	0	35856	
1170	0	35872	
1171	0	35904	
1172	0	35972	
1173	0	36044	
1174	0	36048	
1175	0	36064	
1176	0	36164	
1177	0	36188	
1178	0	36180	
1179	0	36176	
1180	0	36160	
1181	0	36178	
1182	0	36200	
1183	0	36192	
1184	0	36192	
1185	0	36176	
1186	0	36188	
1187	0	36240	
1188	0	36304	
1189	0	36292	
1190	0	36276	
1191	0	36324	
1192	0	36320	
1193	0	36308	
1194	0	36292	
1195	0	36296	
1196	0	36258	
1197	0	36208	
1198	0	36108	
1199	0	36042	
1200	0	36012	
1201	0	35988	
1202	0	35884	
1203	0	35752	
1204	0	35648	
1205	0	35556	
1206	0	35452	
1207	0	35308	
1208	0	35172	
1209	0	35020	
1210	0	34880	
1211	0	34736	
1212	0	34660	
1213	0	34554	
1214	0	34432	
1215	0	34344	
1216	0	34224	
1217	0	34096	
1218	0	33952	
1219	0	33804	
1220	0	33616	
1221	0	33440	
1222	0	33228	
1223	0	33032	
1224	0	32824	
1225	0	32652	
1226	0	32516	
1227	0	32364	
1228	0	32246	
1229	0	32172	
1230	0	32132	
1231	0	32024	
1232	0	31914	
1233	0	31809	
1234	0	31708	
1235	0	31614	
1236	0	31496	
1237	0	31380	
1238	0	31316	
1239	0	31228	
1240	0	31128	
1241	0	30980	
1242	0	30916	
1243	0	30900	
1244	0	30808	
1245	0	30712	
1246	0	30652	
1247	0	30596	
1248	0	30548	
1249	0	30484	
1250	0	30436	
1251	0	30408	
1252	0	30320	
1253	0	30260	
1254	0	30216	
1255	0	30156	
1256	0	30156	
1257	0	30140	
1258	0	30120	
1259	0	30080	
1260	0	30040	
1261	0	30036	
1262	0	30100	
1263	0	30140	
1264	0	30140	
1265	0	30212	
1266	0	30282	
1267	0	30288	
1268	0	30256	
1269	0	30274	
1270	0	30368	
1271	0	30376	
1272	0	30298	
1273	0	30196	
1274	0	30176	
1275	0	30080	
1276	0	30010	
1277	0	29996	
1278	0	29988	
1279	0	29960	
1280	0	29964	
1281	0	29996	
1282	0	30056	
1283	0	30086	
1284	0	30112	
1285	0	30144	
1286	0	30192	
1287	0	30220	
1288	0	30260	
1289	0	30256	
1290	0	30256	
1291	0	30264	
1292	0	30264	
1293	0	30276	
1294	0	30320	
1295	0	30352	
1296	0	30400	
1297	0	30464	
1298	0	30488	
1299	0	30498	
1300	0	30540	
1301	0	30548	
1302	0	30572	
1303	0	30612	
1304	0	30656	
1305	0	30688	
1306	0	30722	
1307	0	30706	
1308	0	30730	
1309	0	30701	
1310	0	30736	
1311	0	30824	
1312	0	30864	
1313	0	30892	
1314	0	30940	
1315	0	30952	
1316	0	30940	
1317	0	30944	
1318	0	30928	
1319	0	30912	
1320	0	30884	
1321	0	30888	
1322	0	30926	
1323	0	30940	
1324	0	30956	
1325	0	31024	
1326	0	31104	
1327	0	31168	
1328	0	31184	
1329	0	31194	
1330	0	31210	
1331	0	31176	
1332	0	31192	
1333	0	31228	
1334	0	31266	
1335	0	31308	
1336	0	31356	
1337	0	31398	
1338	0	31394	
1339	0	31404	
1340	0	31408	
1341	0	31444	
1342	0	31440	
1343	0	31392	
1344	0	31400	
1345	0	31424	
1346	0	31408	
1347	0	31428	
1348	0	31472	
1349	0	31488	
1350	0	31548	
1351	0	31564	
1352	0	31542	
1353	0	31540	
1354	0	31560	
1355	0	31576	
1356	0	31584	
1357	0	31562	
1358	0	31548	
1359	0	31520	
1360	0	31524	
1361	0	31532	
1362	0	31544	
1363	0	31564	
1364	0	31620	
1365	0	31696	
1366	0	31764	
1367	0	31884	
1368	0	31968	
1369	0	32016	
1370	0	32058	
1371	0	32072	
1372	0	32036	
1373	0	32000	
1374	0	32012	
1375	0	32064	
1376	0	32072	
1377	0	32032	
1378	0	31916	
1379	0	31852	
1380	0	31824	
1381	0	31860	
1382	0	31880	
1383	0	31868	
1384	0	31880	
1385	0	31928	
1386	0	31976	
1387	0	31992	
1388	0	31988	
1389	0	31976	
1390	0	31964	
1391	0	31970	
1392	0	31992	
1393	0	32000	
1394	0	31980	
1395	0	31988	
1396	0	31952	
1397	0	31948	
1398	0	31944	
1399	0	31976	
1400	0	31996	
1401	0	31956	
1402	0	31948	
1403	0	31944	
1404	0	31964	
1405	0	31992	
1406	0	32000	
1407	0	32016	
1408	0	32008	
1409	0	31980	
1410	0	32018	
1411	0	32084	
1412	0	32132	
1413	0	32112	
1414	0	32060	
1415	0	32016	
1416	0	32036	
1417	0	32096	
1418	0	32164	
1419	0	32140	
1420	0	32104	
1421	0	32120	
1422	0	32116	
1423	0	32128	
1424	0	32144	
1425	0	32136	
1426	0	32128	
1427	0	32108	
1428	0	32048	
1429	0	31984	
1430	0	31980	
1431	0	32012	
1432	0	32080	
1433	0	32136	
1434	0	32152	
1435	0	32186	
1436	0	32206	
1437	0	32220	
1438	0	32208	
1439	0	32188	
1440	0	32116	
1441	0	32056	
1442	0	32038	
1443	0	32072	
1444	0	32084	
1445	0	32080	
1446	0	32132	
1447	0	32204	
1448	0	32224	
1449	0	32250	
1450	0	32228	
1451	0	32224	
1452	0	32232	
1453	0	32232	
1454	0	32232	
1455	0	32232	
1456	0	32280	
1457	0	32312	
1458	0	32304	
1459	0	32312	
1460	0	32316	
1461	0	32320	
1462	0	32320	
1463	0	32316	
1464	0	32324	
1465	0	32346	
1466	0	32348	
1467	0	32320	
1468	0	32292	
1469	0	32322	
1470	0	32356	
1471	0	32352	
1472	0	32428	
1473	0	32488	
1474	0	32538	
1475	0	32632	
1476	0	32684	
1477	0	32692	
1478	0	32724	
1479	0	32802	
1480	0	32920	
1481	0	33044	
1482	0	33144	
1483	0	33240	
1484	0	33324	
1485	0	33408	
1486	0	33502	
1487	0	33580	
1488	0	33624	
1489	0	33624	
1490	0	33626	
1491	0	33672	
1492	0	33692	
1493	0	33720	
1494	0	33784	
1495	0	33864	
1496	0	33848	
1497	0	33868	
1498	0	33952	
1499	0	34058	
1500	0	34112	
1501	0	34128	
1502	0	34144	
1503	0	34240	
1504	0	34336	
1505	0	34480	
1506	0	34692	
1507	0	34920	
1508	0	35152	
1509	0	35360	
1510	0	35480	
1511	0	35544	
1512	0	35500	
1513	0	35452	
1514	0	35440	
1515	0	35452	
1516	0	35444	
1517	0	35454	
1518	0	35464	
1519	0	35496	
1520	0	35532	
1521	0	35476	
1522	0	35276	
1523	0	35100	
1524	0	34980	
1525	0	34860	
1526	0	34760	
1527	0	34676	
1528	0	34512	
1529	0	34284	
1530	0	34084	
1531	0	33944	
1532	0	33864	
1533	0	33768	
1534	0	33696	
1535	0	33628	
1536	0	33564	
1537	0	33512	
1538	0	33440	
1539	0	33392	
1540	0	33328	
1541	0	33260	
1542	0	33176	
1543	0	33060	
1544	0	32976	
1545	0	32892	
1546	0	32808	
1547	0	32736	
1548	0	32704	
1549	0	32764	
1550	0	32778	
1551	0	32736	
1552	0	32664	
1553	0	32628	
1554	0	32612	
1555	0	32552	
1556	0	32448	
1557	0	32368	
1558	0	32262	
1559	0	32196	
1560	0	32164	
1561	0	32132	
1562	0	32092	
1563	0	32032	
1564	0	31952	
1565	0	31896	
1566	0	31812	
1567	0	31740	
1568	0	31706	
1569	0	31736	
1570	0	31796	
1571	0	31788	
1572	0	31748	
1573	0	31744	
1574	0	31744	
1575	0	31768	
1576	0	31808	
1577	0	31824	
1578	0	31796	
1579	0	31772	
1580	0	31752	
1581	0	31744	
1582	0	31734	
1583	0	31724	
1584	0	31724	
1585	0	31736	
1586	0	31768	
1587	0	31780	
1588	0	31800	
1589	0	31836	
1590	0	31824	
1591	0	31832	
1592	0	31792	
1593	0	31776	
1594	0	31768	
1595	0	31786	
1596	0	31796	
1597	0	31812	
1598	0	31812	
1599	0	31800	
1600	0	31778	
1601	0	31784	
1602	0	31804	
1603	0	31812	
1604	0	31860	
1605	0	31904	
1606	0	31976	
1607	0	32084	
1608	0	32124	
1609	0	32200	
1610	0	32260	
1611	0	32284	
1612	0	32256	
1613	0	32236	
1614	0	32172	
1615	0	32032	
1616	0	31892	
1617	0	31724	
1618	0	31480	
1619	0	31228	
1620	0	31020	
1621	0	30896	
1622	0	30880	
1623	0	30944	
1624	0	31104	
1625	0	31352	
1626	0	31784	
1627	0	32416	
1628	0	33198	
1629	0	34108	
1630	0	35198	
1631	0	36352	
1632	0	37584	
1633	0	39080	
1634	0	40782	
1635	0	42472	
1636	0	44128	
1637	0	45792	
1638	0	47456	
1639	0	49176	
1640	0	50848	
1641	0	52480	
1642	0	54080	
1643	0	55596	
1644	0	56956	
1645	0	58240	
1646	0	59584	
1647	0	61008	
1648	0	62200	
1649	0	62848	
1650	0	63116	
1651	0	63216	
1652	0	63212	
1653	0	61040	
1654	0	58040	
1655	0	54528	
1656	0	50964	
1657	0	47288	
1658	0	43196	
1659	0	38740	
1660	0	34624	
1661	0	31488	
1662	0	29301	
1663	0	27976	
1664	0	27256	
1665	0	26912	
1666	0	26828	
1667	0	26768	
1668	0	26712	
1669	0	26680	
1670	0	26796	
1671	0	27040	
1672	0	27316	
1673	0	27620	
1674	0	27968	
1675	0	28296	
1676	0	28612	
1677	0	28920	
1678	0	29156	
1679	0	29352	
1680	0	29524	
1681	0	29650	
1682	0	29744	
1683	0	29796	
1684	0	29796	
1685	0	29770	
1686	0	29724	
1687	0	29640	
1688	0	29556	
1689	0	29500	
1690	0	29458	
1691	0	29428	
1692	0	29432	
1693	0	29444	
1694	0	29380	
1695	0	29352	
1696	0	29372	
1697	0	29420	
1698	0	29460	
1699	0	29458	
1700	0	29456	
1701	0	29484	
1702	0	29532	
1703	0	29576	
1704	0	29610	
1705	0	29636	
1706	0	29704	
1707	0	29728	
1708	0	29738	
1709	0	29776	
1710	0	29860	
1711	0	29920	
1712	0	29992	
1713	0	30044	
1714	0	30048	
1715	0	30032	
1716	0	30052	
1717	0	30044	
1718	0	30042	
1719	0	30074	
1720	0	30136	
1721	0	30146	
1722	0	30200	
1723	0	30296	
1724	0	30424	
1725	0	30516	
1726	0	30548	
1727	0	30604	
1728	0	30668	
1729	0	30752	
1730	0	30824	
1731	0	30868	
1732	0	30912	
1733	0	30946	
1734	0	30976	
1735	0	31016	
1736	0	31052	
1737	0	31072	
1738	0	31112	
1739	0	31172	
1740	0	31184	
1741	0	31210	
1742	0	31260	
1743	0	31288	
1744	0	31322	
1745	0	31364	
1746	0	31396	
1747	0	31436	
1748	0	31512	
1749	0	31566	
1750	0	31536	
1751	0	31544	
1752	0	31594	
1753	0	31620	
1754	0	31646	
1755	0	31672	
1756	0	31704	
1757	0	31732	
1758	0	31720	
1759	0	31704	
1760	0	31704	
1761	0	31752	
1762	0	31800	
1763	0	31846	
1764	0	31920	
1765	0	31956	
1766	0	31952	
1767	0	31932	
1768	0	31916	
1769	0	31952	
1770	0	32000	
1771	0	32056	
1772	0	32100	
1773	0	32132	
1774	0	32152	
1775	0	32184	
1776	0	32188	
1777	0	32208	
1778	0	32202	
1779	0	32232	
1780	0	32272	
1781	0	32320	
1782	0	32364	
1783	0	32404	
1784	0	32440	
1785	0	32488	
1786	0	32540	
1787	0	32560	
1788	0	32588	
1789	0	32688	
1790	0	32764	
1791	0	32784	
1792	0	32824	
1793	0	32872	
1794	0	32866	
1795	0	32868	
1796	0	32912	
1797	0	32928	
1798	0	32936	
1799	0	32984	
1800	0	33020	
1801	0	33048	
1802	0	33082	
1803	0	33128	
1804	0	33172	
1805	0	33212	
1806	0	33240	
1807	0	33264	
1808	0	33324	
1809	0	33398	
1810	0	33464	
1811	0	33520	
1812	0	33596	
1813	0	33644	
1814	0	33680	
1815	0	33744	
1816	0	33812	
1817	0	33852	
1818	0	33870	
1819	0	33904	
1820	0	33944	
1821	0	33978	
1822	0	34020	
1823	0	34044	
1824	0	34128	
1825	0	34196	
1826	0	34252	
1827	0	34296	
1828	0	34372	
1829	0	34456	
1830	0	34556	
1831	0	34640	
1832	0	34708	
1833	0	34792	
1834	0	34896	
1835	0	34976	
1836	0	35016	
1837	0	35064	
1838	0	35120	
1839	0	35170	
1840	0	35232	
1841	0	35308	
1842	0	35340	
1843	0	35412	
1844	0	35468	
1845	0	35520	
1846	0	35584	
1847	0	35648	
1848	0	35752	
1849	0	35908	
1850	0	36020	
1851	0	36124	
1852	0	36176	
1853	0	36212	
1854	0	36264	
1855	0	36304	
1856	0	36332	
1857	0	36360	
1858	0	36408	
1859	0	36488	
1860	0	36560	
1861	0	36624	
1862	0	36664	
1863	0	36680	
1864	0	36696	
1865	0	36744	
1866	0	36824	
1867	0	36888	
1868	0	36928	
1869	0	36908	
1870	0	36876	
1871	0	36860	
1872	0	36864	
1873	0	36870	
1874	0	36864	
1875	0	36884	
1876	0	36872	
1877	0	36880	
1878	0	36884	
1879	0	36860	
1880	0	36816	
1881	0	36736	
1882	0	36688	
1883	0	36648	
1884	0	36620	
1885	0	36584	
1886	0	36532	
1887	0	36524	
1888	0	36496	
1889	0	36424	
1890	0	36356	
1891	0	36296	
1892	0	36240	
1893	0	36136	
1894	0	36012	
1895	0	35892	
1896	0	35732	
1897	0	35560	
1898	0	35420	
1899	0	35254	
1900	0	35056	
1901	0	34876	
1902	0	34720	
1903	0	34568	
1904	0	34440	
1905	0	34328	
1906	0	34184	
1907	0	34028	
1908	0	33856	
1909	0	33732	
1910	0	33592	
1911	0	33436	
1912	0	33324	
1913	0	33156	
1914	0	32970	
1915	0	32800	
1916	0	32628	
1917	0	32532	
1918	0	32444	
1919	0	32320	
1920	0	32200	
1921	0	32058	
1922	0	31896	
1923	0	31730	
1924	0	31608	
1925	0	31496	
1926	0	31424	
1927	0	31400	
1928	0	31356	
1929	0	31264	
1930	0	31170	
1931	0	31108	
1932	0	31000	
1933	0	30936	
1934	0	30892	
1935	0	30868	
1936	0	30804	
1937	0	30696	
1938	0	30580	
1939	0	30492	
1940	0	30424	
1941	0	30400	
1942	0	30372	
1943	0	30340	
1944	0	30296	
1945	0	30276	
1946	0	30300	
1947	0	30306	
1948	0	30320	
1949	0	30304	
1950	0	30240	
1951	0	30180	
1952	0	30156	
1953	0	30140	
1954	0	30160	
1955	0	30172	
1956	0	30204	
1957	0	30224	
1958	0	30214	
1959	0	30164	
1960	0	30136	
1961	0	30164	
1962	0	30204	
1963	0	30252	
1964	0	30272	
1965	0	30256	
1966	0	30248	
1967	0	30242	
1968	0	30240	
1969	0	30240	
1970	0	30268	
1971	0	30312	
1972	0	30372	
1973	0	30376	
1974	0	30392	
1975	0	30400	
1976	0	30404	
1977	0	30400	
1978	0	30392	
1979	0	30348	
1980	0	30344	
1981	0	30360	
1982	0	30344	
1983	0	30336	
1984	0	30348	
1985	0	30392	
1986	0	30424	
1987	0	30472	
1988	0	30488	
1989	0	30520	
1990	0	30524	
1991	0	30528	
1992	0	30545	
1993	0	30604	
1994	0	30652	
1995	0	30660	
1996	0	30682	
1997	0	30712	
1998	0	30736	
1999	0	30764	
2000	0	30776	
2001	0	30748	
2002	0	30712	
2003	0	30708	
2004	0	30756	
2005	0	30832	
2006	0	30836	
2007	0	30828	
2008	0	30844	
2009	0	30864	
2010	0	30868	
2011	0	30880	
2012	0	30908	
2013	0	30956	
2014	0	30996	
2015	0	31000	
2016	0	31016	
2017	0	31048	
2018	0	31074	
2019	0	31116	
2020	0	31140	
2021	0	31188	
2022	0	31233	
2023	0	31232	
2024	0	31228	
2025	0	31272	
2026	0	31344	
2027	0	31392	
2028	0	31384	
2029	0	31424	
2030	0	31454	
2031	0	31440	
2032	0	31440	
2033	0	31452	
2034	0	31408	
2035	0	31396	
2036	0	31428	
2037	0	31504	
2038	0	31540	
2039	0	31560	
2040	0	31560	
2041	0	31536	
2042	0	31532	
2043	0	31584	
2044	0	31628	
2045	0	31616	
2046	0	31620	
2047	0	31700	
2048	0	31784	
2049	0	31820	
2050	0	31852	
2051	0	31868	
2052	0	31892	
2053	0	31904	
2054	0	31916	
2055	0	31898	
2056	0	31936	
2057	0	31994	
2058	0	32012	
2059	0	32018	
2060	0	31992	
2061	0	31968	
2062	0	31988	
2063	0	31974	
2064	0	31988	
2065	0	32040	
2066	0	32120	
2067	0	32136	
2068	0	32150	
2069	0	32188	
2070	0	32208	
2071	0	32224	
2072	0	32252	
2073	0	32248	
2074	0	32260	
2075	0	32256	
2076	0	32248	
2077	0	32272	
2078	0	32308	
2079	0	32292	
2080	0	32256	
2081	0	32240	
2082	0	32232	
2083	0	32220	
2084	0	32232	
2085	0	32276	
2086	0	32256	
2087	0	32256	
2088	0	32264	
2089	0	32272	
2090	0	32282	
2091	0	32288	
2092	0	32268	
2093	0	32268	
2094	0	32292	
2095	0	32360	
2096	0	32416	
2097	0	32416	
2098	0	32428	
2099	0	32412	
2100	0	32368	
2101	0	32300	
2102	0	32264	
2103	0	32272	
2104	0	32312	
2105	0	32380	
2106	0	32420	
2107	0	32410	
2108	0	32352	
2109	0	32348	
2110	0	32384	
2111	0	32376	
2112	0	32396	
2113	0	32420	
2114	0	32380	
2115	0	32388	
2116	0	32396	
2117	0	32372	
2118	0	32324	
2119	0	32320	
2120	0	32308	
2121	0	32328	
2122	0	32376	
2123	0	32420	
2124	0	32440	
2125	0	32440	
2126	0	32444	
2127	0	32444	
2128	0	32480	
2129	0	32492	
2130	0	32474	
2131	0	32492	
2132	0	32514	
2133	0	32480	
2134	0	32440	
2135	0	32410	
2136	0	32412	
2137	0	32424	
2138	0	32440	
2139	0	32424	
2140	0	32374	
2141	0	32376	
2142	0	32412	
2143	0	32432	
2144	0	32528	
2145	0	32550	
2146	0	32548	
2147	0	32564	
2148	0	32592	
2149	0	32632	
2150	0	32652	
2151	0	32612	
2152	0	32572	
2153	0	32572	
2154	0	32544	
2155	0	32524	
2156	0	32548	
2157	0	32600	
2158	0	32608	
2159	0	32600	
2160	0	32620	
2161	0	32612	
2162	0	32580	
2163	0	32592	
2164	0	32620	
2165	0	32624	
2166	0	32588	
2167	0	32594	
2168	0	32656	
2169	0	32652	
2170	0	32672	
2171	0	32724	
2172	0	32760	
2173	0	32796	
2174	0	32840	
2175	0	32910	
2176	0	32968	
2177	0	32994	
2178	0	33052	
2179	0	33104	
2180	0	33228	
2181	0	33348	
2182	0	33456	
2183	0	33580	
2184	0	33736	
2185	0	33872	
2186	0	33968	
2187	0	33996	
2188	0	34012	
2189	0	33956	
2190	0	33896	
2191	0	33944	
2192	0	34044	
2193	0	34136	
2194	0	34212	
2195	0	34300	
2196	0	34380	
2197	0	34454	
2198	0	34488	
2199	0	34456	
2200	0	34472	
2201	0	34548	
2202	0	34656	
2203	0	34768	
2204	0	34872	
2205	0	34972	
2206	0	35080	
2207	0	35192	
2208	0	35276	
2209	0	35340	
2210	0	35336	
2211	0	35320	
2212	0	35288	
2213	0	35248	
2214	0	35244	
2215	0	35264	
2216	0	35256	
2217	0	35260	
2218	0	35308	
2219	0	35312	
2220	0	35264	
2221	0	35168	
2222	0	35036	
2223	0	34922	
2224	0	34820	
2225	0	34692	
2226	0	34532	
2227	0	34352	
2228	0	34224	
2229	0	34120	
2230	0	34056	
2231	0	33968	
2232	0	33872	
2233	0	33772	
2234	0	33692	
2235	0	33632	
2236	0	33600	
2237	0	33548	
2238	0	33460	
2239	0	33396	
2240	0	33368	
2241	0	33324	
2242	0	33256	
2243	0	33188	
2244	0	33136	
2245	0	33120	
2246	0	33112	
2247	0	33088	
2248	0	33036	
2249	0	32992	
2250	0	32940	
2251	0	32852	
2252	0	32728	
2253	0	32616	
2254	0	32546	
2255	0	32456	
2256	0	32372	
2257	0	32280	
2258	0	32160	
2259	0	32064	
2260	0	32008	
2261	0	31932	
2262	0	31850	
2263	0	31756	
2264	0	31712	
2265	0	31696	
2266	0	31674	
2267	0	31692	
2268	0	31724	
2269	0	31736	
2270	0	31712	
2271	0	31712	
2272	0	31684	
2273	0	31646	
2274	0	31660	
2275	0	31700	
2276	0	31704	
2277	0	31694	
2278	0	31712	
2279	0	31708	
2280	0	31700	
2281	0	31708	
2282	0	31712	
2283	0	31684	
2284	0	31680	
2285	0	31680	
2286	0	31686	
2287	0	31720	
2288	0	31722	
2289	0	31684	
2290	0	31628	
2291	0	31614	
2292	0	31636	
2293	0	31680	
2294	0	31682	
2295	0	31672	
2296	0	31700	
2297	0	31744	
2298	0	31784	
2299	0	31818	
2300	0	31852	
2301	0	31852	
2302	0	31868	
2303	0	31832	
2304	0	31822	
2305	0	31836	
2306	0	31872	
2307	0	31924	
2308	0	31968	
2309	0	31984	
2310	0	32000	
2311	0	31964	
2312	0	31872	
2313	0	31768	
2314	0	31612	
2315	0	31420	
2316	0	31184	
2317	0	30978	
2318	0	30864	
2319	0	30818	
2320	0	30892	
2321	0	31008	
2322	0	31184	
2323	0	31516	
2324	0	32056	
2325	0	32716	
2326	0	33472	
2327	0	34380	
2328	0	35424	
2329	0	36540	
2330	0	37818	
2331	0	39328	
2332	0	41000	
2333	0	42660	
2334	0	44292	
2335	0	45928	
2336	0	47552	
2337	0	49240	
2338	0	50932	
2339	0	52516	
2340	0	53916	
2341	0	55108	
2342	0	56352	
2343	0	57736	
2344	0	59120	
2345	0	60360	
2346	0	61408	
2347	0	61992	
2348	0	62280	
2349	0	62392	
2350	0	62396	
2351	0	60116	
2352	0	57112	
2353	0	53704	
2354	0	50224	
2355	0	46576	
2356	0	42550	
2357	0	38336	
2358	0	34636	
2359	0	32000	
2360	0	30160	
2361	0	28844	
2362	0	27964	
2363	0	27458	
2364	0	27184	
2365	0	27032	
2366	0	27024	
2367	0	27144	
2368	0	27432	
2369	0	27788	
2370	0	28156	
2371	0	28476	
2372	0	28762	
2373	0	29008	
2374	0	29192	
2375	0	29344	
2376	0	29456	
2377	0	29528	
2378	0	29544	
2379	0	29472	
2380	0	29352	
2381	0	29284	
2382	0	29228	
2383	0	29168	
2384	0	29114	
2385	0	29072	
2386	0	29060	
2387	0	28990	
2388	0	28996	
2389	0	28956	
2390	0	28940	
2391	0	28932	
2392	0	28940	
2393	0	28952	
2394	0	28948	
2395	0	28954	
2396	0	28972	
2397	0	28980	
2398	0	29008	
2399	0	29028	
2400	0	29048	
2401	0	29046	
2402	0	29068	
2403	0	29124	
2404	0	29156	
2405	0	29184	
2406	0	29242	
2407	0	29260	
2408	0	29292	
2409	0	29304	
2410	0	29362	
2411	0	29416	
2412	0	29476	
2413	0	29520	
2414	0	29556	
2415	0	29640	
2416	0	29704	
2417	0	29724	
2418	0	29768	
2419	0	29804	
2420	0	29824	
2421	0	29844	
2422	0	29892	
2423	0	29956	
2424	0	29972	
2425	0	29996	
2426	0	30048	
2427	0	30116	
2428	0	30176	
2429	0	30216	
2430	0	30252	
2431	0	30290	
2432	0	30296	
2433	0	30280	
2434	0	30272	
2435	0	30304	
2436	0	30360	
2437	0	30404	
2438	0	30500	
2439	0	30540	
2440	0	30536	
2441	0	30564	
2442	0	30636	
2443	0	30680	
2444	0	30702	
2445	0	30688	
2446	0	30684	
2447	0	30726	
2448	0	30792	
2449	0	30860	
2450	0	30884	
2451	0	30912	
2452	0	30978	
2453	0	31032	
2454	0	31056	
2455	0	31052	
2456	0	31066	
2457	0	31050	
2458	0	31032	
2459	0	31056	
2460	0	31112	
2461	0	31168	
2462	0	31224	
2463	0	31248	
2464	0	31280	
2465	0	31312	
2466	0	31336	
2467	0	31352	
2468	0	31380	
2469	0	31452	
2470	0	31524	
2471	0	31584	
2472	0	31648	
2473	0	31660	
2474	0	31668	
2475	0	31656	
2476	0	31636	
2477	0	31668	
2478	0	31736	
2479	0	31808	
2480	0	31848	
2481	0	31892	
2482	0	31924	
2483	0	31968	
2484	0	31980	
2485	0	31956	
2486	0	31968	
2487	0	31988	
2488	0	31976	
2489	0	31996	
2490	0	32044	
2491	0	32094	
2492	0	32188	
2493	0	32280	
2494	0	32352	
2495	0	32428	
2496	0	32512	
2497	0	32556	
2498	0	32592	
2499	0	32612	
2500	0	32634	
2501	0	32652	
2502	0	32704	
2503	0	32736	
2504	0	32778	
2505	0	32840	
2506	0	32864	
2507	0	32900	
2508	0	32928	
2509	0	32976	
2510	0	33040	
2511	0	33086	
2512	0	33096	
2513	0	33104	
2514	0	33124	
2515	0	33196	
2516	0	33272	
2517	0	33336	
2518	0	33348	
2519	0	33354	
2520	0	33360	
2521	0	33408	
2522	0	33464	
2523	0	33500	
2524	0	33580	
2525	0	33644	
2526	0	33708	
2527	0	33760	
2528	0	33844	
2529	0	33948	
2530	0	34072	
2531	0	34140	
2532	0	34160	
2533	0	34168	
2534	0	34224	
2535	0	34304	
2536	0	34364	
2537	0	34400	
2538	0	34436	
2539	0	34456	
2540	0	34528	
2541	0	34632	
2542	0	34776	
2543	0	34880	
2544	0	34936	
2545	0	34988	
2546	0	35032	
2547	0	35066	
2548	0	35124	
2549	0	35168	
2550	0	35216	
2551	0	35312	
2552	0	35392	
2553	0	35456	
2554	0	35512	
2555	0	35552	
2556	0	35632	
2557	0	35708	
2558	0	35780	
2559	0	35840	
2560	0	35820	
2561	0	35860	
2562	0	35912	
2563	0	35972	
2564	0	36000	
2565	0	36048	
2566	0	36080	
2567	0	36096	
2568	0	36094	
2569	0	36130	
2570	0	36140	
2571	0	36148	
2572	0	36184	
2573	0	36224	
2574	0	36272	
2575	0	36264	
2576	0	36254	
2577	0	36244	
2578	0	36216	
2579	0	36180	
2580	0	36132	
2581	0	36120	
2582	0	36088	
2583	0	36040	
2584	0	35980	
2585	0	35880	
2586	0	35788	
2587	0	35672	
2588	0	35604	
2589	0	35520	
2590	0	35420	
2591	0	35352	
2592	0	35276	
2593	0	35186	
2594	0	35136	
2595	0	35020	
2596	0	34892	
2597	0	34708	
2598	0	34540	
2599	0	34416	
2600	0	34292	
2601	0	34144	
2602	0	34000	
2603	0	33836	
2604	0	33668	
2605	0	33516	
2606	0	33344	
2607	0	33196	
2608	0	33082	
2609	0	32960	
2610	0	32800	
2611	0	32688	
2612	0	32596	
2613	0	32460	
2614	0	32296	
2615	0	32168	
2616	0	32068	
2617	0	31952	
2618	0	31812	
2619	0	31648	
2620	0	31540	
2621	0	31452	
2622	0	31312	
2623	0	31236	
2624	0	31148	
2625	0	31036	
2626	0	30896	
2627	0	30744	
2628	0	30668	
2629	0	30672	
2630	0	30628	
2631	0	30556	
2632	0	30480	
2633	0	30396	
2634	0	30296	
2635	0	30250	
2636	0	30170	
2637	0	30068	
2638	0	29984	
2639	0	29920	
2640	0	29888	
2641	0	29900	
2642	0	29940	
2643	0	29944	
2644	0	29940	
2645	0	29924	
2646	0	29924	
2647	0	29912	
2648	0	29940	
2649	0	29952	
2650	0	29924	
2651	0	29856	
2652	0	29772	
2653	0	29756	
2654	0	29744	
2655	0	29764	
2656	0	29770	
2657	0	29772	
2658	0	29782	
2659	0	29784	
2660	0	29776	
2661	0	29740	
2662	0	29708	
2663	0	29712	
2664	0	29716	
2665	0	29732	
2666	0	29816	
2667	0	29860	
2668	0	29876	
2669	0	29892	
2670	0	29909	
2671	0	29920	
2672	0	29920	
2673	0	29892	
2674	0	29878	
2675	0	29852	
2676	0	29844	
2677	0	29844	
2678	0	29888	
2679	0	29920	
2680	0	29916	
2681	0	29922	
2682	0	29924	
2683	0	29960	
2684	0	30024	
2685	0	30088	
2686	0	30136	
2687	0	30136	
2688	0	30120	
2689	0	30164	
2690	0	30192	
2691	0	30228	
2692	0	30272	
2693	0	30274	
2694	0	30256	
2695	0	30236	
2696	0	30214	
2697	0	30256	
2698	0	30276	
2699	0	30284	
2700	0	30284	
2701	0	30348	
2702	0	30446	
2703	0	30470	
2704	0	30468	
2705	0	30490	
2706	0	30552	
2707	0	30588	
2708	0	30640	
2709	0	30680	
2710	0	30688	
2711	0	30656	
2712	0	30684	
2713	0	30692	
2714	0	30688	
2715	0	30696	
2716	0	30704	
2717	0	30732	
2718	0	30784	
2719	0	30828	
2720	0	30844	
2721	0	30828	
2722	0	30844	
2723	0	30874	
2724	0	30884	
2725	0	30892	
2726	0	30884	
2727	0	30912	
2728	0	30984	
2729	0	31040	
2730	0	31088	
2731	0	31136	
2732	0	31200	
2733	0	31200	
2734	0	31220	
2735	0	31228	
2736	0	31200	
2737	0	31156	
2738	0	31136	
2739	0	31104	
2740	0	31156	
2741	0	31216	
2742	0	31276	
2743	0	31292	
2744	0	31306	
2745	0	31302	
2746	0	31308	
2747	0	31332	
2748	0	31364	
2749	0	31364	
2750	0	31366	
2751	0	31368	
2752	0	31384	
2753	0	31400	
2754	0	31424	
2755	0	31420	
2756	0	31432	
2757	0	31488	
2758	0	31528	
2759	0	31536	
2760	0	31544	
2761	0	31536	
2762	0	31560	
2763	0	31584	
2764	0	31612	
2765	0	31630	
2766	0	31620	
2767	0	31612	
2768	0	31604	
2769	0	31612	
2770	0	31628	
2771	0	31648	
2772	0	31672	
2773	0	31728	
2774	0	31778	
2775	0	31776	
2776	0	31732	
2777	0	31700	
2778	0	31716	
2779	0	31732	
2780	0	31732	
2781	0	31742	
2782	0	31798	
2783	0	31836	
2784	0	31876	
2785	0	31872	
2786	0	31878	
2787	0	31886	
2788	0	31844	
2789	0	31828	
2790	0	31860	
2791	0	31864	
2792	0	31840	
2793	0	31812	
2794	0	31820	
2795	0	31876	
2796	0	31892	
2797	0	31856	
2798	0	31800	
2799	0	31796	
2800	0	31776	
2801	0	31828	
2802	0	31896	
2803	0	31904	
2804	0	31908	
2805	0	31912	
2806	0	31904	
2807	0	31896	
2808	0	31888	
2809	0	31876	
2810	0	31860	
2811	0	31876	
2812	0	31912	
2813	0	31868	
2814	0	31816	
2815	0	31824	
2816	0	31850	
2817	0	31872	
2818	0	31860	
2819	0	31836	
2820	0	31836	
2821	0	31838	
2822	0	31848	
2823	0	31896	
2824	0	31948	
2825	0	31984	
2826	0	31984	
2827	0	32000	
2828	0	31992	
2829	0	31968	
2830	0	31952	
2831	0	31960	
2832	0	31960	
2833	0	31932	
2834	0	31944	
2835	0	31986	
2836	0	31912	
2837	0	31880	
2838	0	31912	
2839	0	31892	
2840	0	31848	
2841	0	31844	
2842	0	31904	
2843	0	31968	
2844	0	31972	
2845	0	31970	
2846	0	31936	
2847	0	31920	
2848	0	31916	
2849	0	31896	
2850	0	31905	
2851	0	31904	
2852	0	31952	
2853	0	32004	
2854	0	32036	
2855	0	32000	
2856	0	31952	
2857	0	31956	
2858	0	31976	
2859	0	32004	
2860	0	32052	
2861	0	32074	
2862	0	32038	
2863	0	32048	
2864	0	32028	
2865	0	32034	
2866	0	32060	
2867	0	32048	
2868	0	32068	
2869	0	32068	
2870	0	32076	
2871	0	32112	
2872	0	32136	
2873	0	32164	
2874	0	32164	
2875	0	32148	
2876	0	32128	
2877	0	32140	
2878	0	32129	
2879	0	32112	
2880	0	32106	
2881	0	32096	
2882	0	32100	
2883	0	32060	
2884	0	32120	
2885	0	32206	
2886	0	32308	
2887	0	32420	
2888	0	32560	
2889	0	32682	
2890	0	32812	
2891	0	32928	
2892	0	33088	
2893	0	33280	
2894	0	33432	
2895	0	33518	
2896	0	33644	
2897	0	33696	
2898	0	33688	
2899	0	33688	
2900	0	33678	
2901	0	33656	
2902	0	33696	
2903	0	33748	
2904	0	33796	
2905	0	33868	
2906	0	33920	
2907	0	33976	
2908	0	34044	
2909	0	34144	
2910	0	34174	
2911	0	34152	
2912	0	34164	
2913	0	34256	
2914	0	34362	
2915	0	34452	
2916	0	34596	
2917	0	34784	
2918	0	34996	
2919	0	35088	
2920	0	35128	
2921	0	35152	
2922	0	35156	
2923	0	35072	
2924	0	34972	
2925	0	34997	
2926	0	35072	
2927	0	35128	
2928	0	35182	
2929	0	35154	
2930	0	35104	
2931	0	34978	
2932	0	34824	
2933	0	34676	
2934	0	34580	
2935	0	34512	
2936	0	34381	
2937	0	34228	
2938	0	34088	
2939	0	33950	
2940	0	33790	
2941	0	33620	
2942	0	33476	
2943	0	33376	
2944	0	33320	
2945	0	33244	
2946	0	33164	
2947	0	33088	
2948	0	33008	
2949	0	32936	
2950	0	32848	
2951	0	32784	
2952	0	32776	
2953	0	32740	
2954	0	32706	
2955	0	32680	
2956	0	32688	
2957	0	32708	
2958	0	32644	
2959	0	32556	
2960	0	32482	
2961	0	32405	
2962	0	32336	
2963	0	32272	
2964	0	32200	
2965	0	32144	
2966	0	32044	
2967	0	31998	
2968	0	31932	
2969	0	31840	
2970	0	31728	
2971	0	31540	
2972	0	31420	
2973	0	31372	
2974	0	31308	
2975	0	31324	
2976	0	31300	
2977	0	31292	
2978	0	31274	
2979	0	31224	
2980	0	31196	
2981	0	31176	
2982	0	31168	
2983	0	31208	
2984	0	31280	
2985	0	31332	
2986	0	31356	
2987	0	31344	
2988	0	31316	
2989	0	31332	
2990	0	31364	
2991	0	31368	
2992	0	31364	
2993	0	31348	
2994	0	31300	
2995	0	31280	
2996	0	31258	
2997	0	31264	
2998	0	31316	
2999	0	31344	
3000	0	31340	
3001	0	31330	
3002	0	31316	
3003	0	31344	
3004	0	31424	
3005	0	31500	
3006	0	31520	
3007	0	31544	
3008	0	31548	
3009	0	31512	
3010	0	31548	
3011	0	31616	
3012	0	31648	
3013	0	31644	
3014	0	31634	
3015	0	31670	
3016	0	31744	
3017	0	31816	
3018	0	31828	
3019	0	31832	
3020	0	31842	
3021	0	31848	
3022	0	31800	
3023	0	31728	
3024	0	31608	
3025	0	31456	
3026	0	31248	
3027	0	31016	
3028	0	30872	
3029	0	30856	
3030	0	30920	
3031	0	31074	
3032	0	31264	
3033	0	31512	
3034	0	31928	
3035	0	32448	
3036	0	33128	
3037	0	33988	
3038	0	34974	
3039	0	36040	
3040	0	37144	
3041	0	38476	
3042	0	40060	
3043	0	41676	
3044	0	43268	
3045	0	44836	
3046	0	46336	
3047	0	47920	
3048	0	49608	
3049	0	51240	
3050	0	52644	
3051	0	53848	
3052	0	55104	
3053	0	56488	
3054	0	57872	
3055	0	59136	
3056	0	60216	
3057	0	61032	
3058	0	61760	
3059	0	62080	
3060	0	61300	
3061	0	59446	
3062	0	56916	
3063	0	53656	
3064	0	50328	
3065	0	46992	
3066	0	43376	
3067	0	39488	
3068	0	35840	
3069	0	33070	
3070	0	31056	
3071	0	29580	
3072	0	28600	
3073	0	27956	
3074	0	27580	
3075	0	27424	
3076	0	27376	
3077	0	27484	
3078	0	27724	
3079	0	28044	
3080	0	28384	
3081	0	28620	
3082	0	28864	
3083	0	29088	
3084	0	29224	
3085	0	29376	
3086	0	29532	
3087	0	29540	
3088	0	29504	
3089	0	29464	
3090	0	29380	
3091	0	29304	
3092	0	29216	
3093	0	29138	
3094	0	29032	
3095	0	28936	
3096	0	28896	
3097	0	28872	
3098	0	28852	
3099	0	28850	
3100	0	28888	
3101	0	28954	
3102	0	28908	
3103	0	28828	
3104	0	28812	
3105	0	28856	
3106	0	28900	
3107	0	28940	
3108	0	28944	
3109	0	28944	
3110	0	28984	
3111	0	29052	
3112	0	29100	
3113	0	29119	
3114	0	29140	
3115	0	29200	
3116	0	29226	
3117	0	29216	
3118	0	29130	
3119	0	29176	
3120	0	29212	
3121	0	29200	
3122	0	29276	
3123	0	29376	
3124	0	29418	
3125	0	29448	
3126	0	29436	
3127	0	29456	
3128	0	29496	
3129	0	29548	
3130	0	29644	
3131	0	29660	
3132	0	29708	
3133	0	29736	
3134	0	29746	
3135	0	29760	
3136	0	29804	
3137	0	29856	
3138	0	29936	
3139	0	30008	
3140	0	30074	
3141	0	30024	
3142	0	30012	
3143	0	30000	
3144	0	30020	
3145	0	30036	
3146	0	30040	
3147	0	30076	
3148	0	30104	
3149	0	30152	
3150	0	30184	
3151	0	30248	
3152	0	30308	
3153	0	30348	
3154	0	30416	
3155	0	30452	
3156	0	30540	
3157	0	30576	
3158	0	30592	
3159	0	30664	
3160	0	30736	
3161	0	30792	
3162	0	30820	
3163	0	30810	
3164	0	30812	
3165	0	30820	
3166	0	30852	
3167	0	30856	
3168	0	30916	
3169	0	31004	
3170	0	31048	
3171	0	31100	
3172	0	31178	
3173	0	31220	
3174	0	31198	
3175	0	31204	
3176	0	31228	
3177	0	31258	
3178	0	31298	
3179	0	31336	
3180	0	31340	
3181	0	31308	
3182	0	31340	
3183	0	31404	
3184	0	31460	
3185	0	31508	
3186	0	31533	
3187	0	31608	
3188	0	31744	
3189	0	31812	
3190	0	31792	
3191	0	31808	
3192	0	31840	
3193	0	31840	
3194	0	31868	
3195	0	31880	
3196	0	31916	
3197	0	31984	
3198	0	32060	
3199	0	32124	
3200	0	32152	
3201	0	32164	
3202	0	32160	
3203	0	32168	
3204	0	32232	
3205	0	32304	
3206	0	32320	
3207	0	32328	
3208	0	32404	
3209	0	32440	
3210	0	32544	
3211	0	32664	
3212	0	32704	
3213	0	32672	
3214	0	32664	
3215	0	32664	
3216	0	32704	
3217	0	32732	
3218	0	32756	
3219	0	32776	
3220	0	32764	
3221	0	32768	
3222	0	32882	
3223	0	32988	
3224	0	33074	
3225	0	33128	
3226	0	33152	
3227	0	33216	
3228	0	33272	
3229	0	33300	
3230	0	33356	
3231	0	33440	
3232	0	33524	
3233	0	33572	
3234	0	33576	
3235	0	33604	
3236	0	33644	
3237	0	33716	
3238	0	33748	
3239	0	33680	
3240	0	33680	
3241	0	33756	
3242	0	33832	
3243	0	33884	
3244	0	33928	
3245	0	34024	
3246	0	34108	
3247	0	34204	
3248	0	34244	
3249	0	34268	
3250	0	34336	
3251	0	34480	
3252	0	34592	
3253	0	34776	
3254	0	34920	
3255	0	34920	
3256	0	34920	
3257	0	34944	
3258	0	34988	
3259	0	35044	
3260	0	35140	
3261	0	35232	
3262	0	35292	
3263	0	35288	
3264	0	35268	
3265	0	35260	
3266	0	35276	
3267	0	35352	
3268	0	35420	
3269	0	35514	
3270	0	35620	
3271	0	35712	
3272	0	35764	
3273	0	35784	
3274	0	35824	
3275	0	35888	
3276	0	35944	
3277	0	35960	
3278	0	36008	
3279	0	36060	
3280	0	36096	
3281	0	36128	
3282	0	36136	
3283	0	36144	
3284	0	36112	
3285	0	36112	
3286	0	36116	
3287	0	36102	
3288	0	36072	
3289	0	36016	
3290	0	35996	
3291	0	35976	
3292	0	35956	
3293	0	35916	
3294	0	35896	
3295	0	35926	
3296	0	35916	
3297	0	35896	
3298	0	35858	
3299	0	35748	
3300	0	35656	
3301	0	35536	
3302	0	35420	
3303	0	35292	
3304	0	35128	
3305	0	35008	
3306	0	34888	
3307	0	34816	
3308	0	34724	
3309	0	34584	
3310	0	34458	
3311	0	34328	
3312	0	34240	
3313	0	34080	
3314	0	33900	
3315	0	33756	
3316	0	33648	
3317	0	33508	
3318	0	33364	
3319	0	33248	
3320	0	33088	
3321	0	32948	
3322	0	32796	
3323	0	32636	
3324	0	32488	
3325	0	32312	
3326	0	32144	
3327	0	32032	
3328	0	31920	
3329	0	31784	
3330	0	31656	
3331	0	31540	
3332	0	31448	
3333	0	31364	
3334	0	31308	
3335	0	31252	
3336	0	31140	
3337	0	30956	
3338	0	30972	
3339	0	30906	
3340	0	30752	
3341	0	30640	
3342	0	30604	
3343	0	30568	
3344	0	30536	
3345	0	30476	
3346	0	30440	
3347	0	30380	
3348	0	30356	
3349	0	30340	
3350	0	30278	
3351	0	30148	
3352	0	30088	
3353	0	30040	
3354	0	30024	
3355	0	30032	
3356	0	29988	
3357	0	29930	
3358	0	29924	
3359	0	29920	
3360	0	29972	
3361	0	30008	
3362	0	30000	
3363	0	29960	
3364	0	29976	
3365	0	30008	
3366	0	30052	
3367	0	30034	
3368	0	29984	
3369	0	29920	
3370	0	29876	
3371	0	29856	
3372	0	29888	
3373	0	29936	
3374	0	30008	
3375	0	30052	
3376	0	30044	
3377	0	30052	
3378	0	30088	
3379	0	30058	
3380	0	30032	
3381	0	30016	
3382	0	30072	
3383	0	30104	
3384	0	30120	
3385	0	30152	
3386	0	30162	
3387	0	30156	
3388	0	30156	
3389	0	30142	
3390	0	30184	
3391	0	30232	
3392	0	30220	
3393	0	30232	
3394	0	30258	
3395	0	30312	
3396	0	30320	
3397	0	30312	
3398	0	30300	
3399	0	30264	
3400	0	30312	
3401	0	30352	
3402	0	30364	
3403	0	30384	
3404	0	30412	
3405	0	30424	
3406	0	30440	
3407	0	30528	
3408	0	30588	
3409	0	30636	
3410	0	30712	
3411	0	30752	
3412	0	30792	
3413	0	30792	
3414	0	30756	
3415	0	30688	
3416	0	30560	
3417	0	30588	
3418	0	30696	
3419	0	30806	
3420	0	30896	
3421	0	30856	
3422	0	30836	
3423	0	30840	
3424	0	30864	
3425	0	30888	
3426	0	30900	
3427	0	30920	
3428	0	30988	
3429	0	31056	
3430	0	31112	
3431	0	31146	
3432	0	31192	
3433	0	31216	
3434	0	31252	
3435	0	31288	
3436	0	31340	
3437	0	31360	
3438	0	31328	
3439	0	31228	
3440	0	31196	
3441	0	31232	
3442	0	31264	
3443	0	31248	
3444	0	31252	
3445	0	31284	
3446	0	31276	
3447	0	31280	
3448	0	31308	
3449	0	31340	
3450	0	31388	
3451	0	31424	
3452	0	31392	
3453	0	31394	
3454	0	31420	
3455	0	31456	
3456	0	31500	
3457	0	31552	
3458	0	31536	
3459	0	31532	
3460	0	31516	
3461	0	31460	
3462	0	31456	
3463	0	31524	
3464	0	31520	
3465	0	31496	
3466	0	31456	
3467	0	31480	
3468	0	31474	
3469	0	31488	
3470	0	31540	
3471	0	31624	
3472	0	31680	
3473	0	31706	
3474	0	31750	
3475	0	31776	
3476	0	31756	
3477	0	31708	
3478	0	31670	
3479	0	31608	
3480	0	31512	
3481	0	31600	
3482	0	31760	
3483	0	31744	
3484	0	31700	
3485	0	31704	
3486	0	31752	
3487	0	31784	
3488	0	31836	
3489	0	31844	
3490	0	31880	
3491	0	31888	
3492	0	31884	
3493	0	31876	
3494	0	31876	
3495	0	31916	
3496	0	31926	
3497	0	31896	
3498	0	31928	
3499	0	32016	
3500	0	32010	
3501	0	31916	
3502	0	31892	
3503	0	31848	
3504	0	31836	
3505	0	31884	
3506	0	31892	
3507	0	31900	
3508	0	31888	
3509	0	31916	
3510	0	31968	
3511	0	31984	
3512	0	31968	
3513	0	31968	
3514	0	31976	
3515	0	31952	
3516	0	31940	
3517	0	32008	
3518	0	31964	
3519	0	31840	
3520	0	31810	
3521	0	31876	
3522	0	31908	
3523	0	31940	
3524	0	32012	
3525	0	32036	
3526	0	32024	
3527	0	32032	
3528	0	32064	
3529	0	32122	
3530	0	32170	
3531	0	32172	
3532	0	32132	
3533	0	32088	
3534	0	32080	
3535	0	32116	
3536	0	32176	
3537	0	32156	
3538	0	32108	
3539	0	32016	
3540	0	31968	
3541	0	31980	
3542	0	31952	
3543	0	31924	
3544	0	31992	
3545	0	32040	
3546	0	32078	
3547	0	32080	
3548	0	32088	
3549	0	32104	
3550	0	32124	
3551	0	32148	
3552	0	32224	
3553	0	32252	
3554	0	32204	
3555	0	32204	
3556	0	32252	
3557	0	32248	
3558	0	32206	
3559	0	32256	
3560	0	32292	
3561	0	32282	
3562	0	32268	
3563	0	32308	
3564	0	32304	
3565	0	32272	
3566	0	32296	
3567	0	32344	
3568	0	32392	
3569	0	32472	
3570	0	32560	
3571	0	32624	
3572	0	32728	
3573	0	32824	
3574	0	32968	
3575	0	33088	
3576	0	33196	
3577	0	33238	
3578	0	33264	
3579	0	33356	
3580	0	33488	
3581	0	33580	
3582	0	33640	
3583	0	33712	
3584	0	33776	
3585	0	33796	
3586	0	33756	
3587	0	33776	
3588	0	33800	
3589	0	33864	
3590	0	33976	
3591	0	34040	
3592	0	34096	
3593	0	34184	
3594	0	34244	
3595	0	34352	
3596	0	34400	
3597	0	34452	
3598	0	34516	
3599	0	34588	
3600	0	34680	
3601	0	34804	
3602	0	34944	
3603	0	35068	
3604	0	35204	
3605	0	35336	
3606	0	35428	
3607	0	35450	
3608	0	35404	
3609	0	35288	
3610	0	35204	
3611	0	35148	
3612	0	35120	
3613	0	35128	
3614	0	35220	
3615	0	35312	
3616	0	35324	
3617	0	35216	
3618	0	35116	
3619	0	34956	
3620	0	34784	
3621	0	34648	
3622	0	34512	
3623	0	34392	
3624	0	34268	
3625	0	34068	
3626	0	33832	
3627	0	33668	
3628	0	33552	
3629	0	33460	
3630	0	33428	
3631	0	33428	
3632	0	33396	
3633	0	33352	
3634	0	33248	
3635	0	33060	
3636	0	33036	
3637	0	33028	
3638	0	32916	
3639	0	32804	
3640	0	32740	
3641	0	32700	
3642	0	32636	
3643	0	32618	
3644	0	32612	
3645	0	32640	
3646	0	32616	
3647	0	32528	
3648	0	32400	
3649	0	32296	
3650	0	32206	
3651	0	32100	
3652	0	32048	
3653	0	31992	
3654	0	31920	
3655	0	31864	
3656	0	31772	
3657	0	31650	
3658	0	31548	
3659	0	31464	
3660	0	31424	
3661	0	31384	
3662	0	31380	
3663	0	31348	
3664	0	31320	
3665	0	31360	
3666	0	31400	
3667	0	31420	
3668	0	31488	
3669	0	31546	
3670	0	31498	
3671	0	31522	
3672	0	31548	
3673	0	31584	
3674	0	31588	
3675	0	31596	
3676	0	31618	
3677	0	31526	
3678	0	31400	
3679	0	31300	
3680	0	31288	
3681	0	31396	
3682	0	31484	
3683	0	31472	
3684	0	31392	
3685	0	31424	
3686	0	31516	
3687	0	31528	
3688	0	31552	
3689	0	31528	
3690	0	31476	
3691	0	31480	
3692	0	31544	
3693	0	31628	
3694	0	31704	
3695	0	31776	
3696	0	31828	
3697	0	31856	
3698	0	31824	
3699	0	31808	
3700	0	31824	
3701	0	31834	
3702	0	31864	
3703	0	31868	
3704	0	31844	
3705	0	31864	
3706	0	31872	
3707	0	31812	
3708	0	31716	
3709	0	31576	
3710	0	31476	
3711	0	31392	
3712	0	31280	
3713	0	31136	
3714	0	31008	
3715	0	30932	
3716	0	30940	
3717	0	31036	
3718	0	31164	
3719	0	31272	
3720	0	31560	
3721	0	32080	
3722	0	32712	
3723	0	33488	
3724	0	34288	
3725	0	35236	
3726	0	36320	
3727	0	37588	
3728	0	39072	
3729	0	40672	
3730	0	42272	
3731	0	43844	
3732	0	45376	
3733	0	46944	
3734	0	48594	
3735	0	50276	
3736	0	51844	
3737	0	53208	
3738	0	54464	
3739	0	55760	
3740	0	57100	
3741	0	58360	
3742	0	59456	
3743	0	60328	
3744	0	61028	
3745	0	61516	
3746	0	61136	
3747	0	59552	
3748	0	57232	
3749	0	54364	
3750	0	51248	
3751	0	48132	
3752	0	44800	
3753	0	41108	
3754	0	37398	
3755	0	34446	
3756	0	32320	
3757	0	30676	
3758	0	29484	
3759	0	28688	
3760	0	28256	
3761	0	27980	
3762	0	27788	
3763	0	27776	
3764	0	27956	
3765	0	28232	
3766	0	28576	
3767	0	28864	
3768	0	29128	
3769	0	29320	
3770	0	29436	
3771	0	29536	
3772	0	29620	
3773	0	29688	
3774	0	29674	
3775	0	29596	
3776	0	29500	
3777	0	29358	
3778	0	29233	
3779	0	29208	
3780	0	29148	
3781	0	29152	
3782	0	29128	
3783	0	29084	
3784	0	29088	
3785	0	29050	
3786	0	29048	
3787	0	29020	
3788	0	28976	
3789	0	29008	
3790	0	29040	
3791	0	29052	
3792	0	29080	
3793	0	29092	
3794	0	29120	
3795	0	29108	
3796	0	29160	
3797	0	29188	
3798	0	29208	
3799	0	29240	
3800	0	29252	
3801	0	29252	
3802	0	29268	
3803	0	29324	
3804	0	29408	
3805	0	29424	
3806	0	29452	
3807	0	29416	
3808	0	29392	
3809	0	29416	
3810	0	29512	
3811	0	29600	
3812	0	29696	
3813	0	29752	
3814	0	29760	
3815	0	29704	
3816	0	29736	
3817	0	29836	
3818	0	29890	
3819	0	29900	
3820	0	29888	
3821	0	29832	
3822	0	29840	
3823	0	29868	
3824	0	29908	
3825	0	29968	
3826	0	30028	
3827	0	30072	
3828	0	30148	
3829	0	30208	
3830	0	30224	
3831	0	30256	
3832	0	30296	
3833	0	30336	
3834	0	30382	
3835	0	30444	
3836	0	30508	
3837	0	30544	
3838	0	30572	
3839	0	30604	
3840	0	30650	
3841	0	30728	
3842	0	30774	
3843	0	30760	
3844	0	30744	
3845	0	30732	
3846	0	30704	
3847	0	30688	
3848	0	30744	
3849	0	30788	
3850	0	30820	
3851	0	30906	
3852	0	30940	
3853	0	30920	
3854	0	30980	
3855	0	31008	
3856	0	31004	
3857	0	31005	
3858	0	31008	
3859	0	31008	
3860	0	31060	
3861	0	31128	
3862	0	31184	
3863	0	31196	
3864	0	31236	
3865	0	31268	
3866	0	31278	
3867	0	31282	
3868	0	31288	
3869	0	31308	
3870	0	31348	
3871	0	31388	
3872	0	31452	
3873	0	31484	
3874	0	31480	
3875	0	31466	
3876	0	31532	
3877	0	31616	
3878	0	31722	
3879	0	31770	
3880	0	31808	
3881	0	31848	
3882	0	31832	
3883	0	31798	
3884	0	31860	
3885	0	31972	
3886	0	32048	
3887	0	32084	
3888	0	32148	
3889	0	32252	
3890	0	32296	
3891	0	32312	
3892	0	32272	
3893	0	32308	
3894	0	32376	
3895	0	32388	
3896	0	32416	
3897	0	32420	
3898	0	32404	
3899	0	32420	
3900	0	32482	
3901	0	32500	
3902	0	32516	
3903	0	32584	
3904	0	32664	
3905	0	32744	
3906	0	32780	
3907	0	32860	
3908	0	32920	
3909	0	32968	
3910	0	33020	
3911	0	33116	
3912	0	33236	
3913	0	33286	
3914	0	33288	
3915	0	33312	
3916	0	33320	
3917	0	33340	
3918	0	33384	
3919	0	33432	
3920	0	33448	
3921	0	33480	
3922	0	33484	
3923	0	33508	
3924	0	33548	
3925	0	33596	
3926	0	33652	
3927	0	33720	
3928	0	33780	
3929	0	33852	
3930	0	33932	
3931	0	34028	
3932	0	34116	
3933	0	34200	
3934	0	34256	
3935	0	34312	
3936	0	34368	
3937	0	34444	
3938	0	34516	
3939	0	34516	
3940	0	34504	
3941	0	34492	
3942	0	34548	
3943	0	34652	
3944	0	34736	
3945	0	34774	
3946	0	34848	
3947	0	34968	
3948	0	35040	
3949	0	35128	
3950	0	35196	
3951	0	35212	
3952	0	35264	
3953	0	35344	
3954	0	35404	
3955	0	35440	
3956	0	35466	
3957	0	35472	
3958	0	35476	
3959	0	35464	
3960	0	35448	
3961	0	35464	
3962	0	35488	
3963	0	35508	
3964	0	35552	
3965	0	35592	
3966	0	35632	
3967	0	35648	
3968	0	35664	
3969	0	35680	
3970	0	35712	
3971	0	35744	
3972	0	35800	
3973	0	35808	
3974	0	35792	
3975	0	35766	
3976	0	35780	
3977	0	35734	
3978	0	35676	
3979	0	35644	
3980	0	35564	
3981	0	35520	
3982	0	35472	
3983	0	35436	
3984	0	35376	
3985	0	35280	
3986	0	35196	
3987	0	35128	
3988	0	35064	
3989	0	34996	
3990	0	34876	
3991	0	34724	
3992	0	34608	
3993	0	34512	
3994	0	34400	
3995	0	34256	
3996	0	34060	
3997	0	33892	
3998	0	33794	
3999	0	33684	
4000	0	33560	
4001	0	33388	
4002	0	33204	
4003	0	33064	
4004	0	32908	
4005	0	32760	
4006	0	32656	
4007	0	32576	
4008	0	32456	
4009	0	32328	
4010	0	32224	
4011	0	32132	
4012	0	32024	
4013	0	31872	
4014	0	31736	
4015	0	31596	
4016	0	31468	
4017	0	31324	
4018	0	31192	
4019	0	31070	
4020	0	30916	
4021	0	30744	
4022	0	30624	
4023	0	30584	
4024	0	30576	
4025	0	30580	
4026	0	30544	
4027	0	30468	
4028	0	30420	
4029	0	30348	
4030	0	30304	
4031	0	30244	
4032	0	30148	
4033	0	30102	
4034	0	30064	
4035	0	30008	
4036	0	29916	
4037	0	29872	
4038	0	29824	
4039	0	29796	
4040	0	29800	
4041	0	29792	
4042	0	29812	
4043	0	29832	
4044	0	29848	
4045	0	29842	
4046	0	29820	
4047	0	29796	
4048	0	29792	
4049	0	29772	
4050	0	29770	
4051	0	29840	
4052	0	29848	
4053	0	29848	
4054	0	29864	
4055	0	29848	
4056	0	29808	
4057	0	29804	
4058	0	29800	
4059	0	29792	
4060	0	29792	
4061	0	29808	
4062	0	29792	
4063	0	29780	
4064	0	29836	
4065	0	29864	
4066	0	29876	
4067	0	29904	
4068	0	29960	
4069	0	30004	
4070	0	30028	
4071	0	30085	
4072	0	30132	
4073	0	30172	
4074	0	30196	
4075	0	30168	
4076	0	30154	
4077	0	30196	
4078	0	30238	
4079	0	30212	
4080	0	30176	
4081	0	30168	
4082	0	30140	
4083	0	30216	
4084	0	30220	
4085	0	30216	
4086	0	30228	
4087	0	30300	
4088	0	30356	
4089	0	30360	
4090	0	30340	
4091	0	30332	
4092	0	30356	
4093	0	30448	
4094	0	30516	
4095	0	30522	
4096	0	30532	
4097	0	30532	
4098	0	30556	
4099	0	30572	
4100	0	30564	
4101	0	30540	
4102	0	30568	
4103	0	30620	
4104	0	30644	
4105	0	30666	
4106	0	30640	
4107	0	30644	
4108	0	30680	
4109	0	30692	
4110	0	30680	
4111	0	30692	
4112	0	30752	
4113	0	30780	
4114	0	30804	
4115	0	30872	
4116	0	30924	
4117	0	30982	
4118	0	30980	
4119	0	31016	
4120	0	31092	
4121	0	31116	
4122	0	31128	
4123	0	31138	
4124	0	31152	
4125	0	31172	
4126	0	31200	
4127	0	31204	
4128	0	31192	
4129	0	31224	
4130	0	31276	
4131	0	31352	
4132	0	31384	
4133	0	31420	
4134	0	31436	
4135	0	31456	
4136	0	31480	
4137	0	31440	
4138	0	31436	
4139	0	31452	
4140	0	31409	
4141	0	31396	
4142	0	31432	
4143	0	31458	
4144	0	31442	
4145	0	31416	
4146	0	31396	
4147	0	31408	
4148	0	31440	
4149	0	31472	
4150	0	31500	
4151	0	31552	
4152	0	31614	
4153	0	31632	
4154	0	31640	
4155	0	31600	
4156	0	31552	
4157	0	31544	
4158	0	31540	
4159	0	31600	
4160	0	31656	
4161	0	31716	
4162	0	31708	
4163	0	31692	
4164	0	31636	
4165	0	31564	
4166	0	31536	
4167	0	31548	
4168	0	31566	
4169	0	31624	
4170	0	31698	
4171	0	31800	
4172	0	31892	
4173	0	31818	
4174	0	31792	
4175	0	31828	
4176	0	31864	
4177	0	31916	
4178	0	31896	
4179	0	31916	
4180	0	31916	
4181	0	31896	
4182	0	31936	
4183	0	31968	
4184	0	31968	
4185	0	31940	
4186	0	31936	
4187	0	31952	
4188	0	31944	
4189	0	31968	
4190	0	31984	
4191	0	32048	
4192	0	32088	
4193	0	32036	
4194	0	32012	
4195	0	32028	
4196	0	32040	
4197	0	32024	
4198	0	32020	
4199	0	32036	
4200	0	32024	
4201	0	31992	
4202	0	31980	
4203	0	31968	
4204	0	31972	
4205	0	32008	
4206	0	32060	
4207	0	32062	
4208	0	32060	
4209	0	32080	
4210	0	32060	
4211	0	32070	
4212	0	32096	
4213	0	32136	
4214	0	32104	
4215	0	32056	
4216	0	32096	
4217	0	32168	
4218	0	32212	
4219	0	32208	
4220	0	32200	
4221	0	32232	
4222	0	32252	
4223	0	32220	
4224	0	32184	
4225	0	32160	
4226	0	32146	
4227	0	32174	
4228	0	32240	
4229	0	32256	
4230	0	32232	
4231	0	32156	
4232	0	32140	
4233	0	32136	
4234	0	32128	
4235	0	32128	
4236	0	32176	
4237	0	32220	
4238	0	32260	
4239	0	32228	
4240	0	32204	
4241	0	32192	
4242	0	32200	
4243	0	32236	
4244	0	32260	
4245	0	32236	
4246	0	32188	
4247	0	32228	
4248	0	32320	
4249	0	32396	
4250	0	32460	
4251	0	32504	
4252	0	32480	
4253	0	32436	
4254	0	32436	
4255	0	32404	
4256	0	32400	
4257	0	32460	
4258	0	32470	
4259	0	32482	
4260	0	32546	
4261	0	32600	
4262	0	32644	
4263	0	32672	
4264	0	32760	
4265	0	32864	
4266	0	32972	
4267	0	33108	
4268	0	33246	
4269	0	33424	
4270	0	33600	
4271	0	33696	
4272	0	33728	
4273	0	33744	
4274	0	33796	
4275	0	33832	
4276	0	33884	
4277	0	33900	
4278	0	33888	
4279	0	33888	
4280	0	33908	
4281	0	33960	
4282	0	34016	
4283	0	34092	
4284	0	34152	
4285	0	34202	
4286	0	34236	
4287	0	34252	
4288	0	34340	
4289	0	34440	
4290	0	34588	
4291	0	34696	
4292	0	34756	
4293	0	34860	
4294	0	34988	
4295	0	35096	
4296	0	35172	
4297	0	35220	
4298	0	35272	
4299	0	35232	
4300	0	35180	
4301	0	35164	
4302	0	35176	
4303	0	35192	
4304	0	35200	
4305	0	35208	
4306	0	35258	
4307	0	35264	
4308	0	35144	
4309	0	35008	
4310	0	34900	
4311	0	34848	
4312	0	34788	
4313	0	34716	
4314	0	34596	
4315	0	34440	
4316	0	34272	
4317	0	34080	
4318	0	33940	
4319	0	33802	
4320	0	33688	
4321	0	33636	
4322	0	33548	
4323	0	33461	
4324	0	33308	
4325	0	33196	
4326	0	33124	
4327	0	33056	
4328	0	32954	
4329	0	32868	
4330	0	32800	
4331	0	32780	
4332	0	32756	
4333	0	32752	
4334	0	32760	
4335	0	32770	
4336	0	32756	
4337	0	32700	
4338	0	32644	
4339	0	32572	
4340	0	32516	
4341	0	32380	
4342	0	32236	
4343	0	32152	
4344	0	32060	
4345	0	31984	
4346	0	31940	
4347	0	31884	
4348	0	31808	
4349	0	31730	
4350	0	31712	
4351	0	31640	
4352	0	31556	
4353	0	31504	
4354	0	31488	
4355	0	31472	
4356	0	31432	
4357	0	31448	
4358	0	31520	
4359	0	31560	
4360	0	31604	
4361	0	31612	
4362	0	31588	
4363	0	31576	
4364	0	31576	
4365	0	31588	
4366	0	31608	
4367	0	31600	
4368	0	31580	
4369	0	31536	
4370	0	31520	
4371	0	31552	
4372	0	31586	
4373	0	31640	
4374	0	31630	
4375	0	31584	
4376	0	31580	
4377	0	31556	
4378	0	31558	
4379	0	31548	
4380	0	31560	
4381	0	31620	
4382	0	31668	
4383	0	31736	
4384	0	31756	
4385	0	31768	
4386	0	31748	
4387	0	31758	
4388	0	31760	
4389	0	31748	
4390	0	31740	
4391	0	31748	
4392	0	31812	
4393	0	31872	
4394	0	31884	
4395	0	31924	
4396	0	31968	
4397	0	31982	
4398	0	31948	
4399	0	31908	
4400	0	31800	
4401	0	31676	
4402	0	31564	
4403	0	31418	
4404	0	31178	
4405	0	30968	
4406	0	30840	
4407	0	30800	
4408	0	30840	
4409	0	30958	
4410	0	31134	
4411	0	31376	
4412	0	31828	
4413	0	32472	
4414	0	33172	
4415	0	34016	
4416	0	35056	
4417	0	36256	
4418	0	37608	
4419	0	39168	
4420	0	40862	
4421	0	42564	
4422	0	44188	
4423	0	45828	
4424	0	47464	
4425	0	49144	
4426	0	50852	
4427	0	52496	
4428	0	53960	
4429	0	55216	
4430	0	56384	
4431	0	57648	
4432	0	59052	
4433	0	60416	
4434	0	61448	
4435	0	62144	
4436	0	62516	
4437	0	62148	
4438	0	60784	
4439	0	58584	
4440	0	55528	
4441	0	52168	
4442	0	48844	
4443	0	45220	
4444	0	41172	
4445	0	37040	
4446	0	33608	
4447	0	31124	
4448	0	29474	
4449	0	28476	
4450	0	27800	
4451	0	27436	
4452	0	27296	
4453	0	27180	
4454	0	27084	
4455	0	27128	
4456	0	27352	
4457	0	27700	
4458	0	28040	
4459	0	28380	
4460	0	28704	
4461	0	29028	
4462	0	29244	
4463	0	29380	
4464	0	29548	
4465	0	29660	
4466	0	29730	
4467	0	29756	
4468	0	29720	
4469	0	29620	
4470	0	29484	
4471	0	29400	
4472	0	29380	
4473	0	29332	
4474	0	29236	
4475	0	29156	
4476	0	29120	
4477	0	29120	
4478	0	29122	
4479	0	29140	
4480	0	29112	
4481	0	29104	
4482	0	29112	
4483	0	29112	
4484	0	29136	
4485	0	29140	
4486	0	29164	
4487	0	29224	
4488	0	29264	
4489	0	29280	
4490	0	29354	
4491	0	29400	
4492	0	29440	
4493	0	29464	
4494	0	29444	
4495	0	29466	
4496	0	29524	
4497	0	29566	
4498	0	29588	
4499	0	29600	
4500	0	29600	
4501	0	29610	
4502	0	29590	
4503	0	29600	
4504	0	29632	
4505	0	29692	
4506	0	29748	
4507	0	29800	
4508	0	29800	
4509	0	29832	
4510	0	29916	
4511	0	29972	
4512	0	30024	
4513	0	30020	
4514	0	30044	
4515	0	30084	
4516	0	30192	
4517	0	30330	
4518	0	30388	
4519	0	30404	
4520	0	30436	
4521	0	30426	
4522	0	30456	
4523	0	30568	
4524	0	30626	
4525	0	30622	
4526	0	30624	
4527	0	30696	
4528	0	30762	
4529	0	30796	
4530	0	30836	
4531	0	30900	
4532	0	30976	
4533	0	31032	
4534	0	31000	
4535	0	30980	
4536	0	30972	
4537	0	30984	
4538	0	30996	
4539	0	31008	
4540	0	31040	
4541	0	31060	
4542	0	31076	
4543	0	31108	
4544	0	31148	
4545	0	31192	
4546	0	31224	
4547	0	31248	
4548	0	31284	
4549	0	31280	
4550	0	31312	
4551	0	31356	
4552	0	31396	
4553	0	31420	
4554	0	31440	
4555	0	31480	
4556	0	31484	
4557	0	31498	
4558	0	31556	
4559	0	31616	
4560	0	31640	
4561	0	31680	
4562	0	31656	
4563	0	31628	
4564	0	31620	
4565	0	31700	
4566	0	31722	
4567	0	31744	
4568	0	31776	
4569	0	31768	
4570	0	31816	
4571	0	31905	
4572	0	31984	
4573	0	32048	
4574	0	32132	
4575	0	32192	
4576	0	32236	
4577	0	32268	
4578	0	32256	
4579	0	32296	
4580	0	32356	
4581	0	32404	
4582	0	32432	
4583	0	32458	
4584	0	32504	
4585	0	32544	
4586	0	32562	
4587	0	32578	
4588	0	32620	
4589	0	32706	
4590	0	32756	
4591	0	32786	
4592	0	32796	
4593	0	32784	
4594	0	32800	
4595	0	32808	
4596	0	32808	
4597	0	32856	
4598	0	32904	
4599	0	32932	
4600	0	32952	
4601	0	33024	
4602	0	33076	
4603	0	33132	
4604	0	33236	
4605	0	33348	
4606	0	33432	
4607	0	33485	
4608	0	33568	
4609	0	33650	
4610	0	33728	
4611	0	33780	
4612	0	33834	
4613	0	33852	
4614	0	33900	
4615	0	34004	
4616	0	34050	
4617	0	34060	
4618	0	34076	
4619	0	34100	
4620	0	34156	
4621	0	34240	
4622	0	34276	
4623	0	34348	
4624	0	34432	
4625	0	34532	
4626	0	34608	
4627	0	34688	
4628	0	34756	
4629	0	34822	
4630	0	34892	
4631	0	34976	
4632	0	35061	
4633	0	35152	
4634	0	35268	
4635	0	35342	
4636	0	35420	
4637	0	35472	
4638	0	35560	
4639	0	35632	
4640	0	35688	
4641	0	35660	
4642	0	35680	
4643	0	35704	
4644	0	35808	
4645	0	35892	
4646	0	35988	
4647	0	36056	
4648	0	36072	
4649	0	36096	
4650	0	36144	
4651	0	36188	
4652	0	36204	
4653	0	36192	
4654	0	36216	
4655	0	36260	
4656	0	36272	
4657	0	36252	
4658	0	36216	
4659	0	36122	
4660	0	36060	
4661	0	36076	
4662	0	36168	
4663	0	36300	
4664	0	36328	
4665	0	36336	
4666	0	36336	
4667	0	36292	
4668	0	36284	
4669	0	36272	
4670	0	36248	
4671	0	36236	
4672	0	36212	
4673	0	36152	
4674	0	36080	
4675	0	36024	
4676	0	35898	
4677	0	35784	
4678	0	35720	
4679	0	35608	
4680	0	35504	
4681	0	35388	
4682	0	35292	
4683	0	35188	
4684	0	35072	
4685	0	34920	
4686	0	34748	
4687	0	34572	
4688	0	34452	
4689	0	34328	
4690	0	34216	
4691	0	34096	
4692	0	33928	
4693	0	33772	
4694	0	33588	
4695	0	33424	
4696	0	33240	
4697	0	33092	
4698	0	32954	
4699	0	32808	
4700	0	32692	
4701	0	32592	
4702	0	32442	
4703	0	32292	
4704	0	32146	
4705	0	32020	
4706	0	31914	
4707	0	31788	
4708	0	31688	
4709	0	31554	
4710	0	31456	
4711	0	31364	
4712	0	31258	
4713	0	31136	
4714	0	31016	
4715	0	30928	
4716	0	30860	
4717	0	30796	
4718	0	30732	
4719	0	30672	
4720	0	30616	
4721	0	30530	
4722	0	30436	
4723	0	30392	
4724	0	30264	
4725	0	30176	
4726	0	30084	
4727	0	30026	
4728	0	29968	
4729	0	29948	
4730	0	29940	
4731	0	29908	
4732	0	29872	
4733	0	29848	
4734	0	29824	
4735	0	29828	
4736	0	29832	
4737	0	29804	
4738	0	29764	
4739	0	29754	
4740	0	29744	
4741	0	29764	
4742	0	29792	
4743	0	29756	
4744	0	29770	
4745	0	29780	
4746	0	29808	
4747	0	29800	
4748	0	29832	
4749	0	29852	
4750	0	29856	
4751	0	29876	
4752	0	29892	
4753	0	29904	
4754	0	29920	
4755	0	29986	
4756	0	30012	
4757	0	29990	
4758	0	29988	
4759	0	30028	
4760	0	30056	
4761	0	30100	
4762	0	30120	
4763	0	30144	
4764	0	30084	
4765	0	30048	
4766	0	30072	
4767	0	30104	
4768	0	30116	
4769	0	30224	
4770	0	30332	
4771	0	30412	
4772	0	30440	
4773	0	30408	
4774	0	30372	
4775	0	30362	
4776	0	30380	
4777	0	30364	
4778	0	30368	
4779	0	30364	
4780	0	30336	
4781	0	30336	
4782	0	30372	
4783	0	30344	
4784	0	30368	
4785	0	30400	
4786	0	30448	
4787	0	30512	
4788	0	30584	
4789	0	30660	
4790	0	30664	
4791	0	30620	
4792	0	30612	
4793	0	30652	
4794	0	30692	
4795	0	30752	
4796	0	30836	
4797	0	30880	
4798	0	30852	
4799	0	30832	
4800	0	30852	
4801	0	30880	
4802	0	30892	
4803	0	30944	
4804	0	30984	
4805	0	31016	
4806	0	31022	
4807	0	31008	
4808	0	30976	
4809	0	30936	
4810	0	30884	
4811	0	30836	
4812	0	30888	
4813	0	30936	
4814	0	30976	
4815	0	30992	
4816	0	30996	
4817	0	31036	
4818	0	31052	
4819	0	31080	
4820	0	31120	
4821	0	31148	
4822	0	31184	
4823	0	31196	
4824	0	31196	
4825	0	31168	
4826	0	31144	
4827	0	31128	
4828	0	31196	
4829	0	31208	
4830	0	31178	
4831	0	31232	
4832	0	31280	
4833	0	31342	
4834	0	31416	
4835	0	31466	
4836	0	31508	
4837	0	31512	
4838	0	31508	
4839	0	31524	
4840	0	31524	
4841	0	31548	
4842	0	31516	
4843	0	31516	
4844	0	31540	
4845	0	31536	
4846	0	31584	
4847	0	31613	
4848	0	31644	
4849	0	31684	
4850	0	31708	
4851	0	31736	
4852	0	31808	
4853	0	31858	
4854	0	31868	
4855	0	31856	
4856	0	31836	
4857	0	31836	
4858	0	31812	
4859	0	31832	
4860	0	31820	
4861	0	31740	
4862	0	31672	
4863	0	31672	
4864	0	31658	
4865	0	31636	
4866	0	31656	
4867	0	31680	
4868	0	31660	
4869	0	31684	
4870	0	31778	
4871	0	31868	
4872	0	31906	
4873	0	31904	
4874	0	31920	
4875	0	31904	
4876	0	31904	
4877	0	31880	
4878	0	31866	
4879	0	31844	
4880	0	31768	
4881	0	31745	
4882	0	31792	
4883	0	31860	
4884	0	31898	
4885	0	31928	
4886	0	31960	
4887	0	32004	
4888	0	32044	
4889	0	32080	
4890	0	32060	
4891	0	32012	
4892	0	32024	
4893	0	32052	
4894	0	32064	
4895	0	32058	
4896	0	32076	
4897	0	32058	
4898	0	32048	
4899	0	32012	
4900	0	31960	
4901	0	31920	
4902	0	31880	
4903	0	31820	
4904	0	31808	
4905	0	31808	
4906	0	31800	
4907	0	31822	
4908	0	31864	
4909	0	31880	
4910	0	31892	
4911	0	31924	
4912	0	31952	
4913	0	32024	
4914	0	32076	
4915	0	32108	
4916	0	32122	
4917	0	32112	
4918	0	32072	
4919	0	32032	
4920	0	32032	
4921	0	32060	
4922	0	32028	
4923	0	32008	
4924	0	32034	
4925	0	32040	
4926	0	32048	
4927	0	32028	
4928	0	32026	
4929	0	32016	
4930	0	32028	
4931	0	32080	
4932	0	32120	
4933	0	32176	
4934	0	32204	
4935	0	32208	
4936	0	32224	
4937	0	32242	
4938	0	32268	
4939	0	32296	
4940	0	32344	
4941	0	32364	
4942	0	32356	
4943	0	32372	
4944	0	32412	
4945	0	32496	
4946	0	32616	
4947	0	32740	
4948	0	32840	
4949	0	32944	
4950	0	33082	
4951	0	33216	
4952	0	33312	
4953	0	33402	
4954	0	33480	
4955	0	33552	
4956	0	33578	
4957	0	33544	
4958	0	33498	
4959	0	33520	
4960	0	33624	
4961	0	33672	
4962	0	33712	
4963	0	33780	
4964	0	33836	
4965	0	33892	
4966	0	33928	
4967	0	33968	
4968	0	34124	
4969	0	34248	
4970	0	34364	
4971	0	34480	
4972	0	34624	
4973	0	34736	
4974	0	34816	
4975	0	34908	
4976	0	34944	
4977	0	34972	
4978	0	34984	
4979	0	34944	
4980	0	34916	
4981	0	34900	
4982	0	34928	
4983	0	35008	
4984	0	35056	
4985	0	35072	
4986	0	35120	
4987	0	35200	
4988	0	35264	
4989	0	35156	
4990	0	34984	
4991	0	34788	
4992	0	34650	
4993	0	34568	
4994	0	34492	
4995	0	34384	
4996	0	34240	
4997	0	34128	
4998	0	34016	
4999	0	33872	
5000	0	33724	
5001	0	33648	
5002	0	33612	
5003	0	33584	
5004	0	33512	
5005	0	33424	
5006	0	33396	
5007	0	33384	
5008	0	33329	
5009	0	33208	
5010	0	33020	
5011	0	32864	
5012	0	32728	
5013	0	32660	
5014	0	32612	
5015	0	32608	
5016	0	32632	
5017	0	32680	
5018	0	32704	
5019	0	32644	
5020	0	32560	
5021	0	32448	
5022	0	32340	
5023	0	32216	
5024	0	32128	
5025	0	32044	
5026	0	31936	
5027	0	31844	
5028	0	31712	
5029	0	31636	
5030	0	31584	
5031	0	31528	
5032	0	31440	
5033	0	31316	
5034	0	31272	
5035	0	31280	
5036	0	31274	
5037	0	31284	
5038	0	31284	
5039	0	31320	
5040	0	31328	
5041	0	31356	
5042	0	31376	
5043	0	31376	
5044	0	31330	
5045	0	31312	
5046	0	31288	
5047	0	31308	
5048	0	31356	
5049	0	31392	
5050	0	31476	
5051	0	31500	
5052	0	31466	
5053	0	31408	
5054	0	31420	
5055	0	31460	
5056	0	31492	
5057	0	31520	
5058	0	31488	
5059	0	31504	
5060	0	31496	
5061	0	31460	
5062	0	31424	
5063	0	31356	
5064	0	31354	
5065	0	31364	
5066	0	31388	
5067	0	31424	
5068	0	31488	
5069	0	31568	
5070	0	31612	
5071	0	31616	
5072	0	31604	
5073	0	31586	
5074	0	31560	
5075	0	31572	
5076	0	31640	
5077	0	31688	
5078	0	31720	
5079	0	31736	
5080	0	31672	
5081	0	31576	
5082	0	31464	
5083	0	31444	
5084	0	31424	
5085	0	31348	
5086	0	31236	
5087	0	31040	
5088	0	30820	
5089	0	30696	
5090	0	30580	
5091	0	30520	
5092	0	30544	
5093	0	30656	
5094	0	30880	
5095	0	31200	
5096	0	31744	
5097	0	32420	
5098	0	33168	
5099	0	34080	
5100	0	35188	
5101	0	36340	
5102	0	37640	
5103	0	39216	
5104	0	40904	
5105	0	42624	
5106	0	44300	
5107	0	45968	
5108	0	47708	
5109	0	49424	
5110	0	51124	
5111	0	52732	
5112	0	54252	
5113	0	55632	
5114	0	56944	
5115	0	58252	
5116	0	59676	
5117	0	61056	
5118	0	62192	
5119	0	62904	
5120	0	63292	
5121	0	62828	
5122	0	61300	
5123	0	59032	
5124	0	55944	
5125	0	52416	
5126	0	48900	
5127	0	45106	
5128	0	40872	
5129	0	36468	
5130	0	32752	
5131	0	30082	
5132	0	28280	
5133	0	27216	
5134	0	26640	
5135	0	26402	
5136	0	26322	
5137	0	26272	
5138	0	26242	
5139	0	26252	
5140	0	26456	
5141	0	26748	
5142	0	27004	
5143	0	27320	
5144	0	27660	
5145	0	28020	
5146	0	28268	
5147	0	28448	
5148	0	28596	
5149	0	28782	
5150	0	28988	
5151	0	29120	
5152	0	29200	
5153	0	29218	
5154	0	29168	
5155	0	29076	
5156	0	28960	
5157	0	28908	
5158	0	28848	
5159	0	28792	
5160	0	28764	
5161	0	28784	
5162	0	28808	
5163	0	28836	
5164	0	28864	
5165	0	28864	
5166	0	28852	
5167	0	28864	
5168	0	28844	
5169	0	28872	
5170	0	28884	
5171	0	28904	
5172	0	28940	
5173	0	28968	
5174	0	29012	
5175	0	29096	
5176	0	29168	
5177	0	29212	
5178	0	29272	
5179	0	29332	
5180	0	29360	
5181	0	29392	
5182	0	29408	
5183	0	29420	
5184	0	29458	
5185	0	29494	
5186	0	29572	
5187	0	29632	
5188	0	29664	
5189	0	29744	
5190	0	29784	
5191	0	29830	
5192	0	29854	
5193	0	29860	
5194	0	29912	
5195	0	29908	
5196	0	29920	
5197	0	29984	
5198	0	30104	
5199	0	30146	
5200	0	30152	
5201	0	30114	
5202	0	30112	
5203	0	30144	
5204	0	30154	
5205	0	30184	
5206	0	30260	
5207	0	30368	
5208	0	30520	
5209	0	30588	
5210	0	30644	
5211	0	30690	
5212	0	30720	
5213	0	30740	
5214	0	30752	
5215	0	30804	
5216	0	30888	
5217	0	30856	
5218	0	30780	
5219	0	30736	
5220	0	30744	
5221	0	30800	
5222	0	30852	
5223	0	30856	
5224	0	30864	
5225	0	30932	
5226	0	30976	
5227	0	31000	
5228	0	31040	
5229	0	31118	
5230	0	31168	
5231	0	31192	
5232	0	31252	
5233	0	31282	
5234	0	31352	
5235	0	31368	
5236	0	31388	
5237	0	31412	
5238	0	31434	
5239	0	31476	
5240	0	31484	
5241	0	31456	
5242	0	31452	
5243	0	31504	
5244	0	31576	
5245	0	31676	
5246	0	31720	
5247	0	31776	
5248	0	31776	
5249	0	31768	
5250	0	31840	
5251	0	31888	
5252	0	31914	
5253	0	31952	
5254	0	32028	
5255	0	32108	
5256	0	32168	
5257	0	32204	
5258	0	32232	
5259	0	32216	
5260	0	32216	
5261	0	32232	
5262	0	32312	
5263	0	32372	
5264	0	32404	
5265	0	32432	
5266	0	32474	
5267	0	32524	
5268	0	32600	
5269	0	32640	
5270	0	32672	
5271	0	32732	
5272	0	32808	
5273	0	32880	
5274	0	32920	
5275	0	32872	
5276	0	32864	
5277	0	32896	
5278	0	32952	
5279	0	33012	
5280	0	33048	
5281	0	33064	
5282	0	33116	
5283	0	33168	
5284	0	33232	
5285	0	33304	
5286	0	33400	
5287	0	33492	
5288	0	33548	
5289	0	33604	
5290	0	33650	
5291	0	33672	
5292	0	33740	
5293	0	33824	
5294	0	33880	
5295	0	33928	
5296	0	33972	
5297	0	34044	
5298	0	34104	
5299	0	34136	
5300	0	34196	
5301	0	34252	
5302	0	34300	
5303	0	34348	
5304	0	34404	
5305	0	34492	
5306	0	34576	
5307	0	34700	
5308	0	34836	
5309	0	34920	
5310	0	34968	
5311	0	35018	
5312	0	35104	
5313	0	35192	
5314	0	35274	
5315	0	35364	
5316	0	35428	
5317	0	35484	
5318	0	35556	
5319	0	35640	
5320	0	35738	
5321	0	35760	
5322	0	35748	
5323	0	35780	
5324	0	35808	
5325	0	35858	
5326	0	35948	
5327	0	36016	
5328	0	36056	
5329	0	36056	
5330	0	36100	
5331	0	36133	
5332	0	36204	
5333	0	36312	
5334	0	36400	
5335	0	36394	
5336	0	36392	
5337	0	36448	
5338	0	36480	
5339	0	36484	
5340	0	36476	
5341	0	36448	
5342	0	36432	
5343	0	36452	
5344	0	36456	
5345	0	36448	
5346	0	36444	
5347	0	36468	
5348	0	36472	
5349	0	36488	
5350	0	36506	
5351	0	36484	
5352	0	36436	
5353	0	36428	
5354	0	36384	
5355	0	36340	
5356	0	36288	
5357	0	36238	
5358	0	36176	
5359	0	36064	
5360	0	35984	
5361	0	35896	
5362	0	35792	
5363	0	35712	
5364	0	35628	
5365	0	35516	
5366	0	35336	
5367	0	35172	
5368	0	35016	
5369	0	34868	
5370	0	34732	
5371	0	34568	
5372	0	34444	
5373	0	34290	
5374	0	34184	
5375	0	34064	
5376	0	33916	
5377	0	33756	
5378	0	33590	
5379	0	33452	
5380	0	33312	
5381	0	33140	
5382	0	32976	
5383	0	32784	
5384	0	32576	
5385	0	32396	
5386	0	32256	
5387	0	32114	
5388	0	31972	
5389	0	31832	
5390	0	31716	
5391	0	31604	
5392	0	31496	
5393	0	31388	
5394	0	31332	
5395	0	31304	
5396	0	31194	
5397	0	31064	
5398	0	30968	
5399	0	30892	
5400	0	30788	
5401	0	30680	
5402	0	30624	
5403	0	30564	
5404	0	30484	
5405	0	30400	
5406	0	30328	
5407	0	30252	
5408	0	30192	
5409	0	30132	
5410	0	30084	
5411	0	30048	
5412	0	30030	
5413	0	30032	
5414	0	30004	
5415	0	29980	
5416	0	29922	
5417	0	29852	
5418	0	29804	
5419	0	29838	
5420	0	29838	
5421	0	29772	
5422	0	29748	
5423	0	29732	
5424	0	29692	
5425	0	29696	
5426	0	29708	
5427	0	29728	
5428	0	29748	
5429	0	29700	
5430	0	29692	
5431	0	29684	
5432	0	29620	
5433	0	29624	
5434	0	29628	
5435	0	29620	
5436	0	29656	
5437	0	29676	
5438	0	29712	
5439	0	29780	
5440	0	29808	
5441	0	29800	
5442	0	29804	
5443	0	29790	
5444	0	29816	
5445	0	29800	
5446	0	29840	
5447	0	29864	
5448	0	29882	
5449	0	29920	
5450	0	29984	
5451	0	30042	
5452	0	30052	
5453	0	30044	
5454	0	30048	
5455	0	30064	
5456	0	30074	
5457	0	30036	
5458	0	29972	
5459	0	29956	
5460	0	29954	
5461	0	29976	
5462	0	29996	
5463	0	29992	
5464	0	30016	
5465	0	30068	
5466	0	30132	
5467	0	30144	
5468	0	30168	
5469	0	30200	
5470	0	30208	
5471	0	30188	
5472	0	30192	
5473	0	30236	
5474	0	30236	
5475	0	30256	
5476	0	30282	
5477	0	30336	
5478	0	30388	
5479	0	30448	
5480	0	30460	
5481	0	30504	
5482	0	30548	
5483	0	30576	
5484	0	30664	
5485	0	30732	
5486	0	30776	
5487	0	30828	
5488	0	30844	
5489	0	30872	
5490	0	30860	
5491	0	30836	
5492	0	30832	
5493	0	30816	
5494	0	30828	
5495	0	30864	
5496	0	30920	
5497	0	30936	
5498	0	30936	
5499	0	30988	
5500	0	31028	
5501	0	31040	
5502	0	31040	
5503	0	31012	
5504	0	31000	
5505	0	31028	
5506	0	31056	
5507	0	31064	
5508	0	31132	
5509	0	31184	
5510	0	31180	
5511	0	31204	
5512	0	31248	
5513	0	31248	
5514	0	31274	
5515	0	31296	
5516	0	31296	
5517	0	31304	
5518	0	31312	
5519	0	31324	
5520	0	31308	
5521	0	31296	
5522	0	31328	
5523	0	31360	
5524	0	31366	
5525	0	31392	
5526	0	31448	
5527	0	31472	
5528	0	31494	
5529	0	31500	
5530	0	31560	
5531	0	31588	
5532	0	31600	
5533	0	31616	
5534	0	31660	
5535	0	31716	
5536	0	31736	
5537	0	31744	
5538	0	31748	
5539	0	31764	
5540	0	31760	
5541	0	31784	
5542	0	31760	
5543	0	31716	
5544	0	31696	
5545	0	31712	
5546	0	31762	
5547	0	31840	
5548	0	31856	
5549	0	31824	
5550	0	31840	
5551	0	31898	
5552	0	31936	
5553	0	32000	
5554	0	32020	
5555	0	32016	
5556	0	32028	
5557	0	32032	
5558	0	32020	
5559	0	31988	
5560	0	31980	
5561	0	31964	
5562	0	31952	
5563	0	31948	
5564	0	31948	
5565	0	31956	
5566	0	31992	
5567	0	32032	
5568	0	32038	
5569	0	32084	
5570	0	32106	
5571	0	32104	
5572	0	32080	
5573	0	32088	
5574	0	32096	
5575	0	32136	
5576	0	32144	
5577	0	32120	
5578	0	32074	
5579	0	32008	
5580	0	32008	
5581	0	31996	
5582	0	32000	
5583	0	31996	
5584	0	31962	
5585	0	31964	
5586	0	31960	
5587	0	31924	
5588	0	31912	
5589	0	31924	
5590	0	31948	
5591	0	31964	
5592	0	32004	
5593	0	32032	
5594	0	32076	
5595	0	32100	
5596	0	32096	
5597	0	32064	
5598	0	32038	
5599	0	32028	
5600	0	31976	
5601	0	32008	
5602	0	31988	
5603	0	32000	
5604	0	32032	
5605	0	32062	
5606	0	32080	
5607	0	32132	
5608	0	32160	
5609	0	32152	
5610	0	32180	
5611	0	32232	
5612	0	32248	
5613	0	32320	
5614	0	32408	
5615	0	32476	
5616	0	32492	
5617	0	32476	
5618	0	32456	
5619	0	32480	
5620	0	32556	
5621	0	32596	
5622	0	32640	
5623	0	32596	
5624	0	32572	
5625	0	32632	
5626	0	32708	
5627	0	32792	
5628	0	32916	
5629	0	33100	
5630	0	33300	
5631	0	33472	
5632	0	33552	
5633	0	33588	
5634	0	33604	
5635	0	33616	
5636	0	33644	
5637	0	33688	
5638	0	33716	
5639	0	33742	
5640	0	33792	
5641	0	33844	
5642	0	33824	
5643	0	33820	
5644	0	33844	
5645	0	33890	
5646	0	33956	
5647	0	34012	
5648	0	34128	
5649	0	34280	
5650	0	34412	
5651	0	34488	
5652	0	34516	
5653	0	34552	
5654	0	34608	
5655	0	34696	
5656	0	34812	
5657	0	34858	
5658	0	34862	
5659	0	34824	
5660	0	34794	
5661	0	34788	
5662	0	34788	
5663	0	34864	
5664	0	34952	
5665	0	35004	
5666	0	35008	
5667	0	34992	
5668	0	34940	
5669	0	34776	
5670	0	34644	
5671	0	34574	
5672	0	34496	
5673	0	34458	
5674	0	34404	
5675	0	34272	
5676	0	34104	
5677	0	33960	
5678	0	33812	
5679	0	33676	
5680	0	33576	
5681	0	33508	
5682	0	33448	
5683	0	33396	
5684	0	33334	
5685	0	33248	
5686	0	33156	
5687	0	33068	
5688	0	33020	
5689	0	32922	
5690	0	32802	
5691	0	32746	
5692	0	32714	
5693	0	32692	
5694	0	32632	
5695	0	32656	
5696	0	32662	
5697	0	32600	
5698	0	32520	
5699	0	32416	
5700	0	32340	
5701	0	32252	
5702	0	32180	
5703	0	32144	
5704	0	32080	
5705	0	31984	
5706	0	31888	
5707	0	31832	
5708	0	31748	
5709	0	31660	
5710	0	31576	
5711	0	31528	
5712	0	31448	
5713	0	31336	
5714	0	31254	
5715	0	31248	
5716	0	31280	
5717	0	31304	
5718	0	31348	
5719	0	31394	
5720	0	31432	
5721	0	31492	
5722	0	31546	
5723	0	31576	
5724	0	31540	
5725	0	31500	
5726	0	31482	
5727	0	31480	
5728	0	31504	
5729	0	31492	
5730	0	31528	
5731	0	31560	
5732	0	31548	
5733	0	31520	
5734	0	31508	
5735	0	31488	
5736	0	31488	
5737	0	31492	
5738	0	31500	
5739	0	31520	
5740	0	31512	
5741	0	31496	
5742	0	31476	
5743	0	31504	
5744	0	31544	
5745	0	31520	
5746	0	31486	
5747	0	31456	
5748	0	31476	
5749	0	31500	
5750	0	31552	
5751	0	31600	
5752	0	31612	
5753	0	31620	
5754	0	31622	
5755	0	31652	
5756	0	31712	
5757	0	31780	
5758	0	31748	
5759	0	31712	
5760	0	31648	
5761	0	31604	
5762	0	31596	
5763	0	31580	
5764	0	31532	
5765	0	31412	
5766	0	31272	
5767	0	31140	
5768	0	30960	
5769	0	30848	
5770	0	30816	
5771	0	30868	
5772	0	30916	
5773	0	31012	
5774	0	31188	
5775	0	31540	
5776	0	32100	
5777	0	32740	
5778	0	33484	
5779	0	34500	
5780	0	35626	
5781	0	36826	
5782	0	38216	
5783	0	39856	
5784	0	41576	
5785	0	43228	
5786	0	44832	
5787	0	46444	
5788	0	48048	
5789	0	49732	
5790	0	51392	
5791	0	52924	
5792	0	54312	
5793	0	55552	
5794	0	56792	
5795	0	58180	
5796	0	59620	
5797	0	60884	
5798	0	61888	
5799	0	62608	
5800	0	63024	
5801	0	62736	
5802	0	61296	
5803	0	58968	
5804	0	55788	
5805	0	52340	
5806	0	48864	
5807	0	45032	
5808	0	40832	
5809	0	36504	
5810	0	32980	
5811	0	30472	
5812	0	28820	
5813	0	27780	
5814	0	27152	
5815	0	26820	
5816	0	26648	
5817	0	26536	
5818	0	26482	
5819	0	26604	
5820	0	26864	
5821	0	27164	
5822	0	27496	
5823	0	27856	
5824	0	28160	
5825	0	28452	
5826	0	28696	
5827	0	28876	
5828	0	29088	
5829	0	29208	
5830	0	29254	
5831	0	29300	
5832	0	29292	
5833	0	29224	
5834	0	29168	
5835	0	29109	
5836	0	29076	
5837	0	29024	
5838	0	28980	
5839	0	28916	
5840	0	28876	
5841	0	28864	
5842	0	28848	
5843	0	28852	
5844	0	28832	
5845	0	28800	
5846	0	28768	
5847	0	28826	
5848	0	28904	
5849	0	28988	
5850	0	29040	
5851	0	29064	
5852	0	29076	
5853	0	29088	
5854	0	29128	
5855	0	29176	
5856	0	29200	
5857	0	29200	
5858	0	29232	
5859	0	29260	
5860	0	29288	
5861	0	29272	
5862	0	29292	
5863	0	29300	
5864	0	29328	
5865	0	29360	
5866	0	29404	
5867	0	29476	
5868	0	29524	
5869	0	29532	
5870	0	29616	
5871	0	29712	
5872	0	29764	
5873	0	29792	
5874	0	29804	
5875	0	29842	
5876	0	29886	
5877	0	29904	
5878	0	29904	
5879	0	29936	
5880	0	29980	
5881	0	30028	
5882	0	30056	
5883	0	30092	
5884	0	30132	
5885	0	30188	
5886	0	30224	
5887	0	30232	
5888	0	30236	
5889	0	30228	
5890	0	30300	
5891	0	30408	
5892	0	30456	
5893	0	30488	
5894	0	30544	
5895	0	30584	
5896	0	30584	
5897	0	30606	
5898	0	30646	
5899	0	30668	
5900	0	30728	
5901	0	30736	
5902	0	30736	
5903	0	30752	
5904	0	30752	
5905	0	30764	
5906	0	30820	
5907	0	30916	
5908	0	30976	
5909	0	30996	
5910	0	31072	
5911	0	31148	
5912	0	31180	
5913	0	31148	
5914	0	31136	
5915	0	31168	
5916	0	31220	
5917	0	31292	
5918	0	31340	
5919	0	31360	
5920	0	31368	
5921	0	31392	
5922	0	31400	
5923	0	31444	
5924	0	31504	
5925	0	31552	
5926	0	31560	
5927	0	31550	
5928	0	31620	
5929	0	31680	
5930	0	31661	
5931	0	31680	
5932	0	31740	
5933	0	31764	
5934	0	31776	
5935	0	31820	
5936	0	31828	
5937	0	31872	
5938	0	31884	
5939	0	31900	
5940	0	31872	
5941	0	31896	
5942	0	31932	
5943	0	32002	
5944	0	32068	
5945	0	32108	
5946	0	32152	
5947	0	32200	
5948	0	32228	
5949	0	32264	
5950	0	32320	
5951	0	32364	
5952	0	32444	
5953	0	32500	
5954	0	32528	
5955	0	32580	
5956	0	32652	
5957	0	32692	
5958	0	32744	
5959	0	32796	
5960	0	32808	
5961	0	32844	
5962	0	32920	
5963	0	32964	
5964	0	32972	
5965	0	33024	
5966	0	33034	
5967	0	33096	
5968	0	33148	
5969	0	33204	
5970	0	33256	
5971	0	33308	
5972	0	33376	
5973	0	33464	
5974	0	33536	
5975	0	33592	
5976	0	33630	
5977	0	33668	
5978	0	33696	
5979	0	33722	
5980	0	33776	
5981	0	33836	
5982	0	33912	
5983	0	33960	
5984	0	34016	
5985	0	34086	
5986	0	34196	
5987	0	34300	
5988	0	34376	
5989	0	34440	
5990	0	34548	
5991	0	34648	
5992	0	34688	
5993	0	34716	
5994	0	34788	
5995	0	34876	
5996	0	34962	
5997	0	35016	
5998	0	35076	
5999	0	35124	
6000	0	35152	
6001	0	35216	
6002	0	35292	
6003	0	35344	
6004	0	35396	
6005	0	35440	
6006	0	35548	
6007	0	35676	
6008	0	35776	
6009	0	35872	
6010	0	35912	
6011	0	35940	
6012	0	35952	
6013	0	35962	
6014	0	35992	
6015	0	36040	
6016	0	36088	
6017	0	36136	
6018	0	36168	
6019	0	36184	
6020	0	36200	
6021	0	36224	
6022	0	36236	
6023	0	36252	
6024	0	36264	
6025	0	36256	
6026	0	36280	
6027	0	36304	
6028	0	36368	
6029	0	36368	
6030	0	36380	
6031	0	36376	
6032	0	36316	
6033	0	36280	
6034	0	36284	
6035	0	36248	
6036	0	36188	
6037	0	36068	
6038	0	36008	
6039	0	35964	
6040	0	35846	
6041	0	35696	
6042	0	35552	
6043	0	35444	
6044	0	35352	
6045	0	35264	
6046	0	35172	
6047	0	35080	
6048	0	34948	
6049	0	34768	
6050	0	34588	
6051	0	34428	
6052	0	34232	
6053	0	34032	
6054	0	33884	
6055	0	33748	
6056	0	33632	
6057	0	33472	
6058	0	33316	
6059	0	33168	
6060	0	33048	
6061	0	32910	
6062	0	32752	
6063	0	32624	
6064	0	32516	
6065	0	32372	
6066	0	32232	
6067	0	32076	
6068	0	31904	
6069	0	31728	
6070	0	31608	
6071	0	31544	
6072	0	31456	
6073	0	31348	
6074	0	31261	
6075	0	31156	
6076	0	31072	
6077	0	30996	
6078	0	30932	
6079	0	30860	
6080	0	30788	
6081	0	30708	
6082	0	30616	
6083	0	30500	
6084	0	30424	
6085	0	30368	
6086	0	30320	
6087	0	30276	
6088	0	30242	
6089	0	30196	
6090	0	30164	
6091	0	30104	
6092	0	30064	
6093	0	30072	
6094	0	30070	
6095	0	30052	
6096	0	29986	
6097	0	29968	
6098	0	29964	
6099	0	29920	
6100	0	29872	
6101	0	29794	
6102	0	29760	
6103	0	29778	
6104	0	29796	
6105	0	29796	
6106	0	29822	
6107	0	29788	
6108	0	29760	
6109	0	29768	
6110	0	29800	
6111	0	29820	
6112	0	29784	
6113	0	29742	
6114	0	29804	
6115	0	29848	
6116	0	29868	
6117	0	29844	
6118	0	29828	
6119	0	29828	
6120	0	29844	
6121	0	29832	
6122	0	29868	
6123	0	29884	
6124	0	29864	
6125	0	29828	
6126	0	29804	
6127	0	29874	
6128	0	29968	
6129	0	30048	
6130	0	30076	
6131	0	30064	
6132	0	30028	
6133	0	30044	
6134	0	30088	
6135	0	30112	
6136	0	30146	
6137	0	30176	
6138	0	30228	
6139	0	30276	
6140	0	30324	
6141	0	30312	
6142	0	30284	
6143	0	30284	
6144	0	30272	
6145	0	30308	
6146	0	30348	
6147	0	30356	
6148	0	30364	
6149	0	30408	
6150	0	30437	
6151	0	30466	
6152	0	30520	
6153	0	30580	
6154	0	30608	
6155	0	30548	
6156	0	30544	
6157	0	30572	
6158	0	30614	
6159	0	30632	
6160	0	30688	
6161	0	30736	
6162	0	30728	
6163	0	30728	
6164	0	30746	
6165	0	30776	
6166	0	30814	
6167	0	30836	
6168	0	30872	
6169	0	30904	
6170	0	30932	
6171	0	30948	
6172	0	30988	
6173	0	31080	
6174	0	31084	
6175	0	31102	
6176	0	31104	
6177	0	31068	
6178	0	31056	
6179	0	31068	
6180	0	31098	
6181	0	31132	
6182	0	31148	
6183	0	31156	
6184	0	31184	
6185	0	31222	
6186	0	31276	
6187	0	31310	
6188	0	31298	
6189	0	31310	
6190	0	31300	
6191	0	31274	
6192	0	31292	
6193	0	31348	
6194	0	31412	
6195	0	31424	
6196	0	31404	
6197	0	31400	
6198	0	31444	
6199	0	31496	
6200	0	31508	
6201	0	31554	
6202	0	31584	
6203	0	31580	
6204	0	31576	
6205	0	31596	
6206	0	31604	
6207	0	31644	
6208	0	31648	
6209	0	31608	
6210	0	31624	
6211	0	31632	
6212	0	31674	
6213	0	31720	
6214	0	31756	
6215	0	31784	
6216	0	31760	
6217	0	31765	
6218	0	31784	
6219	0	31768	
6220	0	31748	
6221	0	31722	
6222	0	31700	
6223	0	31662	
6224	0	31668	
6225	0	31696	
6226	0	31728	
6227	0	31744	
6228	0	31786	
6229	0	31796	
6230	0	31796	
6231	0	31840	
6232	0	31888	
6233	0	31920	
6234	0	31952	
6235	0	31960	
6236	0	31956	
6237	0	31970	
6238	0	31964	
6239	0	31944	
6240	0	31948	
6241	0	31992	
6242	0	31996	
6243	0	32028	
6244	0	32034	
6245	0	32040	
6246	0	32016	
6247	0	31980	
6248	0	31984	
6249	0	31988	
6250	0	32042	
6251	0	32040	
6252	0	31996	
6253	0	31988	
6254	0	32000	
6255	0	32004	
6256	0	32012	
6257	0	32028	
6258	0	32032	
6259	0	32080	
6260	0	32106	
6261	0	32096	
6262	0	32084	
6263	0	32060	
6264	0	32064	
6265	0	32024	
6266	0	32002	
6267	0	32004	
6268	0	31992	
6269	0	31992	
6270	0	31996	
6271	0	31996	
6272	0	32012	
6273	0	32016	
6274	0	32016	
6275	0	31994	
6276	0	31980	
6277	0	32012	
6278	0	32024	
6279	0	32024	
6280	0	32082	
6281	0	32132	
6282	0	32124	
6283	0	32096	
6284	0	32088	
6285	0	32128	
6286	0	32152	
6287	0	32168	
6288	0	32202	
6289	0	32204	
6290	0	32192	
6291	0	32240	
6292	0	32280	
6293	0	32268	
6294	0	32228	
6295	0	32270	
6296	0	32288	
6297	0	32296	
6298	0	32288	
6299	0	32280	
6300	0	32242	
6301	0	32212	
6302	0	32192	
6303	0	32232	
6304	0	32280	
6305	0	32304	
6306	0	32288	
6307	0	32325	
6308	0	32384	
6309	0	32444	
6310	0	32480	
6311	0	32506	
6312	0	32576	
6313	0	32612	
6314	0	32664	
6315	0	32708	
6316	0	32744	
6317	0	32776	
6318	0	32816	
6319	0	32932	
6320	0	33048	
6321	0	33236	
6322	0	33468	
6323	0	33626	
6324	0	33712	
6325	0	33740	
6326	0	33752	
6327	0	33760	
6328	0	33804	
6329	0	33848	
6330	0	33916	
6331	0	33988	
6332	0	34048	
6333	0	34096	
6334	0	34112	
6335	0	34156	
6336	0	34192	
6337	0	34208	
6338	0	34228	
6339	0	34284	
6340	0	34352	
6341	0	34462	
6342	0	34554	
6343	0	34624	
6344	0	34708	
6345	0	34746	
6346	0	34840	
6347	0	34992	
6348	0	35136	
6349	0	35180	
6350	0	35162	
6351	0	35120	
6352	0	35068	
6353	0	35064	
6354	0	35128	
6355	0	35152	
6356	0	35140	
6357	0	35136	
6358	0	35132	
6359	0	35152	
6360	0	35140	
6361	0	35032	
6362	0	34860	
6363	0	34686	
6364	0	34580	
6365	0	34540	
6366	0	34448	
6367	0	34328	
6368	0	34156	
6369	0	33988	
6370	0	33848	
6371	0	33788	
6372	0	33704	
6373	0	33604	
6374	0	33560	
6375	0	33544	
6376	0	33436	
6377	0	33312	
6378	0	33208	
6379	0	33120	
6380	0	33038	
6381	0	32960	
6382	0	32910	
6383	0	32852	
6384	0	32756	
6385	0	32744	
6386	0	32704	
6387	0	32644	
6388	0	32644	
6389	0	32644	
6390	0	32620	
6391	0	32568	
6392	0	32490	
6393	0	32392	
6394	0	32296	
6395	0	32212	
6396	0	32132	
6397	0	32072	
6398	0	32040	
6399	0	31992	
6400	0	31952	
6401	0	31908	
6402	0	31884	
6403	0	31824	
6404	0	31716	
6405	0	31592	
6406	0	31506	
6407	0	31500	
6408	0	31468	
6409	0	31470	
6410	0	31494	
6411	0	31512	
6412	0	31572	
6413	0	31584	
6414	0	31584	
6415	0	31588	
6416	0	31592	
6417	0	31576	
6418	0	31564	
6419	0	31572	
6420	0	31568	
6421	0	31522	
6422	0	31476	
6423	0	31456	
6424	0	31416	
6425	0	31396	
6426	0	31400	
6427	0	31420	
6428	0	31412	
6429	0	31402	
6430	0	31388	
6431	0	31388	
6432	0	31376	
6433	0	31384	
6434	0	31413	
6435	0	31436	
6436	0	31472	
6437	0	31472	
6438	0	31524	
6439	0	31620	
6440	0	31674	
6441	0	31676	
6442	0	31720	
6443	0	31788	
6444	0	31860	
6445	0	31872	
6446	0	31876	
6447	0	31852	
6448	0	31848	
6449	0	31848	
6450	0	31836	
6451	0	31800	
6452	0	31804	
6453	0	31800	
6454	0	31726	
6455	0	31612	
6456	0	31508	
6457	0	31388	
6458	0	31232	
6459	0	31046	
6460	0	30892	
6461	0	30812	
6462	0	30844	
6463	0	30924	
6464	0	31068	
6465	0	31300	
6466	0	31724	
6467	0	32280	
6468	0	32948	
6469	0	33728	
6470	0	34660	
6471	0	35740	
6472	0	36916	
6473	0	38254	
6474	0	39796	
6475	0	41452	
6476	0	43048	
6477	0	44660	
6478	0	46248	
6479	0	47900	
6480	0	49604	
6481	0	51280	
6482	0	52768	
6483	0	53984	
6484	0	55204	
6485	0	56564	
6486	0	58072	
6487	0	59416	
6488	0	60568	
6489	0	61496	
6490	0	62256	
6491	0	62840	
6492	0	62471	
6493	0	60872	
6494	0	58468	
6495	0	55284	
6496	0	51842	
6497	0	48416	
6498	0	44682	
6499	0	40632	
6500	0	36640	
6501	0	33520	
6502	0	31292	
6503	0	29672	
6504	0	28613	
6505	0	27916	
6506	0	27492	
6507	0	27272	
6508	0	27212	
6509	0	27260	
6510	0	27484	
6511	0	27832	
6512	0	28144	
6513	0	28432	
6514	0	28752	
6515	0	29058	
6516	0	29272	
6517	0	29472	
6518	0	29600	
6519	0	29616	
6520	0	29576	
6521	0	29528	
6522	0	29480	
6523	0	29428	
6524	0	29346	
6525	0	29256	
6526	0	29176	
6527	0	29088	
6528	0	29028	
6529	0	29052	
6530	0	29004	
6531	0	28948	
6532	0	28964	
6533	0	29020	
6534	0	29016	
6535	0	29024	
6536	0	29024	
6537	0	29018	
6538	0	28992	
6539	0	28988	
6540	0	29056	
6541	0	29124	
6542	0	29126	
6543	0	29164	
6544	0	29208	
6545	0	29228	
6546	0	29250	
6547	0	29224	
6548	0	29184	
6549	0	29188	
6550	0	29224	
6551	0	29304	
6552	0	29354	
6553	0	29388	
6554	0	29406	
6555	0	29420	
6556	0	29464	
6557	0	29524	
6558	0	29610	
6559	0	29668	
6560	0	29724	
6561	0	29752	
6562	0	29770	
6563	0	29804	
6564	0	29850	
6565	0	29938	
6566	0	30032	
6567	0	30060	
6568	0	30064	
6569	0	30060	
6570	0	30084	
6571	0	30144	
6572	0	30184	
6573	0	30200	
6574	0	30264	
6575	0	30344	
6576	0	30400	
6577	0	30424	
6578	0	30468	
6579	0	30524	
6580	0	30588	
6581	0	30616	
6582	0	30604	
6583	0	30580	
6584	0	30544	
6585	0	30528	
6586	0	30568	
6587	0	30624	
6588	0	30688	
6589	0	30756	
6590	0	30852	
6591	0	30908	
6592	0	30948	
6593	0	30952	
6594	0	30988	
6595	0	31052	
6596	0	31096	
6597	0	31132	
6598	0	31166	
6599	0	31200	
6600	0	31204	
6601	0	31228	
6602	0	31234	
6603	0	31272	
6604	0	31304	
6605	0	31312	
6606	0	31320	
6607	0	31308	
6608	0	31352	
6609	0	31436	
6610	0	31502	
6611	0	31544	
6612	0	31596	
6613	0	31676	
6614	0	31722	
6615	0	31728	
6616	0	31720	
6617	0	31796	
6618	0	31840	
6619	0	31858	
6620	0	31856	
6621	0	31860	
6622	0	31884	
6623	0	31928	
6624	0	31972	
6625	0	31980	
6626	0	31984	
6627	0	32028	
6628	0	32124	
6629	0	32212	
6630	0	32256	
6631	0	32260	
6632	0	32280	
6633	0	32316	
6634	0	32360	
6635	0	32384	
6636	0	32392	
6637	0	32416	
6638	0	32440	
6639	0	32500	
6640	0	32588	
6641	0	32648	
6642	0	32654	
6643	0	32696	
6644	0	32740	
6645	0	32800	
6646	0	32828	
6647	0	32846	
6648	0	32858	
6649	0	32844	
6650	0	32908	
6651	0	32962	
6652	0	33036	
6653	0	33072	
6654	0	33108	
6655	0	33172	
6656	0	33210	
6657	0	33232	
6658	0	33248	
6659	0	33284	
6660	0	33320	
6661	0	33362	
6662	0	33448	
6663	0	33518	
6664	0	33540	
6665	0	33600	
6666	0	33652	
6667	0	33712	
6668	0	33816	
6669	0	33924	
6670	0	33992	
6671	0	34044	
6672	0	34080	
6673	0	34176	
6674	0	34244	
6675	0	34352	
6676	0	34420	
6677	0	34456	
6678	0	34520	
6679	0	34616	
6680	0	34676	
6681	0	34708	
6682	0	34744	
6683	0	34788	
6684	0	34840	
6685	0	34884	
6686	0	34952	
6687	0	35012	
6688	0	35096	
6689	0	35220	
6690	0	35316	
6691	0	35420	
6692	0	35520	
6693	0	35624	
6694	0	35700	
6695	0	35744	
6696	0	35748	
6697	0	35732	
6698	0	35760	
6699	0	35824	
6700	0	35908	
6701	0	35988	
6702	0	36036	
6703	0	36040	
6704	0	36068	
6705	0	36128	
6706	0	36152	
6707	0	36176	
6708	0	36188	
6709	0	36218	
6710	0	36224	
6711	0	36256	
6712	0	36292	
6713	0	36312	
6714	0	36346	
6715	0	36370	
6716	0	36368	
6717	0	36356	
6718	0	36320	
6719	0	36304	
6720	0	36264	
6721	0	36252	
6722	0	36256	
6723	0	36248	
6724	0	36244	
6725	0	36236	
6726	0	36172	
6727	0	36120	
6728	0	36036	
6729	0	35972	
6730	0	35880	
6731	0	35752	
6732	0	35664	
6733	0	35618	
6734	0	35564	
6735	0	35480	
6736	0	35364	
6737	0	35224	
6738	0	35080	
6739	0	34946	
6740	0	34796	
6741	0	34680	
6742	0	34572	
6743	0	34432	
6744	0	34288	
6745	0	34140	
6746	0	33984	
6747	0	33820	
6748	0	33672	
6749	0	33560	
6750	0	33400	
6751	0	33248	
6752	0	33076	
6753	0	32944	
6754	0	32840	
6755	0	32720	
6756	0	32588	
6757	0	32481	
6758	0	32368	
6759	0	32176	
6760	0	32016	
6761	0	31888	
6762	0	31744	
6763	0	31616	
6764	0	31524	
6765	0	31452	
6766	0	31360	
6767	0	31252	
6768	0	31132	
6769	0	31068	
6770	0	31004	
6771	0	30896	
6772	0	30860	
6773	0	30804	
6774	0	30704	
6775	0	30592	
6776	0	30524	
6777	0	30492	
6778	0	30416	
6779	0	30364	
6780	0	30340	
6781	0	30312	
6782	0	30264	
6783	0	30226	
6784	0	30208	
6785	0	30148	
6786	0	30108	
6787	0	30084	
6788	0	30034	
6789	0	30028	
6790	0	30036	
6791	0	29996	
6792	0	30008	
6793	0	29984	
6794	0	29920	
6795	0	29901	
6796	0	29930	
6797	0	29968	
6798	0	29980	
6799	0	30024	
6800	0	30048	
6801	0	30034	
6802	0	30024	
6803	0	29952	
6804	0	29934	
6805	0	29924	
6806	0	29966	
6807	0	29992	
6808	0	30020	
6809	0	30068	
6810	0	30104	
6811	0	30124	
6812	0	30120	
6813	0	30092	
6814	0	30128	
6815	0	30124	
6816	0	30104	
6817	0	30128	
6818	0	30178	
6819	0	30212	
6820	0	30192	
6821	0	30172	
6822	0	30140	
6823	0	30044	
6824	0	30036	
6825	0	30088	
6826	0	30164	
6827	0	30256	
6828	0	30300	
6829	0	30308	
6830	0	30348	
6831	0	30408	
6832	0	30484	
6833	0	30556	
6834	0	30596	
6835	0	30616	
6836	0	30576	
6837	0	30628	
6838	0	30650	
6839	0	30616	
6840	0	30592	
6841	0	30612	
6842	0	30676	
6843	0	30716	
6844	0	30760	
6845	0	30740	
6846	0	30716	
6847	0	30708	
6848	0	30760	
6849	0	30784	
6850	0	30768	
6851	0	30748	
6852	0	30788	
6853	0	30828	
6854	0	30896	
6855	0	30944	
6856	0	30960	
6857	0	30964	
6858	0	30992	
6859	0	31018	
6860	0	31040	
6861	0	31048	
6862	0	31024	
6863	0	31040	
6864	0	31072	
6865	0	31128	
6866	0	31116	
6867	0	31142	
6868	0	31152	
6869	0	31150	
6870	0	31148	
6871	0	31192	
6872	0	31252	
6873	0	31300	
6874	0	31312	
6875	0	31372	
6876	0	31444	
6877	0	31476	
6878	0	31456	
6879	0	31448	
6880	0	31536	
6881	0	31544	
6882	0	31508	
6883	0	31472	
6884	0	31456	
6885	0	31460	
6886	0	31508	
6887	0	31552	
6888	0	31544	
6889	0	31544	
6890	0	31540	
6891	0	31552	
6892	0	31608	
6893	0	31652	
6894	0	31668	
6895	0	31664	
6896	0	31692	
6897	0	31736	
6898	0	31732	
6899	0	31728	
6900	0	31768	
6901	0	31748	
6902	0	31706	
6903	0	31740	
6904	0	31832	
6905	0	31876	
6906	0	31888	
6907	0	31884	
6908	0	31876	
6909	0	31882	
6910	0	31900	
6911	0	31926	
6912	0	31938	
6913	0	31920	
6914	0	31904	
6915	0	31840	
6916	0	31764	
6917	0	31732	
6918	0	31776	
6919	0	31820	
6920	0	31840	
6921	0	31832	
6922	0	31848	
6923	0	31876	
6924	0	31906	
6925	0	31968	
6926	0	32032	
6927	0	32080	
6928	0	32124	
6929	0	32108	
6930	0	32030	
6931	0	31938	
6932	0	31964	
6933	0	32008	
6934	0	32052	
6935	0	32024	
6936	0	32032	
6937	0	32016	
6938	0	32000	
6939	0	31998	
6940	0	32016	
6941	0	32030	
6942	0	32012	
6943	0	32012	
6944	0	31992	
6945	0	31984	
6946	0	32026	
6947	0	32064	
6948	0	32056	
6949	0	31996	
6950	0	31956	
6951	0	31994	
6952	0	32008	
6953	0	31988	
6954	0	32032	
6955	0	32082	
6956	0	32118	
6957	0	32124	
6958	0	32108	
6959	0	32108	
6960	0	32058	
6961	0	32036	
6962	0	32024	
6963	0	32036	
6964	0	32008	
6965	0	32012	
6966	0	32080	
6967	0	32112	
6968	0	32128	
6969	0	32192	
6970	0	32212	
6971	0	32264	
6972	0	32356	
6973	0	32388	
6974	0	32404	
6975	0	32444	
6976	0	32528	
6977	0	32608	
6978	0	32693	
6979	0	32774	
6980	0	32848	
6981	0	32930	
6982	0	33072	
6983	0	33224	
6984	0	33392	
6985	0	33500	
6986	0	33624	
6987	0	33672	
6988	0	33688	
6989	0	33736	
6990	0	33816	
6991	0	33902	
6992	0	33992	
6993	0	34040	
6994	0	34040	
6995	0	34064	
6996	0	34080	
6997	0	34052	
6998	0	34104	
6999	0	34232	
7000	0	34316	
7001	0	34380	
7002	0	34464	
7003	0	34560	
7004	0	34652	
7005	0	34728	
7006	0	34792	
7007	0	34820	
7008	0	34852	
7009	0	34928	
7010	0	35072	
7011	0	35160	
7012	0	35144	
7013	0	35128	
7014	0	35164	
7015	0	35232	
7016	0	35244	
7017	0	35188	
7018	0	35144	
7019	0	35200	
7020	0	35212	
7021	0	35172	
7022	0	35072	
7023	0	34880	
7024	0	34788	
7025	0	34704	
7026	0	34596	
7027	0	34506	
7028	0	34382	
7029	0	34264	
7030	0	34136	
7031	0	34024	
7032	0	33912	
7033	0	33780	
7034	0	33656	
7035	0	33624	
7036	0	33556	
7037	0	33472	
7038	0	33360	
7039	0	33264	
7040	0	33220	
7041	0	33148	
7042	0	33056	
7043	0	32940	
7044	0	32812	
7045	0	32756	
7046	0	32712	
7047	0	32648	
7048	0	32560	
7049	0	32484	
7050	0	32464	
7051	0	32460	
7052	0	32416	
7053	0	32296	
7054	0	32164	
7055	0	32020	
7056	0	31876	
7057	0	31760	
7058	0	31656	
7059	0	31608	
7060	0	31556	
7061	0	31476	
7062	0	31404	
7063	0	31348	
7064	0	31260	
7065	0	31216	
7066	0	31228	
7067	0	31228	
7068	0	31236	
7069	0	31228	
7070	0	31212	
7071	0	31212	
7072	0	31200	
7073	0	31216	
7074	0	31256	
7075	0	31316	
7076	0	31328	
7077	0	31308	
7078	0	31304	
7079	0	31288	
7080	0	31316	
7081	0	31332	
7082	0	31336	
7083	0	31292	
7084	0	31296	
7085	0	31298	
7086	0	31288	
7087	0	31260	
7088	0	31264	
7089	0	31268	
7090	0	31272	
7091	0	31328	
7092	0	31412	
7093	0	31456	
7094	0	31464	
7095	0	31444	
7096	0	31416	
7097	0	31416	
7098	0	31428	
7099	0	31428	
7100	0	31380	
7101	0	31376	
7102	0	31424	
7103	0	31448	
7104	0	31472	
7105	0	31528	
7106	0	31576	
7107	0	31616	
7108	0	31620	
7109	0	31668	
7110	0	31712	
7111	0	31764	
7112	0	31784	
7113	0	31772	
7114	0	31756	
7115	0	31716	
7116	0	31688	
7117	0	31598	
7118	0	31488	
7119	0	31356	
7120	0	31184	
7121	0	31034	
7122	0	30854	
7123	0	30744	
7124	0	30716	
7125	0	30768	
7126	0	30896	
7127	0	31108	
7128	0	31428	
7129	0	32004	
7130	0	32690	
7131	0	33456	
7132	0	34344	
7133	0	35340	
7134	0	36456	
7135	0	37756	
7136	0	39288	
7137	0	40908	
7138	0	42480	
7139	0	44056	
7140	0	45664	
7141	0	47264	
7142	0	48992	
7143	0	50752	
7144	0	52348	
7145	0	53708	
7146	0	54964	
7147	0	56288	
7148	0	57752	
7149	0	59136	
7150	0	60328	
7151	0	61308	
7152	0	62048	
7153	0	62632	
7154	0	62452	
7155	0	61112	
7156	0	58888	
7157	0	55860	
7158	0	52424	
7159	0	49024	
7160	0	45412	
7161	0	41460	
7162	0	37480	
7163	0	34228	
7164	0	31860	
7165	0	30124	
7166	0	28952	
7167	0	28184	
7168	0	27728	
7169	0	27532	
7170	0	27450	
7171	0	27444	
7172	0	27618	
7173	0	27936	
7174	0	28296	
7175	0	28608	
7176	0	28864	
7177	0	29072	
7178	0	29216	
7179	0	29328	
7180	0	29408	
7181	0	29506	
7182	0	29520	
7183	0	29509	
7184	0	29456	
7185	0	29352	
7186	0	29252	
7187	0	29164	
7188	0	29116	
7189	0	29088	
7190	0	29016	
7191	0	28952	
7192	0	28888	
7193	0	28864	
7194	0	28892	
7195	0	28904	
7196	0	28864	
7197	0	28876	
7198	0	28896	
7199	0	28916	
7200	0	28936	
7201	0	28964	
7202	0	29016	
7203	0	29032	
7204	0	29048	
7205	0	29090	
7206	0	29136	
7207	0	29148	
7208	0	29120	
7209	0	29144	
7210	0	29168	
7211	0	29216	
7212	0	29258	
7213	0	29320	
7214	0	29376	
7215	0	29400	
7216	0	29412	
7217	0	29436	
7218	0	29496	
7219	0	29568	
7220	0	29640	
7221	0	29676	
7222	0	29700	
7223	0	29716	
7224	0	29732	
7225	0	29754	
7226	0	29768	
7227	0	29844	
7228	0	29920	
7229	0	30000	
7230	0	30076	
7231	0	30116	
7232	0	30140	
7233	0	30174	
7234	0	30242	
7235	0	30264	
7236	0	30248	
7237	0	30268	
7238	0	30288	
7239	0	30348	
7240	0	30370	
7241	0	30408	
7242	0	30472	
7243	0	30564	
7244	0	30600	
7245	0	30576	
7246	0	30600	
7247	0	30648	
7248	0	30696	
7249	0	30760	
7250	0	30812	
7251	0	30874	
7252	0	30952	
7253	0	30976	
7254	0	30988	
7255	0	31020	
7256	0	31056	
7257	0	31064	
7258	0	31084	
7259	0	31136	
7260	0	31184	
7261	0	31244	
7262	0	31296	
7263	0	31300	
7264	0	31316	
7265	0	31380	
7266	0	31432	
7267	0	31468	
7268	0	31480	
7269	0	31484	
7270	0	31552	
7271	0	31580	
7272	0	31648	
7273	0	31692	
7274	0	31708	
7275	0	31720	
7276	0	31716	
7277	0	31760	
7278	0	31848	
7279	0	31912	
7280	0	31956	
7281	0	31968	
7282	0	31984	
7283	0	32012	
7284	0	32008	
7285	0	32032	
7286	0	32124	
7287	0	32136	
7288	0	32176	
7289	0	32208	
7290	0	32240	
7291	0	32276	
7292	0	32320	
7293	0	32400	
7294	0	32488	
7295	0	32536	
7296	0	32560	
7297	0	32600	
7298	0	32644	
7299	0	32640	
7300	0	32656	
7301	0	32672	
7302	0	32704	
7303	0	32736	
7304	0	32788	
7305	0	32888	
7306	0	32952	
7307	0	32984	
7308	0	32988	
7309	0	33000	
7310	0	33040	
7311	0	33092	
7312	0	33120	
7313	0	33160	
7314	0	33200	
7315	0	33268	
7316	0	33320	
7317	0	33332	
7318	0	33380	
7319	0	33428	
7320	0	33484	
7321	0	33544	
7322	0	33608	
7323	0	33664	
7324	0	33684	
7325	0	33720	
7326	0	33792	
7327	0	33836	
7328	0	33824	
7329	0	33824	
7330	0	33868	
7331	0	33960	
7332	0	34048	
7333	0	34160	
7334	0	34248	
7335	0	34352	
7336	0	34396	
7337	0	34436	
7338	0	34492	
7339	0	34576	
7340	0	34648	
7341	0	34692	
7342	0	34732	
7343	0	34776	
7344	0	34860	
7345	0	34940	
7346	0	34980	
7347	0	35056	
7348	0	35124	
7349	0	35196	
7350	0	35280	
7351	0	35334	
7352	0	35360	
7353	0	35428	
7354	0	35496	
7355	0	35572	
7356	0	35672	
7357	0	35752	
7358	0	35776	
7359	0	35808	
7360	0	35840	
7361	0	35888	
7362	0	35920	
7363	0	35936	
7364	0	35964	
7365	0	36004	
7366	0	36060	
7367	0	36096	
7368	0	36124	
7369	0	36184	
7370	0	36256	
7371	0	36324	
7372	0	36388	
7373	0	36448	
7374	0	36496	
7375	0	36512	
7376	0	36520	
7377	0	36516	
7378	0	36496	
7379	0	36496	
7380	0	36480	
7381	0	36484	
7382	0	36488	
7383	0	36452	
7384	0	36492	
7385	0	36482	
7386	0	36404	
7387	0	36312	
7388	0	36248	
7389	0	36184	
7390	0	36152	
7391	0	36100	
7392	0	36004	
7393	0	35896	
7394	0	35768	
7395	0	35672	
7396	0	35556	
7397	0	35436	
7398	0	35328	
7399	0	35196	
7400	0	35056	
7401	0	34922	
7402	0	34780	
7403	0	34620	
7404	0	34488	
7405	0	34388	
7406	0	34284	
7407	0	34128	
7408	0	34032	
7409	0	33912	
7410	0	33772	
7411	0	33622	
7412	0	33492	
7413	0	33356	
7414	0	33204	
7415	0	33036	
7416	0	32884	
7417	0	32740	
7418	0	32584	
7419	0	32422	
7420	0	32260	
7421	0	32144	
7422	0	32028	
7423	0	31904	
7424	0	31760	
7425	0	31616	
7426	0	31492	
7427	0	31388	
7428	0	31288	
7429	0	31204	
7430	0	31128	
7431	0	31008	
7432	0	30946	
7433	0	30900	
7434	0	30844	
7435	0	30804	
7436	0	30740	
7437	0	30728	
7438	0	30656	
7439	0	30608	
7440	0	30536	
7441	0	30464	
7442	0	30360	
7443	0	30272	
7444	0	30224	
7445	0	30188	
7446	0	30164	
7447	0	30180	
7448	0	30200	
7449	0	30184	
7450	0	30196	
7451	0	30208	
7452	0	30188	
7453	0	30154	
7454	0	30112	
7455	0	30096	
7456	0	30100	
7457	0	30064	
7458	0	30016	
7459	0	30028	
7460	0	30044	
7461	0	30048	
7462	0	30024	
7463	0	30016	
7464	0	30036	
7465	0	30044	
7466	0	30036	
7467	0	30068	
7468	0	30116	
7469	0	30132	
7470	0	30160	
7471	0	30204	
7472	0	30242	
7473	0	30320	
7474	0	30344	
7475	0	30340	
7476	0	30324	
7477	0	30360	
7478	0	30372	
7479	0	30360	
7480	0	30364	
7481	0	30352	
7482	0	30360	
7483	0	30360	
7484	0	30369	
7485	0	30394	
7486	0	30432	
7487	0	30436	
7488	0	30468	
7489	0	30504	
7490	0	30524	
7491	0	30496	
7492	0	30450	
7493	0	30438	
7494	0	30486	
7495	0	30528	
7496	0	30584	
7497	0	30644	
7498	0	30672	
7499	0	30690	
7500	0	30698	
7501	0	30712	
7502	0	30744	
7503	0	30744	
7504	0	30754	
7505	0	30748	
7506	0	30768	
7507	0	30816	
7508	0	30880	
7509	0	30912	
7510	0	30956	
7511	0	31000	
7512	0	31052	
7513	0	31112	
7514	0	31158	
7515	0	31208	
7516	0	31232	
7517	0	31264	
7518	0	31292	
7519	0	31334	
7520	0	31310	
7521	0	31256	
7522	0	31224	
7523	0	31248	
7524	0	31264	
7525	0	31310	
7526	0	31338	
7527	0	31344	
7528	0	31340	
7529	0	31396	
7530	0	31408	
7531	0	31380	
7532	0	31380	
7533	0	31412	
7534	0	31430	
7535	0	31464	
7536	0	31504	
7537	0	31544	
7538	0	31576	
7539	0	31592	
7540	0	31644	
7541	0	31696	
7542	0	31736	
7543	0	31728	
7544	0	31716	
7545	0	31724	
7546	0	31716	
7547	0	31712	
7548	0	31684	
7549	0	31680	
7550	0	31732	
7551	0	31776	
7552	0	31824	
7553	0	31852	
7554	0	31856	
7555	0	31804	
7556	0	31778	
7557	0	31756	
7558	0	31752	
7559	0	31776	
7560	0	31784	
7561	0	31820	
7562	0	31896	
7563	0	31936	
7564	0	31960	
7565	0	31976	
7566	0	32000	
7567	0	32034	
7568	0	32048	
7569	0	32058	
7570	0	32076	
7571	0	32096	
7572	0	32112	
7573	0	32128	
7574	0	32140	
7575	0	32156	
7576	0	32160	
7577	0	32156	
7578	0	32162	
7579	0	32164	
7580	0	32184	
7581	0	32176	
7582	0	32152	
7583	0	32148	
7584	0	32136	
7585	0	32076	
7586	0	32048	
7587	0	32032	
7588	0	32008	
7589	0	32028	
7590	0	32028	
7591	0	32066	
7592	0	32128	
7593	0	32154	
7594	0	32140	
7595	0	32064	
7596	0	32024	
7597	0	32032	
7598	0	32076	
7599	0	32144	
7600	0	32200	
7601	0	32248	
7602	0	32260	
7603	0	32252	
7604	0	32266	
7605	0	32284	
7606	0	32298	
7607	0	32296	
7608	0	32320	
7609	0	32354	
7610	0	32436	
7611	0	32528	
7612	0	32604	
7613	0	32676	
7614	0	32748	
7615	0	32808	
7616	0	32860	
7617	0	32884	
7618	0	32936	
7619	0	33052	
7620	0	33184	
7621	0	33324	
7622	0	33440	
7623	0	33552	
7624	0	33636	
7625	0	33740	
7626	0	33846	
7627	0	33896	
7628	0	33909	
7629	0	33964	
7630	0	34024	
7631	0	34060	
7632	0	34100	
7633	0	34172	
7634	0	34216	
7635	0	34244	
7636	0	34280	
7637	0	34330	
7638	0	34368	
7639	0	34456	
7640	0	34568	
7641	0	34702	
7642	0	34828	
7643	0	34944	
7644	0	35044	
7645	0	35136	
7646	0	35212	
7647	0	35266	
7648	0	35324	
7649	0	35368	
7650	0	35408	
7651	0	35404	
7652	0	35412	
7653	0	35432	
7654	0	35432	
7655	0	35448	
7656	0	35472	
7657	0	35488	
7658	0	35472	
7659	0	35424	
7660	0	35356	
7661	0	35200	
7662	0	35040	
7663	0	34852	
7664	0	34680	
7665	0	34564	
7666	0	34512	
7667	0	34492	
7668	0	34404	
7669	0	34304	
7670	0	34188	
7671	0	34088	
7672	0	33960	
7673	0	33848	
7674	0	33780	
7675	0	33776	
7676	0	33736	
7677	0	33676	
7678	0	33564	
7679	0	33432	
7680	0	33320	
7681	0	33196	
7682	0	33092	
7683	0	32988	
7684	0	32924	
7685	0	32917	
7686	0	32912	
7687	0	32860	
7688	0	32832	
7689	0	32796	
7690	0	32736	
7691	0	32704	
7692	0	32624	
7693	0	32504	
7694	0	32396	
7695	0	32288	
7696	0	32232	
7697	0	32188	
7698	0	32080	
7699	0	31928	
7700	0	31796	
7701	0	31672	
7702	0	31526	
7703	0	31428	
7704	0	31360	
7705	0	31288	
7706	0	31264	
7707	0	31296	
7708	0	31340	
7709	0	31380	
7710	0	31380	
7711	0	31332	
7712	0	31332	
7713	0	31368	
7714	0	31420	
7715	0	31424	
7716	0	31434	
7717	0	31456	
7718	0	31468	
7719	0	31452	
7720	0	31472	
7721	0	31440	
7722	0	31394	
7723	0	31360	
7724	0	31356	
7725	0	31358	
7726	0	31352	
7727	0	31356	
7728	0	31372	
7729	0	31360	
7730	0	31384	
7731	0	31424	
7732	0	31460	
7733	0	31480	
7734	0	31516	
7735	0	31548	
7736	0	31544	
7737	0	31536	
7738	0	31532	
7739	0	31524	
7740	0	31516	
7741	0	31548	
7742	0	31584	
7743	0	31604	
7744	0	31604	
7745	0	31584	
7746	0	31572	
7747	0	31596	
7748	0	31588	
7749	0	31586	
7750	0	31620	
7751	0	31660	
7752	0	31680	
7753	0	31676	
7754	0	31648	
7755	0	31580	
7756	0	31504	
7757	0	31408	
7758	0	31204	
7759	0	30992	
7760	0	30802	
7761	0	30698	
7762	0	30709	
7763	0	30796	
7764	0	30900	
7765	0	31056	
7766	0	31328	
7767	0	31840	
7768	0	32488	
7769	0	33248	
7770	0	34116	
7771	0	35100	
7772	0	36188	
7773	0	37442	
7774	0	38928	
7775	0	40524	
7776	0	42108	
7777	0	43640	
7778	0	45208	
7779	0	46816	
7780	0	48512	
7781	0	50232	
7782	0	51840	
7783	0	53224	
7784	0	54496	
7785	0	55856	
7786	0	57228	
7787	0	58572	
7788	0	59788	
7789	0	60784	
7790	0	61492	
7791	0	62048	
7792	0	61920	
7793	0	60600	
7794	0	58400	
7795	0	55452	
7796	0	52104	
7797	0	48780	
7798	0	45280	
7799	0	41420	
7800	0	37420	
7801	0	34032	
7802	0	31580	
7803	0	29776	
7804	0	28524	
7805	0	27728	
7806	0	27280	
7807	0	27090	
7808	0	27024	
7809	0	27108	
7810	0	27380	
7811	0	27704	
7812	0	28028	
7813	0	28268	
7814	0	28476	
7815	0	28728	
7816	0	28924	
7817	0	29056	
7818	0	29120	
7819	0	29202	
7820	0	29272	
7821	0	29260	
7822	0	29202	
7823	0	29120	
7824	0	29120	
7825	0	29064	
7826	0	28992	
7827	0	28948	
7828	0	28888	
7829	0	28840	
7830	0	28800	
7831	0	28732	
7832	0	28696	
7833	0	28740	
7834	0	28756	
7835	0	28760	
7836	0	28804	
7837	0	28864	
7838	0	28920	
7839	0	28928	
7840	0	28968	
7841	0	29016	
7842	0	29008	
7843	0	28992	
7844	0	28992	
7845	0	28984	
7846	0	28956	
7847	0	29000	
7848	0	29008	
7849	0	28984	
7850	0	28960	
7851	0	28976	
7852	0	29056	
7853	0	29089	
7854	0	29072	
7855	0	29136	
7856	0	29220	
7857	0	29288	
7858	0	29384	
7859	0	29404	
7860	0	29368	
7861	0	29348	
7862	0	29384	
7863	0	29412	
7864	0	29472	
7865	0	29520	
7866	0	29548	
7867	0	29640	
7868	0	29722	
7869	0	29752	
7870	0	29744	
7871	0	29768	
7872	0	29852	
7873	0	29908	
7874	0	29946	
7875	0	30004	
7876	0	30038	
7877	0	30108	
7878	0	30204	
7879	0	30248	
7880	0	30240	
7881	0	30268	
7882	0	30272	
7883	0	30292	
7884	0	30280	
7885	0	30272	
7886	0	30292	
7887	0	30304	
7888	0	30344	
7889	0	30408	
7890	0	30440	
7891	0	30478	
7892	0	30552	
7893	0	30608	
7894	0	30680	
7895	0	30712	
7896	0	30748	
7897	0	30748	
7898	0	30769	
7899	0	30808	
7900	0	30862	
7901	0	30896	
7902	0	30944	
7903	0	30988	
7904	0	31004	
7905	0	31018	
7906	0	31048	
7907	0	31060	
7908	0	31036	
7909	0	31024	
7910	0	31032	
7911	0	31114	
7912	0	31176	
7913	0	31196	
7914	0	31224	
7915	0	31258	
7916	0	31292	
7917	0	31336	
7918	0	31368	
7919	0	31396	
7920	0	31440	
7921	0	31456	
7922	0	31480	
7923	0	31568	
7924	0	31660	
7925	0	31676	
7926	0	31716	
7927	0	31812	
7928	0	31860	
7929	0	31892	
7930	0	31936	
7931	0	31956	
7932	0	31980	
7933	0	32012	
7934	0	32048	
7935	0	32116	
7936	0	32176	
7937	0	32216	
7938	0	32240	
7939	0	32252	
7940	0	32276	
7941	0	32312	
7942	0	32316	
7943	0	32380	
7944	0	32440	
7945	0	32484	
7946	0	32584	
7947	0	32636	
7948	0	32658	
7949	0	32708	
7950	0	32788	
7951	0	32848	
7952	0	32868	
7953	0	32928	
7954	0	32960	
7955	0	32988	
7956	0	33044	
7957	0	33090	
7958	0	33120	
7959	0	33136	
7960	0	33192	
7961	0	33290	
7962	0	33360	
7963	0	33400	
7964	0	33392	
7965	0	33404	
7966	0	33472	
7967	0	33532	
7968	0	33600	
7969	0	33688	
7970	0	33764	
7971	0	33832	
7972	0	33892	
7973	0	33892	
7974	0	33916	
7975	0	33896	
7976	0	33956	
7977	0	34056	
7978	0	34172	
7979	0	34270	
7980	0	34324	
7981	0	34400	
7982	0	34450	
7983	0	34492	
7984	0	34532	
7985	0	34608	
7986	0	34736	
7987	0	34836	
7988	0	34852	
7989	0	34924	
7990	0	35008	
7991	0	35060	
7992	0	35152	
7993	0	35248	
7994	0	35268	
7995	0	35312	
7996	0	35376	
7997	0	35416	
7998	0	35456	
7999	0	35508	
8000	0	35564	
8001	0	35616	
8002	0	35624	
8003	0	35642	
8004	0	35672	
8005	0	35706	
8006	0	35744	
8007	0	35796	
8008	0	35872	
8009	0	35908	
8010	0	35920	
8011	0	35984	
8012	0	36048	
8013	0	36072	
8014	0	36048	
8015	0	36076	
8016	0	36180	
8017	0	36244	
8018	0	36256	
8019	0	36268	
8020	0	36264	
8021	0	36206	
8022	0	36148	
8023	0	36088	
8024	0	36052	
8025	0	35964	
8026	0	35888	
8027	0	35812	
8028	0	35768	
8029	0	35704	
8030	0	35604	
8031	0	35512	
8032	0	35432	
8033	0	35304	
8034	0	35172	
8035	0	35084	
8036	0	35016	
8037	0	34940	
8038	0	34824	
8039	0	34688	
8040	0	34538	
8041	0	34404	
8042	0	34274	
8043	0	34140	
8044	0	34000	
8045	0	33848	
8046	0	33684	
8047	0	33524	
8048	0	33352	
8049	0	33156	
8050	0	33032	
8051	0	32916	
8052	0	32816	
8053	0	32712	
8054	0	32636	
8055	0	32552	
8056	0	32440	
8057	0	32312	
8058	0	32176	
8059	0	32010	
8060	0	31840	
8061	0	31704	
8062	0	31556	
8063	0	31450	
8064	0	31340	
8065	0	31256	
8066	0	31104	
8067	0	31000	
8068	0	30940	
8069	0	30870	
8070	0	30800	
8071	0	30700	
8072	0	30612	
8073	0	30536	
8074	0	30484	
8075	0	30424	
8076	0	30352	
8077	0	30234	
8078	0	30140	
8079	0	30084	
8080	0	30076	
8081	0	30076	
8082	0	30048	
8083	0	30004	
8084	0	30004	
8085	0	30028	
8086	0	30084	
8087	0	30124	
8088	0	30176	
8089	0	30104	
8090	0	30002	
8091	0	30004	
8092	0	29932	
8093	0	29844	
8094	0	29812	
8095	0	29829	
8096	0	29868	
8097	0	29896	
8098	0	29912	
8099	0	29888	
8100	0	29900	
8101	0	29892	
8102	0	29928	
8103	0	29960	
8104	0	30012	
8105	0	30084	
8106	0	30128	
8107	0	30112	
8108	0	30076	
8109	0	30052	
8110	0	30052	
8111	0	30016	
8112	0	29972	
8113	0	29976	
8114	0	30008	
8115	0	30004	
8116	0	30016	
8117	0	30092	
8118	0	30180	
8119	0	30194	
8120	0	30177	
8121	0	30120	
8122	0	30116	
8123	0	30188	
8124	0	30228	
8125	0	30272	
8126	0	30328	
8127	0	30372	
8128	0	30416	
8129	0	30444	
8130	0	30464	
8131	0	30474	
8132	0	30464	
8133	0	30448	
8134	0	30456	
8135	0	30476	
8136	0	30492	
8137	0	30468	
8138	0	30484	
8139	0	30516	
8140	0	30552	
8141	0	30572	
8142	0	30608	
8143	0	30644	
8144	0	30640	
8145	0	30696	
8146	0	30788	
8147	0	30844	
8148	0	30876	
8149	0	30856	
8150	0	30860	
8151	0	30844	
8152	0	30896	
8153	0	30924	
8154	0	30896	
8155	0	30881	
8156	0	30874	
8157	0	30884	
8158	0	30912	
8159	0	30972	
8160	0	30976	
8161	0	31024	
8162	0	31092	
8163	0	31112	
8164	0	31118	
8165	0	31100	
8166	0	31108	
8167	0	31124	
8168	0	31208	
8169	0	31296	
8170	0	31300	
8171	0	31228	
8172	0	31236	
8173	0	31280	
8174	0	31296	
8175	0	31292	
8176	0	31344	
8177	0	31328	
8178	0	31312	
8179	0	31320	
8180	0	31306	
8181	0	31240	
8182	0	31168	
8183	0	31122	
8184	0	31140	
8185	0	31220	
8186	0	31276	
8187	0	31376	
8188	0	31472	
8189	0	31540	
8190	0	31548	
8191	0	31604	
8192	0	31648	
8193	0	31668	
8194	0	31696	
8195	0	31696	
8196	0	31680	
8197	0	31706	
8198	0	31728	
8199	0	31768	
8200	0	31758	
8201	0	31760	
8202	0	31802	
8203	0	31864	
8204	0	31930	
8205	0	31980	
8206	0	32060	
8207	0	32136	
8208	0	32220	
8209	0	32328	
8210	0	32434	
8211	0	32520	
8212	0	32612	
8213	0	32728	
8214	0	32816	
8215	0	32868	
8216	0	32964	
8217	0	33080	
8218	0	33168	
8219	0	33228	
8220	0	33296	
8221	0	33368	
8222	0	33440	
8223	0	33540	
8224	0	33592	
8225	0	33672	
8226	0	33768	
8227	0	33848	
8228	0	33916	
8229	0	33984	
8230	0	34060	
8231	0	34196	
8232	0	34330	
8233	0	34444	
8234	0	34512	
8235	0	34632	
8236	0	34722	
8237	0	34768	
8238	0	34760	
8239	0	34728	
8240	0	34732	
8241	0	34744	
8242	0	34702	
8243	0	34660	
8244	0	34640	
8245	0	34608	
8246	0	34508	
8247	0	34476	
8248	0	34536	
8249	0	34600	
8250	0	34652	
8251	0	34668	
8252	0	34688	
8253	0	34634	
8254	0	34480	
8255	0	34272	
8256	0	34136	
8257	0	34112	
8258	0	34162	
8259	0	34200	
8260	0	34204	
8261	0	34168	
8262	0	34036	
8263	0	33848	
8264	0	33682	
8265	0	33564	
8266	0	33408	
8267	0	33288	
8268	0	33208	
8269	0	33176	
8270	0	33148	
8271	0	33128	
8272	0	33080	
8273	0	32960	
8274	0	32816	
8275	0	32728	
8276	0	32728	
8277	0	32696	
8278	0	32648	
8279	0	32560	
8280	0	32456	
8281	0	32316	
8282	0	32252	
8283	0	32196	
8284	0	32148	
8285	0	32098	
8286	0	32056	
8287	0	32048	
8288	0	31976	
8289	0	31854	
8290	0	31744	
8291	0	31708	
8292	0	31628	
8293	0	31492	
8294	0	31336	
8295	0	31192	
8296	0	31104	
8297	0	31060	
8298	0	31044	
8299	0	31008	
8300	0	30936	
8301	0	30856	
8302	0	30864	
8303	0	30900	
8304	0	30908	
8305	0	30936	
8306	0	30960	
8307	0	30944	
8308	0	30952	
8309	0	31020	
8310	0	31064	
8311	0	31056	
8312	0	31084	
8313	0	31144	
8314	0	31184	
8315	0	31180	
8316	0	31148	
8317	0	31156	
8318	0	31208	
8319	0	31232	
8320	0	31224	
8321	0	31232	
8322	0	31208	
8323	0	31200	
8324	0	31210	
8325	0	31266	
8326	0	31296	
8327	0	31312	
8328	0	31360	
8329	0	31324	
8330	0	31298	
8331	0	31312	
8332	0	31356	
8333	0	31420	
8334	0	31476	
8335	0	31524	
8336	0	31580	
8337	0	31576	
8338	0	31548	
8339	0	31514	
8340	0	31532	
8341	0	31508	
8342	0	31496	
8343	0	31478	
8344	0	31492	
8345	0	31534	
8346	0	31552	
8347	0	31508	
8348	0	31534	
8349	0	31540	
8350	0	31524	
8351	0	31368	
8352	0	31136	
8353	0	30932	
8354	0	30736	
8355	0	30656	
8356	0	30596	
8357	0	30564	
8358	0	30608	
8359	0	30732	
8360	0	30986	
8361	0	31428	
8362	0	32036	
8363	0	32816	
8364	0	33680	
8365	0	34784	
8366	0	36000	
8367	0	37276	
8368	0	38824	
8369	0	40592	
8370	0	42408	
8371	0	44108	
8372	0	45844	
8373	0	47592	
8374	0	49312	
8375	0	50996	
8376	0	52604	
8377	0	54112	
8378	0	55488	
8379	0	56808	
8380	0	58136	
8381	0	59456	
8382	0	60716	
8383	0	61772	
8384	0	62604	
8385	0	63080	
8386	0	62896	
8387	0	61744	
8388	0	59784	
8389	0	56984	
8390	0	53472	
8391	0	50044	
8392	0	46448	
8393	0	42428	
8394	0	38020	
8395	0	34020	
8396	0	31000	
8397	0	28864	
8398	0	27574	
8399	0	26784	
8400	0	26480	
8401	0	26476	
8402	0	26548	
8403	0	26440	
8404	0	26412	
8405	0	26560	
8406	0	26848	
8407	0	27232	
8408	0	27616	
8409	0	27916	
8410	0	28212	
8411	0	28500	
8412	0	28648	
8413	0	28748	
8414	0	28938	
8415	0	29100	
8416	0	29208	
8417	0	29292	
8418	0	29264	
8419	0	29172	
8420	0	29092	
8421	0	28962	
8422	0	28852	
8423	0	28804	
8424	0	28704	
8425	0	28648	
8426	0	28588	
8427	0	28524	
8428	0	28556	
8429	0	28612	
8430	0	28588	
8431	0	28508	
8432	0	28514	
8433	0	28520	
8434	0	28484	
8435	0	28548	
8436	0	28608	
8437	0	28650	
8438	0	28698	
8439	0	28756	
8440	0	28714	
8441	0	28648	
8442	0	28816	
8443	0	29024	
8444	0	29096	
8445	0	29060	
8446	0	29048	
8447	0	29048	
8448	0	29084	
8449	0	29128	
8450	0	29192	
8451	0	29252	
8452	0	29296	
8453	0	29280	
8454	0	29248	
8455	0	29244	
8456	0	29248	
8457	0	29278	
8458	0	29328	
8459	0	29376	
8460	0	29340	
8461	0	29432	
8462	0	29548	
8463	0	29640	
8464	0	29744	
8465	0	29788	
8466	0	29828	
8467	0	29892	
8468	0	29944	
8469	0	30004	
8470	0	30018	
8471	0	30030	
8472	0	30120	
8473	0	30196	
8474	0	30212	
8475	0	30246	
8476	0	30284	
8477	0	30192	
8478	0	30176	
8479	0	30192	
8480	0	30300	
8481	0	30420	
8482	0	30496	
8483	0	30472	
8484	0	30464	
8485	0	30484	
8486	0	30552	
8487	0	30600	
8488	0	30604	
8489	0	30688	
8490	0	30682	
8491	0	30754	
8492	0	30804	
8493	0	30852	
8494	0	30948	
8495	0	31016	
8496	0	30988	
8497	0	31066	
8498	0	31144	
8499	0	31168	
8500	0	31144	
8501	0	31108	
8502	0	31088	
8503	0	31064	
8504	0	31130	
8505	0	31168	
8506	0	31228	
8507	0	31308	
8508	0	31290	
8509	0	31276	
8510	0	31324	
8511	0	31344	
8512	0	31428	
8513	0	31528	
8514	0	31584	
8515	0	31658	
8516	0	31700	
8517	0	31752	
8518	0	31808	
8519	0	31920	
8520	0	32026	
8521	0	32100	
8522	0	32112	
8523	0	32100	
8524	0	32032	
8525	0	31960	
8526	0	31988	
8527	0	32036	
8528	0	32104	
8529	0	32144	
8530	0	32186	
8531	0	32232	
8532	0	32264	
8533	0	32272	
8534	0	32280	
8535	0	32308	
8536	0	32380	
8537	0	32480	
8538	0	32608	
8539	0	32668	
8540	0	32740	
8541	0	32812	
8542	0	32842	
8543	0	32924	
8544	0	33052	
8545	0	33124	
8546	0	33092	
8547	0	33104	
8548	0	33104	
8549	0	33080	
8550	0	33120	
8551	0	33084	
8552	0	33028	
8553	0	33120	
8554	0	33250	
8555	0	33384	
8556	0	33460	
8557	0	33508	
8558	0	33696	
8559	0	33752	
8560	0	33772	
8561	0	33824	
8562	0	33896	
8563	0	33990	
8564	0	34000	
8565	0	34064	
8566	0	34100	
8567	0	34164	
8568	0	34186	
8569	0	34258	
8570	0	34356	
8571	0	34400	
8572	0	34426	
8573	0	34496	
8574	0	34644	
8575	0	34752	
8576	0	34832	
8577	0	34864	
8578	0	34940	
8579	0	34984	
8580	0	35036	
8581	0	35076	
8582	0	35112	
8583	0	35148	
8584	0	35172	
8585	0	35228	
8586	0	35264	
8587	0	35300	
8588	0	35316	
8589	0	35408	
8590	0	35552	
8591	0	35704	
