# OpenSignals Text File Format. Version 1
# {"00:07:80:4B:15:F7": {"position": 0, "device": "biosignalsplux", "device name": "00:07:80:4B:15:F7", "device connection": "BTH00:07:80:4B:15:F7", "sampling rate": 1000, "resolution": [16], "firmware version": 775, "comments": "", "keywords": "", "mode": 0, "sync interval": 2, "date": "2023-4-27", "time": "16:30:12.74", "channels": [1], "sensor": ["ECG"], "label": ["CH1"], "column": ["nSeq", "DI", "CH1"], "special": [{"SpO2": [80, 40, 5, 4, 3, 3]}, {"SpO2": [80, 40, 5, 4, 3, 3]}, {"SpO2": [80, 40, 5, 4, 3, 3]}, {"SpO2": [80, 40, 5, 4, 3, 3]}, {"SpO2": [80, 40, 5, 4, 3, 3]}, {"SpO2": [80, 40, 5, 4, 3, 3]}, {"SpO2": [80, 40, 5, 4, 3, 3]}, {"SpO2": [80, 40, 5, 4, 3, 3]}], "digital IO": [0, 1], "sleeve color": ["green"], "convertedValues": 0}}
# EndOfHeader
0	0	33360	
1	0	33308	
2	0	33276	
3	0	33204	
4	0	33152	
5	0	33081	
6	0	33016	
7	0	32972	
8	0	32954	
9	0	32888	
10	0	32870	
11	0	32852	
12	0	32876	
13	0	32904	
14	0	32908	
15	0	32908	
16	0	32924	
17	0	32952	
18	0	32936	
19	0	32924	
20	0	32924	
21	0	32924	
22	0	32922	
23	0	32892	
24	0	32832	
25	0	32760	
26	0	32760	
27	0	32760	
28	0	32720	
29	0	32664	
30	0	32584	
31	0	32496	
32	0	32394	
33	0	32286	
34	0	32244	
35	0	32234	
36	0	32208	
37	0	32202	
38	0	32210	
39	0	32244	
40	0	32270	
41	0	32300	
42	0	32344	
43	0	32352	
44	0	32288	
45	0	32228	
46	0	32224	
47	0	32274	
48	0	32316	
49	0	32336	
50	0	32340	
51	0	32368	
52	0	32372	
53	0	32348	
54	0	32328	
55	0	32352	
56	0	32385	
57	0	32432	
58	0	32436	
59	0	32404	
60	0	32376	
61	0	32348	
62	0	32312	
63	0	32300	
64	0	32336	
65	0	32364	
66	0	32388	
67	0	32384	
68	0	32360	
69	0	32352	
70	0	32384	
71	0	32428	
72	0	32476	
73	0	32532	
74	0	32533	
75	0	32508	
76	0	32496	
77	0	32456	
78	0	32464	
79	0	32488	
80	0	32524	
81	0	32532	
82	0	32492	
83	0	32432	
84	0	32380	
85	0	32384	
86	0	32388	
87	0	32386	
88	0	32408	
89	0	32452	
90	0	32486	
91	0	32516	
92	0	32508	
93	0	32492	
94	0	32472	
95	0	32488	
96	0	32548	
97	0	32600	
98	0	32628	
99	0	32616	
100	0	32576	
101	0	32552	
102	0	32572	
103	0	32604	
104	0	32668	
105	0	32756	
106	0	32784	
107	0	32800	
108	0	32756	
109	0	32588	
110	0	32400	
111	0	32200	
112	0	31972	
113	0	31868	
114	0	31840	
115	0	31984	
116	0	32266	
117	0	32600	
118	0	32920	
119	0	33240	
120	0	33560	
121	0	33884	
122	0	34032	
123	0	34084	
124	0	34232	
125	0	34640	
126	0	35284	
127	0	36120	
128	0	37144	
129	0	38400	
130	0	39736	
131	0	41200	
132	0	42840	
133	0	44488	
134	0	46120	
135	0	47772	
136	0	49500	
137	0	51320	
138	0	53080	
139	0	54620	
140	0	55800	
141	0	56824	
142	0	57792	
143	0	58688	
144	0	59424	
145	0	59648	
146	0	58936	
147	0	57248	
148	0	54540	
149	0	51072	
150	0	47236	
151	0	43400	
152	0	39776	
153	0	36544	
154	0	33844	
155	0	31834	
156	0	30458	
157	0	29460	
158	0	28744	
159	0	28404	
160	0	28334	
161	0	28460	
162	0	28756	
163	0	29152	
164	0	29544	
165	0	29888	
166	0	30152	
167	0	30292	
168	0	30352	
169	0	30428	
170	0	30504	
171	0	30624	
172	0	30748	
173	0	30876	
174	0	30944	
175	0	30944	
176	0	30922	
177	0	30936	
178	0	31012	
179	0	31052	
180	0	31104	
181	0	31168	
182	0	31200	
183	0	31168	
184	0	31112	
185	0	31052	
186	0	30992	
187	0	30976	
188	0	30968	
189	0	30908	
190	0	30880	
191	0	30830	
192	0	30804	
193	0	30816	
194	0	30848	
195	0	30876	
196	0	30872	
197	0	30888	
198	0	30880	
199	0	30920	
200	0	30992	
201	0	31046	
202	0	31060	
203	0	31076	
204	0	31096	
205	0	31116	
206	0	31136	
207	0	31120	
208	0	31092	
209	0	31072	
210	0	31122	
211	0	31176	
212	0	31196	
213	0	31268	
214	0	31348	
215	0	31436	
216	0	31496	
217	0	31552	
218	0	31552	
219	0	31520	
220	0	31504	
221	0	31484	
222	0	31516	
223	0	31540	
224	0	31532	
225	0	31576	
226	0	31624	
227	0	31668	
228	0	31644	
229	0	31588	
230	0	31544	
231	0	31540	
232	0	31568	
233	0	31608	
234	0	31674	
235	0	31732	
236	0	31764	
237	0	31792	
238	0	31832	
239	0	31866	
240	0	31904	
241	0	31928	
242	0	31968	
243	0	32012	
244	0	32088	
245	0	32152	
246	0	32156	
247	0	32184	
248	0	32224	
249	0	32288	
250	0	32352	
251	0	32384	
252	0	32388	
253	0	32376	
254	0	32380	
255	0	32384	
256	0	32424	
257	0	32458	
258	0	32474	
259	0	32476	
260	0	32468	
261	0	32472	
262	0	32484	
263	0	32480	
264	0	32508	
265	0	32544	
266	0	32564	
267	0	32528	
268	0	32532	
269	0	32576	
270	0	32648	
271	0	32688	
272	0	32696	
273	0	32728	
274	0	32760	
275	0	32808	
276	0	32848	
277	0	32868	
278	0	32916	
279	0	32960	
280	0	32976	
281	0	32980	
282	0	32984	
283	0	33000	
284	0	33008	
285	0	33040	
286	0	33016	
287	0	33000	
288	0	33034	
289	0	33072	
290	0	33096	
291	0	33124	
292	0	33136	
293	0	33132	
294	0	33144	
295	0	33184	
296	0	33232	
297	0	33308	
298	0	33356	
299	0	33336	
300	0	33296	
301	0	33264	
302	0	33248	
303	0	33228	
304	0	33188	
305	0	33204	
306	0	33232	
307	0	33284	
308	0	33348	
309	0	33416	
310	0	33432	
311	0	33440	
312	0	33488	
313	0	33496	
314	0	33492	
315	0	33488	
316	0	33476	
317	0	33456	
318	0	33444	
319	0	33488	
320	0	33488	
321	0	33500	
322	0	33564	
323	0	33620	
324	0	33672	
325	0	33752	
326	0	33760	
327	0	33732	
328	0	33718	
329	0	33732	
330	0	33768	
331	0	33812	
332	0	33848	
333	0	33876	
334	0	33896	
335	0	33900	
336	0	33868	
337	0	33796	
338	0	33780	
339	0	33760	
340	0	33768	
341	0	33796	
342	0	33804	
343	0	33820	
344	0	33824	
345	0	33818	
346	0	33836	
347	0	33884	
348	0	33932	
349	0	33988	
350	0	34040	
351	0	34104	
352	0	34176	
353	0	34208	
354	0	34170	
355	0	34108	
356	0	34090	
357	0	34104	
358	0	34076	
359	0	34032	
360	0	34072	
361	0	34104	
362	0	34116	
363	0	34112	
364	0	34114	
365	0	34120	
366	0	34112	
367	0	34138	
368	0	34172	
369	0	34208	
370	0	34236	
371	0	34234	
372	0	34224	
373	0	34192	
374	0	34180	
375	0	34162	
376	0	34144	
377	0	34124	
378	0	34108	
379	0	34160	
380	0	34212	
381	0	34236	
382	0	34244	
383	0	34248	
384	0	34244	
385	0	34216	
386	0	34184	
387	0	34180	
388	0	34192	
389	0	34148	
390	0	34104	
391	0	34096	
392	0	34076	
393	0	34100	
394	0	34164	
395	0	34172	
396	0	34200	
397	0	34240	
398	0	34256	
399	0	34244	
400	0	34224	
401	0	34228	
402	0	34210	
403	0	34160	
404	0	34140	
405	0	34100	
406	0	34072	
407	0	34048	
408	0	34048	
409	0	34016	
410	0	34024	
411	0	34048	
412	0	34052	
413	0	34024	
414	0	33996	
415	0	33932	
416	0	33848	
417	0	33764	
418	0	33684	
419	0	33600	
420	0	33516	
421	0	33416	
422	0	33300	
423	0	33192	
424	0	33124	
425	0	33076	
426	0	33016	
427	0	32936	
428	0	32844	
429	0	32788	
430	0	32724	
431	0	32648	
432	0	32562	
433	0	32488	
434	0	32424	
435	0	32340	
436	0	32260	
437	0	32172	
438	0	32040	
439	0	31908	
440	0	31828	
441	0	31756	
442	0	31644	
443	0	31552	
444	0	31490	
445	0	31438	
446	0	31368	
447	0	31300	
448	0	31224	
449	0	31176	
450	0	31132	
451	0	31084	
452	0	31052	
453	0	30992	
454	0	30944	
455	0	30872	
456	0	30800	
457	0	30748	
458	0	30710	
459	0	30674	
460	0	30640	
461	0	30580	
462	0	30500	
463	0	30430	
464	0	30360	
465	0	30320	
466	0	30296	
467	0	30304	
468	0	30322	
469	0	30296	
470	0	30300	
471	0	30272	
472	0	30236	
473	0	30220	
474	0	30228	
475	0	30234	
476	0	30244	
477	0	30212	
478	0	30168	
479	0	30140	
480	0	30072	
481	0	30052	
482	0	30072	
483	0	30104	
484	0	30156	
485	0	30224	
486	0	30252	
487	0	30228	
488	0	30224	
489	0	30248	
490	0	30284	
491	0	30316	
492	0	30368	
493	0	30376	
494	0	30404	
495	0	30440	
496	0	30456	
497	0	30480	
498	0	30522	
499	0	30560	
500	0	30580	
501	0	30632	
502	0	30688	
503	0	30722	
504	0	30720	
505	0	30708	
506	0	30688	
507	0	30700	
508	0	30736	
509	0	30768	
510	0	30820	
511	0	30862	
512	0	30872	
513	0	30884	
514	0	30912	
515	0	30948	
516	0	31020	
517	0	31100	
518	0	31176	
519	0	31216	
520	0	31240	
521	0	31252	
522	0	31308	
523	0	31344	
524	0	31374	
525	0	31376	
526	0	31364	
527	0	31336	
528	0	31300	
529	0	31296	
530	0	31296	
531	0	31324	
532	0	31344	
533	0	31348	
534	0	31370	
535	0	31396	
536	0	31416	
537	0	31468	
538	0	31504	
539	0	31552	
540	0	31564	
541	0	31592	
542	0	31648	
543	0	31668	
544	0	31704	
545	0	31760	
546	0	31760	
547	0	31756	
548	0	31776	
549	0	31776	
550	0	31808	
551	0	31832	
552	0	31806	
553	0	31764	
554	0	31756	
555	0	31736	
556	0	31740	
557	0	31740	
558	0	31772	
559	0	31796	
560	0	31784	
561	0	31776	
562	0	31790	
563	0	31812	
564	0	31820	
565	0	31812	
566	0	31808	
567	0	31836	
568	0	31858	
569	0	31876	
570	0	31904	
571	0	31932	
572	0	31916	
573	0	31888	
574	0	31856	
575	0	31800	
576	0	31752	
577	0	31736	
578	0	31724	
579	0	31700	
580	0	31648	
581	0	31620	
582	0	31628	
583	0	31656	
584	0	31648	
585	0	31652	
586	0	31664	
587	0	31704	
588	0	31732	
589	0	31752	
590	0	31776	
591	0	31792	
592	0	31800	
593	0	31824	
594	0	31804	
595	0	31784	
596	0	31776	
597	0	31778	
598	0	31756	
599	0	31720	
600	0	31712	
601	0	31788	
602	0	31860	
603	0	31876	
604	0	31864	
605	0	31868	
606	0	31848	
607	0	31818	
608	0	31808	
609	0	31776	
610	0	31716	
611	0	31660	
612	0	31668	
613	0	31652	
614	0	31652	
615	0	31648	
616	0	31602	
617	0	31588	
618	0	31564	
619	0	31556	
620	0	31548	
621	0	31504	
622	0	31520	
623	0	31550	
624	0	31528	
625	0	31520	
626	0	31536	
627	0	31536	
628	0	31532	
629	0	31528	
630	0	31568	
631	0	31584	
632	0	31596	
633	0	31612	
634	0	31636	
635	0	31648	
636	0	31642	
637	0	31632	
638	0	31626	
639	0	31612	
640	0	31592	
641	0	31596	
642	0	31620	
643	0	31620	
644	0	31592	
645	0	31580	
646	0	31566	
647	0	31570	
648	0	31588	
649	0	31608	
650	0	31598	
651	0	31560	
652	0	31578	
653	0	31580	
654	0	31592	
655	0	31646	
656	0	31648	
657	0	31648	
658	0	31646	
659	0	31644	
660	0	31660	
661	0	31688	
662	0	31728	
663	0	31716	
664	0	31698	
665	0	31712	
666	0	31742	
667	0	31744	
668	0	31736	
669	0	31704	
670	0	31692	
671	0	31668	
672	0	31680	
673	0	31692	
674	0	31684	
675	0	31650	
676	0	31632	
677	0	31644	
678	0	31668	
679	0	31676	
680	0	31708	
681	0	31744	
682	0	31782	
683	0	31778	
684	0	31780	
685	0	31792	
686	0	31796	
687	0	31840	
688	0	31880	
689	0	31876	
690	0	31904	
691	0	31928	
692	0	31933	
693	0	31912	
694	0	31912	
695	0	31900	
696	0	31896	
697	0	31900	
698	0	31868	
699	0	31828	
700	0	31828	
701	0	31844	
702	0	31870	
703	0	31880	
704	0	31920	
705	0	31952	
706	0	31960	
707	0	31968	
708	0	31968	
709	0	31930	
710	0	31916	
711	0	31946	
712	0	31944	
713	0	31944	
714	0	31988	
715	0	32026	
716	0	32090	
717	0	32140	
718	0	32188	
719	0	32276	
720	0	32340	
721	0	32400	
722	0	32440	
723	0	32440	
724	0	32444	
725	0	32448	
726	0	32448	
727	0	32420	
728	0	32376	
729	0	32328	
730	0	32268	
731	0	32232	
732	0	32228	
733	0	32244	
734	0	32252	
735	0	32228	
736	0	32198	
737	0	32196	
738	0	32200	
739	0	32248	
740	0	32308	
741	0	32376	
742	0	32492	
743	0	32624	
744	0	32740	
745	0	32808	
746	0	32868	
747	0	32944	
748	0	33044	
749	0	33144	
750	0	33280	
751	0	33428	
752	0	33530	
753	0	33656	
754	0	33776	
755	0	33888	
756	0	33968	
757	0	34020	
758	0	34048	
759	0	34062	
760	0	33984	
761	0	33824	
762	0	33636	
763	0	33540	
764	0	33460	
765	0	33352	
766	0	33256	
767	0	33180	
768	0	33112	
769	0	33044	
770	0	32960	
771	0	32872	
772	0	32800	
773	0	32764	
774	0	32732	
775	0	32692	
776	0	32672	
777	0	32664	
778	0	32636	
779	0	32594	
780	0	32584	
781	0	32564	
782	0	32552	
783	0	32532	
784	0	32540	
785	0	32568	
786	0	32612	
787	0	32616	
788	0	32578	
789	0	32572	
790	0	32564	
791	0	32556	
792	0	32534	
793	0	32480	
794	0	32432	
795	0	32416	
796	0	32416	
797	0	32420	
798	0	32400	
799	0	32352	
800	0	32300	
801	0	32252	
802	0	32204	
803	0	32166	
804	0	32128	
805	0	32114	
806	0	32092	
807	0	32082	
808	0	32048	
809	0	32068	
810	0	32082	
811	0	32084	
812	0	32096	
813	0	32080	
814	0	32034	
815	0	31968	
816	0	31940	
817	0	31912	
818	0	31904	
819	0	31952	
820	0	31980	
821	0	32016	
822	0	32040	
823	0	32028	
824	0	32000	
825	0	32004	
826	0	32006	
827	0	32016	
828	0	32052	
829	0	32064	
830	0	32060	
831	0	32074	
832	0	32080	
833	0	32108	
834	0	32064	
835	0	32004	
836	0	31964	
837	0	31940	
838	0	31976	
839	0	31996	
840	0	32044	
841	0	32068	
842	0	32072	
843	0	32080	
844	0	32084	
845	0	32096	
846	0	32092	
847	0	32088	
848	0	32148	
849	0	32204	
850	0	32220	
851	0	32244	
852	0	32256	
853	0	32272	
854	0	32296	
855	0	32288	
856	0	32280	
857	0	32252	
858	0	32236	
859	0	32236	
860	0	32264	
861	0	32256	
862	0	32256	
863	0	32276	
864	0	32304	
865	0	32332	
866	0	32356	
867	0	32352	
868	0	32352	
869	0	32342	
870	0	32356	
871	0	32380	
872	0	32372	
873	0	32406	
874	0	32462	
875	0	32524	
876	0	32592	
877	0	32664	
878	0	32702	
879	0	32696	
880	0	32620	
881	0	32520	
882	0	32356	
883	0	32176	
884	0	32022	
885	0	31938	
886	0	31936	
887	0	32100	
888	0	32410	
889	0	32764	
890	0	33076	
891	0	33440	
892	0	33784	
893	0	34104	
894	0	34330	
895	0	34404	
896	0	34528	
897	0	34872	
898	0	35436	
899	0	36200	
900	0	37172	
901	0	38352	
902	0	39692	
903	0	41184	
904	0	42820	
905	0	44476	
906	0	46204	
907	0	47952	
908	0	49796	
909	0	51656	
910	0	53348	
911	0	54776	
912	0	55852	
913	0	56752	
914	0	57720	
915	0	58768	
916	0	59548	
917	0	59752	
918	0	58976	
919	0	57136	
920	0	54256	
921	0	50712	
922	0	46816	
923	0	42896	
924	0	39230	
925	0	36042	
926	0	33576	
927	0	31856	
928	0	30684	
929	0	29848	
930	0	29266	
931	0	28936	
932	0	28812	
933	0	28876	
934	0	29088	
935	0	29372	
936	0	29656	
937	0	29856	
938	0	30044	
939	0	30204	
940	0	30362	
941	0	30504	
942	0	30636	
943	0	30776	
944	0	30874	
945	0	30964	
946	0	31016	
947	0	31042	
948	0	31060	
949	0	31092	
950	0	31136	
951	0	31112	
952	0	31072	
953	0	31050	
954	0	31004	
955	0	30972	
956	0	30904	
957	0	30848	
958	0	30808	
959	0	30800	
960	0	30784	
961	0	30764	
962	0	30744	
963	0	30752	
964	0	30752	
965	0	30744	
966	0	30744	
967	0	30768	
968	0	30780	
969	0	30780	
970	0	30816	
971	0	30856	
972	0	30876	
973	0	30900	
974	0	30920	
975	0	30964	
976	0	30996	
977	0	31036	
978	0	31050	
979	0	31040	
980	0	31028	
981	0	31024	
982	0	31036	
983	0	31092	
984	0	31164	
985	0	31224	
986	0	31256	
987	0	31292	
988	0	31336	
989	0	31372	
990	0	31372	
991	0	31370	
992	0	31366	
993	0	31412	
994	0	31460	
995	0	31516	
996	0	31552	
997	0	31576	
998	0	31580	
999	0	31568	
1000	0	31552	
1001	0	31560	
1002	0	31576	
1003	0	31616	
1004	0	31660	
1005	0	31700	
1006	0	31712	
1007	0	31724	
1008	0	31768	
1009	0	31816	
1010	0	31844	
1011	0	31880	
1012	0	31916	
1013	0	31968	
1014	0	32032	
1015	0	32064	
1016	0	32104	
1017	0	32108	
1018	0	32104	
1019	0	32116	
1020	0	32116	
1021	0	32116	
1022	0	32160	
1023	0	32208	
1024	0	32268	
1025	0	32298	
1026	0	32306	
1027	0	32316	
1028	0	32336	
1029	0	32324	
1030	0	32336	
1031	0	32352	
1032	0	32372	
1033	0	32400	
1034	0	32416	
1035	0	32408	
1036	0	32416	
1037	0	32432	
1038	0	32468	
1039	0	32472	
1040	0	32456	
1041	0	32436	
1042	0	32436	
1043	0	32452	
1044	0	32476	
1045	0	32492	
1046	0	32560	
1047	0	32592	
1048	0	32644	
1049	0	32712	
1050	0	32758	
1051	0	32820	
1052	0	32912	
1053	0	32980	
1054	0	33052	
1055	0	33064	
1056	0	33042	
1057	0	33028	
1058	0	33042	
1059	0	33096	
1060	0	33144	
1061	0	33150	
1062	0	33140	
1063	0	33144	
1064	0	33148	
1065	0	33128	
1066	0	33120	
1067	0	33136	
1068	0	33132	
1069	0	33128	
1070	0	33162	
1071	0	33164	
1072	0	33156	
1073	0	33140	
1074	0	33140	
1075	0	33128	
1076	0	33136	
1077	0	33160	
1078	0	33174	
1079	0	33184	
1080	0	33192	
1081	0	33204	
1082	0	33212	
1083	0	33240	
1084	0	33272	
1085	0	33304	
1086	0	33300	
1087	0	33328	
1088	0	33352	
1089	0	33380	
1090	0	33420	
1091	0	33456	
1092	0	33492	
1093	0	33524	
1094	0	33532	
1095	0	33522	
1096	0	33520	
1097	0	33562	
1098	0	33564	
1099	0	33564	
1100	0	33576	
1101	0	33594	
1102	0	33648	
1103	0	33698	
1104	0	33732	
1105	0	33736	
1106	0	33756	
1107	0	33776	
1108	0	33784	
1109	0	33768	
1110	0	33744	
1111	0	33764	
1112	0	33796	
1113	0	33804	
1114	0	33820	
1115	0	33848	
1116	0	33856	
1117	0	33896	
1118	0	33916	
1119	0	33936	
1120	0	33956	
1121	0	33984	
1122	0	34004	
1123	0	34052	
1124	0	34080	
1125	0	34100	
1126	0	34128	
1127	0	34144	
1128	0	34176	
1129	0	34232	
1130	0	34272	
1131	0	34308	
1132	0	34340	
1133	0	34352	
1134	0	34328	
1135	0	34304	
1136	0	34288	
1137	0	34292	
1138	0	34300	
1139	0	34296	
1140	0	34304	
1141	0	34292	
1142	0	34296	
1143	0	34288	
1144	0	34284	
1145	0	34276	
1146	0	34272	
1147	0	34264	
1148	0	34258	
1149	0	34264	
1150	0	34264	
1151	0	34296	
1152	0	34304	
1153	0	34288	
1154	0	34244	
1155	0	34248	
1156	0	34232	
1157	0	34216	
1158	0	34240	
1159	0	34268	
1160	0	34284	
1161	0	34292	
1162	0	34308	
1163	0	34316	
1164	0	34332	
1165	0	34364	
1166	0	34384	
1167	0	34392	
1168	0	34368	
1169	0	34336	
1170	0	34336	
1171	0	34336	
1172	0	34376	
1173	0	34388	
1174	0	34400	
1175	0	34368	
1176	0	34328	
1177	0	34292	
1178	0	34260	
1179	0	34256	
1180	0	34268	
1181	0	34208	
1182	0	34180	
1183	0	34152	
1184	0	34092	
1185	0	34014	
1186	0	33952	
1187	0	33896	
1188	0	33828	
1189	0	33752	
1190	0	33656	
1191	0	33572	
1192	0	33472	
1193	0	33348	
1194	0	33192	
1195	0	33068	
1196	0	32948	
1197	0	32832	
1198	0	32704	
1199	0	32596	
1200	0	32500	
1201	0	32396	
1202	0	32300	
1203	0	32196	
1204	0	32096	
1205	0	32012	
1206	0	31938	
1207	0	31852	
1208	0	31764	
1209	0	31688	
1210	0	31584	
1211	0	31500	
1212	0	31420	
1213	0	31360	
1214	0	31300	
1215	0	31200	
1216	0	31128	
1217	0	31044	
1218	0	30968	
1219	0	30904	
1220	0	30860	
1221	0	30832	
1222	0	30792	
1223	0	30732	
1224	0	30656	
1225	0	30596	
1226	0	30552	
1227	0	30512	
1228	0	30460	
1229	0	30404	
1230	0	30384	
1231	0	30360	
1232	0	30324	
1233	0	30296	
1234	0	30256	
1235	0	30208	
1236	0	30200	
1237	0	30180	
1238	0	30192	
1239	0	30196	
1240	0	30186	
1241	0	30182	
1242	0	30176	
1243	0	30168	
1244	0	30160	
1245	0	30176	
1246	0	30162	
1247	0	30136	
1248	0	30136	
1249	0	30164	
1250	0	30164	
1251	0	30148	
1252	0	30174	
1253	0	30192	
1254	0	30212	
1255	0	30224	
1256	0	30220	
1257	0	30228	
1258	0	30216	
1259	0	30224	
1260	0	30232	
1261	0	30208	
1262	0	30220	
1263	0	30248	
1264	0	30272	
1265	0	30284	
1266	0	30296	
1267	0	30340	
1268	0	30368	
1269	0	30394	
1270	0	30416	
1271	0	30452	
1272	0	30476	
1273	0	30524	
1274	0	30560	
1275	0	30564	
1276	0	30576	
1277	0	30596	
1278	0	30596	
1279	0	30652	
1280	0	30704	
1281	0	30778	
1282	0	30808	
1283	0	30812	
1284	0	30816	
1285	0	30800	
1286	0	30788	
1287	0	30820	
1288	0	30864	
1289	0	30916	
1290	0	30940	
1291	0	30944	
1292	0	30944	
1293	0	30972	
1294	0	30972	
1295	0	30956	
1296	0	30968	
1297	0	31008	
1298	0	31044	
1299	0	31080	
1300	0	31096	
1301	0	31136	
1302	0	31172	
1303	0	31200	
1304	0	31236	
1305	0	31276	
1306	0	31304	
1307	0	31332	
1308	0	31346	
1309	0	31360	
1310	0	31400	
1311	0	31440	
1312	0	31488	
1313	0	31536	
1314	0	31564	
1315	0	31580	
1316	0	31580	
1317	0	31608	
1318	0	31638	
1319	0	31648	
1320	0	31648	
1321	0	31656	
1322	0	31652	
1323	0	31640	
1324	0	31656	
1325	0	31650	
1326	0	31640	
1327	0	31620	
1328	0	31632	
1329	0	31648	
1330	0	31672	
1331	0	31708	
1332	0	31728	
1333	0	31720	
1334	0	31728	
1335	0	31728	
1336	0	31728	
1337	0	31748	
1338	0	31776	
1339	0	31776	
1340	0	31756	
1341	0	31752	
1342	0	31760	
1343	0	31746	
1344	0	31744	
1345	0	31752	
1346	0	31746	
1347	0	31744	
1348	0	31756	
1349	0	31788	
1350	0	31796	
1351	0	31792	
1352	0	31760	
1353	0	31756	
1354	0	31772	
1355	0	31752	
1356	0	31764	
1357	0	31784	
1358	0	31808	
1359	0	31780	
1360	0	31776	
1361	0	31772	
1362	0	31740	
1363	0	31724	
1364	0	31712	
1365	0	31680	
1366	0	31648	
1367	0	31646	
1368	0	31664	
1369	0	31672	
1370	0	31652	
1371	0	31646	
1372	0	31648	
1373	0	31668	
1374	0	31669	
1375	0	31672	
1376	0	31690	
1377	0	31680	
1378	0	31668	
1379	0	31658	
1380	0	31674	
1381	0	31700	
1382	0	31728	
1383	0	31736	
1384	0	31768	
1385	0	31788	
1386	0	31800	
1387	0	31808	
1388	0	31808	
1389	0	31788	
1390	0	31788	
1391	0	31812	
1392	0	31820	
1393	0	31820	
1394	0	31804	
1395	0	31824	
1396	0	31820	
1397	0	31792	
1398	0	31768	
1399	0	31760	
1400	0	31758	
1401	0	31752	
1402	0	31736	
1403	0	31708	
1404	0	31710	
1405	0	31720	
1406	0	31712	
1407	0	31700	
1408	0	31680	
1409	0	31668	
1410	0	31672	
1411	0	31684	
1412	0	31700	
1413	0	31714	
1414	0	31724	
1415	0	31712	
1416	0	31700	
1417	0	31696	
1418	0	31700	
1419	0	31704	
1420	0	31700	
1421	0	31696	
1422	0	31716	
1423	0	31736	
1424	0	31768	
1425	0	31824	
1426	0	31832	
1427	0	31812	
1428	0	31834	
1429	0	31856	
1430	0	31868	
1431	0	31900	
1432	0	31944	
1433	0	31940	
1434	0	31956	
1435	0	31976	
1436	0	31984	
1437	0	31988	
1438	0	31976	
1439	0	31972	
1440	0	31976	
1441	0	31984	
1442	0	31980	
1443	0	31988	
1444	0	31980	
1445	0	31968	
1446	0	31984	
1447	0	31988	
1448	0	32000	
1449	0	32028	
1450	0	32020	
1451	0	32032	
1452	0	32052	
1453	0	32088	
1454	0	32132	
1455	0	32152	
1456	0	32148	
1457	0	32160	
1458	0	32156	
1459	0	32168	
1460	0	32196	
1461	0	32192	
1462	0	32184	
1463	0	32184	
1464	0	32172	
1465	0	32140	
1466	0	32150	
1467	0	32168	
1468	0	32168	
1469	0	32176	
1470	0	32188	
1471	0	32224	
1472	0	32244	
1473	0	32272	
1474	0	32264	
1475	0	32268	
1476	0	32256	
1477	0	32244	
1478	0	32236	
1479	0	32240	
1480	0	32248	
1481	0	32252	
1482	0	32260	
1483	0	32248	
1484	0	32252	
1485	0	32244	
1486	0	32236	
1487	0	32230	
1488	0	32216	
1489	0	32224	
1490	0	32236	
1491	0	32240	
1492	0	32266	
1493	0	32276	
1494	0	32264	
1495	0	32292	
1496	0	32328	
1497	0	32356	
1498	0	32352	
1499	0	32332	
1500	0	32348	
1501	0	32356	
1502	0	32364	
1503	0	32356	
1504	0	32336	
1505	0	32324	
1506	0	32320	
1507	0	32356	
1508	0	32392	
1509	0	32396	
1510	0	32412	
1511	0	32408	
1512	0	32458	
1513	0	32456	
1514	0	32444	
1515	0	32440	
1516	0	32416	
1517	0	32414	
1518	0	32412	
1519	0	32424	
1520	0	32436	
1521	0	32448	
1522	0	32464	
1523	0	32480	
1524	0	32500	
1525	0	32524	
1526	0	32512	
1527	0	32516	
1528	0	32536	
1529	0	32556	
1530	0	32584	
1531	0	32610	
1532	0	32596	
1533	0	32612	
1534	0	32624	
1535	0	32624	
1536	0	32632	
1537	0	32648	
1538	0	32660	
1539	0	32640	
1540	0	32616	
1541	0	32612	
1542	0	32608	
1543	0	32596	
1544	0	32600	
1545	0	32636	
1546	0	32664	
1547	0	32688	
1548	0	32716	
1549	0	32724	
1550	0	32744	
1551	0	32740	
1552	0	32732	
1553	0	32748	
1554	0	32778	
1555	0	32788	
1556	0	32800	
1557	0	32808	
1558	0	32808	
1559	0	32800	
1560	0	32800	
1561	0	32788	
1562	0	32744	
1563	0	32720	
1564	0	32704	
1565	0	32692	
1566	0	32712	
1567	0	32720	
1568	0	32744	
1569	0	32776	
1570	0	32816	
1571	0	32874	
1572	0	32888	
1573	0	32872	
1574	0	32876	
1575	0	32900	
1576	0	32904	
1577	0	32892	
1578	0	32888	
1579	0	32912	
1580	0	32920	
1581	0	32904	
1582	0	32856	
1583	0	32840	
1584	0	32852	
1585	0	32868	
1586	0	32896	
1587	0	32884	
1588	0	32884	
1589	0	32868	
1590	0	32878	
1591	0	32880	
1592	0	32892	
1593	0	32880	
1594	0	32896	
1595	0	32900	
1596	0	32896	
1597	0	32896	
1598	0	32896	
1599	0	32920	
1600	0	32900	
1601	0	32884	
1602	0	32864	
1603	0	32868	
1604	0	32882	
1605	0	32904	
1606	0	32916	
1607	0	32952	
1608	0	32954	
1609	0	32948	
1610	0	32960	
1611	0	32952	
1612	0	32938	
1613	0	32992	
1614	0	32984	
1615	0	32980	
1616	0	32984	
1617	0	32964	
1618	0	32932	
1619	0	32936	
1620	0	32924	
1621	0	32916	
1622	0	32928	
1623	0	32924	
1624	0	32888	
1625	0	32916	
1626	0	32956	
1627	0	32976	
1628	0	32976	
1629	0	32992	
1630	0	33004	
1631	0	33004	
1632	0	33002	
1633	0	33002	
1634	0	33036	
1635	0	33056	
1636	0	33044	
1637	0	33038	
1638	0	33050	
1639	0	33064	
1640	0	33068	
1641	0	33056	
1642	0	33036	
1643	0	33032	
1644	0	33036	
1645	0	33040	
1646	0	33076	
1647	0	33100	
1648	0	33100	
1649	0	33108	
1650	0	33120	
1651	0	33136	
1652	0	33136	
1653	0	33128	
1654	0	33112	
1655	0	33108	
1656	0	33112	
1657	0	33124	
1658	0	33120	
1659	0	33100	
1660	0	33096	
1661	0	33104	
1662	0	33100	
1663	0	33076	
1664	0	33064	
1665	0	33060	
1666	0	33052	
1667	0	33068	
1668	0	33084	
1669	0	33096	
1670	0	33140	
1671	0	33160	
1672	0	33180	
1673	0	33206	
1674	0	33184	
1675	0	33164	
1676	0	33176	
1677	0	33172	
1678	0	33176	
1679	0	33184	
1680	0	33192	
1681	0	33172	
1682	0	33168	
1683	0	33164	
1684	0	33152	
1685	0	33154	
1686	0	33166	
1687	0	33180	
1688	0	33172	
1689	0	33168	
1690	0	33200	
1691	0	33230	
1692	0	33252	
1693	0	33248	
1694	0	33265	
1695	0	33260	
1696	0	33240	
1697	0	33210	
1698	0	33200	
1699	0	33220	
1700	0	33208	
1701	0	33216	
1702	0	33192	
1703	0	33168	
1704	0	33140	
1705	0	33148	
1706	0	33148	
1707	0	33136	
1708	0	33116	
1709	0	33148	
1710	0	33156	
1711	0	33156	
1712	0	33140	
1713	0	33102	
1714	0	33076	
1715	0	33084	
1716	0	33092	
1717	0	33118	
1718	0	33152	
1719	0	33160	
1720	0	33134	
1721	0	33122	
1722	0	33104	
1723	0	33090	
1724	0	33080	
1725	0	33056	
1726	0	33064	
1727	0	33068	
1728	0	33100	
1729	0	33162	
1730	0	33208	
1731	0	33248	
1732	0	33280	
1733	0	33300	
1734	0	33348	
1735	0	33364	
1736	0	33376	
1737	0	33388	
1738	0	33392	
1739	0	33368	
1740	0	33344	
1741	0	33320	
1742	0	33292	
1743	0	33288	
1744	0	33272	
1745	0	33224	
1746	0	33212	
1747	0	33216	
1748	0	33240	
1749	0	33202	
1750	0	33156	
1751	0	33118	
1752	0	33124	
1753	0	33192	
1754	0	33296	
1755	0	33414	
1756	0	33540	
1757	0	33656	
1758	0	33768	
1759	0	33848	
1760	0	33912	
1761	0	33948	
1762	0	34016	
1763	0	34072	
1764	0	34136	
1765	0	34220	
1766	0	34284	
1767	0	34328	
1768	0	34396	
1769	0	34480	
1770	0	34584	
1771	0	34640	
1772	0	34622	
1773	0	34576	
1774	0	34512	
1775	0	34456	
1776	0	34364	
1777	0	34224	
1778	0	34138	
1779	0	34052	
1780	0	33972	
1781	0	33900	
1782	0	33820	
1783	0	33748	
1784	0	33692	
1785	0	33624	
1786	0	33592	
1787	0	33536	
1788	0	33464	
1789	0	33428	
1790	0	33392	
1791	0	33432	
1792	0	33476	
1793	0	33460	
1794	0	33416	
1795	0	33396	
1796	0	33356	
1797	0	33332	
1798	0	33340	
1799	0	33318	
1800	0	33340	
1801	0	33368	
1802	0	33352	
1803	0	33316	
1804	0	33284	
1805	0	33276	
1806	0	33248	
1807	0	33240	
1808	0	33228	
1809	0	33178	
1810	0	33132	
1811	0	33128	
1812	0	33128	
1813	0	33120	
1814	0	33092	
1815	0	33036	
1816	0	32996	
1817	0	32956	
1818	0	32922	
1819	0	32850	
1820	0	32816	
1821	0	32788	
1822	0	32788	
1823	0	32768	
1824	0	32752	
1825	0	32792	
1826	0	32796	
1827	0	32792	
1828	0	32796	
1829	0	32772	
1830	0	32744	
1831	0	32732	
1832	0	32716	
1833	0	32720	
1834	0	32744	
1835	0	32736	
1836	0	32772	
1837	0	32796	
1838	0	32832	
1839	0	32840	
1840	0	32832	
1841	0	32838	
1842	0	32824	
1843	0	32804	
1844	0	32816	
1845	0	32844	
1846	0	32856	
1847	0	32832	
1848	0	32816	
1849	0	32832	
1850	0	32826	
1851	0	32780	
1852	0	32792	
1853	0	32824	
1854	0	32820	
1855	0	32804	
1856	0	32784	
1857	0	32788	
1858	0	32780	
1859	0	32752	
1860	0	32752	
1861	0	32712	
1862	0	32704	
1863	0	32704	
1864	0	32704	
1865	0	32704	
1866	0	32700	
1867	0	32692	
1868	0	32688	
1869	0	32668	
1870	0	32680	
1871	0	32704	
1872	0	32700	
1873	0	32728	
1874	0	32756	
1875	0	32772	
1876	0	32776	
1877	0	32792	
1878	0	32792	
1879	0	32804	
1880	0	32812	
1881	0	32824	
1882	0	32848	
1883	0	32880	
1884	0	32932	
1885	0	32976	
1886	0	33004	
1887	0	32988	
1888	0	32964	
1889	0	32948	
1890	0	32908	
1891	0	32816	
1892	0	32676	
1893	0	32528	
1894	0	32400	
1895	0	32308	
1896	0	32356	
1897	0	32558	
1898	0	32842	
1899	0	33120	
1900	0	33486	
1901	0	33806	
1902	0	34092	
1903	0	34376	
1904	0	34532	
1905	0	34696	
1906	0	34928	
1907	0	35396	
1908	0	36060	
1909	0	36920	
1910	0	37940	
1911	0	39104	
1912	0	40436	
1913	0	41924	
1914	0	43490	
1915	0	45100	
1916	0	46792	
1917	0	48552	
1918	0	50376	
1919	0	52096	
1920	0	53592	
1921	0	54744	
1922	0	55660	
1923	0	56616	
1924	0	57708	
1925	0	58620	
1926	0	59104	
1927	0	58820	
1928	0	57456	
1929	0	55016	
1930	0	51768	
1931	0	48096	
1932	0	44300	
1933	0	40720	
1934	0	37616	
1935	0	35168	
1936	0	33488	
1937	0	32328	
1938	0	31548	
1939	0	30988	
1940	0	30574	
1941	0	30296	
1942	0	30160	
1943	0	30172	
1944	0	30266	
1945	0	30396	
1946	0	30512	
1947	0	30600	
1948	0	30682	
1949	0	30720	
1950	0	30754	
1951	0	30848	
1952	0	30936	
1953	0	31032	
1954	0	31096	
1955	0	31144	
1956	0	31176	
1957	0	31176	
1958	0	31172	
1959	0	31162	
1960	0	31120	
1961	0	31076	
1962	0	31032	
1963	0	30986	
1964	0	30930	
1965	0	30880	
1966	0	30820	
1967	0	30778	
1968	0	30794	
1969	0	30808	
1970	0	30808	
1971	0	30800	
1972	0	30804	
1973	0	30784	
1974	0	30784	
1975	0	30814	
1976	0	30814	
1977	0	30828	
1978	0	30822	
1979	0	30836	
1980	0	30848	
1981	0	30864	
1982	0	30876	
1983	0	30876	
1984	0	30874	
1985	0	30900	
1986	0	30924	
1987	0	30940	
1988	0	30960	
1989	0	30988	
1990	0	31000	
1991	0	31016	
1992	0	31046	
1993	0	31076	
1994	0	31122	
1995	0	31162	
1996	0	31148	
1997	0	31136	
1998	0	31150	
1999	0	31168	
2000	0	31200	
2001	0	31240	
2002	0	31264	
2003	0	31276	
2004	0	31276	
2005	0	31288	
2006	0	31296	
2007	0	31320	
2008	0	31360	
2009	0	31432	
2010	0	31476	
2011	0	31504	
2012	0	31520	
2013	0	31556	
2014	0	31586	
2015	0	31620	
2016	0	31648	
2017	0	31676	
2018	0	31696	
2019	0	31740	
2020	0	31778	
2021	0	31820	
2022	0	31848	
2023	0	31856	
2024	0	31868	
2025	0	31912	
2026	0	31924	
2027	0	31948	
2028	0	31984	
2029	0	32016	
2030	0	32048	
2031	0	32084	
2032	0	32112	
2033	0	32120	
2034	0	32144	
2035	0	32168	
2036	0	32204	
2037	0	32228	
2038	0	32236	
2039	0	32252	
2040	0	32280	
2041	0	32344	
2042	0	32380	
2043	0	32396	
2044	0	32432	
2045	0	32456	
2046	0	32484	
2047	0	32530	
2048	0	32576	
2049	0	32610	
2050	0	32640	
2051	0	32648	
2052	0	32664	
2053	0	32672	
2054	0	32684	
2055	0	32704	
2056	0	32704	
2057	0	32704	
2058	0	32692	
2059	0	32722	
2060	0	32728	
2061	0	32762	
2062	0	32800	
2063	0	32808	
2064	0	32828	
2065	0	32846	
2066	0	32840	
2067	0	32864	
2068	0	32888	
2069	0	32880	
2070	0	32896	
2071	0	32888	
2072	0	32890	
2073	0	32896	
2074	0	32884	
2075	0	32920	
2076	0	32956	
2077	0	32956	
2078	0	32960	
2079	0	32948	
2080	0	32942	
2081	0	32972	
2082	0	32960	
2083	0	32944	
2084	0	32964	
2085	0	32964	
2086	0	32976	
2087	0	33008	
2088	0	33048	
2089	0	33064	
2090	0	33072	
2091	0	33116	
2092	0	33168	
2093	0	33208	
2094	0	33188	
2095	0	33200	
2096	0	33228	
2097	0	33260	
2098	0	33296	
2099	0	33320	
2100	0	33348	
2101	0	33376	
2102	0	33416	
2103	0	33420	
2104	0	33404	
2105	0	33400	
2106	0	33448	
2107	0	33480	
2108	0	33486	
2109	0	33472	
2110	0	33456	
2111	0	33448	
2112	0	33460	
2113	0	33440	
2114	0	33450	
2115	0	33456	
2116	0	33472	
2117	0	33492	
2118	0	33512	
2119	0	33504	
2120	0	33512	
2121	0	33524	
2122	0	33580	
2123	0	33580	
2124	0	33600	
2125	0	33632	
2126	0	33668	
2127	0	33696	
2128	0	33712	
2129	0	33728	
2130	0	33744	
2131	0	33712	
2132	0	33692	
2133	0	33690	
2134	0	33724	
2135	0	33740	
2136	0	33760	
2137	0	33780	
2138	0	33790	
2139	0	33804	
2140	0	33818	
2141	0	33824	
2142	0	33848	
2143	0	33896	
2144	0	33940	
2145	0	33980	
2146	0	33996	
2147	0	33992	
2148	0	33980	
2149	0	33982	
2150	0	33996	
2151	0	34004	
2152	0	34004	
2153	0	33992	
2154	0	33996	
2155	0	34010	
2156	0	34012	
2157	0	34004	
2158	0	34012	
2159	0	33988	
2160	0	33988	
2161	0	34008	
2162	0	34024	
2163	0	34042	
2164	0	34036	
2165	0	34030	
2166	0	34024	
2167	0	34048	
2168	0	34058	
2169	0	34072	
2170	0	34056	
2171	0	34088	
2172	0	34112	
2173	0	34116	
2174	0	34114	
2175	0	34148	
2176	0	34164	
2177	0	34144	
2178	0	34168	
2179	0	34188	
2180	0	34196	
2181	0	34201	
2182	0	34192	
2183	0	34188	
2184	0	34196	
2185	0	34234	
2186	0	34242	
2187	0	34264	
2188	0	34264	
2189	0	34260	
2190	0	34252	
2191	0	34276	
2192	0	34320	
2193	0	34324	
2194	0	34312	
2195	0	34304	
2196	0	34316	
2197	0	34308	
2198	0	34288	
2199	0	34264	
2200	0	34220	
2201	0	34184	
2202	0	34172	
2203	0	34160	
2204	0	34112	
2205	0	34088	
2206	0	34052	
2207	0	34008	
2208	0	33944	
2209	0	33868	
2210	0	33792	
2211	0	33738	
2212	0	33652	
2213	0	33584	
2214	0	33504	
2215	0	33428	
2216	0	33348	
2217	0	33276	
2218	0	33212	
2219	0	33136	
2220	0	33060	
2221	0	32960	
2222	0	32844	
2223	0	32736	
2224	0	32662	
2225	0	32576	
2226	0	32508	
2227	0	32432	
2228	0	32336	
2229	0	32248	
2230	0	32186	
2231	0	32108	
2232	0	32028	
2233	0	31936	
2234	0	31832	
2235	0	31728	
2236	0	31640	
2237	0	31590	
2238	0	31516	
2239	0	31456	
2240	0	31384	
2241	0	31308	
2242	0	31236	
2243	0	31180	
2244	0	31112	
2245	0	31044	
2246	0	31012	
2247	0	31004	
2248	0	30984	
2249	0	30946	
2250	0	30908	
2251	0	30892	
2252	0	30896	
2253	0	30878	
2254	0	30840	
2255	0	30796	
2256	0	30772	
2257	0	30762	
2258	0	30768	
2259	0	30786	
2260	0	30804	
2261	0	30812	
2262	0	30800	
2263	0	30812	
2264	0	30840	
2265	0	30848	
2266	0	30848	
2267	0	30829	
2268	0	30800	
2269	0	30800	
2270	0	30796	
2271	0	30784	
2272	0	30752	
2273	0	30740	
2274	0	30736	
2275	0	30737	
2276	0	30764	
2277	0	30804	
2278	0	30856	
2279	0	30904	
2280	0	30932	
2281	0	30928	
2282	0	30912	
2283	0	30902	
2284	0	30896	
2285	0	30904	
2286	0	30920	
2287	0	30920	
2288	0	30892	
2289	0	30884	
2290	0	30904	
2291	0	30924	
2292	0	30948	
2293	0	30960	
2294	0	30984	
2295	0	30992	
2296	0	30996	
2297	0	31028	
2298	0	31048	
2299	0	31116	
2300	0	31140	
2301	0	31152	
2302	0	31154	
2303	0	31180	
2304	0	31196	
2305	0	31224	
2306	0	31268	
2307	0	31320	
2308	0	31360	
2309	0	31392	
2310	0	31396	
2311	0	31390	
2312	0	31396	
2313	0	31400	
2314	0	31384	
2315	0	31364	
2316	0	31368	
2317	0	31384	
2318	0	31416	
2319	0	31456	
2320	0	31488	
2321	0	31500	
2322	0	31472	
2323	0	31512	
2324	0	31552	
2325	0	31584	
2326	0	31628	
2327	0	31624	
2328	0	31620	
2329	0	31640	
2330	0	31648	
2331	0	31656	
2332	0	31672	
2333	0	31676	
2334	0	31712	
2335	0	31712	
2336	0	31712	
2337	0	31700	
2338	0	31692	
2339	0	31696	
2340	0	31708	
2341	0	31744	
2342	0	31764	
2343	0	31812	
2344	0	31840	
2345	0	31848	
2346	0	31876	
2347	0	31892	
2348	0	31916	
2349	0	31960	
2350	0	31976	
2351	0	31976	
2352	0	31976	
2353	0	32004	
2354	0	32014	
2355	0	32000	
2356	0	32008	
2357	0	32008	
2358	0	31996	
2359	0	32024	
2360	0	32032	
2361	0	32016	
2362	0	31984	
2363	0	32032	
2364	0	32038	
2365	0	32040	
2366	0	32024	
2367	0	32021	
2368	0	32032	
2369	0	32024	
2370	0	31994	
2371	0	31980	
2372	0	31968	
2373	0	31978	
2374	0	31960	
2375	0	31966	
2376	0	31984	
2377	0	31986	
2378	0	31956	
2379	0	31936	
2380	0	31884	
2381	0	31852	
2382	0	31852	
2383	0	31876	
2384	0	31916	
2385	0	31954	
2386	0	31976	
2387	0	31992	
2388	0	32024	
2389	0	32050	
2390	0	32080	
2391	0	32118	
2392	0	32152	
2393	0	32180	
2394	0	32192	
2395	0	32192	
2396	0	32184	
2397	0	32172	
2398	0	32146	
2399	0	32096	
2400	0	32056	
2401	0	32008	
2402	0	31956	
2403	0	31896	
2404	0	31860	
2405	0	31856	
2406	0	31864	
2407	0	31880	
2408	0	31904	
2409	0	31906	
2410	0	31900	
2411	0	31892	
2412	0	31880	
2413	0	31880	
2414	0	31906	
2415	0	31904	
2416	0	31904	
2417	0	31916	
2418	0	31936	
2419	0	31984	
2420	0	32008	
2421	0	32040	
2422	0	32072	
2423	0	32084	
2424	0	32092	
2425	0	32100	
2426	0	32152	
2427	0	32168	
2428	0	32162	
2429	0	32146	
2430	0	32140	
2431	0	32092	
2432	0	32078	
2433	0	32028	
2434	0	31962	
2435	0	31928	
2436	0	31888	
2437	0	31904	
2438	0	31904	
2439	0	31936	
2440	0	31964	
2441	0	31976	
2442	0	31980	
2443	0	31976	
2444	0	31984	
2445	0	31984	
2446	0	31968	
2447	0	31932	
2448	0	31900	
2449	0	31860	
2450	0	31868	
2451	0	31904	
2452	0	31908	
2453	0	31924	
2454	0	31960	
2455	0	32032	
2456	0	32094	
2457	0	32112	
2458	0	32160	
2459	0	32204	
2460	0	32208	
2461	0	32220	
2462	0	32232	
2463	0	32216	
2464	0	32204	
2465	0	32168	
2466	0	32138	
2467	0	32126	
2468	0	32128	
2469	0	32136	
2470	0	32136	
2471	0	32160	
2472	0	32192	
2473	0	32208	
2474	0	32224	
2475	0	32196	
2476	0	32180	
2477	0	32208	
2478	0	32240	
2479	0	32244	
2480	0	32232	
2481	0	32218	
2482	0	32240	
2483	0	32256	
2484	0	32260	
2485	0	32266	
2486	0	32228	
2487	0	32194	
2488	0	32208	
2489	0	32248	
2490	0	32300	
2491	0	32356	
2492	0	32384	
2493	0	32376	
2494	0	32336	
2495	0	32280	
2496	0	32196	
2497	0	32172	
2498	0	32180	
2499	0	32208	
2500	0	32220	
2501	0	32228	
2502	0	32232	
2503	0	32226	
2504	0	32228	
2505	0	32248	
2506	0	32250	
2507	0	32268	
2508	0	32272	
2509	0	32300	
2510	0	32352	
2511	0	32388	
2512	0	32392	
2513	0	32400	
2514	0	32384	
2515	0	32372	
2516	0	32356	
2517	0	32352	
2518	0	32362	
2519	0	32392	
2520	0	32420	
2521	0	32412	
2522	0	32416	
2523	0	32396	
2524	0	32448	
2525	0	32448	
2526	0	32428	
2527	0	32444	
2528	0	32452	
2529	0	32464	
2530	0	32496	
2531	0	32500	
2532	0	32512	
2533	0	32504	
2534	0	32538	
2535	0	32584	
2536	0	32620	
2537	0	32644	
2538	0	32660	
2539	0	32664	
2540	0	32656	
2541	0	32654	
2542	0	32616	
2543	0	32544	
2544	0	32506	
2545	0	32488	
2546	0	32496	
2547	0	32512	
2548	0	32520	
2549	0	32512	
2550	0	32536	
2551	0	32548	
2552	0	32552	
2553	0	32548	
2554	0	32538	
2555	0	32520	
2556	0	32538	
2557	0	32544	
2558	0	32546	
2559	0	32564	
2560	0	32616	
2561	0	32632	
2562	0	32612	
2563	0	32588	
2564	0	32572	
2565	0	32584	
2566	0	32608	
2567	0	32632	
2568	0	32612	
2569	0	32608	
2570	0	32620	
2571	0	32632	
2572	0	32668	
2573	0	32664	
2574	0	32656	
2575	0	32688	
2576	0	32716	
2577	0	32720	
2578	0	32698	
2579	0	32712	
2580	0	32752	
2581	0	32768	
2582	0	32736	
2583	0	32708	
2584	0	32716	
2585	0	32704	
2586	0	32724	
2587	0	32752	
2588	0	32772	
2589	0	32776	
2590	0	32776	
2591	0	32788	
2592	0	32802	
2593	0	32820	
2594	0	32840	
2595	0	32824	
2596	0	32816	
2597	0	32828	
2598	0	32824	
2599	0	32836	
2600	0	32860	
2601	0	32852	
2602	0	32816	
2603	0	32804	
2604	0	32772	
2605	0	32728	
2606	0	32756	
2607	0	32780	
2608	0	32764	
2609	0	32760	
2610	0	32712	
2611	0	32692	
2612	0	32692	
2613	0	32676	
2614	0	32700	
2615	0	32712	
2616	0	32732	
2617	0	32740	
2618	0	32756	
2619	0	32768	
2620	0	32824	
2621	0	32868	
2622	0	32876	
2623	0	32892	
2624	0	32916	
2625	0	32916	
2626	0	32920	
2627	0	32912	
2628	0	32912	
2629	0	32896	
2630	0	32892	
2631	0	32896	
2632	0	32904	
2633	0	32872	
2634	0	32864	
2635	0	32848	
2636	0	32868	
2637	0	32880	
2638	0	32848	
2639	0	32800	
2640	0	32752	
2641	0	32788	
2642	0	32832	
2643	0	32848	
2644	0	32848	
2645	0	32836	
2646	0	32856	
2647	0	32892	
2648	0	32932	
2649	0	32964	
2650	0	32960	
2651	0	32980	
2652	0	33012	
2653	0	33008	
2654	0	32992	
2655	0	32976	
2656	0	32926	
2657	0	32856	
2658	0	32832	
2659	0	32848	
2660	0	32852	
2661	0	32832	
2662	0	32792	
2663	0	32744	
2664	0	32696	
2665	0	32740	
2666	0	32832	
2667	0	32896	
2668	0	32948	
2669	0	32936	
2670	0	32924	
2671	0	32936	
2672	0	32960	
2673	0	32980	
2674	0	32996	
2675	0	32980	
2676	0	32940	
2677	0	32904	
2678	0	32872	
2679	0	32904	
2680	0	32952	
2681	0	32956	
2682	0	32948	
2683	0	32924	
2684	0	32888	
2685	0	32832	
2686	0	32824	
2687	0	32820	
2688	0	32828	
2689	0	32868	
2690	0	32952	
2691	0	32988	
2692	0	32988	
2693	0	32960	
2694	0	32946	
2695	0	32936	
2696	0	32912	
2697	0	32888	
2698	0	32913	
2699	0	32940	
2700	0	32976	
2701	0	33038	
2702	0	33080	
2703	0	33052	
2704	0	33028	
2705	0	33000	
2706	0	33002	
2707	0	32984	
2708	0	32972	
2709	0	32948	
2710	0	32928	
2711	0	32912	
2712	0	32904	
2713	0	32916	
2714	0	32930	
2715	0	32932	
2716	0	32956	
2717	0	32946	
2718	0	32960	
2719	0	33004	
2720	0	33024	
2721	0	32996	
2722	0	32984	
2723	0	33000	
2724	0	32936	
2725	0	32916	
2726	0	32890	
2727	0	32904	
2728	0	32940	
2729	0	33004	
2730	0	33060	
2731	0	33120	
2732	0	33188	
2733	0	33200	
2734	0	33168	
2735	0	33124	
2736	0	33044	
2737	0	33008	
2738	0	32972	
2739	0	32936	
2740	0	32902	
2741	0	32880	
2742	0	32884	
2743	0	32872	
2744	0	32872	
2745	0	32876	
2746	0	32856	
2747	0	32868	
2748	0	32918	
2749	0	32968	
2750	0	32972	
2751	0	32992	
2752	0	33032	
2753	0	33092	
2754	0	33164	
2755	0	33210	
2756	0	33240	
2757	0	33292	
2758	0	33296	
2759	0	33316	
2760	0	33324	
2761	0	33308	
2762	0	33316	
2763	0	33274	
2764	0	33216	
2765	0	33132	
2766	0	33088	
2767	0	33016	
2768	0	32936	
2769	0	32930	
2770	0	32956	
2771	0	32960	
2772	0	32936	
2773	0	32896	
2774	0	32852	
2775	0	32848	
2776	0	32896	
2777	0	32944	
2778	0	32960	
2779	0	32976	
2780	0	33060	
2781	0	33116	
2782	0	33164	
2783	0	33176	
2784	0	33176	
2785	0	33186	
2786	0	33216	
2787	0	33216	
2788	0	33184	
2789	0	33132	
2790	0	33072	
2791	0	32996	
2792	0	32944	
2793	0	32904	
2794	0	32868	
2795	0	32856	
2796	0	32896	
2797	0	32924	
2798	0	32952	
2799	0	32964	
2800	0	32976	
2801	0	32976	
2802	0	32984	
2803	0	33016	
2804	0	33016	
2805	0	33028	
2806	0	33030	
2807	0	33040	
2808	0	33052	
2809	0	33052	
2810	0	33064	
2811	0	33068	
2812	0	33076	
2813	0	33104	
2814	0	33152	
2815	0	33192	
2816	0	33184	
2817	0	33196	
2818	0	33200	
2819	0	33166	
2820	0	33148	
2821	0	33136	
2822	0	33088	
2823	0	33068	
2824	0	33016	
2825	0	33020	
2826	0	33044	
2827	0	33052	
2828	0	33056	
2829	0	33072	
2830	0	33080	
2831	0	33120	
2832	0	33156	
2833	0	33194	
2834	0	33200	
2835	0	33200	
2836	0	33200	
2837	0	33174	
2838	0	33116	
2839	0	33048	
2840	0	33044	
2841	0	33040	
2842	0	33064	
2843	0	33082	
2844	0	33072	
2845	0	33072	
2846	0	33112	
2847	0	33152	
2848	0	33220	
2849	0	33268	
2850	0	33276	
2851	0	33248	
2852	0	33232	
2853	0	33192	
2854	0	33160	
2855	0	33124	
2856	0	33086	
2857	0	33128	
2858	0	33164	
2859	0	33200	
2860	0	33184	
2861	0	33216	
2862	0	33216	
2863	0	33176	
2864	0	33208	
2865	0	33312	
2866	0	33388	
2867	0	33460	
2868	0	33532	
2869	0	33600	
2870	0	33636	
2871	0	33664	
2872	0	33696	
2873	0	33696	
2874	0	33676	
2875	0	33636	
2876	0	33612	
2877	0	33556	
2878	0	33520	
2879	0	33508	
2880	0	33520	
2881	0	33544	
2882	0	33608	
2883	0	33624	
2884	0	33648	
2885	0	33684	
2886	0	33752	
2887	0	33800	
2888	0	33868	
2889	0	33954	
2890	0	34024	
2891	0	34048	
2892	0	34020	
2893	0	33984	
2894	0	33876	
2895	0	33768	
2896	0	33692	
2897	0	33616	
2898	0	33542	
2899	0	33496	
2900	0	33484	
2901	0	33484	
2902	0	33484	
2903	0	33504	
2904	0	33524	
2905	0	33508	
2906	0	33460	
2907	0	33384	
2908	0	33288	
2909	0	33216	
2910	0	33208	
2911	0	33188	
2912	0	33184	
2913	0	33160	
2914	0	33120	
2915	0	33076	
2916	0	33072	
2917	0	33036	
2918	0	33020	
2919	0	33008	
2920	0	33008	
2921	0	33044	
2922	0	33076	
2923	0	33084	
2924	0	33100	
2925	0	33148	
2926	0	33214	
2927	0	33248	
2928	0	33244	
2929	0	33208	
2930	0	33166	
2931	0	33124	
2932	0	33092	
2933	0	33056	
2934	0	33028	
2935	0	33028	
2936	0	32988	
2937	0	32908	
2938	0	32788	
2939	0	32680	
2940	0	32596	
2941	0	32548	
2942	0	32496	
2943	0	32424	
2944	0	32420	
2945	0	32488	
2946	0	32572	
2947	0	32612	
2948	0	32672	
2949	0	32728	
2950	0	32732	
2951	0	32756	
2952	0	32716	
2953	0	32684	
2954	0	32696	
2955	0	32676	
2956	0	32668	
2957	0	32684	
2958	0	32682	
2959	0	32704	
2960	0	32680	
2961	0	32644	
2962	0	32684	
2963	0	32700	
2964	0	32716	
2965	0	32728	
2966	0	32696	
2967	0	32636	
2968	0	32576	
2969	0	32528	
2970	0	32532	
2971	0	32608	
2972	0	32648	
2973	0	32668	
2974	0	32648	
2975	0	32620	
2976	0	32610	
2977	0	32586	
2978	0	32608	
2979	0	32604	
2980	0	32604	
2981	0	32654	
2982	0	32700	
2983	0	32724	
2984	0	32712	
2985	0	32692	
2986	0	32740	
2987	0	32824	
2988	0	32884	
2989	0	32976	
2990	0	33028	
2991	0	33016	
2992	0	32994	
2993	0	32960	
2994	0	32912	
2995	0	32888	
2996	0	32860	
2997	0	32836	
2998	0	32862	
2999	0	32882	
3000	0	32960	
3001	0	33004	
3002	0	33004	
3003	0	32992	
3004	0	32952	
3005	0	32916	
3006	0	32864	
3007	0	32692	
3008	0	32508	
3009	0	32296	
3010	0	32132	
3011	0	32002	
3012	0	31900	
3013	0	31936	
3014	0	32140	
3015	0	32490	
3016	0	32812	
3017	0	33120	
3018	0	33400	
3019	0	33656	
3020	0	33896	
3021	0	34036	
3022	0	34152	
3023	0	34388	
3024	0	34808	
3025	0	35472	
3026	0	36328	
3027	0	37408	
3028	0	38656	
3029	0	40016	
3030	0	41530	
3031	0	43216	
3032	0	45036	
3033	0	46830	
3034	0	48640	
3035	0	50560	
3036	0	52608	
3037	0	54472	
3038	0	56024	
3039	0	57244	
3040	0	58272	
3041	0	59336	
3042	0	60188	
3043	0	60740	
3044	0	60756	
3045	0	59812	
3046	0	57868	
3047	0	54944	
3048	0	51416	
3049	0	47552	
3050	0	43676	
3051	0	39980	
3052	0	36720	
3053	0	34026	
3054	0	32044	
3055	0	30676	
3056	0	29628	
3057	0	28832	
3058	0	28400	
3059	0	28300	
3060	0	28416	
3061	0	28768	
3062	0	29204	
3063	0	29584	
3064	0	29916	
3065	0	30160	
3066	0	30350	
3067	0	30484	
3068	0	30536	
3069	0	30526	
3070	0	30532	
3071	0	30592	
3072	0	30644	
3073	0	30734	
3074	0	30812	
3075	0	30832	
3076	0	30848	
3077	0	30864	
3078	0	30860	
3079	0	30816	
3080	0	30780	
3081	0	30736	
3082	0	30682	
3083	0	30640	
3084	0	30608	
3085	0	30596	
3086	0	30560	
3087	0	30560	
3088	0	30604	
3089	0	30632	
3090	0	30640	
3091	0	30632	
3092	0	30616	
3093	0	30618	
3094	0	30676	
3095	0	30704	
3096	0	30728	
3097	0	30800	
3098	0	30872	
3099	0	30896	
3100	0	30872	
3101	0	30816	
3102	0	30760	
3103	0	30704	
3104	0	30696	
3105	0	30742	
3106	0	30812	
3107	0	30852	
3108	0	30888	
3109	0	30908	
3110	0	30924	
3111	0	30940	
3112	0	30952	
3113	0	30952	
3114	0	30948	
3115	0	30936	
3116	0	30912	
3117	0	30944	
3118	0	31008	
3119	0	31040	
3120	0	31100	
3121	0	31132	
3122	0	31136	
3123	0	31108	
3124	0	31092	
3125	0	31084	
3126	0	31104	
3127	0	31156	
3128	0	31217	
3129	0	31304	
3130	0	31320	
3131	0	31356	
3132	0	31412	
3133	0	31456	
3134	0	31536	
3135	0	31540	
3136	0	31504	
3137	0	31496	
3138	0	31588	
3139	0	31708	
3140	0	31780	
3141	0	31842	
3142	0	31868	
3143	0	31840	
3144	0	31778	
3145	0	31688	
3146	0	31652	
3147	0	31636	
3148	0	31612	
3149	0	31556	
3150	0	31544	
3151	0	31556	
3152	0	31584	
3153	0	31632	
3154	0	31688	
3155	0	31740	
3156	0	31808	
3157	0	31860	
3158	0	31905	
3159	0	31956	
3160	0	32002	
3161	0	32108	
3162	0	32192	
3163	0	32244	
3164	0	32256	
3165	0	32224	
3166	0	32224	
3167	0	32200	
3168	0	32208	
3169	0	32268	
3170	0	32332	
3171	0	32336	
3172	0	32316	
3173	0	32288	
3174	0	32254	
3175	0	32226	
3176	0	32264	
3177	0	32324	
3178	0	32368	
3179	0	32424	
3180	0	32502	
3181	0	32564	
3182	0	32584	
3183	0	32588	
3184	0	32596	
3185	0	32608	
3186	0	32640	
3187	0	32644	
3188	0	32652	
3189	0	32672	
3190	0	32688	
3191	0	32756	
3192	0	32820	
3193	0	32884	
3194	0	32928	
3195	0	32940	
3196	0	32960	
3197	0	32976	
3198	0	32968	
3199	0	32968	
3200	0	32968	
3201	0	32924	
3202	0	32888	
3203	0	32836	
3204	0	32832	
3205	0	32880	
3206	0	32960	
3207	0	33028	
3208	0	33044	
3209	0	33048	
3210	0	33038	
3211	0	32992	
3212	0	32952	
3213	0	32896	
3214	0	32840	
3215	0	32860	
3216	0	32936	
3217	0	33024	
3218	0	33076	
3219	0	33090	
3220	0	33108	
3221	0	33122	
3222	0	33140	
3223	0	33164	
3224	0	33132	
3225	0	33104	
3226	0	33056	
3227	0	33056	
3228	0	33056	
3229	0	33072	
3230	0	33152	
3231	0	33218	
3232	0	33264	
3233	0	33308	
3234	0	33344	
3235	0	33392	
3236	0	33420	
3237	0	33416	
3238	0	33384	
3239	0	33352	
3240	0	33320	
3241	0	33340	
3242	0	33312	
3243	0	33248	
3244	0	33186	
3245	0	33156	
3246	0	33144	
3247	0	33168	
3248	0	33234	
3249	0	33280	
3250	0	33320	
3251	0	33380	
3252	0	33446	
3253	0	33504	
3254	0	33584	
3255	0	33656	
3256	0	33698	
3257	0	33720	
3258	0	33736	
3259	0	33752	
3260	0	33728	
3261	0	33698	
3262	0	33648	
3263	0	33576	
3264	0	33488	
3265	0	33440	
3266	0	33432	
3267	0	33436	
3268	0	33496	
3269	0	33500	
3270	0	33508	
3271	0	33564	
3272	0	33616	
3273	0	33680	
3274	0	33740	
3275	0	33796	
3276	0	33818	
3277	0	33784	
3278	0	33788	
3279	0	33800	
3280	0	33808	
3281	0	33756	
3282	0	33728	
3283	0	33742	
3284	0	33728	
3285	0	33752	
3286	0	33776	
3287	0	33764	
3288	0	33760	
3289	0	33740	
3290	0	33752	
3291	0	33796	
3292	0	33840	
3293	0	33856	
3294	0	33848	
3295	0	33852	
3296	0	33892	
3297	0	33936	
3298	0	33948	
3299	0	34000	
3300	0	34040	
3301	0	34064	
3302	0	34064	
3303	0	34032	
3304	0	33964	
3305	0	33844	
3306	0	33764	
3307	0	33728	
3308	0	33708	
3309	0	33704	
3310	0	33664	
3311	0	33580	
3312	0	33548	
3313	0	33576	
3314	0	33576	
3315	0	33588	
3316	0	33596	
3317	0	33636	
3318	0	33664	
3319	0	33690	
3320	0	33672	
3321	0	33620	
3322	0	33508	
3323	0	33388	
3324	0	33306	
3325	0	33250	
3326	0	33178	
3327	0	33100	
3328	0	33064	
3329	0	33006	
3330	0	32964	
3331	0	32920	
3332	0	32872	
3333	0	32820	
3334	0	32746	
3335	0	32676	
3336	0	32560	
3337	0	32440	
3338	0	32316	
3339	0	32162	
3340	0	32004	
3341	0	31872	
3342	0	31786	
3343	0	31716	
3344	0	31648	
3345	0	31638	
3346	0	31660	
3347	0	31612	
3348	0	31548	
3349	0	31532	
3350	0	31488	
3351	0	31456	
3352	0	31420	
3353	0	31344	
3354	0	31290	
3355	0	31218	
3356	0	31124	
3357	0	31056	
3358	0	31010	
3359	0	30940	
3360	0	30864	
3361	0	30754	
3362	0	30628	
3363	0	30556	
3364	0	30464	
3365	0	30392	
3366	0	30364	
3367	0	30348	
3368	0	30340	
3369	0	30352	
3370	0	30372	
3371	0	30372	
3372	0	30348	
3373	0	30332	
3374	0	30300	
3375	0	30264	
3376	0	30272	
3377	0	30256	
3378	0	30216	
3379	0	30156	
3380	0	30120	
3381	0	30088	
3382	0	30076	
3383	0	30112	
3384	0	30136	
3385	0	30160	
3386	0	30136	
3387	0	30108	
3388	0	30136	
3389	0	30185	
3390	0	30288	
3391	0	30384	
3392	0	30416	
3393	0	30408	
3394	0	30392	
3395	0	30408	
3396	0	30388	
3397	0	30372	
3398	0	30300	
3399	0	30220	
3400	0	30228	
3401	0	30282	
3402	0	30360	
3403	0	30456	
3404	0	30532	
3405	0	30560	
3406	0	30608	
3407	0	30662	
3408	0	30704	
3409	0	30688	
3410	0	30656	
3411	0	30616	
3412	0	30556	
3413	0	30486	
3414	0	30464	
3415	0	30476	
3416	0	30522	
3417	0	30566	
3418	0	30656	
3419	0	30724	
3420	0	30796	
3421	0	30860	
3422	0	30892	
3423	0	30904	
3424	0	30928	
3425	0	30938	
3426	0	30960	
3427	0	30944	
3428	0	30936	
3429	0	30952	
3430	0	30948	
3431	0	30996	
3432	0	31060	
3433	0	31120	
3434	0	31136	
3435	0	31160	
3436	0	31192	
3437	0	31240	
3438	0	31320	
3439	0	31388	
3440	0	31456	
3441	0	31512	
3442	0	31564	
3443	0	31610	
3444	0	31640	
3445	0	31672	
3446	0	31688	
3447	0	31700	
3448	0	31736	
3449	0	31756	
3450	0	31760	
3451	0	31768	
3452	0	31764	
3453	0	31776	
3454	0	31776	
3455	0	31744	
3456	0	31732	
3457	0	31760	
3458	0	31732	
3459	0	31700	
3460	0	31664	
3461	0	31652	
3462	0	31624	
3463	0	31684	
3464	0	31748	
3465	0	31764	
3466	0	31768	
3467	0	31792	
3468	0	31808	
3469	0	31876	
3470	0	31936	
3471	0	31956	
3472	0	32000	
3473	0	32020	
3474	0	32100	
3475	0	32148	
3476	0	32136	
3477	0	32108	
3478	0	32124	
3479	0	32136	
3480	0	32144	
3481	0	32120	
3482	0	32092	
3483	0	32004	
3484	0	31976	
3485	0	31964	
3486	0	31960	
3487	0	31970	
3488	0	31992	
3489	0	32008	
3490	0	32020	
3491	0	31994	
3492	0	32010	
3493	0	32002	
3494	0	32002	
3495	0	31984	
3496	0	31944	
3497	0	31888	
3498	0	31852	
3499	0	31794	
3500	0	31712	
3501	0	31710	
3502	0	31704	
3503	0	31720	
3504	0	31772	
3505	0	31796	
3506	0	31800	
3507	0	31792	
3508	0	31782	
3509	0	31788	
3510	0	31736	
3511	0	31716	
3512	0	31756	
3513	0	31776	
3514	0	31808	
3515	0	31784	
3516	0	31810	
3517	0	31832	
3518	0	31836	
3519	0	31860	
3520	0	31844	
3521	0	31844	
3522	0	31804	
3523	0	31778	
3524	0	31784	
3525	0	31800	
3526	0	31774	
3527	0	31746	
3528	0	31736	
3529	0	31760	
3530	0	31808	
3531	0	31828	
3532	0	31828	
3533	0	31840	
3534	0	31828	
3535	0	31792	
3536	0	31748	
3537	0	31708	
3538	0	31652	
3539	0	31624	
3540	0	31636	
3541	0	31664	
3542	0	31672	
3543	0	31664	
3544	0	31676	
3545	0	31664	
3546	0	31636	
3547	0	31612	
3548	0	31624	
3549	0	31696	
3550	0	31728	
3551	0	31712	
3552	0	31688	
3553	0	31672	
3554	0	31596	
3555	0	31572	
3556	0	31564	
3557	0	31532	
3558	0	31544	
3559	0	31612	
3560	0	31720	
3561	0	31804	
3562	0	31844	
3563	0	31912	
3564	0	31962	
3565	0	31952	
3566	0	31884	
3567	0	31832	
3568	0	31764	
3569	0	31686	
3570	0	31658	
3571	0	31640	
3572	0	31668	
3573	0	31692	
3574	0	31732	
3575	0	31744	
3576	0	31740	
3577	0	31784	
3578	0	31852	
3579	0	31876	
3580	0	31868	
3581	0	31840	
3582	0	31856	
3583	0	31906	
3584	0	31930	
3585	0	31968	
3586	0	31988	
3587	0	31996	
3588	0	32004	
3589	0	31976	
3590	0	31964	
3591	0	31924	
3592	0	31860	
3593	0	31840	
3594	0	31868	
3595	0	31854	
3596	0	31824	
3597	0	31868	
3598	0	31884	
3599	0	31876	
3600	0	31828	
3601	0	31780	
3602	0	31708	
3603	0	31636	
3604	0	31584	
3605	0	31580	
3606	0	31604	
3607	0	31628	
3608	0	31668	
3609	0	31756	
3610	0	31832	
3611	0	31896	
3612	0	31980	
3613	0	32016	
3614	0	32032	
3615	0	32080	
3616	0	32112	
3617	0	32116	
3618	0	32104	
3619	0	32088	
3620	0	32068	
3621	0	32040	
3622	0	32008	
3623	0	31992	
3624	0	32008	
3625	0	32012	
3626	0	31984	
3627	0	31966	
3628	0	31968	
3629	0	31960	
3630	0	31956	
3631	0	31924	
3632	0	31944	
3633	0	32020	
3634	0	32080	
3635	0	32144	
3636	0	32196	
3637	0	32272	
3638	0	32348	
3639	0	32396	
3640	0	32404	
3641	0	32376	
3642	0	32304	
3643	0	32250	
3644	0	32248	
3645	0	32200	
3646	0	32112	
3647	0	32076	
3648	0	32080	
3649	0	32092	
3650	0	32072	
3651	0	32076	
3652	0	32080	
3653	0	32072	
3654	0	32096	
3655	0	32128	
3656	0	32198	
3657	0	32284	
3658	0	32352	
3659	0	32400	
3660	0	32378	
3661	0	32356	
3662	0	32356	
3663	0	32364	
3664	0	32344	
3665	0	32320	
3666	0	32320	
3667	0	32344	
3668	0	32346	
3669	0	32348	
3670	0	32360	
3671	0	32336	
3672	0	32320	
3673	0	32312	
3674	0	32280	
3675	0	32224	
3676	0	32188	
3677	0	32164	
3678	0	32184	
3679	0	32216	
3680	0	32220	
3681	0	32222	
3682	0	32248	
3683	0	32264	
3684	0	32292	
3685	0	32334	
3686	0	32328	
3687	0	32316	
3688	0	32304	
3689	0	32344	
3690	0	32376	
3691	0	32352	
3692	0	32344	
3693	0	32344	
3694	0	32316	
3695	0	32296	
3696	0	32280	
3697	0	32282	
3698	0	32276	
3699	0	32236	
3700	0	32224	
3701	0	32232	
3702	0	32256	
3703	0	32320	
3704	0	32360	
3705	0	32436	
3706	0	32516	
3707	0	32544	
3708	0	32604	
3709	0	32668	
3710	0	32716	
3711	0	32776	
3712	0	32872	
3713	0	32940	
3714	0	32980	
3715	0	33024	
3716	0	33052	
3717	0	33000	
3718	0	32924	
3719	0	32868	
3720	0	32856	
3721	0	32872	
3722	0	32892	
3723	0	32932	
3724	0	32980	
3725	0	33062	
3726	0	33136	
3727	0	33174	
3728	0	33184	
3729	0	33200	
3730	0	33240	
3731	0	33336	
3732	0	33432	
3733	0	33530	
3734	0	33612	
3735	0	33684	
3736	0	33706	
3737	0	33752	
3738	0	33788	
3739	0	33780	
3740	0	33752	
3741	0	33672	
3742	0	33544	
3743	0	33408	
3744	0	33258	
3745	0	33112	
3746	0	32960	
3747	0	32856	
3748	0	32828	
3749	0	32836	
3750	0	32828	
3751	0	32800	
3752	0	32792	
3753	0	32720	
3754	0	32680	
3755	0	32674	
3756	0	32686	
3757	0	32706	
3758	0	32760	
3759	0	32780	
3760	0	32766	
3761	0	32792	
3762	0	32832	
3763	0	32844	
3764	0	32844	
3765	0	32884	
3766	0	32864	
3767	0	32870	
3768	0	32880	
3769	0	32844	
3770	0	32792	
3771	0	32748	
3772	0	32728	
3773	0	32672	
3774	0	32616	
3775	0	32544	
3776	0	32500	
3777	0	32466	
3778	0	32444	
3779	0	32428	
3780	0	32416	
3781	0	32400	
3782	0	32360	
3783	0	32296	
3784	0	32264	
3785	0	32280	
3786	0	32284	
3787	0	32282	
3788	0	32268	
3789	0	32266	
3790	0	32288	
3791	0	32280	
3792	0	32260	
3793	0	32224	
3794	0	32192	
3795	0	32176	
3796	0	32192	
3797	0	32194	
3798	0	32184	
3799	0	32208	
3800	0	32276	
3801	0	32384	
3802	0	32408	
3803	0	32384	
3804	0	32344	
3805	0	32324	
3806	0	32320	
3807	0	32328	
3808	0	32376	
3809	0	32412	
3810	0	32412	
3811	0	32408	
3812	0	32388	
3813	0	32332	
3814	0	32264	
3815	0	32224	
3816	0	32216	
3817	0	32208	
3818	0	32182	
3819	0	32164	
3820	0	32172	
3821	0	32164	
3822	0	32200	
3823	0	32212	
3824	0	32276	
3825	0	32312	
3826	0	32340	
3827	0	32380	
3828	0	32432	
3829	0	32448	
3830	0	32460	
3831	0	32476	
3832	0	32514	
3833	0	32560	
3834	0	32568	
3835	0	32560	
3836	0	32522	
3837	0	32488	
3838	0	32476	
3839	0	32504	
3840	0	32524	
3841	0	32524	
3842	0	32516	
3843	0	32464	
3844	0	32440	
3845	0	32448	
3846	0	32504	
3847	0	32576	
3848	0	32664	
3849	0	32728	
3850	0	32764	
3851	0	32804	
3852	0	32816	
3853	0	32800	
3854	0	32732	
3855	0	32624	
3856	0	32456	
3857	0	32296	
3858	0	32160	
3859	0	32064	
3860	0	32068	
3861	0	32320	
3862	0	32724	
3863	0	33156	
3864	0	33504	
3865	0	33856	
3866	0	34236	
3867	0	34600	
3868	0	34876	
3869	0	34996	
3870	0	35176	
3871	0	35584	
3872	0	36256	
3873	0	37132	
3874	0	38196	
3875	0	39484	
3876	0	40960	
3877	0	42588	
3878	0	44312	
3879	0	46148	
3880	0	48068	
3881	0	50032	
3882	0	52124	
3883	0	54208	
3884	0	56056	
3885	0	57664	
3886	0	58944	
3887	0	59960	
3888	0	61004	
3889	0	62068	
3890	0	62772	
3891	0	62912	
3892	0	62008	
3893	0	59996	
3894	0	57024	
3895	0	53320	
3896	0	49176	
3897	0	44932	
3898	0	40876	
3899	0	37324	
3900	0	34568	
3901	0	32580	
3902	0	31104	
3903	0	30072	
3904	0	29436	
3905	0	29080	
3906	0	28920	
3907	0	28912	
3908	0	29060	
3909	0	29284	
3910	0	29516	
3911	0	29682	
3912	0	29820	
3913	0	29916	
3914	0	29974	
3915	0	30000	
3916	0	30096	
3917	0	30202	
3918	0	30312	
3919	0	30388	
3920	0	30460	
3921	0	30512	
3922	0	30512	
3923	0	30484	
3924	0	30472	
3925	0	30480	
3926	0	30476	
3927	0	30476	
3928	0	30448	
3929	0	30416	
3930	0	30412	
3931	0	30386	
3932	0	30378	
3933	0	30372	
3934	0	30340	
3935	0	30338	
3936	0	30312	
3937	0	30336	
3938	0	30332	
3939	0	30336	
3940	0	30340	
3941	0	30336	
3942	0	30376	
3943	0	30410	
3944	0	30424	
3945	0	30456	
3946	0	30508	
3947	0	30536	
3948	0	30600	
3949	0	30620	
3950	0	30633	
3951	0	30608	
3952	0	30592	
3953	0	30588	
3954	0	30582	
3955	0	30596	
3956	0	30632	
3957	0	30656	
3958	0	30704	
3959	0	30788	
3960	0	30848	
3961	0	30892	
3962	0	30932	
3963	0	30948	
3964	0	30992	
3965	0	31028	
3966	0	31036	
3967	0	31064	
3968	0	31073	
3969	0	31096	
3970	0	31112	
3971	0	31128	
3972	0	31170	
3973	0	31200	
3974	0	31244	
3975	0	31280	
3976	0	31336	
3977	0	31368	
3978	0	31412	
3979	0	31444	
3980	0	31480	
3981	0	31516	
3982	0	31552	
3983	0	31596	
3984	0	31592	
3985	0	31588	
3986	0	31576	
3987	0	31568	
3988	0	31552	
3989	0	31572	
3990	0	31600	
3991	0	31604	
3992	0	31628	
3993	0	31654	
3994	0	31692	
3995	0	31746	
3996	0	31784	
3997	0	31820	
3998	0	31852	
3999	0	31872	
4000	0	31860	
4001	0	31844	
4002	0	31876	
4003	0	31896	
4004	0	31916	
4005	0	31948	
4006	0	31964	
4007	0	31972	
4008	0	31976	
4009	0	31992	
4010	0	32020	
4011	0	32060	
4012	0	32124	
4013	0	32158	
4014	0	32204	
4015	0	32276	
4016	0	32288	
4017	0	32344	
4018	0	32408	
4019	0	32424	
4020	0	32428	
4021	0	32440	
4022	0	32448	
4023	0	32472	
4024	0	32480	
4025	0	32468	
4026	0	32492	
4027	0	32528	
4028	0	32580	
4029	0	32608	
4030	0	32668	
4031	0	32700	
4032	0	32724	
4033	0	32748	
4034	0	32788	
4035	0	32826	
4036	0	32820	
4037	0	32820	
4038	0	32856	
4039	0	32880	
4040	0	32896	
4041	0	32936	
4042	0	32936	
4043	0	32924	
4044	0	32930	
4045	0	32956	
4046	0	32992	
4047	0	33044	
4048	0	33092	
4049	0	33148	
4050	0	33200	
4051	0	33232	
4052	0	33234	
4053	0	33240	
4054	0	33252	
4055	0	33256	
4056	0	33280	
4057	0	33316	
4058	0	33372	
4059	0	33402	
4060	0	33436	
4061	0	33454	
4062	0	33454	
4063	0	33444	
4064	0	33456	
4065	0	33476	
4066	0	33468	
4067	0	33472	
4068	0	33524	
4069	0	33556	
4070	0	33588	
4071	0	33624	
4072	0	33658	
4073	0	33678	
4074	0	33716	
4075	0	33768	
4076	0	33808	
4077	0	33788	
4078	0	33760	
4079	0	33732	
4080	0	33716	
4081	0	33720	
4082	0	33722	
4083	0	33728	
4084	0	33704	
4085	0	33700	
4086	0	33744	
4087	0	33768	
4088	0	33816	
4089	0	33900	
4090	0	34020	
4091	0	34092	
4092	0	34176	
4093	0	34256	
4094	0	34320	
4095	0	34368	
4096	0	34404	
4097	0	34436	
4098	0	34472	
4099	0	34496	
4100	0	34480	
4101	0	34460	
4102	0	34468	
4103	0	34456	
4104	0	34420	
4105	0	34380	
4106	0	34376	
4107	0	34372	
4108	0	34400	
4109	0	34400	
4110	0	34420	
4111	0	34452	
4112	0	34472	
4113	0	34488	
4114	0	34488	
4115	0	34496	
4116	0	34520	
4117	0	34572	
4118	0	34612	
4119	0	34668	
4120	0	34724	
4121	0	34762	
4122	0	34808	
4123	0	34828	
4124	0	34832	
4125	0	34852	
4126	0	34872	
4127	0	34892	
4128	0	34892	
4129	0	34890	
4130	0	34874	
4131	0	34814	
4132	0	34788	
4133	0	34800	
4134	0	34812	
4135	0	34832	
4136	0	34872	
4137	0	34884	
4138	0	34904	
4139	0	34884	
4140	0	34856	
4141	0	34846	
4142	0	34852	
4143	0	34860	
4144	0	34864	
4145	0	34864	
4146	0	34850	
4147	0	34828	
4148	0	34804	
4149	0	34776	
4150	0	34740	
4151	0	34714	
4152	0	34696	
4153	0	34672	
4154	0	34656	
4155	0	34572	
4156	0	34508	
4157	0	34460	
4158	0	34416	
4159	0	34360	
4160	0	34340	
4161	0	34316	
4162	0	34232	
4163	0	34144	
4164	0	34036	
4165	0	33924	
4166	0	33824	
4167	0	33704	
4168	0	33576	
4169	0	33424	
4170	0	33304	
4171	0	33212	
4172	0	33096	
4173	0	33004	
4174	0	32844	
4175	0	32704	
4176	0	32576	
4177	0	32456	
4178	0	32380	
4179	0	32296	
4180	0	32196	
4181	0	32092	
4182	0	31976	
4183	0	31868	
4184	0	31780	
4185	0	31676	
4186	0	31568	
4187	0	31472	
4188	0	31408	
4189	0	31312	
4190	0	31212	
4191	0	31104	
4192	0	31028	
4193	0	30944	
4194	0	30888	
4195	0	30824	
4196	0	30744	
4197	0	30648	
4198	0	30576	
4199	0	30508	
4200	0	30436	
4201	0	30384	
4202	0	30348	
4203	0	30316	
4204	0	30272	
4205	0	30184	
4206	0	30100	
4207	0	30024	
4208	0	29940	
4209	0	29876	
4210	0	29826	
4211	0	29802	
4212	0	29796	
4213	0	29800	
4214	0	29808	
4215	0	29796	
4216	0	29784	
4217	0	29792	
4218	0	29780	
4219	0	29748	
4220	0	29744	
4221	0	29740	
4222	0	29700	
4223	0	29692	
4224	0	29688	
4225	0	29668	
4226	0	29656	
4227	0	29640	
4228	0	29640	
4229	0	29656	
4230	0	29664	
4231	0	29644	
4232	0	29664	
4233	0	29680	
4234	0	29688	
4235	0	29720	
4236	0	29722	
4237	0	29772	
4238	0	29824	
4239	0	29844	
4240	0	29880	
4241	0	29922	
4242	0	29944	
4243	0	29992	
4244	0	30048	
4245	0	30080	
4246	0	30100	
4247	0	30112	
4248	0	30164	
4249	0	30216	
4250	0	30276	
4251	0	30344	
4252	0	30392	
4253	0	30448	
4254	0	30474	
4255	0	30480	
4256	0	30496	
4257	0	30512	
4258	0	30544	
4259	0	30564	
4260	0	30582	
4261	0	30588	
4262	0	30604	
4263	0	30620	
4264	0	30640	
4265	0	30672	
4266	0	30688	
4267	0	30726	
4268	0	30772	
4269	0	30840	
4270	0	30896	
4271	0	30928	
4272	0	30948	
4273	0	30976	
4274	0	30976	
4275	0	30996	
4276	0	31020	
4277	0	31060	
4278	0	31132	
4279	0	31208	
4280	0	31312	
4281	0	31404	
4282	0	31468	
4283	0	31524	
4284	0	31532	
4285	0	31524	
4286	0	31492	
4287	0	31476	
4288	0	31484	
4289	0	31536	
4290	0	31588	
4291	0	31620	
4292	0	31646	
4293	0	31680	
4294	0	31680	
4295	0	31672	
4296	0	31684	
4297	0	31704	
4298	0	31688	
4299	0	31704	
4300	0	31740	
4301	0	31768	
4302	0	31808	
4303	0	31848	
4304	0	31888	
4305	0	31876	
4306	0	31868	
4307	0	31864	
4308	0	31846	
4309	0	31852	
4310	0	31892	
4311	0	31920	
4312	0	31944	
4313	0	31942	
4314	0	31940	
4315	0	31960	
4316	0	31980	
4317	0	31994	
4318	0	31988	
4319	0	32012	
4320	0	32028	
4321	0	31992	
4322	0	31948	
4323	0	31920	
4324	0	31924	
4325	0	31936	
4326	0	31928	
4327	0	31940	
4328	0	31910	
4329	0	31928	
4330	0	31948	
4331	0	31958	
4332	0	31964	
4333	0	31988	
4334	0	32028	
4335	0	32068	
4336	0	32112	
4337	0	32160	
4338	0	32156	
4339	0	32122	
4340	0	32088	
4341	0	32040	
4342	0	32024	
4343	0	32052	
4344	0	32056	
4345	0	32024	
4346	0	32008	
4347	0	32008	
4348	0	31996	
4349	0	31960	
4350	0	31952	
4351	0	31952	
4352	0	31984	
4353	0	32000	
4354	0	31984	
4355	0	32000	
4356	0	32004	
4357	0	32020	
4358	0	32028	
4359	0	32008	
4360	0	31984	
4361	0	31960	
4362	0	31948	
4363	0	31932	
4364	0	31928	
4365	0	31940	
4366	0	31948	
4367	0	31964	
4368	0	31982	
4369	0	31992	
4370	0	31972	
4371	0	31956	
4372	0	31976	
4373	0	32000	
4374	0	32028	
4375	0	32060	
4376	0	32068	
4377	0	32084	
4378	0	32060	
4379	0	32020	
4380	0	32010	
4381	0	32000	
4382	0	32000	
4383	0	32002	
4384	0	32024	
4385	0	32012	
4386	0	32000	
4387	0	31996	
4388	0	31984	
4389	0	31976	
4390	0	31968	
4391	0	31948	
4392	0	31960	
4393	0	32012	
4394	0	32008	
4395	0	32016	
4396	0	32048	
4397	0	32040	
4398	0	32048	
4399	0	32064	
4400	0	32080	
4401	0	32094	
4402	0	32104	
4403	0	32108	
4404	0	32124	
4405	0	32128	
4406	0	32116	
4407	0	32112	
4408	0	32096	
4409	0	32068	
4410	0	32068	
4411	0	32060	
4412	0	32060	
4413	0	32080	
4414	0	32076	
4415	0	32080	
4416	0	32088	
4417	0	32116	
4418	0	32152	
4419	0	32148	
4420	0	32140	
4421	0	32152	
4422	0	32168	
4423	0	32160	
4424	0	32176	
4425	0	32204	
4426	0	32208	
4427	0	32212	
4428	0	32216	
4429	0	32216	
4430	0	32220	
4431	0	32250	
4432	0	32268	
4433	0	32264	
4434	0	32260	
4435	0	32244	
4436	0	32220	
4437	0	32204	
4438	0	32204	
4439	0	32198	
4440	0	32156	
4441	0	32136	
4442	0	32124	
4443	0	32124	
4444	0	32104	
4445	0	32092	
4446	0	32116	
4447	0	32120	
4448	0	32132	
4449	0	32148	
4450	0	32168	
4451	0	32178	
4452	0	32184	
4453	0	32196	
4454	0	32218	
4455	0	32276	
4456	0	32324	
4457	0	32352	
4458	0	32368	
4459	0	32392	
4460	0	32400	
4461	0	32392	
4462	0	32388	
4463	0	32416	
4464	0	32404	
4465	0	32380	
4466	0	32362	
4467	0	32360	
4468	0	32376	
4469	0	32436	
4470	0	32448	
4471	0	32448	
4472	0	32448	
4473	0	32452	
4474	0	32416	
4475	0	32384	
4476	0	32372	
4477	0	32364	
4478	0	32352	
4479	0	32360	
4480	0	32356	
4481	0	32346	
4482	0	32364	
4483	0	32384	
4484	0	32400	
4485	0	32380	
4486	0	32396	
4487	0	32440	
4488	0	32480	
4489	0	32472	
4490	0	32477	
4491	0	32474	
4492	0	32456	
4493	0	32472	
4494	0	32514	
4495	0	32524	
4496	0	32552	
4497	0	32544	
4498	0	32544	
4499	0	32586	
4500	0	32572	
4501	0	32532	
4502	0	32528	
4503	0	32532	
4504	0	32520	
4505	0	32546	
4506	0	32548	
4507	0	32548	
4508	0	32576	
4509	0	32560	
4510	0	32560	
4511	0	32568	
4512	0	32584	
4513	0	32596	
4514	0	32600	
4515	0	32608	
4516	0	32604	
4517	0	32612	
4518	0	32628	
4519	0	32640	
4520	0	32636	
4521	0	32644	
4522	0	32672	
4523	0	32704	
4524	0	32704	
4525	0	32704	
4526	0	32712	
4527	0	32696	
4528	0	32700	
4529	0	32694	
4530	0	32692	
4531	0	32684	
4532	0	32676	
4533	0	32688	
4534	0	32730	
4535	0	32752	
4536	0	32732	
4537	0	32712	
4538	0	32652	
4539	0	32672	
4540	0	32700	
4541	0	32728	
4542	0	32724	
4543	0	32720	
4544	0	32716	
4545	0	32696	
4546	0	32700	
4547	0	32716	
4548	0	32712	
4549	0	32724	
4550	0	32716	
4551	0	32688	
4552	0	32676	
4553	0	32652	
4554	0	32644	
4555	0	32660	
4556	0	32660	
4557	0	32684	
4558	0	32708	
4559	0	32700	
4560	0	32692	
4561	0	32688	
4562	0	32668	
4563	0	32688	
4564	0	32720	
4565	0	32754	
4566	0	32804	
4567	0	32824	
4568	0	32832	
4569	0	32836	
4570	0	32808	
4571	0	32826	
4572	0	32812	
4573	0	32796	
4574	0	32804	
4575	0	32824	
4576	0	32800	
4577	0	32780	
4578	0	32820	
4579	0	32824	
4580	0	32800	
4581	0	32792	
4582	0	32796	
4583	0	32784	
4584	0	32768	
4585	0	32772	
4586	0	32812	
4587	0	32828	
4588	0	32792	
4589	0	32780	
4590	0	32774	
4591	0	32768	
4592	0	32764	
4593	0	32800	
4594	0	32840	
4595	0	32852	
4596	0	32856	
4597	0	32856	
4598	0	32860	
4599	0	32896	
4600	0	32924	
4601	0	32924	
4602	0	32922	
4603	0	32912	
4604	0	32912	
4605	0	32952	
4606	0	32948	
4607	0	32926	
4608	0	32896	
4609	0	32898	
4610	0	32904	
4611	0	32908	
4612	0	32928	
4613	0	32946	
4614	0	32932	
4615	0	32924	
4616	0	32922	
4617	0	32908	
4618	0	32916	
4619	0	32916	
4620	0	32892	
4621	0	32872	
4622	0	32824	
4623	0	32808	
4624	0	32826	
4625	0	32840	
4626	0	32868	
4627	0	32844	
4628	0	32836	
4629	0	32864	
4630	0	32884	
4631	0	32884	
4632	0	32888	
4633	0	32892	
4634	0	32912	
4635	0	32912	
4636	0	32900	
4637	0	32904	
4638	0	32904	
4639	0	32928	
4640	0	32908	
4641	0	32916	
4642	0	32928	
4643	0	32900	
4644	0	32872	
4645	0	32868	
4646	0	32860	
4647	0	32884	
4648	0	32912	
4649	0	32932	
4650	0	32960	
4651	0	32988	
4652	0	32992	
4653	0	33012	
4654	0	33026	
4655	0	33024	
4656	0	33048	
4657	0	33048	
4658	0	33064	
4659	0	33100	
4660	0	33120	
4661	0	33136	
4662	0	33160	
4663	0	33160	
4664	0	33120	
4665	0	33108	
4666	0	33100	
4667	0	33092	
4668	0	33092	
4669	0	33109	
4670	0	33108	
4671	0	33124	
4672	0	33116	
4673	0	33124	
4674	0	33096	
4675	0	33088	
4676	0	33080	
4677	0	33078	
4678	0	33076	
4679	0	33080	
4680	0	33076	
4681	0	33058	
4682	0	33012	
4683	0	32992	
4684	0	32984	
4685	0	32976	
4686	0	32958	
4687	0	32948	
4688	0	32940	
4689	0	32952	
4690	0	32972	
4691	0	32988	
4692	0	33020	
4693	0	33038	
4694	0	33026	
4695	0	32996	
4696	0	32984	
4697	0	32960	
4698	0	32986	
4699	0	33024	
4700	0	33044	
4701	0	33064	
4702	0	33076	
4703	0	33104	
4704	0	33140	
4705	0	33156	
4706	0	33188	
4707	0	33192	
4708	0	33200	
4709	0	33220	
4710	0	33224	
4711	0	33210	
4712	0	33170	
4713	0	33148	
4714	0	33144	
4715	0	33168	
4716	0	33156	
4717	0	33140	
4718	0	33112	
4719	0	33076	
4720	0	33052	
4721	0	33056	
4722	0	33072	
4723	0	33092	
4724	0	33128	
4725	0	33216	
4726	0	33358	
4727	0	33496	
4728	0	33612	
4729	0	33708	
4730	0	33800	
4731	0	33886	
4732	0	33920	
4733	0	34000	
4734	0	34096	
4735	0	34152	
4736	0	34220	
4737	0	34272	
4738	0	34272	
4739	0	34316	
4740	0	34408	
4741	0	34512	
4742	0	34564	
4743	0	34560	
4744	0	34508	
4745	0	34440	
4746	0	34308	
4747	0	34184	
4748	0	34076	
4749	0	34036	
4750	0	33972	
4751	0	33884	
4752	0	33832	
4753	0	33784	
4754	0	33720	
4755	0	33652	
4756	0	33644	
4757	0	33612	
4758	0	33528	
4759	0	33472	
4760	0	33436	
4761	0	33408	
4762	0	33384	
4763	0	33372	
4764	0	33336	
4765	0	33292	
4766	0	33264	
4767	0	33232	
4768	0	33262	
4769	0	33284	
4770	0	33276	
4771	0	33272	
4772	0	33268	
4773	0	33284	
4774	0	33268	
4775	0	33220	
4776	0	33196	
4777	0	33184	
4778	0	33176	
4779	0	33204	
4780	0	33176	
4781	0	33152	
4782	0	33188	
4783	0	33224	
4784	0	33200	
4785	0	33172	
4786	0	33064	
4787	0	32948	
4788	0	32860	
4789	0	32784	
4790	0	32732	
4791	0	32702	
4792	0	32688	
4793	0	32672	
4794	0	32672	
4795	0	32672	
4796	0	32692	
4797	0	32696	
4798	0	32700	
4799	0	32728	
4800	0	32716	
4801	0	32676	
4802	0	32688	
4803	0	32676	
4804	0	32652	
4805	0	32650	
4806	0	32632	
4807	0	32600	
4808	0	32604	
4809	0	32588	
4810	0	32584	
4811	0	32616	
4812	0	32640	
4813	0	32682	
4814	0	32712	
4815	0	32712	
4816	0	32724	
4817	0	32732	
4818	0	32720	
4819	0	32744	
4820	0	32728	
4821	0	32716	
4822	0	32696	
4823	0	32688	
4824	0	32676	
4825	0	32656	
4826	0	32668	
4827	0	32684	
4828	0	32704	
4829	0	32688	
4830	0	32674	
4831	0	32700	
4832	0	32696	
4833	0	32700	
4834	0	32704	
4835	0	32724	
4836	0	32752	
4837	0	32776	
4838	0	32776	
4839	0	32748	
4840	0	32760	
4841	0	32794	
4842	0	32796	
4843	0	32788	
4844	0	32752	
4845	0	32736	
4846	0	32716	
4847	0	32684	
4848	0	32696	
4849	0	32704	
4850	0	32704	
4851	0	32728	
4852	0	32796	
4853	0	32860	
4854	0	32952	
4855	0	32988	
4856	0	33016	
4857	0	33044	
4858	0	33032	
4859	0	33000	
4860	0	32876	
4861	0	32736	
4862	0	32604	
4863	0	32472	
4864	0	32376	
4865	0	32384	
4866	0	32556	
4867	0	32826	
4868	0	33116	
4869	0	33436	
4870	0	33816	
4871	0	34148	
4872	0	34480	
4873	0	34804	
4874	0	35012	
4875	0	35224	
4876	0	35608	
4877	0	36192	
4878	0	36936	
4879	0	37860	
4880	0	38960	
4881	0	40228	
4882	0	41648	
4883	0	43226	
4884	0	44908	
4885	0	46628	
4886	0	48448	
4887	0	50316	
4888	0	52128	
4889	0	53792	
4890	0	55174	
4891	0	56264	
4892	0	57224	
4893	0	58264	
4894	0	59380	
4895	0	60128	
4896	0	60408	
4897	0	59788	
4898	0	58020	
4899	0	55284	
4900	0	51776	
4901	0	47836	
4902	0	43832	
4903	0	40076	
4904	0	36864	
4905	0	34440	
4906	0	32712	
4907	0	31468	
4908	0	30654	
4909	0	30088	
4910	0	29682	
4911	0	29500	
4912	0	29476	
4913	0	29592	
4914	0	29796	
4915	0	29980	
4916	0	30112	
4917	0	30200	
4918	0	30314	
4919	0	30400	
4920	0	30448	
4921	0	30544	
4922	0	30680	
4923	0	30824	
4924	0	30892	
4925	0	30936	
4926	0	30944	
4927	0	30924	
4928	0	30905	
4929	0	30900	
4930	0	30860	
4931	0	30828	
4932	0	30792	
4933	0	30760	
4934	0	30700	
4935	0	30642	
4936	0	30606	
4937	0	30584	
4938	0	30528	
4939	0	30522	
4940	0	30504	
4941	0	30508	
4942	0	30516	
4943	0	30500	
4944	0	30484	
4945	0	30476	
4946	0	30504	
4947	0	30512	
4948	0	30496	
4949	0	30504	
4950	0	30536	
4951	0	30576	
4952	0	30628	
4953	0	30692	
4954	0	30736	
4955	0	30794	
4956	0	30832	
4957	0	30856	
4958	0	30872	
4959	0	30874	
4960	0	30908	
4961	0	30932	
4962	0	30948	
4963	0	30940	
4964	0	30964	
4965	0	31012	
4966	0	31024	
4967	0	31024	
4968	0	31020	
4969	0	31040	
4970	0	31072	
4971	0	31116	
4972	0	31140	
4973	0	31157	
4974	0	31200	
4975	0	31236	
4976	0	31280	
4977	0	31332	
4978	0	31356	
4979	0	31364	
4980	0	31384	
4981	0	31420	
4982	0	31444	
4983	0	31456	
4984	0	31460	
4985	0	31508	
4986	0	31540	
4987	0	31564	
4988	0	31588	
4989	0	31592	
4990	0	31600	
4991	0	31640	
4992	0	31668	
4993	0	31660	
4994	0	31664	
4995	0	31684	
4996	0	31708	
4997	0	31724	
4998	0	31760	
4999	0	31780	
5000	0	31820	
5001	0	31872	
5002	0	31884	
5003	0	31890	
5004	0	31916	
5005	0	31952	
5006	0	31976	
5007	0	32008	
5008	0	32040	
5009	0	32052	
5010	0	32076	
5011	0	32096	
5012	0	32124	
5013	0	32160	
5014	0	32224	
5015	0	32234	
5016	0	32232	
5017	0	32210	
5018	0	32220	
5019	0	32244	
5020	0	32264	
5021	0	32268	
5022	0	32270	
5023	0	32300	
5024	0	32328	
5025	0	32356	
5026	0	32408	
5027	0	32436	
5028	0	32468	
5029	0	32480	
5030	0	32476	
5031	0	32484	
5032	0	32480	
5033	0	32524	
5034	0	32544	
5035	0	32570	
5036	0	32584	
5037	0	32640	
5038	0	32680	
5039	0	32704	
5040	0	32736	
5041	0	32768	
5042	0	32768	
5043	0	32756	
5044	0	32784	
5045	0	32768	
5046	0	32792	
5047	0	32816	
5048	0	32840	
5049	0	32872	
5050	0	32892	
5051	0	32920	
5052	0	32956	
5053	0	32964	
5054	0	32996	
5055	0	33042	
5056	0	33092	
5057	0	33124	
5058	0	33120	
5059	0	33096	
5060	0	33072	
5061	0	33076	
5062	0	33108	
5063	0	33144	
5064	0	33132	
5065	0	33132	
5066	0	33152	
5067	0	33168	
5068	0	33196	
5069	0	33224	
5070	0	33264	
5071	0	33304	
5072	0	33312	
5073	0	33328	
5074	0	33334	
5075	0	33356	
5076	0	33380	
5077	0	33408	
5078	0	33408	
5079	0	33420	
5080	0	33440	
5081	0	33456	
5082	0	33480	
5083	0	33472	
5084	0	33472	
5085	0	33496	
5086	0	33558	
5087	0	33576	
5088	0	33592	
5089	0	33620	
5090	0	33648	
5091	0	33684	
5092	0	33692	
5093	0	33712	
5094	0	33742	
5095	0	33784	
5096	0	33796	
5097	0	33788	
5098	0	33798	
5099	0	33800	
5100	0	33824	
5101	0	33852	
5102	0	33860	
5103	0	33876	
5104	0	33884	
5105	0	33856	
5106	0	33856	
5107	0	33864	
5108	0	33900	
5109	0	33904	
5110	0	33908	
5111	0	33900	
5112	0	33900	
5113	0	33954	
5114	0	33992	
5115	0	33996	
5116	0	34000	
5117	0	34008	
5118	0	34022	
5119	0	34042	
5120	0	34060	
5121	0	34080	
5122	0	34136	
5123	0	34128	
5124	0	34132	
5125	0	34120	
5126	0	34128	
5127	0	34144	
5128	0	34140	
5129	0	34148	
5130	0	34156	
5131	0	34180	
5132	0	34204	
5133	0	34228	
5134	0	34248	
5135	0	34260	
5136	0	34284	
5137	0	34320	
5138	0	34334	
5139	0	34336	
5140	0	34308	
5141	0	34292	
5142	0	34304	
5143	0	34290	
5144	0	34296	
5145	0	34304	
5146	0	34292	
5147	0	34292	
5148	0	34316	
5149	0	34320	
5150	0	34320	
5151	0	34320	
5152	0	34368	
5153	0	34396	
5154	0	34412	
5155	0	34444	
5156	0	34452	
5157	0	34428	
5158	0	34424	
5159	0	34416	
5160	0	34384	
5161	0	34352	
5162	0	34324	
5163	0	34280	
5164	0	34220	
5165	0	34176	
5166	0	34132	
5167	0	34074	
5168	0	34032	
5169	0	33984	
5170	0	33936	
5171	0	33884	
5172	0	33848	
5173	0	33820	
5174	0	33776	
5175	0	33724	
5176	0	33676	
5177	0	33608	
5178	0	33536	
5179	0	33444	
5180	0	33352	
5181	0	33260	
5182	0	33168	
5183	0	33072	
5184	0	32972	
5185	0	32904	
5186	0	32828	
5187	0	32764	
5188	0	32676	
5189	0	32576	
5190	0	32456	
5191	0	32340	
5192	0	32240	
5193	0	32144	
5194	0	32070	
5195	0	31980	
5196	0	31908	
5197	0	31828	
5198	0	31760	
5199	0	31688	
5200	0	31624	
5201	0	31544	
5202	0	31462	
5203	0	31384	
5204	0	31268	
5205	0	31186	
5206	0	31108	
5207	0	31028	
5208	0	30960	
5209	0	30912	
5210	0	30868	
5211	0	30828	
5212	0	30784	
5213	0	30744	
5214	0	30688	
5215	0	30624	
5216	0	30546	
5217	0	30500	
5218	0	30456	
5219	0	30406	
5220	0	30380	
5221	0	30344	
5222	0	30324	
5223	0	30296	
5224	0	30264	
5225	0	30244	
5226	0	30224	
5227	0	30204	
5228	0	30188	
5229	0	30192	
5230	0	30224	
5231	0	30228	
5232	0	30242	
5233	0	30248	
5234	0	30228	
5235	0	30194	
5236	0	30168	
5237	0	30150	
5238	0	30152	
5239	0	30156	
5240	0	30160	
5241	0	30190	
5242	0	30236	
5243	0	30272	
5244	0	30284	
5245	0	30305	
5246	0	30332	
5247	0	30364	
5248	0	30404	
5249	0	30400	
5250	0	30400	
5251	0	30392	
5252	0	30400	
5253	0	30434	
5254	0	30478	
5255	0	30528	
5256	0	30538	
5257	0	30564	
5258	0	30568	
5259	0	30570	
5260	0	30588	
5261	0	30592	
5262	0	30586	
5263	0	30600	
5264	0	30616	
5265	0	30640	
5266	0	30692	
5267	0	30736	
5268	0	30772	
5269	0	30770	
5270	0	30796	
5271	0	30828	
5272	0	30848	
5273	0	30844	
5274	0	30876	
5275	0	30920	
5276	0	30932	
5277	0	30922	
5278	0	30928	
5279	0	30924	
5280	0	30920	
5281	0	30940	
5282	0	30976	
5283	0	30992	
5284	0	31004	
5285	0	31008	
5286	0	31018	
5287	0	31064	
5288	0	31112	
5289	0	31136	
5290	0	31148	
5291	0	31204	
5292	0	31228	
5293	0	31224	
5294	0	31260	
5295	0	31288	
5296	0	31310	
5297	0	31324	
5298	0	31340	
5299	0	31368	
5300	0	31370	
5301	0	31388	
5302	0	31396	
5303	0	31412	
5304	0	31408	
5305	0	31392	
5306	0	31408	
5307	0	31432	
5308	0	31480	
5309	0	31540	
5310	0	31548	
5311	0	31532	
5312	0	31528	
5313	0	31544	
5314	0	31528	
5315	0	31534	
5316	0	31564	
5317	0	31580	
5318	0	31620	
5319	0	31654	
5320	0	31700	
5321	0	31688	
5322	0	31684	
5323	0	31670	
5324	0	31644	
5325	0	31632	
5326	0	31604	
5327	0	31576	
5328	0	31608	
5329	0	31636	
5330	0	31648	
5331	0	31660	
5332	0	31672	
5333	0	31676	
5334	0	31692	
5335	0	31696	
5336	0	31712	
5337	0	31728	
5338	0	31740	
5339	0	31756	
5340	0	31736	
5341	0	31708	
5342	0	31680	
5343	0	31658	
5344	0	31672	
5345	0	31660	
5346	0	31648	
5347	0	31656	
5348	0	31676	
5349	0	31696	
5350	0	31700	
5351	0	31712	
5352	0	31744	
5353	0	31752	
5354	0	31764	
5355	0	31776	
5356	0	31762	
5357	0	31764	
5358	0	31756	
5359	0	31728	
5360	0	31720	
5361	0	31740	
5362	0	31736	
5363	0	31700	
5364	0	31648	
5365	0	31628	
5366	0	31628	
5367	0	31636	
5368	0	31656	
5369	0	31668	
5370	0	31684	
5371	0	31668	
5372	0	31638	
5373	0	31644	
5374	0	31664	
5375	0	31668	
5376	0	31688	
5377	0	31724	
5378	0	31720	
5379	0	31704	
5380	0	31700	
5381	0	31704	
5382	0	31712	
5383	0	31700	
5384	0	31748	
5385	0	31776	
5386	0	31770	
5387	0	31760	
5388	0	31760	
5389	0	31800	
5390	0	31832	
5391	0	31828	
5392	0	31820	
5393	0	31822	
5394	0	31834	
5395	0	31810	
5396	0	31778	
5397	0	31760	
5398	0	31776	
5399	0	31808	
5400	0	31816	
5401	0	31816	
5402	0	31826	
5403	0	31840	
5404	0	31848	
5405	0	31876	
5406	0	31880	
5407	0	31908	
5408	0	31924	
5409	0	31908	
5410	0	31906	
5411	0	31916	
5412	0	31908	
5413	0	31884	
5414	0	31888	
5415	0	31908	
5416	0	31888	
5417	0	31900	
5418	0	31928	
5419	0	31936	
5420	0	31928	
5421	0	31916	
5422	0	31892	
5423	0	31888	
5424	0	31896	
5425	0	31924	
5426	0	31900	
5427	0	31868	
5428	0	31868	
5429	0	31848	
5430	0	31844	
5431	0	31802	
5432	0	31816	
5433	0	31840	
5434	0	31866	
5435	0	31894	
5436	0	31912	
5437	0	31920	
5438	0	31924	
5439	0	31920	
5440	0	31924	
5441	0	31936	
5442	0	31928	
5443	0	31908	
5444	0	31924	
5445	0	31952	
5446	0	31984	
5447	0	31988	
5448	0	31992	
5449	0	31992	
5450	0	31992	
5451	0	31980	
5452	0	31972	
5453	0	31964	
5454	0	31968	
5455	0	31996	
5456	0	32028	
5457	0	32040	
5458	0	32016	
5459	0	32016	
5460	0	32032	
5461	0	32044	
5462	0	32076	
5463	0	32112	
5464	0	32116	
5465	0	32108	
5466	0	32094	
5467	0	32072	
5468	0	32088	
5469	0	32092	
5470	0	32112	
5471	0	32104	
5472	0	32088	
5473	0	32092	
5474	0	32088	
5475	0	32124	
5476	0	32136	
5477	0	32140	
5478	0	32128	
5479	0	32128	
5480	0	32140	
5481	0	32144	
5482	0	32172	
5483	0	32172	
5484	0	32156	
5485	0	32156	
5486	0	32188	
5487	0	32200	
5488	0	32212	
5489	0	32216	
5490	0	32218	
5491	0	32252	
5492	0	32272	
5493	0	32292	
5494	0	32300	
5495	0	32320	
5496	0	32324	
5497	0	32320	
5498	0	32296	
5499	0	32280	
5500	0	32272	
5501	0	32256	
5502	0	32272	
5503	0	32320	
5504	0	32336	
5505	0	32352	
5506	0	32364	
5507	0	32332	
5508	0	32308	
5509	0	32308	
5510	0	32316	
5511	0	32344	
5512	0	32356	
5513	0	32364	
5514	0	32372	
5515	0	32404	
5516	0	32414	
5517	0	32416	
5518	0	32412	
5519	0	32404	
5520	0	32424	
5521	0	32416	
5522	0	32404	
5523	0	32408	
5524	0	32410	
5525	0	32396	
5526	0	32392	
5527	0	32404	
5528	0	32416	
5529	0	32436	
5530	0	32444	
5531	0	32468	
5532	0	32480	
5533	0	32496	
5534	0	32510	
5535	0	32504	
5536	0	32506	
5537	0	32520	
5538	0	32493	
5539	0	32460	
5540	0	32424	
5541	0	32416	
5542	0	32420	
5543	0	32436	
5544	0	32428	
5545	0	32448	
5546	0	32456	
5547	0	32472	
5548	0	32486	
5549	0	32516	
5550	0	32544	
5551	0	32576	
5552	0	32588	
5553	0	32608	
5554	0	32628	
5555	0	32616	
5556	0	32634	
5557	0	32624	
5558	0	32628	
5559	0	32632	
5560	0	32634	
5561	0	32608	
5562	0	32588	
5563	0	32620	
5564	0	32632	
5565	0	32600	
5566	0	32592	
5567	0	32598	
5568	0	32608	
5569	0	32636	
5570	0	32644	
5571	0	32644	
5572	0	32620	
5573	0	32632	
5574	0	32648	
5575	0	32668	
5576	0	32720	
5577	0	32738	
5578	0	32744	
5579	0	32728	
5580	0	32724	
5581	0	32724	
5582	0	32736	
5583	0	32764	
5584	0	32764	
5585	0	32740	
5586	0	32736	
5587	0	32744	
5588	0	32768	
5589	0	32788	
5590	0	32804	
5591	0	32792	
5592	0	32792	
5593	0	32794	
5594	0	32762	
5595	0	32744	
5596	0	32716	
5597	0	32700	
5598	0	32708	
5599	0	32712	
5600	0	32720	
5601	0	32730	
5602	0	32744	
5603	0	32744	
5604	0	32736	
5605	0	32732	
5606	0	32736	
5607	0	32744	
5608	0	32752	
5609	0	32736	
5610	0	32728	
5611	0	32724	
5612	0	32712	
5613	0	32752	
5614	0	32764	
5615	0	32772	
5616	0	32776	
5617	0	32768	
5618	0	32792	
5619	0	32844	
5620	0	32872	
5621	0	32866	
5622	0	32876	
5623	0	32860	
5624	0	32848	
5625	0	32836	
5626	0	32826	
5627	0	32810	
5628	0	32816	
5629	0	32838	
5630	0	32858	
5631	0	32858	
5632	0	32850	
5633	0	32876	
5634	0	32900	
5635	0	32904	
5636	0	32880	
5637	0	32856	
5638	0	32826	
5639	0	32798	
5640	0	32802	
5641	0	32848	
5642	0	32864	
5643	0	32852	
5644	0	32834	
5645	0	32832	
5646	0	32836	
5647	0	32836	
5648	0	32844	
5649	0	32848	
5650	0	32852	
5651	0	32856	
5652	0	32872	
5653	0	32888	
5654	0	32888	
5655	0	32896	
5656	0	32896	
5657	0	32908	
5658	0	32924	
5659	0	32936	
5660	0	32964	
5661	0	32968	
5662	0	32980	
5663	0	32988	
5664	0	32984	
5665	0	32996	
5666	0	32976	
5667	0	32988	
5668	0	32992	
5669	0	33008	
5670	0	32996	
5671	0	32988	
5672	0	32972	
5673	0	32956	
5674	0	32964	
5675	0	32964	
5676	0	32960	
5677	0	32988	
5678	0	32994	
5679	0	33004	
5680	0	33024	
5681	0	33016	
5682	0	33012	
5683	0	33000	
5684	0	32984	
5685	0	32992	
5686	0	32984	
5687	0	32932	
5688	0	32922	
5689	0	32944	
5690	0	32968	
5691	0	32980	
5692	0	32964	
5693	0	32992	
5694	0	33004	
5695	0	32984	
5696	0	33004	
5697	0	33006	
5698	0	33012	
5699	0	33024	
5700	0	33016	
5701	0	33016	
5702	0	33032	
5703	0	33016	
5704	0	33028	
5705	0	33052	
5706	0	33036	
5707	0	33016	
5708	0	33000	
5709	0	33008	
5710	0	33024	
5711	0	33044	
5712	0	33060	
5713	0	33060	
5714	0	33056	
5715	0	33068	
5716	0	33080	
5717	0	33056	
5718	0	33064	
5719	0	33060	
5720	0	33076	
5721	0	33088	
5722	0	33066	
5723	0	33044	
5724	0	33024	
5725	0	33008	
5726	0	33004	
5727	0	33036	
5728	0	33040	
5729	0	33034	
5730	0	33024	
5731	0	33008	
5732	0	32996	
5733	0	32980	
5734	0	33004	
5735	0	33024	
5736	0	33016	
5737	0	33008	
5738	0	32976	
5739	0	32988	
5740	0	33012	
5741	0	33024	
5742	0	33026	
5743	0	33024	
5744	0	33016	
5745	0	33020	
5746	0	33036	
5747	0	33052	
5748	0	33080	
5749	0	33108	
5750	0	33124	
5751	0	33128	
5752	0	33132	
5753	0	33164	
5754	0	33172	
5755	0	33168	
5756	0	33184	
5757	0	33172	
5758	0	33156	
5759	0	33164	
5760	0	33160	
5761	0	33152	
5762	0	33152	
5763	0	33144	
5764	0	33144	
5765	0	33136	
5766	0	33120	
5767	0	33136	
5768	0	33152	
5769	0	33136	
5770	0	33118	
5771	0	33092	
5772	0	33096	
5773	0	33088	
5774	0	33112	
5775	0	33120	
5776	0	33092	
5777	0	33108	
5778	0	33088	
5779	0	33068	
5780	0	33056	
5781	0	33040	
5782	0	33024	
5783	0	33048	
5784	0	33096	
5785	0	33114	
5786	0	33120	
5787	0	33108	
5788	0	33100	
5789	0	33076	
5790	0	33080	
5791	0	33118	
5792	0	33152	
5793	0	33178	
5794	0	33174	
5795	0	33168	
5796	0	33152	
5797	0	33150	
5798	0	33156	
5799	0	33144	
5800	0	33128	
5801	0	33148	
5802	0	33136	
5803	0	33124	
5804	0	33096	
5805	0	33088	
5806	0	33092	
5807	0	33076	
5808	0	33052	
5809	0	33056	
5810	0	33040	
5811	0	33016	
5812	0	33016	
5813	0	33036	
5814	0	33052	
5815	0	33084	
5816	0	33108	
5817	0	33128	
5818	0	33144	
5819	0	33176	
5820	0	33201	
5821	0	33240	
5822	0	33296	
5823	0	33326	
5824	0	33344	
5825	0	33332	
5826	0	33328	
5827	0	33348	
5828	0	33352	
5829	0	33364	
5830	0	33344	
5831	0	33320	
5832	0	33316	
5833	0	33332	
5834	0	33356	
5835	0	33332	
5836	0	33304	
5837	0	33280	
5838	0	33248	
5839	0	33248	
5840	0	33296	
5841	0	33372	
5842	0	33446	
5843	0	33552	
5844	0	33676	
5845	0	33806	
5846	0	33920	
5847	0	34030	
5848	0	34152	
5849	0	34272	
5850	0	34368	
5851	0	34430	
5852	0	34484	
5853	0	34528	
5854	0	34544	
5855	0	34560	
5856	0	34592	
5857	0	34624	
5858	0	34666	
5859	0	34656	
5860	0	34628	
5861	0	34580	
5862	0	34496	
5863	0	34396	
5864	0	34288	
5865	0	34200	
5866	0	34096	
5867	0	33964	
5868	0	33852	
5869	0	33776	
5870	0	33692	
5871	0	33612	
5872	0	33584	
5873	0	33528	
5874	0	33504	
5875	0	33468	
5876	0	33424	
5877	0	33368	
5878	0	33330	
5879	0	33298	
5880	0	33272	
5881	0	33248	
5882	0	33240	
5883	0	33216	
5884	0	33172	
5885	0	33136	
5886	0	33136	
5887	0	33152	
5888	0	33152	
5889	0	33148	
5890	0	33128	
5891	0	33084	
5892	0	33056	
5893	0	33028	
5894	0	33034	
5895	0	33030	
5896	0	33044	
5897	0	33024	
5898	0	33016	
5899	0	33044	
5900	0	33036	
5901	0	32992	
5902	0	32928	
5903	0	32840	
5904	0	32740	
5905	0	32648	
5906	0	32584	
5907	0	32576	
5908	0	32584	
5909	0	32592	
5910	0	32570	
5911	0	32552	
5912	0	32532	
5913	0	32518	
5914	0	32532	
5915	0	32540	
5916	0	32552	
5917	0	32544	
5918	0	32500	
5919	0	32442	
5920	0	32400	
5921	0	32396	
5922	0	32396	
5923	0	32424	
5924	0	32452	
5925	0	32440	
5926	0	32434	
5927	0	32452	
5928	0	32498	
5929	0	32544	
5930	0	32572	
5931	0	32536	
5932	0	32504	
5933	0	32502	
5934	0	32474	
5935	0	32492	
5936	0	32496	
5937	0	32484	
5938	0	32474	
5939	0	32480	
5940	0	32500	
5941	0	32512	
5942	0	32536	
5943	0	32548	
5944	0	32568	
5945	0	32572	
5946	0	32572	
5947	0	32568	
5948	0	32572	
5949	0	32576	
5950	0	32582	
5951	0	32604	
5952	0	32608	
5953	0	32628	
5954	0	32660	
5955	0	32688	
5956	0	32736	
5957	0	32740	
5958	0	32728	
5959	0	32720	
5960	0	32692	
5961	0	32676	
5962	0	32672	
5963	0	32672	
5964	0	32672	
5965	0	32708	
5966	0	32716	
5967	0	32704	
5968	0	32676	
5969	0	32684	
5970	0	32720	
5971	0	32784	
5972	0	32832	
5973	0	32876	
5974	0	32896	
5975	0	32872	
5976	0	32828	
5977	0	32700	
5978	0	32548	
5979	0	32410	
5980	0	32292	
5981	0	32176	
5982	0	32208	
5983	0	32416	
5984	0	32704	
5985	0	33004	
5986	0	33324	
5987	0	33664	
5988	0	33976	
5989	0	34312	
5990	0	34596	
5991	0	34800	
5992	0	35036	
5993	0	35484	
5994	0	36084	
5995	0	36856	
5996	0	37824	
5997	0	38960	
5998	0	40240	
5999	0	41620	
6000	0	43112	
6001	0	44688	
6002	0	46320	
6003	0	47984	
6004	0	49628	
6005	0	51188	
6006	0	52548	
6007	0	53756	
6008	0	54752	
6009	0	55712	
6010	0	56848	
6011	0	57812	
6012	0	58364	
6013	0	58336	
6014	0	57168	
6015	0	54888	
6016	0	51852	
6017	0	48280	
6018	0	44480	
6019	0	40932	
6020	0	37820	
6021	0	35392	
6022	0	33656	
6023	0	32404	
6024	0	31568	
6025	0	31076	
6026	0	30708	
6027	0	30454	
6028	0	30328	
6029	0	30236	
6030	0	30176	
6031	0	30176	
6032	0	30272	
6033	0	30376	
6034	0	30432	
6035	0	30468	
6036	0	30492	
6037	0	30560	
6038	0	30680	
6039	0	30776	
6040	0	30872	
6041	0	30940	
6042	0	30956	
6043	0	31004	
6044	0	30984	
6045	0	30968	
6046	0	30952	
6047	0	30896	
6048	0	30852	
6049	0	30808	
6050	0	30744	
6051	0	30676	
6052	0	30656	
6053	0	30628	
6054	0	30620	
6055	0	30608	
6056	0	30592	
6057	0	30604	
6058	0	30618	
6059	0	30588	
6060	0	30588	
6061	0	30624	
6062	0	30620	
6063	0	30608	
6064	0	30640	
6065	0	30640	
6066	0	30644	
6067	0	30656	
6068	0	30672	
6069	0	30688	
6070	0	30728	
6071	0	30752	
6072	0	30776	
6073	0	30784	
6074	0	30816	
6075	0	30840	
6076	0	30860	
6077	0	30880	
6078	0	30896	
6079	0	30936	
6080	0	30944	
6081	0	30960	
6082	0	30964	
6083	0	30958	
6084	0	30988	
6085	0	31032	
6086	0	31062	
6087	0	31098	
6088	0	31128	
6089	0	31144	
6090	0	31120	
6091	0	31116	
6092	0	31152	
6093	0	31192	
6094	0	31230	
6095	0	31308	
6096	0	31360	
6097	0	31402	
6098	0	31428	
6099	0	31456	
6100	0	31464	
6101	0	31488	
6102	0	31512	
6103	0	31528	
6104	0	31552	
6105	0	31588	
6106	0	31610	
6107	0	31610	
6108	0	31628	
6109	0	31632	
6110	0	31652	
6111	0	31682	
6112	0	31728	
6113	0	31752	
6114	0	31788	
6115	0	31816	
6116	0	31856	
6117	0	31876	
6118	0	31912	
6119	0	31924	
6120	0	31940	
6121	0	31950	
6122	0	31952	
6123	0	31964	
6124	0	31974	
6125	0	31996	
6126	0	32032	
6127	0	32064	
6128	0	32064	
6129	0	32102	
6130	0	32120	
6131	0	32144	
6132	0	32160	
6133	0	32184	
6134	0	32228	
6135	0	32248	
6136	0	32296	
6137	0	32348	
6138	0	32376	
6139	0	32376	
6140	0	32384	
6141	0	32392	
6142	0	32428	
6143	0	32472	
6144	0	32474	
6145	0	32464	
6146	0	32476	
6147	0	32496	
6148	0	32468	
6149	0	32464	
6150	0	32504	
6151	0	32528	
6152	0	32532	
6153	0	32564	
6154	0	32584	
6155	0	32604	
6156	0	32632	
6157	0	32656	
6158	0	32680	
6159	0	32708	
6160	0	32752	
6161	0	32756	
6162	0	32780	
6163	0	32816	
6164	0	32880	
6165	0	32896	
6166	0	32896	
6167	0	32876	
6168	0	32904	
6169	0	32956	
6170	0	33008	
6171	0	33044	
6172	0	33058	
6173	0	33060	
6174	0	33072	
6175	0	33104	
6176	0	33136	
6177	0	33172	
6178	0	33188	
6179	0	33216	
6180	0	33220	
6181	0	33220	
6182	0	33200	
6183	0	33208	
6184	0	33200	
6185	0	33180	
6186	0	33196	
6187	0	33184	
6188	0	33184	
6189	0	33192	
6190	0	33196	
6191	0	33212	
6192	0	33240	
6193	0	33304	
6194	0	33308	
6195	0	33316	
6196	0	33300	
6197	0	33312	
6198	0	33320	
6199	0	33332	
6200	0	33338	
6201	0	33332	
6202	0	33348	
6203	0	33360	
6204	0	33398	
6205	0	33428	
6206	0	33440	
6207	0	33452	
6208	0	33504	
6209	0	33560	
6210	0	33568	
6211	0	33560	
6212	0	33552	
6213	0	33576	
6214	0	33600	
6215	0	33618	
6216	0	33664	
6217	0	33712	
6218	0	33744	
6219	0	33744	
6220	0	33792	
6221	0	33836	
6222	0	33854	
6223	0	33888	
6224	0	33876	
6225	0	33868	
6226	0	33876	
6227	0	33864	
6228	0	33856	
6229	0	33856	
6230	0	33856	
6231	0	33870	
6232	0	33896	
6233	0	33914	
6234	0	33956	
6235	0	33924	
6236	0	33888	
6237	0	33912	
6238	0	33924	
6239	0	33964	
6240	0	33988	
6241	0	34000	
6242	0	34008	
6243	0	34008	
6244	0	34000	
6245	0	34020	
6246	0	34052	
6247	0	34096	
6248	0	34124	
6249	0	34128	
6250	0	34140	
6251	0	34160	
6252	0	34180	
6253	0	34232	
6254	0	34284	
6255	0	34336	
6256	0	34360	
6257	0	34346	
6258	0	34308	
6259	0	34264	
6260	0	34248	
6261	0	34256	
6262	0	34232	
6263	0	34212	
6264	0	34212	
6265	0	34236	
6266	0	34230	
6267	0	34244	
6268	0	34216	
6269	0	34188	
6270	0	34188	
6271	0	34132	
6272	0	34088	
6273	0	34084	
6274	0	34088	
6275	0	34088	
6276	0	34128	
6277	0	34128	
6278	0	34132	
6279	0	34080	
6280	0	34028	
6281	0	34028	
6282	0	34046	
6283	0	34060	
6284	0	34088	
6285	0	34080	
6286	0	34052	
6287	0	34024	
6288	0	34000	
6289	0	34000	
6290	0	33984	
6291	0	33952	
6292	0	33904	
6293	0	33880	
6294	0	33868	
6295	0	33868	
6296	0	33828	
6297	0	33728	
6298	0	33640	
6299	0	33608	
6300	0	33536	
6301	0	33448	
6302	0	33336	
6303	0	33216	
6304	0	33132	
6305	0	33096	
6306	0	33088	
6307	0	33036	
6308	0	32964	
6309	0	32878	
6310	0	32808	
6311	0	32716	
6312	0	32616	
6313	0	32544	
6314	0	32460	
6315	0	32360	
6316	0	32268	
6317	0	32184	
6318	0	32076	
6319	0	31996	
6320	0	31908	
6321	0	31820	
6322	0	31740	
6323	0	31656	
6324	0	31560	
6325	0	31492	
6326	0	31374	
6327	0	31268	
6328	0	31188	
6329	0	31120	
6330	0	31088	
6331	0	31076	
6332	0	31048	
6333	0	31048	
6334	0	31044	
6335	0	31016	
6336	0	31008	
6337	0	30968	
6338	0	30932	
6339	0	30884	
6340	0	30902	
6341	0	30860	
6342	0	30852	
6343	0	30848	
6344	0	30820	
6345	0	30764	
6346	0	30696	
6347	0	30632	
6348	0	30584	
6349	0	30528	
6350	0	30496	
6351	0	30464	
6352	0	30440	
6353	0	30464	
6354	0	30486	
6355	0	30496	
6356	0	30520	
6357	0	30542	
6358	0	30576	
6359	0	30596	
6360	0	30636	
6361	0	30704	
6362	0	30756	
6363	0	30776	
6364	0	30786	
6365	0	30766	
6366	0	30756	
6367	0	30768	
6368	0	30796	
6369	0	30792	
6370	0	30836	
6371	0	30852	
6372	0	30880	
6373	0	30920	
6374	0	30944	
6375	0	30956	
6376	0	30970	
6377	0	30968	
6378	0	30930	
6379	0	30908	
6380	0	30904	
6381	0	30900	
6382	0	30892	
6383	0	30862	
6384	0	30884	
6385	0	30936	
6386	0	30992	
6387	0	31012	
6388	0	31052	
6389	0	31092	
6390	0	31120	
6391	0	31160	
6392	0	31172	
6393	0	31160	
6394	0	31162	
6395	0	31136	
6396	0	31116	
6397	0	31096	
6398	0	31112	
6399	0	31200	
6400	0	31248	
6401	0	31280	
6402	0	31304	
6403	0	31332	
6404	0	31356	
6405	0	31364	
6406	0	31376	
6407	0	31408	
6408	0	31440	
6409	0	31456	
6410	0	31444	
6411	0	31432	
6412	0	31436	
6413	0	31452	
6414	0	31464	
6415	0	31444	
6416	0	31412	
6417	0	31392	
6418	0	31392	
6419	0	31386	
6420	0	31376	
6421	0	31400	
6422	0	31456	
6423	0	31458	
6424	0	31440	
6425	0	31448	
6426	0	31464	
6427	0	31468	
6428	0	31478	
6429	0	31524	
6430	0	31580	
6431	0	31664	
6432	0	31712	
6433	0	31726	
6434	0	31760	
6435	0	31792	
6436	0	31808	
6437	0	31824	
6438	0	31816	
6439	0	31776	
6440	0	31748	
6441	0	31760	
6442	0	31808	
6443	0	31840	
6444	0	31832	
6445	0	31816	
6446	0	31808	
6447	0	31820	
6448	0	31822	
6449	0	31836	
6450	0	31840	
6451	0	31840	
6452	0	31812	
6453	0	31792	
6454	0	31832	
6455	0	31892	
6456	0	31896	
6457	0	31900	
6458	0	31936	
6459	0	31936	
6460	0	31956	
6461	0	31948	
6462	0	31956	
6463	0	31968	
6464	0	31984	
6465	0	32016	
6466	0	32004	
6467	0	31992	
6468	0	31992	
6469	0	32004	
6470	0	32040	
6471	0	32036	
6472	0	32016	
6473	0	32034	
6474	0	32052	
6475	0	32072	
6476	0	32064	
6477	0	32032	
6478	0	32022	
6479	0	32020	
6480	0	32036	
6481	0	32032	
6482	0	31980	
6483	0	31880	
6484	0	31800	
6485	0	31720	
6486	0	31644	
6487	0	31632	
6488	0	31660	
6489	0	31660	
6490	0	31644	
6491	0	31684	
6492	0	31744	
6493	0	31776	
6494	0	31802	
6495	0	31836	
6496	0	31860	
6497	0	31900	
6498	0	31940	
6499	0	31952	
6500	0	31960	
6501	0	31952	
6502	0	31925	
6503	0	31908	
6504	0	31928	
6505	0	31960	
6506	0	31928	
6507	0	31896	
6508	0	31888	
6509	0	31900	
6510	0	31877	
6511	0	31848	
6512	0	31824	
6513	0	31832	
6514	0	31826	
6515	0	31808	
6516	0	31778	
6517	0	31760	
6518	0	31772	
6519	0	31796	
6520	0	31852	
6521	0	31868	
6522	0	31868	
6523	0	31916	
6524	0	31948	
6525	0	31956	
6526	0	31960	
6527	0	31944	
6528	0	31944	
6529	0	31956	
6530	0	31964	
6531	0	31960	
6532	0	31972	
6533	0	31996	
6534	0	32006	
6535	0	31996	
6536	0	31996	
6537	0	32000	
6538	0	31994	
6539	0	32012	
6540	0	32008	
6541	0	32026	
6542	0	32028	
6543	0	32020	
6544	0	31988	
6545	0	31960	
6546	0	31920	
6547	0	31920	
6548	0	31888	
6549	0	31836	
6550	0	31836	
6551	0	31844	
6552	0	31868	
6553	0	31904	
6554	0	31920	
6555	0	31936	
6556	0	31960	
6557	0	31984	
6558	0	32032	
6559	0	32088	
6560	0	32100	
6561	0	32084	
6562	0	32050	
6563	0	32044	
6564	0	32048	
6565	0	32036	
6566	0	31980	
6567	0	31960	
6568	0	31944	
6569	0	31936	
6570	0	31960	
6571	0	32008	
6572	0	32076	
6573	0	32156	
6574	0	32208	
6575	0	32276	
6576	0	32320	
6577	0	32360	
6578	0	32384	
6579	0	32398	
6580	0	32392	
6581	0	32352	
6582	0	32268	
6583	0	32252	
6584	0	32280	
6585	0	32312	
6586	0	32336	
6587	0	32336	
6588	0	32312	
6589	0	32288	
6590	0	32284	
6591	0	32284	
6592	0	32308	
6593	0	32304	
6594	0	32276	
6595	0	32270	
6596	0	32314	
6597	0	32332	
6598	0	32344	
6599	0	32360	
6600	0	32348	
6601	0	32328	
6602	0	32324	
6603	0	32314	
6604	0	32316	
6605	0	32328	
6606	0	32352	
6607	0	32344	
6608	0	32348	
6609	0	32380	
6610	0	32420	
6611	0	32452	
6612	0	32496	
6613	0	32524	
6614	0	32552	
6615	0	32574	
6616	0	32580	
6617	0	32544	
6618	0	32524	
6619	0	32490	
6620	0	32476	
6621	0	32460	
6622	0	32410	
6623	0	32344	
6624	0	32300	
6625	0	32312	
6626	0	32312	
6627	0	32328	
6628	0	32324	
6629	0	32304	
6630	0	32312	
6631	0	32304	
6632	0	32316	
6633	0	32344	
6634	0	32366	
6635	0	32400	
6636	0	32376	
6637	0	32344	
6638	0	32360	
6639	0	32408	
6640	0	32444	
6641	0	32464	
6642	0	32492	
6643	0	32484	
6644	0	32524	
6645	0	32542	
6646	0	32552	
6647	0	32552	
6648	0	32568	
6649	0	32600	
6650	0	32628	
6651	0	32620	
6652	0	32608	
6653	0	32596	
6654	0	32608	
6655	0	32600	
6656	0	32644	
6657	0	32680	
6658	0	32716	
6659	0	32730	
6660	0	32736	
6661	0	32712	
6662	0	32676	
6663	0	32632	
6664	0	32624	
6665	0	32636	
6666	0	32632	
6667	0	32622	
6668	0	32660	
6669	0	32688	
6670	0	32700	
6671	0	32738	
6672	0	32768	
6673	0	32774	
6674	0	32792	
6675	0	32804	
6676	0	32768	
6677	0	32772	
6678	0	32802	
6679	0	32832	
6680	0	32848	
6681	0	32872	
6682	0	32864	
6683	0	32856	
6684	0	32866	
6685	0	32844	
6686	0	32826	
6687	0	32816	
6688	0	32804	
6689	0	32788	
6690	0	32708	
6691	0	32644	
6692	0	32564	
6693	0	32524	
6694	0	32512	
6695	0	32540	
6696	0	32552	
6697	0	32560	
6698	0	32564	
6699	0	32552	
6700	0	32548	
6701	0	32572	
6702	0	32602	
6703	0	32648	
6704	0	32712	
6705	0	32740	
6706	0	32772	
6707	0	32772	
6708	0	32762	
6709	0	32756	
6710	0	32692	
6711	0	32604	
6712	0	32548	
6713	0	32500	
6714	0	32488	
6715	0	32556	
6716	0	32656	
6717	0	32676	
6718	0	32702	
6719	0	32760	
6720	0	32752	
6721	0	32752	
6722	0	32784	
6723	0	32812	
6724	0	32828	
6725	0	32808	
6726	0	32788	
6727	0	32792	
6728	0	32798	
6729	0	32824	
6730	0	32824	
6731	0	32848	
6732	0	32888	
6733	0	32932	
6734	0	32988	
6735	0	33036	
6736	0	33080	
6737	0	33054	
6738	0	33004	
6739	0	32972	
6740	0	32960	
6741	0	32944	
6742	0	32912	
6743	0	32884	
6744	0	32884	
6745	0	32912	
6746	0	32912	
6747	0	32932	
6748	0	32940	
6749	0	32940	
6750	0	32932	
6751	0	32904	
6752	0	32940	
6753	0	32964	
6754	0	32984	
6755	0	32992	
6756	0	33008	
6757	0	32988	
6758	0	32956	
6759	0	32944	
6760	0	32924	
6761	0	32884	
6762	0	32836	
6763	0	32824	
6764	0	32796	
6765	0	32784	
6766	0	32788	
6767	0	32796	
6768	0	32796	
6769	0	32788	
6770	0	32800	
6771	0	32808	
6772	0	32808	
6773	0	32832	
6774	0	32872	
6775	0	32848	
6776	0	32864	
6777	0	32856	
6778	0	32840	
6779	0	32814	
6780	0	32816	
6781	0	32856	
6782	0	32884	
6783	0	32864	
6784	0	32868	
6785	0	32872	
6786	0	32916	
6787	0	32960	
6788	0	33008	
6789	0	32996	
6790	0	33024	
6791	0	33036	
6792	0	33024	
6793	0	32972	
6794	0	32940	
6795	0	32932	
6796	0	32962	
6797	0	33044	
6798	0	33100	
6799	0	33092	
6800	0	33056	
6801	0	33000	
6802	0	32980	
6803	0	32968	
6804	0	32952	
6805	0	32912	
6806	0	32910	
6807	0	32940	
6808	0	32992	
6809	0	33088	
6810	0	33192	
6811	0	33304	
6812	0	33420	
6813	0	33556	
6814	0	33668	
6815	0	33736	
6816	0	33800	
6817	0	33800	
6818	0	33732	
6819	0	33640	
6820	0	33568	
6821	0	33524	
6822	0	33480	
6823	0	33472	
6824	0	33496	
6825	0	33520	
6826	0	33552	
6827	0	33586	
6828	0	33600	
6829	0	33616	
6830	0	33656	
6831	0	33672	
6832	0	33680	
6833	0	33736	
6834	0	33804	
6835	0	33884	
6836	0	33952	
6837	0	33992	
6838	0	33980	
6839	0	33916	
6840	0	33824	
6841	0	33684	
6842	0	33568	
6843	0	33504	
6844	0	33464	
6845	0	33376	
6846	0	33328	
6847	0	33336	
6848	0	33368	
6849	0	33432	
6850	0	33468	
6851	0	33422	
6852	0	33384	
6853	0	33376	
6854	0	33368	
6855	0	33372	
6856	0	33404	
6857	0	33400	
6858	0	33380	
6859	0	33344	
6860	0	33296	
6861	0	33256	
6862	0	33280	
6863	0	33280	
6864	0	33192	
6865	0	33104	
6866	0	33044	
6867	0	32976	
6868	0	32952	
6869	0	32920	
6870	0	32880	
6871	0	32812	
6872	0	32812	
6873	0	32800	
6874	0	32828	
6875	0	32852	
6876	0	32808	
6877	0	32784	
6878	0	32848	
6879	0	32896	
6880	0	32878	
6881	0	32856	
6882	0	32796	
6883	0	32704	
6884	0	32612	
6885	0	32510	
6886	0	32466	
6887	0	32436	
6888	0	32364	
6889	0	32364	
6890	0	32364	
6891	0	32364	
6892	0	32364	
6893	0	32392	
6894	0	32474	
6895	0	32572	
6896	0	32640	
6897	0	32672	
6898	0	32712	
6899	0	32684	
6900	0	32632	
6901	0	32596	
6902	0	32544	
6903	0	32504	
6904	0	32452	
6905	0	32416	
6906	0	32396	
6907	0	32424	
6908	0	32472	
6909	0	32520	
6910	0	32558	
6911	0	32604	
6912	0	32620	
6913	0	32628	
6914	0	32636	
6915	0	32654	
6916	0	32660	
6917	0	32672	
6918	0	32684	
6919	0	32708	
6920	0	32722	
6921	0	32780	
6922	0	32884	
6923	0	32928	
6924	0	32912	
6925	0	32860	
6926	0	32824	
6927	0	32784	
6928	0	32784	
6929	0	32784	
6930	0	32780	
6931	0	32820	
6932	0	32856	
6933	0	32864	
6934	0	32900	
6935	0	32970	
6936	0	33044	
6937	0	33088	
6938	0	33064	
6939	0	33040	
6940	0	33016	
6941	0	33008	
6942	0	32992	
6943	0	32944	
6944	0	32906	
6945	0	32858	
6946	0	32824	
6947	0	32832	
6948	0	32872	
6949	0	32892	
6950	0	32928	
6951	0	32916	
6952	0	32880	
6953	0	32832	
6954	0	32740	
6955	0	32622	
6956	0	32456	
6957	0	32308	
6958	0	32212	
6959	0	32156	
6960	0	32264	
6961	0	32544	
6962	0	32872	
6963	0	33236	
6964	0	33616	
6965	0	33980	
6966	0	34324	
6967	0	34576	
6968	0	34656	
6969	0	34804	
6970	0	35136	
6971	0	35604	
6972	0	36284	
6973	0	37172	
6974	0	38276	
6975	0	39524	
6976	0	40928	
6977	0	42512	
6978	0	44248	
6979	0	46052	
6980	0	47840	
6981	0	49628	
6982	0	51532	
6983	0	53420	
6984	0	55084	
6985	0	56448	
6986	0	57508	
6987	0	58468	
6988	0	59380	
6989	0	60128	
6990	0	60540	
6991	0	60104	
6992	0	58744	
6993	0	56420	
6994	0	53208	
6995	0	49480	
6996	0	45552	
6997	0	41696	
6998	0	38188	
6999	0	35184	
7000	0	32832	
7001	0	31150	
7002	0	29972	
7003	0	29058	
7004	0	28502	
7005	0	28312	
7006	0	28340	
7007	0	28586	
7008	0	29044	
7009	0	29496	
7010	0	29854	
7011	0	30104	
7012	0	30252	
7013	0	30352	
7014	0	30456	
7015	0	30506	
7016	0	30568	
7017	0	30696	
7018	0	30828	
7019	0	30944	
7020	0	31032	
7021	0	31080	
7022	0	31072	
7023	0	31066	
7024	0	31076	
7025	0	31044	
7026	0	31044	
7027	0	31020	
7028	0	30952	
7029	0	30880	
7030	0	30784	
7031	0	30682	
7032	0	30602	
7033	0	30554	
7034	0	30544	
7035	0	30574	
7036	0	30628	
7037	0	30652	
7038	0	30656	
7039	0	30688	
7040	0	30728	
7041	0	30744	
7042	0	30780	
7043	0	30808	
7044	0	30812	
7045	0	30836	
7046	0	30872	
7047	0	30904	
7048	0	30912	
7049	0	30940	
7050	0	30972	
7051	0	31016	
7052	0	31108	
7053	0	31150	
7054	0	31116	
7055	0	31088	
7056	0	31072	
7057	0	31088	
7058	0	31096	
7059	0	31124	
7060	0	31124	
7061	0	31144	
7062	0	31160	
7063	0	31190	
7064	0	31252	
7065	0	31300	
7066	0	31300	
7067	0	31276	
7068	0	31250	
7069	0	31212	
7070	0	31192	
7071	0	31202	
7072	0	31280	
7073	0	31360	
7074	0	31456	
7075	0	31564	
7076	0	31648	
7077	0	31704	
7078	0	31732	
7079	0	31734	
7080	0	31716	
7081	0	31704	
7082	0	31680	
7083	0	31696	
7084	0	31706	
7085	0	31710	
7086	0	31712	
7087	0	31684	
7088	0	31708	
7089	0	31746	
7090	0	31728	
7091	0	31736	
7092	0	31784	
7093	0	31844	
7094	0	31904	
7095	0	31932	
7096	0	31984	
7097	0	32060	
7098	0	32116	
7099	0	32184	
7100	0	32240	
7101	0	32308	
7102	0	32378	
7103	0	32436	
7104	0	32432	
7105	0	32378	
7106	0	32366	
7107	0	32372	
7108	0	32408	
7109	0	32496	
7110	0	32540	
7111	0	32562	
7112	0	32524	
7113	0	32488	
7114	0	32456	
7115	0	32408	
7116	0	32372	
7117	0	32320	
7118	0	32300	
7119	0	32296	
7120	0	32304	
7121	0	32364	
7122	0	32420	
7123	0	32420	
7124	0	32458	
7125	0	32460	
7126	0	32440	
7127	0	32432	
7128	0	32448	
7129	0	32484	
7130	0	32556	
7131	0	32616	
7132	0	32692	
7133	0	32760	
7134	0	32824	
7135	0	32852	
7136	0	32884	
7137	0	32940	
7138	0	32996	
7139	0	33068	
7140	0	33096	
7141	0	33092	
7142	0	33116	
7143	0	33156	
7144	0	33184	
7145	0	33188	
7146	0	33176	
7147	0	33172	
7148	0	33184	
7149	0	33178	
7150	0	33140	
7151	0	33098	
7152	0	33068	
7153	0	33016	
7154	0	33016	
7155	0	33050	
7156	0	33052	
7157	0	33036	
7158	0	33060	
7159	0	33116	
7160	0	33160	
7161	0	33172	
7162	0	33164	
7163	0	33152	
7164	0	33150	
7165	0	33192	
7166	0	33232	
7167	0	33224	
7168	0	33204	
7169	0	33188	
7170	0	33228	
7171	0	33296	
7172	0	33308	
7173	0	33324	
7174	0	33380	
7175	0	33396	
7176	0	33408	
7177	0	33444	
7178	0	33480	
7179	0	33512	
7180	0	33508	
7181	0	33500	
7182	0	33480	
7183	0	33490	
7184	0	33544	
7185	0	33640	
7186	0	33704	
7187	0	33736	
7188	0	33724	
7189	0	33688	
7190	0	33700	
7191	0	33760	
7192	0	33804	
7193	0	33816	
7194	0	33820	
7195	0	33856	
7196	0	33872	
7197	0	33816	
7198	0	33802	
7199	0	33840	
7200	0	33850	
7201	0	33828	
7202	0	33816	
7203	0	33792	
7204	0	33788	
7205	0	33828	
7206	0	33884	
7207	0	33884	
7208	0	33868	
7209	0	33876	
7210	0	33896	
7211	0	33920	
7212	0	34004	
7213	0	34084	
7214	0	34138	
7215	0	34176	
7216	0	34218	
7217	0	34268	
7218	0	34280	
7219	0	34276	
7220	0	34228	
7221	0	34208	
7222	0	34148	
7223	0	34096	
7224	0	34076	
7225	0	34032	
7226	0	34026	
7227	0	34032	
7228	0	34024	
7229	0	33992	
7230	0	33988	
7231	0	33984	
7232	0	34000	
7233	0	34032	
7234	0	34012	
7235	0	33962	
7236	0	33924	
7237	0	33920	
7238	0	33952	
7239	0	33984	
7240	0	34004	
7241	0	34036	
7242	0	34100	
7243	0	34108	
7244	0	34088	
7245	0	34092	
7246	0	34136	
7247	0	34172	
7248	0	34184	
7249	0	34184	
7250	0	34200	
7251	0	34176	
7252	0	34152	
7253	0	34144	
7254	0	34122	
7255	0	34084	
7256	0	34044	
7257	0	34032	
7258	0	34000	
7259	0	33976	
7260	0	33996	
7261	0	33976	
7262	0	33948	
7263	0	33888	
7264	0	33868	
7265	0	33852	
7266	0	33780	
7267	0	33744	
7268	0	33692	
7269	0	33648	
7270	0	33612	
7271	0	33608	
7272	0	33602	
7273	0	33516	
7274	0	33408	
7275	0	33272	
7276	0	33148	
7277	0	33032	
7278	0	32916	
7279	0	32812	
7280	0	32692	
7281	0	32540	
7282	0	32372	
7283	0	32228	
7284	0	32082	
7285	0	31952	
7286	0	31884	
7287	0	31832	
7288	0	31712	
7289	0	31628	
7290	0	31552	
7291	0	31500	
7292	0	31452	
7293	0	31388	
7294	0	31316	
7295	0	31260	
7296	0	31184	
7297	0	31140	
7298	0	31088	
7299	0	31026	
7300	0	30934	
7301	0	30904	
7302	0	30880	
7303	0	30820	
7304	0	30744	
7305	0	30644	
7306	0	30552	
7307	0	30436	
7308	0	30340	
7309	0	30276	
7310	0	30240	
7311	0	30240	
7312	0	30260	
7313	0	30244	
7314	0	30172	
7315	0	30132	
7316	0	30028	
7317	0	29952	
7318	0	29902	
7319	0	29864	
7320	0	29832	
7321	0	29768	
7322	0	29744	
7323	0	29760	
7324	0	29796	
7325	0	29820	
7326	0	29792	
7327	0	29814	
7328	0	29864	
7329	0	29908	
7330	0	29948	
7331	0	29984	
7332	0	29996	
7333	0	30000	
7334	0	30024	
7335	0	30080	
7336	0	30144	
7337	0	30160	
7338	0	30128	
7339	0	30096	
7340	0	30076	
7341	0	30080	
7342	0	30072	
7343	0	30036	
7344	0	30004	
7345	0	29972	
7346	0	29950	
7347	0	29888	
7348	0	29880	
7349	0	29920	
7350	0	29952	
7351	0	30004	
7352	0	30074	
7353	0	30160	
7354	0	30252	
7355	0	30344	
7356	0	30440	
7357	0	30496	
7358	0	30496	
7359	0	30464	
7360	0	30414	
7361	0	30368	
7362	0	30348	
7363	0	30360	
7364	0	30372	
7365	0	30400	
7366	0	30460	
7367	0	30556	
7368	0	30648	
7369	0	30708	
7370	0	30712	
7371	0	30700	
7372	0	30768	
7373	0	30832	
7374	0	30896	
7375	0	30900	
7376	0	30852	
7377	0	30862	
7378	0	30848	
7379	0	30792	
7380	0	30748	
7381	0	30760	
7382	0	30820	
7383	0	30856	
7384	0	30884	
7385	0	30912	
7386	0	30936	
7387	0	30976	
7388	0	31048	
7389	0	31144	
7390	0	31160	
7391	0	31168	
7392	0	31176	
7393	0	31212	
7394	0	31268	
7395	0	31362	
7396	0	31442	
7397	0	31504	
7398	0	31572	
7399	0	31592	
7400	0	31608	
7401	0	31612	
7402	0	31592	
7403	0	31572	
7404	0	31548	
7405	0	31560	
7406	0	31604	
7407	0	31604	
7408	0	31572	
7409	0	31492	
7410	0	31456	
7411	0	31422	
7412	0	31404	
7413	0	31372	
7414	0	31352	
7415	0	31336	
7416	0	31344	
7417	0	31416	
7418	0	31464	
7419	0	31488	
7420	0	31520	
7421	0	31552	
7422	0	31624	
7423	0	31690	
7424	0	31684	
7425	0	31648	
7426	0	31584	
7427	0	31524	
7428	0	31520	
7429	0	31562	
7430	0	31600	
7431	0	31604	
7432	0	31608	
7433	0	31636	
7434	0	31712	
7435	0	31772	
7436	0	31752	
7437	0	31660	
7438	0	31584	
7439	0	31596	
7440	0	31610	
7441	0	31620	
7442	0	31596	
7443	0	31606	
7444	0	31592	
7445	0	31600	
7446	0	31608	
7447	0	31620	
7448	0	31588	
7449	0	31608	
7450	0	31632	
7451	0	31600	
7452	0	31562	
7453	0	31548	
7454	0	31532	
7455	0	31508	
7456	0	31528	
7457	0	31512	
7458	0	31516	
7459	0	31528	
7460	0	31522	
7461	0	31528	
7462	0	31568	
7463	0	31601	
7464	0	31624	
7465	0	31608	
7466	0	31576	
7467	0	31532	
7468	0	31456	
7469	0	31436	
7470	0	31456	
7471	0	31466	
7472	0	31488	
7473	0	31540	
7474	0	31576	
7475	0	31608	
7476	0	31600	
7477	0	31566	
7478	0	31508	
7479	0	31490	
7480	0	31508	
7481	0	31540	
7482	0	31564	
7483	0	31572	
7484	0	31576	
7485	0	31612	
7486	0	31580	
7487	0	31504	
7488	0	31492	
7489	0	31484	
7490	0	31472	
7491	0	31436	
7492	0	31460	
7493	0	31494	
7494	0	31496	
7495	0	31470	
7496	0	31456	
7497	0	31484	
7498	0	31516	
7499	0	31560	
7500	0	31596	
7501	0	31652	
7502	0	31662	
7503	0	31696	
7504	0	31708	
7505	0	31718	
7506	0	31760	
7507	0	31786	
7508	0	31792	
7509	0	31816	
7510	0	31828	
7511	0	31796	
7512	0	31784	
7513	0	31768	
7514	0	31752	
7515	0	31752	
7516	0	31764	
7517	0	31792	
7518	0	31806	
7519	0	31808	
7520	0	31800	
7521	0	31782	
7522	0	31792	
7523	0	31760	
7524	0	31742	
7525	0	31772	
7526	0	31796	
7527	0	31836	
7528	0	31840	
7529	0	31808	
7530	0	31776	
7531	0	31752	
7532	0	31712	
7533	0	31732	
7534	0	31766	
7535	0	31752	
7536	0	31732	
7537	0	31760	
7538	0	31788	
7539	0	31776	
7540	0	31752	
7541	0	31760	
7542	0	31782	
7543	0	31784	
7544	0	31812	
7545	0	31840	
7546	0	31864	
7547	0	31888	
7548	0	31904	
7549	0	31884	
7550	0	31864	
7551	0	31892	
7552	0	31940	
7553	0	31968	
7554	0	31964	
7555	0	31930	
7556	0	31916	
7557	0	31944	
7558	0	31984	
7559	0	32048	
7560	0	32088	
7561	0	32076	
7562	0	32068	
7563	0	32076	
7564	0	32136	
7565	0	32192	
7566	0	32188	
7567	0	32152	
7568	0	32080	
7569	0	32020	
7570	0	32026	
7571	0	32036	
7572	0	32072	
7573	0	32140	
7574	0	32176	
7575	0	32136	
7576	0	32068	
7577	0	32040	
7578	0	32028	
7579	0	32040	
7580	0	32044	
7581	0	32072	
7582	0	32112	
7583	0	32120	
7584	0	32142	
7585	0	32144	
7586	0	32124	
7587	0	32108	
7588	0	32116	
7589	0	32128	
7590	0	32124	
7591	0	32112	
7592	0	32136	
7593	0	32160	
7594	0	32180	
7595	0	32156	
7596	0	32136	
7597	0	32140	
7598	0	32132	
7599	0	32088	
7600	0	32072	
7601	0	32116	
7602	0	32160	
7603	0	32200	
7604	0	32220	
7605	0	32224	
7606	0	32234	
7607	0	32208	
7608	0	32204	
7609	0	32192	
7610	0	32180	
7611	0	32202	
7612	0	32256	
7613	0	32312	
7614	0	32324	
7615	0	32352	
7616	0	32380	
7617	0	32412	
7618	0	32456	
7619	0	32496	
7620	0	32508	
7621	0	32560	
7622	0	32584	
7623	0	32604	
7624	0	32596	
7625	0	32572	
7626	0	32544	
7627	0	32492	
7628	0	32444	
7629	0	32384	
7630	0	32328	
7631	0	32284	
7632	0	32244	
7633	0	32184	
7634	0	32172	
7635	0	32192	
7636	0	32184	
7637	0	32204	
7638	0	32244	
7639	0	32320	
7640	0	32392	
7641	0	32440	
7642	0	32464	
7643	0	32504	
7644	0	32556	
7645	0	32592	
7646	0	32632	
7647	0	32652	
7648	0	32672	
7649	0	32672	
7650	0	32676	
7651	0	32640	
7652	0	32624	
7653	0	32644	
7654	0	32680	
7655	0	32716	
7656	0	32740	
7657	0	32770	
7658	0	32826	
7659	0	32866	
7660	0	32896	
7661	0	32956	
7662	0	33050	
7663	0	33166	
7664	0	33256	
7665	0	33404	
7666	0	33572	
7667	0	33704	
7668	0	33818	
7669	0	33936	
7670	0	34060	
7671	0	34138	
7672	0	34172	
7673	0	34248	
7674	0	34380	
7675	0	34520	
7676	0	34636	
7677	0	34660	
7678	0	34624	
7679	0	34536	
7680	0	34404	
7681	0	34248	
7682	0	34068	
7683	0	33896	
7684	0	33756	
7685	0	33632	
7686	0	33536	
7687	0	33448	
7688	0	33384	
7689	0	33324	
7690	0	33336	
7691	0	33340	
7692	0	33336	
7693	0	33320	
7694	0	33292	
7695	0	33280	
7696	0	33306	
7697	0	33260	
7698	0	33206	
7699	0	33140	
7700	0	33082	
7701	0	33028	
7702	0	32984	
7703	0	32944	
7704	0	32928	
7705	0	32928	
7706	0	32944	
7707	0	32940	
7708	0	32928	
7709	0	32900	
7710	0	32888	
7711	0	32866	
7712	0	32836	
7713	0	32784	
7714	0	32758	
7715	0	32756	
7716	0	32784	
7717	0	32780	
7718	0	32756	
7719	0	32706	
7720	0	32624	
7721	0	32520	
7722	0	32444	
7723	0	32384	
7724	0	32328	
7725	0	32292	
7726	0	32260	
7727	0	32264	
7728	0	32296	
7729	0	32338	
7730	0	32372	
7731	0	32404	
7732	0	32424	
7733	0	32368	
7734	0	32304	
7735	0	32242	
7736	0	32226	
7737	0	32260	
7738	0	32292	
7739	0	32288	
7740	0	32306	
7741	0	32336	
7742	0	32372	
7743	0	32428	
7744	0	32424	
7745	0	32428	
7746	0	32416	
7747	0	32396	
7748	0	32392	
7749	0	32416	
7750	0	32404	
7751	0	32376	
7752	0	32376	
7753	0	32352	
7754	0	32320	
7755	0	32276	
7756	0	32246	
7757	0	32216	
7758	0	32196	
7759	0	32192	
7760	0	32168	
7761	0	32184	
7762	0	32256	
7763	0	32334	
7764	0	32380	
7765	0	32386	
7766	0	32404	
7767	0	32424	
7768	0	32440	
7769	0	32436	
7770	0	32416	
7771	0	32450	
7772	0	32480	
7773	0	32516	
7774	0	32568	
7775	0	32584	
7776	0	32572	
7777	0	32552	
7778	0	32576	
7779	0	32580	
7780	0	32542	
7781	0	32524	
7782	0	32536	
7783	0	32564	
7784	0	32614	
7785	0	32624	
7786	0	32626	
7787	0	32616	
7788	0	32616	
7789	0	32624	
7790	0	32672	
7791	0	32724	
7792	0	32764	
7793	0	32792	
7794	0	32800	
7795	0	32800	
7796	0	32752	
7797	0	32612	
7798	0	32424	
7799	0	32252	
7800	0	32092	
7801	0	31956	
7802	0	31898	
7803	0	32036	
7804	0	32344	
7805	0	32700	
7806	0	33080	
7807	0	33484	
7808	0	33884	
7809	0	34276	
7810	0	34640	
7811	0	34848	
7812	0	35016	
7813	0	35368	
7814	0	35952	
7815	0	36748	
7816	0	37704	
7817	0	38864	
7818	0	40200	
7819	0	41680	
7820	0	43288	
7821	0	45012	
7822	0	46816	
7823	0	48664	
7824	0	50576	
7825	0	52552	
7826	0	54416	
7827	0	56096	
7828	0	57464	
7829	0	58496	
7830	0	59424	
7831	0	60432	
7832	0	61236	
7833	0	61616	
7834	0	61240	
7835	0	59796	
7836	0	57332	
7837	0	54016	
7838	0	50208	
7839	0	46072	
7840	0	41960	
7841	0	38192	
7842	0	35080	
7843	0	32782	
7844	0	31124	
7845	0	29934	
7846	0	29130	
7847	0	28676	
7848	0	28476	
7849	0	28480	
7850	0	28714	
7851	0	29084	
7852	0	29448	
7853	0	29736	
7854	0	29964	
7855	0	30176	
7856	0	30316	
7857	0	30420	
7858	0	30456	
7859	0	30556	
7860	0	30620	
7861	0	30640	
7862	0	30644	
7863	0	30632	
7864	0	30644	
7865	0	30658	
7866	0	30680	
7867	0	30688	
7868	0	30696	
7869	0	30700	
7870	0	30700	
7871	0	30676	
7872	0	30632	
7873	0	30584	
7874	0	30536	
7875	0	30496	
7876	0	30448	
7877	0	30432	
7878	0	30458	
7879	0	30484	
7880	0	30464	
7881	0	30498	
7882	0	30520	
7883	0	30552	
7884	0	30592	
7885	0	30616	
7886	0	30636	
7887	0	30664	
7888	0	30672	
7889	0	30680	
7890	0	30652	
7891	0	30628	
7892	0	30624	
7893	0	30630	
7894	0	30656	
7895	0	30672	
7896	0	30672	
7897	0	30692	
7898	0	30732	
7899	0	30784	
7900	0	30864	
7901	0	30924	
7902	0	30940	
7903	0	30976	
7904	0	31020	
7905	0	31080	
7906	0	31118	
7907	0	31128	
7908	0	31152	
7909	0	31168	
7910	0	31172	
7911	0	31180	
7912	0	31180	
7913	0	31178	
7914	0	31172	
7915	0	31196	
7916	0	31248	
7917	0	31276	
7918	0	31296	
7919	0	31316	
7920	0	31336	
7921	0	31350	
7922	0	31368	
7923	0	31420	
7924	0	31496	
7925	0	31544	
7926	0	31572	
7927	0	31616	
7928	0	31656	
7929	0	31660	
7930	0	31688	
7931	0	31700	
7932	0	31696	
7933	0	31682	
7934	0	31656	
7935	0	31660	
7936	0	31720	
7937	0	31792	
7938	0	31836	
7939	0	31860	
7940	0	31884	
7941	0	31912	
7942	0	31960	
7943	0	31982	
7944	0	32018	
7945	0	32060	
7946	0	32076	
7947	0	32088	
7948	0	32104	
7949	0	32168	
7950	0	32238	
7951	0	32272	
7952	0	32284	
7953	0	32290	
7954	0	32296	
7955	0	32304	
7956	0	32316	
7957	0	32352	
7958	0	32380	
7959	0	32444	
7960	0	32460	
7961	0	32484	
7962	0	32516	
7963	0	32540	
7964	0	32612	
7965	0	32644	
7966	0	32692	
7967	0	32724	
7968	0	32748	
7969	0	32776	
7970	0	32774	
7971	0	32816	
7972	0	32864	
7973	0	32908	
7974	0	32932	
7975	0	32940	
7976	0	32936	
7977	0	32940	
7978	0	32952	
7979	0	32960	
7980	0	32958	
7981	0	32996	
7982	0	32996	
7983	0	33012	
7984	0	33048	
7985	0	33048	
7986	0	33064	
7987	0	33088	
7988	0	33120	
7989	0	33148	
7990	0	33166	
7991	0	33174	
7992	0	33168	
7993	0	33192	
7994	0	33200	
7995	0	33228	
7996	0	33270	
7997	0	33316	
7998	0	33364	
7999	0	33384	
8000	0	33388	
8001	0	33392	
8002	0	33398	
8003	0	33378	
8004	0	33336	
8005	0	33344	
8006	0	33396	
8007	0	33452	
8008	0	33470	
8009	0	33472	
8010	0	33474	
8011	0	33476	
8012	0	33492	
8013	0	33496	
8014	0	33484	
8015	0	33472	
8016	0	33460	
8017	0	33440	
8018	0	33420	
8019	0	33456	
8020	0	33492	
8021	0	33524	
8022	0	33568	
8023	0	33616	
8024	0	33636	
8025	0	33660	
8026	0	33688	
8027	0	33744	
8028	0	33792	
8029	0	33856	
8030	0	33908	
8031	0	33948	
8032	0	33988	
8033	0	34040	
8034	0	34078	
8035	0	34052	
8036	0	34032	
8037	0	34034	
8038	0	34040	
8039	0	34052	
8040	0	34064	
8041	0	34112	
8042	0	34136	
8043	0	34132	
8044	0	34132	
8045	0	34152	
8046	0	34156	
8047	0	34186	
8048	0	34224	
8049	0	34252	
8050	0	34272	
8051	0	34302	
8052	0	34328	
8053	0	34332	
8054	0	34356	
8055	0	34360	
8056	0	34344	
8057	0	34352	
8058	0	34368	
8059	0	34388	
8060	0	34436	
8061	0	34448	
8062	0	34476	
8063	0	34492	
8064	0	34508	
8065	0	34530	
8066	0	34508	
8067	0	34504	
8068	0	34532	
8069	0	34564	
8070	0	34532	
8071	0	34514	
8072	0	34488	
8073	0	34448	
8074	0	34408	
8075	0	34440	
8076	0	34460	
8077	0	34448	
8078	0	34480	
8079	0	34524	
8080	0	34548	
8081	0	34564	
8082	0	34592	
8083	0	34638	
8084	0	34664	
8085	0	34672	
8086	0	34676	
8087	0	34636	
8088	0	34620	
8089	0	34612	
8090	0	34612	
8091	0	34616	
8092	0	34620	
8093	0	34624	
8094	0	34580	
8095	0	34528	
8096	0	34480	
8097	0	34444	
8098	0	34412	
8099	0	34372	
8100	0	34336	
8101	0	34300	
8102	0	34256	
8103	0	34204	
8104	0	34148	
8105	0	34112	
8106	0	34088	
8107	0	34044	
8108	0	33960	
8109	0	33852	
8110	0	33760	
8111	0	33698	
8112	0	33652	
8113	0	33596	
8114	0	33488	
8115	0	33392	
8116	0	33304	
8117	0	33210	
8118	0	33092	
8119	0	32980	
8120	0	32868	
8121	0	32764	
8122	0	32640	
8123	0	32532	
8124	0	32432	
8125	0	32312	
8126	0	32212	
8127	0	32112	
8128	0	32056	
8129	0	31980	
8130	0	31896	
8131	0	31808	
8132	0	31700	
8133	0	31580	
8134	0	31472	
8135	0	31368	
8136	0	31296	
8137	0	31224	
8138	0	31124	
8139	0	31018	
8140	0	30928	
8141	0	30832	
8142	0	30770	
8143	0	30704	
8144	0	30656	
8145	0	30616	
8146	0	30568	
8147	0	30516	
8148	0	30460	
8149	0	30384	
8150	0	30356	
8151	0	30350	
8152	0	30308	
8153	0	30264	
8154	0	30212	
8155	0	30188	
8156	0	30180	
8157	0	30178	
8158	0	30184	
8159	0	30160	
8160	0	30156	
8161	0	30136	
8162	0	30120	
8163	0	30112	
8164	0	30132	
8165	0	30124	
8166	0	30082	
8167	0	30084	
8168	0	30096	
8169	0	30092	
8170	0	30048	
8171	0	30040	
8172	0	30044	
8173	0	30036	
8174	0	30018	
8175	0	30018	
8176	0	30032	
8177	0	30052	
8178	0	30084	
8179	0	30116	
8180	0	30120	
8181	0	30136	
8182	0	30160	
8183	0	30194	
8184	0	30208	
8185	0	30218	
8186	0	30220	
8187	0	30220	
8188	0	30252	
8189	0	30296	
8190	0	30320	
8191	0	30320	
8192	0	30336	
8193	0	30364	
8194	0	30390	
8195	0	30426	
8196	0	30458	
8197	0	30480	
8198	0	30490	
8199	0	30512	
8200	0	30524	
8201	0	30528	
8202	0	30552	
8203	0	30568	
8204	0	30586	
8205	0	30616	
8206	0	30660	
8207	0	30722	
8208	0	30776	
8209	0	30816	
8210	0	30872	
8211	0	30900	
8212	0	30932	
8213	0	30944	
8214	0	30960	
8215	0	30976	
8216	0	30988	
8217	0	30988	
8218	0	30988	
8219	0	31020	
8220	0	31066	
8221	0	31092	
8222	0	31120	
8223	0	31144	
8224	0	31156	
8225	0	31168	
8226	0	31208	
8227	0	31248	
8228	0	31264	
8229	0	31288	
8230	0	31312	
8231	0	31348	
8232	0	31384	
8233	0	31408	
8234	0	31416	
8235	0	31440	
8236	0	31488	
8237	0	31536	
8238	0	31564	
8239	0	31596	
8240	0	31616	
8241	0	31616	
8242	0	31600	
8243	0	31562	
8244	0	31536	
8245	0	31524	
8246	0	31552	
8247	0	31572	
8248	0	31584	
8249	0	31580	
8250	0	31564	
8251	0	31580	
8252	0	31620	
8253	0	31668	
8254	0	31692	
8255	0	31700	
8256	0	31664	
8257	0	31648	
8258	0	31668	
8259	0	31706	
8260	0	31704	
8261	0	31704	
8262	0	31704	
8263	0	31716	
8264	0	31728	
8265	0	31744	
8266	0	31744	
8267	0	31752	
8268	0	31776	
8269	0	31800	
8270	0	31806	
8271	0	31794	
8272	0	31784	
8273	0	31752	
8274	0	31714	
8275	0	31712	
8276	0	31724	
8277	0	31716	
8278	0	31704	
8279	0	31680	
8280	0	31664	
8281	0	31676	
8282	0	31688	
8283	0	31692	
8284	0	31664	
8285	0	31656	
8286	0	31640	
8287	0	31668	
8288	0	31688	
8289	0	31712	
8290	0	31740	
8291	0	31744	
8292	0	31752	
8293	0	31740	
8294	0	31744	
8295	0	31752	
8296	0	31764	
8297	0	31772	
8298	0	31772	
8299	0	31784	
8300	0	31786	
8301	0	31756	
8302	0	31776	
8303	0	31796	
8304	0	31808	
8305	0	31820	
8306	0	31856	
8307	0	31848	
8308	0	31802	
8309	0	31776	
8310	0	31728	
8311	0	31728	
8312	0	31712	
8313	0	31688	
8314	0	31676	
8315	0	31688	
8316	0	31712	
8317	0	31712	
8318	0	31704	
8319	0	31680	
8320	0	31700	
8321	0	31704	
8322	0	31728	
8323	0	31728	
8324	0	31704	
8325	0	31668	
8326	0	31658	
8327	0	31680	
8328	0	31736	
8329	0	31752	
8330	0	31764	
8331	0	31776	
8332	0	31780	
8333	0	31834	
8334	0	31856	
8335	0	31884	
8336	0	31872	
8337	0	31854	
8338	0	31844	
8339	0	31872	
8340	0	31888	
8341	0	31864	
8342	0	31872	
8343	0	31884	
8344	0	31880	
8345	0	31880	
8346	0	31896	
8347	0	31908	
8348	0	31908	
8349	0	31916	
8350	0	31924	
8351	0	31912	
8352	0	31912	
8353	0	31880	
8354	0	31864	
8355	0	31896	
8356	0	31900	
8357	0	31908	
8358	0	31920	
8359	0	31906	
8360	0	31900	
8361	0	31892	
8362	0	31864	
8363	0	31864	
8364	0	31868	
8365	0	31884	
8366	0	31896	
8367	0	31888	
8368	0	31912	
8369	0	31928	
8370	0	31932	
8371	0	31938	
8372	0	31940	
8373	0	31938	
8374	0	31952	
8375	0	31960	
8376	0	31964	
8377	0	31968	
8378	0	31976	
8379	0	32000	
8380	0	32002	
8381	0	32008	
8382	0	32052	
8383	0	32104	
8384	0	32108	
8385	0	32112	
8386	0	32116	
8387	0	32096	
8388	0	32112	
8389	0	32132	
8390	0	32136	
8391	0	32148	
8392	0	32162	
8393	0	32200	
8394	0	32208	
8395	0	32196	
8396	0	32192	
8397	0	32184	
8398	0	32180	
8399	0	32196	
8400	0	32192	
8401	0	32188	
8402	0	32184	
8403	0	32200	
8404	0	32236	
8405	0	32244	
8406	0	32224	
8407	0	32232	
8408	0	32248	
8409	0	32248	
8410	0	32260	
8411	0	32288	
8412	0	32312	
8413	0	32360	
8414	0	32416	
8415	0	32428	
8416	0	32392	
8417	0	32412	
8418	0	32412	
8419	0	32410	
8420	0	32376	
8421	0	32356	
8422	0	32392	
8423	0	32450	
8424	0	32476	
8425	0	32480	
8426	0	32488	
8427	0	32472	
8428	0	32460	
8429	0	32416	
8430	0	32388	
8431	0	32360	
8432	0	32344	
8433	0	32336	
8434	0	32344	
8435	0	32362	
8436	0	32404	
8437	0	32440	
8438	0	32460	
8439	0	32488	
8440	0	32500	
8441	0	32508	
8442	0	32516	
8443	0	32504	
8444	0	32488	
8445	0	32472	
8446	0	32452	
8447	0	32416	
8448	0	32404	
8449	0	32436	
8450	0	32484	
8451	0	32520	
8452	0	32516	
8453	0	32500	
8454	0	32504	
8455	0	32504	
8456	0	32536	
8457	0	32572	
8458	0	32602	
8459	0	32620	
8460	0	32642	
8461	0	32644	
8462	0	32656	
8463	0	32672	
8464	0	32704	
8465	0	32720	
8466	0	32684	
8467	0	32620	
8468	0	32592	
8469	0	32580	
8470	0	32608	
8471	0	32644	
8472	0	32666	
8473	0	32664	
8474	0	32656	
8475	0	32668	
8476	0	32668	
8477	0	32696	
8478	0	32728	
8479	0	32708	
8480	0	32698	
8481	0	32704	
8482	0	32704	
8483	0	32696	
8484	0	32684	
8485	0	32700	
8486	0	32712	
8487	0	32708	
8488	0	32692	
8489	0	32680	
8490	0	32680	
8491	0	32676	
8492	0	32680	
8493	0	32680	
8494	0	32704	
8495	0	32704	
8496	0	32700	
8497	0	32712	
8498	0	32732	
8499	0	32772	
8500	0	32778	
8501	0	32808	
8502	0	32808	
8503	0	32812	
8504	0	32808	
8505	0	32808	
8506	0	32816	
8507	0	32816	
8508	0	32824	
8509	0	32844	
8510	0	32840	
8511	0	32828	
8512	0	32792	
8513	0	32768	
8514	0	32736	
8515	0	32704	
8516	0	32672	
8517	0	32680	
8518	0	32704	
8519	0	32714	
8520	0	32736	
8521	0	32762	
8522	0	32764	
8523	0	32776	
8524	0	32772	
8525	0	32760	
8526	0	32764	
8527	0	32768	
8528	0	32772	
8529	0	32776	
8530	0	32808	
8531	0	32838	
8532	0	32852	
8533	0	32844	
8534	0	32852	
8535	0	32872	
8536	0	32912	
8537	0	32936	
8538	0	32948	
8539	0	32944	
8540	0	32926	
8541	0	32860	
8542	0	32820	
8543	0	32772	
8544	0	32760	
8545	0	32762	
8546	0	32786	
8547	0	32808	
8548	0	32836	
8549	0	32872	
8550	0	32948	
8551	0	33012	
8552	0	33056	
8553	0	33104	
8554	0	33136	
8555	0	33148	
8556	0	33136	
8557	0	33104	
8558	0	33088	
8559	0	33052	
8560	0	33024	
8561	0	33020	
8562	0	33012	
8563	0	33028	
8564	0	33036	
8565	0	33056	
8566	0	33064	
8567	0	33040	
8568	0	33016	
8569	0	33008	
8570	0	33048	
8571	0	33136	
8572	0	33224	
8573	0	33320	
8574	0	33448	
8575	0	33546	
8576	0	33604	
8577	0	33668	
8578	0	33754	
8579	0	33816	
8580	0	33896	
8581	0	33980	
8582	0	34066	
8583	0	34132	
8584	0	34180	
8585	0	34232	
8586	0	34322	
8587	0	34416	
8588	0	34476	
8589	0	34476	
8590	0	34456	
8591	0	34396	
8592	0	34318	
