# OpenSignals Text File Format. Version 1
# {"00:07:80:4B:15:F7": {"position": 0, "device": "biosignalsplux", "device name": "00:07:80:4B:15:F7", "device connection": "BTH00:07:80:4B:15:F7", "sampling rate": 1000, "resolution": [16], "firmware version": 775, "comments": "", "keywords": "", "mode": 0, "sync interval": 2, "date": "2023-4-27", "time": "17:1:50.848", "channels": [1], "sensor": ["ECG"], "label": ["CH1"], "column": ["nSeq", "DI", "CH1"], "special": [{"SpO2": [80, 40, 5, 4, 3, 3]}, {"SpO2": [80, 40, 5, 4, 3, 3]}, {"SpO2": [80, 40, 5, 4, 3, 3]}, {"SpO2": [80, 40, 5, 4, 3, 3]}, {"SpO2": [80, 40, 5, 4, 3, 3]}, {"SpO2": [80, 40, 5, 4, 3, 3]}, {"SpO2": [80, 40, 5, 4, 3, 3]}, {"SpO2": [80, 40, 5, 4, 3, 3]}], "digital IO": [0, 1], "sleeve color": ["green"], "convertedValues": 0}}
# EndOfHeader
0	0	32048	
1	0	31948	
2	0	31876	
3	0	31812	
4	0	31740	
5	0	31636	
6	0	31548	
7	0	31492	
8	0	31460	
9	0	31424	
10	0	31408	
11	0	31392	
12	0	31408	
13	0	31420	
14	0	31420	
15	0	31448	
16	0	31460	
17	0	31444	
18	0	31430	
19	0	31448	
20	0	31452	
21	0	31424	
22	0	31416	
23	0	31416	
24	0	31428	
25	0	31436	
26	0	31428	
27	0	31436	
28	0	31410	
29	0	31416	
30	0	31392	
31	0	31352	
32	0	31310	
33	0	31306	
34	0	31320	
35	0	31380	
36	0	31404	
37	0	31404	
38	0	31404	
39	0	31380	
40	0	31384	
41	0	31416	
42	0	31460	
43	0	31456	
44	0	31444	
45	0	31490	
46	0	31536	
47	0	31536	
48	0	31556	
49	0	31604	
50	0	31624	
51	0	31652	
52	0	31672	
53	0	31720	
54	0	31780	
55	0	31816	
56	0	31812	
57	0	31800	
58	0	31786	
59	0	31680	
60	0	31536	
61	0	31444	
62	0	31342	
63	0	31176	
64	0	30944	
65	0	30748	
66	0	30652	
67	0	30648	
68	0	30712	
69	0	30788	
70	0	30944	
71	0	31248	
72	0	31748	
73	0	32388	
74	0	33104	
75	0	34016	
76	0	35064	
77	0	36188	
78	0	37492	
79	0	39040	
80	0	40708	
81	0	42362	
82	0	43956	
83	0	45604	
84	0	47248	
85	0	48962	
86	0	50680	
87	0	52292	
88	0	53744	
89	0	55096	
90	0	56504	
91	0	57988	
92	0	59380	
93	0	60596	
94	0	61632	
95	0	62400	
96	0	63032	
97	0	63004	
98	0	61808	
99	0	59628	
100	0	56772	
101	0	53460	
102	0	50080	
103	0	46456	
104	0	42444	
105	0	38192	
106	0	34548	
107	0	31924	
108	0	30012	
109	0	28708	
110	0	27864	
111	0	27360	
112	0	27132	
113	0	27022	
114	0	27044	
115	0	27204	
116	0	27444	
117	0	27740	
118	0	28024	
119	0	28384	
120	0	28760	
121	0	28996	
122	0	29160	
123	0	29294	
124	0	29356	
125	0	29392	
126	0	29376	
127	0	29360	
128	0	29328	
129	0	29284	
130	0	29216	
131	0	29144	
132	0	29088	
133	0	29048	
134	0	29004	
135	0	28992	
136	0	28952	
137	0	28922	
138	0	28884	
139	0	28820	
140	0	28810	
141	0	28808	
142	0	28830	
143	0	28824	
144	0	28826	
145	0	28840	
146	0	28864	
147	0	28896	
148	0	28896	
149	0	28940	
150	0	28956	
151	0	28980	
152	0	29040	
153	0	29080	
154	0	29076	
155	0	29120	
156	0	29148	
157	0	29160	
158	0	29172	
159	0	29230	
160	0	29292	
161	0	29344	
162	0	29364	
163	0	29364	
164	0	29388	
165	0	29412	
166	0	29532	
167	0	29592	
168	0	29632	
169	0	29696	
170	0	29744	
171	0	29770	
172	0	29804	
173	0	29824	
174	0	29820	
175	0	29888	
176	0	29976	
177	0	30016	
178	0	30032	
179	0	30032	
180	0	30060	
181	0	30084	
182	0	30080	
183	0	30120	
184	0	30164	
185	0	30192	
186	0	30204	
187	0	30256	
188	0	30328	
189	0	30396	
190	0	30452	
191	0	30488	
192	0	30528	
193	0	30592	
194	0	30628	
195	0	30658	
196	0	30688	
197	0	30738	
198	0	30754	
199	0	30782	
200	0	30812	
201	0	30824	
202	0	30848	
203	0	30868	
204	0	30904	
205	0	30988	
206	0	31024	
207	0	31040	
208	0	31088	
209	0	31148	
210	0	31204	
211	0	31240	
212	0	31236	
213	0	31212	
214	0	31248	
215	0	31300	
216	0	31344	
217	0	31388	
218	0	31400	
219	0	31420	
220	0	31436	
221	0	31448	
222	0	31476	
223	0	31532	
224	0	31588	
225	0	31624	
226	0	31676	
227	0	31732	
228	0	31768	
229	0	31832	
230	0	31892	
231	0	31916	
232	0	31928	
233	0	31922	
234	0	31920	
235	0	31972	
236	0	32014	
237	0	32000	
238	0	31996	
239	0	32080	
240	0	32152	
241	0	32248	
242	0	32308	
243	0	32312	
244	0	32328	
245	0	32372	
246	0	32396	
247	0	32452	
248	0	32520	
249	0	32552	
250	0	32596	
251	0	32624	
252	0	32660	
253	0	32736	
254	0	32808	
255	0	32834	
256	0	32880	
257	0	32928	
258	0	32940	
259	0	32916	
260	0	32956	
261	0	33024	
262	0	33076	
263	0	33092	
264	0	33116	
265	0	33180	
266	0	33258	
267	0	33292	
268	0	33356	
269	0	33376	
270	0	33412	
271	0	33472	
272	0	33466	
273	0	33472	
274	0	33514	
275	0	33578	
276	0	33632	
277	0	33684	
278	0	33788	
279	0	33832	
280	0	33882	
281	0	33948	
282	0	34056	
283	0	34128	
284	0	34172	
285	0	34224	
286	0	34280	
287	0	34372	
288	0	34480	
289	0	34528	
290	0	34530	
291	0	34568	
292	0	34680	
293	0	34740	
294	0	34776	
295	0	34816	
296	0	34880	
297	0	34920	
298	0	34920	
299	0	34984	
300	0	35044	
301	0	35108	
302	0	35150	
303	0	35212	
304	0	35304	
305	0	35372	
306	0	35452	
307	0	35520	
308	0	35544	
309	0	35556	
310	0	35576	
311	0	35632	
312	0	35688	
313	0	35744	
314	0	35780	
315	0	35802	
316	0	35804	
317	0	35816	
318	0	35840	
319	0	35880	
320	0	35908	
321	0	35940	
322	0	35904	
323	0	35996	
324	0	36040	
325	0	36032	
326	0	36032	
327	0	36016	
328	0	36040	
329	0	36064	
330	0	36124	
331	0	36140	
332	0	36148	
333	0	36116	
334	0	36072	
335	0	36012	
336	0	35908	
337	0	35820	
338	0	35792	
339	0	35736	
340	0	35704	
341	0	35672	
342	0	35612	
343	0	35536	
344	0	35444	
345	0	35324	
346	0	35260	
347	0	35180	
348	0	35052	
349	0	34924	
350	0	34752	
351	0	34584	
352	0	34432	
353	0	34306	
354	0	34176	
355	0	34040	
356	0	33912	
357	0	33772	
358	0	33628	
359	0	33448	
360	0	33240	
361	0	33096	
362	0	32976	
363	0	32826	
364	0	32664	
365	0	32546	
366	0	32462	
367	0	32336	
368	0	32248	
369	0	32152	
370	0	32008	
371	0	31876	
372	0	31776	
373	0	31672	
374	0	31632	
375	0	31588	
376	0	31476	
377	0	31392	
378	0	31288	
379	0	31180	
380	0	31108	
381	0	31048	
382	0	30956	
383	0	30896	
384	0	30824	
385	0	30720	
386	0	30664	
387	0	30610	
388	0	30620	
389	0	30576	
390	0	30460	
391	0	30360	
392	0	30304	
393	0	30268	
394	0	30248	
395	0	30220	
396	0	30208	
397	0	30200	
398	0	30170	
399	0	30104	
400	0	30052	
401	0	29984	
402	0	29922	
403	0	29872	
404	0	29872	
405	0	29924	
406	0	29980	
407	0	30056	
408	0	30132	
409	0	30168	
410	0	30188	
411	0	30192	
412	0	30208	
413	0	30208	
414	0	30188	
415	0	30168	
416	0	30176	
417	0	30196	
418	0	30184	
419	0	30152	
420	0	30160	
421	0	30168	
422	0	30178	
423	0	30162	
424	0	30184	
425	0	30204	
426	0	30236	
427	0	30244	
428	0	30298	
429	0	30324	
430	0	30360	
431	0	30373	
432	0	30352	
433	0	30368	
434	0	30384	
435	0	30412	
436	0	30408	
437	0	30412	
438	0	30464	
439	0	30512	
440	0	30536	
441	0	30540	
442	0	30586	
443	0	30648	
444	0	30652	
445	0	30640	
446	0	30656	
447	0	30656	
448	0	30624	
449	0	30604	
450	0	30650	
451	0	30688	
452	0	30724	
453	0	30736	
454	0	30746	
455	0	30736	
456	0	30716	
457	0	30764	
458	0	30784	
459	0	30772	
460	0	30812	
461	0	30888	
462	0	30984	
463	0	31064	
464	0	31088	
465	0	31120	
466	0	31120	
467	0	31072	
468	0	31012	
469	0	30948	
470	0	30920	
471	0	30964	
472	0	30984	
473	0	31012	
474	0	31052	
475	0	31116	
476	0	31188	
477	0	31228	
478	0	31204	
479	0	31108	
480	0	31056	
481	0	31064	
482	0	31076	
483	0	31024	
484	0	31008	
485	0	31004	
486	0	31024	
487	0	31092	
488	0	31160	
489	0	31272	
490	0	31404	
491	0	31486	
492	0	31520	
493	0	31522	
494	0	31536	
495	0	31564	
496	0	31568	
497	0	31552	
498	0	31570	
499	0	31592	
500	0	31602	
501	0	31574	
502	0	31554	
503	0	31532	
504	0	31544	
505	0	31556	
506	0	31568	
507	0	31556	
508	0	31576	
509	0	31600	
510	0	31646	
511	0	31620	
512	0	31600	
513	0	31616	
514	0	31620	
515	0	31628	
516	0	31652	
517	0	31656	
518	0	31648	
519	0	31632	
520	0	31608	
521	0	31600	
522	0	31592	
523	0	31640	
524	0	31680	
525	0	31668	
526	0	31686	
527	0	31696	
528	0	31688	
529	0	31708	
530	0	31716	
531	0	31672	
532	0	31640	
533	0	31652	
534	0	31668	
535	0	31684	
536	0	31690	
537	0	31668	
538	0	31660	
539	0	31672	
540	0	31680	
541	0	31652	
542	0	31600	
543	0	31588	
544	0	31660	
545	0	31724	
546	0	31752	
547	0	31764	
548	0	31768	
549	0	31796	
550	0	31808	
551	0	31752	
552	0	31716	
553	0	31728	
554	0	31744	
555	0	31780	
556	0	31794	
557	0	31788	
558	0	31800	
559	0	31764	
560	0	31744	
561	0	31740	
562	0	31730	
563	0	31724	
564	0	31714	
565	0	31696	
566	0	31692	
567	0	31720	
568	0	31800	
569	0	31868	
570	0	31900	
571	0	31888	
572	0	31896	
573	0	31792	
574	0	31756	
575	0	31840	
576	0	31888	
577	0	31868	
578	0	31808	
579	0	31820	
580	0	31920	
581	0	32004	
582	0	31980	
583	0	31972	
584	0	31984	
585	0	31944	
586	0	31940	
587	0	31952	
588	0	31988	
589	0	32012	
590	0	32032	
591	0	32044	
592	0	32056	
593	0	32036	
594	0	31988	
595	0	31968	
596	0	31996	
597	0	32016	
598	0	31978	
599	0	31856	
600	0	31756	
601	0	31816	
602	0	31936	
603	0	32096	
604	0	32184	
605	0	32202	
606	0	32200	
607	0	32168	
608	0	32124	
609	0	32108	
610	0	32124	
611	0	32208	
612	0	32288	
613	0	32264	
614	0	32224	
615	0	32212	
616	0	32104	
617	0	32036	
618	0	32164	
619	0	32324	
620	0	32420	
621	0	32532	
622	0	32696	
623	0	32908	
624	0	33072	
625	0	33328	
626	0	33572	
627	0	33648	
628	0	33796	
629	0	33940	
630	0	34020	
631	0	34084	
632	0	34048	
633	0	34000	
634	0	34016	
635	0	34032	
636	0	34046	
637	0	33980	
638	0	33988	
639	0	34106	
640	0	34268	
641	0	34364	
642	0	34440	
643	0	34528	
644	0	34568	
645	0	34628	
646	0	34792	
647	0	35032	
648	0	35204	
649	0	35264	
650	0	35176	
651	0	34996	
652	0	34972	
653	0	35120	
654	0	35344	
655	0	35392	
656	0	35304	
657	0	35292	
658	0	35400	
659	0	35480	
660	0	35462	
661	0	35456	
662	0	35424	
663	0	35280	
664	0	35116	
665	0	34840	
666	0	34528	
667	0	34252	
668	0	34108	
669	0	34220	
670	0	34212	
671	0	34152	
672	0	34168	
673	0	34060	
674	0	33856	
675	0	33564	
676	0	33332	
677	0	33360	
678	0	33484	
679	0	33442	
680	0	33414	
681	0	33268	
682	0	33304	
683	0	33360	
684	0	33320	
685	0	33148	
686	0	33086	
687	0	33040	
688	0	32944	
689	0	32868	
690	0	32868	
691	0	32916	
692	0	32930	
693	0	32922	
694	0	32896	
695	0	32792	
696	0	32696	
697	0	32684	
698	0	32660	
699	0	32500	
700	0	32320	
701	0	32152	
702	0	32066	
703	0	32024	
704	0	31944	
705	0	31906	
706	0	31924	
707	0	31944	
708	0	31952	
709	0	31932	
710	0	31896	
711	0	31952	
712	0	31956	
713	0	31984	
714	0	32026	
715	0	31948	
716	0	31834	
717	0	31784	
718	0	31824	
719	0	31842	
720	0	31800	
721	0	31784	
722	0	31812	
723	0	31836	
724	0	31760	
725	0	31700	
726	0	31732	
727	0	31674	
728	0	31588	
729	0	31670	
730	0	31776	
731	0	31776	
732	0	31740	
733	0	31738	
734	0	31738	
735	0	31780	
736	0	31842	
737	0	31900	
738	0	31908	
739	0	31928	
740	0	31920	
741	0	31916	
742	0	31936	
743	0	31928	
744	0	31964	
745	0	32036	
746	0	32136	
747	0	32172	
748	0	32192	
749	0	32200	
750	0	32152	
751	0	32084	
752	0	32060	
753	0	32060	
754	0	32028	
755	0	32032	
756	0	31972	
757	0	31876	
758	0	31770	
759	0	31604	
760	0	31420	
761	0	31310	
762	0	31280	
763	0	31322	
764	0	31404	
765	0	31552	
766	0	31872	
767	0	32404	
768	0	33084	
769	0	33824	
770	0	34532	
771	0	35416	
772	0	36556	
773	0	37824	
774	0	39252	
775	0	40836	
776	0	42488	
777	0	44084	
778	0	45728	
779	0	47392	
780	0	49040	
781	0	50656	
782	0	52188	
783	0	53844	
784	0	55600	
785	0	57176	
786	0	58640	
787	0	59992	
788	0	61112	
789	0	62192	
790	0	63100	
791	0	63580	
792	0	63784	
793	0	63808	
794	0	61960	
795	0	59316	
796	0	56080	
797	0	52696	
798	0	49180	
799	0	45320	
800	0	41168	
801	0	37184	
802	0	34140	
803	0	31936	
804	0	30360	
805	0	29280	
806	0	28648	
807	0	28424	
808	0	28404	
809	0	28480	
810	0	28702	
811	0	28970	
812	0	29236	
813	0	29524	
814	0	29740	
815	0	29856	
816	0	29888	
817	0	29816	
818	0	29680	
819	0	29624	
820	0	29544	
821	0	29424	
822	0	29264	
823	0	29152	
824	0	29074	
825	0	29050	
826	0	29038	
827	0	28974	
828	0	28908	
829	0	28868	
830	0	28818	
831	0	28728	
832	0	28682	
833	0	28684	
834	0	28732	
835	0	28728	
836	0	28712	
837	0	28688	
838	0	28722	
839	0	28768	
840	0	28740	
841	0	28678	
842	0	28688	
843	0	28714	
844	0	28740	
845	0	28756	
846	0	28788	
847	0	28874	
848	0	28994	
849	0	29052	
850	0	29122	
851	0	29148	
852	0	29180	
853	0	29212	
854	0	29268	
855	0	29212	
856	0	29212	
857	0	29328	
858	0	29364	
859	0	29344	
860	0	29358	
861	0	29340	
862	0	29324	
863	0	29352	
864	0	29412	
865	0	29442	
866	0	29416	
867	0	29452	
868	0	29528	
869	0	29640	
870	0	29640	
871	0	29604	
872	0	29600	
873	0	29732	
874	0	29736	
875	0	29696	
876	0	29684	
877	0	29752	
878	0	29836	
879	0	29868	
880	0	29904	
881	0	30016	
882	0	30064	
883	0	30072	
884	0	30052	
885	0	30036	
886	0	30128	
887	0	30220	
888	0	30244	
889	0	30308	
890	0	30370	
891	0	30332	
892	0	30312	
893	0	30324	
894	0	30344	
895	0	30348	
896	0	30300	
897	0	30280	
898	0	30356	
899	0	30396	
900	0	30400	
901	0	30388	
902	0	30420	
903	0	30424	
904	0	30424	
905	0	30480	
906	0	30582	
907	0	30664	
908	0	30680	
909	0	30748	
910	0	30784	
911	0	30768	
912	0	30772	
913	0	30772	
914	0	30830	
915	0	30860	
916	0	30896	
917	0	30924	
918	0	30980	
919	0	31004	
920	0	31056	
921	0	31080	
922	0	31064	
923	0	31078	
924	0	31080	
925	0	31072	
926	0	31052	
927	0	31056	
928	0	31098	
929	0	31116	
930	0	31168	
931	0	31204	
932	0	31236	
933	0	31186	
934	0	31220	
935	0	31316	
936	0	31364	
937	0	31396	
938	0	31384	
939	0	31402	
940	0	31416	
941	0	31516	
942	0	31668	
943	0	31724	
944	0	31750	
945	0	31768	
946	0	31816	
947	0	31920	
948	0	31984	
949	0	32012	
950	0	32072	
951	0	32076	
952	0	32104	
953	0	32116	
954	0	32096	
955	0	32104	
956	0	32132	
957	0	32196	
958	0	32288	
959	0	32364	
960	0	32420	
961	0	32458	
962	0	32488	
963	0	32528	
964	0	32562	
965	0	32592	
966	0	32704	
967	0	32848	
968	0	32864	
969	0	32912	
970	0	32952	
971	0	32964	
972	0	32952	
973	0	32952	
974	0	33012	
975	0	33074	
976	0	33092	
977	0	33130	
978	0	33168	
979	0	33176	
980	0	33180	
981	0	33274	
982	0	33316	
983	0	33344	
984	0	33424	
985	0	33474	
986	0	33508	
987	0	33544	
988	0	33576	
989	0	33664	
990	0	33752	
991	0	33812	
992	0	33856	
993	0	33964	
994	0	34088	
995	0	34156	
996	0	34196	
997	0	34232	
998	0	34304	
999	0	34412	
1000	0	34490	
1001	0	34520	
1002	0	34520	
1003	0	34624	
1004	0	34668	
1005	0	34672	
1006	0	34720	
1007	0	34784	
1008	0	34840	
1009	0	34880	
1010	0	34912	
1011	0	34972	
1012	0	35048	
1013	0	35080	
1014	0	35064	
1015	0	35040	
1016	0	35040	
1017	0	35096	
1018	0	35140	
1019	0	35148	
1020	0	35144	
1021	0	35164	
1022	0	35208	
1023	0	35212	
1024	0	35216	
1025	0	35264	
1026	0	35312	
1027	0	35288	
1028	0	35300	
1029	0	35342	
1030	0	35368	
1031	0	35412	
1032	0	35464	
1033	0	35536	
1034	0	35584	
1035	0	35536	
1036	0	35428	
1037	0	35320	
1038	0	35248	
1039	0	35200	
1040	0	35176	
1041	0	35124	
1042	0	35032	
1043	0	34900	
1044	0	34720	
1045	0	34516	
1046	0	34382	
1047	0	34236	
1048	0	34064	
1049	0	33968	
1050	0	33876	
1051	0	33768	
1052	0	33656	
1053	0	33486	
1054	0	33352	
1055	0	33160	
1056	0	32992	
1057	0	32820	
1058	0	32612	
1059	0	32412	
1060	0	32288	
1061	0	32188	
1062	0	32086	
1063	0	31984	
1064	0	31884	
1065	0	31776	
1066	0	31668	
1067	0	31568	
1068	0	31476	
1069	0	31400	
1070	0	31296	
1071	0	31196	
1072	0	31072	
1073	0	31032	
1074	0	30974	
1075	0	30872	
1076	0	30764	
1077	0	30624	
1078	0	30504	
1079	0	30436	
1080	0	30364	
1081	0	30308	
1082	0	30256	
1083	0	30236	
1084	0	30256	
1085	0	30256	
1086	0	30230	
1087	0	30188	
1088	0	30148	
1089	0	30148	
1090	0	30148	
1091	0	30140	
1092	0	30096	
1093	0	30058	
1094	0	30012	
1095	0	29972	
1096	0	29942	
1097	0	29892	
1098	0	29884	
1099	0	29908	
1100	0	29882	
1101	0	29888	
1102	0	29930	
1103	0	29976	
1104	0	30024	
1105	0	30032	
1106	0	30036	
1107	0	30056	
1108	0	30068	
1109	0	30100	
1110	0	30084	
1111	0	30060	
1112	0	30096	
1113	0	30104	
1114	0	30108	
1115	0	30120	
1116	0	30160	
1117	0	30194	
1118	0	30204	
1119	0	30208	
1120	0	30264	
1121	0	30300	
1122	0	30320	
1123	0	30310	
1124	0	30308	
1125	0	30328	
1126	0	30388	
1127	0	30468	
1128	0	30560	
1129	0	30576	
1130	0	30572	
1131	0	30560	
1132	0	30592	
1133	0	30620	
1134	0	30586	
1135	0	30552	
1136	0	30556	
1137	0	30552	
1138	0	30564	
1139	0	30512	
1140	0	30576	
1141	0	30696	
1142	0	30784	
1143	0	30872	
1144	0	30888	
1145	0	30896	
1146	0	30904	
1147	0	30956	
1148	0	31044	
1149	0	31128	
1150	0	31164	
1151	0	31124	
1152	0	31136	
1153	0	31160	
1154	0	31180	
1155	0	31218	
1156	0	31220	
1157	0	31216	
1158	0	31236	
1159	0	31228	
1160	0	31208	
1161	0	31192	
1162	0	31202	
1163	0	31208	
1164	0	31288	
1165	0	31368	
1166	0	31348	
1167	0	31344	
1168	0	31368	
1169	0	31392	
1170	0	31396	
1171	0	31392	
1172	0	31400	
1173	0	31388	
1174	0	31460	
1175	0	31530	
1176	0	31556	
1177	0	31564	
1178	0	31484	
1179	0	31388	
1180	0	31310	
1181	0	31316	
1182	0	31356	
1183	0	31464	
1184	0	31516	
1185	0	31616	
1186	0	31672	
1187	0	31664	
1188	0	31708	
1189	0	31792	
1190	0	31848	
1191	0	31896	
1192	0	31864	
1193	0	31824	
1194	0	31900	
1195	0	31888	
1196	0	31834	
1197	0	31792	
1198	0	31840	
1199	0	31892	
1200	0	31884	
1201	0	31948	
1202	0	31948	
1203	0	31904	
1204	0	31886	
1205	0	31924	
1206	0	31946	
1207	0	32012	
1208	0	32030	
1209	0	32032	
1210	0	32064	
1211	0	32028	
1212	0	31994	
1213	0	32020	
1214	0	32060	
1215	0	32108	
1216	0	32052	
1217	0	31992	
1218	0	32040	
1219	0	32148	
1220	0	32148	
1221	0	32152	
1222	0	32112	
1223	0	32072	
1224	0	32028	
1225	0	32076	
1226	0	32128	
1227	0	32160	
1228	0	32196	
1229	0	32184	
1230	0	32182	
1231	0	32176	
1232	0	32180	
1233	0	32172	
1234	0	32192	
1235	0	32192	
1236	0	32220	
1237	0	32208	
1238	0	32164	
1239	0	32200	
1240	0	32164	
1241	0	32124	
1242	0	32200	
1243	0	32288	
1244	0	32296	
1245	0	32216	
1246	0	32176	
1247	0	32232	
1248	0	32314	
1249	0	32344	
1250	0	32348	
1251	0	32356	
1252	0	32368	
1253	0	32324	
1254	0	32212	
1255	0	32120	
1256	0	32164	
1257	0	32200	
1258	0	32200	
1259	0	32212	
1260	0	32254	
1261	0	32288	
1262	0	32288	
1263	0	32280	
1264	0	32324	
1265	0	32336	
1266	0	32324	
1267	0	32328	
1268	0	32316	
1269	0	32348	
1270	0	32392	
1271	0	32392	
1272	0	32444	
1273	0	32496	
1274	0	32472	
1275	0	32504	
1276	0	32600	
1277	0	32738	
1278	0	32780	
1279	0	32800	
1280	0	32860	
1281	0	32972	
1282	0	33096	
1283	0	33208	
1284	0	33304	
1285	0	33456	
1286	0	33596	
1287	0	33712	
1288	0	33824	
1289	0	33860	
1290	0	33948	
1291	0	34028	
1292	0	34080	
1293	0	34104	
1294	0	34088	
1295	0	34080	
1296	0	34164	
1297	0	34232	
1298	0	34256	
1299	0	34280	
1300	0	34312	
1301	0	34368	
1302	0	34416	
1303	0	34460	
1304	0	34564	
1305	0	34684	
1306	0	34740	
1307	0	34836	
1308	0	34848	
1309	0	34892	
1310	0	35020	
1311	0	35084	
1312	0	35252	
1313	0	35432	
1314	0	35512	
1315	0	35472	
1316	0	35384	
1317	0	35348	
1318	0	35412	
1319	0	35456	
1320	0	35432	
1321	0	35416	
1322	0	35380	
1323	0	35346	
1324	0	35152	
1325	0	34920	
1326	0	34716	
1327	0	34624	
1328	0	34540	
1329	0	34516	
1330	0	34512	
1331	0	34428	
1332	0	34336	
1333	0	34240	
1334	0	34056	
1335	0	33856	
1336	0	33700	
1337	0	33582	
1338	0	33530	
1339	0	33519	
1340	0	33444	
1341	0	33296	
1342	0	33140	
1343	0	32996	
1344	0	32840	
1345	0	32690	
1346	0	32576	
1347	0	32532	
1348	0	32532	
1349	0	32488	
1350	0	32414	
1351	0	32333	
1352	0	32208	
1353	0	32088	
1354	0	32000	
1355	0	31880	
1356	0	31740	
1357	0	31644	
1358	0	31566	
1359	0	31504	
1360	0	31384	
1361	0	31296	
1362	0	31272	
1363	0	31264	
1364	0	31224	
1365	0	31180	
1366	0	31192	
1367	0	31172	
1368	0	31168	
1369	0	31152	
1370	0	31164	
1371	0	31136	
1372	0	31200	
1373	0	31240	
1374	0	31224	
1375	0	31208	
1376	0	31200	
1377	0	31200	
1378	0	31176	
1379	0	31136	
1380	0	31096	
1381	0	31140	
1382	0	31170	
1383	0	31168	
1384	0	31220	
1385	0	31276	
1386	0	31260	
1387	0	31258	
1388	0	31284	
1389	0	31284	
1390	0	31320	
1391	0	31376	
1392	0	31368	
1393	0	31348	
1394	0	31360	
1395	0	31360	
1396	0	31340	
1397	0	31316	
1398	0	31392	
1399	0	31408	
1400	0	31408	
1401	0	31424	
1402	0	31404	
1403	0	31442	
1404	0	31540	
1405	0	31594	
1406	0	31616	
1407	0	31656	
1408	0	31696	
1409	0	31704	
1410	0	31672	
1411	0	31644	
1412	0	31576	
1413	0	31592	
1414	0	31520	
1415	0	31408	
1416	0	31310	
1417	0	31160	
1418	0	30952	
1419	0	30716	
1420	0	30560	
1421	0	30538	
1422	0	30586	
1423	0	30660	
1424	0	30798	
1425	0	30976	
1426	0	31276	
1427	0	31932	
1428	0	32632	
1429	0	33484	
1430	0	34488	
1431	0	35578	
1432	0	36768	
1433	0	38172	
1434	0	39748	
1435	0	41376	
1436	0	42984	
1437	0	44652	
1438	0	46396	
1439	0	48196	
1440	0	49964	
1441	0	51652	
1442	0	53124	
1443	0	54508	
1444	0	55848	
1445	0	57296	
1446	0	58840	
1447	0	60188	
1448	0	61204	
1449	0	61956	
1450	0	62572	
1451	0	62704	
1452	0	61748	
1453	0	59916	
1454	0	57252	
1455	0	53924	
1456	0	50584	
1457	0	47144	
1458	0	43248	
1459	0	39052	
1460	0	35194	
1461	0	32288	
1462	0	30228	
1463	0	28840	
1464	0	27928	
1465	0	27492	
1466	0	27372	
1467	0	27328	
1468	0	27248	
1469	0	27336	
1470	0	27560	
1471	0	27848	
1472	0	28236	
1473	0	28600	
1474	0	28912	
1475	0	29178	
1476	0	29388	
1477	0	29594	
1478	0	29702	
1479	0	29784	
1480	0	29808	
1481	0	29728	
1482	0	29588	
1483	0	29494	
1484	0	29448	
1485	0	29464	
1486	0	29456	
1487	0	29396	
1488	0	29356	
1489	0	29272	
1490	0	29176	
1491	0	29132	
1492	0	29068	
1493	0	28972	
1494	0	28952	
1495	0	29000	
1496	0	29012	
1497	0	29004	
1498	0	29000	
1499	0	29016	
1500	0	29080	
1501	0	29100	
1502	0	29068	
1503	0	29080	
1504	0	29120	
1505	0	29146	
1506	0	29172	
1507	0	29220	
1508	0	29256	
1509	0	29310	
1510	0	29352	
1511	0	29349	
1512	0	29442	
1513	0	29508	
1514	0	29540	
1515	0	29568	
1516	0	29580	
1517	0	29584	
1518	0	29612	
1519	0	29672	
1520	0	29736	
1521	0	29784	
1522	0	29784	
1523	0	29816	
1524	0	29852	
1525	0	29884	
1526	0	29920	
1527	0	29960	
1528	0	30000	
1529	0	30032	
1530	0	30064	
1531	0	30068	
1532	0	30088	
1533	0	30176	
1534	0	30256	
1535	0	30312	
1536	0	30340	
1537	0	30384	
1538	0	30392	
1539	0	30408	
1540	0	30480	
1541	0	30516	
1542	0	30512	
1543	0	30532	
1544	0	30556	
1545	0	30598	
1546	0	30616	
1547	0	30624	
1548	0	30628	
1549	0	30668	
1550	0	30712	
1551	0	30776	
1552	0	30884	
1553	0	30964	
1554	0	31028	
1555	0	31032	
1556	0	31004	
1557	0	31036	
1558	0	31080	
1559	0	31136	
1560	0	31172	
1561	0	31162	
1562	0	31176	
1563	0	31244	
1564	0	31308	
1565	0	31322	
1566	0	31344	
1567	0	31340	
1568	0	31372	
1569	0	31424	
1570	0	31440	
1571	0	31436	
1572	0	31430	
1573	0	31436	
1574	0	31468	
1575	0	31512	
1576	0	31588	
1577	0	31628	
1578	0	31736	
1579	0	31876	
1580	0	31916	
1581	0	31860	
1582	0	31820	
1583	0	31832	
1584	0	31872	
1585	0	31952	
1586	0	32012	
1587	0	32064	
1588	0	32208	
1589	0	32208	
1590	0	32212	
1591	0	32312	
1592	0	32416	
1593	0	32472	
1594	0	32512	
1595	0	32512	
1596	0	32548	
1597	0	32576	
1598	0	32616	
1599	0	32656	
1600	0	32768	
1601	0	32824	
1602	0	32828	
1603	0	32832	
1604	0	32836	
1605	0	32920	
1606	0	32952	
1607	0	32976	
1608	0	33036	
1609	0	33066	
1610	0	33120	
1611	0	33216	
1612	0	33200	
1613	0	33236	
1614	0	33272	
1615	0	33264	
1616	0	33262	
1617	0	33280	
1618	0	33344	
1619	0	33396	
1620	0	33468	
1621	0	33520	
1622	0	33634	
1623	0	33672	
1624	0	33656	
1625	0	33676	
1626	0	33712	
1627	0	33732	
1628	0	33816	
1629	0	33906	
1630	0	33968	
1631	0	34016	
1632	0	34120	
1633	0	34210	
1634	0	34252	
1635	0	34264	
1636	0	34300	
1637	0	34336	
1638	0	34368	
1639	0	34400	
1640	0	34472	
1641	0	34540	
1642	0	34552	
1643	0	34584	
1644	0	34608	
1645	0	34716	
1646	0	34816	
1647	0	34832	
1648	0	34840	
1649	0	34852	
1650	0	34866	
1651	0	34892	
1652	0	34944	
1653	0	35024	
1654	0	35104	
1655	0	35192	
1656	0	35260	
1657	0	35232	
1658	0	35236	
1659	0	35272	
1660	0	35310	
1661	0	35328	
1662	0	35408	
1663	0	35556	
1664	0	35612	
1665	0	35580	
1666	0	35660	
1667	0	35720	
1668	0	35752	
1669	0	35740	
1670	0	35758	
1671	0	35792	
1672	0	35872	
1673	0	35950	
1674	0	35928	
1675	0	35892	
1676	0	35820	
1677	0	35784	
1678	0	35808	
1679	0	35820	
1680	0	35904	
1681	0	35920	
1682	0	35892	
1683	0	35856	
1684	0	35820	
1685	0	35748	
1686	0	35716	
1687	0	35740	
1688	0	35748	
1689	0	35776	
1690	0	35788	
1691	0	35752	
1692	0	35714	
1693	0	35652	
1694	0	35588	
1695	0	35528	
1696	0	35456	
1697	0	35364	
1698	0	35248	
1699	0	35130	
1700	0	34992	
1701	0	34896	
1702	0	34802	
1703	0	34700	
1704	0	34600	
1705	0	34452	
1706	0	34264	
1707	0	34088	
1708	0	34016	
1709	0	33980	
1710	0	33880	
1711	0	33668	
1712	0	33440	
1713	0	33222	
1714	0	33096	
1715	0	33004	
1716	0	32860	
1717	0	32644	
1718	0	32484	
1719	0	32352	
1720	0	32172	
1721	0	32040	
1722	0	31904	
1723	0	31848	
1724	0	31792	
1725	0	31680	
1726	0	31536	
1727	0	31488	
1728	0	31482	
1729	0	31410	
1730	0	31314	
1731	0	31224	
1732	0	31124	
1733	0	31024	
1734	0	30976	
1735	0	30924	
1736	0	30944	
1737	0	30920	
1738	0	30816	
1739	0	30680	
1740	0	30556	
1741	0	30480	
1742	0	30432	
1743	0	30442	
1744	0	30464	
1745	0	30448	
1746	0	30424	
1747	0	30424	
1748	0	30424	
1749	0	30384	
1750	0	30348	
1751	0	30296	
1752	0	30248	
1753	0	30208	
1754	0	30200	
1755	0	30146	
1756	0	30052	
1757	0	29964	
1758	0	29976	
1759	0	30004	
1760	0	30032	
1761	0	30060	
1762	0	30104	
1763	0	30096	
1764	0	30080	
1765	0	30052	
1766	0	30132	
1767	0	30228	
1768	0	30266	
1769	0	30208	
1770	0	30184	
1771	0	30234	
1772	0	30336	
1773	0	30400	
1774	0	30428	
1775	0	30348	
1776	0	30230	
1777	0	30172	
1778	0	30208	
1779	0	30176	
1780	0	30138	
1781	0	30178	
1782	0	30160	
1783	0	30312	
1784	0	30432	
1785	0	30420	
1786	0	30370	
1787	0	30454	
1788	0	30640	
1789	0	30792	
1790	0	30812	
1791	0	30776	
1792	0	30798	
1793	0	30736	
1794	0	30704	
1795	0	30712	
1796	0	30764	
1797	0	30692	
1798	0	30636	
1799	0	30632	
1800	0	30628	
1801	0	30644	
1802	0	30752	
1803	0	30832	
1804	0	30776	
1805	0	30760	
1806	0	30784	
1807	0	30764	
1808	0	30792	
1809	0	30908	
1810	0	31040	
1811	0	31008	
1812	0	30904	
1813	0	30892	
1814	0	30860	
1815	0	30860	
1816	0	30880	
1817	0	30920	
1818	0	30900	
1819	0	30892	
1820	0	30916	
1821	0	31004	
1822	0	31094	
1823	0	31188	
1824	0	31290	
1825	0	31288	
1826	0	31212	
1827	0	31188	
1828	0	31144	
1829	0	31104	
1830	0	31072	
1831	0	31100	
1832	0	31132	
1833	0	31176	
1834	0	31244	
1835	0	31276	
1836	0	31269	
1837	0	31292	
1838	0	31320	
1839	0	31296	
1840	0	31260	
1841	0	31224	
1842	0	31160	
1843	0	31112	
1844	0	31124	
1845	0	31164	
1846	0	31184	
1847	0	31200	
1848	0	31228	
1849	0	31290	
1850	0	31384	
1851	0	31466	
1852	0	31512	
1853	0	31556	
1854	0	31584	
1855	0	31624	
1856	0	31648	
1857	0	31660	
1858	0	31604	
1859	0	31541	
1860	0	31436	
1861	0	31402	
1862	0	31436	
1863	0	31502	
1864	0	31588	
1865	0	31624	
1866	0	31616	
1867	0	31616	
1868	0	31616	
1869	0	31652	
1870	0	31672	
1871	0	31668	
1872	0	31664	
1873	0	31628	
1874	0	31568	
1875	0	31584	
1876	0	31652	
1877	0	31708	
1878	0	31704	
1879	0	31656	
1880	0	31592	
1881	0	31588	
1882	0	31584	
1883	0	31556	
1884	0	31512	
1885	0	31560	
1886	0	31588	
1887	0	31612	
1888	0	31584	
1889	0	31520	
1890	0	31496	
1891	0	31544	
1892	0	31600	
1893	0	31664	
1894	0	31668	
1895	0	31636	
1896	0	31588	
1897	0	31580	
1898	0	31616	
1899	0	31632	
1900	0	31536	
1901	0	31532	
1902	0	31600	
1903	0	31652	
1904	0	31628	
1905	0	31576	
1906	0	31536	
1907	0	31528	
1908	0	31520	
1909	0	31540	
1910	0	31552	
1911	0	31624	
1912	0	31656	
1913	0	31652	
1914	0	31620	
1915	0	31638	
1916	0	31628	
1917	0	31682	
1918	0	31720	
1919	0	31764	
1920	0	31752	
1921	0	31692	
1922	0	31636	
1923	0	31648	
1924	0	31674	
1925	0	31684	
1926	0	31652	
1927	0	31660	
1928	0	31732	
1929	0	31820	
1930	0	31952	
1931	0	31984	
1932	0	31996	
1933	0	32048	
1934	0	32084	
1935	0	32124	
1936	0	32202	
1937	0	32240	
1938	0	32330	
1939	0	32500	
1940	0	32676	
1941	0	32852	
1942	0	32968	
1943	0	33132	
1944	0	33304	
1945	0	33360	
1946	0	33356	
1947	0	33372	
1948	0	33396	
1949	0	33456	
1950	0	33592	
1951	0	33692	
1952	0	33690	
1953	0	33708	
1954	0	33768	
1955	0	33852	
1956	0	33860	
1957	0	33872	
1958	0	33952	
1959	0	34092	
1960	0	34234	
1961	0	34296	
1962	0	34388	
1963	0	34496	
1964	0	34564	
1965	0	34612	
1966	0	34638	
1967	0	34692	
1968	0	34760	
1969	0	34820	
1970	0	34916	
1971	0	34992	
1972	0	34904	
1973	0	34816	
1974	0	34794	
1975	0	34848	
1976	0	34948	
1977	0	35016	
1978	0	34996	
1979	0	34876	
1980	0	34692	
1981	0	34576	
1982	0	34404	
1983	0	34260	
1984	0	34184	
1985	0	34180	
1986	0	34152	
1987	0	34036	
1988	0	33936	
1989	0	33856	
1990	0	33736	
1991	0	33592	
1992	0	33424	
1993	0	33304	
1994	0	33244	
1995	0	33110	
1996	0	32964	
1997	0	32928	
1998	0	32858	
1999	0	32804	
2000	0	32720	
2001	0	32568	
2002	0	32432	
2003	0	32320	
2004	0	32232	
2005	0	32182	
2006	0	32160	
2007	0	32124	
2008	0	32042	
2009	0	31936	
2010	0	31844	
2011	0	31724	
2012	0	31656	
2013	0	31576	
2014	0	31468	
2015	0	31346	
2016	0	31216	
2017	0	31136	
2018	0	31084	
2019	0	31028	
2020	0	30996	
2021	0	31000	
2022	0	31016	
2023	0	31024	
2024	0	31032	
2025	0	30992	
2026	0	30964	
2027	0	30980	
2028	0	31052	
2029	0	31072	
2030	0	31084	
2031	0	31084	
2032	0	31092	
2033	0	31092	
2034	0	31096	
2035	0	31098	
2036	0	31112	
2037	0	31096	
2038	0	31032	
2039	0	30980	
2040	0	30928	
2041	0	30940	
2042	0	30966	
2043	0	30996	
2044	0	31020	
2045	0	31008	
2046	0	31044	
2047	0	31092	
2048	0	31120	
2049	0	31156	
2050	0	31128	
2051	0	31144	
2052	0	31160	
2053	0	31192	
2054	0	31232	
2055	0	31212	
2056	0	31144	
2057	0	31100	
2058	0	31072	
2059	0	31072	
2060	0	31056	
2061	0	31140	
2062	0	31288	
2063	0	31328	
2064	0	31360	
2065	0	31412	
2066	0	31348	
2067	0	31272	
2068	0	31210	
2069	0	31266	
2070	0	31320	
2071	0	31348	
2072	0	31284	
2073	0	31052	
2074	0	30816	
2075	0	30620	
2076	0	30432	
2077	0	30328	
2078	0	30400	
2079	0	30524	
2080	0	30704	
2081	0	30924	
2082	0	31288	
2083	0	31792	
2084	0	32394	
2085	0	33140	
2086	0	33944	
2087	0	34896	
2088	0	35992	
2089	0	37168	
2090	0	38536	
2091	0	40068	
2092	0	41664	
2093	0	43328	
2094	0	44968	
2095	0	46560	
2096	0	48156	
2097	0	49712	
2098	0	51256	
2099	0	52856	
2100	0	54504	
2101	0	55992	
2102	0	57292	
2103	0	58468	
2104	0	59592	
2105	0	60584	
2106	0	61408	
2107	0	61972	
2108	0	61764	
2109	0	60364	
2110	0	58260	
2111	0	55528	
2112	0	52344	
2113	0	49168	
2114	0	45944	
2115	0	42360	
2116	0	38540	
2117	0	35144	
2118	0	32516	
2119	0	30616	
2120	0	29376	
2121	0	28626	
2122	0	28264	
2123	0	28228	
2124	0	28308	
2125	0	28448	
2126	0	28720	
2127	0	29088	
2128	0	29396	
2129	0	29568	
2130	0	29701	
2131	0	29844	
2132	0	29932	
2133	0	29988	
2134	0	30096	
2135	0	30092	
2136	0	29872	
2137	0	29600	
2138	0	29476	
2139	0	29364	
2140	0	29248	
2141	0	29184	
2142	0	29152	
2143	0	29160	
2144	0	29216	
2145	0	29140	
2146	0	29060	
2147	0	29052	
2148	0	29004	
2149	0	28880	
2150	0	28832	
2151	0	28768	
2152	0	28726	
2153	0	28748	
2154	0	28814	
2155	0	28812	
2156	0	28784	
2157	0	28780	
2158	0	28860	
2159	0	28964	
2160	0	29040	
2161	0	29106	
2162	0	29120	
2163	0	29128	
2164	0	29148	
2165	0	29200	
2166	0	29264	
2167	0	29364	
2168	0	29368	
2169	0	29342	
2170	0	29404	
2171	0	29538	
2172	0	29620	
2173	0	29628	
2174	0	29544	
2175	0	29500	
2176	0	29574	
2177	0	29724	
2178	0	29920	
2179	0	30012	
2180	0	29984	
2181	0	29920	
2182	0	29940	
2183	0	29902	
2184	0	29872	
2185	0	29928	
2186	0	29988	
2187	0	30040	
2188	0	30088	
2189	0	30176	
2190	0	30208	
2191	0	30084	
2192	0	30144	
2193	0	30312	
2194	0	30364	
2195	0	30328	
2196	0	30332	
2197	0	30456	
2198	0	30496	
2199	0	30396	
2200	0	30356	
2201	0	30456	
2202	0	30564	
2203	0	30562	
2204	0	30584	
2205	0	30628	
2206	0	30696	
2207	0	30764	
2208	0	30852	
2209	0	30976	
2210	0	31024	
2211	0	31100	
2212	0	31068	
2213	0	31000	
2214	0	31064	
2215	0	31108	
2216	0	31028	
2217	0	30932	
2218	0	31004	
2219	0	31164	
2220	0	31364	
2221	0	31472	
2222	0	31464	
2223	0	31376	
2224	0	31372	
2225	0	31408	
2226	0	31484	
2227	0	31532	
2228	0	31548	
2229	0	31608	
2230	0	31700	
2231	0	31808	
2232	0	31936	
2233	0	31964	
2234	0	31936	
2235	0	31944	
2236	0	31982	
2237	0	31992	
2238	0	31970	
2239	0	31920	
2240	0	31976	
2241	0	32076	
2242	0	32048	
2243	0	32040	
2244	0	32112	
2245	0	32172	
2246	0	32106	
2247	0	32148	
2248	0	32236	
2249	0	32356	
2250	0	32428	
2251	0	32416	
2252	0	32384	
2253	0	32360	
2254	0	32372	
2255	0	32360	
2256	0	32352	
2257	0	32448	
2258	0	32584	
2259	0	32620	
2260	0	32680	
2261	0	32832	
2262	0	32900	
2263	0	32896	
2264	0	32904	
2265	0	32972	
2266	0	33064	
2267	0	33058	
2268	0	33020	
2269	0	33064	
2270	0	33136	
2271	0	33184	
2272	0	33188	
2273	0	33192	
2274	0	33228	
2275	0	33320	
2276	0	33344	
2277	0	33364	
2278	0	33392	
2279	0	33452	
2280	0	33504	
2281	0	33564	
2282	0	33620	
2283	0	33672	
2284	0	33712	
2285	0	33680	
2286	0	33634	
2287	0	33700	
2288	0	33808	
2289	0	33888	
2290	0	34008	
2291	0	34064	
2292	0	34160	
2293	0	34324	
2294	0	34420	
2295	0	34440	
2296	0	34368	
2297	0	34340	
2298	0	34472	
2299	0	34632	
2300	0	34696	
2301	0	34712	
2302	0	34712	
2303	0	34744	
2304	0	34760	
2305	0	34784	
2306	0	34786	
2307	0	34828	
2308	0	34872	
2309	0	35022	
2310	0	35192	
2311	0	35220	
2312	0	35192	
2313	0	35172	
2314	0	35176	
2315	0	35186	
2316	0	35220	
2317	0	35248	
2318	0	35404	
2319	0	35540	
2320	0	35612	
2321	0	35644	
2322	0	35676	
2323	0	35774	
2324	0	35832	
2325	0	35736	
2326	0	35688	
2327	0	35696	
2328	0	35732	
2329	0	35832	
2330	0	35860	
2331	0	35880	
2332	0	35916	
2333	0	35920	
2334	0	35936	
2335	0	35968	
2336	0	35928	
2337	0	35856	
2338	0	35784	
2339	0	35800	
2340	0	35848	
2341	0	35936	
2342	0	35924	
2343	0	35868	
2344	0	35864	
2345	0	35880	
2346	0	35896	
2347	0	35906	
2348	0	35906	
2349	0	35772	
2350	0	35684	
2351	0	35608	
2352	0	35510	
2353	0	35490	
2354	0	35448	
2355	0	35396	
2356	0	35292	
2357	0	35140	
2358	0	34970	
2359	0	34804	
2360	0	34584	
2361	0	34450	
2362	0	34428	
2363	0	34446	
2364	0	34368	
2365	0	34202	
2366	0	33984	
2367	0	33916	
2368	0	33868	
2369	0	33732	
2370	0	33664	
2371	0	33594	
2372	0	33440	
2373	0	33292	
2374	0	33096	
2375	0	32960	
2376	0	32788	
2377	0	32576	
2378	0	32392	
2379	0	32256	
2380	0	32208	
2381	0	32170	
2382	0	32056	
2383	0	31880	
2384	0	31768	
2385	0	31692	
2386	0	31596	
2387	0	31512	
2388	0	31436	
2389	0	31412	
2390	0	31364	
2391	0	31296	
2392	0	31216	
2393	0	31084	
2394	0	31020	
2395	0	30964	
2396	0	30912	
2397	0	30796	
2398	0	30778	
2399	0	30696	
2400	0	30592	
2401	0	30496	
2402	0	30446	
2403	0	30446	
2404	0	30388	
2405	0	30304	
2406	0	30324	
2407	0	30316	
2408	0	30260	
2409	0	30282	
2410	0	30356	
2411	0	30412	
2412	0	30464	
2413	0	30504	
2414	0	30480	
2415	0	30344	
2416	0	30192	
2417	0	30080	
2418	0	30036	
2419	0	30096	
2420	0	30116	
2421	0	30132	
2422	0	30076	
2423	0	29964	
2424	0	29984	
2425	0	30056	
2426	0	30120	
2427	0	30144	
2428	0	30108	
2429	0	30176	
2430	0	30232	
2431	0	30236	
2432	0	30316	
2433	0	30400	
2434	0	30480	
2435	0	30522	
2436	0	30472	
2437	0	30450	
2438	0	30368	
2439	0	30436	
2440	0	30558	
2441	0	30576	
2442	0	30540	
2443	0	30552	
2444	0	30548	
2445	0	30500	
2446	0	30504	
2447	0	30508	
2448	0	30528	
2449	0	30560	
2450	0	30613	
2451	0	30628	
2452	0	30624	
2453	0	30580	
2454	0	30612	
2455	0	30692	
2456	0	30736	
2457	0	30712	
2458	0	30688	
2459	0	30704	
2460	0	30744	
2461	0	30824	
2462	0	30892	
2463	0	30816	
2464	0	30768	
2465	0	30756	
2466	0	30788	
2467	0	30852	
2468	0	30928	
2469	0	31000	
2470	0	31040	
2471	0	31088	
2472	0	31120	
2473	0	31196	
2474	0	31258	
2475	0	31250	
2476	0	31188	
2477	0	31144	
2478	0	31124	
2479	0	31036	
2480	0	31028	
2481	0	31100	
2482	0	31080	
2483	0	31088	
2484	0	31156	
2485	0	31268	
2486	0	31320	
2487	0	31296	
2488	0	31308	
2489	0	31284	
2490	0	31288	
2491	0	31304	
2492	0	31248	
2493	0	31284	
2494	0	31352	
2495	0	31384	
2496	0	31362	
2497	0	31320	
2498	0	31328	
2499	0	31356	
2500	0	31344	
2501	0	31384	
2502	0	31552	
2503	0	31630	
2504	0	31564	
2505	0	31448	
2506	0	31520	
2507	0	31600	
2508	0	31620	
2509	0	31572	
2510	0	31508	
2511	0	31472	
2512	0	31428	
2513	0	31548	
2514	0	31672	
2515	0	31692	
2516	0	31572	
2517	0	31500	
2518	0	31520	
2519	0	31572	
2520	0	31644	
2521	0	31706	
2522	0	31720	
2523	0	31688	
2524	0	31624	
2525	0	31540	
2526	0	31512	
2527	0	31440	
2528	0	31468	
2529	0	31508	
2530	0	31592	
2531	0	31680	
2532	0	31800	
2533	0	31892	
2534	0	31900	
2535	0	31944	
2536	0	31928	
2537	0	31856	
2538	0	31872	
2539	0	31816	
2540	0	31792	
2541	0	31792	
2542	0	31754	
2543	0	31670	
2544	0	31644	
2545	0	31690	
2546	0	31712	
2547	0	31784	
2548	0	31832	
2549	0	31896	
2550	0	31916	
2551	0	31946	
2552	0	31920	
2553	0	31888	
2554	0	31832	
2555	0	31836	
2556	0	31956	
2557	0	31944	
2558	0	31960	
2559	0	31920	
2560	0	31880	
2561	0	31900	
2562	0	32032	
2563	0	32112	
2564	0	32228	
2565	0	32344	
2566	0	32436	
2567	0	32442	
2568	0	32408	
2569	0	32452	
2570	0	32530	
2571	0	32668	
2572	0	32792	
2573	0	32940	
2574	0	33160	
2575	0	33274	
2576	0	33332	
2577	0	33416	
2578	0	33520	
2579	0	33584	
2580	0	33638	
2581	0	33736	
2582	0	33836	
2583	0	33916	
2584	0	33920	
2585	0	33948	
2586	0	33978	
2587	0	33972	
2588	0	33988	
2589	0	34108	
2590	0	34108	
2591	0	34152	
2592	0	34260	
2593	0	34330	
2594	0	34464	
2595	0	34516	
2596	0	34608	
2597	0	34760	
2598	0	34884	
2599	0	34942	
2600	0	34920	
2601	0	34896	
2602	0	34956	
2603	0	34980	
2604	0	34964	
2605	0	34968	
2606	0	34940	
2607	0	34940	
2608	0	35064	
2609	0	35128	
2610	0	35064	
2611	0	34934	
2612	0	34772	
2613	0	34552	
2614	0	34392	
2615	0	34372	
2616	0	34360	
2617	0	34300	
2618	0	34156	
2619	0	34056	
2620	0	34120	
2621	0	34020	
2622	0	33768	
2623	0	33612	
2624	0	33546	
2625	0	33480	
2626	0	33380	
2627	0	33264	
2628	0	33234	
2629	0	33208	
2630	0	33128	
2631	0	33064	
2632	0	32940	
2633	0	32808	
2634	0	32704	
2635	0	32628	
2636	0	32582	
2637	0	32532	
2638	0	32396	
2639	0	32250	
2640	0	32122	
2641	0	32042	
2642	0	31974	
2643	0	31940	
2644	0	31872	
2645	0	31770	
2646	0	31648	
2647	0	31500	
2648	0	31344	
2649	0	31190	
2650	0	31104	
2651	0	31124	
2652	0	31124	
2653	0	31164	
2654	0	31114	
2655	0	30962	
2656	0	30784	
2657	0	30692	
2658	0	30704	
2659	0	30744	
2660	0	30826	
2661	0	30960	
2662	0	31144	
2663	0	31160	
2664	0	31128	
2665	0	31120	
2666	0	31124	
2667	0	31120	
2668	0	31168	
2669	0	31220	
2670	0	31208	
2671	0	31196	
2672	0	31192	
2673	0	31176	
2674	0	31168	
2675	0	31156	
2676	0	31184	
2677	0	31240	
2678	0	31264	
2679	0	31224	
2680	0	31200	
2681	0	31188	
2682	0	31162	
2683	0	31140	
2684	0	31204	
2685	0	31300	
2686	0	31328	
2687	0	31332	
2688	0	31368	
2689	0	31424	
2690	0	31508	
2691	0	31532	
2692	0	31496	
2693	0	31460	
2694	0	31484	
2695	0	31528	
2696	0	31594	
2697	0	31548	
2698	0	31516	
2699	0	31532	
2700	0	31588	
2701	0	31556	
2702	0	31444	
2703	0	31308	
2704	0	31080	
2705	0	30892	
2706	0	30792	
2707	0	30740	
2708	0	30720	
2709	0	30826	
2710	0	30960	
2711	0	31124	
2712	0	31352	
2713	0	31640	
2714	0	32212	
2715	0	32916	
2716	0	33676	
2717	0	34444	
2718	0	35316	
2719	0	36332	
2720	0	37528	
2721	0	38944	
2722	0	40436	
2723	0	41900	
2724	0	43432	
2725	0	45024	
2726	0	46716	
2727	0	48484	
2728	0	50200	
2729	0	51864	
2730	0	53360	
2731	0	54848	
2732	0	56416	
2733	0	57884	
2734	0	59040	
2735	0	60000	
2736	0	60684	
2737	0	61200	
2738	0	61416	
2739	0	60776	
2740	0	58960	
2741	0	56532	
2742	0	53568	
2743	0	50484	
2744	0	47516	
2745	0	44224	
2746	0	40552	
2747	0	37000	
2748	0	34136	
2749	0	31970	
2750	0	30490	
2751	0	29558	
2752	0	29012	
2753	0	28668	
2754	0	28544	
2755	0	28672	
2756	0	28782	
2757	0	28952	
2758	0	29196	
2759	0	29384	
2760	0	29528	
2761	0	29640	
2762	0	29726	
2763	0	29800	
2764	0	29880	
2765	0	29876	
2766	0	29800	
2767	0	29700	
2768	0	29572	
2769	0	29428	
2770	0	29360	
2771	0	29306	
2772	0	29204	
2773	0	29092	
2774	0	29036	
2775	0	28916	
2776	0	28832	
2777	0	28768	
2778	0	28776	
2779	0	28846	
2780	0	28840	
2781	0	28808	
2782	0	28828	
2783	0	28852	
2784	0	28800	
2785	0	28776	
2786	0	28740	
2787	0	28752	
2788	0	28792	
2789	0	28800	
2790	0	28812	
2791	0	28836	
2792	0	28832	
2793	0	28852	
2794	0	29000	
2795	0	29060	
2796	0	29072	
2797	0	29136	
2798	0	29220	
2799	0	29248	
2800	0	29176	
2801	0	29112	
2802	0	29120	
2803	0	29152	
2804	0	29148	
2805	0	29188	
2806	0	29300	
2807	0	29440	
2808	0	29492	
2809	0	29524	
2810	0	29572	
2811	0	29616	
2812	0	29692	
2813	0	29696	
2814	0	29784	
2815	0	29872	
2816	0	29890	
2817	0	29888	
2818	0	29896	
2819	0	29920	
2820	0	29968	
2821	0	30034	
2822	0	30104	
2823	0	30176	
2824	0	30284	
2825	0	30324	
2826	0	30344	
2827	0	30360	
2828	0	30368	
2829	0	30428	
2830	0	30480	
2831	0	30530	
2832	0	30552	
2833	0	30592	
2834	0	30632	
2835	0	30644	
2836	0	30680	
2837	0	30732	
2838	0	30696	
2839	0	30668	
2840	0	30742	
2841	0	30844	
2842	0	30816	
2843	0	30784	
2844	0	30808	
2845	0	30876	
2846	0	30964	
2847	0	31056	
2848	0	31040	
2849	0	31040	
2850	0	31146	
2851	0	31288	
2852	0	31336	
2853	0	31360	
2854	0	31344	
2855	0	31266	
2856	0	31232	
2857	0	31288	
2858	0	31380	
2859	0	31460	
2860	0	31528	
2861	0	31584	
2862	0	31628	
2863	0	31696	
2864	0	31768	
2865	0	31760	
2866	0	31808	
2867	0	31812	
2868	0	31744	
2869	0	31776	
2870	0	31804	
2871	0	31808	
2872	0	31812	
2873	0	31816	
2874	0	31724	
2875	0	31680	
2876	0	31768	
2877	0	31808	
2878	0	31828	
2879	0	31872	
2880	0	31972	
2881	0	32128	
2882	0	32184	
2883	0	32152	
2884	0	32164	
2885	0	32192	
2886	0	32224	
2887	0	32372	
2888	0	32632	
2889	0	32796	
2890	0	32654	
2891	0	32328	
2892	0	32072	
2893	0	31982	
2894	0	32144	
2895	0	32368	
2896	0	32584	
2897	0	32788	
2898	0	33016	
2899	0	33170	
2900	0	33284	
2901	0	33356	
2902	0	33372	
2903	0	33320	
2904	0	33440	
2905	0	33516	
2906	0	33544	
2907	0	33552	
2908	0	33540	
2909	0	33560	
2910	0	33564	
2911	0	33576	
2912	0	33584	
2913	0	33584	
2914	0	33620	
2915	0	33688	
2916	0	33808	
2917	0	33834	
2918	0	33840	
2919	0	33884	
2920	0	33928	
2921	0	33968	
2922	0	33980	
2923	0	33968	
2924	0	33940	
2925	0	33956	
2926	0	34048	
2927	0	34220	
2928	0	34288	
2929	0	34332	
2930	0	34400	
2931	0	34504	
2932	0	34528	
2933	0	34528	
2934	0	34622	
2935	0	34732	
2936	0	34776	
2937	0	34780	
2938	0	34840	
2939	0	34924	
2940	0	35028	
2941	0	35058	
2942	0	35074	
2943	0	35176	
2944	0	35288	
2945	0	35300	
2946	0	35340	
2947	0	35512	
2948	0	35592	
2949	0	35584	
2950	0	35676	
2951	0	35872	
2952	0	36036	
2953	0	36036	
2954	0	36048	
2955	0	36132	
2956	0	36240	
2957	0	36248	
2958	0	36068	
2959	0	35932	
2960	0	35820	
2961	0	35608	
2962	0	35394	
2963	0	35264	
2964	0	35236	
2965	0	35344	
2966	0	35428	
2967	0	35440	
2968	0	35444	
2969	0	35452	
2970	0	35504	
2971	0	35648	
2972	0	35796	
2973	0	35784	
2974	0	35736	
2975	0	35728	
2976	0	35620	
2977	0	35688	
2978	0	35652	
2979	0	35588	
2980	0	35552	
2981	0	35508	
2982	0	35436	
2983	0	35344	
2984	0	35324	
2985	0	35280	
2986	0	35212	
2987	0	35216	
2988	0	35096	
2989	0	34820	
2990	0	34748	
2991	0	34780	
2992	0	34824	
2993	0	34632	
2994	0	34444	
2995	0	34340	
2996	0	34180	
2997	0	34048	
2998	0	33952	
2999	0	33900	
3000	0	33840	
3001	0	33648	
3002	0	33544	
3003	0	33564	
3004	0	33464	
3005	0	33232	
3006	0	33048	
3007	0	32932	
3008	0	32776	
3009	0	32538	
3010	0	32404	
3011	0	32224	
3012	0	32000	
3013	0	31816	
3014	0	31684	
3015	0	31552	
3016	0	31512	
3017	0	31388	
3018	0	31324	
3019	0	31272	
3020	0	31144	
3021	0	31048	
3022	0	31044	
3023	0	31052	
3024	0	30976	
3025	0	30988	
3026	0	31040	
3027	0	30920	
3028	0	30796	
3029	0	30776	
3030	0	30704	
3031	0	30576	
3032	0	30516	
3033	0	30496	
3034	0	30514	
3035	0	30520	
3036	0	30496	
3037	0	30408	
3038	0	30340	
3039	0	30376	
3040	0	30376	
3041	0	30324	
3042	0	30352	
3043	0	30316	
3044	0	30352	
3045	0	30440	
3046	0	30492	
3047	0	30456	
3048	0	30432	
3049	0	30416	
3050	0	30516	
3051	0	30612	
3052	0	30556	
3053	0	30360	
3054	0	30228	
3055	0	30300	
3056	0	30356	
3057	0	30402	
3058	0	30432	
3059	0	30456	
3060	0	30484	
3061	0	30546	
3062	0	30586	
3063	0	30668	
3064	0	30752	
3065	0	30784	
3066	0	30768	
3067	0	30770	
3068	0	30824	
3069	0	30852	
3070	0	30856	
3071	0	30872	
3072	0	30954	
3073	0	30948	
3074	0	30864	
3075	0	30792	
3076	0	30792	
3077	0	30888	
3078	0	30952	
3079	0	31040	
3080	0	31060	
3081	0	31024	
3082	0	31024	
3083	0	31084	
3084	0	31168	
3085	0	31188	
3086	0	31116	
3087	0	31038	
3088	0	31040	
3089	0	31104	
3090	0	31168	
3091	0	31204	
3092	0	31240	
3093	0	31304	
3094	0	31344	
3095	0	31400	
3096	0	31400	
3097	0	31368	
3098	0	31306	
3099	0	31280	
3100	0	31320	
3101	0	31368	
3102	0	31380	
3103	0	31392	
3104	0	31372	
3105	0	31354	
3106	0	31352	
3107	0	31312	
3108	0	31328	
3109	0	31456	
3110	0	31492	
3111	0	31464	
3112	0	31412	
3113	0	31412	
3114	0	31500	
3115	0	31528	
3116	0	31482	
3117	0	31476	
3118	0	31466	
3119	0	31440	
3120	0	31448	
3121	0	31472	
3122	0	31528	
3123	0	31680	
3124	0	31736	
3125	0	31692	
3126	0	31584	
3127	0	31532	
3128	0	31580	
3129	0	31676	
3130	0	31692	
3131	0	31720	
3132	0	31764	
3133	0	31748	
3134	0	31630	
3135	0	31548	
3136	0	31520	
3137	0	31536	
3138	0	31504	
3139	0	31456	
3140	0	31416	
3141	0	31444	
3142	0	31504	
3143	0	31652	
3144	0	31692	
3145	0	31700	
3146	0	31720	
3147	0	31660	
3148	0	31644	
3149	0	31620	
3150	0	31626	
3151	0	31676	
3152	0	31736	
3153	0	31772	
3154	0	31746	
3155	0	31768	
3156	0	31800	
3157	0	31760	
3158	0	31708	
3159	0	31632	
3160	0	31728	
3161	0	31770	
3162	0	31660	
3163	0	31606	
3164	0	31708	
3165	0	31776	
3166	0	31744	
3167	0	31760	
3168	0	31656	
3169	0	31588	
3170	0	31568	
3171	0	31636	
3172	0	31684	
3173	0	31760	
3174	0	31832	
3175	0	31872	
3176	0	31836	
3177	0	31776	
3178	0	31744	
3179	0	31840	
3180	0	32004	
3181	0	32116	
3182	0	32164	
3183	0	32168	
3184	0	32156	
3185	0	32220	
3186	0	32296	
3187	0	32380	
3188	0	32552	
3189	0	32676	
3190	0	32832	
3191	0	33012	
3192	0	33108	
3193	0	33208	
3194	0	33440	
3195	0	33556	
3196	0	33492	
3197	0	33468	
3198	0	33472	
3199	0	33568	
3200	0	33632	
3201	0	33696	
3202	0	33768	
3203	0	33836	
3204	0	33844	
3205	0	33940	
3206	0	34004	
3207	0	34028	
3208	0	34044	
3209	0	34172	
3210	0	34304	
3211	0	34468	
3212	0	34616	
3213	0	34684	
3214	0	34752	
3215	0	34788	
3216	0	34748	
3217	0	34700	
3218	0	34676	
3219	0	34660	
3220	0	34668	
3221	0	34864	
3222	0	35080	
3223	0	34988	
3224	0	34880	
3225	0	34832	
3226	0	34800	
3227	0	34812	
3228	0	34684	
3229	0	34498	
3230	0	34328	
3231	0	34176	
3232	0	34072	
3233	0	33952	
3234	0	33840	
3235	0	33824	
3236	0	33784	
3237	0	33672	
3238	0	33556	
3239	0	33406	
3240	0	33248	
3241	0	33152	
3242	0	33110	
3243	0	33172	
3244	0	33036	
3245	0	32944	
3246	0	32888	
3247	0	32832	
3248	0	32836	
3249	0	32816	
3250	0	32696	
3251	0	32552	
3252	0	32372	
3253	0	32246	
3254	0	32202	
3255	0	32100	
3256	0	31984	
3257	0	31908	
3258	0	31748	
3259	0	31692	
3260	0	31650	
3261	0	31580	
3262	0	31464	
3263	0	31424	
3264	0	31356	
3265	0	31276	
3266	0	31200	
3267	0	31084	
3268	0	30980	
3269	0	30952	
3270	0	31060	
3271	0	31056	
3272	0	30976	
3273	0	30888	
3274	0	30832	
3275	0	30884	
3276	0	30980	
3277	0	31020	
3278	0	30960	
3279	0	30888	
3280	0	30956	
3281	0	30948	
3282	0	30868	
3283	0	30868	
3284	0	30968	
3285	0	31048	
3286	0	31100	
3287	0	31200	
3288	0	31240	
3289	0	31204	
3290	0	31208	
3291	0	31216	
3292	0	31330	
3293	0	31324	
3294	0	31208	
3295	0	31154	
3296	0	31109	
3297	0	31104	
3298	0	31024	
3299	0	30972	
3300	0	31104	
3301	0	31290	
3302	0	31356	
3303	0	31344	
3304	0	31320	
3305	0	31288	
3306	0	31328	
3307	0	31368	
3308	0	31350	
3309	0	31320	
3310	0	31392	
3311	0	31508	
3312	0	31496	
3313	0	31480	
3314	0	31505	
3315	0	31476	
3316	0	31242	
3317	0	31080	
3318	0	31018	
3319	0	30900	
3320	0	30800	
3321	0	30786	
3322	0	30746	
3323	0	30572	
3324	0	30440	
3325	0	30452	
3326	0	30552	
3327	0	30612	
3328	0	30826	
3329	0	31208	
3330	0	31758	
3331	0	32444	
3332	0	33124	
3333	0	33868	
3334	0	34880	
3335	0	36024	
3336	0	37196	
3337	0	38512	
3338	0	40044	
3339	0	41616	
3340	0	43200	
3341	0	44874	
3342	0	46540	
3343	0	48298	
3344	0	50012	
3345	0	51684	
3346	0	53164	
3347	0	54608	
3348	0	56072	
3349	0	57432	
3350	0	58656	
3351	0	59628	
3352	0	60392	
3353	0	60996	
3354	0	61260	
3355	0	60784	
3356	0	59232	
3357	0	56964	
3358	0	54112	
3359	0	51136	
3360	0	48232	
3361	0	44936	
3362	0	41280	
3363	0	37630	
3364	0	34624	
3365	0	32346	
3366	0	30688	
3367	0	29600	
3368	0	28972	
3369	0	28648	
3370	0	28432	
3371	0	28354	
3372	0	28430	
3373	0	28524	
3374	0	28812	
3375	0	29216	
3376	0	29336	
3377	0	29324	
3378	0	29362	
3379	0	29458	
3380	0	29484	
3381	0	29536	
3382	0	29464	
3383	0	29320	
3384	0	29169	
3385	0	29050	
3386	0	28960	
3387	0	28946	
3388	0	28904	
3389	0	28860	
3390	0	28864	
3391	0	28772	
3392	0	28642	
3393	0	28628	
3394	0	28708	
3395	0	28722	
3396	0	28696	
3397	0	28724	
3398	0	28760	
3399	0	28756	
3400	0	28764	
3401	0	28738	
3402	0	28640	
3403	0	28624	
3404	0	28652	
3405	0	28636	
3406	0	28612	
3407	0	28624	
3408	0	28572	
3409	0	28520	
3410	0	28644	
3411	0	28824	
3412	0	28868	
3413	0	28826	
3414	0	28824	
3415	0	28952	
3416	0	29100	
3417	0	29132	
3418	0	29148	
3419	0	29084	
3420	0	29060	
3421	0	29040	
3422	0	29080	
3423	0	29180	
3424	0	29316	
3425	0	29372	
3426	0	29452	
3427	0	29516	
3428	0	29568	
3429	0	29626	
3430	0	29560	
3431	0	29592	
3432	0	29636	
3433	0	29612	
3434	0	29552	
3435	0	29580	
3436	0	29564	
3437	0	29592	
3438	0	29720	
3439	0	29816	
3440	0	29776	
3441	0	29784	
3442	0	29824	
3443	0	29852	
3444	0	29860	
3445	0	29968	
3446	0	30060	
3447	0	30144	
3448	0	30220	
3449	0	30240	
3450	0	30296	
3451	0	30344	
3452	0	30312	
3453	0	30272	
3454	0	30320	
3455	0	30324	
3456	0	30304	
3457	0	30348	
3458	0	30400	
3459	0	30460	
3460	0	30556	
3461	0	30644	
3462	0	30720	
3463	0	30776	
3464	0	30736	
3465	0	30700	
3466	0	30692	
3467	0	30784	
3468	0	30884	
3469	0	30980	
3470	0	31024	
3471	0	30912	
3472	0	30798	
3473	0	30770	
3474	0	30848	
3475	0	31024	
3476	0	31212	
3477	0	31272	
3478	0	31228	
3479	0	31220	
3480	0	31328	
3481	0	31464	
3482	0	31516	
3483	0	31554	
3484	0	31578	
3485	0	31616	
3486	0	31658	
3487	0	31692	
3488	0	31776	
3489	0	31852	
3490	0	31796	
3491	0	31708	
3492	0	31794	
3493	0	31876	
3494	0	31856	
3495	0	31768	
3496	0	31702	
3497	0	31672	
3498	0	31762	
3499	0	31940	
3500	0	32092	
3501	0	32160	
3502	0	32164	
3503	0	32212	
3504	0	32272	
3505	0	32356	
3506	0	32368	
3507	0	32436	
3508	0	32476	
3509	0	32480	
3510	0	32472	
3511	0	32504	
3512	0	32540	
3513	0	32588	
3514	0	32672	
3515	0	32796	
3516	0	32782	
3517	0	32752	
3518	0	32760	
3519	0	32776	
3520	0	32796	
3521	0	32816	
3522	0	32848	
3523	0	32908	
3524	0	32996	
3525	0	33160	
3526	0	33308	
3527	0	33300	
3528	0	33312	
3529	0	33424	
3530	0	33476	
3531	0	33540	
3532	0	33548	
3533	0	33552	
3534	0	33512	
3535	0	33528	
3536	0	33538	
3537	0	33448	
3538	0	33392	
3539	0	33472	
3540	0	33484	
3541	0	33568	
3542	0	33772	
3543	0	33812	
3544	0	33892	
3545	0	34088	
3546	0	34124	
3547	0	34092	
3548	0	34080	
3549	0	34104	
3550	0	34212	
3551	0	34266	
3552	0	34328	
3553	0	34308	
3554	0	34404	
3555	0	34516	
3556	0	34520	
3557	0	34524	
3558	0	34466	
3559	0	34520	
3560	0	34668	
3561	0	34752	
3562	0	34772	
3563	0	34728	
3564	0	34632	
3565	0	34644	
3566	0	34692	
3567	0	34840	
3568	0	35000	
3569	0	35144	
3570	0	35256	
3571	0	35328	
3572	0	35408	
3573	0	35376	
3574	0	35292	
3575	0	35280	
3576	0	35312	
3577	0	35320	
3578	0	35240	
3579	0	35268	
3580	0	35304	
3581	0	35300	
3582	0	35264	
3583	0	35240	
3584	0	35264	
3585	0	35316	
3586	0	35380	
3587	0	35456	
3588	0	35472	
3589	0	35560	
3590	0	35632	
3591	0	35624	
3592	0	35560	
3593	0	35464	
3594	0	35284	
3595	0	35028	
3596	0	35088	
3597	0	35116	
3598	0	34904	
3599	0	34980	
3600	0	35116	
3601	0	35068	
3602	0	34904	
3603	0	34880	
3604	0	34878	
3605	0	34820	
3606	0	34592	
3607	0	34428	
3608	0	34410	
3609	0	34374	
3610	0	34264	
3611	0	34184	
3612	0	33954	
3613	0	33676	
3614	0	33584	
3615	0	33562	
3616	0	33524	
3617	0	33476	
3618	0	33372	
3619	0	33184	
3620	0	33004	
3621	0	32754	
3622	0	32332	
3623	0	32076	
3624	0	31896	
3625	0	31844	
3626	0	31880	
3627	0	32064	
3628	0	32224	
3629	0	32132	
3630	0	32006	
3631	0	31900	
3632	0	31768	
3633	0	31700	
3634	0	31700	
3635	0	31690	
3636	0	31624	
3637	0	31632	
3638	0	31524	
3639	0	31456	
3640	0	31428	
3641	0	31496	
3642	0	31548	
3643	0	31394	
3644	0	31288	
3645	0	31164	
3646	0	31056	
3647	0	30904	
3648	0	30880	
3649	0	30954	
3650	0	30944	
3651	0	30848	
3652	0	30740	
3653	0	30692	
3654	0	30728	
3655	0	30658	
3656	0	30568	
3657	0	30540	
3658	0	30500	
3659	0	30484	
3660	0	30528	
3661	0	30600	
3662	0	30588	
3663	0	30604	
3664	0	30616	
3665	0	30648	
3666	0	30712	
3667	0	30640	
3668	0	30548	
3669	0	30720	
3670	0	30836	
3671	0	30812	
3672	0	30860	
3673	0	30824	
3674	0	30760	
3675	0	30820	
3676	0	30980	
3677	0	30944	
3678	0	30812	
3679	0	30712	
3680	0	30700	
3681	0	30808	
3682	0	30996	
3683	0	30934	
3684	0	30832	
3685	0	30712	
3686	0	30664	
3687	0	30728	
3688	0	30784	
3689	0	30888	
3690	0	30988	
3691	0	30968	
3692	0	31020	
3693	0	31108	
3694	0	31172	
3695	0	31162	
3696	0	31144	
3697	0	31168	
3698	0	31280	
3699	0	31262	
3700	0	31116	
3701	0	31220	
3702	0	31472	
3703	0	31468	
3704	0	31480	
3705	0	31534	
3706	0	31480	
3707	0	31524	
3708	0	31584	
3709	0	31548	
3710	0	31516	
3711	0	31456	
3712	0	31344	
3713	0	31236	
3714	0	31128	
3715	0	31052	
3716	0	31088	
3717	0	31236	
3718	0	31396	
3719	0	31472	
3720	0	31408	
3721	0	31400	
3722	0	31496	
3723	0	31596	
3724	0	31656	
3725	0	31660	
3726	0	31614	
3727	0	31564	
3728	0	31624	
3729	0	31712	
3730	0	31712	
3731	0	31688	
3732	0	31720	
3733	0	31682	
3734	0	31688	
3735	0	31668	
3736	0	31464	
3737	0	31376	
3738	0	31368	
3739	0	31376	
3740	0	31420	
3741	0	31480	
3742	0	31470	
3743	0	31476	
3744	0	31600	
3745	0	31720	
3746	0	31760	
3747	0	31732	
3748	0	31724	
3749	0	31690	
3750	0	31660	
3751	0	31756	
3752	0	31768	
3753	0	31760	
3754	0	31788	
3755	0	31832	
3756	0	31856	
3757	0	31748	
3758	0	31656	
3759	0	31586	
3760	0	31532	
3761	0	31544	
3762	0	31596	
3763	0	31656	
3764	0	31684	
3765	0	31792	
3766	0	31808	
3767	0	31778	
3768	0	31712	
3769	0	31712	
3770	0	31684	
3771	0	31652	
3772	0	31664	
3773	0	31720	
3774	0	31768	
3775	0	31804	
3776	0	31732	
3777	0	31708	
3778	0	31744	
3779	0	31768	
3780	0	31840	
3781	0	31948	
3782	0	32056	
3783	0	32064	
3784	0	32144	
3785	0	32308	
3786	0	32480	
3787	0	32632	
3788	0	32836	
3789	0	33052	
3790	0	33160	
3791	0	33232	
3792	0	33278	
3793	0	33364	
3794	0	33400	
3795	0	33340	
3796	0	33312	
3797	0	33376	
3798	0	33352	
3799	0	33332	
3800	0	33504	
3801	0	33680	
3802	0	33756	
3803	0	33808	
3804	0	33856	
3805	0	33936	
3806	0	34136	
3807	0	34264	
3808	0	34384	
3809	0	34476	
3810	0	34552	
3811	0	34640	
3812	0	34744	
3813	0	34912	
3814	0	34984	
3815	0	35024	
3816	0	35136	
3817	0	35084	
3818	0	35048	
3819	0	34976	
3820	0	34936	
3821	0	34912	
3822	0	34848	
3823	0	34776	
3824	0	34704	
3825	0	34624	
3826	0	34624	
3827	0	34656	
3828	0	34560	
3829	0	34460	
3830	0	34432	
3831	0	34420	
3832	0	34268	
3833	0	34038	
3834	0	33872	
3835	0	33732	
3836	0	33608	
3837	0	33564	
3838	0	33490	
3839	0	33396	
3840	0	33320	
3841	0	33248	
3842	0	33236	
3843	0	33188	
3844	0	33188	
3845	0	33188	
3846	0	33096	
3847	0	33038	
3848	0	33020	
3849	0	32996	
3850	0	32868	
3851	0	32670	
3852	0	32432	
3853	0	32304	
3854	0	32116	
3855	0	31884	
3856	0	31752	
3857	0	31724	
3858	0	31796	
3859	0	31860	
3860	0	31808	
3861	0	31704	
3862	0	31656	
3863	0	31616	
3864	0	31528	
3865	0	31372	
3866	0	31184	
3867	0	31024	
3868	0	30976	
3869	0	31004	
3870	0	30968	
3871	0	30908	
3872	0	30872	
3873	0	30900	
3874	0	30828	
3875	0	30828	
3876	0	30860	
3877	0	30872	
3878	0	30880	
3879	0	30880	
3880	0	30820	
3881	0	30792	
3882	0	30816	
3883	0	30844	
3884	0	30840	
3885	0	30844	
3886	0	30888	
3887	0	30924	
3888	0	30924	
3889	0	30948	
3890	0	30980	
3891	0	31048	
3892	0	31154	
3893	0	31192	
3894	0	31048	
3895	0	30956	
3896	0	30968	
3897	0	30932	
3898	0	30876	
3899	0	30888	
3900	0	31016	
3901	0	31040	
3902	0	30996	
3903	0	30988	
3904	0	31000	
3905	0	31086	
3906	0	31152	
3907	0	31166	
3908	0	31162	
3909	0	31166	
3910	0	31280	
3911	0	31316	
3912	0	31308	
3913	0	31444	
3914	0	31392	
3915	0	31208	
3916	0	31140	
3917	0	31088	
3918	0	30988	
3919	0	30904	
3920	0	30784	
3921	0	30512	
3922	0	30276	
3923	0	30180	
3924	0	30228	
3925	0	30326	
3926	0	30448	
3927	0	30664	
3928	0	30992	
3929	0	31536	
3930	0	32249	
3931	0	32986	
3932	0	33780	
3933	0	34696	
3934	0	35680	
3935	0	36952	
3936	0	38428	
3937	0	39960	
3938	0	41588	
3939	0	43248	
3940	0	44888	
3941	0	46572	
3942	0	48312	
3943	0	50136	
3944	0	51904	
3945	0	53440	
3946	0	54792	
3947	0	56196	
3948	0	57472	
3949	0	58524	
3950	0	59348	
3951	0	59776	
3952	0	60032	
3953	0	59948	
3954	0	59056	
3955	0	57208	
3956	0	54648	
3957	0	51696	
3958	0	48700	
3959	0	45744	
3960	0	42524	
3961	0	39012	
3962	0	35808	
3963	0	33284	
3964	0	31416	
3965	0	30152	
3966	0	29424	
3967	0	28992	
3968	0	28776	
3969	0	28664	
3970	0	28712	
3971	0	28840	
3972	0	29036	
3973	0	29248	
3974	0	29392	
3975	0	29528	
3976	0	29620	
3977	0	29604	
3978	0	29581	
3979	0	29600	
3980	0	29564	
3981	0	29520	
3982	0	29488	
3983	0	29432	
3984	0	29376	
3985	0	29248	
3986	0	29124	
3987	0	29060	
3988	0	29016	
3989	0	28948	
3990	0	28904	
3991	0	28904	
3992	0	28840	
3993	0	28740	
3994	0	28670	
3995	0	28608	
3996	0	28580	
3997	0	28468	
3998	0	28500	
3999	0	28528	
4000	0	28532	
4001	0	28540	
4002	0	28536	
4003	0	28514	
4004	0	28512	
4005	0	28524	
4006	0	28596	
4007	0	28656	
4008	0	28684	
4009	0	28728	
4010	0	28782	
4011	0	28832	
4012	0	28860	
4013	0	28944	
4014	0	29012	
4015	0	29016	
4016	0	29028	
4017	0	29040	
4018	0	29044	
4019	0	29028	
4020	0	29096	
4021	0	29194	
4022	0	29224	
4023	0	29178	
4024	0	29176	
4025	0	29208	
4026	0	29184	
4027	0	29140	
4028	0	29152	
4029	0	29256	
4030	0	29424	
4031	0	29560	
4032	0	29552	
4033	0	29558	
4034	0	29652	
4035	0	29668	
4036	0	29692	
4037	0	29776	
4038	0	29812	
4039	0	29832	
4040	0	29854	
4041	0	29888	
4042	0	29940	
4043	0	30016	
4044	0	30080	
4045	0	30120	
4046	0	30140	
4047	0	30160	
4048	0	30212	
4049	0	30316	
4050	0	30392	
4051	0	30432	
4052	0	30444	
4053	0	30448	
4054	0	30456	
4055	0	30464	
4056	0	30440	
4057	0	30466	
4058	0	30498	
4059	0	30552	
4060	0	30572	
4061	0	30556	
4062	0	30572	
4063	0	30640	
4064	0	30728	
4065	0	30768	
4066	0	30780	
4067	0	30792	
4068	0	30836	
4069	0	30876	
4070	0	30936	
4071	0	31016	
4072	0	31088	
4073	0	31112	
4074	0	31116	
4075	0	31138	
4076	0	31190	
4077	0	31240	
4078	0	31272	
4079	0	31308	
4080	0	31344	
4081	0	31384	
4082	0	31408	
4083	0	31484	
4084	0	31564	
4085	0	31632	
4086	0	31688	
4087	0	31724	
4088	0	31760	
4089	0	31776	
4090	0	31808	
4091	0	31864	
4092	0	31912	
4093	0	31972	
4094	0	32024	
4095	0	32000	
4096	0	31968	
4097	0	31984	
4098	0	32024	
4099	0	32088	
4100	0	32148	
4101	0	32180	
4102	0	32164	
4103	0	32200	
4104	0	32268	
4105	0	32312	
4106	0	32372	
4107	0	32436	
4108	0	32508	
4109	0	32528	
4110	0	32552	
4111	0	32604	
4112	0	32604	
4113	0	32644	
4114	0	32696	
4115	0	32772	
4116	0	32836	
4117	0	32856	
4118	0	32896	
4119	0	32924	
4120	0	32892	
4121	0	32876	
4122	0	32960	
4123	0	33152	
4124	0	33296	
4125	0	33360	
4126	0	33412	
4127	0	33424	
4128	0	33436	
4129	0	33490	
4130	0	33576	
4131	0	33624	
4132	0	33664	
4133	0	33656	
4134	0	33704	
4135	0	33740	
4136	0	33788	
4137	0	33872	
4138	0	33904	
4139	0	33948	
4140	0	34008	
4141	0	34012	
4142	0	34024	
4143	0	34096	
4144	0	34184	
4145	0	34272	
4146	0	34328	
4147	0	34360	
4148	0	34414	
4149	0	34444	
4150	0	34480	
4151	0	34484	
4152	0	34500	
4153	0	34528	
4154	0	34576	
4155	0	34584	
4156	0	34592	
4157	0	34668	
4158	0	34776	
4159	0	34816	
4160	0	34830	
4161	0	34864	
4162	0	34912	
4163	0	35012	
4164	0	35136	
4165	0	35220	
4166	0	35200	
4167	0	35168	
4168	0	35160	
4169	0	35168	
4170	0	35172	
4171	0	35192	
4172	0	35228	
4173	0	35252	
4174	0	35288	
4175	0	35354	
4176	0	35392	
4177	0	35372	
4178	0	35392	
4179	0	35472	
4180	0	35504	
4181	0	35444	
4182	0	35360	
4183	0	35332	
4184	0	35354	
4185	0	35450	
4186	0	35544	
4187	0	35604	
4188	0	35616	
4189	0	35604	
4190	0	35552	
4191	0	35528	
4192	0	35516	
4193	0	35512	
4194	0	35524	
4195	0	35524	
4196	0	35440	
4197	0	35344	
4198	0	35232	
4199	0	35204	
4200	0	35136	
4201	0	35088	
4202	0	35004	
4203	0	34916	
4204	0	34840	
4205	0	34778	
4206	0	34664	
4207	0	34600	
4208	0	34544	
4209	0	34400	
4210	0	34188	
4211	0	34024	
4212	0	33924	
4213	0	33848	
4214	0	33752	
4215	0	33676	
4216	0	33584	
4217	0	33492	
4218	0	33344	
4219	0	33216	
4220	0	33124	
4221	0	33020	
4222	0	32928	
4223	0	32844	
4224	0	32782	
4225	0	32712	
4226	0	32622	
4227	0	32512	
4228	0	32432	
4229	0	32320	
4230	0	32208	
4231	0	32076	
4232	0	32004	
4233	0	31956	
4234	0	31852	
4235	0	31796	
4236	0	31760	
4237	0	31714	
4238	0	31668	
4239	0	31632	
4240	0	31576	
4241	0	31492	
4242	0	31396	
4243	0	31324	
4244	0	31324	
4245	0	31320	
4246	0	31348	
4247	0	31344	
4248	0	31304	
4249	0	31264	
4250	0	31200	
4251	0	31148	
4252	0	31140	
4253	0	31164	
4254	0	31152	
4255	0	31156	
4256	0	31156	
4257	0	31148	
4258	0	31162	
4259	0	31176	
4260	0	31116	
4261	0	31072	
4262	0	31080	
4263	0	31080	
4264	0	31092	
4265	0	31124	
4266	0	31162	
4267	0	31192	
4268	0	31212	
4269	0	31220	
4270	0	31236	
4271	0	31252	
4272	0	31252	
4273	0	31256	
4274	0	31290	
4275	0	31320	
4276	0	31356	
4277	0	31360	
4278	0	31384	
4279	0	31412	
4280	0	31412	
4281	0	31428	
4282	0	31420	
4283	0	31452	
4284	0	31516	
4285	0	31524	
4286	0	31512	
4287	0	31572	
4288	0	31640	
4289	0	31696	
4290	0	31748	
4291	0	31746	
4292	0	31716	
4293	0	31692	
4294	0	31736	
4295	0	31752	
4296	0	31736	
4297	0	31744	
4298	0	31720	
4299	0	31740	
4300	0	31792	
4301	0	31832	
4302	0	31836	
4303	0	31864	
4304	0	31888	
4305	0	31924	
4306	0	31952	
4307	0	31960	
4308	0	31968	
4309	0	31972	
4310	0	32020	
4311	0	32084	
4312	0	32110	
4313	0	32144	
4314	0	32140	
4315	0	32072	
4316	0	32040	
4317	0	32052	
4318	0	32072	
4319	0	32092	
4320	0	32112	
4321	0	32112	
4322	0	32132	
4323	0	32160	
4324	0	32136	
4325	0	32124	
4326	0	32136	
4327	0	32132	
4328	0	32116	
4329	0	32088	
4330	0	32080	
4331	0	32068	
4332	0	32058	
4333	0	32088	
4334	0	32112	
4335	0	32132	
4336	0	32156	
4337	0	32160	
4338	0	32218	
4339	0	32244	
4340	0	32216	
4341	0	32228	
4342	0	32260	
4343	0	32304	
4344	0	32320	
4345	0	32304	
4346	0	32336	
4347	0	32360	
4348	0	32384	
4349	0	32388	
4350	0	32362	
4351	0	32388	
4352	0	32404	
4353	0	32372	
4354	0	32356	
4355	0	32300	
4356	0	32264	
4357	0	32276	
4358	0	32280	
4359	0	32272	
4360	0	32304	
4361	0	32344	
4362	0	32396	
4363	0	32444	
4364	0	32472	
4365	0	32520	
4366	0	32540	
4367	0	32608	
4368	0	32704	
4369	0	32840	
4370	0	32976	
4371	0	33160	
4372	0	33328	
4373	0	33424	
4374	0	33508	
4375	0	33616	
4376	0	33676	
4377	0	33684	
4378	0	33704	
4379	0	33698	
4380	0	33728	
4381	0	33796	
4382	0	33892	
4383	0	33988	
4384	0	34060	
4385	0	34136	
4386	0	34264	
4387	0	34424	
4388	0	34504	
4389	0	34540	
4390	0	34600	
4391	0	34656	
4392	0	34752	
4393	0	34880	
4394	0	35004	
4395	0	35176	
4396	0	35354	
4397	0	35444	
4398	0	35436	
4399	0	35434	
4400	0	35424	
4401	0	35384	
4402	0	35322	
4403	0	35272	
4404	0	35244	
4405	0	35184	
4406	0	35128	
4407	0	35104	
4408	0	35136	
4409	0	35178	
4410	0	35180	
4411	0	35112	
4412	0	35044	
4413	0	34984	
4414	0	34862	
4415	0	34676	
4416	0	34444	
4417	0	34248	
4418	0	34094	
4419	0	33920	
4420	0	33732	
4421	0	33624	
4422	0	33560	
4423	0	33468	
4424	0	33428	
4425	0	33444	
4426	0	33452	
4427	0	33392	
4428	0	33304	
4429	0	33252	
4430	0	33224	
4431	0	33188	
4432	0	33084	
4433	0	32952	
4434	0	32846	
4435	0	32748	
4436	0	32640	
4437	0	32498	
4438	0	32368	
4439	0	32290	
4440	0	32236	
4441	0	32184	
4442	0	32148	
4443	0	32068	
4444	0	31976	
4445	0	31880	
4446	0	31770	
4447	0	31720	
4448	0	31636	
4449	0	31532	
4450	0	31460	
4451	0	31372	
4452	0	31292	
4453	0	31272	
4454	0	31248	
4455	0	31240	
4456	0	31188	
4457	0	31136	
4458	0	31124	
4459	0	31136	
4460	0	31132	
4461	0	31160	
4462	0	31228	
4463	0	31296	
4464	0	31332	
4465	0	31336	
4466	0	31322	
4467	0	31312	
4468	0	31290	
4469	0	31264	
4470	0	31256	
4471	0	31248	
4472	0	31264	
4473	0	31264	
4474	0	31240	
4475	0	31204	
4476	0	31200	
4477	0	31204	
4478	0	31236	
4479	0	31288	
4480	0	31332	
4481	0	31364	
4482	0	31372	
4483	0	31348	
4484	0	31314	
4485	0	31344	
4486	0	31380	
4487	0	31420	
4488	0	31472	
4489	0	31544	
4490	0	31592	
4491	0	31620	
4492	0	31688	
4493	0	31684	
4494	0	31648	
4495	0	31636	
4496	0	31588	
4497	0	31620	
4498	0	31600	
4499	0	31560	
4500	0	31496	
4501	0	31388	
4502	0	31306	
4503	0	31176	
4504	0	31000	
4505	0	30688	
4506	0	30394	
4507	0	30188	
4508	0	30152	
4509	0	30176	
4510	0	30252	
4511	0	30380	
4512	0	30636	
4513	0	31088	
4514	0	31644	
4515	0	32320	
4516	0	33168	
4517	0	34160	
4518	0	35284	
4519	0	36680	
4520	0	38264	
4521	0	39948	
4522	0	41700	
4523	0	43508	
4524	0	45356	
4525	0	47232	
4526	0	49224	
4527	0	51200	
4528	0	53044	
4529	0	54696	
4530	0	56164	
4531	0	57660	
4532	0	59096	
4533	0	60356	
4534	0	61300	
4535	0	61920	
4536	0	62224	
4537	0	62068	
4538	0	61096	
4539	0	59328	
4540	0	56760	
4541	0	53576	
4542	0	50380	
4543	0	47204	
4544	0	43768	
4545	0	40000	
4546	0	36432	
4547	0	33612	
4548	0	31508	
4549	0	30000	
4550	0	29040	
4551	0	28520	
4552	0	28188	
4553	0	27892	
4554	0	27690	
4555	0	27780	
4556	0	28060	
4557	0	28332	
4558	0	28596	
4559	0	28896	
4560	0	29152	
4561	0	29308	
4562	0	29356	
4563	0	29438	
4564	0	29500	
4565	0	29540	
4566	0	29564	
4567	0	29564	
4568	0	29520	
4569	0	29424	
4570	0	29360	
4571	0	29284	
4572	0	29168	
4573	0	29052	
4574	0	28948	
4575	0	28864	
4576	0	28856	
4577	0	28868	
4578	0	28834	
4579	0	28844	
4580	0	28832	
4581	0	28804	
4582	0	28784	
4583	0	28792	
4584	0	28824	
4585	0	28896	
4586	0	28924	
4587	0	28912	
4588	0	28868	
4589	0	28876	
4590	0	28916	
4591	0	28972	
4592	0	28988	
4593	0	28968	
4594	0	29000	
4595	0	29056	
4596	0	29058	
4597	0	29088	
4598	0	29076	
4599	0	29084	
4600	0	29136	
4601	0	29160	
4602	0	29160	
4603	0	29216	
4604	0	29276	
4605	0	29372	
4606	0	29392	
4607	0	29408	
4608	0	29452	
4609	0	29536	
4610	0	29616	
4611	0	29658	
4612	0	29692	
4613	0	29748	
4614	0	29788	
4615	0	29864	
4616	0	29900	
4617	0	29890	
4618	0	29836	
4619	0	29872	
4620	0	29900	
4621	0	29880	
4622	0	29948	
4623	0	30064	
4624	0	30088	
4625	0	30112	
4626	0	30096	
4627	0	30152	
4628	0	30256	
4629	0	30312	
4630	0	30336	
4631	0	30340	
4632	0	30372	
4633	0	30454	
4634	0	30554	
4635	0	30608	
4636	0	30652	
4637	0	30688	
4638	0	30704	
4639	0	30662	
4640	0	30632	
4641	0	30632	
4642	0	30664	
4643	0	30740	
4644	0	30836	
4645	0	30892	
4646	0	30936	
4647	0	30960	
4648	0	30992	
4649	0	31024	
4650	0	31032	
4651	0	31064	
4652	0	31100	
4653	0	31116	
4654	0	31128	
4655	0	31128	
4656	0	31152	
4657	0	31200	
4658	0	31272	
4659	0	31344	
4660	0	31316	
4661	0	31288	
4662	0	31320	
4663	0	31296	
4664	0	31300	
4665	0	31328	
4666	0	31448	
4667	0	31508	
4668	0	31520	
4669	0	31580	
4670	0	31616	
4671	0	31596	
4672	0	31596	
4673	0	31668	
4674	0	31736	
4675	0	31740	
4676	0	31728	
4677	0	31772	
4678	0	31868	
4679	0	31956	
4680	0	31984	
4681	0	32032	
4682	0	32036	
4683	0	32042	
4684	0	32064	
4685	0	32094	
4686	0	32140	
4687	0	32200	
4688	0	32236	
4689	0	32312	
4690	0	32344	
4691	0	32336	
4692	0	32336	
4693	0	32346	
4694	0	32380	
4695	0	32404	
4696	0	32476	
4697	0	32516	
4698	0	32552	
4699	0	32560	
4700	0	32556	
4701	0	32612	
4702	0	32628	
4703	0	32696	
4704	0	32772	
4705	0	32836	
4706	0	32888	
4707	0	32900	
4708	0	32920	
4709	0	32930	
4710	0	32986	
4711	0	33060	
4712	0	33132	
4713	0	33244	
4714	0	33332	
4715	0	33376	
4716	0	33376	
4717	0	33440	
4718	0	33496	
4719	0	33536	
4720	0	33496	
4721	0	33488	
4722	0	33504	
4723	0	33560	
4724	0	33652	
4725	0	33736	
4726	0	33912	
4727	0	33920	
4728	0	33880	
4729	0	33812	
4730	0	33804	
4731	0	33896	
4732	0	33992	
4733	0	34030	
4734	0	34072	
4735	0	34112	
4736	0	34176	
4737	0	34236	
4738	0	34252	
4739	0	34280	
4740	0	34286	
4741	0	34248	
4742	0	34288	
4743	0	34396	
4744	0	34460	
4745	0	34444	
4746	0	34404	
4747	0	34400	
4748	0	34492	
4749	0	34634	
4750	0	34728	
4751	0	34776	
4752	0	34848	
4753	0	34836	
4754	0	34836	
4755	0	34832	
4756	0	34780	
4757	0	34752	
4758	0	34804	
4759	0	34880	
4760	0	34908	
4761	0	34944	
4762	0	34992	
4763	0	35016	
4764	0	35066	
4765	0	35116	
4766	0	35162	
4767	0	35162	
4768	0	35152	
4769	0	35216	
4770	0	35268	
4771	0	35280	
4772	0	35288	
4773	0	35280	
4774	0	35176	
4775	0	35100	
4776	0	35088	
4777	0	35036	
4778	0	34924	
4779	0	34876	
4780	0	34890	
4781	0	34836	
4782	0	34750	
4783	0	34708	
4784	0	34680	
4785	0	34592	
4786	0	34474	
4787	0	34356	
4788	0	34296	
4789	0	34236	
4790	0	34156	
4791	0	34032	
4792	0	33930	
4793	0	33844	
4794	0	33708	
4795	0	33562	
4796	0	33392	
4797	0	33292	
4798	0	33178	
4799	0	33068	
4800	0	32938	
4801	0	32808	
4802	0	32692	
4803	0	32644	
4804	0	32576	
4805	0	32464	
4806	0	32352	
4807	0	32262	
4808	0	32224	
4809	0	32144	
4810	0	32020	
4811	0	31844	
4812	0	31680	
4813	0	31552	
4814	0	31432	
4815	0	31312	
4816	0	31252	
4817	0	31242	
4818	0	31172	
4819	0	31052	
4820	0	30932	
4821	0	30880	
4822	0	30780	
4823	0	30688	
4824	0	30668	
4825	0	30672	
4826	0	30576	
4827	0	30524	
4828	0	30468	
4829	0	30428	
4830	0	30444	
4831	0	30488	
4832	0	30496	
4833	0	30428	
4834	0	30364	
4835	0	30388	
4836	0	30348	
4837	0	30292	
4838	0	30328	
4839	0	30348	
4840	0	30372	
4841	0	30408	
4842	0	30418	
4843	0	30356	
4844	0	30350	
4845	0	30380	
4846	0	30382	
4847	0	30332	
4848	0	30266	
4849	0	30206	
4850	0	30220	
4851	0	30232	
4852	0	30292	
4853	0	30368	
4854	0	30452	
4855	0	30544	
4856	0	30544	
4857	0	30490	
4858	0	30400	
4859	0	30356	
4860	0	30348	
4861	0	30368	
4862	0	30432	
4863	0	30472	
4864	0	30452	
4865	0	30496	
4866	0	30524	
4867	0	30516	
4868	0	30508	
4869	0	30580	
4870	0	30672	
4871	0	30700	
4872	0	30664	
4873	0	30632	
4874	0	30708	
4875	0	30756	
4876	0	30768	
4877	0	30768	
4878	0	30817	
4879	0	30918	
4880	0	30972	
4881	0	31036	
4882	0	31084	
4883	0	31104	
4884	0	31128	
4885	0	31096	
4886	0	31080	
4887	0	31082	
4888	0	31084	
4889	0	31120	
4890	0	31160	
4891	0	31180	
4892	0	31220	
4893	0	31232	
4894	0	31232	
4895	0	31268	
4896	0	31300	
4897	0	31300	
4898	0	31390	
4899	0	31508	
4900	0	31532	
4901	0	31488	
4902	0	31448	
4903	0	31436	
4904	0	31456	
4905	0	31472	
4906	0	31460	
4907	0	31464	
4908	0	31500	
4909	0	31522	
4910	0	31576	
4911	0	31556	
4912	0	31540	
4913	0	31520	
4914	0	31564	
4915	0	31604	
4916	0	31520	
4917	0	31516	
4918	0	31520	
4919	0	31512	
4920	0	31492	
4921	0	31500	
4922	0	31544	
4923	0	31606	
4924	0	31588	
4925	0	31576	
4926	0	31652	
4927	0	31692	
4928	0	31712	
4929	0	31704	
4930	0	31756	
4931	0	31782	
4932	0	31712	
4933	0	31720	
4934	0	31718	
4935	0	31692	
4936	0	31672	
4937	0	31756	
4938	0	31788	
4939	0	31865	
4940	0	31980	
4941	0	32064	
4942	0	32124	
4943	0	32256	
4944	0	32432	
4945	0	32632	
4946	0	32788	
4947	0	32832	
4948	0	32884	
4949	0	32960	
4950	0	33016	
4951	0	33004	
4952	0	32966	
4953	0	32932	
4954	0	32984	
4955	0	33102	
4956	0	33204	
4957	0	33340	
4958	0	33408	
4959	0	33512	
4960	0	33640	
4961	0	33724	
4962	0	33810	
4963	0	33900	
4964	0	33968	
4965	0	34088	
4966	0	34192	
4967	0	34330	
4968	0	34448	
4969	0	34592	
4970	0	34784	
4971	0	34924	
4972	0	34976	
4973	0	35068	
4974	0	35046	
4975	0	34920	
4976	0	34816	
4977	0	34696	
4978	0	34624	
4979	0	34616	
4980	0	34572	
4981	0	34588	
4982	0	34628	
4983	0	34608	
4984	0	34604	
4985	0	34536	
4986	0	34532	
4987	0	34564	
4988	0	34440	
4989	0	34232	
4990	0	34108	
4991	0	34066	
4992	0	33888	
4993	0	33632	
4994	0	33408	
4995	0	33252	
4996	0	33212	
4997	0	33156	
4998	0	33072	
4999	0	32996	
5000	0	32940	
5001	0	32940	
5002	0	32888	
5003	0	32804	
5004	0	32684	
5005	0	32656	
5006	0	32592	
5007	0	32592	
5008	0	32552	
5009	0	32484	
5010	0	32308	
5011	0	32180	
5012	0	32100	
5013	0	32044	
5014	0	31992	
5015	0	31976	
5016	0	31924	
5017	0	31804	
5018	0	31688	
5019	0	31568	
5020	0	31460	
5021	0	31388	
5022	0	31360	
5023	0	31328	
5024	0	31204	
5025	0	31032	
5026	0	30892	
5027	0	30860	
5028	0	30878	
5029	0	30762	
5030	0	30656	
5031	0	30692	
5032	0	30804	
5033	0	30854	
5034	0	30824	
5035	0	30848	
5036	0	30896	
5037	0	30924	
5038	0	30906	
5039	0	30916	
5040	0	30944	
5041	0	30926	
5042	0	30920	
5043	0	30928	
5044	0	30990	
5045	0	31032	
5046	0	30924	
5047	0	30904	
5048	0	30968	
5049	0	31052	
5050	0	31044	
5051	0	30988	
5052	0	31040	
5053	0	31032	
5054	0	30980	
5055	0	31032	
5056	0	31104	
5057	0	31152	
5058	0	31140	
5059	0	31072	
5060	0	31044	
5061	0	31012	
5062	0	30912	
5063	0	30912	
5064	0	31004	
5065	0	31144	
5066	0	31194	
5067	0	31160	
5068	0	31232	
5069	0	31344	
5070	0	31428	
5071	0	31448	
5072	0	31508	
5073	0	31482	
5074	0	31420	
5075	0	31228	
5076	0	31112	
5077	0	31044	
5078	0	30824	
5079	0	30620	
5080	0	30296	
5081	0	30018	
5082	0	29816	
5083	0	29720	
5084	0	29680	
5085	0	29740	
5086	0	29912	
5087	0	30180	
5088	0	30618	
5089	0	31204	
5090	0	31928	
5091	0	32796	
5092	0	33824	
5093	0	34996	
5094	0	36400	
5095	0	37984	
5096	0	39772	
5097	0	41680	
5098	0	43642	
5099	0	45600	
5100	0	47584	
5101	0	49580	
5102	0	51484	
5103	0	53252	
5104	0	54816	
5105	0	56272	
5106	0	57708	
5107	0	59024	
5108	0	60344	
5109	0	61532	
5110	0	62468	
5111	0	63124	
5112	0	63064	
5113	0	62184	
5114	0	60592	
5115	0	58184	
5116	0	55000	
5117	0	51600	
5118	0	48188	
5119	0	44552	
5120	0	40616	
5121	0	36592	
5122	0	33120	
5123	0	30524	
5124	0	28736	
5125	0	27706	
5126	0	27240	
5127	0	27100	
5128	0	27032	
5129	0	26968	
5130	0	26952	
5131	0	27004	
5132	0	27212	
5133	0	27568	
5134	0	27936	
5135	0	28232	
5136	0	28512	
5137	0	28642	
5138	0	28776	
5139	0	28984	
5140	0	29132	
5141	0	29236	
5142	0	29344	
5143	0	29328	
5144	0	29272	
5145	0	29152	
5146	0	29100	
5147	0	29048	
5148	0	29000	
5149	0	28964	
5150	0	28952	
5151	0	28960	
5152	0	28958	
5153	0	28912	
5154	0	28932	
5155	0	28928	
5156	0	28812	
5157	0	28760	
5158	0	28716	
5159	0	28708	
5160	0	28712	
5161	0	28708	
5162	0	28720	
5163	0	28764	
5164	0	28780	
5165	0	28836	
5166	0	28900	
5167	0	28920	
5168	0	28952	
5169	0	28990	
5170	0	29000	
5171	0	29032	
5172	0	29072	
5173	0	29120	
5174	0	29212	
5175	0	29228	
5176	0	29176	
5177	0	29200	
5178	0	29288	
5179	0	29312	
5180	0	29344	
5181	0	29400	
5182	0	29432	
5183	0	29388	
5184	0	29400	
5185	0	29460	
5186	0	29548	
5187	0	29608	
5188	0	29648	
5189	0	29712	
5190	0	29800	
5191	0	29860	
5192	0	29920	
5193	0	29988	
5194	0	30022	
5195	0	30040	
5196	0	30012	
5197	0	30068	
5198	0	30050	
5199	0	30044	
5200	0	30032	
5201	0	30054	
5202	0	30176	
5203	0	30244	
5204	0	30260	
5205	0	30244	
5206	0	30228	
5207	0	30244	
5208	0	30292	
5209	0	30412	
5210	0	30520	
5211	0	30524	
5212	0	30506	
5213	0	30544	
5214	0	30616	
5215	0	30664	
5216	0	30640	
5217	0	30706	
5218	0	30772	
5219	0	30836	
5220	0	30920	
5221	0	30984	
5222	0	30952	
5223	0	30986	
5224	0	31028	
5225	0	31148	
5226	0	31256	
5227	0	31300	
5228	0	31336	
5229	0	31340	
5230	0	31380	
5231	0	31320	
5232	0	31304	
5233	0	31256	
5234	0	31228	
5235	0	31280	
5236	0	31384	
5237	0	31464	
5238	0	31560	
5239	0	31604	
5240	0	31660	
5241	0	31696	
5242	0	31720	
5243	0	31680	
5244	0	31668	
5245	0	31720	
5246	0	31816	
5247	0	31880	
5248	0	31944	
5249	0	31896	
5250	0	31836	
5251	0	31902	
5252	0	31992	
5253	0	32044	
5254	0	32104	
5255	0	32164	
5256	0	32160	
5257	0	32128	
5258	0	32142	
5259	0	32208	
5260	0	32280	
5261	0	32290	
5262	0	32320	
5263	0	32332	
5264	0	32448	
5265	0	32568	
5266	0	32636	
5267	0	32660	
5268	0	32612	
5269	0	32576	
5270	0	32664	
5271	0	32728	
5272	0	32772	
5273	0	32808	
5274	0	32856	
5275	0	32908	
5276	0	32964	
5277	0	33000	
5278	0	33022	
5279	0	33044	
5280	0	33088	
5281	0	33178	
5282	0	33276	
5283	0	33368	
5284	0	33460	
5285	0	33440	
5286	0	33468	
5287	0	33540	
5288	0	33564	
5289	0	33568	
5290	0	33584	
5291	0	33608	
5292	0	33636	
5293	0	33692	
5294	0	33736	
5295	0	33856	
5296	0	33848	
5297	0	33760	
5298	0	33784	
5299	0	33834	
5300	0	33928	
5301	0	33984	
5302	0	34032	
5303	0	34124	
5304	0	34164	
5305	0	34288	
5306	0	34356	
5307	0	34416	
5308	0	34396	
5309	0	34480	
5310	0	34612	
5311	0	34620	
5312	0	34576	
5313	0	34568	
5314	0	34618	
5315	0	34580	
5316	0	34556	
5317	0	34572	
5318	0	34624	
5319	0	34656	
5320	0	34724	
5321	0	34744	
5322	0	34852	
5323	0	34872	
5324	0	34864	
5325	0	34816	
5326	0	34764	
5327	0	34824	
5328	0	34944	
5329	0	35032	
5330	0	34972	
5331	0	35064	
5332	0	35228	
5333	0	35282	
5334	0	35304	
5335	0	35306	
5336	0	35384	
5337	0	35474	
5338	0	35432	
5339	0	35386	
5340	0	35318	
5341	0	35328	
5342	0	35312	
5343	0	35424	
5344	0	35472	
5345	0	35432	
5346	0	35514	
5347	0	35540	
5348	0	35464	
5349	0	35416	
5350	0	35380	
5351	0	35308	
5352	0	35304	
5353	0	35396	
5354	0	35324	
5355	0	35208	
5356	0	35124	
5357	0	35000	
5358	0	34852	
5359	0	34800	
5360	0	34708	
5361	0	34656	
5362	0	34456	
5363	0	34284	
5364	0	34236	
5365	0	34236	
5366	0	34112	
5367	0	33904	
5368	0	33844	
5369	0	33712	
5370	0	33648	
5371	0	33492	
5372	0	33300	
5373	0	33156	
5374	0	33056	
5375	0	32988	
5376	0	32926	
5377	0	32832	
5378	0	32716	
5379	0	32612	
5380	0	32496	
5381	0	32288	
5382	0	32152	
5383	0	32096	
5384	0	31992	
5385	0	31902	
5386	0	31856	
5387	0	31800	
5388	0	31768	
5389	0	31660	
5390	0	31548	
5391	0	31400	
5392	0	31226	
5393	0	31102	
5394	0	30938	
5395	0	30798	
5396	0	30746	
5397	0	30778	
5398	0	30812	
5399	0	30792	
5400	0	30750	
5401	0	30704	
5402	0	30672	
5403	0	30632	
5404	0	30636	
5405	0	30664	
5406	0	30640	
5407	0	30616	
5408	0	30564	
5409	0	30544	
5410	0	30536	
5411	0	30492	
5412	0	30472	
5413	0	30508	
5414	0	30514	
5415	0	30484	
5416	0	30416	
5417	0	30448	
5418	0	30440	
5419	0	30440	
5420	0	30496	
5421	0	30448	
5422	0	30364	
5423	0	30352	
5424	0	30348	
5425	0	30348	
5426	0	30300	
5427	0	30304	
5428	0	30348	
5429	0	30380	
5430	0	30424	
5431	0	30444	
5432	0	30508	
5433	0	30492	
5434	0	30512	
5435	0	30628	
5436	0	30672	
5437	0	30668	
5438	0	30732	
5439	0	30792	
5440	0	30812	
5441	0	30816	
5442	0	30782	
5443	0	30772	
5444	0	30748	
5445	0	30764	
5446	0	30828	
5447	0	30852	
5448	0	30880	
5449	0	30872	
5450	0	30892	
5451	0	30940	
5452	0	31048	
5453	0	31068	
5454	0	31104	
5455	0	31136	
5456	0	31084	
5457	0	31008	
5458	0	31000	
5459	0	31052	
5460	0	31064	
5461	0	31048	
5462	0	31136	
5463	0	31140	
5464	0	31132	
5465	0	31096	
5466	0	31088	
5467	0	31140	
5468	0	31184	
5469	0	31244	
5470	0	31360	
5471	0	31434	
5472	0	31388	
5473	0	31328	
5474	0	31361	
5475	0	31468	
5476	0	31524	
5477	0	31528	
5478	0	31476	
5479	0	31480	
5480	0	31492	
5481	0	31488	
5482	0	31520	
5483	0	31526	
5484	0	31416	
5485	0	31348	
5486	0	31364	
5487	0	31448	
5488	0	31520	
5489	0	31500	
5490	0	31564	
5491	0	31604	
5492	0	31634	
5493	0	31672	
5494	0	31644	
5495	0	31568	
5496	0	31520	
5497	0	31536	
5498	0	31584	
5499	0	31572	
5500	0	31628	
5501	0	31688	
5502	0	31784	
5503	0	31872	
5504	0	31904	
5505	0	31892	
5506	0	32056	
5507	0	32208	
5508	0	32296	
5509	0	32450	
5510	0	32624	
5511	0	32788	
5512	0	32872	
5513	0	32892	
5514	0	32970	
5515	0	32972	
5516	0	33044	
5517	0	33120	
5518	0	33074	
5519	0	33092	
5520	0	33080	
5521	0	33208	
5522	0	33376	
5523	0	33452	
5524	0	33440	
5525	0	33492	
5526	0	33484	
5527	0	33525	
5528	0	33712	
5529	0	33836	
5530	0	33952	
5531	0	34024	
5532	0	34140	
5533	0	34232	
5534	0	34360	
5535	0	34592	
5536	0	34812	
5537	0	34896	
5538	0	34956	
5539	0	34976	
5540	0	34912	
5541	0	34848	
5542	0	34850	
5543	0	34836	
5544	0	34752	
5545	0	34708	
5546	0	34670	
5547	0	34628	
5548	0	34672	
5549	0	34762	
5550	0	34748	
5551	0	34656	
5552	0	34548	
5553	0	34504	
5554	0	34392	
5555	0	34208	
5556	0	33920	
5557	0	33650	
5558	0	33504	
5559	0	33276	
5560	0	33040	
5561	0	32908	
5562	0	32892	
5563	0	32872	
5564	0	32848	
5565	0	32842	
5566	0	32910	
5567	0	32944	
5568	0	32980	
5569	0	32904	
5570	0	32880	
5571	0	32804	
5572	0	32744	
5573	0	32708	
5574	0	32672	
5575	0	32608	
5576	0	32474	
5577	0	32348	
5578	0	32216	
5579	0	32056	
5580	0	32076	
5581	0	32080	
5582	0	31908	
5583	0	31712	
5584	0	31524	
5585	0	31398	
5586	0	31408	
5587	0	31316	
5588	0	31188	
5589	0	31084	
5590	0	31012	
5591	0	30880	
5592	0	30760	
5593	0	30660	
5594	0	30620	
5595	0	30612	
5596	0	30600	
5597	0	30712	
5598	0	30840	
5599	0	30892	
5600	0	30908	
5601	0	30880	
5602	0	30756	
5603	0	30752	
5604	0	30748	
5605	0	30718	
5606	0	30734	
5607	0	30712	
5608	0	30712	
5609	0	30648	
5610	0	30716	
5611	0	30852	
5612	0	30940	
5613	0	30940	
5614	0	30840	
5615	0	30820	
5616	0	30892	
5617	0	30892	
5618	0	30964	
5619	0	30912	
5620	0	30876	
5621	0	30932	
5622	0	31016	
5623	0	30940	
5624	0	30888	
5625	0	30976	
5626	0	30944	
5627	0	30944	
5628	0	31112	
5629	0	31120	
5630	0	31080	
5631	0	31112	
5632	0	31224	
5633	0	31224	
5634	0	31232	
5635	0	31212	
5636	0	31216	
5637	0	31324	
5638	0	31348	
5639	0	31342	
5640	0	31424	
5641	0	31416	
5642	0	31260	
5643	0	31136	
5644	0	30956	
5645	0	30664	
5646	0	30384	
5647	0	30082	
5648	0	29876	
5649	0	29704	
5650	0	29600	
5651	0	29672	
5652	0	29804	
5653	0	29936	
5654	0	30296	
5655	0	30884	
5656	0	31588	
5657	0	32464	
5658	0	33516	
5659	0	34816	
5660	0	36128	
5661	0	37752	
5662	0	39572	
5663	0	41528	
5664	0	43424	
5665	0	45328	
5666	0	47240	
5667	0	49204	
5668	0	51200	
5669	0	53048	
5670	0	54648	
5671	0	56168	
5672	0	57628	
5673	0	59008	
5674	0	60368	
5675	0	61764	
5676	0	62864	
5677	0	63656	
5678	0	64032	
5679	0	63728	
5680	0	62576	
5681	0	60632	
5682	0	57812	
5683	0	54376	
5684	0	50884	
5685	0	47312	
5686	0	43412	
5687	0	39156	
5688	0	35130	
5689	0	31952	
5690	0	29688	
5691	0	28136	
5692	0	27240	
5693	0	26810	
5694	0	26724	
5695	0	26676	
5696	0	26632	
5697	0	26676	
5698	0	26824	
5699	0	27020	
5700	0	27380	
5701	0	27744	
5702	0	28033	
5703	0	28346	
5704	0	28596	
5705	0	28824	
5706	0	28920	
5707	0	28956	
5708	0	29068	
5709	0	29104	
5710	0	29136	
5711	0	29074	
5712	0	29060	
5713	0	29012	
5714	0	28940	
5715	0	28848	
5716	0	28698	
5717	0	28556	
5718	0	28568	
5719	0	28532	
5720	0	28552	
5721	0	28680	
5722	0	28700	
5723	0	28704	
5724	0	28728	
5725	0	28720	
5726	0	28672	
5727	0	28664	
5728	0	28616	
5729	0	28624	
5730	0	28652	
5731	0	28696	
5732	0	28698	
5733	0	28656	
5734	0	28740	
5735	0	28792	
5736	0	28704	
5737	0	28784	
5738	0	28856	
5739	0	28796	
5740	0	28864	
5741	0	28896	
5742	0	29000	
5743	0	29080	
5744	0	29070	
5745	0	29056	
5746	0	29072	
5747	0	29172	
5748	0	29276	
5749	0	29304	
5750	0	29408	
5751	0	29460	
5752	0	29466	
5753	0	29440	
5754	0	29376	
5755	0	29488	
5756	0	29576	
5757	0	29592	
5758	0	29648	
5759	0	29722	
5760	0	29764	
5761	0	29900	
5762	0	29928	
5763	0	29826	
5764	0	29872	
5765	0	29988	
5766	0	30072	
5767	0	30072	
5768	0	30132	
5769	0	30156	
5770	0	30132	
5771	0	30156	
5772	0	30176	
5773	0	30240	
5774	0	30328	
5775	0	30428	
5776	0	30480	
5777	0	30524	
5778	0	30604	
5779	0	30628	
5780	0	30632	
5781	0	30684	
5782	0	30764	
5783	0	30814	
5784	0	30832	
5785	0	30864	
5786	0	30892	
5787	0	30904	
5788	0	30904	
5789	0	30940	
5790	0	31012	
5791	0	31012	
5792	0	30948	
5793	0	30920	
5794	0	30990	
5795	0	31068	
5796	0	31160	
5797	0	31252	
5798	0	31224	
5799	0	31224	
5800	0	31300	
5801	0	31348	
5802	0	31360	
5803	0	31436	
5804	0	31596	
5805	0	31712	
5806	0	31744	
5807	0	31796	
5808	0	31804	
5809	0	31794	
5810	0	31792	
5811	0	31834	
5812	0	31880	
5813	0	31904	
5814	0	31904	
5815	0	31980	
5816	0	31936	
5817	0	31864	
5818	0	31936	
5819	0	32024	
5820	0	32032	
5821	0	32024	
5822	0	32128	
5823	0	32188	
5824	0	32216	
5825	0	32320	
5826	0	32368	
5827	0	32368	
5828	0	32424	
5829	0	32488	
5830	0	32552	
5831	0	32608	
5832	0	32648	
5833	0	32692	
5834	0	32628	
5835	0	32660	
5836	0	32708	
5837	0	32776	
5838	0	32782	
5839	0	32736	
5840	0	32740	
5841	0	32848	
5842	0	32928	
5843	0	33024	
5844	0	33116	
5845	0	33152	
5846	0	33216	
5847	0	33304	
5848	0	33356	
5849	0	33406	
5850	0	33492	
5851	0	33490	
5852	0	33616	
5853	0	33724	
5854	0	33660	
5855	0	33640	
5856	0	33652	
5857	0	33700	
5858	0	33746	
5859	0	33824	
5860	0	33852	
5861	0	33860	
5862	0	33868	
5863	0	33884	
5864	0	33888	
5865	0	33944	
5866	0	33949	
5867	0	34020	
5868	0	34096	
5869	0	34140	
5870	0	34230	
5871	0	34344	
5872	0	34412	
5873	0	34452	
5874	0	34506	
5875	0	34656	
5876	0	34760	
5877	0	34828	
5878	0	34832	
5879	0	34772	
5880	0	34728	
5881	0	34744	
5882	0	34816	
5883	0	34880	
5884	0	35008	
5885	0	35112	
5886	0	35112	
5887	0	35084	
5888	0	35088	
5889	0	35160	
5890	0	35172	
5891	0	35166	
5892	0	35268	
5893	0	35336	
5894	0	35328	
5895	0	35252	
5896	0	35232	
5897	0	35332	
5898	0	35392	
5899	0	35308	
5900	0	35354	
5901	0	35404	
5902	0	35432	
5903	0	35536	
5904	0	35592	
5905	0	35552	
5906	0	35520	
5907	0	35516	
5908	0	35536	
5909	0	35544	
5910	0	35508	
5911	0	35520	
5912	0	35530	
5913	0	35472	
5914	0	35424	
5915	0	35428	
5916	0	35396	
5917	0	35340	
5918	0	35296	
5919	0	35284	
5920	0	35256	
5921	0	35200	
5922	0	35084	
5923	0	35040	
5924	0	35044	
5925	0	35008	
5926	0	34872	
5927	0	34664	
5928	0	34508	
5929	0	34398	
5930	0	34204	
5931	0	34096	
5932	0	33992	
5933	0	33904	
5934	0	33764	
5935	0	33600	
5936	0	33452	
5937	0	33344	
5938	0	33264	
5939	0	33180	
5940	0	33030	
5941	0	32892	
5942	0	32848	
5943	0	32728	
5944	0	32616	
5945	0	32480	
5946	0	32348	
5947	0	32224	
5948	0	32104	
5949	0	31996	
5950	0	31912	
5951	0	31800	
5952	0	31676	
5953	0	31540	
5954	0	31500	
5955	0	31464	
5956	0	31384	
5957	0	31272	
5958	0	31116	
5959	0	30964	
5960	0	30896	
5961	0	30832	
5962	0	30812	
5963	0	30828	
5964	0	30800	
5965	0	30792	
5966	0	30740	
5967	0	30672	
5968	0	30602	
5969	0	30616	
5970	0	30664	
5971	0	30660	
5972	0	30608	
5973	0	30520	
5974	0	30500	
5975	0	30500	
5976	0	30468	
5977	0	30456	
5978	0	30460	
5979	0	30376	
5980	0	30340	
5981	0	30340	
5982	0	30296	
5983	0	30300	
5984	0	30304	
5985	0	30320	
5986	0	30340	
5987	0	30340	
5988	0	30386	
5989	0	30378	
5990	0	30344	
5991	0	30304	
5992	0	30284	
5993	0	30304	
5994	0	30312	
5995	0	30328	
5996	0	30428	
5997	0	30508	
5998	0	30536	
5999	0	30588	
6000	0	30614	
6001	0	30600	
6002	0	30536	
6003	0	30520	
6004	0	30588	
6005	0	30624	
6006	0	30576	
6007	0	30628	
6008	0	30680	
6009	0	30696	
6010	0	30732	
6011	0	30770	
6012	0	30836	
6013	0	30866	
6014	0	30792	
6015	0	30796	
6016	0	30876	
6017	0	30933	
6018	0	30984	
6019	0	31004	
6020	0	31048	
6021	0	31096	
6022	0	31128	
6023	0	31136	
6024	0	31124	
6025	0	31152	
6026	0	31188	
6027	0	31184	
6028	0	31224	
6029	0	31320	
6030	0	31360	
6031	0	31392	
6032	0	31380	
6033	0	31416	
6034	0	31424	
6035	0	31412	
6036	0	31422	
6037	0	31444	
6038	0	31458	
6039	0	31484	
6040	0	31482	
6041	0	31460	
6042	0	31482	
6043	0	31536	
6044	0	31576	
6045	0	31552	
6046	0	31618	
6047	0	31648	
6048	0	31668	
6049	0	31768	
6050	0	31888	
6051	0	31944	
6052	0	31884	
6053	0	31800	
6054	0	31760	
6055	0	31784	
6056	0	31784	
6057	0	31808	
6058	0	31832	
6059	0	31840	
6060	0	31824	
6061	0	31800	
6062	0	31824	
6063	0	31864	
6064	0	31920	
6065	0	31940	
6066	0	31968	
6067	0	32048	
6068	0	32088	
6069	0	32136	
6070	0	32172	
6071	0	32300	
6072	0	32392	
6073	0	32428	
6074	0	32440	
6075	0	32516	
6076	0	32670	
6077	0	32836	
6078	0	33008	
6079	0	33124	
6080	0	33220	
6081	0	33332	
6082	0	33408	
6083	0	33440	
6084	0	33448	
6085	0	33464	
6086	0	33500	
6087	0	33592	
6088	0	33720	
6089	0	33862	
6090	0	33988	
6091	0	34072	
6092	0	34176	
6093	0	34272	
6094	0	34280	
6095	0	34276	
6096	0	34280	
6097	0	34288	
6098	0	34344	
6099	0	34400	
6100	0	34464	
6101	0	34536	
6102	0	34712	
6103	0	34900	
6104	0	35064	
6105	0	35080	
6106	0	35080	
6107	0	35118	
6108	0	35128	
6109	0	35084	
6110	0	35072	
6111	0	35104	
6112	0	35148	
6113	0	35160	
6114	0	35120	
6115	0	35080	
6116	0	35084	
6117	0	35168	
6118	0	35120	
6119	0	34968	
6120	0	34836	
6121	0	34744	
6122	0	34664	
6123	0	34540	
6124	0	34400	
6125	0	34252	
6126	0	34084	
6127	0	33906	
6128	0	33804	
6129	0	33704	
6130	0	33604	
6131	0	33504	
6132	0	33458	
6133	0	33368	
6134	0	33344	
6135	0	33306	
6136	0	33260	
6137	0	33240	
6138	0	33188	
6139	0	33172	
6140	0	33184	
6141	0	33180	
6142	0	33096	
6143	0	32968	
6144	0	32868	
6145	0	32752	
6146	0	32616	
6147	0	32492	
6148	0	32424	
6149	0	32400	
6150	0	32352	
6151	0	32328	
6152	0	32260	
6153	0	32132	
6154	0	32008	
6155	0	31930	
6156	0	31864	
6157	0	31818	
6158	0	31716	
6159	0	31572	
6160	0	31472	
6161	0	31404	
6162	0	31344	
6163	0	31350	
6164	0	31296	
6165	0	31280	
6166	0	31308	
6167	0	31248	
6168	0	31208	
6169	0	31220	
6170	0	31252	
6171	0	31290	
6172	0	31276	
6173	0	31308	
6174	0	31280	
6175	0	31312	
6176	0	31348	
6177	0	31374	
6178	0	31328	
6179	0	31308	
6180	0	31308	
6181	0	31276	
6182	0	31288	
6183	0	31324	
6184	0	31400	
6185	0	31456	
6186	0	31476	
6187	0	31456	
6188	0	31484	
6189	0	31520	
6190	0	31520	
6191	0	31456	
6192	0	31464	
6193	0	31486	
6194	0	31488	
6195	0	31512	
6196	0	31488	
6197	0	31452	
6198	0	31464	
6199	0	31476	
6200	0	31612	
6201	0	31722	
6202	0	31792	
6203	0	31822	
6204	0	31880	
6205	0	31872	
6206	0	31856	
6207	0	31916	
6208	0	31904	
6209	0	31844	
6210	0	31810	
6211	0	31664	
6212	0	31552	
6213	0	31408	
6214	0	31168	
6215	0	30872	
6216	0	30624	
6217	0	30448	
6218	0	30368	
6219	0	30380	
6220	0	30416	
6221	0	30580	
6222	0	30944	
6223	0	31580	
6224	0	32394	
6225	0	33312	
6226	0	34380	
6227	0	35500	
6228	0	36742	
6229	0	38220	
6230	0	39952	
6231	0	41816	
6232	0	43632	
6233	0	45488	
6234	0	47356	
6235	0	49224	
6236	0	51152	
6237	0	52960	
6238	0	54632	
6239	0	56112	
6240	0	57504	
6241	0	59004	
6242	0	60520	
6243	0	61836	
6244	0	62876	
6245	0	63640	
6246	0	64052	
6247	0	64192	
6248	0	64224	
6249	0	62864	
6250	0	60184	
6251	0	56876	
6252	0	53344	
6253	0	49860	
6254	0	46176	
6255	0	42036	
6256	0	37768	
6257	0	34232	
6258	0	31676	
6259	0	29872	
6260	0	28664	
6261	0	27888	
6262	0	27496	
6263	0	27276	
6264	0	27186	
6265	0	27280	
6266	0	27464	
6267	0	27800	
6268	0	28152	
6269	0	28482	
6270	0	28770	
6271	0	28984	
6272	0	29120	
6273	0	29260	
6274	0	29360	
6275	0	29388	
6276	0	29374	
6277	0	29356	
6278	0	29248	
6279	0	29132	
6280	0	28994	
6281	0	28860	
6282	0	28776	
6283	0	28704	
6284	0	28686	
6285	0	28688	
6286	0	28696	
6287	0	28688	
6288	0	28688	
6289	0	28664	
6290	0	28680	
6291	0	28736	
6292	0	28696	
6293	0	28656	
6294	0	28636	
6295	0	28624	
6296	0	28640	
6297	0	28652	
6298	0	28660	
6299	0	28688	
6300	0	28748	
6301	0	28788	
6302	0	28796	
6303	0	28816	
6304	0	28836	
6305	0	28840	
6306	0	28896	
6307	0	28948	
6308	0	28960	
6309	0	28973	
6310	0	29048	
6311	0	29076	
6312	0	29096	
6313	0	29156	
6314	0	29276	
6315	0	29308	
6316	0	29306	
6317	0	29344	
6318	0	29384	
6319	0	29416	
6320	0	29456	
6321	0	29536	
6322	0	29572	
6323	0	29568	
6324	0	29580	
6325	0	29620	
6326	0	29736	
6327	0	29808	
6328	0	29800	
6329	0	29816	
6330	0	29856	
6331	0	29908	
6332	0	29976	
6333	0	30040	
6334	0	30096	
6335	0	30132	
6336	0	30152	
6337	0	30204	
6338	0	30200	
6339	0	30212	
6340	0	30290	
6341	0	30352	
6342	0	30392	
6343	0	30408	
6344	0	30432	
6345	0	30478	
6346	0	30560	
6347	0	30588	
6348	0	30632	
6349	0	30676	
6350	0	30760	
6351	0	30788	
6352	0	30808	
6353	0	30784	
6354	0	30780	
6355	0	30814	
6356	0	30852	
6357	0	30952	
6358	0	31020	
6359	0	31060	
6360	0	31018	
6361	0	31064	
6362	0	31140	
6363	0	31156	
6364	0	31180	
6365	0	31180	
6366	0	31170	
6367	0	31188	
6368	0	31204	
6369	0	31250	
6370	0	31272	
6371	0	31296	
6372	0	31352	
6373	0	31436	
6374	0	31464	
6375	0	31536	
6376	0	31610	
6377	0	31648	
6378	0	31616	
6379	0	31600	
6380	0	31632	
6381	0	31688	
6382	0	31692	
6383	0	31660	
6384	0	31690	
6385	0	31812	
6386	0	31924	
6387	0	31960	
6388	0	31976	
6389	0	32016	
6390	0	32092	
6391	0	32164	
6392	0	32276	
6393	0	32374	
6394	0	32440	
6395	0	32416	
6396	0	32404	
6397	0	32442	
6398	0	32440	
6399	0	32444	
6400	0	32504	
6401	0	32592	
6402	0	32730	
6403	0	32762	
6404	0	32724	
6405	0	32736	
6406	0	32828	
6407	0	32930	
6408	0	33008	
6409	0	33072	
6410	0	33120	
6411	0	33136	
6412	0	33156	
6413	0	33210	
6414	0	33220	
6415	0	33252	
6416	0	33340	
6417	0	33406	
6418	0	33444	
6419	0	33470	
6420	0	33472	
6421	0	33572	
6422	0	33632	
6423	0	33592	
6424	0	33608	
6425	0	33676	
6426	0	33692	
6427	0	33732	
6428	0	33850	
6429	0	33904	
6430	0	33968	
6431	0	34032	
6432	0	34060	
6433	0	34136	
6434	0	34236	
6435	0	34300	
6436	0	34352	
6437	0	34412	
6438	0	34496	
6439	0	34528	
6440	0	34564	
6441	0	34600	
6442	0	34636	
6443	0	34656	
6444	0	34708	
6445	0	34752	
6446	0	34816	
6447	0	34874	
6448	0	34920	
6449	0	34968	
6450	0	35004	
6451	0	35036	
6452	0	35060	
6453	0	35104	
6454	0	35152	
6455	0	35152	
6456	0	35140	
6457	0	35164	
6458	0	35228	
6459	0	35252	
6460	0	35312	
6461	0	35384	
6462	0	35452	
6463	0	35516	
6464	0	35520	
6465	0	35544	
6466	0	35564	
6467	0	35628	
6468	0	35676	
6469	0	35668	
6470	0	35676	
6471	0	35712	
6472	0	35764	
6473	0	35752	
6474	0	35712	
6475	0	35688	
6476	0	35716	
6477	0	35764	
6478	0	35732	
6479	0	35690	
6480	0	35664	
6481	0	35636	
6482	0	35592	
6483	0	35476	
6484	0	35360	
6485	0	35372	
6486	0	35332	
6487	0	35264	
6488	0	35204	
6489	0	35196	
6490	0	35168	
6491	0	35080	
6492	0	35024	
6493	0	34976	
6494	0	34884	
6495	0	34764	
6496	0	34652	
6497	0	34520	
6498	0	34392	
6499	0	34248	
6500	0	34096	
6501	0	33948	
6502	0	33832	
6503	0	33756	
6504	0	33620	
6505	0	33480	
6506	0	33402	
6507	0	33320	
6508	0	33178	
6509	0	33036	
6510	0	32876	
6511	0	32772	
6512	0	32672	
6513	0	32576	
6514	0	32450	
6515	0	32304	
6516	0	32192	
6517	0	32064	
6518	0	31980	
6519	0	31880	
6520	0	31764	
6521	0	31676	
6522	0	31640	
6523	0	31604	
6524	0	31548	
6525	0	31444	
6526	0	31388	
6527	0	31288	
6528	0	31208	
6529	0	31184	
6530	0	31108	
6531	0	31048	
6532	0	30976	
6533	0	30912	
6534	0	30872	
6535	0	30816	
6536	0	30776	
6537	0	30800	
6538	0	30812	
6539	0	30772	
6540	0	30728	
6541	0	30684	
6542	0	30684	
6543	0	30666	
6544	0	30632	
6545	0	30612	
6546	0	30600	
6547	0	30592	
6548	0	30602	
6549	0	30656	
6550	0	30682	
6551	0	30658	
6552	0	30652	
6553	0	30632	
6554	0	30600	
6555	0	30568	
6556	0	30544	
6557	0	30580	
6558	0	30644	
6559	0	30676	
6560	0	30664	
6561	0	30664	
6562	0	30664	
6563	0	30656	
6564	0	30680	
6565	0	30684	
6566	0	30664	
6567	0	30656	
6568	0	30682	
6569	0	30714	
6570	0	30772	
6571	0	30828	
6572	0	30864	
6573	0	30852	
6574	0	30856	
6575	0	30900	
6576	0	30948	
6577	0	30986	
6578	0	30976	
6579	0	30948	
6580	0	30920	
6581	0	30900	
6582	0	30876	
6583	0	30900	
6584	0	30936	
6585	0	30984	
6586	0	31056	
6587	0	31116	
6588	0	31120	
6589	0	31088	
6590	0	31138	
6591	0	31220	
6592	0	31256	
6593	0	31280	
6594	0	31284	
6595	0	31264	
6596	0	31266	
6597	0	31312	
6598	0	31328	
6599	0	31332	
6600	0	31344	
6601	0	31364	
6602	0	31420	
6603	0	31444	
6604	0	31436	
6605	0	31456	
6606	0	31516	
6607	0	31564	
6608	0	31612	
6609	0	31644	
6610	0	31668	
6611	0	31684	
6612	0	31652	
6613	0	31624	
6614	0	31604	
6615	0	31576	
6616	0	31588	
6617	0	31628	
6618	0	31656	
6619	0	31604	
6620	0	31616	
6621	0	31680	
6622	0	31730	
6623	0	31764	
6624	0	31780	
6625	0	31748	
6626	0	31732	
6627	0	31744	
6628	0	31744	
6629	0	31776	
6630	0	31864	
6631	0	31896	
6632	0	31904	
6633	0	31912	
6634	0	31904	
6635	0	31892	
6636	0	31860	
6637	0	31834	
6638	0	31836	
6639	0	31856	
6640	0	31868	
6641	0	31888	
6642	0	31892	
6643	0	31912	
6644	0	31928	
6645	0	31932	
6646	0	32008	
6647	0	32034	
6648	0	32004	
6649	0	31984	
6650	0	31984	
6651	0	31968	
6652	0	31948	
6653	0	31942	
6654	0	31968	
6655	0	32032	
6656	0	32076	
6657	0	32088	
6658	0	32056	
6659	0	31998	
6660	0	31992	
6661	0	32012	
6662	0	32028	
6663	0	32000	
6664	0	31940	
6665	0	31964	
6666	0	32068	
6667	0	32092	
6668	0	32056	
6669	0	32064	
6670	0	32104	
6671	0	32160	
6672	0	32162	
6673	0	32144	
6674	0	32128	
6675	0	32128	
6676	0	32129	
6677	0	32136	
6678	0	32120	
6679	0	32120	
6680	0	32172	
6681	0	32228	
6682	0	32272	
6683	0	32302	
6684	0	32380	
6685	0	32464	
6686	0	32512	
6687	0	32564	
6688	0	32616	
6689	0	32704	
6690	0	32836	
6691	0	33016	
6692	0	33132	
6693	0	33236	
6694	0	33352	
6695	0	33440	
6696	0	33548	
6697	0	33656	
6698	0	33728	
6699	0	33772	
6700	0	33816	
6701	0	33848	
6702	0	33896	
6703	0	33908	
6704	0	33920	
6705	0	34004	
6706	0	34064	
6707	0	34128	
6708	0	34184	
6709	0	34208	
6710	0	34224	
6711	0	34366	
6712	0	34500	
6713	0	34568	
6714	0	34672	
6715	0	34780	
6716	0	34856	
6717	0	35004	
6718	0	35108	
6719	0	35120	
6720	0	35060	
6721	0	34972	
6722	0	34920	
6723	0	34916	
6724	0	34960	
6725	0	35004	
6726	0	35034	
6727	0	35098	
6728	0	35160	
6729	0	35116	
6730	0	34984	
6731	0	34800	
6732	0	34684	
6733	0	34568	
6734	0	34440	
6735	0	34288	
6736	0	34200	
6737	0	34092	
6738	0	33924	
6739	0	33732	
6740	0	33588	
6741	0	33508	
6742	0	33392	
6743	0	33320	
6744	0	33224	
6745	0	33152	
6746	0	33054	
6747	0	32964	
6748	0	32888	
6749	0	32836	
6750	0	32788	
6751	0	32792	
6752	0	32776	
6753	0	32716	
6754	0	32660	
6755	0	32560	
6756	0	32452	
6757	0	32352	
6758	0	32304	
6759	0	32268	
6760	0	32224	
6761	0	32180	
6762	0	32084	
6763	0	31956	
6764	0	31824	
6765	0	31688	
6766	0	31644	
6767	0	31568	
6768	0	31428	
6769	0	31264	
6770	0	31132	
6771	0	31048	
6772	0	31005	
6773	0	30984	
6774	0	30972	
6775	0	30964	
6776	0	30964	
6777	0	30996	
6778	0	30992	
6779	0	30952	
6780	0	30912	
6781	0	30912	
6782	0	30932	
6783	0	30960	
6784	0	31012	
6785	0	31032	
6786	0	31064	
6787	0	31044	
6788	0	31016	
6789	0	31040	
6790	0	31082	
6791	0	31084	
6792	0	31036	
6793	0	31048	
6794	0	31032	
6795	0	31010	
6796	0	31016	
6797	0	31036	
6798	0	31080	
6799	0	31116	
6800	0	31140	
6801	0	31196	
6802	0	31204	
6803	0	31172	
6804	0	31152	
6805	0	31206	
6806	0	31224	
6807	0	31264	
6808	0	31290	
6809	0	31328	
6810	0	31432	
6811	0	31432	
6812	0	31328	
6813	0	31348	
6814	0	31444	
6815	0	31488	
6816	0	31494	
6817	0	31512	
6818	0	31476	
6819	0	31488	
6820	0	31496	
6821	0	31432	
6822	0	31368	
6823	0	31328	
6824	0	31192	
6825	0	31100	
6826	0	31000	
6827	0	30864	
6828	0	30724	
6829	0	30628	
6830	0	30656	
6831	0	30768	
6832	0	30928	
6833	0	31136	
6834	0	31584	
6835	0	32260	
6836	0	33048	
6837	0	33908	
6838	0	34829	
6839	0	35880	
6840	0	37084	
6841	0	38452	
6842	0	39972	
6843	0	41576	
6844	0	43140	
6845	0	44700	
6846	0	46280	
6847	0	47888	
6848	0	49568	
6849	0	51256	
6850	0	52816	
6851	0	54332	
6852	0	55896	
6853	0	57448	
6854	0	58792	
6855	0	59976	
6856	0	61030	
6857	0	62012	
6858	0	62848	
6859	0	63352	
6860	0	62812	
6861	0	61108	
6862	0	58672	
6863	0	55564	
6864	0	52180	
6865	0	48748	
6866	0	44992	
6867	0	40924	
6868	0	36816	
6869	0	33472	
6870	0	31052	
6871	0	29248	
6872	0	28032	
6873	0	27308	
6874	0	27052	
6875	0	27104	
6876	0	27272	
6877	0	27516	
6878	0	27856	
6879	0	28276	
6880	0	28656	
6881	0	28896	
6882	0	29076	
6883	0	29260	
6884	0	29400	
6885	0	29460	
6886	0	29444	
6887	0	29420	
6888	0	29380	
6889	0	29316	
6890	0	29208	
6891	0	29092	
6892	0	29012	
6893	0	28948	
6894	0	28896	
6895	0	28812	
6896	0	28760	
6897	0	28744	
6898	0	28736	
6899	0	28708	
6900	0	28736	
6901	0	28748	
6902	0	28714	
6903	0	28688	
6904	0	28640	
6905	0	28668	
6906	0	28716	
6907	0	28710	
6908	0	28736	
6909	0	28696	
6910	0	28696	
6911	0	28704	
6912	0	28728	
6913	0	28812	
6914	0	28912	
6915	0	28976	
6916	0	29012	
6917	0	29036	
6918	0	29040	
6919	0	29016	
6920	0	29012	
6921	0	29080	
6922	0	29160	
6923	0	29202	
6924	0	29248	
6925	0	29276	
6926	0	29314	
6927	0	29388	
6928	0	29432	
6929	0	29496	
6930	0	29548	
6931	0	29568	
6932	0	29600	
6933	0	29600	
6934	0	29608	
6935	0	29652	
6936	0	29736	
6937	0	29820	
6938	0	29872	
6939	0	29880	
6940	0	29872	
6941	0	29904	
6942	0	29904	
6943	0	29908	
6944	0	29992	
6945	0	30028	
6946	0	30054	
6947	0	30128	
6948	0	30184	
6949	0	30228	
6950	0	30290	
6951	0	30344	
6952	0	30388	
6953	0	30396	
6954	0	30436	
6955	0	30432	
6956	0	30452	
6957	0	30500	
6958	0	30548	
6959	0	30584	
6960	0	30608	
6961	0	30664	
6962	0	30672	
6963	0	30664	
6964	0	30722	
6965	0	30780	
6966	0	30828	
6967	0	30856	
6968	0	30920	
6969	0	30956	
6970	0	30954	
6971	0	31024	
6972	0	31120	
6973	0	31200	
6974	0	31214	
6975	0	31252	
6976	0	31284	
6977	0	31288	
6978	0	31316	
6979	0	31328	
6980	0	31386	
6981	0	31440	
6982	0	31498	
6983	0	31564	
6984	0	31604	
6985	0	31664	
6986	0	31656	
6987	0	31654	
6988	0	31636	
6989	0	31676	
6990	0	31728	
6991	0	31768	
6992	0	31808	
6993	0	31848	
6994	0	31840	
6995	0	31872	
6996	0	31928	
6997	0	32016	
6998	0	32072	
6999	0	32074	
7000	0	32048	
7001	0	32036	
7002	0	32052	
7003	0	32088	
7004	0	32140	
7005	0	32164	
7006	0	32200	
7007	0	32272	
7008	0	32352	
7009	0	32388	
7010	0	32424	
7011	0	32488	
7012	0	32592	
7013	0	32620	
7014	0	32560	
7015	0	32578	
7016	0	32620	
7017	0	32700	
7018	0	32732	
7019	0	32796	
7020	0	32804	
7021	0	32808	
7022	0	32828	
7023	0	32946	
7024	0	33040	
7025	0	33088	
7026	0	33108	
7027	0	33124	
7028	0	33144	
7029	0	33216	
7030	0	33240	
7031	0	33284	
7032	0	33324	
7033	0	33400	
7034	0	33520	
7035	0	33632	
7036	0	33700	
7037	0	33720	
7038	0	33706	
7039	0	33732	
7040	0	33776	
7041	0	33808	
7042	0	33864	
7043	0	33908	
7044	0	33984	
7045	0	34028	
7046	0	34108	
7047	0	34200	
7048	0	34264	
7049	0	34372	
7050	0	34464	
7051	0	34574	
7052	0	34636	
7053	0	34664	
7054	0	34672	
7055	0	34698	
7056	0	34736	
7057	0	34792	
7058	0	34832	
7059	0	34892	
7060	0	34940	
7061	0	34960	
7062	0	35036	
7063	0	35064	
7064	0	35084	
7065	0	35138	
7066	0	35160	
7067	0	35196	
7068	0	35232	
7069	0	35242	
7070	0	35268	
7071	0	35316	
7072	0	35384	
7073	0	35436	
7074	0	35512	
7075	0	35536	
7076	0	35564	
7077	0	35600	
7078	0	35624	
7079	0	35648	
7080	0	35704	
7081	0	35724	
7082	0	35728	
7083	0	35744	
7084	0	35824	
7085	0	35872	
7086	0	35904	
7087	0	35872	
7088	0	35828	
7089	0	35848	
7090	0	35872	
7091	0	35828	
7092	0	35752	
7093	0	35740	
7094	0	35732	
7095	0	35732	
7096	0	35660	
7097	0	35576	
7098	0	35536	
7099	0	35536	
7100	0	35480	
7101	0	35388	
7102	0	35296	
7103	0	35224	
7104	0	35168	
7105	0	35080	
7106	0	34948	
7107	0	34784	
7108	0	34680	
7109	0	34568	
7110	0	34464	
7111	0	34372	
7112	0	34224	
7113	0	34100	
7114	0	33976	
7115	0	33804	
7116	0	33644	
7117	0	33564	
7118	0	33400	
7119	0	33218	
7120	0	33088	
7121	0	32968	
7122	0	32868	
7123	0	32768	
7124	0	32616	
7125	0	32488	
7126	0	32372	
7127	0	32256	
7128	0	32188	
7129	0	32064	
7130	0	31984	
7131	0	31900	
7132	0	31776	
7133	0	31664	
7134	0	31620	
7135	0	31560	
7136	0	31468	
7137	0	31352	
7138	0	31244	
7139	0	31200	
7140	0	31172	
7141	0	31096	
7142	0	30986	
7143	0	30888	
7144	0	30812	
7145	0	30760	
7146	0	30682	
7147	0	30614	
7148	0	30564	
7149	0	30508	
7150	0	30508	
7151	0	30552	
7152	0	30572	
7153	0	30534	
7154	0	30444	
7155	0	30372	
7156	0	30280	
7157	0	30256	
7158	0	30216	
7159	0	30210	
7160	0	30188	
7161	0	30194	
7162	0	30204	
7163	0	30176	
7164	0	30184	
7165	0	30248	
7166	0	30268	
7167	0	30222	
7168	0	30204	
7169	0	30232	
7170	0	30256	
7171	0	30264	
7172	0	30292	
7173	0	30272	
7174	0	30288	
7175	0	30324	
7176	0	30352	
7177	0	30380	
7178	0	30404	
7179	0	30400	
7180	0	30376	
7181	0	30352	
7182	0	30334	
7183	0	30348	
7184	0	30408	
7185	0	30440	
7186	0	30488	
7187	0	30500	
7188	0	30476	
7189	0	30492	
7190	0	30532	
7191	0	30548	
7192	0	30588	
7193	0	30620	
7194	0	30632	
7195	0	30636	
7196	0	30634	
7197	0	30634	
7198	0	30644	
7199	0	30668	
7200	0	30732	
7201	0	30748	
7202	0	30752	
7203	0	30778	
7204	0	30792	
7205	0	30812	
7206	0	30820	
7207	0	30816	
7208	0	30828	
7209	0	30880	
7210	0	30956	
7211	0	30946	
7212	0	30852	
7213	0	30896	
7214	0	30928	
7215	0	30928	
7216	0	30946	
7217	0	31016	
7218	0	31040	
7219	0	31084	
7220	0	31144	
7221	0	31124	
7222	0	31128	
7223	0	31168	
7224	0	31220	
7225	0	31236	
7226	0	31288	
7227	0	31368	
7228	0	31360	
7229	0	31348	
7230	0	31344	
7231	0	31314	
7232	0	31352	
7233	0	31424	
7234	0	31444	
7235	0	31460	
7236	0	31488	
7237	0	31512	
7238	0	31496	
7239	0	31472	
7240	0	31440	
7241	0	31492	
7242	0	31524	
7243	0	31560	
7244	0	31572	
7245	0	31584	
7246	0	31628	
7247	0	31660	
7248	0	31664	
7249	0	31644	
7250	0	31658	
7251	0	31648	
7252	0	31644	
7253	0	31604	
7254	0	31604	
7255	0	31592	
7256	0	31638	
7257	0	31720	
7258	0	31712	
7259	0	31698	
7260	0	31660	
7261	0	31648	
7262	0	31672	
7263	0	31706	
7264	0	31720	
7265	0	31732	
7266	0	31736	
7267	0	31744	
7268	0	31752	
7269	0	31744	
7270	0	31752	
7271	0	31752	
7272	0	31750	
7273	0	31748	
7274	0	31724	
7275	0	31744	
7276	0	31768	
7277	0	31802	
7278	0	31812	
7279	0	31784	
7280	0	31768	
7281	0	31716	
7282	0	31720	
7283	0	31722	
7284	0	31748	
7285	0	31736	
7286	0	31760	
7287	0	31786	
7288	0	31788	
7289	0	31776	
7290	0	31740	
7291	0	31714	
7292	0	31752	
7293	0	31720	
7294	0	31692	
7295	0	31692	
7296	0	31696	
7297	0	31680	
7298	0	31648	
7299	0	31656	
7300	0	31708	
7301	0	31756	
7302	0	31748	
7303	0	31720	
7304	0	31688	
7305	0	31664	
7306	0	31644	
7307	0	31672	
7308	0	31696	
7309	0	31708	
7310	0	31704	
7311	0	31704	
7312	0	31756	
7313	0	31776	
7314	0	31780	
7315	0	31824	
7316	0	31910	
7317	0	31984	
7318	0	32018	
7319	0	32024	
7320	0	32084	
7321	0	32164	
7322	0	32228	
7323	0	32298	
7324	0	32384	
7325	0	32446	
7326	0	32562	
7327	0	32708	
7328	0	32844	
7329	0	33000	
7330	0	33166	
7331	0	33348	
7332	0	33512	
7333	0	33586	
7334	0	33628	
7335	0	33704	
7336	0	33796	
7337	0	33876	
7338	0	33944	
7339	0	33972	
7340	0	33964	
7341	0	33952	
7342	0	33996	
7343	0	34048	
7344	0	34072	
7345	0	34068	
7346	0	34088	
7347	0	34144	
7348	0	34240	
7349	0	34330	
7350	0	34416	
7351	0	34516	
7352	0	34632	
7353	0	34684	
7354	0	34732	
7355	0	34824	
7356	0	34916	
7357	0	34908	
7358	0	34812	
7359	0	34832	
7360	0	34864	
7361	0	34916	
7362	0	35052	
7363	0	35156	
7364	0	35182	
7365	0	35140	
7366	0	35026	
7367	0	34816	
7368	0	34660	
7369	0	34536	
7370	0	34380	
7371	0	34260	
7372	0	34208	
7373	0	34212	
7374	0	34112	
7375	0	33976	
7376	0	33824	
7377	0	33648	
7378	0	33488	
7379	0	33364	
7380	0	33320	
7381	0	33272	
7382	0	33220	
7383	0	33168	
7384	0	33076	
7385	0	32984	
7386	0	32840	
7387	0	32696	
7388	0	32616	
7389	0	32564	
7390	0	32518	
7391	0	32496	
7392	0	32414	
7393	0	32344	
7394	0	32356	
7395	0	32332	
7396	0	32252	
7397	0	32164	
7398	0	32064	
7399	0	31944	
7400	0	31816	
7401	0	31736	
7402	0	31660	
7403	0	31524	
7404	0	31356	
7405	0	31264	
7406	0	31150	
7407	0	31064	
7408	0	31056	
7409	0	31088	
7410	0	31114	
7411	0	31076	
7412	0	31040	
7413	0	31002	
7414	0	31024	
7415	0	31048	
7416	0	31020	
7417	0	31032	
7418	0	31036	
7419	0	31092	
7420	0	31098	
7421	0	31060	
7422	0	31036	
7423	0	31076	
7424	0	31084	
7425	0	31100	
7426	0	31132	
7427	0	31103	
7428	0	31060	
7429	0	31060	
7430	0	31056	
7431	0	31062	
7432	0	31064	
7433	0	31064	
7434	0	31100	
7435	0	31080	
7436	0	31096	
7437	0	31096	
7438	0	31076	
7439	0	31088	
7440	0	31108	
7441	0	31108	
7442	0	31120	
7443	0	31168	
7444	0	31216	
7445	0	31256	
7446	0	31272	
7447	0	31296	
7448	0	31402	
7449	0	31532	
7450	0	31600	
7451	0	31628	
7452	0	31592	
7453	0	31592	
7454	0	31632	
7455	0	31616	
7456	0	31598	
7457	0	31548	
7458	0	31496	
7459	0	31408	
7460	0	31266	
7461	0	31164	
7462	0	31004	
7463	0	30808	
7464	0	30660	
7465	0	30592	
7466	0	30608	
7467	0	30680	
7468	0	30842	
7469	0	31104	
7470	0	31552	
7471	0	32216	
7472	0	32980	
7473	0	33816	
7474	0	34732	
7475	0	35808	
7476	0	37012	
7477	0	38380	
7478	0	39936	
7479	0	41552	
7480	0	43092	
7481	0	44700	
7482	0	46344	
7483	0	48012	
7484	0	49720	
7485	0	51388	
7486	0	52920	
7487	0	54376	
7488	0	55924	
7489	0	57456	
7490	0	58760	
7491	0	59908	
7492	0	60960	
7493	0	61920	
7494	0	62736	
7495	0	63044	
7496	0	62212	
7497	0	60320	
7498	0	57736	
7499	0	54524	
7500	0	51168	
7501	0	47680	
7502	0	43880	
7503	0	39748	
7504	0	35768	
7505	0	32644	
7506	0	30396	
7507	0	28792	
7508	0	27724	
7509	0	27160	
7510	0	26960	
7511	0	27052	
7512	0	27248	
7513	0	27576	
7514	0	27984	
7515	0	28436	
7516	0	28864	
7517	0	29154	
7518	0	29386	
7519	0	29556	
7520	0	29650	
7521	0	29620	
7522	0	29616	
7523	0	29632	
7524	0	29656	
7525	0	29592	
7526	0	29488	
7527	0	29376	
7528	0	29312	
7529	0	29252	
7530	0	29248	
7531	0	29180	
7532	0	29116	
7533	0	29080	
7534	0	29036	
7535	0	28958	
7536	0	28892	
7537	0	28872	
7538	0	28892	
7539	0	28897	
7540	0	28914	
7541	0	28928	
7542	0	28960	
7543	0	29022	
7544	0	29044	
7545	0	29020	
7546	0	29004	
7547	0	29048	
7548	0	29114	
7549	0	29168	
7550	0	29232	
7551	0	29276	
7552	0	29320	
7553	0	29316	
7554	0	29344	
7555	0	29360	
7556	0	29440	
7557	0	29524	
7558	0	29560	
7559	0	29576	
7560	0	29536	
7561	0	29504	
7562	0	29512	
7563	0	29620	
7564	0	29680	
7565	0	29728	
7566	0	29768	
7567	0	29764	
7568	0	29794	
7569	0	29866	
7570	0	29892	
7571	0	29944	
7572	0	29984	
7573	0	29964	
7574	0	30016	
7575	0	30052	
7576	0	30048	
7577	0	30048	
7578	0	30096	
7579	0	30136	
7580	0	30194	
7581	0	30256	
7582	0	30272	
7583	0	30334	
7584	0	30368	
7585	0	30394	
7586	0	30468	
7587	0	30544	
7588	0	30588	
7589	0	30606	
7590	0	30644	
7591	0	30668	
7592	0	30700	
7593	0	30728	
7594	0	30764	
7595	0	30794	
7596	0	30834	
7597	0	30856	
7598	0	30868	
7599	0	30880	
7600	0	30888	
7601	0	30964	
7602	0	31024	
7603	0	31040	
7604	0	31072	
7605	0	31108	
7606	0	31132	
7607	0	31192	
7608	0	31216	
7609	0	31232	
7610	0	31280	
7611	0	31336	
7612	0	31396	
7613	0	31380	
7614	0	31384	
7615	0	31452	
7616	0	31528	
7617	0	31592	
7618	0	31584	
7619	0	31524	
7620	0	31552	
7621	0	31612	
7622	0	31648	
7623	0	31688	
7624	0	31720	
7625	0	31752	
7626	0	31832	
7627	0	31924	
7628	0	31972	
7629	0	31992	
7630	0	31984	
7631	0	31984	
7632	0	32008	
7633	0	32076	
7634	0	32140	
7635	0	32168	
7636	0	32168	
7637	0	32200	
7638	0	32256	
7639	0	32318	
7640	0	32352	
7641	0	32362	
7642	0	32348	
7643	0	32402	
7644	0	32488	
7645	0	32544	
7646	0	32576	
7647	0	32616	
7648	0	32636	
7649	0	32688	
7650	0	32760	
7651	0	32800	
7652	0	32816	
7653	0	32868	
7654	0	32962	
7655	0	33072	
7656	0	33124	
7657	0	33156	
7658	0	33178	
7659	0	33168	
7660	0	33132	
7661	0	33148	
7662	0	33232	
7663	0	33312	
7664	0	33398	
7665	0	33442	
7666	0	33496	
7667	0	33564	
7668	0	33616	
7669	0	33696	
7670	0	33760	
7671	0	33793	
7672	0	33840	
7673	0	33912	
7674	0	33948	
7675	0	33952	
7676	0	33968	
7677	0	34030	
7678	0	34084	
7679	0	34180	
7680	0	34272	
7681	0	34288	
7682	0	34284	
7683	0	34344	
7684	0	34400	
7685	0	34456	
7686	0	34480	
7687	0	34504	
7688	0	34544	
7689	0	34608	
7690	0	34684	
7691	0	34752	
7692	0	34844	
7693	0	34880	
7694	0	34892	
7695	0	34948	
7696	0	35052	
7697	0	35116	
7698	0	35152	
7699	0	35196	
7700	0	35168	
7701	0	35184	
7702	0	35248	
7703	0	35312	
7704	0	35384	
7705	0	35380	
7706	0	35364	
7707	0	35368	
7708	0	35376	
7709	0	35416	
7710	0	35488	
7711	0	35556	
7712	0	35656	
7713	0	35716	
7714	0	35664	
7715	0	35608	
7716	0	35608	
7717	0	35676	
7718	0	35752	
7719	0	35760	
7720	0	35732	
7721	0	35740	
7722	0	35746	
7723	0	35728	
7724	0	35680	
7725	0	35712	
7726	0	35716	
7727	0	35724	
7728	0	35768	
7729	0	35796	
7730	0	35784	
7731	0	35772	
7732	0	35746	
7733	0	35712	
7734	0	35676	
7735	0	35600	
7736	0	35514	
7737	0	35456	
7738	0	35362	
7739	0	35256	
7740	0	35100	
7741	0	34996	
7742	0	34920	
7743	0	34816	
7744	0	34704	
7745	0	34616	
7746	0	34516	
7747	0	34420	
7748	0	34264	
7749	0	34120	
7750	0	33964	
7751	0	33840	
7752	0	33708	
7753	0	33586	
7754	0	33392	
7755	0	33210	
7756	0	33098	
7757	0	32980	
7758	0	32862	
7759	0	32724	
7760	0	32592	
7761	0	32506	
7762	0	32440	
7763	0	32324	
7764	0	32208	
7765	0	32092	
7766	0	31996	
7767	0	31868	
7768	0	31740	
7769	0	31632	
7770	0	31548	
7771	0	31424	
7772	0	31348	
7773	0	31308	
7774	0	31228	
7775	0	31184	
7776	0	31084	
7777	0	31016	
7778	0	30936	
7779	0	30852	
7780	0	30792	
7781	0	30744	
7782	0	30700	
7783	0	30664	
7784	0	30654	
7785	0	30616	
7786	0	30576	
7787	0	30568	
7788	0	30568	
7789	0	30546	
7790	0	30542	
7791	0	30460	
7792	0	30380	
7793	0	30360	
7794	0	30332	
7795	0	30336	
7796	0	30356	
7797	0	30368	
7798	0	30408	
7799	0	30384	
7800	0	30336	
7801	0	30340	
7802	0	30344	
7803	0	30316	
7804	0	30280	
7805	0	30256	
7806	0	30266	
7807	0	30284	
7808	0	30284	
7809	0	30312	
7810	0	30320	
7811	0	30340	
7812	0	30336	
7813	0	30332	
7814	0	30364	
7815	0	30362	
7816	0	30342	
7817	0	30360	
7818	0	30428	
7819	0	30492	
7820	0	30544	
7821	0	30548	
7822	0	30496	
7823	0	30476	
7824	0	30520	
7825	0	30618	
7826	0	30690	
7827	0	30744	
7828	0	30692	
7829	0	30674	
7830	0	30692	
7831	0	30752	
7832	0	30768	
7833	0	30760	
7834	0	30764	
7835	0	30794	
7836	0	30784	
7837	0	30800	
7838	0	30864	
7839	0	30924	
7840	0	30948	
7841	0	30952	
7842	0	30944	
7843	0	30964	
7844	0	30956	
7845	0	30944	
7846	0	30948	
7847	0	30948	
7848	0	30968	
7849	0	31024	
7850	0	31104	
7851	0	31156	
7852	0	31200	
7853	0	31176	
7854	0	31208	
7855	0	31210	
7856	0	31232	
7857	0	31280	
7858	0	31296	
7859	0	31328	
7860	0	31352	
7861	0	31340	
7862	0	31344	
7863	0	31368	
7864	0	31360	
7865	0	31328	
7866	0	31388	
7867	0	31412	
7868	0	31412	
7869	0	31396	
7870	0	31410	
7871	0	31458	
7872	0	31536	
7873	0	31596	
7874	0	31596	
7875	0	31580	
7876	0	31576	
7877	0	31588	
7878	0	31592	
7879	0	31584	
7880	0	31576	
7881	0	31560	
7882	0	31562	
7883	0	31580	
7884	0	31624	
7885	0	31648	
7886	0	31668	
7887	0	31656	
7888	0	31636	
7889	0	31628	
7890	0	31640	
7891	0	31664	
7892	0	31708	
7893	0	31708	
7894	0	31640	
7895	0	31612	
7896	0	31636	
7897	0	31648	
7898	0	31684	
7899	0	31704	
7900	0	31752	
7901	0	31780	
7902	0	31784	
7903	0	31756	
7904	0	31724	
7905	0	31768	
7906	0	31812	
7907	0	31828	
7908	0	31824	
7909	0	31828	
7910	0	31804	
7911	0	31820	
7912	0	31828	
7913	0	31872	
7914	0	31870	
7915	0	31816	
7916	0	31778	
7917	0	31760	
7918	0	31752	
7919	0	31752	
7920	0	31776	
7921	0	31788	
7922	0	31782	
7923	0	31820	
7924	0	31864	
7925	0	31896	
7926	0	31908	
7927	0	31880	
7928	0	31874	
7929	0	31978	
7930	0	32012	
7931	0	31984	
7932	0	32012	
7933	0	31992	
7934	0	31954	
7935	0	31944	
7936	0	31972	
7937	0	31948	
7938	0	31904	
7939	0	31936	
7940	0	32028	
7941	0	32032	
7942	0	32040	
7943	0	32072	
7944	0	32110	
7945	0	32192	
7946	0	32288	
7947	0	32336	
7948	0	32390	
7949	0	32488	
7950	0	32624	
7951	0	32800	
7952	0	32980	
7953	0	33112	
7954	0	33260	
7955	0	33378	
7956	0	33504	
7957	0	33592	
7958	0	33700	
7959	0	33744	
7960	0	33760	
7961	0	33796	
7962	0	33776	
7963	0	33768	
7964	0	33816	
7965	0	33864	
7966	0	33910	
7967	0	33984	
7968	0	34072	
7969	0	34168	
7970	0	34242	
7971	0	34316	
7972	0	34380	
7973	0	34428	
7974	0	34464	
7975	0	34520	
7976	0	34624	
7977	0	34760	
7978	0	34842	
7979	0	34900	
7980	0	34996	
7981	0	35048	
7982	0	35092	
7983	0	35094	
7984	0	35064	
7985	0	35072	
7986	0	35120	
7987	0	35200	
7988	0	35232	
7989	0	35160	
7990	0	35060	
7991	0	34940	
7992	0	34824	
7993	0	34728	
7994	0	34590	
7995	0	34424	
7996	0	34312	
7997	0	34208	
7998	0	34072	
7999	0	33880	
8000	0	33684	
8001	0	33562	
8002	0	33464	
8003	0	33356	
8004	0	33312	
8005	0	33232	
8006	0	33128	
8007	0	33084	
8008	0	33020	
8009	0	32988	
8010	0	32968	
8011	0	32912	
8012	0	32836	
8013	0	32768	
8014	0	32700	
8015	0	32624	
8016	0	32548	
8017	0	32510	
8018	0	32480	
8019	0	32462	
8020	0	32396	
8021	0	32356	
8022	0	32284	
8023	0	32204	
8024	0	32108	
8025	0	31996	
8026	0	31868	
8027	0	31748	
8028	0	31616	
8029	0	31480	
8030	0	31392	
8031	0	31336	
8032	0	31296	
8033	0	31264	
8034	0	31216	
8035	0	31180	
8036	0	31180	
8037	0	31180	
8038	0	31192	
8039	0	31176	
8040	0	31176	
8041	0	31180	
8042	0	31204	
8043	0	31212	
8044	0	31228	
8045	0	31240	
8046	0	31224	
8047	0	31188	
8048	0	31232	
8049	0	31304	
8050	0	31308	
8051	0	31296	
8052	0	31292	
8053	0	31284	
8054	0	31312	
8055	0	31344	
8056	0	31340	
8057	0	31324	
8058	0	31308	
8059	0	31300	
8060	0	31316	
8061	0	31358	
8062	0	31370	
8063	0	31372	
8064	0	31344	
8065	0	31352	
8066	0	31394	
8067	0	31444	
8068	0	31492	
8069	0	31492	
8070	0	31504	
8071	0	31528	
8072	0	31564	
8073	0	31604	
8074	0	31640	
8075	0	31660	
8076	0	31668	
8077	0	31672	
8078	0	31652	
8079	0	31648	
8080	0	31648	
8081	0	31576	
8082	0	31448	
8083	0	31274	
8084	0	31126	
8085	0	30992	
8086	0	30784	
8087	0	30656	
8088	0	30630	
8089	0	30688	
8090	0	30804	
8091	0	31004	
8092	0	31304	
8093	0	31742	
8094	0	32384	
8095	0	33168	
8096	0	34028	
8097	0	35028	
8098	0	36148	
8099	0	37364	
8100	0	38744	
8101	0	40312	
8102	0	41912	
8103	0	43480	
8104	0	45112	
8105	0	46720	
8106	0	48324	
8107	0	49996	
8108	0	51664	
8109	0	53184	
8110	0	54662	
8111	0	56204	
8112	0	57680	
8113	0	58940	
8114	0	60000	
8115	0	60916	
8116	0	61744	
8117	0	62404	
8118	0	62584	
8119	0	61576	
8120	0	59592	
8121	0	56956	
8122	0	53688	
8123	0	50364	
8124	0	46912	
8125	0	43168	
8126	0	39144	
8127	0	35408	
8128	0	32538	
8129	0	30406	
8130	0	28912	
8131	0	27938	
8132	0	27376	
8133	0	27200	
8134	0	27328	
8135	0	27508	
8136	0	27742	
8137	0	28092	
8138	0	28504	
8139	0	28860	
8140	0	29088	
8141	0	29280	
8142	0	29480	
8143	0	29592	
8144	0	29628	
8145	0	29628	
8146	0	29580	
8147	0	29496	
8148	0	29356	
8149	0	29288	
8150	0	29232	
8151	0	29204	
8152	0	29168	
8153	0	29136	
8154	0	29040	
8155	0	28956	
8156	0	28902	
8157	0	28852	
8158	0	28804	
8159	0	28808	
8160	0	28792	
8161	0	28768	
8162	0	28808	
8163	0	28846	
8164	0	28840	
8165	0	28824	
8166	0	28832	
8167	0	28852	
8168	0	28888	
8169	0	28896	
8170	0	28924	
8171	0	28920	
8172	0	28928	
8173	0	28956	
8174	0	29024	
8175	0	29104	
8176	0	29168	
8177	0	29192	
8178	0	29230	
8179	0	29268	
8180	0	29242	
8181	0	29248	
8182	0	29302	
8183	0	29338	
8184	0	29388	
8185	0	29444	
8186	0	29484	
8187	0	29524	
8188	0	29600	
8189	0	29660	
8190	0	29676	
8191	0	29700	
8192	0	29778	
8193	0	29832	
8194	0	29842	
8195	0	29890	
8196	0	29948	
8197	0	30032	
8198	0	30036	
8199	0	30012	
8200	0	30016	
8201	0	30000	
8202	0	30028	
8203	0	30056	
8204	0	30130	
8205	0	30194	
8206	0	30232	
8207	0	30236	
8208	0	30256	
8209	0	30280	
8210	0	30344	
8211	0	30382	
8212	0	30436	
8213	0	30484	
8214	0	30512	
8215	0	30508	
8216	0	30528	
8217	0	30616	
8218	0	30718	
8219	0	30804	
8220	0	30820	
8221	0	30796	
8222	0	30796	
8223	0	30800	
8224	0	30820	
8225	0	30882	
8226	0	30916	
8227	0	30924	
8228	0	30944	
8229	0	30948	
8230	0	30964	
8231	0	31040	
8232	0	31172	
8233	0	31240	
8234	0	31308	
8235	0	31360	
8236	0	31412	
8237	0	31416	
8238	0	31406	
8239	0	31396	
8240	0	31412	
8241	0	31412	
8242	0	31456	
8243	0	31500	
8244	0	31496	
8245	0	31552	
8246	0	31616	
8247	0	31684	
8248	0	31756	
8249	0	31832	
8250	0	31880	
8251	0	31904	
8252	0	31936	
8253	0	31948	
8254	0	31984	
8255	0	31992	
8256	0	32024	
8257	0	32072	
8258	0	32096	
8259	0	32120	
8260	0	32112	
8261	0	32120	
8262	0	32180	
8263	0	32224	
8264	0	32284	
8265	0	32340	
8266	0	32400	
8267	0	32428	
8268	0	32448	
8269	0	32540	
8270	0	32652	
8271	0	32708	
8272	0	32700	
8273	0	32696	
8274	0	32716	
8275	0	32736	
8276	0	32772	
8277	0	32840	
8278	0	32864	
8279	0	32896	
8280	0	32984	
8281	0	33036	
8282	0	33064	
8283	0	33092	
8284	0	33096	
8285	0	33160	
8286	0	33288	
8287	0	33352	
8288	0	33412	
8289	0	33486	
8290	0	33552	
8291	0	33584	
8292	0	33596	
8293	0	33644	
8294	0	33688	
8295	0	33804	
8296	0	33892	
8297	0	33948	
8298	0	33980	
8299	0	34020	
8300	0	34036	
8301	0	34068	
8302	0	34154	
8303	0	34236	
8304	0	34292	
8305	0	34348	
8306	0	34360	
8307	0	34368	
8308	0	34400	
8309	0	34432	
8310	0	34472	
8311	0	34532	
8312	0	34604	
8313	0	34636	
8314	0	34696	
8315	0	34764	
8316	0	34840	
8317	0	34880	
8318	0	34896	
8319	0	34912	
8320	0	34952	
8321	0	34936	
8322	0	34968	
8323	0	35064	
8324	0	35136	
8325	0	35172	
8326	0	35212	
8327	0	35288	
8328	0	35334	
8329	0	35344	
8330	0	35386	
8331	0	35444	
8332	0	35468	
8333	0	35488	
8334	0	35536	
8335	0	35560	
8336	0	35584	
8337	0	35588	
8338	0	35596	
8339	0	35644	
8340	0	35688	
8341	0	35676	
8342	0	35660	
8343	0	35672	
8344	0	35680	
8345	0	35696	
8346	0	35706	
8347	0	35744	
8348	0	35778	
8349	0	35834	
8350	0	35880	
8351	0	35912	
8352	0	35932	
8353	0	35840	
8354	0	35752	
8355	0	35696	
8356	0	35628	
8357	0	35544	
8358	0	35478	
8359	0	35412	
8360	0	35352	
8361	0	35284	
8362	0	35176	
8363	0	35078	
8364	0	34940	
8365	0	34788	
8366	0	34668	
8367	0	34544	
8368	0	34392	
8369	0	34236	
8370	0	34136	
8371	0	34100	
8372	0	33992	
8373	0	33832	
8374	0	33692	
8375	0	33552	
8376	0	33404	
8377	0	33256	
8378	0	33104	
8379	0	33000	
8380	0	32900	
8381	0	32764	
8382	0	32650	
8383	0	32548	
8384	0	32400	
8385	0	32232	
8386	0	32148	
8387	0	32052	
8388	0	31940	
8389	0	31840	
8390	0	31800	
8391	0	31712	
8392	0	31640	
8393	0	31572	
8394	0	31482	
8395	0	31352	
8396	0	31266	
8397	0	31200	
8398	0	31116	
8399	0	30972	
8400	0	30888	
8401	0	30894	
8402	0	30904	
8403	0	30896	
8404	0	30844	
8405	0	30812	
8406	0	30764	
8407	0	30712	
8408	0	30656	
8409	0	30584	
8410	0	30512	
8411	0	30424	
8412	0	30336	
8413	0	30332	
8414	0	30324	
8415	0	30368	
8416	0	30392	
8417	0	30368	
8418	0	30372	
8419	0	30400	
8420	0	30412	
8421	0	30348	
8422	0	30272	
8423	0	30208	
8424	0	30188	
8425	0	30154	
8426	0	30146	
8427	0	30160	
8428	0	30224	
8429	0	30256	
8430	0	30288	
8431	0	30296	
8432	0	30356	
8433	0	30410	
8434	0	30400	
8435	0	30424	
8436	0	30424	
8437	0	30376	
8438	0	30328	
8439	0	30356	
8440	0	30380	
8441	0	30392	
8442	0	30464	
8443	0	30552	
8444	0	30600	
8445	0	30572	
8446	0	30550	
8447	0	30548	
8448	0	30592	
8449	0	30608	
8450	0	30604	
8451	0	30640	
8452	0	30684	
8453	0	30720	
8454	0	30728	
8455	0	30724	
8456	0	30696	
8457	0	30660	
8458	0	30652	
8459	0	30696	
8460	0	30756	
8461	0	30736	
8462	0	30724	
8463	0	30728	
8464	0	30730	
8465	0	30772	
8466	0	30786	
8467	0	30836	
8468	0	30892	
8469	0	30948	
8470	0	30956	
8471	0	30944	
8472	0	30964	
8473	0	30988	
8474	0	30996	
8475	0	31012	
8476	0	31008	
8477	0	31024	
8478	0	31124	
8479	0	31144	
8480	0	31120	
8481	0	31098	
8482	0	31096	
8483	0	31156	
8484	0	31188	
8485	0	31228	
8486	0	31262	
8487	0	31320	
8488	0	31344	
8489	0	31336	
8490	0	31330	
8491	0	31332	
8492	0	31392	
8493	0	31512	
8494	0	31520	
8495	0	31496	
8496	0	31496	
8497	0	31460	
8498	0	31424	
8499	0	31464	
8500	0	31436	
8501	0	31434	
8502	0	31404	
8503	0	31382	
8504	0	31408	
8505	0	31448	
8506	0	31472	
8507	0	31472	
8508	0	31488	
8509	0	31504	
8510	0	31520	
8511	0	31520	
8512	0	31541	
8513	0	31560	
8514	0	31556	
8515	0	31580	
8516	0	31564	
8517	0	31568	
8518	0	31572	
8519	0	31584	
8520	0	31584	
8521	0	31584	
8522	0	31584	
8523	0	31572	
8524	0	31528	
8525	0	31521	
8526	0	31556	
8527	0	31618	
8528	0	31636	
8529	0	31608	
8530	0	31616	
8531	0	31648	
8532	0	31628	
8533	0	31600	
8534	0	31604	
8535	0	31624	
8536	0	31648	
8537	0	31656	
8538	0	31636	
8539	0	31664	
8540	0	31724	
8541	0	31720	
8542	0	31692	
8543	0	31660	
8544	0	31672	
8545	0	31710	
8546	0	31708	
8547	0	31648	
8548	0	31576	
8549	0	31602	
8550	0	31696	
8551	0	31756	
8552	0	31792	
8553	0	31808	
8554	0	31852	
8555	0	31856	
8556	0	31896	
8557	0	31970	
8558	0	32068	
8559	0	32196	
8560	0	32344	
8561	0	32490	
8562	0	32672	
8563	0	32800	
8564	0	32908	
8565	0	33048	
8566	0	33122	
8567	0	33152	
8568	0	33172	
8569	0	33184	
8570	0	33204	
8571	0	33226	
8572	0	33262	
8573	0	33344	
8574	0	33392	
8575	0	33424	
8576	0	33488	
8577	0	33540	
8578	0	33600	
8579	0	33604	
8580	0	33612	
8581	0	33660	
8582	0	33768	
8583	0	33872	
8584	0	33932	
8585	0	34032	
8586	0	34176	
8587	0	34328	
8588	0	34536	
8589	0	34636	
8590	0	34624	
8591	0	34568	
8592	0	34528	
