# OpenSignals Text File Format. Version 1
# {"00:07:80:4B:15:F7": {"position": 0, "device": "biosignalsplux", "device name": "00:07:80:4B:15:F7", "device connection": "BTH00:07:80:4B:15:F7", "sampling rate": 1000, "resolution": [16], "firmware version": 775, "comments": "", "keywords": "", "mode": 0, "sync interval": 2, "date": "2023-4-27", "time": "17:15:15.997", "channels": [1], "sensor": ["ECG"], "label": ["CH1"], "column": ["nSeq", "DI", "CH1"], "special": [{"SpO2": [80, 40, 5, 4, 3, 3]}, {"SpO2": [80, 40, 5, 4, 3, 3]}, {"SpO2": [80, 40, 5, 4, 3, 3]}, {"SpO2": [80, 40, 5, 4, 3, 3]}, {"SpO2": [80, 40, 5, 4, 3, 3]}, {"SpO2": [80, 40, 5, 4, 3, 3]}, {"SpO2": [80, 40, 5, 4, 3, 3]}, {"SpO2": [80, 40, 5, 4, 3, 3]}], "digital IO": [0, 1], "sleeve color": ["green"], "convertedValues": 0}}
# EndOfHeader
0	0	30838	
1	0	30920	
2	0	30940	
3	0	30956	
4	0	30996	
5	0	31020	
6	0	31028	
7	0	31032	
8	0	31072	
9	0	31136	
10	0	31172	
11	0	31204	
12	0	31220	
13	0	31232	
14	0	31272	
15	0	31290	
16	0	31324	
17	0	31352	
18	0	31404	
19	0	31452	
20	0	31520	
21	0	31612	
22	0	31668	
23	0	31732	
24	0	31776	
25	0	31778	
26	0	31816	
27	0	31888	
28	0	31956	
29	0	31972	
30	0	31988	
31	0	32032	
32	0	32116	
33	0	32212	
34	0	32224	
35	0	32238	
36	0	32280	
37	0	32288	
38	0	32346	
39	0	32452	
40	0	32534	
41	0	32590	
42	0	32636	
43	0	32708	
44	0	32802	
45	0	32874	
46	0	32934	
47	0	32960	
48	0	32884	
49	0	32864	
50	0	32984	
51	0	33080	
52	0	33172	
53	0	33284	
54	0	33324	
55	0	33354	
56	0	33392	
57	0	33464	
58	0	33496	
59	0	33568	
60	0	33608	
61	0	33664	
62	0	33736	
63	0	33812	
64	0	33896	
65	0	33968	
66	0	34032	
67	0	34100	
68	0	34176	
69	0	34304	
70	0	34448	
71	0	34580	
72	0	34648	
73	0	34680	
74	0	34736	
75	0	34784	
76	0	34834	
77	0	34896	
78	0	34972	
79	0	35020	
80	0	35068	
81	0	35144	
82	0	35236	
83	0	35356	
84	0	35480	
85	0	35568	
86	0	35648	
87	0	35772	
88	0	35856	
89	0	35944	
90	0	36056	
91	0	36160	
92	0	36256	
93	0	36312	
94	0	36340	
95	0	36416	
96	0	36504	
97	0	36550	
98	0	36584	
99	0	36620	
100	0	36652	
101	0	36666	
102	0	36664	
103	0	36648	
104	0	36648	
105	0	36664	
106	0	36682	
107	0	36708	
108	0	36740	
109	0	36724	
110	0	36720	
111	0	36744	
112	0	36732	
113	0	36720	
114	0	36716	
115	0	36740	
116	0	36760	
117	0	36704	
118	0	36624	
119	0	36544	
120	0	36532	
121	0	36528	
122	0	36504	
123	0	36440	
124	0	36376	
125	0	36304	
126	0	36244	
127	0	36216	
128	0	36188	
129	0	36120	
130	0	36000	
131	0	35896	
132	0	35772	
133	0	35668	
134	0	35580	
135	0	35484	
136	0	35368	
137	0	35240	
138	0	35144	
139	0	35056	
140	0	34952	
141	0	34820	
142	0	34676	
143	0	34564	
144	0	34440	
145	0	34292	
146	0	34136	
147	0	33956	
148	0	33808	
149	0	33616	
150	0	33388	
151	0	33188	
152	0	32960	
153	0	32730	
154	0	32544	
155	0	32338	
156	0	32160	
157	0	31964	
158	0	31784	
159	0	31644	
160	0	31508	
161	0	31408	
162	0	31312	
163	0	31194	
164	0	31032	
165	0	30852	
166	0	30720	
167	0	30614	
168	0	30528	
169	0	30428	
170	0	30332	
171	0	30244	
172	0	30148	
173	0	30076	
174	0	29992	
175	0	29908	
176	0	29824	
177	0	29760	
178	0	29716	
179	0	29664	
180	0	29600	
181	0	29532	
182	0	29470	
183	0	29424	
184	0	29376	
185	0	29316	
186	0	29248	
187	0	29191	
188	0	29172	
189	0	29120	
190	0	29088	
191	0	29072	
192	0	29016	
193	0	28976	
194	0	28976	
195	0	28972	
196	0	28992	
197	0	28996	
198	0	28994	
199	0	28988	
200	0	28972	
201	0	28980	
202	0	29028	
203	0	29088	
204	0	29140	
205	0	29204	
206	0	29280	
207	0	29316	
208	0	29300	
209	0	29258	
210	0	29248	
211	0	29292	
212	0	29336	
213	0	29356	
214	0	29368	
215	0	29368	
216	0	29392	
217	0	29432	
218	0	29484	
219	0	29528	
220	0	29568	
221	0	29600	
222	0	29628	
223	0	29648	
224	0	29664	
225	0	29704	
226	0	29744	
227	0	29772	
228	0	29756	
229	0	29748	
230	0	29788	
231	0	29868	
232	0	29946	
233	0	30008	
234	0	30040	
235	0	30060	
236	0	30072	
237	0	30048	
238	0	30060	
239	0	30128	
240	0	30244	
241	0	30368	
242	0	30432	
243	0	30488	
244	0	30548	
245	0	30612	
246	0	30664	
247	0	30672	
248	0	30648	
249	0	30660	
250	0	30658	
251	0	30652	
252	0	30666	
253	0	30688	
254	0	30720	
255	0	30784	
256	0	30860	
257	0	30920	
258	0	30984	
259	0	31088	
260	0	31202	
261	0	31296	
262	0	31308	
263	0	31304	
264	0	31344	
265	0	31356	
266	0	31328	
267	0	31344	
268	0	31408	
269	0	31448	
270	0	31442	
271	0	31476	
272	0	31552	
273	0	31596	
274	0	31612	
275	0	31604	
276	0	31588	
277	0	31580	
278	0	31588	
279	0	31636	
280	0	31676	
281	0	31700	
282	0	31708	
283	0	31748	
284	0	31744	
285	0	31732	
286	0	31724	
287	0	31776	
288	0	31796	
289	0	31812	
290	0	31824	
291	0	31836	
292	0	31808	
293	0	31768	
294	0	31736	
295	0	31740	
296	0	31772	
297	0	31828	
298	0	31856	
299	0	31878	
300	0	31908	
301	0	31918	
302	0	31940	
303	0	31960	
304	0	31984	
305	0	32044	
306	0	32116	
307	0	32148	
308	0	32184	
309	0	32216	
310	0	32264	
311	0	32304	
312	0	32296	
313	0	32264	
314	0	32232	
315	0	32244	
316	0	32260	
317	0	32244	
318	0	32228	
319	0	32236	
320	0	32240	
321	0	32252	
322	0	32296	
323	0	32332	
324	0	32362	
325	0	32380	
326	0	32384	
327	0	32384	
328	0	32380	
329	0	32336	
330	0	32268	
331	0	32260	
332	0	32288	
333	0	32300	
334	0	32312	
335	0	32320	
336	0	32328	
337	0	32352	
338	0	32388	
339	0	32404	
340	0	32412	
341	0	32406	
342	0	32352	
343	0	32332	
344	0	32328	
345	0	32320	
346	0	32332	
347	0	32364	
348	0	32392	
349	0	32364	
350	0	32324	
351	0	32312	
352	0	32300	
353	0	32280	
354	0	32264	
355	0	32248	
356	0	32280	
357	0	32336	
358	0	32368	
359	0	32344	
360	0	32268	
361	0	32216	
362	0	32224	
363	0	32208	
364	0	32212	
365	0	32236	
366	0	32236	
367	0	32216	
368	0	32216	
369	0	32264	
370	0	32296	
371	0	32332	
372	0	32332	
373	0	32336	
374	0	32336	
375	0	32346	
376	0	32364	
377	0	32392	
378	0	32408	
379	0	32436	
380	0	32480	
381	0	32500	
382	0	32480	
383	0	32496	
384	0	32570	
385	0	32730	
386	0	32876	
387	0	32936	
388	0	32972	
389	0	33044	
390	0	33150	
391	0	33242	
392	0	33320	
393	0	33368	
394	0	33400	
395	0	33408	
396	0	33400	
397	0	33356	
398	0	33344	
399	0	33352	
400	0	33326	
401	0	33332	
402	0	33320	
403	0	33272	
404	0	33284	
405	0	33300	
406	0	33320	
407	0	33354	
408	0	33376	
409	0	33432	
410	0	33548	
411	0	33736	
412	0	33964	
413	0	34228	
414	0	34516	
415	0	34797	
416	0	35024	
417	0	35168	
418	0	35284	
419	0	35352	
420	0	35420	
421	0	35492	
422	0	35504	
423	0	35460	
424	0	35384	
425	0	35256	
426	0	35128	
427	0	34986	
428	0	34872	
429	0	34796	
430	0	34734	
431	0	34628	
432	0	34458	
433	0	34268	
434	0	34100	
435	0	34012	
436	0	33912	
437	0	33788	
438	0	33628	
439	0	33438	
440	0	33260	
441	0	33124	
442	0	33008	
443	0	32964	
444	0	32956	
445	0	32892	
446	0	32816	
447	0	32754	
448	0	32724	
449	0	32680	
450	0	32604	
451	0	32516	
452	0	32408	
453	0	32332	
454	0	32272	
455	0	32224	
456	0	32170	
457	0	32072	
458	0	31940	
459	0	31784	
460	0	31608	
461	0	31448	
462	0	31372	
463	0	31314	
464	0	31232	
465	0	31136	
466	0	31072	
467	0	31048	
468	0	31072	
469	0	31104	
470	0	31104	
471	0	31092	
472	0	31108	
473	0	31128	
474	0	31136	
475	0	31136	
476	0	31124	
477	0	31148	
478	0	31188	
479	0	31216	
480	0	31208	
481	0	31236	
482	0	31264	
483	0	31280	
484	0	31324	
485	0	31392	
486	0	31424	
487	0	31456	
488	0	31476	
489	0	31476	
490	0	31476	
491	0	31528	
492	0	31562	
493	0	31560	
494	0	31548	
495	0	31576	
496	0	31576	
497	0	31588	
498	0	31616	
499	0	31652	
500	0	31664	
501	0	31696	
502	0	31728	
503	0	31748	
504	0	31752	
505	0	31736	
506	0	31624	
507	0	31466	
508	0	31264	
509	0	30922	
510	0	30408	
511	0	29754	
512	0	29128	
513	0	28696	
514	0	28480	
515	0	28500	
516	0	28698	
517	0	29088	
518	0	29704	
519	0	30608	
520	0	31656	
521	0	32946	
522	0	34372	
523	0	35948	
524	0	37668	
525	0	39536	
526	0	41706	
527	0	44128	
528	0	47024	
529	0	50516	
530	0	54244	
531	0	57804	
532	0	61136	
533	0	63212	
534	0	64296	
535	0	64808	
536	0	65052	
537	0	65104	
538	0	65088	
539	0	65004	
540	0	64916	
541	0	64772	
542	0	64672	
543	0	64552	
544	0	61800	
545	0	55180	
546	0	49696	
547	0	45156	
548	0	41356	
549	0	38200	
550	0	35468	
551	0	33006	
552	0	30880	
553	0	29269	
554	0	28140	
555	0	27282	
556	0	26632	
557	0	26148	
558	0	25832	
559	0	25692	
560	0	25628	
561	0	25704	
562	0	25864	
563	0	26048	
564	0	26122	
565	0	26186	
566	0	26304	
567	0	26500	
568	0	26792	
569	0	27200	
570	0	27546	
571	0	27824	
572	0	28080	
573	0	28316	
574	0	28476	
575	0	28604	
576	0	28712	
577	0	28732	
578	0	28756	
579	0	28806	
580	0	28834	
581	0	28840	
582	0	28874	
583	0	28908	
584	0	28942	
585	0	28948	
586	0	28880	
587	0	28816	
588	0	28768	
589	0	28744	
590	0	28752	
591	0	28780	
592	0	28816	
593	0	28854	
594	0	28912	
595	0	28964	
596	0	29034	
597	0	29080	
598	0	29114	
599	0	29184	
600	0	29248	
601	0	29316	
602	0	29368	
603	0	29404	
604	0	29460	
605	0	29490	
606	0	29544	
607	0	29612	
608	0	29660	
609	0	29704	
610	0	29736	
611	0	29792	
612	0	29820	
613	0	29848	
614	0	29852	
615	0	29864	
616	0	29922	
617	0	29952	
618	0	29952	
619	0	29988	
620	0	30004	
621	0	30060	
622	0	30146	
623	0	30210	
624	0	30272	
625	0	30332	
626	0	30400	
627	0	30456	
628	0	30462	
629	0	30476	
630	0	30554	
631	0	30628	
632	0	30676	
633	0	30740	
634	0	30792	
635	0	30796	
636	0	30814	
637	0	30844	
638	0	30896	
639	0	30954	
640	0	31008	
641	0	31016	
642	0	31044	
643	0	31094	
644	0	31120	
645	0	31172	
646	0	31204	
647	0	31224	
648	0	31288	
649	0	31356	
650	0	31420	
651	0	31444	
652	0	31464	
653	0	31488	
654	0	31528	
655	0	31548	
656	0	31576	
657	0	31608	
658	0	31676	
659	0	31728	
660	0	31824	
661	0	31908	
662	0	31964	
663	0	32036	
664	0	32084	
665	0	32098	
666	0	32162	
667	0	32240	
668	0	32324	
669	0	32420	
670	0	32488	
671	0	32536	
672	0	32576	
673	0	32632	
674	0	32652	
675	0	32664	
676	0	32708	
677	0	32740	
678	0	32796	
679	0	32880	
680	0	32912	
681	0	32948	
682	0	32948	
683	0	32916	
684	0	32872	
685	0	32908	
686	0	32988	
687	0	33088	
688	0	33216	
689	0	33368	
690	0	33516	
691	0	33632	
692	0	33728	
693	0	33798	
694	0	33852	
695	0	33940	
696	0	34046	
697	0	34124	
698	0	34204	
699	0	34272	
700	0	34336	
701	0	34424	
702	0	34488	
703	0	34564	
704	0	34676	
705	0	34784	
706	0	34862	
707	0	34976	
708	0	35088	
709	0	35136	
710	0	35152	
711	0	35144	
712	0	35162	
713	0	35224	
714	0	35304	
715	0	35372	
716	0	35392	
717	0	35432	
718	0	35480	
719	0	35552	
720	0	35656	
721	0	35756	
722	0	35832	
723	0	35880	
724	0	35936	
725	0	35992	
726	0	36056	
727	0	36112	
728	0	36160	
729	0	36216	
730	0	36240	
731	0	36256	
732	0	36224	
733	0	36208	
734	0	36228	
735	0	36232	
736	0	36256	
737	0	36248	
738	0	36216	
739	0	36176	
740	0	36184	
741	0	36164	
742	0	36140	
743	0	36104	
744	0	36088	
745	0	36080	
746	0	36044	
747	0	35976	
748	0	35932	
749	0	35904	
750	0	35864	
751	0	35824	
752	0	35784	
753	0	35760	
754	0	35744	
755	0	35716	
756	0	35672	
757	0	35636	
758	0	35578	
759	0	35512	
760	0	35444	
761	0	35336	
762	0	35194	
763	0	35072	
764	0	34992	
765	0	34924	
766	0	34872	
767	0	34812	
768	0	34744	
769	0	34648	
770	0	34556	
771	0	34408	
772	0	34224	
773	0	34048	
774	0	33882	
775	0	33716	
776	0	33600	
777	0	33488	
778	0	33388	
779	0	33268	
780	0	33068	
781	0	32824	
782	0	32652	
783	0	32504	
784	0	32344	
785	0	32236	
786	0	32130	
787	0	31956	
788	0	31732	
789	0	31536	
790	0	31346	
791	0	31196	
792	0	31040	
793	0	30868	
794	0	30688	
795	0	30502	
796	0	30338	
797	0	30188	
798	0	30082	
799	0	29972	
800	0	29896	
801	0	29860	
802	0	29800	
803	0	29792	
804	0	29760	
805	0	29680	
806	0	29600	
807	0	29530	
808	0	29488	
809	0	29468	
810	0	29440	
811	0	29388	
812	0	29352	
813	0	29338	
814	0	29280	
815	0	29252	
816	0	29212	
817	0	29208	
818	0	29144	
819	0	29116	
820	0	29088	
821	0	29056	
822	0	29012	
823	0	28948	
824	0	28932	
825	0	28928	
826	0	28920	
827	0	28940	
828	0	28984	
829	0	29012	
830	0	29058	
831	0	29104	
832	0	29136	
833	0	29146	
834	0	29152	
835	0	29170	
836	0	29172	
837	0	29176	
838	0	29204	
839	0	29216	
840	0	29248	
841	0	29244	
842	0	29260	
843	0	29296	
844	0	29376	
845	0	29420	
846	0	29416	
847	0	29436	
848	0	29464	
849	0	29464	
850	0	29432	
851	0	29436	
852	0	29476	
853	0	29508	
854	0	29546	
855	0	29612	
856	0	29688	
857	0	29752	
858	0	29820	
859	0	29932	
860	0	30034	
861	0	30132	
862	0	30192	
863	0	30208	
864	0	30240	
865	0	30272	
866	0	30324	
867	0	30336	
868	0	30376	
869	0	30420	
870	0	30484	
871	0	30532	
872	0	30522	
873	0	30540	
874	0	30552	
875	0	30602	
876	0	30624	
877	0	30650	
878	0	30628	
879	0	30634	
880	0	30648	
881	0	30704	
882	0	30764	
883	0	30816	
884	0	30888	
885	0	30948	
886	0	31020	
887	0	31052	
888	0	31092	
889	0	31152	
890	0	31220	
891	0	31272	
892	0	31292	
893	0	31276	
894	0	31240	
895	0	31212	
896	0	31248	
897	0	31324	
898	0	31364	
899	0	31396	
900	0	31440	
901	0	31460	
902	0	31480	
903	0	31496	
904	0	31520	
905	0	31584	
906	0	31642	
907	0	31716	
908	0	31800	
909	0	31822	
910	0	31808	
911	0	31820	
912	0	31832	
913	0	31792	
914	0	31788	
915	0	31840	
916	0	31880	
917	0	31900	
918	0	31932	
919	0	31908	
920	0	31884	
921	0	31888	
922	0	31912	
923	0	31944	
924	0	31944	
925	0	31960	
926	0	32008	
927	0	32052	
928	0	32060	
929	0	32036	
930	0	31968	
931	0	31924	
932	0	31940	
933	0	32008	
934	0	32080	
935	0	32128	
936	0	32136	
937	0	32144	
938	0	32156	
939	0	32180	
940	0	32224	
941	0	32236	
942	0	32252	
943	0	32256	
944	0	32276	
945	0	32312	
946	0	32340	
947	0	32372	
948	0	32360	
949	0	32364	
950	0	32400	
951	0	32420	
952	0	32360	
953	0	32276	
954	0	32180	
955	0	32100	
956	0	32058	
957	0	32040	
958	0	32048	
959	0	32128	
960	0	32216	
961	0	32264	
962	0	32304	
963	0	32352	
964	0	32372	
965	0	32384	
966	0	32392	
967	0	32426	
968	0	32428	
969	0	32394	
970	0	32384	
971	0	32380	
972	0	32388	
973	0	32384	
974	0	32404	
975	0	32388	
976	0	32336	
977	0	32314	
978	0	32356	
979	0	32408	
980	0	32432	
981	0	32424	
982	0	32368	
983	0	32334	
984	0	32352	
985	0	32352	
986	0	32344	
987	0	32320	
988	0	32300	
989	0	32316	
990	0	32344	
991	0	32338	
992	0	32368	
993	0	32400	
994	0	32392	
995	0	32384	
996	0	32392	
997	0	32384	
998	0	32400	
999	0	32440	
1000	0	32448	
1001	0	32436	
1002	0	32398	
1003	0	32356	
1004	0	32336	
1005	0	32308	
1006	0	32314	
1007	0	32316	
1008	0	32312	
1009	0	32292	
1010	0	32304	
1011	0	32384	
1012	0	32424	
1013	0	32384	
1014	0	32332	
1015	0	32300	
1016	0	32304	
1017	0	32300	
1018	0	32316	
1019	0	32356	
1020	0	32368	
1021	0	32360	
1022	0	32350	
1023	0	32324	
1024	0	32336	
1025	0	32324	
1026	0	32332	
1027	0	32320	
1028	0	32300	
1029	0	32312	
1030	0	32344	
1031	0	32352	
1032	0	32360	
1033	0	32328	
1034	0	32340	
1035	0	32364	
1036	0	32392	
1037	0	32392	
1038	0	32408	
1039	0	32448	
1040	0	32478	
1041	0	32524	
1042	0	32530	
1043	0	32498	
1044	0	32464	
1045	0	32468	
1046	0	32472	
1047	0	32484	
1048	0	32504	
1049	0	32494	
1050	0	32524	
1051	0	32588	
1052	0	32636	
1053	0	32632	
1054	0	32660	
1055	0	32724	
1056	0	32800	
1057	0	32888	
1058	0	32996	
1059	0	33060	
1060	0	33108	
1061	0	33216	
1062	0	33320	
1063	0	33436	
1064	0	33524	
1065	0	33512	
1066	0	33492	
1067	0	33500	
1068	0	33516	
1069	0	33512	
1070	0	33496	
1071	0	33452	
1072	0	33408	
1073	0	33352	
1074	0	33364	
1075	0	33380	
1076	0	33368	
1077	0	33356	
1078	0	33420	
1079	0	33518	
1080	0	33588	
1081	0	33644	
1082	0	33788	
1083	0	34024	
1084	0	34288	
1085	0	34584	
1086	0	34816	
1087	0	34976	
1088	0	35104	
1089	0	35208	
1090	0	35282	
1091	0	35396	
1092	0	35512	
1093	0	35592	
1094	0	35580	
1095	0	35504	
1096	0	35404	
1097	0	35332	
1098	0	35260	
1099	0	35180	
1100	0	35070	
1101	0	34916	
1102	0	34740	
1103	0	34552	
1104	0	34388	
1105	0	34228	
1106	0	34096	
1107	0	33968	
1108	0	33820	
1109	0	33688	
1110	0	33558	
1111	0	33434	
1112	0	33336	
1113	0	33306	
1114	0	33280	
1115	0	33240	
1116	0	33160	
1117	0	33072	
1118	0	32988	
1119	0	32968	
1120	0	32968	
1121	0	32960	
1122	0	32848	
1123	0	32720	
1124	0	32584	
1125	0	32488	
1126	0	32416	
1127	0	32352	
1128	0	32292	
1129	0	32228	
1130	0	32116	
1131	0	31980	
1132	0	31876	
1133	0	31750	
1134	0	31648	
1135	0	31588	
1136	0	31536	
1137	0	31500	
1138	0	31464	
1139	0	31456	
1140	0	31442	
1141	0	31440	
1142	0	31452	
1143	0	31440	
1144	0	31422	
1145	0	31380	
1146	0	31332	
1147	0	31256	
1148	0	31244	
1149	0	31302	
1150	0	31396	
1151	0	31484	
1152	0	31528	
1153	0	31544	
1154	0	31601	
1155	0	31652	
1156	0	31696	
1157	0	31748	
1158	0	31816	
1159	0	31900	
1160	0	31946	
1161	0	31956	
1162	0	31952	
1163	0	31912	
1164	0	31904	
1165	0	31920	
1166	0	31936	
1167	0	31920	
1168	0	31916	
1169	0	31938	
1170	0	31982	
1171	0	32008	
1172	0	32028	
1173	0	32008	
1174	0	32008	
1175	0	31960	
1176	0	31904	
1177	0	31760	
1178	0	31552	
1179	0	31264	
1180	0	30816	
1181	0	30156	
1182	0	29440	
1183	0	28888	
1184	0	28592	
1185	0	28464	
1186	0	28490	
1187	0	28684	
1188	0	29104	
1189	0	29780	
1190	0	30710	
1191	0	31824	
1192	0	33096	
1193	0	34544	
1194	0	36216	
1195	0	38000	
1196	0	40016	
1197	0	42328	
1198	0	44940	
1199	0	48160	
1200	0	51824	
1201	0	55520	
1202	0	59040	
1203	0	62024	
1204	0	63684	
1205	0	64548	
1206	0	64976	
1207	0	65120	
1208	0	65156	
1209	0	65128	
1210	0	65028	
1211	0	64916	
1212	0	64808	
1213	0	64680	
1214	0	64536	
1215	0	58196	
1216	0	52312	
1217	0	47524	
1218	0	43552	
1219	0	40272	
1220	0	37532	
1221	0	35096	
1222	0	32884	
1223	0	30960	
1224	0	29410	
1225	0	28164	
1226	0	27208	
1227	0	26500	
1228	0	26004	
1229	0	25768	
1230	0	25640	
1231	0	25608	
1232	0	25740	
1233	0	25960	
1234	0	26100	
1235	0	26208	
1236	0	26336	
1237	0	26552	
1238	0	26816	
1239	0	27128	
1240	0	27460	
1241	0	27812	
1242	0	28120	
1243	0	28380	
1244	0	28610	
1245	0	28804	
1246	0	28944	
1247	0	29040	
1248	0	29124	
1249	0	29156	
1250	0	29172	
1251	0	29196	
1252	0	29176	
1253	0	29152	
1254	0	29152	
1255	0	29124	
1256	0	29096	
1257	0	29024	
1258	0	29024	
1259	0	29036	
1260	0	29088	
1261	0	29120	
1262	0	29196	
1263	0	29252	
1264	0	29300	
1265	0	29328	
1266	0	29352	
1267	0	29396	
1268	0	29432	
1269	0	29452	
1270	0	29488	
1271	0	29544	
1272	0	29524	
1273	0	29512	
1274	0	29520	
1275	0	29572	
1276	0	29620	
1277	0	29664	
1278	0	29748	
1279	0	29818	
1280	0	29868	
1281	0	29916	
1282	0	29976	
1283	0	30040	
1284	0	30120	
1285	0	30218	
1286	0	30266	
1287	0	30208	
1288	0	30180	
1289	0	30188	
1290	0	30204	
1291	0	30256	
1292	0	30324	
1293	0	30352	
1294	0	30416	
1295	0	30484	
1296	0	30540	
1297	0	30616	
1298	0	30692	
1299	0	30754	
1300	0	30800	
1301	0	30848	
1302	0	30852	
1303	0	30868	
1304	0	30880	
1305	0	30880	
1306	0	30904	
1307	0	30952	
1308	0	31036	
1309	0	31120	
1310	0	31204	
1311	0	31290	
1312	0	31364	
1313	0	31424	
1314	0	31448	
1315	0	31462	
1316	0	31536	
1317	0	31660	
1318	0	31754	
1319	0	31760	
1320	0	31728	
1321	0	31678	
1322	0	31664	
1323	0	31724	
1324	0	31802	
1325	0	31880	
1326	0	31940	
1327	0	31994	
1328	0	32048	
1329	0	32108	
1330	0	32140	
1331	0	32180	
1332	0	32240	
1333	0	32264	
1334	0	32292	
1335	0	32312	
1336	0	32380	
1337	0	32472	
1338	0	32560	
1339	0	32596	
1340	0	32666	
1341	0	32764	
1342	0	32848	
1343	0	32912	
1344	0	32984	
1345	0	33064	
1346	0	33090	
1347	0	33108	
1348	0	33152	
1349	0	33200	
1350	0	33252	
1351	0	33316	
1352	0	33372	
1353	0	33376	
1354	0	33408	
1355	0	33476	
1356	0	33536	
1357	0	33620	
1358	0	33672	
1359	0	33716	
1360	0	33732	
1361	0	33792	
1362	0	33868	
1363	0	33928	
1364	0	34004	
1365	0	34092	
1366	0	34160	
1367	0	34204	
1368	0	34252	
1369	0	34348	
1370	0	34448	
1371	0	34544	
1372	0	34632	
1373	0	34720	
1374	0	34792	
1375	0	34856	
1376	0	34896	
1377	0	34984	
1378	0	35056	
1379	0	35120	
1380	0	35184	
1381	0	35232	
1382	0	35248	
1383	0	35252	
1384	0	35276	
1385	0	35316	
1386	0	35384	
1387	0	35444	
1388	0	35490	
1389	0	35554	
1390	0	35600	
1391	0	35640	
1392	0	35652	
1393	0	35696	
1394	0	35712	
1395	0	35776	
1396	0	35832	
1397	0	35892	
1398	0	35940	
1399	0	35972	
1400	0	36012	
1401	0	36026	
1402	0	36064	
1403	0	36080	
1404	0	36064	
1405	0	36012	
1406	0	35992	
1407	0	36064	
1408	0	36104	
1409	0	36128	
1410	0	36108	
1411	0	36064	
1412	0	35984	
1413	0	35948	
1414	0	35912	
1415	0	35852	
1416	0	35804	
1417	0	35760	
1418	0	35740	
1419	0	35732	
1420	0	35704	
1421	0	35644	
1422	0	35636	
1423	0	35620	
1424	0	35648	
1425	0	35644	
1426	0	35568	
1427	0	35456	
1428	0	35356	
1429	0	35240	
1430	0	35128	
1431	0	35080	
1432	0	35046	
1433	0	35024	
1434	0	35016	
1435	0	35006	
1436	0	34932	
1437	0	34820	
1438	0	34744	
1439	0	34680	
1440	0	34576	
1441	0	34448	
1442	0	34336	
1443	0	34212	
1444	0	34112	
1445	0	33988	
1446	0	33836	
1447	0	33696	
1448	0	33580	
1449	0	33484	
1450	0	33376	
1451	0	33254	
1452	0	33084	
1453	0	32852	
1454	0	32684	
1455	0	32536	
1456	0	32372	
1457	0	32156	
1458	0	31972	
1459	0	31816	
1460	0	31676	
1461	0	31584	
1462	0	31512	
1463	0	31416	
1464	0	31292	
1465	0	31228	
1466	0	31168	
1467	0	31096	
1468	0	30976	
1469	0	30852	
1470	0	30748	
1471	0	30660	
1472	0	30588	
1473	0	30516	
1474	0	30476	
1475	0	30428	
1476	0	30352	
1477	0	30216	
1478	0	30048	
1479	0	29916	
1480	0	29792	
1481	0	29694	
1482	0	29632	
1483	0	29616	
1484	0	29580	
1485	0	29580	
1486	0	29584	
1487	0	29580	
1488	0	29568	
1489	0	29528	
1490	0	29512	
1491	0	29496	
1492	0	29468	
1493	0	29432	
1494	0	29394	
1495	0	29370	
1496	0	29364	
1497	0	29396	
1498	0	29444	
1499	0	29472	
1500	0	29448	
1501	0	29408	
1502	0	29396	
1503	0	29404	
1504	0	29428	
1505	0	29444	
1506	0	29482	
1507	0	29496	
1508	0	29536	
1509	0	29556	
1510	0	29604	
1511	0	29656	
1512	0	29688	
1513	0	29684	
1514	0	29660	
1515	0	29674	
1516	0	29676	
1517	0	29652	
1518	0	29600	
1519	0	29582	
1520	0	29636	
1521	0	29708	
1522	0	29796	
1523	0	29896	
1524	0	29984	
1525	0	30060	
1526	0	30084	
1527	0	30112	
1528	0	30184	
1529	0	30268	
1530	0	30272	
1531	0	30260	
1532	0	30268	
1533	0	30300	
1534	0	30338	
1535	0	30400	
1536	0	30416	
1537	0	30444	
1538	0	30496	
1539	0	30552	
1540	0	30630	
1541	0	30708	
1542	0	30780	
1543	0	30844	
1544	0	30886	
1545	0	30916	
1546	0	30916	
1547	0	30908	
1548	0	30900	
1549	0	30904	
1550	0	30880	
1551	0	30864	
1552	0	30868	
1553	0	30928	
1554	0	30984	
1555	0	31024	
1556	0	31066	
1557	0	31120	
1558	0	31176	
1559	0	31228	
1560	0	31296	
1561	0	31372	
1562	0	31412	
1563	0	31488	
1564	0	31536	
1565	0	31586	
1566	0	31648	
1567	0	31664	
1568	0	31676	
1569	0	31704	
1570	0	31716	
1571	0	31756	
1572	0	31788	
1573	0	31800	
1574	0	31778	
1575	0	31752	
1576	0	31688	
1577	0	31632	
1578	0	31658	
1579	0	31692	
1580	0	31688	
1581	0	31680	
1582	0	31688	
1583	0	31680	
1584	0	31680	
1585	0	31708	
1586	0	31724	
1587	0	31740	
1588	0	31748	
1589	0	31768	
1590	0	31824	
1591	0	31880	
1592	0	31940	
1593	0	31996	
1594	0	32016	
1595	0	32022	
1596	0	32032	
1597	0	32036	
1598	0	32048	
1599	0	32060	
1600	0	32052	
1601	0	32076	
1602	0	32080	
1603	0	32088	
1604	0	32100	
1605	0	32102	
1606	0	32128	
1607	0	32120	
1608	0	32088	
1609	0	32104	
1610	0	32144	
1611	0	32128	
1612	0	32060	
1613	0	32012	
1614	0	31980	
1615	0	31996	
1616	0	32022	
1617	0	32064	
1618	0	32092	
1619	0	32112	
1620	0	32172	
1621	0	32218	
1622	0	32236	
1623	0	32250	
1624	0	32288	
1625	0	32284	
1626	0	32258	
1627	0	32252	
1628	0	32252	
1629	0	32224	
1630	0	32192	
1631	0	32180	
1632	0	32216	
1633	0	32248	
1634	0	32266	
1635	0	32250	
1636	0	32244	
1637	0	32228	
1638	0	32236	
1639	0	32240	
1640	0	32200	
1641	0	32176	
1642	0	32204	
1643	0	32232	
1644	0	32224	
1645	0	32232	
1646	0	32282	
1647	0	32300	
1648	0	32312	
1649	0	32304	
1650	0	32252	
1651	0	32220	
1652	0	32224	
1653	0	32208	
1654	0	32176	
1655	0	32164	
1656	0	32180	
1657	0	32184	
1658	0	32186	
1659	0	32192	
1660	0	32170	
1661	0	32160	
1662	0	32136	
1663	0	32096	
1664	0	32092	
1665	0	32096	
1666	0	32128	
1667	0	32172	
1668	0	32176	
1669	0	32152	
1670	0	32100	
1671	0	32068	
1672	0	32084	
1673	0	32088	
1674	0	32128	
1675	0	32154	
1676	0	32172	
1677	0	32188	
1678	0	32164	
1679	0	32140	
1680	0	32124	
1681	0	32160	
1682	0	32224	
1683	0	32280	
1684	0	32280	
1685	0	32240	
1686	0	32192	
1687	0	32188	
1688	0	32184	
1689	0	32208	
1690	0	32216	
1691	0	32260	
1692	0	32296	
1693	0	32304	
1694	0	32308	
1695	0	32288	
1696	0	32244	
1697	0	32180	
1698	0	32152	
1699	0	32144	
1700	0	32194	
1701	0	32280	
1702	0	32298	
1703	0	32328	
1704	0	32320	
1705	0	32280	
1706	0	32240	
1707	0	32184	
1708	0	32152	
1709	0	32164	
1710	0	32200	
1711	0	32248	
1712	0	32288	
1713	0	32280	
1714	0	32260	
1715	0	32252	
1716	0	32236	
1717	0	32224	
1718	0	32224	
1719	0	32244	
1720	0	32280	
1721	0	32332	
1722	0	32368	
1723	0	32392	
1724	0	32416	
1725	0	32436	
1726	0	32464	
1727	0	32468	
1728	0	32480	
1729	0	32486	
1730	0	32484	
1731	0	32460	
1732	0	32428	
1733	0	32412	
1734	0	32368	
1735	0	32328	
1736	0	32308	
1737	0	32320	
1738	0	32368	
1739	0	32412	
1740	0	32456	
1741	0	32524	
1742	0	32584	
1743	0	32656	
1744	0	32704	
1745	0	32704	
1746	0	32784	
1747	0	32886	
1748	0	32964	
1749	0	33024	
1750	0	33148	
1751	0	33280	
1752	0	33372	
1753	0	33440	
1754	0	33496	
1755	0	33520	
1756	0	33552	
1757	0	33584	
1758	0	33632	
1759	0	33656	
1760	0	33620	
1761	0	33568	
1762	0	33490	
1763	0	33418	
1764	0	33412	
1765	0	33404	
1766	0	33396	
1767	0	33418	
1768	0	33464	
1769	0	33468	
1770	0	33460	
1771	0	33540	
1772	0	33698	
1773	0	33960	
1774	0	34244	
1775	0	34548	
1776	0	34824	
1777	0	35000	
1778	0	35136	
1779	0	35260	
1780	0	35344	
1781	0	35444	
1782	0	35520	
1783	0	35576	
1784	0	35544	
1785	0	35448	
1786	0	35348	
1787	0	35264	
1788	0	35156	
1789	0	35056	
1790	0	34976	
1791	0	34888	
1792	0	34720	
1793	0	34544	
1794	0	34392	
1795	0	34256	
1796	0	34160	
1797	0	34032	
1798	0	33824	
1799	0	33636	
1800	0	33474	
1801	0	33344	
1802	0	33218	
1803	0	33144	
1804	0	33104	
1805	0	33080	
1806	0	33000	
1807	0	32924	
1808	0	32868	
1809	0	32872	
1810	0	32868	
1811	0	32860	
1812	0	32820	
1813	0	32764	
1814	0	32688	
1815	0	32588	
1816	0	32510	
1817	0	32420	
1818	0	32300	
1819	0	32176	
1820	0	32064	
1821	0	31956	
1822	0	31830	
1823	0	31616	
1824	0	31456	
1825	0	31380	
1826	0	31368	
1827	0	31376	
1828	0	31388	
1829	0	31416	
1830	0	31432	
1831	0	31400	
1832	0	31376	
1833	0	31384	
1834	0	31456	
1835	0	31492	
1836	0	31512	
1837	0	31548	
1838	0	31596	
1839	0	31608	
1840	0	31562	
1841	0	31572	
1842	0	31648	
1843	0	31688	
1844	0	31688	
1845	0	31728	
1846	0	31756	
1847	0	31716	
1848	0	31668	
1849	0	31656	
1850	0	31668	
1851	0	31660	
1852	0	31632	
1853	0	31624	
1854	0	31660	
1855	0	31724	
1856	0	31764	
1857	0	31808	
1858	0	31852	
1859	0	31908	
1860	0	31948	
1861	0	31996	
1862	0	32056	
1863	0	32112	
1864	0	32120	
1865	0	32096	
1866	0	32008	
1867	0	31828	
1868	0	31574	
1869	0	31188	
1870	0	30644	
1871	0	29952	
1872	0	29264	
1873	0	28788	
1874	0	28548	
1875	0	28532	
1876	0	28660	
1877	0	28928	
1878	0	29400	
1879	0	30176	
1880	0	31148	
1881	0	32266	
1882	0	33594	
1883	0	35152	
1884	0	36892	
1885	0	38700	
1886	0	40868	
1887	0	43396	
1888	0	46308	
1889	0	49820	
1890	0	53536	
1891	0	57156	
1892	0	60576	
1893	0	62880	
1894	0	64080	
1895	0	64672	
1896	0	64924	
1897	0	65018	
1898	0	64992	
1899	0	64920	
1900	0	64832	
1901	0	64716	
1902	0	64588	
1903	0	64468	
1904	0	60932	
1905	0	54656	
1906	0	49512	
1907	0	45304	
1908	0	41856	
1909	0	39036	
1910	0	36584	
1911	0	34280	
1912	0	32172	
1913	0	30328	
1914	0	28800	
1915	0	27564	
1916	0	26600	
1917	0	25844	
1918	0	25448	
1919	0	25280	
1920	0	25280	
1921	0	25392	
1922	0	25588	
1923	0	25748	
1924	0	25884	
1925	0	26048	
1926	0	26264	
1927	0	26544	
1928	0	26844	
1929	0	27208	
1930	0	27592	
1931	0	27964	
1932	0	28280	
1933	0	28564	
1934	0	28800	
1935	0	28980	
1936	0	29044	
1937	0	29088	
1938	0	29102	
1939	0	29088	
1940	0	29072	
1941	0	29048	
1942	0	29032	
1943	0	29058	
1944	0	29096	
1945	0	29124	
1946	0	29104	
1947	0	29116	
1948	0	29132	
1949	0	29152	
1950	0	29136	
1951	0	29088	
1952	0	29088	
1953	0	29104	
1954	0	29116	
1955	0	29136	
1956	0	29156	
1957	0	29190	
1958	0	29228	
1959	0	29276	
1960	0	29368	
1961	0	29450	
1962	0	29530	
1963	0	29584	
1964	0	29606	
1965	0	29656	
1966	0	29720	
1967	0	29760	
1968	0	29808	
1969	0	29868	
1970	0	29912	
1971	0	29936	
1972	0	29964	
1973	0	30028	
1974	0	30084	
1975	0	30128	
1976	0	30148	
1977	0	30144	
1978	0	30108	
1979	0	30056	
1980	0	30072	
1981	0	30116	
1982	0	30176	
1983	0	30280	
1984	0	30384	
1985	0	30460	
1986	0	30540	
1987	0	30616	
1988	0	30672	
1989	0	30732	
1990	0	30804	
1991	0	30846	
1992	0	30864	
1993	0	30924	
1994	0	30964	
1995	0	31002	
1996	0	31036	
1997	0	31068	
1998	0	31104	
1999	0	31160	
2000	0	31224	
2001	0	31280	
2002	0	31336	
2003	0	31388	
2004	0	31396	
2005	0	31440	
2006	0	31492	
2007	0	31540	
2008	0	31562	
2009	0	31608	
2010	0	31612	
2011	0	31624	
2012	0	31660	
2013	0	31704	
2014	0	31744	
2015	0	31800	
2016	0	31884	
2017	0	31944	
2018	0	31976	
2019	0	32000	
2020	0	32032	
2021	0	32088	
2022	0	32136	
2023	0	32208	
2024	0	32276	
2025	0	32352	
2026	0	32404	
2027	0	32480	
2028	0	32544	
2029	0	32588	
2030	0	32684	
2031	0	32754	
2032	0	32818	
2033	0	32872	
2034	0	32912	
2035	0	32940	
2036	0	32990	
2037	0	33018	
2038	0	33024	
2039	0	33032	
2040	0	33072	
2041	0	33124	
2042	0	33228	
2043	0	33322	
2044	0	33388	
2045	0	33460	
2046	0	33524	
2047	0	33600	
2048	0	33660	
2049	0	33724	
2050	0	33820	
2051	0	33928	
2052	0	34024	
2053	0	34088	
2054	0	34156	
2055	0	34176	
2056	0	34175	
2057	0	34168	
2058	0	34200	
2059	0	34264	
2060	0	34304	
2061	0	34368	
2062	0	34424	
2063	0	34472	
2064	0	34556	
2065	0	34604	
2066	0	34662	
2067	0	34736	
2068	0	34796	
2069	0	34880	
2070	0	34940	
2071	0	35012	
2072	0	35114	
2073	0	35204	
2074	0	35256	
2075	0	35292	
2076	0	35336	
2077	0	35360	
2078	0	35400	
2079	0	35434	
2080	0	35472	
2081	0	35532	
2082	0	35624	
2083	0	35688	
2084	0	35680	
2085	0	35684	
2086	0	35716	
2087	0	35752	
2088	0	35772	
2089	0	35792	
2090	0	35810	
2091	0	35724	
2092	0	35664	
2093	0	35624	
2094	0	35648	
2095	0	35672	
2096	0	35704	
2097	0	35644	
2098	0	35560	
2099	0	35444	
2100	0	35328	
2101	0	35248	
2102	0	35248	
2103	0	35320	
2104	0	35372	
2105	0	35364	
2106	0	35316	
2107	0	35252	
2108	0	35192	
2109	0	35136	
2110	0	35136	
2111	0	35192	
2112	0	35224	
2113	0	35168	
2114	0	35092	
2115	0	34992	
2116	0	34912	
2117	0	34832	
2118	0	34754	
2119	0	34712	
2120	0	34660	
2121	0	34612	
2122	0	34560	
2123	0	34556	
2124	0	34556	
2125	0	34464	
2126	0	34376	
2127	0	34304	
2128	0	34200	
2129	0	34096	
2130	0	34024	
2131	0	33984	
2132	0	33896	
2133	0	33756	
2134	0	33652	
2135	0	33536	
2136	0	33420	
2137	0	33292	
2138	0	33120	
2139	0	33024	
2140	0	32940	
2141	0	32828	
2142	0	32708	
2143	0	32612	
2144	0	32524	
2145	0	32432	
2146	0	32340	
2147	0	32208	
2148	0	32004	
2149	0	31838	
2150	0	31684	
2151	0	31600	
2152	0	31524	
2153	0	31404	
2154	0	31296	
2155	0	31188	
2156	0	31092	
2157	0	30968	
2158	0	30848	
2159	0	30778	
2160	0	30708	
2161	0	30626	
2162	0	30536	
2163	0	30444	
2164	0	30368	
2165	0	30276	
2166	0	30210	
2167	0	30170	
2168	0	30100	
2169	0	30020	
2170	0	29966	
2171	0	29908	
2172	0	29858	
2173	0	29792	
2174	0	29728	
2175	0	29656	
2176	0	29596	
2177	0	29528	
2178	0	29480	
2179	0	29440	
2180	0	29428	
2181	0	29420	
2182	0	29408	
2183	0	29424	
2184	0	29452	
2185	0	29448	
2186	0	29440	
2187	0	29432	
2188	0	29444	
2189	0	29460	
2190	0	29456	
2191	0	29464	
2192	0	29444	
2193	0	29432	
2194	0	29468	
2195	0	29504	
2196	0	29528	
2197	0	29552	
2198	0	29584	
2199	0	29640	
2200	0	29690	
2201	0	29728	
2202	0	29756	
2203	0	29736	
2204	0	29720	
2205	0	29744	
2206	0	29748	
2207	0	29780	
2208	0	29828	
2209	0	29872	
2210	0	29932	
2211	0	29984	
2212	0	30052	
2213	0	30104	
2214	0	30140	
2215	0	30184	
2216	0	30216	
2217	0	30232	
2218	0	30264	
2219	0	30292	
2220	0	30312	
2221	0	30324	
2222	0	30372	
2223	0	30426	
2224	0	30508	
2225	0	30578	
2226	0	30656	
2227	0	30714	
2228	0	30772	
2229	0	30824	
2230	0	30890	
2231	0	30936	
2232	0	30976	
2233	0	31020	
2234	0	31080	
2235	0	31140	
2236	0	31168	
2237	0	31152	
2238	0	31136	
2239	0	31124	
2240	0	31156	
2241	0	31192	
2242	0	31272	
2243	0	31312	
2244	0	31320	
2245	0	31336	
2246	0	31368	
2247	0	31393	
2248	0	31448	
2249	0	31514	
2250	0	31564	
2251	0	31528	
2252	0	31516	
2253	0	31560	
2254	0	31632	
2255	0	31672	
2256	0	31696	
2257	0	31724	
2258	0	31736	
2259	0	31714	
2260	0	31704	
2261	0	31692	
2262	0	31696	
2263	0	31720	
2264	0	31776	
2265	0	31860	
2266	0	31928	
2267	0	31956	
2268	0	31972	
2269	0	31976	
2270	0	31970	
2271	0	31968	
2272	0	31972	
2273	0	31968	
2274	0	31996	
2275	0	32016	
2276	0	31988	
2277	0	31952	
2278	0	31924	
2279	0	31964	
2280	0	32008	
2281	0	32064	
2282	0	32108	
2283	0	32120	
2284	0	32136	
2285	0	32120	
2286	0	32090	
2287	0	32112	
2288	0	32154	
2289	0	32192	
2290	0	32184	
2291	0	32196	
2292	0	32188	
2293	0	32192	
2294	0	32196	
2295	0	32212	
2296	0	32236	
2297	0	32244	
2298	0	32240	
2299	0	32216	
2300	0	32240	
2301	0	32268	
2302	0	32316	
2303	0	32364	
2304	0	32336	
2305	0	32256	
2306	0	32196	
2307	0	32188	
2308	0	32192	
2309	0	32200	
2310	0	32244	
2311	0	32296	
2312	0	32304	
2313	0	32308	
2314	0	32304	
2315	0	32272	
2316	0	32228	
2317	0	32224	
2318	0	32200	
2319	0	32168	
2320	0	32120	
2321	0	32048	
2322	0	32016	
2323	0	32048	
2324	0	32124	
2325	0	32176	
2326	0	32180	
2327	0	32200	
2328	0	32224	
2329	0	32244	
2330	0	32236	
2331	0	32236	
2332	0	32276	
2333	0	32320	
2334	0	32300	
2335	0	32300	
2336	0	32312	
2337	0	32304	
2338	0	32284	
2339	0	32276	
2340	0	32256	
2341	0	32248	
2342	0	32244	
2343	0	32268	
2344	0	32244	
2345	0	32218	
2346	0	32196	
2347	0	32168	
2348	0	32172	
2349	0	32132	
2350	0	32100	
2351	0	32100	
2352	0	32144	
2353	0	32158	
2354	0	32220	
2355	0	32248	
2356	0	32272	
2357	0	32250	
2358	0	32272	
2359	0	32296	
2360	0	32298	
2361	0	32320	
2362	0	32340	
2363	0	32356	
2364	0	32380	
2365	0	32414	
2366	0	32416	
2367	0	32384	
2368	0	32332	
2369	0	32328	
2370	0	32308	
2371	0	32296	
2372	0	32256	
2373	0	32208	
2374	0	32164	
2375	0	32156	
2376	0	32196	
2377	0	32252	
2378	0	32252	
2379	0	32206	
2380	0	32224	
2381	0	32228	
2382	0	32176	
2383	0	32126	
2384	0	32112	
2385	0	32140	
2386	0	32216	
2387	0	32308	
2388	0	32408	
2389	0	32464	
2390	0	32488	
2391	0	32456	
2392	0	32468	
2393	0	32464	
2394	0	32448	
2395	0	32424	
2396	0	32440	
2397	0	32444	
2398	0	32436	
2399	0	32436	
2400	0	32416	
2401	0	32408	
2402	0	32412	
2403	0	32432	
2404	0	32404	
2405	0	32408	
2406	0	32436	
2407	0	32440	
2408	0	32412	
2409	0	32384	
2410	0	32396	
2411	0	32392	
2412	0	32432	
2413	0	32456	
2414	0	32440	
2415	0	32378	
2416	0	32340	
2417	0	32344	
2418	0	32376	
2419	0	32400	
2420	0	32392	
2421	0	32376	
2422	0	32432	
2423	0	32476	
2424	0	32504	
2425	0	32484	
2426	0	32508	
2427	0	32564	
2428	0	32632	
2429	0	32688	
2430	0	32760	
2431	0	32856	
2432	0	32960	
2433	0	33048	
2434	0	33128	
2435	0	33196	
2436	0	33298	
2437	0	33380	
2438	0	33464	
2439	0	33528	
2440	0	33536	
2441	0	33512	
2442	0	33508	
2443	0	33568	
2444	0	33608	
2445	0	33592	
2446	0	33560	
2447	0	33520	
2448	0	33460	
2449	0	33412	
2450	0	33412	
2451	0	33424	
2452	0	33412	
2453	0	33416	
2454	0	33464	
2455	0	33530	
2456	0	33600	
2457	0	33740	
2458	0	33964	
2459	0	34212	
2460	0	34496	
2461	0	34768	
2462	0	34968	
2463	0	35104	
2464	0	35204	
2465	0	35320	
2466	0	35456	
2467	0	35560	
2468	0	35552	
2469	0	35472	
2470	0	35360	
2471	0	35264	
2472	0	35212	
2473	0	35136	
2474	0	35040	
2475	0	34940	
2476	0	34788	
2477	0	34584	
2478	0	34404	
2479	0	34232	
2480	0	34096	
2481	0	34008	
2482	0	33924	
2483	0	33824	
2484	0	33736	
2485	0	33636	
2486	0	33538	
2487	0	33444	
2488	0	33364	
2489	0	33336	
2490	0	33280	
2491	0	33188	
2492	0	33120	
2493	0	33052	
2494	0	33004	
2495	0	32942	
2496	0	32820	
2497	0	32744	
2498	0	32680	
2499	0	32576	
2500	0	32532	
2501	0	32480	
2502	0	32372	
2503	0	32264	
2504	0	32192	
2505	0	32092	
2506	0	31892	
2507	0	31744	
2508	0	31568	
2509	0	31540	
2510	0	31568	
2511	0	31568	
2512	0	31520	
2513	0	31468	
2514	0	31440	
2515	0	31424	
2516	0	31428	
2517	0	31324	
2518	0	31250	
2519	0	31200	
2520	0	31248	
2521	0	31244	
2522	0	31372	
2523	0	31576	
2524	0	31580	
2525	0	31504	
2526	0	31552	
2527	0	31580	
2528	0	31594	
2529	0	31620	
2530	0	31676	
2531	0	31708	
2532	0	31740	
2533	0	31764	
2534	0	31772	
2535	0	31748	
2536	0	31792	
2537	0	31820	
2538	0	31820	
2539	0	31760	
2540	0	31800	
2541	0	31900	
2542	0	31954	
2543	0	31976	
2544	0	31988	
2545	0	31980	
2546	0	32024	
2547	0	32084	
2548	0	32108	
2549	0	32028	
2550	0	31944	
2551	0	31904	
2552	0	31712	
2553	0	31416	
2554	0	30972	
2555	0	30392	
2556	0	29680	
2557	0	29012	
2558	0	28572	
2559	0	28356	
2560	0	28288	
2561	0	28288	
2562	0	28692	
2563	0	29336	
2564	0	30240	
2565	0	31336	
2566	0	32480	
2567	0	33792	
2568	0	35352	
2569	0	37092	
2570	0	38988	
2571	0	41244	
2572	0	43836	
2573	0	46936	
2574	0	50572	
2575	0	54392	
2576	0	58040	
2577	0	61280	
2578	0	63208	
2579	0	64228	
2580	0	64704	
2581	0	64900	
2582	0	64956	
2583	0	64928	
2584	0	64840	
2585	0	64752	
2586	0	64636	
2587	0	64496	
2588	0	64384	
2589	0	59288	
2590	0	53316	
2591	0	48480	
2592	0	44552	
2593	0	41354	
2594	0	38728	
2595	0	36348	
2596	0	34160	
2597	0	32204	
2598	0	30412	
2599	0	28884	
2600	0	27648	
2601	0	26684	
2602	0	26024	
2603	0	25714	
2604	0	25558	
2605	0	25512	
2606	0	25504	
2607	0	25592	
2608	0	25704	
2609	0	25828	
2610	0	26012	
2611	0	26252	
2612	0	26556	
2613	0	26908	
2614	0	27258	
2615	0	27576	
2616	0	27872	
2617	0	28132	
2618	0	28400	
2619	0	28652	
2620	0	28856	
2621	0	28960	
2622	0	28968	
2623	0	28988	
2624	0	29018	
2625	0	29028	
2626	0	29004	
2627	0	28968	
2628	0	28944	
2629	0	28908	
2630	0	28860	
2631	0	28816	
2632	0	28836	
2633	0	28936	
2634	0	29038	
2635	0	29092	
2636	0	29132	
2637	0	29184	
2638	0	29216	
2639	0	29276	
2640	0	29280	
2641	0	29268	
2642	0	29248	
2643	0	29280	
2644	0	29364	
2645	0	29472	
2646	0	29528	
2647	0	29528	
2648	0	29588	
2649	0	29636	
2650	0	29684	
2651	0	29722	
2652	0	29776	
2653	0	29856	
2654	0	29940	
2655	0	29976	
2656	0	29960	
2657	0	29954	
2658	0	29988	
2659	0	30028	
2660	0	30048	
2661	0	30108	
2662	0	30180	
2663	0	30224	
2664	0	30256	
2665	0	30284	
2666	0	30272	
2667	0	30282	
2668	0	30368	
2669	0	30468	
2670	0	30592	
2671	0	30658	
2672	0	30692	
2673	0	30744	
2674	0	30776	
2675	0	30820	
2676	0	30876	
2677	0	30908	
2678	0	30920	
2679	0	30932	
2680	0	30960	
2681	0	31040	
2682	0	31116	
2683	0	31188	
2684	0	31248	
2685	0	31312	
2686	0	31342	
2687	0	31348	
2688	0	31364	
2689	0	31428	
2690	0	31468	
2691	0	31498	
2692	0	31554	
2693	0	31592	
2694	0	31616	
2695	0	31628	
2696	0	31650	
2697	0	31676	
2698	0	31676	
2699	0	31712	
2700	0	31748	
2701	0	31752	
2702	0	31760	
2703	0	31812	
2704	0	31848	
2705	0	31920	
2706	0	32052	
2707	0	32148	
2708	0	32176	
2709	0	32224	
2710	0	32284	
2711	0	32380	
2712	0	32452	
2713	0	32500	
2714	0	32504	
2715	0	32604	
2716	0	32704	
2717	0	32788	
2718	0	32848	
2719	0	32884	
2720	0	32912	
2721	0	32932	
2722	0	32988	
2723	0	33080	
2724	0	33216	
2725	0	33312	
2726	0	33416	
2727	0	33520	
2728	0	33580	
2729	0	33612	
2730	0	33642	
2731	0	33624	
2732	0	33616	
2733	0	33700	
2734	0	33836	
2735	0	33960	
2736	0	34048	
2737	0	34128	
2738	0	34164	
2739	0	34212	
2740	0	34256	
2741	0	34344	
2742	0	34428	
2743	0	34488	
2744	0	34566	
2745	0	34644	
2746	0	34728	
2747	0	34778	
2748	0	34808	
2749	0	34880	
2750	0	34948	
2751	0	34968	
2752	0	34946	
2753	0	34944	
2754	0	34920	
2755	0	34864	
2756	0	34874	
2757	0	34976	
2758	0	35112	
2759	0	35204	
2760	0	35264	
2761	0	35356	
2762	0	35432	
2763	0	35524	
2764	0	35588	
2765	0	35632	
2766	0	35632	
2767	0	35624	
2768	0	35632	
2769	0	35624	
2770	0	35604	
2771	0	35636	
2772	0	35648	
2773	0	35656	
2774	0	35640	
2775	0	35616	
2776	0	35616	
2777	0	35588	
2778	0	35576	
2779	0	35536	
2780	0	35524	
2781	0	35500	
2782	0	35520	
2783	0	35540	
2784	0	35504	
2785	0	35448	
2786	0	35404	
2787	0	35340	
2788	0	35256	
2789	0	35200	
2790	0	35148	
2791	0	35116	
2792	0	35112	
2793	0	35048	
2794	0	34968	
2795	0	34884	
2796	0	34884	
2797	0	34874	
2798	0	34824	
2799	0	34788	
2800	0	34784	
2801	0	34704	
2802	0	34664	
2803	0	34732	
2804	0	34692	
2805	0	34578	
2806	0	34476	
2807	0	34392	
2808	0	34344	
2809	0	34208	
2810	0	34120	
2811	0	34080	
2812	0	34060	
2813	0	34056	
2814	0	33980	
2815	0	33804	
2816	0	33684	
2817	0	33600	
2818	0	33544	
2819	0	33464	
2820	0	33368	
2821	0	33272	
2822	0	33148	
2823	0	32996	
2824	0	32798	
2825	0	32626	
2826	0	32508	
2827	0	32472	
2828	0	32396	
2829	0	32272	
2830	0	32136	
2831	0	31968	
2832	0	31800	
2833	0	31652	
2834	0	31496	
2835	0	31356	
2836	0	31256	
2837	0	31200	
2838	0	31144	
2839	0	31048	
2840	0	30968	
2841	0	30896	
2842	0	30820	
2843	0	30788	
2844	0	30744	
2845	0	30664	
2846	0	30596	
2847	0	30496	
2848	0	30428	
2849	0	30318	
2850	0	30216	
2851	0	30132	
2852	0	30000	
2853	0	29906	
2854	0	29832	
2855	0	29780	
2856	0	29724	
2857	0	29704	
2858	0	29696	
2859	0	29704	
2860	0	29652	
2861	0	29584	
2862	0	29536	
2863	0	29524	
2864	0	29456	
2865	0	29408	
2866	0	29348	
2867	0	29332	
2868	0	29370	
2869	0	29388	
2870	0	29332	
2871	0	29276	
2872	0	29272	
2873	0	29296	
2874	0	29320	
2875	0	29420	
2876	0	29472	
2877	0	29484	
2878	0	29504	
2879	0	29528	
2880	0	29528	
2881	0	29576	
2882	0	29664	
2883	0	29724	
2884	0	29784	
2885	0	29824	
2886	0	29812	
2887	0	29802	
2888	0	29784	
2889	0	29816	
2890	0	29832	
2891	0	29864	
2892	0	29900	
2893	0	29940	
2894	0	29996	
2895	0	30032	
2896	0	30044	
2897	0	30048	
2898	0	30084	
2899	0	30140	
2900	0	30216	
2901	0	30304	
2902	0	30372	
2903	0	30468	
2904	0	30560	
2905	0	30608	
2906	0	30632	
2907	0	30664	
2908	0	30690	
2909	0	30756	
2910	0	30792	
2911	0	30812	
2912	0	30834	
2913	0	30874	
2914	0	30888	
2915	0	30948	
2916	0	31032	
2917	0	31100	
2918	0	31144	
2919	0	31156	
2920	0	31136	
2921	0	31088	
2922	0	31120	
2923	0	31184	
2924	0	31242	
2925	0	31308	
2926	0	31392	
2927	0	31424	
2928	0	31380	
2929	0	31376	
2930	0	31428	
2931	0	31456	
2932	0	31504	
2933	0	31516	
2934	0	31528	
2935	0	31548	
2936	0	31540	
2937	0	31504	
2938	0	31456	
2939	0	31452	
2940	0	31444	
2941	0	31484	
2942	0	31592	
2943	0	31684	
2944	0	31732	
2945	0	31760	
2946	0	31800	
2947	0	31836	
2948	0	31880	
2949	0	31940	
2950	0	31988	
2951	0	31988	
2952	0	31952	
2953	0	31938	
2954	0	31960	
2955	0	31988	
2956	0	31960	
2957	0	31936	
2958	0	31876	
2959	0	31820	
2960	0	31752	
2961	0	31776	
2962	0	31860	
2963	0	31970	
2964	0	32004	
2965	0	32036	
2966	0	32088	
2967	0	32112	
2968	0	32184	
2969	0	32244	
2970	0	32280	
2971	0	32288	
2972	0	32256	
2973	0	32212	
2974	0	32172	
2975	0	32154	
2976	0	32188	
2977	0	32252	
2978	0	32280	
2979	0	32252	
2980	0	32268	
2981	0	32256	
2982	0	32192	
2983	0	32168	
2984	0	32160	
2985	0	32164	
2986	0	32185	
2987	0	32204	
2988	0	32180	
2989	0	32176	
2990	0	32208	
2991	0	32232	
2992	0	32212	
2993	0	32152	
2994	0	32088	
2995	0	32044	
2996	0	32044	
2997	0	32042	
2998	0	32064	
2999	0	32116	
3000	0	32168	
3001	0	32228	
3002	0	32272	
3003	0	32272	
3004	0	32288	
3005	0	32280	
3006	0	32268	
3007	0	32258	
3008	0	32240	
3009	0	32228	
3010	0	32188	
3011	0	32172	
3012	0	32136	
3013	0	32128	
3014	0	32160	
3015	0	32176	
3016	0	32172	
3017	0	32112	
3018	0	32064	
3019	0	32036	
3020	0	32024	
3021	0	32064	
3022	0	32104	
3023	0	32136	
3024	0	32128	
3025	0	32124	
3026	0	32164	
3027	0	32194	
3028	0	32234	
3029	0	32256	
3030	0	32256	
3031	0	32216	
3032	0	32156	
3033	0	32108	
3034	0	32096	
3035	0	32082	
3036	0	32104	
3037	0	32152	
3038	0	32168	
3039	0	32200	
3040	0	32224	
3041	0	32236	
3042	0	32252	
3043	0	32276	
3044	0	32266	
3045	0	32232	
3046	0	32224	
3047	0	32244	
3048	0	32236	
3049	0	32212	
3050	0	32236	
3051	0	32240	
3052	0	32264	
3053	0	32258	
3054	0	32232	
3055	0	32204	
3056	0	32144	
3057	0	32092	
3058	0	32096	
3059	0	32142	
3060	0	32184	
3061	0	32240	
3062	0	32256	
3063	0	32208	
3064	0	32240	
3065	0	32244	
3066	0	32248	
3067	0	32280	
3068	0	32296	
3069	0	32300	
3070	0	32304	
3071	0	32326	
3072	0	32356	
3073	0	32404	
3074	0	32480	
3075	0	32500	
3076	0	32520	
3077	0	32524	
3078	0	32568	
3079	0	32614	
3080	0	32732	
3081	0	32844	
3082	0	32896	
3083	0	32916	
3084	0	32956	
3085	0	33004	
3086	0	33048	
3087	0	33098	
3088	0	33124	
3089	0	33136	
3090	0	33172	
3091	0	33216	
3092	0	33208	
3093	0	33158	
3094	0	33152	
3095	0	33148	
3096	0	33110	
3097	0	33088	
3098	0	33132	
3099	0	33220	
3100	0	33268	
3101	0	33288	
3102	0	33320	
3103	0	33352	
3104	0	33424	
3105	0	33572	
3106	0	33788	
3107	0	34112	
3108	0	34422	
3109	0	34672	
3110	0	34880	
3111	0	34980	
3112	0	35112	
3113	0	35220	
3114	0	35332	
3115	0	35436	
3116	0	35504	
3117	0	35490	
3118	0	35434	
3119	0	35344	
3120	0	35220	
3121	0	35144	
3122	0	35080	
3123	0	35000	
3124	0	34880	
3125	0	34690	
3126	0	34522	
3127	0	34348	
3128	0	34188	
3129	0	34028	
3130	0	33920	
3131	0	33816	
3132	0	33672	
3133	0	33520	
3134	0	33312	
3135	0	33196	
3136	0	33168	
3137	0	33120	
3138	0	33036	
3139	0	32912	
3140	0	32828	
3141	0	32736	
3142	0	32696	
3143	0	32672	
3144	0	32644	
3145	0	32552	
3146	0	32452	
3147	0	32388	
3148	0	32402	
3149	0	32336	
3150	0	32240	
3151	0	32148	
3152	0	32042	
3153	0	31920	
3154	0	31772	
3155	0	31584	
3156	0	31484	
3157	0	31444	
3158	0	31392	
3159	0	31340	
3160	0	31288	
3161	0	31268	
3162	0	31264	
3163	0	31288	
3164	0	31308	
3165	0	31344	
3166	0	31356	
3167	0	31392	
3168	0	31408	
3169	0	31428	
3170	0	31456	
3171	0	31484	
3172	0	31488	
3173	0	31536	
3174	0	31536	
3175	0	31512	
3176	0	31520	
3177	0	31508	
3178	0	31536	
3179	0	31596	
3180	0	31616	
3181	0	31604	
3182	0	31620	
3183	0	31662	
3184	0	31714	
3185	0	31748	
3186	0	31764	
3187	0	31760	
3188	0	31764	
3189	0	31768	
3190	0	31756	
3191	0	31744	
3192	0	31776	
3193	0	31824	
3194	0	31860	
3195	0	31900	
3196	0	31936	
3197	0	31972	
3198	0	31960	
3199	0	31852	
3200	0	31648	
3201	0	31440	
3202	0	31144	
3203	0	30692	
3204	0	30042	
3205	0	29368	
3206	0	28788	
3207	0	28384	
3208	0	28236	
3209	0	28188	
3210	0	28340	
3211	0	28744	
3212	0	29474	
3213	0	30468	
3214	0	31648	
3215	0	32944	
3216	0	34474	
3217	0	36212	
3218	0	38072	
3219	0	40250	
3220	0	42860	
3221	0	45876	
3222	0	49396	
3223	0	53288	
3224	0	57160	
3225	0	60720	
3226	0	62924	
3227	0	64064	
3228	0	64644	
3229	0	64896	
3230	0	64968	
3231	0	64932	
3232	0	64876	
3233	0	64756	
3234	0	64664	
3235	0	64544	
3236	0	64404	
3237	0	61200	
3238	0	54848	
3239	0	49700	
3240	0	45456	
3241	0	41968	
3242	0	39140	
3243	0	36778	
3244	0	34624	
3245	0	32676	
3246	0	30896	
3247	0	29208	
3248	0	27728	
3249	0	26628	
3250	0	25792	
3251	0	25236	
3252	0	24968	
3253	0	24904	
3254	0	25008	
3255	0	25128	
3256	0	25212	
3257	0	25344	
3258	0	25564	
3259	0	25872	
3260	0	26252	
3261	0	26720	
3262	0	27156	
3263	0	27552	
3264	0	27922	
3265	0	28296	
3266	0	28608	
3267	0	28890	
3268	0	29080	
3269	0	29224	
3270	0	29316	
3271	0	29332	
3272	0	29356	
3273	0	29352	
3274	0	29328	
3275	0	29320	
3276	0	29328	
3277	0	29314	
3278	0	29306	
3279	0	29320	
3280	0	29336	
3281	0	29356	
3282	0	29348	
3283	0	29368	
3284	0	29426	
3285	0	29472	
3286	0	29480	
3287	0	29456	
3288	0	29416	
3289	0	29440	
3290	0	29480	
3291	0	29524	
3292	0	29568	
3293	0	29608	
3294	0	29640	
3295	0	29668	
3296	0	29664	
3297	0	29650	
3298	0	29646	
3299	0	29672	
3300	0	29736	
3301	0	29792	
3302	0	29840	
3303	0	29908	
3304	0	29992	
3305	0	30076	
3306	0	30184	
3307	0	30284	
3308	0	30316	
3309	0	30305	
3310	0	30352	
3311	0	30410	
3312	0	30496	
3313	0	30616	
3314	0	30728	
3315	0	30780	
3316	0	30796	
3317	0	30804	
3318	0	30838	
3319	0	30876	
3320	0	30892	
3321	0	30944	
3322	0	31028	
3323	0	31124	
3324	0	31208	
3325	0	31258	
3326	0	31264	
3327	0	31298	
3328	0	31340	
3329	0	31356	
3330	0	31400	
3331	0	31468	
3332	0	31588	
3333	0	31684	
3334	0	31764	
3335	0	31812	
3336	0	31816	
3337	0	31812	
3338	0	31788	
3339	0	31764	
3340	0	31748	
3341	0	31788	
3342	0	31820	
3343	0	31888	
3344	0	31992	
3345	0	32104	
3346	0	32208	
3347	0	32240	
3348	0	32288	
3349	0	32292	
3350	0	32304	
3351	0	32356	
3352	0	32416	
3353	0	32480	
3354	0	32520	
3355	0	32508	
3356	0	32524	
3357	0	32578	
3358	0	32684	
3359	0	32820	
3360	0	32932	
3361	0	32976	
3362	0	33040	
3363	0	33058	
3364	0	33068	
3365	0	33092	
3366	0	33156	
3367	0	33196	
3368	0	33236	
3369	0	33280	
3370	0	33308	
3371	0	33352	
3372	0	33444	
3373	0	33560	
3374	0	33712	
3375	0	33804	
3376	0	33908	
3377	0	34044	
3378	0	34204	
3379	0	34328	
3380	0	34444	
3381	0	34572	
3382	0	34680	
3383	0	34752	
3384	0	34772	
3385	0	34760	
3386	0	34730	
3387	0	34692	
3388	0	34664	
3389	0	34668	
3390	0	34720	
3391	0	34764	
3392	0	34868	
3393	0	34976	
3394	0	35048	
3395	0	35116	
3396	0	35160	
3397	0	35236	
3398	0	35308	
3399	0	35336	
3400	0	35372	
3401	0	35388	
3402	0	35442	
3403	0	35520	
3404	0	35624	
3405	0	35716	
3406	0	35804	
3407	0	35852	
3408	0	35880	
3409	0	35928	
3410	0	35928	
3411	0	35936	
3412	0	35934	
3413	0	35984	
3414	0	36008	
3415	0	36024	
3416	0	36064	
3417	0	36126	
3418	0	36192	
3419	0	36200	
3420	0	36204	
3421	0	36124	
3422	0	36032	
3423	0	35968	
3424	0	35956	
3425	0	35922	
3426	0	35896	
3427	0	35884	
3428	0	35896	
3429	0	35912	
3430	0	35904	
3431	0	35936	
3432	0	35920	
3433	0	35904	
3434	0	35916	
3435	0	35832	
3436	0	35752	
3437	0	35712	
3438	0	35680	
3439	0	35664	
3440	0	35660	
3441	0	35640	
3442	0	35564	
3443	0	35436	
3444	0	35340	
3445	0	35280	
3446	0	35244	
3447	0	35188	
3448	0	35104	
3449	0	35042	
3450	0	34968	
3451	0	34856	
3452	0	34756	
3453	0	34672	
3454	0	34632	
3455	0	34576	
3456	0	34532	
3457	0	34496	
3458	0	34476	
3459	0	34446	
3460	0	34416	
3461	0	34372	
3462	0	34324	
3463	0	34240	
3464	0	34184	
3465	0	34160	
3466	0	34060	
3467	0	33948	
3468	0	33848	
3469	0	33672	
3470	0	33504	
3471	0	33360	
3472	0	33196	
3473	0	33068	
3474	0	32984	
3475	0	32876	
3476	0	32752	
3477	0	32632	
3478	0	32552	
3479	0	32436	
3480	0	32256	
3481	0	32056	
3482	0	31940	
3483	0	31816	
3484	0	31728	
3485	0	31616	
3486	0	31572	
3487	0	31536	
3488	0	31472	
3489	0	31372	
3490	0	31272	
3491	0	31180	
3492	0	31116	
3493	0	31052	
3494	0	30992	
3495	0	30902	
3496	0	30828	
3497	0	30736	
3498	0	30656	
3499	0	30480	
3500	0	30296	
3501	0	30144	
3502	0	30048	
3503	0	29956	
3504	0	29908	
3505	0	29856	
3506	0	29792	
3507	0	29760	
3508	0	29728	
3509	0	29728	
3510	0	29708	
3511	0	29688	
3512	0	29664	
3513	0	29640	
3514	0	29592	
3515	0	29516	
3516	0	29436	
3517	0	29324	
3518	0	29240	
3519	0	29180	
3520	0	29174	
3521	0	29216	
3522	0	29296	
3523	0	29376	
3524	0	29376	
3525	0	29348	
3526	0	29324	
3527	0	29352	
3528	0	29396	
3529	0	29476	
3530	0	29598	
3531	0	29656	
3532	0	29682	
3533	0	29644	
3534	0	29628	
3535	0	29648	
3536	0	29692	
3537	0	29744	
3538	0	29796	
3539	0	29872	
3540	0	29932	
3541	0	29952	
3542	0	29928	
3543	0	29932	
3544	0	29988	
3545	0	30080	
3546	0	30144	
3547	0	30196	
3548	0	30232	
3549	0	30292	
3550	0	30320	
3551	0	30340	
3552	0	30348	
3553	0	30392	
3554	0	30484	
3555	0	30608	
3556	0	30692	
3557	0	30788	
3558	0	30848	
3559	0	30880	
3560	0	30896	
3561	0	30924	
3562	0	30932	
3563	0	30916	
3564	0	30914	
3565	0	30896	
3566	0	30864	
3567	0	30844	
3568	0	30874	
3569	0	30944	
3570	0	30980	
3571	0	31032	
3572	0	31076	
3573	0	31162	
3574	0	31276	
3575	0	31304	
3576	0	31320	
3577	0	31408	
3578	0	31544	
3579	0	31628	
3580	0	31660	
3581	0	31612	
3582	0	31568	
3583	0	31576	
3584	0	31584	
3585	0	31606	
3586	0	31620	
3587	0	31650	
3588	0	31696	
3589	0	31756	
3590	0	31800	
3591	0	31848	
3592	0	31952	
3593	0	31994	
3594	0	31984	
3595	0	31964	
3596	0	31948	
3597	0	31908	
3598	0	31900	
3599	0	31908	
3600	0	31921	
3601	0	31972	
3602	0	32084	
3603	0	32148	
3604	0	32108	
3605	0	32000	
3606	0	31936	
3607	0	31892	
3608	0	31856	
3609	0	31860	
3610	0	31936	
3611	0	32026	
3612	0	32112	
3613	0	32204	
3614	0	32268	
3615	0	32312	
3616	0	32308	
3617	0	32284	
3618	0	32282	
3619	0	32332	
3620	0	32376	
3621	0	32396	
3622	0	32392	
3623	0	32376	
3624	0	32344	
3625	0	32348	
3626	0	32356	
3627	0	32380	
3628	0	32404	
3629	0	32352	
3630	0	32256	
3631	0	32172	
3632	0	32088	
3633	0	32048	
3634	0	32048	
3635	0	32052	
3636	0	32076	
3637	0	32096	
3638	0	32100	
3639	0	32064	
3640	0	32092	
3641	0	32156	
3642	0	32234	
3643	0	32282	
3644	0	32344	
3645	0	32424	
3646	0	32424	
3647	0	32352	
3648	0	32260	
3649	0	32216	
3650	0	32180	
3651	0	32160	
3652	0	32168	
3653	0	32172	
3654	0	32184	
3655	0	32176	
3656	0	32192	
3657	0	32184	
3658	0	32184	
3659	0	32176	
3660	0	32196	
3661	0	32196	
3662	0	32184	
3663	0	32120	
3664	0	32088	
3665	0	32152	
3666	0	32232	
3667	0	32264	
3668	0	32240	
3669	0	32156	
3670	0	32082	
3671	0	32048	
3672	0	32064	
3673	0	32046	
3674	0	32076	
3675	0	32108	
3676	0	32132	
3677	0	32136	
3678	0	32104	
3679	0	32122	
3680	0	32180	
3681	0	32176	
3682	0	32212	
3683	0	32228	
3684	0	32288	
3685	0	32460	
3686	0	32656	
3687	0	32744	
3688	0	32808	
3689	0	32868	
3690	0	32940	
3691	0	33008	
3692	0	33048	
3693	0	33032	
3694	0	33048	
3695	0	33068	
3696	0	33072	
3697	0	33112	
3698	0	33144	
3699	0	33160	
3700	0	33148	
3701	0	33156	
3702	0	33220	
3703	0	33248	
3704	0	33212	
3705	0	33120	
3706	0	33012	
3707	0	32926	
3708	0	32940	
3709	0	32972	
3710	0	33008	
3711	0	33068	
3712	0	33264	
3713	0	33500	
3714	0	33784	
3715	0	34112	
3716	0	34356	
3717	0	34488	
3718	0	34660	
3719	0	34852	
3720	0	35042	
3721	0	35192	
3722	0	35284	
3723	0	35278	
3724	0	35136	
3725	0	35008	
3726	0	34956	
3727	0	34900	
3728	0	34832	
3729	0	34828	
3730	0	34832	
3731	0	34776	
3732	0	34648	
3733	0	34488	
3734	0	34348	
3735	0	34264	
3736	0	34200	
3737	0	34088	
3738	0	33858	
3739	0	33596	
3740	0	33272	
3741	0	32996	
3742	0	32832	
3743	0	32768	
3744	0	32788	
3745	0	32816	
3746	0	32748	
3747	0	32672	
3748	0	32616	
3749	0	32600	
3750	0	32548	
3751	0	32496	
3752	0	32448	
3753	0	32400	
3754	0	32376	
3755	0	32372	
3756	0	32328	
3757	0	32248	
3758	0	32144	
3759	0	32082	
3760	0	31984	
3761	0	31896	
3762	0	31770	
3763	0	31584	
3764	0	31468	
3765	0	31360	
3766	0	31322	
3767	0	31344	
3768	0	31312	
3769	0	31248	
3770	0	31200	
3771	0	31232	
3772	0	31248	
3773	0	31236	
3774	0	31220	
3775	0	31192	
3776	0	31072	
3777	0	31052	
3778	0	31116	
3779	0	31178	
3780	0	31200	
3781	0	31216	
3782	0	31232	
3783	0	31232	
3784	0	31280	
3785	0	31340	
3786	0	31392	
3787	0	31400	
3788	0	31368	
3789	0	31384	
3790	0	31468	
3791	0	31548	
3792	0	31572	
3793	0	31576	
3794	0	31632	
3795	0	31716	
3796	0	31796	
3797	0	31844	
3798	0	31844	
3799	0	31796	
3800	0	31760	
3801	0	31728	
3802	0	31692	
3803	0	31704	
3804	0	31720	
3805	0	31688	
3806	0	31648	
3807	0	31604	
3808	0	31448	
3809	0	31164	
3810	0	30848	
3811	0	30452	
3812	0	29828	
3813	0	29124	
3814	0	28588	
3815	0	28318	
3816	0	28236	
3817	0	28272	
3818	0	28524	
3819	0	29000	
3820	0	29800	
3821	0	30808	
3822	0	31880	
3823	0	33080	
3824	0	34408	
3825	0	35912	
3826	0	37608	
3827	0	39556	
3828	0	42044	
3829	0	45040	
3830	0	48512	
3831	0	52160	
3832	0	55832	
3833	0	59392	
3834	0	61992	
3835	0	63392	
3836	0	64108	
3837	0	64420	
3838	0	64552	
3839	0	64556	
3840	0	64496	
3841	0	64396	
3842	0	64304	
3843	0	64180	
3844	0	59256	
3845	0	52648	
3846	0	46568	
3847	0	41400	
3848	0	37420	
3849	0	34456	
3850	0	32308	
3851	0	30736	
3852	0	29544	
3853	0	28676	
3854	0	27896	
3855	0	27040	
3856	0	26196	
3857	0	25426	
3858	0	24756	
3859	0	24288	
3860	0	24072	
3861	0	24024	
3862	0	24148	
3863	0	24288	
3864	0	24380	
3865	0	24452	
3866	0	24560	
3867	0	24852	
3868	0	25324	
3869	0	25816	
3870	0	26268	
3871	0	26688	
3872	0	27104	
3873	0	27460	
3874	0	27812	
3875	0	28157	
3876	0	28466	
3877	0	28800	
3878	0	29020	
3879	0	29228	
3880	0	29454	
3881	0	29638	
3882	0	29808	
3883	0	29888	
3884	0	29886	
3885	0	29820	
3886	0	29790	
3887	0	29912	
3888	0	30160	
3889	0	30420	
3890	0	30572	
3891	0	30632	
3892	0	30680	
3893	0	30728	
3894	0	30724	
3895	0	30664	
3896	0	30584	
3897	0	30500	
3898	0	30544	
3899	0	30596	
3900	0	30536	
3901	0	30444	
3902	0	30360	
3903	0	30316	
3904	0	30372	
3905	0	30472	
3906	0	30568	
3907	0	30644	
3908	0	30700	
3909	0	30788	
3910	0	30904	
3911	0	31084	
3912	0	31216	
3913	0	31288	
3914	0	31364	
3915	0	31460	
3916	0	31552	
3917	0	31576	
3918	0	31546	
3919	0	31536	
3920	0	31552	
3921	0	31560	
3922	0	31472	
3923	0	31392	
3924	0	31312	
3925	0	31272	
3926	0	31324	
3927	0	31434	
3928	0	31580	
3929	0	31684	
3930	0	31840	
3931	0	32056	
3932	0	32256	
3933	0	32340	
3934	0	32360	
3935	0	32448	
3936	0	32416	
3937	0	32312	
3938	0	32200	
3939	0	32080	
3940	0	32060	
3941	0	32112	
3942	0	32188	
3943	0	32336	
3944	0	32464	
3945	0	32540	
3946	0	32604	
3947	0	32624	
3948	0	32652	
3949	0	32720	
3950	0	32740	
3951	0	32714	
3952	0	32700	
3953	0	32704	
3954	0	32728	
3955	0	32744	
3956	0	32816	
3957	0	32916	
3958	0	33076	
3959	0	33224	
3960	0	33354	
3961	0	33540	
3962	0	33652	
3963	0	33688	
3964	0	33656	
3965	0	33632	
3966	0	33636	
3967	0	33656	
3968	0	33728	
3969	0	33758	
3970	0	33824	
3971	0	33904	
3972	0	33996	
3973	0	34080	
3974	0	34092	
3975	0	34176	
3976	0	34284	
3977	0	34364	
3978	0	34372	
3979	0	34296	
3980	0	34224	
3981	0	34204	
3982	0	34252	
3983	0	34368	
3984	0	34494	
3985	0	34650	
3986	0	34752	
3987	0	34856	
3988	0	35008	
3989	0	35204	
3990	0	35404	
3991	0	35544	
3992	0	35488	
3993	0	35296	
3994	0	35136	
3995	0	35168	
3996	0	35236	
3997	0	35248	
3998	0	35252	
3999	0	35340	
4000	0	35438	
4001	0	35556	
4002	0	35672	
4003	0	35868	
4004	0	36008	
4005	0	36076	
4006	0	36060	
4007	0	36020	
4008	0	36046	
4009	0	36096	
4010	0	36224	
4011	0	36404	
4012	0	36612	
4013	0	36772	
4014	0	36792	
4015	0	36736	
4016	0	36740	
4017	0	36720	
4018	0	36694	
4019	0	36628	
4020	0	36578	
4021	0	36520	
4022	0	36484	
4023	0	36486	
4024	0	36520	
4025	0	36584	
4026	0	36688	
4027	0	36748	
4028	0	36756	
4029	0	36868	
4030	0	37056	
4031	0	37172	
4032	0	37148	
4033	0	36972	
4034	0	36808	
4035	0	36712	
4036	0	36664	
4037	0	36658	
4038	0	36720	
4039	0	36768	
4040	0	36676	
4041	0	36576	
4042	0	36560	
4043	0	36564	
4044	0	36520	
4045	0	36420	
4046	0	36216	
4047	0	35958	
4048	0	35776	
4049	0	35668	
4050	0	35660	
4051	0	35752	
4052	0	35732	
4053	0	35712	
4054	0	35776	
4055	0	35928	
4056	0	36056	
4057	0	36074	
4058	0	36008	
4059	0	35938	
4060	0	35808	
4061	0	35668	
4062	0	35520	
4063	0	35352	
4064	0	35256	
4065	0	35148	
4066	0	35008	
4067	0	34936	
4068	0	34882	
4069	0	34808	
4070	0	34668	
4071	0	34536	
4072	0	34400	
4073	0	34344	
4074	0	34248	
4075	0	34112	
4076	0	33958	
4077	0	33914	
4078	0	33836	
4079	0	33668	
4080	0	33412	
4081	0	33108	
4082	0	32912	
4083	0	32784	
4084	0	32608	
4085	0	32400	
4086	0	32216	
4087	0	32068	
4088	0	31948	
4089	0	31792	
4090	0	31580	
4091	0	31472	
4092	0	31504	
4093	0	31536	
4094	0	31508	
4095	0	31368	
4096	0	31104	
4097	0	30960	
4098	0	30888	
4099	0	30732	
4100	0	30550	
4101	0	30316	
4102	0	30132	
4103	0	30044	
4104	0	30072	
4105	0	30112	
4106	0	30160	
4107	0	30264	
4108	0	30312	
4109	0	30160	
4110	0	29956	
4111	0	29800	
4112	0	29588	
4113	0	29340	
4114	0	29157	
4115	0	29072	
4116	0	29076	
4117	0	29096	
4118	0	29058	
4119	0	28992	
4120	0	29046	
4121	0	29168	
4122	0	29230	
4123	0	29236	
4124	0	29240	
4125	0	29170	
4126	0	29088	
4127	0	29108	
4128	0	29080	
4129	0	29036	
4130	0	28984	
4131	0	28968	
4132	0	28932	
4133	0	28992	
4134	0	29032	
4135	0	29076	
4136	0	29100	
4137	0	29196	
4138	0	29204	
4139	0	29216	
4140	0	29264	
4141	0	29280	
4142	0	29280	
4143	0	29308	
4144	0	29368	
4145	0	29572	
4146	0	29716	
4147	0	29770	
4148	0	29824	
4149	0	29760	
4150	0	29678	
4151	0	29672	
4152	0	29704	
4153	0	29688	
4154	0	29680	
4155	0	29766	
4156	0	29784	
4157	0	29712	
4158	0	29660	
4159	0	29636	
4160	0	29590	
4161	0	29644	
4162	0	29836	
4163	0	30060	
4164	0	30180	
4165	0	30256	
4166	0	30344	
4167	0	30408	
4168	0	30316	
4169	0	30088	
4170	0	29988	
4171	0	30016	
4172	0	30076	
4173	0	30138	
4174	0	30260	
4175	0	30434	
4176	0	30576	
4177	0	30728	
4178	0	30768	
4179	0	30776	
4180	0	30744	
4181	0	30720	
4182	0	30688	
4183	0	30824	
4184	0	31060	
4185	0	31220	
4186	0	31272	
4187	0	31200	
4188	0	31076	
4189	0	31052	
4190	0	31132	
4191	0	31328	
4192	0	31464	
4193	0	31532	
4194	0	31568	
4195	0	31580	
4196	0	31604	
4197	0	31580	
4198	0	31588	
4199	0	31502	
4200	0	31344	
4201	0	31160	
4202	0	31020	
4203	0	31028	
4204	0	31192	
4205	0	31468	
4206	0	31652	
4207	0	31832	
4208	0	31964	
4209	0	32020	
4210	0	31960	
4211	0	31840	
4212	0	31728	
4213	0	31676	
4214	0	31724	
4215	0	31848	
4216	0	31968	
4217	0	31912	
4218	0	31784	
4219	0	31816	
4220	0	31828	
4221	0	31768	
4222	0	31696	
4223	0	31672	
4224	0	31740	
4225	0	31896	
4226	0	32064	
4227	0	32188	
4228	0	32292	
4229	0	32310	
4230	0	32232	
4231	0	32136	
4232	0	32136	
4233	0	32152	
4234	0	32064	
4235	0	31872	
4236	0	31676	
4237	0	31516	
4238	0	31548	
4239	0	31566	
4240	0	31480	
4241	0	31488	
4242	0	31698	
4243	0	31936	
4244	0	32064	
4245	0	32116	
4246	0	32144	
4247	0	32020	
4248	0	31684	
4249	0	31448	
4250	0	31400	
4251	0	31444	
4252	0	31604	
4253	0	31808	
4254	0	31988	
4255	0	32068	
4256	0	32080	
4257	0	32084	
4258	0	32160	
4259	0	32148	
4260	0	32026	
4261	0	31956	
4262	0	31880	
4263	0	31768	
4264	0	31636	
4265	0	31594	
4266	0	31568	
4267	0	31586	
4268	0	31672	
4269	0	31860	
4270	0	32148	
4271	0	32394	
4272	0	32544	
4273	0	32592	
4274	0	32592	
4275	0	32640	
4276	0	32682	
4277	0	32724	
4278	0	32704	
4279	0	32684	
4280	0	32748	
4281	0	32896	
4282	0	33068	
4283	0	33068	
4284	0	32928	
4285	0	32740	
4286	0	32646	
4287	0	32588	
4288	0	32588	
4289	0	32636	
4290	0	32704	
4291	0	32798	
4292	0	32932	
4293	0	33080	
4294	0	33328	
4295	0	33568	
4296	0	33772	
4297	0	33940	
4298	0	34014	
4299	0	34028	
4300	0	34174	
4301	0	34414	
4302	0	34616	
4303	0	34604	
4304	0	34564	
4305	0	34564	
4306	0	34552	
4307	0	34508	
4308	0	34516	
4309	0	34612	
4310	0	34680	
4311	0	34520	
4312	0	34320	
4313	0	34192	
4314	0	34048	
4315	0	33752	
4316	0	33480	
4317	0	33268	
4318	0	33120	
4319	0	32952	
4320	0	32816	
4321	0	32704	
4322	0	32556	
4323	0	32436	
4324	0	32480	
4325	0	32560	
4326	0	32572	
4327	0	32576	
4328	0	32578	
4329	0	32512	
4330	0	32472	
4331	0	32480	
4332	0	32450	
4333	0	32320	
4334	0	32192	
4335	0	32092	
4336	0	31896	
4337	0	31748	
4338	0	31680	
4339	0	31572	
4340	0	31450	
4341	0	31300	
4342	0	31208	
4343	0	31160	
4344	0	31024	
4345	0	30848	
4346	0	30660	
4347	0	30434	
4348	0	30308	
4349	0	30380	
4350	0	30512	
4351	0	30516	
4352	0	30388	
4353	0	30256	
4354	0	30184	
4355	0	30164	
4356	0	30084	
4357	0	29996	
4358	0	29936	
4359	0	30004	
4360	0	30234	
4361	0	30472	
4362	0	30720	
4363	0	30992	
4364	0	31196	
4365	0	31312	
4366	0	31356	
4367	0	31256	
4368	0	31128	
4369	0	31044	
4370	0	30892	
4371	0	30756	
4372	0	30712	
4373	0	30768	
4374	0	30860	
4375	0	30920	
4376	0	30992	
4377	0	31108	
4378	0	31068	
4379	0	30980	
4380	0	30984	
4381	0	31012	
4382	0	30968	
4383	0	31060	
4384	0	31160	
4385	0	31144	
4386	0	31184	
4387	0	31248	
4388	0	31228	
4389	0	31064	
4390	0	30816	
4391	0	30644	
4392	0	30416	
4393	0	30192	
4394	0	29834	
4395	0	29456	
4396	0	29164	
4397	0	29012	
4398	0	28884	
4399	0	28844	
4400	0	29002	
4401	0	29328	
4402	0	29888	
4403	0	30700	
4404	0	31572	
4405	0	32480	
4406	0	33604	
4407	0	35084	
4408	0	36904	
4409	0	39120	
4410	0	41638	
4411	0	44720	
4412	0	48352	
4413	0	52160	
4414	0	55864	
4415	0	59360	
4416	0	61968	
4417	0	63332	
4418	0	64040	
4419	0	64348	
4420	0	64480	
4421	0	64484	
4422	0	64432	
4423	0	64328	
4424	0	64244	
4425	0	60652	
4426	0	54368	
4427	0	48056	
4428	0	42388	
4429	0	37904	
4430	0	34532	
4431	0	31900	
4432	0	29904	
4433	0	28420	
4434	0	27380	
4435	0	26560	
4436	0	25804	
4437	0	24980	
4438	0	24176	
4439	0	23564	
4440	0	23312	
4441	0	23368	
4442	0	23536	
4443	0	23668	
4444	0	23770	
4445	0	23852	
4446	0	24056	
4447	0	24392	
4448	0	24760	
4449	0	25132	
4450	0	25492	
4451	0	25936	
4452	0	26476	
4453	0	26908	
4454	0	27164	
4455	0	27420	
4456	0	27720	
4457	0	27996	
4458	0	28120	
4459	0	28256	
4460	0	28536	
4461	0	28952	
4462	0	29428	
4463	0	29768	
4464	0	29928	
4465	0	29968	
4466	0	29924	
4467	0	29932	
4468	0	29916	
4469	0	29864	
4470	0	29960	
4471	0	30012	
4472	0	30032	
4473	0	30036	
4474	0	29936	
4475	0	29780	
4476	0	29672	
4477	0	29618	
4478	0	29650	
4479	0	29670	
4480	0	29694	
4481	0	29756	
4482	0	29880	
4483	0	29996	
4484	0	30120	
4485	0	30228	
4486	0	30304	
4487	0	30424	
4488	0	30480	
4489	0	30524	
4490	0	30572	
4491	0	30640	
4492	0	30688	
4493	0	30812	
4494	0	30872	
4495	0	30880	
4496	0	30808	
4497	0	30732	
4498	0	30688	
4499	0	30656	
4500	0	30632	
4501	0	30632	
4502	0	30668	
4503	0	30728	
4504	0	30788	
4505	0	30845	
4506	0	30956	
4507	0	31060	
4508	0	31178	
4509	0	31292	
4510	0	31372	
4511	0	31460	
4512	0	31544	
4513	0	31592	
4514	0	31652	
4515	0	31716	
4516	0	31792	
4517	0	31808	
4518	0	31800	
4519	0	31752	
4520	0	31686	
4521	0	31612	
4522	0	31596	
4523	0	31648	
4524	0	31728	
4525	0	31856	
4526	0	32002	
4527	0	32094	
4528	0	32156	
4529	0	32224	
4530	0	32242	
4531	0	32224	
4532	0	32176	
4533	0	32192	
4534	0	32236	
4535	0	32236	
4536	0	32180	
4537	0	32176	
4538	0	32192	
4539	0	32252	
4540	0	32284	
4541	0	32292	
4542	0	32410	
4543	0	32596	
4544	0	32752	
4545	0	32904	
4546	0	33024	
4547	0	33116	
4548	0	33230	
4549	0	33364	
4550	0	33408	
4551	0	33416	
4552	0	33440	
4553	0	33536	
4554	0	33652	
4555	0	33698	
4556	0	33652	
4557	0	33636	
4558	0	33644	
4559	0	33628	
4560	0	33636	
4561	0	33628	
4562	0	33632	
4563	0	33672	
4564	0	33732	
4565	0	33844	
4566	0	34012	
4567	0	34160	
4568	0	34328	
4569	0	34456	
4570	0	34488	
4571	0	34476	
4572	0	34474	
4573	0	34512	
4574	0	34600	
4575	0	34700	
4576	0	34780	
4577	0	34840	
4578	0	34882	
4579	0	34900	
4580	0	34992	
4581	0	35132	
4582	0	35216	
4583	0	35308	
4584	0	35396	
4585	0	35420	
4586	0	35328	
4587	0	35208	
4588	0	35156	
4589	0	35140	
4590	0	35234	
4591	0	35400	
4592	0	35564	
4593	0	35652	
4594	0	35724	
4595	0	35772	
4596	0	35856	
4597	0	35948	
4598	0	36008	
4599	0	36050	
4600	0	36084	
4601	0	36152	
4602	0	36196	
4603	0	36256	
4604	0	36264	
4605	0	36236	
4606	0	36248	
4607	0	36348	
4608	0	36448	
4609	0	36488	
4610	0	36448	
4611	0	36392	
4612	0	36372	
4613	0	36292	
4614	0	36128	
4615	0	35956	
4616	0	35856	
4617	0	35800	
4618	0	35788	
4619	0	35768	
4620	0	35752	
4621	0	35788	
4622	0	35904	
4623	0	35984	
4624	0	36028	
4625	0	35976	
4626	0	35888	
4627	0	35868	
4628	0	35868	
4629	0	35796	
4630	0	35748	
4631	0	35636	
4632	0	35478	
4633	0	35328	
4634	0	35272	
4635	0	35232	
4636	0	35160	
4637	0	35108	
4638	0	35076	
4639	0	35032	
4640	0	34948	
4641	0	34840	
4642	0	34738	
4643	0	34660	
4644	0	34584	
4645	0	34480	
4646	0	34420	
4647	0	34416	
4648	0	34388	
4649	0	34224	
4650	0	34028	
4651	0	33952	
4652	0	33936	
4653	0	33896	
4654	0	33824	
4655	0	33708	
4656	0	33512	
4657	0	33344	
4658	0	33204	
4659	0	33116	
4660	0	32944	
4661	0	32748	
4662	0	32532	
4663	0	32324	
4664	0	32112	
4665	0	31896	
4666	0	31728	
4667	0	31548	
4668	0	31388	
4669	0	31280	
4670	0	31224	
4671	0	31156	
4672	0	31072	
4673	0	31000	
4674	0	30938	
4675	0	30944	
4676	0	30946	
4677	0	30868	
4678	0	30762	
4679	0	30708	
4680	0	30652	
4681	0	30552	
4682	0	30400	
4683	0	30232	
4684	0	30096	
4685	0	29976	
4686	0	29816	
4687	0	29624	
4688	0	29504	
4689	0	29472	
4690	0	29416	
4691	0	29312	
4692	0	29208	
4693	0	29088	
4694	0	28980	
4695	0	28984	
4696	0	29012	
4697	0	29072	
4698	0	29092	
4699	0	29092	
4700	0	29138	
4701	0	29220	
4702	0	29320	
4703	0	29348	
4704	0	29296	
4705	0	29224	
4706	0	29136	
4707	0	29024	
4708	0	28892	
4709	0	28832	
4710	0	28812	
4711	0	28820	
4712	0	28852	
4713	0	28884	
4714	0	28968	
4715	0	29092	
4716	0	29240	
4717	0	29356	
4718	0	29424	
4719	0	29428	
4720	0	29442	
4721	0	29452	
4722	0	29472	
4723	0	29452	
4724	0	29416	
4725	0	29412	
4726	0	29432	
4727	0	29408	
4728	0	29378	
4729	0	29400	
4730	0	29468	
4731	0	29544	
4732	0	29620	
4733	0	29626	
4734	0	29644	
4735	0	29706	
4736	0	29744	
4737	0	29754	
4738	0	29732	
4739	0	29732	
4740	0	29728	
4741	0	29760	
4742	0	29844	
4743	0	29888	
4744	0	29896	
4745	0	29952	
4746	0	30064	
4747	0	30180	
4748	0	30240	
4749	0	30280	
4750	0	30352	
4751	0	30400	
4752	0	30460	
4753	0	30466	
4754	0	30456	
4755	0	30452	
4756	0	30452	
4757	0	30444	
4758	0	30436	
4759	0	30452	
4760	0	30522	
4761	0	30572	
4762	0	30588	
4763	0	30618	
4764	0	30664	
4765	0	30728	
4766	0	30784	
4767	0	30816	
4768	0	30832	
4769	0	30852	
4770	0	30880	
4771	0	30904	
4772	0	30944	
4773	0	30996	
4774	0	31076	
4775	0	31180	
4776	0	31256	
4777	0	31304	
4778	0	31258	
4779	0	31188	
4780	0	31132	
4781	0	31120	
4782	0	31168	
4783	0	31192	
4784	0	31200	
4785	0	31228	
4786	0	31284	
4787	0	31336	
4788	0	31360	
4789	0	31380	
4790	0	31396	
4791	0	31460	
4792	0	31496	
4793	0	31472	
4794	0	31488	
4795	0	31536	
4796	0	31552	
4797	0	31570	
4798	0	31592	
4799	0	31616	
4800	0	31644	
4801	0	31644	
4802	0	31628	
4803	0	31632	
4804	0	31676	
4805	0	31732	
4806	0	31786	
4807	0	31832	
4808	0	31888	
4809	0	31906	
4810	0	31968	
4811	0	31980	
4812	0	31972	
4813	0	31948	
4814	0	31884	
4815	0	31824	
4816	0	31808	
4817	0	31840	
4818	0	31916	
4819	0	31956	
4820	0	31964	
4821	0	31908	
4822	0	31882	
4823	0	31848	
4824	0	31832	
4825	0	31836	
4826	0	31816	
4827	0	31808	
4828	0	31818	
4829	0	31880	
4830	0	31994	
4831	0	32100	
4832	0	32156	
4833	0	32168	
4834	0	32216	
4835	0	32352	
4836	0	32486	
4837	0	32612	
4838	0	32760	
4839	0	32870	
4840	0	32940	
4841	0	32978	
4842	0	32986	
4843	0	32908	
4844	0	32796	
4845	0	32640	
4846	0	32514	
4847	0	32474	
4848	0	32460	
4849	0	32492	
4850	0	32584	
4851	0	32696	
4852	0	32834	
4853	0	32932	
4854	0	32984	
4855	0	33068	
4856	0	33144	
4857	0	33248	
4858	0	33336	
4859	0	33480	
4860	0	33668	
4861	0	33904	
4862	0	34104	
4863	0	34280	
4864	0	34492	
4865	0	34696	
4866	0	34836	
4867	0	34920	
4868	0	34976	
4869	0	35006	
4870	0	34976	
4871	0	34912	
4872	0	34808	
4873	0	34704	
4874	0	34600	
4875	0	34526	
4876	0	34416	
4877	0	34284	
4878	0	34174	
4879	0	34080	
4880	0	33940	
4881	0	33732	
4882	0	33552	
4883	0	33408	
4884	0	33260	
4885	0	33088	
4886	0	32852	
4887	0	32608	
4888	0	32416	
4889	0	32332	
4890	0	32320	
4891	0	32344	
4892	0	32284	
4893	0	32181	
4894	0	32108	
4895	0	32076	
4896	0	31992	
4897	0	31908	
4898	0	31768	
4899	0	31604	
4900	0	31500	
4901	0	31424	
4902	0	31364	
4903	0	31276	
4904	0	31188	
4905	0	31098	
4906	0	31040	
4907	0	31008	
4908	0	30904	
4909	0	30816	
4910	0	30708	
4911	0	30592	
4912	0	30476	
4913	0	30380	
4914	0	30336	
4915	0	30336	
4916	0	30368	
4917	0	30384	
4918	0	30368	
4919	0	30392	
4920	0	30416	
4921	0	30432	
4922	0	30476	
4923	0	30504	
4924	0	30512	
4925	0	30528	
4926	0	30544	
4927	0	30556	
4928	0	30604	
4929	0	30628	
4930	0	30668	
4931	0	30700	
4932	0	30756	
4933	0	30812	
4934	0	30812	
4935	0	30752	
4936	0	30714	
4937	0	30688	
4938	0	30652	
4939	0	30648	
4940	0	30692	
4941	0	30768	
4942	0	30808	
4943	0	30836	
4944	0	30872	
4945	0	30912	
4946	0	30952	
4947	0	30980	
4948	0	31060	
4949	0	31166	
4950	0	31230	
4951	0	31244	
4952	0	31224	
4953	0	31132	
4954	0	30908	
4955	0	30596	
4956	0	30144	
4957	0	29584	
4958	0	28892	
4959	0	28200	
4960	0	27692	
4961	0	27336	
4962	0	27072	
4963	0	26936	
4964	0	26996	
4965	0	27300	
4966	0	27964	
4967	0	28880	
4968	0	29860	
4969	0	31008	
4970	0	32416	
4971	0	34156	
4972	0	36172	
4973	0	38506	
4974	0	41156	
4975	0	44192	
4976	0	47840	
4977	0	51864	
4978	0	55796	
4979	0	59508	
4980	0	62336	
4981	0	63892	
4982	0	64664	
4983	0	65058	
4984	0	65204	
4985	0	65208	
4986	0	65160	
4987	0	65066	
4988	0	64948	
4989	0	64820	
4990	0	60516	
4991	0	54016	
4992	0	47796	
4993	0	42464	
4994	0	38200	
4995	0	34840	
4996	0	32268	
4997	0	30240	
4998	0	28648	
4999	0	27400	
5000	0	26356	
5001	0	25452	
5002	0	24740	
5003	0	24288	
5004	0	24034	
5005	0	23968	
5006	0	24024	
5007	0	24132	
5008	0	24312	
5009	0	24436	
5010	0	24574	
5011	0	24846	
5012	0	25152	
5013	0	25512	
5014	0	25928	
5015	0	26356	
5016	0	26757	
5017	0	27152	
5018	0	27552	
5019	0	27972	
5020	0	28304	
5021	0	28528	
5022	0	28720	
5023	0	28936	
5024	0	29112	
5025	0	29238	
5026	0	29332	
5027	0	29404	
5028	0	29472	
5029	0	29520	
5030	0	29524	
5031	0	29532	
5032	0	29532	
5033	0	29536	
5034	0	29526	
5035	0	29508	
5036	0	29512	
5037	0	29552	
5038	0	29602	
5039	0	29680	
5040	0	29744	
5041	0	29760	
5042	0	29784	
5043	0	29800	
5044	0	29818	
5045	0	29852	
5046	0	29840	
5047	0	29860	
5048	0	29884	
5049	0	29924	
5050	0	29952	
5051	0	29992	
5052	0	30028	
5053	0	30064	
5054	0	30112	
5055	0	30140	
5056	0	30192	
5057	0	30256	
5058	0	30332	
5059	0	30437	
5060	0	30524	
5061	0	30576	
5062	0	30636	
5063	0	30688	
5064	0	30684	
5065	0	30650	
5066	0	30728	
5067	0	30792	
5068	0	30832	
5069	0	30852	
5070	0	30845	
5071	0	30864	
5072	0	30880	
5073	0	30912	
5074	0	30976	
5075	0	31024	
5076	0	31082	
5077	0	31168	
5078	0	31216	
5079	0	31252	
5080	0	31248	
5081	0	31276	
5082	0	31344	
5083	0	31448	
5084	0	31520	
5085	0	31616	
5086	0	31680	
5087	0	31728	
5088	0	31772	
5089	0	31816	
5090	0	31868	
5091	0	31892	
5092	0	31924	
5093	0	31988	
5094	0	32092	
5095	0	32176	
5096	0	32240	
5097	0	32304	
5098	0	32352	
5099	0	32384	
5100	0	32410	
5101	0	32432	
5102	0	32472	
5103	0	32480	
5104	0	32476	
5105	0	32508	
5106	0	32564	
5107	0	32596	
5108	0	32636	
5109	0	32696	
5110	0	32788	
5111	0	32892	
5112	0	32944	
5113	0	32978	
5114	0	33028	
5115	0	33092	
5116	0	33156	
5117	0	33188	
5118	0	33236	
5119	0	33308	
5120	0	33392	
5121	0	33480	
5122	0	33528	
5123	0	33576	
5124	0	33584	
5125	0	33560	
5126	0	33568	
5127	0	33614	
5128	0	33696	
5129	0	33772	
5130	0	33820	
5131	0	33864	
5132	0	33936	
5133	0	34044	
5134	0	34140	
5135	0	34216	
5136	0	34268	
5137	0	34376	
5138	0	34446	
5139	0	34488	
5140	0	34480	
5141	0	34460	
5142	0	34476	
5143	0	34476	
5144	0	34516	
5145	0	34548	
5146	0	34644	
5147	0	34792	
5148	0	34924	
5149	0	35032	
5150	0	35128	
5151	0	35208	
5152	0	35288	
5153	0	35340	
5154	0	35396	
5155	0	35432	
5156	0	35436	
5157	0	35436	
5158	0	35460	
5159	0	35488	
5160	0	35520	
5161	0	35564	
5162	0	35616	
5163	0	35656	
5164	0	35700	
5165	0	35776	
5166	0	35844	
5167	0	35908	
5168	0	35930	
5169	0	35936	
5170	0	35932	
5171	0	35916	
5172	0	35884	
5173	0	35916	
5174	0	35904	
5175	0	35880	
5176	0	35864	
5177	0	35840	
5178	0	35812	
5179	0	35752	
5180	0	35676	
5181	0	35616	
5182	0	35596	
5183	0	35564	
5184	0	35544	
5185	0	35488	
5186	0	35424	
5187	0	35348	
5188	0	35308	
5189	0	35288	
5190	0	35312	
5191	0	35300	
5192	0	35224	
5193	0	35116	
5194	0	35024	
5195	0	34948	
5196	0	34888	
5197	0	34796	
5198	0	34752	
5199	0	34708	
5200	0	34636	
5201	0	34556	
5202	0	34476	
5203	0	34400	
5204	0	34328	
5205	0	34268	
5206	0	34212	
5207	0	34120	
5208	0	34016	
5209	0	33928	
5210	0	33856	
5211	0	33804	
5212	0	33728	
5213	0	33616	
5214	0	33510	
5215	0	33428	
5216	0	33336	
5217	0	33256	
5218	0	33182	
5219	0	33120	
5220	0	33004	
5221	0	32864	
5222	0	32740	
5223	0	32612	
5224	0	32484	
5225	0	32336	
5226	0	32192	
5227	0	32049	
5228	0	31932	
5229	0	31802	
5230	0	31692	
5231	0	31618	
5232	0	31500	
5233	0	31364	
5234	0	31248	
5235	0	31108	
5236	0	31016	
5237	0	30908	
5238	0	30772	
5239	0	30676	
5240	0	30572	
5241	0	30532	
5242	0	30476	
5243	0	30428	
5244	0	30384	
5245	0	30340	
5246	0	30296	
5247	0	30288	
5248	0	30256	
5249	0	30174	
5250	0	30096	
5251	0	30060	
5252	0	30028	
5253	0	30020	
5254	0	29944	
5255	0	29864	
5256	0	29840	
5257	0	29820	
5258	0	29796	
5259	0	29788	
5260	0	29772	
5261	0	29776	
5262	0	29772	
5263	0	29748	
5264	0	29720	
5265	0	29724	
5266	0	29708	
5267	0	29664	
5268	0	29626	
5269	0	29580	
5270	0	29528	
5271	0	29496	
5272	0	29492	
5273	0	29516	
5274	0	29570	
5275	0	29592	
5276	0	29620	
5277	0	29632	
5278	0	29660	
5279	0	29716	
5280	0	29744	
5281	0	29760	
5282	0	29734	
5283	0	29728	
5284	0	29780	
5285	0	29872	
5286	0	29992	
5287	0	30080	
5288	0	30140	
5289	0	30178	
5290	0	30206	
5291	0	30276	
5292	0	30308	
5293	0	30308	
5294	0	30340	
5295	0	30392	
5296	0	30460	
5297	0	30524	
5298	0	30580	
5299	0	30604	
5300	0	30616	
5301	0	30648	
5302	0	30696	
5303	0	30740	
5304	0	30768	
5305	0	30760	
5306	0	30756	
5307	0	30784	
5308	0	30820	
5309	0	30876	
5310	0	30916	
5311	0	30976	
5312	0	31032	
5313	0	31040	
5314	0	31080	
5315	0	31124	
5316	0	31188	
5317	0	31268	
5318	0	31342	
5319	0	31384	
5320	0	31392	
5321	0	31422	
5322	0	31444	
5323	0	31496	
5324	0	31540	
5325	0	31556	
5326	0	31584	
5327	0	31616	
5328	0	31624	
5329	0	31676	
5330	0	31692	
5331	0	31672	
5332	0	31636	
5333	0	31688	
5334	0	31776	
5335	0	31826	
5336	0	31810	
5337	0	31784	
5338	0	31772	
5339	0	31816	
5340	0	31896	
5341	0	31944	
5342	0	31980	
5343	0	31982	
5344	0	31956	
5345	0	31960	
5346	0	31992	
5347	0	32016	
5348	0	32044	
5349	0	32052	
5350	0	32076	
5351	0	32108	
5352	0	32132	
5353	0	32160	
5354	0	32208	
5355	0	32228	
5356	0	32216	
5357	0	32232	
5358	0	32272	
5359	0	32272	
5360	0	32256	
5361	0	32256	
5362	0	32280	
5363	0	32308	
5364	0	32306	
5365	0	32304	
5366	0	32320	
5367	0	32356	
5368	0	32432	
5369	0	32500	
5370	0	32530	
5371	0	32578	
5372	0	32628	
5373	0	32724	
5374	0	32820	
5375	0	32868	
5376	0	32904	
5377	0	32984	
5378	0	33088	
5379	0	33162	
5380	0	33248	
5381	0	33312	
5382	0	33384	
5383	0	33444	
5384	0	33448	
5385	0	33452	
5386	0	33420	
5387	0	33380	
5388	0	33348	
5389	0	33328	
5390	0	33340	
5391	0	33328	
5392	0	33320	
5393	0	33352	
5394	0	33400	
5395	0	33468	
5396	0	33568	
5397	0	33628	
5398	0	33748	
5399	0	33886	
5400	0	34064	
5401	0	34308	
5402	0	34544	
5403	0	34764	
5404	0	34912	
5405	0	35096	
5406	0	35252	
5407	0	35376	
5408	0	35530	
5409	0	35672	
5410	0	35748	
5411	0	35784	
5412	0	35800	
5413	0	35756	
5414	0	35698	
5415	0	35628	
5416	0	35548	
5417	0	35404	
5418	0	35222	
5419	0	35012	
5420	0	34844	
5421	0	34682	
5422	0	34584	
5423	0	34472	
5424	0	34308	
5425	0	34160	
5426	0	34016	
5427	0	33840	
5428	0	33636	
5429	0	33480	
5430	0	33340	
5431	0	33240	
5432	0	33200	
5433	0	33096	
5434	0	32976	
5435	0	32802	
5436	0	32620	
5437	0	32484	
5438	0	32404	
5439	0	32320	
5440	0	32198	
5441	0	32068	
5442	0	31928	
5443	0	31788	
5444	0	31664	
5445	0	31524	
5446	0	31404	
5447	0	31320	
5448	0	31256	
5449	0	31208	
5450	0	31148	
5451	0	31056	
5452	0	30936	
5453	0	30860	
5454	0	30828	
5455	0	30804	
5456	0	30776	
5457	0	30720	
5458	0	30708	
5459	0	30720	
5460	0	30726	
5461	0	30744	
5462	0	30768	
5463	0	30789	
5464	0	30772	
5465	0	30752	
5466	0	30754	
5467	0	30784	
5468	0	30756	
5469	0	30780	
5470	0	30784	
5471	0	30788	
5472	0	30816	
5473	0	30840	
5474	0	30880	
5475	0	30940	
5476	0	31012	
5477	0	31076	
5478	0	31160	
5479	0	31212	
5480	0	31268	
5481	0	31292	
5482	0	31316	
5483	0	31306	
5484	0	31300	
5485	0	31314	
5486	0	31324	
5487	0	31356	
5488	0	31388	
5489	0	31412	
5490	0	31418	
5491	0	31448	
5492	0	31456	
5493	0	31420	
5494	0	31368	
5495	0	31252	
5496	0	31060	
5497	0	30804	
5498	0	30448	
5499	0	29894	
5500	0	29140	
5501	0	28248	
5502	0	27424	
5503	0	26800	
5504	0	26412	
5505	0	26192	
5506	0	26144	
5507	0	26300	
5508	0	26748	
5509	0	27424	
5510	0	28324	
5511	0	29488	
5512	0	30888	
5513	0	32532	
5514	0	34462	
5515	0	36716	
5516	0	39280	
5517	0	42068	
5518	0	45424	
5519	0	49336	
5520	0	53416	
5521	0	57336	
5522	0	60920	
5523	0	63164	
5524	0	64352	
5525	0	64928	
5526	0	65192	
5527	0	65272	
5528	0	65248	
5529	0	65188	
5530	0	65092	
5531	0	64960	
5532	0	64836	
5533	0	64720	
5534	0	58692	
5535	0	52720	
5536	0	47824	
5537	0	43828	
5538	0	40600	
5539	0	37856	
5540	0	35320	
5541	0	33080	
5542	0	31296	
5543	0	29968	
5544	0	28904	
5545	0	28100	
5546	0	27552	
5547	0	27152	
5548	0	26832	
5549	0	26608	
5550	0	26592	
5551	0	26656	
5552	0	26624	
5553	0	26596	
5554	0	26608	
5555	0	26682	
5556	0	26844	
5557	0	27076	
5558	0	27384	
5559	0	27672	
5560	0	27940	
5561	0	28176	
5562	0	28404	
5563	0	28568	
5564	0	28688	
5565	0	28768	
5566	0	28792	
5567	0	28808	
5568	0	28796	
5569	0	28792	
5570	0	28804	
5571	0	28864	
5572	0	28900	
5573	0	28944	
5574	0	28968	
5575	0	28980	
5576	0	28970	
5577	0	28944	
5578	0	28896	
5579	0	28872	
5580	0	28876	
5581	0	28888	
5582	0	28900	
5583	0	28904	
5584	0	28900	
5585	0	28932	
5586	0	29016	
5587	0	29124	
5588	0	29256	
5589	0	29356	
5590	0	29416	
5591	0	29444	
5592	0	29452	
5593	0	29476	
5594	0	29488	
5595	0	29476	
5596	0	29464	
5597	0	29518	
5598	0	29528	
5599	0	29544	
5600	0	29608	
5601	0	29688	
5602	0	29764	
5603	0	29828	
5604	0	29872	
5605	0	29880	
5606	0	29904	
5607	0	29952	
5608	0	30008	
5609	0	30060	
5610	0	30112	
5611	0	30156	
5612	0	30236	
5613	0	30372	
5614	0	30476	
5615	0	30552	
5616	0	30592	
5617	0	30644	
5618	0	30700	
5619	0	30740	
5620	0	30772	
5621	0	30820	
5622	0	30836	
5623	0	30868	
5624	0	30872	
5625	0	30900	
5626	0	30952	
5627	0	31008	
5628	0	31064	
5629	0	31168	
5630	0	31224	
5631	0	31268	
5632	0	31312	
5633	0	31344	
5634	0	31376	
5635	0	31416	
5636	0	31484	
5637	0	31524	
5638	0	31552	
5639	0	31614	
5640	0	31688	
5641	0	31768	
5642	0	31816	
5643	0	31860	
5644	0	31896	
5645	0	31916	
5646	0	31952	
5647	0	31992	
5648	0	32032	
5649	0	32080	
5650	0	32108	
5651	0	32092	
5652	0	32136	
5653	0	32232	
5654	0	32328	
5655	0	32392	
5656	0	32428	
5657	0	32460	
5658	0	32504	
5659	0	32540	
5660	0	32592	
5661	0	32644	
5662	0	32668	
5663	0	32692	
5664	0	32752	
5665	0	32856	
5666	0	32972	
5667	0	33056	
5668	0	33104	
5669	0	33152	
5670	0	33200	
5671	0	33288	
5672	0	33384	
5673	0	33448	
5674	0	33532	
5675	0	33604	
5676	0	33684	
5677	0	33772	
5678	0	33858	
5679	0	33940	
5680	0	33968	
5681	0	34028	
5682	0	34144	
5683	0	34256	
5684	0	34336	
5685	0	34364	
5686	0	34384	
5687	0	34408	
5688	0	34464	
5689	0	34524	
5690	0	34568	
5691	0	34588	
5692	0	34620	
5693	0	34668	
5694	0	34720	
5695	0	34772	
5696	0	34840	
5697	0	34912	
5698	0	34972	
5699	0	35038	
5700	0	35104	
5701	0	35196	
5702	0	35308	
5703	0	35392	
5704	0	35432	
5705	0	35468	
5706	0	35488	
5707	0	35508	
5708	0	35520	
5709	0	35532	
5710	0	35560	
5711	0	35592	
5712	0	35634	
5713	0	35648	
5714	0	35672	
5715	0	35694	
5716	0	35696	
5717	0	35688	
5718	0	35684	
5719	0	35660	
5720	0	35636	
5721	0	35624	
5722	0	35580	
5723	0	35560	
5724	0	35548	
5725	0	35492	
5726	0	35432	
5727	0	35376	
5728	0	35340	
5729	0	35312	
5730	0	35276	
5731	0	35240	
5732	0	35232	
5733	0	35184	
5734	0	35116	
5735	0	35054	
5736	0	34984	
5737	0	34954	
5738	0	34924	
5739	0	34840	
5740	0	34740	
5741	0	34688	
5742	0	34634	
5743	0	34572	
5744	0	34522	
5745	0	34444	
5746	0	34384	
5747	0	34336	
5748	0	34280	
5749	0	34152	
5750	0	34016	
5751	0	33908	
5752	0	33808	
5753	0	33646	
5754	0	33500	
5755	0	33400	
5756	0	33304	
5757	0	33232	
5758	0	33144	
5759	0	33076	
5760	0	33020	
5761	0	32936	
5762	0	32816	
5763	0	32696	
5764	0	32546	
5765	0	32384	
5766	0	32244	
5767	0	32144	
5768	0	32048	
5769	0	31940	
5770	0	31856	
5771	0	31730	
5772	0	31584	
5773	0	31452	
5774	0	31320	
5775	0	31186	
5776	0	31104	
5777	0	31012	
5778	0	30940	
5779	0	30848	
5780	0	30696	
5781	0	30576	
5782	0	30512	
5783	0	30472	
5784	0	30400	
5785	0	30340	
5786	0	30288	
5787	0	30192	
5788	0	30096	
5789	0	30020	
5790	0	29984	
5791	0	29972	
5792	0	29948	
5793	0	29912	
5794	0	29888	
5795	0	29840	
5796	0	29820	
5797	0	29796	
5798	0	29792	
5799	0	29752	
5800	0	29702	
5801	0	29678	
5802	0	29642	
5803	0	29584	
5804	0	29568	
5805	0	29596	
5806	0	29592	
5807	0	29580	
5808	0	29572	
5809	0	29524	
5810	0	29476	
5811	0	29512	
5812	0	29576	
5813	0	29598	
5814	0	29572	
5815	0	29516	
5816	0	29504	
5817	0	29504	
5818	0	29520	
5819	0	29532	
5820	0	29544	
5821	0	29544	
5822	0	29574	
5823	0	29664	
5824	0	29742	
5825	0	29792	
5826	0	29816	
5827	0	29900	
5828	0	29984	
5829	0	30076	
5830	0	30152	
5831	0	30184	
5832	0	30212	
5833	0	30188	
5834	0	30188	
5835	0	30189	
5836	0	30230	
5837	0	30272	
5838	0	30328	
5839	0	30340	
5840	0	30356	
5841	0	30418	
5842	0	30496	
5843	0	30548	
5844	0	30588	
5845	0	30620	
5846	0	30656	
5847	0	30716	
5848	0	30764	
5849	0	30804	
5850	0	30908	
5851	0	30968	
5852	0	31020	
5853	0	31041	
5854	0	31096	
5855	0	31138	
5856	0	31144	
5857	0	31168	
5858	0	31222	
5859	0	31252	
5860	0	31272	
5861	0	31316	
5862	0	31352	
5863	0	31340	
5864	0	31288	
5865	0	31256	
5866	0	31324	
5867	0	31400	
5868	0	31456	
5869	0	31520	
5870	0	31564	
5871	0	31604	
5872	0	31662	
5873	0	31736	
5874	0	31776	
5875	0	31796	
5876	0	31828	
5877	0	31868	
5878	0	31848	
5879	0	31860	
5880	0	31904	
5881	0	31928	
5882	0	31908	
5883	0	31892	
5884	0	31892	
5885	0	31912	
5886	0	31956	
5887	0	32008	
5888	0	32064	
5889	0	32092	
5890	0	32116	
5891	0	32140	
5892	0	32186	
5893	0	32232	
5894	0	32232	
5895	0	32204	
5896	0	32192	
5897	0	32212	
5898	0	32236	
5899	0	32250	
5900	0	32268	
5901	0	32276	
5902	0	32276	
5903	0	32272	
5904	0	32248	
5905	0	32236	
5906	0	32252	
5907	0	32276	
5908	0	32288	
5909	0	32332	
5910	0	32392	
5911	0	32428	
5912	0	32460	
5913	0	32460	
5914	0	32464	
5915	0	32522	
5916	0	32564	
5917	0	32620	
5918	0	32608	
5919	0	32612	
5920	0	32640	
5921	0	32720	
5922	0	32820	
5923	0	32900	
5924	0	32960	
5925	0	33028	
5926	0	33104	
5927	0	33184	
5928	0	33286	
5929	0	33384	
5930	0	33448	
5931	0	33512	
5932	0	33536	
5933	0	33540	
5934	0	33548	
5935	0	33500	
5936	0	33492	
5937	0	33452	
5938	0	33396	
5939	0	33312	
5940	0	33228	
5941	0	33164	
5942	0	33160	
5943	0	33200	
5944	0	33228	
5945	0	33240	
5946	0	33272	
5947	0	33380	
5948	0	33600	
5949	0	33888	
5950	0	34156	
5951	0	34424	
5952	0	34616	
5953	0	34844	
5954	0	35060	
5955	0	35312	
5956	0	35548	
5957	0	35712	
5958	0	35852	
5959	0	35892	
5960	0	35848	
5961	0	35744	
5962	0	35592	
5963	0	35432	
5964	0	35336	
5965	0	35284	
5966	0	35224	
5967	0	35064	
5968	0	34860	
5969	0	34652	
5970	0	34432	
5971	0	34254	
5972	0	34108	
5973	0	33968	
5974	0	33824	
5975	0	33688	
5976	0	33536	
5977	0	33368	
5978	0	33184	
5979	0	33024	
5980	0	32936	
5981	0	32904	
5982	0	32864	
5983	0	32780	
5984	0	32708	
5985	0	32588	
5986	0	32456	
5987	0	32412	
5988	0	32356	
5989	0	32268	
5990	0	32128	
5991	0	32020	
5992	0	31972	
5993	0	31912	
5994	0	31872	
5995	0	31792	
5996	0	31664	
5997	0	31500	
5998	0	31348	
5999	0	31224	
6000	0	31128	
6001	0	31024	
6002	0	30944	
6003	0	30888	
6004	0	30876	
6005	0	30848	
6006	0	30880	
6007	0	30888	
6008	0	30880	
6009	0	30892	
6010	0	30908	
6011	0	30928	
6012	0	30940	
6013	0	30944	
6014	0	30956	
6015	0	30970	
6016	0	30982	
6017	0	30972	
6018	0	30984	
6019	0	31012	
6020	0	31008	
6021	0	31036	
6022	0	31072	
6023	0	31068	
6024	0	31112	
6025	0	31200	
6026	0	31244	
6027	0	31264	
6028	0	31266	
6029	0	31200	
6030	0	31140	
6031	0	31134	
6032	0	31164	
6033	0	31208	
6034	0	31240	
6035	0	31280	
6036	0	31308	
6037	0	31380	
6038	0	31440	
6039	0	31464	
6040	0	31500	
6041	0	31560	
6042	0	31548	
6043	0	31468	
6044	0	31336	
6045	0	31148	
6046	0	30924	
6047	0	30584	
6048	0	30026	
6049	0	29310	
6050	0	28456	
6051	0	27624	
6052	0	26944	
6053	0	26468	
6054	0	26148	
6055	0	26020	
6056	0	26092	
6057	0	26412	
6058	0	26960	
6059	0	27744	
6060	0	28770	
6061	0	30088	
6062	0	31604	
6063	0	33464	
6064	0	35620	
6065	0	38124	
6066	0	40880	
6067	0	44024	
6068	0	47796	
6069	0	51924	
6070	0	56016	
6071	0	59856	
6072	0	62596	
6073	0	64072	
6074	0	64812	
6075	0	65152	
6076	0	65280	
6077	0	65300	
6078	0	65244	
6079	0	65152	
6080	0	65024	
6081	0	64896	
6082	0	64788	
6083	0	62460	
6084	0	56144	
6085	0	50978	
6086	0	46816	
6087	0	43404	
6088	0	40544	
6089	0	37984	
6090	0	35708	
6091	0	33720	
6092	0	32156	
6093	0	30984	
6094	0	30024	
6095	0	29276	
6096	0	28640	
6097	0	28124	
6098	0	27680	
6099	0	27372	
6100	0	27240	
6101	0	27132	
6102	0	27024	
6103	0	26946	
6104	0	26936	
6105	0	26996	
6106	0	27136	
6107	0	27352	
6108	0	27600	
6109	0	27868	
6110	0	28168	
6111	0	28468	
6112	0	28714	
6113	0	28876	
6114	0	28980	
6115	0	28992	
6116	0	28946	
6117	0	28928	
6118	0	28904	
6119	0	28890	
6120	0	28880	
6121	0	28864	
6122	0	28836	
6123	0	28824	
6124	0	28812	
6125	0	28788	
6126	0	28772	
6127	0	28796	
6128	0	28792	
6129	0	28784	
6130	0	28804	
6131	0	28824	
6132	0	28856	
6133	0	28952	
6134	0	29028	
6135	0	29060	
6136	0	29092	
6137	0	29100	
6138	0	29132	
6139	0	29152	
6140	0	29152	
6141	0	29172	
6142	0	29232	
6143	0	29296	
6144	0	29372	
6145	0	29480	
6146	0	29520	
6147	0	29558	
6148	0	29548	
6149	0	29572	
6150	0	29656	
6151	0	29696	
6152	0	29696	
6153	0	29716	
6154	0	29756	
6155	0	29786	
6156	0	29800	
6157	0	29842	
6158	0	29904	
6159	0	29964	
6160	0	30056	
6161	0	30168	
6162	0	30268	
6163	0	30380	
6164	0	30452	
6165	0	30548	
6166	0	30600	
6167	0	30700	
6168	0	30772	
6169	0	30868	
6170	0	30884	
6171	0	30880	
6172	0	30900	
6173	0	30956	
6174	0	30980	
6175	0	31016	
6176	0	31060	
6177	0	31100	
6178	0	31180	
6179	0	31232	
6180	0	31268	
6181	0	31296	
6182	0	31310	
6183	0	31344	
6184	0	31394	
6185	0	31428	
6186	0	31458	
6187	0	31516	
6188	0	31596	
6189	0	31688	
6190	0	31724	
6191	0	31772	
6192	0	31824	
6193	0	31840	
6194	0	31800	
6195	0	31840	
6196	0	31928	
6197	0	31994	
6198	0	32072	
6199	0	32116	
6200	0	32168	
6201	0	32220	
6202	0	32288	
6203	0	32352	
6204	0	32396	
6205	0	32464	
6206	0	32516	
6207	0	32600	
6208	0	32664	
6209	0	32728	
6210	0	32802	
6211	0	32884	
6212	0	32912	
6213	0	32960	
6214	0	33012	
6215	0	33088	
6216	0	33168	
6217	0	33256	
6218	0	33304	
6219	0	33352	
6220	0	33408	
6221	0	33472	
6222	0	33532	
6223	0	33580	
6224	0	33632	
6225	0	33656	
6226	0	33724	
6227	0	33784	
6228	0	33852	
6229	0	33944	
6230	0	34008	
6231	0	34076	
6232	0	34176	
6233	0	34274	
6234	0	34376	
6235	0	34432	
6236	0	34464	
6237	0	34496	
6238	0	34576	
6239	0	34632	
6240	0	34692	
6241	0	34752	
6242	0	34832	
6243	0	34868	
6244	0	34924	
6245	0	34984	
6246	0	35036	
6247	0	35112	
6248	0	35208	
6249	0	35260	
6250	0	35284	
6251	0	35328	
6252	0	35352	
6253	0	35400	
6254	0	35448	
6255	0	35490	
6256	0	35552	
6257	0	35588	
6258	0	35604	
6259	0	35616	
6260	0	35600	
6261	0	35580	
6262	0	35596	
6263	0	35600	
6264	0	35600	
6265	0	35584	
6266	0	35584	
6267	0	35612	
6268	0	35596	
6269	0	35524	
6270	0	35508	
6271	0	35500	
6272	0	35492	
6273	0	35480	
6274	0	35432	
6275	0	35364	
6276	0	35320	
6277	0	35296	
6278	0	35258	
6279	0	35236	
6280	0	35236	
6281	0	35248	
6282	0	35204	
6283	0	35120	
6284	0	35028	
6285	0	34980	
6286	0	34912	
6287	0	34884	
6288	0	34880	
6289	0	34904	
6290	0	34884	
6291	0	34852	
6292	0	34816	
6293	0	34756	
6294	0	34648	
6295	0	34528	
6296	0	34424	
6297	0	34298	
6298	0	34208	
6299	0	34120	
6300	0	34006	
6301	0	33872	
6302	0	33748	
6303	0	33646	
6304	0	33568	
6305	0	33512	
6306	0	33440	
6307	0	33320	
6308	0	33204	
6309	0	33068	
6310	0	32912	
6311	0	32780	
6312	0	32668	
6313	0	32556	
6314	0	32448	
6315	0	32340	
6316	0	32212	
6317	0	32068	
6318	0	31944	
6319	0	31800	
6320	0	31648	
6321	0	31520	
6322	0	31424	
6323	0	31332	
6324	0	31250	
6325	0	31152	
6326	0	31064	
6327	0	30956	
6328	0	30868	
6329	0	30812	
6330	0	30752	
6331	0	30620	
6332	0	30472	
6333	0	30392	
6334	0	30344	
6335	0	30302	
6336	0	30248	
6337	0	30164	
6338	0	30092	
6339	0	30040	
6340	0	29986	
6341	0	29940	
6342	0	29900	
6343	0	29844	
6344	0	29818	
6345	0	29768	
6346	0	29712	
6347	0	29680	
6348	0	29696	
6349	0	29696	
6350	0	29688	
6351	0	29648	
6352	0	29648	
6353	0	29636	
6354	0	29628	
6355	0	29624	
6356	0	29632	
6357	0	29620	
6358	0	29576	
6359	0	29596	
6360	0	29612	
6361	0	29620	
6362	0	29640	
6363	0	29600	
6364	0	29576	
6365	0	29588	
6366	0	29600	
6367	0	29524	
6368	0	29424	
6369	0	29376	
6370	0	29346	
6371	0	29360	
6372	0	29416	
6373	0	29524	
6374	0	29640	
6375	0	29776	
6376	0	29892	
6377	0	29996	
6378	0	30128	
6379	0	30256	
6380	0	30344	
6381	0	30384	
6382	0	30444	
6383	0	30488	
6384	0	30516	
6385	0	30540	
6386	0	30544	
6387	0	30562	
6388	0	30568	
6389	0	30564	
6390	0	30624	
6391	0	30672	
6392	0	30670	
6393	0	30656	
6394	0	30660	
6395	0	30632	
6396	0	30640	
6397	0	30736	
6398	0	30816	
6399	0	30900	
6400	0	31020	
6401	0	31124	
6402	0	31208	
6403	0	31198	
6404	0	31176	
6405	0	31196	
6406	0	31208	
6407	0	31266	
6408	0	31320	
6409	0	31376	
6410	0	31456	
6411	0	31520	
6412	0	31560	
6413	0	31640	
6414	0	31696	
6415	0	31744	
6416	0	31752	
6417	0	31720	
6418	0	31724	
6419	0	31768	
6420	0	31792	
6421	0	31832	
6422	0	31868	
6423	0	31876	
6424	0	31876	
6425	0	31896	
6426	0	31916	
6427	0	31932	
6428	0	31908	
6429	0	31884	
6430	0	31920	
6431	0	31924	
6432	0	31980	
6433	0	32024	
6434	0	32044	
6435	0	32100	
6436	0	32140	
6437	0	32124	
6438	0	32128	
6439	0	32160	
6440	0	32200	
6441	0	32240	
6442	0	32236	
6443	0	32288	
6444	0	32304	
6445	0	32272	
6446	0	32208	
6447	0	32252	
6448	0	32300	
6449	0	32324	
6450	0	32340	
6451	0	32324	
6452	0	32320	
6453	0	32272	
6454	0	32250	
6455	0	32364	
6456	0	32416	
6457	0	32372	
6458	0	32376	
6459	0	32438	
6460	0	32472	
6461	0	32532	
6462	0	32528	
6463	0	32504	
6464	0	32472	
6465	0	32416	
6466	0	32380	
6467	0	32362	
6468	0	32384	
6469	0	32416	
6470	0	32460	
6471	0	32472	
6472	0	32460	
6473	0	32440	
6474	0	32428	
6475	0	32420	
6476	0	32416	
6477	0	32404	
6478	0	32420	
6479	0	32472	
6480	0	32514	
6481	0	32568	
6482	0	32608	
6483	0	32592	
6484	0	32532	
6485	0	32476	
6486	0	32472	
6487	0	32472	
6488	0	32472	
6489	0	32488	
6490	0	32514	
6491	0	32476	
6492	0	32504	
6493	0	32540	
6494	0	32536	
6495	0	32508	
6496	0	32480	
6497	0	32468	
6498	0	32476	
6499	0	32488	
6500	0	32536	
6501	0	32608	
6502	0	32628	
6503	0	32600	
6504	0	32584	
6505	0	32616	
6506	0	32664	
6507	0	32672	
6508	0	32652	
6509	0	32696	
6510	0	32752	
6511	0	32848	
6512	0	32964	
6513	0	32992	
6514	0	33032	
6515	0	33080	
6516	0	33048	
6517	0	33052	
6518	0	33152	
6519	0	33304	
6520	0	33364	
6521	0	33344	
6522	0	33350	
6523	0	33360	
6524	0	33320	
6525	0	33276	
6526	0	33216	
6527	0	33140	
6528	0	33140	
6529	0	33140	
6530	0	33136	
6531	0	33136	
6532	0	33132	
6533	0	33164	
6534	0	33228	
6535	0	33328	
6536	0	33424	
6537	0	33592	
6538	0	33888	
6539	0	34228	
6540	0	34528	
6541	0	34756	
6542	0	34920	
6543	0	35064	
6544	0	35200	
6545	0	35348	
6546	0	35476	
6547	0	35554	
6548	0	35596	
6549	0	35560	
6550	0	35444	
6551	0	35260	
6552	0	35216	
6553	0	35212	
6554	0	35128	
6555	0	34980	
6556	0	34796	
6557	0	34550	
6558	0	34288	
6559	0	34076	
6560	0	33920	
6561	0	33824	
6562	0	33672	
6563	0	33548	
6564	0	33436	
6565	0	33300	
6566	0	33120	
6567	0	33024	
6568	0	33028	
6569	0	33058	
6570	0	33020	
6571	0	32916	
6572	0	32792	
6573	0	32756	
6574	0	32744	
6575	0	32716	
6576	0	32636	
6577	0	32528	
6578	0	32436	
6579	0	32348	
6580	0	32272	
6581	0	32162	
6582	0	32012	
6583	0	31920	
6584	0	31820	
6585	0	31696	
6586	0	31600	
6587	0	31504	
6588	0	31372	
6589	0	31272	
6590	0	31164	
6591	0	31072	
6592	0	31012	
6593	0	31004	
6594	0	31004	
6595	0	31000	
6596	0	31008	
6597	0	31008	
6598	0	31008	
6599	0	31036	
6600	0	31044	
6601	0	31080	
6602	0	31160	
6603	0	31162	
6604	0	31156	
6605	0	31168	
6606	0	31188	
6607	0	31200	
6608	0	31240	
6609	0	31296	
6610	0	31272	
6611	0	31240	
6612	0	31284	
6613	0	31340	
6614	0	31388	
6615	0	31400	
6616	0	31432	
6617	0	31464	
6618	0	31460	
6619	0	31480	
6620	0	31520	
6621	0	31492	
6622	0	31484	
6623	0	31516	
6624	0	31546	
6625	0	31568	
6626	0	31608	
6627	0	31648	
6628	0	31656	
6629	0	31696	
6630	0	31700	
6631	0	31676	
6632	0	31684	
6633	0	31692	
6634	0	31532	
6635	0	31248	
6636	0	30860	
6637	0	30296	
6638	0	29536	
6639	0	28748	
6640	0	28096	
6641	0	27700	
6642	0	27484	
6643	0	27376	
6644	0	27488	
6645	0	27788	
6646	0	28410	
6647	0	29284	
6648	0	30388	
6649	0	31672	
6650	0	33178	
6651	0	34900	
6652	0	36836	
6653	0	39092	
6654	0	41670	
6655	0	44624	
6656	0	48172	
6657	0	52184	
6658	0	56184	
6659	0	59960	
6660	0	62568	
6661	0	63944	
6662	0	64640	
6663	0	64952	
6664	0	65064	
6665	0	65064	
6666	0	65000	
6667	0	64896	
6668	0	64808	
6669	0	64672	
6670	0	64536	
6671	0	64412	
6672	0	58740	
6673	0	53204	
6674	0	48676	
6675	0	44952	
6676	0	41916	
6677	0	39208	
6678	0	36720	
6679	0	34484	
6680	0	32540	
6681	0	30920	
6682	0	29584	
6683	0	28528	
6684	0	27664	
6685	0	27076	
6686	0	26720	
6687	0	26480	
6688	0	26384	
6689	0	26416	
6690	0	26428	
6691	0	26408	
6692	0	26400	
6693	0	26448	
6694	0	26644	
6695	0	26940	
6696	0	27260	
6697	0	27554	
6698	0	27774	
6699	0	27984	
6700	0	28224	
6701	0	28472	
6702	0	28674	
6703	0	28756	
6704	0	28784	
6705	0	28812	
6706	0	28776	
6707	0	28736	
6708	0	28712	
6709	0	28704	
6710	0	28640	
6711	0	28588	
6712	0	28608	
6713	0	28672	
6714	0	28656	
6715	0	28644	
6716	0	28678	
6717	0	28672	
6718	0	28704	
6719	0	28740	
6720	0	28772	
6721	0	28780	
6722	0	28792	
6723	0	28872	
6724	0	28964	
6725	0	29012	
6726	0	29040	
6727	0	29098	
6728	0	29160	
6729	0	29236	
6730	0	29248	
6731	0	29324	
6732	0	29408	
6733	0	29452	
6734	0	29496	
6735	0	29536	
6736	0	29536	
6737	0	29590	
6738	0	29632	
6739	0	29660	
6740	0	29696	
6741	0	29728	
6742	0	29818	
6743	0	29888	
6744	0	29872	
6745	0	29864	
6746	0	29884	
6747	0	29896	
6748	0	29936	
6749	0	30040	
6750	0	30128	
6751	0	30178	
6752	0	30250	
6753	0	30284	
6754	0	30360	
6755	0	30452	
6756	0	30552	
6757	0	30588	
6758	0	30624	
6759	0	30672	
6760	0	30724	
6761	0	30784	
6762	0	30864	
6763	0	30912	
6764	0	30940	
6765	0	30970	
6766	0	30988	
6767	0	31000	
6768	0	30978	
6769	0	30944	
6770	0	30968	
6771	0	31040	
6772	0	31130	
6773	0	31244	
6774	0	31300	
6775	0	31320	
6776	0	31370	
6777	0	31456	
6778	0	31536	
6779	0	31596	
6780	0	31648	
6781	0	31728	
6782	0	31824	
6783	0	31888	
6784	0	31928	
6785	0	31976	
6786	0	32004	
6787	0	31994	
6788	0	32042	
6789	0	32084	
6790	0	32220	
6791	0	32328	
6792	0	32356	
6793	0	32368	
6794	0	32400	
6795	0	32432	
6796	0	32442	
6797	0	32496	
6798	0	32564	
6799	0	32616	
6800	0	32692	
6801	0	32792	
6802	0	32876	
6803	0	32960	
6804	0	33024	
6805	0	33068	
6806	0	33072	
6807	0	33108	
6808	0	33160	
6809	0	33250	
6810	0	33348	
6811	0	33456	
6812	0	33524	
6813	0	33592	
6814	0	33704	
6815	0	33804	
6816	0	33876	
6817	0	33916	
6818	0	33960	
6819	0	34032	
6820	0	34116	
6821	0	34170	
6822	0	34188	
6823	0	34216	
6824	0	34268	
6825	0	34298	
6826	0	34344	
6827	0	34412	
6828	0	34508	
6829	0	34580	
6830	0	34632	
6831	0	34672	
6832	0	34704	
6833	0	34768	
6834	0	34860	
6835	0	34912	
6836	0	34912	
6837	0	34966	
6838	0	35048	
6839	0	35072	
6840	0	35124	
6841	0	35172	
6842	0	35256	
6843	0	35284	
6844	0	35236	
6845	0	35200	
6846	0	35232	
6847	0	35268	
6848	0	35276	
6849	0	35284	
6850	0	35332	
6851	0	35376	
6852	0	35384	
6853	0	35418	
6854	0	35456	
6855	0	35448	
6856	0	35472	
6857	0	35472	
6858	0	35440	
6859	0	35428	
6860	0	35432	
6861	0	35404	
6862	0	35344	
6863	0	35268	
6864	0	35228	
6865	0	35184	
6866	0	35156	
6867	0	35148	
6868	0	35116	
6869	0	35052	
6870	0	35020	
6871	0	34992	
6872	0	34976	
6873	0	34932	
6874	0	34904	
6875	0	34888	
6876	0	34880	
6877	0	34900	
6878	0	34828	
6879	0	34736	
6880	0	34660	
6881	0	34600	
6882	0	34528	
6883	0	34468	
6884	0	34432	
6885	0	34336	
6886	0	34184	
6887	0	33984	
6888	0	33864	
6889	0	33836	
6890	0	33820	
6891	0	33752	
6892	0	33676	
6893	0	33632	
6894	0	33620	
6895	0	33588	
6896	0	33528	
6897	0	33396	
6898	0	33256	
6899	0	33172	
6900	0	33052	
6901	0	32928	
6902	0	32844	
6903	0	32736	
6904	0	32612	
6905	0	32520	
6906	0	32400	
6907	0	32296	
6908	0	32152	
6909	0	31972	
6910	0	31840	
6911	0	31764	
6912	0	31696	
6913	0	31584	
6914	0	31440	
6915	0	31320	
6916	0	31264	
6917	0	31202	
6918	0	31124	
6919	0	31024	
6920	0	30924	
6921	0	30824	
6922	0	30768	
6923	0	30704	
6924	0	30652	
6925	0	30570	
6926	0	30492	
6927	0	30408	
6928	0	30280	
6929	0	30144	
6930	0	30040	
6931	0	29952	
6932	0	29868	
6933	0	29812	
6934	0	29760	
6935	0	29720	
6936	0	29692	
6937	0	29632	
6938	0	29620	
6939	0	29656	
6940	0	29688	
6941	0	29720	
6942	0	29776	
6943	0	29792	
6944	0	29768	
6945	0	29720	
6946	0	29628	
6947	0	29596	
6948	0	29548	
6949	0	29528	
6950	0	29544	
6951	0	29544	
6952	0	29620	
6953	0	29632	
6954	0	29624	
6955	0	29594	
6956	0	29580	
6957	0	29596	
6958	0	29632	
6959	0	29680	
6960	0	29674	
6961	0	29712	
6962	0	29716	
6963	0	29724	
6964	0	29762	
6965	0	29792	
6966	0	29824	
6967	0	29876	
6968	0	29900	
6969	0	29950	
6970	0	30032	
6971	0	30124	
6972	0	30136	
6973	0	30168	
6974	0	30232	
6975	0	30264	
6976	0	30264	
6977	0	30280	
6978	0	30316	
6979	0	30368	
6980	0	30444	
6981	0	30512	
6982	0	30564	
6983	0	30584	
6984	0	30636	
6985	0	30724	
6986	0	30764	
6987	0	30812	
6988	0	30832	
6989	0	30852	
6990	0	30892	
6991	0	30940	
6992	0	30952	
6993	0	30984	
6994	0	31044	
6995	0	31120	
6996	0	31144	
6997	0	31172	
6998	0	31228	
6999	0	31248	
7000	0	31284	
7001	0	31328	
7002	0	31346	
7003	0	31368	
7004	0	31424	
7005	0	31484	
7006	0	31524	
7007	0	31548	
7008	0	31572	
7009	0	31620	
7010	0	31636	
7011	0	31616	
7012	0	31640	
7013	0	31668	
7014	0	31680	
7015	0	31740	
7016	0	31824	
7017	0	31860	
7018	0	31904	
7019	0	31940	
7020	0	31964	
7021	0	31992	
7022	0	32072	
7023	0	32120	
7024	0	32136	
7025	0	32104	
7026	0	32102	
7027	0	32142	
7028	0	32164	
7029	0	32112	
7030	0	32092	
7031	0	32104	
7032	0	32168	
7033	0	32206	
7034	0	32192	
7035	0	32192	
7036	0	32186	
7037	0	32160	
7038	0	32176	
7039	0	32216	
7040	0	32254	
7041	0	32292	
7042	0	32332	
7043	0	32356	
7044	0	32372	
7045	0	32412	
7046	0	32436	
7047	0	32380	
7048	0	32412	
7049	0	32412	
7050	0	32424	
7051	0	32424	
7052	0	32412	
7053	0	32456	
7054	0	32480	
7055	0	32416	
7056	0	32400	
7057	0	32420	
7058	0	32428	
7059	0	32448	
7060	0	32416	
7061	0	32396	
7062	0	32432	
7063	0	32472	
7064	0	32532	
7065	0	32528	
7066	0	32512	
7067	0	32488	
7068	0	32444	
7069	0	32416	
7070	0	32392	
7071	0	32374	
7072	0	32374	
7073	0	32352	
7074	0	32348	
7075	0	32324	
7076	0	32314	
7077	0	32320	
7078	0	32320	
7079	0	32324	
7080	0	32368	
7081	0	32404	
7082	0	32416	
7083	0	32440	
7084	0	32460	
7085	0	32440	
7086	0	32416	
7087	0	32376	
7088	0	32378	
7089	0	32380	
7090	0	32332	
7091	0	32280	
7092	0	32260	
7093	0	32276	
7094	0	32276	
7095	0	32296	
7096	0	32312	
7097	0	32296	
7098	0	32288	
7099	0	32244	
7100	0	32200	
7101	0	32178	
7102	0	32164	
7103	0	32108	
7104	0	32112	
7105	0	32128	
7106	0	32124	
7107	0	32120	
7108	0	32160	
7109	0	32192	
7110	0	32132	
7111	0	32106	
7112	0	32110	
7113	0	32192	
7114	0	32248	
7115	0	32232	
7116	0	32216	
7117	0	32180	
7118	0	32208	
7119	0	32200	
7120	0	32220	
7121	0	32256	
7122	0	32260	
7123	0	32240	
7124	0	32222	
7125	0	32192	
7126	0	32176	
7127	0	32188	
7128	0	32216	
7129	0	32248	
7130	0	32312	
7131	0	32336	
7132	0	32344	
7133	0	32338	
7134	0	32340	
7135	0	32384	
7136	0	32382	
7137	0	32392	
7138	0	32464	
7139	0	32488	
7140	0	32552	
7141	0	32608	
7142	0	32680	
7143	0	32810	
7144	0	32868	
7145	0	32932	
7146	0	32960	
7147	0	32988	
7148	0	33016	
7149	0	33088	
7150	0	33196	
7151	0	33212	
7152	0	33196	
7153	0	33184	
7154	0	33168	
7155	0	33184	
7156	0	33168	
7157	0	33158	
7158	0	33116	
7159	0	33120	
7160	0	33096	
7161	0	33036	
7162	0	33040	
7163	0	33076	
7164	0	33124	
7165	0	33172	
7166	0	33240	
7167	0	33344	
7168	0	33500	
7169	0	33696	
7170	0	33938	
7171	0	34220	
7172	0	34484	
7173	0	34632	
7174	0	34736	
7175	0	34788	
7176	0	34896	
7177	0	34988	
7178	0	35084	
7179	0	35164	
7180	0	35208	
7181	0	35124	
7182	0	35044	
7183	0	34988	
7184	0	34852	
7185	0	34676	
7186	0	34552	
7187	0	34456	
7188	0	34344	
7189	0	34216	
7190	0	34088	
7191	0	33984	
7192	0	33880	
7193	0	33772	
7194	0	33672	
7195	0	33576	
7196	0	33456	
7197	0	33360	
7198	0	33296	
7199	0	33232	
7200	0	33172	
7201	0	33104	
7202	0	33008	
7203	0	32940	
7204	0	32900	
7205	0	32852	
7206	0	32776	
7207	0	32692	
7208	0	32556	
7209	0	32456	
7210	0	32384	
7211	0	32274	
7212	0	32192	
7213	0	32152	
7214	0	32032	
7215	0	31872	
7216	0	31764	
7217	0	31628	
7218	0	31456	
7219	0	31328	
7220	0	31244	
7221	0	31152	
7222	0	31056	
7223	0	31000	
7224	0	31000	
7225	0	31012	
7226	0	31108	
7227	0	31190	
7228	0	31236	
7229	0	31252	
7230	0	31252	
7231	0	31264	
7232	0	31316	
7233	0	31360	
7234	0	31384	
7235	0	31416	
7236	0	31494	
7237	0	31506	
7238	0	31440	
7239	0	31384	
7240	0	31380	
7241	0	31416	
7242	0	31512	
7243	0	31556	
7244	0	31592	
7245	0	31628	
7246	0	31642	
7247	0	31624	
7248	0	31646	
7249	0	31684	
7250	0	31704	
7251	0	31688	
7252	0	31652	
7253	0	31636	
7254	0	31658	
7255	0	31668	
7256	0	31680	
7257	0	31716	
7258	0	31732	
7259	0	31744	
7260	0	31792	
7261	0	31884	
7262	0	31948	
7263	0	31968	
7264	0	31912	
7265	0	31804	
7266	0	31672	
7267	0	31452	
7268	0	31128	
7269	0	30664	
7270	0	30020	
7271	0	29290	
7272	0	28688	
7273	0	28332	
7274	0	28152	
7275	0	28140	
7276	0	28344	
7277	0	28768	
7278	0	29424	
7279	0	30304	
7280	0	31352	
7281	0	32572	
7282	0	34064	
7283	0	35710	
7284	0	37464	
7285	0	39500	
7286	0	41944	
7287	0	44736	
7288	0	48052	
7289	0	51808	
7290	0	55568	
7291	0	59176	
7292	0	62072	
7293	0	63652	
7294	0	64448	
7295	0	64832	
7296	0	64976	
7297	0	64984	
7298	0	64932	
7299	0	64852	
7300	0	64752	
7301	0	64632	
7302	0	64496	
7303	0	64288	
7304	0	57512	
7305	0	52064	
7306	0	47564	
7307	0	43832	
7308	0	40832	
7309	0	38280	
7310	0	35928	
7311	0	33810	
7312	0	31944	
7313	0	30308	
7314	0	28936	
7315	0	27874	
7316	0	27022	
7317	0	26456	
7318	0	26152	
7319	0	25952	
7320	0	25888	
7321	0	25960	
7322	0	26092	
7323	0	26152	
7324	0	26204	
7325	0	26266	
7326	0	26444	
7327	0	26670	
7328	0	26932	
7329	0	27224	
7330	0	27632	
7331	0	27984	
7332	0	28248	
7333	0	28474	
7334	0	28650	
7335	0	28808	
7336	0	28904	
7337	0	28960	
7338	0	29008	
7339	0	29020	
7340	0	28992	
7341	0	28960	
7342	0	28948	
7343	0	28944	
7344	0	28924	
7345	0	28852	
7346	0	28856	
7347	0	28920	
7348	0	28892	
7349	0	28856	
7350	0	28866	
7351	0	28908	
7352	0	29008	
7353	0	29036	
7354	0	29056	
7355	0	29104	
7356	0	29150	
7357	0	29176	
7358	0	29232	
7359	0	29308	
7360	0	29364	
7361	0	29356	
7362	0	29384	
7363	0	29436	
7364	0	29504	
7365	0	29554	
7366	0	29613	
7367	0	29688	
7368	0	29712	
7369	0	29692	
7370	0	29712	
7371	0	29804	
7372	0	29888	
7373	0	29964	
7374	0	30028	
7375	0	30096	
7376	0	30120	
7377	0	30176	
7378	0	30220	
7379	0	30248	
7380	0	30272	
7381	0	30296	
7382	0	30360	
7383	0	30426	
7384	0	30494	
7385	0	30556	
7386	0	30594	
7387	0	30652	
7388	0	30688	
7389	0	30704	
7390	0	30676	
7391	0	30680	
7392	0	30722	
7393	0	30796	
7394	0	30848	
7395	0	30930	
7396	0	30988	
7397	0	31040	
7398	0	31084	
7399	0	31148	
7400	0	31224	
7401	0	31344	
7402	0	31372	
7403	0	31416	
7404	0	31448	
7405	0	31444	
7406	0	31468	
7407	0	31552	
7408	0	31568	
7409	0	31552	
7410	0	31570	
7411	0	31616	
7412	0	31684	
7413	0	31750	
7414	0	31788	
7415	0	31832	
7416	0	31888	
7417	0	31996	
7418	0	32074	
7419	0	32128	
7420	0	32180	
7421	0	32212	
7422	0	32284	
7423	0	32348	
7424	0	32328	
7425	0	32344	
7426	0	32392	
7427	0	32480	
7428	0	32544	
7429	0	32542	
7430	0	32528	
7431	0	32578	
7432	0	32652	
7433	0	32722	
7434	0	32792	
7435	0	32918	
7436	0	33088	
7437	0	33180	
7438	0	33244	
7439	0	33344	
7440	0	33400	
7441	0	33464	
7442	0	33524	
7443	0	33572	
7444	0	33624	
7445	0	33652	
7446	0	33716	
7447	0	33818	
7448	0	33868	
7449	0	33860	
7450	0	33844	
7451	0	33868	
7452	0	33904	
7453	0	33984	
7454	0	34064	
7455	0	34160	
7456	0	34252	
7457	0	34336	
7458	0	34412	
7459	0	34484	
7460	0	34492	
7461	0	34572	
7462	0	34640	
7463	0	34668	
7464	0	34736	
7465	0	34832	
7466	0	34956	
7467	0	35064	
7468	0	35084	
7469	0	35054	
7470	0	35068	
7471	0	35140	
7472	0	35208	
7473	0	35266	
7474	0	35306	
7475	0	35380	
7476	0	35454	
7477	0	35476	
7478	0	35472	
7479	0	35484	
7480	0	35492	
7481	0	35528	
7482	0	35542	
7483	0	35572	
7484	0	35584	
7485	0	35576	
7486	0	35596	
7487	0	35648	
7488	0	35600	
7489	0	35528	
7490	0	35508	
7491	0	35484	
7492	0	35420	
7493	0	35360	
7494	0	35348	
7495	0	35360	
7496	0	35388	
7497	0	35404	
7498	0	35360	
7499	0	35288	
7500	0	35216	
7501	0	35176	
7502	0	35084	
7503	0	35000	
7504	0	34948	
7505	0	34976	
7506	0	34948	
7507	0	34920	
7508	0	34872	
7509	0	34816	
7510	0	34780	
7511	0	34700	
7512	0	34680	
7513	0	34644	
7514	0	34604	
7515	0	34568	
7516	0	34496	
7517	0	34404	
7518	0	34300	
7519	0	34204	
7520	0	34110	
7521	0	34048	
7522	0	34024	
7523	0	33948	
7524	0	33864	
7525	0	33752	
7526	0	33660	
7527	0	33556	
7528	0	33472	
7529	0	33380	
7530	0	33336	
7531	0	33252	
7532	0	33152	
7533	0	33036	
7534	0	32888	
7535	0	32784	
7536	0	32716	
7537	0	32644	
7538	0	32520	
7539	0	32396	
7540	0	32268	
7541	0	32137	
7542	0	32000	
7543	0	31852	
7544	0	31616	
7545	0	31444	
7546	0	31340	
7547	0	31272	
7548	0	31152	
7549	0	31024	
7550	0	30978	
7551	0	30884	
7552	0	30780	
7553	0	30764	
7554	0	30696	
7555	0	30604	
7556	0	30520	
7557	0	30448	
7558	0	30412	
7559	0	30316	
7560	0	30190	
7561	0	30092	
7562	0	30034	
7563	0	30012	
7564	0	29952	
7565	0	29868	
7566	0	29816	
7567	0	29768	
7568	0	29748	
7569	0	29708	
7570	0	29628	
7571	0	29564	
7572	0	29484	
7573	0	29488	
7574	0	29424	
7575	0	29344	
7576	0	29308	
7577	0	29266	
7578	0	29298	
7579	0	29304	
7580	0	29272	
7581	0	29260	
7582	0	29282	
7583	0	29316	
7584	0	29310	
7585	0	29260	
7586	0	29224	
7587	0	29156	
7588	0	29148	
7589	0	29200	
7590	0	29204	
7591	0	29252	
7592	0	29264	
7593	0	29248	
7594	0	29300	
7595	0	29388	
7596	0	29452	
7597	0	29480	
7598	0	29460	
7599	0	29456	
7600	0	29476	
7601	0	29492	
7602	0	29550	
7603	0	29596	
7604	0	29674	
7605	0	29800	
7606	0	29892	
7607	0	29956	
7608	0	30012	
7609	0	30032	
7610	0	30016	
7611	0	30064	
7612	0	30144	
7613	0	30178	
7614	0	30220	
7615	0	30268	
7616	0	30328	
7617	0	30402	
7618	0	30468	
7619	0	30556	
7620	0	30672	
7621	0	30720	
7622	0	30684	
7623	0	30696	
7624	0	30720	
7625	0	30756	
7626	0	30768	
7627	0	30820	
7628	0	30874	
7629	0	30928	
7630	0	30956	
7631	0	30996	
7632	0	31032	
7633	0	31056	
7634	0	31088	
7635	0	31112	
7636	0	31140	
7637	0	31180	
7638	0	31204	
7639	0	31250	
7640	0	31308	
7641	0	31316	
7642	0	31376	
7643	0	31460	
7644	0	31536	
7645	0	31600	
7646	0	31668	
7647	0	31680	
7648	0	31636	
7649	0	31560	
7650	0	31560	
7651	0	31640	
7652	0	31668	
7653	0	31680	
7654	0	31740	
7655	0	31784	
7656	0	31824	
7657	0	31844	
7658	0	31848	
7659	0	31852	
7660	0	31900	
7661	0	31936	
7662	0	31968	
7663	0	32016	
7664	0	32012	
7665	0	32012	
7666	0	32020	
7667	0	32028	
7668	0	32084	
7669	0	32080	
7670	0	32096	
7671	0	32128	
7672	0	32160	
7673	0	32208	
7674	0	32256	
7675	0	32260	
7676	0	32264	
7677	0	32272	
7678	0	32232	
7679	0	32216	
7680	0	32248	
7681	0	32280	
7682	0	32312	
7683	0	32336	
7684	0	32304	
7685	0	32272	
7686	0	32250	
7687	0	32296	
7688	0	32392	
7689	0	32412	
7690	0	32388	
7691	0	32380	
7692	0	32372	
7693	0	32380	
7694	0	32368	
7695	0	32352	
7696	0	32376	
7697	0	32400	
7698	0	32424	
7699	0	32342	
7700	0	32316	
7701	0	32322	
7702	0	32324	
7703	0	32304	
7704	0	32274	
7705	0	32220	
7706	0	32224	
7707	0	32228	
7708	0	32200	
7709	0	32208	
7710	0	32228	
7711	0	32272	
7712	0	32296	
7713	0	32260	
7714	0	32204	
7715	0	32184	
7716	0	32196	
7717	0	32216	
7718	0	32272	
7719	0	32288	
7720	0	32288	
7721	0	32284	
7722	0	32252	
7723	0	32220	
7724	0	32216	
7725	0	32192	
7726	0	32184	
7727	0	32156	
7728	0	32196	
7729	0	32200	
7730	0	32192	
7731	0	32208	
7732	0	32196	
7733	0	32204	
7734	0	32176	
7735	0	32148	
7736	0	32108	
7737	0	32052	
7738	0	32044	
7739	0	32094	
7740	0	32108	
7741	0	32050	
7742	0	32064	
7743	0	32076	
7744	0	32088	
7745	0	32104	
7746	0	32086	
7747	0	32092	
7748	0	32056	
7749	0	32032	
7750	0	32072	
7751	0	32144	
7752	0	32172	
7753	0	32172	
7754	0	32160	
7755	0	32152	
7756	0	32168	
7757	0	32208	
7758	0	32252	
7759	0	32260	
7760	0	32262	
7761	0	32260	
7762	0	32240	
7763	0	32272	
7764	0	32280	
7765	0	32240	
7766	0	32240	
7767	0	32216	
7768	0	32212	
7769	0	32238	
7770	0	32256	
7771	0	32238	
7772	0	32204	
7773	0	32200	
7774	0	32164	
7775	0	32144	
7776	0	32148	
7777	0	32168	
7778	0	32184	
7779	0	32182	
7780	0	32210	
7781	0	32232	
7782	0	32208	
7783	0	32180	
7784	0	32184	
7785	0	32196	
7786	0	32192	
7787	0	32180	
7788	0	32184	
7789	0	32204	
7790	0	32232	
7791	0	32208	
7792	0	32176	
7793	0	32172	
7794	0	32124	
7795	0	32048	
7796	0	32052	
7797	0	32120	
7798	0	32140	
7799	0	32152	
7800	0	32128	
7801	0	32120	
7802	0	32132	
7803	0	32192	
7804	0	32228	
7805	0	32296	
7806	0	32336	
7807	0	32396	
7808	0	32408	
7809	0	32424	
7810	0	32444	
7811	0	32400	
7812	0	32416	
7813	0	32396	
7814	0	32376	
7815	0	32400	
7816	0	32428	
7817	0	32424	
7818	0	32444	
7819	0	32476	
7820	0	32488	
7821	0	32512	
7822	0	32516	
7823	0	32538	
7824	0	32560	
7825	0	32540	
7826	0	32572	
7827	0	32644	
7828	0	32748	
7829	0	32808	
7830	0	32860	
7831	0	32948	
7832	0	33048	
7833	0	33128	
7834	0	33210	
7835	0	33264	
7836	0	33296	
7837	0	33328	
7838	0	33396	
7839	0	33432	
7840	0	33476	
7841	0	33498	
7842	0	33492	
7843	0	33484	
7844	0	33482	
7845	0	33456	
7846	0	33432	
7847	0	33384	
7848	0	33356	
7849	0	33368	
7850	0	33440	
7851	0	33568	
7852	0	33696	
7853	0	33868	
7854	0	34084	
7855	0	34316	
7856	0	34588	
7857	0	34792	
7858	0	34868	
7859	0	34896	
7860	0	34956	
7861	0	35072	
7862	0	35232	
7863	0	35336	
7864	0	35392	
7865	0	35360	
7866	0	35312	
7867	0	35248	
7868	0	35172	
7869	0	35062	
7870	0	34960	
7871	0	34808	
7872	0	34662	
7873	0	34480	
7874	0	34344	
7875	0	34202	
7876	0	34060	
7877	0	33944	
7878	0	33836	
7879	0	33708	
7880	0	33604	
7881	0	33480	
7882	0	33362	
7883	0	33284	
7884	0	33252	
7885	0	33264	
7886	0	33208	
7887	0	33056	
7888	0	32872	
7889	0	32788	
7890	0	32766	
7891	0	32780	
7892	0	32748	
7893	0	32654	
7894	0	32508	
7895	0	32404	
7896	0	32352	
7897	0	32264	
7898	0	32192	
7899	0	32124	
7900	0	32040	
7901	0	31968	
7902	0	31872	
7903	0	31736	
7904	0	31644	
7905	0	31564	
7906	0	31548	
7907	0	31520	
7908	0	31476	
7909	0	31504	
7910	0	31544	
7911	0	31548	
7912	0	31548	
7913	0	31568	
7914	0	31556	
7915	0	31552	
7916	0	31566	
7917	0	31596	
7918	0	31660	
7919	0	31740	
7920	0	31736	
7921	0	31712	
7922	0	31648	
7923	0	31582	
7924	0	31604	
7925	0	31560	
7926	0	31572	
7927	0	31592	
7928	0	31620	
7929	0	31652	
7930	0	31672	
7931	0	31692	
7932	0	31736	
7933	0	31788	
7934	0	31792	
7935	0	31802	
7936	0	31848	
7937	0	31896	
7938	0	31936	
7939	0	31952	
7940	0	31956	
7941	0	32000	
7942	0	32044	
7943	0	32108	
7944	0	32128	
7945	0	32132	
7946	0	32160	
7947	0	32120	
7948	0	31928	
7949	0	31712	
7950	0	31432	
7951	0	31028	
7952	0	30456	
7953	0	29716	
7954	0	29052	
7955	0	28628	
7956	0	28394	
7957	0	28348	
7958	0	28456	
7959	0	28784	
7960	0	29296	
7961	0	30056	
7962	0	31096	
7963	0	32276	
7964	0	33604	
7965	0	35148	
7966	0	36824	
7967	0	38668	
7968	0	40908	
7969	0	43492	
7970	0	46512	
7971	0	50048	
7972	0	53792	
7973	0	57404	
7974	0	60820	
7975	0	63024	
7976	0	64172	
7977	0	64752	
7978	0	64996	
7979	0	65072	
7980	0	65064	
7981	0	64972	
7982	0	64868	
7983	0	64768	
7984	0	64648	
7985	0	64504	
7986	0	59496	
7987	0	53576	
7988	0	48800	
7989	0	44848	
7990	0	41608	
7991	0	39020	
7992	0	36744	
7993	0	34640	
7994	0	32752	
7995	0	31028	
7996	0	29504	
7997	0	28218	
7998	0	27220	
7999	0	26452	
8000	0	26034	
8001	0	25888	
8002	0	25900	
8003	0	25968	
8004	0	26072	
8005	0	26152	
8006	0	26248	
8007	0	26348	
8008	0	26505	
8009	0	26748	
8010	0	26996	
8011	0	27240	
8012	0	27548	
8013	0	27876	
8014	0	28208	
8015	0	28496	
8016	0	28748	
8017	0	28936	
8018	0	29014	
8019	0	29040	
8020	0	29028	
8021	0	29044	
8022	0	29094	
8023	0	29164	
8024	0	29216	
8025	0	29240	
8026	0	29248	
8027	0	29250	
8028	0	29242	
8029	0	29248	
8030	0	29278	
8031	0	29280	
8032	0	29304	
8033	0	29292	
8034	0	29304	
8035	0	29348	
8036	0	29396	
8037	0	29474	
8038	0	29528	
8039	0	29508	
8040	0	29496	
8041	0	29504	
8042	0	29552	
8043	0	29576	
8044	0	29604	
8045	0	29630	
8046	0	29620	
8047	0	29692	
8048	0	29760	
8049	0	29808	
8050	0	29922	
8051	0	30000	
8052	0	30024	
8053	0	30016	
8054	0	30048	
8055	0	30092	
8056	0	30128	
8057	0	30208	
8058	0	30264	
8059	0	30300	
8060	0	30328	
8061	0	30410	
8062	0	30508	
8063	0	30604	
8064	0	30660	
8065	0	30684	
8066	0	30688	
8067	0	30732	
8068	0	30764	
8069	0	30824	
8070	0	30858	
8071	0	30908	
8072	0	30984	
8073	0	31056	
8074	0	31120	
8075	0	31172	
8076	0	31220	
8077	0	31260	
8078	0	31314	
8079	0	31322	
8080	0	31336	
8081	0	31340	
8082	0	31404	
8083	0	31498	
8084	0	31532	
8085	0	31536	
8086	0	31568	
8087	0	31624	
8088	0	31664	
8089	0	31680	
8090	0	31680	
8091	0	31716	
8092	0	31812	
8093	0	31908	
8094	0	31972	
8095	0	32036	
8096	0	32080	
8097	0	32124	
8098	0	32164	
8099	0	32204	
8100	0	32280	
8101	0	32356	
8102	0	32396	
8103	0	32436	
8104	0	32488	
8105	0	32524	
8106	0	32556	
8107	0	32592	
8108	0	32668	
8109	0	32760	
8110	0	32800	
8111	0	32804	
8112	0	32820	
8113	0	32852	
8114	0	32906	
8115	0	33004	
8116	0	33080	
8117	0	33156	
8118	0	33248	
8119	0	33320	
8120	0	33364	
8121	0	33474	
8122	0	33560	
8123	0	33620	
8124	0	33664	
8125	0	33728	
8126	0	33800	
8127	0	33868	
8128	0	33944	
8129	0	34014	
8130	0	34080	
8131	0	34168	
8132	0	34240	
8133	0	34252	
8134	0	34284	
8135	0	34372	
8136	0	34420	
8137	0	34400	
8138	0	34408	
8139	0	34414	
8140	0	34476	
8141	0	34580	
8142	0	34696	
8143	0	34808	
8144	0	34932	
8145	0	35068	
8146	0	35176	
8147	0	35280	
8148	0	35340	
8149	0	35344	
8150	0	35332	
8151	0	35360	
8152	0	35376	
8153	0	35408	
8154	0	35480	
8155	0	35568	
8156	0	35624	
8157	0	35668	
8158	0	35728	
8159	0	35752	
8160	0	35788	
8161	0	35812	
8162	0	35880	
8163	0	35896	
8164	0	35876	
8165	0	35896	
8166	0	35912	
8167	0	35904	
8168	0	35856	
8169	0	35848	
8170	0	35844	
8171	0	35828	
8172	0	35808	
8173	0	35796	
8174	0	35792	
8175	0	35788	
8176	0	35800	
8177	0	35756	
8178	0	35728	
8179	0	35724	
8180	0	35692	
8181	0	35720	
8182	0	35768	
8183	0	35744	
8184	0	35700	
8185	0	35652	
8186	0	35584	
8187	0	35524	
8188	0	35424	
8189	0	35384	
8190	0	35332	
8191	0	35224	
8192	0	35144	
8193	0	35104	
8194	0	35072	
8195	0	35024	
8196	0	34984	
8197	0	34914	
8198	0	34872	
8199	0	34812	
8200	0	34744	
8201	0	34672	
8202	0	34628	
8203	0	34624	
8204	0	34618	
8205	0	34596	
8206	0	34528	
8207	0	34444	
8208	0	34388	
8209	0	34328	
8210	0	34208	
8211	0	34068	
8212	0	33892	
8213	0	33772	
8214	0	33616	
8215	0	33480	
8216	0	33388	
8217	0	33332	
8218	0	33216	
8219	0	33124	
8220	0	33002	
8221	0	32860	
8222	0	32756	
8223	0	32616	
8224	0	32476	
8225	0	32332	
8226	0	32256	
8227	0	32188	
8228	0	32096	
8229	0	31962	
8230	0	31840	
8231	0	31770	
8232	0	31684	
8233	0	31568	
8234	0	31448	
8235	0	31324	
8236	0	31204	
8237	0	31076	
8238	0	30960	
8239	0	30880	
8240	0	30816	
8241	0	30744	
8242	0	30700	
8243	0	30632	
8244	0	30576	
8245	0	30512	
8246	0	30480	
8247	0	30436	
8248	0	30416	
8249	0	30400	
8250	0	30272	
8251	0	30140	
8252	0	30048	
8253	0	30024	
8254	0	30000	
8255	0	29916	
8256	0	29864	
8257	0	29866	
8258	0	29872	
8259	0	29864	
8260	0	29860	
8261	0	29844	
8262	0	29804	
8263	0	29744	
8264	0	29680	
8265	0	29640	
8266	0	29604	
8267	0	29594	
8268	0	29604	
8269	0	29572	
8270	0	29564	
8271	0	29562	
8272	0	29556	
8273	0	29540	
8274	0	29548	
8275	0	29572	
8276	0	29580	
8277	0	29552	
8278	0	29604	
8279	0	29652	
8280	0	29704	
8281	0	29796	
8282	0	29836	
8283	0	29848	
8284	0	29900	
8285	0	29980	
8286	0	30040	
8287	0	30088	
8288	0	30116	
8289	0	30220	
8290	0	30322	
8291	0	30368	
8292	0	30408	
8293	0	30432	
8294	0	30448	
8295	0	30496	
8296	0	30536	
8297	0	30512	
8298	0	30536	
8299	0	30606	
8300	0	30684	
8301	0	30732	
8302	0	30736	
8303	0	30754	
8304	0	30792	
8305	0	30856	
8306	0	30988	
8307	0	31112	
8308	0	31240	
8309	0	31316	
8310	0	31360	
8311	0	31384	
8312	0	31348	
8313	0	31296	
8314	0	31292	
8315	0	31272	
8316	0	31272	
8317	0	31266	
8318	0	31264	
8319	0	31300	
8320	0	31324	
8321	0	31348	
8322	0	31392	
8323	0	31464	
8324	0	31528	
8325	0	31644	
8326	0	31784	
8327	0	31824	
8328	0	31818	
8329	0	31908	
8330	0	31944	
8331	0	31912	
8332	0	31856	
8333	0	31808	
8334	0	31810	
8335	0	31828	
8336	0	31896	
8337	0	32000	
8338	0	32010	
8339	0	31984	
8340	0	32044	
8341	0	31956	
8342	0	31908	
8343	0	31944	
8344	0	31852	
8345	0	31808	
8346	0	31916	
8347	0	31948	
8348	0	31940	
8349	0	31956	
8350	0	32046	
8351	0	32142	
8352	0	32120	
8353	0	32168	
8354	0	32260	
8355	0	32352	
8356	0	32408	
8357	0	32436	
8358	0	32432	
8359	0	32448	
8360	0	32476	
8361	0	32488	
8362	0	32460	
8363	0	32432	
8364	0	32400	
8365	0	32432	
8366	0	32516	
8367	0	32552	
8368	0	32528	
8369	0	32480	
8370	0	32512	
8371	0	32480	
8372	0	32396	
8373	0	32320	
8374	0	32320	
8375	0	32372	
8376	0	32440	
8377	0	32500	
8378	0	32602	
8379	0	32644	
8380	0	32624	
8381	0	32608	
8382	0	32652	
8383	0	32760	
8384	0	32768	
8385	0	32700	
8386	0	32712	
8387	0	32752	
8388	0	32736	
8389	0	32736	
8390	0	32800	
8391	0	32796	
8392	0	32748	
8393	0	32776	
8394	0	32812	
8395	0	32808	
8396	0	32768	
8397	0	32744	
8398	0	32696	
8399	0	32698	
8400	0	32748	
8401	0	32712	
8402	0	32640	
8403	0	32644	
8404	0	32592	
8405	0	32564	
8406	0	32488	
8407	0	32448	
8408	0	32352	
8409	0	32368	
8410	0	32412	
8411	0	32398	
8412	0	32440	
8413	0	32460	
8414	0	32472	
8415	0	32428	
8416	0	32464	
8417	0	32528	
8418	0	32584	
8419	0	32624	
8420	0	32620	
8421	0	32584	
8422	0	32580	
8423	0	32544	
8424	0	32464	
8425	0	32400	
8426	0	32336	
8427	0	32280	
8428	0	32204	
8429	0	32200	
8430	0	32132	
8431	0	32118	
8432	0	32120	
8433	0	32190	
8434	0	32292	
8435	0	32300	
8436	0	32312	
8437	0	32320	
8438	0	32368	
8439	0	32384	
8440	0	32424	
8441	0	32468	
8442	0	32416	
8443	0	32332	
8444	0	32264	
8445	0	32182	
8446	0	32208	
8447	0	32304	
8448	0	32376	
8449	0	32468	
8450	0	32502	
8451	0	32552	
8452	0	32492	
8453	0	32472	
8454	0	32532	
8455	0	32644	
8456	0	32696	
8457	0	32700	
8458	0	32689	
8459	0	32688	
8460	0	32632	
8461	0	32560	
8462	0	32608	
8463	0	32688	
8464	0	32748	
8465	0	32864	
8466	0	33022	
8467	0	33104	
8468	0	33116	
8469	0	33156	
8470	0	33224	
8471	0	33304	
8472	0	33300	
8473	0	33384	
8474	0	33474	
8475	0	33484	
8476	0	33504	
8477	0	33464	
8478	0	33420	
8479	0	33396	
8480	0	33392	
8481	0	33476	
8482	0	33508	
8483	0	33548	
8484	0	33656	
8485	0	33816	
8486	0	34096	
8487	0	34332	
8488	0	34612	
8489	0	34844	
8490	0	34946	
8491	0	35092	
8492	0	35260	
8493	0	35376	
8494	0	35540	
8495	0	35760	
8496	0	35808	
8497	0	35696	
8498	0	35530	
8499	0	35412	
8500	0	35314	
8501	0	35292	
8502	0	35260	
8503	0	35124	
8504	0	35032	
8505	0	34832	
8506	0	34632	
8507	0	34524	
8508	0	34416	
8509	0	34240	
8510	0	34100	
8511	0	33972	
8512	0	33820	
8513	0	33660	
8514	0	33592	
8515	0	33504	
8516	0	33444	
8517	0	33384	
8518	0	33240	
8519	0	33088	
8520	0	32980	
8521	0	32820	
8522	0	32664	
8523	0	32556	
8524	0	32508	
8525	0	32400	
8526	0	32296	
8527	0	32312	
8528	0	32320	
8529	0	32350	
8530	0	32392	
8531	0	32376	
8532	0	32232	
8533	0	32084	
8534	0	31904	
8535	0	31678	
8536	0	31572	
8537	0	31544	
8538	0	31536	
8539	0	31612	
8540	0	31684	
8541	0	31764	
8542	0	31788	
8543	0	31754	
8544	0	31716	
8545	0	31676	
8546	0	31544	
8547	0	31456	
8548	0	31468	
8549	0	31592	
8550	0	31678	
8551	0	31776	
8552	0	31824	
8553	0	31810	
8554	0	31840	
8555	0	31908	
8556	0	31892	
8557	0	31748	
8558	0	31564	
8559	0	31480	
8560	0	31480	
8561	0	31494	
8562	0	31524	
8563	0	31552	
8564	0	31596	
8565	0	31608	
8566	0	31626	
8567	0	31664	
8568	0	31720	
8569	0	31860	
8570	0	32028	
8571	0	32144	
8572	0	32272	
8573	0	32324	
8574	0	32304	
8575	0	32312	
8576	0	32408	
8577	0	32414	
8578	0	32344	
8579	0	32108	
8580	0	31868	
8581	0	31680	
8582	0	31440	
8583	0	31092	
8584	0	30616	
8585	0	30032	
8586	0	29356	
8587	0	28808	
8588	0	28472	
8589	0	28360	
8590	0	28456	
8591	0	28684	
