# OpenSignals Text File Format. Version 1
# {"00:07:80:4B:15:F7": {"position": 0, "device": "biosignalsplux", "device name": "00:07:80:4B:15:F7", "device connection": "BTH00:07:80:4B:15:F7", "sampling rate": 1000, "resolution": [16], "firmware version": 775, "comments": "", "keywords": "", "mode": 0, "sync interval": 2, "date": "2023-4-27", "time": "16:49:31.821", "channels": [1], "sensor": ["ECG"], "label": ["CH1"], "column": ["nSeq", "DI", "CH1"], "special": [{"SpO2": [80, 40, 5, 4, 3, 3]}, {"SpO2": [80, 40, 5, 4, 3, 3]}, {"SpO2": [80, 40, 5, 4, 3, 3]}, {"SpO2": [80, 40, 5, 4, 3, 3]}, {"SpO2": [80, 40, 5, 4, 3, 3]}, {"SpO2": [80, 40, 5, 4, 3, 3]}, {"SpO2": [80, 40, 5, 4, 3, 3]}, {"SpO2": [80, 40, 5, 4, 3, 3]}], "digital IO": [0, 1], "sleeve color": ["green"], "convertedValues": 0}}
# EndOfHeader
0	0	32544	
1	0	32546	
2	0	32552	
3	0	32656	
4	0	32756	
5	0	32808	
6	0	32820	
7	0	32832	
8	0	32862	
9	0	32880	
10	0	32908	
11	0	32892	
12	0	32850	
13	0	32904	
14	0	33060	
15	0	33184	
16	0	33256	
17	0	33368	
18	0	33408	
19	0	33464	
20	0	33484	
21	0	33418	
22	0	33380	
23	0	33348	
24	0	33260	
25	0	33204	
26	0	33156	
27	0	32996	
28	0	32748	
29	0	32572	
30	0	32432	
31	0	32216	
32	0	31840	
33	0	31360	
34	0	30892	
35	0	30570	
36	0	30468	
37	0	30578	
38	0	30856	
39	0	31256	
40	0	31752	
41	0	32332	
42	0	32988	
43	0	33888	
44	0	34968	
45	0	36148	
46	0	37544	
47	0	39124	
48	0	40952	
49	0	43048	
50	0	45268	
51	0	47624	
52	0	50048	
53	0	52568	
54	0	55320	
55	0	58304	
56	0	61144	
57	0	62776	
58	0	63632	
59	0	64024	
60	0	64200	
61	0	64228	
62	0	64192	
63	0	64124	
64	0	64032	
65	0	63924	
66	0	63788	
67	0	63684	
68	0	63588	
69	0	63440	
70	0	63328	
71	0	63216	
72	0	63088	
73	0	57376	
74	0	51160	
75	0	45348	
76	0	40160	
77	0	35932	
78	0	32788	
79	0	30564	
80	0	28952	
81	0	27852	
82	0	27164	
83	0	26740	
84	0	26468	
85	0	26188	
86	0	25908	
87	0	25600	
88	0	25432	
89	0	25416	
90	0	25554	
91	0	25784	
92	0	25996	
93	0	26320	
94	0	26816	
95	0	27277	
96	0	27616	
97	0	27884	
98	0	28122	
99	0	28312	
100	0	28516	
101	0	28712	
102	0	28880	
103	0	29040	
104	0	29208	
105	0	29360	
106	0	29460	
107	0	29508	
108	0	29508	
109	0	29476	
110	0	29500	
111	0	29536	
112	0	29488	
113	0	29464	
114	0	29432	
115	0	29466	
116	0	29548	
117	0	29644	
118	0	29700	
119	0	29680	
120	0	29664	
121	0	29660	
122	0	29626	
123	0	29600	
124	0	29588	
125	0	29632	
126	0	29700	
127	0	29748	
128	0	29812	
129	0	29868	
130	0	29852	
131	0	29854	
132	0	29936	
133	0	30036	
134	0	30094	
135	0	30140	
136	0	30170	
137	0	30240	
138	0	30272	
139	0	30305	
140	0	30328	
141	0	30316	
142	0	30292	
143	0	30300	
144	0	30356	
145	0	30414	
146	0	30472	
147	0	30532	
148	0	30580	
149	0	30620	
150	0	30672	
151	0	30792	
152	0	30936	
153	0	31004	
154	0	31058	
155	0	31084	
156	0	31072	
157	0	31100	
158	0	31114	
159	0	31128	
160	0	31144	
161	0	31124	
162	0	31164	
163	0	31216	
164	0	31244	
165	0	31288	
166	0	31288	
167	0	31304	
168	0	31332	
169	0	31396	
170	0	31480	
171	0	31500	
172	0	31492	
173	0	31476	
174	0	31520	
175	0	31620	
176	0	31696	
177	0	31756	
178	0	31836	
179	0	31874	
180	0	31880	
181	0	31924	
182	0	31952	
183	0	31984	
184	0	31992	
185	0	32072	
186	0	32100	
187	0	32120	
188	0	32104	
189	0	32116	
190	0	32194	
191	0	32226	
192	0	32196	
193	0	32192	
194	0	32204	
195	0	32232	
196	0	32280	
197	0	32416	
198	0	32464	
199	0	32352	
200	0	32352	
201	0	32472	
202	0	32524	
203	0	32510	
204	0	32464	
205	0	32476	
206	0	32522	
207	0	32636	
208	0	32736	
209	0	32820	
210	0	32816	
211	0	32848	
212	0	32898	
213	0	32872	
214	0	32904	
215	0	32942	
216	0	33016	
217	0	33088	
218	0	33136	
219	0	33156	
220	0	33104	
221	0	33132	
222	0	33192	
223	0	33168	
224	0	33188	
225	0	33286	
226	0	33400	
227	0	33424	
228	0	33352	
229	0	33368	
230	0	33480	
231	0	33608	
232	0	33644	
233	0	33628	
234	0	33632	
235	0	33660	
236	0	33676	
237	0	33704	
238	0	33728	
239	0	33804	
240	0	33860	
241	0	33856	
242	0	33860	
243	0	33848	
244	0	33850	
245	0	33888	
246	0	33904	
247	0	33920	
248	0	33928	
249	0	33968	
250	0	34000	
251	0	34016	
252	0	34036	
253	0	34042	
254	0	34096	
255	0	34200	
256	0	34252	
257	0	34308	
258	0	34416	
259	0	34456	
260	0	34480	
261	0	34524	
262	0	34604	
263	0	34648	
264	0	34616	
265	0	34528	
266	0	34504	
267	0	34492	
268	0	34522	
269	0	34516	
270	0	34436	
271	0	34412	
272	0	34432	
273	0	34520	
274	0	34568	
275	0	34610	
276	0	34656	
277	0	34736	
278	0	34772	
279	0	34836	
280	0	34924	
281	0	34888	
282	0	34882	
283	0	34888	
284	0	34904	
285	0	34944	
286	0	34968	
287	0	34988	
288	0	34988	
289	0	35028	
290	0	34988	
291	0	34944	
292	0	34936	
293	0	34912	
294	0	34908	
295	0	34892	
296	0	34904	
297	0	34924	
298	0	34924	
299	0	34912	
300	0	34912	
301	0	34944	
302	0	34976	
303	0	35000	
304	0	35060	
305	0	35082	
306	0	35048	
307	0	35036	
308	0	35024	
309	0	34956	
310	0	34902	
311	0	34880	
312	0	34820	
313	0	34816	
314	0	34892	
315	0	34956	
316	0	35028	
317	0	35064	
318	0	35088	
319	0	35104	
320	0	35120	
321	0	35036	
322	0	34964	
323	0	34944	
324	0	34862	
325	0	34744	
326	0	34800	
327	0	34788	
328	0	34732	
329	0	34640	
330	0	34564	
331	0	34496	
332	0	34424	
333	0	34404	
334	0	34396	
335	0	34398	
336	0	34328	
337	0	34248	
338	0	34202	
339	0	34096	
340	0	33972	
341	0	33832	
342	0	33692	
343	0	33540	
344	0	33336	
345	0	33144	
346	0	33048	
347	0	32970	
348	0	32864	
349	0	32760	
350	0	32728	
351	0	32680	
352	0	32616	
353	0	32512	
354	0	32352	
355	0	32158	
356	0	32048	
357	0	31993	
358	0	31956	
359	0	31832	
360	0	31748	
361	0	31652	
362	0	31516	
363	0	31304	
364	0	31144	
365	0	31032	
366	0	30910	
367	0	30808	
368	0	30712	
369	0	30688	
370	0	30632	
371	0	30604	
372	0	30640	
373	0	30660	
374	0	30628	
375	0	30576	
376	0	30536	
377	0	30456	
378	0	30357	
379	0	30300	
380	0	30252	
381	0	30220	
382	0	30120	
383	0	30036	
384	0	29974	
385	0	29972	
386	0	29996	
387	0	29960	
388	0	29864	
389	0	29804	
390	0	29826	
391	0	29820	
392	0	29802	
393	0	29792	
394	0	29812	
395	0	29824	
396	0	29824	
397	0	29860	
398	0	29842	
399	0	29760	
400	0	29768	
401	0	29822	
402	0	29852	
403	0	29840	
404	0	29876	
405	0	29888	
406	0	29864	
407	0	29796	
408	0	29773	
409	0	29836	
410	0	29884	
411	0	29892	
412	0	29882	
413	0	29816	
414	0	29768	
415	0	29748	
416	0	29760	
417	0	29760	
418	0	29802	
419	0	29816	
420	0	29848	
421	0	29844	
422	0	29800	
423	0	29816	
424	0	29874	
425	0	29928	
426	0	29880	
427	0	29832	
428	0	29786	
429	0	29764	
430	0	29768	
431	0	29820	
432	0	29852	
433	0	29868	
434	0	29932	
435	0	29952	
436	0	29988	
437	0	30052	
438	0	30120	
439	0	30184	
440	0	30232	
441	0	30264	
442	0	30248	
443	0	30220	
444	0	30236	
445	0	30256	
446	0	30324	
447	0	30364	
448	0	30324	
449	0	30296	
450	0	30276	
451	0	30320	
452	0	30344	
453	0	30304	
454	0	30272	
455	0	30264	
456	0	30248	
457	0	30224	
458	0	30284	
459	0	30310	
460	0	30352	
461	0	30384	
462	0	30368	
463	0	30396	
464	0	30488	
465	0	30500	
466	0	30428	
467	0	30370	
468	0	30346	
469	0	30376	
470	0	30432	
471	0	30456	
472	0	30468	
473	0	30492	
474	0	30544	
475	0	30672	
476	0	30778	
477	0	30864	
478	0	30892	
479	0	30888	
480	0	30880	
481	0	30772	
482	0	30664	
483	0	30680	
484	0	30644	
485	0	30584	
486	0	30592	
487	0	30632	
488	0	30716	
489	0	30764	
490	0	30808	
491	0	30824	
492	0	30816	
493	0	30804	
494	0	30776	
495	0	30744	
496	0	30800	
497	0	30852	
498	0	30856	
499	0	30884	
500	0	30900	
501	0	30932	
502	0	30872	
503	0	30808	
504	0	30812	
505	0	30824	
506	0	30784	
507	0	30744	
508	0	30680	
509	0	30616	
510	0	30600	
511	0	30636	
512	0	30704	
513	0	30746	
514	0	30746	
515	0	30752	
516	0	30780	
517	0	30824	
518	0	30816	
519	0	30788	
520	0	30764	
521	0	30752	
522	0	30804	
523	0	30840	
524	0	30804	
525	0	30784	
526	0	30820	
527	0	30868	
528	0	30900	
529	0	30880	
530	0	30768	
531	0	30712	
532	0	30700	
533	0	30784	
534	0	30824	
535	0	30846	
536	0	30928	
537	0	31016	
538	0	31072	
539	0	31052	
540	0	31040	
541	0	31016	
542	0	30988	
543	0	31024	
544	0	31036	
545	0	31002	
546	0	30970	
547	0	30928	
548	0	30948	
549	0	30936	
550	0	30948	
551	0	31012	
552	0	31056	
553	0	31116	
554	0	31114	
555	0	31096	
556	0	31104	
557	0	31084	
558	0	31056	
559	0	31056	
560	0	31100	
561	0	31086	
562	0	31052	
563	0	31044	
564	0	30984	
565	0	30912	
566	0	30930	
567	0	30964	
568	0	31016	
569	0	31080	
570	0	31132	
571	0	31088	
572	0	31072	
573	0	31044	
574	0	31038	
575	0	31104	
576	0	31220	
577	0	31332	
578	0	31384	
579	0	31420	
580	0	31464	
581	0	31508	
582	0	31400	
583	0	31312	
584	0	31272	
585	0	31272	
586	0	31234	
587	0	31224	
588	0	31212	
589	0	31256	
590	0	31288	
591	0	31304	
592	0	31352	
593	0	31396	
594	0	31412	
595	0	31408	
596	0	31424	
597	0	31404	
598	0	31426	
599	0	31452	
600	0	31472	
601	0	31458	
602	0	31484	
603	0	31564	
604	0	31585	
605	0	31576	
606	0	31576	
607	0	31632	
608	0	31628	
609	0	31580	
610	0	31564	
611	0	31564	
612	0	31622	
613	0	31652	
614	0	31620	
615	0	31540	
616	0	31528	
617	0	31492	
618	0	31480	
619	0	31508	
620	0	31542	
621	0	31632	
622	0	31672	
623	0	31642	
624	0	31664	
625	0	31724	
626	0	31748	
627	0	31724	
628	0	31680	
629	0	31736	
630	0	31776	
631	0	31828	
632	0	31832	
633	0	31878	
634	0	31876	
635	0	31872	
636	0	31892	
637	0	31952	
638	0	31956	
639	0	31908	
640	0	31868	
641	0	31860	
642	0	31932	
643	0	31980	
644	0	31932	
645	0	31884	
646	0	31856	
647	0	31848	
648	0	31868	
649	0	31876	
650	0	31884	
651	0	31856	
652	0	31852	
653	0	31892	
654	0	31946	
655	0	31996	
656	0	32072	
657	0	32120	
658	0	32064	
659	0	32002	
660	0	32012	
661	0	32050	
662	0	32100	
663	0	32104	
664	0	32044	
665	0	32048	
666	0	32040	
667	0	32020	
668	0	31976	
669	0	31908	
670	0	31888	
671	0	31956	
672	0	32064	
673	0	32116	
674	0	32148	
675	0	32172	
676	0	32246	
677	0	32232	
678	0	32140	
679	0	32076	
680	0	31960	
681	0	31862	
682	0	31808	
683	0	31832	
684	0	31848	
685	0	31808	
686	0	31768	
687	0	31698	
688	0	31730	
689	0	31808	
690	0	31884	
691	0	31884	
692	0	31916	
693	0	31982	
694	0	32054	
695	0	32178	
696	0	32340	
697	0	32516	
698	0	32592	
699	0	32640	
700	0	32716	
701	0	32752	
702	0	32760	
703	0	32698	
704	0	32680	
705	0	32656	
706	0	32644	
707	0	32736	
708	0	32844	
709	0	32976	
710	0	33056	
711	0	33052	
712	0	33000	
713	0	32868	
714	0	32744	
715	0	32660	
716	0	32570	
717	0	32556	
718	0	32580	
719	0	32620	
720	0	32652	
721	0	32688	
722	0	32788	
723	0	32944	
724	0	33064	
725	0	33140	
726	0	33238	
727	0	33298	
728	0	33256	
729	0	33236	
730	0	33288	
731	0	33316	
732	0	33340	
733	0	33344	
734	0	33380	
735	0	33392	
736	0	33402	
737	0	33296	
738	0	33154	
739	0	33076	
740	0	33036	
741	0	32940	
742	0	32674	
743	0	32432	
744	0	32272	
745	0	32174	
746	0	32128	
747	0	32136	
748	0	32164	
749	0	32180	
750	0	32234	
751	0	32244	
752	0	32184	
753	0	32160	
754	0	32226	
755	0	32236	
756	0	32232	
757	0	32288	
758	0	32340	
759	0	32372	
760	0	32392	
761	0	32396	
762	0	32452	
763	0	32424	
764	0	32432	
765	0	32444	
766	0	32476	
767	0	32536	
768	0	32636	
769	0	32688	
770	0	32732	
771	0	32766	
772	0	32748	
773	0	32752	
774	0	32788	
775	0	32800	
776	0	32844	
777	0	32884	
778	0	32926	
779	0	32952	
780	0	32972	
781	0	32984	
782	0	32968	
783	0	32960	
784	0	32976	
785	0	32928	
786	0	32892	
787	0	32768	
788	0	32592	
789	0	32424	
790	0	32202	
791	0	31936	
792	0	31708	
793	0	31500	
794	0	31456	
795	0	31596	
796	0	31864	
797	0	32248	
798	0	32744	
799	0	33324	
800	0	33992	
801	0	34800	
802	0	35692	
803	0	36636	
804	0	37732	
805	0	39040	
806	0	40616	
807	0	42464	
808	0	44640	
809	0	46840	
810	0	49020	
811	0	51320	
812	0	53836	
813	0	56628	
814	0	59636	
815	0	62084	
816	0	63392	
817	0	64056	
818	0	64364	
819	0	64480	
820	0	64468	
821	0	64424	
822	0	64336	
823	0	64232	
824	0	64128	
825	0	63996	
826	0	63884	
827	0	63756	
828	0	63636	
829	0	63496	
830	0	63264	
831	0	57312	
832	0	51464	
833	0	45692	
834	0	40580	
835	0	36388	
836	0	33248	
837	0	31112	
838	0	29632	
839	0	28560	
840	0	27724	
841	0	27096	
842	0	26700	
843	0	26444	
844	0	26212	
845	0	25964	
846	0	25676	
847	0	25394	
848	0	25108	
849	0	24896	
850	0	24904	
851	0	25044	
852	0	25296	
853	0	25664	
854	0	26092	
855	0	26588	
856	0	26968	
857	0	27280	
858	0	27612	
859	0	27920	
860	0	28132	
861	0	28332	
862	0	28516	
863	0	28720	
864	0	28872	
865	0	29008	
866	0	29148	
867	0	29200	
868	0	29221	
869	0	29240	
870	0	29218	
871	0	29268	
872	0	29320	
873	0	29320	
874	0	29348	
875	0	29328	
876	0	29328	
877	0	29388	
878	0	29472	
879	0	29560	
880	0	29584	
881	0	29544	
882	0	29520	
883	0	29516	
884	0	29520	
885	0	29480	
886	0	29498	
887	0	29552	
888	0	29552	
889	0	29516	
890	0	29556	
891	0	29620	
892	0	29696	
893	0	29760	
894	0	29834	
895	0	29908	
896	0	29976	
897	0	29984	
898	0	30014	
899	0	30098	
900	0	30188	
901	0	30280	
902	0	30364	
903	0	30408	
904	0	30400	
905	0	30376	
906	0	30392	
907	0	30432	
908	0	30460	
909	0	30448	
910	0	30448	
911	0	30432	
912	0	30440	
913	0	30520	
914	0	30612	
915	0	30644	
916	0	30712	
917	0	30786	
918	0	30796	
919	0	30868	
920	0	30968	
921	0	31020	
922	0	31056	
923	0	31064	
924	0	31088	
925	0	31112	
926	0	31152	
927	0	31208	
928	0	31290	
929	0	31344	
930	0	31364	
931	0	31404	
932	0	31464	
933	0	31468	
934	0	31428	
935	0	31420	
936	0	31464	
937	0	31474	
938	0	31492	
939	0	31588	
940	0	31624	
941	0	31608	
942	0	31608	
943	0	31660	
944	0	31730	
945	0	31788	
946	0	31800	
947	0	31776	
948	0	31780	
949	0	31828	
950	0	31888	
951	0	31968	
952	0	32064	
953	0	32106	
954	0	32130	
955	0	32212	
956	0	32266	
957	0	32256	
958	0	32268	
959	0	32320	
960	0	32356	
961	0	32408	
962	0	32432	
963	0	32432	
964	0	32420	
965	0	32468	
966	0	32492	
967	0	32466	
968	0	32432	
969	0	32444	
970	0	32462	
971	0	32412	
972	0	32444	
973	0	32528	
974	0	32620	
975	0	32712	
976	0	32786	
977	0	32856	
978	0	32964	
979	0	32996	
980	0	33056	
981	0	33164	
982	0	33212	
983	0	33240	
984	0	33194	
985	0	33172	
986	0	33232	
987	0	33252	
988	0	33284	
989	0	33284	
990	0	33328	
991	0	33364	
992	0	33372	
993	0	33388	
994	0	33396	
995	0	33332	
996	0	33300	
997	0	33316	
998	0	33348	
999	0	33416	
1000	0	33468	
1001	0	33460	
1002	0	33556	
1003	0	33664	
1004	0	33732	
1005	0	33784	
1006	0	33788	
1007	0	33804	
1008	0	33834	
1009	0	33860	
1010	0	33872	
1011	0	33880	
1012	0	33876	
1013	0	33890	
1014	0	33962	
1015	0	34010	
1016	0	34032	
1017	0	34056	
1018	0	34052	
1019	0	34064	
1020	0	34092	
1021	0	34112	
1022	0	34096	
1023	0	34088	
1024	0	34072	
1025	0	34052	
1026	0	34048	
1027	0	34072	
1028	0	34108	
1029	0	34152	
1030	0	34164	
1031	0	34160	
1032	0	34216	
1033	0	34288	
1034	0	34372	
1035	0	34464	
1036	0	34528	
1037	0	34512	
1038	0	34520	
1039	0	34552	
1040	0	34656	
1041	0	34724	
1042	0	34778	
1043	0	34780	
1044	0	34796	
1045	0	34768	
1046	0	34724	
1047	0	34700	
1048	0	34720	
1049	0	34764	
1050	0	34832	
1051	0	34868	
1052	0	34852	
1053	0	34844	
1054	0	34896	
1055	0	34922	
1056	0	34960	
1057	0	34968	
1058	0	34990	
1059	0	35016	
1060	0	35028	
1061	0	35036	
1062	0	35032	
1063	0	35020	
1064	0	35040	
1065	0	35048	
1066	0	35040	
1067	0	35012	
1068	0	35012	
1069	0	35056	
1070	0	35120	
1071	0	35232	
1072	0	35320	
1073	0	35336	
1074	0	35332	
1075	0	35332	
1076	0	35376	
1077	0	35396	
1078	0	35356	
1079	0	35280	
1080	0	35260	
1081	0	35272	
1082	0	35296	
1083	0	35348	
1084	0	35360	
1085	0	35360	
1086	0	35368	
1087	0	35356	
1088	0	35300	
1089	0	35214	
1090	0	35176	
1091	0	35084	
1092	0	35008	
1093	0	34950	
1094	0	34888	
1095	0	34800	
1096	0	34750	
1097	0	34644	
1098	0	34506	
1099	0	34344	
1100	0	34258	
1101	0	34168	
1102	0	34056	
1103	0	33984	
1104	0	33904	
1105	0	33766	
1106	0	33632	
1107	0	33460	
1108	0	33272	
1109	0	33096	
1110	0	32916	
1111	0	32784	
1112	0	32674	
1113	0	32568	
1114	0	32440	
1115	0	32360	
1116	0	32304	
1117	0	32252	
1118	0	32112	
1119	0	31980	
1120	0	31888	
1121	0	31768	
1122	0	31662	
1123	0	31606	
1124	0	31584	
1125	0	31544	
1126	0	31484	
1127	0	31408	
1128	0	31296	
1129	0	31152	
1130	0	31016	
1131	0	30868	
1132	0	30746	
1133	0	30636	
1134	0	30584	
1135	0	30520	
1136	0	30480	
1137	0	30424	
1138	0	30300	
1139	0	30228	
1140	0	30268	
1141	0	30216	
1142	0	30132	
1143	0	30052	
1144	0	29956	
1145	0	29888	
1146	0	29852	
1147	0	29908	
1148	0	29900	
1149	0	29852	
1150	0	29874	
1151	0	29928	
1152	0	29960	
1153	0	29944	
1154	0	29962	
1155	0	29984	
1156	0	29994	
1157	0	30004	
1158	0	30046	
1159	0	30020	
1160	0	29952	
1161	0	29884	
1162	0	29872	
1163	0	29890	
1164	0	29892	
1165	0	29850	
1166	0	29864	
1167	0	29840	
1168	0	29774	
1169	0	29744	
1170	0	29720	
1171	0	29728	
1172	0	29740	
1173	0	29768	
1174	0	29850	
1175	0	29912	
1176	0	29904	
1177	0	29908	
1178	0	29912	
1179	0	29872	
1180	0	29876	
1181	0	29904	
1182	0	29932	
1183	0	29928	
1184	0	29924	
1185	0	29928	
1186	0	29920	
1187	0	29944	
1188	0	30008	
1189	0	30040	
1190	0	30088	
1191	0	30152	
1192	0	30164	
1193	0	30116	
1194	0	30100	
1195	0	30124	
1196	0	30112	
1197	0	30116	
1198	0	30110	
1199	0	30110	
1200	0	30112	
1201	0	30108	
1202	0	30116	
1203	0	30153	
1204	0	30236	
1205	0	30292	
1206	0	30396	
1207	0	30460	
1208	0	30448	
1209	0	30420	
1210	0	30460	
1211	0	30464	
1212	0	30472	
1213	0	30458	
1214	0	30424	
1215	0	30452	
1216	0	30480	
1217	0	30548	
1218	0	30594	
1219	0	30612	
1220	0	30660	
1221	0	30728	
1222	0	30752	
1223	0	30680	
1224	0	30624	
1225	0	30556	
1226	0	30488	
1227	0	30472	
1228	0	30412	
1229	0	30384	
1230	0	30340	
1231	0	30376	
1232	0	30412	
1233	0	30492	
1234	0	30562	
1235	0	30572	
1236	0	30536	
1237	0	30528	
1238	0	30576	
1239	0	30624	
1240	0	30628	
1241	0	30628	
1242	0	30620	
1243	0	30604	
1244	0	30588	
1245	0	30550	
1246	0	30576	
1247	0	30580	
1248	0	30596	
1249	0	30612	
1250	0	30600	
1251	0	30644	
1252	0	30720	
1253	0	30768	
1254	0	30736	
1255	0	30672	
1256	0	30680	
1257	0	30788	
1258	0	30804	
1259	0	30732	
1260	0	30692	
1261	0	30728	
1262	0	30748	
1263	0	30740	
1264	0	30688	
1265	0	30620	
1266	0	30620	
1267	0	30604	
1268	0	30592	
1269	0	30572	
1270	0	30528	
1271	0	30492	
1272	0	30508	
1273	0	30512	
1274	0	30468	
1275	0	30452	
1276	0	30456	
1277	0	30472	
1278	0	30536	
1279	0	30644	
1280	0	30712	
1281	0	30704	
1282	0	30638	
1283	0	30588	
1284	0	30548	
1285	0	30504	
1286	0	30488	
1287	0	30528	
1288	0	30564	
1289	0	30592	
1290	0	30592	
1291	0	30560	
1292	0	30608	
1293	0	30688	
1294	0	30704	
1295	0	30684	
1296	0	30708	
1297	0	30736	
1298	0	30736	
1299	0	30760	
1300	0	30752	
1301	0	30776	
1302	0	30828	
1303	0	30892	
1304	0	30864	
1305	0	30836	
1306	0	30788	
1307	0	30729	
1308	0	30696	
1309	0	30676	
1310	0	30694	
1311	0	30716	
1312	0	30776	
1313	0	30820	
1314	0	30876	
1315	0	30940	
1316	0	30938	
1317	0	30892	
1318	0	30892	
1319	0	30928	
1320	0	30968	
1321	0	31016	
1322	0	31020	
1323	0	31000	
1324	0	30992	
1325	0	30944	
1326	0	30906	
1327	0	30910	
1328	0	30874	
1329	0	30864	
1330	0	30912	
1331	0	30968	
1332	0	30968	
1333	0	30940	
1334	0	30928	
1335	0	30956	
1336	0	30976	
1337	0	31040	
1338	0	31126	
1339	0	31136	
1340	0	31084	
1341	0	31012	
1342	0	30952	
1343	0	30976	
1344	0	31018	
1345	0	31068	
1346	0	31116	
1347	0	31116	
1348	0	31148	
1349	0	31228	
1350	0	31280	
1351	0	31292	
1352	0	31348	
1353	0	31412	
1354	0	31412	
1355	0	31364	
1356	0	31336	
1357	0	31332	
1358	0	31300	
1359	0	31268	
1360	0	31226	
1361	0	31160	
1362	0	31136	
1363	0	31164	
1364	0	31244	
1365	0	31300	
1366	0	31356	
1367	0	31364	
1368	0	31364	
1369	0	31432	
1370	0	31522	
1371	0	31564	
1372	0	31552	
1373	0	31524	
1374	0	31480	
1375	0	31468	
1376	0	31500	
1377	0	31540	
1378	0	31550	
1379	0	31536	
1380	0	31532	
1381	0	31536	
1382	0	31548	
1383	0	31564	
1384	0	31592	
1385	0	31576	
1386	0	31602	
1387	0	31624	
1388	0	31622	
1389	0	31552	
1390	0	31536	
1391	0	31544	
1392	0	31580	
1393	0	31628	
1394	0	31674	
1395	0	31674	
1396	0	31688	
1397	0	31740	
1398	0	31776	
1399	0	31864	
1400	0	31924	
1401	0	31920	
1402	0	31908	
1403	0	31856	
1404	0	31820	
1405	0	31816	
1406	0	31826	
1407	0	31824	
1408	0	31808	
1409	0	31848	
1410	0	31900	
1411	0	31980	
1412	0	32028	
1413	0	31992	
1414	0	31952	
1415	0	31930	
1416	0	31948	
1417	0	31940	
1418	0	31904	
1419	0	31928	
1420	0	31960	
1421	0	31956	
1422	0	31960	
1423	0	32016	
1424	0	32076	
1425	0	32068	
1426	0	32088	
1427	0	32164	
1428	0	32216	
1429	0	32204	
1430	0	32152	
1431	0	32120	
1432	0	32116	
1433	0	32120	
1434	0	32156	
1435	0	32244	
1436	0	32241	
1437	0	32224	
1438	0	32236	
1439	0	32224	
1440	0	32128	
1441	0	32048	
1442	0	31972	
1443	0	31932	
1444	0	31880	
1445	0	31904	
1446	0	32034	
1447	0	32132	
1448	0	32248	
1449	0	32272	
1450	0	32256	
1451	0	32260	
1452	0	32264	
1453	0	32192	
1454	0	32156	
1455	0	32112	
1456	0	32088	
1457	0	32032	
1458	0	31928	
1459	0	31856	
1460	0	31728	
1461	0	31660	
1462	0	31630	
1463	0	31520	
1464	0	31472	
1465	0	31568	
1466	0	31656	
1467	0	31772	
1468	0	31908	
1469	0	31980	
1470	0	32064	
1471	0	32264	
1472	0	32456	
1473	0	32640	
1474	0	32796	
1475	0	32886	
1476	0	32928	
1477	0	32932	
1478	0	32952	
1479	0	32996	
1480	0	33082	
1481	0	33120	
1482	0	33132	
1483	0	33156	
1484	0	33088	
1485	0	32900	
1486	0	32748	
1487	0	32628	
1488	0	32540	
1489	0	32576	
1490	0	32650	
1491	0	32728	
1492	0	32792	
1493	0	32808	
1494	0	32856	
1495	0	32980	
1496	0	33148	
1497	0	33276	
1498	0	33386	
1499	0	33468	
1500	0	33564	
1501	0	33586	
1502	0	33520	
1503	0	33440	
1504	0	33388	
1505	0	33424	
1506	0	33536	
1507	0	33568	
1508	0	33584	
1509	0	33592	
1510	0	33464	
1511	0	33224	
1512	0	33000	
1513	0	32848	
1514	0	32640	
1515	0	32400	
1516	0	32216	
1517	0	32168	
1518	0	32148	
1519	0	32170	
1520	0	32216	
1521	0	32288	
1522	0	32312	
1523	0	32344	
1524	0	32392	
1525	0	32396	
1526	0	32352	
1527	0	32380	
1528	0	32400	
1529	0	32390	
1530	0	32432	
1531	0	32476	
1532	0	32528	
1533	0	32586	
1534	0	32628	
1535	0	32672	
1536	0	32704	
1537	0	32736	
1538	0	32784	
1539	0	32788	
1540	0	32800	
1541	0	32876	
1542	0	32904	
1543	0	32926	
1544	0	32960	
1545	0	32984	
1546	0	32960	
1547	0	32968	
1548	0	32992	
1549	0	33076	
1550	0	33144	
1551	0	33160	
1552	0	33220	
1553	0	33224	
1554	0	33160	
1555	0	33104	
1556	0	33036	
1557	0	32962	
1558	0	32928	
1559	0	32854	
1560	0	32780	
1561	0	32656	
1562	0	32578	
1563	0	32460	
1564	0	32240	
1565	0	32096	
1566	0	31980	
1567	0	32024	
1568	0	32384	
1569	0	32936	
1570	0	33544	
1571	0	34272	
1572	0	35120	
1573	0	36016	
1574	0	36960	
1575	0	37848	
1576	0	38836	
1577	0	40044	
1578	0	41488	
1579	0	43148	
1580	0	45026	
1581	0	47144	
1582	0	49296	
1583	0	51424	
1584	0	53764	
1585	0	56424	
1586	0	59288	
1587	0	61980	
1588	0	63520	
1589	0	64320	
1590	0	64688	
1591	0	64844	
1592	0	64856	
1593	0	64804	
1594	0	64740	
1595	0	64638	
1596	0	64504	
1597	0	64392	
1598	0	64272	
1599	0	64148	
1600	0	64000	
1601	0	63892	
1602	0	62808	
1603	0	57080	
1604	0	51472	
1605	0	45872	
1606	0	40868	
1607	0	36736	
1608	0	33652	
1609	0	31458	
1610	0	29914	
1611	0	28804	
1612	0	28040	
1613	0	27456	
1614	0	27024	
1615	0	26784	
1616	0	26572	
1617	0	26272	
1618	0	26044	
1619	0	25836	
1620	0	25530	
1621	0	25208	
1622	0	25016	
1623	0	25034	
1624	0	25140	
1625	0	25316	
1626	0	25528	
1627	0	25864	
1628	0	26316	
1629	0	26720	
1630	0	27136	
1631	0	27496	
1632	0	27764	
1633	0	28024	
1634	0	28280	
1635	0	28522	
1636	0	28752	
1637	0	29012	
1638	0	29228	
1639	0	29400	
1640	0	29476	
1641	0	29504	
1642	0	29492	
1643	0	29476	
1644	0	29456	
1645	0	29424	
1646	0	29400	
1647	0	29340	
1648	0	29292	
1649	0	29252	
1650	0	29264	
1651	0	29344	
1652	0	29388	
1653	0	29444	
1654	0	29472	
1655	0	29536	
1656	0	29576	
1657	0	29632	
1658	0	29690	
1659	0	29732	
1660	0	29804	
1661	0	29844	
1662	0	29876	
1663	0	29928	
1664	0	29956	
1665	0	30008	
1666	0	30052	
1667	0	30080	
1668	0	30036	
1669	0	30004	
1670	0	30024	
1671	0	30036	
1672	0	30092	
1673	0	30214	
1674	0	30254	
1675	0	30232	
1676	0	30180	
1677	0	30164	
1678	0	30202	
1679	0	30320	
1680	0	30384	
1681	0	30392	
1682	0	30345	
1683	0	30308	
1684	0	30332	
1685	0	30416	
1686	0	30504	
1687	0	30624	
1688	0	30736	
1689	0	30826	
1690	0	30876	
1691	0	30914	
1692	0	30992	
1693	0	31042	
1694	0	31072	
1695	0	31088	
1696	0	31092	
1697	0	31157	
1698	0	31168	
1699	0	31112	
1700	0	31080	
1701	0	31084	
1702	0	31126	
1703	0	31208	
1704	0	31236	
1705	0	31284	
1706	0	31413	
1707	0	31568	
1708	0	31640	
1709	0	31632	
1710	0	31620	
1711	0	31604	
1712	0	31576	
1713	0	31556	
1714	0	31596	
1715	0	31720	
1716	0	31804	
1717	0	31900	
1718	0	31960	
1719	0	31984	
1720	0	31984	
1721	0	32004	
1722	0	32040	
1723	0	32048	
1724	0	32071	
1725	0	32150	
1726	0	32188	
1727	0	32140	
1728	0	32128	
1729	0	32120	
1730	0	32152	
1731	0	32252	
1732	0	32376	
1733	0	32488	
1734	0	32612	
1735	0	32712	
1736	0	32728	
1737	0	32696	
1738	0	32708	
1739	0	32704	
1740	0	32712	
1741	0	32676	
1742	0	32614	
1743	0	32580	
1744	0	32566	
1745	0	32578	
1746	0	32608	
1747	0	32612	
1748	0	32644	
1749	0	32660	
1750	0	32680	
1751	0	32744	
1752	0	32816	
1753	0	32920	
1754	0	33048	
1755	0	33170	
1756	0	33276	
1757	0	33272	
1758	0	33308	
1759	0	33364	
1760	0	33412	
1761	0	33448	
1762	0	33504	
1763	0	33492	
1764	0	33448	
1765	0	33400	
1766	0	33392	
1767	0	33460	
1768	0	33504	
1769	0	33532	
1770	0	33576	
1771	0	33696	
1772	0	33724	
1773	0	33768	
1774	0	33780	
1775	0	33836	
1776	0	33864	
1777	0	33848	
1778	0	33848	
1779	0	33860	
1780	0	33872	
1781	0	33848	
1782	0	33818	
1783	0	33812	
1784	0	33806	
1785	0	33808	
1786	0	33836	
1787	0	33872	
1788	0	33928	
1789	0	33978	
1790	0	34024	
1791	0	34092	
1792	0	34128	
1793	0	34200	
1794	0	34264	
1795	0	34304	
1796	0	34402	
1797	0	34480	
1798	0	34492	
1799	0	34488	
1800	0	34488	
1801	0	34496	
1802	0	34592	
1803	0	34700	
1804	0	34672	
1805	0	34600	
1806	0	34560	
1807	0	34480	
1808	0	34464	
1809	0	34560	
1810	0	34708	
1811	0	34792	
1812	0	34900	
1813	0	34980	
1814	0	35052	
1815	0	35120	
1816	0	35160	
1817	0	35172	
1818	0	35168	
1819	0	35184	
1820	0	35244	
1821	0	35268	
1822	0	35316	
1823	0	35368	
1824	0	35404	
1825	0	35432	
1826	0	35450	
1827	0	35408	
1828	0	35428	
1829	0	35508	
1830	0	35568	
1831	0	35648	
1832	0	35712	
1833	0	35728	
1834	0	35752	
1835	0	35824	
1836	0	35864	
1837	0	35890	
1838	0	35908	
1839	0	35944	
1840	0	36016	
1841	0	36064	
1842	0	36010	
1843	0	35944	
1844	0	36044	
1845	0	36148	
1846	0	36196	
1847	0	36236	
1848	0	36272	
1849	0	36288	
1850	0	36308	
1851	0	36312	
1852	0	36272	
1853	0	36232	
1854	0	36240	
1855	0	36280	
1856	0	36260	
1857	0	36222	
1858	0	36192	
1859	0	36124	
1860	0	36032	
1861	0	35920	
1862	0	35808	
1863	0	35752	
1864	0	35696	
1865	0	35616	
1866	0	35556	
1867	0	35424	
1868	0	35232	
1869	0	35108	
1870	0	35048	
1871	0	34940	
1872	0	34804	
1873	0	34648	
1874	0	34468	
1875	0	34366	
1876	0	34316	
1877	0	34200	
1878	0	33968	
1879	0	33762	
1880	0	33610	
1881	0	33420	
1882	0	33224	
1883	0	32996	
1884	0	32794	
1885	0	32612	
1886	0	32480	
1887	0	32376	
1888	0	32232	
1889	0	32040	
1890	0	31824	
1891	0	31708	
1892	0	31660	
1893	0	31556	
1894	0	31440	
1895	0	31356	
1896	0	31256	
1897	0	31172	
1898	0	31080	
1899	0	30972	
1900	0	30872	
1901	0	30784	
1902	0	30656	
1903	0	30580	
1904	0	30528	
1905	0	30432	
1906	0	30308	
1907	0	30200	
1908	0	30120	
1909	0	30052	
1910	0	29988	
1911	0	29912	
1912	0	29826	
1913	0	29760	
1914	0	29672	
1915	0	29640	
1916	0	29616	
1917	0	29612	
1918	0	29576	
1919	0	29548	
1920	0	29500	
1921	0	29392	
1922	0	29332	
1923	0	29288	
1924	0	29292	
1925	0	29292	
1926	0	29274	
1927	0	29268	
1928	0	29272	
1929	0	29268	
1930	0	29282	
1931	0	29300	
1932	0	29272	
1933	0	29244	
1934	0	29240	
1935	0	29288	
1936	0	29284	
1937	0	29288	
1938	0	29248	
1939	0	29176	
1940	0	29160	
1941	0	29216	
1942	0	29256	
1943	0	29272	
1944	0	29296	
1945	0	29316	
1946	0	29280	
1947	0	29248	
1948	0	29256	
1949	0	29280	
1950	0	29320	
1951	0	29344	
1952	0	29356	
1953	0	29408	
1954	0	29460	
1955	0	29538	
1956	0	29612	
1957	0	29736	
1958	0	29800	
1959	0	29792	
1960	0	29788	
1961	0	29808	
1962	0	29824	
1963	0	29816	
1964	0	29804	
1965	0	29792	
1966	0	29792	
1967	0	29706	
1968	0	29640	
1969	0	29620	
1970	0	29680	
1971	0	29756	
1972	0	29760	
1973	0	29756	
1974	0	29784	
1975	0	29818	
1976	0	29852	
1977	0	29836	
1978	0	29828	
1979	0	29872	
1980	0	29946	
1981	0	30008	
1982	0	30050	
1983	0	30124	
1984	0	30106	
1985	0	30080	
1986	0	30126	
1987	0	30184	
1988	0	30192	
1989	0	30124	
1990	0	30142	
1991	0	30232	
1992	0	30232	
1993	0	30156	
1994	0	30112	
1995	0	30140	
1996	0	30200	
1997	0	30240	
1998	0	30216	
1999	0	30204	
2000	0	30220	
2001	0	30196	
2002	0	30152	
2003	0	30172	
2004	0	30224	
2005	0	30252	
2006	0	30260	
2007	0	30312	
2008	0	30336	
2009	0	30340	
2010	0	30348	
2011	0	30362	
2012	0	30424	
2013	0	30514	
2014	0	30520	
2015	0	30468	
2016	0	30456	
2017	0	30400	
2018	0	30304	
2019	0	30248	
2020	0	30264	
2021	0	30280	
2022	0	30258	
2023	0	30288	
2024	0	30312	
2025	0	30366	
2026	0	30384	
2027	0	30412	
2028	0	30448	
2029	0	30460	
2030	0	30440	
2031	0	30424	
2032	0	30396	
2033	0	30388	
2034	0	30408	
2035	0	30412	
2036	0	30445	
2037	0	30498	
2038	0	30492	
2039	0	30464	
2040	0	30460	
2041	0	30412	
2042	0	30384	
2043	0	30444	
2044	0	30512	
2045	0	30560	
2046	0	30536	
2047	0	30496	
2048	0	30500	
2049	0	30480	
2050	0	30436	
2051	0	30420	
2052	0	30392	
2053	0	30432	
2054	0	30536	
2055	0	30568	
2056	0	30604	
2057	0	30590	
2058	0	30588	
2059	0	30576	
2060	0	30604	
2061	0	30640	
2062	0	30608	
2063	0	30536	
2064	0	30564	
2065	0	30596	
2066	0	30596	
2067	0	30596	
2068	0	30568	
2069	0	30540	
2070	0	30516	
2071	0	30524	
2072	0	30552	
2073	0	30584	
2074	0	30564	
2075	0	30554	
2076	0	30560	
2077	0	30584	
2078	0	30656	
2079	0	30764	
2080	0	30866	
2081	0	30936	
2082	0	30960	
2083	0	30996	
2084	0	31036	
2085	0	31036	
2086	0	31008	
2087	0	30984	
2088	0	30976	
2089	0	30988	
2090	0	31024	
2091	0	31068	
2092	0	31052	
2093	0	30956	
2094	0	30820	
2095	0	30716	
2096	0	30736	
2097	0	30784	
2098	0	30836	
2099	0	30928	
2100	0	30954	
2101	0	30920	
2102	0	30956	
2103	0	30977	
2104	0	30972	
2105	0	30960	
2106	0	30904	
2107	0	30884	
2108	0	30932	
2109	0	30996	
2110	0	30996	
2111	0	31016	
2112	0	31040	
2113	0	31052	
2114	0	31066	
2115	0	31048	
2116	0	31030	
2117	0	31072	
2118	0	31124	
2119	0	31144	
2120	0	31224	
2121	0	31236	
2122	0	31192	
2123	0	31160	
2124	0	31212	
2125	0	31316	
2126	0	31376	
2127	0	31376	
2128	0	31368	
2129	0	31336	
2130	0	31336	
2131	0	31364	
2132	0	31440	
2133	0	31512	
2134	0	31484	
2135	0	31516	
2136	0	31588	
2137	0	31640	
2138	0	31592	
2139	0	31540	
2140	0	31512	
2141	0	31492	
2142	0	31496	
2143	0	31472	
2144	0	31396	
2145	0	31376	
2146	0	31404	
2147	0	31372	
2148	0	31354	
2149	0	31332	
2150	0	31344	
2151	0	31348	
2152	0	31400	
2153	0	31472	
2154	0	31570	
2155	0	31648	
2156	0	31696	
2157	0	31668	
2158	0	31600	
2159	0	31532	
2160	0	31508	
2161	0	31504	
2162	0	31500	
2163	0	31508	
2164	0	31544	
2165	0	31604	
2166	0	31664	
2167	0	31688	
2168	0	31656	
2169	0	31696	
2170	0	31780	
2171	0	31776	
2172	0	31808	
2173	0	31832	
2174	0	31868	
2175	0	31848	
2176	0	31810	
2177	0	31780	
2178	0	31752	
2179	0	31716	
2180	0	31718	
2181	0	31708	
2182	0	31740	
2183	0	31778	
2184	0	31834	
2185	0	31952	
2186	0	32040	
2187	0	32064	
2188	0	32028	
2189	0	31952	
2190	0	31884	
2191	0	31876	
2192	0	31924	
2193	0	31920	
2194	0	31888	
2195	0	31904	
2196	0	31928	
2197	0	31956	
2198	0	31992	
2199	0	31956	
2200	0	31924	
2201	0	31940	
2202	0	32033	
2203	0	32088	
2204	0	32092	
2205	0	32052	
2206	0	32084	
2207	0	32104	
2208	0	32152	
2209	0	32172	
2210	0	32178	
2211	0	32192	
2212	0	32224	
2213	0	32256	
2214	0	32248	
2215	0	32240	
2216	0	32224	
2217	0	32288	
2218	0	32332	
2219	0	32336	
2220	0	32324	
2221	0	32308	
2222	0	32324	
2223	0	32320	
2224	0	32328	
2225	0	32340	
2226	0	32336	
2227	0	32336	
2228	0	32344	
2229	0	32360	
2230	0	32372	
2231	0	32332	
2232	0	32288	
2233	0	32280	
2234	0	32296	
2235	0	32314	
2236	0	32376	
2237	0	32448	
2238	0	32476	
2239	0	32464	
2240	0	32488	
2241	0	32510	
2242	0	32468	
2243	0	32416	
2244	0	32404	
2245	0	32464	
2246	0	32576	
2247	0	32640	
2248	0	32656	
2249	0	32688	
2250	0	32722	
2251	0	32698	
2252	0	32588	
2253	0	32442	
2254	0	32292	
2255	0	32180	
2256	0	32072	
2257	0	32068	
2258	0	32060	
2259	0	32084	
2260	0	32052	
2261	0	32024	
2262	0	32054	
2263	0	32124	
2264	0	32176	
2265	0	32180	
2266	0	32144	
2267	0	32176	
2268	0	32280	
2269	0	32416	
2270	0	32548	
2271	0	32664	
2272	0	32788	
2273	0	32856	
2274	0	32898	
2275	0	32992	
2276	0	33108	
2277	0	33188	
2278	0	33192	
2279	0	33164	
2280	0	33196	
2281	0	33284	
2282	0	33400	
2283	0	33488	
2284	0	33472	
2285	0	33404	
2286	0	33296	
2287	0	33172	
2288	0	33046	
2289	0	32892	
2290	0	32820	
2291	0	32812	
2292	0	32804	
2293	0	32808	
2294	0	32912	
2295	0	33080	
2296	0	33200	
2297	0	33312	
2298	0	33420	
2299	0	33560	
2300	0	33652	
2301	0	33672	
2302	0	33688	
2303	0	33680	
2304	0	33700	
2305	0	33740	
2306	0	33784	
2307	0	33804	
2308	0	33792	
2309	0	33740	
2310	0	33608	
2311	0	33492	
2312	0	33428	
2313	0	33320	
2314	0	33108	
2315	0	32816	
2316	0	32568	
2317	0	32392	
2318	0	32308	
2319	0	32272	
2320	0	32284	
2321	0	32328	
2322	0	32392	
2323	0	32460	
2324	0	32464	
2325	0	32444	
2326	0	32472	
2327	0	32488	
2328	0	32464	
2329	0	32464	
2330	0	32480	
2331	0	32504	
2332	0	32492	
2333	0	32484	
2334	0	32508	
2335	0	32546	
2336	0	32592	
2337	0	32672	
2338	0	32760	
2339	0	32768	
2340	0	32700	
2341	0	32666	
2342	0	32704	
2343	0	32786	
2344	0	32868	
2345	0	32904	
2346	0	32924	
2347	0	32968	
2348	0	32984	
2349	0	33024	
2350	0	33088	
2351	0	33144	
2352	0	33188	
2353	0	33210	
2354	0	33212	
2355	0	33244	
2356	0	33284	
2357	0	33232	
2358	0	33168	
2359	0	33064	
2360	0	32948	
2361	0	32882	
2362	0	32784	
2363	0	32640	
2364	0	32460	
2365	0	32284	
2366	0	32248	
2367	0	32336	
2368	0	32648	
2369	0	33130	
2370	0	33764	
2371	0	34448	
2372	0	35214	
2373	0	36084	
2374	0	37056	
2375	0	38016	
2376	0	39042	
2377	0	40308	
2378	0	41784	
2379	0	43456	
2380	0	45314	
2381	0	47412	
2382	0	49596	
2383	0	51744	
2384	0	54042	
2385	0	56664	
2386	0	59488	
2387	0	62164	
2388	0	63776	
2389	0	64608	
2390	0	65004	
2391	0	65180	
2392	0	65184	
2393	0	65148	
2394	0	65064	
2395	0	64968	
2396	0	64840	
2397	0	64708	
2398	0	64596	
2399	0	64472	
2400	0	64352	
2401	0	64208	
2402	0	62480	
2403	0	56838	
2404	0	51352	
2405	0	45876	
2406	0	40936	
2407	0	36880	
2408	0	33876	
2409	0	31740	
2410	0	30234	
2411	0	29084	
2412	0	28296	
2413	0	27714	
2414	0	27240	
2415	0	26908	
2416	0	26650	
2417	0	26356	
2418	0	26100	
2419	0	25824	
2420	0	25512	
2421	0	25200	
2422	0	24960	
2423	0	24864	
2424	0	24964	
2425	0	25219	
2426	0	25520	
2427	0	25828	
2428	0	26232	
2429	0	26640	
2430	0	26936	
2431	0	27236	
2432	0	27516	
2433	0	27810	
2434	0	28128	
2435	0	28392	
2436	0	28660	
2437	0	28920	
2438	0	29180	
2439	0	29416	
2440	0	29536	
2441	0	29588	
2442	0	29628	
2443	0	29616	
2444	0	29544	
2445	0	29464	
2446	0	29424	
2447	0	29436	
2448	0	29464	
2449	0	29480	
2450	0	29472	
2451	0	29496	
2452	0	29572	
2453	0	29600	
2454	0	29664	
2455	0	29702	
2456	0	29768	
2457	0	29812	
2458	0	29800	
2459	0	29828	
2460	0	29880	
2461	0	29916	
2462	0	29932	
2463	0	29976	
2464	0	30024	
2465	0	30020	
2466	0	29930	
2467	0	29836	
2468	0	29812	
2469	0	29808	
2470	0	29808	
2471	0	29856	
2472	0	29898	
2473	0	30004	
2474	0	30144	
2475	0	30272	
2476	0	30364	
2477	0	30372	
2478	0	30404	
2479	0	30484	
2480	0	30472	
2481	0	30424	
2482	0	30392	
2483	0	30382	
2484	0	30436	
2485	0	30492	
2486	0	30504	
2487	0	30564	
2488	0	30628	
2489	0	30748	
2490	0	30816	
2491	0	30876	
2492	0	30936	
2493	0	30968	
2494	0	31004	
2495	0	31004	
2496	0	31032	
2497	0	31060	
2498	0	31088	
2499	0	31124	
2500	0	31172	
2501	0	31248	
2502	0	31292	
2503	0	31336	
2504	0	31380	
2505	0	31368	
2506	0	31404	
2507	0	31464	
2508	0	31456	
2509	0	31492	
2510	0	31604	
2511	0	31688	
2512	0	31754	
2513	0	31816	
2514	0	31828	
2515	0	31848	
2516	0	31940	
2517	0	32044	
2518	0	32068	
2519	0	32012	
2520	0	31980	
2521	0	31980	
2522	0	31936	
2523	0	31884	
2524	0	31856	
2525	0	31946	
2526	0	32044	
2527	0	32128	
2528	0	32196	
2529	0	32224	
2530	0	32296	
2531	0	32388	
2532	0	32496	
2533	0	32488	
2534	0	32484	
2535	0	32512	
2536	0	32504	
2537	0	32520	
2538	0	32528	
2539	0	32492	
2540	0	32496	
2541	0	32568	
2542	0	32596	
2543	0	32612	
2544	0	32668	
2545	0	32744	
2546	0	32776	
2547	0	32848	
2548	0	32888	
2549	0	32916	
2550	0	32984	
2551	0	33088	
2552	0	33088	
2553	0	33080	
2554	0	33084	
2555	0	33064	
2556	0	33132	
2557	0	33208	
2558	0	33242	
2559	0	33256	
2560	0	33240	
2561	0	33248	
2562	0	33280	
2563	0	33376	
2564	0	33424	
2565	0	33464	
2566	0	33476	
2567	0	33508	
2568	0	33560	
2569	0	33568	
2570	0	33600	
2571	0	33724	
2572	0	33724	
2573	0	33752	
2574	0	33760	
2575	0	33788	
2576	0	33840	
2577	0	33848	
2578	0	33852	
2579	0	33928	
2580	0	33944	
2581	0	33940	
2582	0	33952	
2583	0	33972	
2584	0	33980	
2585	0	33996	
2586	0	34004	
2587	0	34004	
2588	0	34020	
2589	0	34104	
2590	0	34240	
2591	0	34356	
2592	0	34416	
2593	0	34480	
2594	0	34496	
2595	0	34516	
2596	0	34520	
2597	0	34500	
2598	0	34512	
2599	0	34536	
2600	0	34640	
2601	0	34694	
2602	0	34724	
2603	0	34708	
2604	0	34764	
2605	0	34888	
2606	0	34968	
2607	0	35074	
2608	0	35212	
2609	0	35292	
2610	0	35290	
2611	0	35248	
2612	0	35192	
2613	0	35204	
2614	0	35252	
2615	0	35360	
2616	0	35412	
2617	0	35412	
2618	0	35436	
2619	0	35464	
2620	0	35496	
2621	0	35532	
2622	0	35540	
2623	0	35616	
2624	0	35716	
2625	0	35784	
2626	0	35848	
2627	0	35924	
2628	0	36032	
2629	0	36106	
2630	0	36156	
2631	0	36212	
2632	0	36228	
2633	0	36190	
2634	0	36232	
2635	0	36324	
2636	0	36380	
2637	0	36448	
2638	0	36512	
2639	0	36548	
2640	0	36544	
2641	0	36552	
2642	0	36532	
2643	0	36572	
2644	0	36624	
2645	0	36688	
2646	0	36704	
2647	0	36720	
2648	0	36736	
2649	0	36752	
2650	0	36792	
2651	0	36804	
2652	0	36812	
2653	0	36816	
2654	0	36832	
2655	0	36836	
2656	0	36840	
2657	0	36804	
2658	0	36768	
2659	0	36756	
2660	0	36756	
2661	0	36708	
2662	0	36588	
2663	0	36528	
2664	0	36452	
2665	0	36368	
2666	0	36204	
2667	0	36004	
2668	0	35816	
2669	0	35682	
2670	0	35568	
2671	0	35440	
2672	0	35360	
2673	0	35268	
2674	0	35106	
2675	0	34932	
2676	0	34784	
2677	0	34648	
2678	0	34496	
2679	0	34316	
2680	0	34144	
2681	0	33918	
2682	0	33706	
2683	0	33520	
2684	0	33344	
2685	0	33200	
2686	0	33034	
2687	0	32900	
2688	0	32796	
2689	0	32652	
2690	0	32436	
2691	0	32272	
2692	0	32068	
2693	0	31852	
2694	0	31704	
2695	0	31620	
2696	0	31492	
2697	0	31292	
2698	0	31072	
2699	0	30922	
2700	0	30716	
2701	0	30572	
2702	0	30496	
2703	0	30424	
2704	0	30312	
2705	0	30200	
2706	0	30120	
2707	0	30076	
2708	0	30094	
2709	0	30080	
2710	0	30000	
2711	0	29868	
2712	0	29756	
2713	0	29656	
2714	0	29608	
2715	0	29568	
2716	0	29556	
2717	0	29540	
2718	0	29506	
2719	0	29440	
2720	0	29372	
2721	0	29302	
2722	0	29284	
2723	0	29272	
2724	0	29258	
2725	0	29260	
2726	0	29192	
2727	0	29084	
2728	0	28976	
2729	0	28896	
2730	0	28872	
2731	0	28816	
2732	0	28828	
2733	0	28918	
2734	0	28930	
2735	0	28896	
2736	0	28882	
2737	0	28924	
2738	0	28956	
2739	0	28944	
2740	0	28916	
2741	0	28936	
2742	0	28944	
2743	0	28960	
2744	0	29000	
2745	0	29076	
2746	0	29116	
2747	0	29064	
2748	0	29104	
2749	0	29176	
2750	0	29224	
2751	0	29272	
2752	0	29292	
2753	0	29232	
2754	0	29200	
2755	0	29216	
2756	0	29252	
2757	0	29272	
2758	0	29282	
2759	0	29300	
2760	0	29348	
2761	0	29384	
2762	0	29396	
2763	0	29456	
2764	0	29504	
2765	0	29580	
2766	0	29604	
2767	0	29564	
2768	0	29548	
2769	0	29586	
2770	0	29648	
2771	0	29692	
2772	0	29740	
2773	0	29824	
2774	0	29888	
2775	0	29900	
2776	0	29894	
2777	0	29888	
2778	0	29912	
2779	0	29938	
2780	0	29888	
2781	0	29848	
2782	0	29840	
2783	0	29874	
2784	0	29945	
2785	0	30016	
2786	0	30090	
2787	0	30148	
2788	0	30172	
2789	0	30184	
2790	0	30258	
2791	0	30256	
2792	0	30140	
2793	0	30072	
2794	0	30052	
2795	0	30016	
2796	0	29992	
2797	0	30056	
2798	0	30120	
2799	0	30148	
2800	0	30168	
2801	0	30242	
2802	0	30284	
2803	0	30324	
2804	0	30352	
2805	0	30396	
2806	0	30340	
2807	0	30232	
2808	0	30200	
2809	0	30218	
2810	0	30216	
2811	0	30220	
2812	0	30198	
2813	0	30200	
2814	0	30208	
2815	0	30212	
2816	0	30200	
2817	0	30176	
2818	0	30196	
2819	0	30272	
2820	0	30336	
2821	0	30312	
2822	0	30252	
2823	0	30224	
2824	0	30248	
2825	0	30256	
2826	0	30240	
2827	0	30210	
2828	0	30260	
2829	0	30336	
2830	0	30400	
2831	0	30424	
2832	0	30428	
2833	0	30392	
2834	0	30460	
2835	0	30440	
2836	0	30412	
2837	0	30440	
2838	0	30456	
2839	0	30408	
2840	0	30414	
2841	0	30432	
2842	0	30416	
2843	0	30352	
2844	0	30352	
2845	0	30392	
2846	0	30392	
2847	0	30376	
2848	0	30420	
2849	0	30404	
2850	0	30324	
2851	0	30304	
2852	0	30338	
2853	0	30380	
2854	0	30456	
2855	0	30540	
2856	0	30560	
2857	0	30556	
2858	0	30568	
2859	0	30628	
2860	0	30604	
2861	0	30552	
2862	0	30528	
2863	0	30500	
2864	0	30490	
2865	0	30512	
2866	0	30532	
2867	0	30568	
2868	0	30580	
2869	0	30592	
2870	0	30652	
2871	0	30688	
2872	0	30676	
2873	0	30576	
2874	0	30532	
2875	0	30552	
2876	0	30600	
2877	0	30660	
2878	0	30724	
2879	0	30768	
2880	0	30770	
2881	0	30716	
2882	0	30708	
2883	0	30712	
2884	0	30692	
2885	0	30658	
2886	0	30652	
2887	0	30658	
2888	0	30656	
2889	0	30628	
2890	0	30644	
2891	0	30692	
2892	0	30780	
2893	0	30824	
2894	0	30808	
2895	0	30804	
2896	0	30752	
2897	0	30768	
2898	0	30814	
2899	0	30830	
2900	0	30840	
2901	0	30836	
2902	0	30868	
2903	0	30892	
2904	0	30924	
2905	0	30956	
2906	0	30996	
2907	0	30988	
2908	0	30964	
2909	0	30924	
2910	0	30936	
2911	0	30920	
2912	0	30916	
2913	0	30904	
2914	0	30900	
2915	0	30934	
2916	0	30924	
2917	0	30912	
2918	0	30912	
2919	0	30860	
2920	0	30828	
2921	0	30816	
2922	0	30888	
2923	0	30946	
2924	0	30976	
2925	0	30966	
2926	0	30986	
2927	0	31024	
2928	0	31076	
2929	0	31192	
2930	0	31256	
2931	0	31280	
2932	0	31328	
2933	0	31312	
2934	0	31320	
2935	0	31304	
2936	0	31240	
2937	0	31204	
2938	0	31250	
2939	0	31296	
2940	0	31316	
2941	0	31352	
2942	0	31452	
2943	0	31516	
2944	0	31528	
2945	0	31532	
2946	0	31500	
2947	0	31416	
2948	0	31348	
2949	0	31332	
2950	0	31364	
2951	0	31388	
2952	0	31452	
2953	0	31494	
2954	0	31460	
2955	0	31440	
2956	0	31428	
2957	0	31448	
2958	0	31512	
2959	0	31534	
2960	0	31476	
2961	0	31488	
2962	0	31536	
2963	0	31540	
2964	0	31568	
2965	0	31610	
2966	0	31624	
2967	0	31632	
2968	0	31664	
2969	0	31712	
2970	0	31716	
2971	0	31812	
2972	0	31868	
2973	0	31868	
2974	0	31820	
2975	0	31748	
2976	0	31762	
2977	0	31746	
2978	0	31716	
2979	0	31682	
2980	0	31748	
2981	0	31792	
2982	0	31728	
2983	0	31652	
2984	0	31672	
2985	0	31700	
2986	0	31728	
2987	0	31808	
2988	0	31904	
2989	0	31988	
2990	0	32028	
2991	0	32070	
2992	0	32064	
2993	0	32036	
2994	0	32026	
2995	0	32010	
2996	0	31986	
2997	0	31988	
2998	0	31960	
2999	0	31948	
3000	0	32018	
3001	0	32064	
3002	0	32068	
3003	0	32084	
3004	0	32168	
3005	0	32180	
3006	0	32112	
3007	0	32036	
3008	0	31968	
3009	0	31934	
3010	0	31908	
3011	0	31896	
3012	0	31968	
3013	0	32072	
3014	0	32120	
3015	0	32200	
3016	0	32288	
3017	0	32312	
3018	0	32280	
3019	0	32264	
3020	0	32276	
3021	0	32264	
3022	0	32282	
3023	0	32264	
3024	0	32248	
3025	0	32260	
3026	0	32352	
3027	0	32452	
3028	0	32508	
3029	0	32488	
3030	0	32456	
3031	0	32460	
3032	0	32460	
3033	0	32432	
3034	0	32444	
3035	0	32504	
3036	0	32548	
3037	0	32572	
3038	0	32628	
3039	0	32688	
3040	0	32732	
3041	0	32744	
3042	0	32696	
3043	0	32604	
3044	0	32552	
3045	0	32538	
3046	0	32532	
3047	0	32508	
3048	0	32532	
3049	0	32544	
3050	0	32592	
3051	0	32592	
3052	0	32520	
3053	0	32440	
3054	0	32416	
3055	0	32400	
3056	0	32404	
3057	0	32436	
3058	0	32492	
3059	0	32536	
3060	0	32556	
3061	0	32576	
3062	0	32640	
3063	0	32728	
3064	0	32788	
3065	0	32872	
3066	0	32936	
3067	0	32928	
3068	0	32880	
3069	0	32896	
3070	0	32950	
3071	0	32992	
3072	0	33036	
3073	0	33048	
3074	0	33044	
3075	0	33068	
3076	0	33024	
3077	0	32854	
3078	0	32692	
3079	0	32676	
3080	0	32740	
3081	0	32840	
3082	0	32920	
3083	0	32944	
3084	0	32884	
3085	0	32796	
3086	0	32672	
3087	0	32586	
3088	0	32648	
3089	0	32704	
3090	0	32724	
3091	0	32784	
3092	0	32912	
3093	0	33052	
3094	0	33160	
3095	0	33220	
3096	0	33232	
3097	0	33232	
3098	0	33248	
3099	0	33324	
3100	0	33412	
3101	0	33424	
3102	0	33432	
3103	0	33466	
3104	0	33440	
3105	0	33444	
3106	0	33540	
3107	0	33620	
3108	0	33624	
3109	0	33616	
3110	0	33600	
3111	0	33472	
3112	0	33264	
3113	0	33056	
3114	0	32856	
3115	0	32636	
3116	0	32478	
3117	0	32368	
3118	0	32344	
3119	0	32380	
3120	0	32420	
3121	0	32456	
3122	0	32476	
3123	0	32472	
3124	0	32392	
3125	0	32324	
3126	0	32356	
3127	0	32392	
3128	0	32404	
3129	0	32436	
3130	0	32448	
3131	0	32504	
3132	0	32578	
3133	0	32628	
3134	0	32660	
3135	0	32652	
3136	0	32712	
3137	0	32792	
3138	0	32852	
3139	0	32928	
3140	0	32952	
3141	0	32966	
3142	0	33008	
3143	0	33024	
3144	0	33080	
3145	0	33128	
3146	0	33116	
3147	0	33116	
3148	0	33108	
3149	0	33124	
3150	0	33136	
3151	0	33184	
3152	0	33256	
3153	0	33332	
3154	0	33312	
3155	0	33220	
3156	0	33164	
3157	0	33084	
3158	0	33000	
3159	0	32882	
3160	0	32692	
3161	0	32472	
3162	0	32332	
3163	0	32314	
3164	0	32500	
3165	0	32900	
3166	0	33432	
3167	0	34082	
3168	0	34868	
3169	0	35696	
3170	0	36604	
3171	0	37600	
3172	0	38580	
3173	0	39628	
3174	0	40800	
3175	0	42244	
3176	0	43944	
3177	0	45864	
3178	0	47904	
3179	0	50004	
3180	0	52136	
3181	0	54444	
3182	0	57044	
3183	0	59880	
3184	0	62528	
3185	0	64064	
3186	0	64844	
3187	0	65216	
3188	0	65376	
3189	0	65380	
3190	0	65344	
3191	0	65248	
3192	0	65144	
3193	0	65020	
3194	0	64912	
3195	0	64768	
3196	0	64652	
3197	0	64516	
3198	0	64384	
3199	0	62384	
3200	0	56808	
3201	0	51264	
3202	0	45732	
3203	0	40836	
3204	0	36800	
3205	0	33836	
3206	0	31736	
3207	0	30236	
3208	0	29152	
3209	0	28376	
3210	0	27756	
3211	0	27236	
3212	0	26888	
3213	0	26656	
3214	0	26344	
3215	0	26048	
3216	0	25820	
3217	0	25570	
3218	0	25290	
3219	0	25038	
3220	0	24928	
3221	0	25016	
3222	0	25302	
3223	0	25644	
3224	0	25940	
3225	0	26252	
3226	0	26596	
3227	0	26902	
3228	0	27168	
3229	0	27424	
3230	0	27748	
3231	0	28110	
3232	0	28404	
3233	0	28624	
3234	0	28856	
3235	0	29112	
3236	0	29284	
3237	0	29390	
3238	0	29416	
3239	0	29476	
3240	0	29568	
3241	0	29640	
3242	0	29660	
3243	0	29632	
3244	0	29584	
3245	0	29568	
3246	0	29584	
3247	0	29568	
3248	0	29588	
3249	0	29640	
3250	0	29664	
3251	0	29658	
3252	0	29664	
3253	0	29664	
3254	0	29720	
3255	0	29796	
3256	0	29834	
3257	0	29832	
3258	0	29856	
3259	0	29936	
3260	0	30016	
3261	0	30044	
3262	0	30064	
3263	0	30040	
3264	0	30080	
3265	0	30104	
3266	0	30144	
3267	0	30178	
3268	0	30196	
3269	0	30236	
3270	0	30260	
3271	0	30284	
3272	0	30304	
3273	0	30348	
3274	0	30368	
3275	0	30384	
3276	0	30368	
3277	0	30360	
3278	0	30400	
3279	0	30468	
3280	0	30500	
3281	0	30552	
3282	0	30648	
3283	0	30712	
3284	0	30756	
3285	0	30824	
3286	0	30920	
3287	0	30984	
3288	0	31044	
3289	0	31092	
3290	0	31084	
3291	0	31104	
3292	0	31150	
3293	0	31220	
3294	0	31288	
3295	0	31356	
3296	0	31316	
3297	0	31324	
3298	0	31400	
3299	0	31464	
3300	0	31516	
3301	0	31520	
3302	0	31504	
3303	0	31520	
3304	0	31540	
3305	0	31552	
3306	0	31520	
3307	0	31522	
3308	0	31540	
3309	0	31552	
3310	0	31598	
3311	0	31696	
3312	0	31804	
3313	0	31852	
3314	0	31912	
3315	0	32024	
3316	0	32124	
3317	0	32172	
3318	0	32224	
3319	0	32272	
3320	0	32288	
3321	0	32252	
3322	0	32168	
3323	0	32148	
3324	0	32136	
3325	0	32192	
3326	0	32320	
3327	0	32396	
3328	0	32424	
3329	0	32456	
3330	0	32584	
3331	0	32624	
3332	0	32680	
3333	0	32720	
3334	0	32744	
3335	0	32744	
3336	0	32728	
3337	0	32736	
3338	0	32780	
3339	0	32808	
3340	0	32844	
3341	0	32920	
3342	0	32996	
3343	0	33080	
3344	0	33116	
3345	0	33176	
3346	0	33194	
3347	0	33232	
3348	0	33312	
3349	0	33372	
3350	0	33392	
3351	0	33372	
3352	0	33372	
3353	0	33376	
3354	0	33352	
3355	0	33336	
3356	0	33324	
3357	0	33328	
3358	0	33340	
3359	0	33412	
3360	0	33482	
3361	0	33560	
3362	0	33632	
3363	0	33704	
3364	0	33736	
3365	0	33728	
3366	0	33716	
3367	0	33712	
3368	0	33696	
3369	0	33692	
3370	0	33696	
3371	0	33792	
3372	0	33848	
3373	0	33872	
3374	0	33932	
3375	0	34044	
3376	0	34164	
3377	0	34232	
3378	0	34260	
3379	0	34292	
3380	0	34264	
3381	0	34238	
3382	0	34252	
3383	0	34228	
3384	0	34212	
3385	0	34230	
3386	0	34240	
3387	0	34252	
3388	0	34296	
3389	0	34360	
3390	0	34444	
3391	0	34564	
3392	0	34640	
3393	0	34684	
3394	0	34720	
3395	0	34768	
3396	0	34764	
3397	0	34744	
3398	0	34792	
3399	0	34846	
3400	0	34866	
3401	0	34856	
3402	0	34912	
3403	0	34960	
3404	0	35008	
3405	0	35088	
3406	0	35212	
3407	0	35312	
3408	0	35376	
3409	0	35388	
3410	0	35408	
3411	0	35488	
3412	0	35584	
3413	0	35596	
3414	0	35664	
3415	0	35760	
3416	0	35776	
3417	0	35842	
3418	0	35916	
3419	0	35956	
3420	0	35932	
3421	0	35940	
3422	0	35964	
3423	0	35976	
3424	0	35960	
3425	0	36000	
3426	0	36056	
3427	0	36172	
3428	0	36256	
3429	0	36366	
3430	0	36492	
3431	0	36540	
3432	0	36624	
3433	0	36692	
3434	0	36768	
3435	0	36828	
3436	0	36856	
3437	0	36872	
3438	0	36864	
3439	0	36890	
3440	0	36948	
3441	0	36968	
3442	0	37020	
3443	0	37078	
3444	0	37010	
3445	0	36928	
3446	0	36924	
3447	0	36964	
3448	0	36996	
3449	0	37040	
3450	0	37088	
3451	0	37140	
3452	0	37208	
3453	0	37264	
3454	0	37288	
3455	0	37224	
3456	0	37128	
3457	0	37012	
3458	0	36888	
3459	0	36768	
3460	0	36632	
3461	0	36530	
3462	0	36452	
3463	0	36358	
3464	0	36200	
3465	0	36056	
3466	0	35936	
3467	0	35828	
3468	0	35680	
3469	0	35492	
3470	0	35298	
3471	0	35188	
3472	0	35060	
3473	0	34884	
3474	0	34676	
3475	0	34520	
3476	0	34408	
3477	0	34240	
3478	0	34030	
3479	0	33848	
3480	0	33704	
3481	0	33520	
3482	0	33276	
3483	0	33056	
3484	0	32866	
3485	0	32660	
3486	0	32436	
3487	0	32264	
3488	0	32120	
3489	0	31936	
3490	0	31704	
3491	0	31444	
3492	0	31266	
3493	0	31144	
3494	0	31000	
3495	0	30874	
3496	0	30748	
3497	0	30616	
3498	0	30516	
3499	0	30400	
3500	0	30264	
3501	0	30140	
3502	0	30000	
3503	0	29896	
3504	0	29828	
3505	0	29756	
3506	0	29664	
3507	0	29580	
3508	0	29524	
3509	0	29460	
3510	0	29408	
3511	0	29380	
3512	0	29360	
3513	0	29316	
3514	0	29276	
3515	0	29228	
3516	0	29128	
3517	0	29016	
3518	0	28920	
3519	0	28860	
3520	0	28832	
3521	0	28800	
3522	0	28772	
3523	0	28748	
3524	0	28704	
3525	0	28652	
3526	0	28688	
3527	0	28728	
3528	0	28764	
3529	0	28788	
3530	0	28826	
3531	0	28860	
3532	0	28936	
3533	0	28968	
3534	0	28984	
3535	0	28980	
3536	0	28936	
3537	0	28908	
3538	0	28840	
3539	0	28818	
3540	0	28816	
3541	0	28892	
3542	0	28968	
3543	0	28992	
3544	0	28994	
3545	0	29008	
3546	0	29034	
3547	0	29048	
3548	0	29096	
3549	0	29104	
3550	0	29112	
3551	0	29156	
3552	0	29284	
3553	0	29332	
3554	0	29376	
3555	0	29356	
3556	0	29356	
3557	0	29408	
3558	0	29472	
3559	0	29460	
3560	0	29466	
3561	0	29460	
3562	0	29452	
3563	0	29444	
3564	0	29460	
3565	0	29456	
3566	0	29508	
3567	0	29584	
3568	0	29656	
3569	0	29748	
3570	0	29768	
3571	0	29744	
3572	0	29740	
3573	0	29704	
3574	0	29696	
3575	0	29744	
3576	0	29792	
3577	0	29840	
3578	0	29908	
3579	0	29980	
3580	0	29964	
3581	0	29904	
3582	0	29864	
3583	0	29868	
3584	0	29886	
3585	0	29888	
3586	0	29888	
3587	0	29904	
3588	0	29924	
3589	0	29980	
3590	0	30008	
3591	0	30044	
3592	0	30104	
3593	0	30120	
3594	0	30136	
3595	0	30172	
3596	0	30216	
3597	0	30244	
3598	0	30300	
3599	0	30308	
3600	0	30348	
3601	0	30376	
3602	0	30372	
3603	0	30344	
3604	0	30324	
3605	0	30264	
3606	0	30240	
3607	0	30280	
3608	0	30320	
3609	0	30360	
3610	0	30406	
3611	0	30348	
3612	0	30340	
3613	0	30352	
3614	0	30370	
3615	0	30322	
3616	0	30300	
3617	0	30312	
3618	0	30336	
3619	0	30376	
3620	0	30336	
3621	0	30312	
3622	0	30284	
3623	0	30284	
3624	0	30308	
3625	0	30296	
3626	0	30256	
3627	0	30240	
3628	0	30288	
3629	0	30356	
3630	0	30416	
3631	0	30464	
3632	0	30444	
3633	0	30464	
3634	0	30448	
3635	0	30368	
3636	0	30344	
3637	0	30316	
3638	0	30336	
3639	0	30300	
3640	0	30332	
3641	0	30348	
3642	0	30416	
3643	0	30522	
3644	0	30528	
3645	0	30508	
3646	0	30464	
3647	0	30436	
3648	0	30476	
3649	0	30536	
3650	0	30592	
3651	0	30680	
3652	0	30756	
3653	0	30796	
3654	0	30824	
3655	0	30760	
3656	0	30712	
3657	0	30698	
3658	0	30656	
3659	0	30656	
3660	0	30668	
3661	0	30672	
3662	0	30660	
3663	0	30624	
3664	0	30608	
3665	0	30610	
3666	0	30560	
3667	0	30544	
3668	0	30568	
3669	0	30564	
3670	0	30552	
3671	0	30596	
3672	0	30620	
3673	0	30644	
3674	0	30680	
3675	0	30736	
3676	0	30756	
3677	0	30756	
3678	0	30756	
3679	0	30760	
3680	0	30788	
3681	0	30772	
3682	0	30788	
3683	0	30792	
3684	0	30842	
3685	0	30936	
3686	0	30992	
3687	0	31016	
3688	0	30980	
3689	0	30964	
3690	0	30982	
3691	0	30984	
3692	0	30904	
3693	0	30834	
3694	0	30844	
3695	0	30856	
3696	0	30848	
3697	0	30840	
3698	0	30900	
3699	0	30940	
3700	0	30968	
3701	0	30984	
3702	0	30964	
3703	0	30960	
3704	0	30924	
3705	0	30920	
3706	0	30972	
3707	0	31044	
3708	0	31148	
3709	0	31160	
3710	0	31160	
3711	0	31252	
3712	0	31308	
3713	0	31264	
3714	0	31204	
3715	0	31160	
3716	0	31136	
3717	0	31116	
3718	0	31128	
3719	0	31140	
3720	0	31154	
3721	0	31160	
3722	0	31184	
3723	0	31328	
3724	0	31376	
3725	0	31352	
3726	0	31296	
3727	0	31252	
3728	0	31212	
3729	0	31212	
3730	0	31236	
3731	0	31308	
3732	0	31384	
3733	0	31422	
3734	0	31480	
3735	0	31528	
3736	0	31532	
3737	0	31488	
3738	0	31458	
3739	0	31476	
3740	0	31480	
3741	0	31496	
3742	0	31516	
3743	0	31524	
3744	0	31536	
3745	0	31536	
3746	0	31576	
3747	0	31584	
3748	0	31552	
3749	0	31572	
3750	0	31648	
3751	0	31680	
3752	0	31700	
3753	0	31724	
3754	0	31736	
3755	0	31752	
3756	0	31816	
3757	0	31832	
3758	0	31740	
3759	0	31688	
3760	0	31752	
3761	0	31800	
3762	0	31784	
3763	0	31732	
3764	0	31732	
3765	0	31768	
3766	0	31792	
3767	0	31796	
3768	0	31828	
3769	0	31888	
3770	0	31876	
3771	0	31796	
3772	0	31732	
3773	0	31800	
3774	0	31832	
3775	0	31802	
3776	0	31768	
3777	0	31760	
3778	0	31784	
3779	0	31800	
3780	0	31826	
3781	0	31828	
3782	0	31840	
3783	0	31912	
3784	0	31968	
3785	0	32008	
3786	0	32026	
3787	0	32008	
3788	0	31944	
3789	0	31936	
3790	0	31928	
3791	0	31938	
3792	0	31968	
3793	0	31968	
3794	0	31960	
3795	0	31948	
3796	0	32016	
3797	0	32072	
3798	0	32126	
3799	0	32144	
3800	0	32132	
3801	0	32144	
3802	0	32192	
3803	0	32220	
3804	0	32224	
3805	0	32172	
3806	0	32176	
3807	0	32216	
3808	0	32266	
3809	0	32304	
3810	0	32388	
3811	0	32448	
3812	0	32472	
3813	0	32524	
3814	0	32524	
3815	0	32460	
3816	0	32404	
3817	0	32416	
3818	0	32432	
3819	0	32412	
3820	0	32408	
3821	0	32340	
3822	0	32248	
3823	0	32212	
3824	0	32220	
3825	0	32244	
3826	0	32244	
3827	0	32216	
3828	0	32220	
3829	0	32236	
3830	0	32248	
3831	0	32306	
3832	0	32368	
3833	0	32416	
3834	0	32336	
3835	0	32324	
3836	0	32298	
3837	0	32220	
3838	0	32192	
3839	0	32212	
3840	0	32292	
3841	0	32352	
3842	0	32452	
3843	0	32584	
3844	0	32668	
3845	0	32668	
3846	0	32656	
3847	0	32740	
3848	0	32812	
3849	0	32804	
3850	0	32800	
3851	0	32792	
3852	0	32800	
3853	0	32808	
3854	0	32792	
3855	0	32832	
3856	0	32876	
3857	0	32784	
3858	0	32672	
3859	0	32616	
3860	0	32536	
3861	0	32460	
3862	0	32434	
3863	0	32500	
3864	0	32660	
3865	0	32804	
3866	0	32856	
3867	0	32920	
3868	0	32886	
3869	0	32788	
3870	0	32730	
3871	0	32728	
3872	0	32768	
3873	0	32800	
3874	0	32828	
3875	0	32832	
3876	0	32808	
3877	0	32876	
3878	0	32928	
3879	0	33010	
3880	0	33116	
3881	0	33232	
3882	0	33412	
3883	0	33496	
3884	0	33480	
3885	0	33482	
3886	0	33476	
3887	0	33436	
3888	0	33440	
3889	0	33472	
3890	0	33520	
3891	0	33584	
3892	0	33524	
3893	0	33416	
3894	0	33276	
3895	0	33092	
3896	0	32860	
3897	0	32660	
3898	0	32508	
3899	0	32412	
3900	0	32360	
3901	0	32312	
3902	0	32264	
3903	0	32220	
3904	0	32224	
3905	0	32300	
3906	0	32332	
3907	0	32316	
3908	0	32322	
3909	0	32384	
3910	0	32460	
3911	0	32508	
3912	0	32608	
3913	0	32680	
3914	0	32676	
3915	0	32612	
3916	0	32600	
3917	0	32664	
3918	0	32728	
3919	0	32692	
3920	0	32692	
3921	0	32664	
3922	0	32660	
3923	0	32692	
3924	0	32772	
3925	0	32844	
3926	0	32928	
3927	0	33020	
3928	0	33040	
3929	0	33068	
3930	0	33128	
3931	0	33172	
3932	0	33128	
3933	0	33152	
3934	0	33240	
3935	0	33328	
3936	0	33388	
3937	0	33376	
3938	0	33304	
3939	0	33184	
3940	0	33064	
3941	0	32968	
3942	0	32864	
3943	0	32656	
3944	0	32456	
3945	0	32348	
3946	0	32448	
3947	0	32756	
3948	0	33192	
3949	0	33736	
3950	0	34420	
3951	0	35192	
3952	0	35980	
3953	0	36824	
3954	0	37748	
3955	0	38652	
3956	0	39728	
3957	0	41052	
3958	0	42640	
3959	0	44468	
3960	0	46464	
3961	0	48588	
3962	0	50748	
3963	0	52928	
3964	0	55360	
3965	0	58124	
3966	0	61012	
3967	0	63264	
3968	0	64468	
3969	0	65072	
3970	0	65328	
3971	0	65412	
3972	0	65408	
3973	0	65352	
3974	0	65240	
3975	0	65132	
3976	0	65008	
3977	0	64888	
3978	0	64772	
3979	0	64620	
3980	0	64508	
3981	0	64384	
3982	0	59744	
3983	0	54332	
3984	0	48844	
3985	0	43584	
3986	0	39092	
3987	0	35584	
3988	0	33026	
3989	0	31220	
3990	0	29920	
3991	0	28940	
3992	0	28256	
3993	0	27704	
3994	0	27198	
3995	0	26900	
3996	0	26672	
3997	0	26388	
3998	0	26062	
3999	0	25732	
4000	0	25416	
4001	0	25128	
4002	0	24948	
4003	0	24944	
4004	0	25012	
4005	0	25162	
4006	0	25444	
4007	0	25840	
4008	0	26316	
4009	0	26682	
4010	0	26940	
4011	0	27232	
4012	0	27526	
4013	0	27816	
4014	0	28160	
4015	0	28502	
4016	0	28796	
4017	0	29048	
4018	0	29220	
4019	0	29416	
4020	0	29548	
4021	0	29604	
4022	0	29640	
4023	0	29696	
4024	0	29704	
4025	0	29612	
4026	0	29508	
4027	0	29448	
4028	0	29456	
4029	0	29484	
4030	0	29526	
4031	0	29530	
4032	0	29536	
4033	0	29584	
4034	0	29648	
4035	0	29696	
4036	0	29722	
4037	0	29760	
4038	0	29754	
4039	0	29736	
4040	0	29780	
4041	0	29840	
4042	0	29870	
4043	0	29912	
4044	0	29984	
4045	0	30048	
4046	0	30120	
4047	0	30160	
4048	0	30166	
4049	0	30152	
4050	0	30168	
4051	0	30136	
4052	0	30160	
4053	0	30244	
4054	0	30288	
4055	0	30330	
4056	0	30368	
4057	0	30428	
4058	0	30496	
4059	0	30560	
4060	0	30580	
4061	0	30564	
4062	0	30604	
4063	0	30656	
4064	0	30696	
4065	0	30730	
4066	0	30704	
4067	0	30708	
4068	0	30728	
4069	0	30788	
4070	0	30876	
4071	0	30980	
4072	0	31044	
4073	0	31096	
4074	0	31141	
4075	0	31164	
4076	0	31220	
4077	0	31264	
4078	0	31316	
4079	0	31352	
4080	0	31384	
4081	0	31420	
4082	0	31492	
4083	0	31564	
4084	0	31604	
4085	0	31636	
4086	0	31672	
4087	0	31704	
4088	0	31748	
4089	0	31832	
4090	0	31868	
4091	0	31866	
4092	0	31828	
4093	0	31800	
4094	0	31836	
4095	0	31888	
4096	0	31940	
4097	0	31964	
4098	0	31988	
4099	0	32064	
4100	0	32088	
4101	0	32096	
4102	0	32124	
4103	0	32168	
4104	0	32216	
4105	0	32320	
4106	0	32380	
4107	0	32436	
4108	0	32476	
4109	0	32524	
4110	0	32572	
4111	0	32640	
4112	0	32652	
4113	0	32676	
4114	0	32674	
4115	0	32692	
4116	0	32716	
4117	0	32784	
4118	0	32852	
4119	0	32876	
4120	0	32908	
4121	0	32960	
4122	0	32964	
4123	0	32924	
4124	0	32926	
4125	0	32968	
4126	0	33018	
4127	0	33016	
4128	0	33000	
4129	0	33066	
4130	0	33144	
4131	0	33196	
4132	0	33256	
4133	0	33287	
4134	0	33312	
4135	0	33372	
4136	0	33430	
4137	0	33460	
4138	0	33490	
4139	0	33512	
4140	0	33492	
4141	0	33468	
4142	0	33472	
4143	0	33540	
4144	0	33592	
4145	0	33660	
4146	0	33672	
4147	0	33668	
4148	0	33696	
4149	0	33732	
4150	0	33784	
4151	0	33860	
4152	0	33848	
4153	0	33824	
4154	0	33834	
4155	0	33884	
4156	0	33964	
4157	0	34046	
4158	0	34112	
4159	0	34152	
4160	0	34208	
4161	0	34216	
4162	0	34180	
4163	0	34176	
4164	0	34204	
4165	0	34264	
4166	0	34324	
4167	0	34368	
4168	0	34404	
4169	0	34432	
4170	0	34480	
4171	0	34560	
4172	0	34620	
4173	0	34612	
4174	0	34640	
4175	0	34708	
4176	0	34812	
4177	0	34880	
4178	0	34948	
4179	0	35004	
4180	0	35060	
4181	0	35088	
4182	0	35072	
4183	0	35100	
4184	0	35100	
4185	0	35152	
4186	0	35228	
4187	0	35272	
4188	0	35400	
4189	0	35440	
4190	0	35508	
4191	0	35552	
4192	0	35512	
4193	0	35500	
4194	0	35572	
4195	0	35598	
4196	0	35676	
4197	0	35732	
4198	0	35788	
4199	0	35836	
4200	0	35864	
4201	0	35918	
4202	0	35984	
4203	0	36052	
4204	0	36142	
4205	0	36224	
4206	0	36268	
4207	0	36296	
4208	0	36296	
4209	0	36384	
4210	0	36484	
4211	0	36560	
4212	0	36628	
4213	0	36676	
4214	0	36714	
4215	0	36800	
4216	0	36848	
4217	0	36892	
4218	0	36884	
4219	0	36864	
4220	0	36862	
4221	0	36868	
4222	0	36892	
4223	0	36944	
4224	0	36980	
4225	0	36992	
4226	0	37056	
4227	0	37140	
4228	0	37156	
4229	0	37148	
4230	0	37128	
4231	0	37096	
4232	0	37100	
4233	0	37124	
4234	0	37132	
4235	0	37104	
4236	0	37080	
4237	0	37020	
4238	0	36988	
4239	0	36914	
4240	0	36868	
4241	0	36800	
4242	0	36720	
4243	0	36656	
4244	0	36608	
4245	0	36468	
4246	0	36296	
4247	0	36116	
4248	0	35912	
4249	0	35768	
4250	0	35644	
4251	0	35488	
4252	0	35344	
4253	0	35180	
4254	0	35040	
4255	0	34916	
4256	0	34732	
4257	0	34580	
4258	0	34362	
4259	0	34096	
4260	0	33884	
4261	0	33692	
4262	0	33472	
4263	0	33276	
4264	0	33152	
4265	0	32992	
4266	0	32784	
4267	0	32632	
4268	0	32490	
4269	0	32244	
4270	0	32028	
4271	0	31868	
4272	0	31684	
4273	0	31528	
4274	0	31356	
4275	0	31200	
4276	0	31032	
4277	0	30868	
4278	0	30716	
4279	0	30588	
4280	0	30460	
4281	0	30352	
4282	0	30176	
4283	0	30010	
4284	0	29868	
4285	0	29732	
4286	0	29594	
4287	0	29508	
4288	0	29404	
4289	0	29280	
4290	0	29196	
4291	0	29092	
4292	0	28992	
4293	0	28956	
4294	0	28994	
4295	0	29042	
4296	0	29008	
4297	0	29008	
4298	0	28948	
4299	0	28868	
4300	0	28804	
4301	0	28748	
4302	0	28660	
4303	0	28620	
4304	0	28580	
4305	0	28564	
4306	0	28556	
4307	0	28564	
4308	0	28600	
4309	0	28644	
4310	0	28650	
4311	0	28684	
4312	0	28680	
4313	0	28724	
4314	0	28736	
4315	0	28700	
4316	0	28706	
4317	0	28728	
4318	0	28676	
4319	0	28584	
4320	0	28552	
4321	0	28540	
4322	0	28540	
4323	0	28576	
4324	0	28632	
4325	0	28650	
4326	0	28696	
4327	0	28740	
4328	0	28824	
4329	0	28888	
4330	0	28928	
4331	0	28958	
4332	0	28960	
4333	0	28984	
4334	0	29008	
4335	0	29044	
4336	0	29080	
4337	0	29080	
4338	0	29066	
4339	0	29092	
4340	0	29112	
4341	0	29104	
4342	0	29108	
4343	0	29128	
4344	0	29176	
4345	0	29260	
4346	0	29306	
4347	0	29338	
4348	0	29392	
4349	0	29428	
4350	0	29464	
4351	0	29528	
4352	0	29614	
4353	0	29680	
4354	0	29732	
4355	0	29748	
4356	0	29760	
4357	0	29744	
4358	0	29760	
4359	0	29792	
4360	0	29832	
4361	0	29840	
4362	0	29860	
4363	0	29872	
4364	0	29888	
4365	0	29876	
4366	0	29836	
4367	0	29896	
4368	0	29880	
4369	0	29880	
4370	0	29868	
4371	0	29880	
4372	0	29928	
4373	0	30012	
4374	0	30016	
4375	0	29976	
4376	0	29984	
4377	0	30048	
4378	0	30112	
4379	0	30096	
4380	0	30044	
4381	0	30020	
4382	0	30072	
4383	0	30080	
4384	0	30080	
4385	0	30108	
4386	0	30144	
4387	0	30152	
4388	0	30132	
4389	0	30128	
4390	0	30232	
4391	0	30312	
4392	0	30352	
4393	0	30368	
4394	0	30332	
4395	0	30304	
4396	0	30346	
4397	0	30376	
4398	0	30400	
4399	0	30396	
4400	0	30424	
4401	0	30428	
4402	0	30400	
4403	0	30414	
4404	0	30364	
4405	0	30360	
4406	0	30376	
4407	0	30436	
4408	0	30522	
4409	0	30584	
4410	0	30592	
4411	0	30572	
4412	0	30562	
4413	0	30592	
4414	0	30560	
4415	0	30536	
4416	0	30504	
4417	0	30520	
4418	0	30504	
4419	0	30480	
4420	0	30436	
4421	0	30436	
4422	0	30424	
4423	0	30436	
4424	0	30412	
4425	0	30452	
4426	0	30460	
4427	0	30478	
4428	0	30556	
4429	0	30588	
4430	0	30610	
4431	0	30556	
4432	0	30528	
4433	0	30496	
4434	0	30540	
4435	0	30572	
4436	0	30576	
4437	0	30528	
4438	0	30540	
4439	0	30576	
4440	0	30636	
4441	0	30648	
4442	0	30620	
4443	0	30636	
4444	0	30672	
4445	0	30708	
4446	0	30728	
4447	0	30700	
4448	0	30618	
4449	0	30632	
4450	0	30696	
4451	0	30752	
4452	0	30748	
4453	0	30656	
4454	0	30620	
4455	0	30672	
4456	0	30712	
4457	0	30764	
4458	0	30780	
4459	0	30784	
4460	0	30784	
4461	0	30788	
4462	0	30808	
4463	0	30840	
4464	0	30796	
4465	0	30772	
4466	0	30772	
4467	0	30744	
4468	0	30776	
4469	0	30860	
4470	0	30952	
4471	0	30976	
4472	0	31028	
4473	0	31072	
4474	0	31032	
4475	0	30920	
4476	0	30848	
4477	0	30832	
4478	0	30816	
4479	0	30832	
4480	0	30844	
4481	0	30848	
4482	0	30848	
4483	0	30868	
4484	0	30826	
4485	0	30836	
4486	0	30868	
4487	0	30902	
4488	0	31024	
4489	0	31096	
4490	0	31200	
4491	0	31276	
4492	0	31272	
4493	0	31272	
4494	0	31296	
4495	0	31334	
4496	0	31348	
4497	0	31306	
4498	0	31272	
4499	0	31288	
4500	0	31264	
4501	0	31200	
4502	0	31208	
4503	0	31248	
4504	0	31252	
4505	0	31220	
4506	0	31184	
4507	0	31196	
4508	0	31244	
4509	0	31292	
4510	0	31342	
4511	0	31368	
4512	0	31388	
4513	0	31372	
4514	0	31392	
4515	0	31388	
4516	0	31372	
4517	0	31394	
4518	0	31476	
4519	0	31576	
4520	0	31576	
4521	0	31488	
4522	0	31396	
4523	0	31346	
4524	0	31328	
4525	0	31300	
4526	0	31280	
4527	0	31264	
4528	0	31336	
4529	0	31440	
4530	0	31540	
4531	0	31540	
4532	0	31588	
4533	0	31676	
4534	0	31728	
4535	0	31722	
4536	0	31652	
4537	0	31596	
4538	0	31548	
4539	0	31538	
4540	0	31520	
4541	0	31484	
4542	0	31460	
4543	0	31470	
4544	0	31512	
4545	0	31576	
4546	0	31610	
4547	0	31616	
4548	0	31648	
4549	0	31752	
4550	0	31824	
4551	0	31856	
4552	0	31892	
4553	0	31992	
4554	0	32076	
4555	0	32026	
4556	0	31916	
4557	0	31840	
4558	0	31780	
4559	0	31804	
4560	0	31832	
4561	0	31840	
4562	0	31840	
4563	0	31822	
4564	0	31840	
4565	0	31880	
4566	0	31900	
4567	0	31904	
4568	0	31926	
4569	0	31976	
4570	0	32016	
4571	0	32060	
4572	0	32012	
4573	0	32008	
4574	0	32084	
4575	0	32100	
4576	0	32164	
4577	0	32220	
4578	0	32288	
4579	0	32316	
4580	0	32280	
4581	0	32208	
4582	0	32168	
4583	0	32168	
4584	0	32104	
4585	0	32096	
4586	0	32088	
4587	0	32128	
4588	0	32180	
4589	0	32228	
4590	0	32276	
4591	0	32284	
4592	0	32290	
4593	0	32296	
4594	0	32260	
4595	0	32236	
4596	0	32272	
4597	0	32320	
4598	0	32352	
4599	0	32372	
4600	0	32396	
4601	0	32448	
4602	0	32536	
4603	0	32524	
4604	0	32476	
4605	0	32452	
4606	0	32400	
4607	0	32348	
4608	0	32360	
4609	0	32356	
4610	0	32316	
4611	0	32284	
4612	0	32348	
4613	0	32394	
4614	0	32428	
4615	0	32460	
4616	0	32490	
4617	0	32524	
4618	0	32500	
4619	0	32504	
4620	0	32512	
4621	0	32416	
4622	0	32324	
4623	0	32268	
4624	0	32208	
4625	0	32220	
4626	0	32264	
4627	0	32288	
4628	0	32304	
4629	0	32356	
4630	0	32376	
4631	0	32400	
4632	0	32400	
4633	0	32424	
4634	0	32540	
4635	0	32626	
4636	0	32688	
4637	0	32804	
4638	0	32932	
4639	0	33000	
4640	0	32936	
4641	0	32876	
4642	0	32832	
4643	0	32776	
4644	0	32664	
4645	0	32584	
4646	0	32674	
4647	0	32856	
4648	0	33060	
4649	0	33196	
4650	0	33200	
4651	0	33120	
4652	0	33024	
4653	0	32900	
4654	0	32840	
4655	0	32830	
4656	0	32816	
4657	0	32816	
4658	0	32872	
4659	0	32976	
4660	0	33034	
4661	0	33066	
4662	0	33156	
4663	0	33212	
4664	0	33304	
4665	0	33420	
4666	0	33560	
4667	0	33680	
4668	0	33732	
4669	0	33716	
4670	0	33660	
4671	0	33624	
4672	0	33632	
4673	0	33644	
4674	0	33648	
4675	0	33652	
4676	0	33616	
4677	0	33496	
4678	0	33328	
4679	0	33114	
4680	0	32826	
4681	0	32556	
4682	0	32372	
4683	0	32256	
4684	0	32208	
4685	0	32200	
4686	0	32252	
4687	0	32340	
4688	0	32414	
4689	0	32448	
4690	0	32420	
4691	0	32448	
4692	0	32516	
4693	0	32524	
4694	0	32480	
4695	0	32472	
4696	0	32476	
4697	0	32532	
4698	0	32564	
4699	0	32644	
4700	0	32684	
4701	0	32728	
4702	0	32776	
4703	0	32808	
4704	0	32856	
4705	0	32854	
4706	0	32784	
4707	0	32768	
4708	0	32712	
4709	0	32704	
4710	0	32764	
4711	0	32852	
4712	0	32956	
4713	0	33069	
4714	0	33176	
4715	0	33280	
4716	0	33288	
4717	0	33344	
4718	0	33338	
4719	0	33264	
4720	0	33208	
4721	0	33180	
4722	0	33184	
4723	0	33196	
4724	0	33116	
4725	0	33052	
4726	0	32986	
4727	0	32904	
4728	0	32744	
4729	0	32536	
4730	0	32388	
4731	0	32432	
4732	0	32656	
4733	0	33120	
4734	0	33768	
4735	0	34492	
4736	0	35256	
4737	0	36068	
4738	0	36922	
4739	0	37832	
4740	0	38792	
4741	0	39860	
4742	0	41160	
4743	0	42680	
4744	0	44436	
4745	0	46436	
4746	0	48548	
4747	0	50732	
4748	0	52980	
4749	0	55460	
4750	0	58272	
4751	0	61200	
4752	0	63392	
4753	0	64560	
4754	0	65112	
4755	0	65388	
4756	0	65472	
4757	0	65452	
4758	0	65388	
4759	0	65296	
4760	0	65192	
4761	0	65064	
4762	0	64944	
4763	0	64816	
4764	0	64680	
4765	0	64556	
4766	0	64420	
4767	0	59504	
4768	0	54056	
4769	0	48492	
4770	0	43260	
4771	0	38768	
4772	0	35296	
4773	0	32788	
4774	0	30972	
4775	0	29660	
4776	0	28722	
4777	0	28040	
4778	0	27516	
4779	0	27120	
4780	0	26852	
4781	0	26578	
4782	0	26260	
4783	0	25956	
4784	0	25680	
4785	0	25408	
4786	0	25080	
4787	0	24876	
4788	0	24924	
4789	0	25096	
4790	0	25352	
4791	0	25642	
4792	0	26032	
4793	0	26496	
4794	0	26860	
4795	0	27124	
4796	0	27416	
4797	0	27696	
4798	0	27948	
4799	0	28244	
4800	0	28500	
4801	0	28714	
4802	0	28912	
4803	0	29148	
4804	0	29380	
4805	0	29476	
4806	0	29524	
4807	0	29600	
4808	0	29646	
4809	0	29644	
4810	0	29634	
4811	0	29608	
4812	0	29598	
4813	0	29612	
4814	0	29620	
4815	0	29628	
4816	0	29632	
4817	0	29664	
4818	0	29720	
4819	0	29790	
4820	0	29784	
4821	0	29792	
4822	0	29845	
4823	0	29864	
4824	0	29856	
4825	0	29896	
4826	0	29968	
4827	0	29992	
4828	0	29986	
4829	0	29996	
4830	0	30016	
4831	0	30014	
4832	0	30048	
4833	0	30092	
4834	0	30144	
4835	0	30116	
4836	0	30172	
4837	0	30240	
4838	0	30340	
4839	0	30396	
4840	0	30428	
4841	0	30452	
4842	0	30468	
4843	0	30440	
4844	0	30392	
4845	0	30424	
4846	0	30496	
4847	0	30592	
4848	0	30644	
4849	0	30644	
4850	0	30696	
4851	0	30780	
4852	0	30776	
4853	0	30778	
4854	0	30816	
4855	0	30908	
4856	0	31028	
4857	0	31044	
4858	0	31048	
4859	0	31092	
4860	0	31196	
4861	0	31308	
4862	0	31320	
4863	0	31312	
4864	0	31308	
4865	0	31368	
4866	0	31422	
4867	0	31448	
4868	0	31504	
4869	0	31580	
4870	0	31672	
4871	0	31756	
4872	0	31804	
4873	0	31788	
4874	0	31776	
4875	0	31744	
4876	0	31708	
4877	0	31728	
4878	0	31792	
4879	0	31864	
4880	0	31936	
4881	0	31996	
4882	0	31992	
4883	0	31954	
4884	0	31896	
4885	0	31896	
4886	0	31966	
4887	0	32044	
4888	0	32140	
4889	0	32212	
4890	0	32248	
4891	0	32344	
4892	0	32460	
4893	0	32544	
4894	0	32560	
4895	0	32544	
4896	0	32536	
4897	0	32528	
4898	0	32584	
4899	0	32628	
4900	0	32708	
4901	0	32784	
4902	0	32744	
4903	0	32696	
4904	0	32736	
4905	0	32768	
4906	0	32776	
4907	0	32784	
4908	0	32804	
4909	0	32862	
4910	0	32954	
4911	0	32986	
4912	0	33016	
4913	0	33064	
4914	0	33066	
4915	0	33080	
4916	0	33116	
4917	0	33152	
4918	0	33184	
4919	0	33228	
4920	0	33304	
4921	0	33352	
4922	0	33396	
4923	0	33360	
4924	0	33292	
4925	0	33244	
4926	0	33310	
4927	0	33420	
4928	0	33504	
4929	0	33568	
4930	0	33612	
4931	0	33692	
4932	0	33816	
4933	0	33914	
4934	0	33956	
4935	0	33964	
4936	0	33994	
4937	0	34012	
4938	0	34028	
4939	0	34064	
4940	0	34054	
4941	0	34080	
4942	0	34080	
4943	0	34100	
4944	0	34144	
4945	0	34220	
4946	0	34288	
4947	0	34328	
4948	0	34400	
4949	0	34500	
4950	0	34552	
4951	0	34572	
4952	0	34668	
4953	0	34700	
4954	0	34608	
4955	0	34592	
4956	0	34612	
4957	0	34656	
4958	0	34684	
4959	0	34700	
4960	0	34752	
4961	0	34824	
4962	0	34888	
4963	0	34938	
4964	0	34994	
4965	0	35064	
4966	0	35116	
4967	0	35164	
4968	0	35194	
4969	0	35260	
4970	0	35358	
4971	0	35404	
4972	0	35436	
4973	0	35488	
4974	0	35520	
4975	0	35524	
4976	0	35548	
4977	0	35612	
4978	0	35580	
4979	0	35512	
4980	0	35524	
4981	0	35552	
4982	0	35616	
4983	0	35704	
4984	0	35824	
4985	0	35908	
4986	0	35968	
4987	0	36100	
4988	0	36208	
4989	0	36268	
4990	0	36324	
4991	0	36352	
4992	0	36408	
4993	0	36468	
4994	0	36538	
4995	0	36572	
4996	0	36588	
4997	0	36664	
4998	0	36696	
4999	0	36712	
5000	0	36692	
5001	0	36684	
5002	0	36728	
5003	0	36796	
5004	0	36816	
5005	0	36856	
5006	0	36848	
5007	0	36824	
5008	0	36824	
5009	0	36948	
5010	0	37024	
5011	0	37052	
5012	0	37036	
5013	0	37020	
5014	0	37020	
5015	0	37056	
5016	0	37108	
5017	0	37152	
5018	0	37204	
5019	0	37216	
5020	0	37116	
5021	0	36988	
5022	0	36922	
5023	0	36952	
5024	0	37000	
5025	0	36980	
5026	0	36916	
5027	0	36784	
5028	0	36692	
5029	0	36632	
5030	0	36528	
5031	0	36400	
5032	0	36266	
5033	0	36140	
5034	0	35988	
5035	0	35816	
5036	0	35616	
5037	0	35420	
5038	0	35272	
5039	0	35032	
5040	0	34760	
5041	0	34552	
5042	0	34376	
5043	0	34236	
5044	0	34072	
5045	0	33900	
5046	0	33720	
5047	0	33568	
5048	0	33376	
5049	0	33132	
5050	0	33008	
5051	0	32932	
5052	0	32800	
5053	0	32568	
5054	0	32360	
5055	0	32184	
5056	0	31952	
5057	0	31786	
5058	0	31540	
5059	0	31296	
5060	0	31120	
5061	0	30944	
5062	0	30784	
5063	0	30676	
5064	0	30516	
5065	0	30360	
5066	0	30208	
5067	0	30112	
5068	0	30008	
5069	0	29868	
5070	0	29766	
5071	0	29684	
5072	0	29588	
5073	0	29448	
5074	0	29316	
5075	0	29232	
5076	0	29176	
5077	0	29116	
5078	0	29068	
5079	0	29014	
5080	0	28968	
5081	0	28884	
5082	0	28842	
5083	0	28816	
5084	0	28736	
5085	0	28736	
5086	0	28748	
5087	0	28772	
5088	0	28826	
5089	0	28860	
5090	0	28840	
5091	0	28772	
5092	0	28692	
5093	0	28620	
5094	0	28582	
5095	0	28562	
5096	0	28604	
5097	0	28564	
5098	0	28520	
5099	0	28532	
5100	0	28604	
5101	0	28660	
5102	0	28656	
5103	0	28632	
5104	0	28616	
5105	0	28660	
5106	0	28648	
5107	0	28644	
5108	0	28668	
5109	0	28698	
5110	0	28732	
5111	0	28780	
5112	0	28842	
5113	0	28920	
5114	0	29024	
5115	0	29072	
5116	0	29040	
5117	0	28996	
5118	0	29000	
5119	0	28984	
5120	0	29012	
5121	0	29032	
5122	0	29096	
5123	0	29132	
5124	0	29200	
5125	0	29212	
5126	0	29248	
5127	0	29316	
5128	0	29400	
5129	0	29412	
5130	0	29460	
5131	0	29528	
5132	0	29556	
5133	0	29572	
5134	0	29586	
5135	0	29628	
5136	0	29668	
5137	0	29664	
5138	0	29600	
5139	0	29576	
5140	0	29600	
5141	0	29668	
5142	0	29714	
5143	0	29748	
5144	0	29792	
5145	0	29802	
5146	0	29856	
5147	0	29918	
5148	0	29948	
5149	0	29988	
5150	0	30000	
5151	0	29984	
5152	0	29972	
5153	0	30012	
5154	0	30048	
5155	0	30092	
5156	0	30068	
5157	0	30046	
5158	0	30024	
5159	0	30024	
5160	0	30070	
5161	0	30144	
5162	0	30198	
5163	0	30236	
5164	0	30300	
5165	0	30340	
5166	0	30336	
5167	0	30308	
5168	0	30312	
5169	0	30324	
5170	0	30356	
5171	0	30360	
5172	0	30332	
5173	0	30368	
5174	0	30400	
5175	0	30412	
5176	0	30424	
5177	0	30432	
5178	0	30456	
5179	0	30476	
5180	0	30436	
5181	0	30448	
5182	0	30488	
5183	0	30448	
5184	0	30492	
5185	0	30484	
5186	0	30504	
5187	0	30540	
5188	0	30560	
5189	0	30530	
5190	0	30528	
5191	0	30546	
5192	0	30528	
5193	0	30540	
5194	0	30560	
5195	0	30612	
5196	0	30592	
5197	0	30548	
5198	0	30484	
5199	0	30512	
5200	0	30528	
5201	0	30528	
5202	0	30556	
5203	0	30590	
5204	0	30628	
5205	0	30712	
5206	0	30736	
5207	0	30766	
5208	0	30764	
5209	0	30764	
5210	0	30736	
5211	0	30708	
5212	0	30700	
5213	0	30664	
5214	0	30652	
5215	0	30666	
5216	0	30620	
5217	0	30560	
5218	0	30540	
5219	0	30528	
5220	0	30524	
5221	0	30512	
5222	0	30528	
5223	0	30556	
5224	0	30588	
5225	0	30680	
5226	0	30748	
5227	0	30778	
5228	0	30816	
5229	0	30836	
5230	0	30840	
5231	0	30912	
5232	0	30972	
5233	0	30964	
5234	0	30996	
5235	0	30988	
5236	0	30972	
5237	0	30912	
5238	0	30884	
5239	0	30856	
5240	0	30840	
5241	0	30854	
5242	0	30844	
5243	0	30868	
5244	0	30920	
5245	0	30964	
5246	0	30984	
5247	0	30976	
5248	0	30980	
5249	0	31004	
5250	0	31044	
5251	0	31060	
5252	0	31040	
5253	0	31024	
5254	0	31040	
5255	0	31026	
5256	0	31008	
5257	0	31060	
5258	0	31072	
5259	0	31084	
5260	0	31066	
5261	0	31008	
5262	0	30984	
5263	0	30920	
5264	0	30870	
5265	0	30844	
5266	0	30852	
5267	0	30900	
5268	0	30992	
5269	0	31080	
5270	0	31088	
5271	0	31104	
5272	0	31116	
5273	0	31132	
5274	0	31200	
5275	0	31232	
5276	0	31228	
5277	0	31276	
5278	0	31266	
5279	0	31180	
5280	0	31088	
5281	0	31032	
5282	0	31028	
5283	0	31060	
5284	0	31112	
5285	0	31198	
5286	0	31320	
5287	0	31392	
5288	0	31388	
5289	0	31432	
5290	0	31492	
5291	0	31484	
5292	0	31532	
5293	0	31520	
5294	0	31548	
5295	0	31520	
5296	0	31410	
5297	0	31376	
5298	0	31344	
5299	0	31272	
5300	0	31228	
5301	0	31208	
5302	0	31210	
5303	0	31272	
5304	0	31332	
5305	0	31384	
5306	0	31468	
5307	0	31488	
5308	0	31524	
5309	0	31608	
5310	0	31652	
5311	0	31632	
5312	0	31706	
5313	0	31712	
5314	0	31656	
5315	0	31664	
5316	0	31632	
5317	0	31604	
5318	0	31628	
5319	0	31722	
5320	0	31752	
5321	0	31716	
5322	0	31676	
5323	0	31674	
5324	0	31708	
5325	0	31744	
5326	0	31780	
5327	0	31892	
5328	0	31900	
5329	0	31820	
5330	0	31832	
5331	0	31840	
5332	0	31820	
5333	0	31790	
5334	0	31776	
5335	0	31812	
5336	0	31840	
5337	0	31848	
5338	0	31852	
5339	0	31856	
5340	0	31856	
5341	0	31908	
5342	0	32000	
5343	0	32044	
5344	0	32008	
5345	0	31968	
5346	0	31960	
5347	0	31944	
5348	0	31912	
5349	0	31892	
5350	0	31902	
5351	0	31932	
5352	0	31968	
5353	0	31992	
5354	0	31984	
5355	0	31972	
5356	0	31944	
5357	0	31920	
5358	0	31906	
5359	0	31888	
5360	0	31876	
5361	0	31932	
5362	0	31980	
5363	0	31996	
5364	0	32048	
5365	0	32180	
5366	0	32268	
5367	0	32280	
5368	0	32246	
5369	0	32236	
5370	0	32260	
5371	0	32256	
5372	0	32256	
5373	0	32258	
5374	0	32266	
5375	0	32290	
5376	0	32284	
5377	0	32192	
5378	0	32024	
5379	0	31976	
5380	0	32024	
5381	0	32068	
5382	0	32154	
5383	0	32220	
5384	0	32248	
5385	0	32280	
5386	0	32296	
5387	0	32268	
5388	0	32216	
5389	0	32152	
5390	0	32172	
5391	0	32240	
5392	0	32312	
5393	0	32328	
5394	0	32328	
5395	0	32392	
5396	0	32484	
5397	0	32516	
5398	0	32536	
5399	0	32556	
5400	0	32520	
5401	0	32432	
5402	0	32344	
5403	0	32272	
5404	0	32258	
5405	0	32282	
5406	0	32316	
5407	0	32384	
5408	0	32468	
5409	0	32488	
5410	0	32464	
5411	0	32448	
5412	0	32416	
5413	0	32340	
5414	0	32228	
5415	0	32172	
5416	0	32190	
5417	0	32220	
5418	0	32308	
5419	0	32372	
5420	0	32416	
5421	0	32540	
5422	0	32668	
5423	0	32708	
5424	0	32728	
5425	0	32720	
5426	0	32800	
5427	0	32892	
5428	0	32904	
5429	0	32928	
5430	0	32972	
5431	0	32988	
5432	0	33040	
5433	0	33044	
5434	0	32958	
5435	0	32860	
5436	0	32772	
5437	0	32698	
5438	0	32696	
5439	0	32688	
5440	0	32720	
5441	0	32884	
5442	0	33072	
5443	0	33160	
5444	0	33180	
5445	0	33092	
5446	0	32892	
5447	0	32732	
5448	0	32656	
5449	0	32620	
5450	0	32592	
5451	0	32572	
5452	0	32560	
5453	0	32640	
5454	0	32738	
5455	0	32848	
5456	0	32928	
5457	0	33060	
5458	0	33184	
5459	0	33288	
5460	0	33388	
5461	0	33476	
5462	0	33524	
5463	0	33540	
5464	0	33564	
5465	0	33608	
5466	0	33660	
5467	0	33680	
5468	0	33692	
5469	0	33684	
5470	0	33688	
5471	0	33624	
5472	0	33488	
5473	0	33376	
5474	0	33168	
5475	0	32836	
5476	0	32488	
5477	0	32320	
5478	0	32292	
5479	0	32280	
5480	0	32324	
5481	0	32320	
5482	0	32320	
5483	0	32364	
5484	0	32436	
5485	0	32440	
5486	0	32432	
5487	0	32484	
5488	0	32536	
5489	0	32592	
5490	0	32600	
5491	0	32564	
5492	0	32548	
5493	0	32564	
5494	0	32636	
5495	0	32684	
5496	0	32672	
5497	0	32632	
5498	0	32656	
5499	0	32728	
5500	0	32826	
5501	0	32896	
5502	0	32968	
5503	0	33048	
5504	0	33152	
5505	0	33192	
5506	0	33248	
5507	0	33328	
5508	0	33376	
5509	0	33340	
5510	0	33360	
5511	0	33376	
5512	0	33420	
5513	0	33452	
5514	0	33392	
5515	0	33237	
5516	0	33142	
5517	0	33120	
5518	0	33084	
5519	0	32988	
5520	0	32872	
5521	0	32708	
5522	0	32532	
5523	0	32388	
5524	0	32396	
5525	0	32612	
5526	0	33016	
5527	0	33556	
5528	0	34276	
5529	0	35124	
5530	0	36040	
5531	0	36916	
5532	0	37820	
5533	0	38740	
5534	0	39760	
5535	0	40960	
5536	0	42456	
5537	0	44264	
5538	0	46360	
5539	0	48592	
5540	0	50848	
5541	0	53128	
5542	0	55520	
5543	0	58244	
5544	0	61152	
5545	0	63348	
5546	0	64496	
5547	0	65096	
5548	0	65344	
5549	0	65420	
5550	0	65412	
5551	0	65352	
5552	0	65256	
5553	0	65140	
5554	0	65020	
5555	0	64896	
5556	0	64772	
5557	0	64632	
5558	0	64504	
5559	0	64380	
5560	0	60268	
5561	0	54756	
5562	0	49232	
5563	0	43928	
5564	0	39340	
5565	0	35684	
5566	0	33024	
5567	0	31168	
5568	0	29788	
5569	0	28776	
5570	0	28076	
5571	0	27506	
5572	0	27088	
5573	0	26844	
5574	0	26620	
5575	0	26320	
5576	0	25984	
5577	0	25664	
5578	0	25348	
5579	0	25018	
5580	0	24852	
5581	0	24860	
5582	0	24932	
5583	0	25144	
5584	0	25446	
5585	0	25872	
5586	0	26338	
5587	0	26740	
5588	0	27015	
5589	0	27284	
5590	0	27572	
5591	0	27848	
5592	0	28128	
5593	0	28420	
5594	0	28720	
5595	0	28988	
5596	0	29248	
5597	0	29424	
5598	0	29508	
5599	0	29540	
5600	0	29570	
5601	0	29548	
5602	0	29542	
5603	0	29550	
5604	0	29584	
5605	0	29616	
5606	0	29652	
5607	0	29676	
5608	0	29678	
5609	0	29712	
5610	0	29744	
5611	0	29732	
5612	0	29688	
5613	0	29668	
5614	0	29664	
5615	0	29682	
5616	0	29680	
5617	0	29672	
5618	0	29732	
5619	0	29842	
5620	0	29908	
5621	0	29956	
5622	0	30016	
5623	0	30028	
5624	0	30016	
5625	0	30016	
5626	0	30050	
5627	0	30100	
5628	0	30180	
5629	0	30220	
5630	0	30248	
5631	0	30316	
5632	0	30308	
5633	0	30292	
5634	0	30312	
5635	0	30376	
5636	0	30408	
5637	0	30444	
5638	0	30480	
5639	0	30528	
5640	0	30596	
5641	0	30600	
5642	0	30556	
5643	0	30584	
5644	0	30628	
5645	0	30692	
5646	0	30748	
5647	0	30824	
5648	0	30884	
5649	0	30976	
5650	0	31114	
5651	0	31202	
5652	0	31240	
5653	0	31268	
5654	0	31276	
5655	0	31280	
5656	0	31264	
5657	0	31240	
5658	0	31212	
5659	0	31240	
5660	0	31324	
5661	0	31432	
5662	0	31506	
5663	0	31540	
5664	0	31552	
5665	0	31616	
5666	0	31716	
5667	0	31810	
5668	0	31868	
5669	0	31850	
5670	0	31836	
5671	0	31842	
5672	0	31892	
5673	0	31940	
5674	0	31992	
5675	0	32032	
5676	0	32112	
5677	0	32192	
5678	0	32264	
5679	0	32306	
5680	0	32328	
5681	0	32368	
5682	0	32332	
5683	0	32322	
5684	0	32326	
5685	0	32352	
5686	0	32378	
5687	0	32448	
5688	0	32496	
5689	0	32572	
5690	0	32628	
5691	0	32636	
5692	0	32620	
5693	0	32640	
5694	0	32728	
5695	0	32836	
5696	0	32880	
5697	0	32936	
5698	0	33004	
5699	0	33028	
5700	0	33064	
5701	0	33112	
5702	0	33132	
5703	0	33088	
5704	0	33004	
5705	0	33024	
5706	0	33020	
5707	0	32980	
5708	0	32996	
5709	0	33096	
5710	0	33172	
5711	0	33220	
5712	0	33300	
5713	0	33368	
5714	0	33368	
5715	0	33332	
5716	0	33348	
5717	0	33384	
5718	0	33396	
5719	0	33476	
5720	0	33560	
5721	0	33604	
5722	0	33620	
5723	0	33676	
5724	0	33692	
5725	0	33704	
5726	0	33760	
5727	0	33844	
5728	0	33896	
5729	0	33928	
5730	0	33980	
5731	0	33984	
5732	0	33968	
5733	0	33948	
5734	0	33960	
5735	0	34008	
5736	0	34024	
5737	0	34056	
5738	0	34096	
5739	0	34148	
5740	0	34248	
5741	0	34348	
5742	0	34388	
5743	0	34384	
5744	0	34372	
5745	0	34402	
5746	0	34466	
5747	0	34528	
5748	0	34600	
5749	0	34692	
5750	0	34686	
5751	0	34664	
5752	0	34692	
5753	0	34728	
5754	0	34800	
5755	0	34836	
5756	0	34848	
5757	0	34904	
5758	0	34904	
5759	0	34928	
5760	0	35012	
5761	0	35136	
5762	0	35268	
5763	0	35336	
5764	0	35364	
5765	0	35472	
5766	0	35532	
5767	0	35520	
5768	0	35500	
5769	0	35520	
5770	0	35556	
5771	0	35580	
5772	0	35582	
5773	0	35632	
5774	0	35674	
5775	0	35740	
5776	0	35776	
5777	0	35768	
5778	0	35824	
5779	0	35920	
5780	0	36016	
5781	0	36128	
5782	0	36244	
5783	0	36250	
5784	0	36308	
5785	0	36396	
5786	0	36440	
5787	0	36514	
5788	0	36572	
5789	0	36612	
5790	0	36644	
5791	0	36684	
5792	0	36752	
5793	0	36812	
5794	0	36800	
5795	0	36780	
5796	0	36736	
5797	0	36736	
5798	0	36776	
5799	0	36820	
5800	0	36848	
5801	0	36884	
5802	0	36948	
5803	0	37004	
5804	0	37004	
5805	0	36960	
5806	0	36924	
5807	0	36880	
5808	0	36912	
5809	0	36968	
5810	0	37028	
5811	0	37080	
5812	0	37098	
5813	0	37104	
5814	0	37136	
5815	0	37120	
5816	0	37068	
5817	0	37036	
5818	0	36928	
5819	0	36776	
5820	0	36652	
5821	0	36538	
5822	0	36504	
5823	0	36448	
5824	0	36312	
5825	0	36196	
5826	0	36064	
5827	0	35920	
5828	0	35732	
5829	0	35484	
5830	0	35312	
5831	0	35204	
5832	0	35020	
5833	0	34864	
5834	0	34700	
5835	0	34530	
5836	0	34328	
5837	0	34108	
5838	0	33936	
5839	0	33792	
5840	0	33624	
5841	0	33456	
5842	0	33268	
5843	0	33092	
5844	0	32916	
5845	0	32688	
5846	0	32466	
5847	0	32304	
5848	0	32136	
5849	0	31968	
5850	0	31788	
5851	0	31604	
5852	0	31408	
5853	0	31264	
5854	0	31144	
5855	0	30964	
5856	0	30772	
5857	0	30576	
5858	0	30360	
5859	0	30144	
5860	0	29932	
5861	0	29788	
5862	0	29688	
5863	0	29576	
5864	0	29536	
5865	0	29464	
5866	0	29364	
5867	0	29248	
5868	0	29148	
5869	0	29132	
5870	0	29152	
5871	0	29136	
5872	0	29068	
5873	0	29024	
5874	0	28972	
5875	0	28856	
5876	0	28786	
5877	0	28752	
5878	0	28728	
5879	0	28680	
5880	0	28656	
5881	0	28616	
5882	0	28580	
5883	0	28592	
5884	0	28652	
5885	0	28688	
5886	0	28680	
5887	0	28680	
5888	0	28728	
5889	0	28724	
5890	0	28708	
5891	0	28732	
5892	0	28716	
5893	0	28676	
5894	0	28656	
5895	0	28608	
5896	0	28608	
5897	0	28642	
5898	0	28602	
5899	0	28560	
5900	0	28532	
5901	0	28516	
5902	0	28516	
5903	0	28592	
5904	0	28648	
5905	0	28644	
5906	0	28604	
5907	0	28668	
5908	0	28804	
5909	0	28908	
5910	0	28948	
5911	0	28976	
5912	0	29080	
5913	0	29184	
5914	0	29198	
5915	0	29144	
5916	0	29082	
5917	0	29076	
5918	0	29096	
5919	0	29132	
5920	0	29124	
5921	0	29232	
5922	0	29304	
5923	0	29332	
5924	0	29352	
5925	0	29360	
5926	0	29416	
5927	0	29456	
5928	0	29480	
5929	0	29466	
5930	0	29464	
5931	0	29512	
5932	0	29584	
5933	0	29624	
5934	0	29672	
5935	0	29714	
5936	0	29724	
5937	0	29744	
5938	0	29780	
5939	0	29778	
5940	0	29744	
5941	0	29784	
5942	0	29814	
5943	0	29792	
5944	0	29792	
5945	0	29848	
5946	0	29880	
5947	0	30000	
5948	0	30088	
5949	0	30096	
5950	0	30042	
5951	0	30040	
5952	0	30068	
5953	0	30144	
5954	0	30202	
5955	0	30204	
5956	0	30172	
5957	0	30180	
5958	0	30200	
5959	0	30224	
5960	0	30240	
5961	0	30276	
5962	0	30320	
5963	0	30308	
5964	0	30254	
5965	0	30244	
5966	0	30264	
5967	0	30332	
5968	0	30376	
5969	0	30384	
5970	0	30416	
5971	0	30476	
5972	0	30512	
5973	0	30504	
5974	0	30456	
5975	0	30476	
5976	0	30548	
5977	0	30544	
5978	0	30512	
5979	0	30552	
5980	0	30592	
5981	0	30644	
5982	0	30652	
5983	0	30596	
5984	0	30524	
5985	0	30508	
5986	0	30536	
5987	0	30560	
5988	0	30596	
5989	0	30596	
5990	0	30616	
5991	0	30684	
5992	0	30768	
5993	0	30812	
5994	0	30812	
5995	0	30772	
5996	0	30776	
5997	0	30824	
5998	0	30846	
5999	0	30784	
6000	0	30752	
6001	0	30784	
6002	0	30848	
6003	0	30840	
6004	0	30808	
6005	0	30776	
6006	0	30688	
6007	0	30608	
6008	0	30612	
6009	0	30624	
6010	0	30648	
6011	0	30638	
6012	0	30604	
6013	0	30584	
6014	0	30576	
6015	0	30568	
6016	0	30572	
6017	0	30612	
6018	0	30688	
6019	0	30720	
6020	0	30700	
6021	0	30740	
6022	0	30788	
6023	0	30768	
6024	0	30752	
6025	0	30724	
6026	0	30704	
6027	0	30804	
6028	0	30904	
6029	0	30952	
6030	0	31000	
6031	0	30976	
6032	0	30976	
6033	0	30972	
6034	0	30966	
6035	0	30944	
6036	0	30912	
6037	0	30872	
6038	0	30822	
6039	0	30776	
6040	0	30752	
6041	0	30772	
6042	0	30816	
6043	0	30808	
6044	0	30740	
6045	0	30708	
6046	0	30736	
6047	0	30804	
6048	0	30904	
6049	0	30936	
6050	0	30976	
6051	0	31024	
6052	0	31040	
6053	0	31052	
6054	0	31000	
6055	0	30952	
6056	0	31016	
6057	0	31112	
6058	0	31140	
6059	0	31084	
6060	0	31048	
6061	0	31028	
6062	0	31004	
6063	0	30960	
6064	0	30952	
6065	0	30988	
6066	0	31060	
6067	0	31130	
6068	0	31200	
6069	0	31228	
6070	0	31212	
6071	0	31184	
6072	0	31176	
6073	0	31184	
6074	0	31216	
6075	0	31292	
6076	0	31320	
6077	0	31328	
6078	0	31320	
6079	0	31312	
6080	0	31244	
6081	0	31234	
6082	0	31280	
6083	0	31356	
6084	0	31384	
6085	0	31376	
6086	0	31360	
6087	0	31312	
6088	0	31296	
6089	0	31304	
6090	0	31368	
6091	0	31418	
6092	0	31416	
6093	0	31416	
6094	0	31384	
6095	0	31388	
6096	0	31404	
6097	0	31440	
6098	0	31420	
6099	0	31392	
6100	0	31408	
6101	0	31448	
6102	0	31452	
6103	0	31472	
6104	0	31532	
6105	0	31560	
6106	0	31612	
6107	0	31604	
6108	0	31624	
6109	0	31592	
6110	0	31576	
6111	0	31600	
6112	0	31604	
6113	0	31618	
6114	0	31588	
6115	0	31608	
6116	0	31556	
6117	0	31520	
6118	0	31524	
6119	0	31568	
6120	0	31640	
6121	0	31720	
6122	0	31748	
6123	0	31756	
6124	0	31736	
6125	0	31740	
6126	0	31770	
6127	0	31706	
6128	0	31700	
6129	0	31720	
6130	0	31760	
6131	0	31764	
6132	0	31772	
6133	0	31792	
6134	0	31768	
6135	0	31696	
6136	0	31720	
6137	0	31760	
6138	0	31780	
6139	0	31804	
6140	0	31788	
6141	0	31752	
6142	0	31748	
6143	0	31776	
6144	0	31812	
6145	0	31876	
6146	0	31888	
6147	0	31868	
6148	0	31880	
6149	0	31856	
6150	0	31916	
6151	0	31998	
6152	0	32080	
6153	0	32112	
6154	0	32108	
6155	0	32160	
6156	0	32136	
6157	0	32032	
6158	0	31972	
6159	0	31976	
6160	0	32008	
6161	0	32058	
6162	0	32088	
6163	0	32136	
6164	0	32208	
6165	0	32272	
6166	0	32296	
6167	0	32296	
6168	0	32344	
6169	0	32360	
6170	0	32356	
6171	0	32330	
6172	0	32248	
6173	0	32216	
6174	0	32220	
6175	0	32264	
6176	0	32304	
6177	0	32344	
6178	0	32416	
6179	0	32432	
6180	0	32436	
6181	0	32400	
6182	0	32356	
6183	0	32356	
6184	0	32300	
6185	0	32236	
6186	0	32196	
6187	0	32172	
6188	0	32160	
6189	0	32172	
6190	0	32148	
6191	0	32176	
6192	0	32250	
6193	0	32320	
6194	0	32396	
6195	0	32440	
6196	0	32444	
6197	0	32380	
6198	0	32340	
6199	0	32332	
6200	0	32224	
6201	0	32144	
6202	0	32152	
6203	0	32148	
6204	0	32136	
6205	0	32088	
6206	0	32024	
6207	0	31992	
6208	0	31952	
6209	0	31860	
6210	0	31856	
6211	0	32000	
6212	0	32136	
6213	0	32228	
6214	0	32316	
6215	0	32384	
6216	0	32424	
6217	0	32444	
6218	0	32556	
6219	0	32700	
6220	0	32776	
6221	0	32848	
6222	0	32916	
6223	0	32912	
6224	0	32904	
6225	0	32952	
6226	0	32992	
6227	0	33144	
6228	0	33324	
6229	0	33520	
6230	0	33540	
6231	0	33368	
6232	0	33210	
6233	0	33096	
6234	0	33036	
6235	0	33008	
6236	0	33024	
6237	0	32980	
6238	0	32988	
6239	0	33010	
6240	0	33036	
6241	0	33108	
6242	0	33232	
6243	0	33352	
6244	0	33420	
6245	0	33472	
6246	0	33572	
6247	0	33684	
6248	0	33700	
6249	0	33676	
6250	0	33672	
6251	0	33656	
6252	0	33656	
6253	0	33690	
6254	0	33752	
6255	0	33768	
6256	0	33776	
6257	0	33704	
6258	0	33584	
6259	0	33484	
6260	0	33312	
6261	0	33028	
6262	0	32736	
6263	0	32548	
6264	0	32494	
6265	0	32480	
6266	0	32442	
6267	0	32408	
6268	0	32444	
6269	0	32488	
6270	0	32538	
6271	0	32636	
6272	0	32696	
6273	0	32700	
6274	0	32660	
6275	0	32636	
6276	0	32648	
6277	0	32668	
6278	0	32660	
6279	0	32660	
6280	0	32692	
6281	0	32744	
6282	0	32828	
6283	0	32904	
6284	0	32968	
6285	0	33034	
6286	0	33088	
6287	0	33060	
6288	0	33016	
6289	0	33024	
6290	0	33034	
6291	0	33072	
6292	0	33104	
6293	0	33122	
6294	0	33208	
6295	0	33248	
6296	0	33249	
6297	0	33276	
6298	0	33344	
6299	0	33408	
6300	0	33392	
6301	0	33376	
6302	0	33384	
6303	0	33344	
6304	0	33232	
6305	0	33088	
6306	0	33016	
6307	0	32952	
6308	0	32768	
6309	0	32516	
6310	0	32332	
6311	0	32300	
6312	0	32422	
6313	0	32800	
6314	0	33292	
6315	0	33892	
6316	0	34608	
6317	0	35420	
6318	0	36364	
6319	0	37352	
6320	0	38320	
6321	0	39428	
6322	0	40754	
6323	0	42240	
6324	0	43888	
6325	0	45760	
6326	0	47920	
6327	0	50160	
6328	0	52388	
6329	0	54728	
6330	0	57416	
6331	0	60304	
6332	0	62844	
6333	0	64228	
6334	0	64952	
6335	0	65280	
6336	0	65404	
6337	0	65412	
6338	0	65356	
6339	0	65268	
6340	0	65168	
6341	0	65044	
6342	0	64920	
6343	0	64800	
6344	0	64668	
6345	0	64544	
6346	0	64400	
6347	0	62252	
6348	0	56652	
6349	0	51172	
6350	0	45752	
6351	0	40884	
6352	0	36896	
6353	0	33932	
6354	0	31852	
6355	0	30281	
6356	0	29076	
6357	0	28224	
6358	0	27564	
6359	0	27108	
6360	0	26748	
6361	0	26450	
6362	0	26168	
6363	0	25908	
6364	0	25632	
6365	0	25408	
6366	0	25156	
6367	0	24988	
6368	0	24968	
6369	0	25066	
6370	0	25284	
6371	0	25564	
6372	0	25888	
6373	0	26316	
6374	0	26716	
6375	0	26976	
6376	0	27212	
6377	0	27460	
6378	0	27736	
6379	0	28016	
6380	0	28312	
6381	0	28544	
6382	0	28768	
6383	0	28992	
6384	0	29228	
6385	0	29448	
6386	0	29600	
6387	0	29690	
6388	0	29708	
6389	0	29728	
6390	0	29764	
6391	0	29746	
6392	0	29740	
6393	0	29754	
6394	0	29704	
6395	0	29678	
6396	0	29668	
6397	0	29696	
6398	0	29720	
6399	0	29760	
6400	0	29800	
6401	0	29786	
6402	0	29798	
6403	0	29792	
6404	0	29796	
6405	0	29796	
6406	0	29844	
6407	0	29908	
6408	0	30012	
6409	0	30096	
6410	0	30064	
6411	0	30060	
6412	0	30056	
6413	0	30080	
6414	0	30142	
6415	0	30224	
6416	0	30300	
6417	0	30384	
6418	0	30468	
6419	0	30528	
6420	0	30520	
6421	0	30492	
6422	0	30506	
6423	0	30476	
6424	0	30440	
6425	0	30528	
6426	0	30620	
6427	0	30658	
6428	0	30696	
6429	0	30740	
6430	0	30804	
6431	0	30848	
6432	0	30912	
6433	0	31012	
6434	0	31106	
6435	0	31128	
6436	0	31160	
6437	0	31144	
6438	0	31136	
6439	0	31160	
6440	0	31236	
6441	0	31278	
6442	0	31296	
6443	0	31348	
6444	0	31368	
6445	0	31424	
6446	0	31456	
6447	0	31496	
6448	0	31576	
6449	0	31668	
6450	0	31708	
6451	0	31728	
6452	0	31736	
6453	0	31740	
6454	0	31768	
6455	0	31848	
6456	0	31924	
6457	0	31940	
6458	0	31936	
6459	0	31968	
6460	0	31996	
6461	0	32064	
6462	0	32128	
6463	0	32208	
6464	0	32272	
6465	0	32296	
6466	0	32336	
6467	0	32432	
6468	0	32440	
6469	0	32440	
6470	0	32512	
6471	0	32560	
6472	0	32557	
6473	0	32540	
6474	0	32532	
6475	0	32544	
6476	0	32628	
6477	0	32704	
6478	0	32752	
6479	0	32728	
6480	0	32728	
6481	0	32808	
6482	0	32908	
6483	0	33024	
6484	0	33144	
6485	0	33188	
6486	0	33172	
6487	0	33172	
6488	0	33180	
6489	0	33184	
6490	0	33224	
6491	0	33220	
6492	0	33206	
6493	0	33200	
6494	0	33268	
6495	0	33248	
6496	0	33176	
6497	0	33204	
6498	0	33304	
6499	0	33408	
6500	0	33456	
6501	0	33476	
6502	0	33480	
6503	0	33538	
6504	0	33632	
6505	0	33656	
6506	0	33704	
6507	0	33802	
6508	0	33888	
6509	0	33944	
6510	0	34012	
6511	0	34060	
6512	0	34052	
6513	0	34048	
6514	0	34076	
6515	0	34058	
6516	0	34052	
6517	0	34041	
6518	0	34030	
6519	0	34080	
6520	0	34160	
6521	0	34252	
6522	0	34300	
6523	0	34352	
6524	0	34404	
6525	0	34404	
6526	0	34380	
6527	0	34408	
6528	0	34436	
6529	0	34432	
6530	0	34432	
6531	0	34500	
6532	0	34544	
6533	0	34600	
6534	0	34656	
6535	0	34752	
6536	0	34874	
6537	0	34908	
6538	0	34868	
6539	0	34868	
6540	0	34924	
6541	0	35060	
6542	0	35136	
6543	0	35176	
6544	0	35168	
6545	0	35168	
6546	0	35236	
6547	0	35328	
6548	0	35384	
6549	0	35408	
6550	0	35416	
6551	0	35428	
6552	0	35452	
6553	0	35514	
6554	0	35588	
6555	0	35636	
6556	0	35688	
6557	0	35724	
6558	0	35816	
6559	0	35864	
6560	0	35896	
6561	0	35928	
6562	0	35908	
6563	0	35936	
6564	0	36020	
6565	0	36096	
6566	0	36188	
6567	0	36192	
6568	0	36196	
6569	0	36212	
6570	0	36292	
6571	0	36362	
6572	0	36416	
6573	0	36488	
6574	0	36516	
6575	0	36500	
6576	0	36540	
6577	0	36620	
6578	0	36660	
6579	0	36696	
6580	0	36752	
6581	0	36856	
6582	0	36920	
6583	0	36896	
6584	0	36896	
6585	0	36896	
6586	0	36936	
6587	0	36988	
6588	0	37052	
6589	0	37144	
6590	0	37180	
6591	0	37192	
6592	0	37188	
6593	0	37180	
6594	0	37184	
6595	0	37188	
6596	0	37148	
6597	0	37132	
6598	0	37096	
6599	0	37028	
6600	0	36968	
6601	0	36956	
6602	0	36988	
6603	0	37016	
6604	0	37012	
6605	0	36956	
6606	0	36844	
6607	0	36712	
6608	0	36584	
6609	0	36452	
6610	0	36332	
6611	0	36272	
6612	0	36220	
6613	0	36136	
6614	0	36028	
6615	0	35872	
6616	0	35684	
6617	0	35464	
6618	0	35264	
6619	0	35104	
6620	0	34952	
6621	0	34816	
6622	0	34660	
6623	0	34488	
6624	0	34336	
6625	0	34188	
6626	0	34002	
6627	0	33796	
6628	0	33552	
6629	0	33304	
6630	0	33004	
6631	0	32736	
6632	0	32540	
6633	0	32364	
6634	0	32176	
6635	0	32010	
6636	0	31848	
6637	0	31658	
6638	0	31476	
6639	0	31312	
6640	0	31160	
6641	0	31038	
6642	0	30904	
6643	0	30728	
6644	0	30580	
6645	0	30460	
6646	0	30320	
6647	0	30184	
6648	0	30024	
6649	0	29924	
6650	0	29856	
6651	0	29756	
6652	0	29632	
6653	0	29492	
6654	0	29444	
6655	0	29376	
6656	0	29228	
6657	0	29064	
6658	0	28980	
6659	0	28912	
6660	0	28832	
6661	0	28804	
6662	0	28774	
6663	0	28732	
6664	0	28700	
6665	0	28682	
6666	0	28716	
6667	0	28776	
6668	0	28760	
6669	0	28688	
6670	0	28652	
6671	0	28636	
6672	0	28608	
6673	0	28616	
6674	0	28522	
6675	0	28444	
6676	0	28420	
6677	0	28444	
6678	0	28450	
6679	0	28408	
6680	0	28408	
6681	0	28488	
6682	0	28548	
6683	0	28552	
6684	0	28576	
6685	0	28648	
6686	0	28688	
6687	0	28608	
6688	0	28580	
6689	0	28604	
6690	0	28632	
6691	0	28656	
6692	0	28680	
6693	0	28746	
6694	0	28812	
6695	0	28884	
6696	0	29000	
6697	0	29060	
6698	0	29044	
6699	0	29036	
6700	0	29004	
6701	0	29004	
6702	0	28964	
6703	0	28952	
6704	0	29036	
6705	0	29196	
6706	0	29316	
6707	0	29388	
6708	0	29394	
6709	0	29404	
6710	0	29408	
6711	0	29444	
6712	0	29480	
6713	0	29536	
6714	0	29592	
6715	0	29620	
6716	0	29636	
6717	0	29612	
6718	0	29608	
6719	0	29616	
6720	0	29616	
6721	0	29636	
6722	0	29668	
6723	0	29692	
6724	0	29762	
6725	0	29824	
6726	0	29832	
6727	0	29832	
6728	0	29852	
6729	0	29856	
6730	0	29832	
6731	0	29812	
6732	0	29768	
6733	0	29768	
6734	0	29832	
6735	0	29888	
6736	0	29918	
6737	0	29934	
6738	0	30004	
6739	0	30052	
6740	0	30112	
6741	0	30194	
6742	0	30276	
6743	0	30360	
6744	0	30400	
6745	0	30360	
6746	0	30314	
6747	0	30348	
6748	0	30412	
6749	0	30440	
6750	0	30440	
6751	0	30388	
6752	0	30324	
6753	0	30260	
6754	0	30178	
6755	0	30192	
6756	0	30216	
6757	0	30260	
6758	0	30340	
6759	0	30390	
6760	0	30424	
6761	0	30432	
6762	0	30400	
6763	0	30408	
6764	0	30444	
6765	0	30476	
6766	0	30496	
6767	0	30568	
6768	0	30636	
6769	0	30652	
6770	0	30636	
6771	0	30612	
6772	0	30636	
6773	0	30564	
6774	0	30444	
6775	0	30376	
6776	0	30360	
6777	0	30400	
6778	0	30500	
6779	0	30522	
6780	0	30580	
6781	0	30688	
6782	0	30752	
6783	0	30752	
6784	0	30744	
6785	0	30704	
6786	0	30692	
6787	0	30652	
6788	0	30648	
6789	0	30720	
6790	0	30764	
6791	0	30740	
6792	0	30712	
6793	0	30704	
6794	0	30724	
6795	0	30712	
6796	0	30660	
6797	0	30648	
6798	0	30656	
6799	0	30616	
6800	0	30640	
6801	0	30714	
6802	0	30752	
6803	0	30768	
6804	0	30732	
6805	0	30726	
6806	0	30736	
6807	0	30702	
6808	0	30720	
6809	0	30744	
6810	0	30768	
6811	0	30730	
6812	0	30686	
6813	0	30680	
6814	0	30640	
6815	0	30636	
6816	0	30686	
6817	0	30712	
6818	0	30770	
6819	0	30788	
6820	0	30816	
6821	0	30820	
6822	0	30832	
6823	0	30908	
6824	0	30992	
6825	0	31024	
6826	0	30960	
6827	0	30940	
6828	0	30936	
6829	0	30948	
6830	0	30940	
6831	0	30912	
6832	0	30936	
6833	0	31004	
6834	0	31072	
6835	0	31084	
6836	0	31064	
6837	0	31060	
6838	0	31096	
6839	0	31136	
6840	0	31108	
6841	0	31040	
6842	0	31024	
6843	0	31016	
6844	0	30976	
6845	0	30996	
6846	0	31012	
6847	0	31020	
6848	0	30998	
6849	0	30960	
6850	0	30890	
6851	0	30878	
6852	0	30834	
6853	0	30832	
6854	0	30876	
6855	0	30924	
6856	0	30932	
6857	0	30964	
6858	0	31040	
6859	0	31056	
6860	0	31072	
6861	0	31112	
6862	0	31112	
6863	0	31144	
6864	0	31152	
6865	0	31128	
6866	0	31128	
6867	0	31078	
6868	0	31064	
6869	0	31120	
6870	0	31172	
6871	0	31216	
6872	0	31240	
6873	0	31248	
6874	0	31280	
6875	0	31320	
6876	0	31348	
6877	0	31388	
6878	0	31400	
6879	0	31432	
6880	0	31456	
6881	0	31432	
6882	0	31404	
6883	0	31438	
6884	0	31420	
6885	0	31408	
6886	0	31432	
6887	0	31498	
6888	0	31556	
6889	0	31592	
6890	0	31624	
6891	0	31652	
6892	0	31656	
6893	0	31660	
6894	0	31644	
6895	0	31572	
6896	0	31504	
6897	0	31472	
6898	0	31444	
6899	0	31432	
6900	0	31480	
6901	0	31520	
6902	0	31588	
6903	0	31632	
6904	0	31620	
6905	0	31660	
6906	0	31708	
6907	0	31748	
6908	0	31736	
6909	0	31724	
6910	0	31656	
6911	0	31584	
6912	0	31548	
6913	0	31548	
6914	0	31568	
6915	0	31584	
6916	0	31592	
6917	0	31608	
6918	0	31608	
6919	0	31638	
6920	0	31676	
6921	0	31712	
6922	0	31776	
6923	0	31834	
6924	0	31884	
6925	0	31936	
6926	0	31904	
6927	0	31848	
6928	0	31880	
6929	0	31962	
6930	0	32092	
6931	0	32132	
6932	0	32180	
6933	0	32164	
6934	0	32168	
6935	0	32176	
6936	0	32128	
6937	0	32012	
6938	0	31920	
6939	0	31880	
6940	0	31920	
6941	0	31920	
6942	0	31922	
6943	0	31932	
6944	0	31928	
6945	0	31904	
6946	0	31920	
6947	0	31972	
6948	0	31980	
6949	0	32048	
6950	0	32080	
6951	0	32076	
6952	0	32060	
6953	0	32008	
6954	0	31968	
6955	0	31904	
6956	0	31908	
6957	0	31932	
6958	0	31984	
6959	0	32048	
6960	0	32080	
6961	0	32092	
6962	0	32089	
6963	0	32088	
6964	0	32064	
6965	0	32072	
6966	0	32128	
6967	0	32148	
6968	0	32064	
6969	0	32032	
6970	0	32048	
6971	0	32056	
6972	0	32168	
6973	0	32320	
6974	0	32408	
6975	0	32396	
6976	0	32340	
6977	0	32252	
6978	0	32204	
6979	0	32104	
6980	0	32016	
6981	0	31980	
6982	0	31944	
6983	0	31912	
6984	0	31848	
6985	0	31808	
6986	0	31804	
6987	0	31788	
6988	0	31704	
6989	0	31572	
6990	0	31440	
6991	0	31420	
6992	0	31556	
6993	0	31712	
6994	0	31824	
6995	0	31972	
6996	0	32178	
6997	0	32400	
6998	0	32572	
6999	0	32712	
7000	0	32808	
7001	0	32864	
7002	0	32896	
7003	0	32904	
7004	0	32908	
7005	0	32944	
7006	0	32976	
7007	0	33000	
7008	0	33012	
7009	0	32960	
7010	0	32876	
7011	0	32800	
7012	0	32690	
7013	0	32632	
7014	0	32660	
7015	0	32744	
7016	0	32824	
7017	0	32916	
7018	0	33016	
7019	0	33136	
7020	0	33264	
7021	0	33396	
7022	0	33420	
7023	0	33450	
7024	0	33526	
7025	0	33632	
7026	0	33684	
7027	0	33712	
7028	0	33724	
7029	0	33744	
7030	0	33744	
7031	0	33776	
7032	0	33812	
7033	0	33752	
7034	0	33644	
7035	0	33464	
7036	0	33240	
7037	0	33018	
7038	0	32856	
7039	0	32716	
7040	0	32524	
7041	0	32400	
7042	0	32330	
7043	0	32288	
7044	0	32288	
7045	0	32352	
7046	0	32480	
7047	0	32554	
7048	0	32564	
7049	0	32565	
7050	0	32508	
7051	0	32468	
7052	0	32440	
7053	0	32444	
7054	0	32504	
7055	0	32524	
7056	0	32542	
7057	0	32556	
7058	0	32608	
7059	0	32692	
7060	0	32696	
7061	0	32712	
7062	0	32744	
7063	0	32768	
7064	0	32808	
7065	0	32808	
7066	0	32844	
7067	0	32952	
7068	0	33028	
7069	0	33100	
7070	0	33200	
7071	0	33258	
7072	0	33300	
7073	0	33280	
7074	0	33260	
7075	0	33212	
7076	0	33216	
7077	0	33160	
7078	0	33128	
7079	0	33152	
7080	0	33132	
7081	0	33060	
7082	0	33024	
7083	0	33008	
7084	0	32976	
7085	0	32932	
7086	0	32752	
7087	0	32532	
7088	0	32388	
7089	0	32404	
7090	0	32644	
7091	0	33112	
7092	0	33710	
7093	0	34480	
7094	0	35300	
7095	0	36112	
7096	0	36980	
7097	0	37880	
7098	0	38844	
7099	0	39960	
7100	0	41304	
7101	0	42916	
7102	0	44788	
7103	0	46896	
7104	0	49068	
7105	0	51236	
7106	0	53508	
7107	0	56064	
7108	0	58944	
7109	0	61824	
7110	0	63680	
7111	0	64648	
7112	0	65116	
7113	0	65312	
7114	0	65368	
7115	0	65340	
7116	0	65260	
7117	0	65160	
7118	0	65064	
7119	0	64944	
7120	0	64800	
7121	0	64672	
7122	0	64544	
7123	0	64404	
7124	0	64280	
7125	0	58648	
7126	0	53076	
7127	0	47544	
7128	0	42404	
7129	0	38016	
7130	0	34648	
7131	0	32204	
7132	0	30496	
7133	0	29216	
7134	0	28312	
7135	0	27608	
7136	0	27074	
7137	0	26672	
7138	0	26452	
7139	0	26212	
7140	0	25980	
7141	0	25738	
7142	0	25512	
7143	0	25248	
7144	0	25040	
7145	0	24932	
7146	0	24964	
7147	0	25162	
7148	0	25480	
7149	0	25844	
7150	0	26284	
7151	0	26680	
7152	0	26970	
7153	0	27196	
7154	0	27404	
7155	0	27672	
7156	0	27924	
7157	0	28176	
7158	0	28428	
7159	0	28628	
7160	0	28834	
7161	0	29048	
7162	0	29264	
7163	0	29432	
7164	0	29504	
7165	0	29568	
7166	0	29620	
7167	0	29620	
7168	0	29600	
7169	0	29560	
7170	0	29592	
7171	0	29668	
7172	0	29732	
7173	0	29728	
7174	0	29700	
7175	0	29722	
7176	0	29782	
7177	0	29840	
7178	0	29856	
7179	0	29856	
7180	0	29856	
7181	0	29872	
7182	0	29908	
7183	0	29924	
7184	0	29932	
7185	0	29992	
7186	0	30012	
7187	0	30032	
7188	0	30040	
7189	0	30128	
7190	0	30232	
7191	0	30292	
7192	0	30320	
7193	0	30376	
7194	0	30372	
7195	0	30316	
7196	0	30256	
7197	0	30256	
7198	0	30324	
7199	0	30400	
7200	0	30444	
7201	0	30408	
7202	0	30408	
7203	0	30464	
7204	0	30556	
7205	0	30614	
7206	0	30632	
7207	0	30690	
7208	0	30754	
7209	0	30788	
7210	0	30856	
7211	0	30933	
7212	0	30944	
7213	0	30952	
7214	0	30968	
7215	0	31030	
7216	0	31072	
7217	0	31164	
7218	0	31248	
7219	0	31370	
7220	0	31444	
7221	0	31460	
7222	0	31488	
7223	0	31552	
7224	0	31636	
7225	0	31680	
7226	0	31708	
7227	0	31730	
7228	0	31772	
7229	0	31824	
7230	0	31848	
7231	0	31896	
7232	0	31922	
7233	0	31960	
7234	0	31972	
7235	0	32004	
7236	0	32120	
7237	0	32176	
7238	0	32192	
7239	0	32200	
7240	0	32232	
7241	0	32256	
7242	0	32248	
7243	0	32256	
7244	0	32296	
7245	0	32312	
7246	0	32360	
7247	0	32420	
7248	0	32520	
7249	0	32620	
7250	0	32676	
7251	0	32692	
7252	0	32680	
7253	0	32676	
7254	0	32688	
7255	0	32664	
7256	0	32608	
7257	0	32568	
7258	0	32624	
7259	0	32668	
7260	0	32752	
7261	0	32800	
7262	0	32848	
7263	0	32908	
7264	0	32990	
7265	0	32992	
7266	0	32976	
7267	0	33028	
7268	0	33076	
7269	0	33088	
7270	0	33152	
7271	0	33272	
7272	0	33333	
7273	0	33356	
7274	0	33384	
7275	0	33388	
7276	0	33412	
7277	0	33432	
7278	0	33484	
7279	0	33544	
7280	0	33612	
7281	0	33688	
7282	0	33752	
7283	0	33780	
7284	0	33844	
7285	0	33872	
7286	0	33856	
7287	0	33880	
7288	0	33904	
7289	0	33928	
7290	0	33924	
7291	0	33908	
7292	0	33888	
7293	0	33832	
7294	0	33768	
7295	0	33762	
7296	0	33844	
7297	0	33914	
7298	0	33992	
7299	0	34022	
7300	0	34044	
7301	0	34132	
7302	0	34208	
7303	0	34304	
7304	0	34388	
7305	0	34472	
7306	0	34544	
7307	0	34588	
7308	0	34664	
7309	0	34680	
7310	0	34688	
7311	0	34700	
7312	0	34734	
7313	0	34780	
7314	0	34812	
7315	0	34862	
7316	0	34928	
7317	0	34988	
7318	0	35040	
7319	0	35058	
7320	0	35120	
7321	0	35196	
7322	0	35236	
7323	0	35296	
7324	0	35344	
7325	0	35352	
7326	0	35392	
7327	0	35416	
7328	0	35468	
7329	0	35496	
7330	0	35520	
7331	0	35560	
7332	0	35604	
7333	0	35672	
7334	0	35744	
7335	0	35816	
7336	0	35910	
7337	0	35980	
7338	0	36016	
7339	0	36028	
7340	0	36068	
7341	0	36104	
7342	0	36104	
7343	0	36148	
7344	0	36160	
7345	0	36180	
7346	0	36248	
7347	0	36244	
7348	0	36264	
7349	0	36284	
7350	0	36312	
7351	0	36356	
7352	0	36384	
7353	0	36476	
7354	0	36532	
7355	0	36604	
7356	0	36684	
7357	0	36758	
7358	0	36808	
7359	0	36856	
7360	0	36872	
7361	0	36920	
7362	0	36996	
7363	0	37052	
7364	0	37072	
7365	0	37044	
7366	0	37036	
7367	0	37048	
7368	0	37120	
7369	0	37172	
7370	0	37156	
7371	0	37184	
7372	0	37152	
7373	0	37060	
7374	0	37048	
7375	0	37100	
7376	0	37132	
7377	0	37156	
7378	0	37144	
7379	0	37082	
7380	0	37000	
7381	0	36968	
7382	0	36916	
7383	0	36821	
7384	0	36720	
7385	0	36608	
7386	0	36428	
7387	0	36288	
7388	0	36220	
7389	0	36160	
7390	0	36044	
7391	0	35860	
7392	0	35672	
7393	0	35508	
7394	0	35352	
7395	0	35168	
7396	0	34948	
7397	0	34720	
7398	0	34532	
7399	0	34380	
7400	0	34260	
7401	0	34164	
7402	0	34004	
7403	0	33800	
7404	0	33652	
7405	0	33486	
7406	0	33258	
7407	0	33028	
7408	0	32828	
7409	0	32580	
7410	0	32344	
7411	0	32200	
7412	0	32084	
7413	0	31864	
7414	0	31656	
7415	0	31482	
7416	0	31322	
7417	0	31150	
7418	0	30976	
7419	0	30814	
7420	0	30676	
7421	0	30588	
7422	0	30516	
7423	0	30362	
7424	0	30196	
7425	0	30040	
7426	0	29896	
7427	0	29780	
7428	0	29656	
7429	0	29504	
7430	0	29400	
7431	0	29320	
7432	0	29216	
7433	0	29152	
7434	0	29060	
7435	0	28916	
7436	0	28808	
7437	0	28696	
7438	0	28564	
7439	0	28504	
7440	0	28512	
7441	0	28504	
7442	0	28540	
7443	0	28588	
7444	0	28608	
7445	0	28592	
7446	0	28596	
7447	0	28608	
7448	0	28628	
7449	0	28580	
7450	0	28528	
7451	0	28437	
7452	0	28364	
7453	0	28352	
7454	0	28328	
7455	0	28292	
7456	0	28284	
7457	0	28330	
7458	0	28332	
7459	0	28324	
7460	0	28350	
7461	0	28400	
7462	0	28448	
7463	0	28500	
7464	0	28588	
7465	0	28632	
7466	0	28638	
7467	0	28673	
7468	0	28692	
7469	0	28736	
7470	0	28770	
7471	0	28820	
7472	0	28836	
7473	0	28896	
7474	0	28984	
7475	0	29026	
7476	0	29020	
7477	0	29040	
7478	0	29044	
7479	0	28980	
7480	0	28960	
7481	0	28992	
7482	0	29076	
7483	0	29168	
7484	0	29220	
7485	0	29192	
7486	0	29252	
7487	0	29340	
7488	0	29420	
7489	0	29500	
7490	0	29552	
7491	0	29616	
7492	0	29664	
7493	0	29656	
7494	0	29604	
7495	0	29568	
7496	0	29528	
7497	0	29528	
7498	0	29562	
7499	0	29644	
7500	0	29690	
7501	0	29720	
7502	0	29804	
7503	0	29864	
7504	0	29884	
7505	0	29888	
7506	0	29902	
7507	0	29940	
7508	0	29972	
7509	0	30040	
7510	0	30092	
7511	0	30124	
7512	0	30096	
7513	0	30064	
7514	0	30088	
7515	0	30122	
7516	0	30160	
7517	0	30172	
7518	0	30188	
7519	0	30208	
7520	0	30228	
7521	0	30256	
7522	0	30324	
7523	0	30376	
7524	0	30432	
7525	0	30506	
7526	0	30548	
7527	0	30508	
7528	0	30496	
7529	0	30460	
7530	0	30448	
7531	0	30432	
7532	0	30356	
7533	0	30312	
7534	0	30340	
7535	0	30380	
7536	0	30428	
7537	0	30500	
7538	0	30546	
7539	0	30556	
7540	0	30596	
7541	0	30626	
7542	0	30688	
7543	0	30724	
7544	0	30752	
7545	0	30744	
7546	0	30668	
7547	0	30564	
7548	0	30516	
7549	0	30528	
7550	0	30520	
7551	0	30568	
7552	0	30632	
7553	0	30696	
7554	0	30712	
7555	0	30672	
7556	0	30664	
7557	0	30632	
7558	0	30656	
7559	0	30724	
7560	0	30744	
7561	0	30752	
7562	0	30754	
7563	0	30712	
7564	0	30676	
7565	0	30644	
7566	0	30672	
7567	0	30788	
7568	0	30828	
7569	0	30780	
7570	0	30724	
7571	0	30712	
7572	0	30730	
7573	0	30740	
7574	0	30732	
7575	0	30744	
7576	0	30748	
7577	0	30790	
7578	0	30816	
7579	0	30820	
7580	0	30844	
7581	0	30836	
7582	0	30844	
7583	0	30882	
7584	0	30932	
7585	0	30892	
7586	0	30846	
7587	0	30796	
7588	0	30764	
7589	0	30704	
7590	0	30672	
7591	0	30728	
7592	0	30824	
7593	0	30920	
7594	0	30980	
7595	0	31064	
7596	0	31128	
7597	0	31144	
7598	0	31084	
7599	0	31016	
7600	0	31018	
7601	0	31040	
7602	0	30960	
7603	0	30882	
7604	0	30848	
7605	0	30872	
7606	0	30888	
7607	0	30920	
7608	0	30918	
7609	0	30924	
7610	0	30938	
7611	0	30916	
7612	0	30880	
7613	0	30842	
7614	0	30814	
7615	0	30856	
7616	0	30944	
7617	0	30990	
7618	0	30996	
7619	0	30948	
7620	0	30984	
7621	0	31040	
7622	0	31096	
7623	0	31168	
7624	0	31194	
7625	0	31172	
7626	0	31160	
7627	0	31148	
7628	0	31120	
7629	0	31116	
7630	0	31096	
7631	0	31100	
7632	0	31084	
7633	0	31112	
7634	0	31114	
7635	0	31084	
7636	0	31060	
7637	0	31072	
7638	0	31094	
7639	0	31156	
7640	0	31188	
7641	0	31184	
7642	0	31196	
7643	0	31182	
7644	0	31216	
7645	0	31320	
7646	0	31368	
7647	0	31416	
7648	0	31468	
7649	0	31548	
7650	0	31520	
7651	0	31464	
7652	0	31416	
7653	0	31392	
7654	0	31396	
7655	0	31408	
7656	0	31364	
7657	0	31320	
7658	0	31296	
7659	0	31352	
7660	0	31412	
7661	0	31364	
7662	0	31384	
7663	0	31424	
7664	0	31552	
7665	0	31620	
7666	0	31592	
7667	0	31588	
7668	0	31580	
7669	0	31504	
7670	0	31416	
7671	0	31420	
7672	0	31440	
7673	0	31468	
7674	0	31488	
7675	0	31502	
7676	0	31524	
7677	0	31504	
7678	0	31518	
7679	0	31608	
7680	0	31668	
7681	0	31684	
7682	0	31744	
7683	0	31792	
7684	0	31816	
7685	0	31840	
7686	0	31916	
7687	0	31932	
7688	0	31922	
7689	0	31960	
7690	0	32016	
7691	0	32036	
7692	0	32036	
7693	0	32028	
7694	0	31982	
7695	0	31876	
7696	0	31836	
7697	0	31860	
7698	0	31834	
7699	0	31850	
7700	0	31860	
7701	0	31876	
7702	0	31906	
7703	0	31924	
7704	0	31940	
7705	0	31988	
7706	0	32012	
7707	0	32028	
7708	0	32024	
7709	0	31944	
7710	0	31984	
7711	0	32004	
7712	0	32008	
7713	0	32008	
7714	0	32026	
7715	0	32052	
7716	0	32020	
7717	0	32012	
7718	0	32026	
7719	0	32038	
7720	0	32048	
7721	0	32100	
7722	0	32144	
7723	0	32168	
7724	0	32208	
7725	0	32200	
7726	0	32184	
7727	0	32158	
7728	0	32096	
7729	0	32032	
7730	0	32020	
7731	0	32064	
7732	0	32092	
7733	0	32120	
7734	0	32148	
7735	0	32164	
7736	0	32184	
7737	0	32232	
7738	0	32280	
7739	0	32412	
7740	0	32504	
7741	0	32532	
7742	0	32504	
7743	0	32496	
7744	0	32508	
7745	0	32476	
7746	0	32432	
7747	0	32360	
7748	0	32248	
7749	0	32100	
7750	0	31992	
7751	0	31992	
7752	0	32016	
7753	0	32060	
7754	0	32154	
7755	0	32272	
7756	0	32348	
7757	0	32396	
7758	0	32424	
7759	0	32444	
7760	0	32408	
7761	0	32300	
7762	0	32212	
7763	0	32192	
7764	0	32120	
7765	0	32112	
7766	0	32044	
7767	0	31920	
7768	0	31816	
7769	0	31748	
7770	0	31732	
7771	0	31672	
7772	0	31584	
7773	0	31520	
7774	0	31576	
7775	0	31732	
7776	0	31940	
7777	0	32112	
7778	0	32268	
7779	0	32416	
7780	0	32604	
7781	0	32832	
7782	0	32972	
7783	0	33052	
7784	0	33072	
7785	0	33080	
7786	0	33120	
7787	0	33216	
7788	0	33372	
7789	0	33488	
7790	0	33564	
7791	0	33552	
7792	0	33428	
7793	0	33272	
7794	0	33076	
7795	0	32888	
7796	0	32780	
7797	0	32792	
7798	0	32832	
7799	0	32924	
7800	0	33026	
7801	0	33100	
7802	0	33210	
7803	0	33340	
7804	0	33460	
7805	0	33500	
7806	0	33540	
7807	0	33628	
7808	0	33694	
7809	0	33768	
7810	0	33804	
7811	0	33764	
7812	0	33692	
7813	0	33648	
7814	0	33640	
7815	0	33680	
7816	0	33764	
7817	0	33804	
7818	0	33728	
7819	0	33628	
7820	0	33490	
7821	0	33296	
7822	0	33018	
7823	0	32728	
7824	0	32532	
7825	0	32388	
7826	0	32352	
7827	0	32388	
7828	0	32404	
7829	0	32440	
7830	0	32488	
7831	0	32544	
7832	0	32568	
7833	0	32532	
7834	0	32492	
7835	0	32448	
7836	0	32480	
7837	0	32568	
7838	0	32632	
7839	0	32692	
7840	0	32764	
7841	0	32738	
7842	0	32702	
7843	0	32672	
7844	0	32724	
7845	0	32836	
7846	0	32892	
7847	0	32952	
7848	0	32976	
7849	0	33000	
7850	0	33036	
7851	0	33088	
7852	0	33156	
7853	0	33256	
7854	0	33336	
7855	0	33356	
7856	0	33352	
7857	0	33364	
7858	0	33398	
7859	0	33436	
7860	0	33424	
7861	0	33408	
7862	0	33396	
7863	0	33368	
7864	0	33368	
7865	0	33266	
7866	0	33160	
7867	0	33076	
7868	0	32920	
7869	0	32704	
7870	0	32442	
7871	0	32240	
7872	0	32236	
7873	0	32392	
7874	0	32792	
7875	0	33354	
7876	0	34064	
7877	0	34912	
7878	0	35776	
7879	0	36656	
7880	0	37584	
7881	0	38576	
7882	0	39732	
7883	0	41084	
7884	0	42720	
7885	0	44560	
7886	0	46600	
7887	0	48712	
7888	0	50880	
7889	0	53112	
7890	0	55664	
7891	0	58596	
7892	0	61544	
7893	0	63512	
7894	0	64516	
7895	0	65016	
7896	0	65224	
7897	0	65284	
7898	0	65252	
7899	0	65192	
7900	0	65092	
7901	0	64968	
7902	0	64856	
7903	0	64728	
7904	0	64600	
7905	0	64492	
7906	0	64340	
7907	0	64208	
7908	0	59712	
7909	0	54136	
7910	0	48560	
7911	0	43308	
7912	0	38800	
7913	0	35236	
7914	0	32676	
7915	0	30880	
7916	0	29532	
7917	0	28618	
7918	0	27932	
7919	0	27352	
7920	0	26964	
7921	0	26764	
7922	0	26576	
7923	0	26346	
7924	0	26032	
7925	0	25716	
7926	0	25436	
7927	0	25205	
7928	0	25032	
7929	0	25009	
7930	0	25148	
7931	0	25388	
7932	0	25660	
7933	0	26004	
7934	0	26456	
7935	0	26840	
7936	0	27072	
7937	0	27308	
7938	0	27568	
7939	0	27844	
7940	0	28152	
7941	0	28464	
7942	0	28804	
7943	0	29096	
7944	0	29298	
7945	0	29464	
7946	0	29594	
7947	0	29648	
7948	0	29676	
7949	0	29696	
7950	0	29664	
7951	0	29558	
7952	0	29524	
7953	0	29488	
7954	0	29512	
7955	0	29534	
7956	0	29560	
7957	0	29584	
7958	0	29592	
7959	0	29616	
7960	0	29664	
7961	0	29728	
7962	0	29760	
7963	0	29868	
7964	0	29936	
7965	0	29976	
7966	0	30016	
7967	0	30040	
7968	0	30072	
7969	0	30096	
7970	0	30052	
7971	0	30008	
7972	0	29988	
7973	0	30004	
7974	0	30048	
7975	0	30128	
7976	0	30198	
7977	0	30218	
7978	0	30250	
7979	0	30304	
7980	0	30336	
7981	0	30380	
7982	0	30380	
7983	0	30416	
7984	0	30556	
7985	0	30656	
7986	0	30760	
7987	0	30820	
7988	0	30862	
7989	0	30904	
7990	0	30952	
7991	0	31016	
7992	0	31020	
7993	0	30944	
7994	0	30900	
7995	0	30920	
7996	0	30948	
7997	0	30928	
7998	0	30940	
7999	0	31032	
8000	0	31144	
8001	0	31240	
8002	0	31308	
8003	0	31344	
8004	0	31372	
8005	0	31424	
8006	0	31512	
8007	0	31604	
8008	0	31664	
8009	0	31668	
8010	0	31668	
8011	0	31664	
8012	0	31662	
8013	0	31684	
8014	0	31696	
8015	0	31756	
8016	0	31808	
8017	0	31912	
8018	0	31980	
8019	0	32030	
8020	0	32092	
8021	0	32152	
8022	0	32212	
8023	0	32264	
8024	0	32322	
8025	0	32348	
8026	0	32372	
8027	0	32388	
8028	0	32356	
8029	0	32352	
8030	0	32364	
8031	0	32396	
8032	0	32430	
8033	0	32428	
8034	0	32444	
8035	0	32440	
8036	0	32480	
8037	0	32564	
8038	0	32644	
8039	0	32768	
8040	0	32860	
8041	0	32896	
8042	0	32920	
8043	0	32892	
8044	0	32880	
8045	0	32904	
8046	0	32944	
8047	0	33007	
8048	0	33032	
8049	0	33080	
8050	0	33224	
8051	0	33292	
8052	0	33320	
8053	0	33344	
8054	0	33312	
8055	0	33316	
8056	0	33320	
8057	0	33316	
8058	0	33306	
8059	0	33328	
8060	0	33368	
8061	0	33424	
8062	0	33476	
8063	0	33516	
8064	0	33600	
8065	0	33712	
8066	0	33800	
8067	0	33856	
8068	0	33852	
8069	0	33840	
8070	0	33828	
8071	0	33832	
8072	0	33856	
8073	0	33912	
8074	0	33974	
8075	0	33992	
8076	0	33996	
8077	0	34016	
8078	0	34096	
8079	0	34184	
8080	0	34252	
8081	0	34244	
8082	0	34248	
8083	0	34248	
8084	0	34308	
8085	0	34396	
8086	0	34448	
8087	0	34496	
8088	0	34520	
8089	0	34552	
8090	0	34572	
8091	0	34580	
8092	0	34656	
8093	0	34778	
8094	0	34828	
8095	0	34874	
8096	0	34860	
8097	0	34876	
8098	0	34908	
8099	0	34976	
8100	0	35032	
8101	0	35076	
8102	0	35120	
8103	0	35168	
8104	0	35128	
8105	0	35128	
8106	0	35172	
8107	0	35204	
8108	0	35244	
8109	0	35296	
8110	0	35368	
8111	0	35404	
8112	0	35492	
8113	0	35560	
8114	0	35564	
8115	0	35572	
8116	0	35602	
8117	0	35668	
8118	0	35712	
8119	0	35768	
8120	0	35816	
8121	0	35868	
8122	0	35892	
8123	0	35936	
8124	0	36000	
8125	0	36108	
8126	0	36218	
8127	0	36304	
8128	0	36376	
8129	0	36428	
8130	0	36428	
8131	0	36392	
8132	0	36368	
8133	0	36356	
8134	0	36420	
8135	0	36520	
8136	0	36524	
8137	0	36520	
8138	0	36564	
8139	0	36608	
8140	0	36620	
8141	0	36604	
8142	0	36616	
8143	0	36680	
8144	0	36788	
8145	0	36832	
8146	0	36792	
8147	0	36776	
8148	0	36864	
8149	0	37000	
8150	0	37040	
8151	0	37048	
8152	0	37064	
8153	0	37088	
8154	0	37004	
8155	0	36908	
8156	0	36864	
8157	0	36876	
8158	0	36852	
8159	0	36836	
8160	0	36800	
8161	0	36778	
8162	0	36784	
8163	0	36828	
8164	0	36808	
8165	0	36752	
8166	0	36712	
8167	0	36716	
8168	0	36668	
8169	0	36548	
8170	0	36416	
8171	0	36280	
8172	0	36172	
8173	0	35952	
8174	0	35732	
8175	0	35588	
8176	0	35384	
8177	0	35150	
8178	0	35004	
8179	0	34832	
8180	0	34684	
8181	0	34512	
8182	0	34364	
8183	0	34252	
8184	0	34060	
8185	0	33884	
8186	0	33760	
8187	0	33556	
8188	0	33324	
8189	0	33136	
8190	0	32932	
8191	0	32712	
8192	0	32464	
8193	0	32280	
8194	0	32120	
8195	0	31980	
8196	0	31824	
8197	0	31688	
8198	0	31520	
8199	0	31328	
8200	0	31152	
8201	0	30944	
8202	0	30784	
8203	0	30636	
8204	0	30492	
8205	0	30364	
8206	0	30228	
8207	0	30124	
8208	0	30012	
8209	0	29812	
8210	0	29576	
8211	0	29392	
8212	0	29284	
8213	0	29216	
8214	0	29092	
8215	0	29000	
8216	0	28880	
8217	0	28812	
8218	0	28840	
8219	0	28872	
8220	0	28856	
8221	0	28748	
8222	0	28648	
8223	0	28584	
8224	0	28500	
8225	0	28460	
8226	0	28444	
8227	0	28376	
8228	0	28308	
8229	0	28268	
8230	0	28264	
8231	0	28284	
8232	0	28216	
8233	0	28184	
8234	0	28200	
8235	0	28160	
8236	0	28152	
8237	0	28192	
8238	0	28264	
8239	0	28318	
8240	0	28360	
8241	0	28442	
8242	0	28468	
8243	0	28468	
8244	0	28454	
8245	0	28474	
8246	0	28492	
8247	0	28492	
8248	0	28564	
8249	0	28596	
8250	0	28616	
8251	0	28636	
8252	0	28636	
8253	0	28612	
8254	0	28648	
8255	0	28704	
8256	0	28720	
8257	0	28680	
8258	0	28674	
8259	0	28744	
8260	0	28816	
8261	0	28872	
8262	0	28976	
8263	0	29000	
8264	0	28976	
8265	0	28982	
8266	0	29082	
8267	0	29148	
8268	0	29184	
8269	0	29188	
8270	0	29224	
8271	0	29292	
8272	0	29336	
8273	0	29356	
8274	0	29360	
8275	0	29368	
8276	0	29340	
8277	0	29390	
8278	0	29484	
8279	0	29568	
8280	0	29656	
8281	0	29760	
8282	0	29844	
8283	0	29884	
8284	0	29888	
8285	0	29888	
8286	0	29896	
8287	0	29876	
8288	0	29876	
8289	0	29940	
8290	0	29996	
8291	0	29996	
8292	0	29948	
8293	0	29942	
8294	0	29944	
8295	0	29984	
8296	0	30056	
8297	0	30144	
8298	0	30176	
8299	0	30176	
8300	0	30216	
8301	0	30256	
8302	0	30220	
8303	0	30188	
8304	0	30228	
8305	0	30256	
8306	0	30276	
8307	0	30320	
8308	0	30404	
8309	0	30466	
8310	0	30504	
8311	0	30512	
8312	0	30512	
8313	0	30416	
8314	0	30352	
8315	0	30352	
8316	0	30364	
8317	0	30404	
8318	0	30520	
8319	0	30576	
8320	0	30588	
8321	0	30576	
8322	0	30528	
8323	0	30538	
8324	0	30600	
8325	0	30652	
8326	0	30636	
8327	0	30646	
8328	0	30712	
8329	0	30816	
8330	0	30872	
8331	0	30888	
8332	0	30896	
8333	0	30876	
8334	0	30796	
8335	0	30720	
8336	0	30658	
8337	0	30580	
8338	0	30564	
8339	0	30596	
8340	0	30580	
8341	0	30588	
8342	0	30664	
8343	0	30704	
8344	0	30680	
8345	0	30680	
8346	0	30736	
8347	0	30776	
8348	0	30772	
8349	0	30796	
8350	0	30808	
8351	0	30760	
8352	0	30760	
8353	0	30744	
8354	0	30764	
8355	0	30798	
8356	0	30860	
8357	0	30860	
8358	0	30824	
8359	0	30824	
8360	0	30788	
8361	0	30726	
8362	0	30688	
8363	0	30704	
8364	0	30778	
8365	0	30812	
8366	0	30784	
8367	0	30720	
8368	0	30684	
8369	0	30732	
8370	0	30800	
8371	0	30800	
8372	0	30820	
8373	0	30824	
8374	0	30826	
8375	0	30874	
8376	0	30912	
8377	0	30926	
8378	0	30896	
8379	0	30936	
8380	0	30952	
8381	0	30944	
8382	0	30964	
8383	0	31028	
8384	0	31044	
8385	0	31044	
8386	0	31060	
8387	0	31064	
8388	0	31032	
8389	0	31020	
8390	0	31028	
8391	0	31094	
8392	0	31114	
8393	0	31138	
8394	0	31176	
8395	0	31184	
8396	0	31198	
8397	0	31152	
8398	0	31108	
8399	0	31028	
8400	0	31060	
8401	0	31080	
8402	0	31024	
8403	0	30996	
8404	0	31000	
8405	0	31016	
8406	0	31012	
8407	0	31032	
8408	0	31092	
8409	0	31116	
8410	0	31152	
8411	0	31176	
8412	0	31156	
8413	0	31088	
8414	0	31040	
8415	0	31040	
8416	0	31088	
8417	0	31152	
8418	0	31216	
8419	0	31200	
8420	0	31160	
8421	0	31188	
8422	0	31248	
8423	0	31298	
8424	0	31304	
8425	0	31276	
8426	0	31268	
8427	0	31266	
8428	0	31256	
8429	0	31232	
8430	0	31260	
8431	0	31324	
8432	0	31368	
8433	0	31352	
8434	0	31296	
8435	0	31272	
8436	0	31264	
8437	0	31248	
8438	0	31216	
8439	0	31240	
8440	0	31280	
8441	0	31400	
8442	0	31520	
8443	0	31568	
8444	0	31512	
8445	0	31456	
8446	0	31436	
8447	0	31480	
8448	0	31520	
8449	0	31640	
8450	0	31700	
8451	0	31660	
8452	0	31616	
8453	0	31592	
8454	0	31600	
8455	0	31596	
8456	0	31568	
8457	0	31524	
8458	0	31564	
8459	0	31604	
8460	0	31596	
8461	0	31660	
8462	0	31692	
8463	0	31712	
8464	0	31744	
8465	0	31772	
8466	0	31784	
8467	0	31804	
8468	0	31768	
8469	0	31778	
8470	0	31792	
8471	0	31776	
8472	0	31744	
8473	0	31704	
8474	0	31744	
8475	0	31796	
8476	0	31880	
8477	0	31904	
8478	0	31888	
8479	0	31864	
8480	0	31836	
8481	0	31800	
8482	0	31800	
8483	0	31822	
8484	0	31840	
8485	0	31840	
8486	0	31864	
8487	0	31852	
8488	0	31924	
8489	0	32020	
8490	0	32048	
8491	0	32032	
8492	0	32016	
8493	0	32012	
8494	0	31936	
8495	0	31896	
8496	0	31900	
8497	0	31944	
8498	0	32004	
8499	0	32024	
8500	0	31980	
8501	0	31936	
8502	0	31888	
8503	0	31860	
8504	0	31904	
8505	0	31972	
8506	0	32032	
8507	0	32066	
8508	0	32096	
8509	0	32152	
8510	0	32188	
8511	0	32152	
8512	0	32120	
8513	0	32096	
8514	0	32128	
8515	0	32188	
8516	0	32244	
8517	0	32284	
8518	0	32263	
8519	0	32212	
8520	0	32188	
8521	0	32168	
8522	0	32156	
8523	0	32168	
8524	0	32184	
8525	0	32192	
8526	0	32188	
8527	0	32224	
8528	0	32236	
8529	0	32228	
8530	0	32232	
8531	0	32236	
8532	0	32248	
8533	0	32248	
8534	0	32232	
8535	0	32248	
8536	0	32264	
8537	0	32288	
8538	0	32332	
8539	0	32296	
8540	0	32256	
8541	0	32228	
8542	0	32256	
8543	0	32308	
8544	0	32348	
8545	0	32400	
8546	0	32436	
8547	0	32480	
8548	0	32492	
8549	0	32500	
8550	0	32520	
8551	0	32556	
8552	0	32576	
8553	0	32568	
8554	0	32512	
8555	0	32480	
8556	0	32488	
8557	0	32532	
8558	0	32570	
8559	0	32576	
8560	0	32600	
8561	0	32616	
8562	0	32660	
8563	0	32700	
8564	0	32728	
8565	0	32676	
8566	0	32612	
8567	0	32528	
8568	0	32460	
8569	0	32408	
8570	0	32428	
8571	0	32456	
8572	0	32518	
8573	0	32584	
8574	0	32696	
8575	0	32804	
8576	0	32796	
8577	0	32672	
8578	0	32572	
8579	0	32492	
8580	0	32356	
8581	0	32364	
8582	0	32318	
8583	0	32260	
8584	0	32208	
8585	0	32180	
8586	0	32148	
8587	0	32080	
8588	0	32036	
8589	0	32020	
8590	0	31908	
8591	0	31784	
