# OpenSignals Text File Format. Version 1
# {"00:07:80:4B:15:F7": {"position": 0, "device": "biosignalsplux", "device name": "00:07:80:4B:15:F7", "device connection": "BTH00:07:80:4B:15:F7", "sampling rate": 1000, "resolution": [16], "firmware version": 775, "comments": "", "keywords": "", "mode": 0, "sync interval": 2, "date": "2023-4-27", "time": "17:40:39.884", "channels": [1], "sensor": ["ECG"], "label": ["CH1"], "column": ["nSeq", "DI", "CH1"], "special": [{"SpO2": [80, 40, 5, 4, 3, 3]}, {"SpO2": [80, 40, 5, 4, 3, 3]}, {"SpO2": [80, 40, 5, 4, 3, 3]}, {"SpO2": [80, 40, 5, 4, 3, 3]}, {"SpO2": [80, 40, 5, 4, 3, 3]}, {"SpO2": [80, 40, 5, 4, 3, 3]}, {"SpO2": [80, 40, 5, 4, 3, 3]}, {"SpO2": [80, 40, 5, 4, 3, 3]}], "digital IO": [0, 1], "sleeve color": ["green"], "convertedValues": 0}}
# EndOfHeader
0	0	32620	
1	0	32612	
2	0	32636	
3	0	32676	
4	0	32700	
5	0	32736	
6	0	32768	
7	0	32840	
8	0	32892	
9	0	32932	
10	0	32952	
11	0	32980	
12	0	32984	
13	0	32992	
14	0	33048	
15	0	33080	
16	0	33042	
17	0	33028	
18	0	33026	
19	0	33024	
20	0	33016	
21	0	32996	
22	0	33020	
23	0	33052	
24	0	33058	
25	0	33104	
26	0	33184	
27	0	33176	
28	0	33156	
29	0	33140	
30	0	33140	
31	0	33184	
32	0	33216	
33	0	33228	
34	0	33256	
35	0	33296	
36	0	33292	
37	0	33296	
38	0	33348	
39	0	33400	
40	0	33432	
41	0	33460	
42	0	33448	
43	0	33404	
44	0	33408	
45	0	33388	
46	0	33368	
47	0	33380	
48	0	33472	
49	0	33528	
50	0	33508	
51	0	33456	
52	0	33436	
53	0	33496	
54	0	33560	
55	0	33516	
56	0	33504	
57	0	33492	
58	0	33452	
59	0	33416	
60	0	33410	
61	0	33420	
62	0	33456	
63	0	33500	
64	0	33556	
65	0	33594	
66	0	33612	
67	0	33624	
68	0	33676	
69	0	33714	
70	0	33724	
71	0	33716	
72	0	33648	
73	0	33520	
74	0	33514	
75	0	33602	
76	0	33600	
77	0	33620	
78	0	33664	
79	0	33640	
80	0	33600	
81	0	33584	
82	0	33616	
83	0	33672	
84	0	33684	
85	0	33658	
86	0	33592	
87	0	33596	
88	0	33634	
89	0	33668	
90	0	33652	
91	0	33692	
92	0	33748	
93	0	33724	
94	0	33648	
95	0	33624	
96	0	33600	
97	0	33580	
98	0	33554	
99	0	33568	
100	0	33584	
101	0	33596	
102	0	33604	
103	0	33632	
104	0	33664	
105	0	33612	
106	0	33568	
107	0	33580	
108	0	33582	
109	0	33596	
110	0	33624	
111	0	33660	
112	0	33620	
113	0	33592	
114	0	33568	
115	0	33524	
116	0	33492	
117	0	33436	
118	0	33420	
119	0	33432	
120	0	33436	
121	0	33402	
122	0	33388	
123	0	33376	
124	0	33388	
125	0	33440	
126	0	33480	
127	0	33456	
128	0	33472	
129	0	33472	
130	0	33448	
131	0	33408	
132	0	33388	
133	0	33356	
134	0	33320	
135	0	33316	
136	0	33298	
137	0	33340	
138	0	33336	
139	0	33296	
140	0	33280	
141	0	33320	
142	0	33344	
143	0	33332	
144	0	33284	
145	0	33232	
146	0	33336	
147	0	33376	
148	0	33372	
149	0	33352	
150	0	33304	
151	0	33232	
152	0	33232	
153	0	33240	
154	0	33176	
155	0	33160	
156	0	33196	
157	0	33264	
158	0	33336	
159	0	33372	
160	0	33402	
161	0	33396	
162	0	33272	
163	0	33128	
164	0	33024	
165	0	32992	
166	0	33052	
167	0	33112	
168	0	33120	
169	0	33100	
170	0	33034	
171	0	32976	
172	0	32996	
173	0	33020	
174	0	33069	
175	0	33124	
176	0	33164	
177	0	33196	
178	0	33248	
179	0	33288	
180	0	33312	
181	0	33312	
182	0	33412	
183	0	33492	
184	0	33520	
185	0	33512	
186	0	33520	
187	0	33572	
188	0	33672	
189	0	33816	
190	0	33936	
191	0	34056	
192	0	34196	
193	0	34400	
194	0	34580	
195	0	34656	
196	0	34720	
197	0	34720	
198	0	34680	
199	0	34652	
200	0	34652	
201	0	34608	
202	0	34580	
203	0	34616	
204	0	34640	
205	0	34656	
206	0	34692	
207	0	34692	
208	0	34700	
209	0	34672	
210	0	34698	
211	0	34820	
212	0	34968	
213	0	35208	
214	0	35484	
215	0	35760	
216	0	36016	
217	0	36328	
218	0	36648	
219	0	36846	
220	0	37026	
221	0	37196	
222	0	37296	
223	0	37376	
224	0	37416	
225	0	37396	
226	0	37388	
227	0	37404	
228	0	37380	
229	0	37356	
230	0	37264	
231	0	37096	
232	0	36924	
233	0	36768	
234	0	36644	
235	0	36544	
236	0	36560	
237	0	36620	
238	0	36632	
239	0	36604	
240	0	36592	
241	0	36512	
242	0	36414	
243	0	36332	
244	0	36256	
245	0	36184	
246	0	36084	
247	0	35888	
248	0	35658	
249	0	35384	
250	0	35056	
251	0	34744	
252	0	34372	
253	0	33948	
254	0	33494	
255	0	33104	
256	0	32750	
257	0	32436	
258	0	32136	
259	0	31928	
260	0	31764	
261	0	31680	
262	0	31664	
263	0	31632	
264	0	31536	
265	0	31456	
266	0	31420	
267	0	31328	
268	0	31164	
269	0	31008	
270	0	30900	
271	0	30824	
272	0	30804	
273	0	30840	
274	0	30860	
275	0	30800	
276	0	30784	
277	0	30760	
278	0	30766	
279	0	30792	
280	0	30856	
281	0	30864	
282	0	30852	
283	0	30820	
284	0	30860	
285	0	30896	
286	0	30874	
287	0	30836	
288	0	30784	
289	0	30780	
290	0	30828	
291	0	30876	
292	0	30880	
293	0	30900	
294	0	30960	
295	0	30984	
296	0	30968	
297	0	30948	
298	0	30948	
299	0	30988	
300	0	30964	
301	0	30936	
302	0	30948	
303	0	30978	
304	0	31028	
305	0	31085	
306	0	31108	
307	0	31120	
308	0	31068	
309	0	31020	
310	0	30980	
311	0	30896	
312	0	30744	
313	0	30556	
314	0	30168	
315	0	29504	
316	0	28560	
317	0	27492	
318	0	26400	
319	0	25290	
320	0	24268	
321	0	23372	
322	0	22676	
323	0	22176	
324	0	21800	
325	0	21748	
326	0	21920	
327	0	22312	
328	0	22876	
329	0	23638	
330	0	24808	
331	0	26440	
332	0	28516	
333	0	30928	
334	0	33586	
335	0	36672	
336	0	39932	
337	0	43536	
338	0	47536	
339	0	51704	
340	0	56064	
341	0	59924	
342	0	62344	
343	0	63636	
344	0	64280	
345	0	64568	
346	0	64688	
347	0	64660	
348	0	64608	
349	0	64508	
350	0	64416	
351	0	64280	
352	0	64176	
353	0	60148	
354	0	54612	
355	0	50432	
356	0	46624	
357	0	42468	
358	0	38520	
359	0	35204	
360	0	32442	
361	0	29864	
362	0	27506	
363	0	25616	
364	0	24104	
365	0	22852	
366	0	21868	
367	0	21072	
368	0	20408	
369	0	19884	
370	0	19376	
371	0	19016	
372	0	18964	
373	0	19192	
374	0	19606	
375	0	19958	
376	0	20208	
377	0	20488	
378	0	20852	
379	0	21317	
380	0	21792	
381	0	22274	
382	0	22778	
383	0	23258	
384	0	23664	
385	0	24168	
386	0	24792	
387	0	25432	
388	0	26092	
389	0	26724	
390	0	27274	
391	0	27732	
392	0	28104	
393	0	28440	
394	0	28778	
395	0	29008	
396	0	29164	
397	0	29308	
398	0	29420	
399	0	29500	
400	0	29584	
401	0	29684	
402	0	29760	
403	0	29812	
404	0	29888	
405	0	29960	
406	0	30072	
407	0	30138	
408	0	30186	
409	0	30256	
410	0	30322	
411	0	30384	
412	0	30420	
413	0	30440	
414	0	30472	
415	0	30564	
416	0	30664	
417	0	30728	
418	0	30756	
419	0	30800	
420	0	30868	
421	0	30928	
422	0	31004	
423	0	31048	
424	0	31108	
425	0	31160	
426	0	31212	
427	0	31260	
428	0	31316	
429	0	31312	
430	0	31328	
431	0	31360	
432	0	31456	
433	0	31520	
434	0	31536	
435	0	31552	
436	0	31552	
437	0	31544	
438	0	31546	
439	0	31604	
440	0	31680	
441	0	31756	
442	0	31802	
443	0	31840	
444	0	31870	
445	0	31930	
446	0	31996	
447	0	32048	
448	0	32100	
449	0	32146	
450	0	32208	
451	0	32280	
452	0	32338	
453	0	32370	
454	0	32392	
455	0	32416	
456	0	32436	
457	0	32444	
458	0	32468	
459	0	32468	
460	0	32456	
461	0	32484	
462	0	32528	
463	0	32544	
464	0	32586	
465	0	32632	
466	0	32650	
467	0	32696	
468	0	32748	
469	0	32788	
470	0	32848	
471	0	32868	
472	0	32884	
473	0	32896	
474	0	32924	
475	0	32932	
476	0	32948	
477	0	32960	
478	0	32956	
479	0	32952	
480	0	32984	
481	0	33008	
482	0	33008	
483	0	33024	
484	0	33016	
485	0	32996	
486	0	32992	
487	0	33012	
488	0	33060	
489	0	33088	
490	0	33088	
491	0	33052	
492	0	33036	
493	0	33052	
494	0	33058	
495	0	33120	
496	0	33202	
497	0	33268	
498	0	33284	
499	0	33264	
500	0	33244	
501	0	33176	
502	0	33154	
503	0	33156	
504	0	33128	
505	0	33120	
506	0	33120	
507	0	33154	
508	0	33180	
509	0	33188	
510	0	33240	
511	0	33312	
512	0	33376	
513	0	33412	
514	0	33440	
515	0	33452	
516	0	33436	
517	0	33400	
518	0	33400	
519	0	33388	
520	0	33384	
521	0	33384	
522	0	33408	
523	0	33416	
524	0	33408	
525	0	33420	
526	0	33436	
527	0	33440	
528	0	33428	
529	0	33440	
530	0	33456	
531	0	33456	
532	0	33440	
533	0	33418	
534	0	33388	
535	0	33340	
536	0	33348	
537	0	33352	
538	0	33376	
539	0	33346	
540	0	33288	
541	0	33274	
542	0	33324	
543	0	33386	
544	0	33456	
545	0	33524	
546	0	33548	
547	0	33584	
548	0	33588	
549	0	33592	
550	0	33588	
551	0	33580	
552	0	33532	
553	0	33508	
554	0	33520	
555	0	33568	
556	0	33684	
557	0	33760	
558	0	33764	
559	0	33760	
560	0	33752	
561	0	33716	
562	0	33744	
563	0	33802	
564	0	33876	
565	0	33924	
566	0	33954	
567	0	33960	
568	0	34012	
569	0	34048	
570	0	34076	
571	0	34170	
572	0	34276	
573	0	34404	
574	0	34464	
575	0	34464	
576	0	34376	
577	0	34296	
578	0	34180	
579	0	34116	
580	0	34120	
581	0	34124	
582	0	34176	
583	0	34204	
584	0	34200	
585	0	34156	
586	0	34092	
587	0	33984	
588	0	33864	
589	0	33792	
590	0	33804	
591	0	33820	
592	0	33824	
593	0	33768	
594	0	33652	
595	0	33508	
596	0	33392	
597	0	33304	
598	0	33268	
599	0	33276	
600	0	33262	
601	0	33216	
602	0	33184	
603	0	33156	
604	0	33132	
605	0	33088	
606	0	33056	
607	0	33028	
608	0	32948	
609	0	32876	
610	0	32836	
611	0	32840	
612	0	32836	
613	0	32816	
614	0	32772	
615	0	32712	
616	0	32660	
617	0	32624	
618	0	32588	
619	0	32540	
620	0	32516	
621	0	32480	
622	0	32448	
623	0	32416	
624	0	32388	
625	0	32332	
626	0	32268	
627	0	32236	
628	0	32208	
629	0	32176	
630	0	32160	
631	0	32108	
632	0	32060	
633	0	32028	
634	0	32024	
635	0	32008	
636	0	31992	
637	0	31960	
638	0	31936	
639	0	31912	
640	0	31912	
641	0	31928	
642	0	31936	
643	0	31968	
644	0	32004	
645	0	32032	
646	0	32064	
647	0	32072	
648	0	32092	
649	0	32108	
650	0	32120	
651	0	32124	
652	0	32132	
653	0	32128	
654	0	32146	
655	0	32168	
656	0	32172	
657	0	32148	
658	0	32148	
659	0	32160	
660	0	32164	
661	0	32140	
662	0	32144	
663	0	32160	
664	0	32200	
665	0	32240	
666	0	32268	
667	0	32256	
668	0	32232	
669	0	32228	
670	0	32256	
671	0	32262	
672	0	32298	
673	0	32372	
674	0	32388	
675	0	32384	
676	0	32364	
677	0	32348	
678	0	32344	
679	0	32360	
680	0	32340	
681	0	32336	
682	0	32388	
683	0	32416	
684	0	32464	
685	0	32538	
686	0	32596	
687	0	32672	
688	0	32716	
689	0	32716	
690	0	32692	
691	0	32704	
692	0	32700	
693	0	32688	
694	0	32672	
695	0	32648	
696	0	32632	
697	0	32636	
698	0	32660	
699	0	32692	
700	0	32712	
701	0	32700	
702	0	32668	
703	0	32642	
704	0	32584	
705	0	32554	
706	0	32560	
707	0	32570	
708	0	32552	
709	0	32572	
710	0	32620	
711	0	32672	
712	0	32724	
713	0	32760	
714	0	32832	
715	0	32960	
716	0	33116	
717	0	33184	
718	0	33248	
719	0	33224	
720	0	33192	
721	0	33140	
722	0	33076	
723	0	33024	
724	0	32996	
725	0	32992	
726	0	32974	
727	0	32984	
728	0	32996	
729	0	33008	
730	0	33028	
731	0	33020	
732	0	33032	
733	0	33072	
734	0	33148	
735	0	33184	
736	0	33230	
737	0	33284	
738	0	33336	
739	0	33376	
740	0	33372	
741	0	33352	
742	0	33332	
743	0	33306	
744	0	33308	
745	0	33344	
746	0	33356	
747	0	33356	
748	0	33392	
749	0	33384	
750	0	33396	
751	0	33392	
752	0	33356	
753	0	33336	
754	0	33344	
755	0	33376	
756	0	33456	
757	0	33540	
758	0	33612	
759	0	33664	
760	0	33680	
761	0	33632	
762	0	33556	
763	0	33520	
764	0	33460	
765	0	33432	
766	0	33480	
767	0	33508	
768	0	33516	
769	0	33496	
770	0	33506	
771	0	33560	
772	0	33636	
773	0	33708	
774	0	33754	
775	0	33736	
776	0	33712	
777	0	33704	
778	0	33712	
779	0	33658	
780	0	33604	
781	0	33608	
782	0	33616	
783	0	33620	
784	0	33612	
785	0	33584	
786	0	33560	
787	0	33504	
788	0	33420	
789	0	33416	
790	0	33444	
791	0	33508	
792	0	33572	
793	0	33648	
794	0	33640	
795	0	33588	
796	0	33512	
797	0	33410	
798	0	33376	
799	0	33380	
800	0	33364	
801	0	33306	
802	0	33278	
803	0	33248	
804	0	33244	
805	0	33212	
806	0	33156	
807	0	33156	
808	0	33158	
809	0	33192	
810	0	33208	
811	0	33288	
812	0	33332	
813	0	33332	
814	0	33280	
815	0	33236	
816	0	33216	
817	0	33228	
818	0	33200	
819	0	33164	
820	0	33108	
821	0	33048	
822	0	33012	
823	0	32976	
824	0	32968	
825	0	32992	
826	0	33024	
827	0	33100	
828	0	33172	
829	0	33220	
830	0	33240	
831	0	33220	
832	0	33232	
833	0	33216	
834	0	33156	
835	0	33032	
836	0	32916	
837	0	32832	
838	0	32804	
839	0	32784	
840	0	32816	
841	0	32848	
842	0	32904	
843	0	32940	
844	0	32992	
845	0	33050	
846	0	33072	
847	0	33112	
848	0	33168	
849	0	33188	
850	0	33212	
851	0	33168	
852	0	33092	
853	0	33008	
854	0	32940	
855	0	32872	
856	0	32864	
857	0	32868	
858	0	32828	
859	0	32804	
860	0	32808	
861	0	32756	
862	0	32730	
863	0	32796	
864	0	32884	
865	0	32978	
866	0	33128	
867	0	33324	
868	0	33492	
869	0	33636	
870	0	33744	
871	0	33828	
872	0	33888	
873	0	33968	
874	0	34060	
875	0	34184	
876	0	34324	
877	0	34376	
878	0	34352	
879	0	34248	
880	0	34114	
881	0	34058	
882	0	34060	
883	0	34132	
884	0	34236	
885	0	34308	
886	0	34352	
887	0	34400	
888	0	34396	
889	0	34420	
890	0	34444	
891	0	34460	
892	0	34512	
893	0	34620	
894	0	34804	
895	0	35060	
896	0	35328	
897	0	35668	
898	0	36040	
899	0	36332	
900	0	36504	
901	0	36632	
902	0	36776	
903	0	36892	
904	0	36976	
905	0	36990	
906	0	36980	
907	0	36996	
908	0	36972	
909	0	36896	
910	0	36820	
911	0	36720	
912	0	36640	
913	0	36616	
914	0	36548	
915	0	36468	
916	0	36468	
917	0	36514	
918	0	36592	
919	0	36640	
920	0	36636	
921	0	36608	
922	0	36564	
923	0	36472	
924	0	36344	
925	0	36234	
926	0	36088	
927	0	35904	
928	0	35626	
929	0	35312	
930	0	34976	
931	0	34638	
932	0	34292	
933	0	33924	
934	0	33472	
935	0	33040	
936	0	32648	
937	0	32332	
938	0	32088	
939	0	31941	
940	0	31840	
941	0	31732	
942	0	31628	
943	0	31600	
944	0	31620	
945	0	31632	
946	0	31624	
947	0	31584	
948	0	31472	
949	0	31384	
950	0	31272	
951	0	31116	
952	0	30892	
953	0	30648	
954	0	30492	
955	0	30404	
956	0	30402	
957	0	30392	
958	0	30352	
959	0	30392	
960	0	30512	
961	0	30652	
962	0	30800	
963	0	30952	
964	0	31064	
965	0	31064	
966	0	31000	
967	0	30948	
968	0	30924	
969	0	30916	
970	0	30964	
971	0	31048	
972	0	31086	
973	0	31072	
974	0	31040	
975	0	30968	
976	0	30872	
977	0	30800	
978	0	30772	
979	0	30776	
980	0	30824	
981	0	30898	
982	0	30976	
983	0	31024	
984	0	31052	
985	0	31112	
986	0	31128	
987	0	31100	
988	0	31108	
989	0	31144	
990	0	31136	
991	0	31008	
992	0	30824	
993	0	30580	
994	0	30240	
995	0	29830	
996	0	29204	
997	0	28396	
998	0	27468	
999	0	26480	
1000	0	25448	
1001	0	24488	
1002	0	23720	
1003	0	23216	
1004	0	22860	
1005	0	22688	
1006	0	22784	
1007	0	23176	
1008	0	23740	
1009	0	24490	
1010	0	25504	
1011	0	26938	
1012	0	28756	
1013	0	31008	
1014	0	33624	
1015	0	36452	
1016	0	39372	
1017	0	42336	
1018	0	45652	
1019	0	49380	
1020	0	53336	
1021	0	57436	
1022	0	60668	
1023	0	62460	
1024	0	63380	
1025	0	63840	
1026	0	64024	
1027	0	64084	
1028	0	64044	
1029	0	63964	
1030	0	63876	
1031	0	63776	
1032	0	63640	
1033	0	58976	
1034	0	52224	
1035	0	46724	
1036	0	42080	
1037	0	37860	
1038	0	34228	
1039	0	31436	
1040	0	29328	
1041	0	27624	
1042	0	26052	
1043	0	24472	
1044	0	22962	
1045	0	21768	
1046	0	20808	
1047	0	19876	
1048	0	19098	
1049	0	18612	
1050	0	18292	
1051	0	17872	
1052	0	17524	
1053	0	17296	
1054	0	17414	
1055	0	17774	
1056	0	18184	
1057	0	18580	
1058	0	18920	
1059	0	19340	
1060	0	19904	
1061	0	20492	
1062	0	21192	
1063	0	21888	
1064	0	22540	
1065	0	23138	
1066	0	23656	
1067	0	24160	
1068	0	24684	
1069	0	25316	
1070	0	25984	
1071	0	26708	
1072	0	27396	
1073	0	27992	
1074	0	28528	
1075	0	28872	
1076	0	29164	
1077	0	29412	
1078	0	29608	
1079	0	29784	
1080	0	29960	
1081	0	30140	
1082	0	30244	
1083	0	30280	
1084	0	30272	
1085	0	30282	
1086	0	30316	
1087	0	30380	
1088	0	30492	
1089	0	30590	
1090	0	30692	
1091	0	30828	
1092	0	30962	
1093	0	31136	
1094	0	31288	
1095	0	31328	
1096	0	31316	
1097	0	31260	
1098	0	31236	
1099	0	31280	
1100	0	31296	
1101	0	31272	
1102	0	31332	
1103	0	31508	
1104	0	31672	
1105	0	31748	
1106	0	31760	
1107	0	31776	
1108	0	31820	
1109	0	31828	
1110	0	31844	
1111	0	31784	
1112	0	31688	
1113	0	31660	
1114	0	31764	
1115	0	31920	
1116	0	31992	
1117	0	32008	
1118	0	32068	
1119	0	32252	
1120	0	32428	
1121	0	32484	
1122	0	32404	
1123	0	32344	
1124	0	32376	
1125	0	32420	
1126	0	32500	
1127	0	32576	
1128	0	32616	
1129	0	32628	
1130	0	32648	
1131	0	32682	
1132	0	32722	
1133	0	32746	
1134	0	32684	
1135	0	32592	
1136	0	32560	
1137	0	32592	
1138	0	32640	
1139	0	32736	
1140	0	32864	
1141	0	32952	
1142	0	33040	
1143	0	33084	
1144	0	33136	
1145	0	33184	
1146	0	33156	
1147	0	33060	
1148	0	32976	
1149	0	32912	
1150	0	32888	
1151	0	32912	
1152	0	32962	
1153	0	33016	
1154	0	33056	
1155	0	33088	
1156	0	33152	
1157	0	33280	
1158	0	33432	
1159	0	33524	
1160	0	33504	
1161	0	33372	
1162	0	33261	
1163	0	33216	
1164	0	33232	
1165	0	33276	
1166	0	33332	
1167	0	33408	
1168	0	33520	
1169	0	33632	
1170	0	33664	
1171	0	33672	
1172	0	33672	
1173	0	33752	
1174	0	33892	
1175	0	34012	
1176	0	34044	
1177	0	34060	
1178	0	34068	
1179	0	34056	
1180	0	34008	
1181	0	33836	
1182	0	33696	
1183	0	33624	
1184	0	33576	
1185	0	33544	
1186	0	33552	
1187	0	33584	
1188	0	33560	
1189	0	33488	
1190	0	33472	
1191	0	33540	
1192	0	33552	
1193	0	33576	
1194	0	33664	
1195	0	33816	
1196	0	33916	
1197	0	33980	
1198	0	33984	
1199	0	33908	
1200	0	33848	
1201	0	33816	
1202	0	33848	
1203	0	33886	
1204	0	33914	
1205	0	33900	
1206	0	33832	
1207	0	33724	
1208	0	33658	
1209	0	33688	
1210	0	33808	
1211	0	33878	
1212	0	33876	
1213	0	33868	
1214	0	33812	
1215	0	33812	
1216	0	33876	
1217	0	33880	
1218	0	33848	
1219	0	33816	
1220	0	33852	
1221	0	33928	
1222	0	33984	
1223	0	33998	
1224	0	34012	
1225	0	34036	
1226	0	33984	
1227	0	33868	
1228	0	33740	
1229	0	33720	
1230	0	33816	
1231	0	33884	
1232	0	33976	
1233	0	34048	
1234	0	34084	
1235	0	34120	
1236	0	34136	
1237	0	34136	
1238	0	34156	
1239	0	34158	
1240	0	34132	
1241	0	34146	
1242	0	34124	
1243	0	34036	
1244	0	34016	
1245	0	34056	
1246	0	34140	
1247	0	34336	
1248	0	34512	
1249	0	34588	
1250	0	34528	
1251	0	34384	
1252	0	34160	
1253	0	34062	
1254	0	34080	
1255	0	34156	
1256	0	34176	
1257	0	34136	
1258	0	34088	
1259	0	34064	
1260	0	34066	
1261	0	34096	
1262	0	34092	
1263	0	34088	
1264	0	34108	
1265	0	34140	
1266	0	34240	
1267	0	34396	
1268	0	34446	
1269	0	34462	
1270	0	34432	
1271	0	34368	
1272	0	34264	
1273	0	34132	
1274	0	33960	
1275	0	33764	
1276	0	33600	
1277	0	33476	
1278	0	33424	
1279	0	33376	
1280	0	33336	
1281	0	33306	
1282	0	33308	
1283	0	33376	
1284	0	33344	
1285	0	33256	
1286	0	33176	
1287	0	33176	
1288	0	33292	
1289	0	33408	
1290	0	33452	
1291	0	33408	
1292	0	33296	
1293	0	33150	
1294	0	32986	
1295	0	32828	
1296	0	32748	
1297	0	32650	
1298	0	32488	
1299	0	32352	
1300	0	32240	
1301	0	32274	
1302	0	32352	
1303	0	32424	
1304	0	32448	
1305	0	32440	
1306	0	32424	
1307	0	32430	
1308	0	32476	
1309	0	32516	
1310	0	32456	
1311	0	32300	
1312	0	32164	
1313	0	32086	
1314	0	32064	
1315	0	32080	
1316	0	32096	
1317	0	32212	
1318	0	32232	
1319	0	32178	
1320	0	32060	
1321	0	31956	
1322	0	31940	
1323	0	31880	
1324	0	31708	
1325	0	31540	
1326	0	31464	
1327	0	31506	
1328	0	31616	
1329	0	31748	
1330	0	31808	
1331	0	31908	
1332	0	32056	
1333	0	32164	
1334	0	32216	
1335	0	32248	
1336	0	32304	
1337	0	32380	
1338	0	32364	
1339	0	32304	
1340	0	32208	
1341	0	32100	
1342	0	32040	
1343	0	32056	
1344	0	32052	
1345	0	31992	
1346	0	31952	
1347	0	31992	
1348	0	31968	
1349	0	31964	
1350	0	32074	
1351	0	32240	
1352	0	32168	
1353	0	32044	
1354	0	32100	
1355	0	32168	
1356	0	32096	
1357	0	32060	
1358	0	32100	
1359	0	32080	
1360	0	32068	
1361	0	32052	
1362	0	32008	
1363	0	31940	
1364	0	31860	
1365	0	31804	
1366	0	31720	
1367	0	31624	
1368	0	31724	
1369	0	31904	
1370	0	32028	
1371	0	32104	
1372	0	32096	
1373	0	31988	
1374	0	31876	
1375	0	31840	
1376	0	31788	
1377	0	31858	
1378	0	31988	
1379	0	32140	
1380	0	32352	
1381	0	32466	
1382	0	32416	
1383	0	32264	
1384	0	32168	
1385	0	32192	
1386	0	32288	
1387	0	32354	
1388	0	32404	
1389	0	32376	
1390	0	32386	
1391	0	32552	
1392	0	32656	
1393	0	32684	
1394	0	32636	
1395	0	32608	
1396	0	32600	
1397	0	32544	
1398	0	32488	
1399	0	32456	
1400	0	32400	
1401	0	32360	
1402	0	32412	
1403	0	32424	
1404	0	32376	
1405	0	32392	
1406	0	32396	
1407	0	32464	
1408	0	32664	
1409	0	32848	
1410	0	33054	
1411	0	33312	
1412	0	33480	
1413	0	33484	
1414	0	33372	
1415	0	33224	
1416	0	33096	
1417	0	32956	
1418	0	32808	
1419	0	32668	
1420	0	32572	
1421	0	32532	
1422	0	32508	
1423	0	32540	
1424	0	32644	
1425	0	32756	
1426	0	32728	
1427	0	32728	
1428	0	32818	
1429	0	33016	
1430	0	33132	
1431	0	33080	
1432	0	33008	
1433	0	33072	
1434	0	33182	
1435	0	33208	
1436	0	33132	
1437	0	33040	
1438	0	33016	
1439	0	33080	
1440	0	33128	
1441	0	33224	
1442	0	33388	
1443	0	33572	
1444	0	33740	
1445	0	33856	
1446	0	33944	
1447	0	33948	
1448	0	33920	
1449	0	33784	
1450	0	33548	
1451	0	33296	
1452	0	33172	
1453	0	33052	
1454	0	32942	
1455	0	32888	
1456	0	32864	
1457	0	32892	
1458	0	32964	
1459	0	33056	
1460	0	33016	
1461	0	32884	
1462	0	32920	
1463	0	33104	
1464	0	33234	
1465	0	33332	
1466	0	33528	
1467	0	33732	
1468	0	33744	
1469	0	33650	
1470	0	33552	
1471	0	33420	
1472	0	33264	
1473	0	33144	
1474	0	33104	
1475	0	33096	
1476	0	32948	
1477	0	32804	
1478	0	32740	
1479	0	32762	
1480	0	32872	
1481	0	33000	
1482	0	33108	
1483	0	33128	
1484	0	33050	
1485	0	33044	
1486	0	33168	
1487	0	33356	
1488	0	33440	
1489	0	33336	
1490	0	33160	
1491	0	33090	
1492	0	33140	
1493	0	33120	
1494	0	32974	
1495	0	32736	
1496	0	32580	
1497	0	32502	
1498	0	32474	
1499	0	32464	
1500	0	32508	
1501	0	32564	
1502	0	32652	
1503	0	32744	
1504	0	32816	
1505	0	32912	
1506	0	32972	
1507	0	33048	
1508	0	33100	
1509	0	33164	
1510	0	33352	
1511	0	33440	
1512	0	33408	
1513	0	33308	
1514	0	33212	
1515	0	33164	
1516	0	33144	
1517	0	33164	
1518	0	33184	
1519	0	33176	
1520	0	33200	
1521	0	33272	
1522	0	33368	
1523	0	33468	
1524	0	33476	
1525	0	33404	
1526	0	33322	
1527	0	33232	
1528	0	33172	
1529	0	33152	
1530	0	33224	
1531	0	33392	
1532	0	33532	
1533	0	33608	
1534	0	33600	
1535	0	33560	
1536	0	33544	
1537	0	33562	
1538	0	33604	
1539	0	33596	
1540	0	33608	
1541	0	33680	
1542	0	33696	
1543	0	33764	
1544	0	33934	
1545	0	34148	
1546	0	34452	
1547	0	34804	
1548	0	35180	
1549	0	35564	
1550	0	35940	
1551	0	36218	
1552	0	36376	
1553	0	36480	
1554	0	36568	
1555	0	36572	
1556	0	36584	
1557	0	36488	
1558	0	36284	
1559	0	36192	
1560	0	36192	
1561	0	36224	
1562	0	36204	
1563	0	36124	
1564	0	35976	
1565	0	35852	
1566	0	35784	
1567	0	35736	
1568	0	35768	
1569	0	35898	
1570	0	36056	
1571	0	36120	
1572	0	36184	
1573	0	36240	
1574	0	36250	
1575	0	36212	
1576	0	36088	
1577	0	35792	
1578	0	35466	
1579	0	35204	
1580	0	34908	
1581	0	34464	
1582	0	34068	
1583	0	33896	
1584	0	33886	
1585	0	33868	
1586	0	33700	
1587	0	33408	
1588	0	32968	
1589	0	32472	
1590	0	32132	
1591	0	31912	
1592	0	31736	
1593	0	31560	
1594	0	31392	
1595	0	31244	
1596	0	31188	
1597	0	31172	
1598	0	31304	
1599	0	31512	
1600	0	31676	
1601	0	31660	
1602	0	31460	
1603	0	31208	
1604	0	30928	
1605	0	30664	
1606	0	30452	
1607	0	30368	
1608	0	30296	
1609	0	30248	
1610	0	30202	
1611	0	30180	
1612	0	30148	
1613	0	30176	
1614	0	30204	
1615	0	30212	
1616	0	30248	
1617	0	30272	
1618	0	30348	
1619	0	30514	
1620	0	30601	
1621	0	30568	
1622	0	30548	
1623	0	30584	
1624	0	30632	
1625	0	30740	
1626	0	30842	
1627	0	30900	
1628	0	30906	
1629	0	30884	
1630	0	30832	
1631	0	30788	
1632	0	30728	
1633	0	30736	
1634	0	30848	
1635	0	30912	
1636	0	30736	
1637	0	30572	
1638	0	30596	
1639	0	30712	
1640	0	30808	
1641	0	30864	
1642	0	30884	
1643	0	30896	
1644	0	30732	
1645	0	30444	
1646	0	30158	
1647	0	29864	
1648	0	29364	
1649	0	28580	
1650	0	27724	
1651	0	26916	
1652	0	26088	
1653	0	25280	
1654	0	24666	
1655	0	24280	
1656	0	24020	
1657	0	23794	
1658	0	23776	
1659	0	24056	
1660	0	24500	
1661	0	25050	
1662	0	25856	
1663	0	27128	
1664	0	28832	
1665	0	30804	
1666	0	33176	
1667	0	35844	
1668	0	38660	
1669	0	41552	
1670	0	44580	
1671	0	47920	
1672	0	51472	
1673	0	55140	
1674	0	58840	
1675	0	61384	
1676	0	62764	
1677	0	63456	
1678	0	63784	
1679	0	63904	
1680	0	63916	
1681	0	63852	
1682	0	63788	
1683	0	63680	
1684	0	63576	
1685	0	59988	
1686	0	51948	
1687	0	45416	
1688	0	40128	
1689	0	35714	
1690	0	31904	
1691	0	29156	
1692	0	27604	
1693	0	26756	
1694	0	26052	
1695	0	25268	
1696	0	24220	
1697	0	22840	
1698	0	21322	
1699	0	20004	
1700	0	18986	
1701	0	18204	
1702	0	17776	
1703	0	17541	
1704	0	17442	
1705	0	17336	
1706	0	17252	
1707	0	17252	
1708	0	17432	
1709	0	17777	
1710	0	18284	
1711	0	18890	
1712	0	19388	
1713	0	19744	
1714	0	20108	
1715	0	20500	
1716	0	20984	
1717	0	21464	
1718	0	22028	
1719	0	22714	
1720	0	23356	
1721	0	24008	
1722	0	24624	
1723	0	25268	
1724	0	25896	
1725	0	26558	
1726	0	27236	
1727	0	27840	
1728	0	28372	
1729	0	28804	
1730	0	29112	
1731	0	29392	
1732	0	29664	
1733	0	29850	
1734	0	29980	
1735	0	30072	
1736	0	30156	
1737	0	30260	
1738	0	30376	
1739	0	30536	
1740	0	30692	
1741	0	30796	
1742	0	30916	
1743	0	31128	
1744	0	31288	
1745	0	31312	
1746	0	31232	
1747	0	31196	
1748	0	31236	
1749	0	31256	
1750	0	31280	
1751	0	31350	
1752	0	31436	
1753	0	31508	
1754	0	31552	
1755	0	31564	
1756	0	31564	
1757	0	31592	
1758	0	31600	
1759	0	31642	
1760	0	31778	
1761	0	31944	
1762	0	32052	
1763	0	32032	
1764	0	31988	
1765	0	32000	
1766	0	32096	
1767	0	32188	
1768	0	32252	
1769	0	32304	
1770	0	32328	
1771	0	32334	
1772	0	32340	
1773	0	32336	
1774	0	32338	
1775	0	32360	
1776	0	32372	
1777	0	32404	
1778	0	32468	
1779	0	32560	
1780	0	32592	
1781	0	32544	
1782	0	32464	
1783	0	32456	
1784	0	32588	
1785	0	32744	
1786	0	32864	
1787	0	32946	
1788	0	33020	
1789	0	33120	
1790	0	33152	
1791	0	33100	
1792	0	32968	
1793	0	32916	
1794	0	32916	
1795	0	32936	
1796	0	32976	
1797	0	33068	
1798	0	33136	
1799	0	33154	
1800	0	33180	
1801	0	33272	
1802	0	33416	
1803	0	33492	
1804	0	33496	
1805	0	33472	
1806	0	33412	
1807	0	33364	
1808	0	33408	
1809	0	33512	
1810	0	33568	
1811	0	33600	
1812	0	33576	
1813	0	33536	
1814	0	33552	
1815	0	33616	
1816	0	33692	
1817	0	33728	
1818	0	33752	
1819	0	33776	
1820	0	33796	
1821	0	33746	
1822	0	33740	
1823	0	33768	
1824	0	33744	
1825	0	33728	
1826	0	33744	
1827	0	33836	
1828	0	33892	
1829	0	33898	
1830	0	33848	
1831	0	33848	
1832	0	33896	
1833	0	33936	
1834	0	33908	
1835	0	33856	
1836	0	33784	
1837	0	33784	
1838	0	33796	
1839	0	33780	
1840	0	33876	
1841	0	34000	
1842	0	34008	
1843	0	33964	
1844	0	33928	
1845	0	33912	
1846	0	33906	
1847	0	33852	
1848	0	33800	
1849	0	33788	
1850	0	33848	
1851	0	33960	
1852	0	34012	
1853	0	33980	
1854	0	33860	
1855	0	33744	
1856	0	33752	
1857	0	33880	
1858	0	33984	
1859	0	34024	
1860	0	34096	
1861	0	34144	
1862	0	34148	
1863	0	34128	
1864	0	34056	
1865	0	34020	
1866	0	34032	
1867	0	34004	
1868	0	33976	
1869	0	33916	
1870	0	33812	
1871	0	33724	
1872	0	33732	
1873	0	33824	
1874	0	33952	
1875	0	34016	
1876	0	34024	
1877	0	34016	
1878	0	33972	
1879	0	33912	
1880	0	33868	
1881	0	33888	
1882	0	33916	
1883	0	33904	
1884	0	33900	
1885	0	33940	
1886	0	34028	
1887	0	34104	
1888	0	34156	
1889	0	34144	
1890	0	34112	
1891	0	34080	
1892	0	34048	
1893	0	34044	
1894	0	34008	
1895	0	33988	
1896	0	34032	
1897	0	34016	
1898	0	34004	
1899	0	33968	
1900	0	33968	
1901	0	34028	
1902	0	34096	
1903	0	34144	
1904	0	34164	
1905	0	34220	
1906	0	34228	
1907	0	34152	
1908	0	34066	
1909	0	34012	
1910	0	34020	
1911	0	34076	
1912	0	34168	
1913	0	34244	
1914	0	34256	
1915	0	34202	
1916	0	34104	
1917	0	34046	
1918	0	34060	
1919	0	34048	
1920	0	34008	
1921	0	33972	
1922	0	33948	
1923	0	33880	
1924	0	33776	
1925	0	33716	
1926	0	33644	
1927	0	33544	
1928	0	33440	
1929	0	33364	
1930	0	33312	
1931	0	33280	
1932	0	33200	
1933	0	33150	
1934	0	33056	
1935	0	32968	
1936	0	32960	
1937	0	32992	
1938	0	33018	
1939	0	33032	
1940	0	33060	
1941	0	33088	
1942	0	33064	
1943	0	32968	
1944	0	32904	
1945	0	32840	
1946	0	32812	
1947	0	32760	
1948	0	32688	
1949	0	32604	
1950	0	32468	
1951	0	32348	
1952	0	32240	
1953	0	32152	
1954	0	32132	
1955	0	32112	
1956	0	32080	
1957	0	32096	
1958	0	32092	
1959	0	32060	
1960	0	32060	
1961	0	32092	
1962	0	32112	
1963	0	32136	
1964	0	32100	
1965	0	32028	
1966	0	31984	
1967	0	32024	
1968	0	32100	
1969	0	32152	
1970	0	32184	
1971	0	32224	
1972	0	32176	
1973	0	32108	
1974	0	32008	
1975	0	31942	
1976	0	31948	
1977	0	31936	
1978	0	31888	
1979	0	31856	
1980	0	31852	
1981	0	31816	
1982	0	31808	
1983	0	31840	
1984	0	31884	
1985	0	31920	
1986	0	31932	
1987	0	31924	
1988	0	31920	
1989	0	31904	
1990	0	31922	
1991	0	31972	
1992	0	32020	
1993	0	32048	
1994	0	32080	
1995	0	32072	
1996	0	32000	
1997	0	31924	
1998	0	31856	
1999	0	31844	
2000	0	31808	
2001	0	31788	
2002	0	31746	
2003	0	31720	
2004	0	31684	
2005	0	31664	
2006	0	31712	
2007	0	31792	
2008	0	31844	
2009	0	31884	
2010	0	31948	
2011	0	32008	
2012	0	32076	
2013	0	32100	
2014	0	32052	
2015	0	32000	
2016	0	31920	
2017	0	31884	
2018	0	31864	
2019	0	31888	
2020	0	31904	
2021	0	31936	
2022	0	31962	
2023	0	31936	
2024	0	31904	
2025	0	31884	
2026	0	31912	
2027	0	31952	
2028	0	32008	
2029	0	32032	
2030	0	32026	
2031	0	32064	
2032	0	32088	
2033	0	32064	
2034	0	32060	
2035	0	32048	
2036	0	32016	
2037	0	31976	
2038	0	31984	
2039	0	32016	
2040	0	32044	
2041	0	32104	
2042	0	32196	
2043	0	32288	
2044	0	32304	
2045	0	32244	
2046	0	32216	
2047	0	32192	
2048	0	32232	
2049	0	32304	
2050	0	32404	
2051	0	32476	
2052	0	32544	
2053	0	32612	
2054	0	32628	
2055	0	32600	
2056	0	32588	
2057	0	32580	
2058	0	32600	
2059	0	32612	
2060	0	32620	
2061	0	32636	
2062	0	32692	
2063	0	32740	
2064	0	32772	
2065	0	32768	
2066	0	32748	
2067	0	32720	
2068	0	32712	
2069	0	32672	
2070	0	32636	
2071	0	32576	
2072	0	32552	
2073	0	32568	
2074	0	32620	
2075	0	32678	
2076	0	32776	
2077	0	32864	
2078	0	32932	
2079	0	33024	
2080	0	33076	
2081	0	33088	
2082	0	33044	
2083	0	33010	
2084	0	33008	
2085	0	33028	
2086	0	33056	
2087	0	33104	
2088	0	33120	
2089	0	33160	
2090	0	33216	
2091	0	33228	
2092	0	33228	
2093	0	33220	
2094	0	33224	
2095	0	33240	
2096	0	33276	
2097	0	33344	
2098	0	33386	
2099	0	33376	
2100	0	33348	
2101	0	33304	
2102	0	33242	
2103	0	33180	
2104	0	33152	
2105	0	33136	
2106	0	33148	
2107	0	33208	
2108	0	33236	
2109	0	33328	
2110	0	33396	
2111	0	33410	
2112	0	33364	
2113	0	33344	
2114	0	33348	
2115	0	33312	
2116	0	33244	
2117	0	33200	
2118	0	33148	
2119	0	33144	
2120	0	33136	
2121	0	33124	
2122	0	33112	
2123	0	33098	
2124	0	33088	
2125	0	33092	
2126	0	33108	
2127	0	33116	
2128	0	33136	
2129	0	33204	
2130	0	33238	
2131	0	33216	
2132	0	33216	
2133	0	33176	
2134	0	33096	
2135	0	33064	
2136	0	33050	
2137	0	33068	
2138	0	33088	
2139	0	33096	
2140	0	33114	
2141	0	33144	
2142	0	33172	
2143	0	33168	
2144	0	33128	
2145	0	33048	
2146	0	32992	
2147	0	32972	
2148	0	32964	
2149	0	32940	
2150	0	32936	
2151	0	32960	
2152	0	32992	
2153	0	32988	
2154	0	32956	
2155	0	32928	
2156	0	32900	
2157	0	32844	
2158	0	32808	
2159	0	32824	
2160	0	32856	
2161	0	32882	
2162	0	32904	
2163	0	32920	
2164	0	32928	
2165	0	32968	
2166	0	32996	
2167	0	33012	
2168	0	33000	
2169	0	33024	
2170	0	33140	
2171	0	33232	
2172	0	33316	
2173	0	33440	
2174	0	33532	
2175	0	33620	
2176	0	33752	
2177	0	33912	
2178	0	33988	
2179	0	34008	
2180	0	34032	
2181	0	34088	
2182	0	34124	
2183	0	34110	
2184	0	34076	
2185	0	34060	
2186	0	34068	
2187	0	34044	
2188	0	34036	
2189	0	34048	
2190	0	34064	
2191	0	34068	
2192	0	34104	
2193	0	34152	
2194	0	34234	
2195	0	34338	
2196	0	34532	
2197	0	34822	
2198	0	35148	
2199	0	35460	
2200	0	35780	
2201	0	36052	
2202	0	36300	
2203	0	36504	
2204	0	36662	
2205	0	36812	
2206	0	36904	
2207	0	36888	
2208	0	36844	
2209	0	36804	
2210	0	36784	
2211	0	36764	
2212	0	36684	
2213	0	36586	
2214	0	36480	
2215	0	36370	
2216	0	36272	
2217	0	36208	
2218	0	36160	
2219	0	36144	
2220	0	36144	
2221	0	36144	
2222	0	36120	
2223	0	36040	
2224	0	35964	
2225	0	35888	
2226	0	35808	
2227	0	35712	
2228	0	35580	
2229	0	35432	
2230	0	35280	
2231	0	35160	
2232	0	34968	
2233	0	34796	
2234	0	34588	
2235	0	34316	
2236	0	33900	
2237	0	33424	
2238	0	32956	
2239	0	32536	
2240	0	32184	
2241	0	31884	
2242	0	31612	
2243	0	31420	
2244	0	31284	
2245	0	31188	
2246	0	31152	
2247	0	31120	
2248	0	31080	
2249	0	30976	
2250	0	30852	
2251	0	30680	
2252	0	30532	
2253	0	30440	
2254	0	30380	
2255	0	30320	
2256	0	30264	
2257	0	30232	
2258	0	30216	
2259	0	30168	
2260	0	30160	
2261	0	30180	
2262	0	30176	
2263	0	30208	
2264	0	30252	
2265	0	30280	
2266	0	30328	
2267	0	30356	
2268	0	30388	
2269	0	30424	
2270	0	30434	
2271	0	30432	
2272	0	30472	
2273	0	30500	
2274	0	30516	
2275	0	30528	
2276	0	30528	
2277	0	30488	
2278	0	30488	
2279	0	30512	
2280	0	30508	
2281	0	30496	
2282	0	30504	
2283	0	30536	
2284	0	30560	
2285	0	30540	
2286	0	30544	
2287	0	30528	
2288	0	30516	
2289	0	30476	
2290	0	30472	
2291	0	30500	
2292	0	30508	
2293	0	30508	
2294	0	30520	
2295	0	30452	
2296	0	30336	
2297	0	30084	
2298	0	29728	
2299	0	29148	
2300	0	28332	
2301	0	27408	
2302	0	26432	
2303	0	25444	
2304	0	24496	
2305	0	23628	
2306	0	22940	
2307	0	22528	
2308	0	22224	
2309	0	22156	
2310	0	22332	
2311	0	22768	
2312	0	23384	
2313	0	24108	
2314	0	25112	
2315	0	26624	
2316	0	28536	
2317	0	30860	
2318	0	33488	
2319	0	36344	
2320	0	39340	
2321	0	42560	
2322	0	46252	
2323	0	50224	
2324	0	54424	
2325	0	58516	
2326	0	61328	
2327	0	62832	
2328	0	63616	
2329	0	63988	
2330	0	64120	
2331	0	64136	
2332	0	64120	
2333	0	64008	
2334	0	63920	
2335	0	63800	
2336	0	63688	
2337	0	58344	
2338	0	51800	
2339	0	46532	
2340	0	42364	
2341	0	38468	
2342	0	34692	
2343	0	31616	
2344	0	29280	
2345	0	27356	
2346	0	25500	
2347	0	23870	
2348	0	22572	
2349	0	21512	
2350	0	20576	
2351	0	19792	
2352	0	19208	
2353	0	18752	
2354	0	18320	
2355	0	17882	
2356	0	17660	
2357	0	17722	
2358	0	18112	
2359	0	18630	
2360	0	19022	
2361	0	19324	
2362	0	19736	
2363	0	20180	
2364	0	20686	
2365	0	21240	
2366	0	21802	
2367	0	22340	
2368	0	22844	
2369	0	23336	
2370	0	23896	
2371	0	24524	
2372	0	25212	
2373	0	25960	
2374	0	26628	
2375	0	27212	
2376	0	27720	
2377	0	28152	
2378	0	28496	
2379	0	28788	
2380	0	29038	
2381	0	29232	
2382	0	29376	
2383	0	29504	
2384	0	29608	
2385	0	29700	
2386	0	29744	
2387	0	29776	
2388	0	29824	
2389	0	29928	
2390	0	29996	
2391	0	30052	
2392	0	30112	
2393	0	30168	
2394	0	30240	
2395	0	30284	
2396	0	30314	
2397	0	30364	
2398	0	30428	
2399	0	30494	
2400	0	30536	
2401	0	30592	
2402	0	30650	
2403	0	30738	
2404	0	30836	
2405	0	30904	
2406	0	30936	
2407	0	30988	
2408	0	31036	
2409	0	31096	
2410	0	31144	
2411	0	31204	
2412	0	31232	
2413	0	31224	
2414	0	31252	
2415	0	31328	
2416	0	31432	
2417	0	31482	
2418	0	31488	
2419	0	31500	
2420	0	31520	
2421	0	31566	
2422	0	31630	
2423	0	31720	
2424	0	31756	
2425	0	31780	
2426	0	31808	
2427	0	31868	
2428	0	31880	
2429	0	31924	
2430	0	31956	
2431	0	31980	
2432	0	32012	
2433	0	32048	
2434	0	32056	
2435	0	32076	
2436	0	32098	
2437	0	32124	
2438	0	32142	
2439	0	32160	
2440	0	32214	
2441	0	32288	
2442	0	32332	
2443	0	32360	
2444	0	32388	
2445	0	32392	
2446	0	32416	
2447	0	32484	
2448	0	32552	
2449	0	32608	
2450	0	32672	
2451	0	32652	
2452	0	32612	
2453	0	32608	
2454	0	32632	
2455	0	32648	
2456	0	32664	
2457	0	32636	
2458	0	32628	
2459	0	32664	
2460	0	32694	
2461	0	32728	
2462	0	32744	
2463	0	32760	
2464	0	32816	
2465	0	32840	
2466	0	32872	
2467	0	32872	
2468	0	32868	
2469	0	32884	
2470	0	32896	
2471	0	32918	
2472	0	32928	
2473	0	32924	
2474	0	32926	
2475	0	32948	
2476	0	32972	
2477	0	32996	
2478	0	33008	
2479	0	33020	
2480	0	33050	
2481	0	33044	
2482	0	33036	
2483	0	33036	
2484	0	33080	
2485	0	33120	
2486	0	33128	
2487	0	33136	
2488	0	33160	
2489	0	33184	
2490	0	33148	
2491	0	33116	
2492	0	33112	
2493	0	33112	
2494	0	33136	
2495	0	33128	
2496	0	33124	
2497	0	33100	
2498	0	33064	
2499	0	33060	
2500	0	33072	
2501	0	33100	
2502	0	33080	
2503	0	33040	
2504	0	33056	
2505	0	33094	
2506	0	33124	
2507	0	33120	
2508	0	33096	
2509	0	33084	
2510	0	33096	
2511	0	33112	
2512	0	33108	
2513	0	33122	
2514	0	33144	
2515	0	33168	
2516	0	33152	
2517	0	33128	
2518	0	33096	
2519	0	33032	
2520	0	32972	
2521	0	32928	
2522	0	32896	
2523	0	32892	
2524	0	32964	
2525	0	33024	
2526	0	33058	
2527	0	33080	
2528	0	33072	
2529	0	33048	
2530	0	33022	
2531	0	33012	
2532	0	33004	
2533	0	33004	
2534	0	33020	
2535	0	33032	
2536	0	33084	
2537	0	33132	
2538	0	33172	
2539	0	33218	
2540	0	33252	
2541	0	33264	
2542	0	33268	
2543	0	33248	
2544	0	33228	
2545	0	33220	
2546	0	33224	
2547	0	33280	
2548	0	33328	
2549	0	33356	
2550	0	33400	
2551	0	33408	
2552	0	33404	
2553	0	33376	
2554	0	33392	
2555	0	33448	
2556	0	33512	
2557	0	33576	
2558	0	33604	
2559	0	33648	
2560	0	33672	
2561	0	33712	
2562	0	33756	
2563	0	33784	
2564	0	33824	
2565	0	33856	
2566	0	33886	
2567	0	33912	
2568	0	33898	
2569	0	33856	
2570	0	33824	
2571	0	33804	
2572	0	33780	
2573	0	33728	
2574	0	33696	
2575	0	33660	
2576	0	33592	
2577	0	33544	
2578	0	33496	
2579	0	33472	
2580	0	33432	
2581	0	33384	
2582	0	33340	
2583	0	33256	
2584	0	33176	
2585	0	33140	
2586	0	33112	
2587	0	33080	
2588	0	33056	
2589	0	33044	
2590	0	33012	
2591	0	32968	
2592	0	32920	
2593	0	32854	
2594	0	32824	
2595	0	32824	
2596	0	32816	
2597	0	32800	
2598	0	32752	
2599	0	32672	
2600	0	32554	
2601	0	32480	
2602	0	32494	
2603	0	32512	
2604	0	32496	
2605	0	32448	
2606	0	32388	
2607	0	32328	
2608	0	32336	
2609	0	32372	
2610	0	32356	
2611	0	32332	
2612	0	32322	
2613	0	32332	
2614	0	32360	
2615	0	32348	
2616	0	32320	
2617	0	32290	
2618	0	32256	
2619	0	32232	
2620	0	32200	
2621	0	32156	
2622	0	32144	
2623	0	32156	
2624	0	32164	
2625	0	32156	
2626	0	32128	
2627	0	32108	
2628	0	32088	
2629	0	32088	
2630	0	32100	
2631	0	32112	
2632	0	32084	
2633	0	32064	
2634	0	32060	
2635	0	32064	
2636	0	32064	
2637	0	32056	
2638	0	32052	
2639	0	32090	
2640	0	32128	
2641	0	32172	
2642	0	32200	
2643	0	32208	
2644	0	32208	
2645	0	32208	
2646	0	32222	
2647	0	32180	
2648	0	32152	
2649	0	32160	
2650	0	32180	
2651	0	32192	
2652	0	32208	
2653	0	32180	
2654	0	32136	
2655	0	32136	
2656	0	32152	
2657	0	32172	
2658	0	32200	
2659	0	32196	
2660	0	32196	
2661	0	32184	
2662	0	32196	
2663	0	32244	
2664	0	32256	
2665	0	32288	
2666	0	32336	
2667	0	32352	
2668	0	32392	
2669	0	32446	
2670	0	32476	
2671	0	32472	
2672	0	32456	
2673	0	32470	
2674	0	32464	
2675	0	32458	
2676	0	32448	
2677	0	32444	
2678	0	32468	
2679	0	32492	
2680	0	32520	
2681	0	32544	
2682	0	32588	
2683	0	32656	
2684	0	32698	
2685	0	32700	
2686	0	32712	
2687	0	32736	
2688	0	32756	
2689	0	32776	
2690	0	32774	
2691	0	32752	
2692	0	32752	
2693	0	32724	
2694	0	32728	
2695	0	32756	
2696	0	32804	
2697	0	32828	
2698	0	32836	
2699	0	32836	
2700	0	32868	
2701	0	32924	
2702	0	32912	
2703	0	32908	
2704	0	32900	
2705	0	32888	
2706	0	32888	
2707	0	32896	
2708	0	32924	
2709	0	32968	
2710	0	32996	
2711	0	33004	
2712	0	33008	
2713	0	33032	
2714	0	33068	
2715	0	33104	
2716	0	33108	
2717	0	33096	
2718	0	33108	
2719	0	33176	
2720	0	33244	
2721	0	33288	
2722	0	33300	
2723	0	33304	
2724	0	33342	
2725	0	33312	
2726	0	33272	
2727	0	33264	
2728	0	33276	
2729	0	33312	
2730	0	33352	
2731	0	33364	
2732	0	33374	
2733	0	33376	
2734	0	33412	
2735	0	33444	
2736	0	33460	
2737	0	33436	
2738	0	33388	
2739	0	33336	
2740	0	33308	
2741	0	33332	
2742	0	33344	
2743	0	33360	
2744	0	33336	
2745	0	33332	
2746	0	33344	
2747	0	33364	
2748	0	33352	
2749	0	33312	
2750	0	33276	
2751	0	33272	
2752	0	33296	
2753	0	33304	
2754	0	33300	
2755	0	33314	
2756	0	33340	
2757	0	33356	
2758	0	33324	
2759	0	33288	
2760	0	33288	
2761	0	33280	
2762	0	33280	
2763	0	33292	
2764	0	33300	
2765	0	33272	
2766	0	33264	
2767	0	33260	
2768	0	33284	
2769	0	33252	
2770	0	33212	
2771	0	33194	
2772	0	33224	
2773	0	33224	
2774	0	33204	
2775	0	33208	
2776	0	33232	
2777	0	33236	
2778	0	33216	
2779	0	33184	
2780	0	33192	
2781	0	33212	
2782	0	33216	
2783	0	33220	
2784	0	33176	
2785	0	33140	
2786	0	33116	
2787	0	33102	
2788	0	33104	
2789	0	33124	
2790	0	33116	
2791	0	33092	
2792	0	33042	
2793	0	33016	
2794	0	33036	
2795	0	33072	
2796	0	33028	
2797	0	33004	
2798	0	33004	
2799	0	33020	
2800	0	33044	
2801	0	33036	
2802	0	33032	
2803	0	33060	
2804	0	33018	
2805	0	32984	
2806	0	32986	
2807	0	33008	
2808	0	32968	
2809	0	32922	
2810	0	32924	
2811	0	32936	
2812	0	32920	
2813	0	32892	
2814	0	32892	
2815	0	32900	
2816	0	32932	
2817	0	32920	
2818	0	32890	
2819	0	32836	
2820	0	32792	
2821	0	32776	
2822	0	32776	
2823	0	32784	
2824	0	32772	
2825	0	32748	
2826	0	32768	
2827	0	32836	
2828	0	32860	
2829	0	32832	
2830	0	32788	
2831	0	32716	
2832	0	32664	
2833	0	32660	
2834	0	32680	
2835	0	32736	
2836	0	32768	
2837	0	32780	
2838	0	32792	
2839	0	32796	
2840	0	32776	
2841	0	32808	
2842	0	32876	
2843	0	32960	
2844	0	32996	
2845	0	32972	
2846	0	32960	
2847	0	33004	
2848	0	33032	
2849	0	33112	
2850	0	33220	
2851	0	33372	
2852	0	33512	
2853	0	33636	
2854	0	33800	
2855	0	33972	
2856	0	34168	
2857	0	34240	
2858	0	34280	
2859	0	34372	
2860	0	34428	
2861	0	34468	
2862	0	34512	
2863	0	34504	
2864	0	34444	
2865	0	34368	
2866	0	34320	
2867	0	34296	
2868	0	34320	
2869	0	34376	
2870	0	34368	
2871	0	34372	
2872	0	34408	
2873	0	34464	
2874	0	34580	
2875	0	34808	
2876	0	35088	
2877	0	35352	
2878	0	35664	
2879	0	36004	
2880	0	36284	
2881	0	36512	
2882	0	36684	
2883	0	36832	
2884	0	36928	
2885	0	37028	
2886	0	37052	
2887	0	37060	
2888	0	37128	
2889	0	37144	
2890	0	37104	
2891	0	37056	
2892	0	36956	
2893	0	36824	
2894	0	36664	
2895	0	36500	
2896	0	36394	
2897	0	36360	
2898	0	36356	
2899	0	36360	
2900	0	36332	
2901	0	36304	
2902	0	36292	
2903	0	36316	
2904	0	36232	
2905	0	36068	
2906	0	35944	
2907	0	35800	
2908	0	35676	
2909	0	35544	
2910	0	35342	
2911	0	35108	
2912	0	34808	
2913	0	34464	
2914	0	34080	
2915	0	33640	
2916	0	33192	
2917	0	32784	
2918	0	32404	
2919	0	32088	
2920	0	31850	
2921	0	31684	
2922	0	31560	
2923	0	31432	
2924	0	31368	
2925	0	31356	
2926	0	31332	
2927	0	31280	
2928	0	31236	
2929	0	31168	
2930	0	31068	
2931	0	30920	
2932	0	30744	
2933	0	30620	
2934	0	30572	
2935	0	30524	
2936	0	30472	
2937	0	30360	
2938	0	30304	
2939	0	30280	
2940	0	30272	
2941	0	30324	
2942	0	30416	
2943	0	30504	
2944	0	30520	
2945	0	30488	
2946	0	30496	
2947	0	30536	
2948	0	30608	
2949	0	30632	
2950	0	30632	
2951	0	30620	
2952	0	30632	
2953	0	30656	
2954	0	30636	
2955	0	30664	
2956	0	30722	
2957	0	30792	
2958	0	30832	
2959	0	30864	
2960	0	30872	
2961	0	30856	
2962	0	30788	
2963	0	30732	
2964	0	30688	
2965	0	30672	
2966	0	30680	
2967	0	30708	
2968	0	30768	
2969	0	30832	
2970	0	30864	
2971	0	30904	
2972	0	30920	
2973	0	30880	
2974	0	30756	
2975	0	30508	
2976	0	30140	
2977	0	29604	
2978	0	28820	
2979	0	27848	
2980	0	26820	
2981	0	25720	
2982	0	24624	
2983	0	23640	
2984	0	22824	
2985	0	22244	
2986	0	21854	
2987	0	21644	
2988	0	21660	
2989	0	21962	
2990	0	22524	
2991	0	23152	
2992	0	24024	
2993	0	25464	
2994	0	27292	
2995	0	29536	
2996	0	32044	
2997	0	34864	
2998	0	38036	
2999	0	41400	
3000	0	45188	
3001	0	49272	
3002	0	53560	
3003	0	57768	
3004	0	60976	
3005	0	62740	
3006	0	63636	
3007	0	64092	
3008	0	64264	
3009	0	64312	
3010	0	64284	
3011	0	64200	
3012	0	64096	
3013	0	63992	
3014	0	63878	
3015	0	63760	
3016	0	57176	
3017	0	51956	
3018	0	47984	
3019	0	44052	
3020	0	39840	
3021	0	36000	
3022	0	32880	
3023	0	30240	
3024	0	27768	
3025	0	25716	
3026	0	24100	
3027	0	22818	
3028	0	21828	
3029	0	21056	
3030	0	20376	
3031	0	19836	
3032	0	19432	
3033	0	19032	
3034	0	18824	
3035	0	18914	
3036	0	19236	
3037	0	19666	
3038	0	19956	
3039	0	20140	
3040	0	20368	
3041	0	20728	
3042	0	21184	
3043	0	21672	
3044	0	22176	
3045	0	22596	
3046	0	23000	
3047	0	23408	
3048	0	23954	
3049	0	24608	
3050	0	25316	
3051	0	26014	
3052	0	26644	
3053	0	27200	
3054	0	27668	
3055	0	28048	
3056	0	28392	
3057	0	28696	
3058	0	28932	
3059	0	29124	
3060	0	29284	
3061	0	29376	
3062	0	29408	
3063	0	29400	
3064	0	29416	
3065	0	29432	
3066	0	29496	
3067	0	29560	
3068	0	29640	
3069	0	29724	
3070	0	29796	
3071	0	29864	
3072	0	29928	
3073	0	30008	
3074	0	30080	
3075	0	30160	
3076	0	30224	
3077	0	30296	
3078	0	30376	
3079	0	30460	
3080	0	30464	
3081	0	30476	
3082	0	30504	
3083	0	30590	
3084	0	30688	
3085	0	30760	
3086	0	30816	
3087	0	30856	
3088	0	30892	
3089	0	30976	
3090	0	31076	
3091	0	31144	
3092	0	31160	
3093	0	31180	
3094	0	31208	
3095	0	31266	
3096	0	31328	
3097	0	31372	
3098	0	31400	
3099	0	31420	
3100	0	31450	
3101	0	31528	
3102	0	31592	
3103	0	31644	
3104	0	31660	
3105	0	31692	
3106	0	31696	
3107	0	31700	
3108	0	31712	
3109	0	31756	
3110	0	31786	
3111	0	31816	
3112	0	31836	
3113	0	31888	
3114	0	31956	
3115	0	32018	
3116	0	32056	
3117	0	32090	
3118	0	32136	
3119	0	32120	
3120	0	32112	
3121	0	32128	
3122	0	32132	
3123	0	32148	
3124	0	32180	
3125	0	32228	
3126	0	32304	
3127	0	32352	
3128	0	32388	
3129	0	32418	
3130	0	32424	
3131	0	32440	
3132	0	32450	
3133	0	32456	
3134	0	32472	
3135	0	32464	
3136	0	32480	
3137	0	32516	
3138	0	32552	
3139	0	32620	
3140	0	32668	
3141	0	32720	
3142	0	32740	
3143	0	32748	
3144	0	32716	
3145	0	32680	
3146	0	32664	
3147	0	32676	
3148	0	32680	
3149	0	32672	
3150	0	32700	
3151	0	32752	
3152	0	32816	
3153	0	32864	
3154	0	32864	
3155	0	32860	
3156	0	32874	
3157	0	32876	
3158	0	32868	
3159	0	32868	
3160	0	32860	
3161	0	32852	
3162	0	32816	
3163	0	32796	
3164	0	32812	
3165	0	32844	
3166	0	32884	
3167	0	32916	
3168	0	32968	
3169	0	32992	
3170	0	33004	
3171	0	33024	
3172	0	33036	
3173	0	33032	
3174	0	33018	
3175	0	33016	
3176	0	32980	
3177	0	32954	
3178	0	32956	
3179	0	32948	
3180	0	32962	
3181	0	32972	
3182	0	32996	
3183	0	32964	
3184	0	32956	
3185	0	32964	
3186	0	32960	
3187	0	32968	
3188	0	32956	
3189	0	32972	
3190	0	32948	
3191	0	32928	
3192	0	32916	
3193	0	32928	
3194	0	32944	
3195	0	32952	
3196	0	32964	
3197	0	33032	
3198	0	33076	
3199	0	33040	
3200	0	32992	
3201	0	32968	
3202	0	32948	
3203	0	32948	
3204	0	32940	
3205	0	32960	
3206	0	33004	
3207	0	33016	
3208	0	33028	
3209	0	33072	
3210	0	33092	
3211	0	33096	
3212	0	33088	
3213	0	33076	
3214	0	33008	
3215	0	32996	
3216	0	33040	
3217	0	33112	
3218	0	33152	
3219	0	33144	
3220	0	33140	
3221	0	33184	
3222	0	33200	
3223	0	33236	
3224	0	33268	
3225	0	33284	
3226	0	33372	
3227	0	33408	
3228	0	33372	
3229	0	33332	
3230	0	33376	
3231	0	33380	
3232	0	33380	
3233	0	33396	
3234	0	33422	
3235	0	33456	
3236	0	33492	
3237	0	33578	
3238	0	33698	
3239	0	33792	
3240	0	33834	
3241	0	33816	
3242	0	33840	
3243	0	33840	
3244	0	33896	
3245	0	33968	
3246	0	34022	
3247	0	34048	
3248	0	34040	
3249	0	34040	
3250	0	34072	
3251	0	34060	
3252	0	34024	
3253	0	33904	
3254	0	33820	
3255	0	33748	
3256	0	33664	
3257	0	33624	
3258	0	33572	
3259	0	33528	
3260	0	33456	
3261	0	33420	
3262	0	33400	
3263	0	33400	
3264	0	33380	
3265	0	33364	
3266	0	33328	
3267	0	33274	
3268	0	33240	
3269	0	33224	
3270	0	33164	
3271	0	33144	
3272	0	33120	
3273	0	33096	
3274	0	33108	
3275	0	33088	
3276	0	33036	
3277	0	32960	
3278	0	32868	
3279	0	32776	
3280	0	32762	
3281	0	32746	
3282	0	32730	
3283	0	32696	
3284	0	32640	
3285	0	32576	
3286	0	32536	
3287	0	32496	
3288	0	32460	
3289	0	32456	
3290	0	32490	
3291	0	32520	
3292	0	32520	
3293	0	32482	
3294	0	32468	
3295	0	32476	
3296	0	32476	
3297	0	32464	
3298	0	32424	
3299	0	32392	
3300	0	32368	
3301	0	32364	
3302	0	32344	
3303	0	32336	
3304	0	32340	
3305	0	32336	
3306	0	32304	
3307	0	32248	
3308	0	32206	
3309	0	32200	
3310	0	32232	
3311	0	32260	
3312	0	32288	
3313	0	32312	
3314	0	32352	
3315	0	32380	
3316	0	32384	
3317	0	32352	
3318	0	32344	
3319	0	32348	
3320	0	32296	
3321	0	32288	
3322	0	32344	
3323	0	32382	
3324	0	32364	
3325	0	32352	
3326	0	32352	
3327	0	32332	
3328	0	32352	
3329	0	32356	
3330	0	32340	
3331	0	32368	
3332	0	32412	
3333	0	32464	
3334	0	32460	
3335	0	32456	
3336	0	32432	
3337	0	32408	
3338	0	32376	
3339	0	32364	
3340	0	32372	
3341	0	32400	
3342	0	32452	
3343	0	32544	
3344	0	32576	
3345	0	32568	
3346	0	32556	
3347	0	32556	
3348	0	32596	
3349	0	32648	
3350	0	32704	
3351	0	32730	
3352	0	32716	
3353	0	32708	
3354	0	32690	
3355	0	32660	
3356	0	32660	
3357	0	32668	
3358	0	32736	
3359	0	32784	
3360	0	32832	
3361	0	32848	
3362	0	32832	
3363	0	32808	
3364	0	32808	
3365	0	32800	
3366	0	32800	
3367	0	32826	
3368	0	32818	
3369	0	32780	
3370	0	32748	
3371	0	32752	
3372	0	32788	
3373	0	32834	
3374	0	32872	
3375	0	32900	
3376	0	32900	
3377	0	32908	
3378	0	32932	
3379	0	32964	
3380	0	33008	
3381	0	33060	
3382	0	33032	
3383	0	33032	
3384	0	33004	
3385	0	33024	
3386	0	33056	
3387	0	33060	
3388	0	33054	
3389	0	33056	
3390	0	33056	
3391	0	33048	
3392	0	33116	
3393	0	33192	
3394	0	33260	
3395	0	33236	
3396	0	33192	
3397	0	33196	
3398	0	33256	
3399	0	33296	
3400	0	33284	
3401	0	33284	
3402	0	33280	
3403	0	33312	
3404	0	33324	
3405	0	33268	
3406	0	33260	
3407	0	33258	
3408	0	33248	
3409	0	33236	
3410	0	33240	
3411	0	33248	
3412	0	33256	
3413	0	33284	
3414	0	33344	
3415	0	33408	
3416	0	33416	
3417	0	33408	
3418	0	33392	
3419	0	33360	
3420	0	33352	
3421	0	33364	
3422	0	33376	
3423	0	33380	
3424	0	33412	
3425	0	33448	
3426	0	33408	
3427	0	33340	
3428	0	33304	
3429	0	33272	
3430	0	33266	
3431	0	33285	
3432	0	33320	
3433	0	33344	
3434	0	33364	
3435	0	33376	
3436	0	33352	
3437	0	33288	
3438	0	33224	
3439	0	33228	
3440	0	33264	
3441	0	33304	
3442	0	33340	
3443	0	33360	
3444	0	33304	
3445	0	33296	
3446	0	33280	
3447	0	33248	
3448	0	33178	
3449	0	33104	
3450	0	33084	
3451	0	33060	
3452	0	33076	
3453	0	33122	
3454	0	33140	
3455	0	33120	
3456	0	33128	
3457	0	33128	
3458	0	33136	
3459	0	33148	
3460	0	33120	
3461	0	33092	
3462	0	33072	
3463	0	33056	
3464	0	33078	
3465	0	33056	
3466	0	33052	
3467	0	33024	
3468	0	32993	
3469	0	33002	
3470	0	33056	
3471	0	33130	
3472	0	33144	
3473	0	33148	
3474	0	33136	
3475	0	33136	
3476	0	33108	
3477	0	33028	
3478	0	32952	
3479	0	32924	
3480	0	32864	
3481	0	32800	
3482	0	32736	
3483	0	32724	
3484	0	32728	
3485	0	32748	
3486	0	32750	
3487	0	32716	
3488	0	32708	
3489	0	32776	
3490	0	32844	
3491	0	32870	
3492	0	32860	
3493	0	32844	
3494	0	32850	
3495	0	32856	
3496	0	32868	
3497	0	32808	
3498	0	32736	
3499	0	32688	
3500	0	32662	
3501	0	32624	
3502	0	32596	
3503	0	32568	
3504	0	32572	
3505	0	32572	
3506	0	32548	
3507	0	32596	
3508	0	32632	
3509	0	32632	
3510	0	32648	
3511	0	32648	
3512	0	32672	
3513	0	32712	
3514	0	32740	
3515	0	32764	
3516	0	32756	
3517	0	32712	
3518	0	32712	
3519	0	32672	
3520	0	32608	
3521	0	32600	
3522	0	32604	
3523	0	32608	
3524	0	32628	
3525	0	32618	
3526	0	32624	
3527	0	32620	
3528	0	32588	
3529	0	32524	
3530	0	32512	
3531	0	32532	
3532	0	32520	
3533	0	32496	
3534	0	32500	
3535	0	32508	
3536	0	32476	
3537	0	32408	
3538	0	32384	
3539	0	32384	
3540	0	32384	
3541	0	32368	
3542	0	32372	
3543	0	32392	
3544	0	32416	
3545	0	32426	
3546	0	32436	
3547	0	32436	
3548	0	32448	
3549	0	32440	
3550	0	32428	
3551	0	32412	
3552	0	32408	
3553	0	32416	
3554	0	32464	
3555	0	32512	
3556	0	32576	
3557	0	32592	
3558	0	32588	
3559	0	32568	
3560	0	32560	
3561	0	32540	
3562	0	32536	
3563	0	32536	
3564	0	32504	
3565	0	32476	
3566	0	32480	
3567	0	32496	
3568	0	32520	
3569	0	32544	
3570	0	32588	
3571	0	32588	
3572	0	32576	
3573	0	32548	
3574	0	32572	
3575	0	32588	
3576	0	32552	
3577	0	32548	
3578	0	32588	
3579	0	32676	
3580	0	32776	
3581	0	32828	
3582	0	32880	
3583	0	32980	
3584	0	33116	
3585	0	33220	
3586	0	33300	
3587	0	33400	
3588	0	33516	
3589	0	33656	
3590	0	33800	
3591	0	33866	
3592	0	33904	
3593	0	33984	
3594	0	34076	
3595	0	34136	
3596	0	34100	
3597	0	34048	
3598	0	34026	
3599	0	34024	
3600	0	34072	
3601	0	34136	
3602	0	34198	
3603	0	34208	
3604	0	34160	
3605	0	34120	
3606	0	34136	
3607	0	34208	
3608	0	34336	
3609	0	34564	
3610	0	34872	
3611	0	35180	
3612	0	35488	
3613	0	35800	
3614	0	36100	
3615	0	36376	
3616	0	36616	
3617	0	36764	
3618	0	36832	
3619	0	36856	
3620	0	36804	
3621	0	36720	
3622	0	36672	
3623	0	36668	
3624	0	36664	
3625	0	36672	
3626	0	36656	
3627	0	36614	
3628	0	36492	
3629	0	36332	
3630	0	36200	
3631	0	36156	
3632	0	36142	
3633	0	36152	
3634	0	36120	
3635	0	36076	
3636	0	36040	
3637	0	35984	
3638	0	35936	
3639	0	35904	
3640	0	35892	
3641	0	35844	
3642	0	35760	
3643	0	35620	
3644	0	35384	
3645	0	35056	
3646	0	34668	
3647	0	34292	
3648	0	33948	
3649	0	33548	
3650	0	33124	
3651	0	32702	
3652	0	32352	
3653	0	32056	
3654	0	31848	
3655	0	31688	
3656	0	31568	
3657	0	31448	
3658	0	31368	
3659	0	31320	
3660	0	31308	
3661	0	31272	
3662	0	31228	
3663	0	31144	
3664	0	31044	
3665	0	30946	
3666	0	30824	
3667	0	30708	
3668	0	30616	
3669	0	30526	
3670	0	30476	
3671	0	30444	
3672	0	30428	
3673	0	30408	
3674	0	30436	
3675	0	30448	
3676	0	30456	
3677	0	30450	
3678	0	30474	
3679	0	30528	
3680	0	30560	
3681	0	30602	
3682	0	30676	
3683	0	30744	
3684	0	30728	
3685	0	30662	
3686	0	30594	
3687	0	30632	
3688	0	30700	
3689	0	30736	
3690	0	30740	
3691	0	30744	
3692	0	30732	
3693	0	30704	
3694	0	30652	
3695	0	30624	
3696	0	30596	
3697	0	30588	
3698	0	30620	
3699	0	30640	
3700	0	30680	
3701	0	30732	
3702	0	30760	
3703	0	30812	
3704	0	30836	
3705	0	30840	
3706	0	30800	
3707	0	30708	
3708	0	30568	
3709	0	30336	
3710	0	29920	
3711	0	29196	
3712	0	28284	
3713	0	27292	
3714	0	26304	
3715	0	25352	
3716	0	24440	
3717	0	23692	
3718	0	23156	
3719	0	22816	
3720	0	22580	
3721	0	22600	
3722	0	22876	
3723	0	23382	
3724	0	24020	
3725	0	24820	
3726	0	26008	
3727	0	27692	
3728	0	29762	
3729	0	32176	
3730	0	34816	
3731	0	37720	
3732	0	40816	
3733	0	44224	
3734	0	48064	
3735	0	52048	
3736	0	56192	
3737	0	59880	
3738	0	62168	
3739	0	63368	
3740	0	63972	
3741	0	64240	
3742	0	64312	
3743	0	64320	
3744	0	64256	
3745	0	64136	
3746	0	64048	
3747	0	63924	
3748	0	63812	
3749	0	57844	
3750	0	52216	
3751	0	47848	
3752	0	44096	
3753	0	40276	
3754	0	36736	
3755	0	33776	
3756	0	31308	
3757	0	29074	
3758	0	27008	
3759	0	25216	
3760	0	23736	
3761	0	22422	
3762	0	21290	
3763	0	20410	
3764	0	19784	
3765	0	19304	
3766	0	18848	
3767	0	18378	
3768	0	18204	
3769	0	18364	
3770	0	18828	
3771	0	19256	
3772	0	19552	
3773	0	19880	
3774	0	20316	
3775	0	20852	
3776	0	21380	
3777	0	21850	
3778	0	22328	
3779	0	22792	
3780	0	23260	
3781	0	23756	
3782	0	24308	
3783	0	24932	
3784	0	25580	
3785	0	26260	
3786	0	26880	
3787	0	27392	
3788	0	27854	
3789	0	28192	
3790	0	28496	
3791	0	28788	
3792	0	28976	
3793	0	29112	
3794	0	29240	
3795	0	29340	
3796	0	29404	
3797	0	29474	
3798	0	29560	
3799	0	29626	
3800	0	29732	
3801	0	29804	
3802	0	29852	
3803	0	29948	
3804	0	30024	
3805	0	30116	
3806	0	30112	
3807	0	30076	
3808	0	30088	
3809	0	30192	
3810	0	30304	
3811	0	30352	
3812	0	30404	
3813	0	30458	
3814	0	30528	
3815	0	30572	
3816	0	30640	
3817	0	30684	
3818	0	30740	
3819	0	30840	
3820	0	30928	
3821	0	30990	
3822	0	31032	
3823	0	31092	
3824	0	31104	
3825	0	31098	
3826	0	31064	
3827	0	31068	
3828	0	31086	
3829	0	31116	
3830	0	31172	
3831	0	31276	
3832	0	31344	
3833	0	31372	
3834	0	31376	
3835	0	31392	
3836	0	31428	
3837	0	31490	
3838	0	31560	
3839	0	31596	
3840	0	31644	
3841	0	31678	
3842	0	31736	
3843	0	31796	
3844	0	31852	
3845	0	31922	
3846	0	31968	
3847	0	32004	
3848	0	32032	
3849	0	32020	
3850	0	31984	
3851	0	31996	
3852	0	32004	
3853	0	32008	
3854	0	32040	
3855	0	32040	
3856	0	32020	
3857	0	32040	
3858	0	32112	
3859	0	32184	
3860	0	32232	
3861	0	32288	
3862	0	32336	
3863	0	32364	
3864	0	32368	
3865	0	32360	
3866	0	32380	
3867	0	32420	
3868	0	32468	
3869	0	32528	
3870	0	32568	
3871	0	32610	
3872	0	32628	
3873	0	32618	
3874	0	32640	
3875	0	32704	
3876	0	32740	
3877	0	32700	
3878	0	32684	
3879	0	32696	
3880	0	32702	
3881	0	32676	
3882	0	32712	
3883	0	32700	
3884	0	32692	
3885	0	32728	
3886	0	32768	
3887	0	32800	
3888	0	32792	
3889	0	32760	
3890	0	32704	
3891	0	32696	
3892	0	32684	
3893	0	32696	
3894	0	32738	
3895	0	32792	
3896	0	32824	
3897	0	32824	
3898	0	32856	
3899	0	32900	
3900	0	32936	
3901	0	32970	
3902	0	32974	
3903	0	32992	
3904	0	33016	
3905	0	33012	
3906	0	33000	
3907	0	33028	
3908	0	33012	
3909	0	32992	
3910	0	32968	
3911	0	32972	
3912	0	32976	
3913	0	32936	
3914	0	32872	
3915	0	32836	
3916	0	32832	
3917	0	32864	
3918	0	32868	
3919	0	32840	
3920	0	32820	
3921	0	32836	
3922	0	32824	
3923	0	32828	
3924	0	32812	
3925	0	32792	
3926	0	32760	
3927	0	32724	
3928	0	32700	
3929	0	32728	
3930	0	32728	
3931	0	32686	
3932	0	32644	
3933	0	32668	
3934	0	32728	
3935	0	32808	
3936	0	32824	
3937	0	32812	
3938	0	32768	
3939	0	32728	
3940	0	32676	
3941	0	32664	
3942	0	32680	
3943	0	32716	
3944	0	32746	
3945	0	32780	
3946	0	32772	
3947	0	32716	
3948	0	32672	
3949	0	32640	
3950	0	32640	
3951	0	32684	
3952	0	32716	
3953	0	32752	
3954	0	32808	
3955	0	32824	
3956	0	32832	
3957	0	32836	
3958	0	32852	
3959	0	32872	
3960	0	32892	
3961	0	32892	
3962	0	32928	
3963	0	32984	
3964	0	33016	
3965	0	33048	
3966	0	33104	
3967	0	33204	
3968	0	33300	
3969	0	33360	
3970	0	33376	
3971	0	33408	
3972	0	33476	
3973	0	33568	
3974	0	33656	
3975	0	33724	
3976	0	33776	
3977	0	33808	
3978	0	33810	
3979	0	33772	
3980	0	33776	
3981	0	33792	
3982	0	33856	
3983	0	33916	
3984	0	33926	
3985	0	33944	
3986	0	33954	
3987	0	33938	
3988	0	33902	
3989	0	33856	
3990	0	33808	
3991	0	33792	
3992	0	33792	
3993	0	33768	
3994	0	33696	
3995	0	33676	
3996	0	33648	
3997	0	33604	
3998	0	33548	
3999	0	33496	
4000	0	33484	
4001	0	33504	
4002	0	33484	
4003	0	33440	
4004	0	33384	
4005	0	33346	
4006	0	33328	
4007	0	33264	
4008	0	33212	
4009	0	33208	
4010	0	33216	
4011	0	33204	
4012	0	33168	
4013	0	33072	
4014	0	32996	
4015	0	32964	
4016	0	32960	
4017	0	32940	
4018	0	32952	
4019	0	32936	
4020	0	32896	
4021	0	32864	
4022	0	32836	
4023	0	32836	
4024	0	32784	
4025	0	32706	
4026	0	32656	
4027	0	32632	
4028	0	32616	
4029	0	32604	
4030	0	32568	
4031	0	32568	
4032	0	32572	
4033	0	32564	
4034	0	32514	
4035	0	32504	
4036	0	32528	
4037	0	32544	
4038	0	32514	
4039	0	32476	
4040	0	32480	
4041	0	32516	
4042	0	32548	
4043	0	32552	
4044	0	32532	
4045	0	32472	
4046	0	32456	
4047	0	32448	
4048	0	32424	
4049	0	32448	
4050	0	32448	
4051	0	32460	
4052	0	32480	
4053	0	32472	
4054	0	32468	
4055	0	32462	
4056	0	32452	
4057	0	32468	
4058	0	32524	
4059	0	32560	
4060	0	32562	
4061	0	32552	
4062	0	32548	
4063	0	32544	
4064	0	32524	
4065	0	32512	
4066	0	32520	
4067	0	32488	
4068	0	32480	
4069	0	32484	
4070	0	32504	
4071	0	32506	
4072	0	32512	
4073	0	32504	
4074	0	32516	
4075	0	32536	
4076	0	32528	
4077	0	32496	
4078	0	32500	
4079	0	32522	
4080	0	32520	
4081	0	32544	
4082	0	32596	
4083	0	32636	
4084	0	32688	
4085	0	32776	
4086	0	32836	
4087	0	32892	
4088	0	32932	
4089	0	32920	
4090	0	32908	
4091	0	32904	
4092	0	32904	
4093	0	32884	
4094	0	32832	
4095	0	32760	
4096	0	32740	
4097	0	32740	
4098	0	32788	
4099	0	32816	
4100	0	32818	
4101	0	32796	
4102	0	32776	
4103	0	32816	
4104	0	32844	
4105	0	32860	
4106	0	32852	
4107	0	32848	
4108	0	32832	
4109	0	32812	
4110	0	32856	
4111	0	32924	
4112	0	32994	
4113	0	33066	
4114	0	33108	
4115	0	33172	
4116	0	33180	
4117	0	33168	
4118	0	33172	
4119	0	33172	
4120	0	33140	
4121	0	33122	
4122	0	33140	
4123	0	33188	
4124	0	33208	
4125	0	33180	
4126	0	33166	
4127	0	33188	
4128	0	33200	
4129	0	33188	
4130	0	33210	
4131	0	33248	
4132	0	33288	
4133	0	33324	
4134	0	33388	
4135	0	33424	
4136	0	33440	
4137	0	33440	
4138	0	33424	
4139	0	33408	
4140	0	33392	
4141	0	33368	
4142	0	33372	
4143	0	33364	
4144	0	33360	
4145	0	33368	
4146	0	33364	
4147	0	33376	
4148	0	33432	
4149	0	33464	
4150	0	33472	
4151	0	33504	
4152	0	33504	
4153	0	33544	
4154	0	33560	
4155	0	33572	
4156	0	33562	
4157	0	33560	
4158	0	33548	
4159	0	33536	
4160	0	33528	
4161	0	33512	
4162	0	33520	
4163	0	33536	
4164	0	33524	
4165	0	33524	
4166	0	33536	
4167	0	33592	
4168	0	33612	
4169	0	33564	
4170	0	33492	
4171	0	33460	
4172	0	33420	
4173	0	33424	
4174	0	33448	
4175	0	33504	
4176	0	33504	
4177	0	33486	
4178	0	33464	
4179	0	33424	
4180	0	33388	
4181	0	33376	
4182	0	33348	
4183	0	33360	
4184	0	33360	
4185	0	33352	
4186	0	33328	
4187	0	33306	
4188	0	33348	
4189	0	33352	
4190	0	33344	
4191	0	33338	
4192	0	33380	
4193	0	33380	
4194	0	33376	
4195	0	33360	
4196	0	33364	
4197	0	33320	
4198	0	33272	
4199	0	33256	
4200	0	33264	
4201	0	33228	
4202	0	33184	
4203	0	33124	
4204	0	33080	
4205	0	33040	
4206	0	33028	
4207	0	33036	
4208	0	33016	
4209	0	33052	
4210	0	33096	
4211	0	33110	
4212	0	33128	
4213	0	33124	
4214	0	33116	
4215	0	33128	
4216	0	33120	
4217	0	33088	
4218	0	33064	
4219	0	33048	
4220	0	32988	
4221	0	32958	
4222	0	32910	
4223	0	32864	
4224	0	32848	
4225	0	32864	
4226	0	32904	
4227	0	32952	
4228	0	32964	
4229	0	32962	
4230	0	32922	
4231	0	32880	
4232	0	32836	
4233	0	32824	
4234	0	32816	
4235	0	32820	
4236	0	32852	
4237	0	32864	
4238	0	32860	
4239	0	32828	
4240	0	32760	
4241	0	32728	
4242	0	32724	
4243	0	32724	
4244	0	32712	
4245	0	32718	
4246	0	32704	
4247	0	32704	
4248	0	32712	
4249	0	32720	
4250	0	32728	
4251	0	32736	
4252	0	32728	
4253	0	32704	
4254	0	32668	
4255	0	32660	
4256	0	32624	
4257	0	32568	
4258	0	32532	
4259	0	32536	
4260	0	32516	
4261	0	32532	
4262	0	32548	
4263	0	32552	
4264	0	32592	
4265	0	32628	
4266	0	32648	
4267	0	32676	
4268	0	32732	
4269	0	32792	
4270	0	32816	
4271	0	32808	
4272	0	32760	
4273	0	32712	
4274	0	32632	
4275	0	32584	
4276	0	32568	
4277	0	32552	
4278	0	32584	
4279	0	32604	
4280	0	32584	
4281	0	32552	
4282	0	32520	
4283	0	32520	
4284	0	32528	
4285	0	32536	
4286	0	32516	
4287	0	32516	
4288	0	32560	
4289	0	32582	
4290	0	32576	
4291	0	32589	
4292	0	32600	
4293	0	32588	
4294	0	32614	
4295	0	32624	
4296	0	32624	
4297	0	32620	
4298	0	32612	
4299	0	32608	
4300	0	32660	
4301	0	32696	
4302	0	32692	
4303	0	32644	
4304	0	32568	
4305	0	32456	
4306	0	32400	
4307	0	32368	
4308	0	32344	
4309	0	32314	
4310	0	32314	
4311	0	32360	
4312	0	32408	
4313	0	32424	
4314	0	32428	
4315	0	32432	
4316	0	32436	
4317	0	32484	
4318	0	32556	
4319	0	32652	
4320	0	32724	
4321	0	32808	
4322	0	32848	
4323	0	32824	
4324	0	32788	
4325	0	32832	
4326	0	32854	
4327	0	32800	
4328	0	32732	
4329	0	32708	
4330	0	32716	
4331	0	32704	
4332	0	32656	
4333	0	32600	
4334	0	32572	
4335	0	32592	
4336	0	32592	
4337	0	32584	
4338	0	32620	
4339	0	32668	
4340	0	32746	
4341	0	32816	
4342	0	32900	
4343	0	32960	
4344	0	33048	
4345	0	33180	
4346	0	33284	
4347	0	33372	
4348	0	33456	
4349	0	33540	
4350	0	33648	
4351	0	33752	
4352	0	33884	
4353	0	34012	
4354	0	34144	
4355	0	34240	
4356	0	34260	
4357	0	34240	
4358	0	34212	
4359	0	34168	
4360	0	34144	
4361	0	34144	
4362	0	34208	
4363	0	34312	
4364	0	34392	
4365	0	34412	
4366	0	34360	
4367	0	34316	
4368	0	34288	
4369	0	34284	
4370	0	34352	
4371	0	34476	
4372	0	34724	
4373	0	35020	
4374	0	35324	
4375	0	35672	
4376	0	35980	
4377	0	36208	
4378	0	36368	
4379	0	36520	
4380	0	36672	
4381	0	36784	
4382	0	36808	
4383	0	36792	
4384	0	36784	
4385	0	36756	
4386	0	36760	
4387	0	36688	
4388	0	36640	
4389	0	36564	
4390	0	36448	
4391	0	36354	
4392	0	36264	
4393	0	36224	
4394	0	36224	
4395	0	36248	
4396	0	36224	
4397	0	36180	
4398	0	36132	
4399	0	36088	
4400	0	36048	
4401	0	35996	
4402	0	35948	
4403	0	35836	
4404	0	35700	
4405	0	35556	
4406	0	35372	
4407	0	35164	
4408	0	34892	
4409	0	34552	
4410	0	34228	
4411	0	33876	
4412	0	33528	
4413	0	33120	
4414	0	32696	
4415	0	32352	
4416	0	32044	
4417	0	31784	
4418	0	31614	
4419	0	31496	
4420	0	31409	
4421	0	31384	
4422	0	31344	
4423	0	31350	
4424	0	31344	
4425	0	31284	
4426	0	31196	
4427	0	31082	
4428	0	30956	
4429	0	30828	
4430	0	30738	
4431	0	30692	
4432	0	30676	
4433	0	30708	
4434	0	30744	
4435	0	30744	
4436	0	30720	
4437	0	30700	
4438	0	30636	
4439	0	30562	
4440	0	30560	
4441	0	30612	
4442	0	30628	
4443	0	30716	
4444	0	30820	
4445	0	30928	
4446	0	30976	
4447	0	30968	
4448	0	30932	
4449	0	30866	
4450	0	30752	
4451	0	30688	
4452	0	30688	
4453	0	30664	
4454	0	30656	
4455	0	30664	
4456	0	30732	
4457	0	30792	
4458	0	30806	
4459	0	30812	
4460	0	30820	
4461	0	30844	
4462	0	30872	
4463	0	30896	
4464	0	30908	
4465	0	30938	
4466	0	31016	
4467	0	31068	
4468	0	31020	
4469	0	30884	
4470	0	30668	
4471	0	30390	
4472	0	29948	
4473	0	29264	
4474	0	28376	
4475	0	27436	
4476	0	26514	
4477	0	25576	
4478	0	24698	
4479	0	23988	
4480	0	23520	
4481	0	23196	
4482	0	22988	
4483	0	23072	
4484	0	23478	
4485	0	24096	
4486	0	24825	
4487	0	25704	
4488	0	26980	
4489	0	28724	
4490	0	30900	
4491	0	33400	
4492	0	36072	
4493	0	38944	
4494	0	41892	
4495	0	45076	
4496	0	48564	
4497	0	52256	
4498	0	56112	
4499	0	59724	
4500	0	62016	
4501	0	63212	
4502	0	63816	
4503	0	64096	
4504	0	64184	
4505	0	64180	
4506	0	64124	
4507	0	64016	
4508	0	63912	
4509	0	63800	
4510	0	61656	
4511	0	54552	
4512	0	48876	
4513	0	44316	
4514	0	40384	
4515	0	36832	
4516	0	33920	
4517	0	31620	
4518	0	29732	
4519	0	27974	
4520	0	26208	
4521	0	24488	
4522	0	23002	
4523	0	21728	
4524	0	20572	
4525	0	19592	
4526	0	18920	
4527	0	18496	
4528	0	18072	
4529	0	17677	
4530	0	17512	
4531	0	17666	
4532	0	18104	
4533	0	18616	
4534	0	19036	
4535	0	19436	
4536	0	19928	
4537	0	20472	
4538	0	21080	
4539	0	21648	
4540	0	22208	
4541	0	22776	
4542	0	23308	
4543	0	23800	
4544	0	24264	
4545	0	24810	
4546	0	25472	
4547	0	26104	
4548	0	26732	
4549	0	27221	
4550	0	27660	
4551	0	28068	
4552	0	28424	
4553	0	28732	
4554	0	28988	
4555	0	29208	
4556	0	29384	
4557	0	29532	
4558	0	29704	
4559	0	29884	
4560	0	30036	
4561	0	30152	
4562	0	30240	
4563	0	30272	
4564	0	30248	
4565	0	30176	
4566	0	30212	
4567	0	30260	
4568	0	30308	
4569	0	30396	
4570	0	30548	
4571	0	30688	
4572	0	30768	
4573	0	30804	
4574	0	30796	
4575	0	30788	
4576	0	30784	
4577	0	30788	
4578	0	30816	
4579	0	30914	
4580	0	31018	
4581	0	31144	
4582	0	31240	
4583	0	31280	
4584	0	31328	
4585	0	31424	
4586	0	31552	
4587	0	31640	
4588	0	31620	
4589	0	31572	
4590	0	31532	
4591	0	31552	
4592	0	31556	
4593	0	31566	
4594	0	31600	
4595	0	31680	
4596	0	31736	
4597	0	31792	
4598	0	31840	
4599	0	31824	
4600	0	31808	
4601	0	31808	
4602	0	31834	
4603	0	31868	
4604	0	31940	
4605	0	32052	
4606	0	32168	
4607	0	32276	
4608	0	32328	
4609	0	32380	
4610	0	32416	
4611	0	32416	
4612	0	32416	
4613	0	32480	
4614	0	32536	
4615	0	32516	
4616	0	32384	
4617	0	32304	
4618	0	32316	
4619	0	32396	
4620	0	32536	
4621	0	32640	
4622	0	32700	
4623	0	32746	
4624	0	32820	
4625	0	32820	
4626	0	32768	
4627	0	32732	
4628	0	32716	
4629	0	32716	
4630	0	32760	
4631	0	32808	
4632	0	32868	
4633	0	32876	
4634	0	32816	
4635	0	32776	
4636	0	32752	
4637	0	32796	
4638	0	32872	
4639	0	32908	
4640	0	32920	
4641	0	32960	
4642	0	32944	
4643	0	32956	
4644	0	32968	
4645	0	32960	
4646	0	32976	
4647	0	33064	
4648	0	33160	
4649	0	33224	
4650	0	33280	
4651	0	33320	
4652	0	33324	
4653	0	33380	
4654	0	33460	
4655	0	33496	
4656	0	33432	
4657	0	33276	
4658	0	33180	
4659	0	33154	
4660	0	33180	
4661	0	33268	
4662	0	33344	
4663	0	33400	
4664	0	33480	
4665	0	33492	
4666	0	33544	
4667	0	33556	
4668	0	33556	
4669	0	33496	
4670	0	33440	
4671	0	33408	
4672	0	33456	
4673	0	33484	
4674	0	33480	
4675	0	33372	
4676	0	33268	
4677	0	33228	
4678	0	33188	
4679	0	33188	
4680	0	33164	
4681	0	33120	
4682	0	33098	
4683	0	33128	
4684	0	33120	
4685	0	33096	
4686	0	33084	
4687	0	33052	
4688	0	33032	
4689	0	33032	
4690	0	33036	
4691	0	33000	
4692	0	32948	
4693	0	32936	
4694	0	33000	
4695	0	33072	
4696	0	33122	
4697	0	33168	
4698	0	33208	
4699	0	33248	
4700	0	33184	
4701	0	33096	
4702	0	33092	
4703	0	33100	
4704	0	33128	
4705	0	33128	
4706	0	33068	
4707	0	32990	
4708	0	32940	
4709	0	32964	
4710	0	32980	
4711	0	32952	
4712	0	32988	
4713	0	33056	
4714	0	33096	
4715	0	33140	
4716	0	33220	
4717	0	33312	
4718	0	33320	
4719	0	33304	
4720	0	33256	
4721	0	33236	
4722	0	33272	
4723	0	33284	
4724	0	33308	
4725	0	33298	
4726	0	33248	
4727	0	33264	
4728	0	33296	
4729	0	33280	
4730	0	33268	
4731	0	33268	
4732	0	33304	
4733	0	33396	
4734	0	33516	
4735	0	33672	
4736	0	33836	
4737	0	33984	
4738	0	34092	
4739	0	34120	
4740	0	34128	
4741	0	34068	
4742	0	34068	
4743	0	34032	
4744	0	33984	
4745	0	34008	
4746	0	34152	
4747	0	34268	
4748	0	34296	
4749	0	34280	
4750	0	34220	
4751	0	34160	
4752	0	34120	
4753	0	34066	
4754	0	33916	
4755	0	33788	
4756	0	33720	
4757	0	33688	
4758	0	33676	
4759	0	33660	
4760	0	33616	
4761	0	33552	
4762	0	33472	
4763	0	33376	
4764	0	33348	
4765	0	33296	
4766	0	33192	
4767	0	33152	
4768	0	33128	
4769	0	33160	
4770	0	33220	
4771	0	33272	
4772	0	33328	
4773	0	33336	
4774	0	33344	
4775	0	33288	
4776	0	33180	
4777	0	33076	
4778	0	33016	
4779	0	32984	
4780	0	32924	
4781	0	32880	
4782	0	32900	
4783	0	32948	
4784	0	33034	
4785	0	33080	
4786	0	33060	
4787	0	33024	
4788	0	32928	
4789	0	32788	
4790	0	32676	
4791	0	32608	
4792	0	32576	
4793	0	32504	
4794	0	32388	
4795	0	32276	
4796	0	32200	
4797	0	32196	
4798	0	32176	
4799	0	32152	
4800	0	32208	
4801	0	32296	
4802	0	32408	
4803	0	32504	
4804	0	32560	
4805	0	32596	
4806	0	32596	
4807	0	32556	
4808	0	32516	
4809	0	32512	
4810	0	32488	
4811	0	32440	
4812	0	32452	
4813	0	32456	
4814	0	32448	
4815	0	32444	
4816	0	32428	
4817	0	32376	
4818	0	32264	
4819	0	32232	
4820	0	32316	
4821	0	32408	
4822	0	32480	
4823	0	32460	
4824	0	32360	
4825	0	32340	
4826	0	32364	
4827	0	32440	
4828	0	32500	
4829	0	32520	
4830	0	32536	
4831	0	32536	
4832	0	32564	
4833	0	32596	
4834	0	32536	
4835	0	32472	
4836	0	32400	
4837	0	32352	
4838	0	32336	
4839	0	32348	
4840	0	32332	
4841	0	32296	
4842	0	32248	
4843	0	32272	
4844	0	32336	
4845	0	32416	
4846	0	32476	
4847	0	32552	
4848	0	32640	
4849	0	32704	
4850	0	32684	
4851	0	32560	
4852	0	32412	
4853	0	32340	
4854	0	32372	
4855	0	32428	
4856	0	32500	
4857	0	32536	
4858	0	32480	
4859	0	32380	
4860	0	32304	
4861	0	32280	
4862	0	32372	
4863	0	32544	
4864	0	32676	
4865	0	32756	
4866	0	32784	
4867	0	32832	
4868	0	32876	
4869	0	32844	
4870	0	32756	
4871	0	32688	
4872	0	32668	
4873	0	32712	
4874	0	32768	
4875	0	32828	
4876	0	32832	
4877	0	32800	
4878	0	32800	
4879	0	32882	
4880	0	32924	
4881	0	32976	
4882	0	33096	
4883	0	33216	
4884	0	33288	
4885	0	33288	
4886	0	33288	
4887	0	33220	
4888	0	33116	
4889	0	33024	
4890	0	32924	
4891	0	32880	
4892	0	32868	
4893	0	32928	
4894	0	32968	
4895	0	32976	
4896	0	32976	
4897	0	32996	
4898	0	33082	
4899	0	33172	
4900	0	33236	
4901	0	33280	
4902	0	33312	
4903	0	33344	
4904	0	33352	
4905	0	33298	
4906	0	33240	
4907	0	33210	
4908	0	33160	
4909	0	33200	
4910	0	33312	
4911	0	33440	
4912	0	33556	
4913	0	33632	
4914	0	33664	
4915	0	33640	
4916	0	33566	
4917	0	33460	
4918	0	33408	
4919	0	33388	
4920	0	33360	
4921	0	33344	
4922	0	33328	
4923	0	33316	
4924	0	33324	
4925	0	33348	
4926	0	33372	
4927	0	33316	
4928	0	33248	
4929	0	33236	
4930	0	33232	
4931	0	33244	
4932	0	33276	
4933	0	33312	
4934	0	33328	
4935	0	33320	
4936	0	33298	
4937	0	33308	
4938	0	33280	
4939	0	33196	
4940	0	33130	
4941	0	33152	
4942	0	33260	
4943	0	33384	
4944	0	33488	
4945	0	33616	
4946	0	33642	
4947	0	33604	
4948	0	33372	
4949	0	33096	
4950	0	32952	
4951	0	32912	
4952	0	32944	
4953	0	33048	
4954	0	33192	
4955	0	33352	
4956	0	33442	
4957	0	33484	
4958	0	33456	
4959	0	33384	
4960	0	33288	
4961	0	33164	
4962	0	33112	
4963	0	33090	
4964	0	33060	
4965	0	33078	
4966	0	33120	
4967	0	33132	
4968	0	33132	
4969	0	33056	
4970	0	33004	
4971	0	32928	
4972	0	32884	
4973	0	32852	
4974	0	32810	
4975	0	32800	
4976	0	32896	
4977	0	33008	
4978	0	33040	
4979	0	33046	
4980	0	33012	
4981	0	32932	
4982	0	32808	
4983	0	32728	
4984	0	32720	
4985	0	32828	
4986	0	32904	
4987	0	32884	
4988	0	32850	
4989	0	32856	
4990	0	32884	
4991	0	32928	
4992	0	32888	
4993	0	32768	
4994	0	32682	
4995	0	32658	
4996	0	32680	
4997	0	32704	
4998	0	32672	
4999	0	32640	
5000	0	32604	
5001	0	32572	
5002	0	32580	
5003	0	32652	
5004	0	32764	
5005	0	32818	
5006	0	32832	
5007	0	32856	
5008	0	32882	
5009	0	32872	
5010	0	32868	
5011	0	32828	
5012	0	32692	
5013	0	32496	
5014	0	32344	
5015	0	32288	
5016	0	32328	
5017	0	32384	
5018	0	32372	
5019	0	32328	
5020	0	32340	
5021	0	32356	
5022	0	32368	
5023	0	32416	
5024	0	32448	
5025	0	32480	
5026	0	32524	
5027	0	32532	
5028	0	32488	
5029	0	32420	
5030	0	32392	
5031	0	32420	
5032	0	32472	
5033	0	32538	
5034	0	32596	
5035	0	32588	
5036	0	32552	
5037	0	32600	
5038	0	32660	
5039	0	32684	
5040	0	32680	
5041	0	32648	
5042	0	32588	
5043	0	32502	
5044	0	32400	
5045	0	32312	
5046	0	32308	
5047	0	32356	
5048	0	32416	
5049	0	32476	
5050	0	32520	
5051	0	32520	
5052	0	32542	
5053	0	32560	
5054	0	32536	
5055	0	32528	
5056	0	32472	
5057	0	32436	
5058	0	32418	
5059	0	32444	
5060	0	32472	
5061	0	32456	
5062	0	32448	
5063	0	32436	
5064	0	32476	
5065	0	32556	
5066	0	32608	
5067	0	32652	
5068	0	32708	
5069	0	32808	
5070	0	32976	
5071	0	33112	
5072	0	33234	
5073	0	33346	
5074	0	33420	
5075	0	33472	
5076	0	33530	
5077	0	33568	
5078	0	33540	
5079	0	33540	
5080	0	33528	
5081	0	33488	
5082	0	33492	
5083	0	33528	
5084	0	33612	
5085	0	33704	
5086	0	33812	
5087	0	33902	
5088	0	33972	
5089	0	34016	
5090	0	34030	
5091	0	34032	
5092	0	34044	
5093	0	34108	
5094	0	34256	
5095	0	34476	
5096	0	34724	
5097	0	35024	
5098	0	35344	
5099	0	35584	
5100	0	35800	
5101	0	35936	
5102	0	36080	
5103	0	36196	
5104	0	36268	
5105	0	36368	
5106	0	36444	
5107	0	36496	
5108	0	36512	
5109	0	36512	
5110	0	36516	
5111	0	36472	
5112	0	36400	
5113	0	36344	
5114	0	36292	
5115	0	36308	
5116	0	36232	
5117	0	36136	
5118	0	36108	
5119	0	36104	
5120	0	36092	
5121	0	36000	
5122	0	35908	
5123	0	35884	
5124	0	35876	
5125	0	35858	
5126	0	35784	
5127	0	35648	
5128	0	35452	
5129	0	35272	
5130	0	35024	
5131	0	34752	
5132	0	34478	
5133	0	34252	
5134	0	33996	
5135	0	33596	
5136	0	33210	
5137	0	32852	
5138	0	32468	
5139	0	32144	
5140	0	31932	
5141	0	31720	
5142	0	31552	
5143	0	31400	
5144	0	31332	
5145	0	31304	
5146	0	31336	
5147	0	31360	
5148	0	31348	
5149	0	31312	
5150	0	31232	
5151	0	31096	
5152	0	30920	
5153	0	30816	
5154	0	30736	
5155	0	30700	
5156	0	30658	
5157	0	30624	
5158	0	30580	
5159	0	30560	
5160	0	30538	
5161	0	30556	
5162	0	30584	
5163	0	30588	
5164	0	30608	
5165	0	30624	
5166	0	30640	
5167	0	30652	
5168	0	30672	
5169	0	30652	
5170	0	30668	
5171	0	30646	
5172	0	30608	
5173	0	30592	
5174	0	30612	
5175	0	30668	
5176	0	30742	
5177	0	30748	
5178	0	30722	
5179	0	30708	
5180	0	30754	
5181	0	30830	
5182	0	30900	
5183	0	30940	
5184	0	30916	
5185	0	30864	
5186	0	30816	
5187	0	30772	
5188	0	30756	
5189	0	30828	
5190	0	30912	
5191	0	30960	
5192	0	30980	
5193	0	30940	
5194	0	30796	
5195	0	30508	
5196	0	30016	
5197	0	29344	
5198	0	28520	
5199	0	27616	
5200	0	26708	
5201	0	25824	
5202	0	25026	
5203	0	24380	
5204	0	23958	
5205	0	23684	
5206	0	23568	
5207	0	23678	
5208	0	24096	
5209	0	24754	
5210	0	25516	
5211	0	26536	
5212	0	27936	
5213	0	29688	
5214	0	31808	
5215	0	34288	
5216	0	36940	
5217	0	39668	
5218	0	42408	
5219	0	45376	
5220	0	48732	
5221	0	52351	
5222	0	56112	
5223	0	59676	
5224	0	61956	
5225	0	63140	
5226	0	63752	
5227	0	64024	
5228	0	64112	
5229	0	64112	
5230	0	64040	
5231	0	63940	
5232	0	63856	
5233	0	63720	
5234	0	59764	
5235	0	52128	
5236	0	45868	
5237	0	40768	
5238	0	36336	
5239	0	32556	
5240	0	29916	
5241	0	28292	
5242	0	27212	
5243	0	26340	
5244	0	25412	
5245	0	24252	
5246	0	22880	
5247	0	21592	
5248	0	20456	
5249	0	19444	
5250	0	18656	
5251	0	18177	
5252	0	17904	
5253	0	17592	
5254	0	17336	
5255	0	17202	
5256	0	17268	
5257	0	17584	
5258	0	18080	
5259	0	18700	
5260	0	19220	
5261	0	19677	
5262	0	20164	
5263	0	20666	
5264	0	21236	
5265	0	21856	
5266	0	22484	
5267	0	23142	
5268	0	23724	
5269	0	24288	
5270	0	24892	
5271	0	25524	
5272	0	26160	
5273	0	26808	
5274	0	27424	
5275	0	27964	
5276	0	28448	
5277	0	28804	
5278	0	29120	
5279	0	29396	
5280	0	29660	
5281	0	29924	
5282	0	30124	
5283	0	30242	
5284	0	30272	
5285	0	30336	
5286	0	30420	
5287	0	30508	
5288	0	30608	
5289	0	30668	
5290	0	30688	
5291	0	30698	
5292	0	30728	
5293	0	30780	
5294	0	30840	
5295	0	30876	
5296	0	30912	
5297	0	30976	
5298	0	31004	
5299	0	31032	
5300	0	31078	
5301	0	31124	
5302	0	31204	
5303	0	31304	
5304	0	31404	
5305	0	31476	
5306	0	31546	
5307	0	31584	
5308	0	31616	
5309	0	31632	
5310	0	31660	
5311	0	31696	
5312	0	31784	
5313	0	31896	
5314	0	31976	
5315	0	32044	
5316	0	32048	
5317	0	32040	
5318	0	32040	
5319	0	32076	
5320	0	32160	
5321	0	32224	
5322	0	32256	
5323	0	32288	
5324	0	32276	
5325	0	32274	
5326	0	32300	
5327	0	32320	
5328	0	32336	
5329	0	32364	
5330	0	32360	
5331	0	32368	
5332	0	32416	
5333	0	32464	
5334	0	32540	
5335	0	32616	
5336	0	32620	
5337	0	32640	
5338	0	32704	
5339	0	32776	
5340	0	32828	
5341	0	32804	
5342	0	32742	
5343	0	32632	
5344	0	32576	
5345	0	32620	
5346	0	32700	
5347	0	32816	
5348	0	32976	
5349	0	33068	
5350	0	33108	
5351	0	33120	
5352	0	33126	
5353	0	33092	
5354	0	33064	
5355	0	33094	
5356	0	33084	
5357	0	33100	
5358	0	33168	
5359	0	33160	
5360	0	33140	
5361	0	33128	
5362	0	33140	
5363	0	33176	
5364	0	33216	
5365	0	33220	
5366	0	33248	
5367	0	33316	
5368	0	33360	
5369	0	33408	
5370	0	33444	
5371	0	33456	
5372	0	33472	
5373	0	33488	
5374	0	33480	
5375	0	33496	
5376	0	33484	
5377	0	33428	
5378	0	33424	
5379	0	33428	
5380	0	33424	
5381	0	33476	
5382	0	33520	
5383	0	33572	
5384	0	33564	
5385	0	33560	
5386	0	33568	
5387	0	33552	
5388	0	33538	
5389	0	33546	
5390	0	33548	
5391	0	33572	
5392	0	33592	
5393	0	33614	
5394	0	33620	
5395	0	33634	
5396	0	33632	
5397	0	33626	
5398	0	33624	
5399	0	33632	
5400	0	33648	
5401	0	33644	
5402	0	33644	
5403	0	33624	
5404	0	33616	
5405	0	33614	
5406	0	33632	
5407	0	33606	
5408	0	33572	
5409	0	33548	
5410	0	33524	
5411	0	33496	
5412	0	33468	
5413	0	33436	
5414	0	33418	
5415	0	33428	
5416	0	33436	
5417	0	33452	
5418	0	33472	
5419	0	33484	
5420	0	33488	
5421	0	33484	
5422	0	33492	
5423	0	33508	
5424	0	33516	
5425	0	33532	
5426	0	33492	
5427	0	33516	
5428	0	33504	
5429	0	33488	
5430	0	33466	
5431	0	33492	
5432	0	33544	
5433	0	33600	
5434	0	33692	
5435	0	33722	
5436	0	33728	
5437	0	33704	
5438	0	33664	
5439	0	33612	
5440	0	33584	
5441	0	33564	
5442	0	33540	
5443	0	33548	
5444	0	33580	
5445	0	33596	
5446	0	33608	
5447	0	33620	
5448	0	33644	
5449	0	33696	
5450	0	33748	
5451	0	33764	
5452	0	33748	
5453	0	33696	
5454	0	33664	
5455	0	33640	
5456	0	33660	
5457	0	33696	
5458	0	33720	
5459	0	33768	
5460	0	33852	
5461	0	33904	
5462	0	33900	
5463	0	33894	
5464	0	33900	
5465	0	33948	
5466	0	34004	
5467	0	34016	
5468	0	34004	
5469	0	33974	
5470	0	33980	
5471	0	33972	
5472	0	33936	
5473	0	33860	
5474	0	33736	
5475	0	33608	
5476	0	33552	
5477	0	33524	
5478	0	33532	
5479	0	33524	
5480	0	33492	
5481	0	33440	
5482	0	33380	
5483	0	33316	
5484	0	33268	
5485	0	33232	
5486	0	33216	
5487	0	33180	
5488	0	33132	
5489	0	33064	
5490	0	33016	
5491	0	32988	
5492	0	32956	
5493	0	32952	
5494	0	32960	
5495	0	32932	
5496	0	32868	
5497	0	32824	
5498	0	32736	
5499	0	32656	
5500	0	32592	
5501	0	32552	
5502	0	32508	
5503	0	32472	
5504	0	32416	
5505	0	32356	
5506	0	32312	
5507	0	32268	
5508	0	32236	
5509	0	32248	
5510	0	32248	
5511	0	32256	
5512	0	32276	
5513	0	32264	
5514	0	32248	
5515	0	32212	
5516	0	32176	
5517	0	32130	
5518	0	32124	
5519	0	32144	
5520	0	32160	
5521	0	32200	
5522	0	32212	
5523	0	32196	
5524	0	32204	
5525	0	32200	
5526	0	32200	
5527	0	32184	
5528	0	32116	
5529	0	32044	
5530	0	32020	
5531	0	32020	
5532	0	32012	
5533	0	32004	
5534	0	32004	
5535	0	32020	
5536	0	32052	
5537	0	32104	
5538	0	32092	
5539	0	32060	
5540	0	32090	
5541	0	32140	
5542	0	32200	
5543	0	32248	
5544	0	32256	
5545	0	32240	
5546	0	32214	
5547	0	32180	
5548	0	32128	
5549	0	32098	
5550	0	32096	
5551	0	32084	
5552	0	32096	
5553	0	32120	
5554	0	32140	
5555	0	32160	
5556	0	32136	
5557	0	32122	
5558	0	32132	
5559	0	32108	
5560	0	32060	
5561	0	32036	
5562	0	32032	
5563	0	32048	
5564	0	32084	
5565	0	32116	
5566	0	32140	
5567	0	32172	
5568	0	32192	
5569	0	32156	
5570	0	32120	
5571	0	32112	
5572	0	32092	
5573	0	32128	
5574	0	32128	
5575	0	32140	
5576	0	32178	
5577	0	32188	
5578	0	32176	
5579	0	32144	
5580	0	32116	
5581	0	32128	
5582	0	32176	
5583	0	32224	
5584	0	32252	
5585	0	32277	
5586	0	32276	
5587	0	32296	
5588	0	32280	
5589	0	32304	
5590	0	32352	
5591	0	32428	
5592	0	32468	
5593	0	32464	
5594	0	32460	
5595	0	32500	
5596	0	32480	
5597	0	32480	
5598	0	32514	
5599	0	32576	
5600	0	32672	
5601	0	32716	
5602	0	32680	
5603	0	32616	
5604	0	32600	
5605	0	32612	
5606	0	32676	
5607	0	32752	
5608	0	32804	
5609	0	32800	
5610	0	32752	
5611	0	32720	
5612	0	32688	
5613	0	32696	
5614	0	32732	
5615	0	32780	
5616	0	32826	
5617	0	32860	
5618	0	32900	
5619	0	32960	
5620	0	32988	
5621	0	32984	
5622	0	33004	
5623	0	33016	
5624	0	33060	
5625	0	33088	
5626	0	33114	
5627	0	33136	
5628	0	33120	
5629	0	33128	
5630	0	33128	
5631	0	33148	
5632	0	33132	
5633	0	33136	
5634	0	33172	
5635	0	33228	
5636	0	33260	
5637	0	33292	
5638	0	33268	
5639	0	33196	
5640	0	33120	
5641	0	33112	
5642	0	33128	
5643	0	33160	
5644	0	33164	
5645	0	33224	
5646	0	33292	
5647	0	33348	
5648	0	33408	
5649	0	33390	
5650	0	33364	
5651	0	33408	
5652	0	33384	
5653	0	33324	
5654	0	33264	
5655	0	33228	
5656	0	33188	
5657	0	33156	
5658	0	33152	
5659	0	33192	
5660	0	33260	
5661	0	33304	
5662	0	33284	
5663	0	33248	
5664	0	33264	
5665	0	33314	
5666	0	33368	
5667	0	33380	
5668	0	33374	
5669	0	33364	
5670	0	33328	
5671	0	33316	
5672	0	33320	
5673	0	33320	
5674	0	33312	
5675	0	33312	
5676	0	33312	
5677	0	33304	
5678	0	33272	
5679	0	33236	
5680	0	33208	
5681	0	33180	
5682	0	33132	
5683	0	33064	
5684	0	32984	
5685	0	32960	
5686	0	32984	
5687	0	33016	
5688	0	33016	
5689	0	33020	
5690	0	32996	
5691	0	32984	
5692	0	32960	
5693	0	32932	
5694	0	32942	
5695	0	32986	
5696	0	32992	
5697	0	32992	
5698	0	33020	
5699	0	33040	
5700	0	33044	
5701	0	33036	
5702	0	33024	
5703	0	32998	
5704	0	32988	
5705	0	32946	
5706	0	32856	
5707	0	32784	
5708	0	32712	
5709	0	32684	
5710	0	32666	
5711	0	32656	
5712	0	32696	
5713	0	32756	
5714	0	32800	
5715	0	32840	
5716	0	32840	
5717	0	32788	
5718	0	32736	
5719	0	32728	
5720	0	32704	
5721	0	32664	
5722	0	32672	
5723	0	32652	
5724	0	32672	
5725	0	32700	
5726	0	32720	
5727	0	32660	
5728	0	32616	
5729	0	32552	
5730	0	32540	
5731	0	32548	
5732	0	32556	
5733	0	32592	
5734	0	32632	
5735	0	32624	
5736	0	32560	
5737	0	32496	
5738	0	32448	
5739	0	32476	
5740	0	32528	
5741	0	32568	
5742	0	32566	
5743	0	32560	
5744	0	32544	
5745	0	32512	
5746	0	32484	
5747	0	32496	
5748	0	32512	
5749	0	32456	
5750	0	32376	
5751	0	32364	
5752	0	32388	
5753	0	32408	
5754	0	32456	
5755	0	32560	
5756	0	32584	
5757	0	32524	
5758	0	32460	
5759	0	32450	
5760	0	32492	
5761	0	32544	
5762	0	32544	
5763	0	32516	
5764	0	32488	
5765	0	32472	
5766	0	32460	
5767	0	32440	
5768	0	32388	
5769	0	32320	
5770	0	32280	
5771	0	32298	
5772	0	32354	
5773	0	32424	
5774	0	32448	
5775	0	32424	
5776	0	32416	
5777	0	32428	
5778	0	32440	
5779	0	32472	
5780	0	32480	
5781	0	32476	
5782	0	32476	
5783	0	32492	
5784	0	32468	
5785	0	32464	
5786	0	32472	
5787	0	32456	
5788	0	32448	
5789	0	32452	
5790	0	32464	
5791	0	32460	
5792	0	32420	
5793	0	32388	
5794	0	32392	
5795	0	32400	
5796	0	32468	
5797	0	32484	
5798	0	32480	
5799	0	32508	
5800	0	32556	
5801	0	32592	
5802	0	32652	
5803	0	32704	
5804	0	32764	
5805	0	32852	
5806	0	32970	
5807	0	33104	
5808	0	33224	
5809	0	33280	
5810	0	33344	
5811	0	33480	
5812	0	33664	
5813	0	33840	
5814	0	33940	
5815	0	34048	
5816	0	34128	
5817	0	34164	
5818	0	34136	
5819	0	34086	
5820	0	33984	
5821	0	33924	
5822	0	33900	
5823	0	33952	
5824	0	34052	
5825	0	34106	
5826	0	34112	
5827	0	34088	
5828	0	34016	
5829	0	34024	
5830	0	34196	
5831	0	34428	
5832	0	34688	
5833	0	34984	
5834	0	35276	
5835	0	35584	
5836	0	35912	
5837	0	36224	
5838	0	36472	
5839	0	36666	
5840	0	36816	
5841	0	36872	
5842	0	36892	
5843	0	36888	
5844	0	36896	
5845	0	36898	
5846	0	36860	
5847	0	36820	
5848	0	36780	
5849	0	36708	
5850	0	36596	
5851	0	36448	
5852	0	36236	
5853	0	36092	
5854	0	36024	
5855	0	36020	
5856	0	36024	
5857	0	36000	
5858	0	35976	
5859	0	35976	
5860	0	35968	
5861	0	35936	
5862	0	35896	
5863	0	35840	
5864	0	35776	
5865	0	35696	
5866	0	35516	
5867	0	35264	
5868	0	34916	
5869	0	34530	
5870	0	34176	
5871	0	33820	
5872	0	33372	
5873	0	32940	
5874	0	32536	
5875	0	32192	
5876	0	31992	
5877	0	31828	
5878	0	31656	
5879	0	31512	
5880	0	31416	
5881	0	31358	
5882	0	31372	
5883	0	31380	
5884	0	31340	
5885	0	31236	
5886	0	31100	
5887	0	30928	
5888	0	30756	
5889	0	30620	
5890	0	30484	
5891	0	30384	
5892	0	30340	
5893	0	30344	
5894	0	30360	
5895	0	30408	
5896	0	30432	
5897	0	30468	
5898	0	30476	
5899	0	30492	
5900	0	30528	
5901	0	30532	
5902	0	30540	
5903	0	30536	
5904	0	30556	
5905	0	30584	
5906	0	30630	
5907	0	30668	
5908	0	30696	
5909	0	30704	
5910	0	30664	
5911	0	30680	
5912	0	30714	
5913	0	30688	
5914	0	30640	
5915	0	30592	
5916	0	30552	
5917	0	30590	
5918	0	30616	
5919	0	30640	
5920	0	30692	
5921	0	30728	
5922	0	30746	
5923	0	30792	
5924	0	30844	
5925	0	30864	
5926	0	30900	
5927	0	30914	
5928	0	30904	
5929	0	30832	
5930	0	30692	
5931	0	30480	
5932	0	30192	
5933	0	29708	
5934	0	28944	
5935	0	28016	
5936	0	27032	
5937	0	26052	
5938	0	25056	
5939	0	24188	
5940	0	23548	
5941	0	23124	
5942	0	22808	
5943	0	22652	
5944	0	22780	
5945	0	23192	
5946	0	23792	
5947	0	24464	
5948	0	25328	
5949	0	26680	
5950	0	28480	
5951	0	30658	
5952	0	33140	
5953	0	35884	
5954	0	38868	
5955	0	41976	
5956	0	45444	
5957	0	49272	
5958	0	53268	
5959	0	57304	
5960	0	60660	
5961	0	62592	
5962	0	63584	
5963	0	64080	
5964	0	64268	
5965	0	64336	
5966	0	64320	
5967	0	64244	
5968	0	64128	
5969	0	64024	
5970	0	63908	
5971	0	62552	
5972	0	55860	
5973	0	50484	
5974	0	46312	
5975	0	42568	
5976	0	38728	
5977	0	35324	
5978	0	32596	
5979	0	30308	
5980	0	28168	
5981	0	26200	
5982	0	24540	
5983	0	23120	
5984	0	21880	
5985	0	20768	
5986	0	19956	
5987	0	19368	
5988	0	18886	
5989	0	18450	
5990	0	18126	
5991	0	18100	
5992	0	18450	
5993	0	19000	
5994	0	19428	
5995	0	19708	
5996	0	20077	
5997	0	20504	
5998	0	21000	
5999	0	21492	
6000	0	22016	
6001	0	22584	
6002	0	23090	
6003	0	23518	
6004	0	23968	
6005	0	24520	
6006	0	25184	
6007	0	25936	
6008	0	26632	
6009	0	27208	
6010	0	27684	
6011	0	28044	
6012	0	28360	
6013	0	28656	
6014	0	28896	
6015	0	29116	
6016	0	29256	
6017	0	29348	
6018	0	29420	
6019	0	29488	
6020	0	29556	
6021	0	29632	
6022	0	29684	
6023	0	29764	
6024	0	29848	
6025	0	29912	
6026	0	29920	
6027	0	29936	
6028	0	29928	
6029	0	29922	
6030	0	29962	
6031	0	30080	
6032	0	30256	
6033	0	30340	
6034	0	30400	
6035	0	30480	
6036	0	30576	
6037	0	30616	
6038	0	30624	
6039	0	30656	
6040	0	30732	
6041	0	30812	
6042	0	30896	
6043	0	30952	
6044	0	30968	
6045	0	30996	
6046	0	31072	
6047	0	31148	
6048	0	31176	
6049	0	31188	
6050	0	31220	
6051	0	31276	
6052	0	31332	
6053	0	31392	
6054	0	31424	
6055	0	31476	
6056	0	31534	
6057	0	31560	
6058	0	31616	
6059	0	31660	
6060	0	31640	
6061	0	31620	
6062	0	31636	
6063	0	31676	
6064	0	31718	
6065	0	31796	
6066	0	31872	
6067	0	31932	
6068	0	31956	
6069	0	31984	
6070	0	32028	
6071	0	32088	
6072	0	32112	
6073	0	32148	
6074	0	32160	
6075	0	32144	
6076	0	32156	
6077	0	32184	
6078	0	32208	
6079	0	32220	
6080	0	32236	
6081	0	32268	
6082	0	32312	
6083	0	32360	
6084	0	32416	
6085	0	32444	
6086	0	32448	
6087	0	32476	
6088	0	32512	
6089	0	32532	
6090	0	32556	
6091	0	32600	
6092	0	32624	
6093	0	32642	
6094	0	32660	
6095	0	32704	
6096	0	32732	
6097	0	32694	
6098	0	32676	
6099	0	32688	
6100	0	32704	
6101	0	32716	
6102	0	32736	
6103	0	32786	
6104	0	32796	
6105	0	32808	
6106	0	32848	
6107	0	32848	
6108	0	32846	
6109	0	32864	
6110	0	32864	
6111	0	32888	
6112	0	32946	
6113	0	32976	
6114	0	32960	
6115	0	32916	
6116	0	32914	
6117	0	32908	
6118	0	32948	
6119	0	32976	
6120	0	32992	
6121	0	33008	
6122	0	33040	
6123	0	33064	
6124	0	33085	
6125	0	33082	
6126	0	33072	
6127	0	33048	
6128	0	33032	
6129	0	33028	
6130	0	33028	
6131	0	33012	
6132	0	32992	
6133	0	32976	
6134	0	32934	
6135	0	32916	
6136	0	32908	
6137	0	32900	
6138	0	32912	
6139	0	32956	
6140	0	32952	
6141	0	32960	
6142	0	33000	
6143	0	32996	
6144	0	32948	
6145	0	32916	
6146	0	32896	
6147	0	32864	
6148	0	32820	
6149	0	32808	
6150	0	32832	
6151	0	32904	
6152	0	32952	
6153	0	32960	
6154	0	32944	
6155	0	32916	
6156	0	32896	
6157	0	32912	
6158	0	32928	
6159	0	32984	
6160	0	33028	
6161	0	33040	
6162	0	32988	
6163	0	32964	
6164	0	32930	
6165	0	32872	
6166	0	32796	
6167	0	32752	
6168	0	32736	
6169	0	32700	
6170	0	32668	
6171	0	32700	
6172	0	32708	
6173	0	32728	
6174	0	32772	
6175	0	32832	
6176	0	32896	
6177	0	32932	
6178	0	32920	
6179	0	32904	
6180	0	32912	
6181	0	32920	
6182	0	32944	
6183	0	32956	
6184	0	32976	
6185	0	32972	
6186	0	32968	
6187	0	33036	
6188	0	33104	
6189	0	33176	
6190	0	33240	
6191	0	33320	
6192	0	33368	
6193	0	33412	
6194	0	33452	
6195	0	33476	
6196	0	33516	
6197	0	33556	
6198	0	33556	
6199	0	33568	
6200	0	33620	
6201	0	33660	
6202	0	33664	
6203	0	33650	
6204	0	33672	
6205	0	33700	
6206	0	33728	
6207	0	33720	
6208	0	33656	
6209	0	33620	
6210	0	33580	
6211	0	33560	
6212	0	33564	
6213	0	33520	
6214	0	33424	
6215	0	33384	
6216	0	33384	
6217	0	33388	
6218	0	33398	
6219	0	33396	
6220	0	33344	
6221	0	33316	
6222	0	33244	
6223	0	33140	
6224	0	33056	
6225	0	32994	
6226	0	32940	
6227	0	32948	
6228	0	32972	
6229	0	32956	
6230	0	32956	
6231	0	32940	
6232	0	32888	
6233	0	32810	
6234	0	32760	
6235	0	32720	
6236	0	32728	
6237	0	32764	
6238	0	32732	
6239	0	32676	
6240	0	32628	
6241	0	32616	
6242	0	32604	
6243	0	32584	
6244	0	32512	
6245	0	32472	
6246	0	32480	
6247	0	32460	
6248	0	32440	
6249	0	32416	
6250	0	32372	
6251	0	32308	
6252	0	32260	
6253	0	32248	
6254	0	32224	
6255	0	32212	
6256	0	32220	
6257	0	32220	
6258	0	32224	
6259	0	32228	
6260	0	32250	
6261	0	32296	
6262	0	32296	
6263	0	32268	
6264	0	32256	
6265	0	32256	
6266	0	32248	
6267	0	32244	
6268	0	32216	
6269	0	32196	
6270	0	32208	
6271	0	32204	
6272	0	32212	
6273	0	32216	
6274	0	32242	
6275	0	32280	
6276	0	32272	
6277	0	32268	
6278	0	32296	
6279	0	32324	
6280	0	32414	
6281	0	32428	
6282	0	32432	
6283	0	32440	
6284	0	32440	
6285	0	32408	
6286	0	32372	
6287	0	32348	
6288	0	32320	
6289	0	32304	
6290	0	32272	
6291	0	32252	
6292	0	32272	
6293	0	32312	
6294	0	32330	
6295	0	32352	
6296	0	32344	
6297	0	32360	
6298	0	32372	
6299	0	32384	
6300	0	32404	
6301	0	32388	
6302	0	32360	
6303	0	32360	
6304	0	32376	
6305	0	32405	
6306	0	32448	
6307	0	32464	
6308	0	32472	
6309	0	32476	
6310	0	32484	
6311	0	32504	
6312	0	32518	
6313	0	32556	
6314	0	32584	
6315	0	32576	
6316	0	32592	
6317	0	32604	
6318	0	32636	
6319	0	32668	
6320	0	32668	
6321	0	32664	
6322	0	32632	
6323	0	32594	
6324	0	32620	
6325	0	32672	
6326	0	32696	
6327	0	32728	
6328	0	32732	
6329	0	32704	
6330	0	32712	
6331	0	32730	
6332	0	32752	
6333	0	32772	
6334	0	32812	
6335	0	32854	
6336	0	32876	
6337	0	32896	
6338	0	32884	
6339	0	32840	
6340	0	32808	
6341	0	32800	
6342	0	32846	
6343	0	32900	
6344	0	32932	
6345	0	32928	
6346	0	32908	
6347	0	32918	
6348	0	32944	
6349	0	32968	
6350	0	32960	
6351	0	32984	
6352	0	32992	
6353	0	32984	
6354	0	33004	
6355	0	33020	
6356	0	33060	
6357	0	33092	
6358	0	33156	
6359	0	33188	
6360	0	33184	
6361	0	33152	
6362	0	33128	
6363	0	33128	
6364	0	33176	
6365	0	33228	
6366	0	33300	
6367	0	33368	
6368	0	33408	
6369	0	33428	
6370	0	33404	
6371	0	33392	
6372	0	33340	
6373	0	33296	
6374	0	33280	
6375	0	33304	
6376	0	33292	
6377	0	33252	
6378	0	33212	
6379	0	33168	
6380	0	33108	
6381	0	33056	
6382	0	33004	
6383	0	32984	
6384	0	33040	
6385	0	33108	
6386	0	33148	
6387	0	33152	
6388	0	33176	
6389	0	33232	
6390	0	33240	
6391	0	33248	
6392	0	33248	
6393	0	33264	
6394	0	33328	
6395	0	33304	
6396	0	33168	
6397	0	33040	
6398	0	32976	
6399	0	32984	
6400	0	33020	
6401	0	33060	
6402	0	33064	
6403	0	33088	
6404	0	33068	
6405	0	33040	
6406	0	33020	
6407	0	33040	
6408	0	33076	
6409	0	33082	
6410	0	33090	
6411	0	33124	
6412	0	33164	
6413	0	33192	
6414	0	33152	
6415	0	33080	
6416	0	33048	
6417	0	32994	
6418	0	32952	
6419	0	32932	
6420	0	32916	
6421	0	32932	
6422	0	32956	
6423	0	33008	
6424	0	33024	
6425	0	33032	
6426	0	33060	
6427	0	33034	
6428	0	33028	
6429	0	33032	
6430	0	33036	
6431	0	33026	
6432	0	32992	
6433	0	32932	
6434	0	32892	
6435	0	32832	
6436	0	32816	
6437	0	32808	
6438	0	32816	
6439	0	32800	
6440	0	32788	
6441	0	32832	
6442	0	32860	
6443	0	32868	
6444	0	32884	
6445	0	32872	
6446	0	32846	
6447	0	32804	
6448	0	32732	
6449	0	32680	
6450	0	32672	
6451	0	32648	
6452	0	32636	
6453	0	32654	
6454	0	32668	
6455	0	32684	
6456	0	32768	
6457	0	32816	
6458	0	32820	
6459	0	32780	
6460	0	32760	
6461	0	32772	
6462	0	32772	
6463	0	32786	
6464	0	32752	
6465	0	32708	
6466	0	32654	
6467	0	32592	
6468	0	32544	
6469	0	32540	
6470	0	32544	
6471	0	32528	
6472	0	32496	
6473	0	32504	
6474	0	32524	
6475	0	32580	
6476	0	32588	
6477	0	32554	
6478	0	32556	
6479	0	32576	
6480	0	32604	
6481	0	32596	
6482	0	32580	
6483	0	32600	
6484	0	32648	
6485	0	32684	
6486	0	32640	
6487	0	32556	
6488	0	32490	
6489	0	32424	
6490	0	32380	
6491	0	32356	
6492	0	32364	
6493	0	32400	
6494	0	32476	
6495	0	32540	
6496	0	32576	
6497	0	32600	
6498	0	32584	
6499	0	32592	
6500	0	32576	
6501	0	32504	
6502	0	32416	
6503	0	32384	
6504	0	32388	
6505	0	32360	
6506	0	32340	
6507	0	32368	
6508	0	32418	
6509	0	32448	
6510	0	32480	
6511	0	32512	
6512	0	32524	
6513	0	32484	
6514	0	32464	
6515	0	32480	
6516	0	32568	
6517	0	32628	
6518	0	32644	
6519	0	32676	
6520	0	32686	
6521	0	32664	
6522	0	32626	
6523	0	32632	
6524	0	32652	
6525	0	32656	
6526	0	32632	
6527	0	32612	
6528	0	32580	
6529	0	32620	
6530	0	32648	
6531	0	32712	
6532	0	32824	
6533	0	32988	
6534	0	33120	
6535	0	33242	
6536	0	33372	
6537	0	33532	
6538	0	33700	
6539	0	33856	
6540	0	33992	
6541	0	34100	
6542	0	34160	
6543	0	34224	
6544	0	34256	
6545	0	34240	
6546	0	34192	
6547	0	34156	
6548	0	34104	
6549	0	34104	
6550	0	34136	
6551	0	34168	
6552	0	34164	
6553	0	34136	
6554	0	34080	
6555	0	34040	
6556	0	34080	
6557	0	34148	
6558	0	34316	
6559	0	34548	
6560	0	34848	
6561	0	35148	
6562	0	35456	
6563	0	35736	
6564	0	35952	
6565	0	36120	
6566	0	36264	
6567	0	36392	
6568	0	36544	
6569	0	36692	
6570	0	36752	
6571	0	36812	
6572	0	36860	
6573	0	36816	
6574	0	36744	
6575	0	36664	
6576	0	36600	
6577	0	36492	
6578	0	36360	
6579	0	36264	
6580	0	36240	
6581	0	36240	
6582	0	36252	
6583	0	36244	
6584	0	36220	
6585	0	36148	
6586	0	36076	
6587	0	36000	
6588	0	35876	
6589	0	35792	
6590	0	35714	
6591	0	35584	
6592	0	35424	
6593	0	35232	
6594	0	34920	
6595	0	34552	
6596	0	34196	
6597	0	33860	
6598	0	33480	
6599	0	33084	
6600	0	32648	
6601	0	32252	
6602	0	31916	
6603	0	31692	
6604	0	31576	
6605	0	31468	
6606	0	31372	
6607	0	31300	
6608	0	31274	
6609	0	31340	
6610	0	31424	
6611	0	31428	
6612	0	31372	
6613	0	31220	
6614	0	31052	
6615	0	30896	
6616	0	30748	
6617	0	30632	
6618	0	30584	
6619	0	30500	
6620	0	30388	
6621	0	30332	
6622	0	30362	
6623	0	30380	
6624	0	30388	
6625	0	30384	
6626	0	30432	
6627	0	30412	
6628	0	30372	
6629	0	30340	
6630	0	30356	
6631	0	30404	
6632	0	30444	
6633	0	30468	
6634	0	30496	
6635	0	30576	
6636	0	30624	
6637	0	30584	
6638	0	30544	
6639	0	30472	
6640	0	30456	
6641	0	30536	
6642	0	30620	
6643	0	30714	
6644	0	30784	
6645	0	30796	
6646	0	30816	
6647	0	30838	
6648	0	30832	
6649	0	30796	
6650	0	30704	
6651	0	30652	
6652	0	30628	
6653	0	30584	
6654	0	30508	
6655	0	30432	
6656	0	30384	
6657	0	30328	
6658	0	30200	
6659	0	30028	
6660	0	29568	
6661	0	28812	
6662	0	27908	
6663	0	26968	
6664	0	26028	
6665	0	25028	
6666	0	24140	
6667	0	23428	
6668	0	22992	
6669	0	22768	
6670	0	22721	
6671	0	22836	
6672	0	23100	
6673	0	23536	
6674	0	24210	
6675	0	25268	
6676	0	26848	
6677	0	28884	
6678	0	31348	
6679	0	34036	
6680	0	36760	
6681	0	39540	
6682	0	42430	
6683	0	45722	
6684	0	49416	
6685	0	53320	
6686	0	57344	
6687	0	60756	
6688	0	62736	
6689	0	63780	
6690	0	64292	
6691	0	64500	
6692	0	64552	
6693	0	64516	
6694	0	64452	
6695	0	64344	
6696	0	64240	
6697	0	64120	
6698	0	59184	
6699	0	52592	
6700	0	47304	
6701	0	43056	
6702	0	39264	
6703	0	35764	
6704	0	32748	
6705	0	30328	
6706	0	28332	
6707	0	26504	
6708	0	24672	
6709	0	23008	
6710	0	21680	
6711	0	20586	
6712	0	19576	
6713	0	18838	
6714	0	18466	
6715	0	18188	
6716	0	17848	
6717	0	17582	
6718	0	17610	
6719	0	17936	
6720	0	18424	
6721	0	18868	
6722	0	19172	
6723	0	19528	
6724	0	19980	
6725	0	20368	
6726	0	20926	
6727	0	21464	
6728	0	21908	
6729	0	22400	
6730	0	23000	
6731	0	23648	
6732	0	24314	
6733	0	25008	
6734	0	25664	
6735	0	26300	
6736	0	26940	
6737	0	27576	
6738	0	28116	
6739	0	28516	
6740	0	28772	
6741	0	28940	
6742	0	29088	
6743	0	29184	
6744	0	29204	
6745	0	29240	
6746	0	29300	
6747	0	29417	
6748	0	29538	
6749	0	29616	
6750	0	29696	
6751	0	29792	
6752	0	29940	
6753	0	30068	
6754	0	30168	
6755	0	30276	
6756	0	30384	
6757	0	30480	
6758	0	30528	
6759	0	30550	
6760	0	30592	
6761	0	30716	
6762	0	30898	
6763	0	30980	
6764	0	30952	
6765	0	30986	
6766	0	30984	
6767	0	30980	
6768	0	31000	
6769	0	31008	
6770	0	31020	
6771	0	31056	
6772	0	31016	
6773	0	31024	
6774	0	31120	
6775	0	31308	
6776	0	31480	
6777	0	31604	
6778	0	31688	
6779	0	31854	
6780	0	31888	
6781	0	31836	
6782	0	31788	
6783	0	31832	
6784	0	31872	
6785	0	31876	
6786	0	31828	
6787	0	31796	
6788	0	31796	
6789	0	31880	
6790	0	31960	
6791	0	32000	
6792	0	32044	
6793	0	32076	
6794	0	32096	
6795	0	32144	
6796	0	32188	
6797	0	32172	
6798	0	32208	
6799	0	32288	
6800	0	32400	
6801	0	32476	
6802	0	32480	
6803	0	32532	
6804	0	32578	
6805	0	32616	
6806	0	32664	
6807	0	32572	
6808	0	32444	
6809	0	32352	
6810	0	32344	
6811	0	32332	
6812	0	32372	
6813	0	32428	
6814	0	32492	
6815	0	32524	
6816	0	32560	
6817	0	32624	
6818	0	32680	
6819	0	32744	
6820	0	32824	
6821	0	32992	
6822	0	33184	
6823	0	33280	
6824	0	33368	
6825	0	33408	
6826	0	33344	
6827	0	33256	
6828	0	33116	
6829	0	32920	
6830	0	32832	
6831	0	32844	
6832	0	32920	
6833	0	32968	
6834	0	33008	
6835	0	32928	
6836	0	32836	
6837	0	32800	
6838	0	32824	
6839	0	32904	
6840	0	32992	
6841	0	33076	
6842	0	33184	
6843	0	33212	
6844	0	33212	
6845	0	33192	
6846	0	33176	
6847	0	33248	
6848	0	33280	
6849	0	33308	
6850	0	33360	
6851	0	33392	
6852	0	33452	
6853	0	33532	
6854	0	33562	
6855	0	33540	
6856	0	33444	
6857	0	33320	
6858	0	33280	
6859	0	33296	
6860	0	33312	
6861	0	33408	
6862	0	33488	
6863	0	33536	
6864	0	33584	
6865	0	33642	
6866	0	33668	
6867	0	33776	
6868	0	33760	
6869	0	33660	
6870	0	33396	
6871	0	33236	
6872	0	33176	
6873	0	33132	
6874	0	33084	
6875	0	33120	
6876	0	33200	
6877	0	33312	
6878	0	33436	
6879	0	33444	
6880	0	33400	
6881	0	33404	
6882	0	33410	
6883	0	33380	
6884	0	33320	
6885	0	33360	
6886	0	33428	
6887	0	33448	
6888	0	33372	
6889	0	33284	
6890	0	33352	
6891	0	33496	
6892	0	33620	
6893	0	33680	
6894	0	33692	
6895	0	33716	
6896	0	33720	
6897	0	33616	
6898	0	33456	
6899	0	33408	
6900	0	33440	
6901	0	33512	
6902	0	33520	
6903	0	33528	
6904	0	33536	
6905	0	33504	
6906	0	33424	
6907	0	33412	
6908	0	33440	
6909	0	33472	
6910	0	33508	
6911	0	33492	
6912	0	33504	
6913	0	33592	
6914	0	33658	
6915	0	33648	
6916	0	33624	
6917	0	33656	
6918	0	33676	
6919	0	33684	
6920	0	33728	
6921	0	33740	
6922	0	33788	
6923	0	33928	
6924	0	34056	
6925	0	34196	
6926	0	34104	
6927	0	33920	
6928	0	33944	
6929	0	34060	
6930	0	34180	
6931	0	34284	
6932	0	34356	
6933	0	34370	
6934	0	34316	
6935	0	34192	
6936	0	34124	
6937	0	34058	
6938	0	33936	
6939	0	33722	
6940	0	33652	
6941	0	33724	
6942	0	33772	
6943	0	33664	
6944	0	33506	
6945	0	33416	
6946	0	33320	
6947	0	33204	
6948	0	33142	
6949	0	33180	
6950	0	33176	
6951	0	33112	
6952	0	33204	
6953	0	33390	
6954	0	33460	
6955	0	33464	
6956	0	33472	
6957	0	33336	
6958	0	33012	
6959	0	32760	
6960	0	32664	
6961	0	32580	
6962	0	32616	
6963	0	32612	
6964	0	32624	
6965	0	32648	
6966	0	32640	
6967	0	32668	
6968	0	32488	
6969	0	32236	
6970	0	32130	
6971	0	32200	
6972	0	32376	
6973	0	32400	
6974	0	32284	
6975	0	32188	
6976	0	32252	
6977	0	32356	
6978	0	32344	
6979	0	32224	
6980	0	32088	
6981	0	32088	
6982	0	32040	
6983	0	31900	
6984	0	31832	
6985	0	31852	
6986	0	32056	
6987	0	32344	
6988	0	32530	
6989	0	32640	
6990	0	32688	
6991	0	32488	
6992	0	32280	
6993	0	32224	
6994	0	32232	
6995	0	32132	
6996	0	31968	
6997	0	31860	
6998	0	31748	
6999	0	31646	
7000	0	31732	
7001	0	31888	
7002	0	31928	
7003	0	32016	
7004	0	32224	
7005	0	32348	
7006	0	32296	
7007	0	32118	
7008	0	31844	
7009	0	31760	
7010	0	31746	
7011	0	31792	
7012	0	32020	
7013	0	32208	
7014	0	32352	
7015	0	32460	
7016	0	32524	
7017	0	32480	
7018	0	32184	
7019	0	31870	
7020	0	31812	
7021	0	31924	
7022	0	32128	
7023	0	32220	
7024	0	32296	
7025	0	32264	
7026	0	32144	
7027	0	32084	
7028	0	32140	
7029	0	32340	
7030	0	32492	
7031	0	32544	
7032	0	32560	
7033	0	32536	
7034	0	32400	
7035	0	32116	
7036	0	31868	
7037	0	31856	
7038	0	31984	
7039	0	32026	
7040	0	32024	
7041	0	32078	
7042	0	32234	
7043	0	32426	
7044	0	32528	
7045	0	32484	
7046	0	32406	
7047	0	32328	
7048	0	32364	
7049	0	32288	
7050	0	32042	
7051	0	31908	
7052	0	31856	
7053	0	31794	
7054	0	31824	
7055	0	31864	
7056	0	31948	
7057	0	32124	
7058	0	32272	
7059	0	32324	
7060	0	32428	
7061	0	32608	
7062	0	32680	
7063	0	32584	
7064	0	32504	
7065	0	32496	
7066	0	32452	
7067	0	32428	
7068	0	32444	
7069	0	32480	
7070	0	32576	
7071	0	32760	
7072	0	32842	
7073	0	32832	
7074	0	32812	
7075	0	32768	
7076	0	32736	
7077	0	32760	
7078	0	32760	
7079	0	32704	
7080	0	32724	
7081	0	32864	
7082	0	33044	
7083	0	33296	
7084	0	33404	
7085	0	33368	
7086	0	33312	
7087	0	33232	
7088	0	33136	
7089	0	33028	
7090	0	32924	
7091	0	32908	
7092	0	32910	
7093	0	32816	
7094	0	32648	
7095	0	32552	
7096	0	32596	
7097	0	32636	
7098	0	32592	
7099	0	32608	
7100	0	32804	
7101	0	33128	
7102	0	33392	
7103	0	33444	
7104	0	33312	
7105	0	33188	
7106	0	33184	
7107	0	33180	
7108	0	33216	
7109	0	33280	
7110	0	33216	
7111	0	33248	
7112	0	33336	
7113	0	33472	
7114	0	33600	
7115	0	33672	
7116	0	33560	
7117	0	33432	
7118	0	33332	
7119	0	33312	
7120	0	33306	
7121	0	33276	
7122	0	33176	
7123	0	33040	
7124	0	32880	
7125	0	33040	
7126	0	33476	
7127	0	33592	
7128	0	33592	
7129	0	33634	
7130	0	33666	
7131	0	33680	
7132	0	33810	
7133	0	33880	
7134	0	33844	
7135	0	33576	
7136	0	33176	
7137	0	33020	
7138	0	33032	
7139	0	33108	
7140	0	33228	
7141	0	33372	
7142	0	33360	
7143	0	33136	
7144	0	32860	
7145	0	32668	
7146	0	32640	
7147	0	32760	
7148	0	32960	
7149	0	33198	
7150	0	33360	
7151	0	33460	
7152	0	33472	
7153	0	33324	
7154	0	33124	
7155	0	32904	
7156	0	32820	
7157	0	32908	
7158	0	32880	
7159	0	32784	
7160	0	32832	
7161	0	32896	
7162	0	32824	
7163	0	32952	
7164	0	33100	
7165	0	33144	
7166	0	33152	
7167	0	33216	
7168	0	33268	
7169	0	33176	
7170	0	33020	
7171	0	33028	
7172	0	33020	
7173	0	32970	
7174	0	32972	
7175	0	32988	
7176	0	32940	
7177	0	32856	
7178	0	32792	
7179	0	32748	
7180	0	32748	
7181	0	32712	
7182	0	32548	
7183	0	32428	
7184	0	32418	
7185	0	32388	
7186	0	32372	
7187	0	32412	
7188	0	32492	
7189	0	32644	
7190	0	32892	
7191	0	33140	
7192	0	33094	
7193	0	32960	
7194	0	32868	
7195	0	32885	
7196	0	32912	
7197	0	32864	
7198	0	32876	
7199	0	32844	
7200	0	32768	
7201	0	32816	
7202	0	32688	
7203	0	32492	
7204	0	32436	
7205	0	32492	
7206	0	32704	
7207	0	32840	
7208	0	32736	
7209	0	32476	
7210	0	32276	
7211	0	32236	
7212	0	32312	
7213	0	32580	
7214	0	32832	
7215	0	33076	
7216	0	33056	
7217	0	32872	
7218	0	32824	
7219	0	32860	
7220	0	33032	
7221	0	33212	
7222	0	33288	
7223	0	33240	
7224	0	33152	
7225	0	33088	
7226	0	33164	
7227	0	33424	
7228	0	33632	
7229	0	33744	
7230	0	33736	
7231	0	33652	
7232	0	33564	
7233	0	33476	
7234	0	33320	
7235	0	33244	
7236	0	33286	
7237	0	33460	
7238	0	33640	
7239	0	33768	
7240	0	33805	
7241	0	33758	
7242	0	33708	
7243	0	33604	
7244	0	33388	
7245	0	33304	
7246	0	33460	
7247	0	33756	
7248	0	34164	
7249	0	34464	
7250	0	34652	
7251	0	34984	
7252	0	35436	
7253	0	35804	
7254	0	36124	
7255	0	36348	
7256	0	36384	
7257	0	36348	
7258	0	36424	
7259	0	36444	
7260	0	36332	
7261	0	36240	
7262	0	36120	
7263	0	36000	
7264	0	35812	
7265	0	35764	
7266	0	35844	
7267	0	35956	
7268	0	36048	
7269	0	36040	
7270	0	36024	
7271	0	36036	
7272	0	36040	
7273	0	36072	
7274	0	36204	
7275	0	36248	
7276	0	36112	
7277	0	35796	
7278	0	35544	
7279	0	35456	
7280	0	35312	
7281	0	35068	
7282	0	34836	
7283	0	34660	
7284	0	34608	
7285	0	34496	
7286	0	34272	
7287	0	33836	
7288	0	33360	
7289	0	33122	
7290	0	32872	
7291	0	32400	
7292	0	31956	
7293	0	31644	
7294	0	31368	
7295	0	31228	
7296	0	31152	
7297	0	31088	
7298	0	31004	
7299	0	30956	
7300	0	31064	
7301	0	31204	
7302	0	31308	
7303	0	31280	
7304	0	31112	
7305	0	31052	
7306	0	31044	
7307	0	31016	
7308	0	30984	
7309	0	31112	
7310	0	31368	
7311	0	31328	
7312	0	31054	
7313	0	30884	
7314	0	30720	
7315	0	30534	
7316	0	30460	
7317	0	30488	
7318	0	30500	
7319	0	30604	
7320	0	30848	
7321	0	31172	
7322	0	31328	
7323	0	31212	
7324	0	30920	
7325	0	30784	
7326	0	30804	
7327	0	30768	
7328	0	30564	
7329	0	30404	
7330	0	30364	
7331	0	30420	
7332	0	30496	
7333	0	30560	
7334	0	30496	
7335	0	30408	
7336	0	30410	
7337	0	30554	
7338	0	30768	
7339	0	31012	
7340	0	31320	
7341	0	31592	
7342	0	31796	
7343	0	31852	
7344	0	31692	
7345	0	31392	
7346	0	31072	
7347	0	30684	
7348	0	30224	
7349	0	29684	
7350	0	29132	
7351	0	28596	
7352	0	28028	
7353	0	27268	
7354	0	26398	
7355	0	25600	
7356	0	25052	
7357	0	24876	
7358	0	24976	
7359	0	24948	
7360	0	24876	
7361	0	25036	
7362	0	25392	
7363	0	25948	
7364	0	26812	
7365	0	28222	
7366	0	30004	
7367	0	31906	
7368	0	34272	
7369	0	36770	
7370	0	39264	
7371	0	41864	
7372	0	44672	
7373	0	47984	
7374	0	51480	
7375	0	55060	
7376	0	58624	
7377	0	61552	
7378	0	63168	
7379	0	63988	
7380	0	64372	
7381	0	64518	
7382	0	64556	
7383	0	64496	
7384	0	64408	
7385	0	64304	
7386	0	64200	
7387	0	62136	
7388	0	53552	
7389	0	46536	
7390	0	41048	
7391	0	36644	
7392	0	32796	
7393	0	29786	
7394	0	27712	
7395	0	26292	
7396	0	25292	
7397	0	24656	
7398	0	23988	
7399	0	23046	
7400	0	21870	
7401	0	20732	
7402	0	19840	
7403	0	18832	
7404	0	17952	
7405	0	17268	
7406	0	16852	
7407	0	16574	
7408	0	16456	
7409	0	16492	
7410	0	16874	
7411	0	17472	
7412	0	18096	
7413	0	18688	
7414	0	19208	
7415	0	19661	
7416	0	20208	
7417	0	20624	
7418	0	21206	
7419	0	21908	
7420	0	22508	
7421	0	23020	
7422	0	23364	
7423	0	23832	
7424	0	24400	
7425	0	24872	
7426	0	25336	
7427	0	25832	
7428	0	26520	
7429	0	27264	
7430	0	27948	
7431	0	28604	
7432	0	29192	
7433	0	29696	
7434	0	30044	
7435	0	30204	
7436	0	30336	
7437	0	30620	
7438	0	30936	
7439	0	31040	
7440	0	30888	
7441	0	30592	
7442	0	30352	
7443	0	30300	
7444	0	30476	
7445	0	30784	
7446	0	30980	
7447	0	30916	
7448	0	30956	
7449	0	31120	
7450	0	31284	
7451	0	31256	
7452	0	31280	
7453	0	31336	
7454	0	31478	
7455	0	31700	
7456	0	31792	
7457	0	31812	
7458	0	31718	
7459	0	31676	
7460	0	31744	
7461	0	31898	
7462	0	32032	
7463	0	32096	
7464	0	31904	
7465	0	31664	
7466	0	31580	
7467	0	31672	
7468	0	31932	
7469	0	32140	
7470	0	32288	
7471	0	32292	
7472	0	32352	
7473	0	32328	
7474	0	32212	
7475	0	32248	
7476	0	32496	
7477	0	32672	
7478	0	32668	
7479	0	32588	
7480	0	32572	
7481	0	32552	
7482	0	32440	
7483	0	32364	
7484	0	32482	
7485	0	32608	
7486	0	32592	
7487	0	32476	
7488	0	32352	
7489	0	32528	
7490	0	32844	
7491	0	33104	
7492	0	33284	
7493	0	33172	
7494	0	32964	
7495	0	33024	
7496	0	33156	
7497	0	33200	
7498	0	33172	
7499	0	33200	
7500	0	33240	
7501	0	33250	
7502	0	33248	
7503	0	33244	
7504	0	33212	
7505	0	33128	
7506	0	33128	
7507	0	33228	
7508	0	33304	
7509	0	33320	
7510	0	33306	
7511	0	33352	
7512	0	33384	
7513	0	33312	
7514	0	33216	
7515	0	33068	
7516	0	33105	
7517	0	33224	
7518	0	33322	
7519	0	33432	
7520	0	33452	
7521	0	33544	
7522	0	33800	
7523	0	34012	
7524	0	34214	
7525	0	34288	
7526	0	34132	
7527	0	33884	
7528	0	33682	
7529	0	33632	
7530	0	33656	
7531	0	33680	
7532	0	33712	
7533	0	33760	
7534	0	33896	
7535	0	34016	
7536	0	34104	
7537	0	34164	
7538	0	34108	
7539	0	33976	
7540	0	33900	
7541	0	33812	
7542	0	33784	
7543	0	33844	
7544	0	33944	
7545	0	34028	
7546	0	34016	
7547	0	33888	
7548	0	33888	
7549	0	34060	
7550	0	34412	
7551	0	34824	
7552	0	34960	
7553	0	34844	
7554	0	34600	
7555	0	34316	
7556	0	34208	
7557	0	34144	
7558	0	34024	
7559	0	33860	
7560	0	33684	
7561	0	33626	
7562	0	33712	
7563	0	33880	
7564	0	34160	
7565	0	34364	
7566	0	34396	
7567	0	34380	
7568	0	34440	
7569	0	34528	
7570	0	34668	
7571	0	34836	
7572	0	34816	
7573	0	34508	
7574	0	34074	
7575	0	33908	
7576	0	33968	
7577	0	34024	
7578	0	34056	
7579	0	34074	
7580	0	34136	
7581	0	34360	
7582	0	34568	
7583	0	34692	
7584	0	34760	
7585	0	34720	
7586	0	34536	
7587	0	34312	
7588	0	34112	
7589	0	33948	
7590	0	33908	
7591	0	34052	
7592	0	34336	
7593	0	34656	
7594	0	34796	
7595	0	34804	
7596	0	34744	
7597	0	34698	
7598	0	34676	
7599	0	34700	
7600	0	34800	
7601	0	34776	
7602	0	34700	
7603	0	34616	
7604	0	34488	
7605	0	34344	
7606	0	34128	
7607	0	33912	
7608	0	33844	
7609	0	33948	
7610	0	34064	
7611	0	34228	
7612	0	34364	
7613	0	34480	
7614	0	34532	
7615	0	34492	
7616	0	34476	
7617	0	34496	
7618	0	34436	
7619	0	34424	
7620	0	34480	
7621	0	34432	
7622	0	34428	
7623	0	34496	
7624	0	34528	
7625	0	34464	
7626	0	34320	
7627	0	34036	
7628	0	33736	
7629	0	33504	
7630	0	33268	
7631	0	33066	
7632	0	32964	
7633	0	32992	
7634	0	33248	
7635	0	33588	
7636	0	33780	
7637	0	33800	
7638	0	33664	
7639	0	33440	
7640	0	33224	
7641	0	32984	
7642	0	32720	
7643	0	32560	
7644	0	32544	
7645	0	32544	
7646	0	32596	
7647	0	32562	
7648	0	32412	
7649	0	32340	
7650	0	32420	
7651	0	32524	
7652	0	32572	
7653	0	32440	
7654	0	32332	
7655	0	32316	
7656	0	32348	
7657	0	32356	
7658	0	32338	
7659	0	32348	
7660	0	32280	
7661	0	31980	
7662	0	31808	
7663	0	31800	
7664	0	31816	
7665	0	31752	
7666	0	31684	
7667	0	31592	
7668	0	31546	
7669	0	31612	
7670	0	31664	
7671	0	31736	
7672	0	31844	
7673	0	31856	
7674	0	31796	
7675	0	31772	
7676	0	31756	
7677	0	31732	
7678	0	31724	
7679	0	31784	
7680	0	31940	
7681	0	32016	
7682	0	31964	
7683	0	31884	
7684	0	31788	
7685	0	31660	
7686	0	31676	
7687	0	31728	
7688	0	31778	
7689	0	31848	
7690	0	31952	
7691	0	32056	
7692	0	32172	
7693	0	32132	
7694	0	32068	
7695	0	32028	
7696	0	31946	
7697	0	31848	
7698	0	31772	
7699	0	31772	
7700	0	31784	
7701	0	31736	
7702	0	31652	
7703	0	31568	
7704	0	31568	
7705	0	31708	
7706	0	31856	
7707	0	31776	
7708	0	31676	
7709	0	31584	
7710	0	31496	
7711	0	31464	
7712	0	31552	
7713	0	31656	
7714	0	31760	
7715	0	31856	
7716	0	31880	
7717	0	31920	
7718	0	31976	
7719	0	32184	
7720	0	32460	
7721	0	32544	
7722	0	32340	
7723	0	32020	
7724	0	31784	
7725	0	31648	
7726	0	31618	
7727	0	31488	
7728	0	31316	
7729	0	31336	
7730	0	31552	
7731	0	31780	
7732	0	32040	
7733	0	32316	
7734	0	32424	
7735	0	32344	
7736	0	32192	
7737	0	32084	
7738	0	32232	
7739	0	32512	
7740	0	32808	
7741	0	32984	
7742	0	32844	
7743	0	32552	
7744	0	32204	
7745	0	31920	
7746	0	31680	
7747	0	31540	
7748	0	31420	
7749	0	31440	
7750	0	31736	
7751	0	32048	
7752	0	32404	
7753	0	32732	
7754	0	32780	
7755	0	32664	
7756	0	32560	
7757	0	32464	
7758	0	32260	
7759	0	32088	
7760	0	31976	
7761	0	31908	
7762	0	31884	
7763	0	31864	
7764	0	31828	
7765	0	31900	
7766	0	32128	
7767	0	32412	
7768	0	32712	
7769	0	32852	
7770	0	32780	
7771	0	32612	
7772	0	32448	
7773	0	32392	
7774	0	32388	
7775	0	32532	
7776	0	32780	
7777	0	32956	
7778	0	33036	
7779	0	33012	
7780	0	33016	
7781	0	32966	
7782	0	32880	
7783	0	32872	
7784	0	32868	
7785	0	32848	
7786	0	32784	
7787	0	32696	
7788	0	32704	
7789	0	32872	
7790	0	33056	
7791	0	33208	
7792	0	33342	
7793	0	33380	
7794	0	33328	
7795	0	33168	
7796	0	33092	
7797	0	33104	
7798	0	33172	
7799	0	33316	
7800	0	33424	
7801	0	33420	
7802	0	33372	
7803	0	33268	
7804	0	33136	
7805	0	33048	
7806	0	32992	
7807	0	32932	
7808	0	32964	
7809	0	33096	
7810	0	33236	
7811	0	33316	
7812	0	33320	
7813	0	33278	
7814	0	33216	
7815	0	33124	
7816	0	33092	
7817	0	33104	
7818	0	33144	
7819	0	33200	
7820	0	33216	
7821	0	33148	
7822	0	33120	
7823	0	33192	
7824	0	33260	
7825	0	33242	
7826	0	33332	
7827	0	33372	
7828	0	33328	
7829	0	33280	
7830	0	33256	
7831	0	33264	
7832	0	33292	
7833	0	33232	
7834	0	33152	
7835	0	33164	
7836	0	33210	
7837	0	33322	
7838	0	33440	
7839	0	33496	
7840	0	33450	
7841	0	33276	
7842	0	33128	
7843	0	33024	
7844	0	32960	
7845	0	33018	
7846	0	33128	
7847	0	33172	
7848	0	33128	
7849	0	33128	
7850	0	33096	
7851	0	33096	
7852	0	33068	
7853	0	33048	
7854	0	33136	
7855	0	33276	
7856	0	33344	
7857	0	33296	
7858	0	33120	
7859	0	33008	
7860	0	32964	
7861	0	32920	
7862	0	32868	
7863	0	32868	
7864	0	32928	
7865	0	32960	
7866	0	32856	
7867	0	32784	
7868	0	32828	
7869	0	32928	
7870	0	32996	
7871	0	33034	
7872	0	33052	
7873	0	33032	
7874	0	32992	
7875	0	32936	
7876	0	32864	
7877	0	32776	
7878	0	32700	
7879	0	32606	
7880	0	32552	
7881	0	32464	
7882	0	32456	
7883	0	32540	
7884	0	32720	
7885	0	32910	
7886	0	33056	
7887	0	33080	
7888	0	33068	
7889	0	33104	
7890	0	33152	
7891	0	33116	
7892	0	33018	
7893	0	32872	
7894	0	32764	
7895	0	32696	
7896	0	32692	
7897	0	32672	
7898	0	32552	
7899	0	32448	
7900	0	32440	
7901	0	32466	
7902	0	32520	
7903	0	32660	
7904	0	32868	
7905	0	32976	
7906	0	33124	
7907	0	33268	
7908	0	33436	
7909	0	33616	
7910	0	33728	
7911	0	33784	
7912	0	33776	
7913	0	33736	
7914	0	33740	
7915	0	33826	
7916	0	33884	
7917	0	33824	
7918	0	33704	
7919	0	33712	
7920	0	33784	
7921	0	33840	
7922	0	33916	
7923	0	33948	
7924	0	33888	
7925	0	33752	
7926	0	33690	
7927	0	33692	
7928	0	33796	
7929	0	34004	
7930	0	34280	
7931	0	34608	
7932	0	34848	
7933	0	34992	
7934	0	35220	
7935	0	35536	
7936	0	35856	
7937	0	36060	
7938	0	36236	
7939	0	36436	
7940	0	36548	
7941	0	36576	
7942	0	36544	
7943	0	36552	
7944	0	36532	
7945	0	36512	
7946	0	36484	
7947	0	36480	
7948	0	36484	
7949	0	36460	
7950	0	36386	
7951	0	36236	
7952	0	36072	
7953	0	35980	
7954	0	35968	
7955	0	35972	
7956	0	35968	
7957	0	35912	
7958	0	35804	
7959	0	35744	
7960	0	35736	
7961	0	35728	
7962	0	35688	
7963	0	35644	
7964	0	35592	
7965	0	35552	
7966	0	35444	
7967	0	35194	
7968	0	34884	
7969	0	34560	
7970	0	34176	
7971	0	33664	
7972	0	33192	
7973	0	32864	
7974	0	32640	
7975	0	32460	
7976	0	32340	
7977	0	32140	
7978	0	31872	
7979	0	31608	
7980	0	31484	
7981	0	31452	
7982	0	31424	
7983	0	31372	
7984	0	31316	
7985	0	31212	
7986	0	31012	
7987	0	30876	
7988	0	30768	
7989	0	30680	
7990	0	30666	
7991	0	30632	
7992	0	30556	
7993	0	30504	
7994	0	30528	
7995	0	30560	
7996	0	30668	
7997	0	30752	
7998	0	30780	
7999	0	30804	
8000	0	30798	
8001	0	30756	
8002	0	30688	
8003	0	30648	
8004	0	30576	
8005	0	30554	
8006	0	30576	
8007	0	30596	
8008	0	30624	
8009	0	30656	
8010	0	30680	
8011	0	30726	
8012	0	30784	
8013	0	30808	
8014	0	30784	
8015	0	30728	
8016	0	30684	
8017	0	30736	
8018	0	30778	
8019	0	30804	
8020	0	30828	
8021	0	30852	
8022	0	30876	
8023	0	30924	
8024	0	30976	
8025	0	31052	
8026	0	31152	
8027	0	31216	
8028	0	31200	
8029	0	31072	
8030	0	30848	
8031	0	30628	
8032	0	30368	
8033	0	29944	
8034	0	29292	
8035	0	28476	
8036	0	27652	
8037	0	26768	
8038	0	25818	
8039	0	24960	
8040	0	24328	
8041	0	23920	
8042	0	23626	
8043	0	23456	
8044	0	23508	
8045	0	23888	
8046	0	24542	
8047	0	25308	
8048	0	26294	
8049	0	27624	
8050	0	29348	
8051	0	31440	
8052	0	33896	
8053	0	36484	
8054	0	39232	
8055	0	42068	
8056	0	45168	
8057	0	48632	
8058	0	52340	
8059	0	56192	
8060	0	59896	
8061	0	62256	
8062	0	63512	
8063	0	64132	
8064	0	64424	
8065	0	64516	
8066	0	64508	
8067	0	64456	
8068	0	64356	
8069	0	64240	
8070	0	64120	
8071	0	59616	
8072	0	51760	
8073	0	45376	
8074	0	40232	
8075	0	35884	
8076	0	32188	
8077	0	29532	
8078	0	27788	
8079	0	26628	
8080	0	25608	
8081	0	24536	
8082	0	23212	
8083	0	21828	
8084	0	20720	
8085	0	19796	
8086	0	19056	
8087	0	18520	
8088	0	18220	
8089	0	17908	
8090	0	17522	
8091	0	17253	
8092	0	17210	
8093	0	17400	
8094	0	17764	
8095	0	18152	
8096	0	18536	
8097	0	18932	
8098	0	19448	
8099	0	19962	
8100	0	20512	
8101	0	21176	
8102	0	21880	
8103	0	22624	
8104	0	23241	
8105	0	23800	
8106	0	24444	
8107	0	25126	
8108	0	25768	
8109	0	26404	
8110	0	27040	
8111	0	27628	
8112	0	28196	
8113	0	28648	
8114	0	29024	
8115	0	29316	
8116	0	29572	
8117	0	29784	
8118	0	30000	
8119	0	30216	
8120	0	30408	
8121	0	30538	
8122	0	30636	
8123	0	30704	
8124	0	30714	
8125	0	30660	
8126	0	30544	
8127	0	30412	
8128	0	30348	
8129	0	30410	
8130	0	30548	
8131	0	30746	
8132	0	30880	
8133	0	30960	
8134	0	31016	
8135	0	31032	
8136	0	31008	
8137	0	31064	
8138	0	31224	
8139	0	31336	
8140	0	31456	
8141	0	31616	
8142	0	31720	
8143	0	31744	
8144	0	31760	
8145	0	31804	
8146	0	31860	
8147	0	31954	
8148	0	32016	
8149	0	31984	
8150	0	31912	
8151	0	31844	
8152	0	31808	
8153	0	31828	
8154	0	31860	
8155	0	31920	
8156	0	31944	
8157	0	31920	
8158	0	31960	
8159	0	32064	
8160	0	32156	
8161	0	32288	
8162	0	32372	
8163	0	32356	
8164	0	32308	
8165	0	32334	
8166	0	32396	
8167	0	32488	
8168	0	32504	
8169	0	32504	
8170	0	32518	
8171	0	32532	
8172	0	32580	
8173	0	32632	
8174	0	32668	
8175	0	32724	
8176	0	32744	
8177	0	32756	
8178	0	32808	
8179	0	32844	
8180	0	32872	
8181	0	32912	
8182	0	32928	
8183	0	32940	
8184	0	32976	
8185	0	32992	
8186	0	32976	
8187	0	32978	
8188	0	32952	
8189	0	32980	
8190	0	33064	
8191	0	33132	
8192	0	33144	
8193	0	33120	
8194	0	33120	
8195	0	33148	
8196	0	33092	
8197	0	33048	
8198	0	33082	
8199	0	33184	
8200	0	33284	
8201	0	33408	
8202	0	33460	
8203	0	33472	
8204	0	33468	
8205	0	33472	
8206	0	33492	
8207	0	33388	
8208	0	33260	
8209	0	33216	
8210	0	33248	
8211	0	33362	
8212	0	33432	
8213	0	33444	
8214	0	33428	
8215	0	33436	
8216	0	33476	
8217	0	33552	
8218	0	33620	
8219	0	33712	
8220	0	33824	
8221	0	33840	
8222	0	33788	
8223	0	33684	
8224	0	33552	
8225	0	33488	
8226	0	33496	
8227	0	33544	
8228	0	33576	
8229	0	33604	
8230	0	33616	
8231	0	33638	
8232	0	33664	
8233	0	33690	
8234	0	33704	
8235	0	33708	
8236	0	33644	
8237	0	33588	
8238	0	33594	
8239	0	33604	
8240	0	33608	
8241	0	33632	
8242	0	33680	
8243	0	33716	
8244	0	33712	
8245	0	33696	
8246	0	33700	
8247	0	33708	
8248	0	33704	
8249	0	33620	
8250	0	33524	
8251	0	33480	
8252	0	33472	
8253	0	33480	
8254	0	33560	
8255	0	33648	
8256	0	33740	
8257	0	33820	
8258	0	33824	
8259	0	33726	
8260	0	33556	
8261	0	33368	
8262	0	33264	
8263	0	33244	
8264	0	33232	
8265	0	33260	
8266	0	33324	
8267	0	33368	
8268	0	33448	
8269	0	33512	
8270	0	33552	
8271	0	33616	
8272	0	33692	
8273	0	33772	
8274	0	33872	
8275	0	33912	
8276	0	33856	
8277	0	33784	
8278	0	33732	
8279	0	33712	
8280	0	33712	
8281	0	33764	
8282	0	33824	
8283	0	33872	
8284	0	33910	
8285	0	33896	
8286	0	33844	
8287	0	33780	
8288	0	33770	
8289	0	33780	
8290	0	33824	
8291	0	33856	
8292	0	33896	
8293	0	33944	
8294	0	34032	
8295	0	34124	
8296	0	34154	
8297	0	34096	
8298	0	33978	
8299	0	33932	
8300	0	33948	
8301	0	33968	
8302	0	33940	
8303	0	33916	
8304	0	33916	
8305	0	33916	
8306	0	33904	
8307	0	33896	
8308	0	33940	
8309	0	33968	
8310	0	33940	
8311	0	33864	
8312	0	33756	
8313	0	33680	
8314	0	33644	
8315	0	33592	
8316	0	33504	
8317	0	33428	
8318	0	33384	
8319	0	33330	
8320	0	33284	
8321	0	33194	
8322	0	33132	
8323	0	33076	
8324	0	33020	
8325	0	32980	
8326	0	32952	
8327	0	32976	
8328	0	33004	
8329	0	32950	
8330	0	32840	
8331	0	32780	
8332	0	32744	
8333	0	32760	
8334	0	32776	
8335	0	32732	
8336	0	32620	
8337	0	32516	
8338	0	32460	
8339	0	32420	
8340	0	32416	
8341	0	32364	
8342	0	32260	
8343	0	32188	
8344	0	32184	
8345	0	32204	
8346	0	32220	
8347	0	32204	
8348	0	32204	
8349	0	32168	
8350	0	32164	
8351	0	32144	
8352	0	32088	
8353	0	32052	
8354	0	32048	
8355	0	32064	
8356	0	32084	
8357	0	32092	
8358	0	32124	
8359	0	32112	
8360	0	32096	
8361	0	32072	
8362	0	32044	
8363	0	32012	
8364	0	32026	
8365	0	32052	
8366	0	32036	
8367	0	31996	
8368	0	31936	
8369	0	31906	
8370	0	31908	
8371	0	31932	
8372	0	31988	
8373	0	32040	
8374	0	32100	
8375	0	32128	
8376	0	32160	
8377	0	32128	
8378	0	32084	
8379	0	32048	
8380	0	32028	
8381	0	32028	
8382	0	32084	
8383	0	32132	
8384	0	32206	
8385	0	32268	
8386	0	32276	
8387	0	32256	
8388	0	32220	
8389	0	32200	
8390	0	32204	
8391	0	32200	
8392	0	32180	
8393	0	32200	
8394	0	32212	
8395	0	32184	
8396	0	32176	
8397	0	32218	
8398	0	32228	
8399	0	32184	
8400	0	32116	
8401	0	32068	
8402	0	32056	
8403	0	32060	
8404	0	32068	
8405	0	32068	
8406	0	32096	
8407	0	32124	
8408	0	32152	
8409	0	32144	
8410	0	32144	
8411	0	32136	
8412	0	32128	
8413	0	32152	
8414	0	32210	
8415	0	32260	
8416	0	32304	
8417	0	32356	
8418	0	32380	
8419	0	32416	
8420	0	32460	
8421	0	32472	
8422	0	32468	
8423	0	32424	
8424	0	32404	
8425	0	32424	
8426	0	32444	
8427	0	32460	
8428	0	32496	
8429	0	32500	
8430	0	32512	
8431	0	32528	
8432	0	32528	
8433	0	32536	
8434	0	32532	
8435	0	32560	
8436	0	32608	
8437	0	32632	
8438	0	32652	
8439	0	32664	
8440	0	32652	
8441	0	32656	
8442	0	32628	
8443	0	32620	
8444	0	32628	
8445	0	32676	
8446	0	32748	
8447	0	32796	
8448	0	32825	
8449	0	32844	
8450	0	32832	
8451	0	32860	
8452	0	32916	
8453	0	32976	
8454	0	33012	
8455	0	33036	
8456	0	33012	
8457	0	32952	
8458	0	32984	
8459	0	33016	
8460	0	33036	
8461	0	33052	
8462	0	33050	
8463	0	33056	
8464	0	33082	
8465	0	33104	
8466	0	33118	
8467	0	33092	
8468	0	33084	
8469	0	33132	
8470	0	33152	
8471	0	33156	
8472	0	33140	
8473	0	33080	
8474	0	33092	
8475	0	33144	
8476	0	33200	
8477	0	33208	
8478	0	33212	
8479	0	33292	
8480	0	33388	
8481	0	33372	
8482	0	33328	
8483	0	33320	
8484	0	33312	
8485	0	33316	
8486	0	33328	
8487	0	33332	
8488	0	33344	
8489	0	33320	
8490	0	33258	
8491	0	33236	
8492	0	33236	
8493	0	33220	
8494	0	33216	
8495	0	33224	
8496	0	33216	
8497	0	33180	
8498	0	33184	
8499	0	33224	
8500	0	33248	
8501	0	33216	
8502	0	33208	
8503	0	33208	
8504	0	33216	
8505	0	33196	
8506	0	33192	
8507	0	33216	
8508	0	33260	
8509	0	33236	
8510	0	33192	
8511	0	33192	
8512	0	33216	
8513	0	33224	
8514	0	33220	
8515	0	33208	
8516	0	33162	
8517	0	33140	
8518	0	33120	
8519	0	33096	
8520	0	33072	
8521	0	33040	
8522	0	33056	
8523	0	33076	
8524	0	33124	
8525	0	33116	
8526	0	33092	
8527	0	33048	
8528	0	32996	
8529	0	33000	
8530	0	33016	
8531	0	32977	
8532	0	32944	
8533	0	32932	
8534	0	32896	
8535	0	32904	
8536	0	32860	
8537	0	32808	
8538	0	32792	
8539	0	32812	
8540	0	32824	
8541	0	32792	
8542	0	32760	
8543	0	32728	
8544	0	32724	
8545	0	32704	
8546	0	32724	
8547	0	32760	
8548	0	32752	
8549	0	32768	
8550	0	32804	
8551	0	32864	
8552	0	32856	
8553	0	32832	
8554	0	32828	
8555	0	32784	
8556	0	32764	
8557	0	32764	
8558	0	32768	
8559	0	32784	
8560	0	32804	
8561	0	32804	
8562	0	32800	
8563	0	32792	
8564	0	32760	
8565	0	32752	
8566	0	32760	
8567	0	32784	
8568	0	32764	
8569	0	32768	
8570	0	32770	
8571	0	32764	
8572	0	32800	
8573	0	32756	
8574	0	32736	
8575	0	32728	
8576	0	32724	
8577	0	32698	
8578	0	32664	
8579	0	32604	
8580	0	32592	
8581	0	32596	
8582	0	32642	
8583	0	32656	
8584	0	32620	
8585	0	32588	
8586	0	32560	
8587	0	32544	
8588	0	32588	
8589	0	32612	
8590	0	32648	
8591	0	32696	
