# OpenSignals Text File Format. Version 1
# {"00:07:80:4B:15:F7": {"position": 0, "device": "biosignalsplux", "device name": "00:07:80:4B:15:F7", "device connection": "BTH00:07:80:4B:15:F7", "sampling rate": 1000, "resolution": [16], "firmware version": 775, "comments": "", "keywords": "", "mode": 0, "sync interval": 2, "date": "2023-4-27", "time": "17:16:59.840", "channels": [1], "sensor": ["ECG"], "label": ["CH1"], "column": ["nSeq", "DI", "CH1"], "special": [{"SpO2": [80, 40, 5, 4, 3, 3]}, {"SpO2": [80, 40, 5, 4, 3, 3]}, {"SpO2": [80, 40, 5, 4, 3, 3]}, {"SpO2": [80, 40, 5, 4, 3, 3]}, {"SpO2": [80, 40, 5, 4, 3, 3]}, {"SpO2": [80, 40, 5, 4, 3, 3]}, {"SpO2": [80, 40, 5, 4, 3, 3]}, {"SpO2": [80, 40, 5, 4, 3, 3]}], "digital IO": [0, 1], "sleeve color": ["green"], "convertedValues": 0}}
# EndOfHeader
0	0	32172	
1	0	32088	
2	0	32100	
3	0	32152	
4	0	32172	
5	0	32184	
6	0	32204	
7	0	32188	
8	0	32172	
9	0	32208	
10	0	32216	
11	0	32264	
12	0	32312	
13	0	32316	
14	0	32346	
15	0	32352	
16	0	32308	
17	0	32296	
18	0	32312	
19	0	32360	
20	0	32392	
21	0	32456	
22	0	32512	
23	0	32492	
24	0	32532	
25	0	32480	
26	0	32428	
27	0	32412	
28	0	32440	
29	0	32536	
30	0	32656	
31	0	32808	
32	0	32948	
33	0	33088	
34	0	33216	
35	0	33316	
36	0	33252	
37	0	33008	
38	0	32780	
39	0	32668	
40	0	32644	
41	0	32656	
42	0	32672	
43	0	32732	
44	0	32816	
45	0	32852	
46	0	32838	
47	0	32848	
48	0	32856	
49	0	32872	
50	0	33038	
51	0	33298	
52	0	33644	
53	0	33884	
54	0	34012	
55	0	34136	
56	0	34304	
57	0	34512	
58	0	34844	
59	0	35112	
60	0	35324	
61	0	35448	
62	0	35528	
63	0	35604	
64	0	35576	
65	0	35480	
66	0	35396	
67	0	35252	
68	0	35080	
69	0	34880	
70	0	34732	
71	0	34592	
72	0	34464	
73	0	34356	
74	0	34284	
75	0	34192	
76	0	34088	
77	0	33912	
78	0	33676	
79	0	33368	
80	0	33084	
81	0	32856	
82	0	32680	
83	0	32592	
84	0	32536	
85	0	32464	
86	0	32356	
87	0	32260	
88	0	32220	
89	0	32208	
90	0	32172	
91	0	32140	
92	0	32140	
93	0	32034	
94	0	31936	
95	0	31824	
96	0	31684	
97	0	31572	
98	0	31470	
99	0	31306	
100	0	31176	
101	0	30992	
102	0	30856	
103	0	30728	
104	0	30696	
105	0	30668	
106	0	30664	
107	0	30688	
108	0	30732	
109	0	30748	
110	0	30772	
111	0	30784	
112	0	30716	
113	0	30608	
114	0	30536	
115	0	30528	
116	0	30574	
117	0	30640	
118	0	30686	
119	0	30688	
120	0	30746	
121	0	30824	
122	0	30864	
123	0	30876	
124	0	30844	
125	0	30812	
126	0	30848	
127	0	30936	
128	0	30980	
129	0	31012	
130	0	31064	
131	0	31048	
132	0	31048	
133	0	31092	
134	0	31112	
135	0	31084	
136	0	31084	
137	0	31130	
138	0	31196	
139	0	31256	
140	0	31266	
141	0	31300	
142	0	31296	
143	0	31228	
144	0	31156	
145	0	31136	
146	0	31214	
147	0	31248	
148	0	31180	
149	0	30952	
150	0	30624	
151	0	30110	
152	0	29476	
153	0	28748	
154	0	28012	
155	0	27456	
156	0	27116	
157	0	26894	
158	0	26766	
159	0	26848	
160	0	27189	
161	0	27776	
162	0	28614	
163	0	29564	
164	0	30620	
165	0	31860	
166	0	33428	
167	0	35232	
168	0	37424	
169	0	40052	
170	0	43144	
171	0	46788	
172	0	50544	
173	0	54192	
174	0	57728	
175	0	60976	
176	0	62940	
177	0	63956	
178	0	64440	
179	0	64648	
180	0	64704	
181	0	64684	
182	0	64596	
183	0	64500	
184	0	64396	
185	0	58708	
186	0	52440	
187	0	46528	
188	0	41468	
189	0	37552	
190	0	34612	
191	0	32436	
192	0	30736	
193	0	29332	
194	0	28178	
195	0	27180	
196	0	26252	
197	0	25452	
198	0	24706	
199	0	24085	
200	0	23640	
201	0	23428	
202	0	23372	
203	0	23388	
204	0	23426	
205	0	23552	
206	0	23864	
207	0	24288	
208	0	24800	
209	0	25364	
210	0	25948	
211	0	26540	
212	0	27084	
213	0	27516	
214	0	27842	
215	0	28144	
216	0	28380	
217	0	28600	
218	0	28792	
219	0	28988	
220	0	29180	
221	0	29344	
222	0	29552	
223	0	29748	
224	0	29864	
225	0	29962	
226	0	30000	
227	0	29984	
228	0	29960	
229	0	29956	
230	0	29880	
231	0	29856	
232	0	29872	
233	0	29900	
234	0	29976	
235	0	30052	
236	0	30092	
237	0	30066	
238	0	30090	
239	0	30100	
240	0	30042	
241	0	30008	
242	0	30056	
243	0	30140	
244	0	30192	
245	0	30256	
246	0	30344	
247	0	30400	
248	0	30444	
249	0	30488	
250	0	30528	
251	0	30604	
252	0	30656	
253	0	30666	
254	0	30700	
255	0	30780	
256	0	30850	
257	0	30888	
258	0	30906	
259	0	30896	
260	0	30928	
261	0	31012	
262	0	31112	
263	0	31172	
264	0	31200	
265	0	31208	
266	0	31292	
267	0	31390	
268	0	31432	
269	0	31496	
270	0	31624	
271	0	31780	
272	0	31868	
273	0	31852	
274	0	31824	
275	0	31820	
276	0	31816	
277	0	31844	
278	0	31900	
279	0	31976	
280	0	32056	
281	0	32104	
282	0	32136	
283	0	32120	
284	0	32120	
285	0	32152	
286	0	32176	
287	0	32196	
288	0	32248	
289	0	32238	
290	0	32252	
291	0	32312	
292	0	32404	
293	0	32512	
294	0	32624	
295	0	32720	
296	0	32816	
297	0	32872	
298	0	32956	
299	0	33048	
300	0	33056	
301	0	33040	
302	0	33060	
303	0	33116	
304	0	33192	
305	0	33242	
306	0	33292	
307	0	33334	
308	0	33436	
309	0	33512	
310	0	33600	
311	0	33660	
312	0	33664	
313	0	33656	
314	0	33688	
315	0	33752	
316	0	33836	
317	0	33940	
318	0	34052	
319	0	34144	
320	0	34240	
321	0	34372	
322	0	34532	
323	0	34668	
324	0	34720	
325	0	34740	
326	0	34668	
327	0	34620	
328	0	34604	
329	0	34622	
330	0	34692	
331	0	34760	
332	0	34856	
333	0	34912	
334	0	34964	
335	0	35044	
336	0	35176	
337	0	35296	
338	0	35400	
339	0	35456	
340	0	35500	
341	0	35546	
342	0	35588	
343	0	35624	
344	0	35636	
345	0	35652	
346	0	35680	
347	0	35748	
348	0	35860	
349	0	35968	
350	0	36088	
351	0	36220	
352	0	36396	
353	0	36516	
354	0	36584	
355	0	36616	
356	0	36676	
357	0	36708	
358	0	36716	
359	0	36700	
360	0	36652	
361	0	36612	
362	0	36552	
363	0	36528	
364	0	36544	
365	0	36578	
366	0	36624	
367	0	36644	
368	0	36636	
369	0	36670	
370	0	36656	
371	0	36664	
372	0	36636	
373	0	36632	
374	0	36584	
375	0	36486	
376	0	36448	
377	0	36460	
378	0	36504	
379	0	36542	
380	0	36544	
381	0	36532	
382	0	36504	
383	0	36448	
384	0	36404	
385	0	36372	
386	0	36344	
387	0	36260	
388	0	36184	
389	0	36092	
390	0	36048	
391	0	36040	
392	0	35980	
393	0	35864	
394	0	35804	
395	0	35756	
396	0	35732	
397	0	35674	
398	0	35620	
399	0	35548	
400	0	35440	
401	0	35324	
402	0	35186	
403	0	35088	
404	0	35024	
405	0	34928	
406	0	34792	
407	0	34656	
408	0	34512	
409	0	34384	
410	0	34296	
411	0	34136	
412	0	33928	
413	0	33792	
414	0	33732	
415	0	33664	
416	0	33560	
417	0	33404	
418	0	33256	
419	0	33132	
420	0	32988	
421	0	32798	
422	0	32572	
423	0	32444	
424	0	32328	
425	0	32232	
426	0	32228	
427	0	32204	
428	0	32112	
429	0	31970	
430	0	31764	
431	0	31604	
432	0	31456	
433	0	31272	
434	0	31104	
435	0	30966	
436	0	30914	
437	0	30912	
438	0	30856	
439	0	30816	
440	0	30754	
441	0	30588	
442	0	30396	
443	0	30268	
444	0	30152	
445	0	30040	
446	0	29956	
447	0	29896	
448	0	29844	
449	0	29852	
450	0	29880	
451	0	29872	
452	0	29816	
453	0	29756	
454	0	29672	
455	0	29568	
456	0	29512	
457	0	29508	
458	0	29476	
459	0	29404	
460	0	29300	
461	0	29196	
462	0	29188	
463	0	29260	
464	0	29340	
465	0	29368	
466	0	29352	
467	0	29432	
468	0	29536	
469	0	29632	
470	0	29676	
471	0	29652	
472	0	29656	
473	0	29664	
474	0	29672	
475	0	29712	
476	0	29684	
477	0	29616	
478	0	29532	
479	0	29520	
480	0	29528	
481	0	29580	
482	0	29600	
483	0	29576	
484	0	29606	
485	0	29672	
486	0	29756	
487	0	29828	
488	0	29890	
489	0	29866	
490	0	29788	
491	0	29728	
492	0	29784	
493	0	29920	
494	0	29996	
495	0	30068	
496	0	30180	
497	0	30272	
498	0	30324	
499	0	30372	
500	0	30432	
501	0	30496	
502	0	30540	
503	0	30568	
504	0	30604	
505	0	30652	
506	0	30668	
507	0	30636	
508	0	30606	
509	0	30600	
510	0	30688	
511	0	30752	
512	0	30752	
513	0	30784	
514	0	30808	
515	0	30780	
516	0	30796	
517	0	30864	
518	0	30904	
519	0	30928	
520	0	30972	
521	0	30976	
522	0	31000	
523	0	31066	
524	0	31176	
525	0	31336	
526	0	31412	
527	0	31408	
528	0	31360	
529	0	31344	
530	0	31356	
531	0	31344	
532	0	31416	
533	0	31482	
534	0	31444	
535	0	31420	
536	0	31436	
537	0	31480	
538	0	31536	
539	0	31494	
540	0	31460	
541	0	31468	
542	0	31436	
543	0	31432	
544	0	31500	
545	0	31612	
546	0	31704	
547	0	31738	
548	0	31736	
549	0	31768	
550	0	31876	
551	0	31904	
552	0	31792	
553	0	31696	
554	0	31660	
555	0	31624	
556	0	31628	
557	0	31652	
558	0	31716	
559	0	31880	
560	0	31984	
561	0	32096	
562	0	32132	
563	0	32120	
564	0	32036	
565	0	32040	
566	0	32052	
567	0	32052	
568	0	31968	
569	0	31948	
570	0	32042	
571	0	32164	
572	0	32264	
573	0	32320	
574	0	32364	
575	0	32560	
576	0	32624	
577	0	32568	
578	0	32580	
579	0	32644	
580	0	32724	
581	0	32800	
582	0	32890	
583	0	32976	
584	0	33044	
585	0	33024	
586	0	32980	
587	0	32980	
588	0	32964	
589	0	32876	
590	0	32768	
591	0	32848	
592	0	32912	
593	0	32956	
594	0	32936	
595	0	32928	
596	0	32976	
597	0	32972	
598	0	32964	
599	0	33016	
600	0	33180	
601	0	33376	
602	0	33550	
603	0	33756	
604	0	34048	
605	0	34316	
606	0	34480	
607	0	34640	
608	0	34832	
609	0	35016	
610	0	35168	
611	0	35264	
612	0	35388	
613	0	35436	
614	0	35416	
615	0	35354	
616	0	35272	
617	0	35144	
618	0	35028	
619	0	34992	
620	0	34892	
621	0	34672	
622	0	34360	
623	0	34128	
624	0	34012	
625	0	33940	
626	0	33876	
627	0	33824	
628	0	33760	
629	0	33632	
630	0	33484	
631	0	33364	
632	0	33220	
633	0	33080	
634	0	32928	
635	0	32804	
636	0	32708	
637	0	32564	
638	0	32488	
639	0	32288	
640	0	31972	
641	0	31680	
642	0	31448	
643	0	31304	
644	0	31314	
645	0	31340	
646	0	31224	
647	0	31086	
648	0	30960	
649	0	30796	
650	0	30744	
651	0	30684	
652	0	30652	
653	0	30684	
654	0	30696	
655	0	30704	
656	0	30752	
657	0	30684	
658	0	30608	
659	0	30540	
660	0	30420	
661	0	30340	
662	0	30320	
663	0	30276	
664	0	30250	
665	0	30216	
666	0	30184	
667	0	30208	
668	0	30236	
669	0	30200	
670	0	30284	
671	0	30404	
672	0	30404	
673	0	30448	
674	0	30556	
675	0	30592	
676	0	30696	
677	0	30752	
678	0	30744	
679	0	30656	
680	0	30586	
681	0	30528	
682	0	30516	
683	0	30540	
684	0	30616	
685	0	30732	
686	0	30844	
687	0	30912	
688	0	30952	
689	0	30984	
690	0	30952	
691	0	30904	
692	0	30872	
693	0	30932	
694	0	30988	
695	0	31040	
696	0	31072	
697	0	31064	
698	0	30956	
699	0	30776	
700	0	30500	
701	0	30156	
702	0	29712	
703	0	29156	
704	0	28424	
705	0	27792	
706	0	27284	
707	0	26932	
708	0	26722	
709	0	26668	
710	0	26740	
711	0	27146	
712	0	27832	
713	0	28690	
714	0	29660	
715	0	30792	
716	0	32212	
717	0	33908	
718	0	35888	
719	0	38268	
720	0	41000	
721	0	44240	
722	0	47916	
723	0	51556	
724	0	55140	
725	0	58616	
726	0	61592	
727	0	63280	
728	0	64132	
729	0	64552	
730	0	64720	
731	0	64736	
732	0	64712	
733	0	64624	
734	0	64504	
735	0	60600	
736	0	54416	
737	0	48204	
738	0	42432	
739	0	37776	
740	0	34248	
741	0	31616	
742	0	29780	
743	0	28526	
744	0	27656	
745	0	26940	
746	0	26216	
747	0	25508	
748	0	24830	
749	0	24240	
750	0	23796	
751	0	23572	
752	0	23552	
753	0	23644	
754	0	23712	
755	0	23776	
756	0	23924	
757	0	24156	
758	0	24504	
759	0	24994	
760	0	25544	
761	0	26100	
762	0	26576	
763	0	27008	
764	0	27392	
765	0	27722	
766	0	28060	
767	0	28362	
768	0	28612	
769	0	28792	
770	0	29000	
771	0	29248	
772	0	29476	
773	0	29604	
774	0	29624	
775	0	29632	
776	0	29656	
777	0	29712	
778	0	29728	
779	0	29720	
780	0	29716	
781	0	29680	
782	0	29664	
783	0	29668	
784	0	29696	
785	0	29712	
786	0	29760	
787	0	29880	
788	0	29948	
789	0	29956	
790	0	29936	
791	0	29944	
792	0	30022	
793	0	30100	
794	0	30164	
795	0	30224	
796	0	30260	
797	0	30300	
798	0	30360	
799	0	30376	
800	0	30372	
801	0	30344	
802	0	30344	
803	0	30352	
804	0	30362	
805	0	30420	
806	0	30476	
807	0	30540	
808	0	30616	
809	0	30712	
810	0	30786	
811	0	30816	
812	0	30924	
813	0	31028	
814	0	31084	
815	0	31104	
816	0	31170	
817	0	31252	
818	0	31356	
819	0	31386	
820	0	31372	
821	0	31362	
822	0	31380	
823	0	31396	
824	0	31384	
825	0	31388	
826	0	31436	
827	0	31500	
828	0	31596	
829	0	31664	
830	0	31728	
831	0	31768	
832	0	31824	
833	0	31900	
834	0	31968	
835	0	32032	
836	0	32060	
837	0	32080	
838	0	32124	
839	0	32132	
840	0	32168	
841	0	32282	
842	0	32400	
843	0	32452	
844	0	32552	
845	0	32616	
846	0	32652	
847	0	32688	
848	0	32764	
849	0	32792	
850	0	32836	
851	0	32932	
852	0	33024	
853	0	33052	
854	0	33044	
855	0	33048	
856	0	33132	
857	0	33186	
858	0	33256	
859	0	33296	
860	0	33280	
861	0	33236	
862	0	33180	
863	0	33196	
864	0	33268	
865	0	33384	
866	0	33512	
867	0	33626	
868	0	33704	
869	0	33780	
870	0	33876	
871	0	33930	
872	0	34008	
873	0	34076	
874	0	34186	
875	0	34272	
876	0	34348	
877	0	34472	
878	0	34524	
879	0	34592	
880	0	34656	
881	0	34692	
882	0	34732	
883	0	34760	
884	0	34812	
885	0	34924	
886	0	35048	
887	0	35106	
888	0	35128	
889	0	35148	
890	0	35204	
891	0	35292	
892	0	35364	
893	0	35454	
894	0	35504	
895	0	35572	
896	0	35592	
897	0	35648	
898	0	35744	
899	0	35800	
900	0	35832	
901	0	35880	
902	0	35952	
903	0	36012	
904	0	36048	
905	0	36046	
906	0	36024	
907	0	36028	
908	0	36088	
909	0	36228	
910	0	36324	
911	0	36368	
912	0	36352	
913	0	36328	
914	0	36388	
915	0	36428	
916	0	36408	
917	0	36424	
918	0	36416	
919	0	36400	
920	0	36380	
921	0	36368	
922	0	36380	
923	0	36348	
924	0	36336	
925	0	36336	
926	0	36260	
927	0	36200	
928	0	36158	
929	0	36100	
930	0	36060	
931	0	36020	
932	0	36000	
933	0	35988	
934	0	35992	
935	0	36020	
936	0	36032	
937	0	36000	
938	0	35996	
939	0	35928	
940	0	35876	
941	0	35852	
942	0	35800	
943	0	35736	
944	0	35680	
945	0	35560	
946	0	35468	
947	0	35368	
948	0	35256	
949	0	35140	
950	0	35032	
951	0	34888	
952	0	34748	
953	0	34652	
954	0	34514	
955	0	34408	
956	0	34368	
957	0	34304	
958	0	34172	
959	0	34044	
960	0	33996	
961	0	33988	
962	0	33924	
963	0	33824	
964	0	33748	
965	0	33660	
966	0	33532	
967	0	33328	
968	0	33104	
969	0	32932	
970	0	32788	
971	0	32644	
972	0	32512	
973	0	32376	
974	0	32268	
975	0	32112	
976	0	31968	
977	0	31882	
978	0	31810	
979	0	31712	
980	0	31632	
981	0	31488	
982	0	31360	
983	0	31228	
984	0	31086	
985	0	30948	
986	0	30812	
987	0	30656	
988	0	30532	
989	0	30464	
990	0	30376	
991	0	30308	
992	0	30256	
993	0	30224	
994	0	30168	
995	0	30084	
996	0	30064	
997	0	30060	
998	0	30028	
999	0	30000	
1000	0	29936	
1001	0	29876	
1002	0	29904	
1003	0	29936	
1004	0	29886	
1005	0	29846	
1006	0	29864	
1007	0	29868	
1008	0	29872	
1009	0	29884	
1010	0	29896	
1011	0	29900	
1012	0	29896	
1013	0	29876	
1014	0	29808	
1015	0	29764	
1016	0	29760	
1017	0	29718	
1018	0	29664	
1019	0	29648	
1020	0	29592	
1021	0	29588	
1022	0	29612	
1023	0	29656	
1024	0	29690	
1025	0	29728	
1026	0	29776	
1027	0	29808	
1028	0	29840	
1029	0	29880	
1030	0	29928	
1031	0	29972	
1032	0	30034	
1033	0	30088	
1034	0	30140	
1035	0	30148	
1036	0	30168	
1037	0	30174	
1038	0	30188	
1039	0	30176	
1040	0	30156	
1041	0	30154	
1042	0	30196	
1043	0	30232	
1044	0	30268	
1045	0	30322	
1046	0	30344	
1047	0	30396	
1048	0	30480	
1049	0	30548	
1050	0	30604	
1051	0	30600	
1052	0	30568	
1053	0	30560	
1054	0	30604	
1055	0	30656	
1056	0	30744	
1057	0	30824	
1058	0	30900	
1059	0	30952	
1060	0	31020	
1061	0	31090	
1062	0	31156	
1063	0	31224	
1064	0	31252	
1065	0	31240	
1066	0	31240	
1067	0	31280	
1068	0	31360	
1069	0	31396	
1070	0	31356	
1071	0	31352	
1072	0	31360	
1073	0	31384	
1074	0	31372	
1075	0	31280	
1076	0	31236	
1077	0	31276	
1078	0	31364	
1079	0	31440	
1080	0	31508	
1081	0	31548	
1082	0	31616	
1083	0	31712	
1084	0	31804	
1085	0	31874	
1086	0	31888	
1087	0	31876	
1088	0	31834	
1089	0	31800	
1090	0	31808	
1091	0	31784	
1092	0	31768	
1093	0	31828	
1094	0	31896	
1095	0	31914	
1096	0	31908	
1097	0	31960	
1098	0	32020	
1099	0	32076	
1100	0	32120	
1101	0	32100	
1102	0	32076	
1103	0	31992	
1104	0	31944	
1105	0	31948	
1106	0	31986	
1107	0	32064	
1108	0	32116	
1109	0	32164	
1110	0	32216	
1111	0	32238	
1112	0	32272	
1113	0	32320	
1114	0	32320	
1115	0	32296	
1116	0	32308	
1117	0	32336	
1118	0	32344	
1119	0	32336	
1120	0	32296	
1121	0	32262	
1122	0	32224	
1123	0	32268	
1124	0	32288	
1125	0	32352	
1126	0	32424	
1127	0	32480	
1128	0	32520	
1129	0	32568	
1130	0	32640	
1131	0	32644	
1132	0	32624	
1133	0	32622	
1134	0	32608	
1135	0	32662	
1136	0	32736	
1137	0	32818	
1138	0	32908	
1139	0	32984	
1140	0	33044	
1141	0	33152	
1142	0	33216	
1143	0	33200	
1144	0	33164	
1145	0	33104	
1146	0	32984	
1147	0	32932	
1148	0	32972	
1149	0	33040	
1150	0	33076	
1151	0	33152	
1152	0	33216	
1153	0	33264	
1154	0	33328	
1155	0	33416	
1156	0	33624	
1157	0	33868	
1158	0	34124	
1159	0	34340	
1160	0	34448	
1161	0	34544	
1162	0	34704	
1163	0	34880	
1164	0	35080	
1165	0	35248	
1166	0	35380	
1167	0	35420	
1168	0	35436	
1169	0	35444	
1170	0	35464	
1171	0	35460	
1172	0	35422	
1173	0	35372	
1174	0	35308	
1175	0	35216	
1176	0	35032	
1177	0	34844	
1178	0	34720	
1179	0	34600	
1180	0	34448	
1181	0	34288	
1182	0	34120	
1183	0	33952	
1184	0	33768	
1185	0	33592	
1186	0	33412	
1187	0	33184	
1188	0	32976	
1189	0	32816	
1190	0	32580	
1191	0	32356	
1192	0	32228	
1193	0	32184	
1194	0	32202	
1195	0	32226	
1196	0	32148	
1197	0	31936	
1198	0	31744	
1199	0	31556	
1200	0	31406	
1201	0	31328	
1202	0	31320	
1203	0	31288	
1204	0	31188	
1205	0	31092	
1206	0	30980	
1207	0	30853	
1208	0	30784	
1209	0	30696	
1210	0	30608	
1211	0	30560	
1212	0	30520	
1213	0	30520	
1214	0	30500	
1215	0	30492	
1216	0	30544	
1217	0	30592	
1218	0	30568	
1219	0	30550	
1220	0	30524	
1221	0	30500	
1222	0	30532	
1223	0	30586	
1224	0	30568	
1225	0	30536	
1226	0	30528	
1227	0	30538	
1228	0	30584	
1229	0	30608	
1230	0	30648	
1231	0	30672	
1232	0	30732	
1233	0	30796	
1234	0	30844	
1235	0	30852	
1236	0	30832	
1237	0	30832	
1238	0	30868	
1239	0	30906	
1240	0	30880	
1241	0	30872	
1242	0	30840	
1243	0	30820	
1244	0	30876	
1245	0	30914	
1246	0	30944	
1247	0	30980	
1248	0	31064	
1249	0	31136	
1250	0	31188	
1251	0	31224	
1252	0	31168	
1253	0	31116	
1254	0	31000	
1255	0	30820	
1256	0	30596	
1257	0	30212	
1258	0	29588	
1259	0	28789	
1260	0	27976	
1261	0	27332	
1262	0	26880	
1263	0	26560	
1264	0	26364	
1265	0	26452	
1266	0	26788	
1267	0	27420	
1268	0	28192	
1269	0	29116	
1270	0	30232	
1271	0	31592	
1272	0	33308	
1273	0	35212	
1274	0	37460	
1275	0	40032	
1276	0	42968	
1277	0	46508	
1278	0	50532	
1279	0	54592	
1280	0	58496	
1281	0	61652	
1282	0	63392	
1283	0	64280	
1284	0	64704	
1285	0	64872	
1286	0	64932	
1287	0	64876	
1288	0	64784	
1289	0	64680	
1290	0	64564	
1291	0	64432	
1292	0	60024	
1293	0	53456	
1294	0	47788	
1295	0	43204	
1296	0	39548	
1297	0	36724	
1298	0	34448	
1299	0	32452	
1300	0	30736	
1301	0	29296	
1302	0	28120	
1303	0	27232	
1304	0	26640	
1305	0	26208	
1306	0	25944	
1307	0	25816	
1308	0	25744	
1309	0	25696	
1310	0	25632	
1311	0	25536	
1312	0	25520	
1313	0	25566	
1314	0	25746	
1315	0	26028	
1316	0	26380	
1317	0	26696	
1318	0	26980	
1319	0	27288	
1320	0	27626	
1321	0	27964	
1322	0	28240	
1323	0	28496	
1324	0	28668	
1325	0	28788	
1326	0	28836	
1327	0	28896	
1328	0	28904	
1329	0	28868	
1330	0	28752	
1331	0	28696	
1332	0	28676	
1333	0	28704	
1334	0	28740	
1335	0	28736	
1336	0	28808	
1337	0	28844	
1338	0	28872	
1339	0	28924	
1340	0	28992	
1341	0	29000	
1342	0	29034	
1343	0	29070	
1344	0	29116	
1345	0	29132	
1346	0	29164	
1347	0	29248	
1348	0	29352	
1349	0	29406	
1350	0	29436	
1351	0	29488	
1352	0	29480	
1353	0	29472	
1354	0	29496	
1355	0	29532	
1356	0	29596	
1357	0	29636	
1358	0	29712	
1359	0	29776	
1360	0	29812	
1361	0	29840	
1362	0	29856	
1363	0	29894	
1364	0	29964	
1365	0	30096	
1366	0	30110	
1367	0	30092	
1368	0	30128	
1369	0	30220	
1370	0	30328	
1371	0	30400	
1372	0	30444	
1373	0	30444	
1374	0	30480	
1375	0	30504	
1376	0	30548	
1377	0	30620	
1378	0	30684	
1379	0	30740	
1380	0	30836	
1381	0	30904	
1382	0	30968	
1383	0	31000	
1384	0	31040	
1385	0	31098	
1386	0	31136	
1387	0	31168	
1388	0	31210	
1389	0	31248	
1390	0	31224	
1391	0	31188	
1392	0	31178	
1393	0	31196	
1394	0	31260	
1395	0	31368	
1396	0	31484	
1397	0	31594	
1398	0	31724	
1399	0	31820	
1400	0	31864	
1401	0	31872	
1402	0	31908	
1403	0	31948	
1404	0	32024	
1405	0	32148	
1406	0	32276	
1407	0	32368	
1408	0	32400	
1409	0	32352	
1410	0	32304	
1411	0	32320	
1412	0	32396	
1413	0	32464	
1414	0	32500	
1415	0	32536	
1416	0	32576	
1417	0	32608	
1418	0	32636	
1419	0	32652	
1420	0	32736	
1421	0	32840	
1422	0	32976	
1423	0	33092	
1424	0	33236	
1425	0	33308	
1426	0	33376	
1427	0	33404	
1428	0	33440	
1429	0	33504	
1430	0	33618	
1431	0	33728	
1432	0	33820	
1433	0	33860	
1434	0	33936	
1435	0	34004	
1436	0	34044	
1437	0	34082	
1438	0	34150	
1439	0	34208	
1440	0	34278	
1441	0	34344	
1442	0	34402	
1443	0	34468	
1444	0	34560	
1445	0	34660	
1446	0	34764	
1447	0	34828	
1448	0	34904	
1449	0	34932	
1450	0	34968	
1451	0	35032	
1452	0	35128	
1453	0	35224	
1454	0	35308	
1455	0	35400	
1456	0	35508	
1457	0	35616	
1458	0	35660	
1459	0	35680	
1460	0	35704	
1461	0	35736	
1462	0	35780	
1463	0	35832	
1464	0	35912	
1465	0	35944	
1466	0	35952	
1467	0	35976	
1468	0	36036	
1469	0	36104	
1470	0	36116	
1471	0	36064	
1472	0	36072	
1473	0	36112	
1474	0	36108	
1475	0	36096	
1476	0	36096	
1477	0	36100	
1478	0	36096	
1479	0	36140	
1480	0	36128	
1481	0	36112	
1482	0	36068	
1483	0	36068	
1484	0	36086	
1485	0	36108	
1486	0	36088	
1487	0	36056	
1488	0	36020	
1489	0	35952	
1490	0	35904	
1491	0	35828	
1492	0	35720	
1493	0	35636	
1494	0	35586	
1495	0	35530	
1496	0	35516	
1497	0	35488	
1498	0	35448	
1499	0	35420	
1500	0	35360	
1501	0	35280	
1502	0	35198	
1503	0	35144	
1504	0	35098	
1505	0	35064	
1506	0	34984	
1507	0	34878	
1508	0	34798	
1509	0	34684	
1510	0	34572	
1511	0	34412	
1512	0	34242	
1513	0	34104	
1514	0	33956	
1515	0	33840	
1516	0	33700	
1517	0	33528	
1518	0	33360	
1519	0	33212	
1520	0	33088	
1521	0	32968	
1522	0	32828	
1523	0	32752	
1524	0	32636	
1525	0	32484	
1526	0	32324	
1527	0	32184	
1528	0	32016	
1529	0	31892	
1530	0	31800	
1531	0	31672	
1532	0	31552	
1533	0	31448	
1534	0	31364	
1535	0	31248	
1536	0	31136	
1537	0	30988	
1538	0	30860	
1539	0	30784	
1540	0	30712	
1541	0	30676	
1542	0	30608	
1543	0	30508	
1544	0	30436	
1545	0	30364	
1546	0	30288	
1547	0	30180	
1548	0	30104	
1549	0	30020	
1550	0	29968	
1551	0	29900	
1552	0	29890	
1553	0	29816	
1554	0	29780	
1555	0	29764	
1556	0	29768	
1557	0	29760	
1558	0	29740	
1559	0	29704	
1560	0	29704	
1561	0	29696	
1562	0	29656	
1563	0	29648	
1564	0	29676	
1565	0	29662	
1566	0	29660	
1567	0	29632	
1568	0	29592	
1569	0	29572	
1570	0	29548	
1571	0	29508	
1572	0	29508	
1573	0	29546	
1574	0	29572	
1575	0	29584	
1576	0	29608	
1577	0	29632	
1578	0	29680	
1579	0	29716	
1580	0	29724	
1581	0	29736	
1582	0	29744	
1583	0	29800	
1584	0	29853	
1585	0	29920	
1586	0	29932	
1587	0	29900	
1588	0	29900	
1589	0	29940	
1590	0	29952	
1591	0	29960	
1592	0	30000	
1593	0	30044	
1594	0	30052	
1595	0	30084	
1596	0	30132	
1597	0	30180	
1598	0	30200	
1599	0	30248	
1600	0	30344	
1601	0	30440	
1602	0	30508	
1603	0	30560	
1604	0	30576	
1605	0	30580	
1606	0	30580	
1607	0	30616	
1608	0	30708	
1609	0	30764	
1610	0	30788	
1611	0	30824	
1612	0	30836	
1613	0	30924	
1614	0	30978	
1615	0	31000	
1616	0	31032	
1617	0	31056	
1618	0	31088	
1619	0	31182	
1620	0	31250	
1621	0	31304	
1622	0	31352	
1623	0	31412	
1624	0	31450	
1625	0	31452	
1626	0	31468	
1627	0	31516	
1628	0	31540	
1629	0	31552	
1630	0	31592	
1631	0	31648	
1632	0	31680	
1633	0	31700	
1634	0	31772	
1635	0	31820	
1636	0	31864	
1637	0	31832	
1638	0	31770	
1639	0	31736	
1640	0	31728	
1641	0	31740	
1642	0	31776	
1643	0	31784	
1644	0	31812	
1645	0	31860	
1646	0	31920	
1647	0	32008	
1648	0	31992	
1649	0	31974	
1650	0	32000	
1651	0	32016	
1652	0	32040	
1653	0	32068	
1654	0	32088	
1655	0	32096	
1656	0	32128	
1657	0	32168	
1658	0	32212	
1659	0	32268	
1660	0	32280	
1661	0	32280	
1662	0	32240	
1663	0	32204	
1664	0	32192	
1665	0	32224	
1666	0	32252	
1667	0	32264	
1668	0	32276	
1669	0	32308	
1670	0	32340	
1671	0	32348	
1672	0	32344	
1673	0	32298	
1674	0	32284	
1675	0	32272	
1676	0	32260	
1677	0	32252	
1678	0	32250	
1679	0	32280	
1680	0	32304	
1681	0	32344	
1682	0	32352	
1683	0	32320	
1684	0	32288	
1685	0	32248	
1686	0	32290	
1687	0	32360	
1688	0	32396	
1689	0	32384	
1690	0	32320	
1691	0	32280	
1692	0	32232	
1693	0	32224	
1694	0	32236	
1695	0	32268	
1696	0	32280	
1697	0	32288	
1698	0	32296	
1699	0	32260	
1700	0	32264	
1701	0	32312	
1702	0	32412	
1703	0	32528	
1704	0	32624	
1705	0	32708	
1706	0	32748	
1707	0	32758	
1708	0	32832	
1709	0	32932	
1710	0	33016	
1711	0	33088	
1712	0	33176	
1713	0	33252	
1714	0	33352	
1715	0	33436	
1716	0	33464	
1717	0	33420	
1718	0	33292	
1719	0	33188	
1720	0	33140	
1721	0	33150	
1722	0	33108	
1723	0	33092	
1724	0	33124	
1725	0	33116	
1726	0	33056	
1727	0	33016	
1728	0	32992	
1729	0	33008	
1730	0	33088	
1731	0	33248	
1732	0	33472	
1733	0	33736	
1734	0	34024	
1735	0	34328	
1736	0	34572	
1737	0	34692	
1738	0	34760	
1739	0	34884	
1740	0	35036	
1741	0	35200	
1742	0	35284	
1743	0	35340	
1744	0	35268	
1745	0	35168	
1746	0	35076	
1747	0	35024	
1748	0	34944	
1749	0	34860	
1750	0	34760	
1751	0	34624	
1752	0	34440	
1753	0	34272	
1754	0	34120	
1755	0	34000	
1756	0	33856	
1757	0	33634	
1758	0	33420	
1759	0	33236	
1760	0	33120	
1761	0	32984	
1762	0	32824	
1763	0	32720	
1764	0	32736	
1765	0	32732	
1766	0	32654	
1767	0	32544	
1768	0	32448	
1769	0	32388	
1770	0	32336	
1771	0	32224	
1772	0	32112	
1773	0	31994	
1774	0	31876	
1775	0	31808	
1776	0	31752	
1777	0	31676	
1778	0	31588	
1779	0	31466	
1780	0	31344	
1781	0	31232	
1782	0	31120	
1783	0	31004	
1784	0	30896	
1785	0	30804	
1786	0	30704	
1787	0	30644	
1788	0	30616	
1789	0	30600	
1790	0	30642	
1791	0	30688	
1792	0	30744	
1793	0	30744	
1794	0	30724	
1795	0	30768	
1796	0	30812	
1797	0	30860	
1798	0	30948	
1799	0	31016	
1800	0	31020	
1801	0	30974	
1802	0	31036	
1803	0	31112	
1804	0	31116	
1805	0	31112	
1806	0	31064	
1807	0	31076	
1808	0	31120	
1809	0	31120	
1810	0	31124	
1811	0	31180	
1812	0	31244	
1813	0	31264	
1814	0	31290	
1815	0	31296	
1816	0	31288	
1817	0	31320	
1818	0	31376	
1819	0	31448	
1820	0	31476	
1821	0	31464	
1822	0	31476	
1823	0	31488	
1824	0	31496	
1825	0	31514	
1826	0	31494	
1827	0	31480	
1828	0	31416	
1829	0	31316	
1830	0	31138	
1831	0	30888	
1832	0	30476	
1833	0	29888	
1834	0	29148	
1835	0	28410	
1836	0	27872	
1837	0	27548	
1838	0	27440	
1839	0	27476	
1840	0	27734	
1841	0	28210	
1842	0	28974	
1843	0	29952	
1844	0	31160	
1845	0	32584	
1846	0	34254	
1847	0	36148	
1848	0	38240	
1849	0	40684	
1850	0	43416	
1851	0	46560	
1852	0	50330	
1853	0	54364	
1854	0	58272	
1855	0	61540	
1856	0	63380	
1857	0	64320	
1858	0	64752	
1859	0	64944	
1860	0	64988	
1861	0	64940	
1862	0	64876	
1863	0	64772	
1864	0	64660	
1865	0	64512	
1866	0	64408	
1867	0	64272	
1868	0	58296	
1869	0	52888	
1870	0	48452	
1871	0	44764	
1872	0	41624	
1873	0	38856	
1874	0	36384	
1875	0	34296	
1876	0	32616	
1877	0	31296	
1878	0	30260	
1879	0	29396	
1880	0	28704	
1881	0	28234	
1882	0	27896	
1883	0	27640	
1884	0	27506	
1885	0	27468	
1886	0	27356	
1887	0	27168	
1888	0	26990	
1889	0	26818	
1890	0	26752	
1891	0	26804	
1892	0	26960	
1893	0	27148	
1894	0	27360	
1895	0	27560	
1896	0	27768	
1897	0	27952	
1898	0	28044	
1899	0	28096	
1900	0	28032	
1901	0	27964	
1902	0	27970	
1903	0	27992	
1904	0	27968	
1905	0	27952	
1906	0	27956	
1907	0	27960	
1908	0	27904	
1909	0	27800	
1910	0	27740	
1911	0	27760	
1912	0	27792	
1913	0	27868	
1914	0	28004	
1915	0	28120	
1916	0	28138	
1917	0	28156	
1918	0	28192	
1919	0	28240	
1920	0	28224	
1921	0	28260	
1922	0	28320	
1923	0	28384	
1924	0	28440	
1925	0	28488	
1926	0	28540	
1927	0	28608	
1928	0	28696	
1929	0	28788	
1930	0	28865	
1931	0	28912	
1932	0	28944	
1933	0	28960	
1934	0	28936	
1935	0	28924	
1936	0	28996	
1937	0	29138	
1938	0	29272	
1939	0	29384	
1940	0	29400	
1941	0	29416	
1942	0	29400	
1943	0	29400	
1944	0	29480	
1945	0	29564	
1946	0	29644	
1947	0	29676	
1948	0	29676	
1949	0	29722	
1950	0	29820	
1951	0	29884	
1952	0	29940	
1953	0	30024	
1954	0	30056	
1955	0	30058	
1956	0	30124	
1957	0	30216	
1958	0	30272	
1959	0	30322	
1960	0	30368	
1961	0	30458	
1962	0	30528	
1963	0	30620	
1964	0	30704	
1965	0	30740	
1966	0	30752	
1967	0	30796	
1968	0	30832	
1969	0	30892	
1970	0	30980	
1971	0	31044	
1972	0	31104	
1973	0	31156	
1974	0	31216	
1975	0	31288	
1976	0	31332	
1977	0	31356	
1978	0	31348	
1979	0	31388	
1980	0	31466	
1981	0	31532	
1982	0	31592	
1983	0	31688	
1984	0	31764	
1985	0	31820	
1986	0	31864	
1987	0	31880	
1988	0	31880	
1989	0	31868	
1990	0	31920	
1991	0	32040	
1992	0	32108	
1993	0	32152	
1994	0	32224	
1995	0	32304	
1996	0	32414	
1997	0	32520	
1998	0	32596	
1999	0	32636	
2000	0	32682	
2001	0	32692	
2002	0	32722	
2003	0	32768	
2004	0	32840	
2005	0	32972	
2006	0	33068	
2007	0	33150	
2008	0	33220	
2009	0	33272	
2010	0	33364	
2011	0	33412	
2012	0	33460	
2013	0	33532	
2014	0	33592	
2015	0	33672	
2016	0	33768	
2017	0	33832	
2018	0	33914	
2019	0	33988	
2020	0	34046	
2021	0	34110	
2022	0	34188	
2023	0	34300	
2024	0	34400	
2025	0	34492	
2026	0	34552	
2027	0	34612	
2028	0	34696	
2029	0	34772	
2030	0	34824	
2031	0	34864	
2032	0	34912	
2033	0	35000	
2034	0	35108	
2035	0	35186	
2036	0	35258	
2037	0	35284	
2038	0	35332	
2039	0	35446	
2040	0	35560	
2041	0	35636	
2042	0	35656	
2043	0	35672	
2044	0	35688	
2045	0	35720	
2046	0	35784	
2047	0	35808	
2048	0	35788	
2049	0	35796	
2050	0	35776	
2051	0	35748	
2052	0	35732	
2053	0	35768	
2054	0	35824	
2055	0	35856	
2056	0	35872	
2057	0	35896	
2058	0	35908	
2059	0	35924	
2060	0	35908	
2061	0	35872	
2062	0	35782	
2063	0	35704	
2064	0	35680	
2065	0	35672	
2066	0	35636	
2067	0	35632	
2068	0	35640	
2069	0	35576	
2070	0	35504	
2071	0	35472	
2072	0	35500	
2073	0	35488	
2074	0	35432	
2075	0	35376	
2076	0	35288	
2077	0	35196	
2078	0	35112	
2079	0	35072	
2080	0	35032	
2081	0	34952	
2082	0	34876	
2083	0	34808	
2084	0	34740	
2085	0	34604	
2086	0	34492	
2087	0	34408	
2088	0	34352	
2089	0	34248	
2090	0	34088	
2091	0	33892	
2092	0	33700	
2093	0	33508	
2094	0	33348	
2095	0	33184	
2096	0	33040	
2097	0	32896	
2098	0	32780	
2099	0	32660	
2100	0	32548	
2101	0	32416	
2102	0	32288	
2103	0	32104	
2104	0	32012	
2105	0	31936	
2106	0	31788	
2107	0	31644	
2108	0	31456	
2109	0	31232	
2110	0	31036	
2111	0	30896	
2112	0	30788	
2113	0	30764	
2114	0	30740	
2115	0	30672	
2116	0	30568	
2117	0	30528	
2118	0	30468	
2119	0	30336	
2120	0	30240	
2121	0	30168	
2122	0	30108	
2123	0	30058	
2124	0	29976	
2125	0	29908	
2126	0	29892	
2127	0	29828	
2128	0	29744	
2129	0	29692	
2130	0	29648	
2131	0	29616	
2132	0	29564	
2133	0	29528	
2134	0	29480	
2135	0	29506	
2136	0	29568	
2137	0	29644	
2138	0	29628	
2139	0	29544	
2140	0	29492	
2141	0	29520	
2142	0	29620	
2143	0	29660	
2144	0	29576	
2145	0	29544	
2146	0	29552	
2147	0	29526	
2148	0	29540	
2149	0	29520	
2150	0	29520	
2151	0	29520	
2152	0	29508	
2153	0	29460	
2154	0	29480	
2155	0	29540	
2156	0	29608	
2157	0	29728	
2158	0	29832	
2159	0	29892	
2160	0	29904	
2161	0	29864	
2162	0	29864	
2163	0	29892	
2164	0	29972	
2165	0	30008	
2166	0	30030	
2167	0	30060	
2168	0	30040	
2169	0	30056	
2170	0	30104	
2171	0	30168	
2172	0	30208	
2173	0	30260	
2174	0	30340	
2175	0	30428	
2176	0	30520	
2177	0	30552	
2178	0	30544	
2179	0	30548	
2180	0	30576	
2181	0	30628	
2182	0	30656	
2183	0	30624	
2184	0	30600	
2185	0	30594	
2186	0	30594	
2187	0	30592	
2188	0	30644	
2189	0	30656	
2190	0	30688	
2191	0	30730	
2192	0	30796	
2193	0	30874	
2194	0	30972	
2195	0	31056	
2196	0	31108	
2197	0	31176	
2198	0	31236	
2199	0	31276	
2200	0	31308	
2201	0	31336	
2202	0	31368	
2203	0	31404	
2204	0	31476	
2205	0	31548	
2206	0	31612	
2207	0	31656	
2208	0	31684	
2209	0	31696	
2210	0	31764	
2211	0	31792	
2212	0	31820	
2213	0	31816	
2214	0	31732	
2215	0	31708	
2216	0	31706	
2217	0	31744	
2218	0	31808	
2219	0	31880	
2220	0	31948	
2221	0	31968	
2222	0	31976	
2223	0	31996	
2224	0	31992	
2225	0	32020	
2226	0	32028	
2227	0	32032	
2228	0	32028	
2229	0	32024	
2230	0	32028	
2231	0	32004	
2232	0	32028	
2233	0	32076	
2234	0	32100	
2235	0	32112	
2236	0	32124	
2237	0	32140	
2238	0	32136	
2239	0	32140	
2240	0	32168	
2241	0	32172	
2242	0	32196	
2243	0	32220	
2244	0	32228	
2245	0	32218	
2246	0	32148	
2247	0	32080	
2248	0	32032	
2249	0	32014	
2250	0	32072	
2251	0	32108	
2252	0	32096	
2253	0	32122	
2254	0	32180	
2255	0	32224	
2256	0	32272	
2257	0	32284	
2258	0	32292	
2259	0	32320	
2260	0	32360	
2261	0	32416	
2262	0	32436	
2263	0	32476	
2264	0	32492	
2265	0	32488	
2266	0	32452	
2267	0	32440	
2268	0	32408	
2269	0	32392	
2270	0	32392	
2271	0	32392	
2272	0	32424	
2273	0	32464	
2274	0	32440	
2275	0	32404	
2276	0	32400	
2277	0	32416	
2278	0	32480	
2279	0	32488	
2280	0	32452	
2281	0	32356	
2282	0	32316	
2283	0	32328	
2284	0	32388	
2285	0	32400	
2286	0	32396	
2287	0	32416	
2288	0	32404	
2289	0	32360	
2290	0	32314	
2291	0	32284	
2292	0	32248	
2293	0	32232	
2294	0	32264	
2295	0	32336	
2296	0	32448	
2297	0	32520	
2298	0	32528	
2299	0	32538	
2300	0	32548	
2301	0	32488	
2302	0	32388	
2303	0	32332	
2304	0	32304	
2305	0	32304	
2306	0	32304	
2307	0	32276	
2308	0	32252	
2309	0	32280	
2310	0	32304	
2311	0	32316	
2312	0	32312	
2313	0	32316	
2314	0	32272	
2315	0	32276	
2316	0	32300	
2317	0	32312	
2318	0	32344	
2319	0	32364	
2320	0	32380	
2321	0	32386	
2322	0	32412	
2323	0	32420	
2324	0	32448	
2325	0	32448	
2326	0	32448	
2327	0	32428	
2328	0	32424	
2329	0	32408	
2330	0	32388	
2331	0	32404	
2332	0	32428	
2333	0	32472	
2334	0	32528	
2335	0	32522	
2336	0	32488	
2337	0	32504	
2338	0	32624	
2339	0	32708	
2340	0	32792	
2341	0	32920	
2342	0	32968	
2343	0	32984	
2344	0	33056	
2345	0	33164	
2346	0	33250	
2347	0	33284	
2348	0	33300	
2349	0	33296	
2350	0	33268	
2351	0	33260	
2352	0	33248	
2353	0	33200	
2354	0	33176	
2355	0	33128	
2356	0	33060	
2357	0	33032	
2358	0	33032	
2359	0	33032	
2360	0	33068	
2361	0	33144	
2362	0	33264	
2363	0	33432	
2364	0	33604	
2365	0	33844	
2366	0	34092	
2367	0	34364	
2368	0	34608	
2369	0	34792	
2370	0	34916	
2371	0	34956	
2372	0	35056	
2373	0	35168	
2374	0	35304	
2375	0	35424	
2376	0	35422	
2377	0	35320	
2378	0	35168	
2379	0	35048	
2380	0	34976	
2381	0	34924	
2382	0	34888	
2383	0	34844	
2384	0	34736	
2385	0	34564	
2386	0	34368	
2387	0	34204	
2388	0	34140	
2389	0	34016	
2390	0	33840	
2391	0	33698	
2392	0	33540	
2393	0	33400	
2394	0	33312	
2395	0	33212	
2396	0	33124	
2397	0	33036	
2398	0	32996	
2399	0	32976	
2400	0	32924	
2401	0	32864	
2402	0	32832	
2403	0	32808	
2404	0	32736	
2405	0	32672	
2406	0	32556	
2407	0	32404	
2408	0	32280	
2409	0	32196	
2410	0	32068	
2411	0	31956	
2412	0	31840	
2413	0	31708	
2414	0	31608	
2415	0	31520	
2416	0	31404	
2417	0	31268	
2418	0	31164	
2419	0	31112	
2420	0	31062	
2421	0	31044	
2422	0	31044	
2423	0	31088	
2424	0	31092	
2425	0	31136	
2426	0	31200	
2427	0	31284	
2428	0	31312	
2429	0	31320	
2430	0	31344	
2431	0	31394	
2432	0	31400	
2433	0	31396	
2434	0	31380	
2435	0	31422	
2436	0	31492	
2437	0	31569	
2438	0	31648	
2439	0	31688	
2440	0	31692	
2441	0	31632	
2442	0	31620	
2443	0	31652	
2444	0	31632	
2445	0	31648	
2446	0	31680	
2447	0	31672	
2448	0	31624	
2449	0	31600	
2450	0	31616	
2451	0	31636	
2452	0	31636	
2453	0	31644	
2454	0	31648	
2455	0	31696	
2456	0	31752	
2457	0	31824	
2458	0	31860	
2459	0	31884	
2460	0	31894	
2461	0	31868	
2462	0	31768	
2463	0	31536	
2464	0	31260	
2465	0	30880	
2466	0	30362	
2467	0	29688	
2468	0	29068	
2469	0	28640	
2470	0	28384	
2471	0	28330	
2472	0	28480	
2473	0	28832	
2474	0	29340	
2475	0	30084	
2476	0	31092	
2477	0	32338	
2478	0	33688	
2479	0	35224	
2480	0	36968	
2481	0	38936	
2482	0	41296	
2483	0	43972	
2484	0	47072	
2485	0	50728	
2486	0	54568	
2487	0	58208	
2488	0	61416	
2489	0	63304	
2490	0	64268	
2491	0	64748	
2492	0	64924	
2493	0	64992	
2494	0	64932	
2495	0	64856	
2496	0	64752	
2497	0	64644	
2498	0	64520	
2499	0	64408	
2500	0	61784	
2501	0	55520	
2502	0	50496	
2503	0	46312	
2504	0	42828	
2505	0	39824	
2506	0	37116	
2507	0	34692	
2508	0	32664	
2509	0	30996	
2510	0	29756	
2511	0	28760	
2512	0	28008	
2513	0	27424	
2514	0	27078	
2515	0	26910	
2516	0	26820	
2517	0	26844	
2518	0	26914	
2519	0	26944	
2520	0	26956	
2521	0	26936	
2522	0	26872	
2523	0	26868	
2524	0	26950	
2525	0	27152	
2526	0	27442	
2527	0	27776	
2528	0	28052	
2529	0	28324	
2530	0	28496	
2531	0	28616	
2532	0	28720	
2533	0	28746	
2534	0	28704	
2535	0	28660	
2536	0	28640	
2537	0	28608	
2538	0	28552	
2539	0	28508	
2540	0	28512	
2541	0	28512	
2542	0	28492	
2543	0	28480	
2544	0	28512	
2545	0	28556	
2546	0	28544	
2547	0	28516	
2548	0	28564	
2549	0	28632	
2550	0	28684	
2551	0	28768	
2552	0	28836	
2553	0	28884	
2554	0	28936	
2555	0	28996	
2556	0	29060	
2557	0	29116	
2558	0	29144	
2559	0	29164	
2560	0	29156	
2561	0	29168	
2562	0	29240	
2563	0	29316	
2564	0	29410	
2565	0	29474	
2566	0	29496	
2567	0	29504	
2568	0	29492	
2569	0	29516	
2570	0	29592	
2571	0	29640	
2572	0	29700	
2573	0	29760	
2574	0	29840	
2575	0	29884	
2576	0	29948	
2577	0	30004	
2578	0	30048	
2579	0	30092	
2580	0	30116	
2581	0	30152	
2582	0	30176	
2583	0	30192	
2584	0	30228	
2585	0	30260	
2586	0	30348	
2587	0	30444	
2588	0	30520	
2589	0	30624	
2590	0	30738	
2591	0	30760	
2592	0	30804	
2593	0	30880	
2594	0	30912	
2595	0	30960	
2596	0	31020	
2597	0	31052	
2598	0	31068	
2599	0	31082	
2600	0	31116	
2601	0	31140	
2602	0	31184	
2603	0	31244	
2604	0	31288	
2605	0	31324	
2606	0	31380	
2607	0	31462	
2608	0	31536	
2609	0	31594	
2610	0	31644	
2611	0	31692	
2612	0	31716	
2613	0	31768	
2614	0	31848	
2615	0	31924	
2616	0	32020	
2617	0	32076	
2618	0	32104	
2619	0	32160	
2620	0	32180	
2621	0	32192	
2622	0	32240	
2623	0	32300	
2624	0	32396	
2625	0	32478	
2626	0	32504	
2627	0	32536	
2628	0	32552	
2629	0	32572	
2630	0	32632	
2631	0	32728	
2632	0	32864	
2633	0	32976	
2634	0	33060	
2635	0	33118	
2636	0	33180	
2637	0	33192	
2638	0	33200	
2639	0	33212	
2640	0	33244	
2641	0	33264	
2642	0	33292	
2643	0	33336	
2644	0	33410	
2645	0	33488	
2646	0	33612	
2647	0	33724	
2648	0	33840	
2649	0	33972	
2650	0	34084	
2651	0	34180	
2652	0	34248	
2653	0	34336	
2654	0	34416	
2655	0	34488	
2656	0	34580	
2657	0	34672	
2658	0	34748	
2659	0	34832	
2660	0	34964	
2661	0	35044	
2662	0	35104	
2663	0	35164	
2664	0	35228	
2665	0	35304	
2666	0	35348	
2667	0	35412	
2668	0	35480	
2669	0	35520	
2670	0	35568	
2671	0	35600	
2672	0	35600	
2673	0	35636	
2674	0	35728	
2675	0	35788	
2676	0	35812	
2677	0	35880	
2678	0	35956	
2679	0	36004	
2680	0	36020	
2681	0	36084	
2682	0	36152	
2683	0	36232	
2684	0	36248	
2685	0	36236	
2686	0	36196	
2687	0	36172	
2688	0	36160	
2689	0	36136	
2690	0	36136	
2691	0	36192	
2692	0	36236	
2693	0	36220	
2694	0	36152	
2695	0	36100	
2696	0	36048	
2697	0	36044	
2698	0	36036	
2699	0	35992	
2700	0	35920	
2701	0	35920	
2702	0	35912	
2703	0	35864	
2704	0	35800	
2705	0	35716	
2706	0	35616	
2707	0	35560	
2708	0	35552	
2709	0	35572	
2710	0	35586	
2711	0	35610	
2712	0	35584	
2713	0	35560	
2714	0	35520	
2715	0	35488	
2716	0	35436	
2717	0	35376	
2718	0	35288	
2719	0	35184	
2720	0	35040	
2721	0	34872	
2722	0	34692	
2723	0	34528	
2724	0	34408	
2725	0	34292	
2726	0	34176	
2727	0	34048	
2728	0	33924	
2729	0	33810	
2730	0	33672	
2731	0	33526	
2732	0	33372	
2733	0	33228	
2734	0	33076	
2735	0	32928	
2736	0	32808	
2737	0	32692	
2738	0	32560	
2739	0	32408	
2740	0	32230	
2741	0	32084	
2742	0	31952	
2743	0	31836	
2744	0	31716	
2745	0	31616	
2746	0	31468	
2747	0	31320	
2748	0	31152	
2749	0	30990	
2750	0	30860	
2751	0	30738	
2752	0	30658	
2753	0	30594	
2754	0	30508	
2755	0	30428	
2756	0	30368	
2757	0	30268	
2758	0	30144	
2759	0	30032	
2760	0	29920	
2761	0	29856	
2762	0	29772	
2763	0	29708	
2764	0	29664	
2765	0	29652	
2766	0	29628	
2767	0	29552	
2768	0	29460	
2769	0	29400	
2770	0	29368	
2771	0	29356	
2772	0	29376	
2773	0	29416	
2774	0	29412	
2775	0	29430	
2776	0	29480	
2777	0	29480	
2778	0	29488	
2779	0	29480	
2780	0	29472	
2781	0	29496	
2782	0	29504	
2783	0	29458	
2784	0	29388	
2785	0	29356	
2786	0	29344	
2787	0	29376	
2788	0	29408	
2789	0	29436	
2790	0	29450	
2791	0	29476	
2792	0	29524	
2793	0	29580	
2794	0	29612	
2795	0	29656	
2796	0	29720	
2797	0	29760	
2798	0	29796	
2799	0	29832	
2800	0	29882	
2801	0	29946	
2802	0	29996	
2803	0	30004	
2804	0	30032	
2805	0	30088	
2806	0	30116	
2807	0	30108	
2808	0	30093	
2809	0	30104	
2810	0	30138	
2811	0	30196	
2812	0	30244	
2813	0	30338	
2814	0	30424	
2815	0	30524	
2816	0	30588	
2817	0	30608	
2818	0	30636	
2819	0	30700	
2820	0	30769	
2821	0	30800	
2822	0	30870	
2823	0	30952	
2824	0	30996	
2825	0	30972	
2826	0	30924	
2827	0	30914	
2828	0	30946	
2829	0	30992	
2830	0	31012	
2831	0	31036	
2832	0	31100	
2833	0	31188	
2834	0	31216	
2835	0	31204	
2836	0	31192	
2837	0	31192	
2838	0	31200	
2839	0	31266	
2840	0	31340	
2841	0	31400	
2842	0	31456	
2843	0	31484	
2844	0	31492	
2845	0	31476	
2846	0	31508	
2847	0	31520	
2848	0	31564	
2849	0	31624	
2850	0	31688	
2851	0	31676	
2852	0	31664	
2853	0	31700	
2854	0	31738	
2855	0	31768	
2856	0	31792	
2857	0	31856	
2858	0	31888	
2859	0	31892	
2860	0	31884	
2861	0	31824	
2862	0	31770	
2863	0	31802	
2864	0	31852	
2865	0	31876	
2866	0	31916	
2867	0	31936	
2868	0	31936	
2869	0	31982	
2870	0	32020	
2871	0	32012	
2872	0	31996	
2873	0	31914	
2874	0	31868	
2875	0	31888	
2876	0	31896	
2877	0	31916	
2878	0	31928	
2879	0	31960	
2880	0	31976	
2881	0	32012	
2882	0	32058	
2883	0	32088	
2884	0	32096	
2885	0	32120	
2886	0	32132	
2887	0	32128	
2888	0	32112	
2889	0	32132	
2890	0	32144	
2891	0	32120	
2892	0	32080	
2893	0	32082	
2894	0	32096	
2895	0	32116	
2896	0	32156	
2897	0	32224	
2898	0	32252	
2899	0	32220	
2900	0	32168	
2901	0	32094	
2902	0	32064	
2903	0	32052	
2904	0	32040	
2905	0	32032	
2906	0	32008	
2907	0	32028	
2908	0	32056	
2909	0	32076	
2910	0	32048	
2911	0	32032	
2912	0	32008	
2913	0	32052	
2914	0	32140	
2915	0	32192	
2916	0	32158	
2917	0	32092	
2918	0	32048	
2919	0	32036	
2920	0	32060	
2921	0	32072	
2922	0	32088	
2923	0	32064	
2924	0	32032	
2925	0	32052	
2926	0	32064	
2927	0	32096	
2928	0	32108	
2929	0	32082	
2930	0	32024	
2931	0	31984	
2932	0	32024	
2933	0	32102	
2934	0	32132	
2935	0	32140	
2936	0	32108	
2937	0	32072	
2938	0	32068	
2939	0	32084	
2940	0	32076	
2941	0	32092	
2942	0	32128	
2943	0	32136	
2944	0	32084	
2945	0	32036	
2946	0	32036	
2947	0	32012	
2948	0	31988	
2949	0	31968	
2950	0	31962	
2951	0	32028	
2952	0	32124	
2953	0	32164	
2954	0	32172	
2955	0	32120	
2956	0	32080	
2957	0	32036	
2958	0	32012	
2959	0	32000	
2960	0	32012	
2961	0	32028	
2962	0	32016	
2963	0	31988	
2964	0	31996	
2965	0	32040	
2966	0	32114	
2967	0	32160	
2968	0	32160	
2969	0	32140	
2970	0	32124	
2971	0	32112	
2972	0	32124	
2973	0	32146	
2974	0	32164	
2975	0	32160	
2976	0	32166	
2977	0	32194	
2978	0	32200	
2979	0	32208	
2980	0	32256	
2981	0	32264	
2982	0	32240	
2983	0	32248	
2984	0	32260	
2985	0	32256	
2986	0	32240	
2987	0	32232	
2988	0	32188	
2989	0	32144	
2990	0	32108	
2991	0	32132	
2992	0	32140	
2993	0	32168	
2994	0	32228	
2995	0	32264	
2996	0	32268	
2997	0	32300	
2998	0	32316	
2999	0	32332	
3000	0	32376	
3001	0	32360	
3002	0	32308	
3003	0	32276	
3004	0	32228	
3005	0	32248	
3006	0	32252	
3007	0	32268	
3008	0	32296	
3009	0	32304	
3010	0	32300	
3011	0	32248	
3012	0	32192	
3013	0	32174	
3014	0	32186	
3015	0	32228	
3016	0	32240	
3017	0	32272	
3018	0	32288	
3019	0	32312	
3020	0	32336	
3021	0	32372	
3022	0	32440	
3023	0	32420	
3024	0	32408	
3025	0	32416	
3026	0	32424	
3027	0	32480	
3028	0	32516	
3029	0	32540	
3030	0	32448	
3031	0	32340	
3032	0	32296	
3033	0	32292	
3034	0	32298	
3035	0	32328	
3036	0	32372	
3037	0	32392	
3038	0	32420	
3039	0	32414	
3040	0	32396	
3041	0	32388	
3042	0	32404	
3043	0	32420	
3044	0	32484	
3045	0	32512	
3046	0	32536	
3047	0	32516	
3048	0	32496	
3049	0	32508	
3050	0	32602	
3051	0	32692	
3052	0	32752	
3053	0	32812	
3054	0	32888	
3055	0	33000	
3056	0	33116	
3057	0	33112	
3058	0	33112	
3059	0	33178	
3060	0	33252	
3061	0	33280	
3062	0	33312	
3063	0	33376	
3064	0	33424	
3065	0	33508	
3066	0	33576	
3067	0	33576	
3068	0	33528	
3069	0	33452	
3070	0	33400	
3071	0	33344	
3072	0	33268	
3073	0	33220	
3074	0	33234	
3075	0	33272	
3076	0	33344	
3077	0	33456	
3078	0	33584	
3079	0	33676	
3080	0	33844	
3081	0	34056	
3082	0	34332	
3083	0	34608	
3084	0	34848	
3085	0	35008	
3086	0	35068	
3087	0	35040	
3088	0	35072	
3089	0	35176	
3090	0	35288	
3091	0	35348	
3092	0	35304	
3093	0	35236	
3094	0	35196	
3095	0	35160	
3096	0	35040	
3097	0	34896	
3098	0	34800	
3099	0	34720	
3100	0	34620	
3101	0	34464	
3102	0	34328	
3103	0	34192	
3104	0	34061	
3105	0	33952	
3106	0	33844	
3107	0	33744	
3108	0	33636	
3109	0	33550	
3110	0	33448	
3111	0	33328	
3112	0	33258	
3113	0	33224	
3114	0	33156	
3115	0	33076	
3116	0	33004	
3117	0	32936	
3118	0	32912	
3119	0	32944	
3120	0	32960	
3121	0	32884	
3122	0	32756	
3123	0	32608	
3124	0	32508	
3125	0	32432	
3126	0	32336	
3127	0	32264	
3128	0	32188	
3129	0	32040	
3130	0	31876	
3131	0	31732	
3132	0	31648	
3133	0	31548	
3134	0	31496	
3135	0	31496	
3136	0	31544	
3137	0	31588	
3138	0	31600	
3139	0	31612	
3140	0	31616	
3141	0	31632	
3142	0	31620	
3143	0	31580	
3144	0	31578	
3145	0	31592	
3146	0	31604	
3147	0	31574	
3148	0	31600	
3149	0	31616	
3150	0	31620	
3151	0	31596	
3152	0	31628	
3153	0	31668	
3154	0	31680	
3155	0	31692	
3156	0	31720	
3157	0	31732	
3158	0	31724	
3159	0	31764	
3160	0	31812	
3161	0	31852	
3162	0	31872	
3163	0	31856	
3164	0	31832	
3165	0	31832	
3166	0	31840	
3167	0	31840	
3168	0	31828	
3169	0	31880	
3170	0	31946	
3171	0	32008	
3172	0	32088	
3173	0	32156	
3174	0	32186	
3175	0	32180	
3176	0	32164	
3177	0	32088	
3178	0	31924	
3179	0	31736	
3180	0	31422	
3181	0	30916	
3182	0	30232	
3183	0	29500	
3184	0	28964	
3185	0	28628	
3186	0	28492	
3187	0	28532	
3188	0	28756	
3189	0	29196	
3190	0	29872	
3191	0	30760	
3192	0	31856	
3193	0	33156	
3194	0	34618	
3195	0	36232	
3196	0	38010	
3197	0	40078	
3198	0	42500	
3199	0	45288	
3200	0	48668	
3201	0	52304	
3202	0	55860	
3203	0	59204	
3204	0	62028	
3205	0	63596	
3206	0	64388	
3207	0	64776	
3208	0	64916	
3209	0	64916	
3210	0	64880	
3211	0	64784	
3212	0	64684	
3213	0	64564	
3214	0	64440	
3215	0	63256	
3216	0	56696	
3217	0	51292	
3218	0	46888	
3219	0	43230	
3220	0	40252	
3221	0	37728	
3222	0	35400	
3223	0	33372	
3224	0	31592	
3225	0	30216	
3226	0	29144	
3227	0	28336	
3228	0	27660	
3229	0	27256	
3230	0	27060	
3231	0	26916	
3232	0	26932	
3233	0	27032	
3234	0	27128	
3235	0	27120	
3236	0	27020	
3237	0	26948	
3238	0	26984	
3239	0	27124	
3240	0	27364	
3241	0	27714	
3242	0	28056	
3243	0	28316	
3244	0	28548	
3245	0	28728	
3246	0	28864	
3247	0	28912	
3248	0	28936	
3249	0	28976	
3250	0	29020	
3251	0	28972	
3252	0	28912	
3253	0	28852	
3254	0	28848	
3255	0	28872	
3256	0	28900	
3257	0	28932	
3258	0	28964	
3259	0	28964	
3260	0	28960	
3261	0	28976	
3262	0	29008	
3263	0	29044	
3264	0	29076	
3265	0	29114	
3266	0	29108	
3267	0	29112	
3268	0	29132	
3269	0	29184	
3270	0	29248	
3271	0	29304	
3272	0	29348	
3273	0	29392	
3274	0	29460	
3275	0	29512	
3276	0	29546	
3277	0	29584	
3278	0	29604	
3279	0	29630	
3280	0	29664	
3281	0	29716	
3282	0	29752	
3283	0	29784	
3284	0	29840	
3285	0	29916	
3286	0	29972	
3287	0	30024	
3288	0	30056	
3289	0	30056	
3290	0	30104	
3291	0	30124	
3292	0	30144	
3293	0	30204	
3294	0	30298	
3295	0	30370	
3296	0	30456	
3297	0	30516	
3298	0	30552	
3299	0	30586	
3300	0	30612	
3301	0	30648	
3302	0	30704	
3303	0	30764	
3304	0	30848	
3305	0	30888	
3306	0	30896	
3307	0	30872	
3308	0	30904	
3309	0	30964	
3310	0	31044	
3311	0	31096	
3312	0	31152	
3313	0	31224	
3314	0	31280	
3315	0	31348	
3316	0	31396	
3317	0	31404	
3318	0	31456	
3319	0	31560	
3320	0	31640	
3321	0	31700	
3322	0	31712	
3323	0	31748	
3324	0	31776	
3325	0	31800	
3326	0	31852	
3327	0	31868	
3328	0	31932	
3329	0	31968	
3330	0	31996	
3331	0	32064	
3332	0	32124	
3333	0	32148	
3334	0	32172	
3335	0	32204	
3336	0	32248	
3337	0	32288	
3338	0	32332	
3339	0	32332	
3340	0	32352	
3341	0	32444	
3342	0	32570	
3343	0	32672	
3344	0	32768	
3345	0	32856	
3346	0	32880	
3347	0	32944	
3348	0	32984	
3349	0	33024	
3350	0	33056	
3351	0	33084	
3352	0	33152	
3353	0	33238	
3354	0	33300	
3355	0	33344	
3356	0	33376	
3357	0	33432	
3358	0	33520	
3359	0	33564	
3360	0	33596	
3361	0	33624	
3362	0	33656	
3363	0	33756	
3364	0	33868	
3365	0	33972	
3366	0	34060	
3367	0	34120	
3368	0	34200	
3369	0	34270	
3370	0	34360	
3371	0	34438	
3372	0	34452	
3373	0	34536	
3374	0	34612	
3375	0	34656	
3376	0	34720	
3377	0	34822	
3378	0	34906	
3379	0	34972	
3380	0	35032	
3381	0	35130	
3382	0	35212	
3383	0	35258	
3384	0	35312	
3385	0	35360	
3386	0	35412	
3387	0	35412	
3388	0	35428	
3389	0	35464	
3390	0	35536	
3391	0	35580	
3392	0	35596	
3393	0	35644	
3394	0	35700	
3395	0	35760	
3396	0	35756	
3397	0	35752	
3398	0	35768	
3399	0	35756	
3400	0	35760	
3401	0	35784	
3402	0	35812	
3403	0	35906	
3404	0	35972	
3405	0	35996	
3406	0	35948	
3407	0	35896	
3408	0	35860	
3409	0	35832	
3410	0	35796	
3411	0	35820	
3412	0	35828	
3413	0	35802	
3414	0	35784	
3415	0	35768	
3416	0	35708	
3417	0	35672	
3418	0	35644	
3419	0	35606	
3420	0	35564	
3421	0	35552	
3422	0	35572	
3423	0	35544	
3424	0	35476	
3425	0	35428	
3426	0	35384	
3427	0	35348	
3428	0	35348	
3429	0	35324	
3430	0	35244	
3431	0	35184	
3432	0	35112	
3433	0	35064	
3434	0	35032	
3435	0	34972	
3436	0	34952	
3437	0	34890	
3438	0	34772	
3439	0	34672	
3440	0	34558	
3441	0	34444	
3442	0	34328	
3443	0	34226	
3444	0	34120	
3445	0	34008	
3446	0	33912	
3447	0	33780	
3448	0	33644	
3449	0	33528	
3450	0	33416	
3451	0	33248	
3452	0	33056	
3453	0	32876	
3454	0	32740	
3455	0	32640	
3456	0	32528	
3457	0	32410	
3458	0	32300	
3459	0	32180	
3460	0	32040	
3461	0	31900	
3462	0	31712	
3463	0	31576	
3464	0	31464	
3465	0	31356	
3466	0	31264	
3467	0	31180	
3468	0	31056	
3469	0	30988	
3470	0	30932	
3471	0	30852	
3472	0	30780	
3473	0	30712	
3474	0	30632	
3475	0	30520	
3476	0	30384	
3477	0	30268	
3478	0	30180	
3479	0	30096	
3480	0	30036	
3481	0	29984	
3482	0	29920	
3483	0	29848	
3484	0	29768	
3485	0	29704	
3486	0	29664	
3487	0	29652	
3488	0	29636	
3489	0	29632	
3490	0	29616	
3491	0	29580	
3492	0	29532	
3493	0	29496	
3494	0	29472	
3495	0	29516	
3496	0	29548	
3497	0	29556	
3498	0	29620	
3499	0	29684	
3500	0	29680	
3501	0	29660	
3502	0	29632	
3503	0	29624	
3504	0	29644	
3505	0	29628	
3506	0	29656	
3507	0	29640	
3508	0	29600	
3509	0	29580	
3510	0	29624	
3511	0	29680	
3512	0	29752	
3513	0	29832	
3514	0	29920	
3515	0	29972	
3516	0	30022	
3517	0	30124	
3518	0	30224	
3519	0	30296	
3520	0	30324	
3521	0	30348	
3522	0	30356	
3523	0	30380	
3524	0	30416	
3525	0	30464	
3526	0	30456	
3527	0	30416	
3528	0	30400	
3529	0	30440	
3530	0	30528	
3531	0	30576	
3532	0	30588	
3533	0	30624	
3534	0	30666	
3535	0	30708	
3536	0	30764	
3537	0	30796	
3538	0	30828	
3539	0	30872	
3540	0	30930	
3541	0	30966	
3542	0	31028	
3543	0	31048	
3544	0	31080	
3545	0	31092	
3546	0	31084	
3547	0	31117	
3548	0	31130	
3549	0	31116	
3550	0	31120	
3551	0	31124	
3552	0	31132	
3553	0	31144	
3554	0	31188	
3555	0	31208	
3556	0	31284	
3557	0	31364	
3558	0	31432	
3559	0	31500	
3560	0	31504	
3561	0	31516	
3562	0	31520	
3563	0	31556	
3564	0	31546	
3565	0	31504	
3566	0	31528	
3567	0	31576	
3568	0	31584	
3569	0	31576	
3570	0	31592	
3571	0	31632	
3572	0	31666	
3573	0	31664	
3574	0	31692	
3575	0	31752	
3576	0	31762	
3577	0	31772	
3578	0	31760	
3579	0	31648	
3580	0	31620	
3581	0	31624	
3582	0	31732	
3583	0	31828	
3584	0	31904	
3585	0	31952	
3586	0	31968	
3587	0	31982	
3588	0	31980	
3589	0	32016	
3590	0	32044	
3591	0	32040	
3592	0	31976	
3593	0	31952	
3594	0	31980	
3595	0	32036	
3596	0	32072	
3597	0	32108	
3598	0	32122	
3599	0	32134	
3600	0	32144	
3601	0	32096	
3602	0	32040	
3603	0	31980	
3604	0	31968	
3605	0	32000	
3606	0	32076	
3607	0	32084	
3608	0	32088	
3609	0	32064	
3610	0	32048	
3611	0	32056	
3612	0	32084	
3613	0	32098	
3614	0	32056	
3615	0	32032	
3616	0	32064	
3617	0	32084	
3618	0	32104	
3619	0	32104	
3620	0	32128	
3621	0	32164	
3622	0	32208	
3623	0	32256	
3624	0	32280	
3625	0	32252	
3626	0	32222	
3627	0	32200	
3628	0	32196	
3629	0	32194	
3630	0	32212	
3631	0	32234	
3632	0	32232	
3633	0	32236	
3634	0	32248	
3635	0	32248	
3636	0	32280	
3637	0	32300	
3638	0	32320	
3639	0	32276	
3640	0	32204	
3641	0	32236	
3642	0	32268	
3643	0	32244	
3644	0	32192	
3645	0	32128	
3646	0	32068	
3647	0	32052	
3648	0	32076	
3649	0	32128	
3650	0	32136	
3651	0	32140	
3652	0	32160	
3653	0	32148	
3654	0	32180	
3655	0	32176	
3656	0	32176	
3657	0	32160	
3658	0	32120	
3659	0	32124	
3660	0	32156	
3661	0	32172	
3662	0	32180	
3663	0	32180	
3664	0	32168	
3665	0	32124	
3666	0	32096	
3667	0	32088	
3668	0	32108	
3669	0	32120	
3670	0	32108	
3671	0	32100	
3672	0	32104	
3673	0	32120	
3674	0	32164	
3675	0	32210	
3676	0	32168	
3677	0	32144	
3678	0	32188	
3679	0	32220	
3680	0	32218	
3681	0	32228	
3682	0	32224	
3683	0	32236	
3684	0	32240	
3685	0	32200	
3686	0	32160	
3687	0	32136	
3688	0	32064	
3689	0	32032	
3690	0	32096	
3691	0	32164	
3692	0	32242	
3693	0	32296	
3694	0	32356	
3695	0	32376	
3696	0	32360	
3697	0	32356	
3698	0	32344	
3699	0	32324	
3700	0	32306	
3701	0	32312	
3702	0	32392	
3703	0	32412	
3704	0	32368	
3705	0	32328	
3706	0	32246	
3707	0	32186	
3708	0	32208	
3709	0	32224	
3710	0	32244	
3711	0	32248	
3712	0	32208	
3713	0	32184	
3714	0	32208	
3715	0	32236	
3716	0	32324	
3717	0	32388	
3718	0	32448	
3719	0	32506	
3720	0	32528	
3721	0	32552	
3722	0	32524	
3723	0	32508	
3724	0	32532	
3725	0	32532	
3726	0	32488	
3727	0	32448	
3728	0	32412	
3729	0	32384	
3730	0	32388	
3731	0	32396	
3732	0	32416	
3733	0	32436	
3734	0	32424	
3735	0	32456	
3736	0	32484	
3737	0	32496	
3738	0	32516	
3739	0	32544	
3740	0	32564	
3741	0	32594	
3742	0	32652	
3743	0	32680	
3744	0	32648	
3745	0	32596	
3746	0	32556	
3747	0	32528	
3748	0	32516	
3749	0	32536	
3750	0	32544	
3751	0	32536	
3752	0	32552	
3753	0	32584	
3754	0	32582	
3755	0	32632	
3756	0	32636	
3757	0	32624	
3758	0	32636	
3759	0	32644	
3760	0	32656	
3761	0	32660	
3762	0	32660	
3763	0	32616	
3764	0	32588	
3765	0	32568	
3766	0	32512	
3767	0	32468	
3768	0	32456	
3769	0	32472	
3770	0	32476	
3771	0	32520	
3772	0	32528	
3773	0	32504	
3774	0	32496	
3775	0	32484	
3776	0	32524	
3777	0	32596	
3778	0	32642	
3779	0	32612	
3780	0	32594	
3781	0	32580	
3782	0	32596	
3783	0	32596	
3784	0	32600	
3785	0	32624	
3786	0	32644	
3787	0	32684	
3788	0	32736	
3789	0	32764	
3790	0	32744	
3791	0	32728	
3792	0	32716	
3793	0	32736	
3794	0	32764	
3795	0	32784	
3796	0	32812	
3797	0	32812	
3798	0	32844	
3799	0	32852	
3800	0	32860	
3801	0	32896	
3802	0	32884	
3803	0	32868	
3804	0	32852	
3805	0	32848	
3806	0	32860	
3807	0	32872	
3808	0	32836	
3809	0	32752	
3810	0	32704	
3811	0	32684	
3812	0	32688	
3813	0	32696	
3814	0	32716	
3815	0	32736	
3816	0	32760	
3817	0	32836	
3818	0	32936	
3819	0	33028	
3820	0	33090	
3821	0	33124	
3822	0	33152	
3823	0	33252	
3824	0	33360	
3825	0	33456	
3826	0	33564	
3827	0	33628	
3828	0	33618	
3829	0	33582	
3830	0	33548	
3831	0	33512	
3832	0	33554	
3833	0	33608	
3834	0	33640	
3835	0	33624	
3836	0	33592	
3837	0	33524	
3838	0	33412	
3839	0	33356	
3840	0	33336	
3841	0	33328	
3842	0	33312	
3843	0	33324	
3844	0	33408	
3845	0	33484	
3846	0	33600	
3847	0	33776	
3848	0	34028	
3849	0	34320	
3850	0	34608	
3851	0	34904	
3852	0	35148	
3853	0	35296	
3854	0	35424	
3855	0	35576	
3856	0	35696	
3857	0	35760	
3858	0	35794	
3859	0	35736	
3860	0	35640	
3861	0	35598	
3862	0	35492	
3863	0	35420	
3864	0	35368	
3865	0	35284	
3866	0	35222	
3867	0	35152	
3868	0	35072	
3869	0	34932	
3870	0	34756	
3871	0	34616	
3872	0	34520	
3873	0	34436	
3874	0	34266	
3875	0	34064	
3876	0	33948	
3877	0	33852	
3878	0	33776	
3879	0	33728	
3880	0	33704	
3881	0	33620	
3882	0	33504	
3883	0	33404	
3884	0	33340	
3885	0	33300	
3886	0	33248	
3887	0	33192	
3888	0	33104	
3889	0	32976	
3890	0	32864	
3891	0	32792	
3892	0	32784	
3893	0	32732	
3894	0	32640	
3895	0	32512	
3896	0	32352	
3897	0	32236	
3898	0	32096	
3899	0	31956	
3900	0	31872	
3901	0	31848	
3902	0	31852	
3903	0	31864	
3904	0	31852	
3905	0	31840	
3906	0	31832	
3907	0	31860	
3908	0	31880	
3909	0	31836	
3910	0	31840	
3911	0	31844	
3912	0	31840	
3913	0	31868	
3914	0	31892	
3915	0	31886	
3916	0	31912	
3917	0	31988	
3918	0	32032	
3919	0	32040	
3920	0	31984	
3921	0	31994	
3922	0	32004	
3923	0	32008	
3924	0	32024	
3925	0	32068	
3926	0	32112	
3927	0	32140	
3928	0	32184	
3929	0	32184	
3930	0	32188	
3931	0	32184	
3932	0	32232	
3933	0	32308	
3934	0	32292	
3935	0	32236	
3936	0	32172	
3937	0	32090	
3938	0	32092	
3939	0	32176	
3940	0	32248	
3941	0	32320	
3942	0	32332	
3943	0	32220	
3944	0	32064	
3945	0	31828	
3946	0	31488	
3947	0	31000	
3948	0	30396	
3949	0	29802	
3950	0	29376	
3951	0	29092	
3952	0	29028	
3953	0	29060	
3954	0	29292	
3955	0	29788	
3956	0	30556	
3957	0	31528	
3958	0	32512	
3959	0	33596	
3960	0	34936	
3961	0	36464	
3962	0	38144	
3963	0	40216	
3964	0	42684	
3965	0	45528	
3966	0	48832	
3967	0	52380	
3968	0	55896	
3969	0	59200	
3970	0	61888	
3971	0	63352	
3972	0	64112	
3973	0	64436	
3974	0	64580	
3975	0	64568	
3976	0	64516	
3977	0	64432	
3978	0	64324	
3979	0	64216	
3980	0	64096	
3981	0	57540	
3982	0	51356	
3983	0	46192	
3984	0	42052	
3985	0	38784	
3986	0	36300	
3987	0	34316	
3988	0	32540	
3989	0	30928	
3990	0	29524	
3991	0	28368	
3992	0	27360	
3993	0	26640	
3994	0	26124	
3995	0	25844	
3996	0	25766	
3997	0	25876	
3998	0	26048	
3999	0	26192	
4000	0	26190	
4001	0	26164	
4002	0	26252	
4003	0	26496	
4004	0	26764	
4005	0	27044	
4006	0	27376	
4007	0	27676	
4008	0	27944	
4009	0	28202	
4010	0	28456	
4011	0	28672	
4012	0	28876	
4013	0	29104	
4014	0	29260	
4015	0	29364	
4016	0	29360	
4017	0	29316	
4018	0	29300	
4019	0	29344	
4020	0	29432	
4021	0	29568	
4022	0	29680	
4023	0	29756	
4024	0	29780	
4025	0	29804	
4026	0	29828	
4027	0	29872	
4028	0	29932	
4029	0	29964	
4030	0	29980	
4031	0	29976	
4032	0	29960	
4033	0	30020	
4034	0	30088	
4035	0	30112	
4036	0	30114	
4037	0	30112	
4038	0	30132	
4039	0	30168	
4040	0	30180	
4041	0	30200	
4042	0	30256	
4043	0	30340	
4044	0	30392	
4045	0	30328	
4046	0	30228	
4047	0	30136	
4048	0	30146	
4049	0	30216	
4050	0	30310	
4051	0	30424	
4052	0	30518	
4053	0	30608	
4054	0	30672	
4055	0	30744	
4056	0	30848	
4057	0	30908	
4058	0	30944	
4059	0	30980	
4060	0	31028	
4061	0	31088	
4062	0	31168	
4063	0	31296	
4064	0	31412	
4065	0	31488	
4066	0	31508	
4067	0	31552	
4068	0	31568	
4069	0	31544	
4070	0	31532	
4071	0	31556	
4072	0	31554	
4073	0	31496	
4074	0	31416	
4075	0	31456	
4076	0	31556	
4077	0	31674	
4078	0	31744	
4079	0	31776	
4080	0	31836	
4081	0	31916	
4082	0	32004	
4083	0	32122	
4084	0	32172	
4085	0	32224	
4086	0	32300	
4087	0	32328	
4088	0	32348	
4089	0	32376	
4090	0	32440	
4091	0	32458	
4092	0	32468	
4093	0	32492	
4094	0	32576	
4095	0	32624	
4096	0	32666	
4097	0	32752	
4098	0	32836	
4099	0	32928	
4100	0	33000	
4101	0	33012	
4102	0	33020	
4103	0	33064	
4104	0	33108	
4105	0	33120	
4106	0	33100	
4107	0	33104	
4108	0	33164	
4109	0	33248	
4110	0	33364	
4111	0	33440	
4112	0	33468	
4113	0	33528	
4114	0	33608	
4115	0	33700	
4116	0	33776	
4117	0	33860	
4118	0	33956	
4119	0	34036	
4120	0	34088	
4121	0	34104	
4122	0	34160	
4123	0	34236	
4124	0	34272	
4125	0	34332	
4126	0	34372	
4127	0	34424	
4128	0	34524	
4129	0	34544	
4130	0	34544	
4131	0	34558	
4132	0	34560	
4133	0	34604	
4134	0	34704	
4135	0	34840	
4136	0	34916	
4137	0	34952	
4138	0	35000	
4139	0	35096	
4140	0	35192	
4141	0	35232	
4142	0	35292	
4143	0	35388	
4144	0	35512	
4145	0	35548	
4146	0	35516	
4147	0	35504	
4148	0	35544	
4149	0	35600	
4150	0	35704	
4151	0	35824	
4152	0	35888	
4153	0	35970	
4154	0	36008	
4155	0	36052	
4156	0	36096	
4157	0	36122	
4158	0	36168	
4159	0	36212	
4160	0	36300	
4161	0	36352	
4162	0	36364	
4163	0	36372	
4164	0	36400	
4165	0	36440	
4166	0	36468	
4167	0	36450	
4168	0	36436	
4169	0	36448	
4170	0	36488	
4171	0	36552	
4172	0	36624	
4173	0	36664	
4174	0	36692	
4175	0	36670	
4176	0	36584	
4177	0	36520	
4178	0	36512	
4179	0	36516	
4180	0	36480	
4181	0	36436	
4182	0	36384	
4183	0	36320	
4184	0	36216	
4185	0	36130	
4186	0	36084	
4187	0	36044	
4188	0	35988	
4189	0	35972	
4190	0	35960	
4191	0	35904	
4192	0	35856	
4193	0	35792	
4194	0	35712	
4195	0	35644	
4196	0	35642	
4197	0	35628	
4198	0	35592	
4199	0	35528	
4200	0	35464	
4201	0	35408	
4202	0	35360	
4203	0	35352	
4204	0	35324	
4205	0	35256	
4206	0	35212	
4207	0	35104	
4208	0	35004	
4209	0	34784	
4210	0	34560	
4211	0	34352	
4212	0	34154	
4213	0	33984	
4214	0	33780	
4215	0	33628	
4216	0	33524	
4217	0	33440	
4218	0	33360	
4219	0	33274	
4220	0	33224	
4221	0	33132	
4222	0	32992	
4223	0	32848	
4224	0	32712	
4225	0	32572	
4226	0	32420	
4227	0	32294	
4228	0	32160	
4229	0	32058	
4230	0	31956	
4231	0	31830	
4232	0	31688	
4233	0	31552	
4234	0	31424	
4235	0	31308	
4236	0	31236	
4237	0	31184	
4238	0	31140	
4239	0	31072	
4240	0	30996	
4241	0	30896	
4242	0	30772	
4243	0	30600	
4244	0	30500	
4245	0	30388	
4246	0	30312	
4247	0	30280	
4248	0	30196	
4249	0	30116	
4250	0	30080	
4251	0	30026	
4252	0	29932	
4253	0	29840	
4254	0	29792	
4255	0	29808	
4256	0	29844	
4257	0	29836	
4258	0	29866	
4259	0	29900	
4260	0	29904	
4261	0	29896	
4262	0	29916	
4263	0	29880	
4264	0	29848	
4265	0	29772	
4266	0	29720	
4267	0	29708	
4268	0	29684	
4269	0	29640	
4270	0	29544	
4271	0	29488	
4272	0	29424	
4273	0	29392	
4274	0	29372	
4275	0	29332	
4276	0	29308	
4277	0	29314	
4278	0	29392	
4279	0	29464	
4280	0	29480	
4281	0	29500	
4282	0	29600	
4283	0	29698	
4284	0	29764	
4285	0	29824	
4286	0	29846	
4287	0	29864	
4288	0	29908	
4289	0	29960	
4290	0	30004	
4291	0	30042	
4292	0	30074	
4293	0	30152	
4294	0	30236	
4295	0	30264	
4296	0	30226	
4297	0	30224	
4298	0	30216	
4299	0	30272	
4300	0	30366	
4301	0	30416	
4302	0	30392	
4303	0	30284	
4304	0	30272	
4305	0	30272	
4306	0	30276	
4307	0	30320	
4308	0	30356	
4309	0	30424	
4310	0	30516	
4311	0	30618	
4312	0	30724	
4313	0	30832	
4314	0	30944	
4315	0	31072	
4316	0	31132	
4317	0	31172	
4318	0	31228	
4319	0	31248	
4320	0	31252	
4321	0	31240	
4322	0	31198	
4323	0	31184	
4324	0	31216	
4325	0	31264	
4326	0	31320	
4327	0	31380	
4328	0	31428	
4329	0	31488	
4330	0	31544	
4331	0	31608	
4332	0	31616	
4333	0	31580	
4334	0	31552	
4335	0	31512	
4336	0	31504	
4337	0	31480	
4338	0	31504	
4339	0	31564	
4340	0	31620	
4341	0	31684	
4342	0	31736	
4343	0	31788	
4344	0	31808	
4345	0	31840	
4346	0	31884	
4347	0	31968	
4348	0	32040	
4349	0	32066	
4350	0	32080	
4351	0	32108	
4352	0	32096	
4353	0	32080	
4354	0	31992	
4355	0	31924	
4356	0	31928	
4357	0	31984	
4358	0	32008	
4359	0	32024	
4360	0	32060	
4361	0	32018	
4362	0	31920	
4363	0	31824	
4364	0	31752	
4365	0	31736	
4366	0	31776	
4367	0	31828	
4368	0	31880	
4369	0	31924	
4370	0	31980	
4371	0	32058	
4372	0	32080	
4373	0	32068	
4374	0	32040	
4375	0	32040	
4376	0	32044	
4377	0	32044	
4378	0	32032	
4379	0	32040	
4380	0	32068	
4381	0	32140	
4382	0	32168	
4383	0	32180	
4384	0	32168	
4385	0	32232	
4386	0	32352	
4387	0	32392	
4388	0	32308	
4389	0	32244	
4390	0	32220	
4391	0	32200	
4392	0	32136	
4393	0	32084	
4394	0	32046	
4395	0	32024	
4396	0	31988	
4397	0	31968	
4398	0	31952	
4399	0	32000	
4400	0	32096	
4401	0	32164	
4402	0	32244	
4403	0	32328	
4404	0	32348	
4405	0	32312	
4406	0	32248	
4407	0	32204	
4408	0	32180	
4409	0	32160	
4410	0	32136	
4411	0	32152	
4412	0	32154	
4413	0	32116	
4414	0	32048	
4415	0	31988	
4416	0	31896	
4417	0	31780	
4418	0	31724	
4419	0	31776	
4420	0	31812	
4421	0	31862	
4422	0	31876	
4423	0	31852	
4424	0	31860	
4425	0	31888	
4426	0	31932	
4427	0	31932	
4428	0	31896	
4429	0	31880	
4430	0	31860	
4431	0	31802	
4432	0	31800	
4433	0	31856	
4434	0	31836	
4435	0	31744	
4436	0	31720	
4437	0	31752	
4438	0	31796	
4439	0	31848	
4440	0	31868	
4441	0	31884	
4442	0	31856	
4443	0	31824	
4444	0	31784	
4445	0	31800	
4446	0	31808	
4447	0	31800	
4448	0	31816	
4449	0	31832	
4450	0	31884	
4451	0	31944	
4452	0	31994	
4453	0	32056	
4454	0	32164	
4455	0	32252	
4456	0	32272	
4457	0	32256	
4458	0	32242	
4459	0	32160	
4460	0	32052	
4461	0	31932	
4462	0	31816	
4463	0	31744	
4464	0	31776	
4465	0	31872	
4466	0	31976	
4467	0	32064	
4468	0	32072	
4469	0	32036	
4470	0	32048	
4471	0	32112	
4472	0	32172	
4473	0	32202	
4474	0	32184	
4475	0	32112	
4476	0	31968	
4477	0	31856	
4478	0	31820	
4479	0	31838	
4480	0	31840	
4481	0	31852	
4482	0	31908	
4483	0	31956	
4484	0	31960	
4485	0	31976	
4486	0	32016	
4487	0	32036	
4488	0	31992	
4489	0	31976	
4490	0	31952	
4491	0	31900	
4492	0	31876	
4493	0	31878	
4494	0	31888	
4495	0	31908	
4496	0	31952	
4497	0	32024	
4498	0	32120	
4499	0	32220	
4500	0	32268	
4501	0	32242	
4502	0	32148	
4503	0	31996	
4504	0	31908	
4505	0	31940	
4506	0	32052	
4507	0	32116	
4508	0	32172	
4509	0	32208	
4510	0	32272	
4511	0	32380	
4512	0	32468	
4513	0	32504	
4514	0	32528	
4515	0	32584	
4516	0	32644	
4517	0	32650	
4518	0	32624	
4519	0	32592	
4520	0	32576	
4521	0	32620	
4522	0	32720	
4523	0	32852	
4524	0	32956	
4525	0	33058	
4526	0	33208	
4527	0	33340	
4528	0	33428	
4529	0	33416	
4530	0	33364	
4531	0	33296	
4532	0	33264	
4533	0	33248	
4534	0	33280	
4535	0	33312	
4536	0	33284	
4537	0	33232	
4538	0	33172	
4539	0	33178	
4540	0	33276	
4541	0	33428	
4542	0	33600	
4543	0	33824	
4544	0	34088	
4545	0	34308	
4546	0	34456	
4547	0	34528	
4548	0	34640	
4549	0	34816	
4550	0	34992	
4551	0	35168	
4552	0	35220	
4553	0	35140	
4554	0	35056	
4555	0	34960	
4556	0	34868	
4557	0	34778	
4558	0	34664	
4559	0	34616	
4560	0	34632	
4561	0	34712	
4562	0	34778	
4563	0	34776	
4564	0	34700	
4565	0	34512	
4566	0	34316	
4567	0	34150	
4568	0	33944	
4569	0	33716	
4570	0	33488	
4571	0	33312	
4572	0	33232	
4573	0	33160	
4574	0	33088	
4575	0	32972	
4576	0	32876	
4577	0	32788	
4578	0	32684	
4579	0	32644	
4580	0	32608	
4581	0	32576	
4582	0	32528	
4583	0	32540	
4584	0	32552	
4585	0	32508	
4586	0	32392	
4587	0	32236	
4588	0	32064	
4589	0	31832	
4590	0	31588	
4591	0	31380	
4592	0	31248	
4593	0	31160	
4594	0	31100	
4595	0	31108	
4596	0	31072	
4597	0	30978	
4598	0	30976	
4599	0	31032	
4600	0	31100	
4601	0	31160	
4602	0	31240	
4603	0	31308	
4604	0	31424	
4605	0	31568	
4606	0	31736	
4607	0	31836	
4608	0	31888	
4609	0	31912	
4610	0	31878	
4611	0	31784	
4612	0	31656	
4613	0	31520	
4614	0	31380	
4615	0	31308	
4616	0	31232	
4617	0	31140	
4618	0	31044	
4619	0	31008	
4620	0	31076	
4621	0	31184	
4622	0	31232	
4623	0	31204	
4624	0	31260	
4625	0	31400	
4626	0	31488	
4627	0	31496	
4628	0	31424	
4629	0	31356	
4630	0	31360	
4631	0	31388	
4632	0	31460	
4633	0	31514	
4634	0	31524	
4635	0	31480	
4636	0	31444	
4637	0	31400	
4638	0	31392	
4639	0	31324	
4640	0	31208	
4641	0	30928	
4642	0	30458	
4643	0	29912	
4644	0	29464	
4645	0	29168	
4646	0	28960	
4647	0	28824	
4648	0	28868	
4649	0	29104	
4650	0	29728	
4651	0	30704	
4652	0	31896	
4653	0	33156	
4654	0	34440	
4655	0	35812	
4656	0	37376	
4657	0	39184	
4658	0	41444	
4659	0	44116	
4660	0	47236	
4661	0	50624	
4662	0	53992	
4663	0	57272	
4664	0	60384	
4665	0	62468	
4666	0	63528	
4667	0	64064	
4668	0	64288	
4669	0	64356	
4670	0	64344	
4671	0	64256	
4672	0	64184	
4673	0	64064	
4674	0	62944	
4675	0	55832	
4676	0	48980	
4677	0	43032	
4678	0	38392	
4679	0	35004	
4680	0	32660	
4681	0	30988	
4682	0	29664	
4683	0	28608	
4684	0	27634	
4685	0	26728	
4686	0	25908	
4687	0	25112	
4688	0	24288	
4689	0	23740	
4690	0	23482	
4691	0	23520	
4692	0	23662	
4693	0	23866	
4694	0	24028	
4695	0	24128	
4696	0	24168	
4697	0	24320	
4698	0	24698	
4699	0	25172	
4700	0	25652	
4701	0	26160	
4702	0	26620	
4703	0	27008	
4704	0	27364	
4705	0	27740	
4706	0	28088	
4707	0	28324	
4708	0	28492	
4709	0	28622	
4710	0	28760	
4711	0	28932	
4712	0	29044	
4713	0	29072	
4714	0	29088	
4715	0	29096	
4716	0	29152	
4717	0	29200	
4718	0	29288	
4719	0	29360	
4720	0	29320	
4721	0	29308	
4722	0	29270	
4723	0	29112	
4724	0	28952	
4725	0	28760	
4726	0	28680	
4727	0	28840	
4728	0	29112	
4729	0	29416	
4730	0	29672	
4731	0	29792	
4732	0	29870	
4733	0	29960	
4734	0	30044	
4735	0	30032	
4736	0	29956	
4737	0	29896	
4738	0	29870	
4739	0	29858	
4740	0	29908	
4741	0	30021	
4742	0	30172	
4743	0	30224	
4744	0	30248	
4745	0	30244	
4746	0	30202	
4747	0	30168	
4748	0	30188	
4749	0	30200	
4750	0	30220	
4751	0	30280	
4752	0	30276	
4753	0	30224	
4754	0	30056	
4755	0	29980	
4756	0	30088	
4757	0	30256	
4758	0	30428	
4759	0	30632	
4760	0	30808	
4761	0	30964	
4762	0	31112	
4763	0	31244	
4764	0	31280	
4765	0	31228	
4766	0	31189	
4767	0	31188	
4768	0	31180	
4769	0	31164	
4770	0	31160	
4771	0	31196	
4772	0	31316	
4773	0	31432	
4774	0	31560	
4775	0	31634	
4776	0	31669	
4777	0	31712	
4778	0	31836	
4779	0	31948	
4780	0	32036	
4781	0	32064	
4782	0	32106	
4783	0	32206	
4784	0	32268	
4785	0	32280	
4786	0	32280	
4787	0	32236	
4788	0	32144	
4789	0	32112	
4790	0	32146	
4791	0	32192	
4792	0	32298	
4793	0	32444	
4794	0	32580	
4795	0	32708	
4796	0	32752	
4797	0	32736	
4798	0	32716	
4799	0	32736	
4800	0	32864	
4801	0	32960	
4802	0	33044	
4803	0	33096	
4804	0	33196	
4805	0	33304	
4806	0	33356	
4807	0	33392	
4808	0	33434	
4809	0	33480	
4810	0	33552	
4811	0	33648	
4812	0	33712	
4813	0	33720	
4814	0	33696	
4815	0	33728	
4816	0	33860	
4817	0	33944	
4818	0	34016	
4819	0	34056	
4820	0	34144	
4821	0	34232	
4822	0	34312	
4823	0	34468	
4824	0	34668	
4825	0	34832	
4826	0	35004	
4827	0	35212	
4828	0	35336	
4829	0	35424	
4830	0	35480	
4831	0	35504	
4832	0	35538	
4833	0	35572	
4834	0	35612	
4835	0	35672	
4836	0	35706	
4837	0	35728	
4838	0	35748	
4839	0	35780	
4840	0	35852	
4841	0	35896	
4842	0	36004	
4843	0	36128	
4844	0	36300	
4845	0	36408	
4846	0	36456	
4847	0	36508	
4848	0	36608	
4849	0	36714	
4850	0	36816	
4851	0	36940	
4852	0	37092	
4853	0	37240	
4854	0	37244	
4855	0	37248	
4856	0	37216	
4857	0	37238	
4858	0	37328	
4859	0	37408	
4860	0	37468	
4861	0	37456	
4862	0	37392	
4863	0	37284	
4864	0	37296	
4865	0	37360	
4866	0	37382	
4867	0	37412	
4868	0	37504	
4869	0	37552	
4870	0	37572	
4871	0	37476	
4872	0	37364	
4873	0	37320	
4874	0	37268	
4875	0	37104	
4876	0	36992	
4877	0	36940	
4878	0	36972	
4879	0	37052	
4880	0	37108	
4881	0	37096	
4882	0	37000	
4883	0	36904	
4884	0	36880	
4885	0	36888	
4886	0	36848	
4887	0	36748	
4888	0	36624	
4889	0	36544	
4890	0	36420	
4891	0	36328	
4892	0	36320	
4893	0	36328	
4894	0	36328	
4895	0	36220	
4896	0	36020	
4897	0	35824	
4898	0	35668	
4899	0	35568	
4900	0	35452	
4901	0	35272	
4902	0	35086	
4903	0	34920	
4904	0	34820	
4905	0	34692	
4906	0	34528	
4907	0	34416	
4908	0	34272	
4909	0	34080	
4910	0	33892	
4911	0	33704	
4912	0	33448	
4913	0	33250	
4914	0	33072	
4915	0	32864	
4916	0	32640	
4917	0	32424	
4918	0	32280	
4919	0	32180	
4920	0	32024	
4921	0	31800	
4922	0	31664	
4923	0	31528	
4924	0	31360	
4925	0	31168	
4926	0	31068	
4927	0	30960	
4928	0	30860	
4929	0	30738	
4930	0	30600	
4931	0	30464	
4932	0	30334	
4933	0	30216	
4934	0	30112	
4935	0	30040	
4936	0	29968	
4937	0	29848	
4938	0	29752	
4939	0	29712	
4940	0	29728	
4941	0	29760	
4942	0	29714	
4943	0	29588	
4944	0	29472	
4945	0	29368	
4946	0	29280	
4947	0	29252	
4948	0	29204	
4949	0	29148	
4950	0	29136	
4951	0	29156	
4952	0	29180	
4953	0	29140	
4954	0	29092	
4955	0	29112	
4956	0	29092	
4957	0	29064	
4958	0	29028	
4959	0	29040	
4960	0	29076	
4961	0	29092	
4962	0	29084	
4963	0	29100	
4964	0	29116	
4965	0	29072	
4966	0	29076	
4967	0	29108	
4968	0	29192	
4969	0	29242	
4970	0	29248	
4971	0	29212	
4972	0	29216	
4973	0	29208	
4974	0	29168	
4975	0	29168	
4976	0	29192	
4977	0	29248	
4978	0	29324	
4979	0	29480	
4980	0	29576	
4981	0	29600	
4982	0	29624	
4983	0	29676	
4984	0	29656	
4985	0	29656	
4986	0	29648	
4987	0	29712	
4988	0	29804	
4989	0	29912	
4990	0	30000	
4991	0	30028	
4992	0	30008	
4993	0	29976	
4994	0	29952	
4995	0	30024	
4996	0	30100	
4997	0	30124	
4998	0	30160	
4999	0	30208	
5000	0	30276	
5001	0	30340	
5002	0	30380	
5003	0	30480	
5004	0	30564	
5005	0	30600	
5006	0	30546	
5007	0	30512	
5008	0	30564	
5009	0	30624	
5010	0	30684	
5011	0	30688	
5012	0	30732	
5013	0	30760	
5014	0	30784	
5015	0	30816	
5016	0	30860	
5017	0	30932	
5018	0	30988	
5019	0	31048	
5020	0	31128	
5021	0	31200	
5022	0	31216	
5023	0	31240	
5024	0	31216	
5025	0	31196	
5026	0	31216	
5027	0	31284	
5028	0	31360	
5029	0	31356	
5030	0	31368	
5031	0	31432	
5032	0	31536	
5033	0	31696	
5034	0	31812	
5035	0	31904	
5036	0	31960	
5037	0	32040	
5038	0	32060	
5039	0	32036	
5040	0	32076	
5041	0	32108	
5042	0	32124	
5043	0	32152	
5044	0	32128	
5045	0	32120	
5046	0	32172	
5047	0	32184	
5048	0	32144	
5049	0	32176	
5050	0	32184	
5051	0	32116	
5052	0	32052	
5053	0	32042	
5054	0	32100	
5055	0	32144	
5056	0	32216	
5057	0	32272	
5058	0	32336	
5059	0	32360	
5060	0	32392	
5061	0	32436	
5062	0	32444	
5063	0	32448	
5064	0	32428	
5065	0	32420	
5066	0	32460	
5067	0	32548	
5068	0	32604	
5069	0	32592	
5070	0	32564	
5071	0	32520	
5072	0	32464	
5073	0	32460	
5074	0	32480	
5075	0	32496	
5076	0	32488	
5077	0	32524	
5078	0	32544	
5079	0	32560	
5080	0	32544	
5081	0	32492	
5082	0	32496	
5083	0	32496	
5084	0	32500	
5085	0	32512	
5086	0	32532	
5087	0	32568	
5088	0	32576	
5089	0	32572	
5090	0	32540	
5091	0	32500	
5092	0	32480	
5093	0	32464	
5094	0	32452	
5095	0	32476	
5096	0	32524	
5097	0	32556	
5098	0	32528	
5099	0	32500	
5100	0	32472	
5101	0	32440	
5102	0	32448	
5103	0	32468	
5104	0	32480	
5105	0	32456	
5106	0	32420	
5107	0	32392	
5108	0	32324	
5109	0	32260	
5110	0	32292	
5111	0	32300	
5112	0	32280	
5113	0	32292	
5114	0	32356	
5115	0	32392	
5116	0	32376	
5117	0	32340	
5118	0	32280	
5119	0	32264	
5120	0	32236	
5121	0	32224	
5122	0	32220	
5123	0	32208	
5124	0	32224	
5125	0	32248	
5126	0	32278	
5127	0	32308	
5128	0	32322	
5129	0	32314	
5130	0	32268	
5131	0	32206	
5132	0	32196	
5133	0	32188	
5134	0	32168	
5135	0	32192	
5136	0	32216	
5137	0	32220	
5138	0	32228	
5139	0	32212	
5140	0	32204	
5141	0	32234	
5142	0	32232	
5143	0	32208	
5144	0	32184	
5145	0	32188	
5146	0	32242	
5147	0	32364	
5148	0	32380	
5149	0	32380	
5150	0	32348	
5151	0	32332	
5152	0	32312	
5153	0	32280	
5154	0	32264	
5155	0	32296	
5156	0	32272	
5157	0	32256	
5158	0	32300	
5159	0	32364	
5160	0	32368	
5161	0	32404	
5162	0	32428	
5163	0	32460	
5164	0	32464	
5165	0	32412	
5166	0	32376	
5167	0	32388	
5168	0	32432	
5169	0	32418	
5170	0	32400	
5171	0	32376	
5172	0	32354	
5173	0	32352	
5174	0	32330	
5175	0	32348	
5176	0	32380	
5177	0	32448	
5178	0	32484	
5179	0	32524	
5180	0	32544	
5181	0	32564	
5182	0	32564	
5183	0	32580	
5184	0	32732	
5185	0	32856	
5186	0	32942	
5187	0	33056	
5188	0	33208	
5189	0	33352	
5190	0	33408	
5191	0	33448	
5192	0	33488	
5193	0	33508	
5194	0	33564	
5195	0	33592	
5196	0	33562	
5197	0	33496	
5198	0	33392	
5199	0	33326	
5200	0	33312	
5201	0	33338	
5202	0	33404	
5203	0	33472	
5204	0	33516	
5205	0	33580	
5206	0	33642	
5207	0	33708	
5208	0	33800	
5209	0	33988	
5210	0	34212	
5211	0	34468	
5212	0	34736	
5213	0	34912	
5214	0	34960	
5215	0	34956	
5216	0	34968	
5217	0	35008	
5218	0	35080	
5219	0	35168	
5220	0	35206	
5221	0	35104	
5222	0	34984	
5223	0	34936	
5224	0	34844	
5225	0	34720	
5226	0	34628	
5227	0	34564	
5228	0	34440	
5229	0	34240	
5230	0	34028	
5231	0	33836	
5232	0	33708	
5233	0	33592	
5234	0	33484	
5235	0	33312	
5236	0	33168	
5237	0	33056	
5238	0	32984	
5239	0	32876	
5240	0	32780	
5241	0	32780	
5242	0	32764	
5243	0	32772	
5244	0	32676	
5245	0	32548	
5246	0	32504	
5247	0	32464	
5248	0	32388	
5249	0	32288	
5250	0	32212	
5251	0	32172	
5252	0	32096	
5253	0	32084	
5254	0	32064	
5255	0	32016	
5256	0	31856	
5257	0	31684	
5258	0	31592	
5259	0	31496	
5260	0	31324	
5261	0	31196	
5262	0	31088	
5263	0	31048	
5264	0	31066	
5265	0	31100	
5266	0	31064	
5267	0	31092	
5268	0	31112	
5269	0	31124	
5270	0	31132	
5271	0	31128	
5272	0	31152	
5273	0	31188	
5274	0	31234	
5275	0	31236	
5276	0	31172	
5277	0	31156	
5278	0	31176	
5279	0	31168	
5280	0	31168	
5281	0	31172	
5282	0	31164	
5283	0	31184	
5284	0	31194	
5285	0	31212	
5286	0	31216	
5287	0	31236	
5288	0	31272	
5289	0	31304	
5290	0	31340	
5291	0	31396	
5292	0	31444	
5293	0	31488	
5294	0	31528	
5295	0	31576	
5296	0	31588	
5297	0	31566	
5298	0	31616	
5299	0	31664	
5300	0	31684	
5301	0	31714	
5302	0	31736	
5303	0	31800	
5304	0	31808	
5305	0	31716	
5306	0	31572	
5307	0	31424	
5308	0	31192	
5309	0	30774	
5310	0	30196	
5311	0	29532	
5312	0	28996	
5313	0	28676	
5314	0	28576	
5315	0	28696	
5316	0	29000	
5317	0	29492	
5318	0	30144	
5319	0	31016	
5320	0	32060	
5321	0	33176	
5322	0	34376	
5323	0	35888	
5324	0	37572	
5325	0	39514	
5326	0	41724	
5327	0	44220	
5328	0	47252	
5329	0	50872	
5330	0	54700	
5331	0	58380	
5332	0	61352	
5333	0	63004	
5334	0	63832	
5335	0	64244	
5336	0	64392	
5337	0	64416	
5338	0	64376	
5339	0	64300	
5340	0	64200	
5341	0	64072	
5342	0	63976	
5343	0	63832	
5344	0	58048	
5345	0	51632	
5346	0	46256	
5347	0	41868	
5348	0	38272	
5349	0	35360	
5350	0	32856	
5351	0	30608	
5352	0	28736	
5353	0	27372	
5354	0	26496	
5355	0	25852	
5356	0	25396	
5357	0	25188	
5358	0	25168	
5359	0	25260	
5360	0	25440	
5361	0	25730	
5362	0	26032	
5363	0	26224	
5364	0	26332	
5365	0	26420	
5366	0	26476	
5367	0	26640	
5368	0	26912	
5369	0	27172	
5370	0	27440	
5371	0	27720	
5372	0	27972	
5373	0	28208	
5374	0	28372	
5375	0	28512	
5376	0	28704	
5377	0	28804	
5378	0	28834	
5379	0	28872	
5380	0	28910	
5381	0	28876	
5382	0	28824	
5383	0	28792	
5384	0	28772	
5385	0	28788	
5386	0	28824	
5387	0	28840	
5388	0	28820	
5389	0	28810	
5390	0	28798	
5391	0	28796	
5392	0	28832	
5393	0	28864	
5394	0	28876	
5395	0	28884	
5396	0	28906	
5397	0	28960	
5398	0	29024	
5399	0	29016	
5400	0	29012	
5401	0	29100	
5402	0	29188	
5403	0	29264	
5404	0	29332	
5405	0	29396	
5406	0	29472	
5407	0	29516	
5408	0	29572	
5409	0	29640	
5410	0	29662	
5411	0	29712	
5412	0	29712	
5413	0	29732	
5414	0	29824	
5415	0	29876	
5416	0	29904	
5417	0	29898	
5418	0	29920	
5419	0	30000	
5420	0	30108	
5421	0	30160	
5422	0	30172	
5423	0	30188	
5424	0	30212	
5425	0	30240	
5426	0	30284	
5427	0	30324	
5428	0	30425	
5429	0	30524	
5430	0	30616	
5431	0	30686	
5432	0	30692	
5433	0	30700	
5434	0	30756	
5435	0	30806	
5436	0	30858	
5437	0	30884	
5438	0	30938	
5439	0	31020	
5440	0	31112	
5441	0	31188	
5442	0	31248	
5443	0	31316	
5444	0	31356	
5445	0	31392	
5446	0	31448	
5447	0	31492	
5448	0	31508	
5449	0	31552	
5450	0	31588	
5451	0	31600	
5452	0	31640	
5453	0	31688	
5454	0	31768	
5455	0	31870	
5456	0	31932	
5457	0	31912	
5458	0	31840	
5459	0	31792	
5460	0	31788	
5461	0	31800	
5462	0	31874	
5463	0	31962	
5464	0	32032	
5465	0	32080	
5466	0	32146	
5467	0	32224	
5468	0	32308	
5469	0	32380	
5470	0	32424	
5471	0	32488	
5472	0	32554	
5473	0	32612	
5474	0	32716	
5475	0	32816	
5476	0	32892	
5477	0	32956	
5478	0	33036	
5479	0	33048	
5480	0	33052	
5481	0	33096	
5482	0	33136	
5483	0	33180	
5484	0	33224	
5485	0	33264	
5486	0	33332	
5487	0	33372	
5488	0	33432	
5489	0	33524	
5490	0	33628	
5491	0	33668	
5492	0	33704	
5493	0	33770	
5494	0	33836	
5495	0	33876	
5496	0	33896	
5497	0	33900	
5498	0	33976	
5499	0	34148	
5500	0	34304	
5501	0	34408	
5502	0	34484	
5503	0	34608	
5504	0	34736	
5505	0	34816	
5506	0	34892	
5507	0	34932	
5508	0	35028	
5509	0	35116	
5510	0	35192	
5511	0	35272	
5512	0	35344	
5513	0	35416	
5514	0	35454	
5515	0	35484	
5516	0	35540	
5517	0	35624	
5518	0	35688	
5519	0	35780	
5520	0	35852	
5521	0	35860	
5522	0	35872	
5523	0	35912	
5524	0	35928	
5525	0	35928	
5526	0	35936	
5527	0	35956	
5528	0	35988	
5529	0	36060	
5530	0	36116	
5531	0	36128	
5532	0	36142	
5533	0	36180	
5534	0	36192	
5535	0	36180	
5536	0	36164	
5537	0	36164	
5538	0	36200	
5539	0	36252	
5540	0	36296	
5541	0	36308	
5542	0	36276	
5543	0	36228	
5544	0	36184	
5545	0	36128	
5546	0	36092	
5547	0	36048	
5548	0	36004	
5549	0	35940	
5550	0	35848	
5551	0	35776	
5552	0	35696	
5553	0	35632	
5554	0	35616	
5555	0	35612	
5556	0	35612	
5557	0	35560	
5558	0	35488	
5559	0	35420	
5560	0	35322	
5561	0	35268	
5562	0	35232	
5563	0	35196	
5564	0	35088	
5565	0	35016	
5566	0	34936	
5567	0	34836	
5568	0	34724	
5569	0	34532	
5570	0	34384	
5571	0	34240	
5572	0	34092	
5573	0	33916	
5574	0	33688	
5575	0	33436	
5576	0	33228	
5577	0	33076	
5578	0	32928	
5579	0	32812	
5580	0	32744	
5581	0	32608	
5582	0	32462	
5583	0	32336	
5584	0	32168	
5585	0	31980	
5586	0	31862	
5587	0	31765	
5588	0	31644	
5589	0	31480	
5590	0	31348	
5591	0	31164	
5592	0	30988	
5593	0	30864	
5594	0	30764	
5595	0	30676	
5596	0	30608	
5597	0	30592	
5598	0	30592	
5599	0	30516	
5600	0	30380	
5601	0	30264	
5602	0	30144	
5603	0	30040	
5604	0	29920	
5605	0	29796	
5606	0	29764	
5607	0	29696	
5608	0	29604	
5609	0	29592	
5610	0	29608	
5611	0	29644	
5612	0	29620	
5613	0	29540	
5614	0	29480	
5615	0	29408	
5616	0	29340	
5617	0	29314	
5618	0	29320	
5619	0	29276	
5620	0	29248	
5621	0	29224	
5622	0	29220	
5623	0	29268	
5624	0	29308	
5625	0	29360	
5626	0	29396	
5627	0	29432	
5628	0	29400	
5629	0	29376	
5630	0	29384	
5631	0	29352	
5632	0	29316	
5633	0	29316	
5634	0	29300	
5635	0	29320	
5636	0	29356	
5637	0	29376	
5638	0	29412	
5639	0	29444	
5640	0	29468	
5641	0	29496	
5642	0	29540	
5643	0	29568	
5644	0	29633	
5645	0	29688	
5646	0	29700	
5647	0	29712	
5648	0	29752	
5649	0	29772	
5650	0	29780	
5651	0	29824	
5652	0	29870	
5653	0	29904	
5654	0	29966	
5655	0	30080	
5656	0	30164	
5657	0	30200	
5658	0	30248	
5659	0	30320	
5660	0	30412	
5661	0	30468	
5662	0	30434	
5663	0	30380	
5664	0	30300	
5665	0	30280	
5666	0	30284	
5667	0	30324	
5668	0	30344	
5669	0	30396	
5670	0	30456	
5671	0	30504	
5672	0	30508	
5673	0	30496	
5674	0	30512	
5675	0	30548	
5676	0	30562	
5677	0	30596	
5678	0	30686	
5679	0	30760	
5680	0	30766	
5681	0	30752	
5682	0	30796	
5683	0	30804	
5684	0	30856	
5685	0	30896	
5686	0	30948	
5687	0	31010	
5688	0	31060	
5689	0	31028	
5690	0	30992	
5691	0	31040	
5692	0	31096	
5693	0	31096	
5694	0	31104	
5695	0	31114	
5696	0	31144	
5697	0	31156	
5698	0	31148	
5699	0	31152	
5700	0	31180	
5701	0	31252	
5702	0	31316	
5703	0	31360	
5704	0	31416	
5705	0	31440	
5706	0	31424	
5707	0	31432	
5708	0	31448	
5709	0	31456	
5710	0	31426	
5711	0	31440	
5712	0	31472	
5713	0	31500	
5714	0	31456	
5715	0	31384	
5716	0	31356	
5717	0	31364	
5718	0	31408	
5719	0	31468	
5720	0	31576	
5721	0	31616	
5722	0	31584	
5723	0	31552	
5724	0	31560	
5725	0	31592	
5726	0	31624	
5727	0	31688	
5728	0	31704	
5729	0	31670	
5730	0	31656	
5731	0	31736	
5732	0	31834	
5733	0	31840	
5734	0	31800	
5735	0	31712	
5736	0	31704	
5737	0	31728	
5738	0	31748	
5739	0	31752	
5740	0	31764	
5741	0	31756	
5742	0	31772	
5743	0	31820	
5744	0	31840	
5745	0	31824	
5746	0	31840	
5747	0	31856	
5748	0	31832	
5749	0	31812	
5750	0	31812	
5751	0	31840	
5752	0	31832	
5753	0	31808	
5754	0	31792	
5755	0	31776	
5756	0	31800	
5757	0	31820	
5758	0	31852	
5759	0	31836	
5760	0	31812	
5761	0	31836	
5762	0	31884	
5763	0	31912	
5764	0	31944	
5765	0	31964	
5766	0	31996	
5767	0	31976	
5768	0	31932	
5769	0	31904	
5770	0	31864	
5771	0	31844	
5772	0	31808	
5773	0	31820	
5774	0	31780	
5775	0	31736	
5776	0	31752	
5777	0	31802	
5778	0	31828	
5779	0	31864	
5780	0	31912	
5781	0	31932	
5782	0	31914	
5783	0	31868	
5784	0	31812	
5785	0	31802	
5786	0	31840	
5787	0	31876	
5788	0	31912	
5789	0	31926	
5790	0	31916	
5791	0	31868	
5792	0	31896	
5793	0	31918	
5794	0	31924	
5795	0	31960	
5796	0	31968	
5797	0	31954	
5798	0	31956	
5799	0	31976	
5800	0	32032	
5801	0	32106	
5802	0	32148	
5803	0	32176	
5804	0	32252	
5805	0	32312	
5806	0	32432	
5807	0	32554	
5808	0	32592	
5809	0	32608	
5810	0	32644	
5811	0	32612	
5812	0	32628	
5813	0	32692	
5814	0	32780	
5815	0	32812	
5816	0	32910	
5817	0	33016	
5818	0	33004	
5819	0	32952	
5820	0	32928	
5821	0	32836	
5822	0	32736	
5823	0	32684	
5824	0	32668	
5825	0	32712	
5826	0	32792	
5827	0	32864	
5828	0	32916	
5829	0	33000	
5830	0	33104	
5831	0	33244	
5832	0	33480	
5833	0	33770	
5834	0	34056	
5835	0	34312	
5836	0	34500	
5837	0	34692	
5838	0	34900	
5839	0	35104	
5840	0	35272	
5841	0	35412	
5842	0	35504	
5843	0	35476	
5844	0	35372	
5845	0	35244	
5846	0	35092	
5847	0	34932	
5848	0	34828	
5849	0	34736	
5850	0	34656	
5851	0	34528	
5852	0	34352	
5853	0	34172	
5854	0	34076	
5855	0	34032	
5856	0	33960	
5857	0	33856	
5858	0	33692	
5859	0	33476	
5860	0	33268	
5861	0	33128	
5862	0	32980	
5863	0	32896	
5864	0	32868	
5865	0	32804	
5866	0	32692	
5867	0	32580	
5868	0	32424	
5869	0	32332	
5870	0	32264	
5871	0	32228	
5872	0	32160	
5873	0	32104	
5874	0	32022	
5875	0	31964	
5876	0	31904	
5877	0	31812	
5878	0	31696	
5879	0	31572	
5880	0	31416	
5881	0	31280	
5882	0	31184	
5883	0	31142	
5884	0	31104	
5885	0	31044	
5886	0	31044	
5887	0	31072	
5888	0	31088	
5889	0	31080	
5890	0	31048	
5891	0	31000	
5892	0	30984	
5893	0	30996	
5894	0	31034	
5895	0	31048	
5896	0	31056	
5897	0	31016	
5898	0	31032	
5899	0	31048	
5900	0	31104	
5901	0	31156	
5902	0	31154	
5903	0	31144	
5904	0	31122	
5905	0	31104	
5906	0	31100	
5907	0	31132	
5908	0	31192	
5909	0	31272	
5910	0	31292	
5911	0	31288	
5912	0	31296	
5913	0	31300	
5914	0	31308	
5915	0	31300	
5916	0	31340	
5917	0	31380	
5918	0	31409	
5919	0	31456	
5920	0	31492	
5921	0	31512	
5922	0	31548	
5923	0	31564	
5924	0	31540	
5925	0	31524	
5926	0	31504	
5927	0	31516	
5928	0	31466	
5929	0	31348	
5930	0	31136	
5931	0	30872	
5932	0	30484	
5933	0	29920	
5934	0	29270	
5935	0	28737	
5936	0	28393	
5937	0	28308	
5938	0	28376	
5939	0	28620	
5940	0	29056	
5941	0	29740	
5942	0	30620	
5943	0	31680	
5944	0	32876	
5945	0	34296	
5946	0	35964	
5947	0	37824	
5948	0	40000	
5949	0	42472	
5950	0	45200	
5951	0	48444	
5952	0	52248	
5953	0	56208	
5954	0	59944	
5955	0	62468	
5956	0	63816	
5957	0	64500	
5958	0	64796	
5959	0	64904	
5960	0	64896	
5961	0	64832	
5962	0	64740	
5963	0	64636	
5964	0	64528	
5965	0	64388	
5966	0	64260	
5967	0	57920	
5968	0	51556	
5969	0	46298	
5970	0	41960	
5971	0	38428	
5972	0	35512	
5973	0	32936	
5974	0	30704	
5975	0	28880	
5976	0	27676	
5977	0	26920	
5978	0	26396	
5979	0	26080	
5980	0	25916	
5981	0	25884	
5982	0	25844	
5983	0	25914	
5984	0	26152	
5985	0	26330	
5986	0	26400	
5987	0	26432	
5988	0	26482	
5989	0	26628	
5990	0	26800	
5991	0	27016	
5992	0	27292	
5993	0	27588	
5994	0	27840	
5995	0	28068	
5996	0	28236	
5997	0	28396	
5998	0	28552	
5999	0	28628	
6000	0	28656	
6001	0	28680	
6002	0	28676	
6003	0	28640	
6004	0	28636	
6005	0	28636	
6006	0	28660	
6007	0	28666	
6008	0	28704	
6009	0	28706	
6010	0	28712	
6011	0	28750	
6012	0	28784	
6013	0	28808	
6014	0	28812	
6015	0	28828	
6016	0	28868	
6017	0	28952	
6018	0	28994	
6019	0	28996	
6020	0	29016	
6021	0	29066	
6022	0	29116	
6023	0	29160	
6024	0	29228	
6025	0	29262	
6026	0	29300	
6027	0	29350	
6028	0	29400	
6029	0	29476	
6030	0	29500	
6031	0	29496	
6032	0	29490	
6033	0	29532	
6034	0	29572	
6035	0	29610	
6036	0	29620	
6037	0	29700	
6038	0	29776	
6039	0	29840	
6040	0	29896	
6041	0	29956	
6042	0	30040	
6043	0	30128	
6044	0	30176	
6045	0	30188	
6046	0	30192	
6047	0	30216	
6048	0	30272	
6049	0	30352	
6050	0	30392	
6051	0	30428	
6052	0	30460	
6053	0	30508	
6054	0	30532	
6055	0	30602	
6056	0	30736	
6057	0	30856	
6058	0	30956	
6059	0	30992	
6060	0	31024	
6061	0	31086	
6062	0	31148	
6063	0	31168	
6064	0	31200	
6065	0	31248	
6066	0	31300	
6067	0	31314	
6068	0	31356	
6069	0	31388	
6070	0	31408	
6071	0	31480	
6072	0	31564	
6073	0	31616	
6074	0	31640	
6075	0	31656	
6076	0	31618	
6077	0	31608	
6078	0	31652	
6079	0	31714	
6080	0	31780	
6081	0	31864	
6082	0	31944	
6083	0	32052	
6084	0	32120	
6085	0	32172	
6086	0	32220	
6087	0	32296	
6088	0	32392	
6089	0	32468	
6090	0	32500	
6091	0	32544	
6092	0	32606	
6093	0	32620	
6094	0	32636	
6095	0	32700	
6096	0	32724	
6097	0	32724	
6098	0	32756	
6099	0	32816	
6100	0	32872	
6101	0	32960	
6102	0	33058	
6103	0	33152	
6104	0	33232	
6105	0	33312	
6106	0	33412	
6107	0	33568	
6108	0	33688	
6109	0	33788	
6110	0	33812	
6111	0	33808	
6112	0	33824	
6113	0	33876	
6114	0	33952	
6115	0	34042	
6116	0	34136	
6117	0	34136	
6118	0	34128	
6119	0	34144	
6120	0	34172	
6121	0	34220	
6122	0	34308	
6123	0	34432	
6124	0	34544	
6125	0	34644	
6126	0	34748	
6127	0	34840	
6128	0	34928	
6129	0	35028	
6130	0	35140	
6131	0	35208	
6132	0	35276	
6133	0	35356	
6134	0	35444	
6135	0	35560	
6136	0	35660	
6137	0	35732	
6138	0	35752	
6139	0	35824	
6140	0	35912	
6141	0	36032	
6142	0	36156	
6143	0	36160	
6144	0	36108	
6145	0	36100	
6146	0	36116	
6147	0	36168	
6148	0	36252	
6149	0	36308	
6150	0	36352	
6151	0	36372	
6152	0	36364	
6153	0	36272	
6154	0	36180	
6155	0	36204	
6156	0	36240	
6157	0	36264	
6158	0	36284	
6159	0	36284	
6160	0	36292	
6161	0	36312	
6162	0	36288	
6163	0	36284	
6164	0	36264	
6165	0	36240	
6166	0	36204	
6167	0	36180	
6168	0	36148	
6169	0	36116	
6170	0	36088	
6171	0	36052	
6172	0	36040	
6173	0	36016	
6174	0	36005	
6175	0	35964	
6176	0	35920	
6177	0	35820	
6178	0	35712	
6179	0	35600	
6180	0	35464	
6181	0	35348	
6182	0	35272	
6183	0	35180	
6184	0	35112	
6185	0	35002	
6186	0	34888	
6187	0	34784	
6188	0	34680	
6189	0	34578	
6190	0	34464	
6191	0	34344	
6192	0	34256	
6193	0	34152	
6194	0	33996	
6195	0	33824	
6196	0	33666	
6197	0	33520	
6198	0	33396	
6199	0	33276	
6200	0	33088	
6201	0	32928	
6202	0	32768	
6203	0	32576	
6204	0	32370	
6205	0	32138	
6206	0	31898	
6207	0	31740	
6208	0	31648	
6209	0	31522	
6210	0	31372	
6211	0	31192	
6212	0	31036	
6213	0	30908	
6214	0	30822	
6215	0	30696	
6216	0	30548	
6217	0	30430	
6218	0	30360	
6219	0	30296	
6220	0	30248	
6221	0	30220	
6222	0	30216	
6223	0	30188	
6224	0	30080	
6225	0	29948	
6226	0	29876	
6227	0	29778	
6228	0	29680	
6229	0	29656	
6230	0	29636	
6231	0	29608	
6232	0	29536	
6233	0	29474	
6234	0	29446	
6235	0	29460	
6236	0	29440	
6237	0	29402	
6238	0	29368	
6239	0	29340	
6240	0	29316	
6241	0	29318	
6242	0	29332	
6243	0	29348	
6244	0	29344	
6245	0	29376	
6246	0	29408	
6247	0	29396	
6248	0	29344	
6249	0	29322	
6250	0	29304	
6251	0	29316	
6252	0	29284	
6253	0	29280	
6254	0	29240	
6255	0	29260	
6256	0	29312	
6257	0	29344	
6258	0	29380	
6259	0	29420	
6260	0	29448	
6261	0	29516	
6262	0	29570	
6263	0	29572	
6264	0	29564	
6265	0	29596	
6266	0	29596	
6267	0	29550	
6268	0	29532	
6269	0	29540	
6270	0	29560	
6271	0	29576	
6272	0	29602	
6273	0	29696	
6274	0	29820	
6275	0	29888	
6276	0	29960	
6277	0	29988	
6278	0	30028	
6279	0	30016	
6280	0	30036	
6281	0	30092	
6282	0	30116	
6283	0	30104	
6284	0	30144	
6285	0	30160	
6286	0	30184	
6287	0	30232	
6288	0	30308	
6289	0	30396	
6290	0	30504	
6291	0	30580	
6292	0	30636	
6293	0	30656	
6294	0	30696	
6295	0	30720	
6296	0	30760	
6297	0	30812	
6298	0	30872	
6299	0	30906	
6300	0	30900	
6301	0	30912	
6302	0	30984	
6303	0	31004	
6304	0	31032	
6305	0	31080	
6306	0	31128	
6307	0	31192	
6308	0	31232	
6309	0	31248	
6310	0	31208	
6311	0	31200	
6312	0	31220	
6313	0	31272	
6314	0	31304	
6315	0	31322	
6316	0	31348	
6317	0	31384	
6318	0	31428	
6319	0	31420	
6320	0	31424	
6321	0	31444	
6322	0	31474	
6323	0	31480	
6324	0	31496	
6325	0	31516	
6326	0	31552	
6327	0	31572	
6328	0	31554	
6329	0	31540	
6330	0	31572	
6331	0	31640	
6332	0	31660	
6333	0	31664	
6334	0	31700	
6335	0	31712	
6336	0	31688	
6337	0	31664	
6338	0	31668	
6339	0	31688	
6340	0	31732	
6341	0	31792	
6342	0	31840	
6343	0	31876	
6344	0	31888	
6345	0	31908	
6346	0	31956	
6347	0	31992	
6348	0	32032	
6349	0	32116	
6350	0	32128	
6351	0	32088	
6352	0	31996	
6353	0	31940	
6354	0	31912	
6355	0	31968	
6356	0	32040	
6357	0	32072	
6358	0	32050	
6359	0	32024	
6360	0	31960	
6361	0	31934	
6362	0	31954	
6363	0	31952	
6364	0	31944	
6365	0	31944	
6366	0	31952	
6367	0	31976	
6368	0	32040	
6369	0	32088	
6370	0	32160	
6371	0	32200	
6372	0	32232	
6373	0	32224	
6374	0	32216	
6375	0	32226	
6376	0	32260	
6377	0	32244	
6378	0	32244	
6379	0	32272	
6380	0	32288	
6381	0	32292	
6382	0	32272	
6383	0	32268	
6384	0	32288	
6385	0	32284	
6386	0	32240	
6387	0	32208	
6388	0	32152	
6389	0	32152	
6390	0	32148	
6391	0	32142	
6392	0	32148	
6393	0	32184	
6394	0	32220	
6395	0	32220	
6396	0	32212	
6397	0	32186	
6398	0	32168	
6399	0	32164	
6400	0	32164	
6401	0	32164	
6402	0	32172	
6403	0	32198	
6404	0	32228	
6405	0	32216	
6406	0	32152	
6407	0	32110	
6408	0	32076	
6409	0	32084	
6410	0	32064	
6411	0	32072	
6412	0	32088	
6413	0	32052	
6414	0	32096	
6415	0	32168	
6416	0	32238	
6417	0	32256	
6418	0	32272	
6419	0	32344	
6420	0	32448	
6421	0	32536	
6422	0	32556	
6423	0	32592	
6424	0	32704	
6425	0	32844	
6426	0	32972	
6427	0	33084	
6428	0	33090	
6429	0	33072	
6430	0	33108	
6431	0	33200	
6432	0	33244	
6433	0	33228	
6434	0	33184	
6435	0	33106	
6436	0	32920	
6437	0	32800	
6438	0	32752	
6439	0	32760	
6440	0	32816	
6441	0	32894	
6442	0	32968	
6443	0	33064	
6444	0	33152	
6445	0	33344	
6446	0	33652	
6447	0	33956	
6448	0	34160	
6449	0	34336	
6450	0	34552	
6451	0	34816	
6452	0	35074	
6453	0	35280	
6454	0	35400	
6455	0	35492	
6456	0	35520	
6457	0	35480	
6458	0	35352	
6459	0	35200	
6460	0	35092	
6461	0	35036	
6462	0	34952	
6463	0	34876	
6464	0	34752	
6465	0	34540	
6466	0	34360	
6467	0	34268	
6468	0	34212	
6469	0	34104	
6470	0	33960	
6471	0	33784	
6472	0	33632	
6473	0	33464	
6474	0	33336	
6475	0	33228	
6476	0	33144	
6477	0	33080	
6478	0	33008	
6479	0	32912	
6480	0	32792	
6481	0	32664	
6482	0	32560	
6483	0	32512	
6484	0	32476	
6485	0	32404	
6486	0	32364	
6487	0	32280	
6488	0	32172	
6489	0	32080	
6490	0	31976	
6491	0	31808	
6492	0	31600	
6493	0	31380	
6494	0	31180	
6495	0	31104	
6496	0	31064	
6497	0	31052	
6498	0	31020	
6499	0	30992	
6500	0	30980	
6501	0	30956	
6502	0	30928	
6503	0	30936	
6504	0	31008	
6505	0	31076	
6506	0	31116	
6507	0	31152	
6508	0	31172	
6509	0	31180	
6510	0	31152	
6511	0	31130	
6512	0	31096	
6513	0	31092	
6514	0	31160	
6515	0	31204	
6516	0	31232	
6517	0	31274	
6518	0	31328	
6519	0	31356	
6520	0	31364	
6521	0	31408	
6522	0	31400	
6523	0	31400	
6524	0	31380	
6525	0	31384	
6526	0	31388	
6527	0	31436	
6528	0	31492	
6529	0	31536	
6530	0	31592	
6531	0	31584	
6532	0	31552	
6533	0	31576	
6534	0	31586	
6535	0	31596	
6536	0	31652	
6537	0	31700	
6538	0	31712	
6539	0	31648	
6540	0	31600	
6541	0	31592	
6542	0	31532	
6543	0	31364	
6544	0	31040	
6545	0	30580	
6546	0	29956	
6547	0	29188	
6548	0	28520	
6549	0	28114	
6550	0	27818	
6551	0	27704	
6552	0	27732	
6553	0	27932	
6554	0	28328	
6555	0	29104	
6556	0	30036	
6557	0	31106	
6558	0	32416	
6559	0	33886	
6560	0	35544	
6561	0	37520	
6562	0	39930	
6563	0	42612	
6564	0	45740	
6565	0	49440	
6566	0	53320	
6567	0	57104	
6568	0	60628	
6569	0	62920	
6570	0	64144	
6571	0	64740	
6572	0	65024	
6573	0	65108	
6574	0	65088	
6575	0	65024	
6576	0	64920	
6577	0	64808	
6578	0	64680	
6579	0	64560	
6580	0	60880	
6581	0	54532	
6582	0	49368	
6583	0	45112	
6584	0	41596	
6585	0	38636	
6586	0	36000	
6587	0	33648	
6588	0	31648	
6589	0	30092	
6590	0	29000	
6591	0	28168	
6592	0	27612	
6593	0	27256	
6594	0	27052	
6595	0	26900	
6596	0	26784	
6597	0	26860	
6598	0	27012	
6599	0	27096	
6600	0	27070	
6601	0	27048	
6602	0	27108	
6603	0	27244	
6604	0	27464	
6605	0	27776	
6606	0	28076	
6607	0	28356	
6608	0	28592	
6609	0	28708	
6610	0	28800	
6611	0	28896	
6612	0	28904	
6613	0	28864	
6614	0	28800	
6615	0	28768	
6616	0	28700	
6617	0	28604	
6618	0	28548	
6619	0	28568	
6620	0	28602	
6621	0	28640	
6622	0	28664	
6623	0	28716	
6624	0	28836	
6625	0	28936	
6626	0	29048	
6627	0	29100	
6628	0	29144	
6629	0	29168	
6630	0	29156	
6631	0	29156	
6632	0	29188	
6633	0	29220	
6634	0	29200	
6635	0	29152	
6636	0	29184	
6637	0	29216	
6638	0	29248	
6639	0	29332	
6640	0	29428	
6641	0	29516	
6642	0	29596	
6643	0	29668	
6644	0	29736	
6645	0	29780	
6646	0	29810	
6647	0	29844	
6648	0	29884	
6649	0	29952	
6650	0	29992	
6651	0	30032	
6652	0	30072	
6653	0	30116	
6654	0	30176	
6655	0	30228	
6656	0	30256	
6657	0	30280	
6658	0	30336	
6659	0	30408	
6660	0	30460	
6661	0	30520	
6662	0	30564	
6663	0	30578	
6664	0	30602	
6665	0	30632	
6666	0	30686	
6667	0	30706	
6668	0	30728	
6669	0	30776	
6670	0	30828	
6671	0	30854	
6672	0	30860	
6673	0	30908	
6674	0	31000	
6675	0	31112	
6676	0	31208	
6677	0	31296	
6678	0	31330	
6679	0	31344	
6680	0	31416	
6681	0	31508	
6682	0	31584	
6683	0	31664	
6684	0	31712	
6685	0	31752	
6686	0	31788	
6687	0	31808	
6688	0	31838	
6689	0	31900	
6690	0	32000	
6691	0	32064	
6692	0	32140	
6693	0	32224	
6694	0	32300	
6695	0	32344	
6696	0	32360	
6697	0	32408	
6698	0	32460	
6699	0	32488	
6700	0	32536	
6701	0	32568	
6702	0	32640	
6703	0	32720	
6704	0	32780	
6705	0	32838	
6706	0	32876	
6707	0	32948	
6708	0	32992	
6709	0	33016	
6710	0	33040	
6711	0	33090	
6712	0	33114	
6713	0	33132	
6714	0	33196	
6715	0	33268	
6716	0	33292	
6717	0	33352	
6718	0	33452	
6719	0	33536	
6720	0	33584	
6721	0	33636	
6722	0	33708	
6723	0	33820	
6724	0	33912	
6725	0	33992	
6726	0	34064	
6727	0	34132	
6728	0	34204	
6729	0	34264	
6730	0	34328	
6731	0	34388	
6732	0	34442	
6733	0	34496	
6734	0	34558	
6735	0	34608	
6736	0	34680	
6737	0	34744	
6738	0	34820	
6739	0	34900	
6740	0	34984	
6741	0	35074	
6742	0	35160	
6743	0	35228	
6744	0	35292	
6745	0	35384	
6746	0	35460	
6747	0	35560	
6748	0	35608	
6749	0	35664	
6750	0	35712	
6751	0	35752	
6752	0	35824	
6753	0	35884	
6754	0	35924	
6755	0	35952	
6756	0	36012	
6757	0	36024	
6758	0	36068	
6759	0	36136	
6760	0	36176	
6761	0	36200	
6762	0	36224	
6763	0	36224	
6764	0	36248	
6765	0	36260	
6766	0	36272	
6767	0	36300	
6768	0	36320	
6769	0	36312	
6770	0	36300	
6771	0	36284	
6772	0	36272	
6773	0	36256	
6774	0	36232	
6775	0	36204	
6776	0	36196	
6777	0	36208	
6778	0	36168	
6779	0	36084	
6780	0	36000	
6781	0	35928	
6782	0	35904	
6783	0	35880	
6784	0	35824	
6785	0	35764	
6786	0	35760	
6787	0	35752	
6788	0	35696	
6789	0	35648	
6790	0	35644	
6791	0	35664	
6792	0	35618	
6793	0	35512	
6794	0	35431	
6795	0	35360	
6796	0	35284	
6797	0	35228	
6798	0	35152	
6799	0	35096	
6800	0	34996	
6801	0	34812	
6802	0	34684	
6803	0	34592	
6804	0	34460	
6805	0	34310	
6806	0	34120	
6807	0	33916	
6808	0	33696	
6809	0	33480	
6810	0	33352	
6811	0	33274	
6812	0	33224	
6813	0	33150	
6814	0	33056	
6815	0	32912	
6816	0	32736	
6817	0	32600	
6818	0	32476	
6819	0	32352	
6820	0	32236	
6821	0	32110	
6822	0	31996	
6823	0	31872	
6824	0	31724	
6825	0	31580	
6826	0	31496	
6827	0	31396	
6828	0	31264	
6829	0	31104	
6830	0	30952	
6831	0	30792	
6832	0	30668	
6833	0	30568	
6834	0	30512	
6835	0	30464	
6836	0	30360	
6837	0	30276	
6838	0	30222	
6839	0	30144	
6840	0	30084	
6841	0	30048	
6842	0	30012	
6843	0	29972	
6844	0	29964	
6845	0	29948	
6846	0	29860	
6847	0	29800	
6848	0	29780	
6849	0	29716	
6850	0	29640	
6851	0	29614	
6852	0	29584	
6853	0	29544	
6854	0	29524	
6855	0	29552	
6856	0	29552	
6857	0	29528	
6858	0	29480	
6859	0	29460	
6860	0	29462	
6861	0	29480	
6862	0	29508	
6863	0	29516	
6864	0	29505	
6865	0	29504	
6866	0	29504	
6867	0	29560	
6868	0	29584	
6869	0	29580	
6870	0	29582	
6871	0	29572	
6872	0	29552	
6873	0	29580	
6874	0	29620	
6875	0	29620	
6876	0	29620	
6877	0	29682	
6878	0	29776	
6879	0	29824	
6880	0	29768	
6881	0	29736	
6882	0	29774	
6883	0	29842	
6884	0	29912	
6885	0	29944	
6886	0	29936	
6887	0	29976	
6888	0	30016	
6889	0	30032	
6890	0	30076	
6891	0	30124	
6892	0	30188	
6893	0	30220	
6894	0	30216	
6895	0	30256	
6896	0	30304	
6897	0	30372	
6898	0	30440	
6899	0	30536	
6900	0	30620	
6901	0	30680	
6902	0	30716	
6903	0	30764	
6904	0	30794	
6905	0	30808	
6906	0	30840	
6907	0	30848	
6908	0	30852	
6909	0	30864	
6910	0	30900	
6911	0	30908	
6912	0	30912	
6913	0	30960	
6914	0	31016	
6915	0	31056	
6916	0	31092	
6917	0	31116	
6918	0	31168	
6919	0	31240	
6920	0	31254	
6921	0	31252	
6922	0	31260	
6923	0	31280	
6924	0	31304	
6925	0	31372	
6926	0	31472	
6927	0	31516	
6928	0	31444	
6929	0	31384	
6930	0	31356	
6931	0	31394	
6932	0	31436	
6933	0	31464	
6934	0	31528	
6935	0	31588	
6936	0	31634	
6937	0	31648	
6938	0	31664	
6939	0	31728	
6940	0	31750	
6941	0	31776	
6942	0	31818	
6943	0	31852	
6944	0	31872	
6945	0	31888	
6946	0	31856	
6947	0	31848	
6948	0	31862	
6949	0	31880	
6950	0	31912	
6951	0	31960	
6952	0	32012	
6953	0	32056	
6954	0	32060	
6955	0	32046	
6956	0	32020	
6957	0	32016	
6958	0	32060	
6959	0	32106	
6960	0	32180	
6961	0	32204	
6962	0	32132	
6963	0	32060	
6964	0	32032	
6965	0	32036	
6966	0	32020	
6967	0	32000	
6968	0	32024	
6969	0	32056	
6970	0	32060	
6971	0	32084	
6972	0	32092	
6973	0	32122	
6974	0	32172	
6975	0	32176	
6976	0	32176	
6977	0	32132	
6978	0	32068	
6979	0	32048	
6980	0	32068	
6981	0	32100	
6982	0	32128	
6983	0	32144	
6984	0	32184	
6985	0	32216	
6986	0	32192	
6987	0	32172	
6988	0	32148	
6989	0	32076	
6990	0	32072	
6991	0	32096	
6992	0	32056	
6993	0	32024	
6994	0	32020	
6995	0	31972	
6996	0	31976	
6997	0	31988	
6998	0	31976	
6999	0	31980	
7000	0	31948	
7001	0	31972	
7002	0	32000	
7003	0	32048	
7004	0	32052	
7005	0	32004	
7006	0	32020	
7007	0	32044	
7008	0	32034	
7009	0	31968	
7010	0	31988	
7011	0	31980	
7012	0	31994	
7013	0	31996	
7014	0	31988	
7015	0	32004	
7016	0	31996	
7017	0	32026	
7018	0	32048	
7019	0	32092	
7020	0	32204	
7021	0	32288	
7022	0	32342	
7023	0	32408	
7024	0	32536	
7025	0	32700	
7026	0	32816	
7027	0	32892	
7028	0	32944	
7029	0	32940	
7030	0	32992	
7031	0	33064	
7032	0	33046	
7033	0	32988	
7034	0	32906	
7035	0	32854	
7036	0	32816	
7037	0	32746	
7038	0	32696	
7039	0	32616	
7040	0	32584	
7041	0	32560	
7042	0	32564	
7043	0	32604	
7044	0	32688	
7045	0	32876	
7046	0	33160	
7047	0	33468	
7048	0	33752	
7049	0	34000	
7050	0	34232	
7051	0	34444	
7052	0	34680	
7053	0	34912	
7054	0	35080	
7055	0	35184	
7056	0	35264	
7057	0	35284	
7058	0	35224	
7059	0	35108	
7060	0	34996	
7061	0	34920	
7062	0	34874	
7063	0	34785	
7064	0	34708	
7065	0	34576	
7066	0	34376	
7067	0	34196	
7068	0	34098	
7069	0	34028	
7070	0	33952	
7071	0	33816	
7072	0	33656	
7073	0	33508	
7074	0	33324	
7075	0	33188	
7076	0	33104	
7077	0	33056	
7078	0	32968	
7079	0	32884	
7080	0	32788	
7081	0	32656	
7082	0	32560	
7083	0	32500	
7084	0	32492	
7085	0	32388	
7086	0	32244	
7087	0	32128	
7088	0	32020	
7089	0	31908	
7090	0	31840	
7091	0	31764	
7092	0	31556	
7093	0	31360	
7094	0	31210	
7095	0	31144	
7096	0	31080	
7097	0	31000	
7098	0	30880	
7099	0	30816	
7100	0	30816	
7101	0	30830	
7102	0	30848	
7103	0	30876	
7104	0	30912	
7105	0	30944	
7106	0	31000	
7107	0	31020	
7108	0	31056	
7109	0	31044	
7110	0	30992	
7111	0	30970	
7112	0	31000	
7113	0	30976	
7114	0	30956	
7115	0	30894	
7116	0	30864	
7117	0	30908	
7118	0	30968	
7119	0	31020	
7120	0	31064	
7121	0	31120	
7122	0	31168	
7123	0	31172	
7124	0	31264	
7125	0	31320	
7126	0	31348	
7127	0	31356	
7128	0	31364	
7129	0	31348	
7130	0	31400	
7131	0	31440	
7132	0	31476	
7133	0	31456	
7134	0	31460	
7135	0	31472	
7136	0	31480	
7137	0	31500	
7138	0	31540	
7139	0	31528	
7140	0	31476	
7141	0	31460	
7142	0	31380	
7143	0	31170	
7144	0	30868	
7145	0	30408	
7146	0	29746	
7147	0	28916	
7148	0	28146	
7149	0	27580	
7150	0	27180	
7151	0	26900	
7152	0	26804	
7153	0	26888	
7154	0	27288	
7155	0	28004	
7156	0	28908	
7157	0	29844	
7158	0	30980	
7159	0	32424	
7160	0	34176	
7161	0	36168	
7162	0	38548	
7163	0	41368	
7164	0	44536	
7165	0	48304	
7166	0	52308	
7167	0	56180	
7168	0	59848	
7169	0	62528	
7170	0	63944	
7171	0	64660	
7172	0	64992	
7173	0	65120	
7174	0	65112	
7175	0	65056	
7176	0	64964	
7177	0	64856	
7178	0	64724	
7179	0	64608	
7180	0	59732	
7181	0	53688	
7182	0	48784	
7183	0	44764	
7184	0	41476	
7185	0	38704	
7186	0	36200	
7187	0	33908	
7188	0	31944	
7189	0	30368	
7190	0	29184	
7191	0	28256	
7192	0	27540	
7193	0	27010	
7194	0	26700	
7195	0	26516	
7196	0	26456	
7197	0	26464	
7198	0	26484	
7199	0	26564	
7200	0	26628	
7201	0	26672	
7202	0	26796	
7203	0	27036	
7204	0	27292	
7205	0	27524	
7206	0	27792	
7207	0	28036	
7208	0	28264	
7209	0	28516	
7210	0	28776	
7211	0	28868	
7212	0	28860	
7213	0	28924	
7214	0	28980	
7215	0	28972	
7216	0	28948	
7217	0	28936	
7218	0	28928	
7219	0	28920	
7220	0	28904	
7221	0	28912	
7222	0	28916	
7223	0	28960	
7224	0	29036	
7225	0	29084	
7226	0	29128	
7227	0	29168	
7228	0	29166	
7229	0	29176	
7230	0	29220	
7231	0	29268	
7232	0	29316	
7233	0	29308	
7234	0	29280	
7235	0	29280	
7236	0	29380	
7237	0	29448	
7238	0	29448	
7239	0	29472	
7240	0	29528	
7241	0	29554	
7242	0	29608	
7243	0	29664	
7244	0	29736	
7245	0	29788	
7246	0	29824	
7247	0	29856	
7248	0	29894	
7249	0	29952	
7250	0	30024	
7251	0	30076	
7252	0	30100	
7253	0	30108	
7254	0	30138	
7255	0	30170	
7256	0	30176	
7257	0	30176	
7258	0	30278	
7259	0	30386	
7260	0	30450	
7261	0	30496	
7262	0	30580	
7263	0	30704	
7264	0	30736	
7265	0	30716	
7266	0	30696	
7267	0	30672	
7268	0	30640	
7269	0	30674	
7270	0	30760	
7271	0	30840	
7272	0	30930	
7273	0	31016	
7274	0	31052	
7275	0	31108	
7276	0	31168	
7277	0	31216	
7278	0	31272	
7279	0	31316	
7280	0	31388	
7281	0	31460	
7282	0	31516	
7283	0	31616	
7284	0	31706	
7285	0	31750	
7286	0	31792	
7287	0	31832	
7288	0	31840	
7289	0	31858	
7290	0	31900	
7291	0	31996	
7292	0	32060	
7293	0	32116	
7294	0	32180	
7295	0	32244	
7296	0	32292	
7297	0	32360	
7298	0	32388	
7299	0	32478	
7300	0	32552	
7301	0	32570	
7302	0	32604	
7303	0	32652	
7304	0	32712	
7305	0	32764	
7306	0	32820	
7307	0	32884	
7308	0	32984	
7309	0	33036	
7310	0	33066	
7311	0	33092	
7312	0	33144	
7313	0	33260	
7314	0	33358	
7315	0	33428	
7316	0	33480	
7317	0	33564	
7318	0	33592	
7319	0	33596	
7320	0	33632	
7321	0	33756	
7322	0	33848	
7323	0	33936	
7324	0	34032	
7325	0	34128	
7326	0	34192	
7327	0	34250	
7328	0	34308	
7329	0	34344	
7330	0	34364	
7331	0	34396	
7332	0	34468	
7333	0	34556	
7334	0	34660	
7335	0	34764	
7336	0	34832	
7337	0	34864	
7338	0	34896	
7339	0	34988	
7340	0	35084	
7341	0	35148	
7342	0	35228	
7343	0	35292	
7344	0	35392	
7345	0	35440	
7346	0	35484	
7347	0	35520	
7348	0	35584	
7349	0	35656	
7350	0	35680	
7351	0	35732	
7352	0	35792	
7353	0	35828	
7354	0	35888	
7355	0	35948	
7356	0	36020	
7357	0	36028	
7358	0	36016	
7359	0	36028	
7360	0	36058	
7361	0	36104	
7362	0	36116	
7363	0	36124	
7364	0	36140	
7365	0	36152	
7366	0	36178	
7367	0	36184	
7368	0	36192	
7369	0	36098	
7370	0	35968	
7371	0	36008	
7372	0	36048	
7373	0	35984	
7374	0	35928	
7375	0	35936	
7376	0	35956	
7377	0	35956	
7378	0	35944	
7379	0	35932	
7380	0	35944	
7381	0	35976	
7382	0	35916	
7383	0	35864	
7384	0	35884	
7385	0	35876	
7386	0	35808	
7387	0	35688	
7388	0	35600	
7389	0	35484	
7390	0	35360	
7391	0	35264	
7392	0	35212	
7393	0	35168	
7394	0	35128	
7395	0	35034	
7396	0	34932	
7397	0	34866	
7398	0	34812	
7399	0	34800	
7400	0	34772	
7401	0	34732	
7402	0	34628	
7403	0	34504	
7404	0	34372	
7405	0	34248	
7406	0	34088	
7407	0	33920	
7408	0	33784	
7409	0	33636	
7410	0	33512	
7411	0	33340	
7412	0	33116	
7413	0	32980	
7414	0	32788	
7415	0	32604	
7416	0	32460	
7417	0	32314	
7418	0	32200	
7419	0	32108	
7420	0	32012	
7421	0	31896	
7422	0	31796	
7423	0	31676	
7424	0	31552	
7425	0	31464	
7426	0	31372	
7427	0	31248	
7428	0	31112	
7429	0	30948	
7430	0	30780	
7431	0	30618	
7432	0	30536	
7433	0	30472	
7434	0	30396	
7435	0	30306	
7436	0	30264	
7437	0	30208	
7438	0	30152	
7439	0	30104	
7440	0	30040	
7441	0	29954	
7442	0	29912	
7443	0	29860	
7444	0	29810	
7445	0	29832	
7446	0	29816	
7447	0	29728	
7448	0	29634	
7449	0	29544	
7450	0	29464	
7451	0	29404	
7452	0	29424	
7453	0	29429	
7454	0	29404	
7455	0	29380	
7456	0	29384	
7457	0	29440	
7458	0	29448	
7459	0	29420	
7460	0	29474	
7461	0	29504	
7462	0	29518	
7463	0	29540	
7464	0	29568	
7465	0	29544	
7466	0	29572	
7467	0	29584	
7468	0	29580	
7469	0	29548	
7470	0	29540	
7471	0	29540	
7472	0	29568	
7473	0	29636	
7474	0	29680	
7475	0	29752	
7476	0	29760	
7477	0	29732	
7478	0	29720	
7479	0	29664	
7480	0	29664	
7481	0	29764	
7482	0	29880	
7483	0	29944	
7484	0	29980	
7485	0	30040	
7486	0	30116	
7487	0	30132	
7488	0	30162	
7489	0	30184	
7490	0	30188	
7491	0	30160	
7492	0	30216	
7493	0	30308	
7494	0	30348	
7495	0	30360	
7496	0	30352	
7497	0	30344	
7498	0	30336	
7499	0	30352	
7500	0	30392	
7501	0	30440	
7502	0	30540	
7503	0	30640	
7504	0	30692	
7505	0	30714	
7506	0	30768	
7507	0	30792	
7508	0	30812	
7509	0	30860	
7510	0	30910	
7511	0	30958	
7512	0	30980	
7513	0	31020	
7514	0	31012	
7515	0	31008	
7516	0	31048	
7517	0	31080	
7518	0	31100	
7519	0	31096	
7520	0	31144	
7521	0	31148	
7522	0	31224	
7523	0	31360	
7524	0	31424	
7525	0	31416	
7526	0	31424	
7527	0	31392	
7528	0	31368	
7529	0	31388	
7530	0	31404	
7531	0	31452	
7532	0	31530	
7533	0	31580	
7534	0	31636	
7535	0	31676	
7536	0	31700	
7537	0	31764	
7538	0	31812	
7539	0	31796	
7540	0	31802	
7541	0	31796	
7542	0	31744	
7543	0	31684	
7544	0	31660	
7545	0	31708	
7546	0	31728	
7547	0	31812	
7548	0	31840	
7549	0	31848	
7550	0	31898	
7551	0	32008	
7552	0	32056	
7553	0	32048	
7554	0	32036	
7555	0	32004	
7556	0	31984	
7557	0	32044	
7558	0	32078	
7559	0	32064	
7560	0	32084	
7561	0	32092	
7562	0	32068	
7563	0	32044	
7564	0	32024	
7565	0	32024	
7566	0	32008	
7567	0	32020	
7568	0	32056	
7569	0	32058	
7570	0	32024	
7571	0	32004	
7572	0	31996	
7573	0	32032	
7574	0	32072	
7575	0	32124	
7576	0	32114	
7577	0	32064	
7578	0	32068	
7579	0	32044	
7580	0	32052	
7581	0	32084	
7582	0	32084	
7583	0	32076	
7584	0	32064	
7585	0	32100	
7586	0	32100	
7587	0	32052	
7588	0	32096	
7589	0	32160	
7590	0	32144	
7591	0	32064	
7592	0	32004	
7593	0	32052	
7594	0	32160	
7595	0	32244	
7596	0	32256	
7597	0	32216	
7598	0	32164	
7599	0	32144	
7600	0	32090	
7601	0	32152	
7602	0	32260	
7603	0	32346	
7604	0	32424	
7605	0	32464	
7606	0	32472	
7607	0	32416	
7608	0	32392	
7609	0	32484	
7610	0	32640	
7611	0	32748	
7612	0	32792	
7613	0	32764	
7614	0	32812	
7615	0	32892	
7616	0	32922	
7617	0	32904	
7618	0	32816	
7619	0	32784	
7620	0	32784	
7621	0	32744	
7622	0	32708	
7623	0	32730	
7624	0	32856	
7625	0	32908	
7626	0	32984	
7627	0	33084	
7628	0	33208	
7629	0	33368	
7630	0	33568	
7631	0	33836	
7632	0	34112	
7633	0	34292	
7634	0	34392	
7635	0	34496	
7636	0	34681	
7637	0	34834	
7638	0	35028	
7639	0	35168	
7640	0	35308	
7641	0	35298	
7642	0	35182	
7643	0	35092	
7644	0	35022	
7645	0	34952	
7646	0	34884	
7647	0	34840	
7648	0	34794	
7649	0	34676	
7650	0	34556	
7651	0	34412	
7652	0	34276	
7653	0	34084	
7654	0	33960	
7655	0	33856	
7656	0	33680	
7657	0	33504	
7658	0	33296	
7659	0	33128	
7660	0	33024	
7661	0	32922	
7662	0	32804	
7663	0	32676	
7664	0	32600	
7665	0	32472	
7666	0	32346	
7667	0	32312	
7668	0	32292	
7669	0	32208	
7670	0	32076	
7671	0	31924	
7672	0	31756	
7673	0	31664	
7674	0	31656	
7675	0	31680	
7676	0	31592	
7677	0	31412	
7678	0	31288	
7679	0	31180	
7680	0	31032	
7681	0	30910	
7682	0	30808	
7683	0	30788	
7684	0	30792	
7685	0	30828	
7686	0	30840	
7687	0	30808	
7688	0	30800	
7689	0	30844	
7690	0	30880	
7691	0	30896	
7692	0	30924	
7693	0	30904	
7694	0	30852	
7695	0	30844	
7696	0	30840	
7697	0	30888	
7698	0	30972	
7699	0	30970	
7700	0	31012	
7701	0	31076	
7702	0	31056	
7703	0	31088	
7704	0	31144	
7705	0	31200	
7706	0	31196	
7707	0	31158	
7708	0	31168	
7709	0	31248	
7710	0	31344	
7711	0	31360	
7712	0	31280	
7713	0	31264	
7714	0	31222	
7715	0	31160	
7716	0	31146	
7717	0	31184	
7718	0	31200	
7719	0	31242	
7720	0	31326	
7721	0	31400	
7722	0	31480	
7723	0	31504	
7724	0	31476	
7725	0	31398	
7726	0	31208	
7727	0	30898	
7728	0	30522	
7729	0	29976	
7730	0	29258	
7731	0	28404	
7732	0	27642	
7733	0	27076	
7734	0	26650	
7735	0	26384	
7736	0	26264	
7737	0	26298	
7738	0	26692	
7739	0	27432	
7740	0	28312	
7741	0	29344	
7742	0	30568	
7743	0	32048	
7744	0	33828	
7745	0	35904	
7746	0	38450	
7747	0	41376	
7748	0	44788	
7749	0	48716	
7750	0	52728	
7751	0	56564	
7752	0	60224	
7753	0	62760	
7754	0	64120	
7755	0	64800	
7756	0	65104	
7757	0	65208	
7758	0	65232	
7759	0	65144	
7760	0	65056	
7761	0	64940	
7762	0	64832	
7763	0	63792	
7764	0	57172	
7765	0	51648	
7766	0	47212	
7767	0	43572	
7768	0	40648	
7769	0	38072	
7770	0	35692	
7771	0	33606	
7772	0	31856	
7773	0	30408	
7774	0	29216	
7775	0	28328	
7776	0	27640	
7777	0	27112	
7778	0	26752	
7779	0	26572	
7780	0	26500	
7781	0	26456	
7782	0	26460	
7783	0	26512	
7784	0	26568	
7785	0	26672	
7786	0	26884	
7787	0	27148	
7788	0	27424	
7789	0	27688	
7790	0	28054	
7791	0	28356	
7792	0	28568	
7793	0	28708	
7794	0	28840	
7795	0	28942	
7796	0	28944	
7797	0	28944	
7798	0	28924	
7799	0	28956	
7800	0	28940	
7801	0	28940	
7802	0	28940	
7803	0	28940	
7804	0	28908	
7805	0	28880	
7806	0	28872	
7807	0	28928	
7808	0	28972	
7809	0	29008	
7810	0	29040	
7811	0	29088	
7812	0	29076	
7813	0	29096	
7814	0	29096	
7815	0	29126	
7816	0	29168	
7817	0	29228	
7818	0	29256	
7819	0	29300	
7820	0	29352	
7821	0	29436	
7822	0	29480	
7823	0	29508	
7824	0	29552	
7825	0	29608	
7826	0	29640	
7827	0	29680	
7828	0	29696	
7829	0	29696	
7830	0	29764	
7831	0	29832	
7832	0	29880	
7833	0	29916	
7834	0	29932	
7835	0	29936	
7836	0	29930	
7837	0	29964	
7838	0	30020	
7839	0	30092	
7840	0	30140	
7841	0	30108	
7842	0	30062	
7843	0	30082	
7844	0	30140	
7845	0	30232	
7846	0	30344	
7847	0	30462	
7848	0	30600	
7849	0	30724	
7850	0	30828	
7851	0	30908	
7852	0	31016	
7853	0	31080	
7854	0	31176	
7855	0	31272	
7856	0	31308	
7857	0	31348	
7858	0	31416	
7859	0	31464	
7860	0	31508	
7861	0	31586	
7862	0	31664	
7863	0	31696	
7864	0	31728	
7865	0	31784	
7866	0	31836	
7867	0	31836	
7868	0	31836	
7869	0	31864	
7870	0	31848	
7871	0	31865	
7872	0	31932	
7873	0	32008	
7874	0	32052	
7875	0	32032	
7876	0	32024	
7877	0	32020	
7878	0	31988	
7879	0	32024	
7880	0	32148	
7881	0	32266	
7882	0	32388	
7883	0	32532	
7884	0	32680	
7885	0	32756	
7886	0	32872	
7887	0	33018	
7888	0	33160	
7889	0	33248	
7890	0	33336	
7891	0	33424	
7892	0	33428	
7893	0	33420	
7894	0	33466	
7895	0	33508	
7896	0	33508	
7897	0	33528	
7898	0	33612	
7899	0	33684	
7900	0	33772	
7901	0	33856	
7902	0	33920	
7903	0	33976	
7904	0	34056	
7905	0	34144	
7906	0	34208	
7907	0	34236	
7908	0	34252	
7909	0	34272	
7910	0	34304	
7911	0	34350	
7912	0	34389	
7913	0	34434	
7914	0	34472	
7915	0	34496	
7916	0	34532	
7917	0	34596	
7918	0	34664	
7919	0	34800	
7920	0	34928	
7921	0	35016	
7922	0	35092	
7923	0	35148	
7924	0	35212	
7925	0	35300	
7926	0	35360	
7927	0	35424	
7928	0	35492	
7929	0	35576	
7930	0	35680	
7931	0	35764	
7932	0	35808	
7933	0	35856	
7934	0	35932	
7935	0	36012	
7936	0	36068	
7937	0	36060	
7938	0	36032	
7939	0	36040	
7940	0	36090	
7941	0	36116	
7942	0	36094	
7943	0	36072	
7944	0	36044	
7945	0	36028	
7946	0	35952	
7947	0	35912	
7948	0	35956	
7949	0	36032	
7950	0	36056	
7951	0	36048	
7952	0	36000	
7953	0	36000	
7954	0	35984	
7955	0	35972	
7956	0	35980	
7957	0	36004	
7958	0	36032	
7959	0	36064	
7960	0	36060	
7961	0	36064	
7962	0	36094	
7963	0	36076	
7964	0	36064	
7965	0	36036	
7966	0	35988	
7967	0	35912	
7968	0	35860	
7969	0	35826	
7970	0	35732	
7971	0	35644	
7972	0	35576	
7973	0	35496	
7974	0	35392	
7975	0	35284	
7976	0	35216	
7977	0	35140	
7978	0	35072	
7979	0	34984	
7980	0	34900	
7981	0	34820	
7982	0	34744	
7983	0	34648	
7984	0	34536	
7985	0	34400	
7986	0	34244	
7987	0	34164	
7988	0	34036	
7989	0	33816	
7990	0	33600	
7991	0	33452	
7992	0	33304	
7993	0	33184	
7994	0	33036	
7995	0	32912	
7996	0	32824	
7997	0	32720	
7998	0	32632	
7999	0	32508	
8000	0	32380	
8001	0	32284	
8002	0	32180	
8003	0	32080	
8004	0	31976	
8005	0	31832	
8006	0	31696	
8007	0	31628	
8008	0	31548	
8009	0	31420	
8010	0	31280	
8011	0	31122	
8012	0	30992	
8013	0	30876	
8014	0	30752	
8015	0	30656	
8016	0	30560	
8017	0	30420	
8018	0	30364	
8019	0	30344	
8020	0	30298	
8021	0	30192	
8022	0	30116	
8023	0	30040	
8024	0	30040	
8025	0	30064	
8026	0	30024	
8027	0	29980	
8028	0	29992	
8029	0	30016	
8030	0	30012	
8031	0	29922	
8032	0	29832	
8033	0	29732	
8034	0	29676	
8035	0	29628	
8036	0	29552	
8037	0	29508	
8038	0	29460	
8039	0	29460	
8040	0	29502	
8041	0	29552	
8042	0	29556	
8043	0	29572	
8044	0	29648	
8045	0	29706	
8046	0	29728	
8047	0	29776	
8048	0	29756	
8049	0	29730	
8050	0	29696	
8051	0	29696	
8052	0	29704	
8053	0	29720	
8054	0	29780	
8055	0	29816	
8056	0	29808	
8057	0	29812	
8058	0	29900	
8059	0	29934	
8060	0	30000	
8061	0	30096	
8062	0	30164	
8063	0	30218	
8064	0	30190	
8065	0	30194	
8066	0	30244	
8067	0	30316	
8068	0	30360	
8069	0	30402	
8070	0	30412	
8071	0	30416	
8072	0	30416	
8073	0	30420	
8074	0	30486	
8075	0	30524	
8076	0	30420	
8077	0	30386	
8078	0	30432	
8079	0	30524	
8080	0	30592	
8081	0	30700	
8082	0	30774	
8083	0	30872	
8084	0	30996	
8085	0	31066	
8086	0	31088	
8087	0	31128	
8088	0	31168	
8089	0	31198	
8090	0	31236	
8091	0	31264	
8092	0	31260	
8093	0	31288	
8094	0	31348	
8095	0	31360	
8096	0	31360	
8097	0	31336	
8098	0	31394	
8099	0	31392	
8100	0	31408	
8101	0	31388	
8102	0	31360	
8103	0	31376	
8104	0	31412	
8105	0	31480	
8106	0	31468	
8107	0	31540	
8108	0	31642	
8109	0	31712	
8110	0	31804	
8111	0	31792	
8112	0	31796	
8113	0	31840	
8114	0	31940	
8115	0	32028	
8116	0	32084	
8117	0	32148	
8118	0	32248	
8119	0	32352	
8120	0	32312	
8121	0	32200	
8122	0	32184	
8123	0	32200	
8124	0	32148	
8125	0	32076	
8126	0	32044	
8127	0	32048	
8128	0	32064	
8129	0	32096	
8130	0	32120	
8131	0	32120	
8132	0	32152	
8133	0	32220	
8134	0	32212	
8135	0	32216	
8136	0	32284	
8137	0	32360	
8138	0	32302	
8139	0	32256	
8140	0	32270	
8141	0	32336	
8142	0	32356	
8143	0	32352	
8144	0	32324	
8145	0	32324	
8146	0	32372	
8147	0	32418	
8148	0	32448	
8149	0	32484	
8150	0	32502	
8151	0	32480	
8152	0	32388	
8153	0	32308	
8154	0	32324	
8155	0	32336	
8156	0	32386	
8157	0	32460	
8158	0	32588	
8159	0	32632	
8160	0	32680	
8161	0	32636	
8162	0	32626	
8163	0	32692	
8164	0	32736	
8165	0	32684	
8166	0	32688	
8167	0	32720	
8168	0	32760	
8169	0	32816	
8170	0	32856	
8171	0	32872	
8172	0	32800	
8173	0	32672	
8174	0	32604	
8175	0	32632	
8176	0	32684	
8177	0	32774	
8178	0	32936	
8179	0	33048	
8180	0	33008	
8181	0	32968	
8182	0	32996	
8183	0	33064	
8184	0	33124	
8185	0	33232	
8186	0	33336	
8187	0	33360	
8188	0	33332	
8189	0	33322	
8190	0	33264	
8191	0	33200	
8192	0	33112	
8193	0	33060	
8194	0	33048	
8195	0	33080	
8196	0	33082	
8197	0	33136	
8198	0	33152	
8199	0	33124	
8200	0	33148	
8201	0	33220	
8202	0	33404	
8203	0	33608	
8204	0	33864	
8205	0	34148	
8206	0	34492	
8207	0	34784	
8208	0	34884	
8209	0	34908	
8210	0	35000	
8211	0	35180	
8212	0	35368	
8213	0	35516	
8214	0	35596	
8215	0	35644	
8216	0	35624	
8217	0	35560	
8218	0	35428	
8219	0	35340	
8220	0	35276	
8221	0	35204	
8222	0	35120	
8223	0	35040	
8224	0	34928	
8225	0	34868	
8226	0	34780	
8227	0	34612	
8228	0	34380	
8229	0	34068	
8230	0	33752	
8231	0	33488	
8232	0	33308	
8233	0	33136	
8234	0	33064	
8235	0	33062	
8236	0	33016	
8237	0	32920	
8238	0	32816	
8239	0	32708	
8240	0	32680	
8241	0	32636	
8242	0	32556	
8243	0	32448	
8244	0	32384	
8245	0	32352	
8246	0	32288	
8247	0	32212	
8248	0	32154	
8249	0	32064	
8250	0	31956	
8251	0	31848	
8252	0	31680	
8253	0	31512	
8254	0	31400	
8255	0	31360	
8256	0	31292	
8257	0	31240	
8258	0	31188	
8259	0	31116	
8260	0	31132	
8261	0	31140	
8262	0	31140	
8263	0	31112	
8264	0	31068	
8265	0	31120	
8266	0	31172	
8267	0	31072	
8268	0	31012	
8269	0	31000	
8270	0	31028	
8271	0	31136	
8272	0	31156	
8273	0	31140	
8274	0	31076	
8275	0	31100	
8276	0	31168	
8277	0	31284	
8278	0	31400	
8279	0	31460	
8280	0	31524	
8281	0	31532	
8282	0	31488	
8283	0	31452	
8284	0	31372	
8285	0	31320	
8286	0	31308	
8287	0	31354	
8288	0	31424	
8289	0	31482	
8290	0	31504	
8291	0	31580	
8292	0	31672	
8293	0	31760	
8294	0	31832	
8295	0	31856	
8296	0	31896	
8297	0	31936	
8298	0	31960	
8299	0	31980	
8300	0	31884	
8301	0	31632	
8302	0	31272	
8303	0	30656	
8304	0	29896	
8305	0	29114	
8306	0	28412	
8307	0	27952	
8308	0	27572	
8309	0	27249	
8310	0	27172	
8311	0	27324	
8312	0	27724	
8313	0	28436	
8314	0	29356	
8315	0	30480	
8316	0	31644	
8317	0	32960	
8318	0	34560	
8319	0	36416	
8320	0	38696	
8321	0	41480	
8322	0	44684	
8323	0	48248	
8324	0	51880	
8325	0	55520	
8326	0	59104	
8327	0	61952	
8328	0	63500	
8329	0	64272	
8330	0	64640	
8331	0	64792	
8332	0	64800	
8333	0	64760	
8334	0	64668	
8335	0	64544	
8336	0	64432	
8337	0	58248	
8338	0	51872	
8339	0	46120	
8340	0	41536	
8341	0	37948	
8342	0	35236	
8343	0	33212	
8344	0	31568	
8345	0	30212	
8346	0	28980	
8347	0	27884	
8348	0	26816	
8349	0	25780	
8350	0	24896	
8351	0	24268	
8352	0	23892	
8353	0	23720	
8354	0	23796	
8355	0	23944	
8356	0	24056	
8357	0	24232	
8358	0	24528	
8359	0	24948	
8360	0	25416	
8361	0	25880	
8362	0	26256	
8363	0	26682	
8364	0	27104	
8365	0	27572	
8366	0	28060	
8367	0	28488	
8368	0	28812	
8369	0	29144	
8370	0	29452	
8371	0	29532	
8372	0	29544	
8373	0	29616	
8374	0	29658	
8375	0	29664	
8376	0	29688	
8377	0	29788	
8378	0	29932	
8379	0	30088	
8380	0	30176	
8381	0	30224	
8382	0	30308	
8383	0	30404	
8384	0	30424	
8385	0	30448	
8386	0	30426	
8387	0	30460	
8388	0	30504	
8389	0	30588	
8390	0	30640	
8391	0	30684	
8392	0	30712	
8393	0	30732	
8394	0	30788	
8395	0	30820	
8396	0	30876	
8397	0	30954	
8398	0	30944	
8399	0	30964	
8400	0	30856	
8401	0	30784	
8402	0	30816	
8403	0	30776	
8404	0	30776	
8405	0	30812	
8406	0	30874	
8407	0	30924	
8408	0	30980	
8409	0	31108	
8410	0	31148	
8411	0	31140	
8412	0	31120	
8413	0	31116	
8414	0	31108	
8415	0	31116	
8416	0	31072	
8417	0	31052	
8418	0	31160	
8419	0	31272	
8420	0	31350	
8421	0	31432	
8422	0	31600	
8423	0	31704	
8424	0	31692	
8425	0	31588	
8426	0	31536	
8427	0	31624	
8428	0	31772	
8429	0	31868	
8430	0	31946	
8431	0	32024	
8432	0	32088	
8433	0	32212	
8434	0	32192	
8435	0	32176	
8436	0	32280	
8437	0	32254	
8438	0	32112	
8439	0	32076	
8440	0	32100	
8441	0	32140	
8442	0	32212	
8443	0	32314	
8444	0	32452	
8445	0	32612	
8446	0	32748	
8447	0	32868	
8448	0	32974	
8449	0	33032	
8450	0	32984	
8451	0	32992	
8452	0	33034	
8453	0	33140	
8454	0	33232	
8455	0	33320	
8456	0	33380	
8457	0	33400	
8458	0	33472	
8459	0	33544	
8460	0	33688	
8461	0	33880	
8462	0	34052	
8463	0	34200	
8464	0	34324	
8465	0	34416	
8466	0	34316	
8467	0	34200	
8468	0	34192	
8469	0	34176	
8470	0	34112	
8471	0	34000	
8472	0	33924	
8473	0	33892	
8474	0	34080	
8475	0	34306	
8476	0	34448	
8477	0	34618	
8478	0	34848	
8479	0	35060	
8480	0	35088	
8481	0	35112	
8482	0	35198	
8483	0	35264	
8484	0	35320	
8485	0	35436	
8486	0	35596	
8487	0	35668	
8488	0	35752	
8489	0	35752	
8490	0	35776	
8491	0	35744	
8492	0	35704	
8493	0	35712	
8494	0	35724	
8495	0	35788	
8496	0	35872	
8497	0	35944	
8498	0	36048	
8499	0	36152	
8500	0	36236	
8501	0	36346	
8502	0	36492	
8503	0	36636	
8504	0	36740	
8505	0	36736	
8506	0	36776	
8507	0	36828	
8508	0	36852	
8509	0	36960	
8510	0	36988	
8511	0	36992	
8512	0	37052	
8513	0	37058	
8514	0	36916	
8515	0	36780	
8516	0	36720	
8517	0	36768	
8518	0	36864	
8519	0	36948	
8520	0	37040	
8521	0	37136	
8522	0	37240	
8523	0	37308	
8524	0	37240	
8525	0	37180	
8526	0	37216	
8527	0	37226	
8528	0	37172	
8529	0	37120	
8530	0	37084	
8531	0	37020	
8532	0	37016	
8533	0	37060	
8534	0	37016	
8535	0	37020	
8536	0	37008	
8537	0	37012	
8538	0	37020	
8539	0	36984	
8540	0	36996	
8541	0	36960	
8542	0	36944	
8543	0	36840	
8544	0	36664	
8545	0	36464	
8546	0	36244	
8547	0	36060	
8548	0	35936	
8549	0	35924	
8550	0	35822	
8551	0	35812	
8552	0	35876	
8553	0	35928	
8554	0	35800	
8555	0	35616	
8556	0	35508	
8557	0	35412	
8558	0	35238	
8559	0	35040	
8560	0	34848	
8561	0	34676	
8562	0	34524	
8563	0	34376	
8564	0	34244	
8565	0	34128	
8566	0	34026	
8567	0	33892	
8568	0	33676	
8569	0	33404	
8570	0	33152	
8571	0	32940	
8572	0	32776	
8573	0	32756	
8574	0	32796	
8575	0	32764	
8576	0	32674	
8577	0	32592	
8578	0	32540	
8579	0	32496	
8580	0	32476	
8581	0	32386	
8582	0	32144	
8583	0	31836	
8584	0	31564	
8585	0	31376	
8586	0	31180	
8587	0	30936	
8588	0	30716	
8589	0	30532	
8590	0	30440	
8591	0	30462	
