# OpenSignals Text File Format. Version 1
# {"00:07:80:4B:15:F7": {"position": 0, "device": "biosignalsplux", "device name": "00:07:80:4B:15:F7", "device connection": "BTH00:07:80:4B:15:F7", "sampling rate": 1000, "resolution": [16], "firmware version": 775, "comments": "", "keywords": "", "mode": 0, "sync interval": 2, "date": "2023-4-27", "time": "17:44:45.922", "channels": [1], "sensor": ["ECG"], "label": ["CH1"], "column": ["nSeq", "DI", "CH1"], "special": [{"SpO2": [80, 40, 5, 4, 3, 3]}, {"SpO2": [80, 40, 5, 4, 3, 3]}, {"SpO2": [80, 40, 5, 4, 3, 3]}, {"SpO2": [80, 40, 5, 4, 3, 3]}, {"SpO2": [80, 40, 5, 4, 3, 3]}, {"SpO2": [80, 40, 5, 4, 3, 3]}, {"SpO2": [80, 40, 5, 4, 3, 3]}, {"SpO2": [80, 40, 5, 4, 3, 3]}], "digital IO": [0, 1], "sleeve color": ["green"], "convertedValues": 0}}
# EndOfHeader
0	0	31352	
1	0	31304	
2	0	31076	
3	0	31004	
4	0	30952	
5	0	30768	
6	0	30504	
7	0	30184	
8	0	30112	
9	0	30212	
10	0	30432	
11	0	30676	
12	0	30776	
13	0	30936	
14	0	31104	
15	0	31090	
16	0	31032	
17	0	31112	
18	0	31362	
19	0	31836	
20	0	32544	
21	0	33012	
22	0	33080	
23	0	32756	
24	0	32308	
25	0	32152	
26	0	32080	
27	0	32080	
28	0	32048	
29	0	31728	
30	0	31228	
31	0	30892	
32	0	30988	
33	0	31440	
34	0	31868	
35	0	31848	
36	0	31660	
37	0	31584	
38	0	31436	
39	0	31332	
40	0	31500	
41	0	31864	
42	0	32228	
43	0	32436	
44	0	32336	
45	0	32320	
46	0	32394	
47	0	32400	
48	0	32256	
49	0	32144	
50	0	32120	
51	0	32060	
52	0	32128	
53	0	32268	
54	0	32488	
55	0	32712	
56	0	32924	
57	0	33168	
58	0	33600	
59	0	33828	
60	0	33672	
61	0	33280	
62	0	32728	
63	0	32380	
64	0	32536	
65	0	32904	
66	0	33232	
67	0	33152	
68	0	32888	
69	0	32788	
70	0	32624	
71	0	32694	
72	0	32900	
73	0	32936	
74	0	32586	
75	0	32164	
76	0	31888	
77	0	31712	
78	0	31664	
79	0	31784	
80	0	32026	
81	0	32152	
82	0	32148	
83	0	31792	
84	0	31432	
85	0	31432	
86	0	31740	
87	0	32028	
88	0	32208	
89	0	32252	
90	0	32304	
91	0	32404	
92	0	32508	
93	0	32524	
94	0	32756	
95	0	32968	
96	0	33060	
97	0	33312	
98	0	33520	
99	0	33736	
100	0	33728	
101	0	33902	
102	0	34144	
103	0	33884	
104	0	33184	
105	0	32656	
106	0	32552	
107	0	32784	
108	0	33092	
109	0	32824	
110	0	32508	
111	0	32416	
112	0	32628	
113	0	32900	
114	0	33000	
115	0	32912	
116	0	32892	
117	0	33170	
118	0	33528	
119	0	33784	
120	0	33976	
121	0	34172	
122	0	34248	
123	0	34394	
124	0	34452	
125	0	34348	
126	0	34118	
127	0	33962	
128	0	33841	
129	0	33876	
130	0	34088	
131	0	34060	
132	0	34100	
133	0	34490	
134	0	34816	
135	0	34736	
136	0	34436	
137	0	34224	
138	0	34138	
139	0	34316	
140	0	34764	
141	0	35520	
142	0	36176	
143	0	36596	
144	0	36742	
145	0	36708	
146	0	36514	
147	0	36260	
148	0	35772	
149	0	35104	
150	0	34416	
151	0	34084	
152	0	34040	
153	0	34064	
154	0	34368	
155	0	35120	
156	0	35912	
157	0	36352	
158	0	36276	
159	0	35988	
160	0	35740	
161	0	35556	
162	0	34964	
163	0	34112	
164	0	33368	
165	0	32832	
166	0	32480	
167	0	32376	
168	0	32368	
169	0	32280	
170	0	32112	
171	0	32012	
172	0	32092	
173	0	32218	
174	0	32266	
175	0	32100	
176	0	31724	
177	0	31536	
178	0	31600	
179	0	31460	
180	0	31260	
181	0	31232	
182	0	31404	
183	0	31444	
184	0	31268	
185	0	30914	
186	0	30516	
187	0	30304	
188	0	30152	
189	0	30136	
190	0	30268	
191	0	30406	
192	0	30444	
193	0	30532	
194	0	30652	
195	0	30832	
196	0	30880	
197	0	30648	
198	0	30412	
199	0	30368	
200	0	30412	
201	0	30688	
202	0	30980	
203	0	31112	
204	0	30912	
205	0	30672	
206	0	30744	
207	0	30900	
208	0	31044	
209	0	31050	
210	0	30704	
211	0	30236	
212	0	29872	
213	0	29812	
214	0	29976	
215	0	30080	
216	0	30100	
217	0	29940	
218	0	29716	
219	0	29644	
220	0	29720	
221	0	29812	
222	0	30016	
223	0	30088	
224	0	30266	
225	0	30656	
226	0	31168	
227	0	31876	
228	0	32244	
229	0	32080	
230	0	31728	
231	0	31084	
232	0	29964	
233	0	28552	
234	0	26980	
235	0	25464	
236	0	24144	
237	0	23132	
238	0	22400	
239	0	21936	
240	0	21696	
241	0	22024	
242	0	22826	
243	0	23560	
244	0	24244	
245	0	25204	
246	0	26648	
247	0	28292	
248	0	30236	
249	0	32274	
250	0	34336	
251	0	36652	
252	0	39276	
253	0	42000	
254	0	45040	
255	0	48336	
256	0	51984	
257	0	55856	
258	0	59476	
259	0	61728	
260	0	62928	
261	0	63524	
262	0	63788	
263	0	63860	
264	0	63856	
265	0	63796	
266	0	63716	
267	0	63616	
268	0	60200	
269	0	51696	
270	0	44708	
271	0	39192	
272	0	34924	
273	0	31422	
274	0	28736	
275	0	27116	
276	0	26348	
277	0	25736	
278	0	25072	
279	0	24192	
280	0	23076	
281	0	21570	
282	0	20268	
283	0	19272	
284	0	18508	
285	0	17784	
286	0	17298	
287	0	17220	
288	0	17304	
289	0	17248	
290	0	17268	
291	0	17512	
292	0	17992	
293	0	18662	
294	0	19448	
295	0	20208	
296	0	20448	
297	0	20256	
298	0	20088	
299	0	20210	
300	0	20670	
301	0	21256	
302	0	21908	
303	0	22420	
304	0	23024	
305	0	23796	
306	0	24560	
307	0	25226	
308	0	25948	
309	0	26956	
310	0	28092	
311	0	29084	
312	0	29740	
313	0	29836	
314	0	29732	
315	0	29660	
316	0	29648	
317	0	29476	
318	0	29272	
319	0	29400	
320	0	29580	
321	0	29728	
322	0	29864	
323	0	29956	
324	0	30040	
325	0	30368	
326	0	30764	
327	0	31056	
328	0	31272	
329	0	31404	
330	0	31390	
331	0	31296	
332	0	31152	
333	0	31064	
334	0	31048	
335	0	31132	
336	0	31476	
337	0	31952	
338	0	32202	
339	0	32300	
340	0	32384	
341	0	32312	
342	0	32112	
343	0	31692	
344	0	31266	
345	0	31216	
346	0	31312	
347	0	31488	
348	0	31728	
349	0	32068	
350	0	32188	
351	0	32112	
352	0	31992	
353	0	31880	
354	0	31792	
355	0	31848	
356	0	32108	
357	0	32408	
358	0	32488	
359	0	32144	
360	0	31812	
361	0	31820	
362	0	32044	
363	0	32474	
364	0	32926	
365	0	33100	
366	0	32936	
367	0	32692	
368	0	32584	
369	0	32708	
370	0	32916	
371	0	32980	
372	0	33016	
373	0	32948	
374	0	32892	
375	0	32920	
376	0	32808	
377	0	32524	
378	0	32408	
379	0	32640	
380	0	32928	
381	0	33080	
382	0	33254	
383	0	33524	
384	0	33696	
385	0	33632	
386	0	33356	
387	0	32988	
388	0	32756	
389	0	32720	
390	0	32716	
391	0	32850	
392	0	33040	
393	0	33344	
394	0	33584	
395	0	33688	
396	0	33664	
397	0	33624	
398	0	33756	
399	0	33708	
400	0	33600	
401	0	33516	
402	0	33524	
403	0	33572	
404	0	33592	
405	0	33608	
406	0	33680	
407	0	33796	
408	0	33960	
409	0	34056	
410	0	34136	
411	0	34108	
412	0	33892	
413	0	33664	
414	0	33504	
415	0	33392	
416	0	33516	
417	0	33608	
418	0	33492	
419	0	33536	
420	0	33608	
421	0	33754	
422	0	33980	
423	0	34136	
424	0	34204	
425	0	34276	
426	0	34220	
427	0	33970	
428	0	33656	
429	0	33532	
430	0	34040	
431	0	34508	
432	0	34664	
433	0	34736	
434	0	34932	
435	0	35216	
436	0	35588	
437	0	35808	
438	0	35792	
439	0	35692	
440	0	35456	
441	0	35284	
442	0	35220	
443	0	35180	
444	0	35012	
445	0	34676	
446	0	34752	
447	0	35084	
448	0	35228	
449	0	35248	
450	0	35340	
451	0	35432	
452	0	35416	
453	0	35164	
454	0	34892	
455	0	34416	
456	0	33892	
457	0	33664	
458	0	33796	
459	0	34276	
460	0	34784	
461	0	34772	
462	0	34496	
463	0	34136	
464	0	33848	
465	0	33696	
466	0	33696	
467	0	33972	
468	0	34296	
469	0	34712	
470	0	35136	
471	0	35376	
472	0	35364	
473	0	35504	
474	0	35573	
475	0	35572	
476	0	35560	
477	0	35552	
478	0	35252	
479	0	34708	
480	0	34332	
481	0	34296	
482	0	34336	
483	0	34208	
484	0	34064	
485	0	33972	
486	0	33998	
487	0	34188	
488	0	34536	
489	0	34840	
490	0	34992	
491	0	34954	
492	0	34688	
493	0	34704	
494	0	34824	
495	0	34604	
496	0	34296	
497	0	34032	
498	0	33832	
499	0	33624	
500	0	33396	
501	0	33092	
502	0	32760	
503	0	32552	
504	0	32556	
505	0	32576	
506	0	32632	
507	0	32844	
508	0	33106	
509	0	33316	
510	0	33304	
511	0	33276	
512	0	33240	
513	0	33212	
514	0	33240	
515	0	33204	
516	0	33060	
517	0	32844	
518	0	32616	
519	0	32332	
520	0	32012	
521	0	31648	
522	0	31488	
523	0	31536	
524	0	31616	
525	0	31580	
526	0	31520	
527	0	31660	
528	0	31876	
529	0	32076	
530	0	32160	
531	0	32236	
532	0	32188	
533	0	31900	
534	0	31392	
535	0	30920	
536	0	30720	
537	0	30640	
538	0	30480	
539	0	30360	
540	0	30488	
541	0	30636	
542	0	30580	
543	0	30448	
544	0	30400	
545	0	30540	
546	0	30732	
547	0	30864	
548	0	30904	
549	0	30852	
550	0	30764	
551	0	30592	
552	0	30528	
553	0	30536	
554	0	30552	
555	0	30640	
556	0	30724	
557	0	30996	
558	0	31404	
559	0	31632	
560	0	31512	
561	0	31144	
562	0	30748	
563	0	30476	
564	0	30308	
565	0	30104	
566	0	29904	
567	0	30032	
568	0	30472	
569	0	31200	
570	0	31924	
571	0	32224	
572	0	31996	
573	0	31450	
574	0	31080	
575	0	30804	
576	0	30580	
577	0	30460	
578	0	30396	
579	0	30392	
580	0	30484	
581	0	30608	
582	0	30574	
583	0	30424	
584	0	30320	
585	0	30218	
586	0	30228	
587	0	30308	
588	0	30424	
589	0	30704	
590	0	31012	
591	0	31104	
592	0	31100	
593	0	31268	
594	0	31556	
595	0	31840	
596	0	32084	
597	0	31936	
598	0	31484	
599	0	31044	
600	0	30832	
601	0	30738	
602	0	30688	
603	0	30616	
604	0	30540	
605	0	30372	
606	0	30296	
607	0	30368	
608	0	30528	
609	0	30848	
610	0	31256	
611	0	31560	
612	0	31744	
613	0	31792	
614	0	31688	
615	0	31554	
616	0	31320	
617	0	31048	
618	0	30888	
619	0	30848	
620	0	30816	
621	0	30684	
622	0	30764	
623	0	30864	
624	0	31028	
625	0	31264	
626	0	31552	
627	0	31820	
628	0	32008	
629	0	31978	
630	0	31884	
631	0	31792	
632	0	31664	
633	0	31592	
634	0	31588	
635	0	31592	
636	0	31560	
637	0	31628	
638	0	31852	
639	0	32116	
640	0	32424	
641	0	32620	
642	0	32516	
643	0	32320	
644	0	32112	
645	0	31952	
646	0	32056	
647	0	32392	
648	0	32608	
649	0	32476	
650	0	32240	
651	0	32064	
652	0	32028	
653	0	32032	
654	0	32100	
655	0	32040	
656	0	31818	
657	0	31832	
658	0	31984	
659	0	32334	
660	0	32868	
661	0	33220	
662	0	33360	
663	0	33228	
664	0	32916	
665	0	32716	
666	0	32564	
667	0	32444	
668	0	32320	
669	0	32272	
670	0	32352	
671	0	32418	
672	0	32392	
673	0	32272	
674	0	32200	
675	0	32104	
676	0	31988	
677	0	31956	
678	0	32008	
679	0	32212	
680	0	32464	
681	0	32676	
682	0	32748	
683	0	32752	
684	0	32792	
685	0	32870	
686	0	32880	
687	0	32840	
688	0	32824	
689	0	32852	
690	0	32908	
691	0	32920	
692	0	32912	
693	0	32944	
694	0	33152	
695	0	33488	
696	0	33564	
697	0	33384	
698	0	33260	
699	0	33184	
700	0	33056	
701	0	32986	
702	0	33120	
703	0	33404	
704	0	33518	
705	0	33388	
706	0	33252	
707	0	33196	
708	0	33220	
709	0	33268	
710	0	33292	
711	0	33324	
712	0	33480	
713	0	33544	
714	0	33464	
715	0	33518	
716	0	33676	
717	0	33910	
718	0	34012	
719	0	34032	
720	0	34100	
721	0	34180	
722	0	34392	
723	0	34736	
724	0	35100	
725	0	35396	
726	0	35656	
727	0	35974	
728	0	36200	
729	0	36248	
730	0	36124	
731	0	35936	
732	0	35828	
733	0	35802	
734	0	35888	
735	0	36084	
736	0	36288	
737	0	36412	
738	0	36424	
739	0	36256	
740	0	35984	
741	0	35720	
742	0	35564	
743	0	35524	
744	0	35592	
745	0	35656	
746	0	35608	
747	0	35352	
748	0	34980	
749	0	34840	
750	0	35004	
751	0	35232	
752	0	35420	
753	0	35456	
754	0	35312	
755	0	35076	
756	0	34740	
757	0	34272	
758	0	33760	
759	0	33352	
760	0	32924	
761	0	32468	
762	0	32192	
763	0	32024	
764	0	31768	
765	0	31424	
766	0	31148	
767	0	31054	
768	0	31064	
769	0	31206	
770	0	31398	
771	0	31450	
772	0	31384	
773	0	31258	
774	0	31104	
775	0	31064	
776	0	31104	
777	0	31090	
778	0	31006	
779	0	30956	
780	0	30956	
781	0	30844	
782	0	30688	
783	0	30748	
784	0	30864	
785	0	30760	
786	0	30578	
787	0	30444	
788	0	30356	
789	0	30364	
790	0	30348	
791	0	30400	
792	0	30448	
793	0	30536	
794	0	30696	
795	0	30858	
796	0	30980	
797	0	31108	
798	0	31056	
799	0	30884	
800	0	30736	
801	0	30664	
802	0	30564	
803	0	30528	
804	0	30560	
805	0	30616	
806	0	30616	
807	0	30640	
808	0	30800	
809	0	31064	
810	0	31324	
811	0	31464	
812	0	31480	
813	0	31392	
814	0	31104	
815	0	30784	
816	0	30656	
817	0	30584	
818	0	30538	
819	0	30426	
820	0	30224	
821	0	29844	
822	0	29216	
823	0	28304	
824	0	27258	
825	0	26252	
826	0	25204	
827	0	24116	
828	0	23114	
829	0	22348	
830	0	21864	
831	0	21636	
832	0	21764	
833	0	22200	
834	0	22744	
835	0	23296	
836	0	24122	
837	0	25472	
838	0	27216	
839	0	29144	
840	0	31296	
841	0	33692	
842	0	36384	
843	0	39160	
844	0	42304	
845	0	45940	
846	0	49880	
847	0	53956	
848	0	57980	
849	0	61324	
850	0	63184	
851	0	64176	
852	0	64640	
853	0	64840	
854	0	64880	
855	0	64852	
856	0	64792	
857	0	64660	
858	0	64572	
859	0	58284	
860	0	50640	
861	0	44528	
862	0	39796	
863	0	35784	
864	0	32116	
865	0	29484	
866	0	27956	
867	0	26908	
868	0	25972	
869	0	24992	
870	0	23744	
871	0	22348	
872	0	21252	
873	0	20438	
874	0	19836	
875	0	19558	
876	0	19288	
877	0	19016	
878	0	18708	
879	0	18500	
880	0	18516	
881	0	18776	
882	0	19148	
883	0	19436	
884	0	19688	
885	0	19812	
886	0	19860	
887	0	20140	
888	0	20556	
889	0	21140	
890	0	21806	
891	0	22464	
892	0	23100	
893	0	23642	
894	0	24196	
895	0	24778	
896	0	25388	
897	0	26020	
898	0	26696	
899	0	27392	
900	0	28116	
901	0	28808	
902	0	29396	
903	0	29736	
904	0	29912	
905	0	30136	
906	0	30376	
907	0	30528	
908	0	30628	
909	0	30808	
910	0	30920	
911	0	30896	
912	0	30792	
913	0	30688	
914	0	30624	
915	0	30660	
916	0	30764	
917	0	30848	
918	0	30900	
919	0	30988	
920	0	31076	
921	0	31156	
922	0	31272	
923	0	31440	
924	0	31640	
925	0	31788	
926	0	31924	
927	0	31968	
928	0	31868	
929	0	31824	
930	0	31884	
931	0	31932	
932	0	32080	
933	0	32280	
934	0	32436	
935	0	32576	
936	0	32620	
937	0	32556	
938	0	32452	
939	0	32360	
940	0	32292	
941	0	32256	
942	0	32254	
943	0	32372	
944	0	32476	
945	0	32496	
946	0	32440	
947	0	32396	
948	0	32368	
949	0	32324	
950	0	32388	
951	0	32500	
952	0	32616	
953	0	32748	
954	0	32936	
955	0	33085	
956	0	33168	
957	0	33164	
958	0	33118	
959	0	33172	
960	0	33236	
961	0	33306	
962	0	33308	
963	0	33248	
964	0	33208	
965	0	33228	
966	0	33280	
967	0	33352	
968	0	33376	
969	0	33416	
970	0	33432	
971	0	33444	
972	0	33568	
973	0	33772	
974	0	33972	
975	0	34080	
976	0	34128	
977	0	34124	
978	0	34052	
979	0	34004	
980	0	33968	
981	0	33872	
982	0	33728	
983	0	33660	
984	0	33536	
985	0	33448	
986	0	33434	
987	0	33472	
988	0	33592	
989	0	33760	
990	0	33828	
991	0	33820	
992	0	33888	
993	0	34064	
994	0	34192	
995	0	34184	
996	0	34076	
997	0	33924	
998	0	33872	
999	0	33882	
1000	0	33876	
1001	0	33868	
1002	0	33908	
1003	0	33908	
1004	0	33952	
1005	0	33984	
1006	0	33992	
1007	0	33988	
1008	0	33980	
1009	0	33916	
1010	0	33820	
1011	0	33780	
1012	0	33908	
1013	0	34048	
1014	0	34052	
1015	0	34096	
1016	0	34232	
1017	0	34442	
1018	0	34618	
1019	0	34680	
1020	0	34684	
1021	0	34648	
1022	0	34480	
1023	0	34172	
1024	0	33936	
1025	0	33868	
1026	0	33944	
1027	0	34096	
1028	0	34256	
1029	0	34412	
1030	0	34522	
1031	0	34592	
1032	0	34604	
1033	0	34584	
1034	0	34568	
1035	0	34648	
1036	0	34780	
1037	0	34940	
1038	0	35042	
1039	0	35048	
1040	0	34852	
1041	0	34648	
1042	0	34472	
1043	0	34328	
1044	0	34256	
1045	0	34272	
1046	0	34332	
1047	0	34372	
1048	0	34416	
1049	0	34476	
1050	0	34462	
1051	0	34468	
1052	0	34580	
1053	0	34708	
1054	0	34832	
1055	0	34820	
1056	0	34692	
1057	0	34604	
1058	0	34652	
1059	0	34716	
1060	0	34732	
1061	0	34712	
1062	0	34640	
1063	0	34576	
1064	0	34584	
1065	0	34676	
1066	0	34808	
1067	0	34936	
1068	0	34940	
1069	0	34836	
1070	0	34678	
1071	0	34496	
1072	0	34384	
1073	0	34376	
1074	0	34376	
1075	0	34392	
1076	0	34364	
1077	0	34408	
1078	0	34472	
1079	0	34504	
1080	0	34484	
1081	0	34484	
1082	0	34512	
1083	0	34554	
1084	0	34576	
1085	0	34494	
1086	0	34272	
1087	0	34040	
1088	0	33887	
1089	0	33844	
1090	0	33824	
1091	0	33816	
1092	0	33904	
1093	0	33940	
1094	0	33860	
1095	0	33752	
1096	0	33624	
1097	0	33552	
1098	0	33544	
1099	0	33524	
1100	0	33520	
1101	0	33496	
1102	0	33466	
1103	0	33400	
1104	0	33312	
1105	0	33162	
1106	0	33020	
1107	0	32904	
1108	0	32872	
1109	0	32860	
1110	0	32784	
1111	0	32684	
1112	0	32640	
1113	0	32692	
1114	0	32744	
1115	0	32812	
1116	0	32768	
1117	0	32596	
1118	0	32416	
1119	0	32320	
1120	0	32240	
1121	0	32188	
1122	0	32136	
1123	0	32108	
1124	0	32124	
1125	0	32140	
1126	0	32176	
1127	0	32292	
1128	0	32392	
1129	0	32332	
1130	0	32116	
1131	0	32008	
1132	0	32044	
1133	0	32172	
1134	0	32236	
1135	0	32128	
1136	0	32008	
1137	0	31980	
1138	0	31928	
1139	0	31860	
1140	0	31792	
1141	0	31764	
1142	0	31788	
1143	0	31780	
1144	0	31664	
1145	0	31560	
1146	0	31512	
1147	0	31480	
1148	0	31448	
1149	0	31420	
1150	0	31464	
1151	0	31544	
1152	0	31664	
1153	0	31720	
1154	0	31704	
1155	0	31708	
1156	0	31776	
1157	0	31808	
1158	0	31812	
1159	0	31880	
1160	0	31932	
1161	0	31936	
1162	0	31960	
1163	0	32040	
1164	0	32084	
1165	0	32044	
1166	0	31962	
1167	0	31898	
1168	0	31888	
1169	0	31836	
1170	0	31772	
1171	0	31744	
1172	0	31712	
1173	0	31648	
1174	0	31632	
1175	0	31656	
1176	0	31668	
1177	0	31704	
1178	0	31678	
1179	0	31680	
1180	0	31764	
1181	0	31940	
1182	0	31994	
1183	0	31944	
1184	0	31816	
1185	0	31776	
1186	0	31812	
1187	0	31888	
1188	0	31976	
1189	0	32096	
1190	0	32176	
1191	0	32148	
1192	0	32128	
1193	0	32124	
1194	0	32132	
1195	0	32112	
1196	0	32120	
1197	0	32110	
1198	0	32108	
1199	0	32100	
1200	0	32120	
1201	0	32124	
1202	0	32148	
1203	0	32220	
1204	0	32352	
1205	0	32524	
1206	0	32732	
1207	0	32852	
1208	0	32816	
1209	0	32680	
1210	0	32544	
1211	0	32436	
1212	0	32372	
1213	0	32384	
1214	0	32416	
1215	0	32456	
1216	0	32512	
1217	0	32564	
1218	0	32532	
1219	0	32492	
1220	0	32440	
1221	0	32384	
1222	0	32252	
1223	0	32188	
1224	0	32224	
1225	0	32352	
1226	0	32464	
1227	0	32496	
1228	0	32496	
1229	0	32524	
1230	0	32568	
1231	0	32628	
1232	0	32696	
1233	0	32816	
1234	0	32932	
1235	0	32992	
1236	0	33024	
1237	0	33060	
1238	0	33064	
1239	0	33076	
1240	0	33080	
1241	0	33072	
1242	0	33072	
1243	0	33054	
1244	0	33084	
1245	0	33060	
1246	0	32984	
1247	0	32910	
1248	0	32888	
1249	0	32948	
1250	0	33004	
1251	0	32984	
1252	0	32896	
1253	0	32776	
1254	0	32696	
1255	0	32724	
1256	0	32728	
1257	0	32736	
1258	0	32812	
1259	0	32900	
1260	0	33020	
1261	0	33156	
1262	0	33248	
1263	0	33344	
1264	0	33376	
1265	0	33340	
1266	0	33268	
1267	0	33220	
1268	0	33240	
1269	0	33264	
1270	0	33254	
1271	0	33284	
1272	0	33320	
1273	0	33344	
1274	0	33324	
1275	0	33282	
1276	0	33252	
1277	0	33316	
1278	0	33388	
1279	0	33372	
1280	0	33412	
1281	0	33540	
1282	0	33644	
1283	0	33648	
1284	0	33588	
1285	0	33652	
1286	0	33800	
1287	0	33976	
1288	0	34112	
1289	0	34234	
1290	0	34280	
1291	0	34252	
1292	0	34228	
1293	0	34220	
1294	0	34240	
1295	0	34288	
1296	0	34336	
1297	0	34348	
1298	0	34364	
1299	0	34416	
1300	0	34496	
1301	0	34528	
1302	0	34568	
1303	0	34592	
1304	0	34604	
1305	0	34728	
1306	0	34960	
1307	0	35160	
1308	0	35312	
1309	0	35452	
1310	0	35672	
1311	0	35916	
1312	0	36152	
1313	0	36348	
1314	0	36536	
1315	0	36672	
1316	0	36764	
1317	0	36780	
1318	0	36714	
1319	0	36642	
1320	0	36680	
1321	0	36672	
1322	0	36592	
1323	0	36464	
1324	0	36352	
1325	0	36256	
1326	0	36152	
1327	0	36080	
1328	0	36052	
1329	0	35984	
1330	0	35984	
1331	0	36044	
1332	0	36104	
1333	0	36052	
1334	0	35896	
1335	0	35768	
1336	0	35688	
1337	0	35644	
1338	0	35558	
1339	0	35456	
1340	0	35352	
1341	0	35248	
1342	0	35104	
1343	0	34952	
1344	0	34778	
1345	0	34528	
1346	0	34160	
1347	0	33732	
1348	0	33285	
1349	0	32864	
1350	0	32512	
1351	0	32196	
1352	0	31912	
1353	0	31728	
1354	0	31640	
1355	0	31568	
1356	0	31452	
1357	0	31360	
1358	0	31266	
1359	0	31152	
1360	0	31040	
1361	0	30944	
1362	0	30874	
1363	0	30788	
1364	0	30652	
1365	0	30544	
1366	0	30524	
1367	0	30544	
1368	0	30560	
1369	0	30600	
1370	0	30656	
1371	0	30644	
1372	0	30648	
1373	0	30648	
1374	0	30688	
1375	0	30796	
1376	0	30878	
1377	0	30880	
1378	0	30856	
1379	0	30864	
1380	0	30840	
1381	0	30880	
1382	0	30904	
1383	0	30880	
1384	0	30804	
1385	0	30760	
1386	0	30772	
1387	0	30788	
1388	0	30800	
1389	0	30848	
1390	0	30884	
1391	0	30944	
1392	0	31000	
1393	0	31040	
1394	0	31108	
1395	0	31152	
1396	0	31140	
1397	0	31092	
1398	0	31024	
1399	0	30984	
1400	0	30964	
1401	0	30928	
1402	0	30938	
1403	0	31012	
1404	0	31100	
1405	0	31120	
1406	0	31020	
1407	0	30804	
1408	0	30396	
1409	0	29774	
1410	0	28876	
1411	0	27762	
1412	0	26528	
1413	0	25256	
1414	0	24064	
1415	0	22916	
1416	0	21882	
1417	0	21088	
1418	0	20512	
1419	0	20152	
1420	0	20050	
1421	0	20332	
1422	0	20816	
1423	0	21404	
1424	0	22280	
1425	0	23664	
1426	0	25468	
1427	0	27676	
1428	0	30220	
1429	0	33088	
1430	0	36424	
1431	0	39940	
1432	0	43808	
1433	0	48016	
1434	0	52388	
1435	0	56728	
1436	0	60448	
1437	0	62704	
1438	0	63888	
1439	0	64464	
1440	0	64736	
1441	0	64832	
1442	0	64792	
1443	0	64740	
1444	0	64636	
1445	0	64528	
1446	0	64408	
1447	0	63160	
1448	0	55984	
1449	0	50292	
1450	0	45868	
1451	0	41896	
1452	0	37864	
1453	0	34436	
1454	0	31944	
1455	0	29820	
1456	0	27588	
1457	0	25636	
1458	0	24240	
1459	0	23248	
1460	0	22554	
1461	0	21982	
1462	0	21524	
1463	0	21176	
1464	0	20732	
1465	0	20248	
1466	0	19874	
1467	0	19724	
1468	0	19745	
1469	0	19936	
1470	0	20084	
1471	0	20096	
1472	0	20192	
1473	0	20368	
1474	0	20616	
1475	0	20992	
1476	0	21488	
1477	0	22044	
1478	0	22620	
1479	0	23280	
1480	0	24032	
1481	0	24789	
1482	0	25530	
1483	0	26320	
1484	0	27072	
1485	0	27664	
1486	0	28094	
1487	0	28408	
1488	0	28678	
1489	0	28908	
1490	0	29160	
1491	0	29358	
1492	0	29484	
1493	0	29576	
1494	0	29714	
1495	0	29828	
1496	0	29892	
1497	0	29912	
1498	0	29912	
1499	0	29984	
1500	0	30080	
1501	0	30194	
1502	0	30300	
1503	0	30404	
1504	0	30528	
1505	0	30628	
1506	0	30676	
1507	0	30724	
1508	0	30760	
1509	0	30824	
1510	0	30960	
1511	0	31024	
1512	0	31056	
1513	0	31116	
1514	0	31200	
1515	0	31276	
1516	0	31284	
1517	0	31202	
1518	0	31136	
1519	0	31136	
1520	0	31128	
1521	0	31152	
1522	0	31184	
1523	0	31232	
1524	0	31332	
1525	0	31464	
1526	0	31596	
1527	0	31740	
1528	0	31824	
1529	0	31856	
1530	0	31856	
1531	0	31896	
1532	0	31984	
1533	0	32108	
1534	0	32192	
1535	0	32256	
1536	0	32296	
1537	0	32304	
1538	0	32304	
1539	0	32298	
1540	0	32292	
1541	0	32264	
1542	0	32256	
1543	0	32296	
1544	0	32360	
1545	0	32412	
1546	0	32440	
1547	0	32392	
1548	0	32328	
1549	0	32316	
1550	0	32374	
1551	0	32488	
1552	0	32636	
1553	0	32728	
1554	0	32832	
1555	0	32920	
1556	0	32980	
1557	0	33020	
1558	0	33020	
1559	0	33008	
1560	0	33016	
1561	0	33072	
1562	0	33112	
1563	0	33144	
1564	0	33148	
1565	0	33148	
1566	0	33144	
1567	0	33156	
1568	0	33160	
1569	0	33164	
1570	0	33154	
1571	0	33152	
1572	0	33144	
1573	0	33144	
1574	0	33136	
1575	0	33120	
1576	0	33148	
1577	0	33140	
1578	0	33096	
1579	0	33072	
1580	0	33088	
1581	0	33096	
1582	0	33090	
1583	0	33096	
1584	0	33112	
1585	0	33144	
1586	0	33232	
1587	0	33340	
1588	0	33444	
1589	0	33524	
1590	0	33624	
1591	0	33740	
1592	0	33788	
1593	0	33752	
1594	0	33714	
1595	0	33728	
1596	0	33784	
1597	0	33748	
1598	0	33700	
1599	0	33644	
1600	0	33592	
1601	0	33580	
1602	0	33564	
1603	0	33508	
1604	0	33434	
1605	0	33400	
1606	0	33420	
1607	0	33456	
1608	0	33504	
1609	0	33504	
1610	0	33496	
1611	0	33504	
1612	0	33528	
1613	0	33544	
1614	0	33584	
1615	0	33648	
1616	0	33696	
1617	0	33772	
1618	0	33874	
1619	0	33924	
1620	0	33964	
1621	0	33936	
1622	0	33876	
1623	0	33836	
1624	0	33828	
1625	0	33860	
1626	0	33888	
1627	0	33876	
1628	0	33856	
1629	0	33826	
1630	0	33804	
1631	0	33840	
1632	0	33888	
1633	0	33904	
1634	0	33888	
1635	0	33860	
1636	0	33896	
1637	0	33936	
1638	0	33944	
1639	0	33920	
1640	0	33860	
1641	0	33852	
1642	0	33882	
1643	0	33912	
1644	0	33944	
1645	0	33932	
1646	0	33868	
1647	0	33880	
1648	0	33900	
1649	0	33944	
1650	0	33972	
1651	0	33996	
1652	0	34000	
1653	0	34016	
1654	0	34032	
1655	0	34056	
1656	0	34056	
1657	0	34096	
1658	0	34112	
1659	0	34144	
1660	0	34144	
1661	0	34128	
1662	0	34076	
1663	0	34080	
1664	0	34116	
1665	0	34128	
1666	0	34072	
1667	0	34028	
1668	0	33960	
1669	0	33890	
1670	0	33780	
1671	0	33732	
1672	0	33736	
1673	0	33728	
1674	0	33696	
1675	0	33668	
1676	0	33664	
1677	0	33700	
1678	0	33696	
1679	0	33696	
1680	0	33688	
1681	0	33660	
1682	0	33680	
1683	0	33666	
1684	0	33656	
1685	0	33632	
1686	0	33604	
1687	0	33528	
1688	0	33484	
1689	0	33444	
1690	0	33344	
1691	0	33228	
1692	0	33132	
1693	0	33012	
1694	0	32930	
1695	0	32818	
1696	0	32720	
1697	0	32640	
1698	0	32608	
1699	0	32576	
1700	0	32524	
1701	0	32548	
1702	0	32568	
1703	0	32468	
1704	0	32344	
1705	0	32288	
1706	0	32316	
1707	0	32396	
1708	0	32464	
1709	0	32496	
1710	0	32484	
1711	0	32372	
1712	0	32244	
1713	0	32162	
1714	0	32224	
1715	0	32224	
1716	0	32176	
1717	0	32136	
1718	0	32156	
1719	0	32160	
1720	0	32100	
1721	0	31992	
1722	0	31900	
1723	0	31888	
1724	0	31916	
1725	0	31968	
1726	0	31970	
1727	0	31948	
1728	0	31968	
1729	0	31964	
1730	0	31916	
1731	0	31918	
1732	0	31920	
1733	0	31952	
1734	0	31968	
1735	0	31976	
1736	0	31952	
1737	0	31960	
1738	0	31988	
1739	0	32004	
1740	0	31992	
1741	0	32008	
1742	0	32000	
1743	0	31944	
1744	0	31936	
1745	0	31944	
1746	0	31996	
1747	0	32056	
1748	0	32068	
1749	0	32024	
1750	0	32012	
1751	0	32008	
1752	0	32068	
1753	0	32140	
1754	0	32212	
1755	0	32236	
1756	0	32288	
1757	0	32332	
1758	0	32304	
1759	0	32264	
1760	0	32252	
1761	0	32208	
1762	0	32236	
1763	0	32272	
1764	0	32308	
1765	0	32308	
1766	0	32284	
1767	0	32236	
1768	0	32260	
1769	0	32308	
1770	0	32324	
1771	0	32304	
1772	0	32328	
1773	0	32352	
1774	0	32296	
1775	0	32276	
1776	0	32300	
1777	0	32332	
1778	0	32324	
1779	0	32308	
1780	0	32308	
1781	0	32340	
1782	0	32336	
1783	0	32314	
1784	0	32324	
1785	0	32356	
1786	0	32384	
1787	0	32416	
1788	0	32392	
1789	0	32352	
1790	0	32344	
1791	0	32380	
1792	0	32400	
1793	0	32396	
1794	0	32396	
1795	0	32464	
1796	0	32578	
1797	0	32640	
1798	0	32696	
1799	0	32768	
1800	0	32804	
1801	0	32820	
1802	0	32848	
1803	0	32864	
1804	0	32864	
1805	0	32892	
1806	0	32920	
1807	0	32934	
1808	0	32932	
1809	0	32916	
1810	0	32872	
1811	0	32840	
1812	0	32772	
1813	0	32712	
1814	0	32660	
1815	0	32668	
1816	0	32736	
1817	0	32784	
1818	0	32792	
1819	0	32844	
1820	0	32926	
1821	0	32992	
1822	0	32996	
1823	0	32976	
1824	0	33028	
1825	0	33120	
1826	0	33140	
1827	0	33146	
1828	0	33136	
1829	0	33140	
1830	0	33140	
1831	0	33164	
1832	0	33168	
1833	0	33152	
1834	0	33136	
1835	0	33104	
1836	0	33088	
1837	0	33068	
1838	0	33068	
1839	0	33080	
1840	0	33072	
1841	0	33096	
1842	0	33144	
1843	0	33172	
1844	0	33148	
1845	0	33140	
1846	0	33124	
1847	0	33124	
1848	0	33132	
1849	0	33128	
1850	0	33126	
1851	0	33118	
1852	0	33122	
1853	0	33124	
1854	0	33108	
1855	0	33080	
1856	0	33058	
1857	0	33064	
1858	0	33104	
1859	0	33148	
1860	0	33160	
1861	0	33152	
1862	0	33158	
1863	0	33172	
1864	0	33152	
1865	0	33152	
1866	0	33168	
1867	0	33208	
1868	0	33242	
1869	0	33244	
1870	0	33252	
1871	0	33252	
1872	0	33240	
1873	0	33216	
1874	0	33176	
1875	0	33164	
1876	0	33168	
1877	0	33176	
1878	0	33116	
1879	0	33070	
1880	0	33020	
1881	0	33004	
1882	0	33012	
1883	0	33018	
1884	0	33056	
1885	0	33084	
1886	0	33084	
1887	0	33156	
1888	0	33212	
1889	0	33312	
1890	0	33416	
1891	0	33520	
1892	0	33600	
1893	0	33652	
1894	0	33752	
1895	0	33836	
1896	0	33912	
1897	0	34000	
1898	0	34092	
1899	0	34176	
1900	0	34252	
1901	0	34336	
1902	0	34352	
1903	0	34348	
1904	0	34352	
1905	0	34314	
1906	0	34284	
1907	0	34260	
1908	0	34280	
1909	0	34284	
1910	0	34240	
1911	0	34188	
1912	0	34164	
1913	0	34148	
1914	0	34168	
1915	0	34224	
1916	0	34336	
1917	0	34496	
1918	0	34720	
1919	0	34956	
1920	0	35168	
1921	0	35384	
1922	0	35680	
1923	0	35972	
1924	0	36220	
1925	0	36400	
1926	0	36544	
1927	0	36640	
1928	0	36668	
1929	0	36656	
1930	0	36640	
1931	0	36716	
1932	0	36816	
1933	0	36884	
1934	0	36896	
1935	0	36832	
1936	0	36736	
1937	0	36620	
1938	0	36512	
1939	0	36396	
1940	0	36296	
1941	0	36232	
1942	0	36192	
1943	0	36152	
1944	0	36136	
1945	0	36112	
1946	0	36028	
1947	0	35888	
1948	0	35744	
1949	0	35652	
1950	0	35580	
1951	0	35460	
1952	0	35354	
1953	0	35220	
1954	0	35056	
1955	0	34888	
1956	0	34666	
1957	0	34348	
1958	0	33940	
1959	0	33488	
1960	0	33052	
1961	0	32658	
1962	0	32298	
1963	0	32000	
1964	0	31772	
1965	0	31620	
1966	0	31536	
1967	0	31444	
1968	0	31424	
1969	0	31442	
1970	0	31416	
1971	0	31316	
1972	0	31192	
1973	0	31062	
1974	0	30964	
1975	0	30896	
1976	0	30848	
1977	0	30780	
1978	0	30716	
1979	0	30696	
1980	0	30696	
1981	0	30720	
1982	0	30768	
1983	0	30752	
1984	0	30692	
1985	0	30656	
1986	0	30656	
1987	0	30704	
1988	0	30752	
1989	0	30808	
1990	0	30860	
1991	0	30948	
1992	0	31036	
1993	0	31100	
1994	0	31128	
1995	0	31104	
1996	0	31084	
1997	0	31076	
1998	0	31080	
1999	0	31116	
2000	0	31112	
2001	0	31112	
2002	0	31104	
2003	0	31100	
2004	0	31076	
2005	0	31024	
2006	0	31000	
2007	0	31000	
2008	0	30978	
2009	0	30984	
2010	0	30984	
2011	0	30988	
2012	0	30924	
2013	0	30912	
2014	0	30924	
2015	0	30968	
2016	0	30940	
2017	0	30820	
2018	0	30664	
2019	0	30436	
2020	0	30036	
2021	0	29364	
2022	0	28368	
2023	0	27202	
2024	0	25916	
2025	0	24602	
2026	0	23348	
2027	0	22236	
2028	0	21338	
2029	0	20672	
2030	0	20212	
2031	0	20020	
2032	0	20168	
2033	0	20632	
2034	0	21144	
2035	0	21776	
2036	0	22870	
2037	0	24524	
2038	0	26642	
2039	0	29178	
2040	0	32032	
2041	0	35440	
2042	0	39084	
2043	0	43064	
2044	0	47400	
2045	0	51936	
2046	0	56552	
2047	0	60416	
2048	0	62592	
2049	0	63764	
2050	0	64324	
2051	0	64576	
2052	0	64648	
2053	0	64640	
2054	0	64576	
2055	0	64480	
2056	0	64372	
2057	0	64248	
2058	0	64128	
2059	0	61304	
2060	0	55600	
2061	0	51392	
2062	0	47536	
2063	0	43336	
2064	0	39312	
2065	0	36056	
2066	0	33168	
2067	0	30368	
2068	0	27944	
2069	0	26216	
2070	0	25000	
2071	0	24152	
2072	0	23512	
2073	0	22992	
2074	0	22442	
2075	0	21908	
2076	0	21340	
2077	0	20932	
2078	0	20720	
2079	0	20688	
2080	0	20772	
2081	0	20720	
2082	0	20690	
2083	0	20720	
2084	0	20864	
2085	0	21220	
2086	0	21652	
2087	0	22170	
2088	0	22660	
2089	0	23098	
2090	0	23496	
2091	0	23972	
2092	0	24600	
2093	0	25310	
2094	0	26028	
2095	0	26660	
2096	0	27216	
2097	0	27712	
2098	0	28136	
2099	0	28484	
2100	0	28820	
2101	0	29052	
2102	0	29192	
2103	0	29270	
2104	0	29376	
2105	0	29456	
2106	0	29514	
2107	0	29528	
2108	0	29552	
2109	0	29620	
2110	0	29700	
2111	0	29784	
2112	0	29828	
2113	0	29848	
2114	0	29888	
2115	0	29956	
2116	0	30012	
2117	0	30064	
2118	0	30116	
2119	0	30188	
2120	0	30244	
2121	0	30276	
2122	0	30352	
2123	0	30472	
2124	0	30592	
2125	0	30748	
2126	0	30846	
2127	0	30892	
2128	0	30970	
2129	0	31072	
2130	0	31168	
2131	0	31252	
2132	0	31292	
2133	0	31328	
2134	0	31356	
2135	0	31392	
2136	0	31388	
2137	0	31392	
2138	0	31424	
2139	0	31448	
2140	0	31448	
2141	0	31448	
2142	0	31488	
2143	0	31536	
2144	0	31584	
2145	0	31616	
2146	0	31640	
2147	0	31664	
2148	0	31708	
2149	0	31764	
2150	0	31776	
2151	0	31828	
2152	0	31904	
2153	0	31950	
2154	0	32024	
2155	0	32092	
2156	0	32148	
2157	0	32192	
2158	0	32244	
2159	0	32288	
2160	0	32336	
2161	0	32392	
2162	0	32416	
2163	0	32440	
2164	0	32448	
2165	0	32432	
2166	0	32408	
2167	0	32436	
2168	0	32484	
2169	0	32536	
2170	0	32574	
2171	0	32612	
2172	0	32632	
2173	0	32616	
2174	0	32592	
2175	0	32578	
2176	0	32572	
2177	0	32568	
2178	0	32544	
2179	0	32556	
2180	0	32564	
2181	0	32564	
2182	0	32560	
2183	0	32636	
2184	0	32704	
2185	0	32770	
2186	0	32816	
2187	0	32836	
2188	0	32844	
2189	0	32896	
2190	0	33000	
2191	0	33056	
2192	0	33052	
2193	0	33040	
2194	0	33064	
2195	0	33076	
2196	0	33096	
2197	0	33096	
2198	0	33068	
2199	0	33032	
2200	0	33044	
2201	0	33052	
2202	0	33060	
2203	0	33048	
2204	0	33044	
2205	0	33064	
2206	0	33100	
2207	0	33108	
2208	0	33120	
2209	0	33152	
2210	0	33152	
2211	0	33180	
2212	0	33168	
2213	0	33144	
2214	0	33098	
2215	0	33050	
2216	0	33040	
2217	0	33056	
2218	0	33048	
2219	0	33044	
2220	0	33056	
2221	0	33072	
2222	0	33104	
2223	0	33176	
2224	0	33252	
2225	0	33320	
2226	0	33388	
2227	0	33460	
2228	0	33556	
2229	0	33600	
2230	0	33636	
2231	0	33668	
2232	0	33660	
2233	0	33632	
2234	0	33616	
2235	0	33564	
2236	0	33544	
2237	0	33548	
2238	0	33576	
2239	0	33568	
2240	0	33572	
2241	0	33560	
2242	0	33544	
2243	0	33544	
2244	0	33544	
2245	0	33548	
2246	0	33532	
2247	0	33504	
2248	0	33532	
2249	0	33564	
2250	0	33536	
2251	0	33512	
2252	0	33528	
2253	0	33616	
2254	0	33737	
2255	0	33812	
2256	0	33820	
2257	0	33832	
2258	0	33828	
2259	0	33868	
2260	0	33896	
2261	0	33916	
2262	0	33932	
2263	0	33914	
2264	0	33884	
2265	0	33844	
2266	0	33812	
2267	0	33816	
2268	0	33812	
2269	0	33856	
2270	0	33948	
2271	0	34032	
2272	0	34050	
2273	0	34032	
2274	0	34006	
2275	0	34008	
2276	0	33984	
2277	0	34000	
2278	0	34040	
2279	0	34048	
2280	0	34004	
2281	0	34008	
2282	0	34020	
2283	0	34028	
2284	0	34034	
2285	0	34016	
2286	0	33948	
2287	0	33868	
2288	0	33800	
2289	0	33728	
2290	0	33680	
2291	0	33616	
2292	0	33576	
2293	0	33572	
2294	0	33564	
2295	0	33500	
2296	0	33424	
2297	0	33360	
2298	0	33256	
2299	0	33124	
2300	0	33012	
2301	0	32920	
2302	0	32872	
2303	0	32840	
2304	0	32816	
2305	0	32808	
2306	0	32800	
2307	0	32800	
2308	0	32760	
2309	0	32732	
2310	0	32756	
2311	0	32720	
2312	0	32628	
2313	0	32532	
2314	0	32464	
2315	0	32404	
2316	0	32392	
2317	0	32394	
2318	0	32368	
2319	0	32324	
2320	0	32288	
2321	0	32244	
2322	0	32232	
2323	0	32182	
2324	0	32128	
2325	0	32084	
2326	0	32028	
2327	0	31992	
2328	0	31936	
2329	0	31916	
2330	0	31892	
2331	0	31868	
2332	0	31856	
2333	0	31842	
2334	0	31812	
2335	0	31778	
2336	0	31744	
2337	0	31720	
2338	0	31732	
2339	0	31724	
2340	0	31754	
2341	0	31776	
2342	0	31832	
2343	0	31888	
2344	0	31920	
2345	0	31944	
2346	0	31936	
2347	0	31920	
2348	0	31916	
2349	0	31912	
2350	0	31960	
2351	0	31936	
2352	0	31952	
2353	0	31944	
2354	0	31916	
2355	0	31896	
2356	0	31864	
2357	0	31828	
2358	0	31776	
2359	0	31748	
2360	0	31776	
2361	0	31804	
2362	0	31828	
2363	0	31844	
2364	0	31876	
2365	0	31904	
2366	0	31904	
2367	0	31928	
2368	0	31948	
2369	0	31964	
2370	0	31972	
2371	0	32004	
2372	0	32060	
2373	0	32096	
2374	0	32128	
2375	0	32132	
2376	0	32172	
2377	0	32248	
2378	0	32296	
2379	0	32282	
2380	0	32284	
2381	0	32292	
2382	0	32280	
2383	0	32256	
2384	0	32224	
2385	0	32260	
2386	0	32300	
2387	0	32288	
2388	0	32300	
2389	0	32264	
2390	0	32264	
2391	0	32288	
2392	0	32300	
2393	0	32332	
2394	0	32356	
2395	0	32368	
2396	0	32384	
2397	0	32416	
2398	0	32448	
2399	0	32464	
2400	0	32488	
2401	0	32500	
2402	0	32514	
2403	0	32536	
2404	0	32560	
2405	0	32560	
2406	0	32548	
2407	0	32512	
2408	0	32476	
2409	0	32472	
2410	0	32520	
2411	0	32560	
2412	0	32568	
2413	0	32544	
2414	0	32504	
2415	0	32560	
2416	0	32640	
2417	0	32652	
2418	0	32680	
2419	0	32724	
2420	0	32780	
2421	0	32816	
2422	0	32840	
2423	0	32864	
2424	0	32908	
2425	0	32992	
2426	0	33024	
2427	0	33032	
2428	0	33064	
2429	0	33096	
2430	0	33112	
2431	0	33081	
2432	0	33044	
2433	0	33040	
2434	0	33024	
2435	0	33032	
2436	0	33020	
2437	0	32954	
2438	0	32866	
2439	0	32804	
2440	0	32760	
2441	0	32740	
2442	0	32746	
2443	0	32776	
2444	0	32816	
2445	0	32880	
2446	0	32922	
2447	0	33000	
2448	0	33084	
2449	0	33148	
2450	0	33192	
2451	0	33244	
2452	0	33260	
2453	0	33250	
2454	0	33228	
2455	0	33200	
2456	0	33194	
2457	0	33216	
2458	0	33184	
2459	0	33156	
2460	0	33124	
2461	0	33120	
2462	0	33140	
2463	0	33172	
2464	0	33172	
2465	0	33116	
2466	0	33064	
2467	0	33044	
2468	0	33016	
2469	0	33036	
2470	0	33068	
2471	0	33100	
2472	0	33080	
2473	0	33128	
2474	0	33174	
2475	0	33220	
2476	0	33256	
2477	0	33228	
2478	0	33196	
2479	0	33204	
2480	0	33208	
2481	0	33184	
2482	0	33140	
2483	0	33112	
2484	0	33092	
2485	0	33076	
2486	0	33056	
2487	0	33048	
2488	0	33064	
2489	0	33080	
2490	0	33064	
2491	0	33032	
2492	0	32986	
2493	0	32924	
2494	0	32856	
2495	0	32864	
2496	0	32892	
2497	0	32880	
2498	0	32840	
2499	0	32804	
2500	0	32800	
2501	0	32832	
2502	0	32866	
2503	0	32940	
2504	0	33008	
2505	0	33020	
2506	0	33032	
2507	0	32996	
2508	0	32950	
2509	0	32928	
2510	0	32928	
2511	0	32888	
2512	0	32832	
2513	0	32784	
2514	0	32732	
2515	0	32712	
2516	0	32738	
2517	0	32768	
2518	0	32788	
2519	0	32788	
2520	0	32812	
2521	0	32824	
2522	0	32772	
2523	0	32768	
2524	0	32728	
2525	0	32708	
2526	0	32716	
2527	0	32712	
2528	0	32712	
2529	0	32768	
2530	0	32800	
2531	0	32800	
2532	0	32748	
2533	0	32692	
2534	0	32668	
2535	0	32672	
2536	0	32690	
2537	0	32732	
2538	0	32728	
2539	0	32668	
2540	0	32600	
2541	0	32560	
2542	0	32556	
2543	0	32520	
2544	0	32512	
2545	0	32556	
2546	0	32572	
2547	0	32580	
2548	0	32588	
2549	0	32600	
2550	0	32544	
2551	0	32488	
2552	0	32484	
2553	0	32496	
2554	0	32512	
2555	0	32556	
2556	0	32608	
2557	0	32632	
2558	0	32680	
2559	0	32712	
2560	0	32786	
2561	0	32828	
2562	0	32888	
2563	0	32972	
2564	0	33036	
2565	0	33088	
2566	0	33172	
2567	0	33248	
2568	0	33328	
2569	0	33448	
2570	0	33564	
2571	0	33692	
2572	0	33792	
2573	0	33864	
2574	0	33928	
2575	0	34016	
2576	0	34066	
2577	0	34084	
2578	0	34088	
2579	0	34064	
2580	0	34072	
2581	0	34088	
2582	0	34136	
2583	0	34122	
2584	0	34104	
2585	0	34056	
2586	0	34052	
2587	0	34144	
2588	0	34328	
2589	0	34560	
2590	0	34788	
2591	0	35048	
2592	0	35296	
2593	0	35568	
2594	0	35808	
2595	0	36000	
2596	0	36192	
2597	0	36352	
2598	0	36462	
2599	0	36544	
2600	0	36592	
2601	0	36612	
2602	0	36664	
2603	0	36696	
2604	0	36672	
2605	0	36672	
2606	0	36570	
2607	0	36368	
2608	0	36196	
2609	0	36108	
2610	0	36074	
2611	0	36064	
2612	0	36064	
2613	0	36100	
2614	0	36088	
2615	0	36040	
2616	0	36024	
2617	0	35944	
2618	0	35822	
2619	0	35712	
2620	0	35620	
2621	0	35546	
2622	0	35416	
2623	0	35240	
2624	0	35004	
2625	0	34740	
2626	0	34444	
2627	0	34144	
2628	0	33772	
2629	0	33408	
2630	0	32988	
2631	0	32544	
2632	0	32220	
2633	0	31948	
2634	0	31752	
2635	0	31632	
2636	0	31564	
2637	0	31532	
2638	0	31512	
2639	0	31428	
2640	0	31332	
2641	0	31244	
2642	0	31124	
2643	0	31010	
2644	0	30928	
2645	0	30848	
2646	0	30748	
2647	0	30656	
2648	0	30588	
2649	0	30592	
2650	0	30604	
2651	0	30604	
2652	0	30664	
2653	0	30716	
2654	0	30780	
2655	0	30864	
2656	0	30894	
2657	0	30912	
2658	0	30932	
2659	0	30952	
2660	0	30968	
2661	0	30980	
2662	0	30996	
2663	0	30976	
2664	0	30944	
2665	0	30944	
2666	0	30944	
2667	0	30912	
2668	0	30896	
2669	0	30844	
2670	0	30816	
2671	0	30788	
2672	0	30772	
2673	0	30776	
2674	0	30772	
2675	0	30796	
2676	0	30876	
2677	0	30972	
2678	0	31072	
2679	0	31168	
2680	0	31228	
2681	0	31266	
2682	0	31276	
2683	0	31296	
2684	0	31272	
2685	0	31264	
2686	0	31216	
2687	0	31128	
2688	0	30960	
2689	0	30704	
2690	0	30282	
2691	0	29556	
2692	0	28506	
2693	0	27324	
2694	0	26092	
2695	0	24852	
2696	0	23714	
2697	0	22696	
2698	0	21872	
2699	0	21264	
2700	0	20894	
2701	0	20778	
2702	0	20884	
2703	0	21320	
2704	0	21884	
2705	0	22600	
2706	0	23788	
2707	0	25552	
2708	0	27744	
2709	0	30260	
2710	0	33120	
2711	0	36508	
2712	0	40144	
2713	0	44144	
2714	0	48448	
2715	0	52932	
2716	0	57492	
2717	0	60968	
2718	0	62864	
2719	0	63856	
2720	0	64344	
2721	0	64560	
2722	0	64598	
2723	0	64560	
2724	0	64496	
2725	0	64392	
2726	0	64260	
2727	0	64172	
2728	0	64032	
2729	0	58908	
2730	0	53864	
2731	0	49936	
2732	0	46016	
2733	0	42048	
2734	0	38488	
2735	0	35628	
2736	0	33120	
2737	0	30496	
2738	0	28060	
2739	0	26232	
2740	0	24916	
2741	0	23972	
2742	0	23214	
2743	0	22564	
2744	0	22030	
2745	0	21564	
2746	0	21074	
2747	0	20680	
2748	0	20500	
2749	0	20544	
2750	0	20684	
2751	0	20812	
2752	0	20897	
2753	0	20986	
2754	0	21241	
2755	0	21628	
2756	0	22056	
2757	0	22472	
2758	0	22852	
2759	0	23232	
2760	0	23666	
2761	0	24186	
2762	0	24812	
2763	0	25488	
2764	0	26120	
2765	0	26712	
2766	0	27280	
2767	0	27766	
2768	0	28170	
2769	0	28460	
2770	0	28712	
2771	0	28898	
2772	0	29048	
2773	0	29168	
2774	0	29292	
2775	0	29392	
2776	0	29496	
2777	0	29536	
2778	0	29604	
2779	0	29648	
2780	0	29720	
2781	0	29812	
2782	0	29880	
2783	0	29944	
2784	0	30024	
2785	0	30112	
2786	0	30192	
2787	0	30256	
2788	0	30296	
2789	0	30308	
2790	0	30368	
2791	0	30444	
2792	0	30520	
2793	0	30584	
2794	0	30652	
2795	0	30700	
2796	0	30748	
2797	0	30812	
2798	0	30848	
2799	0	30896	
2800	0	30954	
2801	0	31064	
2802	0	31124	
2803	0	31184	
2804	0	31216	
2805	0	31248	
2806	0	31296	
2807	0	31368	
2808	0	31404	
2809	0	31432	
2810	0	31464	
2811	0	31528	
2812	0	31624	
2813	0	31724	
2814	0	31832	
2815	0	31864	
2816	0	31870	
2817	0	31872	
2818	0	31902	
2819	0	31956	
2820	0	32004	
2821	0	32004	
2822	0	32004	
2823	0	32026	
2824	0	32020	
2825	0	32000	
2826	0	32024	
2827	0	32056	
2828	0	32104	
2829	0	32170	
2830	0	32218	
2831	0	32244	
2832	0	32304	
2833	0	32344	
2834	0	32352	
2835	0	32368	
2836	0	32412	
2837	0	32440	
2838	0	32457	
2839	0	32452	
2840	0	32452	
2841	0	32482	
2842	0	32500	
2843	0	32522	
2844	0	32548	
2845	0	32572	
2846	0	32604	
2847	0	32620	
2848	0	32632	
2849	0	32644	
2850	0	32654	
2851	0	32632	
2852	0	32644	
2853	0	32668	
2854	0	32664	
2855	0	32674	
2856	0	32714	
2857	0	32728	
2858	0	32708	
2859	0	32736	
2860	0	32792	
2861	0	32832	
2862	0	32864	
2863	0	32888	
2864	0	32908	
2865	0	32920	
2866	0	32928	
2867	0	32938	
2868	0	32944	
2869	0	32960	
2870	0	33008	
2871	0	33048	
2872	0	33084	
2873	0	33072	
2874	0	33028	
2875	0	33020	
2876	0	33056	
2877	0	33048	
2878	0	33044	
2879	0	33024	
2880	0	33016	
2881	0	33044	
2882	0	33032	
2883	0	33004	
2884	0	32944	
2885	0	32924	
2886	0	32972	
2887	0	33036	
2888	0	33074	
2889	0	33080	
2890	0	33104	
2891	0	33144	
2892	0	33208	
2893	0	33268	
2894	0	33364	
2895	0	33472	
2896	0	33544	
2897	0	33556	
2898	0	33528	
2899	0	33504	
2900	0	33480	
2901	0	33460	
2902	0	33468	
2903	0	33480	
2904	0	33488	
2905	0	33484	
2906	0	33480	
2907	0	33468	
2908	0	33500	
2909	0	33524	
2910	0	33512	
2911	0	33496	
2912	0	33528	
2913	0	33552	
2914	0	33544	
2915	0	33516	
2916	0	33500	
2917	0	33496	
2918	0	33488	
2919	0	33520	
2920	0	33550	
2921	0	33552	
2922	0	33568	
2923	0	33624	
2924	0	33640	
2925	0	33642	
2926	0	33636	
2927	0	33620	
2928	0	33572	
2929	0	33532	
2930	0	33520	
2931	0	33560	
2932	0	33580	
2933	0	33560	
2934	0	33560	
2935	0	33612	
2936	0	33652	
2937	0	33640	
2938	0	33594	
2939	0	33560	
2940	0	33558	
2941	0	33612	
2942	0	33692	
2943	0	33764	
2944	0	33816	
2945	0	33872	
2946	0	33936	
2947	0	33980	
2948	0	33956	
2949	0	33940	
2950	0	33904	
2951	0	33868	
2952	0	33810	
2953	0	33796	
2954	0	33788	
2955	0	33784	
2956	0	33812	
2957	0	33820	
2958	0	33824	
2959	0	33826	
2960	0	33796	
2961	0	33792	
2962	0	33768	
2963	0	33732	
2964	0	33688	
2965	0	33628	
2966	0	33592	
2967	0	33564	
2968	0	33520	
2969	0	33452	
2970	0	33416	
2971	0	33352	
2972	0	33272	
2973	0	33220	
2974	0	33160	
2975	0	33112	
2976	0	33020	
2977	0	32936	
2978	0	32852	
2979	0	32776	
2980	0	32768	
2981	0	32772	
2982	0	32720	
2983	0	32672	
2984	0	32656	
2985	0	32620	
2986	0	32542	
2987	0	32448	
2988	0	32376	
2989	0	32288	
2990	0	32216	
2991	0	32160	
2992	0	32128	
2993	0	32108	
2994	0	32158	
2995	0	32236	
2996	0	32272	
2997	0	32290	
2998	0	32300	
2999	0	32312	
3000	0	32312	
3001	0	32288	
3002	0	32216	
3003	0	32164	
3004	0	32138	
3005	0	32108	
3006	0	32064	
3007	0	32000	
3008	0	31928	
3009	0	31868	
3010	0	31808	
3011	0	31752	
3012	0	31736	
3013	0	31700	
3014	0	31708	
3015	0	31712	
3016	0	31688	
3017	0	31676	
3018	0	31712	
3019	0	31742	
3020	0	31740	
3021	0	31720	
3022	0	31672	
3023	0	31620	
3024	0	31666	
3025	0	31744	
3026	0	31776	
3027	0	31816	
3028	0	31856	
3029	0	31868	
3030	0	31872	
3031	0	31892	
3032	0	31930	
3033	0	31964	
3034	0	32008	
3035	0	32030	
3036	0	31984	
3037	0	31896	
3038	0	31876	
3039	0	31876	
3040	0	31868	
3041	0	31864	
3042	0	31862	
3043	0	31868	
3044	0	31892	
3045	0	31880	
3046	0	31842	
3047	0	31832	
3048	0	31840	
3049	0	31860	
3050	0	31868	
3051	0	31896	
3052	0	31904	
3053	0	31948	
3054	0	31952	
3055	0	31948	
3056	0	31988	
3057	0	32004	
3058	0	32064	
3059	0	32104	
3060	0	32176	
3061	0	32260	
3062	0	32328	
3063	0	32336	
3064	0	32340	
3065	0	32344	
3066	0	32348	
3067	0	32344	
3068	0	32384	
3069	0	32436	
3070	0	32436	
3071	0	32412	
3072	0	32388	
3073	0	32360	
3074	0	32364	
3075	0	32412	
3076	0	32468	
3077	0	32540	
3078	0	32576	
3079	0	32576	
3080	0	32560	
3081	0	32572	
3082	0	32634	
3083	0	32704	
3084	0	32712	
3085	0	32700	
3086	0	32724	
3087	0	32784	
3088	0	32800	
3089	0	32816	
3090	0	32832	
3091	0	32792	
3092	0	32762	
3093	0	32752	
3094	0	32786	
3095	0	32858	
3096	0	32948	
3097	0	33024	
3098	0	33084	
3099	0	33068	
3100	0	33004	
3101	0	32956	
3102	0	32932	
3103	0	32858	
3104	0	32780	
3105	0	32752	
3106	0	32768	
3107	0	32848	
3108	0	32900	
3109	0	32936	
3110	0	32952	
3111	0	32960	
3112	0	32952	
3113	0	32980	
3114	0	33036	
3115	0	33116	
3116	0	33152	
3117	0	33184	
3118	0	33224	
3119	0	33220	
3120	0	33216	
3121	0	33260	
3122	0	33304	
3123	0	33328	
3124	0	33356	
3125	0	33348	
3126	0	33320	
3127	0	33272	
3128	0	33276	
3129	0	33304	
3130	0	33272	
3131	0	33252	
3132	0	33216	
3133	0	33184	
3134	0	33156	
3135	0	33188	
3136	0	33236	
3137	0	33236	
3138	0	33216	
3139	0	33172	
3140	0	33098	
3141	0	33044	
3142	0	33020	
3143	0	32980	
3144	0	32948	
3145	0	32888	
3146	0	32856	
3147	0	32832	
3148	0	32876	
3149	0	32900	
3150	0	32872	
3151	0	32792	
3152	0	32810	
3153	0	32952	
3154	0	33068	
3155	0	33152	
3156	0	33184	
3157	0	33204	
3158	0	33180	
3159	0	33162	
3160	0	33164	
3161	0	33194	
3162	0	33176	
3163	0	33128	
3164	0	33128	
3165	0	33172	
3166	0	33204	
3167	0	33204	
3168	0	33204	
3169	0	33208	
3170	0	33234	
3171	0	33224	
3172	0	33184	
3173	0	33156	
3174	0	33098	
3175	0	33016	
3176	0	32932	
3177	0	32848	
3178	0	32794	
3179	0	32816	
3180	0	32864	
3181	0	32880	
3182	0	32856	
3183	0	32826	
3184	0	32820	
3185	0	32816	
3186	0	32856	
3187	0	32948	
3188	0	32998	
3189	0	32980	
3190	0	32928	
3191	0	32848	
3192	0	32672	
3193	0	32536	
3194	0	32472	
3195	0	32432	
3196	0	32416	
3197	0	32408	
3198	0	32472	
3199	0	32532	
3200	0	32580	
3201	0	32636	
3202	0	32660	
3203	0	32700	
3204	0	32736	
3205	0	32776	
3206	0	32802	
3207	0	32800	
3208	0	32776	
3209	0	32764	
3210	0	32780	
3211	0	32740	
3212	0	32664	
3213	0	32596	
3214	0	32572	
3215	0	32580	
3216	0	32604	
3217	0	32584	
3218	0	32580	
3219	0	32592	
3220	0	32604	
3221	0	32588	
3222	0	32604	
3223	0	32632	
3224	0	32634	
3225	0	32672	
3226	0	32716	
3227	0	32736	
3228	0	32792	
3229	0	32816	
3230	0	32796	
3231	0	32760	
3232	0	32696	
3233	0	32596	
3234	0	32572	
3235	0	32632	
3236	0	32672	
3237	0	32708	
3238	0	32768	
3239	0	32828	
3240	0	32896	
3241	0	32960	
3242	0	32976	
3243	0	32992	
3244	0	32944	
3245	0	32870	
3246	0	32848	
3247	0	32892	
3248	0	33000	
3249	0	33104	
3250	0	33172	
3251	0	33224	
3252	0	33312	
3253	0	33428	
3254	0	33588	
3255	0	33768	
3256	0	33948	
3257	0	34096	
3258	0	34168	
3259	0	34184	
3260	0	34136	
3261	0	34052	
3262	0	33988	
3263	0	33964	
3264	0	33976	
3265	0	34024	
3266	0	34048	
3267	0	34004	
3268	0	33960	
3269	0	33908	
3270	0	33912	
3271	0	34012	
3272	0	34154	
3273	0	34368	
3274	0	34608	
3275	0	34880	
3276	0	35192	
3277	0	35512	
3278	0	35836	
3279	0	36144	
3280	0	36420	
3281	0	36628	
3282	0	36712	
3283	0	36712	
3284	0	36764	
3285	0	36796	
3286	0	36840	
3287	0	36832	
3288	0	36796	
3289	0	36688	
3290	0	36568	
3291	0	36480	
3292	0	36380	
3293	0	36288	
3294	0	36284	
3295	0	36272	
3296	0	36218	
3297	0	36124	
3298	0	35972	
3299	0	35880	
3300	0	35844	
3301	0	35760	
3302	0	35628	
3303	0	35504	
3304	0	35388	
3305	0	35310	
3306	0	35200	
3307	0	35060	
3308	0	34904	
3309	0	34696	
3310	0	34536	
3311	0	34412	
3312	0	34232	
3313	0	33792	
3314	0	33300	
3315	0	32924	
3316	0	32656	
3317	0	32412	
3318	0	32180	
3319	0	31988	
3320	0	31794	
3321	0	31636	
3322	0	31528	
3323	0	31444	
3324	0	31392	
3325	0	31346	
3326	0	31296	
3327	0	31248	
3328	0	31160	
3329	0	31096	
3330	0	31020	
3331	0	30968	
3332	0	30928	
3333	0	30906	
3334	0	30888	
3335	0	30900	
3336	0	30928	
3337	0	30942	
3338	0	30876	
3339	0	30812	
3340	0	30752	
3341	0	30720	
3342	0	30752	
3343	0	30768	
3344	0	30812	
3345	0	30900	
3346	0	30964	
3347	0	30988	
3348	0	31020	
3349	0	31056	
3350	0	31164	
3351	0	31264	
3352	0	31366	
3353	0	31440	
3354	0	31548	
3355	0	31648	
3356	0	31656	
3357	0	31492	
3358	0	31248	
3359	0	31080	
3360	0	30980	
3361	0	30944	
3362	0	30948	
3363	0	30976	
3364	0	31018	
3365	0	31120	
3366	0	31204	
3367	0	31284	
3368	0	31300	
3369	0	31252	
3370	0	31112	
3371	0	30986	
3372	0	30836	
3373	0	30568	
3374	0	30112	
3375	0	29324	
3376	0	28290	
3377	0	27172	
3378	0	26048	
3379	0	24924	
3380	0	23876	
3381	0	22996	
3382	0	22428	
3383	0	21985	
3384	0	21688	
3385	0	21720	
3386	0	22058	
3387	0	22632	
3388	0	23348	
3389	0	24264	
3390	0	25682	
3391	0	27656	
3392	0	30056	
3393	0	32660	
3394	0	35528	
3395	0	38800	
3396	0	42256	
3397	0	46024	
3398	0	49976	
3399	0	54264	
3400	0	58608	
3401	0	61532	
3402	0	63088	
3403	0	63888	
3404	0	64252	
3405	0	64416	
3406	0	64432	
3407	0	64376	
3408	0	64288	
3409	0	64188	
3410	0	64076	
3411	0	63960	
3412	0	57904	
3413	0	52108	
3414	0	47712	
3415	0	43800	
3416	0	40012	
3417	0	36720	
3418	0	34116	
3419	0	32064	
3420	0	30248	
3421	0	28420	
3422	0	26514	
3423	0	24860	
3424	0	23676	
3425	0	22704	
3426	0	21816	
3427	0	21144	
3428	0	20804	
3429	0	20428	
3430	0	19856	
3431	0	19348	
3432	0	19168	
3433	0	19320	
3434	0	19636	
3435	0	19972	
3436	0	20180	
3437	0	20408	
3438	0	20804	
3439	0	21272	
3440	0	21848	
3441	0	22424	
3442	0	22956	
3443	0	23448	
3444	0	23892	
3445	0	24360	
3446	0	24816	
3447	0	25324	
3448	0	25896	
3449	0	26552	
3450	0	27224	
3451	0	27796	
3452	0	28312	
3453	0	28700	
3454	0	29020	
3455	0	29268	
3456	0	29496	
3457	0	29740	
3458	0	30072	
3459	0	30264	
3460	0	30348	
3461	0	30480	
3462	0	30644	
3463	0	30796	
3464	0	30908	
3465	0	30972	
3466	0	31016	
3467	0	31016	
3468	0	31000	
3469	0	31036	
3470	0	31076	
3471	0	31192	
3472	0	31276	
3473	0	31228	
3474	0	31204	
3475	0	31240	
3476	0	31272	
3477	0	31340	
3478	0	31364	
3479	0	31280	
3480	0	31136	
3481	0	31156	
3482	0	31332	
3483	0	31504	
3484	0	31648	
3485	0	31810	
3486	0	31932	
3487	0	32060	
3488	0	32164	
3489	0	32212	
3490	0	32246	
3491	0	32252	
3492	0	32208	
3493	0	32160	
3494	0	32148	
3495	0	32196	
3496	0	32228	
3497	0	32192	
3498	0	32220	
3499	0	32362	
3500	0	32528	
3501	0	32640	
3502	0	32724	
3503	0	32700	
3504	0	32652	
3505	0	32572	
3506	0	32568	
3507	0	32632	
3508	0	32720	
3509	0	32812	
3510	0	32944	
3511	0	33078	
3512	0	33116	
3513	0	33024	
3514	0	32896	
3515	0	32772	
3516	0	32720	
3517	0	32768	
3518	0	32816	
3519	0	32800	
3520	0	32776	
3521	0	32664	
3522	0	32580	
3523	0	32584	
3524	0	32620	
3525	0	32760	
3526	0	32906	
3527	0	33092	
3528	0	33272	
3529	0	33386	
3530	0	33496	
3531	0	33584	
3532	0	33636	
3533	0	33620	
3534	0	33600	
3535	0	33616	
3536	0	33664	
3537	0	33628	
3538	0	33428	
3539	0	33224	
3540	0	33152	
3541	0	33168	
3542	0	33220	
3543	0	33324	
3544	0	33448	
3545	0	33548	
3546	0	33608	
3547	0	33664	
3548	0	33624	
3549	0	33592	
3550	0	33560	
3551	0	33536	
3552	0	33578	
3553	0	33696	
3554	0	33860	
3555	0	33960	
3556	0	34060	
3557	0	34052	
3558	0	34016	
3559	0	33996	
3560	0	33888	
3561	0	33866	
3562	0	33860	
3563	0	33772	
3564	0	33788	
3565	0	33932	
3566	0	34104	
3567	0	34133	
3568	0	34120	
3569	0	33980	
3570	0	33860	
3571	0	33824	
3572	0	33856	
3573	0	33968	
3574	0	34144	
3575	0	34280	
3576	0	34288	
3577	0	34200	
3578	0	34104	
3579	0	34032	
3580	0	34032	
3581	0	34036	
3582	0	33980	
3583	0	33936	
3584	0	33944	
3585	0	33984	
3586	0	33968	
3587	0	33988	
3588	0	34004	
3589	0	34052	
3590	0	34088	
3591	0	34136	
3592	0	34216	
3593	0	34252	
3594	0	34272	
3595	0	34256	
3596	0	34256	
3597	0	34264	
3598	0	34224	
3599	0	34226	
3600	0	34204	
3601	0	34124	
3602	0	34140	
3603	0	34176	
3604	0	34160	
3605	0	34120	
3606	0	34120	
3607	0	34222	
3608	0	34428	
3609	0	34612	
3610	0	34740	
3611	0	34796	
3612	0	34754	
3613	0	34684	
3614	0	34624	
3615	0	34476	
3616	0	34320	
3617	0	34184	
3618	0	34208	
3619	0	34272	
3620	0	34256	
3621	0	34236	
3622	0	34336	
3623	0	34452	
3624	0	34552	
3625	0	34656	
3626	0	34808	
3627	0	34916	
3628	0	34896	
3629	0	34712	
3630	0	34516	
3631	0	34412	
3632	0	34352	
3633	0	34296	
3634	0	34296	
3635	0	34276	
3636	0	34248	
3637	0	34284	
3638	0	34372	
3639	0	34316	
3640	0	34252	
3641	0	34216	
3642	0	34200	
3643	0	34240	
3644	0	34244	
3645	0	34172	
3646	0	34060	
3647	0	33988	
3648	0	33944	
3649	0	33900	
3650	0	33888	
3651	0	33920	
3652	0	34004	
3653	0	34152	
3654	0	34256	
3655	0	34192	
3656	0	33852	
3657	0	33504	
3658	0	33264	
3659	0	33216	
3660	0	33264	
3661	0	33260	
3662	0	33176	
3663	0	32928	
3664	0	32584	
3665	0	32364	
3666	0	32288	
3667	0	32328	
3668	0	32412	
3669	0	32514	
3670	0	32544	
3671	0	32536	
3672	0	32464	
3673	0	32368	
3674	0	32288	
3675	0	32298	
3676	0	32436	
3677	0	32574	
3678	0	32592	
3679	0	32536	
3680	0	32336	
3681	0	32168	
3682	0	32080	
3683	0	32032	
3684	0	32044	
3685	0	32080	
3686	0	32160	
3687	0	32244	
3688	0	32184	
3689	0	32000	
3690	0	31788	
3691	0	31628	
3692	0	31528	
3693	0	31524	
3694	0	31538	
3695	0	31530	
3696	0	31540	
3697	0	31668	
3698	0	31796	
3699	0	31816	
3700	0	31816	
3701	0	31820	
3702	0	31792	
3703	0	31768	
3704	0	31764	
3705	0	31756	
3706	0	31740	
3707	0	31712	
3708	0	31652	
3709	0	31544	
3710	0	31440	
3711	0	31376	
3712	0	31284	
3713	0	31200	
3714	0	31226	
3715	0	31420	
3716	0	31706	
3717	0	32032	
3718	0	32240	
3719	0	32248	
3720	0	32144	
3721	0	32010	
3722	0	31844	
3723	0	31688	
3724	0	31604	
3725	0	31560	
3726	0	31520	
3727	0	31492	
3728	0	31460	
3729	0	31412	
3730	0	31376	
3731	0	31408	
3732	0	31428	
3733	0	31436	
3734	0	31508	
3735	0	31608	
3736	0	31768	
3737	0	31960	
3738	0	32064	
3739	0	31984	
3740	0	31860	
3741	0	31726	
3742	0	31596	
3743	0	31452	
3744	0	31488	
3745	0	31672	
3746	0	31876	
3747	0	31994	
3748	0	32024	
3749	0	31976	
3750	0	31978	
3751	0	32060	
3752	0	32216	
3753	0	32204	
3754	0	31984	
3755	0	31828	
3756	0	31876	
3757	0	31948	
3758	0	32012	
3759	0	32096	
3760	0	32140	
3761	0	32140	
3762	0	32104	
3763	0	32136	
3764	0	32192	
3765	0	32208	
3766	0	32290	
3767	0	32412	
3768	0	32396	
3769	0	32408	
3770	0	32490	
3771	0	32532	
3772	0	32496	
3773	0	32404	
3774	0	32356	
3775	0	32432	
3776	0	32608	
3777	0	32688	
3778	0	32592	
3779	0	32588	
3780	0	32668	
3781	0	32604	
3782	0	32560	
3783	0	32588	
3784	0	32656	
3785	0	32684	
3786	0	32676	
3787	0	32672	
3788	0	32648	
3789	0	32624	
3790	0	32668	
3791	0	32784	
3792	0	32988	
3793	0	33232	
3794	0	33374	
3795	0	33452	
3796	0	33426	
3797	0	33298	
3798	0	33084	
3799	0	32984	
3800	0	32932	
3801	0	32820	
3802	0	32804	
3803	0	32896	
3804	0	32940	
3805	0	32944	
3806	0	32984	
3807	0	32960	
3808	0	32940	
3809	0	33022	
3810	0	33200	
3811	0	33320	
3812	0	33364	
3813	0	33452	
3814	0	33640	
3815	0	33800	
3816	0	33784	
3817	0	33672	
3818	0	33584	
3819	0	33492	
3820	0	33332	
3821	0	33072	
3822	0	32832	
3823	0	32664	
3824	0	32552	
3825	0	32404	
3826	0	32338	
3827	0	32380	
3828	0	32460	
3829	0	32568	
3830	0	32704	
3831	0	32888	
3832	0	33096	
3833	0	33336	
3834	0	33436	
3835	0	33446	
3836	0	33420	
3837	0	33392	
3838	0	33236	
3839	0	33068	
3840	0	33002	
3841	0	33058	
3842	0	33164	
3843	0	33272	
3844	0	33276	
3845	0	33184	
3846	0	32992	
3847	0	32794	
3848	0	32644	
3849	0	32576	
3850	0	32600	
3851	0	32708	
3852	0	32896	
3853	0	32848	
3854	0	32612	
3855	0	32536	
3856	0	32532	
3857	0	32520	
3858	0	32576	
3859	0	32676	
3860	0	32856	
3861	0	33032	
3862	0	33220	
3863	0	33372	
3864	0	33380	
3865	0	33336	
3866	0	33168	
3867	0	32908	
3868	0	32668	
3869	0	32460	
3870	0	32276	
3871	0	32090	
3872	0	31944	
3873	0	31952	
3874	0	32188	
3875	0	32320	
3876	0	32298	
3877	0	32268	
3878	0	32392	
3879	0	32580	
3880	0	32680	
3881	0	32846	
3882	0	33060	
3883	0	33140	
3884	0	33148	
3885	0	33120	
3886	0	33068	
3887	0	33112	
3888	0	32980	
3889	0	32774	
3890	0	32612	
3891	0	32504	
3892	0	32382	
3893	0	32282	
3894	0	32090	
3895	0	31854	
3896	0	31676	
3897	0	31648	
3898	0	31736	
3899	0	31888	
3900	0	32016	
3901	0	32148	
3902	0	32174	
3903	0	32312	
3904	0	32612	
3905	0	32824	
3906	0	32896	
3907	0	32972	
3908	0	32964	
3909	0	32844	
3910	0	32736	
3911	0	32690	
3912	0	32652	
3913	0	32644	
3914	0	32708	
3915	0	32808	
3916	0	32936	
3917	0	32888	
3918	0	32752	
3919	0	32748	
3920	0	32768	
3921	0	32772	
3922	0	32760	
3923	0	32776	
3924	0	32816	
3925	0	32924	
3926	0	33104	
3927	0	33416	
3928	0	33736	
3929	0	33844	
3930	0	33608	
3931	0	33272	
3932	0	33052	
3933	0	32868	
3934	0	32732	
3935	0	32708	
3936	0	32816	
3937	0	32968	
3938	0	33208	
3939	0	33520	
3940	0	33912	
3941	0	34348	
3942	0	34792	
3943	0	35152	
3944	0	35436	
3945	0	35628	
3946	0	35552	
3947	0	35392	
3948	0	35232	
3949	0	35296	
3950	0	35604	
3951	0	35844	
3952	0	35824	
3953	0	35816	
3954	0	35964	
3955	0	36212	
3956	0	36256	
3957	0	36096	
3958	0	35976	
3959	0	35912	
3960	0	35904	
3961	0	35940	
3962	0	35972	
3963	0	36010	
3964	0	36206	
3965	0	36374	
3966	0	36232	
3967	0	35904	
3968	0	35660	
3969	0	35516	
3970	0	35316	
3971	0	35164	
3972	0	35044	
3973	0	34842	
3974	0	34532	
3975	0	34236	
3976	0	33946	
3977	0	33756	
3978	0	33856	
3979	0	33956	
3980	0	33876	
3981	0	33652	
3982	0	33292	
3983	0	32952	
3984	0	32612	
3985	0	32244	
3986	0	31776	
3987	0	31508	
3988	0	31460	
3989	0	31484	
3990	0	31492	
3991	0	31424	
3992	0	31448	
3993	0	31432	
3994	0	31414	
3995	0	31368	
3996	0	31272	
3997	0	31152	
3998	0	31184	
3999	0	31180	
4000	0	31032	
4001	0	30752	
4002	0	30380	
4003	0	29996	
4004	0	29702	
4005	0	29788	
4006	0	30068	
4007	0	30280	
4008	0	30400	
4009	0	30436	
4010	0	30472	
4011	0	30560	
4012	0	30724	
4013	0	30816	
4014	0	30984	
4015	0	31202	
4016	0	31288	
4017	0	31200	
4018	0	31180	
4019	0	31336	
4020	0	31348	
4021	0	31124	
4022	0	30740	
4023	0	30408	
4024	0	30218	
4025	0	30180	
4026	0	30152	
4027	0	30144	
4028	0	30244	
4029	0	30500	
4030	0	30744	
4031	0	30980	
4032	0	31064	
4033	0	30998	
4034	0	30924	
4035	0	31024	
4036	0	31258	
4037	0	31472	
4038	0	31492	
4039	0	31220	
4040	0	30712	
4041	0	29948	
4042	0	29020	
4043	0	28096	
4044	0	27154	
4045	0	26276	
4046	0	25536	
4047	0	24972	
4048	0	24592	
4049	0	24198	
4050	0	23724	
4051	0	23392	
4052	0	23508	
4053	0	23920	
4054	0	24430	
4055	0	25108	
4056	0	26300	
4057	0	27976	
4058	0	29920	
4059	0	32144	
4060	0	34496	
4061	0	37176	
4062	0	40116	
4063	0	43056	
4064	0	46296	
4065	0	49768	
4066	0	53360	
4067	0	56992	
4068	0	60288	
4069	0	62296	
4070	0	63336	
4071	0	63852	
4072	0	64088	
4073	0	64128	
4074	0	64108	
4075	0	64044	
4076	0	63948	
4077	0	63840	
4078	0	61104	
4079	0	52840	
4080	0	46204	
4081	0	41068	
4082	0	36840	
4083	0	32928	
4084	0	29792	
4085	0	27776	
4086	0	26824	
4087	0	26240	
4088	0	25676	
4089	0	24956	
4090	0	23922	
4091	0	22484	
4092	0	21132	
4093	0	20172	
4094	0	19524	
4095	0	19100	
4096	0	18928	
4097	0	18820	
4098	0	18808	
4099	0	18760	
4100	0	18744	
4101	0	18664	
4102	0	18616	
4103	0	18713	
4104	0	19078	
4105	0	19536	
4106	0	19928	
4107	0	20288	
4108	0	20660	
4109	0	21252	
4110	0	22024	
4111	0	22654	
4112	0	23162	
4113	0	23590	
4114	0	24032	
4115	0	24584	
4116	0	25280	
4117	0	25844	
4118	0	26408	
4119	0	27130	
4120	0	27944	
4121	0	28560	
4122	0	29048	
4123	0	29386	
4124	0	29716	
4125	0	30140	
4126	0	30468	
4127	0	30616	
4128	0	30736	
4129	0	30768	
4130	0	30732	
4131	0	30806	
4132	0	30800	
4133	0	30848	
4134	0	30938	
4135	0	31008	
4136	0	30860	
4137	0	30728	
4138	0	30844	
4139	0	31240	
4140	0	31756	
4141	0	32200	
4142	0	32532	
4143	0	32616	
4144	0	32412	
4145	0	32188	
4146	0	31946	
4147	0	31684	
4148	0	31540	
4149	0	31616	
4150	0	31868	
4151	0	32284	
4152	0	32568	
4153	0	32496	
4154	0	32188	
4155	0	31852	
4156	0	31648	
4157	0	31596	
4158	0	31596	
4159	0	31682	
4160	0	32002	
4161	0	32492	
4162	0	32892	
4163	0	33132	
4164	0	33072	
4165	0	32852	
4166	0	32624	
4167	0	32544	
4168	0	32696	
4169	0	32832	
4170	0	32892	
4171	0	33020	
4172	0	33048	
4173	0	32888	
4174	0	32602	
4175	0	32306	
4176	0	32124	
4177	0	32128	
4178	0	32236	
4179	0	32388	
4180	0	32548	
4181	0	32672	
4182	0	33012	
4183	0	33416	
4184	0	33700	
4185	0	33828	
4186	0	33896	
4187	0	33936	
4188	0	33776	
4189	0	33488	
4190	0	33220	
4191	0	32948	
4192	0	32800	
4193	0	32844	
4194	0	32832	
4195	0	32796	
4196	0	32908	
4197	0	33204	
4198	0	33516	
4199	0	33764	
4200	0	33968	
4201	0	34136	
4202	0	34352	
4203	0	34420	
4204	0	34228	
4205	0	33936	
4206	0	33700	
4207	0	33544	
4208	0	33504	
4209	0	33540	
4210	0	33604	
4211	0	33640	
4212	0	33568	
4213	0	33596	
4214	0	33798	
4215	0	34128	
4216	0	34448	
4217	0	34456	
4218	0	34304	
4219	0	34040	
4220	0	33832	
4221	0	33784	
4222	0	33928	
4223	0	34160	
4224	0	34344	
4225	0	34568	
4226	0	34792	
4227	0	34848	
4228	0	34736	
4229	0	34560	
4230	0	34392	
4231	0	34360	
4232	0	34396	
4233	0	34488	
4234	0	34608	
4235	0	34562	
4236	0	34320	
4237	0	34096	
4238	0	34016	
4239	0	33976	
4240	0	33920	
4241	0	33840	
4242	0	33784	
4243	0	33840	
4244	0	33996	
4245	0	34204	
4246	0	34556	
4247	0	34944	
4248	0	35248	
4249	0	35392	
4250	0	35484	
4251	0	35544	
4252	0	35284	
4253	0	35096	
4254	0	35128	
4255	0	35120	
4256	0	34906	
4257	0	34664	
4258	0	34624	
4259	0	34756	
4260	0	35000	
4261	0	35228	
4262	0	35324	
4263	0	35176	
4264	0	34840	
4265	0	34600	
4266	0	34620	
4267	0	34720	
4268	0	34840	
4269	0	34948	
4270	0	35136	
4271	0	35224	
4272	0	35284	
4273	0	35240	
4274	0	34952	
4275	0	34652	
4276	0	34420	
4277	0	34196	
4278	0	34300	
4279	0	34552	
4280	0	34744	
4281	0	34944	
4282	0	35136	
4283	0	35152	
4284	0	35076	
4285	0	35012	
4286	0	35020	
4287	0	35064	
4288	0	35028	
4289	0	34884	
4290	0	34660	
4291	0	34584	
4292	0	34614	
4293	0	34712	
4294	0	34920	
4295	0	35188	
4296	0	35248	
4297	0	35036	
4298	0	34688	
4299	0	34248	
4300	0	34040	
4301	0	34060	
4302	0	34106	
4303	0	33996	
4304	0	33900	
4305	0	33880	
4306	0	33848	
4307	0	33832	
4308	0	33888	
4309	0	33856	
4310	0	33712	
4311	0	33736	
4312	0	33864	
4313	0	33886	
4314	0	33788	
4315	0	33716	
4316	0	33656	
4317	0	33564	
4318	0	33408	
4319	0	33224	
4320	0	33104	
4321	0	33032	
4322	0	32882	
4323	0	32768	
4324	0	32776	
4325	0	32896	
4326	0	32960	
4327	0	32788	
4328	0	32436	
4329	0	32252	
4330	0	32204	
4331	0	32288	
4332	0	32408	
4333	0	32476	
4334	0	32520	
4335	0	32492	
4336	0	32504	
4337	0	32528	
4338	0	32504	
4339	0	32388	
4340	0	32238	
4341	0	32168	
4342	0	32092	
4343	0	31940	
4344	0	31788	
4345	0	31660	
4346	0	31566	
4347	0	31476	
4348	0	31496	
4349	0	31512	
4350	0	31588	
4351	0	31516	
4352	0	31226	
4353	0	30964	
4354	0	30972	
4355	0	31152	
4356	0	31386	
4357	0	31548	
4358	0	31616	
4359	0	31640	
4360	0	31628	
4361	0	31548	
4362	0	31344	
4363	0	31092	
4364	0	31050	
4365	0	31152	
4366	0	31276	
4367	0	31300	
4368	0	31312	
4369	0	31272	
4370	0	31200	
4371	0	31240	
4372	0	31460	
4373	0	31756	
4374	0	31852	
4375	0	31756	
4376	0	31632	
4377	0	31588	
4378	0	31740	
4379	0	31864	
4380	0	31820	
4381	0	31552	
4382	0	31168	
4383	0	30832	
4384	0	30756	
4385	0	30728	
4386	0	30700	
4387	0	30620	
4388	0	30604	
4389	0	30600	
4390	0	30456	
4391	0	30232	
4392	0	30148	
4393	0	30220	
4394	0	30456	
4395	0	30984	
4396	0	31440	
4397	0	31568	
4398	0	31428	
4399	0	31244	
4400	0	31328	
4401	0	31492	
4402	0	31532	
4403	0	31528	
4404	0	31472	
4405	0	31356	
4406	0	31140	
4407	0	30928	
4408	0	30932	
4409	0	31104	
4410	0	31308	
4411	0	31376	
4412	0	31320	
4413	0	31196	
4414	0	31040	
4415	0	30916	
4416	0	30856	
4417	0	30900	
4418	0	31056	
4419	0	31256	
4420	0	31468	
4421	0	31522	
4422	0	31464	
4423	0	31408	
4424	0	31360	
4425	0	31208	
4426	0	31092	
4427	0	31136	
4428	0	31304	
4429	0	31464	
4430	0	31444	
4431	0	31220	
4432	0	31028	
4433	0	31044	
4434	0	31280	
4435	0	31632	
4436	0	31924	
4437	0	32188	
4438	0	32420	
4439	0	32472	
4440	0	32378	
4441	0	32184	
4442	0	31940	
4443	0	31828	
4444	0	31892	
4445	0	32064	
4446	0	32240	
4447	0	32480	
4448	0	32572	
4449	0	32488	
4450	0	32124	
4451	0	31906	
4452	0	31912	
4453	0	31922	
4454	0	32032	
4455	0	32216	
4456	0	32316	
4457	0	32254	
4458	0	32224	
4459	0	32344	
4460	0	32474	
4461	0	32528	
4462	0	32512	
4463	0	32508	
4464	0	32568	
4465	0	32590	
4466	0	32480	
4467	0	32432	
4468	0	32480	
4469	0	32488	
4470	0	32496	
4471	0	32456	
4472	0	32336	
4473	0	32414	
4474	0	32694	
4475	0	33004	
4476	0	33316	
4477	0	33476	
4478	0	33388	
4479	0	33188	
4480	0	33176	
4481	0	33240	
4482	0	33264	
4483	0	33148	
4484	0	33040	
4485	0	33052	
4486	0	33140	
4487	0	33120	
4488	0	32992	
4489	0	32832	
4490	0	32689	
4491	0	32624	
4492	0	32712	
4493	0	32928	
4494	0	33232	
4495	0	33550	
4496	0	33704	
4497	0	33640	
4498	0	33452	
4499	0	33216	
4500	0	33034	
4501	0	32916	
4502	0	32848	
4503	0	32952	
4504	0	33172	
4505	0	33284	
4506	0	33340	
4507	0	33346	
4508	0	33348	
4509	0	33248	
4510	0	32968	
4511	0	32628	
4512	0	32444	
4513	0	32328	
4514	0	32268	
4515	0	32524	
4516	0	32792	
4517	0	32988	
4518	0	33172	
4519	0	33260	
4520	0	33228	
4521	0	33120	
4522	0	32912	
4523	0	32784	
4524	0	32728	
4525	0	32668	
4526	0	32584	
4527	0	32604	
4528	0	32728	
4529	0	32904	
4530	0	33056	
4531	0	33242	
4532	0	33484	
4533	0	33492	
4534	0	33230	
4535	0	32836	
4536	0	32484	
4537	0	32266	
4538	0	32124	
4539	0	31968	
4540	0	31820	
4541	0	31712	
4542	0	31652	
4543	0	31616	
4544	0	31660	
4545	0	31802	
4546	0	31988	
4547	0	32228	
4548	0	32576	
4549	0	33012	
4550	0	33404	
4551	0	33508	
4552	0	33292	
4553	0	32936	
4554	0	32612	
4555	0	32512	
4556	0	32536	
4557	0	32542	
4558	0	32496	
4559	0	32432	
4560	0	32469	
4561	0	32512	
4562	0	32592	
4563	0	32692	
4564	0	32808	
4565	0	32872	
4566	0	32980	
4567	0	33036	
4568	0	33026	
4569	0	33000	
4570	0	32932	
4571	0	32912	
4572	0	33016	
4573	0	33188	
4574	0	33272	
4575	0	33168	
4576	0	32952	
4577	0	32816	
4578	0	32836	
4579	0	32922	
4580	0	33044	
4581	0	33144	
4582	0	33200	
4583	0	33200	
4584	0	33232	
4585	0	33322	
4586	0	33428	
4587	0	33568	
4588	0	33652	
4589	0	33784	
4590	0	34028	
4591	0	34416	
4592	0	34816	
4593	0	35208	
4594	0	35520	
4595	0	35732	
4596	0	35932	
4597	0	36124	
4598	0	36140	
4599	0	36044	
4600	0	35956	
4601	0	35948	
4602	0	36052	
4603	0	36116	
4604	0	36084	
4605	0	35904	
4606	0	35720	
4607	0	35616	
4608	0	35624	
4609	0	35692	
4610	0	35764	
4611	0	35756	
4612	0	35680	
4613	0	35564	
4614	0	35460	
4615	0	35436	
4616	0	35448	
4617	0	35584	
4618	0	35836	
4619	0	35912	
4620	0	35756	
4621	0	35476	
4622	0	35172	
4623	0	34914	
4624	0	34708	
4625	0	34480	
4626	0	34288	
4627	0	34120	
4628	0	33864	
4629	0	33376	
4630	0	32816	
4631	0	32420	
4632	0	32216	
4633	0	32196	
4634	0	32264	
4635	0	32306	
4636	0	32288	
4637	0	32308	
4638	0	32224	
4639	0	32004	
4640	0	31768	
4641	0	31616	
4642	0	31496	
4643	0	31348	
4644	0	31192	
4645	0	31002	
4646	0	30840	
4647	0	30744	
4648	0	30624	
4649	0	30488	
4650	0	30440	
4651	0	30468	
4652	0	30392	
4653	0	30280	
4654	0	30240	
4655	0	30264	
4656	0	30368	
4657	0	30676	
4658	0	30984	
4659	0	31164	
4660	0	31228	
4661	0	31220	
4662	0	31116	
4663	0	30992	
4664	0	30872	
4665	0	30820	
4666	0	30960	
4667	0	31172	
4668	0	31224	
4669	0	31084	
4670	0	30888	
4671	0	30788	
4672	0	30832	
4673	0	30892	
4674	0	30840	
4675	0	30720	
4676	0	30672	
4677	0	30688	
4678	0	30806	
4679	0	31004	
4680	0	31156	
4681	0	31152	
4682	0	31096	
4683	0	31140	
4684	0	31272	
4685	0	31312	
4686	0	31300	
4687	0	31252	
4688	0	31012	
4689	0	30780	
4690	0	30468	
4691	0	29944	
4692	0	29160	
4693	0	28240	
4694	0	27328	
4695	0	26416	
4696	0	25454	
4697	0	24544	
4698	0	23784	
4699	0	23312	
4700	0	23144	
4701	0	23116	
4702	0	23288	
4703	0	23652	
4704	0	24148	
4705	0	24824	
4706	0	25808	
4707	0	27152	
4708	0	28900	
4709	0	31156	
4710	0	33760	
4711	0	36600	
4712	0	39640	
4713	0	42664	
4714	0	45968	
4715	0	49588	
4716	0	53340	
4717	0	57168	
4718	0	60564	
4719	0	62564	
4720	0	63612	
4721	0	64128	
4722	0	64344	
4723	0	64436	
4724	0	64408	
4725	0	64336	
4726	0	64232	
4727	0	64116	
4728	0	63252	
4729	0	54664	
4730	0	47660	
4731	0	42208	
4732	0	37840	
4733	0	33964	
4734	0	30752	
4735	0	28660	
4736	0	27682	
4737	0	27020	
4738	0	26352	
4739	0	25570	
4740	0	24592	
4741	0	23274	
4742	0	22036	
4743	0	21032	
4744	0	20140	
4745	0	19552	
4746	0	19168	
4747	0	18864	
4748	0	18632	
4749	0	18484	
4750	0	18441	
4751	0	18562	
4752	0	18844	
4753	0	19256	
4754	0	19776	
4755	0	20346	
4756	0	20772	
4757	0	21160	
4758	0	21482	
4759	0	21788	
4760	0	22124	
4761	0	22536	
4762	0	23084	
4763	0	23700	
4764	0	24320	
4765	0	24964	
4766	0	25512	
4767	0	26004	
4768	0	26552	
4769	0	27184	
4770	0	27848	
4771	0	28448	
4772	0	28916	
4773	0	29300	
4774	0	29646	
4775	0	29946	
4776	0	30224	
4777	0	30388	
4778	0	30504	
4779	0	30568	
4780	0	30624	
4781	0	30712	
4782	0	30868	
4783	0	31112	
4784	0	31336	
4785	0	31480	
4786	0	31492	
4787	0	31422	
4788	0	31388	
4789	0	31340	
4790	0	31348	
4791	0	31458	
4792	0	31548	
4793	0	31564	
4794	0	31600	
4795	0	31644	
4796	0	31672	
4797	0	31674	
4798	0	31724	
4799	0	31792	
4800	0	31888	
4801	0	32004	
4802	0	32112	
4803	0	32192	
4804	0	32212	
4805	0	32148	
4806	0	32064	
4807	0	31968	
4808	0	31932	
4809	0	32000	
4810	0	32096	
4811	0	32192	
4812	0	32328	
4813	0	32428	
4814	0	32520	
4815	0	32652	
4816	0	32756	
4817	0	32832	
4818	0	32936	
4819	0	32948	
4820	0	32840	
4821	0	32700	
4822	0	32732	
4823	0	32900	
4824	0	33032	
4825	0	33108	
4826	0	33124	
4827	0	33132	
4828	0	33152	
4829	0	33168	
4830	0	33152	
4831	0	33064	
4832	0	32962	
4833	0	32888	
4834	0	32836	
4835	0	32824	
4836	0	32884	
4837	0	32992	
4838	0	33080	
4839	0	33096	
4840	0	33096	
4841	0	33122	
4842	0	33160	
4843	0	33272	
4844	0	33496	
4845	0	33672	
4846	0	33728	
4847	0	33728	
4848	0	33688	
4849	0	33656	
4850	0	33636	
4851	0	33624	
4852	0	33660	
4853	0	33728	
4854	0	33800	
4855	0	33856	
4856	0	33928	
4857	0	33952	
4858	0	33864	
4859	0	33792	
4860	0	33732	
4861	0	33672	
4862	0	33648	
4863	0	33616	
4864	0	33596	
4865	0	33632	
4866	0	33688	
4867	0	33704	
4868	0	33756	
4869	0	33788	
4870	0	33748	
4871	0	33736	
4872	0	33772	
4873	0	33872	
4874	0	34024	
4875	0	34176	
4876	0	34328	
4877	0	34456	
4878	0	34544	
4879	0	34576	
4880	0	34592	
4881	0	34588	
4882	0	34564	
4883	0	34536	
4884	0	34504	
4885	0	34464	
4886	0	34460	
4887	0	34452	
4888	0	34472	
4889	0	34508	
4890	0	34530	
4891	0	34484	
4892	0	34388	
4893	0	34336	
4894	0	34316	
4895	0	34260	
4896	0	34208	
4897	0	34184	
4898	0	34228	
4899	0	34328	
4900	0	34452	
4901	0	34600	
4902	0	34692	
4903	0	34736	
4904	0	34822	
4905	0	34928	
4906	0	35008	
4907	0	35008	
4908	0	35050	
4909	0	35056	
4910	0	34956	
4911	0	34840	
4912	0	34788	
4913	0	34772	
4914	0	34792	
4915	0	34836	
4916	0	34788	
4917	0	34728	
4918	0	34708	
4919	0	34744	
4920	0	34748	
4921	0	34668	
4922	0	34536	
4923	0	34420	
4924	0	34304	
4925	0	34228	
4926	0	34224	
4927	0	34276	
4928	0	34352	
4929	0	34416	
4930	0	34504	
4931	0	34624	
4932	0	34736	
4933	0	34820	
4934	0	34932	
4935	0	35000	
4936	0	34936	
4937	0	34784	
4938	0	34656	
4939	0	34512	
4940	0	34408	
4941	0	34340	
4942	0	34376	
4943	0	34400	
4944	0	34308	
4945	0	34220	
4946	0	34112	
4947	0	34052	
4948	0	34056	
4949	0	34108	
4950	0	34232	
4951	0	34348	
4952	0	34426	
4953	0	34440	
4954	0	34372	
4955	0	34276	
4956	0	34216	
4957	0	34224	
4958	0	34256	
4959	0	34204	
4960	0	34124	
4961	0	34008	
4962	0	33888	
4963	0	33784	
4964	0	33670	
4965	0	33570	
4966	0	33536	
4967	0	33504	
4968	0	33448	
4969	0	33364	
4970	0	33292	
4971	0	33248	
4972	0	33144	
4973	0	32996	
4974	0	32876	
4975	0	32800	
4976	0	32736	
4977	0	32672	
4978	0	32652	
4979	0	32656	
4980	0	32624	
4981	0	32544	
4982	0	32456	
4983	0	32368	
4984	0	32336	
4985	0	32336	
4986	0	32376	
4987	0	32368	
4988	0	32350	
4989	0	32360	
4990	0	32320	
4991	0	32296	
4992	0	32240	
4993	0	32112	
4994	0	31930	
4995	0	31752	
4996	0	31612	
4997	0	31540	
4998	0	31536	
4999	0	31544	
5000	0	31596	
5001	0	31616	
5002	0	31604	
5003	0	31632	
5004	0	31626	
5005	0	31584	
5006	0	31520	
5007	0	31488	
5008	0	31480	
5009	0	31489	
5010	0	31512	
5011	0	31530	
5012	0	31578	
5013	0	31612	
5014	0	31676	
5015	0	31700	
5016	0	31740	
5017	0	31776	
5018	0	31736	
5019	0	31680	
5020	0	31616	
5021	0	31520	
5022	0	31486	
5023	0	31530	
5024	0	31576	
5025	0	31620	
5026	0	31606	
5027	0	31520	
5028	0	31464	
5029	0	31488	
5030	0	31536	
5031	0	31616	
5032	0	31648	
5033	0	31680	
5034	0	31684	
5035	0	31676	
5036	0	31640	
5037	0	31588	
5038	0	31554	
5039	0	31540	
5040	0	31492	
5041	0	31436	
5042	0	31436	
5043	0	31488	
5044	0	31496	
5045	0	31476	
5046	0	31448	
5047	0	31476	
5048	0	31484	
5049	0	31448	
5050	0	31372	
5051	0	31328	
5052	0	31304	
5053	0	31312	
5054	0	31336	
5055	0	31368	
5056	0	31392	
5057	0	31400	
5058	0	31360	
5059	0	31372	
5060	0	31404	
5061	0	31412	
5062	0	31444	
5063	0	31416	
5064	0	31396	
5065	0	31432	
5066	0	31480	
5067	0	31536	
5068	0	31584	
5069	0	31676	
5070	0	31732	
5071	0	31748	
5072	0	31776	
5073	0	31812	
5074	0	31836	
5075	0	31850	
5076	0	31868	
5077	0	31884	
5078	0	31884	
5079	0	31868	
5080	0	31872	
5081	0	31916	
5082	0	31956	
5083	0	31992	
5084	0	32012	
5085	0	32030	
5086	0	32004	
5087	0	31968	
5088	0	31944	
5089	0	31916	
5090	0	31920	
5091	0	31924	
5092	0	31948	
5093	0	31972	
5094	0	31976	
5095	0	32092	
5096	0	32236	
5097	0	32344	
5098	0	32424	
5099	0	32444	
5100	0	32488	
5101	0	32576	
5102	0	32624	
5103	0	32672	
5104	0	32708	
5105	0	32740	
5106	0	32748	
5107	0	32776	
5108	0	32824	
5109	0	32856	
5110	0	32868	
5111	0	32872	
5112	0	32920	
5113	0	32964	
5114	0	32936	
5115	0	32888	
5116	0	32816	
5117	0	32780	
5118	0	32736	
5119	0	32692	
5120	0	32680	
5121	0	32700	
5122	0	32752	
5123	0	32808	
5124	0	32856	
5125	0	32896	
5126	0	32932	
5127	0	32964	
5128	0	32948	
5129	0	32936	
5130	0	32972	
5131	0	32992	
5132	0	33002	
5133	0	33036	
5134	0	33060	
5135	0	33084	
5136	0	33136	
5137	0	33168	
5138	0	33212	
5139	0	33208	
5140	0	33212	
5141	0	33200	
5142	0	33176	
5143	0	33168	
5144	0	33152	
5145	0	33132	
5146	0	33112	
5147	0	33120	
5148	0	33124	
5149	0	33156	
5150	0	33184	
5151	0	33224	
5152	0	33228	
5153	0	33194	
5154	0	33128	
5155	0	33058	
5156	0	32974	
5157	0	32908	
5158	0	32868	
5159	0	32848	
5160	0	32808	
5161	0	32772	
5162	0	32768	
5163	0	32784	
5164	0	32816	
5165	0	32864	
5166	0	32912	
5167	0	32992	
5168	0	33022	
5169	0	33020	
5170	0	32988	
5171	0	32976	
5172	0	32932	
5173	0	32912	
5174	0	32872	
5175	0	32850	
5176	0	32844	
5177	0	32856	
5178	0	32836	
5179	0	32814	
5180	0	32748	
5181	0	32690	
5182	0	32664	
5183	0	32604	
5184	0	32584	
5185	0	32592	
5186	0	32584	
5187	0	32620	
5188	0	32654	
5189	0	32676	
5190	0	32656	
5191	0	32556	
5192	0	32480	
5193	0	32500	
5194	0	32560	
5195	0	32648	
5196	0	32668	
5197	0	32624	
5198	0	32564	
5199	0	32524	
5200	0	32492	
5201	0	32492	
5202	0	32532	
5203	0	32576	
5204	0	32644	
5205	0	32664	
5206	0	32708	
5207	0	32780	
5208	0	32832	
5209	0	32885	
5210	0	32976	
5211	0	33088	
5212	0	33168	
5213	0	33280	
5214	0	33416	
5215	0	33488	
5216	0	33536	
5217	0	33572	
5218	0	33608	
5219	0	33620	
5220	0	33570	
5221	0	33516	
5222	0	33460	
5223	0	33388	
5224	0	33334	
5225	0	33296	
5226	0	33300	
5227	0	33344	
5228	0	33324	
5229	0	33312	
5230	0	33324	
5231	0	33440	
5232	0	33656	
5233	0	33916	
5234	0	34208	
5235	0	34492	
5236	0	34780	
5237	0	35152	
5238	0	35484	
5239	0	35740	
5240	0	35900	
5241	0	36052	
5242	0	36176	
5243	0	36264	
5244	0	36312	
5245	0	36288	
5246	0	36268	
5247	0	36316	
5248	0	36364	
5249	0	36372	
5250	0	36336	
5251	0	36236	
5252	0	36122	
5253	0	36012	
5254	0	35884	
5255	0	35804	
5256	0	35800	
5257	0	35766	
5258	0	35752	
5259	0	35700	
5260	0	35642	
5261	0	35608	
5262	0	35568	
5263	0	35468	
5264	0	35348	
5265	0	35228	
5266	0	35088	
5267	0	34940	
5268	0	34816	
5269	0	34676	
5270	0	34528	
5271	0	34328	
5272	0	34076	
5273	0	33732	
5274	0	33272	
5275	0	32824	
5276	0	32416	
5277	0	32056	
5278	0	31740	
5279	0	31498	
5280	0	31348	
5281	0	31308	
5282	0	31284	
5283	0	31184	
5284	0	31148	
5285	0	31140	
5286	0	31088	
5287	0	31008	
5288	0	30916	
5289	0	30768	
5290	0	30656	
5291	0	30596	
5292	0	30552	
5293	0	30552	
5294	0	30508	
5295	0	30412	
5296	0	30332	
5297	0	30320	
5298	0	30316	
5299	0	30320	
5300	0	30340	
5301	0	30376	
5302	0	30416	
5303	0	30380	
5304	0	30370	
5305	0	30412	
5306	0	30484	
5307	0	30584	
5308	0	30640	
5309	0	30688	
5310	0	30672	
5311	0	30644	
5312	0	30644	
5313	0	30624	
5314	0	30640	
5315	0	30660	
5316	0	30704	
5317	0	30744	
5318	0	30804	
5319	0	30828	
5320	0	30836	
5321	0	30832	
5322	0	30808	
5323	0	30780	
5324	0	30776	
5325	0	30778	
5326	0	30760	
5327	0	30744	
5328	0	30740	
5329	0	30728	
5330	0	30692	
5331	0	30636	
5332	0	30594	
5333	0	30584	
5334	0	30480	
5335	0	30140	
5336	0	29518	
5337	0	28616	
5338	0	27588	
5339	0	26476	
5340	0	25308	
5341	0	24168	
5342	0	23144	
5343	0	22320	
5344	0	21724	
5345	0	21320	
5346	0	21200	
5347	0	21380	
5348	0	21812	
5349	0	22408	
5350	0	23144	
5351	0	24264	
5352	0	25917	
5353	0	28014	
5354	0	30498	
5355	0	33224	
5356	0	36332	
5357	0	39652	
5358	0	43276	
5359	0	47264	
5360	0	51464	
5361	0	55872	
5362	0	59884	
5363	0	62344	
5364	0	63616	
5365	0	64272	
5366	0	64568	
5367	0	64680	
5368	0	64672	
5369	0	64608	
5370	0	64508	
5371	0	64404	
5372	0	64284	
5373	0	64068	
5374	0	56840	
5375	0	51104	
5376	0	46616	
5377	0	42576	
5378	0	38608	
5379	0	35092	
5380	0	32372	
5381	0	30268	
5382	0	28312	
5383	0	26312	
5384	0	24608	
5385	0	23418	
5386	0	22517	
5387	0	21788	
5388	0	21216	
5389	0	20832	
5390	0	20504	
5391	0	20076	
5392	0	19636	
5393	0	19356	
5394	0	19388	
5395	0	19592	
5396	0	19876	
5397	0	20032	
5398	0	20142	
5399	0	20389	
5400	0	20690	
5401	0	21096	
5402	0	21576	
5403	0	22148	
5404	0	22768	
5405	0	23354	
5406	0	23916	
5407	0	24532	
5408	0	25188	
5409	0	25836	
5410	0	26504	
5411	0	27096	
5412	0	27610	
5413	0	28044	
5414	0	28408	
5415	0	28720	
5416	0	28984	
5417	0	29186	
5418	0	29316	
5419	0	29428	
5420	0	29520	
5421	0	29586	
5422	0	29648	
5423	0	29720	
5424	0	29768	
5425	0	29812	
5426	0	29928	
5427	0	30080	
5428	0	30232	
5429	0	30376	
5430	0	30508	
5431	0	30632	
5432	0	30736	
5433	0	30784	
5434	0	30812	
5435	0	30848	
5436	0	30896	
5437	0	30950	
5438	0	31048	
5439	0	31112	
5440	0	31184	
5441	0	31202	
5442	0	31220	
5443	0	31232	
5444	0	31260	
5445	0	31312	
5446	0	31352	
5447	0	31406	
5448	0	31416	
5449	0	31356	
5450	0	31304	
5451	0	31320	
5452	0	31364	
5453	0	31448	
5454	0	31552	
5455	0	31676	
5456	0	31784	
5457	0	31848	
5458	0	31870	
5459	0	31868	
5460	0	31860	
5461	0	31898	
5462	0	31972	
5463	0	32060	
5464	0	32148	
5465	0	32240	
5466	0	32344	
5467	0	32416	
5468	0	32444	
5469	0	32500	
5470	0	32572	
5471	0	32618	
5472	0	32612	
5473	0	32600	
5474	0	32606	
5475	0	32624	
5476	0	32652	
5477	0	32664	
5478	0	32672	
5479	0	32668	
5480	0	32684	
5481	0	32716	
5482	0	32736	
5483	0	32736	
5484	0	32766	
5485	0	32796	
5486	0	32840	
5487	0	32908	
5488	0	32984	
5489	0	33040	
5490	0	33040	
5491	0	33060	
5492	0	33072	
5493	0	33072	
5494	0	33056	
5495	0	33036	
5496	0	33028	
5497	0	33024	
5498	0	33032	
5499	0	33064	
5500	0	33024	
5501	0	32976	
5502	0	32932	
5503	0	32892	
5504	0	32922	
5505	0	32956	
5506	0	32988	
5507	0	33024	
5508	0	33056	
5509	0	33076	
5510	0	33128	
5511	0	33200	
5512	0	33296	
5513	0	33372	
5514	0	33448	
5515	0	33504	
5516	0	33584	
5517	0	33656	
5518	0	33672	
5519	0	33696	
5520	0	33720	
5521	0	33704	
5522	0	33712	
5523	0	33732	
5524	0	33696	
5525	0	33616	
5526	0	33602	
5527	0	33624	
5528	0	33652	
5529	0	33652	
5530	0	33648	
5531	0	33632	
5532	0	33584	
5533	0	33548	
5534	0	33534	
5535	0	33520	
5536	0	33504	
5537	0	33500	
5538	0	33528	
5539	0	33548	
5540	0	33552	
5541	0	33588	
5542	0	33632	
5543	0	33712	
5544	0	33792	
5545	0	33824	
5546	0	33876	
5547	0	33880	
5548	0	33884	
5549	0	33896	
5550	0	33896	
5551	0	33864	
5552	0	33844	
5553	0	33800	
5554	0	33744	
5555	0	33712	
5556	0	33728	
5557	0	33760	
5558	0	33752	
5559	0	33728	
5560	0	33764	
5561	0	33836	
5562	0	33894	
5563	0	33948	
5564	0	34032	
5565	0	34090	
5566	0	34108	
5567	0	34084	
5568	0	34036	
5569	0	34004	
5570	0	33984	
5571	0	33956	
5572	0	33952	
5573	0	33968	
5574	0	33980	
5575	0	34000	
5576	0	33996	
5577	0	33984	
5578	0	34000	
5579	0	34028	
5580	0	34050	
5581	0	34084	
5582	0	34092	
5583	0	34036	
5584	0	34016	
5585	0	34002	
5586	0	33996	
5587	0	33992	
5588	0	33984	
5589	0	33976	
5590	0	34028	
5591	0	34128	
5592	0	34192	
5593	0	34188	
5594	0	34208	
5595	0	34228	
5596	0	34228	
5597	0	34202	
5598	0	34184	
5599	0	34144	
5600	0	34112	
5601	0	34084	
5602	0	34052	
5603	0	34012	
5604	0	33934	
5605	0	33840	
5606	0	33760	
5607	0	33708	
5608	0	33648	
5609	0	33600	
5610	0	33528	
5611	0	33472	
5612	0	33376	
5613	0	33280	
5614	0	33232	
5615	0	33152	
5616	0	33100	
5617	0	33004	
5618	0	32944	
5619	0	32878	
5620	0	32852	
5621	0	32820	
5622	0	32784	
5623	0	32760	
5624	0	32736	
5625	0	32672	
5626	0	32612	
5627	0	32576	
5628	0	32588	
5629	0	32572	
5630	0	32520	
5631	0	32484	
5632	0	32456	
5633	0	32408	
5634	0	32348	
5635	0	32312	
5636	0	32288	
5637	0	32244	
5638	0	32200	
5639	0	32156	
5640	0	32072	
5641	0	31924	
5642	0	31880	
5643	0	31840	
5644	0	31808	
5645	0	31792	
5646	0	31796	
5647	0	31808	
5648	0	31824	
5649	0	31848	
5650	0	31904	
5651	0	31956	
5652	0	31984	
5653	0	31968	
5654	0	31976	
5655	0	32016	
5656	0	32024	
5657	0	32000	
5658	0	31940	
5659	0	31912	
5660	0	31888	
5661	0	31842	
5662	0	31776	
5663	0	31736	
5664	0	31712	
5665	0	31660	
5666	0	31604	
5667	0	31532	
5668	0	31472	
5669	0	31452	
5670	0	31464	
5671	0	31480	
5672	0	31548	
5673	0	31608	
5674	0	31660	
5675	0	31724	
5676	0	31788	
5677	0	31856	
5678	0	31948	
5679	0	31996	
5680	0	32004	
5681	0	31996	
5682	0	32016	
5683	0	31992	
5684	0	31976	
5685	0	31980	
5686	0	31984	
5687	0	31996	
5688	0	31984	
5689	0	31986	
5690	0	31936	
5691	0	31890	
5692	0	31832	
5693	0	31850	
5694	0	31880	
5695	0	31880	
5696	0	31852	
5697	0	31768	
5698	0	31680	
5699	0	31648	
5700	0	31636	
5701	0	31680	
5702	0	31716	
5703	0	31732	
5704	0	31788	
5705	0	31856	
5706	0	31916	
5707	0	31980	
5708	0	32056	
5709	0	32076	
5710	0	32060	
5711	0	32096	
5712	0	32146	
5713	0	32196	
5714	0	32240	
5715	0	32248	
5716	0	32268	
5717	0	32288	
5718	0	32320	
5719	0	32340	
5720	0	32338	
5721	0	32320	
5722	0	32276	
5723	0	32224	
5724	0	32216	
5725	0	32262	
5726	0	32312	
5727	0	32352	
5728	0	32352	
5729	0	32312	
5730	0	32348	
5731	0	32388	
5732	0	32416	
5733	0	32432	
5734	0	32444	
5735	0	32474	
5736	0	32480	
5737	0	32494	
5738	0	32492	
5739	0	32492	
5740	0	32508	
5741	0	32532	
5742	0	32584	
5743	0	32640	
5744	0	32652	
5745	0	32712	
5746	0	32752	
5747	0	32752	
5748	0	32770	
5749	0	32776	
5750	0	32840	
5751	0	32872	
5752	0	32868	
5753	0	32848	
5754	0	32824	
5755	0	32768	
5756	0	32736	
5757	0	32738	
5758	0	32802	
5759	0	32872	
5760	0	32920	
5761	0	32942	
5762	0	32956	
5763	0	32944	
5764	0	32892	
5765	0	32856	
5766	0	32874	
5767	0	32896	
5768	0	32876	
5769	0	32836	
5770	0	32824	
5771	0	32852	
5772	0	32888	
5773	0	32944	
5774	0	33024	
5775	0	33060	
5776	0	33102	
5777	0	33130	
5778	0	33158	
5779	0	33186	
5780	0	33188	
5781	0	33166	
5782	0	33120	
5783	0	33088	
5784	0	33044	
5785	0	32984	
5786	0	32916	
5787	0	32912	
5788	0	32952	
5789	0	33000	
5790	0	33002	
5791	0	32964	
5792	0	32928	
5793	0	32940	
5794	0	32948	
5795	0	32976	
5796	0	32976	
5797	0	32968	
5798	0	32992	
5799	0	33020	
5800	0	33016	
5801	0	33012	
5802	0	33040	
5803	0	33048	
5804	0	33040	
5805	0	33040	
5806	0	33036	
5807	0	33024	
5808	0	32996	
5809	0	33032	
5810	0	33076	
5811	0	33104	
5812	0	33084	
5813	0	33060	
5814	0	33040	
5815	0	32984	
5816	0	32908	
5817	0	32896	
5818	0	32900	
5819	0	32896	
5820	0	32860	
5821	0	32832	
5822	0	32824	
5823	0	32844	
5824	0	32886	
5825	0	32920	
5826	0	32936	
5827	0	32936	
5828	0	32948	
5829	0	32956	
5830	0	32960	
5831	0	32932	
5832	0	32916	
5833	0	32868	
5834	0	32856	
5835	0	32880	
5836	0	32924	
5837	0	32944	
5838	0	32952	
5839	0	32948	
5840	0	32914	
5841	0	32876	
5842	0	32826	
5843	0	32828	
5844	0	32828	
5845	0	32800	
5846	0	32760	
5847	0	32744	
5848	0	32708	
5849	0	32704	
5850	0	32708	
5851	0	32696	
5852	0	32676	
5853	0	32672	
5854	0	32680	
5855	0	32692	
5856	0	32712	
5857	0	32752	
5858	0	32764	
5859	0	32720	
5860	0	32696	
5861	0	32648	
5862	0	32624	
5863	0	32632	
5864	0	32600	
5865	0	32556	
5866	0	32552	
5867	0	32568	
5868	0	32564	
5869	0	32564	
5870	0	32560	
5871	0	32532	
5872	0	32544	
5873	0	32600	
5874	0	32640	
5875	0	32624	
5876	0	32609	
5877	0	32592	
5878	0	32592	
5879	0	32576	
5880	0	32570	
5881	0	32572	
5882	0	32560	
5883	0	32564	
5884	0	32560	
5885	0	32572	
5886	0	32552	
5887	0	32540	
5888	0	32484	
5889	0	32440	
5890	0	32396	
5891	0	32376	
5892	0	32384	
5893	0	32420	
5894	0	32448	
5895	0	32516	
5896	0	32640	
5897	0	32760	
5898	0	32860	
5899	0	32926	
5900	0	33000	
5901	0	33058	
5902	0	33136	
5903	0	33228	
5904	0	33310	
5905	0	33372	
5906	0	33440	
5907	0	33528	
5908	0	33682	
5909	0	33776	
5910	0	33804	
5911	0	33844	
5912	0	33864	
5913	0	33832	
5914	0	33800	
5915	0	33736	
5916	0	33684	
5917	0	33690	
5918	0	33760	
5919	0	33804	
5920	0	33808	
5921	0	33808	
5922	0	33796	
5923	0	33778	
5924	0	33728	
5925	0	33752	
5926	0	33938	
5927	0	34212	
5928	0	34516	
5929	0	34872	
5930	0	35224	
5931	0	35560	
5932	0	35900	
5933	0	36132	
5934	0	36316	
5935	0	36464	
5936	0	36576	
5937	0	36648	
5938	0	36684	
5939	0	36660	
5940	0	36636	
5941	0	36616	
5942	0	36552	
5943	0	36456	
5944	0	36316	
5945	0	36132	
5946	0	35952	
5947	0	35808	
5948	0	35728	
5949	0	35698	
5950	0	35740	
5951	0	35792	
5952	0	35872	
5953	0	35908	
5954	0	35920	
5955	0	35888	
5956	0	35840	
5957	0	35764	
5958	0	35664	
5959	0	35596	
5960	0	35532	
5961	0	35440	
5962	0	35248	
5963	0	35028	
5964	0	34716	
5965	0	34432	
5966	0	34148	
5967	0	33760	
5968	0	33336	
5969	0	32896	
5970	0	32512	
5971	0	32194	
5972	0	32012	
5973	0	31876	
5974	0	31720	
5975	0	31604	
5976	0	31496	
5977	0	31440	
5978	0	31412	
5979	0	31416	
5980	0	31380	
5981	0	31312	
5982	0	31242	
5983	0	31140	
5984	0	31024	
5985	0	30940	
5986	0	30884	
5987	0	30856	
5988	0	30840	
5989	0	30816	
5990	0	30832	
5991	0	30844	
5992	0	30828	
5993	0	30844	
5994	0	30832	
5995	0	30812	
5996	0	30828	
5997	0	30852	
5998	0	30864	
5999	0	30876	
6000	0	30896	
6001	0	30936	
6002	0	30932	
6003	0	30920	
6004	0	30920	
6005	0	30910	
6006	0	30912	
6007	0	30924	
6008	0	30964	
6009	0	30988	
6010	0	31008	
6011	0	31024	
6012	0	31056	
6013	0	31064	
6014	0	31080	
6015	0	31136	
6016	0	31156	
6017	0	31184	
6018	0	31192	
6019	0	31188	
6020	0	31208	
6021	0	31232	
6022	0	31220	
6023	0	31180	
6024	0	31084	
6025	0	30968	
6026	0	30796	
6027	0	30528	
6028	0	30092	
6029	0	29384	
6030	0	28396	
6031	0	27292	
6032	0	26120	
6033	0	24936	
6034	0	23860	
6035	0	22906	
6036	0	22168	
6037	0	21666	
6038	0	21336	
6039	0	21248	
6040	0	21524	
6041	0	22080	
6042	0	22712	
6043	0	23516	
6044	0	24836	
6045	0	26700	
6046	0	29004	
6047	0	31604	
6048	0	34504	
6049	0	37800	
6050	0	41264	
6051	0	45172	
6052	0	49348	
6053	0	53676	
6054	0	58068	
6055	0	61344	
6056	0	63124	
6057	0	64052	
6058	0	64500	
6059	0	64696	
6060	0	64724	
6061	0	64688	
6062	0	64616	
6063	0	64512	
6064	0	64392	
6065	0	64272	
6066	0	63864	
6067	0	57168	
6068	0	52088	
6069	0	48056	
6070	0	44096	
6071	0	40196	
6072	0	36712	
6073	0	33856	
6074	0	31364	
6075	0	28824	
6076	0	26528	
6077	0	24864	
6078	0	23692	
6079	0	22864	
6080	0	22240	
6081	0	21776	
6082	0	21369	
6083	0	20956	
6084	0	20565	
6085	0	20288	
6086	0	20234	
6087	0	20356	
6088	0	20600	
6089	0	20776	
6090	0	20924	
6091	0	21058	
6092	0	21264	
6093	0	21626	
6094	0	22106	
6095	0	22636	
6096	0	23120	
6097	0	23552	
6098	0	23964	
6099	0	24440	
6100	0	25004	
6101	0	25660	
6102	0	26286	
6103	0	26860	
6104	0	27360	
6105	0	27824	
6106	0	28196	
6107	0	28500	
6108	0	28784	
6109	0	29052	
6110	0	29248	
6111	0	29360	
6112	0	29440	
6113	0	29540	
6114	0	29644	
6115	0	29744	
6116	0	29824	
6117	0	29880	
6118	0	29940	
6119	0	29984	
6120	0	30040	
6121	0	30080	
6122	0	30116	
6123	0	30160	
6124	0	30240	
6125	0	30316	
6126	0	30388	
6127	0	30442	
6128	0	30484	
6129	0	30528	
6130	0	30596	
6131	0	30652	
6132	0	30680	
6133	0	30696	
6134	0	30748	
6135	0	30820	
6136	0	30880	
6137	0	30960	
6138	0	31080	
6139	0	31140	
6140	0	31192	
6141	0	31244	
6142	0	31332	
6143	0	31386	
6144	0	31412	
6145	0	31456	
6146	0	31528	
6147	0	31576	
6148	0	31616	
6149	0	31624	
6150	0	31664	
6151	0	31728	
6152	0	31820	
6153	0	31892	
6154	0	31960	
6155	0	31988	
6156	0	32012	
6157	0	32042	
6158	0	32080	
6159	0	32056	
6160	0	32028	
6161	0	32020	
6162	0	32048	
6163	0	32084	
6164	0	32096	
6165	0	32112	
6166	0	32104	
6167	0	32156	
6168	0	32168	
6169	0	32176	
6170	0	32212	
6171	0	32314	
6172	0	32408	
6173	0	32444	
6174	0	32440	
6175	0	32472	
6176	0	32512	
6177	0	32520	
6178	0	32512	
6179	0	32544	
6180	0	32548	
6181	0	32544	
6182	0	32560	
6183	0	32576	
6184	0	32600	
6185	0	32608	
6186	0	32576	
6187	0	32580	
6188	0	32608	
6189	0	32624	
6190	0	32660	
6191	0	32700	
6192	0	32712	
6193	0	32692	
6194	0	32672	
6195	0	32692	
6196	0	32696	
6197	0	32728	
6198	0	32788	
6199	0	32852	
6200	0	32876	
6201	0	32900	
6202	0	32928	
6203	0	32956	
6204	0	32960	
6205	0	32976	
6206	0	32976	
6207	0	32992	
6208	0	33072	
6209	0	33128	
6210	0	33148	
6211	0	33192	
6212	0	33258	
6213	0	33302	
6214	0	33312	
6215	0	33284	
6216	0	33256	
6217	0	33256	
6218	0	33224	
6219	0	33168	
6220	0	33154	
6221	0	33172	
6222	0	33228	
6223	0	33280	
6224	0	33268	
6225	0	33276	
6226	0	33324	
6227	0	33344	
6228	0	33348	
6229	0	33340	
6230	0	33320	
6231	0	33292	
6232	0	33252	
6233	0	33216	
6234	0	33240	
6235	0	33292	
6236	0	33344	
6237	0	33356	
6238	0	33352	
6239	0	33352	
6240	0	33408	
6241	0	33492	
6242	0	33568	
6243	0	33600	
6244	0	33616	
6245	0	33676	
6246	0	33740	
6247	0	33744	
6248	0	33728	
6249	0	33704	
6250	0	33728	
6251	0	33724	
6252	0	33676	
6253	0	33640	
6254	0	33644	
6255	0	33696	
6256	0	33714	
6257	0	33744	
6258	0	33696	
6259	0	33648	
6260	0	33624	
6261	0	33600	
6262	0	33600	
6263	0	33580	
6264	0	33568	
6265	0	33560	
6266	0	33554	
6267	0	33564	
6268	0	33556	
6269	0	33584	
6270	0	33584	
6271	0	33600	
6272	0	33652	
6273	0	33728	
6274	0	33768	
6275	0	33848	
6276	0	33936	
6277	0	34024	
6278	0	34052	
6279	0	34052	
6280	0	34044	
6281	0	34048	
6282	0	34108	
6283	0	34152	
6284	0	34176	
6285	0	34184	
6286	0	34168	
6287	0	34132	
6288	0	34116	
6289	0	34080	
6290	0	34040	
6291	0	34032	
6292	0	34032	
6293	0	34016	
6294	0	33972	
6295	0	33952	
6296	0	33936	
6297	0	33940	
6298	0	33936	
6299	0	33916	
6300	0	33864	
6301	0	33848	
6302	0	33824	
6303	0	33780	
6304	0	33760	
6305	0	33716	
6306	0	33660	
6307	0	33544	
6308	0	33464	
6309	0	33384	
6310	0	33304	
6311	0	33240	
6312	0	33200	
6313	0	33152	
6314	0	33112	
6315	0	33088	
6316	0	33040	
6317	0	32972	
6318	0	32904	
6319	0	32856	
6320	0	32776	
6321	0	32732	
6322	0	32704	
6323	0	32672	
6324	0	32672	
6325	0	32644	
6326	0	32616	
6327	0	32612	
6328	0	32600	
6329	0	32552	
6330	0	32468	
6331	0	32364	
6332	0	32304	
6333	0	32260	
6334	0	32208	
6335	0	32136	
6336	0	32060	
6337	0	32000	
6338	0	31932	
6339	0	31900	
6340	0	31892	
6341	0	31900	
6342	0	31928	
6343	0	31928	
6344	0	31930	
6345	0	31941	
6346	0	31962	
6347	0	31960	
6348	0	31936	
6349	0	31936	
6350	0	31936	
6351	0	31940	
6352	0	31912	
6353	0	31900	
6354	0	31904	
6355	0	31880	
6356	0	31852	
6357	0	31840	
6358	0	31752	
6359	0	31676	
6360	0	31668	
6361	0	31684	
6362	0	31736	
6363	0	31744	
6364	0	31752	
6365	0	31756	
6366	0	31800	
6367	0	31832	
6368	0	31892	
6369	0	31936	
6370	0	31916	
6371	0	31868	
6372	0	31868	
6373	0	31912	
6374	0	31944	
6375	0	31944	
6376	0	31928	
6377	0	31964	
6378	0	31968	
6379	0	31952	
6380	0	31940	
6381	0	31924	
6382	0	31904	
6383	0	31908	
6384	0	31912	
6385	0	31900	
6386	0	31892	
6387	0	31908	
6388	0	31968	
6389	0	32028	
6390	0	32068	
6391	0	32132	
6392	0	32164	
6393	0	32164	
6394	0	32148	
6395	0	32124	
6396	0	32092	
6397	0	32092	
6398	0	32124	
6399	0	32144	
6400	0	32156	
6401	0	32176	
6402	0	32222	
6403	0	32272	
6404	0	32296	
6405	0	32308	
6406	0	32292	
6407	0	32276	
6408	0	32276	
6409	0	32268	
6410	0	32284	
6411	0	32308	
6412	0	32304	
6413	0	32300	
6414	0	32344	
6415	0	32424	
6416	0	32516	
6417	0	32596	
6418	0	32604	
6419	0	32600	
6420	0	32620	
6421	0	32624	
6422	0	32592	
6423	0	32616	
6424	0	32636	
6425	0	32624	
6426	0	32644	
6427	0	32672	
6428	0	32672	
6429	0	32664	
6430	0	32648	
6431	0	32624	
6432	0	32608	
6433	0	32612	
6434	0	32620	
6435	0	32578	
6436	0	32540	
6437	0	32520	
6438	0	32564	
6439	0	32616	
6440	0	32680	
6441	0	32740	
6442	0	32780	
6443	0	32800	
6444	0	32804	
6445	0	32832	
6446	0	32856	
6447	0	32928	
6448	0	32984	
6449	0	32972	
6450	0	32964	
6451	0	32946	
6452	0	32940	
6453	0	32960	
6454	0	32960	
6455	0	32960	
6456	0	32960	
6457	0	32944	
6458	0	32912	
6459	0	32896	
6460	0	32924	
6461	0	32980	
6462	0	33032	
6463	0	33044	
6464	0	33056	
6465	0	33076	
6466	0	33064	
6467	0	33080	
6468	0	33088	
6469	0	33076	
6470	0	33056	
6471	0	33000	
6472	0	32956	
6473	0	32928	
6474	0	32916	
6475	0	32934	
6476	0	32932	
6477	0	32924	
6478	0	32980	
6479	0	32992	
6480	0	32992	
6481	0	33020	
6482	0	33032	
6483	0	33028	
6484	0	33032	
6485	0	33032	
6486	0	33052	
6487	0	33096	
6488	0	33100	
6489	0	33120	
6490	0	33072	
6491	0	33060	
6492	0	33056	
6493	0	33004	
6494	0	32960	
6495	0	32916	
6496	0	32832	
6497	0	32820	
6498	0	32802	
6499	0	32794	
6500	0	32808	
6501	0	32816	
6502	0	32816	
6503	0	32846	
6504	0	32860	
6505	0	32876	
6506	0	32888	
6507	0	32896	
6508	0	32900	
6509	0	32896	
6510	0	32872	
6511	0	32824	
6512	0	32770	
6513	0	32740	
6514	0	32680	
6515	0	32628	
6516	0	32588	
6517	0	32576	
6518	0	32608	
6519	0	32648	
6520	0	32630	
6521	0	32600	
6522	0	32600	
6523	0	32636	
6524	0	32728	
6525	0	32776	
6526	0	32792	
6527	0	32784	
6528	0	32768	
6529	0	32744	
6530	0	32732	
6531	0	32716	
6532	0	32716	
6533	0	32712	
6534	0	32708	
6535	0	32700	
6536	0	32692	
6537	0	32704	
6538	0	32656	
6539	0	32600	
6540	0	32520	
6541	0	32444	
6542	0	32400	
6543	0	32344	
6544	0	32360	
6545	0	32404	
6546	0	32460	
6547	0	32464	
6548	0	32452	
6549	0	32480	
6550	0	32532	
6551	0	32576	
6552	0	32628	
6553	0	32648	
6554	0	32632	
6555	0	32600	
6556	0	32576	
6557	0	32556	
6558	0	32552	
6559	0	32528	
6560	0	32496	
6561	0	32476	
6562	0	32456	
6563	0	32480	
6564	0	32516	
6565	0	32506	
6566	0	32504	
6567	0	32512	
6568	0	32514	
6569	0	32472	
6570	0	32480	
6571	0	32480	
6572	0	32468	
6573	0	32460	
6574	0	32448	
6575	0	32452	
6576	0	32480	
6577	0	32524	
6578	0	32528	
6579	0	32508	
6580	0	32476	
6581	0	32488	
6582	0	32544	
6583	0	32590	
6584	0	32628	
6585	0	32644	
6586	0	32616	
6587	0	32596	
6588	0	32586	
6589	0	32592	
6590	0	32624	
6591	0	32648	
6592	0	32640	
6593	0	32596	
6594	0	32560	
6595	0	32488	
6596	0	32448	
6597	0	32480	
6598	0	32552	
6599	0	32624	
6600	0	32690	
6601	0	32708	
6602	0	32764	
6603	0	32788	
6604	0	32776	
6605	0	32776	
6606	0	32832	
6607	0	32932	
6608	0	33064	
6609	0	33164	
6610	0	33244	
6611	0	33368	
6612	0	33492	
6613	0	33610	
6614	0	33716	
6615	0	33764	
6616	0	33808	
6617	0	33848	
6618	0	33884	
6619	0	33860	
6620	0	33812	
6621	0	33776	
6622	0	33720	
6623	0	33692	
6624	0	33688	
6625	0	33756	
6626	0	33776	
6627	0	33732	
6628	0	33752	
6629	0	33804	
6630	0	33880	
6631	0	33988	
6632	0	34172	
6633	0	34440	
6634	0	34786	
6635	0	35124	
6636	0	35456	
6637	0	35742	
6638	0	35964	
6639	0	36120	
6640	0	36244	
6641	0	36356	
6642	0	36440	
6643	0	36452	
6644	0	36460	
6645	0	36484	
6646	0	36528	
6647	0	36576	
6648	0	36572	
6649	0	36540	
6650	0	36420	
6651	0	36276	
6652	0	36132	
6653	0	36000	
6654	0	35928	
6655	0	35944	
6656	0	35972	
6657	0	36008	
6658	0	35984	
6659	0	35932	
6660	0	35900	
6661	0	35852	
6662	0	35744	
6663	0	35644	
6664	0	35572	
6665	0	35500	
6666	0	35360	
6667	0	35168	
6668	0	34920	
6669	0	34616	
6670	0	34288	
6671	0	33964	
6672	0	33636	
6673	0	33248	
6674	0	32864	
6675	0	32490	
6676	0	32154	
6677	0	31916	
6678	0	31736	
6679	0	31640	
6680	0	31560	
6681	0	31468	
6682	0	31368	
6683	0	31320	
6684	0	31288	
6685	0	31228	
6686	0	31188	
6687	0	31104	
6688	0	30964	
6689	0	30852	
6690	0	30794	
6691	0	30756	
6692	0	30700	
6693	0	30636	
6694	0	30576	
6695	0	30556	
6696	0	30540	
6697	0	30560	
6698	0	30564	
6699	0	30576	
6700	0	30616	
6701	0	30654	
6702	0	30684	
6703	0	30690	
6704	0	30716	
6705	0	30736	
6706	0	30768	
6707	0	30812	
6708	0	30880	
6709	0	30976	
6710	0	31032	
6711	0	31068	
6712	0	31104	
6713	0	31140	
6714	0	31170	
6715	0	31144	
6716	0	31096	
6717	0	31088	
6718	0	31056	
6719	0	31020	
6720	0	31000	
6721	0	31032	
6722	0	31048	
6723	0	31004	
6724	0	30944	
6725	0	30906	
6726	0	30892	
6727	0	30904	
6728	0	30924	
6729	0	30888	
6730	0	30796	
6731	0	30672	
6732	0	30492	
6733	0	30112	
6734	0	29408	
6735	0	28448	
6736	0	27364	
6737	0	26226	
6738	0	25040	
6739	0	23950	
6740	0	23000	
6741	0	22244	
6742	0	21696	
6743	0	21316	
6744	0	21228	
6745	0	21456	
6746	0	21956	
6747	0	22568	
6748	0	23322	
6749	0	24534	
6750	0	26336	
6751	0	28596	
6752	0	31124	
6753	0	33920	
6754	0	37188	
6755	0	40632	
6756	0	44388	
6757	0	48360	
6758	0	52552	
6759	0	56896	
6760	0	60608	
6761	0	62784	
6762	0	63912	
6763	0	64464	
6764	0	64716	
6765	0	64800	
6766	0	64764	
6767	0	64696	
6768	0	64600	
6769	0	64496	
6770	0	64352	
6771	0	63976	
6772	0	57484	
6773	0	52528	
6774	0	48468	
6775	0	44564	
6776	0	40808	
6777	0	37472	
6778	0	34728	
6779	0	32376	
6780	0	29964	
6781	0	27564	
6782	0	25712	
6783	0	24386	
6784	0	23414	
6785	0	22600	
6786	0	21950	
6787	0	21454	
6788	0	20968	
6789	0	20448	
6790	0	19944	
6791	0	19700	
6792	0	19728	
6793	0	19960	
6794	0	20216	
6795	0	20384	
6796	0	20642	
6797	0	20988	
6798	0	21440	
6799	0	21888	
6800	0	22352	
6801	0	22848	
6802	0	23336	
6803	0	23830	
6804	0	24340	
6805	0	24868	
6806	0	25500	
6807	0	26140	
6808	0	26720	
6809	0	27176	
6810	0	27616	
6811	0	27972	
6812	0	28324	
6813	0	28644	
6814	0	28904	
6815	0	29084	
6816	0	29184	
6817	0	29292	
6818	0	29402	
6819	0	29456	
6820	0	29524	
6821	0	29588	
6822	0	29676	
6823	0	29724	
6824	0	29738	
6825	0	29780	
6826	0	29840	
6827	0	29936	
6828	0	30028	
6829	0	30108	
6830	0	30138	
6831	0	30168	
6832	0	30224	
6833	0	30320	
6834	0	30404	
6835	0	30484	
6836	0	30524	
6837	0	30556	
6838	0	30600	
6839	0	30632	
6840	0	30672	
6841	0	30736	
6842	0	30784	
6843	0	30844	
6844	0	30888	
6845	0	30928	
6846	0	30990	
6847	0	31052	
6848	0	31144	
6849	0	31222	
6850	0	31312	
6851	0	31384	
6852	0	31420	
6853	0	31424	
6854	0	31424	
6855	0	31408	
6856	0	31456	
6857	0	31484	
6858	0	31528	
6859	0	31584	
6860	0	31600	
6861	0	31628	
6862	0	31648	
6863	0	31700	
6864	0	31748	
6865	0	31796	
6866	0	31824	
6867	0	31856	
6868	0	31872	
6869	0	31916	
6870	0	31968	
6871	0	31992	
6872	0	32012	
6873	0	32034	
6874	0	32044	
6875	0	32036	
6876	0	32066	
6877	0	32068	
6878	0	32060	
6879	0	32096	
6880	0	32116	
6881	0	32092	
6882	0	32080	
6883	0	32096	
6884	0	32152	
6885	0	32220	
6886	0	32304	
6887	0	32392	
6888	0	32504	
6889	0	32556	
6890	0	32624	
6891	0	32712	
6892	0	32752	
6893	0	32784	
6894	0	32778	
6895	0	32772	
6896	0	32772	
6897	0	32778	
6898	0	32802	
6899	0	32800	
6900	0	32772	
6901	0	32748	
6902	0	32684	
6903	0	32666	
6904	0	32684	
6905	0	32725	
6906	0	32748	
6907	0	32736	
6908	0	32736	
6909	0	32776	
6910	0	32828	
6911	0	32876	
6912	0	32902	
6913	0	32880	
6914	0	32860	
6915	0	32840	
6916	0	32820	
6917	0	32832	
6918	0	32876	
6919	0	32916	
6920	0	32952	
6921	0	32956	
6922	0	32976	
6923	0	32948	
6924	0	32942	
6925	0	33004	
6926	0	33076	
6927	0	33148	
6928	0	33162	
6929	0	33136	
6930	0	33096	
6931	0	33112	
6932	0	33128	
6933	0	33144	
6934	0	33168	
6935	0	33176	
6936	0	33140	
6937	0	33112	
6938	0	33056	
6939	0	33052	
6940	0	33100	
6941	0	33184	
6942	0	33242	
6943	0	33280	
6944	0	33268	
6945	0	33268	
6946	0	33292	
6947	0	33292	
6948	0	33296	
6949	0	33312	
6950	0	33344	
6951	0	33372	
6952	0	33384	
6953	0	33380	
6954	0	33364	
6955	0	33324	
6956	0	33316	
6957	0	33328	
6958	0	33312	
6959	0	33292	
6960	0	33248	
6961	0	33220	
6962	0	33184	
6963	0	33144	
6964	0	33124	
6965	0	33088	
6966	0	33108	
6967	0	33120	
6968	0	33144	
6969	0	33146	
6970	0	33184	
6971	0	33264	
6972	0	33332	
6973	0	33360	
6974	0	33392	
6975	0	33388	
6976	0	33352	
6977	0	33320	
6978	0	33312	
6979	0	33308	
6980	0	33276	
6981	0	33256	
6982	0	33300	
6983	0	33412	
6984	0	33544	
6985	0	33610	
6986	0	33620	
6987	0	33632	
6988	0	33612	
6989	0	33580	
6990	0	33552	
6991	0	33532	
6992	0	33576	
6993	0	33656	
6994	0	33712	
6995	0	33694	
6996	0	33700	
6997	0	33708	
6998	0	33740	
6999	0	33780	
7000	0	33780	
7001	0	33736	
7002	0	33644	
7003	0	33560	
7004	0	33500	
7005	0	33412	
7006	0	33352	
7007	0	33328	
7008	0	33296	
7009	0	33244	
7010	0	33236	
7011	0	33220	
7012	0	33196	
7013	0	33208	
7014	0	33204	
7015	0	33156	
7016	0	33064	
7017	0	33016	
7018	0	32984	
7019	0	32864	
7020	0	32776	
7021	0	32672	
7022	0	32616	
7023	0	32596	
7024	0	32616	
7025	0	32576	
7026	0	32496	
7027	0	32360	
7028	0	32228	
7029	0	32100	
7030	0	32004	
7031	0	31932	
7032	0	31900	
7033	0	31880	
7034	0	31884	
7035	0	31868	
7036	0	31876	
7037	0	31940	
7038	0	32008	
7039	0	32034	
7040	0	32020	
7041	0	31944	
7042	0	31872	
7043	0	31772	
7044	0	31680	
7045	0	31668	
7046	0	31684	
7047	0	31720	
7048	0	31728	
7049	0	31692	
7050	0	31668	
7051	0	31624	
7052	0	31584	
7053	0	31576	
7054	0	31572	
7055	0	31514	
7056	0	31460	
7057	0	31432	
7058	0	31394	
7059	0	31352	
7060	0	31320	
7061	0	31310	
7062	0	31304	
7063	0	31288	
7064	0	31312	
7065	0	31332	
7066	0	31388	
7067	0	31434	
7068	0	31512	
7069	0	31584	
7070	0	31612	
7071	0	31632	
7072	0	31604	
7073	0	31524	
7074	0	31488	
7075	0	31456	
7076	0	31468	
7077	0	31480	
7078	0	31472	
7079	0	31484	
7080	0	31504	
7081	0	31540	
7082	0	31564	
7083	0	31592	
7084	0	31572	
7085	0	31562	
7086	0	31552	
7087	0	31536	
7088	0	31532	
7089	0	31532	
7090	0	31480	
7091	0	31464	
7092	0	31488	
7093	0	31536	
7094	0	31616	
7095	0	31688	
7096	0	31690	
7097	0	31748	
7098	0	31776	
7099	0	31770	
7100	0	31768	
7101	0	31784	
7102	0	31804	
7103	0	31804	
7104	0	31824	
7105	0	31860	
7106	0	31928	
7107	0	31948	
7108	0	31912	
7109	0	31896	
7110	0	31888	
7111	0	31904	
7112	0	31862	
7113	0	31820	
7114	0	31784	
7115	0	31792	
7116	0	31800	
7117	0	31840	
7118	0	31872	
7119	0	31928	
7120	0	31992	
7121	0	32024	
7122	0	32024	
7123	0	32032	
7124	0	32044	
7125	0	32020	
7126	0	32028	
7127	0	32060	
7128	0	32092	
7129	0	32112	
7130	0	32088	
7131	0	32060	
7132	0	32008	
7133	0	32020	
7134	0	32016	
7135	0	31956	
7136	0	31936	
7137	0	32004	
7138	0	32124	
7139	0	32228	
7140	0	32300	
7141	0	32372	
7142	0	32480	
7143	0	32632	
7144	0	32672	
7145	0	32704	
7146	0	32748	
7147	0	32768	
7148	0	32776	
7149	0	32780	
7150	0	32780	
7151	0	32704	
7152	0	32650	
7153	0	32626	
7154	0	32628	
7155	0	32668	
7156	0	32692	
7157	0	32664	
7158	0	32584	
7159	0	32548	
7160	0	32544	
7161	0	32600	
7162	0	32664	
7163	0	32692	
7164	0	32704	
7165	0	32716	
7166	0	32680	
7167	0	32604	
7168	0	32488	
7169	0	32320	
7170	0	32204	
7171	0	32148	
7172	0	32172	
7173	0	32204	
7174	0	32236	
7175	0	32340	
7176	0	32472	
7177	0	32576	
7178	0	32660	
7179	0	32880	
7180	0	33056	
7181	0	33112	
7182	0	33086	
7183	0	33004	
7184	0	32932	
7185	0	32922	
7186	0	32944	
7187	0	33024	
7188	0	33072	
7189	0	33108	
7190	0	33116	
7191	0	33104	
7192	0	33064	
7193	0	33016	
7194	0	32960	
7195	0	32848	
7196	0	32736	
7197	0	32684	
7198	0	32556	
7199	0	32480	
7200	0	32452	
7201	0	32360	
7202	0	32272	
7203	0	32264	
7204	0	32312	
7205	0	32364	
7206	0	32400	
7207	0	32488	
7208	0	32590	
7209	0	32620	
7210	0	32648	
7211	0	32644	
7212	0	32592	
7213	0	32584	
7214	0	32564	
7215	0	32512	
7216	0	32472	
7217	0	32468	
7218	0	32492	
7219	0	32504	
7220	0	32492	
7221	0	32490	
7222	0	32472	
7223	0	32448	
7224	0	32476	
7225	0	32460	
7226	0	32462	
7227	0	32504	
7228	0	32476	
7229	0	32396	
7230	0	32352	
7231	0	32440	
7232	0	32484	
7233	0	32496	
7234	0	32564	
7235	0	32624	
7236	0	32696	
7237	0	32728	
7238	0	32704	
7239	0	32624	
7240	0	32436	
7241	0	32252	
7242	0	32204	
7243	0	32248	
7244	0	32312	
7245	0	32340	
7246	0	32272	
7247	0	32128	
7248	0	32060	
7249	0	32000	
7250	0	31982	
7251	0	32008	
7252	0	32004	
7253	0	31992	
7254	0	31960	
7255	0	32024	
7256	0	32120	
7257	0	32172	
7258	0	32192	
7259	0	32208	
7260	0	32224	
7261	0	32232	
7262	0	32292	
7263	0	32328	
7264	0	32272	
7265	0	32140	
7266	0	32024	
7267	0	32004	
7268	0	31992	
7269	0	32116	
7270	0	32324	
7271	0	32480	
7272	0	32628	
7273	0	32610	
7274	0	32486	
7275	0	32352	
7276	0	32248	
7277	0	32176	
7278	0	32200	
7279	0	32200	
7280	0	32152	
7281	0	32008	
7282	0	31964	
7283	0	31916	
7284	0	31984	
7285	0	32140	
7286	0	32262	
7287	0	32344	
7288	0	32364	
7289	0	32308	
7290	0	32236	
7291	0	32184	
7292	0	32156	
7293	0	32088	
7294	0	31994	
7295	0	31904	
7296	0	31938	
7297	0	31972	
7298	0	32048	
7299	0	32210	
7300	0	32346	
7301	0	32448	
7302	0	32540	
7303	0	32640	
7304	0	32730	
7305	0	32778	
7306	0	32738	
7307	0	32736	
7308	0	32864	
7309	0	33036	
7310	0	33112	
7311	0	33120	
7312	0	33144	
7313	0	33224	
7314	0	33352	
7315	0	33468	
7316	0	33496	
7317	0	33484	
7318	0	33514	
7319	0	33530	
7320	0	33524	
7321	0	33512	
7322	0	33468	
7323	0	33296	
7324	0	33144	
7325	0	33096	
7326	0	33152	
7327	0	33290	
7328	0	33504	
7329	0	33716	
7330	0	33932	
7331	0	34216	
7332	0	34546	
7333	0	34910	
7334	0	35260	
7335	0	35528	
7336	0	35696	
7337	0	35840	
7338	0	35944	
7339	0	36040	
7340	0	36204	
7341	0	36320	
7342	0	36386	
7343	0	36380	
7344	0	36296	
7345	0	36152	
7346	0	36088	
7347	0	36076	
7348	0	35980	
7349	0	35864	
7350	0	35792	
7351	0	35672	
7352	0	35520	
7353	0	35484	
7354	0	35482	
7355	0	35424	
7356	0	35424	
7357	0	35468	
7358	0	35476	
7359	0	35514	
7360	0	35480	
7361	0	35408	
7362	0	35360	
7363	0	35260	
7364	0	35096	
7365	0	34824	
7366	0	34412	
7367	0	34000	
7368	0	33528	
7369	0	33002	
7370	0	32552	
7371	0	32168	
7372	0	31876	
7373	0	31624	
7374	0	31456	
7375	0	31352	
7376	0	31328	
7377	0	31328	
7378	0	31240	
7379	0	31160	
7380	0	31088	
7381	0	31016	
7382	0	30936	
7383	0	30864	
7384	0	30840	
7385	0	30876	
7386	0	30804	
7387	0	30780	
7388	0	30848	
7389	0	30960	
7390	0	31040	
7391	0	31084	
7392	0	31064	
7393	0	30944	
7394	0	30836	
7395	0	30788	
7396	0	30784	
7397	0	30812	
7398	0	30876	
7399	0	30932	
7400	0	30924	
7401	0	30772	
7402	0	30624	
7403	0	30544	
7404	0	30528	
7405	0	30592	
7406	0	30668	
7407	0	30748	
7408	0	30876	
7409	0	30904	
7410	0	30820	
7411	0	30722	
7412	0	30664	
7413	0	30682	
7414	0	30636	
7415	0	30512	
7416	0	30488	
7417	0	30616	
7418	0	30776	
7419	0	30804	
7420	0	30808	
7421	0	30762	
7422	0	30744	
7423	0	30792	
7424	0	30898	
7425	0	30972	
7426	0	31008	
7427	0	30948	
7428	0	30722	
7429	0	30356	
7430	0	29732	
7431	0	28816	
7432	0	27664	
7433	0	26424	
7434	0	25248	
7435	0	24154	
7436	0	23188	
7437	0	22504	
7438	0	22108	
7439	0	21812	
7440	0	21752	
7441	0	22076	
7442	0	22672	
7443	0	23404	
7444	0	24336	
7445	0	25646	
7446	0	27476	
7447	0	29708	
7448	0	32288	
7449	0	35188	
7450	0	38348	
7451	0	41518	
7452	0	45008	
7453	0	48796	
7454	0	52760	
7455	0	56796	
7456	0	60568	
7457	0	63076	
7458	0	64420	
7459	0	65100	
7460	0	65392	
7461	0	65516	
7462	0	65512	
7463	0	65452	
7464	0	65344	
7465	0	65228	
7466	0	65116	
7467	0	57984	
7468	0	51252	
7469	0	45904	
7470	0	41376	
7471	0	37068	
7472	0	33284	
7473	0	30576	
7474	0	28898	
7475	0	27650	
7476	0	26348	
7477	0	24940	
7478	0	23456	
7479	0	22000	
7480	0	20920	
7481	0	20060	
7482	0	19346	
7483	0	18888	
7484	0	18704	
7485	0	18652	
7486	0	18548	
7487	0	18478	
7488	0	18498	
7489	0	18724	
7490	0	19040	
7491	0	19316	
7492	0	19628	
7493	0	20024	
7494	0	20352	
7495	0	20652	
7496	0	21064	
7497	0	21672	
7498	0	22272	
7499	0	22840	
7500	0	23508	
7501	0	24180	
7502	0	24708	
7503	0	25204	
7504	0	25756	
7505	0	26336	
7506	0	26892	
7507	0	27368	
7508	0	27830	
7509	0	28286	
7510	0	28706	
7511	0	29148	
7512	0	29584	
7513	0	29948	
7514	0	30136	
7515	0	30124	
7516	0	30042	
7517	0	29920	
7518	0	29864	
7519	0	29922	
7520	0	29972	
7521	0	30020	
7522	0	30180	
7523	0	30354	
7524	0	30536	
7525	0	30730	
7526	0	30920	
7527	0	30940	
7528	0	30840	
7529	0	30816	
7530	0	30880	
7531	0	30964	
7532	0	31024	
7533	0	31036	
7534	0	31096	
7535	0	31200	
7536	0	31268	
7537	0	31322	
7538	0	31428	
7539	0	31564	
7540	0	31684	
7541	0	31864	
7542	0	32012	
7543	0	32124	
7544	0	32100	
7545	0	31960	
7546	0	31888	
7547	0	31836	
7548	0	31788	
7549	0	31792	
7550	0	31868	
7551	0	31864	
7552	0	31812	
7553	0	31780	
7554	0	31812	
7555	0	31928	
7556	0	32092	
7557	0	32232	
7558	0	32300	
7559	0	32396	
7560	0	32424	
7561	0	32352	
7562	0	32320	
7563	0	32360	
7564	0	32362	
7565	0	32372	
7566	0	32408	
7567	0	32468	
7568	0	32460	
7569	0	32472	
7570	0	32598	
7571	0	32762	
7572	0	32816	
7573	0	32764	
7574	0	32656	
7575	0	32688	
7576	0	32788	
7577	0	32868	
7578	0	32928	
7579	0	33056	
7580	0	33280	
7581	0	33516	
7582	0	33676	
7583	0	33716	
7584	0	33608	
7585	0	33440	
7586	0	33352	
7587	0	33212	
7588	0	32976	
7589	0	32792	
7590	0	32764	
7591	0	32868	
7592	0	33032	
7593	0	33140	
7594	0	33184	
7595	0	33196	
7596	0	33168	
7597	0	33160	
7598	0	33268	
7599	0	33492	
7600	0	33608	
7601	0	33576	
7602	0	33472	
7603	0	33362	
7604	0	33280	
7605	0	33272	
7606	0	33284	
7607	0	33336	
7608	0	33412	
7609	0	33500	
7610	0	33612	
7611	0	33732	
7612	0	33888	
7613	0	33968	
7614	0	33992	
7615	0	34012	
7616	0	34040	
7617	0	34028	
7618	0	34036	
7619	0	34072	
7620	0	34002	
7621	0	33836	
7622	0	33720	
7623	0	33568	
7624	0	33440	
7625	0	33408	
7626	0	33428	
7627	0	33600	
7628	0	33900	
7629	0	34084	
7630	0	34052	
7631	0	34028	
7632	0	34000	
7633	0	33964	
7634	0	33976	
7635	0	34028	
7636	0	34038	
7637	0	33988	
7638	0	33956	
7639	0	33932	
7640	0	34028	
7641	0	34192	
7642	0	34388	
7643	0	34656	
7644	0	34852	
7645	0	34920	
7646	0	34896	
7647	0	34804	
7648	0	34612	
7649	0	34272	
7650	0	33936	
7651	0	33768	
7652	0	33760	
7653	0	33888	
7654	0	34152	
7655	0	34444	
7656	0	34680	
7657	0	34848	
7658	0	34936	
7659	0	35120	
7660	0	35252	
7661	0	35160	
7662	0	34992	
7663	0	34880	
7664	0	34744	
7665	0	34484	
7666	0	34136	
7667	0	33896	
7668	0	33852	
7669	0	33892	
7670	0	33868	
7671	0	33848	
7672	0	33888	
7673	0	34000	
7674	0	34220	
7675	0	34432	
7676	0	34676	
7677	0	34848	
7678	0	34992	
7679	0	35088	
7680	0	35080	
7681	0	35000	
7682	0	34760	
7683	0	34512	
7684	0	34332	
7685	0	34172	
7686	0	33994	
7687	0	33960	
7688	0	34000	
7689	0	33992	
7690	0	33970	
7691	0	33940	
7692	0	34008	
7693	0	34068	
7694	0	34108	
7695	0	34228	
7696	0	34424	
7697	0	34604	
7698	0	34764	
7699	0	34900	
7700	0	34848	
7701	0	34688	
7702	0	34552	
7703	0	34370	
7704	0	34048	
7705	0	33640	
7706	0	33244	
7707	0	33028	
7708	0	32924	
7709	0	32956	
7710	0	33118	
7711	0	33360	
7712	0	33608	
7713	0	33656	
7714	0	33580	
7715	0	33448	
7716	0	33220	
7717	0	32992	
7718	0	32788	
7719	0	32720	
7720	0	32740	
7721	0	32836	
7722	0	32864	
7723	0	32872	
7724	0	32780	
7725	0	32592	
7726	0	32504	
7727	0	32424	
7728	0	32180	
7729	0	31892	
7730	0	31756	
7731	0	31876	
7732	0	31904	
7733	0	31732	
7734	0	31672	
7735	0	31748	
7736	0	31808	
7737	0	31720	
7738	0	31732	
7739	0	31844	
7740	0	31916	
7741	0	31920	
7742	0	31856	
7743	0	31668	
7744	0	31464	
7745	0	31396	
7746	0	31464	
7747	0	31660	
7748	0	31800	
7749	0	31822	
7750	0	31864	
7751	0	31672	
7752	0	31384	
7753	0	31232	
7754	0	31252	
7755	0	31322	
7756	0	31316	
7757	0	31284	
7758	0	31300	
7759	0	31304	
7760	0	31312	
7761	0	31248	
7762	0	31184	
7763	0	31196	
7764	0	31378	
7765	0	31710	
7766	0	32068	
7767	0	32368	
7768	0	32560	
7769	0	32456	
7770	0	32012	
7771	0	31588	
7772	0	31352	
7773	0	31040	
7774	0	30744	
7775	0	30620	
7776	0	30640	
7777	0	30704	
7778	0	30804	
7779	0	31016	
7780	0	31176	
7781	0	31192	
7782	0	31316	
7783	0	31630	
7784	0	31996	
7785	0	32196	
7786	0	32204	
7787	0	32064	
7788	0	31848	
7789	0	31872	
7790	0	32032	
7791	0	32092	
7792	0	31880	
7793	0	31600	
7794	0	31516	
7795	0	31524	
7796	0	31458	
7797	0	31312	
7798	0	31092	
7799	0	30848	
7800	0	30608	
7801	0	30660	
7802	0	30952	
7803	0	31396	
7804	0	31896	
7805	0	32152	
7806	0	32200	
7807	0	32116	
7808	0	31960	
7809	0	31728	
7810	0	31546	
7811	0	31528	
7812	0	31580	
7813	0	31540	
7814	0	31424	
7815	0	31290	
7816	0	31332	
7817	0	31512	
7818	0	31648	
7819	0	31808	
7820	0	31988	
7821	0	32108	
7822	0	32120	
7823	0	32032	
7824	0	31858	
7825	0	31736	
7826	0	31652	
7827	0	31620	
7828	0	31754	
7829	0	32032	
7830	0	32204	
7831	0	32206	
7832	0	32164	
7833	0	32254	
7834	0	32538	
7835	0	32804	
7836	0	32972	
7837	0	33028	
7838	0	32848	
7839	0	32592	
7840	0	32508	
7841	0	32568	
7842	0	32588	
7843	0	32528	
7844	0	32468	
7845	0	32336	
7846	0	32220	
7847	0	32208	
7848	0	32272	
7849	0	32304	
7850	0	32432	
7851	0	32648	
7852	0	32880	
7853	0	33082	
7854	0	33052	
7855	0	32824	
7856	0	32698	
7857	0	32640	
7858	0	32664	
7859	0	32784	
7860	0	32836	
7861	0	32680	
7862	0	32624	
7863	0	32692	
7864	0	32880	
7865	0	33020	
7866	0	33112	
7867	0	33084	
7868	0	33016	
7869	0	33084	
7870	0	33144	
7871	0	33016	
7872	0	32926	
7873	0	32948	
7874	0	33036	
7875	0	33080	
7876	0	33200	
7877	0	33376	
7878	0	33482	
7879	0	33508	
7880	0	33472	
7881	0	33312	
7882	0	33048	
7883	0	32844	
7884	0	32784	
7885	0	32756	
7886	0	32738	
7887	0	32704	
7888	0	32728	
7889	0	32892	
7890	0	33156	
7891	0	33480	
7892	0	33676	
7893	0	33656	
7894	0	33628	
7895	0	33604	
7896	0	33548	
7897	0	33568	
7898	0	33580	
7899	0	33428	
7900	0	33316	
7901	0	33306	
7902	0	33290	
7903	0	33244	
7904	0	33264	
7905	0	33320	
7906	0	33260	
7907	0	33056	
7908	0	32892	
7909	0	32884	
7910	0	32964	
7911	0	33124	
7912	0	33376	
7913	0	33660	
7914	0	33868	
7915	0	33802	
7916	0	33548	
7917	0	33244	
7918	0	33120	
7919	0	33132	
7920	0	33112	
7921	0	33072	
7922	0	33020	
7923	0	32860	
7924	0	32688	
7925	0	32600	
7926	0	32688	
7927	0	32756	
7928	0	32804	
7929	0	33036	
7930	0	33120	
7931	0	32972	
7932	0	32844	
7933	0	32928	
7934	0	33080	
7935	0	33096	
7936	0	33044	
7937	0	33032	
7938	0	33072	
7939	0	33048	
7940	0	32928	
7941	0	32880	
7942	0	32812	
7943	0	32824	
7944	0	32980	
7945	0	33044	
7946	0	32992	
7947	0	32856	
7948	0	32624	
7949	0	32464	
7950	0	32588	
7951	0	32824	
7952	0	33020	
7953	0	33200	
7954	0	33350	
7955	0	33360	
7956	0	33248	
7957	0	33220	
7958	0	33212	
7959	0	33072	
7960	0	32912	
7961	0	33096	
7962	0	33472	
7963	0	33680	
7964	0	33744	
7965	0	33556	
7966	0	33328	
7967	0	33448	
7968	0	33832	
7969	0	34264	
7970	0	34472	
7971	0	34272	
7972	0	33776	
7973	0	33252	
7974	0	32872	
7975	0	32888	
7976	0	33200	
7977	0	33680	
7978	0	34062	
7979	0	34260	
7980	0	34580	
7981	0	34956	
7982	0	35252	
7983	0	35534	
7984	0	35884	
7985	0	36208	
7986	0	36516	
7987	0	36786	
7988	0	36860	
7989	0	36812	
7990	0	36668	
7991	0	36300	
7992	0	35944	
7993	0	35780	
7994	0	35712	
7995	0	35716	
7996	0	35800	
7997	0	35892	
7998	0	35984	
7999	0	36044	
8000	0	36044	
8001	0	35932	
8002	0	35876	
8003	0	35884	
8004	0	36008	
8005	0	36272	
8006	0	36494	
8007	0	36440	
8008	0	36006	
8009	0	35384	
8010	0	34880	
8011	0	34620	
8012	0	34564	
8013	0	34440	
8014	0	34336	
8015	0	34240	
8016	0	34186	
8017	0	34080	
8018	0	34096	
8019	0	34072	
8020	0	33880	
8021	0	33636	
8022	0	33376	
8023	0	33140	
8024	0	32888	
8025	0	32568	
8026	0	32188	
8027	0	31694	
8028	0	31288	
8029	0	31132	
8030	0	31208	
8031	0	31354	
8032	0	31436	
8033	0	31352	
8034	0	31168	
8035	0	30900	
8036	0	30712	
8037	0	30712	
8038	0	30896	
8039	0	31180	
8040	0	31416	
8041	0	31408	
8042	0	31194	
8043	0	30970	
8044	0	30714	
8045	0	30552	
8046	0	30460	
8047	0	30468	
8048	0	30482	
8049	0	30368	
8050	0	30504	
8051	0	30864	
8052	0	31304	
8053	0	31628	
8054	0	31736	
8055	0	31552	
8056	0	31228	
8057	0	31068	
8058	0	31100	
8059	0	31104	
8060	0	30948	
8061	0	30784	
8062	0	30784	
8063	0	30844	
8064	0	30924	
8065	0	31008	
8066	0	31032	
8067	0	30956	
8068	0	31000	
8069	0	31192	
8070	0	31312	
8071	0	31232	
8072	0	31044	
8073	0	30996	
8074	0	31200	
8075	0	31516	
8076	0	31636	
8077	0	31560	
8078	0	31388	
8079	0	31082	
8080	0	30600	
8081	0	29848	
8082	0	28712	
8083	0	27360	
8084	0	26088	
8085	0	25030	
8086	0	24344	
8087	0	23948	
8088	0	23560	
8089	0	23202	
8090	0	23177	
8091	0	23616	
8092	0	24342	
8093	0	25384	
8094	0	26800	
8095	0	28580	
8096	0	30480	
8097	0	32708	
8098	0	35220	
8099	0	38032	
8100	0	40864	
8101	0	43652	
8102	0	46888	
8103	0	50512	
8104	0	54300	
8105	0	57972	
8106	0	61284	
8107	0	63424	
8108	0	64548	
8109	0	65096	
8110	0	65344	
8111	0	65404	
8112	0	65396	
8113	0	65308	
8114	0	65204	
8115	0	65100	
8116	0	60624	
8117	0	52300	
8118	0	45656	
8119	0	40516	
8120	0	36312	
8121	0	32684	
8122	0	29876	
8123	0	28184	
8124	0	27480	
8125	0	26876	
8126	0	26052	
8127	0	25228	
8128	0	24392	
8129	0	23136	
8130	0	21664	
8131	0	20484	
8132	0	19584	
8133	0	18914	
8134	0	18702	
8135	0	18604	
8136	0	18520	
8137	0	18300	
8138	0	18024	
8139	0	17938	
8140	0	18364	
8141	0	19084	
8142	0	19936	
8143	0	20772	
8144	0	21264	
8145	0	21608	
8146	0	22096	
8147	0	22464	
8148	0	22752	
8149	0	22912	
8150	0	22988	
8151	0	23204	
8152	0	23672	
8153	0	24256	
8154	0	24864	
8155	0	25528	
8156	0	26232	
8157	0	26916	
8158	0	27640	
8159	0	28472	
8160	0	29264	
8161	0	29900	
8162	0	30256	
8163	0	30200	
8164	0	30112	
8165	0	30168	
8166	0	30312	
8167	0	30564	
8168	0	30898	
8169	0	31180	
8170	0	31204	
8171	0	31144	
8172	0	31256	
8173	0	31596	
8174	0	31936	
8175	0	32108	
8176	0	32044	
8177	0	31952	
8178	0	31908	
8179	0	31692	
8180	0	31272	
8181	0	31040	
8182	0	31168	
8183	0	31480	
8184	0	31864	
8185	0	32138	
8186	0	32340	
8187	0	32520	
8188	0	32604	
8189	0	32780	
8190	0	33000	
8191	0	33036	
8192	0	32984	
8193	0	32944	
8194	0	32864	
8195	0	32712	
8196	0	32584	
8197	0	32440	
8198	0	32296	
8199	0	32292	
8200	0	32336	
8201	0	32288	
8202	0	32260	
8203	0	32204	
8204	0	32056	
8205	0	32028	
8206	0	32180	
8207	0	32340	
8208	0	32384	
8209	0	32500	
8210	0	32852	
8211	0	33232	
8212	0	33448	
8213	0	33472	
8214	0	33520	
8215	0	33604	
8216	0	33596	
8217	0	33692	
8218	0	33824	
8219	0	33924	
8220	0	34024	
8221	0	34164	
8222	0	34236	
8223	0	34160	
8224	0	33888	
8225	0	33416	
8226	0	33104	
8227	0	33032	
8228	0	33280	
8229	0	33860	
8230	0	34344	
8231	0	34520	
8232	0	34464	
8233	0	34176	
8234	0	33960	
8235	0	33872	
8236	0	33828	
8237	0	33928	
8238	0	33972	
8239	0	33912	
8240	0	33736	
8241	0	33460	
8242	0	33164	
8243	0	33152	
8244	0	33532	
8245	0	34012	
8246	0	34500	
8247	0	34680	
8248	0	34516	
8249	0	34300	
8250	0	34328	
8251	0	34364	
8252	0	34348	
8253	0	34272	
8254	0	34260	
8255	0	34280	
8256	0	33988	
8257	0	33640	
8258	0	33496	
8259	0	33616	
8260	0	33952	
8261	0	34352	
8262	0	34820	
8263	0	35224	
8264	0	35420	
8265	0	35236	
8266	0	34692	
8267	0	34286	
8268	0	34136	
8269	0	34088	
8270	0	34056	
8271	0	34216	
8272	0	34688	
8273	0	35172	
8274	0	35404	
8275	0	35504	
8276	0	35562	
8277	0	35576	
8278	0	35568	
8279	0	35488	
8280	0	35272	
8281	0	35028	
8282	0	34784	
8283	0	34560	
8284	0	34472	
8285	0	34436	
8286	0	34484	
8287	0	34568	
8288	0	34754	
8289	0	35032	
8290	0	35028	
8291	0	34936	
8292	0	35084	
8293	0	35328	
8294	0	35504	
8295	0	35524	
8296	0	35470	
8297	0	35500	
8298	0	35684	
8299	0	35824	
8300	0	35804	
8301	0	35444	
8302	0	35104	
8303	0	34960	
8304	0	35008	
8305	0	35100	
8306	0	35028	
8307	0	34916	
8308	0	34744	
8309	0	34772	
8310	0	34936	
8311	0	35008	
8312	0	35020	
8313	0	35088	
8314	0	35196	
8315	0	35348	
8316	0	35440	
8317	0	35360	
8318	0	35216	
8319	0	35144	
8320	0	35152	
8321	0	35260	
8322	0	35372	
8323	0	35280	
8324	0	35028	
8325	0	34712	
8326	0	34620	
8327	0	34656	
8328	0	34692	
8329	0	34592	
8330	0	34496	
8331	0	34548	
8332	0	34656	
8333	0	34912	
8334	0	35080	
8335	0	35040	
8336	0	34868	
8337	0	34736	
8338	0	34672	
8339	0	34640	
8340	0	34724	
8341	0	34924	
8342	0	35044	
8343	0	35024	
8344	0	34880	
8345	0	34700	
8346	0	34552	
8347	0	34456	
8348	0	34380	
8349	0	34284	
8350	0	34212	
8351	0	33966	
8352	0	33828	
8353	0	33748	
8354	0	33696	
8355	0	33704	
8356	0	33620	
8357	0	33464	
8358	0	33352	
8359	0	33392	
8360	0	33484	
8361	0	33454	
8362	0	33332	
8363	0	33216	
8364	0	33224	
8365	0	33296	
8366	0	33260	
8367	0	32920	
8368	0	32556	
8369	0	32440	
8370	0	32564	
8371	0	32808	
8372	0	33072	
8373	0	33036	
8374	0	32748	
8375	0	32428	
8376	0	32072	
8377	0	31860	
8378	0	31756	
8379	0	31828	
8380	0	32008	
8381	0	32332	
8382	0	32512	
8383	0	32508	
8384	0	32472	
8385	0	32420	
8386	0	32308	
8387	0	32172	
8388	0	32136	
8389	0	32128	
8390	0	32136	
8391	0	32065	
8392	0	31850	
8393	0	31606	
8394	0	31412	
8395	0	31308	
8396	0	31328	
8397	0	31356	
8398	0	31364	
8399	0	31440	
8400	0	31520	
8401	0	31668	
8402	0	31896	
8403	0	32142	
8404	0	32256	
8405	0	32220	
8406	0	32094	
8407	0	31880	
8408	0	31592	
8409	0	31428	
8410	0	31432	
8411	0	31452	
8412	0	31514	
8413	0	31540	
8414	0	31540	
8415	0	31392	
8416	0	31148	
8417	0	31048	
8418	0	31040	
8419	0	31032	
8420	0	31074	
8421	0	31176	
8422	0	31284	
8423	0	31364	
8424	0	31564	
8425	0	31816	
8426	0	32072	
8427	0	32146	
8428	0	32032	
8429	0	31760	
8430	0	31648	
8431	0	31628	
8432	0	31708	
8433	0	31744	
8434	0	31792	
8435	0	31852	
8436	0	31848	
8437	0	31772	
8438	0	31628	
8439	0	31700	
8440	0	31876	
8441	0	31916	
8442	0	31852	
8443	0	31676	
8444	0	31616	
8445	0	31646	
8446	0	31520	
8447	0	31232	
8448	0	31104	
8449	0	31252	
8450	0	31488	
8451	0	31554	
8452	0	31568	
8453	0	31696	
8454	0	31944	
8455	0	32084	
8456	0	32096	
8457	0	32140	
8458	0	32232	
8459	0	32380	
8460	0	32424	
8461	0	32300	
8462	0	32116	
8463	0	31968	
8464	0	31880	
8465	0	31720	
8466	0	31504	
8467	0	31456	
8468	0	31592	
8469	0	31772	
8470	0	31860	
8471	0	31932	
8472	0	31984	
8473	0	31968	
8474	0	31896	
8475	0	31888	
8476	0	31936	
8477	0	32084	
8478	0	32344	
8479	0	32652	
8480	0	32892	
8481	0	32960	
8482	0	32976	
8483	0	32964	
8484	0	32880	
8485	0	32752	
8486	0	32580	
8487	0	32400	
8488	0	32324	
8489	0	32414	
8490	0	32666	
8491	0	32928	
8492	0	32984	
8493	0	32860	
8494	0	32668	
8495	0	32520	
8496	0	32440	
8497	0	32440	
8498	0	32536	
8499	0	32644	
8500	0	32684	
8501	0	32648	
8502	0	32604	
8503	0	32616	
8504	0	32768	
8505	0	33036	
8506	0	33128	
8507	0	33052	
8508	0	33056	
8509	0	33168	
8510	0	33216	
8511	0	33192	
8512	0	33168	
8513	0	33204	
8514	0	33296	
8515	0	33452	
8516	0	33600	
8517	0	33604	
8518	0	33532	
8519	0	33392	
8520	0	33304	
8521	0	33316	
8522	0	33404	
8523	0	33560	
8524	0	33642	
8525	0	33584	
8526	0	33444	
8527	0	33268	
8528	0	33120	
8529	0	33176	
8530	0	33348	
8531	0	33504	
8532	0	33544	
8533	0	33502	
8534	0	33416	
8535	0	33308	
8536	0	33200	
8537	0	33096	
8538	0	33050	
8539	0	33048	
8540	0	33124	
8541	0	33254	
8542	0	33308	
8543	0	33324	
8544	0	33280	
8545	0	33204	
8546	0	33100	
8547	0	32948	
8548	0	32868	
8549	0	32932	
8550	0	33168	
8551	0	33468	
8552	0	33652	
8553	0	33696	
8554	0	33624	
8555	0	33524	
8556	0	33412	
8557	0	33312	
8558	0	33272	
8559	0	33364	
8560	0	33412	
8561	0	33340	
8562	0	33168	
8563	0	33020	
8564	0	32880	
8565	0	32768	
8566	0	32604	
8567	0	32440	
8568	0	32396	
8569	0	32520	
8570	0	32732	
8571	0	32920	
8572	0	33048	
8573	0	33072	
8574	0	32992	
8575	0	32928	
8576	0	32968	
8577	0	33044	
8578	0	33056	
8579	0	33052	
8580	0	33064	
8581	0	33096	
8582	0	33116	
8583	0	33112	
8584	0	33056	
8585	0	32992	
8586	0	32928	
8587	0	32928	
8588	0	33004	
8589	0	33124	
8590	0	33216	
8591	0	33312	
