# OpenSignals Text File Format. Version 1
# {"00:07:80:4B:15:F7": {"position": 0, "device": "biosignalsplux", "device name": "00:07:80:4B:15:F7", "device connection": "BTH00:07:80:4B:15:F7", "sampling rate": 1000, "resolution": [16], "firmware version": 775, "comments": "", "keywords": "", "mode": 0, "sync interval": 2, "date": "2023-4-27", "time": "17:37:33.211", "channels": [1], "sensor": ["ECG"], "label": ["CH1"], "column": ["nSeq", "DI", "CH1"], "special": [{"SpO2": [80, 40, 5, 4, 3, 3]}, {"SpO2": [80, 40, 5, 4, 3, 3]}, {"SpO2": [80, 40, 5, 4, 3, 3]}, {"SpO2": [80, 40, 5, 4, 3, 3]}, {"SpO2": [80, 40, 5, 4, 3, 3]}, {"SpO2": [80, 40, 5, 4, 3, 3]}, {"SpO2": [80, 40, 5, 4, 3, 3]}, {"SpO2": [80, 40, 5, 4, 3, 3]}], "digital IO": [0, 1], "sleeve color": ["green"], "convertedValues": 0}}
# EndOfHeader
0	0	27264	
1	0	27692	
2	0	28064	
3	0	28496	
4	0	28984	
5	0	29388	
6	0	29600	
7	0	29784	
8	0	29856	
9	0	29848	
10	0	29952	
11	0	30172	
12	0	30312	
13	0	30420	
14	0	30540	
15	0	30608	
16	0	30644	
17	0	30660	
18	0	30672	
19	0	30768	
20	0	30936	
21	0	31180	
22	0	31418	
23	0	31506	
24	0	31504	
25	0	31540	
26	0	31504	
27	0	31392	
28	0	31312	
29	0	31364	
30	0	31484	
31	0	31584	
32	0	31712	
33	0	31768	
34	0	31720	
35	0	31648	
36	0	31636	
37	0	31772	
38	0	31868	
39	0	31944	
40	0	32128	
41	0	32266	
42	0	32372	
43	0	32444	
44	0	32480	
45	0	32538	
46	0	32612	
47	0	32644	
48	0	32608	
49	0	32600	
50	0	32480	
51	0	32240	
52	0	32144	
53	0	32096	
54	0	31948	
55	0	31836	
56	0	31872	
57	0	32044	
58	0	32280	
59	0	32576	
60	0	32872	
61	0	33104	
62	0	33228	
63	0	33320	
64	0	33312	
65	0	33192	
66	0	33034	
67	0	32840	
68	0	32684	
69	0	32604	
70	0	32660	
71	0	32744	
72	0	32824	
73	0	32984	
74	0	33132	
75	0	33272	
76	0	33352	
77	0	33384	
78	0	33424	
79	0	33408	
80	0	33290	
81	0	33020	
82	0	32728	
83	0	32660	
84	0	32756	
85	0	32928	
86	0	33060	
87	0	33152	
88	0	33280	
89	0	33420	
90	0	33496	
91	0	33476	
92	0	33524	
93	0	33660	
94	0	33816	
95	0	34010	
96	0	34168	
97	0	34122	
98	0	33864	
99	0	33512	
100	0	33336	
101	0	33384	
102	0	33536	
103	0	33632	
104	0	33644	
105	0	33648	
106	0	33556	
107	0	33580	
108	0	33760	
109	0	33988	
110	0	34100	
111	0	34064	
112	0	33932	
113	0	33792	
114	0	33552	
115	0	33268	
116	0	33188	
117	0	33270	
118	0	33480	
119	0	33700	
120	0	33766	
121	0	33780	
122	0	33776	
123	0	33668	
124	0	33580	
125	0	33628	
126	0	33770	
127	0	33864	
128	0	33876	
129	0	33840	
130	0	33728	
131	0	33632	
132	0	33632	
133	0	33760	
134	0	33876	
135	0	33872	
136	0	33744	
137	0	33592	
138	0	33540	
139	0	33540	
140	0	33540	
141	0	33536	
142	0	33520	
143	0	33368	
144	0	33184	
145	0	33068	
146	0	33120	
147	0	33184	
148	0	33260	
149	0	33384	
150	0	33468	
151	0	33450	
152	0	33408	
153	0	33492	
154	0	33632	
155	0	33632	
156	0	33584	
157	0	33688	
158	0	33840	
159	0	33924	
160	0	33952	
161	0	33876	
162	0	33816	
163	0	33780	
164	0	33760	
165	0	33712	
166	0	33708	
167	0	33708	
168	0	33676	
169	0	33560	
170	0	33456	
171	0	33424	
172	0	33412	
173	0	33452	
174	0	33570	
175	0	33756	
176	0	33964	
177	0	34144	
178	0	34224	
179	0	34076	
180	0	33964	
181	0	34052	
182	0	34188	
183	0	34184	
184	0	34120	
185	0	34080	
186	0	34104	
187	0	34116	
188	0	34036	
189	0	33908	
190	0	33800	
191	0	33772	
192	0	33876	
193	0	34020	
194	0	34104	
195	0	34140	
196	0	34280	
197	0	34464	
198	0	34616	
199	0	34672	
200	0	34672	
201	0	34544	
202	0	34376	
203	0	34160	
204	0	33944	
205	0	33788	
206	0	33704	
207	0	33716	
208	0	33736	
209	0	33632	
210	0	33564	
211	0	33572	
212	0	33576	
213	0	33528	
214	0	33536	
215	0	33564	
216	0	33524	
217	0	33436	
218	0	33356	
219	0	33344	
220	0	33376	
221	0	33420	
222	0	33458	
223	0	33384	
224	0	33312	
225	0	33380	
226	0	33500	
227	0	33464	
228	0	33308	
229	0	33148	
230	0	33080	
231	0	33050	
232	0	32944	
233	0	32776	
234	0	32572	
235	0	32352	
236	0	32204	
237	0	32216	
238	0	32308	
239	0	32432	
240	0	32584	
241	0	32704	
242	0	32776	
243	0	32752	
244	0	32524	
245	0	32312	
246	0	32160	
247	0	32092	
248	0	32064	
249	0	32104	
250	0	32180	
251	0	32328	
252	0	32544	
253	0	32736	
254	0	32784	
255	0	32688	
256	0	32556	
257	0	32540	
258	0	32484	
259	0	32336	
260	0	32172	
261	0	32084	
262	0	32096	
263	0	32160	
264	0	32240	
265	0	32300	
266	0	32272	
267	0	32282	
268	0	32284	
269	0	32252	
270	0	32228	
271	0	32244	
272	0	32244	
273	0	32212	
274	0	32164	
275	0	32104	
276	0	32048	
277	0	32032	
278	0	32060	
279	0	32080	
280	0	32132	
281	0	32220	
282	0	32222	
283	0	32228	
284	0	32304	
285	0	32384	
286	0	32400	
287	0	32416	
288	0	32416	
289	0	32356	
290	0	32268	
291	0	32236	
292	0	32240	
293	0	32312	
294	0	32448	
295	0	32428	
296	0	32336	
297	0	32240	
298	0	32024	
299	0	31832	
300	0	31720	
301	0	31676	
302	0	31752	
303	0	31868	
304	0	31936	
305	0	31904	
306	0	31888	
307	0	31936	
308	0	32012	
309	0	32124	
310	0	32252	
311	0	32436	
312	0	32664	
313	0	32800	
314	0	32840	
315	0	32848	
316	0	32698	
317	0	32532	
318	0	32324	
319	0	32152	
320	0	32052	
321	0	31972	
322	0	31980	
323	0	32076	
324	0	32164	
325	0	32224	
326	0	32284	
327	0	32280	
328	0	32240	
329	0	32232	
330	0	32244	
331	0	32236	
332	0	32228	
333	0	32264	
334	0	32332	
335	0	32424	
336	0	32560	
337	0	32704	
338	0	32724	
339	0	32716	
340	0	32728	
341	0	32728	
342	0	32616	
343	0	32504	
344	0	32424	
345	0	32452	
346	0	32664	
347	0	32928	
348	0	33102	
349	0	33168	
350	0	33112	
351	0	32984	
352	0	32900	
353	0	32844	
354	0	32832	
355	0	32820	
356	0	32824	
357	0	32852	
358	0	32872	
359	0	32948	
360	0	33080	
361	0	33224	
362	0	33332	
363	0	33412	
364	0	33408	
365	0	33368	
366	0	33380	
367	0	33442	
368	0	33480	
369	0	33496	
370	0	33498	
371	0	33518	
372	0	33512	
373	0	33508	
374	0	33524	
375	0	33504	
376	0	33480	
377	0	33476	
378	0	33440	
379	0	33436	
380	0	33460	
381	0	33540	
382	0	33532	
383	0	33436	
384	0	33336	
385	0	33338	
386	0	33342	
387	0	33312	
388	0	33312	
389	0	33344	
390	0	33392	
391	0	33400	
392	0	33408	
393	0	33432	
394	0	33416	
395	0	33404	
396	0	33496	
397	0	33534	
398	0	33516	
399	0	33504	
400	0	33552	
401	0	33548	
402	0	33404	
403	0	33308	
404	0	33242	
405	0	33176	
406	0	33102	
407	0	33056	
408	0	33064	
409	0	33132	
410	0	33198	
411	0	33204	
412	0	33208	
413	0	33252	
414	0	33268	
415	0	33196	
416	0	33104	
417	0	33100	
418	0	33100	
419	0	33060	
420	0	33076	
421	0	33108	
422	0	33192	
423	0	33276	
424	0	33312	
425	0	33304	
426	0	33178	
427	0	33072	
428	0	33028	
429	0	33038	
430	0	33088	
431	0	33120	
432	0	33072	
433	0	33032	
434	0	32992	
435	0	32928	
436	0	32904	
437	0	32888	
438	0	32876	
439	0	32916	
440	0	32936	
441	0	32918	
442	0	32840	
443	0	32832	
444	0	32832	
445	0	32792	
446	0	32772	
447	0	32784	
448	0	32816	
449	0	32856	
450	0	32928	
451	0	33012	
452	0	32944	
453	0	32808	
454	0	32732	
455	0	32676	
456	0	32688	
457	0	32680	
458	0	32608	
459	0	32504	
460	0	32444	
461	0	32496	
462	0	32532	
463	0	32542	
464	0	32568	
465	0	32652	
466	0	32776	
467	0	32800	
468	0	32736	
469	0	32622	
470	0	32612	
471	0	32660	
472	0	32676	
473	0	32660	
474	0	32648	
475	0	32672	
476	0	32712	
477	0	32740	
478	0	32704	
479	0	32660	
480	0	32624	
481	0	32676	
482	0	32724	
483	0	32794	
484	0	32896	
485	0	33024	
486	0	33144	
487	0	33272	
488	0	33424	
489	0	33572	
490	0	33684	
491	0	33776	
492	0	33820	
493	0	33794	
494	0	33728	
495	0	33664	
496	0	33624	
497	0	33612	
498	0	33676	
499	0	33760	
500	0	33852	
501	0	33842	
502	0	33720	
503	0	33592	
504	0	33524	
505	0	33552	
506	0	33652	
507	0	33772	
508	0	33980	
509	0	34212	
510	0	34460	
511	0	34784	
512	0	35168	
513	0	35560	
514	0	35860	
515	0	36064	
516	0	36200	
517	0	36380	
518	0	36478	
519	0	36480	
520	0	36426	
521	0	36376	
522	0	36376	
523	0	36292	
524	0	36204	
525	0	36076	
526	0	35968	
527	0	35880	
528	0	35752	
529	0	35672	
530	0	35628	
531	0	35622	
532	0	35632	
533	0	35696	
534	0	35752	
535	0	35772	
536	0	35744	
537	0	35692	
538	0	35548	
539	0	35394	
540	0	35260	
541	0	35144	
542	0	35000	
543	0	34780	
544	0	34548	
545	0	34340	
546	0	34136	
547	0	33916	
548	0	33752	
549	0	33524	
550	0	33152	
551	0	32700	
552	0	32276	
553	0	31912	
554	0	31696	
555	0	31540	
556	0	31404	
557	0	31310	
558	0	31236	
559	0	31132	
560	0	31008	
561	0	30928	
562	0	30872	
563	0	30826	
564	0	30788	
565	0	30792	
566	0	30748	
567	0	30692	
568	0	30664	
569	0	30600	
570	0	30544	
571	0	30528	
572	0	30526	
573	0	30460	
574	0	30381	
575	0	30328	
576	0	30288	
577	0	30252	
578	0	30264	
579	0	30244	
580	0	30258	
581	0	30308	
582	0	30396	
583	0	30480	
584	0	30540	
585	0	30610	
586	0	30656	
587	0	30712	
588	0	30776	
589	0	30768	
590	0	30688	
591	0	30628	
592	0	30624	
593	0	30612	
594	0	30612	
595	0	30648	
596	0	30688	
597	0	30724	
598	0	30736	
599	0	30752	
600	0	30792	
601	0	30820	
602	0	30816	
603	0	30768	
604	0	30778	
605	0	30880	
606	0	30928	
607	0	30836	
608	0	30552	
609	0	30000	
610	0	29232	
611	0	28324	
612	0	27380	
613	0	26400	
614	0	25428	
615	0	24520	
616	0	23756	
617	0	23200	
618	0	22824	
619	0	22564	
620	0	22612	
621	0	22952	
622	0	23474	
623	0	24092	
624	0	24938	
625	0	26242	
626	0	28068	
627	0	30300	
628	0	32904	
629	0	35674	
630	0	38648	
631	0	41624	
632	0	44812	
633	0	48372	
634	0	52136	
635	0	56160	
636	0	59928	
637	0	62236	
638	0	63440	
639	0	64040	
640	0	64340	
641	0	64404	
642	0	64400	
643	0	64328	
644	0	64248	
645	0	64132	
646	0	64020	
647	0	61376	
648	0	53504	
649	0	47116	
650	0	42084	
651	0	37768	
652	0	33822	
653	0	30698	
654	0	28604	
655	0	27130	
656	0	25876	
657	0	24638	
658	0	23216	
659	0	21620	
660	0	20244	
661	0	19202	
662	0	18254	
663	0	17576	
664	0	17222	
665	0	17064	
666	0	16864	
667	0	16646	
668	0	16533	
669	0	16640	
670	0	16924	
671	0	17276	
672	0	17701	
673	0	18144	
674	0	18548	
675	0	19020	
676	0	19508	
677	0	20040	
678	0	20620	
679	0	21224	
680	0	21920	
681	0	22640	
682	0	23344	
683	0	24000	
684	0	24640	
685	0	25272	
686	0	25908	
687	0	26572	
688	0	27180	
689	0	27732	
690	0	28208	
691	0	28580	
692	0	28862	
693	0	29096	
694	0	29306	
695	0	29524	
696	0	29716	
697	0	29848	
698	0	29960	
699	0	30064	
700	0	30144	
701	0	30190	
702	0	30264	
703	0	30340	
704	0	30392	
705	0	30404	
706	0	30392	
707	0	30416	
708	0	30472	
709	0	30536	
710	0	30632	
711	0	30720	
712	0	30768	
713	0	30816	
714	0	30874	
715	0	30938	
716	0	31008	
717	0	31044	
718	0	31112	
719	0	31232	
720	0	31364	
721	0	31468	
722	0	31552	
723	0	31604	
724	0	31632	
725	0	31684	
726	0	31700	
727	0	31744	
728	0	31760	
729	0	31720	
730	0	31672	
731	0	31716	
732	0	31778	
733	0	31822	
734	0	31848	
735	0	31892	
736	0	31944	
737	0	32000	
738	0	32064	
739	0	32080	
740	0	32080	
741	0	32074	
742	0	32096	
743	0	32124	
744	0	32140	
745	0	32112	
746	0	32084	
747	0	32112	
748	0	32180	
749	0	32304	
750	0	32436	
751	0	32556	
752	0	32620	
753	0	32648	
754	0	32672	
755	0	32668	
756	0	32674	
757	0	32706	
758	0	32744	
759	0	32800	
760	0	32876	
761	0	32892	
762	0	32858	
763	0	32784	
764	0	32752	
765	0	32764	
766	0	32788	
767	0	32804	
768	0	32812	
769	0	32760	
770	0	32716	
771	0	32746	
772	0	32772	
773	0	32792	
774	0	32826	
775	0	32848	
776	0	32884	
777	0	32940	
778	0	32940	
779	0	32924	
780	0	32928	
781	0	32968	
782	0	33072	
783	0	33156	
784	0	33204	
785	0	33160	
786	0	33128	
787	0	33160	
788	0	33236	
789	0	33260	
790	0	33268	
791	0	33256	
792	0	33244	
793	0	33172	
794	0	33132	
795	0	33116	
796	0	33128	
797	0	33148	
798	0	33168	
799	0	33156	
800	0	33136	
801	0	33108	
802	0	33136	
803	0	33188	
804	0	33216	
805	0	33248	
806	0	33264	
807	0	33266	
808	0	33252	
809	0	33248	
810	0	33268	
811	0	33268	
812	0	33276	
813	0	33284	
814	0	33292	
815	0	33276	
816	0	33236	
817	0	33160	
818	0	33120	
819	0	33096	
820	0	33080	
821	0	33124	
822	0	33136	
823	0	33088	
824	0	33060	
825	0	33056	
826	0	33096	
827	0	33116	
828	0	33120	
829	0	33144	
830	0	33120	
831	0	33090	
832	0	33064	
833	0	33032	
834	0	33044	
835	0	33016	
836	0	32992	
837	0	33028	
838	0	33032	
839	0	33008	
840	0	32988	
841	0	32968	
842	0	32952	
843	0	32976	
844	0	33004	
845	0	33004	
846	0	32984	
847	0	32972	
848	0	32960	
849	0	32960	
850	0	32972	
851	0	32978	
852	0	33028	
853	0	33076	
854	0	33116	
855	0	33122	
856	0	33096	
857	0	33076	
858	0	33072	
859	0	33104	
860	0	33112	
861	0	33092	
862	0	33080	
863	0	33104	
864	0	33136	
865	0	33168	
866	0	33164	
867	0	33192	
868	0	33256	
869	0	33284	
870	0	33312	
871	0	33344	
872	0	33392	
873	0	33420	
874	0	33432	
875	0	33476	
876	0	33528	
877	0	33580	
878	0	33616	
879	0	33608	
880	0	33600	
881	0	33636	
882	0	33644	
883	0	33684	
884	0	33708	
885	0	33740	
886	0	33728	
887	0	33692	
888	0	33684	
889	0	33660	
890	0	33636	
891	0	33620	
892	0	33628	
893	0	33592	
894	0	33552	
895	0	33516	
896	0	33476	
897	0	33444	
898	0	33412	
899	0	33352	
900	0	33284	
901	0	33248	
902	0	33248	
903	0	33244	
904	0	33228	
905	0	33220	
906	0	33216	
907	0	33222	
908	0	33216	
909	0	33200	
910	0	33154	
911	0	33136	
912	0	33108	
913	0	33078	
914	0	33036	
915	0	32988	
916	0	32972	
917	0	32968	
918	0	32972	
919	0	32980	
920	0	32940	
921	0	32856	
922	0	32784	
923	0	32732	
924	0	32708	
925	0	32688	
926	0	32650	
927	0	32652	
928	0	32664	
929	0	32648	
930	0	32648	
931	0	32612	
932	0	32564	
933	0	32508	
934	0	32492	
935	0	32510	
936	0	32536	
937	0	32560	
938	0	32576	
939	0	32584	
940	0	32544	
941	0	32468	
942	0	32432	
943	0	32384	
944	0	32384	
945	0	32384	
946	0	32356	
947	0	32324	
948	0	32316	
949	0	32304	
950	0	32300	
951	0	32332	
952	0	32380	
953	0	32412	
954	0	32440	
955	0	32480	
956	0	32482	
957	0	32456	
958	0	32460	
959	0	32472	
960	0	32482	
961	0	32496	
962	0	32484	
963	0	32444	
964	0	32400	
965	0	32404	
966	0	32430	
967	0	32480	
968	0	32508	
969	0	32524	
970	0	32544	
971	0	32540	
972	0	32512	
973	0	32494	
974	0	32468	
975	0	32452	
976	0	32480	
977	0	32496	
978	0	32488	
979	0	32408	
980	0	32332	
981	0	32304	
982	0	32280	
983	0	32276	
984	0	32264	
985	0	32292	
986	0	32330	
987	0	32376	
988	0	32376	
989	0	32348	
990	0	32304	
991	0	32296	
992	0	32284	
993	0	32328	
994	0	32336	
995	0	32312	
996	0	32312	
997	0	32340	
998	0	32392	
999	0	32428	
1000	0	32480	
1001	0	32508	
1002	0	32540	
1003	0	32540	
1004	0	32504	
1005	0	32508	
1006	0	32496	
1007	0	32464	
1008	0	32460	
1009	0	32480	
1010	0	32504	
1011	0	32532	
1012	0	32588	
1013	0	32648	
1014	0	32708	
1015	0	32720	
1016	0	32688	
1017	0	32652	
1018	0	32644	
1019	0	32628	
1020	0	32624	
1021	0	32640	
1022	0	32672	
1023	0	32696	
1024	0	32684	
1025	0	32680	
1026	0	32708	
1027	0	32744	
1028	0	32812	
1029	0	32864	
1030	0	32926	
1031	0	32948	
1032	0	32948	
1033	0	32940	
1034	0	32924	
1035	0	32912	
1036	0	32928	
1037	0	32988	
1038	0	33060	
1039	0	33114	
1040	0	33120	
1041	0	33144	
1042	0	33148	
1043	0	33124	
1044	0	33136	
1045	0	33168	
1046	0	33154	
1047	0	33136	
1048	0	33152	
1049	0	33184	
1050	0	33208	
1051	0	33232	
1052	0	33270	
1053	0	33316	
1054	0	33344	
1055	0	33360	
1056	0	33376	
1057	0	33404	
1058	0	33408	
1059	0	33384	
1060	0	33384	
1061	0	33360	
1062	0	33320	
1063	0	33288	
1064	0	33288	
1065	0	33292	
1066	0	33332	
1067	0	33360	
1068	0	33364	
1069	0	33368	
1070	0	33356	
1071	0	33352	
1072	0	33344	
1073	0	33328	
1074	0	33308	
1075	0	33296	
1076	0	33300	
1077	0	33328	
1078	0	33362	
1079	0	33314	
1080	0	33256	
1081	0	33228	
1082	0	33224	
1083	0	33232	
1084	0	33242	
1085	0	33228	
1086	0	33216	
1087	0	33217	
1088	0	33216	
1089	0	33216	
1090	0	33236	
1091	0	33280	
1092	0	33264	
1093	0	33228	
1094	0	33204	
1095	0	33200	
1096	0	33172	
1097	0	33184	
1098	0	33188	
1099	0	33180	
1100	0	33196	
1101	0	33220	
1102	0	33228	
1103	0	33172	
1104	0	33148	
1105	0	33140	
1106	0	33112	
1107	0	33088	
1108	0	33056	
1109	0	33012	
1110	0	33004	
1111	0	33016	
1112	0	33044	
1113	0	33032	
1114	0	33024	
1115	0	33012	
1116	0	32996	
1117	0	32992	
1118	0	32960	
1119	0	32896	
1120	0	32888	
1121	0	32904	
1122	0	32876	
1123	0	32864	
1124	0	32840	
1125	0	32816	
1126	0	32836	
1127	0	32844	
1128	0	32860	
1129	0	32840	
1130	0	32744	
1131	0	32664	
1132	0	32632	
1133	0	32616	
1134	0	32600	
1135	0	32628	
1136	0	32672	
1137	0	32716	
1138	0	32724	
1139	0	32732	
1140	0	32720	
1141	0	32726	
1142	0	32716	
1143	0	32680	
1144	0	32640	
1145	0	32640	
1146	0	32628	
1147	0	32632	
1148	0	32644	
1149	0	32676	
1150	0	32680	
1151	0	32696	
1152	0	32704	
1153	0	32720	
1154	0	32724	
1155	0	32708	
1156	0	32692	
1157	0	32672	
1158	0	32660	
1159	0	32624	
1160	0	32632	
1161	0	32608	
1162	0	32586	
1163	0	32600	
1164	0	32616	
1165	0	32620	
1166	0	32688	
1167	0	32800	
1168	0	32886	
1169	0	32952	
1170	0	33016	
1171	0	33096	
1172	0	33184	
1173	0	33284	
1174	0	33380	
1175	0	33456	
1176	0	33532	
1177	0	33628	
1178	0	33720	
1179	0	33784	
1180	0	33788	
1181	0	33776	
1182	0	33772	
1183	0	33784	
1184	0	33804	
1185	0	33760	
1186	0	33760	
1187	0	33804	
1188	0	33848	
1189	0	33860	
1190	0	33868	
1191	0	33836	
1192	0	33824	
1193	0	33848	
1194	0	33904	
1195	0	33980	
1196	0	34152	
1197	0	34376	
1198	0	34644	
1199	0	34928	
1200	0	35240	
1201	0	35544	
1202	0	35824	
1203	0	36058	
1204	0	36232	
1205	0	36432	
1206	0	36592	
1207	0	36668	
1208	0	36700	
1209	0	36708	
1210	0	36656	
1211	0	36604	
1212	0	36560	
1213	0	36524	
1214	0	36504	
1215	0	36432	
1216	0	36320	
1217	0	36160	
1218	0	36004	
1219	0	35904	
1220	0	35872	
1221	0	35884	
1222	0	35896	
1223	0	35916	
1224	0	35880	
1225	0	35788	
1226	0	35700	
1227	0	35600	
1228	0	35536	
1229	0	35508	
1230	0	35448	
1231	0	35316	
1232	0	35188	
1233	0	35018	
1234	0	34780	
1235	0	34488	
1236	0	34128	
1237	0	33744	
1238	0	33356	
1239	0	32940	
1240	0	32552	
1241	0	32162	
1242	0	31836	
1243	0	31588	
1244	0	31440	
1245	0	31336	
1246	0	31296	
1247	0	31290	
1248	0	31240	
1249	0	31216	
1250	0	31188	
1251	0	31156	
1252	0	31064	
1253	0	30928	
1254	0	30780	
1255	0	30640	
1256	0	30544	
1257	0	30482	
1258	0	30432	
1259	0	30432	
1260	0	30440	
1261	0	30464	
1262	0	30436	
1263	0	30432	
1264	0	30432	
1265	0	30416	
1266	0	30408	
1267	0	30430	
1268	0	30436	
1269	0	30418	
1270	0	30440	
1271	0	30464	
1272	0	30480	
1273	0	30484	
1274	0	30496	
1275	0	30532	
1276	0	30568	
1277	0	30624	
1278	0	30684	
1279	0	30720	
1280	0	30724	
1281	0	30700	
1282	0	30720	
1283	0	30752	
1284	0	30768	
1285	0	30792	
1286	0	30828	
1287	0	30876	
1288	0	30896	
1289	0	30888	
1290	0	30852	
1291	0	30816	
1292	0	30810	
1293	0	30844	
1294	0	30756	
1295	0	30652	
1296	0	30408	
1297	0	30060	
1298	0	29612	
1299	0	28924	
1300	0	27960	
1301	0	26888	
1302	0	25808	
1303	0	24764	
1304	0	23764	
1305	0	22944	
1306	0	22360	
1307	0	21960	
1308	0	21752	
1309	0	21836	
1310	0	22224	
1311	0	22844	
1312	0	23532	
1313	0	24368	
1314	0	25680	
1315	0	27516	
1316	0	29732	
1317	0	32192	
1318	0	34920	
1319	0	37972	
1320	0	41192	
1321	0	44768	
1322	0	48740	
1323	0	52912	
1324	0	57328	
1325	0	60932	
1326	0	62964	
1327	0	64056	
1328	0	64576	
1329	0	64816	
1330	0	64880	
1331	0	64848	
1332	0	64764	
1333	0	64672	
1334	0	64560	
1335	0	64436	
1336	0	64304	
1337	0	57692	
1338	0	51832	
1339	0	47268	
1340	0	43400	
1341	0	39536	
1342	0	35856	
1343	0	32824	
1344	0	30352	
1345	0	28064	
1346	0	25752	
1347	0	23732	
1348	0	22196	
1349	0	20988	
1350	0	20050	
1351	0	19309	
1352	0	18820	
1353	0	18428	
1354	0	18080	
1355	0	17698	
1356	0	17450	
1357	0	17500	
1358	0	17804	
1359	0	18216	
1360	0	18532	
1361	0	18808	
1362	0	19114	
1363	0	19488	
1364	0	19996	
1365	0	20544	
1366	0	21112	
1367	0	21696	
1368	0	22292	
1369	0	22876	
1370	0	23456	
1371	0	24140	
1372	0	24848	
1373	0	25572	
1374	0	26260	
1375	0	26808	
1376	0	27270	
1377	0	27644	
1378	0	27968	
1379	0	28228	
1380	0	28432	
1381	0	28620	
1382	0	28736	
1383	0	28848	
1384	0	28976	
1385	0	29108	
1386	0	29228	
1387	0	29316	
1388	0	29448	
1389	0	29560	
1390	0	29634	
1391	0	29688	
1392	0	29722	
1393	0	29768	
1394	0	29848	
1395	0	29952	
1396	0	30036	
1397	0	30092	
1398	0	30160	
1399	0	30210	
1400	0	30248	
1401	0	30296	
1402	0	30376	
1403	0	30452	
1404	0	30528	
1405	0	30624	
1406	0	30656	
1407	0	30676	
1408	0	30744	
1409	0	30824	
1410	0	30916	
1411	0	31008	
1412	0	31008	
1413	0	31024	
1414	0	31080	
1415	0	31146	
1416	0	31200	
1417	0	31256	
1418	0	31266	
1419	0	31264	
1420	0	31308	
1421	0	31360	
1422	0	31384	
1423	0	31380	
1424	0	31380	
1425	0	31456	
1426	0	31484	
1427	0	31504	
1428	0	31580	
1429	0	31610	
1430	0	31608	
1431	0	31596	
1432	0	31616	
1433	0	31680	
1434	0	31752	
1435	0	31812	
1436	0	31828	
1437	0	31872	
1438	0	31924	
1439	0	31954	
1440	0	31956	
1441	0	31984	
1442	0	32004	
1443	0	31988	
1444	0	31972	
1445	0	32004	
1446	0	32036	
1447	0	32064	
1448	0	32120	
1449	0	32156	
1450	0	32208	
1451	0	32240	
1452	0	32256	
1453	0	32312	
1454	0	32372	
1455	0	32384	
1456	0	32400	
1457	0	32432	
1458	0	32460	
1459	0	32456	
1460	0	32444	
1461	0	32484	
1462	0	32544	
1463	0	32568	
1464	0	32552	
1465	0	32552	
1466	0	32542	
1467	0	32488	
1468	0	32432	
1469	0	32420	
1470	0	32496	
1471	0	32556	
1472	0	32592	
1473	0	32624	
1474	0	32644	
1475	0	32656	
1476	0	32612	
1477	0	32632	
1478	0	32692	
1479	0	32672	
1480	0	32620	
1481	0	32604	
1482	0	32608	
1483	0	32646	
1484	0	32632	
1485	0	32608	
1486	0	32580	
1487	0	32560	
1488	0	32544	
1489	0	32596	
1490	0	32608	
1491	0	32622	
1492	0	32612	
1493	0	32540	
1494	0	32508	
1495	0	32540	
1496	0	32592	
1497	0	32628	
1498	0	32636	
1499	0	32620	
1500	0	32608	
1501	0	32632	
1502	0	32648	
1503	0	32640	
1504	0	32608	
1505	0	32642	
1506	0	32644	
1507	0	32604	
1508	0	32576	
1509	0	32540	
1510	0	32456	
1511	0	32406	
1512	0	32360	
1513	0	32364	
1514	0	32372	
1515	0	32376	
1516	0	32356	
1517	0	32348	
1518	0	32364	
1519	0	32372	
1520	0	32340	
1521	0	32288	
1522	0	32276	
1523	0	32276	
1524	0	32276	
1525	0	32280	
1526	0	32288	
1527	0	32296	
1528	0	32320	
1529	0	32360	
1530	0	32348	
1531	0	32354	
1532	0	32344	
1533	0	32328	
1534	0	32352	
1535	0	32380	
1536	0	32352	
1537	0	32340	
1538	0	32352	
1539	0	32360	
1540	0	32360	
1541	0	32368	
1542	0	32360	
1543	0	32344	
1544	0	32354	
1545	0	32360	
1546	0	32360	
1547	0	32396	
1548	0	32420	
1549	0	32456	
1550	0	32512	
1551	0	32572	
1552	0	32608	
1553	0	32624	
1554	0	32652	
1555	0	32700	
1556	0	32780	
1557	0	32872	
1558	0	32908	
1559	0	32936	
1560	0	32992	
1561	0	33084	
1562	0	33144	
1563	0	33164	
1564	0	33200	
1565	0	33236	
1566	0	33272	
1567	0	33336	
1568	0	33398	
1569	0	33472	
1570	0	33516	
1571	0	33560	
1572	0	33612	
1573	0	33664	
1574	0	33676	
1575	0	33624	
1576	0	33564	
1577	0	33560	
1578	0	33586	
1579	0	33616	
1580	0	33604	
1581	0	33604	
1582	0	33588	
1583	0	33608	
1584	0	33616	
1585	0	33628	
1586	0	33648	
1587	0	33664	
1588	0	33660	
1589	0	33588	
1590	0	33540	
1591	0	33536	
1592	0	33562	
1593	0	33592	
1594	0	33600	
1595	0	33532	
1596	0	33496	
1597	0	33480	
1598	0	33480	
1599	0	33488	
1600	0	33460	
1601	0	33440	
1602	0	33396	
1603	0	33368	
1604	0	33372	
1605	0	33372	
1606	0	33372	
1607	0	33380	
1608	0	33356	
1609	0	33304	
1610	0	33286	
1611	0	33268	
1612	0	33260	
1613	0	33260	
1614	0	33260	
1615	0	33192	
1616	0	33156	
1617	0	33132	
1618	0	33128	
1619	0	33152	
1620	0	33096	
1621	0	33072	
1622	0	33060	
1623	0	33048	
1624	0	33044	
1625	0	33064	
1626	0	33088	
1627	0	33076	
1628	0	33032	
1629	0	33000	
1630	0	32980	
1631	0	32952	
1632	0	32952	
1633	0	32924	
1634	0	32900	
1635	0	32912	
1636	0	32960	
1637	0	32984	
1638	0	32994	
1639	0	33004	
1640	0	32972	
1641	0	32960	
1642	0	32968	
1643	0	32932	
1644	0	32952	
1645	0	32992	
1646	0	33000	
1647	0	32984	
1648	0	32948	
1649	0	32948	
1650	0	32960	
1651	0	32964	
1652	0	32948	
1653	0	32940	
1654	0	32912	
1655	0	32924	
1656	0	32944	
1657	0	32964	
1658	0	32990	
1659	0	32992	
1660	0	33048	
1661	0	33056	
1662	0	33056	
1663	0	33032	
1664	0	33024	
1665	0	33028	
1666	0	32960	
1667	0	32922	
1668	0	32924	
1669	0	32928	
1670	0	32928	
1671	0	32904	
1672	0	32884	
1673	0	32892	
1674	0	32924	
1675	0	33024	
1676	0	33088	
1677	0	33140	
1678	0	33152	
1679	0	33160	
1680	0	33152	
1681	0	33132	
1682	0	33140	
1683	0	33138	
1684	0	33114	
1685	0	33100	
1686	0	33032	
1687	0	33072	
1688	0	33138	
1689	0	33180	
1690	0	33232	
1691	0	33252	
1692	0	33242	
1693	0	33232	
1694	0	33216	
1695	0	33184	
1696	0	33224	
1697	0	33276	
1698	0	33268	
1699	0	33284	
1700	0	33316	
1701	0	33344	
1702	0	33352	
1703	0	33370	
1704	0	33332	
1705	0	33286	
1706	0	33276	
1707	0	33280	
1708	0	33312	
1709	0	33360	
1710	0	33364	
1711	0	33348	
1712	0	33328	
1713	0	33368	
1714	0	33388	
1715	0	33410	
1716	0	33426	
1717	0	33448	
1718	0	33420	
1719	0	33400	
1720	0	33420	
1721	0	33452	
1722	0	33484	
1723	0	33528	
1724	0	33540	
1725	0	33524	
1726	0	33532	
1727	0	33592	
1728	0	33612	
1729	0	33636	
1730	0	33648	
1731	0	33644	
1732	0	33636	
1733	0	33644	
1734	0	33652	
1735	0	33664	
1736	0	33660	
1737	0	33642	
1738	0	33616	
1739	0	33588	
1740	0	33584	
1741	0	33600	
1742	0	33626	
1743	0	33640	
1744	0	33640	
1745	0	33616	
1746	0	33604	
1747	0	33644	
1748	0	33664	
1749	0	33616	
1750	0	33596	
1751	0	33592	
1752	0	33572	
1753	0	33576	
1754	0	33584	
1755	0	33592	
1756	0	33628	
1757	0	33664	
1758	0	33676	
1759	0	33664	
1760	0	33672	
1761	0	33692	
1762	0	33724	
1763	0	33722	
1764	0	33696	
1765	0	33664	
1766	0	33620	
1767	0	33592	
1768	0	33540	
1769	0	33512	
1770	0	33544	
1771	0	33556	
1772	0	33498	
1773	0	33488	
1774	0	33520	
1775	0	33548	
1776	0	33520	
1777	0	33472	
1778	0	33440	
1779	0	33388	
1780	0	33362	
1781	0	33348	
1782	0	33364	
1783	0	33336	
1784	0	33300	
1785	0	33296	
1786	0	33272	
1787	0	33244	
1788	0	33248	
1789	0	33272	
1790	0	33272	
1791	0	33316	
1792	0	33352	
1793	0	33348	
1794	0	33352	
1795	0	33320	
1796	0	33280	
1797	0	33248	
1798	0	33176	
1799	0	33140	
1800	0	33138	
1801	0	33172	
1802	0	33148	
1803	0	33120	
1804	0	33120	
1805	0	33100	
1806	0	33052	
1807	0	33020	
1808	0	32968	
1809	0	32962	
1810	0	32960	
1811	0	32964	
1812	0	33006	
1813	0	33008	
1814	0	32992	
1815	0	32944	
1816	0	32920	
1817	0	32888	
1818	0	32904	
1819	0	32920	
1820	0	32924	
1821	0	32936	
1822	0	32920	
1823	0	32924	
1824	0	32940	
1825	0	32924	
1826	0	32884	
1827	0	32840	
1828	0	32820	
1829	0	32808	
1830	0	32816	
1831	0	32828	
1832	0	32824	
1833	0	32810	
1834	0	32828	
1835	0	32836	
1836	0	32804	
1837	0	32808	
1838	0	32792	
1839	0	32784	
1840	0	32796	
1841	0	32792	
1842	0	32780	
1843	0	32764	
1844	0	32760	
1845	0	32788	
1846	0	32768	
1847	0	32736	
1848	0	32704	
1849	0	32720	
1850	0	32754	
1851	0	32816	
1852	0	32908	
1853	0	32884	
1854	0	32824	
1855	0	32794	
1856	0	32838	
1857	0	32896	
1858	0	32928	
1859	0	32956	
1860	0	33056	
1861	0	33148	
1862	0	33200	
1863	0	33252	
1864	0	33344	
1865	0	33458	
1866	0	33600	
1867	0	33758	
1868	0	33912	
1869	0	34044	
1870	0	34124	
1871	0	34148	
1872	0	34168	
1873	0	34172	
1874	0	34140	
1875	0	34100	
1876	0	34064	
1877	0	34072	
1878	0	34108	
1879	0	34144	
1880	0	34200	
1881	0	34232	
1882	0	34224	
1883	0	34212	
1884	0	34248	
1885	0	34284	
1886	0	34356	
1887	0	34468	
1888	0	34656	
1889	0	34932	
1890	0	35252	
1891	0	35584	
1892	0	35880	
1893	0	36128	
1894	0	36368	
1895	0	36568	
1896	0	36700	
1897	0	36756	
1898	0	36804	
1899	0	36808	
1900	0	36812	
1901	0	36848	
1902	0	36836	
1903	0	36832	
1904	0	36800	
1905	0	36708	
1906	0	36572	
1907	0	36416	
1908	0	36276	
1909	0	36196	
1910	0	36140	
1911	0	36120	
1912	0	36072	
1913	0	36044	
1914	0	36036	
1915	0	36036	
1916	0	35956	
1917	0	35866	
1918	0	35772	
1919	0	35674	
1920	0	35580	
1921	0	35488	
1922	0	35332	
1923	0	35128	
1924	0	34898	
1925	0	34624	
1926	0	34288	
1927	0	33952	
1928	0	33580	
1929	0	33160	
1930	0	32752	
1931	0	32376	
1932	0	32076	
1933	0	31870	
1934	0	31712	
1935	0	31632	
1936	0	31548	
1937	0	31428	
1938	0	31332	
1939	0	31272	
1940	0	31216	
1941	0	31160	
1942	0	31060	
1943	0	30956	
1944	0	30832	
1945	0	30708	
1946	0	30624	
1947	0	30544	
1948	0	30500	
1949	0	30488	
1950	0	30532	
1951	0	30594	
1952	0	30624	
1953	0	30612	
1954	0	30608	
1955	0	30604	
1956	0	30568	
1957	0	30556	
1958	0	30556	
1959	0	30596	
1960	0	30656	
1961	0	30716	
1962	0	30712	
1963	0	30688	
1964	0	30676	
1965	0	30680	
1966	0	30700	
1967	0	30680	
1968	0	30696	
1969	0	30724	
1970	0	30736	
1971	0	30760	
1972	0	30804	
1973	0	30820	
1974	0	30812	
1975	0	30792	
1976	0	30820	
1977	0	30872	
1978	0	30868	
1979	0	30812	
1980	0	30748	
1981	0	30716	
1982	0	30708	
1983	0	30708	
1984	0	30708	
1985	0	30660	
1986	0	30496	
1987	0	30216	
1988	0	29792	
1989	0	29084	
1990	0	28128	
1991	0	27068	
1992	0	25936	
1993	0	24768	
1994	0	23702	
1995	0	22764	
1996	0	22092	
1997	0	21656	
1998	0	21376	
1999	0	21388	
2000	0	21704	
2001	0	22240	
2002	0	22852	
2003	0	23612	
2004	0	24800	
2005	0	26504	
2006	0	28633	
2007	0	31080	
2008	0	33796	
2009	0	36900	
2010	0	40196	
2011	0	43828	
2012	0	47832	
2013	0	51976	
2014	0	56352	
2015	0	60256	
2016	0	62640	
2017	0	63888	
2018	0	64516	
2019	0	64804	
2020	0	64888	
2021	0	64884	
2022	0	64820	
2023	0	64724	
2024	0	64616	
2025	0	64492	
2026	0	64364	
2027	0	60200	
2028	0	54368	
2029	0	49900	
2030	0	46036	
2031	0	42136	
2032	0	38408	
2033	0	35248	
2034	0	32608	
2035	0	30146	
2036	0	27592	
2037	0	25348	
2038	0	23624	
2039	0	22305	
2040	0	21266	
2041	0	20392	
2042	0	19748	
2043	0	19188	
2044	0	18700	
2045	0	18236	
2046	0	17952	
2047	0	17964	
2048	0	18212	
2049	0	18604	
2050	0	18896	
2051	0	19162	
2052	0	19450	
2053	0	19848	
2054	0	20372	
2055	0	20890	
2056	0	21444	
2057	0	22008	
2058	0	22576	
2059	0	23108	
2060	0	23632	
2061	0	24228	
2062	0	24864	
2063	0	25488	
2064	0	26074	
2065	0	26608	
2066	0	27104	
2067	0	27540	
2068	0	27928	
2069	0	28224	
2070	0	28426	
2071	0	28600	
2072	0	28760	
2073	0	28900	
2074	0	28992	
2075	0	29068	
2076	0	29156	
2077	0	29204	
2078	0	29260	
2079	0	29400	
2080	0	29496	
2081	0	29532	
2082	0	29596	
2083	0	29660	
2084	0	29712	
2085	0	29768	
2086	0	29820	
2087	0	29860	
2088	0	29940	
2089	0	30004	
2090	0	30060	
2091	0	30136	
2092	0	30252	
2093	0	30336	
2094	0	30400	
2095	0	30452	
2096	0	30480	
2097	0	30552	
2098	0	30644	
2099	0	30704	
2100	0	30716	
2101	0	30732	
2102	0	30784	
2103	0	30840	
2104	0	30888	
2105	0	30940	
2106	0	31012	
2107	0	31074	
2108	0	31112	
2109	0	31128	
2110	0	31152	
2111	0	31196	
2112	0	31244	
2113	0	31316	
2114	0	31364	
2115	0	31376	
2116	0	31388	
2117	0	31368	
2118	0	31380	
2119	0	31456	
2120	0	31536	
2121	0	31576	
2122	0	31552	
2123	0	31540	
2124	0	31520	
2125	0	31540	
2126	0	31550	
2127	0	31592	
2128	0	31648	
2129	0	31696	
2130	0	31740	
2131	0	31832	
2132	0	31892	
2133	0	31940	
2134	0	32002	
2135	0	32032	
2136	0	32044	
2137	0	32080	
2138	0	32124	
2139	0	32148	
2140	0	32148	
2141	0	32160	
2142	0	32224	
2143	0	32264	
2144	0	32262	
2145	0	32254	
2146	0	32256	
2147	0	32284	
2148	0	32314	
2149	0	32352	
2150	0	32360	
2151	0	32320	
2152	0	32296	
2153	0	32304	
2154	0	32312	
2155	0	32316	
2156	0	32284	
2157	0	32300	
2158	0	32320	
2159	0	32328	
2160	0	32288	
2161	0	32300	
2162	0	32320	
2163	0	32340	
2164	0	32312	
2165	0	32284	
2166	0	32288	
2167	0	32296	
2168	0	32324	
2169	0	32354	
2170	0	32348	
2171	0	32328	
2172	0	32344	
2173	0	32392	
2174	0	32448	
2175	0	32480	
2176	0	32496	
2177	0	32464	
2178	0	32428	
2179	0	32420	
2180	0	32394	
2181	0	32380	
2182	0	32392	
2183	0	32372	
2184	0	32332	
2185	0	32312	
2186	0	32346	
2187	0	32360	
2188	0	32416	
2189	0	32472	
2190	0	32456	
2191	0	32416	
2192	0	32372	
2193	0	32328	
2194	0	32344	
2195	0	32346	
2196	0	32312	
2197	0	32312	
2198	0	32290	
2199	0	32272	
2200	0	32244	
2201	0	32222	
2202	0	32192	
2203	0	32176	
2204	0	32162	
2205	0	32154	
2206	0	32180	
2207	0	32176	
2208	0	32132	
2209	0	32096	
2210	0	32064	
2211	0	32012	
2212	0	31962	
2213	0	31946	
2214	0	31988	
2215	0	32016	
2216	0	32012	
2217	0	31984	
2218	0	31952	
2219	0	31948	
2220	0	31984	
2221	0	31964	
2222	0	31962	
2223	0	31992	
2224	0	32006	
2225	0	32012	
2226	0	32004	
2227	0	32016	
2228	0	32016	
2229	0	32028	
2230	0	32056	
2231	0	32096	
2232	0	32148	
2233	0	32172	
2234	0	32188	
2235	0	32208	
2236	0	32252	
2237	0	32266	
2238	0	32240	
2239	0	32240	
2240	0	32260	
2241	0	32306	
2242	0	32340	
2243	0	32346	
2244	0	32368	
2245	0	32416	
2246	0	32484	
2247	0	32540	
2248	0	32586	
2249	0	32658	
2250	0	32668	
2251	0	32684	
2252	0	32736	
2253	0	32824	
2254	0	32900	
2255	0	32944	
2256	0	32988	
2257	0	33052	
2258	0	33068	
2259	0	33122	
2260	0	33202	
2261	0	33244	
2262	0	33344	
2263	0	33452	
2264	0	33508	
2265	0	33530	
2266	0	33548	
2267	0	33536	
2268	0	33528	
2269	0	33516	
2270	0	33520	
2271	0	33560	
2272	0	33606	
2273	0	33616	
2274	0	33600	
2275	0	33552	
2276	0	33516	
2277	0	33512	
2278	0	33496	
2279	0	33480	
2280	0	33480	
2281	0	33476	
2282	0	33488	
2283	0	33484	
2284	0	33476	
2285	0	33480	
2286	0	33504	
2287	0	33508	
2288	0	33492	
2289	0	33496	
2290	0	33476	
2291	0	33424	
2292	0	33408	
2293	0	33424	
2294	0	33376	
2295	0	33322	
2296	0	33280	
2297	0	33272	
2298	0	33308	
2299	0	33314	
2300	0	33270	
2301	0	33224	
2302	0	33216	
2303	0	33196	
2304	0	33188	
2305	0	33184	
2306	0	33182	
2307	0	33160	
2308	0	33132	
2309	0	33132	
2310	0	33120	
2311	0	33112	
2312	0	33152	
2313	0	33160	
2314	0	33108	
2315	0	33064	
2316	0	33036	
2317	0	33000	
2318	0	32988	
2319	0	32996	
2320	0	32968	
2321	0	32944	
2322	0	32980	
2323	0	33024	
2324	0	33046	
2325	0	33044	
2326	0	33032	
2327	0	33012	
2328	0	32956	
2329	0	32912	
2330	0	32916	
2331	0	32948	
2332	0	32928	
2333	0	32932	
2334	0	32964	
2335	0	32984	
2336	0	32992	
2337	0	33024	
2338	0	33048	
2339	0	33066	
2340	0	33080	
2341	0	33036	
2342	0	33040	
2343	0	33048	
2344	0	33036	
2345	0	33052	
2346	0	33024	
2347	0	33020	
2348	0	33024	
2349	0	32988	
2350	0	32936	
2351	0	32912	
2352	0	32920	
2353	0	32960	
2354	0	32984	
2355	0	32992	
2356	0	32996	
2357	0	33008	
2358	0	33000	
2359	0	32992	
2360	0	32988	
2361	0	32948	
2362	0	32928	
2363	0	32912	
2364	0	32964	
2365	0	33016	
2366	0	33032	
2367	0	33052	
2368	0	33052	
2369	0	33076	
2370	0	33080	
2371	0	33072	
2372	0	33060	
2373	0	33088	
2374	0	33088	
2375	0	33076	
2376	0	33078	
2377	0	33084	
2378	0	33100	
2379	0	33124	
2380	0	33122	
2381	0	33144	
2382	0	33144	
2383	0	33152	
2384	0	33140	
2385	0	33192	
2386	0	33240	
2387	0	33264	
2388	0	33304	
2389	0	33352	
2390	0	33372	
2391	0	33376	
2392	0	33392	
2393	0	33364	
2394	0	33312	
2395	0	33274	
2396	0	33284	
2397	0	33296	
2398	0	33344	
2399	0	33392	
2400	0	33392	
2401	0	33436	
2402	0	33440	
2403	0	33396	
2404	0	33352	
2405	0	33356	
2406	0	33368	
2407	0	33396	
2408	0	33440	
2409	0	33500	
2410	0	33532	
2411	0	33544	
2412	0	33560	
2413	0	33592	
2414	0	33584	
2415	0	33560	
2416	0	33560	
2417	0	33520	
2418	0	33476	
2419	0	33440	
2420	0	33468	
2421	0	33494	
2422	0	33528	
2423	0	33578	
2424	0	33620	
2425	0	33640	
2426	0	33648	
2427	0	33696	
2428	0	33716	
2429	0	33712	
2430	0	33692	
2431	0	33668	
2432	0	33634	
2433	0	33600	
2434	0	33576	
2435	0	33620	
2436	0	33652	
2437	0	33692	
2438	0	33676	
2439	0	33656	
2440	0	33652	
2441	0	33640	
2442	0	33640	
2443	0	33608	
2444	0	33568	
2445	0	33556	
2446	0	33580	
2447	0	33560	
2448	0	33560	
2449	0	33556	
2450	0	33572	
2451	0	33588	
2452	0	33548	
2453	0	33492	
2454	0	33472	
2455	0	33456	
2456	0	33456	
2457	0	33464	
2458	0	33492	
2459	0	33508	
2460	0	33528	
2461	0	33536	
2462	0	33500	
2463	0	33468	
2464	0	33480	
2465	0	33512	
2466	0	33496	
2467	0	33452	
2468	0	33416	
2469	0	33412	
2470	0	33376	
2471	0	33312	
2472	0	33268	
2473	0	33236	
2474	0	33188	
2475	0	33168	
2476	0	33172	
2477	0	33236	
2478	0	33260	
2479	0	33272	
2480	0	33256	
2481	0	33260	
2482	0	33280	
2483	0	33320	
2484	0	33416	
2485	0	33428	
2486	0	33376	
2487	0	33304	
2488	0	33216	
2489	0	33192	
2490	0	33212	
2491	0	33192	
2492	0	33168	
2493	0	33144	
2494	0	33096	
2495	0	33056	
2496	0	33026	
2497	0	33012	
2498	0	33004	
2499	0	32992	
2500	0	33004	
2501	0	33060	
2502	0	33108	
2503	0	33144	
2504	0	33212	
2505	0	33228	
2506	0	33146	
2507	0	33048	
2508	0	33024	
2509	0	33008	
2510	0	33000	
2511	0	33006	
2512	0	33016	
2513	0	32984	
2514	0	32936	
2515	0	32896	
2516	0	32896	
2517	0	32852	
2518	0	32800	
2519	0	32826	
2520	0	32888	
2521	0	32944	
2522	0	32944	
2523	0	33016	
2524	0	33076	
2525	0	33048	
2526	0	33024	
2527	0	33028	
2528	0	33024	
2529	0	33044	
2530	0	33048	
2531	0	32956	
2532	0	32888	
2533	0	32872	
2534	0	32832	
2535	0	32828	
2536	0	32864	
2537	0	32982	
2538	0	33112	
2539	0	33220	
2540	0	33328	
2541	0	33496	
2542	0	33668	
2543	0	33832	
2544	0	34000	
2545	0	34136	
2546	0	34208	
2547	0	34236	
2548	0	34276	
2549	0	34264	
2550	0	34200	
2551	0	34176	
2552	0	34128	
2553	0	34052	
2554	0	34056	
2555	0	34124	
2556	0	34190	
2557	0	34256	
2558	0	34288	
2559	0	34292	
2560	0	34268	
2561	0	34268	
2562	0	34276	
2563	0	34380	
2564	0	34608	
2565	0	34900	
2566	0	35192	
2567	0	35528	
2568	0	35840	
2569	0	36068	
2570	0	36288	
2571	0	36488	
2572	0	36644	
2573	0	36772	
2574	0	36792	
2575	0	36816	
2576	0	36804	
2577	0	36762	
2578	0	36746	
2579	0	36770	
2580	0	36740	
2581	0	36700	
2582	0	36572	
2583	0	36420	
2584	0	36268	
2585	0	36180	
2586	0	36178	
2587	0	36264	
2588	0	36312	
2589	0	36392	
2590	0	36416	
2591	0	36336	
2592	0	36200	
2593	0	36024	
2594	0	35832	
2595	0	35724	
2596	0	35636	
2597	0	35514	
2598	0	35352	
2599	0	35240	
2600	0	35144	
2601	0	34970	
2602	0	34696	
2603	0	34384	
2604	0	34028	
2605	0	33628	
2606	0	33184	
2607	0	32844	
2608	0	32460	
2609	0	32084	
2610	0	31808	
2611	0	31616	
2612	0	31456	
2613	0	31336	
2614	0	31268	
2615	0	31228	
2616	0	31228	
2617	0	31184	
2618	0	31080	
2619	0	31024	
2620	0	30952	
2621	0	30864	
2622	0	30788	
2623	0	30736	
2624	0	30688	
2625	0	30664	
2626	0	30728	
2627	0	30828	
2628	0	30764	
2629	0	30716	
2630	0	30772	
2631	0	30836	
2632	0	30816	
2633	0	30836	
2634	0	30810	
2635	0	30760	
2636	0	30680	
2637	0	30624	
2638	0	30556	
2639	0	30448	
2640	0	30380	
2641	0	30364	
2642	0	30368	
2643	0	30424	
2644	0	30536	
2645	0	30656	
2646	0	30764	
2647	0	30852	
2648	0	30924	
2649	0	30976	
2650	0	31022	
2651	0	31058	
2652	0	31094	
2653	0	31084	
2654	0	31024	
2655	0	30956	
2656	0	30900	
2657	0	30848	
2658	0	30846	
2659	0	30896	
2660	0	30928	
2661	0	30930	
2662	0	30884	
2663	0	30848	
2664	0	30720	
2665	0	30292	
2666	0	29488	
2667	0	28476	
2668	0	27400	
2669	0	26224	
2670	0	25052	
2671	0	23980	
2672	0	23136	
2673	0	22516	
2674	0	22040	
2675	0	21764	
2676	0	21841	
2677	0	22176	
2678	0	22776	
2679	0	23544	
2680	0	24366	
2681	0	25520	
2682	0	27170	
2683	0	29252	
2684	0	31714	
2685	0	34516	
2686	0	37656	
2687	0	40896	
2688	0	44388	
2689	0	48240	
2690	0	52292	
2691	0	56564	
2692	0	60360	
2693	0	62668	
2694	0	63904	
2695	0	64504	
2696	0	64784	
2697	0	64868	
2698	0	64872	
2699	0	64788	
2700	0	64696	
2701	0	64580	
2702	0	64456	
2703	0	64336	
2704	0	57376	
2705	0	51712	
2706	0	47232	
2707	0	43396	
2708	0	39560	
2709	0	35960	
2710	0	32976	
2711	0	30504	
2712	0	28224	
2713	0	25992	
2714	0	23934	
2715	0	22388	
2716	0	21216	
2717	0	20248	
2718	0	19392	
2719	0	18864	
2720	0	18477	
2721	0	18076	
2722	0	17686	
2723	0	17482	
2724	0	17624	
2725	0	18044	
2726	0	18508	
2727	0	18880	
2728	0	19084	
2729	0	19392	
2730	0	19780	
2731	0	20230	
2732	0	20764	
2733	0	21398	
2734	0	21984	
2735	0	22514	
2736	0	23046	
2737	0	23642	
2738	0	24212	
2739	0	24828	
2740	0	25496	
2741	0	26156	
2742	0	26728	
2743	0	27268	
2744	0	27748	
2745	0	28180	
2746	0	28572	
2747	0	28884	
2748	0	29104	
2749	0	29216	
2750	0	29272	
2751	0	29328	
2752	0	29396	
2753	0	29476	
2754	0	29568	
2755	0	29696	
2756	0	29856	
2757	0	29896	
2758	0	29912	
2759	0	29928	
2760	0	29932	
2761	0	29992	
2762	0	30088	
2763	0	30160	
2764	0	30232	
2765	0	30268	
2766	0	30360	
2767	0	30464	
2768	0	30504	
2769	0	30568	
2770	0	30576	
2771	0	30648	
2772	0	30720	
2773	0	30816	
2774	0	30968	
2775	0	31060	
2776	0	31112	
2777	0	31184	
2778	0	31256	
2779	0	31232	
2780	0	31220	
2781	0	31264	
2782	0	31296	
2783	0	31258	
2784	0	31288	
2785	0	31328	
2786	0	31408	
2787	0	31445	
2788	0	31440	
2789	0	31500	
2790	0	31588	
2791	0	31672	
2792	0	31802	
2793	0	31768	
2794	0	31652	
2795	0	31636	
2796	0	31652	
2797	0	31704	
2798	0	31736	
2799	0	31816	
2800	0	31852	
2801	0	31944	
2802	0	32096	
2803	0	32112	
2804	0	32016	
2805	0	31968	
2806	0	31976	
2807	0	32078	
2808	0	32248	
2809	0	32408	
2810	0	32452	
2811	0	32420	
2812	0	32372	
2813	0	32364	
2814	0	32364	
2815	0	32344	
2816	0	32352	
2817	0	32340	
2818	0	32248	
2819	0	32176	
2820	0	32104	
2821	0	32080	
2822	0	32084	
2823	0	32112	
2824	0	32244	
2825	0	32424	
2826	0	32616	
2827	0	32656	
2828	0	32636	
2829	0	32672	
2830	0	32752	
2831	0	32888	
2832	0	32886	
2833	0	32780	
2834	0	32736	
2835	0	32736	
2836	0	32748	
2837	0	32712	
2838	0	32672	
2839	0	32684	
2840	0	32724	
2841	0	32748	
2842	0	32744	
2843	0	32772	
2844	0	32798	
2845	0	32744	
2846	0	32684	
2847	0	32680	
2848	0	32728	
2849	0	32760	
2850	0	32848	
2851	0	32968	
2852	0	33016	
2853	0	33040	
2854	0	33028	
2855	0	32920	
2856	0	32804	
2857	0	32764	
2858	0	32744	
2859	0	32712	
2860	0	32676	
2861	0	32612	
2862	0	32560	
2863	0	32556	
2864	0	32564	
2865	0	32548	
2866	0	32540	
2867	0	32508	
2868	0	32448	
2869	0	32464	
2870	0	32516	
2871	0	32482	
2872	0	32506	
2873	0	32592	
2874	0	32596	
2875	0	32604	
2876	0	32688	
2877	0	32720	
2878	0	32696	
2879	0	32656	
2880	0	32612	
2881	0	32568	
2882	0	32568	
2883	0	32608	
2884	0	32596	
2885	0	32548	
2886	0	32344	
2887	0	32188	
2888	0	32152	
2889	0	32152	
2890	0	32062	
2891	0	31978	
2892	0	31960	
2893	0	32008	
2894	0	32104	
2895	0	32136	
2896	0	32136	
2897	0	32140	
2898	0	32084	
2899	0	31996	
2900	0	32032	
2901	0	32040	
2902	0	32004	
2903	0	32032	
2904	0	31936	
2905	0	31832	
2906	0	31868	
2907	0	31988	
2908	0	32192	
2909	0	32336	
2910	0	32360	
2911	0	32320	
2912	0	32288	
2913	0	32164	
2914	0	31984	
2915	0	31916	
2916	0	31920	
2917	0	31972	
2918	0	32096	
2919	0	32224	
2920	0	32408	
2921	0	32600	
2922	0	32728	
2923	0	32792	
2924	0	32848	
2925	0	32832	
2926	0	32720	
2927	0	32704	
2928	0	32816	
2929	0	32908	
2930	0	33048	
2931	0	33204	
2932	0	33348	
2933	0	33492	
2934	0	33520	
2935	0	33472	
2936	0	33444	
2937	0	33456	
2938	0	33496	
2939	0	33528	
2940	0	33512	
2941	0	33504	
2942	0	33540	
2943	0	33620	
2944	0	33704	
2945	0	33788	
2946	0	33828	
2947	0	33820	
2948	0	33832	
2949	0	33928	
2950	0	34044	
2951	0	34036	
2952	0	33988	
2953	0	33944	
2954	0	33920	
2955	0	33904	
2956	0	33920	
2957	0	33968	
2958	0	34032	
2959	0	33980	
2960	0	33780	
2961	0	33624	
2962	0	33624	
2963	0	33634	
2964	0	33536	
2965	0	33512	
2966	0	33512	
2967	0	33492	
2968	0	33484	
2969	0	33492	
2970	0	33492	
2971	0	33452	
2972	0	33432	
2973	0	33474	
2974	0	33512	
2975	0	33534	
2976	0	33568	
2977	0	33636	
2978	0	33632	
2979	0	33600	
2980	0	33546	
2981	0	33516	
2982	0	33472	
2983	0	33384	
2984	0	33348	
2985	0	33296	
2986	0	33176	
2987	0	33120	
2988	0	33204	
2989	0	33248	
2990	0	33208	
2991	0	33124	
2992	0	33136	
2993	0	33172	
2994	0	33248	
2995	0	33348	
2996	0	33432	
2997	0	33466	
2998	0	33448	
2999	0	33332	
3000	0	33204	
3001	0	33148	
3002	0	33208	
3003	0	33244	
3004	0	33196	
3005	0	33156	
3006	0	33156	
3007	0	33204	
3008	0	33096	
3009	0	32886	
3010	0	32792	
3011	0	32784	
3012	0	32836	
3013	0	32940	
3014	0	32976	
3015	0	32864	
3016	0	32768	
3017	0	32812	
3018	0	32944	
3019	0	33112	
3020	0	33332	
3021	0	33452	
3022	0	33504	
3023	0	33534	
3024	0	33368	
3025	0	33100	
3026	0	32840	
3027	0	32736	
3028	0	32816	
3029	0	32912	
3030	0	32988	
3031	0	33068	
3032	0	33076	
3033	0	33048	
3034	0	33044	
3035	0	33032	
3036	0	32968	
3037	0	32896	
3038	0	32808	
3039	0	32716	
3040	0	32688	
3041	0	32728	
3042	0	32868	
3043	0	32976	
3044	0	33056	
3045	0	33042	
3046	0	33096	
3047	0	33260	
3048	0	33452	
3049	0	33544	
3050	0	33444	
3051	0	33300	
3052	0	33112	
3053	0	32992	
3054	0	33020	
3055	0	33132	
3056	0	33188	
3057	0	33144	
3058	0	33100	
3059	0	33144	
3060	0	33176	
3061	0	33162	
3062	0	33060	
3063	0	32980	
3064	0	33048	
3065	0	33180	
3066	0	33272	
3067	0	33300	
3068	0	33276	
3069	0	33272	
3070	0	33260	
3071	0	33224	
3072	0	33316	
3073	0	33440	
3074	0	33552	
3075	0	33624	
3076	0	33656	
3077	0	33680	
3078	0	33694	
3079	0	33680	
3080	0	33752	
3081	0	33900	
3082	0	34004	
3083	0	34032	
3084	0	34032	
3085	0	34020	
3086	0	34048	
3087	0	34048	
3088	0	33968	
3089	0	33896	
3090	0	33788	
3091	0	33676	
3092	0	33600	
3093	0	33620	
3094	0	33696	
3095	0	33824	
3096	0	33865	
3097	0	33880	
3098	0	33904	
3099	0	33936	
3100	0	34012	
3101	0	33992	
3102	0	33832	
3103	0	33648	
3104	0	33528	
3105	0	33520	
3106	0	33570	
3107	0	33728	
3108	0	33844	
3109	0	33828	
3110	0	33812	
3111	0	33788	
3112	0	33864	
3113	0	33940	
3114	0	34060	
3115	0	34200	
3116	0	34136	
3117	0	33988	
3118	0	33872	
3119	0	33868	
3120	0	33908	
3121	0	33890	
3122	0	33848	
3123	0	33844	
3124	0	33910	
3125	0	33904	
3126	0	33824	
3127	0	33732	
3128	0	33696	
3129	0	33728	
3130	0	33732	
3131	0	33680	
3132	0	33654	
3133	0	33768	
3134	0	33864	
3135	0	33898	
3136	0	33964	
3137	0	33980	
3138	0	33938	
3139	0	33796	
3140	0	33684	
3141	0	33644	
3142	0	33576	
3143	0	33644	
3144	0	33732	
3145	0	33720	
3146	0	33652	
3147	0	33582	
3148	0	33472	
3149	0	33420	
3150	0	33412	
3151	0	33440	
3152	0	33428	
3153	0	33448	
3154	0	33548	
3155	0	33516	
3156	0	33372	
3157	0	33196	
3158	0	33128	
3159	0	33144	
3160	0	33240	
3161	0	33408	
3162	0	33568	
3163	0	33688	
3164	0	33772	
3165	0	33816	
3166	0	33824	
3167	0	33704	
3168	0	33560	
3169	0	33444	
3170	0	33316	
3171	0	33228	
3172	0	33064	
3173	0	32980	
3174	0	33064	
3175	0	33160	
3176	0	33024	
3177	0	32788	
3178	0	32680	
3179	0	32738	
3180	0	32888	
3181	0	33032	
3182	0	33204	
3183	0	33368	
3184	0	33500	
3185	0	33524	
3186	0	33544	
3187	0	33556	
3188	0	33712	
3189	0	33976	
3190	0	34048	
3191	0	33968	
3192	0	33860	
3193	0	33780	
3194	0	33848	
3195	0	34040	
3196	0	34204	
3197	0	34252	
3198	0	34160	
3199	0	34120	
3200	0	34080	
3201	0	34080	
3202	0	34152	
3203	0	34252	
3204	0	34158	
3205	0	33976	
3206	0	33920	
3207	0	34072	
3208	0	34240	
3209	0	34416	
3210	0	34620	
3211	0	34808	
3212	0	34904	
3213	0	35000	
3214	0	35264	
3215	0	35524	
3216	0	35864	
3217	0	36220	
3218	0	36520	
3219	0	36720	
3220	0	36584	
3221	0	36236	
3222	0	35908	
3223	0	35812	
3224	0	35976	
3225	0	36152	
3226	0	36458	
3227	0	36756	
3228	0	36824	
3229	0	36676	
3230	0	36476	
3231	0	36328	
3232	0	36240	
3233	0	36104	
3234	0	35928	
3235	0	35812	
3236	0	35738	
3237	0	35696	
3238	0	35736	
3239	0	35792	
3240	0	35896	
3241	0	36028	
3242	0	36140	
3243	0	36204	
3244	0	36080	
3245	0	35816	
3246	0	35508	
3247	0	35192	
3248	0	34840	
3249	0	34512	
3250	0	34268	
3251	0	34028	
3252	0	33788	
3253	0	33540	
3254	0	33216	
3255	0	32932	
3256	0	32796	
3257	0	32632	
3258	0	32432	
3259	0	32132	
3260	0	31794	
3261	0	31544	
3262	0	31440	
3263	0	31332	
3264	0	31264	
3265	0	31120	
3266	0	30984	
3267	0	31004	
3268	0	31024	
3269	0	31040	
3270	0	31104	
3271	0	31048	
3272	0	30888	
3273	0	30824	
3274	0	30828	
3275	0	30788	
3276	0	30704	
3277	0	30588	
3278	0	30484	
3279	0	30520	
3280	0	30608	
3281	0	30704	
3282	0	30836	
3283	0	30904	
3284	0	30916	
3285	0	30792	
3286	0	30576	
3287	0	30440	
3288	0	30400	
3289	0	30480	
3290	0	30556	
3291	0	30608	
3292	0	30700	
3293	0	30814	
3294	0	30888	
3295	0	30876	
3296	0	30768	
3297	0	30808	
3298	0	30920	
3299	0	30964	
3300	0	30988	
3301	0	31028	
3302	0	31016	
3303	0	30898	
3304	0	30784	
3305	0	30688	
3306	0	30744	
3307	0	30948	
3308	0	31136	
3309	0	31304	
3310	0	31244	
3311	0	31020	
3312	0	30524	
3313	0	29692	
3314	0	28736	
3315	0	27770	
3316	0	26768	
3317	0	25832	
3318	0	25030	
3319	0	24452	
3320	0	24016	
3321	0	23640	
3322	0	23472	
3323	0	23576	
3324	0	23936	
3325	0	24468	
3326	0	25060	
3327	0	25936	
3328	0	27340	
3329	0	29200	
3330	0	31332	
3331	0	33836	
3332	0	36396	
3333	0	39032	
3334	0	41760	
3335	0	44620	
3336	0	47808	
3337	0	51200	
3338	0	54900	
3339	0	58660	
3340	0	61544	
3341	0	63104	
3342	0	63888	
3343	0	64288	
3344	0	64416	
3345	0	64452	
3346	0	64400	
3347	0	64312	
3348	0	64216	
3349	0	64108	
3350	0	61276	
3351	0	53036	
3352	0	46288	
3353	0	40896	
3354	0	36484	
3355	0	32432	
3356	0	29056	
3357	0	26936	
3358	0	25836	
3359	0	25016	
3360	0	24284	
3361	0	23572	
3362	0	22540	
3363	0	21000	
3364	0	19500	
3365	0	18304	
3366	0	17274	
3367	0	16572	
3368	0	16224	
3369	0	16142	
3370	0	16032	
3371	0	16000	
3372	0	16226	
3373	0	16448	
3374	0	16768	
3375	0	17250	
3376	0	17944	
3377	0	18572	
3378	0	18816	
3379	0	19116	
3380	0	19824	
3381	0	20784	
3382	0	21836	
3383	0	22760	
3384	0	23534	
3385	0	24008	
3386	0	24268	
3387	0	24552	
3388	0	24924	
3389	0	25324	
3390	0	25760	
3391	0	26276	
3392	0	26800	
3393	0	27300	
3394	0	27876	
3395	0	28564	
3396	0	29192	
3397	0	29666	
3398	0	29984	
3399	0	30156	
3400	0	30256	
3401	0	30348	
3402	0	30404	
3403	0	30272	
3404	0	30064	
3405	0	29920	
3406	0	29996	
3407	0	30236	
3408	0	30680	
3409	0	31148	
3410	0	31424	
3411	0	31516	
3412	0	31496	
3413	0	31280	
3414	0	31172	
3415	0	31084	
3416	0	31108	
3417	0	31240	
3418	0	31312	
3419	0	31360	
3420	0	31332	
3421	0	31266	
3422	0	31448	
3423	0	31644	
3424	0	31872	
3425	0	32080	
3426	0	32204	
3427	0	32264	
3428	0	32200	
3429	0	32160	
3430	0	32288	
3431	0	32412	
3432	0	32352	
3433	0	32240	
3434	0	32158	
3435	0	32008	
3436	0	32032	
3437	0	32176	
3438	0	32236	
3439	0	32168	
3440	0	32180	
3441	0	32360	
3442	0	32586	
3443	0	32684	
3444	0	32784	
3445	0	32836	
3446	0	32784	
3447	0	32720	
3448	0	32764	
3449	0	32868	
3450	0	32752	
3451	0	32548	
3452	0	32352	
3453	0	32120	
3454	0	31984	
3455	0	32024	
3456	0	32168	
3457	0	32344	
3458	0	32528	
3459	0	32760	
3460	0	33004	
3461	0	33016	
3462	0	33014	
3463	0	32940	
3464	0	32702	
3465	0	32536	
3466	0	32536	
3467	0	32568	
3468	0	32530	
3469	0	32700	
3470	0	33136	
3471	0	33488	
3472	0	33616	
3473	0	33664	
3474	0	33792	
3475	0	34098	
3476	0	34288	
3477	0	34216	
3478	0	34092	
3479	0	33882	
3480	0	33472	
3481	0	33116	
3482	0	32868	
3483	0	32840	
3484	0	32976	
3485	0	33228	
3486	0	33432	
3487	0	33576	
3488	0	33600	
3489	0	33508	
3490	0	33368	
3491	0	33276	
3492	0	33248	
3493	0	33294	
3494	0	33410	
3495	0	33476	
3496	0	33390	
3497	0	33100	
3498	0	32916	
3499	0	32832	
3500	0	32816	
3501	0	32976	
3502	0	33384	
3503	0	33816	
3504	0	34048	
3505	0	34004	
3506	0	33776	
3507	0	33408	
3508	0	33252	
3509	0	33148	
3510	0	33088	
3511	0	33020	
3512	0	32952	
3513	0	33112	
3514	0	33328	
3515	0	33474	
3516	0	33512	
3517	0	33516	
3518	0	33556	
3519	0	33584	
3520	0	33588	
3521	0	33528	
3522	0	33460	
3523	0	33392	
3524	0	33300	
3525	0	33194	
3526	0	33344	
3527	0	33800	
3528	0	34188	
3529	0	34190	
3530	0	33884	
3531	0	33456	
3532	0	33112	
3533	0	32968	
3534	0	32960	
3535	0	32880	
3536	0	32676	
3537	0	32476	
3538	0	32388	
3539	0	32412	
3540	0	32444	
3541	0	32468	
3542	0	32508	
3543	0	32608	
3544	0	32780	
3545	0	32868	
3546	0	32768	
3547	0	32688	
3548	0	32764	
3549	0	32930	
3550	0	33056	
3551	0	33184	
3552	0	33224	
3553	0	33120	
3554	0	32900	
3555	0	32764	
3556	0	32760	
3557	0	32620	
3558	0	32488	
3559	0	32512	
3560	0	32652	
3561	0	32896	
3562	0	33112	
3563	0	33232	
3564	0	33216	
3565	0	33212	
3566	0	33272	
3567	0	33284	
3568	0	33304	
3569	0	33228	
3570	0	33184	
3571	0	33172	
3572	0	33084	
3573	0	32980	
3574	0	33024	
3575	0	33092	
3576	0	33176	
3577	0	33228	
3578	0	33232	
3579	0	33292	
3580	0	33472	
3581	0	33692	
3582	0	33816	
3583	0	33808	
3584	0	33824	
3585	0	33896	
3586	0	33932	
3587	0	34064	
3588	0	34272	
3589	0	34400	
3590	0	34368	
3591	0	34256	
3592	0	34140	
3593	0	34124	
3594	0	34080	
3595	0	33872	
3596	0	33656	
3597	0	33588	
3598	0	33728	
3599	0	33936	
3600	0	34112	
3601	0	34092	
3602	0	33836	
3603	0	33552	
3604	0	33632	
3605	0	33908	
3606	0	34116	
3607	0	34140	
3608	0	33936	
3609	0	33644	
3610	0	33472	
3611	0	33316	
3612	0	33192	
3613	0	33228	
3614	0	33314	
3615	0	33248	
3616	0	33100	
3617	0	33140	
3618	0	33360	
3619	0	33552	
3620	0	33592	
3621	0	33580	
3622	0	33408	
3623	0	33120	
3624	0	32816	
3625	0	32664	
3626	0	32568	
3627	0	32540	
3628	0	32564	
3629	0	32664	
3630	0	32808	
3631	0	33072	
3632	0	33228	
3633	0	33204	
3634	0	33112	
3635	0	33072	
3636	0	33104	
3637	0	33192	
3638	0	33324	
3639	0	33460	
3640	0	33496	
3641	0	33416	
3642	0	33272	
3643	0	33088	
3644	0	32748	
3645	0	32442	
3646	0	32284	
3647	0	32372	
3648	0	32592	
3649	0	32776	
3650	0	32844	
3651	0	32760	
3652	0	32620	
3653	0	32576	
3654	0	32684	
3655	0	32888	
3656	0	33044	
3657	0	33140	
3658	0	33184	
3659	0	33136	
3660	0	33032	
3661	0	32908	
3662	0	32704	
3663	0	32480	
3664	0	32390	
3665	0	32392	
3666	0	32416	
3667	0	32480	
3668	0	32578	
3669	0	32604	
3670	0	32532	
3671	0	32392	
3672	0	32312	
3673	0	32280	
3674	0	32300	
3675	0	32416	
3676	0	32640	
3677	0	32824	
3678	0	32804	
3679	0	32532	
3680	0	32288	
3681	0	32256	
3682	0	32484	
3683	0	32724	
3684	0	32868	
3685	0	32936	
3686	0	32876	
3687	0	32712	
3688	0	32576	
3689	0	32516	
3690	0	32372	
3691	0	32224	
3692	0	32128	
3693	0	32224	
3694	0	32404	
3695	0	32564	
3696	0	32640	
3697	0	32712	
3698	0	32848	
3699	0	32876	
3700	0	32824	
3701	0	32788	
3702	0	32800	
3703	0	32904	
3704	0	32964	
3705	0	32880	
3706	0	32760	
3707	0	32661	
3708	0	32664	
3709	0	32688	
3710	0	32716	
3711	0	32776	
3712	0	32724	
3713	0	32548	
3714	0	32470	
3715	0	32516	
3716	0	32672	
3717	0	32848	
3718	0	33016	
3719	0	33106	
3720	0	33018	
3721	0	32920	
3722	0	32964	
3723	0	33016	
3724	0	33060	
3725	0	33160	
3726	0	33312	
3727	0	33472	
3728	0	33600	
3729	0	33672	
3730	0	33688	
3731	0	33576	
3732	0	33404	
3733	0	33184	
3734	0	32936	
3735	0	32792	
3736	0	32692	
3737	0	32712	
3738	0	32784	
3739	0	32904	
3740	0	32956	
3741	0	32938	
3742	0	32954	
3743	0	33096	
3744	0	33340	
3745	0	33552	
3746	0	33824	
3747	0	33952	
3748	0	33900	
3749	0	33732	
3750	0	33552	
3751	0	33356	
3752	0	33320	
3753	0	33408	
3754	0	33504	
3755	0	33588	
3756	0	33552	
3757	0	33470	
3758	0	33424	
3759	0	33408	
3760	0	33444	
3761	0	33588	
3762	0	33788	
3763	0	34008	
3764	0	34008	
3765	0	33812	
3766	0	33684	
3767	0	33656	
3768	0	33538	
3769	0	33312	
3770	0	33184	
3771	0	33216	
3772	0	33296	
3773	0	33378	
3774	0	33596	
3775	0	33764	
3776	0	33752	
3777	0	33616	
3778	0	33560	
3779	0	33498	
3780	0	33500	
3781	0	33616	
3782	0	33728	
3783	0	33760	
3784	0	33636	
3785	0	33322	
3786	0	33016	
3787	0	32948	
3788	0	33056	
3789	0	33098	
3790	0	33168	
3791	0	33268	
3792	0	33294	
3793	0	33268	
3794	0	33304	
3795	0	33340	
3796	0	33360	
3797	0	33464	
3798	0	33612	
3799	0	33668	
3800	0	33720	
3801	0	33740	
3802	0	33764	
3803	0	33824	
3804	0	33864	
3805	0	33872	
3806	0	33890	
3807	0	34018	
3808	0	34184	
3809	0	34276	
3810	0	34224	
3811	0	34120	
3812	0	34036	
3813	0	33932	
3814	0	33924	
3815	0	34064	
3816	0	34196	
3817	0	34196	
3818	0	34236	
3819	0	34332	
3820	0	34436	
3821	0	34444	
3822	0	34496	
3823	0	34648	
3824	0	34764	
3825	0	34824	
3826	0	34954	
3827	0	35272	
3828	0	35648	
3829	0	35972	
3830	0	36176	
3831	0	36280	
3832	0	36340	
3833	0	36388	
3834	0	36492	
3835	0	36556	
3836	0	36464	
3837	0	36332	
3838	0	36232	
3839	0	36152	
3840	0	36220	
3841	0	36468	
3842	0	36660	
3843	0	36672	
3844	0	36480	
3845	0	36296	
3846	0	36168	
3847	0	36024	
3848	0	35912	
3849	0	35888	
3850	0	35908	
3851	0	35880	
3852	0	35856	
3853	0	35872	
3854	0	35808	
3855	0	35684	
3856	0	35524	
3857	0	35412	
3858	0	35188	
3859	0	34912	
3860	0	34628	
3861	0	34460	
3862	0	34405	
3863	0	34292	
3864	0	33992	
3865	0	33656	
3866	0	33280	
3867	0	32924	
3868	0	32644	
3869	0	32316	
3870	0	31960	
3871	0	31676	
3872	0	31588	
3873	0	31648	
3874	0	31772	
3875	0	31780	
3876	0	31680	
3877	0	31548	
3878	0	31352	
3879	0	31072	
3880	0	30812	
3881	0	30716	
3882	0	30776	
3883	0	30760	
3884	0	30656	
3885	0	30588	
3886	0	30560	
3887	0	30480	
3888	0	30336	
3889	0	30200	
3890	0	30188	
3891	0	30216	
3892	0	30292	
3893	0	30432	
3894	0	30548	
3895	0	30632	
3896	0	30704	
3897	0	30668	
3898	0	30608	
3899	0	30592	
3900	0	30500	
3901	0	30458	
3902	0	30520	
3903	0	30592	
3904	0	30602	
3905	0	30632	
3906	0	30656	
3907	0	30704	
3908	0	30692	
3909	0	30616	
3910	0	30556	
3911	0	30554	
3912	0	30596	
3913	0	30616	
3914	0	30664	
3915	0	30760	
3916	0	30844	
3917	0	30800	
3918	0	30678	
3919	0	30634	
3920	0	30688	
3921	0	30690	
3922	0	30576	
3923	0	30396	
3924	0	30216	
3925	0	29960	
3926	0	29516	
3927	0	28792	
3928	0	27904	
3929	0	26904	
3930	0	25786	
3931	0	24792	
3932	0	24012	
3933	0	23344	
3934	0	22904	
3935	0	22654	
3936	0	22732	
3937	0	23144	
3938	0	23704	
3939	0	24428	
3940	0	25408	
3941	0	26644	
3942	0	28144	
3943	0	30010	
3944	0	32344	
3945	0	34940	
3946	0	37728	
3947	0	40608	
3948	0	43706	
3949	0	47192	
3950	0	50832	
3951	0	54616	
3952	0	58384	
3953	0	61384	
3954	0	63024	
3955	0	63880	
3956	0	64292	
3957	0	64460	
3958	0	64476	
3959	0	64440	
3960	0	64364	
3961	0	64248	
3962	0	64152	
3963	0	60840	
3964	0	52568	
3965	0	45788	
3966	0	40416	
3967	0	36072	
3968	0	32132	
3969	0	28972	
3970	0	27024	
3971	0	25924	
3972	0	25000	
3973	0	24080	
3974	0	23040	
3975	0	21682	
3976	0	20180	
3977	0	18894	
3978	0	17888	
3979	0	17200	
3980	0	16880	
3981	0	16682	
3982	0	16546	
3983	0	16412	
3984	0	16378	
3985	0	16492	
3986	0	16778	
3987	0	17164	
3988	0	17652	
3989	0	18256	
3990	0	18744	
3991	0	19072	
3992	0	19420	
3993	0	19820	
3994	0	20386	
3995	0	21084	
3996	0	21892	
3997	0	22632	
3998	0	23332	
3999	0	24120	
4000	0	24852	
4001	0	25450	
4002	0	25976	
4003	0	26544	
4004	0	27146	
4005	0	27758	
4006	0	28320	
4007	0	28780	
4008	0	29152	
4009	0	29470	
4010	0	29716	
4011	0	29896	
4012	0	30036	
4013	0	30136	
4014	0	30256	
4015	0	30348	
4016	0	30446	
4017	0	30500	
4018	0	30552	
4019	0	30576	
4020	0	30560	
4021	0	30548	
4022	0	30596	
4023	0	30624	
4024	0	30664	
4025	0	30792	
4026	0	30952	
4027	0	31052	
4028	0	31080	
4029	0	31168	
4030	0	31336	
4031	0	31542	
4032	0	31740	
4033	0	31880	
4034	0	31872	
4035	0	31776	
4036	0	31642	
4037	0	31584	
4038	0	31584	
4039	0	31648	
4040	0	31708	
4041	0	31740	
4042	0	31784	
4043	0	31916	
4044	0	32068	
4045	0	32232	
4046	0	32360	
4047	0	32364	
4048	0	32272	
4049	0	32192	
4050	0	32316	
4051	0	32460	
4052	0	32548	
4053	0	32668	
4054	0	32800	
4055	0	32888	
4056	0	32900	
4057	0	32780	
4058	0	32576	
4059	0	32404	
4060	0	32406	
4061	0	32448	
4062	0	32486	
4063	0	32512	
4064	0	32484	
4065	0	32464	
4066	0	32500	
4067	0	32524	
4068	0	32552	
4069	0	32640	
4070	0	32708	
4071	0	32722	
4072	0	32768	
4073	0	32832	
4074	0	32956	
4075	0	33052	
4076	0	33096	
4077	0	33092	
4078	0	33116	
4079	0	33104	
4080	0	33044	
4081	0	32988	
4082	0	32964	
4083	0	32960	
4084	0	33008	
4085	0	33154	
4086	0	33264	
4087	0	33244	
4088	0	33084	
4089	0	32864	
4090	0	32704	
4091	0	32688	
4092	0	32736	
4093	0	32792	
4094	0	32892	
4095	0	32984	
4096	0	32992	
4097	0	32968	
4098	0	32984	
4099	0	33044	
4100	0	33192	
4101	0	33304	
4102	0	33392	
4103	0	33420	
4104	0	33388	
4105	0	33304	
4106	0	33252	
4107	0	33252	
4108	0	33300	
4109	0	33360	
4110	0	33472	
4111	0	33500	
4112	0	33448	
4113	0	33380	
4114	0	33340	
4115	0	33286	
4116	0	33220	
4117	0	33140	
4118	0	33090	
4119	0	33048	
4120	0	32996	
4121	0	32992	
4122	0	32992	
4123	0	32988	
4124	0	33036	
4125	0	33100	
4126	0	33136	
4127	0	33140	
4128	0	33120	
4129	0	33088	
4130	0	33044	
4131	0	32992	
4132	0	32960	
4133	0	32972	
4134	0	32932	
4135	0	32896	
4136	0	32888	
4137	0	32832	
4138	0	32794	
4139	0	32776	
4140	0	32744	
4141	0	32688	
4142	0	32624	
4143	0	32516	
4144	0	32456	
4145	0	32504	
4146	0	32556	
4147	0	32552	
4148	0	32488	
4149	0	32412	
4150	0	32312	
4151	0	32216	
4152	0	32128	
4153	0	32128	
4154	0	32180	
4155	0	32304	
4156	0	32428	
4157	0	32568	
4158	0	32652	
4159	0	32696	
4160	0	32728	
4161	0	32776	
4162	0	32800	
4163	0	32708	
4164	0	32492	
4165	0	32272	
4166	0	32084	
4167	0	32008	
4168	0	31982	
4169	0	31936	
4170	0	31844	
4171	0	31770	
4172	0	31706	
4173	0	31720	
4174	0	31816	
4175	0	31920	
4176	0	32064	
4177	0	32144	
4178	0	32180	
4179	0	32212	
4180	0	32230	
4181	0	32192	
4182	0	32168	
4183	0	32256	
4184	0	32442	
4185	0	32580	
4186	0	32664	
4187	0	32708	
4188	0	32744	
4189	0	32820	
4190	0	32852	
4191	0	32920	
4192	0	33104	
4193	0	33212	
4194	0	33304	
4195	0	33324	
4196	0	33368	
4197	0	33428	
4198	0	33440	
4199	0	33448	
4200	0	33472	
4201	0	33452	
4202	0	33444	
4203	0	33454	
4204	0	33528	
4205	0	33676	
4206	0	33820	
4207	0	33910	
4208	0	33948	
4209	0	33974	
4210	0	34008	
4211	0	33952	
4212	0	33864	
4213	0	33796	
4214	0	33800	
4215	0	33884	
4216	0	33976	
4217	0	34052	
4218	0	34100	
4219	0	33992	
4220	0	33820	
4221	0	33712	
4222	0	33672	
4223	0	33648	
4224	0	33628	
4225	0	33640	
4226	0	33624	
4227	0	33604	
4228	0	33568	
4229	0	33524	
4230	0	33484	
4231	0	33456	
4232	0	33488	
4233	0	33536	
4234	0	33554	
4235	0	33524	
4236	0	33484	
4237	0	33432	
4238	0	33448	
4239	0	33528	
4240	0	33568	
4241	0	33518	
4242	0	33460	
4243	0	33432	
4244	0	33480	
4245	0	33512	
4246	0	33520	
4247	0	33468	
4248	0	33336	
4249	0	33172	
4250	0	32984	
4251	0	32964	
4252	0	33072	
4253	0	33280	
4254	0	33416	
4255	0	33436	
4256	0	33320	
4257	0	33176	
4258	0	33096	
4259	0	33096	
4260	0	33154	
4261	0	33172	
4262	0	33220	
4263	0	33188	
4264	0	33060	
4265	0	32894	
4266	0	32808	
4267	0	32800	
4268	0	32816	
4269	0	32880	
4270	0	32896	
4271	0	32888	
4272	0	32904	
4273	0	32936	
4274	0	32976	
4275	0	33008	
4276	0	32992	
4277	0	33028	
4278	0	33066	
4279	0	33060	
4280	0	33060	
4281	0	33104	
4282	0	33076	
4283	0	32984	
4284	0	32848	
4285	0	32712	
4286	0	32628	
4287	0	32596	
4288	0	32632	
4289	0	32712	
4290	0	32768	
4291	0	32808	
4292	0	32808	
4293	0	32784	
4294	0	32760	
4295	0	32728	
4296	0	32696	
4297	0	32724	
4298	0	32760	
4299	0	32800	
4300	0	32840	
4301	0	32884	
4302	0	32912	
4303	0	32892	
4304	0	32860	
4305	0	32880	
4306	0	32952	
4307	0	33012	
4308	0	33024	
4309	0	33040	
4310	0	33072	
4311	0	33132	
4312	0	33152	
4313	0	33184	
4314	0	33192	
4315	0	33156	
4316	0	33120	
4317	0	33132	
4318	0	33188	
4319	0	33252	
4320	0	33288	
4321	0	33256	
4322	0	33184	
4323	0	33088	
4324	0	33014	
4325	0	33000	
4326	0	33096	
4327	0	33240	
4328	0	33396	
4329	0	33456	
4330	0	33424	
4331	0	33348	
4332	0	33300	
4333	0	33296	
4334	0	33280	
4335	0	33328	
4336	0	33376	
4337	0	33424	
4338	0	33456	
4339	0	33472	
4340	0	33456	
4341	0	33440	
4342	0	33504	
4343	0	33572	
4344	0	33618	
4345	0	33608	
4346	0	33600	
4347	0	33568	
4348	0	33516	
4349	0	33496	
4350	0	33508	
4351	0	33530	
4352	0	33572	
4353	0	33656	
4354	0	33708	
4355	0	33740	
4356	0	33744	
4357	0	33756	
4358	0	33810	
4359	0	33832	
4360	0	33804	
4361	0	33772	
4362	0	33746	
4363	0	33760	
4364	0	33768	
4365	0	33784	
4366	0	33744	
4367	0	33760	
4368	0	33804	
4369	0	33804	
4370	0	33798	
4371	0	33744	
4372	0	33764	
4373	0	33808	
4374	0	33832	
4375	0	33832	
4376	0	33784	
4377	0	33764	
4378	0	33748	
4379	0	33760	
4380	0	33812	
4381	0	33824	
4382	0	33872	
4383	0	33898	
4384	0	33912	
4385	0	33918	
4386	0	33964	
4387	0	34040	
4388	0	34120	
4389	0	34196	
4390	0	34216	
4391	0	34208	
4392	0	34236	
4393	0	34336	
4394	0	34472	
4395	0	34588	
4396	0	34592	
4397	0	34560	
4398	0	34576	
4399	0	34648	
4400	0	34712	
4401	0	34688	
4402	0	34672	
4403	0	34684	
4404	0	34704	
4405	0	34680	
4406	0	34624	
4407	0	34576	
4408	0	34544	
4409	0	34568	
4410	0	34624	
4411	0	34664	
4412	0	34736	
4413	0	34880	
4414	0	35148	
4415	0	35372	
4416	0	35524	
4417	0	35744	
4418	0	36024	
4419	0	36344	
4420	0	36640	
4421	0	36892	
4422	0	37132	
4423	0	37272	
4424	0	37344	
4425	0	37368	
4426	0	37312	
4427	0	37176	
4428	0	37112	
4429	0	37108	
4430	0	37104	
4431	0	37088	
4432	0	37020	
4433	0	36912	
4434	0	36776	
4435	0	36640	
4436	0	36548	
4437	0	36478	
4438	0	36448	
4439	0	36444	
4440	0	36432	
4441	0	36408	
4442	0	36408	
4443	0	36400	
4444	0	36320	
4445	0	36172	
4446	0	36008	
4447	0	35824	
4448	0	35700	
4449	0	35632	
4450	0	35552	
4451	0	35416	
4452	0	35228	
4453	0	34952	
4454	0	34636	
4455	0	34276	
4456	0	33844	
4457	0	33386	
4458	0	33002	
4459	0	32636	
4460	0	32244	
4461	0	31900	
4462	0	31672	
4463	0	31520	
4464	0	31432	
4465	0	31392	
4466	0	31376	
4467	0	31348	
4468	0	31336	
4469	0	31296	
4470	0	31192	
4471	0	31072	
4472	0	30952	
4473	0	30840	
4474	0	30700	
4475	0	30576	
4476	0	30484	
4477	0	30448	
4478	0	30500	
4479	0	30540	
4480	0	30548	
4481	0	30564	
4482	0	30604	
4483	0	30664	
4484	0	30712	
4485	0	30688	
4486	0	30664	
4487	0	30652	
4488	0	30624	
4489	0	30568	
4490	0	30480	
4491	0	30400	
4492	0	30384	
4493	0	30384	
4494	0	30384	
4495	0	30400	
4496	0	30404	
4497	0	30448	
4498	0	30472	
4499	0	30456	
4500	0	30420	
4501	0	30408	
4502	0	30428	
4503	0	30436	
4504	0	30468	
4505	0	30544	
4506	0	30604	
4507	0	30626	
4508	0	30640	
4509	0	30690	
4510	0	30756	
4511	0	30776	
4512	0	30712	
4513	0	30596	
4514	0	30448	
4515	0	30272	
4516	0	29928	
4517	0	29338	
4518	0	28452	
4519	0	27428	
4520	0	26336	
4521	0	25236	
4522	0	24186	
4523	0	23218	
4524	0	22456	
4525	0	21922	
4526	0	21524	
4527	0	21314	
4528	0	21428	
4529	0	21808	
4530	0	22336	
4531	0	23040	
4532	0	24064	
4533	0	25600	
4534	0	27484	
4535	0	29748	
4536	0	32288	
4537	0	35060	
4538	0	38060	
4539	0	41232	
4540	0	44744	
4541	0	48672	
4542	0	52760	
4543	0	56936	
4544	0	60512	
4545	0	62608	
4546	0	63712	
4547	0	64260	
4548	0	64500	
4549	0	64560	
4550	0	64544	
4551	0	64488	
4552	0	64392	
4553	0	64276	
4554	0	64160	
4555	0	60084	
4556	0	52890	
4557	0	47032	
4558	0	42400	
4559	0	38341	
4560	0	34362	
4561	0	30944	
4562	0	28412	
4563	0	26496	
4564	0	24770	
4565	0	23052	
4566	0	21572	
4567	0	20508	
4568	0	19672	
4569	0	18952	
4570	0	18408	
4571	0	18064	
4572	0	17700	
4573	0	17284	
4574	0	16996	
4575	0	16980	
4576	0	17258	
4577	0	17690	
4578	0	18146	
4579	0	18484	
4580	0	18772	
4581	0	19132	
4582	0	19480	
4583	0	19992	
4584	0	20596	
4585	0	21244	
4586	0	21918	
4587	0	22536	
4588	0	23184	
4589	0	23808	
4590	0	24460	
4591	0	25152	
4592	0	25880	
4593	0	26572	
4594	0	27204	
4595	0	27740	
4596	0	28188	
4597	0	28580	
4598	0	28920	
4599	0	29168	
4600	0	29344	
4601	0	29472	
4602	0	29520	
4603	0	29592	
4604	0	29697	
4605	0	29808	
4606	0	29900	
4607	0	29984	
4608	0	30062	
4609	0	30144	
4610	0	30208	
4611	0	30220	
4612	0	30236	
4613	0	30242	
4614	0	30280	
4615	0	30372	
4616	0	30492	
4617	0	30600	
4618	0	30696	
4619	0	30792	
4620	0	30870	
4621	0	30932	
4622	0	30960	
4623	0	31004	
4624	0	31028	
4625	0	31080	
4626	0	31128	
4627	0	31169	
4628	0	31200	
4629	0	31216	
4630	0	31220	
4631	0	31296	
4632	0	31388	
4633	0	31450	
4634	0	31524	
4635	0	31592	
4636	0	31648	
4637	0	31680	
4638	0	31688	
4639	0	31728	
4640	0	31812	
4641	0	31912	
4642	0	31952	
4643	0	31912	
4644	0	31876	
4645	0	31868	
4646	0	31900	
4647	0	31936	
4648	0	31940	
4649	0	31976	
4650	0	32016	
4651	0	32040	
4652	0	32072	
4653	0	32108	
4654	0	32148	
4655	0	32174	
4656	0	32220	
4657	0	32280	
4658	0	32368	
4659	0	32396	
4660	0	32372	
4661	0	32328	
4662	0	32328	
4663	0	32336	
4664	0	32356	
4665	0	32360	
4666	0	32352	
4667	0	32364	
4668	0	32402	
4669	0	32432	
4670	0	32440	
4671	0	32428	
4672	0	32452	
4673	0	32452	
4674	0	32464	
4675	0	32504	
4676	0	32510	
4677	0	32496	
4678	0	32496	
4679	0	32496	
4680	0	32508	
4681	0	32536	
4682	0	32576	
4683	0	32592	
4684	0	32612	
4685	0	32612	
4686	0	32608	
4687	0	32576	
4688	0	32562	
4689	0	32568	
4690	0	32584	
4691	0	32580	
4692	0	32528	
4693	0	32532	
4694	0	32556	
4695	0	32584	
4696	0	32608	
4697	0	32624	
4698	0	32600	
4699	0	32576	
4700	0	32580	
4701	0	32592	
4702	0	32576	
4703	0	32528	
4704	0	32516	
4705	0	32488	
4706	0	32516	
4707	0	32560	
4708	0	32592	
4709	0	32642	
4710	0	32656	
4711	0	32608	
4712	0	32536	
4713	0	32500	
4714	0	32480	
4715	0	32516	
4716	0	32524	
4717	0	32500	
4718	0	32448	
4719	0	32392	
4720	0	32368	
4721	0	32352	
4722	0	32312	
4723	0	32306	
4724	0	32272	
4725	0	32210	
4726	0	32172	
4727	0	32128	
4728	0	32120	
4729	0	32112	
4730	0	32060	
4731	0	32032	
4732	0	32036	
4733	0	32008	
4734	0	32008	
4735	0	32008	
4736	0	31996	
4737	0	31976	
4738	0	31960	
4739	0	31884	
4740	0	31788	
4741	0	31694	
4742	0	31644	
4743	0	31628	
4744	0	31600	
4745	0	31548	
4746	0	31528	
4747	0	31534	
4748	0	31536	
4749	0	31524	
4750	0	31512	
4751	0	31452	
4752	0	31372	
4753	0	31308	
4754	0	31304	
4755	0	31348	
4756	0	31432	
4757	0	31476	
4758	0	31488	
4759	0	31472	
4760	0	31460	
4761	0	31448	
4762	0	31416	
4763	0	31404	
4764	0	31408	
4765	0	31404	
4766	0	31400	
4767	0	31432	
4768	0	31484	
4769	0	31514	
4770	0	31524	
4771	0	31576	
4772	0	31668	
4773	0	31784	
4774	0	31800	
4775	0	31840	
4776	0	31908	
4777	0	31992	
4778	0	32076	
4779	0	32184	
4780	0	32262	
4781	0	32316	
4782	0	32332	
4783	0	32380	
4784	0	32412	
4785	0	32484	
4786	0	32600	
4787	0	32672	
4788	0	32716	
4789	0	32760	
4790	0	32824	
4791	0	32876	
4792	0	32932	
4793	0	32964	
4794	0	33020	
4795	0	33064	
4796	0	33080	
4797	0	33128	
4798	0	33184	
4799	0	33188	
4800	0	33192	
4801	0	33200	
4802	0	33208	
4803	0	33232	
4804	0	33244	
4805	0	33272	
4806	0	33280	
4807	0	33312	
4808	0	33340	
4809	0	33344	
4810	0	33336	
4811	0	33356	
4812	0	33372	
4813	0	33348	
4814	0	33308	
4815	0	33302	
4816	0	33316	
4817	0	33308	
4818	0	33292	
4819	0	33296	
4820	0	33324	
4821	0	33296	
4822	0	33268	
4823	0	33224	
4824	0	33172	
4825	0	33152	
4826	0	33184	
4827	0	33196	
4828	0	33172	
4829	0	33136	
4830	0	33138	
4831	0	33124	
4832	0	33116	
4833	0	33140	
4834	0	33148	
4835	0	33124	
4836	0	33120	
4837	0	33100	
4838	0	33088	
4839	0	33132	
4840	0	33168	
4841	0	33144	
4842	0	33108	
4843	0	33056	
4844	0	33044	
4845	0	33080	
4846	0	33104	
4847	0	33120	
4848	0	33114	
4849	0	33104	
4850	0	33080	
4851	0	33068	
4852	0	33032	
4853	0	33004	
4854	0	32938	
4855	0	32912	
4856	0	32900	
4857	0	32900	
4858	0	32912	
4859	0	32888	
4860	0	32896	
4861	0	32944	
4862	0	32968	
4863	0	32984	
4864	0	32992	
4865	0	32960	
4866	0	32932	
4867	0	32928	
4868	0	32912	
4869	0	32900	
4870	0	32888	
4871	0	32880	
4872	0	32902	
4873	0	32912	
4874	0	32888	
4875	0	32880	
4876	0	32920	
4877	0	32912	
4878	0	32900	
4879	0	32896	
4880	0	32848	
4881	0	32880	
4882	0	32888	
4883	0	32844	
4884	0	32860	
4885	0	32904	
4886	0	32908	
4887	0	32920	
4888	0	32952	
4889	0	32948	
4890	0	32956	
4891	0	32984	
4892	0	33008	
4893	0	33056	
4894	0	33048	
4895	0	33056	
4896	0	33040	
4897	0	33020	
4898	0	33008	
4899	0	32992	
4900	0	32958	
4901	0	32960	
4902	0	32968	
4903	0	32976	
4904	0	33000	
4905	0	33020	
4906	0	33064	
4907	0	33076	
4908	0	33088	
4909	0	33104	
4910	0	33128	
4911	0	33192	
4912	0	33208	
4913	0	33232	
4914	0	33242	
4915	0	33272	
4916	0	33306	
4917	0	33304	
4918	0	33280	
4919	0	33284	
4920	0	33304	
4921	0	33312	
4922	0	33296	
4923	0	33256	
4924	0	33256	
4925	0	33276	
4926	0	33288	
4927	0	33304	
4928	0	33340	
4929	0	33380	
4930	0	33404	
4931	0	33452	
4932	0	33504	
4933	0	33516	
4934	0	33524	
4935	0	33556	
4936	0	33516	
4937	0	33472	
4938	0	33504	
4939	0	33568	
4940	0	33568	
4941	0	33550	
4942	0	33524	
4943	0	33528	
4944	0	33520	
4945	0	33534	
4946	0	33504	
4947	0	33492	
4948	0	33512	
4949	0	33568	
4950	0	33570	
4951	0	33568	
4952	0	33572	
4953	0	33576	
4954	0	33580	
4955	0	33572	
4956	0	33568	
4957	0	33554	
4958	0	33536	
4959	0	33524	
4960	0	33536	
4961	0	33532	
4962	0	33496	
4963	0	33456	
4964	0	33460	
4965	0	33462	
4966	0	33460	
4967	0	33492	
4968	0	33504	
4969	0	33464	
4970	0	33472	
4971	0	33500	
4972	0	33560	
4973	0	33604	
4974	0	33640	
4975	0	33696	
4976	0	33744	
4977	0	33816	
4978	0	33896	
4979	0	33980	
4980	0	34068	
4981	0	34144	
4982	0	34224	
4983	0	34292	
4984	0	34364	
4985	0	34472	
4986	0	34528	
4987	0	34520	
4988	0	34528	
4989	0	34560	
4990	0	34630	
4991	0	34640	
4992	0	34636	
4993	0	34588	
4994	0	34544	
4995	0	34524	
4996	0	34524	
4997	0	34520	
4998	0	34560	
4999	0	34588	
5000	0	34616	
5001	0	34688	
5002	0	34784	
5003	0	34924	
5004	0	35056	
5005	0	35264	
5006	0	35492	
5007	0	35720	
5008	0	36008	
5009	0	36286	
5010	0	36512	
5011	0	36696	
5012	0	36756	
5013	0	36832	
5014	0	36884	
5015	0	36928	
5016	0	36936	
5017	0	36904	
5018	0	36876	
5019	0	36888	
5020	0	36912	
5021	0	36960	
5022	0	36976	
5023	0	36892	
5024	0	36736	
5025	0	36588	
5026	0	36472	
5027	0	36362	
5028	0	36272	
5029	0	36192	
5030	0	36176	
5031	0	36116	
5032	0	36080	
5033	0	36032	
5034	0	35892	
5035	0	35688	
5036	0	35472	
5037	0	35310	
5038	0	35232	
5039	0	35168	
5040	0	35045	
5041	0	34916	
5042	0	34724	
5043	0	34508	
5044	0	34192	
5045	0	33808	
5046	0	33364	
5047	0	32946	
5048	0	32576	
5049	0	32208	
5050	0	31896	
5051	0	31638	
5052	0	31376	
5053	0	31152	
5054	0	31028	
5055	0	30966	
5056	0	30894	
5057	0	30861	
5058	0	30856	
5059	0	30792	
5060	0	30664	
5061	0	30528	
5062	0	30384	
5063	0	30292	
5064	0	30248	
5065	0	30216	
5066	0	30192	
5067	0	30152	
5068	0	30098	
5069	0	30088	
5070	0	30112	
5071	0	30120	
5072	0	30144	
5073	0	30192	
5074	0	30204	
5075	0	30224	
5076	0	30240	
5077	0	30256	
5078	0	30248	
5079	0	30220	
5080	0	30176	
5081	0	30148	
5082	0	30140	
5083	0	30148	
5084	0	30192	
5085	0	30228	
5086	0	30264	
5087	0	30272	
5088	0	30296	
5089	0	30348	
5090	0	30380	
5091	0	30352	
5092	0	30344	
5093	0	30352	
5094	0	30364	
5095	0	30408	
5096	0	30446	
5097	0	30432	
5098	0	30448	
5099	0	30424	
5100	0	30416	
5101	0	30376	
5102	0	30308	
5103	0	30184	
5104	0	29980	
5105	0	29672	
5106	0	29244	
5107	0	28544	
5108	0	27600	
5109	0	26528	
5110	0	25292	
5111	0	24032	
5112	0	22882	
5113	0	21818	
5114	0	21012	
5115	0	20458	
5116	0	20082	
5117	0	19950	
5118	0	20108	
5119	0	20596	
5120	0	21170	
5121	0	21848	
5122	0	22932	
5123	0	24502	
5124	0	26426	
5125	0	28684	
5126	0	31178	
5127	0	34068	
5128	0	37424	
5129	0	41008	
5130	0	44968	
5131	0	49112	
5132	0	53464	
5133	0	57530	
5134	0	61104	
5135	0	63248	
5136	0	64368	
5137	0	64936	
5138	0	65176	
5139	0	65248	
5140	0	65216	
5141	0	65144	
5142	0	65056	
5143	0	64936	
5144	0	64820	
5145	0	62616	
5146	0	56228	
5147	0	51280	
5148	0	47444	
5149	0	43476	
5150	0	39200	
5151	0	35488	
5152	0	32496	
5153	0	29732	
5154	0	27170	
5155	0	25136	
5156	0	23578	
5157	0	22404	
5158	0	21468	
5159	0	20716	
5160	0	20140	
5161	0	19564	
5162	0	18944	
5163	0	18380	
5164	0	18134	
5165	0	18146	
5166	0	18408	
5167	0	18708	
5168	0	18856	
5169	0	19082	
5170	0	19444	
5171	0	19870	
5172	0	20348	
5173	0	20864	
5174	0	21420	
5175	0	21936	
5176	0	22444	
5177	0	22920	
5178	0	23412	
5179	0	24068	
5180	0	24772	
5181	0	25440	
5182	0	26024	
5183	0	26556	
5184	0	27098	
5185	0	27524	
5186	0	27824	
5187	0	28048	
5188	0	28208	
5189	0	28368	
5190	0	28522	
5191	0	28680	
5192	0	28828	
5193	0	28956	
5194	0	29036	
5195	0	29088	
5196	0	29160	
5197	0	29270	
5198	0	29320	
5199	0	29352	
5200	0	29388	
5201	0	29378	
5202	0	29356	
5203	0	29376	
5204	0	29452	
5205	0	29540	
5206	0	29620	
5207	0	29682	
5208	0	29740	
5209	0	29812	
5210	0	29922	
5211	0	30000	
5212	0	30042	
5213	0	30088	
5214	0	30128	
5215	0	30192	
5216	0	30264	
5217	0	30312	
5218	0	30360	
5219	0	30420	
5220	0	30476	
5221	0	30528	
5222	0	30592	
5223	0	30632	
5224	0	30672	
5225	0	30700	
5226	0	30746	
5227	0	30804	
5228	0	30860	
5229	0	30880	
5230	0	30890	
5231	0	30924	
5232	0	30992	
5233	0	31072	
5234	0	31150	
5235	0	31180	
5236	0	31204	
5237	0	31236	
5238	0	31276	
5239	0	31300	
5240	0	31332	
5241	0	31412	
5242	0	31444	
5243	0	31464	
5244	0	31484	
5245	0	31500	
5246	0	31492	
5247	0	31520	
5248	0	31514	
5249	0	31552	
5250	0	31568	
5251	0	31568	
5252	0	31580	
5253	0	31576	
5254	0	31568	
5255	0	31580	
5256	0	31628	
5257	0	31712	
5258	0	31764	
5259	0	31752	
5260	0	31772	
5261	0	31776	
5262	0	31748	
5263	0	31732	
5264	0	31736	
5265	0	31714	
5266	0	31712	
5267	0	31732	
5268	0	31800	
5269	0	31888	
5270	0	31896	
5271	0	31884	
5272	0	31864	
5273	0	31888	
5274	0	31912	
5275	0	31940	
5276	0	31992	
5277	0	31964	
5278	0	31908	
5279	0	31890	
5280	0	31868	
5281	0	31872	
5282	0	31876	
5283	0	31956	
5284	0	32044	
5285	0	31996	
5286	0	31972	
5287	0	31998	
5288	0	32024	
5289	0	32048	
5290	0	32060	
5291	0	32048	
5292	0	32012	
5293	0	31976	
5294	0	31964	
5295	0	31932	
5296	0	31896	
5297	0	31914	
5298	0	31952	
5299	0	31980	
5300	0	32008	
5301	0	31992	
5302	0	31944	
5303	0	31904	
5304	0	31850	
5305	0	31804	
5306	0	31832	
5307	0	31912	
5308	0	31928	
5309	0	31908	
5310	0	31900	
5311	0	31888	
5312	0	31840	
5313	0	31744	
5314	0	31680	
5315	0	31608	
5316	0	31592	
5317	0	31588	
5318	0	31560	
5319	0	31456	
5320	0	31392	
5321	0	31384	
5322	0	31348	
5323	0	31308	
5324	0	31300	
5325	0	31286	
5326	0	31220	
5327	0	31192	
5328	0	31168	
5329	0	31152	
5330	0	31160	
5331	0	31188	
5332	0	31160	
5333	0	31124	
5334	0	31056	
5335	0	31016	
5336	0	30996	
5337	0	30992	
5338	0	30968	
5339	0	30912	
5340	0	30888	
5341	0	30880	
5342	0	30928	
5343	0	30984	
5344	0	30992	
5345	0	30888	
5346	0	30880	
5347	0	30916	
5348	0	30960	
5349	0	30976	
5350	0	30992	
5351	0	30984	
5352	0	30996	
5353	0	31044	
5354	0	31060	
5355	0	31040	
5356	0	31076	
5357	0	31130	
5358	0	31196	
5359	0	31252	
5360	0	31296	
5361	0	31346	
5362	0	31424	
5363	0	31512	
5364	0	31602	
5365	0	31690	
5366	0	31788	
5367	0	31888	
5368	0	31968	
5369	0	31988	
5370	0	32032	
5371	0	32120	
5372	0	32174	
5373	0	32200	
5374	0	32232	
5375	0	32272	
5376	0	32372	
5377	0	32502	
5378	0	32596	
5379	0	32676	
5380	0	32721	
5381	0	32760	
5382	0	32864	
5383	0	32976	
5384	0	33056	
5385	0	33104	
5386	0	33132	
5387	0	33160	
5388	0	33208	
5389	0	33296	
5390	0	33332	
5391	0	33360	
5392	0	33352	
5393	0	33312	
5394	0	33336	
5395	0	33328	
5396	0	33312	
5397	0	33312	
5398	0	33328	
5399	0	33348	
5400	0	33372	
5401	0	33416	
5402	0	33448	
5403	0	33480	
5404	0	33472	
5405	0	33456	
5406	0	33504	
5407	0	33556	
5408	0	33550	
5409	0	33524	
5410	0	33466	
5411	0	33408	
5412	0	33388	
5413	0	33380	
5414	0	33392	
5415	0	33380	
5416	0	33368	
5417	0	33380	
5418	0	33388	
5419	0	33388	
5420	0	33396	
5421	0	33356	
5422	0	33356	
5423	0	33368	
5424	0	33352	
5425	0	33336	
5426	0	33304	
5427	0	33256	
5428	0	33220	
5429	0	33220	
5430	0	33208	
5431	0	33236	
5432	0	33272	
5433	0	33252	
5434	0	33216	
5435	0	33220	
5436	0	33256	
5437	0	33274	
5438	0	33256	
5439	0	33200	
5440	0	33176	
5441	0	33168	
5442	0	33216	
5443	0	33228	
5444	0	33212	
5445	0	33136	
5446	0	33136	
5447	0	33128	
5448	0	33124	
5449	0	33140	
5450	0	33176	
5451	0	33216	
5452	0	33228	
5453	0	33236	
5454	0	33260	
5455	0	33292	
5456	0	33304	
5457	0	33272	
5458	0	33250	
5459	0	33260	
5460	0	33252	
5461	0	33240	
5462	0	33228	
5463	0	33216	
5464	0	33244	
5465	0	33284	
5466	0	33344	
5467	0	33430	
5468	0	33428	
5469	0	33348	
5470	0	33328	
5471	0	33316	
5472	0	33312	
5473	0	33274	
5474	0	33292	
5475	0	33372	
5476	0	33372	
5477	0	33360	
5478	0	33352	
5479	0	33360	
5480	0	33392	
5481	0	33392	
5482	0	33364	
5483	0	33376	
5484	0	33424	
5485	0	33408	
5486	0	33396	
5487	0	33392	
5488	0	33416	
5489	0	33428	
5490	0	33404	
5491	0	33408	
5492	0	33418	
5493	0	33432	
5494	0	33476	
5495	0	33532	
5496	0	33550	
5497	0	33580	
5498	0	33612	
5499	0	33644	
5500	0	33696	
5501	0	33748	
5502	0	33764	
5503	0	33744	
5504	0	33732	
5505	0	33704	
5506	0	33656	
5507	0	33620	
5508	0	33600	
5509	0	33616	
5510	0	33620	
5511	0	33636	
5512	0	33628	
5513	0	33660	
5514	0	33684	
5515	0	33704	
5516	0	33732	
5517	0	33760	
5518	0	33788	
5519	0	33844	
5520	0	33888	
5521	0	33892	
5522	0	33900	
5523	0	33932	
5524	0	33922	
5525	0	33912	
5526	0	33916	
5527	0	33956	
5528	0	33976	
5529	0	34016	
5530	0	34008	
5531	0	34000	
5532	0	33988	
5533	0	33976	
5534	0	33940	
5535	0	33924	
5536	0	33920	
5537	0	33964	
5538	0	33996	
5539	0	34016	
5540	0	34000	
5541	0	33984	
5542	0	33944	
5543	0	33908	
5544	0	33900	
5545	0	33908	
5546	0	33896	
5547	0	33900	
5548	0	33882	
5549	0	33828	
5550	0	33800	
5551	0	33792	
5552	0	33812	
5553	0	33840	
5554	0	33860	
5555	0	33864	
5556	0	33872	
5557	0	33884	
5558	0	33864	
5559	0	33850	
5560	0	33864	
5561	0	33864	
5562	0	33848	
5563	0	33808	
5564	0	33824	
5565	0	33900	
5566	0	33964	
5567	0	34026	
5568	0	34084	
5569	0	34152	
5570	0	34240	
5571	0	34344	
5572	0	34416	
5573	0	34436	
5574	0	34452	
5575	0	34520	
5576	0	34636	
5577	0	34788	
5578	0	34908	
5579	0	34960	
5580	0	34992	
5581	0	35028	
5582	0	35040	
5583	0	35050	
5584	0	35036	
5585	0	34996	
5586	0	34976	
5587	0	35016	
5588	0	34954	
5589	0	34896	
5590	0	34888	
5591	0	34924	
5592	0	34944	
5593	0	34952	
5594	0	34932	
5595	0	35024	
5596	0	35256	
5597	0	35520	
5598	0	35814	
5599	0	36080	
5600	0	36312	
5601	0	36572	
5602	0	36880	
5603	0	37080	
5604	0	37184	
5605	0	37244	
5606	0	37280	
5607	0	37316	
5608	0	37324	
5609	0	37298	
5610	0	37294	
5611	0	37288	
5612	0	37282	
5613	0	37268	
5614	0	37216	
5615	0	37152	
5616	0	37052	
5617	0	36956	
5618	0	36832	
5619	0	36792	
5620	0	36748	
5621	0	36684	
5622	0	36604	
5623	0	36540	
5624	0	36468	
5625	0	36362	
5626	0	36220	
5627	0	36108	
5628	0	35996	
5629	0	35884	
5630	0	35760	
5631	0	35660	
5632	0	35544	
5633	0	35380	
5634	0	35192	
5635	0	34952	
5636	0	34664	
5637	0	34316	
5638	0	33896	
5639	0	33460	
5640	0	33074	
5641	0	32730	
5642	0	32408	
5643	0	32144	
5644	0	31936	
5645	0	31796	
5646	0	31706	
5647	0	31628	
5648	0	31584	
5649	0	31552	
5650	0	31512	
5651	0	31408	
5652	0	31272	
5653	0	31164	
5654	0	31040	
5655	0	30864	
5656	0	30748	
5657	0	30652	
5658	0	30580	
5659	0	30552	
5660	0	30548	
5661	0	30530	
5662	0	30520	
5663	0	30536	
5664	0	30544	
5665	0	30532	
5666	0	30540	
5667	0	30556	
5668	0	30612	
5669	0	30716	
5670	0	30792	
5671	0	30776	
5672	0	30780	
5673	0	30776	
5674	0	30756	
5675	0	30750	
5676	0	30752	
5677	0	30744	
5678	0	30776	
5679	0	30800	
5680	0	30848	
5681	0	30864	
5682	0	30840	
5683	0	30816	
5684	0	30796	
5685	0	30804	
5686	0	30832	
5687	0	30860	
5688	0	30880	
5689	0	30916	
5690	0	30944	
5691	0	30944	
5692	0	30932	
5693	0	30908	
5694	0	30832	
5695	0	30728	
5696	0	30530	
5697	0	30228	
5698	0	29732	
5699	0	29012	
5700	0	28036	
5701	0	26912	
5702	0	25716	
5703	0	24464	
5704	0	23322	
5705	0	22324	
5706	0	21538	
5707	0	21002	
5708	0	20592	
5709	0	20504	
5710	0	20700	
5711	0	21168	
5712	0	21766	
5713	0	22470	
5714	0	23528	
5715	0	25080	
5716	0	26988	
5717	0	29236	
5718	0	31712	
5719	0	34676	
5720	0	37956	
5721	0	41536	
5722	0	45512	
5723	0	49656	
5724	0	54016	
5725	0	58056	
5726	0	61544	
5727	0	63624	
5728	0	64728	
5729	0	65242	
5730	0	65488	
5731	0	65535	
5732	0	65528	
5733	0	65448	
5734	0	65344	
5735	0	65232	
5736	0	65096	
5737	0	61972	
5738	0	56176	
5739	0	51816	
5740	0	48208	
5741	0	44220	
5742	0	40192	
5743	0	36836	
5744	0	34096	
5745	0	31448	
5746	0	28867	
5747	0	26768	
5748	0	25208	
5749	0	23984	
5750	0	22940	
5751	0	22120	
5752	0	21456	
5753	0	20764	
5754	0	20040	
5755	0	19372	
5756	0	19044	
5757	0	19052	
5758	0	19310	
5759	0	19544	
5760	0	19720	
5761	0	19992	
5762	0	20276	
5763	0	20648	
5764	0	21080	
5765	0	21560	
5766	0	22102	
5767	0	22656	
5768	0	23184	
5769	0	23712	
5770	0	24256	
5771	0	24872	
5772	0	25488	
5773	0	26080	
5774	0	26624	
5775	0	27156	
5776	0	27640	
5777	0	28028	
5778	0	28388	
5779	0	28664	
5780	0	28880	
5781	0	29036	
5782	0	29176	
5783	0	29294	
5784	0	29356	
5785	0	29384	
5786	0	29432	
5787	0	29486	
5788	0	29520	
5789	0	29616	
5790	0	29688	
5791	0	29708	
5792	0	29772	
5793	0	29848	
5794	0	29924	
5795	0	29976	
5796	0	30052	
5797	0	30132	
5798	0	30184	
5799	0	30260	
5800	0	30320	
5801	0	30392	
5802	0	30448	
5803	0	30516	
5804	0	30572	
5805	0	30632	
5806	0	30682	
5807	0	30768	
5808	0	30856	
5809	0	30914	
5810	0	30932	
5811	0	30940	
5812	0	30962	
5813	0	31016	
5814	0	31092	
5815	0	31116	
5816	0	31132	
5817	0	31168	
5818	0	31232	
5819	0	31272	
5820	0	31336	
5821	0	31424	
5822	0	31504	
5823	0	31580	
5824	0	31642	
5825	0	31684	
5826	0	31688	
5827	0	31684	
5828	0	31684	
5829	0	31680	
5830	0	31708	
5831	0	31764	
5832	0	31824	
5833	0	31892	
5834	0	31936	
5835	0	31976	
5836	0	31992	
5837	0	32026	
5838	0	32064	
5839	0	32090	
5840	0	32128	
5841	0	32124	
5842	0	32128	
5843	0	32132	
5844	0	32128	
5845	0	32156	
5846	0	32184	
5847	0	32204	
5848	0	32220	
5849	0	32252	
5850	0	32288	
5851	0	32320	
5852	0	32332	
5853	0	32362	
5854	0	32404	
5855	0	32424	
5856	0	32436	
5857	0	32440	
5858	0	32448	
5859	0	32464	
5860	0	32490	
5861	0	32512	
5862	0	32516	
5863	0	32544	
5864	0	32576	
5865	0	32656	
5866	0	32690	
5867	0	32680	
5868	0	32644	
5869	0	32576	
5870	0	32516	
5871	0	32492	
5872	0	32472	
5873	0	32460	
5874	0	32500	
5875	0	32546	
5876	0	32532	
5877	0	32508	
5878	0	32526	
5879	0	32536	
5880	0	32540	
5881	0	32560	
5882	0	32568	
5883	0	32568	
5884	0	32568	
5885	0	32596	
5886	0	32628	
5887	0	32624	
5888	0	32632	
5889	0	32592	
5890	0	32536	
5891	0	32524	
5892	0	32510	
5893	0	32496	
5894	0	32472	
5895	0	32440	
5896	0	32432	
5897	0	32448	
5898	0	32460	
5899	0	32420	
5900	0	32388	
5901	0	32356	
5902	0	32336	
5903	0	32308	
5904	0	32320	
5905	0	32292	
5906	0	32220	
5907	0	32162	
5908	0	32136	
5909	0	32124	
5910	0	32032	
5911	0	32000	
5912	0	31984	
5913	0	31968	
5914	0	31952	
5915	0	31914	
5916	0	31856	
5917	0	31796	
5918	0	31752	
5919	0	31722	
5920	0	31680	
5921	0	31638	
5922	0	31596	
5923	0	31576	
5924	0	31588	
5925	0	31568	
5926	0	31536	
5927	0	31508	
5928	0	31496	
5929	0	31524	
5930	0	31496	
5931	0	31444	
5932	0	31448	
5933	0	31508	
5934	0	31552	
5935	0	31584	
5936	0	31596	
5937	0	31580	
5938	0	31580	
5939	0	31586	
5940	0	31572	
5941	0	31556	
5942	0	31564	
5943	0	31568	
5944	0	31556	
5945	0	31538	
5946	0	31568	
5947	0	31616	
5948	0	31664	
5949	0	31688	
5950	0	31778	
5951	0	31860	
5952	0	31892	
5953	0	31916	
5954	0	31908	
5955	0	31948	
5956	0	32008	
5957	0	32096	
5958	0	32208	
5959	0	32292	
5960	0	32400	
5961	0	32484	
5962	0	32580	
5963	0	32680	
5964	0	32792	
5965	0	32944	
5966	0	33088	
5967	0	33220	
5968	0	33320	
5969	0	33360	
5970	0	33368	
5971	0	33412	
5972	0	33480	
5973	0	33516	
5974	0	33524	
5975	0	33552	
5976	0	33572	
5977	0	33576	
5978	0	33600	
5979	0	33632	
5980	0	33664	
5981	0	33708	
5982	0	33740	
5983	0	33796	
5984	0	33796	
5985	0	33784	
5986	0	33808	
5987	0	33864	
5988	0	33896	
5989	0	33904	
5990	0	33912	
5991	0	33948	
5992	0	33940	
5993	0	33904	
5994	0	33888	
5995	0	33910	
5996	0	33904	
5997	0	33920	
5998	0	33920	
5999	0	33904	
6000	0	33896	
6001	0	33856	
6002	0	33824	
6003	0	33770	
6004	0	33728	
6005	0	33692	
6006	0	33676	
6007	0	33692	
6008	0	33708	
6009	0	33700	
6010	0	33672	
6011	0	33656	
6012	0	33640	
6013	0	33688	
6014	0	33728	
6015	0	33764	
6016	0	33772	
6017	0	33774	
6018	0	33804	
6019	0	33820	
6020	0	33844	
6021	0	33884	
6022	0	33932	
6023	0	33920	
6024	0	33812	
6025	0	33682	
6026	0	33624	
6027	0	33592	
6028	0	33600	
6029	0	33632	
6030	0	33665	
6031	0	33672	
6032	0	33656	
6033	0	33616	
6034	0	33552	
6035	0	33496	
6036	0	33452	
6037	0	33464	
6038	0	33496	
6039	0	33520	
6040	0	33540	
6041	0	33588	
6042	0	33626	
6043	0	33646	
6044	0	33632	
6045	0	33612	
6046	0	33644	
6047	0	33672	
6048	0	33656	
6049	0	33636	
6050	0	33588	
6051	0	33530	
6052	0	33516	
6053	0	33508	
6054	0	33460	
6055	0	33472	
6056	0	33476	
6057	0	33504	
6058	0	33532	
6059	0	33500	
6060	0	33464	
6061	0	33476	
6062	0	33520	
6063	0	33476	
6064	0	33424	
6065	0	33444	
6066	0	33504	
6067	0	33492	
6068	0	33482	
6069	0	33484	
6070	0	33456	
6071	0	33452	
6072	0	33444	
6073	0	33436	
6074	0	33434	
6075	0	33450	
6076	0	33476	
6077	0	33508	
6078	0	33568	
6079	0	33620	
6080	0	33700	
6081	0	33752	
6082	0	33752	
6083	0	33732	
6084	0	33716	
6085	0	33664	
6086	0	33666	
6087	0	33696	
6088	0	33712	
6089	0	33736	
6090	0	33736	
6091	0	33736	
6092	0	33712	
6093	0	33704	
6094	0	33722	
6095	0	33776	
6096	0	33828	
6097	0	33860	
6098	0	33860	
6099	0	33888	
6100	0	33952	
6101	0	33944	
6102	0	33954	
6103	0	33992	
6104	0	33988	
6105	0	34004	
6106	0	34048	
6107	0	34080	
6108	0	34096	
6109	0	34132	
6110	0	34136	
6111	0	34120	
6112	0	34184	
6113	0	34222	
6114	0	34224	
6115	0	34224	
6116	0	34228	
6117	0	34192	
6118	0	34196	
6119	0	34224	
6120	0	34300	
6121	0	34346	
6122	0	34340	
6123	0	34336	
6124	0	34352	
6125	0	34328	
6126	0	34352	
6127	0	34352	
6128	0	34304	
6129	0	34288	
6130	0	34260	
6131	0	34188	
6132	0	34116	
6133	0	34084	
6134	0	34068	
6135	0	34016	
6136	0	33940	
6137	0	33896	
6138	0	33904	
6139	0	33940	
6140	0	33988	
6141	0	34016	
6142	0	34004	
6143	0	34020	
6144	0	34040	
6145	0	34068	
6146	0	34028	
6147	0	34032	
6148	0	34052	
6149	0	34096	
6150	0	34104	
6151	0	34112	
6152	0	34128	
6153	0	34104	
6154	0	34068	
6155	0	34044	
6156	0	34016	
6157	0	33940	
6158	0	33848	
6159	0	33836	
6160	0	33816	
6161	0	33804	
6162	0	33812	
6163	0	33728	
6164	0	33564	
6165	0	33496	
6166	0	33530	
6167	0	33596	
6168	0	33668	
6169	0	33720	
6170	0	33760	
6171	0	33838	
6172	0	33896	
6173	0	33884	
6174	0	33820	
6175	0	33752	
6176	0	33672	
6177	0	33572	
6178	0	33480	
6179	0	33476	
6180	0	33524	
6181	0	33504	
6182	0	33440	
6183	0	33384	
6184	0	33349	
6185	0	33346	
6186	0	33316	
6187	0	33272	
6188	0	33240	
6189	0	33240	
6190	0	33248	
6191	0	33200	
6192	0	33124	
6193	0	33148	
6194	0	33288	
6195	0	33440	
6196	0	33576	
6197	0	33588	
6198	0	33664	
6199	0	33790	
6200	0	33902	
6201	0	33960	
6202	0	33974	
6203	0	33992	
6204	0	34032	
6205	0	34116	
6206	0	34212	
6207	0	34292	
6208	0	34344	
6209	0	34364	
6210	0	34376	
6211	0	34400	
6212	0	34464	
6213	0	34468	
6214	0	34456	
6215	0	34458	
6216	0	34488	
6217	0	34472	
6218	0	34448	
6219	0	34396	
6220	0	34344	
6221	0	34336	
6222	0	34378	
6223	0	34496	
6224	0	34624	
6225	0	34736	
6226	0	34840	
6227	0	35020	
6228	0	35248	
6229	0	35496	
6230	0	35744	
6231	0	35992	
6232	0	36196	
6233	0	36352	
6234	0	36516	
6235	0	36676	
6236	0	36748	
6237	0	36768	
6238	0	36740	
6239	0	36732	
6240	0	36792	
6241	0	36908	
6242	0	36976	
6243	0	36936	
6244	0	36788	
6245	0	36604	
6246	0	36460	
6247	0	36288	
6248	0	36120	
6249	0	36032	
6250	0	36010	
6251	0	36052	
6252	0	36128	
6253	0	36144	
6254	0	36152	
6255	0	36080	
6256	0	35896	
6257	0	35728	
6258	0	35632	
6259	0	35504	
6260	0	35376	
6261	0	35304	
6262	0	35274	
6263	0	35136	
6264	0	34900	
6265	0	34576	
6266	0	34140	
6267	0	33688	
6268	0	33216	
6269	0	32712	
6270	0	32288	
6271	0	31976	
6272	0	31752	
6273	0	31556	
6274	0	31448	
6275	0	31416	
6276	0	31352	
6277	0	31300	
6278	0	31284	
6279	0	31200	
6280	0	31128	
6281	0	31084	
6282	0	31052	
6283	0	30976	
6284	0	30812	
6285	0	30624	
6286	0	30452	
6287	0	30308	
6288	0	30296	
6289	0	30364	
6290	0	30368	
6291	0	30352	
6292	0	30356	
6293	0	30380	
6294	0	30400	
6295	0	30464	
6296	0	30528	
6297	0	30576	
6298	0	30584	
6299	0	30568	
6300	0	30596	
6301	0	30580	
6302	0	30536	
6303	0	30540	
6304	0	30548	
6305	0	30606	
6306	0	30612	
6307	0	30568	
6308	0	30580	
6309	0	30660	
6310	0	30776	
6311	0	30716	
6312	0	30620	
6313	0	30624	
6314	0	30622	
6315	0	30568	
6316	0	30504	
6317	0	30488	
6318	0	30544	
6319	0	30568	
6320	0	30576	
6321	0	30602	
6322	0	30656	
6323	0	30704	
6324	0	30580	
6325	0	30336	
6326	0	29984	
6327	0	29424	
6328	0	28544	
6329	0	27516	
6330	0	26460	
6331	0	25308	
6332	0	24148	
6333	0	23100	
6334	0	22280	
6335	0	21750	
6336	0	21410	
6337	0	21324	
6338	0	21490	
6339	0	21832	
6340	0	22408	
6341	0	23192	
6342	0	24306	
6343	0	25948	
6344	0	27944	
6345	0	30248	
6346	0	32800	
6347	0	35768	
6348	0	38900	
6349	0	42248	
6350	0	46028	
6351	0	50056	
6352	0	54304	
6353	0	58508	
6354	0	61712	
6355	0	63472	
6356	0	64384	
6357	0	64824	
6358	0	64992	
6359	0	65016	
6360	0	64992	
6361	0	64896	
6362	0	64800	
6363	0	64688	
6364	0	64560	
6365	0	57608	
6366	0	51584	
6367	0	46800	
6368	0	42648	
6369	0	38680	
6370	0	35104	
6371	0	32264	
6372	0	30032	
6373	0	28040	
6374	0	26112	
6375	0	24244	
6376	0	22656	
6377	0	21434	
6378	0	20420	
6379	0	19560	
6380	0	18952	
6381	0	18630	
6382	0	18328	
6383	0	17928	
6384	0	17560	
6385	0	17474	
6386	0	17715	
6387	0	18052	
6388	0	18400	
6389	0	18712	
6390	0	18980	
6391	0	19324	
6392	0	19718	
6393	0	20180	
6394	0	20800	
6395	0	21468	
6396	0	22080	
6397	0	22670	
6398	0	23356	
6399	0	24036	
6400	0	24730	
6401	0	25440	
6402	0	26036	
6403	0	26528	
6404	0	26996	
6405	0	27456	
6406	0	27884	
6407	0	28300	
6408	0	28706	
6409	0	29020	
6410	0	29288	
6411	0	29488	
6412	0	29612	
6413	0	29692	
6414	0	29816	
6415	0	29976	
6416	0	30162	
6417	0	30234	
6418	0	30264	
6419	0	30284	
6420	0	30280	
6421	0	30380	
6422	0	30512	
6423	0	30592	
6424	0	30596	
6425	0	30608	
6426	0	30650	
6427	0	30732	
6428	0	30744	
6429	0	30664	
6430	0	30580	
6431	0	30536	
6432	0	30604	
6433	0	30780	
6434	0	30912	
6435	0	30904	
6436	0	30944	
6437	0	31072	
6438	0	31124	
6439	0	31136	
6440	0	31160	
6441	0	31226	
6442	0	31272	
6443	0	31352	
6444	0	31424	
6445	0	31480	
6446	0	31536	
6447	0	31576	
6448	0	31620	
6449	0	31712	
6450	0	31752	
6451	0	31754	
6452	0	31760	
6453	0	31760	
6454	0	31792	
6455	0	31844	
6456	0	31880	
6457	0	31896	
6458	0	31952	
6459	0	32060	
6460	0	32164	
6461	0	32232	
6462	0	32252	
6463	0	32264	
6464	0	32264	
6465	0	32226	
6466	0	32084	
6467	0	31976	
6468	0	31992	
6469	0	32092	
6470	0	32228	
6471	0	32248	
6472	0	32272	
6473	0	32312	
6474	0	32268	
6475	0	32176	
6476	0	32056	
6477	0	32000	
6478	0	32044	
6479	0	32060	
6480	0	32004	
6481	0	32060	
6482	0	32220	
6483	0	32472	
6484	0	32700	
6485	0	32856	
6486	0	32844	
6487	0	32840	
6488	0	32822	
6489	0	32784	
6490	0	32744	
6491	0	32644	
6492	0	32536	
6493	0	32504	
6494	0	32552	
6495	0	32612	
6496	0	32672	
6497	0	32688	
6498	0	32692	
6499	0	32736	
6500	0	32700	
6501	0	32664	
6502	0	32788	
6503	0	32912	
6504	0	32864	
6505	0	32714	
6506	0	32480	
6507	0	32344	
6508	0	32384	
6509	0	32504	
6510	0	32648	
6511	0	32828	
6512	0	32920	
6513	0	32936	
6514	0	32974	
6515	0	32884	
6516	0	32724	
6517	0	32616	
6518	0	32624	
6519	0	32636	
6520	0	32688	
6521	0	32812	
6522	0	32936	
6523	0	32942	
6524	0	32796	
6525	0	32684	
6526	0	32632	
6527	0	32556	
6528	0	32504	
6529	0	32496	
6530	0	32480	
6531	0	32500	
6532	0	32464	
6533	0	32384	
6534	0	32320	
6535	0	32308	
6536	0	32328	
6537	0	32356	
6538	0	32416	
6539	0	32464	
6540	0	32476	
6541	0	32432	
6542	0	32304	
6543	0	32160	
6544	0	32060	
6545	0	31976	
6546	0	31912	
6547	0	31860	
6548	0	31864	
6549	0	31936	
6550	0	31972	
6551	0	31940	
6552	0	31968	
6553	0	31988	
6554	0	32048	
6555	0	31952	
6556	0	31824	
6557	0	31688	
6558	0	31648	
6559	0	31616	
6560	0	31576	
6561	0	31656	
6562	0	31768	
6563	0	31816	
6564	0	31856	
6565	0	31836	
6566	0	31744	
6567	0	31720	
6568	0	31720	
6569	0	31672	
6570	0	31520	
6571	0	31472	
6572	0	31536	
6573	0	31696	
6574	0	31944	
6575	0	32122	
6576	0	32176	
6577	0	32072	
6578	0	31956	
6579	0	31872	
6580	0	31904	
6581	0	31932	
6582	0	31936	
6583	0	31952	
6584	0	31996	
6585	0	32112	
6586	0	32268	
6587	0	32456	
6588	0	32672	
6589	0	32824	
6590	0	32888	
6591	0	32864	
6592	0	32844	
6593	0	32864	
6594	0	32916	
6595	0	32980	
6596	0	32984	
6597	0	33032	
6598	0	33164	
6599	0	33320	
6600	0	33524	
6601	0	33704	
6602	0	33904	
6603	0	34000	
6604	0	34010	
6605	0	33892	
6606	0	33740	
6607	0	33676	
6608	0	33684	
6609	0	33708	
6610	0	33784	
6611	0	33804	
6612	0	33792	
6613	0	33808	
6614	0	33864	
6615	0	33896	
6616	0	33840	
6617	0	33694	
6618	0	33714	
6619	0	33824	
6620	0	33876	
6621	0	33864	
6622	0	33912	
6623	0	33992	
6624	0	33992	
6625	0	33928	
6626	0	33824	
6627	0	33776	
6628	0	33708	
6629	0	33620	
6630	0	33494	
6631	0	33424	
6632	0	33388	
6633	0	33396	
6634	0	33384	
6635	0	33344	
6636	0	33284	
6637	0	33260	
6638	0	33344	
6639	0	33428	
6640	0	33468	
6641	0	33516	
6642	0	33544	
6643	0	33624	
6644	0	33632	
6645	0	33548	
6646	0	33472	
6647	0	33504	
6648	0	33632	
6649	0	33688	
6650	0	33676	
6651	0	33640	
6652	0	33580	
6653	0	33520	
6654	0	33488	
6655	0	33476	
6656	0	33428	
6657	0	33268	
6658	0	33012	
6659	0	32840	
6660	0	32736	
6661	0	32672	
6662	0	32704	
6663	0	32794	
6664	0	32828	
6665	0	32802	
6666	0	32776	
6667	0	32876	
6668	0	32984	
6669	0	33028	
6670	0	32932	
6671	0	32788	
6672	0	32744	
6673	0	32864	
6674	0	33040	
6675	0	33236	
6676	0	33320	
6677	0	33232	
6678	0	33056	
6679	0	32964	
6680	0	32864	
6681	0	32792	
6682	0	32736	
6683	0	32752	
6684	0	32800	
6685	0	32808	
6686	0	32808	
6687	0	32832	
6688	0	32872	
6689	0	32892	
6690	0	32824	
6691	0	32744	
6692	0	32688	
6693	0	32668	
6694	0	32728	
6695	0	32792	
6696	0	32784	
6697	0	32720	
6698	0	32732	
6699	0	32912	
6700	0	33056	
6701	0	33020	
6702	0	33028	
6703	0	33080	
6704	0	33116	
6705	0	33114	
6706	0	33036	
6707	0	33016	
6708	0	33026	
6709	0	33076	
6710	0	33120	
6711	0	33202	
6712	0	33312	
6713	0	33440	
6714	0	33452	
6715	0	33408	
6716	0	33408	
6717	0	33392	
6718	0	33260	
6719	0	33148	
6720	0	33096	
6721	0	33076	
6722	0	33136	
6723	0	33248	
6724	0	33436	
6725	0	33552	
6726	0	33428	
6727	0	33336	
6728	0	33340	
6729	0	33292	
6730	0	33192	
6731	0	33056	
6732	0	33012	
6733	0	33156	
6734	0	33504	
6735	0	33832	
6736	0	34012	
6737	0	33976	
6738	0	33856	
6739	0	33832	
6740	0	33776	
6741	0	33676	
6742	0	33592	
6743	0	33536	
6744	0	33568	
6745	0	33624	
6746	0	33740	
6747	0	33912	
6748	0	34116	
6749	0	34210	
6750	0	34072	
6751	0	34040	
6752	0	34112	
6753	0	34036	
6754	0	33952	
6755	0	33826	
6756	0	33792	
6757	0	33912	
6758	0	34074	
6759	0	34248	
6760	0	34332	
6761	0	34384	
6762	0	34408	
6763	0	34400	
6764	0	34364	
6765	0	34266	
6766	0	34104	
6767	0	33916	
6768	0	33744	
6769	0	33732	
6770	0	33868	
6771	0	33916	
6772	0	33916	
6773	0	33972	
6774	0	34048	
6775	0	34018	
6776	0	34110	
6777	0	34270	
6778	0	34464	
6779	0	34484	
6780	0	34400	
6781	0	34224	
6782	0	33968	
6783	0	33764	
6784	0	33692	
6785	0	33700	
6786	0	33690	
6787	0	33692	
6788	0	33804	
6789	0	33896	
6790	0	33850	
6791	0	33780	
6792	0	33764	
6793	0	33736	
6794	0	33716	
6795	0	33724	
6796	0	33704	
6797	0	33744	
6798	0	33772	
6799	0	33708	
6800	0	33632	
6801	0	33640	
6802	0	33640	
6803	0	33624	
6804	0	33596	
6805	0	33540	
6806	0	33400	
6807	0	33292	
6808	0	33320	
6809	0	33340	
6810	0	33264	
6811	0	33176	
6812	0	33088	
6813	0	33024	
6814	0	33066	
6815	0	33136	
6816	0	33204	
6817	0	33340	
6818	0	33516	
6819	0	33700	
6820	0	33756	
6821	0	33604	
6822	0	33432	
6823	0	33324	
6824	0	33210	
6825	0	33120	
6826	0	33208	
6827	0	33268	
6828	0	33264	
6829	0	33232	
6830	0	33158	
6831	0	33052	
6832	0	32888	
6833	0	32730	
6834	0	32664	
6835	0	32716	
6836	0	32832	
6837	0	32912	
6838	0	32964	
6839	0	32932	
6840	0	32862	
6841	0	32768	
6842	0	32710	
6843	0	32648	
6844	0	32624	
6845	0	32726	
6846	0	32832	
6847	0	32920	
6848	0	32864	
6849	0	32620	
6850	0	32538	
6851	0	32596	
6852	0	32642	
6853	0	32616	
6854	0	32628	
6855	0	32748	
6856	0	32880	
6857	0	32824	
6858	0	32752	
6859	0	32792	
6860	0	32980	
6861	0	33224	
6862	0	33436	
6863	0	33464	
6864	0	33420	
6865	0	33312	
6866	0	33172	
6867	0	33028	
6868	0	32972	
6869	0	33004	
6870	0	33122	
6871	0	33280	
6872	0	33448	
6873	0	33592	
6874	0	33820	
6875	0	34024	
6876	0	34068	
6877	0	33952	
6878	0	33816	
6879	0	33692	
6880	0	33640	
6881	0	33696	
6882	0	33792	
6883	0	33764	
6884	0	33652	
6885	0	33576	
6886	0	33620	
6887	0	33792	
6888	0	34000	
6889	0	34256	
6890	0	34528	
6891	0	34768	
6892	0	35024	
6893	0	35324	
6894	0	35756	
6895	0	36288	
6896	0	36524	
6897	0	36522	
6898	0	36468	
6899	0	36328	
6900	0	36140	
6901	0	36072	
6902	0	36060	
6903	0	36160	
6904	0	36336	
6905	0	36400	
6906	0	36416	
6907	0	36328	
6908	0	36100	
6909	0	35920	
6910	0	35904	
6911	0	35956	
6912	0	35952	
6913	0	36016	
6914	0	36160	
6915	0	36204	
6916	0	36312	
6917	0	36348	
6918	0	36252	
6919	0	36116	
6920	0	35876	
6921	0	35664	
6922	0	35500	
6923	0	35232	
6924	0	34928	
6925	0	34704	
6926	0	34472	
6927	0	34272	
6928	0	34060	
6929	0	33824	
6930	0	33532	
6931	0	33176	
6932	0	32816	
6933	0	32522	
6934	0	32248	
6935	0	32064	
6936	0	32008	
6937	0	31944	
6938	0	31896	
6939	0	31772	
6940	0	31614	
6941	0	31564	
6942	0	31624	
6943	0	31624	
6944	0	31488	
6945	0	31280	
6946	0	31048	
6947	0	30700	
6948	0	30484	
6949	0	30356	
6950	0	30264	
6951	0	30356	
6952	0	30584	
6953	0	30836	
6954	0	30892	
6955	0	30864	
6956	0	30844	
6957	0	30856	
6958	0	30832	
6959	0	30704	
6960	0	30584	
6961	0	30516	
6962	0	30496	
6963	0	30560	
6964	0	30616	
6965	0	30652	
6966	0	30692	
6967	0	30804	
6968	0	30908	
6969	0	30968	
6970	0	30968	
6971	0	30904	
6972	0	30844	
6973	0	30852	
6974	0	30916	
6975	0	30960	
6976	0	30924	
6977	0	30900	
6978	0	30932	
6979	0	30924	
6980	0	30904	
6981	0	30788	
6982	0	30684	
6983	0	30644	
6984	0	30696	
6985	0	30692	
6986	0	30668	
6987	0	30560	
6988	0	30368	
6989	0	30068	
6990	0	29612	
6991	0	28904	
6992	0	28068	
6993	0	27160	
6994	0	26158	
6995	0	25142	
6996	0	24268	
6997	0	23648	
6998	0	23310	
6999	0	23176	
7000	0	23272	
7001	0	23530	
7002	0	24008	
7003	0	24732	
7004	0	25588	
7005	0	26708	
7006	0	28322	
7007	0	30368	
7008	0	32792	
7009	0	35472	
7010	0	38436	
7011	0	41460	
7012	0	44588	
7013	0	47992	
7014	0	51592	
7015	0	55472	
7016	0	59244	
7017	0	62064	
7018	0	63584	
7019	0	64376	
7020	0	64752	
7021	0	64872	
7022	0	64880	
7023	0	64848	
7024	0	64760	
7025	0	64648	
7026	0	64528	
7027	0	59704	
7028	0	51728	
7029	0	45332	
7030	0	40328	
7031	0	36056	
7032	0	32184	
7033	0	29176	
7034	0	27228	
7035	0	26120	
7036	0	25296	
7037	0	24516	
7038	0	23676	
7039	0	22610	
7040	0	21218	
7041	0	19780	
7042	0	18652	
7043	0	17884	
7044	0	17496	
7045	0	17328	
7046	0	17136	
7047	0	16912	
7048	0	16708	
7049	0	16716	
7050	0	16928	
7051	0	17392	
7052	0	17892	
7053	0	18360	
7054	0	18804	
7055	0	19126	
7056	0	19462	
7057	0	19848	
7058	0	20284	
7059	0	20800	
7060	0	21364	
7061	0	22116	
7062	0	22920	
7063	0	23560	
7064	0	24136	
7065	0	24760	
7066	0	25434	
7067	0	26064	
7068	0	26702	
7069	0	27360	
7070	0	28004	
7071	0	28514	
7072	0	28896	
7073	0	29224	
7074	0	29496	
7075	0	29664	
7076	0	29728	
7077	0	29742	
7078	0	29792	
7079	0	29856	
7080	0	29932	
7081	0	30036	
7082	0	30188	
7083	0	30356	
7084	0	30514	
7085	0	30732	
7086	0	30916	
7087	0	30988	
7088	0	31012	
7089	0	31032	
7090	0	31088	
7091	0	31200	
7092	0	31300	
7093	0	31380	
7094	0	31428	
7095	0	31456	
7096	0	31460	
7097	0	31468	
7098	0	31508	
7099	0	31546	
7100	0	31532	
7101	0	31516	
7102	0	31580	
7103	0	31636	
7104	0	31736	
7105	0	31870	
7106	0	32044	
7107	0	32168	
7108	0	32100	
7109	0	32036	
7110	0	32092	
7111	0	32184	
7112	0	32188	
7113	0	32120	
7114	0	32064	
7115	0	32072	
7116	0	32104	
7117	0	32196	
7118	0	32260	
7119	0	32320	
7120	0	32400	
7121	0	32540	
7122	0	32592	
7123	0	32552	
7124	0	32556	
7125	0	32516	
7126	0	32442	
7127	0	32386	
7128	0	32432	
7129	0	32504	
7130	0	32614	
7131	0	32760	
7132	0	32750	
7133	0	32680	
7134	0	32672	
7135	0	32696	
7136	0	32764	
7137	0	32856	
7138	0	32908	
7139	0	32988	
7140	0	33096	
7141	0	33108	
7142	0	33020	
7143	0	32984	
7144	0	33032	
7145	0	33192	
7146	0	33293	
7147	0	33314	
7148	0	33196	
7149	0	33148	
7150	0	33152	
7151	0	33144	
7152	0	33192	
7153	0	33300	
7154	0	33424	
7155	0	33514	
7156	0	33488	
7157	0	33428	
7158	0	33376	
7159	0	33364	
7160	0	33360	
7161	0	33344	
7162	0	33324	
7163	0	33288	
7164	0	33248	
7165	0	33220	
7166	0	33248	
7167	0	33298	
7168	0	33344	
7169	0	33364	
7170	0	33376	
7171	0	33448	
7172	0	33556	
7173	0	33592	
7174	0	33566	
7175	0	33552	
7176	0	33528	
7177	0	33448	
7178	0	33384	
7179	0	33320	
7180	0	33300	
7181	0	33368	
7182	0	33432	
7183	0	33416	
7184	0	33364	
7185	0	33332	
7186	0	33380	
7187	0	33524	
7188	0	33662	
7189	0	33740	
7190	0	33752	
7191	0	33680	
7192	0	33528	
7193	0	33320	
7194	0	33196	
7195	0	33192	
7196	0	33160	
7197	0	33096	
7198	0	33048	
7199	0	33004	
7200	0	32970	
7201	0	32964	
7202	0	32992	
7203	0	32960	
7204	0	32812	
7205	0	32680	
7206	0	32680	
7207	0	32720	
7208	0	32786	
7209	0	32864	
7210	0	32896	
7211	0	32888	
7212	0	32800	
7213	0	32664	
7214	0	32518	
7215	0	32416	
7216	0	32378	
7217	0	32442	
7218	0	32504	
7219	0	32476	
7220	0	32444	
7221	0	32400	
7222	0	32308	
7223	0	32240	
7224	0	32196	
7225	0	32164	
7226	0	32162	
7227	0	32218	
7228	0	32276	
7229	0	32344	
7230	0	32392	
7231	0	32368	
7232	0	32260	
7233	0	32176	
7234	0	32128	
7235	0	32100	
7236	0	32100	
7237	0	32160	
7238	0	32232	
7239	0	32304	
7240	0	32368	
7241	0	32428	
7242	0	32452	
7243	0	32440	
7244	0	32524	
7245	0	32692	
7246	0	32778	
7247	0	32744	
7248	0	32680	
7249	0	32676	
7250	0	32700	
7251	0	32792	
7252	0	32920	
7253	0	33012	
7254	0	33064	
7255	0	33116	
7256	0	33156	
7257	0	33220	
7258	0	33312	
7259	0	33420	
7260	0	33508	
7261	0	33568	
7262	0	33640	
7263	0	33776	
7264	0	33856	
7265	0	33876	
7266	0	33884	
7267	0	33840	
7268	0	33816	
7269	0	33852	
7270	0	33892	
7271	0	33920	
7272	0	33956	
7273	0	34020	
7274	0	34104	
7275	0	34156	
7276	0	34192	
7277	0	34220	
7278	0	34200	
7279	0	34144	
7280	0	34060	
7281	0	33964	
7282	0	33896	
7283	0	33834	
7284	0	33776	
7285	0	33724	
7286	0	33720	
7287	0	33794	
7288	0	33848	
7289	0	33880	
7290	0	33908	
7291	0	33896	
7292	0	33856	
7293	0	33780	
7294	0	33728	
7295	0	33772	
7296	0	33824	
7297	0	33852	
7298	0	33868	
7299	0	33904	
7300	0	33900	
7301	0	33836	
7302	0	33732	
7303	0	33688	
7304	0	33692	
7305	0	33690	
7306	0	33632	
7307	0	33568	
7308	0	33528	
7309	0	33552	
7310	0	33584	
7311	0	33592	
7312	0	33592	
7313	0	33520	
7314	0	33408	
7315	0	33316	
7316	0	33220	
7317	0	33180	
7318	0	33200	
7319	0	33216	
7320	0	33188	
7321	0	33210	
7322	0	33268	
7323	0	33296	
7324	0	33300	
7325	0	33256	
7326	0	33208	
7327	0	33180	
7328	0	33120	
7329	0	33112	
7330	0	33148	
7331	0	33216	
7332	0	33272	
7333	0	33308	
7334	0	33268	
7335	0	33208	
7336	0	33088	
7337	0	32948	
7338	0	32896	
7339	0	32944	
7340	0	32976	
7341	0	32992	
7342	0	33004	
7343	0	32988	
7344	0	32976	
7345	0	32992	
7346	0	32996	
7347	0	32986	
7348	0	33004	
7349	0	33004	
7350	0	32968	
7351	0	33036	
7352	0	33108	
7353	0	33152	
7354	0	33184	
7355	0	33184	
7356	0	33168	
7357	0	33112	
7358	0	33072	
7359	0	33080	
7360	0	33016	
7361	0	32944	
7362	0	32880	
7363	0	32902	
7364	0	32960	
7365	0	33024	
7366	0	33060	
7367	0	33084	
7368	0	33056	
7369	0	32984	
7370	0	32968	
7371	0	33016	
7372	0	33096	
7373	0	33144	
7374	0	33122	
7375	0	33052	
7376	0	33016	
7377	0	33016	
7378	0	33072	
7379	0	33116	
7380	0	33140	
7381	0	33228	
7382	0	33320	
7383	0	33356	
7384	0	33364	
7385	0	33362	
7386	0	33408	
7387	0	33500	
7388	0	33520	
7389	0	33464	
7390	0	33420	
7391	0	33392	
7392	0	33382	
7393	0	33416	
7394	0	33440	
7395	0	33458	
7396	0	33472	
7397	0	33520	
7398	0	33616	
7399	0	33728	
7400	0	33768	
7401	0	33752	
7402	0	33720	
7403	0	33744	
7404	0	33784	
7405	0	33736	
7406	0	33600	
7407	0	33580	
7408	0	33704	
7409	0	33880	
7410	0	34092	
7411	0	34220	
7412	0	34288	
7413	0	34336	
7414	0	34404	
7415	0	34450	
7416	0	34388	
7417	0	34300	
7418	0	34136	
7419	0	33972	
7420	0	33864	
7421	0	33852	
7422	0	33904	
7423	0	34000	
7424	0	34034	
7425	0	34052	
7426	0	34096	
7427	0	34144	
7428	0	34160	
7429	0	34124	
7430	0	34112	
7431	0	34124	
7432	0	34160	
7433	0	34220	
7434	0	34310	
7435	0	34374	
7436	0	34388	
7437	0	34336	
7438	0	34268	
7439	0	34204	
7440	0	34164	
7441	0	34072	
7442	0	33972	
7443	0	33924	
7444	0	33924	
7445	0	33956	
7446	0	33952	
7447	0	33886	
7448	0	33832	
7449	0	33844	
7450	0	33900	
7451	0	33944	
7452	0	33946	
7453	0	33944	
7454	0	33944	
7455	0	33952	
7456	0	33984	
7457	0	34008	
7458	0	34032	
7459	0	34024	
7460	0	34004	
7461	0	33972	
7462	0	33896	
7463	0	33820	
7464	0	33720	
7465	0	33648	
7466	0	33620	
7467	0	33552	
7468	0	33544	
7469	0	33580	
7470	0	33564	
7471	0	33580	
7472	0	33622	
7473	0	33652	
7474	0	33612	
7475	0	33600	
7476	0	33624	
7477	0	33624	
7478	0	33600	
7479	0	33516	
7480	0	33424	
7481	0	33356	
7482	0	33328	
7483	0	33312	
7484	0	33312	
7485	0	33272	
7486	0	33236	
7487	0	33280	
7488	0	33264	
7489	0	33208	
7490	0	33176	
7491	0	33240	
7492	0	33312	
7493	0	33376	
7494	0	33404	
7495	0	33412	
7496	0	33404	
7497	0	33368	
7498	0	33356	
7499	0	33368	
7500	0	33336	
7501	0	33256	
7502	0	33212	
7503	0	33156	
7504	0	33136	
7505	0	33072	
7506	0	32996	
7507	0	32960	
7508	0	32944	
7509	0	32968	
7510	0	32960	
7511	0	32932	
7512	0	32946	
7513	0	32860	
7514	0	32744	
7515	0	32728	
7516	0	32768	
7517	0	32804	
7518	0	32828	
7519	0	32828	
7520	0	32800	
7521	0	32800	
7522	0	32800	
7523	0	32808	
7524	0	32800	
7525	0	32796	
7526	0	32772	
7527	0	32686	
7528	0	32608	
7529	0	32596	
7530	0	32644	
7531	0	32772	
7532	0	32832	
7533	0	32808	
7534	0	32772	
7535	0	32824	
7536	0	32900	
7537	0	32984	
7538	0	33024	
7539	0	33080	
7540	0	33136	
7541	0	33192	
7542	0	33192	
7543	0	33208	
7544	0	33264	
7545	0	33336	
7546	0	33432	
7547	0	33528	
7548	0	33634	
7549	0	33720	
7550	0	33792	
7551	0	33828	
7552	0	33884	
7553	0	33916	
7554	0	33948	
7555	0	33960	
7556	0	33946	
7557	0	33908	
7558	0	33904	
7559	0	33892	
7560	0	33880	
7561	0	33888	
7562	0	33904	
7563	0	33928	
7564	0	34000	
7565	0	34140	
7566	0	34288	
7567	0	34524	
7568	0	34768	
7569	0	35080	
7570	0	35420	
7571	0	35736	
7572	0	36040	
7573	0	36316	
7574	0	36504	
7575	0	36632	
7576	0	36732	
7577	0	36820	
7578	0	36812	
7579	0	36728	
7580	0	36692	
7581	0	36692	
7582	0	36648	
7583	0	36576	
7584	0	36508	
7585	0	36416	
7586	0	36336	
7587	0	36192	
7588	0	36036	
7589	0	35972	
7590	0	35972	
7591	0	35996	
7592	0	35972	
7593	0	35948	
7594	0	35940	
7595	0	35928	
7596	0	35912	
7597	0	35810	
7598	0	35680	
7599	0	35592	
7600	0	35564	
7601	0	35468	
7602	0	35300	
7603	0	35056	
7604	0	34700	
7605	0	34372	
7606	0	34052	
7607	0	33704	
7608	0	33312	
7609	0	32858	
7610	0	32450	
7611	0	32164	
7612	0	31952	
7613	0	31834	
7614	0	31712	
7615	0	31632	
7616	0	31588	
7617	0	31560	
7618	0	31510	
7619	0	31472	
7620	0	31444	
7621	0	31364	
7622	0	31260	
7623	0	31160	
7624	0	31016	
7625	0	30852	
7626	0	30732	
7627	0	30604	
7628	0	30520	
7629	0	30496	
7630	0	30496	
7631	0	30540	
7632	0	30636	
7633	0	30736	
7634	0	30846	
7635	0	30956	
7636	0	30996	
7637	0	30948	
7638	0	30876	
7639	0	30792	
7640	0	30784	
7641	0	30784	
7642	0	30744	
7643	0	30648	
7644	0	30636	
7645	0	30696	
7646	0	30752	
7647	0	30800	
7648	0	30800	
7649	0	30736	
7650	0	30684	
7651	0	30704	
7652	0	30748	
7653	0	30792	
7654	0	30860	
7655	0	30874	
7656	0	30850	
7657	0	30848	
7658	0	30848	
7659	0	30892	
7660	0	30912	
7661	0	30876	
7662	0	30796	
7663	0	30714	
7664	0	30624	
7665	0	30388	
7666	0	29908	
7667	0	29112	
7668	0	28152	
7669	0	27136	
7670	0	26074	
7671	0	25056	
7672	0	24178	
7673	0	23488	
7674	0	23004	
7675	0	22704	
7676	0	22608	
7677	0	22800	
7678	0	23256	
7679	0	23904	
7680	0	24680	
7681	0	25708	
7682	0	27212	
7683	0	29144	
7684	0	31496	
7685	0	34088	
7686	0	36852	
7687	0	39772	
7688	0	42860	
7689	0	46376	
7690	0	50164	
7691	0	54180	
7692	0	58332	
7693	0	61408	
7694	0	63080	
7695	0	63944	
7696	0	64352	
7697	0	64536	
7698	0	64556	
7699	0	64516	
7700	0	64432	
7701	0	64344	
7702	0	64216	
7703	0	64104	
7704	0	57176	
7705	0	50328	
7706	0	44978	
7707	0	40608	
7708	0	36564	
7709	0	33000	
7710	0	30312	
7711	0	28344	
7712	0	26886	
7713	0	25548	
7714	0	24124	
7715	0	22544	
7716	0	21118	
7717	0	20074	
7718	0	19158	
7719	0	18382	
7720	0	17926	
7721	0	17704	
7722	0	17454	
7723	0	17128	
7724	0	16898	
7725	0	16864	
7726	0	17105	
7727	0	17566	
7728	0	18012	
7729	0	18408	
7730	0	18766	
7731	0	19200	
7732	0	19688	
7733	0	20228	
7734	0	20872	
7735	0	21512	
7736	0	22132	
7737	0	22690	
7738	0	23252	
7739	0	23864	
7740	0	24494	
7741	0	25162	
7742	0	25828	
7743	0	26524	
7744	0	27130	
7745	0	27660	
7746	0	28140	
7747	0	28548	
7748	0	28942	
7749	0	29274	
7750	0	29536	
7751	0	29684	
7752	0	29780	
7753	0	29836	
7754	0	29912	
7755	0	30032	
7756	0	30152	
7757	0	30296	
7758	0	30428	
7759	0	30480	
7760	0	30504	
7761	0	30524	
7762	0	30532	
7763	0	30554	
7764	0	30588	
7765	0	30632	
7766	0	30688	
7767	0	30770	
7768	0	30814	
7769	0	30860	
7770	0	30900	
7771	0	30984	
7772	0	31064	
7773	0	31176	
7774	0	31266	
7775	0	31304	
7776	0	31336	
7777	0	31344	
7778	0	31358	
7779	0	31424	
7780	0	31556	
7781	0	31698	
7782	0	31772	
7783	0	31816	
7784	0	31824	
7785	0	31820	
7786	0	31816	
7787	0	31852	
7788	0	31912	
7789	0	31952	
7790	0	31960	
7791	0	31938	
7792	0	31940	
7793	0	31972	
7794	0	32008	
7795	0	32016	
7796	0	32040	
7797	0	32088	
7798	0	32160	
7799	0	32216	
7800	0	32248	
7801	0	32280	
7802	0	32360	
7803	0	32456	
7804	0	32476	
7805	0	32380	
7806	0	32314	
7807	0	32324	
7808	0	32404	
7809	0	32456	
7810	0	32488	
7811	0	32528	
7812	0	32544	
7813	0	32508	
7814	0	32464	
7815	0	32476	
7816	0	32504	
7817	0	32540	
7818	0	32584	
7819	0	32636	
7820	0	32692	
7821	0	32714	
7822	0	32732	
7823	0	32752	
7824	0	32752	
7825	0	32736	
7826	0	32736	
7827	0	32748	
7828	0	32784	
7829	0	32834	
7830	0	32816	
7831	0	32808	
7832	0	32792	
7833	0	32820	
7834	0	32840	
7835	0	32888	
7836	0	32932	
7837	0	32956	
7838	0	32980	
7839	0	32984	
7840	0	33044	
7841	0	33092	
7842	0	33120	
7843	0	33108	
7844	0	33088	
7845	0	33088	
7846	0	33104	
7847	0	33096	
7848	0	33080	
7849	0	33080	
7850	0	33072	
7851	0	33076	
7852	0	33136	
7853	0	33160	
7854	0	33192	
7855	0	33196	
7856	0	33172	
7857	0	33220	
7858	0	33256	
7859	0	33268	
7860	0	33256	
7861	0	33248	
7862	0	33248	
7863	0	33168	
7864	0	33064	
7865	0	32966	
7866	0	32936	
7867	0	32884	
7868	0	32856	
7869	0	32852	
7870	0	32886	
7871	0	32954	
7872	0	33000	
7873	0	33016	
7874	0	33072	
7875	0	33124	
7876	0	33112	
7877	0	33052	
7878	0	32972	
7879	0	32892	
7880	0	32828	
7881	0	32744	
7882	0	32672	
7883	0	32604	
7884	0	32538	
7885	0	32456	
7886	0	32396	
7887	0	32392	
7888	0	32410	
7889	0	32436	
7890	0	32452	
7891	0	32472	
7892	0	32444	
7893	0	32404	
7894	0	32378	
7895	0	32340	
7896	0	32304	
7897	0	32260	
7898	0	32256	
7899	0	32234	
7900	0	32224	
7901	0	32252	
7902	0	32256	
7903	0	32264	
7904	0	32240	
7905	0	32236	
7906	0	32196	
7907	0	32172	
7908	0	32152	
7909	0	32170	
7910	0	32192	
7911	0	32188	
7912	0	32184	
7913	0	32136	
7914	0	32112	
7915	0	32152	
7916	0	32192	
7917	0	32226	
7918	0	32268	
7919	0	32272	
7920	0	32296	
7921	0	32320	
7922	0	32312	
7923	0	32352	
7924	0	32396	
7925	0	32444	
7926	0	32500	
7927	0	32560	
7928	0	32612	
7929	0	32672	
7930	0	32716	
7931	0	32764	
7932	0	32848	
7933	0	32956	
7934	0	33068	
7935	0	33172	
7936	0	33262	
7937	0	33312	
7938	0	33368	
7939	0	33404	
7940	0	33440	
7941	0	33504	
7942	0	33540	
7943	0	33568	
7944	0	33600	
7945	0	33652	
7946	0	33688	
7947	0	33680	
7948	0	33692	
7949	0	33724	
7950	0	33752	
7951	0	33748	
7952	0	33720	
7953	0	33688	
7954	0	33632	
7955	0	33612	
7956	0	33644	
7957	0	33642	
7958	0	33672	
7959	0	33688	
7960	0	33680	
7961	0	33660	
7962	0	33672	
7963	0	33668	
7964	0	33706	
7965	0	33756	
7966	0	33776	
7967	0	33776	
7968	0	33780	
7969	0	33744	
7970	0	33728	
7971	0	33696	
7972	0	33640	
7973	0	33586	
7974	0	33580	
7975	0	33584	
7976	0	33608	
7977	0	33588	
7978	0	33556	
7979	0	33540	
7980	0	33524	
7981	0	33560	
7982	0	33604	
7983	0	33572	
7984	0	33480	
7985	0	33416	
7986	0	33384	
7987	0	33364	
7988	0	33324	
7989	0	33312	
7990	0	33336	
7991	0	33340	
7992	0	33316	
7993	0	33324	
7994	0	33320	
7995	0	33288	
7996	0	33288	
7997	0	33296	
7998	0	33276	
7999	0	33264	
8000	0	33264	
8001	0	33252	
8002	0	33244	
8003	0	33232	
8004	0	33240	
8005	0	33236	
8006	0	33216	
8007	0	33240	
8008	0	33280	
8009	0	33296	
8010	0	33332	
8011	0	33320	
8012	0	33304	
8013	0	33292	
8014	0	33240	
8015	0	33208	
8016	0	33188	
8017	0	33192	
8018	0	33208	
8019	0	33180	
8020	0	33124	
8021	0	33068	
8022	0	33030	
8023	0	33002	
8024	0	32984	
8025	0	32996	
8026	0	33010	
8027	0	32992	
8028	0	32980	
8029	0	32984	
8030	0	32980	
8031	0	33008	
8032	0	32992	
8033	0	32956	
8034	0	32932	
8035	0	32948	
8036	0	32932	
8037	0	32918	
8038	0	32948	
8039	0	32944	
8040	0	32954	
8041	0	32960	
8042	0	32988	
8043	0	32976	
8044	0	32974	
8045	0	33000	
8046	0	33024	
8047	0	32988	
8048	0	32932	
8049	0	32928	
8050	0	32980	
8051	0	33052	
8052	0	33096	
8053	0	33144	
8054	0	33144	
8055	0	33140	
8056	0	33146	
8057	0	33185	
8058	0	33228	
8059	0	33208	
8060	0	33224	
8061	0	33240	
8062	0	33242	
8063	0	33280	
8064	0	33344	
8065	0	33400	
8066	0	33404	
8067	0	33424	
8068	0	33440	
8069	0	33492	
8070	0	33524	
8071	0	33508	
8072	0	33496	
8073	0	33496	
8074	0	33536	
8075	0	33560	
8076	0	33584	
8077	0	33626	
8078	0	33656	
8079	0	33672	
8080	0	33676	
8081	0	33680	
8082	0	33680	
8083	0	33712	
8084	0	33756	
8085	0	33784	
8086	0	33796	
8087	0	33824	
8088	0	33826	
8089	0	33816	
8090	0	33816	
8091	0	33848	
8092	0	33876	
8093	0	33856	
8094	0	33848	
8095	0	33840	
8096	0	33816	
8097	0	33812	
8098	0	33856	
8099	0	33872	
8100	0	33882	
8101	0	33928	
8102	0	33972	
8103	0	33960	
8104	0	33952	
8105	0	33968	
8106	0	33992	
8107	0	34060	
8108	0	34104	
8109	0	34136	
8110	0	34100	
8111	0	33996	
8112	0	33952	
8113	0	33930	
8114	0	33954	
8115	0	33960	
8116	0	33964	
8117	0	33948	
8118	0	33952	
8119	0	33952	
8120	0	33984	
8121	0	34008	
8122	0	34032	
8123	0	34028	
8124	0	34024	
8125	0	33968	
8126	0	33928	
8127	0	33848	
8128	0	33780	
8129	0	33740	
8130	0	33728	
8131	0	33744	
8132	0	33744	
8133	0	33724	
8134	0	33696	
8135	0	33696	
8136	0	33728	
8137	0	33704	
8138	0	33688	
8139	0	33664	
8140	0	33652	
8141	0	33636	
8142	0	33580	
8143	0	33528	
8144	0	33496	
8145	0	33496	
8146	0	33532	
8147	0	33536	
8148	0	33554	
8149	0	33516	
8150	0	33488	
8151	0	33484	
8152	0	33464	
8153	0	33448	
8154	0	33444	
8155	0	33424	
8156	0	33368	
8157	0	33340	
8158	0	33312	
8159	0	33296	
8160	0	33258	
8161	0	33236	
8162	0	33256	
8163	0	33260	
8164	0	33216	
8165	0	33188	
8166	0	33196	
8167	0	33208	
8168	0	33236	
8169	0	33200	
8170	0	33152	
8171	0	33132	
8172	0	33064	
8173	0	33008	
8174	0	33010	
8175	0	33084	
8176	0	33112	
8177	0	33068	
8178	0	33032	
8179	0	33012	
8180	0	33024	
8181	0	33024	
8182	0	33012	
8183	0	32992	
8184	0	32984	
8185	0	32980	
8186	0	32956	
8187	0	32916	
8188	0	32956	
8189	0	32960	
8190	0	32972	
8191	0	32982	
8192	0	32984	
8193	0	32960	
8194	0	32926	
8195	0	32892	
8196	0	32820	
8197	0	32800	
8198	0	32792	
8199	0	32778	
8200	0	32792	
8201	0	32800	
8202	0	32812	
8203	0	32820	
8204	0	32792	
8205	0	32724	
8206	0	32652	
8207	0	32628	
8208	0	32640	
8209	0	32672	
8210	0	32672	
8211	0	32720	
8212	0	32768	
8213	0	32768	
8214	0	32764	
8215	0	32752	
8216	0	32712	
8217	0	32672	
8218	0	32644	
8219	0	32556	
8220	0	32528	
8221	0	32536	
8222	0	32536	
8223	0	32560	
8224	0	32576	
8225	0	32560	
8226	0	32546	
8227	0	32576	
8228	0	32628	
8229	0	32664	
8230	0	32724	
8231	0	32728	
8232	0	32720	
8233	0	32760	
8234	0	32814	
8235	0	32848	
8236	0	32920	
8237	0	33040	
8238	0	33164	
8239	0	33252	
8240	0	33312	
8241	0	33372	
8242	0	33428	
8243	0	33520	
8244	0	33664	
8245	0	33824	
8246	0	33920	
8247	0	33992	
8248	0	34040	
8249	0	34036	
8250	0	34004	
8251	0	34012	
8252	0	34012	
8253	0	34028	
8254	0	34068	
8255	0	34072	
8256	0	34084	
8257	0	34136	
8258	0	34180	
8259	0	34148	
8260	0	34072	
8261	0	34032	
8262	0	34078	
8263	0	34188	
8264	0	34420	
8265	0	34700	
8266	0	34980	
8267	0	35296	
8268	0	35714	
8269	0	36064	
8270	0	36288	
8271	0	36448	
8272	0	36580	
8273	0	36656	
8274	0	36736	
8275	0	36824	
8276	0	36862	
8277	0	36888	
8278	0	36876	
8279	0	36824	
8280	0	36764	
8281	0	36680	
8282	0	36544	
8283	0	36328	
8284	0	36152	
8285	0	36020	
8286	0	35968	
8287	0	35964	
8288	0	35948	
8289	0	35932	
8290	0	35952	
8291	0	35976	
8292	0	35958	
8293	0	35892	
8294	0	35804	
8295	0	35732	
8296	0	35660	
8297	0	35556	
8298	0	35424	
8299	0	35268	
8300	0	35068	
8301	0	34764	
8302	0	34452	
8303	0	34176	
8304	0	33880	
8305	0	33464	
8306	0	33052	
8307	0	32656	
8308	0	32296	
8309	0	32000	
8310	0	31770	
8311	0	31596	
8312	0	31456	
8313	0	31388	
8314	0	31378	
8315	0	31384	
8316	0	31356	
8317	0	31332	
8318	0	31264	
8319	0	31156	
8320	0	31036	
8321	0	30900	
8322	0	30800	
8323	0	30808	
8324	0	30768	
8325	0	30676	
8326	0	30580	
8327	0	30536	
8328	0	30520	
8329	0	30508	
8330	0	30492	
8331	0	30490	
8332	0	30520	
8333	0	30536	
8334	0	30568	
8335	0	30592	
8336	0	30632	
8337	0	30680	
8338	0	30644	
8339	0	30644	
8340	0	30684	
8341	0	30704	
8342	0	30676	
8343	0	30624	
8344	0	30586	
8345	0	30596	
8346	0	30656	
8347	0	30732	
8348	0	30772	
8349	0	30810	
8350	0	30852	
8351	0	30888	
8352	0	30904	
8353	0	30888	
8354	0	30912	
8355	0	30948	
8356	0	30966	
8357	0	30988	
8358	0	30976	
8359	0	30906	
8360	0	30764	
8361	0	30548	
8362	0	30260	
8363	0	29800	
8364	0	29032	
8365	0	28064	
8366	0	26988	
8367	0	25828	
8368	0	24722	
8369	0	23768	
8370	0	22958	
8371	0	22336	
8372	0	21932	
8373	0	21728	
8374	0	21820	
8375	0	22186	
8376	0	22804	
8377	0	23476	
8378	0	24280	
8379	0	25536	
8380	0	27324	
8381	0	29584	
8382	0	32112	
8383	0	34864	
8384	0	37952	
8385	0	41256	
8386	0	44932	
8387	0	48916	
8388	0	53064	
8389	0	57408	
8390	0	60840	
8391	0	62728	
8392	0	63712	
8393	0	64212	
8394	0	64404	
8395	0	64460	
8396	0	64424	
8397	0	64368	
8398	0	64256	
8399	0	64160	
8400	0	64024	
8401	0	63640	
8402	0	56656	
8403	0	51256	
8404	0	47084	
8405	0	43328	
8406	0	39636	
8407	0	36288	
8408	0	33536	
8409	0	31308	
8410	0	29136	
8411	0	26796	
8412	0	24656	
8413	0	22996	
8414	0	21742	
8415	0	20712	
8416	0	19856	
8417	0	19280	
8418	0	18836	
8419	0	18368	
8420	0	17872	
8421	0	17532	
8422	0	17528	
8423	0	17792	
8424	0	18188	
8425	0	18536	
8426	0	18838	
8427	0	19178	
8428	0	19560	
8429	0	20100	
8430	0	20686	
8431	0	21258	
8432	0	21876	
8433	0	22432	
8434	0	22952	
8435	0	23540	
8436	0	24172	
8437	0	24840	
8438	0	25504	
8439	0	26152	
8440	0	26762	
8441	0	27296	
8442	0	27680	
8443	0	28064	
8444	0	28408	
8445	0	28632	
8446	0	28854	
8447	0	29038	
8448	0	29156	
8449	0	29248	
8450	0	29290	
8451	0	29320	
8452	0	29360	
8453	0	29392	
8454	0	29460	
8455	0	29540	
8456	0	29608	
8457	0	29676	
8458	0	29756	
8459	0	29832	
8460	0	29920	
8461	0	30000	
8462	0	30084	
8463	0	30200	
8464	0	30272	
8465	0	30336	
8466	0	30388	
8467	0	30432	
8468	0	30432	
8469	0	30428	
8470	0	30460	
8471	0	30476	
8472	0	30560	
8473	0	30648	
8474	0	30728	
8475	0	30816	
8476	0	30876	
8477	0	30968	
8478	0	31084	
8479	0	31176	
8480	0	31226	
8481	0	31216	
8482	0	31220	
8483	0	31256	
8484	0	31328	
8485	0	31380	
8486	0	31432	
8487	0	31486	
8488	0	31540	
8489	0	31560	
8490	0	31544	
8491	0	31568	
8492	0	31604	
8493	0	31644	
8494	0	31680	
8495	0	31712	
8496	0	31760	
8497	0	31768	
8498	0	31792	
8499	0	31824	
8500	0	31820	
8501	0	31816	
8502	0	31824	
8503	0	31840	
8504	0	31844	
8505	0	31858	
8506	0	31880	
8507	0	31952	
8508	0	32008	
8509	0	32056	
8510	0	32104	
8511	0	32122	
8512	0	32140	
8513	0	32152	
8514	0	32176	
8515	0	32224	
8516	0	32244	
8517	0	32248	
8518	0	32240	
8519	0	32244	
8520	0	32244	
8521	0	32248	
8522	0	32252	
8523	0	32266	
8524	0	32248	
8525	0	32256	
8526	0	32304	
8527	0	32328	
8528	0	32332	
8529	0	32380	
8530	0	32420	
8531	0	32420	
8532	0	32388	
8533	0	32384	
8534	0	32400	
8535	0	32424	
8536	0	32440	
8537	0	32410	
8538	0	32448	
8539	0	32504	
8540	0	32548	
8541	0	32576	
8542	0	32568	
8543	0	32548	
8544	0	32564	
8545	0	32536	
8546	0	32518	
8547	0	32472	
8548	0	32444	
8549	0	32468	
8550	0	32512	
8551	0	32494	
8552	0	32476	
8553	0	32476	
8554	0	32468	
8555	0	32444	
8556	0	32392	
8557	0	32418	
8558	0	32486	
8559	0	32484	
8560	0	32456	
8561	0	32480	
8562	0	32476	
8563	0	32484	
8564	0	32464	
8565	0	32442	
8566	0	32444	
8567	0	32448	
8568	0	32460	
8569	0	32448	
8570	0	32416	
8571	0	32392	
8572	0	32352	
8573	0	32304	
8574	0	32268	
8575	0	32252	
8576	0	32248	
8577	0	32236	
8578	0	32208	
8579	0	32204	
8580	0	32176	
8581	0	32116	
8582	0	32092	
8583	0	32060	
8584	0	32000	
8585	0	31968	
8586	0	31928	
8587	0	31904	
8588	0	31942	
8589	0	31944	
8590	0	31928	
8591	0	31908	
