# OpenSignals Text File Format. Version 1
# {"00:07:80:4B:15:F7": {"position": 0, "device": "biosignalsplux", "device name": "00:07:80:4B:15:F7", "device connection": "BTH00:07:80:4B:15:F7", "sampling rate": 1000, "resolution": [16], "firmware version": 775, "comments": "", "keywords": "", "mode": 0, "sync interval": 2, "date": "2023-4-27", "time": "18:46:57.718", "channels": [1], "sensor": ["ECG"], "label": ["CH1"], "column": ["nSeq", "DI", "CH1"], "special": [{"SpO2": [80, 40, 5, 4, 3, 3]}, {"SpO2": [80, 40, 5, 4, 3, 3]}, {"SpO2": [80, 40, 5, 4, 3, 3]}, {"SpO2": [80, 40, 5, 4, 3, 3]}, {"SpO2": [80, 40, 5, 4, 3, 3]}, {"SpO2": [80, 40, 5, 4, 3, 3]}, {"SpO2": [80, 40, 5, 4, 3, 3]}, {"SpO2": [80, 40, 5, 4, 3, 3]}], "digital IO": [0, 1], "sleeve color": ["green"], "convertedValues": 0}}
# EndOfHeader
0	0	30136	
1	0	30148	
2	0	30148	
3	0	30120	
4	0	30124	
5	0	30128	
6	0	30144	
7	0	30184	
8	0	30224	
9	0	30240	
10	0	30256	
11	0	30272	
12	0	30252	
13	0	30232	
14	0	30244	
15	0	30256	
16	0	30302	
17	0	30324	
18	0	30328	
19	0	30300	
20	0	30300	
21	0	30308	
22	0	30288	
23	0	30288	
24	0	30272	
25	0	30300	
26	0	30312	
27	0	30316	
28	0	30320	
29	0	30304	
30	0	30288	
31	0	30280	
32	0	30264	
33	0	30256	
34	0	30276	
35	0	30276	
36	0	30260	
37	0	30260	
38	0	30304	
39	0	30328	
40	0	30344	
41	0	30344	
42	0	30366	
43	0	30380	
44	0	30392	
45	0	30404	
46	0	30402	
47	0	30400	
48	0	30408	
49	0	30424	
50	0	30428	
51	0	30444	
52	0	30424	
53	0	30424	
54	0	30428	
55	0	30436	
56	0	30440	
57	0	30456	
58	0	30496	
59	0	30528	
60	0	30560	
61	0	30561	
62	0	30562	
63	0	30576	
64	0	30584	
65	0	30592	
66	0	30572	
67	0	30576	
68	0	30584	
69	0	30604	
70	0	30616	
71	0	30640	
72	0	30656	
73	0	30684	
74	0	30706	
75	0	30704	
76	0	30720	
77	0	30752	
78	0	30786	
79	0	30804	
80	0	30840	
81	0	30840	
82	0	30848	
83	0	30836	
84	0	30852	
85	0	30884	
86	0	30896	
87	0	30894	
88	0	30888	
89	0	30916	
90	0	30944	
91	0	30964	
92	0	30976	
93	0	30988	
94	0	31008	
95	0	31052	
96	0	31064	
97	0	31080	
98	0	31112	
99	0	31120	
100	0	31112	
101	0	31108	
102	0	31136	
103	0	31152	
104	0	31164	
105	0	31176	
106	0	31220	
107	0	31256	
108	0	31272	
109	0	31304	
110	0	31322	
111	0	31332	
112	0	31320	
113	0	31324	
114	0	31350	
115	0	31376	
116	0	31392	
117	0	31420	
118	0	31428	
119	0	31464	
120	0	31480	
121	0	31508	
122	0	31502	
123	0	31504	
124	0	31528	
125	0	31548	
126	0	31576	
127	0	31572	
128	0	31584	
129	0	31604	
130	0	31616	
131	0	31624	
132	0	31648	
133	0	31664	
134	0	31664	
135	0	31676	
136	0	31680	
137	0	31712	
138	0	31736	
139	0	31748	
140	0	31724	
141	0	31716	
142	0	31724	
143	0	31712	
144	0	31704	
145	0	31704	
146	0	31722	
147	0	31740	
148	0	31748	
149	0	31752	
150	0	31752	
151	0	31764	
152	0	31808	
153	0	31808	
154	0	31810	
155	0	31812	
156	0	31836	
157	0	31832	
158	0	31818	
159	0	31840	
160	0	31856	
161	0	31872	
162	0	31888	
163	0	31884	
164	0	31920	
165	0	31948	
166	0	31952	
167	0	31960	
168	0	31956	
169	0	31956	
170	0	31976	
171	0	32000	
172	0	32000	
173	0	31996	
174	0	32000	
175	0	31996	
176	0	32004	
177	0	32028	
178	0	32048	
179	0	32074	
180	0	32100	
181	0	32108	
182	0	32084	
183	0	32080	
184	0	32090	
185	0	32104	
186	0	32112	
187	0	32108	
188	0	32096	
189	0	32116	
190	0	32116	
191	0	32084	
192	0	32056	
193	0	32056	
194	0	32108	
195	0	32144	
196	0	32184	
197	0	32212	
198	0	32268	
199	0	32272	
200	0	32304	
201	0	32352	
202	0	32392	
203	0	32412	
204	0	32424	
205	0	32428	
206	0	32440	
207	0	32496	
208	0	32540	
209	0	32620	
210	0	32684	
211	0	32736	
212	0	32798	
213	0	32876	
214	0	32936	
215	0	32984	
216	0	33036	
217	0	33098	
218	0	33140	
219	0	33178	
220	0	33232	
221	0	33320	
222	0	33392	
223	0	33436	
224	0	33492	
225	0	33536	
226	0	33532	
227	0	33484	
228	0	33456	
229	0	33466	
230	0	33540	
231	0	33636	
232	0	33800	
233	0	33928	
234	0	34012	
235	0	34048	
236	0	34080	
237	0	34124	
238	0	34202	
239	0	34298	
240	0	34404	
241	0	34512	
242	0	34600	
243	0	34688	
244	0	34752	
245	0	34828	
246	0	34904	
247	0	34992	
248	0	35072	
249	0	35124	
250	0	35148	
251	0	35204	
252	0	35276	
253	0	35304	
254	0	35296	
255	0	35280	
256	0	35204	
257	0	35112	
258	0	35048	
259	0	35052	
260	0	35032	
261	0	34968	
262	0	34916	
263	0	34828	
264	0	34724	
265	0	34596	
266	0	34456	
267	0	34300	
268	0	34152	
269	0	33984	
270	0	33816	
271	0	33620	
272	0	33452	
273	0	33274	
274	0	33080	
275	0	32900	
276	0	32780	
277	0	32736	
278	0	32720	
279	0	32676	
280	0	32620	
281	0	32568	
282	0	32528	
283	0	32480	
284	0	32440	
285	0	32340	
286	0	32264	
287	0	32204	
288	0	32162	
289	0	32136	
290	0	32096	
291	0	32044	
292	0	31992	
293	0	31952	
294	0	31872	
295	0	31776	
296	0	31672	
297	0	31536	
298	0	31424	
299	0	31356	
300	0	31312	
301	0	31296	
302	0	31284	
303	0	31264	
304	0	31248	
305	0	31274	
306	0	31296	
307	0	31328	
308	0	31360	
309	0	31380	
310	0	31376	
311	0	31376	
312	0	31392	
313	0	31400	
314	0	31424	
315	0	31410	
316	0	31416	
317	0	31424	
318	0	31432	
319	0	31432	
320	0	31436	
321	0	31424	
322	0	31432	
323	0	31424	
324	0	31444	
325	0	31468	
326	0	31480	
327	0	31496	
328	0	31524	
329	0	31520	
330	0	31524	
331	0	31520	
332	0	31508	
333	0	31528	
334	0	31524	
335	0	31534	
336	0	31552	
337	0	31572	
338	0	31600	
339	0	31608	
340	0	31586	
341	0	31580	
342	0	31600	
343	0	31628	
344	0	31640	
345	0	31652	
346	0	31648	
347	0	31648	
348	0	31648	
349	0	31672	
350	0	31684	
351	0	31706	
352	0	31744	
353	0	31804	
354	0	31852	
355	0	31880	
356	0	31888	
357	0	31864	
358	0	31788	
359	0	31612	
360	0	31372	
361	0	31048	
362	0	30664	
363	0	30256	
364	0	29896	
365	0	29656	
366	0	29552	
367	0	29648	
368	0	29940	
369	0	30344	
370	0	30736	
371	0	31148	
372	0	31592	
373	0	32120	
374	0	32704	
375	0	33168	
376	0	33496	
377	0	33824	
378	0	34160	
379	0	34464	
380	0	34932	
381	0	35696	
382	0	36648	
383	0	37792	
384	0	39304	
385	0	41060	
386	0	42936	
387	0	45072	
388	0	47612	
389	0	50432	
390	0	53356	
391	0	55688	
392	0	57292	
393	0	58492	
394	0	59656	
395	0	60720	
396	0	61556	
397	0	62092	
398	0	62220	
399	0	61680	
400	0	60532	
401	0	59064	
402	0	57360	
403	0	55192	
404	0	52704	
405	0	50272	
406	0	47938	
407	0	45584	
408	0	43176	
409	0	40588	
410	0	37812	
411	0	35096	
412	0	32600	
413	0	30289	
414	0	28080	
415	0	25892	
416	0	24000	
417	0	22572	
418	0	21508	
419	0	20672	
420	0	20076	
421	0	19648	
422	0	19236	
423	0	18760	
424	0	18260	
425	0	17808	
426	0	17428	
427	0	17160	
428	0	17064	
429	0	17022	
430	0	17200	
431	0	17528	
432	0	18048	
433	0	18760	
434	0	19604	
435	0	20500	
436	0	21402	
437	0	22274	
438	0	23236	
439	0	24316	
440	0	25432	
441	0	26460	
442	0	27312	
443	0	28010	
444	0	28592	
445	0	29140	
446	0	29608	
447	0	30028	
448	0	30344	
449	0	30604	
450	0	30872	
451	0	31128	
452	0	31336	
453	0	31512	
454	0	31632	
455	0	31744	
456	0	31832	
457	0	31928	
458	0	31996	
459	0	32044	
460	0	32112	
461	0	32176	
462	0	32240	
463	0	32290	
464	0	32352	
465	0	32396	
466	0	32472	
467	0	32544	
468	0	32604	
469	0	32672	
470	0	32760	
471	0	32824	
472	0	32876	
473	0	32916	
474	0	32976	
475	0	33018	
476	0	33092	
477	0	33160	
478	0	33256	
479	0	33312	
480	0	33376	
481	0	33406	
482	0	33460	
483	0	33516	
484	0	33584	
485	0	33628	
486	0	33660	
487	0	33720	
488	0	33760	
489	0	33808	
490	0	33856	
491	0	33896	
492	0	33920	
493	0	33968	
494	0	34024	
495	0	34084	
496	0	34132	
497	0	34148	
498	0	34144	
499	0	34168	
500	0	34160	
501	0	34204	
502	0	34220	
503	0	34240	
504	0	34272	
505	0	34312	
506	0	34328	
507	0	34344	
508	0	34352	
509	0	34376	
510	0	34416	
511	0	34448	
512	0	34472	
513	0	34456	
514	0	34452	
515	0	34488	
516	0	34538	
517	0	34552	
518	0	34584	
519	0	34608	
520	0	34593	
521	0	34604	
522	0	34644	
523	0	34656	
524	0	34664	
525	0	34664	
526	0	34652	
527	0	34696	
528	0	34740	
529	0	34784	
530	0	34824	
531	0	34856	
532	0	34892	
533	0	34920	
534	0	34948	
535	0	34984	
536	0	35000	
537	0	35008	
538	0	35036	
539	0	35040	
540	0	35076	
541	0	35112	
542	0	35152	
543	0	35180	
544	0	35188	
545	0	35200	
546	0	35248	
547	0	35296	
548	0	35308	
549	0	35352	
550	0	35392	
551	0	35412	
552	0	35432	
553	0	35480	
554	0	35508	
555	0	35572	
556	0	35600	
557	0	35656	
558	0	35708	
559	0	35740	
560	0	35780	
561	0	35840	
562	0	35892	
563	0	35936	
564	0	35968	
565	0	36004	
566	0	36044	
567	0	36096	
568	0	36136	
569	0	36176	
570	0	36232	
571	0	36288	
572	0	36344	
573	0	36416	
574	0	36452	
575	0	36512	
576	0	36576	
577	0	36660	
578	0	36752	
579	0	36800	
580	0	36856	
581	0	36904	
582	0	36928	
583	0	36972	
584	0	37024	
585	0	37088	
586	0	37152	
587	0	37184	
588	0	37252	
589	0	37312	
590	0	37376	
591	0	37428	
592	0	37492	
593	0	37552	
594	0	37622	
595	0	37696	
596	0	37752	
597	0	37824	
598	0	37856	
599	0	37916	
600	0	37944	
601	0	37992	
602	0	38008	
603	0	38048	
604	0	38092	
605	0	38112	
606	0	38136	
607	0	38156	
608	0	38216	
609	0	38276	
610	0	38336	
611	0	38356	
612	0	38384	
613	0	38400	
614	0	38400	
615	0	38388	
616	0	38376	
617	0	38392	
618	0	38424	
619	0	38424	
620	0	38434	
621	0	38436	
622	0	38456	
623	0	38460	
624	0	38480	
625	0	38468	
626	0	38450	
627	0	38436	
628	0	38432	
629	0	38450	
630	0	38462	
631	0	38440	
632	0	38416	
633	0	38384	
634	0	38384	
635	0	38396	
636	0	38404	
637	0	38404	
638	0	38392	
639	0	38344	
640	0	38296	
641	0	38260	
642	0	38222	
643	0	38192	
644	0	38144	
645	0	38080	
646	0	38016	
647	0	37952	
648	0	37832	
649	0	37736	
650	0	37652	
651	0	37584	
652	0	37520	
653	0	37408	
654	0	37296	
655	0	37184	
656	0	37056	
657	0	36942	
658	0	36828	
659	0	36720	
660	0	36576	
661	0	36416	
662	0	36272	
663	0	36128	
664	0	35988	
665	0	35828	
666	0	35656	
667	0	35464	
668	0	35284	
669	0	35104	
670	0	34944	
671	0	34784	
672	0	34584	
673	0	34408	
674	0	34248	
675	0	34092	
676	0	33912	
677	0	33740	
678	0	33584	
679	0	33406	
680	0	33232	
681	0	33064	
682	0	32874	
683	0	32724	
684	0	32544	
685	0	32369	
686	0	32212	
687	0	32040	
688	0	31892	
689	0	31732	
690	0	31562	
691	0	31392	
692	0	31236	
693	0	31076	
694	0	30928	
695	0	30808	
696	0	30704	
697	0	30592	
698	0	30476	
699	0	30344	
700	0	30216	
701	0	30100	
702	0	30000	
703	0	29872	
704	0	29784	
705	0	29688	
706	0	29600	
707	0	29504	
708	0	29428	
709	0	29388	
710	0	29340	
711	0	29272	
712	0	29216	
713	0	29160	
714	0	29096	
715	0	29064	
716	0	29008	
717	0	28976	
718	0	28960	
719	0	28940	
720	0	28940	
721	0	28920	
722	0	28924	
723	0	28924	
724	0	28894	
725	0	28884	
726	0	28872	
727	0	28852	
728	0	28872	
729	0	28872	
730	0	28872	
731	0	28876	
732	0	28904	
733	0	28906	
734	0	28906	
735	0	28908	
736	0	28928	
737	0	28964	
738	0	28984	
739	0	28988	
740	0	28996	
741	0	29008	
742	0	29020	
743	0	29052	
744	0	29060	
745	0	29060	
746	0	29104	
747	0	29128	
748	0	29152	
749	0	29164	
750	0	29192	
751	0	29218	
752	0	29248	
753	0	29286	
754	0	29304	
755	0	29328	
756	0	29316	
757	0	29320	
758	0	29346	
759	0	29380	
760	0	29404	
761	0	29424	
762	0	29460	
763	0	29492	
764	0	29534	
765	0	29544	
766	0	29576	
767	0	29580	
768	0	29608	
769	0	29632	
770	0	29612	
771	0	29592	
772	0	29588	
773	0	29600	
774	0	29656	
775	0	29712	
776	0	29764	
777	0	29780	
778	0	29788	
779	0	29800	
780	0	29808	
781	0	29832	
782	0	29852	
783	0	29868	
784	0	29872	
785	0	29868	
786	0	29860	
787	0	29888	
788	0	29908	
789	0	29916	
790	0	29920	
791	0	29936	
792	0	29932	
793	0	29912	
794	0	29906	
795	0	29912	
796	0	29932	
797	0	29976	
798	0	30000	
799	0	30020	
800	0	30036	
801	0	30048	
802	0	30060	
803	0	30076	
804	0	30092	
805	0	30096	
806	0	30132	
807	0	30144	
808	0	30114	
809	0	30112	
810	0	30144	
811	0	30136	
812	0	30130	
813	0	30144	
814	0	30168	
815	0	30196	
816	0	30224	
817	0	30248	
818	0	30252	
819	0	30248	
820	0	30236	
821	0	30228	
822	0	30268	
823	0	30272	
824	0	30268	
825	0	30264	
826	0	30268	
827	0	30266	
828	0	30272	
829	0	30288	
830	0	30286	
831	0	30290	
832	0	30318	
833	0	30336	
834	0	30344	
835	0	30352	
836	0	30364	
837	0	30356	
838	0	30368	
839	0	30376	
840	0	30400	
841	0	30432	
842	0	30420	
843	0	30412	
844	0	30400	
845	0	30392	
846	0	30372	
847	0	30366	
848	0	30376	
849	0	30380	
850	0	30396	
851	0	30400	
852	0	30412	
853	0	30420	
854	0	30432	
855	0	30460	
856	0	30484	
857	0	30480	
858	0	30472	
859	0	30472	
860	0	30492	
861	0	30512	
862	0	30522	
863	0	30520	
864	0	30528	
865	0	30544	
866	0	30560	
867	0	30592	
868	0	30608	
869	0	30656	
870	0	30680	
871	0	30688	
872	0	30676	
873	0	30690	
874	0	30700	
875	0	30704	
876	0	30720	
877	0	30728	
878	0	30748	
879	0	30762	
880	0	30760	
881	0	30768	
882	0	30776	
883	0	30808	
884	0	30828	
885	0	30860	
886	0	30848	
887	0	30864	
888	0	30868	
889	0	30878	
890	0	30900	
891	0	30912	
892	0	30904	
893	0	30926	
894	0	30946	
895	0	30940	
896	0	30956	
897	0	30968	
898	0	30980	
899	0	30972	
900	0	31004	
901	0	31020	
902	0	31048	
903	0	31072	
904	0	31084	
905	0	31092	
906	0	31108	
907	0	31140	
908	0	31180	
909	0	31180	
910	0	31184	
911	0	31180	
912	0	31200	
913	0	31232	
914	0	31258	
915	0	31268	
916	0	31296	
917	0	31300	
918	0	31330	
919	0	31364	
920	0	31356	
921	0	31340	
922	0	31364	
923	0	31388	
924	0	31420	
925	0	31424	
926	0	31436	
927	0	31448	
928	0	31464	
929	0	31500	
930	0	31514	
931	0	31524	
932	0	31528	
933	0	31536	
934	0	31566	
935	0	31576	
936	0	31600	
937	0	31620	
938	0	31632	
939	0	31648	
940	0	31636	
941	0	31636	
942	0	31640	
943	0	31648	
944	0	31664	
945	0	31680	
946	0	31696	
947	0	31712	
948	0	31728	
949	0	31744	
950	0	31756	
951	0	31776	
952	0	31776	
953	0	31778	
954	0	31800	
955	0	31816	
956	0	31808	
957	0	31828	
958	0	31824	
959	0	31820	
960	0	31840	
961	0	31856	
962	0	31868	
963	0	31888	
964	0	31888	
965	0	31916	
966	0	31920	
967	0	31924	
968	0	31926	
969	0	31944	
970	0	31948	
971	0	31962	
972	0	31946	
973	0	31964	
974	0	31988	
975	0	32001	
976	0	32028	
977	0	32048	
978	0	32032	
979	0	32052	
980	0	32048	
981	0	32040	
982	0	32024	
983	0	32016	
984	0	32026	
985	0	32040	
986	0	32088	
987	0	32140	
988	0	32132	
989	0	32128	
990	0	32108	
991	0	32120	
992	0	32120	
993	0	32112	
994	0	32128	
995	0	32148	
996	0	32156	
997	0	32152	
998	0	32124	
999	0	32136	
1000	0	32172	
1001	0	32188	
1002	0	32212	
1003	0	32224	
1004	0	32228	
1005	0	32244	
1006	0	32232	
1007	0	32244	
1008	0	32272	
1009	0	32284	
1010	0	32304	
1011	0	32296	
1012	0	32280	
1013	0	32288	
1014	0	32304	
1015	0	32324	
1016	0	32352	
1017	0	32372	
1018	0	32372	
1019	0	32360	
1020	0	32384	
1021	0	32392	
1022	0	32410	
1023	0	32428	
1024	0	32432	
1025	0	32448	
1026	0	32448	
1027	0	32452	
1028	0	32432	
1029	0	32424	
1030	0	32400	
1031	0	32420	
1032	0	32432	
1033	0	32468	
1034	0	32504	
1035	0	32544	
1036	0	32604	
1037	0	32634	
1038	0	32644	
1039	0	32656	
1040	0	32680	
1041	0	32696	
1042	0	32740	
1043	0	32802	
1044	0	32868	
1045	0	32936	
1046	0	33000	
1047	0	33060	
1048	0	33140	
1049	0	33196	
1050	0	33258	
1051	0	33312	
1052	0	33356	
1053	0	33404	
1054	0	33464	
1055	0	33528	
1056	0	33616	
1057	0	33708	
1058	0	33792	
1059	0	33864	
1060	0	33900	
1061	0	33912	
1062	0	33892	
1063	0	33856	
1064	0	33820	
1065	0	33816	
1066	0	33880	
1067	0	33968	
1068	0	34068	
1069	0	34176	
1070	0	34264	
1071	0	34312	
1072	0	34368	
1073	0	34436	
1074	0	34524	
1075	0	34616	
1076	0	34724	
1077	0	34836	
1078	0	34920	
1079	0	34996	
1080	0	35040	
1081	0	35104	
1082	0	35156	
1083	0	35268	
1084	0	35344	
1085	0	35384	
1086	0	35408	
1087	0	35436	
1088	0	35481	
1089	0	35536	
1090	0	35562	
1091	0	35532	
1092	0	35440	
1093	0	35340	
1094	0	35284	
1095	0	35266	
1096	0	35232	
1097	0	35200	
1098	0	35136	
1099	0	35040	
1100	0	34944	
1101	0	34812	
1102	0	34664	
1103	0	34504	
1104	0	34368	
1105	0	34200	
1106	0	34016	
1107	0	33860	
1108	0	33728	
1109	0	33572	
1110	0	33360	
1111	0	33150	
1112	0	33028	
1113	0	32956	
1114	0	32880	
1115	0	32804	
1116	0	32746	
1117	0	32708	
1118	0	32668	
1119	0	32618	
1120	0	32554	
1121	0	32480	
1122	0	32404	
1123	0	32360	
1124	0	32320	
1125	0	32260	
1126	0	32212	
1127	0	32144	
1128	0	32104	
1129	0	32058	
1130	0	31972	
1131	0	31896	
1132	0	31792	
1133	0	31676	
1134	0	31592	
1135	0	31500	
1136	0	31452	
1137	0	31428	
1138	0	31450	
1139	0	31468	
1140	0	31456	
1141	0	31442	
1142	0	31432	
1143	0	31456	
1144	0	31476	
1145	0	31500	
1146	0	31484	
1147	0	31496	
1148	0	31514	
1149	0	31520	
1150	0	31540	
1151	0	31558	
1152	0	31548	
1153	0	31520	
1154	0	31512	
1155	0	31516	
1156	0	31536	
1157	0	31544	
1158	0	31548	
1159	0	31548	
1160	0	31552	
1161	0	31576	
1162	0	31596	
1163	0	31636	
1164	0	31648	
1165	0	31652	
1166	0	31648	
1167	0	31648	
1168	0	31648	
1169	0	31676	
1170	0	31696	
1171	0	31724	
1172	0	31732	
1173	0	31740	
1174	0	31760	
1175	0	31796	
1176	0	31820	
1177	0	31856	
1178	0	31848	
1179	0	31868	
1180	0	31898	
1181	0	31890	
1182	0	31896	
1183	0	31920	
1184	0	31932	
1185	0	31940	
1186	0	31974	
1187	0	31992	
1188	0	32034	
1189	0	32052	
1190	0	32080	
1191	0	32096	
1192	0	32128	
1193	0	32152	
1194	0	32110	
1195	0	31958	
1196	0	31732	
1197	0	31424	
1198	0	31076	
1199	0	30664	
1200	0	30276	
1201	0	29968	
1202	0	29832	
1203	0	29820	
1204	0	30042	
1205	0	30428	
1206	0	30850	
1207	0	31232	
1208	0	31604	
1209	0	32084	
1210	0	32636	
1211	0	33108	
1212	0	33428	
1213	0	33700	
1214	0	34030	
1215	0	34324	
1216	0	34732	
1217	0	35384	
1218	0	36296	
1219	0	37348	
1220	0	38704	
1221	0	40400	
1222	0	42248	
1223	0	44284	
1224	0	46764	
1225	0	49524	
1226	0	52524	
1227	0	55096	
1228	0	56928	
1229	0	58264	
1230	0	59512	
1231	0	60680	
1232	0	61620	
1233	0	62296	
1234	0	62588	
1235	0	62256	
1236	0	61256	
1237	0	59824	
1238	0	58184	
1239	0	56160	
1240	0	53744	
1241	0	51216	
1242	0	48872	
1243	0	46532	
1244	0	44120	
1245	0	41624	
1246	0	38904	
1247	0	36144	
1248	0	33556	
1249	0	31192	
1250	0	28980	
1251	0	26776	
1252	0	24760	
1253	0	23198	
1254	0	22008	
1255	0	21102	
1256	0	20384	
1257	0	19926	
1258	0	19488	
1259	0	19014	
1260	0	18514	
1261	0	18042	
1262	0	17656	
1263	0	17308	
1264	0	17136	
1265	0	17065	
1266	0	17124	
1267	0	17404	
1268	0	17828	
1269	0	18478	
1270	0	19318	
1271	0	20196	
1272	0	21084	
1273	0	21966	
1274	0	22852	
1275	0	23880	
1276	0	24964	
1277	0	26042	
1278	0	26956	
1279	0	27736	
1280	0	28392	
1281	0	28956	
1282	0	29448	
1283	0	29892	
1284	0	30264	
1285	0	30528	
1286	0	30796	
1287	0	31040	
1288	0	31288	
1289	0	31488	
1290	0	31644	
1291	0	31762	
1292	0	31864	
1293	0	31936	
1294	0	32000	
1295	0	32060	
1296	0	32128	
1297	0	32216	
1298	0	32306	
1299	0	32384	
1300	0	32452	
1301	0	32514	
1302	0	32578	
1303	0	32640	
1304	0	32712	
1305	0	32802	
1306	0	32864	
1307	0	32948	
1308	0	33028	
1309	0	33098	
1310	0	33176	
1311	0	33242	
1312	0	33296	
1313	0	33332	
1314	0	33356	
1315	0	33392	
1316	0	33448	
1317	0	33504	
1318	0	33552	
1319	0	33592	
1320	0	33645	
1321	0	33680	
1322	0	33736	
1323	0	33796	
1324	0	33836	
1325	0	33882	
1326	0	33938	
1327	0	33984	
1328	0	33992	
1329	0	34032	
1330	0	34032	
1331	0	34052	
1332	0	34096	
1333	0	34128	
1334	0	34148	
1335	0	34176	
1336	0	34196	
1337	0	34224	
1338	0	34248	
1339	0	34288	
1340	0	34320	
1341	0	34340	
1342	0	34352	
1343	0	34388	
1344	0	34408	
1345	0	34416	
1346	0	34444	
1347	0	34488	
1348	0	34532	
1349	0	34560	
1350	0	34570	
1351	0	34592	
1352	0	34612	
1353	0	34608	
1354	0	34620	
1355	0	34616	
1356	0	34628	
1357	0	34660	
1358	0	34676	
1359	0	34700	
1360	0	34720	
1361	0	34748	
1362	0	34754	
1363	0	34776	
1364	0	34808	
1365	0	34852	
1366	0	34868	
1367	0	34900	
1368	0	34924	
1369	0	34952	
1370	0	34976	
1371	0	35004	
1372	0	35036	
1373	0	35048	
1374	0	35048	
1375	0	35056	
1376	0	35088	
1377	0	35120	
1378	0	35146	
1379	0	35176	
1380	0	35228	
1381	0	35252	
1382	0	35284	
1383	0	35312	
1384	0	35346	
1385	0	35384	
1386	0	35416	
1387	0	35432	
1388	0	35480	
1389	0	35528	
1390	0	35556	
1391	0	35580	
1392	0	35632	
1393	0	35648	
1394	0	35696	
1395	0	35732	
1396	0	35792	
1397	0	35860	
1398	0	35924	
1399	0	35960	
1400	0	35988	
1401	0	36020	
1402	0	36060	
1403	0	36110	
1404	0	36176	
1405	0	36232	
1406	0	36284	
1407	0	36332	
1408	0	36380	
1409	0	36440	
1410	0	36488	
1411	0	36540	
1412	0	36596	
1413	0	36640	
1414	0	36692	
1415	0	36736	
1416	0	36780	
1417	0	36832	
1418	0	36884	
1419	0	36948	
1420	0	36980	
1421	0	37048	
1422	0	37132	
1423	0	37192	
1424	0	37262	
1425	0	37324	
1426	0	37392	
1427	0	37432	
1428	0	37478	
1429	0	37560	
1430	0	37608	
1431	0	37652	
1432	0	37684	
1433	0	37712	
1434	0	37740	
1435	0	37776	
1436	0	37818	
1437	0	37864	
1438	0	37896	
1439	0	37948	
1440	0	38024	
1441	0	38056	
1442	0	38092	
1443	0	38116	
1444	0	38116	
1445	0	38136	
1446	0	38164	
1447	0	38196	
1448	0	38208	
1449	0	38240	
1450	0	38276	
1451	0	38296	
1452	0	38308	
1453	0	38316	
1454	0	38340	
1455	0	38344	
1456	0	38364	
1457	0	38360	
1458	0	38364	
1459	0	38384	
1460	0	38388	
1461	0	38400	
1462	0	38392	
1463	0	38384	
1464	0	38404	
1465	0	38408	
1466	0	38396	
1467	0	38368	
1468	0	38320	
1469	0	38296	
1470	0	38284	
1471	0	38272	
1472	0	38260	
1473	0	38228	
1474	0	38208	
1475	0	38228	
1476	0	38214	
1477	0	38178	
1478	0	38160	
1479	0	38132	
1480	0	38084	
1481	0	38028	
1482	0	37960	
1483	0	37912	
1484	0	37844	
1485	0	37780	
1486	0	37724	
1487	0	37644	
1488	0	37552	
1489	0	37480	
1490	0	37384	
1491	0	37292	
1492	0	37208	
1493	0	37088	
1494	0	36936	
1495	0	36812	
1496	0	36676	
1497	0	36552	
1498	0	36420	
1499	0	36288	
1500	0	36156	
1501	0	36020	
1502	0	35864	
1503	0	35688	
1504	0	35512	
1505	0	35360	
1506	0	35178	
1507	0	35024	
1508	0	34848	
1509	0	34680	
1510	0	34496	
1511	0	34312	
1512	0	34136	
1513	0	33952	
1514	0	33792	
1515	0	33640	
1516	0	33472	
1517	0	33276	
1518	0	33100	
1519	0	32944	
1520	0	32792	
1521	0	32654	
1522	0	32496	
1523	0	32344	
1524	0	32172	
1525	0	32002	
1526	0	31868	
1527	0	31744	
1528	0	31576	
1529	0	31392	
1530	0	31248	
1531	0	31096	
1532	0	30952	
1533	0	30836	
1534	0	30696	
1535	0	30598	
1536	0	30492	
1537	0	30372	
1538	0	30280	
1539	0	30180	
1540	0	30064	
1541	0	29952	
1542	0	29844	
1543	0	29784	
1544	0	29696	
1545	0	29628	
1546	0	29552	
1547	0	29496	
1548	0	29432	
1549	0	29364	
1550	0	29336	
1551	0	29280	
1552	0	29224	
1553	0	29164	
1554	0	29108	
1555	0	29088	
1556	0	29064	
1557	0	29048	
1558	0	29032	
1559	0	29026	
1560	0	29000	
1561	0	28996	
1562	0	28992	
1563	0	28984	
1564	0	28972	
1565	0	28956	
1566	0	28954	
1567	0	28938	
1568	0	28972	
1569	0	28992	
1570	0	28988	
1571	0	29000	
1572	0	28996	
1573	0	28976	
1574	0	29000	
1575	0	29016	
1576	0	29032	
1577	0	29072	
1578	0	29088	
1579	0	29100	
1580	0	29092	
1581	0	29076	
1582	0	29082	
1583	0	29120	
1584	0	29156	
1585	0	29208	
1586	0	29216	
1587	0	29208	
1588	0	29220	
1589	0	29232	
1590	0	29264	
1591	0	29288	
1592	0	29338	
1593	0	29358	
1594	0	29368	
1595	0	29424	
1596	0	29452	
1597	0	29424	
1598	0	29412	
1599	0	29428	
1600	0	29460	
1601	0	29464	
1602	0	29472	
1603	0	29490	
1604	0	29512	
1605	0	29560	
1606	0	29608	
1607	0	29656	
1608	0	29664	
1609	0	29680	
1610	0	29712	
1611	0	29720	
1612	0	29698	
1613	0	29704	
1614	0	29740	
1615	0	29760	
1616	0	29784	
1617	0	29828	
1618	0	29860	
1619	0	29868	
1620	0	29872	
1621	0	29882	
1622	0	29904	
1623	0	29920	
1624	0	29932	
1625	0	29932	
1626	0	29896	
1627	0	29912	
1628	0	29944	
1629	0	29960	
1630	0	29980	
1631	0	29996	
1632	0	29984	
1633	0	30004	
1634	0	30028	
1635	0	30048	
1636	0	30024	
1637	0	30016	
1638	0	30028	
1639	0	30048	
1640	0	30072	
1641	0	30080	
1642	0	30070	
1643	0	30088	
1644	0	30084	
1645	0	30104	
1646	0	30120	
1647	0	30124	
1648	0	30106	
1649	0	30104	
1650	0	30112	
1651	0	30108	
1652	0	30112	
1653	0	30120	
1654	0	30112	
1655	0	30108	
1656	0	30124	
1657	0	30124	
1658	0	30144	
1659	0	30140	
1660	0	30144	
1661	0	30132	
1662	0	30132	
1663	0	30148	
1664	0	30148	
1665	0	30136	
1666	0	30112	
1667	0	30112	
1668	0	30112	
1669	0	30124	
1670	0	30116	
1671	0	30102	
1672	0	30108	
1673	0	30116	
1674	0	30148	
1675	0	30168	
1676	0	30180	
1677	0	30204	
1678	0	30212	
1679	0	30208	
1680	0	30208	
1681	0	30212	
1682	0	30236	
1683	0	30268	
1684	0	30304	
1685	0	30312	
1686	0	30284	
1687	0	30260	
1688	0	30256	
1689	0	30300	
1690	0	30306	
1691	0	30320	
1692	0	30336	
1693	0	30360	
1694	0	30356	
1695	0	30344	
1696	0	30316	
1697	0	30320	
1698	0	30338	
1699	0	30360	
1700	0	30348	
1701	0	30336	
1702	0	30366	
1703	0	30384	
1704	0	30408	
1705	0	30432	
1706	0	30452	
1707	0	30492	
1708	0	30516	
1709	0	30508	
1710	0	30496	
1711	0	30512	
1712	0	30536	
1713	0	30544	
1714	0	30572	
1715	0	30608	
1716	0	30648	
1717	0	30660	
1718	0	30668	
1719	0	30680	
1720	0	30688	
1721	0	30704	
1722	0	30728	
1723	0	30772	
1724	0	30812	
1725	0	30816	
1726	0	30798	
1727	0	30780	
1728	0	30784	
1729	0	30806	
1730	0	30828	
1731	0	30820	
1732	0	30812	
1733	0	30792	
1734	0	30796	
1735	0	30804	
1736	0	30820	
1737	0	30848	
1738	0	30876	
1739	0	30896	
1740	0	30908	
1741	0	30916	
1742	0	30928	
1743	0	30952	
1744	0	30986	
1745	0	31000	
1746	0	31032	
1747	0	31038	
1748	0	31052	
1749	0	31080	
1750	0	31088	
1751	0	31100	
1752	0	31108	
1753	0	31094	
1754	0	31106	
1755	0	31104	
1756	0	31144	
1757	0	31164	
1758	0	31172	
1759	0	31176	
1760	0	31184	
1761	0	31200	
1762	0	31208	
1763	0	31208	
1764	0	31212	
1765	0	31192	
1766	0	31204	
1767	0	31238	
1768	0	31248	
1769	0	31264	
1770	0	31280	
1771	0	31304	
1772	0	31320	
1773	0	31312	
1774	0	31288	
1775	0	31272	
1776	0	31300	
1777	0	31292	
1778	0	31300	
1779	0	31316	
1780	0	31336	
1781	0	31372	
1782	0	31400	
1783	0	31424	
1784	0	31436	
1785	0	31448	
1786	0	31464	
1787	0	31484	
1788	0	31492	
1789	0	31484	
1790	0	31504	
1791	0	31504	
1792	0	31512	
1793	0	31500	
1794	0	31520	
1795	0	31544	
1796	0	31580	
1797	0	31568	
1798	0	31584	
1799	0	31588	
1800	0	31584	
1801	0	31576	
1802	0	31600	
1803	0	31594	
1804	0	31584	
1805	0	31580	
1806	0	31568	
1807	0	31584	
1808	0	31596	
1809	0	31604	
1810	0	31618	
1811	0	31644	
1812	0	31660	
1813	0	31664	
1814	0	31668	
1815	0	31680	
1816	0	31712	
1817	0	31732	
1818	0	31732	
1819	0	31746	
1820	0	31768	
1821	0	31796	
1822	0	31812	
1823	0	31808	
1824	0	31820	
1825	0	31812	
1826	0	31800	
1827	0	31816	
1828	0	31844	
1829	0	31868	
1830	0	31892	
1831	0	31888	
1832	0	31880	
1833	0	31892	
1834	0	31904	
1835	0	31920	
1836	0	31952	
1837	0	31968	
1838	0	31988	
1839	0	32008	
1840	0	32008	
1841	0	32024	
1842	0	32020	
1843	0	32012	
1844	0	32046	
1845	0	32054	
1846	0	32058	
1847	0	32016	
1848	0	32000	
1849	0	32028	
1850	0	32040	
1851	0	32036	
1852	0	32032	
1853	0	32020	
1854	0	32016	
1855	0	32040	
1856	0	32064	
1857	0	32096	
1858	0	32152	
1859	0	32168	
1860	0	32172	
1861	0	32176	
1862	0	32180	
1863	0	32174	
1864	0	32176	
1865	0	32184	
1866	0	32188	
1867	0	32212	
1868	0	32180	
1869	0	32144	
1870	0	32144	
1871	0	32174	
1872	0	32200	
1873	0	32208	
1874	0	32224	
1875	0	32276	
1876	0	32344	
1877	0	32380	
1878	0	32428	
1879	0	32448	
1880	0	32472	
1881	0	32512	
1882	0	32520	
1883	0	32536	
1884	0	32584	
1885	0	32636	
1886	0	32662	
1887	0	32700	
1888	0	32772	
1889	0	32832	
1890	0	32876	
1891	0	32944	
1892	0	32986	
1893	0	33000	
1894	0	33040	
1895	0	33084	
1896	0	33152	
1897	0	33248	
1898	0	33332	
1899	0	33408	
1900	0	33476	
1901	0	33544	
1902	0	33612	
1903	0	33616	
1904	0	33568	
1905	0	33504	
1906	0	33528	
1907	0	33548	
1908	0	33600	
1909	0	33708	
1910	0	33824	
1911	0	33916	
1912	0	34012	
1913	0	34044	
1914	0	34092	
1915	0	34184	
1916	0	34276	
1917	0	34368	
1918	0	34456	
1919	0	34552	
1920	0	34624	
1921	0	34696	
1922	0	34784	
1923	0	34860	
1924	0	34944	
1925	0	35012	
1926	0	35048	
1927	0	35064	
1928	0	35072	
1929	0	35120	
1930	0	35200	
1931	0	35240	
1932	0	35220	
1933	0	35176	
1934	0	35092	
1935	0	35044	
1936	0	35020	
1937	0	35000	
1938	0	34932	
1939	0	34816	
1940	0	34688	
1941	0	34604	
1942	0	34516	
1943	0	34368	
1944	0	34224	
1945	0	34064	
1946	0	33924	
1947	0	33758	
1948	0	33624	
1949	0	33504	
1950	0	33360	
1951	0	33192	
1952	0	33012	
1953	0	32874	
1954	0	32812	
1955	0	32776	
1956	0	32736	
1957	0	32680	
1958	0	32620	
1959	0	32560	
1960	0	32508	
1961	0	32448	
1962	0	32410	
1963	0	32336	
1964	0	32298	
1965	0	32276	
1966	0	32228	
1967	0	32208	
1968	0	32160	
1969	0	32104	
1970	0	32040	
1971	0	31984	
1972	0	31872	
1973	0	31788	
1974	0	31656	
1975	0	31544	
1976	0	31452	
1977	0	31400	
1978	0	31360	
1979	0	31296	
1980	0	31220	
1981	0	31200	
1982	0	31208	
1983	0	31256	
1984	0	31240	
1985	0	31246	
1986	0	31250	
1987	0	31256	
1988	0	31272	
1989	0	31304	
1990	0	31334	
1991	0	31328	
1992	0	31320	
1993	0	31328	
1994	0	31340	
1995	0	31356	
1996	0	31368	
1997	0	31380	
1998	0	31388	
1999	0	31428	
2000	0	31452	
2001	0	31466	
2002	0	31456	
2003	0	31448	
2004	0	31452	
2005	0	31452	
2006	0	31436	
2007	0	31456	
2008	0	31476	
2009	0	31488	
2010	0	31524	
2011	0	31536	
2012	0	31552	
2013	0	31552	
2014	0	31536	
2015	0	31552	
2016	0	31540	
2017	0	31520	
2018	0	31496	
2019	0	31516	
2020	0	31516	
2021	0	31536	
2022	0	31556	
2023	0	31618	
2024	0	31672	
2025	0	31702	
2026	0	31716	
2027	0	31744	
2028	0	31754	
2029	0	31736	
2030	0	31712	
2031	0	31700	
2032	0	31680	
2033	0	31692	
2034	0	31700	
2035	0	31668	
2036	0	31532	
2037	0	31316	
2038	0	30996	
2039	0	30600	
2040	0	30212	
2041	0	29848	
2042	0	29598	
2043	0	29476	
2044	0	29548	
2045	0	29780	
2046	0	30164	
2047	0	30568	
2048	0	30948	
2049	0	31348	
2050	0	31808	
2051	0	32364	
2052	0	32816	
2053	0	33122	
2054	0	33408	
2055	0	33688	
2056	0	33890	
2057	0	34240	
2058	0	34904	
2059	0	35816	
2060	0	36932	
2061	0	38340	
2062	0	40060	
2063	0	41916	
2064	0	44032	
2065	0	46552	
2066	0	49356	
2067	0	52356	
2068	0	54920	
2069	0	56736	
2070	0	58156	
2071	0	59468	
2072	0	60672	
2073	0	61592	
2074	0	62240	
2075	0	62428	
2076	0	61976	
2077	0	60920	
2078	0	59460	
2079	0	57760	
2080	0	55748	
2081	0	53320	
2082	0	50796	
2083	0	48464	
2084	0	46096	
2085	0	43640	
2086	0	41144	
2087	0	38432	
2088	0	35736	
2089	0	33144	
2090	0	30736	
2091	0	28556	
2092	0	26368	
2093	0	24316	
2094	0	22728	
2095	0	21520	
2096	0	20556	
2097	0	19810	
2098	0	19312	
2099	0	18856	
2100	0	18424	
2101	0	17968	
2102	0	17548	
2103	0	17188	
2104	0	16904	
2105	0	16764	
2106	0	16736	
2107	0	16818	
2108	0	17056	
2109	0	17472	
2110	0	18064	
2111	0	18842	
2112	0	19682	
2113	0	20536	
2114	0	21380	
2115	0	22192	
2116	0	23128	
2117	0	24144	
2118	0	25216	
2119	0	26208	
2120	0	27024	
2121	0	27712	
2122	0	28300	
2123	0	28790	
2124	0	29228	
2125	0	29636	
2126	0	29964	
2127	0	30228	
2128	0	30520	
2129	0	30816	
2130	0	31048	
2131	0	31226	
2132	0	31368	
2133	0	31480	
2134	0	31552	
2135	0	31628	
2136	0	31672	
2137	0	31740	
2138	0	31810	
2139	0	31900	
2140	0	31992	
2141	0	32064	
2142	0	32132	
2143	0	32184	
2144	0	32220	
2145	0	32264	
2146	0	32324	
2147	0	32416	
2148	0	32512	
2149	0	32568	
2150	0	32602	
2151	0	32652	
2152	0	32724	
2153	0	32772	
2154	0	32822	
2155	0	32872	
2156	0	32952	
2157	0	33036	
2158	0	33098	
2159	0	33156	
2160	0	33188	
2161	0	33194	
2162	0	33240	
2163	0	33284	
2164	0	33332	
2165	0	33380	
2166	0	33424	
2167	0	33472	
2168	0	33516	
2169	0	33552	
2170	0	33576	
2171	0	33648	
2172	0	33712	
2173	0	33732	
2174	0	33772	
2175	0	33824	
2176	0	33852	
2177	0	33844	
2178	0	33876	
2179	0	33876	
2180	0	33884	
2181	0	33892	
2182	0	33912	
2183	0	33940	
2184	0	33946	
2185	0	33960	
2186	0	33984	
2187	0	34018	
2188	0	34034	
2189	0	34052	
2190	0	34104	
2191	0	34154	
2192	0	34188	
2193	0	34204	
2194	0	34188	
2195	0	34220	
2196	0	34264	
2197	0	34256	
2198	0	34252	
2199	0	34280	
2200	0	34292	
2201	0	34300	
2202	0	34336	
2203	0	34368	
2204	0	34368	
2205	0	34384	
2206	0	34404	
2207	0	34428	
2208	0	34440	
2209	0	34464	
2210	0	34504	
2211	0	34544	
2212	0	34552	
2213	0	34572	
2214	0	34604	
2215	0	34636	
2216	0	34664	
2217	0	34712	
2218	0	34744	
2219	0	34772	
2220	0	34804	
2221	0	34836	
2222	0	34890	
2223	0	34920	
2224	0	34960	
2225	0	34968	
2226	0	34960	
2227	0	34988	
2228	0	35004	
2229	0	35008	
2230	0	35036	
2231	0	35076	
2232	0	35120	
2233	0	35188	
2234	0	35268	
2235	0	35348	
2236	0	35376	
2237	0	35424	
2238	0	35460	
2239	0	35520	
2240	0	35564	
2241	0	35588	
2242	0	35616	
2243	0	35640	
2244	0	35692	
2245	0	35764	
2246	0	35840	
2247	0	35922	
2248	0	35980	
2249	0	36032	
2250	0	36096	
2251	0	36144	
2252	0	36216	
2253	0	36296	
2254	0	36336	
2255	0	36400	
2256	0	36432	
2257	0	36488	
2258	0	36552	
2259	0	36604	
2260	0	36660	
2261	0	36688	
2262	0	36748	
2263	0	36824	
2264	0	36882	
2265	0	36932	
2266	0	37008	
2267	0	37056	
2268	0	37104	
2269	0	37152	
2270	0	37172	
2271	0	37230	
2272	0	37292	
2273	0	37344	
2274	0	37400	
2275	0	37428	
2276	0	37452	
2277	0	37492	
2278	0	37556	
2279	0	37612	
2280	0	37664	
2281	0	37728	
2282	0	37804	
2283	0	37844	
2284	0	37880	
2285	0	37944	
2286	0	37972	
2287	0	37988	
2288	0	38020	
2289	0	38044	
2290	0	38080	
2291	0	38144	
2292	0	38152	
2293	0	38148	
2294	0	38168	
2295	0	38202	
2296	0	38240	
2297	0	38272	
2298	0	38308	
2299	0	38304	
2300	0	38312	
2301	0	38324	
2302	0	38352	
2303	0	38368	
2304	0	38400	
2305	0	38404	
2306	0	38376	
2307	0	38344	
2308	0	38332	
2309	0	38304	
2310	0	38288	
2311	0	38244	
2312	0	38200	
2313	0	38144	
2314	0	38128	
2315	0	38112	
2316	0	38088	
2317	0	38044	
2318	0	38024	
2319	0	38016	
2320	0	37988	
2321	0	37968	
2322	0	37940	
2323	0	37880	
2324	0	37860	
2325	0	37824	
2326	0	37760	
2327	0	37704	
2328	0	37648	
2329	0	37588	
2330	0	37528	
2331	0	37432	
2332	0	37326	
2333	0	37224	
2334	0	37100	
2335	0	36976	
2336	0	36868	
2337	0	36760	
2338	0	36656	
2339	0	36544	
2340	0	36420	
2341	0	36272	
2342	0	36144	
2343	0	35976	
2344	0	35808	
2345	0	35640	
2346	0	35472	
2347	0	35312	
2348	0	35120	
2349	0	34928	
2350	0	34732	
2351	0	34556	
2352	0	34366	
2353	0	34232	
2354	0	34092	
2355	0	33936	
2356	0	33776	
2357	0	33608	
2358	0	33452	
2359	0	33280	
2360	0	33108	
2361	0	32908	
2362	0	32724	
2363	0	32540	
2364	0	32372	
2365	0	32196	
2366	0	31996	
2367	0	31836	
2368	0	31700	
2369	0	31548	
2370	0	31416	
2371	0	31292	
2372	0	31192	
2373	0	31056	
2374	0	30908	
2375	0	30800	
2376	0	30696	
2377	0	30552	
2378	0	30432	
2379	0	30332	
2380	0	30266	
2381	0	30200	
2382	0	30120	
2383	0	30032	
2384	0	29916	
2385	0	29800	
2386	0	29688	
2387	0	29620	
2388	0	29568	
2389	0	29508	
2390	0	29440	
2391	0	29404	
2392	0	29400	
2393	0	29350	
2394	0	29300	
2395	0	29260	
2396	0	29224	
2397	0	29208	
2398	0	29152	
2399	0	29120	
2400	0	29096	
2401	0	29080	
2402	0	29060	
2403	0	29042	
2404	0	29020	
2405	0	29012	
2406	0	29012	
2407	0	29000	
2408	0	29012	
2409	0	29028	
2410	0	29008	
2411	0	29024	
2412	0	29084	
2413	0	29108	
2414	0	29096	
2415	0	29076	
2416	0	29064	
2417	0	29068	
2418	0	29086	
2419	0	29112	
2420	0	29152	
2421	0	29208	
2422	0	29224	
2423	0	29224	
2424	0	29214	
2425	0	29196	
2426	0	29200	
2427	0	29240	
2428	0	29232	
2429	0	29244	
2430	0	29280	
2431	0	29330	
2432	0	29364	
2433	0	29376	
2434	0	29384	
2435	0	29400	
2436	0	29420	
2437	0	29412	
2438	0	29424	
2439	0	29428	
2440	0	29452	
2441	0	29528	
2442	0	29596	
2443	0	29624	
2444	0	29664	
2445	0	29656	
2446	0	29696	
2447	0	29692	
2448	0	29728	
2449	0	29760	
2450	0	29756	
2451	0	29700	
2452	0	29688	
2453	0	29708	
2454	0	29716	
2455	0	29748	
2456	0	29788	
2457	0	29848	
2458	0	29872	
2459	0	29856	
2460	0	29840	
2461	0	29856	
2462	0	29888	
2463	0	29920	
2464	0	29932	
2465	0	29964	
2466	0	29992	
2467	0	30012	
2468	0	30072	
2469	0	30100	
2470	0	30136	
2471	0	30130	
2472	0	30172	
2473	0	30196	
2474	0	30164	
2475	0	30148	
2476	0	30128	
2477	0	30108	
2478	0	30092	
2479	0	30060	
2480	0	30048	
2481	0	30070	
2482	0	30096	
2483	0	30112	
2484	0	30116	
2485	0	30112	
2486	0	30120	
2487	0	30124	
2488	0	30176	
2489	0	30232	
2490	0	30248	
2491	0	30196	
2492	0	30192	
2493	0	30192	
2494	0	30196	
2495	0	30208	
2496	0	30232	
2497	0	30244	
2498	0	30252	
2499	0	30256	
2500	0	30236	
2501	0	30272	
2502	0	30304	
2503	0	30296	
2504	0	30296	
2505	0	30276	
2506	0	30276	
2507	0	30296	
2508	0	30300	
2509	0	30300	
2510	0	30300	
2511	0	30266	
2512	0	30272	
2513	0	30292	
2514	0	30324	
2515	0	30340	
2516	0	30384	
2517	0	30404	
2518	0	30412	
2519	0	30388	
2520	0	30392	
2521	0	30364	
2522	0	30364	
2523	0	30378	
2524	0	30396	
2525	0	30436	
2526	0	30444	
2527	0	30440	
2528	0	30440	
2529	0	30420	
2530	0	30410	
2531	0	30418	
2532	0	30436	
2533	0	30448	
2534	0	30480	
2535	0	30504	
2536	0	30528	
2537	0	30528	
2538	0	30524	
2539	0	30528	
2540	0	30532	
2541	0	30528	
2542	0	30536	
2543	0	30556	
2544	0	30572	
2545	0	30598	
2546	0	30620	
2547	0	30612	
2548	0	30646	
2549	0	30676	
2550	0	30716	
2551	0	30768	
2552	0	30784	
2553	0	30772	
2554	0	30796	
2555	0	30812	
2556	0	30784	
2557	0	30808	
2558	0	30800	
2559	0	30796	
2560	0	30808	
2561	0	30800	
2562	0	30792	
2563	0	30804	
2564	0	30800	
2565	0	30820	
2566	0	30812	
2567	0	30788	
2568	0	30864	
2569	0	30912	
2570	0	30916	
2571	0	30924	
2572	0	30920	
2573	0	30952	
2574	0	30976	
2575	0	31004	
2576	0	31020	
2577	0	31028	
2578	0	31052	
2579	0	31104	
2580	0	31128	
2581	0	31152	
2582	0	31184	
2583	0	31208	
2584	0	31228	
2585	0	31244	
2586	0	31264	
2587	0	31276	
2588	0	31296	
2589	0	31316	
2590	0	31290	
2591	0	31264	
2592	0	31250	
2593	0	31256	
2594	0	31272	
2595	0	31276	
2596	0	31280	
2597	0	31266	
2598	0	31258	
2599	0	31264	
2600	0	31232	
2601	0	31264	
2602	0	31280	
2603	0	31288	
2604	0	31340	
2605	0	31364	
2606	0	31376	
2607	0	31400	
2608	0	31384	
2609	0	31384	
2610	0	31392	
2611	0	31416	
2612	0	31436	
2613	0	31450	
2614	0	31468	
2615	0	31480	
2616	0	31516	
2617	0	31528	
2618	0	31524	
2619	0	31516	
2620	0	31520	
2621	0	31528	
2622	0	31528	
2623	0	31556	
2624	0	31564	
2625	0	31592	
2626	0	31620	
2627	0	31656	
2628	0	31680	
2629	0	31696	
2630	0	31724	
2631	0	31748	
2632	0	31768	
2633	0	31776	
2634	0	31792	
2635	0	31800	
2636	0	31848	
2637	0	31860	
2638	0	31868	
2639	0	31864	
2640	0	31856	
2641	0	31848	
2642	0	31848	
2643	0	31856	
2644	0	31856	
2645	0	31864	
2646	0	31880	
2647	0	31880	
2648	0	31884	
2649	0	31884	
2650	0	31896	
2651	0	31920	
2652	0	31928	
2653	0	31920	
2654	0	31912	
2655	0	31920	
2656	0	31960	
2657	0	31986	
2658	0	31984	
2659	0	31968	
2660	0	31996	
2661	0	31976	
2662	0	31968	
2663	0	31946	
2664	0	31940	
2665	0	31944	
2666	0	31974	
2667	0	31992	
2668	0	32032	
2669	0	32040	
2670	0	32040	
2671	0	32018	
2672	0	32056	
2673	0	32076	
2674	0	32076	
2675	0	32084	
2676	0	32088	
2677	0	32128	
2678	0	32144	
2679	0	32132	
2680	0	32140	
2681	0	32164	
2682	0	32186	
2683	0	32200	
2684	0	32228	
2685	0	32264	
2686	0	32312	
2687	0	32348	
2688	0	32384	
2689	0	32416	
2690	0	32444	
2691	0	32432	
2692	0	32412	
2693	0	32400	
2694	0	32432	
2695	0	32456	
2696	0	32488	
2697	0	32552	
2698	0	32638	
2699	0	32736	
2700	0	32808	
2701	0	32888	
2702	0	32930	
2703	0	32944	
2704	0	32968	
2705	0	33056	
2706	0	33136	
2707	0	33220	
2708	0	33288	
2709	0	33336	
2710	0	33396	
2711	0	33452	
2712	0	33532	
2713	0	33600	
2714	0	33604	
2715	0	33572	
2716	0	33534	
2717	0	33512	
2718	0	33520	
2719	0	33570	
2720	0	33640	
2721	0	33728	
2722	0	33852	
2723	0	33920	
2724	0	33968	
2725	0	34052	
2726	0	34104	
2727	0	34188	
2728	0	34304	
2729	0	34424	
2730	0	34536	
2731	0	34650	
2732	0	34754	
2733	0	34836	
2734	0	34920	
2735	0	35008	
2736	0	35104	
2737	0	35144	
2738	0	35160	
2739	0	35176	
2740	0	35260	
2741	0	35308	
2742	0	35336	
2743	0	35352	
2744	0	35312	
2745	0	35232	
2746	0	35124	
2747	0	35052	
2748	0	35048	
2749	0	35052	
2750	0	35016	
2751	0	34930	
2752	0	34842	
2753	0	34736	
2754	0	34608	
2755	0	34480	
2756	0	34336	
2757	0	34192	
2758	0	34044	
2759	0	33876	
2760	0	33680	
2761	0	33524	
2762	0	33344	
2763	0	33148	
2764	0	32984	
2765	0	32912	
2766	0	32816	
2767	0	32726	
2768	0	32640	
2769	0	32544	
2770	0	32456	
2771	0	32392	
2772	0	32354	
2773	0	32312	
2774	0	32256	
2775	0	32204	
2776	0	32156	
2777	0	32132	
2778	0	32132	
2779	0	32100	
2780	0	32044	
2781	0	32016	
2782	0	31952	
2783	0	31880	
2784	0	31788	
2785	0	31664	
2786	0	31552	
2787	0	31476	
2788	0	31440	
2789	0	31408	
2790	0	31384	
2791	0	31352	
2792	0	31324	
2793	0	31320	
2794	0	31356	
2795	0	31328	
2796	0	31312	
2797	0	31324	
2798	0	31328	
2799	0	31328	
2800	0	31336	
2801	0	31328	
2802	0	31338	
2803	0	31352	
2804	0	31352	
2805	0	31364	
2806	0	31380	
2807	0	31416	
2808	0	31424	
2809	0	31424	
2810	0	31426	
2811	0	31436	
2812	0	31448	
2813	0	31440	
2814	0	31432	
2815	0	31456	
2816	0	31480	
2817	0	31502	
2818	0	31522	
2819	0	31553	
2820	0	31572	
2821	0	31588	
2822	0	31612	
2823	0	31608	
2824	0	31596	
2825	0	31584	
2826	0	31584	
2827	0	31588	
2828	0	31608	
2829	0	31628	
2830	0	31656	
2831	0	31648	
2832	0	31640	
2833	0	31708	
2834	0	31758	
2835	0	31760	
2836	0	31768	
2837	0	31784	
2838	0	31780	
2839	0	31792	
2840	0	31792	
2841	0	31800	
2842	0	31832	
2843	0	31876	
2844	0	31896	
2845	0	31876	
2846	0	31800	
2847	0	31676	
2848	0	31456	
2849	0	31140	
2850	0	30780	
2851	0	30360	
2852	0	29900	
2853	0	29504	
2854	0	29280	
2855	0	29216	
2856	0	29364	
2857	0	29660	
2858	0	30016	
2859	0	30300	
2860	0	30560	
2861	0	30964	
2862	0	31428	
2863	0	31850	
2864	0	32160	
2865	0	32400	
2866	0	32678	
2867	0	32886	
2868	0	33196	
2869	0	33752	
2870	0	34580	
2871	0	35664	
2872	0	36988	
2873	0	38672	
2874	0	40656	
2875	0	42784	
2876	0	45190	
2877	0	47996	
2878	0	51104	
2879	0	53936	
2880	0	56176	
2881	0	57984	
2882	0	59816	
2883	0	61488	
2884	0	62840	
2885	0	63824	
2886	0	64332	
2887	0	64136	
2888	0	63280	
2889	0	61864	
2890	0	60128	
2891	0	58188	
2892	0	55968	
2893	0	53632	
2894	0	51184	
2895	0	48644	
2896	0	46032	
2897	0	43320	
2898	0	40448	
2899	0	37632	
2900	0	34776	
2901	0	31934	
2902	0	29224	
2903	0	26832	
2904	0	24880	
2905	0	23258	
2906	0	21898	
2907	0	20824	
2908	0	20004	
2909	0	19388	
2910	0	18844	
2911	0	18340	
2912	0	17910	
2913	0	17528	
2914	0	17202	
2915	0	16968	
2916	0	16753	
2917	0	16638	
2918	0	16660	
2919	0	16804	
2920	0	16993	
2921	0	17257	
2922	0	17686	
2923	0	18298	
2924	0	19060	
2925	0	19916	
2926	0	20796	
2927	0	21664	
2928	0	22516	
2929	0	23358	
2930	0	24312	
2931	0	25276	
2932	0	26212	
2933	0	27032	
2934	0	27736	
2935	0	28378	
2936	0	28944	
2937	0	29420	
2938	0	29824	
2939	0	30176	
2940	0	30456	
2941	0	30696	
2942	0	30938	
2943	0	31162	
2944	0	31368	
2945	0	31544	
2946	0	31680	
2947	0	31808	
2948	0	31884	
2949	0	31956	
2950	0	32020	
2951	0	32084	
2952	0	32152	
2953	0	32254	
2954	0	32344	
2955	0	32432	
2956	0	32504	
2957	0	32560	
2958	0	32608	
2959	0	32648	
2960	0	32716	
2961	0	32808	
2962	0	32880	
2963	0	32952	
2964	0	33016	
2965	0	33068	
2966	0	33108	
2967	0	33140	
2968	0	33200	
2969	0	33256	
2970	0	33284	
2971	0	33316	
2972	0	33344	
2973	0	33404	
2974	0	33450	
2975	0	33480	
2976	0	33512	
2977	0	33564	
2978	0	33596	
2979	0	33636	
2980	0	33676	
2981	0	33712	
2982	0	33768	
2983	0	33832	
2984	0	33860	
2985	0	33900	
2986	0	33938	
2987	0	33972	
2988	0	34010	
2989	0	34032	
2990	0	34072	
2991	0	34076	
2992	0	34096	
2993	0	34112	
2994	0	34136	
2995	0	34160	
2996	0	34184	
2997	0	34212	
2998	0	34216	
2999	0	34232	
3000	0	34256	
3001	0	34272	
3002	0	34276	
3003	0	34308	
3004	0	34332	
3005	0	34332	
3006	0	34352	
3007	0	34368	
3008	0	34376	
3009	0	34388	
3010	0	34428	
3011	0	34472	
3012	0	34504	
3013	0	34552	
3014	0	34568	
3015	0	34592	
3016	0	34620	
3017	0	34660	
3018	0	34720	
3019	0	34756	
3020	0	34748	
3021	0	34748	
3022	0	34772	
3023	0	34796	
3024	0	34828	
3025	0	34860	
3026	0	34892	
3027	0	34932	
3028	0	34968	
3029	0	35004	
3030	0	35016	
3031	0	35028	
3032	0	35080	
3033	0	35116	
3034	0	35144	
3035	0	35172	
3036	0	35224	
3037	0	35252	
3038	0	35280	
3039	0	35324	
3040	0	35336	
3041	0	35360	
3042	0	35412	
3043	0	35468	
3044	0	35508	
3045	0	35508	
3046	0	35552	
3047	0	35576	
3048	0	35628	
3049	0	35674	
3050	0	35712	
3051	0	35744	
3052	0	35784	
3053	0	35824	
3054	0	35884	
3055	0	35940	
3056	0	35988	
3057	0	36032	
3058	0	36088	
3059	0	36156	
3060	0	36208	
3061	0	36252	
3062	0	36318	
3063	0	36384	
3064	0	36428	
3065	0	36472	
3066	0	36494	
3067	0	36556	
3068	0	36608	
3069	0	36672	
3070	0	36708	
3071	0	36742	
3072	0	36780	
3073	0	36828	
3074	0	36880	
3075	0	36914	
3076	0	36952	
3077	0	36992	
3078	0	37048	
3079	0	37100	
3080	0	37156	
3081	0	37212	
3082	0	37280	
3083	0	37324	
3084	0	37364	
3085	0	37382	
3086	0	37408	
3087	0	37416	
3088	0	37432	
3089	0	37472	
3090	0	37520	
3091	0	37580	
3092	0	37600	
3093	0	37640	
3094	0	37664	
3095	0	37668	
3096	0	37690	
3097	0	37712	
3098	0	37728	
3099	0	37752	
3100	0	37752	
3101	0	37776	
3102	0	37800	
3103	0	37824	
3104	0	37844	
3105	0	37832	
3106	0	37808	
3107	0	37808	
3108	0	37816	
3109	0	37820	
3110	0	37824	
3111	0	37828	
3112	0	37832	
3113	0	37840	
3114	0	37840	
3115	0	37848	
3116	0	37852	
3117	0	37880	
3118	0	37896	
3119	0	37888	
3120	0	37900	
3121	0	37872	
3122	0	37874	
3123	0	37856	
3124	0	37872	
3125	0	37880	
3126	0	37860	
3127	0	37834	
3128	0	37804	
3129	0	37780	
3130	0	37764	
3131	0	37724	
3132	0	37676	
3133	0	37624	
3134	0	37552	
3135	0	37468	
3136	0	37420	
3137	0	37356	
3138	0	37328	
3139	0	37272	
3140	0	37200	
3141	0	37104	
3142	0	36996	
3143	0	36904	
3144	0	36806	
3145	0	36712	
3146	0	36616	
3147	0	36476	
3148	0	36376	
3149	0	36260	
3150	0	36108	
3151	0	35968	
3152	0	35812	
3153	0	35700	
3154	0	35548	
3155	0	35424	
3156	0	35284	
3157	0	35124	
3158	0	34960	
3159	0	34808	
3160	0	34668	
3161	0	34536	
3162	0	34370	
3163	0	34228	
3164	0	34032	
3165	0	33860	
3166	0	33716	
3167	0	33568	
3168	0	33440	
3169	0	33264	
3170	0	33120	
3171	0	32952	
3172	0	32772	
3173	0	32612	
3174	0	32448	
3175	0	32296	
3176	0	32142	
3177	0	31992	
3178	0	31852	
3179	0	31720	
3180	0	31580	
3181	0	31456	
3182	0	31324	
3183	0	31180	
3184	0	31034	
3185	0	30890	
3186	0	30794	
3187	0	30700	
3188	0	30600	
3189	0	30516	
3190	0	30416	
3191	0	30340	
3192	0	30272	
3193	0	30176	
3194	0	30068	
3195	0	29992	
3196	0	29920	
3197	0	29844	
3198	0	29796	
3199	0	29732	
3200	0	29668	
3201	0	29622	
3202	0	29584	
3203	0	29536	
3204	0	29490	
3205	0	29424	
3206	0	29384	
3207	0	29360	
3208	0	29314	
3209	0	29272	
3210	0	29268	
3211	0	29252	
3212	0	29232	
3213	0	29208	
3214	0	29188	
3215	0	29232	
3216	0	29236	
3217	0	29218	
3218	0	29204	
3219	0	29200	
3220	0	29192	
3221	0	29212	
3222	0	29228	
3223	0	29252	
3224	0	29284	
3225	0	29300	
3226	0	29276	
3227	0	29268	
3228	0	29272	
3229	0	29268	
3230	0	29268	
3231	0	29278	
3232	0	29292	
3233	0	29288	
3234	0	29296	
3235	0	29320	
3236	0	29344	
3237	0	29352	
3238	0	29380	
3239	0	29424	
3240	0	29452	
3241	0	29468	
3242	0	29484	
3243	0	29496	
3244	0	29516	
3245	0	29536	
3246	0	29592	
3247	0	29600	
3248	0	29604	
3249	0	29616	
3250	0	29640	
3251	0	29668	
3252	0	29700	
3253	0	29700	
3254	0	29684	
3255	0	29688	
3256	0	29736	
3257	0	29756	
3258	0	29760	
3259	0	29760	
3260	0	29792	
3261	0	29812	
3262	0	29820	
3263	0	29832	
3264	0	29852	
3265	0	29856	
3266	0	29872	
3267	0	29896	
3268	0	29908	
3269	0	29896	
3270	0	29908	
3271	0	29944	
3272	0	29944	
3273	0	29972	
3274	0	29976	
3275	0	29992	
3276	0	30004	
3277	0	29988	
3278	0	29994	
3279	0	30012	
3280	0	30032	
3281	0	30024	
3282	0	30016	
3283	0	30008	
3284	0	30012	
3285	0	30004	
3286	0	30008	
3287	0	30016	
3288	0	30040	
3289	0	30044	
3290	0	30048	
3291	0	30040	
3292	0	30012	
3293	0	30024	
3294	0	30020	
3295	0	30040	
3296	0	30058	
3297	0	30096	
3298	0	30128	
3299	0	30124	
3300	0	30092	
3301	0	30080	
3302	0	30106	
3303	0	30112	
3304	0	30112	
3305	0	30080	
3306	0	30068	
3307	0	30076	
3308	0	30080	
3309	0	30090	
3310	0	30076	
3311	0	30080	
3312	0	30080	
3313	0	30052	
3314	0	30048	
3315	0	30080	
3316	0	30096	
3317	0	30120	
3318	0	30120	
3319	0	30128	
3320	0	30144	
3321	0	30144	
3322	0	30144	
3323	0	30146	
3324	0	30176	
3325	0	30192	
3326	0	30212	
3327	0	30214	
3328	0	30214	
3329	0	30208	
3330	0	30216	
3331	0	30220	
3332	0	30212	
3333	0	30244	
3334	0	30248	
3335	0	30232	
3336	0	30236	
3337	0	30252	
3338	0	30280	
3339	0	30292	
3340	0	30300	
3341	0	30296	
3342	0	30296	
3343	0	30280	
3344	0	30264	
3345	0	30288	
3346	0	30324	
3347	0	30344	
3348	0	30370	
3349	0	30400	
3350	0	30400	
3351	0	30400	
3352	0	30416	
3353	0	30432	
3354	0	30452	
3355	0	30440	
3356	0	30448	
3357	0	30452	
3358	0	30460	
3359	0	30452	
3360	0	30432	
3361	0	30446	
3362	0	30476	
3363	0	30496	
3364	0	30514	
3365	0	30524	
3366	0	30512	
3367	0	30516	
3368	0	30520	
3369	0	30532	
3370	0	30548	
3371	0	30568	
3372	0	30564	
3373	0	30552	
3374	0	30608	
3375	0	30648	
3376	0	30652	
3377	0	30668	
3378	0	30676	
3379	0	30692	
3380	0	30700	
3381	0	30720	
3382	0	30740	
3383	0	30740	
3384	0	30752	
3385	0	30756	
3386	0	30788	
3387	0	30820	
3388	0	30844	
3389	0	30845	
3390	0	30860	
3391	0	30884	
3392	0	30900	
3393	0	30920	
3394	0	30940	
3395	0	30968	
3396	0	30976	
3397	0	30976	
3398	0	30988	
3399	0	31016	
3400	0	31016	
3401	0	31036	
3402	0	31046	
3403	0	31056	
3404	0	31072	
3405	0	31080	
3406	0	31080	
3407	0	31128	
3408	0	31184	
3409	0	31216	
3410	0	31224	
3411	0	31252	
3412	0	31280	
3413	0	31300	
3414	0	31298	
3415	0	31308	
3416	0	31336	
3417	0	31352	
3418	0	31372	
3419	0	31370	
3420	0	31372	
3421	0	31366	
3422	0	31384	
3423	0	31396	
3424	0	31408	
3425	0	31408	
3426	0	31412	
3427	0	31416	
3428	0	31432	
3429	0	31464	
3430	0	31500	
3431	0	31504	
3432	0	31492	
3433	0	31508	
3434	0	31520	
3435	0	31536	
3436	0	31570	
3437	0	31620	
3438	0	31628	
3439	0	31616	
3440	0	31608	
3441	0	31628	
3442	0	31616	
3443	0	31632	
3444	0	31656	
3445	0	31688	
3446	0	31704	
3447	0	31692	
3448	0	31696	
3449	0	31712	
3450	0	31716	
3451	0	31720	
3452	0	31706	
3453	0	31698	
3454	0	31712	
3455	0	31752	
3456	0	31792	
3457	0	31802	
3458	0	31812	
3459	0	31812	
3460	0	31814	
3461	0	31832	
3462	0	31848	
3463	0	31880	
3464	0	31900	
3465	0	31912	
3466	0	31920	
3467	0	31928	
3468	0	31956	
3469	0	31964	
3470	0	31980	
3471	0	31982	
3472	0	31980	
3473	0	31976	
3474	0	31980	
3475	0	32000	
3476	0	31992	
3477	0	31996	
3478	0	31992	
3479	0	32008	
3480	0	32012	
3481	0	32008	
3482	0	32032	
3483	0	32044	
3484	0	32072	
3485	0	32108	
3486	0	32120	
3487	0	32140	
3488	0	32158	
3489	0	32200	
3490	0	32264	
3491	0	32314	
3492	0	32352	
3493	0	32376	
3494	0	32392	
3495	0	32408	
3496	0	32464	
3497	0	32516	
3498	0	32576	
3499	0	32636	
3500	0	32692	
3501	0	32752	
3502	0	32808	
3503	0	32868	
3504	0	32900	
3505	0	32936	
3506	0	32980	
3507	0	33040	
3508	0	33100	
3509	0	33158	
3510	0	33248	
3511	0	33344	
3512	0	33432	
3513	0	33484	
3514	0	33500	
3515	0	33488	
3516	0	33460	
3517	0	33456	
3518	0	33492	
3519	0	33588	
3520	0	33722	
3521	0	33872	
3522	0	33972	
3523	0	34042	
3524	0	34076	
3525	0	34106	
3526	0	34140	
3527	0	34216	
3528	0	34296	
3529	0	34392	
3530	0	34484	
3531	0	34548	
3532	0	34600	
3533	0	34668	
3534	0	34712	
3535	0	34772	
3536	0	34844	
3537	0	34940	
3538	0	34988	
3539	0	35048	
3540	0	35116	
3541	0	35168	
3542	0	35188	
3543	0	35180	
3544	0	35152	
3545	0	35080	
3546	0	34988	
3547	0	34952	
3548	0	34932	
3549	0	34904	
3550	0	34816	
3551	0	34720	
3552	0	34612	
3553	0	34506	
3554	0	34388	
3555	0	34272	
3556	0	34116	
3557	0	33956	
3558	0	33792	
3559	0	33616	
3560	0	33444	
3561	0	33284	
3562	0	33128	
3563	0	32932	
3564	0	32756	
3565	0	32656	
3566	0	32616	
3567	0	32588	
3568	0	32560	
3569	0	32524	
3570	0	32492	
3571	0	32452	
3572	0	32388	
3573	0	32312	
3574	0	32260	
3575	0	32176	
3576	0	32076	
3577	0	32008	
3578	0	31976	
3579	0	31940	
3580	0	31906	
3581	0	31844	
3582	0	31804	
3583	0	31732	
3584	0	31638	
3585	0	31544	
3586	0	31448	
3587	0	31360	
3588	0	31276	
3589	0	31224	
3590	0	31180	
3591	0	31148	
3592	0	31128	
3593	0	31136	
3594	0	31128	
3595	0	31128	
3596	0	31112	
3597	0	31122	
3598	0	31116	
3599	0	31136	
3600	0	31152	
3601	0	31176	
3602	0	31192	
3603	0	31216	
3604	0	31216	
3605	0	31212	
3606	0	31216	
3607	0	31248	
3608	0	31240	
3609	0	31248	
3610	0	31260	
3611	0	31248	
3612	0	31264	
3613	0	31264	
3614	0	31288	
3615	0	31328	
3616	0	31328	
3617	0	31344	
3618	0	31352	
3619	0	31368	
3620	0	31372	
3621	0	31372	
3622	0	31408	
3623	0	31416	
3624	0	31420	
3625	0	31452	
3626	0	31460	
3627	0	31480	
3628	0	31514	
3629	0	31524	
3630	0	31536	
3631	0	31572	
3632	0	31592	
3633	0	31596	
3634	0	31596	
3635	0	31616	
3636	0	31632	
3637	0	31628	
3638	0	31628	
3639	0	31688	
3640	0	31760	
3641	0	31784	
3642	0	31776	
3643	0	31776	
3644	0	31802	
3645	0	31828	
3646	0	31788	
3647	0	31658	
3648	0	31416	
3649	0	31088	
3650	0	30732	
3651	0	30328	
3652	0	29952	
3653	0	29688	
3654	0	29576	
3655	0	29640	
3656	0	29904	
3657	0	30290	
3658	0	30714	
3659	0	31118	
3660	0	31564	
3661	0	32104	
3662	0	32664	
3663	0	33152	
3664	0	33528	
3665	0	33872	
3666	0	34256	
3667	0	34668	
3668	0	35228	
3669	0	36076	
3670	0	37120	
3671	0	38328	
3672	0	39848	
3673	0	41644	
3674	0	43520	
3675	0	45652	
3676	0	48200	
3677	0	51016	
3678	0	54004	
3679	0	56440	
3680	0	58088	
3681	0	59320	
3682	0	60476	
3683	0	61580	
3684	0	62420	
3685	0	63040	
3686	0	63348	
3687	0	62984	
3688	0	61872	
3689	0	60344	
3690	0	58596	
3691	0	56280	
3692	0	53696	
3693	0	51096	
3694	0	48596	
3695	0	46104	
3696	0	43556	
3697	0	40768	
3698	0	37808	
3699	0	34960	
3700	0	32376	
3701	0	30012	
3702	0	27712	
3703	0	25520	
3704	0	23602	
3705	0	22066	
3706	0	20932	
3707	0	20078	
3708	0	19448	
3709	0	19016	
3710	0	18626	
3711	0	18176	
3712	0	17728	
3713	0	17284	
3714	0	16900	
3715	0	16636	
3716	0	16524	
3717	0	16504	
3718	0	16700	
3719	0	17088	
3720	0	17664	
3721	0	18432	
3722	0	19280	
3723	0	20180	
3724	0	21092	
3725	0	21988	
3726	0	22972	
3727	0	24048	
3728	0	25184	
3729	0	26220	
3730	0	27084	
3731	0	27810	
3732	0	28412	
3733	0	28908	
3734	0	29348	
3735	0	29740	
3736	0	30032	
3737	0	30304	
3738	0	30596	
3739	0	30864	
3740	0	31108	
3741	0	31288	
3742	0	31400	
3743	0	31496	
3744	0	31576	
3745	0	31648	
3746	0	31744	
3747	0	31824	
3748	0	31900	
3749	0	31982	
3750	0	32080	
3751	0	32140	
3752	0	32208	
3753	0	32280	
3754	0	32340	
3755	0	32396	
3756	0	32464	
3757	0	32552	
3758	0	32608	
3759	0	32676	
3760	0	32764	
3761	0	32864	
3762	0	32936	
3763	0	33004	
3764	0	33056	
3765	0	33124	
3766	0	33188	
3767	0	33216	
3768	0	33256	
3769	0	33320	
3770	0	33380	
3771	0	33444	
3772	0	33500	
3773	0	33548	
3774	0	33616	
3775	0	33660	
3776	0	33684	
3777	0	33724	
3778	0	33776	
3779	0	33824	
3780	0	33876	
3781	0	33892	
3782	0	33940	
3783	0	33956	
3784	0	33968	
3785	0	33994	
3786	0	34024	
3787	0	34052	
3788	0	34080	
3789	0	34096	
3790	0	34132	
3791	0	34168	
3792	0	34188	
3793	0	34232	
3794	0	34244	
3795	0	34256	
3796	0	34256	
3797	0	34264	
3798	0	34256	
3799	0	34272	
3800	0	34304	
3801	0	34344	
3802	0	34384	
3803	0	34404	
3804	0	34424	
3805	0	34444	
3806	0	34464	
3807	0	34472	
3808	0	34500	
3809	0	34528	
3810	0	34552	
3811	0	34572	
3812	0	34602	
3813	0	34600	
3814	0	34592	
3815	0	34588	
3816	0	34604	
3817	0	34624	
3818	0	34624	
3819	0	34632	
3820	0	34672	
3821	0	34700	
3822	0	34752	
3823	0	34796	
3824	0	34824	
3825	0	34852	
3826	0	34864	
3827	0	34916	
3828	0	34972	
3829	0	34992	
3830	0	34976	
3831	0	35004	
3832	0	35032	
3833	0	35072	
3834	0	35116	
3835	0	35144	
3836	0	35224	
3837	0	35290	
3838	0	35342	
3839	0	35384	
3840	0	35428	
3841	0	35456	
3842	0	35484	
3843	0	35508	
3844	0	35544	
3845	0	35584	
3846	0	35616	
3847	0	35640	
3848	0	35688	
3849	0	35728	
3850	0	35780	
3851	0	35824	
3852	0	35872	
3853	0	35936	
3854	0	35996	
3855	0	36056	
3856	0	36120	
3857	0	36168	
3858	0	36228	
3859	0	36284	
3860	0	36346	
3861	0	36412	
3862	0	36468	
3863	0	36528	
3864	0	36570	
3865	0	36644	
3866	0	36704	
3867	0	36796	
3868	0	36876	
3869	0	36952	
3870	0	36976	
3871	0	37050	
3872	0	37100	
3873	0	37162	
3874	0	37224	
3875	0	37284	
3876	0	37364	
3877	0	37432	
3878	0	37492	
3879	0	37556	
3880	0	37600	
3881	0	37684	
3882	0	37762	
3883	0	37816	
3884	0	37864	
3885	0	37914	
3886	0	37956	
3887	0	38016	
3888	0	38088	
3889	0	38156	
3890	0	38216	
3891	0	38272	
3892	0	38316	
3893	0	38364	
3894	0	38400	
3895	0	38424	
3896	0	38474	
3897	0	38504	
3898	0	38524	
3899	0	38548	
3900	0	38578	
3901	0	38600	
3902	0	38644	
3903	0	38664	
3904	0	38700	
3905	0	38720	
3906	0	38736	
3907	0	38760	
3908	0	38752	
3909	0	38752	
3910	0	38760	
3911	0	38764	
3912	0	38760	
3913	0	38756	
3914	0	38746	
3915	0	38744	
3916	0	38756	
3917	0	38748	
3918	0	38720	
3919	0	38706	
3920	0	38696	
3921	0	38656	
3922	0	38652	
3923	0	38672	
3924	0	38644	
3925	0	38616	
3926	0	38580	
3927	0	38544	
3928	0	38496	
3929	0	38444	
3930	0	38384	
3931	0	38336	
3932	0	38272	
3933	0	38228	
3934	0	38180	
3935	0	38108	
3936	0	38008	
3937	0	37900	
3938	0	37796	
3939	0	37696	
3940	0	37600	
3941	0	37460	
3942	0	37344	
3943	0	37232	
3944	0	37104	
3945	0	36972	
3946	0	36848	
3947	0	36716	
3948	0	36540	
3949	0	36380	
3950	0	36208	
3951	0	36024	
3952	0	35848	
3953	0	35680	
3954	0	35512	
3955	0	35344	
3956	0	35172	
3957	0	35016	
3958	0	34852	
3959	0	34660	
3960	0	34468	
3961	0	34272	
3962	0	34076	
3963	0	33888	
3964	0	33716	
3965	0	33496	
3966	0	33300	
3967	0	33120	
3968	0	32972	
3969	0	32824	
3970	0	32656	
3971	0	32460	
3972	0	32256	
3973	0	32068	
3974	0	31898	
3975	0	31752	
3976	0	31592	
3977	0	31432	
3978	0	31272	
3979	0	31138	
3980	0	31008	
3981	0	30848	
3982	0	30704	
3983	0	30556	
3984	0	30418	
3985	0	30292	
3986	0	30164	
3987	0	30064	
3988	0	29992	
3989	0	29864	
3990	0	29772	
3991	0	29700	
3992	0	29628	
3993	0	29524	
3994	0	29428	
3995	0	29354	
3996	0	29256	
3997	0	29170	
3998	0	29104	
3999	0	29056	
4000	0	29000	
4001	0	28928	
4002	0	28872	
4003	0	28836	
4004	0	28808	
4005	0	28768	
4006	0	28748	
4007	0	28716	
4008	0	28686	
4009	0	28656	
4010	0	28648	
4011	0	28644	
4012	0	28632	
4013	0	28600	
4014	0	28596	
4015	0	28616	
4016	0	28616	
4017	0	28632	
4018	0	28640	
4019	0	28648	
4020	0	28672	
4021	0	28680	
4022	0	28692	
4023	0	28706	
4024	0	28706	
4025	0	28708	
4026	0	28716	
4027	0	28728	
4028	0	28732	
4029	0	28752	
4030	0	28772	
4031	0	28800	
4032	0	28844	
4033	0	28896	
4034	0	28928	
4035	0	28940	
4036	0	28952	
4037	0	28988	
4038	0	29024	
4039	0	29060	
4040	0	29088	
4041	0	29120	
4042	0	29148	
4043	0	29164	
4044	0	29188	
4045	0	29208	
4046	0	29246	
4047	0	29280	
4048	0	29304	
4049	0	29328	
4050	0	29372	
4051	0	29400	
4052	0	29424	
4053	0	29444	
4054	0	29472	
4055	0	29476	
4056	0	29476	
4057	0	29468	
4058	0	29504	
4059	0	29548	
4060	0	29572	
4061	0	29596	
4062	0	29632	
4063	0	29680	
4064	0	29694	
4065	0	29714	
4066	0	29732	
4067	0	29748	
4068	0	29776	
4069	0	29780	
4070	0	29776	
4071	0	29788	
4072	0	29816	
4073	0	29848	
4074	0	29872	
4075	0	29884	
4076	0	29892	
4077	0	29912	
4078	0	29904	
4079	0	29920	
4080	0	29936	
4081	0	29944	
4082	0	29936	
4083	0	29948	
4084	0	29972	
4085	0	30004	
4086	0	30032	
4087	0	30050	
4088	0	30056	
4089	0	30060	
4090	0	30068	
4091	0	30074	
4092	0	30076	
4093	0	30100	
4094	0	30120	
4095	0	30148	
4096	0	30176	
4097	0	30188	
4098	0	30200	
4099	0	30218	
4100	0	30232	
4101	0	30236	
4102	0	30236	
4103	0	30240	
4104	0	30264	
4105	0	30258	
4106	0	30256	
4107	0	30260	
4108	0	30264	
4109	0	30256	
4110	0	30266	
4111	0	30272	
4112	0	30284	
4113	0	30320	
4114	0	30332	
4115	0	30360	
4116	0	30352	
4117	0	30372	
4118	0	30368	
4119	0	30384	
4120	0	30404	
4121	0	30420	
4122	0	30432	
4123	0	30424	
4124	0	30426	
4125	0	30436	
4126	0	30420	
4127	0	30408	
4128	0	30436	
4129	0	30440	
4130	0	30440	
4131	0	30458	
4132	0	30472	
4133	0	30460	
4134	0	30456	
4135	0	30448	
4136	0	30448	
4137	0	30460	
4138	0	30460	
4139	0	30468	
4140	0	30472	
4141	0	30484	
4142	0	30512	
4143	0	30506	
4144	0	30522	
4145	0	30544	
4146	0	30560	
4147	0	30576	
4148	0	30560	
4149	0	30548	
4150	0	30558	
4151	0	30564	
4152	0	30564	
4153	0	30586	
4154	0	30600	
4155	0	30628	
4156	0	30652	
4157	0	30668	
4158	0	30686	
4159	0	30688	
4160	0	30716	
4161	0	30728	
4162	0	30704	
4163	0	30700	
4164	0	30720	
4165	0	30736	
4166	0	30752	
4167	0	30760	
4168	0	30792	
4169	0	30804	
4170	0	30812	
4171	0	30796	
4172	0	30800	
4173	0	30844	
4174	0	30842	
4175	0	30824	
4176	0	30828	
4177	0	30872	
4178	0	30888	
4179	0	30884	
4180	0	30880	
4181	0	30888	
4182	0	30900	
4183	0	30904	
4184	0	30908	
4185	0	30936	
4186	0	30944	
4187	0	30972	
4188	0	30988	
4189	0	31012	
4190	0	31036	
4191	0	31056	
4192	0	31090	
4193	0	31064	
4194	0	31080	
4195	0	31112	
4196	0	31120	
4197	0	31120	
4198	0	31132	
4199	0	31144	
4200	0	31156	
4201	0	31176	
4202	0	31176	
4203	0	31176	
4204	0	31204	
4205	0	31216	
4206	0	31200	
4207	0	31212	
4208	0	31216	
4209	0	31232	
4210	0	31244	
4211	0	31268	
4212	0	31322	
4213	0	31346	
4214	0	31368	
4215	0	31400	
4216	0	31440	
4217	0	31472	
4218	0	31504	
4219	0	31508	
4220	0	31508	
4221	0	31542	
4222	0	31560	
4223	0	31568	
4224	0	31548	
4225	0	31552	
4226	0	31568	
4227	0	31592	
4228	0	31592	
4229	0	31604	
4230	0	31616	
4231	0	31640	
4232	0	31648	
4233	0	31648	
4234	0	31696	
4235	0	31692	
4236	0	31712	
4237	0	31736	
4238	0	31752	
4239	0	31776	
4240	0	31784	
4241	0	31776	
4242	0	31792	
4243	0	31808	
4244	0	31808	
4245	0	31808	
4246	0	31826	
4247	0	31820	
4248	0	31828	
4249	0	31856	
4250	0	31872	
4251	0	31860	
4252	0	31820	
4253	0	31830	
4254	0	31844	
4255	0	31884	
4256	0	31904	
4257	0	31896	
4258	0	31920	
4259	0	31920	
4260	0	31936	
4261	0	31944	
4262	0	31932	
4263	0	31936	
4264	0	31932	
4265	0	31946	
4266	0	31972	
4267	0	31962	
4268	0	31988	
4269	0	31994	
4270	0	32014	
4271	0	32040	
4272	0	32016	
4273	0	32008	
4274	0	32004	
4275	0	32000	
4276	0	32008	
4277	0	32016	
4278	0	32004	
4279	0	31988	
4280	0	32016	
4281	0	32028	
4282	0	32064	
4283	0	32120	
4284	0	32152	
4285	0	32176	
4286	0	32224	
4287	0	32252	
4288	0	32280	
4289	0	32288	
4290	0	32276	
4291	0	32312	
4292	0	32364	
4293	0	32456	
4294	0	32548	
4295	0	32640	
4296	0	32730	
4297	0	32820	
4298	0	32892	
4299	0	32952	
4300	0	33000	
4301	0	33044	
4302	0	33084	
4303	0	33140	
4304	0	33218	
4305	0	33276	
4306	0	33336	
4307	0	33408	
4308	0	33452	
4309	0	33492	
4310	0	33496	
4311	0	33436	
4312	0	33384	
4313	0	33408	
4314	0	33464	
4315	0	33552	
4316	0	33660	
4317	0	33772	
4318	0	33868	
4319	0	33916	
4320	0	33968	
4321	0	34016	
4322	0	34076	
4323	0	34170	
4324	0	34272	
4325	0	34388	
4326	0	34480	
4327	0	34548	
4328	0	34624	
4329	0	34664	
4330	0	34732	
4331	0	34816	
4332	0	34908	
4333	0	34986	
4334	0	35028	
4335	0	35068	
4336	0	35128	
4337	0	35168	
4338	0	35168	
4339	0	35152	
4340	0	35096	
4341	0	35000	
4342	0	34928	
4343	0	34908	
4344	0	34874	
4345	0	34836	
4346	0	34784	
4347	0	34712	
4348	0	34620	
4349	0	34496	
4350	0	34368	
4351	0	34200	
4352	0	34044	
4353	0	33888	
4354	0	33744	
4355	0	33568	
4356	0	33408	
4357	0	33258	
4358	0	33060	
4359	0	32864	
4360	0	32700	
4361	0	32628	
4362	0	32616	
4363	0	32568	
4364	0	32528	
4365	0	32488	
4366	0	32428	
4367	0	32348	
4368	0	32284	
4369	0	32220	
4370	0	32152	
4371	0	32104	
4372	0	32060	
4373	0	32032	
4374	0	31984	
4375	0	31928	
4376	0	31872	
4377	0	31800	
4378	0	31738	
4379	0	31668	
4380	0	31584	
4381	0	31476	
4382	0	31360	
4383	0	31246	
4384	0	31164	
4385	0	31120	
4386	0	31100	
4387	0	31080	
4388	0	31084	
4389	0	31104	
4390	0	31096	
4391	0	31120	
4392	0	31136	
4393	0	31148	
4394	0	31156	
4395	0	31184	
4396	0	31224	
4397	0	31258	
4398	0	31256	
4399	0	31248	
4400	0	31236	
4401	0	31272	
4402	0	31308	
4403	0	31328	
4404	0	31300	
4405	0	31288	
4406	0	31288	
4407	0	31316	
4408	0	31332	
4409	0	31348	
4410	0	31340	
4411	0	31340	
4412	0	31336	
4413	0	31376	
4414	0	31384	
4415	0	31400	
4416	0	31394	
4417	0	31408	
4418	0	31416	
4419	0	31440	
4420	0	31476	
4421	0	31480	
4422	0	31488	
4423	0	31508	
4424	0	31496	
4425	0	31538	
4426	0	31552	
4427	0	31604	
4428	0	31628	
4429	0	31648	
4430	0	31656	
4431	0	31664	
4432	0	31668	
4433	0	31692	
4434	0	31692	
4435	0	31696	
4436	0	31724	
4437	0	31726	
4438	0	31712	
4439	0	31732	
4440	0	31766	
4441	0	31776	
4442	0	31744	
4443	0	31628	
4444	0	31416	
4445	0	31104	
4446	0	30752	
4447	0	30392	
4448	0	30026	
4449	0	29712	
4450	0	29536	
4451	0	29508	
4452	0	29680	
4453	0	30056	
4454	0	30500	
4455	0	30920	
4456	0	31324	
4457	0	31820	
4458	0	32404	
4459	0	32944	
4460	0	33344	
4461	0	33648	
4462	0	33992	
4463	0	34300	
4464	0	34696	
4465	0	35336	
4466	0	36256	
4467	0	37312	
4468	0	38656	
4469	0	40328	
4470	0	42164	
4471	0	44136	
4472	0	46480	
4473	0	49136	
4474	0	52076	
4475	0	54788	
4476	0	56736	
4477	0	58116	
4478	0	59304	
4479	0	60484	
4480	0	61456	
4481	0	62152	
4482	0	62556	
4483	0	62428	
4484	0	61600	
4485	0	60256	
4486	0	58696	
4487	0	56780	
4488	0	54356	
4489	0	51796	
4490	0	49368	
4491	0	46922	
4492	0	44516	
4493	0	41984	
4494	0	39224	
4495	0	36420	
4496	0	33768	
4497	0	31372	
4498	0	29128	
4499	0	26884	
4500	0	24772	
4501	0	23048	
4502	0	21778	
4503	0	20846	
4504	0	20100	
4505	0	19604	
4506	0	19202	
4507	0	18761	
4508	0	18266	
4509	0	17808	
4510	0	17412	
4511	0	17072	
4512	0	16891	
4513	0	16812	
4514	0	16832	
4515	0	17080	
4516	0	17496	
4517	0	18124	
4518	0	18906	
4519	0	19768	
4520	0	20648	
4521	0	21546	
4522	0	22428	
4523	0	23440	
4524	0	24564	
4525	0	25668	
4526	0	26620	
4527	0	27408	
4528	0	28084	
4529	0	28646	
4530	0	29140	
4531	0	29576	
4532	0	29924	
4533	0	30216	
4534	0	30484	
4535	0	30760	
4536	0	31012	
4537	0	31208	
4538	0	31392	
4539	0	31508	
4540	0	31604	
4541	0	31688	
4542	0	31764	
4543	0	31844	
4544	0	31904	
4545	0	31968	
4546	0	32036	
4547	0	32080	
4548	0	32144	
4549	0	32208	
4550	0	32288	
4551	0	32348	
4552	0	32404	
4553	0	32482	
4554	0	32544	
4555	0	32620	
4556	0	32712	
4557	0	32788	
4558	0	32852	
4559	0	32912	
4560	0	32976	
4561	0	33044	
4562	0	33124	
4563	0	33204	
4564	0	33258	
4565	0	33312	
4566	0	33360	
4567	0	33440	
4568	0	33504	
4569	0	33568	
4570	0	33616	
4571	0	33648	
4572	0	33704	
4573	0	33736	
4574	0	33764	
4575	0	33788	
4576	0	33804	
4577	0	33834	
4578	0	33860	
4579	0	33892	
4580	0	33928	
4581	0	33964	
4582	0	33964	
4583	0	33988	
4584	0	33984	
4585	0	34016	
4586	0	34038	
4587	0	34076	
4588	0	34120	
4589	0	34168	
4590	0	34206	
4591	0	34228	
4592	0	34240	
4593	0	34260	
4594	0	34268	
4595	0	34276	
4596	0	34272	
4597	0	34272	
4598	0	34292	
4599	0	34304	
4600	0	34344	
4601	0	34368	
4602	0	34408	
4603	0	34456	
4604	0	34476	
4605	0	34492	
4606	0	34488	
4607	0	34480	
4608	0	34488	
4609	0	34508	
4610	0	34530	
4611	0	34536	
4612	0	34548	
4613	0	34576	
4614	0	34608	
4615	0	34636	
4616	0	34656	
4617	0	34684	
4618	0	34704	
4619	0	34736	
4620	0	34768	
4621	0	34776	
4622	0	34792	
4623	0	34816	
4624	0	34848	
4625	0	34880	
4626	0	34916	
4627	0	34946	
4628	0	34968	
4629	0	35004	
4630	0	35032	
4631	0	35072	
4632	0	35144	
4633	0	35168	
4634	0	35204	
4635	0	35220	
4636	0	35244	
4637	0	35264	
4638	0	35284	
4639	0	35332	
4640	0	35372	
4641	0	35436	
4642	0	35488	
4643	0	35536	
4644	0	35592	
4645	0	35632	
4646	0	35674	
4647	0	35696	
4648	0	35720	
4649	0	35744	
4650	0	35808	
4651	0	35872	
4652	0	35920	
4653	0	35976	
4654	0	36048	
4655	0	36140	
4656	0	36216	
4657	0	36290	
4658	0	36360	
4659	0	36408	
4660	0	36428	
4661	0	36456	
4662	0	36492	
4663	0	36560	
4664	0	36650	
4665	0	36728	
4666	0	36792	
4667	0	36864	
4668	0	36936	
4669	0	37004	
4670	0	37076	
4671	0	37116	
4672	0	37200	
4673	0	37280	
4674	0	37356	
4675	0	37436	
4676	0	37484	
4677	0	37552	
4678	0	37616	
4679	0	37638	
4680	0	37708	
4681	0	37752	
4682	0	37820	
4683	0	37884	
4684	0	37946	
4685	0	37992	
4686	0	38048	
4687	0	38104	
4688	0	38164	
4689	0	38204	
4690	0	38236	
4691	0	38264	
4692	0	38280	
4693	0	38316	
4694	0	38336	
4695	0	38380	
4696	0	38404	
4697	0	38456	
4698	0	38484	
4699	0	38496	
4700	0	38508	
4701	0	38512	
4702	0	38508	
4703	0	38516	
4704	0	38504	
4705	0	38532	
4706	0	38512	
4707	0	38524	
4708	0	38520	
4709	0	38536	
4710	0	38528	
4711	0	38520	
4712	0	38532	
4713	0	38532	
4714	0	38540	
4715	0	38536	
4716	0	38504	
4717	0	38496	
4718	0	38480	
4719	0	38464	
4720	0	38448	
4721	0	38440	
4722	0	38392	
4723	0	38360	
4724	0	38316	
4725	0	38272	
4726	0	38240	
4727	0	38216	
4728	0	38184	
4729	0	38164	
4730	0	38096	
4731	0	38020	
4732	0	37944	
4733	0	37856	
4734	0	37752	
4735	0	37636	
4736	0	37528	
4737	0	37408	
4738	0	37276	
4739	0	37160	
4740	0	37024	
4741	0	36896	
4742	0	36772	
4743	0	36608	
4744	0	36456	
4745	0	36324	
4746	0	36224	
4747	0	36064	
4748	0	35896	
4749	0	35724	
4750	0	35536	
4751	0	35372	
4752	0	35200	
4753	0	35036	
4754	0	34840	
4755	0	34650	
4756	0	34456	
4757	0	34264	
4758	0	34080	
4759	0	33904	
4760	0	33732	
4761	0	33552	
4762	0	33376	
4763	0	33188	
4764	0	33012	
4765	0	32844	
4766	0	32664	
4767	0	32480	
4768	0	32288	
4769	0	32128	
4770	0	31972	
4771	0	31804	
4772	0	31664	
4773	0	31508	
4774	0	31360	
4775	0	31188	
4776	0	31016	
4777	0	30852	
4778	0	30736	
4779	0	30608	
4780	0	30464	
4781	0	30324	
4782	0	30192	
4783	0	30072	
4784	0	29956	
4785	0	29856	
4786	0	29748	
4787	0	29642	
4788	0	29550	
4789	0	29444	
4790	0	29360	
4791	0	29264	
4792	0	29172	
4793	0	29116	
4794	0	29064	
4795	0	29020	
4796	0	28960	
4797	0	28908	
4798	0	28840	
4799	0	28800	
4800	0	28762	
4801	0	28724	
4802	0	28728	
4803	0	28714	
4804	0	28688	
4805	0	28652	
4806	0	28608	
4807	0	28600	
4808	0	28592	
4809	0	28586	
4810	0	28588	
4811	0	28564	
4812	0	28545	
4813	0	28544	
4814	0	28560	
4815	0	28576	
4816	0	28600	
4817	0	28590	
4818	0	28624	
4819	0	28640	
4820	0	28660	
4821	0	28682	
4822	0	28688	
4823	0	28696	
4824	0	28704	
4825	0	28720	
4826	0	28760	
4827	0	28770	
4828	0	28794	
4829	0	28828	
4830	0	28852	
4831	0	28848	
4832	0	28876	
4833	0	28920	
4834	0	28972	
4835	0	28988	
4836	0	28984	
4837	0	28976	
4838	0	28996	
4839	0	29028	
4840	0	29056	
4841	0	29084	
4842	0	29120	
4843	0	29146	
4844	0	29186	
4845	0	29220	
4846	0	29254	
4847	0	29264	
4848	0	29288	
4849	0	29300	
4850	0	29340	
4851	0	29360	
4852	0	29400	
4853	0	29436	
4854	0	29444	
4855	0	29472	
4856	0	29480	
4857	0	29496	
4858	0	29536	
4859	0	29576	
4860	0	29604	
4861	0	29608	
4862	0	29646	
4863	0	29664	
4864	0	29678	
4865	0	29674	
4866	0	29696	
4867	0	29716	
4868	0	29728	
4869	0	29768	
4870	0	29792	
4871	0	29828	
4872	0	29844	
4873	0	29864	
4874	0	29884	
4875	0	29908	
4876	0	29924	
4877	0	29920	
4878	0	29912	
4879	0	29920	
4880	0	29944	
4881	0	29936	
4882	0	29936	
4883	0	29948	
4884	0	29960	
4885	0	29972	
4886	0	29988	
4887	0	30016	
4888	0	30028	
4889	0	30020	
4890	0	30016	
4891	0	30048	
4892	0	30048	
4893	0	30060	
4894	0	30080	
4895	0	30104	
4896	0	30100	
4897	0	30088	
4898	0	30080	
4899	0	30080	
4900	0	30084	
4901	0	30080	
4902	0	30100	
4903	0	30140	
4904	0	30148	
4905	0	30168	
4906	0	30196	
4907	0	30212	
4908	0	30220	
4909	0	30200	
4910	0	30176	
4911	0	30176	
4912	0	30220	
4913	0	30228	
4914	0	30236	
4915	0	30228	
4916	0	30208	
4917	0	30200	
4918	0	30200	
4919	0	30192	
4920	0	30188	
4921	0	30200	
4922	0	30232	
4923	0	30268	
4924	0	30268	
4925	0	30256	
4926	0	30242	
4927	0	30248	
4928	0	30220	
4929	0	30208	
4930	0	30192	
4931	0	30156	
4932	0	30168	
4933	0	30216	
4934	0	30256	
4935	0	30272	
4936	0	30284	
4937	0	30288	
4938	0	30294	
4939	0	30296	
4940	0	30300	
4941	0	30312	
4942	0	30318	
4943	0	30328	
4944	0	30340	
4945	0	30358	
4946	0	30380	
4947	0	30392	
4948	0	30388	
4949	0	30388	
4950	0	30420	
4951	0	30460	
4952	0	30512	
4953	0	30540	
4954	0	30528	
4955	0	30532	
4956	0	30540	
4957	0	30544	
4958	0	30546	
4959	0	30562	
4960	0	30560	
4961	0	30580	
4962	0	30592	
4963	0	30616	
4964	0	30644	
4965	0	30660	
4966	0	30688	
4967	0	30704	
4968	0	30708	
4969	0	30696	
4970	0	30696	
4971	0	30736	
4972	0	30770	
4973	0	30776	
4974	0	30768	
4975	0	30772	
4976	0	30778	
4977	0	30780	
4978	0	30786	
4979	0	30772	
4980	0	30784	
4981	0	30808	
4982	0	30872	
4983	0	30896	
4984	0	30892	
4985	0	30904	
4986	0	30952	
4987	0	30988	
4988	0	31004	
4989	0	31028	
4990	0	31064	
4991	0	31048	
4992	0	31056	
4993	0	31076	
4994	0	31056	
4995	0	31060	
4996	0	31076	
4997	0	31088	
4998	0	31100	
4999	0	31120	
5000	0	31148	
5001	0	31144	
5002	0	31144	
5003	0	31156	
5004	0	31168	
5005	0	31208	
5006	0	31240	
5007	0	31248	
5008	0	31244	
5009	0	31272	
5010	0	31300	
5011	0	31336	
5012	0	31360	
5013	0	31368	
5014	0	31384	
5015	0	31400	
5016	0	31400	
5017	0	31404	
5018	0	31400	
5019	0	31424	
5020	0	31428	
5021	0	31448	
5022	0	31464	
5023	0	31514	
5024	0	31520	
5025	0	31536	
5026	0	31556	
5027	0	31576	
5028	0	31592	
5029	0	31604	
5030	0	31608	
5031	0	31608	
5032	0	31620	
5033	0	31640	
5034	0	31642	
5035	0	31672	
5036	0	31700	
5037	0	31716	
5038	0	31720	
5039	0	31748	
5040	0	31756	
5041	0	31758	
5042	0	31732	
5043	0	31736	
5044	0	31732	
5045	0	31732	
5046	0	31748	
5047	0	31760	
5048	0	31776	
5049	0	31820	
5050	0	31812	
5051	0	31808	
5052	0	31812	
5053	0	31808	
5054	0	31840	
5055	0	31874	
5056	0	31890	
5057	0	31880	
5058	0	31882	
5059	0	31884	
5060	0	31904	
5061	0	31900	
5062	0	31900	
5063	0	31936	
5064	0	31946	
5065	0	31976	
5066	0	31976	
5067	0	31976	
5068	0	31976	
5069	0	31988	
5070	0	32001	
5071	0	32010	
5072	0	32012	
5073	0	32024	
5074	0	32072	
5075	0	32072	
5076	0	32098	
5077	0	32132	
5078	0	32164	
5079	0	32208	
5080	0	32240	
5081	0	32264	
5082	0	32276	
5083	0	32244	
5084	0	32236	
5085	0	32248	
5086	0	32256	
5087	0	32248	
5088	0	32232	
5089	0	32224	
5090	0	32234	
5091	0	32272	
5092	0	32304	
5093	0	32309	
5094	0	32336	
5095	0	32380	
5096	0	32440	
5097	0	32472	
5098	0	32496	
5099	0	32482	
5100	0	32498	
5101	0	32512	
5102	0	32544	
5103	0	32620	
5104	0	32696	
5105	0	32744	
5106	0	32788	
5107	0	32848	
5108	0	32932	
5109	0	32988	
5110	0	33064	
5111	0	33124	
5112	0	33160	
5113	0	33216	
5114	0	33272	
5115	0	33352	
5116	0	33436	
5117	0	33520	
5118	0	33592	
5119	0	33644	
5120	0	33672	
5121	0	33660	
5122	0	33612	
5123	0	33580	
5124	0	33588	
5125	0	33652	
5126	0	33724	
5127	0	33844	
5128	0	33952	
5129	0	34028	
5130	0	34084	
5131	0	34112	
5132	0	34144	
5133	0	34228	
5134	0	34320	
5135	0	34408	
5136	0	34484	
5137	0	34568	
5138	0	34636	
5139	0	34708	
5140	0	34752	
5141	0	34792	
5142	0	34874	
5143	0	34968	
5144	0	35010	
5145	0	35060	
5146	0	35105	
5147	0	35164	
5148	0	35218	
5149	0	35244	
5150	0	35208	
5151	0	35132	
5152	0	35068	
5153	0	35060	
5154	0	35032	
5155	0	35000	
5156	0	34960	
5157	0	34888	
5158	0	34796	
5159	0	34696	
5160	0	34600	
5161	0	34472	
5162	0	34316	
5163	0	34166	
5164	0	34014	
5165	0	33816	
5166	0	33628	
5167	0	33456	
5168	0	33308	
5169	0	33120	
5170	0	32920	
5171	0	32792	
5172	0	32744	
5173	0	32724	
5174	0	32672	
5175	0	32612	
5176	0	32560	
5177	0	32488	
5178	0	32436	
5179	0	32356	
5180	0	32320	
5181	0	32258	
5182	0	32186	
5183	0	32108	
5184	0	32076	
5185	0	32048	
5186	0	32024	
5187	0	31960	
5188	0	31920	
5189	0	31852	
5190	0	31760	
5191	0	31670	
5192	0	31524	
5193	0	31408	
5194	0	31336	
5195	0	31264	
5196	0	31224	
5197	0	31200	
5198	0	31188	
5199	0	31224	
5200	0	31232	
5201	0	31260	
5202	0	31284	
5203	0	31306	
5204	0	31304	
5205	0	31320	
5206	0	31352	
5207	0	31362	
5208	0	31368	
5209	0	31388	
5210	0	31404	
5211	0	31400	
5212	0	31392	
5213	0	31392	
5214	0	31404	
5215	0	31396	
5216	0	31388	
5217	0	31392	
5218	0	31424	
5219	0	31452	
5220	0	31452	
5221	0	31436	
5222	0	31400	
5223	0	31388	
5224	0	31392	
5225	0	31400	
5226	0	31412	
5227	0	31432	
5228	0	31460	
5229	0	31482	
5230	0	31492	
5231	0	31500	
5232	0	31512	
5233	0	31524	
5234	0	31552	
5235	0	31584	
5236	0	31592	
5237	0	31608	
5238	0	31604	
5239	0	31628	
5240	0	31644	
5241	0	31672	
5242	0	31668	
5243	0	31684	
5244	0	31692	
5245	0	31712	
5246	0	31760	
5247	0	31784	
5248	0	31812	
5249	0	31848	
5250	0	31860	
5251	0	31872	
5252	0	31848	
5253	0	31760	
5254	0	31596	
5255	0	31356	
5256	0	31028	
5257	0	30672	
5258	0	30288	
5259	0	29960	
5260	0	29684	
5261	0	29580	
5262	0	29642	
5263	0	29904	
5264	0	30308	
5265	0	30732	
5266	0	31136	
5267	0	31572	
5268	0	32116	
5269	0	32692	
5270	0	33148	
5271	0	33480	
5272	0	33816	
5273	0	34152	
5274	0	34496	
5275	0	35000	
5276	0	35772	
5277	0	36724	
5278	0	37848	
5279	0	39316	
5280	0	41050	
5281	0	42900	
5282	0	45028	
5283	0	47544	
5284	0	50300	
5285	0	53212	
5286	0	55616	
5287	0	57312	
5288	0	58604	
5289	0	59860	
5290	0	60968	
5291	0	61848	
5292	0	62436	
5293	0	62596	
5294	0	62088	
5295	0	61020	
5296	0	59536	
5297	0	57836	
5298	0	55724	
5299	0	53216	
5300	0	50720	
5301	0	48348	
5302	0	45938	
5303	0	43484	
5304	0	40904	
5305	0	38104	
5306	0	35348	
5307	0	32792	
5308	0	30448	
5309	0	28228	
5310	0	26004	
5311	0	24061	
5312	0	22592	
5313	0	21474	
5314	0	20612	
5315	0	19980	
5316	0	19540	
5317	0	19124	
5318	0	18656	
5319	0	18152	
5320	0	17676	
5321	0	17280	
5322	0	16996	
5323	0	16868	
5324	0	16801	
5325	0	16898	
5326	0	17216	
5327	0	17688	
5328	0	18378	
5329	0	19212	
5330	0	20088	
5331	0	20948	
5332	0	21818	
5333	0	22712	
5334	0	23764	
5335	0	24860	
5336	0	25920	
5337	0	26848	
5338	0	27616	
5339	0	28252	
5340	0	28788	
5341	0	29292	
5342	0	29736	
5343	0	30088	
5344	0	30376	
5345	0	30648	
5346	0	30912	
5347	0	31152	
5348	0	31360	
5349	0	31492	
5350	0	31620	
5351	0	31704	
5352	0	31808	
5353	0	31880	
5354	0	31940	
5355	0	32012	
5356	0	32080	
5357	0	32156	
5358	0	32224	
5359	0	32296	
5360	0	32362	
5361	0	32444	
5362	0	32536	
5363	0	32630	
5364	0	32704	
5365	0	32768	
5366	0	32832	
5367	0	32892	
5368	0	32944	
5369	0	33024	
5370	0	33108	
5371	0	33176	
5372	0	33244	
5373	0	33300	
5374	0	33336	
5375	0	33392	
5376	0	33444	
5377	0	33492	
5378	0	33548	
5379	0	33560	
5380	0	33584	
5381	0	33612	
5382	0	33648	
5383	0	33692	
5384	0	33716	
5385	0	33740	
5386	0	33772	
5387	0	33804	
5388	0	33824	
5389	0	33888	
5390	0	33932	
5391	0	33960	
5392	0	34016	
5393	0	34048	
5394	0	34072	
5395	0	34088	
5396	0	34108	
5397	0	34132	
5398	0	34152	
5399	0	34200	
5400	0	34220	
5401	0	34256	
5402	0	34300	
5403	0	34300	
5404	0	34312	
5405	0	34320	
5406	0	34336	
5407	0	34352	
5408	0	34386	
5409	0	34404	
5410	0	34432	
5411	0	34432	
5412	0	34424	
5413	0	34432	
5414	0	34480	
5415	0	34504	
5416	0	34516	
5417	0	34536	
5418	0	34552	
5419	0	34556	
5420	0	34580	
5421	0	34600	
5422	0	34632	
5423	0	34640	
5424	0	34660	
5425	0	34688	
5426	0	34720	
5427	0	34752	
5428	0	34768	
5429	0	34776	
5430	0	34780	
5431	0	34792	
5432	0	34804	
5433	0	34840	
5434	0	34864	
5435	0	34882	
5436	0	34912	
5437	0	34936	
5438	0	34972	
5439	0	35000	
5440	0	35044	
5441	0	35066	
5442	0	35104	
5443	0	35124	
5444	0	35156	
5445	0	35188	
5446	0	35224	
5447	0	35242	
5448	0	35248	
5449	0	35276	
5450	0	35328	
5451	0	35370	
5452	0	35412	
5453	0	35460	
5454	0	35524	
5455	0	35568	
5456	0	35616	
5457	0	35664	
5458	0	35726	
5459	0	35788	
5460	0	35836	
5461	0	35884	
5462	0	35916	
5463	0	35984	
5464	0	36020	
5465	0	36050	
5466	0	36092	
5467	0	36144	
5468	0	36204	
5469	0	36252	
5470	0	36344	
5471	0	36408	
5472	0	36464	
5473	0	36504	
5474	0	36552	
5475	0	36600	
5476	0	36672	
5477	0	36740	
5478	0	36812	
5479	0	36856	
5480	0	36890	
5481	0	36936	
5482	0	36988	
5483	0	37040	
5484	0	37104	
5485	0	37176	
5486	0	37244	
5487	0	37312	
5488	0	37368	
5489	0	37408	
5490	0	37464	
5491	0	37536	
5492	0	37584	
5493	0	37676	
5494	0	37708	
5495	0	37768	
5496	0	37824	
5497	0	37864	
5498	0	37908	
5499	0	37936	
5500	0	37972	
5501	0	38008	
5502	0	38064	
5503	0	38100	
5504	0	38144	
5505	0	38188	
5506	0	38188	
5507	0	38208	
5508	0	38216	
5509	0	38212	
5510	0	38220	
5511	0	38232	
5512	0	38240	
5513	0	38268	
5514	0	38276	
5515	0	38276	
5516	0	38280	
5517	0	38284	
5518	0	38336	
5519	0	38368	
5520	0	38376	
5521	0	38384	
5522	0	38400	
5523	0	38392	
5524	0	38388	
5525	0	38408	
5526	0	38396	
5527	0	38404	
5528	0	38396	
5529	0	38380	
5530	0	38372	
5531	0	38348	
5532	0	38338	
5533	0	38304	
5534	0	38284	
5535	0	38252	
5536	0	38220	
5537	0	38176	
5538	0	38112	
5539	0	38080	
5540	0	38024	
5541	0	37996	
5542	0	37952	
5543	0	37848	
5544	0	37768	
5545	0	37688	
5546	0	37616	
5547	0	37540	
5548	0	37472	
5549	0	37392	
5550	0	37300	
5551	0	37200	
5552	0	37086	
5553	0	36952	
5554	0	36820	
5555	0	36664	
5556	0	36500	
5557	0	36348	
5558	0	36200	
5559	0	36060	
5560	0	35924	
5561	0	35772	
5562	0	35596	
5563	0	35424	
5564	0	35268	
5565	0	35100	
5566	0	34920	
5567	0	34736	
5568	0	34564	
5569	0	34400	
5570	0	34252	
5571	0	34066	
5572	0	33892	
5573	0	33724	
5574	0	33540	
5575	0	33372	
5576	0	33196	
5577	0	32992	
5578	0	32796	
5579	0	32636	
5580	0	32488	
5581	0	32320	
5582	0	32180	
5583	0	32040	
5584	0	31860	
5585	0	31688	
5586	0	31556	
5587	0	31412	
5588	0	31276	
5589	0	31116	
5590	0	30964	
5591	0	30824	
5592	0	30704	
5593	0	30584	
5594	0	30456	
5595	0	30344	
5596	0	30192	
5597	0	30068	
5598	0	29946	
5599	0	29844	
5600	0	29732	
5601	0	29648	
5602	0	29560	
5603	0	29480	
5604	0	29408	
5605	0	29328	
5606	0	29280	
5607	0	29248	
5608	0	29196	
5609	0	29128	
5610	0	29074	
5611	0	29018	
5612	0	28980	
5613	0	28948	
5614	0	28908	
5615	0	28888	
5616	0	28908	
5617	0	28904	
5618	0	28880	
5619	0	28832	
5620	0	28828	
5621	0	28812	
5622	0	28824	
5623	0	28820	
5624	0	28804	
5625	0	28792	
5626	0	28800	
5627	0	28784	
5628	0	28792	
5629	0	28800	
5630	0	28836	
5631	0	28832	
5632	0	28840	
5633	0	28832	
5634	0	28828	
5635	0	28840	
5636	0	28864	
5637	0	28900	
5638	0	28932	
5639	0	28968	
5640	0	28984	
5641	0	29008	
5642	0	29040	
5643	0	29068	
5644	0	29088	
5645	0	29092	
5646	0	29116	
5647	0	29152	
5648	0	29172	
5649	0	29180	
5650	0	29212	
5651	0	29224	
5652	0	29244	
5653	0	29256	
5654	0	29272	
5655	0	29268	
5656	0	29280	
5657	0	29304	
5658	0	29312	
5659	0	29344	
5660	0	29346	
5661	0	29378	
5662	0	29424	
5663	0	29448	
5664	0	29480	
5665	0	29504	
5666	0	29512	
5667	0	29524	
5668	0	29548	
5669	0	29568	
5670	0	29576	
5671	0	29584	
5672	0	29608	
5673	0	29648	
5674	0	29648	
5675	0	29668	
5676	0	29680	
5677	0	29708	
5678	0	29740	
5679	0	29760	
5680	0	29784	
5681	0	29820	
5682	0	29848	
5683	0	29876	
5684	0	29880	
5685	0	29876	
5686	0	29888	
5687	0	29892	
5688	0	29910	
5689	0	29920	
5690	0	29920	
5691	0	29944	
5692	0	29980	
5693	0	30004	
5694	0	30024	
5695	0	30032	
5696	0	30030	
5697	0	30026	
5698	0	30040	
5699	0	30044	
5700	0	30052	
5701	0	30060	
5702	0	30060	
5703	0	30068	
5704	0	30064	
5705	0	30108	
5706	0	30132	
5707	0	30148	
5708	0	30168	
5709	0	30164	
5710	0	30154	
5711	0	30144	
5712	0	30160	
5713	0	30176	
5714	0	30202	
5715	0	30188	
5716	0	30172	
5717	0	30148	
5718	0	30166	
5719	0	30148	
5720	0	30144	
5721	0	30148	
5722	0	30162	
5723	0	30176	
5724	0	30192	
5725	0	30202	
5726	0	30194	
5727	0	30200	
5728	0	30224	
5729	0	30236	
5730	0	30240	
5731	0	30212	
5732	0	30196	
5733	0	30188	
5734	0	30202	
5735	0	30218	
5736	0	30240	
5737	0	30240	
5738	0	30256	
5739	0	30256	
5740	0	30252	
5741	0	30264	
5742	0	30288	
5743	0	30292	
5744	0	30300	
5745	0	30320	
5746	0	30332	
5747	0	30344	
5748	0	30348	
5749	0	30352	
5750	0	30338	
5751	0	30312	
5752	0	30312	
5753	0	30320	
5754	0	30336	
5755	0	30336	
5756	0	30344	
5757	0	30384	
5758	0	30400	
5759	0	30424	
5760	0	30424	
5761	0	30408	
5762	0	30400	
5763	0	30424	
5764	0	30452	
5765	0	30476	
5766	0	30468	
5767	0	30464	
5768	0	30476	
5769	0	30496	
5770	0	30520	
5771	0	30532	
5772	0	30516	
5773	0	30512	
5774	0	30548	
5775	0	30560	
5776	0	30576	
5777	0	30598	
5778	0	30640	
5779	0	30656	
5780	0	30680	
5781	0	30692	
5782	0	30694	
5783	0	30704	
5784	0	30724	
5785	0	30748	
5786	0	30754	
5787	0	30788	
5788	0	30832	
5789	0	30860	
5790	0	30864	
5791	0	30904	
5792	0	30928	
5793	0	30948	
5794	0	30948	
5795	0	30936	
5796	0	30932	
5797	0	30956	
5798	0	30968	
5799	0	31000	
5800	0	31000	
5801	0	31016	
5802	0	31056	
5803	0	31080	
5804	0	31080	
5805	0	31068	
5806	0	31056	
5807	0	31072	
5808	0	31100	
5809	0	31120	
5810	0	31124	
5811	0	31120	
5812	0	31172	
5813	0	31200	
5814	0	31236	
5815	0	31236	
5816	0	31262	
5817	0	31280	
5818	0	31296	
5819	0	31312	
5820	0	31320	
5821	0	31328	
5822	0	31344	
5823	0	31356	
5824	0	31368	
5825	0	31364	
5826	0	31364	
5827	0	31380	
5828	0	31416	
5829	0	31424	
5830	0	31440	
5831	0	31440	
5832	0	31456	
5833	0	31456	
5834	0	31460	
5835	0	31512	
5836	0	31540	
5837	0	31544	
5838	0	31572	
5839	0	31592	
5840	0	31596	
5841	0	31576	
5842	0	31584	
5843	0	31596	
5844	0	31616	
5845	0	31640	
5846	0	31640	
5847	0	31628	
5848	0	31624	
5849	0	31644	
5850	0	31672	
5851	0	31708	
5852	0	31732	
5853	0	31728	
5854	0	31736	
5855	0	31728	
5856	0	31762	
5857	0	31780	
5858	0	31808	
5859	0	31844	
5860	0	31868	
5861	0	31868	
5862	0	31848	
5863	0	31820	
5864	0	31816	
5865	0	31816	
5866	0	31872	
5867	0	31886	
5868	0	31896	
5869	0	31888	
5870	0	31876	
5871	0	31856	
5872	0	31868	
5873	0	31868	
5874	0	31876	
5875	0	31892	
5876	0	31888	
5877	0	31904	
5878	0	31916	
5879	0	31908	
5880	0	31912	
5881	0	31904	
5882	0	31916	
5883	0	31930	
5884	0	31928	
5885	0	31968	
5886	0	32000	
5887	0	32028	
5888	0	32036	
5889	0	32036	
5890	0	32080	
5891	0	32108	
5892	0	32100	
5893	0	32096	
5894	0	32064	
5895	0	32044	
5896	0	32060	
5897	0	32064	
5898	0	32108	
5899	0	32156	
5900	0	32192	
5901	0	32244	
5902	0	32288	
5903	0	32284	
5904	0	32272	
5905	0	32280	
5906	0	32312	
5907	0	32336	
5908	0	32380	
5909	0	32440	
5910	0	32498	
5911	0	32584	
5912	0	32664	
5913	0	32744	
5914	0	32804	
5915	0	32860	
5916	0	32896	
5917	0	32924	
5918	0	32960	
5919	0	33008	
5920	0	33068	
5921	0	33124	
5922	0	33220	
5923	0	33306	
5924	0	33368	
5925	0	33416	
5926	0	33424	
5927	0	33412	
5928	0	33404	
5929	0	33424	
5930	0	33500	
5931	0	33596	
5932	0	33722	
5933	0	33844	
5934	0	33928	
5935	0	33966	
5936	0	33972	
5937	0	34012	
5938	0	34084	
5939	0	34156	
5940	0	34256	
5941	0	34354	
5942	0	34456	
5943	0	34516	
5944	0	34564	
5945	0	34652	
5946	0	34718	
5947	0	34792	
5948	0	34874	
5949	0	34928	
5950	0	34960	
5951	0	34986	
5952	0	35048	
5953	0	35096	
5954	0	35132	
5955	0	35130	
5956	0	35064	
5957	0	34968	
5958	0	34892	
5959	0	34868	
5960	0	34856	
5961	0	34772	
5962	0	34672	
5963	0	34572	
5964	0	34464	
5965	0	34376	
5966	0	34256	
5967	0	34080	
5968	0	33892	
5969	0	33740	
5970	0	33556	
5971	0	33384	
5972	0	33212	
5973	0	33056	
5974	0	32876	
5975	0	32688	
5976	0	32568	
5977	0	32544	
5978	0	32504	
5979	0	32460	
5980	0	32402	
5981	0	32344	
5982	0	32316	
5983	0	32264	
5984	0	32204	
5985	0	32144	
5986	0	32086	
5987	0	32036	
5988	0	31996	
5989	0	31964	
5990	0	31916	
5991	0	31844	
5992	0	31776	
5993	0	31692	
5994	0	31632	
5995	0	31560	
5996	0	31468	
5997	0	31376	
5998	0	31296	
5999	0	31208	
6000	0	31160	
6001	0	31148	
6002	0	31116	
6003	0	31104	
6004	0	31088	
6005	0	31092	
6006	0	31080	
6007	0	31088	
6008	0	31100	
6009	0	31100	
6010	0	31100	
6011	0	31088	
6012	0	31104	
6013	0	31106	
6014	0	31108	
6015	0	31120	
6016	0	31128	
6017	0	31140	
6018	0	31152	
6019	0	31168	
6020	0	31192	
6021	0	31204	
6022	0	31208	
6023	0	31208	
6024	0	31232	
6025	0	31264	
6026	0	31280	
6027	0	31300	
6028	0	31324	
6029	0	31324	
6030	0	31344	
6031	0	31354	
6032	0	31352	
6033	0	31368	
6034	0	31388	
6035	0	31420	
6036	0	31440	
6037	0	31424	
6038	0	31392	
6039	0	31376	
6040	0	31396	
6041	0	31412	
6042	0	31428	
6043	0	31424	
6044	0	31452	
6045	0	31488	
6046	0	31516	
6047	0	31500	
6048	0	31536	
6049	0	31556	
6050	0	31600	
6051	0	31644	
6052	0	31680	
6053	0	31700	
6054	0	31712	
6055	0	31724	
6056	0	31700	
6057	0	31664	
6058	0	31588	
6059	0	31424	
6060	0	31164	
6061	0	30820	
6062	0	30416	
6063	0	30020	
6064	0	29688	
6065	0	29460	
6066	0	29380	
6067	0	29504	
6068	0	29826	
6069	0	30272	
6070	0	30652	
6071	0	31016	
6072	0	31472	
6073	0	32004	
6074	0	32512	
6075	0	32920	
6076	0	33204	
6077	0	33512	
6078	0	33772	
6079	0	34120	
6080	0	34700	
6081	0	35600	
6082	0	36620	
6083	0	37880	
6084	0	39536	
6085	0	41400	
6086	0	43380	
6087	0	45700	
6088	0	48346	
6089	0	51288	
6090	0	54128	
6091	0	56292	
6092	0	57832	
6093	0	59098	
6094	0	60354	
6095	0	61412	
6096	0	62208	
6097	0	62608	
6098	0	62476	
6099	0	61680	
6100	0	60408	
6101	0	58848	
6102	0	57024	
6103	0	54772	
6104	0	52204	
6105	0	49760	
6106	0	47372	
6107	0	44952	
6108	0	42496	
6109	0	39816	
6110	0	37026	
6111	0	34344	
6112	0	31854	
6113	0	29568	
6114	0	27332	
6115	0	25200	
6116	0	23396	
6117	0	22074	
6118	0	21068	
6119	0	20230	
6120	0	19668	
6121	0	19248	
6122	0	18816	
6123	0	18300	
6124	0	17810	
6125	0	17368	
6126	0	17012	
6127	0	16784	
6128	0	16666	
6129	0	16620	
6130	0	16788	
6131	0	17126	
6132	0	17658	
6133	0	18408	
6134	0	19260	
6135	0	20152	
6136	0	21052	
6137	0	21932	
6138	0	22872	
6139	0	23944	
6140	0	25032	
6141	0	26058	
6142	0	26938	
6143	0	27672	
6144	0	28289	
6145	0	28836	
6146	0	29316	
6147	0	29748	
6148	0	30064	
6149	0	30316	
6150	0	30584	
6151	0	30872	
6152	0	31112	
6153	0	31304	
6154	0	31476	
6155	0	31600	
6156	0	31688	
6157	0	31772	
6158	0	31856	
6159	0	31932	
6160	0	31998	
6161	0	32084	
6162	0	32152	
6163	0	32186	
6164	0	32228	
6165	0	32304	
6166	0	32376	
6167	0	32456	
6168	0	32536	
6169	0	32592	
6170	0	32624	
6171	0	32672	
6172	0	32746	
6173	0	32840	
6174	0	32920	
6175	0	32964	
6176	0	33048	
6177	0	33116	
6178	0	33200	
6179	0	33272	
6180	0	33338	
6181	0	33396	
6182	0	33432	
6183	0	33472	
6184	0	33488	
6185	0	33512	
6186	0	33544	
6187	0	33584	
6188	0	33620	
6189	0	33680	
6190	0	33728	
6191	0	33772	
6192	0	33796	
6193	0	33824	
6194	0	33856	
6195	0	33876	
6196	0	33908	
6197	0	33956	
6198	0	33988	
6199	0	34016	
6200	0	34036	
6201	0	34072	
6202	0	34104	
6203	0	34136	
6204	0	34172	
6205	0	34180	
6206	0	34212	
6207	0	34224	
6208	0	34248	
6209	0	34276	
6210	0	34284	
6211	0	34272	
6212	0	34312	
6213	0	34320	
6214	0	34340	
6215	0	34336	
6216	0	34362	
6217	0	34404	
6218	0	34416	
6219	0	34404	
6220	0	34416	
6221	0	34444	
6222	0	34480	
6223	0	34520	
6224	0	34528	
6225	0	34528	
6226	0	34580	
6227	0	34604	
6228	0	34632	
6229	0	34628	
6230	0	34676	
6231	0	34712	
6232	0	34732	
6233	0	34768	
6234	0	34808	
6235	0	34816	
6236	0	34848	
6237	0	34924	
6238	0	34936	
6239	0	34960	
6240	0	34984	
6241	0	35020	
6242	0	35032	
6243	0	35060	
6244	0	35056	
6245	0	35060	
6246	0	35074	
6247	0	35096	
6248	0	35120	
6249	0	35168	
6250	0	35224	
6251	0	35292	
6252	0	35324	
6253	0	35384	
6254	0	35424	
6255	0	35488	
6256	0	35534	
6257	0	35568	
6258	0	35616	
6259	0	35680	
6260	0	35728	
6261	0	35752	
6262	0	35776	
6263	0	35828	
6264	0	35856	
6265	0	35928	
6266	0	35976	
6267	0	36012	
6268	0	36060	
6269	0	36088	
6270	0	36144	
6271	0	36228	
6272	0	36304	
6273	0	36344	
6274	0	36404	
6275	0	36448	
6276	0	36532	
6277	0	36584	
6278	0	36624	
6279	0	36664	
6280	0	36700	
6281	0	36732	
6282	0	36792	
6283	0	36872	
6284	0	36920	
6285	0	36956	
6286	0	37004	
6287	0	37056	
6288	0	37108	
6289	0	37144	
6290	0	37180	
6291	0	37224	
6292	0	37308	
6293	0	37396	
6294	0	37472	
6295	0	37528	
6296	0	37576	
6297	0	37624	
6298	0	37664	
6299	0	37728	
6300	0	37796	
6301	0	37852	
6302	0	37924	
6303	0	37996	
6304	0	38040	
6305	0	38080	
6306	0	38096	
6307	0	38092	
6308	0	38106	
6309	0	38120	
6310	0	38136	
6311	0	38152	
6312	0	38184	
6313	0	38220	
6314	0	38248	
6315	0	38280	
6316	0	38276	
6317	0	38292	
6318	0	38276	
6319	0	38272	
6320	0	38300	
6321	0	38316	
6322	0	38328	
6323	0	38332	
6324	0	38336	
6325	0	38368	
6326	0	38384	
6327	0	38400	
6328	0	38400	
6329	0	38384	
6330	0	38368	
6331	0	38372	
6332	0	38388	
6333	0	38400	
6334	0	38396	
6335	0	38406	
6336	0	38400	
6337	0	38392	
6338	0	38384	
6339	0	38356	
6340	0	38320	
6341	0	38272	
6342	0	38256	
6343	0	38224	
6344	0	38184	
6345	0	38108	
6346	0	38076	
6347	0	38020	
6348	0	37952	
6349	0	37864	
6350	0	37776	
6351	0	37684	
6352	0	37592	
6353	0	37532	
6354	0	37412	
6355	0	37288	
6356	0	37152	
6357	0	37048	
6358	0	36940	
6359	0	36820	
6360	0	36696	
6361	0	36544	
6362	0	36384	
6363	0	36252	
6364	0	36092	
6365	0	35912	
6366	0	35752	
6367	0	35608	
6368	0	35448	
6369	0	35252	
6370	0	35088	
6371	0	34920	
6372	0	34752	
6373	0	34552	
6374	0	34368	
6375	0	34192	
6376	0	34028	
6377	0	33818	
6378	0	33656	
6379	0	33504	
6380	0	33336	
6381	0	33162	
6382	0	32980	
6383	0	32792	
6384	0	32624	
6385	0	32480	
6386	0	32316	
6387	0	32120	
6388	0	31968	
6389	0	31844	
6390	0	31700	
6391	0	31532	
6392	0	31392	
6393	0	31264	
6394	0	31136	
6395	0	31000	
6396	0	30860	
6397	0	30724	
6398	0	30584	
6399	0	30460	
6400	0	30336	
6401	0	30232	
6402	0	30144	
6403	0	30068	
6404	0	29956	
6405	0	29844	
6406	0	29768	
6407	0	29680	
6408	0	29604	
6409	0	29532	
6410	0	29470	
6411	0	29416	
6412	0	29372	
6413	0	29288	
6414	0	29240	
6415	0	29212	
6416	0	29200	
6417	0	29148	
6418	0	29108	
6419	0	29060	
6420	0	29024	
6421	0	29004	
6422	0	28996	
6423	0	28992	
6424	0	28980	
6425	0	28954	
6426	0	28940	
6427	0	28932	
6428	0	28936	
6429	0	28932	
6430	0	28938	
6431	0	28940	
6432	0	28952	
6433	0	28960	
6434	0	28956	
6435	0	28956	
6436	0	28932	
6437	0	28920	
6438	0	28928	
6439	0	28936	
6440	0	28964	
6441	0	29006	
6442	0	29012	
6443	0	29012	
6444	0	28996	
6445	0	29020	
6446	0	29048	
6447	0	29064	
6448	0	29084	
6449	0	29112	
6450	0	29116	
6451	0	29112	
6452	0	29120	
6453	0	29172	
6454	0	29224	
6455	0	29276	
6456	0	29316	
6457	0	29340	
6458	0	29336	
6459	0	29344	
6460	0	29380	
6461	0	29428	
6462	0	29428	
6463	0	29408	
6464	0	29432	
6465	0	29476	
6466	0	29516	
6467	0	29568	
6468	0	29596	
6469	0	29600	
6470	0	29616	
6471	0	29648	
6472	0	29692	
6473	0	29700	
6474	0	29700	
6475	0	29732	
6476	0	29788	
6477	0	29814	
6478	0	29808	
6479	0	29808	
6480	0	29824	
6481	0	29856	
6482	0	29876	
6483	0	29888	
6484	0	29920	
6485	0	29940	
6486	0	29976	
6487	0	29980	
6488	0	29992	
6489	0	30016	
6490	0	30016	
6491	0	30024	
6492	0	30022	
6493	0	30044	
6494	0	30048	
6495	0	30040	
6496	0	30036	
6497	0	30008	
6498	0	30012	
6499	0	30052	
6500	0	30112	
6501	0	30136	
6502	0	30132	
6503	0	30124	
6504	0	30132	
6505	0	30148	
6506	0	30178	
6507	0	30208	
6508	0	30212	
6509	0	30220	
6510	0	30244	
6511	0	30264	
6512	0	30276	
6513	0	30304	
6514	0	30312	
6515	0	30332	
6516	0	30336	
6517	0	30356	
6518	0	30352	
6519	0	30364	
6520	0	30372	
6521	0	30364	
6522	0	30360	
6523	0	30350	
6524	0	30316	
6525	0	30328	
6526	0	30314	
6527	0	30304	
6528	0	30284	
6529	0	30286	
6530	0	30300	
6531	0	30328	
6532	0	30372	
6533	0	30392	
6534	0	30416	
6535	0	30424	
6536	0	30436	
6537	0	30432	
6538	0	30432	
6539	0	30432	
6540	0	30424	
6541	0	30416	
6542	0	30412	
6543	0	30404	
6544	0	30408	
6545	0	30416	
6546	0	30420	
6547	0	30428	
6548	0	30436	
6549	0	30436	
6550	0	30456	
6551	0	30488	
6552	0	30472	
6553	0	30504	
6554	0	30536	
6555	0	30600	
6556	0	30616	
6557	0	30616	
6558	0	30608	
6559	0	30632	
6560	0	30666	
6561	0	30680	
6562	0	30684	
6563	0	30672	
6564	0	30696	
6565	0	30720	
6566	0	30708	
6567	0	30700	
6568	0	30668	
6569	0	30660	
6570	0	30648	
6571	0	30608	
6572	0	30576	
6573	0	30592	
6574	0	30616	
6575	0	30644	
6576	0	30684	
6577	0	30676	
6578	0	30658	
6579	0	30680	
6580	0	30720	
6581	0	30760	
6582	0	30792	
6583	0	30824	
6584	0	30848	
6585	0	30864	
6586	0	30864	
6587	0	30848	
6588	0	30848	
6589	0	30840	
6590	0	30864	
6591	0	30916	
6592	0	30964	
6593	0	31000	
6594	0	31008	
6595	0	31008	
6596	0	31004	
6597	0	31028	
6598	0	31056	
6599	0	31072	
6600	0	31092	
6601	0	31096	
6602	0	31108	
6603	0	31144	
6604	0	31212	
6605	0	31234	
6606	0	31252	
6607	0	31296	
6608	0	31296	
6609	0	31296	
6610	0	31284	
6611	0	31296	
6612	0	31290	
6613	0	31304	
6614	0	31312	
6615	0	31344	
6616	0	31380	
6617	0	31412	
6618	0	31440	
6619	0	31496	
6620	0	31500	
6621	0	31496	
6622	0	31540	
6623	0	31560	
6624	0	31556	
6625	0	31552	
6626	0	31560	
6627	0	31596	
6628	0	31620	
6629	0	31620	
6630	0	31632	
6631	0	31648	
6632	0	31680	
6633	0	31704	
6634	0	31700	
6635	0	31692	
6636	0	31708	
6637	0	31724	
6638	0	31744	
6639	0	31740	
6640	0	31724	
6641	0	31724	
6642	0	31712	
6643	0	31712	
6644	0	31696	
6645	0	31684	
6646	0	31668	
6647	0	31680	
6648	0	31716	
6649	0	31752	
6650	0	31776	
6651	0	31856	
6652	0	31916	
6653	0	31980	
6654	0	32032	
6655	0	32092	
6656	0	32144	
6657	0	32160	
6658	0	32160	
6659	0	32128	
6660	0	32164	
6661	0	32196	
6662	0	32268	
6663	0	32336	
6664	0	32424	
6665	0	32504	
6666	0	32556	
6667	0	32624	
6668	0	32672	
6669	0	32688	
6670	0	32716	
6671	0	32768	
6672	0	32848	
6673	0	32940	
6674	0	33028	
6675	0	33096	
6676	0	33168	
6677	0	33220	
6678	0	33256	
6679	0	33272	
6680	0	33236	
6681	0	33184	
6682	0	33172	
6683	0	33212	
6684	0	33268	
6685	0	33372	
6686	0	33496	
6687	0	33648	
6688	0	33744	
6689	0	33764	
6690	0	33804	
6691	0	33856	
6692	0	33944	
6693	0	34016	
6694	0	34104	
6695	0	34224	
6696	0	34304	
6697	0	34420	
6698	0	34496	
6699	0	34572	
6700	0	34654	
6701	0	34744	
6702	0	34846	
6703	0	34880	
6704	0	34912	
6705	0	34992	
6706	0	35064	
6707	0	35112	
6708	0	35132	
6709	0	35108	
6710	0	35052	
6711	0	34992	
6712	0	34960	
6713	0	34920	
6714	0	34896	
6715	0	34840	
6716	0	34732	
6717	0	34644	
6718	0	34516	
6719	0	34380	
6720	0	34228	
6721	0	34084	
6722	0	33934	
6723	0	33760	
6724	0	33576	
6725	0	33382	
6726	0	33204	
6727	0	33028	
6728	0	32852	
6729	0	32708	
6730	0	32616	
6731	0	32556	
6732	0	32504	
6733	0	32448	
6734	0	32368	
6735	0	32280	
6736	0	32236	
6737	0	32192	
6738	0	32188	
6739	0	32164	
6740	0	32124	
6741	0	32124	
6742	0	32116	
6743	0	32092	
6744	0	32044	
6745	0	32028	
6746	0	31988	
6747	0	31921	
6748	0	31856	
6749	0	31776	
6750	0	31680	
6751	0	31580	
6752	0	31444	
6753	0	31332	
6754	0	31242	
6755	0	31204	
6756	0	31176	
6757	0	31168	
6758	0	31172	
6759	0	31196	
6760	0	31232	
6761	0	31232	
6762	0	31204	
6763	0	31216	
6764	0	31264	
6765	0	31264	
6766	0	31252	
6767	0	31232	
6768	0	31258	
6769	0	31288	
6770	0	31300	
6771	0	31320	
6772	0	31348	
6773	0	31384	
6774	0	31396	
6775	0	31404	
6776	0	31436	
6777	0	31472	
6778	0	31536	
6779	0	31596	
6780	0	31620	
6781	0	31632	
6782	0	31628	
6783	0	31672	
6784	0	31700	
6785	0	31696	
6786	0	31688	
6787	0	31704	
6788	0	31720	
6789	0	31728	
6790	0	31760	
6791	0	31768	
6792	0	31776	
6793	0	31760	
6794	0	31744	
6795	0	31728	
6796	0	31720	
6797	0	31760	
6798	0	31788	
6799	0	31836	
6800	0	31868	
6801	0	31872	
6802	0	31905	
6803	0	31936	
6804	0	31960	
6805	0	31960	
6806	0	31932	
6807	0	31928	
6808	0	31924	
6809	0	31944	
6810	0	31952	
6811	0	31924	
6812	0	31796	
6813	0	31604	
6814	0	31336	
6815	0	30964	
6816	0	30544	
6817	0	30116	
6818	0	29736	
6819	0	29520	
6820	0	29448	
6821	0	29588	
6822	0	29912	
6823	0	30320	
6824	0	30664	
6825	0	30964	
6826	0	31392	
6827	0	31924	
6828	0	32432	
6829	0	32794	
6830	0	33064	
6831	0	33368	
6832	0	33568	
6833	0	33852	
6834	0	34396	
6835	0	35196	
6836	0	36228	
6837	0	37512	
6838	0	39152	
6839	0	41100	
6840	0	43172	
6841	0	45580	
6842	0	48324	
6843	0	51384	
6844	0	54196	
6845	0	56384	
6846	0	58152	
6847	0	59804	
6848	0	61344	
6849	0	62616	
6850	0	63592	
6851	0	64124	
6852	0	63920	
6853	0	63104	
6854	0	61868	
6855	0	60264	
6856	0	58384	
6857	0	56272	
6858	0	53968	
6859	0	51544	
6860	0	49084	
6861	0	46608	
6862	0	43986	
6863	0	41296	
6864	0	38624	
6865	0	35860	
6866	0	33088	
6867	0	30480	
6868	0	28100	
6869	0	26020	
6870	0	24200	
6871	0	22694	
6872	0	21532	
6873	0	20650	
6874	0	19932	
6875	0	19297	
6876	0	18749	
6877	0	18265	
6878	0	17828	
6879	0	17458	
6880	0	17208	
6881	0	17000	
6882	0	16882	
6883	0	16892	
6884	0	16996	
6885	0	17156	
6886	0	17412	
6887	0	17866	
6888	0	18556	
6889	0	19364	
6890	0	20184	
6891	0	20996	
6892	0	21844	
6893	0	22692	
6894	0	23566	
6895	0	24552	
6896	0	25536	
6897	0	26488	
6898	0	27316	
6899	0	28012	
6900	0	28590	
6901	0	29108	
6902	0	29540	
6903	0	29924	
6904	0	30272	
6905	0	30536	
6906	0	30776	
6907	0	31028	
6908	0	31248	
6909	0	31392	
6910	0	31528	
6911	0	31632	
6912	0	31756	
6913	0	31904	
6914	0	32032	
6915	0	32136	
6916	0	32232	
6917	0	32312	
6918	0	32396	
6919	0	32484	
6920	0	32584	
6921	0	32680	
6922	0	32768	
6923	0	32832	
6924	0	32888	
6925	0	32932	
6926	0	32976	
6927	0	32980	
6928	0	32964	
6929	0	32984	
6930	0	33032	
6931	0	33084	
6932	0	33136	
6933	0	33228	
6934	0	33336	
6935	0	33424	
6936	0	33476	
6937	0	33512	
6938	0	33560	
6939	0	33608	
6940	0	33676	
6941	0	33714	
6942	0	33740	
6943	0	33762	
6944	0	33760	
6945	0	33820	
6946	0	33874	
6947	0	33952	
6948	0	33994	
6949	0	34036	
6950	0	34084	
6951	0	34124	
6952	0	34152	
6953	0	34136	
6954	0	34128	
6955	0	34156	
6956	0	34188	
6957	0	34208	
6958	0	34210	
6959	0	34232	
6960	0	34252	
6961	0	34240	
6962	0	34248	
6963	0	34284	
6964	0	34336	
6965	0	34384	
6966	0	34456	
6967	0	34512	
6968	0	34552	
6969	0	34612	
6970	0	34616	
6971	0	34630	
6972	0	34632	
6973	0	34668	
6974	0	34688	
6975	0	34724	
6976	0	34764	
6977	0	34788	
6978	0	34784	
6979	0	34788	
6980	0	34800	
6981	0	34852	
6982	0	34896	
6983	0	34944	
6984	0	34964	
6985	0	34986	
6986	0	34996	
6987	0	35024	
6988	0	35052	
6989	0	35088	
6990	0	35080	
6991	0	35104	
6992	0	35152	
6993	0	35200	
6994	0	35244	
6995	0	35260	
6996	0	35264	
6997	0	35280	
6998	0	35320	
6999	0	35376	
7000	0	35392	
7001	0	35420	
7002	0	35440	
7003	0	35480	
7004	0	35540	
7005	0	35588	
7006	0	35640	
7007	0	35684	
7008	0	35716	
7009	0	35768	
7010	0	35820	
7011	0	35860	
7012	0	35876	
7013	0	35932	
7014	0	35980	
7015	0	36024	
7016	0	36076	
7017	0	36114	
7018	0	36164	
7019	0	36228	
7020	0	36292	
7021	0	36336	
7022	0	36384	
7023	0	36424	
7024	0	36480	
7025	0	36508	
7026	0	36544	
7027	0	36580	
7028	0	36624	
7029	0	36684	
7030	0	36736	
7031	0	36788	
7032	0	36828	
7033	0	36890	
7034	0	36968	
7035	0	37044	
7036	0	37080	
7037	0	37120	
7038	0	37184	
7039	0	37268	
7040	0	37328	
7041	0	37384	
7042	0	37440	
7043	0	37484	
7044	0	37524	
7045	0	37528	
7046	0	37568	
7047	0	37624	
7048	0	37684	
7049	0	37724	
7050	0	37772	
7051	0	37820	
7052	0	37866	
7053	0	37920	
7054	0	37952	
7055	0	37972	
7056	0	37996	
7057	0	38032	
7058	0	38076	
7059	0	38112	
7060	0	38144	
7061	0	38156	
7062	0	38144	
7063	0	38152	
7064	0	38168	
7065	0	38192	
7066	0	38224	
7067	0	38244	
7068	0	38276	
7069	0	38296	
7070	0	38338	
7071	0	38344	
7072	0	38348	
7073	0	38340	
7074	0	38356	
7075	0	38372	
7076	0	38376	
7077	0	38404	
7078	0	38420	
7079	0	38436	
7080	0	38444	
7081	0	38460	
7082	0	38432	
7083	0	38406	
7084	0	38380	
7085	0	38384	
7086	0	38348	
7087	0	38328	
7088	0	38328	
7089	0	38318	
7090	0	38272	
7091	0	38240	
7092	0	38228	
7093	0	38232	
7094	0	38208	
7095	0	38180	
7096	0	38120	
7097	0	38068	
7098	0	38008	
7099	0	37936	
7100	0	37900	
7101	0	37864	
7102	0	37792	
7103	0	37748	
7104	0	37686	
7105	0	37596	
7106	0	37512	
7107	0	37424	
7108	0	37332	
7109	0	37200	
7110	0	37114	
7111	0	37004	
7112	0	36898	
7113	0	36808	
7114	0	36672	
7115	0	36528	
7116	0	36384	
7117	0	36220	
7118	0	36088	
7119	0	35936	
7120	0	35768	
7121	0	35580	
7122	0	35404	
7123	0	35236	
7124	0	35054	
7125	0	34890	
7126	0	34720	
7127	0	34564	
7128	0	34416	
7129	0	34268	
7130	0	34112	
7131	0	33916	
7132	0	33744	
7133	0	33588	
7134	0	33430	
7135	0	33268	
7136	0	33120	
7137	0	32968	
7138	0	32802	
7139	0	32644	
7140	0	32480	
7141	0	32308	
7142	0	32120	
7143	0	31952	
7144	0	31808	
7145	0	31656	
7146	0	31544	
7147	0	31436	
7148	0	31324	
7149	0	31212	
7150	0	31112	
7151	0	31016	
7152	0	30888	
7153	0	30760	
7154	0	30628	
7155	0	30504	
7156	0	30372	
7157	0	30268	
7158	0	30136	
7159	0	30036	
7160	0	29968	
7161	0	29896	
7162	0	29836	
7163	0	29768	
7164	0	29714	
7165	0	29652	
7166	0	29624	
7167	0	29602	
7168	0	29576	
7169	0	29544	
7170	0	29484	
7171	0	29424	
7172	0	29372	
7173	0	29300	
7174	0	29240	
7175	0	29204	
7176	0	29178	
7177	0	29152	
7178	0	29132	
7179	0	29120	
7180	0	29120	
7181	0	29122	
7182	0	29152	
7183	0	29178	
7184	0	29180	
7185	0	29204	
7186	0	29216	
7187	0	29232	
7188	0	29232	
7189	0	29258	
7190	0	29296	
7191	0	29316	
7192	0	29348	
7193	0	29352	
7194	0	29352	
7195	0	29344	
7196	0	29380	
7197	0	29392	
7198	0	29376	
7199	0	29376	
7200	0	29388	
7201	0	29432	
7202	0	29452	
7203	0	29476	
7204	0	29520	
7205	0	29540	
7206	0	29548	
7207	0	29556	
7208	0	29562	
7209	0	29562	
7210	0	29588	
7211	0	29612	
7212	0	29644	
7213	0	29636	
7214	0	29648	
7215	0	29656	
7216	0	29690	
7217	0	29708	
7218	0	29728	
7219	0	29728	
7220	0	29732	
7221	0	29756	
7222	0	29784	
7223	0	29818	
7224	0	29848	
7225	0	29874	
7226	0	29896	
7227	0	29896	
7228	0	29900	
7229	0	29912	
7230	0	29924	
7231	0	29928	
7232	0	29920	
7233	0	29926	
7234	0	29928	
7235	0	29928	
7236	0	29944	
7237	0	29952	
7238	0	29980	
7239	0	29992	
7240	0	30016	
7241	0	30024	
7242	0	30028	
7243	0	30056	
7244	0	30080	
7245	0	30096	
7246	0	30060	
7247	0	30052	
7248	0	30048	
7249	0	30032	
7250	0	30066	
7251	0	30092	
7252	0	30088	
7253	0	30112	
7254	0	30112	
7255	0	30120	
7256	0	30132	
7257	0	30136	
7258	0	30148	
7259	0	30176	
7260	0	30196	
7261	0	30184	
7262	0	30176	
7263	0	30168	
7264	0	30168	
7265	0	30164	
7266	0	30176	
7267	0	30160	
7268	0	30160	
7269	0	30178	
7270	0	30168	
7271	0	30144	
7272	0	30120	
7273	0	30124	
7274	0	30112	
7275	0	30116	
7276	0	30156	
7277	0	30192	
7278	0	30200	
7279	0	30176	
7280	0	30140	
7281	0	30126	
7282	0	30152	
7283	0	30176	
7284	0	30180	
7285	0	30180	
7286	0	30176	
7287	0	30172	
7288	0	30176	
7289	0	30206	
7290	0	30200	
7291	0	30184	
7292	0	30184	
7293	0	30204	
7294	0	30220	
7295	0	30236	
7296	0	30248	
7297	0	30232	
7298	0	30220	
7299	0	30208	
7300	0	30200	
7301	0	30224	
7302	0	30252	
7303	0	30252	
7304	0	30276	
7305	0	30274	
7306	0	30300	
7307	0	30328	
7308	0	30344	
7309	0	30336	
7310	0	30320	
7311	0	30320	
7312	0	30324	
7313	0	30332	
7314	0	30340	
7315	0	30372	
7316	0	30388	
7317	0	30372	
7318	0	30344	
7319	0	30316	
7320	0	30320	
7321	0	30352	
7322	0	30416	
7323	0	30472	
7324	0	30496	
7325	0	30508	
7326	0	30512	
7327	0	30480	
7328	0	30476	
7329	0	30490	
7330	0	30516	
7331	0	30540	
7332	0	30560	
7333	0	30568	
7334	0	30572	
7335	0	30582	
7336	0	30608	
7337	0	30632	
7338	0	30644	
7339	0	30634	
7340	0	30628	
7341	0	30644	
7342	0	30660	
7343	0	30676	
7344	0	30664	
7345	0	30680	
7346	0	30724	
7347	0	30734	
7348	0	30724	
7349	0	30736	
7350	0	30744	
7351	0	30764	
7352	0	30776	
7353	0	30820	
7354	0	30856	
7355	0	30864	
7356	0	30880	
7357	0	30908	
7358	0	30938	
7359	0	30944	
7360	0	30952	
7361	0	30956	
7362	0	30976	
7363	0	31016	
7364	0	31044	
7365	0	31038	
7366	0	31036	
7367	0	31032	
7368	0	31044	
7369	0	31048	
7370	0	31064	
7371	0	31056	
7372	0	31036	
7373	0	31032	
7374	0	31048	
7375	0	31056	
7376	0	31104	
7377	0	31124	
7378	0	31144	
7379	0	31168	
7380	0	31176	
7381	0	31180	
7382	0	31200	
7383	0	31210	
7384	0	31212	
7385	0	31224	
7386	0	31226	
7387	0	31268	
7388	0	31300	
7389	0	31328	
7390	0	31372	
7391	0	31424	
7392	0	31456	
7393	0	31528	
7394	0	31556	
7395	0	31556	
7396	0	31576	
7397	0	31596	
7398	0	31640	
7399	0	31668	
7400	0	31732	
7401	0	31810	
7402	0	31888	
7403	0	31960	
7404	0	32058	
7405	0	32156	
7406	0	32240	
7407	0	32256	
7408	0	32280	
7409	0	32332	
7410	0	32404	
7411	0	32456	
7412	0	32528	
7413	0	32612	
7414	0	32696	
7415	0	32756	
7416	0	32792	
7417	0	32816	
7418	0	32796	
7419	0	32772	
7420	0	32786	
7421	0	32864	
7422	0	32996	
7423	0	33160	
7424	0	33308	
7425	0	33402	
7426	0	33436	
7427	0	33476	
7428	0	33492	
7429	0	33544	
7430	0	33624	
7431	0	33728	
7432	0	33844	
7433	0	33964	
7434	0	34052	
7435	0	34128	
7436	0	34200	
7437	0	34260	
7438	0	34324	
7439	0	34400	
7440	0	34452	
7441	0	34496	
7442	0	34552	
7443	0	34628	
7444	0	34676	
7445	0	34716	
7446	0	34756	
7447	0	34716	
7448	0	34632	
7449	0	34548	
7450	0	34506	
7451	0	34464	
7452	0	34380	
7453	0	34284	
7454	0	34208	
7455	0	34112	
7456	0	34008	
7457	0	33884	
7458	0	33736	
7459	0	33602	
7460	0	33468	
7461	0	33316	
7462	0	33152	
7463	0	32976	
7464	0	32800	
7465	0	32644	
7466	0	32444	
7467	0	32276	
7468	0	32192	
7469	0	32132	
7470	0	32096	
7471	0	32064	
7472	0	32000	
7473	0	31936	
7474	0	31892	
7475	0	31844	
7476	0	31794	
7477	0	31720	
7478	0	31660	
7479	0	31620	
7480	0	31568	
7481	0	31524	
7482	0	31500	
7483	0	31444	
7484	0	31388	
7485	0	31308	
7486	0	31228	
7487	0	31120	
7488	0	31008	
7489	0	30904	
7490	0	30824	
7491	0	30752	
7492	0	30708	
7493	0	30676	
7494	0	30664	
7495	0	30648	
7496	0	30664	
7497	0	30676	
7498	0	30672	
7499	0	30708	
7500	0	30720	
7501	0	30720	
7502	0	30752	
7503	0	30784	
7504	0	30848	
7505	0	30864	
7506	0	30880	
7507	0	30888	
7508	0	30900	
7509	0	30898	
7510	0	30912	
7511	0	30936	
7512	0	30944	
7513	0	30952	
7514	0	30960	
7515	0	30984	
7516	0	30972	
7517	0	30964	
7518	0	30984	
7519	0	31012	
7520	0	31024	
7521	0	31024	
7522	0	31040	
7523	0	31068	
7524	0	31068	
7525	0	31068	
7526	0	31086	
7527	0	31128	
7528	0	31184	
7529	0	31220	
7530	0	31228	
7531	0	31230	
7532	0	31240	
7533	0	31264	
7534	0	31288	
7535	0	31312	
7536	0	31336	
7537	0	31356	
7538	0	31364	
7539	0	31372	
7540	0	31392	
7541	0	31428	
7542	0	31432	
7543	0	31432	
7544	0	31476	
7545	0	31504	
7546	0	31512	
7547	0	31524	
7548	0	31532	
7549	0	31516	
7550	0	31384	
7551	0	31168	
7552	0	30876	
7553	0	30532	
7554	0	30148	
7555	0	29740	
7556	0	29368	
7557	0	29152	
7558	0	29136	
7559	0	29284	
7560	0	29612	
7561	0	30032	
7562	0	30392	
7563	0	30792	
7564	0	31272	
7565	0	31852	
7566	0	32368	
7567	0	32780	
7568	0	33098	
7569	0	33460	
7570	0	33770	
7571	0	34176	
7572	0	34820	
7573	0	35786	
7574	0	36932	
7575	0	38376	
7576	0	40136	
7577	0	42064	
7578	0	44084	
7579	0	46496	
7580	0	49248	
7581	0	52280	
7582	0	55152	
7583	0	57312	
7584	0	58928	
7585	0	60280	
7586	0	61624	
7587	0	62708	
7588	0	63552	
7589	0	63988	
7590	0	63796	
7591	0	63000	
7592	0	61636	
7593	0	59988	
7594	0	58068	
7595	0	55720	
7596	0	53096	
7597	0	50568	
7598	0	48068	
7599	0	45528	
7600	0	42924	
7601	0	40128	
7602	0	37176	
7603	0	34292	
7604	0	31636	
7605	0	29256	
7606	0	27000	
7607	0	24856	
7608	0	23048	
7609	0	21684	
7610	0	20636	
7611	0	19808	
7612	0	19224	
7613	0	18786	
7614	0	18332	
7615	0	17856	
7616	0	17362	
7617	0	16970	
7618	0	16652	
7619	0	16400	
7620	0	16298	
7621	0	16280	
7622	0	16438	
7623	0	16756	
7624	0	17250	
7625	0	17978	
7626	0	18870	
7627	0	19802	
7628	0	20710	
7629	0	21596	
7630	0	22496	
7631	0	23540	
7632	0	24604	
7633	0	25640	
7634	0	26514	
7635	0	27276	
7636	0	27904	
7637	0	28458	
7638	0	28956	
7639	0	29384	
7640	0	29740	
7641	0	30048	
7642	0	30312	
7643	0	30540	
7644	0	30760	
7645	0	30966	
7646	0	31128	
7647	0	31244	
7648	0	31352	
7649	0	31468	
7650	0	31544	
7651	0	31612	
7652	0	31704	
7653	0	31768	
7654	0	31848	
7655	0	31920	
7656	0	31996	
7657	0	32068	
7658	0	32144	
7659	0	32200	
7660	0	32252	
7661	0	32320	
7662	0	32408	
7663	0	32488	
7664	0	32540	
7665	0	32600	
7666	0	32696	
7667	0	32796	
7668	0	32872	
7669	0	32932	
7670	0	33008	
7671	0	33076	
7672	0	33144	
7673	0	33184	
7674	0	33260	
7675	0	33336	
7676	0	33378	
7677	0	33432	
7678	0	33448	
7679	0	33480	
7680	0	33524	
7681	0	33576	
7682	0	33624	
7683	0	33652	
7684	0	33712	
7685	0	33776	
7686	0	33808	
7687	0	33824	
7688	0	33844	
7689	0	33876	
7690	0	33880	
7691	0	33904	
7692	0	33948	
7693	0	34000	
7694	0	34044	
7695	0	34080	
7696	0	34092	
7697	0	34112	
7698	0	34124	
7699	0	34132	
7700	0	34132	
7701	0	34144	
7702	0	34156	
7703	0	34176	
7704	0	34202	
7705	0	34248	
7706	0	34282	
7707	0	34308	
7708	0	34336	
7709	0	34350	
7710	0	34392	
7711	0	34400	
7712	0	34400	
7713	0	34420	
7714	0	34444	
7715	0	34456	
7716	0	34504	
7717	0	34528	
7718	0	34544	
7719	0	34576	
7720	0	34628	
7721	0	34664	
7722	0	34688	
7723	0	34708	
7724	0	34756	
7725	0	34784	
7726	0	34784	
7727	0	34784	
7728	0	34800	
7729	0	34810	
7730	0	34808	
7731	0	34848	
7732	0	34868	
7733	0	34920	
7734	0	34974	
7735	0	35024	
7736	0	35076	
7737	0	35104	
7738	0	35124	
7739	0	35176	
7740	0	35228	
7741	0	35264	
7742	0	35290	
7743	0	35332	
7744	0	35384	
7745	0	35428	
7746	0	35496	
7747	0	35572	
7748	0	35636	
7749	0	35660	
7750	0	35680	
7751	0	35728	
7752	0	35754	
7753	0	35816	
7754	0	35872	
7755	0	35908	
7756	0	35952	
7757	0	36020	
7758	0	36084	
7759	0	36156	
7760	0	36184	
7761	0	36212	
7762	0	36272	
7763	0	36336	
7764	0	36416	
7765	0	36520	
7766	0	36584	
7767	0	36664	
7768	0	36688	
7769	0	36748	
7770	0	36804	
7771	0	36860	
7772	0	36932	
7773	0	36996	
7774	0	37056	
7775	0	37120	
7776	0	37216	
7777	0	37304	
7778	0	37386	
7779	0	37456	
7780	0	37508	
7781	0	37568	
7782	0	37616	
7783	0	37676	
7784	0	37736	
7785	0	37812	
7786	0	37880	
7787	0	37944	
7788	0	37992	
7789	0	38012	
7790	0	38052	
7791	0	38088	
7792	0	38140	
7793	0	38184	
7794	0	38228	
7795	0	38248	
7796	0	38272	
7797	0	38324	
7798	0	38372	
7799	0	38388	
7800	0	38432	
7801	0	38456	
7802	0	38472	
7803	0	38496	
7804	0	38504	
7805	0	38532	
7806	0	38552	
7807	0	38552	
7808	0	38572	
7809	0	38568	
7810	0	38578	
7811	0	38588	
7812	0	38568	
7813	0	38532	
7814	0	38524	
7815	0	38540	
7816	0	38536	
7817	0	38520	
7818	0	38540	
7819	0	38542	
7820	0	38544	
7821	0	38548	
7822	0	38520	
7823	0	38516	
7824	0	38520	
7825	0	38468	
7826	0	38456	
7827	0	38424	
7828	0	38376	
7829	0	38336	
7830	0	38292	
7831	0	38244	
7832	0	38188	
7833	0	38104	
7834	0	38032	
7835	0	37984	
7836	0	37892	
7837	0	37816	
7838	0	37744	
7839	0	37656	
7840	0	37572	
7841	0	37488	
7842	0	37388	
7843	0	37300	
7844	0	37188	
7845	0	37056	
7846	0	36896	
7847	0	36740	
7848	0	36616	
7849	0	36500	
7850	0	36372	
7851	0	36228	
7852	0	36056	
7853	0	35876	
7854	0	35728	
7855	0	35564	
7856	0	35412	
7857	0	35232	
7858	0	35044	
7859	0	34880	
7860	0	34708	
7861	0	34512	
7862	0	34328	
7863	0	34152	
7864	0	33972	
7865	0	33780	
7866	0	33604	
7867	0	33420	
7868	0	33252	
7869	0	33092	
7870	0	32940	
7871	0	32778	
7872	0	32604	
7873	0	32424	
7874	0	32272	
7875	0	32116	
7876	0	31964	
7877	0	31792	
7878	0	31626	
7879	0	31466	
7880	0	31316	
7881	0	31160	
7882	0	31000	
7883	0	30836	
7884	0	30696	
7885	0	30596	
7886	0	30492	
7887	0	30376	
7888	0	30256	
7889	0	30148	
7890	0	30020	
7891	0	29868	
7892	0	29754	
7893	0	29660	
7894	0	29536	
7895	0	29460	
7896	0	29384	
7897	0	29284	
7898	0	29210	
7899	0	29148	
7900	0	29100	
7901	0	29052	
7902	0	28990	
7903	0	28952	
7904	0	28904	
7905	0	28864	
7906	0	28812	
7907	0	28784	
7908	0	28744	
7909	0	28704	
7910	0	28704	
7911	0	28680	
7912	0	28680	
7913	0	28682	
7914	0	28672	
7915	0	28676	
7916	0	28688	
7917	0	28714	
7918	0	28736	
7919	0	28728	
7920	0	28720	
7921	0	28708	
7922	0	28724	
7923	0	28736	
7924	0	28748	
7925	0	28760	
7926	0	28776	
7927	0	28796	
7928	0	28808	
7929	0	28828	
7930	0	28832	
7931	0	28868	
7932	0	28900	
7933	0	28916	
7934	0	28936	
7935	0	28956	
7936	0	28972	
7937	0	28992	
7938	0	29012	
7939	0	29036	
7940	0	29054	
7941	0	29084	
7942	0	29096	
7943	0	29120	
7944	0	29136	
7945	0	29172	
7946	0	29228	
7947	0	29244	
7948	0	29260	
7949	0	29272	
7950	0	29296	
7951	0	29340	
7952	0	29372	
7953	0	29400	
7954	0	29428	
7955	0	29452	
7956	0	29488	
7957	0	29516	
7958	0	29546	
7959	0	29582	
7960	0	29620	
7961	0	29628	
7962	0	29640	
7963	0	29664	
7964	0	29684	
7965	0	29706	
7966	0	29692	
7967	0	29696	
7968	0	29720	
7969	0	29740	
7970	0	29752	
7971	0	29766	
7972	0	29812	
7973	0	29844	
7974	0	29874	
7975	0	29912	
7976	0	29904	
7977	0	29892	
7978	0	29924	
7979	0	29936	
7980	0	29956	
7981	0	29976	
7982	0	29960	
7983	0	29948	
7984	0	29980	
7985	0	30016	
7986	0	30044	
7987	0	30036	
7988	0	30032	
7989	0	30048	
7990	0	30040	
7991	0	30068	
7992	0	30080	
7993	0	30081	
7994	0	30080	
7995	0	30080	
7996	0	30084	
7997	0	30124	
7998	0	30164	
7999	0	30160	
8000	0	30176	
8001	0	30190	
8002	0	30196	
8003	0	30204	
8004	0	30216	
8005	0	30208	
8006	0	30212	
8007	0	30212	
8008	0	30208	
8009	0	30224	
8010	0	30228	
8011	0	30242	
8012	0	30252	
8013	0	30264	
8014	0	30256	
8015	0	30256	
8016	0	30266	
8017	0	30260	
8018	0	30264	
8019	0	30286	
8020	0	30304	
8021	0	30296	
8022	0	30292	
8023	0	30304	
8024	0	30312	
8025	0	30312	
8026	0	30304	
8027	0	30304	
8028	0	30304	
8029	0	30312	
8030	0	30312	
8031	0	30328	
8032	0	30312	
8033	0	30338	
8034	0	30360	
8035	0	30348	
8036	0	30344	
8037	0	30340	
8038	0	30328	
8039	0	30320	
8040	0	30320	
8041	0	30312	
8042	0	30308	
8043	0	30332	
8044	0	30328	
8045	0	30348	
8046	0	30348	
8047	0	30364	
8048	0	30356	
8049	0	30372	
8050	0	30392	
8051	0	30392	
8052	0	30384	
8053	0	30412	
8054	0	30440	
8055	0	30456	
8056	0	30464	
8057	0	30472	
8058	0	30456	
8059	0	30468	
8060	0	30464	
8061	0	30492	
8062	0	30536	
8063	0	30576	
8064	0	30596	
8065	0	30592	
8066	0	30600	
8067	0	30624	
8068	0	30636	
8069	0	30658	
8070	0	30680	
8071	0	30700	
8072	0	30708	
8073	0	30710	
8074	0	30732	
8075	0	30760	
8076	0	30784	
8077	0	30808	
8078	0	30814	
8079	0	30808	
8080	0	30812	
8081	0	30816	
8082	0	30834	
8083	0	30868	
8084	0	30884	
8085	0	30912	
8086	0	30920	
8087	0	30936	
8088	0	30968	
8089	0	30976	
8090	0	30986	
8091	0	30996	
8092	0	31020	
8093	0	31040	
8094	0	31060	
8095	0	31088	
8096	0	31080	
8097	0	31068	
8098	0	31088	
8099	0	31108	
8100	0	31124	
8101	0	31160	
8102	0	31180	
8103	0	31192	
8104	0	31204	
8105	0	31184	
8106	0	31168	
8107	0	31160	
8108	0	31168	
8109	0	31208	
8110	0	31256	
8111	0	31276	
8112	0	31284	
8113	0	31304	
8114	0	31320	
8115	0	31328	
8116	0	31340	
8117	0	31336	
8118	0	31332	
8119	0	31332	
8120	0	31360	
8121	0	31368	
8122	0	31372	
8123	0	31376	
8124	0	31388	
8125	0	31416	
8126	0	31436	
8127	0	31444	
8128	0	31452	
8129	0	31456	
8130	0	31464	
8131	0	31496	
8132	0	31524	
8133	0	31528	
8134	0	31536	
8135	0	31532	
8136	0	31560	
8137	0	31572	
8138	0	31584	
8139	0	31604	
8140	0	31624	
8141	0	31648	
8142	0	31672	
8143	0	31662	
8144	0	31660	
8145	0	31660	
8146	0	31672	
8147	0	31708	
8148	0	31748	
8149	0	31756	
8150	0	31754	
8151	0	31752	
8152	0	31754	
8153	0	31800	
8154	0	31812	
8155	0	31820	
8156	0	31828	
8157	0	31852	
8158	0	31896	
8159	0	31934	
8160	0	31976	
8161	0	32012	
8162	0	32024	
8163	0	32052	
8164	0	32062	
8165	0	32072	
8166	0	32100	
8167	0	32156	
8168	0	32192	
8169	0	32256	
8170	0	32346	
8171	0	32444	
8172	0	32508	
8173	0	32588	
8174	0	32648	
8175	0	32700	
8176	0	32760	
8177	0	32794	
8178	0	32820	
8179	0	32844	
8180	0	32876	
8181	0	32920	
8182	0	32986	
8183	0	33056	
8184	0	33092	
8185	0	33088	
8186	0	33068	
8187	0	33064	
8188	0	33056	
8189	0	33088	
8190	0	33184	
8191	0	33324	
8192	0	33504	
8193	0	33652	
8194	0	33760	
8195	0	33780	
8196	0	33788	
8197	0	33800	
8198	0	33836	
8199	0	33896	
8200	0	33982	
8201	0	34080	
8202	0	34180	
8203	0	34252	
8204	0	34328	
8205	0	34380	
8206	0	34484	
8207	0	34576	
8208	0	34648	
8209	0	34704	
8210	0	34728	
8211	0	34772	
8212	0	34836	
8213	0	34856	
8214	0	34840	
8215	0	34810	
8216	0	34732	
8217	0	34676	
8218	0	34600	
8219	0	34584	
8220	0	34588	
8221	0	34524	
8222	0	34448	
8223	0	34336	
8224	0	34236	
8225	0	34120	
8226	0	33988	
8227	0	33844	
8228	0	33716	
8229	0	33574	
8230	0	33388	
8231	0	33228	
8232	0	33064	
8233	0	32932	
8234	0	32762	
8235	0	32568	
8236	0	32428	
8237	0	32380	
8238	0	32336	
8239	0	32296	
8240	0	32248	
8241	0	32200	
8242	0	32138	
8243	0	32096	
8244	0	32060	
8245	0	31992	
8246	0	31908	
8247	0	31848	
8248	0	31826	
8249	0	31788	
8250	0	31744	
8251	0	31668	
8252	0	31620	
8253	0	31560	
8254	0	31512	
8255	0	31440	
8256	0	31352	
8257	0	31232	
8258	0	31092	
8259	0	31000	
8260	0	30922	
8261	0	30888	
8262	0	30880	
8263	0	30864	
8264	0	30840	
8265	0	30852	
8266	0	30888	
8267	0	30914	
8268	0	30924	
8269	0	30916	
8270	0	30948	
8271	0	30964	
8272	0	30984	
8273	0	31008	
8274	0	31000	
8275	0	31008	
8276	0	31008	
8277	0	31012	
8278	0	31028	
8279	0	31034	
8280	0	31048	
8281	0	31064	
8282	0	31064	
8283	0	31076	
8284	0	31092	
8285	0	31096	
8286	0	31088	
8287	0	31092	
8288	0	31096	
8289	0	31112	
8290	0	31116	
8291	0	31120	
8292	0	31132	
8293	0	31144	
8294	0	31164	
8295	0	31172	
8296	0	31228	
8297	0	31280	
8298	0	31276	
8299	0	31280	
8300	0	31288	
8301	0	31280	
8302	0	31284	
8303	0	31280	
8304	0	31308	
8305	0	31336	
8306	0	31348	
8307	0	31356	
8308	0	31364	
8309	0	31388	
8310	0	31420	
8311	0	31432	
8312	0	31460	
8313	0	31528	
8314	0	31576	
8315	0	31584	
8316	0	31596	
8317	0	31600	
8318	0	31592	
8319	0	31472	
8320	0	31264	
8321	0	31008	
8322	0	30704	
8323	0	30328	
8324	0	29948	
8325	0	29632	
8326	0	29456	
8327	0	29464	
8328	0	29644	
8329	0	29986	
8330	0	30412	
8331	0	30816	
8332	0	31240	
8333	0	31716	
8334	0	32306	
8335	0	32840	
8336	0	33264	
8337	0	33616	
8338	0	33960	
8339	0	34312	
8340	0	34692	
8341	0	35332	
8342	0	36228	
8343	0	37312	
8344	0	38656	
8345	0	40328	
8346	0	42140	
8347	0	44116	
8348	0	46480	
8349	0	49192	
8350	0	52112	
8351	0	54824	
8352	0	56828	
8353	0	58160	
8354	0	59300	
8355	0	60448	
8356	0	61356	
8357	0	62068	
8358	0	62564	
8359	0	62540	
8360	0	61812	
8361	0	60478	
8362	0	58992	
8363	0	57028	
8364	0	54632	
8365	0	52064	
8366	0	49544	
8367	0	47068	
8368	0	44612	
8369	0	41984	
8370	0	39104	
8371	0	36172	
8372	0	33456	
8373	0	31000	
8374	0	28700	
8375	0	26476	
8376	0	24424	
8377	0	22692	
8378	0	21360	
8379	0	20416	
8380	0	19686	
8381	0	19166	
8382	0	18758	
8383	0	18332	
8384	0	17860	
8385	0	17402	
8386	0	17014	
8387	0	16686	
8388	0	16500	
8389	0	16417	
8390	0	16464	
8391	0	16770	
8392	0	17216	
8393	0	17910	
8394	0	18724	
8395	0	19570	
8396	0	20448	
8397	0	21356	
8398	0	22304	
8399	0	23354	
8400	0	24468	
8401	0	25560	
8402	0	26496	
8403	0	27284	
8404	0	27946	
8405	0	28504	
8406	0	28988	
8407	0	29424	
8408	0	29760	
8409	0	30028	
8410	0	30320	
8411	0	30576	
8412	0	30824	
8413	0	31008	
8414	0	31168	
8415	0	31296	
8416	0	31384	
8417	0	31492	
8418	0	31564	
8419	0	31640	
8420	0	31708	
8421	0	31772	
8422	0	31848	
8423	0	31904	
8424	0	31940	
8425	0	32026	
8426	0	32096	
8427	0	32196	
8428	0	32280	
8429	0	32368	
8430	0	32434	
8431	0	32504	
8432	0	32576	
8433	0	32640	
8434	0	32696	
8435	0	32764	
8436	0	32836	
8437	0	32896	
8438	0	32948	
8439	0	33024	
8440	0	33084	
8441	0	33150	
8442	0	33216	
8443	0	33256	
8444	0	33332	
8445	0	33378	
8446	0	33404	
8447	0	33452	
8448	0	33504	
8449	0	33536	
8450	0	33556	
8451	0	33604	
8452	0	33662	
8453	0	33738	
8454	0	33780	
8455	0	33812	
8456	0	33840	
8457	0	33888	
8458	0	33876	
8459	0	33872	
8460	0	33888	
8461	0	33920	
8462	0	33960	
8463	0	33984	
8464	0	34016	
8465	0	34042	
8466	0	34056	
8467	0	34092	
8468	0	34140	
8469	0	34148	
8470	0	34176	
8471	0	34188	
8472	0	34192	
8473	0	34180	
8474	0	34202	
8475	0	34240	
8476	0	34292	
8477	0	34328	
8478	0	34360	
8479	0	34360	
8480	0	34378	
8481	0	34396	
8482	0	34412	
8483	0	34436	
8484	0	34456	
8485	0	34476	
8486	0	34520	
8487	0	34560	
8488	0	34588	
8489	0	34624	
8490	0	34658	
8491	0	34684	
8492	0	34680	
8493	0	34696	
8494	0	34720	
8495	0	34740	
8496	0	34768	
8497	0	34776	
8498	0	34808	
8499	0	34840	
8500	0	34864	
8501	0	34880	
8502	0	34896	
8503	0	34936	
8504	0	34960	
8505	0	34992	
8506	0	35060	
8507	0	35100	
8508	0	35120	
8509	0	35148	
8510	0	35196	
8511	0	35240	
8512	0	35256	
8513	0	35304	
8514	0	35360	
8515	0	35440	
8516	0	35504	
8517	0	35544	
8518	0	35612	
8519	0	35668	
8520	0	35720	
8521	0	35756	
8522	0	35792	
8523	0	35820	
8524	0	35888	
8525	0	35960	
8526	0	36036	
8527	0	36112	
8528	0	36164	
8529	0	36232	
8530	0	36280	
8531	0	36336	
8532	0	36392	
8533	0	36464	
8534	0	36524	
8535	0	36544	
8536	0	36616	
8537	0	36696	
8538	0	36752	
8539	0	36808	
8540	0	36864	
8541	0	36912	
8542	0	36988	
8543	0	37064	
8544	0	37168	
8545	0	37248	
8546	0	37296	
8547	0	37364	
8548	0	37424	
8549	0	37472	
8550	0	37528	
8551	0	37608	
8552	0	37660	
8553	0	37716	
8554	0	37756	
8555	0	37812	
8556	0	37892	
8557	0	37940	
8558	0	37980	
8559	0	38040	
8560	0	38100	
8561	0	38148	
8562	0	38184	
8563	0	38224	
8564	0	38260	
8565	0	38304	
8566	0	38352	
8567	0	38416	
8568	0	38464	
8569	0	38508	
8570	0	38552	
8571	0	38604	
8572	0	38624	
8573	0	38624	
8574	0	38636	
8575	0	38660	
8576	0	38696	
8577	0	38712	
8578	0	38728	
8579	0	38736	
8580	0	38736	
8581	0	38760	
8582	0	38776	
8583	0	38800	
8584	0	38796	
8585	0	38800	
8586	0	38812	
8587	0	38792	
8588	0	38788	
8589	0	38792	
8590	0	38808	
8591	0	38810	
