# OpenSignals Text File Format. Version 1
# {"00:07:80:4B:15:F7": {"position": 0, "device": "biosignalsplux", "device name": "00:07:80:4B:15:F7", "device connection": "BTH00:07:80:4B:15:F7", "sampling rate": 1000, "resolution": [16], "firmware version": 775, "comments": "", "keywords": "", "mode": 0, "sync interval": 2, "date": "2023-4-27", "time": "16:44:33.159", "channels": [1], "sensor": ["ECG"], "label": ["CH1"], "column": ["nSeq", "DI", "CH1"], "special": [{"SpO2": [80, 40, 5, 4, 3, 3]}, {"SpO2": [80, 40, 5, 4, 3, 3]}, {"SpO2": [80, 40, 5, 4, 3, 3]}, {"SpO2": [80, 40, 5, 4, 3, 3]}, {"SpO2": [80, 40, 5, 4, 3, 3]}, {"SpO2": [80, 40, 5, 4, 3, 3]}, {"SpO2": [80, 40, 5, 4, 3, 3]}, {"SpO2": [80, 40, 5, 4, 3, 3]}], "digital IO": [0, 1], "sleeve color": ["green"], "convertedValues": 0}}
# EndOfHeader
0	0	32244	
1	0	32312	
2	0	32376	
3	0	32440	
4	0	32492	
5	0	32544	
6	0	32620	
7	0	32648	
8	0	32692	
9	0	32708	
10	0	32676	
11	0	32650	
12	0	32664	
13	0	32708	
14	0	32742	
15	0	32760	
16	0	32780	
17	0	32816	
18	0	32856	
19	0	32912	
20	0	33008	
21	0	33064	
22	0	33100	
23	0	33180	
24	0	33236	
25	0	33272	
26	0	33304	
27	0	33346	
28	0	33422	
29	0	33478	
30	0	33524	
31	0	33564	
32	0	33600	
33	0	33640	
34	0	33688	
35	0	33720	
36	0	33744	
37	0	33762	
38	0	33812	
39	0	33880	
40	0	33928	
41	0	33968	
42	0	34012	
43	0	34088	
44	0	34124	
45	0	34188	
46	0	34264	
47	0	34352	
48	0	34424	
49	0	34500	
50	0	34560	
51	0	34628	
52	0	34656	
53	0	34700	
54	0	34776	
55	0	34828	
56	0	34872	
57	0	34928	
58	0	34960	
59	0	35040	
60	0	35096	
61	0	35170	
62	0	35252	
63	0	35320	
64	0	35384	
65	0	35472	
66	0	35552	
67	0	35640	
68	0	35728	
69	0	35776	
70	0	35784	
71	0	35800	
72	0	35816	
73	0	35866	
74	0	35904	
75	0	35944	
76	0	36004	
77	0	36080	
78	0	36160	
79	0	36192	
80	0	36260	
81	0	36352	
82	0	36460	
83	0	36544	
84	0	36600	
85	0	36668	
86	0	36720	
87	0	36784	
88	0	36856	
89	0	36942	
90	0	37028	
91	0	37116	
92	0	37204	
93	0	37296	
94	0	37400	
95	0	37458	
96	0	37520	
97	0	37628	
98	0	37744	
99	0	37832	
100	0	37944	
101	0	38064	
102	0	38208	
103	0	38352	
104	0	38522	
105	0	38680	
106	0	38816	
107	0	38960	
108	0	39068	
109	0	39152	
110	0	39216	
111	0	39264	
112	0	39336	
113	0	39440	
114	0	39548	
115	0	39664	
116	0	39748	
117	0	39816	
118	0	39904	
119	0	39988	
120	0	40064	
121	0	40118	
122	0	40160	
123	0	40160	
124	0	40180	
125	0	40240	
126	0	40276	
127	0	40270	
128	0	40272	
129	0	40296	
130	0	40312	
131	0	40300	
132	0	40344	
133	0	40352	
134	0	40328	
135	0	40264	
136	0	40226	
137	0	40200	
138	0	40176	
139	0	40132	
140	0	40080	
141	0	40054	
142	0	40056	
143	0	40040	
144	0	40020	
145	0	39996	
146	0	39984	
147	0	39924	
148	0	39864	
149	0	39736	
150	0	39564	
151	0	39452	
152	0	39320	
153	0	39188	
154	0	39052	
155	0	38884	
156	0	38728	
157	0	38538	
158	0	38368	
159	0	38192	
160	0	37996	
161	0	37796	
162	0	37572	
163	0	37380	
164	0	37168	
165	0	36956	
166	0	36736	
167	0	36488	
168	0	36232	
169	0	35968	
170	0	35728	
171	0	35444	
172	0	35136	
173	0	34840	
174	0	34568	
175	0	34297	
176	0	33976	
177	0	33696	
178	0	33408	
179	0	33092	
180	0	32772	
181	0	32504	
182	0	32276	
183	0	32054	
184	0	31800	
185	0	31568	
186	0	31328	
187	0	31092	
188	0	30869	
189	0	30692	
190	0	30508	
191	0	30292	
192	0	30096	
193	0	29884	
194	0	29684	
195	0	29508	
196	0	29290	
197	0	29084	
198	0	28876	
199	0	28680	
200	0	28476	
201	0	28312	
202	0	28184	
203	0	28064	
204	0	27918	
205	0	27764	
206	0	27624	
207	0	27488	
208	0	27346	
209	0	27216	
210	0	27084	
211	0	26956	
212	0	26840	
213	0	26740	
214	0	26644	
215	0	26562	
216	0	26464	
217	0	26416	
218	0	26400	
219	0	26362	
220	0	26284	
221	0	26240	
222	0	26236	
223	0	26244	
224	0	26240	
225	0	26230	
226	0	26226	
227	0	26209	
228	0	26188	
229	0	26188	
230	0	26180	
231	0	26144	
232	0	26132	
233	0	26140	
234	0	26156	
235	0	26160	
236	0	26168	
237	0	26180	
238	0	26196	
239	0	26212	
240	0	26202	
241	0	26208	
242	0	26236	
243	0	26290	
244	0	26322	
245	0	26370	
246	0	26404	
247	0	26432	
248	0	26462	
249	0	26480	
250	0	26520	
251	0	26572	
252	0	26628	
253	0	26668	
254	0	26708	
255	0	26732	
256	0	26784	
257	0	26836	
258	0	26886	
259	0	26942	
260	0	27002	
261	0	27056	
262	0	27104	
263	0	27192	
264	0	27248	
265	0	27300	
266	0	27338	
267	0	27440	
268	0	27544	
269	0	27618	
270	0	27668	
271	0	27716	
272	0	27752	
273	0	27788	
274	0	27808	
275	0	27836	
276	0	27848	
277	0	27908	
278	0	27956	
279	0	27984	
280	0	28016	
281	0	28068	
282	0	28144	
283	0	28228	
284	0	28284	
285	0	28332	
286	0	28380	
287	0	28424	
288	0	28498	
289	0	28584	
290	0	28666	
291	0	28744	
292	0	28748	
293	0	28754	
294	0	28792	
295	0	28834	
296	0	28876	
297	0	28914	
298	0	28944	
299	0	28964	
300	0	29024	
301	0	29104	
302	0	29180	
303	0	29240	
304	0	29276	
305	0	29328	
306	0	29384	
307	0	29448	
308	0	29472	
309	0	29504	
310	0	29544	
311	0	29528	
312	0	29536	
313	0	29586	
314	0	29646	
315	0	29696	
316	0	29712	
317	0	29706	
318	0	29698	
319	0	29696	
320	0	29744	
321	0	29796	
322	0	29864	
323	0	29888	
324	0	29880	
325	0	29888	
326	0	29952	
327	0	30020	
328	0	30066	
329	0	30096	
330	0	30136	
331	0	30168	
332	0	30232	
333	0	30286	
334	0	30308	
335	0	30328	
336	0	30312	
337	0	30312	
338	0	30272	
339	0	30284	
340	0	30348	
341	0	30364	
342	0	30400	
343	0	30432	
344	0	30488	
345	0	30540	
346	0	30628	
347	0	30678	
348	0	30712	
349	0	30744	
350	0	30812	
351	0	30824	
352	0	30794	
353	0	30776	
354	0	30776	
355	0	30806	
356	0	30784	
357	0	30736	
358	0	30700	
359	0	30708	
360	0	30716	
361	0	30744	
362	0	30744	
363	0	30746	
364	0	30736	
365	0	30728	
366	0	30746	
367	0	30784	
368	0	30820	
369	0	30844	
370	0	30868	
371	0	30904	
372	0	30944	
373	0	30964	
374	0	31000	
375	0	30978	
376	0	30944	
377	0	30936	
378	0	30944	
379	0	30944	
380	0	30960	
381	0	30960	
382	0	30994	
383	0	31026	
384	0	31010	
385	0	30996	
386	0	30984	
387	0	30980	
388	0	30996	
389	0	31024	
390	0	31052	
391	0	31044	
392	0	31014	
393	0	30960	
394	0	30928	
395	0	30936	
396	0	30968	
397	0	30972	
398	0	30916	
399	0	30848	
400	0	30852	
401	0	30864	
402	0	30896	
403	0	30940	
404	0	30972	
405	0	30992	
406	0	31032	
407	0	31088	
408	0	31104	
409	0	31134	
410	0	31146	
411	0	31128	
412	0	31144	
413	0	31160	
414	0	31156	
415	0	31176	
416	0	31204	
417	0	31196	
418	0	31204	
419	0	31198	
420	0	31188	
421	0	31216	
422	0	31258	
423	0	31304	
424	0	31304	
425	0	31308	
426	0	31348	
427	0	31400	
428	0	31440	
429	0	31480	
430	0	31512	
431	0	31496	
432	0	31456	
433	0	31436	
434	0	31456	
435	0	31488	
436	0	31464	
437	0	31388	
438	0	31352	
439	0	31344	
440	0	31362	
441	0	31392	
442	0	31416	
443	0	31434	
444	0	31444	
445	0	31422	
446	0	31472	
447	0	31552	
448	0	31608	
449	0	31624	
450	0	31612	
451	0	31616	
452	0	31632	
453	0	31636	
454	0	31664	
455	0	31672	
456	0	31672	
457	0	31656	
458	0	31636	
459	0	31632	
460	0	31636	
461	0	31658	
462	0	31644	
463	0	31644	
464	0	31652	
465	0	31668	
466	0	31684	
467	0	31702	
468	0	31732	
469	0	31740	
470	0	31728	
471	0	31732	
472	0	31744	
473	0	31800	
474	0	31856	
475	0	31882	
476	0	31904	
477	0	31884	
478	0	31840	
479	0	31820	
480	0	31816	
481	0	31828	
482	0	31864	
483	0	31900	
484	0	31928	
485	0	31936	
486	0	31948	
487	0	31960	
488	0	31984	
489	0	32016	
490	0	32022	
491	0	32044	
492	0	32040	
493	0	32040	
494	0	32012	
495	0	32000	
496	0	32012	
497	0	32032	
498	0	32036	
499	0	32024	
500	0	32000	
501	0	32018	
502	0	32028	
503	0	31992	
504	0	32020	
505	0	32060	
506	0	32100	
507	0	32120	
508	0	32132	
509	0	32180	
510	0	32196	
511	0	32208	
512	0	32208	
513	0	32184	
514	0	32160	
515	0	32168	
516	0	32208	
517	0	32208	
518	0	32172	
519	0	32148	
520	0	32140	
521	0	32144	
522	0	32156	
523	0	32192	
524	0	32250	
525	0	32264	
526	0	32284	
527	0	32308	
528	0	32328	
529	0	32364	
530	0	32384	
531	0	32384	
532	0	32352	
533	0	32360	
534	0	32372	
535	0	32404	
536	0	32392	
537	0	32352	
538	0	32314	
539	0	32288	
540	0	32332	
541	0	32376	
542	0	32380	
543	0	32364	
544	0	32352	
545	0	32368	
546	0	32356	
547	0	32348	
548	0	32388	
549	0	32440	
550	0	32476	
551	0	32492	
552	0	32492	
553	0	32474	
554	0	32456	
555	0	32424	
556	0	32416	
557	0	32432	
558	0	32424	
559	0	32412	
560	0	32404	
561	0	32416	
562	0	32460	
563	0	32528	
564	0	32564	
565	0	32596	
566	0	32668	
567	0	32692	
568	0	32676	
569	0	32644	
570	0	32640	
571	0	32612	
572	0	32616	
573	0	32600	
574	0	32620	
575	0	32648	
576	0	32660	
577	0	32624	
578	0	32576	
579	0	32608	
580	0	32640	
581	0	32624	
582	0	32632	
583	0	32632	
584	0	32656	
585	0	32680	
586	0	32726	
587	0	32744	
588	0	32744	
589	0	32764	
590	0	32784	
591	0	32784	
592	0	32800	
593	0	32810	
594	0	32808	
595	0	32798	
596	0	32788	
597	0	32772	
598	0	32760	
599	0	32764	
600	0	32772	
601	0	32772	
602	0	32780	
603	0	32770	
604	0	32792	
605	0	32844	
606	0	32858	
607	0	32868	
608	0	32834	
609	0	32794	
610	0	32824	
611	0	32864	
612	0	32896	
613	0	32906	
614	0	32900	
615	0	32912	
616	0	32888	
617	0	32856	
618	0	32800	
619	0	32792	
620	0	32816	
621	0	32830	
622	0	32864	
623	0	32896	
624	0	32904	
625	0	32928	
626	0	32972	
627	0	33002	
628	0	32988	
629	0	32964	
630	0	32980	
631	0	33020	
632	0	33048	
633	0	33048	
634	0	33016	
635	0	33004	
636	0	33012	
637	0	33028	
638	0	33064	
639	0	33060	
640	0	33058	
641	0	33076	
642	0	33100	
643	0	33120	
644	0	33124	
645	0	33140	
646	0	33122	
647	0	33089	
648	0	33076	
649	0	33056	
650	0	33064	
651	0	33056	
652	0	33060	
653	0	33064	
654	0	33064	
655	0	33116	
656	0	33122	
657	0	33118	
658	0	33128	
659	0	33140	
660	0	33140	
661	0	33092	
662	0	33060	
663	0	33060	
664	0	33092	
665	0	33136	
666	0	33150	
667	0	33154	
668	0	33172	
669	0	33172	
670	0	33200	
671	0	33204	
672	0	33210	
673	0	33236	
674	0	33268	
675	0	33248	
676	0	33240	
677	0	33216	
678	0	33204	
679	0	33176	
680	0	33172	
681	0	33192	
682	0	33216	
683	0	33216	
684	0	33272	
685	0	33352	
686	0	33404	
687	0	33416	
688	0	33428	
689	0	33372	
690	0	33268	
691	0	33168	
692	0	33116	
693	0	33088	
694	0	33114	
695	0	33144	
696	0	33140	
697	0	33130	
698	0	33056	
699	0	32972	
700	0	32912	
701	0	32912	
702	0	32932	
703	0	32940	
704	0	32976	
705	0	33040	
706	0	33098	
707	0	33152	
708	0	33176	
709	0	33224	
710	0	33296	
711	0	33416	
712	0	33504	
713	0	33512	
714	0	33468	
715	0	33392	
716	0	33352	
717	0	33336	
718	0	33328	
719	0	33344	
720	0	33416	
721	0	33528	
722	0	33592	
723	0	33656	
724	0	33696	
725	0	33706	
726	0	33756	
727	0	33850	
728	0	33956	
729	0	34104	
730	0	34216	
731	0	34328	
732	0	34360	
733	0	34288	
734	0	34196	
735	0	34082	
736	0	34012	
737	0	33992	
738	0	33981	
739	0	33996	
740	0	33992	
741	0	33960	
742	0	33996	
743	0	34064	
744	0	34112	
745	0	34152	
746	0	34220	
747	0	34256	
748	0	34320	
749	0	34388	
750	0	34452	
751	0	34520	
752	0	34520	
753	0	34444	
754	0	34360	
755	0	34284	
756	0	34196	
757	0	34181	
758	0	34196	
759	0	34164	
760	0	34100	
761	0	34044	
762	0	33948	
763	0	33780	
764	0	33532	
765	0	33276	
766	0	33004	
767	0	32830	
768	0	32768	
769	0	32774	
770	0	32802	
771	0	32816	
772	0	32852	
773	0	32864	
774	0	32878	
775	0	32908	
776	0	32952	
777	0	32964	
778	0	32944	
779	0	32936	
780	0	32944	
781	0	32944	
782	0	32920	
783	0	32940	
784	0	32980	
785	0	33016	
786	0	33040	
787	0	33054	
788	0	33068	
789	0	33076	
790	0	33112	
791	0	33108	
792	0	33108	
793	0	33108	
794	0	33120	
795	0	33140	
796	0	33148	
797	0	33156	
798	0	33144	
799	0	33160	
800	0	33180	
801	0	33212	
802	0	33252	
803	0	33280	
804	0	33304	
805	0	33360	
806	0	33432	
807	0	33440	
808	0	33456	
809	0	33500	
810	0	33528	
811	0	33564	
812	0	33604	
813	0	33624	
814	0	33672	
815	0	33650	
816	0	33624	
817	0	33644	
818	0	33624	
819	0	33570	
820	0	33484	
821	0	33344	
822	0	33160	
823	0	32952	
824	0	32664	
825	0	32244	
826	0	31660	
827	0	31008	
828	0	30370	
829	0	29832	
830	0	29480	
831	0	29332	
832	0	29432	
833	0	29636	
834	0	29988	
835	0	30508	
836	0	31156	
837	0	32028	
838	0	33152	
839	0	34428	
840	0	35800	
841	0	37288	
842	0	38964	
843	0	40976	
844	0	43224	
845	0	45748	
846	0	48516	
847	0	51428	
848	0	54404	
849	0	57584	
850	0	60888	
851	0	63140	
852	0	64340	
853	0	64952	
854	0	65216	
855	0	65312	
856	0	65312	
857	0	65236	
858	0	65160	
859	0	65024	
860	0	64920	
861	0	64784	
862	0	64668	
863	0	64520	
864	0	64400	
865	0	64276	
866	0	64136	
867	0	60996	
868	0	54026	
869	0	47524	
870	0	41920	
871	0	37056	
872	0	32956	
873	0	29644	
874	0	27164	
875	0	25492	
876	0	24617	
877	0	24126	
878	0	23788	
879	0	23524	
880	0	23338	
881	0	23132	
882	0	22948	
883	0	22856	
884	0	22876	
885	0	22948	
886	0	23112	
887	0	23366	
888	0	23700	
889	0	24088	
890	0	24652	
891	0	25372	
892	0	26064	
893	0	26716	
894	0	27288	
895	0	27748	
896	0	28084	
897	0	28340	
898	0	28568	
899	0	28820	
900	0	29012	
901	0	29160	
902	0	29260	
903	0	29344	
904	0	29412	
905	0	29472	
906	0	29488	
907	0	29504	
908	0	29488	
909	0	29488	
910	0	29484	
911	0	29474	
912	0	29488	
913	0	29498	
914	0	29528	
915	0	29570	
916	0	29622	
917	0	29674	
918	0	29716	
919	0	29728	
920	0	29748	
921	0	29768	
922	0	29814	
923	0	29844	
924	0	29880	
925	0	29976	
926	0	30072	
927	0	30168	
928	0	30232	
929	0	30260	
930	0	30300	
931	0	30333	
932	0	30368	
933	0	30424	
934	0	30468	
935	0	30496	
936	0	30538	
937	0	30584	
938	0	30608	
939	0	30664	
940	0	30712	
941	0	30760	
942	0	30784	
943	0	30820	
944	0	30864	
945	0	30944	
946	0	31010	
947	0	31074	
948	0	31152	
949	0	31220	
950	0	31256	
951	0	31280	
952	0	31306	
953	0	31332	
954	0	31380	
955	0	31392	
956	0	31412	
957	0	31440	
958	0	31450	
959	0	31440	
960	0	31450	
961	0	31512	
962	0	31538	
963	0	31568	
964	0	31584	
965	0	31656	
966	0	31722	
967	0	31768	
968	0	31820	
969	0	31890	
970	0	31926	
971	0	31956	
972	0	31980	
973	0	32004	
974	0	32032	
975	0	32090	
976	0	32148	
977	0	32188	
978	0	32232	
979	0	32262	
980	0	32312	
981	0	32336	
982	0	32332	
983	0	32336	
984	0	32388	
985	0	32448	
986	0	32508	
987	0	32544	
988	0	32552	
989	0	32560	
990	0	32580	
991	0	32584	
992	0	32632	
993	0	32680	
994	0	32696	
995	0	32696	
996	0	32750	
997	0	32808	
998	0	32842	
999	0	32864	
1000	0	32884	
1001	0	32934	
1002	0	33008	
1003	0	33088	
1004	0	33172	
1005	0	33248	
1006	0	33276	
1007	0	33296	
1008	0	33332	
1009	0	33388	
1010	0	33448	
1011	0	33528	
1012	0	33572	
1013	0	33634	
1014	0	33636	
1015	0	33668	
1016	0	33664	
1017	0	33676	
1018	0	33724	
1019	0	33784	
1020	0	33816	
1021	0	33836	
1022	0	33860	
1023	0	33900	
1024	0	33952	
1025	0	34016	
1026	0	34080	
1027	0	34168	
1028	0	34256	
1029	0	34332	
1030	0	34400	
1031	0	34456	
1032	0	34492	
1033	0	34544	
1034	0	34632	
1035	0	34708	
1036	0	34748	
1037	0	34768	
1038	0	34816	
1039	0	34884	
1040	0	34944	
1041	0	35012	
1042	0	35080	
1043	0	35148	
1044	0	35204	
1045	0	35236	
1046	0	35280	
1047	0	35328	
1048	0	35392	
1049	0	35460	
1050	0	35568	
1051	0	35656	
1052	0	35736	
1053	0	35792	
1054	0	35872	
1055	0	35962	
1056	0	36032	
1057	0	36156	
1058	0	36236	
1059	0	36264	
1060	0	36316	
1061	0	36416	
1062	0	36520	
1063	0	36628	
1064	0	36720	
1065	0	36852	
1066	0	36980	
1067	0	37120	
1068	0	37248	
1069	0	37344	
1070	0	37432	
1071	0	37530	
1072	0	37624	
1073	0	37712	
1074	0	37816	
1075	0	37920	
1076	0	38040	
1077	0	38148	
1078	0	38242	
1079	0	38336	
1080	0	38460	
1081	0	38548	
1082	0	38656	
1083	0	38772	
1084	0	38848	
1085	0	38944	
1086	0	39066	
1087	0	39196	
1088	0	39268	
1089	0	39368	
1090	0	39456	
1091	0	39552	
1092	0	39628	
1093	0	39708	
1094	0	39848	
1095	0	39952	
1096	0	40048	
1097	0	40108	
1098	0	40172	
1099	0	40256	
1100	0	40364	
1101	0	40440	
1102	0	40504	
1103	0	40580	
1104	0	40652	
1105	0	40708	
1106	0	40766	
1107	0	40840	
1108	0	40888	
1109	0	40892	
1110	0	40932	
1111	0	40944	
1112	0	40948	
1113	0	40960	
1114	0	40964	
1115	0	40920	
1116	0	40904	
1117	0	40888	
1118	0	40868	
1119	0	40844	
1120	0	40844	
1121	0	40838	
1122	0	40840	
1123	0	40820	
1124	0	40772	
1125	0	40716	
1126	0	40688	
1127	0	40676	
1128	0	40602	
1129	0	40544	
1130	0	40480	
1131	0	40384	
1132	0	40280	
1133	0	40176	
1134	0	40060	
1135	0	39896	
1136	0	39720	
1137	0	39564	
1138	0	39400	
1139	0	39224	
1140	0	39084	
1141	0	38954	
1142	0	38760	
1143	0	38556	
1144	0	38344	
1145	0	38112	
1146	0	37872	
1147	0	37624	
1148	0	37344	
1149	0	37068	
1150	0	36824	
1151	0	36600	
1152	0	36340	
1153	0	36084	
1154	0	35824	
1155	0	35552	
1156	0	35264	
1157	0	34956	
1158	0	34648	
1159	0	34348	
1160	0	34062	
1161	0	33796	
1162	0	33524	
1163	0	33244	
1164	0	32958	
1165	0	32692	
1166	0	32428	
1167	0	32180	
1168	0	31930	
1169	0	31684	
1170	0	31456	
1171	0	31234	
1172	0	30976	
1173	0	30756	
1174	0	30544	
1175	0	30276	
1176	0	30040	
1177	0	29820	
1178	0	29592	
1179	0	29344	
1180	0	29146	
1181	0	28952	
1182	0	28776	
1183	0	28626	
1184	0	28424	
1185	0	28224	
1186	0	28040	
1187	0	27900	
1188	0	27788	
1189	0	27700	
1190	0	27572	
1191	0	27420	
1192	0	27272	
1193	0	27124	
1194	0	27024	
1195	0	26924	
1196	0	26824	
1197	0	26700	
1198	0	26610	
1199	0	26534	
1200	0	26472	
1201	0	26408	
1202	0	26340	
1203	0	26284	
1204	0	26232	
1205	0	26186	
1206	0	26096	
1207	0	26028	
1208	0	26000	
1209	0	26000	
1210	0	26024	
1211	0	26024	
1212	0	26042	
1213	0	26070	
1214	0	26076	
1215	0	26092	
1216	0	26116	
1217	0	26108	
1218	0	26144	
1219	0	26158	
1220	0	26144	
1221	0	26130	
1222	0	26136	
1223	0	26116	
1224	0	26104	
1225	0	26112	
1226	0	26144	
1227	0	26160	
1228	0	26182	
1229	0	26204	
1230	0	26224	
1231	0	26272	
1232	0	26312	
1233	0	26352	
1234	0	26336	
1235	0	26356	
1236	0	26386	
1237	0	26428	
1238	0	26484	
1239	0	26556	
1240	0	26608	
1241	0	26664	
1242	0	26724	
1243	0	26776	
1244	0	26864	
1245	0	26928	
1246	0	26984	
1247	0	27040	
1248	0	27094	
1249	0	27152	
1250	0	27220	
1251	0	27300	
1252	0	27346	
1253	0	27360	
1254	0	27370	
1255	0	27396	
1256	0	27404	
1257	0	27476	
1258	0	27536	
1259	0	27570	
1260	0	27632	
1261	0	27698	
1262	0	27744	
1263	0	27838	
1264	0	27912	
1265	0	27976	
1266	0	28024	
1267	0	28092	
1268	0	28128	
1269	0	28197	
1270	0	28270	
1271	0	28334	
1272	0	28344	
1273	0	28360	
1274	0	28384	
1275	0	28416	
1276	0	28456	
1277	0	28528	
1278	0	28588	
1279	0	28612	
1280	0	28640	
1281	0	28688	
1282	0	28730	
1283	0	28782	
1284	0	28816	
1285	0	28824	
1286	0	28864	
1287	0	28896	
1288	0	28928	
1289	0	28984	
1290	0	29060	
1291	0	29112	
1292	0	29154	
1293	0	29193	
1294	0	29204	
1295	0	29248	
1296	0	29304	
1297	0	29352	
1298	0	29392	
1299	0	29416	
1300	0	29444	
1301	0	29440	
1302	0	29488	
1303	0	29568	
1304	0	29628	
1305	0	29658	
1306	0	29698	
1307	0	29712	
1308	0	29760	
1309	0	29844	
1310	0	29856	
1311	0	29852	
1312	0	29854	
1313	0	29908	
1314	0	29928	
1315	0	29934	
1316	0	29952	
1317	0	29972	
1318	0	30008	
1319	0	30040	
1320	0	30088	
1321	0	30108	
1322	0	30112	
1323	0	30140	
1324	0	30180	
1325	0	30208	
1326	0	30215	
1327	0	30256	
1328	0	30318	
1329	0	30348	
1330	0	30338	
1331	0	30324	
1332	0	30322	
1333	0	30328	
1334	0	30356	
1335	0	30376	
1336	0	30376	
1337	0	30388	
1338	0	30428	
1339	0	30464	
1340	0	30500	
1341	0	30540	
1342	0	30568	
1343	0	30548	
1344	0	30524	
1345	0	30528	
1346	0	30548	
1347	0	30552	
1348	0	30564	
1349	0	30560	
1350	0	30544	
1351	0	30510	
1352	0	30536	
1353	0	30532	
1354	0	30528	
1355	0	30536	
1356	0	30564	
1357	0	30588	
1358	0	30564	
1359	0	30546	
1360	0	30560	
1361	0	30592	
1362	0	30596	
1363	0	30632	
1364	0	30666	
1365	0	30696	
1366	0	30716	
1367	0	30706	
1368	0	30744	
1369	0	30796	
1370	0	30832	
1371	0	30826	
1372	0	30804	
1373	0	30804	
1374	0	30801	
1375	0	30780	
1376	0	30744	
1377	0	30700	
1378	0	30668	
1379	0	30636	
1380	0	30652	
1381	0	30720	
1382	0	30760	
1383	0	30792	
1384	0	30808	
1385	0	30812	
1386	0	30792	
1387	0	30804	
1388	0	30796	
1389	0	30792	
1390	0	30784	
1391	0	30808	
1392	0	30812	
1393	0	30832	
1394	0	30844	
1395	0	30828	
1396	0	30822	
1397	0	30816	
1398	0	30808	
1399	0	30824	
1400	0	30832	
1401	0	30840	
1402	0	30852	
1403	0	30898	
1404	0	30948	
1405	0	30944	
1406	0	30948	
1407	0	30956	
1408	0	30972	
1409	0	31000	
1410	0	31024	
1411	0	31026	
1412	0	31024	
1413	0	30978	
1414	0	30952	
1415	0	30932	
1416	0	30924	
1417	0	30944	
1418	0	30988	
1419	0	31048	
1420	0	31100	
1421	0	31124	
1422	0	31092	
1423	0	31076	
1424	0	31100	
1425	0	31132	
1426	0	31148	
1427	0	31188	
1428	0	31236	
1429	0	31256	
1430	0	31254	
1431	0	31272	
1432	0	31268	
1433	0	31260	
1434	0	31232	
1435	0	31240	
1436	0	31232	
1437	0	31252	
1438	0	31264	
1439	0	31288	
1440	0	31316	
1441	0	31340	
1442	0	31360	
1443	0	31344	
1444	0	31356	
1445	0	31388	
1446	0	31416	
1447	0	31452	
1448	0	31480	
1449	0	31452	
1450	0	31460	
1451	0	31482	
1452	0	31472	
1453	0	31464	
1454	0	31484	
1455	0	31498	
1456	0	31512	
1457	0	31536	
1458	0	31568	
1459	0	31580	
1460	0	31596	
1461	0	31592	
1462	0	31592	
1463	0	31580	
1464	0	31572	
1465	0	31598	
1466	0	31608	
1467	0	31620	
1468	0	31628	
1469	0	31632	
1470	0	31652	
1471	0	31652	
1472	0	31668	
1473	0	31688	
1474	0	31716	
1475	0	31760	
1476	0	31800	
1477	0	31816	
1478	0	31804	
1479	0	31800	
1480	0	31800	
1481	0	31808	
1482	0	31808	
1483	0	31816	
1484	0	31808	
1485	0	31832	
1486	0	31892	
1487	0	31920	
1488	0	31948	
1489	0	31984	
1490	0	32018	
1491	0	32016	
1492	0	32008	
1493	0	31972	
1494	0	31928	
1495	0	31952	
1496	0	31996	
1497	0	32008	
1498	0	32024	
1499	0	32024	
1500	0	32012	
1501	0	32012	
1502	0	32008	
1503	0	32016	
1504	0	32028	
1505	0	32040	
1506	0	32076	
1507	0	32112	
1508	0	32152	
1509	0	32172	
1510	0	32176	
1511	0	32168	
1512	0	32132	
1513	0	32072	
1514	0	32060	
1515	0	32042	
1516	0	32040	
1517	0	32044	
1518	0	32096	
1519	0	32096	
1520	0	32088	
1521	0	32132	
1522	0	32196	
1523	0	32216	
1524	0	32228	
1525	0	32216	
1526	0	32232	
1527	0	32260	
1528	0	32306	
1529	0	32332	
1530	0	32340	
1531	0	32360	
1532	0	32380	
1533	0	32372	
1534	0	32365	
1535	0	32348	
1536	0	32352	
1537	0	32352	
1538	0	32332	
1539	0	32356	
1540	0	32360	
1541	0	32360	
1542	0	32344	
1543	0	32372	
1544	0	32396	
1545	0	32416	
1546	0	32428	
1547	0	32444	
1548	0	32474	
1549	0	32484	
1550	0	32508	
1551	0	32552	
1552	0	32556	
1553	0	32520	
1554	0	32488	
1555	0	32464	
1556	0	32448	
1557	0	32420	
1558	0	32380	
1559	0	32352	
1560	0	32336	
1561	0	32352	
1562	0	32376	
1563	0	32448	
1564	0	32480	
1565	0	32488	
1566	0	32528	
1567	0	32560	
1568	0	32584	
1569	0	32576	
1570	0	32588	
1571	0	32604	
1572	0	32602	
1573	0	32614	
1574	0	32612	
1575	0	32600	
1576	0	32588	
1577	0	32604	
1578	0	32612	
1579	0	32628	
1580	0	32632	
1581	0	32636	
1582	0	32640	
1583	0	32652	
1584	0	32660	
1585	0	32666	
1586	0	32696	
1587	0	32724	
1588	0	32752	
1589	0	32760	
1590	0	32796	
1591	0	32832	
1592	0	32856	
1593	0	32840	
1594	0	32784	
1595	0	32740	
1596	0	32728	
1597	0	32720	
1598	0	32720	
1599	0	32752	
1600	0	32800	
1601	0	32816	
1602	0	32808	
1603	0	32832	
1604	0	32876	
1605	0	32880	
1606	0	32888	
1607	0	32896	
1608	0	32864	
1609	0	32814	
1610	0	32808	
1611	0	32836	
1612	0	32852	
1613	0	32868	
1614	0	32876	
1615	0	32896	
1616	0	32880	
1617	0	32892	
1618	0	32864	
1619	0	32848	
1620	0	32840	
1621	0	32836	
1622	0	32856	
1623	0	32856	
1624	0	32852	
1625	0	32868	
1626	0	32864	
1627	0	32892	
1628	0	32932	
1629	0	32964	
1630	0	32972	
1631	0	32960	
1632	0	33012	
1633	0	33056	
1634	0	33060	
1635	0	33042	
1636	0	33000	
1637	0	32962	
1638	0	32952	
1639	0	32968	
1640	0	32964	
1641	0	32984	
1642	0	33016	
1643	0	32988	
1644	0	32940	
1645	0	32896	
1646	0	32896	
1647	0	32956	
1648	0	32992	
1649	0	33052	
1650	0	33056	
1651	0	33080	
1652	0	33120	
1653	0	33132	
1654	0	33132	
1655	0	33108	
1656	0	33088	
1657	0	33100	
1658	0	33096	
1659	0	33040	
1660	0	32992	
1661	0	32992	
1662	0	33012	
1663	0	33036	
1664	0	33056	
1665	0	33088	
1666	0	33116	
1667	0	33148	
1668	0	33160	
1669	0	33160	
1670	0	33148	
1671	0	33144	
1672	0	33154	
1673	0	33184	
1674	0	33200	
1675	0	33192	
1676	0	33184	
1677	0	33152	
1678	0	33172	
1679	0	33144	
1680	0	33112	
1681	0	33104	
1682	0	33124	
1683	0	33124	
1684	0	33124	
1685	0	33146	
1686	0	33148	
1687	0	33184	
1688	0	33224	
1689	0	33212	
1690	0	33224	
1691	0	33216	
1692	0	33244	
1693	0	33284	
1694	0	33312	
1695	0	33330	
1696	0	33344	
1697	0	33360	
1698	0	33368	
1699	0	33338	
1700	0	33248	
1701	0	33160	
1702	0	33080	
1703	0	33056	
1704	0	33052	
1705	0	33070	
1706	0	33060	
1707	0	33036	
1708	0	33000	
1709	0	32974	
1710	0	32932	
1711	0	32888	
1712	0	32880	
1713	0	32948	
1714	0	32994	
1715	0	33000	
1716	0	33052	
1717	0	33076	
1718	0	33088	
1719	0	33096	
1720	0	33120	
1721	0	33192	
1722	0	33268	
1723	0	33312	
1724	0	33296	
1725	0	33268	
1726	0	33268	
1727	0	33268	
1728	0	33282	
1729	0	33292	
1730	0	33360	
1731	0	33456	
1732	0	33528	
1733	0	33580	
1734	0	33632	
1735	0	33648	
1736	0	33616	
1737	0	33596	
1738	0	33650	
1739	0	33780	
1740	0	33940	
1741	0	34048	
1742	0	34084	
1743	0	34066	
1744	0	34020	
1745	0	33972	
1746	0	33952	
1747	0	33956	
1748	0	33948	
1749	0	33984	
1750	0	34020	
1751	0	34040	
1752	0	34068	
1753	0	34090	
1754	0	34102	
1755	0	34088	
1756	0	34076	
1757	0	34112	
1758	0	34138	
1759	0	34148	
1760	0	34152	
1761	0	34184	
1762	0	34220	
1763	0	34236	
1764	0	34196	
1765	0	34156	
1766	0	34132	
1767	0	34124	
1768	0	34120	
1769	0	34112	
1770	0	34080	
1771	0	33992	
1772	0	33938	
1773	0	33784	
1774	0	33544	
1775	0	33208	
1776	0	32928	
1777	0	32708	
1778	0	32640	
1779	0	32608	
1780	0	32616	
1781	0	32632	
1782	0	32656	
1783	0	32672	
1784	0	32716	
1785	0	32768	
1786	0	32816	
1787	0	32832	
1788	0	32864	
1789	0	32864	
1790	0	32860	
1791	0	32840	
1792	0	32834	
1793	0	32836	
1794	0	32864	
1795	0	32860	
1796	0	32864	
1797	0	32892	
1798	0	32920	
1799	0	32940	
1800	0	32936	
1801	0	32920	
1802	0	32924	
1803	0	32960	
1804	0	32984	
1805	0	33000	
1806	0	33000	
1807	0	33012	
1808	0	33048	
1809	0	33072	
1810	0	33104	
1811	0	33144	
1812	0	33198	
1813	0	33236	
1814	0	33252	
1815	0	33252	
1816	0	33248	
1817	0	33252	
1818	0	33308	
1819	0	33316	
1820	0	33312	
1821	0	33316	
1822	0	33360	
1823	0	33412	
1824	0	33452	
1825	0	33456	
1826	0	33504	
1827	0	33548	
1828	0	33592	
1829	0	33584	
1830	0	33556	
1831	0	33500	
1832	0	33480	
1833	0	33434	
1834	0	33292	
1835	0	33028	
1836	0	32732	
1837	0	32380	
1838	0	31868	
1839	0	31237	
1840	0	30576	
1841	0	30040	
1842	0	29634	
1843	0	29364	
1844	0	29340	
1845	0	29532	
1846	0	29876	
1847	0	30400	
1848	0	31008	
1849	0	31800	
1850	0	32844	
1851	0	34064	
1852	0	35392	
1853	0	36832	
1854	0	38488	
1855	0	40444	
1856	0	42692	
1857	0	45136	
1858	0	47860	
1859	0	50788	
1860	0	53780	
1861	0	56912	
1862	0	60200	
1863	0	62708	
1864	0	64040	
1865	0	64736	
1866	0	65036	
1867	0	65164	
1868	0	65164	
1869	0	65104	
1870	0	65016	
1871	0	64912	
1872	0	64792	
1873	0	64668	
1874	0	64544	
1875	0	64416	
1876	0	64296	
1877	0	64168	
1878	0	64024	
1879	0	62568	
1880	0	55448	
1881	0	48780	
1882	0	42932	
1883	0	37904	
1884	0	33720	
1885	0	30308	
1886	0	27708	
1887	0	25884	
1888	0	24832	
1889	0	24328	
1890	0	24036	
1891	0	23804	
1892	0	23572	
1893	0	23328	
1894	0	23092	
1895	0	22936	
1896	0	22868	
1897	0	22892	
1898	0	22972	
1899	0	23120	
1900	0	23392	
1901	0	23740	
1902	0	24216	
1903	0	24880	
1904	0	25568	
1905	0	26236	
1906	0	26894	
1907	0	27444	
1908	0	27860	
1909	0	28160	
1910	0	28400	
1911	0	28582	
1912	0	28736	
1913	0	28900	
1914	0	29084	
1915	0	29196	
1916	0	29200	
1917	0	29204	
1918	0	29228	
1919	0	29250	
1920	0	29252	
1921	0	29260	
1922	0	29312	
1923	0	29356	
1924	0	29396	
1925	0	29416	
1926	0	29480	
1927	0	29556	
1928	0	29616	
1929	0	29628	
1930	0	29648	
1931	0	29668	
1932	0	29728	
1933	0	29764	
1934	0	29792	
1935	0	29834	
1936	0	29881	
1937	0	29912	
1938	0	29924	
1939	0	29944	
1940	0	29988	
1941	0	30048	
1942	0	30080	
1943	0	30160	
1944	0	30240	
1945	0	30300	
1946	0	30354	
1947	0	30432	
1948	0	30504	
1949	0	30536	
1950	0	30568	
1951	0	30616	
1952	0	30682	
1953	0	30752	
1954	0	30824	
1955	0	30844	
1956	0	30878	
1957	0	30912	
1958	0	30940	
1959	0	30964	
1960	0	30992	
1961	0	31040	
1962	0	31080	
1963	0	31148	
1964	0	31192	
1965	0	31292	
1966	0	31384	
1967	0	31484	
1968	0	31564	
1969	0	31649	
1970	0	31706	
1971	0	31748	
1972	0	31788	
1973	0	31832	
1974	0	31850	
1975	0	31848	
1976	0	31868	
1977	0	31884	
1978	0	31916	
1979	0	31956	
1980	0	31996	
1981	0	32032	
1982	0	32092	
1983	0	32116	
1984	0	32138	
1985	0	32164	
1986	0	32216	
1987	0	32276	
1988	0	32320	
1989	0	32320	
1990	0	32352	
1991	0	32378	
1992	0	32404	
1993	0	32440	
1994	0	32476	
1995	0	32516	
1996	0	32544	
1997	0	32568	
1998	0	32564	
1999	0	32580	
2000	0	32592	
2001	0	32600	
2002	0	32596	
2003	0	32580	
2004	0	32624	
2005	0	32716	
2006	0	32808	
2007	0	32896	
2008	0	32972	
2009	0	33004	
2010	0	33048	
2011	0	33088	
2012	0	33106	
2013	0	33164	
2014	0	33200	
2015	0	33232	
2016	0	33284	
2017	0	33304	
2018	0	33352	
2019	0	33406	
2020	0	33458	
2021	0	33504	
2022	0	33540	
2023	0	33564	
2024	0	33592	
2025	0	33620	
2026	0	33648	
2027	0	33752	
2028	0	33828	
2029	0	33864	
2030	0	33912	
2031	0	33976	
2032	0	34000	
2033	0	34036	
2034	0	34068	
2035	0	34084	
2036	0	34088	
2037	0	34064	
2038	0	34076	
2039	0	34096	
2040	0	34160	
2041	0	34248	
2042	0	34300	
2043	0	34376	
2044	0	34448	
2045	0	34510	
2046	0	34564	
2047	0	34604	
2048	0	34660	
2049	0	34692	
2050	0	34752	
2051	0	34796	
2052	0	34840	
2053	0	34920	
2054	0	35008	
2055	0	35064	
2056	0	35124	
2057	0	35216	
2058	0	35260	
2059	0	35304	
2060	0	35340	
2061	0	35404	
2062	0	35504	
2063	0	35612	
2064	0	35728	
2065	0	35828	
2066	0	35896	
2067	0	35968	
2068	0	36048	
2069	0	36152	
2070	0	36232	
2071	0	36314	
2072	0	36400	
2073	0	36468	
2074	0	36532	
2075	0	36600	
2076	0	36652	
2077	0	36736	
2078	0	36828	
2079	0	36928	
2080	0	37020	
2081	0	37100	
2082	0	37180	
2083	0	37268	
2084	0	37392	
2085	0	37540	
2086	0	37680	
2087	0	37784	
2088	0	37936	
2089	0	38096	
2090	0	38184	
2091	0	38292	
2092	0	38396	
2093	0	38496	
2094	0	38572	
2095	0	38624	
2096	0	38688	
2097	0	38732	
2098	0	38820	
2099	0	38964	
2100	0	39100	
2101	0	39186	
2102	0	39256	
2103	0	39372	
2104	0	39476	
2105	0	39588	
2106	0	39690	
2107	0	39788	
2108	0	39872	
2109	0	39984	
2110	0	40068	
2111	0	40156	
2112	0	40260	
2113	0	40336	
2114	0	40382	
2115	0	40396	
2116	0	40404	
2117	0	40436	
2118	0	40488	
2119	0	40564	
2120	0	40652	
2121	0	40688	
2122	0	40688	
2123	0	40704	
2124	0	40704	
2125	0	40740	
2126	0	40788	
2127	0	40784	
2128	0	40808	
2129	0	40816	
2130	0	40808	
2131	0	40804	
2132	0	40784	
2133	0	40756	
2134	0	40680	
2135	0	40606	
2136	0	40522	
2137	0	40464	
2138	0	40396	
2139	0	40312	
2140	0	40240	
2141	0	40180	
2142	0	40172	
2143	0	40128	
2144	0	40052	
2145	0	39992	
2146	0	39892	
2147	0	39784	
2148	0	39644	
2149	0	39540	
2150	0	39412	
2151	0	39248	
2152	0	39076	
2153	0	38918	
2154	0	38736	
2155	0	38508	
2156	0	38288	
2157	0	38084	
2158	0	37856	
2159	0	37620	
2160	0	37364	
2161	0	37152	
2162	0	36924	
2163	0	36700	
2164	0	36444	
2165	0	36164	
2166	0	35896	
2167	0	35620	
2168	0	35320	
2169	0	35012	
2170	0	34724	
2171	0	34450	
2172	0	34196	
2173	0	33920	
2174	0	33644	
2175	0	33380	
2176	0	33080	
2177	0	32784	
2178	0	32506	
2179	0	32280	
2180	0	32040	
2181	0	31776	
2182	0	31482	
2183	0	31204	
2184	0	30956	
2185	0	30716	
2186	0	30488	
2187	0	30284	
2188	0	30100	
2189	0	29904	
2190	0	29696	
2191	0	29504	
2192	0	29276	
2193	0	29090	
2194	0	28904	
2195	0	28712	
2196	0	28532	
2197	0	28348	
2198	0	28184	
2199	0	28036	
2200	0	27900	
2201	0	27756	
2202	0	27630	
2203	0	27544	
2204	0	27442	
2205	0	27308	
2206	0	27162	
2207	0	27028	
2208	0	26938	
2209	0	26838	
2210	0	26716	
2211	0	26624	
2212	0	26524	
2213	0	26440	
2214	0	26384	
2215	0	26312	
2216	0	26252	
2217	0	26220	
2218	0	26204	
2219	0	26176	
2220	0	26176	
2221	0	26172	
2222	0	26160	
2223	0	26136	
2224	0	26140	
2225	0	26144	
2226	0	26128	
2227	0	26112	
2228	0	26100	
2229	0	26120	
2230	0	26144	
2231	0	26176	
2232	0	26186	
2233	0	26148	
2234	0	26124	
2235	0	26104	
2236	0	26088	
2237	0	26084	
2238	0	26080	
2239	0	26096	
2240	0	26136	
2241	0	26180	
2242	0	26200	
2243	0	26200	
2244	0	26204	
2245	0	26228	
2246	0	26296	
2247	0	26392	
2248	0	26484	
2249	0	26528	
2250	0	26540	
2251	0	26580	
2252	0	26608	
2253	0	26664	
2254	0	26676	
2255	0	26672	
2256	0	26688	
2257	0	26710	
2258	0	26744	
2259	0	26808	
2260	0	26888	
2261	0	26968	
2262	0	27056	
2263	0	27088	
2264	0	27114	
2265	0	27160	
2266	0	27222	
2267	0	27250	
2268	0	27276	
2269	0	27304	
2270	0	27340	
2271	0	27384	
2272	0	27444	
2273	0	27488	
2274	0	27548	
2275	0	27608	
2276	0	27688	
2277	0	27768	
2278	0	27824	
2279	0	27924	
2280	0	27980	
2281	0	28036	
2282	0	28092	
2283	0	28148	
2284	0	28148	
2285	0	28168	
2286	0	28176	
2287	0	28208	
2288	0	28286	
2289	0	28352	
2290	0	28368	
2291	0	28368	
2292	0	28416	
2293	0	28480	
2294	0	28548	
2295	0	28624	
2296	0	28698	
2297	0	28772	
2298	0	28832	
2299	0	28848	
2300	0	28866	
2301	0	28904	
2302	0	28936	
2303	0	28984	
2304	0	29044	
2305	0	29112	
2306	0	29152	
2307	0	29216	
2308	0	29236	
2309	0	29260	
2310	0	29304	
2311	0	29352	
2312	0	29344	
2313	0	29364	
2314	0	29428	
2315	0	29484	
2316	0	29528	
2317	0	29564	
2318	0	29590	
2319	0	29594	
2320	0	29608	
2321	0	29660	
2322	0	29700	
2323	0	29764	
2324	0	29802	
2325	0	29792	
2326	0	29804	
2327	0	29864	
2328	0	29912	
2329	0	29956	
2330	0	30000	
2331	0	30018	
2332	0	30024	
2333	0	30008	
2334	0	30008	
2335	0	30024	
2336	0	30048	
2337	0	30077	
2338	0	30116	
2339	0	30156	
2340	0	30144	
2341	0	30132	
2342	0	30169	
2343	0	30216	
2344	0	30264	
2345	0	30240	
2346	0	30256	
2347	0	30280	
2348	0	30324	
2349	0	30364	
2350	0	30408	
2351	0	30444	
2352	0	30448	
2353	0	30440	
2354	0	30428	
2355	0	30392	
2356	0	30388	
2357	0	30384	
2358	0	30376	
2359	0	30400	
2360	0	30392	
2361	0	30364	
2362	0	30408	
2363	0	30464	
2364	0	30496	
2365	0	30524	
2366	0	30532	
2367	0	30520	
2368	0	30552	
2369	0	30576	
2370	0	30580	
2371	0	30554	
2372	0	30532	
2373	0	30546	
2374	0	30532	
2375	0	30508	
2376	0	30464	
2377	0	30392	
2378	0	30318	
2379	0	30284	
2380	0	30280	
2381	0	30272	
2382	0	30300	
2383	0	30348	
2384	0	30360	
2385	0	30420	
2386	0	30504	
2387	0	30568	
2388	0	30592	
2389	0	30640	
2390	0	30684	
2391	0	30696	
2392	0	30704	
2393	0	30726	
2394	0	30724	
2395	0	30724	
2396	0	30724	
2397	0	30734	
2398	0	30752	
2399	0	30752	
2400	0	30744	
2401	0	30704	
2402	0	30712	
2403	0	30736	
2404	0	30720	
2405	0	30704	
2406	0	30712	
2407	0	30700	
2408	0	30708	
2409	0	30704	
2410	0	30696	
2411	0	30656	
2412	0	30648	
2413	0	30660	
2414	0	30696	
2415	0	30744	
2416	0	30748	
2417	0	30788	
2418	0	30816	
2419	0	30848	
2420	0	30868	
2421	0	30876	
2422	0	30872	
2423	0	30868	
2424	0	30868	
2425	0	30912	
2426	0	30940	
2427	0	30960	
2428	0	30978	
2429	0	31016	
2430	0	31024	
2431	0	31028	
2432	0	30990	
2433	0	30936	
2434	0	30884	
2435	0	30844	
2436	0	30852	
2437	0	30860	
2438	0	30892	
2439	0	30944	
2440	0	30976	
2441	0	30992	
2442	0	30992	
2443	0	31032	
2444	0	31038	
2445	0	31060	
2446	0	31084	
2447	0	31104	
2448	0	31128	
2449	0	31164	
2450	0	31184	
2451	0	31200	
2452	0	31232	
2453	0	31252	
2454	0	31248	
2455	0	31264	
2456	0	31268	
2457	0	31252	
2458	0	31264	
2459	0	31264	
2460	0	31322	
2461	0	31368	
2462	0	31392	
2463	0	31408	
2464	0	31456	
2465	0	31504	
2466	0	31516	
2467	0	31498	
2468	0	31456	
2469	0	31464	
2470	0	31464	
2471	0	31460	
2472	0	31466	
2473	0	31434	
2474	0	31396	
2475	0	31336	
2476	0	31264	
2477	0	31264	
2478	0	31268	
2479	0	31218	
2480	0	31242	
2481	0	31312	
2482	0	31368	
2483	0	31420	
2484	0	31476	
2485	0	31556	
2486	0	31644	
2487	0	31720	
2488	0	31788	
2489	0	31794	
2490	0	31806	
2491	0	31824	
2492	0	31840	
2493	0	31852	
2494	0	31872	
2495	0	31900	
2496	0	31870	
2497	0	31842	
2498	0	31840	
2499	0	31856	
2500	0	31856	
2501	0	31872	
2502	0	31892	
2503	0	31860	
2504	0	31816	
2505	0	31788	
2506	0	31792	
2507	0	31794	
2508	0	31804	
2509	0	31832	
2510	0	31840	
2511	0	31880	
2512	0	31932	
2513	0	31944	
2514	0	31980	
2515	0	31968	
2516	0	31984	
2517	0	32008	
2518	0	32028	
2519	0	32072	
2520	0	32112	
2521	0	32152	
2522	0	32168	
2523	0	32244	
2524	0	32312	
2525	0	32300	
2526	0	32244	
2527	0	32152	
2528	0	32064	
2529	0	32016	
2530	0	32008	
2531	0	32004	
2532	0	31986	
2533	0	31984	
2534	0	32024	
2535	0	32106	
2536	0	32160	
2537	0	32208	
2538	0	32226	
2539	0	32256	
2540	0	32264	
2541	0	32268	
2542	0	32296	
2543	0	32348	
2544	0	32336	
2545	0	32284	
2546	0	32268	
2547	0	32284	
2548	0	32304	
2549	0	32334	
2550	0	32330	
2551	0	32344	
2552	0	32340	
2553	0	32352	
2554	0	32352	
2555	0	32372	
2556	0	32392	
2557	0	32396	
2558	0	32396	
2559	0	32382	
2560	0	32356	
2561	0	32340	
2562	0	32324	
2563	0	32300	
2564	0	32304	
2565	0	32340	
2566	0	32356	
2567	0	32328	
2568	0	32332	
2569	0	32356	
2570	0	32404	
2571	0	32456	
2572	0	32500	
2573	0	32514	
2574	0	32548	
2575	0	32604	
2576	0	32666	
2577	0	32686	
2578	0	32688	
2579	0	32700	
2580	0	32708	
2581	0	32712	
2582	0	32704	
2583	0	32718	
2584	0	32684	
2585	0	32684	
2586	0	32668	
2587	0	32660	
2588	0	32642	
2589	0	32696	
2590	0	32740	
2591	0	32708	
2592	0	32616	
2593	0	32576	
2594	0	32564	
2595	0	32588	
2596	0	32652	
2597	0	32704	
2598	0	32696	
2599	0	32692	
2600	0	32752	
2601	0	32832	
2602	0	32884	
2603	0	32892	
2604	0	32888	
2605	0	32888	
2606	0	32884	
2607	0	32872	
2608	0	32860	
2609	0	32872	
2610	0	32888	
2611	0	32896	
2612	0	32912	
2613	0	32956	
2614	0	32958	
2615	0	32936	
2616	0	32912	
2617	0	32916	
2618	0	32932	
2619	0	32976	
2620	0	32992	
2621	0	32988	
2622	0	32960	
2623	0	32944	
2624	0	32940	
2625	0	32952	
2626	0	32944	
2627	0	32964	
2628	0	33002	
2629	0	33020	
2630	0	32994	
2631	0	32940	
2632	0	32954	
2633	0	32984	
2634	0	33016	
2635	0	33048	
2636	0	33056	
2637	0	33056	
2638	0	33040	
2639	0	33040	
2640	0	33048	
2641	0	33032	
2642	0	32984	
2643	0	32944	
2644	0	32892	
2645	0	32868	
2646	0	32864	
2647	0	32836	
2648	0	32870	
2649	0	32882	
2650	0	32900	
2651	0	32948	
2652	0	32980	
2653	0	33008	
2654	0	33048	
2655	0	33064	
2656	0	33090	
2657	0	33096	
2658	0	33080	
2659	0	33080	
2660	0	33110	
2661	0	33144	
2662	0	33140	
2663	0	33156	
2664	0	33200	
2665	0	33248	
2666	0	33252	
2667	0	33244	
2668	0	33258	
2669	0	33284	
2670	0	33308	
2671	0	33316	
2672	0	33284	
2673	0	33252	
2674	0	33268	
2675	0	33276	
2676	0	33220	
2677	0	33152	
2678	0	33080	
2679	0	33012	
2680	0	33004	
2681	0	33008	
2682	0	32964	
2683	0	32957	
2684	0	32960	
2685	0	33024	
2686	0	33114	
2687	0	33160	
2688	0	33224	
2689	0	33248	
2690	0	33236	
2691	0	33224	
2692	0	33220	
2693	0	33208	
2694	0	33214	
2695	0	33220	
2696	0	33256	
2697	0	33312	
2698	0	33376	
2699	0	33444	
2700	0	33504	
2701	0	33516	
2702	0	33508	
2703	0	33508	
2704	0	33502	
2705	0	33420	
2706	0	33336	
2707	0	33234	
2708	0	33192	
2709	0	33178	
2710	0	33196	
2711	0	33194	
2712	0	33186	
2713	0	33178	
2714	0	33148	
2715	0	33096	
2716	0	33058	
2717	0	33008	
2718	0	33024	
2719	0	33036	
2720	0	33030	
2721	0	33048	
2722	0	33080	
2723	0	33124	
2724	0	33116	
2725	0	33128	
2726	0	33156	
2727	0	33216	
2728	0	33264	
2729	0	33292	
2730	0	33242	
2731	0	33168	
2732	0	33098	
2733	0	33088	
2734	0	33136	
2735	0	33244	
2736	0	33336	
2737	0	33388	
2738	0	33440	
2739	0	33516	
2740	0	33572	
2741	0	33624	
2742	0	33644	
2743	0	33680	
2744	0	33716	
2745	0	33808	
2746	0	33908	
2747	0	33976	
2748	0	34010	
2749	0	33992	
2750	0	33988	
2751	0	33968	
2752	0	33916	
2753	0	33904	
2754	0	33932	
2755	0	33988	
2756	0	34010	
2757	0	34016	
2758	0	34036	
2759	0	34080	
2760	0	34078	
2761	0	34116	
2762	0	34148	
2763	0	34196	
2764	0	34264	
2765	0	34281	
2766	0	34312	
2767	0	34328	
2768	0	34356	
2769	0	34330	
2770	0	34272	
2771	0	34208	
2772	0	34104	
2773	0	34072	
2774	0	34064	
2775	0	34076	
2776	0	34056	
2777	0	33976	
2778	0	33872	
2779	0	33704	
2780	0	33516	
2781	0	33324	
2782	0	33126	
2783	0	32968	
2784	0	32850	
2785	0	32756	
2786	0	32720	
2787	0	32756	
2788	0	32812	
2789	0	32864	
2790	0	32932	
2791	0	32956	
2792	0	32962	
2793	0	32968	
2794	0	32992	
2795	0	33064	
2796	0	33068	
2797	0	33078	
2798	0	33096	
2799	0	33076	
2800	0	33088	
2801	0	33116	
2802	0	33160	
2803	0	33160	
2804	0	33186	
2805	0	33180	
2806	0	33152	
2807	0	33140	
2808	0	33144	
2809	0	33176	
2810	0	33216	
2811	0	33256	
2812	0	33304	
2813	0	33376	
2814	0	33388	
2815	0	33328	
2816	0	33236	
2817	0	33216	
2818	0	33216	
2819	0	33216	
2820	0	33256	
2821	0	33329	
2822	0	33372	
2823	0	33396	
2824	0	33438	
2825	0	33476	
2826	0	33504	
2827	0	33608	
2828	0	33632	
2829	0	33634	
2830	0	33652	
2831	0	33636	
2832	0	33628	
2833	0	33658	
2834	0	33680	
2835	0	33612	
2836	0	33540	
2837	0	33436	
2838	0	33320	
2839	0	33176	
2840	0	32968	
2841	0	32704	
2842	0	32432	
2843	0	32032	
2844	0	31532	
2845	0	30928	
2846	0	30356	
2847	0	29920	
2848	0	29672	
2849	0	29568	
2850	0	29680	
2851	0	29904	
2852	0	30256	
2853	0	30770	
2854	0	31406	
2855	0	32272	
2856	0	33372	
2857	0	34640	
2858	0	35992	
2859	0	37488	
2860	0	39316	
2861	0	41504	
2862	0	43880	
2863	0	46424	
2864	0	49176	
2865	0	52096	
2866	0	55076	
2867	0	58272	
2868	0	61440	
2869	0	63352	
2870	0	64344	
2871	0	64848	
2872	0	65072	
2873	0	65116	
2874	0	65092	
2875	0	65016	
2876	0	64916	
2877	0	64804	
2878	0	64676	
2879	0	64568	
2880	0	64440	
2881	0	64308	
2882	0	64176	
2883	0	64056	
2884	0	63928	
2885	0	58392	
2886	0	51820	
2887	0	45868	
2888	0	40604	
2889	0	36096	
2890	0	32430	
2891	0	29592	
2892	0	27450	
2893	0	26008	
2894	0	25172	
2895	0	24624	
2896	0	24216	
2897	0	23908	
2898	0	23654	
2899	0	23432	
2900	0	23188	
2901	0	22928	
2902	0	22790	
2903	0	22752	
2904	0	22764	
2905	0	22840	
2906	0	22976	
2907	0	23264	
2908	0	23634	
2909	0	24088	
2910	0	24642	
2911	0	25312	
2912	0	25928	
2913	0	26484	
2914	0	26996	
2915	0	27396	
2916	0	27680	
2917	0	27930	
2918	0	28160	
2919	0	28384	
2920	0	28624	
2921	0	28852	
2922	0	28998	
2923	0	29084	
2924	0	29164	
2925	0	29256	
2926	0	29284	
2927	0	29276	
2928	0	29248	
2929	0	29216	
2930	0	29220	
2931	0	29256	
2932	0	29280	
2933	0	29328	
2934	0	29384	
2935	0	29428	
2936	0	29464	
2937	0	29520	
2938	0	29574	
2939	0	29624	
2940	0	29720	
2941	0	29812	
2942	0	29864	
2943	0	29900	
2944	0	29920	
2945	0	29924	
2946	0	29944	
2947	0	29976	
2948	0	30010	
2949	0	30018	
2950	0	30040	
2951	0	30056	
2952	0	30094	
2953	0	30152	
2954	0	30244	
2955	0	30348	
2956	0	30452	
2957	0	30532	
2958	0	30592	
2959	0	30696	
2960	0	30784	
2961	0	30836	
2962	0	30884	
2963	0	30912	
2964	0	30924	
2965	0	30932	
2966	0	30906	
2967	0	30912	
2968	0	30986	
2969	0	31080	
2970	0	31108	
2971	0	31120	
2972	0	31136	
2973	0	31168	
2974	0	31216	
2975	0	31296	
2976	0	31348	
2977	0	31386	
2978	0	31428	
2979	0	31508	
2980	0	31564	
2981	0	31624	
2982	0	31652	
2983	0	31676	
2984	0	31708	
2985	0	31706	
2986	0	31708	
2987	0	31748	
2988	0	31796	
2989	0	31808	
2990	0	31836	
2991	0	31856	
2992	0	31864	
2993	0	31868	
2994	0	31888	
2995	0	31956	
2996	0	32034	
2997	0	32072	
2998	0	32132	
2999	0	32272	
3000	0	32417	
3001	0	32512	
3002	0	32548	
3003	0	32576	
3004	0	32578	
3005	0	32588	
3006	0	32672	
3007	0	32758	
3008	0	32824	
3009	0	32832	
3010	0	32844	
3011	0	32888	
3012	0	32972	
3013	0	33000	
3014	0	33020	
3015	0	33052	
3016	0	33072	
3017	0	33116	
3018	0	33120	
3019	0	33128	
3020	0	33124	
3021	0	33140	
3022	0	33176	
3023	0	33200	
3024	0	33180	
3025	0	33172	
3026	0	33216	
3027	0	33276	
3028	0	33384	
3029	0	33496	
3030	0	33560	
3031	0	33586	
3032	0	33624	
3033	0	33684	
3034	0	33756	
3035	0	33820	
3036	0	33860	
3037	0	33902	
3038	0	33956	
3039	0	34036	
3040	0	34136	
3041	0	34202	
3042	0	34254	
3043	0	34256	
3044	0	34296	
3045	0	34340	
3046	0	34408	
3047	0	34452	
3048	0	34488	
3049	0	34552	
3050	0	34616	
3051	0	34640	
3052	0	34680	
3053	0	34724	
3054	0	34768	
3055	0	34836	
3056	0	34896	
3057	0	34941	
3058	0	34972	
3059	0	34996	
3060	0	35026	
3061	0	35092	
3062	0	35180	
3063	0	35312	
3064	0	35408	
3065	0	35484	
3066	0	35546	
3067	0	35596	
3068	0	35652	
3069	0	35724	
3070	0	35780	
3071	0	35836	
3072	0	35888	
3073	0	35928	
3074	0	36022	
3075	0	36064	
3076	0	36128	
3077	0	36186	
3078	0	36296	
3079	0	36428	
3080	0	36540	
3081	0	36652	
3082	0	36808	
3083	0	36960	
3084	0	37092	
3085	0	37168	
3086	0	37232	
3087	0	37304	
3088	0	37396	
3089	0	37508	
3090	0	37572	
3091	0	37548	
3092	0	37524	
3093	0	37560	
3094	0	37628	
3095	0	37716	
3096	0	37820	
3097	0	37976	
3098	0	38132	
3099	0	38316	
3100	0	38468	
3101	0	38624	
3102	0	38800	
3103	0	38976	
3104	0	39096	
3105	0	39200	
3106	0	39304	
3107	0	39412	
3108	0	39488	
3109	0	39544	
3110	0	39588	
3111	0	39640	
3112	0	39752	
3113	0	39888	
3114	0	39988	
3115	0	40064	
3116	0	40104	
3117	0	40168	
3118	0	40248	
3119	0	40272	
3120	0	40284	
3121	0	40328	
3122	0	40400	
3123	0	40432	
3124	0	40460	
3125	0	40484	
3126	0	40556	
3127	0	40640	
3128	0	40728	
3129	0	40788	
3130	0	40880	
3131	0	40920	
3132	0	40944	
3133	0	40916	
3134	0	40888	
3135	0	40800	
3136	0	40712	
3137	0	40616	
3138	0	40604	
3139	0	40580	
3140	0	40528	
3141	0	40452	
3142	0	40352	
3143	0	40280	
3144	0	40256	
3145	0	40208	
3146	0	40156	
3147	0	40112	
3148	0	40080	
3149	0	40004	
3150	0	39936	
3151	0	39828	
3152	0	39688	
3153	0	39520	
3154	0	39356	
3155	0	39220	
3156	0	39076	
3157	0	38960	
3158	0	38808	
3159	0	38644	
3160	0	38468	
3161	0	38296	
3162	0	38112	
3163	0	37932	
3164	0	37732	
3165	0	37578	
3166	0	37434	
3167	0	37272	
3168	0	37056	
3169	0	36828	
3170	0	36578	
3171	0	36236	
3172	0	35908	
3173	0	35600	
3174	0	35304	
3175	0	34980	
3176	0	34636	
3177	0	34348	
3178	0	34088	
3179	0	33840	
3180	0	33580	
3181	0	33328	
3182	0	33108	
3183	0	32892	
3184	0	32652	
3185	0	32392	
3186	0	32124	
3187	0	31860	
3188	0	31612	
3189	0	31380	
3190	0	31124	
3191	0	30884	
3192	0	30642	
3193	0	30400	
3194	0	30140	
3195	0	29880	
3196	0	29628	
3197	0	29372	
3198	0	29140	
3199	0	28973	
3200	0	28816	
3201	0	28688	
3202	0	28556	
3203	0	28404	
3204	0	28282	
3205	0	28156	
3206	0	28020	
3207	0	27896	
3208	0	27740	
3209	0	27556	
3210	0	27344	
3211	0	27182	
3212	0	27108	
3213	0	27072	
3214	0	27040	
3215	0	27008	
3216	0	26946	
3217	0	26928	
3218	0	26944	
3219	0	26962	
3220	0	26960	
3221	0	26968	
3222	0	26968	
3223	0	26944	
3224	0	26928	
3225	0	26916	
3226	0	26896	
3227	0	26860	
3228	0	26836	
3229	0	26792	
3230	0	26753	
3231	0	26668	
3232	0	26590	
3233	0	26542	
3234	0	26502	
3235	0	26460	
3236	0	26368	
3237	0	26328	
3238	0	26332	
3239	0	26340	
3240	0	26372	
3241	0	26402	
3242	0	26448	
3243	0	26520	
3244	0	26592	
3245	0	26680	
3246	0	26742	
3247	0	26784	
3248	0	26812	
3249	0	26828	
3250	0	26880	
3251	0	26904	
3252	0	26952	
3253	0	27008	
3254	0	27038	
3255	0	27052	
3256	0	27016	
3257	0	27024	
3258	0	27048	
3259	0	27072	
3260	0	27156	
3261	0	27212	
3262	0	27210	
3263	0	27232	
3264	0	27268	
3265	0	27308	
3266	0	27356	
3267	0	27376	
3268	0	27396	
3269	0	27420	
3270	0	27446	
3271	0	27464	
3272	0	27576	
3273	0	27696	
3274	0	27780	
3275	0	27792	
3276	0	27832	
3277	0	27884	
3278	0	27916	
3279	0	27976	
3280	0	28048	
3281	0	28116	
3282	0	28172	
3283	0	28264	
3284	0	28348	
3285	0	28428	
3286	0	28480	
3287	0	28528	
3288	0	28564	
3289	0	28592	
3290	0	28604	
3291	0	28576	
3292	0	28548	
3293	0	28572	
3294	0	28600	
3295	0	28618	
3296	0	28624	
3297	0	28652	
3298	0	28744	
3299	0	28856	
3300	0	28924	
3301	0	28972	
3302	0	29008	
3303	0	29050	
3304	0	29100	
3305	0	29156	
3306	0	29232	
3307	0	29288	
3308	0	29300	
3309	0	29320	
3310	0	29344	
3311	0	29378	
3312	0	29416	
3313	0	29432	
3314	0	29460	
3315	0	29484	
3316	0	29480	
3317	0	29496	
3318	0	29520	
3319	0	29528	
3320	0	29564	
3321	0	29568	
3322	0	29584	
3323	0	29620	
3324	0	29660	
3325	0	29696	
3326	0	29724	
3327	0	29748	
3328	0	29778	
3329	0	29840	
3330	0	29908	
3331	0	29968	
3332	0	30052	
3333	0	30120	
3334	0	30154	
3335	0	30176	
3336	0	30224	
3337	0	30260	
3338	0	30274	
3339	0	30292	
3340	0	30296	
3341	0	30284	
3342	0	30320	
3343	0	30372	
3344	0	30436	
3345	0	30496	
3346	0	30556	
3347	0	30612	
3348	0	30672	
3349	0	30728	
3350	0	30716	
3351	0	30704	
3352	0	30684	
3353	0	30688	
3354	0	30676	
3355	0	30632	
3356	0	30616	
3357	0	30608	
3358	0	30632	
3359	0	30650	
3360	0	30624	
3361	0	30604	
3362	0	30632	
3363	0	30676	
3364	0	30688	
3365	0	30696	
3366	0	30692	
3367	0	30696	
3368	0	30704	
3369	0	30704	
3370	0	30694	
3371	0	30680	
3372	0	30714	
3373	0	30729	
3374	0	30736	
3375	0	30704	
3376	0	30704	
3377	0	30716	
3378	0	30704	
3379	0	30696	
3380	0	30704	
3381	0	30724	
3382	0	30740	
3383	0	30764	
3384	0	30760	
3385	0	30782	
3386	0	30796	
3387	0	30804	
3388	0	30796	
3389	0	30762	
3390	0	30754	
3391	0	30784	
3392	0	30796	
3393	0	30852	
3394	0	30916	
3395	0	30952	
3396	0	30956	
3397	0	30974	
3398	0	30968	
3399	0	31008	
3400	0	31000	
3401	0	30980	
3402	0	30924	
3403	0	30892	
3404	0	30908	
3405	0	30872	
3406	0	30872	
3407	0	30896	
3408	0	30928	
3409	0	30932	
3410	0	30912	
3411	0	30868	
3412	0	30828	
3413	0	30822	
3414	0	30816	
3415	0	30832	
3416	0	30816	
3417	0	30828	
3418	0	30856	
3419	0	30850	
3420	0	30836	
3421	0	30904	
3422	0	31000	
3423	0	31040	
3424	0	31068	
3425	0	31064	
3426	0	31052	
3427	0	31032	
3428	0	31036	
3429	0	31024	
3430	0	31016	
3431	0	31010	
3432	0	31016	
3433	0	31058	
3434	0	31116	
3435	0	31160	
3436	0	31172	
3437	0	31176	
3438	0	31168	
3439	0	31192	
3440	0	31192	
3441	0	31196	
3442	0	31208	
3443	0	31222	
3444	0	31248	
3445	0	31252	
3446	0	31216	
3447	0	31196	
3448	0	31196	
3449	0	31144	
3450	0	31124	
3451	0	31136	
3452	0	31156	
3453	0	31184	
3454	0	31204	
3455	0	31260	
3456	0	31328	
3457	0	31388	
3458	0	31416	
3459	0	31420	
3460	0	31388	
3461	0	31388	
3462	0	31372	
3463	0	31388	
3464	0	31416	
3465	0	31452	
3466	0	31476	
3467	0	31502	
3468	0	31540	
3469	0	31548	
3470	0	31552	
3471	0	31524	
3472	0	31536	
3473	0	31572	
3474	0	31608	
3475	0	31604	
3476	0	31608	
3477	0	31600	
3478	0	31546	
3479	0	31512	
3480	0	31496	
3481	0	31496	
3482	0	31520	
3483	0	31546	
3484	0	31564	
3485	0	31584	
3486	0	31592	
3487	0	31620	
3488	0	31656	
3489	0	31688	
3490	0	31712	
3491	0	31724	
3492	0	31716	
3493	0	31696	
3494	0	31656	
3495	0	31632	
3496	0	31592	
3497	0	31564	
3498	0	31556	
3499	0	31550	
3500	0	31552	
3501	0	31560	
3502	0	31598	
3503	0	31612	
3504	0	31628	
3505	0	31680	
3506	0	31732	
3507	0	31808	
3508	0	31904	
3509	0	31952	
3510	0	31992	
3511	0	31994	
3512	0	31962	
3513	0	31920	
3514	0	31898	
3515	0	31844	
3516	0	31786	
3517	0	31762	
3518	0	31774	
3519	0	31792	
3520	0	31808	
3521	0	31848	
3522	0	31896	
3523	0	31944	
3524	0	32016	
3525	0	32092	
3526	0	32176	
3527	0	32212	
3528	0	32188	
3529	0	32184	
3530	0	32184	
3531	0	32152	
3532	0	32104	
3533	0	32096	
3534	0	32080	
3535	0	32088	
3536	0	32076	
3537	0	32060	
3538	0	32056	
3539	0	32036	
3540	0	32080	
3541	0	32128	
3542	0	32164	
3543	0	32204	
3544	0	32202	
3545	0	32208	
3546	0	32228	
3547	0	32256	
3548	0	32272	
3549	0	32248	
3550	0	32256	
3551	0	32284	
3552	0	32280	
3553	0	32236	
3554	0	32208	
3555	0	32212	
3556	0	32196	
3557	0	32164	
3558	0	32176	
3559	0	32216	
3560	0	32252	
3561	0	32236	
3562	0	32200	
3563	0	32216	
3564	0	32192	
3565	0	32176	
3566	0	32260	
3567	0	32344	
3568	0	32392	
3569	0	32408	
3570	0	32384	
3571	0	32352	
3572	0	32320	
3573	0	32312	
3574	0	32328	
3575	0	32348	
3576	0	32376	
3577	0	32432	
3578	0	32488	
3579	0	32506	
3580	0	32488	
3581	0	32462	
3582	0	32428	
3583	0	32400	
3584	0	32372	
3585	0	32388	
3586	0	32424	
3587	0	32424	
3588	0	32432	
3589	0	32498	
3590	0	32560	
3591	0	32592	
3592	0	32608	
3593	0	32592	
3594	0	32600	
3595	0	32620	
3596	0	32620	
3597	0	32616	
3598	0	32600	
3599	0	32588	
3600	0	32588	
3601	0	32584	
3602	0	32604	
3603	0	32624	
3604	0	32656	
3605	0	32656	
3606	0	32694	
3607	0	32712	
3608	0	32728	
3609	0	32744	
3610	0	32700	
3611	0	32648	
3612	0	32618	
3613	0	32592	
3614	0	32604	
3615	0	32636	
3616	0	32684	
3617	0	32728	
3618	0	32744	
3619	0	32740	
3620	0	32732	
3621	0	32752	
3622	0	32772	
3623	0	32784	
3624	0	32792	
3625	0	32752	
3626	0	32728	
3627	0	32712	
3628	0	32716	
3629	0	32768	
3630	0	32772	
3631	0	32792	
3632	0	32848	
3633	0	32904	
3634	0	32892	
3635	0	32872	
3636	0	32856	
3637	0	32856	
3638	0	32852	
3639	0	32872	
3640	0	32866	
3641	0	32840	
3642	0	32826	
3643	0	32800	
3644	0	32788	
3645	0	32792	
3646	0	32824	
3647	0	32842	
3648	0	32884	
3649	0	32928	
3650	0	32952	
3651	0	32942	
3652	0	32916	
3653	0	32912	
3654	0	32896	
3655	0	32900	
3656	0	32968	
3657	0	33048	
3658	0	33098	
3659	0	33088	
3660	0	32996	
3661	0	32876	
3662	0	32808	
3663	0	32742	
3664	0	32724	
3665	0	32748	
3666	0	32772	
3667	0	32760	
3668	0	32706	
3669	0	32688	
3670	0	32680	
3671	0	32700	
3672	0	32696	
3673	0	32720	
3674	0	32772	
3675	0	32776	
3676	0	32796	
3677	0	32832	
3678	0	32820	
3679	0	32788	
3680	0	32792	
3681	0	32816	
3682	0	32846	
3683	0	32832	
3684	0	32864	
3685	0	32868	
3686	0	32908	
3687	0	32956	
3688	0	32988	
3689	0	33028	
3690	0	33104	
3691	0	33172	
3692	0	33264	
3693	0	33352	
3694	0	33440	
3695	0	33476	
3696	0	33474	
3697	0	33492	
3698	0	33600	
3699	0	33728	
3700	0	33852	
3701	0	33944	
3702	0	33912	
3703	0	33808	
3704	0	33696	
3705	0	33652	
3706	0	33620	
3707	0	33620	
3708	0	33644	
3709	0	33674	
3710	0	33698	
3711	0	33704	
3712	0	33688	
3713	0	33668	
3714	0	33636	
3715	0	33660	
3716	0	33752	
3717	0	33840	
3718	0	33928	
3719	0	33984	
3720	0	34044	
3721	0	34104	
3722	0	34116	
3723	0	34104	
3724	0	34034	
3725	0	33980	
3726	0	33960	
3727	0	33952	
3728	0	33896	
3729	0	33840	
3730	0	33780	
3731	0	33696	
3732	0	33585	
3733	0	33420	
3734	0	33188	
3735	0	32952	
3736	0	32756	
3737	0	32588	
3738	0	32508	
3739	0	32464	
3740	0	32464	
3741	0	32496	
3742	0	32524	
3743	0	32584	
3744	0	32608	
3745	0	32620	
3746	0	32642	
3747	0	32672	
3748	0	32684	
3749	0	32668	
3750	0	32684	
3751	0	32680	
3752	0	32722	
3753	0	32768	
3754	0	32784	
3755	0	32792	
3756	0	32772	
3757	0	32764	
3758	0	32808	
3759	0	32850	
3760	0	32840	
3761	0	32840	
3762	0	32836	
3763	0	32848	
3764	0	32892	
3765	0	32940	
3766	0	32980	
3767	0	32956	
3768	0	32932	
3769	0	32908	
3770	0	32916	
3771	0	32936	
3772	0	32952	
3773	0	32944	
3774	0	32984	
3775	0	33018	
3776	0	33076	
3777	0	33136	
3778	0	33202	
3779	0	33272	
3780	0	33324	
3781	0	33356	
3782	0	33348	
3783	0	33364	
3784	0	33388	
3785	0	33440	
3786	0	33444	
3787	0	33460	
3788	0	33396	
3789	0	33252	
3790	0	33056	
3791	0	32820	
3792	0	32472	
3793	0	32000	
3794	0	31376	
3795	0	30676	
3796	0	30064	
3797	0	29600	
3798	0	29298	
3799	0	29164	
3800	0	29260	
3801	0	29516	
3802	0	29928	
3803	0	30496	
3804	0	31168	
3805	0	32108	
3806	0	33284	
3807	0	34574	
3808	0	35936	
3809	0	37448	
3810	0	39266	
3811	0	41412	
3812	0	43728	
3813	0	46304	
3814	0	49136	
3815	0	52072	
3816	0	55064	
3817	0	58280	
3818	0	61460	
3819	0	63384	
3820	0	64408	
3821	0	64912	
3822	0	65116	
3823	0	65172	
3824	0	65144	
3825	0	65080	
3826	0	64980	
3827	0	64868	
3828	0	64740	
3829	0	64608	
3830	0	64480	
3831	0	64352	
3832	0	64232	
3833	0	64104	
3834	0	63972	
3835	0	57616	
3836	0	50968	
3837	0	45024	
3838	0	39784	
3839	0	35276	
3840	0	31652	
3841	0	28872	
3842	0	26876	
3843	0	25548	
3844	0	24786	
3845	0	24340	
3846	0	24036	
3847	0	23808	
3848	0	23580	
3849	0	23348	
3850	0	23032	
3851	0	22726	
3852	0	22544	
3853	0	22472	
3854	0	22486	
3855	0	22564	
3856	0	22764	
3857	0	23074	
3858	0	23468	
3859	0	23924	
3860	0	24536	
3861	0	25164	
3862	0	25702	
3863	0	26228	
3864	0	26688	
3865	0	27048	
3866	0	27358	
3867	0	27600	
3868	0	27816	
3869	0	28044	
3870	0	28256	
3871	0	28408	
3872	0	28504	
3873	0	28576	
3874	0	28620	
3875	0	28656	
3876	0	28672	
3877	0	28680	
3878	0	28712	
3879	0	28732	
3880	0	28716	
3881	0	28728	
3882	0	28742	
3883	0	28780	
3884	0	28824	
3885	0	28880	
3886	0	28944	
3887	0	28960	
3888	0	28980	
3889	0	29084	
3890	0	29216	
3891	0	29332	
3892	0	29394	
3893	0	29440	
3894	0	29464	
3895	0	29504	
3896	0	29540	
3897	0	29586	
3898	0	29644	
3899	0	29648	
3900	0	29668	
3901	0	29732	
3902	0	29824	
3903	0	29884	
3904	0	29936	
3905	0	29992	
3906	0	30036	
3907	0	30114	
3908	0	30176	
3909	0	30216	
3910	0	30272	
3911	0	30344	
3912	0	30410	
3913	0	30444	
3914	0	30496	
3915	0	30544	
3916	0	30584	
3917	0	30612	
3918	0	30656	
3919	0	30690	
3920	0	30740	
3921	0	30784	
3922	0	30824	
3923	0	30880	
3924	0	30920	
3925	0	30956	
3926	0	31004	
3927	0	31048	
3928	0	31104	
3929	0	31152	
3930	0	31196	
3931	0	31220	
3932	0	31304	
3933	0	31361	
3934	0	31432	
3935	0	31496	
3936	0	31524	
3937	0	31568	
3938	0	31612	
3939	0	31644	
3940	0	31676	
3941	0	31736	
3942	0	31800	
3943	0	31876	
3944	0	31962	
3945	0	32000	
3946	0	32020	
3947	0	32048	
3948	0	32100	
3949	0	32156	
3950	0	32200	
3951	0	32236	
3952	0	32280	
3953	0	32328	
3954	0	32324	
3955	0	32288	
3956	0	32268	
3957	0	32268	
3958	0	32256	
3959	0	32284	
3960	0	32352	
3961	0	32424	
3962	0	32492	
3963	0	32568	
3964	0	32604	
3965	0	32584	
3966	0	32632	
3967	0	32692	
3968	0	32736	
3969	0	32770	
3970	0	32820	
3971	0	32856	
3972	0	32848	
3973	0	32800	
3974	0	32816	
3975	0	32840	
3976	0	32904	
3977	0	32916	
3978	0	32984	
3979	0	33060	
3980	0	33088	
3981	0	33100	
3982	0	33104	
3983	0	33124	
3984	0	33184	
3985	0	33244	
3986	0	33344	
3987	0	33452	
3988	0	33576	
3989	0	33672	
3990	0	33696	
3991	0	33722	
3992	0	33768	
3993	0	33816	
3994	0	33832	
3995	0	33860	
3996	0	33876	
3997	0	33904	
3998	0	33944	
3999	0	33988	
4000	0	34040	
4001	0	34140	
4002	0	34248	
4003	0	34336	
4004	0	34392	
4005	0	34468	
4006	0	34560	
4007	0	34660	
4008	0	34748	
4009	0	34824	
4010	0	34890	
4011	0	34948	
4012	0	35024	
4013	0	35092	
4014	0	35188	
4015	0	35280	
4016	0	35324	
4017	0	35368	
4018	0	35432	
4019	0	35520	
4020	0	35596	
4021	0	35668	
4022	0	35780	
4023	0	35900	
4024	0	35980	
4025	0	36096	
4026	0	36216	
4027	0	36264	
4028	0	36292	
4029	0	36352	
4030	0	36412	
4031	0	36480	
4032	0	36540	
4033	0	36608	
4034	0	36736	
4035	0	36840	
4036	0	36900	
4037	0	37004	
4038	0	37160	
4039	0	37284	
4040	0	37402	
4041	0	37492	
4042	0	37576	
4043	0	37664	
4044	0	37776	
4045	0	37900	
4046	0	38016	
4047	0	38144	
4048	0	38224	
4049	0	38328	
4050	0	38434	
4051	0	38516	
4052	0	38624	
4053	0	38724	
4054	0	38832	
4055	0	38936	
4056	0	39008	
4057	0	39104	
4058	0	39196	
4059	0	39288	
4060	0	39388	
4061	0	39480	
4062	0	39568	
4063	0	39652	
4064	0	39708	
4065	0	39784	
4066	0	39876	
4067	0	39968	
4068	0	40068	
4069	0	40140	
4070	0	40172	
4071	0	40180	
4072	0	40212	
4073	0	40288	
4074	0	40324	
4075	0	40312	
4076	0	40316	
4077	0	40324	
4078	0	40360	
4079	0	40388	
4080	0	40408	
4081	0	40420	
4082	0	40408	
4083	0	40372	
4084	0	40356	
4085	0	40336	
4086	0	40304	
4087	0	40286	
4088	0	40276	
4089	0	40272	
4090	0	40248	
4091	0	40184	
4092	0	40128	
4093	0	40052	
4094	0	39988	
4095	0	39888	
4096	0	39804	
4097	0	39712	
4098	0	39620	
4099	0	39512	
4100	0	39420	
4101	0	39336	
4102	0	39268	
4103	0	39168	
4104	0	39072	
4105	0	38984	
4106	0	38828	
4107	0	38670	
4108	0	38472	
4109	0	38300	
4110	0	38128	
4111	0	37936	
4112	0	37704	
4113	0	37468	
4114	0	37236	
4115	0	36992	
4116	0	36744	
4117	0	36468	
4118	0	36180	
4119	0	35908	
4120	0	35648	
4121	0	35394	
4122	0	35112	
4123	0	34824	
4124	0	34512	
4125	0	34252	
4126	0	33976	
4127	0	33692	
4128	0	33420	
4129	0	33132	
4130	0	32832	
4131	0	32512	
4132	0	32244	
4133	0	31972	
4134	0	31704	
4135	0	31450	
4136	0	31184	
4137	0	30940	
4138	0	30704	
4139	0	30476	
4140	0	30232	
4141	0	30008	
4142	0	29800	
4143	0	29596	
4144	0	29384	
4145	0	29176	
4146	0	28996	
4147	0	28820	
4148	0	28636	
4149	0	28456	
4150	0	28276	
4151	0	28116	
4152	0	27940	
4153	0	27776	
4154	0	27636	
4155	0	27532	
4156	0	27408	
4157	0	27272	
4158	0	27140	
4159	0	27024	
4160	0	26876	
4161	0	26764	
4162	0	26684	
4163	0	26612	
4164	0	26564	
4165	0	26512	
4166	0	26448	
4167	0	26332	
4168	0	26220	
4169	0	26124	
4170	0	26034	
4171	0	25980	
4172	0	25896	
4173	0	25828	
4174	0	25784	
4175	0	25752	
4176	0	25746	
4177	0	25720	
4178	0	25690	
4179	0	25644	
4180	0	25592	
4181	0	25584	
4182	0	25594	
4183	0	25632	
4184	0	25664	
4185	0	25668	
4186	0	25657	
4187	0	25672	
4188	0	25716	
4189	0	25761	
4190	0	25826	
4191	0	25828	
4192	0	25824	
4193	0	25829	
4194	0	25832	
4195	0	25828	
4196	0	25808	
4197	0	25866	
4198	0	25916	
4199	0	25932	
4200	0	25954	
4201	0	26012	
4202	0	26098	
4203	0	26180	
4204	0	26232	
4205	0	26296	
4206	0	26396	
4207	0	26462	
4208	0	26500	
4209	0	26560	
4210	0	26624	
4211	0	26700	
4212	0	26756	
4213	0	26828	
4214	0	26848	
4215	0	26876	
4216	0	26908	
4217	0	26964	
4218	0	27032	
4219	0	27056	
4220	0	27120	
4221	0	27216	
4222	0	27292	
4223	0	27364	
4224	0	27414	
4225	0	27468	
4226	0	27516	
4227	0	27560	
4228	0	27612	
4229	0	27656	
4230	0	27700	
4231	0	27784	
4232	0	27816	
4233	0	27832	
4234	0	27884	
4235	0	27920	
4236	0	27968	
4237	0	28056	
4238	0	28160	
4239	0	28268	
4240	0	28336	
4241	0	28396	
4242	0	28448	
4243	0	28492	
4244	0	28504	
4245	0	28548	
4246	0	28588	
4247	0	28653	
4248	0	28712	
4249	0	28784	
4250	0	28820	
4251	0	28864	
4252	0	28912	
4253	0	28958	
4254	0	29000	
4255	0	29040	
4256	0	29072	
4257	0	29136	
4258	0	29164	
4259	0	29186	
4260	0	29216	
4261	0	29252	
4262	0	29296	
4263	0	29348	
4264	0	29384	
4265	0	29424	
4266	0	29464	
4267	0	29552	
4268	0	29636	
4269	0	29708	
4270	0	29776	
4271	0	29788	
4272	0	29822	
4273	0	29844	
4274	0	29844	
4275	0	29844	
4276	0	29872	
4277	0	29900	
4278	0	29968	
4279	0	30028	
4280	0	30064	
4281	0	30108	
4282	0	30168	
4283	0	30208	
4284	0	30228	
4285	0	30248	
4286	0	30284	
4287	0	30324	
4288	0	30368	
4289	0	30368	
4290	0	30394	
4291	0	30408	
4292	0	30404	
4293	0	30416	
4294	0	30432	
4295	0	30458	
4296	0	30480	
4297	0	30488	
4298	0	30456	
4299	0	30424	
4300	0	30418	
4301	0	30452	
4302	0	30516	
4303	0	30554	
4304	0	30608	
4305	0	30628	
4306	0	30640	
4307	0	30680	
4308	0	30684	
4309	0	30676	
4310	0	30656	
4311	0	30656	
4312	0	30672	
4313	0	30720	
4314	0	30714	
4315	0	30688	
4316	0	30672	
4317	0	30666	
4318	0	30672	
4319	0	30688	
4320	0	30684	
4321	0	30684	
4322	0	30672	
4323	0	30668	
4324	0	30672	
4325	0	30706	
4326	0	30754	
4327	0	30784	
4328	0	30776	
4329	0	30784	
4330	0	30804	
4331	0	30804	
4332	0	30812	
4333	0	30796	
4334	0	30776	
4335	0	30729	
4336	0	30728	
4337	0	30744	
4338	0	30736	
4339	0	30754	
4340	0	30784	
4341	0	30808	
4342	0	30804	
4343	0	30814	
4344	0	30800	
4345	0	30770	
4346	0	30752	
4347	0	30752	
4348	0	30776	
4349	0	30820	
4350	0	30888	
4351	0	30928	
4352	0	30952	
4353	0	30956	
4354	0	30940	
4355	0	30944	
4356	0	30948	
4357	0	30902	
4358	0	30880	
4359	0	30880	
4360	0	30920	
4361	0	30976	
4362	0	30996	
4363	0	31008	
4364	0	31024	
4365	0	31020	
4366	0	31044	
4367	0	31048	
4368	0	31044	
4369	0	31048	
4370	0	31064	
4371	0	31088	
4372	0	31112	
4373	0	31100	
4374	0	31088	
4375	0	31096	
4376	0	31104	
4377	0	31128	
4378	0	31112	
4379	0	31112	
4380	0	31140	
4381	0	31124	
4382	0	31168	
4383	0	31208	
4384	0	31224	
4385	0	31220	
4386	0	31264	
4387	0	31304	
4388	0	31352	
4389	0	31352	
4390	0	31328	
4391	0	31348	
4392	0	31392	
4393	0	31392	
4394	0	31392	
4395	0	31404	
4396	0	31416	
4397	0	31364	
4398	0	31324	
4399	0	31292	
4400	0	31296	
4401	0	31296	
4402	0	31288	
4403	0	31312	
4404	0	31394	
4405	0	31476	
4406	0	31540	
4407	0	31580	
4408	0	31584	
4409	0	31608	
4410	0	31640	
4411	0	31626	
4412	0	31564	
4413	0	31528	
4414	0	31536	
4415	0	31576	
4416	0	31608	
4417	0	31596	
4418	0	31580	
4419	0	31600	
4420	0	31660	
4421	0	31684	
4422	0	31676	
4423	0	31664	
4424	0	31692	
4425	0	31780	
4426	0	31808	
4427	0	31752	
4428	0	31752	
4429	0	31764	
4430	0	31768	
4431	0	31798	
4432	0	31820	
4433	0	31848	
4434	0	31868	
4435	0	31876	
4436	0	31908	
4437	0	31882	
4438	0	31876	
4439	0	31864	
4440	0	31876	
4441	0	31928	
4442	0	31948	
4443	0	31940	
4444	0	31936	
4445	0	31960	
4446	0	31988	
4447	0	32028	
4448	0	32048	
4449	0	32032	
4450	0	32008	
4451	0	32026	
4452	0	32032	
4453	0	32032	
4454	0	32016	
4455	0	32024	
4456	0	32040	
4457	0	32058	
4458	0	32076	
4459	0	32084	
4460	0	32100	
4461	0	32112	
4462	0	32100	
4463	0	32112	
4464	0	32120	
4465	0	32148	
4466	0	32140	
4467	0	32152	
4468	0	32200	
4469	0	32240	
4470	0	32244	
4471	0	32268	
4472	0	32240	
4473	0	32212	
4474	0	32188	
4475	0	32180	
4476	0	32164	
4477	0	32184	
4478	0	32216	
4479	0	32236	
4480	0	32248	
4481	0	32252	
4482	0	32256	
4483	0	32252	
4484	0	32256	
4485	0	32284	
4486	0	32300	
4487	0	32348	
4488	0	32388	
4489	0	32402	
4490	0	32384	
4491	0	32352	
4492	0	32344	
4493	0	32344	
4494	0	32388	
4495	0	32404	
4496	0	32396	
4497	0	32376	
4498	0	32348	
4499	0	32312	
4500	0	32304	
4501	0	32336	
4502	0	32328	
4503	0	32336	
4504	0	32344	
4505	0	32368	
4506	0	32392	
4507	0	32428	
4508	0	32452	
4509	0	32492	
4510	0	32492	
4511	0	32484	
4512	0	32484	
4513	0	32496	
4514	0	32476	
4515	0	32484	
4516	0	32478	
4517	0	32468	
4518	0	32484	
4519	0	32480	
4520	0	32524	
4521	0	32528	
4522	0	32548	
4523	0	32576	
4524	0	32564	
4525	0	32562	
4526	0	32568	
4527	0	32600	
4528	0	32600	
4529	0	32576	
4530	0	32600	
4531	0	32604	
4532	0	32576	
4533	0	32564	
4534	0	32568	
4535	0	32584	
4536	0	32614	
4537	0	32608	
4538	0	32618	
4539	0	32628	
4540	0	32632	
4541	0	32644	
4542	0	32632	
4543	0	32648	
4544	0	32676	
4545	0	32692	
4546	0	32716	
4547	0	32704	
4548	0	32736	
4549	0	32776	
4550	0	32792	
4551	0	32800	
4552	0	32800	
4553	0	32802	
4554	0	32800	
4555	0	32775	
4556	0	32760	
4557	0	32746	
4558	0	32740	
4559	0	32748	
4560	0	32748	
4561	0	32728	
4562	0	32768	
4563	0	32816	
4564	0	32852	
4565	0	32908	
4566	0	32928	
4567	0	32928	
4568	0	32924	
4569	0	32932	
4570	0	32960	
4571	0	32960	
4572	0	32944	
4573	0	32944	
4574	0	32956	
4575	0	32968	
4576	0	32974	
4577	0	32992	
4578	0	32980	
4579	0	32962	
4580	0	32968	
4581	0	33012	
4582	0	33044	
4583	0	33068	
4584	0	33088	
4585	0	33072	
4586	0	33068	
4587	0	33084	
4588	0	33060	
4589	0	33064	
4590	0	33048	
4591	0	33048	
4592	0	33012	
4593	0	32984	
4594	0	32972	
4595	0	32984	
4596	0	33002	
4597	0	33032	
4598	0	33034	
4599	0	33032	
4600	0	33052	
4601	0	33080	
4602	0	33120	
4603	0	33116	
4604	0	33076	
4605	0	33040	
4606	0	33056	
4607	0	33072	
4608	0	33092	
4609	0	33096	
4610	0	33120	
4611	0	33132	
4612	0	33128	
4613	0	33136	
4614	0	33140	
4615	0	33144	
4616	0	33124	
4617	0	33092	
4618	0	33128	
4619	0	33156	
4620	0	33180	
4621	0	33204	
4622	0	33236	
4623	0	33258	
4624	0	33232	
4625	0	33216	
4626	0	33240	
4627	0	33268	
4628	0	33294	
4629	0	33312	
4630	0	33344	
4631	0	33360	
4632	0	33336	
4633	0	33304	
4634	0	33216	
4635	0	33112	
4636	0	33028	
4637	0	32968	
4638	0	32948	
4639	0	32948	
4640	0	32928	
4641	0	32876	
4642	0	32832	
4643	0	32772	
4644	0	32756	
4645	0	32774	
4646	0	32816	
4647	0	32896	
4648	0	32984	
4649	0	33048	
4650	0	33064	
4651	0	33056	
4652	0	33060	
4653	0	33080	
4654	0	33152	
4655	0	33216	
4656	0	33238	
4657	0	33248	
4658	0	33248	
4659	0	33232	
4660	0	33216	
4661	0	33201	
4662	0	33232	
4663	0	33288	
4664	0	33346	
4665	0	33420	
4666	0	33472	
4667	0	33544	
4668	0	33568	
4669	0	33584	
4670	0	33620	
4671	0	33680	
4672	0	33804	
4673	0	33908	
4674	0	33956	
4675	0	34004	
4676	0	33988	
4677	0	33910	
4678	0	33838	
4679	0	33772	
4680	0	33748	
4681	0	33768	
4682	0	33776	
4683	0	33824	
4684	0	33852	
4685	0	33848	
4686	0	33876	
4687	0	33952	
4688	0	33986	
4689	0	34028	
4690	0	34062	
4691	0	34100	
4692	0	34116	
4693	0	34152	
4694	0	34204	
4695	0	34248	
4696	0	34268	
4697	0	34232	
4698	0	34156	
4699	0	34102	
4700	0	34032	
4701	0	33986	
4702	0	33976	
4703	0	33960	
4704	0	33944	
4705	0	33884	
4706	0	33760	
4707	0	33588	
4708	0	33344	
4709	0	33064	
4710	0	32832	
4711	0	32700	
4712	0	32704	
4713	0	32740	
4714	0	32756	
4715	0	32766	
4716	0	32760	
4717	0	32760	
4718	0	32776	
4719	0	32784	
4720	0	32768	
4721	0	32752	
4722	0	32748	
4723	0	32750	
4724	0	32784	
4725	0	32856	
4726	0	32920	
4727	0	32960	
4728	0	33000	
4729	0	33014	
4730	0	33024	
4731	0	33044	
4732	0	33060	
4733	0	33072	
4734	0	33088	
4735	0	33112	
4736	0	33104	
4737	0	33068	
4738	0	33088	
4739	0	33124	
4740	0	33148	
4741	0	33132	
4742	0	33120	
4743	0	33172	
4744	0	33208	
4745	0	33272	
4746	0	33344	
4747	0	33378	
4748	0	33404	
4749	0	33432	
4750	0	33476	
4751	0	33494	
4752	0	33504	
4753	0	33518	
4754	0	33544	
4755	0	33564	
4756	0	33580	
4757	0	33581	
4758	0	33572	
4759	0	33596	
4760	0	33572	
4761	0	33558	
4762	0	33536	
4763	0	33488	
4764	0	33376	
4765	0	33176	
4766	0	32912	
4767	0	32564	
4768	0	32112	
4769	0	31564	
4770	0	30920	
4771	0	30312	
4772	0	29820	
4773	0	29492	
4774	0	29340	
4775	0	29412	
4776	0	29616	
4777	0	29970	
4778	0	30492	
4779	0	31128	
4780	0	32028	
4781	0	33156	
4782	0	34444	
4783	0	35820	
4784	0	37376	
4785	0	39200	
4786	0	41340	
4787	0	43704	
4788	0	46320	
4789	0	49172	
4790	0	52096	
4791	0	55136	
4792	0	58356	
4793	0	61576	
4794	0	63648	
4795	0	64708	
4796	0	65264	
4797	0	65488	
4798	0	65535	
4799	0	65535	
4800	0	65472	
4801	0	65376	
4802	0	65264	
4803	0	65148	
4804	0	65016	
4805	0	64888	
4806	0	64752	
4807	0	64628	
4808	0	64498	
4809	0	64372	
4810	0	59820	
4811	0	52928	
4812	0	46576	
4813	0	41112	
4814	0	36428	
4815	0	32496	
4816	0	29300	
4817	0	26888	
4818	0	25333	
4819	0	24520	
4820	0	24028	
4821	0	23684	
4822	0	23436	
4823	0	23248	
4824	0	23072	
4825	0	22932	
4826	0	22872	
4827	0	22908	
4828	0	22972	
4829	0	23100	
4830	0	23360	
4831	0	23668	
4832	0	24068	
4833	0	24692	
4834	0	25424	
4835	0	26096	
4836	0	26712	
4837	0	27244	
4838	0	27692	
4839	0	28030	
4840	0	28314	
4841	0	28536	
4842	0	28740	
4843	0	28948	
4844	0	29144	
4845	0	29284	
4846	0	29376	
4847	0	29452	
4848	0	29472	
4849	0	29468	
4850	0	29468	
4851	0	29464	
4852	0	29440	
4853	0	29408	
4854	0	29372	
4855	0	29384	
4856	0	29386	
4857	0	29412	
4858	0	29464	
4859	0	29530	
4860	0	29596	
4861	0	29644	
4862	0	29656	
4863	0	29688	
4864	0	29732	
4865	0	29768	
4866	0	29820	
4867	0	29868	
4868	0	29916	
4869	0	29952	
4870	0	29974	
4871	0	30024	
4872	0	30088	
4873	0	30138	
4874	0	30180	
4875	0	30180	
4876	0	30212	
4877	0	30280	
4878	0	30324	
4879	0	30388	
4880	0	30460	
4881	0	30536	
4882	0	30574	
4883	0	30612	
4884	0	30656	
4885	0	30704	
4886	0	30788	
4887	0	30856	
4888	0	30904	
4889	0	30944	
4890	0	30988	
4891	0	31044	
4892	0	31120	
4893	0	31184	
4894	0	31208	
4895	0	31206	
4896	0	31216	
4897	0	31244	
4898	0	31284	
4899	0	31312	
4900	0	31352	
4901	0	31392	
4902	0	31424	
4903	0	31444	
4904	0	31468	
4905	0	31500	
4906	0	31564	
4907	0	31588	
4908	0	31628	
4909	0	31662	
4910	0	31684	
4911	0	31740	
4912	0	31784	
4913	0	31828	
4914	0	31872	
4915	0	31912	
4916	0	31952	
4917	0	31980	
4918	0	32008	
4919	0	32028	
4920	0	32048	
4921	0	32100	
4922	0	32136	
4923	0	32184	
4924	0	32224	
4925	0	32272	
4926	0	32312	
4927	0	32352	
4928	0	32376	
4929	0	32412	
4930	0	32456	
4931	0	32484	
4932	0	32504	
4933	0	32548	
4934	0	32592	
4935	0	32636	
4936	0	32648	
4937	0	32632	
4938	0	32640	
4939	0	32672	
4940	0	32752	
4941	0	32808	
4942	0	32884	
4943	0	32984	
4944	0	33056	
4945	0	33088	
4946	0	33124	
4947	0	33164	
4948	0	33192	
4949	0	33220	
4950	0	33248	
4951	0	33276	
4952	0	33344	
4953	0	33384	
4954	0	33412	
4955	0	33432	
4956	0	33484	
4957	0	33544	
4958	0	33588	
4959	0	33624	
4960	0	33684	
4961	0	33704	
4962	0	33732	
4963	0	33764	
4964	0	33838	
4965	0	33908	
4966	0	33980	
4967	0	34024	
4968	0	34062	
4969	0	34096	
4970	0	34116	
4971	0	34144	
4972	0	34144	
4973	0	34156	
4974	0	34212	
4975	0	34304	
4976	0	34388	
4977	0	34464	
4978	0	34528	
4979	0	34592	
4980	0	34668	
4981	0	34744	
4982	0	34800	
4983	0	34880	
4984	0	34976	
4985	0	35080	
4986	0	35152	
4987	0	35200	
4988	0	35280	
4989	0	35344	
4990	0	35424	
4991	0	35516	
4992	0	35556	
4993	0	35596	
4994	0	35656	
4995	0	35746	
4996	0	35820	
4997	0	35916	
4998	0	36028	
4999	0	36100	
5000	0	36172	
5001	0	36238	
5002	0	36320	
5003	0	36444	
5004	0	36536	
5005	0	36604	
5006	0	36720	
5007	0	36808	
5008	0	36900	
5009	0	37032	
5010	0	37144	
5011	0	37236	
5012	0	37344	
5013	0	37458	
5014	0	37552	
5015	0	37664	
5016	0	37740	
5017	0	37792	
5018	0	37848	
5019	0	37952	
5020	0	38068	
5021	0	38172	
5022	0	38272	
5023	0	38372	
5024	0	38484	
5025	0	38624	
5026	0	38744	
5027	0	38848	
5028	0	38964	
5029	0	39088	
5030	0	39252	
5031	0	39388	
5032	0	39500	
5033	0	39600	
5034	0	39704	
5035	0	39808	
5036	0	39900	
5037	0	40000	
5038	0	40084	
5039	0	40128	
5040	0	40154	
5041	0	40230	
5042	0	40324	
5043	0	40420	
5044	0	40512	
5045	0	40588	
5046	0	40672	
5047	0	40704	
5048	0	40756	
5049	0	40792	
5050	0	40820	
5051	0	40848	
5052	0	40844	
5053	0	40880	
5054	0	40884	
5055	0	40848	
5056	0	40836	
5057	0	40868	
5058	0	40892	
5059	0	40892	
5060	0	40900	
5061	0	40882	
5062	0	40860	
5063	0	40808	
5064	0	40804	
5065	0	40820	
5066	0	40808	
5067	0	40784	
5068	0	40796	
5069	0	40756	
5070	0	40724	
5071	0	40684	
5072	0	40576	
5073	0	40452	
5074	0	40350	
5075	0	40232	
5076	0	40120	
5077	0	39984	
5078	0	39840	
5079	0	39680	
5080	0	39536	
5081	0	39376	
5082	0	39200	
5083	0	39016	
5084	0	38812	
5085	0	38620	
5086	0	38436	
5087	0	38244	
5088	0	38036	
5089	0	37824	
5090	0	37588	
5091	0	37320	
5092	0	37056	
5093	0	36808	
5094	0	36556	
5095	0	36284	
5096	0	35996	
5097	0	35738	
5098	0	35476	
5099	0	35180	
5100	0	34904	
5101	0	34624	
5102	0	34310	
5103	0	34008	
5104	0	33752	
5105	0	33504	
5106	0	33248	
5107	0	32972	
5108	0	32720	
5109	0	32446	
5110	0	32176	
5111	0	31912	
5112	0	31624	
5113	0	31356	
5114	0	31104	
5115	0	30864	
5116	0	30604	
5117	0	30392	
5118	0	30160	
5119	0	29964	
5120	0	29793	
5121	0	29600	
5122	0	29354	
5123	0	29112	
5124	0	28916	
5125	0	28740	
5126	0	28576	
5127	0	28406	
5128	0	28218	
5129	0	28048	
5130	0	27884	
5131	0	27720	
5132	0	27584	
5133	0	27456	
5134	0	27312	
5135	0	27172	
5136	0	27052	
5137	0	26956	
5138	0	26864	
5139	0	26760	
5140	0	26644	
5141	0	26554	
5142	0	26488	
5143	0	26448	
5144	0	26388	
5145	0	26328	
5146	0	26290	
5147	0	26236	
5148	0	26208	
5149	0	26204	
5150	0	26180	
5151	0	26138	
5152	0	26124	
5153	0	26106	
5154	0	26076	
5155	0	26040	
5156	0	25992	
5157	0	25984	
5158	0	25968	
5159	0	25960	
5160	0	25936	
5161	0	25920	
5162	0	25956	
5163	0	26044	
5164	0	26104	
5165	0	26144	
5166	0	26164	
5167	0	26200	
5168	0	26206	
5169	0	26216	
5170	0	26232	
5171	0	26260	
5172	0	26276	
5173	0	26300	
5174	0	26340	
5175	0	26364	
5176	0	26396	
5177	0	26432	
5178	0	26486	
5179	0	26556	
5180	0	26612	
5181	0	26666	
5182	0	26724	
5183	0	26752	
5184	0	26760	
5185	0	26744	
5186	0	26816	
5187	0	26884	
5188	0	26920	
5189	0	26922	
5190	0	26956	
5191	0	27052	
5192	0	27140	
5193	0	27172	
5194	0	27236	
5195	0	27264	
5196	0	27316	
5197	0	27398	
5198	0	27440	
5199	0	27496	
5200	0	27536	
5201	0	27568	
5202	0	27596	
5203	0	27652	
5204	0	27728	
5205	0	27780	
5206	0	27820	
5207	0	27876	
5208	0	27944	
5209	0	27988	
5210	0	28048	
5211	0	28104	
5212	0	28152	
5213	0	28216	
5214	0	28268	
5215	0	28280	
5216	0	28308	
5217	0	28364	
5218	0	28404	
5219	0	28464	
5220	0	28504	
5221	0	28564	
5222	0	28616	
5223	0	28624	
5224	0	28680	
5225	0	28780	
5226	0	28864	
5227	0	28908	
5228	0	28946	
5229	0	28996	
5230	0	29058	
5231	0	29120	
5232	0	29200	
5233	0	29248	
5234	0	29248	
5235	0	29244	
5236	0	29244	
5237	0	29248	
5238	0	29252	
5239	0	29308	
5240	0	29360	
5241	0	29416	
5242	0	29428	
5243	0	29500	
5244	0	29556	
5245	0	29588	
5246	0	29604	
5247	0	29650	
5248	0	29708	
5249	0	29760	
5250	0	29824	
5251	0	29860	
5252	0	29872	
5253	0	29900	
5254	0	29916	
5255	0	29920	
5256	0	29930	
5257	0	29952	
5258	0	30000	
5259	0	30048	
5260	0	30104	
5261	0	30160	
5262	0	30212	
5263	0	30276	
5264	0	30304	
5265	0	30340	
5266	0	30384	
5267	0	30398	
5268	0	30416	
5269	0	30436	
5270	0	30464	
5271	0	30464	
5272	0	30496	
5273	0	30484	
5274	0	30496	
5275	0	30512	
5276	0	30508	
5277	0	30516	
5278	0	30514	
5279	0	30516	
5280	0	30508	
5281	0	30516	
5282	0	30536	
5283	0	30532	
5284	0	30528	
5285	0	30560	
5286	0	30628	
5287	0	30680	
5288	0	30714	
5289	0	30720	
5290	0	30712	
5291	0	30688	
5292	0	30664	
5293	0	30684	
5294	0	30704	
5295	0	30702	
5296	0	30688	
5297	0	30680	
5298	0	30678	
5299	0	30696	
5300	0	30724	
5301	0	30744	
5302	0	30724	
5303	0	30720	
5304	0	30712	
5305	0	30726	
5306	0	30801	
5307	0	30844	
5308	0	30840	
5309	0	30840	
5310	0	30824	
5311	0	30804	
5312	0	30816	
5313	0	30812	
5314	0	30768	
5315	0	30788	
5316	0	30828	
5317	0	30840	
5318	0	30816	
5319	0	30816	
5320	0	30812	
5321	0	30828	
5322	0	30820	
5323	0	30844	
5324	0	30856	
5325	0	30840	
5326	0	30856	
5327	0	30888	
5328	0	30924	
5329	0	30936	
5330	0	30920	
5331	0	30936	
5332	0	30980	
5333	0	31004	
5334	0	31018	
5335	0	31032	
5336	0	31072	
5337	0	31072	
5338	0	31036	
5339	0	30986	
5340	0	30944	
5341	0	30980	
5342	0	31008	
5343	0	31004	
5344	0	31020	
5345	0	31032	
5346	0	31076	
5347	0	31092	
5348	0	31104	
5349	0	31104	
5350	0	31088	
5351	0	31076	
5352	0	31052	
5353	0	31086	
5354	0	31128	
5355	0	31124	
5356	0	31148	
5357	0	31168	
5358	0	31168	
5359	0	31140	
5360	0	31128	
5361	0	31132	
5362	0	31156	
5363	0	31200	
5364	0	31238	
5365	0	31220	
5366	0	31264	
5367	0	31296	
5368	0	31304	
5369	0	31325	
5370	0	31312	
5371	0	31300	
5372	0	31282	
5373	0	31276	
5374	0	31300	
5375	0	31320	
5376	0	31344	
5377	0	31373	
5378	0	31380	
5379	0	31380	
5380	0	31360	
5381	0	31370	
5382	0	31376	
5383	0	31420	
5384	0	31472	
5385	0	31488	
5386	0	31524	
5387	0	31528	
5388	0	31544	
5389	0	31564	
5390	0	31556	
5391	0	31556	
5392	0	31568	
5393	0	31584	
5394	0	31592	
5395	0	31592	
5396	0	31584	
5397	0	31588	
5398	0	31576	
5399	0	31598	
5400	0	31616	
5401	0	31646	
5402	0	31668	
5403	0	31668	
5404	0	31690	
5405	0	31722	
5406	0	31768	
5407	0	31784	
5408	0	31800	
5409	0	31820	
5410	0	31824	
5411	0	31812	
5412	0	31822	
5413	0	31832	
5414	0	31852	
5415	0	31832	
5416	0	31826	
5417	0	31856	
5418	0	31896	
5419	0	31888	
5420	0	31872	
5421	0	31852	
5422	0	31884	
5423	0	31888	
5424	0	31916	
5425	0	31944	
5426	0	32000	
5427	0	32052	
5428	0	32058	
5429	0	32080	
5430	0	32096	
5431	0	32080	
5432	0	32080	
5433	0	32092	
5434	0	32124	
5435	0	32160	
5436	0	32156	
5437	0	32126	
5438	0	32072	
5439	0	32032	
5440	0	32004	
5441	0	32032	
5442	0	32016	
5443	0	32056	
5444	0	32084	
5445	0	32108	
5446	0	32132	
5447	0	32156	
5448	0	32192	
5449	0	32236	
5450	0	32252	
5451	0	32264	
5452	0	32272	
5453	0	32272	
5454	0	32252	
5455	0	32252	
5456	0	32248	
5457	0	32224	
5458	0	32192	
5459	0	32168	
5460	0	32190	
5461	0	32252	
5462	0	32298	
5463	0	32290	
5464	0	32284	
5465	0	32280	
5466	0	32324	
5467	0	32362	
5468	0	32404	
5469	0	32428	
5470	0	32457	
5471	0	32468	
5472	0	32448	
5473	0	32432	
5474	0	32388	
5475	0	32344	
5476	0	32320	
5477	0	32348	
5478	0	32364	
5479	0	32360	
5480	0	32372	
5481	0	32392	
5482	0	32440	
5483	0	32452	
5484	0	32432	
5485	0	32436	
5486	0	32484	
5487	0	32524	
5488	0	32524	
5489	0	32516	
5490	0	32528	
5491	0	32572	
5492	0	32612	
5493	0	32616	
5494	0	32596	
5495	0	32598	
5496	0	32612	
5497	0	32632	
5498	0	32600	
5499	0	32580	
5500	0	32600	
5501	0	32622	
5502	0	32672	
5503	0	32704	
5504	0	32704	
5505	0	32726	
5506	0	32754	
5507	0	32772	
5508	0	32782	
5509	0	32776	
5510	0	32776	
5511	0	32780	
5512	0	32792	
5513	0	32772	
5514	0	32714	
5515	0	32664	
5516	0	32632	
5517	0	32640	
5518	0	32636	
5519	0	32664	
5520	0	32704	
5521	0	32696	
5522	0	32700	
5523	0	32704	
5524	0	32736	
5525	0	32800	
5526	0	32844	
5527	0	32912	
5528	0	32948	
5529	0	32980	
5530	0	32980	
5531	0	32944	
5532	0	32920	
5533	0	32896	
5534	0	32896	
5535	0	32896	
5536	0	32868	
5537	0	32858	
5538	0	32836	
5539	0	32788	
5540	0	32772	
5541	0	32732	
5542	0	32696	
5543	0	32736	
5544	0	32792	
5545	0	32828	
5546	0	32860	
5547	0	32892	
5548	0	32940	
5549	0	32964	
5550	0	32986	
5551	0	32964	
5552	0	32940	
5553	0	32950	
5554	0	32976	
5555	0	32972	
5556	0	32976	
5557	0	32964	
5558	0	32942	
5559	0	32908	
5560	0	32908	
5561	0	32904	
5562	0	32892	
5563	0	32900	
5564	0	32928	
5565	0	32976	
5566	0	33018	
5567	0	33072	
5568	0	33148	
5569	0	33216	
5570	0	33224	
5571	0	33220	
5572	0	33200	
5573	0	33180	
5574	0	33176	
5575	0	33184	
5576	0	33184	
5577	0	33218	
5578	0	33208	
5579	0	33176	
5580	0	33144	
5581	0	33096	
5582	0	33058	
5583	0	33024	
5584	0	33018	
5585	0	33008	
5586	0	33008	
5587	0	33028	
5588	0	33056	
5589	0	33076	
5590	0	33072	
5591	0	33060	
5592	0	33057	
5593	0	33048	
5594	0	33068	
5595	0	33052	
5596	0	33032	
5597	0	33056	
5598	0	33070	
5599	0	33064	
5600	0	33072	
5601	0	33040	
5602	0	32992	
5603	0	32980	
5604	0	32994	
5605	0	32976	
5606	0	32988	
5607	0	32996	
5608	0	32956	
5609	0	32928	
5610	0	32944	
5611	0	32960	
5612	0	32980	
5613	0	33020	
5614	0	33096	
5615	0	33184	
5616	0	33224	
5617	0	33244	
5618	0	33232	
5619	0	33236	
5620	0	33306	
5621	0	33328	
5622	0	33328	
5623	0	33346	
5624	0	33364	
5625	0	33365	
5626	0	33360	
5627	0	33296	
5628	0	33218	
5629	0	33164	
5630	0	33112	
5631	0	33068	
5632	0	33012	
5633	0	32940	
5634	0	32932	
5635	0	32904	
5636	0	32856	
5637	0	32788	
5638	0	32784	
5639	0	32826	
5640	0	32892	
5641	0	32940	
5642	0	32972	
5643	0	33034	
5644	0	33064	
5645	0	33088	
5646	0	33166	
5647	0	33240	
5648	0	33304	
5649	0	33316	
5650	0	33308	
5651	0	33266	
5652	0	33224	
5653	0	33200	
5654	0	33172	
5655	0	33172	
5656	0	33260	
5657	0	33360	
5658	0	33386	
5659	0	33412	
5660	0	33472	
5661	0	33492	
5662	0	33526	
5663	0	33540	
5664	0	33628	
5665	0	33824	
5666	0	34018	
5667	0	34152	
5668	0	34180	
5669	0	34132	
5670	0	34080	
5671	0	34024	
5672	0	33952	
5673	0	33864	
5674	0	33862	
5675	0	33888	
5676	0	33948	
5677	0	33960	
5678	0	33960	
5679	0	33976	
5680	0	34000	
5681	0	34012	
5682	0	34080	
5683	0	34128	
5684	0	34164	
5685	0	34208	
5686	0	34220	
5687	0	34272	
5688	0	34288	
5689	0	34284	
5690	0	34266	
5691	0	34200	
5692	0	34148	
5693	0	34108	
5694	0	34092	
5695	0	34096	
5696	0	34064	
5697	0	33996	
5698	0	33888	
5699	0	33714	
5700	0	33442	
5701	0	33164	
5702	0	32888	
5703	0	32712	
5704	0	32628	
5705	0	32620	
5706	0	32656	
5707	0	32714	
5708	0	32780	
5709	0	32812	
5710	0	32828	
5711	0	32860	
5712	0	32926	
5713	0	32984	
5714	0	32972	
5715	0	32912	
5716	0	32896	
5717	0	32864	
5718	0	32844	
5719	0	32884	
5720	0	32956	
5721	0	33012	
5722	0	33044	
5723	0	33058	
5724	0	33072	
5725	0	33080	
5726	0	33056	
5727	0	33072	
5728	0	33088	
5729	0	33088	
5730	0	33084	
5731	0	33080	
5732	0	33048	
5733	0	33010	
5734	0	33008	
5735	0	33030	
5736	0	33072	
5737	0	33112	
5738	0	33136	
5739	0	33208	
5740	0	33324	
5741	0	33380	
5742	0	33412	
5743	0	33440	
5744	0	33472	
5745	0	33536	
5746	0	33568	
5747	0	33624	
5748	0	33672	
5749	0	33688	
5750	0	33688	
5751	0	33760	
5752	0	33818	
5753	0	33792	
5754	0	33744	
5755	0	33732	
5756	0	33696	
5757	0	33624	
5758	0	33496	
5759	0	33292	
5760	0	33064	
5761	0	32804	
5762	0	32432	
5763	0	31892	
5764	0	31200	
5765	0	30516	
5766	0	30030	
5767	0	29724	
5768	0	29562	
5769	0	29594	
5770	0	29786	
5771	0	30124	
5772	0	30632	
5773	0	31236	
5774	0	32096	
5775	0	33252	
5776	0	34580	
5777	0	35972	
5778	0	37548	
5779	0	39408	
5780	0	41596	
5781	0	43964	
5782	0	46596	
5783	0	49476	
5784	0	52480	
5785	0	55600	
5786	0	58860	
5787	0	61936	
5788	0	63664	
5789	0	64600	
5790	0	65056	
5791	0	65232	
5792	0	65284	
5793	0	65244	
5794	0	65188	
5795	0	65080	
5796	0	64952	
5797	0	64832	
5798	0	64704	
5799	0	64576	
5800	0	64464	
5801	0	64308	
5802	0	64200	
5803	0	64064	
5804	0	58784	
5805	0	52088	
5806	0	45952	
5807	0	40696	
5808	0	36168	
5809	0	32368	
5810	0	29386	
5811	0	27184	
5812	0	25744	
5813	0	24954	
5814	0	24480	
5815	0	24144	
5816	0	23876	
5817	0	23694	
5818	0	23494	
5819	0	23284	
5820	0	23164	
5821	0	23144	
5822	0	23214	
5823	0	23328	
5824	0	23538	
5825	0	23838	
5826	0	24220	
5827	0	24722	
5828	0	25392	
5829	0	26080	
5830	0	26712	
5831	0	27312	
5832	0	27808	
5833	0	28168	
5834	0	28420	
5835	0	28608	
5836	0	28788	
5837	0	28976	
5838	0	29148	
5839	0	29296	
5840	0	29344	
5841	0	29368	
5842	0	29360	
5843	0	29352	
5844	0	29344	
5845	0	29340	
5846	0	29372	
5847	0	29450	
5848	0	29508	
5849	0	29552	
5850	0	29596	
5851	0	29640	
5852	0	29672	
5853	0	29712	
5854	0	29730	
5855	0	29758	
5856	0	29764	
5857	0	29796	
5858	0	29832	
5859	0	29864	
5860	0	29896	
5861	0	29924	
5862	0	29956	
5863	0	30000	
5864	0	30084	
5865	0	30176	
5866	0	30296	
5867	0	30348	
5868	0	30404	
5869	0	30460	
5870	0	30540	
5871	0	30624	
5872	0	30696	
5873	0	30724	
5874	0	30752	
5875	0	30768	
5876	0	30816	
5877	0	30868	
5878	0	30936	
5879	0	30988	
5880	0	30984	
5881	0	30968	
5882	0	30976	
5883	0	31060	
5884	0	31192	
5885	0	31276	
5886	0	31338	
5887	0	31368	
5888	0	31392	
5889	0	31440	
5890	0	31506	
5891	0	31560	
5892	0	31640	
5893	0	31684	
5894	0	31704	
5895	0	31728	
5896	0	31760	
5897	0	31792	
5898	0	31840	
5899	0	31808	
5900	0	31772	
5901	0	31776	
5902	0	31772	
5903	0	31816	
5904	0	31828	
5905	0	31884	
5906	0	31992	
5907	0	32132	
5908	0	32228	
5909	0	32300	
5910	0	32332	
5911	0	32324	
5912	0	32288	
5913	0	32264	
5914	0	32272	
5915	0	32312	
5916	0	32338	
5917	0	32372	
5918	0	32408	
5919	0	32472	
5920	0	32518	
5921	0	32552	
5922	0	32624	
5923	0	32712	
5924	0	32748	
5925	0	32776	
5926	0	32776	
5927	0	32808	
5928	0	32848	
5929	0	32888	
5930	0	32916	
5931	0	32942	
5932	0	32940	
5933	0	32964	
5934	0	33048	
5935	0	33104	
5936	0	33108	
5937	0	33112	
5938	0	33120	
5939	0	33114	
5940	0	33136	
5941	0	33136	
5942	0	33140	
5943	0	33162	
5944	0	33244	
5945	0	33328	
5946	0	33408	
5947	0	33456	
5948	0	33524	
5949	0	33596	
5950	0	33664	
5951	0	33708	
5952	0	33756	
5953	0	33808	
5954	0	33808	
5955	0	33848	
5956	0	33892	
5957	0	33920	
5958	0	33912	
5959	0	33908	
5960	0	33936	
5961	0	34000	
5962	0	34056	
5963	0	34144	
5964	0	34236	
5965	0	34308	
5966	0	34408	
5967	0	34484	
5968	0	34576	
5969	0	34660	
5970	0	34720	
5971	0	34776	
5972	0	34848	
5973	0	34910	
5974	0	34968	
5975	0	35016	
5976	0	35002	
5977	0	34980	
5978	0	35018	
5979	0	35076	
5980	0	35156	
5981	0	35272	
5982	0	35384	
5983	0	35418	
5984	0	35440	
5985	0	35504	
5986	0	35616	
5987	0	35704	
5988	0	35748	
5989	0	35816	
5990	0	35864	
5991	0	35928	
5992	0	35992	
5993	0	36064	
5994	0	36144	
5995	0	36200	
5996	0	36260	
5997	0	36346	
5998	0	36456	
5999	0	36568	
6000	0	36660	
6001	0	36764	
6002	0	36864	
6003	0	36968	
6004	0	37072	
6005	0	37188	
6006	0	37258	
6007	0	37328	
6008	0	37424	
6009	0	37552	
6010	0	37654	
6011	0	37764	
6012	0	37876	
6013	0	37976	
6014	0	38076	
6015	0	38176	
6016	0	38268	
6017	0	38322	
6018	0	38388	
6019	0	38488	
6020	0	38632	
6021	0	38734	
6022	0	38752	
6023	0	38760	
6024	0	38840	
6025	0	38984	
6026	0	39120	
6027	0	39268	
6028	0	39380	
6029	0	39504	
6030	0	39592	
6031	0	39708	
6032	0	39820	
6033	0	39970	
6034	0	40088	
6035	0	40208	
6036	0	40304	
6037	0	40364	
6038	0	40428	
6039	0	40504	
6040	0	40560	
6041	0	40600	
6042	0	40664	
6043	0	40680	
6044	0	40692	
6045	0	40712	
6046	0	40736	
6047	0	40736	
6048	0	40752	
6049	0	40740	
6050	0	40724	
6051	0	40692	
6052	0	40672	
6053	0	40664	
6054	0	40716	
6055	0	40744	
6056	0	40748	
6057	0	40712	
6058	0	40666	
6059	0	40620	
6060	0	40644	
6061	0	40624	
6062	0	40588	
6063	0	40588	
6064	0	40560	
6065	0	40480	
6066	0	40372	
6067	0	40288	
6068	0	40216	
6069	0	40136	
6070	0	40036	
6071	0	39936	
6072	0	39868	
6073	0	39784	
6074	0	39616	
6075	0	39412	
6076	0	39200	
6077	0	38984	
6078	0	38800	
6079	0	38620	
6080	0	38440	
6081	0	38256	
6082	0	38080	
6083	0	37864	
6084	0	37652	
6085	0	37448	
6086	0	37260	
6087	0	37044	
6088	0	36776	
6089	0	36492	
6090	0	36176	
6091	0	35836	
6092	0	35504	
6093	0	35160	
6094	0	34848	
6095	0	34524	
6096	0	34208	
6097	0	33928	
6098	0	33664	
6099	0	33368	
6100	0	33052	
6101	0	32780	
6102	0	32534	
6103	0	32280	
6104	0	31996	
6105	0	31756	
6106	0	31528	
6107	0	31330	
6108	0	31136	
6109	0	30896	
6110	0	30612	
6111	0	30328	
6112	0	30092	
6113	0	29892	
6114	0	29748	
6115	0	29612	
6116	0	29456	
6117	0	29256	
6118	0	29072	
6119	0	28898	
6120	0	28724	
6121	0	28476	
6122	0	28284	
6123	0	28128	
6124	0	28000	
6125	0	27882	
6126	0	27674	
6127	0	27456	
6128	0	27292	
6129	0	27164	
6130	0	27048	
6131	0	26932	
6132	0	26768	
6133	0	26584	
6134	0	26444	
6135	0	26356	
6136	0	26224	
6137	0	26116	
6138	0	26020	
6139	0	25948	
6140	0	25902	
6141	0	25928	
6142	0	25936	
6143	0	25896	
6144	0	25852	
6145	0	25816	
6146	0	25776	
6147	0	25720	
6148	0	25728	
6149	0	25756	
6150	0	25756	
6151	0	25728	
6152	0	25708	
6153	0	25712	
6154	0	25732	
6155	0	25772	
6156	0	25784	
6157	0	25824	
6158	0	25824	
6159	0	25824	
6160	0	25792	
6161	0	25776	
6162	0	25773	
6163	0	25792	
6164	0	25788	
6165	0	25776	
6166	0	25760	
6167	0	25764	
6168	0	25850	
6169	0	25980	
6170	0	26064	
6171	0	26036	
6172	0	26010	
6173	0	26010	
6174	0	26072	
6175	0	26160	
6176	0	26230	
6177	0	26296	
6178	0	26344	
6179	0	26430	
6180	0	26544	
6181	0	26632	
6182	0	26692	
6183	0	26696	
6184	0	26712	
6185	0	26752	
6186	0	26824	
6187	0	26914	
6188	0	26976	
6189	0	26980	
6190	0	27004	
6191	0	27032	
6192	0	27076	
6193	0	27072	
6194	0	27060	
6195	0	27096	
6196	0	27156	
6197	0	27244	
6198	0	27264	
6199	0	27260	
6200	0	27324	
6201	0	27424	
6202	0	27500	
6203	0	27540	
6204	0	27584	
6205	0	27672	
6206	0	27776	
6207	0	27882	
6208	0	27960	
6209	0	28024	
6210	0	28048	
6211	0	28076	
6212	0	28104	
6213	0	28144	
6214	0	28204	
6215	0	28210	
6216	0	28232	
6217	0	28272	
6218	0	28324	
6219	0	28366	
6220	0	28384	
6221	0	28408	
6222	0	28521	
6223	0	28636	
6224	0	28768	
6225	0	28896	
6226	0	29016	
6227	0	29056	
6228	0	29114	
6229	0	29220	
6230	0	29320	
6231	0	29372	
6232	0	29352	
6233	0	29328	
6234	0	29292	
6235	0	29274	
6236	0	29276	
6237	0	29294	
6238	0	29336	
6239	0	29384	
6240	0	29414	
6241	0	29460	
6242	0	29520	
6243	0	29624	
6244	0	29776	
6245	0	29920	
6246	0	30012	
6247	0	30080	
6248	0	30128	
6249	0	30176	
6250	0	30160	
6251	0	30142	
6252	0	30140	
6253	0	30108	
6254	0	30060	
6255	0	29984	
6256	0	29968	
6257	0	29992	
6258	0	30040	
6259	0	30100	
6260	0	30196	
6261	0	30292	
6262	0	30384	
6263	0	30404	
6264	0	30402	
6265	0	30404	
6266	0	30456	
6267	0	30524	
6268	0	30588	
6269	0	30660	
6270	0	30760	
6271	0	30832	
6272	0	30820	
6273	0	30780	
6274	0	30792	
6275	0	30808	
6276	0	30804	
6277	0	30800	
6278	0	30764	
6279	0	30680	
6280	0	30652	
6281	0	30648	
6282	0	30676	
6283	0	30720	
6284	0	30784	
6285	0	30896	
6286	0	30988	
6287	0	30992	
6288	0	30996	
6289	0	31036	
6290	0	31108	
6291	0	31236	
6292	0	31368	
6293	0	31440	
6294	0	31480	
6295	0	31468	
6296	0	31408	
6297	0	31352	
6298	0	31328	
6299	0	31336	
6300	0	31342	
6301	0	31340	
6302	0	31360	
6303	0	31412	
6304	0	31424	
6305	0	31456	
6306	0	31460	
6307	0	31472	
6308	0	31504	
6309	0	31506	
6310	0	31500	
6311	0	31438	
6312	0	31348	
6313	0	31276	
6314	0	31228	
6315	0	31216	
6316	0	31228	
6317	0	31216	
6318	0	31204	
6319	0	31220	
6320	0	31244	
6321	0	31252	
6322	0	31274	
6323	0	31322	
6324	0	31332	
6325	0	31324	
6326	0	31368	
6327	0	31450	
6328	0	31504	
6329	0	31528	
6330	0	31548	
6331	0	31576	
6332	0	31648	
6333	0	31636	
6334	0	31584	
6335	0	31532	
6336	0	31528	
6337	0	31516	
6338	0	31554	
6339	0	31612	
6340	0	31632	
6341	0	31640	
6342	0	31680	
6343	0	31716	
6344	0	31738	
6345	0	31750	
6346	0	31712	
6347	0	31644	
6348	0	31576	
6349	0	31556	
6350	0	31584	
6351	0	31600	
6352	0	31632	
6353	0	31668	
6354	0	31720	
6355	0	31718	
6356	0	31684	
6357	0	31694	
6358	0	31704	
6359	0	31656	
6360	0	31612	
6361	0	31624	
6362	0	31668	
6363	0	31648	
6364	0	31664	
6365	0	31716	
6366	0	31732	
6367	0	31732	
6368	0	31760	
6369	0	31784	
6370	0	31792	
6371	0	31808	
6372	0	31892	
6373	0	31952	
6374	0	31952	
6375	0	31942	
6376	0	31910	
6377	0	31860	
6378	0	31808	
6379	0	31794	
6380	0	31824	
6381	0	31876	
6382	0	31900	
6383	0	31896	
6384	0	31832	
6385	0	31751	
6386	0	31712	
6387	0	31700	
6388	0	31644	
6389	0	31598	
6390	0	31596	
6391	0	31568	
6392	0	31568	
6393	0	31630	
6394	0	31744	
6395	0	31840	
6396	0	31896	
6397	0	31944	
6398	0	31976	
6399	0	31968	
6400	0	31944	
6401	0	31948	
6402	0	31932	
6403	0	31940	
6404	0	31956	
6405	0	32060	
6406	0	32140	
6407	0	32164	
6408	0	32104	
6409	0	32004	
6410	0	31968	
6411	0	31985	
6412	0	31988	
6413	0	31976	
6414	0	31936	
6415	0	31864	
6416	0	31836	
6417	0	31888	
6418	0	31936	
6419	0	31956	
6420	0	31944	
6421	0	31960	
6422	0	31982	
6423	0	32044	
6424	0	32088	
6425	0	32120	
6426	0	32144	
6427	0	32188	
6428	0	32232	
6429	0	32260	
6430	0	32284	
6431	0	32296	
6432	0	32314	
6433	0	32308	
6434	0	32268	
6435	0	32208	
6436	0	32176	
6437	0	32164	
6438	0	32132	
6439	0	32172	
6440	0	32224	
6441	0	32232	
6442	0	32228	
6443	0	32272	
6444	0	32296	
6445	0	32348	
6446	0	32392	
6447	0	32428	
6448	0	32452	
6449	0	32448	
6450	0	32416	
6451	0	32384	
6452	0	32368	
6453	0	32324	
6454	0	32248	
6455	0	32160	
6456	0	32084	
6457	0	32040	
6458	0	32076	
6459	0	32096	
6460	0	32104	
6461	0	32146	
6462	0	32212	
6463	0	32236	
6464	0	32248	
6465	0	32232	
6466	0	32236	
6467	0	32248	
6468	0	32204	
6469	0	32208	
6470	0	32220	
6471	0	32240	
6472	0	32272	
6473	0	32320	
6474	0	32412	
6475	0	32552	
6476	0	32672	
6477	0	32716	
6478	0	32704	
6479	0	32636	
6480	0	32620	
6481	0	32560	
6482	0	32448	
6483	0	32372	
6484	0	32410	
6485	0	32480	
6486	0	32508	
6487	0	32524	
6488	0	32552	
6489	0	32668	
6490	0	32748	
6491	0	32764	
6492	0	32776	
6493	0	32796	
6494	0	32784	
6495	0	32744	
6496	0	32716	
6497	0	32688	
6498	0	32712	
6499	0	32732	
6500	0	32780	
6501	0	32788	
6502	0	32746	
6503	0	32688	
6504	0	32612	
6505	0	32544	
6506	0	32500	
6507	0	32420	
6508	0	32388	
6509	0	32352	
6510	0	32348	
6511	0	32369	
6512	0	32412	
6513	0	32436	
6514	0	32448	
6515	0	32504	
6516	0	32560	
6517	0	32640	
6518	0	32720	
6519	0	32800	
6520	0	32880	
6521	0	32892	
6522	0	32880	
6523	0	32912	
6524	0	32956	
6525	0	33010	
6526	0	33040	
6527	0	33024	
6528	0	32964	
6529	0	32944	
6530	0	32914	
6531	0	32864	
6532	0	32830	
6533	0	32832	
6534	0	32828	
6535	0	32796	
6536	0	32784	
6537	0	32746	
6538	0	32728	
6539	0	32708	
6540	0	32708	
6541	0	32772	
6542	0	32874	
6543	0	32968	
6544	0	33090	
6545	0	33174	
6546	0	33168	
6547	0	33152	
6548	0	33156	
6549	0	33148	
6550	0	33128	
6551	0	33120	
6552	0	33096	
6553	0	33100	
6554	0	33084	
6555	0	33008	
6556	0	32926	
6557	0	32880	
6558	0	32854	
6559	0	32856	
6560	0	32888	
6561	0	32892	
6562	0	32864	
6563	0	32840	
6564	0	32868	
6565	0	32912	
6566	0	32962	
6567	0	33032	
6568	0	33064	
6569	0	33090	
6570	0	33092	
6571	0	33092	
6572	0	33120	
6573	0	33176	
6574	0	33188	
6575	0	33176	
6576	0	33104	
6577	0	33028	
6578	0	32968	
6579	0	32960	
6580	0	33000	
6581	0	33012	
6582	0	32992	
6583	0	32976	
6584	0	33008	
6585	0	33092	
6586	0	33188	
6587	0	33278	
6588	0	33346	
6589	0	33388	
6590	0	33386	
6591	0	33344	
6592	0	33268	
6593	0	33240	
6594	0	33260	
6595	0	33256	
6596	0	33204	
6597	0	33164	
6598	0	33124	
6599	0	33068	
6600	0	33024	
6601	0	33028	
6602	0	33076	
6603	0	33140	
6604	0	33184	
6605	0	33216	
6606	0	33296	
6607	0	33416	
6608	0	33472	
6609	0	33508	
6610	0	33532	
6611	0	33532	
6612	0	33420	
6613	0	33286	
6614	0	33160	
6615	0	33124	
6616	0	33102	
6617	0	33080	
6618	0	33056	
6619	0	33054	
6620	0	33028	
6621	0	32996	
6622	0	32964	
6623	0	32920	
6624	0	32872	
6625	0	32874	
6626	0	32928	
6627	0	33012	
6628	0	33072	
6629	0	33080	
6630	0	33028	
6631	0	33048	
6632	0	33080	
6633	0	33092	
6634	0	33120	
6635	0	33096	
6636	0	33044	
6637	0	33060	
6638	0	33080	
6639	0	33044	
6640	0	33030	
6641	0	33044	
6642	0	33100	
6643	0	33176	
6644	0	33216	
6645	0	33264	
6646	0	33336	
6647	0	33376	
6648	0	33352	
6649	0	33312	
6650	0	33330	
6651	0	33396	
6652	0	33536	
6653	0	33728	
6654	0	33892	
6655	0	34020	
6656	0	34048	
6657	0	34016	
6658	0	33984	
6659	0	33984	
6660	0	33944	
6661	0	33936	
6662	0	33968	
6663	0	34012	
6664	0	34002	
6665	0	34012	
6666	0	33978	
6667	0	33908	
6668	0	33880	
6669	0	33944	
6670	0	34058	
6671	0	34136	
6672	0	34216	
6673	0	34228	
6674	0	34254	
6675	0	34236	
6676	0	34172	
6677	0	34128	
6678	0	34096	
6679	0	34008	
6680	0	33978	
6681	0	33980	
6682	0	33996	
6683	0	33968	
6684	0	33892	
6685	0	33812	
6686	0	33712	
6687	0	33544	
6688	0	33292	
6689	0	33016	
6690	0	32792	
6691	0	32666	
6692	0	32656	
6693	0	32692	
6694	0	32736	
6695	0	32784	
6696	0	32824	
6697	0	32832	
6698	0	32796	
6699	0	32784	
6700	0	32772	
6701	0	32772	
6702	0	32736	
6703	0	32720	
6704	0	32736	
6705	0	32744	
6706	0	32808	
6707	0	32924	
6708	0	32996	
6709	0	33044	
6710	0	33080	
6711	0	33104	
6712	0	33128	
6713	0	33128	
6714	0	33120	
6715	0	33104	
6716	0	33068	
6717	0	33064	
6718	0	33084	
6719	0	33080	
6720	0	33052	
6721	0	33052	
6722	0	33088	
6723	0	33114	
6724	0	33156	
6725	0	33172	
6726	0	33188	
6727	0	33228	
6728	0	33268	
6729	0	33284	
6730	0	33296	
6731	0	33324	
6732	0	33361	
6733	0	33420	
6734	0	33480	
6735	0	33540	
6736	0	33588	
6737	0	33632	
6738	0	33652	
6739	0	33616	
6740	0	33600	
6741	0	33578	
6742	0	33560	
6743	0	33520	
6744	0	33448	
6745	0	33316	
6746	0	33164	
6747	0	32962	
6748	0	32704	
6749	0	32324	
6750	0	31852	
6751	0	31296	
6752	0	30720	
6753	0	30264	
6754	0	29952	
6755	0	29752	
6756	0	29756	
6757	0	29984	
6758	0	30360	
6759	0	30920	
6760	0	31584	
6761	0	32414	
6762	0	33500	
6763	0	34754	
6764	0	36068	
6765	0	37540	
6766	0	39280	
6767	0	41410	
6768	0	43716	
6769	0	46160	
6770	0	48852	
6771	0	51776	
6772	0	54792	
6773	0	57968	
6774	0	61160	
6775	0	63072	
6776	0	64064	
6777	0	64560	
6778	0	64788	
6779	0	64840	
6780	0	64820	
6781	0	64732	
6782	0	64652	
6783	0	64548	
6784	0	64412	
6785	0	64296	
6786	0	64172	
6787	0	64048	
6788	0	63916	
6789	0	63784	
6790	0	63668	
6791	0	58920	
6792	0	52272	
6793	0	46332	
6794	0	41064	
6795	0	36440	
6796	0	32728	
6797	0	29984	
6798	0	28040	
6799	0	26720	
6800	0	25914	
6801	0	25404	
6802	0	25012	
6803	0	24720	
6804	0	24500	
6805	0	24320	
6806	0	24088	
6807	0	23868	
6808	0	23716	
6809	0	23636	
6810	0	23644	
6811	0	23692	
6812	0	23736	
6813	0	23852	
6814	0	24064	
6815	0	24332	
6816	0	24664	
6817	0	25088	
6818	0	25688	
6819	0	26264	
6820	0	26768	
6821	0	27208	
6822	0	27576	
6823	0	27888	
6824	0	28136	
6825	0	28400	
6826	0	28656	
6827	0	28884	
6828	0	29084	
6829	0	29242	
6830	0	29342	
6831	0	29372	
6832	0	29380	
6833	0	29368	
6834	0	29376	
6835	0	29368	
6836	0	29364	
6837	0	29384	
6838	0	29416	
6839	0	29500	
6840	0	29562	
6841	0	29636	
6842	0	29692	
6843	0	29744	
6844	0	29796	
6845	0	29856	
6846	0	29912	
6847	0	29952	
6848	0	29956	
6849	0	29968	
6850	0	29968	
6851	0	29948	
6852	0	29956	
6853	0	30016	
6854	0	30048	
6855	0	30100	
6856	0	30160	
6857	0	30252	
6858	0	30344	
6859	0	30464	
6860	0	30582	
6861	0	30660	
6862	0	30684	
6863	0	30724	
6864	0	30716	
6865	0	30712	
6866	0	30762	
6867	0	30828	
6868	0	30900	
6869	0	30984	
6870	0	31028	
6871	0	31056	
6872	0	31082	
6873	0	31092	
6874	0	31132	
6875	0	31144	
6876	0	31184	
6877	0	31228	
6878	0	31254	
6879	0	31296	
6880	0	31324	
6881	0	31348	
6882	0	31368	
6883	0	31382	
6884	0	31432	
6885	0	31514	
6886	0	31584	
6887	0	31648	
6888	0	31732	
6889	0	31812	
6890	0	31842	
6891	0	31884	
6892	0	31876	
6893	0	31856	
6894	0	31876	
6895	0	31928	
6896	0	31944	
6897	0	31949	
6898	0	31948	
6899	0	31956	
6900	0	31972	
6901	0	32004	
6902	0	32056	
6903	0	32098	
6904	0	32116	
6905	0	32132	
6906	0	32152	
6907	0	32196	
6908	0	32264	
6909	0	32322	
6910	0	32344	
6911	0	32400	
6912	0	32448	
6913	0	32516	
6914	0	32560	
6915	0	32596	
6916	0	32612	
6917	0	32628	
6918	0	32632	
6919	0	32688	
6920	0	32772	
6921	0	32888	
6922	0	32992	
6923	0	33024	
6924	0	33018	
6925	0	33032	
6926	0	33024	
6927	0	33026	
6928	0	33044	
6929	0	33084	
6930	0	33144	
6931	0	33180	
6932	0	33256	
6933	0	33340	
6934	0	33368	
6935	0	33388	
6936	0	33440	
6937	0	33478	
6938	0	33528	
6939	0	33572	
6940	0	33636	
6941	0	33704	
6942	0	33764	
6943	0	33784	
6944	0	33788	
6945	0	33816	
6946	0	33860	
6947	0	33920	
6948	0	33968	
6949	0	33996	
6950	0	34048	
6951	0	34052	
6952	0	34088	
6953	0	34132	
6954	0	34188	
6955	0	34228	
6956	0	34280	
6957	0	34338	
6958	0	34368	
6959	0	34420	
6960	0	34520	
6961	0	34640	
6962	0	34724	
6963	0	34832	
6964	0	34944	
6965	0	35008	
6966	0	35088	
6967	0	35152	
6968	0	35228	
6969	0	35320	
6970	0	35396	
6971	0	35460	
6972	0	35548	
6973	0	35608	
6974	0	35676	
6975	0	35706	
6976	0	35712	
6977	0	35752	
6978	0	35808	
6979	0	35860	
6980	0	35936	
6981	0	36000	
6982	0	36056	
6983	0	36114	
6984	0	36164	
6985	0	36260	
6986	0	36360	
6987	0	36524	
6988	0	36676	
6989	0	36772	
6990	0	36836	
6991	0	36906	
6992	0	36972	
6993	0	37056	
6994	0	37160	
6995	0	37256	
6996	0	37380	
6997	0	37492	
6998	0	37592	
6999	0	37704	
7000	0	37780	
7001	0	37896	
7002	0	38000	
7003	0	38128	
7004	0	38280	
7005	0	38400	
7006	0	38522	
7007	0	38624	
7008	0	38728	
7009	0	38820	
7010	0	38932	
7011	0	39066	
7012	0	39164	
7013	0	39272	
7014	0	39356	
7015	0	39436	
7016	0	39512	
7017	0	39588	
7018	0	39664	
7019	0	39736	
7020	0	39808	
7021	0	39900	
7022	0	39992	
7023	0	40088	
7024	0	40160	
7025	0	40200	
7026	0	40260	
7027	0	40360	
7028	0	40432	
7029	0	40464	
7030	0	40492	
7031	0	40530	
7032	0	40592	
7033	0	40620	
7034	0	40652	
7035	0	40664	
7036	0	40648	
7037	0	40680	
7038	0	40724	
7039	0	40756	
7040	0	40752	
7041	0	40724	
7042	0	40682	
7043	0	40632	
7044	0	40588	
7045	0	40544	
7046	0	40488	
7047	0	40448	
7048	0	40408	
7049	0	40384	
7050	0	40364	
7051	0	40344	
7052	0	40300	
7053	0	40236	
7054	0	40188	
7055	0	40084	
7056	0	39948	
7057	0	39832	
7058	0	39712	
7059	0	39564	
7060	0	39404	
7061	0	39228	
7062	0	39064	
7063	0	38900	
7064	0	38760	
7065	0	38612	
7066	0	38468	
7067	0	38288	
7068	0	38100	
7069	0	37864	
7070	0	37632	
7071	0	37396	
7072	0	37148	
7073	0	36920	
7074	0	36676	
7075	0	36384	
7076	0	36138	
7077	0	35872	
7078	0	35588	
7079	0	35288	
7080	0	34988	
7081	0	34676	
7082	0	34364	
7083	0	34084	
7084	0	33816	
7085	0	33556	
7086	0	33312	
7087	0	33034	
7088	0	32732	
7089	0	32372	
7090	0	32000	
7091	0	31624	
7092	0	31292	
7093	0	31000	
7094	0	30738	
7095	0	30472	
7096	0	30248	
7097	0	30008	
7098	0	29812	
7099	0	29624	
7100	0	29416	
7101	0	29226	
7102	0	29056	
7103	0	28864	
7104	0	28692	
7105	0	28538	
7106	0	28368	
7107	0	28196	
7108	0	28032	
7109	0	27836	
7110	0	27608	
7111	0	27420	
7112	0	27264	
7113	0	27092	
7114	0	26984	
7115	0	26869	
7116	0	26750	
7117	0	26636	
7118	0	26532	
7119	0	26440	
7120	0	26364	
7121	0	26272	
7122	0	26160	
7123	0	26060	
7124	0	25972	
7125	0	25932	
7126	0	25892	
7127	0	25832	
7128	0	25808	
7129	0	25794	
7130	0	25764	
7131	0	25748	
7132	0	25716	
7133	0	25672	
7134	0	25630	
7135	0	25604	
7136	0	25596	
7137	0	25582	
7138	0	25573	
7139	0	25586	
7140	0	25612	
7141	0	25602	
7142	0	25580	
7143	0	25620	
7144	0	25692	
7145	0	25730	
7146	0	25742	
7147	0	25720	
7148	0	25716	
7149	0	25712	
7150	0	25720	
7151	0	25732	
7152	0	25760	
7153	0	25784	
7154	0	25792	
7155	0	25800	
7156	0	25812	
7157	0	25836	
7158	0	25928	
7159	0	26016	
7160	0	26060	
7161	0	26100	
7162	0	26124	
7163	0	26160	
7164	0	26200	
7165	0	26264	
7166	0	26280	
7167	0	26344	
7168	0	26408	
7169	0	26472	
7170	0	26532	
7171	0	26616	
7172	0	26674	
7173	0	26704	
7174	0	26724	
7175	0	26754	
7176	0	26778	
7177	0	26860	
7178	0	26944	
7179	0	27002	
7180	0	27056	
7181	0	27124	
7182	0	27220	
7183	0	27264	
7184	0	27328	
7185	0	27416	
7186	0	27456	
7187	0	27514	
7188	0	27568	
7189	0	27672	
7190	0	27728	
7191	0	27776	
7192	0	27802	
7193	0	27866	
7194	0	27900	
7195	0	27984	
7196	0	28068	
7197	0	28116	
7198	0	28160	
7199	0	28224	
7200	0	28276	
7201	0	28316	
7202	0	28336	
7203	0	28384	
7204	0	28448	
7205	0	28524	
7206	0	28584	
7207	0	28626	
7208	0	28664	
7209	0	28704	
7210	0	28766	
7211	0	28836	
7212	0	28924	
7213	0	28960	
7214	0	28972	
7215	0	28922	
7216	0	28924	
7217	0	28960	
7218	0	29000	
7219	0	29040	
7220	0	29064	
7221	0	29068	
7222	0	29098	
7223	0	29148	
7224	0	29194	
7225	0	29244	
7226	0	29248	
7227	0	29300	
7228	0	29376	
7229	0	29440	
7230	0	29484	
7231	0	29560	
7232	0	29640	
7233	0	29720	
7234	0	29742	
7235	0	29729	
7236	0	29732	
7237	0	29748	
7238	0	29766	
7239	0	29808	
7240	0	29834	
7241	0	29876	
7242	0	29924	
7243	0	29960	
7244	0	29998	
7245	0	30034	
7246	0	30068	
7247	0	30116	
7248	0	30156	
7249	0	30184	
7250	0	30184	
7251	0	30216	
7252	0	30208	
7253	0	30208	
7254	0	30200	
7255	0	30194	
7256	0	30216	
7257	0	30250	
7258	0	30252	
7259	0	30264	
7260	0	30316	
7261	0	30332	
7262	0	30362	
7263	0	30380	
7264	0	30368	
7265	0	30368	
7266	0	30380	
7267	0	30368	
7268	0	30384	
7269	0	30384	
7270	0	30360	
7271	0	30364	
7272	0	30362	
7273	0	30360	
7274	0	30364	
7275	0	30392	
7276	0	30434	
7277	0	30476	
7278	0	30480	
7279	0	30480	
7280	0	30488	
7281	0	30472	
7282	0	30450	
7283	0	30432	
7284	0	30457	
7285	0	30480	
7286	0	30488	
7287	0	30496	
7288	0	30506	
7289	0	30528	
7290	0	30540	
7291	0	30572	
7292	0	30608	
7293	0	30628	
7294	0	30632	
7295	0	30608	
7296	0	30604	
7297	0	30596	
7298	0	30608	
7299	0	30648	
7300	0	30692	
7301	0	30704	
7302	0	30656	
7303	0	30640	
7304	0	30636	
7305	0	30664	
7306	0	30668	
7307	0	30672	
7308	0	30688	
7309	0	30700	
7310	0	30712	
7311	0	30764	
7312	0	30804	
7313	0	30820	
7314	0	30780	
7315	0	30772	
7316	0	30776	
7317	0	30808	
7318	0	30824	
7319	0	30818	
7320	0	30796	
7321	0	30766	
7322	0	30736	
7323	0	30760	
7324	0	30802	
7325	0	30836	
7326	0	30896	
7327	0	30948	
7328	0	30944	
7329	0	30932	
7330	0	30898	
7331	0	30861	
7332	0	30830	
7333	0	30812	
7334	0	30816	
7335	0	30820	
7336	0	30801	
7337	0	30808	
7338	0	30816	
7339	0	30816	
7340	0	30816	
7341	0	30832	
7342	0	30860	
7343	0	30872	
7344	0	30900	
7345	0	30932	
7346	0	30964	
7347	0	31008	
7348	0	31042	
7349	0	31072	
7350	0	31088	
7351	0	31104	
7352	0	31128	
7353	0	31140	
7354	0	31132	
7355	0	31128	
7356	0	31116	
7357	0	31124	
7358	0	31168	
7359	0	31160	
7360	0	31188	
7361	0	31172	
7362	0	31198	
7363	0	31216	
7364	0	31224	
7365	0	31256	
7366	0	31272	
7367	0	31280	
7368	0	31308	
7369	0	31332	
7370	0	31328	
7371	0	31324	
7372	0	31316	
7373	0	31308	
7374	0	31312	
7375	0	31328	
7376	0	31352	
7377	0	31392	
7378	0	31396	
7379	0	31408	
7380	0	31448	
7381	0	31464	
7382	0	31468	
7383	0	31496	
7384	0	31552	
7385	0	31622	
7386	0	31644	
7387	0	31628	
7388	0	31652	
7389	0	31676	
7390	0	31668	
7391	0	31648	
7392	0	31632	
7393	0	31616	
7394	0	31628	
7395	0	31616	
7396	0	31604	
7397	0	31568	
7398	0	31528	
7399	0	31514	
7400	0	31564	
7401	0	31596	
7402	0	31648	
7403	0	31652	
7404	0	31668	
7405	0	31660	
7406	0	31678	
7407	0	31716	
7408	0	31762	
7409	0	31816	
7410	0	31832	
7411	0	31804	
7412	0	31784	
7413	0	31808	
7414	0	31836	
7415	0	31838	
7416	0	31824	
7417	0	31820	
7418	0	31808	
7419	0	31824	
7420	0	31824	
7421	0	31800	
7422	0	31772	
7423	0	31800	
7424	0	31856	
7425	0	31905	
7426	0	31936	
7427	0	31920	
7428	0	31936	
7429	0	31978	
7430	0	32032	
7431	0	32032	
7432	0	32048	
7433	0	32088	
7434	0	32116	
7435	0	32092	
7436	0	32064	
7437	0	32016	
7438	0	32012	
7439	0	32040	
7440	0	32080	
7441	0	32100	
7442	0	32104	
7443	0	32146	
7444	0	32168	
7445	0	32170	
7446	0	32172	
7447	0	32192	
7448	0	32212	
7449	0	32208	
7450	0	32212	
7451	0	32252	
7452	0	32312	
7453	0	32332	
7454	0	32320	
7455	0	32304	
7456	0	32300	
7457	0	32268	
7458	0	32264	
7459	0	32266	
7460	0	32240	
7461	0	32240	
7462	0	32280	
7463	0	32308	
7464	0	32344	
7465	0	32360	
7466	0	32356	
7467	0	32368	
7468	0	32392	
7469	0	32392	
7470	0	32392	
7471	0	32408	
7472	0	32404	
7473	0	32416	
7474	0	32424	
7475	0	32404	
7476	0	32388	
7477	0	32400	
7478	0	32416	
7479	0	32440	
7480	0	32448	
7481	0	32420	
7482	0	32400	
7483	0	32420	
7484	0	32480	
7485	0	32520	
7486	0	32584	
7487	0	32608	
7488	0	32596	
7489	0	32560	
7490	0	32528	
7491	0	32544	
7492	0	32580	
7493	0	32616	
7494	0	32612	
7495	0	32556	
7496	0	32544	
7497	0	32520	
7498	0	32536	
7499	0	32520	
7500	0	32508	
7501	0	32480	
7502	0	32484	
7503	0	32512	
7504	0	32536	
7505	0	32552	
7506	0	32566	
7507	0	32592	
7508	0	32636	
7509	0	32648	
7510	0	32672	
7511	0	32696	
7512	0	32692	
7513	0	32672	
7514	0	32636	
7515	0	32608	
7516	0	32608	
7517	0	32644	
7518	0	32640	
7519	0	32656	
7520	0	32660	
7521	0	32704	
7522	0	32756	
7523	0	32808	
7524	0	32808	
7525	0	32816	
7526	0	32828	
7527	0	32828	
7528	0	32812	
7529	0	32814	
7530	0	32844	
7531	0	32876	
7532	0	32874	
7533	0	32848	
7534	0	32856	
7535	0	32864	
7536	0	32880	
7537	0	32864	
7538	0	32848	
7539	0	32836	
7540	0	32836	
7541	0	32820	
7542	0	32848	
7543	0	32864	
7544	0	32844	
7545	0	32844	
7546	0	32844	
7547	0	32832	
7548	0	32816	
7549	0	32862	
7550	0	32896	
7551	0	32922	
7552	0	32960	
7553	0	32968	
7554	0	32940	
7555	0	32936	
7556	0	32924	
7557	0	32876	
7558	0	32844	
7559	0	32852	
7560	0	32880	
7561	0	32908	
7562	0	32920	
7563	0	32900	
7564	0	32924	
7565	0	32932	
7566	0	32924	
7567	0	32968	
7568	0	32992	
7569	0	32980	
7570	0	33016	
7571	0	33020	
7572	0	33004	
7573	0	32976	
7574	0	32962	
7575	0	32940	
7576	0	32956	
7577	0	32972	
7578	0	32968	
7579	0	32972	
7580	0	32988	
7581	0	33020	
7582	0	33032	
7583	0	33034	
7584	0	33056	
7585	0	33108	
7586	0	33176	
7587	0	33216	
7588	0	33244	
7589	0	33280	
7590	0	33302	
7591	0	33320	
7592	0	33284	
7593	0	33230	
7594	0	33186	
7595	0	33106	
7596	0	32968	
7597	0	32812	
7598	0	32696	
7599	0	32704	
7600	0	32740	
7601	0	32788	
7602	0	32796	
7603	0	32750	
7604	0	32692	
7605	0	32660	
7606	0	32660	
7607	0	32652	
7608	0	32666	
7609	0	32698	
7610	0	32764	
7611	0	32816	
7612	0	32884	
7613	0	32900	
7614	0	32940	
7615	0	32980	
7616	0	33072	
7617	0	33124	
7618	0	33176	
7619	0	33196	
7620	0	33216	
7621	0	33220	
7622	0	33212	
7623	0	33192	
7624	0	33208	
7625	0	33264	
7626	0	33376	
7627	0	33448	
7628	0	33480	
7629	0	33524	
7630	0	33532	
7631	0	33496	
7632	0	33518	
7633	0	33600	
7634	0	33712	
7635	0	33828	
7636	0	33844	
7637	0	33852	
7638	0	33826	
7639	0	33764	
7640	0	33688	
7641	0	33636	
7642	0	33620	
7643	0	33648	
7644	0	33710	
7645	0	33780	
7646	0	33832	
7647	0	33856	
7648	0	33884	
7649	0	33912	
7650	0	33956	
7651	0	34012	
7652	0	34104	
7653	0	34136	
7654	0	34120	
7655	0	34084	
7656	0	34082	
7657	0	34096	
7658	0	34112	
7659	0	34080	
7660	0	34024	
7661	0	34008	
7662	0	33972	
7663	0	33960	
7664	0	33940	
7665	0	33944	
7666	0	33932	
7667	0	33896	
7668	0	33780	
7669	0	33586	
7670	0	33336	
7671	0	33052	
7672	0	32792	
7673	0	32652	
7674	0	32628	
7675	0	32632	
7676	0	32648	
7677	0	32644	
7678	0	32704	
7679	0	32764	
7680	0	32800	
7681	0	32828	
7682	0	32856	
7683	0	32864	
7684	0	32868	
7685	0	32872	
7686	0	32932	
7687	0	32976	
7688	0	32984	
7689	0	32968	
7690	0	32924	
7691	0	32872	
7692	0	32852	
7693	0	32928	
7694	0	33016	
7695	0	33056	
7696	0	33048	
7697	0	33064	
7698	0	33072	
7699	0	33068	
7700	0	33096	
7701	0	33158	
7702	0	33212	
7703	0	33244	
7704	0	33272	
7705	0	33292	
7706	0	33316	
7707	0	33324	
7708	0	33328	
7709	0	33344	
7710	0	33380	
7711	0	33424	
7712	0	33428	
7713	0	33412	
7714	0	33360	
7715	0	33276	
7716	0	33164	
7717	0	33048	
7718	0	32968	
7719	0	32960	
7720	0	32928	
7721	0	32940	
7722	0	32972	
7723	0	32986	
7724	0	32964	
7725	0	32858	
7726	0	32720	
7727	0	32516	
7728	0	32258	
7729	0	31920	
7730	0	31440	
7731	0	30804	
7732	0	30176	
7733	0	29632	
7734	0	29224	
7735	0	28992	
7736	0	28970	
7737	0	29088	
7738	0	29328	
7739	0	29748	
7740	0	30300	
7741	0	31020	
7742	0	32048	
7743	0	33272	
7744	0	34596	
7745	0	36060	
7746	0	37728	
7747	0	39660	
7748	0	41864	
7749	0	44280	
7750	0	47008	
7751	0	49928	
7752	0	52944	
7753	0	56044	
7754	0	59312	
7755	0	62248	
7756	0	63884	
7757	0	64720	
7758	0	65136	
7759	0	65300	
7760	0	65340	
7761	0	65288	
7762	0	65220	
7763	0	65120	
7764	0	64992	
7765	0	64868	
7766	0	64736	
7767	0	64608	
7768	0	64484	
7769	0	64352	
7770	0	64228	
7771	0	64096	
7772	0	57352	
7773	0	50592	
7774	0	44508	
7775	0	39240	
7776	0	34668	
7777	0	30842	
7778	0	27796	
7779	0	25592	
7780	0	24300	
7781	0	23650	
7782	0	23280	
7783	0	23008	
7784	0	22792	
7785	0	22582	
7786	0	22412	
7787	0	22344	
7788	0	22368	
7789	0	22474	
7790	0	22632	
7791	0	22860	
7792	0	23152	
7793	0	23506	
7794	0	24012	
7795	0	24672	
7796	0	25356	
7797	0	25984	
7798	0	26580	
7799	0	27052	
7800	0	27416	
7801	0	27732	
7802	0	27968	
7803	0	28176	
7804	0	28394	
7805	0	28608	
7806	0	28788	
7807	0	28874	
7808	0	28920	
7809	0	28952	
7810	0	28948	
7811	0	28922	
7812	0	28916	
7813	0	28912	
7814	0	28944	
7815	0	28958	
7816	0	28956	
7817	0	28974	
7818	0	29010	
7819	0	29054	
7820	0	29084	
7821	0	29092	
7822	0	29160	
7823	0	29226	
7824	0	29280	
7825	0	29340	
7826	0	29440	
7827	0	29506	
7828	0	29560	
7829	0	29632	
7830	0	29660	
7831	0	29712	
7832	0	29748	
7833	0	29728	
7834	0	29728	
7835	0	29752	
7836	0	29792	
7837	0	29836	
7838	0	29866	
7839	0	29920	
7840	0	29950	
7841	0	30016	
7842	0	30098	
7843	0	30192	
7844	0	30252	
7845	0	30338	
7846	0	30400	
7847	0	30456	
7848	0	30540	
7849	0	30608	
7850	0	30648	
7851	0	30688	
7852	0	30708	
7853	0	30752	
7854	0	30784	
7855	0	30828	
7856	0	30880	
7857	0	30912	
7858	0	30944	
7859	0	30996	
7860	0	31040	
7861	0	31072	
7862	0	31072	
7863	0	31064	
7864	0	31096	
7865	0	31164	
7866	0	31232	
7867	0	31316	
7868	0	31364	
7869	0	31424	
7870	0	31472	
7871	0	31508	
7872	0	31524	
7873	0	31580	
7874	0	31648	
7875	0	31684	
7876	0	31688	
7877	0	31708	
7878	0	31744	
7879	0	31784	
7880	0	31848	
7881	0	31920	
7882	0	31964	
7883	0	32008	
7884	0	32036	
7885	0	32072	
7886	0	32132	
7887	0	32156	
7888	0	32170	
7889	0	32180	
7890	0	32192	
7891	0	32232	
7892	0	32280	
7893	0	32296	
7894	0	32324	
7895	0	32368	
7896	0	32448	
7897	0	32488	
7898	0	32504	
7899	0	32542	
7900	0	32580	
7901	0	32628	
7902	0	32684	
7903	0	32744	
7904	0	32808	
7905	0	32856	
7906	0	32884	
7907	0	32902	
7908	0	32972	
7909	0	33036	
7910	0	33080	
7911	0	33148	
7912	0	33198	
7913	0	33240	
7914	0	33288	
7915	0	33340	
7916	0	33364	
7917	0	33390	
7918	0	33424	
7919	0	33444	
7920	0	33500	
7921	0	33508	
7922	0	33544	
7923	0	33592	
7924	0	33652	
7925	0	33704	
7926	0	33768	
7927	0	33832	
7928	0	33900	
7929	0	33944	
7930	0	34016	
7931	0	34084	
7932	0	34148	
7933	0	34170	
7934	0	34176	
7935	0	34194	
7936	0	34232	
7937	0	34272	
7938	0	34332	
7939	0	34424	
7940	0	34520	
7941	0	34628	
7942	0	34716	
7943	0	34768	
7944	0	34860	
7945	0	34908	
7946	0	34956	
7947	0	35004	
7948	0	35040	
7949	0	35122	
7950	0	35226	
7951	0	35328	
7952	0	35412	
7953	0	35476	
7954	0	35540	
7955	0	35592	
7956	0	35632	
7957	0	35692	
7958	0	35776	
7959	0	35868	
7960	0	35964	
7961	0	36064	
7962	0	36190	
7963	0	36312	
7964	0	36440	
7965	0	36540	
7966	0	36648	
7967	0	36740	
7968	0	36848	
7969	0	36956	
7970	0	37068	
7971	0	37152	
7972	0	37232	
7973	0	37296	
7974	0	37348	
7975	0	37408	
7976	0	37488	
7977	0	37576	
7978	0	37684	
7979	0	37804	
7980	0	37932	
7981	0	38052	
7982	0	38180	
7983	0	38324	
7984	0	38480	
7985	0	38640	
7986	0	38756	
7987	0	38836	
7988	0	38952	
7989	0	39008	
7990	0	39092	
7991	0	39212	
7992	0	39376	
7993	0	39536	
7994	0	39672	
7995	0	39764	
7996	0	39856	
7997	0	39936	
7998	0	40020	
7999	0	40116	
8000	0	40220	
8001	0	40280	
8002	0	40356	
8003	0	40452	
8004	0	40564	
8005	0	40664	
8006	0	40728	
8007	0	40804	
8008	0	40912	
8009	0	41024	
8010	0	41074	
8011	0	41112	
8012	0	41116	
8013	0	41136	
8014	0	41164	
8015	0	41188	
8016	0	41220	
8017	0	41240	
8018	0	41240	
8019	0	41276	
8020	0	41276	
8021	0	41296	
8022	0	41284	
8023	0	41272	
8024	0	41272	
8025	0	41268	
8026	0	41280	
8027	0	41236	
8028	0	41164	
8029	0	41114	
8030	0	41084	
8031	0	41048	
8032	0	40992	
8033	0	40908	
8034	0	40800	
8035	0	40698	
8036	0	40596	
8037	0	40508	
8038	0	40410	
8039	0	40264	
8040	0	40112	
8041	0	39952	
8042	0	39812	
8043	0	39666	
8044	0	39504	
8045	0	39320	
8046	0	39136	
8047	0	38996	
8048	0	38820	
8049	0	38624	
8050	0	38388	
8051	0	38106	
8052	0	37816	
8053	0	37520	
8054	0	37236	
8055	0	36950	
8056	0	36664	
8057	0	36352	
8058	0	36068	
8059	0	35808	
8060	0	35520	
8061	0	35204	
8062	0	34900	
8063	0	34624	
8064	0	34360	
8065	0	34080	
8066	0	33802	
8067	0	33480	
8068	0	33178	
8069	0	32896	
8070	0	32628	
8071	0	32352	
8072	0	32068	
8073	0	31792	
8074	0	31488	
8075	0	31188	
8076	0	30936	
8077	0	30712	
8078	0	30504	
8079	0	30256	
8080	0	30000	
8081	0	29740	
8082	0	29512	
8083	0	29296	
8084	0	29120	
8085	0	28940	
8086	0	28736	
8087	0	28520	
8088	0	28376	
8089	0	28212	
8090	0	28040	
8091	0	27864	
8092	0	27700	
8093	0	27544	
8094	0	27400	
8095	0	27240	
8096	0	27072	
8097	0	26948	
8098	0	26838	
8099	0	26720	
8100	0	26618	
8101	0	26540	
8102	0	26460	
8103	0	26384	
8104	0	26280	
8105	0	26204	
8106	0	26152	
8107	0	26108	
8108	0	26094	
8109	0	26084	
8110	0	26064	
8111	0	26054	
8112	0	25992	
8113	0	25958	
8114	0	25936	
8115	0	25896	
8116	0	25888	
8117	0	25872	
8118	0	25840	
8119	0	25804	
8120	0	25784	
8121	0	25764	
8122	0	25780	
8123	0	25800	
8124	0	25840	
8125	0	25888	
8126	0	25890	
8127	0	25900	
8128	0	25936	
8129	0	25950	
8130	0	25956	
8131	0	25964	
8132	0	25976	
8133	0	26010	
8134	0	26088	
8135	0	26160	
8136	0	26222	
8137	0	26236	
8138	0	26224	
8139	0	26212	
8140	0	26220	
8141	0	26236	
8142	0	26266	
8143	0	26326	
8144	0	26372	
8145	0	26432	
8146	0	26496	
8147	0	26528	
8148	0	26548	
8149	0	26588	
8150	0	26660	
8151	0	26736	
8152	0	26776	
8153	0	26800	
8154	0	26824	
8155	0	26804	
8156	0	26826	
8157	0	26900	
8158	0	26968	
8159	0	27048	
8160	0	27125	
8161	0	27176	
8162	0	27224	
8163	0	27256	
8164	0	27308	
8165	0	27384	
8166	0	27460	
8167	0	27544	
8168	0	27548	
8169	0	27584	
8170	0	27636	
8171	0	27672	
8172	0	27708	
8173	0	27760	
8174	0	27818	
8175	0	27860	
8176	0	27952	
8177	0	28040	
8178	0	28084	
8179	0	28144	
8180	0	28196	
8181	0	28256	
8182	0	28312	
8183	0	28364	
8184	0	28412	
8185	0	28480	
8186	0	28548	
8187	0	28604	
8188	0	28660	
8189	0	28716	
8190	0	28768	
8191	0	28824	
8192	0	28852	
8193	0	28876	
8194	0	28884	
8195	0	28932	
8196	0	28992	
8197	0	29048	
8198	0	29120	
8199	0	29176	
8200	0	29232	
8201	0	29260	
8202	0	29260	
8203	0	29312	
8204	0	29404	
8205	0	29488	
8206	0	29564	
8207	0	29632	
8208	0	29690	
8209	0	29692	
8210	0	29720	
8211	0	29740	
8212	0	29764	
8213	0	29788	
8214	0	29816	
8215	0	29876	
8216	0	29940	
8217	0	30008	
8218	0	30080	
8219	0	30140	
8220	0	30132	
8221	0	30132	
8222	0	30104	
8223	0	30104	
8224	0	30168	
8225	0	30224	
8226	0	30280	
8227	0	30344	
8228	0	30394	
8229	0	30404	
8230	0	30408	
8231	0	30440	
8232	0	30480	
8233	0	30520	
8234	0	30548	
8235	0	30568	
8236	0	30564	
8237	0	30602	
8238	0	30616	
8239	0	30596	
8240	0	30592	
8241	0	30596	
8242	0	30628	
8243	0	30664	
8244	0	30684	
8245	0	30720	
8246	0	30744	
8247	0	30784	
8248	0	30840	
8249	0	30872	
8250	0	30878	
8251	0	30856	
8252	0	30836	
8253	0	30848	
8254	0	30856	
8255	0	30890	
8256	0	30888	
8257	0	30872	
8258	0	30856	
8259	0	30856	
8260	0	30868	
8261	0	30886	
8262	0	30876	
8263	0	30892	
8264	0	30912	
8265	0	30928	
8266	0	31012	
8267	0	31076	
8268	0	31092	
8269	0	31076	
8270	0	31016	
8271	0	30972	
8272	0	30944	
8273	0	30932	
8274	0	30936	
8275	0	30936	
8276	0	30969	
8277	0	30992	
8278	0	30984	
8279	0	30980	
8280	0	30996	
8281	0	31036	
8282	0	31052	
8283	0	30992	
8284	0	30932	
8285	0	30924	
8286	0	30944	
8287	0	30980	
8288	0	30992	
8289	0	30984	
8290	0	30984	
8291	0	31004	
8292	0	31004	
8293	0	31020	
8294	0	31010	
8295	0	31000	
8296	0	30996	
8297	0	31000	
8298	0	31020	
8299	0	31012	
8300	0	31032	
8301	0	31052	
8302	0	31056	
8303	0	31056	
8304	0	31096	
8305	0	31148	
8306	0	31136	
8307	0	31116	
8308	0	31128	
8309	0	31150	
8310	0	31153	
8311	0	31156	
8312	0	31124	
8313	0	31112	
8314	0	31132	
8315	0	31116	
8316	0	31152	
8317	0	31196	
8318	0	31244	
8319	0	31256	
8320	0	31256	
8321	0	31284	
8322	0	31264	
8323	0	31230	
8324	0	31216	
8325	0	31264	
8326	0	31312	
8327	0	31344	
8328	0	31340	
8329	0	31364	
8330	0	31364	
8331	0	31356	
8332	0	31356	
8333	0	31384	
8334	0	31448	
8335	0	31480	
8336	0	31500	
8337	0	31492	
8338	0	31448	
8339	0	31448	
8340	0	31445	
8341	0	31476	
8342	0	31492	
8343	0	31496	
8344	0	31512	
8345	0	31524	
8346	0	31544	
8347	0	31552	
8348	0	31544	
8349	0	31604	
8350	0	31626	
8351	0	31620	
8352	0	31608	
8353	0	31624	
8354	0	31640	
8355	0	31616	
8356	0	31596	
8357	0	31588	
8358	0	31600	
8359	0	31624	
8360	0	31648	
8361	0	31662	
8362	0	31680	
8363	0	31696	
8364	0	31751	
8365	0	31778	
8366	0	31792	
8367	0	31800	
8368	0	31784	
8369	0	31751	
8370	0	31774	
8371	0	31834	
8372	0	31852	
8373	0	31844	
8374	0	31844	
8375	0	31836	
8376	0	31844	
8377	0	31844	
8378	0	31848	
8379	0	31888	
8380	0	31924	
8381	0	31916	
8382	0	31872	
8383	0	31872	
8384	0	31906	
8385	0	31960	
8386	0	31956	
8387	0	32004	
8388	0	32072	
8389	0	32064	
8390	0	32068	
8391	0	32080	
8392	0	32048	
8393	0	32064	
8394	0	32100	
8395	0	32088	
8396	0	32094	
8397	0	32128	
8398	0	32152	
8399	0	32156	
8400	0	32122	
8401	0	32124	
8402	0	32156	
8403	0	32172	
8404	0	32172	
8405	0	32144	
8406	0	32116	
8407	0	32084	
8408	0	32130	
8409	0	32184	
8410	0	32208	
8411	0	32200	
8412	0	32204	
8413	0	32224	
8414	0	32248	
8415	0	32264	
8416	0	32280	
8417	0	32288	
8418	0	32280	
8419	0	32268	
8420	0	32296	
8421	0	32284	
8422	0	32290	
8423	0	32320	
8424	0	32312	
8425	0	32312	
8426	0	32304	
8427	0	32320	
8428	0	32376	
8429	0	32432	
8430	0	32466	
8431	0	32468	
8432	0	32448	
8433	0	32396	
8434	0	32396	
8435	0	32400	
8436	0	32400	
8437	0	32400	
8438	0	32400	
8439	0	32428	
8440	0	32480	
8441	0	32494	
8442	0	32496	
8443	0	32480	
8444	0	32484	
8445	0	32500	
8446	0	32560	
8447	0	32588	
8448	0	32600	
8449	0	32604	
8450	0	32600	
8451	0	32544	
8452	0	32524	
8453	0	32540	
8454	0	32518	
8455	0	32484	
8456	0	32432	
8457	0	32416	
8458	0	32428	
8459	0	32456	
8460	0	32448	
8461	0	32448	
8462	0	32460	
8463	0	32496	
8464	0	32518	
8465	0	32532	
8466	0	32516	
8467	0	32556	
8468	0	32608	
8469	0	32632	
8470	0	32632	
8471	0	32620	
8472	0	32624	
8473	0	32656	
8474	0	32652	
8475	0	32652	
8476	0	32652	
8477	0	32656	
8478	0	32628	
8479	0	32640	
8480	0	32656	
8481	0	32672	
8482	0	32684	
8483	0	32644	
8484	0	32586	
8485	0	32604	
8486	0	32649	
8487	0	32664	
8488	0	32660	
8489	0	32708	
8490	0	32740	
8491	0	32724	
8492	0	32680	
8493	0	32670	
8494	0	32674	
8495	0	32664	
8496	0	32692	
8497	0	32676	
8498	0	32688	
8499	0	32714	
8500	0	32756	
8501	0	32768	
8502	0	32820	
8503	0	32852	
8504	0	32868	
8505	0	32860	
8506	0	32884	
8507	0	32896	
8508	0	32880	
8509	0	32856	
8510	0	32820	
8511	0	32816	
8512	0	32836	
8513	0	32832	
8514	0	32816	
8515	0	32808	
8516	0	32828	
8517	0	32824	
8518	0	32828	
8519	0	32800	
8520	0	32752	
8521	0	32736	
8522	0	32770	
8523	0	32832	
8524	0	32882	
8525	0	32912	
8526	0	32928	
8527	0	32952	
8528	0	32972	
8529	0	32992	
8530	0	32976	
8531	0	32952	
8532	0	32928	
8533	0	32892	
8534	0	32920	
8535	0	32932	
8536	0	32900	
8537	0	32876	
8538	0	32864	
8539	0	32846	
8540	0	32812	
8541	0	32824	
8542	0	32862	
8543	0	32924	
8544	0	32954	
8545	0	32960	
8546	0	32954	
8547	0	32972	
8548	0	32972	
8549	0	32964	
8550	0	32928	
8551	0	32908	
8552	0	32924	
8553	0	32924	
8554	0	32920	
8555	0	32932	
8556	0	32952	
8557	0	32960	
8558	0	32980	
8559	0	32960	
8560	0	32962	
8561	0	32948	
8562	0	32940	
8563	0	32948	
8564	0	32964	
8565	0	32992	
8566	0	33008	
8567	0	32988	
8568	0	32994	
8569	0	33020	
8570	0	33060	
8571	0	33076	
8572	0	33080	
8573	0	33048	
8574	0	32984	
8575	0	32960	
8576	0	32988	
8577	0	33040	
8578	0	33064	
8579	0	33116	
8580	0	33146	
8581	0	33164	
8582	0	33196	
8583	0	33220	
8584	0	33216	
8585	0	33216	
8586	0	33228	
8587	0	33312	
8588	0	33372	
8589	0	33408	
8590	0	33400	
8591	0	33368	
