# OpenSignals Text File Format. Version 1
# {"00:07:80:4B:15:F7": {"position": 0, "device": "biosignalsplux", "device name": "00:07:80:4B:15:F7", "device connection": "BTH00:07:80:4B:15:F7", "sampling rate": 1000, "resolution": [16], "firmware version": 775, "comments": "", "keywords": "", "mode": 0, "sync interval": 2, "date": "2023-4-27", "time": "17:48:12.753", "channels": [1], "sensor": ["ECG"], "label": ["CH1"], "column": ["nSeq", "DI", "CH1"], "special": [{"SpO2": [80, 40, 5, 4, 3, 3]}, {"SpO2": [80, 40, 5, 4, 3, 3]}, {"SpO2": [80, 40, 5, 4, 3, 3]}, {"SpO2": [80, 40, 5, 4, 3, 3]}, {"SpO2": [80, 40, 5, 4, 3, 3]}, {"SpO2": [80, 40, 5, 4, 3, 3]}, {"SpO2": [80, 40, 5, 4, 3, 3]}, {"SpO2": [80, 40, 5, 4, 3, 3]}], "digital IO": [0, 1], "sleeve color": ["green"], "convertedValues": 0}}
# EndOfHeader
0	0	31276	
1	0	31340	
2	0	31440	
3	0	31496	
4	0	31424	
5	0	31300	
6	0	31228	
7	0	31274	
8	0	31476	
9	0	31720	
10	0	31832	
11	0	31768	
12	0	31688	
13	0	31620	
14	0	31546	
15	0	31488	
16	0	31408	
17	0	31308	
18	0	31176	
19	0	31092	
20	0	31044	
21	0	31060	
22	0	31120	
23	0	31200	
24	0	31224	
25	0	31234	
26	0	31268	
27	0	31282	
28	0	31288	
29	0	31324	
30	0	31434	
31	0	31564	
32	0	31660	
33	0	31768	
34	0	31888	
35	0	31992	
36	0	32004	
37	0	31900	
38	0	31772	
39	0	31728	
40	0	31704	
41	0	31772	
42	0	31736	
43	0	31690	
44	0	31648	
45	0	31548	
46	0	31568	
47	0	31644	
48	0	31732	
49	0	31810	
50	0	31928	
51	0	32148	
52	0	32320	
53	0	32400	
54	0	32328	
55	0	32332	
56	0	32328	
57	0	32376	
58	0	32488	
59	0	32512	
60	0	32660	
61	0	32968	
62	0	33120	
63	0	33056	
64	0	33120	
65	0	33212	
66	0	33208	
67	0	33000	
68	0	32772	
69	0	32756	
70	0	32760	
71	0	32868	
72	0	33058	
73	0	33088	
74	0	33120	
75	0	33130	
76	0	33212	
77	0	33386	
78	0	33364	
79	0	33416	
80	0	33356	
81	0	33376	
82	0	33602	
83	0	33728	
84	0	33664	
85	0	33610	
86	0	33576	
87	0	33536	
88	0	33556	
89	0	33664	
90	0	33704	
91	0	33732	
92	0	33808	
93	0	33780	
94	0	33666	
95	0	33620	
96	0	33620	
97	0	33568	
98	0	33648	
99	0	33726	
100	0	33808	
101	0	33792	
102	0	33824	
103	0	34066	
104	0	34048	
105	0	34012	
106	0	33904	
107	0	33888	
108	0	33832	
109	0	33764	
110	0	33680	
111	0	33632	
112	0	33680	
113	0	33784	
114	0	33828	
115	0	33876	
116	0	33908	
117	0	33804	
118	0	33724	
119	0	33646	
120	0	33536	
121	0	33544	
122	0	33680	
123	0	33720	
124	0	33772	
125	0	33768	
126	0	33622	
127	0	33584	
128	0	33720	
129	0	33672	
130	0	33608	
131	0	33660	
132	0	33728	
133	0	33704	
134	0	33732	
135	0	33782	
136	0	33608	
137	0	33448	
138	0	33304	
139	0	33304	
140	0	33320	
141	0	33320	
142	0	33312	
143	0	33348	
144	0	33308	
145	0	33280	
146	0	33296	
147	0	33292	
148	0	33312	
149	0	33306	
150	0	33244	
151	0	33304	
152	0	33372	
153	0	33416	
154	0	33476	
155	0	33496	
156	0	33492	
157	0	33552	
158	0	33692	
159	0	33768	
160	0	33796	
161	0	33788	
162	0	33796	
163	0	33816	
164	0	33856	
165	0	33812	
166	0	33820	
167	0	33824	
168	0	33900	
169	0	33912	
170	0	33872	
171	0	33852	
172	0	33924	
173	0	34008	
174	0	34068	
175	0	34122	
176	0	34264	
177	0	34412	
178	0	34544	
179	0	34796	
180	0	35096	
181	0	35360	
182	0	35612	
183	0	35788	
184	0	35968	
185	0	36120	
186	0	36248	
187	0	36332	
188	0	36324	
189	0	36244	
190	0	36180	
191	0	36156	
192	0	36132	
193	0	36112	
194	0	36150	
195	0	36216	
196	0	36164	
197	0	36088	
198	0	36022	
199	0	35984	
200	0	36016	
201	0	36048	
202	0	36008	
203	0	35932	
204	0	35888	
205	0	35808	
206	0	35684	
207	0	35580	
208	0	35456	
209	0	35352	
210	0	35288	
211	0	35124	
212	0	34972	
213	0	34876	
214	0	34672	
215	0	34356	
216	0	34032	
217	0	33688	
218	0	33284	
219	0	32904	
220	0	32600	
221	0	32380	
222	0	32164	
223	0	31982	
224	0	31880	
225	0	31788	
226	0	31656	
227	0	31560	
228	0	31520	
229	0	31428	
230	0	31312	
231	0	31176	
232	0	31064	
233	0	30920	
234	0	30816	
235	0	30784	
236	0	30754	
237	0	30768	
238	0	30688	
239	0	30684	
240	0	30690	
241	0	30684	
242	0	30712	
243	0	30796	
244	0	30860	
245	0	30914	
246	0	30952	
247	0	30960	
248	0	30912	
249	0	30900	
250	0	30924	
251	0	30944	
252	0	31000	
253	0	31002	
254	0	31008	
255	0	30988	
256	0	30936	
257	0	30840	
258	0	30780	
259	0	30798	
260	0	30776	
261	0	30668	
262	0	30644	
263	0	30736	
264	0	30864	
265	0	30818	
266	0	30812	
267	0	30900	
268	0	30948	
269	0	30996	
270	0	31024	
271	0	31074	
272	0	31136	
273	0	31104	
274	0	31032	
275	0	30948	
276	0	30768	
277	0	30466	
278	0	30018	
279	0	29280	
280	0	28308	
281	0	27364	
282	0	26328	
283	0	25112	
284	0	23752	
285	0	22512	
286	0	21570	
287	0	20864	
288	0	20276	
289	0	20066	
290	0	20082	
291	0	20288	
292	0	20732	
293	0	21466	
294	0	22628	
295	0	24256	
296	0	26316	
297	0	28820	
298	0	31482	
299	0	34464	
300	0	37656	
301	0	41136	
302	0	44940	
303	0	49002	
304	0	53288	
305	0	57528	
306	0	61096	
307	0	63128	
308	0	64176	
309	0	64704	
310	0	64916	
311	0	64976	
312	0	64948	
313	0	64868	
314	0	64768	
315	0	64664	
316	0	64536	
317	0	58512	
318	0	52868	
319	0	48440	
320	0	44448	
321	0	40716	
322	0	37792	
323	0	35742	
324	0	34056	
325	0	32392	
326	0	30732	
327	0	29044	
328	0	27432	
329	0	26120	
330	0	24884	
331	0	23776	
332	0	22896	
333	0	22216	
334	0	21608	
335	0	20972	
336	0	20332	
337	0	19964	
338	0	19852	
339	0	19892	
340	0	20089	
341	0	20386	
342	0	20656	
343	0	20962	
344	0	21228	
345	0	21588	
346	0	22058	
347	0	22636	
348	0	23280	
349	0	23820	
350	0	24380	
351	0	24908	
352	0	25424	
353	0	26068	
354	0	26724	
355	0	27264	
356	0	27740	
357	0	28180	
358	0	28566	
359	0	28856	
360	0	29108	
361	0	29280	
362	0	29394	
363	0	29468	
364	0	29568	
365	0	29554	
366	0	29600	
367	0	29608	
368	0	29680	
369	0	29860	
370	0	29980	
371	0	29940	
372	0	30032	
373	0	30120	
374	0	30200	
375	0	30316	
376	0	30376	
377	0	30404	
378	0	30428	
379	0	30476	
380	0	30538	
381	0	30588	
382	0	30644	
383	0	30688	
384	0	30776	
385	0	30848	
386	0	30900	
387	0	30940	
388	0	31004	
389	0	31020	
390	0	30968	
391	0	30930	
392	0	30992	
393	0	31072	
394	0	31072	
395	0	31106	
396	0	31152	
397	0	31194	
398	0	31282	
399	0	31296	
400	0	31248	
401	0	31280	
402	0	31332	
403	0	31396	
404	0	31476	
405	0	31400	
406	0	31292	
407	0	31264	
408	0	31212	
409	0	31056	
410	0	31048	
411	0	31160	
412	0	31164	
413	0	31116	
414	0	31160	
415	0	31348	
416	0	31550	
417	0	31712	
418	0	31720	
419	0	31736	
420	0	31748	
421	0	31860	
422	0	31960	
423	0	31972	
424	0	31968	
425	0	31988	
426	0	31984	
427	0	31840	
428	0	31836	
429	0	31948	
430	0	32052	
431	0	31952	
432	0	31952	
433	0	32058	
434	0	32132	
435	0	32128	
436	0	32142	
437	0	32308	
438	0	32508	
439	0	32760	
440	0	33092	
441	0	33332	
442	0	33492	
443	0	33616	
444	0	33700	
445	0	33688	
446	0	33668	
447	0	33628	
448	0	33545	
449	0	33538	
450	0	33528	
451	0	33512	
452	0	33508	
453	0	33524	
454	0	33548	
455	0	33584	
456	0	33580	
457	0	33516	
458	0	33484	
459	0	33472	
460	0	33476	
461	0	33456	
462	0	33412	
463	0	33408	
464	0	33424	
465	0	33416	
466	0	33404	
467	0	33380	
468	0	33396	
469	0	33396	
470	0	33360	
471	0	33324	
472	0	33320	
473	0	33332	
474	0	33348	
475	0	33400	
476	0	33416	
477	0	33390	
478	0	33372	
479	0	33372	
480	0	33368	
481	0	33320	
482	0	33268	
483	0	33280	
484	0	33356	
485	0	33442	
486	0	33544	
487	0	33574	
488	0	33404	
489	0	33388	
490	0	33392	
491	0	33328	
492	0	33220	
493	0	33220	
494	0	33296	
495	0	33432	
496	0	33512	
497	0	33536	
498	0	33528	
499	0	33524	
500	0	33516	
501	0	33508	
502	0	33456	
503	0	33376	
504	0	33296	
505	0	33232	
506	0	33200	
507	0	33176	
508	0	33152	
509	0	33152	
510	0	33204	
511	0	33232	
512	0	33240	
513	0	33208	
514	0	33064	
515	0	33012	
516	0	33016	
517	0	33008	
518	0	33036	
519	0	33128	
520	0	33208	
521	0	33264	
522	0	33276	
523	0	33204	
524	0	33104	
525	0	33140	
526	0	33202	
527	0	33248	
528	0	33292	
529	0	33344	
530	0	33384	
531	0	33380	
532	0	33400	
533	0	33420	
534	0	33380	
535	0	33316	
536	0	33344	
537	0	33332	
538	0	33316	
539	0	33344	
540	0	33332	
541	0	33296	
542	0	33308	
543	0	33300	
544	0	33244	
545	0	33210	
546	0	33116	
547	0	33120	
548	0	33156	
549	0	33160	
550	0	33196	
551	0	33252	
552	0	33298	
553	0	33268	
554	0	33124	
555	0	33028	
556	0	32952	
557	0	32908	
558	0	32852	
559	0	32772	
560	0	32692	
561	0	32644	
562	0	32640	
563	0	32652	
564	0	32656	
565	0	32556	
566	0	32456	
567	0	32418	
568	0	32426	
569	0	32416	
570	0	32400	
571	0	32336	
572	0	32304	
573	0	32288	
574	0	32304	
575	0	32288	
576	0	32184	
577	0	32116	
578	0	32206	
579	0	32308	
580	0	32348	
581	0	32244	
582	0	32084	
583	0	32012	
584	0	32012	
585	0	32000	
586	0	32088	
587	0	32108	
588	0	32056	
589	0	31956	
590	0	31888	
591	0	31872	
592	0	31936	
593	0	32032	
594	0	32048	
595	0	32000	
596	0	32008	
597	0	31960	
598	0	31892	
599	0	31780	
600	0	31680	
601	0	31648	
602	0	31736	
603	0	31828	
604	0	31824	
605	0	31832	
606	0	31824	
607	0	31804	
608	0	31728	
609	0	31760	
610	0	31856	
611	0	31956	
612	0	32080	
613	0	32156	
614	0	32200	
615	0	32156	
616	0	32124	
617	0	32116	
618	0	32064	
619	0	32048	
620	0	32088	
621	0	32128	
622	0	32152	
623	0	32148	
624	0	32184	
625	0	32176	
626	0	32128	
627	0	32172	
628	0	32224	
629	0	32184	
630	0	32168	
631	0	32216	
632	0	32264	
633	0	32236	
634	0	32196	
635	0	32140	
636	0	32148	
637	0	32176	
638	0	32164	
639	0	32160	
640	0	32124	
641	0	32096	
642	0	32112	
643	0	32164	
644	0	32208	
645	0	32232	
646	0	32268	
647	0	32288	
648	0	32308	
649	0	32340	
650	0	32444	
651	0	32488	
652	0	32388	
653	0	32362	
654	0	32384	
655	0	32448	
656	0	32444	
657	0	32504	
658	0	32508	
659	0	32464	
660	0	32400	
661	0	32408	
662	0	32488	
663	0	32532	
664	0	32530	
665	0	32484	
666	0	32524	
667	0	32556	
668	0	32546	
669	0	32536	
670	0	32472	
671	0	32416	
672	0	32372	
673	0	32352	
674	0	32364	
675	0	32386	
676	0	32472	
677	0	32528	
678	0	32496	
679	0	32512	
680	0	32476	
681	0	32532	
682	0	32608	
683	0	32718	
684	0	32844	
685	0	32892	
686	0	32836	
687	0	32810	
688	0	32816	
689	0	32846	
690	0	32888	
691	0	32884	
692	0	32922	
693	0	32996	
694	0	33100	
695	0	33112	
696	0	33144	
697	0	33108	
698	0	33116	
699	0	33156	
700	0	33172	
701	0	33224	
702	0	33150	
703	0	33188	
704	0	33212	
705	0	33196	
706	0	33244	
707	0	33294	
708	0	33248	
709	0	33088	
710	0	33076	
711	0	33060	
712	0	33062	
713	0	33164	
714	0	33236	
715	0	33296	
716	0	33300	
717	0	33336	
718	0	33408	
719	0	33464	
720	0	33448	
721	0	33428	
722	0	33372	
723	0	33316	
724	0	33348	
725	0	33248	
726	0	33204	
727	0	33264	
728	0	33320	
729	0	33340	
730	0	33376	
731	0	33384	
732	0	33364	
733	0	33384	
734	0	33420	
735	0	33460	
736	0	33448	
737	0	33444	
738	0	33492	
739	0	33496	
740	0	33540	
741	0	33660	
742	0	33752	
743	0	33736	
744	0	33684	
745	0	33620	
746	0	33664	
747	0	33740	
748	0	33772	
749	0	33832	
750	0	33952	
751	0	34048	
752	0	34132	
753	0	34204	
754	0	34328	
755	0	34384	
756	0	34400	
757	0	34408	
758	0	34400	
759	0	34346	
760	0	34280	
761	0	34272	
762	0	34224	
763	0	34212	
764	0	34196	
765	0	34132	
766	0	34144	
767	0	34232	
768	0	34274	
769	0	34280	
770	0	34320	
771	0	34424	
772	0	34546	
773	0	34762	
774	0	35012	
775	0	35296	
776	0	35588	
777	0	35856	
778	0	36104	
779	0	36280	
780	0	36438	
781	0	36580	
782	0	36668	
783	0	36724	
784	0	36740	
785	0	36720	
786	0	36728	
787	0	36802	
788	0	36856	
789	0	36912	
790	0	36892	
791	0	36764	
792	0	36628	
793	0	36512	
794	0	36420	
795	0	36368	
796	0	36352	
797	0	36336	
798	0	36332	
799	0	36324	
800	0	36288	
801	0	36184	
802	0	36024	
803	0	35832	
804	0	35684	
805	0	35568	
806	0	35452	
807	0	35296	
808	0	35174	
809	0	35048	
810	0	34872	
811	0	34590	
812	0	34176	
813	0	33720	
814	0	33284	
815	0	32888	
816	0	32548	
817	0	32244	
818	0	31968	
819	0	31820	
820	0	31736	
821	0	31630	
822	0	31584	
823	0	31546	
824	0	31504	
825	0	31456	
826	0	31364	
827	0	31220	
828	0	31042	
829	0	30848	
830	0	30648	
831	0	30464	
832	0	30364	
833	0	30340	
834	0	30340	
835	0	30368	
836	0	30408	
837	0	30496	
838	0	30592	
839	0	30584	
840	0	30552	
841	0	30512	
842	0	30536	
843	0	30560	
844	0	30584	
845	0	30624	
846	0	30648	
847	0	30656	
848	0	30680	
849	0	30688	
850	0	30660	
851	0	30624	
852	0	30596	
853	0	30568	
854	0	30560	
855	0	30560	
856	0	30560	
857	0	30624	
858	0	30652	
859	0	30640	
860	0	30668	
861	0	30736	
862	0	30788	
863	0	30788	
864	0	30776	
865	0	30804	
866	0	30804	
867	0	30840	
868	0	30840	
869	0	30820	
870	0	30784	
871	0	30720	
872	0	30480	
873	0	30208	
874	0	29804	
875	0	29160	
876	0	28110	
877	0	26844	
878	0	25526	
879	0	24184	
880	0	22840	
881	0	21568	
882	0	20484	
883	0	19618	
884	0	18886	
885	0	18512	
886	0	18540	
887	0	18832	
888	0	19264	
889	0	19764	
890	0	20616	
891	0	22052	
892	0	23940	
893	0	26382	
894	0	29138	
895	0	32332	
896	0	36040	
897	0	40120	
898	0	44568	
899	0	49156	
900	0	53808	
901	0	58136	
902	0	61616	
903	0	63552	
904	0	64528	
905	0	65024	
906	0	65228	
907	0	65280	
908	0	65256	
909	0	65156	
910	0	65068	
911	0	64948	
912	0	64824	
913	0	64692	
914	0	60872	
915	0	56544	
916	0	52776	
917	0	48584	
918	0	44412	
919	0	41008	
920	0	38024	
921	0	35160	
922	0	32672	
923	0	30672	
924	0	29152	
925	0	27904	
926	0	26848	
927	0	25764	
928	0	24744	
929	0	23808	
930	0	22956	
931	0	22272	
932	0	21892	
933	0	21732	
934	0	21660	
935	0	21616	
936	0	21572	
937	0	21634	
938	0	21884	
939	0	22164	
940	0	22540	
941	0	22880	
942	0	23212	
943	0	23554	
944	0	23972	
945	0	24438	
946	0	25030	
947	0	25644	
948	0	26204	
949	0	26688	
950	0	27120	
951	0	27450	
952	0	27712	
953	0	27986	
954	0	28216	
955	0	28356	
956	0	28468	
957	0	28600	
958	0	28708	
959	0	28792	
960	0	28880	
961	0	28950	
962	0	29006	
963	0	29044	
964	0	29072	
965	0	29100	
966	0	29124	
967	0	29152	
968	0	29180	
969	0	29196	
970	0	29248	
971	0	29316	
972	0	29394	
973	0	29480	
974	0	29536	
975	0	29608	
976	0	29652	
977	0	29760	
978	0	29872	
979	0	29940	
980	0	30024	
981	0	30112	
982	0	30184	
983	0	30224	
984	0	30312	
985	0	30400	
986	0	30440	
987	0	30504	
988	0	30540	
989	0	30564	
990	0	30580	
991	0	30600	
992	0	30640	
993	0	30652	
994	0	30668	
995	0	30688	
996	0	30720	
997	0	30784	
998	0	30856	
999	0	30922	
1000	0	30996	
1001	0	31098	
1002	0	31164	
1003	0	31196	
1004	0	31212	
1005	0	31272	
1006	0	31288	
1007	0	31314	
1008	0	31372	
1009	0	31448	
1010	0	31520	
1011	0	31556	
1012	0	31588	
1013	0	31596	
1014	0	31588	
1015	0	31612	
1016	0	31664	
1017	0	31680	
1018	0	31728	
1019	0	31772	
1020	0	31764	
1021	0	31768	
1022	0	31800	
1023	0	31824	
1024	0	31884	
1025	0	31948	
1026	0	32000	
1027	0	32044	
1028	0	32096	
1029	0	32130	
1030	0	32164	
1031	0	32224	
1032	0	32256	
1033	0	32212	
1034	0	32132	
1035	0	32100	
1036	0	32160	
1037	0	32228	
1038	0	32276	
1039	0	32336	
1040	0	32412	
1041	0	32436	
1042	0	32416	
1043	0	32404	
1044	0	32404	
1045	0	32404	
1046	0	32368	
1047	0	32384	
1048	0	32468	
1049	0	32554	
1050	0	32608	
1051	0	32632	
1052	0	32620	
1053	0	32596	
1054	0	32570	
1055	0	32584	
1056	0	32624	
1057	0	32660	
1058	0	32640	
1059	0	32644	
1060	0	32674	
1061	0	32708	
1062	0	32736	
1063	0	32800	
1064	0	32832	
1065	0	32860	
1066	0	32876	
1067	0	32892	
1068	0	32864	
1069	0	32832	
1070	0	32840	
1071	0	32856	
1072	0	32896	
1073	0	32944	
1074	0	32972	
1075	0	32956	
1076	0	32948	
1077	0	32940	
1078	0	32926	
1079	0	32900	
1080	0	32864	
1081	0	32820	
1082	0	32800	
1083	0	32808	
1084	0	32804	
1085	0	32824	
1086	0	32808	
1087	0	32764	
1088	0	32740	
1089	0	32696	
1090	0	32666	
1091	0	32680	
1092	0	32728	
1093	0	32768	
1094	0	32816	
1095	0	32816	
1096	0	32824	
1097	0	32856	
1098	0	32868	
1099	0	32868	
1100	0	32844	
1101	0	32824	
1102	0	32800	
1103	0	32768	
1104	0	32728	
1105	0	32692	
1106	0	32680	
1107	0	32704	
1108	0	32704	
1109	0	32724	
1110	0	32708	
1111	0	32736	
1112	0	32720	
1113	0	32688	
1114	0	32696	
1115	0	32752	
1116	0	32816	
1117	0	32816	
1118	0	32824	
1119	0	32856	
1120	0	32820	
1121	0	32720	
1122	0	32696	
1123	0	32736	
1124	0	32820	
1125	0	32900	
1126	0	32956	
1127	0	32964	
1128	0	32946	
1129	0	32926	
1130	0	32904	
1131	0	32896	
1132	0	32920	
1133	0	32948	
1134	0	32964	
1135	0	33042	
1136	0	33088	
1137	0	33104	
1138	0	33124	
1139	0	33144	
1140	0	33122	
1141	0	33066	
1142	0	33034	
1143	0	32984	
1144	0	32964	
1145	0	32930	
1146	0	32852	
1147	0	32776	
1148	0	32788	
1149	0	32824	
1150	0	32856	
1151	0	32776	
1152	0	32720	
1153	0	32764	
1154	0	32740	
1155	0	32704	
1156	0	32628	
1157	0	32580	
1158	0	32560	
1159	0	32552	
1160	0	32576	
1161	0	32528	
1162	0	32400	
1163	0	32312	
1164	0	32288	
1165	0	32256	
1166	0	32290	
1167	0	32312	
1168	0	32356	
1169	0	32408	
1170	0	32480	
1171	0	32500	
1172	0	32496	
1173	0	32444	
1174	0	32420	
1175	0	32344	
1176	0	32284	
1177	0	32240	
1178	0	32172	
1179	0	32144	
1180	0	32134	
1181	0	32180	
1182	0	32224	
1183	0	32216	
1184	0	32152	
1185	0	32086	
1186	0	32056	
1187	0	32040	
1188	0	32088	
1189	0	32138	
1190	0	32140	
1191	0	32084	
1192	0	32028	
1193	0	32012	
1194	0	32072	
1195	0	32120	
1196	0	32168	
1197	0	32172	
1198	0	32164	
1199	0	32228	
1200	0	32304	
1201	0	32384	
1202	0	32432	
1203	0	32480	
1204	0	32500	
1205	0	32488	
1206	0	32456	
1207	0	32448	
1208	0	32428	
1209	0	32428	
1210	0	32392	
1211	0	32312	
1212	0	32256	
1213	0	32268	
1214	0	32332	
1215	0	32344	
1216	0	32388	
1217	0	32404	
1218	0	32384	
1219	0	32376	
1220	0	32432	
1221	0	32472	
1222	0	32464	
1223	0	32432	
1224	0	32392	
1225	0	32388	
1226	0	32376	
1227	0	32352	
1228	0	32320	
1229	0	32396	
1230	0	32424	
1231	0	32456	
1232	0	32490	
1233	0	32552	
1234	0	32568	
1235	0	32492	
1236	0	32480	
1237	0	32496	
1238	0	32496	
1239	0	32512	
1240	0	32552	
1241	0	32600	
1242	0	32636	
1243	0	32658	
1244	0	32656	
1245	0	32632	
1246	0	32620	
1247	0	32612	
1248	0	32608	
1249	0	32604	
1250	0	32668	
1251	0	32704	
1252	0	32728	
1253	0	32764	
1254	0	32802	
1255	0	32804	
1256	0	32820	
1257	0	32816	
1258	0	32832	
1259	0	32832	
1260	0	32792	
1261	0	32788	
1262	0	32836	
1263	0	32900	
1264	0	32984	
1265	0	33026	
1266	0	33016	
1267	0	32986	
1268	0	32960	
1269	0	32992	
1270	0	33080	
1271	0	33052	
1272	0	33040	
1273	0	33060	
1274	0	33080	
1275	0	33124	
1276	0	33192	
1277	0	33216	
1278	0	33236	
1279	0	33264	
1280	0	33308	
1281	0	33312	
1282	0	33316	
1283	0	33356	
1284	0	33360	
1285	0	33356	
1286	0	33364	
1287	0	33360	
1288	0	33364	
1289	0	33396	
1290	0	33368	
1291	0	33344	
1292	0	33344	
1293	0	33348	
1294	0	33372	
1295	0	33396	
1296	0	33416	
1297	0	33460	
1298	0	33528	
1299	0	33564	
1300	0	33570	
1301	0	33584	
1302	0	33560	
1303	0	33536	
1304	0	33520	
1305	0	33532	
1306	0	33530	
1307	0	33578	
1308	0	33600	
1309	0	33616	
1310	0	33632	
1311	0	33636	
1312	0	33616	
1313	0	33628	
1314	0	33600	
1315	0	33576	
1316	0	33604	
1317	0	33672	
1318	0	33704	
1319	0	33704	
1320	0	33664	
1321	0	33648	
1322	0	33712	
1323	0	33744	
1324	0	33736	
1325	0	33764	
1326	0	33792	
1327	0	33792	
1328	0	33760	
1329	0	33696	
1330	0	33648	
1331	0	33636	
1332	0	33652	
1333	0	33644	
1334	0	33660	
1335	0	33768	
1336	0	33784	
1337	0	33632	
1338	0	33560	
1339	0	33620	
1340	0	33636	
1341	0	33644	
1342	0	33628	
1343	0	33596	
1344	0	33592	
1345	0	33592	
1346	0	33524	
1347	0	33484	
1348	0	33504	
1349	0	33504	
1350	0	33560	
1351	0	33596	
1352	0	33572	
1353	0	33584	
1354	0	33648	
1355	0	33728	
1356	0	33864	
1357	0	33996	
1358	0	34040	
1359	0	34064	
1360	0	34140	
1361	0	34220	
1362	0	34284	
1363	0	34376	
1364	0	34464	
1365	0	34588	
1366	0	34676	
1367	0	34708	
1368	0	34756	
1369	0	34752	
1370	0	34720	
1371	0	34692	
1372	0	34624	
1373	0	34596	
1374	0	34600	
1375	0	34612	
1376	0	34612	
1377	0	34640	
1378	0	34728	
1379	0	34792	
1380	0	34824	
1381	0	34812	
1382	0	34876	
1383	0	35040	
1384	0	35272	
1385	0	35540	
1386	0	35752	
1387	0	35968	
1388	0	36192	
1389	0	36436	
1390	0	36660	
1391	0	36812	
1392	0	36912	
1393	0	37008	
1394	0	37104	
1395	0	37128	
1396	0	37056	
1397	0	37056	
1398	0	37136	
1399	0	37148	
1400	0	37084	
1401	0	36928	
1402	0	36754	
1403	0	36556	
1404	0	36380	
1405	0	36312	
1406	0	36296	
1407	0	36292	
1408	0	36336	
1409	0	36400	
1410	0	36468	
1411	0	36444	
1412	0	36268	
1413	0	36080	
1414	0	35864	
1415	0	35692	
1416	0	35696	
1417	0	35664	
1418	0	35576	
1419	0	35464	
1420	0	35276	
1421	0	35000	
1422	0	34656	
1423	0	34328	
1424	0	33964	
1425	0	33584	
1426	0	33224	
1427	0	32928	
1428	0	32676	
1429	0	32432	
1430	0	32220	
1431	0	32056	
1432	0	31956	
1433	0	31930	
1434	0	31896	
1435	0	31816	
1436	0	31720	
1437	0	31584	
1438	0	31480	
1439	0	31388	
1440	0	31296	
1441	0	31288	
1442	0	31248	
1443	0	31168	
1444	0	31106	
1445	0	31036	
1446	0	31020	
1447	0	31008	
1448	0	31012	
1449	0	31032	
1450	0	31024	
1451	0	31000	
1452	0	30904	
1453	0	30882	
1454	0	30896	
1455	0	30856	
1456	0	30852	
1457	0	30852	
1458	0	30900	
1459	0	30938	
1460	0	30974	
1461	0	30984	
1462	0	31024	
1463	0	31032	
1464	0	31056	
1465	0	31068	
1466	0	31088	
1467	0	31160	
1468	0	31120	
1469	0	31092	
1470	0	31076	
1471	0	31100	
1472	0	31144	
1473	0	31108	
1474	0	31020	
1475	0	30992	
1476	0	30984	
1477	0	30980	
1478	0	30888	
1479	0	30836	
1480	0	30884	
1481	0	30912	
1482	0	30892	
1483	0	30764	
1484	0	30600	
1485	0	30216	
1486	0	29472	
1487	0	28484	
1488	0	27360	
1489	0	26044	
1490	0	24640	
1491	0	23282	
1492	0	22112	
1493	0	21200	
1494	0	20408	
1495	0	19772	
1496	0	19376	
1497	0	19362	
1498	0	19610	
1499	0	19944	
1500	0	20432	
1501	0	21380	
1502	0	22938	
1503	0	24936	
1504	0	27416	
1505	0	30164	
1506	0	33512	
1507	0	37312	
1508	0	41422	
1509	0	45880	
1510	0	50560	
1511	0	55128	
1512	0	59392	
1513	0	62240	
1514	0	63768	
1515	0	64536	
1516	0	64888	
1517	0	65032	
1518	0	65052	
1519	0	64992	
1520	0	64896	
1521	0	64800	
1522	0	64692	
1523	0	64576	
1524	0	64428	
1525	0	60456	
1526	0	56432	
1527	0	52544	
1528	0	48260	
1529	0	44080	
1530	0	40684	
1531	0	37772	
1532	0	35072	
1533	0	32652	
1534	0	30640	
1535	0	29220	
1536	0	28084	
1537	0	27036	
1538	0	25968	
1539	0	24994	
1540	0	24076	
1541	0	23236	
1542	0	22592	
1543	0	22248	
1544	0	22144	
1545	0	22156	
1546	0	22192	
1547	0	22164	
1548	0	22244	
1549	0	22490	
1550	0	22816	
1551	0	23136	
1552	0	23376	
1553	0	23656	
1554	0	23972	
1555	0	24380	
1556	0	24906	
1557	0	25468	
1558	0	26024	
1559	0	26580	
1560	0	27100	
1561	0	27540	
1562	0	27880	
1563	0	28184	
1564	0	28420	
1565	0	28584	
1566	0	28748	
1567	0	28856	
1568	0	28936	
1569	0	29032	
1570	0	29040	
1571	0	29096	
1572	0	29196	
1573	0	29300	
1574	0	29376	
1575	0	29428	
1576	0	29440	
1577	0	29444	
1578	0	29472	
1579	0	29492	
1580	0	29564	
1581	0	29656	
1582	0	29740	
1583	0	29800	
1584	0	29832	
1585	0	29844	
1586	0	29912	
1587	0	30012	
1588	0	30108	
1589	0	30176	
1590	0	30248	
1591	0	30350	
1592	0	30492	
1593	0	30632	
1594	0	30728	
1595	0	30752	
1596	0	30804	
1597	0	30804	
1598	0	30792	
1599	0	30788	
1600	0	30836	
1601	0	30924	
1602	0	30972	
1603	0	30960	
1604	0	30984	
1605	0	31088	
1606	0	31238	
1607	0	31364	
1608	0	31432	
1609	0	31492	
1610	0	31536	
1611	0	31592	
1612	0	31640	
1613	0	31642	
1614	0	31696	
1615	0	31692	
1616	0	31540	
1617	0	31420	
1618	0	31408	
1619	0	31468	
1620	0	31552	
1621	0	31676	
1622	0	31764	
1623	0	31724	
1624	0	31612	
1625	0	31648	
1626	0	31712	
1627	0	31764	
1628	0	31762	
1629	0	31706	
1630	0	31648	
1631	0	31680	
1632	0	31744	
1633	0	31832	
1634	0	31940	
1635	0	32052	
1636	0	32192	
1637	0	32276	
1638	0	32328	
1639	0	32344	
1640	0	32264	
1641	0	32156	
1642	0	32048	
1643	0	31992	
1644	0	32060	
1645	0	32184	
1646	0	32240	
1647	0	32296	
1648	0	32352	
1649	0	32436	
1650	0	32504	
1651	0	32544	
1652	0	32512	
1653	0	32474	
1654	0	32460	
1655	0	32424	
1656	0	32386	
1657	0	32376	
1658	0	32368	
1659	0	32396	
1660	0	32456	
1661	0	32464	
1662	0	32472	
1663	0	32532	
1664	0	32564	
1665	0	32596	
1666	0	32628	
1667	0	32608	
1668	0	32570	
1669	0	32576	
1670	0	32584	
1671	0	32560	
1672	0	32528	
1673	0	32468	
1674	0	32452	
1675	0	32440	
1676	0	32392	
1677	0	32396	
1678	0	32416	
1679	0	32432	
1680	0	32436	
1681	0	32460	
1682	0	32536	
1683	0	32542	
1684	0	32524	
1685	0	32500	
1686	0	32504	
1687	0	32532	
1688	0	32568	
1689	0	32570	
1690	0	32520	
1691	0	32452	
1692	0	32360	
1693	0	32272	
1694	0	32236	
1695	0	32168	
1696	0	32108	
1697	0	32120	
1698	0	32192	
1699	0	32196	
1700	0	32076	
1701	0	32096	
1702	0	32128	
1703	0	32112	
1704	0	32064	
1705	0	32068	
1706	0	32056	
1707	0	32072	
1708	0	32112	
1709	0	32152	
1710	0	32232	
1711	0	32296	
1712	0	32320	
1713	0	32314	
1714	0	32248	
1715	0	32136	
1716	0	32120	
1717	0	32200	
1718	0	32240	
1719	0	32240	
1720	0	32256	
1721	0	32264	
1722	0	32284	
1723	0	32352	
1724	0	32410	
1725	0	32448	
1726	0	32436	
1727	0	32416	
1728	0	32368	
1729	0	32344	
1730	0	32404	
1731	0	32424	
1732	0	32460	
1733	0	32488	
1734	0	32498	
1735	0	32552	
1736	0	32584	
1737	0	32620	
1738	0	32676	
1739	0	32784	
1740	0	32804	
1741	0	32820	
1742	0	32844	
1743	0	32906	
1744	0	33000	
1745	0	33068	
1746	0	33088	
1747	0	33088	
1748	0	33080	
1749	0	33120	
1750	0	33070	
1751	0	33052	
1752	0	33048	
1753	0	33088	
1754	0	33124	
1755	0	33096	
1756	0	33004	
1757	0	32980	
1758	0	33008	
1759	0	32968	
1760	0	32936	
1761	0	32922	
1762	0	32908	
1763	0	32936	
1764	0	33000	
1765	0	33008	
1766	0	32960	
1767	0	32906	
1768	0	32900	
1769	0	32916	
1770	0	32892	
1771	0	32884	
1772	0	32840	
1773	0	32768	
1774	0	32714	
1775	0	32724	
1776	0	32808	
1777	0	32808	
1778	0	32780	
1779	0	32720	
1780	0	32676	
1781	0	32720	
1782	0	32784	
1783	0	32784	
1784	0	32796	
1785	0	32792	
1786	0	32592	
1787	0	32388	
1788	0	32320	
1789	0	32292	
1790	0	32282	
1791	0	32328	
1792	0	32368	
1793	0	32400	
1794	0	32356	
1795	0	32284	
1796	0	32296	
1797	0	32252	
1798	0	32224	
1799	0	32200	
1800	0	32260	
1801	0	32272	
1802	0	32188	
1803	0	32204	
1804	0	32348	
1805	0	32452	
1806	0	32528	
1807	0	32544	
1808	0	32468	
1809	0	32444	
1810	0	32400	
1811	0	32312	
1812	0	32288	
1813	0	32328	
1814	0	32304	
1815	0	32264	
1816	0	32316	
1817	0	32340	
1818	0	32290	
1819	0	32224	
1820	0	32216	
1821	0	32180	
1822	0	32272	
1823	0	32392	
1824	0	32416	
1825	0	32404	
1826	0	32392	
1827	0	32352	
1828	0	32332	
1829	0	32272	
1830	0	32264	
1831	0	32240	
1832	0	32220	
1833	0	32268	
1834	0	32288	
1835	0	32292	
1836	0	32352	
1837	0	32424	
1838	0	32440	
1839	0	32388	
1840	0	32352	
1841	0	32410	
1842	0	32432	
1843	0	32448	
1844	0	32540	
1845	0	32588	
1846	0	32588	
1847	0	32560	
1848	0	32520	
1849	0	32554	
1850	0	32538	
1851	0	32472	
1852	0	32456	
1853	0	32458	
1854	0	32444	
1855	0	32448	
1856	0	32416	
1857	0	32352	
1858	0	32436	
1859	0	32572	
1860	0	32560	
1861	0	32568	
1862	0	32612	
1863	0	32708	
1864	0	32800	
1865	0	32848	
1866	0	32876	
1867	0	32912	
1868	0	32896	
1869	0	32826	
1870	0	32760	
1871	0	32732	
1872	0	32652	
1873	0	32676	
1874	0	32838	
1875	0	33004	
1876	0	33076	
1877	0	33080	
1878	0	33086	
1879	0	33088	
1880	0	33004	
1881	0	32922	
1882	0	32864	
1883	0	32920	
1884	0	33132	
1885	0	33228	
1886	0	33256	
1887	0	33344	
1888	0	33280	
1889	0	33268	
1890	0	33362	
1891	0	33356	
1892	0	33228	
1893	0	33148	
1894	0	33092	
1895	0	33184	
1896	0	33320	
1897	0	33294	
1898	0	33288	
1899	0	33296	
1900	0	33348	
1901	0	33412	
1902	0	33380	
1903	0	33234	
1904	0	33216	
1905	0	33308	
1906	0	33400	
1907	0	33480	
1908	0	33516	
1909	0	33536	
1910	0	33600	
1911	0	33696	
1912	0	33768	
1913	0	33832	
1914	0	33864	
1915	0	33880	
1916	0	33868	
1917	0	33824	
1918	0	33784	
1919	0	33792	
1920	0	33756	
1921	0	33676	
1922	0	33664	
1923	0	33680	
1924	0	33690	
1925	0	33696	
1926	0	33704	
1927	0	33732	
1928	0	33764	
1929	0	33782	
1930	0	33772	
1931	0	33768	
1932	0	33752	
1933	0	33724	
1934	0	33724	
1935	0	33776	
1936	0	33786	
1937	0	33792	
1938	0	33776	
1939	0	33760	
1940	0	33716	
1941	0	33648	
1942	0	33584	
1943	0	33572	
1944	0	33568	
1945	0	33552	
1946	0	33528	
1947	0	33504	
1948	0	33458	
1949	0	33456	
1950	0	33492	
1951	0	33560	
1952	0	33540	
1953	0	33448	
1954	0	33360	
1955	0	33296	
1956	0	33264	
1957	0	33220	
1958	0	33232	
1959	0	33270	
1960	0	33292	
1961	0	33304	
1962	0	33312	
1963	0	33292	
1964	0	33196	
1965	0	33180	
1966	0	33196	
1967	0	33168	
1968	0	33148	
1969	0	33156	
1970	0	33156	
1971	0	33132	
1972	0	33204	
1973	0	33240	
1974	0	33276	
1975	0	33284	
1976	0	33164	
1977	0	33176	
1978	0	33192	
1979	0	33136	
1980	0	33104	
1981	0	33028	
1982	0	32964	
1983	0	32988	
1984	0	33064	
1985	0	33092	
1986	0	33036	
1987	0	32972	
1988	0	32976	
1989	0	32928	
1990	0	32864	
1991	0	32824	
1992	0	32780	
1993	0	32768	
1994	0	32804	
1995	0	32776	
1996	0	32764	
1997	0	32796	
1998	0	32812	
1999	0	32800	
2000	0	32784	
2001	0	32776	
2002	0	32848	
2003	0	32916	
2004	0	32936	
2005	0	32984	
2006	0	32996	
2007	0	33008	
2008	0	32988	
2009	0	32928	
2010	0	32896	
2011	0	32996	
2012	0	33144	
2013	0	33188	
2014	0	33192	
2015	0	33218	
2016	0	33280	
2017	0	33400	
2018	0	33498	
2019	0	33544	
2020	0	33620	
2021	0	33748	
2022	0	33896	
2023	0	34060	
2024	0	34200	
2025	0	34242	
2026	0	34204	
2027	0	34068	
2028	0	33988	
2029	0	34132	
2030	0	34212	
2031	0	34144	
2032	0	34056	
2033	0	34088	
2034	0	34196	
2035	0	34324	
2036	0	34296	
2037	0	34260	
2038	0	34300	
2039	0	34360	
2040	0	34400	
2041	0	34540	
2042	0	34738	
2043	0	34936	
2044	0	35148	
2045	0	35444	
2046	0	35852	
2047	0	36268	
2048	0	36564	
2049	0	36792	
2050	0	36956	
2051	0	37000	
2052	0	37024	
2053	0	37080	
2054	0	37036	
2055	0	37016	
2056	0	37088	
2057	0	37152	
2058	0	37122	
2059	0	36930	
2060	0	36672	
2061	0	36520	
2062	0	36480	
2063	0	36444	
2064	0	36424	
2065	0	36316	
2066	0	36236	
2067	0	36226	
2068	0	36236	
2069	0	36192	
2070	0	36180	
2071	0	36116	
2072	0	36004	
2073	0	35920	
2074	0	35848	
2075	0	35728	
2076	0	35604	
2077	0	35456	
2078	0	35168	
2079	0	34832	
2080	0	34564	
2081	0	34306	
2082	0	33968	
2083	0	33504	
2084	0	33084	
2085	0	32724	
2086	0	32392	
2087	0	32124	
2088	0	31954	
2089	0	31852	
2090	0	31792	
2091	0	31724	
2092	0	31684	
2093	0	31600	
2094	0	31472	
2095	0	31340	
2096	0	31168	
2097	0	31016	
2098	0	30946	
2099	0	30932	
2100	0	30832	
2101	0	30608	
2102	0	30444	
2103	0	30416	
2104	0	30476	
2105	0	30544	
2106	0	30688	
2107	0	30818	
2108	0	30920	
2109	0	30946	
2110	0	30952	
2111	0	30916	
2112	0	30886	
2113	0	30860	
2114	0	30882	
2115	0	30888	
2116	0	30800	
2117	0	30760	
2118	0	30784	
2119	0	30798	
2120	0	30784	
2121	0	30788	
2122	0	30836	
2123	0	30932	
2124	0	31022	
2125	0	31084	
2126	0	31116	
2127	0	31080	
2128	0	31064	
2129	0	31016	
2130	0	31008	
2131	0	30984	
2132	0	30932	
2133	0	30900	
2134	0	30904	
2135	0	31008	
2136	0	31072	
2137	0	31072	
2138	0	30968	
2139	0	30890	
2140	0	30852	
2141	0	30692	
2142	0	30316	
2143	0	29736	
2144	0	28798	
2145	0	27580	
2146	0	26264	
2147	0	24866	
2148	0	23532	
2149	0	22380	
2150	0	21448	
2151	0	20708	
2152	0	20166	
2153	0	19902	
2154	0	19900	
2155	0	20176	
2156	0	20612	
2157	0	21140	
2158	0	22124	
2159	0	23714	
2160	0	25764	
2161	0	28144	
2162	0	30752	
2163	0	34016	
2164	0	37676	
2165	0	41528	
2166	0	45792	
2167	0	50268	
2168	0	54852	
2169	0	59034	
2170	0	61928	
2171	0	63480	
2172	0	64276	
2173	0	64632	
2174	0	64788	
2175	0	64804	
2176	0	64752	
2177	0	64656	
2178	0	64560	
2179	0	64448	
2180	0	64328	
2181	0	63208	
2182	0	58316	
2183	0	54592	
2184	0	50828	
2185	0	46808	
2186	0	43112	
2187	0	40128	
2188	0	37528	
2189	0	34936	
2190	0	32564	
2191	0	30544	
2192	0	28968	
2193	0	27658	
2194	0	26460	
2195	0	25344	
2196	0	24504	
2197	0	23800	
2198	0	23092	
2199	0	22438	
2200	0	22072	
2201	0	21960	
2202	0	21920	
2203	0	21888	
2204	0	21924	
2205	0	22096	
2206	0	22386	
2207	0	22708	
2208	0	22982	
2209	0	23224	
2210	0	23508	
2211	0	23856	
2212	0	24272	
2213	0	24816	
2214	0	25476	
2215	0	26052	
2216	0	26488	
2217	0	26848	
2218	0	27224	
2219	0	27536	
2220	0	27896	
2221	0	28148	
2222	0	28392	
2223	0	28600	
2224	0	28736	
2225	0	28812	
2226	0	28864	
2227	0	28872	
2228	0	28908	
2229	0	28960	
2230	0	29022	
2231	0	29052	
2232	0	29036	
2233	0	29184	
2234	0	29324	
2235	0	29400	
2236	0	29532	
2237	0	29618	
2238	0	29640	
2239	0	29676	
2240	0	29754	
2241	0	29912	
2242	0	30024	
2243	0	30080	
2244	0	30160	
2245	0	30192	
2246	0	30152	
2247	0	30192	
2248	0	30312	
2249	0	30380	
2250	0	30368	
2251	0	30364	
2252	0	30432	
2253	0	30528	
2254	0	30536	
2255	0	30484	
2256	0	30404	
2257	0	30464	
2258	0	30580	
2259	0	30720	
2260	0	30836	
2261	0	30976	
2262	0	31052	
2263	0	31052	
2264	0	31028	
2265	0	31064	
2266	0	31060	
2267	0	31060	
2268	0	31104	
2269	0	31104	
2270	0	31048	
2271	0	31052	
2272	0	31116	
2273	0	31160	
2274	0	31216	
2275	0	31324	
2276	0	31432	
2277	0	31460	
2278	0	31472	
2279	0	31504	
2280	0	31560	
2281	0	31616	
2282	0	31632	
2283	0	31640	
2284	0	31664	
2285	0	31692	
2286	0	31696	
2287	0	31776	
2288	0	31936	
2289	0	31992	
2290	0	31992	
2291	0	32040	
2292	0	32056	
2293	0	31992	
2294	0	31968	
2295	0	31984	
2296	0	32040	
2297	0	32152	
2298	0	32164	
2299	0	32120	
2300	0	32128	
2301	0	32184	
2302	0	32228	
2303	0	32296	
2304	0	32318	
2305	0	32344	
2306	0	32344	
2307	0	32276	
2308	0	32290	
2309	0	32352	
2310	0	32384	
2311	0	32444	
2312	0	32512	
2313	0	32464	
2314	0	32408	
2315	0	32320	
2316	0	32282	
2317	0	32376	
2318	0	32448	
2319	0	32460	
2320	0	32448	
2321	0	32480	
2322	0	32524	
2323	0	32504	
2324	0	32456	
2325	0	32496	
2326	0	32538	
2327	0	32496	
2328	0	32368	
2329	0	32372	
2330	0	32440	
2331	0	32496	
2332	0	32572	
2333	0	32620	
2334	0	32590	
2335	0	32492	
2336	0	32540	
2337	0	32600	
2338	0	32598	
2339	0	32608	
2340	0	32628	
2341	0	32644	
2342	0	32580	
2343	0	32512	
2344	0	32572	
2345	0	32462	
2346	0	32380	
2347	0	32396	
2348	0	32412	
2349	0	32352	
2350	0	32328	
2351	0	32400	
2352	0	32484	
2353	0	32460	
2354	0	32336	
2355	0	32290	
2356	0	32264	
2357	0	32250	
2358	0	32168	
2359	0	32152	
2360	0	32164	
2361	0	32196	
2362	0	32232	
2363	0	32248	
2364	0	32306	
2365	0	32376	
2366	0	32354	
2367	0	32252	
2368	0	32140	
2369	0	32072	
2370	0	32080	
2371	0	32128	
2372	0	32128	
2373	0	32084	
2374	0	32016	
2375	0	31956	
2376	0	31940	
2377	0	31904	
2378	0	31884	
2379	0	31944	
2380	0	32036	
2381	0	32032	
2382	0	32032	
2383	0	32056	
2384	0	32064	
2385	0	32076	
2386	0	32144	
2387	0	32292	
2388	0	32306	
2389	0	32184	
2390	0	32120	
2391	0	32152	
2392	0	32256	
2393	0	32228	
2394	0	32128	
2395	0	32112	
2396	0	32092	
2397	0	32172	
2398	0	32306	
2399	0	32388	
2400	0	32548	
2401	0	32612	
2402	0	32640	
2403	0	32712	
2404	0	32794	
2405	0	32832	
2406	0	32864	
2407	0	32960	
2408	0	33036	
2409	0	32992	
2410	0	32996	
2411	0	33088	
2412	0	33144	
2413	0	33144	
2414	0	33140	
2415	0	33146	
2416	0	33208	
2417	0	33222	
2418	0	33140	
2419	0	33040	
2420	0	32972	
2421	0	32904	
2422	0	32968	
2423	0	33052	
2424	0	33080	
2425	0	33068	
2426	0	33060	
2427	0	32976	
2428	0	32888	
2429	0	32848	
2430	0	32824	
2431	0	32824	
2432	0	32832	
2433	0	32804	
2434	0	32752	
2435	0	32744	
2436	0	32800	
2437	0	32904	
2438	0	32896	
2439	0	32820	
2440	0	32764	
2441	0	32786	
2442	0	32848	
2443	0	32840	
2444	0	32818	
2445	0	32768	
2446	0	32712	
2447	0	32668	
2448	0	32672	
2449	0	32648	
2450	0	32560	
2451	0	32480	
2452	0	32480	
2453	0	32540	
2454	0	32640	
2455	0	32648	
2456	0	32656	
2457	0	32664	
2458	0	32696	
2459	0	32704	
2460	0	32652	
2461	0	32616	
2462	0	32580	
2463	0	32560	
2464	0	32632	
2465	0	32656	
2466	0	32624	
2467	0	32670	
2468	0	32612	
2469	0	32546	
2470	0	32560	
2471	0	32546	
2472	0	32432	
2473	0	32376	
2474	0	32324	
2475	0	32316	
2476	0	32304	
2477	0	32292	
2478	0	32324	
2479	0	32384	
2480	0	32460	
2481	0	32520	
2482	0	32548	
2483	0	32528	
2484	0	32476	
2485	0	32464	
2486	0	32456	
2487	0	32468	
2488	0	32454	
2489	0	32512	
2490	0	32564	
2491	0	32480	
2492	0	32388	
2493	0	32324	
2494	0	32328	
2495	0	32312	
2496	0	32266	
2497	0	32320	
2498	0	32288	
2499	0	32314	
2500	0	32332	
2501	0	32440	
2502	0	32564	
2503	0	32680	
2504	0	32616	
2505	0	32500	
2506	0	32592	
2507	0	32714	
2508	0	32752	
2509	0	32860	
2510	0	32924	
2511	0	32872	
2512	0	32696	
2513	0	32576	
2514	0	32548	
2515	0	32516	
2516	0	32610	
2517	0	32736	
2518	0	32660	
2519	0	32616	
2520	0	32604	
2521	0	32596	
2522	0	32698	
2523	0	32936	
2524	0	33088	
2525	0	33196	
2526	0	33076	
2527	0	33032	
2528	0	33060	
2529	0	32976	
2530	0	32856	
2531	0	32800	
2532	0	33004	
2533	0	33052	
2534	0	32994	
2535	0	32940	
2536	0	32944	
2537	0	33050	
2538	0	33240	
2539	0	33348	
2540	0	33364	
2541	0	33356	
2542	0	33304	
2543	0	33216	
2544	0	33264	
2545	0	33312	
2546	0	33324	
2547	0	33284	
2548	0	33280	
2549	0	33380	
2550	0	33408	
2551	0	33332	
2552	0	33272	
2553	0	33244	
2554	0	33328	
2555	0	33420	
2556	0	33440	
2557	0	33492	
2558	0	33616	
2559	0	33628	
2560	0	33604	
2561	0	33560	
2562	0	33544	
2563	0	33568	
2564	0	33626	
2565	0	33688	
2566	0	33708	
2567	0	33744	
2568	0	33804	
2569	0	33868	
2570	0	33984	
2571	0	33960	
2572	0	33888	
2573	0	33828	
2574	0	33752	
2575	0	33584	
2576	0	33484	
2577	0	33456	
2578	0	33452	
2579	0	33458	
2580	0	33516	
2581	0	33596	
2582	0	33574	
2583	0	33572	
2584	0	33554	
2585	0	33594	
2586	0	33672	
2587	0	33720	
2588	0	33784	
2589	0	33876	
2590	0	33856	
2591	0	33868	
2592	0	33892	
2593	0	33872	
2594	0	33740	
2595	0	33580	
2596	0	33560	
2597	0	33648	
2598	0	33692	
2599	0	33696	
2600	0	33640	
2601	0	33612	
2602	0	33580	
2603	0	33568	
2604	0	33564	
2605	0	33556	
2606	0	33538	
2607	0	33492	
2608	0	33396	
2609	0	33284	
2610	0	33228	
2611	0	33292	
2612	0	33352	
2613	0	33320	
2614	0	33284	
2615	0	33268	
2616	0	33252	
2617	0	33240	
2618	0	33242	
2619	0	33220	
2620	0	33232	
2621	0	33292	
2622	0	33324	
2623	0	33354	
2624	0	33304	
2625	0	33224	
2626	0	33248	
2627	0	33220	
2628	0	33188	
2629	0	33114	
2630	0	33112	
2631	0	33172	
2632	0	33140	
2633	0	33008	
2634	0	33018	
2635	0	33072	
2636	0	33056	
2637	0	33128	
2638	0	33232	
2639	0	33216	
2640	0	33132	
2641	0	33028	
2642	0	33072	
2643	0	33188	
2644	0	33180	
2645	0	33108	
2646	0	33070	
2647	0	33024	
2648	0	33052	
2649	0	33048	
2650	0	32936	
2651	0	32964	
2652	0	32992	
2653	0	33020	
2654	0	33032	
2655	0	33016	
2656	0	33056	
2657	0	33144	
2658	0	33104	
2659	0	32920	
2660	0	32852	
2661	0	32864	
2662	0	32926	
2663	0	32858	
2664	0	32752	
2665	0	32704	
2666	0	32648	
2667	0	32720	
2668	0	32820	
2669	0	32858	
2670	0	32864	
2671	0	32856	
2672	0	32888	
2673	0	32896	
2674	0	32908	
2675	0	32948	
2676	0	32896	
2677	0	32760	
2678	0	32656	
2679	0	32640	
2680	0	32648	
2681	0	32664	
2682	0	32732	
2683	0	32744	
2684	0	32652	
2685	0	32538	
2686	0	32612	
2687	0	32624	
2688	0	32640	
2689	0	32840	
2690	0	32968	
2691	0	33026	
2692	0	33088	
2693	0	33240	
2694	0	33420	
2695	0	33472	
2696	0	33320	
2697	0	33216	
2698	0	33186	
2699	0	33376	
2700	0	33700	
2701	0	33856	
2702	0	33932	
2703	0	33984	
2704	0	33968	
2705	0	34096	
2706	0	34152	
2707	0	34112	
2708	0	33960	
2709	0	33856	
2710	0	33796	
2711	0	33952	
2712	0	34120	
2713	0	34166	
2714	0	34096	
2715	0	33920	
2716	0	33872	
2717	0	33976	
2718	0	34208	
2719	0	34492	
2720	0	34776	
2721	0	34984	
2722	0	35288	
2723	0	35648	
2724	0	35924	
2725	0	36132	
2726	0	36236	
2727	0	36384	
2728	0	36568	
2729	0	36738	
2730	0	36816	
2731	0	36824	
2732	0	36896	
2733	0	37040	
2734	0	37064	
2735	0	37024	
2736	0	36912	
2737	0	36744	
2738	0	36496	
2739	0	36324	
2740	0	36160	
2741	0	35978	
2742	0	35892	
2743	0	35984	
2744	0	36080	
2745	0	36132	
2746	0	36136	
2747	0	36104	
2748	0	36024	
2749	0	35952	
2750	0	35914	
2751	0	35822	
2752	0	35744	
2753	0	35644	
2754	0	35488	
2755	0	35216	
2756	0	34904	
2757	0	34604	
2758	0	34256	
2759	0	33760	
2760	0	33298	
2761	0	32956	
2762	0	32564	
2763	0	32172	
2764	0	31904	
2765	0	31672	
2766	0	31560	
2767	0	31504	
2768	0	31424	
2769	0	31328	
2770	0	31314	
2771	0	31228	
2772	0	31116	
2773	0	31140	
2774	0	31132	
2775	0	31056	
2776	0	30904	
2777	0	30712	
2778	0	30560	
2779	0	30520	
2780	0	30520	
2781	0	30572	
2782	0	30596	
2783	0	30636	
2784	0	30700	
2785	0	30688	
2786	0	30648	
2787	0	30640	
2788	0	30612	
2789	0	30656	
2790	0	30688	
2791	0	30656	
2792	0	30600	
2793	0	30632	
2794	0	30760	
2795	0	30834	
2796	0	30900	
2797	0	30976	
2798	0	31008	
2799	0	30976	
2800	0	30980	
2801	0	30936	
2802	0	30872	
2803	0	30856	
2804	0	30858	
2805	0	30844	
2806	0	30900	
2807	0	30944	
2808	0	30984	
2809	0	30968	
2810	0	30864	
2811	0	30804	
2812	0	30836	
2813	0	30904	
2814	0	30920	
2815	0	30880	
2816	0	30896	
2817	0	30864	
2818	0	30684	
2819	0	30328	
2820	0	29808	
2821	0	28936	
2822	0	27820	
2823	0	26688	
2824	0	25472	
2825	0	24156	
2826	0	22988	
2827	0	22036	
2828	0	21229	
2829	0	20684	
2830	0	20360	
2831	0	20308	
2832	0	20524	
2833	0	21032	
2834	0	21704	
2835	0	22584	
2836	0	23904	
2837	0	25712	
2838	0	28068	
2839	0	30664	
2840	0	33612	
2841	0	37084	
2842	0	40764	
2843	0	44740	
2844	0	48880	
2845	0	53296	
2846	0	57552	
2847	0	60972	
2848	0	62928	
2849	0	63940	
2850	0	64436	
2851	0	64648	
2852	0	64696	
2853	0	64680	
2854	0	64596	
2855	0	64500	
2856	0	64376	
2857	0	64260	
2858	0	62256	
2859	0	57288	
2860	0	53564	
2861	0	50048	
2862	0	46384	
2863	0	43048	
2864	0	40236	
2865	0	37760	
2866	0	35396	
2867	0	33100	
2868	0	31056	
2869	0	29400	
2870	0	27992	
2871	0	26568	
2872	0	25332	
2873	0	24376	
2874	0	23586	
2875	0	22768	
2876	0	22016	
2877	0	21556	
2878	0	21404	
2879	0	21392	
2880	0	21392	
2881	0	21564	
2882	0	21852	
2883	0	22280	
2884	0	22616	
2885	0	23002	
2886	0	23476	
2887	0	23768	
2888	0	23948	
2889	0	24200	
2890	0	24485	
2891	0	24848	
2892	0	25396	
2893	0	26016	
2894	0	26480	
2895	0	26960	
2896	0	27430	
2897	0	27788	
2898	0	28176	
2899	0	28460	
2900	0	28580	
2901	0	28744	
2902	0	28828	
2903	0	28816	
2904	0	28908	
2905	0	29152	
2906	0	29240	
2907	0	29268	
2908	0	29332	
2909	0	29456	
2910	0	29584	
2911	0	29684	
2912	0	29736	
2913	0	29744	
2914	0	29788	
2915	0	29904	
2916	0	30012	
2917	0	29918	
2918	0	29728	
2919	0	29664	
2920	0	29688	
2921	0	29768	
2922	0	29976	
2923	0	30156	
2924	0	30156	
2925	0	30144	
2926	0	30224	
2927	0	30252	
2928	0	30348	
2929	0	30456	
2930	0	30568	
2931	0	30640	
2932	0	30688	
2933	0	30708	
2934	0	30664	
2935	0	30580	
2936	0	30504	
2937	0	30520	
2938	0	30572	
2939	0	30658	
2940	0	30760	
2941	0	30840	
2942	0	30840	
2943	0	30940	
2944	0	31092	
2945	0	31128	
2946	0	31152	
2947	0	31108	
2948	0	31076	
2949	0	31086	
2950	0	31100	
2951	0	31112	
2952	0	31116	
2953	0	31168	
2954	0	31276	
2955	0	31344	
2956	0	31472	
2957	0	31524	
2958	0	31544	
2959	0	31560	
2960	0	31624	
2961	0	31636	
2962	0	31720	
2963	0	31840	
2964	0	31896	
2965	0	31828	
2966	0	31800	
2967	0	31800	
2968	0	31760	
2969	0	31732	
2970	0	31808	
2971	0	31780	
2972	0	31720	
2973	0	31804	
2974	0	31832	
2975	0	31944	
2976	0	32144	
2977	0	32160	
2978	0	32104	
2979	0	32080	
2980	0	32108	
2981	0	32108	
2982	0	32162	
2983	0	32296	
2984	0	32296	
2985	0	32320	
2986	0	32360	
2987	0	32424	
2988	0	32448	
2989	0	32472	
2990	0	32480	
2991	0	32418	
2992	0	32352	
2993	0	32280	
2994	0	32172	
2995	0	32188	
2996	0	32280	
2997	0	32408	
2998	0	32468	
2999	0	32488	
3000	0	32544	
3001	0	32568	
3002	0	32460	
3003	0	32388	
3004	0	32216	
3005	0	32240	
3006	0	32452	
3007	0	32480	
3008	0	32480	
3009	0	32580	
3010	0	32664	
3011	0	32604	
3012	0	32492	
3013	0	32388	
3014	0	32420	
3015	0	32524	
3016	0	32536	
3017	0	32486	
3018	0	32440	
3019	0	32416	
3020	0	32428	
3021	0	32452	
3022	0	32418	
3023	0	32384	
3024	0	32384	
3025	0	32420	
3026	0	32428	
3027	0	32448	
3028	0	32496	
3029	0	32500	
3030	0	32400	
3031	0	32344	
3032	0	32368	
3033	0	32352	
3034	0	32336	
3035	0	32344	
3036	0	32384	
3037	0	32368	
3038	0	32308	
3039	0	32290	
3040	0	32328	
3041	0	32272	
3042	0	32248	
3043	0	32244	
3044	0	32228	
3045	0	32176	
3046	0	32156	
3047	0	32120	
3048	0	32096	
3049	0	32080	
3050	0	32056	
3051	0	32156	
3052	0	32152	
3053	0	32128	
3054	0	32180	
3055	0	32168	
3056	0	32136	
3057	0	32080	
3058	0	32064	
3059	0	32088	
3060	0	32136	
3061	0	32168	
3062	0	32176	
3063	0	32194	
3064	0	32200	
3065	0	32188	
3066	0	32172	
3067	0	32224	
3068	0	32288	
3069	0	32264	
3070	0	32222	
3071	0	32250	
3072	0	32324	
3073	0	32352	
3074	0	32472	
3075	0	32616	
3076	0	32672	
3077	0	32768	
3078	0	32840	
3079	0	32936	
3080	0	32968	
3081	0	32924	
3082	0	32968	
3083	0	32944	
3084	0	32960	
3085	0	32976	
3086	0	33016	
3087	0	33140	
3088	0	33192	
3089	0	33202	
3090	0	33242	
3091	0	33236	
3092	0	33184	
3093	0	33136	
3094	0	33050	
3095	0	32940	
3096	0	33068	
3097	0	33160	
3098	0	33096	
3099	0	33016	
3100	0	32952	
3101	0	33020	
3102	0	33108	
3103	0	33108	
3104	0	33040	
3105	0	33012	
3106	0	32976	
3107	0	32992	
3108	0	32968	
3109	0	32954	
3110	0	32900	
3111	0	32832	
3112	0	32816	
3113	0	32872	
3114	0	32916	
3115	0	32856	
3116	0	32760	
3117	0	32744	
3118	0	32720	
3119	0	32748	
3120	0	32792	
3121	0	32800	
3122	0	32808	
3123	0	32804	
3124	0	32848	
3125	0	32824	
3126	0	32524	
3127	0	32428	
3128	0	32760	
3129	0	32868	
3130	0	32620	
3131	0	32408	
3132	0	32288	
3133	0	32292	
3134	0	32358	
3135	0	32340	
3136	0	32212	
3137	0	32120	
3138	0	32192	
3139	0	32304	
3140	0	32136	
3141	0	31936	
3142	0	31916	
3143	0	32136	
3144	0	32314	
3145	0	32376	
3146	0	32324	
3147	0	32324	
3148	0	32408	
3149	0	32424	
3150	0	32404	
3151	0	32520	
3152	0	32472	
3153	0	32600	
3154	0	32660	
3155	0	32588	
3156	0	32516	
3157	0	32544	
3158	0	32490	
3159	0	32628	
3160	0	32744	
3161	0	32244	
3162	0	31820	
3163	0	31846	
3164	0	31760	
3165	0	31862	
3166	0	32060	
3167	0	32040	
3168	0	31472	
3169	0	31122	
3170	0	30808	
3171	0	30700	
3172	0	30948	
3173	0	31298	
3174	0	31264	
3175	0	31524	
3176	0	31616	
3177	0	31368	
3178	0	30974	
3179	0	30232	
3180	0	30168	
3181	0	31168	
3182	0	31908	
3183	0	31520	
3184	0	30912	
3185	0	30784	
3186	0	30796	
3187	0	31296	
3188	0	31816	
3189	0	31912	
3190	0	32096	
3191	0	32336	
3192	0	32284	
3193	0	32592	
3194	0	32680	
3195	0	32596	
3196	0	32636	
3197	0	33120	
3198	0	33148	
3199	0	33088	
3200	0	33312	
3201	0	33684	
3202	0	33568	
3203	0	33524	
3204	0	33696	
3205	0	34256	
3206	0	34344	
3207	0	34216	
3208	0	34332	
3209	0	34460	
3210	0	34468	
3211	0	34628	
3212	0	34860	
3213	0	34752	
3214	0	34340	
3215	0	34302	
3216	0	34388	
3217	0	34400	
3218	0	34372	
3219	0	34212	
3220	0	34036	
3221	0	33950	
3222	0	34012	
3223	0	34180	
3224	0	34280	
3225	0	34392	
3226	0	34696	
3227	0	35018	
3228	0	35212	
3229	0	35136	
3230	0	34932	
3231	0	34748	
3232	0	34592	
3233	0	34304	
3234	0	34106	
3235	0	34096	
3236	0	34076	
3237	0	34064	
3238	0	34088	
3239	0	34104	
3240	0	34064	
3241	0	34112	
3242	0	34216	
3243	0	34304	
3244	0	34392	
3245	0	34432	
3246	0	34400	
3247	0	34400	
3248	0	34408	
3249	0	34436	
3250	0	34436	
3251	0	34356	
3252	0	34328	
3253	0	34308	
3254	0	34332	
3255	0	34260	
3256	0	34204	
3257	0	34224	
3258	0	34204	
3259	0	34184	
3260	0	34236	
3261	0	34200	
3262	0	34084	
3263	0	33968	
3264	0	33856	
3265	0	33840	
3266	0	33808	
3267	0	33840	
3268	0	33904	
3269	0	33868	
3270	0	33856	
3271	0	33832	
3272	0	33856	
3273	0	33816	
3274	0	33696	
3275	0	33696	
3276	0	33784	
3277	0	33804	
3278	0	33786	
3279	0	33744	
3280	0	33640	
3281	0	33652	
3282	0	33604	
3283	0	33524	
3284	0	33476	
3285	0	33464	
3286	0	33484	
3287	0	33344	
3288	0	33408	
3289	0	33488	
3290	0	33396	
3291	0	33284	
3292	0	33260	
3293	0	33220	
3294	0	33144	
3295	0	33160	
3296	0	33250	
3297	0	33258	
3298	0	33216	
3299	0	33240	
3300	0	33256	
3301	0	33116	
3302	0	33084	
3303	0	33092	
3304	0	33112	
3305	0	33124	
3306	0	33140	
3307	0	33088	
3308	0	33000	
3309	0	32988	
3310	0	33120	
3311	0	33184	
3312	0	32984	
3313	0	32824	
3314	0	32768	
3315	0	32768	
3316	0	32776	
3317	0	32784	
3318	0	32808	
3319	0	32748	
3320	0	32788	
3321	0	32916	
3322	0	32992	
3323	0	33080	
3324	0	33148	
3325	0	33146	
3326	0	32960	
3327	0	32716	
3328	0	32516	
3329	0	32480	
3330	0	32452	
3331	0	32408	
3332	0	32332	
3333	0	32458	
3334	0	32736	
3335	0	32810	
3336	0	32976	
3337	0	33176	
3338	0	33168	
3339	0	33064	
3340	0	32776	
3341	0	32700	
3342	0	32704	
3343	0	32712	
3344	0	32624	
3345	0	32520	
3346	0	32372	
3347	0	32384	
3348	0	32404	
3349	0	32380	
3350	0	32368	
3351	0	32404	
3352	0	32452	
3353	0	32464	
3354	0	32600	
3355	0	32672	
3356	0	32560	
3357	0	32584	
3358	0	32778	
3359	0	32888	
3360	0	32864	
3361	0	32744	
3362	0	32672	
3363	0	32632	
3364	0	32622	
3365	0	32684	
3366	0	32644	
3367	0	32544	
3368	0	32452	
3369	0	32512	
3370	0	32624	
3371	0	32796	
3372	0	32948	
3373	0	32908	
3374	0	32864	
3375	0	33044	
3376	0	33204	
3377	0	33300	
3378	0	33380	
3379	0	33268	
3380	0	33204	
3381	0	33228	
3382	0	33272	
3383	0	33356	
3384	0	33340	
3385	0	33340	
3386	0	33408	
3387	0	33488	
3388	0	33440	
3389	0	33410	
3390	0	33344	
3391	0	33264	
3392	0	33304	
3393	0	33402	
3394	0	33532	
3395	0	33684	
3396	0	33712	
3397	0	33626	
3398	0	33592	
3399	0	33748	
3400	0	33916	
3401	0	34160	
3402	0	34402	
3403	0	34720	
3404	0	34928	
3405	0	34996	
3406	0	34868	
3407	0	34792	
3408	0	34840	
3409	0	34992	
3410	0	35354	
3411	0	35696	
3412	0	36072	
3413	0	36192	
3414	0	36324	
3415	0	36464	
3416	0	36480	
3417	0	36212	
3418	0	35704	
3419	0	35280	
3420	0	35124	
3421	0	35060	
3422	0	35004	
3423	0	34984	
3424	0	34970	
3425	0	35252	
3426	0	35552	
3427	0	35592	
3428	0	35470	
3429	0	35424	
3430	0	35412	
3431	0	35472	
3432	0	35488	
3433	0	35376	
3434	0	35256	
3435	0	35032	
3436	0	34736	
3437	0	34362	
3438	0	34080	
3439	0	33856	
3440	0	33580	
3441	0	33064	
3442	0	32554	
3443	0	32228	
3444	0	32040	
3445	0	31952	
3446	0	31820	
3447	0	31620	
3448	0	31476	
3449	0	31372	
3450	0	31192	
3451	0	31044	
3452	0	31068	
3453	0	31098	
3454	0	30960	
3455	0	30892	
3456	0	30828	
3457	0	30650	
3458	0	30426	
3459	0	30344	
3460	0	30416	
3461	0	30396	
3462	0	30268	
3463	0	30386	
3464	0	30484	
3465	0	30472	
3466	0	30592	
3467	0	30764	
3468	0	30712	
3469	0	30600	
3470	0	30590	
3471	0	30624	
3472	0	30708	
3473	0	30770	
3474	0	30824	
3475	0	30752	
3476	0	30664	
3477	0	30548	
3478	0	30520	
3479	0	30528	
3480	0	30580	
3481	0	30532	
3482	0	30604	
3483	0	30596	
3484	0	30528	
3485	0	30532	
3486	0	30680	
3487	0	30762	
3488	0	30792	
3489	0	30664	
3490	0	30456	
3491	0	30470	
3492	0	30544	
3493	0	30656	
3494	0	30740	
3495	0	30780	
3496	0	30814	
3497	0	30812	
3498	0	30704	
3499	0	30524	
3500	0	30356	
3501	0	30128	
3502	0	29564	
3503	0	28548	
3504	0	27472	
3505	0	26280	
3506	0	24952	
3507	0	23626	
3508	0	22512	
3509	0	21658	
3510	0	21032	
3511	0	20460	
3512	0	20230	
3513	0	20308	
3514	0	20720	
3515	0	21344	
3516	0	22104	
3517	0	23100	
3518	0	24600	
3519	0	26496	
3520	0	28716	
3521	0	31104	
3522	0	33868	
3523	0	37192	
3524	0	40768	
3525	0	44388	
3526	0	48180	
3527	0	51996	
3528	0	55784	
3529	0	59104	
3530	0	61872	
3531	0	63448	
3532	0	64248	
3533	0	64640	
3534	0	64788	
3535	0	64812	
3536	0	64760	
3537	0	64672	
3538	0	64560	
3539	0	63000	
3540	0	57764	
3541	0	54004	
3542	0	50756	
3543	0	47424	
3544	0	44280	
3545	0	41664	
3546	0	39412	
3547	0	37224	
3548	0	35020	
3549	0	32884	
3550	0	30836	
3551	0	28896	
3552	0	27240	
3553	0	25860	
3554	0	24880	
3555	0	24300	
3556	0	23852	
3557	0	23360	
3558	0	22772	
3559	0	22240	
3560	0	21892	
3561	0	21804	
3562	0	21666	
3563	0	21628	
3564	0	21924	
3565	0	22560	
3566	0	23318	
3567	0	23936	
3568	0	24552	
3569	0	25036	
3570	0	25352	
3571	0	25612	
3572	0	25900	
3573	0	26328	
3574	0	26768	
3575	0	27250	
3576	0	27580	
3577	0	27820	
3578	0	28224	
3579	0	28592	
3580	0	28928	
3581	0	29136	
3582	0	29212	
3583	0	29268	
3584	0	29316	
3585	0	29500	
3586	0	29580	
3587	0	29572	
3588	0	29614	
3589	0	29584	
3590	0	29512	
3591	0	29636	
3592	0	29852	
3593	0	29888	
3594	0	29800	
3595	0	29744	
3596	0	29760	
3597	0	29836	
3598	0	30052	
3599	0	30264	
3600	0	30320	
3601	0	30316	
3602	0	30280	
3603	0	30220	
3604	0	30192	
3605	0	30256	
3606	0	30344	
3607	0	30348	
3608	0	30300	
3609	0	30328	
3610	0	30392	
3611	0	30464	
3612	0	30548	
3613	0	30640	
3614	0	30672	
3615	0	30680	
3616	0	30692	
3617	0	30752	
3618	0	30848	
3619	0	30862	
3620	0	30800	
3621	0	30904	
3622	0	31012	
3623	0	31008	
3624	0	31016	
3625	0	31140	
3626	0	31312	
3627	0	31284	
3628	0	31244	
3629	0	31256	
3630	0	31312	
3631	0	31296	
3632	0	31192	
3633	0	31152	
3634	0	31164	
3635	0	31192	
3636	0	31280	
3637	0	31404	
3638	0	31516	
3639	0	31596	
3640	0	31660	
3641	0	31792	
3642	0	31888	
3643	0	31968	
3644	0	32028	
3645	0	32058	
3646	0	32136	
3647	0	32188	
3648	0	32216	
3649	0	32228	
3650	0	32178	
3651	0	32168	
3652	0	32224	
3653	0	32240	
3654	0	32220	
3655	0	32200	
3656	0	32184	
3657	0	32192	
3658	0	32260	
3659	0	32288	
3660	0	32240	
3661	0	32128	
3662	0	32060	
3663	0	32112	
3664	0	32224	
3665	0	32336	
3666	0	32472	
3667	0	32484	
3668	0	32424	
3669	0	32494	
3670	0	32604	
3671	0	32732	
3672	0	32704	
3673	0	32736	
3674	0	32756	
3675	0	32772	
3676	0	32716	
3677	0	32644	
3678	0	32600	
3679	0	32622	
3680	0	32724	
3681	0	32760	
3682	0	32688	
3683	0	32754	
3684	0	32920	
3685	0	33022	
3686	0	33056	
3687	0	32960	
3688	0	32896	
3689	0	32804	
3690	0	32764	
3691	0	32860	
3692	0	32832	
3693	0	32804	
3694	0	32860	
3695	0	32996	
3696	0	33088	
3697	0	33144	
3698	0	33156	
3699	0	32994	
3700	0	32784	
3701	0	32748	
3702	0	32752	
3703	0	32786	
3704	0	32794	
3705	0	32808	
3706	0	32824	
3707	0	32836	
3708	0	32888	
3709	0	32916	
3710	0	32956	
3711	0	32917	
3712	0	32832	
3713	0	32832	
3714	0	32868	
3715	0	32860	
3716	0	32824	
3717	0	32780	
3718	0	32808	
3719	0	32908	
3720	0	33008	
3721	0	33024	
3722	0	33120	
3723	0	33150	
3724	0	33120	
3725	0	32944	
3726	0	32978	
3727	0	32970	
3728	0	32872	
3729	0	32848	
3730	0	32888	
3731	0	32912	
3732	0	32896	
3733	0	32892	
3734	0	32872	
3735	0	32892	
3736	0	32904	
3737	0	32976	
3738	0	33032	
3739	0	33038	
3740	0	33072	
3741	0	33092	
3742	0	33096	
3743	0	33112	
3744	0	33048	
3745	0	32944	
3746	0	32944	
3747	0	32988	
3748	0	32952	
3749	0	32972	
3750	0	33012	
3751	0	32958	
3752	0	32952	
3753	0	33032	
3754	0	33116	
3755	0	33180	
3756	0	33240	
3757	0	33312	
3758	0	33266	
3759	0	33178	
3760	0	33176	
3761	0	33216	
3762	0	33252	
3763	0	33216	
3764	0	33146	
3765	0	33080	
3766	0	33228	
3767	0	33300	
3768	0	33312	
3769	0	33284	
3770	0	33242	
3771	0	33244	
3772	0	33152	
3773	0	33116	
3774	0	33072	
3775	0	33020	
3776	0	33004	
3777	0	32956	
3778	0	32896	
3779	0	32784	
3780	0	32702	
3781	0	32656	
3782	0	32634	
3783	0	32612	
3784	0	32596	
3785	0	32508	
3786	0	32448	
3787	0	32452	
3788	0	32488	
3789	0	32520	
3790	0	32544	
3791	0	32536	
3792	0	32448	
3793	0	32516	
3794	0	32628	
3795	0	32656	
3796	0	32594	
3797	0	32552	
3798	0	32504	
3799	0	32468	
3800	0	32408	
3801	0	32368	
3802	0	32292	
3803	0	32160	
3804	0	32052	
3805	0	32048	
3806	0	32084	
3807	0	32070	
3808	0	32096	
3809	0	32092	
3810	0	32036	
3811	0	32140	
3812	0	32148	
3813	0	32152	
3814	0	32120	
3815	0	32080	
3816	0	32060	
3817	0	32068	
3818	0	32124	
3819	0	32176	
3820	0	32192	
3821	0	32144	
3822	0	32064	
3823	0	31992	
3824	0	31864	
3825	0	31776	
3826	0	31852	
3827	0	32012	
3828	0	32040	
3829	0	31978	
3830	0	31948	
3831	0	31912	
3832	0	31816	
3833	0	31808	
3834	0	31824	
3835	0	31792	
3836	0	31708	
3837	0	31718	
3838	0	31732	
3839	0	31784	
3840	0	31880	
3841	0	32032	
3842	0	32108	
3843	0	32144	
3844	0	32252	
3845	0	32272	
3846	0	32272	
3847	0	32248	
3848	0	32232	
3849	0	32174	
3850	0	32036	
3851	0	31864	
3852	0	31792	
3853	0	31768	
3854	0	31680	
3855	0	31596	
3856	0	31600	
3857	0	31668	
3858	0	31732	
3859	0	31808	
3860	0	31952	
3861	0	32108	
3862	0	32240	
3863	0	32388	
3864	0	32444	
3865	0	32444	
3866	0	32448	
3867	0	32450	
3868	0	32468	
3869	0	32438	
3870	0	32392	
3871	0	32364	
3872	0	32288	
3873	0	32202	
3874	0	32168	
3875	0	32170	
3876	0	32160	
3877	0	32216	
3878	0	32296	
3879	0	32344	
3880	0	32384	
3881	0	32420	
3882	0	32464	
3883	0	32524	
3884	0	32590	
3885	0	32608	
3886	0	32640	
3887	0	32728	
3888	0	32768	
3889	0	32856	
3890	0	32948	
3891	0	32994	
3892	0	32976	
3893	0	32952	
3894	0	32944	
3895	0	32956	
3896	0	32944	
3897	0	32832	
3898	0	32736	
3899	0	32742	
3900	0	32800	
3901	0	32820	
3902	0	32904	
3903	0	33024	
3904	0	33116	
3905	0	33144	
3906	0	33184	
3907	0	33316	
3908	0	33364	
3909	0	33340	
3910	0	33252	
3911	0	33168	
3912	0	33092	
3913	0	33044	
3914	0	32988	
3915	0	32964	
3916	0	33020	
3917	0	33096	
3918	0	33116	
3919	0	33102	
3920	0	33120	
3921	0	33182	
3922	0	33228	
3923	0	33284	
3924	0	33336	
3925	0	33392	
3926	0	33456	
3927	0	33496	
3928	0	33568	
3929	0	33648	
3930	0	33692	
3931	0	33688	
3932	0	33676	
3933	0	33664	
3934	0	33588	
3935	0	33504	
3936	0	33432	
3937	0	33424	
3938	0	33390	
3939	0	33416	
3940	0	33500	
3941	0	33532	
3942	0	33456	
3943	0	33448	
3944	0	33554	
3945	0	33624	
3946	0	33560	
3947	0	33576	
3948	0	33588	
3949	0	33586	
3950	0	33612	
3951	0	33656	
3952	0	33664	
3953	0	33568	
3954	0	33436	
3955	0	33352	
3956	0	33232	
3957	0	33100	
3958	0	33008	
3959	0	32928	
3960	0	32888	
3961	0	33032	
3962	0	33216	
3963	0	33152	
3964	0	33112	
3965	0	33152	
3966	0	33088	
3967	0	32940	
3968	0	32844	
3969	0	32768	
3970	0	32776	
3971	0	32816	
3972	0	32960	
3973	0	33152	
3974	0	33196	
3975	0	33128	
3976	0	33140	
3977	0	33172	
3978	0	33200	
3979	0	33248	
3980	0	33264	
3981	0	33184	
3982	0	33040	
3983	0	33060	
3984	0	33068	
3985	0	32864	
3986	0	32716	
3987	0	32748	
3988	0	32768	
3989	0	32728	
3990	0	32612	
3991	0	32436	
3992	0	32370	
3993	0	32376	
3994	0	32392	
3995	0	32388	
3996	0	32408	
3997	0	32468	
3998	0	32424	
3999	0	32452	
4000	0	32604	
4001	0	32684	
4002	0	32616	
4003	0	32540	
4004	0	32496	
4005	0	32498	
4006	0	32428	
4007	0	32332	
4008	0	32332	
4009	0	32360	
4010	0	32340	
4011	0	32308	
4012	0	32272	
4013	0	32276	
4014	0	32360	
4015	0	32464	
4016	0	32468	
4017	0	32352	
4018	0	32304	
4019	0	32268	
4020	0	32240	
4021	0	32312	
4022	0	32360	
4023	0	32368	
4024	0	32344	
4025	0	32304	
4026	0	32288	
4027	0	32252	
4028	0	32044	
4029	0	31876	
4030	0	31864	
4031	0	31940	
4032	0	31980	
4033	0	31974	
4034	0	31944	
4035	0	31908	
4036	0	31920	
4037	0	31938	
4038	0	31964	
4039	0	31952	
4040	0	31924	
4041	0	32021	
4042	0	32068	
4043	0	31972	
4044	0	31914	
4045	0	31980	
4046	0	32148	
4047	0	32224	
4048	0	32220	
4049	0	32240	
4050	0	32284	
4051	0	32390	
4052	0	32456	
4053	0	32476	
4054	0	32480	
4055	0	32448	
4056	0	32424	
4057	0	32504	
4058	0	32728	
4059	0	32864	
4060	0	32968	
4061	0	33056	
4062	0	33056	
4063	0	33020	
4064	0	33080	
4065	0	33224	
4066	0	33250	
4067	0	33236	
4068	0	33264	
4069	0	33156	
4070	0	32980	
4071	0	32856	
4072	0	32840	
4073	0	32840	
4074	0	32796	
4075	0	32704	
4076	0	32632	
4077	0	32504	
4078	0	32412	
4079	0	32484	
4080	0	32632	
4081	0	32812	
4082	0	33014	
4083	0	33224	
4084	0	33464	
4085	0	33760	
4086	0	34048	
4087	0	34380	
4088	0	34704	
4089	0	34972	
4090	0	35228	
4091	0	35416	
4092	0	35392	
4093	0	35388	
4094	0	35428	
4095	0	35448	
4096	0	35488	
4097	0	35560	
4098	0	35626	
4099	0	35644	
4100	0	35636	
4101	0	35548	
4102	0	35316	
4103	0	35172	
4104	0	35070	
4105	0	35048	
4106	0	35140	
4107	0	35112	
4108	0	34992	
4109	0	34956	
4110	0	34888	
4111	0	34768	
4112	0	34680	
4113	0	34544	
4114	0	34380	
4115	0	34216	
4116	0	34108	
4117	0	34024	
4118	0	33888	
4119	0	33692	
4120	0	33428	
4121	0	33058	
4122	0	32602	
4123	0	32300	
4124	0	32168	
4125	0	32120	
4126	0	32000	
4127	0	31872	
4128	0	31824	
4129	0	31728	
4130	0	31552	
4131	0	31296	
4132	0	31072	
4133	0	30976	
4134	0	30948	
4135	0	30808	
4136	0	30652	
4137	0	30512	
4138	0	30440	
4139	0	30424	
4140	0	30456	
4141	0	30528	
4142	0	30624	
4143	0	30712	
4144	0	30760	
4145	0	30800	
4146	0	30770	
4147	0	30650	
4148	0	30586	
4149	0	30596	
4150	0	30620	
4151	0	30648	
4152	0	30784	
4153	0	30910	
4154	0	30936	
4155	0	30880	
4156	0	30892	
4157	0	30916	
4158	0	30894	
4159	0	30904	
4160	0	30956	
4161	0	31008	
4162	0	31084	
4163	0	31112	
4164	0	30976	
4165	0	30992	
4166	0	31012	
4167	0	31036	
4168	0	31012	
4169	0	31012	
4170	0	31040	
4171	0	31092	
4172	0	31138	
4173	0	31200	
4174	0	31288	
4175	0	31440	
4176	0	31594	
4177	0	31572	
4178	0	31404	
4179	0	31208	
4180	0	31048	
4181	0	30764	
4182	0	30326	
4183	0	29508	
4184	0	28404	
4185	0	27258	
4186	0	26016	
4187	0	24714	
4188	0	23606	
4189	0	22792	
4190	0	22220	
4191	0	21774	
4192	0	21648	
4193	0	21816	
4194	0	22112	
4195	0	22946	
4196	0	23988	
4197	0	25144	
4198	0	26664	
4199	0	28616	
4200	0	30828	
4201	0	33280	
4202	0	36160	
4203	0	39208	
4204	0	42328	
4205	0	45680	
4206	0	49320	
4207	0	53080	
4208	0	56820	
4209	0	60356	
4210	0	62832	
4211	0	64120	
4212	0	64792	
4213	0	65080	
4214	0	65180	
4215	0	65164	
4216	0	65108	
4217	0	65008	
4218	0	64704	
4219	0	58426	
4220	0	53600	
4221	0	49968	
4222	0	46576	
4223	0	43104	
4224	0	40138	
4225	0	37972	
4226	0	36444	
4227	0	35000	
4228	0	33384	
4229	0	31700	
4230	0	30072	
4231	0	28404	
4232	0	26708	
4233	0	25256	
4234	0	24084	
4235	0	23006	
4236	0	22204	
4237	0	21760	
4238	0	21446	
4239	0	21092	
4240	0	20764	
4241	0	20624	
4242	0	20608	
4243	0	20744	
4244	0	21038	
4245	0	21344	
4246	0	21746	
4247	0	22160	
4248	0	22624	
4249	0	23140	
4250	0	23630	
4251	0	24148	
4252	0	24682	
4253	0	25184	
4254	0	25640	
4255	0	26072	
4256	0	26596	
4257	0	27188	
4258	0	27752	
4259	0	28352	
4260	0	28840	
4261	0	29108	
4262	0	29566	
4263	0	29844	
4264	0	30048	
4265	0	30232	
4266	0	30376	
4267	0	30620	
4268	0	30784	
4269	0	30892	
4270	0	30952	
4271	0	31040	
4272	0	31200	
4273	0	31348	
4274	0	31456	
4275	0	31404	
4276	0	31280	
4277	0	31276	
4278	0	31428	
4279	0	31608	
4280	0	31768	
4281	0	31860	
4282	0	31936	
4283	0	31956	
4284	0	31912	
4285	0	31944	
4286	0	32068	
4287	0	32128	
4288	0	32172	
4289	0	32192	
4290	0	32282	
4291	0	32380	
4292	0	32420	
4293	0	32348	
4294	0	32304	
4295	0	32280	
4296	0	32232	
4297	0	32100	
4298	0	32008	
4299	0	32036	
4300	0	32128	
4301	0	32204	
4302	0	32276	
4303	0	32336	
4304	0	32496	
4305	0	32640	
4306	0	32728	
4307	0	32752	
4308	0	32622	
4309	0	32576	
4310	0	32832	
4311	0	33018	
4312	0	33112	
4313	0	33056	
4314	0	32904	
4315	0	32784	
4316	0	32740	
4317	0	32796	
4318	0	32908	
4319	0	32972	
4320	0	33072	
4321	0	33040	
4322	0	33012	
4323	0	33036	
4324	0	33064	
4325	0	33096	
4326	0	33216	
4327	0	33320	
4328	0	33276	
4329	0	33276	
4330	0	33332	
4331	0	33396	
4332	0	33436	
4333	0	33452	
4334	0	33492	
4335	0	33492	
4336	0	33532	
4337	0	33580	
4338	0	33576	
4339	0	33564	
4340	0	33604	
4341	0	33652	
4342	0	33642	
4343	0	33672	
4344	0	33724	
4345	0	33728	
4346	0	33728	
4347	0	33762	
4348	0	33808	
4349	0	33856	
4350	0	33888	
4351	0	33932	
4352	0	33928	
4353	0	34004	
4354	0	34068	
4355	0	34116	
4356	0	34176	
4357	0	34192	
4358	0	34224	
4359	0	34216	
4360	0	34208	
4361	0	34216	
4362	0	34260	
4363	0	34296	
4364	0	34264	
4365	0	34188	
4366	0	34176	
4367	0	34160	
4368	0	34192	
4369	0	34184	
4370	0	34148	
4371	0	34216	
4372	0	34252	
4373	0	34244	
4374	0	34228	
4375	0	34272	
4376	0	34412	
4377	0	34480	
4378	0	34456	
4379	0	34400	
4380	0	34360	
4381	0	34396	
4382	0	34504	
4383	0	34544	
4384	0	34584	
4385	0	34592	
4386	0	34564	
4387	0	34572	
4388	0	34588	
4389	0	34592	
4390	0	34528	
4391	0	34448	
4392	0	34416	
4393	0	34432	
4394	0	34420	
4395	0	34368	
4396	0	34352	
4397	0	34372	
4398	0	34428	
4399	0	34424	
4400	0	34380	
4401	0	34316	
4402	0	34268	
4403	0	34262	
4404	0	34416	
4405	0	34500	
4406	0	34444	
4407	0	34360	
4408	0	34376	
4409	0	34356	
4410	0	34252	
4411	0	34268	
4412	0	34288	
4413	0	34232	
4414	0	34160	
4415	0	34192	
4416	0	34268	
4417	0	34328	
4418	0	34388	
4419	0	34424	
4420	0	34444	
4421	0	34408	
4422	0	34308	
4423	0	34296	
4424	0	34304	
4425	0	34394	
4426	0	34572	
4427	0	34572	
4428	0	34496	
4429	0	34388	
4430	0	34264	
4431	0	34204	
4432	0	34196	
4433	0	34204	
4434	0	34200	
4435	0	34154	
4436	0	34096	
4437	0	34034	
4438	0	33980	
4439	0	33984	
4440	0	33932	
4441	0	33872	
4442	0	33916	
4443	0	33888	
4444	0	33912	
4445	0	33930	
4446	0	33896	
4447	0	33880	
4448	0	33904	
4449	0	33888	
4450	0	33860	
4451	0	33798	
4452	0	33704	
4453	0	33596	
4454	0	33552	
4455	0	33552	
4456	0	33516	
4457	0	33472	
4458	0	33452	
4459	0	33388	
4460	0	33344	
4461	0	33352	
4462	0	33328	
4463	0	33264	
4464	0	33140	
4465	0	33048	
4466	0	32884	
4467	0	32776	
4468	0	32696	
4469	0	32672	
4470	0	32664	
4471	0	32690	
4472	0	32660	
4473	0	32596	
4474	0	32456	
4475	0	32490	
4476	0	32548	
4477	0	32528	
4478	0	32464	
4479	0	32424	
4480	0	32436	
4481	0	32524	
4482	0	32504	
4483	0	32496	
4484	0	32464	
4485	0	32288	
4486	0	32084	
4487	0	32000	
4488	0	31986	
4489	0	32016	
4490	0	31972	
4491	0	32004	
4492	0	32068	
4493	0	32060	
4494	0	31968	
4495	0	31952	
4496	0	31936	
4497	0	31904	
4498	0	31952	
4499	0	31968	
4500	0	31941	
4501	0	31912	
4502	0	31852	
4503	0	31856	
4504	0	31872	
4505	0	31864	
4506	0	31876	
4507	0	31864	
4508	0	31832	
4509	0	31808	
4510	0	31736	
4511	0	31678	
4512	0	31628	
4513	0	31624	
4514	0	31636	
4515	0	31704	
4516	0	31752	
4517	0	31748	
4518	0	31704	
4519	0	31666	
4520	0	31632	
4521	0	31620	
4522	0	31608	
4523	0	31688	
4524	0	31800	
4525	0	31848	
4526	0	31816	
4527	0	31792	
4528	0	31728	
4529	0	31668	
4530	0	31724	
4531	0	31808	
4532	0	31712	
4533	0	31610	
4534	0	31648	
4535	0	31668	
4536	0	31608	
4537	0	31560	
4538	0	31550	
4539	0	31628	
4540	0	31756	
4541	0	31832	
4542	0	31804	
4543	0	31784	
4544	0	31696	
4545	0	31724	
4546	0	31800	
4547	0	31904	
4548	0	31952	
4549	0	31952	
4550	0	31892	
4551	0	31876	
4552	0	31852	
4553	0	31796	
4554	0	31840	
4555	0	31876	
4556	0	31948	
4557	0	32062	
4558	0	32160	
4559	0	32146	
4560	0	32176	
4561	0	32204	
4562	0	32220	
4563	0	32240	
4564	0	32248	
4565	0	32306	
4566	0	32376	
4567	0	32396	
4568	0	32352	
4569	0	32320	
4570	0	32344	
4571	0	32444	
4572	0	32492	
4573	0	32494	
4574	0	32480	
4575	0	32516	
4576	0	32584	
4577	0	32620	
4578	0	32624	
4579	0	32620	
4580	0	32696	
4581	0	32768	
4582	0	32816	
4583	0	32820	
4584	0	32824	
4585	0	32856	
4586	0	32896	
4587	0	33020	
4588	0	33208	
4589	0	33424	
4590	0	33632	
4591	0	33780	
4592	0	33772	
4593	0	33736	
4594	0	33732	
4595	0	33704	
4596	0	33676	
4597	0	33716	
4598	0	33776	
4599	0	33900	
4600	0	34132	
4601	0	34328	
4602	0	34420	
4603	0	34376	
4604	0	34268	
4605	0	34118	
4606	0	33928	
4607	0	33716	
4608	0	33436	
4609	0	33204	
4610	0	33032	
4611	0	32948	
4612	0	32896	
4613	0	32844	
4614	0	32768	
4615	0	32680	
4616	0	32570	
4617	0	32436	
4618	0	32264	
4619	0	32220	
4620	0	32240	
4621	0	32312	
4622	0	32408	
4623	0	32516	
4624	0	32620	
4625	0	32680	
4626	0	32680	
4627	0	32632	
4628	0	32652	
4629	0	32666	
4630	0	32632	
4631	0	32652	
4632	0	32652	
4633	0	32564	
4634	0	32512	
4635	0	32552	
4636	0	32568	
4637	0	32528	
4638	0	32492	
4639	0	32512	
4640	0	32524	
4641	0	32552	
4642	0	32552	
4643	0	32576	
4644	0	32632	
4645	0	32672	
4646	0	32672	
4647	0	32688	
4648	0	32668	
4649	0	32632	
4650	0	32584	
4651	0	32532	
4652	0	32476	
4653	0	32400	
4654	0	32280	
4655	0	32288	
4656	0	32372	
4657	0	32456	
4658	0	32480	
4659	0	32528	
4660	0	32568	
4661	0	32560	
4662	0	32560	
4663	0	32588	
4664	0	32592	
4665	0	32518	
4666	0	32456	
4667	0	32432	
4668	0	32448	
4669	0	32480	
4670	0	32500	
4671	0	32540	
4672	0	32564	
4673	0	32476	
4674	0	32408	
4675	0	32424	
4676	0	32430	
4677	0	32346	
4678	0	32264	
4679	0	32264	
4680	0	32196	
4681	0	32144	
4682	0	32168	
4683	0	32136	
4684	0	32096	
4685	0	32120	
4686	0	32146	
4687	0	32154	
4688	0	32218	
4689	0	32280	
4690	0	32344	
4691	0	32428	
4692	0	32468	
4693	0	32596	
4694	0	32724	
4695	0	32936	
4696	0	33044	
4697	0	33128	
4698	0	33244	
4699	0	33252	
4700	0	33192	
4701	0	33104	
4702	0	33016	
4703	0	32920	
4704	0	32864	
4705	0	32848	
4706	0	32884	
4707	0	32908	
4708	0	32896	
4709	0	32972	
4710	0	33074	
4711	0	33168	
4712	0	33216	
4713	0	33280	
4714	0	33260	
4715	0	33160	
4716	0	33208	
4717	0	33296	
4718	0	33476	
4719	0	33696	
4720	0	33928	
4721	0	34148	
4722	0	34468	
4723	0	34720	
4724	0	35012	
4725	0	35384	
4726	0	35528	
4727	0	35646	
4728	0	35720	
4729	0	35768	
4730	0	35820	
4731	0	35816	
4732	0	35752	
4733	0	35792	
4734	0	35900	
4735	0	35964	
4736	0	36008	
4737	0	35968	
4738	0	35904	
4739	0	35776	
4740	0	35704	
4741	0	35648	
4742	0	35520	
4743	0	35456	
4744	0	35296	
4745	0	35212	
4746	0	35296	
4747	0	35400	
4748	0	35392	
4749	0	35264	
4750	0	35132	
4751	0	35124	
4752	0	35196	
4753	0	35040	
4754	0	34760	
4755	0	34434	
4756	0	34156	
4757	0	33808	
4758	0	33456	
4759	0	33214	
4760	0	32956	
4761	0	32636	
4762	0	32224	
4763	0	31890	
4764	0	31488	
4765	0	31088	
4766	0	30812	
4767	0	30720	
4768	0	30804	
4769	0	31018	
4770	0	31172	
4771	0	31104	
4772	0	31004	
4773	0	30980	
4774	0	30788	
4775	0	30688	
4776	0	30588	
4777	0	30568	
4778	0	30644	
4779	0	30704	
4780	0	30668	
4781	0	30784	
4782	0	30752	
4783	0	30440	
4784	0	30248	
4785	0	30164	
4786	0	30190	
4787	0	30484	
4788	0	30700	
4789	0	30764	
4790	0	30832	
4791	0	30992	
4792	0	31264	
4793	0	31432	
4794	0	31544	
4795	0	31516	
4796	0	31424	
4797	0	31328	
4798	0	31204	
4799	0	31246	
4800	0	31308	
4801	0	31356	
4802	0	31348	
4803	0	31234	
4804	0	31168	
4805	0	31040	
4806	0	30960	
4807	0	30984	
4808	0	31114	
4809	0	31272	
4810	0	31504	
4811	0	31648	
4812	0	31728	
4813	0	31876	
4814	0	31980	
4815	0	31904	
4816	0	31620	
4817	0	31344	
4818	0	31116	
4819	0	30828	
4820	0	30426	
4821	0	29800	
4822	0	28816	
4823	0	27564	
4824	0	26236	
4825	0	24924	
4826	0	23716	
4827	0	22624	
4828	0	21656	
4829	0	20952	
4830	0	20548	
4831	0	20386	
4832	0	20404	
4833	0	20598	
4834	0	21084	
4835	0	21688	
4836	0	22596	
4837	0	24036	
4838	0	25873	
4839	0	28076	
4840	0	30464	
4841	0	33252	
4842	0	36544	
4843	0	40108	
4844	0	43932	
4845	0	47956	
4846	0	52288	
4847	0	56560	
4848	0	60236	
4849	0	62612	
4850	0	63888	
4851	0	64504	
4852	0	64784	
4853	0	64880	
4854	0	64864	
4855	0	64816	
4856	0	64716	
4857	0	64604	
4858	0	64480	
4859	0	62540	
4860	0	57712	
4861	0	54064	
4862	0	50596	
4863	0	47236	
4864	0	44260	
4865	0	41636	
4866	0	39312	
4867	0	37028	
4868	0	34820	
4869	0	32720	
4870	0	30960	
4871	0	29320	
4872	0	27800	
4873	0	26568	
4874	0	25624	
4875	0	24804	
4876	0	23944	
4877	0	23036	
4878	0	22284	
4879	0	21884	
4880	0	21748	
4881	0	21672	
4882	0	21724	
4883	0	21984	
4884	0	22402	
4885	0	22828	
4886	0	23212	
4887	0	23668	
4888	0	24104	
4889	0	24524	
4890	0	24916	
4891	0	25310	
4892	0	25730	
4893	0	26124	
4894	0	26572	
4895	0	26956	
4896	0	27360	
4897	0	27744	
4898	0	28068	
4899	0	28344	
4900	0	28588	
4901	0	28840	
4902	0	28984	
4903	0	29098	
4904	0	29166	
4905	0	29212	
4906	0	29296	
4907	0	29360	
4908	0	29378	
4909	0	29380	
4910	0	29376	
4911	0	29388	
4912	0	29420	
4913	0	29476	
4914	0	29540	
4915	0	29614	
4916	0	29640	
4917	0	29648	
4918	0	29644	
4919	0	29636	
4920	0	29684	
4921	0	29748	
4922	0	29788	
4923	0	29864	
4924	0	30012	
4925	0	30144	
4926	0	30252	
4927	0	30304	
4928	0	30320	
4929	0	30326	
4930	0	30360	
4931	0	30400	
4932	0	30388	
4933	0	30348	
4934	0	30288	
4935	0	30304	
4936	0	30390	
4937	0	30464	
4938	0	30532	
4939	0	30560	
4940	0	30612	
4941	0	30656	
4942	0	30698	
4943	0	30780	
4944	0	30816	
4945	0	30780	
4946	0	30766	
4947	0	30764	
4948	0	30788	
4949	0	30796	
4950	0	30860	
4951	0	30924	
4952	0	30984	
4953	0	31032	
4954	0	31100	
4955	0	31216	
4956	0	31324	
4957	0	31396	
4958	0	31440	
4959	0	31480	
4960	0	31468	
4961	0	31388	
4962	0	31348	
4963	0	31320	
4964	0	31320	
4965	0	31310	
4966	0	31424	
4967	0	31508	
4968	0	31554	
4969	0	31588	
4970	0	31576	
4971	0	31580	
4972	0	31616	
4973	0	31674	
4974	0	31712	
4975	0	31708	
4976	0	31720	
4977	0	31832	
4978	0	31992	
4979	0	32116	
4980	0	32124	
4981	0	32136	
4982	0	32108	
4983	0	32118	
4984	0	32100	
4985	0	32108	
4986	0	32092	
4987	0	32072	
4988	0	32072	
4989	0	32068	
4990	0	32096	
4991	0	32152	
4992	0	32244	
4993	0	32256	
4994	0	32196	
4995	0	32168	
4996	0	32244	
4997	0	32336	
4998	0	32346	
4999	0	32394	
5000	0	32474	
5001	0	32552	
5002	0	32504	
5003	0	32480	
5004	0	32552	
5005	0	32632	
5006	0	32608	
5007	0	32544	
5008	0	32588	
5009	0	32608	
5010	0	32556	
5011	0	32576	
5012	0	32628	
5013	0	32674	
5014	0	32688	
5015	0	32668	
5016	0	32634	
5017	0	32652	
5018	0	32698	
5019	0	32684	
5020	0	32704	
5021	0	32828	
5022	0	32908	
5023	0	32908	
5024	0	32820	
5025	0	32728	
5026	0	32624	
5027	0	32668	
5028	0	32788	
5029	0	32816	
5030	0	32848	
5031	0	32888	
5032	0	32876	
5033	0	32824	
5034	0	32836	
5035	0	32848	
5036	0	32800	
5037	0	32636	
5038	0	32444	
5039	0	32388	
5040	0	32424	
5041	0	32424	
5042	0	32456	
5043	0	32480	
5044	0	32500	
5045	0	32528	
5046	0	32584	
5047	0	32576	
5048	0	32632	
5049	0	32746	
5050	0	32700	
5051	0	32628	
5052	0	32596	
5053	0	32634	
5054	0	32712	
5055	0	32792	
5056	0	32784	
5057	0	32684	
5058	0	32592	
5059	0	32632	
5060	0	32704	
5061	0	32536	
5062	0	32328	
5063	0	32236	
5064	0	32392	
5065	0	32588	
5066	0	32650	
5067	0	32704	
5068	0	32794	
5069	0	32820	
5070	0	32820	
5071	0	32780	
5072	0	32632	
5073	0	32784	
5074	0	33061	
5075	0	33200	
5076	0	33216	
5077	0	33232	
5078	0	33348	
5079	0	33348	
5080	0	33156	
5081	0	32952	
5082	0	32984	
5083	0	33056	
5084	0	33084	
5085	0	33064	
5086	0	32968	
5087	0	32852	
5088	0	32804	
5089	0	32836	
5090	0	32904	
5091	0	32968	
5092	0	32980	
5093	0	32928	
5094	0	32874	
5095	0	32824	
5096	0	32704	
5097	0	32644	
5098	0	32688	
5099	0	32688	
5100	0	32704	
5101	0	32672	
5102	0	32548	
5103	0	32520	
5104	0	32440	
5105	0	32384	
5106	0	32468	
5107	0	32592	
5108	0	32572	
5109	0	32424	
5110	0	32424	
5111	0	32452	
5112	0	32372	
5113	0	32224	
5114	0	32136	
5115	0	32096	
5116	0	32068	
5117	0	32032	
5118	0	31960	
5119	0	31960	
5120	0	32184	
5121	0	32348	
5122	0	32304	
5123	0	32160	
5124	0	32012	
5125	0	31992	
5126	0	31920	
5127	0	31980	
5128	0	32020	
5129	0	31954	
5130	0	31824	
5131	0	31816	
5132	0	31884	
5133	0	31928	
5134	0	31924	
5135	0	31888	
5136	0	31856	
5137	0	31912	
5138	0	31928	
5139	0	31906	
5140	0	31896	
5141	0	31976	
5142	0	31956	
5143	0	31992	
5144	0	32012	
5145	0	31980	
5146	0	31964	
5147	0	31980	
5148	0	32048	
5149	0	32156	
5150	0	32240	
5151	0	32256	
5152	0	32218	
5153	0	32108	
5154	0	31992	
5155	0	31992	
5156	0	32000	
5157	0	31980	
5158	0	32000	
5159	0	32064	
5160	0	32080	
5161	0	32072	
5162	0	32072	
5163	0	31964	
5164	0	31906	
5165	0	31904	
5166	0	32008	
5167	0	32064	
5168	0	31996	
5169	0	31896	
5170	0	31872	
5171	0	31900	
5172	0	31920	
5173	0	31916	
5174	0	31904	
5175	0	31884	
5176	0	31872	
5177	0	31864	
5178	0	31908	
5179	0	32008	
5180	0	32076	
5181	0	32100	
5182	0	32112	
5183	0	32112	
5184	0	32064	
5185	0	31976	
5186	0	31936	
5187	0	31940	
5188	0	31924	
5189	0	31824	
5190	0	31756	
5191	0	31792	
5192	0	31876	
5193	0	31944	
5194	0	31968	
5195	0	31932	
5196	0	31940	
5197	0	31952	
5198	0	32016	
5199	0	32042	
5200	0	32116	
5201	0	32172	
5202	0	32180	
5203	0	32180	
5204	0	32196	
5205	0	32280	
5206	0	32374	
5207	0	32344	
5208	0	32300	
5209	0	32288	
5210	0	32352	
5211	0	32384	
5212	0	32412	
5213	0	32448	
5214	0	32544	
5215	0	32648	
5216	0	32744	
5217	0	32784	
5218	0	32808	
5219	0	32712	
5220	0	32728	
5221	0	32812	
5222	0	32868	
5223	0	32940	
5224	0	32980	
5225	0	32932	
5226	0	32968	
5227	0	33024	
5228	0	33026	
5229	0	33008	
5230	0	33034	
5231	0	33058	
5232	0	33036	
5233	0	33020	
5234	0	33032	
5235	0	33008	
5236	0	33032	
5237	0	33108	
5238	0	33176	
5239	0	33188	
5240	0	33152	
5241	0	33136	
5242	0	33140	
5243	0	33184	
5244	0	33172	
5245	0	33212	
5246	0	33216	
5247	0	33176	
5248	0	33084	
5249	0	33141	
5250	0	33264	
5251	0	33256	
5252	0	33280	
5253	0	33284	
5254	0	33280	
5255	0	33236	
5256	0	33180	
5257	0	33212	
5258	0	33248	
5259	0	33264	
5260	0	33268	
5261	0	33352	
5262	0	33416	
5263	0	33380	
5264	0	33352	
5265	0	33328	
5266	0	33296	
5267	0	33268	
5268	0	33304	
5269	0	33264	
5270	0	33224	
5271	0	33218	
5272	0	33188	
5273	0	33108	
5274	0	33112	
5275	0	33256	
5276	0	33336	
5277	0	33332	
5278	0	33284	
5279	0	33204	
5280	0	33120	
5281	0	33140	
5282	0	33164	
5283	0	33164	
5284	0	33132	
5285	0	33148	
5286	0	33132	
5287	0	33102	
5288	0	33136	
5289	0	33180	
5290	0	33180	
5291	0	33100	
5292	0	33028	
5293	0	33032	
5294	0	33008	
5295	0	32980	
5296	0	33044	
5297	0	33072	
5298	0	33092	
5299	0	33148	
5300	0	33216	
5301	0	33224	
5302	0	33184	
5303	0	33152	
5304	0	33176	
5305	0	33258	
5306	0	33336	
5307	0	33304	
5308	0	33228	
5309	0	33108	
5310	0	33104	
5311	0	33076	
5312	0	33088	
5313	0	33144	
5314	0	33200	
5315	0	33208	
5316	0	33264	
5317	0	33322	
5318	0	33328	
5319	0	33312	
5320	0	33392	
5321	0	33480	
5322	0	33456	
5323	0	33428	
5324	0	33476	
5325	0	33548	
5326	0	33600	
5327	0	33720	
5328	0	33856	
5329	0	33964	
5330	0	34024	
5331	0	34152	
5332	0	34276	
5333	0	34292	
5334	0	34168	
5335	0	33956	
5336	0	33940	
5337	0	33960	
5338	0	34040	
5339	0	34020	
5340	0	33912	
5341	0	33836	
5342	0	33816	
5343	0	33844	
5344	0	33920	
5345	0	34064	
5346	0	34104	
5347	0	34036	
5348	0	34048	
5349	0	34112	
5350	0	34256	
5351	0	34472	
5352	0	34732	
5353	0	34984	
5354	0	35260	
5355	0	35560	
5356	0	35840	
5357	0	36050	
5358	0	36240	
5359	0	36340	
5360	0	36384	
5361	0	36340	
5362	0	36316	
5363	0	36280	
5364	0	36312	
5365	0	36292	
5366	0	36264	
5367	0	36196	
5368	0	36124	
5369	0	36048	
5370	0	35916	
5371	0	35788	
5372	0	35708	
5373	0	35684	
5374	0	35784	
5375	0	35890	
5376	0	35904	
5377	0	35810	
5378	0	35736	
5379	0	35666	
5380	0	35636	
5381	0	35592	
5382	0	35528	
5383	0	35420	
5384	0	35300	
5385	0	35216	
5386	0	35076	
5387	0	34834	
5388	0	34480	
5389	0	34044	
5390	0	33516	
5391	0	32968	
5392	0	32432	
5393	0	32052	
5394	0	31792	
5395	0	31598	
5396	0	31464	
5397	0	31328	
5398	0	31258	
5399	0	31208	
5400	0	31172	
5401	0	31096	
5402	0	31064	
5403	0	31044	
5404	0	31064	
5405	0	31004	
5406	0	30888	
5407	0	30732	
5408	0	30598	
5409	0	30624	
5410	0	30584	
5411	0	30432	
5412	0	30376	
5413	0	30368	
5414	0	30496	
5415	0	30592	
5416	0	30592	
5417	0	30712	
5418	0	30808	
5419	0	30874	
5420	0	30976	
5421	0	31064	
5422	0	31052	
5423	0	30804	
5424	0	30616	
5425	0	30650	
5426	0	30692	
5427	0	30772	
5428	0	30932	
5429	0	31032	
5430	0	30996	
5431	0	30852	
5432	0	30704	
5433	0	30560	
5434	0	30496	
5435	0	30400	
5436	0	30388	
5437	0	30538	
5438	0	30544	
5439	0	30460	
5440	0	30386	
5441	0	30484	
5442	0	30540	
5443	0	30600	
5444	0	30712	
5445	0	30804	
5446	0	30716	
5447	0	30584	
5448	0	30528	
5449	0	30500	
5450	0	30336	
5451	0	29992	
5452	0	29456	
5453	0	28608	
5454	0	27420	
5455	0	26076	
5456	0	24652	
5457	0	23232	
5458	0	21934	
5459	0	20868	
5460	0	20032	
5461	0	19424	
5462	0	19028	
5463	0	19004	
5464	0	19244	
5465	0	19684	
5466	0	20216	
5467	0	20916	
5468	0	22050	
5469	0	23852	
5470	0	26132	
5471	0	28568	
5472	0	31400	
5473	0	34776	
5474	0	38572	
5475	0	42604	
5476	0	46684	
5477	0	51024	
5478	0	55252	
5479	0	59076	
5480	0	62156	
5481	0	63840	
5482	0	64708	
5483	0	65116	
5484	0	65272	
5485	0	65304	
5486	0	65264	
5487	0	65168	
5488	0	65056	
5489	0	64948	
5490	0	64824	
5491	0	60188	
5492	0	56600	
5493	0	53236	
5494	0	49672	
5495	0	46224	
5496	0	43284	
5497	0	40756	
5498	0	38228	
5499	0	35712	
5500	0	33418	
5501	0	31576	
5502	0	29994	
5503	0	28652	
5504	0	27464	
5505	0	26460	
5506	0	25572	
5507	0	24744	
5508	0	23928	
5509	0	23136	
5510	0	22616	
5511	0	22292	
5512	0	22142	
5513	0	22088	
5514	0	22094	
5515	0	22309	
5516	0	22656	
5517	0	23012	
5518	0	23328	
5519	0	23680	
5520	0	24086	
5521	0	24424	
5522	0	24856	
5523	0	25352	
5524	0	25742	
5525	0	26064	
5526	0	26388	
5527	0	26748	
5528	0	27068	
5529	0	27372	
5530	0	27656	
5531	0	27832	
5532	0	28000	
5533	0	28132	
5534	0	28232	
5535	0	28224	
5536	0	28252	
5537	0	28216	
5538	0	28248	
5539	0	28312	
5540	0	28404	
5541	0	28488	
5542	0	28496	
5543	0	28504	
5544	0	28470	
5545	0	28490	
5546	0	28632	
5547	0	28712	
5548	0	28772	
5549	0	28852	
5550	0	28904	
5551	0	28944	
5552	0	29012	
5553	0	29140	
5554	0	29216	
5555	0	29260	
5556	0	29346	
5557	0	29440	
5558	0	29496	
5559	0	29520	
5560	0	29596	
5561	0	29674	
5562	0	29716	
5563	0	29812	
5564	0	29936	
5565	0	29992	
5566	0	30056	
5567	0	30176	
5568	0	30240	
5569	0	30304	
5570	0	30360	
5571	0	30430	
5572	0	30524	
5573	0	30548	
5574	0	30540	
5575	0	30552	
5576	0	30616	
5577	0	30668	
5578	0	30672	
5579	0	30612	
5580	0	30612	
5581	0	30596	
5582	0	30628	
5583	0	30732	
5584	0	30856	
5585	0	30936	
5586	0	31004	
5587	0	31112	
5588	0	31248	
5589	0	31340	
5590	0	31428	
5591	0	31508	
5592	0	31552	
5593	0	31624	
5594	0	31700	
5595	0	31788	
5596	0	31816	
5597	0	31796	
5598	0	31772	
5599	0	31778	
5600	0	31784	
5601	0	31844	
5602	0	31932	
5603	0	31944	
5604	0	31976	
5605	0	32144	
5606	0	32272	
5607	0	32328	
5608	0	32252	
5609	0	32220	
5610	0	32204	
5611	0	32242	
5612	0	32400	
5613	0	32426	
5614	0	32536	
5615	0	32624	
5616	0	32660	
5617	0	32688	
5618	0	32688	
5619	0	32640	
5620	0	32572	
5621	0	32604	
5622	0	32648	
5623	0	32624	
5624	0	32616	
5625	0	32644	
5626	0	32620	
5627	0	32612	
5628	0	32638	
5629	0	32640	
5630	0	32668	
5631	0	32712	
5632	0	32704	
5633	0	32748	
5634	0	32784	
5635	0	32780	
5636	0	32784	
5637	0	32804	
5638	0	32828	
5639	0	32866	
5640	0	32864	
5641	0	32892	
5642	0	32984	
5643	0	33092	
5644	0	33092	
5645	0	33168	
5646	0	33244	
5647	0	33304	
5648	0	33272	
5649	0	33192	
5650	0	33156	
5651	0	33148	
5652	0	33148	
5653	0	33148	
5654	0	33108	
5655	0	33096	
5656	0	33104	
5657	0	33080	
5658	0	33072	
5659	0	33032	
5660	0	32984	
5661	0	32924	
5662	0	32852	
5663	0	32836	
5664	0	32832	
5665	0	32814	
5666	0	32704	
5667	0	32648	
5668	0	32624	
5669	0	32604	
5670	0	32588	
5671	0	32644	
5672	0	32704	
5673	0	32760	
5674	0	32792	
5675	0	32736	
5676	0	32656	
5677	0	32592	
5678	0	32504	
5679	0	32460	
5680	0	32508	
5681	0	32576	
5682	0	32616	
5683	0	32656	
5684	0	32676	
5685	0	32656	
5686	0	32624	
5687	0	32578	
5688	0	32476	
5689	0	32458	
5690	0	32480	
5691	0	32492	
5692	0	32488	
5693	0	32494	
5694	0	32480	
5695	0	32432	
5696	0	32388	
5697	0	32436	
5698	0	32474	
5699	0	32528	
5700	0	32512	
5701	0	32492	
5702	0	32452	
5703	0	32452	
5704	0	32472	
5705	0	32496	
5706	0	32572	
5707	0	32648	
5708	0	32760	
5709	0	32832	
5710	0	32856	
5711	0	32856	
5712	0	32856	
5713	0	32892	
5714	0	32932	
5715	0	32968	
5716	0	33004	
5717	0	33064	
5718	0	33088	
5719	0	33084	
5720	0	33132	
5721	0	33208	
5722	0	33196	
5723	0	33084	
5724	0	33028	
5725	0	33004	
5726	0	32980	
5727	0	32972	
5728	0	32980	
5729	0	33004	
5730	0	33008	
5731	0	32936	
5732	0	32780	
5733	0	32730	
5734	0	32716	
5735	0	32680	
5736	0	32656	
5737	0	32628	
5738	0	32624	
5739	0	32660	
5740	0	32624	
5741	0	32608	
5742	0	32616	
5743	0	32616	
5744	0	32616	
5745	0	32620	
5746	0	32664	
5747	0	32724	
5748	0	32756	
5749	0	32668	
5750	0	32576	
5751	0	32470	
5752	0	32392	
5753	0	32408	
5754	0	32460	
5755	0	32508	
5756	0	32544	
5757	0	32568	
5758	0	32584	
5759	0	32656	
5760	0	32688	
5761	0	32696	
5762	0	32704	
5763	0	32728	
5764	0	32766	
5765	0	32804	
5766	0	32848	
5767	0	32868	
5768	0	32836	
5769	0	32732	
5770	0	32668	
5771	0	32596	
5772	0	32518	
5773	0	32532	
5774	0	32584	
5775	0	32712	
5776	0	32872	
5777	0	33042	
5778	0	33116	
5779	0	33084	
5780	0	33056	
5781	0	33004	
5782	0	32928	
5783	0	32916	
5784	0	32948	
5785	0	32894	
5786	0	32812	
5787	0	32768	
5788	0	32812	
5789	0	32848	
5790	0	32812	
5791	0	32770	
5792	0	32900	
5793	0	32974	
5794	0	33056	
5795	0	33208	
5796	0	33264	
5797	0	33280	
5798	0	33380	
5799	0	33442	
5800	0	33388	
5801	0	33324	
5802	0	33208	
5803	0	33132	
5804	0	33128	
5805	0	33152	
5806	0	33192	
5807	0	33212	
5808	0	33192	
5809	0	33076	
5810	0	32864	
5811	0	32696	
5812	0	32648	
5813	0	32600	
5814	0	32616	
5815	0	32674	
5816	0	32692	
5817	0	32664	
5818	0	32680	
5819	0	32720	
5820	0	32768	
5821	0	32836	
5822	0	32818	
5823	0	32840	
5824	0	32932	
5825	0	33088	
5826	0	33108	
5827	0	33124	
5828	0	33160	
5829	0	33132	
5830	0	33098	
5831	0	33056	
5832	0	33048	
5833	0	32980	
5834	0	32960	
5835	0	32928	
5836	0	32960	
5837	0	33024	
5838	0	33068	
5839	0	33076	
5840	0	33080	
5841	0	33112	
5842	0	33120	
5843	0	33036	
5844	0	32992	
5845	0	32992	
5846	0	32996	
5847	0	32944	
5848	0	32892	
5849	0	32944	
5850	0	33012	
5851	0	33096	
5852	0	33224	
5853	0	33320	
5854	0	33424	
5855	0	33544	
5856	0	33744	
5857	0	33936	
5858	0	33984	
5859	0	33952	
5860	0	33920	
5861	0	33928	
5862	0	33904	
5863	0	33850	
5864	0	33800	
5865	0	33728	
5866	0	33748	
5867	0	33780	
5868	0	33792	
5869	0	33772	
5870	0	33848	
5871	0	33988	
5872	0	34112	
5873	0	34216	
5874	0	34224	
5875	0	34164	
5876	0	34088	
5877	0	34064	
5878	0	34120	
5879	0	34136	
5880	0	34056	
5881	0	33992	
5882	0	33972	
5883	0	33960	
5884	0	33976	
5885	0	34056	
5886	0	34120	
5887	0	34144	
5888	0	34140	
5889	0	34104	
5890	0	34008	
5891	0	33884	
5892	0	33832	
5893	0	33864	
5894	0	33992	
5895	0	34076	
5896	0	34112	
5897	0	34104	
5898	0	34104	
5899	0	34092	
5900	0	34080	
5901	0	34084	
5902	0	34104	
5903	0	34176	
5904	0	34142	
5905	0	34124	
5906	0	34236	
5907	0	34404	
5908	0	34488	
5909	0	34592	
5910	0	34704	
5911	0	34712	
5912	0	34580	
5913	0	34432	
5914	0	34256	
5915	0	34132	
5916	0	34012	
5917	0	33936	
5918	0	33908	
5919	0	33916	
5920	0	33912	
5921	0	33884	
5922	0	33812	
5923	0	33808	
5924	0	33776	
5925	0	33760	
5926	0	33804	
5927	0	33870	
5928	0	33952	
5929	0	34038	
5930	0	34112	
5931	0	34116	
5932	0	34144	
5933	0	34200	
5934	0	34228	
5935	0	34208	
5936	0	34124	
5937	0	34080	
5938	0	34052	
5939	0	33900	
5940	0	33644	
5941	0	33476	
5942	0	33352	
5943	0	33274	
5944	0	33164	
5945	0	33248	
5946	0	33380	
5947	0	33472	
5948	0	33466	
5949	0	33452	
5950	0	33472	
5951	0	33476	
5952	0	33474	
5953	0	33456	
5954	0	33468	
5955	0	33536	
5956	0	33584	
5957	0	33640	
5958	0	33716	
5959	0	33728	
5960	0	33740	
5961	0	33788	
5962	0	33848	
5963	0	33912	
5964	0	34016	
5965	0	34096	
5966	0	34168	
5967	0	34212	
5968	0	34168	
5969	0	34092	
5970	0	33952	
5971	0	33756	
5972	0	33624	
5973	0	33546	
5974	0	33524	
5975	0	33516	
5976	0	33538	
5977	0	33624	
5978	0	33692	
5979	0	33696	
5980	0	33700	
5981	0	33792	
5982	0	33928	
5983	0	34132	
5984	0	34380	
5985	0	34640	
5986	0	34964	
5987	0	35332	
5988	0	35664	
5989	0	35888	
5990	0	36068	
5991	0	36244	
5992	0	36352	
5993	0	36384	
5994	0	36348	
5995	0	36340	
5996	0	36340	
5997	0	36368	
5998	0	36400	
5999	0	36428	
6000	0	36448	
6001	0	36416	
6002	0	36352	
6003	0	36292	
6004	0	36212	
6005	0	36160	
6006	0	36100	
6007	0	36056	
6008	0	35976	
6009	0	35872	
6010	0	35764	
6011	0	35724	
6012	0	35744	
6013	0	35712	
6014	0	35612	
6015	0	35532	
6016	0	35428	
6017	0	35264	
6018	0	35060	
6019	0	34840	
6020	0	34608	
6021	0	34384	
6022	0	34144	
6023	0	33802	
6024	0	33322	
6025	0	32916	
6026	0	32588	
6027	0	32428	
6028	0	32360	
6029	0	32176	
6030	0	31992	
6031	0	31868	
6032	0	31744	
6033	0	31680	
6034	0	31604	
6035	0	31556	
6036	0	31480	
6037	0	31420	
6038	0	31352	
6039	0	31264	
6040	0	31176	
6041	0	31092	
6042	0	31052	
6043	0	31092	
6044	0	31100	
6045	0	31040	
6046	0	31024	
6047	0	30988	
6048	0	31020	
6049	0	31080	
6050	0	31152	
6051	0	31200	
6052	0	31184	
6053	0	31164	
6054	0	31192	
6055	0	31200	
6056	0	31200	
6057	0	31214	
6058	0	31176	
6059	0	31088	
6060	0	31136	
6061	0	31212	
6062	0	31280	
6063	0	31348	
6064	0	31408	
6065	0	31432	
6066	0	31492	
6067	0	31564	
6068	0	31596	
6069	0	31536	
6070	0	31480	
6071	0	31496	
6072	0	31566	
6073	0	31624	
6074	0	31664	
6075	0	31724	
6076	0	31800	
6077	0	31840	
6078	0	31808	
6079	0	31708	
6080	0	31564	
6081	0	31424	
6082	0	31320	
6083	0	31064	
6084	0	30508	
6085	0	29724	
6086	0	28720	
6087	0	27600	
6088	0	26440	
6089	0	25168	
6090	0	24016	
6091	0	23132	
6092	0	22490	
6093	0	21936	
6094	0	21432	
6095	0	21244	
6096	0	21444	
6097	0	21808	
6098	0	22364	
6099	0	23280	
6100	0	24700	
6101	0	26560	
6102	0	28690	
6103	0	31136	
6104	0	33948	
6105	0	37028	
6106	0	40112	
6107	0	43496	
6108	0	47136	
6109	0	51176	
6110	0	55320	
6111	0	59280	
6112	0	62000	
6113	0	63440	
6114	0	64184	
6115	0	64512	
6116	0	64636	
6117	0	64648	
6118	0	64600	
6119	0	64504	
6120	0	64404	
6121	0	64288	
6122	0	57968	
6123	0	51808	
6124	0	47036	
6125	0	42908	
6126	0	38952	
6127	0	35740	
6128	0	33448	
6129	0	32040	
6130	0	30984	
6131	0	30072	
6132	0	29088	
6133	0	28008	
6134	0	26740	
6135	0	25336	
6136	0	24176	
6137	0	23202	
6138	0	22420	
6139	0	21808	
6140	0	21384	
6141	0	21024	
6142	0	20680	
6143	0	20312	
6144	0	20138	
6145	0	20188	
6146	0	20516	
6147	0	20976	
6148	0	21384	
6149	0	21592	
6150	0	21796	
6151	0	22088	
6152	0	22420	
6153	0	22784	
6154	0	23200	
6155	0	23736	
6156	0	24132	
6157	0	24640	
6158	0	25156	
6159	0	25748	
6160	0	26360	
6161	0	26996	
6162	0	27696	
6163	0	28352	
6164	0	29020	
6165	0	29502	
6166	0	29836	
6167	0	30204	
6168	0	30508	
6169	0	30724	
6170	0	30940	
6171	0	31060	
6172	0	31096	
6173	0	31132	
6174	0	31188	
6175	0	31272	
6176	0	31308	
6177	0	31344	
6178	0	31412	
6179	0	31464	
6180	0	31508	
6181	0	31544	
6182	0	31588	
6183	0	31646	
6184	0	31700	
6185	0	31800	
6186	0	31898	
6187	0	31968	
6188	0	32032	
6189	0	32072	
6190	0	32132	
6191	0	32196	
6192	0	32200	
6193	0	32228	
6194	0	32268	
6195	0	32312	
6196	0	32360	
6197	0	32408	
6198	0	32464	
6199	0	32500	
6200	0	32520	
6201	0	32576	
6202	0	32636	
6203	0	32724	
6204	0	32800	
6205	0	32834	
6206	0	32844	
6207	0	32884	
6208	0	32912	
6209	0	32960	
6210	0	33000	
6211	0	33032	
6212	0	32994	
6213	0	32992	
6214	0	33056	
6215	0	33098	
6216	0	33146	
6217	0	33164	
6218	0	33204	
6219	0	33224	
6220	0	33232	
6221	0	33244	
6222	0	33284	
6223	0	33372	
6224	0	33456	
6225	0	33484	
6226	0	33476	
6227	0	33468	
6228	0	33484	
6229	0	33520	
6230	0	33584	
6231	0	33624	
6232	0	33648	
6233	0	33676	
6234	0	33692	
6235	0	33692	
6236	0	33704	
6237	0	33742	
6238	0	33760	
6239	0	33760	
6240	0	33768	
6241	0	33852	
6242	0	33964	
6243	0	34132	
6244	0	34224	
6245	0	34232	
6246	0	34176	
6247	0	34064	
6248	0	33972	
6249	0	33928	
6250	0	33940	
6251	0	33968	
6252	0	33988	
6253	0	33976	
6254	0	34000	
6255	0	34090	
6256	0	34164	
6257	0	34204	
6258	0	34236	
6259	0	34216	
6260	0	34200	
6261	0	34236	
6262	0	34256	
6263	0	34252	
6264	0	34252	
6265	0	34276	
6266	0	34288	
6267	0	34272	
6268	0	34256	
6269	0	34264	
6270	0	34252	
6271	0	34212	
6272	0	34232	
6273	0	34280	
6274	0	34320	
6275	0	34308	
6276	0	34304	
6277	0	34308	
6278	0	34388	
6279	0	34444	
6280	0	34476	
6281	0	34480	
6282	0	34428	
6283	0	34396	
6284	0	34444	
6285	0	34452	
6286	0	34418	
6287	0	34348	
6288	0	34320	
6289	0	34268	
6290	0	34252	
6291	0	34262	
6292	0	34316	
6293	0	34316	
6294	0	34324	
6295	0	34332	
6296	0	34316	
6297	0	34296	
6298	0	34304	
6299	0	34272	
6300	0	34300	
6301	0	34304	
6302	0	34280	
6303	0	34268	
6304	0	34236	
6305	0	34228	
6306	0	34240	
6307	0	34212	
6308	0	34132	
6309	0	34000	
6310	0	33928	
6311	0	33872	
6312	0	33840	
6313	0	33844	
6314	0	33918	
6315	0	33944	
6316	0	33933	
6317	0	33902	
6318	0	33888	
6319	0	33960	
6320	0	34048	
6321	0	34100	
6322	0	34080	
6323	0	34004	
6324	0	33912	
6325	0	33868	
6326	0	33816	
6327	0	33768	
6328	0	33680	
6329	0	33668	
6330	0	33720	
6331	0	33772	
6332	0	33816	
6333	0	33792	
6334	0	33736	
6335	0	33688	
6336	0	33664	
6337	0	33628	
6338	0	33644	
6339	0	33708	
6340	0	33856	
6341	0	33890	
6342	0	33852	
6343	0	33800	
6344	0	33840	
6345	0	33828	
6346	0	33796	
6347	0	33716	
6348	0	33612	
6349	0	33520	
6350	0	33464	
6351	0	33412	
6352	0	33372	
6353	0	33336	
6354	0	33272	
6355	0	33184	
6356	0	33084	
6357	0	33036	
6358	0	33058	
6359	0	33084	
6360	0	33030	
6361	0	32960	
6362	0	32936	
6363	0	32954	
6364	0	32968	
6365	0	32956	
6366	0	32852	
6367	0	32732	
6368	0	32664	
6369	0	32638	
6370	0	32578	
6371	0	32492	
6372	0	32452	
6373	0	32424	
6374	0	32354	
6375	0	32284	
6376	0	32224	
6377	0	32160	
6378	0	32116	
6379	0	32088	
6380	0	32100	
6381	0	32104	
6382	0	32074	
6383	0	32068	
6384	0	32080	
6385	0	32120	
6386	0	32136	
6387	0	32160	
6388	0	32128	
6389	0	32096	
6390	0	32052	
6391	0	32052	
6392	0	32052	
6393	0	32040	
6394	0	31996	
6395	0	31992	
6396	0	31976	
6397	0	31936	
6398	0	31944	
6399	0	31956	
6400	0	31932	
6401	0	31916	
6402	0	31880	
6403	0	31872	
6404	0	31872	
6405	0	31876	
6406	0	31850	
6407	0	31808	
6408	0	31800	
6409	0	31804	
6410	0	31852	
6411	0	31930	
6412	0	31984	
6413	0	31972	
6414	0	31916	
6415	0	31896	
6416	0	31904	
6417	0	31936	
6418	0	31960	
6419	0	31952	
6420	0	31948	
6421	0	31932	
6422	0	31924	
6423	0	31930	
6424	0	31932	
6425	0	31936	
6426	0	31912	
6427	0	31876	
6428	0	31840	
6429	0	31784	
6430	0	31748	
6431	0	31764	
6432	0	31824	
6433	0	31848	
6434	0	31836	
6435	0	31820	
6436	0	31770	
6437	0	31700	
6438	0	31672	
6439	0	31740	
6440	0	31856	
6441	0	31976	
6442	0	32024	
6443	0	32016	
6444	0	32004	
6445	0	31984	
6446	0	31976	
6447	0	32016	
6448	0	32044	
6449	0	32068	
6450	0	32064	
6451	0	32080	
6452	0	32064	
6453	0	32044	
6454	0	32032	
6455	0	32036	
6456	0	32048	
6457	0	32052	
6458	0	32012	
6459	0	32012	
6460	0	32084	
6461	0	32140	
6462	0	32112	
6463	0	32076	
6464	0	32072	
6465	0	32112	
6466	0	32184	
6467	0	32220	
6468	0	32224	
6469	0	32248	
6470	0	32300	
6471	0	32324	
6472	0	32352	
6473	0	32356	
6474	0	32360	
6475	0	32376	
6476	0	32428	
6477	0	32456	
6478	0	32468	
6479	0	32520	
6480	0	32548	
6481	0	32606	
6482	0	32668	
6483	0	32720	
6484	0	32732	
6485	0	32724	
6486	0	32724	
6487	0	32746	
6488	0	32776	
6489	0	32776	
6490	0	32736	
6491	0	32704	
6492	0	32720	
6493	0	32776	
6494	0	32832	
6495	0	32840	
6496	0	32880	
6497	0	32936	
6498	0	32940	
6499	0	32960	
6500	0	32968	
6501	0	32976	
6502	0	33016	
6503	0	33004	
6504	0	33020	
6505	0	33064	
6506	0	33144	
6507	0	33208	
6508	0	33228	
6509	0	33228	
6510	0	33204	
6511	0	33216	
6512	0	33248	
6513	0	33284	
6514	0	33288	
6515	0	33272	
6516	0	33268	
6517	0	33296	
6518	0	33296	
6519	0	33292	
6520	0	33268	
6521	0	33252	
6522	0	33252	
6523	0	33288	
6524	0	33312	
6525	0	33312	
6526	0	33332	
6527	0	33352	
6528	0	33372	
6529	0	33348	
6530	0	33364	
6531	0	33380	
6532	0	33404	
6533	0	33392	
6534	0	33384	
6535	0	33364	
6536	0	33340	
6537	0	33308	
6538	0	33268	
6539	0	33228	
6540	0	33228	
6541	0	33242	
6542	0	33228	
6543	0	33248	
6544	0	33256	
6545	0	33284	
6546	0	33292	
6547	0	33248	
6548	0	33224	
6549	0	33204	
6550	0	33188	
6551	0	33136	
6552	0	33128	
6553	0	33148	
6554	0	33112	
6555	0	33076	
6556	0	33064	
6557	0	33036	
6558	0	33052	
6559	0	33064	
6560	0	33080	
6561	0	33160	
6562	0	33244	
6563	0	33276	
6564	0	33312	
6565	0	33332	
6566	0	33356	
6567	0	33392	
6568	0	33452	
6569	0	33548	
6570	0	33644	
6571	0	33680	
6572	0	33748	
6573	0	33840	
6574	0	33908	
6575	0	33968	
6576	0	34016	
6577	0	34034	
6578	0	34004	
6579	0	33976	
6580	0	33940	
6581	0	33912	
6582	0	33896	
6583	0	33876	
6584	0	33868	
6585	0	33896	
6586	0	33940	
6587	0	33962	
6588	0	33976	
6589	0	34040	
6590	0	34188	
6591	0	34340	
6592	0	34504	
6593	0	34708	
6594	0	34940	
6595	0	35220	
6596	0	35528	
6597	0	35788	
6598	0	36000	
6599	0	36184	
6600	0	36320	
6601	0	36432	
6602	0	36496	
6603	0	36504	
6604	0	36492	
6605	0	36476	
6606	0	36480	
6607	0	36516	
6608	0	36524	
6609	0	36492	
6610	0	36394	
6611	0	36212	
6612	0	36056	
6613	0	35980	
6614	0	35936	
6615	0	35908	
6616	0	35936	
6617	0	35976	
6618	0	35928	
6619	0	35876	
6620	0	35824	
6621	0	35684	
6622	0	35546	
6623	0	35444	
6624	0	35360	
6625	0	35266	
6626	0	35162	
6627	0	35064	
6628	0	34908	
6629	0	34668	
6630	0	34408	
6631	0	34080	
6632	0	33710	
6633	0	33332	
6634	0	32940	
6635	0	32576	
6636	0	32208	
6637	0	31920	
6638	0	31712	
6639	0	31552	
6640	0	31488	
6641	0	31456	
6642	0	31448	
6643	0	31412	
6644	0	31320	
6645	0	31192	
6646	0	31032	
6647	0	30868	
6648	0	30720	
6649	0	30588	
6650	0	30496	
6651	0	30460	
6652	0	30432	
6653	0	30424	
6654	0	30436	
6655	0	30464	
6656	0	30508	
6657	0	30536	
6658	0	30556	
6659	0	30568	
6660	0	30540	
6661	0	30516	
6662	0	30556	
6663	0	30608	
6664	0	30666	
6665	0	30688	
6666	0	30676	
6667	0	30668	
6668	0	30692	
6669	0	30684	
6670	0	30660	
6671	0	30660	
6672	0	30664	
6673	0	30664	
6674	0	30686	
6675	0	30668	
6676	0	30642	
6677	0	30604	
6678	0	30592	
6679	0	30576	
6680	0	30594	
6681	0	30664	
6682	0	30704	
6683	0	30724	
6684	0	30724	
6685	0	30728	
6686	0	30700	
6687	0	30696	
6688	0	30672	
6689	0	30624	
6690	0	30512	
6691	0	30328	
6692	0	30068	
6693	0	29736	
6694	0	29152	
6695	0	28256	
6696	0	27140	
6697	0	25920	
6698	0	24672	
6699	0	23428	
6700	0	22280	
6701	0	21344	
6702	0	20668	
6703	0	20148	
6704	0	19832	
6705	0	19788	
6706	0	20060	
6707	0	20512	
6708	0	21112	
6709	0	22008	
6710	0	23434	
6711	0	25324	
6712	0	27624	
6713	0	30216	
6714	0	33212	
6715	0	36592	
6716	0	40216	
6717	0	44236	
6718	0	48460	
6719	0	52928	
6720	0	57268	
6721	0	60704	
6722	0	62624	
6723	0	63616	
6724	0	64112	
6725	0	64318	
6726	0	64380	
6727	0	64344	
6728	0	64276	
6729	0	64176	
6730	0	64064	
6731	0	63956	
6732	0	61700	
6733	0	56040	
6734	0	51712	
6735	0	47940	
6736	0	44156	
6737	0	40748	
6738	0	37960	
6739	0	35680	
6740	0	33520	
6741	0	31264	
6742	0	29232	
6743	0	27522	
6744	0	26120	
6745	0	24892	
6746	0	23800	
6747	0	22958	
6748	0	22200	
6749	0	21412	
6750	0	20660	
6751	0	20180	
6752	0	20000	
6753	0	20068	
6754	0	20184	
6755	0	20250	
6756	0	20472	
6757	0	20756	
6758	0	21076	
6759	0	21440	
6760	0	21880	
6761	0	22392	
6762	0	22872	
6763	0	23330	
6764	0	23822	
6765	0	24381	
6766	0	25000	
6767	0	25652	
6768	0	26280	
6769	0	26880	
6770	0	27416	
6771	0	27816	
6772	0	28100	
6773	0	28344	
6774	0	28576	
6775	0	28768	
6776	0	28928	
6777	0	29016	
6778	0	29068	
6779	0	29130	
6780	0	29228	
6781	0	29320	
6782	0	29376	
6783	0	29396	
6784	0	29424	
6785	0	29448	
6786	0	29520	
6787	0	29600	
6788	0	29672	
6789	0	29704	
6790	0	29722	
6791	0	29764	
6792	0	29840	
6793	0	29948	
6794	0	30052	
6795	0	30128	
6796	0	30192	
6797	0	30248	
6798	0	30334	
6799	0	30376	
6800	0	30432	
6801	0	30476	
6802	0	30472	
6803	0	30508	
6804	0	30560	
6805	0	30562	
6806	0	30560	
6807	0	30572	
6808	0	30608	
6809	0	30698	
6810	0	30828	
6811	0	30928	
6812	0	30948	
6813	0	30936	
6814	0	30928	
6815	0	30968	
6816	0	31048	
6817	0	31146	
6818	0	31200	
6819	0	31244	
6820	0	31310	
6821	0	31380	
6822	0	31392	
6823	0	31432	
6824	0	31452	
6825	0	31496	
6826	0	31508	
6827	0	31542	
6828	0	31604	
6829	0	31632	
6830	0	31644	
6831	0	31696	
6832	0	31728	
6833	0	31744	
6834	0	31772	
6835	0	31824	
6836	0	31860	
6837	0	31864	
6838	0	31868	
6839	0	31864	
6840	0	31888	
6841	0	31944	
6842	0	32028	
6843	0	32120	
6844	0	32180	
6845	0	32224	
6846	0	32244	
6847	0	32264	
6848	0	32288	
6849	0	32280	
6850	0	32280	
6851	0	32272	
6852	0	32316	
6853	0	32360	
6854	0	32372	
6855	0	32396	
6856	0	32444	
6857	0	32436	
6858	0	32452	
6859	0	32488	
6860	0	32508	
6861	0	32520	
6862	0	32508	
6863	0	32528	
6864	0	32564	
6865	0	32604	
6866	0	32632	
6867	0	32644	
6868	0	32632	
6869	0	32636	
6870	0	32624	
6871	0	32620	
6872	0	32656	
6873	0	32708	
6874	0	32716	
6875	0	32704	
6876	0	32720	
6877	0	32728	
6878	0	32728	
6879	0	32766	
6880	0	32784	
6881	0	32788	
6882	0	32784	
6883	0	32752	
6884	0	32764	
6885	0	32820	
6886	0	32832	
6887	0	32836	
6888	0	32864	
6889	0	32868	
6890	0	32872	
6891	0	32884	
6892	0	32864	
6893	0	32820	
6894	0	32792	
6895	0	32788	
6896	0	32816	
6897	0	32850	
6898	0	32824	
6899	0	32780	
6900	0	32756	
6901	0	32748	
6902	0	32750	
6903	0	32764	
6904	0	32766	
6905	0	32752	
6906	0	32748	
6907	0	32764	
6908	0	32764	
6909	0	32754	
6910	0	32768	
6911	0	32760	
6912	0	32716	
6913	0	32674	
6914	0	32610	
6915	0	32576	
6916	0	32596	
6917	0	32616	
6918	0	32644	
6919	0	32680	
6920	0	32712	
6921	0	32728	
6922	0	32720	
6923	0	32724	
6924	0	32688	
6925	0	32644	
6926	0	32608	
6927	0	32588	
6928	0	32568	
6929	0	32564	
6930	0	32524	
6931	0	32500	
6932	0	32492	
6933	0	32496	
6934	0	32540	
6935	0	32568	
6936	0	32572	
6937	0	32592	
6938	0	32620	
6939	0	32632	
6940	0	32640	
6941	0	32628	
6942	0	32644	
6943	0	32652	
6944	0	32656	
6945	0	32684	
6946	0	32712	
6947	0	32760	
6948	0	32816	
6949	0	32864	
6950	0	32920	
6951	0	32948	
6952	0	32964	
6953	0	32972	
6954	0	32960	
6955	0	32928	
6956	0	32884	
6957	0	32860	
6958	0	32864	
6959	0	32884	
6960	0	32832	
6961	0	32764	
6962	0	32712	
6963	0	32656	
6964	0	32584	
6965	0	32544	
6966	0	32520	
6967	0	32488	
6968	0	32436	
6969	0	32396	
6970	0	32368	
6971	0	32356	
6972	0	32320	
6973	0	32328	
6974	0	32348	
6975	0	32344	
6976	0	32336	
6977	0	32308	
6978	0	32272	
6979	0	32236	
6980	0	32224	
6981	0	32216	
6982	0	32184	
6983	0	32174	
6984	0	32164	
6985	0	32128	
6986	0	32104	
6987	0	32120	
6988	0	32092	
6989	0	32072	
6990	0	32048	
6991	0	32064	
6992	0	32050	
6993	0	32018	
6994	0	32004	
6995	0	32000	
6996	0	31976	
6997	0	31960	
6998	0	31982	
6999	0	31940	
7000	0	31948	
7001	0	31936	
7002	0	31912	
7003	0	31872	
7004	0	31840	
7005	0	31828	
7006	0	31840	
7007	0	31868	
7008	0	31902	
7009	0	31928	
7010	0	31928	
7011	0	31892	
7012	0	31880	
7013	0	31882	
7014	0	31882	
7015	0	31888	
7016	0	31904	
7017	0	31940	
7018	0	32000	
7019	0	32020	
7020	0	32016	
7021	0	32008	
7022	0	32008	
7023	0	32012	
7024	0	31964	
7025	0	31916	
7026	0	31908	
7027	0	31924	
7028	0	31924	
7029	0	31928	
7030	0	31936	
7031	0	31960	
7032	0	31964	
7033	0	31964	
7034	0	31972	
7035	0	32000	
7036	0	32028	
7037	0	32040	
7038	0	32028	
7039	0	32016	
7040	0	32040	
7041	0	32080	
7042	0	32100	
7043	0	32088	
7044	0	32012	
7045	0	31944	
7046	0	31936	
7047	0	31968	
7048	0	32000	
7049	0	32020	
7050	0	32068	
7051	0	32108	
7052	0	32128	
7053	0	32092	
7054	0	32024	
7055	0	31980	
7056	0	31952	
7057	0	31908	
7058	0	31904	
7059	0	31912	
7060	0	31932	
7061	0	31972	
7062	0	32005	
7063	0	32052	
7064	0	32056	
7065	0	32068	
7066	0	32096	
7067	0	32128	
7068	0	32126	
7069	0	32136	
7070	0	32106	
7071	0	32130	
7072	0	32136	
7073	0	32168	
7074	0	32228	
7075	0	32246	
7076	0	32220	
7077	0	32224	
7078	0	32256	
7079	0	32264	
7080	0	32256	
7081	0	32280	
7082	0	32296	
7083	0	32332	
7084	0	32338	
7085	0	32372	
7086	0	32392	
7087	0	32392	
7088	0	32372	
7089	0	32380	
7090	0	32376	
7091	0	32401	
7092	0	32432	
7093	0	32448	
7094	0	32520	
7095	0	32545	
7096	0	32520	
7097	0	32544	
7098	0	32560	
7099	0	32612	
7100	0	32644	
7101	0	32688	
7102	0	32704	
7103	0	32696	
7104	0	32668	
7105	0	32632	
7106	0	32608	
7107	0	32672	
7108	0	32764	
7109	0	32792	
7110	0	32788	
7111	0	32736	
7112	0	32740	
7113	0	32740	
7114	0	32788	
7115	0	32796	
7116	0	32816	
7117	0	32856	
7118	0	32940	
7119	0	33000	
7120	0	33024	
7121	0	33024	
7122	0	33040	
7123	0	33024	
7124	0	33008	
7125	0	33044	
7126	0	33080	
7127	0	33084	
7128	0	33100	
7129	0	33096	
7130	0	33092	
7131	0	33096	
7132	0	33084	
7133	0	33056	
7134	0	33116	
7135	0	33156	
7136	0	33196	
7137	0	33244	
7138	0	33292	
7139	0	33348	
7140	0	33328	
7141	0	33280	
7142	0	33232	
7143	0	33184	
7144	0	33212	
7145	0	33280	
7146	0	33344	
7147	0	33352	
7148	0	33320	
7149	0	33277	
7150	0	33264	
7151	0	33268	
7152	0	33276	
7153	0	33276	
7154	0	33276	
7155	0	33232	
7156	0	33160	
7157	0	33096	
7158	0	33096	
7159	0	33164	
7160	0	33244	
7161	0	33272	
7162	0	33248	
7163	0	33196	
7164	0	33140	
7165	0	33088	
7166	0	33004	
7167	0	32928	
7168	0	32860	
7169	0	32840	
7170	0	32892	
7171	0	32920	
7172	0	32944	
7173	0	32964	
7174	0	32992	
7175	0	33108	
7176	0	33120	
7177	0	33152	
7178	0	33162	
7179	0	33144	
7180	0	33156	
7181	0	33160	
7182	0	33104	
7183	0	33056	
7184	0	33080	
7185	0	33096	
7186	0	33140	
7187	0	33200	
7188	0	33288	
7189	0	33388	
7190	0	33488	
7191	0	33624	
7192	0	33760	
7193	0	33808	
7194	0	33872	
7195	0	33940	
7196	0	34000	
7197	0	33988	
7198	0	33952	
7199	0	33880	
7200	0	33876	
7201	0	33900	
7202	0	33942	
7203	0	34016	
7204	0	34104	
7205	0	34164	
7206	0	34186	
7207	0	34176	
7208	0	34120	
7209	0	34106	
7210	0	34200	
7211	0	34468	
7212	0	34814	
7213	0	34976	
7214	0	35128	
7215	0	35336	
7216	0	35548	
7217	0	35712	
7218	0	35876	
7219	0	35992	
7220	0	36092	
7221	0	36192	
7222	0	36280	
7223	0	36352	
7224	0	36412	
7225	0	36416	
7226	0	36452	
7227	0	36500	
7228	0	36544	
7229	0	36488	
7230	0	36372	
7231	0	36206	
7232	0	36076	
7233	0	35972	
7234	0	35912	
7235	0	35932	
7236	0	35962	
7237	0	35912	
7238	0	35808	
7239	0	35704	
7240	0	35572	
7241	0	35436	
7242	0	35312	
7243	0	35184	
7244	0	35104	
7245	0	35016	
7246	0	34852	
7247	0	34712	
7248	0	34488	
7249	0	34176	
7250	0	33856	
7251	0	33482	
7252	0	33112	
7253	0	32760	
7254	0	32496	
7255	0	32248	
7256	0	32016	
7257	0	31824	
7258	0	31700	
7259	0	31612	
7260	0	31588	
7261	0	31552	
7262	0	31524	
7263	0	31456	
7264	0	31304	
7265	0	31104	
7266	0	30932	
7267	0	30788	
7268	0	30664	
7269	0	30528	
7270	0	30444	
7271	0	30392	
7272	0	30376	
7273	0	30442	
7274	0	30448	
7275	0	30424	
7276	0	30372	
7277	0	30324	
7278	0	30332	
7279	0	30386	
7280	0	30500	
7281	0	30584	
7282	0	30584	
7283	0	30584	
7284	0	30616	
7285	0	30660	
7286	0	30712	
7287	0	30700	
7288	0	30660	
7289	0	30656	
7290	0	30652	
7291	0	30660	
7292	0	30656	
7293	0	30660	
7294	0	30672	
7295	0	30674	
7296	0	30728	
7297	0	30772	
7298	0	30760	
7299	0	30764	
7300	0	30772	
7301	0	30770	
7302	0	30792	
7303	0	30794	
7304	0	30784	
7305	0	30812	
7306	0	30888	
7307	0	30888	
7308	0	30828	
7309	0	30756	
7310	0	30592	
7311	0	30284	
7312	0	29872	
7313	0	29180	
7314	0	28220	
7315	0	27080	
7316	0	25856	
7317	0	24580	
7318	0	23336	
7319	0	22218	
7320	0	21364	
7321	0	20768	
7322	0	20312	
7323	0	20112	
7324	0	20169	
7325	0	20508	
7326	0	20954	
7327	0	21504	
7328	0	22476	
7329	0	24052	
7330	0	26120	
7331	0	28600	
7332	0	31336	
7333	0	34568	
7334	0	38152	
7335	0	42012	
7336	0	46252	
7337	0	50656	
7338	0	55280	
7339	0	59496	
7340	0	62304	
7341	0	63792	
7342	0	64560	
7343	0	64920	
7344	0	65044	
7345	0	65052	
7346	0	64992	
7347	0	64900	
7348	0	64800	
7349	0	64688	
7350	0	64556	
7351	0	61136	
7352	0	55824	
7353	0	51848	
7354	0	48040	
7355	0	43968	
7356	0	40136	
7357	0	37064	
7358	0	34448	
7359	0	31796	
7360	0	29412	
7361	0	27572	
7362	0	26190	
7363	0	25080	
7364	0	24088	
7365	0	23200	
7366	0	22432	
7367	0	21748	
7368	0	21024	
7369	0	20480	
7370	0	20248	
7371	0	20238	
7372	0	20418	
7373	0	20516	
7374	0	20568	
7375	0	20672	
7376	0	20954	
7377	0	21284	
7378	0	21697	
7379	0	22170	
7380	0	22594	
7381	0	22996	
7382	0	23388	
7383	0	23892	
7384	0	24520	
7385	0	25164	
7386	0	25756	
7387	0	26246	
7388	0	26712	
7389	0	27180	
7390	0	27532	
7391	0	27840	
7392	0	28130	
7393	0	28284	
7394	0	28436	
7395	0	28540	
7396	0	28608	
7397	0	28708	
7398	0	28736	
7399	0	28752	
7400	0	28768	
7401	0	28820	
7402	0	28916	
7403	0	29016	
7404	0	29116	
7405	0	29248	
7406	0	29384	
7407	0	29488	
7408	0	29558	
7409	0	29600	
7410	0	29720	
7411	0	29760	
7412	0	29768	
7413	0	29780	
7414	0	29806	
7415	0	29868	
7416	0	29908	
7417	0	29973	
7418	0	30044	
7419	0	30108	
7420	0	30152	
7421	0	30240	
7422	0	30328	
7423	0	30396	
7424	0	30420	
7425	0	30416	
7426	0	30458	
7427	0	30472	
7428	0	30464	
7429	0	30496	
7430	0	30540	
7431	0	30576	
7432	0	30600	
7433	0	30688	
7434	0	30814	
7435	0	30890	
7436	0	30968	
7437	0	30994	
7438	0	30976	
7439	0	30986	
7440	0	31056	
7441	0	31160	
7442	0	31218	
7443	0	31216	
7444	0	31200	
7445	0	31196	
7446	0	31244	
7447	0	31280	
7448	0	31316	
7449	0	31382	
7450	0	31440	
7451	0	31544	
7452	0	31652	
7453	0	31696	
7454	0	31720	
7455	0	31712	
7456	0	31732	
7457	0	31764	
7458	0	31770	
7459	0	31796	
7460	0	31860	
7461	0	31912	
7462	0	31896	
7463	0	31868	
7464	0	31920	
7465	0	32024	
7466	0	32156	
7467	0	32220	
7468	0	32298	
7469	0	32348	
7470	0	32360	
7471	0	32324	
7472	0	32288	
7473	0	32248	
7474	0	32228	
7475	0	32224	
7476	0	32234	
7477	0	32284	
7478	0	32308	
7479	0	32332	
7480	0	32388	
7481	0	32448	
7482	0	32484	
7483	0	32536	
7484	0	32584	
7485	0	32604	
7486	0	32584	
7487	0	32584	
7488	0	32592	
7489	0	32640	
7490	0	32700	
7491	0	32736	
7492	0	32752	
7493	0	32744	
7494	0	32760	
7495	0	32816	
7496	0	32832	
7497	0	32864	
7498	0	32904	
7499	0	32964	
7500	0	32980	
7501	0	32960	
7502	0	32900	
7503	0	32848	
7504	0	32824	
7505	0	32832	
7506	0	32848	
7507	0	32892	
7508	0	32904	
7509	0	32956	
7510	0	33012	
7511	0	33068	
7512	0	33116	
7513	0	33166	
7514	0	33172	
7515	0	33124	
7516	0	33100	
7517	0	33026	
7518	0	32936	
7519	0	32880	
7520	0	32880	
7521	0	32924	
7522	0	32964	
7523	0	33008	
7524	0	33064	
7525	0	33136	
7526	0	33112	
7527	0	33028	
7528	0	32980	
7529	0	32900	
7530	0	32840	
7531	0	32840	
7532	0	32872	
7533	0	32876	
7534	0	32868	
7535	0	32826	
7536	0	32784	
7537	0	32788	
7538	0	32808	
7539	0	32780	
7540	0	32760	
7541	0	32708	
7542	0	32648	
7543	0	32620	
7544	0	32616	
7545	0	32584	
7546	0	32576	
7547	0	32552	
7548	0	32508	
7549	0	32496	
7550	0	32480	
7551	0	32480	
7552	0	32472	
7553	0	32436	
7554	0	32408	
7555	0	32404	
7556	0	32450	
7557	0	32468	
7558	0	32504	
7559	0	32544	
7560	0	32616	
7561	0	32704	
7562	0	32760	
7563	0	32804	
7564	0	32892	
7565	0	32960	
7566	0	32968	
7567	0	32936	
7568	0	32936	
7569	0	32960	
7570	0	32972	
7571	0	32984	
7572	0	32996	
7573	0	33004	
7574	0	32992	
7575	0	32996	
7576	0	32970	
7577	0	32968	
7578	0	32984	
7579	0	32968	
7580	0	32936	
7581	0	32964	
7582	0	32956	
7583	0	32948	
7584	0	32932	
7585	0	32900	
7586	0	32864	
7587	0	32832	
7588	0	32760	
7589	0	32752	
7590	0	32732	
7591	0	32708	
7592	0	32602	
7593	0	32542	
7594	0	32480	
7595	0	32434	
7596	0	32396	
7597	0	32396	
7598	0	32360	
7599	0	32340	
7600	0	32292	
7601	0	32248	
7602	0	32194	
7603	0	32120	
7604	0	32040	
7605	0	31968	
7606	0	31880	
7607	0	31800	
7608	0	31760	
7609	0	31744	
7610	0	31716	
7611	0	31708	
7612	0	31722	
7613	0	31688	
7614	0	31604	
7615	0	31568	
7616	0	31516	
7617	0	31520	
7618	0	31500	
7619	0	31512	
7620	0	31536	
7621	0	31546	
7622	0	31528	
7623	0	31484	
7624	0	31472	
7625	0	31468	
7626	0	31476	
7627	0	31466	
7628	0	31448	
7629	0	31468	
7630	0	31456	
7631	0	31408	
7632	0	31376	
7633	0	31356	
7634	0	31360	
7635	0	31336	
7636	0	31320	
7637	0	31356	
7638	0	31400	
7639	0	31408	
7640	0	31412	
7641	0	31408	
7642	0	31368	
7643	0	31344	
7644	0	31328	
7645	0	31324	
7646	0	31364	
7647	0	31384	
7648	0	31424	
7649	0	31448	
7650	0	31452	
7651	0	31504	
7652	0	31572	
7653	0	31608	
7654	0	31624	
7655	0	31680	
7656	0	31708	
7657	0	31652	
7658	0	31576	
7659	0	31560	
7660	0	31576	
7661	0	31540	
7662	0	31464	
7663	0	31444	
7664	0	31460	
7665	0	31492	
7666	0	31482	
7667	0	31488	
7668	0	31484	
7669	0	31564	
7670	0	31640	
7671	0	31712	
7672	0	31772	
7673	0	31784	
7674	0	31768	
7675	0	31756	
7676	0	31736	
7677	0	31736	
7678	0	31784	
7679	0	31796	
7680	0	31820	
7681	0	31908	
7682	0	32010	
7683	0	32080	
7684	0	32114	
7685	0	32136	
7686	0	32158	
7687	0	32172	
7688	0	32204	
7689	0	32288	
7690	0	32410	
7691	0	32512	
7692	0	32516	
7693	0	32472	
7694	0	32474	
7695	0	32500	
7696	0	32492	
7697	0	32460	
7698	0	32472	
7699	0	32500	
7700	0	32504	
7701	0	32532	
7702	0	32584	
7703	0	32634	
7704	0	32660	
7705	0	32684	
7706	0	32736	
7707	0	32780	
7708	0	32816	
7709	0	32836	
7710	0	32840	
7711	0	32848	
7712	0	32892	
7713	0	32918	
7714	0	32932	
7715	0	32944	
7716	0	32944	
7717	0	32926	
7718	0	32924	
7719	0	32928	
7720	0	32960	
7721	0	33008	
7722	0	33004	
7723	0	33012	
7724	0	33046	
7725	0	33090	
7726	0	33136	
7727	0	33156	
7728	0	33176	
7729	0	33208	
7730	0	33216	
7731	0	33204	
7732	0	33194	
7733	0	33173	
7734	0	33158	
7735	0	33180	
7736	0	33224	
7737	0	33272	
7738	0	33284	
7739	0	33312	
7740	0	33340	
7741	0	33340	
7742	0	33376	
7743	0	33340	
7744	0	33316	
7745	0	33360	
7746	0	33412	
7747	0	33460	
7748	0	33460	
7749	0	33400	
7750	0	33360	
7751	0	33316	
7752	0	33284	
7753	0	33304	
7754	0	33384	
7755	0	33448	
7756	0	33472	
7757	0	33440	
7758	0	33440	
7759	0	33416	
7760	0	33368	
7761	0	33396	
7762	0	33440	
7763	0	33464	
7764	0	33452	
7765	0	33428	
7766	0	33432	
7767	0	33444	
7768	0	33472	
7769	0	33492	
7770	0	33480	
7771	0	33472	
7772	0	33476	
7773	0	33468	
7774	0	33472	
7775	0	33480	
7776	0	33524	
7777	0	33552	
7778	0	33576	
7779	0	33560	
7780	0	33548	
7781	0	33538	
7782	0	33498	
7783	0	33424	
7784	0	33340	
7785	0	33292	
7786	0	33282	
7787	0	33344	
7788	0	33358	
7789	0	33332	
7790	0	33284	
7791	0	33304	
7792	0	33396	
7793	0	33456	
7794	0	33480	
7795	0	33504	
7796	0	33536	
7797	0	33596	
7798	0	33712	
7799	0	33816	
7800	0	33900	
7801	0	34012	
7802	0	34164	
7803	0	34292	
7804	0	34352	
7805	0	34424	
7806	0	34500	
7807	0	34512	
7808	0	34496	
7809	0	34432	
7810	0	34336	
7811	0	34276	
7812	0	34248	
7813	0	34190	
7814	0	34192	
7815	0	34160	
7816	0	34116	
7817	0	34128	
7818	0	34176	
7819	0	34184	
7820	0	34208	
7821	0	34218	
7822	0	34292	
7823	0	34488	
7824	0	34792	
7825	0	35068	
7826	0	35368	
7827	0	35664	
7828	0	35968	
7829	0	36244	
7830	0	36480	
7831	0	36728	
7832	0	36932	
7833	0	37012	
7834	0	37012	
7835	0	36988	
7836	0	36948	
7837	0	36900	
7838	0	36880	
7839	0	36808	
7840	0	36648	
7841	0	36656	
7842	0	36696	
7843	0	36640	
7844	0	36584	
7845	0	36500	
7846	0	36396	
7847	0	36320	
7848	0	36308	
7849	0	36284	
7850	0	36208	
7851	0	36138	
7852	0	36120	
7853	0	36064	
7854	0	35984	
7855	0	35896	
7856	0	35704	
7857	0	35480	
7858	0	35284	
7859	0	35140	
7860	0	34928	
7861	0	34644	
7862	0	34358	
7863	0	34100	
7864	0	33760	
7865	0	33296	
7866	0	32906	
7867	0	32524	
7868	0	32176	
7869	0	31896	
7870	0	31768	
7871	0	31740	
7872	0	31636	
7873	0	31576	
7874	0	31484	
7875	0	31400	
7876	0	31348	
7877	0	31296	
7878	0	31252	
7879	0	31136	
7880	0	30984	
7881	0	30874	
7882	0	30778	
7883	0	30632	
7884	0	30564	
7885	0	30600	
7886	0	30620	
7887	0	30616	
7888	0	30656	
7889	0	30740	
7890	0	30736	
7891	0	30712	
7892	0	30688	
7893	0	30712	
7894	0	30684	
7895	0	30624	
7896	0	30720	
7897	0	30780	
7898	0	30744	
7899	0	30732	
7900	0	30824	
7901	0	30924	
7902	0	30976	
7903	0	31034	
7904	0	31032	
7905	0	31032	
7906	0	31084	
7907	0	31104	
7908	0	31096	
7909	0	31100	
7910	0	31136	
7911	0	31200	
7912	0	31236	
7913	0	31296	
7914	0	31312	
7915	0	31308	
7916	0	31288	
7917	0	31284	
7918	0	31280	
7919	0	31220	
7920	0	31188	
7921	0	31152	
7922	0	31044	
7923	0	30856	
7924	0	30548	
7925	0	29960	
7926	0	29084	
7927	0	27956	
7928	0	26640	
7929	0	25282	
7930	0	23908	
7931	0	22692	
7932	0	21656	
7933	0	20936	
7934	0	20432	
7935	0	20140	
7936	0	20056	
7937	0	20272	
7938	0	20748	
7939	0	21260	
7940	0	22088	
7941	0	23488	
7942	0	25350	
7943	0	27650	
7944	0	30216	
7945	0	33148	
7946	0	36592	
7947	0	40400	
7948	0	44624	
7949	0	48972	
7950	0	53496	
7951	0	57816	
7952	0	61488	
7953	0	63592	
7954	0	64672	
7955	0	65208	
7956	0	65456	
7957	0	65528	
7958	0	65472	
7959	0	65420	
7960	0	65316	
7961	0	65176	
7962	0	65060	
7963	0	64696	
7964	0	58668	
7965	0	54332	
7966	0	50512	
7967	0	46300	
7968	0	42084	
7969	0	38672	
7970	0	35912	
7971	0	33232	
7972	0	30804	
7973	0	28820	
7974	0	27244	
7975	0	25976	
7976	0	24896	
7977	0	23894	
7978	0	23004	
7979	0	22220	
7980	0	21480	
7981	0	20925	
7982	0	20642	
7983	0	20584	
7984	0	20648	
7985	0	20808	
7986	0	21040	
7987	0	21312	
7988	0	21598	
7989	0	21920	
7990	0	22280	
7991	0	22678	
7992	0	23034	
7993	0	23348	
7994	0	23712	
7995	0	24224	
7996	0	24816	
7997	0	25432	
7998	0	26038	
7999	0	26604	
8000	0	27084	
8001	0	27532	
8002	0	27972	
8003	0	28356	
8004	0	28676	
8005	0	28864	
8006	0	28976	
8007	0	29052	
8008	0	29084	
8009	0	29112	
8010	0	29162	
8011	0	29248	
8012	0	29240	
8013	0	29268	
8014	0	29264	
8015	0	29266	
8016	0	29302	
8017	0	29420	
8018	0	29620	
8019	0	29852	
8020	0	30020	
8021	0	30184	
8022	0	30354	
8023	0	30408	
8024	0	30476	
8025	0	30560	
8026	0	30612	
8027	0	30680	
8028	0	30840	
8029	0	30922	
8030	0	30852	
8031	0	30748	
8032	0	30720	
8033	0	30776	
8034	0	30856	
8035	0	30880	
8036	0	30836	
8037	0	30764	
8038	0	30756	
8039	0	30804	
8040	0	30844	
8041	0	30876	
8042	0	30888	
8043	0	30892	
8044	0	30964	
8045	0	31008	
8046	0	31004	
8047	0	31018	
8048	0	31016	
8049	0	31032	
8050	0	31088	
8051	0	31192	
8052	0	31320	
8053	0	31464	
8054	0	31568	
8055	0	31652	
8056	0	31704	
8057	0	31784	
8058	0	31872	
8059	0	31920	
8060	0	31996	
8061	0	32036	
8062	0	32032	
8063	0	31984	
8064	0	31924	
8065	0	31920	
8066	0	31976	
8067	0	32124	
8068	0	32228	
8069	0	32260	
8070	0	32364	
8071	0	32448	
8072	0	32544	
8073	0	32640	
8074	0	32668	
8075	0	32674	
8076	0	32656	
8077	0	32596	
8078	0	32524	
8079	0	32442	
8080	0	32512	
8081	0	32608	
8082	0	32656	
8083	0	32696	
8084	0	32712	
8085	0	32726	
8086	0	32764	
8087	0	32780	
8088	0	32800	
8089	0	32788	
8090	0	32756	
8091	0	32808	
8092	0	32808	
8093	0	32800	
8094	0	32888	
8095	0	32980	
8096	0	33072	
8097	0	33128	
8098	0	33120	
8099	0	32980	
8100	0	32860	
8101	0	32848	
8102	0	32908	
8103	0	32968	
8104	0	33000	
8105	0	32984	
8106	0	32992	
8107	0	33092	
8108	0	33160	
8109	0	33232	
8110	0	33236	
8111	0	33184	
8112	0	33164	
8113	0	33128	
8114	0	33102	
8115	0	33072	
8116	0	33032	
8117	0	33024	
8118	0	33080	
8119	0	33132	
8120	0	33088	
8121	0	33024	
8122	0	33000	
8123	0	32956	
8124	0	32944	
8125	0	32976	
8126	0	33024	
8127	0	33056	
8128	0	33012	
8129	0	32992	
8130	0	33004	
8131	0	33028	
8132	0	33068	
8133	0	33120	
8134	0	33188	
8135	0	33256	
8136	0	33288	
8137	0	33306	
8138	0	33320	
8139	0	33312	
8140	0	33264	
8141	0	33168	
8142	0	33096	
8143	0	33036	
8144	0	32956	
8145	0	32912	
8146	0	32932	
8147	0	32968	
8148	0	32988	
8149	0	33044	
8150	0	33124	
8151	0	33216	
8152	0	33232	
8153	0	33218	
8154	0	33184	
8155	0	33156	
8156	0	33128	
8157	0	33108	
8158	0	33092	
8159	0	33072	
8160	0	33052	
8161	0	33088	
8162	0	33096	
8163	0	33124	
8164	0	33104	
8165	0	33064	
8166	0	33088	
8167	0	33152	
8168	0	33178	
8169	0	33216	
8170	0	33228	
8171	0	33196	
8172	0	33132	
8173	0	33072	
8174	0	33074	
8175	0	33068	
8176	0	33076	
8177	0	33120	
8178	0	33152	
8179	0	33160	
8180	0	33192	
8181	0	33184	
8182	0	33140	
8183	0	33080	
8184	0	33098	
8185	0	33184	
8186	0	33208	
8187	0	33244	
8188	0	33250	
8189	0	33224	
8190	0	33196	
8191	0	33192	
8192	0	33156	
8193	0	33128	
8194	0	33072	
8195	0	33016	
8196	0	32940	
8197	0	32848	
8198	0	32820	
8199	0	32796	
8200	0	32736	
8201	0	32628	
8202	0	32528	
8203	0	32460	
8204	0	32432	
8205	0	32424	
8206	0	32376	
8207	0	32380	
8208	0	32384	
8209	0	32400	
8210	0	32404	
8211	0	32388	
8212	0	32412	
8213	0	32384	
8214	0	32364	
8215	0	32340	
8216	0	32324	
8217	0	32324	
8218	0	32372	
8219	0	32410	
8220	0	32376	
8221	0	32284	
8222	0	32168	
8223	0	32156	
8224	0	32168	
8225	0	32140	
8226	0	32100	
8227	0	32048	
8228	0	31968	
8229	0	31904	
8230	0	31900	
8231	0	31928	
8232	0	31916	
8233	0	31896	
8234	0	31884	
8235	0	31928	
8236	0	31932	
8237	0	31888	
8238	0	31896	
8239	0	31940	
8240	0	31964	
8241	0	32012	
8242	0	32040	
8243	0	31968	
8244	0	31948	
8245	0	31912	
8246	0	31904	
8247	0	31872	
8248	0	31864	
8249	0	31864	
8250	0	31884	
8251	0	31944	
8252	0	32044	
8253	0	32136	
8254	0	32128	
8255	0	32056	
8256	0	32004	
8257	0	31976	
8258	0	31996	
8259	0	31984	
8260	0	31988	
8261	0	32020	
8262	0	32040	
8263	0	32080	
8264	0	32084	
8265	0	32076	
8266	0	32088	
8267	0	32088	
8268	0	32100	
8269	0	32068	
8270	0	32088	
8271	0	32104	
8272	0	32116	
8273	0	32134	
8274	0	32176	
8275	0	32248	
8276	0	32268	
8277	0	32248	
8278	0	32208	
8279	0	32176	
8280	0	32164	
8281	0	32164	
8282	0	32200	
8283	0	32232	
8284	0	32248	
8285	0	32276	
8286	0	32296	
8287	0	32290	
8288	0	32264	
8289	0	32304	
8290	0	32316	
8291	0	32300	
8292	0	32288	
8293	0	32250	
8294	0	32244	
8295	0	32232	
8296	0	32248	
8297	0	32296	
8298	0	32312	
8299	0	32336	
8300	0	32362	
8301	0	32396	
8302	0	32448	
8303	0	32492	
8304	0	32544	
8305	0	32620	
8306	0	32636	
8307	0	32628	
8308	0	32570	
8309	0	32540	
8310	0	32546	
8311	0	32556	
8312	0	32548	
8313	0	32580	
8314	0	32628	
8315	0	32672	
8316	0	32700	
8317	0	32716	
8318	0	32750	
8319	0	32720	
8320	0	32728	
8321	0	32776	
8322	0	32832	
8323	0	32880	
8324	0	32908	
8325	0	32937	
8326	0	32964	
8327	0	32968	
8328	0	33024	
8329	0	33084	
8330	0	33128	
8331	0	33140	
8332	0	33132	
8333	0	33108	
8334	0	33092	
8335	0	33132	
8336	0	33188	
8337	0	33252	
8338	0	33352	
8339	0	33380	
8340	0	33376	
8341	0	33388	
8342	0	33388	
8343	0	33336	
8344	0	33288	
8345	0	33272	
8346	0	33272	
8347	0	33288	
8348	0	33336	
8349	0	33336	
8350	0	33332	
8351	0	33356	
8352	0	33392	
8353	0	33432	
8354	0	33424	
8355	0	33460	
8356	0	33480	
8357	0	33452	
8358	0	33416	
8359	0	33416	
8360	0	33480	
8361	0	33580	
8362	0	33656	
8363	0	33712	
8364	0	33740	
8365	0	33736	
8366	0	33760	
8367	0	33788	
8368	0	33772	
8369	0	33696	
8370	0	33678	
8371	0	33700	
8372	0	33712	
8373	0	33720	
8374	0	33710	
8375	0	33680	
8376	0	33640	
8377	0	33620	
8378	0	33616	
8379	0	33616	
8380	0	33620	
8381	0	33682	
8382	0	33692	
8383	0	33680	
8384	0	33644	
8385	0	33660	
8386	0	33628	
8387	0	33552	
8388	0	33484	
8389	0	33448	
8390	0	33474	
8391	0	33492	
8392	0	33496	
8393	0	33488	
8394	0	33476	
8395	0	33516	
8396	0	33564	
8397	0	33584	
8398	0	33572	
8399	0	33560	
8400	0	33588	
8401	0	33604	
8402	0	33632	
8403	0	33644	
8404	0	33624	
8405	0	33642	
8406	0	33684	
8407	0	33704	
8408	0	33704	
8409	0	33728	
8410	0	33744	
8411	0	33824	
8412	0	33884	
8413	0	33956	
8414	0	34012	
8415	0	34088	
8416	0	34180	
8417	0	34336	
8418	0	34420	
8419	0	34412	
8420	0	34424	
8421	0	34424	
8422	0	34384	
8423	0	34352	
8424	0	34376	
8425	0	34392	
8426	0	34404	
8427	0	34404	
8428	0	34424	
8429	0	34432	
8430	0	34472	
8431	0	34440	
8432	0	34416	
8433	0	34400	
8434	0	34436	
8435	0	34516	
8436	0	34656	
8437	0	34856	
8438	0	35148	
8439	0	35456	
8440	0	35744	
8441	0	36000	
8442	0	36208	
8443	0	36384	
8444	0	36524	
8445	0	36604	
8446	0	36624	
8447	0	36644	
8448	0	36704	
8449	0	36744	
8450	0	36784	
8451	0	36856	
8452	0	36930	
8453	0	36992	
8454	0	37000	
8455	0	36932	
8456	0	36780	
8457	0	36652	
8458	0	36592	
8459	0	36568	
8460	0	36524	
8461	0	36496	
8462	0	36472	
8463	0	36420	
8464	0	36400	
8465	0	36384	
8466	0	36304	
8467	0	36160	
8468	0	36000	
8469	0	35832	
8470	0	35688	
8471	0	35520	
8472	0	35332	
8473	0	35148	
8474	0	34924	
8475	0	34668	
8476	0	34418	
8477	0	34056	
8478	0	33594	
8479	0	33180	
8480	0	32824	
8481	0	32552	
8482	0	32344	
8483	0	32152	
8484	0	32016	
8485	0	31952	
8486	0	31884	
8487	0	31808	
8488	0	31776	
8489	0	31736	
8490	0	31660	
8491	0	31556	
8492	0	31380	
8493	0	31160	
8494	0	31022	
8495	0	30960	
8496	0	30960	
8497	0	30976	
8498	0	30996	
8499	0	30932	
8500	0	30880	
8501	0	30830	
8502	0	30812	
8503	0	30872	
8504	0	30908	
8505	0	30926	
8506	0	30920	
8507	0	30876	
8508	0	30900	
8509	0	30950	
8510	0	30998	
8511	0	31002	
8512	0	30998	
8513	0	31010	
8514	0	31012	
8515	0	31024	
8516	0	31012	
8517	0	30968	
8518	0	30972	
8519	0	30984	
8520	0	31048	
8521	0	31076	
8522	0	31076	
8523	0	31104	
8524	0	31108	
8525	0	31136	
8526	0	31208	
8527	0	31256	
8528	0	31264	
8529	0	31248	
8530	0	31218	
8531	0	31176	
8532	0	31176	
8533	0	31164	
8534	0	31136	
8535	0	31082	
8536	0	30990	
8537	0	30778	
8538	0	30400	
8539	0	29772	
8540	0	28856	
8541	0	27788	
8542	0	26596	
8543	0	25340	
8544	0	24044	
8545	0	22848	
8546	0	21936	
8547	0	21316	
8548	0	20836	
8549	0	20616	
8550	0	20720	
8551	0	21050	
8552	0	21548	
8553	0	22180	
8554	0	23198	
8555	0	24780	
8556	0	26816	
8557	0	29152	
8558	0	31754	
8559	0	34752	
8560	0	38048	
8561	0	41636	
8562	0	45652	
8563	0	49848	
8564	0	54224	
8565	0	58448	
8566	0	61744	
8567	0	63584	
8568	0	64528	
8569	0	64992	
8570	0	65184	
8571	0	65220	
8572	0	65176	
8573	0	65096	
8574	0	64992	
8575	0	64872	
8576	0	64744	
8577	0	59320	
8578	0	53920	
8579	0	49652	
8580	0	45776	
8581	0	41936	
8582	0	38616	
8583	0	35932	
8584	0	33680	
8585	0	31584	
8586	0	29436	
8587	0	27552	
8588	0	26090	
8589	0	24832	
8590	0	23688	
8591	0	22724	
