# OpenSignals Text File Format. Version 1
# {"00:07:80:4B:15:F7": {"position": 0, "device": "biosignalsplux", "device name": "00:07:80:4B:15:F7", "device connection": "BTH00:07:80:4B:15:F7", "sampling rate": 1000, "resolution": [16], "firmware version": 775, "comments": "", "keywords": "", "mode": 0, "sync interval": 2, "date": "2023-4-27", "time": "17:13:57.500", "channels": [1], "sensor": ["ECG"], "label": ["CH1"], "column": ["nSeq", "DI", "CH1"], "special": [{"SpO2": [80, 40, 5, 4, 3, 3]}, {"SpO2": [80, 40, 5, 4, 3, 3]}, {"SpO2": [80, 40, 5, 4, 3, 3]}, {"SpO2": [80, 40, 5, 4, 3, 3]}, {"SpO2": [80, 40, 5, 4, 3, 3]}, {"SpO2": [80, 40, 5, 4, 3, 3]}, {"SpO2": [80, 40, 5, 4, 3, 3]}, {"SpO2": [80, 40, 5, 4, 3, 3]}], "digital IO": [0, 1], "sleeve color": ["green"], "convertedValues": 0}}
# EndOfHeader
0	0	33148	
1	0	33000	
2	0	32828	
3	0	32656	
4	0	32434	
5	0	32228	
6	0	32096	
7	0	31984	
8	0	31900	
9	0	31804	
10	0	31646	
11	0	31512	
12	0	31380	
13	0	31224	
14	0	31044	
15	0	30888	
16	0	30772	
17	0	30664	
18	0	30596	
19	0	30544	
20	0	30460	
21	0	30424	
22	0	30312	
23	0	30160	
24	0	30080	
25	0	30016	
26	0	29948	
27	0	29820	
28	0	29724	
29	0	29672	
30	0	29684	
31	0	29628	
32	0	29568	
33	0	29536	
34	0	29520	
35	0	29502	
36	0	29528	
37	0	29518	
38	0	29508	
39	0	29472	
40	0	29504	
41	0	29524	
42	0	29468	
43	0	29440	
44	0	29360	
45	0	29324	
46	0	29324	
47	0	29310	
48	0	29306	
49	0	29328	
50	0	29308	
51	0	29324	
52	0	29332	
53	0	29284	
54	0	29280	
55	0	29316	
56	0	29352	
57	0	29420	
58	0	29468	
59	0	29520	
60	0	29576	
61	0	29596	
62	0	29624	
63	0	29616	
64	0	29648	
65	0	29716	
66	0	29794	
67	0	29788	
68	0	29816	
69	0	29864	
70	0	29880	
71	0	29888	
72	0	29916	
73	0	29968	
74	0	30040	
75	0	30020	
76	0	30018	
77	0	30060	
78	0	30152	
79	0	30210	
80	0	30288	
81	0	30344	
82	0	30316	
83	0	30288	
84	0	30292	
85	0	30300	
86	0	30336	
87	0	30392	
88	0	30464	
89	0	30544	
90	0	30624	
91	0	30690	
92	0	30728	
93	0	30804	
94	0	30868	
95	0	30912	
96	0	30960	
97	0	31012	
98	0	31080	
99	0	31112	
100	0	31124	
101	0	31156	
102	0	31216	
103	0	31250	
104	0	31240	
105	0	31200	
106	0	31180	
107	0	31156	
108	0	31188	
109	0	31192	
110	0	31212	
111	0	31240	
112	0	31290	
113	0	31332	
114	0	31376	
115	0	31404	
116	0	31432	
117	0	31456	
118	0	31452	
119	0	31460	
120	0	31464	
121	0	31504	
122	0	31544	
123	0	31580	
124	0	31648	
125	0	31728	
126	0	31784	
127	0	31780	
128	0	31800	
129	0	31810	
130	0	31764	
131	0	31724	
132	0	31772	
133	0	31784	
134	0	31804	
135	0	31816	
136	0	31832	
137	0	31868	
138	0	31952	
139	0	32036	
140	0	31980	
141	0	31936	
142	0	31956	
143	0	31992	
144	0	32032	
145	0	31996	
146	0	31970	
147	0	31984	
148	0	32040	
149	0	32056	
150	0	32040	
151	0	32056	
152	0	32072	
153	0	32096	
154	0	32108	
155	0	32140	
156	0	32194	
157	0	32202	
158	0	32160	
159	0	32228	
160	0	32288	
161	0	32290	
162	0	32248	
163	0	32208	
164	0	32200	
165	0	32184	
166	0	32200	
167	0	32228	
168	0	32234	
169	0	32208	
170	0	32188	
171	0	32180	
172	0	32212	
173	0	32260	
174	0	32312	
175	0	32340	
176	0	32352	
177	0	32364	
178	0	32360	
179	0	32338	
180	0	32322	
181	0	32304	
182	0	32356	
183	0	32414	
184	0	32416	
185	0	32424	
186	0	32388	
187	0	32360	
188	0	32354	
189	0	32348	
190	0	32336	
191	0	32340	
192	0	32332	
193	0	32340	
194	0	32344	
195	0	32300	
196	0	32264	
197	0	32272	
198	0	32304	
199	0	32356	
200	0	32360	
201	0	32392	
202	0	32408	
203	0	32416	
204	0	32444	
205	0	32454	
206	0	32450	
207	0	32416	
208	0	32332	
209	0	32268	
210	0	32246	
211	0	32236	
212	0	32220	
213	0	32216	
214	0	32288	
215	0	32376	
216	0	32386	
217	0	32372	
218	0	32308	
219	0	32232	
220	0	32212	
221	0	32232	
222	0	32304	
223	0	32332	
224	0	32332	
225	0	32268	
226	0	32256	
227	0	32248	
228	0	32244	
229	0	32264	
230	0	32304	
231	0	32372	
232	0	32408	
233	0	32392	
234	0	32372	
235	0	32380	
236	0	32352	
237	0	32376	
238	0	32352	
239	0	32372	
240	0	32426	
241	0	32452	
242	0	32452	
243	0	32496	
244	0	32512	
245	0	32532	
246	0	32556	
247	0	32580	
248	0	32620	
249	0	32640	
250	0	32664	
251	0	32700	
252	0	32736	
253	0	32864	
254	0	33024	
255	0	33140	
256	0	33176	
257	0	33220	
258	0	33340	
259	0	33468	
260	0	33568	
261	0	33664	
262	0	33720	
263	0	33708	
264	0	33680	
265	0	33668	
266	0	33648	
267	0	33604	
268	0	33560	
269	0	33512	
270	0	33476	
271	0	33390	
272	0	33360	
273	0	33388	
274	0	33460	
275	0	33566	
276	0	33596	
277	0	33618	
278	0	33716	
279	0	33892	
280	0	34184	
281	0	34544	
282	0	34868	
283	0	35112	
284	0	35228	
285	0	35232	
286	0	35328	
287	0	35464	
288	0	35544	
289	0	35636	
290	0	35668	
291	0	35560	
292	0	35410	
293	0	35248	
294	0	35092	
295	0	35000	
296	0	34948	
297	0	34904	
298	0	34804	
299	0	34668	
300	0	34560	
301	0	34472	
302	0	34360	
303	0	34196	
304	0	34004	
305	0	33872	
306	0	33724	
307	0	33540	
308	0	33388	
309	0	33268	
310	0	33228	
311	0	33244	
312	0	33166	
313	0	33072	
314	0	32928	
315	0	32834	
316	0	32732	
317	0	32624	
318	0	32552	
319	0	32508	
320	0	32456	
321	0	32432	
322	0	32384	
323	0	32304	
324	0	32184	
325	0	32056	
326	0	31972	
327	0	31852	
328	0	31736	
329	0	31616	
330	0	31492	
331	0	31408	
332	0	31360	
333	0	31310	
334	0	31312	
335	0	31348	
336	0	31364	
337	0	31424	
338	0	31464	
339	0	31532	
340	0	31508	
341	0	31448	
342	0	31394	
343	0	31360	
344	0	31356	
345	0	31328	
346	0	31280	
347	0	31272	
348	0	31324	
349	0	31364	
350	0	31396	
351	0	31448	
352	0	31528	
353	0	31608	
354	0	31688	
355	0	31744	
356	0	31772	
357	0	31792	
358	0	31792	
359	0	31792	
360	0	31778	
361	0	31808	
362	0	31872	
363	0	31880	
364	0	31866	
365	0	31872	
366	0	31900	
367	0	31980	
368	0	32032	
369	0	32020	
370	0	31980	
371	0	31886	
372	0	31648	
373	0	31386	
374	0	31034	
375	0	30464	
376	0	29668	
377	0	28880	
378	0	28316	
379	0	27948	
380	0	27808	
381	0	27808	
382	0	28016	
383	0	28506	
384	0	29344	
385	0	30420	
386	0	31648	
387	0	33140	
388	0	34800	
389	0	36656	
390	0	38684	
391	0	41108	
392	0	43948	
393	0	47204	
394	0	51008	
395	0	55012	
396	0	58888	
397	0	62000	
398	0	63696	
399	0	64570	
400	0	64984	
401	0	65144	
402	0	65172	
403	0	65148	
404	0	65044	
405	0	64968	
406	0	64824	
407	0	64704	
408	0	64588	
409	0	64464	
410	0	58420	
411	0	53322	
412	0	49172	
413	0	45744	
414	0	42872	
415	0	40264	
416	0	37780	
417	0	35536	
418	0	33658	
419	0	32164	
420	0	30904	
421	0	29816	
422	0	28912	
423	0	28260	
424	0	27792	
425	0	27516	
426	0	27440	
427	0	27472	
428	0	27356	
429	0	27200	
430	0	27084	
431	0	27080	
432	0	27196	
433	0	27400	
434	0	27672	
435	0	27920	
436	0	28128	
437	0	28316	
438	0	28516	
439	0	28640	
440	0	28632	
441	0	28656	
442	0	28716	
443	0	28752	
444	0	28740	
445	0	28688	
446	0	28648	
447	0	28616	
448	0	28608	
449	0	28576	
450	0	28540	
451	0	28552	
452	0	28584	
453	0	28628	
454	0	28652	
455	0	28716	
456	0	28748	
457	0	28800	
458	0	28864	
459	0	28912	
460	0	28872	
461	0	28860	
462	0	28900	
463	0	28932	
464	0	28876	
465	0	28852	
466	0	28848	
467	0	28840	
468	0	28928	
469	0	29026	
470	0	29088	
471	0	29152	
472	0	29224	
473	0	29306	
474	0	29336	
475	0	29360	
476	0	29398	
477	0	29516	
478	0	29620	
479	0	29664	
480	0	29704	
481	0	29720	
482	0	29764	
483	0	29768	
484	0	29772	
485	0	29844	
486	0	29912	
487	0	29964	
488	0	30032	
489	0	30128	
490	0	30176	
491	0	30232	
492	0	30256	
493	0	30360	
494	0	30428	
495	0	30436	
496	0	30426	
497	0	30432	
498	0	30476	
499	0	30508	
500	0	30536	
501	0	30616	
502	0	30720	
503	0	30816	
504	0	30840	
505	0	30848	
506	0	31000	
507	0	31100	
508	0	31138	
509	0	31200	
510	0	31216	
511	0	31168	
512	0	31218	
513	0	31272	
514	0	31272	
515	0	31328	
516	0	31420	
517	0	31508	
518	0	31576	
519	0	31584	
520	0	31604	
521	0	31720	
522	0	31720	
523	0	31728	
524	0	31794	
525	0	31848	
526	0	31916	
527	0	31988	
528	0	32048	
529	0	32104	
530	0	32188	
531	0	32290	
532	0	32288	
533	0	32276	
534	0	32272	
535	0	32320	
536	0	32396	
537	0	32436	
538	0	32504	
539	0	32568	
540	0	32604	
541	0	32652	
542	0	32736	
543	0	32844	
544	0	32896	
545	0	32924	
546	0	32968	
547	0	33022	
548	0	33080	
549	0	33100	
550	0	33148	
551	0	33198	
552	0	33228	
553	0	33236	
554	0	33264	
555	0	33260	
556	0	33268	
557	0	33364	
558	0	33500	
559	0	33586	
560	0	33648	
561	0	33688	
562	0	33772	
563	0	33852	
564	0	33928	
565	0	33960	
566	0	34004	
567	0	34036	
568	0	34052	
569	0	34124	
570	0	34216	
571	0	34320	
572	0	34412	
573	0	34498	
574	0	34536	
575	0	34588	
576	0	34622	
577	0	34660	
578	0	34708	
579	0	34752	
580	0	34822	
581	0	34912	
582	0	34992	
583	0	35060	
584	0	35104	
585	0	35152	
586	0	35236	
587	0	35216	
588	0	35192	
589	0	35192	
590	0	35180	
591	0	35192	
592	0	35280	
593	0	35370	
594	0	35432	
595	0	35452	
596	0	35488	
597	0	35540	
598	0	35588	
599	0	35632	
600	0	35648	
601	0	35640	
602	0	35616	
603	0	35612	
604	0	35608	
605	0	35628	
606	0	35616	
607	0	35552	
608	0	35532	
609	0	35488	
610	0	35436	
611	0	35424	
612	0	35380	
613	0	35324	
614	0	35280	
615	0	35248	
616	0	35268	
617	0	35288	
618	0	35260	
619	0	35216	
620	0	35156	
621	0	35112	
622	0	35104	
623	0	35160	
624	0	35212	
625	0	35208	
626	0	35120	
627	0	35032	
628	0	34980	
629	0	34980	
630	0	34968	
631	0	34976	
632	0	34900	
633	0	34832	
634	0	34752	
635	0	34648	
636	0	34584	
637	0	34520	
638	0	34420	
639	0	34320	
640	0	34184	
641	0	34040	
642	0	33896	
643	0	33756	
644	0	33600	
645	0	33424	
646	0	33276	
647	0	33162	
648	0	33012	
649	0	32876	
650	0	32728	
651	0	32576	
652	0	32416	
653	0	32256	
654	0	32092	
655	0	31960	
656	0	31896	
657	0	31780	
658	0	31708	
659	0	31616	
660	0	31552	
661	0	31516	
662	0	31364	
663	0	31230	
664	0	31086	
665	0	30904	
666	0	30760	
667	0	30612	
668	0	30492	
669	0	30416	
670	0	30352	
671	0	30288	
672	0	30232	
673	0	30164	
674	0	30132	
675	0	30048	
676	0	29960	
677	0	29896	
678	0	29860	
679	0	29824	
680	0	29804	
681	0	29776	
682	0	29744	
683	0	29706	
684	0	29664	
685	0	29632	
686	0	29588	
687	0	29494	
688	0	29484	
689	0	29508	
690	0	29500	
691	0	29440	
692	0	29434	
693	0	29408	
694	0	29352	
695	0	29372	
696	0	29368	
697	0	29348	
698	0	29384	
699	0	29408	
700	0	29432	
701	0	29436	
702	0	29432	
703	0	29460	
704	0	29536	
705	0	29600	
706	0	29608	
707	0	29628	
708	0	29712	
709	0	29760	
710	0	29740	
711	0	29758	
712	0	29776	
713	0	29792	
714	0	29820	
715	0	29856	
716	0	29884	
717	0	29888	
718	0	29932	
719	0	30020	
720	0	30080	
721	0	30096	
722	0	30148	
723	0	30192	
724	0	30256	
725	0	30328	
726	0	30448	
727	0	30504	
728	0	30492	
729	0	30444	
730	0	30408	
731	0	30392	
732	0	30456	
733	0	30576	
734	0	30648	
735	0	30652	
736	0	30648	
737	0	30708	
738	0	30796	
739	0	30856	
740	0	30888	
741	0	30944	
742	0	30962	
743	0	30988	
744	0	31024	
745	0	30988	
746	0	30984	
747	0	31008	
748	0	31048	
749	0	31104	
750	0	31160	
751	0	31260	
752	0	31312	
753	0	31252	
754	0	31212	
755	0	31200	
756	0	31262	
757	0	31360	
758	0	31456	
759	0	31540	
760	0	31624	
761	0	31672	
762	0	31688	
763	0	31688	
764	0	31648	
765	0	31594	
766	0	31588	
767	0	31600	
768	0	31612	
769	0	31644	
770	0	31676	
771	0	31704	
772	0	31768	
773	0	31792	
774	0	31832	
775	0	31888	
776	0	31956	
777	0	32032	
778	0	32080	
779	0	32070	
780	0	32024	
781	0	32020	
782	0	32012	
783	0	31994	
784	0	31948	
785	0	31948	
786	0	31976	
787	0	31980	
788	0	31986	
789	0	32004	
790	0	32052	
791	0	32096	
792	0	32064	
793	0	32040	
794	0	32068	
795	0	32084	
796	0	32072	
797	0	32088	
798	0	32112	
799	0	32140	
800	0	32180	
801	0	32228	
802	0	32288	
803	0	32296	
804	0	32294	
805	0	32258	
806	0	32244	
807	0	32250	
808	0	32244	
809	0	32224	
810	0	32224	
811	0	32224	
812	0	32224	
813	0	32256	
814	0	32296	
815	0	32296	
816	0	32260	
817	0	32220	
818	0	32200	
819	0	32160	
820	0	32176	
821	0	32196	
822	0	32168	
823	0	32140	
824	0	32088	
825	0	32072	
826	0	32128	
827	0	32172	
828	0	32192	
829	0	32212	
830	0	32204	
831	0	32192	
832	0	32220	
833	0	32242	
834	0	32244	
835	0	32216	
836	0	32200	
837	0	32172	
838	0	32146	
839	0	32136	
840	0	32144	
841	0	32184	
842	0	32228	
843	0	32288	
844	0	32324	
845	0	32308	
846	0	32320	
847	0	32308	
848	0	32280	
849	0	32240	
850	0	32224	
851	0	32196	
852	0	32192	
853	0	32236	
854	0	32224	
855	0	32180	
856	0	32176	
857	0	32138	
858	0	32104	
859	0	32096	
860	0	32112	
861	0	32132	
862	0	32158	
863	0	32172	
864	0	32208	
865	0	32280	
866	0	32248	
867	0	32208	
868	0	32184	
869	0	32112	
870	0	32090	
871	0	32164	
872	0	32254	
873	0	32262	
874	0	32268	
875	0	32248	
876	0	32226	
877	0	32220	
878	0	32236	
879	0	32260	
880	0	32272	
881	0	32284	
882	0	32300	
883	0	32334	
884	0	32384	
885	0	32428	
886	0	32400	
887	0	32324	
888	0	32288	
889	0	32256	
890	0	32228	
891	0	32228	
892	0	32244	
893	0	32264	
894	0	32252	
895	0	32260	
896	0	32288	
897	0	32344	
898	0	32320	
899	0	32330	
900	0	32332	
901	0	32296	
902	0	32312	
903	0	32360	
904	0	32400	
905	0	32480	
906	0	32448	
907	0	32356	
908	0	32308	
909	0	32344	
910	0	32384	
911	0	32444	
912	0	32440	
913	0	32388	
914	0	32360	
915	0	32360	
916	0	32372	
917	0	32384	
918	0	32384	
919	0	32432	
920	0	32468	
921	0	32460	
922	0	32464	
923	0	32480	
924	0	32440	
925	0	32432	
926	0	32448	
927	0	32456	
928	0	32424	
929	0	32416	
930	0	32414	
931	0	32384	
932	0	32364	
933	0	32344	
934	0	32352	
935	0	32372	
936	0	32368	
937	0	32420	
938	0	32468	
939	0	32488	
940	0	32504	
941	0	32532	
942	0	32568	
943	0	32592	
944	0	32624	
945	0	32676	
946	0	32712	
947	0	32784	
948	0	32774	
949	0	32720	
950	0	32628	
951	0	32576	
952	0	32572	
953	0	32576	
954	0	32532	
955	0	32520	
956	0	32556	
957	0	32592	
958	0	32672	
959	0	32742	
960	0	32820	
961	0	32848	
962	0	32846	
963	0	32944	
964	0	33060	
965	0	33168	
966	0	33276	
967	0	33372	
968	0	33472	
969	0	33564	
970	0	33628	
971	0	33724	
972	0	33744	
973	0	33760	
974	0	33764	
975	0	33808	
976	0	33852	
977	0	33844	
978	0	33784	
979	0	33744	
980	0	33706	
981	0	33620	
982	0	33588	
983	0	33596	
984	0	33636	
985	0	33696	
986	0	33720	
987	0	33732	
988	0	33768	
989	0	33868	
990	0	34032	
991	0	34216	
992	0	34432	
993	0	34692	
994	0	34912	
995	0	35052	
996	0	35080	
997	0	35092	
998	0	35136	
999	0	35244	
1000	0	35332	
1001	0	35386	
1002	0	35360	
1003	0	35312	
1004	0	35224	
1005	0	35144	
1006	0	35068	
1007	0	35008	
1008	0	34976	
1009	0	34932	
1010	0	34836	
1011	0	34672	
1012	0	34548	
1013	0	34416	
1014	0	34248	
1015	0	34092	
1016	0	33936	
1017	0	33824	
1018	0	33706	
1019	0	33560	
1020	0	33412	
1021	0	33336	
1022	0	33298	
1023	0	33288	
1024	0	33284	
1025	0	33224	
1026	0	33148	
1027	0	33068	
1028	0	32974	
1029	0	32890	
1030	0	32768	
1031	0	32632	
1032	0	32532	
1033	0	32452	
1034	0	32420	
1035	0	32408	
1036	0	32356	
1037	0	32304	
1038	0	32228	
1039	0	32120	
1040	0	32004	
1041	0	31836	
1042	0	31716	
1043	0	31648	
1044	0	31622	
1045	0	31616	
1046	0	31596	
1047	0	31608	
1048	0	31656	
1049	0	31644	
1050	0	31616	
1051	0	31616	
1052	0	31600	
1053	0	31620	
1054	0	31624	
1055	0	31660	
1056	0	31674	
1057	0	31660	
1058	0	31708	
1059	0	31754	
1060	0	31776	
1061	0	31824	
1062	0	31888	
1063	0	31928	
1064	0	31954	
1065	0	31964	
1066	0	31968	
1067	0	32014	
1068	0	32056	
1069	0	32052	
1070	0	32095	
1071	0	32088	
1072	0	32024	
1073	0	31968	
1074	0	31964	
1075	0	31992	
1076	0	32060	
1077	0	32100	
1078	0	32128	
1079	0	32152	
1080	0	32160	
1081	0	32092	
1082	0	31940	
1083	0	31712	
1084	0	31440	
1085	0	31056	
1086	0	30516	
1087	0	29856	
1088	0	29216	
1089	0	28736	
1090	0	28440	
1091	0	28288	
1092	0	28314	
1093	0	28624	
1094	0	29162	
1095	0	30000	
1096	0	31088	
1097	0	32328	
1098	0	33760	
1099	0	35432	
1100	0	37300	
1101	0	39348	
1102	0	41704	
1103	0	44500	
1104	0	47752	
1105	0	51532	
1106	0	55456	
1107	0	59240	
1108	0	62096	
1109	0	63628	
1110	0	64416	
1111	0	64776	
1112	0	64920	
1113	0	64928	
1114	0	64888	
1115	0	64796	
1116	0	64672	
1117	0	64576	
1118	0	64432	
1119	0	64328	
1120	0	62328	
1121	0	56276	
1122	0	51556	
1123	0	47680	
1124	0	44536	
1125	0	41928	
1126	0	39548	
1127	0	37272	
1128	0	35188	
1129	0	33320	
1130	0	31738	
1131	0	30380	
1132	0	29176	
1133	0	28252	
1134	0	27620	
1135	0	27216	
1136	0	26976	
1137	0	26924	
1138	0	26960	
1139	0	26912	
1140	0	26844	
1141	0	26852	
1142	0	26948	
1143	0	27076	
1144	0	27212	
1145	0	27444	
1146	0	27684	
1147	0	27884	
1148	0	28108	
1149	0	28382	
1150	0	28604	
1151	0	28704	
1152	0	28704	
1153	0	28688	
1154	0	28696	
1155	0	28724	
1156	0	28740	
1157	0	28716	
1158	0	28720	
1159	0	28706	
1160	0	28668	
1161	0	28688	
1162	0	28696	
1163	0	28716	
1164	0	28744	
1165	0	28824	
1166	0	28884	
1167	0	28896	
1168	0	28936	
1169	0	28956	
1170	0	28960	
1171	0	29000	
1172	0	29012	
1173	0	28984	
1174	0	29013	
1175	0	29056	
1176	0	29084	
1177	0	29120	
1178	0	29100	
1179	0	29064	
1180	0	29076	
1181	0	29120	
1182	0	29180	
1183	0	29254	
1184	0	29348	
1185	0	29424	
1186	0	29488	
1187	0	29568	
1188	0	29604	
1189	0	29688	
1190	0	29776	
1191	0	29845	
1192	0	29892	
1193	0	29906	
1194	0	29948	
1195	0	30000	
1196	0	30036	
1197	0	30036	
1198	0	30050	
1199	0	30092	
1200	0	30136	
1201	0	30224	
1202	0	30368	
1203	0	30464	
1204	0	30444	
1205	0	30464	
1206	0	30524	
1207	0	30580	
1208	0	30622	
1209	0	30668	
1210	0	30684	
1211	0	30716	
1212	0	30760	
1213	0	30820	
1214	0	30912	
1215	0	31056	
1216	0	31092	
1217	0	31064	
1218	0	31064	
1219	0	31064	
1220	0	31080	
1221	0	31088	
1222	0	31126	
1223	0	31200	
1224	0	31264	
1225	0	31352	
1226	0	31448	
1227	0	31508	
1228	0	31480	
1229	0	31464	
1230	0	31536	
1231	0	31600	
1232	0	31616	
1233	0	31680	
1234	0	31732	
1235	0	31800	
1236	0	31864	
1237	0	31936	
1238	0	31992	
1239	0	32064	
1240	0	32148	
1241	0	32272	
1242	0	32356	
1243	0	32416	
1244	0	32456	
1245	0	32432	
1246	0	32420	
1247	0	32482	
1248	0	32532	
1249	0	32588	
1250	0	32648	
1251	0	32704	
1252	0	32728	
1253	0	32724	
1254	0	32750	
1255	0	32776	
1256	0	32804	
1257	0	32852	
1258	0	32940	
1259	0	33024	
1260	0	33108	
1261	0	33208	
1262	0	33280	
1263	0	33372	
1264	0	33440	
1265	0	33512	
1266	0	33588	
1267	0	33672	
1268	0	33768	
1269	0	33848	
1270	0	33896	
1271	0	33932	
1272	0	33984	
1273	0	34008	
1274	0	34016	
1275	0	34004	
1276	0	33996	
1277	0	33984	
1278	0	34060	
1279	0	34172	
1280	0	34248	
1281	0	34376	
1282	0	34464	
1283	0	34496	
1284	0	34532	
1285	0	34528	
1286	0	34564	
1287	0	34592	
1288	0	34618	
1289	0	34630	
1290	0	34690	
1291	0	34736	
1292	0	34804	
1293	0	34900	
1294	0	34972	
1295	0	35028	
1296	0	35064	
1297	0	35096	
1298	0	35128	
1299	0	35124	
1300	0	35132	
1301	0	35149	
1302	0	35168	
1303	0	35168	
1304	0	35152	
1305	0	35168	
1306	0	35232	
1307	0	35256	
1308	0	35260	
1309	0	35308	
1310	0	35304	
1311	0	35236	
1312	0	35176	
1313	0	35116	
1314	0	35040	
1315	0	35004	
1316	0	35016	
1317	0	35036	
1318	0	35048	
1319	0	35048	
1320	0	35052	
1321	0	35040	
1322	0	34992	
1323	0	34948	
1324	0	34936	
1325	0	34976	
1326	0	35048	
1327	0	35116	
1328	0	35124	
1329	0	35092	
1330	0	35024	
1331	0	34888	
1332	0	34778	
1333	0	34716	
1334	0	34660	
1335	0	34624	
1336	0	34628	
1337	0	34634	
1338	0	34620	
1339	0	34620	
1340	0	34636	
1341	0	34636	
1342	0	34626	
1343	0	34596	
1344	0	34572	
1345	0	34532	
1346	0	34520	
1347	0	34488	
1348	0	34442	
1349	0	34380	
1350	0	34284	
1351	0	34172	
1352	0	34060	
1353	0	34008	
1354	0	33968	
1355	0	33882	
1356	0	33762	
1357	0	33664	
1358	0	33568	
1359	0	33472	
1360	0	33354	
1361	0	33264	
1362	0	33188	
1363	0	33080	
1364	0	32932	
1365	0	32792	
1366	0	32636	
1367	0	32464	
1368	0	32296	
1369	0	32160	
1370	0	32024	
1371	0	31890	
1372	0	31772	
1373	0	31672	
1374	0	31560	
1375	0	31408	
1376	0	31280	
1377	0	31128	
1378	0	31072	
1379	0	30988	
1380	0	30876	
1381	0	30720	
1382	0	30592	
1383	0	30448	
1384	0	30352	
1385	0	30264	
1386	0	30196	
1387	0	30176	
1388	0	30164	
1389	0	30148	
1390	0	30082	
1391	0	30012	
1392	0	29940	
1393	0	29944	
1394	0	29912	
1395	0	29880	
1396	0	29860	
1397	0	29836	
1398	0	29784	
1399	0	29728	
1400	0	29720	
1401	0	29708	
1402	0	29720	
1403	0	29724	
1404	0	29692	
1405	0	29652	
1406	0	29620	
1407	0	29604	
1408	0	29614	
1409	0	29638	
1410	0	29672	
1411	0	29652	
1412	0	29672	
1413	0	29720	
1414	0	29768	
1415	0	29784	
1416	0	29788	
1417	0	29820	
1418	0	29804	
1419	0	29808	
1420	0	29808	
1421	0	29836	
1422	0	29836	
1423	0	29828	
1424	0	29864	
1425	0	29892	
1426	0	29932	
1427	0	29948	
1428	0	29980	
1429	0	30048	
1430	0	30140	
1431	0	30204	
1432	0	30256	
1433	0	30288	
1434	0	30336	
1435	0	30356	
1436	0	30376	
1437	0	30412	
1438	0	30464	
1439	0	30496	
1440	0	30528	
1441	0	30572	
1442	0	30636	
1443	0	30688	
1444	0	30720	
1445	0	30768	
1446	0	30816	
1447	0	30848	
1448	0	30912	
1449	0	30944	
1450	0	30988	
1451	0	31016	
1452	0	31016	
1453	0	31016	
1454	0	31054	
1455	0	31116	
1456	0	31180	
1457	0	31212	
1458	0	31248	
1459	0	31248	
1460	0	31276	
1461	0	31338	
1462	0	31392	
1463	0	31448	
1464	0	31504	
1465	0	31492	
1466	0	31472	
1467	0	31468	
1468	0	31456	
1469	0	31484	
1470	0	31532	
1471	0	31594	
1472	0	31648	
1473	0	31624	
1474	0	31524	
1475	0	31456	
1476	0	31472	
1477	0	31516	
1478	0	31552	
1479	0	31642	
1480	0	31720	
1481	0	31800	
1482	0	31868	
1483	0	31952	
1484	0	31980	
1485	0	31996	
1486	0	32004	
1487	0	32016	
1488	0	32048	
1489	0	32088	
1490	0	32112	
1491	0	32112	
1492	0	32112	
1493	0	32144	
1494	0	32188	
1495	0	32160	
1496	0	32148	
1497	0	32184	
1498	0	32232	
1499	0	32252	
1500	0	32236	
1501	0	32192	
1502	0	32164	
1503	0	32140	
1504	0	32088	
1505	0	32052	
1506	0	32056	
1507	0	32072	
1508	0	32076	
1509	0	32072	
1510	0	32008	
1511	0	31972	
1512	0	31996	
1513	0	32060	
1514	0	32092	
1515	0	32080	
1516	0	32088	
1517	0	32128	
1518	0	32172	
1519	0	32218	
1520	0	32292	
1521	0	32314	
1522	0	32304	
1523	0	32300	
1524	0	32276	
1525	0	32196	
1526	0	32164	
1527	0	32160	
1528	0	32180	
1529	0	32196	
1530	0	32202	
1531	0	32184	
1532	0	32206	
1533	0	32172	
1534	0	32160	
1535	0	32160	
1536	0	32204	
1537	0	32248	
1538	0	32240	
1539	0	32244	
1540	0	32272	
1541	0	32216	
1542	0	32196	
1543	0	32152	
1544	0	32092	
1545	0	32056	
1546	0	32064	
1547	0	32068	
1548	0	32068	
1549	0	32104	
1550	0	32080	
1551	0	32056	
1552	0	32084	
1553	0	32104	
1554	0	32080	
1555	0	32024	
1556	0	32016	
1557	0	32040	
1558	0	32060	
1559	0	32056	
1560	0	32052	
1561	0	32048	
1562	0	32032	
1563	0	32096	
1564	0	32164	
1565	0	32180	
1566	0	32204	
1567	0	32208	
1568	0	32176	
1569	0	32132	
1570	0	32064	
1571	0	31980	
1572	0	31926	
1573	0	31962	
1574	0	32040	
1575	0	32068	
1576	0	32030	
1577	0	31990	
1578	0	32000	
1579	0	32008	
1580	0	31980	
1581	0	31952	
1582	0	31944	
1583	0	31968	
1584	0	32032	
1585	0	32096	
1586	0	32116	
1587	0	32128	
1588	0	32144	
1589	0	32168	
1590	0	32160	
1591	0	32184	
1592	0	32216	
1593	0	32244	
1594	0	32236	
1595	0	32220	
1596	0	32192	
1597	0	32160	
1598	0	32112	
1599	0	32082	
1600	0	32072	
1601	0	32140	
1602	0	32180	
1603	0	32088	
1604	0	32088	
1605	0	32148	
1606	0	32164	
1607	0	32208	
1608	0	32272	
1609	0	32284	
1610	0	32244	
1611	0	32204	
1612	0	32240	
1613	0	32298	
1614	0	32344	
1615	0	32320	
1616	0	32260	
1617	0	32212	
1618	0	32216	
1619	0	32296	
1620	0	32352	
1621	0	32352	
1622	0	32320	
1623	0	32288	
1624	0	32232	
1625	0	32136	
1626	0	32128	
1627	0	32160	
1628	0	32192	
1629	0	32204	
1630	0	32216	
1631	0	32236	
1632	0	32264	
1633	0	32340	
1634	0	32394	
1635	0	32412	
1636	0	32412	
1637	0	32412	
1638	0	32416	
1639	0	32440	
1640	0	32464	
1641	0	32488	
1642	0	32512	
1643	0	32532	
1644	0	32548	
1645	0	32572	
1646	0	32588	
1647	0	32564	
1648	0	32536	
1649	0	32576	
1650	0	32544	
1651	0	32520	
1652	0	32524	
1653	0	32528	
1654	0	32494	
1655	0	32448	
1656	0	32420	
1657	0	32352	
1658	0	32316	
1659	0	32356	
1660	0	32436	
1661	0	32488	
1662	0	32488	
1663	0	32472	
1664	0	32488	
1665	0	32532	
1666	0	32560	
1667	0	32540	
1668	0	32484	
1669	0	32466	
1670	0	32464	
1671	0	32448	
1672	0	32476	
1673	0	32508	
1674	0	32516	
1675	0	32516	
1676	0	32520	
1677	0	32492	
1678	0	32488	
1679	0	32496	
1680	0	32560	
1681	0	32644	
1682	0	32664	
1683	0	32680	
1684	0	32752	
1685	0	32828	
1686	0	32880	
1687	0	32896	
1688	0	32932	
1689	0	33028	
1690	0	33104	
1691	0	33180	
1692	0	33298	
1693	0	33408	
1694	0	33516	
1695	0	33620	
1696	0	33724	
1697	0	33748	
1698	0	33736	
1699	0	33694	
1700	0	33680	
1701	0	33652	
1702	0	33658	
1703	0	33660	
1704	0	33600	
1705	0	33576	
1706	0	33560	
1707	0	33568	
1708	0	33572	
1709	0	33582	
1710	0	33604	
1711	0	33620	
1712	0	33652	
1713	0	33740	
1714	0	33876	
1715	0	34012	
1716	0	34192	
1717	0	34448	
1718	0	34676	
1719	0	34832	
1720	0	34928	
1721	0	34976	
1722	0	35018	
1723	0	35056	
1724	0	35168	
1725	0	35228	
1726	0	35220	
1727	0	35160	
1728	0	35076	
1729	0	34994	
1730	0	34948	
1731	0	34896	
1732	0	34836	
1733	0	34768	
1734	0	34644	
1735	0	34480	
1736	0	34356	
1737	0	34242	
1738	0	34162	
1739	0	34064	
1740	0	33920	
1741	0	33788	
1742	0	33664	
1743	0	33548	
1744	0	33452	
1745	0	33360	
1746	0	33332	
1747	0	33256	
1748	0	33128	
1749	0	33088	
1750	0	33008	
1751	0	32932	
1752	0	32820	
1753	0	32724	
1754	0	32648	
1755	0	32584	
1756	0	32568	
1757	0	32516	
1758	0	32424	
1759	0	32328	
1760	0	32224	
1761	0	32144	
1762	0	32064	
1763	0	31968	
1764	0	31860	
1765	0	31740	
1766	0	31680	
1767	0	31612	
1768	0	31612	
1769	0	31616	
1770	0	31592	
1771	0	31584	
1772	0	31572	
1773	0	31560	
1774	0	31568	
1775	0	31560	
1776	0	31542	
1777	0	31564	
1778	0	31560	
1779	0	31596	
1780	0	31648	
1781	0	31680	
1782	0	31720	
1783	0	31768	
1784	0	31768	
1785	0	31724	
1786	0	31692	
1787	0	31740	
1788	0	31808	
1789	0	31861	
1790	0	31868	
1791	0	31858	
1792	0	31816	
1793	0	31852	
1794	0	31904	
1795	0	31929	
1796	0	31952	
1797	0	31940	
1798	0	31992	
1799	0	32060	
1800	0	32080	
1801	0	32076	
1802	0	32128	
1803	0	32192	
1804	0	32228	
1805	0	32208	
1806	0	32044	
1807	0	31804	
1808	0	31548	
1809	0	31188	
1810	0	30648	
1811	0	29936	
1812	0	29224	
1813	0	28668	
1814	0	28368	
1815	0	28252	
1816	0	28324	
1817	0	28632	
1818	0	29200	
1819	0	30080	
1820	0	31224	
1821	0	32472	
1822	0	33826	
1823	0	35400	
1824	0	37172	
1825	0	39128	
1826	0	41484	
1827	0	44344	
1828	0	47680	
1829	0	51460	
1830	0	55456	
1831	0	59272	
1832	0	62068	
1833	0	63528	
1834	0	64288	
1835	0	64636	
1836	0	64764	
1837	0	64772	
1838	0	64716	
1839	0	64636	
1840	0	64516	
1841	0	64408	
1842	0	64280	
1843	0	64152	
1844	0	62112	
1845	0	56232	
1846	0	51552	
1847	0	47664	
1848	0	44480	
1849	0	41824	
1850	0	39436	
1851	0	37152	
1852	0	35104	
1853	0	33208	
1854	0	31544	
1855	0	30164	
1856	0	29020	
1857	0	28132	
1858	0	27544	
1859	0	27172	
1860	0	26936	
1861	0	26860	
1862	0	26912	
1863	0	26866	
1864	0	26860	
1865	0	26912	
1866	0	27070	
1867	0	27304	
1868	0	27492	
1869	0	27700	
1870	0	27916	
1871	0	28128	
1872	0	28364	
1873	0	28600	
1874	0	28784	
1875	0	28932	
1876	0	29008	
1877	0	29044	
1878	0	29096	
1879	0	29088	
1880	0	29060	
1881	0	29054	
1882	0	29084	
1883	0	29100	
1884	0	29052	
1885	0	28976	
1886	0	28832	
1887	0	28788	
1888	0	28824	
1889	0	28832	
1890	0	28860	
1891	0	28888	
1892	0	28860	
1893	0	28848	
1894	0	28872	
1895	0	28924	
1896	0	29018	
1897	0	29080	
1898	0	29184	
1899	0	29228	
1900	0	29216	
1901	0	29240	
1902	0	29304	
1903	0	29328	
1904	0	29360	
1905	0	29412	
1906	0	29440	
1907	0	29400	
1908	0	29408	
1909	0	29460	
1910	0	29480	
1911	0	29540	
1912	0	29620	
1913	0	29646	
1914	0	29708	
1915	0	29744	
1916	0	29736	
1917	0	29772	
1918	0	29864	
1919	0	29948	
1920	0	30024	
1921	0	30076	
1922	0	30100	
1923	0	30148	
1924	0	30208	
1925	0	30300	
1926	0	30334	
1927	0	30324	
1928	0	30352	
1929	0	30402	
1930	0	30472	
1931	0	30520	
1932	0	30616	
1933	0	30688	
1934	0	30680	
1935	0	30732	
1936	0	30824	
1937	0	30948	
1938	0	31024	
1939	0	31092	
1940	0	31184	
1941	0	31240	
1942	0	31272	
1943	0	31356	
1944	0	31396	
1945	0	31328	
1946	0	31312	
1947	0	31340	
1948	0	31372	
1949	0	31440	
1950	0	31516	
1951	0	31544	
1952	0	31566	
1953	0	31576	
1954	0	31576	
1955	0	31636	
1956	0	31720	
1957	0	31840	
1958	0	31922	
1959	0	31952	
1960	0	31984	
1961	0	32064	
1962	0	32140	
1963	0	32224	
1964	0	32268	
1965	0	32332	
1966	0	32408	
1967	0	32448	
1968	0	32452	
1969	0	32468	
1970	0	32506	
1971	0	32536	
1972	0	32544	
1973	0	32612	
1974	0	32752	
1975	0	32836	
1976	0	32960	
1977	0	33060	
1978	0	33132	
1979	0	33164	
1980	0	33184	
1981	0	33244	
1982	0	33332	
1983	0	33384	
1984	0	33416	
1985	0	33426	
1986	0	33456	
1987	0	33472	
1988	0	33498	
1989	0	33532	
1990	0	33600	
1991	0	33694	
1992	0	33768	
1993	0	33820	
1994	0	33880	
1995	0	33952	
1996	0	34016	
1997	0	34156	
1998	0	34320	
1999	0	34400	
2000	0	34424	
2001	0	34472	
2002	0	34512	
2003	0	34552	
2004	0	34600	
2005	0	34656	
2006	0	34656	
2007	0	34688	
2008	0	34716	
2009	0	34752	
2010	0	34808	
2011	0	34888	
2012	0	34944	
2013	0	35008	
2014	0	35016	
2015	0	34992	
2016	0	34988	
2017	0	34992	
2018	0	35034	
2019	0	35108	
2020	0	35196	
2021	0	35280	
2022	0	35356	
2023	0	35452	
2024	0	35488	
2025	0	35556	
2026	0	35628	
2027	0	35644	
2028	0	35680	
2029	0	35724	
2030	0	35776	
2031	0	35752	
2032	0	35708	
2033	0	35664	
2034	0	35632	
2035	0	35612	
2036	0	35644	
2037	0	35664	
2038	0	35656	
2039	0	35620	
2040	0	35588	
2041	0	35552	
2042	0	35548	
2043	0	35524	
2044	0	35504	
2045	0	35508	
2046	0	35488	
2047	0	35456	
2048	0	35444	
2049	0	35360	
2050	0	35272	
2051	0	35204	
2052	0	35168	
2053	0	35176	
2054	0	35172	
2055	0	35148	
2056	0	35136	
2057	0	35096	
2058	0	35116	
2059	0	35152	
2060	0	35140	
2061	0	35112	
2062	0	35120	
2063	0	35120	
2064	0	35140	
2065	0	35104	
2066	0	35040	
2067	0	34980	
2068	0	34892	
2069	0	34796	
2070	0	34696	
2071	0	34580	
2072	0	34488	
2073	0	34428	
2074	0	34368	
2075	0	34268	
2076	0	34140	
2077	0	34018	
2078	0	33960	
2079	0	33880	
2080	0	33804	
2081	0	33764	
2082	0	33694	
2083	0	33604	
2084	0	33524	
2085	0	33424	
2086	0	33260	
2087	0	33084	
2088	0	32948	
2089	0	32860	
2090	0	32712	
2091	0	32604	
2092	0	32492	
2093	0	32368	
2094	0	32216	
2095	0	32040	
2096	0	31884	
2097	0	31792	
2098	0	31712	
2099	0	31616	
2100	0	31496	
2101	0	31364	
2102	0	31264	
2103	0	31128	
2104	0	31044	
2105	0	30956	
2106	0	30868	
2107	0	30768	
2108	0	30652	
2109	0	30556	
2110	0	30426	
2111	0	30250	
2112	0	30112	
2113	0	30056	
2114	0	30000	
2115	0	29978	
2116	0	29908	
2117	0	29862	
2118	0	29836	
2119	0	29796	
2120	0	29760	
2121	0	29716	
2122	0	29656	
2123	0	29612	
2124	0	29564	
2125	0	29532	
2126	0	29532	
2127	0	29528	
2128	0	29480	
2129	0	29440	
2130	0	29440	
2131	0	29480	
2132	0	29536	
2133	0	29552	
2134	0	29556	
2135	0	29540	
2136	0	29536	
2137	0	29508	
2138	0	29552	
2139	0	29568	
2140	0	29589	
2141	0	29596	
2142	0	29616	
2143	0	29640	
2144	0	29724	
2145	0	29796	
2146	0	29852	
2147	0	29912	
2148	0	29932	
2149	0	29956	
2150	0	29960	
2151	0	30000	
2152	0	30056	
2153	0	30116	
2154	0	30088	
2155	0	30050	
2156	0	30104	
2157	0	30172	
2158	0	30200	
2159	0	30176	
2160	0	30176	
2161	0	30232	
2162	0	30288	
2163	0	30390	
2164	0	30456	
2165	0	30496	
2166	0	30528	
2167	0	30556	
2168	0	30568	
2169	0	30596	
2170	0	30664	
2171	0	30704	
2172	0	30760	
2173	0	30808	
2174	0	30868	
2175	0	30916	
2176	0	30916	
2177	0	30896	
2178	0	30892	
2179	0	30904	
2180	0	30956	
2181	0	30964	
2182	0	30952	
2183	0	30972	
2184	0	31012	
2185	0	31044	
2186	0	31108	
2187	0	31172	
2188	0	31240	
2189	0	31344	
2190	0	31436	
2191	0	31508	
2192	0	31524	
2193	0	31484	
2194	0	31444	
2195	0	31416	
2196	0	31400	
2197	0	31400	
2198	0	31448	
2199	0	31504	
2200	0	31568	
2201	0	31612	
2202	0	31624	
2203	0	31608	
2204	0	31636	
2205	0	31688	
2206	0	31712	
2207	0	31660	
2208	0	31642	
2209	0	31656	
2210	0	31720	
2211	0	31760	
2212	0	31776	
2213	0	31860	
2214	0	31952	
2215	0	31976	
2216	0	31988	
2217	0	32052	
2218	0	32092	
2219	0	32096	
2220	0	32076	
2221	0	32056	
2222	0	32056	
2223	0	32040	
2224	0	32020	
2225	0	32048	
2226	0	32024	
2227	0	32016	
2228	0	32008	
2229	0	32024	
2230	0	32040	
2231	0	32048	
2232	0	32060	
2233	0	32072	
2234	0	32016	
2235	0	31937	
2236	0	31904	
2237	0	31976	
2238	0	32064	
2239	0	32100	
2240	0	32124	
2241	0	32112	
2242	0	32120	
2243	0	32148	
2244	0	32128	
2245	0	32052	
2246	0	31976	
2247	0	31920	
2248	0	31908	
2249	0	31914	
2250	0	32012	
2251	0	32090	
2252	0	32152	
2253	0	32148	
2254	0	32096	
2255	0	32112	
2256	0	32164	
2257	0	32144	
2258	0	32088	
2259	0	32032	
2260	0	32008	
2261	0	31976	
2262	0	31988	
2263	0	32032	
2264	0	32072	
2265	0	32094	
2266	0	32084	
2267	0	32032	
2268	0	31948	
2269	0	31892	
2270	0	31874	
2271	0	31852	
2272	0	31834	
2273	0	31800	
2274	0	31820	
2275	0	31808	
2276	0	31776	
2277	0	31824	
2278	0	31928	
2279	0	32004	
2280	0	32072	
2281	0	32152	
2282	0	32208	
2283	0	32188	
2284	0	32136	
2285	0	32040	
2286	0	31968	
2287	0	31876	
2288	0	31856	
2289	0	31870	
2290	0	31936	
2291	0	31940	
2292	0	31940	
2293	0	31928	
2294	0	31872	
2295	0	31832	
2296	0	31808	
2297	0	31808	
2298	0	31840	
2299	0	31896	
2300	0	31940	
2301	0	31992	
2302	0	32004	
2303	0	32036	
2304	0	32040	
2305	0	32032	
2306	0	32064	
2307	0	32076	
2308	0	32056	
2309	0	32072	
2310	0	32088	
2311	0	32056	
2312	0	31976	
2313	0	31912	
2314	0	31876	
2315	0	31872	
2316	0	31868	
2317	0	31824	
2318	0	31800	
2319	0	31808	
2320	0	31880	
2321	0	31952	
2322	0	31992	
2323	0	32010	
2324	0	32004	
2325	0	32008	
2326	0	32028	
2327	0	32060	
2328	0	32112	
2329	0	32172	
2330	0	32192	
2331	0	32200	
2332	0	32216	
2333	0	32200	
2334	0	32116	
2335	0	32020	
2336	0	31976	
2337	0	31988	
2338	0	32048	
2339	0	32096	
2340	0	32068	
2341	0	32048	
2342	0	32068	
2343	0	32120	
2344	0	32116	
2345	0	32128	
2346	0	32176	
2347	0	32204	
2348	0	32184	
2349	0	32180	
2350	0	32224	
2351	0	32280	
2352	0	32282	
2353	0	32264	
2354	0	32264	
2355	0	32296	
2356	0	32368	
2357	0	32468	
2358	0	32548	
2359	0	32604	
2360	0	32644	
2361	0	32678	
2362	0	32742	
2363	0	32828	
2364	0	32920	
2365	0	33004	
2366	0	33020	
2367	0	33016	
2368	0	33052	
2369	0	33076	
2370	0	33076	
2371	0	33088	
2372	0	33128	
2373	0	33156	
2374	0	33154	
2375	0	33152	
2376	0	33136	
2377	0	33088	
2378	0	33064	
2379	0	33108	
2380	0	33192	
2381	0	33284	
2382	0	33324	
2383	0	33404	
2384	0	33536	
2385	0	33696	
2386	0	33916	
2387	0	34152	
2388	0	34376	
2389	0	34524	
2390	0	34608	
2391	0	34716	
2392	0	34796	
2393	0	34880	
2394	0	35000	
2395	0	34992	
2396	0	34976	
2397	0	34952	
2398	0	34884	
2399	0	34796	
2400	0	34706	
2401	0	34644	
2402	0	34560	
2403	0	34368	
2404	0	34184	
2405	0	34112	
2406	0	34000	
2407	0	33928	
2408	0	33808	
2409	0	33656	
2410	0	33460	
2411	0	33298	
2412	0	33170	
2413	0	33116	
2414	0	33082	
2415	0	33056	
2416	0	32992	
2417	0	32904	
2418	0	32872	
2419	0	32888	
2420	0	32844	
2421	0	32804	
2422	0	32712	
2423	0	32554	
2424	0	32408	
2425	0	32364	
2426	0	32324	
2427	0	32296	
2428	0	32244	
2429	0	32184	
2430	0	32016	
2431	0	31856	
2432	0	31776	
2433	0	31704	
2434	0	31552	
2435	0	31396	
2436	0	31266	
2437	0	31192	
2438	0	31168	
2439	0	31196	
2440	0	31236	
2441	0	31296	
2442	0	31328	
2443	0	31388	
2444	0	31500	
2445	0	31616	
2446	0	31616	
2447	0	31612	
2448	0	31604	
2449	0	31578	
2450	0	31480	
2451	0	31400	
2452	0	31404	
2453	0	31424	
2454	0	31460	
2455	0	31520	
2456	0	31496	
2457	0	31464	
2458	0	31452	
2459	0	31464	
2460	0	31496	
2461	0	31540	
2462	0	31568	
2463	0	31600	
2464	0	31652	
2465	0	31728	
2466	0	31744	
2467	0	31740	
2468	0	31764	
2469	0	31824	
2470	0	31860	
2471	0	31876	
2472	0	31880	
2473	0	31808	
2474	0	31692	
2475	0	31556	
2476	0	31444	
2477	0	31248	
2478	0	31004	
2479	0	30644	
2480	0	30116	
2481	0	29500	
2482	0	28958	
2483	0	28660	
2484	0	28584	
2485	0	28616	
2486	0	28760	
2487	0	29056	
2488	0	29610	
2489	0	30500	
2490	0	31612	
2491	0	32832	
2492	0	34192	
2493	0	35720	
2494	0	37472	
2495	0	39440	
2496	0	41880	
2497	0	44868	
2498	0	48272	
2499	0	51904	
2500	0	55668	
2501	0	59416	
2502	0	62072	
2503	0	63480	
2504	0	64192	
2505	0	64516	
2506	0	64644	
2507	0	64652	
2508	0	64588	
2509	0	64500	
2510	0	64384	
2511	0	64272	
2512	0	64144	
2513	0	58944	
2514	0	52576	
2515	0	47036	
2516	0	42560	
2517	0	39128	
2518	0	36536	
2519	0	34540	
2520	0	32824	
2521	0	31324	
2522	0	30030	
2523	0	28858	
2524	0	27696	
2525	0	26624	
2526	0	25674	
2527	0	25026	
2528	0	24656	
2529	0	24404	
2530	0	24284	
2531	0	24308	
2532	0	24392	
2533	0	24478	
2534	0	24600	
2535	0	24844	
2536	0	25248	
2537	0	25648	
2538	0	26040	
2539	0	26528	
2540	0	27008	
2541	0	27450	
2542	0	27856	
2543	0	28236	
2544	0	28582	
2545	0	28842	
2546	0	28990	
2547	0	29092	
2548	0	29192	
2549	0	29292	
2550	0	29420	
2551	0	29568	
2552	0	29684	
2553	0	29748	
2554	0	29760	
2555	0	29784	
2556	0	29792	
2557	0	29760	
2558	0	29728	
2559	0	29676	
2560	0	29680	
2561	0	29732	
2562	0	29812	
2563	0	29868	
2564	0	29924	
2565	0	29936	
2566	0	29976	
2567	0	30018	
2568	0	30048	
2569	0	30048	
2570	0	30092	
2571	0	30132	
2572	0	30168	
2573	0	30172	
2574	0	30160	
2575	0	30180	
2576	0	30170	
2577	0	30112	
2578	0	30060	
2579	0	30112	
2580	0	30236	
2581	0	30320	
2582	0	30348	
2583	0	30392	
2584	0	30456	
2585	0	30500	
2586	0	30548	
2587	0	30628	
2588	0	30680	
2589	0	30744	
2590	0	30812	
2591	0	30884	
2592	0	30954	
2593	0	31040	
2594	0	31160	
2595	0	31210	
2596	0	31272	
2597	0	31286	
2598	0	31240	
2599	0	31196	
2600	0	31228	
2601	0	31308	
2602	0	31384	
2603	0	31416	
2604	0	31436	
2605	0	31460	
2606	0	31524	
2607	0	31628	
2608	0	31704	
2609	0	31740	
2610	0	31768	
2611	0	31808	
2612	0	31836	
2613	0	31908	
2614	0	32000	
2615	0	32060	
2616	0	32076	
2617	0	32078	
2618	0	32124	
2619	0	32204	
2620	0	32304	
2621	0	32360	
2622	0	32392	
2623	0	32452	
2624	0	32488	
2625	0	32532	
2626	0	32600	
2627	0	32672	
2628	0	32736	
2629	0	32828	
2630	0	32812	
2631	0	32868	
2632	0	32940	
2633	0	32940	
2634	0	32932	
2635	0	33024	
2636	0	33110	
2637	0	33120	
2638	0	33092	
2639	0	33136	
2640	0	33248	
2641	0	33376	
2642	0	33472	
2643	0	33544	
2644	0	33640	
2645	0	33752	
2646	0	33852	
2647	0	33888	
2648	0	33916	
2649	0	33952	
2650	0	34008	
2651	0	34052	
2652	0	34064	
2653	0	34096	
2654	0	34156	
2655	0	34184	
2656	0	34284	
2657	0	34416	
2658	0	34460	
2659	0	34468	
2660	0	34480	
2661	0	34528	
2662	0	34684	
2663	0	34852	
2664	0	34988	
2665	0	35020	
2666	0	35000	
2667	0	35002	
2668	0	35032	
2669	0	35152	
2670	0	35244	
2671	0	35328	
2672	0	35424	
2673	0	35516	
2674	0	35516	
2675	0	35508	
2676	0	35488	
2677	0	35476	
2678	0	35516	
2679	0	35612	
2680	0	35612	
2681	0	35576	
2682	0	35608	
2683	0	35684	
2684	0	35796	
2685	0	35956	
2686	0	36144	
2687	0	36216	
2688	0	36312	
2689	0	36396	
2690	0	36504	
2691	0	36554	
2692	0	36580	
2693	0	36616	
2694	0	36672	
2695	0	36760	
2696	0	36808	
2697	0	36724	
2698	0	36588	
2699	0	36512	
2700	0	36504	
2701	0	36504	
2702	0	36512	
2703	0	36556	
2704	0	36600	
2705	0	36640	
2706	0	36672	
2707	0	36668	
2708	0	36520	
2709	0	36336	
2710	0	36264	
2711	0	36268	
2712	0	36316	
2713	0	36392	
2714	0	36404	
2715	0	36420	
2716	0	36440	
2717	0	36464	
2718	0	36420	
2719	0	36324	
2720	0	36240	
2721	0	36256	
2722	0	36256	
2723	0	36308	
2724	0	36356	
2725	0	36392	
2726	0	36428	
2727	0	36380	
2728	0	36292	
2729	0	36184	
2730	0	36128	
2731	0	36092	
2732	0	35968	
2733	0	35820	
2734	0	35744	
2735	0	35618	
2736	0	35456	
2737	0	35320	
2738	0	35252	
2739	0	35168	
2740	0	35100	
2741	0	34994	
2742	0	34896	
2743	0	34788	
2744	0	34712	
2745	0	34654	
2746	0	34536	
2747	0	34436	
2748	0	34308	
2749	0	34150	
2750	0	33984	
2751	0	33848	
2752	0	33664	
2753	0	33432	
2754	0	33224	
2755	0	33088	
2756	0	32912	
2757	0	32712	
2758	0	32448	
2759	0	32148	
2760	0	31924	
2761	0	31792	
2762	0	31672	
2763	0	31588	
2764	0	31484	
2765	0	31330	
2766	0	31296	
2767	0	31280	
2768	0	31216	
2769	0	31164	
2770	0	31096	
2771	0	31024	
2772	0	30902	
2773	0	30756	
2774	0	30576	
2775	0	30440	
2776	0	30350	
2777	0	30224	
2778	0	30080	
2779	0	29940	
2780	0	29852	
2781	0	29816	
2782	0	29756	
2783	0	29624	
2784	0	29500	
2785	0	29400	
2786	0	29332	
2787	0	29340	
2788	0	29368	
2789	0	29348	
2790	0	29308	
2791	0	29224	
2792	0	29120	
2793	0	29024	
2794	0	28928	
2795	0	28852	
2796	0	28832	
2797	0	28832	
2798	0	28828	
2799	0	28840	
2800	0	28872	
2801	0	28896	
2802	0	28904	
2803	0	28896	
2804	0	28904	
2805	0	28912	
2806	0	28860	
2807	0	28776	
2808	0	28736	
2809	0	28748	
2810	0	28780	
2811	0	28864	
2812	0	28924	
2813	0	28968	
2814	0	28990	
2815	0	28976	
2816	0	28992	
2817	0	28968	
2818	0	28940	
2819	0	28936	
2820	0	28928	
2821	0	28944	
2822	0	28964	
2823	0	29016	
2824	0	29064	
2825	0	29064	
2826	0	29048	
2827	0	29032	
2828	0	29040	
2829	0	29064	
2830	0	29140	
2831	0	29276	
2832	0	29444	
2833	0	29496	
2834	0	29536	
2835	0	29592	
2836	0	29668	
2837	0	29740	
2838	0	29756	
2839	0	29752	
2840	0	29792	
2841	0	29814	
2842	0	29796	
2843	0	29844	
2844	0	29916	
2845	0	30000	
2846	0	30056	
2847	0	30108	
2848	0	30140	
2849	0	30176	
2850	0	30266	
2851	0	30368	
2852	0	30496	
2853	0	30564	
2854	0	30616	
2855	0	30648	
2856	0	30698	
2857	0	30776	
2858	0	30856	
2859	0	30912	
2860	0	30970	
2861	0	31004	
2862	0	30962	
2863	0	30928	
2864	0	30912	
2865	0	30944	
2866	0	30976	
2867	0	30997	
2868	0	31016	
2869	0	31074	
2870	0	31092	
2871	0	31088	
2872	0	31096	
2873	0	31090	
2874	0	31108	
2875	0	31152	
2876	0	31200	
2877	0	31224	
2878	0	31256	
2879	0	31252	
2880	0	31272	
2881	0	31336	
2882	0	31380	
2883	0	31408	
2884	0	31424	
2885	0	31464	
2886	0	31472	
2887	0	31480	
2888	0	31500	
2889	0	31528	
2890	0	31596	
2891	0	31660	
2892	0	31672	
2893	0	31668	
2894	0	31680	
2895	0	31688	
2896	0	31668	
2897	0	31682	
2898	0	31696	
2899	0	31714	
2900	0	31752	
2901	0	31796	
2902	0	31808	
2903	0	31813	
2904	0	31816	
2905	0	31796	
2906	0	31832	
2907	0	31840	
2908	0	31852	
2909	0	31872	
2910	0	31896	
2911	0	31940	
2912	0	31960	
2913	0	31968	
2914	0	31992	
2915	0	32012	
2916	0	32000	
2917	0	31936	
2918	0	31908	
2919	0	31924	
2920	0	31944	
2921	0	31948	
2922	0	31960	
2923	0	31940	
2924	0	31932	
2925	0	31920	
2926	0	31920	
2927	0	31936	
2928	0	31948	
2929	0	31952	
2930	0	31988	
2931	0	32048	
2932	0	32104	
2933	0	32140	
2934	0	32116	
2935	0	32044	
2936	0	31980	
2937	0	31944	
2938	0	31960	
2939	0	31922	
2940	0	31888	
2941	0	31896	
2942	0	31874	
2943	0	31832	
2944	0	31788	
2945	0	31750	
2946	0	31736	
2947	0	31762	
2948	0	31816	
2949	0	31866	
2950	0	31912	
2951	0	31932	
2952	0	31926	
2953	0	31962	
2954	0	32040	
2955	0	32070	
2956	0	32044	
2957	0	32040	
2958	0	31988	
2959	0	31920	
2960	0	31868	
2961	0	31784	
2962	0	31720	
2963	0	31696	
2964	0	31616	
2965	0	31552	
2966	0	31568	
2967	0	31612	
2968	0	31628	
2969	0	31636	
2970	0	31688	
2971	0	31716	
2972	0	31752	
2973	0	31808	
2974	0	31880	
2975	0	31944	
2976	0	32008	
2977	0	32040	
2978	0	32034	
2979	0	31988	
2980	0	31952	
2981	0	31936	
2982	0	31938	
2983	0	31944	
2984	0	31968	
2985	0	31992	
2986	0	32012	
2987	0	32032	
2988	0	32128	
2989	0	32236	
2990	0	32320	
2991	0	32308	
2992	0	32328	
2993	0	32380	
2994	0	32440	
2995	0	32504	
2996	0	32544	
2997	0	32580	
2998	0	32632	
2999	0	32680	
3000	0	32740	
3001	0	32760	
3002	0	32780	
3003	0	32800	
3004	0	32792	
3005	0	32776	
3006	0	32756	
3007	0	32724	
3008	0	32692	
3009	0	32704	
3010	0	32716	
3011	0	32748	
3012	0	32808	
3013	0	32892	
3014	0	32956	
3015	0	33076	
3016	0	33224	
3017	0	33432	
3018	0	33672	
3019	0	33886	
3020	0	34084	
3021	0	34256	
3022	0	34436	
3023	0	34660	
3024	0	34888	
3025	0	35104	
3026	0	35264	
3027	0	35256	
3028	0	35136	
3029	0	34972	
3030	0	34784	
3031	0	34586	
3032	0	34484	
3033	0	34400	
3034	0	34256	
3035	0	34156	
3036	0	34058	
3037	0	33964	
3038	0	33834	
3039	0	33708	
3040	0	33576	
3041	0	33440	
3042	0	33304	
3043	0	33100	
3044	0	32944	
3045	0	32816	
3046	0	32752	
3047	0	32728	
3048	0	32664	
3049	0	32552	
3050	0	32448	
3051	0	32340	
3052	0	32268	
3053	0	32176	
3054	0	32088	
3055	0	31992	
3056	0	31884	
3057	0	31804	
3058	0	31728	
3059	0	31724	
3060	0	31708	
3061	0	31656	
3062	0	31584	
3063	0	31520	
3064	0	31420	
3065	0	31276	
3066	0	31160	
3067	0	31096	
3068	0	31040	
3069	0	31036	
3070	0	31016	
3071	0	31008	
3072	0	30968	
3073	0	30916	
3074	0	30956	
3075	0	31016	
3076	0	31064	
3077	0	31096	
3078	0	31120	
3079	0	31164	
3080	0	31180	
3081	0	31192	
3082	0	31200	
3083	0	31240	
3084	0	31274	
3085	0	31280	
3086	0	31244	
3087	0	31256	
3088	0	31312	
3089	0	31352	
3090	0	31360	
3091	0	31336	
3092	0	31352	
3093	0	31420	
3094	0	31456	
3095	0	31456	
3096	0	31456	
3097	0	31456	
3098	0	31480	
3099	0	31560	
3100	0	31630	
3101	0	31676	
3102	0	31668	
3103	0	31720	
3104	0	31792	
3105	0	31826	
3106	0	31800	
3107	0	31736	
3108	0	31636	
3109	0	31456	
3110	0	31216	
3111	0	30952	
3112	0	30544	
3113	0	29994	
3114	0	29368	
3115	0	28804	
3116	0	28484	
3117	0	28360	
3118	0	28292	
3119	0	28448	
3120	0	28862	
3121	0	29546	
3122	0	30426	
3123	0	31480	
3124	0	32640	
3125	0	33994	
3126	0	35568	
3127	0	37344	
3128	0	39380	
3129	0	41866	
3130	0	44816	
3131	0	48272	
3132	0	52000	
3133	0	55800	
3134	0	59520	
3135	0	62172	
3136	0	63596	
3137	0	64324	
3138	0	64644	
3139	0	64752	
3140	0	64770	
3141	0	64720	
3142	0	64620	
3143	0	64516	
3144	0	64412	
3145	0	64164	
3146	0	57384	
3147	0	51188	
3148	0	45876	
3149	0	41604	
3150	0	38204	
3151	0	35556	
3152	0	33500	
3153	0	31818	
3154	0	30464	
3155	0	29340	
3156	0	28288	
3157	0	27208	
3158	0	26180	
3159	0	25412	
3160	0	24950	
3161	0	24728	
3162	0	24640	
3163	0	24656	
3164	0	24628	
3165	0	24596	
3166	0	24630	
3167	0	24788	
3168	0	25072	
3169	0	25472	
3170	0	25852	
3171	0	26262	
3172	0	26704	
3173	0	27112	
3174	0	27468	
3175	0	27770	
3176	0	28084	
3177	0	28370	
3178	0	28588	
3179	0	28768	
3180	0	28936	
3181	0	29068	
3182	0	29044	
3183	0	28992	
3184	0	29016	
3185	0	29060	
3186	0	29140	
3187	0	29160	
3188	0	29204	
3189	0	29276	
3190	0	29300	
3191	0	29320	
3192	0	29384	
3193	0	29434	
3194	0	29488	
3195	0	29536	
3196	0	29589	
3197	0	29604	
3198	0	29604	
3199	0	29616	
3200	0	29640	
3201	0	29644	
3202	0	29668	
3203	0	29756	
3204	0	29812	
3205	0	29830	
3206	0	29850	
3207	0	29844	
3208	0	29868	
3209	0	29908	
3210	0	29890	
3211	0	29908	
3212	0	29920	
3213	0	29978	
3214	0	30060	
3215	0	30128	
3216	0	30192	
3217	0	30240	
3218	0	30280	
3219	0	30300	
3220	0	30320	
3221	0	30326	
3222	0	30370	
3223	0	30440	
3224	0	30520	
3225	0	30608	
3226	0	30644	
3227	0	30660	
3228	0	30692	
3229	0	30676	
3230	0	30668	
3231	0	30712	
3232	0	30800	
3233	0	30912	
3234	0	31048	
3235	0	31160	
3236	0	31228	
3237	0	31276	
3238	0	31354	
3239	0	31400	
3240	0	31416	
3241	0	31476	
3242	0	31562	
3243	0	31600	
3244	0	31680	
3245	0	31792	
3246	0	31880	
3247	0	31920	
3248	0	31952	
3249	0	32032	
3250	0	32112	
3251	0	32204	
3252	0	32264	
3253	0	32264	
3254	0	32264	
3255	0	32260	
3256	0	32266	
3257	0	32332	
3258	0	32440	
3259	0	32500	
3260	0	32544	
3261	0	32616	
3262	0	32676	
3263	0	32696	
3264	0	32736	
3265	0	32792	
3266	0	32896	
3267	0	32992	
3268	0	33032	
3269	0	33072	
3270	0	33132	
3271	0	33200	
3272	0	33236	
3273	0	33260	
3274	0	33292	
3275	0	33328	
3276	0	33408	
3277	0	33452	
3278	0	33554	
3279	0	33656	
3280	0	33764	
3281	0	33812	
3282	0	33836	
3283	0	33820	
3284	0	33824	
3285	0	33856	
3286	0	33944	
3287	0	34072	
3288	0	34172	
3289	0	34232	
3290	0	34300	
3291	0	34352	
3292	0	34424	
3293	0	34476	
3294	0	34528	
3295	0	34566	
3296	0	34600	
3297	0	34628	
3298	0	34664	
3299	0	34748	
3300	0	34808	
3301	0	34848	
3302	0	34904	
3303	0	34988	
3304	0	35052	
3305	0	35116	
3306	0	35160	
3307	0	35172	
3308	0	35256	
3309	0	35324	
3310	0	35424	
3311	0	35536	
3312	0	35628	
3313	0	35670	
3314	0	35676	
3315	0	35704	
3316	0	35764	
3317	0	35792	
3318	0	35836	
3319	0	35880	
3320	0	35900	
3321	0	35916	
3322	0	35956	
3323	0	36008	
3324	0	36084	
3325	0	36164	
3326	0	36248	
3327	0	36264	
3328	0	36252	
3329	0	36232	
3330	0	36256	
3331	0	36256	
3332	0	36280	
3333	0	36300	
3334	0	36308	
3335	0	36320	
3336	0	36324	
3337	0	36320	
3338	0	36296	
3339	0	36344	
3340	0	36360	
3341	0	36344	
3342	0	36368	
3343	0	36352	
3344	0	36312	
3345	0	36288	
3346	0	36272	
3347	0	36248	
3348	0	36240	
3349	0	36244	
3350	0	36240	
3351	0	36220	
3352	0	36176	
3353	0	36130	
3354	0	36080	
3355	0	36036	
3356	0	35976	
3357	0	35944	
3358	0	35950	
3359	0	35892	
3360	0	35836	
3361	0	35804	
3362	0	35776	
3363	0	35744	
3364	0	35668	
3365	0	35612	
3366	0	35596	
3367	0	35544	
3368	0	35464	
3369	0	35392	
3370	0	35296	
3371	0	35216	
3372	0	35086	
3373	0	34916	
3374	0	34728	
3375	0	34616	
3376	0	34492	
3377	0	34360	
3378	0	34228	
3379	0	34098	
3380	0	33892	
3381	0	33704	
3382	0	33556	
3383	0	33416	
3384	0	33316	
3385	0	33154	
3386	0	32968	
3387	0	32816	
3388	0	32692	
3389	0	32564	
3390	0	32448	
3391	0	32296	
3392	0	32136	
3393	0	31944	
3394	0	31748	
3395	0	31568	
3396	0	31428	
3397	0	31284	
3398	0	31148	
3399	0	31008	
3400	0	30848	
3401	0	30732	
3402	0	30632	
3403	0	30542	
3404	0	30456	
3405	0	30380	
3406	0	30324	
3407	0	30260	
3408	0	30180	
3409	0	30060	
3410	0	29984	
3411	0	29864	
3412	0	29776	
3413	0	29730	
3414	0	29746	
3415	0	29760	
3416	0	29728	
3417	0	29656	
3418	0	29540	
3419	0	29468	
3420	0	29380	
3421	0	29284	
3422	0	29196	
3423	0	29156	
3424	0	29184	
3425	0	29248	
3426	0	29304	
3427	0	29352	
3428	0	29416	
3429	0	29432	
3430	0	29392	
3431	0	29318	
3432	0	29248	
3433	0	29196	
3434	0	29196	
3435	0	29172	
3436	0	29132	
3437	0	29152	
3438	0	29192	
3439	0	29160	
3440	0	29108	
3441	0	29076	
3442	0	29124	
3443	0	29140	
3444	0	29200	
3445	0	29212	
3446	0	29152	
3447	0	29068	
3448	0	29080	
3449	0	29130	
3450	0	29204	
3451	0	29292	
3452	0	29392	
3453	0	29520	
3454	0	29602	
3455	0	29696	
3456	0	29720	
3457	0	29696	
3458	0	29712	
3459	0	29716	
3460	0	29722	
3461	0	29752	
3462	0	29836	
3463	0	29928	
3464	0	30008	
3465	0	30060	
3466	0	30112	
3467	0	30130	
3468	0	30104	
3469	0	30120	
3470	0	30128	
3471	0	30180	
3472	0	30256	
3473	0	30296	
3474	0	30324	
3475	0	30384	
3476	0	30432	
3477	0	30474	
3478	0	30500	
3479	0	30518	
3480	0	30520	
3481	0	30504	
3482	0	30528	
3483	0	30592	
3484	0	30648	
3485	0	30672	
3486	0	30712	
3487	0	30764	
3488	0	30798	
3489	0	30864	
3490	0	30904	
3491	0	30916	
3492	0	30940	
3493	0	30944	
3494	0	30984	
3495	0	31066	
3496	0	31144	
3497	0	31184	
3498	0	31194	
3499	0	31192	
3500	0	31188	
3501	0	31180	
3502	0	31200	
3503	0	31264	
3504	0	31340	
3505	0	31376	
3506	0	31388	
3507	0	31424	
3508	0	31440	
3509	0	31420	
3510	0	31432	
3511	0	31440	
3512	0	31508	
3513	0	31546	
3514	0	31584	
3515	0	31604	
3516	0	31620	
3517	0	31644	
3518	0	31688	
3519	0	31668	
3520	0	31688	
3521	0	31712	
3522	0	31752	
3523	0	31748	
3524	0	31744	
3525	0	31692	
3526	0	31668	
3527	0	31692	
3528	0	31704	
3529	0	31728	
3530	0	31804	
3531	0	31872	
3532	0	31876	
3533	0	31864	
3534	0	31864	
3535	0	31896	
3536	0	31940	
3537	0	31996	
3538	0	32004	
3539	0	32004	
3540	0	32028	
3541	0	32024	
3542	0	32008	
3543	0	31960	
3544	0	31936	
3545	0	31928	
3546	0	32004	
3547	0	32060	
3548	0	32076	
3549	0	32064	
3550	0	32032	
3551	0	31972	
3552	0	31934	
3553	0	31952	
3554	0	31984	
3555	0	32004	
3556	0	32064	
3557	0	32092	
3558	0	32034	
3559	0	32016	
3560	0	31972	
3561	0	31944	
3562	0	31932	
3563	0	31926	
3564	0	31912	
3565	0	31936	
3566	0	31940	
3567	0	31940	
3568	0	31946	
3569	0	31988	
3570	0	32004	
3571	0	32032	
3572	0	32026	
3573	0	31968	
3574	0	32000	
3575	0	32028	
3576	0	31980	
3577	0	31940	
3578	0	31884	
3579	0	31872	
3580	0	31900	
3581	0	31904	
3582	0	31936	
3583	0	31940	
3584	0	31920	
3585	0	31876	
3586	0	31848	
3587	0	31868	
3588	0	31876	
3589	0	31888	
3590	0	31896	
3591	0	31898	
3592	0	31880	
3593	0	31874	
3594	0	31864	
3595	0	31900	
3596	0	31924	
3597	0	31908	
3598	0	31900	
3599	0	31904	
3600	0	31924	
3601	0	31932	
3602	0	31976	
3603	0	31972	
3604	0	31984	
3605	0	31988	
3606	0	31992	
3607	0	32040	
3608	0	32128	
3609	0	32280	
3610	0	32404	
3611	0	32452	
3612	0	32508	
3613	0	32592	
3614	0	32652	
3615	0	32744	
3616	0	32820	
3617	0	32920	
3618	0	33028	
3619	0	33108	
3620	0	33120	
3621	0	33128	
3622	0	33124	
3623	0	33108	
3624	0	33096	
3625	0	33060	
3626	0	33016	
3627	0	32926	
3628	0	32860	
3629	0	32858	
3630	0	32886	
3631	0	32924	
3632	0	32992	
3633	0	33052	
3634	0	33112	
3635	0	33236	
3636	0	33472	
3637	0	33728	
3638	0	33996	
3639	0	34248	
3640	0	34448	
3641	0	34598	
3642	0	34716	
3643	0	34816	
3644	0	34928	
3645	0	35016	
3646	0	35084	
3647	0	35114	
3648	0	35064	
3649	0	34972	
3650	0	34840	
3651	0	34688	
3652	0	34552	
3653	0	34460	
3654	0	34352	
3655	0	34204	
3656	0	34080	
3657	0	33944	
3658	0	33784	
3659	0	33624	
3660	0	33496	
3661	0	33376	
3662	0	33232	
3663	0	33016	
3664	0	32824	
3665	0	32642	
3666	0	32516	
3667	0	32504	
3668	0	32509	
3669	0	32408	
3670	0	32284	
3671	0	32220	
3672	0	32200	
3673	0	32200	
3674	0	32134	
3675	0	32036	
3676	0	31924	
3677	0	31828	
3678	0	31764	
3679	0	31696	
3680	0	31600	
3681	0	31552	
3682	0	31524	
3683	0	31472	
3684	0	31418	
3685	0	31304	
3686	0	31124	
3687	0	30982	
3688	0	30784	
3689	0	30580	
3690	0	30592	
3691	0	30700	
3692	0	30760	
3693	0	30778	
3694	0	30796	
3695	0	30840	
3696	0	30848	
3697	0	30872	
3698	0	30880	
3699	0	30916	
3700	0	30972	
3701	0	31024	
3702	0	31040	
3703	0	31088	
3704	0	31160	
3705	0	31240	
3706	0	31276	
3707	0	31328	
3708	0	31336	
3709	0	31332	
3710	0	31320	
3711	0	31304	
3712	0	31336	
3713	0	31364	
3714	0	31392	
3715	0	31392	
3716	0	31396	
3717	0	31396	
3718	0	31426	
3719	0	31444	
3720	0	31476	
3721	0	31536	
3722	0	31548	
3723	0	31576	
3724	0	31636	
3725	0	31656	
3726	0	31656	
3727	0	31640	
3728	0	31592	
3729	0	31442	
3730	0	31216	
3731	0	30832	
3732	0	30312	
3733	0	29648	
3734	0	28956	
3735	0	28420	
3736	0	28100	
3737	0	28012	
3738	0	28056	
3739	0	28280	
3740	0	28734	
3741	0	29509	
3742	0	30468	
3743	0	31648	
3744	0	33080	
3745	0	34700	
3746	0	36556	
3747	0	38592	
3748	0	40952	
3749	0	43704	
3750	0	46848	
3751	0	50584	
3752	0	54672	
3753	0	58644	
3754	0	61772	
3755	0	63480	
3756	0	64368	
3757	0	64780	
3758	0	64948	
3759	0	64988	
3760	0	64936	
3761	0	64864	
3762	0	64752	
3763	0	64624	
3764	0	64512	
3765	0	64384	
3766	0	64248	
3767	0	59868	
3768	0	54492	
3769	0	50164	
3770	0	46560	
3771	0	43536	
3772	0	40808	
3773	0	38244	
3774	0	35972	
3775	0	34152	
3776	0	32672	
3777	0	31360	
3778	0	30260	
3779	0	29352	
3780	0	28676	
3781	0	28168	
3782	0	27810	
3783	0	27672	
3784	0	27608	
3785	0	27444	
3786	0	27268	
3787	0	27124	
3788	0	27052	
3789	0	27060	
3790	0	27184	
3791	0	27388	
3792	0	27608	
3793	0	27800	
3794	0	27968	
3795	0	28108	
3796	0	28208	
3797	0	28288	
3798	0	28288	
3799	0	28256	
3800	0	28208	
3801	0	28148	
3802	0	28108	
3803	0	28088	
3804	0	28064	
3805	0	28024	
3806	0	27986	
3807	0	27920	
3808	0	27912	
3809	0	27912	
3810	0	27960	
3811	0	28004	
3812	0	28058	
3813	0	28088	
3814	0	28088	
3815	0	28120	
3816	0	28144	
3817	0	28192	
3818	0	28220	
3819	0	28268	
3820	0	28332	
3821	0	28400	
3822	0	28468	
3823	0	28560	
3824	0	28612	
3825	0	28646	
3826	0	28696	
3827	0	28740	
3828	0	28816	
3829	0	28848	
3830	0	28816	
3831	0	28824	
3832	0	28868	
3833	0	28948	
3834	0	28988	
3835	0	29018	
3836	0	29056	
3837	0	29072	
3838	0	29096	
3839	0	29136	
3840	0	29230	
3841	0	29276	
3842	0	29332	
3843	0	29348	
3844	0	29376	
3845	0	29460	
3846	0	29536	
3847	0	29632	
3848	0	29744	
3849	0	29824	
3850	0	29888	
3851	0	29960	
3852	0	30032	
3853	0	30144	
3854	0	30192	
3855	0	30220	
3856	0	30276	
3857	0	30282	
3858	0	30204	
3859	0	30212	
3860	0	30284	
3861	0	30336	
3862	0	30352	
3863	0	30376	
3864	0	30426	
3865	0	30496	
3866	0	30600	
3867	0	30744	
3868	0	30844	
3869	0	30856	
3870	0	30840	
3871	0	30904	
3872	0	31000	
3873	0	31104	
3874	0	31180	
3875	0	31200	
3876	0	31208	
3877	0	31266	
3878	0	31328	
3879	0	31368	
3880	0	31436	
3881	0	31456	
3882	0	31472	
3883	0	31524	
3884	0	31564	
3885	0	31668	
3886	0	31776	
3887	0	31836	
3888	0	31888	
3889	0	31976	
3890	0	32064	
3891	0	32120	
3892	0	32148	
3893	0	32156	
3894	0	32160	
3895	0	32156	
3896	0	32176	
3897	0	32240	
3898	0	32340	
3899	0	32400	
3900	0	32464	
3901	0	32520	
3902	0	32560	
3903	0	32616	
3904	0	32672	
3905	0	32752	
3906	0	32836	
3907	0	32936	
3908	0	33040	
3909	0	33120	
3910	0	33116	
3911	0	33104	
3912	0	33154	
3913	0	33204	
3914	0	33284	
3915	0	33336	
3916	0	33440	
3917	0	33520	
3918	0	33524	
3919	0	33576	
3920	0	33580	
3921	0	33568	
3922	0	33608	
3923	0	33672	
3924	0	33752	
3925	0	33848	
3926	0	33940	
3927	0	34052	
3928	0	34196	
3929	0	34328	
3930	0	34442	
3931	0	34528	
3932	0	34588	
3933	0	34644	
3934	0	34714	
3935	0	34784	
3936	0	34816	
3937	0	34848	
3938	0	34884	
3939	0	34912	
3940	0	34920	
3941	0	34946	
3942	0	35000	
3943	0	35056	
3944	0	35136	
3945	0	35136	
3946	0	35136	
3947	0	35196	
3948	0	35304	
3949	0	35348	
3950	0	35384	
3951	0	35400	
3952	0	35432	
3953	0	35432	
3954	0	35470	
3955	0	35488	
3956	0	35472	
3957	0	35480	
3958	0	35468	
3959	0	35456	
3960	0	35444	
3961	0	35444	
3962	0	35464	
3963	0	35492	
3964	0	35508	
3965	0	35488	
3966	0	35408	
3967	0	35404	
3968	0	35392	
3969	0	35360	
3970	0	35328	
3971	0	35300	
3972	0	35280	
3973	0	35278	
3974	0	35204	
3975	0	35140	
3976	0	35092	
3977	0	35060	
3978	0	35034	
3979	0	34996	
3980	0	34952	
3981	0	34924	
3982	0	34896	
3983	0	34828	
3984	0	34732	
3985	0	34644	
3986	0	34604	
3987	0	34588	
3988	0	34584	
3989	0	34520	
3990	0	34456	
3991	0	34380	
3992	0	34264	
3993	0	34144	
3994	0	34052	
3995	0	33920	
3996	0	33776	
3997	0	33644	
3998	0	33522	
3999	0	33396	
4000	0	33242	
4001	0	33112	
4002	0	32972	
4003	0	32856	
4004	0	32732	
4005	0	32592	
4006	0	32444	
4007	0	32268	
4008	0	32097	
4009	0	31968	
4010	0	31834	
4011	0	31672	
4012	0	31558	
4013	0	31464	
4014	0	31336	
4015	0	31208	
4016	0	31072	
4017	0	30952	
4018	0	30848	
4019	0	30740	
4020	0	30636	
4021	0	30536	
4022	0	30448	
4023	0	30388	
4024	0	30304	
4025	0	30174	
4026	0	30116	
4027	0	30012	
4028	0	29900	
4029	0	29826	
4030	0	29736	
4031	0	29640	
4032	0	29580	
4033	0	29516	
4034	0	29488	
4035	0	29512	
4036	0	29568	
4037	0	29540	
4038	0	29440	
4039	0	29376	
4040	0	29320	
4041	0	29250	
4042	0	29192	
4043	0	29224	
4044	0	29300	
4045	0	29336	
4046	0	29320	
4047	0	29254	
4048	0	29208	
4049	0	29200	
4050	0	29228	
4051	0	29266	
4052	0	29276	
4053	0	29324	
4054	0	29376	
4055	0	29424	
4056	0	29464	
4057	0	29452	
4058	0	29436	
4059	0	29420	
4060	0	29392	
4061	0	29408	
4062	0	29472	
4063	0	29524	
4064	0	29520	
4065	0	29522	
4066	0	29536	
4067	0	29536	
4068	0	29572	
4069	0	29640	
4070	0	29672	
4071	0	29726	
4072	0	29812	
4073	0	29920	
4074	0	30016	
4075	0	30052	
4076	0	30048	
4077	0	30068	
4078	0	30092	
4079	0	30112	
4080	0	30106	
4081	0	30088	
4082	0	30068	
4083	0	30108	
4084	0	30128	
4085	0	30184	
4086	0	30236	
4087	0	30280	
4088	0	30328	
4089	0	30362	
4090	0	30400	
4091	0	30480	
4092	0	30520	
4093	0	30572	
4094	0	30612	
4095	0	30666	
4096	0	30740	
4097	0	30768	
4098	0	30804	
4099	0	30812	
4100	0	30884	
4101	0	30924	
4102	0	30920	
4103	0	30952	
4104	0	31016	
4105	0	31076	
4106	0	31116	
4107	0	31136	
4108	0	31148	
4109	0	31136	
4110	0	31160	
4111	0	31172	
4112	0	31172	
4113	0	31220	
4114	0	31276	
4115	0	31320	
4116	0	31332	
4117	0	31352	
4118	0	31404	
4119	0	31464	
4120	0	31452	
4121	0	31428	
4122	0	31440	
4123	0	31488	
4124	0	31532	
4125	0	31556	
4126	0	31556	
4127	0	31604	
4128	0	31652	
4129	0	31684	
4130	0	31724	
4131	0	31732	
4132	0	31724	
4133	0	31768	
4134	0	31806	
4135	0	31804	
4136	0	31796	
4137	0	31810	
4138	0	31836	
4139	0	31880	
4140	0	31960	
4141	0	31984	
4142	0	31988	
4143	0	31952	
4144	0	31940	
4145	0	31960	
4146	0	32028	
4147	0	32096	
4148	0	32132	
4149	0	32148	
4150	0	32120	
4151	0	32084	
4152	0	32052	
4153	0	32040	
4154	0	32084	
4155	0	32104	
4156	0	32096	
4157	0	32100	
4158	0	32080	
4159	0	32064	
4160	0	32018	
4161	0	31998	
4162	0	32040	
4163	0	32112	
4164	0	32148	
4165	0	32152	
4166	0	32160	
4167	0	32188	
4168	0	32256	
4169	0	32320	
4170	0	32384	
4171	0	32380	
4172	0	32328	
4173	0	32272	
4174	0	32212	
4175	0	32184	
4176	0	32196	
4177	0	32236	
4178	0	32228	
4179	0	32224	
4180	0	32232	
4181	0	32260	
4182	0	32252	
4183	0	32276	
4184	0	32304	
4185	0	32352	
4186	0	32364	
4187	0	32320	
4188	0	32288	
4189	0	32292	
4190	0	32288	
4191	0	32296	
4192	0	32284	
4193	0	32252	
4194	0	32244	
4195	0	32244	
4196	0	32224	
4197	0	32208	
4198	0	32180	
4199	0	32112	
4200	0	32116	
4201	0	32132	
4202	0	32136	
4203	0	32174	
4204	0	32224	
4205	0	32232	
4206	0	32232	
4207	0	32240	
4208	0	32268	
4209	0	32328	
4210	0	32340	
4211	0	32306	
4212	0	32288	
4213	0	32296	
4214	0	32288	
4215	0	32276	
4216	0	32264	
4217	0	32290	
4218	0	32356	
4219	0	32444	
4220	0	32548	
4221	0	32658	
4222	0	32708	
4223	0	32768	
4224	0	32868	
4225	0	32964	
4226	0	33038	
4227	0	33160	
4228	0	33288	
4229	0	33384	
4230	0	33388	
4231	0	33392	
4232	0	33372	
4233	0	33344	
4234	0	33328	
4235	0	33276	
4236	0	33204	
4237	0	33164	
4238	0	33144	
4239	0	33124	
4240	0	33160	
4241	0	33220	
4242	0	33260	
4243	0	33264	
4244	0	33274	
4245	0	33376	
4246	0	33560	
4247	0	33824	
4248	0	34128	
4249	0	34404	
4250	0	34652	
4251	0	34856	
4252	0	35014	
4253	0	35168	
4254	0	35320	
4255	0	35480	
4256	0	35664	
4257	0	35750	
4258	0	35680	
4259	0	35552	
4260	0	35408	
4261	0	35260	
4262	0	35120	
4263	0	35024	
4264	0	34954	
4265	0	34852	
4266	0	34684	
4267	0	34572	
4268	0	34428	
4269	0	34272	
4270	0	34112	
4271	0	33972	
4272	0	33816	
4273	0	33664	
4274	0	33512	
4275	0	33368	
4276	0	33204	
4277	0	33108	
4278	0	33044	
4279	0	32952	
4280	0	32852	
4281	0	32748	
4282	0	32608	
4283	0	32492	
4284	0	32428	
4285	0	32352	
4286	0	32244	
4287	0	32178	
4288	0	32144	
4289	0	32152	
4290	0	32116	
4291	0	32028	
4292	0	31900	
4293	0	31752	
4294	0	31628	
4295	0	31512	
4296	0	31376	
4297	0	31224	
4298	0	31052	
4299	0	30952	
4300	0	30916	
4301	0	30904	
4302	0	30872	
4303	0	30856	
4304	0	30876	
4305	0	30922	
4306	0	30992	
4307	0	31064	
4308	0	31108	
4309	0	31128	
4310	0	31144	
4311	0	31156	
4312	0	31188	
4313	0	31228	
4314	0	31270	
4315	0	31312	
4316	0	31312	
4317	0	31322	
4318	0	31348	
4319	0	31394	
4320	0	31436	
4321	0	31472	
4322	0	31520	
4323	0	31568	
4324	0	31624	
4325	0	31640	
4326	0	31636	
4327	0	31652	
4328	0	31668	
4329	0	31628	
4330	0	31552	
4331	0	31528	
4332	0	31516	
4333	0	31560	
4334	0	31648	
4335	0	31700	
4336	0	31720	
4337	0	31668	
4338	0	31640	
4339	0	31576	
4340	0	31348	
4341	0	31052	
4342	0	30640	
4343	0	30064	
4344	0	29300	
4345	0	28516	
4346	0	27912	
4347	0	27482	
4348	0	27272	
4349	0	27262	
4350	0	27480	
4351	0	27940	
4352	0	28698	
4353	0	29728	
4354	0	30968	
4355	0	32464	
4356	0	34156	
4357	0	36056	
4358	0	38132	
4359	0	40600	
4360	0	43516	
4361	0	46832	
4362	0	50736	
4363	0	54900	
4364	0	58944	
4365	0	62048	
4366	0	63716	
4367	0	64576	
4368	0	64992	
4369	0	65164	
4370	0	65184	
4371	0	65152	
4372	0	65056	
4373	0	64936	
4374	0	64828	
4375	0	64704	
4376	0	64568	
4377	0	64448	
4378	0	59976	
4379	0	54800	
4380	0	50620	
4381	0	47112	
4382	0	44192	
4383	0	41556	
4384	0	39130	
4385	0	36980	
4386	0	35220	
4387	0	33808	
4388	0	32552	
4389	0	31448	
4390	0	30484	
4391	0	29728	
4392	0	29088	
4393	0	28640	
4394	0	28408	
4395	0	28236	
4396	0	27960	
4397	0	27708	
4398	0	27468	
4399	0	27296	
4400	0	27232	
4401	0	27292	
4402	0	27416	
4403	0	27600	
4404	0	27816	
4405	0	28040	
4406	0	28204	
4407	0	28312	
4408	0	28400	
4409	0	28434	
4410	0	28440	
4411	0	28462	
4412	0	28456	
4413	0	28352	
4414	0	28282	
4415	0	28256	
4416	0	28246	
4417	0	28278	
4418	0	28272	
4419	0	28292	
4420	0	28316	
4421	0	28336	
4422	0	28308	
4423	0	28272	
4424	0	28308	
4425	0	28388	
4426	0	28464	
4427	0	28544	
4428	0	28602	
4429	0	28656	
4430	0	28664	
4431	0	28648	
4432	0	28616	
4433	0	28568	
4434	0	28588	
4435	0	28612	
4436	0	28620	
4437	0	28636	
4438	0	28692	
4439	0	28740	
4440	0	28780	
4441	0	28868	
4442	0	28980	
4443	0	29036	
4444	0	29076	
4445	0	29140	
4446	0	29212	
4447	0	29272	
4448	0	29328	
4449	0	29388	
4450	0	29380	
4451	0	29448	
4452	0	29512	
4453	0	29550	
4454	0	29628	
4455	0	29696	
4456	0	29712	
4457	0	29754	
4458	0	29816	
4459	0	29856	
4460	0	29908	
4461	0	29980	
4462	0	30016	
4463	0	30084	
4464	0	30140	
4465	0	30178	
4466	0	30200	
4467	0	30274	
4468	0	30324	
4469	0	30424	
4470	0	30532	
4471	0	30620	
4472	0	30692	
4473	0	30792	
4474	0	30852	
4475	0	30872	
4476	0	30912	
4477	0	30912	
4478	0	30888	
4479	0	30914	
4480	0	30952	
4481	0	31020	
4482	0	31108	
4483	0	31168	
4484	0	31212	
4485	0	31252	
4486	0	31336	
4487	0	31460	
4488	0	31556	
4489	0	31648	
4490	0	31706	
4491	0	31740	
4492	0	31764	
4493	0	31780	
4494	0	31848	
4495	0	31924	
4496	0	31978	
4497	0	32020	
4498	0	32056	
4499	0	32116	
4500	0	32186	
4501	0	32254	
4502	0	32304	
4503	0	32360	
4504	0	32412	
4505	0	32428	
4506	0	32470	
4507	0	32552	
4508	0	32612	
4509	0	32640	
4510	0	32638	
4511	0	32656	
4512	0	32704	
4513	0	32732	
4514	0	32776	
4515	0	32860	
4516	0	32952	
4517	0	33036	
4518	0	33112	
4519	0	33200	
4520	0	33312	
4521	0	33336	
4522	0	33352	
4523	0	33380	
4524	0	33432	
4525	0	33536	
4526	0	33652	
4527	0	33728	
4528	0	33792	
4529	0	33868	
4530	0	33936	
4531	0	33992	
4532	0	34048	
4533	0	34100	
4534	0	34172	
4535	0	34248	
4536	0	34328	
4537	0	34372	
4538	0	34412	
4539	0	34452	
4540	0	34496	
4541	0	34540	
4542	0	34560	
4543	0	34628	
4544	0	34728	
4545	0	34828	
4546	0	34892	
4547	0	34946	
4548	0	35052	
4549	0	35120	
4550	0	35124	
4551	0	35128	
4552	0	35184	
4553	0	35252	
4554	0	35316	
4555	0	35376	
4556	0	35416	
4557	0	35512	
4558	0	35532	
4559	0	35536	
4560	0	35548	
4561	0	35592	
4562	0	35628	
4563	0	35616	
4564	0	35576	
4565	0	35564	
4566	0	35592	
4567	0	35664	
4568	0	35720	
4569	0	35740	
4570	0	35772	
4571	0	35740	
4572	0	35712	
4573	0	35696	
4574	0	35668	
4575	0	35638	
4576	0	35636	
4577	0	35584	
4578	0	35572	
4579	0	35556	
4580	0	35584	
4581	0	35556	
4582	0	35528	
4583	0	35480	
4584	0	35446	
4585	0	35408	
4586	0	35412	
4587	0	35420	
4588	0	35404	
4589	0	35360	
4590	0	35352	
4591	0	35356	
4592	0	35344	
4593	0	35244	
4594	0	35144	
4595	0	35060	
4596	0	34992	
4597	0	34988	
4598	0	34916	
4599	0	34800	
4600	0	34696	
4601	0	34576	
4602	0	34420	
4603	0	34264	
4604	0	34172	
4605	0	34060	
4606	0	33938	
4607	0	33844	
4608	0	33660	
4609	0	33452	
4610	0	33276	
4611	0	33168	
4612	0	33068	
4613	0	33008	
4614	0	32896	
4615	0	32756	
4616	0	32600	
4617	0	32424	
4618	0	32240	
4619	0	32068	
4620	0	31896	
4621	0	31752	
4622	0	31588	
4623	0	31440	
4624	0	31336	
4625	0	31228	
4626	0	31164	
4627	0	31092	
4628	0	30964	
4629	0	30804	
4630	0	30656	
4631	0	30540	
4632	0	30428	
4633	0	30280	
4634	0	30186	
4635	0	30144	
4636	0	30072	
4637	0	30016	
4638	0	29948	
4639	0	29860	
4640	0	29732	
4641	0	29652	
4642	0	29590	
4643	0	29572	
4644	0	29532	
4645	0	29456	
4646	0	29440	
4647	0	29380	
4648	0	29324	
4649	0	29300	
4650	0	29280	
4651	0	29242	
4652	0	29232	
4653	0	29236	
4654	0	29196	
4655	0	29164	
4656	0	29142	
4657	0	29148	
4658	0	29168	
4659	0	29188	
4660	0	29164	
4661	0	29100	
4662	0	29096	
4663	0	29118	
4664	0	29120	
4665	0	29124	
4666	0	29116	
4667	0	29096	
4668	0	29116	
4669	0	29162	
4670	0	29184	
4671	0	29208	
4672	0	29236	
4673	0	29306	
4674	0	29338	
4675	0	29344	
4676	0	29364	
4677	0	29368	
4678	0	29388	
4679	0	29410	
4680	0	29412	
4681	0	29480	
4682	0	29560	
4683	0	29620	
4684	0	29644	
4685	0	29676	
4686	0	29656	
4687	0	29656	
4688	0	29652	
4689	0	29696	
4690	0	29778	
4691	0	29864	
4692	0	29944	
4693	0	30004	
4694	0	30040	
4695	0	30088	
4696	0	30128	
4697	0	30164	
4698	0	30178	
4699	0	30210	
4700	0	30228	
4701	0	30260	
4702	0	30322	
4703	0	30388	
4704	0	30452	
4705	0	30476	
4706	0	30508	
4707	0	30584	
4708	0	30640	
4709	0	30652	
4710	0	30656	
4711	0	30652	
4712	0	30640	
4713	0	30696	
4714	0	30820	
4715	0	30908	
4716	0	30952	
4717	0	30964	
4718	0	30960	
4719	0	30924	
4720	0	30962	
4721	0	31000	
4722	0	31052	
4723	0	31128	
4724	0	31172	
4725	0	31244	
4726	0	31304	
4727	0	31320	
4728	0	31356	
4729	0	31440	
4730	0	31500	
4731	0	31544	
4732	0	31560	
4733	0	31618	
4734	0	31652	
4735	0	31668	
4736	0	31688	
4737	0	31700	
4738	0	31716	
4739	0	31712	
4740	0	31704	
4741	0	31676	
4742	0	31668	
4743	0	31704	
4744	0	31772	
4745	0	31856	
4746	0	31896	
4747	0	31928	
4748	0	31976	
4749	0	32020	
4750	0	32028	
4751	0	32024	
4752	0	32020	
4753	0	32044	
4754	0	32096	
4755	0	32128	
4756	0	32176	
4757	0	32200	
4758	0	32152	
4759	0	32110	
4760	0	32108	
4761	0	32108	
4762	0	32080	
4763	0	32096	
4764	0	32112	
4765	0	32132	
4766	0	32128	
4767	0	32132	
4768	0	32132	
4769	0	32144	
4770	0	32132	
4771	0	32116	
4772	0	32140	
4773	0	32184	
4774	0	32228	
4775	0	32296	
4776	0	32344	
4777	0	32368	
4778	0	32372	
4779	0	32368	
4780	0	32364	
4781	0	32360	
4782	0	32392	
4783	0	32432	
4784	0	32448	
4785	0	32408	
4786	0	32336	
4787	0	32316	
4788	0	32298	
4789	0	32308	
4790	0	32320	
4791	0	32304	
4792	0	32288	
4793	0	32322	
4794	0	32412	
4795	0	32458	
4796	0	32464	
4797	0	32488	
4798	0	32534	
4799	0	32516	
4800	0	32468	
4801	0	32416	
4802	0	32336	
4803	0	32244	
4804	0	32208	
4805	0	32256	
4806	0	32288	
4807	0	32280	
4808	0	32276	
4809	0	32280	
4810	0	32252	
4811	0	32208	
4812	0	32210	
4813	0	32188	
4814	0	32192	
4815	0	32216	
4816	0	32224	
4817	0	32212	
4818	0	32198	
4819	0	32160	
4820	0	32148	
4821	0	32148	
4822	0	32168	
4823	0	32208	
4824	0	32216	
4825	0	32256	
4826	0	32312	
4827	0	32320	
4828	0	32320	
4829	0	32362	
4830	0	32420	
4831	0	32452	
4832	0	32472	
4833	0	32464	
4834	0	32490	
4835	0	32560	
4836	0	32632	
4837	0	32688	
4838	0	32680	
4839	0	32672	
4840	0	32684	
4841	0	32752	
4842	0	32840	
4843	0	32992	
4844	0	33112	
4845	0	33244	
4846	0	33364	
4847	0	33420	
4848	0	33420	
4849	0	33396	
4850	0	33380	
4851	0	33368	
4852	0	33352	
4853	0	33342	
4854	0	33264	
4855	0	33172	
4856	0	33120	
4857	0	33114	
4858	0	33160	
4859	0	33184	
4860	0	33204	
4861	0	33256	
4862	0	33384	
4863	0	33604	
4864	0	33900	
4865	0	34176	
4866	0	34420	
4867	0	34612	
4868	0	34756	
4869	0	34920	
4870	0	35104	
4871	0	35304	
4872	0	35480	
4873	0	35568	
4874	0	35608	
4875	0	35608	
4876	0	35516	
4877	0	35384	
4878	0	35240	
4879	0	35130	
4880	0	35038	
4881	0	34924	
4882	0	34772	
4883	0	34644	
4884	0	34488	
4885	0	34332	
4886	0	34210	
4887	0	34124	
4888	0	33980	
4889	0	33848	
4890	0	33632	
4891	0	33440	
4892	0	33268	
4893	0	33116	
4894	0	33044	
4895	0	32997	
4896	0	32928	
4897	0	32828	
4898	0	32732	
4899	0	32668	
4900	0	32612	
4901	0	32548	
4902	0	32488	
4903	0	32412	
4904	0	32288	
4905	0	32176	
4906	0	32144	
4907	0	32084	
4908	0	31980	
4909	0	31888	
4910	0	31840	
4911	0	31760	
4912	0	31696	
4913	0	31572	
4914	0	31420	
4915	0	31280	
4916	0	31172	
4917	0	31116	
4918	0	31108	
4919	0	31108	
4920	0	31152	
4921	0	31184	
4922	0	31212	
4923	0	31204	
4924	0	31236	
4925	0	31284	
4926	0	31328	
4927	0	31352	
4928	0	31376	
4929	0	31368	
4930	0	31304	
4931	0	31194	
4932	0	31176	
4933	0	31188	
4934	0	31204	
4935	0	31260	
4936	0	31352	
4937	0	31432	
4938	0	31472	
4939	0	31508	
4940	0	31548	
4941	0	31540	
4942	0	31548	
4943	0	31586	
4944	0	31636	
4945	0	31668	
4946	0	31712	
4947	0	31744	
4948	0	31782	
4949	0	31808	
4950	0	31840	
4951	0	31876	
4952	0	31928	
4953	0	31888	
4954	0	31864	
4955	0	31802	
4956	0	31636	
4957	0	31400	
4958	0	30996	
4959	0	30432	
4960	0	29736	
4961	0	28960	
4962	0	28228	
4963	0	27684	
4964	0	27384	
4965	0	27244	
4966	0	27300	
4967	0	27576	
4968	0	28180	
4969	0	29064	
4970	0	30156	
4971	0	31480	
4972	0	33064	
4973	0	34844	
4974	0	36800	
4975	0	39066	
4976	0	41780	
4977	0	44952	
4978	0	48624	
4979	0	52764	
4980	0	56828	
4981	0	60568	
4982	0	62928	
4983	0	64164	
4984	0	64772	
4985	0	65064	
4986	0	65144	
4987	0	65128	
4988	0	65064	
4989	0	64976	
4990	0	64864	
4991	0	64752	
4992	0	64608	
4993	0	64472	
4994	0	61168	
4995	0	55672	
4996	0	51276	
4997	0	47640	
4998	0	44652	
4999	0	42036	
5000	0	39584	
5001	0	37392	
5002	0	35432	
5003	0	33776	
5004	0	32414	
5005	0	31264	
5006	0	30252	
5007	0	29500	
5008	0	28904	
5009	0	28484	
5010	0	28250	
5011	0	28092	
5012	0	27872	
5013	0	27636	
5014	0	27444	
5015	0	27376	
5016	0	27424	
5017	0	27544	
5018	0	27712	
5019	0	27880	
5020	0	28048	
5021	0	28224	
5022	0	28412	
5023	0	28576	
5024	0	28728	
5025	0	28768	
5026	0	28740	
5027	0	28704	
5028	0	28668	
5029	0	28652	
5030	0	28632	
5031	0	28584	
5032	0	28528	
5033	0	28504	
5034	0	28512	
5035	0	28512	
5036	0	28488	
5037	0	28484	
5038	0	28500	
5039	0	28492	
5040	0	28524	
5041	0	28496	
5042	0	28508	
5043	0	28544	
5044	0	28600	
5045	0	28636	
5046	0	28740	
5047	0	28772	
5048	0	28776	
5049	0	28804	
5050	0	28860	
5051	0	28928	
5052	0	29020	
5053	0	29080	
5054	0	29108	
5055	0	29146	
5056	0	29164	
5057	0	29132	
5058	0	29104	
5059	0	29148	
5060	0	29242	
5061	0	29340	
5062	0	29390	
5063	0	29442	
5064	0	29504	
5065	0	29564	
5066	0	29662	
5067	0	29736	
5068	0	29738	
5069	0	29764	
5070	0	29824	
5071	0	29914	
5072	0	29960	
5073	0	29964	
5074	0	29978	
5075	0	30040	
5076	0	30096	
5077	0	30144	
5078	0	30174	
5079	0	30220	
5080	0	30276	
5081	0	30344	
5082	0	30420	
5083	0	30456	
5084	0	30532	
5085	0	30520	
5086	0	30504	
5087	0	30520	
5088	0	30618	
5089	0	30740	
5090	0	30824	
5091	0	30874	
5092	0	30920	
5093	0	30992	
5094	0	31064	
5095	0	31156	
5096	0	31244	
5097	0	31276	
5098	0	31352	
5099	0	31424	
5100	0	31464	
5101	0	31488	
5102	0	31516	
5103	0	31532	
5104	0	31568	
5105	0	31656	
5106	0	31754	
5107	0	31804	
5108	0	31876	
5109	0	31936	
5110	0	31992	
5111	0	32084	
5112	0	32124	
5113	0	32148	
5114	0	32202	
5115	0	32256	
5116	0	32296	
5117	0	32328	
5118	0	32356	
5119	0	32388	
5120	0	32386	
5121	0	32432	
5122	0	32492	
5123	0	32544	
5124	0	32648	
5125	0	32764	
5126	0	32864	
5127	0	32880	
5128	0	32916	
5129	0	32988	
5130	0	33080	
5131	0	33128	
5132	0	33192	
5133	0	33212	
5134	0	33192	
5135	0	33216	
5136	0	33301	
5137	0	33376	
5138	0	33432	
5139	0	33500	
5140	0	33556	
5141	0	33594	
5142	0	33660	
5143	0	33752	
5144	0	33824	
5145	0	33932	
5146	0	34044	
5147	0	34168	
5148	0	34224	
5149	0	34268	
5150	0	34352	
5151	0	34384	
5152	0	34404	
5153	0	34496	
5154	0	34548	
5155	0	34588	
5156	0	34632	
5157	0	34664	
5158	0	34696	
5159	0	34780	
5160	0	34852	
5161	0	34880	
5162	0	34924	
5163	0	34972	
5164	0	35048	
5165	0	35108	
5166	0	35112	
5167	0	35164	
5168	0	35264	
5169	0	35388	
5170	0	35468	
5171	0	35516	
5172	0	35520	
5173	0	35524	
5174	0	35544	
5175	0	35528	
5176	0	35552	
5177	0	35588	
5178	0	35596	
5179	0	35596	
5180	0	35628	
5181	0	35620	
5182	0	35588	
5183	0	35544	
5184	0	35524	
5185	0	35520	
5186	0	35448	
5187	0	35424	
5188	0	35460	
5189	0	35512	
5190	0	35564	
5191	0	35596	
5192	0	35604	
5193	0	35560	
5194	0	35512	
5195	0	35456	
5196	0	35384	
5197	0	35320	
5198	0	35326	
5199	0	35312	
5200	0	35276	
5201	0	35248	
5202	0	35208	
5203	0	35172	
5204	0	35132	
5205	0	35116	
5206	0	35108	
5207	0	35120	
5208	0	35096	
5209	0	35104	
5210	0	35040	
5211	0	34932	
5212	0	34872	
5213	0	34760	
5214	0	34692	
5215	0	34656	
5216	0	34576	
5217	0	34516	
5218	0	34472	
5219	0	34370	
5220	0	34288	
5221	0	34200	
5222	0	34056	
5223	0	33888	
5224	0	33740	
5225	0	33600	
5226	0	33480	
5227	0	33344	
5228	0	33192	
5229	0	33048	
5230	0	32912	
5231	0	32784	
5232	0	32688	
5233	0	32568	
5234	0	32416	
5235	0	32284	
5236	0	32168	
5237	0	32030	
5238	0	31872	
5239	0	31764	
5240	0	31640	
5241	0	31552	
5242	0	31444	
5243	0	31300	
5244	0	31164	
5245	0	31016	
5246	0	30872	
5247	0	30744	
5248	0	30652	
5249	0	30528	
5250	0	30444	
5251	0	30372	
5252	0	30280	
5253	0	30218	
5254	0	30112	
5255	0	30016	
5256	0	29920	
5257	0	29860	
5258	0	29832	
5259	0	29760	
5260	0	29744	
5261	0	29736	
5262	0	29684	
5263	0	29628	
5264	0	29576	
5265	0	29546	
5266	0	29484	
5267	0	29420	
5268	0	29368	
5269	0	29368	
5270	0	29404	
5271	0	29406	
5272	0	29408	
5273	0	29400	
5274	0	29416	
5275	0	29436	
5276	0	29468	
5277	0	29456	
5278	0	29428	
5279	0	29404	
5280	0	29424	
5281	0	29444	
5282	0	29452	
5283	0	29456	
5284	0	29444	
5285	0	29424	
5286	0	29378	
5287	0	29348	
5288	0	29304	
5289	0	29316	
5290	0	29368	
5291	0	29444	
5292	0	29488	
5293	0	29484	
5294	0	29488	
5295	0	29468	
5296	0	29528	
5297	0	29612	
5298	0	29648	
5299	0	29648	
5300	0	29692	
5301	0	29754	
5302	0	29822	
5303	0	29908	
5304	0	29984	
5305	0	30008	
5306	0	30018	
5307	0	30078	
5308	0	30162	
5309	0	30228	
5310	0	30300	
5311	0	30316	
5312	0	30328	
5313	0	30366	
5314	0	30436	
5315	0	30476	
5316	0	30496	
5317	0	30492	
5318	0	30496	
5319	0	30532	
5320	0	30580	
5321	0	30592	
5322	0	30672	
5323	0	30776	
5324	0	30808	
5325	0	30804	
5326	0	30832	
5327	0	30852	
5328	0	30904	
5329	0	30964	
5330	0	31044	
5331	0	31104	
5332	0	31136	
5333	0	31136	
5334	0	31162	
5335	0	31200	
5336	0	31292	
5337	0	31328	
5338	0	31358	
5339	0	31400	
5340	0	31452	
5341	0	31456	
5342	0	31432	
5343	0	31396	
5344	0	31384	
5345	0	31396	
5346	0	31424	
5347	0	31436	
5348	0	31444	
5349	0	31444	
5350	0	31468	
5351	0	31496	
5352	0	31560	
5353	0	31592	
5354	0	31656	
5355	0	31684	
5356	0	31744	
5357	0	31812	
5358	0	31848	
5359	0	31880	
5360	0	31916	
5361	0	31928	
5362	0	31936	
5363	0	31946	
5364	0	31992	
5365	0	32066	
5366	0	32088	
5367	0	32104	
5368	0	32100	
5369	0	32130	
5370	0	32148	
5371	0	32096	
5372	0	32088	
5373	0	32100	
5374	0	32112	
5375	0	32144	
5376	0	32180	
5377	0	32206	
5378	0	32204	
5379	0	32184	
5380	0	32168	
5381	0	32144	
5382	0	32144	
5383	0	32196	
5384	0	32264	
5385	0	32280	
5386	0	32360	
5387	0	32448	
5388	0	32388	
5389	0	32352	
5390	0	32332	
5391	0	32288	
5392	0	32192	
5393	0	32128	
5394	0	32100	
5395	0	32128	
5396	0	32168	
5397	0	32186	
5398	0	32180	
5399	0	32188	
5400	0	32216	
5401	0	32236	
5402	0	32292	
5403	0	32280	
5404	0	32276	
5405	0	32292	
5406	0	32296	
5407	0	32288	
5408	0	32304	
5409	0	32296	
5410	0	32336	
5411	0	32348	
5412	0	32320	
5413	0	32308	
5414	0	32292	
5415	0	32260	
5416	0	32252	
5417	0	32266	
5418	0	32288	
5419	0	32296	
5420	0	32288	
5421	0	32268	
5422	0	32260	
5423	0	32208	
5424	0	32176	
5425	0	32150	
5426	0	32136	
5427	0	32164	
5428	0	32216	
5429	0	32260	
5430	0	32280	
5431	0	32276	
5432	0	32248	
5433	0	32224	
5434	0	32232	
5435	0	32218	
5436	0	32236	
5437	0	32244	
5438	0	32268	
5439	0	32266	
5440	0	32268	
5441	0	32288	
5442	0	32280	
5443	0	32272	
5444	0	32248	
5445	0	32232	
5446	0	32220	
5447	0	32204	
5448	0	32236	
5449	0	32292	
5450	0	32284	
5451	0	32288	
5452	0	32272	
5453	0	32234	
5454	0	32220	
5455	0	32232	
5456	0	32258	
5457	0	32260	
5458	0	32212	
5459	0	32176	
5460	0	32112	
5461	0	32080	
5462	0	32120	
5463	0	32156	
5464	0	32204	
5465	0	32260	
5466	0	32282	
5467	0	32296	
5468	0	32340	
5469	0	32400	
5470	0	32448	
5471	0	32492	
5472	0	32604	
5473	0	32740	
5474	0	32796	
5475	0	32824	
5476	0	32880	
5477	0	32992	
5478	0	33070	
5479	0	33112	
5480	0	33228	
5481	0	33324	
5482	0	33324	
5483	0	33280	
5484	0	33240	
5485	0	33216	
5486	0	33208	
5487	0	33216	
5488	0	33224	
5489	0	33236	
5490	0	33208	
5491	0	33168	
5492	0	33220	
5493	0	33312	
5494	0	33344	
5495	0	33390	
5496	0	33404	
5497	0	33380	
5498	0	33500	
5499	0	33716	
5500	0	33972	
5501	0	34232	
5502	0	34512	
5503	0	34656	
5504	0	34738	
5505	0	34788	
5506	0	34876	
5507	0	35012	
5508	0	35164	
5509	0	35288	
5510	0	35312	
5511	0	35288	
5512	0	35276	
5513	0	35204	
5514	0	35080	
5515	0	34968	
5516	0	34816	
5517	0	34684	
5518	0	34552	
5519	0	34472	
5520	0	34392	
5521	0	34248	
5522	0	34100	
5523	0	33964	
5524	0	33808	
5525	0	33680	
5526	0	33548	
5527	0	33372	
5528	0	33216	
5529	0	33124	
5530	0	33068	
5531	0	33018	
5532	0	32956	
5533	0	32832	
5534	0	32720	
5535	0	32664	
5536	0	32588	
5537	0	32472	
5538	0	32348	
5539	0	32276	
5540	0	32208	
5541	0	32140	
5542	0	32028	
5543	0	31914	
5544	0	31804	
5545	0	31724	
5546	0	31672	
5547	0	31608	
5548	0	31504	
5549	0	31444	
5550	0	31384	
5551	0	31336	
5552	0	31316	
5553	0	31284	
5554	0	31248	
5555	0	31260	
5556	0	31240	
5557	0	31164	
5558	0	31076	
5559	0	31080	
5560	0	31116	
5561	0	31128	
5562	0	31180	
5563	0	31232	
5564	0	31296	
5565	0	31340	
5566	0	31350	
5567	0	31344	
5568	0	31349	
5569	0	31344	
5570	0	31344	
5571	0	31344	
5572	0	31412	
5573	0	31520	
5574	0	31556	
5575	0	31588	
5576	0	31620	
5577	0	31676	
5578	0	31736	
5579	0	31728	
5580	0	31732	
5581	0	31780	
5582	0	31796	
5583	0	31826	
5584	0	31876	
5585	0	31898	
5586	0	31896	
5587	0	31880	
5588	0	31884	
5589	0	31876	
5590	0	31864	
5591	0	31784	
5592	0	31660	
5593	0	31444	
5594	0	31108	
5595	0	30572	
5596	0	29920	
5597	0	29160	
5598	0	28472	
5599	0	27944	
5600	0	27592	
5601	0	27408	
5602	0	27432	
5603	0	27680	
5604	0	28232	
5605	0	29148	
5606	0	30292	
5607	0	31618	
5608	0	33160	
5609	0	34910	
5610	0	36856	
5611	0	39084	
5612	0	41778	
5613	0	44928	
5614	0	48552	
5615	0	52576	
5616	0	56608	
5617	0	60352	
5618	0	62760	
5619	0	64020	
5620	0	64672	
5621	0	64960	
5622	0	65024	
5623	0	65032	
5624	0	64968	
5625	0	64864	
5626	0	64744	
5627	0	64636	
5628	0	64488	
5629	0	64376	
5630	0	60384	
5631	0	55040	
5632	0	50716	
5633	0	47124	
5634	0	44128	
5635	0	41524	
5636	0	39060	
5637	0	36840	
5638	0	34864	
5639	0	33164	
5640	0	31756	
5641	0	30568	
5642	0	29528	
5643	0	28756	
5644	0	28160	
5645	0	27764	
5646	0	27548	
5647	0	27428	
5648	0	27250	
5649	0	27140	
5650	0	27104	
5651	0	27120	
5652	0	27252	
5653	0	27424	
5654	0	27604	
5655	0	27840	
5656	0	28124	
5657	0	28376	
5658	0	28564	
5659	0	28728	
5660	0	28814	
5661	0	28860	
5662	0	28860	
5663	0	28820	
5664	0	28770	
5665	0	28704	
5666	0	28652	
5667	0	28630	
5668	0	28640	
5669	0	28676	
5670	0	28660	
5671	0	28612	
5672	0	28620	
5673	0	28616	
5674	0	28600	
5675	0	28620	
5676	0	28640	
5677	0	28648	
5678	0	28682	
5679	0	28716	
5680	0	28760	
5681	0	28840	
5682	0	28896	
5683	0	28892	
5684	0	28836	
5685	0	28796	
5686	0	28818	
5687	0	28880	
5688	0	28932	
5689	0	29028	
5690	0	29120	
5691	0	29216	
5692	0	29276	
5693	0	29312	
5694	0	29348	
5695	0	29436	
5696	0	29504	
5697	0	29528	
5698	0	29544	
5699	0	29520	
5700	0	29484	
5701	0	29464	
5702	0	29488	
5703	0	29516	
5704	0	29524	
5705	0	29570	
5706	0	29636	
5707	0	29696	
5708	0	29736	
5709	0	29768	
5710	0	29852	
5711	0	29988	
5712	0	30072	
5713	0	30124	
5714	0	30192	
5715	0	30240	
5716	0	30272	
5717	0	30340	
5718	0	30398	
5719	0	30460	
5720	0	30520	
5721	0	30576	
5722	0	30656	
5723	0	30700	
5724	0	30754	
5725	0	30784	
5726	0	30820	
5727	0	30872	
5728	0	30940	
5729	0	31008	
5730	0	31080	
5731	0	31156	
5732	0	31224	
5733	0	31294	
5734	0	31340	
5735	0	31398	
5736	0	31440	
5737	0	31472	
5738	0	31544	
5739	0	31616	
5740	0	31620	
5741	0	31664	
5742	0	31720	
5743	0	31712	
5744	0	31736	
5745	0	31776	
5746	0	31776	
5747	0	31752	
5748	0	31778	
5749	0	31808	
5750	0	31880	
5751	0	31944	
5752	0	32096	
5753	0	32220	
5754	0	32248	
5755	0	32228	
5756	0	32256	
5757	0	32342	
5758	0	32444	
5759	0	32528	
5760	0	32592	
5761	0	32660	
5762	0	32768	
5763	0	32888	
5764	0	32968	
5765	0	33040	
5766	0	33064	
5767	0	33108	
5768	0	33136	
5769	0	33184	
5770	0	33218	
5771	0	33260	
5772	0	33264	
5773	0	33250	
5774	0	33280	
5775	0	33320	
5776	0	33384	
5777	0	33464	
5778	0	33584	
5779	0	33672	
5780	0	33736	
5781	0	33784	
5782	0	33860	
5783	0	33924	
5784	0	33972	
5785	0	34056	
5786	0	34120	
5787	0	34204	
5788	0	34312	
5789	0	34412	
5790	0	34484	
5791	0	34522	
5792	0	34564	
5793	0	34612	
5794	0	34656	
5795	0	34712	
5796	0	34764	
5797	0	34792	
5798	0	34812	
5799	0	34880	
5800	0	34960	
5801	0	35008	
5802	0	35092	
5803	0	35136	
5804	0	35200	
5805	0	35216	
5806	0	35200	
5807	0	35216	
5808	0	35276	
5809	0	35320	
5810	0	35306	
5811	0	35272	
5812	0	35288	
5813	0	35308	
5814	0	35344	
5815	0	35376	
5816	0	35380	
5817	0	35408	
5818	0	35436	
5819	0	35434	
5820	0	35404	
5821	0	35368	
5822	0	35380	
5823	0	35402	
5824	0	35344	
5825	0	35280	
5826	0	35260	
5827	0	35280	
5828	0	35264	
5829	0	35260	
5830	0	35264	
5831	0	35256	
5832	0	35258	
5833	0	35280	
5834	0	35272	
5835	0	35236	
5836	0	35176	
5837	0	35136	
5838	0	35124	
5839	0	35104	
5840	0	35072	
5841	0	35024	
5842	0	35008	
5843	0	34992	
5844	0	34984	
5845	0	34964	
5846	0	34904	
5847	0	34826	
5848	0	34740	
5849	0	34692	
5850	0	34676	
5851	0	34636	
5852	0	34532	
5853	0	34432	
5854	0	34356	
5855	0	34244	
5856	0	34124	
5857	0	34044	
5858	0	33960	
5859	0	33824	
5860	0	33704	
5861	0	33620	
5862	0	33484	
5863	0	33320	
5864	0	33200	
5865	0	33136	
5866	0	33076	
5867	0	32964	
5868	0	32832	
5869	0	32656	
5870	0	32468	
5871	0	32316	
5872	0	32186	
5873	0	32068	
5874	0	31964	
5875	0	31824	
5876	0	31680	
5877	0	31528	
5878	0	31372	
5879	0	31240	
5880	0	31168	
5881	0	31060	
5882	0	30948	
5883	0	30856	
5884	0	30740	
5885	0	30646	
5886	0	30574	
5887	0	30528	
5888	0	30436	
5889	0	30344	
5890	0	30256	
5891	0	30192	
5892	0	30108	
5893	0	29972	
5894	0	29888	
5895	0	29860	
5896	0	29828	
5897	0	29808	
5898	0	29780	
5899	0	29740	
5900	0	29712	
5901	0	29644	
5902	0	29580	
5903	0	29476	
5904	0	29404	
5905	0	29376	
5906	0	29380	
5907	0	29378	
5908	0	29412	
5909	0	29440	
5910	0	29466	
5911	0	29472	
5912	0	29444	
5913	0	29408	
5914	0	29416	
5915	0	29408	
5916	0	29340	
5917	0	29313	
5918	0	29292	
5919	0	29296	
5920	0	29296	
5921	0	29304	
5922	0	29309	
5923	0	29330	
5924	0	29360	
5925	0	29396	
5926	0	29442	
5927	0	29480	
5928	0	29476	
5929	0	29508	
5930	0	29536	
5931	0	29564	
5932	0	29588	
5933	0	29634	
5934	0	29648	
5935	0	29716	
5936	0	29788	
5937	0	29876	
5938	0	29972	
5939	0	30044	
5940	0	30040	
5941	0	30052	
5942	0	30072	
5943	0	30058	
5944	0	30080	
5945	0	30088	
5946	0	30052	
5947	0	30044	
5948	0	30096	
5949	0	30152	
5950	0	30224	
5951	0	30312	
5952	0	30356	
5953	0	30424	
5954	0	30480	
5955	0	30540	
5956	0	30620	
5957	0	30716	
5958	0	30784	
5959	0	30848	
5960	0	30896	
5961	0	30928	
5962	0	30946	
5963	0	30956	
5964	0	30940	
5965	0	30920	
5966	0	30978	
5967	0	31036	
5968	0	31088	
5969	0	31140	
5970	0	31172	
5971	0	31228	
5972	0	31258	
5973	0	31292	
5974	0	31332	
5975	0	31364	
5976	0	31420	
5977	0	31424	
5978	0	31446	
5979	0	31476	
5980	0	31474	
5981	0	31472	
5982	0	31492	
5983	0	31498	
5984	0	31504	
5985	0	31536	
5986	0	31572	
5987	0	31620	
5988	0	31680	
5989	0	31724	
5990	0	31752	
5991	0	31792	
5992	0	31808	
5993	0	31820	
5994	0	31844	
5995	0	31916	
5996	0	31962	
5997	0	31964	
5998	0	31984	
5999	0	31990	
6000	0	32008	
6001	0	32032	
6002	0	32064	
6003	0	32080	
6004	0	32056	
6005	0	32060	
6006	0	32132	
6007	0	32180	
6008	0	32172	
6009	0	32184	
6010	0	32208	
6011	0	32200	
6012	0	32164	
6013	0	32148	
6014	0	32188	
6015	0	32188	
6016	0	32208	
6017	0	32204	
6018	0	32176	
6019	0	32164	
6020	0	32164	
6021	0	32152	
6022	0	32136	
6023	0	32152	
6024	0	32188	
6025	0	32228	
6026	0	32276	
6027	0	32280	
6028	0	32240	
6029	0	32272	
6030	0	32296	
6031	0	32288	
6032	0	32274	
6033	0	32296	
6034	0	32284	
6035	0	32276	
6036	0	32302	
6037	0	32308	
6038	0	32290	
6039	0	32280	
6040	0	32284	
6041	0	32280	
6042	0	32200	
6043	0	32178	
6044	0	32152	
6045	0	32154	
6046	0	32196	
6047	0	32196	
6048	0	32136	
6049	0	32120	
6050	0	32136	
6051	0	32140	
6052	0	32148	
6053	0	32164	
6054	0	32164	
6055	0	32148	
6056	0	32120	
6057	0	32128	
6058	0	32162	
6059	0	32194	
6060	0	32116	
6061	0	32056	
6062	0	32032	
6063	0	32068	
6064	0	32112	
6065	0	32116	
6066	0	32112	
6067	0	32120	
6068	0	32134	
6069	0	32132	
6070	0	32088	
6071	0	32016	
6072	0	31988	
6073	0	31992	
6074	0	32000	
6075	0	31996	
6076	0	31992	
6077	0	32016	
6078	0	32032	
6079	0	32068	
6080	0	32100	
6081	0	32104	
6082	0	32116	
6083	0	32068	
6084	0	32042	
6085	0	32044	
6086	0	32032	
6087	0	32020	
6088	0	32012	
6089	0	32052	
6090	0	32116	
6091	0	32132	
6092	0	32124	
6093	0	32104	
6094	0	32092	
6095	0	32102	
6096	0	32160	
6097	0	32168	
6098	0	32132	
6099	0	32124	
6100	0	32096	
6101	0	32056	
6102	0	32056	
6103	0	32052	
6104	0	32048	
6105	0	32048	
6106	0	32056	
6107	0	32094	
6108	0	32112	
6109	0	32112	
6110	0	32140	
6111	0	32172	
6112	0	32196	
6113	0	32188	
6114	0	32176	
6115	0	32220	
6116	0	32272	
6117	0	32324	
6118	0	32304	
6119	0	32288	
6120	0	32376	
6121	0	32476	
6122	0	32576	
6123	0	32680	
6124	0	32718	
6125	0	32740	
6126	0	32784	
6127	0	32832	
6128	0	32908	
6129	0	32988	
6130	0	33082	
6131	0	33184	
6132	0	33244	
6133	0	33272	
6134	0	33284	
6135	0	33306	
6136	0	33336	
6137	0	33312	
6138	0	33236	
6139	0	33216	
6140	0	33164	
6141	0	33100	
6142	0	33096	
6143	0	33112	
6144	0	33088	
6145	0	33096	
6146	0	33160	
6147	0	33316	
6148	0	33516	
6149	0	33728	
6150	0	33980	
6151	0	34204	
6152	0	34420	
6153	0	34580	
6154	0	34692	
6155	0	34744	
6156	0	34810	
6157	0	34936	
6158	0	35064	
6159	0	35112	
6160	0	35120	
6161	0	35028	
6162	0	34920	
6163	0	34808	
6164	0	34690	
6165	0	34626	
6166	0	34568	
6167	0	34504	
6168	0	34412	
6169	0	34304	
6170	0	34172	
6171	0	34036	
6172	0	33908	
6173	0	33860	
6174	0	33760	
6175	0	33632	
6176	0	33472	
6177	0	33328	
6178	0	33216	
6179	0	33128	
6180	0	33052	
6181	0	33000	
6182	0	32928	
6183	0	32864	
6184	0	32784	
6185	0	32740	
6186	0	32668	
6187	0	32616	
6188	0	32564	
6189	0	32472	
6190	0	32380	
6191	0	32324	
6192	0	32212	
6193	0	32100	
6194	0	31992	
6195	0	31894	
6196	0	31824	
6197	0	31732	
6198	0	31618	
6199	0	31520	
6200	0	31412	
6201	0	31296	
6202	0	31224	
6203	0	31208	
6204	0	31184	
6205	0	31196	
6206	0	31192	
6207	0	31188	
6208	0	31166	
6209	0	31172	
6210	0	31204	
6211	0	31236	
6212	0	31320	
6213	0	31356	
6214	0	31376	
6215	0	31372	
6216	0	31364	
6217	0	31384	
6218	0	31452	
6219	0	31456	
6220	0	31468	
6221	0	31496	
6222	0	31536	
6223	0	31568	
6224	0	31604	
6225	0	31656	
6226	0	31704	
6227	0	31708	
6228	0	31712	
6229	0	31772	
6230	0	31808	
6231	0	31808	
6232	0	31796	
6233	0	31788	
6234	0	31752	
6235	0	31720	
6236	0	31708	
6237	0	31760	
6238	0	31816	
6239	0	31880	
6240	0	31932	
6241	0	31896	
6242	0	31774	
6243	0	31576	
6244	0	31288	
6245	0	30884	
6246	0	30320	
6247	0	29568	
6248	0	28832	
6249	0	28308	
6250	0	27996	
6251	0	27868	
6252	0	27854	
6253	0	28072	
6254	0	28556	
6255	0	29360	
6256	0	30400	
6257	0	31584	
6258	0	33032	
6259	0	34608	
6260	0	36362	
6261	0	38344	
6262	0	40704	
6263	0	43568	
6264	0	46896	
6265	0	50664	
6266	0	54636	
6267	0	58536	
6268	0	61760	
6269	0	63520	
6270	0	64440	
6271	0	64890	
6272	0	65072	
6273	0	65088	
6274	0	65056	
6275	0	64984	
6276	0	64876	
6277	0	64752	
6278	0	64628	
6279	0	64500	
6280	0	62676	
6281	0	56744	
6282	0	52096	
6283	0	48264	
6284	0	45120	
6285	0	42490	
6286	0	40084	
6287	0	37812	
6288	0	35766	
6289	0	33920	
6290	0	32332	
6291	0	30992	
6292	0	29876	
6293	0	28972	
6294	0	28364	
6295	0	27940	
6296	0	27644	
6297	0	27464	
6298	0	27322	
6299	0	27128	
6300	0	26972	
6301	0	26888	
6302	0	26912	
6303	0	27024	
6304	0	27232	
6305	0	27448	
6306	0	27700	
6307	0	27940	
6308	0	28126	
6309	0	28304	
6310	0	28472	
6311	0	28624	
6312	0	28736	
6313	0	28792	
6314	0	28794	
6315	0	28796	
6316	0	28834	
6317	0	28858	
6318	0	28842	
6319	0	28780	
6320	0	28696	
6321	0	28640	
6322	0	28572	
6323	0	28540	
6324	0	28536	
6325	0	28508	
6326	0	28528	
6327	0	28584	
6328	0	28632	
6329	0	28688	
6330	0	28764	
6331	0	28820	
6332	0	28788	
6333	0	28764	
6334	0	28810	
6335	0	28880	
6336	0	28932	
6337	0	28968	
6338	0	29016	
6339	0	29104	
6340	0	29176	
6341	0	29192	
6342	0	29244	
6343	0	29304	
6344	0	29386	
6345	0	29444	
6346	0	29408	
6347	0	29408	
6348	0	29424	
6349	0	29442	
6350	0	29464	
6351	0	29490	
6352	0	29564	
6353	0	29676	
6354	0	29768	
6355	0	29852	
6356	0	29908	
6357	0	29942	
6358	0	29976	
6359	0	30018	
6360	0	30076	
6361	0	30136	
6362	0	30176	
6363	0	30168	
6364	0	30208	
6365	0	30244	
6366	0	30284	
6367	0	30340	
6368	0	30432	
6369	0	30498	
6370	0	30560	
6371	0	30640	
6372	0	30704	
6373	0	30752	
6374	0	30804	
6375	0	30836	
6376	0	30900	
6377	0	30954	
6378	0	30980	
6379	0	30988	
6380	0	31016	
6381	0	31084	
6382	0	31124	
6383	0	31164	
6384	0	31186	
6385	0	31220	
6386	0	31312	
6387	0	31386	
6388	0	31432	
6389	0	31468	
6390	0	31508	
6391	0	31584	
6392	0	31648	
6393	0	31748	
6394	0	31814	
6395	0	31820	
6396	0	31840	
6397	0	31906	
6398	0	31950	
6399	0	31992	
6400	0	32052	
6401	0	32096	
6402	0	32128	
6403	0	32168	
6404	0	32232	
6405	0	32304	
6406	0	32394	
6407	0	32428	
6408	0	32468	
6409	0	32552	
6410	0	32600	
6411	0	32724	
6412	0	32796	
6413	0	32832	
6414	0	32908	
6415	0	32960	
6416	0	33004	
6417	0	33080	
6418	0	33108	
6419	0	33168	
6420	0	33212	
6421	0	33268	
6422	0	33320	
6423	0	33416	
6424	0	33508	
6425	0	33584	
6426	0	33618	
6427	0	33660	
6428	0	33688	
6429	0	33688	
6430	0	33728	
6431	0	33848	
6432	0	33924	
6433	0	33948	
6434	0	33980	
6435	0	34020	
6436	0	34104	
6437	0	34182	
6438	0	34336	
6439	0	34496	
6440	0	34608	
6441	0	34640	
6442	0	34624	
6443	0	34624	
6444	0	34632	
6445	0	34640	
6446	0	34680	
6447	0	34752	
6448	0	34872	
6449	0	35000	
6450	0	35124	
6451	0	35208	
6452	0	35200	
6453	0	35192	
6454	0	35184	
6455	0	35220	
6456	0	35252	
6457	0	35304	
6458	0	35368	
6459	0	35404	
6460	0	35424	
6461	0	35404	
6462	0	35432	
6463	0	35512	
6464	0	35532	
6465	0	35520	
6466	0	35532	
6467	0	35514	
6468	0	35460	
6469	0	35420	
6470	0	35384	
6471	0	35388	
6472	0	35408	
6473	0	35432	
6474	0	35432	
6475	0	35440	
6476	0	35428	
6477	0	35416	
6478	0	35428	
6479	0	35436	
6480	0	35464	
6481	0	35460	
6482	0	35412	
6483	0	35356	
6484	0	35346	
6485	0	35316	
6486	0	35240	
6487	0	35156	
6488	0	35128	
6489	0	35108	
6490	0	35072	
6491	0	35052	
6492	0	35010	
6493	0	34946	
6494	0	34904	
6495	0	34884	
6496	0	34892	
6497	0	34880	
6498	0	34820	
6499	0	34758	
6500	0	34692	
6501	0	34592	
6502	0	34512	
6503	0	34448	
6504	0	34384	
6505	0	34300	
6506	0	34224	
6507	0	34138	
6508	0	34072	
6509	0	33984	
6510	0	33856	
6511	0	33668	
6512	0	33548	
6513	0	33432	
6514	0	33372	
6515	0	33260	
6516	0	33088	
6517	0	32936	
6518	0	32808	
6519	0	32640	
6520	0	32482	
6521	0	32372	
6522	0	32272	
6523	0	32112	
6524	0	31944	
6525	0	31748	
6526	0	31656	
6527	0	31644	
6528	0	31656	
6529	0	31592	
6530	0	31492	
6531	0	31400	
6532	0	31326	
6533	0	31266	
6534	0	31205	
6535	0	31088	
6536	0	30932	
6537	0	30764	
6538	0	30680	
6539	0	30644	
6540	0	30546	
6541	0	30370	
6542	0	30212	
6543	0	30100	
6544	0	30044	
6545	0	29944	
6546	0	29924	
6547	0	29904	
6548	0	29904	
6549	0	29874	
6550	0	29792	
6551	0	29724	
6552	0	29664	
6553	0	29624	
6554	0	29612	
6555	0	29608	
6556	0	29564	
6557	0	29560	
6558	0	29568	
6559	0	29572	
6560	0	29568	
6561	0	29562	
6562	0	29548	
6563	0	29500	
6564	0	29480	
6565	0	29480	
6566	0	29488	
6567	0	29508	
6568	0	29500	
6569	0	29536	
6570	0	29564	
6571	0	29620	
6572	0	29640	
6573	0	29636	
6574	0	29648	
6575	0	29664	
6576	0	29700	
6577	0	29684	
6578	0	29680	
6579	0	29760	
6580	0	29792	
6581	0	29788	
6582	0	29796	
6583	0	29800	
6584	0	29832	
6585	0	29856	
6586	0	29888	
6587	0	29940	
6588	0	29976	
6589	0	29972	
6590	0	29972	
6591	0	30028	
6592	0	30112	
6593	0	30208	
6594	0	30316	
6595	0	30402	
6596	0	30456	
6597	0	30500	
6598	0	30472	
6599	0	30456	
6600	0	30544	
6601	0	30556	
6602	0	30560	
6603	0	30560	
6604	0	30576	
6605	0	30628	
6606	0	30684	
6607	0	30764	
6608	0	30792	
6609	0	30784	
6610	0	30840	
6611	0	30920	
6612	0	31052	
6613	0	31110	
6614	0	31136	
6615	0	31220	
6616	0	31288	
6617	0	31332	
6618	0	31392	
6619	0	31424	
6620	0	31352	
6621	0	31356	
6622	0	31376	
6623	0	31364	
6624	0	31324	
6625	0	31352	
6626	0	31440	
6627	0	31520	
6628	0	31628	
6629	0	31700	
6630	0	31724	
6631	0	31720	
6632	0	31740	
6633	0	31748	
6634	0	31756	
6635	0	31808	
6636	0	31884	
6637	0	31924	
6638	0	31914	
6639	0	31916	
6640	0	31916	
6641	0	31912	
6642	0	31936	
6643	0	31928	
6644	0	31920	
6645	0	31964	
6646	0	32024	
6647	0	32056	
6648	0	32056	
6649	0	32096	
6650	0	32124	
6651	0	32176	
6652	0	32258	
6653	0	32344	
6654	0	32332	
6655	0	32268	
6656	0	32230	
6657	0	32200	
6658	0	32176	
6659	0	32152	
6660	0	32160	
6661	0	32160	
6662	0	32208	
6663	0	32260	
6664	0	32292	
6665	0	32320	
6666	0	32288	
6667	0	32288	
6668	0	32304	
6669	0	32356	
6670	0	32368	
6671	0	32368	
6672	0	32352	
6673	0	32292	
6674	0	32320	
6675	0	32348	
6676	0	32408	
6677	0	32444	
6678	0	32404	
6679	0	32332	
6680	0	32292	
6681	0	32276	
6682	0	32268	
6683	0	32252	
6684	0	32264	
6685	0	32284	
6686	0	32312	
6687	0	32376	
6688	0	32464	
6689	0	32504	
6690	0	32520	
6691	0	32532	
6692	0	32488	
6693	0	32448	
6694	0	32456	
6695	0	32448	
6696	0	32412	
6697	0	32448	
6698	0	32476	
6699	0	32440	
6700	0	32404	
6701	0	32410	
6702	0	32376	
6703	0	32304	
6704	0	32276	
6705	0	32288	
6706	0	32312	
6707	0	32280	
6708	0	32228	
6709	0	32280	
6710	0	32316	
6711	0	32344	
6712	0	32360	
6713	0	32356	
6714	0	32348	
6715	0	32314	
6716	0	32292	
6717	0	32296	
6718	0	32300	
6719	0	32274	
6720	0	32254	
6721	0	32208	
6722	0	32204	
6723	0	32216	
6724	0	32200	
6725	0	32128	
6726	0	32064	
6727	0	32096	
6728	0	32148	
6729	0	32142	
6730	0	32144	
6731	0	32088	
6732	0	32048	
6733	0	32026	
6734	0	32018	
6735	0	32000	
6736	0	31994	
6737	0	31992	
6738	0	32012	
6739	0	32040	
6740	0	32056	
6741	0	32112	
6742	0	32144	
6743	0	32128	
6744	0	32132	
6745	0	32144	
6746	0	32152	
6747	0	32200	
6748	0	32268	
6749	0	32288	
6750	0	32308	
6751	0	32272	
6752	0	32186	
6753	0	32128	
6754	0	32128	
6755	0	32118	
6756	0	32092	
6757	0	32064	
6758	0	32040	
6759	0	32060	
6760	0	32068	
6761	0	32104	
6762	0	32144	
6763	0	32176	
6764	0	32208	
6765	0	32268	
6766	0	32314	
6767	0	32304	
6768	0	32272	
6769	0	32300	
6770	0	32324	
6771	0	32360	
6772	0	32340	
6773	0	32324	
6774	0	32326	
6775	0	32410	
6776	0	32548	
6777	0	32664	
6778	0	32704	
6779	0	32760	
6780	0	32868	
6781	0	32972	
6782	0	33092	
6783	0	33230	
6784	0	33340	
6785	0	33392	
6786	0	33404	
6787	0	33430	
6788	0	33436	
6789	0	33392	
6790	0	33336	
6791	0	33304	
6792	0	33320	
6793	0	33332	
6794	0	33248	
6795	0	33162	
6796	0	33112	
6797	0	33092	
6798	0	33108	
6799	0	33188	
6800	0	33320	
6801	0	33472	
6802	0	33668	
6803	0	33884	
6804	0	34148	
6805	0	34392	
6806	0	34568	
6807	0	34690	
6808	0	34816	
6809	0	34932	
6810	0	35068	
6811	0	35168	
6812	0	35240	
6813	0	35280	
6814	0	35240	
6815	0	35204	
6816	0	35176	
6817	0	35138	
6818	0	35093	
6819	0	35028	
6820	0	34908	
6821	0	34760	
6822	0	34544	
6823	0	34304	
6824	0	34104	
6825	0	33978	
6826	0	33920	
6827	0	33888	
6828	0	33828	
6829	0	33696	
6830	0	33520	
6831	0	33376	
6832	0	33272	
6833	0	33164	
6834	0	33104	
6835	0	33000	
6836	0	32900	
6837	0	32836	
6838	0	32804	
6839	0	32736	
6840	0	32628	
6841	0	32508	
6842	0	32410	
6843	0	32348	
6844	0	32280	
6845	0	32228	
6846	0	32212	
6847	0	32132	
6848	0	32054	
6849	0	32028	
6850	0	31940	
6851	0	31856	
6852	0	31708	
6853	0	31544	
6854	0	31468	
6855	0	31412	
6856	0	31378	
6857	0	31380	
6858	0	31340	
6859	0	31252	
6860	0	31196	
6861	0	31162	
6862	0	31176	
6863	0	31266	
6864	0	31368	
6865	0	31440	
6866	0	31432	
6867	0	31372	
6868	0	31360	
6869	0	31392	
6870	0	31424	
6871	0	31468	
6872	0	31556	
6873	0	31656	
6874	0	31736	
6875	0	31768	
6876	0	31752	
6877	0	31736	
6878	0	31756	
6879	0	31780	
6880	0	31800	
6881	0	31802	
6882	0	31802	
6883	0	31820	
6884	0	31768	
6885	0	31752	
6886	0	31772	
6887	0	31768	
6888	0	31818	
6889	0	31856	
6890	0	31880	
6891	0	31912	
6892	0	31924	
6893	0	31994	
6894	0	32048	
6895	0	31992	
6896	0	31868	
6897	0	31632	
6898	0	31334	
6899	0	30938	
6900	0	30400	
6901	0	29752	
6902	0	29088	
6903	0	28564	
6904	0	28308	
6905	0	28216	
6906	0	28304	
6907	0	28604	
6908	0	29216	
6909	0	30132	
6910	0	31270	
6911	0	32536	
6912	0	34024	
6913	0	35652	
6914	0	37500	
6915	0	39596	
6916	0	42180	
6917	0	45220	
6918	0	48688	
6919	0	52372	
6920	0	56224	
6921	0	59968	
6922	0	62496	
6923	0	63836	
6924	0	64500	
6925	0	64808	
6926	0	64912	
6927	0	64908	
6928	0	64848	
6929	0	64760	
6930	0	64652	
6931	0	64536	
6932	0	64416	
6933	0	61628	
6934	0	55256	
6935	0	49996	
6936	0	45688	
6937	0	42228	
6938	0	39488	
6939	0	37144	
6940	0	35036	
6941	0	33204	
6942	0	31512	
6943	0	29940	
6944	0	28418	
6945	0	27160	
6946	0	26248	
6947	0	25630	
6948	0	25264	
6949	0	25152	
6950	0	25244	
6951	0	25382	
6952	0	25404	
6953	0	25468	
6954	0	25608	
6955	0	25874	
6956	0	26176	
6957	0	26508	
6958	0	26912	
6959	0	27320	
6960	0	27700	
6961	0	28072	
6962	0	28392	
6963	0	28640	
6964	0	28820	
6965	0	28956	
6966	0	29112	
6967	0	29236	
6968	0	29292	
6969	0	29256	
6970	0	29200	
6971	0	29236	
6972	0	29312	
6973	0	29372	
6974	0	29388	
6975	0	29392	
6976	0	29432	
6977	0	29492	
6978	0	29544	
6979	0	29592	
6980	0	29572	
6981	0	29568	
6982	0	29580	
6983	0	29580	
6984	0	29592	
6985	0	29660	
6986	0	29716	
6987	0	29720	
6988	0	29744	
6989	0	29824	
6990	0	29876	
6991	0	29928	
6992	0	29962	
6993	0	29940	
6994	0	29920	
6995	0	29944	
6996	0	30008	
6997	0	30052	
6998	0	30064	
6999	0	30078	
7000	0	30120	
7001	0	30132	
7002	0	30112	
7003	0	30096	
7004	0	30168	
7005	0	30276	
7006	0	30356	
7007	0	30404	
7008	0	30492	
7009	0	30612	
7010	0	30700	
7011	0	30748	
7012	0	30804	
7013	0	30816	
7014	0	30884	
7015	0	30972	
7016	0	31020	
7017	0	31088	
7018	0	31108	
7019	0	31132	
7020	0	31160	
7021	0	31152	
7022	0	31132	
7023	0	31164	
7024	0	31188	
7025	0	31244	
7026	0	31284	
7027	0	31264	
7028	0	31272	
7029	0	31360	
7030	0	31492	
7031	0	31640	
7032	0	31760	
7033	0	31848	
7034	0	31872	
7035	0	31920	
7036	0	32020	
7037	0	32088	
7038	0	32088	
7039	0	32080	
7040	0	32056	
7041	0	32044	
7042	0	32052	
7043	0	32104	
7044	0	32158	
7045	0	32196	
7046	0	32188	
7047	0	32228	
7048	0	32352	
7049	0	32436	
7050	0	32516	
7051	0	32636	
7052	0	32740	
7053	0	32808	
7054	0	32852	
7055	0	32956	
7056	0	33016	
7057	0	33064	
7058	0	33080	
7059	0	33084	
7060	0	33084	
7061	0	33120	
7062	0	33216	
7063	0	33252	
7064	0	33312	
7065	0	33432	
7066	0	33512	
7067	0	33560	
7068	0	33636	
7069	0	33732	
7070	0	33860	
7071	0	33992	
7072	0	34042	
7073	0	34112	
7074	0	34156	
7075	0	34108	
7076	0	34092	
7077	0	34140	
7078	0	34168	
7079	0	34248	
7080	0	34320	
7081	0	34360	
7082	0	34400	
7083	0	34364	
7084	0	34396	
7085	0	34500	
7086	0	34588	
7087	0	34656	
7088	0	34676	
7089	0	34680	
7090	0	34684	
7091	0	34740	
7092	0	34828	
7093	0	34940	
7094	0	35060	
7095	0	35220	
7096	0	35372	
7097	0	35472	
7098	0	35536	
7099	0	35612	
7100	0	35700	
7101	0	35772	
7102	0	35820	
7103	0	35864	
7104	0	35936	
7105	0	36008	
7106	0	36080	
7107	0	36128	
7108	0	36132	
7109	0	36128	
7110	0	36140	
7111	0	36168	
7112	0	36208	
7113	0	36230	
7114	0	36248	
7115	0	36252	
7116	0	36268	
7117	0	36280	
7118	0	36334	
7119	0	36380	
7120	0	36376	
7121	0	36352	
7122	0	36376	
7123	0	36376	
7124	0	36368	
7125	0	36412	
7126	0	36428	
7127	0	36426	
7128	0	36384	
7129	0	36312	
7130	0	36244	
7131	0	36184	
7132	0	36172	
7133	0	36224	
7134	0	36184	
7135	0	36184	
7136	0	36140	
7137	0	36132	
7138	0	36108	
7139	0	36096	
7140	0	36100	
7141	0	36080	
7142	0	36056	
7143	0	36060	
7144	0	35982	
7145	0	35932	
7146	0	35884	
7147	0	35784	
7148	0	35692	
7149	0	35624	
7150	0	35544	
7151	0	35468	
7152	0	35416	
7153	0	35360	
7154	0	35352	
7155	0	35304	
7156	0	35212	
7157	0	35160	
7158	0	35052	
7159	0	34900	
7160	0	34776	
7161	0	34704	
7162	0	34668	
7163	0	34604	
7164	0	34504	
7165	0	34372	
7166	0	34188	
7167	0	34080	
7168	0	33916	
7169	0	33754	
7170	0	33556	
7171	0	33360	
7172	0	33128	
7173	0	32948	
7174	0	32912	
7175	0	32756	
7176	0	32644	
7177	0	32612	
7178	0	32556	
7179	0	32424	
7180	0	32260	
7181	0	32140	
7182	0	32034	
7183	0	31936	
7184	0	31868	
7185	0	31744	
7186	0	31552	
7187	0	31304	
7188	0	31088	
7189	0	30880	
7190	0	30692	
7191	0	30526	
7192	0	30432	
7193	0	30348	
7194	0	30276	
7195	0	30192	
7196	0	30132	
7197	0	30068	
7198	0	30026	
7199	0	30010	
7200	0	29904	
7201	0	29826	
7202	0	29760	
7203	0	29716	
7204	0	29660	
7205	0	29568	
7206	0	29544	
7207	0	29540	
7208	0	29472	
7209	0	29444	
7210	0	29404	
7211	0	29338	
7212	0	29256	
7213	0	29196	
7214	0	29232	
7215	0	29244	
7216	0	29240	
7217	0	29180	
7218	0	29136	
7219	0	29122	
7220	0	29092	
7221	0	29068	
7222	0	29088	
7223	0	29100	
7224	0	29096	
7225	0	29024	
7226	0	29000	
7227	0	29028	
7228	0	29056	
7229	0	29052	
7230	0	29032	
7231	0	29024	
7232	0	29036	
7233	0	29036	
7234	0	29108	
7235	0	29144	
7236	0	29136	
7237	0	29152	
7238	0	29216	
7239	0	29284	
7240	0	29320	
7241	0	29324	
7242	0	29328	
7243	0	29320	
7244	0	29326	
7245	0	29348	
7246	0	29404	
7247	0	29456	
7248	0	29608	
7249	0	29676	
7250	0	29648	
7251	0	29688	
7252	0	29680	
7253	0	29682	
7254	0	29772	
7255	0	29900	
7256	0	29984	
7257	0	29996	
7258	0	30068	
7259	0	30220	
7260	0	30348	
7261	0	30364	
7262	0	30344	
7263	0	30352	
7264	0	30306	
7265	0	30306	
7266	0	30364	
7267	0	30426	
7268	0	30472	
7269	0	30460	
7270	0	30452	
7271	0	30556	
7272	0	30656	
7273	0	30692	
7274	0	30712	
7275	0	30810	
7276	0	30930	
7277	0	31024	
7278	0	31088	
7279	0	31116	
7280	0	31068	
7281	0	31080	
7282	0	31128	
7283	0	31176	
7284	0	31204	
7285	0	31192	
7286	0	31176	
7287	0	31170	
7288	0	31189	
7289	0	31188	
7290	0	31236	
7291	0	31264	
7292	0	31336	
7293	0	31428	
7294	0	31500	
7295	0	31574	
7296	0	31640	
7297	0	31664	
7298	0	31720	
7299	0	31724	
7300	0	31704	
7301	0	31736	
7302	0	31772	
7303	0	31784	
7304	0	31832	
7305	0	31832	
7306	0	31856	
7307	0	31872	
7308	0	31872	
7309	0	31924	
7310	0	31956	
7311	0	31968	
7312	0	31952	
7313	0	31888	
7314	0	31832	
7315	0	31800	
7316	0	31784	
7317	0	31780	
7318	0	31840	
7319	0	31876	
7320	0	31872	
7321	0	31876	
7322	0	31928	
7323	0	31962	
7324	0	31944	
7325	0	31896	
7326	0	31908	
7327	0	31952	
7328	0	31960	
7329	0	31980	
7330	0	32000	
7331	0	32008	
7332	0	31984	
7333	0	32060	
7334	0	32152	
7335	0	32140	
7336	0	32143	
7337	0	32224	
7338	0	32288	
7339	0	32248	
7340	0	32228	
7341	0	32192	
7342	0	32168	
7343	0	32096	
7344	0	31996	
7345	0	31984	
7346	0	31992	
7347	0	31996	
7348	0	32004	
7349	0	32012	
7350	0	31956	
7351	0	31928	
7352	0	31960	
7353	0	31924	
7354	0	31944	
7355	0	31968	
7356	0	31970	
7357	0	31968	
7358	0	31936	
7359	0	31912	
7360	0	31844	
7361	0	31716	
7362	0	31700	
7363	0	31696	
7364	0	31628	
7365	0	31556	
7366	0	31516	
7367	0	31524	
7368	0	31576	
7369	0	31640	
7370	0	31724	
7371	0	31778	
7372	0	31840	
7373	0	31836	
7374	0	31812	
7375	0	31780	
7376	0	31784	
7377	0	31832	
7378	0	31856	
7379	0	31900	
7380	0	31964	
7381	0	31948	
7382	0	31908	
7383	0	31896	
7384	0	31856	
7385	0	31746	
7386	0	31680	
7387	0	31616	
7388	0	31564	
7389	0	31584	
7390	0	31620	
7391	0	31644	
7392	0	31656	
7393	0	31730	
7394	0	31836	
7395	0	31880	
7396	0	31944	
7397	0	32008	
7398	0	32078	
7399	0	32160	
7400	0	32208	
7401	0	32196	
7402	0	32168	
7403	0	32132	
7404	0	32128	
7405	0	32200	
7406	0	32240	
7407	0	32224	
7408	0	32192	
7409	0	32232	
7410	0	32280	
7411	0	32408	
7412	0	32466	
7413	0	32474	
7414	0	32520	
7415	0	32532	
7416	0	32460	
7417	0	32380	
7418	0	32428	
7419	0	32544	
7420	0	32621	
7421	0	32704	
7422	0	32784	
7423	0	32816	
7424	0	32808	
7425	0	32824	
7426	0	32814	
7427	0	32792	
7428	0	32736	
7429	0	32652	
7430	0	32660	
7431	0	32744	
7432	0	32800	
7433	0	32872	
7434	0	32944	
7435	0	32996	
7436	0	32996	
7437	0	33008	
7438	0	33124	
7439	0	33332	
7440	0	33544	
7441	0	33740	
7442	0	33896	
7443	0	34016	
7444	0	34088	
7445	0	34276	
7446	0	34464	
7447	0	34592	
7448	0	34680	
7449	0	34708	
7450	0	34648	
7451	0	34608	
7452	0	34536	
7453	0	34416	
7454	0	34288	
7455	0	34168	
7456	0	34064	
7457	0	33928	
7458	0	33845	
7459	0	33836	
7460	0	33892	
7461	0	33840	
7462	0	33728	
7463	0	33480	
7464	0	33204	
7465	0	32976	
7466	0	32788	
7467	0	32668	
7468	0	32628	
7469	0	32668	
7470	0	32736	
7471	0	32724	
7472	0	32614	
7473	0	32540	
7474	0	32454	
7475	0	32372	
7476	0	32312	
7477	0	32228	
7478	0	32140	
7479	0	32116	
7480	0	32136	
7481	0	32126	
7482	0	32104	
7483	0	32028	
7484	0	31936	
7485	0	31856	
7486	0	31780	
7487	0	31692	
7488	0	31522	
7489	0	31336	
7490	0	31164	
7491	0	31056	
7492	0	31010	
7493	0	30992	
7494	0	31020	
7495	0	31066	
7496	0	31168	
7497	0	31224	
7498	0	31146	
7499	0	31096	
7500	0	31136	
7501	0	31128	
7502	0	31104	
7503	0	31068	
7504	0	31028	
7505	0	31006	
7506	0	30988	
7507	0	30948	
7508	0	30912	
7509	0	30900	
7510	0	30936	
7511	0	31048	
7512	0	31180	
7513	0	31250	
7514	0	31350	
7515	0	31496	
7516	0	31516	
7517	0	31492	
7518	0	31500	
7519	0	31568	
7520	0	31612	
7521	0	31616	
7522	0	31620	
7523	0	31588	
7524	0	31488	
7525	0	31384	
7526	0	31374	
7527	0	31428	
7528	0	31496	
7529	0	31552	
7530	0	31556	
7531	0	31592	
7532	0	31648	
7533	0	31544	
7534	0	31352	
7535	0	31064	
7536	0	30672	
7537	0	30124	
7538	0	29552	
7539	0	29100	
7540	0	28738	
7541	0	28602	
7542	0	28484	
7543	0	28520	
7544	0	28816	
7545	0	29416	
7546	0	30284	
7547	0	31356	
7548	0	32472	
7549	0	33784	
7550	0	35312	
7551	0	37104	
7552	0	39146	
7553	0	41632	
7554	0	44604	
7555	0	47980	
7556	0	51552	
7557	0	55180	
7558	0	58688	
7559	0	61756	
7560	0	63432	
7561	0	64316	
7562	0	64728	
7563	0	64896	
7564	0	64928	
7565	0	64888	
7566	0	64800	
7567	0	64688	
7568	0	64576	
7569	0	61864	
7570	0	55460	
7571	0	49472	
7572	0	44336	
7573	0	40220	
7574	0	37032	
7575	0	34732	
7576	0	32996	
7577	0	31644	
7578	0	30520	
7579	0	29536	
7580	0	28558	
7581	0	27628	
7582	0	26744	
7583	0	25992	
7584	0	25428	
7585	0	25112	
7586	0	24924	
7587	0	24928	
7588	0	25032	
7589	0	25025	
7590	0	24972	
7591	0	25064	
7592	0	25356	
7593	0	25708	
7594	0	26196	
7595	0	26616	
7596	0	26936	
7597	0	27180	
7598	0	27512	
7599	0	27900	
7600	0	28340	
7601	0	28696	
7602	0	28934	
7603	0	29136	
7604	0	29308	
7605	0	29456	
7606	0	29520	
7607	0	29512	
7608	0	29544	
7609	0	29556	
7610	0	29564	
7611	0	29588	
7612	0	29624	
7613	0	29704	
7614	0	29720	
7615	0	29744	
7616	0	29812	
7617	0	29852	
7618	0	29872	
7619	0	29892	
7620	0	29984	
7621	0	30112	
7622	0	30168	
7623	0	30220	
7624	0	30308	
7625	0	30360	
7626	0	30344	
7627	0	30320	
7628	0	30312	
7629	0	30316	
7630	0	30372	
7631	0	30396	
7632	0	30464	
7633	0	30484	
7634	0	30512	
7635	0	30560	
7636	0	30596	
7637	0	30624	
7638	0	30684	
7639	0	30744	
7640	0	30808	
7641	0	30852	
7642	0	30844	
7643	0	30844	
7644	0	30836	
7645	0	30786	
7646	0	30896	
7647	0	31012	
7648	0	31096	
7649	0	31208	
7650	0	31292	
7651	0	31224	
7652	0	31160	
7653	0	31160	
7654	0	31190	
7655	0	31212	
7656	0	31240	
7657	0	31284	
7658	0	31316	
7659	0	31418	
7660	0	31470	
7661	0	31516	
7662	0	31560	
7663	0	31604	
7664	0	31712	
7665	0	31788	
7666	0	31836	
7667	0	31860	
7668	0	31852	
7669	0	31936	
7670	0	32068	
7671	0	32112	
7672	0	32132	
7673	0	32232	
7674	0	32280	
7675	0	32208	
7676	0	32216	
7677	0	32280	
7678	0	32396	
7679	0	32400	
7680	0	32384	
7681	0	32404	
7682	0	32512	
7683	0	32628	
7684	0	32744	
7685	0	32852	
7686	0	32976	
7687	0	33004	
7688	0	33052	
7689	0	33104	
7690	0	33084	
7691	0	33036	
7692	0	32952	
7693	0	32980	
7694	0	33090	
7695	0	33296	
7696	0	33520	
7697	0	33644	
7698	0	33700	
7699	0	33656	
7700	0	33620	
7701	0	33648	
7702	0	33744	
7703	0	33908	
7704	0	34028	
7705	0	34152	
7706	0	34192	
7707	0	34188	
7708	0	34236	
7709	0	34336	
7710	0	34400	
7711	0	34460	
7712	0	34456	
7713	0	34464	
7714	0	34584	
7715	0	34696	
7716	0	34768	
7717	0	34864	
7718	0	35004	
7719	0	35176	
7720	0	35248	
7721	0	35304	
7722	0	35316	
7723	0	35312	
7724	0	35324	
7725	0	35392	
7726	0	35516	
7727	0	35628	
7728	0	35640	
7729	0	35648	
7730	0	35676	
7731	0	35736	
7732	0	35796	
7733	0	35812	
7734	0	35816	
7735	0	35840	
7736	0	35816	
7737	0	35796	
7738	0	35768	
7739	0	35744	
7740	0	35840	
7741	0	35916	
7742	0	36028	
7743	0	36180	
7744	0	36320	
7745	0	36468	
7746	0	36620	
7747	0	36652	
7748	0	36648	
7749	0	36708	
7750	0	36752	
7751	0	36864	
7752	0	36904	
7753	0	36888	
7754	0	36852	
7755	0	36832	
7756	0	36816	
7757	0	36856	
7758	0	36872	
7759	0	36860	
7760	0	36872	
7761	0	36912	
7762	0	36952	
7763	0	36968	
7764	0	36976	
7765	0	36928	
7766	0	36876	
7767	0	36796	
7768	0	36736	
7769	0	36708	
7770	0	36752	
7771	0	36808	
7772	0	36832	
7773	0	36776	
7774	0	36726	
7775	0	36728	
7776	0	36632	
7777	0	36576	
7778	0	36528	
7779	0	36556	
7780	0	36504	
7781	0	36400	
7782	0	36252	
7783	0	36180	
7784	0	36132	
7785	0	36020	
7786	0	35896	
7787	0	35816	
7788	0	35784	
7789	0	35768	
7790	0	35680	
7791	0	35584	
7792	0	35488	
7793	0	35412	
7794	0	35280	
7795	0	35168	
7796	0	35080	
7797	0	35024	
7798	0	34978	
7799	0	34892	
7800	0	34760	
7801	0	34588	
7802	0	34468	
7803	0	34456	
7804	0	34400	
7805	0	34112	
7806	0	33784	
7807	0	33536	
7808	0	33350	
7809	0	33120	
7810	0	32896	
7811	0	32684	
7812	0	32416	
7813	0	32264	
7814	0	32220	
7815	0	32212	
7816	0	32136	
7817	0	32008	
7818	0	31868	
7819	0	31772	
7820	0	31668	
7821	0	31532	
7822	0	31348	
7823	0	31160	
7824	0	31022	
7825	0	30904	
7826	0	30760	
7827	0	30584	
7828	0	30396	
7829	0	30272	
7830	0	30152	
7831	0	30012	
7832	0	29924	
7833	0	29900	
7834	0	29892	
7835	0	29882	
7836	0	29806	
7837	0	29700	
7838	0	29604	
7839	0	29516	
7840	0	29372	
7841	0	29314	
7842	0	29216	
7843	0	29210	
7844	0	29232	
7845	0	29242	
7846	0	29256	
7847	0	29200	
7848	0	29126	
7849	0	29080	
7850	0	29056	
7851	0	29060	
7852	0	29092	
7853	0	29088	
7854	0	29112	
7855	0	29168	
7856	0	29154	
7857	0	29120	
7858	0	29056	
7859	0	29024	
7860	0	29006	
7861	0	29020	
7862	0	29092	
7863	0	29140	
7864	0	29168	
7865	0	29200	
7866	0	29124	
7867	0	29120	
7868	0	29176	
7869	0	29132	
7870	0	29144	
7871	0	29200	
7872	0	29228	
7873	0	29264	
7874	0	29236	
7875	0	29200	
7876	0	29104	
7877	0	29050	
7878	0	29016	
7879	0	29088	
7880	0	29140	
7881	0	29260	
7882	0	29348	
7883	0	29404	
7884	0	29508	
7885	0	29562	
7886	0	29612	
7887	0	29700	
7888	0	29754	
7889	0	29764	
7890	0	29720	
7891	0	29668	
7892	0	29704	
7893	0	29788	
7894	0	29876	
7895	0	29936	
7896	0	30012	
7897	0	30064	
7898	0	29976	
7899	0	29924	
7900	0	29976	
7901	0	30060	
7902	0	30196	
7903	0	30304	
7904	0	30288	
7905	0	30272	
7906	0	30252	
7907	0	30296	
7908	0	30328	
7909	0	30352	
7910	0	30440	
7911	0	30572	
7912	0	30688	
7913	0	30784	
7914	0	30824	
7915	0	30848	
7916	0	30944	
7917	0	31040	
7918	0	31048	
7919	0	31020	
7920	0	31060	
7921	0	31136	
7922	0	31280	
7923	0	31308	
7924	0	31268	
7925	0	31193	
7926	0	31136	
7927	0	31080	
7928	0	31030	
7929	0	31042	
7930	0	31064	
7931	0	31136	
7932	0	31120	
7933	0	31184	
7934	0	31316	
7935	0	31472	
7936	0	31548	
7937	0	31576	
7938	0	31600	
7939	0	31576	
7940	0	31540	
7941	0	31484	
7942	0	31484	
7943	0	31472	
7944	0	31432	
7945	0	31426	
7946	0	31404	
7947	0	31460	
7948	0	31612	
7949	0	31824	
7950	0	31892	
7951	0	31816	
7952	0	31680	
7953	0	31664	
7954	0	31616	
7955	0	31592	
7956	0	31584	
7957	0	31632	
7958	0	31724	
7959	0	31976	
7960	0	32192	
7961	0	32336	
7962	0	32528	
7963	0	32618	
7964	0	32572	
7965	0	32514	
7966	0	32432	
7967	0	32352	
7968	0	32234	
7969	0	32208	
7970	0	32160	
7971	0	32084	
7972	0	32024	
7973	0	31988	
7974	0	31962	
7975	0	31900	
7976	0	31826	
7977	0	31844	
7978	0	31928	
7979	0	32012	
7980	0	32028	
7981	0	31944	
7982	0	31888	
7983	0	31912	
7984	0	31892	
7985	0	31848	
7986	0	31876	
7987	0	31904	
7988	0	31940	
7989	0	31973	
7990	0	32064	
7991	0	32164	
7992	0	32204	
7993	0	32252	
7994	0	32316	
7995	0	32320	
7996	0	32296	
7997	0	32200	
7998	0	32036	
7999	0	31964	
8000	0	31892	
8001	0	31852	
8002	0	31856	
8003	0	31884	
8004	0	31856	
8005	0	31824	
8006	0	31842	
8007	0	31844	
8008	0	31840	
8009	0	31810	
8010	0	31792	
8011	0	31828	
8012	0	31928	
8013	0	32002	
8014	0	32026	
8015	0	31992	
8016	0	31896	
8017	0	31800	
8018	0	31768	
8019	0	31712	
8020	0	31670	
8021	0	31670	
8022	0	31696	
8023	0	31822	
8024	0	31876	
8025	0	31826	
8026	0	31824	
8027	0	31920	
8028	0	32036	
8029	0	32024	
8030	0	32040	
8031	0	32028	
8032	0	31996	
8033	0	32056	
8034	0	32106	
8035	0	32120	
8036	0	32128	
8037	0	32110	
8038	0	32168	
8039	0	32268	
8040	0	32340	
8041	0	32392	
8042	0	32456	
8043	0	32512	
8044	0	32538	
8045	0	32540	
8046	0	32602	
8047	0	32692	
8048	0	32724	
8049	0	32756	
8050	0	32784	
8051	0	32792	
8052	0	32844	
8053	0	32880	
8054	0	32900	
8055	0	32952	
8056	0	32986	
8057	0	33052	
8058	0	33096	
8059	0	33146	
8060	0	33200	
8061	0	33280	
8062	0	33440	
8063	0	33648	
8064	0	33764	
8065	0	33832	
8066	0	33982	
8067	0	34112	
8068	0	34224	
8069	0	34428	
8070	0	34660	
8071	0	34856	
8072	0	34996	
8073	0	35128	
8074	0	35192	
8075	0	35072	
8076	0	34884	
8077	0	34780	
8078	0	34732	
8079	0	34684	
8080	0	34594	
8081	0	34496	
8082	0	34396	
8083	0	34268	
8084	0	34096	
8085	0	33920	
8086	0	33736	
8087	0	33576	
8088	0	33352	
8089	0	33020	
8090	0	32688	
8091	0	32416	
8092	0	32336	
8093	0	32336	
8094	0	32324	
8095	0	32200	
8096	0	32052	
8097	0	32020	
8098	0	31988	
8099	0	32000	
8100	0	32004	
8101	0	31956	
8102	0	31962	
8103	0	31960	
8104	0	31900	
8105	0	31896	
8106	0	31924	
8107	0	31892	
8108	0	31864	
8109	0	31780	
8110	0	31732	
8111	0	31658	
8112	0	31560	
8113	0	31388	
8114	0	31248	
8115	0	31212	
8116	0	31236	
8117	0	31216	
8118	0	31220	
8119	0	31164	
8120	0	31076	
8121	0	31017	
8122	0	30976	
8123	0	30960	
8124	0	30916	
8125	0	30908	
8126	0	30976	
8127	0	30984	
8128	0	30980	
8129	0	31000	
8130	0	30940	
8131	0	30900	
8132	0	30924	
8133	0	31012	
8134	0	31076	
8135	0	31080	
8136	0	31044	
8137	0	31120	
8138	0	31128	
8139	0	31176	
8140	0	31284	
8141	0	31420	
8142	0	31508	
8143	0	31512	
8144	0	31442	
8145	0	31476	
8146	0	31528	
8147	0	31508	
8148	0	31492	
8149	0	31492	
8150	0	31476	
8151	0	31440	
8152	0	31384	
8153	0	31376	
8154	0	31392	
8155	0	31456	
8156	0	31472	
8157	0	31328	
8158	0	31184	
8159	0	31012	
8160	0	30740	
8161	0	30312	
8162	0	29748	
8163	0	29204	
8164	0	28864	
8165	0	28704	
8166	0	28596	
8167	0	28640	
8168	0	28856	
8169	0	29356	
8170	0	30114	
8171	0	31084	
8172	0	32188	
8173	0	33408	
8174	0	34712	
8175	0	36240	
8176	0	37988	
8177	0	40060	
8178	0	42604	
8179	0	45592	
8180	0	48996	
8181	0	52586	
8182	0	56228	
8183	0	59820	
8184	0	62408	
8185	0	63784	
8186	0	64460	
8187	0	64808	
8188	0	64908	
8189	0	64920	
8190	0	64832	
8191	0	64756	
8192	0	64644	
8193	0	64508	
8194	0	58048	
8195	0	51708	
8196	0	45860	
8197	0	41000	
8198	0	37256	
8199	0	34464	
8200	0	32462	
8201	0	30970	
8202	0	29760	
8203	0	28784	
8204	0	27950	
8205	0	27098	
8206	0	26272	
8207	0	25520	
8208	0	25016	
8209	0	24760	
8210	0	24664	
8211	0	24676	
8212	0	24772	
8213	0	24800	
8214	0	24808	
8215	0	24860	
8216	0	25010	
8217	0	25344	
8218	0	25776	
8219	0	26240	
8220	0	26684	
8221	0	27124	
8222	0	27476	
8223	0	27752	
8224	0	27988	
8225	0	28258	
8226	0	28488	
8227	0	28712	
8228	0	28892	
8229	0	29100	
8230	0	29312	
8231	0	29412	
8232	0	29548	
8233	0	29716	
8234	0	29760	
8235	0	29728	
8236	0	29740	
8237	0	29724	
8238	0	29748	
8239	0	29808	
8240	0	29900	
8241	0	29928	
8242	0	29880	
8243	0	29872	
8244	0	29856	
8245	0	29876	
8246	0	29898	
8247	0	29938	
8248	0	29984	
8249	0	30012	
8250	0	30008	
8251	0	29952	
8252	0	29972	
8253	0	30060	
8254	0	30184	
8255	0	30296	
8256	0	30320	
8257	0	30232	
8258	0	30222	
8259	0	30322	
8260	0	30420	
8261	0	30504	
8262	0	30564	
8263	0	30600	
8264	0	30620	
8265	0	30664	
8266	0	30692	
8267	0	30680	
8268	0	30608	
8269	0	30568	
8270	0	30634	
8271	0	30720	
8272	0	30820	
8273	0	30900	
8274	0	30992	
8275	0	31080	
8276	0	31128	
8277	0	31156	
8278	0	31216	
8279	0	31330	
8280	0	31372	
8281	0	31356	
8282	0	31280	
8283	0	31260	
8284	0	31330	
8285	0	31372	
8286	0	31400	
8287	0	31404	
8288	0	31476	
8289	0	31512	
8290	0	31556	
8291	0	31614	
8292	0	31700	
8293	0	31836	
8294	0	31984	
8295	0	32032	
8296	0	32052	
8297	0	32068	
8298	0	32076	
8299	0	32140	
8300	0	32264	
8301	0	32352	
8302	0	32392	
8303	0	32436	
8304	0	32464	
8305	0	32480	
8306	0	32524	
8307	0	32556	
8308	0	32600	
8309	0	32640	
8310	0	32652	
8311	0	32624	
8312	0	32620	
8313	0	32652	
8314	0	32704	
8315	0	32768	
8316	0	32820	
8317	0	32868	
8318	0	32912	
8319	0	32992	
8320	0	33104	
8321	0	33212	
8322	0	33276	
8323	0	33344	
8324	0	33406	
8325	0	33452	
8326	0	33512	
8327	0	33612	
8328	0	33676	
8329	0	33756	
8330	0	33808	
8331	0	33792	
8332	0	33776	
8333	0	33800	
8334	0	33888	
8335	0	33994	
8336	0	34148	
8337	0	34272	
8338	0	34376	
8339	0	34424	
8340	0	34448	
8341	0	34464	
8342	0	34456	
8343	0	34476	
8344	0	34504	
8345	0	34612	
8346	0	34656	
8347	0	34708	
8348	0	34724	
8349	0	34752	
8350	0	34812	
8351	0	34848	
8352	0	34948	
8353	0	35116	
8354	0	35204	
8355	0	35232	
8356	0	35248	
8357	0	35316	
8358	0	35386	
8359	0	35428	
8360	0	35560	
8361	0	35736	
8362	0	35864	
8363	0	35960	
8364	0	36020	
8365	0	36010	
8366	0	35936	
8367	0	35932	
8368	0	35964	
8369	0	35996	
8370	0	36036	
8371	0	36084	
8372	0	36108	
8373	0	36156	
8374	0	36232	
8375	0	36364	
8376	0	36478	
8377	0	36520	
8378	0	36588	
8379	0	36684	
8380	0	36736	
8381	0	36760	
8382	0	36760	
8383	0	36712	
8384	0	36736	
8385	0	36736	
8386	0	36684	
8387	0	36648	
8388	0	36640	
8389	0	36646	
8390	0	36596	
8391	0	36556	
8392	0	36476	
8393	0	36448	
8394	0	36424	
8395	0	36392	
8396	0	36386	
8397	0	36348	
8398	0	36308	
8399	0	36276	
8400	0	36260	
8401	0	36284	
8402	0	36312	
8403	0	36284	
8404	0	36208	
8405	0	36184	
8406	0	36108	
8407	0	36032	
8408	0	35904	
8409	0	35748	
8410	0	35632	
8411	0	35580	
8412	0	35568	
8413	0	35548	
8414	0	35508	
8415	0	35460	
8416	0	35400	
8417	0	35326	
8418	0	35232	
8419	0	35128	
8420	0	35032	
8421	0	34888	
8422	0	34736	
8423	0	34624	
8424	0	34490	
8425	0	34320	
8426	0	34112	
8427	0	33836	
8428	0	33576	
8429	0	33384	
8430	0	33212	
8431	0	33076	
8432	0	32936	
8433	0	32838	
8434	0	32732	
8435	0	32620	
8436	0	32516	
8437	0	32324	
8438	0	32068	
8439	0	31812	
8440	0	31584	
8441	0	31394	
8442	0	31212	
8443	0	31098	
8444	0	30952	
8445	0	30800	
8446	0	30660	
8447	0	30504	
8448	0	30382	
8449	0	30272	
8450	0	30208	
8451	0	30120	
8452	0	30072	
8453	0	29996	
8454	0	29888	
8455	0	29780	
8456	0	29696	
8457	0	29592	
8458	0	29488	
8459	0	29402	
8460	0	29312	
8461	0	29248	
8462	0	29196	
8463	0	29164	
8464	0	29108	
8465	0	29056	
8466	0	29048	
8467	0	29036	
8468	0	28984	
8469	0	28912	
8470	0	28872	
8471	0	28880	
8472	0	28900	
8473	0	28930	
8474	0	28960	
8475	0	28976	
8476	0	28984	
8477	0	28970	
8478	0	28920	
8479	0	28896	
8480	0	28892	
8481	0	28884	
8482	0	28928	
8483	0	29008	
8484	0	29002	
8485	0	28920	
8486	0	28892	
8487	0	28872	
8488	0	28836	
8489	0	28860	
8490	0	28840	
8491	0	28836	
8492	0	28856	
8493	0	28916	
8494	0	28936	
8495	0	28964	
8496	0	28972	
8497	0	28960	
8498	0	28948	
8499	0	28932	
8500	0	28944	
8501	0	28996	
8502	0	29052	
8503	0	29088	
8504	0	29052	
8505	0	29124	
8506	0	29232	
8507	0	29328	
8508	0	29420	
8509	0	29496	
8510	0	29572	
8511	0	29660	
8512	0	29704	
8513	0	29740	
8514	0	29788	
8515	0	29832	
8516	0	29826	
8517	0	29788	
8518	0	29804	
8519	0	29790	
8520	0	29776	
8521	0	29784	
8522	0	29836	
8523	0	29884	
8524	0	29908	
8525	0	29904	
8526	0	29916	
8527	0	29994	
8528	0	30124	
8529	0	30228	
8530	0	30276	
8531	0	30312	
8532	0	30336	
8533	0	30416	
8534	0	30488	
8535	0	30520	
8536	0	30572	
8537	0	30700	
8538	0	30778	
8539	0	30846	
8540	0	30876	
8541	0	30876	
8542	0	30876	
8543	0	30896	
8544	0	30900	
8545	0	30908	
8546	0	30936	
8547	0	30968	
8548	0	30976	
8549	0	30932	
8550	0	30893	
8551	0	30860	
8552	0	30844	
8553	0	30848	
8554	0	30884	
8555	0	30936	
8556	0	31032	
8557	0	31104	
8558	0	31128	
8559	0	31184	
8560	0	31224	
8561	0	31256	
8562	0	31324	
8563	0	31372	
8564	0	31392	
8565	0	31400	
8566	0	31432	
8567	0	31444	
8568	0	31480	
8569	0	31524	
8570	0	31592	
8571	0	31648	
8572	0	31672	
8573	0	31628	
8574	0	31604	
8575	0	31620	
8576	0	31648	
8577	0	31628	
8578	0	31636	
8579	0	31624	
8580	0	31652	
8581	0	31680	
8582	0	31748	
8583	0	31792	
8584	0	31804	
8585	0	31840	
8586	0	31802	
8587	0	31782	
8588	0	31780	
8589	0	31844	
8590	0	31896	
8591	0	31976	
