# OpenSignals Text File Format. Version 1
# {"00:07:80:4B:15:F7": {"position": 0, "device": "biosignalsplux", "device name": "00:07:80:4B:15:F7", "device connection": "BTH00:07:80:4B:15:F7", "sampling rate": 1000, "resolution": [16], "firmware version": 775, "comments": "", "keywords": "", "mode": 0, "sync interval": 2, "date": "2023-4-27", "time": "17:41:44.163", "channels": [1], "sensor": ["ECG"], "label": ["CH1"], "column": ["nSeq", "DI", "CH1"], "special": [{"SpO2": [80, 40, 5, 4, 3, 3]}, {"SpO2": [80, 40, 5, 4, 3, 3]}, {"SpO2": [80, 40, 5, 4, 3, 3]}, {"SpO2": [80, 40, 5, 4, 3, 3]}, {"SpO2": [80, 40, 5, 4, 3, 3]}, {"SpO2": [80, 40, 5, 4, 3, 3]}, {"SpO2": [80, 40, 5, 4, 3, 3]}, {"SpO2": [80, 40, 5, 4, 3, 3]}], "digital IO": [0, 1], "sleeve color": ["green"], "convertedValues": 0}}
# EndOfHeader
0	0	32672	
1	0	32648	
2	0	32640	
3	0	32652	
4	0	32652	
5	0	32682	
6	0	32720	
7	0	32708	
8	0	32696	
9	0	32704	
10	0	32720	
11	0	32760	
12	0	32768	
13	0	32768	
14	0	32816	
15	0	32848	
16	0	32836	
17	0	32816	
18	0	32812	
19	0	32816	
20	0	32772	
21	0	32764	
22	0	32792	
23	0	32864	
24	0	32928	
25	0	32944	
26	0	32942	
27	0	32952	
28	0	32892	
29	0	32864	
30	0	32832	
31	0	32816	
32	0	32844	
33	0	32856	
34	0	32886	
35	0	32952	
36	0	32932	
37	0	32948	
38	0	32968	
39	0	32956	
40	0	32948	
41	0	32948	
42	0	32948	
43	0	33000	
44	0	33080	
45	0	33116	
46	0	33108	
47	0	33132	
48	0	33120	
49	0	33184	
50	0	33212	
51	0	33200	
52	0	33256	
53	0	33328	
54	0	33372	
55	0	33372	
56	0	33312	
57	0	33256	
58	0	33264	
59	0	33280	
60	0	33348	
61	0	33360	
62	0	33340	
63	0	33328	
64	0	33328	
65	0	33348	
66	0	33374	
67	0	33400	
68	0	33420	
69	0	33428	
70	0	33488	
71	0	33500	
72	0	33504	
73	0	33550	
74	0	33546	
75	0	33600	
76	0	33596	
77	0	33596	
78	0	33604	
79	0	33592	
80	0	33580	
81	0	33580	
82	0	33582	
83	0	33602	
84	0	33640	
85	0	33632	
86	0	33588	
87	0	33564	
88	0	33568	
89	0	33616	
90	0	33672	
91	0	33628	
92	0	33696	
93	0	33708	
94	0	33712	
95	0	33704	
96	0	33672	
97	0	33644	
98	0	33636	
99	0	33696	
100	0	33748	
101	0	33788	
102	0	33816	
103	0	33760	
104	0	33736	
105	0	33676	
106	0	33652	
107	0	33656	
108	0	33680	
109	0	33652	
110	0	33636	
111	0	33684	
112	0	33684	
113	0	33660	
114	0	33620	
115	0	33572	
116	0	33568	
117	0	33538	
118	0	33512	
119	0	33536	
120	0	33604	
121	0	33644	
122	0	33624	
123	0	33572	
124	0	33540	
125	0	33496	
126	0	33504	
127	0	33524	
128	0	33524	
129	0	33532	
130	0	33520	
131	0	33520	
132	0	33584	
133	0	33656	
134	0	33660	
135	0	33632	
136	0	33688	
137	0	33790	
138	0	33880	
139	0	33968	
140	0	34060	
141	0	34168	
142	0	34264	
143	0	34372	
144	0	34528	
145	0	34600	
146	0	34572	
147	0	34552	
148	0	34564	
149	0	34616	
150	0	34656	
151	0	34648	
152	0	34644	
153	0	34620	
154	0	34624	
155	0	34640	
156	0	34648	
157	0	34624	
158	0	34560	
159	0	34468	
160	0	34432	
161	0	34472	
162	0	34628	
163	0	34834	
164	0	35052	
165	0	35296	
166	0	35544	
167	0	35840	
168	0	36140	
169	0	36388	
170	0	36588	
171	0	36708	
172	0	36768	
173	0	36846	
174	0	36820	
175	0	36776	
176	0	36768	
177	0	36750	
178	0	36746	
179	0	36804	
180	0	36800	
181	0	36760	
182	0	36692	
183	0	36564	
184	0	36488	
185	0	36392	
186	0	36288	
187	0	36176	
188	0	36152	
189	0	36116	
190	0	36052	
191	0	35928	
192	0	35784	
193	0	35632	
194	0	35508	
195	0	35420	
196	0	35324	
197	0	35248	
198	0	35156	
199	0	35032	
200	0	34840	
201	0	34604	
202	0	34304	
203	0	33928	
204	0	33436	
205	0	32948	
206	0	32548	
207	0	32168	
208	0	31912	
209	0	31680	
210	0	31536	
211	0	31444	
212	0	31368	
213	0	31298	
214	0	31266	
215	0	31202	
216	0	31110	
217	0	30996	
218	0	30856	
219	0	30692	
220	0	30576	
221	0	30524	
222	0	30520	
223	0	30488	
224	0	30440	
225	0	30440	
226	0	30460	
227	0	30460	
228	0	30444	
229	0	30412	
230	0	30408	
231	0	30424	
232	0	30432	
233	0	30440	
234	0	30448	
235	0	30460	
236	0	30456	
237	0	30464	
238	0	30508	
239	0	30516	
240	0	30512	
241	0	30508	
242	0	30520	
243	0	30580	
244	0	30624	
245	0	30664	
246	0	30680	
247	0	30672	
248	0	30684	
249	0	30712	
250	0	30736	
251	0	30744	
252	0	30720	
253	0	30706	
254	0	30700	
255	0	30716	
256	0	30808	
257	0	30828	
258	0	30736	
259	0	30580	
260	0	30392	
261	0	30132	
262	0	29748	
263	0	29068	
264	0	28104	
265	0	27040	
266	0	25880	
267	0	24660	
268	0	23456	
269	0	22457	
270	0	21672	
271	0	21160	
272	0	20804	
273	0	20712	
274	0	20932	
275	0	21388	
276	0	21956	
277	0	22724	
278	0	23872	
279	0	25488	
280	0	27446	
281	0	29704	
282	0	32176	
283	0	35092	
284	0	38208	
285	0	41620	
286	0	45376	
287	0	49352	
288	0	53496	
289	0	57432	
290	0	60800	
291	0	62872	
292	0	63960	
293	0	64484	
294	0	64728	
295	0	64800	
296	0	64764	
297	0	64696	
298	0	64592	
299	0	64476	
300	0	62144	
301	0	56544	
302	0	52212	
303	0	48424	
304	0	44624	
305	0	41116	
306	0	38228	
307	0	35764	
308	0	33548	
309	0	31392	
310	0	29248	
311	0	27264	
312	0	25580	
313	0	24072	
314	0	22744	
315	0	21752	
316	0	20968	
317	0	20288	
318	0	19632	
319	0	19160	
320	0	19036	
321	0	19230	
322	0	19524	
323	0	19836	
324	0	20260	
325	0	20716	
326	0	21208	
327	0	21796	
328	0	22382	
329	0	22940	
330	0	23440	
331	0	23908	
332	0	24344	
333	0	24865	
334	0	25432	
335	0	26104	
336	0	26716	
337	0	27252	
338	0	27744	
339	0	28200	
340	0	28580	
341	0	28872	
342	0	29146	
343	0	29364	
344	0	29500	
345	0	29580	
346	0	29696	
347	0	29772	
348	0	29796	
349	0	29832	
350	0	29880	
351	0	29924	
352	0	29944	
353	0	29984	
354	0	30056	
355	0	30128	
356	0	30176	
357	0	30252	
358	0	30304	
359	0	30344	
360	0	30408	
361	0	30476	
362	0	30524	
363	0	30552	
364	0	30586	
365	0	30634	
366	0	30690	
367	0	30764	
368	0	30812	
369	0	30816	
370	0	30844	
371	0	30936	
372	0	31088	
373	0	31228	
374	0	31340	
375	0	31408	
376	0	31468	
377	0	31536	
378	0	31602	
379	0	31690	
380	0	31752	
381	0	31764	
382	0	31776	
383	0	31844	
384	0	31932	
385	0	31948	
386	0	31940	
387	0	31956	
388	0	31968	
389	0	32064	
390	0	32134	
391	0	32152	
392	0	32132	
393	0	32176	
394	0	32212	
395	0	32208	
396	0	32184	
397	0	32210	
398	0	32256	
399	0	32268	
400	0	32272	
401	0	32312	
402	0	32372	
403	0	32432	
404	0	32424	
405	0	32396	
406	0	32428	
407	0	32476	
408	0	32548	
409	0	32618	
410	0	32620	
411	0	32572	
412	0	32556	
413	0	32580	
414	0	32628	
415	0	32640	
416	0	32604	
417	0	32584	
418	0	32636	
419	0	32708	
420	0	32784	
421	0	32898	
422	0	32936	
423	0	32900	
424	0	32884	
425	0	32908	
426	0	32888	
427	0	32864	
428	0	32860	
429	0	32916	
430	0	32980	
431	0	33052	
432	0	33108	
433	0	33108	
434	0	33128	
435	0	33180	
436	0	33108	
437	0	32960	
438	0	32920	
439	0	32988	
440	0	33048	
441	0	33072	
442	0	33052	
443	0	33096	
444	0	33184	
445	0	33202	
446	0	33186	
447	0	33224	
448	0	33228	
449	0	33184	
450	0	33140	
451	0	33120	
452	0	33116	
453	0	33112	
454	0	33120	
455	0	33116	
456	0	33052	
457	0	32944	
458	0	32856	
459	0	32788	
460	0	32784	
461	0	32856	
462	0	32912	
463	0	32876	
464	0	32852	
465	0	32808	
466	0	32775	
467	0	32752	
468	0	32712	
469	0	32724	
470	0	32784	
471	0	32812	
472	0	32808	
473	0	32794	
474	0	32760	
475	0	32700	
476	0	32612	
477	0	32516	
478	0	32492	
479	0	32456	
480	0	32456	
481	0	32416	
482	0	32372	
483	0	32364	
484	0	32360	
485	0	32346	
486	0	32316	
487	0	32288	
488	0	32252	
489	0	32188	
490	0	32112	
491	0	32072	
492	0	32092	
493	0	32164	
494	0	32244	
495	0	32268	
496	0	32264	
497	0	32232	
498	0	32184	
499	0	32144	
500	0	32098	
501	0	32074	
502	0	32096	
503	0	32116	
504	0	32100	
505	0	32128	
506	0	32180	
507	0	32248	
508	0	32300	
509	0	32344	
510	0	32372	
511	0	32436	
512	0	32532	
513	0	32629	
514	0	32688	
515	0	32696	
516	0	32756	
517	0	32816	
518	0	32862	
519	0	32932	
520	0	33004	
521	0	33120	
522	0	33264	
523	0	33392	
524	0	33448	
525	0	33596	
526	0	33658	
527	0	33728	
528	0	33792	
529	0	33840	
530	0	33908	
531	0	33984	
532	0	34040	
533	0	34036	
534	0	33984	
535	0	33952	
536	0	33926	
537	0	33920	
538	0	33916	
539	0	33912	
540	0	33868	
541	0	33820	
542	0	33744	
543	0	33688	
544	0	33648	
545	0	33676	
546	0	33696	
547	0	33664	
548	0	33644	
549	0	33656	
550	0	33712	
551	0	33760	
552	0	33772	
553	0	33744	
554	0	33720	
555	0	33708	
556	0	33720	
557	0	33738	
558	0	33708	
559	0	33708	
560	0	33728	
561	0	33680	
562	0	33488	
563	0	33304	
564	0	33192	
565	0	33192	
566	0	33180	
567	0	33120	
568	0	33072	
569	0	33052	
570	0	33068	
571	0	33012	
572	0	32960	
573	0	32950	
574	0	32944	
575	0	32972	
576	0	33002	
577	0	33032	
578	0	33076	
579	0	33114	
580	0	33144	
581	0	33156	
582	0	33156	
583	0	33148	
584	0	33120	
585	0	33120	
586	0	33120	
587	0	33060	
588	0	32992	
589	0	32908	
590	0	32828	
591	0	32776	
592	0	32820	
593	0	32864	
594	0	32884	
595	0	32872	
596	0	32860	
597	0	32856	
598	0	32856	
599	0	32852	
600	0	32848	
601	0	32896	
602	0	32968	
603	0	33080	
604	0	33152	
605	0	33172	
606	0	33100	
607	0	32992	
608	0	32992	
609	0	33004	
610	0	32968	
611	0	32922	
612	0	32892	
613	0	32916	
614	0	32960	
615	0	32986	
616	0	32980	
617	0	32996	
618	0	33016	
619	0	33080	
620	0	33124	
621	0	33108	
622	0	33068	
623	0	33048	
624	0	33084	
625	0	33204	
626	0	33336	
627	0	33436	
628	0	33432	
629	0	33360	
630	0	33256	
631	0	33116	
632	0	32960	
633	0	32832	
634	0	32792	
635	0	32840	
636	0	32928	
637	0	33010	
638	0	33116	
639	0	33258	
640	0	33332	
641	0	33412	
642	0	33412	
643	0	33416	
644	0	33424	
645	0	33460	
646	0	33480	
647	0	33476	
648	0	33472	
649	0	33512	
650	0	33572	
651	0	33642	
652	0	33684	
653	0	33736	
654	0	33738	
655	0	33720	
656	0	33734	
657	0	33688	
658	0	33696	
659	0	33726	
660	0	33780	
661	0	33824	
662	0	33848	
663	0	33906	
664	0	33912	
665	0	33872	
666	0	33832	
667	0	33780	
668	0	33752	
669	0	33700	
670	0	33712	
671	0	33752	
672	0	33756	
673	0	33760	
674	0	33792	
675	0	33824	
676	0	33796	
677	0	33700	
678	0	33612	
679	0	33616	
680	0	33644	
681	0	33664	
682	0	33648	
683	0	33632	
684	0	33584	
685	0	33572	
686	0	33632	
687	0	33728	
688	0	33792	
689	0	33828	
690	0	33912	
691	0	33988	
692	0	34028	
693	0	33984	
694	0	33896	
695	0	33776	
696	0	33696	
697	0	33676	
698	0	33684	
699	0	33674	
700	0	33640	
701	0	33616	
702	0	33680	
703	0	33770	
704	0	33840	
705	0	33900	
706	0	33976	
707	0	34008	
708	0	34052	
709	0	34112	
710	0	34152	
711	0	34188	
712	0	34224	
713	0	34316	
714	0	34408	
715	0	34536	
716	0	34584	
717	0	34560	
718	0	34560	
719	0	34586	
720	0	34588	
721	0	34564	
722	0	34600	
723	0	34768	
724	0	34876	
725	0	34896	
726	0	34872	
727	0	34780	
728	0	34704	
729	0	34704	
730	0	34704	
731	0	34728	
732	0	34788	
733	0	34912	
734	0	35152	
735	0	35464	
736	0	35772	
737	0	36128	
738	0	36504	
739	0	36824	
740	0	37072	
741	0	37196	
742	0	37280	
743	0	37332	
744	0	37316	
745	0	37280	
746	0	37208	
747	0	37096	
748	0	37024	
749	0	37024	
750	0	37068	
751	0	37048	
752	0	36968	
753	0	36864	
754	0	36796	
755	0	36696	
756	0	36576	
757	0	36412	
758	0	36328	
759	0	36272	
760	0	36236	
761	0	36228	
762	0	36292	
763	0	36364	
764	0	36352	
765	0	36204	
766	0	36016	
767	0	35784	
768	0	35512	
769	0	35256	
770	0	35004	
771	0	34752	
772	0	34496	
773	0	34192	
774	0	33948	
775	0	33688	
776	0	33372	
777	0	32944	
778	0	32556	
779	0	32280	
780	0	32088	
781	0	31896	
782	0	31666	
783	0	31464	
784	0	31368	
785	0	31320	
786	0	31310	
787	0	31304	
788	0	31288	
789	0	31232	
790	0	31160	
791	0	31000	
792	0	30820	
793	0	30648	
794	0	30496	
795	0	30396	
796	0	30300	
797	0	30224	
798	0	30176	
799	0	30212	
800	0	30220	
801	0	30344	
802	0	30540	
803	0	30608	
804	0	30612	
805	0	30664	
806	0	30686	
807	0	30644	
808	0	30544	
809	0	30416	
810	0	30324	
811	0	30320	
812	0	30340	
813	0	30408	
814	0	30544	
815	0	30660	
816	0	30684	
817	0	30778	
818	0	30848	
819	0	30876	
820	0	30800	
821	0	30712	
822	0	30664	
823	0	30576	
824	0	30496	
825	0	30392	
826	0	30356	
827	0	30296	
828	0	30280	
829	0	30304	
830	0	30288	
831	0	30208	
832	0	30104	
833	0	29828	
834	0	29216	
835	0	28356	
836	0	27436	
837	0	26540	
838	0	25648	
839	0	24768	
840	0	24044	
841	0	23540	
842	0	23184	
843	0	22944	
844	0	22924	
845	0	23132	
846	0	23540	
847	0	24118	
848	0	25052	
849	0	26360	
850	0	28004	
851	0	29952	
852	0	32440	
853	0	35204	
854	0	37984	
855	0	40684	
856	0	43616	
857	0	46936	
858	0	50548	
859	0	54364	
860	0	58104	
861	0	61084	
862	0	62728	
863	0	63576	
864	0	63948	
865	0	64124	
866	0	64152	
867	0	64128	
868	0	64036	
869	0	63928	
870	0	63816	
871	0	56256	
872	0	49712	
873	0	44324	
874	0	39720	
875	0	35396	
876	0	31968	
877	0	29664	
878	0	28240	
879	0	27168	
880	0	26080	
881	0	24844	
882	0	23368	
883	0	21876	
884	0	20494	
885	0	19264	
886	0	18302	
887	0	17644	
888	0	17192	
889	0	16724	
890	0	16264	
891	0	16098	
892	0	16164	
893	0	16514	
894	0	17120	
895	0	17852	
896	0	18564	
897	0	19134	
898	0	19810	
899	0	20536	
900	0	21184	
901	0	21776	
902	0	22328	
903	0	22924	
904	0	23380	
905	0	23784	
906	0	24290	
907	0	24962	
908	0	25652	
909	0	26336	
910	0	27056	
911	0	27760	
912	0	28272	
913	0	28634	
914	0	29040	
915	0	29464	
916	0	29864	
917	0	30240	
918	0	30504	
919	0	30660	
920	0	30696	
921	0	30776	
922	0	30844	
923	0	30740	
924	0	30628	
925	0	30628	
926	0	30716	
927	0	30848	
928	0	30944	
929	0	30984	
930	0	31060	
931	0	31156	
932	0	31398	
933	0	31604	
934	0	31584	
935	0	31456	
936	0	31404	
937	0	31432	
938	0	31492	
939	0	31512	
940	0	31524	
941	0	31604	
942	0	31712	
943	0	31820	
944	0	31868	
945	0	31860	
946	0	31840	
947	0	31968	
948	0	32264	
949	0	32504	
950	0	32460	
951	0	32360	
952	0	32208	
953	0	32092	
954	0	32120	
955	0	32188	
956	0	32144	
957	0	32040	
958	0	32112	
959	0	32344	
960	0	32620	
961	0	32792	
962	0	32940	
963	0	33088	
964	0	33204	
965	0	33092	
966	0	32960	
967	0	32864	
968	0	32828	
969	0	32752	
970	0	32752	
971	0	32740	
972	0	32808	
973	0	33048	
974	0	33096	
975	0	32976	
976	0	33044	
977	0	33178	
978	0	33128	
979	0	32992	
980	0	32964	
981	0	33056	
982	0	33266	
983	0	33376	
984	0	33092	
985	0	32844	
986	0	32768	
987	0	33028	
988	0	33352	
989	0	33472	
990	0	33476	
991	0	33516	
992	0	33352	
993	0	33268	
994	0	33380	
995	0	33648	
996	0	33986	
997	0	33908	
998	0	33680	
999	0	33836	
1000	0	33800	
1001	0	33420	
1002	0	33188	
1003	0	33104	
1004	0	33464	
1005	0	33688	
1006	0	33728	
1007	0	33776	
1008	0	34016	
1009	0	34208	
1010	0	34128	
1011	0	33796	
1012	0	33276	
1013	0	33160	
1014	0	33500	
1015	0	33738	
1016	0	33664	
1017	0	33536	
1018	0	33516	
1019	0	33716	
1020	0	33792	
1021	0	33668	
1022	0	33508	
1023	0	33508	
1024	0	33672	
1025	0	33904	
1026	0	33840	
1027	0	33544	
1028	0	33454	
1029	0	33556	
1030	0	33354	
1031	0	33144	
1032	0	33112	
1033	0	33144	
1034	0	33282	
1035	0	33364	
1036	0	33348	
1037	0	33520	
1038	0	33940	
1039	0	34356	
1040	0	34480	
1041	0	34428	
1042	0	34156	
1043	0	33764	
1044	0	33464	
1045	0	33256	
1046	0	33116	
1047	0	32900	
1048	0	32752	
1049	0	32836	
1050	0	32988	
1051	0	33192	
1052	0	33232	
1053	0	33188	
1054	0	33032	
1055	0	32848	
1056	0	32816	
1057	0	32812	
1058	0	32716	
1059	0	32800	
1060	0	32836	
1061	0	32708	
1062	0	32788	
1063	0	33008	
1064	0	33200	
1065	0	33122	
1066	0	32864	
1067	0	32609	
1068	0	32456	
1069	0	32412	
1070	0	32504	
1071	0	32756	
1072	0	33120	
1073	0	33032	
1074	0	32720	
1075	0	32412	
1076	0	32268	
1077	0	32336	
1078	0	32624	
1079	0	32924	
1080	0	33208	
1081	0	33428	
1082	0	33452	
1083	0	33286	
1084	0	33212	
1085	0	33188	
1086	0	33228	
1087	0	33248	
1088	0	33432	
1089	0	33692	
1090	0	33892	
1091	0	33876	
1092	0	33788	
1093	0	33848	
1094	0	33852	
1095	0	33956	
1096	0	34092	
1097	0	34116	
1098	0	34096	
1099	0	34156	
1100	0	34254	
1101	0	34168	
1102	0	34012	
1103	0	33916	
1104	0	33892	
1105	0	33832	
1106	0	33644	
1107	0	33506	
1108	0	33600	
1109	0	33816	
1110	0	33840	
1111	0	33748	
1112	0	33644	
1113	0	33708	
1114	0	33840	
1115	0	33844	
1116	0	33736	
1117	0	33344	
1118	0	33144	
1119	0	33312	
1120	0	33514	
1121	0	33716	
1122	0	33900	
1123	0	33608	
1124	0	33268	
1125	0	33020	
1126	0	32732	
1127	0	32660	
1128	0	32712	
1129	0	32816	
1130	0	33012	
1131	0	33116	
1132	0	33064	
1133	0	32968	
1134	0	32968	
1135	0	33048	
1136	0	33088	
1137	0	33022	
1138	0	32960	
1139	0	32908	
1140	0	32756	
1141	0	32680	
1142	0	32644	
1143	0	32620	
1144	0	32628	
1145	0	32624	
1146	0	32566	
1147	0	32504	
1148	0	32352	
1149	0	32176	
1150	0	32288	
1151	0	32508	
1152	0	32736	
1153	0	32816	
1154	0	32764	
1155	0	32586	
1156	0	32600	
1157	0	32584	
1158	0	32456	
1159	0	32272	
1160	0	32136	
1161	0	32040	
1162	0	32080	
1163	0	32272	
1164	0	32460	
1165	0	32716	
1166	0	32788	
1167	0	32704	
1168	0	32560	
1169	0	32408	
1170	0	32386	
1171	0	32484	
1172	0	32500	
1173	0	32360	
1174	0	32320	
1175	0	32468	
1176	0	32528	
1177	0	32568	
1178	0	32628	
1179	0	32700	
1180	0	32640	
1181	0	32396	
1182	0	32108	
1183	0	31924	
1184	0	31964	
1185	0	32188	
1186	0	32444	
1187	0	32672	
1188	0	32696	
1189	0	32568	
1190	0	32384	
1191	0	32304	
1192	0	32316	
1193	0	32324	
1194	0	32348	
1195	0	32338	
1196	0	32272	
1197	0	32332	
1198	0	32484	
1199	0	32480	
1200	0	32336	
1201	0	32128	
1202	0	32184	
1203	0	32408	
1204	0	32352	
1205	0	32428	
1206	0	32800	
1207	0	33262	
1208	0	33548	
1209	0	33592	
1210	0	33488	
1211	0	33184	
1212	0	32804	
1213	0	32504	
1214	0	32392	
1215	0	32440	
1216	0	32560	
1217	0	32556	
1218	0	32500	
1219	0	32490	
1220	0	32552	
1221	0	32722	
1222	0	33024	
1223	0	33156	
1224	0	33096	
1225	0	33146	
1226	0	33360	
1227	0	33532	
1228	0	33616	
1229	0	33344	
1230	0	32944	
1231	0	32752	
1232	0	32640	
1233	0	32632	
1234	0	32744	
1235	0	32928	
1236	0	33168	
1237	0	33388	
1238	0	33492	
1239	0	33504	
1240	0	33608	
1241	0	33640	
1242	0	33596	
1243	0	33524	
1244	0	33428	
1245	0	33216	
1246	0	33016	
1247	0	33008	
1248	0	33016	
1249	0	33000	
1250	0	33088	
1251	0	33172	
1252	0	33160	
1253	0	33256	
1254	0	33498	
1255	0	33824	
1256	0	34132	
1257	0	34240	
1258	0	34308	
1259	0	34296	
1260	0	34232	
1261	0	34316	
1262	0	34368	
1263	0	34272	
1264	0	34172	
1265	0	34044	
1266	0	33940	
1267	0	33788	
1268	0	33736	
1269	0	33808	
1270	0	33928	
1271	0	34148	
1272	0	34360	
1273	0	34388	
1274	0	34364	
1275	0	34400	
1276	0	34436	
1277	0	34604	
1278	0	34884	
1279	0	35168	
1280	0	35072	
1281	0	34780	
1282	0	34768	
1283	0	34986	
1284	0	35240	
1285	0	35332	
1286	0	35272	
1287	0	35068	
1288	0	34948	
1289	0	35224	
1290	0	35632	
1291	0	35756	
1292	0	35496	
1293	0	35208	
1294	0	35380	
1295	0	35756	
1296	0	35976	
1297	0	36116	
1298	0	36212	
1299	0	36464	
1300	0	36800	
1301	0	36752	
1302	0	36692	
1303	0	36696	
1304	0	36800	
1305	0	36788	
1306	0	36696	
1307	0	36776	
1308	0	36876	
1309	0	37092	
1310	0	37040	
1311	0	36816	
1312	0	36848	
1313	0	37056	
1314	0	37248	
1315	0	37196	
1316	0	36840	
1317	0	36268	
1318	0	35766	
1319	0	35556	
1320	0	35560	
1321	0	35528	
1322	0	35370	
1323	0	35072	
1324	0	34744	
1325	0	34592	
1326	0	34440	
1327	0	34468	
1328	0	34644	
1329	0	34728	
1330	0	34568	
1331	0	34412	
1332	0	34116	
1333	0	33708	
1334	0	33192	
1335	0	32664	
1336	0	32100	
1337	0	31784	
1338	0	31778	
1339	0	31800	
1340	0	31712	
1341	0	31628	
1342	0	31424	
1343	0	31212	
1344	0	31172	
1345	0	31328	
1346	0	31564	
1347	0	31644	
1348	0	31552	
1349	0	31234	
1350	0	30764	
1351	0	30384	
1352	0	30196	
1353	0	30160	
1354	0	30176	
1355	0	30284	
1356	0	30644	
1357	0	30956	
1358	0	30873	
1359	0	30704	
1360	0	30744	
1361	0	30756	
1362	0	30712	
1363	0	30620	
1364	0	30436	
1365	0	30090	
1366	0	29816	
1367	0	29704	
1368	0	29812	
1369	0	30076	
1370	0	30368	
1371	0	30580	
1372	0	30648	
1373	0	30788	
1374	0	30892	
1375	0	30816	
1376	0	30882	
1377	0	31140	
1378	0	31296	
1379	0	31220	
1380	0	30944	
1381	0	30608	
1382	0	30368	
1383	0	30258	
1384	0	30232	
1385	0	30240	
1386	0	30188	
1387	0	30065	
1388	0	30076	
1389	0	29980	
1390	0	29528	
1391	0	28632	
1392	0	27640	
1393	0	26740	
1394	0	26088	
1395	0	25498	
1396	0	24916	
1397	0	24444	
1398	0	24040	
1399	0	23920	
1400	0	24052	
1401	0	24332	
1402	0	24880	
1403	0	25372	
1404	0	26148	
1405	0	27488	
1406	0	29150	
1407	0	31116	
1408	0	33504	
1409	0	36068	
1410	0	38696	
1411	0	41328	
1412	0	44196	
1413	0	47380	
1414	0	50632	
1415	0	53916	
1416	0	57240	
1417	0	60336	
1418	0	62220	
1419	0	63184	
1420	0	63664	
1421	0	63872	
1422	0	63924	
1423	0	63904	
1424	0	63832	
1425	0	63728	
1426	0	62548	
1427	0	53216	
1428	0	45672	
1429	0	39888	
1430	0	35296	
1431	0	31392	
1432	0	28424	
1433	0	26610	
1434	0	25592	
1435	0	24908	
1436	0	24360	
1437	0	23732	
1438	0	22688	
1439	0	21132	
1440	0	19418	
1441	0	18134	
1442	0	17320	
1443	0	16896	
1444	0	16656	
1445	0	16592	
1446	0	16632	
1447	0	16696	
1448	0	16894	
1449	0	16920	
1450	0	17152	
1451	0	17481	
1452	0	17826	
1453	0	18350	
1454	0	18768	
1455	0	19068	
1456	0	19432	
1457	0	19896	
1458	0	20504	
1459	0	21173	
1460	0	21964	
1461	0	22828	
1462	0	23668	
1463	0	24416	
1464	0	25056	
1465	0	25776	
1466	0	26576	
1467	0	27248	
1468	0	27804	
1469	0	28332	
1470	0	28880	
1471	0	29520	
1472	0	30124	
1473	0	30592	
1474	0	30884	
1475	0	30864	
1476	0	30800	
1477	0	30952	
1478	0	31152	
1479	0	31060	
1480	0	30760	
1481	0	30724	
1482	0	31112	
1483	0	31582	
1484	0	31904	
1485	0	31840	
1486	0	31604	
1487	0	31458	
1488	0	31488	
1489	0	31360	
1490	0	31200	
1491	0	31236	
1492	0	31348	
1493	0	31248	
1494	0	31232	
1495	0	31378	
1496	0	31656	
1497	0	31876	
1498	0	31984	
1499	0	32040	
1500	0	32152	
1501	0	32368	
1502	0	32624	
1503	0	32908	
1504	0	32864	
1505	0	32416	
1506	0	32148	
1507	0	32068	
1508	0	31884	
1509	0	31800	
1510	0	31964	
1511	0	32356	
1512	0	32968	
1513	0	33050	
1514	0	32792	
1515	0	32608	
1516	0	32772	
1517	0	33036	
1518	0	33156	
1519	0	33100	
1520	0	33082	
1521	0	33120	
1522	0	33118	
1523	0	32956	
1524	0	32772	
1525	0	32474	
1526	0	32448	
1527	0	32556	
1528	0	32608	
1529	0	32536	
1530	0	32468	
1531	0	32712	
1532	0	32896	
1533	0	33012	
1534	0	33276	
1535	0	33424	
1536	0	33468	
1537	0	33540	
1538	0	33568	
1539	0	33328	
1540	0	32952	
1541	0	32722	
1542	0	32640	
1543	0	32708	
1544	0	32892	
1545	0	33176	
1546	0	33532	
1547	0	33492	
1548	0	33288	
1549	0	33284	
1550	0	33372	
1551	0	33274	
1552	0	33020	
1553	0	32808	
1554	0	32820	
1555	0	33012	
1556	0	33368	
1557	0	33748	
1558	0	33992	
1559	0	33928	
1560	0	33776	
1561	0	33504	
1562	0	33320	
1563	0	33400	
1564	0	33456	
1565	0	33466	
1566	0	33570	
1567	0	33840	
1568	0	34208	
1569	0	34352	
1570	0	34192	
1571	0	33896	
1572	0	33844	
1573	0	34000	
1574	0	33912	
1575	0	33552	
1576	0	33176	
1577	0	33092	
1578	0	33352	
1579	0	33700	
1580	0	34136	
1581	0	34384	
1582	0	34252	
1583	0	33876	
1584	0	33492	
1585	0	33138	
1586	0	32964	
1587	0	32944	
1588	0	32988	
1589	0	33072	
1590	0	33192	
1591	0	33168	
1592	0	33032	
1593	0	33012	
1594	0	33224	
1595	0	33424	
1596	0	33596	
1597	0	33632	
1598	0	33492	
1599	0	33370	
1600	0	33388	
1601	0	33384	
1602	0	33412	
1603	0	33452	
1604	0	33572	
1605	0	33540	
1606	0	33336	
1607	0	33080	
1608	0	32960	
1609	0	32944	
1610	0	32794	
1611	0	32640	
1612	0	32538	
1613	0	32592	
1614	0	32640	
1615	0	32712	
1616	0	32824	
1617	0	32976	
1618	0	33176	
1619	0	33368	
1620	0	33536	
1621	0	33532	
1622	0	33368	
1623	0	33180	
1624	0	32916	
1625	0	32610	
1626	0	32400	
1627	0	32280	
1628	0	32404	
1629	0	32608	
1630	0	32794	
1631	0	32956	
1632	0	33172	
1633	0	33218	
1634	0	33048	
1635	0	32740	
1636	0	32680	
1637	0	32692	
1638	0	32788	
1639	0	32904	
1640	0	32956	
1641	0	33120	
1642	0	33312	
1643	0	33224	
1644	0	33268	
1645	0	33524	
1646	0	33928	
1647	0	34120	
1648	0	34184	
1649	0	34128	
1650	0	33980	
1651	0	33712	
1652	0	33516	
1653	0	33504	
1654	0	33492	
1655	0	33500	
1656	0	33506	
1657	0	33520	
1658	0	33632	
1659	0	33824	
1660	0	33920	
1661	0	33948	
1662	0	34116	
1663	0	34316	
1664	0	34592	
1665	0	34628	
1666	0	34448	
1667	0	34252	
1668	0	34120	
1669	0	33972	
1670	0	33796	
1671	0	33460	
1672	0	33048	
1673	0	32768	
1674	0	32624	
1675	0	32624	
1676	0	32726	
1677	0	32848	
1678	0	32896	
1679	0	32988	
1680	0	32968	
1681	0	32754	
1682	0	32608	
1683	0	32620	
1684	0	32772	
1685	0	32888	
1686	0	32960	
1687	0	33092	
1688	0	33120	
1689	0	33076	
1690	0	33064	
1691	0	33096	
1692	0	32992	
1693	0	32616	
1694	0	32192	
1695	0	31912	
1696	0	31836	
1697	0	31832	
1698	0	32016	
1699	0	32228	
1700	0	32212	
1701	0	32080	
1702	0	32040	
1703	0	32020	
1704	0	32122	
1705	0	32232	
1706	0	32176	
1707	0	32000	
1708	0	31808	
1709	0	31756	
1710	0	31884	
1711	0	32172	
1712	0	32432	
1713	0	32588	
1714	0	32552	
1715	0	32528	
1716	0	32460	
1717	0	32442	
1718	0	32472	
1719	0	32344	
1720	0	32092	
1721	0	31850	
1722	0	31980	
1723	0	32320	
1724	0	32504	
1725	0	32480	
1726	0	32400	
1727	0	32332	
1728	0	32236	
1729	0	32148	
1730	0	31980	
1731	0	31876	
1732	0	31762	
1733	0	31662	
1734	0	31644	
1735	0	31728	
1736	0	31772	
1737	0	31776	
1738	0	31860	
1739	0	31892	
1740	0	31844	
1741	0	31936	
1742	0	32328	
1743	0	32872	
1744	0	33164	
1745	0	33036	
1746	0	32560	
1747	0	32284	
1748	0	32204	
1749	0	32108	
1750	0	32080	
1751	0	32160	
1752	0	32272	
1753	0	32184	
1754	0	32094	
1755	0	32260	
1756	0	32600	
1757	0	32692	
1758	0	32552	
1759	0	32248	
1760	0	32010	
1761	0	32144	
1762	0	32550	
1763	0	33044	
1764	0	33204	
1765	0	33152	
1766	0	32960	
1767	0	32704	
1768	0	32528	
1769	0	32292	
1770	0	32124	
1771	0	32104	
1772	0	32240	
1773	0	32472	
1774	0	32704	
1775	0	32926	
1776	0	33012	
1777	0	33008	
1778	0	32944	
1779	0	32888	
1780	0	32796	
1781	0	32616	
1782	0	32456	
1783	0	32380	
1784	0	32364	
1785	0	32404	
1786	0	32568	
1787	0	32764	
1788	0	32832	
1789	0	32860	
1790	0	32860	
1791	0	32976	
1792	0	33024	
1793	0	32976	
1794	0	32860	
1795	0	32740	
1796	0	32660	
1797	0	32684	
1798	0	32776	
1799	0	32884	
1800	0	33080	
1801	0	33152	
1802	0	33036	
1803	0	33052	
1804	0	33296	
1805	0	33616	
1806	0	33804	
1807	0	34016	
1808	0	34094	
1809	0	33820	
1810	0	33440	
1811	0	33216	
1812	0	33212	
1813	0	33316	
1814	0	33504	
1815	0	33616	
1816	0	33552	
1817	0	33528	
1818	0	33746	
1819	0	33988	
1820	0	34072	
1821	0	34092	
1822	0	34176	
1823	0	34308	
1824	0	34272	
1825	0	34144	
1826	0	34056	
1827	0	34089	
1828	0	34264	
1829	0	34560	
1830	0	34768	
1831	0	34764	
1832	0	34684	
1833	0	34668	
1834	0	34724	
1835	0	34832	
1836	0	34868	
1837	0	34892	
1838	0	34936	
1839	0	34930	
1840	0	34928	
1841	0	35080	
1842	0	35356	
1843	0	35744	
1844	0	36184	
1845	0	36636	
1846	0	36916	
1847	0	37012	
1848	0	36898	
1849	0	36724	
1850	0	36712	
1851	0	36820	
1852	0	36864	
1853	0	36808	
1854	0	36744	
1855	0	36788	
1856	0	36804	
1857	0	36648	
1858	0	36420	
1859	0	36232	
1860	0	36148	
1861	0	36144	
1862	0	36144	
1863	0	36212	
1864	0	36288	
1865	0	36320	
1866	0	36296	
1867	0	36172	
1868	0	35926	
1869	0	35704	
1870	0	35564	
1871	0	35456	
1872	0	35324	
1873	0	35344	
1874	0	35352	
1875	0	35172	
1876	0	35032	
1877	0	34824	
1878	0	34504	
1879	0	34200	
1880	0	33720	
1881	0	33124	
1882	0	32600	
1883	0	32224	
1884	0	32044	
1885	0	32036	
1886	0	32084	
1887	0	31894	
1888	0	31568	
1889	0	31344	
1890	0	31180	
1891	0	31068	
1892	0	30916	
1893	0	30756	
1894	0	30624	
1895	0	30492	
1896	0	30436	
1897	0	30488	
1898	0	30648	
1899	0	30816	
1900	0	30872	
1901	0	30744	
1902	0	30548	
1903	0	30416	
1904	0	30416	
1905	0	30576	
1906	0	30706	
1907	0	30732	
1908	0	30648	
1909	0	30448	
1910	0	30288	
1911	0	30316	
1912	0	30568	
1913	0	30908	
1914	0	31032	
1915	0	30914	
1916	0	30688	
1917	0	30564	
1918	0	30604	
1919	0	30776	
1920	0	30940	
1921	0	30877	
1922	0	30684	
1923	0	30284	
1924	0	29884	
1925	0	29744	
1926	0	29788	
1927	0	29796	
1928	0	30004	
1929	0	30464	
1930	0	30784	
1931	0	30868	
1932	0	30880	
1933	0	30732	
1934	0	30476	
1935	0	30268	
1936	0	30064	
1937	0	29664	
1938	0	28936	
1939	0	28112	
1940	0	27200	
1941	0	26212	
1942	0	25200	
1943	0	24208	
1944	0	23246	
1945	0	22458	
1946	0	21978	
1947	0	21728	
1948	0	21776	
1949	0	21964	
1950	0	22406	
1951	0	22992	
1952	0	23708	
1953	0	24784	
1954	0	26256	
1955	0	28076	
1956	0	30384	
1957	0	33016	
1958	0	35872	
1959	0	38696	
1960	0	41704	
1961	0	45116	
1962	0	48740	
1963	0	52376	
1964	0	56096	
1965	0	59524	
1966	0	61996	
1967	0	63312	
1968	0	63960	
1969	0	64288	
1970	0	64380	
1971	0	64380	
1972	0	64328	
1973	0	64232	
1974	0	64124	
1975	0	55684	
1976	0	48144	
1977	0	41928	
1978	0	36868	
1979	0	32512	
1980	0	28986	
1981	0	26888	
1982	0	25860	
1983	0	25222	
1984	0	24632	
1985	0	23832	
1986	0	22636	
1987	0	21336	
1988	0	20326	
1989	0	19436	
1990	0	18720	
1991	0	18340	
1992	0	18040	
1993	0	17728	
1994	0	17425	
1995	0	17188	
1996	0	17081	
1997	0	17208	
1998	0	17496	
1999	0	17960	
2000	0	18564	
2001	0	19028	
2002	0	19498	
2003	0	20056	
2004	0	20682	
2005	0	21304	
2006	0	21856	
2007	0	22452	
2008	0	23016	
2009	0	23554	
2010	0	24104	
2011	0	24714	
2012	0	25450	
2013	0	26348	
2014	0	27312	
2015	0	28132	
2016	0	28768	
2017	0	29248	
2018	0	29552	
2019	0	29808	
2020	0	30060	
2021	0	30296	
2022	0	30512	
2023	0	30660	
2024	0	30708	
2025	0	30648	
2026	0	30632	
2027	0	30644	
2028	0	30672	
2029	0	30740	
2030	0	30784	
2031	0	30804	
2032	0	30848	
2033	0	30976	
2034	0	31064	
2035	0	31098	
2036	0	31100	
2037	0	31096	
2038	0	31160	
2039	0	31312	
2040	0	31456	
2041	0	31500	
2042	0	31416	
2043	0	31340	
2044	0	31394	
2045	0	31576	
2046	0	31820	
2047	0	32056	
2048	0	32256	
2049	0	32320	
2050	0	32288	
2051	0	32228	
2052	0	32186	
2053	0	32192	
2054	0	32192	
2055	0	32116	
2056	0	32044	
2057	0	32028	
2058	0	32064	
2059	0	32208	
2060	0	32388	
2061	0	32408	
2062	0	32308	
2063	0	32332	
2064	0	32388	
2065	0	32384	
2066	0	32480	
2067	0	32600	
2068	0	32624	
2069	0	32652	
2070	0	32660	
2071	0	32664	
2072	0	32604	
2073	0	32492	
2074	0	32488	
2075	0	32556	
2076	0	32608	
2077	0	32672	
2078	0	32752	
2079	0	32844	
2080	0	32884	
2081	0	32840	
2082	0	32784	
2083	0	32840	
2084	0	32896	
2085	0	32896	
2086	0	32976	
2087	0	33114	
2088	0	33234	
2089	0	33292	
2090	0	33268	
2091	0	33172	
2092	0	33108	
2093	0	33124	
2094	0	33194	
2095	0	33220	
2096	0	33192	
2097	0	33144	
2098	0	33072	
2099	0	33096	
2100	0	33156	
2101	0	33296	
2102	0	33404	
2103	0	33456	
2104	0	33496	
2105	0	33484	
2106	0	33376	
2107	0	33188	
2108	0	33042	
2109	0	33044	
2110	0	33232	
2111	0	33525	
2112	0	33792	
2113	0	33944	
2114	0	33876	
2115	0	33664	
2116	0	33472	
2117	0	33332	
2118	0	33352	
2119	0	33432	
2120	0	33464	
2121	0	33408	
2122	0	33316	
2123	0	33256	
2124	0	33288	
2125	0	33388	
2126	0	33476	
2127	0	33484	
2128	0	33448	
2129	0	33440	
2130	0	33428	
2131	0	33392	
2132	0	33296	
2133	0	33212	
2134	0	33188	
2135	0	33300	
2136	0	33384	
2137	0	33388	
2138	0	33276	
2139	0	33146	
2140	0	33008	
2141	0	32824	
2142	0	32756	
2143	0	32880	
2144	0	33000	
2145	0	33088	
2146	0	33116	
2147	0	33008	
2148	0	32804	
2149	0	32640	
2150	0	32576	
2151	0	32572	
2152	0	32600	
2153	0	32608	
2154	0	32608	
2155	0	32608	
2156	0	32632	
2157	0	32732	
2158	0	32928	
2159	0	33072	
2160	0	32972	
2161	0	32704	
2162	0	32472	
2163	0	32424	
2164	0	32448	
2165	0	32508	
2166	0	32556	
2167	0	32464	
2168	0	32280	
2169	0	32192	
2170	0	32144	
2171	0	32092	
2172	0	32104	
2173	0	32104	
2174	0	32064	
2175	0	32044	
2176	0	32158	
2177	0	32392	
2178	0	32520	
2179	0	32508	
2180	0	32432	
2181	0	32344	
2182	0	32268	
2183	0	32256	
2184	0	32272	
2185	0	32300	
2186	0	32340	
2187	0	32384	
2188	0	32392	
2189	0	32384	
2190	0	32404	
2191	0	32472	
2192	0	32624	
2193	0	32872	
2194	0	33116	
2195	0	33292	
2196	0	33344	
2197	0	33360	
2198	0	33432	
2199	0	33552	
2200	0	33612	
2201	0	33580	
2202	0	33460	
2203	0	33380	
2204	0	33436	
2205	0	33536	
2206	0	33512	
2207	0	33456	
2208	0	33440	
2209	0	33464	
2210	0	33444	
2211	0	33388	
2212	0	33408	
2213	0	33448	
2214	0	33332	
2215	0	33158	
2216	0	33032	
2217	0	32994	
2218	0	33008	
2219	0	33096	
2220	0	33196	
2221	0	33272	
2222	0	33288	
2223	0	33226	
2224	0	33220	
2225	0	33244	
2226	0	33240	
2227	0	33220	
2228	0	33168	
2229	0	33120	
2230	0	33020	
2231	0	32946	
2232	0	32914	
2233	0	32948	
2234	0	32972	
2235	0	32984	
2236	0	32964	
2237	0	32888	
2238	0	32896	
2239	0	32948	
2240	0	32992	
2241	0	33032	
2242	0	32996	
2243	0	32920	
2244	0	32872	
2245	0	32876	
2246	0	32804	
2247	0	32680	
2248	0	32608	
2249	0	32516	
2250	0	32432	
2251	0	32392	
2252	0	32372	
2253	0	32336	
2254	0	32332	
2255	0	32372	
2256	0	32410	
2257	0	32448	
2258	0	32528	
2259	0	32536	
2260	0	32484	
2261	0	32480	
2262	0	32496	
2263	0	32508	
2264	0	32580	
2265	0	32680	
2266	0	32768	
2267	0	32784	
2268	0	32752	
2269	0	32672	
2270	0	32564	
2271	0	32504	
2272	0	32518	
2273	0	32564	
2274	0	32548	
2275	0	32480	
2276	0	32424	
2277	0	32404	
2278	0	32448	
2279	0	32528	
2280	0	32564	
2281	0	32544	
2282	0	32520	
2283	0	32480	
2284	0	32342	
2285	0	32176	
2286	0	32112	
2287	0	32192	
2288	0	32332	
2289	0	32492	
2290	0	32632	
2291	0	32672	
2292	0	32668	
2293	0	32648	
2294	0	32628	
2295	0	32668	
2296	0	32704	
2297	0	32716	
2298	0	32648	
2299	0	32608	
2300	0	32588	
2301	0	32584	
2302	0	32544	
2303	0	32584	
2304	0	32652	
2305	0	32756	
2306	0	32768	
2307	0	32716	
2308	0	32656	
2309	0	32646	
2310	0	32672	
2311	0	32696	
2312	0	32784	
2313	0	32852	
2314	0	32832	
2315	0	32804	
2316	0	32784	
2317	0	32784	
2318	0	32844	
2319	0	32936	
2320	0	33040	
2321	0	33068	
2322	0	33004	
2323	0	32936	
2324	0	32940	
2325	0	32932	
2326	0	32912	
2327	0	32952	
2328	0	32972	
2329	0	32988	
2330	0	32968	
2331	0	32956	
2332	0	32996	
2333	0	33092	
2334	0	33124	
2335	0	33116	
2336	0	33096	
2337	0	33104	
2338	0	33160	
2339	0	33272	
2340	0	33364	
2341	0	33412	
2342	0	33416	
2343	0	33384	
2344	0	33372	
2345	0	33356	
2346	0	33400	
2347	0	33484	
2348	0	33572	
2349	0	33604	
2350	0	33592	
2351	0	33540	
2352	0	33516	
2353	0	33516	
2354	0	33488	
2355	0	33466	
2356	0	33488	
2357	0	33524	
2358	0	33524	
2359	0	33476	
2360	0	33400	
2361	0	33388	
2362	0	33452	
2363	0	33576	
2364	0	33728	
2365	0	33864	
2366	0	33936	
2367	0	33964	
2368	0	34052	
2369	0	34196	
2370	0	34308	
2371	0	34392	
2372	0	34504	
2373	0	34612	
2374	0	34736	
2375	0	34864	
2376	0	35008	
2377	0	35096	
2378	0	35124	
2379	0	35112	
2380	0	35028	
2381	0	34960	
2382	0	34916	
2383	0	34804	
2384	0	34648	
2385	0	34604	
2386	0	34660	
2387	0	34732	
2388	0	34844	
2389	0	34992	
2390	0	35196	
2391	0	35424	
2392	0	35664	
2393	0	35908	
2394	0	36160	
2395	0	36402	
2396	0	36696	
2397	0	36868	
2398	0	37032	
2399	0	37128	
2400	0	37220	
2401	0	37244	
2402	0	37226	
2403	0	37168	
2404	0	37112	
2405	0	37056	
2406	0	37016	
2407	0	36984	
2408	0	36920	
2409	0	36824	
2410	0	36772	
2411	0	36732	
2412	0	36704	
2413	0	36688	
2414	0	36648	
2415	0	36612	
2416	0	36580	
2417	0	36484	
2418	0	36348	
2419	0	36212	
2420	0	36116	
2421	0	35984	
2422	0	35868	
2423	0	35746	
2424	0	35604	
2425	0	35432	
2426	0	35240	
2427	0	35084	
2428	0	34956	
2429	0	34852	
2430	0	34736	
2431	0	34484	
2432	0	34124	
2433	0	33684	
2434	0	33184	
2435	0	32728	
2436	0	32340	
2437	0	32032	
2438	0	31816	
2439	0	31676	
2440	0	31548	
2441	0	31456	
2442	0	31338	
2443	0	31252	
2444	0	31228	
2445	0	31168	
2446	0	31046	
2447	0	30896	
2448	0	30704	
2449	0	30508	
2450	0	30368	
2451	0	30280	
2452	0	30272	
2453	0	30332	
2454	0	30400	
2455	0	30416	
2456	0	30356	
2457	0	30296	
2458	0	30264	
2459	0	30256	
2460	0	30264	
2461	0	30316	
2462	0	30412	
2463	0	30496	
2464	0	30536	
2465	0	30588	
2466	0	30588	
2467	0	30552	
2468	0	30512	
2469	0	30464	
2470	0	30408	
2471	0	30400	
2472	0	30432	
2473	0	30460	
2474	0	30456	
2475	0	30432	
2476	0	30328	
2477	0	30354	
2478	0	30404	
2479	0	30474	
2480	0	30522	
2481	0	30500	
2482	0	30486	
2483	0	30516	
2484	0	30504	
2485	0	30448	
2486	0	30340	
2487	0	30208	
2488	0	30022	
2489	0	29744	
2490	0	29192	
2491	0	28392	
2492	0	27418	
2493	0	26396	
2494	0	25336	
2495	0	24176	
2496	0	23056	
2497	0	22120	
2498	0	21496	
2499	0	21056	
2500	0	20716	
2501	0	20661	
2502	0	20912	
2503	0	21264	
2504	0	21636	
2505	0	22276	
2506	0	23472	
2507	0	25118	
2508	0	27144	
2509	0	29526	
2510	0	32156	
2511	0	35220	
2512	0	38456	
2513	0	41952	
2514	0	45852	
2515	0	49904	
2516	0	53940	
2517	0	57628	
2518	0	60960	
2519	0	62968	
2520	0	64024	
2521	0	64556	
2522	0	64792	
2523	0	64840	
2524	0	64816	
2525	0	64748	
2526	0	64652	
2527	0	64540	
2528	0	58784	
2529	0	51872	
2530	0	46248	
2531	0	41864	
2532	0	37776	
2533	0	33696	
2534	0	30376	
2535	0	28028	
2536	0	26292	
2537	0	24652	
2538	0	23236	
2539	0	22109	
2540	0	21236	
2541	0	20528	
2542	0	19924	
2543	0	19424	
2544	0	18976	
2545	0	18496	
2546	0	18108	
2547	0	18008	
2548	0	18172	
2549	0	18600	
2550	0	19036	
2551	0	19352	
2552	0	19660	
2553	0	20052	
2554	0	20440	
2555	0	20890	
2556	0	21377	
2557	0	21952	
2558	0	22540	
2559	0	23128	
2560	0	23664	
2561	0	24245	
2562	0	24928	
2563	0	25668	
2564	0	26420	
2565	0	27072	
2566	0	27628	
2567	0	28132	
2568	0	28576	
2569	0	28928	
2570	0	29244	
2571	0	29520	
2572	0	29716	
2573	0	29848	
2574	0	29952	
2575	0	30054	
2576	0	30144	
2577	0	30192	
2578	0	30260	
2579	0	30384	
2580	0	30532	
2581	0	30624	
2582	0	30700	
2583	0	30784	
2584	0	30848	
2585	0	30888	
2586	0	30944	
2587	0	30992	
2588	0	30996	
2589	0	30986	
2590	0	31036	
2591	0	31092	
2592	0	31140	
2593	0	31170	
2594	0	31192	
2595	0	31208	
2596	0	31244	
2597	0	31256	
2598	0	31240	
2599	0	31268	
2600	0	31382	
2601	0	31482	
2602	0	31596	
2603	0	31720	
2604	0	31832	
2605	0	31912	
2606	0	31944	
2607	0	31984	
2608	0	32024	
2609	0	32024	
2610	0	31966	
2611	0	31920	
2612	0	31908	
2613	0	31904	
2614	0	31896	
2615	0	31856	
2616	0	31896	
2617	0	31960	
2618	0	32026	
2619	0	32112	
2620	0	32208	
2621	0	32304	
2622	0	32324	
2623	0	32324	
2624	0	32352	
2625	0	32388	
2626	0	32448	
2627	0	32504	
2628	0	32532	
2629	0	32572	
2630	0	32596	
2631	0	32612	
2632	0	32636	
2633	0	32672	
2634	0	32672	
2635	0	32664	
2636	0	32680	
2637	0	32684	
2638	0	32720	
2639	0	32780	
2640	0	32826	
2641	0	32892	
2642	0	32922	
2643	0	32928	
2644	0	32946	
2645	0	32956	
2646	0	32936	
2647	0	32936	
2648	0	32940	
2649	0	32948	
2650	0	32932	
2651	0	32958	
2652	0	32980	
2653	0	32986	
2654	0	32972	
2655	0	32926	
2656	0	32904	
2657	0	32896	
2658	0	32908	
2659	0	32956	
2660	0	32994	
2661	0	33072	
2662	0	33152	
2663	0	33212	
2664	0	33276	
2665	0	33240	
2666	0	33164	
2667	0	33096	
2668	0	33032	
2669	0	32980	
2670	0	32976	
2671	0	33036	
2672	0	33084	
2673	0	33076	
2674	0	33052	
2675	0	33018	
2676	0	33008	
2677	0	33036	
2678	0	33092	
2679	0	33120	
2680	0	33100	
2681	0	33072	
2682	0	33036	
2683	0	33012	
2684	0	33000	
2685	0	32984	
2686	0	32976	
2687	0	32954	
2688	0	32912	
2689	0	32874	
2690	0	32864	
2691	0	32864	
2692	0	32872	
2693	0	32840	
2694	0	32810	
2695	0	32764	
2696	0	32696	
2697	0	32660	
2698	0	32600	
2699	0	32532	
2700	0	32518	
2701	0	32552	
2702	0	32576	
2703	0	32584	
2704	0	32576	
2705	0	32512	
2706	0	32404	
2707	0	32320	
2708	0	32260	
2709	0	32216	
2710	0	32192	
2711	0	32210	
2712	0	32208	
2713	0	32188	
2714	0	32136	
2715	0	32070	
2716	0	32016	
2717	0	32012	
2718	0	31988	
2719	0	31970	
2720	0	31956	
2721	0	31952	
2722	0	31972	
2723	0	31972	
2724	0	31964	
2725	0	31936	
2726	0	31924	
2727	0	31928	
2728	0	31944	
2729	0	31920	
2730	0	31884	
2731	0	31860	
2732	0	31888	
2733	0	31940	
2734	0	31956	
2735	0	31960	
2736	0	32004	
2737	0	32088	
2738	0	32130	
2739	0	32168	
2740	0	32240	
2741	0	32360	
2742	0	32440	
2743	0	32520	
2744	0	32608	
2745	0	32686	
2746	0	32784	
2747	0	32844	
2748	0	32876	
2749	0	32936	
2750	0	32992	
2751	0	33040	
2752	0	33044	
2753	0	33040	
2754	0	33084	
2755	0	33136	
2756	0	33172	
2757	0	33232	
2758	0	33316	
2759	0	33320	
2760	0	33308	
2761	0	33344	
2762	0	33360	
2763	0	33364	
2764	0	33368	
2765	0	33360	
2766	0	33324	
2767	0	33280	
2768	0	33268	
2769	0	33288	
2770	0	33328	
2771	0	33346	
2772	0	33308	
2773	0	33280	
2774	0	33256	
2775	0	33184	
2776	0	33120	
2777	0	33064	
2778	0	33016	
2779	0	32956	
2780	0	32920	
2781	0	32896	
2782	0	32872	
2783	0	32858	
2784	0	32872	
2785	0	32900	
2786	0	32928	
2787	0	32920	
2788	0	32880	
2789	0	32804	
2790	0	32772	
2791	0	32764	
2792	0	32736	
2793	0	32744	
2794	0	32784	
2795	0	32780	
2796	0	32728	
2797	0	32684	
2798	0	32676	
2799	0	32666	
2800	0	32682	
2801	0	32684	
2802	0	32656	
2803	0	32618	
2804	0	32620	
2805	0	32644	
2806	0	32664	
2807	0	32672	
2808	0	32716	
2809	0	32736	
2810	0	32712	
2811	0	32688	
2812	0	32656	
2813	0	32620	
2814	0	32624	
2815	0	32596	
2816	0	32608	
2817	0	32624	
2818	0	32660	
2819	0	32676	
2820	0	32664	
2821	0	32644	
2822	0	32636	
2823	0	32672	
2824	0	32744	
2825	0	32752	
2826	0	32752	
2827	0	32736	
2828	0	32720	
2829	0	32708	
2830	0	32684	
2831	0	32692	
2832	0	32696	
2833	0	32700	
2834	0	32700	
2835	0	32712	
2836	0	32720	
2837	0	32732	
2838	0	32764	
2839	0	32808	
2840	0	32820	
2841	0	32824	
2842	0	32824	
2843	0	32836	
2844	0	32840	
2845	0	32864	
2846	0	32882	
2847	0	32856	
2848	0	32824	
2849	0	32784	
2850	0	32780	
2851	0	32816	
2852	0	32848	
2853	0	32884	
2854	0	32908	
2855	0	32904	
2856	0	32892	
2857	0	32920	
2858	0	32948	
2859	0	32964	
2860	0	33004	
2861	0	33032	
2862	0	33104	
2863	0	33150	
2864	0	33152	
2865	0	33134	
2866	0	33132	
2867	0	33120	
2868	0	33136	
2869	0	33160	
2870	0	33212	
2871	0	33256	
2872	0	33288	
2873	0	33296	
2874	0	33316	
2875	0	33342	
2876	0	33392	
2877	0	33440	
2878	0	33440	
2879	0	33440	
2880	0	33388	
2881	0	33328	
2882	0	33254	
2883	0	33234	
2884	0	33220	
2885	0	33232	
2886	0	33240	
2887	0	33276	
2888	0	33306	
2889	0	33412	
2890	0	33484	
2891	0	33520	
2892	0	33524	
2893	0	33516	
2894	0	33500	
2895	0	33468	
2896	0	33452	
2897	0	33440	
2898	0	33456	
2899	0	33450	
2900	0	33480	
2901	0	33568	
2902	0	33620	
2903	0	33636	
2904	0	33660	
2905	0	33650	
2906	0	33610	
2907	0	33544	
2908	0	33524	
2909	0	33540	
2910	0	33560	
2911	0	33584	
2912	0	33588	
2913	0	33596	
2914	0	33628	
2915	0	33620	
2916	0	33628	
2917	0	33650	
2918	0	33636	
2919	0	33660	
2920	0	33704	
2921	0	33720	
2922	0	33696	
2923	0	33660	
2924	0	33596	
2925	0	33552	
2926	0	33536	
2927	0	33540	
2928	0	33508	
2929	0	33498	
2930	0	33480	
2931	0	33440	
2932	0	33420	
2933	0	33416	
2934	0	33380	
2935	0	33388	
2936	0	33434	
2937	0	33488	
2938	0	33524	
2939	0	33516	
2940	0	33504	
2941	0	33532	
2942	0	33530	
2943	0	33532	
2944	0	33490	
2945	0	33440	
2946	0	33392	
2947	0	33364	
2948	0	33328	
2949	0	33304	
2950	0	33276	
2951	0	33256	
2952	0	33276	
2953	0	33336	
2954	0	33416	
2955	0	33484	
2956	0	33560	
2957	0	33646	
2958	0	33740	
2959	0	33836	
2960	0	33924	
2961	0	34074	
2962	0	34176	
2963	0	34276	
2964	0	34364	
2965	0	34474	
2966	0	34536	
2967	0	34608	
2968	0	34696	
2969	0	34720	
2970	0	34676	
2971	0	34644	
2972	0	34624	
2973	0	34616	
2974	0	34564	
2975	0	34514	
2976	0	34528	
2977	0	34596	
2978	0	34664	
2979	0	34720	
2980	0	34698	
2981	0	34644	
2982	0	34692	
2983	0	34860	
2984	0	35056	
2985	0	35276	
2986	0	35540	
2987	0	35852	
2988	0	36128	
2989	0	36416	
2990	0	36628	
2991	0	36768	
2992	0	36896	
2993	0	36980	
2994	0	37048	
2995	0	37048	
2996	0	37016	
2997	0	37024	
2998	0	37016	
2999	0	36944	
3000	0	36932	
3001	0	36928	
3002	0	36832	
3003	0	36724	
3004	0	36612	
3005	0	36500	
3006	0	36412	
3007	0	36348	
3008	0	36328	
3009	0	36320	
3010	0	36304	
3011	0	36252	
3012	0	36108	
3013	0	35948	
3014	0	35788	
3015	0	35652	
3016	0	35496	
3017	0	35360	
3018	0	35260	
3019	0	35164	
3020	0	35012	
3021	0	34860	
3022	0	34624	
3023	0	34308	
3024	0	33912	
3025	0	33444	
3026	0	32992	
3027	0	32544	
3028	0	32148	
3029	0	31832	
3030	0	31600	
3031	0	31420	
3032	0	31364	
3033	0	31328	
3034	0	31236	
3035	0	31124	
3036	0	31036	
3037	0	30952	
3038	0	30888	
3039	0	30778	
3040	0	30588	
3041	0	30452	
3042	0	30336	
3043	0	30280	
3044	0	30240	
3045	0	30224	
3046	0	30236	
3047	0	30266	
3048	0	30288	
3049	0	30276	
3050	0	30264	
3051	0	30256	
3052	0	30248	
3053	0	30256	
3054	0	30304	
3055	0	30336	
3056	0	30376	
3057	0	30384	
3058	0	30424	
3059	0	30412	
3060	0	30400	
3061	0	30392	
3062	0	30412	
3063	0	30424	
3064	0	30428	
3065	0	30416	
3066	0	30416	
3067	0	30420	
3068	0	30436	
3069	0	30420	
3070	0	30372	
3071	0	30332	
3072	0	30316	
3073	0	30352	
3074	0	30404	
3075	0	30460	
3076	0	30532	
3077	0	30568	
3078	0	30492	
3079	0	30348	
3080	0	30096	
3081	0	29728	
3082	0	29120	
3083	0	28216	
3084	0	27148	
3085	0	26020	
3086	0	24882	
3087	0	23736	
3088	0	22672	
3089	0	21784	
3090	0	21136	
3091	0	20652	
3092	0	20362	
3093	0	20304	
3094	0	20548	
3095	0	20994	
3096	0	21496	
3097	0	22278	
3098	0	23620	
3099	0	25386	
3100	0	27600	
3101	0	30108	
3102	0	32960	
3103	0	36400	
3104	0	40056	
3105	0	44112	
3106	0	48432	
3107	0	52848	
3108	0	57064	
3109	0	60816	
3110	0	63008	
3111	0	64192	
3112	0	64768	
3113	0	65024	
3114	0	65096	
3115	0	65088	
3116	0	65024	
3117	0	64920	
3118	0	64800	
3119	0	64668	
3120	0	64316	
3121	0	57752	
3122	0	52868	
3123	0	48908	
3124	0	44608	
3125	0	39948	
3126	0	35924	
3127	0	32620	
3128	0	29772	
3129	0	27424	
3130	0	25636	
3131	0	24292	
3132	0	23214	
3133	0	22320	
3134	0	21520	
3135	0	20840	
3136	0	20228	
3137	0	19776	
3138	0	19512	
3139	0	19408	
3140	0	19470	
3141	0	19630	
3142	0	19800	
3143	0	19988	
3144	0	20208	
3145	0	20512	
3146	0	20898	
3147	0	21338	
3148	0	21788	
3149	0	22228	
3150	0	22624	
3151	0	23048	
3152	0	23580	
3153	0	24196	
3154	0	24868	
3155	0	25528	
3156	0	26080	
3157	0	26624	
3158	0	27120	
3159	0	27572	
3160	0	27944	
3161	0	28240	
3162	0	28468	
3163	0	28576	
3164	0	28640	
3165	0	28756	
3166	0	28824	
3167	0	28860	
3168	0	28872	
3169	0	28932	
3170	0	29008	
3171	0	29085	
3172	0	29128	
3173	0	29192	
3174	0	29280	
3175	0	29416	
3176	0	29512	
3177	0	29568	
3178	0	29624	
3179	0	29688	
3180	0	29760	
3181	0	29860	
3182	0	29940	
3183	0	29972	
3184	0	30002	
3185	0	30048	
3186	0	30144	
3187	0	30256	
3188	0	30336	
3189	0	30368	
3190	0	30392	
3191	0	30428	
3192	0	30456	
3193	0	30480	
3194	0	30560	
3195	0	30664	
3196	0	30794	
3197	0	30864	
3198	0	30882	
3199	0	30856	
3200	0	30836	
3201	0	30856	
3202	0	30938	
3203	0	30984	
3204	0	31036	
3205	0	31112	
3206	0	31152	
3207	0	31200	
3208	0	31228	
3209	0	31260	
3210	0	31312	
3211	0	31388	
3212	0	31440	
3213	0	31468	
3214	0	31504	
3215	0	31540	
3216	0	31580	
3217	0	31604	
3218	0	31644	
3219	0	31640	
3220	0	31660	
3221	0	31700	
3222	0	31788	
3223	0	31870	
3224	0	31932	
3225	0	32004	
3226	0	32012	
3227	0	31964	
3228	0	31912	
3229	0	31898	
3230	0	31916	
3231	0	31924	
3232	0	31912	
3233	0	31928	
3234	0	31936	
3235	0	31948	
3236	0	32004	
3237	0	32096	
3238	0	32144	
3239	0	32136	
3240	0	32148	
3241	0	32168	
3242	0	32190	
3243	0	32252	
3244	0	32276	
3245	0	32284	
3246	0	32308	
3247	0	32320	
3248	0	32352	
3249	0	32392	
3250	0	32424	
3251	0	32464	
3252	0	32448	
3253	0	32424	
3254	0	32428	
3255	0	32420	
3256	0	32436	
3257	0	32440	
3258	0	32428	
3259	0	32406	
3260	0	32388	
3261	0	32380	
3262	0	32420	
3263	0	32508	
3264	0	32452	
3265	0	32440	
3266	0	32500	
3267	0	32456	
3268	0	32428	
3269	0	32432	
3270	0	32468	
3271	0	32532	
3272	0	32560	
3273	0	32580	
3274	0	32564	
3275	0	32520	
3276	0	32440	
3277	0	32396	
3278	0	32340	
3279	0	32308	
3280	0	32260	
3281	0	32248	
3282	0	32260	
3283	0	32260	
3284	0	32276	
3285	0	32280	
3286	0	32232	
3287	0	32214	
3288	0	32168	
3289	0	32140	
3290	0	32142	
3291	0	32136	
3292	0	32104	
3293	0	32012	
3294	0	31984	
3295	0	31980	
3296	0	32012	
3297	0	32044	
3298	0	32064	
3299	0	32064	
3300	0	32024	
3301	0	31976	
3302	0	31940	
3303	0	31876	
3304	0	31812	
3305	0	31746	
3306	0	31712	
3307	0	31720	
3308	0	31744	
3309	0	31704	
3310	0	31680	
3311	0	31656	
3312	0	31630	
3313	0	31640	
3314	0	31656	
3315	0	31672	
3316	0	31676	
3317	0	31652	
3318	0	31644	
3319	0	31652	
3320	0	31690	
3321	0	31744	
3322	0	31764	
3323	0	31760	
3324	0	31756	
3325	0	31746	
3326	0	31778	
3327	0	31822	
3328	0	31844	
3329	0	31848	
3330	0	31904	
3331	0	31960	
3332	0	32020	
3333	0	32008	
3334	0	32026	
3335	0	32048	
3336	0	32124	
3337	0	32192	
3338	0	32260	
3339	0	32380	
3340	0	32470	
3341	0	32536	
3342	0	32628	
3343	0	32736	
3344	0	32816	
3345	0	32840	
3346	0	32908	
3347	0	32972	
3348	0	33048	
3349	0	33144	
3350	0	33220	
3351	0	33312	
3352	0	33344	
3353	0	33364	
3354	0	33328	
3355	0	33280	
3356	0	33236	
3357	0	33256	
3358	0	33306	
3359	0	33328	
3360	0	33316	
3361	0	33256	
3362	0	33120	
3363	0	33052	
3364	0	33028	
3365	0	33004	
3366	0	33024	
3367	0	33056	
3368	0	33072	
3369	0	33080	
3370	0	33088	
3371	0	33136	
3372	0	33176	
3373	0	33184	
3374	0	33216	
3375	0	33216	
3376	0	33168	
3377	0	33060	
3378	0	32968	
3379	0	32948	
3380	0	32956	
3381	0	32936	
3382	0	32876	
3383	0	32864	
3384	0	32868	
3385	0	32888	
3386	0	32882	
3387	0	32912	
3388	0	32912	
3389	0	32938	
3390	0	32962	
3391	0	32968	
3392	0	32936	
3393	0	32906	
3394	0	32900	
3395	0	32900	
3396	0	32916	
3397	0	32928	
3398	0	32892	
3399	0	32836	
3400	0	32768	
3401	0	32772	
3402	0	32780	
3403	0	32736	
3404	0	32708	
3405	0	32692	
3406	0	32698	
3407	0	32724	
3408	0	32636	
3409	0	32668	
3410	0	32736	
3411	0	32764	
3412	0	32798	
3413	0	32776	
3414	0	32708	
3415	0	32712	
3416	0	32725	
3417	0	32752	
3418	0	32800	
3419	0	32844	
3420	0	32868	
3421	0	32864	
3422	0	32864	
3423	0	32868	
3424	0	32832	
3425	0	32772	
3426	0	32744	
3427	0	32768	
3428	0	32810	
3429	0	32892	
3430	0	32960	
3431	0	33000	
3432	0	33000	
3433	0	32972	
3434	0	32944	
3435	0	32916	
3436	0	32920	
3437	0	32904	
3438	0	32916	
3439	0	32940	
3440	0	32960	
3441	0	33016	
3442	0	33058	
3443	0	33104	
3444	0	33152	
3445	0	33138	
3446	0	33108	
3447	0	33084	
3448	0	33060	
3449	0	33068	
3450	0	33118	
3451	0	33148	
3452	0	33168	
3453	0	33252	
3454	0	33328	
3455	0	33396	
3456	0	33456	
3457	0	33464	
3458	0	33440	
3459	0	33448	
3460	0	33488	
3461	0	33456	
3462	0	33376	
3463	0	33296	
3464	0	33256	
3465	0	33228	
3466	0	33204	
3467	0	33200	
3468	0	33192	
3469	0	33168	
3470	0	33172	
3471	0	33228	
3472	0	33288	
3473	0	33344	
3474	0	33428	
3475	0	33484	
3476	0	33536	
3477	0	33600	
3478	0	33646	
3479	0	33674	
3480	0	33640	
3481	0	33626	
3482	0	33660	
3483	0	33668	
3484	0	33656	
3485	0	33708	
3486	0	33728	
3487	0	33720	
3488	0	33698	
3489	0	33732	
3490	0	33736	
3491	0	33732	
3492	0	33744	
3493	0	33760	
3494	0	33788	
3495	0	33812	
3496	0	33856	
3497	0	33852	
3498	0	33840	
3499	0	33844	
3500	0	33796	
3501	0	33728	
3502	0	33652	
3503	0	33646	
3504	0	33662	
3505	0	33696	
3506	0	33752	
3507	0	33748	
3508	0	33716	
3509	0	33720	
3510	0	33728	
3511	0	33732	
3512	0	33754	
3513	0	33716	
3514	0	33672	
3515	0	33648	
3516	0	33640	
3517	0	33628	
3518	0	33592	
3519	0	33664	
3520	0	33720	
3521	0	33780	
3522	0	33772	
3523	0	33796	
3524	0	33816	
3525	0	33792	
3526	0	33752	
3527	0	33688	
3528	0	33652	
3529	0	33608	
3530	0	33584	
3531	0	33528	
3532	0	33488	
3533	0	33484	
3534	0	33518	
3535	0	33532	
3536	0	33528	
3537	0	33536	
3538	0	33552	
3539	0	33552	
3540	0	33552	
3541	0	33568	
3542	0	33588	
3543	0	33576	
3544	0	33560	
3545	0	33568	
3546	0	33588	
3547	0	33552	
3548	0	33536	
3549	0	33544	
3550	0	33540	
3551	0	33536	
3552	0	33556	
3553	0	33544	
3554	0	33512	
3555	0	33476	
3556	0	33410	
3557	0	33376	
3558	0	33382	
3559	0	33408	
3560	0	33416	
3561	0	33400	
3562	0	33380	
3563	0	33360	
3564	0	33272	
3565	0	33176	
3566	0	33148	
3567	0	33144	
3568	0	33148	
3569	0	33120	
3570	0	33100	
3571	0	33040	
3572	0	33004	
3573	0	32964	
3574	0	32952	
3575	0	32976	
3576	0	33012	
3577	0	33020	
3578	0	33048	
3579	0	33068	
3580	0	33068	
3581	0	33060	
3582	0	33028	
3583	0	32972	
3584	0	32956	
3585	0	32976	
3586	0	32996	
3587	0	33016	
3588	0	33024	
3589	0	33032	
3590	0	33020	
3591	0	33016	
3592	0	33036	
3593	0	33040	
3594	0	32996	
3595	0	32992	
3596	0	32980	
3597	0	32994	
3598	0	32988	
3599	0	32988	
3600	0	32984	
3601	0	32972	
3602	0	32960	
3603	0	32920	
3604	0	32864	
3605	0	32840	
3606	0	32856	
3607	0	32856	
3608	0	32872	
3609	0	32884	
3610	0	32852	
3611	0	32808	
3612	0	32752	
3613	0	32732	
3614	0	32736	
3615	0	32712	
3616	0	32672	
3617	0	32676	
3618	0	32704	
3619	0	32700	
3620	0	32736	
3621	0	32776	
3622	0	32792	
3623	0	32844	
3624	0	32860	
3625	0	32832	
3626	0	32824	
3627	0	32812	
3628	0	32784	
3629	0	32776	
3630	0	32752	
3631	0	32764	
3632	0	32784	
3633	0	32808	
3634	0	32844	
3635	0	32840	
3636	0	32792	
3637	0	32768	
3638	0	32768	
3639	0	32792	
3640	0	32680	
3641	0	32716	
3642	0	32784	
3643	0	32768	
3644	0	32752	
3645	0	32732	
3646	0	32712	
3647	0	32704	
3648	0	32704	
3649	0	32732	
3650	0	32716	
3651	0	32684	
3652	0	32660	
3653	0	32636	
3654	0	32672	
3655	0	32712	
3656	0	32764	
3657	0	32796	
3658	0	32772	
3659	0	32748	
3660	0	32740	
3661	0	32776	
3662	0	32768	
3663	0	32736	
3664	0	32728	
3665	0	32732	
3666	0	32728	
3667	0	32728	
3668	0	32712	
3669	0	32708	
3670	0	32696	
3671	0	32680	
3672	0	32666	
3673	0	32688	
3674	0	32712	
3675	0	32756	
3676	0	32794	
3677	0	32816	
3678	0	32820	
3679	0	32828	
3680	0	32780	
3681	0	32744	
3682	0	32744	
3683	0	32756	
3684	0	32774	
3685	0	32728	
3686	0	32712	
3687	0	32696	
3688	0	32660	
3689	0	32664	
3690	0	32696	
3691	0	32704	
3692	0	32688	
3693	0	32660	
3694	0	32674	
3695	0	32668	
3696	0	32720	
3697	0	32776	
3698	0	32800	
3699	0	32824	
3700	0	32810	
3701	0	32768	
3702	0	32804	
3703	0	32788	
3704	0	32760	
3705	0	32724	
3706	0	32676	
3707	0	32680	
3708	0	32712	
3709	0	32768	
3710	0	32780	
3711	0	32796	
3712	0	32780	
3713	0	32752	
3714	0	32752	
3715	0	32740	
3716	0	32768	
3717	0	32812	
3718	0	32808	
3719	0	32840	
3720	0	32896	
3721	0	32984	
3722	0	33048	
3723	0	33192	
3724	0	33312	
3725	0	33408	
3726	0	33532	
3727	0	33676	
3728	0	33792	
3729	0	33874	
3730	0	33928	
3731	0	34008	
3732	0	34160	
3733	0	34284	
3734	0	34328	
3735	0	34370	
3736	0	34408	
3737	0	34436	
3738	0	34440	
3739	0	34432	
3740	0	34376	
3741	0	34296	
3742	0	34220	
3743	0	34160	
3744	0	34128	
3745	0	34180	
3746	0	34336	
3747	0	34528	
3748	0	34764	
3749	0	35000	
3750	0	35264	
3751	0	35464	
3752	0	35706	
3753	0	35984	
3754	0	36308	
3755	0	36568	
3756	0	36780	
3757	0	36924	
3758	0	36948	
3759	0	36964	
3760	0	37004	
3761	0	36986	
3762	0	36976	
3763	0	36952	
3764	0	36924	
3765	0	36864	
3766	0	36752	
3767	0	36608	
3768	0	36466	
3769	0	36356	
3770	0	36332	
3771	0	36288	
3772	0	36336	
3773	0	36344	
3774	0	36328	
3775	0	36268	
3776	0	36192	
3777	0	36140	
3778	0	36104	
3779	0	36104	
3780	0	36068	
3781	0	35952	
3782	0	35756	
3783	0	35564	
3784	0	35288	
3785	0	34918	
3786	0	34524	
3787	0	34212	
3788	0	33932	
3789	0	33578	
3790	0	33192	
3791	0	32780	
3792	0	32416	
3793	0	32116	
3794	0	31918	
3795	0	31804	
3796	0	31750	
3797	0	31696	
3798	0	31688	
3799	0	31680	
3800	0	31592	
3801	0	31464	
3802	0	31288	
3803	0	31144	
3804	0	31052	
3805	0	30956	
3806	0	30912	
3807	0	30860	
3808	0	30836	
3809	0	30844	
3810	0	30836	
3811	0	30844	
3812	0	30856	
3813	0	30844	
3814	0	30840	
3815	0	30834	
3816	0	30826	
3817	0	30880	
3818	0	30952	
3819	0	31000	
3820	0	31048	
3821	0	31088	
3822	0	31074	
3823	0	31000	
3824	0	30992	
3825	0	31002	
3826	0	30984	
3827	0	30992	
3828	0	31016	
3829	0	31024	
3830	0	30992	
3831	0	31008	
3832	0	31024	
3833	0	31036	
3834	0	31050	
3835	0	31068	
3836	0	31088	
3837	0	31116	
3838	0	31120	
3839	0	31136	
3840	0	31164	
3841	0	31180	
3842	0	31112	
3843	0	31008	
3844	0	30836	
3845	0	30576	
3846	0	30136	
3847	0	29432	
3848	0	28528	
3849	0	27504	
3850	0	26444	
3851	0	25409	
3852	0	24472	
3853	0	23696	
3854	0	23124	
3855	0	22736	
3856	0	22544	
3857	0	22620	
3858	0	22972	
3859	0	23556	
3860	0	24148	
3861	0	24896	
3862	0	26142	
3863	0	27864	
3864	0	30036	
3865	0	32472	
3866	0	35216	
3867	0	38320	
3868	0	41584	
3869	0	45220	
3870	0	49146	
3871	0	53256	
3872	0	57416	
3873	0	60944	
3874	0	63072	
3875	0	64168	
3876	0	64728	
3877	0	64960	
3878	0	65024	
3879	0	65008	
3880	0	64940	
3881	0	64840	
3882	0	64704	
3883	0	64596	
3884	0	61224	
3885	0	55200	
3886	0	50560	
3887	0	46812	
3888	0	43072	
3889	0	39464	
3890	0	36332	
3891	0	33760	
3892	0	31516	
3893	0	29328	
3894	0	27264	
3895	0	25504	
3896	0	24048	
3897	0	22862	
3898	0	21800	
3899	0	20960	
3900	0	20356	
3901	0	19864	
3902	0	19392	
3903	0	19054	
3904	0	19020	
3905	0	19264	
3906	0	19692	
3907	0	20084	
3908	0	20386	
3909	0	20680	
3910	0	21076	
3911	0	21582	
3912	0	22112	
3913	0	22632	
3914	0	23106	
3915	0	23534	
3916	0	24000	
3917	0	24560	
3918	0	25176	
3919	0	25768	
3920	0	26356	
3921	0	26880	
3922	0	27360	
3923	0	27764	
3924	0	28142	
3925	0	28504	
3926	0	28800	
3927	0	29028	
3928	0	29192	
3929	0	29328	
3930	0	29416	
3931	0	29464	
3932	0	29492	
3933	0	29524	
3934	0	29548	
3935	0	29592	
3936	0	29624	
3937	0	29672	
3938	0	29760	
3939	0	29864	
3940	0	29944	
3941	0	29992	
3942	0	30040	
3943	0	30068	
3944	0	30144	
3945	0	30216	
3946	0	30256	
3947	0	30304	
3948	0	30352	
3949	0	30420	
3950	0	30516	
3951	0	30604	
3952	0	30688	
3953	0	30760	
3954	0	30814	
3955	0	30880	
3956	0	30924	
3957	0	30968	
3958	0	31016	
3959	0	31072	
3960	0	31080	
3961	0	31104	
3962	0	31156	
3963	0	31212	
3964	0	31264	
3965	0	31324	
3966	0	31358	
3967	0	31364	
3968	0	31360	
3969	0	31400	
3970	0	31456	
3971	0	31504	
3972	0	31580	
3973	0	31624	
3974	0	31632	
3975	0	31616	
3976	0	31608	
3977	0	31596	
3978	0	31608	
3979	0	31648	
3980	0	31680	
3981	0	31716	
3982	0	31760	
3983	0	31804	
3984	0	31844	
3985	0	31872	
3986	0	31920	
3987	0	31962	
3988	0	31952	
3989	0	31948	
3990	0	31944	
3991	0	31944	
3992	0	31922	
3993	0	31916	
3994	0	31936	
3995	0	31996	
3996	0	32052	
3997	0	32108	
3998	0	32178	
3999	0	32240	
4000	0	32296	
4001	0	32346	
4002	0	32360	
4003	0	32336	
4004	0	32368	
4005	0	32416	
4006	0	32400	
4007	0	32356	
4008	0	32304	
4009	0	32280	
4010	0	32288	
4011	0	32336	
4012	0	32372	
4013	0	32396	
4014	0	32456	
4015	0	32524	
4016	0	32584	
4017	0	32612	
4018	0	32608	
4019	0	32580	
4020	0	32556	
4021	0	32568	
4022	0	32578	
4023	0	32592	
4024	0	32592	
4025	0	32584	
4026	0	32616	
4027	0	32626	
4028	0	32644	
4029	0	32636	
4030	0	32604	
4031	0	32600	
4032	0	32610	
4033	0	32644	
4034	0	32668	
4035	0	32692	
4036	0	32722	
4037	0	32744	
4038	0	32785	
4039	0	32772	
4040	0	32720	
4041	0	32704	
4042	0	32688	
4043	0	32648	
4044	0	32624	
4045	0	32580	
4046	0	32532	
4047	0	32482	
4048	0	32464	
4049	0	32426	
4050	0	32412	
4051	0	32392	
4052	0	32324	
4053	0	32284	
4054	0	32212	
4055	0	32136	
4056	0	32064	
4057	0	32068	
4058	0	32056	
4059	0	32044	
4060	0	32036	
4061	0	32073	
4062	0	32076	
4063	0	32072	
4064	0	32044	
4065	0	31992	
4066	0	31960	
4067	0	31952	
4068	0	31940	
4069	0	31940	
4070	0	31900	
4071	0	31864	
4072	0	31820	
4073	0	31792	
4074	0	31800	
4075	0	31784	
4076	0	31748	
4077	0	31730	
4078	0	31720	
4079	0	31748	
4080	0	31752	
4081	0	31780	
4082	0	31792	
4083	0	31752	
4084	0	31704	
4085	0	31628	
4086	0	31584	
4087	0	31600	
4088	0	31608	
4089	0	31608	
4090	0	31596	
4091	0	31596	
4092	0	31608	
4093	0	31652	
4094	0	31680	
4095	0	31672	
4096	0	31660	
4097	0	31688	
4098	0	31748	
4099	0	31880	
4100	0	32036	
4101	0	32160	
4102	0	32234	
4103	0	32330	
4104	0	32400	
4105	0	32414	
4106	0	32420	
4107	0	32460	
4108	0	32532	
4109	0	32648	
4110	0	32772	
4111	0	32898	
4112	0	33024	
4113	0	33120	
4114	0	33186	
4115	0	33248	
4116	0	33328	
4117	0	33420	
4118	0	33514	
4119	0	33592	
4120	0	33684	
4121	0	33772	
4122	0	33852	
4123	0	33884	
4124	0	33900	
4125	0	33872	
4126	0	33868	
4127	0	33880	
4128	0	33848	
4129	0	33816	
4130	0	33772	
4131	0	33768	
4132	0	33800	
4133	0	33838	
4134	0	33860	
4135	0	33906	
4136	0	33942	
4137	0	33928	
4138	0	33888	
4139	0	33840	
4140	0	33792	
4141	0	33756	
4142	0	33692	
4143	0	33638	
4144	0	33592	
4145	0	33548	
4146	0	33524	
4147	0	33552	
4148	0	33620	
4149	0	33668	
4150	0	33648	
4151	0	33608	
4152	0	33584	
4153	0	33548	
4154	0	33560	
4155	0	33588	
4156	0	33600	
4157	0	33584	
4158	0	33600	
4159	0	33596	
4160	0	33573	
4161	0	33584	
4162	0	33588	
4163	0	33576	
4164	0	33504	
4165	0	33422	
4166	0	33392	
4167	0	33362	
4168	0	33368	
4169	0	33408	
4170	0	33476	
4171	0	33532	
4172	0	33504	
4173	0	33448	
4174	0	33400	
4175	0	33328	
4176	0	33258	
4177	0	33236	
4178	0	33244	
4179	0	33296	
4180	0	33378	
4181	0	33432	
4182	0	33412	
4183	0	33376	
4184	0	33344	
4185	0	33336	
4186	0	33316	
4187	0	33304	
4188	0	33252	
4189	0	33238	
4190	0	33204	
4191	0	33186	
4192	0	33232	
4193	0	33332	
4194	0	33424	
4195	0	33456	
4196	0	33424	
4197	0	33424	
4198	0	33468	
4199	0	33504	
4200	0	33488	
4201	0	33472	
4202	0	33444	
4203	0	33460	
4204	0	33504	
4205	0	33548	
4206	0	33620	
4207	0	33692	
4208	0	33680	
4209	0	33636	
4210	0	33600	
4211	0	33616	
4212	0	33620	
4213	0	33666	
4214	0	33704	
4215	0	33676	
4216	0	33664	
4217	0	33730	
4218	0	33736	
4219	0	33700	
4220	0	33648	
4221	0	33600	
4222	0	33580	
4223	0	33570	
4224	0	33584	
4225	0	33584	
4226	0	33592	
4227	0	33584	
4228	0	33600	
4229	0	33628	
4230	0	33744	
4231	0	33786	
4232	0	33836	
4233	0	33928	
4234	0	33956	
4235	0	33892	
4236	0	33916	
4237	0	33924	
4238	0	33882	
4239	0	33818	
4240	0	33748	
4241	0	33700	
4242	0	33684	
4243	0	33700	
4244	0	33756	
4245	0	33818	
4246	0	33826	
4247	0	33808	
4248	0	33844	
4249	0	33904	
4250	0	33952	
4251	0	33964	
4252	0	33948	
4253	0	33992	
4254	0	34080	
4255	0	34144	
4256	0	34188	
4257	0	34144	
4258	0	34072	
4259	0	34020	
4260	0	33996	
4261	0	33968	
4262	0	33964	
4263	0	33968	
4264	0	34008	
4265	0	34056	
4266	0	34052	
4267	0	34034	
4268	0	33996	
4269	0	33944	
4270	0	33912	
4271	0	33888	
4272	0	33900	
4273	0	33948	
4274	0	33984	
4275	0	33984	
4276	0	34064	
4277	0	34132	
4278	0	34160	
4279	0	34168	
4280	0	34158	
4281	0	34144	
4282	0	34122	
4283	0	34096	
4284	0	34072	
4285	0	34092	
4286	0	34096	
4287	0	34100	
4288	0	34064	
4289	0	34024	
4290	0	34030	
4291	0	34012	
4292	0	33996	
4293	0	33976	
4294	0	34016	
4295	0	34036	
4296	0	33960	
4297	0	33904	
4298	0	33864	
4299	0	33820	
4300	0	33824	
4301	0	33852	
4302	0	33884	
4303	0	33884	
4304	0	33848	
4305	0	33760	
4306	0	33692	
4307	0	33660	
4308	0	33692	
4309	0	33744	
4310	0	33780	
4311	0	33752	
4312	0	33708	
4313	0	33692	
4314	0	33652	
4315	0	33548	
4316	0	33472	
4317	0	33400	
4318	0	33312	
4319	0	33280	
4320	0	33264	
4321	0	33284	
4322	0	33308	
4323	0	33354	
4324	0	33392	
4325	0	33412	
4326	0	33444	
4327	0	33476	
4328	0	33484	
4329	0	33428	
4330	0	33376	
4331	0	33356	
4332	0	33368	
4333	0	33368	
4334	0	33346	
4335	0	33348	
4336	0	33316	
4337	0	33284	
4338	0	33152	
4339	0	33084	
4340	0	33100	
4341	0	33096	
4342	0	33092	
4343	0	33066	
4344	0	33068	
4345	0	33100	
4346	0	33164	
4347	0	33156	
4348	0	33040	
4349	0	32928	
4350	0	32902	
4351	0	32936	
4352	0	32926	
4353	0	32876	
4354	0	32896	
4355	0	32900	
4356	0	32848	
4357	0	32844	
4358	0	32856	
4359	0	32808	
4360	0	32704	
4361	0	32672	
4362	0	32708	
4363	0	32820	
4364	0	32936	
4365	0	32996	
4366	0	32988	
4367	0	32956	
4368	0	32954	
4369	0	32920	
4370	0	32868	
4371	0	32872	
4372	0	32902	
4373	0	32952	
4374	0	32962	
4375	0	32944	
4376	0	32952	
4377	0	32932	
4378	0	32864	
4379	0	32808	
4380	0	32740	
4381	0	32640	
4382	0	32545	
4383	0	32554	
4384	0	32544	
4385	0	32564	
4386	0	32584	
4387	0	32600	
4388	0	32584	
4389	0	32568	
4390	0	32524	
4391	0	32560	
4392	0	32616	
4393	0	32588	
4394	0	32600	
4395	0	32636	
4396	0	32692	
4397	0	32704	
4398	0	32664	
4399	0	32640	
4400	0	32604	
4401	0	32526	
4402	0	32464	
4403	0	32432	
4404	0	32450	
4405	0	32540	
4406	0	32656	
4407	0	32744	
4408	0	32776	
4409	0	32792	
4410	0	32752	
4411	0	32746	
4412	0	32760	
4413	0	32800	
4414	0	32872	
4415	0	32956	
4416	0	32978	
4417	0	32920	
4418	0	32820	
4419	0	32736	
4420	0	32648	
4421	0	32626	
4422	0	32680	
4423	0	32712	
4424	0	32732	
4425	0	32800	
4426	0	32810	
4427	0	32768	
4428	0	32716	
4429	0	32596	
4430	0	32476	
4431	0	32426	
4432	0	32384	
4433	0	32424	
4434	0	32504	
4435	0	32528	
4436	0	32468	
4437	0	32420	
4438	0	32456	
4439	0	32480	
4440	0	32528	
4441	0	32550	
4442	0	32564	
4443	0	32634	
4444	0	32700	
4445	0	32704	
4446	0	32744	
4447	0	32800	
4448	0	32840	
4449	0	32840	
4450	0	32844	
4451	0	32732	
4452	0	32640	
4453	0	32544	
4454	0	32538	
4455	0	32604	
4456	0	32672	
4457	0	32730	
4458	0	32748	
4459	0	32736	
4460	0	32656	
4461	0	32644	
4462	0	32648	
4463	0	32660	
4464	0	32752	
4465	0	32900	
4466	0	32976	
4467	0	32880	
4468	0	32720	
4469	0	32580	
4470	0	32462	
4471	0	32368	
4472	0	32416	
4473	0	32532	
4474	0	32652	
4475	0	32774	
4476	0	32872	
4477	0	32922	
4478	0	32908	
4479	0	32864	
4480	0	32760	
4481	0	32640	
4482	0	32552	
4483	0	32512	
4484	0	32488	
4485	0	32512	
4486	0	32544	
4487	0	32540	
4488	0	32608	
4489	0	32772	
4490	0	32932	
4491	0	33076	
4492	0	33152	
4493	0	33048	
4494	0	32904	
4495	0	32752	
4496	0	32616	
4497	0	32504	
4498	0	32416	
4499	0	32304	
4500	0	32160	
4501	0	32128	
4502	0	32192	
4503	0	32236	
4504	0	32352	
4505	0	32536	
4506	0	32720	
4507	0	32784	
4508	0	32780	
4509	0	32780	
4510	0	32768	
4511	0	32752	
4512	0	32680	
4513	0	32640	
4514	0	32656	
4515	0	32656	
4516	0	32600	
4517	0	32580	
4518	0	32568	
4519	0	32584	
4520	0	32666	
4521	0	32780	
4522	0	32892	
4523	0	33000	
4524	0	33056	
4525	0	33060	
4526	0	33080	
4527	0	33108	
4528	0	33160	
4529	0	33248	
4530	0	33340	
4531	0	33536	
4532	0	33672	
4533	0	33760	
4534	0	33832	
4535	0	33888	
4536	0	33956	
4537	0	34112	
4538	0	34212	
4539	0	34260	
4540	0	34274	
4541	0	34272	
4542	0	34224	
4543	0	34172	
4544	0	34028	
4545	0	33888	
4546	0	33896	
4547	0	34060	
4548	0	34264	
4549	0	34548	
4550	0	34876	
4551	0	35180	
4552	0	35416	
4553	0	35568	
4554	0	35716	
4555	0	35932	
4556	0	36128	
4557	0	36320	
4558	0	36484	
4559	0	36628	
4560	0	36700	
4561	0	36648	
4562	0	36568	
4563	0	36496	
4564	0	36396	
4565	0	36324	
4566	0	36376	
4567	0	36442	
4568	0	36444	
4569	0	36416	
4570	0	36368	
4571	0	36320	
4572	0	36244	
4573	0	36168	
4574	0	36192	
4575	0	36272	
4576	0	36356	
4577	0	36384	
4578	0	36292	
4579	0	36176	
4580	0	36060	
4581	0	36044	
4582	0	36016	
4583	0	35824	
4584	0	35444	
4585	0	35056	
4586	0	34740	
4587	0	34504	
4588	0	34316	
4589	0	34128	
4590	0	33906	
4591	0	33572	
4592	0	33176	
4593	0	32832	
4594	0	32496	
4595	0	32184	
4596	0	31956	
4597	0	31744	
4598	0	31644	
4599	0	31684	
4600	0	31768	
4601	0	31824	
4602	0	31712	
4603	0	31578	
4604	0	31512	
4605	0	31480	
4606	0	31344	
4607	0	31152	
4608	0	31038	
4609	0	30972	
4610	0	30946	
4611	0	30980	
4612	0	30992	
4613	0	31008	
4614	0	30944	
4615	0	30872	
4616	0	30834	
4617	0	30880	
4618	0	30986	
4619	0	31084	
4620	0	31096	
4621	0	31204	
4622	0	31336	
4623	0	31364	
4624	0	31264	
4625	0	31132	
4626	0	31076	
4627	0	31012	
4628	0	30938	
4629	0	30928	
4630	0	30946	
4631	0	31044	
4632	0	31124	
4633	0	31148	
4634	0	31148	
4635	0	31072	
4636	0	31016	
4637	0	31056	
4638	0	31116	
4639	0	31224	
4640	0	31360	
4641	0	31476	
4642	0	31528	
4643	0	31468	
4644	0	31216	
4645	0	30933	
4646	0	30676	
4647	0	30380	
4648	0	29900	
4649	0	29260	
4650	0	28580	
4651	0	27914	
4652	0	27082	
4653	0	26220	
4654	0	25388	
4655	0	24732	
4656	0	24278	
4657	0	23900	
4658	0	23712	
4659	0	23824	
4660	0	24284	
4661	0	24920	
4662	0	25762	
4663	0	26988	
4664	0	28552	
4665	0	30274	
4666	0	32388	
4667	0	34976	
4668	0	37924	
4669	0	40924	
4670	0	44064	
4671	0	47560	
4672	0	51204	
4673	0	55048	
4674	0	58824	
4675	0	61624	
4676	0	63140	
4677	0	63912	
4678	0	64300	
4679	0	64416	
4680	0	64436	
4681	0	64384	
4682	0	64304	
4683	0	64196	
4684	0	64072	
4685	0	59900	
4686	0	52416	
4687	0	46444	
4688	0	41776	
4689	0	37672	
4690	0	34088	
4691	0	31496	
4692	0	29696	
4693	0	28324	
4694	0	27100	
4695	0	25936	
4696	0	24672	
4697	0	23220	
4698	0	21816	
4699	0	20600	
4700	0	19554	
4701	0	18856	
4702	0	18550	
4703	0	18400	
4704	0	18124	
4705	0	17949	
4706	0	17864	
4707	0	17960	
4708	0	18216	
4709	0	18532	
4710	0	18894	
4711	0	19348	
4712	0	19908	
4713	0	20580	
4714	0	21176	
4715	0	21776	
4716	0	22328	
4717	0	22832	
4718	0	23332	
4719	0	23852	
4720	0	24372	
4721	0	24940	
4722	0	25592	
4723	0	26320	
4724	0	27048	
4725	0	27720	
4726	0	28240	
4727	0	28636	
4728	0	28912	
4729	0	29152	
4730	0	29384	
4731	0	29616	
4732	0	29952	
4733	0	30280	
4734	0	30560	
4735	0	30764	
4736	0	30912	
4737	0	30996	
4738	0	30968	
4739	0	30876	
4740	0	30764	
4741	0	30728	
4742	0	30784	
4743	0	30916	
4744	0	31048	
4745	0	31204	
4746	0	31324	
4747	0	31452	
4748	0	31520	
4749	0	31476	
4750	0	31476	
4751	0	31500	
4752	0	31472	
4753	0	31492	
4754	0	31573	
4755	0	31682	
4756	0	31820	
4757	0	31928	
4758	0	31988	
4759	0	32028	
4760	0	32052	
4761	0	32042	
4762	0	31996	
4763	0	32048	
4764	0	32116	
4765	0	32164	
4766	0	32224	
4767	0	32256	
4768	0	32336	
4769	0	32384	
4770	0	32428	
4771	0	32364	
4772	0	32192	
4773	0	32136	
4774	0	32332	
4775	0	32480	
4776	0	32376	
4777	0	32240	
4778	0	32236	
4779	0	32248	
4780	0	32296	
4781	0	32484	
4782	0	32746	
4783	0	32980	
4784	0	33068	
4785	0	33026	
4786	0	33032	
4787	0	33040	
4788	0	32968	
4789	0	32932	
4790	0	32896	
4791	0	32764	
4792	0	32584	
4793	0	32544	
4794	0	32612	
4795	0	32704	
4796	0	32740	
4797	0	32952	
4798	0	33312	
4799	0	33612	
4800	0	33708	
4801	0	33580	
4802	0	33416	
4803	0	33316	
4804	0	33240	
4805	0	33164	
4806	0	33132	
4807	0	33048	
4808	0	32936	
4809	0	32800	
4810	0	32766	
4811	0	32908	
4812	0	33212	
4813	0	33532	
4814	0	33758	
4815	0	33832	
4816	0	33732	
4817	0	33596	
4818	0	33602	
4819	0	33588	
4820	0	33592	
4821	0	33636	
4822	0	33620	
4823	0	33584	
4824	0	33580	
4825	0	33664	
4826	0	33808	
4827	0	33972	
4828	0	34048	
4829	0	34036	
4830	0	33952	
4831	0	33808	
4832	0	33612	
4833	0	33436	
4834	0	33368	
4835	0	33328	
4836	0	33292	
4837	0	33264	
4838	0	33228	
4839	0	33304	
4840	0	33460	
4841	0	33616	
4842	0	33736	
4843	0	33792	
4844	0	33812	
4845	0	33856	
4846	0	33924	
4847	0	33868	
4848	0	33704	
4849	0	33684	
4850	0	33796	
4851	0	33888	
4852	0	33920	
4853	0	33908	
4854	0	33744	
4855	0	33540	
4856	0	33408	
4857	0	33386	
4858	0	33396	
4859	0	33360	
4860	0	33292	
4861	0	33172	
4862	0	33088	
4863	0	33108	
4864	0	33132	
4865	0	33236	
4866	0	33320	
4867	0	33368	
4868	0	33324	
4869	0	33240	
4870	0	33120	
4871	0	33008	
4872	0	32962	
4873	0	32960	
4874	0	33048	
4875	0	33156	
4876	0	33276	
4877	0	33330	
4878	0	33168	
4879	0	32968	
4880	0	32856	
4881	0	32940	
4882	0	33176	
4883	0	33440	
4884	0	33560	
4885	0	33472	
4886	0	33304	
4887	0	33144	
4888	0	32986	
4889	0	32760	
4890	0	32648	
4891	0	32586	
4892	0	32544	
4893	0	32596	
4894	0	32764	
4895	0	32912	
4896	0	32936	
4897	0	32780	
4898	0	32672	
4899	0	32672	
4900	0	32672	
4901	0	32656	
4902	0	32692	
4903	0	32784	
4904	0	32828	
4905	0	32928	
4906	0	33098	
4907	0	33324	
4908	0	33500	
4909	0	33644	
4910	0	33808	
4911	0	33944	
4912	0	33964	
4913	0	33952	
4914	0	33900	
4915	0	33856	
4916	0	33868	
4917	0	33872	
4918	0	33812	
4919	0	33784	
4920	0	33844	
4921	0	33900	
4922	0	34020	
4923	0	34196	
4924	0	34424	
4925	0	34452	
4926	0	34304	
4927	0	34040	
4928	0	33760	
4929	0	33572	
4930	0	33576	
4931	0	33588	
4932	0	33544	
4933	0	33492	
4934	0	33504	
4935	0	33572	
4936	0	33684	
4937	0	33832	
4938	0	33908	
4939	0	33816	
4940	0	33744	
4941	0	33604	
4942	0	33358	
4943	0	33160	
4944	0	32984	
4945	0	32888	
4946	0	32940	
4947	0	33008	
4948	0	33128	
4949	0	33324	
4950	0	33576	
4951	0	33724	
4952	0	33696	
4953	0	33564	
4954	0	33412	
4955	0	33116	
4956	0	32884	
4957	0	32804	
4958	0	32824	
4959	0	32832	
4960	0	32772	
4961	0	32732	
4962	0	32736	
4963	0	32778	
4964	0	32768	
4965	0	32776	
4966	0	32752	
4967	0	32776	
4968	0	32884	
4969	0	33024	
4970	0	33160	
4971	0	33220	
4972	0	33142	
4973	0	32912	
4974	0	32620	
4975	0	32412	
4976	0	32352	
4977	0	32312	
4978	0	32340	
4979	0	32320	
4980	0	32240	
4981	0	32140	
4982	0	32040	
4983	0	31944	
4984	0	31944	
4985	0	31840	
4986	0	31628	
4987	0	31436	
4988	0	31544	
4989	0	31872	
4990	0	32228	
4991	0	32504	
4992	0	32596	
4993	0	32608	
4994	0	32448	
4995	0	32188	
4996	0	31984	
4997	0	31906	
4998	0	31992	
4999	0	32158	
5000	0	32304	
5001	0	32420	
5002	0	32424	
5003	0	32272	
5004	0	32180	
5005	0	32164	
5006	0	32172	
5007	0	32180	
5008	0	32284	
5009	0	32500	
5010	0	32564	
5011	0	32384	
5012	0	32130	
5013	0	31984	
5014	0	31936	
5015	0	32016	
5016	0	32228	
5017	0	32424	
5018	0	32332	
5019	0	32260	
5020	0	32192	
5021	0	32076	
5022	0	32020	
5023	0	32132	
5024	0	32352	
5025	0	32544	
5026	0	32658	
5027	0	32592	
5028	0	32338	
5029	0	32124	
5030	0	31972	
5031	0	31908	
5032	0	31968	
5033	0	32132	
5034	0	32288	
5035	0	32504	
5036	0	32856	
5037	0	33056	
5038	0	33080	
5039	0	33088	
5040	0	33108	
5041	0	33032	
5042	0	32952	
5043	0	32792	
5044	0	32572	
5045	0	32496	
5046	0	32544	
5047	0	32636	
5048	0	32712	
5049	0	32688	
5050	0	32544	
5051	0	32498	
5052	0	32692	
5053	0	33012	
5054	0	33236	
5055	0	33216	
5056	0	33072	
5057	0	32956	
5058	0	32840	
5059	0	32656	
5060	0	32544	
5061	0	32552	
5062	0	32628	
5063	0	32752	
5064	0	32920	
5065	0	33204	
5066	0	33444	
5067	0	33536	
5068	0	33672	
5069	0	33728	
5070	0	33682	
5071	0	33672	
5072	0	33682	
5073	0	33744	
5074	0	33652	
5075	0	33464	
5076	0	33324	
5077	0	33252	
5078	0	33276	
5079	0	33376	
5080	0	33320	
5081	0	33152	
5082	0	33016	
5083	0	32944	
5084	0	33116	
5085	0	33418	
5086	0	33760	
5087	0	34044	
5088	0	34068	
5089	0	34056	
5090	0	34072	
5091	0	34108	
5092	0	34028	
5093	0	33824	
5094	0	33628	
5095	0	33496	
5096	0	33292	
5097	0	33192	
5098	0	33256	
5099	0	33316	
5100	0	33268	
5101	0	33132	
5102	0	33052	
5103	0	33168	
5104	0	33466	
5105	0	33792	
5106	0	34096	
5107	0	34288	
5108	0	34244	
5109	0	34000	
5110	0	33572	
5111	0	33248	
5112	0	33146	
5113	0	33068	
5114	0	33016	
5115	0	33146	
5116	0	33284	
5117	0	33208	
5118	0	33208	
5119	0	33260	
5120	0	33264	
5121	0	33288	
5122	0	33292	
5123	0	33196	
5124	0	33104	
5125	0	33168	
5126	0	33408	
5127	0	33648	
5128	0	33820	
5129	0	33930	
5130	0	33840	
5131	0	33552	
5132	0	33292	
5133	0	33068	
5134	0	32808	
5135	0	32570	
5136	0	32408	
5137	0	32392	
5138	0	32456	
5139	0	32588	
5140	0	32728	
5141	0	32912	
5142	0	33088	
5143	0	33256	
5144	0	33396	
5145	0	33464	
5146	0	33520	
5147	0	33578	
5148	0	33588	
5149	0	33540	
5150	0	33324	
5151	0	32920	
5152	0	32480	
5153	0	32220	
5154	0	32256	
5155	0	32432	
5156	0	32716	
5157	0	33120	
5158	0	33484	
5159	0	33674	
5160	0	33648	
5161	0	33380	
5162	0	32980	
5163	0	32652	
5164	0	32400	
5165	0	32344	
5166	0	32364	
5167	0	32372	
5168	0	32280	
5169	0	32200	
5170	0	32296	
5171	0	32524	
5172	0	32872	
5173	0	33204	
5174	0	33342	
5175	0	33268	
5176	0	33044	
5177	0	32872	
5178	0	32704	
5179	0	32556	
5180	0	32484	
5181	0	32404	
5182	0	32240	
5183	0	32152	
5184	0	32120	
5185	0	32160	
5186	0	32328	
5187	0	32670	
5188	0	32904	
5189	0	32968	
5190	0	32908	
5191	0	32724	
5192	0	32612	
5193	0	32616	
5194	0	32636	
5195	0	32612	
5196	0	32444	
5197	0	32372	
5198	0	32460	
5199	0	32656	
5200	0	32824	
5201	0	32776	
5202	0	32544	
5203	0	32288	
5204	0	32080	
5205	0	32064	
5206	0	32152	
5207	0	32216	
5208	0	32212	
5209	0	32064	
5210	0	31980	
5211	0	32036	
5212	0	32248	
5213	0	32500	
5214	0	32704	
5215	0	32992	
5216	0	33156	
5217	0	33018	
5218	0	32860	
5219	0	32664	
5220	0	32500	
5221	0	32352	
5222	0	32104	
5223	0	32064	
5224	0	32224	
5225	0	32480	
5226	0	32648	
5227	0	32672	
5228	0	32452	
5229	0	32156	
5230	0	31964	
5231	0	31906	
5232	0	31896	
5233	0	32064	
5234	0	32372	
5235	0	32456	
5236	0	32452	
5237	0	32452	
5238	0	32604	
5239	0	32786	
5240	0	32840	
5241	0	32832	
5242	0	32740	
5243	0	32528	
5244	0	32344	
5245	0	32304	
5246	0	32400	
5247	0	32664	
5248	0	32820	
5249	0	32708	
5250	0	32552	
5251	0	32560	
5252	0	32732	
5253	0	32896	
5254	0	32956	
5255	0	32908	
5256	0	32764	
5257	0	32432	
5258	0	32064	
5259	0	31828	
5260	0	31732	
5261	0	31868	
5262	0	32136	
5263	0	32420	
5264	0	32552	
5265	0	32524	
5266	0	32380	
5267	0	32208	
5268	0	32124	
5269	0	32104	
5270	0	32132	
5271	0	32124	
5272	0	32136	
5273	0	32200	
5274	0	32320	
5275	0	32470	
5276	0	32664	
5277	0	32736	
5278	0	32688	
5279	0	32604	
5280	0	32488	
5281	0	32302	
5282	0	32096	
5283	0	32012	
5284	0	32040	
5285	0	32120	
5286	0	32192	
5287	0	32596	
5288	0	33192	
5289	0	33564	
5290	0	33780	
5291	0	33920	
5292	0	33800	
5293	0	33508	
5294	0	33192	
5295	0	32948	
5296	0	32796	
5297	0	32740	
5298	0	32640	
5299	0	32556	
5300	0	32620	
5301	0	32770	
5302	0	32928	
5303	0	33096	
5304	0	33236	
5305	0	33476	
5306	0	33724	
5307	0	33996	
5308	0	34316	
5309	0	34500	
5310	0	34520	
5311	0	34388	
5312	0	34028	
5313	0	33492	
5314	0	33004	
5315	0	32936	
5316	0	33148	
5317	0	33404	
5318	0	33736	
5319	0	34280	
5320	0	34884	
5321	0	35404	
5322	0	35824	
5323	0	36072	
5324	0	36144	
5325	0	36064	
5326	0	35984	
5327	0	36008	
5328	0	35972	
5329	0	35988	
5330	0	36120	
5331	0	36308	
5332	0	36504	
5333	0	36660	
5334	0	36440	
5335	0	35992	
5336	0	35760	
5337	0	35720	
5338	0	35824	
5339	0	35796	
5340	0	35780	
5341	0	35800	
5342	0	35876	
5343	0	35944	
5344	0	35832	
5345	0	35648	
5346	0	35460	
5347	0	35328	
5348	0	35276	
5349	0	35276	
5350	0	35444	
5351	0	35528	
5352	0	35508	
5353	0	35316	
5354	0	35080	
5355	0	34740	
5356	0	34440	
5357	0	34180	
5358	0	33868	
5359	0	33570	
5360	0	33308	
5361	0	33144	
5362	0	32848	
5363	0	32448	
5364	0	32104	
5365	0	31984	
5366	0	32036	
5367	0	32044	
5368	0	32016	
5369	0	31902	
5370	0	31784	
5371	0	31768	
5372	0	31768	
5373	0	31712	
5374	0	31536	
5375	0	31432	
5376	0	31352	
5377	0	31224	
5378	0	31180	
5379	0	31092	
5380	0	30824	
5381	0	30496	
5382	0	30228	
5383	0	30144	
5384	0	30308	
5385	0	30352	
5386	0	30356	
5387	0	30468	
5388	0	30604	
5389	0	30724	
5390	0	30816	
5391	0	30884	
5392	0	30940	
5393	0	30936	
5394	0	30992	
5395	0	31132	
5396	0	31256	
5397	0	31202	
5398	0	30944	
5399	0	30744	
5400	0	30716	
5401	0	30880	
5402	0	31020	
5403	0	31092	
5404	0	31160	
5405	0	31200	
5406	0	31144	
5407	0	31032	
5408	0	31032	
5409	0	31144	
5410	0	31204	
5411	0	31012	
5412	0	30776	
5413	0	30596	
5414	0	30488	
5415	0	30214	
5416	0	29760	
5417	0	29160	
5418	0	28360	
5419	0	27440	
5420	0	26448	
5421	0	25552	
5422	0	25032	
5423	0	24832	
5424	0	24704	
5425	0	24544	
5426	0	24642	
5427	0	25060	
5428	0	25688	
5429	0	26444	
5430	0	27532	
5431	0	29060	
5432	0	30792	
5433	0	32784	
5434	0	35208	
5435	0	38012	
5436	0	40932	
5437	0	43772	
5438	0	46696	
5439	0	50016	
5440	0	53584	
5441	0	57168	
5442	0	60440	
5443	0	62432	
5444	0	63456	
5445	0	63952	
5446	0	64172	
5447	0	64224	
5448	0	64208	
5449	0	64136	
5450	0	64048	
5451	0	63948	
5452	0	62628	
5453	0	53932	
5454	0	46944	
5455	0	41492	
5456	0	37192	
5457	0	33484	
5458	0	30622	
5459	0	28700	
5460	0	27408	
5461	0	26320	
5462	0	25404	
5463	0	24652	
5464	0	23740	
5465	0	22512	
5466	0	21232	
5467	0	20252	
5468	0	19392	
5469	0	18716	
5470	0	18277	
5471	0	17958	
5472	0	17726	
5473	0	17508	
5474	0	17352	
5475	0	17352	
5476	0	17564	
5477	0	17844	
5478	0	18212	
5479	0	18714	
5480	0	19226	
5481	0	19770	
5482	0	20368	
5483	0	20988	
5484	0	21604	
5485	0	22212	
5486	0	22808	
5487	0	23328	
5488	0	23870	
5489	0	24456	
5490	0	25068	
5491	0	25700	
5492	0	26288	
5493	0	26824	
5494	0	27360	
5495	0	27900	
5496	0	28404	
5497	0	28808	
5498	0	29248	
5499	0	29692	
5500	0	30024	
5501	0	30232	
5502	0	30380	
5503	0	30414	
5504	0	30412	
5505	0	30476	
5506	0	30556	
5507	0	30652	
5508	0	30804	
5509	0	30892	
5510	0	30892	
5511	0	30892	
5512	0	30944	
5513	0	31112	
5514	0	31360	
5515	0	31616	
5516	0	31758	
5517	0	31780	
5518	0	31736	
5519	0	31750	
5520	0	31820	
5521	0	31832	
5522	0	31732	
5523	0	31580	
5524	0	31520	
5525	0	31560	
5526	0	31652	
5527	0	31792	
5528	0	31916	
5529	0	31940	
5530	0	32092	
5531	0	32356	
5532	0	32552	
5533	0	32608	
5534	0	32536	
5535	0	32412	
5536	0	32336	
5537	0	32176	
5538	0	32004	
5539	0	31984	
5540	0	32136	
5541	0	32332	
5542	0	32460	
5543	0	32604	
5544	0	32736	
5545	0	32896	
5546	0	33088	
5547	0	33162	
5548	0	33140	
5549	0	33152	
5550	0	33148	
5551	0	33064	
5552	0	33032	
5553	0	33000	
5554	0	33000	
5555	0	33016	
5556	0	33048	
5557	0	33016	
5558	0	33004	
5559	0	33056	
5560	0	33080	
5561	0	33120	
5562	0	33104	
5563	0	32944	
5564	0	32776	
5565	0	32780	
5566	0	32932	
5567	0	33072	
5568	0	33164	
5569	0	33220	
5570	0	33236	
5571	0	33312	
5572	0	33416	
5573	0	33452	
5574	0	33442	
5575	0	33376	
5576	0	33342	
5577	0	33372	
5578	0	33448	
5579	0	33596	
5580	0	33752	
5581	0	33808	
5582	0	33772	
5583	0	33676	
5584	0	33592	
5585	0	33524	
5586	0	33568	
5587	0	33616	
5588	0	33624	
5589	0	33664	
5590	0	33728	
5591	0	33728	
5592	0	33724	
5593	0	33696	
5594	0	33626	
5595	0	33580	
5596	0	33588	
5597	0	33648	
5598	0	33730	
5599	0	33788	
5600	0	33826	
5601	0	33888	
5602	0	33964	
5603	0	34052	
5604	0	34096	
5605	0	34044	
5606	0	33964	
5607	0	33956	
5608	0	34000	
5609	0	34040	
5610	0	34032	
5611	0	34004	
5612	0	34000	
5613	0	33924	
5614	0	33852	
5615	0	33870	
5616	0	34032	
5617	0	34260	
5618	0	34416	
5619	0	34368	
5620	0	34228	
5621	0	34148	
5622	0	34120	
5623	0	34088	
5624	0	34064	
5625	0	34000	
5626	0	33908	
5627	0	33816	
5628	0	33760	
5629	0	33740	
5630	0	33684	
5631	0	33576	
5632	0	33540	
5633	0	33596	
5634	0	33644	
5635	0	33660	
5636	0	33596	
5637	0	33564	
5638	0	33572	
5639	0	33664	
5640	0	33744	
5641	0	33804	
5642	0	33796	
5643	0	33816	
5644	0	33856	
5645	0	33842	
5646	0	33754	
5647	0	33644	
5648	0	33524	
5649	0	33444	
5650	0	33408	
5651	0	33416	
5652	0	33400	
5653	0	33360	
5654	0	33288	
5655	0	33256	
5656	0	33312	
5657	0	33404	
5658	0	33500	
5659	0	33568	
5660	0	33632	
5661	0	33696	
5662	0	33748	
5663	0	33832	
5664	0	33784	
5665	0	33592	
5666	0	33352	
5667	0	33168	
5668	0	33140	
5669	0	33248	
5670	0	33344	
5671	0	33416	
5672	0	33524	
5673	0	33680	
5674	0	33824	
5675	0	33840	
5676	0	33840	
5677	0	33868	
5678	0	33860	
5679	0	33842	
5680	0	33880	
5681	0	33960	
5682	0	33984	
5683	0	33920	
5684	0	33884	
5685	0	33920	
5686	0	33952	
5687	0	33892	
5688	0	33796	
5689	0	33692	
5690	0	33612	
5691	0	33596	
5692	0	33600	
5693	0	33572	
5694	0	33566	
5695	0	33612	
5696	0	33716	
5697	0	33832	
5698	0	33848	
5699	0	33868	
5700	0	33860	
5701	0	33748	
5702	0	33652	
5703	0	33548	
5704	0	33416	
5705	0	33312	
5706	0	33224	
5707	0	33108	
5708	0	32976	
5709	0	32912	
5710	0	32864	
5711	0	32886	
5712	0	32936	
5713	0	33004	
5714	0	33004	
5715	0	32896	
5716	0	32732	
5717	0	32676	
5718	0	32712	
5719	0	32776	
5720	0	32804	
5721	0	32834	
5722	0	32801	
5723	0	32792	
5724	0	32732	
5725	0	32648	
5726	0	32544	
5727	0	32402	
5728	0	32304	
5729	0	32266	
5730	0	32252	
5731	0	32240	
5732	0	32288	
5733	0	32336	
5734	0	32324	
5735	0	32292	
5736	0	32252	
5737	0	32204	
5738	0	32192	
5739	0	32296	
5740	0	32426	
5741	0	32448	
5742	0	32440	
5743	0	32424	
5744	0	32432	
5745	0	32480	
5746	0	32568	
5747	0	32548	
5748	0	32408	
5749	0	32276	
5750	0	32188	
5751	0	32128	
5752	0	32138	
5753	0	32144	
5754	0	32160	
5755	0	32196	
5756	0	32204	
5757	0	32184	
5758	0	32120	
5759	0	32048	
5760	0	31996	
5761	0	31968	
5762	0	31968	
5763	0	31984	
5764	0	31976	
5765	0	31940	
5766	0	31896	
5767	0	31884	
5768	0	31874	
5769	0	31888	
5770	0	31936	
5771	0	31980	
5772	0	32040	
5773	0	32084	
5774	0	32112	
5775	0	32152	
5776	0	32156	
5777	0	32160	
5778	0	32196	
5779	0	32200	
5780	0	32212	
5781	0	32200	
5782	0	32168	
5783	0	32144	
5784	0	32132	
5785	0	32112	
5786	0	32160	
5787	0	32176	
5788	0	32192	
5789	0	32168	
5790	0	32126	
5791	0	32144	
5792	0	32162	
5793	0	32200	
5794	0	32156	
5795	0	32108	
5796	0	32152	
5797	0	32214	
5798	0	32268	
5799	0	32324	
5800	0	32352	
5801	0	32344	
5802	0	32306	
5803	0	32284	
5804	0	32288	
5805	0	32304	
5806	0	32276	
5807	0	32288	
5808	0	32300	
5809	0	32368	
5810	0	32408	
5811	0	32456	
5812	0	32520	
5813	0	32572	
5814	0	32616	
5815	0	32628	
5816	0	32656	
5817	0	32680	
5818	0	32748	
5819	0	32844	
5820	0	32916	
5821	0	32952	
5822	0	32932	
5823	0	32892	
5824	0	32816	
5825	0	32744	
5826	0	32700	
5827	0	32698	
5828	0	32708	
5829	0	32724	
5830	0	32772	
5831	0	32864	
5832	0	32908	
5833	0	32972	
5834	0	33036	
5835	0	33068	
5836	0	33100	
5837	0	33152	
5838	0	33206	
5839	0	33296	
5840	0	33372	
5841	0	33396	
5842	0	33424	
5843	0	33404	
5844	0	33372	
5845	0	33356	
5846	0	33400	
5847	0	33496	
5848	0	33520	
5849	0	33492	
5850	0	33420	
5851	0	33380	
5852	0	33354	
5853	0	33384	
5854	0	33464	
5855	0	33500	
5856	0	33492	
5857	0	33488	
5858	0	33498	
5859	0	33504	
5860	0	33480	
5861	0	33476	
5862	0	33480	
5863	0	33508	
5864	0	33552	
5865	0	33556	
5866	0	33512	
5867	0	33492	
5868	0	33504	
5869	0	33520	
5870	0	33520	
5871	0	33524	
5872	0	33576	
5873	0	33592	
5874	0	33572	
5875	0	33584	
5876	0	33640	
5877	0	33684	
5878	0	33652	
5879	0	33580	
5880	0	33480	
5881	0	33392	
5882	0	33356	
5883	0	33372	
5884	0	33472	
5885	0	33592	
5886	0	33656	
5887	0	33676	
5888	0	33664	
5889	0	33608	
5890	0	33568	
5891	0	33518	
5892	0	33476	
5893	0	33432	
5894	0	33356	
5895	0	33304	
5896	0	33276	
5897	0	33252	
5898	0	33240	
5899	0	33240	
5900	0	33248	
5901	0	33236	
5902	0	33242	
5903	0	33232	
5904	0	33216	
5905	0	33200	
5906	0	33208	
5907	0	33256	
5908	0	33296	
5909	0	33332	
5910	0	33312	
5911	0	33264	
5912	0	33160	
5913	0	33068	
5914	0	32988	
5915	0	32964	
5916	0	32960	
5917	0	32964	
5918	0	32964	
5919	0	32936	
5920	0	32928	
5921	0	32968	
5922	0	32980	
5923	0	32974	
5924	0	32952	
5925	0	32968	
5926	0	33016	
5927	0	33036	
5928	0	33036	
5929	0	33016	
5930	0	32996	
5931	0	32960	
5932	0	32928	
5933	0	32904	
5934	0	32896	
5935	0	32840	
5936	0	32772	
5937	0	32728	
5938	0	32728	
5939	0	32732	
5940	0	32736	
5941	0	32776	
5942	0	32808	
5943	0	32856	
5944	0	32888	
5945	0	32900	
5946	0	32864	
5947	0	32840	
5948	0	32800	
5949	0	32728	
5950	0	32712	
5951	0	32740	
5952	0	32760	
5953	0	32776	
5954	0	32800	
5955	0	32794	
5956	0	32756	
5957	0	32692	
5958	0	32624	
5959	0	32622	
5960	0	32656	
5961	0	32720	
5962	0	32740	
5963	0	32736	
5964	0	32744	
5965	0	32744	
5966	0	32716	
5967	0	32688	
5968	0	32644	
5969	0	32634	
5970	0	32624	
5971	0	32600	
5972	0	32584	
5973	0	32590	
5974	0	32634	
5975	0	32688	
5976	0	32704	
5977	0	32724	
5978	0	32720	
5979	0	32720	
5980	0	32660	
5981	0	32612	
5982	0	32588	
5983	0	32576	
5984	0	32604	
5985	0	32644	
5986	0	32648	
5987	0	32616	
5988	0	32560	
5989	0	32516	
5990	0	32528	
5991	0	32552	
5992	0	32564	
5993	0	32600	
5994	0	32620	
5995	0	32616	
5996	0	32608	
5997	0	32592	
5998	0	32540	
5999	0	32482	
6000	0	32416	
6001	0	32388	
6002	0	32384	
6003	0	32372	
6004	0	32396	
6005	0	32450	
6006	0	32500	
6007	0	32544	
6008	0	32554	
6009	0	32488	
6010	0	32440	
6011	0	32464	
6012	0	32484	
6013	0	32552	
6014	0	32576	
6015	0	32620	
6016	0	32672	
6017	0	32688	
6018	0	32680	
6019	0	32636	
6020	0	32604	
6021	0	32628	
6022	0	32664	
6023	0	32652	
6024	0	32612	
6025	0	32540	
6026	0	32476	
6027	0	32448	
6028	0	32488	
6029	0	32552	
6030	0	32592	
6031	0	32596	
6032	0	32592	
6033	0	32612	
6034	0	32608	
6035	0	32604	
6036	0	32616	
6037	0	32656	
6038	0	32680	
6039	0	32668	
6040	0	32636	
6041	0	32608	
6042	0	32544	
6043	0	32526	
6044	0	32540	
6045	0	32580	
6046	0	32628	
6047	0	32648	
6048	0	32644	
6049	0	32612	
6050	0	32610	
6051	0	32628	
6052	0	32620	
6053	0	32586	
6054	0	32564	
6055	0	32556	
6056	0	32544	
6057	0	32532	
6058	0	32584	
6059	0	32616	
6060	0	32592	
6061	0	32608	
6062	0	32652	
6063	0	32676	
6064	0	32704	
6065	0	32720	
6066	0	32736	
6067	0	32744	
6068	0	32748	
6069	0	32724	
6070	0	32728	
6071	0	32740	
6072	0	32752	
6073	0	32756	
6074	0	32744	
6075	0	32712	
6076	0	32700	
6077	0	32680	
6078	0	32704	
6079	0	32752	
6080	0	32824	
6081	0	32874	
6082	0	32892	
6083	0	32936	
6084	0	33040	
6085	0	33136	
6086	0	33232	
6087	0	33348	
6088	0	33444	
6089	0	33588	
6090	0	33744	
6091	0	33892	
6092	0	34024	
6093	0	34076	
6094	0	34076	
6095	0	34036	
6096	0	34016	
6097	0	34004	
6098	0	34026	
6099	0	34076	
6100	0	34168	
6101	0	34264	
6102	0	34336	
6103	0	34392	
6104	0	34376	
6105	0	34356	
6106	0	34320	
6107	0	34244	
6108	0	34256	
6109	0	34384	
6110	0	34608	
6111	0	34912	
6112	0	35230	
6113	0	35536	
6114	0	35820	
6115	0	36116	
6116	0	36344	
6117	0	36524	
6118	0	36724	
6119	0	36892	
6120	0	36984	
6121	0	36996	
6122	0	36984	
6123	0	36948	
6124	0	36944	
6125	0	36908	
6126	0	36800	
6127	0	36708	
6128	0	36616	
6129	0	36532	
6130	0	36444	
6131	0	36328	
6132	0	36236	
6133	0	36204	
6134	0	36220	
6135	0	36232	
6136	0	36212	
6137	0	36160	
6138	0	36112	
6139	0	36068	
6140	0	36000	
6141	0	35936	
6142	0	35832	
6143	0	35732	
6144	0	35588	
6145	0	35412	
6146	0	35204	
6147	0	34956	
6148	0	34720	
6149	0	34424	
6150	0	34080	
6151	0	33696	
6152	0	33304	
6153	0	32944	
6154	0	32648	
6155	0	32344	
6156	0	32068	
6157	0	31852	
6158	0	31712	
6159	0	31588	
6160	0	31520	
6161	0	31500	
6162	0	31520	
6163	0	31500	
6164	0	31428	
6165	0	31300	
6166	0	31144	
6167	0	31012	
6168	0	30902	
6169	0	30838	
6170	0	30792	
6171	0	30740	
6172	0	30760	
6173	0	30836	
6174	0	30904	
6175	0	30892	
6176	0	30864	
6177	0	30844	
6178	0	30852	
6179	0	30840	
6180	0	30848	
6181	0	30876	
6182	0	30908	
6183	0	30932	
6184	0	30944	
6185	0	30920	
6186	0	30912	
6187	0	30868	
6188	0	30840	
6189	0	30816	
6190	0	30848	
6191	0	30924	
6192	0	30972	
6193	0	31000	
6194	0	30996	
6195	0	31016	
6196	0	31088	
6197	0	31120	
6198	0	31152	
6199	0	31156	
6200	0	31192	
6201	0	31192	
6202	0	31104	
6203	0	30936	
6204	0	30728	
6205	0	30484	
6206	0	30082	
6207	0	29434	
6208	0	28600	
6209	0	27708	
6210	0	26710	
6211	0	25668	
6212	0	24698	
6213	0	23902	
6214	0	23314	
6215	0	22942	
6216	0	22720	
6217	0	22736	
6218	0	23016	
6219	0	23505	
6220	0	24024	
6221	0	24696	
6222	0	25908	
6223	0	27620	
6224	0	29744	
6225	0	32188	
6226	0	34912	
6227	0	37840	
6228	0	41000	
6229	0	44524	
6230	0	48480	
6231	0	52592	
6232	0	56804	
6233	0	60296	
6234	0	62288	
6235	0	63328	
6236	0	63844	
6237	0	64072	
6238	0	64128	
6239	0	64096	
6240	0	64048	
6241	0	63944	
6242	0	63844	
6243	0	63720	
6244	0	63272	
6245	0	55928	
6246	0	50000	
6247	0	45428	
6248	0	41608	
6249	0	37720	
6250	0	34228	
6251	0	31408	
6252	0	29166	
6253	0	27036	
6254	0	25040	
6255	0	23456	
6256	0	22214	
6257	0	21264	
6258	0	20508	
6259	0	19962	
6260	0	19593	
6261	0	19284	
6262	0	18936	
6263	0	18628	
6264	0	18502	
6265	0	18660	
6266	0	19088	
6267	0	19508	
6268	0	19796	
6269	0	20066	
6270	0	20432	
6271	0	20904	
6272	0	21432	
6273	0	22000	
6274	0	22556	
6275	0	23076	
6276	0	23592	
6277	0	24132	
6278	0	24722	
6279	0	25376	
6280	0	26024	
6281	0	26612	
6282	0	27148	
6283	0	27628	
6284	0	28016	
6285	0	28356	
6286	0	28704	
6287	0	29000	
6288	0	29224	
6289	0	29396	
6290	0	29544	
6291	0	29680	
6292	0	29760	
6293	0	29808	
6294	0	29822	
6295	0	29868	
6296	0	29956	
6297	0	30040	
6298	0	30088	
6299	0	30152	
6300	0	30192	
6301	0	30232	
6302	0	30284	
6303	0	30324	
6304	0	30376	
6305	0	30456	
6306	0	30524	
6307	0	30564	
6308	0	30604	
6309	0	30676	
6310	0	30744	
6311	0	30804	
6312	0	30896	
6313	0	30980	
6314	0	31040	
6315	0	31072	
6316	0	31092	
6317	0	31120	
6318	0	31180	
6319	0	31248	
6320	0	31316	
6321	0	31320	
6322	0	31332	
6323	0	31348	
6324	0	31352	
6325	0	31348	
6326	0	31412	
6327	0	31456	
6328	0	31480	
6329	0	31512	
6330	0	31500	
6331	0	31496	
6332	0	31540	
6333	0	31648	
6334	0	31768	
6335	0	31808	
6336	0	31834	
6337	0	31864	
6338	0	31900	
6339	0	31936	
6340	0	31992	
6341	0	32012	
6342	0	32016	
6343	0	32044	
6344	0	32080	
6345	0	32120	
6346	0	32172	
6347	0	32180	
6348	0	32224	
6349	0	32260	
6350	0	32304	
6351	0	32296	
6352	0	32320	
6353	0	32324	
6354	0	32348	
6355	0	32380	
6356	0	32408	
6357	0	32456	
6358	0	32452	
6359	0	32408	
6360	0	32396	
6361	0	32432	
6362	0	32484	
6363	0	32516	
6364	0	32528	
6365	0	32536	
6366	0	32552	
6367	0	32576	
6368	0	32596	
6369	0	32624	
6370	0	32628	
6371	0	32644	
6372	0	32612	
6373	0	32564	
6374	0	32548	
6375	0	32560	
6376	0	32644	
6377	0	32700	
6378	0	32704	
6379	0	32748	
6380	0	32796	
6381	0	32840	
6382	0	32836	
6383	0	32800	
6384	0	32776	
6385	0	32792	
6386	0	32810	
6387	0	32828	
6388	0	32866	
6389	0	32866	
6390	0	32884	
6391	0	32928	
6392	0	32960	
6393	0	32952	
6394	0	32944	
6395	0	32928	
6396	0	32940	
6397	0	32904	
6398	0	32872	
6399	0	32864	
6400	0	32868	
6401	0	32860	
6402	0	32864	
6403	0	32852	
6404	0	32872	
6405	0	32912	
6406	0	32940	
6407	0	32940	
6408	0	32944	
6409	0	32916	
6410	0	32900	
6411	0	32874	
6412	0	32848	
6413	0	32814	
6414	0	32804	
6415	0	32768	
6416	0	32756	
6417	0	32760	
6418	0	32768	
6419	0	32756	
6420	0	32736	
6421	0	32664	
6422	0	32588	
6423	0	32564	
6424	0	32576	
6425	0	32600	
6426	0	32620	
6427	0	32632	
6428	0	32608	
6429	0	32592	
6430	0	32544	
6431	0	32508	
6432	0	32536	
6433	0	32548	
6434	0	32512	
6435	0	32464	
6436	0	32436	
6437	0	32448	
6438	0	32484	
6439	0	32488	
6440	0	32476	
6441	0	32480	
6442	0	32468	
6443	0	32476	
6444	0	32484	
6445	0	32484	
6446	0	32448	
6447	0	32452	
6448	0	32440	
6449	0	32440	
6450	0	32472	
6451	0	32504	
6452	0	32564	
6453	0	32608	
6454	0	32624	
6455	0	32632	
6456	0	32640	
6457	0	32632	
6458	0	32642	
6459	0	32640	
6460	0	32664	
6461	0	32704	
6462	0	32704	
6463	0	32696	
6464	0	32680	
6465	0	32716	
6466	0	32768	
6467	0	32824	
6468	0	32892	
6469	0	32940	
6470	0	32972	
6471	0	33010	
6472	0	33068	
6473	0	33104	
6474	0	33146	
6475	0	33180	
6476	0	33224	
6477	0	33272	
6478	0	33332	
6479	0	33384	
6480	0	33404	
6481	0	33380	
6482	0	33352	
6483	0	33320	
6484	0	33312	
6485	0	33282	
6486	0	33256	
6487	0	33236	
6488	0	33256	
6489	0	33258	
6490	0	33244	
6491	0	33216	
6492	0	33200	
6493	0	33144	
6494	0	33122	
6495	0	33092	
6496	0	33044	
6497	0	33016	
6498	0	32972	
6499	0	32940	
6500	0	32916	
6501	0	32904	
6502	0	32896	
6503	0	32900	
6504	0	32892	
6505	0	32888	
6506	0	32880	
6507	0	32804	
6508	0	32740	
6509	0	32692	
6510	0	32664	
6511	0	32636	
6512	0	32624	
6513	0	32648	
6514	0	32704	
6515	0	32704	
6516	0	32680	
6517	0	32632	
6518	0	32572	
6519	0	32464	
6520	0	32396	
6521	0	32388	
6522	0	32404	
6523	0	32414	
6524	0	32400	
6525	0	32404	
6526	0	32418	
6527	0	32436	
6528	0	32436	
6529	0	32444	
6530	0	32424	
6531	0	32376	
6532	0	32348	
6533	0	32288	
6534	0	32232	
6535	0	32212	
6536	0	32256	
6537	0	32300	
6538	0	32328	
6539	0	32300	
6540	0	32292	
6541	0	32300	
6542	0	32274	
6543	0	32264	
6544	0	32272	
6545	0	32296	
6546	0	32308	
6547	0	32332	
6548	0	32308	
6549	0	32308	
6550	0	32320	
6551	0	32384	
6552	0	32424	
6553	0	32420	
6554	0	32440	
6555	0	32464	
6556	0	32472	
6557	0	32488	
6558	0	32480	
6559	0	32456	
6560	0	32440	
6561	0	32412	
6562	0	32386	
6563	0	32372	
6564	0	32412	
6565	0	32460	
6566	0	32496	
6567	0	32512	
6568	0	32492	
6569	0	32440	
6570	0	32456	
6571	0	32496	
6572	0	32544	
6573	0	32592	
6574	0	32576	
6575	0	32556	
6576	0	32524	
6577	0	32492	
6578	0	32544	
6579	0	32628	
6580	0	32672	
6581	0	32696	
6582	0	32696	
6583	0	32720	
6584	0	32704	
6585	0	32680	
6586	0	32676	
6587	0	32664	
6588	0	32648	
6589	0	32680	
6590	0	32728	
6591	0	32736	
6592	0	32744	
6593	0	32756	
6594	0	32776	
6595	0	32780	
6596	0	32784	
6597	0	32778	
6598	0	32752	
6599	0	32760	
6600	0	32792	
6601	0	32840	
6602	0	32892	
6603	0	32912	
6604	0	32892	
6605	0	32872	
6606	0	32872	
6607	0	32888	
6608	0	32916	
6609	0	32960	
6610	0	33012	
6611	0	33068	
6612	0	33084	
6613	0	33036	
6614	0	32972	
6615	0	32920	
6616	0	32864	
6617	0	32868	
6618	0	32882	
6619	0	32908	
6620	0	32976	
6621	0	33088	
6622	0	33136	
6623	0	33104	
6624	0	33104	
6625	0	33124	
6626	0	33128	
6627	0	33130	
6628	0	33144	
6629	0	33216	
6630	0	33264	
6631	0	33296	
6632	0	33240	
6633	0	33176	
6634	0	33152	
6635	0	33194	
6636	0	33272	
6637	0	33313	
6638	0	33356	
6639	0	33354	
6640	0	33300	
6641	0	33224	
6642	0	33188	
6643	0	33200	
6644	0	33242	
6645	0	33268	
6646	0	33312	
6647	0	33316	
6648	0	33332	
6649	0	33316	
6650	0	33340	
6651	0	33344	
6652	0	33340	
6653	0	33328	
6654	0	33296	
6655	0	33308	
6656	0	33368	
6657	0	33412	
6658	0	33440	
6659	0	33412	
6660	0	33348	
6661	0	33284	
6662	0	33260	
6663	0	33292	
6664	0	33304	
6665	0	33316	
6666	0	33300	
6667	0	33280	
6668	0	33248	
6669	0	33248	
6670	0	33248	
6671	0	33280	
6672	0	33292	
6673	0	33296	
6674	0	33304	
6675	0	33304	
6676	0	33340	
6677	0	33344	
6678	0	33312	
6679	0	33284	
6680	0	33288	
6681	0	33308	
6682	0	33316	
6683	0	33296	
6684	0	33268	
6685	0	33248	
6686	0	33236	
6687	0	33236	
6688	0	33198	
6689	0	33184	
6690	0	33144	
6691	0	33096	
6692	0	33100	
6693	0	33112	
6694	0	33152	
6695	0	33168	
6696	0	33194	
6697	0	33204	
6698	0	33160	
6699	0	33096	
6700	0	33056	
6701	0	33040	
6702	0	33040	
6703	0	33028	
6704	0	33012	
6705	0	32980	
6706	0	33004	
6707	0	33012	
6708	0	33010	
6709	0	32976	
6710	0	32960	
6711	0	32948	
6712	0	32916	
6713	0	32906	
6714	0	32912	
6715	0	32884	
6716	0	32848	
6717	0	32816	
6718	0	32832	
6719	0	32844	
6720	0	32852	
6721	0	32836	
6722	0	32840	
6723	0	32852	
6724	0	32866	
6725	0	32840	
6726	0	32832	
6727	0	32828	
6728	0	32784	
6729	0	32752	
6730	0	32720	
6731	0	32704	
6732	0	32704	
6733	0	32680	
6734	0	32653	
6735	0	32680	
6736	0	32720	
6737	0	32760	
6738	0	32794	
6739	0	32772	
6740	0	32732	
6741	0	32688	
6742	0	32624	
6743	0	32592	
6744	0	32604	
6745	0	32626	
6746	0	32660	
6747	0	32688	
6748	0	32674	
6749	0	32660	
6750	0	32656	
6751	0	32666	
6752	0	32688	
6753	0	32672	
6754	0	32648	
6755	0	32628	
6756	0	32652	
6757	0	32668	
6758	0	32640	
6759	0	32648	
6760	0	32654	
6761	0	32680	
6762	0	32708	
6763	0	32670	
6764	0	32640	
6765	0	32680	
6766	0	32708	
6767	0	32722	
6768	0	32736	
6769	0	32724	
6770	0	32648	
6771	0	32600	
6772	0	32576	
6773	0	32552	
6774	0	32524	
6775	0	32560	
6776	0	32624	
6777	0	32704	
6778	0	32780	
6779	0	32768	
6780	0	32720	
6781	0	32678	
6782	0	32668	
6783	0	32652	
6784	0	32596	
6785	0	32540	
6786	0	32528	
6787	0	32544	
6788	0	32576	
6789	0	32588	
6790	0	32580	
6791	0	32572	
6792	0	32572	
6793	0	32552	
6794	0	32526	
6795	0	32516	
6796	0	32544	
6797	0	32560	
6798	0	32568	
6799	0	32560	
6800	0	32560	
6801	0	32576	
6802	0	32576	
6803	0	32572	
6804	0	32572	
6805	0	32572	
6806	0	32548	
6807	0	32536	
6808	0	32540	
6809	0	32552	
6810	0	32532	
6811	0	32548	
6812	0	32572	
6813	0	32584	
6814	0	32598	
6815	0	32608	
6816	0	32616	
6817	0	32640	
6818	0	32620	
6819	0	32600	
6820	0	32600	
6821	0	32592	
6822	0	32564	
6823	0	32552	
6824	0	32516	
6825	0	32508	
6826	0	32504	
6827	0	32524	
6828	0	32552	
6829	0	32560	
6830	0	32580	
6831	0	32610	
6832	0	32608	
6833	0	32556	
6834	0	32488	
6835	0	32472	
6836	0	32474	
6837	0	32504	
6838	0	32504	
6839	0	32504	
6840	0	32538	
6841	0	32568	
6842	0	32576	
6843	0	32592	
6844	0	32616	
6845	0	32688	
6846	0	32744	
6847	0	32724	
6848	0	32682	
6849	0	32612	
6850	0	32528	
6851	0	32448	
6852	0	32444	
6853	0	32484	
6854	0	32568	
6855	0	32628	
6856	0	32620	
6857	0	32624	
6858	0	32608	
6859	0	32628	
6860	0	32636	
6861	0	32632	
6862	0	32616	
6863	0	32604	
6864	0	32584	
6865	0	32584	
6866	0	32656	
6867	0	32756	
6868	0	32868	
6869	0	32920	
6870	0	33024	
6871	0	33156	
6872	0	33324	
6873	0	33512	
6874	0	33640	
6875	0	33738	
6876	0	33812	
6877	0	33908	
6878	0	33992	
6879	0	34000	
6880	0	33988	
6881	0	33978	
6882	0	34016	
6883	0	34076	
6884	0	34116	
6885	0	34144	
6886	0	34176	
6887	0	34148	
6888	0	34152	
6889	0	34184	
6890	0	34192	
6891	0	34176	
6892	0	34160	
6893	0	34168	
6894	0	34228	
6895	0	34392	
6896	0	34612	
6897	0	34860	
6898	0	35092	
6899	0	35416	
6900	0	35824	
6901	0	36180	
6902	0	36424	
6903	0	36574	
6904	0	36720	
6905	0	36804	
6906	0	36832	
6907	0	36772	
6908	0	36704	
6909	0	36672	
6910	0	36664	
6911	0	36624	
6912	0	36584	
6913	0	36512	
6914	0	36432	
6915	0	36356	
6916	0	36272	
6917	0	36190	
6918	0	36144	
6919	0	36160	
6920	0	36198	
6921	0	36148	
6922	0	36028	
6923	0	35916	
6924	0	35828	
6925	0	35732	
6926	0	35616	
6927	0	35540	
6928	0	35440	
6929	0	35328	
6930	0	35188	
6931	0	35008	
6932	0	34768	
6933	0	34532	
6934	0	34292	
6935	0	34016	
6936	0	33620	
6937	0	33200	
6938	0	32824	
6939	0	32428	
6940	0	32104	
6941	0	31840	
6942	0	31668	
6943	0	31528	
6944	0	31408	
6945	0	31340	
6946	0	31308	
6947	0	31234	
6948	0	31236	
6949	0	31296	
6950	0	31200	
6951	0	30984	
6952	0	30800	
6953	0	30664	
6954	0	30532	
6955	0	30444	
6956	0	30420	
6957	0	30364	
6958	0	30352	
6959	0	30404	
6960	0	30508	
6961	0	30584	
6962	0	30580	
6963	0	30560	
6964	0	30592	
6965	0	30624	
6966	0	30644	
6967	0	30680	
6968	0	30680	
6969	0	30636	
6970	0	30536	
6971	0	30448	
6972	0	30444	
6973	0	30464	
6974	0	30516	
6975	0	30560	
6976	0	30592	
6977	0	30628	
6978	0	30632	
6979	0	30588	
6980	0	30588	
6981	0	30620	
6982	0	30672	
6983	0	30704	
6984	0	30744	
6985	0	30776	
6986	0	30780	
6987	0	30776	
6988	0	30716	
6989	0	30644	
6990	0	30540	
6991	0	30336	
6992	0	29942	
6993	0	29252	
6994	0	28328	
6995	0	27344	
6996	0	26292	
6997	0	25264	
6998	0	24304	
6999	0	23484	
7000	0	22880	
7001	0	22472	
7002	0	22178	
7003	0	22100	
7004	0	22316	
7005	0	22848	
7006	0	23416	
7007	0	24120	
7008	0	25290	
7009	0	26936	
7010	0	28988	
7011	0	31360	
7012	0	33978	
7013	0	36896	
7014	0	40008	
7015	0	43488	
7016	0	47372	
7017	0	51428	
7018	0	55636	
7019	0	59448	
7020	0	62000	
7021	0	63332	
7022	0	64024	
7023	0	64340	
7024	0	64456	
7025	0	64456	
7026	0	64392	
7027	0	64304	
7028	0	64192	
7029	0	64088	
7030	0	63956	
7031	0	58120	
7032	0	52392	
7033	0	48040	
7034	0	44352	
7035	0	40492	
7036	0	36832	
7037	0	33796	
7038	0	31308	
7039	0	29008	
7040	0	26874	
7041	0	25060	
7042	0	23528	
7043	0	22290	
7044	0	21264	
7045	0	20472	
7046	0	19890	
7047	0	19480	
7048	0	19120	
7049	0	18866	
7050	0	18856	
7051	0	19069	
7052	0	19448	
7053	0	19724	
7054	0	19900	
7055	0	20098	
7056	0	20424	
7057	0	20896	
7058	0	21400	
7059	0	21928	
7060	0	22478	
7061	0	22948	
7062	0	23376	
7063	0	23840	
7064	0	24428	
7065	0	25100	
7066	0	25756	
7067	0	26320	
7068	0	26804	
7069	0	27248	
7070	0	27620	
7071	0	27952	
7072	0	28278	
7073	0	28548	
7074	0	28736	
7075	0	28872	
7076	0	29010	
7077	0	29096	
7078	0	29146	
7079	0	29136	
7080	0	29182	
7081	0	29280	
7082	0	29380	
7083	0	29474	
7084	0	29548	
7085	0	29576	
7086	0	29632	
7087	0	29688	
7088	0	29696	
7089	0	29792	
7090	0	29872	
7091	0	29952	
7092	0	30072	
7093	0	30192	
7094	0	30292	
7095	0	30338	
7096	0	30472	
7097	0	30528	
7098	0	30540	
7099	0	30578	
7100	0	30608	
7101	0	30656	
7102	0	30632	
7103	0	30592	
7104	0	30542	
7105	0	30544	
7106	0	30600	
7107	0	30600	
7108	0	30640	
7109	0	30708	
7110	0	30808	
7111	0	30920	
7112	0	31012	
7113	0	31080	
7114	0	31104	
7115	0	31154	
7116	0	31208	
7117	0	31248	
7118	0	31302	
7119	0	31340	
7120	0	31364	
7121	0	31408	
7122	0	31488	
7123	0	31552	
7124	0	31620	
7125	0	31654	
7126	0	31676	
7127	0	31696	
7128	0	31688	
7129	0	31684	
7130	0	31688	
7131	0	31784	
7132	0	31848	
7133	0	31834	
7134	0	31834	
7135	0	31856	
7136	0	31896	
7137	0	31956	
7138	0	31956	
7139	0	31928	
7140	0	31952	
7141	0	31980	
7142	0	31992	
7143	0	32070	
7144	0	32176	
7145	0	32208	
7146	0	32196	
7147	0	32172	
7148	0	32176	
7149	0	32170	
7150	0	32152	
7151	0	32176	
7152	0	32212	
7153	0	32248	
7154	0	32260	
7155	0	32276	
7156	0	32266	
7157	0	32276	
7158	0	32304	
7159	0	32336	
7160	0	32356	
7161	0	32376	
7162	0	32412	
7163	0	32400	
7164	0	32356	
7165	0	32356	
7166	0	32436	
7167	0	32520	
7168	0	32560	
7169	0	32544	
7170	0	32544	
7171	0	32552	
7172	0	32540	
7173	0	32544	
7174	0	32508	
7175	0	32474	
7176	0	32448	
7177	0	32474	
7178	0	32532	
7179	0	32584	
7180	0	32588	
7181	0	32576	
7182	0	32600	
7183	0	32616	
7184	0	32644	
7185	0	32618	
7186	0	32604	
7187	0	32576	
7188	0	32532	
7189	0	32528	
7190	0	32540	
7191	0	32584	
7192	0	32632	
7193	0	32644	
7194	0	32640	
7195	0	32636	
7196	0	32620	
7197	0	32596	
7198	0	32568	
7199	0	32524	
7200	0	32522	
7201	0	32504	
7202	0	32506	
7203	0	32524	
7204	0	32544	
7205	0	32560	
7206	0	32524	
7207	0	32476	
7208	0	32440	
7209	0	32416	
7210	0	32364	
7211	0	32332	
7212	0	32280	
7213	0	32232	
7214	0	32200	
7215	0	32176	
7216	0	32176	
7217	0	32164	
7218	0	32196	
7219	0	32248	
7220	0	32252	
7221	0	32256	
7222	0	32220	
7223	0	32176	
7224	0	32144	
7225	0	32140	
7226	0	32184	
7227	0	32232	
7228	0	32232	
7229	0	32200	
7230	0	32188	
7231	0	32180	
7232	0	32192	
7233	0	32192	
7234	0	32176	
7235	0	32216	
7236	0	32212	
7237	0	32164	
7238	0	32172	
7239	0	32184	
7240	0	32184	
7241	0	32232	
7242	0	32308	
7243	0	32336	
7244	0	32376	
7245	0	32410	
7246	0	32440	
7247	0	32482	
7248	0	32484	
7249	0	32500	
7250	0	32556	
7251	0	32636	
7252	0	32684	
7253	0	32736	
7254	0	32772	
7255	0	32832	
7256	0	32912	
7257	0	32992	
7258	0	32980	
7259	0	32972	
7260	0	32992	
7261	0	33036	
7262	0	33108	
7263	0	33192	
7264	0	33244	
7265	0	33232	
7266	0	33208	
7267	0	33248	
7268	0	33316	
7269	0	33380	
7270	0	33436	
7271	0	33464	
7272	0	33440	
7273	0	33428	
7274	0	33404	
7275	0	33356	
7276	0	33356	
7277	0	33364	
7278	0	33328	
7279	0	33312	
7280	0	33262	
7281	0	33228	
7282	0	33188	
7283	0	33178	
7284	0	33168	
7285	0	33120	
7286	0	33020	
7287	0	32932	
7288	0	32892	
7289	0	32864	
7290	0	32888	
7291	0	32902	
7292	0	32876	
7293	0	32884	
7294	0	32896	
7295	0	32908	
7296	0	32926	
7297	0	32896	
7298	0	32880	
7299	0	32836	
7300	0	32806	
7301	0	32788	
7302	0	32740	
7303	0	32676	
7304	0	32616	
7305	0	32580	
7306	0	32596	
7307	0	32584	
7308	0	32560	
7309	0	32540	
7310	0	32548	
7311	0	32568	
7312	0	32564	
7313	0	32564	
7314	0	32524	
7315	0	32460	
7316	0	32472	
7317	0	32484	
7318	0	32476	
7319	0	32420	
7320	0	32408	
7321	0	32376	
7322	0	32352	
7323	0	32312	
7324	0	32280	
7325	0	32264	
7326	0	32280	
7327	0	32316	
7328	0	32336	
7329	0	32348	
7330	0	32344	
7331	0	32400	
7332	0	32420	
7333	0	32428	
7334	0	32424	
7335	0	32416	
7336	0	32412	
7337	0	32416	
7338	0	32440	
7339	0	32452	
7340	0	32464	
7341	0	32492	
7342	0	32536	
7343	0	32564	
7344	0	32580	
7345	0	32584	
7346	0	32570	
7347	0	32560	
7348	0	32576	
7349	0	32608	
7350	0	32580	
7351	0	32556	
7352	0	32556	
7353	0	32572	
7354	0	32576	
7355	0	32544	
7356	0	32472	
7357	0	32408	
7358	0	32396	
7359	0	32460	
7360	0	32522	
7361	0	32544	
7362	0	32572	
7363	0	32588	
7364	0	32612	
7365	0	32636	
7366	0	32656	
7367	0	32644	
7368	0	32632	
7369	0	32634	
7370	0	32640	
7371	0	32612	
7372	0	32544	
7373	0	32478	
7374	0	32476	
7375	0	32512	
7376	0	32568	
7377	0	32604	
7378	0	32664	
7379	0	32696	
7380	0	32752	
7381	0	32764	
7382	0	32756	
7383	0	32744	
7384	0	32752	
7385	0	32764	
7386	0	32728	
7387	0	32704	
7388	0	32704	
7389	0	32756	
7390	0	32804	
7391	0	32860	
7392	0	32892	
7393	0	32866	
7394	0	32820	
7395	0	32776	
7396	0	32724	
7397	0	32724	
7398	0	32780	
7399	0	32848	
7400	0	32908	
7401	0	32940	
7402	0	32962	
7403	0	33024	
7404	0	33108	
7405	0	33100	
7406	0	33064	
7407	0	33020	
7408	0	32976	
7409	0	32964	
7410	0	33004	
7411	0	33072	
7412	0	33156	
7413	0	33260	
7414	0	33320	
7415	0	33320	
7416	0	33304	
7417	0	33248	
7418	0	33216	
7419	0	33248	
7420	0	33284	
7421	0	33256	
7422	0	33236	
7423	0	33254	
7424	0	33208	
7425	0	33180	
7426	0	33208	
7427	0	33218	
7428	0	33192	
7429	0	33192	
7430	0	33204	
7431	0	33240	
7432	0	33292	
7433	0	33336	
7434	0	33376	
7435	0	33404	
7436	0	33424	
7437	0	33440	
7438	0	33456	
7439	0	33464	
7440	0	33446	
7441	0	33416	
7442	0	33392	
7443	0	33388	
7444	0	33416	
7445	0	33424	
7446	0	33452	
7447	0	33456	
7448	0	33432	
7449	0	33384	
7450	0	33360	
7451	0	33348	
7452	0	33348	
7453	0	33380	
7454	0	33388	
7455	0	33404	
7456	0	33424	
7457	0	33440	
7458	0	33468	
7459	0	33480	
7460	0	33440	
7461	0	33408	
7462	0	33396	
7463	0	33368	
7464	0	33324	
7465	0	33308	
7466	0	33324	
7467	0	33324	
7468	0	33272	
7469	0	33228	
7470	0	33232	
7471	0	33248	
7472	0	33272	
7473	0	33296	
7474	0	33328	
7475	0	33348	
7476	0	33348	
7477	0	33320	
7478	0	33304	
7479	0	33312	
7480	0	33286	
7481	0	33268	
7482	0	33252	
7483	0	33260	
7484	0	33268	
7485	0	33268	
7486	0	33280	
7487	0	33264	
7488	0	33204	
7489	0	33188	
7490	0	33156	
7491	0	33146	
7492	0	33140	
7493	0	33188	
7494	0	33208	
7495	0	33152	
7496	0	33136	
7497	0	33120	
7498	0	33084	
7499	0	33068	
7500	0	33016	
7501	0	32968	
7502	0	32988	
7503	0	33036	
7504	0	33080	
7505	0	33084	
7506	0	33076	
7507	0	33064	
7508	0	33060	
7509	0	33044	
7510	0	33032	
7511	0	33024	
7512	0	33000	
7513	0	32960	
7514	0	32936	
7515	0	32948	
7516	0	32952	
7517	0	32924	
7518	0	32898	
7519	0	32900	
7520	0	32920	
7521	0	32900	
7522	0	32908	
7523	0	32892	
7524	0	32904	
7525	0	32888	
7526	0	32868	
7527	0	32852	
7528	0	32848	
7529	0	32880	
7530	0	32940	
7531	0	32988	
7532	0	32992	
7533	0	33008	
7534	0	33032	
7535	0	33068	
7536	0	33132	
7537	0	33228	
7538	0	33360	
7539	0	33498	
7540	0	33610	
7541	0	33776	
7542	0	33984	
7543	0	34184	
7544	0	34388	
7545	0	34528	
7546	0	34596	
7547	0	34648	
7548	0	34706	
7549	0	34692	
7550	0	34592	
7551	0	34464	
7552	0	34400	
7553	0	34376	
7554	0	34400	
7555	0	34404	
7556	0	34424	
7557	0	34452	
7558	0	34460	
7559	0	34484	
7560	0	34492	
7561	0	34560	
7562	0	34688	
7563	0	34912	
7564	0	35180	
7565	0	35456	
7566	0	35788	
7567	0	36120	
7568	0	36436	
7569	0	36640	
7570	0	36828	
7571	0	36980	
7572	0	37092	
7573	0	37184	
7574	0	37244	
7575	0	37272	
7576	0	37328	
7577	0	37388	
7578	0	37408	
7579	0	37364	
7580	0	37228	
7581	0	37044	
7582	0	36868	
7583	0	36704	
7584	0	36640	
7585	0	36656	
7586	0	36644	
7587	0	36624	
7588	0	36596	
7589	0	36516	
7590	0	36440	
7591	0	36352	
7592	0	36268	
7593	0	36162	
7594	0	36044	
7595	0	35920	
7596	0	35828	
7597	0	35692	
7598	0	35512	
7599	0	35264	
7600	0	34956	
7601	0	34612	
7602	0	34236	
7603	0	33832	
7604	0	33356	
7605	0	32900	
7606	0	32488	
7607	0	32140	
7608	0	31856	
7609	0	31612	
7610	0	31448	
7611	0	31360	
7612	0	31288	
7613	0	31264	
7614	0	31288	
7615	0	31256	
7616	0	31184	
7617	0	31060	
7618	0	30940	
7619	0	30784	
7620	0	30676	
7621	0	30616	
7622	0	30560	
7623	0	30514	
7624	0	30484	
7625	0	30476	
7626	0	30476	
7627	0	30482	
7628	0	30468	
7629	0	30460	
7630	0	30488	
7631	0	30568	
7632	0	30636	
7633	0	30660	
7634	0	30648	
7635	0	30660	
7636	0	30682	
7637	0	30672	
7638	0	30700	
7639	0	30732	
7640	0	30756	
7641	0	30788	
7642	0	30808	
7643	0	30828	
7644	0	30808	
7645	0	30764	
7646	0	30764	
7647	0	30764	
7648	0	30720	
7649	0	30666	
7650	0	30612	
7651	0	30618	
7652	0	30608	
7653	0	30640	
7654	0	30718	
7655	0	30800	
7656	0	30792	
7657	0	30718	
7658	0	30556	
7659	0	30300	
7660	0	29832	
7661	0	29080	
7662	0	28120	
7663	0	27032	
7664	0	25908	
7665	0	24776	
7666	0	23740	
7667	0	22884	
7668	0	22276	
7669	0	21864	
7670	0	21634	
7671	0	21664	
7672	0	21992	
7673	0	22518	
7674	0	23034	
7675	0	23784	
7676	0	25058	
7677	0	26848	
7678	0	29037	
7679	0	31572	
7680	0	34488	
7681	0	37808	
7682	0	41282	
7683	0	45128	
7684	0	49244	
7685	0	53508	
7686	0	57648	
7687	0	61056	
7688	0	62944	
7689	0	63936	
7690	0	64428	
7691	0	64640	
7692	0	64672	
7693	0	64638	
7694	0	64576	
7695	0	64468	
7696	0	64352	
7697	0	64224	
7698	0	64112	
7699	0	57888	
7700	0	53032	
7701	0	49152	
7702	0	45000	
7703	0	40592	
7704	0	36688	
7705	0	33536	
7706	0	30756	
7707	0	28234	
7708	0	26184	
7709	0	24570	
7710	0	23318	
7711	0	22324	
7712	0	21468	
7713	0	20732	
7714	0	20216	
7715	0	19780	
7716	0	19472	
7717	0	19414	
7718	0	19598	
7719	0	19908	
7720	0	20082	
7721	0	20200	
7722	0	20374	
7723	0	20720	
7724	0	21152	
7725	0	21576	
7726	0	21992	
7727	0	22336	
7728	0	22685	
7729	0	23034	
7730	0	23520	
7731	0	24148	
7732	0	24858	
7733	0	25572	
7734	0	26220	
7735	0	26788	
7736	0	27296	
7737	0	27712	
7738	0	28068	
7739	0	28392	
7740	0	28664	
7741	0	28844	
7742	0	28988	
7743	0	29152	
7744	0	29236	
7745	0	29254	
7746	0	29272	
7747	0	29276	
7748	0	29304	
7749	0	29368	
7750	0	29448	
7751	0	29536	
7752	0	29604	
7753	0	29668	
7754	0	29772	
7755	0	29868	
7756	0	29928	
7757	0	29952	
7758	0	29950	
7759	0	30020	
7760	0	30116	
7761	0	30134	
7762	0	30176	
7763	0	30194	
7764	0	30244	
7765	0	30328	
7766	0	30432	
7767	0	30560	
7768	0	30656	
7769	0	30708	
7770	0	30716	
7771	0	30740	
7772	0	30748	
7773	0	30768	
7774	0	30808	
7775	0	30876	
7776	0	30932	
7777	0	30968	
7778	0	31004	
7779	0	31028	
7780	0	31064	
7781	0	31096	
7782	0	31132	
7783	0	31156	
7784	0	31216	
7785	0	31312	
7786	0	31394	
7787	0	31484	
7788	0	31544	
7789	0	31532	
7790	0	31556	
7791	0	31620	
7792	0	31656	
7793	0	31696	
7794	0	31808	
7795	0	31800	
7796	0	31732	
7797	0	31678	
7798	0	31656	
7799	0	31712	
7800	0	31816	
7801	0	31956	
7802	0	32008	
7803	0	32004	
7804	0	32030	
7805	0	32096	
7806	0	32188	
7807	0	32172	
7808	0	32100	
7809	0	32040	
7810	0	32076	
7811	0	32152	
7812	0	32208	
7813	0	32248	
7814	0	32296	
7815	0	32336	
7816	0	32408	
7817	0	32440	
7818	0	32448	
7819	0	32440	
7820	0	32456	
7821	0	32448	
7822	0	32434	
7823	0	32468	
7824	0	32544	
7825	0	32628	
7826	0	32696	
7827	0	32706	
7828	0	32730	
7829	0	32756	
7830	0	32816	
7831	0	32884	
7832	0	32848	
7833	0	32804	
7834	0	32812	
7835	0	32812	
7836	0	32776	
7837	0	32752	
7838	0	32756	
7839	0	32832	
7840	0	32856	
7841	0	32856	
7842	0	32844	
7843	0	32788	
7844	0	32776	
7845	0	32824	
7846	0	32940	
7847	0	33020	
7848	0	32976	
7849	0	32844	
7850	0	32768	
7851	0	32772	
7852	0	32802	
7853	0	32808	
7854	0	32846	
7855	0	32872	
7856	0	32884	
7857	0	32896	
7858	0	32888	
7859	0	32874	
7860	0	32864	
7861	0	32876	
7862	0	32908	
7863	0	32936	
7864	0	32908	
7865	0	32888	
7866	0	32868	
7867	0	32792	
7868	0	32768	
7869	0	32776	
7870	0	32868	
7871	0	32996	
7872	0	32992	
7873	0	32924	
7874	0	32888	
7875	0	32884	
7876	0	32848	
7877	0	32880	
7878	0	32926	
7879	0	33024	
7880	0	33044	
7881	0	32970	
7882	0	32944	
7883	0	32892	
7884	0	32796	
7885	0	32720	
7886	0	32775	
7887	0	32820	
7888	0	32856	
7889	0	32916	
7890	0	32932	
7891	0	32912	
7892	0	32876	
7893	0	32924	
7894	0	32962	
7895	0	32848	
7896	0	32708	
7897	0	32680	
7898	0	32656	
7899	0	32672	
7900	0	32736	
7901	0	32746	
7902	0	32732	
7903	0	32760	
7904	0	32804	
7905	0	32845	
7906	0	32888	
7907	0	32924	
7908	0	32968	
7909	0	32960	
7910	0	32880	
7911	0	32844	
7912	0	32908	
7913	0	33004	
7914	0	33080	
7915	0	33120	
7916	0	33140	
7917	0	33130	
7918	0	33072	
7919	0	32980	
7920	0	32924	
7921	0	32932	
7922	0	32954	
7923	0	32928	
7924	0	32972	
7925	0	33104	
7926	0	33164	
7927	0	33168	
7928	0	33192	
7929	0	33280	
7930	0	33392	
7931	0	33544	
7932	0	33604	
7933	0	33586	
7934	0	33600	
7935	0	33536	
7936	0	33440	
7937	0	33308	
7938	0	33224	
7939	0	33154	
7940	0	33072	
7941	0	33032	
7942	0	33024	
7943	0	33080	
7944	0	33164	
7945	0	33088	
7946	0	33068	
7947	0	33088	
7948	0	33080	
7949	0	32996	
7950	0	32904	
7951	0	32826	
7952	0	32832	
7953	0	32864	
7954	0	32912	
7955	0	32948	
7956	0	32944	
7957	0	32874	
7958	0	32756	
7959	0	32608	
7960	0	32560	
7961	0	32492	
7962	0	32440	
7963	0	32456	
7964	0	32464	
7965	0	32434	
7966	0	32340	
7967	0	32288	
7968	0	32316	
7969	0	32344	
7970	0	32316	
7971	0	32264	
7972	0	32170	
7973	0	32096	
7974	0	32104	
7975	0	32164	
7976	0	32256	
7977	0	32316	
7978	0	32316	
7979	0	32336	
7980	0	32440	
7981	0	32522	
7982	0	32516	
7983	0	32480	
7984	0	32468	
7985	0	32404	
7986	0	32304	
7987	0	32172	
7988	0	32076	
7989	0	32090	
7990	0	32116	
7991	0	32092	
7992	0	32056	
7993	0	32088	
7994	0	32216	
7995	0	32304	
7996	0	32320	
7997	0	32324	
7998	0	32372	
7999	0	32456	
8000	0	32528	
8001	0	32500	
8002	0	32456	
8003	0	32464	
8004	0	32476	
8005	0	32456	
8006	0	32442	
8007	0	32460	
8008	0	32484	
8009	0	32440	
8010	0	32468	
8011	0	32472	
8012	0	32340	
8013	0	32212	
8014	0	32124	
8015	0	32108	
8016	0	32124	
8017	0	32204	
8018	0	32268	
8019	0	32246	
8020	0	32312	
8021	0	32436	
8022	0	32476	
8023	0	32472	
8024	0	32508	
8025	0	32520	
8026	0	32544	
8027	0	32612	
8028	0	32632	
8029	0	32576	
8030	0	32460	
8031	0	32364	
8032	0	32224	
8033	0	32076	
8034	0	32064	
8035	0	32116	
8036	0	32104	
8037	0	32008	
8038	0	32016	
8039	0	32108	
8040	0	32212	
8041	0	32290	
8042	0	32322	
8043	0	32392	
8044	0	32488	
8045	0	32576	
8046	0	32640	
8047	0	32624	
8048	0	32640	
8049	0	32672	
8050	0	32612	
8051	0	32576	
8052	0	32568	
8053	0	32624	
8054	0	32768	
8055	0	32860	
8056	0	32844	
8057	0	32856	
8058	0	32800	
8059	0	32752	
8060	0	32696	
8061	0	32720	
8062	0	32816	
8063	0	32948	
8064	0	33028	
8065	0	33032	
8066	0	33052	
8067	0	33068	
8068	0	33108	
8069	0	33228	
8070	0	33320	
8071	0	33216	
8072	0	33048	
8073	0	32982	
8074	0	33000	
8075	0	33066	
8076	0	33104	
8077	0	33138	
8078	0	33220	
8079	0	33340	
8080	0	33428	
8081	0	33480	
8082	0	33488	
8083	0	33412	
8084	0	33244	
8085	0	33224	
8086	0	33300	
8087	0	33380	
8088	0	33480	
8089	0	33576	
8090	0	33656	
8091	0	33704	
8092	0	33736	
8093	0	33648	
8094	0	33552	
8095	0	33540	
8096	0	33524	
8097	0	33524	
8098	0	33556	
8099	0	33744	
8100	0	33808	
8101	0	33736	
8102	0	33696	
8103	0	33740	
8104	0	33764	
8105	0	33672	
8106	0	33552	
8107	0	33516	
8108	0	33488	
8109	0	33492	
8110	0	33540	
8111	0	33688	
8112	0	33856	
8113	0	33848	
8114	0	33736	
8115	0	33608	
8116	0	33532	
8117	0	33506	
8118	0	33596	
8119	0	33720	
8120	0	33772	
8121	0	33784	
8122	0	33760	
8123	0	33814	
8124	0	33886	
8125	0	33852	
8126	0	33748	
8127	0	33644	
8128	0	33706	
8129	0	33704	
8130	0	33501	
8131	0	33464	
8132	0	33580	
8133	0	33676	
8134	0	33792	
8135	0	33932	
8136	0	34028	
8137	0	34000	
8138	0	33888	
8139	0	33848	
8140	0	33884	
8141	0	33992	
8142	0	34016	
8143	0	34004	
8144	0	33980	
8145	0	33988	
8146	0	34048	
8147	0	34120	
8148	0	34156	
8149	0	34250	
8150	0	34392	
8151	0	34478	
8152	0	34544	
8153	0	34660	
8154	0	34748	
8155	0	34828	
8156	0	34864	
8157	0	34848	
8158	0	34832	
8159	0	34740	
8160	0	34544	
8161	0	34466	
8162	0	34584	
8163	0	34704	
8164	0	34760	
8165	0	34884	
8166	0	35064	
8167	0	35276	
8168	0	35402	
8169	0	35460	
8170	0	35612	
8171	0	35820	
8172	0	36072	
8173	0	36152	
8174	0	36220	
8175	0	36288	
8176	0	36388	
8177	0	36536	
8178	0	36624	
8179	0	36704	
8180	0	36532	
8181	0	36336	
8182	0	36324	
8183	0	36484	
8184	0	36622	
8185	0	36736	
8186	0	36832	
8187	0	36856	
8188	0	36708	
8189	0	36616	
8190	0	36676	
8191	0	36580	
8192	0	36416	
8193	0	36320	
8194	0	36360	
8195	0	36448	
8196	0	36536	
8197	0	36538	
8198	0	36392	
8199	0	36148	
8200	0	35788	
8201	0	35478	
8202	0	35248	
8203	0	34960	
8204	0	34632	
8205	0	34180	
8206	0	33688	
8207	0	33216	
8208	0	32794	
8209	0	32476	
8210	0	32296	
8211	0	32156	
8212	0	32100	
8213	0	32108	
8214	0	32036	
8215	0	31924	
8216	0	31912	
8217	0	31880	
8218	0	31753	
8219	0	31608	
8220	0	31640	
8221	0	31724	
8222	0	31916	
8223	0	31908	
8224	0	31684	
8225	0	31452	
8226	0	31128	
8227	0	30804	
8228	0	30496	
8229	0	30320	
8230	0	30420	
8231	0	30480	
8232	0	30532	
8233	0	30556	
8234	0	30580	
8235	0	30676	
8236	0	30740	
8237	0	30700	
8238	0	30712	
8239	0	30660	
8240	0	30580	
8241	0	30640	
8242	0	30736	
8243	0	30624	
8244	0	30578	
8245	0	30596	
8246	0	30736	
8247	0	30844	
8248	0	30816	
8249	0	30656	
8250	0	30528	
8251	0	30596	
8252	0	30664	
8253	0	30712	
8254	0	30808	
8255	0	30892	
8256	0	30984	
8257	0	30968	
8258	0	30926	
8259	0	30984	
8260	0	31028	
8261	0	31174	
8262	0	31200	
8263	0	30844	
8264	0	30228	
8265	0	29528	
8266	0	28608	
8267	0	27614	
8268	0	26828	
8269	0	26196	
8270	0	25592	
8271	0	25018	
8272	0	24776	
8273	0	24752	
8274	0	24364	
8275	0	23918	
8276	0	23820	
8277	0	24098	
8278	0	24500	
8279	0	24936	
8280	0	25680	
8281	0	26968	
8282	0	28716	
8283	0	30916	
8284	0	33472	
8285	0	36392	
8286	0	39288	
8287	0	42168	
8288	0	45528	
8289	0	49220	
8290	0	52984	
8291	0	56784	
8292	0	60296	
8293	0	62432	
8294	0	63576	
8295	0	64144	
8296	0	64372	
8297	0	64448	
8298	0	64444	
8299	0	64356	
8300	0	64284	
8301	0	64160	
8302	0	61532	
8303	0	53796	
8304	0	47480	
8305	0	42368	
8306	0	37824	
8307	0	33664	
8308	0	30552	
8309	0	28640	
8310	0	27362	
8311	0	26060	
8312	0	24696	
8313	0	23148	
8314	0	21360	
8315	0	19840	
8316	0	18694	
8317	0	17832	
8318	0	17460	
8319	0	17332	
8320	0	17073	
8321	0	16830	
8322	0	16870	
8323	0	17149	
8324	0	17720	
8325	0	18308	
8326	0	18640	
8327	0	18912	
8328	0	19378	
8329	0	19712	
8330	0	20096	
8331	0	20560	
8332	0	21218	
8333	0	21882	
8334	0	22368	
8335	0	22688	
8336	0	23041	
8337	0	23584	
8338	0	24144	
8339	0	24640	
8340	0	25216	
8341	0	25804	
8342	0	26582	
8343	0	27452	
8344	0	28352	
8345	0	29292	
8346	0	30002	
8347	0	30492	
8348	0	30672	
8349	0	30746	
8350	0	30888	
8351	0	31060	
8352	0	31092	
8353	0	31000	
8354	0	30776	
8355	0	30644	
8356	0	30560	
8357	0	30400	
8358	0	30112	
8359	0	29972	
8360	0	30154	
8361	0	30380	
8362	0	30588	
8363	0	30984	
8364	0	31396	
8365	0	31656	
8366	0	31838	
8367	0	31844	
8368	0	32036	
8369	0	32400	
8370	0	32688	
8371	0	33032	
8372	0	33256	
8373	0	33134	
8374	0	32652	
8375	0	32194	
8376	0	31894	
8377	0	31584	
8378	0	31492	
8379	0	31426	
8380	0	31316	
8381	0	31308	
8382	0	31304	
8383	0	31548	
8384	0	32100	
8385	0	32768	
8386	0	33200	
8387	0	33258	
8388	0	33128	
8389	0	32888	
8390	0	32796	
8391	0	32920	
8392	0	33024	
8393	0	33064	
8394	0	33044	
8395	0	32864	
8396	0	32596	
8397	0	32700	
8398	0	33064	
8399	0	33520	
8400	0	33800	
8401	0	33784	
8402	0	33704	
8403	0	33578	
8404	0	33400	
8405	0	33204	
8406	0	33180	
8407	0	32992	
8408	0	32764	
8409	0	32868	
8410	0	33072	
8411	0	33252	
8412	0	33492	
8413	0	33472	
8414	0	33316	
8415	0	33322	
8416	0	33312	
8417	0	33216	
8418	0	33128	
8419	0	33088	
8420	0	32976	
8421	0	32648	
8422	0	32344	
8423	0	32284	
8424	0	32652	
8425	0	33292	
8426	0	33712	
8427	0	33924	
8428	0	34128	
8429	0	34320	
8430	0	34416	
8431	0	34240	
8432	0	34068	
8433	0	34072	
8434	0	34048	
8435	0	33996	
8436	0	34016	
8437	0	33808	
8438	0	33568	
8439	0	33396	
8440	0	33260	
8441	0	33240	
8442	0	33396	
8443	0	33506	
8444	0	33832	
8445	0	34044	
8446	0	34204	
8447	0	34356	
8448	0	34256	
8449	0	34080	
8450	0	33968	
8451	0	33768	
8452	0	33698	
8453	0	33756	
8454	0	33788	
8455	0	33692	
8456	0	33460	
8457	0	33040	
8458	0	32724	
8459	0	32732	
8460	0	32784	
8461	0	32940	
8462	0	33232	
8463	0	33452	
8464	0	33640	
8465	0	33736	
8466	0	33864	
8467	0	34116	
8468	0	34332	
8469	0	34564	
8470	0	34760	
8471	0	34618	
8472	0	34356	
8473	0	34168	
8474	0	33864	
8475	0	33568	
8476	0	33368	
8477	0	33340	
8478	0	33372	
8479	0	33420	
8480	0	33596	
8481	0	33684	
8482	0	33760	
8483	0	33744	
8484	0	33632	
8485	0	33604	
8486	0	33596	
8487	0	33798	
8488	0	34048	
8489	0	34328	
8490	0	34336	
8491	0	34188	
8492	0	33928	
8493	0	33568	
8494	0	33436	
8495	0	33584	
8496	0	33984	
8497	0	34152	
8498	0	34160	
8499	0	33956	
8500	0	33584	
8501	0	33696	
8502	0	34048	
8503	0	34244	
8504	0	34328	
8505	0	34280	
8506	0	34264	
8507	0	34368	
8508	0	34480	
8509	0	34472	
8510	0	34372	
8511	0	34364	
8512	0	34536	
8513	0	34288	
8514	0	33968	
8515	0	34020	
8516	0	34088	
8517	0	33928	
8518	0	33752	
8519	0	33372	
8520	0	32892	
8521	0	32696	
8522	0	32900	
8523	0	33136	
8524	0	33424	
8525	0	33780	
8526	0	33976	
8527	0	34136	
8528	0	34356	
8529	0	34608	
8530	0	34892	
8531	0	35136	
8532	0	35112	
8533	0	34716	
8534	0	34104	
8535	0	33700	
8536	0	33736	
8537	0	34100	
8538	0	34144	
8539	0	34008	
8540	0	33840	
8541	0	33484	
8542	0	33076	
8543	0	32788	
8544	0	32800	
8545	0	32964	
8546	0	32800	
8547	0	32488	
8548	0	32392	
8549	0	32540	
8550	0	32828	
8551	0	33060	
8552	0	33296	
8553	0	33676	
8554	0	33984	
8555	0	34052	
8556	0	33584	
8557	0	32960	
8558	0	32568	
8559	0	32292	
8560	0	32112	
8561	0	32476	
8562	0	33048	
8563	0	33128	
8564	0	33138	
8565	0	33144	
8566	0	32788	
8567	0	31884	
8568	0	31204	
8569	0	31048	
8570	0	31264	
8571	0	31754	
8572	0	31956	
8573	0	32088	
8574	0	31980	
8575	0	31920	
8576	0	31936	
8577	0	31878	
8578	0	31732	
8579	0	31524	
8580	0	31872	
8581	0	32484	
8582	0	32768	
8583	0	32740	
8584	0	32660	
8585	0	32724	
8586	0	32604	
8587	0	32156	
8588	0	31664	
8589	0	31516	
8590	0	31772	
8591	0	32436	
