# OpenSignals Text File Format. Version 1
# {"00:07:80:4B:15:F7": {"position": 0, "device": "biosignalsplux", "device name": "00:07:80:4B:15:F7", "device connection": "BTH00:07:80:4B:15:F7", "sampling rate": 1000, "resolution": [16], "firmware version": 775, "comments": "", "keywords": "", "mode": 0, "sync interval": 2, "date": "2023-4-27", "time": "16:47:11.557", "channels": [1], "sensor": ["ECG"], "label": ["CH1"], "column": ["nSeq", "DI", "CH1"], "special": [{"SpO2": [80, 40, 5, 4, 3, 3]}, {"SpO2": [80, 40, 5, 4, 3, 3]}, {"SpO2": [80, 40, 5, 4, 3, 3]}, {"SpO2": [80, 40, 5, 4, 3, 3]}, {"SpO2": [80, 40, 5, 4, 3, 3]}, {"SpO2": [80, 40, 5, 4, 3, 3]}, {"SpO2": [80, 40, 5, 4, 3, 3]}, {"SpO2": [80, 40, 5, 4, 3, 3]}], "digital IO": [0, 1], "sleeve color": ["green"], "convertedValues": 0}}
# EndOfHeader
0	0	31488	
1	0	31524	
2	0	31560	
3	0	31606	
4	0	31636	
5	0	31692	
6	0	31712	
7	0	31758	
8	0	31764	
9	0	31736	
10	0	31712	
11	0	31692	
12	0	31696	
13	0	31688	
14	0	31692	
15	0	31708	
16	0	31712	
17	0	31708	
18	0	31692	
19	0	31648	
20	0	31650	
21	0	31660	
22	0	31708	
23	0	31776	
24	0	31800	
25	0	31820	
26	0	31840	
27	0	31876	
28	0	31886	
29	0	31884	
30	0	31872	
31	0	31900	
32	0	31944	
33	0	31994	
34	0	32036	
35	0	32064	
36	0	32080	
37	0	32068	
38	0	32040	
39	0	32006	
40	0	31988	
41	0	31968	
42	0	31980	
43	0	32032	
44	0	32076	
45	0	32120	
46	0	32128	
47	0	32096	
48	0	32064	
49	0	32056	
50	0	32084	
51	0	32096	
52	0	32048	
53	0	32000	
54	0	31988	
55	0	32032	
56	0	32058	
57	0	32020	
58	0	31992	
59	0	31956	
60	0	31916	
61	0	31908	
62	0	31924	
63	0	31996	
64	0	32092	
65	0	32216	
66	0	32320	
67	0	32360	
68	0	32368	
69	0	32360	
70	0	32360	
71	0	32380	
72	0	32416	
73	0	32464	
74	0	32452	
75	0	32428	
76	0	32408	
77	0	32388	
78	0	32346	
79	0	32356	
80	0	32360	
81	0	32420	
82	0	32416	
83	0	32420	
84	0	32396	
85	0	32380	
86	0	32360	
87	0	32396	
88	0	32452	
89	0	32512	
90	0	32564	
91	0	32576	
92	0	32588	
93	0	32570	
94	0	32588	
95	0	32608	
96	0	32624	
97	0	32644	
98	0	32640	
99	0	32648	
100	0	32648	
101	0	32654	
102	0	32632	
103	0	32600	
104	0	32568	
105	0	32540	
106	0	32472	
107	0	32468	
108	0	32512	
109	0	32556	
110	0	32604	
111	0	32652	
112	0	32672	
113	0	32724	
114	0	32736	
115	0	32712	
116	0	32692	
117	0	32714	
118	0	32724	
119	0	32704	
120	0	32712	
121	0	32720	
122	0	32752	
123	0	32780	
124	0	32816	
125	0	32848	
126	0	32840	
127	0	32832	
128	0	32818	
129	0	32820	
130	0	32816	
131	0	32800	
132	0	32840	
133	0	32888	
134	0	32948	
135	0	32972	
136	0	32960	
137	0	32972	
138	0	33024	
139	0	33024	
140	0	33012	
141	0	32960	
142	0	32922	
143	0	32918	
144	0	32932	
145	0	32960	
146	0	33000	
147	0	33024	
148	0	33040	
149	0	33052	
150	0	33064	
151	0	33052	
152	0	33028	
153	0	33016	
154	0	33064	
155	0	33128	
156	0	33152	
157	0	33160	
158	0	33168	
159	0	33156	
160	0	33096	
161	0	33056	
162	0	33068	
163	0	33082	
164	0	33072	
165	0	33080	
166	0	33092	
167	0	33120	
168	0	33152	
169	0	33156	
170	0	33176	
171	0	33208	
172	0	33220	
173	0	33220	
174	0	33192	
175	0	33184	
176	0	33184	
177	0	33148	
178	0	33116	
179	0	33088	
180	0	33052	
181	0	33040	
182	0	33040	
183	0	33036	
184	0	33008	
185	0	33000	
186	0	33042	
187	0	33148	
188	0	33266	
189	0	33316	
190	0	33316	
191	0	33332	
192	0	33384	
193	0	33392	
194	0	33354	
195	0	33360	
196	0	33374	
197	0	33402	
198	0	33408	
199	0	33458	
200	0	33548	
201	0	33644	
202	0	33748	
203	0	33896	
204	0	33984	
205	0	34068	
206	0	34078	
207	0	34060	
208	0	34012	
209	0	33992	
210	0	33964	
211	0	33900	
212	0	33852	
213	0	33856	
214	0	33892	
215	0	33956	
216	0	34072	
217	0	34228	
218	0	34416	
219	0	34632	
220	0	34856	
221	0	35100	
222	0	35268	
223	0	35312	
224	0	35296	
225	0	35240	
226	0	35152	
227	0	35136	
228	0	35164	
229	0	35200	
230	0	35220	
231	0	35196	
232	0	35172	
233	0	35180	
234	0	35128	
235	0	35042	
236	0	35016	
237	0	35070	
238	0	35180	
239	0	35276	
240	0	35400	
241	0	35500	
242	0	35504	
243	0	35452	
244	0	35440	
245	0	35472	
246	0	35512	
247	0	35512	
248	0	35454	
249	0	35360	
250	0	35244	
251	0	35092	
252	0	34952	
253	0	34808	
254	0	34660	
255	0	34520	
256	0	34388	
257	0	34272	
258	0	34188	
259	0	34072	
260	0	33964	
261	0	33844	
262	0	33632	
263	0	33322	
264	0	33032	
265	0	32800	
266	0	32620	
267	0	32496	
268	0	32416	
269	0	32372	
270	0	32372	
271	0	32372	
272	0	32376	
273	0	32392	
274	0	32404	
275	0	32404	
276	0	32412	
277	0	32404	
278	0	32384	
279	0	32364	
280	0	32348	
281	0	32312	
282	0	32312	
283	0	32304	
284	0	32286	
285	0	32288	
286	0	32324	
287	0	32348	
288	0	32416	
289	0	32472	
290	0	32526	
291	0	32556	
292	0	32556	
293	0	32560	
294	0	32564	
295	0	32564	
296	0	32596	
297	0	32640	
298	0	32716	
299	0	32780	
300	0	32832	
301	0	32852	
302	0	32864	
303	0	32908	
304	0	32964	
305	0	32984	
306	0	32992	
307	0	32992	
308	0	32992	
309	0	33020	
310	0	33024	
311	0	33040	
312	0	33068	
313	0	33088	
314	0	33090	
315	0	33120	
316	0	33114	
317	0	33084	
318	0	33060	
319	0	33050	
320	0	33072	
321	0	33076	
322	0	33112	
323	0	33136	
324	0	33160	
325	0	33192	
326	0	33200	
327	0	33188	
328	0	33160	
329	0	33152	
330	0	33140	
331	0	33168	
332	0	33208	
333	0	33178	
334	0	33144	
335	0	33056	
336	0	32932	
337	0	32748	
338	0	32496	
339	0	32160	
340	0	31684	
341	0	31088	
342	0	30456	
343	0	29908	
344	0	29532	
345	0	29296	
346	0	29306	
347	0	29528	
348	0	29836	
349	0	30336	
350	0	30904	
351	0	31588	
352	0	32488	
353	0	33594	
354	0	34836	
355	0	36240	
356	0	37892	
357	0	39884	
358	0	42124	
359	0	44520	
360	0	47128	
361	0	49996	
362	0	52952	
363	0	56064	
364	0	59436	
365	0	62496	
366	0	64216	
367	0	65096	
368	0	65535	
369	0	65535	
370	0	65535	
371	0	65535	
372	0	65535	
373	0	65535	
374	0	65476	
375	0	65348	
376	0	65244	
377	0	65120	
378	0	64976	
379	0	64868	
380	0	64728	
381	0	63232	
382	0	56160	
383	0	49664	
384	0	43996	
385	0	38928	
386	0	34712	
387	0	31361	
388	0	28808	
389	0	27064	
390	0	26004	
391	0	25384	
392	0	24956	
393	0	24608	
394	0	24312	
395	0	24052	
396	0	23824	
397	0	23572	
398	0	23388	
399	0	23304	
400	0	23296	
401	0	23305	
402	0	23408	
403	0	23650	
404	0	23992	
405	0	24440	
406	0	24976	
407	0	25668	
408	0	26352	
409	0	26948	
410	0	27480	
411	0	27928	
412	0	28268	
413	0	28548	
414	0	28788	
415	0	29004	
416	0	29240	
417	0	29432	
418	0	29584	
419	0	29724	
420	0	29828	
421	0	29888	
422	0	29932	
423	0	29984	
424	0	29960	
425	0	29890	
426	0	29920	
427	0	29988	
428	0	30028	
429	0	30044	
430	0	30028	
431	0	30048	
432	0	30076	
433	0	30136	
434	0	30196	
435	0	30236	
436	0	30268	
437	0	30272	
438	0	30288	
439	0	30344	
440	0	30388	
441	0	30420	
442	0	30444	
443	0	30476	
444	0	30478	
445	0	30504	
446	0	30552	
447	0	30608	
448	0	30652	
449	0	30740	
450	0	30860	
451	0	30964	
452	0	31080	
453	0	31180	
454	0	31196	
455	0	31204	
456	0	31280	
457	0	31364	
458	0	31424	
459	0	31452	
460	0	31444	
461	0	31476	
462	0	31492	
463	0	31536	
464	0	31580	
465	0	31604	
466	0	31644	
467	0	31700	
468	0	31724	
469	0	31784	
470	0	31850	
471	0	31870	
472	0	31904	
473	0	31988	
474	0	32040	
475	0	32072	
476	0	32092	
477	0	32110	
478	0	32144	
479	0	32208	
480	0	32264	
481	0	32316	
482	0	32388	
483	0	32448	
484	0	32480	
485	0	32494	
486	0	32524	
487	0	32556	
488	0	32588	
489	0	32636	
490	0	32660	
491	0	32692	
492	0	32748	
493	0	32812	
494	0	32848	
495	0	32864	
496	0	32920	
497	0	32970	
498	0	33036	
499	0	33092	
500	0	33164	
501	0	33208	
502	0	33224	
503	0	33242	
504	0	33312	
505	0	33376	
506	0	33484	
507	0	33540	
508	0	33556	
509	0	33564	
510	0	33608	
511	0	33676	
512	0	33704	
513	0	33732	
514	0	33800	
515	0	33832	
516	0	33842	
517	0	33836	
518	0	33848	
519	0	33892	
520	0	33916	
521	0	33956	
522	0	33996	
523	0	34048	
524	0	34112	
525	0	34153	
526	0	34196	
527	0	34240	
528	0	34312	
529	0	34388	
530	0	34460	
531	0	34504	
532	0	34512	
533	0	34528	
534	0	34532	
535	0	34548	
536	0	34580	
537	0	34592	
538	0	34632	
539	0	34672	
540	0	34740	
541	0	34784	
542	0	34860	
543	0	34960	
544	0	35056	
545	0	35144	
546	0	35232	
547	0	35360	
548	0	35448	
549	0	35496	
550	0	35528	
551	0	35566	
552	0	35596	
553	0	35656	
554	0	35716	
555	0	35776	
556	0	35846	
557	0	35896	
558	0	35968	
559	0	36016	
560	0	36036	
561	0	36064	
562	0	36104	
563	0	36160	
564	0	36216	
565	0	36268	
566	0	36320	
567	0	36380	
568	0	36456	
569	0	36536	
570	0	36642	
571	0	36728	
572	0	36800	
573	0	36932	
574	0	37048	
575	0	37184	
576	0	37280	
577	0	37384	
578	0	37468	
579	0	37572	
580	0	37684	
581	0	37800	
582	0	37880	
583	0	38000	
584	0	38124	
585	0	38208	
586	0	38300	
587	0	38380	
588	0	38484	
589	0	38564	
590	0	38648	
591	0	38764	
592	0	38898	
593	0	39036	
594	0	39172	
595	0	39280	
596	0	39376	
597	0	39440	
598	0	39540	
599	0	39664	
600	0	39796	
601	0	39932	
602	0	40060	
603	0	40192	
604	0	40308	
605	0	40408	
606	0	40496	
607	0	40552	
608	0	40616	
609	0	40712	
610	0	40800	
611	0	40884	
612	0	40968	
613	0	41004	
614	0	41048	
615	0	41100	
616	0	41124	
617	0	41196	
618	0	41248	
619	0	41280	
620	0	41336	
621	0	41384	
622	0	41408	
623	0	41460	
624	0	41472	
625	0	41500	
626	0	41520	
627	0	41528	
628	0	41540	
629	0	41548	
630	0	41548	
631	0	41548	
632	0	41524	
633	0	41520	
634	0	41492	
635	0	41444	
636	0	41404	
637	0	41344	
638	0	41328	
639	0	41296	
640	0	41276	
641	0	41232	
642	0	41168	
643	0	41076	
644	0	40980	
645	0	40900	
646	0	40800	
647	0	40660	
648	0	40512	
649	0	40416	
650	0	40328	
651	0	40188	
652	0	40008	
653	0	39808	
654	0	39596	
655	0	39376	
656	0	39132	
657	0	38884	
658	0	38632	
659	0	38340	
660	0	38088	
661	0	37856	
662	0	37628	
663	0	37400	
664	0	37208	
665	0	36992	
666	0	36756	
667	0	36496	
668	0	36186	
669	0	35904	
670	0	35628	
671	0	35372	
672	0	35088	
673	0	34808	
674	0	34572	
675	0	34292	
676	0	34000	
677	0	33708	
678	0	33404	
679	0	33122	
680	0	32856	
681	0	32604	
682	0	32340	
683	0	32088	
684	0	31872	
685	0	31636	
686	0	31400	
687	0	31176	
688	0	30952	
689	0	30710	
690	0	30480	
691	0	30276	
692	0	30064	
693	0	29888	
694	0	29688	
695	0	29500	
696	0	29312	
697	0	29146	
698	0	28964	
699	0	28792	
700	0	28596	
701	0	28410	
702	0	28240	
703	0	28084	
704	0	27964	
705	0	27844	
706	0	27760	
707	0	27696	
708	0	27592	
709	0	27480	
710	0	27380	
711	0	27276	
712	0	27196	
713	0	27096	
714	0	27008	
715	0	26938	
716	0	26876	
717	0	26836	
718	0	26792	
719	0	26734	
720	0	26704	
721	0	26676	
722	0	26672	
723	0	26628	
724	0	26608	
725	0	26620	
726	0	26624	
727	0	26598	
728	0	26576	
729	0	26574	
730	0	26592	
731	0	26596	
732	0	26598	
733	0	26616	
734	0	26636	
735	0	26650	
736	0	26688	
737	0	26716	
738	0	26740	
739	0	26722	
740	0	26701	
741	0	26696	
742	0	26720	
743	0	26768	
744	0	26808	
745	0	26826	
746	0	26832	
747	0	26832	
748	0	26846	
749	0	26864	
750	0	26944	
751	0	26994	
752	0	27036	
753	0	27040	
754	0	27108	
755	0	27196	
756	0	27272	
757	0	27344	
758	0	27376	
759	0	27404	
760	0	27428	
761	0	27464	
762	0	27508	
763	0	27572	
764	0	27638	
765	0	27682	
766	0	27756	
767	0	27848	
768	0	27914	
769	0	27964	
770	0	28012	
771	0	28056	
772	0	28108	
773	0	28168	
774	0	28224	
775	0	28280	
776	0	28308	
777	0	28368	
778	0	28408	
779	0	28456	
780	0	28504	
781	0	28528	
782	0	28564	
783	0	28612	
784	0	28612	
785	0	28654	
786	0	28720	
787	0	28780	
788	0	28840	
789	0	28892	
790	0	28944	
791	0	29016	
792	0	29112	
793	0	29208	
794	0	29290	
795	0	29344	
796	0	29372	
797	0	29400	
798	0	29440	
799	0	29456	
800	0	29528	
801	0	29612	
802	0	29688	
803	0	29740	
804	0	29764	
805	0	29780	
806	0	29826	
807	0	29868	
808	0	29868	
809	0	29896	
810	0	29954	
811	0	29984	
812	0	29992	
813	0	30028	
814	0	30080	
815	0	30096	
816	0	30090	
817	0	30100	
818	0	30128	
819	0	30164	
820	0	30236	
821	0	30312	
822	0	30384	
823	0	30424	
824	0	30492	
825	0	30542	
826	0	30588	
827	0	30624	
828	0	30636	
829	0	30618	
830	0	30604	
831	0	30600	
832	0	30588	
833	0	30592	
834	0	30612	
835	0	30620	
836	0	30612	
837	0	30608	
838	0	30624	
839	0	30640	
840	0	30672	
841	0	30688	
842	0	30704	
843	0	30696	
844	0	30700	
845	0	30728	
846	0	30754	
847	0	30796	
848	0	30812	
849	0	30832	
850	0	30860	
851	0	30848	
852	0	30840	
853	0	30836	
854	0	30844	
855	0	30852	
856	0	30848	
857	0	30858	
858	0	30862	
859	0	30860	
860	0	30872	
861	0	30876	
862	0	30848	
863	0	30824	
864	0	30824	
865	0	30848	
866	0	30868	
867	0	30884	
868	0	30896	
869	0	30916	
870	0	30936	
871	0	30936	
872	0	30928	
873	0	30912	
874	0	30924	
875	0	30932	
876	0	30940	
877	0	30928	
878	0	30936	
879	0	30952	
880	0	30948	
881	0	30988	
882	0	30984	
883	0	30988	
884	0	30994	
885	0	30992	
886	0	30956	
887	0	30958	
888	0	30992	
889	0	30996	
890	0	30968	
891	0	30960	
892	0	30956	
893	0	30956	
894	0	30970	
895	0	30984	
896	0	31008	
897	0	31004	
898	0	31000	
899	0	30996	
900	0	30988	
901	0	30980	
902	0	30986	
903	0	31000	
904	0	31002	
905	0	31020	
906	0	31048	
907	0	31072	
908	0	31128	
909	0	31140	
910	0	31152	
911	0	31156	
912	0	31176	
913	0	31184	
914	0	31196	
915	0	31168	
916	0	31144	
917	0	31154	
918	0	31184	
919	0	31226	
920	0	31254	
921	0	31280	
922	0	31306	
923	0	31336	
924	0	31328	
925	0	31316	
926	0	31328	
927	0	31320	
928	0	31328	
929	0	31340	
930	0	31330	
931	0	31338	
932	0	31364	
933	0	31380	
934	0	31376	
935	0	31364	
936	0	31336	
937	0	31328	
938	0	31340	
939	0	31356	
940	0	31352	
941	0	31328	
942	0	31344	
943	0	31364	
944	0	31386	
945	0	31424	
946	0	31460	
947	0	31472	
948	0	31476	
949	0	31500	
950	0	31536	
951	0	31552	
952	0	31556	
953	0	31534	
954	0	31556	
955	0	31572	
956	0	31580	
957	0	31564	
958	0	31560	
959	0	31570	
960	0	31556	
961	0	31540	
962	0	31552	
963	0	31560	
964	0	31616	
965	0	31668	
966	0	31728	
967	0	31792	
968	0	31804	
969	0	31808	
970	0	31812	
971	0	31864	
972	0	31886	
973	0	31876	
974	0	31868	
975	0	31894	
976	0	31924	
977	0	31904	
978	0	31880	
979	0	31852	
980	0	31864	
981	0	31832	
982	0	31834	
983	0	31856	
984	0	31856	
985	0	31860	
986	0	31874	
987	0	31908	
988	0	31916	
989	0	31936	
990	0	31932	
991	0	31904	
992	0	31936	
993	0	31984	
994	0	32028	
995	0	32064	
996	0	32076	
997	0	32100	
998	0	32100	
999	0	32084	
1000	0	32080	
1001	0	32100	
1002	0	32128	
1003	0	32152	
1004	0	32156	
1005	0	32164	
1006	0	32204	
1007	0	32240	
1008	0	32256	
1009	0	32248	
1010	0	32236	
1011	0	32192	
1012	0	32164	
1013	0	32206	
1014	0	32228	
1015	0	32244	
1016	0	32272	
1017	0	32274	
1018	0	32300	
1019	0	32300	
1020	0	32260	
1021	0	32240	
1022	0	32244	
1023	0	32272	
1024	0	32296	
1025	0	32300	
1026	0	32308	
1027	0	32316	
1028	0	32338	
1029	0	32344	
1030	0	32384	
1031	0	32426	
1032	0	32444	
1033	0	32448	
1034	0	32472	
1035	0	32504	
1036	0	32516	
1037	0	32508	
1038	0	32516	
1039	0	32492	
1040	0	32468	
1041	0	32480	
1042	0	32496	
1043	0	32540	
1044	0	32588	
1045	0	32610	
1046	0	32600	
1047	0	32636	
1048	0	32684	
1049	0	32712	
1050	0	32712	
1051	0	32712	
1052	0	32728	
1053	0	32736	
1054	0	32736	
1055	0	32712	
1056	0	32696	
1057	0	32676	
1058	0	32680	
1059	0	32692	
1060	0	32708	
1061	0	32720	
1062	0	32714	
1063	0	32716	
1064	0	32728	
1065	0	32744	
1066	0	32748	
1067	0	32716	
1068	0	32694	
1069	0	32708	
1070	0	32740	
1071	0	32736	
1072	0	32736	
1073	0	32744	
1074	0	32740	
1075	0	32736	
1076	0	32716	
1077	0	32736	
1078	0	32736	
1079	0	32772	
1080	0	32788	
1081	0	32760	
1082	0	32744	
1083	0	32760	
1084	0	32778	
1085	0	32816	
1086	0	32812	
1087	0	32816	
1088	0	32838	
1089	0	32840	
1090	0	32834	
1091	0	32882	
1092	0	32916	
1093	0	32948	
1094	0	32964	
1095	0	32952	
1096	0	32934	
1097	0	32912	
1098	0	32892	
1099	0	32884	
1100	0	32888	
1101	0	32880	
1102	0	32900	
1103	0	32932	
1104	0	32948	
1105	0	32940	
1106	0	32976	
1107	0	32988	
1108	0	32992	
1109	0	33004	
1110	0	33004	
1111	0	32992	
1112	0	32976	
1113	0	32964	
1114	0	32972	
1115	0	32988	
1116	0	33004	
1117	0	33016	
1118	0	33028	
1119	0	33032	
1120	0	33018	
1121	0	33004	
1122	0	32988	
1123	0	33004	
1124	0	33028	
1125	0	33038	
1126	0	33058	
1127	0	33110	
1128	0	33172	
1129	0	33188	
1130	0	33200	
1131	0	33228	
1132	0	33216	
1133	0	33192	
1134	0	33148	
1135	0	33132	
1136	0	33128	
1137	0	33144	
1138	0	33182	
1139	0	33176	
1140	0	33164	
1141	0	33176	
1142	0	33180	
1143	0	33188	
1144	0	33200	
1145	0	33224	
1146	0	33240	
1147	0	33248	
1148	0	33256	
1149	0	33288	
1150	0	33312	
1151	0	33312	
1152	0	33312	
1153	0	33276	
1154	0	33268	
1155	0	33280	
1156	0	33286	
1157	0	33304	
1158	0	33312	
1159	0	33316	
1160	0	33312	
1161	0	33312	
1162	0	33273	
1163	0	33260	
1164	0	33256	
1165	0	33272	
1166	0	33312	
1167	0	33360	
1168	0	33412	
1169	0	33440	
1170	0	33460	
1171	0	33532	
1172	0	33600	
1173	0	33608	
1174	0	33584	
1175	0	33556	
1176	0	33548	
1177	0	33540	
1178	0	33568	
1179	0	33680	
1180	0	33784	
1181	0	33920	
1182	0	34036	
1183	0	34148	
1184	0	34276	
1185	0	34358	
1186	0	34400	
1187	0	34400	
1188	0	34392	
1189	0	34384	
1190	0	34344	
1191	0	34272	
1192	0	34240	
1193	0	34272	
1194	0	34352	
1195	0	34448	
1196	0	34516	
1197	0	34604	
1198	0	34716	
1199	0	34892	
1200	0	35156	
1201	0	35332	
1202	0	35444	
1203	0	35464	
1204	0	35416	
1205	0	35320	
1206	0	35236	
1207	0	35184	
1208	0	35144	
1209	0	35156	
1210	0	35156	
1211	0	35112	
1212	0	35016	
1213	0	34900	
1214	0	34860	
1215	0	34912	
1216	0	34992	
1217	0	35060	
1218	0	35160	
1219	0	35248	
1220	0	35344	
1221	0	35340	
1222	0	35280	
1223	0	35268	
1224	0	35312	
1225	0	35320	
1226	0	35296	
1227	0	35288	
1228	0	35200	
1229	0	35096	
1230	0	34976	
1231	0	34848	
1232	0	34700	
1233	0	34536	
1234	0	34404	
1235	0	34314	
1236	0	34244	
1237	0	34176	
1238	0	34096	
1239	0	33952	
1240	0	33838	
1241	0	33696	
1242	0	33480	
1243	0	33208	
1244	0	32916	
1245	0	32644	
1246	0	32448	
1247	0	32324	
1248	0	32280	
1249	0	32222	
1250	0	32192	
1251	0	32156	
1252	0	32112	
1253	0	32092	
1254	0	32088	
1255	0	32062	
1256	0	32072	
1257	0	32080	
1258	0	32100	
1259	0	32124	
1260	0	32160	
1261	0	32208	
1262	0	32220	
1263	0	32244	
1264	0	32268	
1265	0	32316	
1266	0	32328	
1267	0	32372	
1268	0	32412	
1269	0	32432	
1270	0	32492	
1271	0	32524	
1272	0	32528	
1273	0	32512	
1274	0	32528	
1275	0	32536	
1276	0	32528	
1277	0	32500	
1278	0	32488	
1279	0	32508	
1280	0	32556	
1281	0	32572	
1282	0	32568	
1283	0	32564	
1284	0	32572	
1285	0	32580	
1286	0	32604	
1287	0	32624	
1288	0	32640	
1289	0	32664	
1290	0	32688	
1291	0	32682	
1292	0	32712	
1293	0	32740	
1294	0	32792	
1295	0	32836	
1296	0	32832	
1297	0	32824	
1298	0	32832	
1299	0	32834	
1300	0	32872	
1301	0	32916	
1302	0	32960	
1303	0	33008	
1304	0	33064	
1305	0	33096	
1306	0	33164	
1307	0	33216	
1308	0	33248	
1309	0	33260	
1310	0	33268	
1311	0	33240	
1312	0	33180	
1313	0	33108	
1314	0	33028	
1315	0	32940	
1316	0	32824	
1317	0	32636	
1318	0	32424	
1319	0	32100	
1320	0	31622	
1321	0	31032	
1322	0	30392	
1323	0	29844	
1324	0	29440	
1325	0	29176	
1326	0	29084	
1327	0	29194	
1328	0	29420	
1329	0	29816	
1330	0	30368	
1331	0	31040	
1332	0	31920	
1333	0	33016	
1334	0	34236	
1335	0	35596	
1336	0	37136	
1337	0	38928	
1338	0	41048	
1339	0	43364	
1340	0	45984	
1341	0	48824	
1342	0	51768	
1343	0	54752	
1344	0	57920	
1345	0	61032	
1346	0	62912	
1347	0	63892	
1348	0	64392	
1349	0	64608	
1350	0	64660	
1351	0	64664	
1352	0	64580	
1353	0	64488	
1354	0	64376	
1355	0	64280	
1356	0	64168	
1357	0	64040	
1358	0	63904	
1359	0	63800	
1360	0	63648	
1361	0	63552	
1362	0	59632	
1363	0	52688	
1364	0	46408	
1365	0	40984	
1366	0	36224	
1367	0	32200	
1368	0	28944	
1369	0	26516	
1370	0	25066	
1371	0	24268	
1372	0	23800	
1373	0	23478	
1374	0	23232	
1375	0	23021	
1376	0	22786	
1377	0	22624	
1378	0	22520	
1379	0	22520	
1380	0	22564	
1381	0	22736	
1382	0	23016	
1383	0	23384	
1384	0	23972	
1385	0	24768	
1386	0	25568	
1387	0	26314	
1388	0	27000	
1389	0	27568	
1390	0	27944	
1391	0	28208	
1392	0	28476	
1393	0	28772	
1394	0	29042	
1395	0	29236	
1396	0	29384	
1397	0	29452	
1398	0	29464	
1399	0	29468	
1400	0	29472	
1401	0	29480	
1402	0	29480	
1403	0	29492	
1404	0	29544	
1405	0	29568	
1406	0	29572	
1407	0	29588	
1408	0	29600	
1409	0	29632	
1410	0	29688	
1411	0	29744	
1412	0	29784	
1413	0	29848	
1414	0	29888	
1415	0	29892	
1416	0	29904	
1417	0	29948	
1418	0	30004	
1419	0	30068	
1420	0	30140	
1421	0	30184	
1422	0	30208	
1423	0	30248	
1424	0	30300	
1425	0	30338	
1426	0	30384	
1427	0	30440	
1428	0	30544	
1429	0	30616	
1430	0	30700	
1431	0	30764	
1432	0	30846	
1433	0	30892	
1434	0	30908	
1435	0	30944	
1436	0	30974	
1437	0	30996	
1438	0	31032	
1439	0	31064	
1440	0	31128	
1441	0	31188	
1442	0	31234	
1443	0	31288	
1444	0	31332	
1445	0	31404	
1446	0	31488	
1447	0	31556	
1448	0	31584	
1449	0	31588	
1450	0	31608	
1451	0	31640	
1452	0	31640	
1453	0	31664	
1454	0	31724	
1455	0	31786	
1456	0	31840	
1457	0	31864	
1458	0	31856	
1459	0	31880	
1460	0	31908	
1461	0	31970	
1462	0	32024	
1463	0	32048	
1464	0	32076	
1465	0	32104	
1466	0	32160	
1467	0	32248	
1468	0	32312	
1469	0	32336	
1470	0	32376	
1471	0	32416	
1472	0	32468	
1473	0	32544	
1474	0	32612	
1475	0	32664	
1476	0	32728	
1477	0	32780	
1478	0	32776	
1479	0	32756	
1480	0	32800	
1481	0	32852	
1482	0	32886	
1483	0	32944	
1484	0	32992	
1485	0	33030	
1486	0	33072	
1487	0	33116	
1488	0	33152	
1489	0	33196	
1490	0	33228	
1491	0	33246	
1492	0	33288	
1493	0	33346	
1494	0	33368	
1495	0	33396	
1496	0	33408	
1497	0	33428	
1498	0	33472	
1499	0	33520	
1500	0	33528	
1501	0	33560	
1502	0	33584	
1503	0	33616	
1504	0	33654	
1505	0	33698	
1506	0	33748	
1507	0	33844	
1508	0	33900	
1509	0	33932	
1510	0	33988	
1511	0	34064	
1512	0	34136	
1513	0	34188	
1514	0	34208	
1515	0	34228	
1516	0	34260	
1517	0	34320	
1518	0	34344	
1519	0	34420	
1520	0	34468	
1521	0	34520	
1522	0	34592	
1523	0	34668	
1524	0	34716	
1525	0	34756	
1526	0	34804	
1527	0	34856	
1528	0	34906	
1529	0	34948	
1530	0	35008	
1531	0	35080	
1532	0	35160	
1533	0	35224	
1534	0	35260	
1535	0	35292	
1536	0	35376	
1537	0	35460	
1538	0	35536	
1539	0	35608	
1540	0	35656	
1541	0	35712	
1542	0	35760	
1543	0	35824	
1544	0	35896	
1545	0	35956	
1546	0	36064	
1547	0	36164	
1548	0	36280	
1549	0	36340	
1550	0	36428	
1551	0	36532	
1552	0	36612	
1553	0	36700	
1554	0	36792	
1555	0	36880	
1556	0	36932	
1557	0	36980	
1558	0	37036	
1559	0	37124	
1560	0	37236	
1561	0	37332	
1562	0	37412	
1563	0	37504	
1564	0	37600	
1565	0	37700	
1566	0	37822	
1567	0	37948	
1568	0	38080	
1569	0	38204	
1570	0	38332	
1571	0	38496	
1572	0	38628	
1573	0	38752	
1574	0	38796	
1575	0	38856	
1576	0	38964	
1577	0	39024	
1578	0	39124	
1579	0	39272	
1580	0	39404	
1581	0	39512	
1582	0	39636	
1583	0	39744	
1584	0	39860	
1585	0	39960	
1586	0	40088	
1587	0	40228	
1588	0	40350	
1589	0	40460	
1590	0	40552	
1591	0	40648	
1592	0	40708	
1593	0	40780	
1594	0	40856	
1595	0	40904	
1596	0	40928	
1597	0	40948	
1598	0	40992	
1599	0	41054	
1600	0	41112	
1601	0	41160	
1602	0	41200	
1603	0	41248	
1604	0	41280	
1605	0	41312	
1606	0	41348	
1607	0	41408	
1608	0	41432	
1609	0	41448	
1610	0	41476	
1611	0	41480	
1612	0	41488	
1613	0	41464	
1614	0	41440	
1615	0	41416	
1616	0	41396	
1617	0	41380	
1618	0	41360	
1619	0	41282	
1620	0	41192	
1621	0	41140	
1622	0	41100	
1623	0	41040	
1624	0	40992	
1625	0	40928	
1626	0	40884	
1627	0	40832	
1628	0	40762	
1629	0	40664	
1630	0	40568	
1631	0	40448	
1632	0	40296	
1633	0	40156	
1634	0	40004	
1635	0	39864	
1636	0	39720	
1637	0	39534	
1638	0	39340	
1639	0	39140	
1640	0	38944	
1641	0	38728	
1642	0	38464	
1643	0	38240	
1644	0	37988	
1645	0	37708	
1646	0	37424	
1647	0	37166	
1648	0	36938	
1649	0	36696	
1650	0	36464	
1651	0	36228	
1652	0	35956	
1653	0	35668	
1654	0	35384	
1655	0	35072	
1656	0	34768	
1657	0	34492	
1658	0	34200	
1659	0	33924	
1660	0	33648	
1661	0	33372	
1662	0	33084	
1663	0	32836	
1664	0	32612	
1665	0	32348	
1666	0	32088	
1667	0	31814	
1668	0	31572	
1669	0	31304	
1670	0	31060	
1671	0	30820	
1672	0	30580	
1673	0	30336	
1674	0	30112	
1675	0	29892	
1676	0	29644	
1677	0	29424	
1678	0	29210	
1679	0	29024	
1680	0	28852	
1681	0	28656	
1682	0	28520	
1683	0	28356	
1684	0	28224	
1685	0	28072	
1686	0	27904	
1687	0	27780	
1688	0	27648	
1689	0	27564	
1690	0	27484	
1691	0	27380	
1692	0	27216	
1693	0	27060	
1694	0	26980	
1695	0	26932	
1696	0	26836	
1697	0	26688	
1698	0	26604	
1699	0	26548	
1700	0	26524	
1701	0	26504	
1702	0	26494	
1703	0	26472	
1704	0	26442	
1705	0	26412	
1706	0	26388	
1707	0	26376	
1708	0	26336	
1709	0	26316	
1710	0	26324	
1711	0	26336	
1712	0	26352	
1713	0	26364	
1714	0	26344	
1715	0	26328	
1716	0	26304	
1717	0	26292	
1718	0	26324	
1719	0	26356	
1720	0	26400	
1721	0	26436	
1722	0	26448	
1723	0	26432	
1724	0	26424	
1725	0	26468	
1726	0	26508	
1727	0	26596	
1728	0	26672	
1729	0	26700	
1730	0	26724	
1731	0	26748	
1732	0	26784	
1733	0	26800	
1734	0	26820	
1735	0	26812	
1736	0	26820	
1737	0	26840	
1738	0	26906	
1739	0	26968	
1740	0	27024	
1741	0	27080	
1742	0	27108	
1743	0	27160	
1744	0	27228	
1745	0	27284	
1746	0	27326	
1747	0	27380	
1748	0	27444	
1749	0	27516	
1750	0	27584	
1751	0	27624	
1752	0	27644	
1753	0	27708	
1754	0	27752	
1755	0	27836	
1756	0	27932	
1757	0	27994	
1758	0	28018	
1759	0	28040	
1760	0	28084	
1761	0	28142	
1762	0	28168	
1763	0	28218	
1764	0	28268	
1765	0	28318	
1766	0	28356	
1767	0	28448	
1768	0	28542	
1769	0	28596	
1770	0	28628	
1771	0	28666	
1772	0	28708	
1773	0	28736	
1774	0	28776	
1775	0	28834	
1776	0	28864	
1777	0	28876	
1778	0	28900	
1779	0	28968	
1780	0	29048	
1781	0	29108	
1782	0	29152	
1783	0	29168	
1784	0	29194	
1785	0	29226	
1786	0	29284	
1787	0	29340	
1788	0	29392	
1789	0	29460	
1790	0	29508	
1791	0	29562	
1792	0	29586	
1793	0	29584	
1794	0	29600	
1795	0	29624	
1796	0	29700	
1797	0	29748	
1798	0	29782	
1799	0	29848	
1800	0	29928	
1801	0	29952	
1802	0	29956	
1803	0	29992	
1804	0	30048	
1805	0	30084	
1806	0	30104	
1807	0	30104	
1808	0	30124	
1809	0	30136	
1810	0	30164	
1811	0	30188	
1812	0	30218	
1813	0	30272	
1814	0	30318	
1815	0	30380	
1816	0	30456	
1817	0	30520	
1818	0	30556	
1819	0	30560	
1820	0	30536	
1821	0	30532	
1822	0	30516	
1823	0	30552	
1824	0	30588	
1825	0	30614	
1826	0	30620	
1827	0	30636	
1828	0	30648	
1829	0	30636	
1830	0	30668	
1831	0	30728	
1832	0	30788	
1833	0	30816	
1834	0	30812	
1835	0	30784	
1836	0	30752	
1837	0	30738	
1838	0	30752	
1839	0	30744	
1840	0	30768	
1841	0	30800	
1842	0	30798	
1843	0	30776	
1844	0	30784	
1845	0	30804	
1846	0	30820	
1847	0	30848	
1848	0	30856	
1849	0	30884	
1850	0	30912	
1851	0	30906	
1852	0	30896	
1853	0	30856	
1854	0	30840	
1855	0	30792	
1856	0	30736	
1857	0	30740	
1858	0	30784	
1859	0	30804	
1860	0	30840	
1861	0	30848	
1862	0	30848	
1863	0	30864	
1864	0	30906	
1865	0	30928	
1866	0	30928	
1867	0	30952	
1868	0	30948	
1869	0	30924	
1870	0	30936	
1871	0	30960	
1872	0	30960	
1873	0	30924	
1874	0	30916	
1875	0	30952	
1876	0	30984	
1877	0	31004	
1878	0	31000	
1879	0	31016	
1880	0	31024	
1881	0	31060	
1882	0	31072	
1883	0	31072	
1884	0	31080	
1885	0	31112	
1886	0	31126	
1887	0	31156	
1888	0	31152	
1889	0	31124	
1890	0	31098	
1891	0	31100	
1892	0	31108	
1893	0	31096	
1894	0	31108	
1895	0	31096	
1896	0	31074	
1897	0	31068	
1898	0	31044	
1899	0	31026	
1900	0	31028	
1901	0	31056	
1902	0	31122	
1903	0	31164	
1904	0	31212	
1905	0	31212	
1906	0	31208	
1907	0	31232	
1908	0	31268	
1909	0	31280	
1910	0	31296	
1911	0	31272	
1912	0	31264	
1913	0	31304	
1914	0	31282	
1915	0	31256	
1916	0	31248	
1917	0	31232	
1918	0	31264	
1919	0	31298	
1920	0	31340	
1921	0	31380	
1922	0	31378	
1923	0	31348	
1924	0	31324	
1925	0	31322	
1926	0	31368	
1927	0	31410	
1928	0	31424	
1929	0	31416	
1930	0	31432	
1931	0	31472	
1932	0	31524	
1933	0	31528	
1934	0	31508	
1935	0	31512	
1936	0	31484	
1937	0	31472	
1938	0	31488	
1939	0	31510	
1940	0	31536	
1941	0	31572	
1942	0	31568	
1943	0	31544	
1944	0	31544	
1945	0	31548	
1946	0	31568	
1947	0	31576	
1948	0	31544	
1949	0	31508	
1950	0	31556	
1951	0	31608	
1952	0	31660	
1953	0	31708	
1954	0	31728	
1955	0	31736	
1956	0	31756	
1957	0	31734	
1958	0	31740	
1959	0	31772	
1960	0	31768	
1961	0	31780	
1962	0	31772	
1963	0	31768	
1964	0	31796	
1965	0	31850	
1966	0	31872	
1967	0	31908	
1968	0	31920	
1969	0	31896	
1970	0	31882	
1971	0	31880	
1972	0	31906	
1973	0	31904	
1974	0	31872	
1975	0	31840	
1976	0	31846	
1977	0	31872	
1978	0	31932	
1979	0	31928	
1980	0	31920	
1981	0	31876	
1982	0	31872	
1983	0	31898	
1984	0	31920	
1985	0	31924	
1986	0	31948	
1987	0	31980	
1988	0	32000	
1989	0	32024	
1990	0	32016	
1991	0	32028	
1992	0	32036	
1993	0	32044	
1994	0	32040	
1995	0	32052	
1996	0	32076	
1997	0	32082	
1998	0	32108	
1999	0	32120	
2000	0	32096	
2001	0	32056	
2002	0	32020	
2003	0	32044	
2004	0	32052	
2005	0	32080	
2006	0	32080	
2007	0	32084	
2008	0	32128	
2009	0	32148	
2010	0	32136	
2011	0	32160	
2012	0	32176	
2013	0	32180	
2014	0	32160	
2015	0	32152	
2016	0	32152	
2017	0	32192	
2018	0	32192	
2019	0	32200	
2020	0	32236	
2021	0	32224	
2022	0	32256	
2023	0	32266	
2024	0	32284	
2025	0	32320	
2026	0	32328	
2027	0	32344	
2028	0	32352	
2029	0	32396	
2030	0	32454	
2031	0	32512	
2032	0	32540	
2033	0	32536	
2034	0	32544	
2035	0	32552	
2036	0	32544	
2037	0	32528	
2038	0	32508	
2039	0	32504	
2040	0	32544	
2041	0	32520	
2042	0	32480	
2043	0	32472	
2044	0	32488	
2045	0	32496	
2046	0	32504	
2047	0	32520	
2048	0	32512	
2049	0	32532	
2050	0	32528	
2051	0	32568	
2052	0	32616	
2053	0	32624	
2054	0	32608	
2055	0	32596	
2056	0	32608	
2057	0	32640	
2058	0	32616	
2059	0	32632	
2060	0	32620	
2061	0	32668	
2062	0	32692	
2063	0	32680	
2064	0	32698	
2065	0	32692	
2066	0	32680	
2067	0	32666	
2068	0	32676	
2069	0	32692	
2070	0	32740	
2071	0	32764	
2072	0	32800	
2073	0	32764	
2074	0	32732	
2075	0	32736	
2076	0	32760	
2077	0	32736	
2078	0	32716	
2079	0	32728	
2080	0	32740	
2081	0	32728	
2082	0	32760	
2083	0	32768	
2084	0	32784	
2085	0	32804	
2086	0	32808	
2087	0	32832	
2088	0	32852	
2089	0	32840	
2090	0	32858	
2091	0	32860	
2092	0	32882	
2093	0	32912	
2094	0	32912	
2095	0	32904	
2096	0	32884	
2097	0	32892	
2098	0	32876	
2099	0	32852	
2100	0	32872	
2101	0	32916	
2102	0	32940	
2103	0	32928	
2104	0	32892	
2105	0	32876	
2106	0	32932	
2107	0	32960	
2108	0	32966	
2109	0	32996	
2110	0	32984	
2111	0	32988	
2112	0	33026	
2113	0	33056	
2114	0	33096	
2115	0	33088	
2116	0	33056	
2117	0	33048	
2118	0	33052	
2119	0	33064	
2120	0	33048	
2121	0	33040	
2122	0	33028	
2123	0	33032	
2124	0	33064	
2125	0	33112	
2126	0	33132	
2127	0	33124	
2128	0	33120	
2129	0	33120	
2130	0	33100	
2131	0	33112	
2132	0	33128	
2133	0	33120	
2134	0	33116	
2135	0	33096	
2136	0	33084	
2137	0	33072	
2138	0	33104	
2139	0	33124	
2140	0	33148	
2141	0	33160	
2142	0	33188	
2143	0	33192	
2144	0	33176	
2145	0	33200	
2146	0	33184	
2147	0	33148	
2148	0	33148	
2149	0	33132	
2150	0	33136	
2151	0	33168	
2152	0	33176	
2153	0	33164	
2154	0	33132	
2155	0	33124	
2156	0	33152	
2157	0	33196	
2158	0	33190	
2159	0	33184	
2160	0	33184	
2161	0	33184	
2162	0	33184	
2163	0	33188	
2164	0	33220	
2165	0	33198	
2166	0	33172	
2167	0	33136	
2168	0	33148	
2169	0	33168	
2170	0	33224	
2171	0	33268	
2172	0	33296	
2173	0	33276	
2174	0	33248	
2175	0	33256	
2176	0	33264	
2177	0	33246	
2178	0	33208	
2179	0	33208	
2180	0	33208	
2181	0	33200	
2182	0	33184	
2183	0	33156	
2184	0	33128	
2185	0	33128	
2186	0	33128	
2187	0	33156	
2188	0	33184	
2189	0	33208	
2190	0	33240	
2191	0	33272	
2192	0	33296	
2193	0	33332	
2194	0	33388	
2195	0	33400	
2196	0	33392	
2197	0	33364	
2198	0	33372	
2199	0	33400	
2200	0	33400	
2201	0	33392	
2202	0	33400	
2203	0	33368	
2204	0	33356	
2205	0	33376	
2206	0	33452	
2207	0	33554	
2208	0	33636	
2209	0	33728	
2210	0	33832	
2211	0	33882	
2212	0	33900	
2213	0	33916	
2214	0	33948	
2215	0	33968	
2216	0	34008	
2217	0	34088	
2218	0	34156	
2219	0	34176	
2220	0	34152	
2221	0	34156	
2222	0	34196	
2223	0	34272	
2224	0	34348	
2225	0	34396	
2226	0	34456	
2227	0	34564	
2228	0	34688	
2229	0	34804	
2230	0	34852	
2231	0	34780	
2232	0	34672	
2233	0	34568	
2234	0	34524	
2235	0	34524	
2236	0	34548	
2237	0	34600	
2238	0	34608	
2239	0	34588	
2240	0	34568	
2241	0	34550	
2242	0	34600	
2243	0	34692	
2244	0	34816	
2245	0	34920	
2246	0	35024	
2247	0	35116	
2248	0	35184	
2249	0	35152	
2250	0	35116	
2251	0	35104	
2252	0	35140	
2253	0	35176	
2254	0	35160	
2255	0	35112	
2256	0	34988	
2257	0	34872	
2258	0	34732	
2259	0	34580	
2260	0	34464	
2261	0	34368	
2262	0	34284	
2263	0	34220	
2264	0	34184	
2265	0	34144	
2266	0	34116	
2267	0	34072	
2268	0	34028	
2269	0	33928	
2270	0	33736	
2271	0	33428	
2272	0	33130	
2273	0	32864	
2274	0	32620	
2275	0	32448	
2276	0	32346	
2277	0	32288	
2278	0	32280	
2279	0	32244	
2280	0	32232	
2281	0	32240	
2282	0	32284	
2283	0	32300	
2284	0	32316	
2285	0	32348	
2286	0	32380	
2287	0	32436	
2288	0	32500	
2289	0	32560	
2290	0	32592	
2291	0	32612	
2292	0	32628	
2293	0	32628	
2294	0	32648	
2295	0	32680	
2296	0	32708	
2297	0	32732	
2298	0	32688	
2299	0	32664	
2300	0	32628	
2301	0	32604	
2302	0	32588	
2303	0	32580	
2304	0	32556	
2305	0	32560	
2306	0	32568	
2307	0	32588	
2308	0	32632	
2309	0	32664	
2310	0	32700	
2311	0	32716	
2312	0	32736	
2313	0	32788	
2314	0	32816	
2315	0	32824	
2316	0	32816	
2317	0	32816	
2318	0	32816	
2319	0	32844	
2320	0	32886	
2321	0	32896	
2322	0	32916	
2323	0	32926	
2324	0	32928	
2325	0	32916	
2326	0	32960	
2327	0	32996	
2328	0	33032	
2329	0	33072	
2330	0	33116	
2331	0	33100	
2332	0	33098	
2333	0	33120	
2334	0	33140	
2335	0	33160	
2336	0	33212	
2337	0	33276	
2338	0	33304	
2339	0	33304	
2340	0	33296	
2341	0	33290	
2342	0	33264	
2343	0	33216	
2344	0	33112	
2345	0	33000	
2346	0	32834	
2347	0	32634	
2348	0	32412	
2349	0	32052	
2350	0	31536	
2351	0	30908	
2352	0	30300	
2353	0	29796	
2354	0	29460	
2355	0	29268	
2356	0	29272	
2357	0	29456	
2358	0	29812	
2359	0	30306	
2360	0	30888	
2361	0	31656	
2362	0	32636	
2363	0	33810	
2364	0	35106	
2365	0	36532	
2366	0	38202	
2367	0	40186	
2368	0	42452	
2369	0	44908	
2370	0	47632	
2371	0	50484	
2372	0	53416	
2373	0	56472	
2374	0	59620	
2375	0	61788	
2376	0	62944	
2377	0	63516	
2378	0	63796	
2379	0	63880	
2380	0	63896	
2381	0	63832	
2382	0	63744	
2383	0	63636	
2384	0	63532	
2385	0	63424	
2386	0	63300	
2387	0	63188	
2388	0	63056	
2389	0	62956	
2390	0	62836	
2391	0	62712	
2392	0	55660	
2393	0	49016	
2394	0	43212	
2395	0	38224	
2396	0	33988	
2397	0	30524	
2398	0	27828	
2399	0	25964	
2400	0	24912	
2401	0	24348	
2402	0	23988	
2403	0	23710	
2404	0	23508	
2405	0	23300	
2406	0	23068	
2407	0	22896	
2408	0	22816	
2409	0	22828	
2410	0	22894	
2411	0	23096	
2412	0	23396	
2413	0	23780	
2414	0	24304	
2415	0	25072	
2416	0	25848	
2417	0	26550	
2418	0	27200	
2419	0	27736	
2420	0	28158	
2421	0	28492	
2422	0	28756	
2423	0	28984	
2424	0	29196	
2425	0	29360	
2426	0	29484	
2427	0	29552	
2428	0	29594	
2429	0	29564	
2430	0	29544	
2431	0	29560	
2432	0	29564	
2433	0	29584	
2434	0	29608	
2435	0	29612	
2436	0	29636	
2437	0	29652	
2438	0	29660	
2439	0	29708	
2440	0	29812	
2441	0	29908	
2442	0	29956	
2443	0	29976	
2444	0	29992	
2445	0	30000	
2446	0	30050	
2447	0	30084	
2448	0	30084	
2449	0	30080	
2450	0	30144	
2451	0	30216	
2452	0	30308	
2453	0	30376	
2454	0	30438	
2455	0	30472	
2456	0	30552	
2457	0	30600	
2458	0	30654	
2459	0	30716	
2460	0	30746	
2461	0	30748	
2462	0	30756	
2463	0	30776	
2464	0	30816	
2465	0	30836	
2466	0	30856	
2467	0	30888	
2468	0	30932	
2469	0	30976	
2470	0	31032	
2471	0	31068	
2472	0	31072	
2473	0	31096	
2474	0	31108	
2475	0	31156	
2476	0	31216	
2477	0	31234	
2478	0	31244	
2479	0	31256	
2480	0	31284	
2481	0	31352	
2482	0	31388	
2483	0	31428	
2484	0	31488	
2485	0	31556	
2486	0	31592	
2487	0	31650	
2488	0	31732	
2489	0	31796	
2490	0	31836	
2491	0	31840	
2492	0	31844	
2493	0	31888	
2494	0	31944	
2495	0	31940	
2496	0	31948	
2497	0	31994	
2498	0	32044	
2499	0	32064	
2500	0	32104	
2501	0	32108	
2502	0	32096	
2503	0	32092	
2504	0	32140	
2505	0	32208	
2506	0	32260	
2507	0	32320	
2508	0	32340	
2509	0	32376	
2510	0	32440	
2511	0	32540	
2512	0	32632	
2513	0	32692	
2514	0	32704	
2515	0	32716	
2516	0	32748	
2517	0	32800	
2518	0	32832	
2519	0	32884	
2520	0	32944	
2521	0	32996	
2522	0	33052	
2523	0	33100	
2524	0	33140	
2525	0	33120	
2526	0	33114	
2527	0	33092	
2528	0	33096	
2529	0	33120	
2530	0	33168	
2531	0	33228	
2532	0	33314	
2533	0	33364	
2534	0	33392	
2535	0	33402	
2536	0	33392	
2537	0	33408	
2538	0	33424	
2539	0	33436	
2540	0	33464	
2541	0	33508	
2542	0	33588	
2543	0	33664	
2544	0	33768	
2545	0	33862	
2546	0	33992	
2547	0	34068	
2548	0	34124	
2549	0	34200	
2550	0	34264	
2551	0	34308	
2552	0	34362	
2553	0	34432	
2554	0	34498	
2555	0	34536	
2556	0	34544	
2557	0	34560	
2558	0	34572	
2559	0	34584	
2560	0	34608	
2561	0	34640	
2562	0	34712	
2563	0	34788	
2564	0	34868	
2565	0	34952	
2566	0	35032	
2567	0	35124	
2568	0	35256	
2569	0	35368	
2570	0	35424	
2571	0	35480	
2572	0	35554	
2573	0	35624	
2574	0	35668	
2575	0	35740	
2576	0	35780	
2577	0	35840	
2578	0	35888	
2579	0	35936	
2580	0	36000	
2581	0	36048	
2582	0	36108	
2583	0	36204	
2584	0	36284	
2585	0	36360	
2586	0	36380	
2587	0	36432	
2588	0	36528	
2589	0	36648	
2590	0	36808	
2591	0	36964	
2592	0	37048	
2593	0	37140	
2594	0	37248	
2595	0	37356	
2596	0	37452	
2597	0	37580	
2598	0	37680	
2599	0	37768	
2600	0	37852	
2601	0	37920	
2602	0	38012	
2603	0	38152	
2604	0	38316	
2605	0	38434	
2606	0	38532	
2607	0	38652	
2608	0	38772	
2609	0	38864	
2610	0	38940	
2611	0	39064	
2612	0	39192	
2613	0	39296	
2614	0	39376	
2615	0	39448	
2616	0	39512	
2617	0	39578	
2618	0	39640	
2619	0	39756	
2620	0	39856	
2621	0	39888	
2622	0	39932	
2623	0	39980	
2624	0	40012	
2625	0	40056	
2626	0	40128	
2627	0	40180	
2628	0	40256	
2629	0	40382	
2630	0	40512	
2631	0	40620	
2632	0	40688	
2633	0	40744	
2634	0	40808	
2635	0	40896	
2636	0	40948	
2637	0	40966	
2638	0	40984	
2639	0	40992	
2640	0	40960	
2641	0	40936	
2642	0	40948	
2643	0	40964	
2644	0	40966	
2645	0	40976	
2646	0	40992	
2647	0	41024	
2648	0	41024	
2649	0	41000	
2650	0	40968	
2651	0	40888	
2652	0	40768	
2653	0	40640	
2654	0	40576	
2655	0	40532	
2656	0	40484	
2657	0	40460	
2658	0	40420	
2659	0	40296	
2660	0	40196	
2661	0	40068	
2662	0	39932	
2663	0	39796	
2664	0	39648	
2665	0	39512	
2666	0	39328	
2667	0	39138	
2668	0	38944	
2669	0	38756	
2670	0	38548	
2671	0	38368	
2672	0	38184	
2673	0	38008	
2674	0	37776	
2675	0	37532	
2676	0	37316	
2677	0	37092	
2678	0	36848	
2679	0	36580	
2680	0	36268	
2681	0	35984	
2682	0	35692	
2683	0	35394	
2684	0	35088	
2685	0	34828	
2686	0	34572	
2687	0	34316	
2688	0	34028	
2689	0	33744	
2690	0	33472	
2691	0	33208	
2692	0	32948	
2693	0	32696	
2694	0	32492	
2695	0	32288	
2696	0	32032	
2697	0	31760	
2698	0	31492	
2699	0	31260	
2700	0	31004	
2701	0	30760	
2702	0	30532	
2703	0	30326	
2704	0	30128	
2705	0	29942	
2706	0	29760	
2707	0	29572	
2708	0	29368	
2709	0	29200	
2710	0	29020	
2711	0	28836	
2712	0	28670	
2713	0	28464	
2714	0	28252	
2715	0	28032	
2716	0	27816	
2717	0	27628	
2718	0	27484	
2719	0	27390	
2720	0	27277	
2721	0	27188	
2722	0	27084	
2723	0	26996	
2724	0	26896	
2725	0	26796	
2726	0	26692	
2727	0	26598	
2728	0	26572	
2729	0	26526	
2730	0	26494	
2731	0	26416	
2732	0	26368	
2733	0	26298	
2734	0	26252	
2735	0	26212	
2736	0	26152	
2737	0	26112	
2738	0	26100	
2739	0	26092	
2740	0	26068	
2741	0	26044	
2742	0	26002	
2743	0	25962	
2744	0	25898	
2745	0	25866	
2746	0	25852	
2747	0	25868	
2748	0	25940	
2749	0	26004	
2750	0	26016	
2751	0	26000	
2752	0	26012	
2753	0	26072	
2754	0	26128	
2755	0	26156	
2756	0	26184	
2757	0	26176	
2758	0	26212	
2759	0	26276	
2760	0	26332	
2761	0	26332	
2762	0	26316	
2763	0	26280	
2764	0	26274	
2765	0	26300	
2766	0	26330	
2767	0	26380	
2768	0	26440	
2769	0	26536	
2770	0	26624	
2771	0	26714	
2772	0	26800	
2773	0	26908	
2774	0	27024	
2775	0	27104	
2776	0	27154	
2777	0	27184	
2778	0	27200	
2779	0	27232	
2780	0	27248	
2781	0	27280	
2782	0	27296	
2783	0	27308	
2784	0	27316	
2785	0	27324	
2786	0	27356	
2787	0	27400	
2788	0	27488	
2789	0	27580	
2790	0	27708	
2791	0	27832	
2792	0	27946	
2793	0	28012	
2794	0	28044	
2795	0	28104	
2796	0	28160	
2797	0	28200	
2798	0	28234	
2799	0	28232	
2800	0	28274	
2801	0	28362	
2802	0	28444	
2803	0	28496	
2804	0	28552	
2805	0	28626	
2806	0	28684	
2807	0	28760	
2808	0	28838	
2809	0	28896	
2810	0	28960	
2811	0	29008	
2812	0	29040	
2813	0	29032	
2814	0	29016	
2815	0	29028	
2816	0	29064	
2817	0	29116	
2818	0	29152	
2819	0	29176	
2820	0	29220	
2821	0	29260	
2822	0	29316	
2823	0	29360	
2824	0	29340	
2825	0	29368	
2826	0	29420	
2827	0	29500	
2828	0	29508	
2829	0	29520	
2830	0	29536	
2831	0	29608	
2832	0	29636	
2833	0	29684	
2834	0	29708	
2835	0	29740	
2836	0	29784	
2837	0	29796	
2838	0	29792	
2839	0	29798	
2840	0	29828	
2841	0	29812	
2842	0	29832	
2843	0	29872	
2844	0	29848	
2845	0	29804	
2846	0	29761	
2847	0	29756	
2848	0	29792	
2849	0	29834	
2850	0	29874	
2851	0	29888	
2852	0	29952	
2853	0	29988	
2854	0	30008	
2855	0	30048	
2856	0	30076	
2857	0	30108	
2858	0	30172	
2859	0	30240	
2860	0	30288	
2861	0	30364	
2862	0	30418	
2863	0	30416	
2864	0	30430	
2865	0	30456	
2866	0	30460	
2867	0	30476	
2868	0	30500	
2869	0	30508	
2870	0	30520	
2871	0	30520	
2872	0	30508	
2873	0	30472	
2874	0	30452	
2875	0	30444	
2876	0	30456	
2877	0	30492	
2878	0	30524	
2879	0	30560	
2880	0	30536	
2881	0	30524	
2882	0	30536	
2883	0	30556	
2884	0	30540	
2885	0	30516	
2886	0	30512	
2887	0	30466	
2888	0	30440	
2889	0	30456	
2890	0	30480	
2891	0	30504	
2892	0	30500	
2893	0	30477	
2894	0	30556	
2895	0	30650	
2896	0	30744	
2897	0	30812	
2898	0	30852	
2899	0	30836	
2900	0	30800	
2901	0	30820	
2902	0	30836	
2903	0	30864	
2904	0	30852	
2905	0	30864	
2906	0	30868	
2907	0	30852	
2908	0	30816	
2909	0	30792	
2910	0	30832	
2911	0	30860	
2912	0	30848	
2913	0	30772	
2914	0	30728	
2915	0	30776	
2916	0	30872	
2917	0	30948	
2918	0	30960	
2919	0	30936	
2920	0	30960	
2921	0	30992	
2922	0	31020	
2923	0	31072	
2924	0	31088	
2925	0	31108	
2926	0	31144	
2927	0	31114	
2928	0	31056	
2929	0	31040	
2930	0	31028	
2931	0	30992	
2932	0	30940	
2933	0	30916	
2934	0	30924	
2935	0	30948	
2936	0	30940	
2937	0	30932	
2938	0	30944	
2939	0	30968	
2940	0	30964	
2941	0	30950	
2942	0	30994	
2943	0	31012	
2944	0	31020	
2945	0	31016	
2946	0	31016	
2947	0	31040	
2948	0	31104	
2949	0	31188	
2950	0	31236	
2951	0	31272	
2952	0	31292	
2953	0	31320	
2954	0	31324	
2955	0	31316	
2956	0	31290	
2957	0	31240	
2958	0	31180	
2959	0	31156	
2960	0	31124	
2961	0	31156	
2962	0	31224	
2963	0	31272	
2964	0	31328	
2965	0	31348	
2966	0	31364	
2967	0	31404	
2968	0	31424	
2969	0	31440	
2970	0	31388	
2971	0	31380	
2972	0	31360	
2973	0	31352	
2974	0	31372	
2975	0	31396	
2976	0	31380	
2977	0	31384	
2978	0	31392	
2979	0	31408	
2980	0	31428	
2981	0	31444	
2982	0	31476	
2983	0	31500	
2984	0	31512	
2985	0	31556	
2986	0	31576	
2987	0	31516	
2988	0	31500	
2989	0	31460	
2990	0	31458	
2991	0	31468	
2992	0	31512	
2993	0	31584	
2994	0	31624	
2995	0	31616	
2996	0	31588	
2997	0	31584	
2998	0	31580	
2999	0	31600	
3000	0	31612	
3001	0	31604	
3002	0	31596	
3003	0	31600	
3004	0	31604	
3005	0	31598	
3006	0	31576	
3007	0	31600	
3008	0	31664	
3009	0	31744	
3010	0	31796	
3011	0	31816	
3012	0	31844	
3013	0	31840	
3014	0	31840	
3015	0	31872	
3016	0	31936	
3017	0	31972	
3018	0	32012	
3019	0	32048	
3020	0	32072	
3021	0	32116	
3022	0	32168	
3023	0	32214	
3024	0	32240	
3025	0	32260	
3026	0	32312	
3027	0	32292	
3028	0	32224	
3029	0	32148	
3030	0	32072	
3031	0	32048	
3032	0	32036	
3033	0	31984	
3034	0	31948	
3035	0	31964	
3036	0	32032	
3037	0	32128	
3038	0	32172	
3039	0	32188	
3040	0	32168	
3041	0	32142	
3042	0	32140	
3043	0	32178	
3044	0	32216	
3045	0	32220	
3046	0	32250	
3047	0	32292	
3048	0	32372	
3049	0	32472	
3050	0	32572	
3051	0	32672	
3052	0	32712	
3053	0	32680	
3054	0	32640	
3055	0	32666	
3056	0	32664	
3057	0	32620	
3058	0	32552	
3059	0	32516	
3060	0	32488	
3061	0	32464	
3062	0	32492	
3063	0	32540	
3064	0	32512	
3065	0	32456	
3066	0	32456	
3067	0	32476	
3068	0	32525	
3069	0	32558	
3070	0	32564	
3071	0	32580	
3072	0	32600	
3073	0	32588	
3074	0	32596	
3075	0	32612	
3076	0	32616	
3077	0	32632	
3078	0	32632	
3079	0	32632	
3080	0	32628	
3081	0	32592	
3082	0	32568	
3083	0	32570	
3084	0	32596	
3085	0	32656	
3086	0	32696	
3087	0	32712	
3088	0	32668	
3089	0	32672	
3090	0	32706	
3091	0	32736	
3092	0	32756	
3093	0	32748	
3094	0	32772	
3095	0	32816	
3096	0	32810	
3097	0	32816	
3098	0	32832	
3099	0	32812	
3100	0	32792	
3101	0	32792	
3102	0	32786	
3103	0	32796	
3104	0	32856	
3105	0	32876	
3106	0	32878	
3107	0	32864	
3108	0	32868	
3109	0	32896	
3110	0	32948	
3111	0	32992	
3112	0	33030	
3113	0	33060	
3114	0	33084	
3115	0	33056	
3116	0	32992	
3117	0	32972	
3118	0	32960	
3119	0	32968	
3120	0	32968	
3121	0	32952	
3122	0	32964	
3123	0	33028	
3124	0	33080	
3125	0	33120	
3126	0	33156	
3127	0	33184	
3128	0	33228	
3129	0	33224	
3130	0	33192	
3131	0	33176	
3132	0	33172	
3133	0	33148	
3134	0	33144	
3135	0	33120	
3136	0	33104	
3137	0	33056	
3138	0	33056	
3139	0	33060	
3140	0	33032	
3141	0	33020	
3142	0	33036	
3143	0	33056	
3144	0	33082	
3145	0	33104	
3146	0	33146	
3147	0	33192	
3148	0	33240	
3149	0	33302	
3150	0	33300	
3151	0	33240	
3152	0	33160	
3153	0	33124	
3154	0	33176	
3155	0	33216	
3156	0	33286	
3157	0	33324	
3158	0	33272	
3159	0	33196	
3160	0	33166	
3161	0	33172	
3162	0	33164	
3163	0	33186	
3164	0	33248	
3165	0	33308	
3166	0	33316	
3167	0	33332	
3168	0	33308	
3169	0	33276	
3170	0	33292	
3171	0	33312	
3172	0	33296	
3173	0	33332	
3174	0	33344	
3175	0	33344	
3176	0	33368	
3177	0	33388	
3178	0	33432	
3179	0	33452	
3180	0	33444	
3181	0	33444	
3182	0	33392	
3183	0	33352	
3184	0	33336	
3185	0	33320	
3186	0	33300	
3187	0	33336	
3188	0	33408	
3189	0	33448	
3190	0	33464	
3191	0	33476	
3192	0	33472	
3193	0	33440	
3194	0	33460	
3195	0	33488	
3196	0	33496	
3197	0	33504	
3198	0	33484	
3199	0	33436	
3200	0	33400	
3201	0	33372	
3202	0	33320	
3203	0	33238	
3204	0	33206	
3205	0	33180	
3206	0	33118	
3207	0	33042	
3208	0	33036	
3209	0	33040	
3210	0	33076	
3211	0	33128	
3212	0	33204	
3213	0	33372	
3214	0	33584	
3215	0	33768	
3216	0	33876	
3217	0	33916	
3218	0	33912	
3219	0	33944	
3220	0	34000	
3221	0	34076	
3222	0	34132	
3223	0	34192	
3224	0	34200	
3225	0	34144	
3226	0	34084	
3227	0	33980	
3228	0	33876	
3229	0	33844	
3230	0	33876	
3231	0	33920	
3232	0	33928	
3233	0	33920	
3234	0	33956	
3235	0	33976	
3236	0	33996	
3237	0	34032	
3238	0	34128	
3239	0	34216	
3240	0	34296	
3241	0	34292	
3242	0	34260	
3243	0	34228	
3244	0	34164	
3245	0	34106	
3246	0	34056	
3247	0	34040	
3248	0	34068	
3249	0	34124	
3250	0	34164	
3251	0	34144	
3252	0	34048	
3253	0	33904	
3254	0	33816	
3255	0	33668	
3256	0	33466	
3257	0	33180	
3258	0	32876	
3259	0	32672	
3260	0	32548	
3261	0	32472	
3262	0	32444	
3263	0	32480	
3264	0	32524	
3265	0	32604	
3266	0	32652	
3267	0	32736	
3268	0	32832	
3269	0	32844	
3270	0	32802	
3271	0	32772	
3272	0	32792	
3273	0	32792	
3274	0	32774	
3275	0	32824	
3276	0	32900	
3277	0	32960	
3278	0	32996	
3279	0	33024	
3280	0	33048	
3281	0	33040	
3282	0	33020	
3283	0	33012	
3284	0	33050	
3285	0	33096	
3286	0	33092	
3287	0	33072	
3288	0	33092	
3289	0	33068	
3290	0	33116	
3291	0	33144	
3292	0	33114	
3293	0	33092	
3294	0	33112	
3295	0	33164	
3296	0	33208	
3297	0	33192	
3298	0	33144	
3299	0	33176	
3300	0	33212	
3301	0	33216	
3302	0	33224	
3303	0	33280	
3304	0	33348	
3305	0	33432	
3306	0	33480	
3307	0	33512	
3308	0	33552	
3309	0	33604	
3310	0	33648	
3311	0	33640	
3312	0	33640	
3313	0	33644	
3314	0	33592	
3315	0	33500	
3316	0	33304	
3317	0	33032	
3318	0	32720	
3319	0	32276	
3320	0	31624	
3321	0	30888	
3322	0	30252	
3323	0	29766	
3324	0	29480	
3325	0	29408	
3326	0	29588	
3327	0	29920	
3328	0	30428	
3329	0	31074	
3330	0	31808	
3331	0	32720	
3332	0	33828	
3333	0	35008	
3334	0	36272	
3335	0	37738	
3336	0	39532	
3337	0	41700	
3338	0	44064	
3339	0	46608	
3340	0	49328	
3341	0	52208	
3342	0	55208	
3343	0	58432	
3344	0	61052	
3345	0	62488	
3346	0	63216	
3347	0	63552	
3348	0	63696	
3349	0	63704	
3350	0	63668	
3351	0	63600	
3352	0	63492	
3353	0	63396	
3354	0	63288	
3355	0	63168	
3356	0	63064	
3357	0	62936	
3358	0	62820	
3359	0	62704	
3360	0	62588	
3361	0	57880	
3362	0	51264	
3363	0	45428	
3364	0	40304	
3365	0	35884	
3366	0	32396	
3367	0	29868	
3368	0	28168	
3369	0	27042	
3370	0	26328	
3371	0	25854	
3372	0	25440	
3373	0	25112	
3374	0	24840	
3375	0	24528	
3376	0	24166	
3377	0	23872	
3378	0	23652	
3379	0	23552	
3380	0	23548	
3381	0	23564	
3382	0	23608	
3383	0	23758	
3384	0	23960	
3385	0	24238	
3386	0	24584	
3387	0	25080	
3388	0	25812	
3389	0	26576	
3390	0	27216	
3391	0	27772	
3392	0	28192	
3393	0	28480	
3394	0	28746	
3395	0	29026	
3396	0	29288	
3397	0	29560	
3398	0	29810	
3399	0	30016	
3400	0	30108	
3401	0	30164	
3402	0	30228	
3403	0	30284	
3404	0	30348	
3405	0	30380	
3406	0	30384	
3407	0	30400	
3408	0	30444	
3409	0	30444	
3410	0	30464	
3411	0	30476	
3412	0	30424	
3413	0	30312	
3414	0	30236	
3415	0	30260	
3416	0	30276	
3417	0	30356	
3418	0	30452	
3419	0	30584	
3420	0	30674	
3421	0	30752	
3422	0	30760	
3423	0	30824	
3424	0	30962	
3425	0	31112	
3426	0	31216	
3427	0	31292	
3428	0	31296	
3429	0	31310	
3430	0	31356	
3431	0	31400	
3432	0	31404	
3433	0	31392	
3434	0	31376	
3435	0	31392	
3436	0	31384	
3437	0	31352	
3438	0	31340	
3439	0	31384	
3440	0	31448	
3441	0	31504	
3442	0	31528	
3443	0	31564	
3444	0	31600	
3445	0	31656	
3446	0	31644	
3447	0	31604	
3448	0	31616	
3449	0	31750	
3450	0	31840	
3451	0	31928	
3452	0	31964	
3453	0	32012	
3454	0	32036	
3455	0	32066	
3456	0	32140	
3457	0	32236	
3458	0	32304	
3459	0	32304	
3460	0	32268	
3461	0	32240	
3462	0	32248	
3463	0	32300	
3464	0	32372	
3465	0	32476	
3466	0	32544	
3467	0	32552	
3468	0	32584	
3469	0	32668	
3470	0	32712	
3471	0	32762	
3472	0	32820	
3473	0	32832	
3474	0	32768	
3475	0	32696	
3476	0	32644	
3477	0	32680	
3478	0	32740	
3479	0	32848	
3480	0	32968	
3481	0	33100	
3482	0	33164	
3483	0	33140	
3484	0	33116	
3485	0	33140	
3486	0	33184	
3487	0	33200	
3488	0	33232	
3489	0	33264	
3490	0	33312	
3491	0	33376	
3492	0	33440	
3493	0	33512	
3494	0	33628	
3495	0	33696	
3496	0	33736	
3497	0	33732	
3498	0	33692	
3499	0	33644	
3500	0	33668	
3501	0	33716	
3502	0	33776	
3503	0	33820	
3504	0	33884	
3505	0	34012	
3506	0	34140	
3507	0	34216	
3508	0	34268	
3509	0	34312	
3510	0	34386	
3511	0	34456	
3512	0	34500	
3513	0	34512	
3514	0	34520	
3515	0	34504	
3516	0	34480	
3517	0	34492	
3518	0	34476	
3519	0	34440	
3520	0	34436	
3521	0	34468	
3522	0	34484	
3523	0	34492	
3524	0	34516	
3525	0	34608	
3526	0	34712	
3527	0	34804	
3528	0	34900	
3529	0	34952	
3530	0	35040	
3531	0	35140	
3532	0	35212	
3533	0	35292	
3534	0	35352	
3535	0	35402	
3536	0	35476	
3537	0	35532	
3538	0	35616	
3539	0	35744	
3540	0	35856	
3541	0	35916	
3542	0	35936	
3543	0	35972	
3544	0	36000	
3545	0	36064	
3546	0	36148	
3547	0	36208	
3548	0	36304	
3549	0	36386	
3550	0	36484	
3551	0	36596	
3552	0	36702	
3553	0	36812	
3554	0	36900	
3555	0	36976	
3556	0	37056	
3557	0	37152	
3558	0	37292	
3559	0	37460	
3560	0	37584	
3561	0	37620	
3562	0	37644	
3563	0	37714	
3564	0	37776	
3565	0	37880	
3566	0	37968	
3567	0	38096	
3568	0	38196	
3569	0	38320	
3570	0	38452	
3571	0	38604	
3572	0	38740	
3573	0	38840	
3574	0	38890	
3575	0	38968	
3576	0	39068	
3577	0	39200	
3578	0	39322	
3579	0	39442	
3580	0	39592	
3581	0	39736	
3582	0	39800	
3583	0	39860	
3584	0	39944	
3585	0	40020	
3586	0	40060	
3587	0	40100	
3588	0	40096	
3589	0	40130	
3590	0	40260	
3591	0	40394	
3592	0	40496	
3593	0	40596	
3594	0	40716	
3595	0	40852	
3596	0	40984	
3597	0	41104	
3598	0	41124	
3599	0	41136	
3600	0	41156	
3601	0	41176	
3602	0	41212	
3603	0	41212	
3604	0	41196	
3605	0	41200	
3606	0	41184	
3607	0	41176	
3608	0	41168	
3609	0	41130	
3610	0	41084	
3611	0	41056	
3612	0	41052	
3613	0	41056	
3614	0	41064	
3615	0	41108	
3616	0	41116	
3617	0	41128	
3618	0	41184	
3619	0	41192	
3620	0	41204	
3621	0	41224	
3622	0	41228	
3623	0	41164	
3624	0	41100	
3625	0	41024	
3626	0	40904	
3627	0	40748	
3628	0	40628	
3629	0	40488	
3630	0	40352	
3631	0	40160	
3632	0	39928	
3633	0	39696	
3634	0	39496	
3635	0	39328	
3636	0	39168	
3637	0	39004	
3638	0	38842	
3639	0	38668	
3640	0	38532	
3641	0	38392	
3642	0	38204	
3643	0	37964	
3644	0	37664	
3645	0	37372	
3646	0	37116	
3647	0	36880	
3648	0	36636	
3649	0	36352	
3650	0	36064	
3651	0	35808	
3652	0	35588	
3653	0	35280	
3654	0	34922	
3655	0	34528	
3656	0	34156	
3657	0	33796	
3658	0	33466	
3659	0	33168	
3660	0	32896	
3661	0	32636	
3662	0	32376	
3663	0	32144	
3664	0	31932	
3665	0	31720	
3666	0	31488	
3667	0	31256	
3668	0	30984	
3669	0	30760	
3670	0	30568	
3671	0	30448	
3672	0	30304	
3673	0	30152	
3674	0	30016	
3675	0	29834	
3676	0	29600	
3677	0	29384	
3678	0	29180	
3679	0	28940	
3680	0	28728	
3681	0	28504	
3682	0	28284	
3683	0	28012	
3684	0	27792	
3685	0	27610	
3686	0	27460	
3687	0	27280	
3688	0	27124	
3689	0	27000	
3690	0	26920	
3691	0	26892	
3692	0	26812	
3693	0	26706	
3694	0	26576	
3695	0	26440	
3696	0	26328	
3697	0	26262	
3698	0	26240	
3699	0	26240	
3700	0	26232	
3701	0	26208	
3702	0	26180	
3703	0	26216	
3704	0	26288	
3705	0	26332	
3706	0	26372	
3707	0	26410	
3708	0	26420	
3709	0	26424	
3710	0	26378	
3711	0	26360	
3712	0	26304	
3713	0	26256	
3714	0	26236	
3715	0	26160	
3716	0	26104	
3717	0	26104	
3718	0	26104	
3719	0	26096	
3720	0	26082	
3721	0	26064	
3722	0	26076	
3723	0	26112	
3724	0	26124	
3725	0	26156	
3726	0	26212	
3727	0	26308	
3728	0	26408	
3729	0	26548	
3730	0	26676	
3731	0	26788	
3732	0	26856	
3733	0	26928	
3734	0	26968	
3735	0	27012	
3736	0	27040	
3737	0	27068	
3738	0	27124	
3739	0	27216	
3740	0	27290	
3741	0	27340	
3742	0	27384	
3743	0	27410	
3744	0	27440	
3745	0	27496	
3746	0	27554	
3747	0	27548	
3748	0	27528	
3749	0	27528	
3750	0	27592	
3751	0	27648	
3752	0	27728	
3753	0	27832	
3754	0	27900	
3755	0	27972	
3756	0	28034	
3757	0	28064	
3758	0	28056	
3759	0	28098	
3760	0	28156	
3761	0	28224	
3762	0	28260	
3763	0	28296	
3764	0	28376	
3765	0	28476	
3766	0	28492	
3767	0	28512	
3768	0	28524	
3769	0	28580	
3770	0	28608	
3771	0	28640	
3772	0	28696	
3773	0	28756	
3774	0	28814	
3775	0	28866	
3776	0	28922	
3777	0	28940	
3778	0	28956	
3779	0	29004	
3780	0	29101	
3781	0	29184	
3782	0	29224	
3783	0	29236	
3784	0	29230	
3785	0	29230	
3786	0	29276	
3787	0	29356	
3788	0	29456	
3789	0	29504	
3790	0	29508	
3791	0	29546	
3792	0	29648	
3793	0	29728	
3794	0	29784	
3795	0	29876	
3796	0	29936	
3797	0	29980	
3798	0	30004	
3799	0	30064	
3800	0	30112	
3801	0	30148	
3802	0	30188	
3803	0	30188	
3804	0	30196	
3805	0	30224	
3806	0	30224	
3807	0	30232	
3808	0	30240	
3809	0	30244	
3810	0	30300	
3811	0	30360	
3812	0	30400	
3813	0	30516	
3814	0	30560	
3815	0	30552	
3816	0	30548	
3817	0	30560	
3818	0	30544	
3819	0	30504	
3820	0	30452	
3821	0	30448	
3822	0	30474	
3823	0	30480	
3824	0	30488	
3825	0	30528	
3826	0	30592	
3827	0	30644	
3828	0	30672	
3829	0	30696	
3830	0	30672	
3831	0	30652	
3832	0	30668	
3833	0	30716	
3834	0	30752	
3835	0	30748	
3836	0	30704	
3837	0	30684	
3838	0	30660	
3839	0	30658	
3840	0	30600	
3841	0	30568	
3842	0	30558	
3843	0	30560	
3844	0	30560	
3845	0	30558	
3846	0	30576	
3847	0	30584	
3848	0	30596	
3849	0	30584	
3850	0	30562	
3851	0	30536	
3852	0	30560	
3853	0	30592	
3854	0	30628	
3855	0	30632	
3856	0	30624	
3857	0	30594	
3858	0	30560	
3859	0	30568	
3860	0	30620	
3861	0	30712	
3862	0	30788	
3863	0	30864	
3864	0	30912	
3865	0	30932	
3866	0	30936	
3867	0	30988	
3868	0	31064	
3869	0	31136	
3870	0	31164	
3871	0	31116	
3872	0	31038	
3873	0	30964	
3874	0	30912	
3875	0	30872	
3876	0	30868	
3877	0	30906	
3878	0	30916	
3879	0	30908	
3880	0	30882	
3881	0	30864	
3882	0	30872	
3883	0	30880	
3884	0	30940	
3885	0	30978	
3886	0	31026	
3887	0	31084	
3888	0	31120	
3889	0	31144	
3890	0	31136	
3891	0	31120	
3892	0	31044	
3893	0	30976	
3894	0	30912	
3895	0	30840	
3896	0	30844	
3897	0	30844	
3898	0	30836	
3899	0	30860	
3900	0	30888	
3901	0	30936	
3902	0	30930	
3903	0	30886	
3904	0	30812	
3905	0	30730	
3906	0	30656	
3907	0	30608	
3908	0	30592	
3909	0	30608	
3910	0	30690	
3911	0	30784	
3912	0	30856	
3913	0	30948	
3914	0	31028	
3915	0	31104	
3916	0	31200	
3917	0	31252	
3918	0	31244	
3919	0	31212	
3920	0	31184	
3921	0	31160	
3922	0	31176	
3923	0	31188	
3924	0	31214	
3925	0	31260	
3926	0	31288	
3927	0	31282	
3928	0	31272	
3929	0	31312	
3930	0	31364	
3931	0	31386	
3932	0	31412	
3933	0	31420	
3934	0	31412	
3935	0	31388	
3936	0	31388	
3937	0	31396	
3938	0	31384	
3939	0	31372	
3940	0	31404	
3941	0	31446	
3942	0	31472	
3943	0	31436	
3944	0	31400	
3945	0	31408	
3946	0	31440	
3947	0	31448	
3948	0	31412	
3949	0	31380	
3950	0	31372	
3951	0	31406	
3952	0	31456	
3953	0	31488	
3954	0	31516	
3955	0	31564	
3956	0	31614	
3957	0	31640	
3958	0	31640	
3959	0	31622	
3960	0	31644	
3961	0	31676	
3962	0	31738	
3963	0	31768	
3964	0	31780	
3965	0	31776	
3966	0	31752	
3967	0	31720	
3968	0	31704	
3969	0	31728	
3970	0	31772	
3971	0	31808	
3972	0	31836	
3973	0	31860	
3974	0	31858	
3975	0	31872	
3976	0	31872	
3977	0	31876	
3978	0	31840	
3979	0	31828	
3980	0	31868	
3981	0	31912	
3982	0	31928	
3983	0	31908	
3984	0	31908	
3985	0	31880	
3986	0	31848	
3987	0	31892	
3988	0	31944	
3989	0	31982	
3990	0	32002	
3991	0	32036	
3992	0	32068	
3993	0	32080	
3994	0	32096	
3995	0	32116	
3996	0	32112	
3997	0	32092	
3998	0	32064	
3999	0	32016	
4000	0	32000	
4001	0	32040	
4002	0	32064	
4003	0	32064	
4004	0	32072	
4005	0	32040	
4006	0	32018	
4007	0	31994	
4008	0	31964	
4009	0	31964	
4010	0	31988	
4011	0	32040	
4012	0	32026	
4013	0	32000	
4014	0	32020	
4015	0	32032	
4016	0	32044	
4017	0	32084	
4018	0	32108	
4019	0	32096	
4020	0	32104	
4021	0	32178	
4022	0	32224	
4023	0	32262	
4024	0	32304	
4025	0	32316	
4026	0	32316	
4027	0	32348	
4028	0	32404	
4029	0	32444	
4030	0	32504	
4031	0	32552	
4032	0	32572	
4033	0	32560	
4034	0	32548	
4035	0	32560	
4036	0	32568	
4037	0	32536	
4038	0	32500	
4039	0	32452	
4040	0	32410	
4041	0	32380	
4042	0	32344	
4043	0	32356	
4044	0	32356	
4045	0	32304	
4046	0	32268	
4047	0	32248	
4048	0	32234	
4049	0	32210	
4050	0	32188	
4051	0	32180	
4052	0	32240	
4053	0	32296	
4054	0	32332	
4055	0	32372	
4056	0	32428	
4057	0	32460	
4058	0	32496	
4059	0	32556	
4060	0	32608	
4061	0	32620	
4062	0	32620	
4063	0	32616	
4064	0	32608	
4065	0	32600	
4066	0	32604	
4067	0	32604	
4068	0	32636	
4069	0	32700	
4070	0	32792	
4071	0	32908	
4072	0	33060	
4073	0	33188	
4074	0	33268	
4075	0	33316	
4076	0	33376	
4077	0	33444	
4078	0	33480	
4079	0	33488	
4080	0	33460	
4081	0	33472	
4082	0	33464	
4083	0	33440	
4084	0	33480	
4085	0	33524	
4086	0	33596	
4087	0	33708	
4088	0	33856	
4089	0	33988	
4090	0	34170	
4091	0	34386	
4092	0	34640	
4093	0	34864	
4094	0	34908	
4095	0	34852	
4096	0	34732	
4097	0	34640	
4098	0	34556	
4099	0	34492	
4100	0	34460	
4101	0	34452	
4102	0	34432	
4103	0	34360	
4104	0	34236	
4105	0	34140	
4106	0	34148	
4107	0	34224	
4108	0	34340	
4109	0	34476	
4110	0	34572	
4111	0	34644	
4112	0	34664	
4113	0	34596	
4114	0	34528	
4115	0	34496	
4116	0	34508	
4117	0	34516	
4118	0	34490	
4119	0	34464	
4120	0	34404	
4121	0	34304	
4122	0	34236	
4123	0	34186	
4124	0	34104	
4125	0	34004	
4126	0	33924	
4127	0	33848	
4128	0	33748	
4129	0	33680	
4130	0	33584	
4131	0	33520	
4132	0	33412	
4133	0	33208	
4134	0	32912	
4135	0	32604	
4136	0	32296	
4137	0	32012	
4138	0	31808	
4139	0	31652	
4140	0	31532	
4141	0	31456	
4142	0	31408	
4143	0	31412	
4144	0	31448	
4145	0	31436	
4146	0	31392	
4147	0	31380	
4148	0	31432	
4149	0	31488	
4150	0	31528	
4151	0	31540	
4152	0	31600	
4153	0	31668	
4154	0	31732	
4155	0	31808	
4156	0	31852	
4157	0	31868	
4158	0	31884	
4159	0	31904	
4160	0	31940	
4161	0	31920	
4162	0	31904	
4163	0	31934	
4164	0	31944	
4165	0	31964	
4166	0	31976	
4167	0	31956	
4168	0	31936	
4169	0	31932	
4170	0	31920	
4171	0	31950	
4172	0	31980	
4173	0	31992	
4174	0	32000	
4175	0	31996	
4176	0	31988	
4177	0	32000	
4178	0	32016	
4179	0	32052	
4180	0	32104	
4181	0	32156	
4182	0	32192	
4183	0	32192	
4184	0	32212	
4185	0	32260	
4186	0	32276	
4187	0	32320	
4188	0	32376	
4189	0	32412	
4190	0	32470	
4191	0	32508	
4192	0	32512	
4193	0	32548	
4194	0	32556	
4195	0	32528	
4196	0	32492	
4197	0	32484	
4198	0	32476	
4199	0	32486	
4200	0	32482	
4201	0	32508	
4202	0	32508	
4203	0	32442	
4204	0	32352	
4205	0	32156	
4206	0	31872	
4207	0	31512	
4208	0	31060	
4209	0	30460	
4210	0	29816	
4211	0	29226	
4212	0	28786	
4213	0	28508	
4214	0	28432	
4215	0	28596	
4216	0	28894	
4217	0	29364	
4218	0	29904	
4219	0	30560	
4220	0	31472	
4221	0	32644	
4222	0	33948	
4223	0	35352	
4224	0	36932	
4225	0	38820	
4226	0	41010	
4227	0	43402	
4228	0	46052	
4229	0	48928	
4230	0	51904	
4231	0	54992	
4232	0	58292	
4233	0	60864	
4234	0	62228	
4235	0	62952	
4236	0	63288	
4237	0	63408	
4238	0	63440	
4239	0	63412	
4240	0	63312	
4241	0	63216	
4242	0	63092	
4243	0	62996	
4244	0	62888	
4245	0	62772	
4246	0	62640	
4247	0	62528	
4248	0	62416	
4249	0	62304	
4250	0	58364	
4251	0	51552	
4252	0	45600	
4253	0	40248	
4254	0	35676	
4255	0	32034	
4256	0	29260	
4257	0	27228	
4258	0	25840	
4259	0	24980	
4260	0	24408	
4261	0	23988	
4262	0	23676	
4263	0	23412	
4264	0	23178	
4265	0	22948	
4266	0	22746	
4267	0	22668	
4268	0	22704	
4269	0	22806	
4270	0	22924	
4271	0	23128	
4272	0	23384	
4273	0	23714	
4274	0	24164	
4275	0	24778	
4276	0	25444	
4277	0	26036	
4278	0	26612	
4279	0	27144	
4280	0	27544	
4281	0	27800	
4282	0	28000	
4283	0	28228	
4284	0	28472	
4285	0	28728	
4286	0	28960	
4287	0	29072	
4288	0	29140	
4289	0	29176	
4290	0	29210	
4291	0	29236	
4292	0	29230	
4293	0	29248	
4294	0	29280	
4295	0	29312	
4296	0	29340	
4297	0	29380	
4298	0	29440	
4299	0	29456	
4300	0	29504	
4301	0	29568	
4302	0	29652	
4303	0	29701	
4304	0	29722	
4305	0	29772	
4306	0	29816	
4307	0	29840	
4308	0	29848	
4309	0	29888	
4310	0	29948	
4311	0	29976	
4312	0	29984	
4313	0	30032	
4314	0	30084	
4315	0	30088	
4316	0	30110	
4317	0	30144	
4318	0	30208	
4319	0	30272	
4320	0	30340	
4321	0	30424	
4322	0	30472	
4323	0	30528	
4324	0	30592	
4325	0	30652	
4326	0	30732	
4327	0	30792	
4328	0	30832	
4329	0	30884	
4330	0	30944	
4331	0	30996	
4332	0	31024	
4333	0	31032	
4334	0	31048	
4335	0	31068	
4336	0	31126	
4337	0	31192	
4338	0	31244	
4339	0	31280	
4340	0	31296	
4341	0	31336	
4342	0	31400	
4343	0	31472	
4344	0	31524	
4345	0	31576	
4346	0	31612	
4347	0	31652	
4348	0	31738	
4349	0	31802	
4350	0	31836	
4351	0	31884	
4352	0	31912	
4353	0	31930	
4354	0	31968	
4355	0	32032	
4356	0	32094	
4357	0	32160	
4358	0	32202	
4359	0	32236	
4360	0	32232	
4361	0	32260	
4362	0	32328	
4363	0	32372	
4364	0	32388	
4365	0	32396	
4366	0	32396	
4367	0	32360	
4368	0	32320	
4369	0	32328	
4370	0	32356	
4371	0	32388	
4372	0	32448	
4373	0	32486	
4374	0	32512	
4375	0	32544	
4376	0	32546	
4377	0	32580	
4378	0	32640	
4379	0	32664	
4380	0	32676	
4381	0	32716	
4382	0	32780	
4383	0	32824	
4384	0	32872	
4385	0	32900	
4386	0	32960	
4387	0	33044	
4388	0	33112	
4389	0	33172	
4390	0	33252	
4391	0	33288	
4392	0	33326	
4393	0	33384	
4394	0	33424	
4395	0	33464	
4396	0	33516	
4397	0	33568	
4398	0	33644	
4399	0	33674	
4400	0	33720	
4401	0	33748	
4402	0	33832	
4403	0	33928	
4404	0	34008	
4405	0	34028	
4406	0	34076	
4407	0	34116	
4408	0	34156	
4409	0	34176	
4410	0	34240	
4411	0	34346	
4412	0	34426	
4413	0	34472	
4414	0	34524	
4415	0	34600	
4416	0	34628	
4417	0	34664	
4418	0	34724	
4419	0	34776	
4420	0	34860	
4421	0	34924	
4422	0	34968	
4423	0	35020	
4424	0	35092	
4425	0	35136	
4426	0	35184	
4427	0	35240	
4428	0	35328	
4429	0	35440	
4430	0	35568	
4431	0	35680	
4432	0	35764	
4433	0	35868	
4434	0	35960	
4435	0	36008	
4436	0	36088	
4437	0	36178	
4438	0	36260	
4439	0	36360	
4440	0	36444	
4441	0	36520	
4442	0	36580	
4443	0	36664	
4444	0	36760	
4445	0	36852	
4446	0	36928	
4447	0	37050	
4448	0	37152	
4449	0	37240	
4450	0	37360	
4451	0	37456	
4452	0	37568	
4453	0	37676	
4454	0	37768	
4455	0	37868	
4456	0	37976	
4457	0	38088	
4458	0	38212	
4459	0	38336	
4460	0	38420	
4461	0	38484	
4462	0	38560	
4463	0	38676	
4464	0	38800	
4465	0	38952	
4466	0	39080	
4467	0	39208	
4468	0	39312	
4469	0	39456	
4470	0	39556	
4471	0	39656	
4472	0	39740	
4473	0	39824	
4474	0	39948	
4475	0	40040	
4476	0	40092	
4477	0	40148	
4478	0	40252	
4479	0	40332	
4480	0	40412	
4481	0	40488	
4482	0	40540	
4483	0	40584	
4484	0	40680	
4485	0	40748	
4486	0	40840	
4487	0	40916	
4488	0	41012	
4489	0	41088	
4490	0	41104	
4491	0	41124	
4492	0	41152	
4493	0	41196	
4494	0	41240	
4495	0	41248	
4496	0	41268	
4497	0	41264	
4498	0	41248	
4499	0	41248	
4500	0	41268	
4501	0	41260	
4502	0	41224	
4503	0	41172	
4504	0	41100	
4505	0	41020	
4506	0	40968	
4507	0	40920	
4508	0	40866	
4509	0	40812	
4510	0	40780	
4511	0	40740	
4512	0	40684	
4513	0	40592	
4514	0	40524	
4515	0	40416	
4516	0	40316	
4517	0	40184	
4518	0	40036	
4519	0	39864	
4520	0	39680	
4521	0	39492	
4522	0	39320	
4523	0	39128	
4524	0	38924	
4525	0	38708	
4526	0	38484	
4527	0	38284	
4528	0	38088	
4529	0	37868	
4530	0	37628	
4531	0	37360	
4532	0	37104	
4533	0	36832	
4534	0	36552	
4535	0	36296	
4536	0	36016	
4537	0	35716	
4538	0	35450	
4539	0	35160	
4540	0	34872	
4541	0	34588	
4542	0	34292	
4543	0	33984	
4544	0	33708	
4545	0	33412	
4546	0	33122	
4547	0	32832	
4548	0	32584	
4549	0	32344	
4550	0	32116	
4551	0	31840	
4552	0	31588	
4553	0	31376	
4554	0	31152	
4555	0	30938	
4556	0	30704	
4557	0	30448	
4558	0	30212	
4559	0	29992	
4560	0	29800	
4561	0	29584	
4562	0	29352	
4563	0	29144	
4564	0	28968	
4565	0	28810	
4566	0	28636	
4567	0	28436	
4568	0	28248	
4569	0	28072	
4570	0	27920	
4571	0	27788	
4572	0	27656	
4573	0	27544	
4574	0	27424	
4575	0	27300	
4576	0	27184	
4577	0	27080	
4578	0	26976	
4579	0	26866	
4580	0	26734	
4581	0	26622	
4582	0	26522	
4583	0	26464	
4584	0	26432	
4585	0	26412	
4586	0	26380	
4587	0	26340	
4588	0	26284	
4589	0	26240	
4590	0	26236	
4591	0	26216	
4592	0	26212	
4593	0	26204	
4594	0	26148	
4595	0	26108	
4596	0	26078	
4597	0	26056	
4598	0	26028	
4599	0	26028	
4600	0	26032	
4601	0	26042	
4602	0	26004	
4603	0	26012	
4604	0	26044	
4605	0	26072	
4606	0	26100	
4607	0	26160	
4608	0	26196	
4609	0	26218	
4610	0	26242	
4611	0	26292	
4612	0	26328	
4613	0	26380	
4614	0	26426	
4615	0	26428	
4616	0	26428	
4617	0	26460	
4618	0	26490	
4619	0	26508	
4620	0	26528	
4621	0	26580	
4622	0	26654	
4623	0	26720	
4624	0	26802	
4625	0	26872	
4626	0	26940	
4627	0	26996	
4628	0	27052	
4629	0	27108	
4630	0	27160	
4631	0	27196	
4632	0	27252	
4633	0	27298	
4634	0	27332	
4635	0	27384	
4636	0	27434	
4637	0	27496	
4638	0	27544	
4639	0	27620	
4640	0	27712	
4641	0	27800	
4642	0	27840	
4643	0	27912	
4644	0	27992	
4645	0	28080	
4646	0	28152	
4647	0	28208	
4648	0	28268	
4649	0	28324	
4650	0	28380	
4651	0	28432	
4652	0	28480	
4653	0	28570	
4654	0	28644	
4655	0	28668	
4656	0	28680	
4657	0	28704	
4658	0	28756	
4659	0	28800	
4660	0	28840	
4661	0	28868	
4662	0	28956	
4663	0	29006	
4664	0	29008	
4665	0	28996	
4666	0	29004	
4667	0	29037	
4668	0	29088	
4669	0	29172	
4670	0	29260	
4671	0	29344	
4672	0	29398	
4673	0	29452	
4674	0	29508	
4675	0	29548	
4676	0	29544	
4677	0	29552	
4678	0	29610	
4679	0	29636	
4680	0	29664	
4681	0	29704	
4682	0	29736	
4683	0	29748	
4684	0	29752	
4685	0	29768	
4686	0	29818	
4687	0	29856	
4688	0	29900	
4689	0	29924	
4690	0	29944	
4691	0	29976	
4692	0	30024	
4693	0	30068	
4694	0	30106	
4695	0	30152	
4696	0	30192	
4697	0	30210	
4698	0	30216	
4699	0	30224	
4700	0	30264	
4701	0	30288	
4702	0	30292	
4703	0	30320	
4704	0	30352	
4705	0	30416	
4706	0	30448	
4707	0	30496	
4708	0	30554	
4709	0	30586	
4710	0	30624	
4711	0	30640	
4712	0	30632	
4713	0	30640	
4714	0	30640	
4715	0	30668	
4716	0	30690	
4717	0	30672	
4718	0	30656	
4719	0	30648	
4720	0	30608	
4721	0	30592	
4722	0	30564	
4723	0	30564	
4724	0	30576	
4725	0	30576	
4726	0	30588	
4727	0	30588	
4728	0	30592	
4729	0	30608	
4730	0	30632	
4731	0	30644	
4732	0	30684	
4733	0	30728	
4734	0	30724	
4735	0	30690	
4736	0	30680	
4737	0	30692	
4738	0	30712	
4739	0	30744	
4740	0	30768	
4741	0	30772	
4742	0	30768	
4743	0	30732	
4744	0	30712	
4745	0	30709	
4746	0	30688	
4747	0	30672	
4748	0	30640	
4749	0	30604	
4750	0	30628	
4751	0	30636	
4752	0	30672	
4753	0	30676	
4754	0	30672	
4755	0	30660	
4756	0	30688	
4757	0	30700	
4758	0	30688	
4759	0	30680	
4760	0	30692	
4761	0	30682	
4762	0	30690	
4763	0	30716	
4764	0	30728	
4765	0	30732	
4766	0	30740	
4767	0	30752	
4768	0	30752	
4769	0	30784	
4770	0	30844	
4771	0	30872	
4772	0	30854	
4773	0	30834	
4774	0	30836	
4775	0	30840	
4776	0	30840	
4777	0	30848	
4778	0	30832	
4779	0	30792	
4780	0	30778	
4781	0	30752	
4782	0	30736	
4783	0	30764	
4784	0	30816	
4785	0	30868	
4786	0	30904	
4787	0	30932	
4788	0	30932	
4789	0	30948	
4790	0	30992	
4791	0	31024	
4792	0	31036	
4793	0	31048	
4794	0	31060	
4795	0	31072	
4796	0	31120	
4797	0	31144	
4798	0	31112	
4799	0	31080	
4800	0	31042	
4801	0	31040	
4802	0	31104	
4803	0	31164	
4804	0	31180	
4805	0	31208	
4806	0	31232	
4807	0	31248	
4808	0	31268	
4809	0	31288	
4810	0	31316	
4811	0	31336	
4812	0	31336	
4813	0	31348	
4814	0	31324	
4815	0	31286	
4816	0	31256	
4817	0	31232	
4818	0	31244	
4819	0	31264	
4820	0	31260	
4821	0	31248	
4822	0	31248	
4823	0	31268	
4824	0	31290	
4825	0	31296	
4826	0	31308	
4827	0	31344	
4828	0	31388	
4829	0	31436	
4830	0	31456	
4831	0	31488	
4832	0	31528	
4833	0	31560	
4834	0	31584	
4835	0	31580	
4836	0	31576	
4837	0	31536	
4838	0	31520	
4839	0	31532	
4840	0	31528	
4841	0	31504	
4842	0	31512	
4843	0	31528	
4844	0	31568	
4845	0	31662	
4846	0	31712	
4847	0	31696	
4848	0	31684	
4849	0	31676	
4850	0	31684	
4851	0	31672	
4852	0	31680	
4853	0	31712	
4854	0	31728	
4855	0	31748	
4856	0	31736	
4857	0	31748	
4858	0	31776	
4859	0	31776	
4860	0	31770	
4861	0	31738	
4862	0	31728	
4863	0	31760	
4864	0	31792	
4865	0	31824	
4866	0	31840	
4867	0	31848	
4868	0	31840	
4869	0	31836	
4870	0	31848	
4871	0	31872	
4872	0	31920	
4873	0	31976	
4874	0	32016	
4875	0	32044	
4876	0	32028	
4877	0	32012	
4878	0	31994	
4879	0	31972	
4880	0	32008	
4881	0	32056	
4882	0	32104	
4883	0	32144	
4884	0	32164	
4885	0	32156	
4886	0	32150	
4887	0	32156	
4888	0	32172	
4889	0	32192	
4890	0	32208	
4891	0	32228	
4892	0	32272	
4893	0	32304	
4894	0	32332	
4895	0	32316	
4896	0	32308	
4897	0	32322	
4898	0	32308	
4899	0	32312	
4900	0	32304	
4901	0	32306	
4902	0	32300	
4903	0	32280	
4904	0	32288	
4905	0	32282	
4906	0	32256	
4907	0	32280	
4908	0	32292	
4909	0	32312	
4910	0	32340	
4911	0	32368	
4912	0	32410	
4913	0	32432	
4914	0	32452	
4915	0	32448	
4916	0	32456	
4917	0	32446	
4918	0	32436	
4919	0	32448	
4920	0	32452	
4921	0	32448	
4922	0	32408	
4923	0	32392	
4924	0	32428	
4925	0	32448	
4926	0	32460	
4927	0	32456	
4928	0	32458	
4929	0	32480	
4930	0	32490	
4931	0	32504	
4932	0	32516	
4933	0	32504	
4934	0	32488	
4935	0	32488	
4936	0	32464	
4937	0	32468	
4938	0	32480	
4939	0	32512	
4940	0	32500	
4941	0	32496	
4942	0	32528	
4943	0	32560	
4944	0	32596	
4945	0	32628	
4946	0	32660	
4947	0	32672	
4948	0	32668	
4949	0	32668	
4950	0	32708	
4951	0	32744	
4952	0	32764	
4953	0	32796	
4954	0	32828	
4955	0	32860	
4956	0	32878	
4957	0	32864	
4958	0	32832	
4959	0	32800	
4960	0	32775	
4961	0	32732	
4962	0	32744	
4963	0	32730	
4964	0	32720	
4965	0	32764	
4966	0	32808	
4967	0	32874	
4968	0	32904	
4969	0	32924	
4970	0	32928	
4971	0	32956	
4972	0	32980	
4973	0	32960	
4974	0	32908	
4975	0	32892	
4976	0	32940	
4977	0	33034	
4978	0	33160	
4979	0	33280	
4980	0	33400	
4981	0	33532	
4982	0	33624	
4983	0	33688	
4984	0	33772	
4985	0	33844	
4986	0	33884	
4987	0	33892	
4988	0	33892	
4989	0	33888	
4990	0	33868	
4991	0	33844	
4992	0	33912	
4993	0	34014	
4994	0	34140	
4995	0	34228	
4996	0	34344	
4997	0	34460	
4998	0	34600	
4999	0	34824	
5000	0	35050	
5001	0	35180	
5002	0	35200	
5003	0	35156	
5004	0	35084	
5005	0	34996	
5006	0	34928	
5007	0	34880	
5008	0	34872	
5009	0	34868	
5010	0	34856	
5011	0	34784	
5012	0	34700	
5013	0	34640	
5014	0	34660	
5015	0	34728	
5016	0	34848	
5017	0	34972	
5018	0	35084	
5019	0	35172	
5020	0	35228	
5021	0	35200	
5022	0	35160	
5023	0	35172	
5024	0	35188	
5025	0	35184	
5026	0	35128	
5027	0	35040	
5028	0	34904	
5029	0	34778	
5030	0	34684	
5031	0	34548	
5032	0	34396	
5033	0	34288	
5034	0	34228	
5035	0	34172	
5036	0	34092	
5037	0	33976	
5038	0	33834	
5039	0	33698	
5040	0	33562	
5041	0	33370	
5042	0	33124	
5043	0	32832	
5044	0	32544	
5045	0	32276	
5046	0	32068	
5047	0	31936	
5048	0	31888	
5049	0	31872	
5050	0	31904	
5051	0	31912	
5052	0	31936	
5053	0	31916	
5054	0	31880	
5055	0	31880	
5056	0	31856	
5057	0	31862	
5058	0	31872	
5059	0	31888	
5060	0	31900	
5061	0	31924	
5062	0	31938	
5063	0	31936	
5064	0	31956	
5065	0	31994	
5066	0	32004	
5067	0	32008	
5068	0	32032	
5069	0	32048	
5070	0	32128	
5071	0	32168	
5072	0	32192	
5073	0	32200	
5074	0	32196	
5075	0	32224	
5076	0	32262	
5077	0	32276	
5078	0	32296	
5079	0	32312	
5080	0	32346	
5081	0	32376	
5082	0	32384	
5083	0	32384	
5084	0	32408	
5085	0	32444	
5086	0	32484	
5087	0	32498	
5088	0	32520	
5089	0	32564	
5090	0	32612	
5091	0	32648	
5092	0	32688	
5093	0	32720	
5094	0	32732	
5095	0	32738	
5096	0	32752	
5097	0	32788	
5098	0	32828	
5099	0	32840	
5100	0	32864	
5101	0	32900	
5102	0	32920	
5103	0	32940	
5104	0	32968	
5105	0	33004	
5106	0	33014	
5107	0	33036	
5108	0	33040	
5109	0	33008	
5110	0	32952	
5111	0	32912	
5112	0	32844	
5113	0	32680	
5114	0	32468	
5115	0	32136	
5116	0	31668	
5117	0	31068	
5118	0	30420	
5119	0	29872	
5120	0	29480	
5121	0	29184	
5122	0	29088	
5123	0	29176	
5124	0	29432	
5125	0	29904	
5126	0	30496	
5127	0	31156	
5128	0	32040	
5129	0	33118	
5130	0	34336	
5131	0	35720	
5132	0	37280	
5133	0	39124	
5134	0	41296	
5135	0	43668	
5136	0	46332	
5137	0	49168	
5138	0	52056	
5139	0	55044	
5140	0	58208	
5141	0	60776	
5142	0	62176	
5143	0	62884	
5144	0	63224	
5145	0	63352	
5146	0	63380	
5147	0	63312	
5148	0	63252	
5149	0	63160	
5150	0	63052	
5151	0	62952	
5152	0	62816	
5153	0	62720	
5154	0	62608	
5155	0	62484	
5156	0	62368	
5157	0	62240	
5158	0	59544	
5159	0	52464	
5160	0	46156	
5161	0	40688	
5162	0	35900	
5163	0	31860	
5164	0	28648	
5165	0	26248	
5166	0	24836	
5167	0	24048	
5168	0	23566	
5169	0	23258	
5170	0	23040	
5171	0	22808	
5172	0	22616	
5173	0	22476	
5174	0	22420	
5175	0	22484	
5176	0	22620	
5177	0	22856	
5178	0	23152	
5179	0	23596	
5180	0	24350	
5181	0	25228	
5182	0	26032	
5183	0	26746	
5184	0	27356	
5185	0	27848	
5186	0	28232	
5187	0	28516	
5188	0	28712	
5189	0	28980	
5190	0	29230	
5191	0	29460	
5192	0	29602	
5193	0	29668	
5194	0	29672	
5195	0	29664	
5196	0	29648	
5197	0	29608	
5198	0	29588	
5199	0	29580	
5200	0	29580	
5201	0	29600	
5202	0	29660	
5203	0	29696	
5204	0	29728	
5205	0	29742	
5206	0	29768	
5207	0	29832	
5208	0	29860	
5209	0	29888	
5210	0	29944	
5211	0	29996	
5212	0	30032	
5213	0	30070	
5214	0	30128	
5215	0	30200	
5216	0	30234	
5217	0	30268	
5218	0	30276	
5219	0	30276	
5220	0	30312	
5221	0	30376	
5222	0	30408	
5223	0	30436	
5224	0	30464	
5225	0	30496	
5226	0	30532	
5227	0	30608	
5228	0	30658	
5229	0	30704	
5230	0	30766	
5231	0	30824	
5232	0	30876	
5233	0	30936	
5234	0	30990	
5235	0	31024	
5236	0	31096	
5237	0	31132	
5238	0	31138	
5239	0	31192	
5240	0	31260	
5241	0	31296	
5242	0	31312	
5243	0	31368	
5244	0	31424	
5245	0	31456	
5246	0	31476	
5247	0	31484	
5248	0	31496	
5249	0	31524	
5250	0	31572	
5251	0	31658	
5252	0	31732	
5253	0	31796	
5254	0	31856	
5255	0	31896	
5256	0	31884	
5257	0	31866	
5258	0	31880	
5259	0	31928	
5260	0	32000	
5261	0	32036	
5262	0	32052	
5263	0	32060	
5264	0	32096	
5265	0	32100	
5266	0	32128	
5267	0	32184	
5268	0	32248	
5269	0	32296	
5270	0	32368	
5271	0	32440	
5272	0	32480	
5273	0	32530	
5274	0	32592	
5275	0	32644	
5276	0	32656	
5277	0	32724	
5278	0	32772	
5279	0	32800	
5280	0	32836	
5281	0	32852	
5282	0	32864	
5283	0	32888	
5284	0	32928	
5285	0	32944	
5286	0	32976	
5287	0	33048	
5288	0	33060	
5289	0	33064	
5290	0	33138	
5291	0	33192	
5292	0	33252	
5293	0	33342	
5294	0	33404	
5295	0	33484	
5296	0	33508	
5297	0	33524	
5298	0	33584	
5299	0	33652	
5300	0	33680	
5301	0	33720	
5302	0	33760	
5303	0	33788	
5304	0	33776	
5305	0	33812	
5306	0	33880	
5307	0	33948	
5308	0	34014	
5309	0	34020	
5310	0	34104	
5311	0	34212	
5312	0	34306	
5313	0	34372	
5314	0	34464	
5315	0	34500	
5316	0	34512	
5317	0	34548	
5318	0	34532	
5319	0	34580	
5320	0	34656	
5321	0	34690	
5322	0	34772	
5323	0	34880	
5324	0	34956	
5325	0	34960	
5326	0	35016	
5327	0	35076	
5328	0	35168	
5329	0	35224	
5330	0	35280	
5331	0	35344	
5332	0	35460	
5333	0	35568	
5334	0	35652	
5335	0	35704	
5336	0	35788	
5337	0	35846	
5338	0	35912	
5339	0	35960	
5340	0	35988	
5341	0	36050	
5342	0	36158	
5343	0	36240	
5344	0	36304	
5345	0	36408	
5346	0	36528	
5347	0	36640	
5348	0	36740	
5349	0	36832	
5350	0	36932	
5351	0	37028	
5352	0	37114	
5353	0	37204	
5354	0	37300	
5355	0	37356	
5356	0	37448	
5357	0	37528	
5358	0	37604	
5359	0	37684	
5360	0	37788	
5361	0	37888	
5362	0	37968	
5363	0	38076	
5364	0	38180	
5365	0	38316	
5366	0	38460	
5367	0	38648	
5368	0	38808	
5369	0	38920	
5370	0	39028	
5371	0	39176	
5372	0	39284	
5373	0	39406	
5374	0	39520	
5375	0	39624	
5376	0	39724	
5377	0	39814	
5378	0	39848	
5379	0	39902	
5380	0	40040	
5381	0	40164	
5382	0	40264	
5383	0	40368	
5384	0	40504	
5385	0	40593	
5386	0	40684	
5387	0	40798	
5388	0	40888	
5389	0	41000	
5390	0	41048	
5391	0	41100	
5392	0	41192	
5393	0	41276	
5394	0	41344	
5395	0	41432	
5396	0	41508	
5397	0	41568	
5398	0	41552	
5399	0	41556	
5400	0	41608	
5401	0	41626	
5402	0	41640	
5403	0	41628	
5404	0	41612	
5405	0	41626	
5406	0	41664	
5407	0	41680	
5408	0	41660	
5409	0	41692	
5410	0	41716	
5411	0	41700	
5412	0	41652	
5413	0	41600	
5414	0	41536	
5415	0	41508	
5416	0	41472	
5417	0	41440	
5418	0	41388	
5419	0	41340	
5420	0	41268	
5421	0	41144	
5422	0	41052	
5423	0	40968	
5424	0	40896	
5425	0	40788	
5426	0	40676	
5427	0	40540	
5428	0	40368	
5429	0	40168	
5430	0	40028	
5431	0	39868	
5432	0	39688	
5433	0	39462	
5434	0	39224	
5435	0	39004	
5436	0	38776	
5437	0	38528	
5438	0	38276	
5439	0	38032	
5440	0	37748	
5441	0	37476	
5442	0	37208	
5443	0	36932	
5444	0	36616	
5445	0	36332	
5446	0	36060	
5447	0	35796	
5448	0	35496	
5449	0	35208	
5450	0	34920	
5451	0	34608	
5452	0	34368	
5453	0	34112	
5454	0	33820	
5455	0	33518	
5456	0	33272	
5457	0	33000	
5458	0	32688	
5459	0	32430	
5460	0	32172	
5461	0	31900	
5462	0	31596	
5463	0	31320	
5464	0	31024	
5465	0	30780	
5466	0	30532	
5467	0	30352	
5468	0	30164	
5469	0	29930	
5470	0	29668	
5471	0	29432	
5472	0	29226	
5473	0	29072	
5474	0	28892	
5475	0	28704	
5476	0	28476	
5477	0	28272	
5478	0	28128	
5479	0	27988	
5480	0	27840	
5481	0	27682	
5482	0	27516	
5483	0	27412	
5484	0	27326	
5485	0	27188	
5486	0	27020	
5487	0	26908	
5488	0	26866	
5489	0	26792	
5490	0	26684	
5491	0	26620	
5492	0	26592	
5493	0	26544	
5494	0	26484	
5495	0	26412	
5496	0	26340	
5497	0	26282	
5498	0	26186	
5499	0	26170	
5500	0	26176	
5501	0	26144	
5502	0	26104	
5503	0	26060	
5504	0	26084	
5505	0	26084	
5506	0	26066	
5507	0	26060	
5508	0	26072	
5509	0	26136	
5510	0	26192	
5511	0	26224	
5512	0	26256	
5513	0	26272	
5514	0	26246	
5515	0	26240	
5516	0	26264	
5517	0	26212	
5518	0	26236	
5519	0	26268	
5520	0	26240	
5521	0	26182	
5522	0	26200	
5523	0	26220	
5524	0	26280	
5525	0	26320	
5526	0	26402	
5527	0	26468	
5528	0	26528	
5529	0	26542	
5530	0	26556	
5531	0	26624	
5532	0	26684	
5533	0	26718	
5534	0	26764	
5535	0	26832	
5536	0	26904	
5537	0	26932	
5538	0	26944	
5539	0	26960	
5540	0	26980	
5541	0	27002	
5542	0	27072	
5543	0	27116	
5544	0	27200	
5545	0	27292	
5546	0	27316	
5547	0	27356	
5548	0	27450	
5549	0	27522	
5550	0	27600	
5551	0	27652	
5552	0	27704	
5553	0	27744	
5554	0	27760	
5555	0	27744	
5556	0	27756	
5557	0	27792	
5558	0	27880	
5559	0	27968	
5560	0	28068	
5561	0	28112	
5562	0	28124	
5563	0	28176	
5564	0	28208	
5565	0	28244	
5566	0	28292	
5567	0	28340	
5568	0	28392	
5569	0	28448	
5570	0	28536	
5571	0	28604	
5572	0	28700	
5573	0	28760	
5574	0	28804	
5575	0	28832	
5576	0	28896	
5577	0	28980	
5578	0	29024	
5579	0	29004	
5580	0	29016	
5581	0	29044	
5582	0	29060	
5583	0	29100	
5584	0	29148	
5585	0	29152	
5586	0	29188	
5587	0	29252	
5588	0	29320	
5589	0	29380	
5590	0	29392	
5591	0	29428	
5592	0	29452	
5593	0	29516	
5594	0	29584	
5595	0	29616	
5596	0	29632	
5597	0	29724	
5598	0	29788	
5599	0	29788	
5600	0	29812	
5601	0	29864	
5602	0	29848	
5603	0	29876	
5604	0	29904	
5605	0	29944	
5606	0	30036	
5607	0	30074	
5608	0	30088	
5609	0	30096	
5610	0	30136	
5611	0	30144	
5612	0	30184	
5613	0	30232	
5614	0	30272	
5615	0	30332	
5616	0	30366	
5617	0	30340	
5618	0	30296	
5619	0	30292	
5620	0	30292	
5621	0	30308	
5622	0	30280	
5623	0	30288	
5624	0	30334	
5625	0	30404	
5626	0	30444	
5627	0	30432	
5628	0	30432	
5629	0	30400	
5630	0	30392	
5631	0	30438	
5632	0	30494	
5633	0	30548	
5634	0	30544	
5635	0	30556	
5636	0	30564	
5637	0	30536	
5638	0	30528	
5639	0	30504	
5640	0	30524	
5641	0	30548	
5642	0	30592	
5643	0	30586	
5644	0	30536	
5645	0	30532	
5646	0	30544	
5647	0	30540	
5648	0	30532	
5649	0	30584	
5650	0	30644	
5651	0	30700	
5652	0	30664	
5653	0	30594	
5654	0	30584	
5655	0	30632	
5656	0	30696	
5657	0	30664	
5658	0	30644	
5659	0	30586	
5660	0	30572	
5661	0	30596	
5662	0	30620	
5663	0	30640	
5664	0	30656	
5665	0	30672	
5666	0	30640	
5667	0	30632	
5668	0	30644	
5669	0	30648	
5670	0	30668	
5671	0	30720	
5672	0	30728	
5673	0	30732	
5674	0	30772	
5675	0	30770	
5676	0	30748	
5677	0	30772	
5678	0	30816	
5679	0	30796	
5680	0	30768	
5681	0	30752	
5682	0	30772	
5683	0	30804	
5684	0	30822	
5685	0	30798	
5686	0	30848	
5687	0	30864	
5688	0	30852	
5689	0	30880	
5690	0	30892	
5691	0	30916	
5692	0	30936	
5693	0	30980	
5694	0	30992	
5695	0	31016	
5696	0	31044	
5697	0	31064	
5698	0	31034	
5699	0	30984	
5700	0	30968	
5701	0	30944	
5702	0	30944	
5703	0	30888	
5704	0	30900	
5705	0	30998	
5706	0	31080	
5707	0	31088	
5708	0	31108	
5709	0	31112	
5710	0	31108	
5711	0	31172	
5712	0	31244	
5713	0	31276	
5714	0	31272	
5715	0	31236	
5716	0	31248	
5717	0	31232	
5718	0	31280	
5719	0	31340	
5720	0	31344	
5721	0	31304	
5722	0	31248	
5723	0	31212	
5724	0	31280	
5725	0	31272	
5726	0	31280	
5727	0	31320	
5728	0	31360	
5729	0	31416	
5730	0	31416	
5731	0	31388	
5732	0	31376	
5733	0	31464	
5734	0	31548	
5735	0	31554	
5736	0	31548	
5737	0	31524	
5738	0	31488	
5739	0	31444	
5740	0	31514	
5741	0	31586	
5742	0	31612	
5743	0	31616	
5744	0	31624	
5745	0	31620	
5746	0	31596	
5747	0	31580	
5748	0	31572	
5749	0	31594	
5750	0	31560	
5751	0	31560	
5752	0	31612	
5753	0	31604	
5754	0	31616	
5755	0	31612	
5756	0	31620	
5757	0	31676	
5758	0	31697	
5759	0	31728	
5760	0	31792	
5761	0	31812	
5762	0	31840	
5763	0	31816	
5764	0	31714	
5765	0	31656	
5766	0	31696	
5767	0	31696	
5768	0	31752	
5769	0	31780	
5770	0	31800	
5771	0	31784	
5772	0	31752	
5773	0	31808	
5774	0	31872	
5775	0	31856	
5776	0	31904	
5777	0	31948	
5778	0	31936	
5779	0	31944	
5780	0	31948	
5781	0	31916	
5782	0	31840	
5783	0	31864	
5784	0	31914	
5785	0	31936	
5786	0	31908	
5787	0	31872	
5788	0	31920	
5789	0	32020	
5790	0	32012	
5791	0	32040	
5792	0	32128	
5793	0	32152	
5794	0	32172	
5795	0	32168	
5796	0	32152	
5797	0	32144	
5798	0	32104	
5799	0	32132	
5800	0	32184	
5801	0	32260	
5802	0	32258	
5803	0	32200	
5804	0	32144	
5805	0	32096	
5806	0	32128	
5807	0	32180	
5808	0	32192	
5809	0	32200	
5810	0	32204	
5811	0	32184	
5812	0	32188	
5813	0	32232	
5814	0	32248	
5815	0	32216	
5816	0	32206	
5817	0	32236	
5818	0	32276	
5819	0	32364	
5820	0	32298	
5821	0	32216	
5822	0	32212	
5823	0	32216	
5824	0	32146	
5825	0	32136	
5826	0	32228	
5827	0	32264	
5828	0	32260	
5829	0	32308	
5830	0	32352	
5831	0	32356	
5832	0	32364	
5833	0	32396	
5834	0	32444	
5835	0	32488	
5836	0	32492	
5837	0	32484	
5838	0	32460	
5839	0	32508	
5840	0	32524	
5841	0	32492	
5842	0	32416	
5843	0	32432	
5844	0	32452	
5845	0	32496	
5846	0	32506	
5847	0	32466	
5848	0	32424	
5849	0	32410	
5850	0	32392	
5851	0	32444	
5852	0	32468	
5853	0	32496	
5854	0	32514	
5855	0	32496	
5856	0	32516	
5857	0	32564	
5858	0	32622	
5859	0	32628	
5860	0	32660	
5861	0	32672	
5862	0	32672	
5863	0	32696	
5864	0	32660	
5865	0	32616	
5866	0	32668	
5867	0	32688	
5868	0	32704	
5869	0	32710	
5870	0	32756	
5871	0	32824	
5872	0	32840	
5873	0	32812	
5874	0	32756	
5875	0	32736	
5876	0	32720	
5877	0	32704	
5878	0	32720	
5879	0	32764	
5880	0	32740	
5881	0	32664	
5882	0	32664	
5883	0	32684	
5884	0	32704	
5885	0	32712	
5886	0	32784	
5887	0	32864	
5888	0	32884	
5889	0	32842	
5890	0	32834	
5891	0	32856	
5892	0	32872	
5893	0	32872	
5894	0	32832	
5895	0	32820	
5896	0	32832	
5897	0	32844	
5898	0	32856	
5899	0	32848	
5900	0	32864	
5901	0	32868	
5902	0	32852	
5903	0	32872	
5904	0	32916	
5905	0	32916	
5906	0	32908	
5907	0	32960	
5908	0	32992	
5909	0	33004	
5910	0	33012	
5911	0	33008	
5912	0	33030	
5913	0	33088	
5914	0	33124	
5915	0	33144	
5916	0	33128	
5917	0	33112	
5918	0	33084	
5919	0	33024	
5920	0	33010	
5921	0	33028	
5922	0	33050	
5923	0	33068	
5924	0	33092	
5925	0	33108	
5926	0	33140	
5927	0	33152	
5928	0	33176	
5929	0	33180	
5930	0	33164	
5931	0	33136	
5932	0	33124	
5933	0	33144	
5934	0	33144	
5935	0	33144	
5936	0	33152	
5937	0	33148	
5938	0	33164	
5939	0	33176	
5940	0	33192	
5941	0	33184	
5942	0	33136	
5943	0	33112	
5944	0	33088	
5945	0	33092	
5946	0	33084	
5947	0	33072	
5948	0	33112	
5949	0	33120	
5950	0	33116	
5951	0	33116	
5952	0	33144	
5953	0	33176	
5954	0	33216	
5955	0	33280	
5956	0	33276	
5957	0	33260	
5958	0	33272	
5959	0	33312	
5960	0	33332	
5961	0	33348	
5962	0	33344	
5963	0	33364	
5964	0	33436	
5965	0	33448	
5966	0	33428	
5967	0	33456	
5968	0	33540	
5969	0	33648	
5970	0	33776	
5971	0	33872	
5972	0	33932	
5973	0	33992	
5974	0	34024	
5975	0	34048	
5976	0	34144	
5977	0	34224	
5978	0	34244	
5979	0	34188	
5980	0	34128	
5981	0	34064	
5982	0	34024	
5983	0	34052	
5984	0	34064	
5985	0	34108	
5986	0	34168	
5987	0	34240	
5988	0	34322	
5989	0	34428	
5990	0	34580	
5991	0	34784	
5992	0	35028	
5993	0	35180	
5994	0	35196	
5995	0	35124	
5996	0	35016	
5997	0	34912	
5998	0	34872	
5999	0	34864	
6000	0	34868	
6001	0	34824	
6002	0	34820	
6003	0	34816	
6004	0	34760	
6005	0	34764	
6006	0	34822	
6007	0	34916	
6008	0	34996	
6009	0	35108	
6010	0	35160	
6011	0	35212	
6012	0	35196	
6013	0	35104	
6014	0	35050	
6015	0	35104	
6016	0	35156	
6017	0	35184	
6018	0	35180	
6019	0	35104	
6020	0	34996	
6021	0	34896	
6022	0	34746	
6023	0	34596	
6024	0	34484	
6025	0	34380	
6026	0	34312	
6027	0	34268	
6028	0	34204	
6029	0	34096	
6030	0	34004	
6031	0	33940	
6032	0	33860	
6033	0	33676	
6034	0	33368	
6035	0	33016	
6036	0	32720	
6037	0	32492	
6038	0	32320	
6039	0	32192	
6040	0	32068	
6041	0	31980	
6042	0	31940	
6043	0	31964	
6044	0	31964	
6045	0	31976	
6046	0	31982	
6047	0	31992	
6048	0	32000	
6049	0	32036	
6050	0	32072	
6051	0	32140	
6052	0	32180	
6053	0	32192	
6054	0	32224	
6055	0	32240	
6056	0	32300	
6057	0	32312	
6058	0	32320	
6059	0	32324	
6060	0	32320	
6061	0	32284	
6062	0	32280	
6063	0	32288	
6064	0	32312	
6065	0	32320	
6066	0	32340	
6067	0	32368	
6068	0	32360	
6069	0	32362	
6070	0	32396	
6071	0	32424	
6072	0	32442	
6073	0	32452	
6074	0	32488	
6075	0	32536	
6076	0	32568	
6077	0	32624	
6078	0	32680	
6079	0	32684	
6080	0	32676	
6081	0	32672	
6082	0	32684	
6083	0	32654	
6084	0	32628	
6085	0	32604	
6086	0	32600	
6087	0	32580	
6088	0	32560	
6089	0	32620	
6090	0	32708	
6091	0	32788	
6092	0	32794	
6093	0	32748	
6094	0	32736	
6095	0	32800	
6096	0	32864	
6097	0	32912	
6098	0	32936	
6099	0	32976	
6100	0	33020	
6101	0	33004	
6102	0	33012	
6103	0	32996	
6104	0	32972	
6105	0	32932	
6106	0	32876	
6107	0	32824	
6108	0	32676	
6109	0	32460	
6110	0	32276	
6111	0	32014	
6112	0	31584	
6113	0	31016	
6114	0	30392	
6115	0	29860	
6116	0	29436	
6117	0	29184	
6118	0	29120	
6119	0	29300	
6120	0	29608	
6121	0	30024	
6122	0	30576	
6123	0	31246	
6124	0	32148	
6125	0	33228	
6126	0	34406	
6127	0	35776	
6128	0	37352	
6129	0	39156	
6130	0	41244	
6131	0	43528	
6132	0	46112	
6133	0	48880	
6134	0	51770	
6135	0	54752	
6136	0	57876	
6137	0	60376	
6138	0	61736	
6139	0	62432	
6140	0	62752	
6141	0	62872	
6142	0	62888	
6143	0	62840	
6144	0	62772	
6145	0	62660	
6146	0	62572	
6147	0	62470	
6148	0	62352	
6149	0	62240	
6150	0	62136	
6151	0	62044	
6152	0	61896	
6153	0	61812	
6154	0	57176	
6155	0	50472	
6156	0	44500	
6157	0	39344	
6158	0	34868	
6159	0	31128	
6160	0	28132	
6161	0	25916	
6162	0	24584	
6163	0	23904	
6164	0	23540	
6165	0	23282	
6166	0	23092	
6167	0	22872	
6168	0	22600	
6169	0	22408	
6170	0	22334	
6171	0	22368	
6172	0	22458	
6173	0	22660	
6174	0	22928	
6175	0	23242	
6176	0	23742	
6177	0	24500	
6178	0	25312	
6179	0	26064	
6180	0	26752	
6181	0	27312	
6182	0	27772	
6183	0	28112	
6184	0	28400	
6185	0	28608	
6186	0	28820	
6187	0	29028	
6188	0	29180	
6189	0	29260	
6190	0	29344	
6191	0	29378	
6192	0	29384	
6193	0	29428	
6194	0	29456	
6195	0	29436	
6196	0	29460	
6197	0	29504	
6198	0	29548	
6199	0	29572	
6200	0	29594	
6201	0	29588	
6202	0	29596	
6203	0	29616	
6204	0	29596	
6205	0	29574	
6206	0	29608	
6207	0	29672	
6208	0	29720	
6209	0	29788	
6210	0	29836	
6211	0	29908	
6212	0	29976	
6213	0	30048	
6214	0	30132	
6215	0	30220	
6216	0	30312	
6217	0	30364	
6218	0	30376	
6219	0	30372	
6220	0	30404	
6221	0	30448	
6222	0	30468	
6223	0	30460	
6224	0	30472	
6225	0	30488	
6226	0	30516	
6227	0	30568	
6228	0	30588	
6229	0	30584	
6230	0	30584	
6231	0	30632	
6232	0	30720	
6233	0	30812	
6234	0	30852	
6235	0	30908	
6236	0	30968	
6237	0	31044	
6238	0	31096	
6239	0	31140	
6240	0	31176	
6241	0	31224	
6242	0	31280	
6243	0	31340	
6244	0	31372	
6245	0	31388	
6246	0	31380	
6247	0	31396	
6248	0	31388	
6249	0	31392	
6250	0	31388	
6251	0	31384	
6252	0	31412	
6253	0	31452	
6254	0	31490	
6255	0	31536	
6256	0	31588	
6257	0	31624	
6258	0	31660	
6259	0	31720	
6260	0	31808	
6261	0	31872	
6262	0	31900	
6263	0	31932	
6264	0	31964	
6265	0	32024	
6266	0	32066	
6267	0	32096	
6268	0	32132	
6269	0	32172	
6270	0	32188	
6271	0	32212	
6272	0	32256	
6273	0	32232	
6274	0	32224	
6275	0	32252	
6276	0	32340	
6277	0	32396	
6278	0	32452	
6279	0	32436	
6280	0	32464	
6281	0	32546	
6282	0	32564	
6283	0	32624	
6284	0	32692	
6285	0	32732	
6286	0	32740	
6287	0	32764	
6288	0	32800	
6289	0	32848	
6290	0	32878	
6291	0	32896	
6292	0	32916	
6293	0	32944	
6294	0	33012	
6295	0	33100	
6296	0	33192	
6297	0	33242	
6298	0	33264	
6299	0	33304	
6300	0	33344	
6301	0	33384	
6302	0	33444	
6303	0	33548	
6304	0	33628	
6305	0	33720	
6306	0	33784	
6307	0	33836	
6308	0	33872	
6309	0	33900	
6310	0	33960	
6311	0	34024	
6312	0	34068	
6313	0	34132	
6314	0	34176	
6315	0	34236	
6316	0	34300	
6317	0	34348	
6318	0	34372	
6319	0	34392	
6320	0	34410	
6321	0	34464	
6322	0	34532	
6323	0	34584	
6324	0	34636	
6325	0	34722	
6326	0	34788	
6327	0	34844	
6328	0	34892	
6329	0	34968	
6330	0	34996	
6331	0	35040	
6332	0	35132	
6333	0	35228	
6334	0	35312	
6335	0	35396	
6336	0	35516	
6337	0	35636	
6338	0	35744	
6339	0	35808	
6340	0	35864	
6341	0	35944	
6342	0	36028	
6343	0	36116	
6344	0	36184	
6345	0	36284	
6346	0	36368	
6347	0	36476	
6348	0	36608	
6349	0	36736	
6350	0	36864	
6351	0	36964	
6352	0	37036	
6353	0	37088	
6354	0	37176	
6355	0	37252	
6356	0	37276	
6357	0	37272	
6358	0	37284	
6359	0	37344	
6360	0	37428	
6361	0	37540	
6362	0	37672	
6363	0	37796	
6364	0	37860	
6365	0	37932	
6366	0	38032	
6367	0	38152	
6368	0	38308	
6369	0	38464	
6370	0	38592	
6371	0	38768	
6372	0	38896	
6373	0	39008	
6374	0	39136	
6375	0	39228	
6376	0	39280	
6377	0	39316	
6378	0	39372	
6379	0	39440	
6380	0	39520	
6381	0	39610	
6382	0	39744	
6383	0	39836	
6384	0	39944	
6385	0	40033	
6386	0	40130	
6387	0	40212	
6388	0	40250	
6389	0	40320	
6390	0	40412	
6391	0	40480	
6392	0	40568	
6393	0	40672	
6394	0	40736	
6395	0	40800	
6396	0	40860	
6397	0	40928	
6398	0	40992	
6399	0	41040	
6400	0	41068	
6401	0	41084	
6402	0	41076	
6403	0	41060	
6404	0	41052	
6405	0	41052	
6406	0	41020	
6407	0	40988	
6408	0	40948	
6409	0	40932	
6410	0	40912	
6411	0	40896	
6412	0	40932	
6413	0	40960	
6414	0	40960	
6415	0	40908	
6416	0	40824	
6417	0	40756	
6418	0	40676	
6419	0	40544	
6420	0	40440	
6421	0	40352	
6422	0	40242	
6423	0	40168	
6424	0	40120	
6425	0	40024	
6426	0	39844	
6427	0	39692	
6428	0	39536	
6429	0	39386	
6430	0	39200	
6431	0	39014	
6432	0	38848	
6433	0	38644	
6434	0	38442	
6435	0	38228	
6436	0	38036	
6437	0	37864	
6438	0	37660	
6439	0	37416	
6440	0	37160	
6441	0	36836	
6442	0	36544	
6443	0	36284	
6444	0	36048	
6445	0	35760	
6446	0	35464	
6447	0	35188	
6448	0	34888	
6449	0	34580	
6450	0	34300	
6451	0	34040	
6452	0	33752	
6453	0	33432	
6454	0	33076	
6455	0	32740	
6456	0	32464	
6457	0	32176	
6458	0	31928	
6459	0	31668	
6460	0	31424	
6461	0	31184	
6462	0	30912	
6463	0	30652	
6464	0	30408	
6465	0	30224	
6466	0	30020	
6467	0	29816	
6468	0	29584	
6469	0	29340	
6470	0	29142	
6471	0	28972	
6472	0	28824	
6473	0	28680	
6474	0	28496	
6475	0	28324	
6476	0	28200	
6477	0	28048	
6478	0	27904	
6479	0	27790	
6480	0	27636	
6481	0	27468	
6482	0	27284	
6483	0	27088	
6484	0	26938	
6485	0	26848	
6486	0	26716	
6487	0	26568	
6488	0	26424	
6489	0	26324	
6490	0	26260	
6491	0	26224	
6492	0	26156	
6493	0	26112	
6494	0	26084	
6495	0	26060	
6496	0	26052	
6497	0	26034	
6498	0	26032	
6499	0	26000	
6500	0	25992	
6501	0	25964	
6502	0	25920	
6503	0	25836	
6504	0	25780	
6505	0	25772	
6506	0	25772	
6507	0	25762	
6508	0	25754	
6509	0	25770	
6510	0	25796	
6511	0	25768	
6512	0	25760	
6513	0	25788	
6514	0	25804	
6515	0	25850	
6516	0	25860	
6517	0	25868	
6518	0	25888	
6519	0	25940	
6520	0	26012	
6521	0	26100	
6522	0	26168	
6523	0	26264	
6524	0	26344	
6525	0	26360	
6526	0	26364	
6527	0	26392	
6528	0	26448	
6529	0	26488	
6530	0	26532	
6531	0	26520	
6532	0	26520	
6533	0	26584	
6534	0	26640	
6535	0	26664	
6536	0	26740	
6537	0	26824	
6538	0	26896	
6539	0	26928	
6540	0	26912	
6541	0	26940	
6542	0	27000	
6543	0	27028	
6544	0	27060	
6545	0	27132	
6546	0	27232	
6547	0	27324	
6548	0	27376	
6549	0	27408	
6550	0	27468	
6551	0	27556	
6552	0	27662	
6553	0	27768	
6554	0	27844	
6555	0	27872	
6556	0	27912	
6557	0	27932	
6558	0	27928	
6559	0	27936	
6560	0	27964	
6561	0	27976	
6562	0	28008	
6563	0	28072	
6564	0	28130	
6565	0	28120	
6566	0	28104	
6567	0	28156	
6568	0	28256	
6569	0	28360	
6570	0	28456	
6571	0	28562	
6572	0	28660	
6573	0	28730	
6574	0	28804	
6575	0	28820	
6576	0	28840	
6577	0	28912	
6578	0	28976	
6579	0	28984	
6580	0	28954	
6581	0	28904	
6582	0	28904	
6583	0	28968	
6584	0	29024	
6585	0	29056	
6586	0	29086	
6587	0	29148	
6588	0	29178	
6589	0	29216	
6590	0	29212	
6591	0	29244	
6592	0	29300	
6593	0	29310	
6594	0	29300	
6595	0	29332	
6596	0	29416	
6597	0	29504	
6598	0	29548	
6599	0	29570	
6600	0	29620	
6601	0	29698	
6602	0	29768	
6603	0	29856	
6604	0	29916	
6605	0	29952	
6606	0	30000	
6607	0	30060	
6608	0	30068	
6609	0	30068	
6610	0	30072	
6611	0	30100	
6612	0	30104	
6613	0	30104	
6614	0	30144	
6615	0	30208	
6616	0	30188	
6617	0	30218	
6618	0	30264	
6619	0	30226	
6620	0	30224	
6621	0	30208	
6622	0	30176	
6623	0	30144	
6624	0	30144	
6625	0	30148	
6626	0	30184	
6627	0	30252	
6628	0	30288	
6629	0	30296	
6630	0	30294	
6631	0	30332	
6632	0	30408	
6633	0	30458	
6634	0	30488	
6635	0	30520	
6636	0	30512	
6637	0	30520	
6638	0	30560	
6639	0	30576	
6640	0	30560	
6641	0	30500	
6642	0	30472	
6643	0	30472	
6644	0	30520	
6645	0	30560	
6646	0	30560	
6647	0	30548	
6648	0	30568	
6649	0	30588	
6650	0	30628	
6651	0	30624	
6652	0	30632	
6653	0	30596	
6654	0	30562	
6655	0	30544	
6656	0	30524	
6657	0	30524	
6658	0	30488	
6659	0	30428	
6660	0	30400	
6661	0	30416	
6662	0	30512	
6663	0	30604	
6664	0	30600	
6665	0	30580	
6666	0	30512	
6667	0	30438	
6668	0	30400	
6669	0	30376	
6670	0	30406	
6671	0	30428	
6672	0	30492	
6673	0	30584	
6674	0	30680	
6675	0	30752	
6676	0	30832	
6677	0	30912	
6678	0	30900	
6679	0	30832	
6680	0	30736	
6681	0	30648	
6682	0	30648	
6683	0	30676	
6684	0	30688	
6685	0	30688	
6686	0	30708	
6687	0	30720	
6688	0	30744	
6689	0	30766	
6690	0	30764	
6691	0	30728	
6692	0	30736	
6693	0	30752	
6694	0	30764	
6695	0	30800	
6696	0	30792	
6697	0	30768	
6698	0	30760	
6699	0	30768	
6700	0	30798	
6701	0	30796	
6702	0	30776	
6703	0	30780	
6704	0	30808	
6705	0	30828	
6706	0	30824	
6707	0	30852	
6708	0	30992	
6709	0	31166	
6710	0	31288	
6711	0	31372	
6712	0	31424	
6713	0	31456	
6714	0	31436	
6715	0	31408	
6716	0	31336	
6717	0	31288	
6718	0	31268	
6719	0	31288	
6720	0	31312	
6721	0	31348	
6722	0	31404	
6723	0	31428	
6724	0	31384	
6725	0	31340	
6726	0	31320	
6727	0	31328	
6728	0	31368	
6729	0	31396	
6730	0	31436	
6731	0	31476	
6732	0	31464	
6733	0	31412	
6734	0	31436	
6735	0	31488	
6736	0	31537	
6737	0	31556	
6738	0	31592	
6739	0	31556	
6740	0	31536	
6741	0	31512	
6742	0	31448	
6743	0	31424	
6744	0	31408	
6745	0	31440	
6746	0	31468	
6747	0	31504	
6748	0	31534	
6749	0	31564	
6750	0	31516	
6751	0	31448	
6752	0	31458	
6753	0	31496	
6754	0	31560	
6755	0	31604	
6756	0	31648	
6757	0	31748	
6758	0	31812	
6759	0	31872	
6760	0	31896	
6761	0	31896	
6762	0	31880	
6763	0	31836	
6764	0	31752	
6765	0	31736	
6766	0	31742	
6767	0	31744	
6768	0	31736	
6769	0	31752	
6770	0	31796	
6771	0	31864	
6772	0	31932	
6773	0	31948	
6774	0	31908	
6775	0	31860	
6776	0	31876	
6777	0	31904	
6778	0	31928	
6779	0	31974	
6780	0	31996	
6781	0	32028	
6782	0	32048	
6783	0	32064	
6784	0	32070	
6785	0	32068	
6786	0	32032	
6787	0	32052	
6788	0	32092	
6789	0	32148	
6790	0	32204	
6791	0	32276	
6792	0	32288	
6793	0	32276	
6794	0	32252	
6795	0	32244	
6796	0	32228	
6797	0	32216	
6798	0	32236	
6799	0	32240	
6800	0	32240	
6801	0	32248	
6802	0	32308	
6803	0	32352	
6804	0	32320	
6805	0	32320	
6806	0	32280	
6807	0	32216	
6808	0	32212	
6809	0	32216	
6810	0	32272	
6811	0	32332	
6812	0	32380	
6813	0	32384	
6814	0	32416	
6815	0	32400	
6816	0	32344	
6817	0	32308	
6818	0	32288	
6819	0	32288	
6820	0	32360	
6821	0	32360	
6822	0	32344	
6823	0	32314	
6824	0	32360	
6825	0	32376	
6826	0	32360	
6827	0	32368	
6828	0	32400	
6829	0	32500	
6830	0	32600	
6831	0	32648	
6832	0	32676	
6833	0	32680	
6834	0	32704	
6835	0	32752	
6836	0	32738	
6837	0	32678	
6838	0	32676	
6839	0	32684	
6840	0	32684	
6841	0	32684	
6842	0	32652	
6843	0	32660	
6844	0	32708	
6845	0	32716	
6846	0	32696	
6847	0	32672	
6848	0	32676	
6849	0	32696	
6850	0	32736	
6851	0	32816	
6852	0	32868	
6853	0	32904	
6854	0	32876	
6855	0	32840	
6856	0	32780	
6857	0	32730	
6858	0	32732	
6859	0	32700	
6860	0	32640	
6861	0	32528	
6862	0	32480	
6863	0	32532	
6864	0	32584	
6865	0	32696	
6866	0	32816	
6867	0	32936	
6868	0	33112	
6869	0	33284	
6870	0	33432	
6871	0	33568	
6872	0	33664	
6873	0	33704	
6874	0	33752	
6875	0	33808	
6876	0	33832	
6877	0	33844	
6878	0	33844	
6879	0	33885	
6880	0	33996	
6881	0	34100	
6882	0	34172	
6883	0	34296	
6884	0	34412	
6885	0	34568	
6886	0	34784	
6887	0	34964	
6888	0	35116	
6889	0	35188	
6890	0	35148	
6891	0	35042	
6892	0	34900	
6893	0	34860	
6894	0	34836	
6895	0	34880	
6896	0	34964	
6897	0	34992	
6898	0	34960	
6899	0	34884	
6900	0	34816	
6901	0	34794	
6902	0	34824	
6903	0	34860	
6904	0	34906	
6905	0	35000	
6906	0	35052	
6907	0	35096	
6908	0	35136	
6909	0	35200	
6910	0	35294	
6911	0	35376	
6912	0	35452	
6913	0	35508	
6914	0	35460	
6915	0	35380	
6916	0	35264	
6917	0	35104	
6918	0	34916	
6919	0	34716	
6920	0	34516	
6921	0	34352	
6922	0	34232	
6923	0	34136	
6924	0	34048	
6925	0	33984	
6926	0	33920	
6927	0	33760	
6928	0	33492	
6929	0	33128	
6930	0	32804	
6931	0	32520	
6932	0	32260	
6933	0	32056	
6934	0	31904	
6935	0	31754	
6936	0	31648	
6937	0	31592	
6938	0	31520	
6939	0	31458	
6940	0	31528	
6941	0	31616	
6942	0	31704	
6943	0	31808	
6944	0	31960	
6945	0	32066	
6946	0	32128	
6947	0	32176	
6948	0	32236	
6949	0	32312	
6950	0	32360	
6951	0	32456	
6952	0	32520	
6953	0	32580	
6954	0	32592	
6955	0	32602	
6956	0	32596	
6957	0	32564	
6958	0	32554	
6959	0	32552	
6960	0	32536	
6961	0	32496	
6962	0	32544	
6963	0	32640	
6964	0	32688	
6965	0	32688	
6966	0	32660	
6967	0	32660	
6968	0	32704	
6969	0	32756	
6970	0	32740	
6971	0	32728	
6972	0	32720	
6973	0	32768	
6974	0	32800	
6975	0	32808	
6976	0	32820	
6977	0	32848	
6978	0	32900	
6979	0	32960	
6980	0	33020	
6981	0	33076	
6982	0	33112	
6983	0	33144	
6984	0	33232	
6985	0	33316	
6986	0	33356	
6987	0	33328	
6988	0	33368	
6989	0	33424	
6990	0	33456	
6991	0	33472	
6992	0	33480	
6993	0	33516	
6994	0	33552	
6995	0	33620	
6996	0	33664	
6997	0	33692	
6998	0	33724	
6999	0	33728	
7000	0	33696	
7001	0	33660	
7002	0	33584	
7003	0	33360	
7004	0	33120	
7005	0	32844	
7006	0	32420	
7007	0	31800	
7008	0	31104	
7009	0	30450	
7010	0	29968	
7011	0	29644	
7012	0	29492	
7013	0	29544	
7014	0	29716	
7015	0	30052	
7016	0	30536	
7017	0	31136	
7018	0	31944	
7019	0	32964	
7020	0	34148	
7021	0	35392	
7022	0	36828	
7023	0	38632	
7024	0	40792	
7025	0	43192	
7026	0	45776	
7027	0	48540	
7028	0	51500	
7029	0	54636	
7030	0	57988	
7031	0	60520	
7032	0	61876	
7033	0	62552	
7034	0	62884	
7035	0	63016	
7036	0	63020	
7037	0	62996	
7038	0	62912	
7039	0	62816	
7040	0	62696	
7041	0	62608	
7042	0	62500	
7043	0	62380	
7044	0	62256	
7045	0	62148	
7046	0	62044	
7047	0	61936	
7048	0	58492	
7049	0	51768	
7050	0	45974	
7051	0	40860	
7052	0	36516	
7053	0	33040	
7054	0	30532	
7055	0	28788	
7056	0	27570	
7057	0	26744	
7058	0	26088	
7059	0	25578	
7060	0	25180	
7061	0	24872	
7062	0	24596	
7063	0	24324	
7064	0	24052	
7065	0	23804	
7066	0	23676	
7067	0	23648	
7068	0	23674	
7069	0	23740	
7070	0	23892	
7071	0	24104	
7072	0	24366	
7073	0	24682	
7074	0	25128	
7075	0	25780	
7076	0	26424	
7077	0	26924	
7078	0	27400	
7079	0	27832	
7080	0	28176	
7081	0	28432	
7082	0	28688	
7083	0	29004	
7084	0	29296	
7085	0	29548	
7086	0	29744	
7087	0	29888	
7088	0	30060	
7089	0	30144	
7090	0	30172	
7091	0	30200	
7092	0	30186	
7093	0	30140	
7094	0	30100	
7095	0	30128	
7096	0	30156	
7097	0	30180	
7098	0	30248	
7099	0	30286	
7100	0	30300	
7101	0	30304	
7102	0	30312	
7103	0	30348	
7104	0	30372	
7105	0	30380	
7106	0	30410	
7107	0	30488	
7108	0	30552	
7109	0	30624	
7110	0	30684	
7111	0	30696	
7112	0	30708	
7113	0	30812	
7114	0	30916	
7115	0	30980	
7116	0	31068	
7117	0	31144	
7118	0	31148	
7119	0	31112	
7120	0	31100	
7121	0	31188	
7122	0	31288	
7123	0	31376	
7124	0	31464	
7125	0	31600	
7126	0	31720	
7127	0	31780	
7128	0	31812	
7129	0	31810	
7130	0	31792	
7131	0	31788	
7132	0	31780	
7133	0	31726	
7134	0	31656	
7135	0	31710	
7136	0	31802	
7137	0	31884	
7138	0	31936	
7139	0	32004	
7140	0	32088	
7141	0	32112	
7142	0	32148	
7143	0	32188	
7144	0	32184	
7145	0	32188	
7146	0	32216	
7147	0	32268	
7148	0	32360	
7149	0	32464	
7150	0	32540	
7151	0	32560	
7152	0	32602	
7153	0	32652	
7154	0	32708	
7155	0	32772	
7156	0	32810	
7157	0	32832	
7158	0	32860	
7159	0	32892	
7160	0	32932	
7161	0	32980	
7162	0	33024	
7163	0	33084	
7164	0	33140	
7165	0	33216	
7166	0	33264	
7167	0	33280	
7168	0	33348	
7169	0	33380	
7170	0	33424	
7171	0	33432	
7172	0	33432	
7173	0	33436	
7174	0	33472	
7175	0	33508	
7176	0	33556	
7177	0	33600	
7178	0	33632	
7179	0	33666	
7180	0	33728	
7181	0	33836	
7182	0	33936	
7183	0	33998	
7184	0	34084	
7185	0	34168	
7186	0	34192	
7187	0	34172	
7188	0	34180	
7189	0	34172	
7190	0	34168	
7191	0	34168	
7192	0	34152	
7193	0	34156	
7194	0	34204	
7195	0	34268	
7196	0	34360	
7197	0	34446	
7198	0	34496	
7199	0	34544	
7200	0	34600	
7201	0	34690	
7202	0	34796	
7203	0	34970	
7204	0	35124	
7205	0	35176	
7206	0	35180	
7207	0	35124	
7208	0	35052	
7209	0	35016	
7210	0	34992	
7211	0	34988	
7212	0	35016	
7213	0	35056	
7214	0	35136	
7215	0	35296	
7216	0	35412	
7217	0	35516	
7218	0	35580	
7219	0	35644	
7220	0	35716	
7221	0	35800	
7222	0	35860	
7223	0	35932	
7224	0	36044	
7225	0	36124	
7226	0	36224	
7227	0	36312	
7228	0	36396	
7229	0	36460	
7230	0	36532	
7231	0	36616	
7232	0	36712	
7233	0	36756	
7234	0	36756	
7235	0	36760	
7236	0	36812	
7237	0	36896	
7238	0	36988	
7239	0	37092	
7240	0	37172	
7241	0	37220	
7242	0	37276	
7243	0	37364	
7244	0	37412	
7245	0	37476	
7246	0	37568	
7247	0	37680	
7248	0	37796	
7249	0	37892	
7250	0	37972	
7251	0	38104	
7252	0	38288	
7253	0	38468	
7254	0	38632	
7255	0	38768	
7256	0	38884	
7257	0	38968	
7258	0	39016	
7259	0	39060	
7260	0	39104	
7261	0	39176	
7262	0	39260	
7263	0	39392	
7264	0	39528	
7265	0	39712	
7266	0	39876	
7267	0	39992	
7268	0	40064	
7269	0	40152	
7270	0	40288	
7271	0	40432	
7272	0	40530	
7273	0	40624	
7274	0	40684	
7275	0	40720	
7276	0	40788	
7277	0	40844	
7278	0	40868	
7279	0	40940	
7280	0	41010	
7281	0	41056	
7282	0	41116	
7283	0	41180	
7284	0	41324	
7285	0	41460	
7286	0	41540	
7287	0	41644	
7288	0	41734	
7289	0	41732	
7290	0	41708	
7291	0	41692	
7292	0	41680	
7293	0	41632	
7294	0	41596	
7295	0	41624	
7296	0	41664	
7297	0	41664	
7298	0	41664	
7299	0	41648	
7300	0	41588	
7301	0	41506	
7302	0	41428	
7303	0	41340	
7304	0	41272	
7305	0	41204	
7306	0	41140	
7307	0	41084	
7308	0	41076	
7309	0	41040	
7310	0	40960	
7311	0	40892	
7312	0	40848	
7313	0	40816	
7314	0	40748	
7315	0	40672	
7316	0	40612	
7317	0	40552	
7318	0	40432	
7319	0	40252	
7320	0	40036	
7321	0	39808	
7322	0	39580	
7323	0	39328	
7324	0	39040	
7325	0	38748	
7326	0	38516	
7327	0	38308	
7328	0	38116	
7329	0	37932	
7330	0	37728	
7331	0	37492	
7332	0	37252	
7333	0	36956	
7334	0	36656	
7335	0	36386	
7336	0	36096	
7337	0	35808	
7338	0	35536	
7339	0	35264	
7340	0	34988	
7341	0	34688	
7342	0	34388	
7343	0	34104	
7344	0	33776	
7345	0	33456	
7346	0	33124	
7347	0	32784	
7348	0	32460	
7349	0	32164	
7350	0	31880	
7351	0	31636	
7352	0	31428	
7353	0	31200	
7354	0	30964	
7355	0	30746	
7356	0	30548	
7357	0	30364	
7358	0	30176	
7359	0	29992	
7360	0	29816	
7361	0	29640	
7362	0	29456	
7363	0	29256	
7364	0	29072	
7365	0	28876	
7366	0	28692	
7367	0	28532	
7368	0	28396	
7369	0	28216	
7370	0	28004	
7371	0	27812	
7372	0	27648	
7373	0	27552	
7374	0	27472	
7375	0	27400	
7376	0	27328	
7377	0	27272	
7378	0	27176	
7379	0	27104	
7380	0	26992	
7381	0	26876	
7382	0	26772	
7383	0	26690	
7384	0	26624	
7385	0	26552	
7386	0	26500	
7387	0	26402	
7388	0	26272	
7389	0	26122	
7390	0	25996	
7391	0	25900	
7392	0	25792	
7393	0	25812	
7394	0	25872	
7395	0	25940	
7396	0	26028	
7397	0	26152	
7398	0	26248	
7399	0	26284	
7400	0	26296	
7401	0	26312	
7402	0	26316	
7403	0	26330	
7404	0	26360	
7405	0	26384	
7406	0	26416	
7407	0	26416	
7408	0	26400	
7409	0	26416	
7410	0	26396	
7411	0	26392	
7412	0	26392	
7413	0	26432	
7414	0	26456	
7415	0	26526	
7416	0	26624	
7417	0	26760	
7418	0	26884	
7419	0	26988	
7420	0	27056	
7421	0	27104	
7422	0	27128	
7423	0	27172	
7424	0	27192	
7425	0	27172	
7426	0	27160	
7427	0	27172	
7428	0	27136	
7429	0	27092	
7430	0	27072	
7431	0	27120	
7432	0	27224	
7433	0	27328	
7434	0	27424	
7435	0	27504	
7436	0	27570	
7437	0	27624	
7438	0	27650	
7439	0	27688	
7440	0	27712	
7441	0	27740	
7442	0	27796	
7443	0	27844	
7444	0	27908	
7445	0	28024	
7446	0	28122	
7447	0	28184	
7448	0	28280	
7449	0	28357	
7450	0	28444	
7451	0	28484	
7452	0	28506	
7453	0	28500	
7454	0	28522	
7455	0	28564	
7456	0	28632	
7457	0	28708	
7458	0	28764	
7459	0	28816	
7460	0	28864	
7461	0	28864	
7462	0	28856	
7463	0	28888	
7464	0	28944	
7465	0	29000	
7466	0	29052	
7467	0	29080	
7468	0	29124	
7469	0	29168	
7470	0	29196	
7471	0	29216	
7472	0	29244	
7473	0	29292	
7474	0	29376	
7475	0	29418	
7476	0	29448	
7477	0	29528	
7478	0	29596	
7479	0	29648	
7480	0	29704	
7481	0	29696	
7482	0	29652	
7483	0	29684	
7484	0	29748	
7485	0	29788	
7486	0	29792	
7487	0	29788	
7488	0	29784	
7489	0	29796	
7490	0	29824	
7491	0	29868	
7492	0	29896	
7493	0	29932	
7494	0	30008	
7495	0	30080	
7496	0	30128	
7497	0	30208	
7498	0	30272	
7499	0	30272	
7500	0	30268	
7501	0	30324	
7502	0	30368	
7503	0	30400	
7504	0	30392	
7505	0	30408	
7506	0	30432	
7507	0	30432	
7508	0	30492	
7509	0	30502	
7510	0	30510	
7511	0	30512	
7512	0	30524	
7513	0	30544	
7514	0	30520	
7515	0	30488	
7516	0	30492	
7517	0	30452	
7518	0	30396	
7519	0	30332	
7520	0	30336	
7521	0	30352	
7522	0	30384	
7523	0	30464	
7524	0	30488	
7525	0	30504	
7526	0	30512	
7527	0	30528	
7528	0	30568	
7529	0	30588	
7530	0	30588	
7531	0	30548	
7532	0	30564	
7533	0	30584	
7534	0	30594	
7535	0	30560	
7536	0	30560	
7537	0	30568	
7538	0	30570	
7539	0	30584	
7540	0	30608	
7541	0	30636	
7542	0	30628	
7543	0	30560	
7544	0	30492	
7545	0	30456	
7546	0	30394	
7547	0	30336	
7548	0	30284	
7549	0	30272	
7550	0	30284	
7551	0	30268	
7552	0	30272	
7553	0	30300	
7554	0	30328	
7555	0	30368	
7556	0	30388	
7557	0	30380	
7558	0	30416	
7559	0	30432	
7560	0	30400	
7561	0	30394	
7562	0	30432	
7563	0	30504	
7564	0	30616	
7565	0	30648	
7566	0	30656	
7567	0	30672	
7568	0	30720	
7569	0	30750	
7570	0	30736	
7571	0	30676	
7572	0	30656	
7573	0	30660	
7574	0	30664	
7575	0	30668	
7576	0	30656	
7577	0	30632	
7578	0	30572	
7579	0	30512	
7580	0	30450	
7581	0	30412	
7582	0	30428	
7583	0	30468	
7584	0	30536	
7585	0	30632	
7586	0	30692	
7587	0	30728	
7588	0	30784	
7589	0	30856	
7590	0	30900	
7591	0	30896	
7592	0	30820	
7593	0	30776	
7594	0	30788	
7595	0	30828	
7596	0	30808	
7597	0	30816	
7598	0	30820	
7599	0	30826	
7600	0	30850	
7601	0	30860	
7602	0	30876	
7603	0	30860	
7604	0	30892	
7605	0	30936	
7606	0	30952	
7607	0	30996	
7608	0	31034	
7609	0	31092	
7610	0	31168	
7611	0	31220	
7612	0	31232	
7613	0	31208	
7614	0	31188	
7615	0	31148	
7616	0	31072	
7617	0	31016	
7618	0	30976	
7619	0	30964	
7620	0	30980	
7621	0	31048	
7622	0	31084	
7623	0	31112	
7624	0	31124	
7625	0	31140	
7626	0	31116	
7627	0	31148	
7628	0	31212	
7629	0	31236	
7630	0	31258	
7631	0	31276	
7632	0	31324	
7633	0	31372	
7634	0	31362	
7635	0	31336	
7636	0	31304	
7637	0	31268	
7638	0	31208	
7639	0	31184	
7640	0	31194	
7641	0	31216	
7642	0	31260	
7643	0	31292	
7644	0	31328	
7645	0	31382	
7646	0	31456	
7647	0	31544	
7648	0	31628	
7649	0	31660	
7650	0	31672	
7651	0	31672	
7652	0	31694	
7653	0	31716	
7654	0	31740	
7655	0	31744	
7656	0	31740	
7657	0	31704	
7658	0	31672	
7659	0	31596	
7660	0	31556	
7661	0	31536	
7662	0	31508	
7663	0	31512	
7664	0	31544	
7665	0	31600	
7666	0	31616	
7667	0	31602	
7668	0	31560	
7669	0	31520	
7670	0	31500	
7671	0	31544	
7672	0	31616	
7673	0	31684	
7674	0	31720	
7675	0	31792	
7676	0	31856	
7677	0	31896	
7678	0	31844	
7679	0	31776	
7680	0	31748	
7681	0	31768	
7682	0	31842	
7683	0	31952	
7684	0	32052	
7685	0	32148	
7686	0	32280	
7687	0	32432	
7688	0	32601	
7689	0	32764	
7690	0	32932	
7691	0	33032	
7692	0	33052	
7693	0	33082	
7694	0	33108	
7695	0	33108	
7696	0	33098	
7697	0	33064	
7698	0	33040	
7699	0	33052	
7700	0	33072	
7701	0	33120	
7702	0	33240	
7703	0	33392	
7704	0	33592	
7705	0	33824	
7706	0	34052	
7707	0	34172	
7708	0	34136	
7709	0	34060	
7710	0	33992	
7711	0	33980	
7712	0	34016	
7713	0	34056	
7714	0	34132	
7715	0	34164	
7716	0	34168	
7717	0	34088	
7718	0	33984	
7719	0	33956	
7720	0	33968	
7721	0	34016	
7722	0	34124	
7723	0	34220	
7724	0	34284	
7725	0	34332	
7726	0	34352	
7727	0	34332	
7728	0	34292	
7729	0	34252	
7730	0	34212	
7731	0	34168	
7732	0	34120	
7733	0	34004	
7734	0	33896	
7735	0	33776	
7736	0	33652	
7737	0	33512	
7738	0	33328	
7739	0	33208	
7740	0	33116	
7741	0	33040	
7742	0	32964	
7743	0	32864	
7744	0	32792	
7745	0	32732	
7746	0	32616	
7747	0	32372	
7748	0	32090	
7749	0	31832	
7750	0	31636	
7751	0	31484	
7752	0	31364	
7753	0	31288	
7754	0	31272	
7755	0	31252	
7756	0	31220	
7757	0	31208	
7758	0	31184	
7759	0	31168	
7760	0	31148	
7761	0	31148	
7762	0	31164	
7763	0	31176	
7764	0	31180	
7765	0	31188	
7766	0	31200	
7767	0	31276	
7768	0	31312	
7769	0	31332	
7770	0	31344	
7771	0	31356	
7772	0	31380	
7773	0	31440	
7774	0	31504	
7775	0	31544	
7776	0	31562	
7777	0	31568	
7778	0	31552	
7779	0	31552	
7780	0	31544	
7781	0	31536	
7782	0	31496	
7783	0	31498	
7784	0	31496	
7785	0	31504	
7786	0	31548	
7787	0	31608	
7788	0	31652	
7789	0	31688	
7790	0	31714	
7791	0	31716	
7792	0	31764	
7793	0	31860	
7794	0	31938	
7795	0	31968	
7796	0	31960	
7797	0	31988	
7798	0	32040	
7799	0	32106	
7800	0	32152	
7801	0	32200	
7802	0	32248	
7803	0	32232	
7804	0	32252	
7805	0	32300	
7806	0	32346	
7807	0	32356	
7808	0	32368	
7809	0	32360	
7810	0	32392	
7811	0	32392	
7812	0	32404	
7813	0	32424	
7814	0	32456	
7815	0	32464	
7816	0	32424	
7817	0	32360	
7818	0	32224	
7819	0	32044	
7820	0	31802	
7821	0	31564	
7822	0	31200	
7823	0	30608	
7824	0	29920	
7825	0	29252	
7826	0	28748	
7827	0	28396	
7828	0	28236	
7829	0	28280	
7830	0	28508	
7831	0	28928	
7832	0	29516	
7833	0	30168	
7834	0	31040	
7835	0	32112	
7836	0	33352	
7837	0	34688	
7838	0	36192	
7839	0	37952	
7840	0	40036	
7841	0	42356	
7842	0	44896	
7843	0	47672	
7844	0	50588	
7845	0	53568	
7846	0	56748	
7847	0	59676	
7848	0	61308	
7849	0	62182	
7850	0	62584	
7851	0	62772	
7852	0	62808	
7853	0	62784	
7854	0	62720	
7855	0	62632	
7856	0	62536	
7857	0	62436	
7858	0	62308	
7859	0	62196	
7860	0	62092	
7861	0	61972	
7862	0	61864	
7863	0	61740	
7864	0	59468	
7865	0	52372	
7866	0	46156	
7867	0	40612	
7868	0	35872	
7869	0	32056	
7870	0	29128	
7871	0	26968	
7872	0	25512	
7873	0	24656	
7874	0	24188	
7875	0	23858	
7876	0	23584	
7877	0	23340	
7878	0	23104	
7879	0	22844	
7880	0	22624	
7881	0	22490	
7882	0	22460	
7883	0	22466	
7884	0	22504	
7885	0	22692	
7886	0	23008	
7887	0	23436	
7888	0	24012	
7889	0	24748	
7890	0	25472	
7891	0	26100	
7892	0	26676	
7893	0	27112	
7894	0	27468	
7895	0	27796	
7896	0	28108	
7897	0	28420	
7898	0	28716	
7899	0	28944	
7900	0	29112	
7901	0	29224	
7902	0	29284	
7903	0	29310	
7904	0	29320	
7905	0	29332	
7906	0	29344	
7907	0	29352	
7908	0	29390	
7909	0	29432	
7910	0	29472	
7911	0	29518	
7912	0	29524	
7913	0	29544	
7914	0	29600	
7915	0	29636	
7916	0	29692	
7917	0	29740	
7918	0	29792	
7919	0	29834	
7920	0	29856	
7921	0	29880	
7922	0	29928	
7923	0	29964	
7924	0	29952	
7925	0	29904	
7926	0	29900	
7927	0	29952	
7928	0	30034	
7929	0	30124	
7930	0	30212	
7931	0	30296	
7932	0	30360	
7933	0	30426	
7934	0	30432	
7935	0	30440	
7936	0	30452	
7937	0	30528	
7938	0	30620	
7939	0	30660	
7940	0	30668	
7941	0	30690	
7942	0	30728	
7943	0	30792	
7944	0	30864	
7945	0	30944	
7946	0	31008	
7947	0	31008	
7948	0	31016	
7949	0	30968	
7950	0	30960	
7951	0	30968	
7952	0	30976	
7953	0	30988	
7954	0	30968	
7955	0	31010	
7956	0	31044	
7957	0	31088	
7958	0	31168	
7959	0	31204	
7960	0	31220	
7961	0	31264	
7962	0	31320	
7963	0	31344	
7964	0	31328	
7965	0	31336	
7966	0	31376	
7967	0	31444	
7968	0	31504	
7969	0	31572	
7970	0	31624	
7971	0	31632	
7972	0	31644	
7973	0	31668	
7974	0	31720	
7975	0	31782	
7976	0	31812	
7977	0	31836	
7978	0	31884	
7979	0	31900	
7980	0	31908	
7981	0	31940	
7982	0	32010	
7983	0	32108	
7984	0	32204	
7985	0	32272	
7986	0	32332	
7987	0	32404	
7988	0	32440	
7989	0	32464	
7990	0	32488	
7991	0	32546	
7992	0	32572	
7993	0	32616	
7994	0	32652	
7995	0	32672	
7996	0	32708	
7997	0	32776	
7998	0	32802	
7999	0	32852	
8000	0	32888	
8001	0	32972	
8002	0	33056	
8003	0	33120	
8004	0	33184	
8005	0	33248	
8006	0	33294	
8007	0	33366	
8008	0	33448	
8009	0	33560	
8010	0	33628	
8011	0	33672	
8012	0	33704	
8013	0	33768	
8014	0	33812	
8015	0	33860	
8016	0	33896	
8017	0	33932	
8018	0	33960	
8019	0	33992	
8020	0	34036	
8021	0	34080	
8022	0	34148	
8023	0	34208	
8024	0	34280	
8025	0	34344	
8026	0	34416	
8027	0	34520	
8028	0	34594	
8029	0	34660	
8030	0	34744	
8031	0	34828	
8032	0	34908	
8033	0	34980	
8034	0	35036	
8035	0	35072	
8036	0	35100	
8037	0	35152	
8038	0	35200	
8039	0	35260	
8040	0	35320	
8041	0	35424	
8042	0	35500	
8043	0	35584	
8044	0	35684	
8045	0	35784	
8046	0	35896	
8047	0	36012	
8048	0	36136	
8049	0	36228	
8050	0	36316	
8051	0	36400	
8052	0	36480	
8053	0	36572	
8054	0	36622	
8055	0	36666	
8056	0	36736	
8057	0	36840	
8058	0	36938	
8059	0	37004	
8060	0	37068	
8061	0	37148	
8062	0	37236	
8063	0	37324	
8064	0	37420	
8065	0	37544	
8066	0	37648	
8067	0	37774	
8068	0	37868	
8069	0	37960	
8070	0	38064	
8071	0	38152	
8072	0	38296	
8073	0	38464	
8074	0	38624	
8075	0	38736	
8076	0	38832	
8077	0	38920	
8078	0	39008	
8079	0	39130	
8080	0	39248	
8081	0	39352	
8082	0	39428	
8083	0	39532	
8084	0	39624	
8085	0	39752	
8086	0	39840	
8087	0	39920	
8088	0	39984	
8089	0	40052	
8090	0	40132	
8091	0	40192	
8092	0	40264	
8093	0	40384	
8094	0	40500	
8095	0	40576	
8096	0	40644	
8097	0	40712	
8098	0	40808	
8099	0	40848	
8100	0	40860	
8101	0	40864	
8102	0	40880	
8103	0	40928	
8104	0	41002	
8105	0	41048	
8106	0	41100	
8107	0	41140	
8108	0	41178	
8109	0	41192	
8110	0	41204	
8111	0	41180	
8112	0	41152	
8113	0	41108	
8114	0	41076	
8115	0	41060	
8116	0	41034	
8117	0	40996	
8118	0	40940	
8119	0	40888	
8120	0	40828	
8121	0	40776	
8122	0	40754	
8123	0	40670	
8124	0	40580	
8125	0	40484	
8126	0	40410	
8127	0	40360	
8128	0	40304	
8129	0	40208	
8130	0	40048	
8131	0	39912	
8132	0	39780	
8133	0	39636	
8134	0	39440	
8135	0	39236	
8136	0	39012	
8137	0	38796	
8138	0	38592	
8139	0	38400	
8140	0	38152	
8141	0	37880	
8142	0	37636	
8143	0	37396	
8144	0	37160	
8145	0	36884	
8146	0	36564	
8147	0	36240	
8148	0	35956	
8149	0	35636	
8150	0	35300	
8151	0	35004	
8152	0	34724	
8153	0	34452	
8154	0	34192	
8155	0	33910	
8156	0	33640	
8157	0	33368	
8158	0	33092	
8159	0	32826	
8160	0	32576	
8161	0	32344	
8162	0	32112	
8163	0	31860	
8164	0	31620	
8165	0	31354	
8166	0	31084	
8167	0	30804	
8168	0	30564	
8169	0	30348	
8170	0	30132	
8171	0	29906	
8172	0	29688	
8173	0	29504	
8174	0	29316	
8175	0	29100	
8176	0	28916	
8177	0	28760	
8178	0	28566	
8179	0	28420	
8180	0	28268	
8181	0	28120	
8182	0	27984	
8183	0	27876	
8184	0	27728	
8185	0	27644	
8186	0	27544	
8187	0	27468	
8188	0	27360	
8189	0	27258	
8190	0	27152	
8191	0	27088	
8192	0	27024	
8193	0	26944	
8194	0	26866	
8195	0	26820	
8196	0	26792	
8197	0	26728	
8198	0	26596	
8199	0	26516	
8200	0	26480	
8201	0	26442	
8202	0	26378	
8203	0	26304	
8204	0	26272	
8205	0	26244	
8206	0	26253	
8207	0	26224	
8208	0	26204	
8209	0	26216	
8210	0	26246	
8211	0	26280	
8212	0	26304	
8213	0	26308	
8214	0	26280	
8215	0	26286	
8216	0	26316	
8217	0	26352	
8218	0	26376	
8219	0	26408	
8220	0	26440	
8221	0	26468	
8222	0	26472	
8223	0	26478	
8224	0	26500	
8225	0	26532	
8226	0	26550	
8227	0	26544	
8228	0	26528	
8229	0	26528	
8230	0	26588	
8231	0	26634	
8232	0	26664	
8233	0	26720	
8234	0	26788	
8235	0	26872	
8236	0	26978	
8237	0	27036	
8238	0	27060	
8239	0	27072	
8240	0	27124	
8241	0	27180	
8242	0	27236	
8243	0	27308	
8244	0	27370	
8245	0	27392	
8246	0	27440	
8247	0	27480	
8248	0	27552	
8249	0	27632	
8250	0	27704	
8251	0	27780	
8252	0	27856	
8253	0	27904	
8254	0	27964	
8255	0	28036	
8256	0	28104	
8257	0	28194	
8258	0	28296	
8259	0	28388	
8260	0	28448	
8261	0	28506	
8262	0	28564	
8263	0	28620	
8264	0	28660	
8265	0	28720	
8266	0	28744	
8267	0	28794	
8268	0	28844	
8269	0	28906	
8270	0	28940	
8271	0	28976	
8272	0	29032	
8273	0	29108	
8274	0	29194	
8275	0	29260	
8276	0	29284	
8277	0	29348	
8278	0	29392	
8279	0	29432	
8280	0	29466	
8281	0	29508	
8282	0	29516	
8283	0	29532	
8284	0	29540	
8285	0	29568	
8286	0	29596	
8287	0	29616	
8288	0	29636	
8289	0	29676	
8290	0	29728	
8291	0	29808	
8292	0	29864	
8293	0	29936	
8294	0	29982	
8295	0	30040	
8296	0	30084	
8297	0	30124	
8298	0	30156	
8299	0	30200	
8300	0	30244	
8301	0	30296	
8302	0	30332	
8303	0	30356	
8304	0	30368	
8305	0	30352	
8306	0	30372	
8307	0	30372	
8308	0	30396	
8309	0	30448	
8310	0	30484	
8311	0	30506	
8312	0	30548	
8313	0	30584	
8314	0	30616	
8315	0	30652	
8316	0	30680	
8317	0	30728	
8318	0	30750	
8319	0	30722	
8320	0	30692	
8321	0	30712	
8322	0	30736	
8323	0	30726	
8324	0	30720	
8325	0	30728	
8326	0	30744	
8327	0	30760	
8328	0	30760	
8329	0	30764	
8330	0	30784	
8331	0	30760	
8332	0	30760	
8333	0	30780	
8334	0	30800	
8335	0	30812	
8336	0	30816	
8337	0	30792	
8338	0	30784	
8339	0	30764	
8340	0	30762	
8341	0	30776	
8342	0	30788	
8343	0	30804	
8344	0	30800	
8345	0	30778	
8346	0	30792	
8347	0	30832	
8348	0	30876	
8349	0	30910	
8350	0	30916	
8351	0	30928	
8352	0	30936	
8353	0	30940	
8354	0	30932	
8355	0	30932	
8356	0	30942	
8357	0	30956	
8358	0	30984	
8359	0	30988	
8360	0	30961	
8361	0	30904	
8362	0	30888	
8363	0	30868	
8364	0	30874	
8365	0	30866	
8366	0	30860	
8367	0	30872	
8368	0	30880	
8369	0	30900	
8370	0	30920	
8371	0	30940	
8372	0	30968	
8373	0	31016	
8374	0	31044	
8375	0	31048	
8376	0	31056	
8377	0	31076	
8378	0	31068	
8379	0	31056	
8380	0	31060	
8381	0	31060	
8382	0	31016	
8383	0	31016	
8384	0	31008	
8385	0	31020	
8386	0	31036	
8387	0	31074	
8388	0	31072	
8389	0	31092	
8390	0	31128	
8391	0	31124	
8392	0	31104	
8393	0	31132	
8394	0	31166	
8395	0	31204	
8396	0	31196	
8397	0	31180	
8398	0	31172	
8399	0	31184	
8400	0	31188	
8401	0	31204	
8402	0	31184	
8403	0	31136	
8404	0	31108	
8405	0	31128	
8406	0	31192	
8407	0	31228	
8408	0	31272	
8409	0	31332	
8410	0	31376	
8411	0	31368	
8412	0	31376	
8413	0	31396	
8414	0	31424	
8415	0	31450	
8416	0	31448	
8417	0	31418	
8418	0	31436	
8419	0	31448	
8420	0	31412	
8421	0	31384	
8422	0	31348	
8423	0	31328	
8424	0	31308	
8425	0	31292	
8426	0	31288	
8427	0	31308	
8428	0	31332	
8429	0	31344	
8430	0	31340	
8431	0	31368	
8432	0	31408	
8433	0	31432	
8434	0	31476	
8435	0	31488	
8436	0	31516	
8437	0	31548	
8438	0	31580	
8439	0	31600	
8440	0	31606	
8441	0	31600	
8442	0	31636	
8443	0	31668	
8444	0	31700	
8445	0	31708	
8446	0	31656	
8447	0	31658	
8448	0	31692	
8449	0	31716	
8450	0	31764	
8451	0	31784	
8452	0	31796	
8453	0	31806	
8454	0	31836	
8455	0	31876	
8456	0	31860	
8457	0	31860	
8458	0	31876	
8459	0	31900	
8460	0	31900	
8461	0	31872	
8462	0	31844	
8463	0	31820	
8464	0	31796	
8465	0	31776	
8466	0	31788	
8467	0	31796	
8468	0	31800	
8469	0	31844	
8470	0	31872	
8471	0	31913	
8472	0	31956	
8473	0	31954	
8474	0	31940	
8475	0	31904	
8476	0	31932	
8477	0	31984	
8478	0	32060	
8479	0	32112	
8480	0	32128	
8481	0	32120	
8482	0	32116	
8483	0	32114	
8484	0	32128	
8485	0	32140	
8486	0	32132	
8487	0	32112	
8488	0	32100	
8489	0	32096	
8490	0	32102	
8491	0	32108	
8492	0	32132	
8493	0	32140	
8494	0	32160	
8495	0	32152	
8496	0	32160	
8497	0	32168	
8498	0	32180	
8499	0	32188	
8500	0	32204	
8501	0	32220	
8502	0	32236	
8503	0	32244	
8504	0	32248	
8505	0	32232	
8506	0	32226	
8507	0	32224	
8508	0	32250	
8509	0	32288	
8510	0	32332	
8511	0	32356	
8512	0	32352	
8513	0	32344	
8514	0	32354	
8515	0	32348	
8516	0	32368	
8517	0	32384	
8518	0	32376	
8519	0	32364	
8520	0	32390	
8521	0	32402	
8522	0	32416	
8523	0	32424	
8524	0	32412	
8525	0	32400	
8526	0	32372	
8527	0	32348	
8528	0	32344	
8529	0	32396	
8530	0	32444	
8531	0	32468	
8532	0	32496	
8533	0	32512	
8534	0	32500	
8535	0	32502	
8536	0	32492	
8537	0	32508	
8538	0	32544	
8539	0	32584	
8540	0	32612	
8541	0	32608	
8542	0	32628	
8543	0	32640	
8544	0	32644	
8545	0	32642	
8546	0	32680	
8547	0	32656	
8548	0	32640	
8549	0	32648	
8550	0	32652	
8551	0	32608	
8552	0	32572	
8553	0	32578	
8554	0	32636	
8555	0	32682	
8556	0	32696	
8557	0	32702	
8558	0	32680	
8559	0	32704	
8560	0	32718	
8561	0	32728	
8562	0	32730	
8563	0	32736	
8564	0	32740	
8565	0	32712	
8566	0	32688	
8567	0	32676	
8568	0	32672	
8569	0	32704	
8570	0	32736	
8571	0	32768	
8572	0	32808	
8573	0	32832	
8574	0	32860	
8575	0	32908	
8576	0	32928	
8577	0	32912	
8578	0	32912	
8579	0	32960	
8580	0	32960	
8581	0	32948	
8582	0	32932	
8583	0	32884	
8584	0	32864	
8585	0	32916	
8586	0	33012	
8587	0	33120	
8588	0	33232	
8589	0	33372	
8590	0	33500	
8591	0	33616	
