# OpenSignals Text File Format. Version 1
# {"00:07:80:4B:15:F7": {"position": 0, "device": "biosignalsplux", "device name": "00:07:80:4B:15:F7", "device connection": "BTH00:07:80:4B:15:F7", "sampling rate": 1000, "resolution": [16], "firmware version": 775, "comments": "", "keywords": "", "mode": 0, "sync interval": 2, "date": "2023-3-2", "time": "17:34:7.323", "channels": [1], "sensor": ["ECG"], "label": ["CH1"], "column": ["nSeq", "DI", "CH1"], "special": [{"SpO2": [80, 40, 5, 4, 3, 3]}, {"SpO2": [80, 40, 5, 4, 3, 3]}, {"SpO2": [80, 40, 5, 4, 3, 3]}, {"SpO2": [80, 40, 5, 4, 3, 3]}, {"SpO2": [80, 40, 5, 4, 3, 3]}, {"SpO2": [80, 40, 5, 4, 3, 3]}, {"SpO2": [80, 40, 5, 4, 3, 3]}, {"SpO2": [80, 40, 5, 4, 3, 3]}], "digital IO": [0, 1], "sleeve color": [""], "convertedValues": 0}}
# EndOfHeader
0	0	38152	
1	0	38064	
2	0	37988	
3	0	37896	
4	0	37800	
5	0	37706	
6	0	37544	
7	0	37424	
8	0	37352	
9	0	37292	
10	0	37220	
11	0	37188	
12	0	37092	
13	0	37016	
14	0	36848	
15	0	36610	
16	0	36360	
17	0	36152	
18	0	35948	
19	0	35752	
20	0	35624	
21	0	35448	
22	0	35236	
23	0	35044	
24	0	34880	
25	0	34724	
26	0	34588	
27	0	34412	
28	0	34152	
29	0	33840	
30	0	33580	
31	0	33388	
32	0	33272	
33	0	33156	
34	0	32960	
35	0	32700	
36	0	32440	
37	0	32200	
38	0	31900	
39	0	31736	
40	0	31604	
41	0	31508	
42	0	31400	
43	0	31280	
44	0	31096	
45	0	30910	
46	0	30798	
47	0	30740	
48	0	30712	
49	0	30624	
50	0	30466	
51	0	30312	
52	0	30192	
53	0	30096	
54	0	29992	
55	0	29858	
56	0	29760	
57	0	29752	
58	0	29718	
59	0	29642	
60	0	29536	
61	0	29464	
62	0	29414	
63	0	29420	
64	0	29412	
65	0	29336	
66	0	29276	
67	0	29224	
68	0	29204	
69	0	29178	
70	0	29196	
71	0	29296	
72	0	29388	
73	0	29384	
74	0	29420	
75	0	29444	
76	0	29394	
77	0	29304	
78	0	29220	
79	0	29120	
80	0	29056	
81	0	29040	
82	0	29076	
83	0	29120	
84	0	29104	
85	0	29088	
86	0	29128	
87	0	29212	
88	0	29288	
89	0	29346	
90	0	29416	
91	0	29460	
92	0	29536	
93	0	29652	
94	0	29696	
95	0	29720	
96	0	29732	
97	0	29664	
98	0	29568	
99	0	29480	
100	0	29388	
101	0	29344	
102	0	29336	
103	0	29376	
104	0	29416	
105	0	29512	
106	0	29628	
107	0	29710	
108	0	29728	
109	0	29732	
110	0	29792	
111	0	29924	
112	0	29924	
113	0	29852	
114	0	29856	
115	0	29912	
116	0	29888	
117	0	29866	
118	0	29864	
119	0	29824	
120	0	29850	
121	0	29872	
122	0	29870	
123	0	29932	
124	0	30048	
125	0	30140	
126	0	30240	
127	0	30316	
128	0	30392	
129	0	30400	
130	0	30396	
131	0	30436	
132	0	30540	
133	0	30592	
134	0	30694	
135	0	30772	
136	0	30760	
137	0	30680	
138	0	30588	
139	0	30528	
140	0	30528	
141	0	30560	
142	0	30616	
143	0	30656	
144	0	30696	
145	0	30756	
146	0	30752	
147	0	30720	
148	0	30712	
149	0	30786	
150	0	30902	
151	0	31012	
152	0	31108	
153	0	31168	
154	0	31176	
155	0	31178	
156	0	31172	
157	0	31192	
158	0	31210	
159	0	31176	
160	0	31068	
161	0	31032	
162	0	31024	
163	0	31080	
164	0	31220	
165	0	31296	
166	0	31304	
167	0	31300	
168	0	31384	
169	0	31436	
170	0	31452	
171	0	31496	
172	0	31588	
173	0	31620	
174	0	31632	
175	0	31560	
176	0	31548	
177	0	31548	
178	0	31480	
179	0	31508	
180	0	31552	
181	0	31564	
182	0	31520	
183	0	31472	
184	0	31500	
185	0	31552	
186	0	31576	
187	0	31576	
188	0	31576	
189	0	31620	
190	0	31688	
191	0	31748	
192	0	31744	
193	0	31716	
194	0	31684	
195	0	31620	
196	0	31524	
197	0	31480	
198	0	31450	
199	0	31496	
200	0	31600	
201	0	31656	
202	0	31684	
203	0	31640	
204	0	31586	
205	0	31484	
206	0	31562	
207	0	31744	
208	0	31792	
209	0	31808	
210	0	31852	
211	0	31892	
212	0	31928	
213	0	31940	
214	0	31968	
215	0	31962	
216	0	31848	
217	0	31732	
218	0	31644	
219	0	31612	
220	0	31636	
221	0	31672	
222	0	31704	
223	0	31710	
224	0	31720	
225	0	31688	
226	0	31672	
227	0	31652	
228	0	31680	
229	0	31816	
230	0	31972	
231	0	32088	
232	0	32154	
233	0	32184	
234	0	32150	
235	0	32060	
236	0	31936	
237	0	31784	
238	0	31688	
239	0	31648	
240	0	31624	
241	0	31720	
242	0	31864	
243	0	31988	
244	0	32016	
245	0	32060	
246	0	32080	
247	0	32016	
248	0	31980	
249	0	31996	
250	0	32032	
251	0	32056	
252	0	32056	
253	0	32088	
254	0	32128	
255	0	32112	
256	0	32096	
257	0	32040	
258	0	31964	
259	0	31896	
260	0	31852	
261	0	31836	
262	0	31852	
263	0	31840	
264	0	31804	
265	0	31868	
266	0	31980	
267	0	32004	
268	0	31980	
269	0	31956	
270	0	32004	
271	0	32048	
272	0	32060	
273	0	32056	
274	0	32032	
275	0	32042	
276	0	32050	
277	0	31992	
278	0	31932	
279	0	31946	
280	0	31972	
281	0	31964	
282	0	31964	
283	0	31932	
284	0	31880	
285	0	31892	
286	0	31948	
287	0	31936	
288	0	31892	
289	0	31776	
290	0	31720	
291	0	31832	
292	0	31988	
293	0	32128	
294	0	32212	
295	0	32164	
296	0	32088	
297	0	32048	
298	0	31968	
299	0	31936	
300	0	31920	
301	0	31962	
302	0	32032	
303	0	32000	
304	0	31940	
305	0	31892	
306	0	31876	
307	0	31888	
308	0	31904	
309	0	31936	
310	0	31970	
311	0	32012	
312	0	32110	
313	0	32176	
314	0	32228	
315	0	32284	
316	0	32306	
317	0	32296	
318	0	32232	
319	0	32120	
320	0	32090	
321	0	32112	
322	0	32112	
323	0	32146	
324	0	32164	
325	0	32164	
326	0	32168	
327	0	32196	
328	0	32240	
329	0	32244	
330	0	32320	
331	0	32426	
332	0	32456	
333	0	32432	
334	0	32424	
335	0	32484	
336	0	32456	
337	0	32408	
338	0	32380	
339	0	32372	
340	0	32428	
341	0	32472	
342	0	32488	
343	0	32524	
344	0	32592	
345	0	32636	
346	0	32608	
347	0	32588	
348	0	32560	
349	0	32552	
350	0	32564	
351	0	32560	
352	0	32544	
353	0	32552	
354	0	32604	
355	0	32644	
356	0	32672	
357	0	32648	
358	0	32588	
359	0	32520	
360	0	32492	
361	0	32448	
362	0	32464	
363	0	32484	
364	0	32512	
365	0	32532	
366	0	32592	
367	0	32624	
368	0	32676	
369	0	32780	
370	0	32908	
371	0	32984	
372	0	33008	
373	0	33084	
374	0	33120	
375	0	33088	
376	0	33108	
377	0	33144	
378	0	33128	
379	0	33012	
380	0	32960	
381	0	33012	
382	0	33128	
383	0	33180	
384	0	33304	
385	0	33492	
386	0	33684	
387	0	33864	
388	0	34096	
389	0	34236	
390	0	34328	
391	0	34336	
392	0	34296	
393	0	34256	
394	0	34296	
395	0	34344	
396	0	34376	
397	0	34434	
398	0	34448	
399	0	34460	
400	0	34484	
401	0	34512	
402	0	34512	
403	0	34472	
404	0	34444	
405	0	34456	
406	0	34552	
407	0	34792	
408	0	35138	
409	0	35410	
410	0	35576	
411	0	35636	
412	0	35660	
413	0	35636	
414	0	35536	
415	0	35312	
416	0	35056	
417	0	34980	
418	0	34976	
419	0	35010	
420	0	35130	
421	0	35272	
422	0	35424	
423	0	35450	
424	0	35304	
425	0	35128	
426	0	35052	
427	0	35004	
428	0	34924	
429	0	34764	
430	0	34656	
431	0	34484	
432	0	34270	
433	0	34116	
434	0	34012	
435	0	33916	
436	0	33776	
437	0	33602	
438	0	33524	
439	0	33472	
440	0	33368	
441	0	33272	
442	0	33208	
443	0	33178	
444	0	33184	
445	0	33162	
446	0	33144	
447	0	33128	
448	0	33096	
449	0	33088	
450	0	33068	
451	0	33020	
452	0	32988	
453	0	32926	
454	0	32872	
455	0	32770	
456	0	32632	
457	0	32480	
458	0	32332	
459	0	32248	
460	0	32180	
461	0	32140	
462	0	32066	
463	0	31872	
464	0	31736	
465	0	31676	
466	0	31628	
467	0	31612	
468	0	31572	
469	0	31540	
470	0	31540	
471	0	31600	
472	0	31656	
473	0	31700	
474	0	31740	
475	0	31748	
476	0	31658	
477	0	31676	
478	0	31688	
479	0	31700	
480	0	31680	
481	0	31648	
482	0	31626	
483	0	31568	
484	0	31502	
485	0	31428	
486	0	31420	
487	0	31546	
488	0	31648	
489	0	31636	
490	0	31632	
491	0	31634	
492	0	31660	
493	0	31712	
494	0	31812	
495	0	31940	
496	0	32024	
497	0	31948	
498	0	31828	
499	0	31744	
500	0	31756	
501	0	31760	
502	0	31728	
503	0	31680	
504	0	31656	
505	0	31704	
506	0	31728	
507	0	31752	
508	0	31748	
509	0	31812	
510	0	31896	
511	0	31970	
512	0	31972	
513	0	31884	
514	0	31864	
515	0	31912	
516	0	31936	
517	0	31936	
518	0	31892	
519	0	31844	
520	0	31848	
521	0	31844	
522	0	31892	
523	0	31932	
524	0	31932	
525	0	31920	
526	0	31976	
527	0	32058	
528	0	32092	
529	0	32068	
530	0	32080	
531	0	32134	
532	0	32176	
533	0	32168	
534	0	32114	
535	0	32054	
536	0	31952	
537	0	31808	
538	0	31684	
539	0	31520	
540	0	31296	
541	0	31248	
542	0	31376	
543	0	31520	
544	0	31636	
545	0	31824	
546	0	32186	
547	0	32704	
548	0	33300	
549	0	33988	
550	0	34796	
551	0	35674	
552	0	36616	
553	0	37740	
554	0	39164	
555	0	40736	
556	0	42200	
557	0	43564	
558	0	44844	
559	0	46164	
560	0	47600	
561	0	49032	
562	0	50416	
563	0	51736	
564	0	52916	
565	0	54080	
566	0	55328	
567	0	56464	
568	0	57440	
569	0	58064	
570	0	58468	
571	0	58564	
572	0	57860	
573	0	56164	
574	0	53856	
575	0	51032	
576	0	47892	
577	0	44724	
578	0	41378	
579	0	37792	
580	0	34064	
581	0	30816	
582	0	28558	
583	0	27220	
584	0	26510	
585	0	26138	
586	0	26076	
587	0	26160	
588	0	26292	
589	0	26532	
590	0	26936	
591	0	27500	
592	0	28060	
593	0	28548	
594	0	29032	
595	0	29516	
596	0	29900	
597	0	30220	
598	0	30546	
599	0	30792	
600	0	30958	
601	0	31060	
602	0	31104	
603	0	31156	
604	0	31128	
605	0	31052	
606	0	31036	
607	0	30992	
608	0	30876	
609	0	30760	
610	0	30732	
611	0	30736	
612	0	30768	
613	0	30756	
614	0	30740	
615	0	30728	
616	0	30684	
617	0	30612	
618	0	30586	
619	0	30576	
620	0	30584	
621	0	30568	
622	0	30548	
623	0	30556	
624	0	30560	
625	0	30606	
626	0	30636	
627	0	30684	
628	0	30752	
629	0	30820	
630	0	30824	
631	0	30784	
632	0	30796	
633	0	30832	
634	0	30828	
635	0	30816	
636	0	30780	
637	0	30728	
638	0	30644	
639	0	30612	
640	0	30612	
641	0	30624	
642	0	30656	
643	0	30716	
644	0	30760	
645	0	30800	
646	0	30888	
647	0	30944	
648	0	30948	
649	0	30948	
650	0	31012	
651	0	31072	
652	0	31144	
653	0	31192	
654	0	31240	
655	0	31292	
656	0	31272	
657	0	31252	
658	0	31244	
659	0	31256	
660	0	31192	
661	0	31236	
662	0	31304	
663	0	31312	
664	0	31328	
665	0	31316	
666	0	31304	
667	0	31344	
668	0	31440	
669	0	31500	
670	0	31528	
671	0	31564	
672	0	31656	
673	0	31776	
674	0	31812	
675	0	31816	
676	0	31832	
677	0	31832	
678	0	31800	
679	0	31784	
680	0	31828	
681	0	31828	
682	0	31784	
683	0	31752	
684	0	31736	
685	0	31788	
686	0	31888	
687	0	31918	
688	0	31954	
689	0	32020	
690	0	32104	
691	0	32192	
692	0	32380	
693	0	32484	
694	0	32456	
695	0	32410	
696	0	32372	
697	0	32352	
698	0	32284	
699	0	32242	
700	0	32232	
701	0	32268	
702	0	32316	
703	0	32384	
704	0	32436	
705	0	32460	
706	0	32496	
707	0	32520	
708	0	32552	
709	0	32588	
710	0	32672	
711	0	32764	
712	0	32846	
713	0	32936	
714	0	32972	
715	0	33018	
716	0	33064	
717	0	33048	
718	0	32996	
719	0	32916	
720	0	32916	
721	0	32936	
722	0	32938	
723	0	32988	
724	0	32972	
725	0	33008	
726	0	33086	
727	0	33092	
728	0	33088	
729	0	33104	
730	0	33154	
731	0	33228	
732	0	33324	
733	0	33388	
734	0	33424	
735	0	33388	
736	0	33360	
737	0	33300	
738	0	33280	
739	0	33408	
740	0	33488	
741	0	33524	
742	0	33604	
743	0	33690	
744	0	33728	
745	0	33808	
746	0	33860	
747	0	33864	
748	0	33892	
749	0	33948	
750	0	34020	
751	0	34112	
752	0	34242	
753	0	34308	
754	0	34352	
755	0	34412	
756	0	34476	
757	0	34552	
758	0	34552	
759	0	34544	
760	0	34576	
761	0	34624	
762	0	34644	
763	0	34656	
764	0	34696	
765	0	34748	
766	0	34804	
767	0	34868	
768	0	34956	
769	0	35108	
770	0	35220	
771	0	35352	
772	0	35484	
773	0	35568	
774	0	35656	
775	0	35732	
776	0	35746	
777	0	35760	
778	0	35796	
779	0	35844	
780	0	35928	
781	0	36028	
782	0	36048	
783	0	36088	
784	0	36144	
785	0	36196	
786	0	36292	
787	0	36384	
788	0	36476	
789	0	36616	
790	0	36748	
791	0	36868	
792	0	36932	
793	0	36976	
794	0	37068	
795	0	37192	
796	0	37356	
797	0	37420	
798	0	37408	
799	0	37408	
800	0	37440	
801	0	37472	
802	0	37498	
803	0	37540	
804	0	37644	
805	0	37724	
806	0	37760	
807	0	37804	
808	0	37840	
809	0	37916	
810	0	37944	
811	0	38000	
812	0	38120	
813	0	38236	
814	0	38308	
815	0	38336	
816	0	38316	
817	0	38276	
818	0	38228	
819	0	38124	
820	0	38074	
821	0	37992	
822	0	37904	
823	0	37856	
824	0	37876	
825	0	37904	
826	0	37896	
827	0	37860	
828	0	37748	
829	0	37560	
830	0	37484	
831	0	37528	
832	0	37544	
833	0	37540	
834	0	37424	
835	0	37208	
836	0	36968	
837	0	36740	
838	0	36508	
839	0	36256	
840	0	36044	
841	0	35888	
842	0	35732	
843	0	35588	
844	0	35364	
845	0	35168	
846	0	34967	
847	0	34764	
848	0	34500	
849	0	34244	
850	0	34040	
851	0	33860	
852	0	33716	
853	0	33572	
854	0	33424	
855	0	33224	
856	0	33040	
857	0	32808	
858	0	32568	
859	0	32352	
860	0	32196	
861	0	31992	
862	0	31780	
863	0	31552	
864	0	31400	
865	0	31280	
866	0	31136	
867	0	31040	
868	0	30874	
869	0	30744	
870	0	30620	
871	0	30532	
872	0	30484	
873	0	30432	
874	0	30348	
875	0	30248	
876	0	30132	
877	0	30050	
878	0	29956	
879	0	29816	
880	0	29690	
881	0	29572	
882	0	29516	
883	0	29506	
884	0	29432	
885	0	29384	
886	0	29378	
887	0	29306	
888	0	29256	
889	0	29200	
890	0	29084	
891	0	29096	
892	0	29160	
893	0	29160	
894	0	29136	
895	0	29092	
896	0	29072	
897	0	28988	
898	0	28912	
899	0	28864	
900	0	28848	
901	0	28832	
902	0	28822	
903	0	28828	
904	0	28864	
905	0	28920	
906	0	28944	
907	0	29020	
908	0	29132	
909	0	29164	
910	0	29164	
911	0	29184	
912	0	29172	
913	0	29164	
914	0	29188	
915	0	29176	
916	0	29164	
917	0	29188	
918	0	29232	
919	0	29200	
920	0	29178	
921	0	29220	
922	0	29294	
923	0	29340	
924	0	29376	
925	0	29428	
926	0	29500	
927	0	29552	
928	0	29508	
929	0	29472	
930	0	29500	
931	0	29584	
932	0	29676	
933	0	29748	
934	0	29760	
935	0	29752	
936	0	29754	
937	0	29760	
938	0	29728	
939	0	29668	
940	0	29660	
941	0	29640	
942	0	29622	
943	0	29604	
944	0	29600	
945	0	29616	
946	0	29668	
947	0	29732	
948	0	29792	
949	0	29808	
950	0	29888	
951	0	29976	
952	0	30096	
953	0	30236	
954	0	30300	
955	0	30306	
956	0	30244	
957	0	30176	
958	0	30160	
959	0	30122	
960	0	30064	
961	0	30144	
962	0	30248	
963	0	30300	
964	0	30328	
965	0	30300	
966	0	30320	
967	0	30272	
968	0	30156	
969	0	30134	
970	0	30240	
971	0	30336	
972	0	30456	
973	0	30588	
974	0	30652	
975	0	30636	
976	0	30604	
977	0	30596	
978	0	30584	
979	0	30536	
980	0	30550	
981	0	30548	
982	0	30528	
983	0	30496	
984	0	30484	
985	0	30512	
986	0	30496	
987	0	30480	
988	0	30520	
989	0	30576	
990	0	30636	
991	0	30692	
992	0	30764	
993	0	30824	
994	0	30900	
995	0	30880	
996	0	30784	
997	0	30720	
998	0	30684	
999	0	30720	
1000	0	30756	
1001	0	30744	
1002	0	30724	
1003	0	30764	
1004	0	30784	
1005	0	30736	
1006	0	30684	
1007	0	30746	
1008	0	30884	
1009	0	30946	
1010	0	31036	
1011	0	31060	
1012	0	31040	
1013	0	31064	
1014	0	31088	
1015	0	31136	
1016	0	31204	
1017	0	31228	
1018	0	31188	
1019	0	31072	
1020	0	31044	
1021	0	31072	
1022	0	31138	
1023	0	31072	
1024	0	30980	
1025	0	30944	
1026	0	30944	
1027	0	31008	
1028	0	31048	
1029	0	31056	
1030	0	31148	
1031	0	31242	
1032	0	31300	
1033	0	31352	
1034	0	31314	
1035	0	31232	
1036	0	31224	
1037	0	31226	
1038	0	31200	
1039	0	31168	
1040	0	31176	
1041	0	31092	
1042	0	31062	
1043	0	31076	
1044	0	31028	
1045	0	31032	
1046	0	31064	
1047	0	31092	
1048	0	31100	
1049	0	31148	
1050	0	31252	
1051	0	31384	
1052	0	31460	
1053	0	31476	
1054	0	31444	
1055	0	31392	
1056	0	31364	
1057	0	31360	
1058	0	31328	
1059	0	31304	
1060	0	31336	
1061	0	31340	
1062	0	31316	
1063	0	31320	
1064	0	31304	
1065	0	31256	
1066	0	31228	
1067	0	31224	
1068	0	31274	
1069	0	31344	
1070	0	31382	
1071	0	31396	
1072	0	31424	
1073	0	31432	
1074	0	31494	
1075	0	31584	
1076	0	31652	
1077	0	31648	
1078	0	31592	
1079	0	31514	
1080	0	31440	
1081	0	31400	
1082	0	31392	
1083	0	31376	
1084	0	31304	
1085	0	31324	
1086	0	31376	
1087	0	31382	
1088	0	31444	
1089	0	31498	
1090	0	31554	
1091	0	31584	
1092	0	31608	
1093	0	31644	
1094	0	31636	
1095	0	31576	
1096	0	31560	
1097	0	31624	
1098	0	31696	
1099	0	31732	
1100	0	31704	
1101	0	31676	
1102	0	31636	
1103	0	31668	
1104	0	31666	
1105	0	31704	
1106	0	31793	
1107	0	31866	
1108	0	31844	
1109	0	31752	
1110	0	31716	
1111	0	31751	
1112	0	31818	
1113	0	31884	
1114	0	31912	
1115	0	31882	
1116	0	31878	
1117	0	31852	
1118	0	31808	
1119	0	31776	
1120	0	31744	
1121	0	31736	
1122	0	31728	
1123	0	31764	
1124	0	31762	
1125	0	31768	
1126	0	31808	
1127	0	31876	
1128	0	31924	
1129	0	31944	
1130	0	31960	
1131	0	31924	
1132	0	31948	
1133	0	32048	
1134	0	32140	
1135	0	32112	
1136	0	32040	
1137	0	32046	
1138	0	31980	
1139	0	31930	
1140	0	31968	
1141	0	32028	
1142	0	32040	
1143	0	32028	
1144	0	31984	
1145	0	32004	
1146	0	32056	
1147	0	32078	
1148	0	32088	
1149	0	32096	
1150	0	32104	
1151	0	32156	
1152	0	32224	
1153	0	32304	
1154	0	32272	
1155	0	32304	
1156	0	32284	
1157	0	32216	
1158	0	32120	
1159	0	32072	
1160	0	32080	
1161	0	32124	
1162	0	32144	
1163	0	32204	
1164	0	32236	
1165	0	32240	
1166	0	32224	
1167	0	32252	
1168	0	32308	
1169	0	32378	
1170	0	32416	
1171	0	32416	
1172	0	32442	
1173	0	32490	
1174	0	32484	
1175	0	32444	
1176	0	32384	
1177	0	32312	
1178	0	32244	
1179	0	32168	
1180	0	32180	
1181	0	32224	
1182	0	32292	
1183	0	32282	
1184	0	32320	
1185	0	32352	
1186	0	32352	
1187	0	32368	
1188	0	32444	
1189	0	32530	
1190	0	32640	
1191	0	32808	
1192	0	33016	
1193	0	33164	
1194	0	33228	
1195	0	33344	
1196	0	33456	
1197	0	33600	
1198	0	33740	
1199	0	33892	
1200	0	34028	
1201	0	34048	
1202	0	34048	
1203	0	34060	
1204	0	34052	
1205	0	34084	
1206	0	34148	
1207	0	34216	
1208	0	34284	
1209	0	34304	
1210	0	34350	
1211	0	34428	
1212	0	34520	
1213	0	34608	
1214	0	34660	
1215	0	34708	
1216	0	34804	
1217	0	34848	
1218	0	34884	
1219	0	34908	
1220	0	34960	
1221	0	35049	
1222	0	35068	
1223	0	35052	
1224	0	35044	
1225	0	35072	
1226	0	35092	
1227	0	35040	
1228	0	35108	
1229	0	35228	
1230	0	35364	
1231	0	35568	
1232	0	35784	
1233	0	35944	
1234	0	35972	
1235	0	35888	
1236	0	35704	
1237	0	35604	
1238	0	35476	
1239	0	35268	
1240	0	34988	
1241	0	34728	
1242	0	34484	
1243	0	34248	
1244	0	34024	
1245	0	33872	
1246	0	33772	
1247	0	33728	
1248	0	33708	
1249	0	33632	
1250	0	33584	
1251	0	33580	
1252	0	33564	
1253	0	33600	
1254	0	33600	
1255	0	33620	
1256	0	33578	
1257	0	33508	
1258	0	33376	
1259	0	33290	
1260	0	33208	
1261	0	33080	
1262	0	32944	
1263	0	32844	
1264	0	32760	
1265	0	32644	
1266	0	32596	
1267	0	32540	
1268	0	32412	
1269	0	32300	
1270	0	32226	
1271	0	32208	
1272	0	32180	
1273	0	32108	
1274	0	32004	
1275	0	31884	
1276	0	31756	
1277	0	31656	
1278	0	31610	
1279	0	31552	
1280	0	31500	
1281	0	31456	
1282	0	31400	
1283	0	31360	
1284	0	31368	
1285	0	31360	
1286	0	31338	
1287	0	31378	
1288	0	31408	
1289	0	31444	
1290	0	31492	
1291	0	31496	
1292	0	31532	
1293	0	31588	
1294	0	31652	
1295	0	31572	
1296	0	31536	
1297	0	31624	
1298	0	31616	
1299	0	31432	
1300	0	31300	
1301	0	31296	
1302	0	31360	
1303	0	31492	
1304	0	31592	
1305	0	31604	
1306	0	31520	
1307	0	31420	
1308	0	31376	
1309	0	31456	
1310	0	31496	
1311	0	31528	
1312	0	31588	
1313	0	31610	
1314	0	31596	
1315	0	31648	
1316	0	31688	
1317	0	31710	
1318	0	31664	
1319	0	31556	
1320	0	31544	
1321	0	31586	
1322	0	31604	
1323	0	31576	
1324	0	31548	
1325	0	31600	
1326	0	31652	
1327	0	31658	
1328	0	31680	
1329	0	31720	
1330	0	31776	
1331	0	31864	
1332	0	31890	
1333	0	31930	
1334	0	31984	
1335	0	32044	
1336	0	32100	
1337	0	32076	
1338	0	32004	
1339	0	31948	
1340	0	31936	
1341	0	31908	
1342	0	31900	
1343	0	31912	
1344	0	31948	
1345	0	31984	
1346	0	32036	
1347	0	31972	
1348	0	31872	
1349	0	31756	
1350	0	31636	
1351	0	31512	
1352	0	31476	
1353	0	31554	
1354	0	31724	
1355	0	31876	
1356	0	32020	
1357	0	32320	
1358	0	32736	
1359	0	33192	
1360	0	33728	
1361	0	34392	
1362	0	35172	
1363	0	36088	
1364	0	37060	
1365	0	38276	
1366	0	39680	
1367	0	41204	
1368	0	42592	
1369	0	43980	
1370	0	45388	
1371	0	46912	
1372	0	48400	
1373	0	49852	
1374	0	51220	
1375	0	52496	
1376	0	53624	
1377	0	54776	
1378	0	55952	
1379	0	56992	
1380	0	57796	
1381	0	58252	
1382	0	58375	
1383	0	57896	
1384	0	56436	
1385	0	54300	
1386	0	51628	
1387	0	48648	
1388	0	45612	
1389	0	42480	
1390	0	39144	
1391	0	35504	
1392	0	32040	
1393	0	29468	
1394	0	27848	
1395	0	26928	
1396	0	26460	
1397	0	26356	
1398	0	26456	
1399	0	26592	
1400	0	26716	
1401	0	26956	
1402	0	27324	
1403	0	27752	
1404	0	28208	
1405	0	28688	
1406	0	29192	
1407	0	29640	
1408	0	30036	
1409	0	30388	
1410	0	30688	
1411	0	30940	
1412	0	31168	
1413	0	31272	
1414	0	31300	
1415	0	31308	
1416	0	31280	
1417	0	31228	
1418	0	31138	
1419	0	30992	
1420	0	30896	
1421	0	30816	
1422	0	30778	
1423	0	30808	
1424	0	30784	
1425	0	30720	
1426	0	30700	
1427	0	30712	
1428	0	30730	
1429	0	30800	
1430	0	30828	
1431	0	30820	
1432	0	30852	
1433	0	30922	
1434	0	30980	
1435	0	30992	
1436	0	30962	
1437	0	30948	
1438	0	30928	
1439	0	30820	
1440	0	30792	
1441	0	30828	
1442	0	30856	
1443	0	30840	
1444	0	30804	
1445	0	30812	
1446	0	30829	
1447	0	30872	
1448	0	30920	
1449	0	30976	
1450	0	31100	
1451	0	31180	
1452	0	31184	
1453	0	31148	
1454	0	31228	
1455	0	31308	
1456	0	31296	
1457	0	31264	
1458	0	31216	
1459	0	31180	
1460	0	31212	
1461	0	31264	
1462	0	31268	
1463	0	31260	
1464	0	31262	
1465	0	31332	
1466	0	31424	
1467	0	31488	
1468	0	31508	
1469	0	31492	
1470	0	31544	
1471	0	31636	
1472	0	31736	
1473	0	31800	
1474	0	31854	
1475	0	31856	
1476	0	31864	
1477	0	31792	
1478	0	31728	
1479	0	31656	
1480	0	31596	
1481	0	31632	
1482	0	31700	
1483	0	31748	
1484	0	31760	
1485	0	31748	
1486	0	31740	
1487	0	31808	
1488	0	31868	
1489	0	31928	
1490	0	31996	
1491	0	32176	
1492	0	32360	
1493	0	32468	
1494	0	32512	
1495	0	32528	
1496	0	32528	
1497	0	32504	
1498	0	32480	
1499	0	32376	
1500	0	32320	
1501	0	32284	
1502	0	32320	
1503	0	32400	
1504	0	32472	
1505	0	32480	
1506	0	32472	
1507	0	32512	
1508	0	32564	
1509	0	32628	
1510	0	32696	
1511	0	32752	
1512	0	32800	
1513	0	32848	
1514	0	32876	
1515	0	32900	
1516	0	32896	
1517	0	32872	
1518	0	32888	
1519	0	32892	
1520	0	32888	
1521	0	32928	
1522	0	32916	
1523	0	32932	
1524	0	32948	
1525	0	32932	
1526	0	32916	
1527	0	32938	
1528	0	32984	
1529	0	33048	
1530	0	33100	
1531	0	33144	
1532	0	33248	
1533	0	33352	
1534	0	33484	
1535	0	33564	
1536	0	33628	
1537	0	33576	
1538	0	33412	
1539	0	33280	
1540	0	33232	
1541	0	33276	
1542	0	33364	
1543	0	33472	
1544	0	33556	
1545	0	33528	
1546	0	33448	
1547	0	33456	
1548	0	33564	
1549	0	33648	
1550	0	33720	
1551	0	33816	
1552	0	33952	
1553	0	34044	
1554	0	34144	
1555	0	34202	
1556	0	34216	
1557	0	34212	
1558	0	34172	
1559	0	34144	
1560	0	34188	
1561	0	34212	
1562	0	34216	
1563	0	34220	
1564	0	34292	
1565	0	34328	
1566	0	34384	
1567	0	34448	
1568	0	34512	
1569	0	34508	
1570	0	34540	
1571	0	34656	
1572	0	34792	
1573	0	34940	
1574	0	35028	
1575	0	35048	
1576	0	35108	
1577	0	35148	
1578	0	35158	
1579	0	35144	
1580	0	35192	
1581	0	35320	
1582	0	35444	
1583	0	35492	
1584	0	35528	
1585	0	35624	
1586	0	35720	
1587	0	35776	
1588	0	35820	
1589	0	35888	
1590	0	35992	
1591	0	36104	
1592	0	36232	
1593	0	36352	
1594	0	36396	
1595	0	36442	
1596	0	36536	
1597	0	36592	
1598	0	36600	
1599	0	36610	
1600	0	36676	
1601	0	36768	
1602	0	36836	
1603	0	36922	
1604	0	37012	
1605	0	37096	
1606	0	37184	
1607	0	37184	
1608	0	37292	
1609	0	37400	
1610	0	37524	
1611	0	37604	
1612	0	37708	
1613	0	37788	
1614	0	37852	
1615	0	37920	
1616	0	38008	
1617	0	38048	
1618	0	38068	
1619	0	38108	
1620	0	38116	
1621	0	38056	
1622	0	38068	
1623	0	38092	
1624	0	38080	
1625	0	38090	
1626	0	38152	
1627	0	38220	
1628	0	38244	
1629	0	38252	
1630	0	38328	
1631	0	38372	
1632	0	38416	
1633	0	38432	
1634	0	38456	
1635	0	38440	
1636	0	38404	
1637	0	38328	
1638	0	38208	
1639	0	38064	
1640	0	37940	
1641	0	37832	
1642	0	37628	
1643	0	37412	
1644	0	37276	
1645	0	37144	
1646	0	37016	
1647	0	36900	
1648	0	36792	
1649	0	36636	
1650	0	36500	
1651	0	36400	
1652	0	36272	
1653	0	36140	
1654	0	36016	
1655	0	35840	
1656	0	35594	
1657	0	35352	
1658	0	35120	
1659	0	34880	
1660	0	34684	
1661	0	34476	
1662	0	34288	
1663	0	34072	
1664	0	33876	
1665	0	33664	
1666	0	33452	
1667	0	33264	
1668	0	33096	
1669	0	32952	
1670	0	32752	
1671	0	32564	
1672	0	32400	
1673	0	32280	
1674	0	32144	
1675	0	32020	
1676	0	31844	
1677	0	31652	
1678	0	31440	
1679	0	31264	
1680	0	31072	
1681	0	30896	
1682	0	30752	
1683	0	30628	
1684	0	30560	
1685	0	30480	
1686	0	30376	
1687	0	30273	
1688	0	30184	
1689	0	30060	
1690	0	30000	
1691	0	29954	
1692	0	29920	
1693	0	29832	
1694	0	29772	
1695	0	29696	
1696	0	29640	
1697	0	29524	
1698	0	29420	
1699	0	29288	
1700	0	29204	
1701	0	29132	
1702	0	29052	
1703	0	28976	
1704	0	28908	
1705	0	28924	
1706	0	28956	
1707	0	29024	
1708	0	29012	
1709	0	28976	
1710	0	29028	
1711	0	29052	
1712	0	29060	
1713	0	29100	
1714	0	29088	
1715	0	29104	
1716	0	29148	
1717	0	29176	
1718	0	29120	
1719	0	29092	
1720	0	29082	
1721	0	29024	
1722	0	29012	
1723	0	29084	
1724	0	29116	
1725	0	29136	
1726	0	29160	
1727	0	29168	
1728	0	29156	
1729	0	29128	
1730	0	29140	
1731	0	29248	
1732	0	29368	
1733	0	29420	
1734	0	29505	
1735	0	29516	
1736	0	29470	
1737	0	29408	
1738	0	29408	
1739	0	29392	
1740	0	29360	
1741	0	29362	
1742	0	29370	
1743	0	29392	
1744	0	29392	
1745	0	29388	
1746	0	29428	
1747	0	29564	
1748	0	29664	
1749	0	29656	
1750	0	29652	
1751	0	29692	
1752	0	29806	
1753	0	29962	
1754	0	30028	
1755	0	30040	
1756	0	30024	
1757	0	30012	
1758	0	30008	
1759	0	29984	
1760	0	29974	
1761	0	29994	
1762	0	30036	
1763	0	30076	
1764	0	30088	
1765	0	30164	
1766	0	30250	
1767	0	30324	
1768	0	30408	
1769	0	30416	
1770	0	30456	
1771	0	30492	
1772	0	30520	
1773	0	30644	
1774	0	30716	
1775	0	30728	
1776	0	30724	
1777	0	30696	
1778	0	30664	
1779	0	30608	
1780	0	30580	
1781	0	30602	
1782	0	30636	
1783	0	30712	
1784	0	30760	
1785	0	30770	
1786	0	30828	
1787	0	30878	
1788	0	30952	
1789	0	31052	
1790	0	31122	
1791	0	31176	
1792	0	31240	
1793	0	31332	
1794	0	31488	
1795	0	31536	
1796	0	31484	
1797	0	31448	
1798	0	31396	
1799	0	31360	
1800	0	31356	
1801	0	31404	
1802	0	31404	
1803	0	31388	
1804	0	31384	
1805	0	31436	
1806	0	31496	
1807	0	31520	
1808	0	31544	
1809	0	31534	
1810	0	31504	
1811	0	31588	
1812	0	31738	
1813	0	31880	
1814	0	31928	
1815	0	31968	
1816	0	32028	
1817	0	32112	
1818	0	32148	
1819	0	32080	
1820	0	32048	
1821	0	32004	
1822	0	31962	
1823	0	31952	
1824	0	31984	
1825	0	32056	
1826	0	32164	
1827	0	32264	
1828	0	32248	
1829	0	32228	
1830	0	32292	
1831	0	32404	
1832	0	32536	
1833	0	32696	
1834	0	32796	
1835	0	32836	
1836	0	32802	
1837	0	32748	
1838	0	32740	
1839	0	32760	
1840	0	32768	
1841	0	32760	
1842	0	32800	
1843	0	32868	
1844	0	32952	
1845	0	33044	
1846	0	33088	
1847	0	33124	
1848	0	33224	
1849	0	33336	
1850	0	33452	
1851	0	33592	
1852	0	33748	
1853	0	33900	
1854	0	34016	
1855	0	34140	
1856	0	34200	
1857	0	34258	
1858	0	34348	
1859	0	34420	
1860	0	34500	
1861	0	34660	
1862	0	34808	
1863	0	34940	
1864	0	35124	
1865	0	35356	
1866	0	35598	
1867	0	35936	
1868	0	36220	
1869	0	36460	
1870	0	36864	
1871	0	37376	
1872	0	37932	
1873	0	38400	
1874	0	38800	
1875	0	39132	
1876	0	39372	
1877	0	39576	
1878	0	39676	
1879	0	39712	
1880	0	39764	
1881	0	39940	
1882	0	40172	
1883	0	40388	
1884	0	40488	
1885	0	40440	
1886	0	40368	
1887	0	40264	
1888	0	40184	
1889	0	40096	
1890	0	39992	
1891	0	39940	
1892	0	39912	
1893	0	39828	
1894	0	39696	
1895	0	39548	
1896	0	39388	
1897	0	39268	
1898	0	39106	
1899	0	38836	
1900	0	38608	
1901	0	38484	
1902	0	38328	
1903	0	38152	
1904	0	37984	
1905	0	37868	
1906	0	37788	
1907	0	37658	
1908	0	37532	
1909	0	37412	
1910	0	37272	
1911	0	37168	
1912	0	37088	
1913	0	36990	
1914	0	36832	
1915	0	36672	
1916	0	36528	
1917	0	36372	
1918	0	36184	
1919	0	36000	
1920	0	35768	
1921	0	35604	
1922	0	35464	
1923	0	35332	
1924	0	35220	
1925	0	35080	
1926	0	34976	
1927	0	34880	
1928	0	34768	
1929	0	34672	
1930	0	34592	
1931	0	34572	
1932	0	34576	
1933	0	34560	
1934	0	34418	
1935	0	34256	
1936	0	34100	
1937	0	33992	
1938	0	33924	
1939	0	33832	
1940	0	33744	
1941	0	33652	
1942	0	33590	
1943	0	33512	
1944	0	33424	
1945	0	33324	
1946	0	33240	
1947	0	33184	
1948	0	33096	
1949	0	33034	
1950	0	32954	
1951	0	32924	
1952	0	32916	
1953	0	32888	
1954	0	32824	
1955	0	32732	
1956	0	32644	
1957	0	32556	
1958	0	32456	
1959	0	32440	
1960	0	32440	
1961	0	32420	
1962	0	32392	
1963	0	32356	
1964	0	32376	
1965	0	32380	
1966	0	32356	
1967	0	32420	
1968	0	32576	
1969	0	32712	
1970	0	32844	
1971	0	33028	
1972	0	33192	
1973	0	33300	
1974	0	33312	
1975	0	33290	
1976	0	33176	
1977	0	33076	
1978	0	33004	
1979	0	32914	
1980	0	32856	
1981	0	32872	
1982	0	32928	
1983	0	33000	
1984	0	32980	
1985	0	32960	
1986	0	32988	
1987	0	33044	
1988	0	33084	
1989	0	33168	
1990	0	33320	
1991	0	33484	
1992	0	33620	
1993	0	33720	
1994	0	33792	
1995	0	33908	
1996	0	33960	
1997	0	33896	
1998	0	33780	
1999	0	33724	
2000	0	33752	
2001	0	33840	
2002	0	33932	
2003	0	34016	
2004	0	34164	
2005	0	34360	
2006	0	34452	
2007	0	34364	
2008	0	34176	
2009	0	33992	
2010	0	33904	
2011	0	33888	
2012	0	33824	
2013	0	33704	
2014	0	33536	
2015	0	33265	
2016	0	33036	
2017	0	32836	
2018	0	32664	
2019	0	32536	
2020	0	32490	
2021	0	32414	
2022	0	32308	
2023	0	32188	
2024	0	32116	
2025	0	32068	
2026	0	32032	
2027	0	32016	
2028	0	32040	
2029	0	32016	
2030	0	31960	
2031	0	31898	
2032	0	31812	
2033	0	31732	
2034	0	31616	
2035	0	31514	
2036	0	31382	
2037	0	31288	
2038	0	31180	
2039	0	31018	
2040	0	30872	
2041	0	30796	
2042	0	30716	
2043	0	30560	
2044	0	30392	
2045	0	30332	
2046	0	30254	
2047	0	30160	
2048	0	30040	
2049	0	29904	
2050	0	29816	
2051	0	29764	
2052	0	29732	
2053	0	29768	
2054	0	29868	
2055	0	29908	
2056	0	29884	
2057	0	29808	
2058	0	29722	
2059	0	29696	
2060	0	29692	
2061	0	29704	
2062	0	29708	
2063	0	29800	
2064	0	29828	
2065	0	29800	
2066	0	29792	
2067	0	29754	
2068	0	29784	
2069	0	29800	
2070	0	29808	
2071	0	29844	
2072	0	29900	
2073	0	29968	
2074	0	30032	
2075	0	30092	
2076	0	30124	
2077	0	30140	
2078	0	30140	
2079	0	30136	
2080	0	30144	
2081	0	30132	
2082	0	30076	
2083	0	30032	
2084	0	30030	
2085	0	30016	
2086	0	29944	
2087	0	29868	
2088	0	29824	
2089	0	29820	
2090	0	29881	
2091	0	30000	
2092	0	30052	
2093	0	30042	
2094	0	30052	
2095	0	30120	
2096	0	30196	
2097	0	30194	
2098	0	30212	
2099	0	30192	
2100	0	30096	
2101	0	30020	
2102	0	30044	
2103	0	30060	
2104	0	30072	
2105	0	30080	
2106	0	30152	
2107	0	30176	
2108	0	30176	
2109	0	30188	
2110	0	30280	
2111	0	30324	
2112	0	30348	
2113	0	30474	
2114	0	30560	
2115	0	30560	
2116	0	30456	
2117	0	30320	
2118	0	30240	
2119	0	30156	
2120	0	30068	
2121	0	29980	
2122	0	29808	
2123	0	29676	
2124	0	29632	
2125	0	29664	
2126	0	29804	
2127	0	30004	
2128	0	30248	
2129	0	30568	
2130	0	30992	
2131	0	31488	
2132	0	32076	
2133	0	32792	
2134	0	33600	
2135	0	34436	
2136	0	35368	
2137	0	36492	
2138	0	37816	
2139	0	39248	
2140	0	40684	
2141	0	42128	
2142	0	43600	
2143	0	45142	
2144	0	46640	
2145	0	48124	
2146	0	49472	
2147	0	50708	
2148	0	51836	
2149	0	52912	
2150	0	54100	
2151	0	55200	
2152	0	56096	
2153	0	56604	
2154	0	56772	
2155	0	56340	
2156	0	54920	
2157	0	52712	
2158	0	49928	
2159	0	46816	
2160	0	43704	
2161	0	40536	
2162	0	37148	
2163	0	33504	
2164	0	30110	
2165	0	27516	
2166	0	25968	
2167	0	25152	
2168	0	24716	
2169	0	24554	
2170	0	24608	
2171	0	24764	
2172	0	25008	
2173	0	25396	
2174	0	25832	
2175	0	26256	
2176	0	26626	
2177	0	26990	
2178	0	27400	
2179	0	27812	
2180	0	28116	
2181	0	28402	
2182	0	28700	
2183	0	28944	
2184	0	29120	
2185	0	29196	
2186	0	29200	
2187	0	29168	
2188	0	29176	
2189	0	29172	
2190	0	29196	
2191	0	29228	
2192	0	29204	
2193	0	29108	
2194	0	29036	
2195	0	29020	
2196	0	28996	
2197	0	28988	
2198	0	28948	
2199	0	28916	
2200	0	28884	
2201	0	28816	
2202	0	28828	
2203	0	28896	
2204	0	28898	
2205	0	28848	
2206	0	28812	
2207	0	28826	
2208	0	28872	
2209	0	28882	
2210	0	28868	
2211	0	28924	
2212	0	29020	
2213	0	29108	
2214	0	29164	
2215	0	29204	
2216	0	29208	
2217	0	29226	
2218	0	29272	
2219	0	29250	
2220	0	29184	
2221	0	29148	
2222	0	29191	
2223	0	29260	
2224	0	29316	
2225	0	29348	
2226	0	29404	
2227	0	29444	
2228	0	29466	
2229	0	29492	
2230	0	29564	
2231	0	29640	
2232	0	29708	
2233	0	29772	
2234	0	29860	
2235	0	29944	
2236	0	29988	
2237	0	29932	
2238	0	29922	
2239	0	29912	
2240	0	29860	
2241	0	29880	
2242	0	29928	
2243	0	30044	
2244	0	30080	
2245	0	30092	
2246	0	30140	
2247	0	30196	
2248	0	30292	
2249	0	30372	
2250	0	30482	
2251	0	30576	
2252	0	30680	
2253	0	30748	
2254	0	30816	
2255	0	30864	
2256	0	30808	
2257	0	30856	
2258	0	30914	
2259	0	30922	
2260	0	30866	
2261	0	30866	
2262	0	30880	
2263	0	30908	
2264	0	30920	
2265	0	30956	
2266	0	31028	
2267	0	31168	
2268	0	31220	
2269	0	31178	
2270	0	31156	
2271	0	31156	
2272	0	31238	
2273	0	31348	
2274	0	31452	
2275	0	31520	
2276	0	31546	
2277	0	31508	
2278	0	31480	
2279	0	31464	
2280	0	31500	
2281	0	31524	
2282	0	31534	
2283	0	31560	
2284	0	31608	
2285	0	31636	
2286	0	31636	
2287	0	31632	
2288	0	31652	
2289	0	31744	
2290	0	31804	
2291	0	31864	
2292	0	31896	
2293	0	31976	
2294	0	32096	
2295	0	32192	
2296	0	32208	
2297	0	32200	
2298	0	32240	
2299	0	32200	
2300	0	32084	
2301	0	32008	
2302	0	31952	
2303	0	31904	
2304	0	31892	
2305	0	31880	
2306	0	31936	
2307	0	32016	
2308	0	32080	
2309	0	32154	
2310	0	32216	
2311	0	32236	
2312	0	32236	
2313	0	32240	
2314	0	32224	
2315	0	32224	
2316	0	32272	
2317	0	32288	
2318	0	32320	
2319	0	32384	
2320	0	32420	
2321	0	32368	
2322	0	32296	
2323	0	32320	
2324	0	32404	
2325	0	32428	
2326	0	32432	
2327	0	32480	
2328	0	32536	
2329	0	32564	
2330	0	32620	
2331	0	32724	
2332	0	32760	
2333	0	32840	
2334	0	32932	
2335	0	32952	
2336	0	32936	
2337	0	32916	
2338	0	32896	
2339	0	32856	
2340	0	32872	
2341	0	32920	
2342	0	32924	
2343	0	32900	
2344	0	32912	
2345	0	32964	
2346	0	33030	
2347	0	33124	
2348	0	33208	
2349	0	33232	
2350	0	33265	
2351	0	33396	
2352	0	33532	
2353	0	33672	
2354	0	33804	
2355	0	33880	
2356	0	33908	
2357	0	33908	
2358	0	33946	
2359	0	33984	
2360	0	33960	
2361	0	33948	
2362	0	33992	
2363	0	34100	
2364	0	34224	
2365	0	34242	
2366	0	34216	
2367	0	34280	
2368	0	34380	
2369	0	34480	
2370	0	34522	
2371	0	34588	
2372	0	34720	
2373	0	34886	
2374	0	35056	
2375	0	35220	
2376	0	35324	
2377	0	35296	
2378	0	35240	
2379	0	35148	
2380	0	35200	
2381	0	35360	
2382	0	35488	
2383	0	35516	
2384	0	35592	
2385	0	35680	
2386	0	35784	
2387	0	35840	
2388	0	35884	
2389	0	35956	
2390	0	36004	
2391	0	36050	
2392	0	36136	
2393	0	36224	
2394	0	36284	
2395	0	36356	
2396	0	36392	
2397	0	36380	
2398	0	36372	
2399	0	36326	
2400	0	36288	
2401	0	36254	
2402	0	36184	
2403	0	36116	
2404	0	36064	
2405	0	36040	
2406	0	36048	
2407	0	36016	
2408	0	35978	
2409	0	35872	
2410	0	35760	
2411	0	35684	
2412	0	35608	
2413	0	35560	
2414	0	35484	
2415	0	35372	
2416	0	35240	
2417	0	35066	
2418	0	34868	
2419	0	34624	
2420	0	34380	
2421	0	34144	
2422	0	33914	
2423	0	33692	
2424	0	33476	
2425	0	33268	
2426	0	33060	
2427	0	32844	
2428	0	32636	
2429	0	32452	
2430	0	32284	
2431	0	32072	
2432	0	31868	
2433	0	31656	
2434	0	31432	
2435	0	31188	
2436	0	30952	
2437	0	30760	
2438	0	30550	
2439	0	30264	
2440	0	30032	
2441	0	29848	
2442	0	29644	
2443	0	29432	
2444	0	29232	
2445	0	29024	
2446	0	28838	
2447	0	28688	
2448	0	28536	
2449	0	28402	
2450	0	28260	
2451	0	28200	
2452	0	28128	
2453	0	28006	
2454	0	27864	
2455	0	27744	
2456	0	27674	
2457	0	27620	
2458	0	27536	
2459	0	27348	
2460	0	27264	
2461	0	27204	
2462	0	27136	
2463	0	27060	
2464	0	26952	
2465	0	26852	
2466	0	26828	
2467	0	26832	
2468	0	26868	
2469	0	26880	
2470	0	26896	
2471	0	26928	
2472	0	26984	
2473	0	27012	
2474	0	27064	
2475	0	27092	
2476	0	27074	
2477	0	27048	
2478	0	27004	
2479	0	26984	
2480	0	27008	
2481	0	27032	
2482	0	27048	
2483	0	27072	
2484	0	27104	
2485	0	27104	
2486	0	27128	
2487	0	27184	
2488	0	27232	
2489	0	27304	
2490	0	27384	
2491	0	27478	
2492	0	27608	
2493	0	27748	
2494	0	27872	
2495	0	27956	
2496	0	27984	
2497	0	28052	
2498	0	28058	
2499	0	28052	
2500	0	28088	
2501	0	28204	
2502	0	28316	
2503	0	28386	
2504	0	28440	
2505	0	28480	
2506	0	28588	
2507	0	28720	
2508	0	28794	
2509	0	28792	
2510	0	28864	
2511	0	28988	
2512	0	29076	
2513	0	29144	
2514	0	29212	
2515	0	29276	
2516	0	29296	
2517	0	29288	
2518	0	29316	
2519	0	29320	
2520	0	29308	
2521	0	29344	
2522	0	29376	
2523	0	29424	
2524	0	29464	
2525	0	29548	
2526	0	29612	
2527	0	29664	
2528	0	29728	
2529	0	29732	
2530	0	29720	
2531	0	29736	
2532	0	29732	
2533	0	29716	
2534	0	29712	
2535	0	29724	
2536	0	29702	
2537	0	29604	
2538	0	29508	
2539	0	29364	
2540	0	29272	
2541	0	29280	
2542	0	29272	
2543	0	29222	
2544	0	29200	
2545	0	29196	
2546	0	29224	
2547	0	29248	
2548	0	29316	
2549	0	29348	
2550	0	29396	
2551	0	29440	
2552	0	29532	
2553	0	29552	
2554	0	29604	
2555	0	29664	
2556	0	29682	
2557	0	29598	
2558	0	29494	
2559	0	29404	
2560	0	29308	
2561	0	29268	
2562	0	29252	
2563	0	29268	
2564	0	29308	
2565	0	29340	
2566	0	29368	
2567	0	29416	
2568	0	29488	
2569	0	29504	
2570	0	29500	
2571	0	29564	
2572	0	29700	
2573	0	29824	
2574	0	29936	
2575	0	30012	
2576	0	30016	
2577	0	30028	
2578	0	30020	
2579	0	29960	
2580	0	30008	
2581	0	30072	
2582	0	30130	
2583	0	30165	
2584	0	30216	
2585	0	30308	
2586	0	30414	
2587	0	30540	
2588	0	30628	
2589	0	30708	
2590	0	30756	
2591	0	30808	
2592	0	30906	
2593	0	30996	
2594	0	31060	
2595	0	31100	
2596	0	31136	
2597	0	31164	
2598	0	31164	
2599	0	31170	
2600	0	31192	
2601	0	31196	
2602	0	31208	
2603	0	31192	
2604	0	31152	
2605	0	31168	
2606	0	31168	
2607	0	31096	
2608	0	31032	
2609	0	31016	
2610	0	31020	
2611	0	31004	
2612	0	30988	
2613	0	31044	
2614	0	31120	
2615	0	31132	
2616	0	31028	
2617	0	30944	
2618	0	30852	
2619	0	30816	
2620	0	30784	
2621	0	30712	
2622	0	30560	
2623	0	30424	
2624	0	30294	
2625	0	30144	
2626	0	29992	
2627	0	29864	
2628	0	29792	
2629	0	29712	
2630	0	29640	
2631	0	29612	
2632	0	29564	
2633	0	29528	
2634	0	29520	
2635	0	29536	
2636	0	29472	
2637	0	29316	
2638	0	29146	
2639	0	28932	
2640	0	28744	
2641	0	28546	
2642	0	28316	
2643	0	28096	
2644	0	27856	
2645	0	27672	
2646	0	27532	
2647	0	27314	
2648	0	27116	
2649	0	26908	
2650	0	26661	
2651	0	26392	
2652	0	26088	
2653	0	25772	
2654	0	25456	
2655	0	25120	
2656	0	24742	
2657	0	24292	
2658	0	23800	
2659	0	23228	
2660	0	22624	
2661	0	22036	
2662	0	21488	
2663	0	20928	
2664	0	20364	
2665	0	19816	
2666	0	19276	
2667	0	18722	
2668	0	18148	
2669	0	17474	
2670	0	16762	
2671	0	16104	
2672	0	15520	
2673	0	15068	
2674	0	14644	
2675	0	14121	
2676	0	13644	
2677	0	13231	
2678	0	12792	
2679	0	12320	
2680	0	11880	
2681	0	11386	
2682	0	10924	
2683	0	10580	
2684	0	10320	
2685	0	10091	
2686	0	9942	
2687	0	9838	
2688	0	9810	
2689	0	9842	
2690	0	9873	
2691	0	9900	
2692	0	9922	
2693	0	9912	
2694	0	9832	
2695	0	9740	
2696	0	9697	
2697	0	9596	
2698	0	9388	
2699	0	9144	
2700	0	8848	
2701	0	8593	
2702	0	8448	
2703	0	8480	
2704	0	8668	
2705	0	9034	
2706	0	9560	
2707	0	10200	
2708	0	10964	
2709	0	11816	
2710	0	12736	
2711	0	13664	
2712	0	14526	
2713	0	15328	
2714	0	16108	
2715	0	16844	
2716	0	17508	
2717	0	18064	
2718	0	18661	
2719	0	19312	
2720	0	20020	
2721	0	20796	
2722	0	21554	
2723	0	22288	
2724	0	22948	
2725	0	23484	
2726	0	23940	
2727	0	24412	
2728	0	24888	
2729	0	25344	
2730	0	25780	
2731	0	26208	
2732	0	26620	
2733	0	26980	
2734	0	27336	
2735	0	27640	
2736	0	27916	
2737	0	28160	
2738	0	28416	
2739	0	28648	
2740	0	28928	
2741	0	29212	
2742	0	29462	
2743	0	29712	
2744	0	29992	
2745	0	30260	
2746	0	30568	
2747	0	30872	
2748	0	31152	
2749	0	31392	
2750	0	31600	
2751	0	31804	
2752	0	32058	
2753	0	32336	
2754	0	32596	
2755	0	32808	
2756	0	32948	
2757	0	33076	
2758	0	33196	
2759	0	33324	
2760	0	33388	
2761	0	33444	
2762	0	33496	
2763	0	33652	
2764	0	33784	
2765	0	33912	
2766	0	34056	
2767	0	34176	
2768	0	34284	
2769	0	34408	
2770	0	34576	
2771	0	34752	
2772	0	34912	
2773	0	35108	
2774	0	35312	
2775	0	35468	
2776	0	35570	
2777	0	35696	
2778	0	35840	
2779	0	36000	
2780	0	36120	
2781	0	36156	
2782	0	36164	
2783	0	36228	
2784	0	36336	
2785	0	36468	
2786	0	36592	
2787	0	36760	
2788	0	36900	
2789	0	37016	
2790	0	37120	
2791	0	37284	
2792	0	37476	
2793	0	37564	
2794	0	37624	
2795	0	37752	
2796	0	37852	
2797	0	37960	
2798	0	38036	
2799	0	38076	
2800	0	38100	
2801	0	38104	
2802	0	38084	
2803	0	38120	
2804	0	38168	
2805	0	38224	
2806	0	38296	
2807	0	38356	
2808	0	38400	
2809	0	38488	
2810	0	38600	
2811	0	38696	
2812	0	38792	
2813	0	38884	
2814	0	38944	
2815	0	39012	
2816	0	39064	
2817	0	39084	
2818	0	39100	
2819	0	39136	
2820	0	39124	
2821	0	39132	
2822	0	39204	
2823	0	39304	
2824	0	39364	
2825	0	39440	
2826	0	39520	
2827	0	39600	
2828	0	39628	
2829	0	39664	
2830	0	39724	
2831	0	39780	
2832	0	39784	
2833	0	39808	
2834	0	39840	
2835	0	39840	
2836	0	39748	
2837	0	39652	
2838	0	39528	
2839	0	39348	
2840	0	39192	
2841	0	39164	
2842	0	39256	
2843	0	39424	
2844	0	39620	
2845	0	39844	
2846	0	40176	
2847	0	40640	
2848	0	41196	
2849	0	41834	
2850	0	42564	
2851	0	43416	
2852	0	44464	
2853	0	45672	
2854	0	47056	
2855	0	48552	
2856	0	50008	
2857	0	51464	
2858	0	53016	
2859	0	54556	
2860	0	56160	
2861	0	57744	
2862	0	59168	
2863	0	60480	
2864	0	61612	
2865	0	62720	
2866	0	63876	
2867	0	65000	
2868	0	65535	
2869	0	65535	
2870	0	65535	
2871	0	65535	
2872	0	65535	
2873	0	64024	
2874	0	61596	
2875	0	58628	
2876	0	55412	
2877	0	52260	
2878	0	49028	
2879	0	45600	
2880	0	42060	
2881	0	39148	
2882	0	37178	
2883	0	35932	
2884	0	35304	
2885	0	35064	
2886	0	34984	
2887	0	35010	
2888	0	35196	
2889	0	35432	
2890	0	35740	
2891	0	36148	
2892	0	36628	
2893	0	37112	
2894	0	37664	
2895	0	38140	
2896	0	38520	
2897	0	38780	
2898	0	39016	
2899	0	39212	
2900	0	39348	
2901	0	39464	
2902	0	39520	
2903	0	39464	
2904	0	39472	
2905	0	39456	
2906	0	39404	
2907	0	39272	
2908	0	39190	
2909	0	39120	
2910	0	39060	
2911	0	39068	
2912	0	39064	
2913	0	39080	
2914	0	39072	
2915	0	39024	
2916	0	39000	
2917	0	39056	
2918	0	38992	
2919	0	38824	
2920	0	38768	
2921	0	38804	
2922	0	38800	
2923	0	38780	
2924	0	38724	
2925	0	38656	
2926	0	38636	
2927	0	38672	
2928	0	38760	
2929	0	38860	
2930	0	38888	
2931	0	38876	
2932	0	38944	
2933	0	38976	
2934	0	39052	
2935	0	39128	
2936	0	39268	
2937	0	39416	
2938	0	39472	
2939	0	39512	
2940	0	39568	
2941	0	39620	
2942	0	39632	
2943	0	39576	
2944	0	39572	
2945	0	39664	
2946	0	39744	
2947	0	39816	
2948	0	39884	
2949	0	40008	
2950	0	40168	
2951	0	40276	
2952	0	40436	
2953	0	40582	
2954	0	40656	
2955	0	40812	
2956	0	40944	
2957	0	40980	
2958	0	41008	
2959	0	41168	
2960	0	41412	
2961	0	41604	
2962	0	41780	
2963	0	41974	
2964	0	42266	
2965	0	42616	
2966	0	43080	
2967	0	43700	
2968	0	44464	
2969	0	45228	
2970	0	45794	
2971	0	46180	
2972	0	46336	
2973	0	46436	
2974	0	46528	
2975	0	46648	
2976	0	46740	
2977	0	46904	
2978	0	46976	
2979	0	47000	
2980	0	46986	
2981	0	46986	
2982	0	47000	
2983	0	47000	
2984	0	47036	
2985	0	47204	
2986	0	47364	
2987	0	47452	
2988	0	47584	
2989	0	47752	
2990	0	47848	
2991	0	47856	
2992	0	47888	
2993	0	47888	
2994	0	47936	
2995	0	47864	
2996	0	47916	
2997	0	47972	
2998	0	47940	
2999	0	47940	
3000	0	48028	
3001	0	48092	
3002	0	48148	
3003	0	48128	
3004	0	48088	
3005	0	48192	
3006	0	48320	
3007	0	48408	
3008	0	48464	
3009	0	48448	
3010	0	48476	
3011	0	48564	
3012	0	48576	
3013	0	48504	
3014	0	48484	
3015	0	48536	
3016	0	48510	
3017	0	48432	
3018	0	48294	
3019	0	48176	
3020	0	47956	
3021	0	47844	
3022	0	47744	
3023	0	47644	
3024	0	47524	
3025	0	47408	
3026	0	47336	
3027	0	47304	
3028	0	47284	
3029	0	47176	
3030	0	47024	
3031	0	46960	
3032	0	46852	
3033	0	46756	
3034	0	46724	
3035	0	46632	
3036	0	46512	
3037	0	46360	
3038	0	46196	
3039	0	46056	
3040	0	45840	
3041	0	45564	
3042	0	45328	
3043	0	45220	
3044	0	45196	
3045	0	45084	
3046	0	44916	
3047	0	44832	
3048	0	44720	
3049	0	44452	
3050	0	44168	
3051	0	44052	
3052	0	43972	
3053	0	43780	
3054	0	43670	
3055	0	43600	
3056	0	43500	
3057	0	43312	
3058	0	43056	
3059	0	42816	
3060	0	42660	
3061	0	42508	
3062	0	42380	
3063	0	42192	
3064	0	41952	
3065	0	41756	
3066	0	41568	
3067	0	41368	
3068	0	41156	
3069	0	40966	
3070	0	40800	
3071	0	40632	
3072	0	40544	
3073	0	40504	
3074	0	40384	
3075	0	40276	
3076	0	40072	
3077	0	39880	
3078	0	39830	
3079	0	39736	
3080	0	39536	
3081	0	39462	
3082	0	39288	
3083	0	39112	
3084	0	39058	
3085	0	39036	
3086	0	38888	
3087	0	38756	
3088	0	38768	
3089	0	38728	
3090	0	38568	
3091	0	38456	
3092	0	38472	
3093	0	38392	
3094	0	38312	
3095	0	38300	
3096	0	38252	
3097	0	38216	
3098	0	38232	
3099	0	38184	
3100	0	38052	
3101	0	37844	
3102	0	37716	
3103	0	37600	
3104	0	37524	
3105	0	37572	
3106	0	37628	
3107	0	37600	
3108	0	37516	
3109	0	37514	
3110	0	37588	
3111	0	37700	
3112	0	37776	
3113	0	37756	
3114	0	37680	
3115	0	37540	
3116	0	37440	
3117	0	37420	
3118	0	37424	
3119	0	37260	
3120	0	37092	
3121	0	36980	
3122	0	36932	
3123	0	37048	
3124	0	37112	
3125	0	36988	
3126	0	36880	
3127	0	36728	
3128	0	36520	
3129	0	36308	
3130	0	36172	
3131	0	36140	
3132	0	36128	
3133	0	36080	
3134	0	36008	
3135	0	35860	
3136	0	35664	
3137	0	35476	
3138	0	35212	
3139	0	35036	
3140	0	34864	
3141	0	34704	
3142	0	34496	
3143	0	34272	
3144	0	34016	
3145	0	33796	
3146	0	33724	
3147	0	33628	
3148	0	33340	
3149	0	32964	
3150	0	32680	
3151	0	32456	
3152	0	32356	
3153	0	32192	
3154	0	31892	
3155	0	31568	
3156	0	31364	
3157	0	31152	
3158	0	30932	
3159	0	30668	
3160	0	30508	
3161	0	30392	
3162	0	30154	
3163	0	29962	
3164	0	29912	
3165	0	29840	
3166	0	29776	
3167	0	29792	
3168	0	29700	
3169	0	29604	
3170	0	29564	
3171	0	29554	
3172	0	29440	
3173	0	29312	
3174	0	29208	
3175	0	29184	
3176	0	29200	
3177	0	29128	
3178	0	28972	
3179	0	28764	
3180	0	28548	
3181	0	28392	
3182	0	28336	
3183	0	28336	
3184	0	28260	
3185	0	28248	
3186	0	28248	
3187	0	28224	
3188	0	28228	
3189	0	28292	
3190	0	28312	
3191	0	28304	
3192	0	28320	
3193	0	28436	
3194	0	28488	
3195	0	28432	
3196	0	28352	
3197	0	28348	
3198	0	28412	
3199	0	28544	
3200	0	28588	
3201	0	28520	
3202	0	28402	
3203	0	28180	
3204	0	28224	
3205	0	28300	
3206	0	28312	
3207	0	28224	
3208	0	28216	
3209	0	28280	
3210	0	28274	
3211	0	28276	
3212	0	28324	
3213	0	28354	
3214	0	28320	
3215	0	28336	
3216	0	28424	
3217	0	28476	
3218	0	28476	
3219	0	28508	
3220	0	28368	
3221	0	28308	
3222	0	28384	
3223	0	28440	
3224	0	28328	
3225	0	28304	
3226	0	28356	
3227	0	28376	
3228	0	28464	
3229	0	28408	
3230	0	28436	
3231	0	28392	
3232	0	28352	
3233	0	28364	
3234	0	28532	
3235	0	28684	
3236	0	28716	
3237	0	28728	
3238	0	28728	
3239	0	28700	
3240	0	28544	
3241	0	28420	
3242	0	28300	
3243	0	28216	
3244	0	28168	
3245	0	28312	
3246	0	28436	
3247	0	28460	
3248	0	28392	
3249	0	28314	
3250	0	28104	
3251	0	27896	
3252	0	27916	
3253	0	27944	
3254	0	28044	
3255	0	28000	
3256	0	28024	
3257	0	28022	
3258	0	28100	
3259	0	28176	
3260	0	28120	
3261	0	28048	
3262	0	27984	
3263	0	27976	
3264	0	28024	
3265	0	28080	
3266	0	28036	
3267	0	28000	
3268	0	27992	
3269	0	28008	
3270	0	27884	
3271	0	27944	
3272	0	28065	
3273	0	28052	
3274	0	28048	
3275	0	28048	
3276	0	27832	
3277	0	27696	
3278	0	27628	
3279	0	27658	
3280	0	27688	
3281	0	27448	
3282	0	27368	
3283	0	27440	
3284	0	27360	
3285	0	27314	
3286	0	27388	
3287	0	27252	
3288	0	27300	
3289	0	27448	
3290	0	27524	
3291	0	27708	
3292	0	27754	
3293	0	27840	
3294	0	27888	
3295	0	27872	
3296	0	27842	
3297	0	27880	
3298	0	27884	
3299	0	28018	
3300	0	27992	
3301	0	27880	
3302	0	27832	
3303	0	27956	
3304	0	28124	
3305	0	28144	
3306	0	28104	
3307	0	28188	
3308	0	28202	
3309	0	28164	
3310	0	28220	
3311	0	28232	
3312	0	28098	
3313	0	28062	
3314	0	28232	
3315	0	28428	
3316	0	28514	
3317	0	28572	
3318	0	28528	
3319	0	28342	
3320	0	28152	
3321	0	28124	
3322	0	28236	
3323	0	28316	
3324	0	28320	
3325	0	28240	
3326	0	28122	
3327	0	28052	
3328	0	28132	
3329	0	28248	
3330	0	28244	
3331	0	28324	
3332	0	28468	
3333	0	28604	
3334	0	28706	
3335	0	28892	
3336	0	29172	
3337	0	29400	
3338	0	29636	
3339	0	29836	
3340	0	29996	
3341	0	30004	
3342	0	29972	
3343	0	30044	
3344	0	30016	
3345	0	29860	
3346	0	29940	
3347	0	30016	
3348	0	30224	
3349	0	30408	
3350	0	30548	
3351	0	30668	
3352	0	30600	
3353	0	30526	
3354	0	30552	
3355	0	30784	
3356	0	31024	
3357	0	31180	
3358	0	31264	
3359	0	31344	
3360	0	31404	
3361	0	31436	
3362	0	31388	
3363	0	31354	
3364	0	31232	
3365	0	31288	
3366	0	31356	
3367	0	31420	
3368	0	31460	
3369	0	31468	
3370	0	31580	
3371	0	31744	
3372	0	31768	
3373	0	31584	
3374	0	31748	
3375	0	31864	
3376	0	31804	
3377	0	31870	
3378	0	31812	
3379	0	31664	
3380	0	31448	
3381	0	31488	
3382	0	31364	
3383	0	31220	
3384	0	31092	
3385	0	30848	
3386	0	30620	
3387	0	30368	
3388	0	30209	
3389	0	30144	
3390	0	30128	
3391	0	30112	
3392	0	30064	
3393	0	30052	
3394	0	30296	
3395	0	30356	
3396	0	30212	
3397	0	30028	
3398	0	29788	
3399	0	29692	
3400	0	29684	
3401	0	29600	
3402	0	29592	
3403	0	29592	
3404	0	29524	
3405	0	29508	
3406	0	29560	
3407	0	29568	
3408	0	29428	
3409	0	29300	
3410	0	29208	
3411	0	29200	
3412	0	29100	
3413	0	29080	
3414	0	28948	
3415	0	28642	
3416	0	28452	
3417	0	28352	
3418	0	28296	
3419	0	28040	
3420	0	27872	
3421	0	27996	
3422	0	28068	
3423	0	28012	
3424	0	27988	
3425	0	27992	
3426	0	28008	
3427	0	27998	
3428	0	27960	
3429	0	28016	
3430	0	28148	
3431	0	28304	
3432	0	28164	
3433	0	28148	
3434	0	28180	
3435	0	28268	
3436	0	28320	
3437	0	28464	
3438	0	28392	
3439	0	28352	
3440	0	28176	
3441	0	27908	
3442	0	27744	
3443	0	27656	
3444	0	27602	
3445	0	27672	
3446	0	27652	
3447	0	27744	
3448	0	27832	
3449	0	27884	
3450	0	28036	
3451	0	28058	
3452	0	27964	
3453	0	27972	
3454	0	27720	
3455	0	27592	
3456	0	27800	
3457	0	27988	
3458	0	27976	
3459	0	27808	
3460	0	27692	
3461	0	27712	
3462	0	27636	
3463	0	27540	
3464	0	27292	
3465	0	27240	
3466	0	27112	
3467	0	27224	
3468	0	27444	
3469	0	27556	
3470	0	27756	
3471	0	27552	
3472	0	27054	
3473	0	26842	
3474	0	26872	
3475	0	26952	
3476	0	27040	
3477	0	27104	
3478	0	27072	
3479	0	27034	
3480	0	26844	
3481	0	26760	
3482	0	26812	
3483	0	26948	
3484	0	27132	
3485	0	27048	
3486	0	27144	
3487	0	27096	
3488	0	26944	
3489	0	26698	
3490	0	26468	
3491	0	26280	
3492	0	26114	
3493	0	26052	
3494	0	25856	
3495	0	25464	
3496	0	25080	
3497	0	24920	
3498	0	24924	
3499	0	24916	
3500	0	25036	
3501	0	25248	
3502	0	25640	
3503	0	25940	
3504	0	26284	
3505	0	26772	
3506	0	27564	
3507	0	28588	
3508	0	29716	
3509	0	31012	
3510	0	32444	
3511	0	34052	
3512	0	35660	
3513	0	37140	
3514	0	38720	
3515	0	40528	
3516	0	42288	
3517	0	43800	
3518	0	45148	
3519	0	46488	
3520	0	47696	
3521	0	48712	
3522	0	49800	
3523	0	50868	
3524	0	52120	
3525	0	53056	
3526	0	53612	
3527	0	53898	
3528	0	53036	
3529	0	51244	
3530	0	48924	
3531	0	45768	
3532	0	42504	
3533	0	39312	
3534	0	35964	
3535	0	32196	
3536	0	28048	
3537	0	24552	
3538	0	21940	
3539	0	20356	
3540	0	19496	
3541	0	19144	
3542	0	19148	
3543	0	19554	
3544	0	20032	
3545	0	20240	
3546	0	20360	
3547	0	20760	
3548	0	21248	
3549	0	21804	
3550	0	22330	
3551	0	22716	
3552	0	23072	
3553	0	23394	
3554	0	23912	
3555	0	24620	
3556	0	25312	
3557	0	25596	
3558	0	25582	
3559	0	25728	
3560	0	25920	
3561	0	26072	
3562	0	26304	
3563	0	26604	
3564	0	26624	
3565	0	26492	
3566	0	26486	
3567	0	26480	
3568	0	26418	
3569	0	26316	
3570	0	26244	
3571	0	26268	
3572	0	26512	
3573	0	26716	
3574	0	26882	
3575	0	26788	
3576	0	26720	
3577	0	26624	
3578	0	26824	
3579	0	27092	
3580	0	26986	
3581	0	26792	
3582	0	26728	
3583	0	26864	
3584	0	26914	
3585	0	26976	
3586	0	27136	
3587	0	27324	
3588	0	27456	
3589	0	27560	
3590	0	27682	
3591	0	27860	
3592	0	28232	
3593	0	28608	
3594	0	28906	
3595	0	29056	
3596	0	29060	
3597	0	29100	
3598	0	29252	
3599	0	29356	
3600	0	29080	
3601	0	28752	
3602	0	28736	
3603	0	28728	
3604	0	28900	
3605	0	29116	
3606	0	29240	
3607	0	29356	
3608	0	29408	
3609	0	29316	
3610	0	29346	
3611	0	29440	
3612	0	29568	
3613	0	29744	
3614	0	29692	
3615	0	29756	
3616	0	29836	
3617	0	29748	
3618	0	29790	
3619	0	29840	
3620	0	29928	
3621	0	30024	
3622	0	30104	
3623	0	30240	
3624	0	30266	
3625	0	30128	
3626	0	30210	
3627	0	30360	
3628	0	30448	
3629	0	30536	
3630	0	30408	
3631	0	30344	
3632	0	30304	
3633	0	30464	
3634	0	30652	
3635	0	30784	
3636	0	31096	
3637	0	31312	
3638	0	31160	
3639	0	30884	
3640	0	30820	
3641	0	30980	
3642	0	31136	
3643	0	30996	
3644	0	31016	
3645	0	31052	
3646	0	31020	
3647	0	31148	
3648	0	31288	
3649	0	31660	
3650	0	31528	
3651	0	31482	
3652	0	31640	
3653	0	31976	
3654	0	31968	
3655	0	31824	
3656	0	31824	
3657	0	31768	
3658	0	31820	
3659	0	31928	
3660	0	32156	
3661	0	32158	
3662	0	32108	
3663	0	32248	
3664	0	32248	
3665	0	32364	
3666	0	32524	
3667	0	32730	
3668	0	32724	
3669	0	32696	
3670	0	32858	
3671	0	32808	
3672	0	32884	
3673	0	32724	
3674	0	32668	
3675	0	32612	
3676	0	32740	
3677	0	33000	
3678	0	33132	
3679	0	33156	
3680	0	33248	
3681	0	33440	
3682	0	33572	
3683	0	33628	
3684	0	33848	
3685	0	34092	
3686	0	34520	
3687	0	34704	
3688	0	34344	
3689	0	34260	
3690	0	34434	
3691	0	34612	
3692	0	34664	
3693	0	34988	
3694	0	35288	
3695	0	35432	
3696	0	35676	
3697	0	35800	
3698	0	35872	
3699	0	35968	
3700	0	35968	
3701	0	36264	
3702	0	36876	
3703	0	37114	
3704	0	37120	
3705	0	37256	
3706	0	37356	
3707	0	37344	
3708	0	37348	
3709	0	37400	
3710	0	37524	
3711	0	37576	
3712	0	37764	
3713	0	37956	
3714	0	38372	
3715	0	38638	
3716	0	38984	
3717	0	39380	
3718	0	39578	
3719	0	39408	
3720	0	39288	
3721	0	39328	
3722	0	39500	
3723	0	39692	
3724	0	39944	
3725	0	40132	
3726	0	40176	
3727	0	40384	
3728	0	40672	
3729	0	40776	
3730	0	40960	
3731	0	41312	
3732	0	41388	
3733	0	41524	
3734	0	41652	
3735	0	41644	
3736	0	41888	
3737	0	42332	
3738	0	42796	
3739	0	42816	
3740	0	42848	
3741	0	42888	
3742	0	43056	
3743	0	43264	
3744	0	43320	
3745	0	43346	
3746	0	43320	
3747	0	43324	
3748	0	43520	
3749	0	43892	
3750	0	44240	
3751	0	44272	
3752	0	44236	
3753	0	44234	
3754	0	44416	
3755	0	44664	
3756	0	44716	
3757	0	44768	
3758	0	44908	
3759	0	44916	
3760	0	44876	
3761	0	44948	
3762	0	44684	
3763	0	44472	
3764	0	44500	
3765	0	44356	
3766	0	44060	
3767	0	43852	
3768	0	43656	
3769	0	43788	
3770	0	44024	
3771	0	43836	
3772	0	43872	
3773	0	43776	
3774	0	43624	
3775	0	43636	
3776	0	43668	
3777	0	43756	
3778	0	43492	
3779	0	43340	
3780	0	43220	
3781	0	43146	
3782	0	42796	
3783	0	42484	
3784	0	42394	
3785	0	42676	
3786	0	42584	
3787	0	42266	
3788	0	41684	
3789	0	41296	
3790	0	40992	
3791	0	40656	
3792	0	40455	
3793	0	40600	
3794	0	40736	
3795	0	40416	
3796	0	39940	
3797	0	39540	
3798	0	39300	
3799	0	38876	
3800	0	38760	
3801	0	38420	
3802	0	38080	
3803	0	37712	
3804	0	37424	
3805	0	37220	
3806	0	37000	
3807	0	36824	
3808	0	36632	
3809	0	36408	
3810	0	35968	
3811	0	35564	
3812	0	35416	
3813	0	35420	
3814	0	35770	
3815	0	35702	
3816	0	35504	
3817	0	35118	
3818	0	34844	
3819	0	34560	
3820	0	34284	
3821	0	33824	
3822	0	33688	
3823	0	33604	
3824	0	33328	
3825	0	33072	
3826	0	32896	
3827	0	32746	
3828	0	32824	
3829	0	32748	
3830	0	32616	
3831	0	33156	
3832	0	33088	
3833	0	32416	
3834	0	32204	
3835	0	32448	
3836	0	32224	
3837	0	31680	
3838	0	31728	
3839	0	32008	
3840	0	32320	
3841	0	32388	
3842	0	32150	
3843	0	31668	
3844	0	31200	
3845	0	30868	
3846	0	30560	
3847	0	30478	
3848	0	30904	
3849	0	31424	
3850	0	31416	
3851	0	31428	
3852	0	31594	
3853	0	31500	
3854	0	31420	
3855	0	31452	
3856	0	31452	
3857	0	31020	
3858	0	30676	
3859	0	30674	
3860	0	30696	
3861	0	30768	
3862	0	30472	
3863	0	30240	
3864	0	30408	
3865	0	30356	
3866	0	30332	
3867	0	30588	
3868	0	30816	
3869	0	30560	
3870	0	30136	
3871	0	30050	
3872	0	30316	
3873	0	30392	
3874	0	30432	
3875	0	30368	
3876	0	30176	
3877	0	29788	
3878	0	29778	
3879	0	29756	
3880	0	29472	
3881	0	29316	
3882	0	29488	
3883	0	29796	
3884	0	29968	
3885	0	30172	
3886	0	29940	
3887	0	29592	
3888	0	29504	
3889	0	29525	
3890	0	29384	
3891	0	29276	
3892	0	29152	
3893	0	29120	
3894	0	29092	
3895	0	28968	
3896	0	28922	
3897	0	29124	
3898	0	29504	
3899	0	29617	
3900	0	29320	
3901	0	29160	
3902	0	29102	
3903	0	28928	
3904	0	29192	
3905	0	29444	
3906	0	29160	
3907	0	28880	
3908	0	28690	
3909	0	28608	
3910	0	28672	
3911	0	28672	
3912	0	28596	
3913	0	28572	
3914	0	28684	
3915	0	28732	
3916	0	28800	
3917	0	29208	
3918	0	29428	
3919	0	29300	
3920	0	29120	
3921	0	29104	
3922	0	29528	
3923	0	29508	
3924	0	29364	
3925	0	29228	
3926	0	28954	
3927	0	28772	
3928	0	28464	
3929	0	28596	
3930	0	28680	
3931	0	28712	
3932	0	28704	
3933	0	29016	
3934	0	28988	
3935	0	28828	
3936	0	28760	
3937	0	28904	
3938	0	28904	
3939	0	29004	
3940	0	29160	
3941	0	28884	
3942	0	28536	
3943	0	28580	
3944	0	28712	
3945	0	29152	
3946	0	29056	
3947	0	28866	
3948	0	28512	
3949	0	28488	
3950	0	28320	
3951	0	28552	
3952	0	28636	
3953	0	28836	
3954	0	29272	
3955	0	29408	
3956	0	29528	
3957	0	29748	
3958	0	30156	
3959	0	29996	
3960	0	29832	
3961	0	30008	
3962	0	30016	
3963	0	30332	
3964	0	30546	
3965	0	30616	
3966	0	30560	
3967	0	30796	
3968	0	31196	
3969	0	31368	
3970	0	31368	
3971	0	30912	
3972	0	30756	
3973	0	30648	
3974	0	30920	
3975	0	30988	
3976	0	30848	
3977	0	30828	
3978	0	30716	
3979	0	30196	
3980	0	29912	
3981	0	29824	
3982	0	30384	
3983	0	30772	
3984	0	31124	
3985	0	31458	
3986	0	31300	
3987	0	31152	
3988	0	31452	
3989	0	31460	
3990	0	31700	
3991	0	31828	
3992	0	32152	
3993	0	31972	
3994	0	31868	
3995	0	31464	
3996	0	31204	
3997	0	31260	
3998	0	31452	
3999	0	31628	
4000	0	31218	
4001	0	31044	
4002	0	31096	
4003	0	31084	
4004	0	30884	
4005	0	30616	
4006	0	30720	
4007	0	30792	
4008	0	30706	
4009	0	30350	
4010	0	30188	
4011	0	30080	
4012	0	29916	
4013	0	30120	
4014	0	30512	
4015	0	31018	
4016	0	30778	
4017	0	30376	
4018	0	30244	
4019	0	30440	
4020	0	30152	
4021	0	30068	
4022	0	30312	
4023	0	30952	
4024	0	31046	
4025	0	30504	
4026	0	29956	
4027	0	29540	
4028	0	29168	
4029	0	29252	
4030	0	29232	
4031	0	28892	
4032	0	28968	
4033	0	29168	
4034	0	28900	
4035	0	28732	
4036	0	28692	
4037	0	28858	
4038	0	28626	
4039	0	28772	
4040	0	28848	
4041	0	28576	
4042	0	28154	
4043	0	28188	
4044	0	28196	
4045	0	28236	
4046	0	28412	
4047	0	28460	
4048	0	28232	
4049	0	28184	
4050	0	28610	
4051	0	28804	
4052	0	28684	
4053	0	28472	
4054	0	29044	
4055	0	29288	
4056	0	29084	
4057	0	28932	
4058	0	28520	
4059	0	28328	
4060	0	28376	
4061	0	28228	
4062	0	28440	
4063	0	29004	
4064	0	29420	
4065	0	29736	
4066	0	29440	
4067	0	29518	
4068	0	29784	
4069	0	30160	
4070	0	30264	
4071	0	29934	
4072	0	29652	
4073	0	29421	
4074	0	29496	
4075	0	29372	
4076	0	29224	
4077	0	29744	
4078	0	30264	
4079	0	30876	
4080	0	31108	
4081	0	30580	
4082	0	29888	
4083	0	29876	
4084	0	29960	
4085	0	29600	
4086	0	29496	
4087	0	29264	
4088	0	29232	
4089	0	29440	
4090	0	29714	
4091	0	29888	
4092	0	29928	
4093	0	30336	
4094	0	30676	
4095	0	30552	
4096	0	30532	
4097	0	30572	
4098	0	30964	
4099	0	31484	
4100	0	31460	
4101	0	30988	
4102	0	30716	
4103	0	30100	
4104	0	30176	
4105	0	30072	
4106	0	30240	
4107	0	30632	
4108	0	30968	
4109	0	31028	
4110	0	31158	
4111	0	31384	
4112	0	31496	
4113	0	31674	
4114	0	31816	
4115	0	31756	
4116	0	31676	
4117	0	31804	
4118	0	31440	
4119	0	31350	
4120	0	31532	
4121	0	31176	
4122	0	30940	
4123	0	30892	
4124	0	30860	
4125	0	30816	
4126	0	30632	
4127	0	30752	
4128	0	30896	
4129	0	31096	
4130	0	31104	
4131	0	31568	
4132	0	32448	
4133	0	33208	
4134	0	34408	
4135	0	35908	
4136	0	37444	
4137	0	39092	
4138	0	40484	
4139	0	41760	
4140	0	43216	
4141	0	45308	
4142	0	47132	
4143	0	49292	
4144	0	51624	
4145	0	52936	
4146	0	54108	
4147	0	54988	
4148	0	55936	
4149	0	56688	
4150	0	57548	
4151	0	58380	
4152	0	59780	
4153	0	61240	
4154	0	62004	
4155	0	61448	
4156	0	60084	
4157	0	57868	
4158	0	54668	
4159	0	50808	
4160	0	47188	
4161	0	43768	
4162	0	40028	
4163	0	36176	
4164	0	32456	
4165	0	29358	
4166	0	26982	
4167	0	25552	
4168	0	25396	
4169	0	25436	
4170	0	26036	
4171	0	26340	
4172	0	26440	
4173	0	26716	
4174	0	27180	
4175	0	27548	
4176	0	28144	
4177	0	28802	
4178	0	28652	
4179	0	28800	
4180	0	29052	
4181	0	29352	
4182	0	29640	
4183	0	30116	
4184	0	30772	
4185	0	31356	
4186	0	31320	
4187	0	31350	
4188	0	31512	
4189	0	31706	
4190	0	31936	
4191	0	32240	
4192	0	32436	
4193	0	32896	
4194	0	32344	
4195	0	32160	
4196	0	32232	
4197	0	32528	
4198	0	32750	
4199	0	33028	
4200	0	33264	
4201	0	33786	
4202	0	33572	
4203	0	33708	
4204	0	33972	
4205	0	33544	
4206	0	33228	
4207	0	33068	
4208	0	32648	
4209	0	32736	
4210	0	32448	
4211	0	32252	
4212	0	32296	
4213	0	32728	
4214	0	33220	
4215	0	33086	
4216	0	33010	
4217	0	32808	
4218	0	32912	
4219	0	33532	
4220	0	33572	
4221	0	33580	
4222	0	34236	
4223	0	34916	
4224	0	34880	
4225	0	34572	
4226	0	34528	
4227	0	34528	
4228	0	34664	
4229	0	34772	
4230	0	34868	
4231	0	35080	
4232	0	35148	
4233	0	35392	
4234	0	35516	
4235	0	35296	
4236	0	34724	
4237	0	34026	
4238	0	33626	
4239	0	33620	
4240	0	33900	
4241	0	33958	
4242	0	34112	
4243	0	34904	
4244	0	35500	
4245	0	35888	
4246	0	36048	
4247	0	35968	
4248	0	36044	
4249	0	35968	
4250	0	35748	
4251	0	35724	
4252	0	36088	
4253	0	36164	
4254	0	35812	
4255	0	35898	
4256	0	36080	
4257	0	35908	
4258	0	36100	
4259	0	36376	
4260	0	36544	
4261	0	36546	
4262	0	36584	
4263	0	36936	
4264	0	37036	
4265	0	36684	
4266	0	36714	
4267	0	36056	
4268	0	35604	
4269	0	35308	
4270	0	35440	
4271	0	35400	
4272	0	34848	
4273	0	34856	
4274	0	35676	
4275	0	36244	
4276	0	36028	
4277	0	35928	
4278	0	35984	
4279	0	35904	
4280	0	35512	
4281	0	35152	
4282	0	34802	
4283	0	34900	
4284	0	35216	
4285	0	35540	
4286	0	35628	
4287	0	36000	
4288	0	35992	
4289	0	35884	
4290	0	36202	
4291	0	36288	
4292	0	36212	
4293	0	35780	
4294	0	35232	
4295	0	34848	
4296	0	34844	
4297	0	34944	
4298	0	35152	
4299	0	35480	
4300	0	36130	
4301	0	36548	
4302	0	36280	
4303	0	36180	
4304	0	35958	
4305	0	35908	
4306	0	35832	
4307	0	35592	
4308	0	35524	
4309	0	35492	
4310	0	35420	
4311	0	35424	
4312	0	35196	
4313	0	35528	
4314	0	35948	
4315	0	35768	
4316	0	35864	
4317	0	35636	
4318	0	35456	
4319	0	35352	
4320	0	35312	
4321	0	35672	
4322	0	35844	
4323	0	35992	
4324	0	35956	
4325	0	36224	
4326	0	36456	
4327	0	36392	
4328	0	36348	
4329	0	36124	
4330	0	36076	
4331	0	36104	
4332	0	36228	
4333	0	36212	
4334	0	35604	
4335	0	35148	
4336	0	35032	
4337	0	35088	
4338	0	35412	
4339	0	35936	
4340	0	36520	
4341	0	36640	
4342	0	36072	
4343	0	36140	
4344	0	36360	
4345	0	36268	
4346	0	35872	
4347	0	35872	
4348	0	35928	
4349	0	35648	
4350	0	35552	
4351	0	35692	
4352	0	36016	
4353	0	36088	
4354	0	35752	
4355	0	35448	
4356	0	35232	
4357	0	35696	
4358	0	35596	
4359	0	35504	
4360	0	35732	
4361	0	35632	
4362	0	35838	
4363	0	35744	
4364	0	35096	
4365	0	34728	
4366	0	34816	
4367	0	34920	
4368	0	34964	
4369	0	35372	
4370	0	34960	
4371	0	34832	
4372	0	35344	
4373	0	35124	
4374	0	35036	
4375	0	35460	
4376	0	35948	
4377	0	36320	
4378	0	36914	
4379	0	37304	
4380	0	37276	
4381	0	37020	
4382	0	36896	
4383	0	37088	
4384	0	36830	
4385	0	36004	
4386	0	35424	
4387	0	35032	
4388	0	34688	
4389	0	35212	
4390	0	35748	
4391	0	36344	
4392	0	36660	
4393	0	36924	
4394	0	37552	
4395	0	37900	
4396	0	37816	
4397	0	37732	
4398	0	37400	
4399	0	37160	
4400	0	36724	
4401	0	36784	
4402	0	36912	
4403	0	36796	
4404	0	36544	
4405	0	36264	
4406	0	35556	
4407	0	35004	
4408	0	34768	
4409	0	34536	
4410	0	34332	
4411	0	34076	
4412	0	34140	
4413	0	34152	
4414	0	34260	
4415	0	34432	
4416	0	34408	
4417	0	33672	
4418	0	32980	
4419	0	32680	
4420	0	32724	
4421	0	32820	
4422	0	32896	
4423	0	32700	
4424	0	32736	
4425	0	32748	
4426	0	32272	
4427	0	31970	
4428	0	31900	
4429	0	31922	
4430	0	32012	
4431	0	31952	
4432	0	31764	
4433	0	31900	
4434	0	31936	
4435	0	31316	
4436	0	31168	
4437	0	31668	
4438	0	31600	
4439	0	31154	
4440	0	30896	
4441	0	30696	
4442	0	30704	
4443	0	30532	
4444	0	30412	
4445	0	30708	
4446	0	30640	
4447	0	30832	
4448	0	30792	
4449	0	30940	
4450	0	30932	
4451	0	30852	
4452	0	31324	
4453	0	31660	
4454	0	31246	
4455	0	31096	
4456	0	31200	
4457	0	30508	
4458	0	30208	
4459	0	29760	
4460	0	29308	
4461	0	29252	
4462	0	29394	
4463	0	29616	
4464	0	30268	
4465	0	30664	
4466	0	30776	
4467	0	31158	
4468	0	31418	
4469	0	31360	
4470	0	31464	
4471	0	31584	
4472	0	32000	
4473	0	32020	
4474	0	31464	
4475	0	30960	
4476	0	31120	
4477	0	31588	
4478	0	31836	
4479	0	31840	
4480	0	31248	
4481	0	31178	
4482	0	31280	
4483	0	31412	
4484	0	31760	
4485	0	31616	
4486	0	31408	
4487	0	31284	
4488	0	31504	
4489	0	32154	
4490	0	32420	
4491	0	32230	
4492	0	32724	
4493	0	33318	
4494	0	33308	
4495	0	33204	
4496	0	33568	
4497	0	32976	
4498	0	32372	
4499	0	32544	
4500	0	32600	
4501	0	32684	
4502	0	32780	
4503	0	32810	
4504	0	33000	
4505	0	33424	
4506	0	33452	
4507	0	33324	
4508	0	33456	
4509	0	33712	
4510	0	33888	
4511	0	33832	
4512	0	33308	
4513	0	33040	
4514	0	32724	
4515	0	32544	
4516	0	32496	
4517	0	32560	
4518	0	32668	
4519	0	32636	
4520	0	32714	
4521	0	32840	
4522	0	33048	
4523	0	32736	
4524	0	32500	
4525	0	32352	
4526	0	32300	
4527	0	32264	
4528	0	32396	
4529	0	32488	
4530	0	32218	
4531	0	32228	
4532	0	32304	
4533	0	32296	
4534	0	32400	
4535	0	32436	
4536	0	32712	
4537	0	32760	
4538	0	32744	
4539	0	32818	
4540	0	32606	
4541	0	32260	
4542	0	31680	
4543	0	31576	
4544	0	31424	
4545	0	31496	
4546	0	31308	
4547	0	31376	
4548	0	31620	
4549	0	32012	
4550	0	31952	
4551	0	31712	
4552	0	31632	
4553	0	31408	
4554	0	31220	
4555	0	30976	
4556	0	30928	
4557	0	31080	
4558	0	31040	
4559	0	30952	
4560	0	30728	
4561	0	30568	
4562	0	30560	
4563	0	30620	
4564	0	30532	
4565	0	30752	
4566	0	31152	
4567	0	31256	
4568	0	31428	
4569	0	31552	
4570	0	31384	
4571	0	31296	
4572	0	31340	
4573	0	31344	
4574	0	31288	
4575	0	31568	
4576	0	31616	
4577	0	31612	
4578	0	31692	
4579	0	31600	
4580	0	31368	
4581	0	31316	
4582	0	31348	
4583	0	31322	
4584	0	31462	
4585	0	31612	
4586	0	31880	
4587	0	31658	
4588	0	31184	
4589	0	31020	
4590	0	30880	
4591	0	31012	
4592	0	30976	
4593	0	30728	
4594	0	30748	
4595	0	30798	
4596	0	30800	
4597	0	30756	
4598	0	30992	
4599	0	31404	
4600	0	31608	
4601	0	31564	
4602	0	31588	
4603	0	31720	
4604	0	32080	
4605	0	32160	
4606	0	32068	
4607	0	31784	
4608	0	31504	
4609	0	31672	
4610	0	31872	
4611	0	31640	
4612	0	31338	
4613	0	31152	
4614	0	31032	
4615	0	30836	
4616	0	30284	
4617	0	29996	
4618	0	29900	
4619	0	29716	
4620	0	29540	
4621	0	29292	
4622	0	29160	
4623	0	28968	
4624	0	28584	
4625	0	28172	
4626	0	27996	
4627	0	27640	
4628	0	27252	
4629	0	26884	
4630	0	26548	
4631	0	26200	
4632	0	26074	
4633	0	25784	
4634	0	25226	
4635	0	24628	
4636	0	24140	
4637	0	23886	
4638	0	23668	
4639	0	23524	
4640	0	23400	
4641	0	23176	
4642	0	23000	
4643	0	22788	
4644	0	22418	
4645	0	22012	
4646	0	21980	
4647	0	22208	
4648	0	22490	
4649	0	22876	
4650	0	23180	
4651	0	23476	
4652	0	23838	
4653	0	24168	
4654	0	24336	
4655	0	24582	
4656	0	24798	
4657	0	24972	
4658	0	25052	
4659	0	24846	
4660	0	24640	
4661	0	24748	
4662	0	24970	
4663	0	25268	
4664	0	25436	
4665	0	25664	
4666	0	25866	
4667	0	25996	
4668	0	26116	
4669	0	26288	
4670	0	26380	
4671	0	26234	
4672	0	26140	
4673	0	26114	
4674	0	26044	
4675	0	26036	
4676	0	26232	
4677	0	26596	
4678	0	27132	
4679	0	27764	
4680	0	28108	
4681	0	28240	
4682	0	28396	
4683	0	28400	
4684	0	28420	
4685	0	28352	
4686	0	28324	
4687	0	28288	
4688	0	28444	
4689	0	28420	
4690	0	28568	
4691	0	28806	
4692	0	29144	
4693	0	29204	
4694	0	29368	
4695	0	29462	
4696	0	29556	
4697	0	29936	
4698	0	30164	
4699	0	30264	
4700	0	30288	
4701	0	30448	
4702	0	30508	
4703	0	30498	
4704	0	30424	
4705	0	30372	
4706	0	30488	
4707	0	30568	
4708	0	30476	
4709	0	30704	
4710	0	30688	
4711	0	30916	
4712	0	31080	
4713	0	31160	
4714	0	31328	
4715	0	31584	
4716	0	31836	
4717	0	32156	
4718	0	32286	
4719	0	32468	
4720	0	32552	
4721	0	32560	
4722	0	32548	
4723	0	32544	
4724	0	32620	
4725	0	32680	
4726	0	32904	
4727	0	33144	
4728	0	33154	
4729	0	33240	
4730	0	33376	
4731	0	33632	
4732	0	33858	
4733	0	34144	
4734	0	34500	
4735	0	34656	
4736	0	34748	
4737	0	34716	
4738	0	34704	
4739	0	34624	
4740	0	34324	
4741	0	33932	
4742	0	33808	
4743	0	33960	
4744	0	34204	
4745	0	34256	
4746	0	34576	
4747	0	34996	
4748	0	35552	
4749	0	36440	
4750	0	37408	
4751	0	38328	
4752	0	39556	
4753	0	41064	
4754	0	42708	
4755	0	44384	
4756	0	46048	
4757	0	47784	
4758	0	49460	
4759	0	51120	
4760	0	53016	
4761	0	55088	
4762	0	56716	
4763	0	58072	
4764	0	59312	
4765	0	60528	
4766	0	61804	
4767	0	62724	
4768	0	63216	
4769	0	63436	
4770	0	63494	
4771	0	63488	
4772	0	63420	
4773	0	63340	
4774	0	63232	
4775	0	61988	
4776	0	57136	
4777	0	52920	
4778	0	48944	
4779	0	44904	
4780	0	40840	
4781	0	37016	
4782	0	33924	
4783	0	31744	
4784	0	30402	
4785	0	29672	
4786	0	29248	
4787	0	28952	
4788	0	29108	
4789	0	29596	
4790	0	30116	
4791	0	30552	
4792	0	30914	
4793	0	31248	
4794	0	31680	
4795	0	32092	
4796	0	32320	
4797	0	32480	
4798	0	32696	
4799	0	32988	
4800	0	33252	
4801	0	33448	
4802	0	33760	
4803	0	34156	
4804	0	34468	
4805	0	34632	
4806	0	34592	
4807	0	34576	
4808	0	34564	
4809	0	34536	
4810	0	34508	
4811	0	34346	
4812	0	34108	
4813	0	33886	
4814	0	33540	
4815	0	33306	
4816	0	33248	
4817	0	33240	
4818	0	33288	
4819	0	33240	
4820	0	33160	
4821	0	32906	
4822	0	32696	
4823	0	32546	
4824	0	32552	
4825	0	32528	
4826	0	32532	
4827	0	32638	
4828	0	32672	
4829	0	32528	
4830	0	32524	
4831	0	32512	
4832	0	32420	
4833	0	32584	
4834	0	32764	
4835	0	32672	
4836	0	32624	
4837	0	32568	
4838	0	32584	
4839	0	32632	
4840	0	32642	
4841	0	32588	
4842	0	32416	
4843	0	32284	
4844	0	32208	
4845	0	32220	
4846	0	32228	
4847	0	32282	
4848	0	32344	
4849	0	32330	
4850	0	32328	
4851	0	32308	
4852	0	32244	
4853	0	32288	
4854	0	32272	
4855	0	32272	
4856	0	32212	
4857	0	32180	
4858	0	32252	
4859	0	32288	
4860	0	32248	
4861	0	32168	
4862	0	32212	
4863	0	32276	
4864	0	32364	
4865	0	32488	
4866	0	32312	
4867	0	32200	
4868	0	32168	
4869	0	32108	
4870	0	32032	
4871	0	32064	
4872	0	32088	
4873	0	32198	
4874	0	32328	
4875	0	32354	
4876	0	32260	
4877	0	32352	
4878	0	32384	
4879	0	32384	
4880	0	32296	
4881	0	32012	
4882	0	31826	
4883	0	31736	
4884	0	31684	
4885	0	31792	
4886	0	31818	
4887	0	31828	
4888	0	31776	
4889	0	31708	
4890	0	31816	
4891	0	31908	
4892	0	32008	
4893	0	32100	
4894	0	32078	
4895	0	32016	
4896	0	32080	
4897	0	32080	
4898	0	32096	
4899	0	32156	
4900	0	32268	
4901	0	32282	
4902	0	32224	
4903	0	32144	
4904	0	32148	
4905	0	32082	
4906	0	31904	
4907	0	32000	
4908	0	32104	
4909	0	31964	
4910	0	31852	
4911	0	32012	
4912	0	32112	
4913	0	32168	
4914	0	32196	
4915	0	32352	
4916	0	32568	
4917	0	32572	
4918	0	32600	
4919	0	32632	
4920	0	32776	
4921	0	32908	
4922	0	32980	
4923	0	33052	
4924	0	32992	
4925	0	32916	
4926	0	32848	
4927	0	32776	
4928	0	32812	
4929	0	32818	
4930	0	32884	
4931	0	32918	
4932	0	33096	
4933	0	33320	
4934	0	33380	
4935	0	33348	
4936	0	33328	
4937	0	33454	
4938	0	33676	
4939	0	33924	
4940	0	34048	
4941	0	34080	
4942	0	33976	
4943	0	33772	
4944	0	33612	
4945	0	33616	
4946	0	33704	
4947	0	33936	
4948	0	34076	
4949	0	34180	
4950	0	34516	
4951	0	34641	
4952	0	34592	
4953	0	34488	
4954	0	34528	
4955	0	34656	
4956	0	34820	
4957	0	34740	
4958	0	34680	
4959	0	34664	
4960	0	34636	
4961	0	34648	
4962	0	34680	
4963	0	34688	
4964	0	34836	
4965	0	34928	
4966	0	35008	
4967	0	35112	
4968	0	35256	
4969	0	35344	
4970	0	35324	
4971	0	35384	
4972	0	35596	
4973	0	35648	
4974	0	35556	
4975	0	35484	
4976	0	35614	
4977	0	35636	
4978	0	35676	
4979	0	35660	
4980	0	35660	
4981	0	35680	
4982	0	35772	
4983	0	35812	
4984	0	35836	
4985	0	35732	
4986	0	35644	
4987	0	35704	
4988	0	35884	
4989	0	35912	
4990	0	36044	
4991	0	36172	
4992	0	36172	
4993	0	36128	
4994	0	36204	
4995	0	36238	
4996	0	36192	
4997	0	36148	
4998	0	36124	
4999	0	36160	
5000	0	36176	
5001	0	36180	
5002	0	36320	
5003	0	36440	
5004	0	36412	
5005	0	36344	
5006	0	36372	
5007	0	36352	
5008	0	36332	
5009	0	36400	
5010	0	36324	
5011	0	36328	
5012	0	36464	
5013	0	36456	
5014	0	36440	
5015	0	36276	
5016	0	36260	
5017	0	36292	
5018	0	36256	
5019	0	36072	
5020	0	35968	
5021	0	35816	
5022	0	35512	
5023	0	35324	
5024	0	35272	
5025	0	35172	
5026	0	34888	
5027	0	34464	
5028	0	34196	
5029	0	34092	
5030	0	33912	
5031	0	33648	
5032	0	33532	
5033	0	33348	
5034	0	33236	
5035	0	33008	
5036	0	32788	
5037	0	32740	
5038	0	32688	
5039	0	32368	
5040	0	31864	
5041	0	31512	
5042	0	31320	
5043	0	31134	
5044	0	30904	
5045	0	30720	
5046	0	30628	
5047	0	30476	
5048	0	30256	
5049	0	30010	
5050	0	29788	
5051	0	29608	
5052	0	29538	
5053	0	29454	
5054	0	29360	
5055	0	29204	
5056	0	28988	
5057	0	28760	
5058	0	28632	
5059	0	28536	
5060	0	28322	
5061	0	28128	
5062	0	27972	
5063	0	27780	
5064	0	27664	
5065	0	27554	
5066	0	27312	
5067	0	27088	
5068	0	26996	
5069	0	26968	
5070	0	27020	
5071	0	26994	
5072	0	26996	
5073	0	26944	
5074	0	26928	
5075	0	26974	
5076	0	26962	
5077	0	26976	
5078	0	27028	
5079	0	27020	
5080	0	26932	
5081	0	26976	
5082	0	26978	
5083	0	26956	
5084	0	26944	
5085	0	26954	
5086	0	27120	
5087	0	27236	
5088	0	27290	
5089	0	27388	
5090	0	27384	
5091	0	27328	
5092	0	27312	
5093	0	27300	
5094	0	27380	
5095	0	27490	
5096	0	27432	
5097	0	27396	
5098	0	27298	
5099	0	27188	
5100	0	27228	
5101	0	27172	
5102	0	27092	
5103	0	27188	
5104	0	27280	
5105	0	27374	
5106	0	27432	
5107	0	27512	
5108	0	27664	
5109	0	27756	
5110	0	27784	
5111	0	27842	
5112	0	27844	
5113	0	27888	
5114	0	28052	
5115	0	28192	
5116	0	28322	
5117	0	28320	
5118	0	28376	
5119	0	28388	
5120	0	28506	
5121	0	28656	
5122	0	28696	
5123	0	28656	
5124	0	28756	
5125	0	28656	
5126	0	28568	
5127	0	28592	
5128	0	28664	
5129	0	28652	
5130	0	28588	
5131	0	28744	
5132	0	28864	
5133	0	29024	
5134	0	29248	
5135	0	29340	
5136	0	29330	
5137	0	29200	
5138	0	29044	
5139	0	28948	
5140	0	28872	
5141	0	28944	
5142	0	29040	
5143	0	29104	
5144	0	29136	
5145	0	29148	
5146	0	29296	
5147	0	29480	
5148	0	29464	
5149	0	29448	
5150	0	29496	
5151	0	29424	
5152	0	29448	
5153	0	29460	
5154	0	29488	
5155	0	29576	
5156	0	29768	
5157	0	29848	
5158	0	29616	
5159	0	29616	
5160	0	29556	
5161	0	29348	
5162	0	29348	
5163	0	29604	
5164	0	29898	
5165	0	30176	
5166	0	30276	
5167	0	30152	
5168	0	30002	
5169	0	30020	
5170	0	30052	
5171	0	30028	
5172	0	29960	
5173	0	29944	
5174	0	30040	
5175	0	29932	
5176	0	29832	
5177	0	29908	
5178	0	29928	
5179	0	29852	
5180	0	29760	
5181	0	29868	
5182	0	29930	
5183	0	29784	
5184	0	29740	
5185	0	29788	
5186	0	29764	
5187	0	29752	
5188	0	29840	
5189	0	30056	
5190	0	30244	
5191	0	30296	
5192	0	30156	
5193	0	30064	
5194	0	30052	
5195	0	30064	
5196	0	30080	
5197	0	30158	
5198	0	30230	
5199	0	30140	
5200	0	29958	
5201	0	29912	
5202	0	29808	
5203	0	29776	
5204	0	29700	
5205	0	29732	
5206	0	29844	
5207	0	29846	
5208	0	29754	
5209	0	29580	
5210	0	29458	
5211	0	29444	
5212	0	29504	
5213	0	29492	
5214	0	29604	
5215	0	29820	
5216	0	29958	
5217	0	30028	
5218	0	30048	
5219	0	30048	
5220	0	29968	
5221	0	29928	
5222	0	29808	
5223	0	29640	
5224	0	29560	
5225	0	29576	
5226	0	29612	
5227	0	29648	
5228	0	29700	
5229	0	29696	
5230	0	29698	
5231	0	29572	
5232	0	29604	
5233	0	29664	
5234	0	29648	
5235	0	29688	
5236	0	29646	
5237	0	29558	
5238	0	29544	
5239	0	29600	
5240	0	29688	
5241	0	29628	
5242	0	29504	
5243	0	29394	
5244	0	29344	
5245	0	29376	
5246	0	29384	
5247	0	29456	
5248	0	29480	
5249	0	29468	
5250	0	29576	
5251	0	29600	
5252	0	29560	
5253	0	29656	
5254	0	29748	
5255	0	29828	
5256	0	29948	
5257	0	30076	
5258	0	30172	
5259	0	30232	
5260	0	30204	
5261	0	30152	
5262	0	30072	
5263	0	30056	
5264	0	30056	
5265	0	30028	
5266	0	30032	
5267	0	30068	
5268	0	30112	
5269	0	30208	
5270	0	30248	
5271	0	30280	
5272	0	30240	
5273	0	30276	
5274	0	30320	
5275	0	30332	
5276	0	30348	
5277	0	30408	
5278	0	30456	
5279	0	30500	
5280	0	30552	
5281	0	30560	
5282	0	30568	
5283	0	30532	
5284	0	30484	
5285	0	30440	
5286	0	30412	
5287	0	30368	
5288	0	30288	
5289	0	30304	
5290	0	30376	
5291	0	30504	
5292	0	30660	
5293	0	30752	
5294	0	30848	
5295	0	30892	
5296	0	30868	
5297	0	30792	
5298	0	30708	
5299	0	30712	
5300	0	30656	
5301	0	30628	
5302	0	30652	
5303	0	30700	
5304	0	30640	
5305	0	30588	
5306	0	30608	
5307	0	30704	
5308	0	30816	
5309	0	30920	
5310	0	30992	
5311	0	31008	
5312	0	31048	
5313	0	30968	
5314	0	30920	
5315	0	30948	
5316	0	31052	
5317	0	31120	
5318	0	31148	
5319	0	31048	
5320	0	30981	
5321	0	31064	
5322	0	31068	
5323	0	30996	
5324	0	30908	
5325	0	30936	
5326	0	30940	
5327	0	31012	
5328	0	31152	
5329	0	31172	
5330	0	31120	
5331	0	31116	
5332	0	31152	
5333	0	31276	
5334	0	31336	
5335	0	31368	
5336	0	31320	
5337	0	31184	
5338	0	31092	
5339	0	31056	
5340	0	31068	
5341	0	31188	
5342	0	31274	
5343	0	31304	
5344	0	31324	
5345	0	31280	
5346	0	31272	
5347	0	31296	
5348	0	31360	
5349	0	31376	
5350	0	31456	
5351	0	31580	
5352	0	31624	
5353	0	31648	
5354	0	31674	
5355	0	31700	
5356	0	31696	
5357	0	31660	
5358	0	31580	
5359	0	31492	
5360	0	31374	
5361	0	31352	
5362	0	31372	
5363	0	31428	
5364	0	31472	
5365	0	31384	
5366	0	31360	
5367	0	31360	
5368	0	31340	
5369	0	31332	
5370	0	31348	
5371	0	31472	
5372	0	31560	
5373	0	31664	
5374	0	31716	
5375	0	31732	
5376	0	31776	
5377	0	31804	
5378	0	31796	
5379	0	31736	
5380	0	31652	
5381	0	31596	
5382	0	31480	
5383	0	31388	
5384	0	31352	
5385	0	31264	
5386	0	31288	
5387	0	31426	
5388	0	31520	
5389	0	31504	
5390	0	31460	
5391	0	31424	
5392	0	31448	
5393	0	31552	
5394	0	31644	
5395	0	31714	
5396	0	31692	
5397	0	31692	
5398	0	31668	
5399	0	31632	
5400	0	31592	
5401	0	31648	
5402	0	31802	
5403	0	31832	
5404	0	31892	
5405	0	32040	
5406	0	31920	
5407	0	31896	
5408	0	31964	
5409	0	32020	
5410	0	32144	
5411	0	32188	
5412	0	32160	
5413	0	32148	
5414	0	32124	
5415	0	32160	
5416	0	32224	
5417	0	32212	
5418	0	32170	
5419	0	32128	
5420	0	32044	
5421	0	32040	
5422	0	32090	
5423	0	32096	
5424	0	32192	
5425	0	32316	
5426	0	32404	
5427	0	32414	
5428	0	32396	
5429	0	32384	
5430	0	32420	
5431	0	32352	
5432	0	32324	
5433	0	32384	
5434	0	32544	
5435	0	32640	
5436	0	32560	
5437	0	32492	
5438	0	32456	
5439	0	32380	
5440	0	32364	
5441	0	32442	
5442	0	32476	
5443	0	32508	
5444	0	32536	
5445	0	32492	
5446	0	32376	
5447	0	32320	
5448	0	32364	
5449	0	32408	
5450	0	32448	
5451	0	32524	
5452	0	32536	
5453	0	32496	
5454	0	32512	
5455	0	32552	
5456	0	32600	
5457	0	32672	
5458	0	32748	
5459	0	32804	
5460	0	32744	
5461	0	32752	
5462	0	32760	
5463	0	32728	
5464	0	32688	
5465	0	32720	
5466	0	32832	
5467	0	32880	
5468	0	32908	
5469	0	33004	
5470	0	33124	
5471	0	33172	
5472	0	33182	
5473	0	33088	
5474	0	33060	
5475	0	33140	
5476	0	33284	
5477	0	33332	
5478	0	33344	
5479	0	33292	
5480	0	33184	
5481	0	33096	
5482	0	33056	
5483	0	33152	
5484	0	33184	
5485	0	33224	
5486	0	33292	
5487	0	33282	
5488	0	33290	
5489	0	33320	
5490	0	33412	
5491	0	33540	
5492	0	33594	
5493	0	33580	
5494	0	33588	
5495	0	33616	
5496	0	33668	
5497	0	33780	
5498	0	33688	
5499	0	33528	
5500	0	33396	
5501	0	33340	
5502	0	33352	
5503	0	33360	
5504	0	33368	
5505	0	33376	
5506	0	33436	
5507	0	33572	
5508	0	33612	
5509	0	33608	
5510	0	33684	
5511	0	33748	
5512	0	33796	
5513	0	33856	
5514	0	33912	
5515	0	33988	
5516	0	33992	
5517	0	34072	
5518	0	34176	
5519	0	34064	
5520	0	33992	
5521	0	33992	
5522	0	34044	
5523	0	34124	
5524	0	34088	
5525	0	33952	
5526	0	33876	
5527	0	33928	
5528	0	34016	
5529	0	34060	
5530	0	34100	
5531	0	34138	
5532	0	34204	
5533	0	34244	
5534	0	34340	
5535	0	34452	
5536	0	34528	
5537	0	34488	
5538	0	34448	
5539	0	34464	
5540	0	34500	
5541	0	34446	
5542	0	34416	
5543	0	34418	
5544	0	34456	
5545	0	34528	
5546	0	34588	
5547	0	34408	
5548	0	34324	
5549	0	34316	
5550	0	34396	
5551	0	34496	
5552	0	34552	
5553	0	34668	
5554	0	34760	
5555	0	34792	
5556	0	34856	
5557	0	34892	
5558	0	34952	
5559	0	34992	
5560	0	34940	
5561	0	34864	
5562	0	34848	
5563	0	34848	
5564	0	34820	
5565	0	34818	
5566	0	34880	
5567	0	34996	
5568	0	35120	
5569	0	35132	
5570	0	35148	
5571	0	35224	
5572	0	35308	
5573	0	35280	
5574	0	35244	
5575	0	35300	
5576	0	35376	
5577	0	35396	
5578	0	35384	
5579	0	35416	
5580	0	35402	
5581	0	35452	
5582	0	35472	
5583	0	35444	
5584	0	35400	
5585	0	35360	
5586	0	35360	
5587	0	35340	
5588	0	35424	
5589	0	35436	
5590	0	35408	
5591	0	35492	
5592	0	35512	
5593	0	35512	
5594	0	35544	
5595	0	35556	
5596	0	35548	
5597	0	35532	
5598	0	35528	
5599	0	35528	
5600	0	35476	
5601	0	35484	
5602	0	35444	
5603	0	35344	
5604	0	35228	
5605	0	35232	
5606	0	35376	
5607	0	35428	
5608	0	35436	
5609	0	35540	
5610	0	35576	
5611	0	35516	
5612	0	35572	
5613	0	35720	
5614	0	35816	
5615	0	35844	
5616	0	35774	
5617	0	35732	
5618	0	35724	
5619	0	35728	
5620	0	35680	
5621	0	35558	
5622	0	35416	
5623	0	35384	
5624	0	35408	
5625	0	35420	
5626	0	35316	
5627	0	35276	
5628	0	35304	
5629	0	35292	
5630	0	35300	
5631	0	35344	
5632	0	35396	
5633	0	35436	
5634	0	35520	
5635	0	35520	
5636	0	35460	
5637	0	35416	
5638	0	35376	
5639	0	35332	
5640	0	35308	
5641	0	35304	
5642	0	35312	
5643	0	35268	
5644	0	35258	
5645	0	35252	
5646	0	35328	
5647	0	35464	
5648	0	35572	
5649	0	35720	
5650	0	35848	
5651	0	35856	
5652	0	35780	
5653	0	35742	
5654	0	35784	
5655	0	35824	
5656	0	35848	
5657	0	35848	
5658	0	35824	
5659	0	35820	
5660	0	35846	
5661	0	35900	
5662	0	35932	
5663	0	35904	
5664	0	35872	
5665	0	35816	
5666	0	35836	
5667	0	35800	
5668	0	35808	
5669	0	35840	
5670	0	35868	
5671	0	35968	
5672	0	36048	
5673	0	36000	
5674	0	35856	
5675	0	35748	
5676	0	35632	
5677	0	35508	
5678	0	35432	
5679	0	35400	
5680	0	35312	
5681	0	35184	
5682	0	34996	
5683	0	34864	
5684	0	34896	
5685	0	35020	
5686	0	35156	
5687	0	35204	
5688	0	35104	
5689	0	34880	
5690	0	34684	
5691	0	34564	
5692	0	34508	
5693	0	34492	
5694	0	34488	
5695	0	34456	
5696	0	34340	
5697	0	34190	
5698	0	33984	
5699	0	33800	
5700	0	33716	
5701	0	33700	
5702	0	33696	
5703	0	33660	
5704	0	33628	
5705	0	33628	
5706	0	33696	
5707	0	33844	
5708	0	33892	
5709	0	33984	
5710	0	34048	
5711	0	34112	
5712	0	34132	
5713	0	34112	
5714	0	34044	
5715	0	33972	
5716	0	33924	
5717	0	33888	
5718	0	33900	
5719	0	33800	
5720	0	33608	
5721	0	33420	
5722	0	33288	
5723	0	33164	
5724	0	33104	
5725	0	33036	
5726	0	32976	
5727	0	32988	
5728	0	32936	
5729	0	32816	
5730	0	32736	
5731	0	32728	
5732	0	32738	
5733	0	32752	
5734	0	32800	
5735	0	32848	
5736	0	32880	
5737	0	32834	
5738	0	32768	
5739	0	32728	
5740	0	32704	
5741	0	32680	
5742	0	32616	
5743	0	32600	
5744	0	32592	
5745	0	32578	
5746	0	32608	
5747	0	32644	
5748	0	32728	
5749	0	32828	
5750	0	32794	
5751	0	32768	
5752	0	32714	
5753	0	32668	
5754	0	32784	
5755	0	32884	
5756	0	32916	
5757	0	32892	
5758	0	32876	
5759	0	32896	
5760	0	32810	
5761	0	32700	
5762	0	32620	
5763	0	32578	
5764	0	32546	
5765	0	32494	
5766	0	32514	
5767	0	32572	
5768	0	32580	
5769	0	32548	
5770	0	32524	
5771	0	32504	
5772	0	32472	
5773	0	32472	
5774	0	32544	
5775	0	32636	
5776	0	32640	
5777	0	32532	
5778	0	32448	
5779	0	32408	
5780	0	32376	
5781	0	32386	
5782	0	32450	
5783	0	32488	
5784	0	32504	
5785	0	32516	
5786	0	32548	
5787	0	32562	
5788	0	32576	
5789	0	32576	
5790	0	32584	
5791	0	32620	
5792	0	32656	
5793	0	32642	
5794	0	32592	
5795	0	32488	
5796	0	32328	
5797	0	32212	
5798	0	32076	
5799	0	31916	
5800	0	31700	
5801	0	31640	
5802	0	31708	
5803	0	31788	
5804	0	31824	
5805	0	31996	
5806	0	32375	
5807	0	32874	
5808	0	33336	
5809	0	33880	
5810	0	34648	
5811	0	35480	
5812	0	36442	
5813	0	37476	
5814	0	38744	
5815	0	40242	
5816	0	41652	
5817	0	42908	
5818	0	44216	
5819	0	45504	
5820	0	46832	
5821	0	48240	
5822	0	49584	
5823	0	50852	
5824	0	52096	
5825	0	53296	
5826	0	54488	
5827	0	55582	
5828	0	56396	
5829	0	57040	
5830	0	57584	
5831	0	57952	
5832	0	57956	
5833	0	56980	
5834	0	54984	
5835	0	52256	
5836	0	48968	
5837	0	45512	
5838	0	41964	
5839	0	38172	
5840	0	34144	
5841	0	30124	
5842	0	26672	
5843	0	24368	
5844	0	22970	
5845	0	22158	
5846	0	21760	
5847	0	21632	
5848	0	21730	
5849	0	21892	
5850	0	22108	
5851	0	22428	
5852	0	22880	
5853	0	23412	
5854	0	23856	
5855	0	24260	
5856	0	24648	
5857	0	25012	
5858	0	25356	
5859	0	25612	
5860	0	25736	
5861	0	25758	
5862	0	25728	
5863	0	25696	
5864	0	25708	
5865	0	25632	
5866	0	25572	
5867	0	25532	
5868	0	25414	
5869	0	25346	
5870	0	25344	
5871	0	25392	
5872	0	25408	
5873	0	25448	
5874	0	25472	
5875	0	25520	
5876	0	25592	
5877	0	25616	
5878	0	25692	
5879	0	25776	
5880	0	25836	
5881	0	25905	
5882	0	25980	
5883	0	25936	
5884	0	25960	
5885	0	26100	
5886	0	26248	
5887	0	26426	
5888	0	26596	
5889	0	26728	
5890	0	26752	
5891	0	26800	
5892	0	26920	
5893	0	27028	
5894	0	27148	
5895	0	27252	
5896	0	27326	
5897	0	27390	
5898	0	27362	
5899	0	27288	
5900	0	27152	
5901	0	27008	
5902	0	26912	
5903	0	26882	
5904	0	26878	
5905	0	26840	
5906	0	26796	
5907	0	26760	
5908	0	26682	
5909	0	26644	
5910	0	26652	
5911	0	26688	
5912	0	26764	
5913	0	26824	
5914	0	26908	
5915	0	27056	
5916	0	27228	
5917	0	27360	
5918	0	27456	
5919	0	27516	
5920	0	27576	
5921	0	27712	
5922	0	27872	
5923	0	28020	
5924	0	28144	
5925	0	28248	
5926	0	28356	
5927	0	28460	
5928	0	28584	
5929	0	28752	
5930	0	28944	
5931	0	29116	
5932	0	29248	
5933	0	29434	
5934	0	29656	
5935	0	29816	
5936	0	29948	
5937	0	30074	
5938	0	30186	
5939	0	30232	
5940	0	30304	
5941	0	30404	
5942	0	30508	
5943	0	30616	
5944	0	30728	
5945	0	30840	
5946	0	30960	
5947	0	31076	
5948	0	31212	
5949	0	31296	
5950	0	31406	
5951	0	31518	
5952	0	31600	
5953	0	31660	
5954	0	31696	
5955	0	31720	
5956	0	31784	
5957	0	31848	
5958	0	31872	
5959	0	31920	
5960	0	31978	
5961	0	31968	
5962	0	31978	
5963	0	32008	
5964	0	32064	
5965	0	32100	
5966	0	32148	
5967	0	32272	
5968	0	32356	
5969	0	32396	
5970	0	32436	
5971	0	32508	
5972	0	32588	
5973	0	32636	
5974	0	32704	
5975	0	32760	
5976	0	32800	
5977	0	32824	
5978	0	32828	
5979	0	32844	
5980	0	32866	
5981	0	32864	
5982	0	32864	
5983	0	32908	
5984	0	32946	
5985	0	33026	
5986	0	33100	
5987	0	33168	
5988	0	33216	
5989	0	33264	
5990	0	33296	
5991	0	33344	
5992	0	33424	
5993	0	33532	
5994	0	33640	
5995	0	33696	
5996	0	33752	
5997	0	33770	
5998	0	33808	
5999	0	33824	
6000	0	33828	
6001	0	33846	
6002	0	33824	
6003	0	33804	
6004	0	33820	
6005	0	33888	
6006	0	33984	
6007	0	34088	
6008	0	34172	
6009	0	34250	
6010	0	34348	
6011	0	34456	
6012	0	34592	
6013	0	34660	
6014	0	34712	
6015	0	34792	
6016	0	34864	
6017	0	34916	
6018	0	34896	
6019	0	34864	
6020	0	34868	
6021	0	34904	
6022	0	34972	
6023	0	35028	
6024	0	35076	
6025	0	35168	
6026	0	35280	
6027	0	35400	
6028	0	35524	
6029	0	35608	
6030	0	35712	
6031	0	35808	
6032	0	35884	
6033	0	35984	
6034	0	36164	
6035	0	36288	
6036	0	36368	
6037	0	36392	
6038	0	36428	
6039	0	36512	
6040	0	36624	
6041	0	36704	
6042	0	36788	
6043	0	36868	
6044	0	36898	
6045	0	36936	
6046	0	36984	
6047	0	37064	
6048	0	37188	
6049	0	37380	
6050	0	37546	
6051	0	37680	
6052	0	37796	
6053	0	37880	
6054	0	37976	
6055	0	38084	
6056	0	38224	
6057	0	38280	
6058	0	38288	
6059	0	38320	
6060	0	38320	
6061	0	38332	
6062	0	38384	
6063	0	38420	
6064	0	38500	
6065	0	38584	
6066	0	38652	
6067	0	38720	
6068	0	38808	
6069	0	38884	
6070	0	38976	
6071	0	39082	
6072	0	39216	
6073	0	39336	
6074	0	39444	
6075	0	39552	
6076	0	39648	
6077	0	39684	
6078	0	39724	
6079	0	39720	
6080	0	39704	
6081	0	39688	
6082	0	39668	
6083	0	39672	
6084	0	39696	
6085	0	39688	
6086	0	39652	
6087	0	39608	
6088	0	39572	
6089	0	39532	
6090	0	39456	
6091	0	39416	
6092	0	39368	
6093	0	39316	
6094	0	39232	
6095	0	39136	
6096	0	39016	
6097	0	38868	
6098	0	38688	
6099	0	38448	
6100	0	38232	
6101	0	38088	
6102	0	37960	
6103	0	37816	
6104	0	37632	
6105	0	37420	
6106	0	37232	
6107	0	37004	
6108	0	36808	
6109	0	36618	
6110	0	36428	
6111	0	36224	
6112	0	36008	
6113	0	35802	
6114	0	35636	
6115	0	35472	
6116	0	35272	
6117	0	35052	
6118	0	34842	
6119	0	34680	
6120	0	34510	
6121	0	34256	
6122	0	33988	
6123	0	33720	
6124	0	33512	
6125	0	33356	
6126	0	33216	
6127	0	33064	
6128	0	32864	
6129	0	32680	
6130	0	32524	
6131	0	32416	
6132	0	32304	
6133	0	32168	
6134	0	32000	
6135	0	31776	
6136	0	31620	
6137	0	31484	
6138	0	31372	
6139	0	31272	
6140	0	31140	
6141	0	31040	
6142	0	30964	
6143	0	30844	
6144	0	30764	
6145	0	30716	
6146	0	30665	
6147	0	30592	
6148	0	30562	
6149	0	30500	
6150	0	30444	
6151	0	30384	
6152	0	30392	
6153	0	30392	
6154	0	30386	
6155	0	30336	
6156	0	30248	
6157	0	30128	
6158	0	29996	
6159	0	29890	
6160	0	29836	
6161	0	29792	
6162	0	29760	
6163	0	29700	
6164	0	29668	
6165	0	29660	
6166	0	29656	
6167	0	29644	
6168	0	29608	
6169	0	29592	
6170	0	29580	
6171	0	29608	
6172	0	29668	
6173	0	29724	
6174	0	29772	
6175	0	29796	
6176	0	29804	
6177	0	29792	
6178	0	29760	
6179	0	29732	
6180	0	29730	
6181	0	29744	
6182	0	29768	
6183	0	29792	
6184	0	29834	
6185	0	29896	
6186	0	29934	
6187	0	29956	
6188	0	29936	
6189	0	29940	
6190	0	29952	
6191	0	29968	
6192	0	29976	
6193	0	30020	
6194	0	30112	
6195	0	30164	
6196	0	30184	
6197	0	30164	
6198	0	30082	
6199	0	30000	
6200	0	29936	
6201	0	29948	
6202	0	29996	
6203	0	30004	
6204	0	29988	
6205	0	29940	
6206	0	29900	
6207	0	30004	
6208	0	30064	
6209	0	30112	
6210	0	30172	
6211	0	30240	
6212	0	30312	
6213	0	30388	
6214	0	30444	
6215	0	30466	
6216	0	30440	
6217	0	30380	
6218	0	30320	
6219	0	30276	
6220	0	30272	
6221	0	30320	
6222	0	30416	
6223	0	30424	
6224	0	30434	
6225	0	30504	
6226	0	30516	
6227	0	30548	
6228	0	30592	
6229	0	30640	
6230	0	30656	
6231	0	30684	
6232	0	30720	
6233	0	30796	
6234	0	30788	
6235	0	30784	
6236	0	30816	
6237	0	30868	
6238	0	30856	
6239	0	30864	
6240	0	30840	
6241	0	30824	
6242	0	30792	
6243	0	30756	
6244	0	30752	
6245	0	30756	
6246	0	30768	
6247	0	30800	
6248	0	30816	
6249	0	30820	
6250	0	30832	
6251	0	30896	
6252	0	30952	
6253	0	30980	
6254	0	30976	
6255	0	30952	
6256	0	30924	
6257	0	30912	
6258	0	30972	
6259	0	31076	
6260	0	31152	
6261	0	31176	
6262	0	31184	
6263	0	31150	
6264	0	31146	
6265	0	31208	
6266	0	31252	
6267	0	31240	
6268	0	31180	
6269	0	31140	
6270	0	31108	
6271	0	31112	
6272	0	31160	
6273	0	31200	
6274	0	31252	
6275	0	31272	
6276	0	31264	
6277	0	31212	
6278	0	31180	
6279	0	31120	
6280	0	31092	
6281	0	31034	
6282	0	31018	
6283	0	31004	
6284	0	31024	
6285	0	31076	
6286	0	31130	
6287	0	31168	
6288	0	31164	
6289	0	31140	
6290	0	31128	
6291	0	31124	
6292	0	31160	
6293	0	31196	
6294	0	31164	
6295	0	31136	
6296	0	31130	
6297	0	31118	
6298	0	31122	
6299	0	31088	
6300	0	31040	
6301	0	30984	
6302	0	30940	
6303	0	30912	
6304	0	30944	
6305	0	30972	
6306	0	30972	
6307	0	30984	
6308	0	30996	
6309	0	30992	
6310	0	30980	
6311	0	31010	
6312	0	31084	
6313	0	31160	
6314	0	31216	
6315	0	31208	
6316	0	31178	
6317	0	31176	
6318	0	31176	
6319	0	31160	
6320	0	31096	
6321	0	31068	
6322	0	31076	
6323	0	31062	
6324	0	31056	
6325	0	31072	
6326	0	31096	
6327	0	31104	
6328	0	31132	
6329	0	31156	
6330	0	31188	
6331	0	31224	
6332	0	31264	
6333	0	31328	
6334	0	31396	
6335	0	31456	
6336	0	31496	
6337	0	31524	
6338	0	31518	
6339	0	31432	
6340	0	31384	
6341	0	31324	
6342	0	31320	
6343	0	31332	
6344	0	31384	
6345	0	31385	
6346	0	31356	
6347	0	31346	
6348	0	31344	
6349	0	31344	
6350	0	31368	
6351	0	31424	
6352	0	31512	
6353	0	31592	
6354	0	31616	
6355	0	31616	
6356	0	31592	
6357	0	31556	
6358	0	31464	
6359	0	31370	
6360	0	31332	
6361	0	31348	
6362	0	31380	
6363	0	31370	
6364	0	31330	
6365	0	31332	
6366	0	31310	
6367	0	31320	
6368	0	31368	
6369	0	31364	
6370	0	31336	
6371	0	31364	
6372	0	31396	
6373	0	31456	
6374	0	31496	
6375	0	31540	
6376	0	31536	
6377	0	31454	
6378	0	31440	
6379	0	31436	
6380	0	31378	
6381	0	31334	
6382	0	31330	
6383	0	31280	
6384	0	31200	
6385	0	31196	
6386	0	31232	
6387	0	31266	
6388	0	31290	
6389	0	31324	
6390	0	31324	
6391	0	31336	
6392	0	31338	
6393	0	31376	
6394	0	31414	
6395	0	31440	
6396	0	31450	
6397	0	31428	
6398	0	31396	
6399	0	31372	
6400	0	31344	
6401	0	31276	
6402	0	31300	
6403	0	31328	
6404	0	31334	
6405	0	31364	
6406	0	31376	
6407	0	31408	
6408	0	31512	
6409	0	31560	
6410	0	31512	
6411	0	31472	
6412	0	31424	
6413	0	31448	
6414	0	31488	
6415	0	31548	
6416	0	31584	
6417	0	31568	
6418	0	31512	
6419	0	31466	
6420	0	31444	
6421	0	31472	
6422	0	31472	
6423	0	31460	
6424	0	31432	
6425	0	31364	
6426	0	31384	
6427	0	31472	
6428	0	31528	
6429	0	31600	
6430	0	31628	
6431	0	31700	
6432	0	31776	
6433	0	31832	
6434	0	31878	
6435	0	31876	
6436	0	31812	
6437	0	31808	
6438	0	31832	
6439	0	31768	
6440	0	31700	
6441	0	31672	
6442	0	31664	
6443	0	31684	
6444	0	31724	
6445	0	31820	
6446	0	31920	
6447	0	31884	
6448	0	31866	
6449	0	31862	
6450	0	31856	
6451	0	31944	
6452	0	32036	
6453	0	31952	
6454	0	31936	
6455	0	31964	
6456	0	32000	
6457	0	31964	
6458	0	32000	
6459	0	32004	
6460	0	31962	
6461	0	31930	
6462	0	31968	
6463	0	31996	
6464	0	31988	
6465	0	31992	
6466	0	31980	
6467	0	31948	
6468	0	31970	
6469	0	32092	
6470	0	32148	
6471	0	32236	
6472	0	32336	
6473	0	32404	
6474	0	32444	
6475	0	32548	
6476	0	32632	
6477	0	32692	
6478	0	32776	
6479	0	32856	
6480	0	32956	
6481	0	33044	
6482	0	33080	
6483	0	33112	
6484	0	33192	
6485	0	33344	
6486	0	33400	
6487	0	33392	
6488	0	33406	
6489	0	33456	
6490	0	33514	
6491	0	33636	
6492	0	33740	
6493	0	33800	
6494	0	33892	
6495	0	33996	
6496	0	34090	
6497	0	34104	
6498	0	34064	
6499	0	34068	
6500	0	34136	
6501	0	34240	
6502	0	34344	
6503	0	34434	
6504	0	34508	
6505	0	34504	
6506	0	34584	
6507	0	34656	
6508	0	34568	
6509	0	34460	
6510	0	34388	
6511	0	34312	
6512	0	34292	
6513	0	34292	
6514	0	34284	
6515	0	34200	
6516	0	34136	
6517	0	34120	
6518	0	34196	
6519	0	34256	
6520	0	34248	
6521	0	34112	
6522	0	33912	
6523	0	33624	
6524	0	33376	
6525	0	33240	
6526	0	33192	
6527	0	33204	
6528	0	33266	
6529	0	33220	
6530	0	33156	
6531	0	33096	
6532	0	33064	
6533	0	33004	
6534	0	33016	
6535	0	33024	
6536	0	33042	
6537	0	33048	
6538	0	33016	
6539	0	32924	
6540	0	32892	
6541	0	32992	
6542	0	32988	
6543	0	32880	
6544	0	32756	
6545	0	32684	
6546	0	32688	
6547	0	32724	
6548	0	32716	
6549	0	32712	
6550	0	32696	
6551	0	32656	
6552	0	32594	
6553	0	32512	
6554	0	32496	
6555	0	32434	
6556	0	32320	
6557	0	32180	
6558	0	32108	
6559	0	32048	
6560	0	31928	
6561	0	31756	
6562	0	31620	
6563	0	31556	
6564	0	31546	
6565	0	31562	
6566	0	31520	
6567	0	31428	
6568	0	31392	
6569	0	31432	
6570	0	31512	
6571	0	31560	
6572	0	31704	
6573	0	31860	
6574	0	31970	
6575	0	32108	
6576	0	32144	
6577	0	32084	
6578	0	32008	
6579	0	31976	
6580	0	31960	
6581	0	31952	
6582	0	31934	
6583	0	31940	
6584	0	31900	
6585	0	31880	
6586	0	31888	
6587	0	31868	
6588	0	31916	
6589	0	31928	
6590	0	31908	
6591	0	31972	
6592	0	32056	
6593	0	32096	
6594	0	32180	
6595	0	32272	
6596	0	32208	
6597	0	32128	
6598	0	32012	
6599	0	32064	
6600	0	32068	
6601	0	32044	
6602	0	32076	
6603	0	31952	
6604	0	31880	
6605	0	31896	
6606	0	31856	
6607	0	31814	
6608	0	31792	
6609	0	31844	
6610	0	31992	
6611	0	32092	
6612	0	32112	
6613	0	32108	
6614	0	32128	
6615	0	32164	
6616	0	32232	
6617	0	32256	
6618	0	32240	
6619	0	32248	
6620	0	32244	
6621	0	32268	
6622	0	32304	
6623	0	32304	
6624	0	32256	
6625	0	32292	
6626	0	32376	
6627	0	32452	
6628	0	32460	
6629	0	32396	
6630	0	32348	
6631	0	32384	
6632	0	32396	
6633	0	32288	
6634	0	32164	
6635	0	32080	
6636	0	31996	
6637	0	31948	
6638	0	32008	
6639	0	32136	
6640	0	32414	
6641	0	32808	
6642	0	33312	
6643	0	33870	
6644	0	34526	
6645	0	35266	
6646	0	36052	
6647	0	36922	
6648	0	37872	
6649	0	39072	
6650	0	40628	
6651	0	42116	
6652	0	43416	
6653	0	44796	
6654	0	46252	
6655	0	47644	
6656	0	49072	
6657	0	50432	
6658	0	51728	
6659	0	52916	
6660	0	54032	
6661	0	55232	
6662	0	56348	
6663	0	57320	
6664	0	58144	
6665	0	58696	
6666	0	59068	
6667	0	59224	
6668	0	58336	
6669	0	56320	
6670	0	53716	
6671	0	50640	
6672	0	47392	
6673	0	44232	
6674	0	40848	
6675	0	37092	
6676	0	33380	
6677	0	30384	
6678	0	28334	
6679	0	27032	
6680	0	26292	
6681	0	26002	
6682	0	25924	
6683	0	26116	
6684	0	26368	
6685	0	26616	
6686	0	26956	
6687	0	27482	
6688	0	28184	
6689	0	28896	
6690	0	29442	
6691	0	29948	
6692	0	30456	
6693	0	30888	
6694	0	31212	
6695	0	31480	
6696	0	31702	
6697	0	31856	
6698	0	31890	
6699	0	31808	
6700	0	31678	
6701	0	31536	
6702	0	31540	
6703	0	31500	
6704	0	31312	
6705	0	31144	
6706	0	31073	
6707	0	31144	
6708	0	31162	
6709	0	31160	
6710	0	31176	
6711	0	31184	
6712	0	31172	
6713	0	31148	
6714	0	31200	
6715	0	31344	
6716	0	31424	
6717	0	31372	
6718	0	31240	
6719	0	31156	
6720	0	31140	
6721	0	31156	
6722	0	31168	
6723	0	31164	
6724	0	31076	
6725	0	30984	
6726	0	30972	
6727	0	31028	
6728	0	31152	
6729	0	31192	
6730	0	31200	
6731	0	31264	
6732	0	31324	
6733	0	31344	
6734	0	31364	
6735	0	31364	
6736	0	31324	
6737	0	31280	
6738	0	31228	
6739	0	31134	
6740	0	31152	
6741	0	31232	
6742	0	31268	
6743	0	31224	
6744	0	31116	
6745	0	31036	
6746	0	31148	
6747	0	31420	
6748	0	31648	
6749	0	31704	
6750	0	31733	
6751	0	31788	
6752	0	31890	
6753	0	31964	
6754	0	31992	
6755	0	31976	
6756	0	31956	
6757	0	32000	
6758	0	31960	
6759	0	31896	
6760	0	31784	
6761	0	31788	
6762	0	31796	
6763	0	31708	
6764	0	31728	
6765	0	31794	
6766	0	31800	
6767	0	31800	
6768	0	31842	
6769	0	31940	
6770	0	32058	
6771	0	32088	
6772	0	32140	
6773	0	32332	
6774	0	32448	
6775	0	32492	
6776	0	32492	
6777	0	32464	
6778	0	32372	
6779	0	32194	
6780	0	32104	
6781	0	32078	
6782	0	32012	
6783	0	31936	
6784	0	31912	
6785	0	31948	
6786	0	32020	
6787	0	32168	
6788	0	32352	
6789	0	32440	
6790	0	32432	
6791	0	32344	
6792	0	32366	
6793	0	32424	
6794	0	32456	
6795	0	32596	
6796	0	32632	
6797	0	32576	
6798	0	32552	
6799	0	32594	
6800	0	32478	
6801	0	32370	
6802	0	32380	
6803	0	32400	
6804	0	32404	
6805	0	32436	
6806	0	32476	
6807	0	32592	
6808	0	32744	
6809	0	32772	
6810	0	32752	
6811	0	32744	
6812	0	32808	
6813	0	32890	
6814	0	32904	
6815	0	32912	
6816	0	32904	
6817	0	32894	
6818	0	32908	
6819	0	33024	
6820	0	33124	
6821	0	33180	
6822	0	33164	
6823	0	33112	
6824	0	32996	
6825	0	32868	
6826	0	32800	
6827	0	32864	
6828	0	32868	
6829	0	32772	
6830	0	32788	
6831	0	32920	
6832	0	33084	
6833	0	33192	
6834	0	33312	
6835	0	33408	
6836	0	33472	
6837	0	33580	
6838	0	33528	
6839	0	33448	
6840	0	33464	
6841	0	33496	
6842	0	33552	
6843	0	33656	
6844	0	33848	
6845	0	33896	
6846	0	33886	
6847	0	34012	
6848	0	34100	
6849	0	34144	
6850	0	34160	
6851	0	34216	
6852	0	34188	
6853	0	34176	
6854	0	34204	
6855	0	34228	
6856	0	34336	
6857	0	34336	
6858	0	34312	
6859	0	34340	
6860	0	34384	
6861	0	34348	
6862	0	34292	
6863	0	34202	
6864	0	34201	
6865	0	34336	
6866	0	34496	
6867	0	34620	
6868	0	34716	
6869	0	34716	
6870	0	34622	
6871	0	34612	
6872	0	34832	
6873	0	35112	
6874	0	35348	
6875	0	35548	
6876	0	35776	
6877	0	35934	
6878	0	36044	
6879	0	36160	
6880	0	36170	
6881	0	36128	
6882	0	36152	
6883	0	36144	
6884	0	36304	
6885	0	36432	
6886	0	36492	
6887	0	36504	
6888	0	36472	
6889	0	36496	
6890	0	36594	
6891	0	36684	
6892	0	36672	
6893	0	36676	
6894	0	36740	
6895	0	36748	
6896	0	36840	
6897	0	37020	
6898	0	37228	
6899	0	37356	
6900	0	37360	
6901	0	37380	
6902	0	37520	
6903	0	37588	
6904	0	37652	
6905	0	37732	
6906	0	37840	
6907	0	37952	
6908	0	38040	
6909	0	37872	
6910	0	37760	
6911	0	37804	
6912	0	37920	
6913	0	37976	
6914	0	37912	
6915	0	37848	
6916	0	37792	
6917	0	37728	
6918	0	37740	
6919	0	37520	
6920	0	37304	
6921	0	37236	
6922	0	37268	
6923	0	37294	
6924	0	37296	
6925	0	37184	
6926	0	36884	
6927	0	36640	
6928	0	36576	
6929	0	36440	
6930	0	36360	
6931	0	36380	
6932	0	36332	
6933	0	36164	
6934	0	35922	
6935	0	35660	
6936	0	35560	
6937	0	35456	
6938	0	35356	
6939	0	35130	
6940	0	34776	
6941	0	34432	
6942	0	34172	
6943	0	34080	
6944	0	33876	
6945	0	33566	
6946	0	33284	
6947	0	33164	
6948	0	32992	
6949	0	32746	
6950	0	32530	
6951	0	32256	
6952	0	32144	
6953	0	32244	
6954	0	32248	
6955	0	31994	
6956	0	31728	
6957	0	31484	
6958	0	31288	
6959	0	30956	
6960	0	30544	
6961	0	30336	
6962	0	30144	
6963	0	29936	
6964	0	29744	
6965	0	29542	
6966	0	29472	
6967	0	29496	
6968	0	29484	
6969	0	29384	
6970	0	29260	
6971	0	29410	
6972	0	29364	
6973	0	29292	
6974	0	29132	
6975	0	29072	
6976	0	29128	
6977	0	28848	
6978	0	28556	
6979	0	28420	
6980	0	28456	
6981	0	28596	
6982	0	28568	
6983	0	28252	
6984	0	28148	
6985	0	28248	
6986	0	28376	
6987	0	28450	
6988	0	28404	
6989	0	28324	
6990	0	28360	
6991	0	28384	
6992	0	28444	
6993	0	28472	
6994	0	28376	
6995	0	28352	
6996	0	28256	
6997	0	28316	
6998	0	28376	
6999	0	28312	
7000	0	28112	
7001	0	27888	
7002	0	27680	
7003	0	27616	
7004	0	27692	
7005	0	27656	
7006	0	27632	
7007	0	27788	
7008	0	27856	
7009	0	28040	
7010	0	28136	
7011	0	28128	
7012	0	28194	
7013	0	28198	
7014	0	28496	
7015	0	28846	
7016	0	28720	
7017	0	28636	
7018	0	28580	
7019	0	28616	
7020	0	28590	
7021	0	28608	
7022	0	28668	
7023	0	28592	
7024	0	28612	
7025	0	28632	
7026	0	28510	
7027	0	28468	
7028	0	28560	
7029	0	28588	
7030	0	28472	
7031	0	28440	
7032	0	28576	
7033	0	28708	
7034	0	28770	
7035	0	28928	
7036	0	28960	
7037	0	28608	
7038	0	28544	
7039	0	28564	
7040	0	28654	
7041	0	28620	
7042	0	28468	
7043	0	28488	
7044	0	28644	
7045	0	28696	
7046	0	28588	
7047	0	28672	
7048	0	28772	
7049	0	28880	
7050	0	28812	
7051	0	28616	
7052	0	28552	
7053	0	28776	
7054	0	28960	
7055	0	29036	
7056	0	28956	
7057	0	29104	
7058	0	29240	
7059	0	29272	
7060	0	29173	
7061	0	29012	
7062	0	28964	
7063	0	29010	
7064	0	29100	
7065	0	29216	
7066	0	29338	
7067	0	29372	
7068	0	29400	
7069	0	29588	
7070	0	29530	
7071	0	29420	
7072	0	29332	
7073	0	29580	
7074	0	29776	
7075	0	29964	
7076	0	30100	
7077	0	30170	
7078	0	30156	
7079	0	30164	
7080	0	30240	
7081	0	30264	
7082	0	30248	
7083	0	30102	
7084	0	29892	
7085	0	29748	
7086	0	29736	
7087	0	29820	
7088	0	29848	
7089	0	29828	
7090	0	29932	
7091	0	30124	
7092	0	30220	
7093	0	30048	
7094	0	29984	
7095	0	30028	
7096	0	30036	
7097	0	30020	
7098	0	29968	
7099	0	30000	
7100	0	30096	
7101	0	29996	
7102	0	30000	
7103	0	29960	
7104	0	29986	
7105	0	30084	
7106	0	30054	
7107	0	30116	
7108	0	30212	
7109	0	30232	
7110	0	30284	
7111	0	30529	
7112	0	30464	
7113	0	30576	
7114	0	30556	
7115	0	30282	
7116	0	30164	
7117	0	30154	
7118	0	30184	
7119	0	30124	
7120	0	30040	
7121	0	30308	
7122	0	30452	
7123	0	30400	
7124	0	30376	
7125	0	30584	
7126	0	30592	
7127	0	30496	
7128	0	30560	
7129	0	30534	
7130	0	30636	
7131	0	30740	
7132	0	30738	
7133	0	30920	
7134	0	31160	
7135	0	31296	
7136	0	31092	
7137	0	30904	
7138	0	30772	
7139	0	30576	
7140	0	30368	
7141	0	30204	
7142	0	30316	
7143	0	30388	
7144	0	30316	
7145	0	30484	
7146	0	30652	
7147	0	30792	
7148	0	31032	
7149	0	30972	
7150	0	30800	
7151	0	30800	
7152	0	30868	
7153	0	30966	
7154	0	31102	
7155	0	31108	
7156	0	30832	
7157	0	30760	
7158	0	30800	
7159	0	30720	
7160	0	30644	
7161	0	30720	
7162	0	30780	
7163	0	30720	
7164	0	30668	
7165	0	30904	
7166	0	31132	
7167	0	31204	
7168	0	31184	
7169	0	31260	
7170	0	31288	
7171	0	31484	
7172	0	31734	
7173	0	31940	
7174	0	32008	
7175	0	31836	
7176	0	31532	
7177	0	31232	
7178	0	31168	
7179	0	31156	
7180	0	31052	
7181	0	31040	
7182	0	30988	
7183	0	30880	
7184	0	30756	
7185	0	30744	
7186	0	30724	
7187	0	30700	
7188	0	30676	
7189	0	30704	
7190	0	30800	
7191	0	31052	
7192	0	31320	
7193	0	31464	
7194	0	31434	
7195	0	31352	
7196	0	31388	
7197	0	31328	
7198	0	31440	
7199	0	31316	
7200	0	31272	
7201	0	31332	
7202	0	31384	
7203	0	31380	
7204	0	31364	
7205	0	31444	
7206	0	31596	
7207	0	31820	
7208	0	31932	
7209	0	32068	
7210	0	32008	
7211	0	32148	
7212	0	32420	
7213	0	32736	
7214	0	32824	
7215	0	32820	
7216	0	32752	
7217	0	32648	
7218	0	32638	
7219	0	32696	
7220	0	32688	
7221	0	32852	
7222	0	32856	
7223	0	32880	
7224	0	33054	
7225	0	33200	
7226	0	33280	
7227	0	33300	
7228	0	33472	
7229	0	33416	
7230	0	33472	
7231	0	33640	
7232	0	33636	
7233	0	33708	
7234	0	33760	
7235	0	33752	
7236	0	33836	
7237	0	33956	
7238	0	34196	
7239	0	34292	
7240	0	34480	
7241	0	34800	
7242	0	34720	
7243	0	34548	
7244	0	34640	
7245	0	34836	
7246	0	34888	
7247	0	34896	
7248	0	34928	
7249	0	35256	
7250	0	35208	
7251	0	34996	
7252	0	35064	
7253	0	35074	
7254	0	34884	
7255	0	34740	
7256	0	34716	
7257	0	34752	
7258	0	34616	
7259	0	34344	
7260	0	34320	
7261	0	34176	
7262	0	33900	
7263	0	33728	
7264	0	33780	
7265	0	34076	
7266	0	34264	
7267	0	34292	
7268	0	34160	
7269	0	33808	
7270	0	33778	
7271	0	33626	
7272	0	33604	
7273	0	33754	
7274	0	33892	
7275	0	33752	
7276	0	33552	
7277	0	33500	
7278	0	33408	
7279	0	33436	
7280	0	33552	
7281	0	33764	
7282	0	33760	
7283	0	33764	
7284	0	33448	
7285	0	33248	
7286	0	33196	
7287	0	33080	
7288	0	32676	
7289	0	32300	
7290	0	32092	
7291	0	32080	
7292	0	31968	
7293	0	31944	
7294	0	31820	
7295	0	31612	
7296	0	31392	
7297	0	31460	
7298	0	31496	
7299	0	31348	
7300	0	31404	
7301	0	31632	
7302	0	31668	
7303	0	31468	
7304	0	31540	
7305	0	31502	
7306	0	31584	
7307	0	31368	
7308	0	31264	
7309	0	31556	
7310	0	31728	
7311	0	31716	
7312	0	31720	
7313	0	31724	
7314	0	31604	
7315	0	31520	
7316	0	31348	
7317	0	31412	
7318	0	31596	
7319	0	31436	
7320	0	31328	
7321	0	31528	
7322	0	31546	
7323	0	31364	
7324	0	31260	
7325	0	31272	
7326	0	31136	
7327	0	30872	
7328	0	30792	
7329	0	30744	
7330	0	30624	
7331	0	30460	
7332	0	30512	
7333	0	30764	
7334	0	30908	
7335	0	30952	
7336	0	30820	
7337	0	30860	
7338	0	31064	
7339	0	31040	
7340	0	31122	
7341	0	31000	
7342	0	30676	
7343	0	30316	
7344	0	30224	
7345	0	30284	
7346	0	30512	
7347	0	30880	
7348	0	31176	
7349	0	31028	
7350	0	31184	
7351	0	31732	
7352	0	31780	
7353	0	31448	
7354	0	31236	
7355	0	31016	
7356	0	30804	
7357	0	30740	
7358	0	30910	
7359	0	31180	
7360	0	31328	
7361	0	31436	
7362	0	31300	
7363	0	31084	
7364	0	31296	
7365	0	31356	
7366	0	31096	
7367	0	31048	
7368	0	31372	
7369	0	31608	
7370	0	31480	
7371	0	31170	
7372	0	31026	
7373	0	30796	
7374	0	30564	
7375	0	30520	
7376	0	30640	
7377	0	30572	
7378	0	30652	
7379	0	30690	
7380	0	30928	
7381	0	31048	
7382	0	31172	
7383	0	31536	
7384	0	31916	
7385	0	32608	
7386	0	33522	
7387	0	34708	
7388	0	35956	
7389	0	37400	
7390	0	39012	
7391	0	40488	
7392	0	41948	
7393	0	43512	
7394	0	44900	
7395	0	46536	
7396	0	48192	
7397	0	49820	
7398	0	51184	
7399	0	52020	
7400	0	52984	
7401	0	54072	
7402	0	55160	
7403	0	56416	
7404	0	57636	
7405	0	58860	
7406	0	59952	
7407	0	60624	
7408	0	60624	
7409	0	59360	
7410	0	57344	
7411	0	54472	
7412	0	51044	
7413	0	47508	
7414	0	43984	
7415	0	40340	
7416	0	36556	
7417	0	32776	
7418	0	29344	
7419	0	26756	
7420	0	25326	
7421	0	24692	
7422	0	24408	
7423	0	24412	
7424	0	24666	
7425	0	25100	
7426	0	25548	
7427	0	25824	
7428	0	26230	
7429	0	26786	
7430	0	27140	
7431	0	27200	
7432	0	27282	
7433	0	27532	
7434	0	28120	
7435	0	28712	
7436	0	29280	
7437	0	29784	
7438	0	30386	
7439	0	30924	
7440	0	30848	
7441	0	30888	
7442	0	30928	
7443	0	31028	
7444	0	31040	
7445	0	30976	
7446	0	30968	
7447	0	30948	
7448	0	30768	
7449	0	30600	
7450	0	30600	
7451	0	31036	
7452	0	31376	
7453	0	31134	
7454	0	31040	
7455	0	30974	
7456	0	30912	
7457	0	30892	
7458	0	30848	
7459	0	30728	
7460	0	31048	
7461	0	31264	
7462	0	31242	
7463	0	31252	
7464	0	31352	
7465	0	31356	
7466	0	31264	
7467	0	31142	
7468	0	31152	
7469	0	31118	
7470	0	31190	
7471	0	31380	
7472	0	31572	
7473	0	31680	
7474	0	31706	
7475	0	31940	
7476	0	32108	
7477	0	32116	
7478	0	32222	
7479	0	32440	
7480	0	32424	
7481	0	32432	
7482	0	32556	
7483	0	32372	
7484	0	32176	
7485	0	32177	
7486	0	32160	
7487	0	32196	
7488	0	32308	
7489	0	32272	
7490	0	32072	
7491	0	31728	
7492	0	31612	
7493	0	31770	
7494	0	31932	
7495	0	32128	
7496	0	32372	
7497	0	32576	
7498	0	32868	
7499	0	32888	
7500	0	32856	
7501	0	32892	
7502	0	32936	
7503	0	33056	
7504	0	32888	
7505	0	32664	
7506	0	32928	
7507	0	32988	
7508	0	32896	
7509	0	32804	
7510	0	32820	
7511	0	33292	
7512	0	33568	
7513	0	33720	
7514	0	33456	
7515	0	32980	
7516	0	33044	
7517	0	33192	
7518	0	33356	
7519	0	33248	
7520	0	32980	
7521	0	33036	
7522	0	33024	
7523	0	32816	
7524	0	32864	
7525	0	32906	
7526	0	33040	
7527	0	33320	
7528	0	33608	
7529	0	33810	
7530	0	34224	
7531	0	34628	
7532	0	34708	
7533	0	34624	
7534	0	34320	
7535	0	34348	
7536	0	34756	
7537	0	34350	
7538	0	34008	
7539	0	33992	
7540	0	33928	
7541	0	33766	
7542	0	33768	
7543	0	33756	
7544	0	33880	
7545	0	33914	
7546	0	33900	
7547	0	34124	
7548	0	34392	
7549	0	34320	
7550	0	34264	
7551	0	34176	
7552	0	33976	
7553	0	33812	
7554	0	33696	
7555	0	33870	
7556	0	34188	
7557	0	34788	
7558	0	35028	
7559	0	34748	
7560	0	34392	
7561	0	34132	
7562	0	34382	
7563	0	34516	
7564	0	34452	
7565	0	34904	
7566	0	35136	
7567	0	35304	
7568	0	35148	
7569	0	34880	
7570	0	35088	
7571	0	35028	
7572	0	35240	
7573	0	35680	
7574	0	35912	
7575	0	35592	
7576	0	35364	
7577	0	35330	
7578	0	35388	
7579	0	35826	
7580	0	35976	
7581	0	35712	
7582	0	35968	
7583	0	36156	
7584	0	35824	
7585	0	35532	
7586	0	35484	
7587	0	35264	
7588	0	35048	
7589	0	34976	
7590	0	35276	
7591	0	35730	
7592	0	35936	
7593	0	35966	
7594	0	36016	
7595	0	36152	
7596	0	36152	
7597	0	36036	
7598	0	35964	
7599	0	35984	
7600	0	36004	
7601	0	36140	
7602	0	36488	
7603	0	36532	
7604	0	36860	
7605	0	36976	
7606	0	37008	
7607	0	37232	
7608	0	37504	
7609	0	37406	
7610	0	37412	
7611	0	37460	
7612	0	37370	
7613	0	37632	
7614	0	37982	
7615	0	38028	
7616	0	37892	
7617	0	37476	
7618	0	37232	
7619	0	37416	
7620	0	37692	
7621	0	38002	
7622	0	38352	
7623	0	38700	
7624	0	38984	
7625	0	38524	
7626	0	38104	
7627	0	38008	
7628	0	38192	
7629	0	38156	
7630	0	37988	
7631	0	38092	
7632	0	38220	
7633	0	38268	
7634	0	38432	
7635	0	38768	
7636	0	38948	
7637	0	39110	
7638	0	39444	
7639	0	39660	
7640	0	39672	
7641	0	39776	
7642	0	39744	
7643	0	39780	
7644	0	39868	
7645	0	39944	
7646	0	40004	
7647	0	39904	
7648	0	39928	
7649	0	39976	
7650	0	39816	
7651	0	39768	
7652	0	39692	
7653	0	39720	
7654	0	39716	
7655	0	39604	
7656	0	39708	
7657	0	40044	
7658	0	39928	
7659	0	39452	
7660	0	39116	
7661	0	39088	
7662	0	38860	
7663	0	38592	
7664	0	38432	
7665	0	38492	
7666	0	38392	
7667	0	38024	
7668	0	37896	
7669	0	37644	
7670	0	37640	
7671	0	37640	
7672	0	37584	
7673	0	37472	
7674	0	37268	
7675	0	36888	
7676	0	36596	
7677	0	36336	
7678	0	35680	
7679	0	35308	
7680	0	35140	
7681	0	34912	
7682	0	34792	
7683	0	34808	
7684	0	34620	
7685	0	34460	
7686	0	34464	
7687	0	34356	
7688	0	34124	
7689	0	34100	
7690	0	34076	
7691	0	33904	
7692	0	33772	
7693	0	33416	
7694	0	32884	
7695	0	32360	
7696	0	31824	
7697	0	31488	
7698	0	31318	
7699	0	30980	
7700	0	30568	
7701	0	30678	
7702	0	30928	
7703	0	31236	
7704	0	31374	
7705	0	31184	
7706	0	30780	
7707	0	30696	
7708	0	30792	
7709	0	30960	
7710	0	30776	
7711	0	30392	
7712	0	30324	
7713	0	30336	
7714	0	29812	
7715	0	29166	
7716	0	29020	
7717	0	29120	
7718	0	28920	
7719	0	29104	
7720	0	29316	
7721	0	29068	
7722	0	29180	
7723	0	28888	
7724	0	28680	
7725	0	28548	
7726	0	28504	
7727	0	28696	
7728	0	28424	
7729	0	28372	
7730	0	28544	
7731	0	28788	
7732	0	28784	
7733	0	28532	
7734	0	28560	
7735	0	28596	
7736	0	28820	
7737	0	28814	
7738	0	28812	
7739	0	28736	
7740	0	28956	
7741	0	28764	
7742	0	28760	
7743	0	29104	
7744	0	29076	
7745	0	29300	
7746	0	29572	
7747	0	29648	
7748	0	29412	
7749	0	29068	
7750	0	28756	
7751	0	28452	
7752	0	28514	
7753	0	28668	
7754	0	28704	
7755	0	28632	
7756	0	28700	
7757	0	28564	
7758	0	28728	
7759	0	29354	
7760	0	29572	
7761	0	29576	
7762	0	29392	
7763	0	29192	
7764	0	29148	
7765	0	29036	
7766	0	28920	
7767	0	29056	
7768	0	29128	
7769	0	28776	
7770	0	28420	
7771	0	28484	
7772	0	28644	
7773	0	28820	
7774	0	29032	
7775	0	28972	
7776	0	29188	
7777	0	29200	
7778	0	29336	
7779	0	29496	
7780	0	29590	
7781	0	29772	
7782	0	29784	
7783	0	29710	
7784	0	29620	
7785	0	29552	
7786	0	29740	
7787	0	30108	
7788	0	29752	
7789	0	29184	
7790	0	28746	
7791	0	28992	
7792	0	29296	
7793	0	29724	
7794	0	30248	
7795	0	30116	
7796	0	30380	
7797	0	30752	
7798	0	30268	
7799	0	30032	
7800	0	29848	
7801	0	30080	
7802	0	30664	
7803	0	30812	
7804	0	30452	
7805	0	30100	
7806	0	30060	
7807	0	30232	
7808	0	30264	
7809	0	30084	
7810	0	29742	
7811	0	29716	
7812	0	29984	
7813	0	30608	
7814	0	31196	
7815	0	31172	
7816	0	30972	
7817	0	31162	
7818	0	30966	
7819	0	30644	
7820	0	30388	
7821	0	30396	
7822	0	30544	
7823	0	30788	
7824	0	31212	
7825	0	31040	
7826	0	30928	
7827	0	31068	
7828	0	31648	
7829	0	31720	
7830	0	31828	
7831	0	31828	
7832	0	32152	
7833	0	32376	
7834	0	32068	
7835	0	31820	
7836	0	31708	
7837	0	31222	
7838	0	31128	
7839	0	31508	
7840	0	31832	
7841	0	31056	
7842	0	31224	
7843	0	31744	
7844	0	31264	
7845	0	30596	
7846	0	30456	
7847	0	30896	
7848	0	31108	
7849	0	31360	
7850	0	31404	
7851	0	31284	
7852	0	31488	
7853	0	31840	
7854	0	31888	
7855	0	31418	
7856	0	30604	
7857	0	30428	
7858	0	30736	
7859	0	30880	
7860	0	31020	
7861	0	31032	
7862	0	31304	
7863	0	31616	
7864	0	31968	
7865	0	32080	
7866	0	31932	
7867	0	31876	
7868	0	32168	
7869	0	32080	
7870	0	31840	
7871	0	31756	
7872	0	31820	
7873	0	31972	
7874	0	31948	
7875	0	31640	
7876	0	31264	
7877	0	31512	
7878	0	31296	
7879	0	31360	
7880	0	31232	
7881	0	30960	
7882	0	30680	
7883	0	30800	
7884	0	31132	
7885	0	31264	
7886	0	31404	
7887	0	31684	
7888	0	32200	
7889	0	31884	
7890	0	31868	
7891	0	32032	
7892	0	31632	
7893	0	31640	
7894	0	31556	
7895	0	31256	
7896	0	31256	
7897	0	31194	
7898	0	31346	
7899	0	31902	
7900	0	32132	
7901	0	31668	
7902	0	31672	
7903	0	31492	
7904	0	32018	
7905	0	31836	
7906	0	31628	
7907	0	32228	
7908	0	32616	
7909	0	32368	
7910	0	32288	
7911	0	32612	
7912	0	32812	
7913	0	32800	
7914	0	32804	
7915	0	32488	
7916	0	32580	
7917	0	32136	
7918	0	31868	
7919	0	31844	
7920	0	31816	
7921	0	31892	
7922	0	31636	
7923	0	31864	
7924	0	32288	
7925	0	32628	
7926	0	32772	
7927	0	33004	
7928	0	32704	
7929	0	32544	
7930	0	32776	
7931	0	32872	
7932	0	32876	
7933	0	33036	
7934	0	33396	
7935	0	33212	
7936	0	33088	
7937	0	33600	
7938	0	33728	
7939	0	33912	
7940	0	33648	
7941	0	33468	
7942	0	33384	
7943	0	33604	
7944	0	33768	
7945	0	34200	
7946	0	34496	
7947	0	34672	
7948	0	34240	
7949	0	33620	
7950	0	33288	
7951	0	33316	
7952	0	33356	
7953	0	33344	
7954	0	33410	
7955	0	33424	
7956	0	33572	
7957	0	33456	
7958	0	33488	
7959	0	33516	
7960	0	33240	
7961	0	32736	
7962	0	32186	
7963	0	32040	
7964	0	32172	
7965	0	32672	
7966	0	32296	
7967	0	32064	
7968	0	32288	
7969	0	32600	
7970	0	32424	
7971	0	32272	
7972	0	32352	
7973	0	32910	
7974	0	32728	
7975	0	32642	
7976	0	32788	
7977	0	32628	
7978	0	32480	
7979	0	32292	
7980	0	31832	
7981	0	31548	
7982	0	31624	
7983	0	31592	
7984	0	31736	
7985	0	31464	
7986	0	30692	
7987	0	30506	
7988	0	30620	
7989	0	30736	
7990	0	30848	
7991	0	30660	
7992	0	30744	
7993	0	30660	
7994	0	30560	
7995	0	30464	
7996	0	30796	
7997	0	31072	
7998	0	30980	
7999	0	30940	
8000	0	31200	
8001	0	31012	
8002	0	30496	
8003	0	30104	
8004	0	30332	
8005	0	30746	
8006	0	30696	
8007	0	30894	
8008	0	31620	
8009	0	31896	
8010	0	31828	
8011	0	31820	
8012	0	31784	
8013	0	32096	
8014	0	32480	
8015	0	32552	
8016	0	32484	
8017	0	32088	
8018	0	31540	
8019	0	31358	
8020	0	31052	
