# OpenSignals Text File Format. Version 1
# {"00:07:80:4B:15:F7": {"position": 0, "device": "biosignalsplux", "device name": "00:07:80:4B:15:F7", "device connection": "BTH00:07:80:4B:15:F7", "sampling rate": 1000, "resolution": [16], "firmware version": 775, "comments": "", "keywords": "", "mode": 0, "sync interval": 2, "date": "2023-3-2", "time": "17:16:38.245", "channels": [1], "sensor": ["ECG"], "label": ["CH1"], "column": ["nSeq", "DI", "CH1"], "special": [{"SpO2": [80, 40, 5, 4, 3, 3]}, {"SpO2": [80, 40, 5, 4, 3, 3]}, {"SpO2": [80, 40, 5, 4, 3, 3]}, {"SpO2": [80, 40, 5, 4, 3, 3]}, {"SpO2": [80, 40, 5, 4, 3, 3]}, {"SpO2": [80, 40, 5, 4, 3, 3]}, {"SpO2": [80, 40, 5, 4, 3, 3]}, {"SpO2": [80, 40, 5, 4, 3, 3]}], "digital IO": [0, 1], "sleeve color": [""], "convertedValues": 0}}
# EndOfHeader
0	0	29376	
1	0	29390	
2	0	29406	
3	0	29460	
4	0	29484	
5	0	29508	
6	0	29488	
7	0	29500	
8	0	29552	
9	0	29532	
10	0	29548	
11	0	29576	
12	0	29560	
13	0	29604	
14	0	29716	
15	0	29784	
16	0	29812	
17	0	29788	
18	0	29768	
19	0	29812	
20	0	29800	
21	0	29766	
22	0	29836	
23	0	29904	
24	0	29918	
25	0	29920	
26	0	29912	
27	0	29980	
28	0	29984	
29	0	29956	
30	0	29944	
31	0	29992	
32	0	30032	
33	0	30036	
34	0	30080	
35	0	30120	
36	0	30116	
37	0	30160	
38	0	30228	
39	0	30294	
40	0	30376	
41	0	30424	
42	0	30448	
43	0	30432	
44	0	30452	
45	0	30520	
46	0	30548	
47	0	30534	
48	0	30536	
49	0	30560	
50	0	30576	
51	0	30568	
52	0	30592	
53	0	30572	
54	0	30584	
55	0	30664	
56	0	30696	
57	0	30688	
58	0	30668	
59	0	30724	
60	0	30784	
61	0	30756	
62	0	30808	
63	0	30868	
64	0	30820	
65	0	30780	
66	0	30778	
67	0	30796	
68	0	30808	
69	0	30836	
70	0	30880	
71	0	30908	
72	0	30894	
73	0	30920	
74	0	30968	
75	0	31008	
76	0	31080	
77	0	31168	
78	0	31144	
79	0	31132	
80	0	31140	
81	0	31172	
82	0	31208	
83	0	31256	
84	0	31274	
85	0	31264	
86	0	31268	
87	0	31276	
88	0	31280	
89	0	31272	
90	0	31232	
91	0	31268	
92	0	31304	
93	0	31332	
94	0	31312	
95	0	31298	
96	0	31280	
97	0	31296	
98	0	31364	
99	0	31418	
100	0	31424	
101	0	31448	
102	0	31464	
103	0	31464	
104	0	31460	
105	0	31444	
106	0	31456	
107	0	31432	
108	0	31402	
109	0	31416	
110	0	31456	
111	0	31524	
112	0	31553	
113	0	31572	
114	0	31628	
115	0	31656	
116	0	31588	
117	0	31548	
118	0	31532	
119	0	31540	
120	0	31492	
121	0	31452	
122	0	31424	
123	0	31422	
124	0	31476	
125	0	31532	
126	0	31564	
127	0	31596	
128	0	31584	
129	0	31612	
130	0	31620	
131	0	31616	
132	0	31608	
133	0	31596	
134	0	31604	
135	0	31568	
136	0	31628	
137	0	31636	
138	0	31620	
139	0	31580	
140	0	31568	
141	0	31592	
142	0	31600	
143	0	31616	
144	0	31648	
145	0	31664	
146	0	31640	
147	0	31600	
148	0	31630	
149	0	31680	
150	0	31706	
151	0	31706	
152	0	31698	
153	0	31716	
154	0	31728	
155	0	31716	
156	0	31708	
157	0	31728	
158	0	31796	
159	0	31760	
160	0	31768	
161	0	31774	
162	0	31794	
163	0	31822	
164	0	31840	
165	0	31832	
166	0	31800	
167	0	31808	
168	0	31824	
169	0	31874	
170	0	31908	
171	0	31876	
172	0	31876	
173	0	31828	
174	0	31876	
175	0	31882	
176	0	31884	
177	0	31868	
178	0	31872	
179	0	31908	
180	0	31896	
181	0	31916	
182	0	31904	
183	0	31884	
184	0	31824	
185	0	31832	
186	0	31896	
187	0	31944	
188	0	31964	
189	0	32036	
190	0	32116	
191	0	32100	
192	0	32052	
193	0	32024	
194	0	32004	
195	0	31988	
196	0	31968	
197	0	31962	
198	0	31972	
199	0	31976	
200	0	32032	
201	0	32032	
202	0	31988	
203	0	31988	
204	0	31996	
205	0	31968	
206	0	32020	
207	0	32136	
208	0	32144	
209	0	32108	
210	0	32108	
211	0	32104	
212	0	32032	
213	0	32008	
214	0	32048	
215	0	32100	
216	0	32128	
217	0	32180	
218	0	32184	
219	0	32128	
220	0	32088	
221	0	32092	
222	0	32096	
223	0	32076	
224	0	32104	
225	0	32154	
226	0	32208	
227	0	32236	
228	0	32280	
229	0	32304	
230	0	32312	
231	0	32256	
232	0	32254	
233	0	32344	
234	0	32426	
235	0	32476	
236	0	32508	
237	0	32520	
238	0	32560	
239	0	32636	
240	0	32800	
241	0	33012	
242	0	33202	
243	0	33364	
244	0	33448	
245	0	33612	
246	0	33840	
247	0	34016	
248	0	34112	
249	0	34148	
250	0	34130	
251	0	34132	
252	0	34112	
253	0	34144	
254	0	34240	
255	0	34336	
256	0	34364	
257	0	34344	
258	0	34388	
259	0	34424	
260	0	34456	
261	0	34500	
262	0	34592	
263	0	34716	
264	0	34756	
265	0	34800	
266	0	34904	
267	0	35044	
268	0	35104	
269	0	35136	
270	0	35176	
271	0	35204	
272	0	35164	
273	0	35120	
274	0	35116	
275	0	35116	
276	0	35160	
277	0	35212	
278	0	35316	
279	0	35424	
280	0	35504	
281	0	35412	
282	0	35256	
283	0	35096	
284	0	35056	
285	0	35072	
286	0	34940	
287	0	34664	
288	0	34420	
289	0	34202	
290	0	34028	
291	0	33920	
292	0	33852	
293	0	33728	
294	0	33640	
295	0	33532	
296	0	33436	
297	0	33372	
298	0	33334	
299	0	33248	
300	0	33200	
301	0	33244	
302	0	33252	
303	0	33218	
304	0	33088	
305	0	33012	
306	0	33008	
307	0	32992	
308	0	32968	
309	0	32888	
310	0	32840	
311	0	32764	
312	0	32596	
313	0	32448	
314	0	32344	
315	0	32276	
316	0	32204	
317	0	32156	
318	0	32040	
319	0	31932	
320	0	31786	
321	0	31640	
322	0	31520	
323	0	31428	
324	0	31348	
325	0	31296	
326	0	31296	
327	0	31276	
328	0	31242	
329	0	31248	
330	0	31256	
331	0	31312	
332	0	31364	
333	0	31320	
334	0	31288	
335	0	31276	
336	0	31252	
337	0	31268	
338	0	31288	
339	0	31312	
340	0	31328	
341	0	31324	
342	0	31298	
343	0	31316	
344	0	31396	
345	0	31404	
346	0	31360	
347	0	31352	
348	0	31320	
349	0	31380	
350	0	31420	
351	0	31452	
352	0	31414	
353	0	31356	
354	0	31312	
355	0	31300	
356	0	31312	
357	0	31312	
358	0	31328	
359	0	31358	
360	0	31392	
361	0	31436	
362	0	31524	
363	0	31600	
364	0	31640	
365	0	31624	
366	0	31584	
367	0	31580	
368	0	31576	
369	0	31590	
370	0	31612	
371	0	31648	
372	0	31656	
373	0	31696	
374	0	31696	
375	0	31648	
376	0	31680	
377	0	31720	
378	0	31736	
379	0	31804	
380	0	31892	
381	0	31924	
382	0	31932	
383	0	31936	
384	0	31952	
385	0	31956	
386	0	31920	
387	0	31884	
388	0	31904	
389	0	31896	
390	0	31876	
391	0	31816	
392	0	31744	
393	0	31694	
394	0	31576	
395	0	31400	
396	0	31284	
397	0	31156	
398	0	31168	
399	0	31212	
400	0	31332	
401	0	31520	
402	0	31876	
403	0	32412	
404	0	33020	
405	0	33644	
406	0	34376	
407	0	35208	
408	0	36172	
409	0	37294	
410	0	38660	
411	0	40184	
412	0	41564	
413	0	42868	
414	0	44268	
415	0	45724	
416	0	47188	
417	0	48672	
418	0	50156	
419	0	51580	
420	0	52904	
421	0	54136	
422	0	55380	
423	0	56584	
424	0	57552	
425	0	58332	
426	0	58912	
427	0	59304	
428	0	58992	
429	0	57520	
430	0	55164	
431	0	52160	
432	0	48784	
433	0	45464	
434	0	42132	
435	0	38476	
436	0	34640	
437	0	31266	
438	0	28800	
439	0	27212	
440	0	26332	
441	0	25880	
442	0	25772	
443	0	25926	
444	0	26178	
445	0	26496	
446	0	26944	
447	0	27492	
448	0	28048	
449	0	28532	
450	0	29044	
451	0	29532	
452	0	29980	
453	0	30384	
454	0	30732	
455	0	30986	
456	0	31080	
457	0	31020	
458	0	30980	
459	0	30968	
460	0	30960	
461	0	30944	
462	0	30898	
463	0	30804	
464	0	30680	
465	0	30624	
466	0	30592	
467	0	30540	
468	0	30488	
469	0	30420	
470	0	30424	
471	0	30392	
472	0	30362	
473	0	30370	
474	0	30360	
475	0	30344	
476	0	30360	
477	0	30372	
478	0	30352	
479	0	30344	
480	0	30340	
481	0	30336	
482	0	30392	
483	0	30400	
484	0	30412	
485	0	30450	
486	0	30476	
487	0	30448	
488	0	30496	
489	0	30536	
490	0	30572	
491	0	30640	
492	0	30704	
493	0	30708	
494	0	30700	
495	0	30700	
496	0	30672	
497	0	30676	
498	0	30704	
499	0	30712	
500	0	30692	
501	0	30780	
502	0	30836	
503	0	30804	
504	0	30832	
505	0	30896	
506	0	30948	
507	0	30954	
508	0	30990	
509	0	31012	
510	0	31020	
511	0	31044	
512	0	31068	
513	0	31128	
514	0	31176	
515	0	31176	
516	0	31176	
517	0	31188	
518	0	31244	
519	0	31298	
520	0	31356	
521	0	31392	
522	0	31400	
523	0	31416	
524	0	31448	
525	0	31488	
526	0	31488	
527	0	31522	
528	0	31592	
529	0	31652	
530	0	31668	
531	0	31656	
532	0	31684	
533	0	31660	
534	0	31616	
535	0	31600	
536	0	31692	
537	0	31728	
538	0	31768	
539	0	31864	
540	0	31940	
541	0	31956	
542	0	31956	
543	0	31936	
544	0	31968	
545	0	32018	
546	0	32028	
547	0	31992	
548	0	32004	
549	0	32056	
550	0	32090	
551	0	32150	
552	0	32200	
553	0	32172	
554	0	32184	
555	0	32248	
556	0	32306	
557	0	32340	
558	0	32448	
559	0	32508	
560	0	32536	
561	0	32552	
562	0	32564	
563	0	32584	
564	0	32572	
565	0	32548	
566	0	32648	
567	0	32788	
568	0	32816	
569	0	32808	
570	0	32880	
571	0	32980	
572	0	32984	
573	0	32960	
574	0	32988	
575	0	33004	
576	0	32992	
577	0	32960	
578	0	33000	
579	0	33044	
580	0	33048	
581	0	33080	
582	0	33136	
583	0	33192	
584	0	33220	
585	0	33216	
586	0	33244	
587	0	33284	
588	0	33284	
589	0	33340	
590	0	33392	
591	0	33424	
592	0	33476	
593	0	33520	
594	0	33576	
595	0	33556	
596	0	33602	
597	0	33664	
598	0	33712	
599	0	33768	
600	0	33784	
601	0	33844	
602	0	33888	
603	0	33952	
604	0	34012	
605	0	34076	
606	0	34114	
607	0	34172	
608	0	34276	
609	0	34336	
610	0	34380	
611	0	34376	
612	0	34388	
613	0	34472	
614	0	34544	
615	0	34626	
616	0	34728	
617	0	34800	
618	0	34820	
619	0	34824	
620	0	34818	
621	0	34872	
622	0	34972	
623	0	35076	
624	0	35152	
625	0	35204	
626	0	35248	
627	0	35360	
628	0	35492	
629	0	35562	
630	0	35684	
631	0	35772	
632	0	35836	
633	0	35900	
634	0	35976	
635	0	36072	
636	0	36160	
637	0	36220	
638	0	36280	
639	0	36320	
640	0	36388	
641	0	36466	
642	0	36554	
643	0	36602	
644	0	36642	
645	0	36696	
646	0	36748	
647	0	36868	
648	0	36988	
649	0	37056	
650	0	37124	
651	0	37168	
652	0	37184	
653	0	37232	
654	0	37288	
655	0	37380	
656	0	37440	
657	0	37488	
658	0	37540	
659	0	37576	
660	0	37600	
661	0	37656	
662	0	37680	
663	0	37728	
664	0	37772	
665	0	37804	
666	0	37820	
667	0	37864	
668	0	37940	
669	0	37928	
670	0	37952	
671	0	37956	
672	0	37948	
673	0	37944	
674	0	37932	
675	0	37836	
676	0	37688	
677	0	37588	
678	0	37556	
679	0	37510	
680	0	37424	
681	0	37336	
682	0	37232	
683	0	37120	
684	0	36968	
685	0	36784	
686	0	36600	
687	0	36480	
688	0	36386	
689	0	36292	
690	0	36184	
691	0	36032	
692	0	35808	
693	0	35496	
694	0	35208	
695	0	34988	
696	0	34824	
697	0	34660	
698	0	34496	
699	0	34292	
700	0	34128	
701	0	33984	
702	0	33828	
703	0	33656	
704	0	33472	
705	0	33280	
706	0	33024	
707	0	32760	
708	0	32514	
709	0	32312	
710	0	32100	
711	0	31896	
712	0	31700	
713	0	31584	
714	0	31464	
715	0	31324	
716	0	31212	
717	0	31136	
718	0	31032	
719	0	30904	
720	0	30768	
721	0	30618	
722	0	30528	
723	0	30424	
724	0	30308	
725	0	30144	
726	0	29996	
727	0	29920	
728	0	29852	
729	0	29828	
730	0	29776	
731	0	29674	
732	0	29600	
733	0	29506	
734	0	29452	
735	0	29388	
736	0	29348	
737	0	29288	
738	0	29240	
739	0	29268	
740	0	29332	
741	0	29374	
742	0	29356	
743	0	29320	
744	0	29252	
745	0	29216	
746	0	29242	
747	0	29248	
748	0	29232	
749	0	29284	
750	0	29292	
751	0	29244	
752	0	29249	
753	0	29288	
754	0	29280	
755	0	29250	
756	0	29240	
757	0	29224	
758	0	29252	
759	0	29320	
760	0	29356	
761	0	29338	
762	0	29332	
763	0	29320	
764	0	29312	
765	0	29352	
766	0	29412	
767	0	29426	
768	0	29404	
769	0	29452	
770	0	29528	
771	0	29588	
772	0	29632	
773	0	29644	
774	0	29624	
775	0	29624	
776	0	29676	
777	0	29720	
778	0	29700	
779	0	29664	
780	0	29664	
781	0	29664	
782	0	29692	
783	0	29752	
784	0	29814	
785	0	29888	
786	0	29936	
787	0	29960	
788	0	29972	
789	0	29992	
790	0	30008	
791	0	29976	
792	0	29960	
793	0	29976	
794	0	30036	
795	0	30088	
796	0	30120	
797	0	30190	
798	0	30264	
799	0	30316	
800	0	30344	
801	0	30356	
802	0	30392	
803	0	30424	
804	0	30456	
805	0	30476	
806	0	30528	
807	0	30540	
808	0	30522	
809	0	30464	
810	0	30416	
811	0	30392	
812	0	30416	
813	0	30496	
814	0	30560	
815	0	30540	
816	0	30560	
817	0	30632	
818	0	30724	
819	0	30756	
820	0	30744	
821	0	30724	
822	0	30672	
823	0	30678	
824	0	30688	
825	0	30704	
826	0	30756	
827	0	30798	
828	0	30808	
829	0	30816	
830	0	30836	
831	0	30888	
832	0	30872	
833	0	30856	
834	0	30832	
835	0	30840	
836	0	30904	
837	0	30914	
838	0	30908	
839	0	30932	
840	0	30986	
841	0	31036	
842	0	31068	
843	0	31072	
844	0	31094	
845	0	31136	
846	0	31116	
847	0	31112	
848	0	31104	
849	0	31080	
850	0	31072	
851	0	31060	
852	0	31100	
853	0	31096	
854	0	31100	
855	0	31104	
856	0	31134	
857	0	31088	
858	0	31040	
859	0	31072	
860	0	31130	
861	0	31168	
862	0	31212	
863	0	31212	
864	0	31168	
865	0	31196	
866	0	31216	
867	0	31224	
868	0	31236	
869	0	31234	
870	0	31216	
871	0	31164	
872	0	31148	
873	0	31198	
874	0	31256	
875	0	31316	
876	0	31328	
877	0	31336	
878	0	31356	
879	0	31352	
880	0	31336	
881	0	31284	
882	0	31296	
883	0	31304	
884	0	31266	
885	0	31260	
886	0	31284	
887	0	31288	
888	0	31265	
889	0	31316	
890	0	31316	
891	0	31310	
892	0	31308	
893	0	31300	
894	0	31340	
895	0	31380	
896	0	31376	
897	0	31336	
898	0	31376	
899	0	31436	
900	0	31424	
901	0	31348	
902	0	31356	
903	0	31396	
904	0	31456	
905	0	31520	
906	0	31484	
907	0	31408	
908	0	31372	
909	0	31408	
910	0	31432	
911	0	31492	
912	0	31512	
913	0	31476	
914	0	31516	
915	0	31584	
916	0	31592	
917	0	31554	
918	0	31516	
919	0	31572	
920	0	31556	
921	0	31540	
922	0	31556	
923	0	31572	
924	0	31566	
925	0	31636	
926	0	31672	
927	0	31646	
928	0	31656	
929	0	31648	
930	0	31620	
931	0	31632	
932	0	31638	
933	0	31620	
934	0	31616	
935	0	31596	
936	0	31632	
937	0	31684	
938	0	31704	
939	0	31744	
940	0	31728	
941	0	31728	
942	0	31762	
943	0	31772	
944	0	31816	
945	0	31844	
946	0	31856	
947	0	31832	
948	0	31828	
949	0	31812	
950	0	31756	
951	0	31764	
952	0	31796	
953	0	31840	
954	0	31872	
955	0	31832	
956	0	31756	
957	0	31700	
958	0	31760	
959	0	31826	
960	0	31848	
961	0	31828	
962	0	31804	
963	0	31760	
964	0	31718	
965	0	31714	
966	0	31672	
967	0	31728	
968	0	31892	
969	0	32008	
970	0	32088	
971	0	32096	
972	0	32096	
973	0	32148	
974	0	32160	
975	0	32160	
976	0	32084	
977	0	32036	
978	0	32034	
979	0	32056	
980	0	32076	
981	0	32152	
982	0	32208	
983	0	32228	
984	0	32188	
985	0	32120	
986	0	32092	
987	0	32072	
988	0	32044	
989	0	32040	
990	0	32072	
991	0	32108	
992	0	32080	
993	0	32036	
994	0	32032	
995	0	32068	
996	0	32108	
997	0	32144	
998	0	32164	
999	0	32256	
1000	0	32302	
1001	0	32336	
1002	0	32452	
1003	0	32576	
1004	0	32644	
1005	0	32720	
1006	0	32864	
1007	0	33024	
1008	0	33136	
1009	0	33288	
1010	0	33482	
1011	0	33736	
1012	0	33948	
1013	0	34008	
1014	0	33992	
1015	0	33968	
1016	0	33986	
1017	0	34076	
1018	0	34128	
1019	0	34164	
1020	0	34224	
1021	0	34256	
1022	0	34268	
1023	0	34304	
1024	0	34324	
1025	0	34324	
1026	0	34316	
1027	0	34376	
1028	0	34492	
1029	0	34644	
1030	0	34808	
1031	0	34940	
1032	0	35040	
1033	0	35068	
1034	0	35072	
1035	0	35072	
1036	0	35052	
1037	0	34976	
1038	0	34912	
1039	0	34956	
1040	0	35072	
1041	0	35146	
1042	0	35236	
1043	0	35400	
1044	0	35524	
1045	0	35604	
1046	0	35544	
1047	0	35432	
1048	0	35292	
1049	0	35160	
1050	0	35008	
1051	0	34764	
1052	0	34516	
1053	0	34264	
1054	0	34016	
1055	0	33756	
1056	0	33616	
1057	0	33596	
1058	0	33520	
1059	0	33396	
1060	0	33360	
1061	0	33332	
1062	0	33300	
1063	0	33256	
1064	0	33176	
1065	0	33164	
1066	0	33202	
1067	0	33252	
1068	0	33260	
1069	0	33244	
1070	0	33164	
1071	0	33052	
1072	0	32950	
1073	0	32800	
1074	0	32696	
1075	0	32596	
1076	0	32504	
1077	0	32448	
1078	0	32328	
1079	0	32236	
1080	0	32170	
1081	0	32060	
1082	0	31900	
1083	0	31760	
1084	0	31628	
1085	0	31588	
1086	0	31508	
1087	0	31400	
1088	0	31340	
1089	0	31308	
1090	0	31248	
1091	0	31212	
1092	0	31156	
1093	0	31140	
1094	0	31160	
1095	0	31164	
1096	0	31176	
1097	0	31160	
1098	0	31202	
1099	0	31240	
1100	0	31280	
1101	0	31308	
1102	0	31346	
1103	0	31360	
1104	0	31328	
1105	0	31364	
1106	0	31436	
1107	0	31402	
1108	0	31372	
1109	0	31344	
1110	0	31314	
1111	0	31288	
1112	0	31284	
1113	0	31308	
1114	0	31364	
1115	0	31420	
1116	0	31464	
1117	0	31476	
1118	0	31460	
1119	0	31408	
1120	0	31392	
1121	0	31412	
1122	0	31428	
1123	0	31476	
1124	0	31504	
1125	0	31464	
1126	0	31422	
1127	0	31440	
1128	0	31420	
1129	0	31448	
1130	0	31444	
1131	0	31456	
1132	0	31448	
1133	0	31512	
1134	0	31592	
1135	0	31589	
1136	0	31572	
1137	0	31614	
1138	0	31660	
1139	0	31680	
1140	0	31736	
1141	0	31760	
1142	0	31760	
1143	0	31856	
1144	0	31900	
1145	0	31894	
1146	0	31896	
1147	0	31896	
1148	0	31908	
1149	0	31972	
1150	0	32048	
1151	0	32056	
1152	0	32008	
1153	0	31960	
1154	0	31952	
1155	0	31892	
1156	0	31796	
1157	0	31732	
1158	0	31616	
1159	0	31442	
1160	0	31324	
1161	0	31250	
1162	0	31204	
1163	0	31272	
1164	0	31340	
1165	0	31434	
1166	0	31648	
1167	0	32092	
1168	0	32636	
1169	0	33220	
1170	0	33892	
1171	0	34680	
1172	0	35558	
1173	0	36520	
1174	0	37664	
1175	0	39072	
1176	0	40566	
1177	0	41996	
1178	0	43444	
1179	0	44864	
1180	0	46288	
1181	0	47776	
1182	0	49356	
1183	0	50832	
1184	0	52152	
1185	0	53408	
1186	0	54688	
1187	0	55976	
1188	0	57136	
1189	0	58040	
1190	0	58604	
1191	0	58980	
1192	0	58976	
1193	0	58024	
1194	0	56056	
1195	0	53376	
1196	0	50100	
1197	0	46668	
1198	0	43376	
1199	0	39880	
1200	0	36084	
1201	0	32448	
1202	0	29582	
1203	0	27688	
1204	0	26588	
1205	0	26048	
1206	0	25864	
1207	0	25908	
1208	0	26106	
1209	0	26380	
1210	0	26752	
1211	0	27180	
1212	0	27700	
1213	0	28202	
1214	0	28712	
1215	0	29232	
1216	0	29692	
1217	0	30072	
1218	0	30496	
1219	0	30804	
1220	0	30946	
1221	0	30968	
1222	0	30960	
1223	0	30954	
1224	0	30920	
1225	0	30904	
1226	0	30920	
1227	0	30876	
1228	0	30788	
1229	0	30720	
1230	0	30688	
1231	0	30648	
1232	0	30544	
1233	0	30492	
1234	0	30488	
1235	0	30508	
1236	0	30496	
1237	0	30408	
1238	0	30352	
1239	0	30368	
1240	0	30420	
1241	0	30452	
1242	0	30496	
1243	0	30524	
1244	0	30512	
1245	0	30512	
1246	0	30522	
1247	0	30584	
1248	0	30586	
1249	0	30552	
1250	0	30546	
1251	0	30552	
1252	0	30540	
1253	0	30560	
1254	0	30616	
1255	0	30656	
1256	0	30656	
1257	0	30684	
1258	0	30668	
1259	0	30644	
1260	0	30676	
1261	0	30736	
1262	0	30828	
1263	0	30852	
1264	0	30842	
1265	0	30840	
1266	0	30868	
1267	0	30924	
1268	0	30946	
1269	0	30944	
1270	0	31000	
1271	0	31076	
1272	0	31120	
1273	0	31064	
1274	0	31068	
1275	0	31060	
1276	0	31136	
1277	0	31212	
1278	0	31192	
1279	0	31186	
1280	0	31240	
1281	0	31316	
1282	0	31400	
1283	0	31400	
1284	0	31368	
1285	0	31376	
1286	0	31460	
1287	0	31448	
1288	0	31404	
1289	0	31412	
1290	0	31472	
1291	0	31524	
1292	0	31504	
1293	0	31484	
1294	0	31452	
1295	0	31500	
1296	0	31608	
1297	0	31676	
1298	0	31728	
1299	0	31744	
1300	0	31750	
1301	0	31832	
1302	0	31906	
1303	0	31912	
1304	0	31888	
1305	0	31944	
1306	0	32044	
1307	0	32040	
1308	0	32020	
1309	0	32044	
1310	0	32064	
1311	0	32096	
1312	0	32152	
1313	0	32192	
1314	0	32168	
1315	0	32176	
1316	0	32172	
1317	0	32122	
1318	0	32148	
1319	0	32192	
1320	0	32260	
1321	0	32288	
1322	0	32320	
1323	0	32376	
1324	0	32368	
1325	0	32356	
1326	0	32360	
1327	0	32424	
1328	0	32520	
1329	0	32600	
1330	0	32648	
1331	0	32680	
1332	0	32692	
1333	0	32674	
1334	0	32718	
1335	0	32784	
1336	0	32800	
1337	0	32836	
1338	0	32840	
1339	0	32836	
1340	0	32890	
1341	0	32944	
1342	0	32944	
1343	0	32924	
1344	0	32968	
1345	0	33036	
1346	0	33088	
1347	0	33096	
1348	0	33120	
1349	0	33184	
1350	0	33284	
1351	0	33312	
1352	0	33312	
1353	0	33364	
1354	0	33416	
1355	0	33388	
1356	0	33396	
1357	0	33464	
1358	0	33514	
1359	0	33548	
1360	0	33584	
1361	0	33644	
1362	0	33696	
1363	0	33752	
1364	0	33760	
1365	0	33820	
1366	0	33794	
1367	0	33774	
1368	0	33792	
1369	0	33840	
1370	0	33916	
1371	0	33968	
1372	0	34028	
1373	0	34122	
1374	0	34220	
1375	0	34276	
1376	0	34304	
1377	0	34320	
1378	0	34390	
1379	0	34512	
1380	0	34608	
1381	0	34644	
1382	0	34672	
1383	0	34712	
1384	0	34808	
1385	0	34924	
1386	0	34988	
1387	0	34992	
1388	0	35012	
1389	0	35112	
1390	0	35168	
1391	0	35232	
1392	0	35296	
1393	0	35360	
1394	0	35438	
1395	0	35580	
1396	0	35712	
1397	0	35784	
1398	0	35820	
1399	0	35908	
1400	0	35980	
1401	0	36008	
1402	0	36096	
1403	0	36216	
1404	0	36324	
1405	0	36460	
1406	0	36554	
1407	0	36572	
1408	0	36632	
1409	0	36712	
1410	0	36784	
1411	0	36808	
1412	0	36840	
1413	0	36920	
1414	0	36976	
1415	0	37026	
1416	0	37064	
1417	0	37112	
1418	0	37188	
1419	0	37296	
1420	0	37364	
1421	0	37416	
1422	0	37476	
1423	0	37536	
1424	0	37556	
1425	0	37600	
1426	0	37664	
1427	0	37668	
1428	0	37684	
1429	0	37704	
1430	0	37720	
1431	0	37728	
1432	0	37728	
1433	0	37684	
1434	0	37704	
1435	0	37796	
1436	0	37856	
1437	0	37852	
1438	0	37840	
1439	0	37824	
1440	0	37760	
1441	0	37710	
1442	0	37664	
1443	0	37608	
1444	0	37504	
1445	0	37368	
1446	0	37272	
1447	0	37174	
1448	0	37104	
1449	0	37032	
1450	0	36871	
1451	0	36736	
1452	0	36556	
1453	0	36388	
1454	0	36232	
1455	0	36064	
1456	0	35888	
1457	0	35728	
1458	0	35524	
1459	0	35338	
1460	0	35160	
1461	0	34968	
1462	0	34752	
1463	0	34520	
1464	0	34304	
1465	0	34144	
1466	0	33956	
1467	0	33728	
1468	0	33516	
1469	0	33332	
1470	0	33176	
1471	0	32972	
1472	0	32712	
1473	0	32504	
1474	0	32324	
1475	0	32168	
1476	0	31986	
1477	0	31792	
1478	0	31644	
1479	0	31516	
1480	0	31356	
1481	0	31168	
1482	0	30972	
1483	0	30876	
1484	0	30796	
1485	0	30674	
1486	0	30544	
1487	0	30420	
1488	0	30320	
1489	0	30252	
1490	0	30144	
1491	0	30052	
1492	0	29924	
1493	0	29796	
1494	0	29722	
1495	0	29652	
1496	0	29604	
1497	0	29536	
1498	0	29428	
1499	0	29352	
1500	0	29270	
1501	0	29242	
1502	0	29228	
1503	0	29208	
1504	0	29214	
1505	0	29232	
1506	0	29216	
1507	0	29192	
1508	0	29176	
1509	0	29156	
1510	0	29136	
1511	0	29136	
1512	0	29122	
1513	0	29084	
1514	0	29086	
1515	0	29040	
1516	0	29076	
1517	0	29080	
1518	0	29090	
1519	0	29092	
1520	0	29118	
1521	0	29108	
1522	0	29108	
1523	0	29164	
1524	0	29208	
1525	0	29218	
1526	0	29224	
1527	0	29244	
1528	0	29256	
1529	0	29252	
1530	0	29216	
1531	0	29276	
1532	0	29344	
1533	0	29360	
1534	0	29376	
1535	0	29408	
1536	0	29444	
1537	0	29468	
1538	0	29480	
1539	0	29500	
1540	0	29546	
1541	0	29572	
1542	0	29544	
1543	0	29520	
1544	0	29624	
1545	0	29688	
1546	0	29704	
1547	0	29708	
1548	0	29680	
1549	0	29656	
1550	0	29680	
1551	0	29732	
1552	0	29744	
1553	0	29712	
1554	0	29788	
1555	0	29872	
1556	0	29886	
1557	0	29856	
1558	0	29860	
1559	0	29872	
1560	0	29856	
1561	0	29892	
1562	0	29973	
1563	0	30024	
1564	0	30064	
1565	0	30108	
1566	0	30168	
1567	0	30234	
1568	0	30208	
1569	0	30244	
1570	0	30202	
1571	0	30180	
1572	0	30200	
1573	0	30156	
1574	0	30148	
1575	0	30136	
1576	0	30208	
1577	0	30304	
1578	0	30340	
1579	0	30308	
1580	0	30340	
1581	0	30352	
1582	0	30370	
1583	0	30436	
1584	0	30432	
1585	0	30368	
1586	0	30388	
1587	0	30484	
1588	0	30552	
1589	0	30606	
1590	0	30624	
1591	0	30648	
1592	0	30650	
1593	0	30636	
1594	0	30688	
1595	0	30760	
1596	0	30784	
1597	0	30772	
1598	0	30740	
1599	0	30696	
1600	0	30676	
1601	0	30684	
1602	0	30684	
1603	0	30716	
1604	0	30800	
1605	0	30848	
1606	0	30862	
1607	0	30900	
1608	0	30928	
1609	0	30952	
1610	0	30932	
1611	0	30896	
1612	0	30884	
1613	0	30904	
1614	0	30948	
1615	0	30968	
1616	0	30980	
1617	0	30984	
1618	0	30976	
1619	0	30988	
1620	0	30968	
1621	0	30940	
1622	0	30916	
1623	0	30940	
1624	0	30948	
1625	0	30960	
1626	0	31024	
1627	0	31056	
1628	0	31064	
1629	0	31096	
1630	0	31104	
1631	0	31102	
1632	0	31076	
1633	0	31032	
1634	0	31002	
1635	0	30936	
1636	0	30906	
1637	0	30952	
1638	0	31018	
1639	0	31088	
1640	0	31124	
1641	0	31098	
1642	0	31104	
1643	0	31104	
1644	0	31124	
1645	0	31184	
1646	0	31228	
1647	0	31264	
1648	0	31276	
1649	0	31260	
1650	0	31252	
1651	0	31224	
1652	0	31180	
1653	0	31120	
1654	0	31104	
1655	0	31124	
1656	0	31140	
1657	0	31188	
1658	0	31228	
1659	0	31244	
1660	0	31210	
1661	0	31232	
1662	0	31218	
1663	0	31228	
1664	0	31264	
1665	0	31296	
1666	0	31296	
1667	0	31268	
1668	0	31320	
1669	0	31338	
1670	0	31328	
1671	0	31356	
1672	0	31336	
1673	0	31380	
1674	0	31408	
1675	0	31412	
1676	0	31428	
1677	0	31440	
1678	0	31452	
1679	0	31456	
1680	0	31464	
1681	0	31456	
1682	0	31450	
1683	0	31496	
1684	0	31524	
1685	0	31488	
1686	0	31456	
1687	0	31456	
1688	0	31468	
1689	0	31520	
1690	0	31512	
1691	0	31512	
1692	0	31508	
1693	0	31476	
1694	0	31480	
1695	0	31524	
1696	0	31592	
1697	0	31632	
1698	0	31632	
1699	0	31588	
1700	0	31556	
1701	0	31520	
1702	0	31520	
1703	0	31588	
1704	0	31616	
1705	0	31614	
1706	0	31628	
1707	0	31604	
1708	0	31620	
1709	0	31656	
1710	0	31648	
1711	0	31640	
1712	0	31608	
1713	0	31556	
1714	0	31534	
1715	0	31588	
1716	0	31638	
1717	0	31644	
1718	0	31660	
1719	0	31632	
1720	0	31648	
1721	0	31716	
1722	0	31764	
1723	0	31784	
1724	0	31752	
1725	0	31796	
1726	0	31820	
1727	0	31768	
1728	0	31704	
1729	0	31680	
1730	0	31710	
1731	0	31748	
1732	0	31776	
1733	0	31796	
1734	0	31832	
1735	0	31840	
1736	0	31852	
1737	0	31916	
1738	0	31918	
1739	0	31896	
1740	0	31880	
1741	0	31868	
1742	0	31852	
1743	0	31968	
1744	0	32116	
1745	0	32070	
1746	0	32028	
1747	0	32052	
1748	0	32044	
1749	0	32020	
1750	0	31992	
1751	0	31976	
1752	0	32030	
1753	0	32068	
1754	0	32092	
1755	0	32122	
1756	0	32116	
1757	0	32068	
1758	0	32036	
1759	0	32028	
1760	0	32056	
1761	0	32092	
1762	0	32096	
1763	0	32112	
1764	0	32088	
1765	0	32124	
1766	0	32200	
1767	0	32204	
1768	0	32160	
1769	0	32180	
1770	0	32244	
1771	0	32244	
1772	0	32276	
1773	0	32290	
1774	0	32272	
1775	0	32232	
1776	0	32160	
1777	0	32096	
1778	0	32116	
1779	0	32128	
1780	0	32144	
1781	0	32220	
1782	0	32340	
1783	0	32452	
1784	0	32524	
1785	0	32632	
1786	0	32736	
1787	0	32868	
1788	0	33048	
1789	0	33208	
1790	0	33312	
1791	0	33376	
1792	0	33496	
1793	0	33712	
1794	0	33912	
1795	0	33984	
1796	0	34024	
1797	0	34024	
1798	0	34024	
1799	0	33976	
1800	0	34004	
1801	0	34088	
1802	0	34108	
1803	0	34144	
1804	0	34220	
1805	0	34276	
1806	0	34324	
1807	0	34388	
1808	0	34468	
1809	0	34556	
1810	0	34632	
1811	0	34708	
1812	0	34800	
1813	0	34928	
1814	0	35040	
1815	0	35108	
1816	0	35144	
1817	0	35168	
1818	0	35180	
1819	0	35144	
1820	0	35112	
1821	0	35120	
1822	0	35168	
1823	0	35300	
1824	0	35428	
1825	0	35520	
1826	0	35640	
1827	0	35688	
1828	0	35648	
1829	0	35544	
1830	0	35356	
1831	0	35256	
1832	0	35124	
1833	0	34916	
1834	0	34688	
1835	0	34498	
1836	0	34292	
1837	0	34048	
1838	0	33868	
1839	0	33740	
1840	0	33672	
1841	0	33620	
1842	0	33552	
1843	0	33562	
1844	0	33488	
1845	0	33376	
1846	0	33356	
1847	0	33360	
1848	0	33348	
1849	0	33336	
1850	0	33300	
1851	0	33282	
1852	0	33236	
1853	0	33132	
1854	0	33024	
1855	0	32928	
1856	0	32865	
1857	0	32864	
1858	0	32824	
1859	0	32746	
1860	0	32592	
1861	0	32464	
1862	0	32340	
1863	0	32236	
1864	0	32132	
1865	0	32024	
1866	0	31884	
1867	0	31794	
1868	0	31708	
1869	0	31648	
1870	0	31552	
1871	0	31472	
1872	0	31432	
1873	0	31410	
1874	0	31428	
1875	0	31428	
1876	0	31426	
1877	0	31392	
1878	0	31416	
1879	0	31456	
1880	0	31436	
1881	0	31396	
1882	0	31420	
1883	0	31460	
1884	0	31516	
1885	0	31532	
1886	0	31536	
1887	0	31548	
1888	0	31568	
1889	0	31524	
1890	0	31480	
1891	0	31464	
1892	0	31440	
1893	0	31488	
1894	0	31522	
1895	0	31560	
1896	0	31608	
1897	0	31616	
1898	0	31632	
1899	0	31660	
1900	0	31628	
1901	0	31660	
1902	0	31650	
1903	0	31660	
1904	0	31692	
1905	0	31672	
1906	0	31636	
1907	0	31648	
1908	0	31692	
1909	0	31720	
1910	0	31788	
1911	0	31812	
1912	0	31756	
1913	0	31692	
1914	0	31750	
1915	0	31840	
1916	0	31888	
1917	0	31888	
1918	0	31888	
1919	0	31890	
1920	0	31900	
1921	0	31952	
1922	0	31976	
1923	0	31992	
1924	0	32024	
1925	0	32056	
1926	0	32096	
1927	0	32098	
1928	0	32160	
1929	0	32212	
1930	0	32268	
1931	0	32240	
1932	0	32248	
1933	0	32320	
1934	0	32320	
1935	0	32344	
1936	0	32332	
1937	0	32260	
1938	0	32156	
1939	0	32016	
1940	0	31920	
1941	0	31784	
1942	0	31546	
1943	0	31352	
1944	0	31258	
1945	0	31314	
1946	0	31460	
1947	0	31568	
1948	0	31732	
1949	0	32072	
1950	0	32528	
1951	0	33048	
1952	0	33640	
1953	0	34368	
1954	0	35240	
1955	0	36224	
1956	0	37304	
1957	0	38604	
1958	0	40068	
1959	0	41552	
1960	0	42980	
1961	0	44452	
1962	0	45876	
1963	0	47388	
1964	0	48980	
1965	0	50488	
1966	0	51864	
1967	0	53152	
1968	0	54424	
1969	0	55760	
1970	0	57032	
1971	0	58104	
1972	0	58922	
1973	0	59376	
1974	0	59556	
1975	0	59000	
1976	0	57368	
1977	0	54948	
1978	0	51904	
1979	0	48496	
1980	0	45156	
1981	0	41768	
1982	0	38108	
1983	0	34308	
1984	0	30992	
1985	0	28576	
1986	0	27088	
1987	0	26344	
1988	0	26112	
1989	0	26156	
1990	0	26280	
1991	0	26454	
1992	0	26740	
1993	0	27152	
1994	0	27704	
1995	0	28208	
1996	0	28744	
1997	0	29236	
1998	0	29684	
1999	0	30104	
2000	0	30512	
2001	0	30856	
2002	0	31100	
2003	0	31248	
2004	0	31308	
2005	0	31304	
2006	0	31266	
2007	0	31284	
2008	0	31248	
2009	0	31156	
2010	0	31040	
2011	0	30864	
2012	0	30776	
2013	0	30772	
2014	0	30780	
2015	0	30692	
2016	0	30628	
2017	0	30624	
2018	0	30662	
2019	0	30648	
2020	0	30658	
2021	0	30702	
2022	0	30722	
2023	0	30760	
2024	0	30796	
2025	0	30816	
2026	0	30792	
2027	0	30714	
2028	0	30652	
2029	0	30656	
2030	0	30716	
2031	0	30758	
2032	0	30778	
2033	0	30780	
2034	0	30812	
2035	0	30804	
2036	0	30784	
2037	0	30798	
2038	0	30834	
2039	0	30876	
2040	0	30880	
2041	0	30896	
2042	0	30944	
2043	0	30968	
2044	0	30996	
2045	0	30992	
2046	0	30980	
2047	0	31092	
2048	0	31200	
2049	0	31248	
2050	0	31248	
2051	0	31300	
2052	0	31308	
2053	0	31264	
2054	0	31294	
2055	0	31358	
2056	0	31400	
2057	0	31396	
2058	0	31416	
2059	0	31434	
2060	0	31456	
2061	0	31488	
2062	0	31492	
2063	0	31450	
2064	0	31516	
2065	0	31604	
2066	0	31640	
2067	0	31664	
2068	0	31700	
2069	0	31746	
2070	0	31744	
2071	0	31776	
2072	0	31876	
2073	0	31876	
2074	0	31828	
2075	0	31824	
2076	0	31880	
2077	0	31924	
2078	0	31888	
2079	0	31832	
2080	0	31832	
2081	0	31896	
2082	0	31988	
2083	0	32064	
2084	0	32036	
2085	0	32008	
2086	0	32076	
2087	0	32124	
2088	0	32116	
2089	0	32132	
2090	0	32208	
2091	0	32232	
2092	0	32216	
2093	0	32200	
2094	0	32220	
2095	0	32236	
2096	0	32288	
2097	0	32396	
2098	0	32500	
2099	0	32548	
2100	0	32556	
2101	0	32530	
2102	0	32520	
2103	0	32546	
2104	0	32660	
2105	0	32724	
2106	0	32786	
2107	0	32772	
2108	0	32740	
2109	0	32736	
2110	0	32748	
2111	0	32774	
2112	0	32780	
2113	0	32792	
2114	0	32844	
2115	0	32880	
2116	0	32856	
2117	0	32900	
2118	0	32960	
2119	0	32988	
2120	0	33028	
2121	0	33056	
2122	0	33096	
2123	0	33144	
2124	0	33120	
2125	0	33092	
2126	0	33108	
2127	0	33170	
2128	0	33240	
2129	0	33268	
2130	0	33296	
2131	0	33348	
2132	0	33400	
2133	0	33452	
2134	0	33528	
2135	0	33564	
2136	0	33588	
2137	0	33612	
2138	0	33604	
2139	0	33640	
2140	0	33720	
2141	0	33728	
2142	0	33818	
2143	0	33888	
2144	0	33956	
2145	0	33992	
2146	0	34000	
2147	0	34046	
2148	0	34092	
2149	0	34140	
2150	0	34184	
2151	0	34228	
2152	0	34328	
2153	0	34424	
2154	0	34428	
2155	0	34468	
2156	0	34496	
2157	0	34544	
2158	0	34548	
2159	0	34568	
2160	0	34644	
2161	0	34680	
2162	0	34684	
2163	0	34696	
2164	0	34700	
2165	0	34760	
2166	0	34868	
2167	0	34964	
2168	0	35068	
2169	0	35172	
2170	0	35230	
2171	0	35300	
2172	0	35425	
2173	0	35508	
2174	0	35568	
2175	0	35604	
2176	0	35742	
2177	0	35860	
2178	0	35920	
2179	0	35970	
2180	0	35992	
2181	0	36064	
2182	0	36164	
2183	0	36292	
2184	0	36360	
2185	0	36352	
2186	0	36412	
2187	0	36564	
2188	0	36652	
2189	0	36708	
2190	0	36744	
2191	0	36816	
2192	0	36860	
2193	0	36900	
2194	0	36974	
2195	0	37024	
2196	0	37108	
2197	0	37152	
2198	0	37224	
2199	0	37312	
2200	0	37412	
2201	0	37537	
2202	0	37624	
2203	0	37636	
2204	0	37666	
2205	0	37712	
2206	0	37772	
2207	0	37816	
2208	0	37840	
2209	0	37864	
2210	0	37936	
2211	0	38048	
2212	0	38084	
2213	0	38080	
2214	0	38160	
2215	0	38216	
2216	0	38240	
2217	0	38226	
2218	0	38196	
2219	0	38180	
2220	0	38144	
2221	0	38160	
2222	0	38088	
2223	0	37976	
2224	0	37932	
2225	0	37914	
2226	0	37828	
2227	0	37784	
2228	0	37728	
2229	0	37612	
2230	0	37488	
2231	0	37400	
2232	0	37288	
2233	0	37200	
2234	0	37128	
2235	0	36948	
2236	0	36740	
2237	0	36580	
2238	0	36432	
2239	0	36250	
2240	0	36020	
2241	0	35858	
2242	0	35696	
2243	0	35520	
2244	0	35300	
2245	0	35060	
2246	0	34840	
2247	0	34596	
2248	0	34392	
2249	0	34212	
2250	0	33994	
2251	0	33800	
2252	0	33600	
2253	0	33316	
2254	0	33128	
2255	0	32976	
2256	0	32794	
2257	0	32600	
2258	0	32420	
2259	0	32248	
2260	0	32068	
2261	0	31920	
2262	0	31776	
2263	0	31604	
2264	0	31464	
2265	0	31356	
2266	0	31252	
2267	0	31080	
2268	0	30976	
2269	0	30872	
2270	0	30812	
2271	0	30752	
2272	0	30608	
2273	0	30432	
2274	0	30308	
2275	0	30192	
2276	0	30092	
2277	0	29960	
2278	0	29880	
2279	0	29792	
2280	0	29674	
2281	0	29644	
2282	0	29628	
2283	0	29540	
2284	0	29496	
2285	0	29524	
2286	0	29448	
2287	0	29316	
2288	0	29248	
2289	0	29232	
2290	0	29204	
2291	0	29212	
2292	0	29156	
2293	0	29120	
2294	0	29144	
2295	0	29128	
2296	0	29098	
2297	0	29136	
2298	0	29140	
2299	0	29168	
2300	0	29160	
2301	0	29184	
2302	0	29236	
2303	0	29324	
2304	0	29388	
2305	0	29376	
2306	0	29360	
2307	0	29354	
2308	0	29380	
2309	0	29402	
2310	0	29432	
2311	0	29476	
2312	0	29428	
2313	0	29416	
2314	0	29420	
2315	0	29408	
2316	0	29436	
2317	0	29478	
2318	0	29516	
2319	0	29524	
2320	0	29568	
2321	0	29564	
2322	0	29616	
2323	0	29708	
2324	0	29724	
2325	0	29688	
2326	0	29764	
2327	0	29832	
2328	0	29792	
2329	0	29784	
2330	0	29744	
2331	0	29796	
2332	0	29864	
2333	0	29892	
2334	0	29890	
2335	0	29904	
2336	0	29916	
2337	0	29944	
2338	0	29944	
2339	0	29944	
2340	0	30028	
2341	0	30096	
2342	0	30040	
2343	0	30016	
2344	0	30042	
2345	0	30024	
2346	0	30044	
2347	0	30122	
2348	0	30180	
2349	0	30132	
2350	0	30184	
2351	0	30240	
2352	0	30228	
2353	0	30168	
2354	0	30180	
2355	0	30232	
2356	0	30304	
2357	0	30372	
2358	0	30416	
2359	0	30520	
2360	0	30600	
2361	0	30588	
2362	0	30538	
2363	0	30484	
2364	0	30472	
2365	0	30400	
2366	0	30320	
2367	0	30296	
2368	0	30304	
2369	0	30325	
2370	0	30368	
2371	0	30472	
2372	0	30560	
2373	0	30612	
2374	0	30668	
2375	0	30656	
2376	0	30676	
2377	0	30688	
2378	0	30640	
2379	0	30624	
2380	0	30680	
2381	0	30756	
2382	0	30824	
2383	0	30856	
2384	0	30824	
2385	0	30828	
2386	0	30832	
2387	0	30832	
2388	0	30814	
2389	0	30856	
2390	0	30864	
2391	0	30812	
2392	0	30830	
2393	0	30872	
2394	0	30944	
2395	0	30976	
2396	0	30892	
2397	0	30828	
2398	0	30812	
2399	0	30820	
2400	0	30820	
2401	0	30832	
2402	0	30904	
2403	0	30992	
2404	0	31060	
2405	0	31072	
2406	0	31056	
2407	0	31096	
2408	0	31184	
2409	0	31244	
2410	0	31236	
2411	0	31200	
2412	0	31148	
2413	0	31082	
2414	0	31008	
2415	0	31024	
2416	0	31080	
2417	0	31040	
2418	0	31040	
2419	0	31112	
2420	0	31184	
2421	0	31176	
2422	0	31156	
2423	0	31128	
2424	0	31080	
2425	0	31032	
2426	0	31040	
2427	0	31030	
2428	0	31008	
2429	0	31002	
2430	0	31012	
2431	0	31049	
2432	0	31022	
2433	0	30992	
2434	0	30976	
2435	0	30976	
2436	0	31048	
2437	0	31128	
2438	0	31168	
2439	0	31188	
2440	0	31188	
2441	0	31124	
2442	0	31136	
2443	0	31160	
2444	0	31192	
2445	0	31220	
2446	0	31200	
2447	0	31162	
2448	0	31136	
2449	0	31100	
2450	0	31028	
2451	0	31032	
2452	0	31052	
2453	0	31064	
2454	0	31076	
2455	0	31042	
2456	0	31076	
2457	0	31168	
2458	0	31216	
2459	0	31172	
2460	0	31168	
2461	0	31192	
2462	0	31184	
2463	0	31252	
2464	0	31260	
2465	0	31298	
2466	0	31364	
2467	0	31398	
2468	0	31392	
2469	0	31376	
2470	0	31376	
2471	0	31380	
2472	0	31382	
2473	0	31361	
2474	0	31296	
2475	0	31296	
2476	0	31348	
2477	0	31388	
2478	0	31380	
2479	0	31372	
2480	0	31424	
2481	0	31460	
2482	0	31504	
2483	0	31536	
2484	0	31528	
2485	0	31528	
2486	0	31532	
2487	0	31568	
2488	0	31576	
2489	0	31624	
2490	0	31628	
2491	0	31596	
2492	0	31584	
2493	0	31608	
2494	0	31716	
2495	0	31760	
2496	0	31696	
2497	0	31688	
2498	0	31706	
2499	0	31728	
2500	0	31740	
2501	0	31720	
2502	0	31700	
2503	0	31706	
2504	0	31672	
2505	0	31660	
2506	0	31692	
2507	0	31676	
2508	0	31628	
2509	0	31692	
2510	0	31684	
2511	0	31616	
2512	0	31576	
2513	0	31580	
2514	0	31604	
2515	0	31612	
2516	0	31622	
2517	0	31678	
2518	0	31656	
2519	0	31554	
2520	0	31556	
2521	0	31592	
2522	0	31708	
2523	0	31768	
2524	0	31736	
2525	0	31936	
2526	0	32192	
2527	0	32376	
2528	0	32536	
2529	0	32680	
2530	0	32796	
2531	0	32920	
2532	0	33036	
2533	0	33120	
2534	0	33244	
2535	0	33384	
2536	0	33476	
2537	0	33488	
2538	0	33416	
2539	0	33324	
2540	0	33276	
2541	0	33304	
2542	0	33404	
2543	0	33436	
2544	0	33468	
2545	0	33536	
2546	0	33608	
2547	0	33740	
2548	0	33896	
2549	0	34048	
2550	0	34192	
2551	0	34388	
2552	0	34532	
2553	0	34596	
2554	0	34680	
2555	0	34736	
2556	0	34712	
2557	0	34676	
2558	0	34636	
2559	0	34556	
2560	0	34576	
2561	0	34604	
2562	0	34714	
2563	0	34880	
2564	0	35120	
2565	0	35324	
2566	0	35376	
2567	0	35324	
2568	0	35180	
2569	0	34960	
2570	0	34812	
2571	0	34692	
2572	0	34508	
2573	0	34276	
2574	0	34138	
2575	0	33888	
2576	0	33696	
2577	0	33600	
2578	0	33594	
2579	0	33520	
2580	0	33472	
2581	0	33476	
2582	0	33476	
2583	0	33428	
2584	0	33344	
2585	0	33228	
2586	0	33168	
2587	0	33048	
2588	0	32932	
2589	0	32818	
2590	0	32800	
2591	0	32734	
2592	0	32556	
2593	0	32436	
2594	0	32432	
2595	0	32436	
2596	0	32404	
2597	0	32320	
2598	0	32208	
2599	0	32124	
2600	0	32004	
2601	0	31904	
2602	0	31856	
2603	0	31812	
2604	0	31736	
2605	0	31620	
2606	0	31464	
2607	0	31308	
2608	0	31252	
2609	0	31224	
2610	0	31108	
2611	0	30986	
2612	0	30986	
2613	0	30956	
2614	0	30916	
2615	0	30916	
2616	0	30932	
2617	0	31032	
2618	0	31132	
2619	0	31208	
2620	0	31176	
2621	0	31138	
2622	0	31144	
2623	0	31180	
2624	0	31184	
2625	0	31172	
2626	0	31162	
2627	0	31128	
2628	0	31144	
2629	0	31144	
2630	0	31104	
2631	0	31024	
2632	0	31060	
2633	0	31144	
2634	0	31168	
2635	0	31200	
2636	0	31224	
2637	0	31216	
2638	0	31180	
2639	0	31140	
2640	0	31132	
2641	0	31232	
2642	0	31346	
2643	0	31372	
2644	0	31444	
2645	0	31544	
2646	0	31576	
2647	0	31552	
2648	0	31516	
2649	0	31480	
2650	0	31524	
2651	0	31572	
2652	0	31518	
2653	0	31440	
2654	0	31528	
2655	0	31700	
2656	0	31752	
2657	0	31700	
2658	0	31644	
2659	0	31588	
2660	0	31512	
2661	0	31496	
2662	0	31608	
2663	0	31760	
2664	0	31800	
2665	0	31778	
2666	0	31740	
2667	0	31766	
2668	0	31792	
2669	0	31794	
2670	0	31784	
2671	0	31800	
2672	0	31844	
2673	0	31916	
2674	0	31928	
2675	0	31960	
2676	0	32004	
2677	0	31980	
2678	0	31936	
2679	0	31854	
2680	0	31800	
2681	0	31680	
2682	0	31540	
2683	0	31360	
2684	0	31204	
2685	0	31120	
2686	0	31108	
2687	0	31168	
2688	0	31224	
2689	0	31300	
2690	0	31472	
2691	0	31844	
2692	0	32420	
2693	0	33086	
2694	0	33736	
2695	0	34564	
2696	0	35592	
2697	0	36744	
2698	0	38080	
2699	0	39456	
2700	0	40864	
2701	0	42380	
2702	0	43912	
2703	0	45440	
2704	0	46956	
2705	0	48472	
2706	0	49992	
2707	0	51444	
2708	0	52776	
2709	0	54032	
2710	0	55320	
2711	0	56588	
2712	0	57764	
2713	0	58744	
2714	0	59376	
2715	0	59712	
2716	0	59352	
2717	0	57984	
2718	0	55856	
2719	0	53008	
2720	0	49688	
2721	0	46424	
2722	0	43076	
2723	0	39446	
2724	0	35652	
2725	0	32044	
2726	0	29080	
2727	0	27044	
2728	0	26052	
2729	0	25730	
2730	0	25672	
2731	0	25888	
2732	0	26124	
2733	0	26282	
2734	0	26484	
2735	0	26828	
2736	0	27202	
2737	0	27588	
2738	0	27932	
2739	0	28384	
2740	0	28800	
2741	0	29156	
2742	0	29536	
2743	0	29908	
2744	0	30240	
2745	0	30540	
2746	0	30788	
2747	0	30912	
2748	0	30916	
2749	0	30880	
2750	0	30856	
2751	0	30736	
2752	0	30656	
2753	0	30688	
2754	0	30604	
2755	0	30446	
2756	0	30428	
2757	0	30432	
2758	0	30452	
2759	0	30492	
2760	0	30456	
2761	0	30400	
2762	0	30480	
2763	0	30544	
2764	0	30488	
2765	0	30452	
2766	0	30492	
2767	0	30554	
2768	0	30560	
2769	0	30524	
2770	0	30496	
2771	0	30452	
2772	0	30436	
2773	0	30488	
2774	0	30572	
2775	0	30640	
2776	0	30724	
2777	0	30688	
2778	0	30712	
2779	0	30796	
2780	0	30880	
2781	0	30964	
2782	0	31016	
2783	0	31036	
2784	0	30972	
2785	0	30992	
2786	0	31080	
2787	0	31084	
2788	0	31012	
2789	0	30924	
2790	0	30948	
2791	0	31066	
2792	0	31144	
2793	0	31206	
2794	0	31216	
2795	0	31120	
2796	0	31080	
2797	0	31136	
2798	0	31250	
2799	0	31244	
2800	0	31232	
2801	0	31336	
2802	0	31464	
2803	0	31541	
2804	0	31544	
2805	0	31472	
2806	0	31404	
2807	0	31408	
2808	0	31480	
2809	0	31550	
2810	0	31584	
2811	0	31586	
2812	0	31604	
2813	0	31596	
2814	0	31688	
2815	0	31786	
2816	0	31808	
2817	0	31800	
2818	0	31824	
2819	0	31916	
2820	0	31936	
2821	0	31948	
2822	0	31944	
2823	0	31908	
2824	0	31844	
2825	0	31836	
2826	0	31788	
2827	0	31828	
2828	0	31926	
2829	0	32060	
2830	0	32128	
2831	0	32216	
2832	0	32272	
2833	0	32328	
2834	0	32364	
2835	0	32380	
2836	0	32404	
2837	0	32432	
2838	0	32472	
2839	0	32528	
2840	0	32556	
2841	0	32520	
2842	0	32500	
2843	0	32488	
2844	0	32472	
2845	0	32552	
2846	0	32616	
2847	0	32596	
2848	0	32576	
2849	0	32560	
2850	0	32580	
2851	0	32612	
2852	0	32624	
2853	0	32608	
2854	0	32612	
2855	0	32686	
2856	0	32760	
2857	0	32834	
2858	0	32920	
2859	0	33006	
2860	0	32988	
2861	0	32910	
2862	0	32944	
2863	0	32988	
2864	0	33036	
2865	0	33072	
2866	0	33128	
2867	0	33146	
2868	0	33236	
2869	0	33300	
2870	0	33280	
2871	0	33298	
2872	0	33320	
2873	0	33360	
2874	0	33424	
2875	0	33416	
2876	0	33424	
2877	0	33468	
2878	0	33518	
2879	0	33600	
2880	0	33612	
2881	0	33560	
2882	0	33540	
2883	0	33516	
2884	0	33600	
2885	0	33804	
2886	0	33888	
2887	0	33948	
2888	0	34008	
2889	0	34112	
2890	0	34252	
2891	0	34348	
2892	0	34380	
2893	0	34400	
2894	0	34456	
2895	0	34448	
2896	0	34418	
2897	0	34384	
2898	0	34440	
2899	0	34484	
2900	0	34528	
2901	0	34572	
2902	0	34700	
2903	0	34868	
2904	0	34976	
2905	0	35026	
2906	0	35092	
2907	0	35212	
2908	0	35356	
2909	0	35412	
2910	0	35380	
2911	0	35372	
2912	0	35336	
2913	0	35304	
2914	0	35396	
2915	0	35588	
2916	0	35656	
2917	0	35664	
2918	0	35764	
2919	0	35852	
2920	0	35864	
2921	0	35828	
2922	0	35896	
2923	0	36040	
2924	0	36156	
2925	0	36208	
2926	0	36212	
2927	0	36252	
2928	0	36268	
2929	0	36356	
2930	0	36460	
2931	0	36616	
2932	0	36768	
2933	0	36840	
2934	0	36832	
2935	0	36856	
2936	0	36996	
2937	0	37152	
2938	0	37284	
2939	0	37336	
2940	0	37380	
2941	0	37464	
2942	0	37492	
2943	0	37536	
2944	0	37616	
2945	0	37688	
2946	0	37824	
2947	0	37892	
2948	0	37980	
2949	0	38056	
2950	0	38072	
2951	0	38020	
2952	0	38008	
2953	0	38096	
2954	0	38208	
2955	0	38272	
2956	0	38284	
2957	0	38272	
2958	0	38208	
2959	0	38088	
2960	0	38060	
2961	0	38056	
2962	0	38104	
2963	0	38064	
2964	0	38000	
2965	0	37984	
2966	0	37908	
2967	0	37816	
2968	0	37728	
2969	0	37632	
2970	0	37492	
2971	0	37402	
2972	0	37288	
2973	0	37132	
2974	0	36932	
2975	0	36796	
2976	0	36704	
2977	0	36552	
2978	0	36286	
2979	0	36144	
2980	0	36052	
2981	0	35964	
2982	0	35896	
2983	0	35736	
2984	0	35586	
2985	0	35436	
2986	0	35252	
2987	0	35024	
2988	0	34792	
2989	0	34544	
2990	0	34332	
2991	0	34116	
2992	0	33924	
2993	0	33680	
2994	0	33376	
2995	0	33104	
2996	0	32852	
2997	0	32632	
2998	0	32490	
2999	0	32312	
3000	0	32130	
3001	0	31884	
3002	0	31736	
3003	0	31648	
3004	0	31548	
3005	0	31400	
3006	0	31248	
3007	0	31140	
3008	0	31008	
3009	0	30880	
3010	0	30752	
3011	0	30592	
3012	0	30478	
3013	0	30344	
3014	0	30208	
3015	0	30140	
3016	0	30028	
3017	0	29924	
3018	0	29800	
3019	0	29790	
3020	0	29738	
3021	0	29644	
3022	0	29544	
3023	0	29520	
3024	0	29380	
3025	0	29268	
3026	0	29184	
3027	0	29136	
3028	0	29124	
3029	0	29116	
3030	0	29060	
3031	0	28992	
3032	0	29008	
3033	0	29060	
3034	0	29080	
3035	0	29080	
3036	0	29028	
3037	0	29016	
3038	0	29040	
3039	0	29076	
3040	0	29096	
3041	0	29096	
3042	0	29084	
3043	0	29040	
3044	0	28958	
3045	0	28928	
3046	0	28952	
3047	0	28924	
3048	0	28992	
3049	0	29102	
3050	0	29176	
3051	0	29192	
3052	0	29198	
3053	0	29140	
3054	0	29116	
3055	0	29248	
3056	0	29310	
3057	0	29360	
3058	0	29424	
3059	0	29460	
3060	0	29528	
3061	0	29512	
3062	0	29488	
3063	0	29504	
3064	0	29480	
3065	0	29540	
3066	0	29644	
3067	0	29664	
3068	0	29680	
3069	0	29716	
3070	0	29752	
3071	0	29828	
3072	0	29876	
3073	0	29948	
3074	0	29960	
3075	0	29916	
3076	0	29944	
3077	0	29956	
3078	0	29960	
3079	0	30000	
3080	0	30036	
3081	0	30048	
3082	0	30052	
3083	0	30016	
3084	0	30004	
3085	0	30020	
3086	0	30120	
3087	0	30224	
3088	0	30196	
3089	0	30180	
3090	0	30224	
3091	0	30220	
3092	0	30244	
3093	0	30264	
3094	0	30224	
3095	0	30232	
3096	0	30304	
3097	0	30308	
3098	0	30336	
3099	0	30356	
3100	0	30340	
3101	0	30340	
3102	0	30324	
3103	0	30300	
3104	0	30324	
3105	0	30298	
3106	0	30324	
3107	0	30476	
3108	0	30572	
3109	0	30574	
3110	0	30512	
3111	0	30522	
3112	0	30528	
3113	0	30472	
3114	0	30516	
3115	0	30520	
3116	0	30448	
3117	0	30408	
3118	0	30432	
3119	0	30480	
3120	0	30564	
3121	0	30676	
3122	0	30748	
3123	0	30772	
3124	0	30808	
3125	0	30816	
3126	0	30808	
3127	0	30800	
3128	0	30872	
3129	0	30924	
3130	0	31004	
3131	0	31024	
3132	0	31000	
3133	0	31040	
3134	0	31156	
3135	0	31264	
3136	0	31240	
3137	0	31248	
3138	0	31248	
3139	0	31136	
3140	0	31056	
3141	0	31068	
3142	0	31104	
3143	0	31096	
3144	0	31102	
3145	0	31124	
3146	0	31152	
3147	0	31112	
3148	0	31108	
3149	0	31096	
3150	0	31072	
3151	0	31044	
3152	0	30992	
3153	0	30928	
3154	0	30952	
3155	0	30976	
3156	0	31004	
3157	0	31056	
3158	0	31088	
3159	0	31084	
3160	0	31034	
3161	0	31060	
3162	0	31040	
3163	0	31040	
3164	0	31016	
3165	0	30984	
3166	0	31022	
3167	0	31058	
3168	0	31044	
3169	0	31072	
3170	0	31120	
3171	0	31088	
3172	0	31124	
3173	0	31248	
3174	0	31336	
3175	0	31388	
3176	0	31404	
3177	0	31388	
3178	0	31276	
3179	0	31224	
3180	0	31272	
3181	0	31324	
3182	0	31272	
3183	0	31144	
3184	0	31116	
3185	0	31192	
3186	0	31240	
3187	0	31220	
3188	0	31196	
3189	0	31252	
3190	0	31340	
3191	0	31356	
3192	0	31308	
3193	0	31248	
3194	0	31230	
3195	0	31260	
3196	0	31280	
3197	0	31288	
3198	0	31336	
3199	0	31368	
3200	0	31396	
3201	0	31340	
3202	0	31296	
3203	0	31328	
3204	0	31386	
3205	0	31452	
3206	0	31504	
3207	0	31480	
3208	0	31492	
3209	0	31504	
3210	0	31496	
3211	0	31520	
3212	0	31548	
3213	0	31500	
3214	0	31432	
3215	0	31400	
3216	0	31388	
3217	0	31388	
3218	0	31456	
3219	0	31492	
3220	0	31488	
3221	0	31540	
3222	0	31566	
3223	0	31442	
3224	0	31440	
3225	0	31512	
3226	0	31600	
3227	0	31700	
3228	0	31764	
3229	0	31728	
3230	0	31712	
3231	0	31752	
3232	0	31692	
3233	0	31620	
3234	0	31640	
3235	0	31612	
3236	0	31584	
3237	0	31624	
3238	0	31652	
3239	0	31652	
3240	0	31648	
3241	0	31660	
3242	0	31696	
3243	0	31784	
3244	0	31876	
3245	0	31904	
3246	0	31888	
3247	0	31868	
3248	0	31844	
3249	0	31816	
3250	0	31916	
3251	0	32064	
3252	0	32188	
3253	0	32360	
3254	0	32546	
3255	0	32684	
3256	0	32836	
3257	0	32988	
3258	0	33128	
3259	0	33208	
3260	0	33244	
3261	0	33216	
3262	0	33204	
3263	0	33200	
3264	0	33260	
3265	0	33296	
3266	0	33360	
3267	0	33388	
3268	0	33400	
3269	0	33408	
3270	0	33424	
3271	0	33488	
3272	0	33652	
3273	0	33820	
3274	0	34034	
3275	0	34236	
3276	0	34428	
3277	0	34600	
3278	0	34682	
3279	0	34748	
3280	0	34760	
3281	0	34724	
3282	0	34644	
3283	0	34592	
3284	0	34582	
3285	0	34572	
3286	0	34612	
3287	0	34720	
3288	0	34824	
3289	0	34952	
3290	0	35040	
3291	0	35072	
3292	0	34992	
3293	0	34896	
3294	0	34880	
3295	0	34760	
3296	0	34504	
3297	0	34288	
3298	0	34088	
3299	0	33892	
3300	0	33700	
3301	0	33592	
3302	0	33500	
3303	0	33440	
3304	0	33460	
3305	0	33484	
3306	0	33450	
3307	0	33396	
3308	0	33360	
3309	0	33268	
3310	0	33192	
3311	0	33088	
3312	0	32994	
3313	0	32860	
3314	0	32744	
3315	0	32640	
3316	0	32552	
3317	0	32416	
3318	0	32316	
3319	0	32276	
3320	0	32292	
3321	0	32312	
3322	0	32272	
3323	0	32106	
3324	0	31964	
3325	0	31860	
3326	0	31792	
3327	0	31744	
3328	0	31668	
3329	0	31548	
3330	0	31464	
3331	0	31450	
3332	0	31372	
3333	0	31236	
3334	0	31208	
3335	0	31242	
3336	0	31208	
3337	0	31164	
3338	0	31176	
3339	0	31140	
3340	0	31062	
3341	0	31020	
3342	0	31016	
3343	0	30976	
3344	0	30936	
3345	0	30908	
3346	0	30886	
3347	0	30904	
3348	0	30930	
3349	0	31016	
3350	0	31008	
3351	0	30980	
3352	0	30960	
3353	0	30944	
3354	0	30944	
3355	0	30952	
3356	0	31000	
3357	0	31044	
3358	0	31084	
3359	0	31152	
3360	0	31200	
3361	0	31266	
3362	0	31304	
3363	0	31392	
3364	0	31412	
3365	0	31412	
3366	0	31396	
3367	0	31404	
3368	0	31424	
3369	0	31472	
3370	0	31512	
3371	0	31520	
3372	0	31504	
3373	0	31424	
3374	0	31340	
3375	0	31368	
3376	0	31400	
3377	0	31394	
3378	0	31424	
3379	0	31440	
3380	0	31384	
3381	0	31350	
3382	0	31384	
3383	0	31444	
3384	0	31476	
3385	0	31520	
3386	0	31564	
3387	0	31558	
3388	0	31524	
3389	0	31572	
3390	0	31566	
3391	0	31624	
3392	0	31732	
3393	0	31748	
3394	0	31716	
3395	0	31740	
3396	0	31852	
3397	0	31880	
3398	0	31848	
3399	0	31850	
3400	0	31856	
3401	0	31884	
3402	0	31908	
3403	0	31896	
3404	0	31884	
3405	0	31890	
3406	0	31856	
3407	0	31726	
3408	0	31580	
3409	0	31448	
3410	0	31296	
3411	0	31116	
3412	0	30960	
3413	0	30916	
3414	0	31008	
3415	0	31162	
3416	0	31328	
3417	0	31440	
3418	0	31748	
3419	0	32312	
3420	0	32928	
3421	0	33650	
3422	0	34522	
3423	0	35512	
3424	0	36632	
3425	0	37884	
3426	0	39280	
3427	0	40672	
3428	0	42100	
3429	0	43624	
3430	0	45200	
3431	0	46756	
3432	0	48312	
3433	0	49764	
3434	0	51144	
3435	0	52412	
3436	0	53576	
3437	0	54816	
3438	0	56048	
3439	0	57200	
3440	0	58272	
3441	0	59196	
3442	0	59744	
3443	0	59808	
3444	0	58908	
3445	0	57088	
3446	0	54560	
3447	0	51396	
3448	0	48088	
3449	0	44804	
3450	0	41372	
3451	0	37672	
3452	0	33904	
3453	0	30592	
3454	0	28016	
3455	0	26388	
3456	0	25560	
3457	0	25274	
3458	0	25348	
3459	0	25520	
3460	0	25648	
3461	0	25812	
3462	0	26128	
3463	0	26504	
3464	0	26940	
3465	0	27352	
3466	0	27732	
3467	0	28000	
3468	0	28320	
3469	0	28650	
3470	0	29016	
3471	0	29432	
3472	0	29852	
3473	0	30140	
3474	0	30388	
3475	0	30580	
3476	0	30632	
3477	0	30636	
3478	0	30608	
3479	0	30600	
3480	0	30652	
3481	0	30624	
3482	0	30608	
3483	0	30532	
3484	0	30528	
3485	0	30536	
3486	0	30508	
3487	0	30524	
3488	0	30528	
3489	0	30504	
3490	0	30424	
3491	0	30408	
3492	0	30448	
3493	0	30436	
3494	0	30392	
3495	0	30336	
3496	0	30432	
3497	0	30528	
3498	0	30604	
3499	0	30586	
3500	0	30560	
3501	0	30584	
3502	0	30632	
3503	0	30668	
3504	0	30676	
3505	0	30672	
3506	0	30692	
3507	0	30688	
3508	0	30752	
3509	0	30784	
3510	0	30796	
3511	0	30792	
3512	0	30752	
3513	0	30796	
3514	0	30878	
3515	0	30972	
3516	0	31002	
3517	0	31020	
3518	0	31018	
3519	0	31020	
3520	0	31076	
3521	0	31200	
3522	0	31272	
3523	0	31290	
3524	0	31316	
3525	0	31360	
3526	0	31396	
3527	0	31384	
3528	0	31400	
3529	0	31516	
3530	0	31598	
3531	0	31608	
3532	0	31508	
3533	0	31376	
3534	0	31376	
3535	0	31408	
3536	0	31408	
3537	0	31412	
3538	0	31392	
3539	0	31416	
3540	0	31436	
3541	0	31444	
3542	0	31476	
3543	0	31488	
3544	0	31504	
3545	0	31524	
3546	0	31600	
3547	0	31610	
3548	0	31644	
3549	0	31692	
3550	0	31764	
3551	0	31896	
3552	0	31972	
3553	0	31976	
3554	0	31968	
3555	0	32030	
3556	0	31988	
3557	0	31992	
3558	0	32016	
3559	0	32080	
3560	0	32104	
3561	0	32112	
3562	0	32156	
3563	0	32236	
3564	0	32270	
3565	0	32324	
3566	0	32384	
3567	0	32420	
3568	0	32448	
3569	0	32472	
3570	0	32472	
3571	0	32436	
3572	0	32436	
3573	0	32436	
3574	0	32440	
3575	0	32508	
3576	0	32576	
3577	0	32576	
3578	0	32568	
3579	0	32636	
3580	0	32708	
3581	0	32784	
3582	0	32818	
3583	0	32772	
3584	0	32775	
3585	0	32868	
3586	0	32922	
3587	0	32904	
3588	0	32884	
3589	0	32864	
3590	0	32912	
3591	0	32984	
3592	0	33064	
3593	0	33120	
3594	0	33200	
3595	0	33244	
3596	0	33260	
3597	0	33308	
3598	0	33316	
3599	0	33298	
3600	0	33304	
3601	0	33320	
3602	0	33328	
3603	0	33392	
3604	0	33452	
3605	0	33488	
3606	0	33552	
3607	0	33588	
3608	0	33664	
3609	0	33696	
3610	0	33652	
3611	0	33680	
3612	0	33748	
3613	0	33832	
3614	0	33888	
3615	0	33968	
3616	0	34034	
3617	0	34104	
3618	0	34140	
3619	0	34232	
3620	0	34280	
3621	0	34328	
3622	0	34344	
3623	0	34364	
3624	0	34368	
3625	0	34424	
3626	0	34520	
3627	0	34580	
3628	0	34600	
3629	0	34656	
3630	0	34724	
3631	0	34768	
3632	0	34842	
3633	0	34940	
3634	0	35040	
3635	0	35064	
3636	0	35108	
3637	0	35152	
3638	0	35212	
3639	0	35248	
3640	0	35356	
3641	0	35476	
3642	0	35602	
3643	0	35644	
3644	0	35664	
3645	0	35732	
3646	0	35832	
3647	0	35964	
3648	0	36104	
3649	0	36200	
3650	0	36256	
3651	0	36348	
3652	0	36408	
3653	0	36464	
3654	0	36540	
3655	0	36588	
3656	0	36664	
3657	0	36760	
3658	0	36888	
3659	0	36936	
3660	0	36984	
3661	0	37080	
3662	0	37168	
3663	0	37252	
3664	0	37292	
3665	0	37368	
3666	0	37456	
3667	0	37416	
3668	0	37440	
3669	0	37520	
3670	0	37580	
3671	0	37592	
3672	0	37644	
3673	0	37704	
3674	0	37736	
3675	0	37756	
3676	0	37784	
3677	0	37802	
3678	0	37832	
3679	0	37932	
3680	0	37996	
3681	0	38080	
3682	0	38088	
3683	0	38092	
3684	0	38104	
3685	0	38112	
3686	0	38128	
3687	0	38128	
3688	0	38116	
3689	0	38124	
3690	0	38132	
3691	0	38064	
3692	0	38028	
3693	0	37968	
3694	0	37892	
3695	0	37808	
3696	0	37720	
3697	0	37612	
3698	0	37508	
3699	0	37456	
3700	0	37328	
3701	0	37152	
3702	0	37056	
3703	0	36972	
3704	0	36870	
3705	0	36728	
3706	0	36560	
3707	0	36376	
3708	0	36168	
3709	0	35960	
3710	0	35800	
3711	0	35600	
3712	0	35340	
3713	0	35060	
3714	0	34824	
3715	0	34608	
3716	0	34444	
3717	0	34260	
3718	0	34016	
3719	0	33700	
3720	0	33468	
3721	0	33282	
3722	0	33044	
3723	0	32828	
3724	0	32664	
3725	0	32536	
3726	0	32356	
3727	0	32172	
3728	0	32044	
3729	0	31876	
3730	0	31688	
3731	0	31544	
3732	0	31404	
3733	0	31312	
3734	0	31202	
3735	0	31024	
3736	0	30892	
3737	0	30812	
3738	0	30748	
3739	0	30652	
3740	0	30564	
3741	0	30496	
3742	0	30400	
3743	0	30316	
3744	0	30180	
3745	0	30056	
3746	0	30026	
3747	0	30016	
3748	0	29860	
3749	0	29728	
3750	0	29640	
3751	0	29556	
3752	0	29528	
3753	0	29500	
3754	0	29456	
3755	0	29452	
3756	0	29436	
3757	0	29396	
3758	0	29376	
3759	0	29320	
3760	0	29284	
3761	0	29252	
3762	0	29224	
3763	0	29264	
3764	0	29276	
3765	0	29284	
3766	0	29274	
3767	0	29242	
3768	0	29208	
3769	0	29228	
3770	0	29276	
3771	0	29316	
3772	0	29308	
3773	0	29306	
3774	0	29256	
3775	0	29244	
3776	0	29280	
3777	0	29296	
3778	0	29380	
3779	0	29472	
3780	0	29500	
3781	0	29436	
3782	0	29436	
3783	0	29476	
3784	0	29504	
3785	0	29500	
3786	0	29540	
3787	0	29524	
3788	0	29490	
3789	0	29488	
3790	0	29588	
3791	0	29616	
3792	0	29636	
3793	0	29712	
3794	0	29744	
3795	0	29764	
3796	0	29808	
3797	0	29812	
3798	0	29802	
3799	0	29848	
3800	0	29848	
3801	0	29840	
3802	0	29808	
3803	0	29796	
3804	0	29888	
3805	0	29948	
3806	0	30020	
3807	0	30064	
3808	0	30092	
3809	0	30128	
3810	0	30128	
3811	0	30140	
3812	0	30140	
3813	0	30168	
3814	0	30248	
3815	0	30312	
3816	0	30356	
3817	0	30388	
3818	0	30376	
3819	0	30352	
3820	0	30408	
3821	0	30504	
3822	0	30552	
3823	0	30568	
3824	0	30548	
3825	0	30528	
3826	0	30548	
3827	0	30584	
3828	0	30604	
3829	0	30580	
3830	0	30572	
3831	0	30608	
3832	0	30620	
3833	0	30644	
3834	0	30624	
3835	0	30692	
3836	0	30734	
3837	0	30788	
3838	0	30760	
3839	0	30752	
3840	0	30752	
3841	0	30752	
3842	0	30728	
3843	0	30750	
3844	0	30754	
3845	0	30750	
3846	0	30776	
3847	0	30808	
3848	0	30820	
3849	0	30864	
3850	0	30876	
3851	0	30874	
3852	0	30876	
3853	0	30880	
3854	0	30848	
3855	0	30872	
3856	0	30916	
3857	0	30984	
3858	0	31028	
3859	0	30996	
3860	0	31008	
3861	0	31060	
3862	0	31064	
3863	0	31070	
3864	0	31088	
3865	0	31066	
3866	0	31072	
3867	0	31072	
3868	0	31100	
3869	0	31170	
3870	0	31194	
3871	0	31240	
3872	0	31340	
3873	0	31336	
3874	0	31324	
3875	0	31348	
3876	0	31312	
3877	0	31232	
3878	0	31200	
3879	0	31176	
3880	0	31156	
3881	0	31168	
3882	0	31212	
3883	0	31296	
3884	0	31342	
3885	0	31348	
3886	0	31358	
3887	0	31350	
3888	0	31328	
3889	0	31336	
3890	0	31362	
3891	0	31424	
3892	0	31556	
3893	0	31584	
3894	0	31576	
3895	0	31536	
3896	0	31548	
3897	0	31512	
3898	0	31460	
3899	0	31484	
3900	0	31548	
3901	0	31552	
3902	0	31548	
3903	0	31566	
3904	0	31576	
3905	0	31592	
3906	0	31568	
3907	0	31528	
3908	0	31492	
3909	0	31476	
3910	0	31496	
3911	0	31502	
3912	0	31508	
3913	0	31560	
3914	0	31572	
3915	0	31568	
3916	0	31520	
3917	0	31548	
3918	0	31532	
3919	0	31532	
3920	0	31604	
3921	0	31644	
3922	0	31648	
3923	0	31684	
3924	0	31760	
3925	0	31772	
3926	0	31708	
3927	0	31680	
3928	0	31664	
3929	0	31608	
3930	0	31636	
3931	0	31688	
3932	0	31716	
3933	0	31752	
3934	0	31750	
3935	0	31732	
3936	0	31744	
3937	0	31744	
3938	0	31698	
3939	0	31724	
3940	0	31748	
3941	0	31808	
3942	0	31832	
3943	0	31808	
3944	0	31772	
3945	0	31764	
3946	0	31768	
3947	0	31756	
3948	0	31724	
3949	0	31708	
3950	0	31796	
3951	0	31872	
3952	0	31872	
3953	0	31840	
3954	0	31808	
3955	0	31820	
3956	0	31756	
3957	0	31740	
3958	0	31822	
3959	0	31880	
3960	0	31892	
3961	0	31856	
3962	0	31872	
3963	0	31880	
3964	0	31888	
3965	0	31904	
3966	0	31888	
3967	0	31844	
3968	0	31860	
3969	0	31920	
3970	0	31988	
3971	0	32080	
3972	0	32120	
3973	0	32072	
3974	0	32080	
3975	0	32100	
3976	0	32040	
3977	0	31988	
3978	0	31976	
3979	0	31920	
3980	0	31952	
3981	0	32044	
3982	0	32040	
3983	0	32028	
3984	0	32058	
3985	0	32096	
3986	0	32104	
3987	0	32132	
3988	0	32180	
3989	0	32204	
3990	0	32172	
3991	0	32140	
3992	0	32117	
3993	0	32084	
3994	0	32108	
3995	0	32092	
3996	0	32092	
3997	0	32128	
3998	0	32197	
3999	0	32256	
4000	0	32256	
4001	0	32236	
4002	0	32204	
4003	0	32196	
4004	0	32252	
4005	0	32452	
4006	0	32624	
4007	0	32754	
4008	0	32968	
4009	0	33184	
4010	0	33336	
4011	0	33496	
4012	0	33640	
4013	0	33784	
4014	0	33870	
4015	0	33876	
4016	0	33836	
4017	0	33844	
4018	0	33928	
4019	0	33932	
4020	0	33968	
4021	0	34000	
4022	0	33984	
4023	0	33984	
4024	0	33968	
4025	0	34046	
4026	0	34200	
4027	0	34316	
4028	0	34464	
4029	0	34608	
4030	0	34712	
4031	0	34772	
4032	0	34808	
4033	0	34884	
4034	0	34952	
4035	0	34996	
4036	0	35028	
4037	0	34996	
4038	0	34956	
4039	0	34900	
4040	0	34972	
4041	0	35092	
4042	0	35132	
4043	0	35200	
4044	0	35328	
4045	0	35440	
4046	0	35460	
4047	0	35336	
4048	0	35184	
4049	0	35128	
4050	0	35044	
4051	0	34892	
4052	0	34680	
4053	0	34428	
4054	0	34224	
4055	0	34000	
4056	0	33808	
4057	0	33750	
4058	0	33754	
4059	0	33658	
4060	0	33528	
4061	0	33484	
4062	0	33448	
4063	0	33388	
4064	0	33316	
4065	0	33344	
4066	0	33448	
4067	0	33520	
4068	0	33540	
4069	0	33466	
4070	0	33400	
4071	0	33272	
4072	0	33216	
4073	0	33112	
4074	0	32974	
4075	0	32896	
4076	0	32776	
4077	0	32632	
4078	0	32520	
4079	0	32436	
4080	0	32324	
4081	0	32212	
4082	0	32080	
4083	0	31928	
4084	0	31824	
4085	0	31744	
4086	0	31656	
4087	0	31620	
4088	0	31502	
4089	0	31392	
4090	0	31334	
4091	0	31360	
4092	0	31376	
4093	0	31316	
4094	0	31284	
4095	0	31256	
4096	0	31284	
4097	0	31304	
4098	0	31344	
4099	0	31400	
4100	0	31456	
4101	0	31512	
4102	0	31504	
4103	0	31484	
4104	0	31457	
4105	0	31468	
4106	0	31488	
4107	0	31542	
4108	0	31552	
4109	0	31553	
4110	0	31572	
4111	0	31584	
4112	0	31624	
4113	0	31648	
4114	0	31672	
4115	0	31648	
4116	0	31598	
4117	0	31492	
4118	0	31516	
4119	0	31528	
4120	0	31552	
4121	0	31564	
4122	0	31564	
4123	0	31552	
4124	0	31492	
4125	0	31392	
4126	0	31364	
4127	0	31390	
4128	0	31384	
4129	0	31400	
4130	0	31464	
4131	0	31584	
4132	0	31602	
4133	0	31600	
4134	0	31596	
4135	0	31632	
4136	0	31636	
4137	0	31592	
4138	0	31624	
4139	0	31668	
4140	0	31708	
4141	0	31736	
4142	0	31768	
4143	0	31764	
4144	0	31816	
4145	0	31866	
4146	0	31868	
4147	0	31848	
4148	0	31832	
4149	0	31828	
4150	0	31904	
4151	0	31944	
4152	0	31988	
4153	0	32076	
4154	0	32160	
4155	0	32188	
4156	0	32172	
4157	0	32180	
4158	0	32082	
4159	0	31920	
4160	0	31824	
4161	0	31696	
4162	0	31488	
4163	0	31308	
4164	0	31228	
4165	0	31246	
4166	0	31342	
4167	0	31484	
4168	0	31648	
4169	0	31888	
4170	0	32360	
4171	0	32964	
4172	0	33604	
4173	0	34328	
4174	0	35196	
4175	0	36208	
4176	0	37344	
4177	0	38692	
4178	0	40140	
4179	0	41632	
4180	0	43056	
4181	0	44456	
4182	0	45924	
4183	0	47400	
4184	0	48868	
4185	0	50312	
4186	0	51696	
4187	0	52984	
4188	0	54144	
4189	0	55388	
4190	0	56628	
4191	0	57728	
4192	0	58592	
4193	0	59148	
4194	0	59416	
4195	0	59104	
4196	0	57744	
4197	0	55508	
4198	0	52552	
4199	0	49248	
4200	0	45944	
4201	0	42556	
4202	0	38940	
4203	0	35136	
4204	0	31528	
4205	0	28736	
4206	0	26916	
4207	0	26020	
4208	0	25644	
4209	0	25572	
4210	0	25752	
4211	0	25956	
4212	0	26190	
4213	0	26524	
4214	0	26940	
4215	0	27304	
4216	0	27712	
4217	0	28216	
4218	0	28706	
4219	0	29108	
4220	0	29512	
4221	0	29942	
4222	0	30308	
4223	0	30520	
4224	0	30718	
4225	0	30872	
4226	0	30968	
4227	0	30964	
4228	0	30976	
4229	0	30916	
4230	0	30872	
4231	0	30744	
4232	0	30596	
4233	0	30544	
4234	0	30528	
4235	0	30528	
4236	0	30516	
4237	0	30484	
4238	0	30484	
4239	0	30522	
4240	0	30544	
4241	0	30544	
4242	0	30484	
4243	0	30442	
4244	0	30522	
4245	0	30600	
4246	0	30612	
4247	0	30596	
4248	0	30556	
4249	0	30584	
4250	0	30648	
4251	0	30696	
4252	0	30712	
4253	0	30700	
4254	0	30720	
4255	0	30724	
4256	0	30744	
4257	0	30740	
4258	0	30776	
4259	0	30808	
4260	0	30796	
4261	0	30812	
4262	0	30824	
4263	0	30900	
4264	0	30936	
4265	0	30952	
4266	0	31036	
4267	0	31048	
4268	0	31016	
4269	0	30986	
4270	0	30936	
4271	0	30892	
4272	0	30986	
4273	0	31036	
4274	0	31080	
4275	0	31116	
4276	0	31130	
4277	0	31196	
4278	0	31288	
4279	0	31372	
4280	0	31392	
4281	0	31388	
4282	0	31432	
4283	0	31496	
4284	0	31556	
4285	0	31680	
4286	0	31760	
4287	0	31784	
4288	0	31794	
4289	0	31816	
4290	0	31896	
4291	0	31908	
4292	0	31880	
4293	0	31820	
4294	0	31756	
4295	0	31776	
4296	0	31776	
4297	0	31744	
4298	0	31732	
4299	0	31768	
4300	0	31836	
4301	0	31904	
4302	0	31968	
4303	0	32052	
4304	0	32058	
4305	0	32028	
4306	0	32024	
4307	0	32012	
4308	0	32004	
4309	0	32048	
4310	0	32136	
4311	0	32108	
4312	0	32104	
4313	0	32208	
4314	0	32308	
4315	0	32352	
4316	0	32364	
4317	0	32352	
4318	0	32312	
4319	0	32272	
4320	0	32256	
4321	0	32304	
4322	0	32376	
4323	0	32492	
4324	0	32540	
4325	0	32540	
4326	0	32592	
4327	0	32668	
4328	0	32692	
4329	0	32684	
4330	0	32660	
4331	0	32656	
4332	0	32664	
4333	0	32704	
4334	0	32736	
4335	0	32764	
4336	0	32832	
4337	0	32834	
4338	0	32824	
4339	0	32792	
4340	0	32800	
4341	0	32908	
4342	0	33004	
4343	0	33044	
4344	0	33080	
4345	0	33100	
4346	0	33152	
4347	0	33224	
4348	0	33304	
4349	0	33312	
4350	0	33300	
4351	0	33300	
4352	0	33324	
4353	0	33380	
4354	0	33428	
4355	0	33504	
4356	0	33516	
4357	0	33488	
4358	0	33448	
4359	0	33384	
4360	0	33466	
4361	0	33568	
4362	0	33684	
4363	0	33728	
4364	0	33744	
4365	0	33796	
4366	0	33848	
4367	0	33872	
4368	0	33972	
4369	0	34084	
4370	0	34144	
4371	0	34156	
4372	0	34128	
4373	0	34112	
4374	0	34188	
4375	0	34264	
4376	0	34340	
4377	0	34420	
4378	0	34496	
4379	0	34542	
4380	0	34592	
4381	0	34656	
4382	0	34740	
4383	0	34826	
4384	0	34880	
4385	0	34936	
4386	0	34976	
4387	0	35000	
4388	0	35044	
4389	0	35160	
4390	0	35288	
4391	0	35296	
4392	0	35358	
4393	0	35520	
4394	0	35604	
4395	0	35648	
4396	0	35732	
4397	0	35828	
4398	0	35888	
4399	0	35924	
4400	0	35988	
4401	0	36064	
4402	0	36132	
4403	0	36224	
4404	0	36292	
4405	0	36376	
4406	0	36440	
4407	0	36508	
4408	0	36572	
4409	0	36664	
4410	0	36756	
4411	0	36832	
4412	0	36904	
4413	0	36960	
4414	0	37028	
4415	0	37108	
4416	0	37200	
4417	0	37276	
4418	0	37364	
4419	0	37412	
4420	0	37500	
4421	0	37552	
4422	0	37616	
4423	0	37624	
4424	0	37628	
4425	0	37664	
4426	0	37704	
4427	0	37764	
4428	0	37880	
4429	0	37936	
4430	0	37988	
4431	0	37988	
4432	0	37992	
4433	0	38020	
4434	0	38056	
4435	0	38108	
4436	0	38188	
4437	0	38192	
4438	0	38176	
4439	0	38172	
4440	0	38112	
4441	0	38022	
4442	0	37982	
4443	0	37940	
4444	0	37868	
4445	0	37848	
4446	0	37832	
4447	0	37792	
4448	0	37704	
4449	0	37592	
4450	0	37468	
4451	0	37320	
4452	0	37164	
4453	0	37000	
4454	0	36896	
4455	0	36796	
4456	0	36668	
4457	0	36504	
4458	0	36280	
4459	0	36036	
4460	0	35840	
4461	0	35696	
4462	0	35552	
4463	0	35376	
4464	0	35172	
4465	0	34944	
4466	0	34668	
4467	0	34460	
4468	0	34272	
4469	0	34052	
4470	0	33816	
4471	0	33584	
4472	0	33404	
4473	0	33232	
4474	0	33092	
4475	0	32962	
4476	0	32720	
4477	0	32476	
4478	0	32236	
4479	0	32040	
4480	0	31872	
4481	0	31732	
4482	0	31592	
4483	0	31444	
4484	0	31324	
4485	0	31220	
4486	0	31092	
4487	0	30924	
4488	0	30724	
4489	0	30636	
4490	0	30604	
4491	0	30516	
4492	0	30392	
4493	0	30252	
4494	0	30120	
4495	0	30056	
4496	0	29986	
4497	0	29866	
4498	0	29772	
4499	0	29680	
4500	0	29628	
4501	0	29576	
4502	0	29524	
4503	0	29420	
4504	0	29364	
4505	0	29336	
4506	0	29320	
4507	0	29292	
4508	0	29288	
4509	0	29252	
4510	0	29276	
4511	0	29244	
4512	0	29200	
4513	0	29272	
4514	0	29336	
4515	0	29280	
4516	0	29216	
4517	0	29208	
4518	0	29244	
4519	0	29280	
4520	0	29240	
4521	0	29208	
4522	0	29276	
4523	0	29292	
4524	0	29316	
4525	0	29324	
4526	0	29276	
4527	0	29312	
4528	0	29396	
4529	0	29432	
4530	0	29468	
4531	0	29496	
4532	0	29520	
4533	0	29474	
4534	0	29416	
4535	0	29460	
4536	0	29538	
4537	0	29572	
4538	0	29536	
4539	0	29532	
4540	0	29632	
4541	0	29676	
4542	0	29712	
4543	0	29732	
4544	0	29764	
4545	0	29748	
4546	0	29776	
4547	0	29824	
4548	0	29808	
4549	0	29800	
4550	0	29784	
4551	0	29812	
4552	0	29792	
4553	0	29808	
4554	0	29844	
4555	0	29868	
4556	0	29908	
4557	0	29984	
4558	0	30024	
4559	0	30026	
4560	0	30028	
4561	0	30072	
4562	0	30060	
4563	0	30040	
4564	0	30092	
4565	0	30152	
4566	0	30220	
4567	0	30210	
4568	0	30248	
4569	0	30316	
4570	0	30336	
4571	0	30340	
4572	0	30344	
4573	0	30424	
4574	0	30476	
4575	0	30514	
4576	0	30592	
4577	0	30640	
4578	0	30656	
4579	0	30648	
4580	0	30620	
4581	0	30600	
4582	0	30600	
4583	0	30600	
4584	0	30634	
4585	0	30660	
4586	0	30680	
4587	0	30704	
4588	0	30680	
4589	0	30636	
4590	0	30624	
4591	0	30696	
4592	0	30786	
4593	0	30820	
4594	0	30860	
4595	0	30900	
4596	0	30908	
4597	0	30848	
4598	0	30908	
4599	0	30964	
4600	0	30912	
4601	0	30932	
4602	0	30954	
4603	0	30952	
4604	0	30978	
4605	0	30984	
4606	0	30976	
4607	0	30984	
4608	0	30988	
4609	0	30988	
4610	0	31032	
4611	0	31080	
4612	0	31108	
4613	0	31124	
4614	0	31100	
4615	0	31064	
4616	0	31116	
4617	0	31172	
4618	0	31152	
4619	0	31154	
4620	0	31156	
4621	0	31168	
4622	0	31176	
4623	0	31208	
4624	0	31250	
4625	0	31272	
4626	0	31324	
4627	0	31352	
4628	0	31360	
4629	0	31328	
4630	0	31328	
4631	0	31312	
4632	0	31296	
4633	0	31304	
4634	0	31328	
4635	0	31336	
4636	0	31304	
4637	0	31328	
4638	0	31380	
4639	0	31408	
4640	0	31416	
4641	0	31436	
4642	0	31418	
4643	0	31422	
4644	0	31446	
4645	0	31500	
4646	0	31468	
4647	0	31456	
4648	0	31460	
4649	0	31432	
4650	0	31456	
4651	0	31508	
4652	0	31496	
4653	0	31476	
4654	0	31460	
4655	0	31440	
4656	0	31418	
4657	0	31432	
4658	0	31438	
4659	0	31480	
4660	0	31542	
4661	0	31532	
4662	0	31524	
4663	0	31568	
4664	0	31552	
4665	0	31536	
4666	0	31576	
4667	0	31576	
4668	0	31600	
4669	0	31608	
4670	0	31576	
4671	0	31572	
4672	0	31608	
4673	0	31644	
4674	0	31712	
4675	0	31712	
4676	0	31668	
4677	0	31628	
4678	0	31588	
4679	0	31568	
4680	0	31568	
4681	0	31576	
4682	0	31624	
4683	0	31676	
4684	0	31684	
4685	0	31708	
4686	0	31744	
4687	0	31762	
4688	0	31800	
4689	0	31836	
4690	0	31848	
4691	0	31836	
4692	0	31820	
4693	0	31832	
4694	0	31816	
4695	0	31848	
4696	0	31836	
4697	0	31836	
4698	0	31848	
4699	0	31876	
4700	0	31840	
4701	0	31820	
4702	0	31876	
4703	0	31904	
4704	0	31872	
4705	0	31812	
4706	0	31832	
4707	0	31852	
4708	0	31864	
4709	0	31832	
4710	0	31784	
4711	0	31816	
4712	0	31864	
4713	0	31936	
4714	0	32002	
4715	0	31982	
4716	0	31960	
4717	0	31876	
4718	0	31816	
4719	0	31812	
4720	0	31896	
4721	0	31924	
4722	0	31892	
4723	0	31936	
4724	0	31992	
4725	0	32024	
4726	0	31984	
4727	0	31948	
4728	0	31992	
4729	0	32042	
4730	0	31972	
4731	0	31880	
4732	0	31936	
4733	0	32012	
4734	0	32080	
4735	0	32104	
4736	0	32136	
4737	0	32176	
4738	0	32160	
4739	0	32128	
4740	0	32152	
4741	0	32188	
4742	0	32208	
4743	0	32224	
4744	0	32196	
4745	0	32136	
4746	0	32124	
4747	0	32136	
4748	0	32148	
4749	0	32168	
4750	0	32208	
4751	0	32256	
4752	0	32288	
4753	0	32288	
4754	0	32296	
4755	0	32304	
4756	0	32252	
4757	0	32204	
4758	0	32216	
4759	0	32232	
4760	0	32264	
4761	0	32276	
4762	0	32284	
4763	0	32288	
4764	0	32304	
4765	0	32276	
4766	0	32252	
4767	0	32212	
4768	0	32212	
4769	0	32212	
4770	0	32232	
4771	0	32226	
4772	0	32288	
4773	0	32360	
4774	0	32424	
4775	0	32480	
4776	0	32472	
4777	0	32440	
4778	0	32432	
4779	0	32416	
4780	0	32432	
4781	0	32444	
4782	0	32432	
4783	0	32468	
4784	0	32492	
4785	0	32484	
4786	0	32496	
4787	0	32544	
4788	0	32588	
4789	0	32640	
4790	0	32700	
4791	0	32816	
4792	0	32954	
4793	0	33134	
4794	0	33278	
4795	0	33356	
4796	0	33468	
4797	0	33644	
4798	0	33884	
4799	0	34088	
4800	0	34208	
4801	0	34264	
4802	0	34244	
4803	0	34220	
4804	0	34208	
4805	0	34212	
4806	0	34256	
4807	0	34388	
4808	0	34432	
4809	0	34440	
4810	0	34448	
4811	0	34480	
4812	0	34548	
4813	0	34592	
4814	0	34664	
4815	0	34748	
4816	0	34804	
4817	0	34872	
4818	0	34952	
4819	0	35064	
4820	0	35152	
4821	0	35238	
4822	0	35280	
4823	0	35256	
4824	0	35236	
4825	0	35216	
4826	0	35240	
4827	0	35306	
4828	0	35372	
4829	0	35473	
4830	0	35628	
4831	0	35772	
4832	0	35846	
4833	0	35786	
4834	0	35608	
4835	0	35384	
4836	0	35212	
4837	0	35056	
4838	0	34842	
4839	0	34540	
4840	0	34368	
4841	0	34288	
4842	0	34148	
4843	0	34028	
4844	0	33882	
4845	0	33796	
4846	0	33660	
4847	0	33536	
4848	0	33420	
4849	0	33416	
4850	0	33348	
4851	0	33312	
4852	0	33340	
4853	0	33380	
4854	0	33384	
4855	0	33332	
4856	0	33228	
4857	0	33152	
4858	0	33048	
4859	0	32968	
4860	0	32912	
4861	0	32876	
4862	0	32832	
4863	0	32756	
4864	0	32594	
4865	0	32544	
4866	0	32512	
4867	0	32480	
4868	0	32432	
4869	0	32360	
4870	0	32276	
4871	0	32104	
4872	0	31904	
4873	0	31706	
4874	0	31520	
4875	0	31436	
4876	0	31412	
4877	0	31432	
4878	0	31436	
4879	0	31408	
4880	0	31416	
4881	0	31456	
4882	0	31436	
4883	0	31416	
4884	0	31430	
4885	0	31396	
4886	0	31444	
4887	0	31464	
4888	0	31456	
4889	0	31476	
4890	0	31476	
4891	0	31460	
4892	0	31322	
4893	0	31266	
4894	0	31414	
4895	0	31532	
4896	0	31512	
4897	0	31460	
4898	0	31436	
4899	0	31472	
4900	0	31520	
4901	0	31546	
4902	0	31554	
4903	0	31580	
4904	0	31624	
4905	0	31680	
4906	0	31696	
4907	0	31724	
4908	0	31760	
4909	0	31764	
4910	0	31716	
4911	0	31740	
4912	0	31792	
4913	0	31796	
4914	0	31788	
4915	0	31736	
4916	0	31700	
4917	0	31692	
4918	0	31696	
4919	0	31664	
4920	0	31656	
4921	0	31718	
4922	0	31774	
4923	0	31808	
4924	0	31792	
4925	0	31788	
4926	0	31808	
4927	0	31876	
4928	0	31946	
4929	0	31960	
4930	0	31912	
4931	0	31864	
4932	0	31864	
4933	0	31918	
4934	0	32044	
4935	0	32140	
4936	0	32148	
4937	0	32120	
4938	0	32084	
4939	0	32108	
4940	0	32160	
4941	0	32132	
4942	0	32116	
4943	0	32092	
4944	0	32040	
4945	0	31964	
4946	0	31920	
4947	0	31820	
4948	0	31672	
4949	0	31540	
4950	0	31440	
4951	0	31408	
4952	0	31452	
4953	0	31529	
4954	0	31656	
4955	0	31980	
4956	0	32492	
4957	0	33052	
4958	0	33664	
4959	0	34384	
4960	0	35252	
4961	0	36204	
4962	0	37228	
4963	0	38456	
4964	0	39924	
4965	0	41444	
4966	0	42808	
4967	0	44240	
4968	0	45632	
4969	0	47056	
4970	0	48524	
4971	0	49996	
4972	0	51360	
4973	0	52656	
4974	0	53900	
4975	0	55200	
4976	0	56484	
4977	0	57536	
4978	0	58336	
4979	0	58848	
4980	0	59164	
4981	0	59000	
4982	0	57716	
4983	0	55552	
4984	0	52816	
4985	0	49636	
4986	0	46400	
4987	0	43072	
4988	0	39544	
4989	0	35716	
4990	0	32032	
4991	0	29204	
4992	0	27360	
4993	0	26364	
4994	0	25882	
4995	0	25732	
4996	0	25840	
4997	0	26036	
4998	0	26296	
4999	0	26608	
5000	0	27048	
5001	0	27544	
5002	0	28016	
5003	0	28480	
5004	0	28948	
5005	0	29368	
5006	0	29776	
5007	0	30200	
5008	0	30616	
5009	0	30864	
5010	0	30984	
5011	0	31016	
5012	0	31048	
5013	0	31032	
5014	0	30946	
5015	0	30900	
5016	0	30852	
5017	0	30788	
5018	0	30752	
5019	0	30704	
5020	0	30688	
5021	0	30660	
5022	0	30608	
5023	0	30544	
5024	0	30512	
5025	0	30524	
5026	0	30600	
5027	0	30620	
5028	0	30616	
5029	0	30668	
5030	0	30656	
5031	0	30616	
5032	0	30616	
5033	0	30604	
5034	0	30564	
5035	0	30544	
5036	0	30572	
5037	0	30604	
5038	0	30656	
5039	0	30680	
5040	0	30688	
5041	0	30728	
5042	0	30770	
5043	0	30836	
5044	0	30868	
5045	0	30900	
5046	0	30916	
5047	0	30924	
5048	0	30896	
5049	0	30876	
5050	0	30924	
5051	0	30948	
5052	0	30972	
5053	0	31012	
5054	0	31020	
5055	0	31040	
5056	0	31088	
5057	0	31144	
5058	0	31176	
5059	0	31192	
5060	0	31172	
5061	0	31136	
5062	0	31212	
5063	0	31250	
5064	0	31244	
5065	0	31238	
5066	0	31252	
5067	0	31324	
5068	0	31432	
5069	0	31528	
5070	0	31556	
5071	0	31540	
5072	0	31528	
5073	0	31500	
5074	0	31512	
5075	0	31552	
5076	0	31552	
5077	0	31524	
5078	0	31508	
5079	0	31560	
5080	0	31640	
5081	0	31744	
5082	0	31836	
5083	0	31864	
5084	0	31864	
5085	0	31904	
5086	0	31904	
5087	0	31920	
5088	0	31980	
5089	0	32008	
5090	0	32032	
5091	0	32036	
5092	0	32016	
5093	0	32084	
5094	0	32144	
5095	0	32136	
5096	0	32112	
5097	0	32120	
5098	0	32124	
5099	0	32138	
5100	0	32156	
5101	0	32196	
5102	0	32216	
5103	0	32188	
5104	0	32192	
5105	0	32192	
5106	0	32232	
5107	0	32288	
5108	0	32410	
5109	0	32520	
5110	0	32612	
5111	0	32644	
5112	0	32628	
5113	0	32580	
5114	0	32572	
5115	0	32592	
5116	0	32646	
5117	0	32716	
5118	0	32740	
5119	0	32808	
5120	0	32836	
5121	0	32832	
5122	0	32858	
5123	0	32868	
5124	0	32900	
5125	0	32908	
5126	0	32974	
5127	0	33008	
5128	0	33004	
5129	0	33004	
5130	0	33056	
5131	0	33072	
5132	0	33086	
5133	0	33112	
5134	0	33164	
5135	0	33224	
5136	0	33296	
5137	0	33388	
5138	0	33442	
5139	0	33408	
5140	0	33400	
5141	0	33474	
5142	0	33524	
5143	0	33552	
5144	0	33556	
5145	0	33548	
5146	0	33622	
5147	0	33712	
5148	0	33736	
5149	0	33728	
5150	0	33776	
5151	0	33824	
5152	0	33856	
5153	0	33900	
5154	0	33948	
5155	0	34040	
5156	0	34072	
5157	0	34120	
5158	0	34156	
5159	0	34160	
5160	0	34168	
5161	0	34236	
5162	0	34320	
5163	0	34360	
5164	0	34416	
5165	0	34476	
5166	0	34556	
5167	0	34636	
5168	0	34696	
5169	0	34772	
5170	0	34840	
5171	0	34872	
5172	0	34916	
5173	0	35002	
5174	0	35028	
5175	0	35056	
5176	0	35124	
5177	0	35160	
5178	0	35216	
5179	0	35324	
5180	0	35404	
5181	0	35444	
5182	0	35592	
5183	0	35756	
5184	0	35864	
5185	0	35968	
5186	0	36040	
5187	0	36144	
5188	0	36222	
5189	0	36300	
5190	0	36364	
5191	0	36448	
5192	0	36520	
5193	0	36584	
5194	0	36602	
5195	0	36648	
5196	0	36752	
5197	0	36880	
5198	0	36928	
5199	0	37036	
5200	0	37162	
5201	0	37248	
5202	0	37272	
5203	0	37348	
5204	0	37390	
5205	0	37400	
5206	0	37490	
5207	0	37550	
5208	0	37580	
5209	0	37672	
5210	0	37692	
5211	0	37716	
5212	0	37752	
5213	0	37808	
5214	0	37912	
5215	0	37964	
5216	0	38016	
5217	0	38084	
5218	0	38130	
5219	0	38208	
5220	0	38252	
5221	0	38168	
5222	0	38152	
5223	0	38192	
5224	0	38232	
5225	0	38268	
5226	0	38260	
5227	0	38216	
5228	0	38164	
5229	0	38112	
5230	0	38052	
5231	0	37996	
5232	0	37940	
5233	0	37880	
5234	0	37772	
5235	0	37708	
5236	0	37682	
5237	0	37588	
5238	0	37476	
5239	0	37316	
5240	0	37168	
5241	0	36992	
5242	0	36824	
5243	0	36634	
5244	0	36400	
5245	0	36180	
5246	0	36004	
5247	0	35844	
5248	0	35684	
5249	0	35548	
5250	0	35332	
5251	0	35084	
5252	0	34784	
5253	0	34552	
5254	0	34304	
5255	0	34088	
5256	0	33944	
5257	0	33768	
5258	0	33588	
5259	0	33388	
5260	0	33208	
5261	0	33002	
5262	0	32772	
5263	0	32552	
5264	0	32382	
5265	0	32268	
5266	0	32104	
5267	0	31962	
5268	0	31764	
5269	0	31532	
5270	0	31392	
5271	0	31296	
5272	0	31136	
5273	0	30960	
5274	0	30786	
5275	0	30672	
5276	0	30576	
5277	0	30456	
5278	0	30356	
5279	0	30248	
5280	0	30112	
5281	0	30080	
5282	0	30052	
5283	0	29996	
5284	0	29944	
5285	0	29816	
5286	0	29664	
5287	0	29636	
5288	0	29572	
5289	0	29464	
5290	0	29392	
5291	0	29360	
5292	0	29292	
5293	0	29208	
5294	0	29176	
5295	0	29156	
5296	0	29130	
5297	0	29114	
5298	0	29144	
5299	0	29196	
5300	0	29188	
5301	0	29168	
5302	0	29136	
5303	0	29132	
5304	0	29152	
5305	0	29140	
5306	0	29148	
5307	0	29176	
5308	0	29172	
5309	0	29168	
5310	0	29192	
5311	0	29204	
5312	0	29256	
5313	0	29296	
5314	0	29288	
5315	0	29288	
5316	0	29316	
5317	0	29328	
5318	0	29320	
5319	0	29327	
5320	0	29324	
5321	0	29304	
5322	0	29264	
5323	0	29302	
5324	0	29340	
5325	0	29388	
5326	0	29432	
5327	0	29460	
5328	0	29498	
5329	0	29536	
5330	0	29566	
5331	0	29648	
5332	0	29728	
5333	0	29796	
5334	0	29840	
5335	0	29868	
5336	0	29844	
5337	0	29816	
5338	0	29780	
5339	0	29744	
5340	0	29804	
5341	0	29872	
5342	0	29860	
5343	0	29876	
5344	0	29948	
5345	0	30000	
5346	0	29992	
5347	0	29992	
5348	0	30020	
5349	0	30056	
5350	0	30052	
5351	0	30032	
5352	0	30060	
5353	0	30120	
5354	0	30160	
5355	0	30144	
5356	0	30176	
5357	0	30248	
5358	0	30284	
5359	0	30320	
5360	0	30316	
5361	0	30340	
5362	0	30400	
5363	0	30424	
5364	0	30408	
5365	0	30448	
5366	0	30478	
5367	0	30520	
5368	0	30556	
5369	0	30534	
5370	0	30544	
5371	0	30544	
5372	0	30576	
5373	0	30592	
5374	0	30592	
5375	0	30592	
5376	0	30672	
5377	0	30696	
5378	0	30656	
5379	0	30600	
5380	0	30596	
5381	0	30636	
5382	0	30668	
5383	0	30676	
5384	0	30728	
5385	0	30804	
5386	0	30828	
5387	0	30804	
5388	0	30792	
5389	0	30824	
5390	0	30828	
5391	0	30880	
5392	0	30944	
5393	0	30952	
5394	0	30928	
5395	0	30936	
5396	0	30968	
5397	0	30988	
5398	0	31012	
5399	0	31068	
5400	0	31088	
5401	0	31052	
5402	0	30988	
5403	0	31016	
5404	0	31056	
5405	0	31032	
5406	0	31004	
5407	0	31042	
5408	0	31104	
5409	0	31132	
5410	0	31120	
5411	0	31084	
5412	0	31076	
5413	0	31044	
5414	0	30980	
5415	0	31056	
5416	0	31162	
5417	0	31208	
5418	0	31176	
5419	0	31168	
5420	0	31224	
5421	0	31256	
5422	0	31276	
5423	0	31304	
5424	0	31316	
5425	0	31288	
5426	0	31250	
5427	0	31264	
5428	0	31240	
5429	0	31214	
5430	0	31228	
5431	0	31228	
5432	0	31268	
5433	0	31276	
5434	0	31284	
5435	0	31292	
5436	0	31274	
5437	0	31240	
5438	0	31248	
5439	0	31220	
5440	0	31236	
5441	0	31300	
5442	0	31352	
5443	0	31292	
5444	0	31284	
5445	0	31312	
5446	0	31340	
5447	0	31320	
5448	0	31274	
5449	0	31312	
5450	0	31344	
5451	0	31366	
5452	0	31386	
5453	0	31370	
5454	0	31348	
5455	0	31336	
5456	0	31376	
5457	0	31432	
5458	0	31468	
5459	0	31420	
5460	0	31412	
5461	0	31424	
5462	0	31416	
5463	0	31424	
5464	0	31440	
5465	0	31460	
5466	0	31480	
5467	0	31540	
5468	0	31548	
5469	0	31556	
5470	0	31556	
5471	0	31556	
5472	0	31616	
5473	0	31624	
5474	0	31600	
5475	0	31528	
5476	0	31476	
5477	0	31444	
5478	0	31448	
5479	0	31428	
5480	0	31444	
5481	0	31484	
5482	0	31512	
5483	0	31584	
5484	0	31609	
5485	0	31616	
5486	0	31640	
5487	0	31632	
5488	0	31584	
5489	0	31620	
5490	0	31668	
5491	0	31692	
5492	0	31716	
5493	0	31732	
5494	0	31732	
5495	0	31756	
5496	0	31680	
5497	0	31680	
5498	0	31720	
5499	0	31676	
5500	0	31616	
5501	0	31642	
5502	0	31674	
5503	0	31726	
5504	0	31812	
5505	0	31868	
5506	0	31856	
5507	0	31852	
5508	0	31788	
5509	0	31736	
5510	0	31744	
5511	0	31732	
5512	0	31728	
5513	0	31768	
5514	0	31788	
5515	0	31800	
5516	0	31832	
5517	0	31848	
5518	0	31816	
5519	0	31832	
5520	0	31860	
5521	0	31892	
5522	0	31936	
5523	0	31932	
5524	0	31956	
5525	0	32036	
5526	0	32076	
5527	0	32044	
5528	0	31992	
5529	0	31992	
5530	0	31962	
5531	0	31948	
5532	0	31976	
5533	0	32004	
5534	0	32064	
5535	0	32064	
5536	0	31980	
5537	0	31964	
5538	0	31980	
5539	0	32000	
5540	0	32048	
5541	0	32124	
5542	0	32048	
5543	0	32028	
5544	0	32100	
5545	0	32102	
5546	0	32104	
5547	0	32124	
5548	0	32148	
5549	0	32112	
5550	0	32092	
5551	0	32152	
5552	0	32194	
5553	0	32204	
5554	0	32164	
5555	0	32100	
5556	0	32096	
5557	0	32140	
5558	0	32132	
5559	0	32120	
5560	0	32094	
5561	0	31976	
5562	0	31976	
5563	0	32092	
5564	0	32156	
5565	0	32200	
5566	0	32188	
5567	0	32160	
5568	0	32136	
5569	0	32248	
5570	0	32268	
5571	0	32224	
5572	0	32188	
5573	0	32284	
5574	0	32334	
5575	0	32352	
5576	0	32344	
5577	0	32384	
5578	0	32372	
5579	0	32320	
5580	0	32308	
5581	0	32304	
5582	0	32260	
5583	0	32264	
5584	0	32260	
5585	0	32312	
5586	0	32424	
5587	0	32448	
5588	0	32384	
5589	0	32388	
5590	0	32372	
5591	0	32448	
5592	0	32480	
5593	0	32420	
5594	0	32334	
5595	0	32324	
5596	0	32402	
5597	0	32404	
5598	0	32356	
5599	0	32336	
5600	0	32386	
5601	0	32520	
5602	0	32640	
5603	0	32708	
5604	0	32756	
5605	0	32760	
5606	0	32756	
5607	0	32800	
5608	0	32928	
5609	0	33108	
5610	0	33344	
5611	0	33584	
5612	0	33712	
5613	0	33856	
5614	0	34050	
5615	0	34208	
5616	0	34244	
5617	0	34244	
5618	0	34232	
5619	0	34184	
5620	0	34188	
5621	0	34156	
5622	0	34208	
5623	0	34340	
5624	0	34432	
5625	0	34482	
5626	0	34512	
5627	0	34516	
5628	0	34544	
5629	0	34626	
5630	0	34712	
5631	0	34760	
5632	0	34804	
5633	0	34900	
5634	0	34940	
5635	0	35072	
5636	0	35212	
5637	0	35260	
5638	0	35332	
5639	0	35300	
5640	0	35232	
5641	0	35188	
5642	0	35200	
5643	0	35272	
5644	0	35368	
5645	0	35504	
5646	0	35600	
5647	0	35624	
5648	0	35648	
5649	0	35628	
5650	0	35448	
5651	0	35232	
5652	0	35064	
5653	0	34928	
5654	0	34748	
5655	0	34512	
5656	0	34372	
5657	0	34248	
5658	0	34080	
5659	0	33936	
5660	0	33916	
5661	0	33848	
5662	0	33688	
5663	0	33576	
5664	0	33528	
5665	0	33472	
5666	0	33408	
5667	0	33356	
5668	0	33349	
5669	0	33344	
5670	0	33356	
5671	0	33320	
5672	0	33232	
5673	0	33184	
5674	0	33052	
5675	0	32996	
5676	0	32892	
5677	0	32768	
5678	0	32712	
5679	0	32688	
5680	0	32660	
5681	0	32600	
5682	0	32522	
5683	0	32414	
5684	0	32344	
5685	0	32236	
5686	0	32112	
5687	0	31964	
5688	0	31868	
5689	0	31788	
5690	0	31662	
5691	0	31592	
5692	0	31530	
5693	0	31444	
5694	0	31376	
5695	0	31268	
5696	0	31276	
5697	0	31336	
5698	0	31356	
5699	0	31416	
5700	0	31460	
5701	0	31476	
5702	0	31522	
5703	0	31520	
5704	0	31528	
5705	0	31564	
5706	0	31542	
5707	0	31524	
5708	0	31496	
5709	0	31536	
5710	0	31628	
5711	0	31696	
5712	0	31696	
5713	0	31656	
5714	0	31620	
5715	0	31640	
5716	0	31632	
5717	0	31656	
5718	0	31656	
5719	0	31618	
5720	0	31604	
5721	0	31604	
5722	0	31576	
5723	0	31552	
5724	0	31576	
5725	0	31576	
5726	0	31610	
5727	0	31612	
5728	0	31640	
5729	0	31728	
5730	0	31772	
5731	0	31764	
5732	0	31728	
5733	0	31680	
5734	0	31692	
5735	0	31740	
5736	0	31786	
5737	0	31800	
5738	0	31786	
5739	0	31760	
5740	0	31752	
5741	0	31880	
5742	0	31944	
5743	0	32004	
5744	0	32056	
5745	0	32048	
5746	0	32036	
5747	0	32056	
5748	0	32080	
5749	0	32064	
5750	0	32056	
5751	0	32116	
5752	0	32160	
5753	0	32168	
5754	0	32132	
5755	0	32200	
5756	0	32208	
5757	0	32192	
5758	0	32108	
5759	0	31992	
5760	0	31912	
5761	0	31802	
5762	0	31636	
5763	0	31464	
5764	0	31360	
5765	0	31328	
5766	0	31408	
5767	0	31484	
5768	0	31636	
5769	0	31872	
5770	0	32280	
5771	0	32832	
5772	0	33424	
5773	0	34140	
5774	0	35024	
5775	0	35928	
5776	0	36840	
5777	0	38020	
5778	0	39456	
5779	0	40928	
5780	0	42300	
5781	0	43708	
5782	0	45152	
5783	0	46636	
5784	0	48180	
5785	0	49704	
5786	0	51144	
5787	0	52472	
5788	0	53760	
5789	0	55024	
5790	0	56256	
5791	0	57312	
5792	0	58088	
5793	0	58680	
5794	0	59080	
5795	0	59208	
5796	0	58344	
5797	0	56428	
5798	0	53904	
5799	0	50748	
5800	0	47412	
5801	0	44152	
5802	0	40696	
5803	0	36924	
5804	0	33208	
5805	0	30168	
5806	0	28008	
5807	0	26748	
5808	0	26112	
5809	0	25884	
5810	0	25908	
5811	0	26084	
5812	0	26316	
5813	0	26696	
5814	0	27200	
5815	0	27696	
5816	0	28176	
5817	0	28640	
5818	0	29176	
5819	0	29736	
5820	0	30216	
5821	0	30594	
5822	0	30858	
5823	0	31020	
5824	0	31116	
5825	0	31148	
5826	0	31124	
5827	0	31094	
5828	0	31068	
5829	0	30990	
5830	0	30988	
5831	0	30916	
5832	0	30812	
5833	0	30724	
5834	0	30676	
5835	0	30656	
5836	0	30688	
5837	0	30636	
5838	0	30592	
5839	0	30644	
5840	0	30684	
5841	0	30668	
5842	0	30632	
5843	0	30620	
5844	0	30652	
5845	0	30704	
5846	0	30744	
5847	0	30744	
5848	0	30696	
5849	0	30708	
5850	0	30740	
5851	0	30724	
5852	0	30660	
5853	0	30660	
5854	0	30688	
5855	0	30692	
5856	0	30704	
5857	0	30640	
5858	0	30622	
5859	0	30712	
5860	0	30808	
5861	0	30816	
5862	0	30784	
5863	0	30888	
5864	0	31020	
5865	0	31008	
5866	0	31032	
5867	0	31068	
5868	0	31064	
5869	0	31044	
5870	0	31056	
5871	0	31080	
5872	0	31104	
5873	0	31132	
5874	0	31176	
5875	0	31200	
5876	0	31156	
5877	0	31188	
5878	0	31252	
5879	0	31280	
5880	0	31272	
5881	0	31296	
5882	0	31360	
5883	0	31404	
5884	0	31420	
5885	0	31444	
5886	0	31448	
5887	0	31368	
5888	0	31268	
5889	0	31280	
5890	0	31337	
5891	0	31408	
5892	0	31464	
5893	0	31508	
5894	0	31568	
5895	0	31620	
5896	0	31656	
5897	0	31732	
5898	0	31736	
5899	0	31696	
5900	0	31622	
5901	0	31544	
5902	0	31600	
5903	0	31688	
5904	0	31700	
5905	0	31744	
5906	0	31848	
5907	0	31908	
5908	0	31982	
5909	0	32068	
5910	0	32028	
5911	0	31960	
5912	0	31888	
5913	0	31960	
5914	0	32004	
5915	0	32000	
5916	0	32048	
5917	0	32044	
5918	0	32032	
5919	0	31964	
5920	0	32056	
5921	0	32216	
5922	0	32260	
5923	0	32304	
5924	0	32384	
5925	0	32416	
5926	0	32372	
5927	0	32420	
5928	0	32540	
5929	0	32580	
5930	0	32586	
5931	0	32604	
5932	0	32640	
5933	0	32600	
5934	0	32572	
5935	0	32596	
5936	0	32700	
5937	0	32788	
5938	0	32794	
5939	0	32752	
5940	0	32724	
5941	0	32784	
5942	0	32836	
5943	0	32816	
5944	0	32796	
5945	0	32852	
5946	0	32936	
5947	0	32872	
5948	0	32824	
5949	0	32952	
5950	0	33080	
5951	0	33144	
5952	0	33152	
5953	0	33190	
5954	0	33242	
5955	0	33280	
5956	0	33300	
5957	0	33296	
5958	0	33312	
5959	0	33416	
5960	0	33472	
5961	0	33536	
5962	0	33556	
5963	0	33594	
5964	0	33613	
5965	0	33636	
5966	0	33648	
5967	0	33620	
5968	0	33656	
5969	0	33748	
5970	0	33812	
5971	0	33816	
5972	0	33824	
5973	0	33908	
5974	0	33968	
5975	0	34060	
5976	0	34156	
5977	0	34224	
5978	0	34254	
5979	0	34296	
5980	0	34352	
5981	0	34400	
5982	0	34456	
5983	0	34456	
5984	0	34436	
5985	0	34432	
5986	0	34560	
5987	0	34720	
5988	0	34900	
5989	0	34996	
5990	0	35052	
5991	0	35104	
5992	0	35212	
5993	0	35304	
5994	0	35386	
5995	0	35432	
5996	0	35480	
5997	0	35504	
5998	0	35578	
5999	0	35618	
6000	0	35680	
6001	0	35760	
6002	0	35872	
6003	0	36000	
6004	0	36104	
6005	0	36184	
6006	0	36252	
6007	0	36372	
6008	0	36464	
6009	0	36548	
6010	0	36628	
6011	0	36652	
6012	0	36696	
6013	0	36772	
6014	0	36832	
6015	0	36884	
6016	0	36928	
6017	0	36968	
6018	0	37052	
6019	0	37176	
6020	0	37256	
6021	0	37328	
6022	0	37416	
6023	0	37480	
6024	0	37604	
6025	0	37732	
6026	0	37748	
6027	0	37780	
6028	0	37800	
6029	0	37848	
6030	0	37844	
6031	0	37880	
6032	0	37924	
6033	0	37992	
6034	0	38058	
6035	0	38106	
6036	0	38128	
6037	0	38132	
6038	0	38096	
6039	0	38052	
6040	0	38106	
6041	0	38132	
6042	0	38064	
6043	0	38024	
6044	0	38008	
6045	0	37952	
6046	0	37900	
6047	0	37824	
6048	0	37732	
6049	0	37672	
6050	0	37600	
6051	0	37500	
6052	0	37360	
6053	0	37244	
6054	0	37124	
6055	0	36956	
6056	0	36724	
6057	0	36540	
6058	0	36376	
6059	0	36228	
6060	0	36084	
6061	0	35944	
6062	0	35808	
6063	0	35696	
6064	0	35488	
6065	0	35196	
6066	0	34972	
6067	0	34788	
6068	0	34586	
6069	0	34336	
6070	0	34168	
6071	0	34048	
6072	0	33832	
6073	0	33608	
6074	0	33424	
6075	0	33154	
6076	0	32880	
6077	0	32656	
6078	0	32436	
6079	0	32284	
6080	0	32164	
6081	0	31956	
6082	0	31764	
6083	0	31624	
6084	0	31456	
6085	0	31296	
6086	0	31080	
6087	0	30908	
6088	0	30804	
6089	0	30744	
6090	0	30644	
6091	0	30524	
6092	0	30400	
6093	0	30248	
6094	0	30124	
6095	0	30048	
6096	0	29972	
6097	0	29872	
6098	0	29772	
6099	0	29692	
6100	0	29626	
6101	0	29624	
6102	0	29568	
6103	0	29440	
6104	0	29394	
6105	0	29392	
6106	0	29352	
6107	0	29312	
6108	0	29264	
6109	0	29192	
6110	0	29152	
6111	0	29172	
6112	0	29186	
6113	0	29204	
6114	0	29130	
6115	0	29076	
6116	0	29056	
6117	0	29024	
6118	0	29048	
6119	0	29032	
6120	0	28964	
6121	0	29016	
6122	0	29072	
6123	0	29104	
6124	0	29104	
6125	0	29112	
6126	0	29112	
6127	0	29120	
6128	0	29104	
6129	0	29124	
6130	0	29120	
6131	0	29124	
6132	0	29180	
6133	0	29204	
6134	0	29204	
6135	0	29220	
6136	0	29268	
6137	0	29316	
6138	0	29280	
6139	0	29346	
6140	0	29436	
6141	0	29444	
6142	0	29402	
6143	0	29360	
6144	0	29392	
6145	0	29466	
6146	0	29544	
6147	0	29576	
6148	0	29546	
6149	0	29652	
6150	0	29736	
6151	0	29702	
6152	0	29678	
6153	0	29708	
6154	0	29768	
6155	0	29760	
6156	0	29742	
6157	0	29764	
6158	0	29820	
6159	0	29852	
6160	0	29842	
6161	0	29852	
6162	0	29888	
6163	0	29944	
6164	0	29908	
6165	0	29884	
6166	0	29888	
6167	0	29932	
6168	0	29980	
6169	0	30000	
6170	0	29984	
6171	0	29992	
6172	0	30024	
6173	0	30084	
6174	0	30146	
6175	0	30192	
6176	0	30228	
6177	0	30216	
6178	0	30208	
6179	0	30214	
6180	0	30260	
6181	0	30272	
6182	0	30292	
6183	0	30324	
6184	0	30344	
6185	0	30346	
6186	0	30372	
6187	0	30472	
6188	0	30524	
6189	0	30592	
6190	0	30574	
6191	0	30464	
6192	0	30432	
6193	0	30444	
6194	0	30516	
6195	0	30536	
6196	0	30480	
6197	0	30472	
6198	0	30512	
6199	0	30576	
6200	0	30598	
6201	0	30628	
6202	0	30628	
6203	0	30640	
6204	0	30652	
6205	0	30676	
6206	0	30696	
6207	0	30720	
6208	0	30786	
6209	0	30844	
6210	0	30812	
6211	0	30792	
6212	0	30824	
6213	0	30816	
6214	0	30816	
6215	0	30820	
6216	0	30828	
6217	0	30844	
6218	0	30872	
6219	0	30904	
6220	0	30848	
6221	0	30740	
6222	0	30778	
6223	0	30868	
6224	0	30896	
6225	0	30910	
6226	0	30912	
6227	0	30904	
6228	0	30896	
6229	0	30924	
6230	0	30944	
6231	0	30988	
6232	0	31036	
6233	0	31046	
6234	0	31060	
6235	0	31104	
6236	0	31108	
6237	0	31056	
6238	0	31048	
6239	0	31048	
6240	0	31050	
6241	0	31052	
6242	0	31068	
6243	0	31076	
6244	0	31176	
6245	0	31228	
6246	0	31172	
6247	0	31188	
6248	0	31156	
6249	0	31076	
6250	0	31088	
6251	0	31094	
6252	0	31104	
6253	0	31156	
6254	0	31152	
6255	0	31072	
6256	0	30988	
6257	0	30930	
6258	0	31008	
6259	0	31128	
6260	0	31136	
6261	0	31080	
6262	0	31152	
6263	0	31172	
6264	0	31160	
6265	0	31226	
6266	0	31264	
6267	0	31288	
6268	0	31280	
6269	0	31300	
6270	0	31296	
6271	0	31282	
6272	0	31288	
6273	0	31296	
6274	0	31236	
6275	0	31174	
6276	0	31216	
6277	0	31304	
6278	0	31344	
6279	0	31360	
6280	0	31374	
6281	0	31328	
6282	0	31328	
6283	0	31340	
6284	0	31388	
6285	0	31404	
6286	0	31444	
6287	0	31504	
6288	0	31556	
6289	0	31512	
6290	0	31486	
6291	0	31422	
6292	0	31332	
6293	0	31352	
6294	0	31400	
6295	0	31456	
6296	0	31504	
6297	0	31504	
6298	0	31476	
6299	0	31484	
6300	0	31512	
6301	0	31560	
6302	0	31624	
6303	0	31622	
6304	0	31600	
6305	0	31608	
6306	0	31644	
6307	0	31660	
6308	0	31608	
6309	0	31516	
6310	0	31492	
6311	0	31532	
6312	0	31552	
6313	0	31572	
6314	0	31616	
6315	0	31664	
6316	0	31704	
6317	0	31704	
6318	0	31688	
6319	0	31688	
6320	0	31680	
6321	0	31692	
6322	0	31664	
6323	0	31650	
6324	0	31708	
6325	0	31744	
6326	0	31720	
6327	0	31688	
6328	0	31692	
6329	0	31692	
6330	0	31634	
6331	0	31620	
6332	0	31632	
6333	0	31624	
6334	0	31682	
6335	0	31690	
6336	0	31644	
6337	0	31636	
6338	0	31640	
6339	0	31648	
6340	0	31632	
6341	0	31652	
6342	0	31696	
6343	0	31712	
6344	0	31676	
6345	0	31684	
6346	0	31728	
6347	0	31728	
6348	0	31748	
6349	0	31740	
6350	0	31706	
6351	0	31740	
6352	0	31760	
6353	0	31832	
6354	0	31878	
6355	0	31810	
6356	0	31788	
6357	0	31800	
6358	0	31776	
6359	0	31728	
6360	0	31764	
6361	0	31832	
6362	0	31872	
6363	0	31912	
6364	0	31848	
6365	0	31808	
6366	0	31834	
6367	0	31884	
6368	0	31928	
6369	0	31916	
6370	0	31978	
6371	0	32040	
6372	0	32048	
6373	0	32012	
6374	0	31952	
6375	0	31980	
6376	0	32004	
6377	0	32044	
6378	0	32036	
6379	0	32008	
6380	0	32082	
6381	0	32076	
6382	0	32020	
6383	0	31928	
6384	0	31976	
6385	0	32040	
6386	0	32008	
6387	0	31964	
6388	0	32084	
6389	0	32164	
6390	0	32192	
6391	0	32284	
6392	0	32328	
6393	0	32312	
6394	0	32314	
6395	0	32384	
6396	0	32504	
6397	0	32644	
6398	0	32832	
6399	0	33008	
6400	0	33234	
6401	0	33324	
6402	0	33420	
6403	0	33616	
6404	0	33824	
6405	0	33992	
6406	0	34040	
6407	0	34008	
6408	0	33968	
6409	0	33952	
6410	0	33960	
6411	0	33984	
6412	0	34092	
6413	0	34112	
6414	0	34092	
6415	0	34096	
6416	0	34148	
6417	0	34172	
6418	0	34274	
6419	0	34414	
6420	0	34552	
6421	0	34632	
6422	0	34694	
6423	0	34774	
6424	0	34872	
6425	0	34984	
6426	0	35056	
6427	0	35048	
6428	0	35084	
6429	0	35128	
6430	0	35092	
6431	0	35088	
6432	0	35124	
6433	0	35182	
6434	0	35252	
6435	0	35360	
6436	0	35484	
6437	0	35568	
6438	0	35596	
6439	0	35464	
6440	0	35244	
6441	0	35088	
6442	0	34976	
6443	0	34882	
6444	0	34720	
6445	0	34514	
6446	0	34288	
6447	0	34124	
6448	0	33936	
6449	0	33754	
6450	0	33604	
6451	0	33480	
6452	0	33400	
6453	0	33348	
6454	0	33286	
6455	0	33240	
6456	0	33280	
6457	0	33316	
6458	0	33292	
6459	0	33268	
6460	0	33272	
6461	0	33240	
6462	0	33180	
6463	0	33072	
6464	0	32944	
6465	0	32800	
6466	0	32692	
6467	0	32576	
6468	0	32472	
6469	0	32404	
6470	0	32292	
6471	0	32236	
6472	0	32140	
6473	0	32032	
6474	0	31980	
6475	0	31916	
6476	0	31844	
6477	0	31788	
6478	0	31652	
6479	0	31508	
6480	0	31376	
6481	0	31320	
6482	0	31244	
6483	0	31204	
6484	0	31196	
6485	0	31216	
6486	0	31204	
6487	0	31208	
6488	0	31228	
6489	0	31280	
6490	0	31372	
6491	0	31328	
6492	0	31288	
6493	0	31292	
6494	0	31296	
6495	0	31304	
6496	0	31320	
6497	0	31328	
6498	0	31314	
6499	0	31276	
6500	0	31264	
6501	0	31276	
6502	0	31288	
6503	0	31328	
6504	0	31280	
6505	0	31272	
6506	0	31344	
6507	0	31360	
6508	0	31368	
6509	0	31348	
6510	0	31324	
6511	0	31336	
6512	0	31372	
6513	0	31476	
6514	0	31508	
6515	0	31472	
6516	0	31488	
6517	0	31620	
6518	0	31712	
6519	0	31748	
6520	0	31704	
6521	0	31712	
6522	0	31728	
6523	0	31692	
6524	0	31668	
6525	0	31644	
6526	0	31688	
6527	0	31736	
6528	0	31740	
6529	0	31736	
6530	0	31788	
6531	0	31828	
6532	0	31824	
6533	0	31834	
6534	0	31832	
6535	0	31852	
6536	0	31904	
6537	0	31954	
6538	0	32004	
6539	0	32000	
6540	0	32024	
6541	0	32088	
6542	0	32132	
6543	0	32144	
6544	0	32136	
6545	0	32116	
6546	0	32128	
6547	0	32128	
6548	0	32044	
6549	0	31944	
6550	0	31776	
6551	0	31628	
6552	0	31478	
6553	0	31332	
6554	0	31234	
6555	0	31274	
6556	0	31322	
6557	0	31432	
6558	0	31620	
6559	0	31948	
6560	0	32472	
6561	0	33004	
6562	0	33664	
6563	0	34426	
6564	0	35348	
6565	0	36340	
6566	0	37441	
6567	0	38784	
6568	0	40244	
6569	0	41660	
6570	0	43092	
6571	0	44544	
6572	0	45952	
6573	0	47428	
6574	0	48920	
6575	0	50422	
6576	0	51820	
6577	0	53128	
6578	0	54408	
6579	0	55764	
6580	0	57036	
6581	0	58032	
6582	0	58756	
6583	0	59160	
6584	0	59398	
6585	0	58852	
6586	0	57180	
6587	0	54728	
6588	0	51660	
6589	0	48280	
6590	0	44952	
6591	0	41572	
6592	0	37892	
6593	0	34084	
6594	0	30768	
6595	0	28432	
6596	0	27012	
6597	0	26312	
6598	0	26040	
6599	0	25976	
6600	0	26140	
6601	0	26352	
6602	0	26612	
6603	0	27064	
6604	0	27600	
6605	0	28048	
6606	0	28572	
6607	0	29144	
6608	0	29632	
6609	0	30064	
6610	0	30464	
6611	0	30812	
6612	0	31088	
6613	0	31206	
6614	0	31202	
6615	0	31200	
6616	0	31176	
6617	0	31144	
6618	0	31068	
6619	0	30926	
6620	0	30890	
6621	0	30828	
6622	0	30796	
6623	0	30788	
6624	0	30800	
6625	0	30752	
6626	0	30676	
6627	0	30624	
6628	0	30640	
6629	0	30696	
6630	0	30748	
6631	0	30728	
6632	0	30656	
6633	0	30652	
6634	0	30680	
6635	0	30688	
6636	0	30716	
6637	0	30724	
6638	0	30740	
6639	0	30688	
6640	0	30712	
6641	0	30710	
6642	0	30640	
6643	0	30608	
6644	0	30644	
6645	0	30720	
6646	0	30788	
6647	0	30796	
6648	0	30796	
6649	0	30772	
6650	0	30780	
6651	0	30852	
6652	0	30932	
6653	0	30920	
6654	0	30910	
6655	0	30928	
6656	0	30992	
6657	0	31036	
6658	0	31074	
6659	0	31088	
6660	0	31136	
6661	0	31180	
6662	0	31228	
6663	0	31200	
6664	0	31200	
6665	0	31238	
6666	0	31280	
6667	0	31360	
6668	0	31420	
6669	0	31416	
6670	0	31440	
6671	0	31548	
6672	0	31520	
6673	0	31394	
6674	0	31496	
6675	0	31580	
6676	0	31616	
6677	0	31612	
6678	0	31628	
6679	0	31662	
6680	0	31692	
6681	0	31768	
6682	0	31816	
6683	0	31848	
6684	0	31840	
6685	0	31832	
6686	0	31872	
6687	0	31944	
6688	0	31940	
6689	0	31852	
6690	0	31796	
6691	0	31802	
6692	0	31808	
6693	0	31914	
6694	0	31996	
6695	0	32030	
6696	0	32048	
6697	0	32092	
6698	0	32164	
6699	0	32220	
6700	0	32288	
6701	0	32304	
6702	0	32252	
6703	0	32282	
6704	0	32270	
6705	0	32220	
6706	0	32244	
6707	0	32320	
6708	0	32356	
6709	0	32396	
6710	0	32412	
6711	0	32432	
6712	0	32436	
6713	0	32430	
6714	0	32448	
6715	0	32540	
6716	0	32520	
6717	0	32544	
6718	0	32644	
6719	0	32714	
6720	0	32720	
6721	0	32640	
6722	0	32692	
6723	0	32760	
6724	0	32792	
6725	0	32816	
6726	0	32856	
6727	0	32916	
6728	0	33004	
6729	0	33064	
6730	0	33080	
6731	0	33092	
6732	0	33124	
6733	0	33104	
6734	0	33120	
6735	0	33160	
6736	0	33140	
6737	0	33136	
6738	0	33216	
6739	0	33288	
6740	0	33328	
6741	0	33364	
6742	0	33360	
6743	0	33386	
6744	0	33468	
6745	0	33504	
6746	0	33508	
6747	0	33502	
6748	0	33536	
6749	0	33648	
6750	0	33696	
6751	0	33728	
6752	0	33752	
6753	0	33812	
6754	0	33796	
6755	0	33802	
6756	0	33880	
6757	0	33912	
6758	0	33880	
6759	0	33892	
6760	0	33982	
6761	0	34040	
6762	0	34144	
6763	0	34172	
6764	0	34200	
6765	0	34244	
6766	0	34280	
6767	0	34364	
6768	0	34464	
6769	0	34526	
6770	0	34556	
6771	0	34616	
6772	0	34740	
6773	0	34836	
6774	0	34908	
6775	0	34916	
6776	0	34924	
6777	0	34964	
6778	0	35056	
6779	0	35136	
6780	0	35180	
6781	0	35184	
6782	0	35164	
6783	0	35300	
6784	0	35432	
6785	0	35520	
6786	0	35612	
6787	0	35724	
6788	0	35812	
6789	0	35900	
6790	0	36016	
6791	0	36112	
6792	0	36232	
6793	0	36250	
6794	0	36200	
6795	0	36284	
6796	0	36424	
6797	0	36512	
6798	0	36568	
6799	0	36604	
6800	0	36666	
6801	0	36788	
6802	0	36968	
6803	0	37122	
6804	0	37120	
6805	0	37168	
6806	0	37240	
6807	0	37284	
6808	0	37304	
6809	0	37324	
6810	0	37364	
6811	0	37472	
6812	0	37520	
6813	0	37528	
6814	0	37604	
6815	0	37696	
6816	0	37792	
6817	0	37912	
6818	0	38032	
6819	0	38040	
6820	0	38020	
6821	0	37948	
6822	0	37902	
6823	0	37888	
6824	0	37920	
6825	0	37964	
6826	0	37980	
6827	0	38072	
6828	0	38088	
6829	0	38052	
6830	0	38100	
6831	0	38122	
6832	0	38128	
6833	0	37996	
6834	0	37936	
6835	0	37992	
6836	0	37940	
6837	0	37856	
6838	0	37760	
6839	0	37660	
6840	0	37520	
6841	0	37410	
6842	0	37300	
6843	0	37184	
6844	0	37036	
6845	0	36892	
6846	0	36752	
6847	0	36560	
6848	0	36376	
6849	0	36184	
6850	0	36064	
6851	0	35908	
6852	0	35656	
6853	0	35392	
6854	0	35136	
6855	0	34868	
6856	0	34632	
6857	0	34468	
6858	0	34304	
6859	0	34064	
6860	0	33872	
6861	0	33688	
6862	0	33492	
6863	0	33284	
6864	0	33068	
6865	0	32844	
6866	0	32648	
6867	0	32472	
6868	0	32250	
6869	0	32112	
6870	0	31938	
6871	0	31706	
6872	0	31480	
6873	0	31290	
6874	0	31180	
6875	0	31132	
6876	0	30996	
6877	0	30784	
6878	0	30628	
6879	0	30480	
6880	0	30316	
6881	0	30224	
6882	0	30132	
6883	0	29952	
6884	0	29856	
6885	0	29800	
6886	0	29748	
6887	0	29692	
6888	0	29596	
6889	0	29508	
6890	0	29524	
6891	0	29520	
6892	0	29396	
6893	0	29282	
6894	0	29216	
6895	0	29176	
6896	0	29184	
6897	0	29104	
6898	0	28972	
6899	0	28932	
6900	0	29036	
6901	0	29122	
6902	0	29172	
6903	0	29160	
6904	0	29136	
6905	0	29104	
6906	0	29138	
6907	0	29128	
6908	0	29096	
6909	0	29068	
6910	0	29016	
6911	0	28942	
6912	0	28924	
6913	0	28898	
6914	0	28898	
6915	0	28956	
6916	0	28968	
6917	0	28996	
6918	0	29040	
6919	0	29052	
6920	0	29108	
6921	0	29108	
6922	0	29102	
6923	0	29120	
6924	0	29144	
6925	0	29040	
6926	0	29008	
6927	0	28976	
6928	0	29064	
6929	0	29152	
6930	0	29220	
6931	0	29192	
6932	0	29196	
6933	0	29284	
6934	0	29352	
6935	0	29348	
6936	0	29328	
6937	0	29288	
6938	0	29256	
6939	0	29388	
6940	0	29496	
6941	0	29544	
6942	0	29564	
6943	0	29604	
6944	0	29632	
6945	0	29708	
6946	0	29740	
6947	0	29688	
6948	0	29668	
6949	0	29664	
6950	0	29792	
6951	0	29888	
6952	0	29876	
6953	0	29896	
6954	0	29944	
6955	0	29914	
6956	0	29900	
6957	0	29856	
6958	0	29880	
6959	0	29892	
6960	0	29880	
6961	0	29938	
6962	0	29986	
6963	0	29964	
6964	0	29992	
6965	0	30158	
6966	0	30196	
6967	0	30132	
6968	0	30244	
6969	0	30356	
6970	0	30360	
6971	0	30340	
6972	0	30404	
6973	0	30452	
6974	0	30432	
6975	0	30404	
6976	0	30396	
6977	0	30360	
6978	0	30368	
6979	0	30432	
6980	0	30424	
6981	0	30416	
6982	0	30426	
6983	0	30508	
6984	0	30608	
6985	0	30648	
6986	0	30656	
6987	0	30632	
6988	0	30656	
6989	0	30736	
6990	0	30784	
6991	0	30816	
6992	0	30844	
6993	0	30884	
6994	0	30884	
6995	0	30908	
6996	0	30986	
6997	0	31052	
6998	0	30992	
6999	0	30884	
7000	0	30838	
7001	0	30836	
7002	0	30904	
7003	0	30972	
7004	0	30992	
7005	0	31002	
7006	0	31040	
7007	0	31008	
7008	0	31020	
7009	0	31100	
7010	0	31128	
7011	0	31008	
7012	0	30944	
7013	0	31040	
7014	0	31140	
7015	0	31124	
7016	0	31136	
7017	0	31116	
7018	0	31116	
7019	0	31168	
7020	0	31208	
7021	0	31184	
7022	0	31196	
7023	0	31216	
7024	0	31212	
7025	0	31208	
7026	0	31188	
7027	0	31216	
7028	0	31280	
7029	0	31368	
7030	0	31348	
7031	0	31204	
7032	0	31160	
7033	0	31208	
7034	0	31224	
7035	0	31172	
7036	0	31248	
7037	0	31380	
7038	0	31360	
7039	0	31332	
7040	0	31308	
7041	0	31296	
7042	0	31232	
7043	0	31312	
7044	0	31348	
7045	0	31312	
7046	0	31432	
7047	0	31424	
7048	0	31404	
7049	0	31342	
7050	0	31332	
7051	0	31424	
7052	0	31460	
7053	0	31484	
7054	0	31508	
7055	0	31404	
7056	0	31396	
7057	0	31424	
7058	0	31376	
7059	0	31420	
7060	0	31548	
7061	0	31540	
7062	0	31360	
7063	0	31400	
7064	0	31516	
7065	0	31610	
7066	0	31588	
7067	0	31556	
7068	0	31500	
7069	0	31468	
7070	0	31480	
7071	0	31560	
7072	0	31584	
7073	0	31556	
7074	0	31572	
7075	0	31616	
7076	0	31592	
7077	0	31564	
7078	0	31512	
7079	0	31528	
7080	0	31616	
7081	0	31660	
7082	0	31644	
7083	0	31632	
7084	0	31624	
7085	0	31740	
7086	0	31760	
7087	0	31716	
7088	0	31680	
7089	0	31692	
7090	0	31740	
7091	0	31776	
7092	0	31762	
7093	0	31712	
7094	0	31724	
7095	0	31714	
7096	0	31660	
7097	0	31728	
7098	0	31792	
7099	0	31820	
7100	0	31800	
7101	0	31768	
7102	0	31712	
7103	0	31724	
7104	0	31780	
7105	0	31860	
7106	0	31870	
7107	0	31868	
7108	0	31972	
7109	0	32020	
7110	0	31920	
7111	0	31960	
7112	0	32028	
7113	0	32024	
7114	0	32040	
7115	0	31980	
7116	0	31916	
7117	0	31872	
7118	0	31908	
7119	0	31936	
7120	0	31956	
7121	0	32034	
7122	0	32084	
7123	0	32034	
7124	0	31992	
7125	0	32046	
7126	0	32136	
7127	0	32158	
7128	0	32072	
7129	0	32004	
7130	0	32108	
7131	0	32204	
7132	0	32190	
7133	0	32176	
7134	0	32176	
7135	0	32200	
7136	0	32188	
7137	0	32180	
7138	0	32180	
7139	0	32096	
7140	0	32080	
7141	0	32120	
7142	0	32164	
7143	0	32192	
7144	0	32212	
7145	0	32220	
7146	0	32232	
7147	0	32280	
7148	0	32272	
7149	0	32244	
7150	0	32296	
7151	0	32312	
7152	0	32288	
7153	0	32304	
7154	0	32372	
7155	0	32292	
7156	0	32208	
7157	0	32192	
7158	0	32184	
7159	0	32252	
7160	0	32324	
7161	0	32372	
7162	0	32420	
7163	0	32488	
7164	0	32500	
7165	0	32448	
7166	0	32388	
7167	0	32376	
7168	0	32448	
7169	0	32536	
7170	0	32568	
7171	0	32636	
7172	0	32760	
7173	0	32756	
7174	0	32760	
7175	0	32880	
7176	0	33100	
7177	0	33328	
7178	0	33496	
7179	0	33640	
7180	0	33816	
7181	0	34004	
7182	0	34180	
7183	0	34364	
7184	0	34424	
7185	0	34388	
7186	0	34356	
7187	0	34348	
7188	0	34412	
7189	0	34496	
7190	0	34592	
7191	0	34616	
7192	0	34574	
7193	0	34584	
7194	0	34568	
7195	0	34608	
7196	0	34648	
7197	0	34748	
7198	0	34932	
7199	0	35068	
7200	0	35104	
7201	0	35184	
7202	0	35304	
7203	0	35404	
7204	0	35428	
7205	0	35392	
7206	0	35312	
7207	0	35304	
7208	0	35312	
7209	0	35306	
7210	0	35374	
7211	0	35496	
7212	0	35684	
7213	0	35752	
7214	0	35834	
7215	0	35972	
7216	0	35884	
7217	0	35688	
7218	0	35520	
7219	0	35364	
7220	0	35148	
7221	0	34926	
7222	0	34724	
7223	0	34572	
7224	0	34404	
7225	0	34106	
7226	0	33944	
7227	0	33908	
7228	0	33940	
7229	0	33852	
7230	0	33760	
7231	0	33772	
7232	0	33712	
7233	0	33612	
7234	0	33556	
7235	0	33592	
7236	0	33600	
7237	0	33552	
7238	0	33516	
7239	0	33448	
7240	0	33338	
7241	0	33236	
7242	0	33152	
7243	0	32992	
7244	0	32900	
7245	0	32912	
7246	0	32888	
7247	0	32792	
7248	0	32680	
7249	0	32556	
7250	0	32408	
7251	0	32292	
7252	0	32248	
7253	0	32128	
7254	0	31994	
7255	0	31856	
7256	0	31764	
7257	0	31660	
7258	0	31588	
7259	0	31528	
7260	0	31516	
7261	0	31520	
7262	0	31584	
7263	0	31664	
7264	0	31684	
7265	0	31692	
7266	0	31680	
7267	0	31700	
7268	0	31680	
7269	0	31696	
7270	0	31724	
7271	0	31620	
7272	0	31500	
7273	0	31428	
7274	0	31468	
7275	0	31540	
7276	0	31616	
7277	0	31622	
7278	0	31676	
7279	0	31680	
7280	0	31724	
7281	0	31700	
7282	0	31664	
7283	0	31652	
7284	0	31708	
7285	0	31792	
7286	0	31796	
7287	0	31760	
7288	0	31780	
7289	0	31816	
7290	0	31836	
7291	0	31888	
7292	0	31936	
7293	0	31952	
7294	0	31888	
7295	0	31852	
7296	0	31904	
7297	0	31924	
7298	0	31912	
7299	0	31898	
7300	0	31928	
7301	0	31904	
7302	0	31876	
7303	0	31888	
7304	0	31940	
7305	0	31992	
7306	0	32014	
7307	0	32026	
7308	0	32040	
7309	0	32060	
7310	0	32016	
7311	0	32036	
7312	0	32114	
7313	0	32208	
7314	0	32284	
7315	0	32320	
7316	0	32360	
7317	0	32376	
7318	0	32400	
7319	0	32388	
7320	0	32428	
7321	0	32472	
7322	0	32546	
7323	0	32568	
7324	0	32540	
7325	0	32364	
7326	0	32280	
7327	0	32304	
7328	0	32172	
7329	0	31888	
7330	0	31672	
7331	0	31594	
7332	0	31636	
7333	0	31728	
7334	0	31904	
7335	0	32112	
7336	0	32436	
7337	0	32884	
7338	0	33376	
7339	0	34004	
7340	0	34832	
7341	0	35720	
7342	0	36632	
7343	0	37724	
7344	0	38960	
7345	0	40352	
7346	0	41792	
7347	0	43238	
7348	0	44724	
7349	0	46208	
7350	0	47760	
7351	0	49328	
7352	0	50788	
7353	0	52160	
7354	0	53496	
7355	0	54792	
7356	0	56128	
7357	0	57352	
7358	0	58296	
7359	0	58940	
7360	0	59296	
7361	0	59420	
7362	0	58700	
7363	0	56968	
7364	0	54464	
7365	0	51340	
7366	0	47968	
7367	0	44660	
7368	0	41180	
7369	0	37516	
7370	0	33832	
7371	0	30740	
7372	0	28532	
7373	0	27246	
7374	0	26564	
7375	0	26334	
7376	0	26372	
7377	0	26572	
7378	0	26816	
7379	0	27156	
7380	0	27570	
7381	0	28028	
7382	0	28596	
7383	0	29176	
7384	0	29656	
7385	0	30036	
7386	0	30424	
7387	0	30900	
7388	0	31280	
7389	0	31476	
7390	0	31564	
7391	0	31612	
7392	0	31612	
7393	0	31564	
7394	0	31472	
7395	0	31392	
7396	0	31324	
7397	0	31220	
7398	0	31092	
7399	0	31022	
7400	0	30948	
7401	0	30904	
7402	0	30832	
7403	0	30756	
7404	0	30700	
7405	0	30716	
7406	0	30740	
7407	0	30764	
7408	0	30764	
7409	0	30756	
7410	0	30726	
7411	0	30688	
7412	0	30688	
7413	0	30696	
7414	0	30720	
7415	0	30660	
7416	0	30716	
7417	0	30870	
7418	0	30968	
7419	0	31048	
7420	0	31076	
7421	0	31092	
7422	0	31080	
7423	0	31088	
7424	0	31130	
7425	0	31128	
7426	0	31132	
7427	0	31128	
7428	0	31152	
7429	0	31144	
7430	0	31194	
7431	0	31258	
7432	0	31260	
7433	0	31240	
7434	0	31168	
7435	0	31168	
7436	0	31256	
7437	0	31300	
7438	0	31304	
7439	0	31360	
7440	0	31428	
7441	0	31520	
7442	0	31540	
7443	0	31516	
7444	0	31528	
7445	0	31496	
7446	0	31428	
7447	0	31408	
7448	0	31332	
7449	0	31388	
7450	0	31504	
7451	0	31588	
7452	0	31664	
7453	0	31676	
7454	0	31668	
7455	0	31681	
7456	0	31732	
7457	0	31712	
7458	0	31672	
7459	0	31672	
7460	0	31712	
7461	0	31832	
7462	0	31908	
7463	0	31970	
7464	0	32016	
7465	0	32056	
7466	0	32128	
7467	0	32128	
7468	0	32044	
7469	0	32004	
7470	0	32104	
7471	0	32172	
7472	0	32168	
7473	0	32188	
7474	0	32168	
7475	0	32216	
7476	0	32328	
7477	0	32384	
7478	0	32452	
7479	0	32448	
7480	0	32412	
7481	0	32344	
7482	0	32352	
7483	0	32400	
7484	0	32452	
7485	0	32432	
7486	0	32468	
7487	0	32544	
7488	0	32564	
7489	0	32528	
7490	0	32576	
7491	0	32624	
7492	0	32672	
7493	0	32738	
7494	0	32796	
7495	0	32768	
7496	0	32808	
7497	0	32884	
7498	0	32908	
7499	0	32956	
7500	0	33016	
7501	0	33089	
7502	0	33048	
7503	0	33016	
7504	0	32980	
7505	0	33004	
7506	0	33056	
7507	0	33102	
7508	0	33184	
7509	0	33220	
7510	0	33216	
7511	0	33200	
7512	0	33220	
7513	0	33260	
7514	0	33260	
7515	0	33260	
7516	0	33304	
7517	0	33284	
7518	0	33276	
7519	0	33272	
7520	0	33380	
7521	0	33518	
7522	0	33596	
7523	0	33640	
7524	0	33616	
7525	0	33664	
7526	0	33780	
7527	0	33864	
7528	0	33908	
7529	0	33956	
7530	0	34028	
7531	0	34028	
7532	0	33984	
7533	0	33952	
7534	0	34036	
7535	0	34178	
7536	0	34244	
7537	0	34248	
7538	0	34268	
7539	0	34232	
7540	0	34272	
7541	0	34368	
7542	0	34464	
7543	0	34556	
7544	0	34580	
7545	0	34560	
7546	0	34604	
7547	0	34680	
7548	0	34824	
7549	0	34932	
7550	0	35018	
7551	0	35032	
7552	0	35034	
7553	0	35092	
7554	0	35164	
7555	0	35274	
7556	0	35384	
7557	0	35424	
7558	0	35484	
7559	0	35562	
7560	0	35588	
7561	0	35624	
7562	0	35642	
7563	0	35652	
7564	0	35724	
7565	0	35812	
7566	0	35926	
7567	0	36042	
7568	0	36128	
7569	0	36292	
7570	0	36356	
7571	0	36416	
7572	0	36460	
7573	0	36494	
7574	0	36608	
7575	0	36740	
7576	0	36732	
7577	0	36800	
7578	0	36864	
7579	0	36904	
7580	0	37056	
7581	0	37160	
7582	0	37192	
7583	0	37212	
7584	0	37264	
7585	0	37400	
7586	0	37580	
7587	0	37612	
7588	0	37620	
7589	0	37652	
7590	0	37700	
7591	0	37732	
7592	0	37744	
7593	0	37796	
7594	0	37856	
7595	0	37928	
7596	0	37984	
7597	0	38024	
7598	0	38088	
7599	0	38088	
7600	0	38112	
7601	0	38188	
7602	0	38200	
7603	0	38180	
7604	0	38200	
7605	0	38172	
7606	0	38120	
7607	0	38132	
7608	0	38132	
7609	0	38150	
7610	0	38080	
7611	0	37996	
7612	0	37920	
7613	0	37828	
7614	0	37736	
7615	0	37720	
7616	0	37684	
7617	0	37540	
7618	0	37382	
7619	0	37260	
7620	0	37080	
7621	0	36904	
7622	0	36776	
7623	0	36628	
7624	0	36490	
7625	0	36320	
7626	0	36148	
7627	0	36036	
7628	0	35860	
7629	0	35632	
7630	0	35360	
7631	0	35192	
7632	0	34976	
7633	0	34800	
7634	0	34682	
7635	0	34464	
7636	0	34208	
7637	0	33988	
7638	0	33762	
7639	0	33612	
7640	0	33480	
7641	0	33280	
7642	0	33136	
7643	0	32956	
7644	0	32704	
7645	0	32536	
7646	0	32384	
7647	0	32180	
7648	0	32024	
7649	0	31864	
7650	0	31736	
7651	0	31516	
7652	0	31276	
7653	0	31088	
7654	0	30880	
7655	0	30640	
7656	0	30536	
7657	0	30496	
7658	0	30386	
7659	0	30296	
7660	0	30200	
7661	0	30084	
7662	0	29960	
7663	0	29916	
7664	0	29956	
7665	0	29944	
7666	0	29852	
7667	0	29800	
7668	0	29712	
7669	0	29660	
7670	0	29584	
7671	0	29516	
7672	0	29468	
7673	0	29408	
7674	0	29348	
7675	0	29320	
7676	0	29320	
7677	0	29264	
7678	0	29200	
7679	0	29108	
7680	0	29048	
7681	0	29096	
7682	0	29148	
7683	0	29108	
7684	0	29060	
7685	0	29096	
7686	0	29112	
7687	0	29180	
7688	0	29216	
7689	0	29184	
7690	0	29128	
7691	0	29136	
7692	0	29124	
7693	0	29128	
7694	0	29188	
7695	0	29302	
7696	0	29404	
7697	0	29430	
7698	0	29356	
7699	0	29278	
7700	0	29284	
7701	0	29356	
7702	0	29448	
7703	0	29442	
7704	0	29404	
7705	0	29380	
7706	0	29314	
7707	0	29368	
7708	0	29432	
7709	0	29472	
7710	0	29492	
7711	0	29528	
7712	0	29568	
7713	0	29596	
7714	0	29548	
7715	0	29552	
7716	0	29636	
7717	0	29738	
7718	0	29704	
7719	0	29620	
7720	0	29572	
7721	0	29616	
7722	0	29696	
7723	0	29736	
7724	0	29744	
7725	0	29760	
7726	0	29836	
7727	0	29888	
7728	0	29936	
7729	0	29932	
7730	0	29916	
7731	0	29940	
7732	0	29980	
7733	0	30092	
7734	0	30184	
7735	0	30104	
7736	0	29988	
7737	0	30016	
7738	0	30060	
7739	0	30112	
7740	0	30224	
7741	0	30306	
7742	0	30336	
7743	0	30376	
7744	0	30344	
7745	0	30252	
7746	0	30216	
7747	0	30264	
7748	0	30248	
7749	0	30220	
7750	0	30256	
7751	0	30272	
7752	0	30292	
7753	0	30320	
7754	0	30272	
7755	0	30204	
7756	0	30236	
7757	0	30324	
7758	0	30314	
7759	0	30376	
7760	0	30464	
7761	0	30472	
7762	0	30512	
7763	0	30544	
7764	0	30604	
7765	0	30568	
7766	0	30532	
7767	0	30560	
7768	0	30596	
7769	0	30592	
7770	0	30572	
7771	0	30636	
7772	0	30656	
7773	0	30686	
7774	0	30740	
7775	0	30656	
7776	0	30592	
7777	0	30608	
7778	0	30656	
7779	0	30692	
7780	0	30724	
7781	0	30672	
7782	0	30672	
7783	0	30726	
7784	0	30704	
7785	0	30684	
7786	0	30664	
7787	0	30730	
7788	0	30768	
7789	0	30780	
7790	0	30768	
7791	0	30786	
7792	0	30784	
7793	0	30778	
7794	0	30724	
7795	0	30796	
7796	0	30860	
7797	0	30880	
7798	0	30956	
7799	0	30968	
7800	0	30876	
7801	0	30928	
7802	0	30972	
7803	0	30944	
7804	0	30888	
7805	0	30908	
7806	0	30952	
7807	0	30988	
7808	0	30988	
7809	0	30960	
7810	0	30966	
7811	0	30984	
7812	0	30988	
7813	0	30972	
7814	0	30988	
7815	0	30986	
7816	0	30980	
7817	0	31044	
7818	0	31076	
7819	0	31070	
7820	0	31160	
7821	0	31236	
7822	0	31234	
7823	0	31216	
7824	0	31120	
7825	0	31116	
7826	0	31220	
7827	0	31228	
7828	0	31192	
7829	0	31124	
7830	0	31060	
7831	0	30976	
7832	0	30944	
7833	0	31012	
7834	0	31032	
7835	0	31036	
7836	0	31060	
7837	0	31100	
7838	0	31152	
7839	0	31144	
7840	0	31132	
7841	0	31120	
7842	0	31140	
7843	0	31138	
7844	0	31140	
7845	0	31192	
7846	0	31200	
7847	0	31184	
7848	0	31246	
7849	0	31304	
7850	0	31356	
7851	0	31380	
7852	0	31384	
7853	0	31388	
7854	0	31448	
7855	0	31448	
7856	0	31384	
7857	0	31272	
7858	0	31272	
7859	0	31272	
7860	0	31324	
7861	0	31352	
7862	0	31334	
7863	0	31320	
7864	0	31312	
7865	0	31344	
7866	0	31364	
7867	0	31400	
7868	0	31372	
7869	0	31360	
7870	0	31372	
7871	0	31388	
7872	0	31392	
7873	0	31388	
7874	0	31386	
7875	0	31360	
7876	0	31384	
7877	0	31408	
7878	0	31460	
7879	0	31484	
7880	0	31540	
7881	0	31504	
7882	0	31420	
7883	0	31432	
7884	0	31480	
7885	0	31536	
7886	0	31648	
7887	0	31704	
7888	0	31692	
7889	0	31610	
7890	0	31476	
7891	0	31432	
7892	0	31482	
7893	0	31524	
7894	0	31516	
7895	0	31444	
7896	0	31448	
7897	0	31552	
7898	0	31648	
7899	0	31660	
7900	0	31680	
7901	0	31712	
7902	0	31824	
7903	0	31912	
7904	0	31912	
7905	0	31880	
7906	0	31840	
7907	0	31800	
7908	0	31756	
7909	0	31676	
7910	0	31632	
7911	0	31632	
7912	0	31652	
7913	0	31664	
7914	0	31700	
7915	0	31824	
7916	0	31802	
7917	0	31712	
7918	0	31704	
7919	0	31756	
7920	0	31840	
7921	0	31882	
7922	0	31876	
7923	0	31918	
7924	0	31936	
7925	0	31952	
7926	0	32032	
7927	0	32044	
7928	0	32048	
7929	0	32140	
7930	0	32308	
7931	0	32428	
7932	0	32532	
7933	0	32602	
7934	0	32672	
7935	0	32820	
7936	0	32976	
7937	0	33140	
7938	0	33304	
7939	0	33380	
7940	0	33400	
7941	0	33376	
7942	0	33424	
7943	0	33472	
7944	0	33472	
7945	0	33424	
7946	0	33504	
7947	0	33636	
7948	0	33772	
7949	0	33840	
7950	0	33896	
7951	0	33948	
7952	0	34024	
7953	0	34112	
7954	0	34206	
7955	0	34292	
7956	0	34464	
7957	0	34682	
7958	0	34776	
7959	0	34796	
7960	0	34824	
7961	0	34840	
7962	0	34824	
7963	0	34768	
7964	0	34712	
7965	0	34704	
7966	0	34756	
7967	0	34848	
7968	0	35028	
7969	0	35264	
7970	0	35440	
7971	0	35424	
7972	0	35332	
7973	0	35132	
7974	0	34956	
7975	0	34816	
7976	0	34672	
7977	0	34496	
7978	0	34276	
7979	0	34048	
7980	0	33888	
7981	0	33780	
7982	0	33758	
7983	0	33656	
7984	0	33500	
7985	0	33460	
7986	0	33476	
7987	0	33384	
7988	0	33356	
7989	0	33356	
7990	0	33332	
7991	0	33272	
7992	0	33252	
7993	0	33282	
7994	0	33296	
7995	0	33228	
7996	0	33192	
7997	0	33072	
7998	0	32916	
7999	0	32824	
8000	0	32712	
8001	0	32584	
8002	0	32504	
8003	0	32392	
8004	0	32188	
8005	0	32008	
8006	0	31940	
8007	0	31892	
8008	0	31818	
8009	0	31728	
8010	0	31572	
8011	0	31442	
8012	0	31336	
8013	0	31276	
8014	0	31208	
8015	0	31172	
8016	0	31236	
8017	0	31296	
8018	0	31364	
8019	0	31360	
