# OpenSignals Text File Format. Version 1
# {"00:07:80:4B:15:F7": {"position": 0, "device": "biosignalsplux", "device name": "00:07:80:4B:15:F7", "device connection": "BTH00:07:80:4B:15:F7", "sampling rate": 1000, "resolution": [16], "firmware version": 775, "comments": "", "keywords": "", "mode": 0, "sync interval": 2, "date": "2023-3-2", "time": "17:32:9.407", "channels": [1], "sensor": ["ECG"], "label": ["CH1"], "column": ["nSeq", "DI", "CH1"], "special": [{"SpO2": [80, 40, 5, 4, 3, 3]}, {"SpO2": [80, 40, 5, 4, 3, 3]}, {"SpO2": [80, 40, 5, 4, 3, 3]}, {"SpO2": [80, 40, 5, 4, 3, 3]}, {"SpO2": [80, 40, 5, 4, 3, 3]}, {"SpO2": [80, 40, 5, 4, 3, 3]}, {"SpO2": [80, 40, 5, 4, 3, 3]}, {"SpO2": [80, 40, 5, 4, 3, 3]}], "digital IO": [0, 1], "sleeve color": [""], "convertedValues": 0}}
# EndOfHeader
0	0	32200	
1	0	32192	
2	0	32040	
3	0	31928	
4	0	31964	
5	0	32016	
6	0	32032	
7	0	32128	
8	0	32172	
9	0	32210	
10	0	32256	
11	0	32304	
12	0	32368	
13	0	32456	
14	0	32580	
15	0	32676	
16	0	32740	
17	0	32808	
18	0	32904	
19	0	32908	
20	0	32848	
21	0	32740	
22	0	32692	
23	0	32708	
24	0	32768	
25	0	32768	
26	0	32792	
27	0	32864	
28	0	32901	
29	0	32936	
30	0	32964	
31	0	33004	
32	0	33120	
33	0	33208	
34	0	33258	
35	0	33372	
36	0	33504	
37	0	33520	
38	0	33484	
39	0	33404	
40	0	33392	
41	0	33440	
42	0	33456	
43	0	33466	
44	0	33608	
45	0	33848	
46	0	34000	
47	0	34012	
48	0	33944	
49	0	33928	
50	0	33960	
51	0	34092	
52	0	34264	
53	0	34372	
54	0	34504	
55	0	34664	
56	0	34802	
57	0	34892	
58	0	34942	
59	0	34990	
60	0	35040	
61	0	35036	
62	0	35048	
63	0	35042	
64	0	35128	
65	0	35224	
66	0	35348	
67	0	35372	
68	0	35428	
69	0	35532	
70	0	35616	
71	0	35664	
72	0	35712	
73	0	35808	
74	0	35916	
75	0	36120	
76	0	36240	
77	0	36296	
78	0	36460	
79	0	36546	
80	0	36576	
81	0	36652	
82	0	36756	
83	0	36788	
84	0	36796	
85	0	36860	
86	0	37004	
87	0	37164	
88	0	37172	
89	0	37168	
90	0	37192	
91	0	37280	
92	0	37376	
93	0	37476	
94	0	37564	
95	0	37672	
96	0	37768	
97	0	37840	
98	0	37944	
99	0	37970	
100	0	37952	
101	0	37952	
102	0	37984	
103	0	37944	
104	0	37992	
105	0	38060	
106	0	38032	
107	0	37980	
108	0	37912	
109	0	37824	
110	0	37820	
111	0	37788	
112	0	37712	
113	0	37688	
114	0	37748	
115	0	37880	
116	0	37812	
117	0	37576	
118	0	37424	
119	0	37252	
120	0	37096	
121	0	36968	
122	0	36800	
123	0	36628	
124	0	36432	
125	0	36260	
126	0	36092	
127	0	35872	
128	0	35656	
129	0	35500	
130	0	35316	
131	0	35056	
132	0	34868	
133	0	34708	
134	0	34533	
135	0	34312	
136	0	34132	
137	0	33914	
138	0	33712	
139	0	33516	
140	0	33268	
141	0	32932	
142	0	32732	
143	0	32568	
144	0	32386	
145	0	32212	
146	0	31976	
147	0	31714	
148	0	31468	
149	0	31216	
150	0	31100	
151	0	30984	
152	0	30844	
153	0	30768	
154	0	30708	
155	0	30592	
156	0	30556	
157	0	30568	
158	0	30488	
159	0	30294	
160	0	30128	
161	0	29964	
162	0	29800	
163	0	29664	
164	0	29524	
165	0	29352	
166	0	29152	
167	0	29036	
168	0	28996	
169	0	28972	
170	0	28920	
171	0	28896	
172	0	28764	
173	0	28640	
174	0	28552	
175	0	28536	
176	0	28564	
177	0	28600	
178	0	28500	
179	0	28356	
180	0	28200	
181	0	28176	
182	0	28260	
183	0	28370	
184	0	28400	
185	0	28350	
186	0	28228	
187	0	28164	
188	0	28192	
189	0	28224	
190	0	28288	
191	0	28384	
192	0	28468	
193	0	28448	
194	0	28416	
195	0	28468	
196	0	28560	
197	0	28656	
198	0	28624	
199	0	28568	
200	0	28560	
201	0	28580	
202	0	28544	
203	0	28545	
204	0	28588	
205	0	28612	
206	0	28640	
207	0	28666	
208	0	28668	
209	0	28684	
210	0	28696	
211	0	28722	
212	0	28748	
213	0	28808	
214	0	28884	
215	0	28992	
216	0	28992	
217	0	29004	
218	0	28986	
219	0	28956	
220	0	28970	
221	0	29004	
222	0	29024	
223	0	28984	
224	0	28968	
225	0	28944	
226	0	28954	
227	0	29014	
228	0	29056	
229	0	29080	
230	0	29200	
231	0	29282	
232	0	29268	
233	0	29386	
234	0	29452	
235	0	29504	
236	0	29568	
237	0	29620	
238	0	29612	
239	0	29568	
240	0	29492	
241	0	29392	
242	0	29332	
243	0	29280	
244	0	29352	
245	0	29508	
246	0	29558	
247	0	29564	
248	0	29560	
249	0	29536	
250	0	29580	
251	0	29600	
252	0	29630	
253	0	29640	
254	0	29676	
255	0	29776	
256	0	29856	
257	0	29904	
258	0	29938	
259	0	29968	
260	0	30052	
261	0	30236	
262	0	30224	
263	0	30044	
264	0	29904	
265	0	29852	
266	0	29824	
267	0	29772	
268	0	29788	
269	0	29868	
270	0	29948	
271	0	30060	
272	0	30084	
273	0	30140	
274	0	30164	
275	0	30206	
276	0	30320	
277	0	30372	
278	0	30332	
279	0	30326	
280	0	30360	
281	0	30332	
282	0	30296	
283	0	30316	
284	0	30304	
285	0	30280	
286	0	30348	
287	0	30412	
288	0	30420	
289	0	30428	
290	0	30488	
291	0	30530	
292	0	30522	
293	0	30588	
294	0	30688	
295	0	30846	
296	0	30956	
297	0	31004	
298	0	31016	
299	0	31000	
300	0	30968	
301	0	30888	
302	0	30836	
303	0	30808	
304	0	30768	
305	0	30788	
306	0	30880	
307	0	30924	
308	0	30908	
309	0	30856	
310	0	30824	
311	0	30836	
312	0	30824	
313	0	30836	
314	0	30940	
315	0	31082	
316	0	31200	
317	0	31230	
318	0	31192	
319	0	31156	
320	0	31148	
321	0	31092	
322	0	31040	
323	0	31040	
324	0	31068	
325	0	31084	
326	0	31032	
327	0	30972	
328	0	30944	
329	0	30964	
330	0	30938	
331	0	30908	
332	0	30988	
333	0	31104	
334	0	31180	
335	0	31304	
336	0	31320	
337	0	31376	
338	0	31380	
339	0	31256	
340	0	31132	
341	0	31060	
342	0	31082	
343	0	31160	
344	0	31188	
345	0	31156	
346	0	31256	
347	0	31332	
348	0	31288	
349	0	31248	
350	0	31262	
351	0	31296	
352	0	31364	
353	0	31458	
354	0	31520	
355	0	31548	
356	0	31448	
357	0	31356	
358	0	31332	
359	0	31368	
360	0	31412	
361	0	31436	
362	0	31400	
363	0	31344	
364	0	31332	
365	0	31296	
366	0	31316	
367	0	31384	
368	0	31460	
369	0	31564	
370	0	31636	
371	0	31616	
372	0	31596	
373	0	31592	
374	0	31584	
375	0	31600	
376	0	31584	
377	0	31620	
378	0	31724	
379	0	31800	
380	0	31836	
381	0	31756	
382	0	31672	
383	0	31636	
384	0	31614	
385	0	31668	
386	0	31680	
387	0	31636	
388	0	31628	
389	0	31644	
390	0	31708	
391	0	31808	
392	0	31824	
393	0	31718	
394	0	31596	
395	0	31644	
396	0	31692	
397	0	31668	
398	0	31702	
399	0	31768	
400	0	31788	
401	0	31768	
402	0	31694	
403	0	31656	
404	0	31660	
405	0	31664	
406	0	31688	
407	0	31628	
408	0	31664	
409	0	31732	
410	0	31852	
411	0	31968	
412	0	32026	
413	0	31956	
414	0	31968	
415	0	32020	
416	0	32056	
417	0	32166	
418	0	32266	
419	0	32336	
420	0	32408	
421	0	32512	
422	0	32664	
423	0	32796	
424	0	32892	
425	0	33008	
426	0	33204	
427	0	33336	
428	0	33416	
429	0	33460	
430	0	33464	
431	0	33472	
432	0	33504	
433	0	33612	
434	0	33760	
435	0	33888	
436	0	33960	
437	0	34060	
438	0	34152	
439	0	34180	
440	0	34148	
441	0	34124	
442	0	34036	
443	0	34012	
444	0	34104	
445	0	34274	
446	0	34416	
447	0	34532	
448	0	34720	
449	0	34826	
450	0	34856	
451	0	34856	
452	0	34884	
453	0	34812	
454	0	34780	
455	0	34828	
456	0	34856	
457	0	34876	
458	0	34972	
459	0	35136	
460	0	35284	
461	0	35264	
462	0	35192	
463	0	35016	
464	0	34772	
465	0	34570	
466	0	34440	
467	0	34280	
468	0	34096	
469	0	33968	
470	0	33920	
471	0	33888	
472	0	33770	
473	0	33720	
474	0	33696	
475	0	33668	
476	0	33592	
477	0	33568	
478	0	33572	
479	0	33528	
480	0	33404	
481	0	33344	
482	0	33360	
483	0	33320	
484	0	33224	
485	0	33084	
486	0	32964	
487	0	32948	
488	0	32932	
489	0	32840	
490	0	32740	
491	0	32714	
492	0	32676	
493	0	32672	
494	0	32700	
495	0	32668	
496	0	32648	
497	0	32538	
498	0	32420	
499	0	32236	
500	0	32088	
501	0	32040	
502	0	31900	
503	0	31784	
504	0	31800	
505	0	31760	
506	0	31600	
507	0	31464	
508	0	31364	
509	0	31344	
510	0	31412	
511	0	31492	
512	0	31456	
513	0	31424	
514	0	31500	
515	0	31542	
516	0	31610	
517	0	31612	
518	0	31628	
519	0	31652	
520	0	31668	
521	0	31704	
522	0	31648	
523	0	31588	
524	0	31608	
525	0	31610	
526	0	31592	
527	0	31568	
528	0	31640	
529	0	31616	
530	0	31508	
531	0	31520	
532	0	31572	
533	0	31608	
534	0	31648	
535	0	31708	
536	0	31732	
537	0	31744	
538	0	31816	
539	0	31916	
540	0	32014	
541	0	32048	
542	0	31900	
543	0	31772	
544	0	31804	
545	0	31828	
546	0	31816	
547	0	31794	
548	0	31812	
549	0	31812	
550	0	31876	
551	0	31968	
552	0	31972	
553	0	31924	
554	0	31888	
555	0	31940	
556	0	31948	
557	0	31900	
558	0	31876	
559	0	31966	
560	0	32002	
561	0	32024	
562	0	32010	
563	0	32004	
564	0	32048	
565	0	32160	
566	0	32268	
567	0	32268	
568	0	32292	
569	0	32290	
570	0	32284	
571	0	32336	
572	0	32368	
573	0	32420	
574	0	32452	
575	0	32520	
576	0	32560	
577	0	32556	
578	0	32464	
579	0	32264	
580	0	32064	
581	0	31896	
582	0	31708	
583	0	31522	
584	0	31444	
585	0	31420	
586	0	31512	
587	0	31628	
588	0	31836	
589	0	32072	
590	0	32414	
591	0	32864	
592	0	33336	
593	0	33924	
594	0	34752	
595	0	35740	
596	0	36820	
597	0	38096	
598	0	39532	
599	0	41044	
600	0	42514	
601	0	43960	
602	0	45384	
603	0	46780	
604	0	48224	
605	0	49624	
606	0	50990	
607	0	52256	
608	0	53480	
609	0	54632	
610	0	55784	
611	0	57064	
612	0	58296	
613	0	59288	
614	0	59916	
615	0	60232	
616	0	59868	
617	0	58400	
618	0	56136	
619	0	53292	
620	0	50000	
621	0	46748	
622	0	43388	
623	0	39756	
624	0	35872	
625	0	32176	
626	0	29270	
627	0	27320	
628	0	26184	
629	0	25636	
630	0	25528	
631	0	25660	
632	0	25872	
633	0	26100	
634	0	26400	
635	0	26760	
636	0	27096	
637	0	27392	
638	0	27704	
639	0	28096	
640	0	28570	
641	0	28972	
642	0	29304	
643	0	29612	
644	0	29946	
645	0	30280	
646	0	30492	
647	0	30616	
648	0	30672	
649	0	30746	
650	0	30776	
651	0	30704	
652	0	30696	
653	0	30688	
654	0	30736	
655	0	30844	
656	0	30852	
657	0	30788	
658	0	30636	
659	0	30608	
660	0	30584	
661	0	30540	
662	0	30548	
663	0	30536	
664	0	30492	
665	0	30480	
666	0	30460	
667	0	30472	
668	0	30484	
669	0	30444	
670	0	30496	
671	0	30432	
672	0	30364	
673	0	30368	
674	0	30484	
675	0	30590	
676	0	30668	
677	0	30768	
678	0	30840	
679	0	30752	
680	0	30768	
681	0	30756	
682	0	30698	
683	0	30560	
684	0	30528	
685	0	30524	
686	0	30558	
687	0	30636	
688	0	30720	
689	0	30784	
690	0	30786	
691	0	30760	
692	0	30752	
693	0	30844	
694	0	30952	
695	0	30996	
696	0	31080	
697	0	31156	
698	0	31200	
699	0	31280	
700	0	31304	
701	0	31280	
702	0	31218	
703	0	31184	
704	0	31224	
705	0	31288	
706	0	31336	
707	0	31352	
708	0	31352	
709	0	31382	
710	0	31424	
711	0	31500	
712	0	31560	
713	0	31648	
714	0	31624	
715	0	31608	
716	0	31670	
717	0	31704	
718	0	31732	
719	0	31756	
720	0	31768	
721	0	31816	
722	0	31812	
723	0	31768	
724	0	31792	
725	0	31832	
726	0	31840	
727	0	31876	
728	0	31884	
729	0	31836	
730	0	31924	
731	0	31994	
732	0	32020	
733	0	32048	
734	0	32040	
735	0	32072	
736	0	32184	
737	0	32256	
738	0	32268	
739	0	32252	
740	0	32248	
741	0	32200	
742	0	32164	
743	0	32168	
744	0	32212	
745	0	32252	
746	0	32292	
747	0	32284	
748	0	32276	
749	0	32316	
750	0	32388	
751	0	32444	
752	0	32472	
753	0	32552	
754	0	32648	
755	0	32736	
756	0	32772	
757	0	32802	
758	0	32800	
759	0	32786	
760	0	32752	
761	0	32736	
762	0	32780	
763	0	32820	
764	0	32864	
765	0	32904	
766	0	32908	
767	0	32952	
768	0	32972	
769	0	33040	
770	0	33096	
771	0	33052	
772	0	33012	
773	0	33052	
774	0	33092	
775	0	33104	
776	0	33108	
777	0	33162	
778	0	33216	
779	0	33270	
780	0	33312	
781	0	33384	
782	0	33428	
783	0	33404	
784	0	33378	
785	0	33390	
786	0	33460	
787	0	33456	
788	0	33466	
789	0	33496	
790	0	33612	
791	0	33708	
792	0	33736	
793	0	33828	
794	0	33916	
795	0	33992	
796	0	34148	
797	0	34348	
798	0	34420	
799	0	34376	
800	0	34356	
801	0	34368	
802	0	34352	
803	0	34336	
804	0	34384	
805	0	34432	
806	0	34452	
807	0	34492	
808	0	34604	
809	0	34728	
810	0	34816	
811	0	34888	
812	0	34956	
813	0	35084	
814	0	35252	
815	0	35344	
816	0	35416	
817	0	35524	
818	0	35656	
819	0	35768	
820	0	35828	
821	0	35908	
822	0	35984	
823	0	35936	
824	0	35972	
825	0	36080	
826	0	36204	
827	0	36304	
828	0	36332	
829	0	36378	
830	0	36420	
831	0	36488	
832	0	36608	
833	0	36724	
834	0	36876	
835	0	37004	
836	0	37156	
837	0	37300	
838	0	37428	
839	0	37504	
840	0	37548	
841	0	37648	
842	0	37738	
843	0	37752	
844	0	37744	
845	0	37752	
846	0	37796	
847	0	37872	
848	0	37928	
849	0	37984	
850	0	38008	
851	0	38084	
852	0	38132	
853	0	38152	
854	0	38184	
855	0	38224	
856	0	38312	
857	0	38376	
858	0	38438	
859	0	38464	
860	0	38432	
861	0	38344	
862	0	38256	
863	0	38192	
864	0	38170	
865	0	38156	
866	0	38068	
867	0	37960	
868	0	37856	
869	0	37764	
870	0	37640	
871	0	37538	
872	0	37396	
873	0	37280	
874	0	37148	
875	0	37016	
876	0	36870	
877	0	36726	
878	0	36636	
879	0	36512	
880	0	36352	
881	0	36156	
882	0	35896	
883	0	35648	
884	0	35416	
885	0	35116	
886	0	34842	
887	0	34648	
888	0	34416	
889	0	34272	
890	0	34140	
891	0	33960	
892	0	33752	
893	0	33492	
894	0	33288	
895	0	33166	
896	0	32976	
897	0	32760	
898	0	32584	
899	0	32392	
900	0	32200	
901	0	32084	
902	0	31932	
903	0	31672	
904	0	31456	
905	0	31312	
906	0	31068	
907	0	30846	
908	0	30682	
909	0	30536	
910	0	30432	
911	0	30308	
912	0	30168	
913	0	30080	
914	0	30032	
915	0	29922	
916	0	29830	
917	0	29792	
918	0	29768	
919	0	29768	
920	0	29812	
921	0	29900	
922	0	29836	
923	0	29684	
924	0	29592	
925	0	29472	
926	0	29410	
927	0	29428	
928	0	29416	
929	0	29312	
930	0	29256	
931	0	29224	
932	0	29204	
933	0	29148	
934	0	29120	
935	0	29144	
936	0	29168	
937	0	29186	
938	0	29236	
939	0	29168	
940	0	29092	
941	0	29016	
942	0	29008	
943	0	29016	
944	0	28996	
945	0	28936	
946	0	28864	
947	0	28828	
948	0	28812	
949	0	28876	
950	0	28920	
951	0	28960	
952	0	28956	
953	0	28960	
954	0	29024	
955	0	29088	
956	0	29152	
957	0	29240	
958	0	29304	
959	0	29296	
960	0	29300	
961	0	29306	
962	0	29284	
963	0	29276	
964	0	29310	
965	0	29388	
966	0	29392	
967	0	29336	
968	0	29296	
969	0	29300	
970	0	29328	
971	0	29400	
972	0	29384	
973	0	29392	
974	0	29476	
975	0	29560	
976	0	29620	
977	0	29736	
978	0	29796	
979	0	29760	
980	0	29740	
981	0	29804	
982	0	29832	
983	0	29802	
984	0	29796	
985	0	29792	
986	0	29740	
987	0	29744	
988	0	29720	
989	0	29760	
990	0	29848	
991	0	29930	
992	0	29992	
993	0	30040	
994	0	30092	
995	0	30088	
996	0	30056	
997	0	30106	
998	0	30112	
999	0	30104	
1000	0	30096	
1001	0	30140	
1002	0	30180	
1003	0	30164	
1004	0	30144	
1005	0	30202	
1006	0	30240	
1007	0	30264	
1008	0	30280	
1009	0	30244	
1010	0	30248	
1011	0	30296	
1012	0	30356	
1013	0	30416	
1014	0	30508	
1015	0	30560	
1016	0	30580	
1017	0	30590	
1018	0	30624	
1019	0	30628	
1020	0	30654	
1021	0	30704	
1022	0	30744	
1023	0	30760	
1024	0	30748	
1025	0	30712	
1026	0	30656	
1027	0	30648	
1028	0	30666	
1029	0	30720	
1030	0	30684	
1031	0	30722	
1032	0	30820	
1033	0	30988	
1034	0	31184	
1035	0	31254	
1036	0	31092	
1037	0	30936	
1038	0	30944	
1039	0	30996	
1040	0	31030	
1041	0	30946	
1042	0	30948	
1043	0	30952	
1044	0	30888	
1045	0	30856	
1046	0	30864	
1047	0	30940	
1048	0	30960	
1049	0	30976	
1050	0	30972	
1051	0	30932	
1052	0	30976	
1053	0	31064	
1054	0	31104	
1055	0	31114	
1056	0	31190	
1057	0	31258	
1058	0	31308	
1059	0	31308	
1060	0	31272	
1061	0	31204	
1062	0	31200	
1063	0	31172	
1064	0	31152	
1065	0	31162	
1066	0	31196	
1067	0	31152	
1068	0	31088	
1069	0	31092	
1070	0	31124	
1071	0	31208	
1072	0	31284	
1073	0	31332	
1074	0	31376	
1075	0	31380	
1076	0	31402	
1077	0	31466	
1078	0	31512	
1079	0	31476	
1080	0	31404	
1081	0	31340	
1082	0	31304	
1083	0	31308	
1084	0	31336	
1085	0	31304	
1086	0	31320	
1087	0	31312	
1088	0	31296	
1089	0	31304	
1090	0	31350	
1091	0	31438	
1092	0	31496	
1093	0	31532	
1094	0	31578	
1095	0	31622	
1096	0	31608	
1097	0	31608	
1098	0	31640	
1099	0	31656	
1100	0	31668	
1101	0	31612	
1102	0	31532	
1103	0	31516	
1104	0	31570	
1105	0	31596	
1106	0	31552	
1107	0	31500	
1108	0	31442	
1109	0	31444	
1110	0	31548	
1111	0	31624	
1112	0	31684	
1113	0	31712	
1114	0	31732	
1115	0	31782	
1116	0	31800	
1117	0	31810	
1118	0	31804	
1119	0	31760	
1120	0	31716	
1121	0	31668	
1122	0	31626	
1123	0	31632	
1124	0	31676	
1125	0	31704	
1126	0	31696	
1127	0	31698	
1128	0	31696	
1129	0	31692	
1130	0	31704	
1131	0	31656	
1132	0	31728	
1133	0	31854	
1134	0	31884	
1135	0	31920	
1136	0	31968	
1137	0	31996	
1138	0	31984	
1139	0	31960	
1140	0	31940	
1141	0	31888	
1142	0	31848	
1143	0	31824	
1144	0	31808	
1145	0	31842	
1146	0	31918	
1147	0	31908	
1148	0	31812	
1149	0	31760	
1150	0	31736	
1151	0	31776	
1152	0	31824	
1153	0	31828	
1154	0	31848	
1155	0	31924	
1156	0	32036	
1157	0	32050	
1158	0	32040	
1159	0	32128	
1160	0	32172	
1161	0	32112	
1162	0	32012	
1163	0	31904	
1164	0	31824	
1165	0	31880	
1166	0	31832	
1167	0	31808	
1168	0	31864	
1169	0	31906	
1170	0	31920	
1171	0	31924	
1172	0	31936	
1173	0	31952	
1174	0	32020	
1175	0	32128	
1176	0	32204	
1177	0	32208	
1178	0	32240	
1179	0	32360	
1180	0	32468	
1181	0	32438	
1182	0	32288	
1183	0	32208	
1184	0	32228	
1185	0	32156	
1186	0	32120	
1187	0	32164	
1188	0	32192	
1189	0	32176	
1190	0	32132	
1191	0	32096	
1192	0	32104	
1193	0	32128	
1194	0	32156	
1195	0	32224	
1196	0	32320	
1197	0	32360	
1198	0	32412	
1199	0	32464	
1200	0	32376	
1201	0	32320	
1202	0	32286	
1203	0	32240	
1204	0	32224	
1205	0	32272	
1206	0	32304	
1207	0	32280	
1208	0	32276	
1209	0	32248	
1210	0	32246	
1211	0	32336	
1212	0	32388	
1213	0	32416	
1214	0	32448	
1215	0	32524	
1216	0	32526	
1217	0	32572	
1218	0	32680	
1219	0	32760	
1220	0	32820	
1221	0	32876	
1222	0	32884	
1223	0	32924	
1224	0	33020	
1225	0	33152	
1226	0	33268	
1227	0	33360	
1228	0	33440	
1229	0	33580	
1230	0	33632	
1231	0	33664	
1232	0	33740	
1233	0	33804	
1234	0	33912	
1235	0	34072	
1236	0	34192	
1237	0	34252	
1238	0	34260	
1239	0	34304	
1240	0	34376	
1241	0	34492	
1242	0	34528	
1243	0	34472	
1244	0	34408	
1245	0	34364	
1246	0	34390	
1247	0	34562	
1248	0	34680	
1249	0	34800	
1250	0	34892	
1251	0	34976	
1252	0	35052	
1253	0	35176	
1254	0	35200	
1255	0	35114	
1256	0	35060	
1257	0	35078	
1258	0	35168	
1259	0	35236	
1260	0	35292	
1261	0	35392	
1262	0	35556	
1263	0	35612	
1264	0	35552	
1265	0	35308	
1266	0	35088	
1267	0	34948	
1268	0	34800	
1269	0	34648	
1270	0	34440	
1271	0	34248	
1272	0	34120	
1273	0	34008	
1274	0	33892	
1275	0	33804	
1276	0	33756	
1277	0	33660	
1278	0	33510	
1279	0	33398	
1280	0	33284	
1281	0	33168	
1282	0	33068	
1283	0	33008	
1284	0	33058	
1285	0	33108	
1286	0	33148	
1287	0	33174	
1288	0	33152	
1289	0	33092	
1290	0	33044	
1291	0	32998	
1292	0	32924	
1293	0	32876	
1294	0	32888	
1295	0	32928	
1296	0	32916	
1297	0	32840	
1298	0	32758	
1299	0	32704	
1300	0	32616	
1301	0	32576	
1302	0	32456	
1303	0	32190	
1304	0	31940	
1305	0	31836	
1306	0	31876	
1307	0	31876	
1308	0	31760	
1309	0	31640	
1310	0	31540	
1311	0	31518	
1312	0	31472	
1313	0	31452	
1314	0	31508	
1315	0	31606	
1316	0	31788	
1317	0	31908	
1318	0	31934	
1319	0	31948	
1320	0	31980	
1321	0	31948	
1322	0	31848	
1323	0	31780	
1324	0	31792	
1325	0	31792	
1326	0	31808	
1327	0	31856	
1328	0	31904	
1329	0	31936	
1330	0	31966	
1331	0	31952	
1332	0	31862	
1333	0	31748	
1334	0	31714	
1335	0	31664	
1336	0	31776	
1337	0	31892	
1338	0	31884	
1339	0	31908	
1340	0	31968	
1341	0	31872	
1342	0	31820	
1343	0	31892	
1344	0	31920	
1345	0	31905	
1346	0	31868	
1347	0	31792	
1348	0	31736	
1349	0	31750	
1350	0	31796	
1351	0	31832	
1352	0	31860	
1353	0	31900	
1354	0	31980	
1355	0	31972	
1356	0	31988	
1357	0	32140	
1358	0	32272	
1359	0	32352	
1360	0	32296	
1361	0	32232	
1362	0	32208	
1363	0	32152	
1364	0	32138	
1365	0	32164	
1366	0	32156	
1367	0	32084	
1368	0	32024	
1369	0	31994	
1370	0	32052	
1371	0	32080	
1372	0	32140	
1373	0	32180	
1374	0	32264	
1375	0	32388	
1376	0	32530	
1377	0	32624	
1378	0	32644	
1379	0	32632	
1380	0	32584	
1381	0	32522	
1382	0	32424	
1383	0	32276	
1384	0	32128	
1385	0	31936	
1386	0	31796	
1387	0	31796	
1388	0	31880	
1389	0	31952	
1390	0	32104	
1391	0	32428	
1392	0	32924	
1393	0	33426	
1394	0	34016	
1395	0	34714	
1396	0	35508	
1397	0	36440	
1398	0	37456	
1399	0	38680	
1400	0	40078	
1401	0	41540	
1402	0	42996	
1403	0	44380	
1404	0	45704	
1405	0	47132	
1406	0	48576	
1407	0	49921	
1408	0	51232	
1409	0	52538	
1410	0	53704	
1411	0	54840	
1412	0	56036	
1413	0	57264	
1414	0	58304	
1415	0	59064	
1416	0	59580	
1417	0	59836	
1418	0	59264	
1419	0	57636	
1420	0	55184	
1421	0	52136	
1422	0	48836	
1423	0	45574	
1424	0	42204	
1425	0	38520	
1426	0	34530	
1427	0	30992	
1428	0	28438	
1429	0	26964	
1430	0	26216	
1431	0	25908	
1432	0	25888	
1433	0	26058	
1434	0	26244	
1435	0	26500	
1436	0	26876	
1437	0	27344	
1438	0	27812	
1439	0	28200	
1440	0	28588	
1441	0	28980	
1442	0	29376	
1443	0	29736	
1444	0	30076	
1445	0	30432	
1446	0	30748	
1447	0	30932	
1448	0	31016	
1449	0	31096	
1450	0	31160	
1451	0	31248	
1452	0	31228	
1453	0	31216	
1454	0	31240	
1455	0	31192	
1456	0	31044	
1457	0	30872	
1458	0	30836	
1459	0	30880	
1460	0	30852	
1461	0	30812	
1462	0	30736	
1463	0	30716	
1464	0	30676	
1465	0	30628	
1466	0	30620	
1467	0	30604	
1468	0	30592	
1469	0	30604	
1470	0	30628	
1471	0	30636	
1472	0	30696	
1473	0	30734	
1474	0	30712	
1475	0	30720	
1476	0	30832	
1477	0	30828	
1478	0	30808	
1479	0	30800	
1480	0	30788	
1481	0	30808	
1482	0	30820	
1483	0	30860	
1484	0	30964	
1485	0	31024	
1486	0	31016	
1487	0	30988	
1488	0	30924	
1489	0	30912	
1490	0	30936	
1491	0	30980	
1492	0	31072	
1493	0	31136	
1494	0	31208	
1495	0	31300	
1496	0	31380	
1497	0	31432	
1498	0	31450	
1499	0	31456	
1500	0	31488	
1501	0	31506	
1502	0	31496	
1503	0	31464	
1504	0	31408	
1505	0	31444	
1506	0	31504	
1507	0	31554	
1508	0	31460	
1509	0	31480	
1510	0	31548	
1511	0	31610	
1512	0	31604	
1513	0	31642	
1514	0	31784	
1515	0	31898	
1516	0	31884	
1517	0	31796	
1518	0	31804	
1519	0	31808	
1520	0	31808	
1521	0	31784	
1522	0	31772	
1523	0	31684	
1524	0	31684	
1525	0	31700	
1526	0	31692	
1527	0	31704	
1528	0	31728	
1529	0	31832	
1530	0	31912	
1531	0	31948	
1532	0	31928	
1533	0	31992	
1534	0	32040	
1535	0	32088	
1536	0	32096	
1537	0	32160	
1538	0	32268	
1539	0	32300	
1540	0	32236	
1541	0	32168	
1542	0	32240	
1543	0	32212	
1544	0	32188	
1545	0	32252	
1546	0	32328	
1547	0	32336	
1548	0	32334	
1549	0	32356	
1550	0	32412	
1551	0	32400	
1552	0	32416	
1553	0	32532	
1554	0	32636	
1555	0	32676	
1556	0	32688	
1557	0	32732	
1558	0	32810	
1559	0	32816	
1560	0	32748	
1561	0	32712	
1562	0	32672	
1563	0	32664	
1564	0	32698	
1565	0	32736	
1566	0	32760	
1567	0	32792	
1568	0	32808	
1569	0	32784	
1570	0	32812	
1571	0	32828	
1572	0	32856	
1573	0	32908	
1574	0	32988	
1575	0	33068	
1576	0	33132	
1577	0	33176	
1578	0	33154	
1579	0	33200	
1580	0	33264	
1581	0	33288	
1582	0	33224	
1583	0	33192	
1584	0	33192	
1585	0	33218	
1586	0	33260	
1587	0	33266	
1588	0	33292	
1589	0	33306	
1590	0	33408	
1591	0	33508	
1592	0	33560	
1593	0	33629	
1594	0	33692	
1595	0	33780	
1596	0	33868	
1597	0	33940	
1598	0	33984	
1599	0	34052	
1600	0	34080	
1601	0	34084	
1602	0	34108	
1603	0	34104	
1604	0	34128	
1605	0	34180	
1606	0	34210	
1607	0	34210	
1608	0	34268	
1609	0	34396	
1610	0	34502	
1611	0	34592	
1612	0	34688	
1613	0	34808	
1614	0	34908	
1615	0	34996	
1616	0	35000	
1617	0	35094	
1618	0	35288	
1619	0	35454	
1620	0	35482	
1621	0	35512	
1622	0	35596	
1623	0	35592	
1624	0	35628	
1625	0	35704	
1626	0	35760	
1627	0	35884	
1628	0	35960	
1629	0	36016	
1630	0	36084	
1631	0	36220	
1632	0	36332	
1633	0	36468	
1634	0	36656	
1635	0	36756	
1636	0	36708	
1637	0	36716	
1638	0	36808	
1639	0	36920	
1640	0	37032	
1641	0	37138	
1642	0	37160	
1643	0	37224	
1644	0	37256	
1645	0	37308	
1646	0	37296	
1647	0	37392	
1648	0	37440	
1649	0	37484	
1650	0	37572	
1651	0	37652	
1652	0	37748	
1653	0	37796	
1654	0	37864	
1655	0	37920	
1656	0	38016	
1657	0	38076	
1658	0	38104	
1659	0	38128	
1660	0	38164	
1661	0	38160	
1662	0	38112	
1663	0	38040	
1664	0	38032	
1665	0	38068	
1666	0	38052	
1667	0	37992	
1668	0	37904	
1669	0	37800	
1670	0	37688	
1671	0	37608	
1672	0	37452	
1673	0	37336	
1674	0	37280	
1675	0	37144	
1676	0	36992	
1677	0	36920	
1678	0	36816	
1679	0	36656	
1680	0	36484	
1681	0	36296	
1682	0	36100	
1683	0	35872	
1684	0	35604	
1685	0	35352	
1686	0	35172	
1687	0	34976	
1688	0	34784	
1689	0	34648	
1690	0	34468	
1691	0	34272	
1692	0	34148	
1693	0	33988	
1694	0	33744	
1695	0	33548	
1696	0	33364	
1697	0	33224	
1698	0	33102	
1699	0	32984	
1700	0	32792	
1701	0	32584	
1702	0	32328	
1703	0	32048	
1704	0	31772	
1705	0	31540	
1706	0	31324	
1707	0	31124	
1708	0	30908	
1709	0	30782	
1710	0	30772	
1711	0	30762	
1712	0	30708	
1713	0	30528	
1714	0	30360	
1715	0	30256	
1716	0	30160	
1717	0	30068	
1718	0	30020	
1719	0	29956	
1720	0	29852	
1721	0	29712	
1722	0	29592	
1723	0	29452	
1724	0	29352	
1725	0	29264	
1726	0	29184	
1727	0	29112	
1728	0	29100	
1729	0	29120	
1730	0	29144	
1731	0	29078	
1732	0	29012	
1733	0	28968	
1734	0	28888	
1735	0	28940	
1736	0	29024	
1737	0	29108	
1738	0	29086	
1739	0	28992	
1740	0	28928	
1741	0	28888	
1742	0	28864	
1743	0	28848	
1744	0	28820	
1745	0	28772	
1746	0	28756	
1747	0	28736	
1748	0	28712	
1749	0	28668	
1750	0	28672	
1751	0	28696	
1752	0	28736	
1753	0	28772	
1754	0	28796	
1755	0	28874	
1756	0	28926	
1757	0	28972	
1758	0	28992	
1759	0	29040	
1760	0	29088	
1761	0	29136	
1762	0	29196	
1763	0	29184	
1764	0	29176	
1765	0	29212	
1766	0	29188	
1767	0	29120	
1768	0	29088	
1769	0	29156	
1770	0	29240	
1771	0	29252	
1772	0	29280	
1773	0	29300	
1774	0	29316	
1775	0	29368	
1776	0	29496	
1777	0	29552	
1778	0	29556	
1779	0	29592	
1780	0	29580	
1781	0	29564	
1782	0	29552	
1783	0	29488	
1784	0	29438	
1785	0	29456	
1786	0	29488	
1787	0	29500	
1788	0	29520	
1789	0	29540	
1790	0	29496	
1791	0	29498	
1792	0	29610	
1793	0	29704	
1794	0	29836	
1795	0	29952	
1796	0	30040	
1797	0	30096	
1798	0	30120	
1799	0	30140	
1800	0	30112	
1801	0	30104	
1802	0	30040	
1803	0	29960	
1804	0	29956	
1805	0	29962	
1806	0	29970	
1807	0	30004	
1808	0	30124	
1809	0	30260	
1810	0	30332	
1811	0	30320	
1812	0	30228	
1813	0	30164	
1814	0	30200	
1815	0	30336	
1816	0	30480	
1817	0	30560	
1818	0	30616	
1819	0	30672	
1820	0	30726	
1821	0	30668	
1822	0	30604	
1823	0	30556	
1824	0	30480	
1825	0	30554	
1826	0	30780	
1827	0	30832	
1828	0	30692	
1829	0	30624	
1830	0	30628	
1831	0	30632	
1832	0	30632	
1833	0	30592	
1834	0	30584	
1835	0	30592	
1836	0	30640	
1837	0	30664	
1838	0	30660	
1839	0	30672	
1840	0	30684	
1841	0	30672	
1842	0	30688	
1843	0	30680	
1844	0	30716	
1845	0	30780	
1846	0	30784	
1847	0	30816	
1848	0	30928	
1849	0	31040	
1850	0	31108	
1851	0	31136	
1852	0	31180	
1853	0	31184	
1854	0	31156	
1855	0	31164	
1856	0	31136	
1857	0	31192	
1858	0	31256	
1859	0	31280	
1860	0	31262	
1861	0	31236	
1862	0	31232	
1863	0	31168	
1864	0	31162	
1865	0	31176	
1866	0	31160	
1867	0	31168	
1868	0	31184	
1869	0	31126	
1870	0	31076	
1871	0	31086	
1872	0	31120	
1873	0	31120	
1874	0	31152	
1875	0	31152	
1876	0	31176	
1877	0	31180	
1878	0	31192	
1879	0	31292	
1880	0	31328	
1881	0	31320	
1882	0	31288	
1883	0	31244	
1884	0	31220	
1885	0	31240	
1886	0	31304	
1887	0	31320	
1888	0	31304	
1889	0	31316	
1890	0	31316	
1891	0	31364	
1892	0	31404	
1893	0	31416	
1894	0	31412	
1895	0	31364	
1896	0	31408	
1897	0	31540	
1898	0	31624	
1899	0	31648	
1900	0	31616	
1901	0	31572	
1902	0	31468	
1903	0	31420	
1904	0	31432	
1905	0	31492	
1906	0	31538	
1907	0	31444	
1908	0	31348	
1909	0	31372	
1910	0	31432	
1911	0	31460	
1912	0	31452	
1913	0	31476	
1914	0	31488	
1915	0	31592	
1916	0	31768	
1917	0	31796	
1918	0	31752	
1919	0	31732	
1920	0	31772	
1921	0	31848	
1922	0	31876	
1923	0	31792	
1924	0	31668	
1925	0	31586	
1926	0	31552	
1927	0	31528	
1928	0	31552	
1929	0	31520	
1930	0	31516	
1931	0	31444	
1932	0	31424	
1933	0	31464	
1934	0	31528	
1935	0	31600	
1936	0	31680	
1937	0	31748	
1938	0	31792	
1939	0	31776	
1940	0	31748	
1941	0	31752	
1942	0	31772	
1943	0	31796	
1944	0	31816	
1945	0	31852	
1946	0	31912	
1947	0	31952	
1948	0	31968	
1949	0	31920	
1950	0	31824	
1951	0	31836	
1952	0	31904	
1953	0	31960	
1954	0	31936	
1955	0	31928	
1956	0	31900	
1957	0	31920	
1958	0	31944	
1959	0	31952	
1960	0	31916	
1961	0	31882	
1962	0	31896	
1963	0	31856	
1964	0	31840	
1965	0	31876	
1966	0	31868	
1967	0	31820	
1968	0	31792	
1969	0	31792	
1970	0	31808	
1971	0	31848	
1972	0	31908	
1973	0	32008	
1974	0	32062	
1975	0	32088	
1976	0	32116	
1977	0	32156	
1978	0	32196	
1979	0	32164	
1980	0	32158	
1981	0	32108	
1982	0	32085	
1983	0	32020	
1984	0	31956	
1985	0	31944	
1986	0	31948	
1987	0	31952	
1988	0	31992	
1989	0	31984	
1990	0	32032	
1991	0	32088	
1992	0	32124	
1993	0	32172	
1994	0	32204	
1995	0	32186	
1996	0	32212	
1997	0	32312	
1998	0	32404	
1999	0	32488	
2000	0	32512	
2001	0	32508	
2002	0	32336	
2003	0	32162	
2004	0	32120	
2005	0	32084	
2006	0	32072	
2007	0	32156	
2008	0	32216	
2009	0	32292	
2010	0	32424	
2011	0	32504	
2012	0	32424	
2013	0	32320	
2014	0	32224	
2015	0	32172	
2016	0	32240	
2017	0	32308	
2018	0	32412	
2019	0	32494	
2020	0	32444	
2021	0	32400	
2022	0	32364	
2023	0	32368	
2024	0	32416	
2025	0	32410	
2026	0	32284	
2027	0	32232	
2028	0	32236	
2029	0	32288	
2030	0	32373	
2031	0	32400	
2032	0	32344	
2033	0	32320	
2034	0	32336	
2035	0	32328	
2036	0	32312	
2037	0	32324	
2038	0	32360	
2039	0	32492	
2040	0	32544	
2041	0	32516	
2042	0	32468	
2043	0	32498	
2044	0	32560	
2045	0	32552	
2046	0	32572	
2047	0	32582	
2048	0	32704	
2049	0	32852	
2050	0	33008	
2051	0	33172	
2052	0	33324	
2053	0	33428	
2054	0	33568	
2055	0	33736	
2056	0	33912	
2057	0	34096	
2058	0	34180	
2059	0	34160	
2060	0	34100	
2061	0	34116	
2062	0	34152	
2063	0	34200	
2064	0	34220	
2065	0	34204	
2066	0	34208	
2067	0	34272	
2068	0	34356	
2069	0	34328	
2070	0	34336	
2071	0	34370	
2072	0	34452	
2073	0	34584	
2074	0	34724	
2075	0	34876	
2076	0	34996	
2077	0	35136	
2078	0	35256	
2079	0	35292	
2080	0	35312	
2081	0	35304	
2082	0	35140	
2083	0	35044	
2084	0	34980	
2085	0	34920	
2086	0	34976	
2087	0	35034	
2088	0	35152	
2089	0	35284	
2090	0	35372	
2091	0	35404	
2092	0	35424	
2093	0	35348	
2094	0	35252	
2095	0	35196	
2096	0	34996	
2097	0	34760	
2098	0	34576	
2099	0	34400	
2100	0	34276	
2101	0	34124	
2102	0	33918	
2103	0	33760	
2104	0	33640	
2105	0	33560	
2106	0	33466	
2107	0	33388	
2108	0	33352	
2109	0	33256	
2110	0	33152	
2111	0	33084	
2112	0	33074	
2113	0	33072	
2114	0	33076	
2115	0	33088	
2116	0	33096	
2117	0	33076	
2118	0	33100	
2119	0	33108	
2120	0	33088	
2121	0	33004	
2122	0	32960	
2123	0	32920	
2124	0	32780	
2125	0	32576	
2126	0	32440	
2127	0	32320	
2128	0	32288	
2129	0	32276	
2130	0	32248	
2131	0	32172	
2132	0	31968	
2133	0	31832	
2134	0	31732	
2135	0	31744	
2136	0	31752	
2137	0	31680	
2138	0	31648	
2139	0	31640	
2140	0	31608	
2141	0	31608	
2142	0	31618	
2143	0	31564	
2144	0	31504	
2145	0	31460	
2146	0	31504	
2147	0	31504	
2148	0	31432	
2149	0	31424	
2150	0	31436	
2151	0	31512	
2152	0	31596	
2153	0	31612	
2154	0	31656	
2155	0	31704	
2156	0	31744	
2157	0	31780	
2158	0	31828	
2159	0	31832	
2160	0	31800	
2161	0	31796	
2162	0	31764	
2163	0	31700	
2164	0	31648	
2165	0	31632	
2166	0	31692	
2167	0	31696	
2168	0	31704	
2169	0	31730	
2170	0	31716	
2171	0	31736	
2172	0	31764	
2173	0	31776	
2174	0	31840	
2175	0	31894	
2176	0	31920	
2177	0	31940	
2178	0	31952	
2179	0	31980	
2180	0	31984	
2181	0	31952	
2182	0	31856	
2183	0	31778	
2184	0	31764	
2185	0	31828	
2186	0	31840	
2187	0	31820	
2188	0	31784	
2189	0	31792	
2190	0	31804	
2191	0	31828	
2192	0	31884	
2193	0	31948	
2194	0	31992	
2195	0	32000	
2196	0	32058	
2197	0	32152	
2198	0	32204	
2199	0	32244	
2200	0	32256	
2201	0	32256	
2202	0	32216	
2203	0	32144	
2204	0	32148	
2205	0	32172	
2206	0	32230	
2207	0	32220	
2208	0	32152	
2209	0	32058	
2210	0	31944	
2211	0	31864	
2212	0	31796	
2213	0	31692	
2214	0	31680	
2215	0	31640	
2216	0	31636	
2217	0	31740	
2218	0	31888	
2219	0	32064	
2220	0	32360	
2221	0	32832	
2222	0	33282	
2223	0	33832	
2224	0	34548	
2225	0	35412	
2226	0	36400	
2227	0	37472	
2228	0	38740	
2229	0	40168	
2230	0	41648	
2231	0	43004	
2232	0	44360	
2233	0	45712	
2234	0	47152	
2235	0	48632	
2236	0	50048	
2237	0	51424	
2238	0	52720	
2239	0	53960	
2240	0	55224	
2241	0	56520	
2242	0	57664	
2243	0	58516	
2244	0	59072	
2245	0	59432	
2246	0	59432	
2247	0	58408	
2248	0	56428	
2249	0	53856	
2250	0	50764	
2251	0	47512	
2252	0	44284	
2253	0	40864	
2254	0	37160	
2255	0	33408	
2256	0	30316	
2257	0	28272	
2258	0	27140	
2259	0	26512	
2260	0	26196	
2261	0	26136	
2262	0	26196	
2263	0	26388	
2264	0	26638	
2265	0	26980	
2266	0	27392	
2267	0	27876	
2268	0	28396	
2269	0	28848	
2270	0	29276	
2271	0	29784	
2272	0	30224	
2273	0	30600	
2274	0	30828	
2275	0	31008	
2276	0	31136	
2277	0	31180	
2278	0	31228	
2279	0	31296	
2280	0	31288	
2281	0	31190	
2282	0	31072	
2283	0	30948	
2284	0	30824	
2285	0	30752	
2286	0	30680	
2287	0	30648	
2288	0	30632	
2289	0	30652	
2290	0	30668	
2291	0	30628	
2292	0	30684	
2293	0	30714	
2294	0	30784	
2295	0	30904	
2296	0	30980	
2297	0	30898	
2298	0	30792	
2299	0	30700	
2300	0	30736	
2301	0	30800	
2302	0	30808	
2303	0	30840	
2304	0	30848	
2305	0	30804	
2306	0	30816	
2307	0	30828	
2308	0	30840	
2309	0	30820	
2310	0	30820	
2311	0	30816	
2312	0	30880	
2313	0	30952	
2314	0	31028	
2315	0	31088	
2316	0	31164	
2317	0	31236	
2318	0	31312	
2319	0	31340	
2320	0	31336	
2321	0	31340	
2322	0	31358	
2323	0	31372	
2324	0	31364	
2325	0	31376	
2326	0	31352	
2327	0	31316	
2328	0	31304	
2329	0	31360	
2330	0	31488	
2331	0	31514	
2332	0	31432	
2333	0	31304	
2334	0	31306	
2335	0	31296	
2336	0	31420	
2337	0	31568	
2338	0	31668	
2339	0	31716	
2340	0	31656	
2341	0	31666	
2342	0	31674	
2343	0	31696	
2344	0	31780	
2345	0	31776	
2346	0	31796	
2347	0	31820	
2348	0	31804	
2349	0	31812	
2350	0	31820	
2351	0	31872	
2352	0	31930	
2353	0	31980	
2354	0	32044	
2355	0	32116	
2356	0	32216	
2357	0	32272	
2358	0	32332	
2359	0	32356	
2360	0	32388	
2361	0	32346	
2362	0	32288	
2363	0	32266	
2364	0	32276	
2365	0	32304	
2366	0	32364	
2367	0	32364	
2368	0	32372	
2369	0	32364	
2370	0	32384	
2371	0	32336	
2372	0	32364	
2373	0	32428	
2374	0	32480	
2375	0	32554	
2376	0	32708	
2377	0	32866	
2378	0	32968	
2379	0	33026	
2380	0	33012	
2381	0	32988	
2382	0	32928	
2383	0	32916	
2384	0	32940	
2385	0	33016	
2386	0	33008	
2387	0	32936	
2388	0	32904	
2389	0	32904	
2390	0	32964	
2391	0	33004	
2392	0	33016	
2393	0	32992	
2394	0	33044	
2395	0	33148	
2396	0	33224	
2397	0	33260	
2398	0	33306	
2399	0	33312	
2400	0	33328	
2401	0	33384	
2402	0	33264	
2403	0	33288	
2404	0	33320	
2405	0	33328	
2406	0	33324	
2407	0	33360	
2408	0	33360	
2409	0	33368	
2410	0	33444	
2411	0	33508	
2412	0	33500	
2413	0	33498	
2414	0	33452	
2415	0	33504	
2416	0	33692	
2417	0	33820	
2418	0	33952	
2419	0	34116	
2420	0	34236	
2421	0	34208	
2422	0	34188	
2423	0	34168	
2424	0	34146	
2425	0	34092	
2426	0	34120	
2427	0	34216	
2428	0	34368	
2429	0	34352	
2430	0	34336	
2431	0	34388	
2432	0	34448	
2433	0	34528	
2434	0	34580	
2435	0	34732	
2436	0	34888	
2437	0	35082	
2438	0	35192	
2439	0	35164	
2440	0	35136	
2441	0	35112	
2442	0	35156	
2443	0	35248	
2444	0	35364	
2445	0	35476	
2446	0	35480	
2447	0	35520	
2448	0	35532	
2449	0	35592	
2450	0	35684	
2451	0	35784	
2452	0	35844	
2453	0	35932	
2454	0	36076	
2455	0	36228	
2456	0	36384	
2457	0	36568	
2458	0	36696	
2459	0	36788	
2460	0	36888	
2461	0	36896	
2462	0	36900	
2463	0	36904	
2464	0	36858	
2465	0	36904	
2466	0	36960	
2467	0	37056	
2468	0	37180	
2469	0	37284	
2470	0	37420	
2471	0	37496	
2472	0	37524	
2473	0	37560	
2474	0	37680	
2475	0	37792	
2476	0	37900	
2477	0	37988	
2478	0	38048	
2479	0	38128	
2480	0	38200	
2481	0	38256	
2482	0	38244	
2483	0	38240	
2484	0	38224	
2485	0	38184	
2486	0	38248	
2487	0	38336	
2488	0	38472	
2489	0	38448	
2490	0	38354	
2491	0	38296	
2492	0	38320	
2493	0	38360	
2494	0	38404	
2495	0	38392	
2496	0	38404	
2497	0	38316	
2498	0	38264	
2499	0	38234	
2500	0	38136	
2501	0	38048	
2502	0	37852	
2503	0	37648	
2504	0	37508	
2505	0	37428	
2506	0	37276	
2507	0	37072	
2508	0	36904	
2509	0	36740	
2510	0	36580	
2511	0	36448	
2512	0	36292	
2513	0	36136	
2514	0	35992	
2515	0	35748	
2516	0	35448	
2517	0	35252	
2518	0	35188	
2519	0	35072	
2520	0	34954	
2521	0	34868	
2522	0	34632	
2523	0	34256	
2524	0	33872	
2525	0	33644	
2526	0	33448	
2527	0	33228	
2528	0	33032	
2529	0	32848	
2530	0	32652	
2531	0	32448	
2532	0	32288	
2533	0	32188	
2534	0	32072	
2535	0	31880	
2536	0	31688	
2537	0	31528	
2538	0	31424	
2539	0	31372	
2540	0	31234	
2541	0	31084	
2542	0	30912	
2543	0	30696	
2544	0	30508	
2545	0	30364	
2546	0	30214	
2547	0	30041	
2548	0	29938	
2549	0	29936	
2550	0	29948	
2551	0	29980	
2552	0	30032	
2553	0	29908	
2554	0	29752	
2555	0	29644	
2556	0	29584	
2557	0	29608	
2558	0	29624	
2559	0	29596	
2560	0	29496	
2561	0	29404	
2562	0	29248	
2563	0	29144	
2564	0	29116	
2565	0	29100	
2566	0	29104	
2567	0	29104	
2568	0	29176	
2569	0	29254	
2570	0	29208	
2571	0	29028	
2572	0	28956	
2573	0	29058	
2574	0	29108	
2575	0	29152	
2576	0	29260	
2577	0	29240	
2578	0	29216	
2579	0	29216	
2580	0	29228	
2581	0	29236	
2582	0	29176	
2583	0	29072	
2584	0	29012	
2585	0	28972	
2586	0	28968	
2587	0	29082	
2588	0	29136	
2589	0	29152	
2590	0	29190	
2591	0	29220	
2592	0	29240	
2593	0	29320	
2594	0	29376	
2595	0	29440	
2596	0	29456	
2597	0	29472	
2598	0	29482	
2599	0	29534	
2600	0	29552	
2601	0	29518	
2602	0	29480	
2603	0	29440	
2604	0	29392	
2605	0	29410	
2606	0	29404	
2607	0	29404	
2608	0	29440	
2609	0	29496	
2610	0	29572	
2611	0	29657	
2612	0	29704	
2613	0	29732	
2614	0	29786	
2615	0	29864	
2616	0	29932	
2617	0	29924	
2618	0	29884	
2619	0	29868	
2620	0	29860	
2621	0	29888	
2622	0	29884	
2623	0	29858	
2624	0	29816	
2625	0	29696	
2626	0	29732	
2627	0	29832	
2628	0	29916	
2629	0	29992	
2630	0	30042	
2631	0	30112	
2632	0	30228	
2633	0	30256	
2634	0	30276	
2635	0	30288	
2636	0	30292	
2637	0	30312	
2638	0	30356	
2639	0	30406	
2640	0	30452	
2641	0	30468	
2642	0	30500	
2643	0	30504	
2644	0	30476	
2645	0	30508	
2646	0	30540	
2647	0	30580	
2648	0	30576	
2649	0	30560	
2650	0	30516	
2651	0	30556	
2652	0	30576	
2653	0	30584	
2654	0	30540	
2655	0	30600	
2656	0	30712	
2657	0	30784	
2658	0	30813	
2659	0	30880	
2660	0	30916	
2661	0	30968	
2662	0	30952	
2663	0	31008	
2664	0	31092	
2665	0	31072	
2666	0	30952	
2667	0	30852	
2668	0	30780	
2669	0	30768	
2670	0	30780	
2671	0	30852	
2672	0	30876	
2673	0	30890	
2674	0	30940	
2675	0	31036	
2676	0	31122	
2677	0	31220	
2678	0	31260	
2679	0	31164	
2680	0	31092	
2681	0	31040	
2682	0	30986	
2683	0	31044	
2684	0	31116	
2685	0	31104	
2686	0	31020	
2687	0	30980	
2688	0	30990	
2689	0	31032	
2690	0	31036	
2691	0	31080	
2692	0	31114	
2693	0	31152	
2694	0	31192	
2695	0	31212	
2696	0	31256	
2697	0	31332	
2698	0	31408	
2699	0	31400	
2700	0	31376	
2701	0	31408	
2702	0	31404	
2703	0	31300	
2704	0	31200	
2705	0	31112	
2706	0	31120	
2707	0	31112	
2708	0	31128	
2709	0	31136	
2710	0	31068	
2711	0	31080	
2712	0	31164	
2713	0	31192	
2714	0	31260	
2715	0	31368	
2716	0	31438	
2717	0	31436	
2718	0	31380	
2719	0	31400	
2720	0	31456	
2721	0	31472	
2722	0	31508	
2723	0	31448	
2724	0	31392	
2725	0	31388	
2726	0	31380	
2727	0	31364	
2728	0	31376	
2729	0	31384	
2730	0	31408	
2731	0	31428	
2732	0	31432	
2733	0	31452	
2734	0	31476	
2735	0	31520	
2736	0	31552	
2737	0	31556	
2738	0	31564	
2739	0	31580	
2740	0	31632	
2741	0	31656	
2742	0	31636	
2743	0	31600	
2744	0	31496	
2745	0	31464	
2746	0	31500	
2747	0	31500	
2748	0	31520	
2749	0	31436	
2750	0	31400	
2751	0	31460	
2752	0	31456	
2753	0	31460	
2754	0	31584	
2755	0	31740	
2756	0	31802	
2757	0	31756	
2758	0	31704	
2759	0	31736	
2760	0	31804	
2761	0	31792	
2762	0	31700	
2763	0	31634	
2764	0	31604	
2765	0	31684	
2766	0	31692	
2767	0	31592	
2768	0	31544	
2769	0	31574	
2770	0	31592	
2771	0	31660	
2772	0	31738	
2773	0	31764	
2774	0	31744	
2775	0	31732	
2776	0	31764	
2777	0	31788	
2778	0	31800	
2779	0	31856	
2780	0	31912	
2781	0	31924	
2782	0	31936	
2783	0	31900	
2784	0	31842	
2785	0	31800	
2786	0	31792	
2787	0	31800	
2788	0	31812	
2789	0	31844	
2790	0	31930	
2791	0	31948	
2792	0	31976	
2793	0	31968	
2794	0	31940	
2795	0	31932	
2796	0	31872	
2797	0	31968	
2798	0	32090	
2799	0	32168	
2800	0	32192	
2801	0	32164	
2802	0	32120	
2803	0	32044	
2804	0	32014	
2805	0	32000	
2806	0	32008	
2807	0	32016	
2808	0	31944	
2809	0	31922	
2810	0	31904	
2811	0	31916	
2812	0	31952	
2813	0	31964	
2814	0	31952	
2815	0	31996	
2816	0	32160	
2817	0	32220	
2818	0	32208	
2819	0	32252	
2820	0	32280	
2821	0	32320	
2822	0	32284	
2823	0	32222	
2824	0	32208	
2825	0	32200	
2826	0	32200	
2827	0	32164	
2828	0	32084	
2829	0	32072	
2830	0	32110	
2831	0	32192	
2832	0	32312	
2833	0	32432	
2834	0	32436	
2835	0	32324	
2836	0	32192	
2837	0	32164	
2838	0	32232	
2839	0	32324	
2840	0	32424	
2841	0	32366	
2842	0	32264	
2843	0	32288	
2844	0	32348	
2845	0	32368	
2846	0	32360	
2847	0	32330	
2848	0	32304	
2849	0	32280	
2850	0	32288	
2851	0	32228	
2852	0	32172	
2853	0	32300	
2854	0	32376	
2855	0	32354	
2856	0	32344	
2857	0	32392	
2858	0	32532	
2859	0	32624	
2860	0	32576	
2861	0	32502	
2862	0	32520	
2863	0	32512	
2864	0	32480	
2865	0	32480	
2866	0	32526	
2867	0	32544	
2868	0	32508	
2869	0	32448	
2870	0	32412	
2871	0	32364	
2872	0	32436	
2873	0	32480	
2874	0	32508	
2875	0	32560	
2876	0	32628	
2877	0	32720	
2878	0	32752	
2879	0	32728	
2880	0	32744	
2881	0	32792	
2882	0	32768	
2883	0	32720	
2884	0	32636	
2885	0	32660	
2886	0	32736	
2887	0	32746	
2888	0	32712	
2889	0	32728	
2890	0	32824	
2891	0	33032	
2892	0	33256	
2893	0	33440	
2894	0	33580	
2895	0	33720	
2896	0	33918	
2897	0	34096	
2898	0	34272	
2899	0	34408	
2900	0	34448	
2901	0	34476	
2902	0	34436	
2903	0	34320	
2904	0	34272	
2905	0	34372	
2906	0	34576	
2907	0	34552	
2908	0	34404	
2909	0	34320	
2910	0	34426	
2911	0	34472	
2912	0	34492	
2913	0	34528	
2914	0	34640	
2915	0	34708	
2916	0	34760	
2917	0	34900	
2918	0	35028	
2919	0	35160	
2920	0	35244	
2921	0	35284	
2922	0	35300	
2923	0	35244	
2924	0	35156	
2925	0	35036	
2926	0	34956	
2927	0	34920	
2928	0	34992	
2929	0	35136	
2930	0	35248	
2931	0	35316	
2932	0	35384	
2933	0	35328	
2934	0	35176	
2935	0	35052	
2936	0	34952	
2937	0	34888	
2938	0	34812	
2939	0	34720	
2940	0	34564	
2941	0	34408	
2942	0	34216	
2943	0	34008	
2944	0	33808	
2945	0	33688	
2946	0	33564	
2947	0	33448	
2948	0	33380	
2949	0	33332	
2950	0	33268	
2951	0	33216	
2952	0	33164	
2953	0	33164	
2954	0	33196	
2955	0	33216	
2956	0	33252	
2957	0	33272	
2958	0	33248	
2959	0	33184	
2960	0	33128	
2961	0	33044	
2962	0	32892	
2963	0	32796	
2964	0	32696	
2965	0	32574	
2966	0	32452	
2967	0	32404	
2968	0	32360	
2969	0	32216	
2970	0	32064	
2971	0	32028	
2972	0	32024	
2973	0	31948	
2974	0	31832	
2975	0	31740	
2976	0	31644	
2977	0	31604	
2978	0	31594	
2979	0	31620	
2980	0	31620	
2981	0	31594	
2982	0	31504	
2983	0	31480	
2984	0	31496	
2985	0	31516	
2986	0	31560	
2987	0	31632	
2988	0	31620	
2989	0	31484	
2990	0	31440	
2991	0	31548	
2992	0	31580	
2993	0	31544	
2994	0	31484	
2995	0	31440	
2996	0	31532	
2997	0	31648	
2998	0	31672	
2999	0	31648	
3000	0	31612	
3001	0	31712	
3002	0	31720	
3003	0	31720	
3004	0	31760	
3005	0	31745	
3006	0	31704	
3007	0	31664	
3008	0	31628	
3009	0	31584	
3010	0	31568	
3011	0	31624	
3012	0	31628	
3013	0	31668	
3014	0	31692	
3015	0	31612	
3016	0	31584	
3017	0	31604	
3018	0	31680	
3019	0	31756	
3020	0	31808	
3021	0	31740	
3022	0	31836	
3023	0	31904	
3024	0	31916	
3025	0	31920	
3026	0	31964	
3027	0	31948	
3028	0	31880	
3029	0	31880	
3030	0	31876	
3031	0	31836	
3032	0	31820	
3033	0	31860	
3034	0	31884	
3035	0	31976	
3036	0	32056	
3037	0	32148	
3038	0	32228	
3039	0	32268	
3040	0	32304	
3041	0	32312	
3042	0	32320	
3043	0	32256	
3044	0	32208	
3045	0	32108	
3046	0	32080	
3047	0	32064	
3048	0	32004	
3049	0	31936	
3050	0	31918	
3051	0	31908	
3052	0	31872	
3053	0	31800	
3054	0	31680	
3055	0	31556	
3056	0	31524	
3057	0	31596	
3058	0	31724	
3059	0	31888	
3060	0	32104	
3061	0	32434	
3062	0	32910	
3063	0	33404	
3064	0	33960	
3065	0	34648	
3066	0	35480	
3067	0	36426	
3068	0	37528	
3069	0	38916	
3070	0	40420	
3071	0	41800	
3072	0	43156	
3073	0	44592	
3074	0	45960	
3075	0	47380	
3076	0	48824	
3077	0	50292	
3078	0	51648	
3079	0	52904	
3080	0	54088	
3081	0	55288	
3082	0	56472	
3083	0	57492	
3084	0	58204	
3085	0	58672	
3086	0	59000	
3087	0	58640	
3088	0	57152	
3089	0	54888	
3090	0	52108	
3091	0	48936	
3092	0	45700	
3093	0	42448	
3094	0	38968	
3095	0	35252	
3096	0	31784	
3097	0	29228	
3098	0	27644	
3099	0	26730	
3100	0	26248	
3101	0	26100	
3102	0	26096	
3103	0	26152	
3104	0	26296	
3105	0	26632	
3106	0	27104	
3107	0	27686	
3108	0	28292	
3109	0	28804	
3110	0	29114	
3111	0	29372	
3112	0	29716	
3113	0	30136	
3114	0	30560	
3115	0	30784	
3116	0	30844	
3117	0	30880	
3118	0	30916	
3119	0	30884	
3120	0	30904	
3121	0	30944	
3122	0	30944	
3123	0	30860	
3124	0	30676	
3125	0	30596	
3126	0	30540	
3127	0	30468	
3128	0	30472	
3129	0	30488	
3130	0	30528	
3131	0	30512	
3132	0	30478	
3133	0	30412	
3134	0	30406	
3135	0	30444	
3136	0	30500	
3137	0	30580	
3138	0	30628	
3139	0	30624	
3140	0	30640	
3141	0	30696	
3142	0	30712	
3143	0	30700	
3144	0	30632	
3145	0	30570	
3146	0	30548	
3147	0	30600	
3148	0	30628	
3149	0	30632	
3150	0	30676	
3151	0	30628	
3152	0	30656	
3153	0	30788	
3154	0	30872	
3155	0	30912	
3156	0	30932	
3157	0	31000	
3158	0	31068	
3159	0	31094	
3160	0	31124	
3161	0	31148	
3162	0	31146	
3163	0	31216	
3164	0	31228	
3165	0	31212	
3166	0	31168	
3167	0	31160	
3168	0	31184	
3169	0	31216	
3170	0	31220	
3171	0	31228	
3172	0	31280	
3173	0	31296	
3174	0	31236	
3175	0	31220	
3176	0	31300	
3177	0	31440	
3178	0	31604	
3179	0	31684	
3180	0	31744	
3181	0	31780	
3182	0	31786	
3183	0	31768	
3184	0	31756	
3185	0	31792	
3186	0	31764	
3187	0	31684	
3188	0	31684	
3189	0	31738	
3190	0	31816	
3191	0	31900	
3192	0	31904	
3193	0	31960	
3194	0	32066	
3195	0	32100	
3196	0	32178	
3197	0	32248	
3198	0	32296	
3199	0	32394	
3200	0	32408	
3201	0	32384	
3202	0	32354	
3203	0	32312	
3204	0	32288	
3205	0	32256	
3206	0	32252	
3207	0	32276	
3208	0	32292	
3209	0	32292	
3210	0	32276	
3211	0	32352	
3212	0	32376	
3213	0	32428	
3214	0	32552	
3215	0	32736	
3216	0	32744	
3217	0	32672	
3218	0	32620	
3219	0	32692	
3220	0	32728	
3221	0	32768	
3222	0	32704	
3223	0	32634	
3224	0	32736	
3225	0	32832	
3226	0	32860	
3227	0	32824	
3228	0	32820	
3229	0	32860	
3230	0	32924	
3231	0	32960	
3232	0	33016	
3233	0	33072	
3234	0	33096	
3235	0	33156	
3236	0	33264	
3237	0	33368	
3238	0	33448	
3239	0	33460	
3240	0	33444	
3241	0	33488	
3242	0	33544	
3243	0	33504	
3244	0	33416	
3245	0	33342	
3246	0	33344	
3247	0	33364	
3248	0	33376	
3249	0	33392	
3250	0	33440	
3251	0	33460	
3252	0	33496	
3253	0	33532	
3254	0	33614	
3255	0	33700	
3256	0	33784	
3257	0	33892	
3258	0	34008	
3259	0	34104	
3260	0	34112	
3261	0	34112	
3262	0	34152	
3263	0	34188	
3264	0	34206	
3265	0	34228	
3266	0	34328	
3267	0	34428	
3268	0	34424	
3269	0	34376	
3270	0	34408	
3271	0	34560	
3272	0	34772	
3273	0	34880	
3274	0	34868	
3275	0	34856	
3276	0	34888	
3277	0	34960	
3278	0	35068	
3279	0	35184	
3280	0	35296	
3281	0	35376	
3282	0	35454	
3283	0	35520	
3284	0	35524	
3285	0	35570	
3286	0	35600	
3287	0	35576	
3288	0	35594	
3289	0	35652	
3290	0	35700	
3291	0	35752	
3292	0	35944	
3293	0	36036	
3294	0	36080	
3295	0	36200	
3296	0	36340	
3297	0	36472	
3298	0	36584	
3299	0	36700	
3300	0	36832	
3301	0	36876	
3302	0	36916	
3303	0	36992	
3304	0	37084	
3305	0	37216	
3306	0	37328	
3307	0	37444	
3308	0	37496	
3309	0	37572	
3310	0	37552	
3311	0	37564	
3312	0	37652	
3313	0	37684	
3314	0	37724	
3315	0	37804	
3316	0	37892	
3317	0	38012	
3318	0	38160	
3319	0	38316	
3320	0	38296	
3321	0	38260	
3322	0	38212	
3323	0	38236	
3324	0	38280	
3325	0	38304	
3326	0	38304	
3327	0	38312	
3328	0	38304	
3329	0	38248	
3330	0	38308	
3331	0	38356	
3332	0	38328	
3333	0	38320	
3334	0	38412	
3335	0	38548	
3336	0	38604	
3337	0	38620	
3338	0	38608	
3339	0	38592	
3340	0	38520	
3341	0	38432	
3342	0	38316	
3343	0	38212	
3344	0	38088	
3345	0	37976	
3346	0	37852	
3347	0	37700	
3348	0	37492	
3349	0	37264	
3350	0	37024	
3351	0	36856	
3352	0	36708	
3353	0	36584	
3354	0	36408	
3355	0	36226	
3356	0	36076	
3357	0	35928	
3358	0	35720	
3359	0	35544	
3360	0	35412	
3361	0	35288	
3362	0	35080	
3363	0	34844	
3364	0	34656	
3365	0	34350	
3366	0	33996	
3367	0	33760	
3368	0	33652	
3369	0	33488	
3370	0	33356	
3371	0	33228	
3372	0	33000	
3373	0	32796	
3374	0	32616	
3375	0	32464	
3376	0	32360	
3377	0	32276	
3378	0	32124	
3379	0	31984	
3380	0	31792	
3381	0	31576	
3382	0	31388	
3383	0	31264	
3384	0	31156	
3385	0	31028	
3386	0	30844	
3387	0	30660	
3388	0	30530	
3389	0	30390	
3390	0	30272	
3391	0	30202	
3392	0	30112	
3393	0	30032	
3394	0	30072	
3395	0	30044	
3396	0	29948	
3397	0	29936	
3398	0	29980	
3399	0	29960	
3400	0	29924	
3401	0	29900	
3402	0	29844	
3403	0	29788	
3404	0	29746	
3405	0	29760	
3406	0	29732	
3407	0	29736	
3408	0	29716	
3409	0	29668	
3410	0	29688	
3411	0	29804	
3412	0	29852	
3413	0	29756	
3414	0	29652	
3415	0	29604	
3416	0	29572	
3417	0	29524	
3418	0	29484	
3419	0	29428	
3420	0	29394	
3421	0	29404	
3422	0	29464	
3423	0	29448	
3424	0	29436	
3425	0	29408	
3426	0	29484	
3427	0	29512	
3428	0	29556	
3429	0	29528	
3430	0	29546	
3431	0	29600	
3432	0	29656	
3433	0	29684	
3434	0	29760	
3435	0	29804	
3436	0	29848	
3437	0	29876	
3438	0	29964	
3439	0	30064	
3440	0	30080	
3441	0	30024	
3442	0	30008	
3443	0	29974	
3444	0	29948	
3445	0	30016	
3446	0	30128	
3447	0	30096	
3448	0	29982	
3449	0	29976	
3450	0	29956	
3451	0	29992	
3452	0	30136	
3453	0	30248	
3454	0	30176	
3455	0	30156	
3456	0	30236	
3457	0	30316	
3458	0	30336	
3459	0	30344	
3460	0	30336	
3461	0	30320	
3462	0	30312	
3463	0	30308	
3464	0	30300	
3465	0	30302	
3466	0	30356	
3467	0	30368	
3468	0	30280	
3469	0	30204	
3470	0	30248	
3471	0	30220	
3472	0	30180	
3473	0	30168	
3474	0	30240	
3475	0	30348	
3476	0	30416	
3477	0	30458	
3478	0	30548	
3479	0	30698	
3480	0	30808	
3481	0	30848	
3482	0	30864	
3483	0	30816	
3484	0	30796	
3485	0	30864	
3486	0	30904	
3487	0	30920	
3488	0	30980	
3489	0	31000	
3490	0	31008	
3491	0	31020	
3492	0	31040	
3493	0	31062	
3494	0	31012	
3495	0	30968	
3496	0	31004	
3497	0	31072	
3498	0	31136	
3499	0	31244	
3500	0	31332	
3501	0	31420	
3502	0	31428	
3503	0	31290	
3504	0	31176	
3505	0	31160	
3506	0	31144	
3507	0	31124	
3508	0	31064	
3509	0	31076	
3510	0	31136	
3511	0	31224	
3512	0	31280	
3513	0	31321	
3514	0	31392	
3515	0	31476	
3516	0	31544	
3517	0	31540	
3518	0	31576	
3519	0	31556	
3520	0	31600	
3521	0	31676	
3522	0	31636	
3523	0	31524	
3524	0	31424	
3525	0	31348	
3526	0	31272	
3527	0	31208	
3528	0	31160	
3529	0	31152	
3530	0	31172	
3531	0	31248	
3532	0	31418	
3533	0	31444	
3534	0	31388	
3535	0	31376	
3536	0	31384	
3537	0	31400	
3538	0	31444	
3539	0	31484	
3540	0	31544	
3541	0	31672	
3542	0	31760	
3543	0	31668	
3544	0	31516	
3545	0	31440	
3546	0	31536	
3547	0	31588	
3548	0	31576	
3549	0	31534	
3550	0	31452	
3551	0	31416	
3552	0	31468	
3553	0	31508	
3554	0	31544	
3555	0	31572	
3556	0	31584	
3557	0	31592	
3558	0	31604	
3559	0	31648	
3560	0	31724	
3561	0	31776	
3562	0	31754	
3563	0	31710	
3564	0	31680	
3565	0	31646	
3566	0	31576	
3567	0	31552	
3568	0	31620	
3569	0	31656	
3570	0	31612	
3571	0	31560	
3572	0	31524	
3573	0	31516	
3574	0	31496	
3575	0	31532	
3576	0	31568	
3577	0	31668	
3578	0	31762	
3579	0	31756	
3580	0	31736	
3581	0	31736	
3582	0	31788	
3583	0	31800	
3584	0	31760	
3585	0	31708	
3586	0	31748	
3587	0	31840	
3588	0	31956	
3589	0	32008	
3590	0	31888	
3591	0	31778	
3592	0	31796	
3593	0	31812	
3594	0	31848	
3595	0	31884	
3596	0	31948	
3597	0	32040	
3598	0	32152	
3599	0	32232	
3600	0	32244	
3601	0	32180	
3602	0	32088	
3603	0	32016	
3604	0	31944	
3605	0	31920	
3606	0	31968	
3607	0	32036	
3608	0	32024	
3609	0	31960	
3610	0	31938	
3611	0	31936	
3612	0	31880	
3613	0	31796	
3614	0	31860	
3615	0	31860	
3616	0	31872	
3617	0	31884	
3618	0	31940	
3619	0	32048	
3620	0	32196	
3621	0	32160	
3622	0	31956	
3623	0	31860	
3624	0	31900	
3625	0	31988	
3626	0	32018	
3627	0	31992	
3628	0	32040	
3629	0	32056	
3630	0	31996	
3631	0	31928	
3632	0	31936	
3633	0	32044	
3634	0	32168	
3635	0	32280	
3636	0	32344	
3637	0	32336	
3638	0	32384	
3639	0	32372	
3640	0	32352	
3641	0	32404	
3642	0	32432	
3643	0	32412	
3644	0	32332	
3645	0	32216	
3646	0	32096	
3647	0	32008	
3648	0	31956	
3649	0	31900	
3650	0	31904	
3651	0	31920	
3652	0	31962	
3653	0	31968	
3654	0	31976	
3655	0	32066	
3656	0	32204	
3657	0	32204	
3658	0	32286	
3659	0	32348	
3660	0	32316	
3661	0	32268	
3662	0	32256	
3663	0	32344	
3664	0	32392	
3665	0	32272	
3666	0	32144	
3667	0	32160	
3668	0	32264	
3669	0	32376	
3670	0	32480	
3671	0	32456	
3672	0	32464	
3673	0	32508	
3674	0	32448	
3675	0	32428	
3676	0	32476	
3677	0	32538	
3678	0	32552	
3679	0	32552	
3680	0	32568	
3681	0	32624	
3682	0	32716	
3683	0	32704	
3684	0	32620	
3685	0	32496	
3686	0	32344	
3687	0	32284	
3688	0	32356	
3689	0	32448	
3690	0	32520	
3691	0	32540	
3692	0	32492	
3693	0	32486	
3694	0	32592	
3695	0	32672	
3696	0	32716	
3697	0	32728	
3698	0	32840	
3699	0	33016	
3700	0	33040	
3701	0	32916	
3702	0	32742	
3703	0	32624	
3704	0	32616	
3705	0	32624	
3706	0	32664	
3707	0	32740	
3708	0	32720	
3709	0	32620	
3710	0	32624	
3711	0	32704	
3712	0	32730	
3713	0	32708	
3714	0	32712	
3715	0	32732	
3716	0	32724	
3717	0	32700	
3718	0	32792	
3719	0	32960	
3720	0	32992	
3721	0	32800	
3722	0	32612	
3723	0	32628	
3724	0	32640	
3725	0	32672	
3726	0	32700	
3727	0	32720	
3728	0	32780	
3729	0	32794	
3730	0	32740	
3731	0	32772	
3732	0	32814	
3733	0	32896	
3734	0	32964	
3735	0	33108	
3736	0	33344	
3737	0	33584	
3738	0	33692	
3739	0	33732	
3740	0	33832	
3741	0	33996	
3742	0	34212	
3743	0	34416	
3744	0	34432	
3745	0	34288	
3746	0	34180	
3747	0	34204	
3748	0	34220	
3749	0	34264	
3750	0	34328	
3751	0	34324	
3752	0	34316	
3753	0	34458	
3754	0	34618	
3755	0	34668	
3756	0	34672	
3757	0	34712	
3758	0	34724	
3759	0	34740	
3760	0	34804	
3761	0	34848	
3762	0	34792	
3763	0	34784	
3764	0	34864	
3765	0	34920	
3766	0	34992	
3767	0	35088	
3768	0	35076	
3769	0	35040	
3770	0	35056	
3771	0	35040	
3772	0	35072	
3773	0	35208	
3774	0	35388	
3775	0	35448	
3776	0	35434	
3777	0	35604	
3778	0	35624	
3779	0	35536	
3780	0	35444	
3781	0	35380	
3782	0	35200	
3783	0	34968	
3784	0	34760	
3785	0	34576	
3786	0	34408	
3787	0	34224	
3788	0	34046	
3789	0	33932	
3790	0	33868	
3791	0	33752	
3792	0	33660	
3793	0	33636	
3794	0	33632	
3795	0	33576	
3796	0	33488	
3797	0	33476	
3798	0	33508	
3799	0	33552	
3800	0	33568	
3801	0	33632	
3802	0	33612	
3803	0	33524	
3804	0	33378	
3805	0	33188	
3806	0	33048	
3807	0	33010	
3808	0	32944	
3809	0	32828	
3810	0	32836	
3811	0	32782	
3812	0	32684	
3813	0	32580	
3814	0	32476	
3815	0	32416	
3816	0	32288	
3817	0	32296	
3818	0	32314	
3819	0	32282	
3820	0	32304	
3821	0	32180	
3822	0	31936	
3823	0	31794	
3824	0	31708	
3825	0	31636	
3826	0	31616	
3827	0	31624	
3828	0	31644	
3829	0	31626	
3830	0	31682	
3831	0	31680	
3832	0	31700	
3833	0	31756	
3834	0	31716	
3835	0	31746	
3836	0	31784	
3837	0	31780	
3838	0	31800	
3839	0	31860	
3840	0	31852	
3841	0	31832	
3842	0	31800	
3843	0	31720	
3844	0	31628	
3845	0	31620	
3846	0	31730	
3847	0	31800	
3848	0	31776	
3849	0	31748	
3850	0	31780	
3851	0	31802	
3852	0	31824	
3853	0	31768	
3854	0	31724	
3855	0	31728	
3856	0	31774	
3857	0	31848	
3858	0	31976	
3859	0	32128	
3860	0	32236	
3861	0	32208	
3862	0	32008	
3863	0	31904	
3864	0	31812	
3865	0	31796	
3866	0	31824	
3867	0	31892	
3868	0	31920	
3869	0	31872	
3870	0	31852	
3871	0	31908	
3872	0	32012	
3873	0	32182	
3874	0	32240	
3875	0	32288	
3876	0	32372	
3877	0	32416	
3878	0	32416	
3879	0	32368	
3880	0	32416	
3881	0	32496	
3882	0	32592	
3883	0	32592	
3884	0	32640	
3885	0	32716	
3886	0	32688	
3887	0	32552	
3888	0	32384	
3889	0	32440	
3890	0	32592	
3891	0	32672	
3892	0	32680	
3893	0	32416	
3894	0	32380	
3895	0	32490	
3896	0	32488	
3897	0	32396	
3898	0	32200	
3899	0	31984	
3900	0	31860	
3901	0	31860	
3902	0	31952	
3903	0	32112	
3904	0	32280	
3905	0	32640	
3906	0	33148	
3907	0	33736	
3908	0	34418	
3909	0	35236	
3910	0	36130	
3911	0	37168	
3912	0	38456	
3913	0	39952	
3914	0	41476	
3915	0	43008	
3916	0	44468	
3917	0	45864	
3918	0	47348	
3919	0	49008	
3920	0	50568	
3921	0	51876	
3922	0	53016	
3923	0	54244	
3924	0	55424	
3925	0	56544	
3926	0	57688	
3927	0	58784	
3928	0	59652	
3929	0	60128	
3930	0	60192	
3931	0	59420	
3932	0	57732	
3933	0	55388	
3934	0	52524	
3935	0	49412	
3936	0	46360	
3937	0	43104	
3938	0	39504	
3939	0	35680	
3940	0	32288	
3941	0	29736	
3942	0	27994	
3943	0	26978	
3944	0	26449	
3945	0	26372	
3946	0	26456	
3947	0	26598	
3948	0	26720	
3949	0	26906	
3950	0	27176	
3951	0	27480	
3952	0	27820	
3953	0	28148	
3954	0	28652	
3955	0	29180	
3956	0	29592	
3957	0	29920	
3958	0	30294	
3959	0	30726	
3960	0	31052	
3961	0	31280	
3962	0	31440	
3963	0	31556	
3964	0	31678	
3965	0	31584	
3966	0	31432	
3967	0	31276	
3968	0	31188	
3969	0	31092	
3970	0	31028	
3971	0	31080	
3972	0	31184	
3973	0	31232	
3974	0	31228	
3975	0	31192	
3976	0	31104	
3977	0	31076	
3978	0	31168	
3979	0	31144	
3980	0	31072	
3981	0	31020	
3982	0	30986	
3983	0	30938	
3984	0	30892	
3985	0	30924	
3986	0	30968	
3987	0	30988	
3988	0	31002	
3989	0	31032	
3990	0	31120	
3991	0	31188	
3992	0	31280	
3993	0	31408	
3994	0	31534	
3995	0	31592	
3996	0	31676	
3997	0	31760	
3998	0	31716	
3999	0	31636	
4000	0	31580	
4001	0	31596	
4002	0	31712	
4003	0	31828	
4004	0	31740	
4005	0	31596	
4006	0	31590	
4007	0	31564	
4008	0	31508	
4009	0	31512	
4010	0	31566	
4011	0	31600	
4012	0	31612	
4013	0	31624	
4014	0	31652	
4015	0	31728	
4016	0	31844	
4017	0	31856	
4018	0	31856	
4019	0	31872	
4020	0	32056	
4021	0	32208	
4022	0	32180	
4023	0	32160	
4024	0	32164	
4025	0	32032	
4026	0	31862	
4027	0	31784	
4028	0	31852	
4029	0	31984	
4030	0	31992	
4031	0	31982	
4032	0	32072	
4033	0	32172	
4034	0	32204	
4035	0	32068	
4036	0	32008	
4037	0	32044	
4038	0	32108	
4039	0	32100	
4040	0	32088	
4041	0	32128	
4042	0	32296	
4043	0	32350	
4044	0	32360	
4045	0	32288	
4046	0	32216	
4047	0	32252	
4048	0	32292	
4049	0	32404	
4050	0	32476	
4051	0	32516	
4052	0	32516	
4053	0	32533	
4054	0	32552	
4055	0	32520	
4056	0	32540	
4057	0	32624	
4058	0	32672	
4059	0	32624	
4060	0	32628	
4061	0	32652	
4062	0	32660	
4063	0	32688	
4064	0	32688	
4065	0	32696	
4066	0	32644	
4067	0	32612	
4068	0	32678	
4069	0	32772	
4070	0	32832	
4071	0	32868	
4072	0	32952	
4073	0	33082	
4074	0	33188	
4075	0	33304	
4076	0	33264	
4077	0	33124	
4078	0	33112	
4079	0	33184	
4080	0	33192	
4081	0	33236	
4082	0	33300	
4083	0	33312	
4084	0	33240	
4085	0	33128	
4086	0	33186	
4087	0	33256	
4088	0	33332	
4089	0	33356	
4090	0	33376	
4091	0	33344	
4092	0	33372	
4093	0	33468	
4094	0	33540	
4095	0	33520	
4096	0	33560	
4097	0	33736	
4098	0	33924	
4099	0	33964	
4100	0	33888	
4101	0	33884	
4102	0	33924	
4103	0	33948	
4104	0	33882	
4105	0	33832	
4106	0	33896	
4107	0	33972	
4108	0	33968	
4109	0	33984	
4110	0	34052	
4111	0	34000	
4112	0	33936	
4113	0	33936	
4114	0	34026	
4115	0	34208	
4116	0	34372	
4117	0	34544	
4118	0	34624	
4119	0	34686	
4120	0	34776	
4121	0	34860	
4122	0	35080	
4123	0	35192	
4124	0	35188	
4125	0	35176	
4126	0	35208	
4127	0	35290	
4128	0	35392	
4129	0	35436	
4130	0	35444	
4131	0	35392	
4132	0	35364	
4133	0	35404	
4134	0	35488	
4135	0	35624	
4136	0	35740	
4137	0	35872	
4138	0	36084	
4139	0	36384	
4140	0	36580	
4141	0	36584	
4142	0	36600	
4143	0	36656	
4144	0	36660	
4145	0	36696	
4146	0	36724	
4147	0	36672	
4148	0	36736	
4149	0	36828	
4150	0	36964	
4151	0	37068	
4152	0	37120	
4153	0	37164	
4154	0	37200	
4155	0	37236	
4156	0	37308	
4157	0	37532	
4158	0	37708	
4159	0	37788	
4160	0	37808	
4161	0	37824	
4162	0	37804	
4163	0	37836	
4164	0	37848	
4165	0	37826	
4166	0	37824	
4167	0	37876	
4168	0	38056	
4169	0	38168	
4170	0	38200	
4171	0	38244	
4172	0	38244	
4173	0	38336	
4174	0	38536	
4175	0	38492	
4176	0	38316	
4177	0	38160	
4178	0	38060	
4179	0	38092	
4180	0	38160	
4181	0	38184	
4182	0	38116	
4183	0	38040	
4184	0	37932	
4185	0	37788	
4186	0	37696	
4187	0	37648	
4188	0	37596	
4189	0	37464	
4190	0	37192	
4191	0	36996	
4192	0	36850	
4193	0	36788	
4194	0	36752	
4195	0	36544	
4196	0	36340	
4197	0	36220	
4198	0	36072	
4199	0	35896	
4200	0	35720	
4201	0	35572	
4202	0	35344	
4203	0	35136	
4204	0	34892	
4205	0	34650	
4206	0	34448	
4207	0	34352	
4208	0	34310	
4209	0	34184	
4210	0	33952	
4211	0	33728	
4212	0	33552	
4213	0	33348	
4214	0	33088	
4215	0	32756	
4216	0	32456	
4217	0	32256	
4218	0	32104	
4219	0	32000	
4220	0	31892	
4221	0	31628	
4222	0	31356	
4223	0	31240	
4224	0	31220	
4225	0	31044	
4226	0	30776	
4227	0	30574	
4228	0	30428	
4229	0	30252	
4230	0	30112	
4231	0	29952	
4232	0	29824	
4233	0	29704	
4234	0	29620	
4235	0	29568	
4236	0	29522	
4237	0	29424	
4238	0	29316	
4239	0	29336	
4240	0	29404	
4241	0	29382	
4242	0	29240	
4243	0	29110	
4244	0	29008	
4245	0	28904	
4246	0	28844	
4247	0	28796	
4248	0	28828	
4249	0	28778	
4250	0	28740	
4251	0	28696	
4252	0	28648	
4253	0	28624	
4254	0	28508	
4255	0	28476	
4256	0	28474	
4257	0	28520	
4258	0	28524	
4259	0	28472	
4260	0	28540	
4261	0	28672	
4262	0	28664	
4263	0	28548	
4264	0	28464	
4265	0	28444	
4266	0	28476	
4267	0	28504	
4268	0	28514	
4269	0	28420	
4270	0	28392	
4271	0	28512	
4272	0	28576	
4273	0	28752	
4274	0	28920	
4275	0	28836	
4276	0	28732	
4277	0	28688	
4278	0	28676	
4279	0	28688	
4280	0	28768	
4281	0	28764	
4282	0	28768	
4283	0	28816	
4284	0	28834	
4285	0	28848	
4286	0	28804	
4287	0	28780	
4288	0	28760	
4289	0	28716	
4290	0	28776	
4291	0	28870	
4292	0	28864	
4293	0	28980	
4294	0	29136	
4295	0	29152	
4296	0	29152	
4297	0	29186	
4298	0	29160	
4299	0	29200	
4300	0	29152	
4301	0	29184	
4302	0	29232	
4303	0	29288	
4304	0	29360	
4305	0	29416	
4306	0	29388	
4307	0	29268	
4308	0	29228	
4309	0	29224	
4310	0	29257	
4311	0	29328	
4312	0	29388	
4313	0	29408	
4314	0	29432	
4315	0	29444	
4316	0	29472	
4317	0	29604	
4318	0	29656	
4319	0	29640	
4320	0	29620	
4321	0	29682	
4322	0	29788	
4323	0	29864	
4324	0	29920	
4325	0	30036	
4326	0	30104	
4327	0	30132	
4328	0	30088	
4329	0	30016	
4330	0	29908	
4331	0	29856	
4332	0	29936	
4333	0	29968	
4334	0	29998	
4335	0	30076	
4336	0	30184	
4337	0	30260	
4338	0	30266	
4339	0	30278	
4340	0	30424	
4341	0	30480	
4342	0	30412	
4343	0	30372	
4344	0	30292	
4345	0	30252	
4346	0	30108	
4347	0	30000	
4348	0	29984	
4349	0	30032	
4350	0	30028	
4351	0	30048	
4352	0	30108	
4353	0	30244	
4354	0	30320	
4355	0	30432	
4356	0	30528	
4357	0	30626	
4358	0	30762	
4359	0	30868	
4360	0	31000	
4361	0	31028	
4362	0	30912	
4363	0	30872	
4364	0	30848	
4365	0	30808	
4366	0	30760	
4367	0	30768	
4368	0	30904	
4369	0	31008	
4370	0	31078	
4371	0	31012	
4372	0	30972	
4373	0	30920	
4374	0	30928	
4375	0	30938	
4376	0	30892	
4377	0	30804	
4378	0	30768	
4379	0	30816	
4380	0	30900	
4381	0	30884	
4382	0	30808	
4383	0	30776	
4384	0	30820	
4385	0	30832	
4386	0	30796	
4387	0	30794	
4388	0	30700	
4389	0	30680	
4390	0	30816	
4391	0	31096	
4392	0	31232	
4393	0	31096	
4394	0	30972	
4395	0	30992	
4396	0	31080	
4397	0	31216	
4398	0	31344	
4399	0	31416	
4400	0	31456	
4401	0	31394	
4402	0	31264	
4403	0	31202	
4404	0	31168	
4405	0	31260	
4406	0	31332	
4407	0	31268	
4408	0	31272	
4409	0	31288	
4410	0	31270	
4411	0	31268	
4412	0	31288	
4413	0	31290	
4414	0	31296	
4415	0	31392	
4416	0	31536	
4417	0	31664	
4418	0	31512	
4419	0	31328	
4420	0	31380	
4421	0	31432	
4422	0	31452	
4423	0	31468	
4424	0	31448	
4425	0	31400	
4426	0	31312	
4427	0	31184	
4428	0	31080	
4429	0	31018	
4430	0	31072	
4431	0	31168	
4432	0	31232	
4433	0	31256	
4434	0	31300	
4435	0	31272	
4436	0	31208	
4437	0	31156	
4438	0	31184	
4439	0	31344	
4440	0	31464	
4441	0	31512	
4442	0	31484	
4443	0	31440	
4444	0	31472	
4445	0	31512	
4446	0	31594	
4447	0	31704	
4448	0	31802	
4449	0	31896	
4450	0	31964	
4451	0	31964	
4452	0	31924	
4453	0	31860	
4454	0	31876	
4455	0	31808	
4456	0	31808	
4457	0	31808	
4458	0	31840	
4459	0	31768	
4460	0	31700	
4461	0	31688	
4462	0	31632	
4463	0	31568	
4464	0	31508	
4465	0	31456	
4466	0	31330	
4467	0	31392	
4468	0	31556	
4469	0	31600	
4470	0	31604	
4471	0	31608	
4472	0	31616	
4473	0	31604	
4474	0	31668	
4475	0	31840	
4476	0	32052	
4477	0	32268	
4478	0	32336	
4479	0	32240	
4480	0	32076	
4481	0	32056	
4482	0	32076	
4483	0	32132	
4484	0	32194	
4485	0	32188	
4486	0	32260	
4487	0	32280	
4488	0	32380	
4489	0	32592	
4490	0	32828	
4491	0	33052	
4492	0	33028	
4493	0	32972	
4494	0	33052	
4495	0	33144	
4496	0	33184	
4497	0	33256	
4498	0	33260	
4499	0	33264	
4500	0	33304	
4501	0	33424	
4502	0	33552	
4503	0	33648	
4504	0	33818	
4505	0	33852	
4506	0	33778	
4507	0	33780	
4508	0	33820	
4509	0	33820	
4510	0	33932	
4511	0	34020	
4512	0	34132	
4513	0	34216	
4514	0	34364	
4515	0	34504	
4516	0	34572	
4517	0	34624	
4518	0	34692	
4519	0	34772	
4520	0	34876	
4521	0	34912	
4522	0	34872	
4523	0	34956	
4524	0	34992	
4525	0	34992	
4526	0	35032	
4527	0	35108	
4528	0	35176	
4529	0	35172	
4530	0	34968	
4531	0	34738	
4532	0	34672	
4533	0	34664	
4534	0	34504	
4535	0	34338	
4536	0	34244	
4537	0	34100	
4538	0	33892	
4539	0	33756	
4540	0	33728	
4541	0	33788	
4542	0	33772	
4543	0	33720	
4544	0	33524	
4545	0	33256	
4546	0	33048	
4547	0	33030	
4548	0	32992	
4549	0	32960	
4550	0	33028	
4551	0	33078	
4552	0	33120	
4553	0	33144	
4554	0	33056	
4555	0	32836	
4556	0	32668	
4557	0	32514	
4558	0	32428	
4559	0	32376	
4560	0	32320	
4561	0	32308	
4562	0	32244	
4563	0	32280	
4564	0	32282	
4565	0	32256	
4566	0	32100	
4567	0	32032	
4568	0	32040	
4569	0	31984	
4570	0	31704	
4571	0	31520	
4572	0	31521	
4573	0	31488	
4574	0	31368	
4575	0	31242	
4576	0	31204	
4577	0	31260	
4578	0	31320	
4579	0	31360	
4580	0	31384	
4581	0	31388	
4582	0	31452	
4583	0	31490	
4584	0	31522	
4585	0	31356	
4586	0	31180	
4587	0	31128	
4588	0	31212	
4589	0	31330	
4590	0	31384	
4591	0	31344	
4592	0	31316	
4593	0	31388	
4594	0	31472	
4595	0	31640	
4596	0	31768	
4597	0	31844	
4598	0	31864	
4599	0	31824	
4600	0	31784	
4601	0	31804	
4602	0	31784	
4603	0	31834	
4604	0	31906	
4605	0	31908	
4606	0	31820	
4607	0	31804	
4608	0	31744	
4609	0	31682	
4610	0	31696	
4611	0	31680	
4612	0	31732	
4613	0	31748	
4614	0	31708	
4615	0	31688	
4616	0	31708	
4617	0	31788	
4618	0	31862	
4619	0	31896	
4620	0	31912	
4621	0	31848	
4622	0	31716	
4623	0	31712	
4624	0	31768	
4625	0	31872	
4626	0	31884	
4627	0	31868	
4628	0	31860	
4629	0	31920	
4630	0	32036	
4631	0	32112	
4632	0	32136	
4633	0	32096	
4634	0	32058	
4635	0	32044	
4636	0	32056	
4637	0	32144	
4638	0	32234	
4639	0	32288	
4640	0	32312	
4641	0	32352	
4642	0	32380	
4643	0	32336	
4644	0	32344	
4645	0	32376	
4646	0	32320	
4647	0	32316	
4648	0	32252	
4649	0	32092	
4650	0	32112	
4651	0	31936	
4652	0	31708	
4653	0	31660	
4654	0	31600	
4655	0	31472	
4656	0	31524	
4657	0	31672	
4658	0	31868	
4659	0	32124	
4660	0	32440	
4661	0	32992	
4662	0	33744	
4663	0	34492	
4664	0	35200	
4665	0	36048	
4666	0	37168	
4667	0	38364	
4668	0	39736	
4669	0	41208	
4670	0	42672	
4671	0	44276	
4672	0	45908	
4673	0	47508	
4674	0	49152	
4675	0	50680	
4676	0	52048	
4677	0	53360	
4678	0	54620	
4679	0	55908	
4680	0	57168	
4681	0	58212	
4682	0	59264	
4683	0	60232	
4684	0	60924	
4685	0	61136	
4686	0	60308	
4687	0	58488	
4688	0	56016	
4689	0	53040	
4690	0	49752	
4691	0	46464	
4692	0	43076	
4693	0	39352	
4694	0	35396	
4695	0	31886	
4696	0	29112	
4697	0	27168	
4698	0	26204	
4699	0	25848	
4700	0	25736	
4701	0	25832	
4702	0	25984	
4703	0	26164	
4704	0	26400	
4705	0	26656	
4706	0	26914	
4707	0	27156	
4708	0	27424	
4709	0	27656	
4710	0	27936	
4711	0	28320	
4712	0	28796	
4713	0	29200	
4714	0	29614	
4715	0	29992	
4716	0	30268	
4717	0	30416	
4718	0	30618	
4719	0	30752	
4720	0	30780	
4721	0	30928	
4722	0	31000	
4723	0	30970	
4724	0	30930	
4725	0	30964	
4726	0	31086	
4727	0	31068	
4728	0	30908	
4729	0	30736	
4730	0	30624	
4731	0	30644	
4732	0	30644	
4733	0	30668	
4734	0	30696	
4735	0	30732	
4736	0	30668	
4737	0	30600	
4738	0	30716	
4739	0	30748	
4740	0	30690	
4741	0	30684	
4742	0	30700	
4743	0	30644	
4744	0	30580	
4745	0	30568	
4746	0	30560	
4747	0	30424	
4748	0	30256	
4749	0	30250	
4750	0	30376	
4751	0	30524	
4752	0	30684	
4753	0	30800	
4754	0	30864	
4755	0	30936	
4756	0	31100	
4757	0	31116	
4758	0	31072	
4759	0	31044	
4760	0	31168	
4761	0	31256	
4762	0	31252	
4763	0	31328	
4764	0	31400	
4765	0	31348	
4766	0	31240	
4767	0	31192	
4768	0	31208	
4769	0	31216	
4770	0	31176	
4771	0	31160	
4772	0	31164	
4773	0	31236	
4774	0	31320	
4775	0	31376	
4776	0	31504	
4777	0	31536	
4778	0	31614	
4779	0	31664	
4780	0	31716	
4781	0	31756	
4782	0	31844	
4783	0	31920	
4784	0	31916	
4785	0	31852	
4786	0	31776	
4787	0	31708	
4788	0	31732	
4789	0	31748	
4790	0	31746	
4791	0	31788	
4792	0	31834	
4793	0	31928	
4794	0	31984	
4795	0	31952	
4796	0	31920	
4797	0	31872	
4798	0	31896	
4799	0	31984	
4800	0	32020	
4801	0	32048	
4802	0	32068	
4803	0	32056	
4804	0	32130	
4805	0	32188	
4806	0	32232	
4807	0	32292	
4808	0	32304	
4809	0	32396	
4810	0	32464	
4811	0	32440	
4812	0	32436	
4813	0	32480	
4814	0	32548	
4815	0	32680	
4816	0	32724	
4817	0	32800	
4818	0	32900	
4819	0	32968	
4820	0	32960	
4821	0	33000	
4822	0	32978	
4823	0	32876	
4824	0	32738	
4825	0	32636	
4826	0	32628	
4827	0	32680	
4828	0	32682	
4829	0	32616	
4830	0	32624	
4831	0	32596	
4832	0	32592	
4833	0	32660	
4834	0	32864	
4835	0	33036	
4836	0	33112	
4837	0	33164	
4838	0	33248	
4839	0	33280	
4840	0	33348	
4841	0	33420	
4842	0	33472	
4843	0	33556	
4844	0	33552	
4845	0	33540	
4846	0	33500	
4847	0	33424	
4848	0	33412	
4849	0	33564	
4850	0	33640	
4851	0	33588	
4852	0	33492	
4853	0	33468	
4854	0	33588	
4855	0	33696	
4856	0	33832	
4857	0	33804	
4858	0	33672	
4859	0	33604	
4860	0	33634	
4861	0	33744	
4862	0	33908	
4863	0	34040	
4864	0	34120	
4865	0	34180	
4866	0	34224	
4867	0	34320	
4868	0	34444	
4869	0	34412	
4870	0	34362	
4871	0	34312	
4872	0	34448	
4873	0	34600	
4874	0	34732	
4875	0	34844	
4876	0	34910	
4877	0	34972	
4878	0	35096	
4879	0	35240	
4880	0	35332	
4881	0	35468	
4882	0	35544	
4883	0	35520	
4884	0	35492	
4885	0	35468	
4886	0	35508	
4887	0	35544	
4888	0	35620	
4889	0	35680	
4890	0	35804	
4891	0	35952	
4892	0	36104	
4893	0	36180	
4894	0	36292	
4895	0	36348	
4896	0	36320	
4897	0	36328	
4898	0	36424	
4899	0	36514	
4900	0	36648	
4901	0	36772	
4902	0	36852	
4903	0	36880	
4904	0	36904	
4905	0	36940	
4906	0	36972	
4907	0	36992	
4908	0	37088	
4909	0	37196	
4910	0	37248	
4911	0	37320	
4912	0	37440	
4913	0	37534	
4914	0	37704	
4915	0	37884	
4916	0	37912	
4917	0	37952	
4918	0	38132	
4919	0	38276	
4920	0	38416	
4921	0	38528	
4922	0	38560	
4923	0	38572	
4924	0	38602	
4925	0	38624	
4926	0	38612	
4927	0	38648	
4928	0	38668	
4929	0	38652	
4930	0	38588	
4931	0	38468	
4932	0	38336	
4933	0	38200	
4934	0	38144	
4935	0	38144	
4936	0	38156	
4937	0	38164	
4938	0	38176	
4939	0	38104	
4940	0	38016	
4941	0	37896	
4942	0	37796	
4943	0	37708	
4944	0	37568	
4945	0	37348	
4946	0	37096	
4947	0	36828	
4948	0	36610	
4949	0	36408	
4950	0	36168	
4951	0	35936	
4952	0	35748	
4953	0	35660	
4954	0	35588	
4955	0	35484	
4956	0	35372	
4957	0	35216	
4958	0	34972	
4959	0	34810	
4960	0	34678	
4961	0	34512	
4962	0	34308	
4963	0	34080	
4964	0	33832	
4965	0	33570	
4966	0	33312	
4967	0	33024	
4968	0	32792	
4969	0	32596	
4970	0	32356	
4971	0	32196	
4972	0	32000	
4973	0	31752	
4974	0	31622	
4975	0	31552	
4976	0	31384	
4977	0	31172	
4978	0	31040	
4979	0	30928	
4980	0	30848	
4981	0	30736	
4982	0	30648	
4983	0	30496	
4984	0	30374	
4985	0	30284	
4986	0	30140	
4987	0	29974	
4988	0	29832	
4989	0	29732	
4990	0	29716	
4991	0	29676	
4992	0	29564	
4993	0	29428	
4994	0	29288	
4995	0	29166	
4996	0	29160	
4997	0	29212	
4998	0	29228	
4999	0	29172	
5000	0	29176	
5001	0	29256	
5002	0	29292	
5003	0	29236	
5004	0	29098	
5005	0	28964	
5006	0	28792	
5007	0	28712	
5008	0	28780	
5009	0	28768	
5010	0	28640	
5011	0	28560	
5012	0	28480	
5013	0	28528	
5014	0	28564	
5015	0	28584	
5016	0	28624	
5017	0	28679	
5018	0	28740	
5019	0	28864	
5020	0	28944	
5021	0	29060	
5022	0	29104	
5023	0	29090	
5024	0	29018	
5025	0	28982	
5026	0	28952	
5027	0	28900	
5028	0	28964	
5029	0	29052	
5030	0	29108	
5031	0	29112	
5032	0	29160	
5033	0	29232	
5034	0	29276	
5035	0	29350	
5036	0	29328	
5037	0	29276	
5038	0	29252	
5039	0	29280	
5040	0	29282	
5041	0	29302	
5042	0	29316	
5043	0	29344	
5044	0	29304	
5045	0	29288	
5046	0	29236	
5047	0	29188	
5048	0	29168	
5049	0	29172	
5050	0	29190	
5051	0	29236	
5052	0	29288	
5053	0	29336	
5054	0	29316	
5055	0	29332	
5056	0	29408	
5057	0	29592	
5058	0	29660	
5059	0	29660	
5060	0	29632	
5061	0	29616	
5062	0	29620	
5063	0	29660	
5064	0	29668	
5065	0	29690	
5066	0	29768	
5067	0	29860	
5068	0	29944	
5069	0	29844	
5070	0	29712	
5071	0	29720	
5072	0	29788	
5073	0	29876	
5074	0	30004	
5075	0	30120	
5076	0	30186	
5077	0	30242	
5078	0	30321	
5079	0	30360	
5080	0	30408	
5081	0	30394	
5082	0	30456	
5083	0	30444	
5084	0	30372	
5085	0	30412	
5086	0	30480	
5087	0	30396	
5088	0	30284	
5089	0	30376	
5090	0	30380	
5091	0	30360	
5092	0	30380	
5093	0	30428	
5094	0	30476	
5095	0	30488	
5096	0	30496	
5097	0	30492	
5098	0	30556	
5099	0	30616	
5100	0	30696	
5101	0	30816	
5102	0	30968	
5103	0	31032	
5104	0	30932	
5105	0	30854	
5106	0	30778	
5107	0	30772	
5108	0	30740	
5109	0	30668	
5110	0	30560	
5111	0	30548	
5112	0	30608	
5113	0	30682	
5114	0	30768	
5115	0	30812	
5116	0	30816	
5117	0	30820	
5118	0	30790	
5119	0	30824	
5120	0	30944	
5121	0	31108	
5122	0	31226	
5123	0	31252	
5124	0	31204	
5125	0	31088	
5126	0	31016	
5127	0	30992	
5128	0	30984	
5129	0	30942	
5130	0	30910	
5131	0	30882	
5132	0	30880	
5133	0	30964	
5134	0	31048	
5135	0	31084	
5136	0	31072	
5137	0	31040	
5138	0	31152	
5139	0	31216	
5140	0	31298	
5141	0	31320	
5142	0	31296	
5143	0	31236	
5144	0	31266	
5145	0	31272	
5146	0	31304	
5147	0	31256	
5148	0	31252	
5149	0	31232	
5150	0	31238	
5151	0	31248	
5152	0	31248	
5153	0	31280	
5154	0	31356	
5155	0	31344	
5156	0	31192	
5157	0	31000	
5158	0	30944	
5159	0	31016	
5160	0	31152	
5161	0	31236	
5162	0	31252	
5163	0	31224	
5164	0	31252	
5165	0	31260	
5166	0	31268	
5167	0	31242	
5168	0	31212	
5169	0	31172	
5170	0	31200	
5171	0	31232	
5172	0	31258	
5173	0	31328	
5174	0	31372	
5175	0	31356	
5176	0	31320	
5177	0	31440	
5178	0	31632	
5179	0	31708	
5180	0	31692	
5181	0	31524	
5182	0	31418	
5183	0	31416	
5184	0	31420	
5185	0	31388	
5186	0	31408	
5187	0	31392	
5188	0	31404	
5189	0	31424	
5190	0	31402	
5191	0	31440	
5192	0	31508	
5193	0	31552	
5194	0	31568	
5195	0	31568	
5196	0	31546	
5197	0	31544	
5198	0	31544	
5199	0	31460	
5200	0	31392	
5201	0	31372	
5202	0	31380	
5203	0	31372	
5204	0	31296	
5205	0	31244	
5206	0	31260	
5207	0	31256	
5208	0	31290	
5209	0	31328	
5210	0	31372	
5211	0	31420	
5212	0	31476	
5213	0	31592	
5214	0	31712	
5215	0	31776	
5216	0	31844	
5217	0	31896	
5218	0	32016	
5219	0	32220	
5220	0	32456	
5221	0	32644	
5222	0	32788	
5223	0	32896	
5224	0	32980	
5225	0	33044	
5226	0	33104	
5227	0	33120	
5228	0	33112	
5229	0	33116	
5230	0	33204	
5231	0	33196	
5232	0	33190	
5233	0	33276	
5234	0	33392	
5235	0	33496	
5236	0	33506	
5237	0	33500	
5238	0	33546	
5239	0	33648	
5240	0	33748	
5241	0	33824	
5242	0	33964	
5243	0	34200	
5244	0	34304	
5245	0	34360	
5246	0	34482	
5247	0	34580	
5248	0	34656	
5249	0	34672	
5250	0	34604	
5251	0	34568	
5252	0	34568	
5253	0	34580	
5254	0	34672	
5255	0	34784	
5256	0	34852	
5257	0	34888	
5258	0	34968	
5259	0	34940	
5260	0	34822	
5261	0	34732	
5262	0	34712	
5263	0	34700	
5264	0	34576	
5265	0	34352	
5266	0	34074	
5267	0	33880	
5268	0	33704	
5269	0	33576	
5270	0	33452	
5271	0	33412	
5272	0	33312	
5273	0	33128	
5274	0	33014	
5275	0	32952	
5276	0	32980	
5277	0	33032	
5278	0	33036	
5279	0	33044	
5280	0	33136	
5281	0	33148	
5282	0	33128	
5283	0	33000	
5284	0	32868	
5285	0	32756	
5286	0	32676	
5287	0	32540	
5288	0	32456	
5289	0	32384	
5290	0	32312	
5291	0	32208	
5292	0	32106	
5293	0	32012	
5294	0	31924	
5295	0	31810	
5296	0	31728	
5297	0	31656	
5298	0	31536	
5299	0	31490	
5300	0	31520	
5301	0	31522	
5302	0	31496	
5303	0	31416	
5304	0	31300	
5305	0	31204	
5306	0	31124	
5307	0	31068	
5308	0	30978	
5309	0	30920	
5310	0	30884	
5311	0	30920	
5312	0	30928	
5313	0	30880	
5314	0	30916	
5315	0	30904	
5316	0	30936	
5317	0	31074	
5318	0	31146	
5319	0	31060	
5320	0	31072	
5321	0	31218	
5322	0	31196	
5323	0	31098	
5324	0	31052	
5325	0	31016	
5326	0	30996	
5327	0	30980	
5328	0	31028	
5329	0	31072	
5330	0	31058	
5331	0	31044	
5332	0	31008	
5333	0	31118	
5334	0	31176	
5335	0	31178	
5336	0	31204	
5337	0	31248	
5338	0	31216	
5339	0	31156	
5340	0	31244	
5341	0	31336	
5342	0	31348	
5343	0	31322	
5344	0	31324	
5345	0	31316	
5346	0	31408	
5347	0	31400	
5348	0	31280	
5349	0	31264	
5350	0	31212	
5351	0	31192	
5352	0	31216	
5353	0	31276	
5354	0	31320	
5355	0	31320	
5356	0	31256	
5357	0	31252	
5358	0	31276	
5359	0	31332	
5360	0	31382	
5361	0	31464	
5362	0	31576	
5363	0	31592	
5364	0	31552	
5365	0	31496	
5366	0	31384	
5367	0	31320	
5368	0	31408	
5369	0	31500	
5370	0	31508	
5371	0	31492	
5372	0	31488	
5373	0	31528	
5374	0	31596	
5375	0	31616	
5376	0	31616	
5377	0	31656	
5378	0	31756	
5379	0	31748	
5380	0	31708	
5381	0	31650	
5382	0	31600	
5383	0	31424	
5384	0	31260	
5385	0	31224	
5386	0	31204	
5387	0	31182	
5388	0	31236	
5389	0	31456	
5390	0	31936	
5391	0	32544	
5392	0	33184	
5393	0	33892	
5394	0	34816	
5395	0	35864	
5396	0	36996	
5397	0	38288	
5398	0	39794	
5399	0	41304	
5400	0	42752	
5401	0	44236	
5402	0	45724	
5403	0	47264	
5404	0	48816	
5405	0	50204	
5406	0	51468	
5407	0	52708	
5408	0	53908	
5409	0	55080	
5410	0	56224	
5411	0	57352	
5412	0	58408	
5413	0	59300	
5414	0	59876	
5415	0	59962	
5416	0	59048	
5417	0	57256	
5418	0	54768	
5419	0	51736	
5420	0	48400	
5421	0	45124	
5422	0	41712	
5423	0	37960	
5424	0	34040	
5425	0	30632	
5426	0	27968	
5427	0	26272	
5428	0	25400	
5429	0	25112	
5430	0	25088	
5431	0	25218	
5432	0	25376	
5433	0	25556	
5434	0	25776	
5435	0	26040	
5436	0	26392	
5437	0	26828	
5438	0	27332	
5439	0	27772	
5440	0	28132	
5441	0	28448	
5442	0	28814	
5443	0	29148	
5444	0	29508	
5445	0	29896	
5446	0	30250	
5447	0	30480	
5448	0	30632	
5449	0	30712	
5450	0	30636	
5451	0	30488	
5452	0	30408	
5453	0	30372	
5454	0	30332	
5455	0	30292	
5456	0	30188	
5457	0	30078	
5458	0	30012	
5459	0	30072	
5460	0	30182	
5461	0	30156	
5462	0	30148	
5463	0	30204	
5464	0	30276	
5465	0	30232	
5466	0	30120	
5467	0	30104	
5468	0	30140	
5469	0	30144	
5470	0	30132	
5471	0	30156	
5472	0	30160	
5473	0	30178	
5474	0	30224	
5475	0	30252	
5476	0	30240	
5477	0	30224	
5478	0	30250	
5479	0	30356	
5480	0	30552	
5481	0	30620	
5482	0	30704	
5483	0	30788	
5484	0	30752	
5485	0	30664	
5486	0	30588	
5487	0	30496	
5488	0	30476	
5489	0	30568	
5490	0	30706	
5491	0	30744	
5492	0	30700	
5493	0	30724	
5494	0	30784	
5495	0	30864	
5496	0	30896	
5497	0	30912	
5498	0	31024	
5499	0	31166	
5500	0	31216	
5501	0	31248	
5502	0	31200	
5503	0	31232	
5504	0	31232	
5505	0	31164	
5506	0	31128	
5507	0	31112	
5508	0	31152	
5509	0	31148	
5510	0	31104	
5511	0	31100	
5512	0	31196	
5513	0	31252	
5514	0	31264	
5515	0	31328	
5516	0	31374	
5517	0	31354	
5518	0	31412	
5519	0	31520	
5520	0	31596	
5521	0	31616	
5522	0	31632	
5523	0	31668	
5524	0	31708	
5525	0	31676	
5526	0	31630	
5527	0	31616	
5528	0	31594	
5529	0	31604	
5530	0	31604	
5531	0	31632	
5532	0	31660	
5533	0	31744	
5534	0	31820	
5535	0	31860	
5536	0	31956	
5537	0	32052	
5538	0	32144	
5539	0	32256	
5540	0	32376	
5541	0	32332	
5542	0	32220	
5543	0	32176	
5544	0	32116	
5545	0	32120	
5546	0	32116	
5547	0	32088	
5548	0	32088	
5549	0	32080	
5550	0	32128	
5551	0	32160	
5552	0	32212	
5553	0	32284	
5554	0	32336	
5555	0	32432	
5556	0	32480	
5557	0	32476	
5558	0	32496	
5559	0	32556	
5560	0	32676	
5561	0	32764	
5562	0	32816	
5563	0	32864	
5564	0	32850	
5565	0	32840	
5566	0	32844	
5567	0	32840	
5568	0	32788	
5569	0	32788	
5570	0	32820	
5571	0	32800	
5572	0	32792	
5573	0	32944	
5574	0	33056	
5575	0	33060	
5576	0	33100	
5577	0	33100	
5578	0	33144	
5579	0	33196	
5580	0	33256	
5581	0	33320	
5582	0	33336	
5583	0	33364	
5584	0	33416	
5585	0	33480	
5586	0	33498	
5587	0	33456	
5588	0	33444	
5589	0	33468	
5590	0	33552	
5591	0	33664	
5592	0	33770	
5593	0	33844	
5594	0	33804	
5595	0	33812	
5596	0	33876	
5597	0	34012	
5598	0	34096	
5599	0	34156	
5600	0	34250	
5601	0	34328	
5602	0	34404	
5603	0	34520	
5604	0	34570	
5605	0	34568	
5606	0	34504	
5607	0	34434	
5608	0	34484	
5609	0	34616	
5610	0	34712	
5611	0	34796	
5612	0	34860	
5613	0	34940	
5614	0	35000	
5615	0	35074	
5616	0	35198	
5617	0	35364	
5618	0	35458	
5619	0	35572	
5620	0	35744	
5621	0	35800	
5622	0	35896	
5623	0	36056	
5624	0	36144	
5625	0	36138	
5626	0	36112	
5627	0	36120	
5628	0	36180	
5629	0	36316	
5630	0	36362	
5631	0	36384	
5632	0	36440	
5633	0	36484	
5634	0	36560	
5635	0	36708	
5636	0	36816	
5637	0	36880	
5638	0	36964	
5639	0	37048	
5640	0	37220	
5641	0	37416	
5642	0	37520	
5643	0	37660	
5644	0	37780	
5645	0	37904	
5646	0	37972	
5647	0	37872	
5648	0	37848	
5649	0	37948	
5650	0	37976	
5651	0	37996	
5652	0	37956	
5653	0	37908	
5654	0	37902	
5655	0	37952	
5656	0	38024	
5657	0	38040	
5658	0	38008	
5659	0	37976	
5660	0	37988	
5661	0	38104	
5662	0	38164	
5663	0	38060	
5664	0	37928	
5665	0	37812	
5666	0	37728	
5667	0	37660	
5668	0	37588	
5669	0	37456	
5670	0	37312	
5671	0	37172	
5672	0	37068	
5673	0	37024	
5674	0	37032	
5675	0	36906	
5676	0	36732	
5677	0	36568	
5678	0	36392	
5679	0	36216	
5680	0	36078	
5681	0	35984	
5682	0	35784	
5683	0	35592	
5684	0	35376	
5685	0	35112	
5686	0	34860	
5687	0	34626	
5688	0	34400	
5689	0	34142	
5690	0	33852	
5691	0	33569	
5692	0	33360	
5693	0	33092	
5694	0	32844	
5695	0	32640	
5696	0	32488	
5697	0	32400	
5698	0	32296	
5699	0	32148	
5700	0	31960	
5701	0	31812	
5702	0	31636	
5703	0	31448	
5704	0	31304	
5705	0	31122	
5706	0	30888	
5707	0	30740	
5708	0	30624	
5709	0	30528	
5710	0	30332	
5711	0	30116	
5712	0	29920	
5713	0	29724	
5714	0	29668	
5715	0	29656	
5716	0	29584	
5717	0	29552	
5718	0	29444	
5719	0	29312	
5720	0	29300	
5721	0	29308	
5722	0	29276	
5723	0	29172	
5724	0	29096	
5725	0	28968	
5726	0	28860	
5727	0	28716	
5728	0	28624	
5729	0	28588	
5730	0	28644	
5731	0	28740	
5732	0	28804	
5733	0	28856	
5734	0	28800	
5735	0	28696	
5736	0	28680	
5737	0	28752	
5738	0	28824	
5739	0	28886	
5740	0	28878	
5741	0	28880	
5742	0	28878	
5743	0	28880	
5744	0	28932	
5745	0	28894	
5746	0	28834	
5747	0	28740	
5748	0	28720	
5749	0	28712	
5750	0	28664	
5751	0	28570	
5752	0	28508	
5753	0	28528	
5754	0	28608	
5755	0	28612	
5756	0	28608	
5757	0	28692	
5758	0	28740	
5759	0	28860	
5760	0	28936	
5761	0	28914	
5762	0	28868	
5763	0	28808	
5764	0	28760	
5765	0	28820	
5766	0	28912	
5767	0	28892	
5768	0	28900	
5769	0	28940	
5770	0	28992	
5771	0	29072	
5772	0	29060	
5773	0	29032	
5774	0	29044	
5775	0	29160	
5776	0	29310	
5777	0	29420	
5778	0	29512	
5779	0	29504	
5780	0	29514	
5781	0	29576	
5782	0	29648	
5783	0	29640	
5784	0	29576	
5785	0	29540	
5786	0	29488	
5787	0	29400	
5788	0	29352	
5789	0	29322	
5790	0	29320	
5791	0	29408	
5792	0	29548	
5793	0	29680	
5794	0	29740	
5795	0	29720	
5796	0	29696	
5797	0	29724	
5798	0	29820	
5799	0	29864	
5800	0	29930	
5801	0	29996	
5802	0	30068	
5803	0	30124	
5804	0	30128	
5805	0	30060	
5806	0	29980	
5807	0	29956	
5808	0	30044	
5809	0	30104	
5810	0	30112	
5811	0	30092	
5812	0	30144	
5813	0	30202	
5814	0	30212	
5815	0	30200	
5816	0	30216	
5817	0	30272	
5818	0	30356	
5819	0	30356	
5820	0	30356	
5821	0	30400	
5822	0	30472	
5823	0	30552	
5824	0	30536	
5825	0	30556	
5826	0	30588	
5827	0	30524	
5828	0	30488	
5829	0	30504	
5830	0	30516	
5831	0	30504	
5832	0	30528	
5833	0	30522	
5834	0	30476	
5835	0	30444	
5836	0	30448	
5837	0	30496	
5838	0	30500	
5839	0	30548	
5840	0	30640	
5841	0	30776	
5842	0	30880	
5843	0	30864	
5844	0	30816	
5845	0	30796	
5846	0	30868	
5847	0	30944	
5848	0	30984	
5849	0	30968	
5850	0	30960	
5851	0	30960	
5852	0	30944	
5853	0	30930	
5854	0	30932	
5855	0	30970	
5856	0	31056	
5857	0	31080	
5858	0	31144	
5859	0	31264	
5860	0	31372	
5861	0	31384	
5862	0	31280	
5863	0	31252	
5864	0	31240	
5865	0	31212	
5866	0	31160	
5867	0	31088	
5868	0	31076	
5869	0	31108	
5870	0	31108	
5871	0	31124	
5872	0	31148	
5873	0	31150	
5874	0	31148	
5875	0	31196	
5876	0	31250	
5877	0	31276	
5878	0	31332	
5879	0	31384	
5880	0	31448	
5881	0	31544	
5882	0	31620	
5883	0	31648	
5884	0	31628	
5885	0	31672	
5886	0	31680	
5887	0	31584	
5888	0	31440	
5889	0	31372	
5890	0	31400	
5891	0	31504	
5892	0	31544	
5893	0	31520	
5894	0	31424	
5895	0	31300	
5896	0	31290	
5897	0	31336	
5898	0	31428	
5899	0	31460	
5900	0	31484	
5901	0	31636	
5902	0	31680	
5903	0	31608	
5904	0	31552	
5905	0	31532	
5906	0	31468	
5907	0	31464	
5908	0	31504	
5909	0	31524	
5910	0	31494	
5911	0	31480	
5912	0	31492	
5913	0	31520	
5914	0	31504	
5915	0	31536	
5916	0	31568	
5917	0	31590	
5918	0	31600	
5919	0	31608	
5920	0	31636	
5921	0	31744	
5922	0	31788	
5923	0	31692	
5924	0	31492	
5925	0	31460	
5926	0	31492	
5927	0	31460	
5928	0	31432	
5929	0	31336	
5930	0	31380	
5931	0	31452	
5932	0	31468	
5933	0	31436	
5934	0	31476	
5935	0	31510	
5936	0	31522	
5937	0	31604	
5938	0	31672	
5939	0	31726	
5940	0	31760	
5941	0	31812	
5942	0	31884	
5943	0	31944	
5944	0	31944	
5945	0	31892	
5946	0	31804	
5947	0	31776	
5948	0	31820	
5949	0	31840	
5950	0	31828	
5951	0	31780	
5952	0	31756	
5953	0	31812	
5954	0	31876	
5955	0	31892	
5956	0	31905	
5957	0	31932	
5958	0	31968	
5959	0	32012	
5960	0	32048	
5961	0	31984	
5962	0	31944	
5963	0	31948	
5964	0	31952	
5965	0	31960	
5966	0	32028	
5967	0	32100	
5968	0	32176	
5969	0	32184	
5970	0	32212	
5971	0	32312	
5972	0	32432	
5973	0	32580	
5974	0	32848	
5975	0	33008	
5976	0	33144	
5977	0	33312	
5978	0	33404	
5979	0	33482	
5980	0	33536	
5981	0	33544	
5982	0	33580	
5983	0	33656	
5984	0	33716	
5985	0	33748	
5986	0	33764	
5987	0	33744	
5988	0	33764	
5989	0	33840	
5990	0	33888	
5991	0	33936	
5992	0	34040	
5993	0	34192	
5994	0	34344	
5995	0	34440	
5996	0	34544	
5997	0	34652	
5998	0	34728	
5999	0	34840	
6000	0	34856	
6001	0	34852	
6002	0	34848	
6003	0	34880	
6004	0	34764	
6005	0	34668	
6006	0	34676	
6007	0	34772	
6008	0	34776	
6009	0	34720	
6010	0	34744	
6011	0	34912	
6012	0	35056	
6013	0	35060	
6014	0	34984	
6015	0	34892	
6016	0	34784	
6017	0	34648	
6018	0	34508	
6019	0	34330	
6020	0	34136	
6021	0	33972	
6022	0	33824	
6023	0	33682	
6024	0	33592	
6025	0	33480	
6026	0	33292	
6027	0	33140	
6028	0	33056	
6029	0	32980	
6030	0	32886	
6031	0	32800	
6032	0	32808	
6033	0	32834	
6034	0	32828	
6035	0	32860	
6036	0	32912	
6037	0	32984	
6038	0	32992	
6039	0	32948	
6040	0	32884	
6041	0	32826	
6042	0	32720	
6043	0	32632	
6044	0	32480	
6045	0	32394	
6046	0	32288	
6047	0	32148	
6048	0	32032	
6049	0	31904	
6050	0	31840	
6051	0	31728	
6052	0	31612	
6053	0	31540	
6054	0	31514	
6055	0	31560	
6056	0	31544	
6057	0	31472	
6058	0	31322	
6059	0	31188	
6060	0	31156	
6061	0	31176	
6062	0	31184	
6063	0	31212	
6064	0	31264	
6065	0	31276	
6066	0	31232	
6067	0	31240	
6068	0	31232	
6069	0	31240	
6070	0	31232	
6071	0	31280	
6072	0	31324	
6073	0	31312	
6074	0	31296	
6075	0	31316	
6076	0	31360	
6077	0	31392	
6078	0	31424	
6079	0	31428	
6080	0	31464	
6081	0	31504	
6082	0	31476	
6083	0	31492	
6084	0	31492	
6085	0	31444	
6086	0	31400	
6087	0	31380	
6088	0	31376	
6089	0	31350	
6090	0	31296	
6091	0	31220	
6092	0	31240	
6093	0	31252	
6094	0	31296	
6095	0	31360	
6096	0	31376	
6097	0	31410	
6098	0	31468	
6099	0	31500	
6100	0	31476	
6101	0	31480	
6102	0	31556	
6103	0	31616	
6104	0	31612	
6105	0	31640	
6106	0	31686	
6107	0	31692	
6108	0	31648	
6109	0	31556	
6110	0	31536	
6111	0	31548	
6112	0	31548	
6113	0	31596	
6114	0	31620	
6115	0	31628	
6116	0	31664	
6117	0	31712	
6118	0	31792	
6119	0	31828	
6120	0	31852	
6121	0	31936	
6122	0	31932	
6123	0	31924	
6124	0	31940	
6125	0	32024	
6126	0	32048	
6127	0	32020	
6128	0	31968	
6129	0	31932	
6130	0	31908	
6131	0	31908	
6132	0	31820	
6133	0	31768	
6134	0	31820	
6135	0	31748	
6136	0	31520	
6137	0	31356	
6138	0	31308	
6139	0	31440	
6140	0	31664	
6141	0	31852	
6142	0	32012	
6143	0	32324	
6144	0	32816	
6145	0	33404	
6146	0	34076	
6147	0	34808	
6148	0	35652	
6149	0	36568	
6150	0	37692	
6151	0	39040	
6152	0	40524	
6153	0	41996	
6154	0	43424	
6155	0	44876	
6156	0	46268	
6157	0	47744	
6158	0	49176	
6159	0	50516	
6160	0	51844	
6161	0	53096	
6162	0	54220	
6163	0	55368	
6164	0	56580	
6165	0	57656	
6166	0	58496	
6167	0	59000	
6168	0	59232	
6169	0	59000	
6170	0	57708	
6171	0	55616	
6172	0	52952	
6173	0	49844	
6174	0	46620	
6175	0	43328	
6176	0	39748	
6177	0	35852	
6178	0	32114	
6179	0	29168	
6180	0	27220	
6181	0	26116	
6182	0	25592	
6183	0	25458	
6184	0	25568	
6185	0	25716	
6186	0	25836	
6187	0	26032	
6188	0	26426	
6189	0	26888	
6190	0	27328	
6191	0	27752	
6192	0	28164	
6193	0	28556	
6194	0	28968	
6195	0	29416	
6196	0	29816	
6197	0	30156	
6198	0	30496	
6199	0	30712	
6200	0	30832	
6201	0	30912	
6202	0	30956	
6203	0	31032	
6204	0	31040	
6205	0	30961	
6206	0	30904	
6207	0	30820	
6208	0	30720	
6209	0	30604	
6210	0	30410	
6211	0	30340	
6212	0	30360	
6213	0	30400	
6214	0	30434	
6215	0	30516	
6216	0	30560	
6217	0	30616	
6218	0	30628	
6219	0	30672	
6220	0	30768	
6221	0	30840	
6222	0	30876	
6223	0	30824	
6224	0	30776	
6225	0	30800	
6226	0	30848	
6227	0	30904	
6228	0	30908	
6229	0	30844	
6230	0	30760	
6231	0	30706	
6232	0	30700	
6233	0	30718	
6234	0	30780	
6235	0	30848	
6236	0	30892	
6237	0	30948	
6238	0	31048	
6239	0	31180	
6240	0	31284	
6241	0	31298	
6242	0	31252	
6243	0	31236	
6244	0	31260	
6245	0	31262	
6246	0	31224	
6247	0	31216	
6248	0	31172	
6249	0	31168	
6250	0	31172	
6251	0	31234	
6252	0	31312	
6253	0	31392	
6254	0	31408	
6255	0	31356	
6256	0	31392	
6257	0	31464	
6258	0	31520	
6259	0	31612	
6260	0	31704	
6261	0	31712	
6262	0	31712	
6263	0	31768	
6264	0	31826	
6265	0	31816	
6266	0	31796	
6267	0	31816	
6268	0	31792	
6269	0	31712	
6270	0	31708	
6271	0	31760	
6272	0	31882	
6273	0	32028	
6274	0	32084	
6275	0	32048	
6276	0	32056	
6277	0	32072	
6278	0	32176	
6279	0	32298	
6280	0	32332	
6281	0	32316	
6282	0	32304	
6283	0	32308	
6284	0	32268	
6285	0	32200	
6286	0	32170	
6287	0	32148	
6288	0	32152	
6289	0	32216	
6290	0	32228	
6291	0	32160	
6292	0	32176	
6293	0	32224	
6294	0	32284	
6295	0	32372	
6296	0	32472	
6297	0	32488	
6298	0	32478	
6299	0	32576	
6300	0	32678	
6301	0	32752	
6302	0	32836	
6303	0	32868	
6304	0	32904	
6305	0	32920	
6306	0	32884	
6307	0	32816	
6308	0	32664	
6309	0	32684	
6310	0	32756	
6311	0	32804	
6312	0	32848	
6313	0	32848	
6314	0	32910	
6315	0	32990	
6316	0	33008	
6317	0	33036	
6318	0	33100	
6319	0	33208	
6320	0	33372	
6321	0	33410	
6322	0	33348	
6323	0	33292	
6324	0	33308	
6325	0	33346	
6326	0	33368	
6327	0	33348	
6328	0	33340	
6329	0	33368	
6330	0	33432	
6331	0	33480	
6332	0	33556	
6333	0	33584	
6334	0	33612	
6335	0	33624	
6336	0	33712	
6337	0	33792	
6338	0	33864	
6339	0	33960	
6340	0	34028	
6341	0	34140	
6342	0	34256	
6343	0	34356	
6344	0	34380	
6345	0	34340	
6346	0	34330	
6347	0	34372	
6348	0	34364	
6349	0	34364	
6350	0	34392	
6351	0	34428	
6352	0	34452	
6353	0	34448	
6354	0	34528	
6355	0	34676	
6356	0	34732	
6357	0	34768	
6358	0	34816	
6359	0	34848	
6360	0	34986	
6361	0	35120	
6362	0	35226	
6363	0	35308	
6364	0	35360	
6365	0	35392	
6366	0	35396	
6367	0	35408	
6368	0	35464	
6369	0	35524	
6370	0	35604	
6371	0	35748	
6372	0	35864	
6373	0	35968	
6374	0	36080	
6375	0	36184	
6376	0	36264	
6377	0	36360	
6378	0	36480	
6379	0	36616	
6380	0	36676	
6381	0	36768	
6382	0	36868	
6383	0	36964	
6384	0	37052	
6385	0	37128	
6386	0	37168	
6387	0	37196	
6388	0	37316	
6389	0	37440	
6390	0	37424	
6391	0	37376	
6392	0	37426	
6393	0	37500	
6394	0	37552	
6395	0	37580	
6396	0	37696	
6397	0	37776	
6398	0	37880	
6399	0	37972	
6400	0	38088	
6401	0	38232	
6402	0	38372	
6403	0	38434	
6404	0	38464	
6405	0	38492	
6406	0	38516	
6407	0	38528	
6408	0	38540	
6409	0	38558	
6410	0	38576	
6411	0	38440	
6412	0	38338	
6413	0	38284	
6414	0	38284	
6415	0	38304	
6416	0	38324	
6417	0	38284	
6418	0	38276	
6419	0	38304	
6420	0	38312	
6421	0	38280	
6422	0	38208	
6423	0	38144	
6424	0	38000	
6425	0	37840	
6426	0	37620	
6427	0	37440	
6428	0	37352	
6429	0	37224	
6430	0	36916	
6431	0	36628	
6432	0	36432	
6433	0	36308	
6434	0	36212	
6435	0	36076	
6436	0	35828	
6437	0	35568	
6438	0	35392	
6439	0	35204	
6440	0	35062	
6441	0	34924	
6442	0	34784	
6443	0	34616	
6444	0	34380	
6445	0	34116	
6446	0	33832	
6447	0	33596	
6448	0	33396	
6449	0	33186	
6450	0	32980	
6451	0	32756	
6452	0	32576	
6453	0	32430	
6454	0	32276	
6455	0	32088	
6456	0	31908	
6457	0	31756	
6458	0	31600	
6459	0	31464	
6460	0	31372	
6461	0	31248	
6462	0	31124	
6463	0	30976	
6464	0	30732	
6465	0	30528	
6466	0	30402	
6467	0	30352	
6468	0	30258	
6469	0	30208	
6470	0	30120	
6471	0	30004	
6472	0	29872	
6473	0	29732	
6474	0	29624	
6475	0	29532	
6476	0	29548	
6477	0	29608	
6478	0	29632	
6479	0	29616	
6480	0	29602	
6481	0	29552	
6482	0	29498	
6483	0	29456	
6484	0	29412	
6485	0	29388	
6486	0	29316	
6487	0	29208	
6488	0	29146	
6489	0	29084	
6490	0	29032	
6491	0	29012	
6492	0	28992	
6493	0	29092	
6494	0	29152	
6495	0	29196	
6496	0	29184	
6497	0	29164	
6498	0	29164	
6499	0	29224	
6500	0	29316	
6501	0	29370	
6502	0	29342	
6503	0	29348	
6504	0	29328	
6505	0	29324	
6506	0	29360	
6507	0	29444	
6508	0	29456	
6509	0	29256	
6510	0	29096	
6511	0	29064	
6512	0	29116	
6513	0	29120	
6514	0	29154	
6515	0	29256	
6516	0	29316	
6517	0	29398	
6518	0	29472	
6519	0	29486	
6520	0	29508	
6521	0	29556	
6522	0	29632	
6523	0	29664	
6524	0	29656	
6525	0	29656	
6526	0	29632	
6527	0	29616	
6528	0	29640	
6529	0	29672	
6530	0	29592	
6531	0	29528	
6532	0	29552	
6533	0	29636	
6534	0	29680	
6535	0	29722	
6536	0	29776	
6537	0	29818	
6538	0	29880	
6539	0	29994	
6540	0	30064	
6541	0	30068	
6542	0	30120	
6543	0	30196	
6544	0	30224	
6545	0	30188	
6546	0	30114	
6547	0	30128	
6548	0	30168	
6549	0	30142	
6550	0	30136	
6551	0	30152	
6552	0	30160	
6553	0	30192	
6554	0	30264	
6555	0	30324	
6556	0	30372	
6557	0	30412	
6558	0	30416	
6559	0	30472	
6560	0	30544	
6561	0	30616	
6562	0	30660	
6563	0	30644	
6564	0	30628	
6565	0	30618	
6566	0	30600	
6567	0	30646	
6568	0	30672	
6569	0	30696	
6570	0	30744	
6571	0	30784	
6572	0	30784	
6573	0	30794	
6574	0	30810	
6575	0	30828	
6576	0	30808	
6577	0	30764	
6578	0	30746	
6579	0	30816	
6580	0	30904	
6581	0	30978	
6582	0	31052	
6583	0	31104	
6584	0	31072	
6585	0	30996	
6586	0	30956	
6587	0	30916	
6588	0	30868	
6589	0	30872	
6590	0	30868	
6591	0	30876	
6592	0	30880	
6593	0	30908	
6594	0	30944	
6595	0	30976	
6596	0	31012	
6597	0	31088	
6598	0	31168	
6599	0	31180	
6600	0	31196	
6601	0	31232	
6602	0	31296	
6603	0	31352	
6604	0	31388	
6605	0	31388	
6606	0	31382	
6607	0	31280	
6608	0	31216	
6609	0	31168	
6610	0	31164	
6611	0	31172	
6612	0	31160	
6613	0	31096	
6614	0	31104	
6615	0	31124	
6616	0	31156	
6617	0	31200	
6618	0	31280	
6619	0	31304	
6620	0	31372	
6621	0	31448	
6622	0	31498	
6623	0	31548	
6624	0	31564	
6625	0	31504	
6626	0	31488	
6627	0	31532	
6628	0	31576	
6629	0	31588	
6630	0	31544	
6631	0	31476	
6632	0	31388	
6633	0	31330	
6634	0	31360	
6635	0	31396	
6636	0	31444	
6637	0	31504	
6638	0	31556	
6639	0	31588	
6640	0	31624	
6641	0	31612	
6642	0	31644	
6643	0	31704	
6644	0	31696	
6645	0	31676	
6646	0	31604	
6647	0	31524	
6648	0	31556	
6649	0	31564	
6650	0	31520	
6651	0	31482	
6652	0	31460	
6653	0	31432	
6654	0	31452	
6655	0	31472	
6656	0	31536	
6657	0	31600	
6658	0	31652	
6659	0	31716	
6660	0	31780	
6661	0	31840	
6662	0	31868	
6663	0	31848	
6664	0	31804	
6665	0	31808	
6666	0	31794	
6667	0	31740	
6668	0	31756	
6669	0	31768	
6670	0	31704	
6671	0	31700	
6672	0	31704	
6673	0	31746	
6674	0	31778	
6675	0	31760	
6676	0	31728	
6677	0	31764	
6678	0	31764	
6679	0	31744	
6680	0	31841	
6681	0	31920	
6682	0	31876	
6683	0	31792	
6684	0	31760	
6685	0	31728	
6686	0	31728	
6687	0	31754	
6688	0	31788	
6689	0	31816	
6690	0	31808	
6691	0	31792	
6692	0	31796	
6693	0	31756	
6694	0	31752	
6695	0	31760	
6696	0	31714	
6697	0	31768	
6698	0	31808	
6699	0	31804	
6700	0	31840	
6701	0	31884	
6702	0	31900	
6703	0	31856	
6704	0	31884	
6705	0	31888	
6706	0	31884	
6707	0	31900	
6708	0	31936	
6709	0	31920	
6710	0	31832	
6711	0	31772	
6712	0	31834	
6713	0	31900	
6714	0	31900	
6715	0	31868	
6716	0	31892	
6717	0	31940	
6718	0	31968	
6719	0	32008	
6720	0	32100	
6721	0	32172	
6722	0	32192	
6723	0	32236	
6724	0	32240	
6725	0	32188	
6726	0	32112	
6727	0	32038	
6728	0	32004	
6729	0	31968	
6730	0	31928	
6731	0	31948	
6732	0	31964	
6733	0	32008	
6734	0	32016	
6735	0	32056	
6736	0	32144	
6737	0	32164	
6738	0	32158	
6739	0	32180	
6740	0	32220	
6741	0	32236	
6742	0	32256	
6743	0	32260	
6744	0	32242	
6745	0	32200	
6746	0	32164	
6747	0	32154	
6748	0	32112	
6749	0	32104	
6750	0	32128	
6751	0	32232	
6752	0	32232	
6753	0	32132	
6754	0	32072	
6755	0	32088	
6756	0	32156	
6757	0	32232	
6758	0	32308	
6759	0	32352	
6760	0	32404	
6761	0	32396	
6762	0	32396	
6763	0	32394	
6764	0	32396	
6765	0	32324	
6766	0	32228	
6767	0	32186	
6768	0	32216	
6769	0	32260	
6770	0	32272	
6771	0	32262	
6772	0	32288	
6773	0	32304	
6774	0	32300	
6775	0	32340	
6776	0	32382	
6777	0	32468	
6778	0	32500	
6779	0	32560	
6780	0	32616	
6781	0	32712	
6782	0	32772	
6783	0	32830	
6784	0	32896	
6785	0	32996	
6786	0	33140	
6787	0	33212	
6788	0	33296	
6789	0	33380	
6790	0	33456	
6791	0	33596	
6792	0	33764	
6793	0	33820	
6794	0	33916	
6795	0	34008	
6796	0	34068	
6797	0	34116	
6798	0	34268	
6799	0	34412	
6800	0	34448	
6801	0	34492	
6802	0	34496	
6803	0	34624	
6804	0	34728	
6805	0	34684	
6806	0	34580	
6807	0	34504	
6808	0	34540	
6809	0	34664	
6810	0	34840	
6811	0	34980	
6812	0	34968	
6813	0	34900	
6814	0	34924	
6815	0	35040	
6816	0	35152	
6817	0	35172	
6818	0	35256	
6819	0	35384	
6820	0	35304	
6821	0	35116	
6822	0	35112	
6823	0	35242	
6824	0	35364	
6825	0	35408	
6826	0	35360	
6827	0	35224	
6828	0	35074	
6829	0	34964	
6830	0	34820	
6831	0	34740	
6832	0	34680	
6833	0	34584	
6834	0	34352	
6835	0	34192	
6836	0	34132	
6837	0	33984	
6838	0	33808	
6839	0	33668	
6840	0	33568	
6841	0	33600	
6842	0	33620	
6843	0	33548	
6844	0	33364	
6845	0	33196	
6846	0	33092	
6847	0	33056	
6848	0	33072	
6849	0	33028	
6850	0	32988	
6851	0	32944	
6852	0	32908	
6853	0	32864	
6854	0	32840	
6855	0	32836	
6856	0	32828	
6857	0	32804	
6858	0	32808	
6859	0	32736	
6860	0	32672	
6861	0	32588	
6862	0	32484	
6863	0	32530	
6864	0	32628	
6865	0	32442	
6866	0	32204	
6867	0	32072	
6868	0	31920	
6869	0	31808	
6870	0	31742	
6871	0	31632	
6872	0	31516	
6873	0	31428	
6874	0	31424	
6875	0	31456	
6876	0	31520	
6877	0	31532	
6878	0	31508	
6879	0	31516	
6880	0	31568	
6881	0	31632	
6882	0	31644	
6883	0	31648	
6884	0	31692	
6885	0	31664	
6886	0	31584	
6887	0	31496	
6888	0	31480	
6889	0	31500	
6890	0	31520	
6891	0	31548	
6892	0	31580	
6893	0	31576	
6894	0	31640	
6895	0	31668	
6896	0	31660	
6897	0	31648	
6898	0	31652	
6899	0	31740	
6900	0	31802	
6901	0	31884	
6902	0	31940	
6903	0	31916	
6904	0	31880	
6905	0	31852	
6906	0	31792	
6907	0	31752	
6908	0	31770	
6909	0	31812	
6910	0	31876	
6911	0	31880	
6912	0	31920	
6913	0	31888	
6914	0	31872	
6915	0	31944	
6916	0	31969	
6917	0	31984	
6918	0	32096	
6919	0	32152	
6920	0	32152	
6921	0	32140	
6922	0	32104	
6923	0	32096	
6924	0	32078	
6925	0	31992	
6926	0	32056	
6927	0	32144	
6928	0	32152	
6929	0	32140	
6930	0	32104	
6931	0	32140	
6932	0	32160	
6933	0	32184	
6934	0	32266	
6935	0	32288	
6936	0	32348	
6937	0	32500	
6938	0	32560	
6939	0	32472	
6940	0	32384	
6941	0	32384	
6942	0	32400	
6943	0	32372	
6944	0	32282	
6945	0	32164	
6946	0	32040	
6947	0	31948	
6948	0	31852	
6949	0	31736	
6950	0	31604	
6951	0	31556	
6952	0	31614	
6953	0	31726	
6954	0	31980	
6955	0	32368	
6956	0	32856	
6957	0	33388	
6958	0	33992	
6959	0	34736	
6960	0	35588	
6961	0	36564	
6962	0	37604	
6963	0	38804	
6964	0	40264	
6965	0	41720	
6966	0	43036	
6967	0	44352	
6968	0	45664	
6969	0	47060	
6970	0	48404	
6971	0	49752	
6972	0	51116	
6973	0	52344	
6974	0	53520	
6975	0	54688	
6976	0	55896	
6977	0	57000	
6978	0	57912	
6979	0	58584	
6980	0	58996	
6981	0	59188	
6982	0	58444	
6983	0	56632	
6984	0	54112	
6985	0	51056	
6986	0	47768	
6987	0	44524	
6988	0	41148	
6989	0	37452	
6990	0	33624	
6991	0	30384	
6992	0	28136	
6993	0	26764	
6994	0	26032	
6995	0	25762	
6996	0	25762	
6997	0	25936	
6998	0	26172	
6999	0	26524	
7000	0	27012	
7001	0	27568	
7002	0	28132	
7003	0	28628	
7004	0	29064	
7005	0	29482	
7006	0	29792	
7007	0	30144	
7008	0	30536	
7009	0	30824	
7010	0	30972	
7011	0	31040	
7012	0	31044	
7013	0	31072	
7014	0	31068	
7015	0	31036	
7016	0	31036	
7017	0	31076	
7018	0	31060	
7019	0	31000	
7020	0	30956	
7021	0	30972	
7022	0	30980	
7023	0	30892	
7024	0	30876	
7025	0	30844	
7026	0	30676	
7027	0	30588	
7028	0	30540	
7029	0	30476	
7030	0	30386	
7031	0	30356	
7032	0	30436	
7033	0	30508	
7034	0	30568	
7035	0	30612	
7036	0	30724	
7037	0	30880	
7038	0	30896	
7039	0	30800	
7040	0	30812	
7041	0	30842	
7042	0	30860	
7043	0	30841	
7044	0	30864	
7045	0	30876	
7046	0	30840	
7047	0	30800	
7048	0	30842	
7049	0	30856	
7050	0	30868	
7051	0	30872	
7052	0	30852	
7053	0	30872	
7054	0	30884	
7055	0	30956	
7056	0	31040	
7057	0	31084	
7058	0	31140	
7059	0	31144	
7060	0	31140	
7061	0	31144	
7062	0	31144	
7063	0	31224	
7064	0	31308	
7065	0	31264	
7066	0	31202	
7067	0	31252	
7068	0	31264	
7069	0	31316	
7070	0	31308	
7071	0	31344	
7072	0	31324	
7073	0	31264	
7074	0	31304	
7075	0	31444	
7076	0	31544	
7077	0	31552	
7078	0	31600	
7079	0	31672	
7080	0	31764	
7081	0	31836	
7082	0	31860	
7083	0	31836	
7084	0	31820	
7085	0	31840	
7086	0	31808	
7087	0	31784	
7088	0	31812	
7089	0	31808	
7090	0	31826	
7091	0	31860	
7092	0	32028	
7093	0	32128	
7094	0	32068	
7095	0	32044	
7096	0	32132	
7097	0	32188	
7098	0	32256	
7099	0	32428	
7100	0	32640	
7101	0	32692	
7102	0	32640	
7103	0	32604	
7104	0	32600	
7105	0	32588	
7106	0	32564	
7107	0	32588	
7108	0	32608	
7109	0	32568	
7110	0	32548	
7111	0	32592	
7112	0	32662	
7113	0	32816	
7114	0	32856	
7115	0	32794	
7116	0	32764	
7117	0	32912	
7118	0	33140	
7119	0	33240	
7120	0	33360	
7121	0	33436	
7122	0	33512	
7123	0	33568	
7124	0	33632	
7125	0	33562	
7126	0	33440	
7127	0	33432	
7128	0	33360	
7129	0	33112	
7130	0	32880	
7131	0	32756	
7132	0	32714	
7133	0	32784	
7134	0	32872	
7135	0	32902	
7136	0	32952	
7137	0	33034	
7138	0	33112	
7139	0	33160	
7140	0	33220	
7141	0	33312	
7142	0	33364	
7143	0	33408	
7144	0	33448	
7145	0	33392	
7146	0	33320	
7147	0	33316	
7148	0	33344	
7149	0	33388	
7150	0	33420	
7151	0	33460	
7152	0	33524	
7153	0	33488	
7154	0	33572	
7155	0	33712	
7156	0	33704	
7157	0	33712	
7158	0	33786	
7159	0	33924	
7160	0	34084	
7161	0	34200	
7162	0	34236	
7163	0	34248	
7164	0	34296	
7165	0	34332	
7166	0	34356	
7167	0	34404	
7168	0	34496	
7169	0	34602	
7170	0	34692	
7171	0	34760	
7172	0	34800	
7173	0	34872	
7174	0	34936	
7175	0	34904	
7176	0	34924	
7177	0	35008	
7178	0	35168	
7179	0	35388	
7180	0	35502	
7181	0	35528	
7182	0	35592	
7183	0	35656	
7184	0	35716	
7185	0	35732	
7186	0	35760	
7187	0	35832	
7188	0	35912	
7189	0	35984	
7190	0	36048	
7191	0	36132	
7192	0	36268	
7193	0	36344	
7194	0	36418	
7195	0	36532	
7196	0	36680	
7197	0	36832	
7198	0	36932	
7199	0	37034	
7200	0	37176	
7201	0	37294	
7202	0	37346	
7203	0	37296	
7204	0	37244	
7205	0	37228	
7206	0	37300	
7207	0	37416	
7208	0	37488	
7209	0	37572	
7210	0	37652	
7211	0	37748	
7212	0	37856	
7213	0	37892	
7214	0	37924	
7215	0	37988	
7216	0	38048	
7217	0	38080	
7218	0	38132	
7219	0	38232	
7220	0	38384	
7221	0	38480	
7222	0	38504	
7223	0	38524	
7224	0	38552	
7225	0	38512	
7226	0	38400	
7227	0	38280	
7228	0	38232	
7229	0	38260	
7230	0	38220	
7231	0	38212	
7232	0	38230	
7233	0	38216	
7234	0	38136	
7235	0	38048	
7236	0	37962	
7237	0	37860	
7238	0	37780	
7239	0	37728	
7240	0	37624	
7241	0	37508	
7242	0	37364	
7243	0	37188	
7244	0	37060	
7245	0	36948	
7246	0	36784	
7247	0	36512	
7248	0	36192	
7249	0	35944	
7250	0	35748	
7251	0	35556	
7252	0	35380	
7253	0	35180	
7254	0	35036	
7255	0	34916	
7256	0	34788	
7257	0	34584	
7258	0	34316	
7259	0	34120	
7260	0	33968	
7261	0	33776	
7262	0	33584	
7263	0	33352	
7264	0	33144	
7265	0	32900	
7266	0	32640	
7267	0	32448	
7268	0	32240	
7269	0	32064	
7270	0	31864	
7271	0	31624	
7272	0	31468	
7273	0	31346	
7274	0	31224	
7275	0	31082	
7276	0	30944	
7277	0	30888	
7278	0	30852	
7279	0	30820	
7280	0	30696	
7281	0	30572	
7282	0	30476	
7283	0	30372	
7284	0	30268	
7285	0	30144	
7286	0	30040	
7287	0	29900	
7288	0	29750	
7289	0	29680	
7290	0	29640	
7291	0	29626	
7292	0	29654	
7293	0	29660	
7294	0	29580	
7295	0	29410	
7296	0	29288	
7297	0	29252	
7298	0	29302	
7299	0	29368	
7300	0	29392	
7301	0	29408	
7302	0	29400	
7303	0	29392	
7304	0	29304	
7305	0	29288	
7306	0	29296	
7307	0	29288	
7308	0	29282	
7309	0	29208	
7310	0	29200	
7311	0	29280	
7312	0	29316	
7313	0	29364	
7314	0	29332	
7315	0	29268	
7316	0	29228	
7317	0	29152	
7318	0	29066	
7319	0	29124	
7320	0	29248	
7321	0	29400	
7322	0	29520	
7323	0	29576	
7324	0	29600	
7325	0	29564	
7326	0	29488	
7327	0	29442	
7328	0	29418	
7329	0	29392	
7330	0	29324	
7331	0	29344	
7332	0	29420	
7333	0	29472	
7334	0	29548	
7335	0	29628	
7336	0	29640	
7337	0	29624	
7338	0	29656	
7339	0	29724	
7340	0	29824	
7341	0	29912	
7342	0	29944	
7343	0	29948	
7344	0	29992	
7345	0	30016	
7346	0	30044	
7347	0	29950	
7348	0	29832	
7349	0	29792	
7350	0	29828	
7351	0	29896	
7352	0	29924	
7353	0	29960	
7354	0	30020	
7355	0	30084	
7356	0	30020	
7357	0	29952	
7358	0	30000	
7359	0	30092	
7360	0	30156	
7361	0	30204	
7362	0	30200	
7363	0	30176	
7364	0	30160	
7365	0	30154	
7366	0	30196	
7367	0	30288	
7368	0	30344	
7369	0	30328	
7370	0	30292	
7371	0	30264	
7372	0	30300	
7373	0	30296	
7374	0	30344	
7375	0	30372	
7376	0	30368	
7377	0	30406	
7378	0	30504	
7379	0	30628	
7380	0	30776	
7381	0	30800	
7382	0	30756	
7383	0	30708	
7384	0	30716	
7385	0	30664	
7386	0	30732	
7387	0	30884	
7388	0	30908	
7389	0	30816	
7390	0	30714	
7391	0	30700	
7392	0	30724	
7393	0	30756	
7394	0	30792	
7395	0	30792	
7396	0	30784	
7397	0	30836	
7398	0	30932	
7399	0	30984	
7400	0	31012	
7401	0	31048	
7402	0	31040	
7403	0	31028	
7404	0	31028	
7405	0	31008	
7406	0	30976	
7407	0	30988	
7408	0	30996	
7409	0	30992	
7410	0	31008	
7411	0	31008	
7412	0	30996	
7413	0	30966	
7414	0	31008	
7415	0	31048	
7416	0	31036	
7417	0	31032	
7418	0	31010	
7419	0	31088	
7420	0	31144	
7421	0	31216	
7422	0	31264	
7423	0	31260	
7424	0	31236	
7425	0	31220	
7426	0	31146	
7427	0	31082	
7428	0	31048	
7429	0	31052	
7430	0	31060	
7431	0	31096	
7432	0	31172	
7433	0	31258	
7434	0	31236	
7435	0	31100	
7436	0	31072	
7437	0	31080	
7438	0	31104	
7439	0	31196	
7440	0	31314	
7441	0	31336	
7442	0	31328	
7443	0	31372	
7444	0	31416	
7445	0	31416	
7446	0	31388	
7447	0	31300	
7448	0	31296	
7449	0	31356	
7450	0	31360	
7451	0	31268	
7452	0	31208	
7453	0	31176	
7454	0	31144	
7455	0	31232	
7456	0	31248	
7457	0	31264	
7458	0	31292	
7459	0	31364	
7460	0	31460	
7461	0	31476	
7462	0	31484	
7463	0	31464	
7464	0	31416	
7465	0	31392	
7466	0	31370	
7467	0	31384	
7468	0	31376	
7469	0	31340	
7470	0	31364	
7471	0	31476	
7472	0	31532	
7473	0	31452	
7474	0	31472	
7475	0	31512	
7476	0	31412	
7477	0	31284	
7478	0	31316	
7479	0	31384	
7480	0	31420	
7481	0	31440	
7482	0	31424	
7483	0	31460	
7484	0	31448	
7485	0	31416	
7486	0	31384	
7487	0	31397	
7488	0	31400	
7489	0	31364	
7490	0	31428	
7491	0	31496	
7492	0	31488	
7493	0	31436	
7494	0	31468	
7495	0	31544	
7496	0	31608	
7497	0	31616	
7498	0	31588	
7499	0	31608	
7500	0	31640	
7501	0	31656	
7502	0	31592	
7503	0	31632	
7504	0	31712	
7505	0	31724	
7506	0	31688	
7507	0	31608	
7508	0	31522	
7509	0	31496	
7510	0	31540	
7511	0	31536	
7512	0	31560	
7513	0	31584	
7514	0	31620	
7515	0	31676	
7516	0	31708	
7517	0	31720	
7518	0	31744	
7519	0	31794	
7520	0	31864	
7521	0	31940	
7522	0	31920	
7523	0	31952	
7524	0	32024	
7525	0	31982	
7526	0	31864	
7527	0	31768	
7528	0	31724	
7529	0	31748	
7530	0	31756	
7531	0	31768	
7532	0	31756	
7533	0	31744	
7534	0	31768	
7535	0	31840	
7536	0	31918	
7537	0	32044	
7538	0	32160	
7539	0	32232	
7540	0	32320	
7541	0	32284	
7542	0	32252	
7543	0	32172	
7544	0	32132	
7545	0	32104	
7546	0	32080	
7547	0	32084	
7548	0	32064	
7549	0	32040	
7550	0	32116	
7551	0	32144	
7552	0	32108	
7553	0	32148	
7554	0	32180	
7555	0	32176	
7556	0	32188	
7557	0	32180	
7558	0	32232	
7559	0	32280	
7560	0	32268	
7561	0	32264	
7562	0	32336	
7563	0	32420	
7564	0	32440	
7565	0	32400	
7566	0	32376	
7567	0	32328	
7568	0	32396	
7569	0	32488	
7570	0	32448	
7571	0	32296	
7572	0	32200	
7573	0	32120	
7574	0	32192	
7575	0	32264	
7576	0	32264	
7577	0	32248	
7578	0	32296	
7579	0	32320	
7580	0	32364	
7581	0	32452	
7582	0	32488	
7583	0	32464	
7584	0	32500	
7585	0	32480	
7586	0	32416	
7587	0	32396	
7588	0	32476	
7589	0	32508	
7590	0	32396	
7591	0	32336	
7592	0	32290	
7593	0	32224	
7594	0	32252	
7595	0	32312	
7596	0	32280	
7597	0	32244	
7598	0	32312	
7599	0	32380	
7600	0	32432	
7601	0	32464	
7602	0	32520	
7603	0	32628	
7604	0	32672	
7605	0	32684	
7606	0	32764	
7607	0	32808	
7608	0	32880	
7609	0	32972	
7610	0	33008	
7611	0	33080	
7612	0	33188	
7613	0	33296	
7614	0	33466	
7615	0	33632	
7616	0	33840	
7617	0	34052	
7618	0	34120	
7619	0	34096	
7620	0	34060	
7621	0	34114	
7622	0	34208	
7623	0	34338	
7624	0	34428	
7625	0	34446	
7626	0	34364	
7627	0	34312	
7628	0	34296	
7629	0	34332	
7630	0	34372	
7631	0	34376	
7632	0	34368	
7633	0	34368	
7634	0	34476	
7635	0	34688	
7636	0	34840	
7637	0	34946	
7638	0	35028	
7639	0	35072	
7640	0	35108	
7641	0	35084	
7642	0	35080	
7643	0	35100	
7644	0	35128	
7645	0	35072	
7646	0	35040	
7647	0	35040	
7648	0	35088	
7649	0	35204	
7650	0	35320	
7651	0	35324	
7652	0	35248	
7653	0	35108	
7654	0	34980	
7655	0	34860	
7656	0	34744	
7657	0	34572	
7658	0	34444	
7659	0	34336	
7660	0	34232	
7661	0	34056	
7662	0	33882	
7663	0	33728	
7664	0	33618	
7665	0	33492	
7666	0	33372	
7667	0	33264	
7668	0	33176	
7669	0	33108	
7670	0	33024	
7671	0	32896	
7672	0	32872	
7673	0	32952	
7674	0	32982	
7675	0	32960	
7676	0	32936	
7677	0	32900	
7678	0	32940	
7679	0	32988	
7680	0	33040	
7681	0	33136	
7682	0	33116	
7683	0	32886	
7684	0	32672	
7685	0	32488	
7686	0	32404	
7687	0	32336	
7688	0	32220	
7689	0	32064	
7690	0	31932	
7691	0	31840	
7692	0	31728	
7693	0	31684	
7694	0	31648	
7695	0	31560	
7696	0	31468	
7697	0	31434	
7698	0	31400	
7699	0	31412	
7700	0	31488	
7701	0	31536	
7702	0	31580	
7703	0	31584	
7704	0	31540	
7705	0	31504	
7706	0	31456	
7707	0	31448	
7708	0	31440	
7709	0	31464	
7710	0	31472	
7711	0	31472	
7712	0	31466	
7713	0	31488	
7714	0	31484	
7715	0	31548	
7716	0	31676	
7717	0	31692	
7718	0	31572	
7719	0	31516	
7720	0	31572	
7721	0	31704	
7722	0	31728	
7723	0	31632	
7724	0	31568	
7725	0	31540	
7726	0	31560	
7727	0	31616	
7728	0	31724	
7729	0	31690	
7730	0	31552	
7731	0	31484	
7732	0	31452	
7733	0	31460	
7734	0	31508	
7735	0	31562	
7736	0	31624	
7737	0	31648	
7738	0	31692	
7739	0	31776	
7740	0	31796	
7741	0	31792	
7742	0	31832	
7743	0	31864	
7744	0	31844	
7745	0	31804	
7746	0	31801	
7747	0	31762	
7748	0	31752	
7749	0	31796	
7750	0	31816	
7751	0	31784	
7752	0	31784	
7753	0	31826	
7754	0	31822	
7755	0	31896	
7756	0	31902	
7757	0	31860	
7758	0	31860	
7759	0	31888	
7760	0	31960	
7761	0	32156	
7762	0	32308	
7763	0	32336	
7764	0	32280	
7765	0	32226	
7766	0	32152	
7767	0	32046	
7768	0	32008	
7769	0	32012	
7770	0	31958	
7771	0	31668	
7772	0	31384	
7773	0	31248	
7774	0	31252	
7775	0	31266	
7776	0	31348	
7777	0	31552	
7778	0	31856	
7779	0	32200	
7780	0	32720	
7781	0	33276	
7782	0	33896	
7783	0	34608	
7784	0	35444	
7785	0	36416	
7786	0	37380	
7787	0	38432	
7788	0	39776	
7789	0	41228	
7790	0	42600	
7791	0	43992	
7792	0	45440	
7793	0	46888	
7794	0	48380	
7795	0	49784	
7796	0	51084	
7797	0	52264	
7798	0	53376	
7799	0	54572	
7800	0	55900	
7801	0	57056	
7802	0	57944	
7803	0	58480	
7804	0	58800	
7805	0	58840	
7806	0	58008	
7807	0	56168	
7808	0	53504	
7809	0	50372	
7810	0	47092	
7811	0	43824	
7812	0	40408	
7813	0	36728	
7814	0	33066	
7815	0	30068	
7816	0	28080	
7817	0	26836	
7818	0	26164	
7819	0	25912	
7820	0	25988	
7821	0	26148	
7822	0	26398	
7823	0	26720	
7824	0	27144	
7825	0	27620	
7826	0	28092	
7827	0	28456	
7828	0	28820	
7829	0	29280	
7830	0	29744	
7831	0	30156	
7832	0	30590	
7833	0	30848	
7834	0	30962	
7835	0	31086	
7836	0	31220	
7837	0	31262	
7838	0	31136	
7839	0	31008	
7840	0	30952	
7841	0	30920	
7842	0	30868	
7843	0	30816	
7844	0	30792	
7845	0	30720	
7846	0	30624	
7847	0	30620	
7848	0	30608	
7849	0	30620	
7850	0	30634	
7851	0	30644	
7852	0	30664	
7853	0	30700	
7854	0	30730	
7855	0	30770	
7856	0	30716	
7857	0	30628	
7858	0	30684	
7859	0	30778	
7860	0	30868	
7861	0	30956	
7862	0	30948	
7863	0	31000	
7864	0	30928	
7865	0	30872	
7866	0	30912	
7867	0	30904	
7868	0	30922	
7869	0	30936	
7870	0	30896	
7871	0	30876	
7872	0	30932	
7873	0	31016	
7874	0	31048	
7875	0	31072	
7876	0	31040	
7877	0	31092	
7878	0	31184	
7879	0	31332	
7880	0	31344	
7881	0	31388	
7882	0	31504	
7883	0	31580	
7884	0	31480	
7885	0	31364	
7886	0	31332	
7887	0	31332	
7888	0	31364	
7889	0	31404	
7890	0	31404	
7891	0	31400	
7892	0	31350	
7893	0	31304	
7894	0	31404	
7895	0	31432	
7896	0	31476	
7897	0	31482	
7898	0	31496	
7899	0	31606	
7900	0	31704	
7901	0	31736	
7902	0	31808	
7903	0	31868	
7904	0	31880	
7905	0	31908	
7906	0	31896	
7907	0	31804	
7908	0	31808	
7909	0	31922	
7910	0	31948	
7911	0	31952	
7912	0	31956	
7913	0	32020	
7914	0	32076	
7915	0	32114	
7916	0	32180	
7917	0	32244	
7918	0	32200	
7919	0	32112	
7920	0	32124	
7921	0	32216	
7922	0	32308	
7923	0	32416	
7924	0	32420	
7925	0	32380	
7926	0	32344	
7927	0	32360	
7928	0	32396	
7929	0	32412	
7930	0	32508	
7931	0	32576	
7932	0	32560	
7933	0	32526	
7934	0	32592	
7935	0	32660	
7936	0	32732	
7937	0	32784	
7938	0	32816	
7939	0	32902	
7940	0	33040	
7941	0	33084	
7942	0	32972	
7943	0	32858	
7944	0	32820	
7945	0	32808	
7946	0	32786	
7947	0	32748	
7948	0	32848	
7949	0	32900	
7950	0	32884	
7951	0	32926	
7952	0	33000	
7953	0	33028	
7954	0	33052	
7955	0	33112	
7956	0	33164	
7957	0	33144	
7958	0	33192	
7959	0	33336	
7960	0	33384	
7961	0	33360	
7962	0	33436	
7963	0	33504	
7964	0	33480	
7965	0	33456	
7966	0	33464	
7967	0	33580	
7968	0	33664	
7969	0	33648	
7970	0	33560	
7971	0	33472	
7972	0	33520	
7973	0	33604	
7974	0	33696	
7975	0	33776	
7976	0	33800	
7977	0	33816	
7978	0	33868	
7979	0	33956	
7980	0	34084	
7981	0	34220	
7982	0	34364	
7983	0	34360	
7984	0	34328	
7985	0	34376	
7986	0	34404	
7987	0	34412	
7988	0	34428	
7989	0	34436	
7990	0	34450	
7991	0	34460	
7992	0	34448	
7993	0	34452	
7994	0	34500	
7995	0	34616	
7996	0	34784	
7997	0	34912	
7998	0	34916	
7999	0	34920	
8000	0	35012	
8001	0	35048	
8002	0	35120	
8003	0	35292	
8004	0	35492	
8005	0	35584	
8006	0	35648	
8007	0	35696	
8008	0	35756	
8009	0	35858	
8010	0	35932	
8011	0	35992	
8012	0	36124	
8013	0	36216	
8014	0	36320	
8015	0	36372	
8016	0	36466	
8017	0	36560	
8018	0	36652	
8019	0	36704	
