# OpenSignals Text File Format. Version 1
# {"00:07:80:4B:15:F7": {"position": 0, "device": "biosignalsplux", "device name": "00:07:80:4B:15:F7", "device connection": "BTH00:07:80:4B:15:F7", "sampling rate": 1000, "resolution": [16], "firmware version": 775, "comments": "", "keywords": "", "mode": 0, "sync interval": 2, "date": "2023-3-8", "time": "16:2:56.176", "channels": [1], "sensor": ["ECG"], "label": ["CH1"], "column": ["nSeq", "DI", "CH1"], "special": [{"SpO2": [80, 40, 5, 4, 3, 3]}, {"SpO2": [80, 40, 5, 4, 3, 3]}, {"SpO2": [80, 40, 5, 4, 3, 3]}, {"SpO2": [80, 40, 5, 4, 3, 3]}, {"SpO2": [80, 40, 5, 4, 3, 3]}, {"SpO2": [80, 40, 5, 4, 3, 3]}, {"SpO2": [80, 40, 5, 4, 3, 3]}, {"SpO2": [80, 40, 5, 4, 3, 3]}], "digital IO": [0, 1], "sleeve color": ["green"], "convertedValues": 0}}
# EndOfHeader
0	0	32176	
1	0	32196	
2	0	32240	
3	0	32324	
4	0	32404	
5	0	32442	
6	0	32452	
7	0	32432	
8	0	32444	
9	0	32488	
10	0	32508	
11	0	32508	
12	0	32476	
13	0	32448	
14	0	32444	
15	0	32480	
16	0	32604	
17	0	32688	
18	0	32720	
19	0	32760	
20	0	32832	
21	0	32908	
22	0	33012	
23	0	33088	
24	0	33144	
25	0	33204	
26	0	33256	
27	0	33314	
28	0	33296	
29	0	33300	
30	0	33340	
31	0	33364	
32	0	33382	
33	0	33452	
34	0	33496	
35	0	33552	
36	0	33592	
37	0	33592	
38	0	33600	
39	0	33676	
40	0	33800	
41	0	33908	
42	0	34036	
43	0	34172	
44	0	34224	
45	0	34228	
46	0	34272	
47	0	34336	
48	0	34460	
49	0	34524	
50	0	34546	
51	0	34616	
52	0	34692	
53	0	34720	
54	0	34720	
55	0	34714	
56	0	34784	
57	0	34888	
58	0	35002	
59	0	35072	
60	0	35112	
61	0	35184	
62	0	35292	
63	0	35376	
64	0	35448	
65	0	35552	
66	0	35616	
67	0	35648	
68	0	35684	
69	0	35676	
70	0	35700	
71	0	35752	
72	0	35740	
73	0	35748	
74	0	35764	
75	0	35808	
76	0	35844	
77	0	35920	
78	0	35980	
79	0	36012	
80	0	36052	
81	0	36120	
82	0	36172	
83	0	36212	
84	0	36252	
85	0	36244	
86	0	36266	
87	0	36300	
88	0	36324	
89	0	36300	
90	0	36300	
91	0	36292	
92	0	36228	
93	0	36160	
94	0	36044	
95	0	35932	
96	0	35864	
97	0	35836	
98	0	35788	
99	0	35752	
100	0	35670	
101	0	35568	
102	0	35492	
103	0	35368	
104	0	35232	
105	0	35080	
106	0	34928	
107	0	34768	
108	0	34656	
109	0	34528	
110	0	34372	
111	0	34196	
112	0	34048	
113	0	33920	
114	0	33732	
115	0	33512	
116	0	33272	
117	0	33080	
118	0	32908	
119	0	32816	
120	0	32704	
121	0	32540	
122	0	32384	
123	0	32252	
124	0	32116	
125	0	31948	
126	0	31808	
127	0	31648	
128	0	31516	
129	0	31384	
130	0	31208	
131	0	31012	
132	0	30864	
133	0	30700	
134	0	30572	
135	0	30440	
136	0	30264	
137	0	30144	
138	0	30044	
139	0	29938	
140	0	29900	
141	0	29904	
142	0	29922	
143	0	29952	
144	0	29928	
145	0	29860	
146	0	29752	
147	0	29680	
148	0	29632	
149	0	29568	
150	0	29480	
151	0	29356	
152	0	29280	
153	0	29268	
154	0	29280	
155	0	29228	
156	0	29168	
157	0	29168	
158	0	29220	
159	0	29248	
160	0	29288	
161	0	29336	
162	0	29364	
163	0	29364	
164	0	29384	
165	0	29396	
166	0	29384	
167	0	29394	
168	0	29375	
169	0	29304	
170	0	29280	
171	0	29236	
172	0	29224	
173	0	29252	
174	0	29276	
175	0	29248	
176	0	29264	
177	0	29290	
178	0	29328	
179	0	29408	
180	0	29474	
181	0	29544	
182	0	29616	
183	0	29680	
184	0	29748	
185	0	29804	
186	0	29860	
187	0	29876	
188	0	29884	
189	0	29912	
190	0	29932	
191	0	29928	
192	0	29906	
193	0	29860	
194	0	29812	
195	0	29792	
196	0	29844	
197	0	29920	
198	0	30024	
199	0	30076	
200	0	30116	
201	0	30166	
202	0	30258	
203	0	30334	
204	0	30376	
205	0	30400	
206	0	30428	
207	0	30508	
208	0	30552	
209	0	30496	
210	0	30456	
211	0	30472	
212	0	30476	
213	0	30472	
214	0	30458	
215	0	30440	
216	0	30460	
217	0	30496	
218	0	30468	
219	0	30532	
220	0	30640	
221	0	30676	
222	0	30784	
223	0	30856	
224	0	30872	
225	0	30858	
226	0	30784	
227	0	30700	
228	0	30718	
229	0	30812	
230	0	30828	
231	0	30828	
232	0	30824	
233	0	30852	
234	0	30862	
235	0	30856	
236	0	30900	
237	0	30960	
238	0	30972	
239	0	30996	
240	0	31056	
241	0	31088	
242	0	31136	
243	0	31148	
244	0	31100	
245	0	31052	
246	0	31042	
247	0	31058	
248	0	31068	
249	0	31156	
250	0	31184	
251	0	31172	
252	0	31148	
253	0	31116	
254	0	31068	
255	0	31064	
256	0	31084	
257	0	31100	
258	0	31148	
259	0	31224	
260	0	31320	
261	0	31392	
262	0	31384	
263	0	31396	
264	0	31424	
265	0	31464	
266	0	31460	
267	0	31412	
268	0	31364	
269	0	31372	
270	0	31360	
271	0	31350	
272	0	31368	
273	0	31386	
274	0	31336	
275	0	31296	
276	0	31256	
277	0	31224	
278	0	31224	
279	0	31288	
280	0	31388	
281	0	31460	
282	0	31474	
283	0	31516	
284	0	31562	
285	0	31568	
286	0	31568	
287	0	31572	
288	0	31568	
289	0	31502	
290	0	31464	
291	0	31456	
292	0	31484	
293	0	31500	
294	0	31502	
295	0	31496	
296	0	31494	
297	0	31564	
298	0	31582	
299	0	31610	
300	0	31620	
301	0	31672	
302	0	31736	
303	0	31768	
304	0	31778	
305	0	31776	
306	0	31760	
307	0	31724	
308	0	31688	
309	0	31664	
310	0	31688	
311	0	31708	
312	0	31716	
313	0	31688	
314	0	31644	
315	0	31638	
316	0	31644	
317	0	31652	
318	0	31636	
319	0	31660	
320	0	31716	
321	0	31792	
322	0	31828	
323	0	31872	
324	0	31936	
325	0	31912	
326	0	31908	
327	0	31918	
328	0	31944	
329	0	31892	
330	0	31796	
331	0	31752	
332	0	31732	
333	0	31708	
334	0	31704	
335	0	31712	
336	0	31724	
337	0	31748	
338	0	31748	
339	0	31748	
340	0	31792	
341	0	31822	
342	0	31840	
343	0	31924	
344	0	32032	
345	0	32070	
346	0	32092	
347	0	32116	
348	0	32082	
349	0	32000	
350	0	31912	
351	0	31908	
352	0	31936	
353	0	31940	
354	0	31916	
355	0	31868	
356	0	31852	
357	0	31884	
358	0	31916	
359	0	31984	
360	0	32096	
361	0	32148	
362	0	32124	
363	0	32132	
364	0	32148	
365	0	32184	
366	0	32200	
367	0	32268	
368	0	32320	
369	0	32344	
370	0	32350	
371	0	32412	
372	0	32530	
373	0	32680	
374	0	32784	
375	0	32836	
376	0	32844	
377	0	32926	
378	0	33092	
379	0	33216	
380	0	33320	
381	0	33404	
382	0	33480	
383	0	33530	
384	0	33568	
385	0	33596	
386	0	33592	
387	0	33624	
388	0	33676	
389	0	33732	
390	0	33728	
391	0	33720	
392	0	33708	
393	0	33712	
394	0	33708	
395	0	33768	
396	0	33912	
397	0	34124	
398	0	34320	
399	0	34468	
400	0	34608	
401	0	34732	
402	0	34880	
403	0	34956	
404	0	34912	
405	0	34872	
406	0	34884	
407	0	34920	
408	0	34904	
409	0	34892	
410	0	34860	
411	0	34880	
412	0	34888	
413	0	34808	
414	0	34688	
415	0	34612	
416	0	34512	
417	0	34420	
418	0	34320	
419	0	34152	
420	0	33980	
421	0	33816	
422	0	33720	
423	0	33688	
424	0	33680	
425	0	33624	
426	0	33564	
427	0	33532	
428	0	33466	
429	0	33368	
430	0	33332	
431	0	33294	
432	0	33216	
433	0	33100	
434	0	32992	
435	0	32968	
436	0	32896	
437	0	32744	
438	0	32656	
439	0	32632	
440	0	32628	
441	0	32644	
442	0	32648	
443	0	32578	
444	0	32464	
445	0	32340	
446	0	32262	
447	0	32192	
448	0	32140	
449	0	32044	
450	0	32000	
451	0	31928	
452	0	31826	
453	0	31722	
454	0	31616	
455	0	31584	
456	0	31564	
457	0	31532	
458	0	31516	
459	0	31560	
460	0	31624	
461	0	31680	
462	0	31718	
463	0	31722	
464	0	31740	
465	0	31808	
466	0	31826	
467	0	31812	
468	0	31772	
469	0	31728	
470	0	31696	
471	0	31696	
472	0	31678	
473	0	31660	
474	0	31636	
475	0	31620	
476	0	31616	
477	0	31620	
478	0	31648	
479	0	31660	
480	0	31684	
481	0	31688	
482	0	31744	
483	0	31800	
484	0	31822	
485	0	31840	
486	0	31840	
487	0	31840	
488	0	31860	
489	0	31876	
490	0	31832	
491	0	31800	
492	0	31804	
493	0	31842	
494	0	31880	
495	0	31892	
496	0	31900	
497	0	31924	
498	0	31976	
499	0	32004	
500	0	32072	
501	0	32088	
502	0	32064	
503	0	32112	
504	0	32170	
505	0	32184	
506	0	32192	
507	0	32184	
508	0	32094	
509	0	31956	
510	0	31768	
511	0	31560	
512	0	31344	
513	0	31068	
514	0	30784	
515	0	30518	
516	0	30272	
517	0	30132	
518	0	30032	
519	0	30116	
520	0	30420	
521	0	30816	
522	0	31304	
523	0	31938	
524	0	32912	
525	0	34132	
526	0	35472	
527	0	36964	
528	0	38536	
529	0	40152	
530	0	41804	
531	0	43456	
532	0	45096	
533	0	46740	
534	0	48240	
535	0	49576	
536	0	51008	
537	0	52512	
538	0	54104	
539	0	55788	
540	0	57568	
541	0	59232	
542	0	60772	
543	0	62020	
544	0	62892	
545	0	63208	
546	0	62560	
547	0	60852	
548	0	58204	
549	0	54976	
550	0	51592	
551	0	48108	
552	0	44412	
553	0	40536	
554	0	37020	
555	0	34282	
556	0	32264	
557	0	30888	
558	0	29972	
559	0	29460	
560	0	29156	
561	0	28960	
562	0	28888	
563	0	28864	
564	0	28952	
565	0	29080	
566	0	29256	
567	0	29504	
568	0	29780	
569	0	29992	
570	0	30140	
571	0	30288	
572	0	30400	
573	0	30444	
574	0	30408	
575	0	30356	
576	0	30292	
577	0	30208	
578	0	30176	
579	0	30144	
580	0	30108	
581	0	30036	
582	0	29960	
583	0	29880	
584	0	29844	
585	0	29808	
586	0	29760	
587	0	29694	
588	0	29626	
589	0	29600	
590	0	29564	
591	0	29460	
592	0	29380	
593	0	29378	
594	0	29402	
595	0	29408	
596	0	29436	
597	0	29470	
598	0	29456	
599	0	29496	
600	0	29592	
601	0	29672	
602	0	29722	
603	0	29784	
604	0	29796	
605	0	29844	
606	0	29824	
607	0	29812	
608	0	29776	
609	0	29728	
610	0	29732	
611	0	29744	
612	0	29756	
613	0	29708	
614	0	29688	
615	0	29768	
616	0	29850	
617	0	29976	
618	0	29980	
619	0	29968	
620	0	30004	
621	0	30080	
622	0	30196	
623	0	30336	
624	0	30412	
625	0	30448	
626	0	30424	
627	0	30452	
628	0	30456	
629	0	30452	
630	0	30500	
631	0	30556	
632	0	30544	
633	0	30536	
634	0	30488	
635	0	30416	
636	0	30408	
637	0	30462	
638	0	30496	
639	0	30568	
640	0	30650	
641	0	30764	
642	0	30872	
643	0	30906	
644	0	30940	
645	0	31002	
646	0	31036	
647	0	31040	
648	0	31052	
649	0	31088	
650	0	31148	
651	0	31168	
652	0	31212	
653	0	31232	
654	0	31200	
655	0	31168	
656	0	31172	
657	0	31192	
658	0	31180	
659	0	31204	
660	0	31280	
661	0	31360	
662	0	31444	
663	0	31516	
664	0	31620	
665	0	31692	
666	0	31708	
667	0	31720	
668	0	31748	
669	0	31708	
670	0	31660	
671	0	31668	
672	0	31676	
673	0	31712	
674	0	31744	
675	0	31744	
676	0	31720	
677	0	31704	
678	0	31712	
679	0	31744	
680	0	31844	
681	0	31948	
682	0	32012	
683	0	32100	
684	0	32184	
685	0	32268	
686	0	32316	
687	0	32392	
688	0	32408	
689	0	32384	
690	0	32366	
691	0	32376	
692	0	32400	
693	0	32372	
694	0	32364	
695	0	32424	
696	0	32496	
697	0	32532	
698	0	32572	
699	0	32618	
700	0	32686	
701	0	32794	
702	0	32868	
703	0	32956	
704	0	32996	
705	0	33032	
706	0	33084	
707	0	33146	
708	0	33180	
709	0	33204	
710	0	33188	
711	0	33180	
712	0	33164	
713	0	33172	
714	0	33152	
715	0	33184	
716	0	33284	
717	0	33360	
718	0	33496	
719	0	33588	
720	0	33620	
721	0	33648	
722	0	33660	
723	0	33720	
724	0	33800	
725	0	33860	
726	0	33996	
727	0	34128	
728	0	34196	
729	0	34212	
730	0	34252	
731	0	34344	
732	0	34404	
733	0	34432	
734	0	34416	
735	0	34424	
736	0	34436	
737	0	34460	
738	0	34512	
739	0	34548	
740	0	34648	
741	0	34756	
742	0	34856	
743	0	34958	
744	0	35092	
745	0	35180	
746	0	35232	
747	0	35260	
748	0	35280	
749	0	35320	
750	0	35360	
751	0	35352	
752	0	35396	
753	0	35388	
754	0	35448	
755	0	35508	
756	0	35552	
757	0	35620	
758	0	35708	
759	0	35788	
760	0	35888	
761	0	36012	
762	0	36096	
763	0	36156	
764	0	36224	
765	0	36260	
766	0	36292	
767	0	36338	
768	0	36334	
769	0	36292	
770	0	36320	
771	0	36356	
772	0	36356	
773	0	36376	
774	0	36384	
775	0	36400	
776	0	36400	
777	0	36392	
778	0	36412	
779	0	36392	
780	0	36360	
781	0	36352	
782	0	36384	
783	0	36412	
784	0	36384	
785	0	36316	
786	0	36244	
787	0	36160	
788	0	36072	
789	0	35920	
790	0	35752	
791	0	35656	
792	0	35548	
793	0	35418	
794	0	35272	
795	0	35160	
796	0	35008	
797	0	34860	
798	0	34732	
799	0	34572	
800	0	34448	
801	0	34346	
802	0	34268	
803	0	34136	
804	0	33960	
805	0	33788	
806	0	33640	
807	0	33472	
808	0	33328	
809	0	33184	
810	0	32930	
811	0	32740	
812	0	32526	
813	0	32290	
814	0	32080	
815	0	31904	
816	0	31748	
817	0	31620	
818	0	31480	
819	0	31360	
820	0	31304	
821	0	31192	
822	0	31080	
823	0	31016	
824	0	30912	
825	0	30800	
826	0	30752	
827	0	30664	
828	0	30560	
829	0	30465	
830	0	30352	
831	0	30216	
832	0	30128	
833	0	30120	
834	0	30100	
835	0	30052	
836	0	29976	
837	0	29928	
838	0	29912	
839	0	29868	
840	0	29864	
841	0	29940	
842	0	29996	
843	0	30000	
844	0	30018	
845	0	29962	
846	0	29832	
847	0	29754	
848	0	29780	
849	0	29796	
850	0	29696	
851	0	29676	
852	0	29640	
853	0	29550	
854	0	29468	
855	0	29428	
856	0	29508	
857	0	29588	
858	0	29632	
859	0	29668	
860	0	29722	
861	0	29826	
862	0	29900	
863	0	29936	
864	0	29920	
865	0	29884	
866	0	29812	
867	0	29796	
868	0	29836	
869	0	29856	
870	0	29844	
871	0	29826	
872	0	29836	
873	0	29900	
874	0	29968	
875	0	30004	
876	0	30022	
877	0	30028	
878	0	30108	
879	0	30184	
880	0	30228	
881	0	30304	
882	0	30340	
883	0	30365	
884	0	30362	
885	0	30404	
886	0	30520	
887	0	30608	
888	0	30640	
889	0	30648	
890	0	30584	
891	0	30506	
892	0	30464	
893	0	30528	
894	0	30564	
895	0	30584	
896	0	30572	
897	0	30630	
898	0	30692	
899	0	30688	
900	0	30640	
901	0	30670	
902	0	30724	
903	0	30792	
904	0	30860	
905	0	30904	
906	0	30900	
907	0	30900	
908	0	30896	
909	0	30898	
910	0	30944	
911	0	30960	
912	0	30872	
913	0	30844	
914	0	30856	
915	0	30850	
916	0	30804	
917	0	30876	
918	0	30944	
919	0	30968	
920	0	31032	
921	0	31088	
922	0	31140	
923	0	31184	
924	0	31216	
925	0	31264	
926	0	31312	
927	0	31364	
928	0	31350	
929	0	31288	
930	0	31244	
931	0	31228	
932	0	31230	
933	0	31256	
934	0	31240	
935	0	31200	
936	0	31176	
937	0	31200	
938	0	31260	
939	0	31432	
940	0	31642	
941	0	31780	
942	0	31816	
943	0	31744	
944	0	31752	
945	0	31768	
946	0	31720	
947	0	31704	
948	0	31756	
949	0	31768	
950	0	31680	
951	0	31644	
952	0	31660	
953	0	31546	
954	0	31424	
955	0	31396	
956	0	31412	
957	0	31364	
958	0	31320	
959	0	31296	
960	0	31340	
961	0	31432	
962	0	31540	
963	0	31644	
964	0	31680	
965	0	31692	
966	0	31708	
967	0	31736	
968	0	31820	
969	0	31788	
970	0	31736	
971	0	31741	
972	0	31704	
973	0	31696	
974	0	31706	
975	0	31684	
976	0	31760	
977	0	31852	
978	0	31776	
979	0	31706	
980	0	31716	
981	0	31690	
982	0	31688	
983	0	31708	
984	0	31642	
985	0	31616	
986	0	31584	
987	0	31620	
988	0	31632	
989	0	31656	
990	0	31636	
991	0	31548	
992	0	31498	
993	0	31520	
994	0	31472	
995	0	31500	
996	0	31544	
997	0	31644	
998	0	31740	
999	0	31864	
1000	0	31916	
1001	0	31872	
1002	0	31884	
1003	0	31964	
1004	0	32004	
1005	0	31992	
1006	0	31920	
1007	0	31840	
1008	0	31796	
1009	0	31754	
1010	0	31600	
1011	0	31512	
1012	0	31546	
1013	0	31674	
1014	0	31668	
1015	0	31552	
1016	0	31648	
1017	0	31708	
1018	0	31768	
1019	0	31832	
1020	0	31868	
1021	0	31912	
1022	0	31944	
1023	0	31988	
1024	0	32012	
1025	0	31948	
1026	0	31888	
1027	0	31896	
1028	0	31916	
1029	0	31816	
1030	0	31724	
1031	0	31600	
1032	0	31576	
1033	0	31608	
1034	0	31672	
1035	0	31648	
1036	0	31728	
1037	0	31892	
1038	0	32032	
1039	0	32160	
1040	0	32200	
1041	0	32196	
1042	0	32200	
1043	0	32264	
1044	0	32308	
1045	0	32156	
1046	0	32044	
1047	0	32006	
1048	0	32064	
1049	0	32124	
1050	0	32092	
1051	0	32056	
1052	0	31968	
1053	0	31960	
1054	0	31900	
1055	0	31812	
1056	0	31780	
1057	0	31706	
1058	0	31636	
1059	0	31580	
1060	0	31564	
1061	0	31592	
1062	0	31680	
1063	0	31764	
1064	0	31736	
1065	0	31680	
1066	0	31762	
1067	0	31936	
1068	0	32020	
1069	0	32072	
1070	0	32168	
1071	0	32108	
1072	0	32028	
1073	0	32184	
1074	0	32360	
1075	0	32420	
1076	0	32538	
1077	0	32594	
1078	0	32580	
1079	0	32484	
1080	0	32580	
1081	0	32632	
1082	0	32628	
1083	0	32708	
1084	0	32772	
1085	0	32700	
1086	0	32784	
1087	0	32864	
1088	0	32926	
1089	0	33054	
1090	0	33240	
1091	0	33286	
1092	0	33286	
1093	0	33272	
1094	0	33232	
1095	0	33216	
1096	0	33244	
1097	0	33430	
1098	0	33712	
1099	0	33892	
1100	0	33968	
1101	0	33992	
1102	0	34000	
1103	0	34036	
1104	0	34084	
1105	0	34040	
1106	0	33944	
1107	0	33952	
1108	0	34082	
1109	0	34196	
1110	0	34056	
1111	0	33880	
1112	0	33850	
1113	0	33898	
1114	0	33916	
1115	0	33692	
1116	0	33376	
1117	0	33256	
1118	0	33224	
1119	0	33216	
1120	0	33200	
1121	0	33184	
1122	0	33044	
1123	0	32818	
1124	0	32740	
1125	0	32688	
1126	0	32656	
1127	0	32554	
1128	0	32444	
1129	0	32404	
1130	0	32376	
1131	0	32408	
1132	0	32508	
1133	0	32560	
1134	0	32520	
1135	0	32416	
1136	0	32328	
1137	0	32312	
1138	0	32252	
1139	0	32112	
1140	0	31960	
1141	0	31808	
1142	0	31632	
1143	0	31434	
1144	0	31300	
1145	0	31136	
1146	0	31004	
1147	0	30940	
1148	0	30880	
1149	0	30906	
1150	0	30896	
1151	0	30816	
1152	0	30880	
1153	0	30912	
1154	0	30796	
1155	0	30680	
1156	0	30740	
1157	0	30688	
1158	0	30676	
1159	0	30656	
1160	0	30712	
1161	0	30768	
1162	0	30856	
1163	0	30978	
1164	0	31160	
1165	0	31228	
1166	0	31180	
1167	0	31088	
1168	0	30974	
1169	0	31000	
1170	0	31056	
1171	0	31024	
1172	0	31004	
1173	0	31072	
1174	0	31144	
1175	0	31188	
1176	0	31204	
1177	0	31232	
1178	0	31228	
1179	0	31164	
1180	0	31164	
1181	0	31272	
1182	0	31216	
1183	0	31236	
1184	0	31352	
1185	0	31396	
1186	0	31456	
1187	0	31464	
1188	0	31488	
1189	0	31460	
1190	0	31554	
1191	0	31696	
1192	0	31696	
1193	0	31628	
1194	0	31520	
1195	0	31156	
1196	0	30904	
1197	0	30700	
1198	0	30560	
1199	0	30576	
1200	0	30689	
1201	0	30740	
1202	0	30700	
1203	0	30764	
1204	0	30800	
1205	0	30848	
1206	0	30780	
1207	0	30712	
1208	0	30688	
1209	0	30592	
1210	0	30504	
1211	0	30288	
1212	0	29992	
1213	0	29640	
1214	0	29320	
1215	0	29176	
1216	0	29064	
1217	0	28972	
1218	0	29084	
1219	0	29412	
1220	0	29776	
1221	0	30308	
1222	0	31040	
1223	0	32088	
1224	0	33228	
1225	0	34672	
1226	0	36320	
1227	0	37860	
1228	0	39428	
1229	0	40944	
1230	0	42508	
1231	0	44212	
1232	0	45932	
1233	0	47336	
1234	0	48472	
1235	0	49520	
1236	0	50856	
1237	0	52360	
1238	0	53856	
1239	0	55336	
1240	0	56800	
1241	0	58232	
1242	0	59304	
1243	0	59816	
1244	0	59516	
1245	0	58336	
1246	0	56056	
1247	0	52784	
1248	0	49324	
1249	0	45900	
1250	0	42416	
1251	0	38688	
1252	0	35064	
1253	0	32040	
1254	0	29704	
1255	0	28212	
1256	0	27528	
1257	0	27360	
1258	0	27480	
1259	0	27596	
1260	0	27560	
1261	0	27616	
1262	0	27756	
1263	0	27964	
1264	0	28092	
1265	0	28036	
1266	0	27988	
1267	0	27872	
1268	0	27760	
1269	0	27886	
1270	0	28160	
1271	0	28400	
1272	0	28672	
1273	0	28876	
1274	0	28988	
1275	0	29084	
1276	0	29020	
1277	0	28888	
1278	0	28988	
1279	0	29032	
1280	0	29068	
1281	0	28988	
1282	0	28812	
1283	0	28820	
1284	0	28944	
1285	0	28972	
1286	0	29040	
1287	0	28996	
1288	0	28944	
1289	0	28892	
1290	0	28880	
1291	0	28920	
1292	0	29000	
1293	0	29106	
1294	0	29040	
1295	0	28864	
1296	0	28788	
1297	0	28780	
1298	0	28646	
1299	0	28420	
1300	0	28416	
1301	0	28600	
1302	0	28604	
1303	0	28448	
1304	0	28408	
1305	0	28380	
1306	0	28394	
1307	0	28508	
1308	0	28704	
1309	0	28856	
1310	0	28932	
1311	0	28940	
1312	0	29060	
1313	0	29192	
1314	0	29256	
1315	0	29368	
1316	0	29392	
1317	0	29262	
1318	0	29212	
1319	0	29316	
1320	0	29384	
1321	0	29356	
1322	0	29392	
1323	0	29452	
1324	0	29644	
1325	0	29892	
1326	0	29852	
1327	0	29684	
1328	0	29492	
1329	0	29532	
1330	0	29660	
1331	0	29678	
1332	0	29672	
1333	0	29824	
1334	0	30068	
1335	0	29964	
1336	0	29828	
1337	0	29904	
1338	0	30036	
1339	0	30280	
1340	0	30596	
1341	0	30716	
1342	0	30704	
1343	0	30770	
1344	0	30788	
1345	0	30720	
1346	0	30760	
1347	0	30820	
1348	0	30928	
1349	0	30944	
1350	0	30806	
1351	0	30868	
1352	0	30832	
1353	0	30912	
1354	0	30888	
1355	0	30712	
1356	0	30726	
1357	0	30864	
1358	0	30852	
1359	0	30992	
1360	0	31264	
1361	0	31492	
1362	0	31656	
1363	0	31648	
1364	0	31620	
1365	0	31650	
1366	0	31584	
1367	0	31364	
1368	0	31076	
1369	0	30876	
1370	0	30844	
1371	0	31116	
1372	0	31440	
1373	0	31680	
1374	0	31750	
1375	0	31696	
1376	0	31628	
1377	0	31496	
1378	0	31576	
1379	0	31756	
1380	0	31960	
1381	0	32180	
1382	0	32156	
1383	0	32184	
1384	0	32176	
1385	0	32220	
1386	0	32304	
1387	0	32416	
1388	0	32452	
1389	0	32474	
1390	0	32424	
1391	0	32480	
1392	0	32416	
1393	0	32244	
1394	0	32192	
1395	0	32360	
1396	0	32392	
1397	0	32376	
1398	0	32452	
1399	0	32544	
1400	0	32690	
1401	0	32892	
1402	0	32988	
1403	0	32948	
1404	0	33192	
1405	0	33248	
1406	0	33328	
1407	0	33440	
1408	0	33384	
1409	0	33204	
1410	0	33056	
1411	0	32832	
1412	0	32800	
1413	0	33052	
1414	0	33332	
1415	0	33480	
1416	0	33496	
1417	0	33568	
1418	0	33792	
1419	0	33932	
1420	0	34064	
1421	0	34196	
1422	0	34256	
1423	0	34420	
1424	0	34628	
1425	0	34684	
1426	0	34690	
1427	0	34836	
1428	0	35008	
1429	0	35212	
1430	0	35312	
1431	0	35288	
1432	0	35436	
1433	0	35568	
1434	0	35740	
1435	0	35844	
1436	0	35948	
1437	0	36176	
1438	0	36360	
1439	0	36464	
1440	0	36644	
1441	0	36892	
1442	0	36924	
1443	0	36988	
1444	0	37076	
1445	0	37100	
1446	0	36988	
1447	0	36896	
1448	0	36948	
1449	0	36980	
1450	0	36980	
1451	0	36980	
1452	0	37032	
1453	0	37080	
1454	0	37320	
1455	0	37632	
1456	0	37780	
1457	0	37876	
1458	0	37888	
1459	0	37880	
1460	0	38112	
1461	0	38464	
1462	0	38596	
1463	0	38524	
1464	0	38560	
1465	0	38540	
1466	0	38528	
1467	0	38404	
1468	0	38360	
1469	0	38400	
1470	0	38324	
1471	0	38272	
1472	0	38300	
1473	0	38320	
1474	0	38344	
1475	0	38444	
1476	0	38526	
1477	0	38496	
1478	0	38464	
1479	0	38584	
1480	0	38436	
1481	0	38208	
1482	0	38112	
1483	0	37992	
1484	0	37904	
1485	0	37880	
1486	0	37868	
1487	0	37844	
1488	0	37828	
1489	0	37716	
1490	0	37300	
1491	0	37032	
1492	0	36932	
1493	0	36836	
1494	0	36676	
1495	0	36420	
1496	0	36196	
1497	0	36052	
1498	0	35896	
1499	0	35764	
1500	0	35660	
1501	0	35516	
1502	0	35200	
1503	0	34932	
1504	0	34784	
1505	0	34508	
1506	0	34248	
1507	0	34044	
1508	0	34052	
1509	0	33900	
1510	0	33700	
1511	0	33412	
1512	0	32924	
1513	0	32476	
1514	0	32244	
1515	0	32384	
1516	0	32404	
1517	0	32336	
1518	0	32192	
1519	0	32072	
1520	0	31908	
1521	0	31720	
1522	0	31508	
1523	0	31102	
1524	0	30644	
1525	0	30336	
1526	0	30054	
1527	0	29964	
1528	0	29836	
1529	0	29712	
1530	0	29760	
1531	0	29972	
1532	0	30296	
1533	0	30532	
1534	0	30560	
1535	0	30328	
1536	0	30090	
1537	0	29872	
1538	0	29692	
1539	0	29368	
1540	0	29146	
1541	0	28936	
1542	0	28960	
1543	0	29000	
1544	0	29060	
1545	0	29318	
1546	0	29384	
1547	0	29268	
1548	0	29324	
1549	0	29528	
1550	0	29482	
1551	0	29396	
1552	0	29224	
1553	0	28968	
1554	0	28584	
1555	0	28336	
1556	0	28184	
1557	0	28256	
1558	0	28348	
1559	0	28348	
1560	0	28180	
1561	0	28356	
1562	0	28722	
1563	0	28816	
1564	0	28848	
1565	0	29028	
1566	0	29580	
1567	0	30048	
1568	0	30212	
1569	0	30240	
1570	0	29988	
1571	0	29616	
1572	0	29196	
1573	0	29176	
1574	0	29370	
1575	0	29300	
1576	0	28792	
1577	0	28464	
1578	0	28316	
1579	0	28096	
1580	0	28172	
1581	0	28140	
1582	0	28324	
1583	0	28650	
1584	0	28960	
1585	0	29228	
1586	0	29444	
1587	0	29472	
1588	0	29640	
1589	0	29832	
1590	0	29908	
1591	0	29760	
1592	0	29550	
1593	0	29300	
1594	0	29092	
1595	0	29196	
1596	0	29504	
1597	0	29492	
1598	0	29252	
1599	0	29436	
1600	0	29832	
1601	0	29944	
1602	0	30008	
1603	0	29900	
1604	0	29676	
1605	0	29648	
1606	0	29812	
1607	0	29952	
1608	0	30164	
1609	0	30424	
1610	0	30368	
1611	0	30224	
1612	0	30516	
1613	0	30708	
1614	0	30864	
1615	0	31028	
1616	0	31064	
1617	0	30970	
1618	0	30912	
1619	0	30660	
1620	0	30658	
1621	0	30932	
1622	0	31152	
1623	0	31268	
1624	0	31412	
1625	0	31628	
1626	0	31576	
1627	0	31544	
1628	0	31504	
1629	0	31572	
1630	0	31660	
1631	0	31876	
1632	0	32100	
1633	0	32156	
1634	0	31936	
1635	0	31760	
1636	0	31678	
1637	0	31836	
1638	0	31956	
1639	0	32128	
1640	0	32338	
1641	0	32608	
1642	0	32972	
1643	0	33200	
1644	0	33066	
1645	0	32820	
1646	0	32836	
1647	0	32924	
1648	0	32980	
1649	0	32986	
1650	0	32728	
1651	0	32300	
1652	0	32116	
1653	0	32048	
1654	0	31904	
1655	0	31708	
1656	0	31468	
1657	0	31264	
1658	0	31248	
1659	0	31232	
1660	0	31448	
1661	0	31624	
1662	0	31856	
1663	0	32428	
1664	0	32772	
1665	0	32978	
1666	0	33334	
1667	0	33544	
1668	0	33428	
1669	0	33072	
1670	0	32802	
1671	0	32504	
1672	0	32208	
1673	0	31898	
1674	0	31778	
1675	0	31952	
1676	0	32062	
1677	0	32396	
1678	0	32536	
1679	0	32688	
1680	0	32414	
1681	0	32216	
1682	0	32012	
1683	0	31964	
1684	0	31634	
1685	0	31620	
1686	0	31940	
1687	0	32352	
1688	0	32776	
1689	0	33040	
1690	0	32940	
1691	0	32728	
1692	0	32780	
1693	0	32916	
1694	0	32964	
1695	0	32904	
1696	0	32696	
1697	0	32336	
1698	0	32104	
1699	0	32036	
1700	0	31936	
1701	0	31892	
1702	0	31928	
1703	0	32160	
1704	0	32600	
1705	0	32888	
1706	0	33016	
1707	0	33124	
1708	0	32972	
1709	0	32544	
1710	0	32296	
1711	0	32180	
1712	0	32156	
1713	0	32288	
1714	0	32556	
1715	0	32616	
1716	0	32520	
1717	0	32436	
1718	0	32472	
1719	0	32480	
1720	0	32696	
1721	0	32680	
1722	0	32556	
1723	0	32640	
1724	0	32992	
1725	0	33272	
1726	0	33226	
1727	0	33360	
1728	0	33324	
1729	0	33292	
1730	0	33532	
1731	0	33740	
1732	0	33904	
1733	0	33980	
1734	0	33824	
1735	0	33544	
1736	0	33232	
1737	0	33264	
1738	0	33316	
1739	0	33384	
1740	0	33684	
1741	0	34100	
1742	0	34516	
1743	0	34788	
1744	0	34872	
1745	0	34682	
1746	0	34384	
1747	0	34224	
1748	0	34366	
1749	0	34776	
1750	0	34908	
1751	0	34664	
1752	0	34480	
1753	0	34292	
1754	0	33960	
1755	0	33740	
1756	0	33756	
1757	0	33600	
1758	0	33356	
1759	0	33252	
1760	0	33504	
1761	0	33836	
1762	0	33996	
1763	0	34088	
1764	0	33900	
1765	0	33660	
1766	0	33556	
1767	0	33412	
1768	0	33304	
1769	0	33432	
1770	0	33448	
1771	0	33424	
1772	0	33232	
1773	0	32852	
1774	0	32604	
1775	0	32240	
1776	0	32098	
1777	0	32216	
1778	0	32136	
1779	0	32220	
1780	0	32576	
1781	0	32868	
1782	0	32988	
1783	0	32944	
1784	0	32844	
1785	0	32764	
1786	0	32464	
1787	0	32024	
1788	0	31652	
1789	0	31328	
1790	0	31028	
1791	0	30650	
1792	0	30520	
1793	0	30596	
1794	0	30856	
1795	0	30792	
1796	0	30872	
1797	0	30976	
1798	0	30872	
1799	0	30680	
1800	0	30512	
1801	0	30252	
1802	0	30106	
1803	0	30188	
1804	0	30402	
1805	0	30600	
1806	0	30714	
1807	0	30868	
1808	0	30968	
1809	0	31120	
1810	0	31160	
1811	0	31264	
1812	0	31436	
1813	0	31442	
1814	0	31412	
1815	0	31004	
1816	0	30916	
1817	0	30836	
1818	0	30860	
1819	0	30656	
1820	0	30148	
1821	0	30212	
1822	0	30296	
1823	0	30156	
1824	0	30148	
1825	0	30224	
1826	0	30180	
1827	0	30348	
1828	0	30482	
1829	0	30420	
1830	0	30448	
1831	0	30480	
1832	0	30484	
1833	0	30348	
1834	0	30168	
1835	0	30220	
1836	0	30192	
1837	0	30032	
1838	0	30177	
1839	0	30568	
1840	0	30924	
1841	0	31292	
1842	0	31504	
1843	0	31544	
1844	0	31472	
1845	0	31168	
1846	0	30748	
1847	0	30620	
1848	0	30682	
1849	0	30704	
1850	0	30712	
1851	0	30592	
1852	0	30364	
1853	0	30252	
1854	0	30176	
1855	0	30106	
1856	0	29980	
1857	0	29696	
1858	0	29524	
1859	0	29832	
1860	0	30324	
1861	0	30964	
1862	0	31692	
1863	0	32576	
1864	0	33536	
1865	0	34496	
1866	0	35496	
1867	0	36740	
1868	0	37844	
1869	0	38964	
1870	0	40196	
1871	0	41644	
1872	0	43264	
1873	0	44698	
1874	0	46076	
1875	0	47376	
1876	0	48744	
1877	0	49984	
1878	0	51216	
1879	0	52552	
1880	0	53552	
1881	0	54152	
1882	0	54720	
1883	0	55220	
1884	0	55752	
1885	0	56520	
1886	0	56820	
1887	0	56312	
1888	0	54364	
1889	0	51400	
1890	0	47936	
1891	0	44616	
1892	0	41596	
1893	0	38544	
1894	0	35524	
1895	0	32632	
1896	0	30280	
1897	0	28874	
1898	0	28336	
1899	0	28356	
1900	0	28616	
1901	0	28714	
1902	0	28656	
1903	0	28770	
1904	0	28960	
1905	0	29192	
1906	0	29438	
1907	0	29796	
1908	0	29960	
1909	0	29842	
1910	0	29640	
1911	0	29632	
1912	0	29528	
1913	0	29604	
1914	0	29756	
1915	0	30228	
1916	0	30674	
1917	0	31192	
1918	0	31356	
1919	0	31484	
1920	0	31496	
1921	0	31528	
1922	0	31732	
1923	0	31696	
1924	0	31712	
1925	0	32144	
1926	0	32700	
1927	0	32706	
1928	0	32412	
1929	0	32032	
1930	0	31712	
1931	0	31308	
1932	0	30920	
1933	0	30996	
1934	0	31438	
1935	0	31924	
1936	0	32130	
1937	0	32324	
1938	0	32132	
1939	0	32021	
1940	0	32260	
1941	0	32720	
1942	0	32840	
1943	0	32704	
1944	0	32620	
1945	0	32656	
1946	0	32584	
1947	0	32456	
1948	0	32260	
1949	0	32268	
1950	0	32594	
1951	0	33010	
1952	0	33316	
1953	0	33616	
1954	0	34016	
1955	0	34042	
1956	0	33824	
1957	0	33272	
1958	0	33016	
1959	0	33076	
1960	0	33352	
1961	0	33412	
1962	0	33208	
1963	0	32892	
1964	0	32784	
1965	0	32392	
1966	0	31884	
1967	0	31912	
1968	0	31986	
1969	0	32048	
1970	0	32456	
1971	0	32976	
1972	0	33060	
1973	0	33012	
1974	0	33156	
1975	0	33392	
1976	0	33584	
1977	0	33626	
1978	0	33676	
1979	0	33962	
1980	0	34072	
1981	0	33960	
1982	0	33666	
1983	0	33256	
1984	0	32832	
1985	0	32528	
1986	0	32512	
1987	0	32784	
1988	0	33226	
1989	0	33484	
1990	0	33744	
1991	0	33912	
1992	0	34020	
1993	0	34052	
1994	0	34024	
1995	0	34048	
1996	0	33944	
1997	0	33636	
1998	0	33492	
1999	0	33664	
2000	0	33708	
2001	0	33522	
2002	0	33356	
2003	0	33210	
2004	0	33244	
2005	0	33328	
2006	0	33434	
2007	0	33488	
2008	0	33572	
2009	0	33888	
2010	0	34008	
2011	0	34136	
2012	0	34220	
2013	0	34264	
2014	0	34204	
2015	0	34124	
2016	0	34308	
2017	0	34452	
2018	0	34396	
2019	0	34132	
2020	0	33772	
2021	0	33440	
2022	0	33428	
2023	0	33252	
2024	0	32928	
2025	0	32560	
2026	0	32332	
2027	0	32196	
2028	0	32240	
2029	0	32420	
2030	0	32340	
2031	0	32204	
2032	0	32160	
2033	0	32316	
2034	0	32336	
2035	0	32160	
2036	0	31944	
2037	0	31668	
2038	0	31660	
2039	0	31484	
2040	0	31480	
2041	0	31736	
2042	0	31908	
2043	0	31960	
2044	0	32304	
2045	0	32516	
2046	0	32308	
2047	0	32088	
2048	0	32060	
2049	0	32164	
2050	0	32248	
2051	0	32164	
2052	0	31980	
2053	0	31864	
2054	0	31324	
2055	0	30808	
2056	0	30822	
2057	0	31020	
2058	0	31160	
2059	0	31372	
2060	0	31564	
2061	0	31872	
2062	0	32084	
2063	0	32128	
2064	0	32116	
2065	0	32188	
2066	0	32158	
2067	0	32016	
2068	0	31890	
2069	0	31676	
2070	0	31588	
2071	0	31572	
2072	0	31572	
2073	0	31736	
2074	0	32096	
2075	0	32304	
2076	0	32510	
2077	0	32564	
2078	0	32588	
2079	0	32440	
2080	0	32376	
2081	0	32096	
2082	0	31798	
2083	0	31908	
2084	0	31954	
2085	0	31884	
2086	0	31792	
2087	0	31636	
2088	0	31788	
2089	0	31868	
2090	0	31836	
2091	0	31956	
2092	0	32176	
2093	0	32440	
2094	0	32844	
2095	0	32984	
2096	0	32836	
2097	0	32708	
2098	0	32576	
2099	0	32388	
2100	0	32428	
2101	0	32504	
2102	0	32616	
2103	0	32940	
2104	0	33076	
2105	0	33072	
2106	0	32924	
2107	0	32776	
2108	0	32624	
2109	0	32480	
2110	0	32412	
2111	0	32432	
2112	0	32712	
2113	0	33136	
2114	0	33508	
2115	0	33636	
2116	0	33652	
2117	0	33568	
2118	0	33400	
2119	0	33296	
2120	0	33372	
2121	0	33368	
2122	0	33008	
2123	0	32508	
2124	0	32220	
2125	0	32272	
2126	0	32456	
2127	0	32604	
2128	0	32680	
2129	0	32728	
2130	0	32804	
2131	0	32868	
2132	0	32976	
2133	0	33072	
2134	0	33264	
2135	0	33450	
2136	0	33148	
2137	0	32724	
2138	0	32254	
2139	0	32200	
2140	0	32296	
2141	0	32160	
2142	0	32064	
2143	0	31704	
2144	0	31328	
2145	0	31040	
2146	0	30910	
2147	0	30848	
2148	0	30998	
2149	0	30932	
2150	0	30592	
2151	0	30452	
2152	0	30432	
2153	0	30316	
2154	0	29988	
2155	0	29660	
2156	0	29528	
2157	0	29384	
2158	0	29248	
2159	0	28960	
2160	0	28688	
2161	0	28532	
2162	0	28312	
2163	0	28120	
2164	0	28136	
2165	0	28128	
2166	0	28000	
2167	0	27716	
2168	0	27422	
2169	0	27252	
2170	0	27096	
2171	0	26920	
2172	0	26968	
2173	0	27180	
2174	0	27320	
2175	0	27468	
2176	0	27660	
2177	0	27908	
2178	0	28188	
2179	0	28386	
2180	0	28504	
2181	0	28468	
2182	0	28408	
2183	0	28316	
2184	0	28156	
2185	0	27760	
2186	0	27308	
2187	0	26996	
2188	0	26792	
2189	0	26580	
2190	0	26496	
2191	0	26504	
2192	0	26704	
2193	0	27092	
2194	0	27472	
2195	0	27504	
2196	0	27484	
2197	0	27732	
2198	0	27956	
2199	0	28154	
2200	0	28332	
2201	0	28404	
2202	0	28412	
2203	0	28480	
2204	0	28346	
2205	0	28156	
2206	0	27954	
2207	0	27864	
2208	0	27564	
2209	0	27266	
2210	0	27220	
2211	0	27264	
2212	0	27312	
2213	0	27516	
2214	0	27872	
2215	0	28224	
2216	0	28484	
2217	0	28680	
2218	0	28640	
2219	0	28600	
2220	0	28496	
2221	0	28372	
2222	0	28354	
2223	0	28360	
2224	0	28552	
2225	0	28720	
2226	0	28788	
2227	0	28746	
2228	0	28776	
2229	0	28944	
2230	0	29132	
2231	0	29112	
2232	0	29056	
2233	0	28960	
2234	0	28736	
2235	0	28532	
2236	0	28552	
2237	0	28752	
2238	0	28916	
2239	0	28964	
2240	0	29028	
2241	0	29168	
2242	0	29412	
2243	0	29712	
2244	0	29976	
2245	0	30136	
2246	0	30016	
2247	0	29836	
2248	0	29784	
2249	0	29728	
2250	0	29680	
2251	0	29564	
2252	0	29504	
2253	0	29588	
2254	0	29712	
2255	0	29872	
2256	0	30084	
2257	0	30240	
2258	0	30332	
2259	0	30368	
2260	0	30380	
2261	0	30368	
2262	0	30520	
2263	0	30576	
2264	0	30676	
2265	0	30618	
2266	0	30572	
2267	0	30548	
2268	0	30530	
2269	0	30560	
2270	0	30592	
2271	0	30656	
2272	0	30780	
2273	0	30904	
2274	0	30932	
2275	0	30848	
2276	0	30704	
2277	0	30536	
2278	0	30356	
2279	0	30202	
2280	0	30080	
2281	0	30096	
2282	0	30368	
2283	0	30676	
2284	0	30992	
2285	0	31108	
2286	0	31176	
2287	0	31242	
2288	0	31460	
2289	0	31776	
2290	0	31952	
2291	0	31820	
2292	0	31564	
2293	0	31312	
2294	0	31164	
2295	0	31072	
2296	0	30936	
2297	0	30768	
2298	0	30654	
2299	0	30592	
2300	0	30736	
2301	0	30968	
2302	0	31152	
2303	0	31314	
2304	0	31452	
2305	0	31568	
2306	0	31696	
2307	0	31792	
2308	0	31844	
2309	0	31876	
2310	0	31912	
2311	0	31908	
2312	0	31876	
2313	0	31846	
2314	0	31852	
2315	0	31872	
2316	0	31876	
2317	0	31868	
2318	0	31936	
2319	0	32034	
2320	0	32120	
2321	0	32172	
2322	0	32168	
2323	0	32244	
2324	0	32378	
2325	0	32504	
2326	0	32592	
2327	0	32586	
2328	0	32564	
2329	0	32564	
2330	0	32568	
2331	0	32606	
2332	0	32676	
2333	0	32768	
2334	0	32856	
2335	0	32984	
2336	0	32992	
2337	0	33024	
2338	0	32984	
2339	0	32868	
2340	0	32878	
2341	0	32778	
2342	0	32740	
2343	0	32700	
2344	0	32632	
2345	0	32544	
2346	0	32564	
2347	0	32656	
2348	0	32756	
2349	0	32832	
2350	0	32820	
2351	0	32776	
2352	0	32940	
2353	0	33084	
2354	0	33124	
2355	0	33036	
2356	0	33064	
2357	0	33248	
2358	0	33300	
2359	0	33314	
2360	0	33364	
2361	0	33382	
2362	0	33448	
2363	0	33412	
2364	0	33428	
2365	0	33488	
2366	0	33506	
2367	0	33600	
2368	0	33704	
2369	0	33728	
2370	0	33804	
2371	0	33956	
2372	0	34076	
2373	0	34152	
2374	0	34160	
2375	0	34164	
2376	0	34292	
2377	0	34372	
2378	0	34396	
2379	0	34452	
2380	0	34586	
2381	0	34668	
2382	0	34788	
2383	0	34796	
2384	0	34772	
2385	0	34808	
2386	0	34836	
2387	0	34892	
2388	0	34964	
2389	0	34912	
2390	0	34744	
2391	0	34648	
2392	0	34720	
2393	0	34884	
2394	0	34960	
2395	0	34980	
2396	0	35064	
2397	0	35146	
2398	0	35264	
2399	0	35508	
2400	0	35744	
2401	0	35938	
2402	0	36084	
2403	0	36252	
2404	0	36384	
2405	0	36492	
2406	0	36524	
2407	0	36654	
2408	0	36820	
2409	0	36956	
2410	0	37016	
2411	0	37102	
2412	0	37048	
2413	0	37000	
2414	0	36838	
2415	0	36576	
2416	0	36456	
2417	0	36312	
2418	0	36186	
2419	0	36048	
2420	0	36026	
2421	0	35912	
2422	0	35624	
2423	0	35464	
2424	0	35468	
2425	0	35432	
2426	0	35388	
2427	0	35424	
2428	0	35496	
2429	0	35496	
2430	0	35448	
2431	0	35436	
2432	0	35376	
2433	0	35200	
2434	0	35168	
2435	0	35224	
2436	0	35270	
2437	0	35404	
2438	0	35476	
2439	0	35424	
2440	0	35332	
2441	0	35268	
2442	0	35316	
2443	0	35312	
2444	0	35368	
2445	0	35360	
2446	0	35232	
2447	0	35032	
2448	0	34872	
2449	0	34652	
2450	0	34448	
2451	0	34434	
2452	0	34420	
2453	0	34380	
2454	0	34300	
2455	0	34128	
2456	0	34072	
2457	0	34108	
2458	0	34244	
2459	0	34296	
2460	0	34242	
2461	0	34208	
2462	0	34210	
2463	0	34288	
2464	0	34416	
2465	0	34480	
2466	0	34500	
2467	0	34416	
2468	0	34328	
2469	0	34276	
2470	0	34316	
2471	0	34408	
2472	0	34636	
2473	0	34740	
2474	0	34828	
2475	0	34940	
2476	0	34892	
2477	0	34804	
2478	0	34796	
2479	0	34912	
2480	0	35112	
2481	0	35276	
2482	0	35320	
2483	0	35334	
2484	0	35312	
2485	0	35310	
2486	0	35380	
2487	0	35424	
2488	0	35492	
2489	0	35556	
2490	0	35472	
2491	0	35316	
2492	0	35136	
2493	0	35028	
2494	0	34908	
2495	0	34744	
2496	0	34640	
2497	0	34584	
2498	0	34540	
2499	0	34588	
2500	0	34660	
2501	0	34688	
2502	0	34756	
2503	0	34824	
2504	0	34872	
2505	0	34884	
2506	0	34988	
2507	0	35060	
2508	0	35120	
2509	0	35180	
2510	0	35168	
2511	0	35064	
2512	0	34880	
2513	0	34780	
2514	0	34756	
2515	0	34648	
2516	0	34496	
2517	0	34432	
2518	0	34368	
2519	0	34208	
2520	0	33974	
2521	0	33784	
2522	0	33584	
2523	0	33530	
2524	0	33632	
2525	0	33748	
2526	0	33892	
2527	0	34124	
2528	0	34590	
2529	0	35220	
2530	0	35976	
2531	0	36880	
2532	0	38080	
2533	0	39516	
2534	0	41060	
2535	0	42624	
2536	0	44212	
2537	0	45800	
2538	0	47456	
2539	0	49032	
2540	0	50466	
2541	0	51752	
2542	0	53064	
2543	0	54344	
2544	0	55580	
2545	0	56720	
2546	0	57804	
2547	0	58880	
2548	0	60064	
2549	0	61120	
2550	0	61780	
2551	0	61792	
2552	0	60900	
2553	0	59072	
2554	0	56264	
2555	0	52984	
2556	0	49864	
2557	0	46836	
2558	0	43696	
2559	0	40526	
2560	0	37640	
2561	0	35400	
2562	0	33892	
2563	0	32982	
2564	0	32532	
2565	0	32228	
2566	0	31992	
2567	0	31848	
2568	0	31864	
2569	0	31860	
2570	0	31804	
2571	0	31736	
2572	0	31608	
2573	0	31544	
2574	0	31434	
2575	0	31336	
2576	0	31332	
2577	0	31284	
2578	0	31296	
2579	0	31384	
2580	0	31584	
2581	0	31780	
2582	0	31928	
2583	0	32052	
2584	0	32132	
2585	0	32144	
2586	0	32184	
2587	0	32152	
2588	0	32040	
2589	0	31884	
2590	0	31736	
2591	0	31608	
2592	0	31552	
2593	0	31424	
2594	0	31284	
2595	0	31240	
2596	0	31272	
2597	0	31316	
2598	0	31220	
2599	0	31148	
2600	0	31148	
2601	0	31146	
2602	0	31204	
2603	0	31272	
2604	0	31320	
2605	0	31400	
2606	0	31480	
2607	0	31500	
2608	0	31432	
2609	0	31340	
2610	0	31388	
2611	0	31428	
2612	0	31400	
2613	0	31420	
2614	0	31376	
2615	0	31322	
2616	0	31276	
2617	0	31260	
2618	0	31304	
2619	0	31372	
2620	0	31360	
2621	0	31356	
2622	0	31460	
2623	0	31504	
2624	0	31528	
2625	0	31580	
2626	0	31656	
2627	0	31664	
2628	0	31648	
2629	0	31620	
2630	0	31720	
2631	0	31788	
2632	0	31818	
2633	0	31772	
2634	0	31676	
2635	0	31600	
2636	0	31540	
2637	0	31652	
2638	0	31860	
2639	0	32064	
2640	0	32224	
2641	0	32260	
2642	0	32330	
2643	0	32388	
2644	0	32416	
2645	0	32502	
2646	0	32592	
2647	0	32666	
2648	0	32720	
2649	0	32752	
2650	0	32724	
2651	0	32688	
2652	0	32724	
2653	0	32752	
2654	0	32808	
2655	0	32744	
2656	0	32680	
2657	0	32612	
2658	0	32584	
2659	0	32570	
2660	0	32568	
2661	0	32776	
2662	0	32948	
2663	0	33060	
2664	0	33208	
2665	0	33306	
2666	0	33336	
2667	0	33344	
2668	0	33298	
2669	0	33190	
2670	0	33200	
2671	0	33352	
2672	0	33460	
2673	0	33376	
2674	0	33232	
2675	0	33140	
2676	0	33152	
2677	0	33268	
2678	0	33420	
2679	0	33544	
2680	0	33640	
2681	0	33728	
2682	0	33784	
2683	0	33864	
2684	0	34032	
2685	0	34076	
2686	0	34164	
2687	0	34300	
2688	0	34352	
2689	0	34436	
2690	0	34528	
2691	0	34484	
2692	0	34412	
2693	0	34492	
2694	0	34552	
2695	0	34518	
2696	0	34464	
2697	0	34372	
2698	0	34320	
2699	0	34304	
2700	0	34224	
2701	0	34264	
2702	0	34417	
2703	0	34576	
2704	0	34572	
2705	0	34592	
2706	0	34624	
2707	0	34646	
2708	0	34640	
2709	0	34688	
2710	0	34748	
2711	0	34744	
2712	0	34716	
2713	0	34728	
2714	0	34776	
2715	0	34744	
2716	0	34708	
2717	0	34660	
2718	0	34576	
2719	0	34608	
2720	0	34756	
2721	0	35012	
2722	0	35252	
2723	0	35324	
2724	0	35284	
2725	0	35320	
2726	0	35332	
2727	0	35362	
2728	0	35432	
2729	0	35420	
2730	0	35392	
2731	0	35308	
2732	0	35304	
2733	0	35316	
2734	0	35358	
2735	0	35378	
2736	0	35376	
2737	0	35374	
2738	0	35416	
2739	0	35344	
2740	0	35476	
2741	0	35632	
2742	0	35716	
2743	0	35768	
2744	0	35800	
2745	0	35808	
2746	0	35856	
2747	0	35932	
2748	0	36042	
2749	0	36188	
2750	0	36224	
2751	0	36224	
2752	0	36216	
2753	0	36200	
2754	0	36192	
2755	0	36280	
2756	0	36372	
2757	0	36432	
2758	0	36504	
2759	0	36602	
2760	0	36760	
2761	0	36916	
2762	0	37012	
2763	0	37156	
2764	0	37300	
2765	0	37408	
2766	0	37496	
2767	0	37512	
2768	0	37496	
2769	0	37400	
2770	0	37284	
2771	0	37176	
2772	0	37084	
2773	0	37056	
2774	0	36960	
2775	0	36880	
2776	0	36904	
2777	0	36948	
2778	0	36980	
2779	0	36912	
2780	0	36840	
2781	0	36696	
2782	0	36636	
2783	0	36672	
2784	0	36648	
2785	0	36560	
2786	0	36424	
2787	0	36352	
2788	0	36332	
2789	0	36320	
2790	0	36320	
2791	0	36368	
2792	0	36328	
2793	0	36316	
2794	0	36260	
2795	0	36092	
2796	0	36024	
2797	0	36020	
2798	0	35960	
2799	0	35840	
2800	0	35708	
2801	0	35608	
2802	0	35412	
2803	0	35232	
2804	0	35048	
2805	0	34848	
2806	0	34656	
2807	0	34508	
2808	0	34368	
2809	0	34260	
2810	0	34024	
2811	0	33732	
2812	0	33468	
2813	0	33148	
2814	0	32864	
2815	0	32688	
2816	0	32596	
2817	0	32472	
2818	0	32248	
2819	0	32064	
2820	0	31908	
2821	0	31738	
2822	0	31612	
2823	0	31576	
2824	0	31604	
2825	0	31636	
2826	0	31568	
2827	0	31386	
2828	0	31164	
2829	0	30988	
2830	0	30812	
2831	0	30672	
2832	0	30556	
2833	0	30454	
2834	0	30392	
2835	0	30360	
2836	0	30344	
2837	0	30312	
2838	0	30264	
2839	0	30258	
2840	0	30228	
2841	0	30190	
2842	0	30208	
2843	0	30252	
2844	0	30308	
2845	0	30240	
2846	0	30192	
2847	0	30092	
2848	0	30008	
2849	0	29924	
2850	0	29776	
2851	0	29620	
2852	0	29552	
2853	0	29544	
2854	0	29562	
2855	0	29598	
2856	0	29668	
2857	0	29738	
2858	0	29864	
2859	0	30000	
2860	0	30136	
2861	0	30180	
2862	0	30104	
2863	0	30146	
2864	0	30302	
2865	0	30480	
2866	0	30570	
2867	0	30554	
2868	0	30568	
2869	0	30592	
2870	0	30608	
2871	0	30644	
2872	0	30636	
2873	0	30636	
2874	0	30584	
2875	0	30508	
2876	0	30528	
2877	0	30600	
2878	0	30716	
2879	0	30824	
2880	0	30896	
2881	0	30914	
2882	0	30900	
2883	0	30894	
2884	0	30972	
2885	0	31076	
2886	0	31060	
2887	0	30972	
2888	0	30928	
2889	0	30920	
2890	0	30862	
2891	0	30904	
2892	0	30984	
2893	0	31028	
2894	0	31034	
2895	0	30968	
2896	0	30956	
2897	0	31036	
2898	0	31160	
2899	0	31280	
2900	0	31336	
2901	0	31408	
2902	0	31416	
2903	0	31448	
2904	0	31534	
2905	0	31520	
2906	0	31540	
2907	0	31628	
2908	0	31708	
2909	0	31720	
2910	0	31740	
2911	0	31786	
2912	0	31706	
2913	0	31588	
2914	0	31520	
2915	0	31544	
2916	0	31540	
2917	0	31536	
2918	0	31560	
2919	0	31528	
2920	0	31524	
2921	0	31676	
2922	0	31800	
2923	0	31836	
2924	0	31784	
2925	0	31840	
2926	0	31896	
2927	0	31988	
2928	0	32052	
2929	0	32036	
2930	0	31986	
2931	0	31960	
2932	0	31956	
2933	0	32012	
2934	0	32040	
2935	0	32012	
2936	0	32001	
2937	0	31948	
2938	0	31936	
2939	0	31936	
2940	0	31944	
2941	0	32000	
2942	0	32076	
2943	0	32152	
2944	0	32229	
2945	0	32244	
2946	0	32204	
2947	0	32236	
2948	0	32348	
2949	0	32356	
2950	0	32332	
2951	0	32284	
2952	0	32240	
2953	0	32192	
2954	0	32128	
2955	0	32092	
2956	0	32132	
2957	0	32216	
2958	0	32224	
2959	0	32220	
2960	0	32268	
2961	0	32416	
2962	0	32564	
2963	0	32604	
2964	0	32584	
2965	0	32564	
2966	0	32560	
2967	0	32588	
2968	0	32616	
2969	0	32688	
2970	0	32708	
2971	0	32692	
2972	0	32596	
2973	0	32576	
2974	0	32584	
2975	0	32524	
2976	0	32496	
2977	0	32468	
2978	0	32448	
2979	0	32508	
2980	0	32602	
2981	0	32700	
2982	0	32752	
2983	0	32836	
2984	0	32964	
2985	0	33080	
2986	0	33100	
2987	0	33104	
2988	0	33080	
2989	0	33048	
2990	0	32956	
2991	0	32896	
2992	0	32858	
2993	0	32768	
2994	0	32740	
2995	0	32816	
2996	0	32868	
2997	0	32936	
2998	0	32941	
2999	0	32960	
3000	0	32996	
3001	0	33020	
3002	0	33056	
3003	0	33132	
3004	0	33220	
3005	0	33272	
3006	0	33292	
3007	0	33252	
3008	0	33176	
3009	0	33146	
3010	0	33092	
3011	0	33038	
3012	0	32980	
3013	0	32952	
3014	0	32928	
3015	0	32884	
3016	0	32868	
3017	0	32872	
3018	0	32908	
3019	0	32928	
3020	0	32922	
3021	0	32996	
3022	0	33204	
3023	0	33372	
3024	0	33392	
3025	0	33336	
3026	0	33292	
3027	0	33304	
3028	0	33340	
3029	0	33352	
3030	0	33344	
3031	0	33296	
3032	0	33216	
3033	0	33192	
3034	0	33204	
3035	0	33212	
3036	0	33140	
3037	0	33112	
3038	0	33072	
3039	0	33024	
3040	0	33020	
3041	0	33080	
3042	0	33092	
3043	0	33124	
3044	0	33152	
3045	0	33186	
3046	0	33216	
3047	0	33236	
3048	0	33232	
3049	0	33226	
3050	0	33166	
3051	0	33124	
3052	0	33092	
3053	0	33028	
3054	0	32980	
3055	0	32948	
3056	0	32940	
3057	0	32944	
3058	0	32930	
3059	0	32960	
3060	0	32996	
3061	0	33030	
3062	0	33012	
3063	0	33068	
3064	0	33176	
3065	0	33184	
3066	0	33208	
3067	0	33216	
3068	0	33152	
3069	0	33072	
3070	0	33040	
3071	0	33004	
3072	0	32940	
3073	0	32916	
3074	0	32908	
3075	0	32930	
3076	0	32924	
3077	0	32936	
3078	0	32924	
3079	0	32884	
3080	0	32868	
3081	0	32872	
3082	0	32864	
3083	0	32924	
3084	0	32968	
3085	0	32932	
3086	0	32928	
3087	0	33020	
3088	0	33144	
3089	0	33272	
3090	0	33280	
3091	0	33184	
3092	0	33136	
3093	0	33088	
3094	0	33086	
3095	0	33072	
3096	0	33148	
3097	0	33136	
3098	0	33088	
3099	0	33004	
3100	0	32976	
3101	0	32960	
3102	0	32960	
3103	0	32992	
3104	0	33076	
3105	0	33174	
3106	0	33244	
3107	0	33292	
3108	0	33354	
3109	0	33380	
3110	0	33266	
3111	0	33128	
3112	0	33028	
3113	0	33044	
3114	0	33028	
3115	0	33020	
3116	0	33114	
3117	0	33236	
3118	0	33276	
3119	0	33272	
3120	0	33332	
3121	0	33424	
3122	0	33452	
3123	0	33436	
3124	0	33372	
3125	0	33252	
3126	0	33144	
3127	0	33120	
3128	0	33080	
3129	0	33036	
3130	0	32980	
3131	0	32992	
3132	0	32952	
3133	0	32912	
3134	0	32932	
3135	0	32972	
3136	0	32940	
3137	0	32976	
3138	0	33120	
3139	0	33336	
3140	0	33604	
3141	0	33776	
3142	0	33812	
3143	0	33800	
3144	0	33774	
3145	0	33768	
3146	0	33790	
3147	0	33760	
3148	0	33772	
3149	0	33740	
3150	0	33660	
3151	0	33640	
3152	0	33648	
3153	0	33652	
3154	0	33572	
3155	0	33456	
3156	0	33380	
3157	0	33312	
3158	0	33296	
3159	0	33332	
3160	0	33428	
3161	0	33524	
3162	0	33544	
3163	0	33532	
3164	0	33516	
3165	0	33540	
3166	0	33568	
3167	0	33528	
3168	0	33460	
3169	0	33464	
3170	0	33472	
3171	0	33424	
3172	0	33360	
3173	0	33336	
3174	0	33396	
3175	0	33400	
3176	0	33378	
3177	0	33320	
3178	0	33288	
3179	0	33248	
3180	0	33272	
3181	0	33328	
3182	0	33244	
3183	0	33186	
3184	0	33132	
3185	0	33088	
3186	0	33092	
3187	0	33268	
3188	0	33492	
3189	0	33560	
3190	0	33548	
3191	0	33500	
3192	0	33428	
3193	0	33344	
3194	0	33316	
3195	0	33300	
3196	0	33280	
3197	0	33252	
3198	0	33200	
3199	0	33186	
3200	0	33184	
3201	0	33228	
3202	0	33292	
3203	0	33364	
3204	0	33340	
3205	0	33300	
3206	0	33304	
3207	0	33280	
3208	0	33256	
3209	0	33244	
3210	0	33182	
3211	0	33080	
3212	0	32992	
3213	0	32960	
3214	0	32914	
3215	0	32864	
3216	0	32840	
3217	0	32800	
3218	0	32808	
3219	0	32856	
3220	0	32896	
3221	0	32932	
3222	0	32988	
3223	0	33052	
3224	0	33132	
3225	0	33136	
3226	0	33112	
3227	0	33056	
3228	0	33000	
3229	0	33016	
3230	0	32964	
3231	0	32864	
3232	0	32856	
3233	0	32844	
3234	0	32832	
3235	0	32792	
3236	0	32732	
3237	0	32712	
3238	0	32704	
3239	0	32664	
3240	0	32628	
3241	0	32628	
3242	0	32664	
3243	0	32796	
3244	0	32908	
3245	0	32944	
3246	0	32928	
3247	0	32920	
3248	0	32968	
3249	0	33008	
3250	0	32936	
3251	0	32852	
3252	0	32844	
3253	0	32848	
3254	0	32812	
3255	0	32780	
3256	0	32744	
3257	0	32704	
3258	0	32672	
3259	0	32708	
3260	0	32772	
3261	0	32808	
3262	0	32896	
3263	0	32940	
3264	0	32900	
3265	0	32856	
3266	0	32868	
3267	0	32928	
3268	0	32960	
3269	0	32944	
3270	0	32832	
3271	0	32736	
3272	0	32712	
3273	0	32692	
3274	0	32608	
3275	0	32520	
3276	0	32492	
3277	0	32410	
3278	0	32364	
3279	0	32380	
3280	0	32346	
3281	0	32412	
3282	0	32576	
3283	0	32744	
3284	0	32888	
3285	0	33036	
3286	0	33140	
3287	0	33188	
3288	0	33240	
3289	0	33296	
3290	0	33308	
3291	0	33332	
3292	0	33365	
3293	0	33388	
3294	0	33412	
3295	0	33356	
3296	0	33288	
3297	0	33242	
3298	0	33258	
3299	0	33280	
3300	0	33350	
3301	0	33436	
3302	0	33520	
3303	0	33576	
3304	0	33620	
3305	0	33614	
3306	0	33576	
3307	0	33568	
3308	0	33602	
3309	0	33728	
3310	0	33844	
3311	0	33924	
3312	0	34040	
3313	0	34170	
3314	0	34256	
3315	0	34276	
3316	0	34296	
3317	0	34368	
3318	0	34408	
3319	0	34400	
3320	0	34396	
3321	0	34388	
3322	0	34412	
3323	0	34436	
3324	0	34408	
3325	0	34424	
3326	0	34464	
3327	0	34424	
3328	0	34320	
3329	0	34232	
3330	0	34148	
3331	0	34040	
3332	0	33908	
3333	0	33708	
3334	0	33516	
3335	0	33372	
3336	0	33216	
3337	0	33106	
3338	0	33100	
3339	0	33112	
3340	0	33126	
3341	0	33156	
3342	0	33164	
3343	0	33228	
3344	0	33284	
3345	0	33220	
3346	0	33208	
3347	0	33248	
3348	0	33232	
3349	0	33228	
3350	0	33168	
3351	0	33112	
3352	0	33044	
3353	0	32892	
3354	0	32744	
3355	0	32640	
3356	0	32560	
3357	0	32456	
3358	0	32356	
3359	0	32264	
3360	0	32252	
3361	0	32218	
3362	0	32232	
3363	0	32196	
3364	0	32096	
3365	0	32032	
3366	0	31960	
3367	0	31884	
3368	0	31796	
3369	0	31684	
3370	0	31580	
3371	0	31516	
3372	0	31550	
3373	0	31540	
3374	0	31520	
3375	0	31484	
3376	0	31456	
3377	0	31448	
3378	0	31472	
3379	0	31578	
3380	0	31696	
3381	0	31764	
3382	0	31844	
3383	0	31916	
3384	0	31902	
3385	0	31820	
3386	0	31788	
3387	0	31802	
3388	0	31880	
3389	0	31914	
3390	0	31840	
3391	0	31836	
3392	0	31868	
3393	0	31872	
3394	0	31808	
3395	0	31796	
3396	0	31836	
3397	0	31888	
3398	0	31944	
3399	0	31972	
3400	0	31968	
3401	0	31992	
3402	0	32080	
3403	0	32156	
3404	0	32196	
3405	0	32256	
3406	0	32308	
3407	0	32304	
3408	0	32308	
3409	0	32392	
3410	0	32472	
3411	0	32472	
3412	0	32404	
3413	0	32384	
3414	0	32336	
3415	0	32328	
3416	0	32320	
3417	0	32256	
3418	0	32168	
3419	0	32052	
3420	0	31924	
3421	0	31760	
3422	0	31600	
3423	0	31450	
3424	0	31264	
3425	0	31012	
3426	0	30816	
3427	0	30660	
3428	0	30504	
3429	0	30460	
3430	0	30634	
3431	0	30968	
3432	0	31356	
3433	0	31850	
3434	0	32632	
3435	0	33630	
3436	0	34788	
3437	0	36112	
3438	0	37596	
3439	0	39280	
3440	0	40992	
3441	0	42552	
3442	0	44084	
3443	0	45556	
3444	0	47040	
3445	0	48456	
3446	0	49828	
3447	0	51244	
3448	0	52824	
3449	0	54496	
3450	0	56192	
3451	0	57920	
3452	0	59492	
3453	0	60912	
3454	0	62000	
3455	0	62560	
3456	0	62812	
3457	0	62892	
3458	0	62116	
3459	0	59488	
3460	0	56376	
3461	0	53084	
3462	0	49872	
3463	0	46444	
3464	0	42688	
3465	0	39052	
3466	0	36088	
3467	0	33904	
3468	0	32272	
3469	0	31092	
3470	0	30232	
3471	0	29680	
3472	0	29324	
3473	0	29032	
3474	0	28896	
3475	0	28892	
3476	0	28992	
3477	0	29094	
3478	0	29216	
3479	0	29408	
3480	0	29612	
3481	0	29752	
3482	0	29920	
3483	0	30116	
3484	0	30292	
3485	0	30412	
3486	0	30444	
3487	0	30408	
3488	0	30272	
3489	0	30136	
3490	0	30032	
3491	0	29888	
3492	0	29692	
3493	0	29556	
3494	0	29420	
3495	0	29304	
3496	0	29256	
3497	0	29250	
3498	0	29232	
3499	0	29190	
3500	0	29204	
3501	0	29200	
3502	0	29220	
3503	0	29204	
3504	0	29160	
3505	0	29192	
3506	0	29188	
3507	0	29184	
3508	0	29184	
3509	0	29186	
3510	0	29196	
3511	0	29190	
3512	0	29188	
3513	0	29192	
3514	0	29192	
3515	0	29224	
3516	0	29200	
3517	0	29224	
3518	0	29256	
3519	0	29316	
3520	0	29340	
3521	0	29380	
3522	0	29488	
3523	0	29538	
3524	0	29576	
3525	0	29664	
3526	0	29752	
3527	0	29772	
3528	0	29796	
3529	0	29828	
3530	0	29866	
3531	0	29844	
3532	0	29804	
3533	0	29808	
3534	0	29764	
3535	0	29736	
3536	0	29728	
3537	0	29696	
3538	0	29740	
3539	0	29840	
3540	0	29940	
3541	0	30036	
3542	0	30144	
3543	0	30234	
3544	0	30270	
3545	0	30292	
3546	0	30356	
3547	0	30408	
3548	0	30400	
3549	0	30380	
3550	0	30378	
3551	0	30420	
3552	0	30476	
3553	0	30512	
3554	0	30482	
3555	0	30498	
3556	0	30528	
3557	0	30512	
3558	0	30524	
3559	0	30572	
3560	0	30668	
3561	0	30788	
3562	0	30868	
3563	0	30928	
3564	0	30968	
3565	0	31012	
3566	0	31076	
3567	0	31084	
3568	0	31072	
3569	0	31060	
3570	0	31040	
3571	0	31064	
3572	0	31040	
3573	0	31052	
3574	0	31080	
3575	0	31084	
3576	0	31124	
3577	0	31144	
3578	0	31204	
3579	0	31312	
3580	0	31408	
3581	0	31508	
3582	0	31576	
3583	0	31666	
3584	0	31732	
3585	0	31800	
3586	0	31824	
3587	0	31860	
3588	0	31816	
3589	0	31816	
3590	0	31880	
3591	0	31928	
3592	0	31944	
3593	0	31896	
3594	0	31848	
3595	0	31852	
3596	0	31860	
3597	0	31884	
3598	0	31996	
3599	0	32048	
3600	0	32106	
3601	0	32172	
3602	0	32248	
3603	0	32312	
3604	0	32384	
3605	0	32440	
3606	0	32448	
3607	0	32444	
3608	0	32464	
3609	0	32512	
3610	0	32516	
3611	0	32520	
3612	0	32496	
3613	0	32482	
3614	0	32514	
3615	0	32564	
3616	0	32568	
3617	0	32520	
3618	0	32532	
3619	0	32598	
3620	0	32740	
3621	0	32860	
3622	0	32960	
3623	0	33052	
3624	0	33148	
3625	0	33228	
3626	0	33292	
3627	0	33312	
3628	0	33340	
3629	0	33406	
3630	0	33452	
3631	0	33476	
3632	0	33450	
3633	0	33442	
3634	0	33504	
3635	0	33620	
3636	0	33692	
3637	0	33708	
3638	0	33736	
3639	0	33816	
3640	0	33892	
3641	0	33952	
3642	0	34016	
3643	0	34140	
3644	0	34236	
3645	0	34276	
3646	0	34292	
3647	0	34312	
3648	0	34336	
3649	0	34376	
3650	0	34420	
3651	0	34532	
3652	0	34678	
3653	0	34740	
3654	0	34734	
3655	0	34704	
3656	0	34712	
3657	0	34756	
3658	0	34884	
3659	0	35004	
3660	0	35172	
3661	0	35312	
3662	0	35396	
3663	0	35508	
3664	0	35612	
3665	0	35700	
3666	0	35740	
3667	0	35792	
3668	0	35832	
3669	0	35904	
3670	0	35976	
3671	0	36008	
3672	0	36048	
3673	0	36120	
3674	0	36132	
3675	0	36148	
3676	0	36120	
3677	0	36130	
3678	0	36200	
3679	0	36288	
3680	0	36342	
3681	0	36440	
3682	0	36528	
3683	0	36616	
3684	0	36685	
3685	0	36736	
3686	0	36768	
3687	0	36772	
3688	0	36780	
3689	0	36792	
3690	0	36796	
3691	0	36804	
3692	0	36816	
3693	0	36760	
3694	0	36716	
3695	0	36684	
3696	0	36696	
3697	0	36704	
3698	0	36704	
3699	0	36664	
3700	0	36688	
3701	0	36780	
3702	0	36828	
3703	0	36784	
3704	0	36692	
3705	0	36578	
3706	0	36456	
3707	0	36384	
3708	0	36306	
3709	0	36204	
3710	0	36068	
3711	0	35904	
3712	0	35726	
3713	0	35552	
3714	0	35356	
3715	0	35136	
3716	0	34906	
3717	0	34704	
3718	0	34520	
3719	0	34364	
3720	0	34248	
3721	0	34116	
3722	0	33964	
3723	0	33816	
3724	0	33672	
3725	0	33496	
3726	0	33332	
3727	0	33178	
3728	0	33004	
3729	0	32810	
3730	0	32676	
3731	0	32542	
3732	0	32362	
3733	0	32204	
3734	0	32112	
3735	0	31952	
3736	0	31794	
3737	0	31632	
3738	0	31482	
3739	0	31344	
3740	0	31226	
3741	0	31160	
3742	0	31092	
3743	0	31040	
3744	0	30988	
3745	0	30936	
3746	0	30860	
3747	0	30740	
3748	0	30632	
3749	0	30528	
3750	0	30436	
3751	0	30356	
3752	0	30296	
3753	0	30218	
3754	0	30140	
3755	0	30044	
3756	0	29932	
3757	0	29864	
3758	0	29784	
3759	0	29748	
3760	0	29764	
3761	0	29742	
3762	0	29764	
3763	0	29824	
3764	0	29880	
3765	0	29888	
3766	0	29860	
3767	0	29844	
3768	0	29816	
3769	0	29784	
3770	0	29710	
3771	0	29680	
3772	0	29644	
3773	0	29592	
3774	0	29520	
3775	0	29440	
3776	0	29384	
3777	0	29392	
3778	0	29458	
3779	0	29504	
3780	0	29582	
3781	0	29664	
3782	0	29722	
3783	0	29760	
3784	0	29788	
3785	0	29746	
3786	0	29730	
3787	0	29752	
3788	0	29792	
3789	0	29828	
3790	0	29844	
3791	0	29824	
3792	0	29768	
3793	0	29710	
3794	0	29684	
3795	0	29698	
3796	0	29728	
3797	0	29738	
3798	0	29768	
3799	0	29788	
3800	0	29852	
3801	0	29978	
3802	0	30100	
3803	0	30152	
3804	0	30168	
3805	0	30152	
3806	0	30144	
3807	0	30148	
3808	0	30168	
3809	0	30178	
3810	0	30168	
3811	0	30188	
3812	0	30240	
3813	0	30292	
3814	0	30256	
3815	0	30184	
3816	0	30168	
3817	0	30144	
3818	0	30170	
3819	0	30196	
3820	0	30228	
3821	0	30284	
3822	0	30320	
3823	0	30376	
3824	0	30444	
3825	0	30506	
3826	0	30572	
3827	0	30572	
3828	0	30560	
3829	0	30480	
3830	0	30440	
3831	0	30452	
3832	0	30452	
3833	0	30432	
3834	0	30404	
3835	0	30412	
3836	0	30456	
3837	0	30488	
3838	0	30520	
3839	0	30548	
3840	0	30612	
3841	0	30684	
3842	0	30720	
3843	0	30736	
3844	0	30740	
3845	0	30804	
3846	0	30872	
3847	0	30900	
3848	0	30856	
3849	0	30844	
3850	0	30840	
3851	0	30776	
3852	0	30666	
3853	0	30628	
3854	0	30600	
3855	0	30616	
3856	0	30628	
3857	0	30656	
3858	0	30712	
3859	0	30760	
3860	0	30808	
3861	0	30816	
3862	0	30852	
3863	0	30888	
3864	0	30948	
3865	0	30976	
3866	0	30972	
3867	0	30972	
3868	0	30936	
3869	0	30920	
3870	0	30912	
3871	0	30924	
3872	0	30956	
3873	0	30964	
3874	0	30912	
3875	0	30880	
3876	0	30864	
3877	0	30884	
3878	0	30912	
3879	0	30952	
3880	0	31004	
3881	0	31080	
3882	0	31136	
3883	0	31140	
3884	0	31136	
3885	0	31108	
3886	0	31080	
3887	0	31080	
3888	0	31108	
3889	0	31120	
3890	0	31132	
3891	0	31112	
3892	0	31122	
3893	0	31096	
3894	0	31052	
3895	0	30988	
3896	0	30976	
3897	0	31032	
3898	0	31094	
3899	0	31076	
3900	0	31080	
3901	0	31136	
3902	0	31216	
3903	0	31312	
3904	0	31328	
3905	0	31324	
3906	0	31348	
3907	0	31344	
3908	0	31316	
3909	0	31236	
3910	0	31164	
3911	0	31160	
3912	0	31188	
3913	0	31168	
3914	0	31152	
3915	0	31156	
3916	0	31196	
3917	0	31176	
3918	0	31172	
3919	0	31184	
3920	0	31216	
3921	0	31256	
3922	0	31244	
3923	0	31320	
3924	0	31348	
3925	0	31384	
3926	0	31456	
3927	0	31504	
3928	0	31532	
3929	0	31544	
3930	0	31536	
3931	0	31488	
3932	0	31392	
3933	0	31360	
3934	0	31376	
3935	0	31372	
3936	0	31344	
3937	0	31316	
3938	0	31324	
3939	0	31344	
3940	0	31392	
3941	0	31464	
3942	0	31546	
3943	0	31612	
3944	0	31652	
3945	0	31688	
3946	0	31752	
3947	0	31784	
3948	0	31772	
3949	0	31728	
3950	0	31676	
3951	0	31608	
3952	0	31540	
3953	0	31524	
3954	0	31520	
3955	0	31536	
3956	0	31548	
3957	0	31552	
3958	0	31600	
3959	0	31586	
3960	0	31564	
3961	0	31616	
3962	0	31682	
3963	0	31760	
3964	0	31820	
3965	0	31840	
3966	0	31824	
3967	0	31844	
3968	0	31832	
3969	0	31786	
3970	0	31728	
3971	0	31704	
3972	0	31684	
3973	0	31718	
3974	0	31724	
3975	0	31736	
3976	0	31728	
3977	0	31712	
3978	0	31700	
3979	0	31704	
3980	0	31736	
3981	0	31816	
3982	0	31908	
3983	0	31976	
3984	0	32028	
3985	0	32004	
3986	0	32000	
3987	0	32016	
3988	0	32026	
3989	0	32020	
3990	0	32016	
3991	0	31988	
3992	0	31984	
3993	0	31972	
3994	0	31952	
3995	0	31900	
3996	0	31880	
3997	0	31876	
3998	0	31860	
3999	0	31860	
4000	0	31910	
4001	0	31968	
4002	0	31996	
4003	0	32016	
4004	0	31988	
4005	0	31988	
4006	0	31996	
4007	0	31992	
4008	0	31994	
4009	0	31968	
4010	0	31948	
4011	0	31960	
4012	0	31988	
4013	0	32020	
4014	0	32032	
4015	0	32008	
4016	0	31984	
4017	0	31960	
4018	0	31952	
4019	0	31972	
4020	0	32024	
4021	0	32092	
4022	0	32160	
4023	0	32244	
4024	0	32288	
4025	0	32336	
4026	0	32332	
4027	0	32336	
4028	0	32296	
4029	0	32272	
4030	0	32268	
4031	0	32216	
4032	0	32160	
4033	0	32192	
4034	0	32160	
4035	0	32088	
4036	0	32084	
4037	0	32108	
4038	0	32164	
4039	0	32220	
4040	0	32264	
4041	0	32300	
4042	0	32380	
4043	0	32512	
4044	0	32656	
4045	0	32726	
4046	0	32768	
4047	0	32900	
4048	0	33044	
4049	0	33104	
4050	0	33148	
4051	0	33216	
4052	0	33288	
4053	0	33352	
4054	0	33348	
4055	0	33332	
4056	0	33292	
4057	0	33268	
4058	0	33298	
4059	0	33288	
4060	0	33362	
4061	0	33472	
4062	0	33568	
4063	0	33700	
4064	0	33786	
4065	0	33872	
4066	0	33956	
4067	0	34018	
4068	0	34058	
4069	0	34132	
4070	0	34224	
4071	0	34292	
4072	0	34380	
4073	0	34532	
4074	0	34684	
4075	0	34876	
4076	0	34912	
4077	0	34836	
4078	0	34760	
4079	0	34720	
4080	0	34740	
4081	0	34784	
4082	0	34804	
4083	0	34872	
4084	0	34984	
4085	0	35020	
4086	0	35016	
4087	0	34976	
4088	0	34892	
4089	0	34820	
4090	0	34680	
4091	0	34494	
4092	0	34312	
4093	0	34188	
4094	0	34056	
4095	0	33912	
4096	0	33812	
4097	0	33744	
4098	0	33684	
4099	0	33628	
4100	0	33608	
4101	0	33608	
4102	0	33572	
4103	0	33576	
4104	0	33596	
4105	0	33596	
4106	0	33612	
4107	0	33584	
4108	0	33560	
4109	0	33538	
4110	0	33452	
4111	0	33336	
4112	0	33192	
4113	0	33092	
4114	0	32952	
4115	0	32852	
4116	0	32786	
4117	0	32772	
4118	0	32684	
4119	0	32572	
4120	0	32512	
4121	0	32524	
4122	0	32552	
4123	0	32488	
4124	0	32372	
4125	0	32272	
4126	0	32184	
4127	0	32080	
4128	0	32016	
4129	0	31952	
4130	0	31936	
4131	0	31944	
4132	0	31968	
4133	0	31936	
4134	0	31856	
4135	0	31776	
4136	0	31704	
4137	0	31680	
4138	0	31740	
4139	0	31820	
4140	0	31886	
4141	0	31920	
4142	0	31952	
4143	0	31936	
4144	0	31940	
4145	0	31960	
4146	0	31992	
4147	0	31990	
4148	0	31960	
4149	0	31948	
4150	0	31920	
4151	0	31908	
4152	0	31952	
4153	0	31980	
4154	0	31952	
4155	0	31908	
4156	0	31856	
4157	0	31820	
4158	0	31832	
4159	0	31898	
4160	0	31948	
4161	0	32008	
4162	0	32104	
4163	0	32176	
4164	0	32182	
4165	0	32184	
4166	0	32168	
4167	0	32168	
4168	0	32172	
4169	0	32224	
4170	0	32252	
4171	0	32224	
4172	0	32196	
4173	0	32196	
4174	0	32204	
4175	0	32200	
4176	0	32174	
4177	0	32124	
4178	0	32108	
4179	0	32084	
4180	0	32064	
4181	0	32016	
4182	0	31936	
4183	0	31840	
4184	0	31684	
4185	0	31448	
4186	0	31132	
4187	0	30892	
4188	0	30780	
4189	0	30672	
4190	0	30560	
4191	0	30684	
4192	0	31012	
4193	0	31402	
4194	0	31896	
4195	0	32588	
4196	0	33492	
4197	0	34616	
4198	0	35920	
4199	0	37360	
4200	0	38928	
4201	0	40484	
4202	0	42044	
4203	0	43600	
4204	0	45060	
4205	0	46556	
4206	0	47996	
4207	0	49348	
4208	0	50720	
4209	0	52248	
4210	0	53844	
4211	0	55468	
4212	0	57128	
4213	0	58628	
4214	0	59964	
4215	0	61168	
4216	0	62016	
4217	0	62564	
4218	0	62200	
4219	0	60868	
4220	0	58668	
4221	0	55756	
4222	0	52544	
4223	0	49328	
4224	0	45896	
4225	0	42184	
4226	0	38576	
4227	0	35604	
4228	0	33380	
4229	0	31822	
4230	0	30730	
4231	0	29856	
4232	0	29296	
4233	0	28940	
4234	0	28692	
4235	0	28624	
4236	0	28648	
4237	0	28728	
4238	0	28888	
4239	0	29132	
4240	0	29402	
4241	0	29664	
4242	0	29898	
4243	0	30108	
4244	0	30272	
4245	0	30348	
4246	0	30348	
4247	0	30300	
4248	0	30192	
4249	0	30088	
4250	0	30008	
4251	0	29866	
4252	0	29722	
4253	0	29616	
4254	0	29524	
4255	0	29464	
4256	0	29386	
4257	0	29306	
4258	0	29268	
4259	0	29280	
4260	0	29336	
4261	0	29348	
4262	0	29332	
4263	0	29340	
4264	0	29372	
4265	0	29400	
4266	0	29450	
4267	0	29452	
4268	0	29408	
4269	0	29400	
4270	0	29384	
4271	0	29360	
4272	0	29344	
4273	0	29356	
4274	0	29340	
4275	0	29322	
4276	0	29324	
4277	0	29336	
4278	0	29372	
4279	0	29472	
4280	0	29524	
4281	0	29588	
4282	0	29632	
4283	0	29642	
4284	0	29640	
4285	0	29676	
4286	0	29700	
4287	0	29744	
4288	0	29754	
4289	0	29736	
4290	0	29736	
4291	0	29740	
4292	0	29760	
4293	0	29764	
4294	0	29788	
4295	0	29808	
4296	0	29860	
4297	0	29976	
4298	0	30040	
4299	0	30056	
4300	0	30116	
4301	0	30204	
4302	0	30260	
4303	0	30312	
4304	0	30364	
4305	0	30408	
4306	0	30404	
4307	0	30416	
4308	0	30428	
4309	0	30472	
4310	0	30468	
4311	0	30424	
4312	0	30420	
4313	0	30448	
4314	0	30464	
4315	0	30496	
4316	0	30536	
4317	0	30560	
4318	0	30544	
4319	0	30596	
4320	0	30676	
4321	0	30796	
4322	0	30892	
4323	0	30984	
4324	0	31016	
4325	0	30980	
4326	0	31016	
4327	0	31064	
4328	0	31128	
4329	0	31152	
4330	0	31132	
4331	0	31130	
4332	0	31120	
4333	0	31100	
4334	0	31080	
4335	0	31056	
4336	0	31048	
4337	0	31084	
4338	0	31136	
4339	0	31168	
4340	0	31272	
4341	0	31396	
4342	0	31448	
4343	0	31488	
4344	0	31524	
4345	0	31536	
4346	0	31588	
4347	0	31616	
4348	0	31676	
4349	0	31760	
4350	0	31808	
4351	0	31828	
4352	0	31816	
4353	0	31752	
4354	0	31682	
4355	0	31656	
4356	0	31694	
4357	0	31736	
4358	0	31844	
4359	0	31936	
4360	0	32012	
4361	0	32128	
4362	0	32232	
4363	0	32344	
4364	0	32412	
4365	0	32412	
4366	0	32400	
4367	0	32420	
4368	0	32448	
4369	0	32488	
4370	0	32508	
4371	0	32496	
4372	0	32496	
4373	0	32468	
4374	0	32460	
4375	0	32500	
4376	0	32556	
4377	0	32584	
4378	0	32608	
4379	0	32664	
4380	0	32748	
4381	0	32832	
4382	0	32856	
4383	0	32920	
4384	0	32976	
4385	0	33016	
4386	0	33048	
4387	0	33068	
4388	0	33084	
4389	0	33108	
4390	0	33168	
4391	0	33264	
4392	0	33324	
4393	0	33392	
4394	0	33464	
4395	0	33520	
4396	0	33562	
4397	0	33664	
4398	0	33754	
4399	0	33808	
4400	0	33848	
4401	0	33924	
4402	0	34040	
4403	0	34178	
4404	0	34276	
4405	0	34362	
4406	0	34440	
4407	0	34530	
4408	0	34600	
4409	0	34632	
4410	0	34680	
4411	0	34736	
4412	0	34752	
4413	0	34784	
4414	0	34868	
4415	0	35012	
4416	0	35144	
4417	0	35236	
4418	0	35236	
4419	0	35280	
4420	0	35380	
4421	0	35506	
4422	0	35632	
4423	0	35752	
4424	0	35864	
4425	0	35980	
4426	0	36080	
4427	0	36156	
4428	0	36216	
4429	0	36212	
4430	0	36230	
4431	0	36240	
4432	0	36296	
4433	0	36360	
4434	0	36412	
4435	0	36416	
4436	0	36436	
4437	0	36468	
4438	0	36494	
4439	0	36544	
4440	0	36660	
4441	0	36766	
4442	0	36834	
4443	0	36940	
4444	0	37076	
4445	0	37104	
4446	0	37140	
4447	0	37124	
4448	0	37050	
4449	0	36972	
4450	0	36932	
4451	0	36920	
4452	0	36928	
4453	0	36904	
4454	0	36882	
4455	0	36820	
4456	0	36744	
4457	0	36684	
4458	0	36608	
4459	0	36568	
4460	0	36522	
4461	0	36514	
4462	0	36448	
4463	0	36340	
4464	0	36228	
4465	0	36048	
4466	0	35872	
4467	0	35720	
4468	0	35600	
4469	0	35492	
4470	0	35380	
4471	0	35220	
4472	0	35012	
4473	0	34776	
4474	0	34592	
4475	0	34348	
4476	0	34100	
4477	0	33940	
4478	0	33776	
4479	0	33576	
4480	0	33416	
4481	0	33284	
4482	0	33176	
4483	0	32978	
4484	0	32808	
4485	0	32634	
4486	0	32460	
4487	0	32308	
4488	0	32182	
4489	0	32080	
4490	0	31972	
4491	0	31784	
4492	0	31556	
4493	0	31352	
4494	0	31168	
4495	0	31016	
4496	0	30912	
4497	0	30804	
4498	0	30660	
4499	0	30584	
4500	0	30520	
4501	0	30424	
4502	0	30290	
4503	0	30188	
4504	0	30116	
4505	0	30068	
4506	0	29984	
4507	0	29954	
4508	0	29912	
4509	0	29860	
4510	0	29756	
4511	0	29640	
4512	0	29596	
4513	0	29576	
4514	0	29552	
4515	0	29538	
4516	0	29488	
4517	0	29416	
4518	0	29356	
4519	0	29304	
4520	0	29302	
4521	0	29304	
4522	0	29312	
4523	0	29312	
4524	0	29324	
4525	0	29340	
4526	0	29324	
4527	0	29248	
4528	0	29224	
4529	0	29228	
4530	0	29208	
4531	0	29216	
4532	0	29234	
4533	0	29210	
4534	0	29170	
4535	0	29140	
4536	0	29156	
4537	0	29186	
4538	0	29248	
4539	0	29296	
4540	0	29376	
4541	0	29408	
4542	0	29468	
4543	0	29538	
4544	0	29578	
4545	0	29592	
4546	0	29600	
4547	0	29608	
4548	0	29612	
4549	0	29584	
4550	0	29596	
4551	0	29584	
4552	0	29600	
4553	0	29544	
4554	0	29492	
4555	0	29448	
4556	0	29488	
4557	0	29560	
4558	0	29636	
4559	0	29714	
4560	0	29784	
4561	0	29820	
4562	0	29876	
4563	0	29930	
4564	0	29958	
4565	0	29984	
4566	0	30004	
4567	0	30044	
4568	0	30064	
4569	0	30080	
4570	0	30104	
4571	0	30136	
4572	0	30132	
4573	0	30092	
4574	0	30088	
4575	0	30088	
4576	0	30084	
4577	0	30176	
4578	0	30228	
4579	0	30304	
4580	0	30392	
4581	0	30436	
4582	0	30480	
4583	0	30528	
4584	0	30584	
4585	0	30648	
4586	0	30688	
4587	0	30656	
4588	0	30648	
4589	0	30628	
4590	0	30588	
4591	0	30600	
4592	0	30592	
4593	0	30620	
4594	0	30600	
4595	0	30568	
4596	0	30580	
4597	0	30648	
4598	0	30680	
4599	0	30708	
4600	0	30756	
4601	0	30768	
4602	0	30832	
4603	0	30924	
4604	0	30962	
4605	0	30968	
4606	0	30980	
4607	0	31052	
4608	0	31124	
4609	0	31124	
4610	0	31116	
4611	0	31136	
4612	0	31124	
4613	0	31072	
4614	0	31020	
4615	0	31004	
4616	0	31016	
4617	0	31010	
4618	0	31040	
4619	0	31108	
4620	0	31128	
4621	0	31152	
4622	0	31172	
4623	0	31160	
4624	0	31192	
4625	0	31208	
4626	0	31244	
4627	0	31264	
4628	0	31284	
4629	0	31288	
4630	0	31292	
4631	0	31228	
4632	0	31220	
4633	0	31244	
4634	0	31304	
4635	0	31312	
4636	0	31264	
4637	0	31208	
4638	0	31208	
4639	0	31240	
4640	0	31344	
4641	0	31468	
4642	0	31536	
4643	0	31544	
4644	0	31576	
4645	0	31612	
4646	0	31604	
4647	0	31612	
4648	0	31600	
4649	0	31640	
4650	0	31636	
4651	0	31634	
4652	0	31664	
4653	0	31616	
4654	0	31522	
4655	0	31440	
4656	0	31372	
4657	0	31356	
4658	0	31392	
4659	0	31448	
4660	0	31514	
4661	0	31608	
4662	0	31661	
4663	0	31650	
4664	0	31598	
4665	0	31596	
4666	0	31600	
4667	0	31600	
4668	0	31606	
4669	0	31652	
4670	0	31680	
4671	0	31696	
4672	0	31688	
4673	0	31692	
4674	0	31632	
4675	0	31642	
4676	0	31672	
4677	0	31680	
4678	0	31688	
4679	0	31724	
4680	0	31768	
4681	0	31804	
4682	0	31840	
4683	0	31884	
4684	0	31936	
4685	0	31956	
4686	0	31944	
4687	0	31936	
4688	0	31928	
4689	0	31880	
4690	0	31770	
4691	0	31664	
4692	0	31666	
4693	0	31718	
4694	0	31770	
4695	0	31740	
4696	0	31708	
4697	0	31752	
4698	0	31834	
4699	0	31876	
4700	0	31912	
4701	0	31940	
4702	0	31980	
4703	0	32080	
4704	0	32088	
4705	0	32094	
4706	0	32108	
4707	0	32100	
4708	0	32088	
4709	0	32060	
4710	0	32036	
4711	0	31980	
4712	0	31980	
4713	0	31960	
4714	0	31924	
4715	0	31900	
4716	0	31912	
4717	0	31928	
4718	0	31944	
4719	0	31980	
4720	0	32056	
4721	0	32080	
4722	0	32096	
4723	0	32148	
4724	0	32124	
4725	0	32108	
4726	0	32128	
4727	0	32136	
4728	0	32084	
4729	0	32048	
4730	0	32072	
4731	0	32002	
4732	0	32016	
4733	0	32018	
4734	0	31964	
4735	0	31944	
4736	0	31996	
4737	0	32056	
4738	0	32138	
4739	0	32226	
4740	0	32292	
4741	0	32296	
4742	0	32270	
4743	0	32290	
4744	0	32296	
4745	0	32248	
4746	0	32200	
4747	0	32232	
4748	0	32280	
4749	0	32384	
4750	0	32452	
4751	0	32496	
4752	0	32552	
4753	0	32672	
4754	0	32796	
4755	0	32864	
4756	0	32912	
4757	0	32966	
4758	0	33104	
4759	0	33244	
4760	0	33408	
4761	0	33556	
4762	0	33652	
4763	0	33688	
4764	0	33704	
4765	0	33696	
4766	0	33748	
4767	0	33832	
4768	0	33908	
4769	0	33946	
4770	0	33952	
4771	0	33952	
4772	0	33928	
4773	0	33904	
4774	0	33892	
4775	0	33920	
4776	0	33960	
4777	0	34092	
4778	0	34216	
4779	0	34404	
4780	0	34616	
4781	0	34784	
4782	0	34888	
4783	0	35020	
4784	0	35064	
4785	0	35020	
4786	0	35008	
4787	0	35068	
4788	0	35048	
4789	0	34976	
4790	0	34892	
4791	0	34844	
4792	0	34932	
4793	0	34948	
4794	0	34904	
4795	0	34844	
4796	0	34720	
4797	0	34572	
4798	0	34400	
4799	0	34232	
4800	0	34052	
4801	0	33944	
4802	0	33840	
4803	0	33792	
4804	0	33808	
4805	0	33796	
4806	0	33716	
4807	0	33654	
4808	0	33580	
4809	0	33476	
4810	0	33364	
4811	0	33304	
4812	0	33296	
4813	0	33328	
4814	0	33308	
4815	0	33216	
4816	0	33088	
4817	0	33004	
4818	0	32908	
4819	0	32784	
4820	0	32808	
4821	0	32832	
4822	0	32854	
4823	0	32816	
4824	0	32732	
4825	0	32620	
4826	0	32468	
4827	0	32308	
4828	0	32200	
4829	0	32096	
4830	0	31980	
4831	0	31892	
4832	0	31834	
4833	0	31800	
4834	0	31788	
4835	0	31692	
4836	0	31592	
4837	0	31484	
4838	0	31352	
4839	0	31296	
4840	0	31372	
4841	0	31488	
4842	0	31576	
4843	0	31680	
4844	0	31684	
4845	0	31674	
4846	0	31664	
4847	0	31648	
4848	0	31644	
4849	0	31624	
4850	0	31620	
4851	0	31632	
4852	0	31662	
4853	0	31636	
4854	0	31604	
4855	0	31556	
4856	0	31520	
4857	0	31508	
4858	0	31502	
4859	0	31562	
4860	0	31640	
4861	0	31668	
4862	0	31732	
4863	0	31812	
4864	0	31846	
4865	0	31802	
4866	0	31764	
4867	0	31778	
4868	0	31776	
4869	0	31792	
4870	0	31840	
4871	0	31892	
4872	0	31872	
4873	0	31824	
4874	0	31780	
4875	0	31836	
4876	0	31912	
4877	0	31916	
4878	0	31928	
4879	0	31976	
4880	0	31990	
4881	0	32004	
4882	0	31994	
4883	0	31956	
4884	0	31928	
4885	0	31904	
4886	0	31882	
4887	0	31816	
4888	0	31756	
4889	0	31636	
4890	0	31428	
4891	0	31204	
4892	0	30904	
4893	0	30584	
4894	0	30292	
4895	0	30152	
4896	0	30092	
4897	0	30116	
4898	0	30326	
4899	0	30744	
4900	0	31244	
4901	0	31892	
4902	0	32772	
4903	0	33808	
4904	0	34972	
4905	0	36276	
4906	0	37684	
4907	0	39236	
4908	0	40732	
4909	0	42176	
4910	0	43640	
4911	0	45178	
4912	0	46708	
4913	0	48272	
4914	0	49784	
4915	0	51304	
4916	0	52972	
4917	0	54680	
4918	0	56384	
4919	0	58012	
4920	0	59508	
4921	0	60892	
4922	0	62132	
4923	0	63012	
4924	0	63448	
4925	0	62896	
4926	0	61204	
4927	0	58576	
4928	0	55328	
4929	0	51952	
4930	0	48556	
4931	0	44848	
4932	0	40960	
4933	0	37440	
4934	0	34648	
4935	0	32612	
4936	0	31152	
4937	0	30144	
4938	0	29428	
4939	0	28984	
4940	0	28764	
4941	0	28716	
4942	0	28776	
4943	0	28972	
4944	0	29268	
4945	0	29580	
4946	0	29856	
4947	0	30106	
4948	0	30340	
4949	0	30474	
4950	0	30524	
4951	0	30520	
4952	0	30468	
4953	0	30404	
4954	0	30304	
4955	0	30214	
4956	0	30108	
4957	0	29984	
4958	0	29908	
4959	0	29852	
4960	0	29784	
4961	0	29704	
4962	0	29676	
4963	0	29640	
4964	0	29606	
4965	0	29568	
4966	0	29548	
4967	0	29524	
4968	0	29480	
4969	0	29412	
4970	0	29328	
4971	0	29332	
4972	0	29424	
4973	0	29460	
4974	0	29364	
4975	0	29316	
4976	0	29317	
4977	0	29328	
4978	0	29344	
4979	0	29356	
4980	0	29388	
4981	0	29492	
4982	0	29604	
4983	0	29700	
4984	0	29796	
4985	0	29864	
4986	0	29896	
4987	0	29872	
4988	0	29790	
4989	0	29676	
4990	0	29584	
4991	0	29572	
4992	0	29608	
4993	0	29632	
4994	0	29630	
4995	0	29660	
4996	0	29732	
4997	0	29808	
4998	0	29884	
4999	0	29960	
5000	0	30048	
5001	0	30120	
5002	0	30160	
5003	0	30194	
5004	0	30212	
5005	0	30224	
5006	0	30232	
5007	0	30248	
5008	0	30252	
5009	0	30268	
5010	0	30266	
5011	0	30260	
5012	0	30284	
5013	0	30304	
5014	0	30352	
5015	0	30412	
5016	0	30448	
5017	0	30492	
5018	0	30560	
5019	0	30648	
5020	0	30756	
5021	0	30872	
5022	0	30976	
5023	0	31068	
5024	0	31144	
5025	0	31124	
5026	0	31044	
5027	0	31028	
5028	0	31024	
5029	0	31038	
5030	0	31024	
5031	0	31064	
5032	0	31068	
5033	0	31050	
5034	0	31068	
5035	0	31108	
5036	0	31136	
5037	0	31192	
5038	0	31252	
5039	0	31316	
5040	0	31364	
5041	0	31428	
5042	0	31488	
5043	0	31532	
5044	0	31568	
5045	0	31572	
5046	0	31608	
5047	0	31668	
5048	0	31728	
5049	0	31764	
5050	0	31724	
5051	0	31712	
5052	0	31696	
5053	0	31716	
5054	0	31744	
5055	0	31784	
5056	0	31808	
5057	0	31872	
5058	0	31940	
5059	0	32012	
5060	0	32088	
5061	0	32160	
5062	0	32232	
5063	0	32296	
5064	0	32328	
5065	0	32356	
5066	0	32364	
5067	0	32352	
5068	0	32368	
5069	0	32392	
5070	0	32424	
5071	0	32448	
5072	0	32464	
5073	0	32488	
5074	0	32484	
5075	0	32492	
5076	0	32526	
5077	0	32580	
5078	0	32632	
5079	0	32676	
5080	0	32740	
5081	0	32812	
5082	0	32872	
5083	0	32920	
5084	0	32988	
5085	0	33068	
5086	0	33128	
5087	0	33172	
5088	0	33216	
5089	0	33244	
5090	0	33280	
5091	0	33324	
5092	0	33352	
5093	0	33420	
5094	0	33472	
5095	0	33488	
5096	0	33488	
5097	0	33480	
5098	0	33484	
5099	0	33544	
5100	0	33600	
5101	0	33672	
5102	0	33760	
5103	0	33892	
5104	0	34020	
5105	0	34152	
5106	0	34276	
5107	0	34336	
5108	0	34400	
5109	0	34436	
5110	0	34506	
5111	0	34568	
5112	0	34568	
5113	0	34576	
5114	0	34580	
5115	0	34602	
5116	0	34680	
5117	0	34764	
5118	0	34808	
5119	0	34884	
5120	0	35036	
5121	0	35216	
5122	0	35360	
5123	0	35488	
5124	0	35600	
5125	0	35712	
5126	0	35780	
5127	0	35800	
5128	0	35816	
5129	0	35924	
5130	0	36012	
5131	0	36022	
5132	0	36050	
5133	0	36100	
5134	0	36124	
5135	0	36136	
5136	0	36148	
5137	0	36204	
5138	0	36268	
5139	0	36322	
5140	0	36416	
5141	0	36548	
5142	0	36692	
5143	0	36856	
5144	0	36962	
5145	0	37064	
5146	0	37208	
5147	0	37264	
5148	0	37252	
5149	0	37244	
5150	0	37228	
5151	0	37184	
5152	0	37152	
5153	0	37152	
5154	0	37080	
5155	0	37048	
5156	0	37056	
5157	0	37088	
5158	0	37068	
5159	0	37082	
5160	0	37084	
5161	0	37056	
5162	0	37000	
5163	0	36936	
5164	0	36916	
5165	0	36896	
5166	0	36832	
5167	0	36720	
5168	0	36624	
5169	0	36506	
5170	0	36336	
5171	0	36168	
5172	0	36004	
5173	0	35808	
5174	0	35588	
5175	0	35356	
5176	0	35160	
5177	0	35008	
5178	0	34848	
5179	0	34736	
5180	0	34656	
5181	0	34521	
5182	0	34360	
5183	0	34232	
5184	0	34080	
5185	0	33848	
5186	0	33640	
5187	0	33428	
5188	0	33232	
5189	0	33024	
5190	0	32844	
5191	0	32684	
5192	0	32524	
5193	0	32360	
5194	0	32188	
5195	0	32030	
5196	0	31884	
5197	0	31764	
5198	0	31620	
5199	0	31488	
5200	0	31396	
5201	0	31268	
5202	0	31128	
5203	0	31028	
5204	0	30916	
5205	0	30812	
5206	0	30704	
5207	0	30600	
5208	0	30532	
5209	0	30436	
5210	0	30280	
5211	0	30184	
5212	0	30096	
5213	0	30004	
5214	0	29906	
5215	0	29828	
5216	0	29792	
5217	0	29742	
5218	0	29692	
5219	0	29674	
5220	0	29620	
5221	0	29584	
5222	0	29612	
5223	0	29616	
5224	0	29620	
5225	0	29676	
5226	0	29680	
5227	0	29648	
5228	0	29604	
5229	0	29576	
5230	0	29552	
5231	0	29544	
5232	0	29496	
5233	0	29488	
5234	0	29456	
5235	0	29400	
5236	0	29332	
5237	0	29320	
5238	0	29416	
5239	0	29532	
5240	0	29624	
5241	0	29648	
5242	0	29672	
5243	0	29692	
5244	0	29692	
5245	0	29692	
5246	0	29708	
5247	0	29728	
5248	0	29744	
5249	0	29748	
5250	0	29720	
5251	0	29732	
5252	0	29728	
5253	0	29698	
5254	0	29680	
5255	0	29672	
5256	0	29732	
5257	0	29800	
5258	0	29836	
5259	0	29904	
5260	0	29940	
5261	0	29992	
5262	0	30080	
5263	0	30128	
5264	0	30152	
5265	0	30212	
5266	0	30272	
5267	0	30304	
5268	0	30336	
5269	0	30396	
5270	0	30380	
5271	0	30336	
5272	0	30328	
5273	0	30336	
5274	0	30312	
5275	0	30284	
5276	0	30264	
5277	0	30272	
5278	0	30304	
5279	0	30336	
5280	0	30404	
5281	0	30498	
5282	0	30578	
5283	0	30656	
5284	0	30720	
5285	0	30764	
5286	0	30804	
5287	0	30812	
5288	0	30784	
5289	0	30768	
5290	0	30778	
5291	0	30780	
5292	0	30770	
5293	0	30708	
5294	0	30664	
5295	0	30676	
5296	0	30694	
5297	0	30720	
5298	0	30748	
5299	0	30788	
5300	0	30852	
5301	0	30872	
5302	0	30912	
5303	0	30956	
5304	0	30980	
5305	0	31012	
5306	0	31040	
5307	0	31034	
5308	0	31064	
5309	0	31066	
5310	0	31044	
5311	0	31008	
5312	0	31016	
5313	0	31004	
5314	0	30972	
5315	0	30964	
5316	0	30980	
5317	0	30964	
5318	0	30960	
5319	0	30976	
5320	0	31016	
5321	0	31060	
5322	0	31108	
5323	0	31156	
5324	0	31172	
5325	0	31136	
5326	0	31092	
5327	0	31044	
5328	0	31036	
5329	0	31072	
5330	0	31092	
5331	0	31040	
5332	0	31000	
5333	0	31030	
5334	0	31032	
5335	0	31028	
5336	0	31008	
5337	0	31010	
5338	0	31016	
5339	0	31048	
5340	0	31076	
5341	0	31116	
5342	0	31164	
5343	0	31166	
5344	0	31180	
5345	0	31152	
5346	0	31176	
5347	0	31192	
5348	0	31168	
5349	0	31168	
5350	0	31168	
5351	0	31156	
5352	0	31176	
5353	0	31164	
5354	0	31096	
5355	0	31088	
5356	0	31076	
5357	0	31092	
5358	0	31072	
5359	0	31112	
5360	0	31168	
5361	0	31248	
5362	0	31328	
5363	0	31370	
5364	0	31396	
5365	0	31420	
5366	0	31392	
5367	0	31328	
5368	0	31284	
5369	0	31264	
5370	0	31256	
5371	0	31228	
5372	0	31212	
5373	0	31201	
5374	0	31168	
5375	0	31128	
5376	0	31114	
5377	0	31104	
5378	0	31160	
5379	0	31216	
5380	0	31296	
5381	0	31372	
5382	0	31450	
5383	0	31440	
5384	0	31440	
5385	0	31440	
5386	0	31440	
5387	0	31480	
5388	0	31496	
5389	0	31520	
5390	0	31540	
5391	0	31540	
5392	0	31544	
5393	0	31476	
5394	0	31416	
5395	0	31368	
5396	0	31320	
5397	0	31322	
5398	0	31348	
5399	0	31384	
5400	0	31424	
5401	0	31428	
5402	0	31404	
5403	0	31428	
5404	0	31488	
5405	0	31512	
5406	0	31508	
5407	0	31512	
5408	0	31484	
5409	0	31516	
5410	0	31528	
5411	0	31500	
5412	0	31434	
5413	0	31436	
5414	0	31436	
5415	0	31472	
5416	0	31528	
5417	0	31550	
5418	0	31530	
5419	0	31536	
5420	0	31560	
5421	0	31648	
5422	0	31740	
5423	0	31776	
5424	0	31796	
5425	0	31840	
5426	0	31904	
5427	0	31976	
5428	0	32020	
5429	0	32076	
5430	0	32192	
5431	0	32292	
5432	0	32418	
5433	0	32520	
5434	0	32532	
5435	0	32536	
5436	0	32608	
5437	0	32648	
5438	0	32712	
5439	0	32804	
5440	0	32800	
5441	0	32788	
5442	0	32808	
5443	0	32840	
5444	0	32912	
5445	0	33034	
5446	0	33144	
5447	0	33204	
5448	0	33244	
5449	0	33228	
5450	0	33164	
5451	0	33114	
5452	0	33104	
5453	0	33168	
5454	0	33286	
5455	0	33448	
5456	0	33576	
5457	0	33808	
5458	0	34080	
5459	0	34276	
5460	0	34456	
5461	0	34488	
5462	0	34492	
5463	0	34508	
5464	0	34544	
5465	0	34572	
5466	0	34572	
5467	0	34564	
5468	0	34608	
5469	0	34608	
5470	0	34604	
5471	0	34510	
5472	0	34364	
5473	0	34248	
5474	0	34168	
5475	0	34028	
5476	0	33798	
5477	0	33608	
5478	0	33536	
5479	0	33460	
5480	0	33372	
5481	0	33336	
5482	0	33324	
5483	0	33248	
5484	0	33216	
5485	0	33140	
5486	0	33076	
5487	0	32992	
5488	0	32912	
5489	0	32864	
5490	0	32808	
5491	0	32664	
5492	0	32548	
5493	0	32500	
5494	0	32484	
5495	0	32500	
5496	0	32430	
5497	0	32340	
5498	0	32320	
5499	0	32284	
5500	0	32212	
5501	0	32172	
5502	0	32172	
5503	0	32168	
5504	0	32160	
5505	0	32120	
5506	0	32004	
5507	0	31836	
5508	0	31752	
5509	0	31692	
5510	0	31580	
5511	0	31422	
5512	0	31266	
5513	0	31152	
5514	0	31168	
5515	0	31160	
5516	0	31136	
5517	0	31136	
5518	0	31204	
5519	0	31256	
5520	0	31344	
5521	0	31380	
5522	0	31400	
5523	0	31428	
5524	0	31396	
5525	0	31388	
5526	0	31360	
5527	0	31332	
5528	0	31376	
5529	0	31400	
5530	0	31404	
5531	0	31424	
5532	0	31448	
5533	0	31480	
5534	0	31552	
5535	0	31524	
5536	0	31456	
5537	0	31496	
5538	0	31524	
5539	0	31512	
5540	0	31572	
5541	0	31592	
5542	0	31588	
5543	0	31640	
5544	0	31648	
5545	0	31724	
5546	0	31776	
5547	0	31736	
5548	0	31720	
5549	0	31732	
5550	0	31732	
5551	0	31724	
5552	0	31728	
5553	0	31752	
5554	0	31796	
5555	0	31840	
5556	0	31852	
5557	0	31824	
5558	0	31780	
5559	0	31784	
5560	0	31812	
5561	0	31892	
5562	0	32016	
5563	0	32040	
5564	0	31936	
5565	0	31834	
5566	0	31684	
5567	0	31576	
5568	0	31400	
5569	0	31136	
5570	0	30896	
5571	0	30604	
5572	0	30336	
5573	0	30202	
5574	0	30064	
5575	0	29972	
5576	0	30048	
5577	0	30332	
5578	0	30754	
5579	0	31264	
5580	0	31976	
5581	0	32900	
5582	0	34058	
5583	0	35380	
5584	0	36896	
5585	0	38484	
5586	0	39992	
5587	0	41492	
5588	0	43028	
5589	0	44472	
5590	0	45960	
5591	0	47432	
5592	0	48856	
5593	0	50240	
5594	0	51556	
5595	0	52972	
5596	0	54564	
5597	0	56184	
5598	0	57684	
5599	0	59028	
5600	0	60044	
5601	0	60772	
5602	0	61060	
5603	0	60344	
5604	0	58684	
5605	0	56160	
5606	0	53164	
5607	0	49968	
5608	0	46676	
5609	0	43140	
5610	0	39392	
5611	0	35956	
5612	0	33320	
5613	0	31432	
5614	0	30204	
5615	0	29396	
5616	0	28924	
5617	0	28684	
5618	0	28552	
5619	0	28520	
5620	0	28604	
5621	0	28776	
5622	0	29028	
5623	0	29376	
5624	0	29728	
5625	0	30008	
5626	0	30240	
5627	0	30382	
5628	0	30492	
5629	0	30548	
5630	0	30558	
5631	0	30480	
5632	0	30382	
5633	0	30264	
5634	0	30182	
5635	0	30040	
5636	0	29888	
5637	0	29692	
5638	0	29560	
5639	0	29536	
5640	0	29496	
5641	0	29484	
5642	0	29492	
5643	0	29468	
5644	0	29424	
5645	0	29384	
5646	0	29344	
5647	0	29316	
5648	0	29276	
5649	0	29260	
5650	0	29192	
5651	0	29100	
5652	0	29076	
5653	0	29084	
5654	0	29028	
5655	0	29008	
5656	0	28936	
5657	0	28992	
5658	0	29096	
5659	0	29192	
5660	0	29228	
5661	0	29244	
5662	0	29244	
5663	0	29268	
5664	0	29322	
5665	0	29444	
5666	0	29516	
5667	0	29532	
5668	0	29592	
5669	0	29696	
5670	0	29824	
5671	0	29918	
5672	0	29882	
5673	0	29764	
5674	0	29714	
5675	0	29738	
5676	0	29722	
5677	0	29680	
5678	0	29674	
5679	0	29728	
5680	0	29792	
5681	0	29916	
5682	0	29928	
5683	0	29932	
5684	0	30020	
5685	0	30128	
5686	0	30064	
5687	0	30024	
5688	0	30028	
5689	0	30048	
5690	0	30044	
5691	0	30002	
5692	0	29988	
5693	0	30032	
5694	0	30084	
5695	0	30104	
5696	0	30102	
5697	0	30188	
5698	0	30304	
5699	0	30494	
5700	0	30572	
5701	0	30672	
5702	0	30780	
5703	0	30796	
5704	0	30778	
5705	0	30784	
5706	0	30880	
5707	0	30920	
5708	0	30924	
5709	0	30900	
5710	0	30868	
5711	0	30880	
5712	0	30864	
5713	0	30824	
5714	0	30788	
5715	0	30720	
5716	0	30676	
5717	0	30672	
5718	0	30776	
5719	0	30860	
5720	0	30932	
5721	0	31064	
5722	0	31192	
5723	0	31296	
5724	0	31380	
5725	0	31468	
5726	0	31552	
5727	0	31576	
5728	0	31528	
5729	0	31451	
5730	0	31442	
5731	0	31444	
5732	0	31400	
5733	0	31464	
5734	0	31480	
5735	0	31408	
5736	0	31328	
5737	0	31344	
5738	0	31416	
5739	0	31456	
5740	0	31496	
5741	0	31532	
5742	0	31564	
5743	0	31628	
5744	0	31784	
5745	0	31856	
5746	0	31892	
5747	0	31932	
5748	0	31976	
5749	0	31956	
5750	0	31944	
5751	0	31988	
5752	0	32012	
5753	0	32024	
5754	0	32072	
5755	0	32090	
5756	0	32096	
5757	0	32104	
5758	0	32140	
5759	0	32208	
5760	0	32380	
5761	0	32578	
5762	0	32714	
5763	0	32790	
5764	0	32816	
5765	0	32808	
5766	0	32752	
5767	0	32696	
5768	0	32652	
5769	0	32712	
5770	0	32800	
5771	0	32894	
5772	0	32934	
5773	0	32954	
5774	0	32912	
5775	0	32912	
5776	0	32976	
5777	0	33064	
5778	0	33108	
5779	0	33164	
5780	0	33284	
5781	0	33448	
5782	0	33560	
5783	0	33648	
5784	0	33720	
5785	0	33724	
5786	0	33760	
5787	0	33768	
5788	0	33820	
5789	0	33880	
5790	0	33912	
5791	0	34016	
5792	0	34140	
5793	0	34120	
5794	0	34144	
5795	0	34192	
5796	0	34248	
5797	0	34336	
5798	0	34400	
5799	0	34528	
5800	0	34688	
5801	0	34856	
5802	0	35008	
5803	0	35144	
5804	0	35232	
5805	0	35268	
5806	0	35276	
5807	0	35260	
5808	0	35264	
5809	0	35288	
5810	0	35384	
5811	0	35484	
5812	0	35492	
5813	0	35496	
5814	0	35496	
5815	0	35548	
5816	0	35600	
5817	0	35640	
5818	0	35680	
5819	0	35772	
5820	0	35836	
5821	0	35816	
5822	0	35904	
5823	0	36014	
5824	0	36112	
5825	0	36204	
5826	0	36238	
5827	0	36308	
5828	0	36416	
5829	0	36418	
5830	0	36336	
5831	0	36202	
5832	0	36128	
5833	0	36108	
5834	0	36136	
5835	0	36148	
5836	0	36158	
5837	0	36116	
5838	0	36072	
5839	0	36040	
5840	0	36024	
5841	0	35964	
5842	0	35932	
5843	0	35934	
5844	0	35900	
5845	0	35816	
5846	0	35720	
5847	0	35576	
5848	0	35464	
5849	0	35342	
5850	0	35104	
5851	0	34868	
5852	0	34692	
5853	0	34556	
5854	0	34380	
5855	0	34200	
5856	0	34040	
5857	0	33900	
5858	0	33848	
5859	0	33756	
5860	0	33548	
5861	0	33348	
5862	0	33106	
5863	0	32932	
5864	0	32784	
5865	0	32624	
5866	0	32420	
5867	0	32220	
5868	0	32068	
5869	0	31864	
5870	0	31586	
5871	0	31352	
5872	0	31108	
5873	0	30872	
5874	0	30624	
5875	0	30504	
5876	0	30352	
5877	0	30172	
5878	0	30080	
5879	0	29976	
5880	0	29806	
5881	0	29640	
5882	0	29516	
5883	0	29404	
5884	0	29344	
5885	0	29256	
5886	0	29052	
5887	0	28924	
5888	0	28884	
5889	0	28820	
5890	0	28696	
5891	0	28592	
5892	0	28560	
5893	0	28580	
5894	0	28536	
5895	0	28388	
5896	0	28280	
5897	0	28228	
5898	0	28234	
5899	0	28258	
5900	0	28224	
5901	0	28194	
5902	0	28229	
5903	0	28224	
5904	0	28220	
5905	0	28244	
5906	0	28280	
5907	0	28218	
5908	0	28066	
5909	0	27984	
5910	0	27948	
5911	0	27936	
5912	0	27936	
5913	0	27900	
5914	0	27864	
5915	0	27716	
5916	0	27624	
5917	0	27584	
5918	0	27620	
5919	0	27680	
5920	0	27716	
5921	0	27832	
5922	0	27960	
5923	0	28008	
5924	0	27996	
5925	0	28036	
5926	0	28068	
5927	0	28088	
5928	0	28184	
5929	0	28280	
5930	0	28332	
5931	0	28280	
5932	0	28216	
5933	0	28232	
5934	0	28228	
5935	0	28312	
5936	0	28324	
5937	0	28308	
5938	0	28336	
5939	0	28512	
5940	0	28617	
5941	0	28728	
5942	0	28840	
5943	0	28888	
5944	0	28904	
5945	0	29002	
5946	0	29008	
5947	0	28948	
5948	0	28962	
5949	0	28996	
5950	0	28952	
5951	0	28912	
5952	0	28920	
5953	0	28912	
5954	0	28860	
5955	0	28856	
5956	0	28900	
5957	0	28956	
5958	0	29008	
5959	0	29064	
5960	0	29136	
5961	0	29252	
5962	0	29364	
5963	0	29496	
5964	0	29614	
5965	0	29640	
5966	0	29652	
5967	0	29632	
5968	0	29644	
5969	0	29664	
5970	0	29674	
5971	0	29572	
5972	0	29510	
5973	0	29448	
5974	0	29436	
5975	0	29536	
5976	0	29580	
5977	0	29536	
5978	0	29634	
5979	0	29792	
5980	0	29872	
5981	0	29964	
5982	0	30076	
5983	0	30128	
5984	0	30208	
5985	0	30316	
5986	0	30312	
5987	0	30324	
5988	0	30329	
5989	0	30348	
5990	0	30340	
5991	0	30292	
5992	0	30314	
5993	0	30316	
5994	0	30218	
5995	0	30128	
5996	0	30124	
5997	0	30152	
5998	0	30126	
5999	0	30104	
6000	0	30144	
6001	0	30200	
6002	0	30282	
6003	0	30464	
6004	0	30656	
6005	0	30772	
6006	0	30800	
6007	0	30828	
6008	0	30788	
6009	0	30732	
6010	0	30712	
6011	0	30666	
6012	0	30620	
6013	0	30572	
6014	0	30536	
6015	0	30560	
6016	0	30692	
6017	0	30816	
6018	0	30844	
6019	0	30864	
6020	0	30916	
6021	0	31004	
6022	0	31052	
6023	0	31084	
6024	0	31108	
6025	0	31076	
6026	0	31044	
6027	0	30968	
6028	0	30876	
6029	0	30840	
6030	0	30744	
6031	0	30620	
6032	0	30576	
6033	0	30588	
6034	0	30722	
6035	0	30864	
6036	0	30868	
6037	0	30884	
6038	0	30952	
6039	0	31032	
6040	0	31064	
6041	0	31080	
6042	0	31072	
6043	0	31000	
6044	0	31024	
6045	0	31090	
6046	0	31186	
6047	0	31216	
6048	0	31136	
6049	0	31076	
6050	0	31072	
6051	0	31136	
6052	0	31102	
6053	0	31072	
6054	0	31048	
6055	0	31068	
6056	0	31080	
6057	0	31036	
6058	0	31000	
6059	0	31076	
6060	0	31142	
6061	0	31208	
6062	0	31268	
6063	0	31348	
6064	0	31484	
6065	0	31568	
6066	0	31616	
6067	0	31708	
6068	0	31720	
6069	0	31792	
6070	0	31984	
6071	0	32100	
6072	0	32140	
6073	0	32224	
6074	0	32268	
6075	0	32236	
6076	0	32136	
6077	0	32136	
6078	0	32168	
6079	0	32140	
6080	0	32156	
6081	0	32224	
6082	0	32316	
6083	0	32352	
6084	0	32364	
6085	0	32360	
6086	0	32480	
6087	0	32652	
6088	0	32732	
6089	0	32880	
6090	0	32856	
6091	0	32848	
6092	0	32900	
6093	0	32948	
6094	0	33010	
6095	0	33124	
6096	0	33340	
6097	0	33572	
6098	0	33756	
6099	0	33985	
6100	0	34172	
6101	0	34352	
6102	0	34544	
6103	0	34584	
6104	0	34594	
6105	0	34608	
6106	0	34580	
6107	0	34410	
6108	0	34312	
6109	0	34320	
6110	0	34336	
6111	0	34340	
6112	0	34376	
6113	0	34392	
6114	0	34314	
6115	0	34144	
6116	0	33940	
6117	0	33744	
6118	0	33620	
6119	0	33424	
6120	0	33240	
6121	0	33112	
6122	0	33024	
6123	0	33028	
6124	0	33020	
6125	0	33004	
6126	0	32948	
6127	0	32968	
6128	0	33064	
6129	0	33108	
6130	0	33080	
6131	0	33084	
6132	0	33108	
6133	0	33120	
6134	0	33038	
6135	0	32948	
6136	0	32864	
6137	0	32684	
6138	0	32452	
6139	0	32352	
6140	0	32240	
6141	0	32268	
6142	0	32320	
6143	0	32288	
6144	0	32160	
6145	0	32110	
6146	0	32008	
6147	0	31818	
6148	0	31684	
6149	0	31534	
6150	0	31312	
6151	0	31208	
6152	0	31156	
6153	0	31112	
6154	0	31224	
6155	0	31202	
6156	0	31208	
6157	0	31300	
6158	0	31350	
6159	0	31424	
6160	0	31502	
6161	0	31620	
6162	0	31736	
6163	0	31764	
6164	0	31724	
6165	0	31676	
6166	0	31626	
6167	0	31588	
6168	0	31460	
6169	0	31360	
6170	0	31280	
6171	0	31156	
6172	0	31100	
6173	0	31052	
6174	0	31040	
6175	0	31114	
6176	0	31292	
6177	0	31468	
6178	0	31560	
6179	0	31584	
6180	0	31596	
6181	0	31616	
6182	0	31536	
6183	0	31520	
6184	0	31500	
6185	0	31592	
6186	0	31740	
6187	0	31778	
6188	0	31714	
6189	0	31696	
6190	0	31692	
6191	0	31664	
6192	0	31648	
6193	0	31672	
6194	0	31644	
6195	0	31536	
6196	0	31564	
6197	0	31604	
6198	0	31714	
6199	0	31736	
6200	0	31712	
6201	0	31696	
6202	0	31768	
6203	0	31872	
6204	0	31992	
6205	0	32086	
6206	0	32168	
6207	0	32310	
6208	0	32360	
6209	0	32360	
6210	0	32280	
6211	0	32112	
6212	0	31928	
6213	0	31708	
6214	0	31440	
6215	0	31114	
6216	0	30856	
6217	0	30612	
6218	0	30316	
6219	0	30228	
6220	0	30260	
6221	0	30358	
6222	0	30640	
6223	0	31146	
6224	0	31652	
6225	0	32336	
6226	0	33228	
6227	0	34334	
6228	0	35616	
6229	0	37136	
6230	0	38832	
6231	0	40342	
6232	0	41784	
6233	0	43412	
6234	0	45196	
6235	0	46948	
6236	0	48628	
6237	0	50004	
6238	0	51232	
6239	0	52460	
6240	0	53776	
6241	0	55152	
6242	0	56312	
6243	0	57544	
6244	0	58816	
6245	0	59948	
6246	0	60706	
6247	0	60696	
6248	0	59596	
6249	0	57528	
6250	0	54456	
6251	0	51096	
6252	0	47792	
6253	0	44440	
6254	0	40944	
6255	0	37432	
6256	0	34276	
6257	0	31892	
6258	0	30208	
6259	0	29248	
6260	0	28884	
6261	0	28856	
6262	0	28928	
6263	0	29052	
6264	0	29184	
6265	0	29228	
6266	0	29194	
6267	0	29228	
6268	0	29194	
6269	0	29222	
6270	0	29236	
6271	0	29218	
6272	0	29340	
6273	0	29412	
6274	0	29484	
6275	0	29516	
6276	0	29632	
6277	0	29796	
6278	0	29904	
6279	0	29996	
6280	0	30140	
6281	0	30328	
6282	0	30396	
6283	0	30396	
6284	0	30336	
6285	0	30242	
6286	0	30112	
6287	0	29926	
6288	0	29892	
6289	0	29792	
6290	0	29744	
6291	0	29790	
6292	0	29808	
6293	0	29772	
6294	0	29800	
6295	0	29896	
6296	0	30040	
6297	0	30032	
6298	0	29956	
6299	0	29980	
6300	0	30032	
6301	0	30084	
6302	0	30040	
6303	0	30016	
6304	0	30028	
6305	0	30106	
6306	0	30184	
6307	0	30106	
6308	0	29984	
6309	0	29968	
6310	0	29928	
6311	0	29896	
6312	0	29940	
6313	0	29992	
6314	0	30080	
6315	0	30092	
6316	0	30088	
6317	0	30146	
6318	0	30184	
6319	0	30194	
6320	0	30144	
6321	0	30252	
6322	0	30504	
6323	0	30692	
6324	0	30808	
6325	0	30908	
6326	0	31000	
6327	0	31040	
6328	0	30992	
6329	0	30992	
6330	0	31008	
6331	0	31004	
6332	0	31056	
6333	0	31160	
6334	0	31120	
6335	0	30972	
6336	0	30948	
6337	0	30972	
6338	0	31012	
6339	0	31092	
6340	0	31080	
6341	0	31164	
6342	0	31308	
6343	0	31392	
6344	0	31420	
6345	0	31456	
6346	0	31484	
6347	0	31536	
6348	0	31608	
6349	0	31624	
6350	0	31664	
6351	0	31696	
6352	0	31584	
6353	0	31356	
6354	0	31284	
6355	0	31352	
6356	0	31408	
6357	0	31476	
6358	0	31522	
6359	0	31540	
6360	0	31552	
6361	0	31588	
6362	0	31760	
6363	0	31820	
6364	0	31820	
6365	0	31840	
6366	0	31952	
6367	0	32048	
6368	0	32036	
6369	0	32056	
6370	0	32152	
6371	0	32148	
6372	0	32144	
6373	0	32168	
6374	0	32140	
6375	0	32146	
6376	0	32280	
6377	0	32272	
6378	0	32216	
6379	0	32472	
6380	0	32632	
6381	0	32628	
6382	0	32656	
6383	0	32708	
6384	0	32756	
6385	0	32760	
6386	0	32840	
6387	0	32996	
6388	0	33060	
6389	0	33002	
6390	0	32928	
6391	0	32708	
6392	0	32572	
6393	0	32388	
6394	0	32268	
6395	0	32218	
6396	0	32376	
6397	0	32592	
6398	0	32684	
6399	0	32752	
6400	0	32908	
6401	0	33184	
6402	0	33348	
6403	0	33376	
6404	0	33472	
6405	0	33548	
6406	0	33664	
6407	0	33764	
6408	0	33784	
6409	0	33768	
6410	0	33600	
6411	0	33592	
6412	0	33740	
6413	0	33792	
6414	0	33880	
6415	0	33968	
6416	0	33892	
6417	0	33876	
6418	0	33820	
6419	0	33832	
6420	0	33996	
6421	0	34192	
6422	0	34356	
6423	0	34488	
6424	0	34616	
6425	0	34624	
6426	0	34628	
6427	0	34828	
6428	0	34764	
6429	0	34660	
6430	0	34612	
6431	0	34692	
6432	0	34804	
6433	0	34848	
6434	0	35000	
6435	0	35156	
6436	0	35304	
6437	0	35364	
6438	0	35440	
6439	0	35456	
6440	0	35516	
6441	0	35700	
6442	0	35852	
6443	0	35936	
6444	0	35988	
6445	0	35968	
6446	0	36016	
6447	0	36084	
6448	0	36176	
6449	0	36132	
6450	0	36204	
6451	0	36288	
6452	0	36288	
6453	0	36324	
6454	0	36400	
6455	0	36430	
6456	0	36432	
6457	0	36500	
6458	0	36488	
6459	0	36540	
6460	0	36652	
6461	0	36820	
6462	0	37036	
6463	0	37338	
6464	0	37568	
6465	0	37802	
6466	0	37956	
6467	0	38008	
6468	0	38084	
6469	0	38172	
6470	0	38232	
6471	0	38116	
6472	0	37944	
6473	0	37852	
6474	0	37728	
6475	0	37505	
6476	0	37316	
6477	0	37212	
6478	0	37216	
6479	0	37324	
6480	0	37352	
6481	0	37384	
6482	0	37516	
6483	0	37610	
6484	0	37584	
6485	0	37506	
6486	0	37420	
6487	0	37352	
6488	0	37240	
6489	0	37052	
6490	0	36808	
6491	0	36720	
6492	0	36616	
6493	0	36428	
6494	0	36320	
6495	0	36162	
6496	0	35968	
6497	0	35728	
6498	0	35552	
6499	0	35420	
6500	0	35280	
6501	0	35156	
6502	0	35012	
6503	0	34792	
6504	0	34612	
6505	0	34448	
6506	0	34248	
6507	0	33996	
6508	0	33788	
6509	0	33680	
6510	0	33448	
6511	0	33180	
6512	0	33016	
6513	0	32690	
6514	0	32328	
6515	0	31984	
6516	0	31808	
6517	0	31664	
6518	0	31392	
6519	0	31056	
6520	0	30872	
6521	0	30788	
6522	0	30848	
6523	0	30902	
6524	0	30892	
6525	0	30932	
6526	0	30964	
6527	0	30804	
6528	0	30684	
6529	0	30458	
6530	0	30312	
6531	0	30112	
6532	0	29700	
6533	0	29372	
6534	0	29148	
6535	0	29064	
6536	0	29032	
6537	0	29140	
6538	0	29272	
6539	0	29302	
6540	0	29360	
6541	0	29540	
6542	0	29580	
6543	0	29468	
6544	0	29256	
6545	0	29176	
6546	0	29112	
6547	0	28966	
6548	0	29026	
6549	0	29016	
6550	0	28952	
6551	0	28802	
6552	0	28716	
6553	0	28752	
6554	0	28736	
6555	0	28730	
6556	0	28744	
6557	0	28842	
6558	0	29064	
6559	0	29160	
6560	0	29188	
6561	0	29408	
6562	0	29600	
6563	0	29688	
6564	0	29680	
6565	0	29496	
6566	0	29480	
6567	0	29362	
6568	0	29160	
6569	0	29234	
6570	0	29308	
6571	0	29248	
6572	0	29140	
6573	0	29132	
6574	0	29082	
6575	0	29076	
6576	0	29152	
6577	0	29232	
6578	0	29448	
6579	0	29628	
6580	0	29684	
6581	0	29638	
6582	0	29612	
6583	0	29576	
6584	0	29584	
6585	0	29500	
6586	0	29450	
6587	0	29438	
6588	0	29542	
6589	0	29660	
6590	0	29752	
6591	0	29828	
6592	0	29954	
6593	0	29936	
6594	0	29696	
6595	0	29584	
6596	0	29678	
6597	0	29648	
6598	0	29700	
6599	0	29612	
6600	0	29520	
6601	0	29624	
6602	0	29666	
6603	0	29856	
6604	0	30016	
6605	0	30052	
6606	0	30132	
6607	0	30064	
6608	0	29948	
6609	0	29924	
6610	0	29976	
6611	0	29980	
6612	0	30152	
6613	0	30324	
6614	0	30376	
6615	0	30464	
6616	0	30620	
6617	0	30656	
6618	0	30684	
6619	0	30968	
6620	0	31112	
6621	0	31048	
6622	0	30932	
6623	0	30920	
6624	0	31004	
6625	0	30992	
6626	0	30924	
6627	0	30948	
6628	0	30882	
6629	0	30624	
6630	0	30604	
6631	0	30584	
6632	0	30416	
6633	0	30242	
6634	0	30160	
6635	0	30266	
6636	0	30428	
6637	0	30496	
6638	0	30456	
6639	0	30548	
6640	0	30736	
6641	0	30908	
6642	0	31076	
6643	0	31348	
6644	0	31496	
6645	0	31444	
6646	0	31360	
6647	0	31508	
6648	0	31400	
6649	0	30940	
6650	0	30800	
6651	0	30616	
6652	0	30532	
6653	0	30476	
6654	0	30264	
6655	0	30100	
6656	0	30284	
6657	0	30576	
6658	0	30708	
6659	0	30892	
6660	0	31164	
6661	0	31272	
6662	0	31440	
6663	0	31584	
6664	0	31564	
6665	0	31662	
6666	0	31568	
6667	0	31556	
6668	0	31556	
6669	0	31524	
6670	0	31532	
6671	0	31600	
6672	0	31676	
6673	0	31760	
6674	0	31696	
6675	0	31744	
6676	0	31828	
6677	0	31892	
6678	0	31796	
6679	0	31544	
6680	0	31348	
6681	0	31336	
6682	0	31194	
6683	0	30852	
6684	0	30764	
6685	0	30690	
6686	0	30944	
6687	0	31228	
6688	0	31420	
6689	0	31682	
6690	0	31996	
6691	0	32224	
6692	0	32180	
6693	0	32220	
6694	0	32592	
6695	0	32856	
6696	0	32970	
6697	0	33104	
6698	0	33292	
6699	0	33116	
6700	0	32900	
6701	0	32968	
6702	0	32956	
6703	0	32872	
6704	0	32684	
6705	0	32506	
6706	0	32176	
6707	0	32064	
6708	0	32188	
6709	0	32484	
6710	0	32732	
6711	0	32840	
6712	0	32940	
6713	0	32976	
6714	0	32960	
6715	0	33044	
6716	0	33000	
6717	0	33422	
6718	0	33888	
6719	0	34032	
6720	0	34076	
6721	0	34388	
6722	0	34420	
6723	0	34428	
6724	0	34576	
6725	0	34880	
6726	0	34952	
6727	0	34892	
6728	0	34620	
6729	0	34312	
6730	0	34364	
6731	0	34632	
6732	0	34748	
6733	0	34744	
6734	0	35052	
6735	0	35140	
6736	0	35040	
6737	0	34932	
6738	0	34804	
6739	0	34724	
6740	0	34700	
6741	0	34500	
6742	0	34248	
6743	0	34296	
6744	0	34244	
6745	0	34064	
6746	0	33976	
6747	0	34032	
6748	0	33920	
6749	0	33648	
6750	0	33456	
6751	0	33356	
6752	0	33408	
6753	0	33628	
6754	0	33600	
6755	0	33504	
6756	0	33472	
6757	0	33560	
6758	0	33680	
6759	0	33728	
6760	0	33548	
6761	0	33400	
6762	0	33332	
6763	0	33328	
6764	0	33380	
6765	0	33252	
6766	0	33036	
6767	0	32960	
6768	0	32704	
6769	0	32552	
6770	0	32544	
6771	0	32704	
6772	0	32886	
6773	0	32984	
6774	0	32996	
6775	0	32912	
6776	0	32792	
6777	0	32784	
6778	0	32872	
6779	0	32976	
6780	0	32992	
6781	0	32916	
6782	0	32780	
6783	0	32700	
6784	0	32784	
6785	0	32876	
6786	0	32892	
6787	0	33096	
6788	0	33240	
6789	0	33076	
6790	0	32890	
6791	0	32900	
6792	0	32776	
6793	0	32536	
6794	0	32436	
6795	0	32416	
6796	0	32744	
6797	0	32792	
6798	0	32728	
6799	0	32632	
6800	0	32480	
6801	0	32532	
6802	0	32576	
6803	0	32592	
6804	0	32874	
6805	0	33108	
6806	0	32866	
6807	0	32428	
6808	0	32250	
6809	0	32300	
6810	0	32488	
6811	0	32620	
6812	0	32520	
6813	0	32304	
6814	0	32202	
6815	0	32200	
6816	0	32484	
6817	0	32416	
6818	0	32296	
6819	0	32136	
6820	0	32080	
6821	0	32188	
6822	0	32276	
6823	0	32480	
6824	0	32920	
6825	0	33248	
6826	0	33456	
6827	0	33380	
6828	0	33256	
6829	0	32980	
6830	0	32592	
6831	0	32320	
6832	0	32332	
6833	0	32336	
6834	0	32032	
6835	0	31740	
6836	0	31628	
6837	0	31592	
6838	0	31628	
6839	0	31520	
6840	0	31272	
6841	0	31316	
6842	0	31452	
6843	0	31604	
6844	0	31528	
6845	0	31512	
6846	0	31444	
6847	0	31672	
6848	0	32524	
6849	0	33536	
6850	0	34448	
6851	0	35310	
6852	0	36572	
6853	0	37978	
6854	0	39348	
6855	0	40716	
6856	0	42344	
6857	0	44172	
6858	0	45924	
6859	0	47256	
6860	0	48500	
6861	0	49832	
6862	0	50940	
6863	0	51960	
6864	0	53200	
6865	0	54680	
6866	0	55840	
6867	0	56832	
6868	0	58040	
6869	0	59136	
6870	0	59856	
6871	0	59911	
6872	0	59184	
6873	0	57520	
6874	0	54560	
6875	0	51040	
6876	0	47554	
6877	0	44352	
6878	0	40956	
6879	0	37580	
6880	0	34208	
6881	0	31632	
6882	0	30264	
6883	0	29736	
6884	0	29420	
6885	0	29204	
6886	0	29181	
6887	0	29176	
6888	0	29164	
6889	0	29082	
6890	0	28868	
6891	0	28620	
6892	0	28408	
6893	0	28414	
6894	0	28272	
6895	0	27996	
6896	0	27842	
6897	0	27960	
6898	0	28384	
6899	0	28772	
6900	0	29012	
6901	0	29344	
6902	0	29616	
6903	0	29832	
6904	0	30000	
6905	0	29980	
6906	0	29868	
6907	0	29800	
6908	0	29720	
6909	0	29762	
6910	0	29664	
6911	0	29672	
6912	0	29726	
6913	0	29664	
6914	0	29620	
6915	0	29724	
6916	0	29776	
6917	0	29752	
6918	0	29728	
6919	0	29796	
6920	0	29928	
6921	0	30032	
6922	0	30140	
6923	0	30258	
6924	0	30170	
6925	0	29888	
6926	0	29568	
6927	0	29428	
6928	0	29408	
6929	0	29396	
6930	0	29344	
6931	0	29388	
6932	0	29476	
6933	0	29498	
6934	0	29536	
6935	0	29396	
6936	0	29120	
6937	0	28864	
6938	0	28804	
6939	0	29032	
6940	0	29168	
6941	0	29248	
6942	0	29466	
6943	0	29580	
6944	0	29696	
6945	0	29712	
6946	0	29892	
6947	0	30280	
6948	0	30268	
6949	0	30348	
6950	0	30288	
6951	0	30244	
6952	0	30356	
6953	0	30376	
6954	0	30356	
6955	0	30312	
6956	0	30102	
6957	0	30056	
6958	0	29920	
6959	0	29880	
6960	0	29932	
6961	0	29868	
6962	0	29784	
6963	0	29932	
6964	0	30064	
6965	0	30088	
6966	0	30252	
6967	0	30292	
6968	0	30340	
6969	0	30256	
6970	0	30028	
6971	0	30156	
6972	0	30176	
6973	0	30268	
6974	0	30208	
6975	0	30164	
6976	0	30220	
6977	0	30266	
6978	0	30382	
6979	0	30496	
6980	0	30744	
6981	0	30772	
6982	0	30328	
6983	0	30084	
6984	0	29972	
6985	0	30052	
6986	0	30048	
6987	0	30148	
6988	0	30336	
6989	0	30320	
6990	0	30332	
6991	0	30272	
6992	0	30072	
6993	0	30052	
6994	0	30128	
6995	0	30172	
6996	0	30116	
6997	0	30384	
6998	0	30588	
6999	0	30796	
7000	0	30832	
7001	0	30688	
7002	0	30946	
7003	0	31424	
7004	0	31504	
7005	0	31616	
7006	0	31658	
7007	0	31756	
7008	0	31712	
7009	0	31924	
7010	0	32172	
7011	0	31784	
7012	0	31368	
7013	0	30966	
7014	0	30804	
7015	0	30932	
7016	0	31280	
7017	0	31512	
7018	0	31352	
7019	0	31696	
7020	0	32260	
7021	0	32620	
7022	0	32976	
7023	0	33488	
7024	0	33612	
7025	0	33636	
7026	0	33648	
7027	0	33148	
7028	0	33008	
7029	0	32848	
7030	0	33088	
7031	0	33788	
7032	0	33940	
7033	0	33664	
7034	0	33688	
7035	0	33424	
7036	0	33448	
7037	0	33468	
7038	0	33224	
7039	0	33128	
7040	0	33000	
7041	0	33048	
7042	0	33090	
7043	0	33012	
7044	0	32996	
7045	0	32982	
7046	0	33168	
7047	0	33450	
7048	0	33548	
7049	0	33744	
7050	0	33996	
7051	0	33844	
7052	0	33640	
7053	0	33728	
7054	0	33764	
7055	0	33954	
7056	0	34016	
7057	0	34124	
7058	0	34596	
7059	0	34984	
7060	0	35008	
7061	0	35112	
7062	0	35056	
7063	0	35136	
7064	0	34848	
7065	0	34976	
7066	0	35204	
7067	0	35208	
7068	0	35324	
7069	0	35376	
7070	0	35424	
7071	0	35312	
7072	0	35394	
7073	0	35476	
7074	0	35416	
7075	0	35560	
7076	0	35740	
7077	0	35864	
7078	0	36008	
7079	0	36132	
7080	0	36256	
7081	0	36560	
7082	0	36502	
7083	0	36496	
7084	0	36944	
7085	0	37252	
7086	0	37260	
7087	0	37256	
7088	0	37412	
7089	0	37872	
7090	0	38024	
7091	0	37960	
7092	0	37892	
7093	0	37976	
7094	0	37892	
7095	0	38090	
7096	0	38116	
7097	0	37944	
7098	0	37828	
7099	0	38112	
7100	0	38032	
7101	0	37800	
7102	0	37728	
7103	0	37740	
7104	0	37604	
7105	0	37476	
7106	0	37356	
7107	0	37464	
7108	0	37448	
7109	0	37534	
7110	0	37632	
7111	0	37674	
7112	0	37704	
7113	0	37488	
7114	0	37392	
7115	0	37380	
7116	0	37152	
7117	0	36880	
7118	0	36492	
7119	0	36416	
7120	0	36256	
7121	0	35988	
7122	0	35820	
7123	0	35896	
7124	0	35904	
7125	0	35696	
7126	0	35524	
7127	0	35516	
7128	0	35252	
7129	0	35096	
7130	0	34788	
7131	0	34312	
7132	0	34292	
7133	0	34256	
7134	0	34228	
7135	0	33980	
7136	0	33696	
7137	0	33472	
7138	0	33104	
7139	0	32964	
7140	0	32520	
7141	0	32116	
7142	0	32072	
7143	0	32084	
7144	0	32064	
7145	0	31778	
7146	0	31456	
7147	0	31016	
7148	0	30560	
7149	0	30256	
7150	0	30064	
7151	0	29840	
7152	0	29704	
7153	0	29820	
7154	0	30040	
7155	0	29976	
7156	0	30032	
7157	0	30280	
7158	0	29924	
7159	0	29690	
7160	0	29416	
7161	0	29184	
7162	0	29112	
7163	0	29248	
7164	0	29524	
7165	0	29470	
7166	0	29420	
7167	0	29176	
7168	0	28952	
7169	0	28968	
7170	0	28908	
7171	0	29280	
7172	0	29576	
7173	0	29392	
7174	0	29076	
7175	0	28864	
7176	0	28770	
7177	0	29044	
7178	0	28988	
7179	0	28944	
7180	0	28932	
7181	0	28988	
7182	0	29136	
7183	0	29180	
7184	0	29368	
7185	0	29640	
7186	0	29658	
7187	0	29764	
7188	0	30076	
7189	0	30180	
7190	0	30208	
7191	0	30144	
7192	0	29924	
7193	0	29765	
7194	0	29760	
7195	0	29380	
7196	0	29126	
7197	0	28900	
7198	0	28636	
7199	0	28698	
7200	0	28912	
7201	0	29056	
7202	0	29176	
7203	0	29360	
7204	0	29468	
7205	0	29340	
7206	0	29264	
7207	0	29668	
7208	0	29920	
7209	0	29676	
7210	0	29616	
7211	0	29732	
7212	0	29968	
7213	0	30244	
7214	0	30408	
7215	0	29980	
7216	0	29536	
7217	0	29472	
7218	0	29626	
7219	0	29498	
7220	0	29416	
7221	0	29392	
7222	0	29252	
7223	0	29328	
7224	0	29394	
7225	0	29280	
7226	0	29310	
7227	0	29620	
7228	0	29580	
7229	0	29456	
7230	0	29548	
7231	0	29740	
7232	0	29960	
7233	0	29806	
7234	0	29668	
7235	0	29592	
7236	0	29572	
7237	0	29532	
7238	0	29668	
7239	0	29832	
7240	0	30096	
7241	0	30272	
7242	0	30272	
7243	0	30316	
7244	0	30356	
7245	0	30404	
7246	0	30568	
7247	0	30528	
7248	0	30440	
7249	0	30292	
7250	0	30028	
7251	0	30168	
7252	0	30712	
7253	0	30904	
7254	0	30564	
7255	0	30202	
7256	0	29868	
7257	0	29800	
7258	0	29944	
7259	0	30138	
7260	0	30472	
7261	0	30708	
7262	0	31060	
7263	0	31360	
7264	0	31564	
7265	0	31640	
7266	0	31480	
7267	0	31428	
7268	0	31224	
7269	0	30940	
7270	0	30880	
7271	0	30708	
7272	0	30276	
7273	0	30268	
7274	0	30516	
7275	0	30656	
7276	0	30824	
7277	0	30924	
7278	0	30848	
7279	0	30624	
7280	0	30496	
7281	0	30468	
7282	0	30400	
7283	0	30048	
7284	0	29792	
7285	0	29976	
7286	0	30464	
7287	0	30940	
7288	0	31112	
7289	0	31200	
7290	0	31448	
7291	0	31588	
7292	0	31700	
7293	0	31860	
7294	0	31714	
7295	0	31076	
7296	0	30764	
7297	0	30658	
7298	0	30724	
7299	0	30840	
7300	0	30996	
7301	0	31168	
7302	0	31120	
7303	0	30808	
7304	0	30740	
7305	0	30944	
7306	0	31146	
7307	0	31520	
7308	0	31776	
7309	0	31840	
7310	0	31848	
7311	0	31892	
7312	0	31904	
7313	0	31704	
7314	0	31648	
7315	0	31554	
7316	0	31700	
7317	0	31902	
7318	0	31876	
7319	0	31980	
7320	0	32124	
7321	0	32308	
7322	0	32478	
7323	0	32528	
7324	0	32648	
7325	0	32844	
7326	0	32568	
7327	0	32276	
7328	0	32516	
7329	0	32652	
7330	0	32452	
7331	0	32572	
7332	0	32956	
7333	0	33128	
7334	0	32906	
7335	0	33016	
7336	0	33088	
7337	0	32960	
7338	0	32932	
7339	0	33000	
7340	0	33320	
7341	0	33724	
7342	0	33804	
7343	0	33976	
7344	0	34312	
7345	0	34536	
7346	0	34534	
7347	0	34748	
7348	0	34696	
7349	0	34200	
7350	0	33656	
7351	0	33404	
7352	0	33276	
7353	0	33172	
7354	0	32840	
7355	0	32560	
7356	0	32428	
7357	0	32544	
7358	0	32864	
7359	0	33152	
7360	0	33164	
7361	0	33024	
7362	0	32924	
7363	0	32956	
7364	0	32894	
7365	0	32982	
7366	0	33208	
7367	0	33288	
7368	0	33298	
7369	0	33196	
7370	0	32892	
7371	0	32554	
7372	0	32484	
7373	0	32432	
7374	0	32352	
7375	0	32188	
7376	0	31948	
7377	0	31648	
7378	0	31560	
7379	0	31544	
7380	0	31552	
7381	0	31596	
7382	0	31636	
7383	0	31694	
7384	0	31696	
7385	0	31724	
7386	0	31616	
7387	0	31520	
7388	0	31576	
7389	0	31620	
7390	0	31384	
7391	0	31196	
7392	0	31276	
7393	0	31304	
7394	0	31164	
7395	0	31264	
7396	0	31404	
7397	0	31546	
7398	0	31688	
7399	0	31740	
7400	0	31808	
7401	0	31832	
7402	0	32040	
7403	0	32060	
7404	0	32016	
7405	0	32042	
7406	0	32068	
7407	0	32002	
7408	0	32004	
7409	0	32056	
7410	0	32180	
7411	0	32328	
7412	0	32300	
7413	0	32128	
7414	0	32000	
7415	0	32052	
7416	0	32208	
7417	0	32124	
7418	0	31914	
7419	0	31840	
7420	0	31552	
7421	0	31460	
7422	0	31512	
7423	0	31736	
7424	0	31884	
7425	0	32080	
7426	0	32244	
7427	0	32248	
7428	0	32240	
7429	0	32232	
7430	0	32144	
7431	0	32030	
7432	0	31962	
7433	0	32116	
7434	0	32244	
7435	0	32296	
7436	0	32248	
7437	0	32172	
7438	0	32260	
7439	0	32440	
7440	0	32556	
7441	0	32540	
7442	0	32672	
7443	0	32540	
7444	0	32338	
7445	0	32288	
7446	0	32328	
7447	0	32358	
7448	0	32416	
7449	0	32380	
7450	0	32308	
7451	0	32304	
7452	0	32308	
7453	0	32308	
7454	0	32308	
7455	0	32088	
7456	0	31844	
7457	0	31724	
7458	0	31656	
7459	0	31672	
7460	0	31856	
7461	0	32092	
7462	0	32568	
7463	0	33112	
7464	0	33812	
7465	0	34778	
7466	0	36000	
7467	0	37376	
7468	0	38888	
7469	0	40528	
7470	0	42168	
7471	0	43700	
7472	0	45244	
7473	0	46976	
7474	0	48648	
7475	0	49892	
7476	0	50996	
7477	0	52072	
7478	0	53128	
7479	0	54304	
7480	0	55504	
7481	0	56648	
7482	0	57608	
7483	0	58676	
7484	0	59760	
7485	0	60610	
7486	0	60900	
7487	0	60096	
7488	0	58116	
7489	0	55144	
7490	0	51824	
7491	0	48472	
7492	0	45176	
7493	0	41632	
7494	0	38036	
7495	0	34888	
7496	0	32548	
7497	0	31036	
7498	0	30196	
7499	0	29896	
7500	0	29888	
7501	0	29896	
7502	0	29992	
7503	0	30104	
7504	0	30424	
7505	0	30380	
7506	0	30220	
7507	0	30302	
7508	0	30364	
7509	0	30336	
7510	0	30360	
7511	0	30376	
7512	0	30312	
7513	0	30176	
7514	0	30200	
7515	0	30344	
7516	0	30536	
7517	0	30704	
7518	0	31044	
7519	0	31246	
7520	0	31484	
7521	0	31724	
7522	0	31750	
7523	0	31560	
7524	0	31458	
7525	0	31382	
7526	0	31296	
7527	0	31400	
7528	0	31556	
7529	0	31412	
7530	0	31420	
7531	0	31296	
7532	0	31152	
7533	0	31036	
7534	0	30952	
7535	0	30868	
7536	0	30728	
7537	0	30816	
7538	0	31040	
7539	0	31192	
7540	0	31308	
7541	0	31220	
7542	0	31216	
7543	0	31408	
7544	0	31436	
7545	0	31520	
7546	0	31412	
7547	0	31364	
7548	0	31368	
7549	0	31364	
7550	0	31304	
7551	0	31432	
7552	0	31584	
7553	0	31712	
7554	0	31784	
7555	0	31844	
7556	0	31936	
7557	0	31872	
7558	0	31796	
7559	0	31852	
7560	0	31990	
7561	0	32176	
7562	0	32314	
7563	0	32404	
7564	0	32588	
7565	0	32522	
7566	0	32492	
7567	0	32488	
7568	0	32464	
7569	0	32416	
7570	0	32492	
7571	0	32604	
7572	0	32762	
7573	0	32904	
7574	0	32872	
7575	0	32544	
7576	0	32384	
7577	0	32392	
7578	0	32366	
7579	0	32424	
7580	0	32588	
7581	0	32834	
7582	0	32732	
7583	0	32592	
7584	0	32704	
7585	0	32808	
7586	0	32756	
7587	0	32826	
7588	0	32932	
7589	0	32928	
7590	0	32932	
7591	0	33084	
7592	0	33132	
7593	0	33112	
7594	0	33112	
7595	0	33184	
7596	0	33212	
7597	0	33232	
7598	0	33212	
7599	0	33128	
7600	0	33248	
7601	0	33386	
7602	0	33624	
7603	0	33844	
7604	0	34020	
7605	0	34064	
7606	0	34076	
7607	0	34080	
7608	0	34096	
7609	0	34044	
7610	0	33908	
7611	0	33744	
7612	0	33672	
7613	0	33648	
7614	0	33624	
7615	0	33592	
7616	0	33632	
7617	0	33740	
7618	0	33774	
7619	0	33848	
7620	0	33972	
7621	0	34088	
7622	0	34216	
7623	0	34356	
7624	0	34264	
7625	0	34248	
7626	0	34248	
7627	0	34288	
7628	0	34408	
7629	0	34452	
7630	0	34488	
7631	0	34608	
7632	0	34664	
7633	0	34624	
7634	0	34696	
7635	0	34836	
7636	0	34944	
7637	0	35040	
7638	0	35100	
7639	0	35258	
7640	0	35436	
7641	0	35532	
7642	0	35572	
7643	0	35548	
7644	0	35452	
7645	0	35548	
7646	0	35592	
7647	0	35556	
7648	0	35592	
7649	0	35592	
7650	0	35740	
7651	0	35744	
7652	0	35732	
7653	0	35808	
7654	0	35800	
7655	0	35800	
7656	0	35728	
7657	0	35784	
7658	0	35942	
7659	0	36116	
7660	0	36218	
7661	0	36224	
7662	0	36272	
7663	0	36224	
7664	0	36260	
7665	0	36356	
7666	0	36596	
7667	0	36672	
7668	0	36688	
7669	0	36784	
7670	0	36840	
7671	0	36816	
7672	0	36790	
7673	0	36776	
7674	0	36784	
7675	0	36812	
7676	0	36824	
7677	0	36924	
7678	0	37154	
7679	0	37312	
7680	0	37508	
7681	0	37648	
7682	0	37828	
7683	0	37984	
7684	0	38224	
7685	0	38432	
7686	0	38578	
7687	0	38652	
7688	0	38636	
7689	0	38464	
7690	0	38332	
7691	0	38288	
7692	0	38240	
7693	0	38136	
7694	0	38056	
7695	0	38008	
7696	0	38136	
7697	0	38332	
7698	0	38500	
7699	0	38620	
7700	0	38756	
7701	0	38912	
7702	0	39092	
7703	0	39224	
7704	0	39378	
7705	0	39440	
7706	0	39480	
7707	0	39528	
7708	0	39452	
7709	0	39316	
7710	0	39200	
7711	0	39100	
7712	0	39064	
7713	0	39040	
7714	0	39032	
7715	0	38996	
7716	0	38996	
7717	0	38912	
7718	0	39016	
7719	0	39064	
7720	0	38968	
7721	0	38896	
7722	0	38920	
7723	0	38890	
7724	0	38792	
7725	0	38760	
7726	0	38608	
7727	0	38384	
7728	0	38278	
7729	0	38088	
7730	0	37920	
7731	0	37730	
7732	0	37536	
7733	0	37424	
7734	0	37232	
7735	0	37016	
7736	0	36846	
7737	0	36736	
7738	0	36578	
7739	0	36372	
7740	0	36220	
7741	0	35992	
7742	0	35824	
7743	0	35800	
7744	0	35584	
7745	0	35296	
7746	0	35018	
7747	0	34840	
7748	0	34632	
7749	0	34458	
7750	0	34296	
7751	0	34154	
7752	0	33948	
7753	0	33594	
7754	0	33250	
7755	0	33092	
7756	0	32972	
7757	0	32852	
7758	0	32704	
7759	0	32616	
7760	0	32500	
7761	0	32414	
7762	0	32380	
7763	0	32280	
7764	0	32210	
7765	0	32140	
7766	0	31984	
7767	0	31824	
7768	0	31648	
7769	0	31532	
7770	0	31404	
7771	0	31290	
7772	0	31252	
7773	0	31158	
7774	0	31016	
7775	0	30892	
7776	0	30720	
7777	0	30656	
7778	0	30674	
7779	0	30768	
7780	0	30764	
7781	0	30760	
7782	0	30846	
7783	0	30928	
7784	0	30956	
7785	0	30898	
7786	0	30778	
7787	0	30656	
7788	0	30708	
7789	0	30692	
7790	0	30573	
7791	0	30524	
7792	0	30636	
7793	0	30608	
7794	0	30532	
7795	0	30472	
7796	0	30376	
7797	0	30308	
7798	0	30400	
7799	0	30508	
7800	0	30560	
7801	0	30660	
7802	0	30756	
7803	0	30768	
7804	0	30768	
7805	0	30876	
7806	0	30892	
7807	0	30840	
7808	0	30778	
7809	0	30804	
7810	0	30720	
7811	0	30764	
7812	0	30790	
7813	0	30676	
7814	0	30584	
7815	0	30524	
7816	0	30516	
7817	0	30676	
7818	0	30908	
7819	0	31112	
7820	0	31160	
7821	0	31180	
7822	0	31316	
7823	0	31424	
7824	0	31572	
7825	0	31778	
7826	0	31720	
7827	0	31624	
7828	0	31476	
7829	0	31440	
7830	0	31376	
7831	0	31268	
7832	0	31220	
7833	0	31160	
7834	0	31096	
7835	0	31104	
7836	0	31048	
7837	0	31006	
7838	0	31024	
7839	0	31160	
7840	0	31256	
7841	0	31328	
7842	0	31380	
7843	0	31420	
7844	0	31464	
7845	0	31488	
7846	0	31608	
7847	0	31720	
7848	0	31680	
7849	0	31580	
7850	0	31488	
7851	0	31464	
7852	0	31462	
7853	0	31336	
7854	0	31280	
7855	0	31248	
7856	0	31188	
7857	0	31212	
7858	0	31236	
7859	0	31296	
7860	0	31452	
7861	0	31580	
7862	0	31764	
7863	0	31956	
7864	0	32044	
7865	0	32092	
7866	0	32120	
7867	0	32104	
7868	0	32036	
7869	0	31972	
7870	0	31988	
7871	0	31976	
7872	0	31892	
7873	0	31832	
7874	0	31860	
7875	0	31828	
7876	0	31696	
7877	0	31692	
7878	0	31832	
7879	0	31864	
7880	0	31982	
7881	0	32064	
7882	0	32108	
7883	0	32168	
7884	0	32240	
7885	0	32208	
7886	0	32192	
7887	0	32192	
7888	0	32200	
7889	0	32212	
7890	0	32248	
7891	0	32280	
7892	0	32288	
7893	0	32196	
7894	0	32200	
7895	0	32248	
7896	0	32326	
7897	0	32400	
7898	0	32488	
7899	0	32600	
7900	0	32688	
7901	0	32752	
7902	0	32824	
7903	0	32820	
7904	0	32856	
7905	0	32876	
7906	0	32864	
7907	0	32906	
7908	0	32866	
7909	0	32688	
7910	0	32608	
7911	0	32522	
7912	0	32420	
7913	0	32320	
7914	0	32224	
7915	0	32220	
7916	0	32220	
7917	0	32196	
7918	0	32276	
7919	0	32472	
7920	0	32530	
7921	0	32596	
7922	0	32644	
7923	0	32636	
7924	0	32644	
7925	0	32712	
7926	0	32680	
7927	0	32656	
7928	0	32740	
7929	0	32816	
7930	0	32784	
7931	0	32860	
7932	0	32900	
7933	0	32826	
7934	0	32720	
7935	0	32656	
7936	0	32684	
7937	0	32654	
7938	0	32528	
7939	0	32372	
7940	0	32362	
7941	0	32416	
7942	0	32456	
7943	0	32432	
7944	0	32408	
7945	0	32404	
7946	0	32448	
7947	0	32492	
7948	0	32522	
7949	0	32552	
7950	0	32540	
7951	0	32604	
7952	0	32588	
7953	0	32540	
7954	0	32466	
7955	0	32360	
7956	0	32352	
7957	0	32372	
7958	0	32448	
7959	0	32552	
7960	0	32648	
7961	0	32736	
7962	0	32794	
7963	0	32792	
7964	0	32812	
7965	0	32792	
7966	0	32752	
7967	0	32720	
7968	0	32676	
7969	0	32748	
7970	0	32794	
7971	0	32736	
7972	0	32624	
7973	0	32516	
7974	0	32540	
7975	0	32520	
7976	0	32452	
7977	0	32420	
7978	0	32408	
7979	0	32386	
7980	0	32412	
7981	0	32496	
7982	0	32660	
7983	0	32688	
7984	0	32660	
7985	0	32736	
7986	0	32720	
7987	0	32720	
7988	0	32694	
7989	0	32600	
7990	0	32496	
7991	0	32452	
7992	0	32404	
7993	0	32378	
7994	0	32300	
7995	0	32224	
7996	0	32168	
7997	0	32204	
7998	0	32316	
7999	0	32436	
8000	0	32500	
8001	0	32580	
8002	0	32624	
8003	0	32660	
8004	0	32680	
8005	0	32684	
8006	0	32716	
8007	0	32676	
8008	0	32540	
8009	0	32508	
8010	0	32508	
8011	0	32488	
8012	0	32404	
8013	0	32336	
8014	0	32342	
8015	0	32320	
8016	0	32252	
8017	0	32252	
8018	0	32292	
8019	0	32384	
